#,Wave/freq,Total,N2,H2O,Rayleigh,CIA
4.000000000e-01,8.89723e-01,9.99999e-01,9.99986e-01,8.89735e-01,9.99999e-01
4.020000000e-01,8.91785e-01,9.99999e-01,9.99991e-01,8.91793e-01,9.99999e-01
4.040100000e-01,8.93809e-01,9.99999e-01,9.99996e-01,8.93812e-01,9.99999e-01
4.060300500e-01,8.95796e-01,9.99999e-01,9.99998e-01,8.95796e-01,9.99999e-01
4.080602003e-01,8.97745e-01,9.99999e-01,9.99999e-01,8.97746e-01,9.99999e-01
4.101005013e-01,8.99660e-01,9.99999e-01,9.99999e-01,8.99660e-01,9.99999e-01
4.121510038e-01,9.01541e-01,9.99999e-01,9.99999e-01,9.01541e-01,9.99999e-01
4.142117588e-01,9.03386e-01,9.99999e-01,9.99995e-01,9.03389e-01,9.99999e-01
4.162828176e-01,9.05189e-01,9.99999e-01,9.99983e-01,9.05204e-01,9.99999e-01
4.183642317e-01,9.06977e-01,9.99999e-01,9.99989e-01,9.06986e-01,9.99999e-01
4.204560528e-01,9.08732e-01,9.99999e-01,9.99993e-01,9.08737e-01,9.99999e-01
4.225583331e-01,9.10454e-01,9.99999e-01,9.99997e-01,9.10456e-01,9.99999e-01
4.246711247e-01,9.12143e-01,9.99999e-01,9.99997e-01,9.12145e-01,9.99999e-01
4.267944804e-01,9.13801e-01,9.99999e-01,9.99996e-01,9.13803e-01,9.99999e-01
4.289284528e-01,9.15430e-01,9.99999e-01,9.99997e-01,9.15432e-01,9.99999e-01
4.310730950e-01,9.17030e-01,9.99999e-01,9.99998e-01,9.17031e-01,9.99999e-01
4.332284605e-01,9.18601e-01,9.99999e-01,9.99999e-01,9.18601e-01,9.99999e-01
4.353946028e-01,9.20143e-01,9.99999e-01,9.99999e-01,9.20143e-01,9.99999e-01
4.375715758e-01,9.21655e-01,9.99999e-01,9.99997e-01,9.21657e-01,9.99999e-01
4.397594337e-01,9.23130e-01,9.99999e-01,9.99985e-01,9.23143e-01,9.99999e-01
4.419582309e-01,9.24535e-01,9.99999e-01,9.99926e-01,9.24602e-01,9.99999e-01
4.441680220e-01,9.25983e-01,9.99999e-01,9.99942e-01,9.26035e-01,9.99999e-01
4.463888621e-01,9.27387e-01,9.99999e-01,9.99940e-01,9.27442e-01,9.99999e-01
4.486208064e-01,9.28789e-01,9.99999e-01,9.99962e-01,9.28823e-01,9.99999e-01
4.508639105e-01,9.30162e-01,9.99999e-01,9.99982e-01,9.30178e-01,9.99999e-01
4.531182300e-01,9.31503e-01,9.99999e-01,9.99992e-01,9.31509e-01,9.99999e-01
4.553838212e-01,9.32811e-01,9.99999e-01,9.99994e-01,9.32815e-01,9.99999e-01
4.576607403e-01,9.34096e-01,9.99999e-01,9.99997e-01,9.34098e-01,9.99999e-01
4.599490440e-01,9.35355e-01,9.99999e-01,9.99998e-01,9.35356e-01,9.99999e-01
4.622487892e-01,9.36592e-01,9.99999e-01,9.99999e-01,9.36592e-01,9.99999e-01
4.645600332e-01,9.37804e-01,9.99999e-01,9.99998e-01,9.37805e-01,9.99999e-01
4.668828333e-01,9.38979e-01,9.99999e-01,9.99982e-01,9.38995e-01,9.99999e-01
4.692172475e-01,9.40128e-01,9.99999e-01,9.99962e-01,9.40163e-01,9.99999e-01
4.715633337e-01,9.41287e-01,9.99999e-01,9.99975e-01,9.41310e-01,9.99999e-01
4.739211504e-01,9.42413e-01,9.99999e-01,9.99976e-01,9.42435e-01,9.99999e-01
4.762907561e-01,9.43528e-01,9.99999e-01,9.99987e-01,9.43539e-01,9.99999e-01
4.786722099e-01,9.44618e-01,9.99999e-01,9.99994e-01,9.44623e-01,9.99999e-01
4.810655710e-01,9.45685e-01,9.99999e-01,9.99998e-01,9.45686e-01,9.99999e-01
4.834708988e-01,9.46717e-01,9.99999e-01,9.99985e-01,9.46730e-01,9.99999e-01
4.858882533e-01,9.47729e-01,9.99999e-01,9.99973e-01,9.47754e-01,9.99999e-01
4.883176946e-01,9.48739e-01,9.99999e-01,9.99977e-01,9.48759e-01,9.99999e-01
4.907592831e-01,9.49727e-01,9.99999e-01,9.99979e-01,9.49746e-01,9.99999e-01
4.932130795e-01,9.50700e-01,9.99999e-01,9.99985e-01,9.50713e-01,9.99999e-01
4.956791449e-01,9.51656e-01,9.99999e-01,9.99992e-01,9.51663e-01,9.99999e-01
4.981575406e-01,9.52559e-01,9.99999e-01,9.99962e-01,9.52595e-01,9.99999e-01
5.006483283e-01,9.53416e-01,9.99999e-01,9.99902e-01,9.53509e-01,9.99998e-01
5.031515699e-01,9.53933e-01,9.99999e-01,9.99509e-01,9.54406e-01,9.99994e-01
5.056673278e-01,9.55033e-01,9.99999e-01,9.99740e-01,9.55286e-01,9.99993e-01
5.081956644e-01,9.55834e-01,9.99999e-01,9.99673e-01,9.56150e-01,9.99995e-01
5.107366428e-01,9.56785e-01,9.99999e-01,9.99779e-01,9.56997e-01,9.99998e-01
5.132903260e-01,9.57708e-01,9.99999e-01,9.99873e-01,9.57828e-01,9.99999e-01
5.158567776e-01,9.58593e-01,9.99999e-01,9.99946e-01,9.58644e-01,9.99999e-01
5.184360615e-01,9.59423e-01,9.99999e-01,9.99978e-01,9.59444e-01,9.99999e-01
5.210282418e-01,9.60221e-01,9.99999e-01,9.99991e-01,9.60229e-01,9.99999e-01
5.236333830e-01,9.60968e-01,9.99999e-01,9.99967e-01,9.60999e-01,9.99999e-01
5.262515499e-01,9.61735e-01,9.99999e-01,9.99979e-01,9.61754e-01,9.99999e-01
5.288828077e-01,9.62477e-01,9.99999e-01,9.99981e-01,9.62495e-01,9.99999e-01
5.315272217e-01,9.63207e-01,9.99999e-01,9.99983e-01,9.63222e-01,9.99999e-01
5.341848578e-01,9.63925e-01,9.99999e-01,9.99988e-01,9.63935e-01,9.99999e-01
5.368557821e-01,9.64599e-01,9.99999e-01,9.99962e-01,9.64635e-01,9.99999e-01
5.395400610e-01,9.65190e-01,9.99999e-01,9.99865e-01,9.65321e-01,9.99998e-01
5.422377613e-01,9.65824e-01,9.99999e-01,9.99826e-01,9.65994e-01,9.99996e-01
5.449489501e-01,9.66496e-01,9.99999e-01,9.99838e-01,9.66655e-01,9.99996e-01
5.476736949e-01,9.67163e-01,9.99999e-01,9.99856e-01,9.67302e-01,9.99997e-01
5.504120634e-01,9.67837e-01,9.99999e-01,9.99895e-01,9.67938e-01,9.99999e-01
5.531641237e-01,9.68511e-01,9.99999e-01,9.99947e-01,9.68561e-01,9.99999e-01
5.559299443e-01,9.69148e-01,9.99999e-01,9.99974e-01,9.69172e-01,9.99999e-01
5.587095940e-01,9.69757e-01,9.99999e-01,9.99983e-01,9.69772e-01,9.99999e-01
5.615031420e-01,9.70343e-01,9.99999e-01,9.99981e-01,9.70360e-01,9.99999e-01
5.643106577e-01,9.70917e-01,9.99999e-01,9.99979e-01,9.70937e-01,9.99999e-01
5.671322110e-01,9.71265e-01,9.99999e-01,9.99756e-01,9.71503e-01,9.99997e-01
5.699678720e-01,9.71801e-01,9.99999e-01,9.99741e-01,9.72058e-01,9.99992e-01
5.728177114e-01,9.72336e-01,9.99999e-01,9.99731e-01,9.72602e-01,9.99994e-01
5.756818000e-01,9.72893e-01,9.99999e-01,9.99753e-01,9.73136e-01,9.99996e-01
5.785602090e-01,9.73449e-01,9.99999e-01,9.99784e-01,9.73659e-01,9.99998e-01
5.814530100e-01,9.73962e-01,9.99999e-01,9.99783e-01,9.74173e-01,9.99999e-01
5.843602750e-01,9.74424e-01,9.99999e-01,9.99742e-01,9.74676e-01,9.99998e-01
5.872820764e-01,9.72992e-01,9.99999e-01,9.97781e-01,9.75170e-01,9.99983e-01
5.902184868e-01,9.72995e-01,9.99999e-01,9.97315e-01,9.75655e-01,9.99957e-01
5.931695792e-01,9.74238e-01,9.99999e-01,9.98101e-01,9.76130e-01,9.99958e-01
5.961354271e-01,9.74542e-01,9.99999e-01,9.97920e-01,9.76596e-01,9.99976e-01
5.991161043e-01,9.75564e-01,9.99999e-01,9.98483e-01,9.77053e-01,9.99992e-01
6.021116848e-01,9.76659e-01,9.99999e-01,9.99139e-01,9.77501e-01,9.99998e-01
6.051222432e-01,9.77515e-01,9.99999e-01,9.99564e-01,9.77940e-01,9.99999e-01
6.081478544e-01,9.78188e-01,9.99999e-01,9.99811e-01,9.78371e-01,9.99999e-01
6.111885937e-01,9.78716e-01,9.99999e-01,9.99920e-01,9.78794e-01,9.99999e-01
6.142445367e-01,9.79174e-01,9.99999e-01,9.99964e-01,9.79208e-01,9.99999e-01
6.173157594e-01,9.79596e-01,9.99999e-01,9.99979e-01,9.79615e-01,9.99999e-01
6.204023382e-01,9.79997e-01,9.99999e-01,9.99982e-01,9.80013e-01,9.99999e-01
6.235043498e-01,9.80333e-01,9.99999e-01,9.99926e-01,9.80404e-01,9.99999e-01
6.266218716e-01,9.80406e-01,9.99999e-01,9.99613e-01,9.80788e-01,9.99996e-01
6.297549810e-01,9.81019e-01,9.99999e-01,9.99857e-01,9.81163e-01,9.99994e-01
6.329037559e-01,9.81253e-01,9.99999e-01,9.99719e-01,9.81532e-01,9.99995e-01
6.360682746e-01,9.81657e-01,9.99999e-01,9.99761e-01,9.81893e-01,9.99996e-01
6.392486160e-01,9.81943e-01,9.99999e-01,9.99690e-01,9.82248e-01,9.99998e-01
6.424448591e-01,9.82187e-01,9.99999e-01,9.99585e-01,9.82595e-01,9.99997e-01
6.456570834e-01,9.81037e-01,9.99999e-01,9.98078e-01,9.82936e-01,9.99988e-01
6.488853688e-01,9.81859e-01,9.99999e-01,9.98593e-01,9.83270e-01,9.99969e-01
6.521297956e-01,9.82165e-01,9.99999e-01,9.98566e-01,9.83598e-01,9.99974e-01
6.553904446e-01,9.82498e-01,9.99999e-01,9.98573e-01,9.83920e-01,9.99981e-01
6.586673968e-01,9.83027e-01,9.99999e-01,9.98778e-01,9.84235e-01,9.99993e-01
6.619607338e-01,9.83872e-01,9.99999e-01,9.99319e-01,9.84544e-01,9.99998e-01
6.652705375e-01,9.84444e-01,9.99999e-01,9.99591e-01,9.84847e-01,9.99998e-01
6.685968902e-01,9.84957e-01,9.99999e-01,9.99809e-01,9.85144e-01,9.99999e-01
6.719398746e-01,9.85348e-01,9.99999e-01,9.99911e-01,9.85435e-01,9.99999e-01
6.752995740e-01,9.85674e-01,9.99999e-01,9.99951e-01,9.85721e-01,9.99999e-01
6.786760719e-01,9.85933e-01,9.99999e-01,9.99930e-01,9.86001e-01,9.99999e-01
6.820694522e-01,9.86158e-01,9.99999e-01,9.99881e-01,9.86275e-01,9.99998e-01
6.854797995e-01,9.86393e-01,9.99999e-01,9.99847e-01,9.86544e-01,9.99998e-01
6.889071985e-01,9.86442e-01,9.99999e-01,9.99631e-01,9.86808e-01,9.99996e-01
6.923517345e-01,9.81109e-01,9.99999e-01,9.93991e-01,9.87067e-01,9.99970e-01
6.958134932e-01,9.84177e-01,9.99999e-01,9.96878e-01,9.87321e-01,9.99935e-01
6.992925606e-01,9.84580e-01,9.99999e-01,9.97029e-01,9.87570e-01,9.99942e-01
7.027890234e-01,9.84152e-01,9.99999e-01,9.96335e-01,9.87814e-01,9.99955e-01
7.063029686e-01,9.84988e-01,9.99999e-01,9.96919e-01,9.88053e-01,9.99977e-01
7.098344834e-01,9.85355e-01,9.99999e-01,9.97044e-01,9.88288e-01,9.99986e-01
7.133836558e-01,9.84593e-01,9.99999e-01,9.96055e-01,9.88518e-01,9.99973e-01
7.169505741e-01,9.57496e-01,9.99999e-01,9.68592e-01,9.88743e-01,9.99797e-01
7.205353270e-01,9.73343e-01,9.99999e-01,9.84553e-01,9.88964e-01,9.99643e-01
7.241380036e-01,9.69494e-01,9.99999e-01,9.80398e-01,9.89181e-01,9.99692e-01
7.277586936e-01,9.71634e-01,9.99999e-01,9.82295e-01,9.89394e-01,9.99748e-01
7.313974871e-01,9.70896e-01,9.99999e-01,9.81212e-01,9.89602e-01,9.99881e-01
7.350544745e-01,9.79574e-01,9.99999e-01,9.89701e-01,9.89806e-01,9.99958e-01
7.387297469e-01,9.82482e-01,9.99999e-01,9.92417e-01,9.90007e-01,9.99980e-01
7.424233956e-01,9.86523e-01,9.99999e-01,9.96286e-01,9.90203e-01,9.99995e-01
7.461355126e-01,9.88165e-01,9.99999e-01,9.97748e-01,9.90396e-01,9.99998e-01
7.498661902e-01,9.89546e-01,9.99999e-01,9.98951e-01,9.90584e-01,9.99999e-01
7.536155211e-01,9.90260e-01,9.99999e-01,9.99485e-01,9.90770e-01,9.99999e-01
7.573835987e-01,9.90689e-01,9.99999e-01,9.99734e-01,9.90951e-01,9.99999e-01
7.611705167e-01,9.90966e-01,9.99999e-01,9.99835e-01,9.91129e-01,9.99999e-01
7.649763693e-01,9.91201e-01,9.99999e-01,9.99896e-01,9.91303e-01,9.99999e-01
7.688012511e-01,9.91403e-01,9.99999e-01,9.99927e-01,9.91474e-01,9.99999e-01
7.726452574e-01,9.91584e-01,9.99999e-01,9.99940e-01,9.91642e-01,9.99999e-01
7.765084837e-01,9.91723e-01,9.99999e-01,9.99915e-01,9.91806e-01,9.99999e-01
7.803910261e-01,9.91607e-01,9.99999e-01,9.99636e-01,9.91968e-01,9.99999e-01
7.842929812e-01,9.90865e-01,9.99999e-01,9.98731e-01,9.92126e-01,9.99997e-01
7.882144461e-01,9.89674e-01,9.99999e-01,9.97390e-01,9.92281e-01,9.99981e-01
7.921555184e-01,9.90982e-01,9.99999e-01,9.98568e-01,9.92432e-01,9.99968e-01
7.961162960e-01,9.90040e-01,9.99999e-01,9.97468e-01,9.92581e-01,9.99969e-01
8.000968774e-01,9.89797e-01,9.99999e-01,9.97078e-01,9.92727e-01,9.99968e-01
8.040973618e-01,9.89944e-01,9.99999e-01,9.97077e-01,9.92870e-01,9.99974e-01
8.081178486e-01,9.86446e-01,9.99999e-01,9.93412e-01,9.93011e-01,9.99976e-01
8.121584379e-01,9.66012e-01,9.99999e-01,9.72765e-01,9.93148e-01,9.99907e-01
8.162192301e-01,9.60922e-01,9.99999e-01,9.67754e-01,9.93283e-01,9.99653e-01
8.203003262e-01,9.76842e-01,9.99999e-01,9.83715e-01,9.93415e-01,9.99594e-01
8.244018279e-01,9.70698e-01,9.99999e-01,9.77319e-01,9.93545e-01,9.99676e-01
8.285238370e-01,9.74199e-01,9.99999e-01,9.80650e-01,9.93672e-01,9.99746e-01
8.326664562e-01,9.74257e-01,9.99999e-01,9.80441e-01,9.93797e-01,9.99894e-01
8.368297885e-01,9.79996e-01,9.99999e-01,9.86015e-01,9.93919e-01,9.99975e-01
8.410139374e-01,9.85749e-01,9.99999e-01,9.91673e-01,9.94039e-01,9.99985e-01
8.452190071e-01,9.90084e-01,9.99999e-01,9.95911e-01,9.94156e-01,9.99991e-01
8.494451021e-01,9.91905e-01,9.99999e-01,9.97626e-01,9.94271e-01,9.99992e-01
8.536923276e-01,9.92985e-01,9.99999e-01,9.98596e-01,9.94384e-01,9.99995e-01
8.579607893e-01,9.93634e-01,9.99999e-01,9.99135e-01,9.94494e-01,9.99998e-01
8.622505932e-01,9.94057e-01,9.99999e-01,9.99450e-01,9.94603e-01,9.99999e-01
8.665618462e-01,9.94371e-01,9.99999e-01,9.99659e-01,9.94709e-01,9.99999e-01
8.708946554e-01,9.94426e-01,9.99999e-01,9.99610e-01,9.94813e-01,9.99999e-01
8.752491287e-01,9.94397e-01,9.99999e-01,9.99479e-01,9.94916e-01,9.99998e-01
8.796253743e-01,9.94297e-01,9.99999e-01,9.99278e-01,9.95016e-01,9.99997e-01
8.840235012e-01,9.94290e-01,9.99999e-01,9.99176e-01,9.95114e-01,9.99994e-01
8.884436187e-01,9.92200e-01,9.99999e-01,9.96988e-01,9.95210e-01,9.99985e-01
8.928858368e-01,9.64021e-01,9.99999e-01,9.68647e-01,9.95305e-01,9.99917e-01
8.973502660e-01,9.40429e-01,9.99999e-01,9.45174e-01,9.95397e-01,9.99578e-01
9.018370173e-01,9.66621e-01,9.99999e-01,9.71645e-01,9.95488e-01,9.99337e-01
9.063462024e-01,9.70116e-01,9.99999e-01,9.74992e-01,9.95577e-01,9.99417e-01
9.108779334e-01,9.56535e-01,9.99999e-01,9.61281e-01,9.95664e-01,9.99394e-01
9.154323231e-01,9.51633e-01,9.99999e-01,9.56172e-01,9.95749e-01,9.99499e-01
9.200094847e-01,9.61204e-01,9.99999e-01,9.65495e-01,9.95833e-01,9.99719e-01
9.246095321e-01,9.41895e-01,9.99999e-01,9.46062e-01,9.95915e-01,9.99677e-01
9.292325798e-01,6.85201e-01,9.99999e-01,6.88820e-01,9.95996e-01,9.98743e-01
9.338787427e-01,6.12203e-01,9.99999e-01,6.17817e-01,9.96075e-01,9.94816e-01
9.385481364e-01,8.15624e-01,9.99999e-01,8.23850e-01,9.96152e-01,9.93837e-01
9.432408771e-01,7.54992e-01,9.99999e-01,7.61901e-01,9.96228e-01,9.94681e-01
9.479570815e-01,6.80134e-01,9.99999e-01,6.85627e-01,9.96302e-01,9.95669e-01
9.526968669e-01,7.50727e-01,9.99999e-01,7.55454e-01,9.96375e-01,9.97356e-01
9.574603512e-01,7.71029e-01,9.99999e-01,7.74819e-01,9.96447e-01,9.98655e-01
9.622476530e-01,8.09459e-01,9.99999e-01,8.13043e-01,9.96517e-01,9.99070e-01
9.670588912e-01,8.84102e-01,9.99999e-01,8.87695e-01,9.96585e-01,9.99363e-01
9.718941857e-01,9.24936e-01,9.99999e-01,9.28476e-01,9.96653e-01,9.99531e-01
9.767536566e-01,9.36854e-01,9.99999e-01,9.40273e-01,9.96719e-01,9.99641e-01
9.816374249e-01,9.52246e-01,9.99999e-01,9.55437e-01,9.96783e-01,9.99875e-01
9.865456120e-01,9.68851e-01,9.99999e-01,9.71940e-01,9.96847e-01,9.99973e-01
9.914783401e-01,9.79528e-01,9.99999e-01,9.82571e-01,9.96909e-01,9.99992e-01
9.964357318e-01,9.87469e-01,9.99999e-01,9.90473e-01,9.96970e-01,9.99995e-01
1.001417910e+00,9.91322e-01,9.99999e-01,9.94281e-01,9.97030e-01,9.99993e-01
1.006425000e+00,9.93826e-01,9.99999e-01,9.96736e-01,9.97088e-01,9.99990e-01
1.011457125e+00,9.95117e-01,9.99999e-01,9.97973e-01,9.97146e-01,9.99991e-01
1.016514411e+00,9.95824e-01,9.99999e-01,9.98623e-01,9.97202e-01,9.99993e-01
1.021596983e+00,9.96158e-01,9.99999e-01,9.98903e-01,9.97257e-01,9.99993e-01
1.026704968e+00,9.96454e-01,9.99999e-01,9.99144e-01,9.97311e-01,9.99995e-01
1.031838492e+00,9.96743e-01,9.99999e-01,9.99378e-01,9.97364e-01,9.99998e-01
1.036997685e+00,9.97048e-01,9.99999e-01,9.99630e-01,9.97416e-01,9.99999e-01
1.042182673e+00,9.97028e-01,9.99999e-01,9.99559e-01,9.97467e-01,9.99999e-01
1.047393587e+00,9.96935e-01,9.99999e-01,9.99415e-01,9.97517e-01,9.99999e-01
1.052630555e+00,9.96767e-01,9.99999e-01,9.99198e-01,9.97566e-01,9.99999e-01
1.057893707e+00,9.96279e-01,9.99999e-01,9.98662e-01,9.97614e-01,9.99999e-01
1.063183176e+00,9.95464e-01,9.99999e-01,9.97798e-01,9.97661e-01,9.99998e-01
1.068499092e+00,9.94030e-01,9.99999e-01,9.96316e-01,9.97707e-01,9.99997e-01
1.073841587e+00,9.93445e-01,9.99999e-01,9.95687e-01,9.97752e-01,9.99994e-01
1.079210795e+00,9.92274e-01,9.99999e-01,9.94479e-01,9.97797e-01,9.99984e-01
1.084606849e+00,9.89473e-01,9.99999e-01,9.91649e-01,9.97840e-01,9.99964e-01
1.090029883e+00,9.85849e-01,9.99999e-01,9.88012e-01,9.97883e-01,9.99926e-01
1.095480033e+00,9.65534e-01,9.99999e-01,9.67670e-01,9.97924e-01,9.99866e-01
1.100957433e+00,9.17653e-01,9.99999e-01,9.19748e-01,9.97965e-01,9.99755e-01
1.106462220e+00,8.05759e-01,9.99999e-01,8.07704e-01,9.98006e-01,9.99585e-01
1.111994531e+00,6.35592e-01,9.99999e-01,6.37538e-01,9.98045e-01,9.98899e-01
1.117554504e+00,4.78944e-01,9.99999e-01,4.81773e-01,9.98083e-01,9.96034e-01
1.123142276e+00,5.75384e-01,9.99999e-01,5.81924e-01,9.98121e-01,9.90621e-01
1.128757988e+00,6.99622e-01,9.99999e-01,7.08594e-01,9.98158e-01,9.89158e-01
1.134401778e+00,4.50239e-01,9.99999e-01,4.55252e-01,9.98195e-01,9.90774e-01
1.140073787e+00,8.07826e-01,9.99999e-01,8.15273e-01,9.98230e-01,9.92621e-01
1.145774156e+00,6.46161e-01,9.99999e-01,6.51685e-01,9.98265e-01,9.93244e-01
1.151503026e+00,6.16285e-01,9.99999e-01,6.19670e-01,9.98299e-01,9.96230e-01
1.157260541e+00,6.71354e-01,9.99999e-01,6.73234e-01,9.98333e-01,9.98871e-01
1.163046844e+00,7.45358e-01,9.99999e-01,7.46816e-01,9.98366e-01,9.99679e-01
1.168862078e+00,8.15546e-01,9.99999e-01,8.16988e-01,9.98398e-01,9.99834e-01
1.174706389e+00,8.81173e-01,9.99999e-01,8.82751e-01,9.98430e-01,9.99781e-01
1.180579921e+00,9.25187e-01,9.99999e-01,9.26919e-01,9.98461e-01,9.99669e-01
1.186482820e+00,9.56293e-01,9.99999e-01,9.58062e-01,9.98491e-01,9.99660e-01
1.192415234e+00,9.73632e-01,9.99999e-01,9.75321e-01,9.98521e-01,9.99745e-01
1.198377311e+00,9.77501e-01,9.99999e-01,9.79154e-01,9.98550e-01,9.99759e-01
1.204369197e+00,9.78651e-01,9.99999e-01,9.80256e-01,9.98579e-01,9.99782e-01
1.210391043e+00,9.79622e-01,9.99999e-01,9.81117e-01,9.98607e-01,9.99867e-01
1.216442998e+00,9.82496e-01,9.99999e-01,9.83918e-01,9.98634e-01,9.99918e-01
1.222525213e+00,9.86091e-01,9.99999e-01,9.87462e-01,9.98661e-01,9.99949e-01
1.228637839e+00,9.89955e-01,9.99999e-01,9.91278e-01,9.98687e-01,9.99976e-01
1.234781029e+00,9.92234e-01,9.99999e-01,9.93518e-01,9.98713e-01,9.99992e-01
1.240954934e+00,9.94640e-01,9.99999e-01,9.95897e-01,9.98739e-01,9.99997e-01
1.247159708e+00,9.95571e-01,9.99999e-01,9.96804e-01,9.98764e-01,9.99998e-01
1.253395507e+00,9.95953e-01,9.99999e-01,9.97162e-01,9.98788e-01,9.99997e-01
1.259662485e+00,9.96117e-01,9.99999e-01,9.97303e-01,9.98812e-01,9.99997e-01
1.265960797e+00,9.94531e-01,9.99999e-01,9.95694e-01,9.98835e-01,9.99995e-01
1.272290601e+00,9.92100e-01,9.99999e-01,9.93241e-01,9.98858e-01,9.99992e-01
1.278652054e+00,9.85479e-01,9.99999e-01,9.86595e-01,9.98881e-01,9.99986e-01
1.285045314e+00,9.74699e-01,9.99999e-01,9.75793e-01,9.98903e-01,9.99975e-01
1.291470541e+00,9.57113e-01,9.99999e-01,9.58183e-01,9.98924e-01,9.99956e-01
1.297927893e+00,9.44694e-01,9.99999e-01,9.45765e-01,9.98946e-01,9.99919e-01
1.304417533e+00,9.29634e-01,9.99999e-01,9.30752e-01,9.98966e-01,9.99830e-01
1.310939621e+00,9.19766e-01,9.99999e-01,9.21017e-01,9.98987e-01,9.99652e-01
1.317494319e+00,9.13227e-01,9.99999e-01,9.14721e-01,9.99007e-01,9.99358e-01
1.324081790e+00,8.73056e-01,9.99999e-01,8.74822e-01,9.99026e-01,9.98952e-01
1.330702199e+00,5.71504e-01,9.99999e-01,5.73084e-01,9.99046e-01,9.98195e-01
1.337355710e+00,2.47566e-01,9.99999e-01,2.48661e-01,9.99064e-01,9.96527e-01
1.344042489e+00,2.66256e-02,9.99999e-01,2.69307e-02,9.99083e-01,9.89577e-01
1.350762701e+00,7.12024e-04,9.99999e-01,7.38690e-04,9.99101e-01,9.64766e-01
1.357516515e+00,5.06438e-05,9.99999e-01,5.63151e-05,9.99119e-01,9.00084e-01
1.364304097e+00,1.26648e-03,9.99999e-01,1.52439e-03,9.99136e-01,8.31530e-01
1.371125618e+00,1.06289e-02,9.99999e-01,1.26589e-02,9.99153e-01,8.40351e-01
1.377981246e+00,2.10265e-02,9.99999e-01,2.44275e-02,9.99170e-01,8.61486e-01
1.384871152e+00,1.22309e-03,9.99999e-01,1.40652e-03,9.99186e-01,8.70288e-01
1.391795508e+00,1.83970e-03,9.99999e-01,2.10187e-03,9.99202e-01,8.75963e-01
1.398754485e+00,4.72520e-03,9.99999e-01,5.27556e-03,9.99218e-01,8.96377e-01
1.405748258e+00,4.52891e-03,9.99999e-01,4.83170e-03,9.99233e-01,9.38050e-01
1.412776999e+00,5.15338e-03,9.99999e-01,5.31006e-03,9.99249e-01,9.71223e-01
1.419840884e+00,7.38057e-03,9.99999e-01,7.48117e-03,9.99263e-01,9.87278e-01
1.426940089e+00,2.13545e-02,9.99999e-01,2.15787e-02,9.99278e-01,9.90320e-01
1.434074789e+00,5.26237e-02,9.99999e-01,5.32688e-02,9.99292e-01,9.88587e-01
1.441245163e+00,1.08087e-01,9.99999e-01,1.09515e-01,9.99306e-01,9.87644e-01
1.448451389e+00,2.03339e-01,9.99999e-01,2.05704e-01,9.99320e-01,9.89173e-01
1.455693646e+00,3.53213e-01,9.99999e-01,3.56455e-01,9.99333e-01,9.91565e-01
1.462972114e+00,4.09616e-01,9.99999e-01,4.13208e-01,9.99346e-01,9.91954e-01
1.470286975e+00,3.52827e-01,9.99999e-01,3.55867e-01,9.99359e-01,9.92090e-01
