#,Wave/freq,Total,N2,H2O,Rayleigh,CIA
4.000000000e-01,8.15507e-01,9.99999e-01,9.99976e-01,8.15526e-01,9.99999e-01
4.020000000e-01,8.18809e-01,9.99999e-01,9.99985e-01,8.18820e-01,9.99999e-01
4.040100000e-01,8.22055e-01,9.99999e-01,9.99993e-01,8.22060e-01,9.99999e-01
4.060300500e-01,8.25246e-01,9.99999e-01,9.99998e-01,8.25248e-01,9.99999e-01
4.080602003e-01,8.28384e-01,9.99999e-01,9.99999e-01,8.28384e-01,9.99999e-01
4.101005013e-01,8.31471e-01,9.99999e-01,9.99999e-01,8.31471e-01,9.99999e-01
4.121510038e-01,8.34507e-01,9.99999e-01,9.99998e-01,8.34508e-01,9.99999e-01
4.142117588e-01,8.37490e-01,9.99999e-01,9.99993e-01,8.37495e-01,9.99999e-01
4.162828176e-01,8.40410e-01,9.99999e-01,9.99971e-01,8.40434e-01,9.99999e-01
4.183642317e-01,8.43310e-01,9.99999e-01,9.99982e-01,8.43324e-01,9.99999e-01
4.204560528e-01,8.46159e-01,9.99999e-01,9.99989e-01,8.46168e-01,9.99999e-01
4.225583331e-01,8.48961e-01,9.99999e-01,9.99995e-01,8.48964e-01,9.99999e-01
4.246711247e-01,8.51712e-01,9.99999e-01,9.99996e-01,8.51714e-01,9.99999e-01
4.267944804e-01,8.54415e-01,9.99999e-01,9.99994e-01,8.54419e-01,9.99999e-01
4.289284528e-01,8.57075e-01,9.99999e-01,9.99995e-01,8.57078e-01,9.99999e-01
4.310730950e-01,8.59692e-01,9.99999e-01,9.99998e-01,8.59693e-01,9.99999e-01
4.332284605e-01,8.62264e-01,9.99999e-01,9.99999e-01,8.62264e-01,9.99999e-01
4.353946028e-01,8.64792e-01,9.99999e-01,9.99999e-01,8.64792e-01,9.99999e-01
4.375715758e-01,8.67274e-01,9.99999e-01,9.99996e-01,8.67277e-01,9.99999e-01
4.397594337e-01,8.69698e-01,9.99999e-01,9.99974e-01,8.69720e-01,9.99999e-01
4.419582309e-01,8.72009e-01,9.99999e-01,9.99870e-01,8.72121e-01,9.99999e-01
4.441680220e-01,8.74395e-01,9.99999e-01,9.99900e-01,8.74481e-01,9.99999e-01
4.463888621e-01,8.76711e-01,9.99999e-01,9.99896e-01,8.76801e-01,9.99999e-01
4.486208064e-01,8.79025e-01,9.99999e-01,9.99935e-01,8.79081e-01,9.99999e-01
4.508639105e-01,8.81295e-01,9.99999e-01,9.99969e-01,8.81322e-01,9.99999e-01
4.531182300e-01,8.83513e-01,9.99999e-01,9.99987e-01,8.83524e-01,9.99999e-01
4.553838212e-01,8.85680e-01,9.99999e-01,9.99991e-01,8.85687e-01,9.99999e-01
4.576607403e-01,8.87810e-01,9.99999e-01,9.99995e-01,8.87814e-01,9.99999e-01
4.599490440e-01,8.89900e-01,9.99999e-01,9.99996e-01,8.89903e-01,9.99999e-01
4.622487892e-01,8.91955e-01,9.99999e-01,9.99999e-01,8.91955e-01,9.99999e-01
4.645600332e-01,8.93971e-01,9.99999e-01,9.99997e-01,8.93972e-01,9.99999e-01
4.668828333e-01,8.95926e-01,9.99999e-01,9.99969e-01,8.95953e-01,9.99999e-01
4.692172475e-01,8.97842e-01,9.99999e-01,9.99934e-01,8.97900e-01,9.99999e-01
4.715633337e-01,8.99774e-01,9.99999e-01,9.99957e-01,8.99812e-01,9.99999e-01
4.739211504e-01,9.01654e-01,9.99999e-01,9.99959e-01,9.01690e-01,9.99999e-01
4.762907561e-01,9.03516e-01,9.99999e-01,9.99978e-01,9.03535e-01,9.99999e-01
4.786722099e-01,9.05340e-01,9.99999e-01,9.99990e-01,9.05347e-01,9.99999e-01
4.810655710e-01,9.07125e-01,9.99999e-01,9.99996e-01,9.07127e-01,9.99999e-01
4.834708988e-01,9.08853e-01,9.99999e-01,9.99974e-01,9.08876e-01,9.99999e-01
4.858882533e-01,9.10551e-01,9.99999e-01,9.99953e-01,9.10593e-01,9.99999e-01
4.883176946e-01,9.12244e-01,9.99999e-01,9.99961e-01,9.12279e-01,9.99999e-01
4.907592831e-01,9.13903e-01,9.99999e-01,9.99964e-01,9.13935e-01,9.99999e-01
4.932130795e-01,9.15538e-01,9.99999e-01,9.99974e-01,9.15561e-01,9.99999e-01
4.956791449e-01,9.17145e-01,9.99999e-01,9.99986e-01,9.17157e-01,9.99999e-01
4.981575406e-01,9.18665e-01,9.99999e-01,9.99934e-01,9.18725e-01,9.99999e-01
5.006483283e-01,9.20107e-01,9.99999e-01,9.99829e-01,9.20265e-01,9.99998e-01
5.031515699e-01,9.20979e-01,9.99999e-01,9.99142e-01,9.21777e-01,9.99990e-01
5.056673278e-01,9.22835e-01,9.99999e-01,9.99548e-01,9.23261e-01,9.99989e-01
5.081956644e-01,9.24186e-01,9.99999e-01,9.99430e-01,9.24718e-01,9.99993e-01
5.107366428e-01,9.25792e-01,9.99999e-01,9.99615e-01,9.26149e-01,9.99998e-01
5.132903260e-01,9.27350e-01,9.99999e-01,9.99780e-01,9.27553e-01,9.99999e-01
5.158567776e-01,9.28846e-01,9.99999e-01,9.99907e-01,9.28932e-01,9.99999e-01
5.184360615e-01,9.30251e-01,9.99999e-01,9.99962e-01,9.30286e-01,9.99999e-01
5.210282418e-01,9.31602e-01,9.99999e-01,9.99985e-01,9.31614e-01,9.99999e-01
5.236333830e-01,9.32867e-01,9.99999e-01,9.99943e-01,9.32919e-01,9.99999e-01
5.262515499e-01,9.34166e-01,9.99999e-01,9.99964e-01,9.34199e-01,9.99998e-01
5.288828077e-01,9.35426e-01,9.99999e-01,9.99967e-01,9.35456e-01,9.99999e-01
5.315272217e-01,9.36663e-01,9.99999e-01,9.99971e-01,9.36690e-01,9.99999e-01
5.341848578e-01,9.37883e-01,9.99999e-01,9.99981e-01,9.37901e-01,9.99999e-01
5.368557821e-01,9.39028e-01,9.99999e-01,9.99934e-01,9.39089e-01,9.99999e-01
5.395400610e-01,9.40031e-01,9.99999e-01,9.99763e-01,9.40255e-01,9.99997e-01
5.422377613e-01,9.41111e-01,9.99999e-01,9.99697e-01,9.41400e-01,9.99993e-01
5.449489501e-01,9.42252e-01,9.99999e-01,9.99717e-01,9.42524e-01,9.99993e-01
5.476736949e-01,9.43389e-01,9.99999e-01,9.99750e-01,9.43626e-01,9.99996e-01
5.504120634e-01,9.44537e-01,9.99999e-01,9.99819e-01,9.44709e-01,9.99998e-01
5.531641237e-01,9.45685e-01,9.99999e-01,9.99908e-01,9.45771e-01,9.99999e-01
5.559299443e-01,9.46771e-01,9.99999e-01,9.99955e-01,9.46813e-01,9.99999e-01
5.587095940e-01,9.47809e-01,9.99999e-01,9.99971e-01,9.47835e-01,9.99999e-01
5.615031420e-01,9.48810e-01,9.99999e-01,9.99968e-01,9.48839e-01,9.99999e-01
5.643106577e-01,9.49790e-01,9.99999e-01,9.99964e-01,9.49824e-01,9.99999e-01
5.671322110e-01,9.50379e-01,9.99999e-01,9.99570e-01,9.50790e-01,9.99995e-01
5.699678720e-01,9.51302e-01,9.99999e-01,9.99552e-01,9.51738e-01,9.99988e-01
5.728177114e-01,9.52212e-01,9.99999e-01,9.99530e-01,9.52668e-01,9.99989e-01
5.756818000e-01,9.53166e-01,9.99999e-01,9.99569e-01,9.53581e-01,9.99993e-01
5.785602090e-01,9.54118e-01,9.99999e-01,9.99625e-01,9.54477e-01,9.99997e-01
5.814530100e-01,9.54995e-01,9.99999e-01,9.99623e-01,9.55356e-01,9.99998e-01
5.843602750e-01,9.55784e-01,9.99999e-01,9.99548e-01,9.56218e-01,9.99997e-01
5.872820764e-01,9.53320e-01,9.99999e-01,9.96114e-01,9.57064e-01,9.99972e-01
5.902184868e-01,9.53346e-01,9.99999e-01,9.95325e-01,9.57894e-01,9.99925e-01
5.931695792e-01,9.55466e-01,9.99999e-01,9.96688e-01,9.58708e-01,9.99928e-01
5.961354271e-01,9.55992e-01,9.99999e-01,9.96376e-01,9.59507e-01,9.99958e-01
5.991161043e-01,9.57743e-01,9.99999e-01,9.97358e-01,9.60291e-01,9.99986e-01
6.021116848e-01,9.59619e-01,9.99999e-01,9.98502e-01,9.61060e-01,9.99998e-01
6.051222432e-01,9.61085e-01,9.99999e-01,9.99242e-01,9.61814e-01,9.99999e-01
6.081478544e-01,9.62239e-01,9.99999e-01,9.99672e-01,9.62554e-01,9.99999e-01
6.111885937e-01,9.63147e-01,9.99999e-01,9.99861e-01,9.63280e-01,9.99999e-01
6.142445367e-01,9.63932e-01,9.99999e-01,9.99937e-01,9.63992e-01,9.99999e-01
6.173157594e-01,9.64657e-01,9.99999e-01,9.99965e-01,9.64690e-01,9.99999e-01
6.204023382e-01,9.65348e-01,9.99999e-01,9.99970e-01,9.65376e-01,9.99999e-01
6.235043498e-01,9.65923e-01,9.99999e-01,9.99870e-01,9.66048e-01,9.99999e-01
6.266218716e-01,9.66051e-01,9.99999e-01,9.99325e-01,9.66707e-01,9.99994e-01
6.297549810e-01,9.67105e-01,9.99999e-01,9.99752e-01,9.67354e-01,9.99990e-01
6.329037559e-01,9.67509e-01,9.99999e-01,9.99511e-01,9.67988e-01,9.99991e-01
6.360682746e-01,9.68202e-01,9.99999e-01,9.99582e-01,9.68610e-01,9.99995e-01
6.392486160e-01,9.68696e-01,9.99999e-01,9.99460e-01,9.69221e-01,9.99997e-01
6.424448591e-01,9.69112e-01,9.99999e-01,9.99273e-01,9.69819e-01,9.99995e-01
6.456570834e-01,9.67118e-01,9.99999e-01,9.96630e-01,9.70407e-01,9.99979e-01
6.488853688e-01,9.68556e-01,9.99999e-01,9.97552e-01,9.70983e-01,9.99947e-01
6.521297956e-01,9.69083e-01,9.99999e-01,9.97505e-01,9.71548e-01,9.99956e-01
6.553904446e-01,9.69649e-01,9.99999e-01,9.97508e-01,9.72102e-01,9.99967e-01
6.586673968e-01,9.70566e-01,9.99999e-01,9.97872e-01,9.72645e-01,9.99988e-01
6.619607338e-01,9.72023e-01,9.99999e-01,9.98814e-01,9.73178e-01,9.99997e-01
6.652705375e-01,9.73007e-01,9.99999e-01,9.99288e-01,9.73701e-01,9.99998e-01
6.685968902e-01,9.73919e-01,9.99999e-01,9.99697e-01,9.74213e-01,9.99999e-01
6.719398746e-01,9.74567e-01,9.99999e-01,9.99846e-01,9.74716e-01,9.99999e-01
6.752995740e-01,9.75131e-01,9.99999e-01,9.99918e-01,9.75209e-01,9.99999e-01
6.786760719e-01,9.75575e-01,9.99999e-01,9.99878e-01,9.75693e-01,9.99999e-01
6.820694522e-01,9.75966e-01,9.99999e-01,9.99793e-01,9.76167e-01,9.99998e-01
6.854797995e-01,9.76371e-01,9.99999e-01,9.99733e-01,9.76633e-01,9.99997e-01
6.889071985e-01,9.76448e-01,9.99999e-01,9.99349e-01,9.77089e-01,9.99993e-01
6.923517345e-01,9.67221e-01,9.99999e-01,9.89497e-01,9.77536e-01,9.99949e-01
6.958134932e-01,9.72596e-01,9.99999e-01,9.94610e-01,9.77975e-01,9.99888e-01
6.992925606e-01,9.73222e-01,9.99999e-01,9.94801e-01,9.78405e-01,9.99899e-01
7.027890234e-01,9.72511e-01,9.99999e-01,9.93622e-01,9.78827e-01,9.99923e-01
7.063029686e-01,9.73949e-01,9.99999e-01,9.94632e-01,9.79241e-01,9.99961e-01
7.098344834e-01,9.74580e-01,9.99999e-01,9.94849e-01,9.79647e-01,9.99976e-01
7.133836558e-01,9.73218e-01,9.99999e-01,9.93077e-01,9.80045e-01,9.99954e-01
7.169505741e-01,9.26981e-01,9.99999e-01,9.45811e-01,9.80435e-01,9.99647e-01
7.205353270e-01,9.54211e-01,9.99999e-01,9.73477e-01,9.80818e-01,9.99378e-01
7.241380036e-01,9.47365e-01,9.99999e-01,9.66040e-01,9.81193e-01,9.99463e-01
7.277586936e-01,9.51037e-01,9.99999e-01,9.69327e-01,9.81561e-01,9.99560e-01
7.313974871e-01,9.49886e-01,9.99999e-01,9.67572e-01,9.81922e-01,9.99794e-01
7.350544745e-01,9.64665e-01,9.99999e-01,9.82140e-01,9.82276e-01,9.99928e-01
7.387297469e-01,9.69658e-01,9.99999e-01,9.86837e-01,9.82623e-01,9.99966e-01
7.424233956e-01,9.76620e-01,9.99999e-01,9.93551e-01,9.82963e-01,9.99993e-01
7.461355126e-01,9.79446e-01,9.99999e-01,9.96083e-01,9.83297e-01,9.99998e-01
7.498661902e-01,9.81833e-01,9.99999e-01,9.98179e-01,9.83624e-01,9.99999e-01
7.536155211e-01,9.83064e-01,9.99999e-01,9.99104e-01,9.83945e-01,9.99999e-01
7.573835987e-01,9.83806e-01,9.99999e-01,9.99538e-01,9.84260e-01,9.99999e-01
7.611705167e-01,9.84286e-01,9.99999e-01,9.99713e-01,9.84568e-01,9.99999e-01
7.649763693e-01,9.84694e-01,9.99999e-01,9.99819e-01,9.84871e-01,9.99999e-01
7.688012511e-01,9.85044e-01,9.99999e-01,9.99874e-01,9.85167e-01,9.99999e-01
7.726452574e-01,9.85356e-01,9.99999e-01,9.99896e-01,9.85458e-01,9.99999e-01
7.765084837e-01,9.85598e-01,9.99999e-01,9.99852e-01,9.85743e-01,9.99999e-01
7.803910261e-01,9.85394e-01,9.99999e-01,9.99362e-01,9.86023e-01,9.99998e-01
7.842929812e-01,9.84099e-01,9.99999e-01,9.97775e-01,9.86297e-01,9.99995e-01
7.882144461e-01,9.82047e-01,9.99999e-01,9.95449e-01,9.86566e-01,9.99968e-01
7.921555184e-01,9.84322e-01,9.99999e-01,9.97512e-01,9.86829e-01,9.99945e-01
7.961162960e-01,9.82664e-01,9.99999e-01,9.95569e-01,9.87088e-01,9.99947e-01
8.000968774e-01,9.82258e-01,9.99999e-01,9.94905e-01,9.87341e-01,9.99944e-01
8.040973618e-01,9.82511e-01,9.99999e-01,9.94898e-01,9.87590e-01,9.99957e-01
8.081178486e-01,9.76411e-01,9.99999e-01,9.88478e-01,9.87833e-01,9.99957e-01
8.121584379e-01,9.41348e-01,9.99999e-01,9.52864e-01,9.88072e-01,9.99838e-01
8.162192301e-01,9.33062e-01,9.99999e-01,9.44672e-01,9.88306e-01,9.99395e-01
8.203003262e-01,9.59876e-01,9.99999e-01,9.71694e-01,9.88536e-01,9.99291e-01
8.244018279e-01,9.50027e-01,9.99999e-01,9.61366e-01,9.88761e-01,9.99436e-01
8.285238370e-01,9.55399e-01,9.99999e-01,9.66470e-01,9.88982e-01,9.99557e-01
8.326664562e-01,9.55599e-01,9.99999e-01,9.66210e-01,9.89198e-01,9.99816e-01
8.368297885e-01,9.65417e-01,9.99999e-01,9.75789e-01,9.89410e-01,9.99957e-01
8.410139374e-01,9.75300e-01,9.99999e-01,9.85554e-01,9.89619e-01,9.99975e-01
8.452190071e-01,9.82781e-01,9.99999e-01,9.92900e-01,9.89823e-01,9.99984e-01
8.494451021e-01,9.85918e-01,9.99999e-01,9.95865e-01,9.90023e-01,9.99987e-01
8.536923276e-01,9.87795e-01,9.99999e-01,9.97559e-01,9.90219e-01,9.99992e-01
8.579607893e-01,9.88917e-01,9.99999e-01,9.98493e-01,9.90411e-01,9.99997e-01
8.622505932e-01,9.89653e-01,9.99999e-01,9.99044e-01,9.90599e-01,9.99999e-01
8.665618462e-01,9.90197e-01,9.99999e-01,9.99406e-01,9.90784e-01,9.99999e-01
8.708946554e-01,9.90292e-01,9.99999e-01,9.99319e-01,9.90965e-01,9.99999e-01
8.752491287e-01,9.90242e-01,9.99999e-01,9.99090e-01,9.91143e-01,9.99998e-01
8.796253743e-01,9.90064e-01,9.99999e-01,9.98738e-01,9.91317e-01,9.99996e-01
8.840235012e-01,9.90052e-01,9.99999e-01,9.98559e-01,9.91488e-01,9.99990e-01
8.884436187e-01,9.86360e-01,9.99999e-01,9.94684e-01,9.91655e-01,9.99974e-01
8.928858368e-01,9.37939e-01,9.99999e-01,9.45810e-01,9.91819e-01,9.99856e-01
8.973502660e-01,8.98796e-01,9.99999e-01,9.06728e-01,9.91980e-01,9.99264e-01
9.018370173e-01,9.42942e-01,9.99999e-01,9.51513e-01,9.92138e-01,9.98843e-01
9.063462024e-01,9.48380e-01,9.99999e-01,9.56717e-01,9.92293e-01,9.98984e-01
9.108779334e-01,9.25529e-01,9.99999e-01,9.33559e-01,9.92444e-01,9.98944e-01
9.154323231e-01,9.17326e-01,9.99999e-01,9.24977e-01,9.92593e-01,9.99127e-01
9.200094847e-01,9.33573e-01,9.99999e-01,9.40860e-01,9.92739e-01,9.99511e-01
9.246095321e-01,9.00895e-01,9.99999e-01,9.07863e-01,9.92882e-01,9.99437e-01
9.292325798e-01,5.23751e-01,9.99999e-01,5.28865e-01,9.93022e-01,9.97286e-01
9.338787427e-01,4.35301e-01,9.99999e-01,4.42624e-01,9.93159e-01,9.90227e-01
9.385481364e-01,7.07260e-01,9.99999e-01,7.19758e-01,9.93294e-01,9.89268e-01
9.432408771e-01,6.22312e-01,9.99999e-01,6.32288e-01,9.93426e-01,9.90734e-01
9.479570815e-01,5.25420e-01,9.99999e-01,5.32848e-01,9.93555e-01,9.92452e-01
9.526968669e-01,6.16739e-01,9.99999e-01,6.23534e-01,9.93682e-01,9.95389e-01
9.574603512e-01,6.39905e-01,9.99999e-01,6.45405e-01,9.93807e-01,9.97655e-01
9.622476530e-01,6.94887e-01,9.99999e-01,7.00267e-01,9.93928e-01,9.98377e-01
9.670588912e-01,8.08258e-01,9.99999e-01,8.14000e-01,9.94048e-01,9.98890e-01
9.718941857e-01,8.73077e-01,9.99999e-01,8.78918e-01,9.94165e-01,9.99182e-01
9.767536566e-01,8.92674e-01,9.99999e-01,8.98369e-01,9.94280e-01,9.99375e-01
9.816374249e-01,9.18393e-01,9.99999e-01,9.23770e-01,9.94393e-01,9.99783e-01
9.865456120e-01,9.46404e-01,9.99999e-01,9.51677e-01,9.94503e-01,9.99954e-01
9.914783401e-01,9.64601e-01,9.99999e-01,9.69838e-01,9.94611e-01,9.99987e-01
9.964357318e-01,9.78265e-01,9.99999e-01,9.83466e-01,9.94718e-01,9.99992e-01
1.001417910e+00,9.84925e-01,9.99999e-01,9.90062e-01,9.94822e-01,9.99988e-01
1.006425000e+00,9.89253e-01,9.99999e-01,9.94315e-01,9.94924e-01,9.99983e-01
1.011457125e+00,9.91502e-01,9.99999e-01,9.96475e-01,9.95024e-01,9.99984e-01
1.016514411e+00,9.92727e-01,9.99999e-01,9.97603e-01,9.95122e-01,9.99989e-01
1.021596983e+00,9.93306e-01,9.99999e-01,9.98088e-01,9.95218e-01,9.99989e-01
1.026704968e+00,9.93822e-01,9.99999e-01,9.98508e-01,9.95312e-01,9.99993e-01
1.031838492e+00,9.94326e-01,9.99999e-01,9.98917e-01,9.95404e-01,9.99997e-01
1.036997685e+00,9.94854e-01,9.99999e-01,9.99355e-01,9.95495e-01,9.99999e-01
1.042182673e+00,9.94818e-01,9.99999e-01,9.99230e-01,9.95584e-01,9.99999e-01
1.047393587e+00,9.94656e-01,9.99999e-01,9.98980e-01,9.95671e-01,9.99999e-01
1.052630555e+00,9.94362e-01,9.99999e-01,9.98599e-01,9.95756e-01,9.99999e-01
1.057893707e+00,9.93510e-01,9.99999e-01,9.97660e-01,9.95840e-01,9.99998e-01
1.063183176e+00,9.92091e-01,9.99999e-01,9.96155e-01,9.95922e-01,9.99997e-01
1.068499092e+00,9.89600e-01,9.99999e-01,9.93575e-01,9.96002e-01,9.99995e-01
1.073841587e+00,9.88576e-01,9.99999e-01,9.92474e-01,9.96081e-01,9.99990e-01
1.079210795e+00,9.86559e-01,9.99999e-01,9.90388e-01,9.96158e-01,9.99973e-01
1.084606849e+00,9.81693e-01,9.99999e-01,9.85464e-01,9.96234e-01,9.99937e-01
1.090029883e+00,9.75353e-01,9.99999e-01,9.79092e-01,9.96308e-01,9.99871e-01
1.095480033e+00,9.40492e-01,9.99999e-01,9.44126e-01,9.96381e-01,9.99767e-01
1.100957433e+00,8.60728e-01,9.99999e-01,8.64160e-01,9.96452e-01,9.99573e-01
1.106462220e+00,6.87800e-01,9.99999e-01,6.90699e-01,9.96522e-01,9.99276e-01
1.111994531e+00,4.59837e-01,9.99999e-01,4.62297e-01,9.96591e-01,9.98080e-01
1.117554504e+00,2.86124e-01,9.99999e-01,2.89081e-01,9.96658e-01,9.93087e-01
1.123142276e+00,3.99651e-01,9.99999e-01,4.07613e-01,9.96724e-01,9.83686e-01
1.128757988e+00,5.45313e-01,9.99999e-01,5.57579e-01,9.96788e-01,9.81152e-01
1.134401778e+00,2.99560e-01,9.99999e-01,3.05407e-01,9.96852e-01,9.83950e-01
1.140073787e+00,6.92224e-01,9.99999e-01,7.03400e-01,9.96914e-01,9.87156e-01
1.145774156e+00,4.77149e-01,9.99999e-01,4.84293e-01,9.96975e-01,9.88236e-01
1.151503026e+00,4.42603e-01,9.99999e-01,4.46854e-01,9.97034e-01,9.93429e-01
1.157260541e+00,5.04073e-01,9.99999e-01,5.06540e-01,9.97093e-01,9.98030e-01
1.163046844e+00,6.02721e-01,9.99999e-01,6.04780e-01,9.97150e-01,9.99441e-01
1.168862078e+00,7.02013e-01,9.99999e-01,7.04182e-01,9.97206e-01,9.99711e-01
1.174706389e+00,8.02791e-01,9.99999e-01,8.05302e-01,9.97261e-01,9.99618e-01
1.180579921e+00,8.73578e-01,9.99999e-01,8.76434e-01,9.97315e-01,9.99422e-01
1.186482820e+00,9.25114e-01,9.99999e-01,9.28103e-01,9.97368e-01,9.99407e-01
1.192415234e+00,9.54471e-01,9.99999e-01,9.57363e-01,9.97420e-01,9.99556e-01
1.198377311e+00,9.61059e-01,9.99999e-01,9.63898e-01,9.97471e-01,9.99580e-01
1.204369197e+00,9.63074e-01,9.99999e-01,9.65833e-01,9.97521e-01,9.99620e-01
1.210391043e+00,9.64732e-01,9.99999e-01,9.67304e-01,9.97570e-01,9.99769e-01
1.216442998e+00,9.69710e-01,9.99999e-01,9.72161e-01,9.97618e-01,9.99858e-01
1.222525213e+00,9.75878e-01,9.99999e-01,9.78247e-01,9.97665e-01,9.99911e-01
1.228637839e+00,9.82545e-01,9.99999e-01,9.84839e-01,9.97711e-01,9.99958e-01
1.234781029e+00,9.86502e-01,9.99999e-01,9.88731e-01,9.97756e-01,9.99987e-01
1.240954934e+00,9.90670e-01,9.99999e-01,9.92856e-01,9.97800e-01,9.99996e-01
1.247159708e+00,9.92291e-01,9.99999e-01,9.94437e-01,9.97844e-01,9.99997e-01
1.253395507e+00,9.92949e-01,9.99999e-01,9.95054e-01,9.97886e-01,9.99996e-01
1.259662485e+00,9.93228e-01,9.99999e-01,9.95294e-01,9.97928e-01,9.99995e-01
1.265960797e+00,9.90479e-01,9.99999e-01,9.92501e-01,9.97969e-01,9.99992e-01
1.272290601e+00,9.86235e-01,9.99999e-01,9.88214e-01,9.98009e-01,9.99986e-01
1.278652054e+00,9.74778e-01,9.99999e-01,9.76705e-01,9.98048e-01,9.99976e-01
1.285045314e+00,9.56235e-01,9.99999e-01,9.58108e-01,9.98086e-01,9.99957e-01
1.291470541e+00,9.26330e-01,9.99999e-01,9.28139e-01,9.98124e-01,9.99924e-01
1.297927893e+00,8.97573e-01,9.99999e-01,8.99351e-01,9.98161e-01,9.99860e-01
1.304417533e+00,8.80815e-01,9.99999e-01,8.82665e-01,9.98197e-01,9.99704e-01
1.310939621e+00,8.52002e-01,9.99999e-01,8.54026e-01,9.98233e-01,9.99394e-01
1.317494319e+00,8.54183e-01,9.99999e-01,8.56623e-01,9.98268e-01,9.98880e-01
1.324081790e+00,7.90356e-01,9.99999e-01,7.93148e-01,9.98302e-01,9.98172e-01
1.330702199e+00,4.08722e-01,9.99999e-01,4.10696e-01,9.98336e-01,9.96851e-01
1.337355710e+00,9.93214e-02,9.99999e-01,1.00090e-01,9.98368e-01,9.93946e-01
1.344042489e+00,5.00338e-03,9.99999e-01,5.10388e-03,9.98401e-01,9.81878e-01
1.350762701e+00,1.03458e-05,9.99999e-01,1.10316e-05,9.98432e-01,9.39307e-01
1.357516515e+00,7.41454e-08,9.99999e-01,8.92391e-08,9.98463e-01,8.32139e-01
1.364304097e+00,2.36578e-05,9.99999e-01,3.26956e-05,9.98493e-01,7.24666e-01
1.371125618e+00,7.36130e-04,9.99999e-01,9.98753e-04,9.98523e-01,7.38139e-01
1.377981246e+00,1.99034e-03,9.99999e-01,2.58575e-03,9.98552e-01,7.70848e-01
1.384871152e+00,4.46803e-05,9.99999e-01,5.70239e-05,9.98581e-01,7.84648e-01
1.391795508e+00,3.37075e-05,9.99999e-01,4.25332e-05,9.98609e-01,7.93601e-01
1.398754485e+00,2.12728e-04,9.99999e-01,2.57839e-04,9.98636e-01,8.26166e-01
1.405748258e+00,2.02463e-04,9.99999e-01,2.26677e-04,9.98663e-01,8.94371e-01
1.412776999e+00,2.19008e-04,9.99999e-01,2.30762e-04,9.98689e-01,9.50308e-01
1.419840884e+00,4.05120e-04,9.99999e-01,4.14808e-04,9.98715e-01,9.77899e-01
1.426940089e+00,2.26012e-03,9.99999e-01,2.30172e-03,9.98741e-01,9.83164e-01
1.434074789e+00,9.35581e-03,9.99999e-01,9.55693e-03,9.98766e-01,9.80163e-01
1.441245163e+00,2.52321e-02,9.99999e-01,2.58169e-02,9.98790e-01,9.78532e-01
1.448451389e+00,7.45630e-02,9.99999e-01,7.60835e-02,9.98814e-01,9.81177e-01
1.455693646e+00,1.75345e-01,9.99999e-01,1.78164e-01,9.98837e-01,9.85323e-01
1.462972114e+00,2.19671e-01,9.99999e-01,2.23044e-01,9.98860e-01,9.85997e-01
1.470286975e+00,1.72056e-01,9.99999e-01,1.74653e-01,9.98883e-01,9.86234e-01
