#,Wave/freq,Total,N2,H2O,Rayleigh,CIA
4.000000000e-01,8.23755e-01,9.99999e-01,9.99977e-01,8.23773e-01,9.99999e-01
4.020000000e-01,8.26925e-01,9.99999e-01,9.99985e-01,8.26936e-01,9.99999e-01
4.040100000e-01,8.30041e-01,9.99999e-01,9.99993e-01,8.30046e-01,9.99999e-01
4.060300500e-01,8.33105e-01,9.99999e-01,9.99998e-01,8.33106e-01,9.99999e-01
4.080602003e-01,8.36116e-01,9.99999e-01,9.99999e-01,8.36116e-01,9.99999e-01
4.101005013e-01,8.39077e-01,9.99999e-01,9.99999e-01,8.39077e-01,9.99999e-01
4.121510038e-01,8.41989e-01,9.99999e-01,9.99998e-01,8.41990e-01,9.99999e-01
4.142117588e-01,8.44850e-01,9.99999e-01,9.99993e-01,8.44855e-01,9.99999e-01
4.162828176e-01,8.47651e-01,9.99999e-01,9.99972e-01,8.47673e-01,9.99999e-01
4.183642317e-01,8.50431e-01,9.99999e-01,9.99983e-01,8.50445e-01,9.99999e-01
4.204560528e-01,8.53162e-01,9.99999e-01,9.99989e-01,8.53171e-01,9.99999e-01
4.225583331e-01,8.55848e-01,9.99999e-01,9.99995e-01,8.55851e-01,9.99999e-01
4.246711247e-01,8.58484e-01,9.99999e-01,9.99996e-01,8.58486e-01,9.99999e-01
4.267944804e-01,8.61074e-01,9.99999e-01,9.99995e-01,8.61078e-01,9.99999e-01
4.289284528e-01,8.63622e-01,9.99999e-01,9.99996e-01,8.63625e-01,9.99999e-01
4.310730950e-01,8.66129e-01,9.99999e-01,9.99998e-01,8.66130e-01,9.99999e-01
4.332284605e-01,8.68592e-01,9.99999e-01,9.99999e-01,8.68592e-01,9.99999e-01
4.353946028e-01,8.71013e-01,9.99999e-01,9.99999e-01,8.71013e-01,9.99999e-01
4.375715758e-01,8.73390e-01,9.99999e-01,9.99996e-01,8.73392e-01,9.99999e-01
4.397594337e-01,8.75710e-01,9.99999e-01,9.99976e-01,8.75730e-01,9.99999e-01
4.419582309e-01,8.77924e-01,9.99999e-01,9.99880e-01,8.78029e-01,9.99999e-01
4.441680220e-01,8.80204e-01,9.99999e-01,9.99904e-01,8.80288e-01,9.99999e-01
4.463888621e-01,8.82421e-01,9.99999e-01,9.99901e-01,8.82507e-01,9.99999e-01
4.486208064e-01,8.84635e-01,9.99999e-01,9.99938e-01,8.84689e-01,9.99999e-01
4.508639105e-01,8.86807e-01,9.99999e-01,9.99970e-01,8.86832e-01,9.99999e-01
4.531182300e-01,8.88929e-01,9.99999e-01,9.99988e-01,8.88939e-01,9.99999e-01
4.553838212e-01,8.91001e-01,9.99999e-01,9.99991e-01,8.91008e-01,9.99999e-01
4.576607403e-01,8.93038e-01,9.99999e-01,9.99995e-01,8.93042e-01,9.99999e-01
4.599490440e-01,8.95037e-01,9.99999e-01,9.99996e-01,8.95039e-01,9.99999e-01
4.622487892e-01,8.97001e-01,9.99999e-01,9.99999e-01,8.97002e-01,9.99999e-01
4.645600332e-01,8.98928e-01,9.99999e-01,9.99997e-01,8.98930e-01,9.99999e-01
4.668828333e-01,9.00798e-01,9.99999e-01,9.99970e-01,9.00824e-01,9.99999e-01
4.692172475e-01,9.02628e-01,9.99999e-01,9.99937e-01,9.02684e-01,9.99999e-01
4.715633337e-01,9.04475e-01,9.99999e-01,9.99959e-01,9.04511e-01,9.99999e-01
4.739211504e-01,9.06271e-01,9.99999e-01,9.99960e-01,9.06306e-01,9.99999e-01
4.762907561e-01,9.08051e-01,9.99999e-01,9.99979e-01,9.08069e-01,9.99999e-01
4.786722099e-01,9.09793e-01,9.99999e-01,9.99991e-01,9.09800e-01,9.99999e-01
4.810655710e-01,9.11498e-01,9.99999e-01,9.99997e-01,9.11501e-01,9.99999e-01
4.834708988e-01,9.13149e-01,9.99999e-01,9.99976e-01,9.13171e-01,9.99999e-01
4.858882533e-01,9.14770e-01,9.99999e-01,9.99955e-01,9.14810e-01,9.99999e-01
4.883176946e-01,9.16387e-01,9.99999e-01,9.99963e-01,9.16421e-01,9.99999e-01
4.907592831e-01,9.17972e-01,9.99999e-01,9.99966e-01,9.18002e-01,9.99999e-01
4.932130795e-01,9.19533e-01,9.99999e-01,9.99976e-01,9.19555e-01,9.99999e-01
4.956791449e-01,9.21068e-01,9.99999e-01,9.99987e-01,9.21079e-01,9.99999e-01
4.981575406e-01,9.22519e-01,9.99999e-01,9.99937e-01,9.22576e-01,9.99999e-01
5.006483283e-01,9.23898e-01,9.99999e-01,9.99840e-01,9.24046e-01,9.99998e-01
5.031515699e-01,9.24730e-01,9.99999e-01,9.99187e-01,9.25489e-01,9.99990e-01
5.056673278e-01,9.26498e-01,9.99999e-01,9.99569e-01,9.26905e-01,9.99989e-01
5.081956644e-01,9.27787e-01,9.99999e-01,9.99457e-01,9.28296e-01,9.99993e-01
5.107366428e-01,9.29320e-01,9.99999e-01,9.99633e-01,9.29661e-01,9.99998e-01
5.132903260e-01,9.30806e-01,9.99999e-01,9.99789e-01,9.31001e-01,9.99999e-01
5.158567776e-01,9.32234e-01,9.99999e-01,9.99910e-01,9.32317e-01,9.99999e-01
5.184360615e-01,9.33576e-01,9.99999e-01,9.99964e-01,9.33609e-01,9.99999e-01
5.210282418e-01,9.34864e-01,9.99999e-01,9.99986e-01,9.34876e-01,9.99999e-01
5.236333830e-01,9.36071e-01,9.99999e-01,9.99946e-01,9.36121e-01,9.99999e-01
5.262515499e-01,9.37310e-01,9.99999e-01,9.99966e-01,9.37342e-01,9.99998e-01
5.288828077e-01,9.38512e-01,9.99999e-01,9.99969e-01,9.38541e-01,9.99999e-01
5.315272217e-01,9.39692e-01,9.99999e-01,9.99972e-01,9.39717e-01,9.99999e-01
5.341848578e-01,9.40856e-01,9.99999e-01,9.99982e-01,9.40872e-01,9.99999e-01
5.368557821e-01,9.41948e-01,9.99999e-01,9.99938e-01,9.42006e-01,9.99999e-01
5.395400610e-01,9.42908e-01,9.99999e-01,9.99779e-01,9.43118e-01,9.99997e-01
5.422377613e-01,9.43932e-01,9.99999e-01,9.99711e-01,9.44209e-01,9.99994e-01
5.449489501e-01,9.45024e-01,9.99999e-01,9.99732e-01,9.45281e-01,9.99994e-01
5.476736949e-01,9.46104e-01,9.99999e-01,9.99761e-01,9.46332e-01,9.99996e-01
5.504120634e-01,9.47200e-01,9.99999e-01,9.99827e-01,9.47364e-01,9.99998e-01
5.531641237e-01,9.48294e-01,9.99999e-01,9.99912e-01,9.48376e-01,9.99999e-01
5.559299443e-01,9.49330e-01,9.99999e-01,9.99957e-01,9.49369e-01,9.99999e-01
5.587095940e-01,9.50319e-01,9.99999e-01,9.99973e-01,9.50344e-01,9.99999e-01
5.615031420e-01,9.51273e-01,9.99999e-01,9.99970e-01,9.51301e-01,9.99999e-01
5.643106577e-01,9.52208e-01,9.99999e-01,9.99966e-01,9.52239e-01,9.99999e-01
5.671322110e-01,9.52780e-01,9.99999e-01,9.99604e-01,9.53160e-01,9.99995e-01
5.699678720e-01,9.53642e-01,9.99999e-01,9.99568e-01,9.54064e-01,9.99988e-01
5.728177114e-01,9.54517e-01,9.99999e-01,9.99555e-01,9.54950e-01,9.99990e-01
5.756818000e-01,9.55424e-01,9.99999e-01,9.99590e-01,9.55820e-01,9.99993e-01
5.785602090e-01,9.56331e-01,9.99999e-01,9.99642e-01,9.56674e-01,9.99997e-01
5.814530100e-01,9.57168e-01,9.99999e-01,9.99641e-01,9.57511e-01,9.99998e-01
5.843602750e-01,9.57925e-01,9.99999e-01,9.99576e-01,9.58333e-01,9.99997e-01
5.872820764e-01,9.55612e-01,9.99999e-01,9.96347e-01,9.59139e-01,9.99973e-01
5.902184868e-01,9.55582e-01,9.99999e-01,9.95541e-01,9.59929e-01,9.99929e-01
5.931695792e-01,9.57620e-01,9.99999e-01,9.96856e-01,9.60705e-01,9.99931e-01
5.961354271e-01,9.58108e-01,9.99999e-01,9.96548e-01,9.61466e-01,9.99958e-01
5.991161043e-01,9.59776e-01,9.99999e-01,9.97479e-01,9.62213e-01,9.99987e-01
6.021116848e-01,9.61565e-01,9.99999e-01,9.98567e-01,9.62945e-01,9.99998e-01
6.051222432e-01,9.62965e-01,9.99999e-01,9.99274e-01,9.63663e-01,9.99999e-01
6.081478544e-01,9.64067e-01,9.99999e-01,9.99687e-01,9.64368e-01,9.99999e-01
6.111885937e-01,9.64932e-01,9.99999e-01,9.99867e-01,9.65059e-01,9.99999e-01
6.142445367e-01,9.65681e-01,9.99999e-01,9.99940e-01,9.65738e-01,9.99999e-01
6.173157594e-01,9.66371e-01,9.99999e-01,9.99966e-01,9.66403e-01,9.99999e-01
6.204023382e-01,9.67029e-01,9.99999e-01,9.99972e-01,9.67055e-01,9.99999e-01
6.235043498e-01,9.67580e-01,9.99999e-01,9.99880e-01,9.67696e-01,9.99999e-01
6.266218716e-01,9.67699e-01,9.99999e-01,9.99359e-01,9.68323e-01,9.99995e-01
6.297549810e-01,9.68703e-01,9.99999e-01,9.99764e-01,9.68939e-01,9.99990e-01
6.329037559e-01,9.69085e-01,9.99999e-01,9.99534e-01,9.69543e-01,9.99992e-01
6.360682746e-01,9.69749e-01,9.99999e-01,9.99604e-01,9.70136e-01,9.99995e-01
6.392486160e-01,9.70218e-01,9.99999e-01,9.99487e-01,9.70717e-01,9.99997e-01
6.424448591e-01,9.70623e-01,9.99999e-01,9.99318e-01,9.71287e-01,9.99996e-01
6.456570834e-01,9.68757e-01,9.99999e-01,9.96838e-01,9.71846e-01,9.99981e-01
6.488853688e-01,9.69683e-01,9.99999e-01,9.97260e-01,9.72394e-01,9.99950e-01
6.521297956e-01,9.70575e-01,9.99999e-01,9.97617e-01,9.72932e-01,9.99958e-01
6.553904446e-01,9.71141e-01,9.99999e-01,9.97648e-01,9.73460e-01,9.99968e-01
6.586673968e-01,9.71988e-01,9.99999e-01,9.97967e-01,9.73977e-01,9.99989e-01
6.619607338e-01,9.73338e-01,9.99999e-01,9.98825e-01,9.74484e-01,9.99997e-01
6.652705375e-01,9.74317e-01,9.99999e-01,9.99318e-01,9.74982e-01,9.99998e-01
6.685968902e-01,9.75161e-01,9.99999e-01,9.99683e-01,9.75470e-01,9.99999e-01
6.719398746e-01,9.75805e-01,9.99999e-01,9.99852e-01,9.75949e-01,9.99999e-01
6.752995740e-01,9.76341e-01,9.99999e-01,9.99920e-01,9.76418e-01,9.99999e-01
6.786760719e-01,9.76767e-01,9.99999e-01,9.99885e-01,9.76878e-01,9.99999e-01
6.820694522e-01,9.77138e-01,9.99999e-01,9.99804e-01,9.77330e-01,9.99998e-01
6.854797995e-01,9.77525e-01,9.99999e-01,9.99748e-01,9.77773e-01,9.99997e-01
6.889071985e-01,9.77614e-01,9.99999e-01,9.99398e-01,9.78207e-01,9.99994e-01
6.923517345e-01,9.68916e-01,9.99999e-01,9.90118e-01,9.78633e-01,9.99951e-01
6.958134932e-01,9.73816e-01,9.99999e-01,9.94760e-01,9.79050e-01,9.99891e-01
6.992925606e-01,9.74576e-01,9.99999e-01,9.95107e-01,9.79460e-01,9.99904e-01
7.027890234e-01,9.73834e-01,9.99999e-01,9.93920e-01,9.79861e-01,9.99926e-01
7.063029686e-01,9.75212e-01,9.99999e-01,9.94891e-01,9.80255e-01,9.99963e-01
7.098344834e-01,9.75814e-01,9.99999e-01,9.95097e-01,9.80641e-01,9.99978e-01
7.133836558e-01,9.74644e-01,9.99999e-01,9.93542e-01,9.81020e-01,9.99956e-01
7.169505741e-01,9.30877e-01,9.99999e-01,9.48844e-01,9.81391e-01,9.99664e-01
7.205353270e-01,9.55910e-01,9.99999e-01,9.74249e-01,9.81756e-01,9.99409e-01
7.241380036e-01,9.50033e-01,9.99999e-01,9.67828e-01,9.82113e-01,9.99489e-01
7.277586936e-01,9.53477e-01,9.99999e-01,9.70900e-01,9.82463e-01,9.99582e-01
7.313974871e-01,9.52078e-01,9.99999e-01,9.68922e-01,9.82806e-01,9.99804e-01
7.350544745e-01,9.66305e-01,9.99999e-01,9.82939e-01,9.83143e-01,9.99931e-01
7.387297469e-01,9.71065e-01,9.99999e-01,9.87413e-01,9.83473e-01,9.99968e-01
7.424233956e-01,9.77704e-01,9.99999e-01,9.93812e-01,9.83797e-01,9.99993e-01
7.461355126e-01,9.80426e-01,9.99999e-01,9.96252e-01,9.84114e-01,9.99998e-01
7.498661902e-01,9.82703e-01,9.99999e-01,9.98249e-01,9.84426e-01,9.99999e-01
7.536155211e-01,9.83888e-01,9.99999e-01,9.99143e-01,9.84731e-01,9.99999e-01
7.573835987e-01,9.84596e-01,9.99999e-01,9.99558e-01,9.85030e-01,9.99999e-01
7.611705167e-01,9.85054e-01,9.99999e-01,9.99725e-01,9.85324e-01,9.99999e-01
7.649763693e-01,9.85443e-01,9.99999e-01,9.99828e-01,9.85612e-01,9.99999e-01
7.688012511e-01,9.85776e-01,9.99999e-01,9.99880e-01,9.85894e-01,9.99999e-01
7.726452574e-01,9.86074e-01,9.99999e-01,9.99901e-01,9.86170e-01,9.99999e-01
7.765084837e-01,9.86305e-01,9.99999e-01,9.99861e-01,9.86442e-01,9.99999e-01
7.803910261e-01,9.86118e-01,9.99999e-01,9.99401e-01,9.86708e-01,9.99998e-01
7.842929812e-01,9.84907e-01,9.99999e-01,9.97914e-01,9.86969e-01,9.99995e-01
7.882144461e-01,9.82928e-01,9.99999e-01,9.95674e-01,9.87224e-01,9.99973e-01
7.921555184e-01,9.85071e-01,9.99999e-01,9.97615e-01,9.87475e-01,9.99948e-01
7.961162960e-01,9.83553e-01,9.99999e-01,9.95828e-01,9.87721e-01,9.99950e-01
8.000968774e-01,9.83129e-01,9.99999e-01,9.95159e-01,9.87962e-01,9.99947e-01
8.040973618e-01,9.83379e-01,9.99999e-01,9.95164e-01,9.88198e-01,9.99958e-01
8.081178486e-01,9.77704e-01,9.99999e-01,9.89186e-01,9.88430e-01,9.99960e-01
8.121584379e-01,9.44572e-01,9.99999e-01,9.55554e-01,9.88657e-01,9.99846e-01
8.162192301e-01,9.35930e-01,9.99999e-01,9.46997e-01,9.88880e-01,9.99425e-01
8.203003262e-01,9.62363e-01,9.99999e-01,9.73624e-01,9.89098e-01,9.99326e-01
8.244018279e-01,9.51732e-01,9.99999e-01,9.62527e-01,9.89313e-01,9.99464e-01
8.285238370e-01,9.57670e-01,9.99999e-01,9.68216e-01,9.89523e-01,9.99579e-01
8.326664562e-01,9.57654e-01,9.99999e-01,9.67760e-01,9.89728e-01,9.99825e-01
8.368297885e-01,9.66969e-01,9.99999e-01,9.76843e-01,9.89930e-01,9.99959e-01
8.410139374e-01,9.76420e-01,9.99999e-01,9.86177e-01,9.90128e-01,9.99976e-01
8.452190071e-01,9.83570e-01,9.99999e-01,9.93194e-01,9.90322e-01,9.99985e-01
8.494451021e-01,9.86599e-01,9.99999e-01,9.96059e-01,9.90512e-01,9.99988e-01
8.536923276e-01,9.88376e-01,9.99999e-01,9.97661e-01,9.90699e-01,9.99992e-01
8.579607893e-01,9.89457e-01,9.99999e-01,9.98563e-01,9.90882e-01,9.99997e-01
8.622505932e-01,9.90155e-01,9.99999e-01,9.99085e-01,9.91061e-01,9.99999e-01
8.665618462e-01,9.90678e-01,9.99999e-01,9.99435e-01,9.91237e-01,9.99999e-01
8.708946554e-01,9.90770e-01,9.99999e-01,9.99355e-01,9.91409e-01,9.99999e-01
8.752491287e-01,9.90722e-01,9.99999e-01,9.99136e-01,9.91578e-01,9.99998e-01
8.796253743e-01,9.90560e-01,9.99999e-01,9.98808e-01,9.91744e-01,9.99996e-01
8.840235012e-01,9.90547e-01,9.99999e-01,9.98637e-01,9.91906e-01,9.99991e-01
8.884436187e-01,9.87191e-01,9.99999e-01,9.95109e-01,9.92065e-01,9.99975e-01
8.928858368e-01,9.41550e-01,9.99999e-01,9.49059e-01,9.92222e-01,9.99863e-01
8.973502660e-01,9.03349e-01,9.99999e-01,9.10926e-01,9.92375e-01,9.99300e-01
9.018370173e-01,9.45046e-01,9.99999e-01,9.53210e-01,9.92525e-01,9.98901e-01
9.063462024e-01,9.51311e-01,9.99999e-01,9.59259e-01,9.92672e-01,9.99034e-01
9.108779334e-01,9.29247e-01,9.99999e-01,9.36909e-01,9.92816e-01,9.98996e-01
9.154323231e-01,9.21224e-01,9.99999e-01,9.28527e-01,9.92957e-01,9.99170e-01
9.200094847e-01,9.36510e-01,9.99999e-01,9.43457e-01,9.93096e-01,9.99535e-01
9.246095321e-01,9.07790e-01,9.99999e-01,9.14463e-01,9.93232e-01,9.99464e-01
9.292325798e-01,5.43119e-01,9.99999e-01,5.47887e-01,9.93365e-01,9.97916e-01
9.338787427e-01,4.50730e-01,9.99999e-01,4.57608e-01,9.93496e-01,9.91415e-01
9.385481364e-01,7.17101e-01,9.99999e-01,7.29140e-01,9.93624e-01,9.89798e-01
9.432408771e-01,6.38054e-01,9.99999e-01,6.47772e-01,9.93749e-01,9.91192e-01
9.479570815e-01,5.43267e-01,9.99999e-01,5.50565e-01,9.93872e-01,9.92825e-01
9.526968669e-01,6.29503e-01,9.99999e-01,6.36093e-01,9.93993e-01,9.95617e-01
9.574603512e-01,6.53243e-01,9.99999e-01,6.58579e-01,9.94111e-01,9.97771e-01
9.622476530e-01,7.05711e-01,9.99999e-01,7.10904e-01,9.94227e-01,9.98458e-01
9.670588912e-01,8.16070e-01,9.99999e-01,8.21579e-01,9.94341e-01,9.98945e-01
9.718941857e-01,8.78783e-01,9.99999e-01,8.84371e-01,9.94452e-01,9.99223e-01
9.767536566e-01,8.97610e-01,9.99999e-01,9.03053e-01,9.94562e-01,9.99406e-01
9.816374249e-01,9.21931e-01,9.99999e-01,9.27062e-01,9.94669e-01,9.99794e-01
9.865456120e-01,9.48750e-01,9.99999e-01,9.53775e-01,9.94774e-01,9.99956e-01
9.914783401e-01,9.66203e-01,9.99999e-01,9.71189e-01,9.94877e-01,9.99987e-01
9.964357318e-01,9.79255e-01,9.99999e-01,9.84204e-01,9.94978e-01,9.99992e-01
1.001417910e+00,9.85616e-01,9.99999e-01,9.90502e-01,9.95077e-01,9.99988e-01
1.006425000e+00,9.89771e-01,9.99999e-01,9.94585e-01,9.95173e-01,9.99984e-01
1.011457125e+00,9.91900e-01,9.99999e-01,9.96628e-01,9.95269e-01,9.99985e-01
1.016514411e+00,9.93077e-01,9.99999e-01,9.97713e-01,9.95362e-01,9.99989e-01
1.021596983e+00,9.93631e-01,9.99999e-01,9.98178e-01,9.95453e-01,9.99989e-01
1.026704968e+00,9.94123e-01,9.99999e-01,9.98580e-01,9.95543e-01,9.99992e-01
1.031838492e+00,9.94600e-01,9.99999e-01,9.98965e-01,9.95631e-01,9.99997e-01
1.036997685e+00,9.95106e-01,9.99999e-01,9.99386e-01,9.95717e-01,9.99999e-01
1.042182673e+00,9.95076e-01,9.99999e-01,9.99271e-01,9.95801e-01,9.99999e-01
1.047393587e+00,9.94920e-01,9.99999e-01,9.99032e-01,9.95884e-01,9.99999e-01
1.052630555e+00,9.94644e-01,9.99999e-01,9.98673e-01,9.95965e-01,9.99999e-01
1.057893707e+00,9.93842e-01,9.99999e-01,9.97789e-01,9.96045e-01,9.99998e-01
1.063183176e+00,9.92495e-01,9.99999e-01,9.96359e-01,9.96122e-01,9.99997e-01
1.068499092e+00,9.90122e-01,9.99999e-01,9.93903e-01,9.96199e-01,9.99995e-01
1.073841587e+00,9.89171e-01,9.99999e-01,9.92879e-01,9.96274e-01,9.99990e-01
1.079210795e+00,9.87214e-01,9.99999e-01,9.90856e-01,9.96347e-01,9.99975e-01
1.084606849e+00,9.82620e-01,9.99999e-01,9.86209e-01,9.96419e-01,9.99940e-01
1.090029883e+00,9.76780e-01,9.99999e-01,9.80339e-01,9.96490e-01,9.99877e-01
1.095480033e+00,9.43774e-01,9.99999e-01,9.47240e-01,9.96559e-01,9.99779e-01
1.100957433e+00,8.68114e-01,9.99999e-01,8.71404e-01,9.96627e-01,9.99594e-01
1.106462220e+00,7.03191e-01,9.99999e-01,7.06008e-01,9.96693e-01,9.99312e-01
1.111994531e+00,4.78277e-01,9.99999e-01,4.80709e-01,9.96759e-01,9.98175e-01
1.117554504e+00,3.03889e-01,9.99999e-01,3.06874e-01,9.96822e-01,9.93429e-01
1.123142276e+00,4.14514e-01,9.99999e-01,4.22360e-01,9.96885e-01,9.84489e-01
1.128757988e+00,5.61645e-01,9.99999e-01,5.73645e-01,9.96947e-01,9.82079e-01
1.134401778e+00,3.08439e-01,9.99999e-01,3.14158e-01,9.97007e-01,9.84741e-01
1.140073787e+00,7.05611e-01,9.99999e-01,7.16435e-01,9.97066e-01,9.87789e-01
1.145774156e+00,4.93472e-01,9.99999e-01,5.00492e-01,9.97124e-01,9.88817e-01
1.151503026e+00,4.59738e-01,9.99999e-01,4.63934e-01,9.97180e-01,9.93754e-01
1.157260541e+00,5.20786e-01,9.99999e-01,5.23208e-01,9.97236e-01,9.98128e-01
1.163046844e+00,6.16496e-01,9.99999e-01,6.18499e-01,9.97290e-01,9.99468e-01
1.168862078e+00,7.13299e-01,9.99999e-01,7.15393e-01,9.97344e-01,9.99726e-01
1.174706389e+00,8.10880e-01,9.99999e-01,8.13291e-01,9.97396e-01,9.99637e-01
1.180579921e+00,8.78911e-01,9.99999e-01,8.81642e-01,9.97448e-01,9.99451e-01
1.186482820e+00,9.28474e-01,9.99999e-01,9.31326e-01,9.97498e-01,9.99437e-01
1.192415234e+00,9.56608e-01,9.99999e-01,9.59363e-01,9.97547e-01,9.99578e-01
1.198377311e+00,9.62989e-01,9.99999e-01,9.65693e-01,9.97596e-01,9.99601e-01
1.204369197e+00,9.64858e-01,9.99999e-01,9.67485e-01,9.97643e-01,9.99639e-01
1.210391043e+00,9.66427e-01,9.99999e-01,9.68876e-01,9.97690e-01,9.99780e-01
1.216442998e+00,9.71081e-01,9.99999e-01,9.73415e-01,9.97735e-01,9.99865e-01
1.222525213e+00,9.77003e-01,9.99999e-01,9.79258e-01,9.97780e-01,9.99916e-01
1.228637839e+00,9.83380e-01,9.99999e-01,9.85562e-01,9.97824e-01,9.99960e-01
1.234781029e+00,9.87129e-01,9.99999e-01,9.89249e-01,9.97866e-01,9.99988e-01
1.240954934e+00,9.91116e-01,9.99999e-01,9.93196e-01,9.97909e-01,9.99996e-01
1.247159708e+00,9.92654e-01,9.99999e-01,9.94694e-01,9.97950e-01,9.99997e-01
1.253395507e+00,9.93292e-01,9.99999e-01,9.95294e-01,9.97990e-01,9.99996e-01
1.259662485e+00,9.93609e-01,9.99999e-01,9.95573e-01,9.98030e-01,9.99995e-01
1.265960797e+00,9.90968e-01,9.99999e-01,9.92891e-01,9.98069e-01,9.99992e-01
1.272290601e+00,9.87663e-01,9.99999e-01,9.89547e-01,9.98107e-01,9.99987e-01
1.278652054e+00,9.76181e-01,9.99999e-01,9.78016e-01,9.98144e-01,9.99977e-01
1.285045314e+00,9.63860e-01,9.99999e-01,9.65655e-01,9.98181e-01,9.99959e-01
1.291470541e+00,9.30306e-01,9.99999e-01,9.32033e-01,9.98217e-01,9.99928e-01
1.297927893e+00,9.10446e-01,9.99999e-01,9.12160e-01,9.98252e-01,9.99867e-01
1.304417533e+00,8.86396e-01,9.99999e-01,8.88165e-01,9.98286e-01,9.99719e-01
1.310939621e+00,8.71553e-01,9.99999e-01,8.73521e-01,9.98320e-01,9.99424e-01
1.317494319e+00,8.60489e-01,9.99999e-01,8.62825e-01,9.98353e-01,9.98935e-01
1.324081790e+00,7.99870e-01,9.99999e-01,8.02556e-01,9.98386e-01,9.98263e-01
1.330702199e+00,4.32120e-01,9.99999e-01,4.34103e-01,9.98418e-01,9.97007e-01
1.337355710e+00,1.11123e-01,9.99999e-01,1.11940e-01,9.98449e-01,9.94245e-01
1.344042489e+00,6.07236e-03,9.99999e-01,6.18822e-03,9.98479e-01,9.82769e-01
1.350762701e+00,1.70075e-05,9.99999e-01,1.80772e-05,9.98509e-01,9.42230e-01
1.357516515e+00,1.58340e-07,9.99999e-01,1.88829e-07,9.98539e-01,8.39762e-01
1.364304097e+00,3.60149e-05,9.99999e-01,4.89808e-05,9.98568e-01,7.36340e-01
1.371125618e+00,9.52434e-04,9.99999e-01,1.27281e-03,9.98596e-01,7.49345e-01
1.377981246e+00,2.64634e-03,9.99999e-01,3.39364e-03,9.98624e-01,7.80869e-01
1.384871152e+00,6.33097e-05,9.99999e-01,8.00266e-05,9.98651e-01,7.92176e-01
1.391795508e+00,5.26635e-05,9.99999e-01,6.57445e-05,9.98677e-01,8.02092e-01
1.398754485e+00,2.87124e-04,9.99999e-01,3.44706e-04,9.98703e-01,8.34033e-01
1.405748258e+00,2.94708e-04,9.99999e-01,3.28110e-04,9.98729e-01,8.99340e-01
1.412776999e+00,3.03411e-04,9.99999e-01,3.18867e-04,9.98754e-01,9.52714e-01
1.419840884e+00,5.58262e-04,9.99999e-01,5.70942e-04,9.98779e-01,9.78984e-01
1.426940089e+00,2.77043e-03,9.99999e-01,2.81887e-03,9.98803e-01,9.83993e-01
1.434074789e+00,1.10967e-02,9.99999e-01,1.13233e-02,9.98826e-01,9.81138e-01
1.441245163e+00,2.96585e-02,9.99999e-01,3.03114e-02,9.98849e-01,9.79586e-01
1.448451389e+00,8.29670e-02,9.99999e-01,8.45742e-02,9.98872e-01,9.82103e-01
1.455693646e+00,1.87538e-01,9.99999e-01,1.90402e-01,9.98894e-01,9.86046e-01
1.462972114e+00,2.35807e-01,9.99999e-01,2.39247e-01,9.98916e-01,9.86687e-01
1.470286975e+00,1.86210e-01,9.99999e-01,1.88879e-01,9.98938e-01,9.86913e-01
