#,Wave/freq,Total,N2,H2O,Rayleigh,CIA
4.000000000e-01,6.18187e-01,9.99999e-01,9.99945e-01,6.18221e-01,9.99999e-01
4.020000000e-01,6.24106e-01,9.99999e-01,9.99965e-01,6.24127e-01,9.99999e-01
4.040100000e-01,6.29957e-01,9.99999e-01,9.99985e-01,6.29966e-01,9.99999e-01
4.060300500e-01,6.35740e-01,9.99999e-01,9.99996e-01,6.35742e-01,9.99999e-01
4.080602003e-01,6.41455e-01,9.99999e-01,9.99998e-01,6.41456e-01,9.99999e-01
4.101005013e-01,6.47106e-01,9.99999e-01,9.99999e-01,6.47106e-01,9.99999e-01
4.121510038e-01,6.52692e-01,9.99999e-01,9.99997e-01,6.52694e-01,9.99999e-01
4.142117588e-01,6.58208e-01,9.99999e-01,9.99984e-01,6.58217e-01,9.99999e-01
4.162828176e-01,6.63633e-01,9.99999e-01,9.99932e-01,6.63677e-01,9.99999e-01
4.183642317e-01,6.69047e-01,9.99999e-01,9.99959e-01,6.69073e-01,9.99999e-01
4.204560528e-01,6.74389e-01,9.99999e-01,9.99974e-01,6.74405e-01,9.99999e-01
4.225583331e-01,6.79667e-01,9.99999e-01,9.99990e-01,6.79673e-01,9.99999e-01
4.246711247e-01,6.84872e-01,9.99999e-01,9.99992e-01,6.84877e-01,9.99999e-01
4.267944804e-01,6.90010e-01,9.99999e-01,9.99988e-01,6.90017e-01,9.99999e-01
4.289284528e-01,6.95087e-01,9.99999e-01,9.99991e-01,6.95093e-01,9.99999e-01
4.310730950e-01,7.00102e-01,9.99999e-01,9.99995e-01,7.00104e-01,9.99999e-01
4.332284605e-01,7.05051e-01,9.99999e-01,9.99998e-01,7.05052e-01,9.99999e-01
4.353946028e-01,7.09936e-01,9.99999e-01,9.99999e-01,7.09936e-01,9.99999e-01
4.375715758e-01,7.14752e-01,9.99999e-01,9.99992e-01,7.14756e-01,9.99999e-01
4.397594337e-01,7.19471e-01,9.99999e-01,9.99941e-01,7.19513e-01,9.99999e-01
4.419582309e-01,7.23992e-01,9.99999e-01,9.99703e-01,7.24207e-01,9.99999e-01
4.441680220e-01,7.28666e-01,9.99999e-01,9.99764e-01,7.28837e-01,9.99999e-01
4.463888621e-01,7.33227e-01,9.99999e-01,9.99756e-01,7.33405e-01,9.99999e-01
4.486208064e-01,7.37799e-01,9.99999e-01,9.99847e-01,7.37911e-01,9.99999e-01
4.508639105e-01,7.42301e-01,9.99999e-01,9.99928e-01,7.42354e-01,9.99999e-01
4.531182300e-01,7.46714e-01,9.99999e-01,9.99971e-01,7.46735e-01,9.99999e-01
4.553838212e-01,7.51041e-01,9.99999e-01,9.99980e-01,7.51055e-01,9.99999e-01
4.576607403e-01,7.55308e-01,9.99999e-01,9.99990e-01,7.55314e-01,9.99999e-01
4.599490440e-01,7.59508e-01,9.99999e-01,9.99993e-01,7.59513e-01,9.99999e-01
4.622487892e-01,7.63650e-01,9.99999e-01,9.99998e-01,7.63651e-01,9.99999e-01
4.645600332e-01,7.67726e-01,9.99999e-01,9.99995e-01,7.67729e-01,9.99999e-01
4.668828333e-01,7.71693e-01,9.99999e-01,9.99928e-01,7.71748e-01,9.99999e-01
4.692172475e-01,7.75589e-01,9.99999e-01,9.99846e-01,7.75707e-01,9.99999e-01
4.715633337e-01,7.79531e-01,9.99999e-01,9.99899e-01,7.79609e-01,9.99999e-01
4.739211504e-01,7.83377e-01,9.99999e-01,9.99903e-01,7.83452e-01,9.99999e-01
4.762907561e-01,7.87199e-01,9.99999e-01,9.99949e-01,7.87238e-01,9.99999e-01
4.786722099e-01,7.90950e-01,9.99999e-01,9.99979e-01,7.90966e-01,9.99999e-01
4.810655710e-01,7.94634e-01,9.99999e-01,9.99993e-01,7.94639e-01,9.99999e-01
4.834708988e-01,7.98209e-01,9.99999e-01,9.99941e-01,7.98255e-01,9.99999e-01
4.858882533e-01,8.01729e-01,9.99999e-01,9.99891e-01,8.01816e-01,9.99999e-01
4.883176946e-01,8.05249e-01,9.99999e-01,9.99909e-01,8.05321e-01,9.99999e-01
4.907592831e-01,8.08707e-01,9.99999e-01,9.99917e-01,8.08773e-01,9.99999e-01
4.932130795e-01,8.12123e-01,9.99999e-01,9.99941e-01,8.12170e-01,9.99999e-01
4.956791449e-01,8.15490e-01,9.99999e-01,9.99968e-01,8.15515e-01,9.99999e-01
4.981575406e-01,8.18681e-01,9.99999e-01,9.99846e-01,8.18807e-01,9.99999e-01
5.006483283e-01,8.21719e-01,9.99999e-01,9.99604e-01,8.22046e-01,9.99996e-01
5.031515699e-01,8.23556e-01,9.99999e-01,9.97987e-01,8.25234e-01,9.99978e-01
5.056673278e-01,8.27469e-01,9.99999e-01,9.98934e-01,8.28371e-01,9.99975e-01
5.081956644e-01,8.30328e-01,9.99999e-01,9.98655e-01,8.31458e-01,9.99983e-01
5.107366428e-01,8.33735e-01,9.99999e-01,9.99091e-01,8.34495e-01,9.99996e-01
5.132903260e-01,8.37047e-01,9.99999e-01,9.99480e-01,8.37482e-01,9.99999e-01
5.158567776e-01,8.40237e-01,9.99999e-01,9.99779e-01,8.40421e-01,9.99999e-01
5.184360615e-01,8.43238e-01,9.99999e-01,9.99911e-01,8.43312e-01,9.99999e-01
5.210282418e-01,8.46128e-01,9.99999e-01,9.99966e-01,8.46156e-01,9.99999e-01
5.236333830e-01,8.48840e-01,9.99999e-01,9.99868e-01,8.48952e-01,9.99998e-01
5.262515499e-01,8.51632e-01,9.99999e-01,9.99917e-01,8.51703e-01,9.99998e-01
5.288828077e-01,8.54343e-01,9.99999e-01,9.99924e-01,8.54408e-01,9.99998e-01
5.315272217e-01,8.57010e-01,9.99999e-01,9.99933e-01,8.57067e-01,9.99999e-01
5.341848578e-01,8.59645e-01,9.99999e-01,9.99956e-01,8.59682e-01,9.99999e-01
5.368557821e-01,8.62122e-01,9.99999e-01,9.99847e-01,8.62253e-01,9.99999e-01
5.395400610e-01,8.64304e-01,9.99999e-01,9.99451e-01,8.64781e-01,9.99994e-01
5.422377613e-01,8.66635e-01,9.99999e-01,9.99284e-01,8.67266e-01,9.99986e-01
5.449489501e-01,8.69122e-01,9.99999e-01,9.99337e-01,8.69709e-01,9.99986e-01
5.476736949e-01,8.71591e-01,9.99999e-01,9.99410e-01,8.72111e-01,9.99992e-01
5.504120634e-01,8.74096e-01,9.99999e-01,9.99571e-01,8.74471e-01,9.99997e-01
5.531641237e-01,8.76602e-01,9.99999e-01,9.99784e-01,8.76791e-01,9.99999e-01
5.559299443e-01,8.78980e-01,9.99999e-01,9.99895e-01,8.79071e-01,9.99999e-01
5.587095940e-01,8.81255e-01,9.99999e-01,9.99934e-01,8.81312e-01,9.99999e-01
5.615031420e-01,8.83450e-01,9.99999e-01,9.99927e-01,8.83514e-01,9.99999e-01
5.643106577e-01,8.85606e-01,9.99999e-01,9.99918e-01,8.85678e-01,9.99998e-01
5.671322110e-01,8.86924e-01,9.99999e-01,9.99015e-01,8.87805e-01,9.99990e-01
5.699678720e-01,8.88921e-01,9.99999e-01,9.98933e-01,8.89894e-01,9.99972e-01
5.728177114e-01,8.90944e-01,9.99999e-01,9.98897e-01,8.91947e-01,9.99976e-01
5.756818000e-01,8.93046e-01,9.99999e-01,9.98986e-01,8.93964e-01,9.99985e-01
5.785602090e-01,8.95149e-01,9.99999e-01,9.99115e-01,8.95945e-01,9.99995e-01
5.814530100e-01,8.97094e-01,9.99999e-01,9.99112e-01,8.97892e-01,9.99997e-01
5.843602750e-01,8.98853e-01,9.99999e-01,9.98948e-01,8.99804e-01,9.99993e-01
5.872820764e-01,8.93479e-01,9.99999e-01,9.90965e-01,9.01682e-01,9.99935e-01
5.902184868e-01,8.93420e-01,9.99999e-01,9.88984e-01,9.03528e-01,9.99825e-01
5.931695792e-01,8.98151e-01,9.99999e-01,9.92228e-01,9.05340e-01,9.99829e-01
5.961354271e-01,8.99288e-01,9.99999e-01,9.91466e-01,9.07120e-01,9.99896e-01
5.991161043e-01,9.03175e-01,9.99999e-01,9.93764e-01,9.08868e-01,9.99969e-01
6.021116848e-01,9.07354e-01,9.99999e-01,9.96454e-01,9.10585e-01,9.99995e-01
6.051222432e-01,9.10633e-01,9.99999e-01,9.98204e-01,9.12272e-01,9.99999e-01
6.081478544e-01,9.13220e-01,9.99999e-01,9.99225e-01,9.13928e-01,9.99999e-01
6.111885937e-01,9.15253e-01,9.99999e-01,9.99671e-01,9.15554e-01,9.99999e-01
6.142445367e-01,9.17016e-01,9.99999e-01,9.99853e-01,9.17151e-01,9.99999e-01
6.173157594e-01,9.18645e-01,9.99999e-01,9.99918e-01,9.18719e-01,9.99999e-01
6.204023382e-01,9.20196e-01,9.99999e-01,9.99931e-01,9.20258e-01,9.99999e-01
6.235043498e-01,9.21496e-01,9.99999e-01,9.99703e-01,9.21770e-01,9.99998e-01
6.266218716e-01,9.21779e-01,9.99999e-01,9.98412e-01,9.23255e-01,9.99988e-01
6.297549810e-01,9.24153e-01,9.99999e-01,9.99417e-01,9.24712e-01,9.99977e-01
6.329037559e-01,9.25058e-01,9.99999e-01,9.98846e-01,9.26143e-01,9.99981e-01
6.360682746e-01,9.26630e-01,9.99999e-01,9.99020e-01,9.27547e-01,9.99988e-01
6.392486160e-01,9.27742e-01,9.99999e-01,9.98728e-01,9.28926e-01,9.99994e-01
6.424448591e-01,9.28701e-01,9.99999e-01,9.98309e-01,9.30280e-01,9.99992e-01
6.456570834e-01,9.24273e-01,9.99999e-01,9.92168e-01,9.31609e-01,9.99955e-01
6.488853688e-01,9.26490e-01,9.99999e-01,9.93235e-01,9.32913e-01,9.99877e-01
6.521297956e-01,9.28596e-01,9.99999e-01,9.94109e-01,9.34194e-01,9.99896e-01
6.553904446e-01,9.29932e-01,9.99999e-01,9.94176e-01,9.35451e-01,9.99922e-01
6.586673968e-01,9.31953e-01,9.99999e-01,9.94973e-01,9.36685e-01,9.99974e-01
6.619607338e-01,9.35163e-01,9.99999e-01,9.97091e-01,9.37896e-01,9.99994e-01
6.652705375e-01,9.37497e-01,9.99999e-01,9.98312e-01,9.39084e-01,9.99996e-01
6.685968902e-01,9.39513e-01,9.99999e-01,9.99215e-01,9.40251e-01,9.99999e-01
6.719398746e-01,9.41053e-01,9.99999e-01,9.99636e-01,9.41395e-01,9.99999e-01
6.752995740e-01,9.42334e-01,9.99999e-01,9.99803e-01,9.42519e-01,9.99999e-01
6.786760719e-01,9.43355e-01,9.99999e-01,9.99717e-01,9.43622e-01,9.99999e-01
6.820694522e-01,9.44245e-01,9.99999e-01,9.99515e-01,9.44704e-01,9.99996e-01
6.854797995e-01,9.45171e-01,9.99999e-01,9.99375e-01,9.45766e-01,9.99994e-01
6.889071985e-01,9.45381e-01,9.99999e-01,9.98505e-01,9.46808e-01,9.99986e-01
6.923517345e-01,9.24672e-01,9.99999e-01,9.75681e-01,9.47831e-01,9.99881e-01
6.958134932e-01,9.36360e-01,9.99999e-01,9.87115e-01,9.48835e-01,9.99732e-01
6.992925606e-01,9.38111e-01,9.99999e-01,9.87904e-01,9.49820e-01,9.99764e-01
7.027890234e-01,9.36360e-01,9.99999e-01,9.85004e-01,9.50786e-01,9.99819e-01
7.063029686e-01,9.39642e-01,9.99999e-01,9.87382e-01,9.51734e-01,9.99909e-01
7.098344834e-01,9.41077e-01,9.99999e-01,9.87888e-01,9.52665e-01,9.99946e-01
7.133836558e-01,9.38263e-01,9.99999e-01,9.84043e-01,9.53577e-01,9.99894e-01
7.169505741e-01,8.38279e-01,9.99999e-01,8.78992e-01,9.54473e-01,9.99169e-01
7.205353270e-01,8.94772e-01,9.99999e-01,9.37960e-01,9.55352e-01,9.98535e-01
7.241380036e-01,8.81022e-01,9.99999e-01,9.22530e-01,9.56214e-01,9.98735e-01
7.277586936e-01,8.88947e-01,9.99999e-01,9.29791e-01,9.57060e-01,9.98965e-01
7.313974871e-01,8.85659e-01,9.99999e-01,9.25040e-01,9.57890e-01,9.99515e-01
7.350544745e-01,9.18613e-01,9.99999e-01,9.58342e-01,9.58705e-01,9.99831e-01
7.387297469e-01,9.29813e-01,9.99999e-01,9.69130e-01,9.59504e-01,9.99922e-01
7.424233956e-01,9.45627e-01,9.99999e-01,9.84747e-01,9.60287e-01,9.99984e-01
7.461355126e-01,9.52155e-01,9.99999e-01,9.90739e-01,9.61056e-01,9.99996e-01
7.498661902e-01,9.57646e-01,9.99999e-01,9.95670e-01,9.61811e-01,9.99998e-01
7.536155211e-01,9.60509e-01,9.99999e-01,9.97878e-01,9.62551e-01,9.99998e-01
7.573835987e-01,9.62224e-01,9.99999e-01,9.98906e-01,9.63277e-01,9.99999e-01
7.611705167e-01,9.63334e-01,9.99999e-01,9.99320e-01,9.63989e-01,9.99999e-01
7.649763693e-01,9.64277e-01,9.99999e-01,9.99574e-01,9.64687e-01,9.99999e-01
7.688012511e-01,9.65087e-01,9.99999e-01,9.99703e-01,9.65373e-01,9.99999e-01
7.726452574e-01,9.65810e-01,9.99999e-01,9.99756e-01,9.66045e-01,9.99999e-01
7.765084837e-01,9.66372e-01,9.99999e-01,9.99655e-01,9.66704e-01,9.99999e-01
7.803910261e-01,9.65914e-01,9.99999e-01,9.98515e-01,9.67351e-01,9.99998e-01
7.842929812e-01,9.62970e-01,9.99999e-01,9.94828e-01,9.67985e-01,9.99989e-01
7.882144461e-01,9.58190e-01,9.99999e-01,9.89308e-01,9.68608e-01,9.99933e-01
7.921555184e-01,9.63383e-01,9.99999e-01,9.94105e-01,9.69218e-01,9.99872e-01
7.961162960e-01,9.59694e-01,9.99999e-01,9.89681e-01,9.69817e-01,9.99877e-01
8.000968774e-01,9.58673e-01,9.99999e-01,9.88038e-01,9.70404e-01,9.99870e-01
8.040973618e-01,9.59277e-01,9.99999e-01,9.88047e-01,9.70980e-01,9.99896e-01
8.081178486e-01,9.45615e-01,9.99999e-01,9.73403e-01,9.71545e-01,9.99903e-01
8.121584379e-01,8.68671e-01,9.99999e-01,8.93941e-01,9.72099e-01,9.99620e-01
8.162192301e-01,8.49602e-01,9.99999e-01,8.74743e-01,9.72643e-01,9.98575e-01
8.203003262e-01,9.10303e-01,9.99999e-01,9.36956e-01,9.73176e-01,9.98331e-01
8.244018279e-01,8.86965e-01,9.99999e-01,9.12133e-01,9.73699e-01,9.98672e-01
8.285238370e-01,8.98598e-01,9.99999e-01,9.23347e-01,9.74211e-01,9.98956e-01
8.326664562e-01,8.98706e-01,9.99999e-01,9.22417e-01,9.74714e-01,9.99568e-01
8.368297885e-01,9.20227e-01,9.99999e-01,9.43714e-01,9.75207e-01,9.99900e-01
8.410139374e-01,9.42596e-01,9.99999e-01,9.66135e-01,9.75691e-01,9.99941e-01
8.452190071e-01,9.59763e-01,9.99999e-01,9.83230e-01,9.76165e-01,9.99965e-01
8.494451021e-01,9.67092e-01,9.99999e-01,9.90259e-01,9.76631e-01,9.99971e-01
8.536923276e-01,9.71419e-01,9.99999e-01,9.94216e-01,9.77087e-01,9.99981e-01
8.579607893e-01,9.74052e-01,9.99999e-01,9.96442e-01,9.77534e-01,9.99994e-01
8.622505932e-01,9.75758e-01,9.99999e-01,9.97735e-01,9.77973e-01,9.99998e-01
8.665618462e-01,9.77036e-01,9.99999e-01,9.98601e-01,9.78404e-01,9.99999e-01
8.708946554e-01,9.77261e-01,9.99999e-01,9.98401e-01,9.78826e-01,9.99998e-01
8.752491287e-01,9.77143e-01,9.99999e-01,9.97861e-01,9.79239e-01,9.99997e-01
8.796253743e-01,9.76745e-01,9.99999e-01,9.97045e-01,9.79645e-01,9.99992e-01
8.840235012e-01,9.76715e-01,9.99999e-01,9.96623e-01,9.80043e-01,9.99978e-01
8.884436187e-01,9.68515e-01,9.99999e-01,9.87900e-01,9.80434e-01,9.99940e-01
8.928858368e-01,8.62236e-01,9.99999e-01,8.79396e-01,9.80816e-01,9.99661e-01
8.973502660e-01,7.79713e-01,9.99999e-01,7.96038e-01,9.81192e-01,9.98267e-01
9.018370173e-01,8.70826e-01,9.99999e-01,8.89607e-01,9.81560e-01,9.97276e-01
9.063462024e-01,8.84474e-01,9.99999e-01,9.02918e-01,9.81921e-01,9.97607e-01
9.108779334e-01,8.35188e-01,9.99999e-01,8.52377e-01,9.82274e-01,9.97514e-01
9.154323231e-01,8.17324e-01,9.99999e-01,8.33491e-01,9.82622e-01,9.97944e-01
9.200094847e-01,8.51386e-01,9.99999e-01,8.67140e-01,9.82962e-01,9.98848e-01
9.246095321e-01,7.92206e-01,9.99999e-01,8.06733e-01,9.83296e-01,9.98673e-01
9.292325798e-01,2.46056e-01,9.99999e-01,2.51450e-01,9.83623e-01,9.94839e-01
9.338787427e-01,1.60680e-01,9.99999e-01,1.66832e-01,9.83944e-01,9.78840e-01
9.385481364e-01,4.62977e-01,9.99999e-01,4.82499e-01,9.84258e-01,9.74885e-01
9.432408771e-01,3.63349e-01,9.99999e-01,3.77232e-01,9.84567e-01,9.78295e-01
9.479570815e-01,2.52317e-01,9.99999e-01,2.60809e-01,9.84869e-01,9.82299e-01
9.526968669e-01,3.44530e-01,9.99999e-01,3.53548e-01,9.85166e-01,9.89165e-01
9.574603512e-01,3.65062e-01,9.99999e-01,3.72505e-01,9.85457e-01,9.94481e-01
9.622476530e-01,4.34010e-01,9.99999e-01,4.41975e-01,9.85742e-01,9.96180e-01
9.670588912e-01,6.12365e-01,9.99999e-01,6.22673e-01,9.86022e-01,9.97386e-01
9.718941857e-01,7.28029e-01,9.99999e-01,7.39567e-01,9.86296e-01,9.98075e-01
9.767536566e-01,7.66671e-01,9.99999e-01,7.78256e-01,9.86565e-01,9.98528e-01
9.816374249e-01,8.18288e-01,9.99999e-01,8.29632e-01,9.86828e-01,9.99490e-01
9.865456120e-01,8.78024e-01,9.99999e-01,8.89604e-01,9.87087e-01,9.99893e-01
9.914783401e-01,9.18366e-01,9.99999e-01,9.30168e-01,9.87340e-01,9.99970e-01
9.964357318e-01,9.49387e-01,9.99999e-01,9.61334e-01,9.87589e-01,9.99982e-01
1.001417910e+00,9.64724e-01,9.99999e-01,9.76632e-01,9.87832e-01,9.99973e-01
1.006425000e+00,9.74824e-01,9.99999e-01,9.86629e-01,9.88071e-01,9.99962e-01
1.011457125e+00,9.80036e-01,9.99999e-01,9.91666e-01,9.88305e-01,9.99964e-01
1.016514411e+00,9.82917e-01,9.99999e-01,9.94341e-01,9.88535e-01,9.99975e-01
1.021596983e+00,9.84278e-01,9.99999e-01,9.95490e-01,9.88760e-01,9.99974e-01
1.026704968e+00,9.85487e-01,9.99999e-01,9.96483e-01,9.88981e-01,9.99983e-01
1.031838492e+00,9.86660e-01,9.99999e-01,9.97439e-01,9.89197e-01,9.99994e-01
1.036997685e+00,9.87906e-01,9.99999e-01,9.98480e-01,9.89410e-01,9.99998e-01
1.042182673e+00,9.87829e-01,9.99999e-01,9.98192e-01,9.89618e-01,9.99999e-01
1.047393587e+00,9.87447e-01,9.99999e-01,9.97601e-01,9.89822e-01,9.99999e-01
1.052630555e+00,9.86766e-01,9.99999e-01,9.96712e-01,9.90022e-01,9.99998e-01
1.057893707e+00,9.84792e-01,9.99999e-01,9.94522e-01,9.90218e-01,9.99997e-01
1.063183176e+00,9.81488e-01,9.99999e-01,9.90995e-01,9.90410e-01,9.99994e-01
1.068499092e+00,9.75684e-01,9.99999e-01,9.84953e-01,9.90599e-01,9.99989e-01
1.073841587e+00,9.73371e-01,9.99999e-01,9.82446e-01,9.90783e-01,9.99977e-01
1.079210795e+00,9.68610e-01,9.99999e-01,9.77500e-01,9.90965e-01,9.99939e-01
1.084606849e+00,9.57496e-01,9.99999e-01,9.66193e-01,9.91142e-01,9.99853e-01
1.090029883e+00,9.43479e-01,9.99999e-01,9.52030e-01,9.91316e-01,9.99697e-01
1.095480033e+00,8.66639e-01,9.99999e-01,8.74557e-01,9.91487e-01,9.99453e-01
1.100957433e+00,7.06608e-01,9.99999e-01,7.13271e-01,9.91655e-01,9.98994e-01
1.106462220e+00,4.29985e-01,9.99999e-01,4.34271e-01,9.91819e-01,9.98295e-01
1.111994531e+00,1.76269e-01,9.99999e-01,1.78501e-01,9.91980e-01,9.95480e-01
1.117554504e+00,6.44748e-02,9.99999e-01,6.60570e-02,9.92137e-01,9.83781e-01
1.123142276e+00,1.44215e-01,9.99999e-01,1.51081e-01,9.92292e-01,9.61966e-01
1.128757988e+00,2.61532e-01,9.99999e-01,2.75612e-01,9.92444e-01,9.56134e-01
1.134401778e+00,1.17072e-01,9.99999e-01,1.22531e-01,9.92593e-01,9.62576e-01
1.140073787e+00,4.33993e-01,9.99999e-01,4.50695e-01,9.92738e-01,9.69984e-01
1.145774156e+00,1.98313e-01,9.99999e-01,2.05385e-01,9.92881e-01,9.72489e-01
1.151503026e+00,1.70766e-01,9.99999e-01,1.74659e-01,9.93021e-01,9.84579e-01
1.157260541e+00,2.11487e-01,9.99999e-01,2.13936e-01,9.93159e-01,9.95364e-01
1.163046844e+00,3.13718e-01,9.99999e-01,3.16252e-01,9.93293e-01,9.98683e-01
1.168862078e+00,4.37795e-01,9.99999e-01,4.40991e-01,9.93425e-01,9.99321e-01
1.174706389e+00,5.98343e-01,9.99999e-01,6.02766e-01,9.93555e-01,9.99100e-01
1.180579921e+00,7.27994e-01,9.99999e-01,7.33619e-01,9.93682e-01,9.98640e-01
1.186482820e+00,8.32393e-01,9.99999e-01,8.38750e-01,9.93806e-01,9.98604e-01
1.192415234e+00,8.95927e-01,9.99999e-01,9.02342e-01,9.93928e-01,9.98954e-01
1.198377311e+00,9.10803e-01,9.99999e-01,9.17161e-01,9.94048e-01,9.99012e-01
1.204369197e+00,9.15363e-01,9.99999e-01,9.21558e-01,9.94165e-01,9.99106e-01
1.210391043e+00,9.18952e-01,9.99999e-01,9.24741e-01,9.94280e-01,9.99456e-01
1.216442998e+00,9.29968e-01,9.99999e-01,9.35523e-01,9.94392e-01,9.99666e-01
1.222525213e+00,9.43992e-01,9.99999e-01,9.49405e-01,9.94503e-01,9.99792e-01
1.228637839e+00,9.59310e-01,9.99999e-01,9.64599e-01,9.94611e-01,9.99903e-01
1.234781029e+00,9.68406e-01,9.99999e-01,9.73575e-01,9.94717e-01,9.99972e-01
1.240954934e+00,9.78121e-01,9.99999e-01,9.83220e-01,9.94821e-01,9.99991e-01
1.247159708e+00,9.81886e-01,9.99999e-01,9.86900e-01,9.94923e-01,9.99994e-01
1.253395507e+00,9.83449e-01,9.99999e-01,9.88373e-01,9.95023e-01,9.99993e-01
1.259662485e+00,9.84135e-01,9.99999e-01,9.88969e-01,9.95121e-01,9.99989e-01
1.265960797e+00,9.77691e-01,9.99999e-01,9.82405e-01,9.95217e-01,9.99982e-01
1.272290601e+00,9.69676e-01,9.99999e-01,9.74272e-01,9.95312e-01,9.99969e-01
1.278652054e+00,9.42049e-01,9.99999e-01,9.46449e-01,9.95404e-01,9.99945e-01
1.285045314e+00,9.12982e-01,9.99999e-01,9.17205e-01,9.95495e-01,9.99899e-01
1.291470541e+00,8.36679e-01,9.99999e-01,8.40537e-01,9.95583e-01,9.99823e-01
1.297927893e+00,7.93985e-01,9.99999e-01,7.97699e-01,9.95670e-01,9.99671e-01
1.304417533e+00,7.44192e-01,9.99999e-01,7.47883e-01,9.95756e-01,9.99304e-01
1.310939621e+00,7.13892e-01,9.99999e-01,7.17897e-01,9.95839e-01,9.98573e-01
1.317494319e+00,6.92630e-01,9.99999e-01,6.97304e-01,9.95921e-01,9.97363e-01
1.324081790e+00,5.82653e-01,9.99999e-01,5.87518e-01,9.96002e-01,9.95698e-01
1.330702199e+00,1.86540e-01,9.99999e-01,1.88671e-01,9.96081e-01,9.92594e-01
1.337355710e+00,7.89328e-03,9.99999e-01,8.03795e-03,9.96158e-01,9.85787e-01
1.344042489e+00,1.80274e-04,9.99999e-01,1.88928e-04,9.96234e-01,9.57802e-01
1.350762701e+00,3.75863e-11,9.99999e-01,4.37262e-11,9.96308e-01,8.62767e-01
1.357516515e+00,2.46651e-16,9.99999e-01,3.81764e-16,9.96381e-01,6.48428e-01
1.364304097e+00,1.63120e-10,9.99999e-01,3.49764e-10,9.96452e-01,4.68030e-01
1.371125618e+00,5.53845e-07,9.99999e-01,1.13702e-06,9.96522e-01,4.88803e-01
1.377981246e+00,2.07241e-06,9.99999e-01,3.84088e-06,9.96590e-01,5.41412e-01
1.384871152e+00,4.72358e-09,9.99999e-01,8.44712e-09,9.96658e-01,5.61068e-01
1.391795508e+00,1.89173e-10,9.99999e-01,3.27993e-10,9.96723e-01,5.78652e-01
1.398754485e+00,2.15932e-08,9.99999e-01,3.39802e-08,9.96788e-01,6.37509e-01
1.405748258e+00,2.99122e-08,9.99999e-01,3.90403e-08,9.96851e-01,7.68605e-01
1.412776999e+00,3.68921e-08,9.99999e-01,4.17311e-08,9.96913e-01,8.86779e-01
1.419840884e+00,8.01193e-08,9.99999e-01,8.47098e-08,9.96974e-01,9.48677e-01
1.426940089e+00,8.02708e-06,9.99999e-01,8.37974e-06,9.97034e-01,9.60763e-01
1.434074789e+00,6.82869e-05,9.99999e-01,7.17983e-05,9.97092e-01,9.53865e-01
1.441245163e+00,3.93044e-04,9.99999e-01,4.14858e-04,9.97150e-01,9.50125e-01
1.448451389e+00,4.46000e-03,9.99998e-01,4.67740e-03,9.97206e-01,9.56192e-01
1.455693646e+00,2.44063e-02,9.99999e-01,2.53414e-02,9.97261e-01,9.65744e-01
1.462972114e+00,3.57949e-02,9.99999e-01,3.71044e-02,9.97315e-01,9.67303e-01
1.470286975e+00,2.14227e-02,9.99999e-01,2.21927e-02,9.97368e-01,9.67851e-01
