#,Wave/freq,Total,N2,H2O,Rayleigh,CIA
4.000000000e-01,7.56578e-01,9.99999e-01,9.99968e-01,7.56602e-01,9.99999e-01
4.020000000e-01,7.60771e-01,9.99999e-01,9.99980e-01,7.60786e-01,9.99999e-01
4.040100000e-01,7.64899e-01,9.99999e-01,9.99991e-01,7.64905e-01,9.99999e-01
4.060300500e-01,7.68964e-01,9.99999e-01,9.99997e-01,7.68965e-01,9.99999e-01
4.080602003e-01,7.72966e-01,9.99999e-01,9.99998e-01,7.72966e-01,9.99999e-01
4.101005013e-01,7.76908e-01,9.99999e-01,9.99999e-01,7.76908e-01,9.99999e-01
4.121510038e-01,7.80790e-01,9.99999e-01,9.99998e-01,7.80791e-01,9.99999e-01
4.142117588e-01,7.84610e-01,9.99999e-01,9.99990e-01,7.84617e-01,9.99999e-01
4.162828176e-01,7.88355e-01,9.99999e-01,9.99960e-01,7.88385e-01,9.99999e-01
4.183642317e-01,7.92078e-01,9.99999e-01,9.99976e-01,7.92097e-01,9.99999e-01
4.204560528e-01,7.95740e-01,9.99999e-01,9.99985e-01,7.95752e-01,9.99999e-01
4.225583331e-01,7.99347e-01,9.99999e-01,9.99994e-01,7.99351e-01,9.99999e-01
4.246711247e-01,8.02891e-01,9.99999e-01,9.99995e-01,8.02895e-01,9.99999e-01
4.267944804e-01,8.06379e-01,9.99999e-01,9.99993e-01,8.06384e-01,9.99999e-01
4.289284528e-01,8.09815e-01,9.99999e-01,9.99994e-01,8.09819e-01,9.99999e-01
4.310730950e-01,8.13198e-01,9.99999e-01,9.99997e-01,8.13200e-01,9.99999e-01
4.332284605e-01,8.16528e-01,9.99999e-01,9.99998e-01,8.16528e-01,9.99999e-01
4.353946028e-01,8.19804e-01,9.99999e-01,9.99999e-01,8.19804e-01,9.99999e-01
4.375715758e-01,8.23024e-01,9.99999e-01,9.99995e-01,8.23028e-01,9.99999e-01
4.397594337e-01,8.26171e-01,9.99999e-01,9.99964e-01,8.26200e-01,9.99999e-01
4.419582309e-01,8.29175e-01,9.99999e-01,9.99822e-01,8.29321e-01,9.99999e-01
4.441680220e-01,8.32281e-01,9.99999e-01,9.99865e-01,8.32393e-01,9.99999e-01
4.463888621e-01,8.35297e-01,9.99999e-01,9.99858e-01,8.35415e-01,9.99999e-01
4.486208064e-01,8.38314e-01,9.99999e-01,9.99912e-01,8.38387e-01,9.99999e-01
4.508639105e-01,8.41277e-01,9.99999e-01,9.99958e-01,8.41311e-01,9.99999e-01
4.531182300e-01,8.44174e-01,9.99999e-01,9.99983e-01,8.44188e-01,9.99999e-01
4.553838212e-01,8.47008e-01,9.99999e-01,9.99988e-01,8.47017e-01,9.99999e-01
4.576607403e-01,8.49795e-01,9.99999e-01,9.99994e-01,8.49799e-01,9.99999e-01
4.599490440e-01,8.52533e-01,9.99999e-01,9.99995e-01,8.52536e-01,9.99999e-01
4.622487892e-01,8.55226e-01,9.99999e-01,9.99998e-01,8.55226e-01,9.99999e-01
4.645600332e-01,8.57870e-01,9.99999e-01,9.99996e-01,8.57872e-01,9.99999e-01
4.668828333e-01,8.60438e-01,9.99999e-01,9.99957e-01,8.60474e-01,9.99999e-01
4.692172475e-01,8.62956e-01,9.99999e-01,9.99911e-01,8.63032e-01,9.99999e-01
4.715633337e-01,8.65496e-01,9.99999e-01,9.99941e-01,8.65547e-01,9.99999e-01
4.739211504e-01,8.67971e-01,9.99999e-01,9.99944e-01,8.68019e-01,9.99999e-01
4.762907561e-01,8.70424e-01,9.99999e-01,9.99971e-01,8.70449e-01,9.99999e-01
4.786722099e-01,8.72828e-01,9.99999e-01,9.99987e-01,8.72838e-01,9.99999e-01
4.810655710e-01,8.75183e-01,9.99999e-01,9.99995e-01,8.75186e-01,9.99999e-01
4.834708988e-01,8.77463e-01,9.99999e-01,9.99964e-01,8.77493e-01,9.99999e-01
4.858882533e-01,8.79707e-01,9.99999e-01,9.99937e-01,8.79761e-01,9.99999e-01
4.883176946e-01,8.81944e-01,9.99999e-01,9.99946e-01,8.81990e-01,9.99999e-01
4.907592831e-01,8.84139e-01,9.99999e-01,9.99952e-01,8.84181e-01,9.99999e-01
4.932130795e-01,8.86303e-01,9.99999e-01,9.99965e-01,8.86333e-01,9.99999e-01
4.956791449e-01,8.88432e-01,9.99999e-01,9.99981e-01,8.88448e-01,9.99999e-01
4.981575406e-01,8.90447e-01,9.99999e-01,9.99910e-01,8.90526e-01,9.99999e-01
5.006483283e-01,8.92358e-01,9.99999e-01,9.99765e-01,8.92568e-01,9.99997e-01
5.031515699e-01,8.93514e-01,9.99999e-01,9.98826e-01,8.94574e-01,9.99987e-01
5.056673278e-01,8.95980e-01,9.99999e-01,9.99383e-01,8.96545e-01,9.99985e-01
5.081956644e-01,8.97775e-01,9.99999e-01,9.99222e-01,8.98481e-01,9.99990e-01
5.107366428e-01,8.99909e-01,9.99999e-01,9.99475e-01,9.00383e-01,9.99998e-01
5.132903260e-01,9.01981e-01,9.99999e-01,9.99700e-01,9.02251e-01,9.99999e-01
5.158567776e-01,9.03972e-01,9.99999e-01,9.99873e-01,9.04086e-01,9.99999e-01
5.184360615e-01,9.05842e-01,9.99999e-01,9.99949e-01,9.05888e-01,9.99999e-01
5.210282418e-01,9.07641e-01,9.99999e-01,9.99980e-01,9.07658e-01,9.99999e-01
5.236333830e-01,9.09327e-01,9.99999e-01,9.99923e-01,9.09397e-01,9.99998e-01
5.262515499e-01,9.11061e-01,9.99999e-01,9.99951e-01,9.11105e-01,9.99998e-01
5.288828077e-01,9.12741e-01,9.99999e-01,9.99955e-01,9.12782e-01,9.99999e-01
5.315272217e-01,9.14394e-01,9.99999e-01,9.99961e-01,9.14429e-01,9.99999e-01
5.341848578e-01,9.16023e-01,9.99999e-01,9.99974e-01,9.16046e-01,9.99999e-01
5.368557821e-01,9.17552e-01,9.99999e-01,9.99910e-01,9.17634e-01,9.99999e-01
5.395400610e-01,9.18891e-01,9.99999e-01,9.99674e-01,9.19193e-01,9.99996e-01
5.422377613e-01,9.20337e-01,9.99999e-01,9.99586e-01,9.20724e-01,9.99991e-01
5.449489501e-01,9.21863e-01,9.99999e-01,9.99612e-01,9.22227e-01,9.99991e-01
5.476736949e-01,9.23387e-01,9.99999e-01,9.99660e-01,9.23703e-01,9.99995e-01
5.504120634e-01,9.24924e-01,9.99999e-01,9.99753e-01,9.25153e-01,9.99998e-01
5.531641237e-01,9.26460e-01,9.99999e-01,9.99875e-01,9.26575e-01,9.99999e-01
5.559299443e-01,9.27917e-01,9.99999e-01,9.99939e-01,9.27972e-01,9.99999e-01
5.587095940e-01,9.29308e-01,9.99999e-01,9.99961e-01,9.29343e-01,9.99999e-01
5.615031420e-01,9.30650e-01,9.99999e-01,9.99957e-01,9.30689e-01,9.99999e-01
5.643106577e-01,9.31965e-01,9.99999e-01,9.99951e-01,9.32011e-01,9.99999e-01
5.671322110e-01,9.32751e-01,9.99999e-01,9.99408e-01,9.33308e-01,9.99994e-01
5.699678720e-01,9.33998e-01,9.99999e-01,9.99390e-01,9.34581e-01,9.99983e-01
5.728177114e-01,9.35218e-01,9.99999e-01,9.99357e-01,9.35831e-01,9.99986e-01
5.756818000e-01,9.36500e-01,9.99999e-01,9.99411e-01,9.37058e-01,9.99991e-01
5.785602090e-01,9.37780e-01,9.99999e-01,9.99488e-01,9.38262e-01,9.99997e-01
5.814530100e-01,9.38959e-01,9.99999e-01,9.99484e-01,9.39443e-01,9.99998e-01
5.843602750e-01,9.40018e-01,9.99999e-01,9.99380e-01,9.40603e-01,9.99996e-01
5.872820764e-01,9.36692e-01,9.99999e-01,9.94674e-01,9.41742e-01,9.99962e-01
5.902184868e-01,9.36747e-01,9.99999e-01,9.93618e-01,9.42859e-01,9.99898e-01
5.931695792e-01,9.39590e-01,9.99999e-01,9.95472e-01,9.43955e-01,9.99902e-01
5.961354271e-01,9.40302e-01,9.99999e-01,9.95050e-01,9.45031e-01,9.99943e-01
5.991161043e-01,9.42659e-01,9.99999e-01,9.96393e-01,9.46087e-01,9.99982e-01
6.021116848e-01,9.45186e-01,9.99999e-01,9.97955e-01,9.47123e-01,9.99997e-01
6.051222432e-01,9.47160e-01,9.99999e-01,9.98965e-01,9.48140e-01,9.99999e-01
6.081478544e-01,9.48714e-01,9.99999e-01,9.99552e-01,9.49138e-01,9.99999e-01
6.111885937e-01,9.49938e-01,9.99999e-01,9.99811e-01,9.50117e-01,9.99999e-01
6.142445367e-01,9.50998e-01,9.99999e-01,9.99915e-01,9.51078e-01,9.99999e-01
6.173157594e-01,9.51977e-01,9.99999e-01,9.99952e-01,9.52021e-01,9.99999e-01
6.204023382e-01,9.52908e-01,9.99999e-01,9.99959e-01,9.52946e-01,9.99999e-01
6.235043498e-01,9.53684e-01,9.99999e-01,9.99821e-01,9.53853e-01,9.99999e-01
6.266218716e-01,9.53857e-01,9.99999e-01,9.99077e-01,9.54744e-01,9.99993e-01
6.297549810e-01,9.55282e-01,9.99999e-01,9.99661e-01,9.55618e-01,9.99986e-01
6.329037559e-01,9.55828e-01,9.99999e-01,9.99333e-01,9.56475e-01,9.99989e-01
6.360682746e-01,9.56764e-01,9.99999e-01,9.99428e-01,9.57316e-01,9.99993e-01
6.392486160e-01,9.57432e-01,9.99999e-01,9.99262e-01,9.58141e-01,9.99996e-01
6.424448591e-01,9.57991e-01,9.99999e-01,9.99002e-01,9.58951e-01,9.99994e-01
6.456570834e-01,9.55283e-01,9.99999e-01,9.95378e-01,9.59745e-01,9.99971e-01
6.488853688e-01,9.57248e-01,9.99999e-01,9.96658e-01,9.60524e-01,9.99928e-01
6.521297956e-01,9.57960e-01,9.99999e-01,9.96595e-01,9.61289e-01,9.99940e-01
6.553904446e-01,9.58718e-01,9.99999e-01,9.96591e-01,9.62039e-01,9.99955e-01
6.586673968e-01,9.59965e-01,9.99999e-01,9.97095e-01,9.62774e-01,9.99984e-01
6.619607338e-01,9.61934e-01,9.99999e-01,9.98381e-01,9.63496e-01,9.99996e-01
6.652705375e-01,9.63266e-01,9.99999e-01,9.99028e-01,9.64204e-01,9.99997e-01
6.685968902e-01,9.64501e-01,9.99999e-01,9.99587e-01,9.64899e-01,9.99999e-01
6.719398746e-01,9.65378e-01,9.99999e-01,9.99790e-01,9.65580e-01,9.99999e-01
6.752995740e-01,9.66141e-01,9.99999e-01,9.99889e-01,9.66248e-01,9.99999e-01
6.786760719e-01,9.66743e-01,9.99999e-01,9.99834e-01,9.66904e-01,9.99999e-01
6.820694522e-01,9.67270e-01,9.99999e-01,9.99715e-01,9.67547e-01,9.99998e-01
6.854797995e-01,9.67822e-01,9.99999e-01,9.99636e-01,9.68177e-01,9.99996e-01
6.889071985e-01,9.67921e-01,9.99999e-01,9.99104e-01,9.68796e-01,9.99991e-01
6.923517345e-01,9.55402e-01,9.99999e-01,9.85624e-01,9.69403e-01,9.99930e-01
6.958134932e-01,9.62757e-01,9.99999e-01,9.92685e-01,9.69998e-01,9.99847e-01
6.992925606e-01,9.63537e-01,9.99999e-01,9.92877e-01,9.70582e-01,9.99862e-01
7.027890234e-01,9.62601e-01,9.99999e-01,9.91295e-01,9.71154e-01,9.99894e-01
7.063029686e-01,9.64543e-01,9.99999e-01,9.92669e-01,9.71716e-01,9.99947e-01
7.098344834e-01,9.65398e-01,9.99999e-01,9.92965e-01,9.72267e-01,9.99968e-01
7.133836558e-01,9.63505e-01,9.99999e-01,9.90497e-01,9.72807e-01,9.99938e-01
7.169505741e-01,9.01516e-01,9.99999e-01,9.26657e-01,9.73337e-01,9.99517e-01
7.205353270e-01,9.38179e-01,9.99999e-01,9.64183e-01,9.73857e-01,9.99149e-01
7.241380036e-01,9.28725e-01,9.99999e-01,9.53857e-01,9.74366e-01,9.99265e-01
7.277586936e-01,9.33674e-01,9.99999e-01,9.58320e-01,9.74866e-01,9.99399e-01
7.313974871e-01,9.32228e-01,9.99999e-01,9.56050e-01,9.75356e-01,9.99718e-01
7.350544745e-01,9.52032e-01,9.99999e-01,9.75700e-01,9.75837e-01,9.99901e-01
7.387297469e-01,9.58767e-01,9.99999e-01,9.82076e-01,9.76309e-01,9.99954e-01
7.424233956e-01,9.68184e-01,9.99999e-01,9.91215e-01,9.76771e-01,9.99991e-01
7.461355126e-01,9.72004e-01,9.99999e-01,9.94658e-01,9.77225e-01,9.99998e-01
7.498661902e-01,9.75244e-01,9.99999e-01,9.97518e-01,9.77670e-01,9.99998e-01
7.536155211e-01,9.76911e-01,9.99999e-01,9.98777e-01,9.78106e-01,9.99999e-01
7.573835987e-01,9.77919e-01,9.99999e-01,9.99371e-01,9.78534e-01,9.99999e-01
7.611705167e-01,9.78571e-01,9.99999e-01,9.99608e-01,9.78953e-01,9.99999e-01
7.649763693e-01,9.79124e-01,9.99999e-01,9.99754e-01,9.79364e-01,9.99999e-01
7.688012511e-01,9.79600e-01,9.99999e-01,9.99828e-01,9.79768e-01,9.99999e-01
7.726452574e-01,9.80025e-01,9.99999e-01,9.99858e-01,9.80164e-01,9.99999e-01
7.765084837e-01,9.80353e-01,9.99999e-01,9.99797e-01,9.80552e-01,9.99999e-01
7.803910261e-01,9.80073e-01,9.99999e-01,9.99124e-01,9.80932e-01,9.99998e-01
7.842929812e-01,9.78305e-01,9.99999e-01,9.96947e-01,9.81305e-01,9.99993e-01
7.882144461e-01,9.75526e-01,9.99999e-01,9.93782e-01,9.81671e-01,9.99956e-01
7.921555184e-01,9.78626e-01,9.99999e-01,9.96607e-01,9.82030e-01,9.99925e-01
7.961162960e-01,9.76349e-01,9.99999e-01,9.93928e-01,9.82381e-01,9.99928e-01
8.000968774e-01,9.75812e-01,9.99999e-01,9.93038e-01,9.82726e-01,9.99924e-01
8.040973618e-01,9.76152e-01,9.99999e-01,9.93024e-01,9.83065e-01,9.99942e-01
8.081178486e-01,9.67832e-01,9.99999e-01,9.84229e-01,9.83396e-01,9.99941e-01
8.121584379e-01,9.20596e-01,9.99999e-01,9.36035e-01,9.83722e-01,9.99779e-01
8.162192301e-01,9.09883e-01,9.99999e-01,9.25404e-01,9.84041e-01,9.99172e-01
8.203003262e-01,9.45515e-01,9.99999e-01,9.61474e-01,9.84353e-01,9.99031e-01
8.244018279e-01,9.32913e-01,9.99999e-01,9.48176e-01,9.84660e-01,9.99229e-01
8.285238370e-01,9.39510e-01,9.99999e-01,9.54432e-01,9.84961e-01,9.99394e-01
8.326664562e-01,9.39877e-01,9.99999e-01,9.54180e-01,9.85256e-01,9.99749e-01
8.368297885e-01,9.53074e-01,9.99999e-01,9.67107e-01,9.85545e-01,9.99942e-01
8.410139374e-01,9.66412e-01,9.99999e-01,9.80337e-01,9.85828e-01,9.99966e-01
8.452190071e-01,9.76548e-01,9.99999e-01,9.90326e-01,9.86106e-01,9.99979e-01
8.494451021e-01,9.80793e-01,9.99999e-01,9.94352e-01,9.86379e-01,9.99983e-01
8.536923276e-01,9.83351e-01,9.99999e-01,9.96670e-01,9.86646e-01,9.99989e-01
8.579607893e-01,9.84874e-01,9.99999e-01,9.97941e-01,9.86908e-01,9.99997e-01
8.622505932e-01,9.85877e-01,9.99999e-01,9.98695e-01,9.87165e-01,9.99999e-01
8.665618462e-01,9.86616e-01,9.99999e-01,9.99189e-01,9.87417e-01,9.99999e-01
8.708946554e-01,9.86745e-01,9.99999e-01,9.99069e-01,9.87664e-01,9.99998e-01
8.752491287e-01,9.86677e-01,9.99999e-01,9.98756e-01,9.87906e-01,9.99998e-01
8.796253743e-01,9.86432e-01,9.99999e-01,9.98271e-01,9.88143e-01,9.99995e-01
8.840235012e-01,9.86416e-01,9.99999e-01,9.98028e-01,9.88376e-01,9.99987e-01
8.884436187e-01,9.81324e-01,9.99999e-01,9.92669e-01,9.88604e-01,9.99965e-01
8.928858368e-01,9.16032e-01,9.99999e-01,9.26562e-01,9.88828e-01,9.99803e-01
8.973502660e-01,8.64707e-01,9.99999e-01,8.75162e-01,9.89048e-01,9.98994e-01
9.018370173e-01,9.23314e-01,9.99999e-01,9.34812e-01,9.89263e-01,9.98419e-01
9.063462024e-01,9.30062e-01,9.99999e-01,9.41262e-01,9.89474e-01,9.98611e-01
9.108779334e-01,8.99756e-01,9.99999e-01,9.10450e-01,9.89681e-01,9.98556e-01
9.154323231e-01,8.88917e-01,9.99999e-01,8.99073e-01,9.89883e-01,9.98806e-01
9.200094847e-01,9.10598e-01,9.99999e-01,9.20333e-01,9.90082e-01,9.99331e-01
9.246095321e-01,8.67279e-01,9.99999e-01,8.76468e-01,9.90277e-01,9.99230e-01
9.292325798e-01,4.19468e-01,9.99999e-01,4.25081e-01,9.90468e-01,9.96290e-01
9.338787427e-01,3.29325e-01,9.99999e-01,3.36927e-01,9.90656e-01,9.86657e-01
9.385481364e-01,6.28920e-01,9.99999e-01,6.44170e-01,9.90839e-01,9.85350e-01
9.432408771e-01,5.31496e-01,9.99999e-01,5.43183e-01,9.91019e-01,9.87349e-01
9.479570815e-01,4.25642e-01,9.99999e-01,4.33894e-01,9.91196e-01,9.89691e-01
9.526968669e-01,5.24229e-01,9.99999e-01,5.32145e-01,9.91369e-01,9.93699e-01
9.574603512e-01,5.47444e-01,9.99999e-01,5.53890e-01,9.91539e-01,9.96794e-01
9.622476530e-01,6.11158e-01,9.99999e-01,6.17639e-01,9.91705e-01,9.97782e-01
9.670588912e-01,7.49231e-01,9.99999e-01,7.56472e-01,9.91868e-01,9.98546e-01
9.718941857e-01,8.31006e-01,9.99999e-01,8.38616e-01,9.92028e-01,9.98886e-01
9.767536566e-01,8.56484e-01,9.99999e-01,8.63966e-01,9.92185e-01,9.99145e-01
9.816374249e-01,8.90350e-01,9.99999e-01,8.97488e-01,9.92339e-01,9.99704e-01
9.865456120e-01,9.27566e-01,9.99999e-01,9.34641e-01,9.92490e-01,9.99937e-01
9.914783401e-01,9.51965e-01,9.99999e-01,9.59041e-01,9.92637e-01,9.99982e-01
9.964357318e-01,9.70426e-01,9.99999e-01,9.77490e-01,9.92782e-01,9.99989e-01
1.001417910e+00,9.79463e-01,9.99999e-01,9.86457e-01,9.92924e-01,9.99984e-01
1.006425000e+00,9.85334e-01,9.99999e-01,9.92237e-01,9.93064e-01,9.99977e-01
1.011457125e+00,9.88404e-01,9.99999e-01,9.95190e-01,9.93200e-01,9.99979e-01
1.016514411e+00,9.90069e-01,9.99999e-01,9.96727e-01,9.93334e-01,9.99985e-01
1.021596983e+00,9.90858e-01,9.99999e-01,9.97389e-01,9.93465e-01,9.99985e-01
1.026704968e+00,9.91561e-01,9.99999e-01,9.97962e-01,9.93594e-01,9.99990e-01
1.031838492e+00,9.92249e-01,9.99999e-01,9.98522e-01,9.93720e-01,9.99996e-01
1.036997685e+00,9.92969e-01,9.99999e-01,9.99119e-01,9.93844e-01,9.99999e-01
1.042182673e+00,9.92917e-01,9.99999e-01,9.98945e-01,9.93965e-01,9.99999e-01
1.047393587e+00,9.92698e-01,9.99999e-01,9.98605e-01,9.94084e-01,9.99999e-01
1.052630555e+00,9.92295e-01,9.99999e-01,9.98083e-01,9.94200e-01,9.99998e-01
1.057893707e+00,9.91129e-01,9.99999e-01,9.96796e-01,9.94314e-01,9.99998e-01
1.063183176e+00,9.89193e-01,9.99999e-01,9.94739e-01,9.94426e-01,9.99996e-01
1.068499092e+00,9.85800e-01,9.99999e-01,9.91221e-01,9.94536e-01,9.99993e-01
1.073841587e+00,9.84397e-01,9.99999e-01,9.89710e-01,9.94644e-01,9.99986e-01
1.079210795e+00,9.81667e-01,9.99999e-01,9.86882e-01,9.94749e-01,9.99964e-01
1.084606849e+00,9.75041e-01,9.99999e-01,9.80168e-01,9.94853e-01,9.99914e-01
1.090029883e+00,9.66358e-01,9.99999e-01,9.71428e-01,9.94954e-01,9.99824e-01
1.095480033e+00,9.19400e-01,9.99999e-01,9.24262e-01,9.95053e-01,9.99682e-01
1.100957433e+00,8.14655e-01,9.99999e-01,8.19101e-01,9.95151e-01,9.99416e-01
1.106462220e+00,6.01524e-01,9.99999e-01,6.04995e-01,9.95246e-01,9.99010e-01
1.111994531e+00,3.50872e-01,9.99999e-01,3.53442e-01,9.95340e-01,9.97375e-01
1.117554504e+00,1.87130e-01,9.99999e-01,1.89780e-01,9.95432e-01,9.90557e-01
1.123142276e+00,2.98755e-01,9.99999e-01,3.06926e-01,9.95522e-01,9.77753e-01
1.128757988e+00,4.43494e-01,9.99999e-01,4.57194e-01,9.95610e-01,9.74310e-01
1.134401778e+00,2.25570e-01,9.99999e-01,2.31614e-01,9.95697e-01,9.78113e-01
1.140073787e+00,6.07611e-01,9.99999e-01,6.21069e-01,9.95781e-01,9.82473e-01
1.145774156e+00,3.71985e-01,9.99999e-01,3.79624e-01,9.95865e-01,9.83945e-01
1.151503026e+00,3.37547e-01,9.99999e-01,3.41990e-01,9.95946e-01,9.91024e-01
1.157260541e+00,3.96150e-01,9.99999e-01,3.98804e-01,9.96026e-01,9.97307e-01
1.163046844e+00,5.03941e-01,9.99999e-01,5.06298e-01,9.96104e-01,9.99235e-01
1.168862078e+00,6.17823e-01,9.99999e-01,6.20438e-01,9.96181e-01,9.99601e-01
1.174706389e+00,7.41410e-01,9.99999e-01,7.44603e-01,9.96256e-01,9.99451e-01
1.180579921e+00,8.31730e-01,9.99999e-01,8.35451e-01,9.96330e-01,9.99210e-01
1.186482820e+00,8.99170e-01,9.99999e-01,9.03146e-01,9.96403e-01,9.99190e-01
1.192415234e+00,9.38298e-01,9.99999e-01,9.42189e-01,9.96473e-01,9.99393e-01
1.198377311e+00,9.47124e-01,9.99999e-01,9.50956e-01,9.96543e-01,9.99424e-01
1.204369197e+00,9.49902e-01,9.99999e-01,9.53609e-01,9.96611e-01,9.99498e-01
1.210391043e+00,9.52110e-01,9.99999e-01,9.55584e-01,9.96678e-01,9.99684e-01
1.216442998e+00,9.58866e-01,9.99999e-01,9.62183e-01,9.96743e-01,9.99806e-01
1.222525213e+00,9.67183e-01,9.99999e-01,9.70396e-01,9.96808e-01,9.99879e-01
1.228637839e+00,9.76215e-01,9.99999e-01,9.79334e-01,9.96871e-01,9.99943e-01
1.234781029e+00,9.81601e-01,9.99999e-01,9.84637e-01,9.96932e-01,9.99983e-01
1.240954934e+00,9.87267e-01,9.99999e-01,9.90248e-01,9.96993e-01,9.99995e-01
1.247159708e+00,9.89479e-01,9.99999e-01,9.92406e-01,9.97052e-01,9.99996e-01
1.253395507e+00,9.90371e-01,9.99999e-01,9.93244e-01,9.97110e-01,9.99995e-01
1.259662485e+00,9.90745e-01,9.99999e-01,9.93565e-01,9.97167e-01,9.99993e-01
1.265960797e+00,9.87005e-01,9.99999e-01,9.89762e-01,9.97223e-01,9.99989e-01
1.272290601e+00,9.81204e-01,9.99999e-01,9.83899e-01,9.97278e-01,9.99981e-01
1.278652054e+00,9.65653e-01,9.99999e-01,9.68266e-01,9.97331e-01,9.99968e-01
1.285045314e+00,9.40619e-01,9.99999e-01,9.43140e-01,9.97384e-01,9.99941e-01
1.291470541e+00,9.00638e-01,9.99999e-01,9.03045e-01,9.97436e-01,9.99897e-01
1.297927893e+00,8.62758e-01,9.99999e-01,8.65097e-01,9.97486e-01,9.99809e-01
1.304417533e+00,8.41105e-01,9.99999e-01,8.43522e-01,9.97536e-01,9.99596e-01
1.310939621e+00,8.03814e-01,9.99999e-01,8.06427e-01,9.97584e-01,9.99171e-01
1.317494319e+00,8.06762e-01,9.99999e-01,8.09915e-01,9.97632e-01,9.98469e-01
1.324081790e+00,7.29449e-01,9.99999e-01,7.32977e-01,9.97679e-01,9.97501e-01
1.330702199e+00,3.15845e-01,9.99999e-01,3.17933e-01,9.97724e-01,9.95696e-01
1.337355710e+00,3.77556e-02,9.99999e-01,3.81555e-02,9.97769e-01,9.91729e-01
1.344042489e+00,4.03192e-04,9.99999e-01,4.14310e-04,9.97813e-01,9.75296e-01
1.350762701e+00,3.21956e-07,9.99999e-01,3.51497e-07,9.97856e-01,9.17923e-01
1.357516515e+00,3.26895e-10,9.99999e-01,4.21188e-10,9.97899e-01,7.77759e-01
1.364304097e+00,8.90338e-07,9.99999e-01,1.38596e-06,9.97940e-01,6.43721e-01
1.371125618e+00,9.29408e-05,9.99999e-01,1.41073e-04,9.97981e-01,6.60146e-01
1.377981246e+00,2.88376e-04,9.99999e-01,4.12499e-04,9.98021e-01,7.00481e-01
1.384871152e+00,3.52268e-06,9.99999e-01,4.91789e-06,9.98060e-01,7.17691e-01
1.391795508e+00,1.20059e-06,9.99999e-01,1.65023e-06,9.98098e-01,7.28915e-01
1.398754485e+00,1.67482e-05,9.99999e-01,2.17878e-05,9.98135e-01,7.70133e-01
1.405748258e+00,1.66547e-05,9.99999e-01,1.94377e-05,9.98172e-01,8.58394e-01
1.412776999e+00,1.81312e-05,9.99999e-01,1.94752e-05,9.98208e-01,9.32659e-01
1.419840884e+00,3.77641e-05,9.99999e-01,3.90047e-05,9.98244e-01,9.69894e-01
1.426940089e+00,4.18922e-04,9.99999e-01,4.29504e-04,9.98278e-01,9.77044e-01
1.434074789e+00,2.35431e-03,9.99999e-01,2.42380e-03,9.98312e-01,9.72967e-01
1.441245163e+00,7.74297e-03,9.99999e-01,7.98945e-03,9.98346e-01,9.70753e-01
1.448451389e+00,3.34284e-02,9.99999e-01,3.43643e-02,9.98378e-01,9.74344e-01
1.455693646e+00,9.99486e-02,9.99999e-01,1.02153e-01,9.98410e-01,9.79979e-01
1.462972114e+00,1.31416e-01,9.99999e-01,1.34184e-01,9.98442e-01,9.80897e-01
1.470286975e+00,9.55269e-02,9.99999e-01,9.75040e-02,9.98472e-01,9.81219e-01
