#,Wave/freq,Total,N2,H2O,Rayleigh,CIA
4.000000000e-01,3.10901e-02,9.99999e-01,9.99608e-01,3.11023e-02,9.99999e-01
4.020000000e-01,3.33034e-02,9.99999e-01,9.99757e-01,3.33115e-02,9.99999e-01
4.040100000e-01,3.56231e-02,9.99999e-01,9.99897e-01,3.56267e-02,9.99999e-01
4.060300500e-01,3.80515e-02,9.99999e-01,9.99976e-01,3.80524e-02,9.99999e-01
4.080602003e-01,4.05901e-02,9.99999e-01,9.99991e-01,4.05904e-02,9.99999e-01
4.101005013e-01,4.32424e-02,9.99999e-01,9.99998e-01,4.32424e-02,9.99999e-01
4.121510038e-01,4.60095e-02,9.99999e-01,9.99985e-01,4.60102e-02,9.99999e-01
4.142117588e-01,4.88899e-02,9.99999e-01,9.99890e-01,4.88952e-02,9.99999e-01
4.162828176e-01,5.18736e-02,9.99999e-01,9.99515e-01,5.18987e-02,9.99999e-01
4.183642317e-01,5.50060e-02,9.99999e-01,9.99711e-01,5.50219e-02,9.99999e-01
4.204560528e-01,5.82554e-02,9.99999e-01,9.99823e-01,5.82657e-02,9.99999e-01
4.225583331e-01,6.16269e-02,9.99999e-01,9.99934e-01,6.16310e-02,9.99999e-01
4.246711247e-01,6.51149e-02,9.99999e-01,9.99946e-01,6.51183e-02,9.99999e-01
4.267944804e-01,6.87230e-02,9.99999e-01,9.99922e-01,6.87283e-02,9.99999e-01
4.289284528e-01,7.24568e-02,9.99999e-01,9.99939e-01,7.24611e-02,9.99999e-01
4.310730950e-01,7.63150e-02,9.99999e-01,9.99974e-01,7.63169e-02,9.99999e-01
4.332284605e-01,8.02951e-02,9.99999e-01,9.99993e-01,8.02956e-02,9.99999e-01
4.353946028e-01,8.43967e-02,9.99999e-01,9.99996e-01,8.43970e-02,9.99999e-01
4.375715758e-01,8.86163e-02,9.99999e-01,9.99950e-01,8.86206e-02,9.99999e-01
4.397594337e-01,9.29259e-02,9.99999e-01,9.99570e-01,9.29658e-02,9.99999e-01
4.419582309e-01,9.72192e-02,9.99999e-01,9.97815e-01,9.74320e-02,9.99999e-01
4.441680220e-01,1.01847e-01,9.99999e-01,9.98321e-01,1.02018e-01,9.99999e-01
4.463888621e-01,1.06536e-01,9.99999e-01,9.98244e-01,1.06723e-01,9.99999e-01
4.486208064e-01,1.11425e-01,9.99999e-01,9.98914e-01,1.11546e-01,9.99999e-01
4.508639105e-01,1.16425e-01,9.99999e-01,9.99491e-01,1.16484e-01,9.99999e-01
4.531182300e-01,1.21513e-01,9.99999e-01,9.99799e-01,1.21538e-01,9.99999e-01
4.553838212e-01,1.26687e-01,9.99999e-01,9.99862e-01,1.26704e-01,9.99999e-01
4.576607403e-01,1.31973e-01,9.99999e-01,9.99936e-01,1.31981e-01,9.99999e-01
4.599490440e-01,1.37362e-01,9.99999e-01,9.99955e-01,1.37368e-01,9.99999e-01
4.622487892e-01,1.42860e-01,9.99999e-01,9.99991e-01,1.42861e-01,9.99999e-01
4.645600332e-01,1.48454e-01,9.99999e-01,9.99968e-01,1.48459e-01,9.99999e-01
4.668828333e-01,1.54079e-01,9.99999e-01,9.99481e-01,1.54159e-01,9.99999e-01
4.692172475e-01,1.59783e-01,9.99999e-01,9.98899e-01,1.59959e-01,9.99999e-01
4.715633337e-01,1.65737e-01,9.99999e-01,9.99279e-01,1.65856e-01,9.99999e-01
4.739211504e-01,1.71730e-01,9.99999e-01,9.99312e-01,1.71848e-01,9.99999e-01
4.762907561e-01,1.77868e-01,9.99999e-01,9.99644e-01,1.77931e-01,9.99999e-01
4.786722099e-01,1.84076e-01,9.99999e-01,9.99854e-01,1.84103e-01,9.99999e-01
4.810655710e-01,1.90353e-01,9.99999e-01,9.99955e-01,1.90361e-01,9.99999e-01
4.834708988e-01,1.96617e-01,9.99999e-01,9.99570e-01,1.96702e-01,9.99999e-01
4.858882533e-01,2.02964e-01,9.99999e-01,9.99221e-01,2.03122e-01,9.99999e-01
4.883176946e-01,2.09482e-01,9.99999e-01,9.99345e-01,2.09619e-01,9.99999e-01
4.907592831e-01,2.16062e-01,9.99999e-01,9.99411e-01,2.16189e-01,9.99999e-01
4.932130795e-01,2.22736e-01,9.99999e-01,9.99581e-01,2.22829e-01,9.99999e-01
4.956791449e-01,2.29486e-01,9.99999e-01,9.99778e-01,2.29536e-01,9.99999e-01
4.981575406e-01,2.36045e-01,9.99999e-01,9.98890e-01,2.36307e-01,9.99999e-01
5.006483283e-01,2.42431e-01,9.99999e-01,9.97112e-01,2.43137e-01,9.99980e-01
5.031515699e-01,2.46377e-01,9.99999e-01,9.85560e-01,2.50025e-01,9.99847e-01
5.056673278e-01,2.54957e-01,9.99999e-01,9.92359e-01,2.56965e-01,9.99825e-01
5.081956644e-01,2.61386e-01,9.99999e-01,9.90370e-01,2.63955e-01,9.99893e-01
5.107366428e-01,2.69225e-01,9.99999e-01,9.93496e-01,2.70992e-01,9.99981e-01
5.132903260e-01,2.77038e-01,9.99999e-01,9.96283e-01,2.78072e-01,9.99997e-01
5.158567776e-01,2.84744e-01,9.99999e-01,9.98431e-01,2.85191e-01,9.99999e-01
5.184360615e-01,2.92163e-01,9.99999e-01,9.99371e-01,2.92347e-01,9.99999e-01
5.210282418e-01,2.99465e-01,9.99999e-01,9.99763e-01,2.99536e-01,9.99999e-01
5.236333830e-01,3.06461e-01,9.99999e-01,9.99051e-01,3.06754e-01,9.99992e-01
5.262515499e-01,3.13809e-01,9.99999e-01,9.99406e-01,3.13998e-01,9.99990e-01
5.288828077e-01,3.21088e-01,9.99999e-01,9.99453e-01,3.21265e-01,9.99993e-01
5.315272217e-01,3.28396e-01,9.99999e-01,9.99523e-01,3.28552e-01,9.99998e-01
5.341848578e-01,3.35750e-01,9.99999e-01,9.99685e-01,3.35856e-01,9.99999e-01
5.368557821e-01,3.42792e-01,9.99999e-01,9.98891e-01,3.43173e-01,9.99997e-01
5.395400610e-01,3.49081e-01,9.99999e-01,9.95988e-01,3.50499e-01,9.99961e-01
5.422377613e-01,3.55965e-01,9.99999e-01,9.94871e-01,3.57833e-01,9.99905e-01
5.449489501e-01,3.63385e-01,9.99999e-01,9.95202e-01,3.65171e-01,9.99903e-01
5.476736949e-01,3.70921e-01,9.99999e-01,9.95779e-01,3.72511e-01,9.99952e-01
5.504120634e-01,3.78679e-01,9.99999e-01,9.96934e-01,3.79848e-01,9.99986e-01
5.531641237e-01,3.86583e-01,9.99999e-01,9.98457e-01,3.87180e-01,9.99997e-01
5.559299443e-01,3.94212e-01,9.99999e-01,9.99256e-01,3.94506e-01,9.99999e-01
5.587095940e-01,4.01632e-01,9.99999e-01,9.99531e-01,4.01820e-01,9.99999e-01
5.615031420e-01,4.08909e-01,9.99999e-01,9.99478e-01,4.09123e-01,9.99998e-01
5.643106577e-01,4.16158e-01,9.99999e-01,9.99402e-01,4.16409e-01,9.99994e-01
5.671322110e-01,4.20581e-01,9.99999e-01,9.92753e-01,4.23678e-01,9.99935e-01
5.699678720e-01,4.27584e-01,9.99999e-01,9.92438e-01,4.30926e-01,9.99804e-01
5.728177114e-01,4.34596e-01,9.99999e-01,9.92046e-01,4.38151e-01,9.99837e-01
5.756818000e-01,4.42064e-01,9.99999e-01,9.92711e-01,4.45351e-01,9.99905e-01
5.785602090e-01,4.49642e-01,9.99999e-01,9.93658e-01,4.52524e-01,9.99972e-01
5.814530100e-01,4.56728e-01,9.99999e-01,9.93619e-01,4.59667e-01,9.99985e-01
5.843602750e-01,4.63195e-01,9.99999e-01,9.92362e-01,4.66779e-01,9.99957e-01
5.872820764e-01,4.43711e-01,9.99999e-01,9.36813e-01,4.73857e-01,9.99538e-01
5.902184868e-01,4.43634e-01,9.99999e-01,9.23667e-01,4.80899e-01,9.98744e-01
5.931695792e-01,4.60848e-01,9.99999e-01,9.45687e-01,4.87904e-01,9.98792e-01
5.961354271e-01,4.65075e-01,9.99999e-01,9.40446e-01,4.94869e-01,9.99305e-01
5.991161043e-01,4.79676e-01,9.99999e-01,9.56128e-01,5.01793e-01,9.99784e-01
6.021116848e-01,4.95888e-01,9.99999e-01,9.74885e-01,5.08675e-01,9.99975e-01
6.051222432e-01,5.08921e-01,9.99999e-01,9.87215e-01,5.15512e-01,9.99998e-01
6.081478544e-01,5.19411e-01,9.99999e-01,9.94462e-01,5.22303e-01,9.99999e-01
6.111885937e-01,5.27809e-01,9.99999e-01,9.97659e-01,5.29047e-01,9.99999e-01
6.142445367e-01,5.35182e-01,9.99999e-01,9.98952e-01,5.35743e-01,9.99999e-01
6.173157594e-01,5.42074e-01,9.99999e-01,9.99421e-01,5.42388e-01,9.99999e-01
6.204023382e-01,5.48712e-01,9.99999e-01,9.99508e-01,5.48982e-01,9.99998e-01
6.235043498e-01,5.54306e-01,9.99999e-01,9.97812e-01,5.55523e-01,9.99994e-01
6.266218716e-01,5.55562e-01,9.99999e-01,9.88602e-01,5.62011e-01,9.99919e-01
6.297549810e-01,5.65970e-01,9.99999e-01,9.95805e-01,5.68445e-01,9.99839e-01
6.329037559e-01,5.69999e-01,9.99999e-01,9.91736e-01,5.74822e-01,9.99871e-01
6.360682746e-01,5.76996e-01,9.99999e-01,9.92937e-01,5.81144e-01,9.99923e-01
6.392486160e-01,5.82025e-01,9.99999e-01,9.90869e-01,5.87408e-01,9.99965e-01
6.424448591e-01,5.86299e-01,9.99999e-01,9.87737e-01,5.93613e-01,9.99939e-01
6.456570834e-01,5.66314e-01,9.99999e-01,9.44559e-01,5.99760e-01,9.99655e-01
6.488853688e-01,5.80804e-01,9.99999e-01,9.59508e-01,6.05847e-01,9.99118e-01
6.521297956e-01,5.86279e-01,9.99999e-01,9.58865e-01,6.11874e-01,9.99272e-01
6.553904446e-01,5.91916e-01,9.99999e-01,9.58559e-01,6.17840e-01,9.99458e-01
6.586673968e-01,6.01566e-01,9.99999e-01,9.64618e-01,6.23744e-01,9.99818e-01
6.619607338e-01,6.17020e-01,9.99999e-01,9.80077e-01,6.29587e-01,9.99960e-01
6.652705375e-01,6.27723e-01,9.99999e-01,9.87988e-01,6.35367e-01,9.99979e-01
6.685968902e-01,6.37802e-01,9.99999e-01,9.94882e-01,6.41085e-01,9.99996e-01
6.719398746e-01,6.45062e-01,9.99999e-01,9.97406e-01,6.46739e-01,9.99999e-01
6.752995740e-01,6.51437e-01,9.99999e-01,9.98630e-01,6.52331e-01,9.99999e-01
6.786760719e-01,6.56507e-01,9.99999e-01,9.97948e-01,6.57859e-01,9.99996e-01
6.820694522e-01,6.60994e-01,9.99999e-01,9.96506e-01,6.63323e-01,9.99981e-01
6.854797995e-01,6.65683e-01,9.99999e-01,9.95491e-01,6.68723e-01,9.99960e-01
6.889071985e-01,6.66614e-01,9.99999e-01,9.89050e-01,6.74059e-01,9.99902e-01
6.923517345e-01,5.69246e-01,9.99999e-01,8.38664e-01,6.79331e-01,9.99148e-01
6.958134932e-01,6.24585e-01,9.99999e-01,9.14138e-01,6.84539e-01,9.98114e-01
6.992925606e-01,6.30680e-01,9.99999e-01,9.16003e-01,6.89683e-01,9.98300e-01
7.027890234e-01,6.22984e-01,9.99999e-01,8.97849e-01,6.94763e-01,9.98702e-01
7.063029686e-01,6.38438e-01,9.99999e-01,9.12930e-01,6.99779e-01,9.99353e-01
7.098344834e-01,6.45411e-01,9.99999e-01,9.16175e-01,7.04731e-01,9.99617e-01
7.133836558e-01,6.31477e-01,9.99999e-01,8.90557e-01,7.09619e-01,9.99240e-01
7.169505741e-01,3.07474e-01,9.99999e-01,4.32947e-01,7.14443e-01,9.94040e-01
7.205353270e-01,4.65840e-01,9.99999e-01,6.54581e-01,7.19204e-01,9.89509e-01
7.241380036e-01,4.14038e-01,9.99999e-01,5.77184e-01,7.23902e-01,9.90935e-01
7.277586936e-01,4.41243e-01,9.99999e-01,6.10181e-01,7.28537e-01,9.92583e-01
7.313974871e-01,4.27559e-01,9.99999e-01,5.85250e-01,7.33109e-01,9.96519e-01
7.350544745e-01,5.46935e-01,9.99999e-01,7.42386e-01,7.37618e-01,9.98789e-01
7.387297469e-01,5.94000e-01,9.99999e-01,8.00911e-01,7.42066e-01,9.99444e-01
7.424233956e-01,6.69148e-01,9.99999e-01,8.96524e-01,7.46451e-01,9.99903e-01
7.461355126e-01,7.02520e-01,9.99999e-01,9.35740e-01,7.50775e-01,9.99983e-01
7.498661902e-01,7.32065e-01,9.99999e-01,9.69580e-01,7.55038e-01,9.99992e-01
7.536155211e-01,7.47787e-01,9.99999e-01,9.84918e-01,7.59240e-01,9.99995e-01
7.573835987e-01,7.57436e-01,9.99999e-01,9.92210e-01,7.63382e-01,9.99998e-01
7.611705167e-01,7.63744e-01,9.99999e-01,9.95152e-01,7.67464e-01,9.99999e-01
7.649763693e-01,7.69140e-01,9.99999e-01,9.96957e-01,7.71487e-01,9.99999e-01
7.688012511e-01,7.73805e-01,9.99999e-01,9.97878e-01,7.75451e-01,9.99999e-01
7.726452574e-01,7.77993e-01,9.99999e-01,9.98252e-01,7.79356e-01,9.99998e-01
7.765084837e-01,7.81246e-01,9.99999e-01,9.97503e-01,7.83203e-01,9.99996e-01
7.803910261e-01,7.78519e-01,9.99999e-01,9.89243e-01,7.86992e-01,9.99989e-01
7.842929812e-01,7.61443e-01,9.99999e-01,9.63033e-01,7.90725e-01,9.99930e-01
7.882144461e-01,7.34976e-01,9.99999e-01,9.25685e-01,7.94400e-01,9.99470e-01
7.921555184e-01,7.64403e-01,9.99999e-01,9.58755e-01,7.98020e-01,9.99079e-01
7.961162960e-01,7.43100e-01,9.99999e-01,9.27850e-01,8.01585e-01,9.99124e-01
8.000968774e-01,7.37544e-01,9.99999e-01,9.16949e-01,8.05094e-01,9.99068e-01
8.040973618e-01,7.40930e-01,9.99999e-01,9.17021e-01,8.08549e-01,9.99289e-01
8.081178486e-01,6.69426e-01,9.99999e-01,8.25060e-01,8.11950e-01,9.99279e-01
8.121584379e-01,3.79738e-01,9.99999e-01,4.67038e-01,8.15298e-01,9.97275e-01
8.162192301e-01,3.34756e-01,9.99999e-01,4.13157e-01,8.18593e-01,9.89792e-01
8.203003262e-01,5.36188e-01,9.99999e-01,6.60311e-01,8.21836e-01,9.88058e-01
8.244018279e-01,4.77633e-01,9.99999e-01,5.84491e-01,8.25028e-01,9.90484e-01
8.285238370e-01,4.73910e-01,9.99999e-01,5.76551e-01,8.28168e-01,9.92519e-01
8.326664562e-01,4.78459e-01,9.99999e-01,5.77373e-01,8.31258e-01,9.96899e-01
8.368297885e-01,5.55914e-01,9.99999e-01,6.66797e-01,8.34298e-01,9.99290e-01
8.410139374e-01,6.56226e-01,9.99999e-01,7.84075e-01,8.37289e-01,9.99585e-01
8.452190071e-01,7.44871e-01,9.99999e-01,8.86726e-01,8.40231e-01,9.99751e-01
8.494451021e-01,7.85776e-01,9.99999e-01,9.32165e-01,8.43125e-01,9.99800e-01
8.536923276e-01,8.11531e-01,9.99999e-01,9.59404e-01,8.45972e-01,9.99878e-01
8.579607893e-01,8.27305e-01,9.99999e-01,9.74736e-01,8.48771e-01,9.99970e-01
8.622505932e-01,8.37813e-01,9.99999e-01,9.83901e-01,8.51525e-01,9.99994e-01
8.665618462e-01,8.45677e-01,9.99999e-01,9.89986e-01,8.54232e-01,9.99996e-01
8.708946554e-01,8.47055e-01,9.99999e-01,9.88522e-01,8.56895e-01,9.99993e-01
8.752491287e-01,8.46331e-01,9.99999e-01,9.84679e-01,8.59513e-01,9.99983e-01
8.796253743e-01,8.43775e-01,9.99999e-01,9.78804e-01,8.62087e-01,9.99952e-01
8.840235012e-01,8.43621e-01,9.99999e-01,9.75859e-01,8.64618e-01,9.99851e-01
8.884436187e-01,7.94241e-01,9.99999e-01,9.16354e-01,8.67105e-01,9.99577e-01
8.928858368e-01,3.74663e-01,9.99999e-01,4.31919e-01,8.69551e-01,9.97567e-01
8.973502660e-01,2.01742e-01,9.99999e-01,2.34273e-01,8.71955e-01,9.87596e-01
9.018370173e-01,4.09818e-01,9.99999e-01,4.78018e-01,8.74318e-01,9.80566e-01
9.063462024e-01,4.40282e-01,9.99999e-01,5.10970e-01,8.76641e-01,9.82908e-01
9.108779334e-01,3.05597e-01,9.99999e-01,3.53979e-01,8.78924e-01,9.82246e-01
9.154323231e-01,2.59214e-01,9.99999e-01,2.98559e-01,8.81167e-01,9.85302e-01
9.200094847e-01,3.47060e-01,9.99999e-01,3.96150e-01,8.83372e-01,9.91747e-01
9.246095321e-01,2.32241e-01,9.99999e-01,2.64775e-01,8.85538e-01,9.90497e-01
9.292325798e-01,4.50640e-03,9.99999e-01,5.31619e-03,8.87667e-01,9.54945e-01
9.338787427e-01,9.68526e-05,9.99999e-01,1.28591e-04,8.89759e-01,8.46501e-01
9.385481364e-01,1.80623e-02,9.99999e-01,2.43227e-02,8.91814e-01,8.32694e-01
9.432408771e-01,6.64238e-03,9.99999e-01,8.70292e-03,8.93833e-01,8.53889e-01
9.479570815e-01,4.43891e-04,9.99999e-01,5.63490e-04,8.95817e-01,8.79367e-01
9.526968669e-01,2.25374e-03,9.99999e-01,2.71515e-03,8.97766e-01,9.24586e-01
9.574603512e-01,3.36843e-03,9.99999e-01,3.89615e-03,8.99680e-01,9.60954e-01
9.622476530e-01,8.75266e-03,9.99999e-01,9.97942e-03,9.01561e-01,9.72835e-01
9.670588912e-01,5.67767e-02,9.99999e-01,6.40421e-02,9.03408e-01,9.81341e-01
9.718941857e-01,1.21118e-01,9.99999e-01,1.35667e-01,9.05222e-01,9.86230e-01
9.767536566e-01,1.69892e-01,9.99999e-01,1.89306e-01,9.07005e-01,9.89460e-01
9.816374249e-01,2.52279e-01,9.99999e-01,2.78629e-01,9.08755e-01,9.96340e-01
9.865456120e-01,4.02261e-01,9.99999e-01,4.42151e-01,9.10474e-01,9.99236e-01
9.914783401e-01,5.46025e-01,9.99999e-01,5.98732e-01,9.12162e-01,9.99787e-01
9.964357318e-01,6.90502e-01,9.99999e-01,7.55714e-01,9.13820e-01,9.99875e-01
1.001417910e+00,7.73190e-01,9.99999e-01,8.44761e-01,9.15448e-01,9.99810e-01
1.006425000e+00,8.32364e-01,9.99999e-01,9.07900e-01,9.17047e-01,9.99730e-01
1.011457125e+00,8.65035e-01,9.99999e-01,9.41905e-01,9.18617e-01,9.99749e-01
1.016514411e+00,8.83299e-01,9.99999e-01,9.60110e-01,9.20159e-01,9.99823e-01
1.021596983e+00,8.92083e-01,9.99999e-01,9.68063e-01,9.21672e-01,9.99826e-01
1.026704968e+00,8.99970e-01,9.99999e-01,9.74987e-01,9.23158e-01,9.99890e-01
1.031838492e+00,9.07751e-01,9.99999e-01,9.81790e-01,9.24617e-01,9.99966e-01
1.036997685e+00,9.15978e-01,9.99999e-01,9.89127e-01,9.26050e-01,9.99994e-01
1.042182673e+00,9.15412e-01,9.99999e-01,9.87015e-01,9.27456e-01,9.99997e-01
1.047393587e+00,9.12895e-01,9.99999e-01,9.82839e-01,9.28837e-01,9.99996e-01
1.052630555e+00,9.08337e-01,9.99999e-01,9.76510e-01,9.30192e-01,9.99993e-01
1.057893707e+00,8.95268e-01,9.99999e-01,9.61092e-01,9.31523e-01,9.99985e-01
1.063183176e+00,8.74012e-01,9.99999e-01,9.36979e-01,9.32829e-01,9.99965e-01
1.068499092e+00,8.37926e-01,9.99999e-01,8.97095e-01,9.34111e-01,9.99926e-01
1.073841587e+00,8.24371e-01,9.99999e-01,8.81473e-01,9.35369e-01,9.99838e-01
1.079210795e+00,7.96087e-01,9.99999e-01,8.50340e-01,9.36605e-01,9.99564e-01
1.084606849e+00,7.34145e-01,9.99999e-01,7.83644e-01,9.37817e-01,9.98951e-01
1.090029883e+00,6.62840e-01,9.99999e-01,7.07430e-01,9.39007e-01,9.97827e-01
1.095480033e+00,3.68779e-01,9.99999e-01,3.93790e-01,9.40175e-01,9.96074e-01
1.100957433e+00,1.04895e-01,9.99999e-01,1.12243e-01,9.41321e-01,9.92787e-01
1.106462220e+00,8.30772e-03,9.99999e-01,8.92396e-03,9.42446e-01,9.87795e-01
1.111994531e+00,5.28080e-05,9.99999e-01,5.78219e-05,9.43550e-01,9.67925e-01
1.117554504e+00,9.88750e-07,9.99999e-01,1.17744e-06,9.44634e-01,8.88964e-01
1.123142276e+00,9.63567e-05,9.99999e-01,1.34693e-04,9.45697e-01,7.56455e-01
1.128757988e+00,4.32174e-04,9.99999e-01,6.30457e-04,9.46741e-01,7.24054e-01
1.134401778e+00,5.39922e-04,9.99999e-01,7.49665e-04,9.47765e-01,7.59911e-01
1.140073787e+00,5.48167e-03,9.99999e-01,7.19482e-03,9.48770e-01,8.03029e-01
1.145774156e+00,3.92909e-04,9.99999e-01,5.05690e-04,9.49756e-01,8.18079e-01
1.151503026e+00,8.05055e-05,9.99999e-01,9.47001e-05,9.50723e-01,8.94169e-01
1.157260541e+00,7.15408e-05,9.99999e-01,7.77303e-05,9.51673e-01,9.67107e-01
1.163046844e+00,8.67590e-04,9.99999e-01,9.19429e-04,9.52604e-01,9.90565e-01
1.168862078e+00,6.00090e-03,9.99999e-01,6.32422e-03,9.53518e-01,9.95128e-01
1.174706389e+00,3.55252e-02,9.99999e-01,3.74637e-02,9.54415e-01,9.93547e-01
1.180579921e+00,1.20224e-01,9.99999e-01,1.27088e-01,9.55295e-01,9.90259e-01
1.186482820e+00,2.77640e-01,9.99999e-01,2.93302e-01,9.56159e-01,9.90003e-01
1.192415234e+00,4.57601e-01,9.99999e-01,4.81770e-01,9.57006e-01,9.92504e-01
1.198377311e+00,5.14588e-01,9.99999e-01,5.41071e-01,9.57837e-01,9.92918e-01
1.204369197e+00,5.39332e-01,9.99999e-01,5.66222e-01,9.58652e-01,9.93590e-01
1.210391043e+00,5.50842e-01,9.99999e-01,5.76371e-01,9.59452e-01,9.96096e-01
1.216442998e+00,5.99897e-01,9.99999e-01,6.26236e-01,9.60237e-01,9.97607e-01
1.222525213e+00,6.63305e-01,9.99999e-01,6.91246e-01,9.61007e-01,9.98513e-01
1.228637839e+00,7.42887e-01,9.99999e-01,7.72957e-01,9.61762e-01,9.99307e-01
1.234781029e+00,7.95058e-01,9.99999e-01,8.26194e-01,9.62503e-01,9.99802e-01
1.240954934e+00,8.53396e-01,9.99999e-01,8.86022e-01,9.63230e-01,9.99944e-01
1.247159708e+00,8.77085e-01,9.99999e-01,9.09925e-01,9.63943e-01,9.99964e-01
1.253395507e+00,8.86957e-01,9.99999e-01,9.19509e-01,9.64642e-01,9.99953e-01
1.259662485e+00,8.91166e-01,9.99999e-01,9.23241e-01,9.65328e-01,9.99926e-01
1.265960797e+00,8.50700e-01,9.99999e-01,8.80748e-01,9.66001e-01,9.99876e-01
1.272290601e+00,7.92035e-01,9.99999e-01,8.19528e-01,9.66662e-01,9.99781e-01
1.278652054e+00,6.55811e-01,9.99999e-01,6.78236e-01,9.67309e-01,9.99613e-01
1.285045314e+00,4.86173e-01,9.99999e-01,5.02636e-01,9.67944e-01,9.99278e-01
1.291470541e+00,2.95570e-01,9.99999e-01,3.05547e-01,9.68568e-01,9.98735e-01
1.297927893e+00,1.90458e-01,9.99999e-01,1.96979e-01,9.69179e-01,9.97641e-01
1.304417533e+00,1.45888e-01,9.99999e-01,1.51189e-01,9.69778e-01,9.95009e-01
1.310939621e+00,9.15349e-02,9.99999e-01,9.53042e-02,9.70366e-01,9.89779e-01
1.317494319e+00,9.66672e-02,9.99999e-01,1.01470e-01,9.70943e-01,9.81176e-01
1.324081790e+00,3.79121e-02,9.99999e-01,4.02537e-02,9.71509e-01,9.69449e-01
1.330702199e+00,2.55728e-03,9.99999e-01,2.77535e-03,9.72063e-01,9.47905e-01
1.337355710e+00,1.94303e-12,9.99999e-01,2.21457e-12,9.72608e-01,9.02096e-01
1.344042489e+00,2.77953e-18,9.99999e-01,3.89560e-18,9.73141e-01,7.33197e-01
1.350762701e+00,1.74628e-67,9.99999e-01,5.18984e-67,9.73665e-01,3.45581e-01
1.357516515e+00,2.73314e-104,9.99999e-01,6.34280e-103,9.74178e-01,4.42326e-02
1.364304097e+00,3.71898e-63,9.99999e-01,9.01573e-61,9.74682e-01,4.23213e-03
1.371125618e+00,5.65246e-37,9.99999e-01,1.00192e-34,9.75175e-01,5.78521e-03
1.377981246e+00,7.50996e-36,9.99999e-01,6.37475e-34,9.75660e-01,1.20747e-02
1.384871152e+00,3.00664e-51,9.99999e-01,1.88764e-49,9.76135e-01,1.63174e-02
1.391795508e+00,1.30547e-63,9.99999e-01,6.75740e-62,9.76601e-01,1.97819e-02
1.398754485e+00,1.31157e-47,9.99999e-01,3.42943e-46,9.77057e-01,3.91426e-02
1.405748258e+00,5.04252e-47,9.99999e-01,3.42971e-46,9.77505e-01,1.50408e-01
1.412776999e+00,3.40643e-45,9.99998e-01,8.27215e-45,9.77945e-01,4.21081e-01
1.419840884e+00,1.06992e-44,9.99996e-01,1.59790e-44,9.78376e-01,6.84377e-01
1.426940089e+00,2.99893e-28,9.99996e-01,4.08697e-28,9.78798e-01,7.49670e-01
1.434074789e+00,2.96315e-25,9.99996e-01,4.25141e-25,9.79213e-01,7.11776e-01
1.441245163e+00,1.44542e-20,9.99998e-01,2.13241e-20,9.79619e-01,6.91934e-01
1.448451389e+00,6.01116e-13,9.99995e-01,8.46763e-13,9.80017e-01,7.24373e-01
1.455693646e+00,5.42576e-09,9.99997e-01,7.11242e-09,9.80408e-01,7.78100e-01
1.462972114e+00,6.10086e-09,9.99998e-01,7.90197e-09,9.80792e-01,7.87187e-01
1.470286975e+00,1.23929e-09,9.99998e-01,1.59801e-09,9.81167e-01,7.90402e-01
