#,Wave/freq,Total,N2,H2O,Rayleigh,CIA
4.000000000e-01,9.05289e-01,9.99999e-01,9.99988e-01,9.05299e-01,9.99999e-01
4.020000000e-01,9.07075e-01,9.99999e-01,9.99992e-01,9.07081e-01,9.99999e-01
4.040100000e-01,9.08828e-01,9.99999e-01,9.99996e-01,9.08830e-01,9.99999e-01
4.060300500e-01,9.10548e-01,9.99999e-01,9.99998e-01,9.10548e-01,9.99999e-01
4.080602003e-01,9.12235e-01,9.99999e-01,9.99999e-01,9.12235e-01,9.99999e-01
4.101005013e-01,9.13892e-01,9.99999e-01,9.99999e-01,9.13892e-01,9.99999e-01
4.121510038e-01,9.15518e-01,9.99999e-01,9.99999e-01,9.15519e-01,9.99999e-01
4.142117588e-01,9.17113e-01,9.99999e-01,9.99996e-01,9.17116e-01,9.99999e-01
4.162828176e-01,9.18672e-01,9.99999e-01,9.99985e-01,9.18685e-01,9.99999e-01
4.183642317e-01,9.20218e-01,9.99999e-01,9.99991e-01,9.20225e-01,9.99999e-01
4.204560528e-01,9.21733e-01,9.99999e-01,9.99994e-01,9.21737e-01,9.99999e-01
4.225583331e-01,9.23221e-01,9.99999e-01,9.99997e-01,9.23222e-01,9.99999e-01
4.246711247e-01,9.24679e-01,9.99999e-01,9.99997e-01,9.24680e-01,9.99999e-01
4.267944804e-01,9.26110e-01,9.99999e-01,9.99997e-01,9.26112e-01,9.99999e-01
4.289284528e-01,9.27515e-01,9.99999e-01,9.99997e-01,9.27517e-01,9.99999e-01
4.310730950e-01,9.28896e-01,9.99999e-01,9.99998e-01,9.28896e-01,9.99999e-01
4.332284605e-01,9.30251e-01,9.99999e-01,9.99999e-01,9.30251e-01,9.99999e-01
4.353946028e-01,9.31580e-01,9.99999e-01,9.99999e-01,9.31580e-01,9.99999e-01
4.375715758e-01,9.32884e-01,9.99999e-01,9.99998e-01,9.32885e-01,9.99999e-01
4.397594337e-01,9.34155e-01,9.99999e-01,9.99987e-01,9.34166e-01,9.99999e-01
4.419582309e-01,9.35365e-01,9.99999e-01,9.99936e-01,9.35424e-01,9.99999e-01
4.441680220e-01,9.36613e-01,9.99999e-01,9.99951e-01,9.36658e-01,9.99999e-01
4.463888621e-01,9.37822e-01,9.99999e-01,9.99949e-01,9.37869e-01,9.99999e-01
4.486208064e-01,9.39029e-01,9.99999e-01,9.99968e-01,9.39058e-01,9.99999e-01
4.508639105e-01,9.40212e-01,9.99999e-01,9.99984e-01,9.40225e-01,9.99999e-01
4.531182300e-01,9.41365e-01,9.99999e-01,9.99993e-01,9.41371e-01,9.99999e-01
4.553838212e-01,9.42491e-01,9.99999e-01,9.99995e-01,9.42495e-01,9.99999e-01
4.576607403e-01,9.43596e-01,9.99999e-01,9.99997e-01,9.43598e-01,9.99999e-01
4.599490440e-01,9.44679e-01,9.99999e-01,9.99998e-01,9.44681e-01,9.99999e-01
4.622487892e-01,9.45743e-01,9.99999e-01,9.99999e-01,9.45743e-01,9.99999e-01
4.645600332e-01,9.46785e-01,9.99999e-01,9.99998e-01,9.46786e-01,9.99999e-01
4.668828333e-01,9.47795e-01,9.99999e-01,9.99984e-01,9.47809e-01,9.99999e-01
4.692172475e-01,9.48783e-01,9.99999e-01,9.99967e-01,9.48813e-01,9.99999e-01
4.715633337e-01,9.49779e-01,9.99999e-01,9.99978e-01,9.49798e-01,9.99999e-01
4.739211504e-01,9.50746e-01,9.99999e-01,9.99979e-01,9.50765e-01,9.99999e-01
4.762907561e-01,9.51704e-01,9.99999e-01,9.99989e-01,9.51714e-01,9.99999e-01
4.786722099e-01,9.52640e-01,9.99999e-01,9.99995e-01,9.52644e-01,9.99999e-01
4.810655710e-01,9.53557e-01,9.99999e-01,9.99998e-01,9.53558e-01,9.99999e-01
4.834708988e-01,9.54442e-01,9.99999e-01,9.99987e-01,9.54454e-01,9.99999e-01
4.858882533e-01,9.55312e-01,9.99999e-01,9.99977e-01,9.55333e-01,9.99999e-01
4.883176946e-01,9.56178e-01,9.99999e-01,9.99980e-01,9.56196e-01,9.99999e-01
4.907592831e-01,9.57026e-01,9.99999e-01,9.99982e-01,9.57042e-01,9.99999e-01
4.932130795e-01,9.57861e-01,9.99999e-01,9.99987e-01,9.57872e-01,9.99999e-01
4.956791449e-01,9.58681e-01,9.99999e-01,9.99993e-01,9.58687e-01,9.99999e-01
4.981575406e-01,9.59456e-01,9.99999e-01,9.99967e-01,9.59486e-01,9.99999e-01
5.006483283e-01,9.60190e-01,9.99999e-01,9.99916e-01,9.60270e-01,9.99998e-01
5.031515699e-01,9.60634e-01,9.99999e-01,9.99581e-01,9.61040e-01,9.99995e-01
5.056673278e-01,9.61578e-01,9.99999e-01,9.99779e-01,9.61794e-01,9.99994e-01
5.081956644e-01,9.62265e-01,9.99999e-01,9.99722e-01,9.62535e-01,9.99996e-01
5.107366428e-01,9.63080e-01,9.99999e-01,9.99812e-01,9.63261e-01,9.99998e-01
5.132903260e-01,9.63870e-01,9.99999e-01,9.99892e-01,9.63973e-01,9.99999e-01
5.158567776e-01,9.64629e-01,9.99999e-01,9.99954e-01,9.64672e-01,9.99999e-01
5.184360615e-01,9.65340e-01,9.99999e-01,9.99981e-01,9.65358e-01,9.99999e-01
5.210282418e-01,9.66024e-01,9.99999e-01,9.99992e-01,9.66030e-01,9.99999e-01
5.236333830e-01,9.66664e-01,9.99999e-01,9.99972e-01,9.66690e-01,9.99999e-01
5.262515499e-01,9.67320e-01,9.99999e-01,9.99982e-01,9.67337e-01,9.99999e-01
5.288828077e-01,9.67956e-01,9.99999e-01,9.99983e-01,9.67972e-01,9.99999e-01
5.315272217e-01,9.68581e-01,9.99999e-01,9.99985e-01,9.68594e-01,9.99999e-01
5.341848578e-01,9.69196e-01,9.99999e-01,9.99990e-01,9.69205e-01,9.99999e-01
5.368557821e-01,9.69773e-01,9.99999e-01,9.99967e-01,9.69804e-01,9.99999e-01
5.395400610e-01,9.70279e-01,9.99999e-01,9.99884e-01,9.70391e-01,9.99998e-01
5.422377613e-01,9.70822e-01,9.99999e-01,9.99852e-01,9.70968e-01,9.99996e-01
5.449489501e-01,9.71396e-01,9.99999e-01,9.99861e-01,9.71533e-01,9.99996e-01
5.476736949e-01,9.71968e-01,9.99999e-01,9.99878e-01,9.72087e-01,9.99998e-01
5.504120634e-01,9.72545e-01,9.99999e-01,9.99911e-01,9.72631e-01,9.99999e-01
5.531641237e-01,9.73121e-01,9.99999e-01,9.99955e-01,9.73164e-01,9.99999e-01
5.559299443e-01,9.73666e-01,9.99999e-01,9.99978e-01,9.73687e-01,9.99999e-01
5.587095940e-01,9.74187e-01,9.99999e-01,9.99986e-01,9.74200e-01,9.99999e-01
5.615031420e-01,9.74689e-01,9.99999e-01,9.99984e-01,9.74703e-01,9.99999e-01
5.643106577e-01,9.75180e-01,9.99999e-01,9.99982e-01,9.75197e-01,9.99999e-01
5.671322110e-01,9.75475e-01,9.99999e-01,9.99790e-01,9.75681e-01,9.99997e-01
5.699678720e-01,9.75937e-01,9.99999e-01,9.99781e-01,9.76155e-01,9.99993e-01
5.728177114e-01,9.76392e-01,9.99999e-01,9.99770e-01,9.76621e-01,9.99994e-01
5.756818000e-01,9.76870e-01,9.99999e-01,9.99789e-01,9.77077e-01,9.99996e-01
5.785602090e-01,9.77346e-01,9.99999e-01,9.99816e-01,9.77525e-01,9.99998e-01
5.814530100e-01,9.77784e-01,9.99999e-01,9.99815e-01,9.77964e-01,9.99999e-01
5.843602750e-01,9.78178e-01,9.99999e-01,9.99779e-01,9.78394e-01,9.99998e-01
5.872820764e-01,9.76946e-01,9.99999e-01,9.98101e-01,9.78816e-01,9.99986e-01
5.902184868e-01,9.76959e-01,9.99999e-01,9.97715e-01,9.79230e-01,9.99963e-01
5.931695792e-01,9.78018e-01,9.99999e-01,9.98382e-01,9.79636e-01,9.99964e-01
5.961354271e-01,9.78281e-01,9.99999e-01,9.98229e-01,9.80035e-01,9.99979e-01
5.991161043e-01,9.79155e-01,9.99999e-01,9.98710e-01,9.80425e-01,9.99993e-01
6.021116848e-01,9.80090e-01,9.99999e-01,9.99268e-01,9.80808e-01,9.99998e-01
6.051222432e-01,9.80821e-01,9.99999e-01,9.99629e-01,9.81183e-01,9.99999e-01
6.081478544e-01,9.81395e-01,9.99999e-01,9.99839e-01,9.81552e-01,9.99999e-01
6.111885937e-01,9.81847e-01,9.99999e-01,9.99932e-01,9.81913e-01,9.99999e-01
6.142445367e-01,9.82237e-01,9.99999e-01,9.99969e-01,9.82267e-01,9.99999e-01
6.173157594e-01,9.82598e-01,9.99999e-01,9.99982e-01,9.82614e-01,9.99999e-01
6.204023382e-01,9.82941e-01,9.99999e-01,9.99985e-01,9.82954e-01,9.99999e-01
6.235043498e-01,9.83226e-01,9.99999e-01,9.99936e-01,9.83288e-01,9.99999e-01
6.266218716e-01,9.83290e-01,9.99999e-01,9.99670e-01,9.83616e-01,9.99997e-01
6.297549810e-01,9.83813e-01,9.99999e-01,9.99878e-01,9.83937e-01,9.99994e-01
6.329037559e-01,9.84014e-01,9.99999e-01,9.99761e-01,9.84251e-01,9.99995e-01
6.360682746e-01,9.84358e-01,9.99999e-01,9.99796e-01,9.84560e-01,9.99997e-01
6.392486160e-01,9.84603e-01,9.99999e-01,9.99736e-01,9.84863e-01,9.99998e-01
6.424448591e-01,9.84809e-01,9.99999e-01,9.99645e-01,9.85159e-01,9.99997e-01
6.456570834e-01,9.83819e-01,9.99999e-01,9.98354e-01,9.85450e-01,9.99989e-01
6.488853688e-01,9.84533e-01,9.99999e-01,9.98804e-01,9.85736e-01,9.99974e-01
6.521297956e-01,9.84794e-01,9.99999e-01,9.98781e-01,9.86015e-01,9.99978e-01
6.553904446e-01,9.85075e-01,9.99999e-01,9.98783e-01,9.86290e-01,9.99983e-01
6.586673968e-01,9.85529e-01,9.99999e-01,9.98961e-01,9.86559e-01,9.99994e-01
6.619607338e-01,9.86251e-01,9.99999e-01,9.99421e-01,9.86822e-01,9.99998e-01
6.652705375e-01,9.86738e-01,9.99999e-01,9.99652e-01,9.87081e-01,9.99998e-01
6.685968902e-01,9.87189e-01,9.99999e-01,9.99852e-01,9.87335e-01,9.99999e-01
6.719398746e-01,9.87510e-01,9.99999e-01,9.99924e-01,9.87583e-01,9.99999e-01
6.752995740e-01,9.87788e-01,9.99999e-01,9.99960e-01,9.87827e-01,9.99999e-01
6.786760719e-01,9.88008e-01,9.99999e-01,9.99940e-01,9.88066e-01,9.99999e-01
6.820694522e-01,9.88201e-01,9.99999e-01,9.99899e-01,9.88300e-01,9.99998e-01
6.854797995e-01,9.88401e-01,9.99999e-01,9.99869e-01,9.88530e-01,9.99998e-01
6.889071985e-01,9.88439e-01,9.99999e-01,9.99682e-01,9.88755e-01,9.99996e-01
6.923517345e-01,9.83867e-01,9.99999e-01,9.94858e-01,9.88976e-01,9.99975e-01
6.958134932e-01,9.86532e-01,9.99999e-01,9.97364e-01,9.89193e-01,9.99945e-01
6.992925606e-01,9.86843e-01,9.99999e-01,9.97459e-01,9.89405e-01,9.99950e-01
7.027890234e-01,9.86491e-01,9.99999e-01,9.96881e-01,9.89613e-01,9.99962e-01
7.063029686e-01,9.87203e-01,9.99999e-01,9.97377e-01,9.89817e-01,9.99980e-01
7.098344834e-01,9.87516e-01,9.99999e-01,9.97483e-01,9.90017e-01,9.99988e-01
7.133836558e-01,9.86840e-01,9.99999e-01,9.96614e-01,9.90214e-01,9.99977e-01
7.169505741e-01,9.63580e-01,9.99999e-01,9.73080e-01,9.90406e-01,9.99827e-01
7.205353270e-01,9.77356e-01,9.99999e-01,9.86934e-01,9.90595e-01,9.99696e-01
7.241380036e-01,9.73925e-01,9.99999e-01,9.83245e-01,9.90779e-01,9.99737e-01
7.277586936e-01,9.75768e-01,9.99999e-01,9.84878e-01,9.90961e-01,9.99785e-01
7.313974871e-01,9.75204e-01,9.99999e-01,9.84020e-01,9.91138e-01,9.99899e-01
7.350544745e-01,9.82593e-01,9.99999e-01,9.91237e-01,9.91313e-01,9.99964e-01
7.387297469e-01,9.85077e-01,9.99999e-01,9.93553e-01,9.91484e-01,9.99983e-01
7.424233956e-01,9.88523e-01,9.99999e-01,9.96847e-01,9.91651e-01,9.99996e-01
7.461355126e-01,9.89918e-01,9.99999e-01,9.98087e-01,9.91815e-01,9.99999e-01
7.498661902e-01,9.91095e-01,9.99999e-01,9.99110e-01,9.91976e-01,9.99999e-01
7.536155211e-01,9.91701e-01,9.99999e-01,9.99562e-01,9.92134e-01,9.99999e-01
7.573835987e-01,9.92066e-01,9.99999e-01,9.99774e-01,9.92289e-01,9.99999e-01
7.611705167e-01,9.92302e-01,9.99999e-01,9.99859e-01,9.92441e-01,9.99999e-01
7.649763693e-01,9.92502e-01,9.99999e-01,9.99911e-01,9.92589e-01,9.99999e-01
7.688012511e-01,9.92675e-01,9.99999e-01,9.99938e-01,9.92735e-01,9.99999e-01
7.726452574e-01,9.92828e-01,9.99999e-01,9.99949e-01,9.92878e-01,9.99999e-01
7.765084837e-01,9.92947e-01,9.99999e-01,9.99927e-01,9.93018e-01,9.99999e-01
7.803910261e-01,9.92847e-01,9.99999e-01,9.99688e-01,9.93156e-01,9.99999e-01
7.842929812e-01,9.92210e-01,9.99999e-01,9.98913e-01,9.93290e-01,9.99997e-01
7.882144461e-01,9.91199e-01,9.99999e-01,9.97776e-01,9.93422e-01,9.99984e-01
7.921555184e-01,9.92319e-01,9.99999e-01,9.98785e-01,9.93552e-01,9.99973e-01
7.961162960e-01,9.91503e-01,9.99999e-01,9.97835e-01,9.93679e-01,9.99974e-01
8.000968774e-01,9.91304e-01,9.99999e-01,9.97510e-01,9.93803e-01,9.99972e-01
8.040973618e-01,9.91428e-01,9.99999e-01,9.97507e-01,9.93925e-01,9.99979e-01
8.081178486e-01,9.88416e-01,9.99999e-01,9.94357e-01,9.94045e-01,9.99978e-01
8.121584379e-01,9.70883e-01,9.99999e-01,9.76659e-01,9.94162e-01,9.99921e-01
8.162192301e-01,9.66675e-01,9.99999e-01,9.72525e-01,9.94277e-01,9.99704e-01
8.203003262e-01,9.80101e-01,9.99999e-01,9.85970e-01,9.94390e-01,9.99654e-01
8.244018279e-01,9.75102e-01,9.99999e-01,9.80763e-01,9.94500e-01,9.99724e-01
8.285238370e-01,9.77954e-01,9.99999e-01,9.83467e-01,9.94609e-01,9.99783e-01
8.326664562e-01,9.78047e-01,9.99999e-01,9.83330e-01,9.94715e-01,9.99910e-01
8.368297885e-01,9.82964e-01,9.99999e-01,9.88102e-01,9.94819e-01,9.99979e-01
8.410139374e-01,9.87868e-01,9.99999e-01,9.92922e-01,9.94921e-01,9.99987e-01
8.452190071e-01,9.91561e-01,9.99999e-01,9.96528e-01,9.95021e-01,9.99992e-01
8.494451021e-01,9.93104e-01,9.99999e-01,9.97980e-01,9.95119e-01,9.99993e-01
8.536923276e-01,9.94026e-01,9.99999e-01,9.98808e-01,9.95215e-01,9.99996e-01
8.579607893e-01,9.94577e-01,9.99999e-01,9.99264e-01,9.95310e-01,9.99998e-01
8.622505932e-01,9.94938e-01,9.99999e-01,9.99533e-01,9.95402e-01,9.99999e-01
8.665618462e-01,9.95205e-01,9.99999e-01,9.99710e-01,9.95493e-01,9.99999e-01
8.708946554e-01,9.95251e-01,9.99999e-01,9.99667e-01,9.95581e-01,9.99999e-01
8.752491287e-01,9.95227e-01,9.99999e-01,9.99556e-01,9.95669e-01,9.99999e-01
8.796253743e-01,9.95140e-01,9.99999e-01,9.99383e-01,9.95754e-01,9.99998e-01
8.840235012e-01,9.95134e-01,9.99999e-01,9.99296e-01,9.95838e-01,9.99995e-01
8.884436187e-01,9.93318e-01,9.99999e-01,9.97399e-01,9.95920e-01,9.99987e-01
8.928858368e-01,9.69121e-01,9.99999e-01,9.73080e-01,9.96000e-01,9.99929e-01
8.973502660e-01,9.49033e-01,9.99999e-01,9.53109e-01,9.96079e-01,9.99640e-01
9.018370173e-01,9.71613e-01,9.99999e-01,9.75912e-01,9.96156e-01,9.99435e-01
9.063462024e-01,9.74381e-01,9.99999e-01,9.78550e-01,9.96232e-01,9.99504e-01
9.108779334e-01,9.62796e-01,9.99999e-01,9.66862e-01,9.96306e-01,9.99484e-01
9.154323231e-01,9.58636e-01,9.99999e-01,9.62529e-01,9.96379e-01,9.99573e-01
9.200094847e-01,9.66889e-01,9.99999e-01,9.70563e-01,9.96450e-01,9.99761e-01
9.246095321e-01,9.49603e-01,9.99999e-01,9.53180e-01,9.96520e-01,9.99725e-01
9.292325798e-01,7.22511e-01,9.99999e-01,7.25945e-01,9.96589e-01,9.98674e-01
9.338787427e-01,6.57109e-01,9.99999e-01,6.62479e-01,9.96656e-01,9.95219e-01
9.385481364e-01,8.40403e-01,9.99999e-01,8.47616e-01,9.96722e-01,9.94749e-01
9.432408771e-01,7.85109e-01,9.99999e-01,7.91224e-01,9.96787e-01,9.95468e-01
9.479570815e-01,7.16594e-01,9.99999e-01,7.21519e-01,9.96850e-01,9.96310e-01
9.526968669e-01,7.82286e-01,9.99999e-01,7.86479e-01,9.96912e-01,9.97747e-01
9.574603512e-01,8.00899e-01,9.99999e-01,8.04250e-01,9.96973e-01,9.98855e-01
9.622476530e-01,8.35292e-01,9.99999e-01,8.38440e-01,9.97033e-01,9.99208e-01
9.670588912e-01,9.00382e-01,9.99999e-01,9.03496e-01,9.97091e-01,9.99458e-01
9.718941857e-01,9.35701e-01,9.99999e-01,9.38749e-01,9.97149e-01,9.99600e-01
9.767536566e-01,9.45953e-01,9.99999e-01,9.48892e-01,9.97205e-01,9.99694e-01
9.816374249e-01,9.59244e-01,9.99999e-01,9.61981e-01,9.97260e-01,9.99894e-01
9.865456120e-01,9.73456e-01,9.99999e-01,9.76099e-01,9.97314e-01,9.99977e-01
9.914783401e-01,9.82563e-01,9.99999e-01,9.85162e-01,9.97367e-01,9.99993e-01
9.964357318e-01,9.89333e-01,9.99999e-01,9.91896e-01,9.97419e-01,9.99995e-01
1.001417910e+00,9.92615e-01,9.99999e-01,9.95137e-01,9.97470e-01,9.99994e-01
1.006425000e+00,9.94741e-01,9.99999e-01,9.97222e-01,9.97520e-01,9.99991e-01
1.011457125e+00,9.95844e-01,9.99999e-01,9.98278e-01,9.97569e-01,9.99992e-01
1.016514411e+00,9.96444e-01,9.99999e-01,9.98829e-01,9.97616e-01,9.99994e-01
1.021596983e+00,9.96728e-01,9.99999e-01,9.99066e-01,9.97663e-01,9.99994e-01
1.026704968e+00,9.96981e-01,9.99999e-01,9.99271e-01,9.97710e-01,9.99996e-01
1.031838492e+00,9.97227e-01,9.99999e-01,9.99471e-01,9.97755e-01,9.99998e-01
1.036997685e+00,9.97486e-01,9.99999e-01,9.99685e-01,9.97799e-01,9.99999e-01
1.042182673e+00,9.97468e-01,9.99999e-01,9.99624e-01,9.97842e-01,9.99999e-01
1.047393587e+00,9.97389e-01,9.99999e-01,9.99502e-01,9.97885e-01,9.99999e-01
1.052630555e+00,9.97245e-01,9.99999e-01,9.99316e-01,9.97927e-01,9.99999e-01
1.057893707e+00,9.96828e-01,9.99999e-01,9.98857e-01,9.97968e-01,9.99999e-01
1.063183176e+00,9.96133e-01,9.99999e-01,9.98121e-01,9.98008e-01,9.99998e-01
1.068499092e+00,9.94911e-01,9.99999e-01,9.96859e-01,9.98047e-01,9.99997e-01
1.073841587e+00,9.94407e-01,9.99999e-01,9.96318e-01,9.98085e-01,9.99994e-01
1.079210795e+00,9.93417e-01,9.99999e-01,9.95296e-01,9.98123e-01,9.99986e-01
1.084606849e+00,9.91020e-01,9.99999e-01,9.92876e-01,9.98160e-01,9.99969e-01
1.090029883e+00,9.87885e-01,9.99999e-01,9.89731e-01,9.98197e-01,9.99937e-01
1.095480033e+00,9.70468e-01,9.99999e-01,9.72296e-01,9.98232e-01,9.99886e-01
1.100957433e+00,9.29159e-01,9.99999e-01,9.30965e-01,9.98267e-01,9.99791e-01
1.106462220e+00,8.30851e-01,9.99999e-01,8.32558e-01,9.98301e-01,9.99646e-01
1.111994531e+00,6.78324e-01,9.99999e-01,6.80092e-01,9.98335e-01,9.99062e-01
1.117554504e+00,5.32064e-01,9.99999e-01,5.34740e-01,9.98368e-01,9.96621e-01
1.123142276e+00,6.21968e-01,9.99999e-01,6.27984e-01,9.98400e-01,9.92007e-01
1.128757988e+00,7.35902e-01,9.99999e-01,7.43932e-01,9.98431e-01,9.90759e-01
1.134401778e+00,4.97313e-01,9.99999e-01,5.02025e-01,9.98462e-01,9.92137e-01
1.140073787e+00,8.33040e-01,9.99999e-01,8.39575e-01,9.98493e-01,9.93712e-01
1.145774156e+00,6.87906e-01,9.99999e-01,6.92912e-01,9.98522e-01,9.94243e-01
1.151503026e+00,6.59885e-01,9.99999e-01,6.62970e-01,9.98551e-01,9.96788e-01
1.157260541e+00,7.11509e-01,9.99999e-01,7.13206e-01,9.98580e-01,9.99038e-01
1.163046844e+00,7.78418e-01,9.99999e-01,7.79715e-01,9.98608e-01,9.99727e-01
1.168862078e+00,8.40715e-01,9.99999e-01,8.41981e-01,9.98635e-01,9.99859e-01
1.174706389e+00,8.97938e-01,9.99999e-01,8.99307e-01,9.98662e-01,9.99813e-01
1.180579921e+00,9.36000e-01,9.99999e-01,9.37492e-01,9.98689e-01,9.99718e-01
1.186482820e+00,9.62692e-01,9.99999e-01,9.64209e-01,9.98715e-01,9.99710e-01
1.192415234e+00,9.77512e-01,9.99999e-01,9.78956e-01,9.98740e-01,9.99783e-01
1.198377311e+00,9.80797e-01,9.99999e-01,9.82209e-01,9.98765e-01,9.99795e-01
1.204369197e+00,9.81788e-01,9.99999e-01,9.83159e-01,9.98789e-01,9.99814e-01
1.210391043e+00,9.82620e-01,9.99999e-01,9.83898e-01,9.98813e-01,9.99887e-01
1.216442998e+00,9.85093e-01,9.99999e-01,9.86308e-01,9.98837e-01,9.99930e-01
1.222525213e+00,9.88153e-01,9.99999e-01,9.89322e-01,9.98859e-01,9.99956e-01
1.228637839e+00,9.91443e-01,9.99999e-01,9.92572e-01,9.98882e-01,9.99979e-01
1.234781029e+00,9.93389e-01,9.99999e-01,9.94484e-01,9.98904e-01,9.99993e-01
1.240954934e+00,9.95436e-01,9.99999e-01,9.96507e-01,9.98926e-01,9.99997e-01
1.247159708e+00,9.96231e-01,9.99999e-01,9.97281e-01,9.98947e-01,9.99998e-01
1.253395507e+00,9.96553e-01,9.99999e-01,9.97583e-01,9.98968e-01,9.99998e-01
1.259662485e+00,9.96690e-01,9.99999e-01,9.97700e-01,9.98988e-01,9.99997e-01
1.265960797e+00,9.95342e-01,9.99999e-01,9.96333e-01,9.99008e-01,9.99995e-01
1.272290601e+00,9.93258e-01,9.99999e-01,9.94230e-01,9.99027e-01,9.99993e-01
1.278652054e+00,9.87602e-01,9.99999e-01,9.88554e-01,9.99047e-01,9.99988e-01
1.285045314e+00,9.78365e-01,9.99999e-01,9.79299e-01,9.99065e-01,9.99978e-01
1.291470541e+00,9.63276e-01,9.99999e-01,9.64193e-01,9.99084e-01,9.99963e-01
1.297927893e+00,9.48486e-01,9.99999e-01,9.49402e-01,9.99102e-01,9.99931e-01
1.304417533e+00,9.39687e-01,9.99999e-01,9.40650e-01,9.99120e-01,9.99855e-01
1.310939621e+00,9.24470e-01,9.99999e-01,9.25541e-01,9.99137e-01,9.99704e-01
1.317494319e+00,9.25603e-01,9.99999e-01,9.26892e-01,9.99154e-01,9.99453e-01
1.324081790e+00,8.90559e-01,9.99999e-01,8.92093e-01,9.99171e-01,9.99107e-01
1.330702199e+00,6.10874e-01,9.99999e-01,6.12311e-01,9.99187e-01,9.98462e-01
1.337355710e+00,2.99070e-01,9.99999e-01,3.00196e-01,9.99203e-01,9.97041e-01
1.344042489e+00,3.98028e-02,9.99999e-01,4.01908e-02,9.99219e-01,9.91116e-01
1.350762701e+00,1.73449e-03,9.99999e-01,1.78966e-03,9.99234e-01,9.69913e-01
1.357516515e+00,1.92500e-04,9.99999e-01,2.10713e-04,9.99249e-01,9.14248e-01
1.364304097e+00,2.95589e-03,9.99999e-01,3.46134e-03,9.99264e-01,8.54599e-01
1.371125618e+00,1.92838e-02,9.99999e-01,2.23790e-02,9.99279e-01,8.62314e-01
1.377981246e+00,3.41051e-02,9.99999e-01,3.87501e-02,9.99293e-01,8.80750e-01
1.384871152e+00,2.63332e-03,9.99999e-01,2.96614e-03,9.99307e-01,8.88408e-01
1.391795508e+00,4.20776e-03,9.99999e-01,4.71333e-03,9.99320e-01,8.93340e-01
1.398754485e+00,9.19628e-03,9.99999e-01,1.01010e-02,9.99334e-01,9.11041e-01
1.405748258e+00,8.69870e-03,9.99999e-01,9.19161e-03,9.99347e-01,9.46991e-01
1.412776999e+00,1.02108e-02,9.99999e-01,1.04746e-02,9.99360e-01,9.75439e-01
1.419840884e+00,1.36640e-02,9.99999e-01,1.38225e-02,9.99373e-01,9.89155e-01
1.426940089e+00,3.53373e-02,9.99999e-01,3.56532e-02,9.99385e-01,9.91750e-01
1.434074789e+00,7.68998e-02,9.99999e-01,7.77020e-02,9.99397e-01,9.90272e-01
1.441245163e+00,1.46533e-01,9.99999e-01,1.48180e-01,9.99409e-01,9.89467e-01
1.448451389e+00,2.51984e-01,9.99999e-01,2.54478e-01,9.99421e-01,9.90771e-01
1.455693646e+00,4.10333e-01,9.99999e-01,4.13538e-01,9.99432e-01,9.92812e-01
1.462972114e+00,4.65525e-01,9.99999e-01,4.68999e-01,9.99443e-01,9.93143e-01
1.470286975e+00,4.09433e-01,9.99999e-01,4.12436e-01,9.99454e-01,9.93259e-01
