#,Wave/freq,Total,N2,H2O,Rayleigh,CIA
4.000000000e-01,2.26772e-01,9.99999e-01,9.99832e-01,2.26810e-01,9.99999e-01
4.020000000e-01,2.33537e-01,9.99999e-01,9.99895e-01,2.33562e-01,9.99999e-01
4.040100000e-01,2.40358e-01,9.99999e-01,9.99955e-01,2.40368e-01,9.99999e-01
4.060300500e-01,2.47231e-01,9.99999e-01,9.99989e-01,2.47233e-01,9.99999e-01
4.080602003e-01,2.54152e-01,9.99999e-01,9.99996e-01,2.54152e-01,9.99999e-01
4.101005013e-01,2.61123e-01,9.99999e-01,9.99999e-01,2.61123e-01,9.99999e-01
4.121510038e-01,2.68140e-01,9.99999e-01,9.99993e-01,2.68141e-01,9.99999e-01
4.142117588e-01,2.75192e-01,9.99999e-01,9.99954e-01,2.75204e-01,9.99999e-01
4.162828176e-01,2.82250e-01,9.99999e-01,9.99792e-01,2.82308e-01,9.99999e-01
4.183642317e-01,2.89414e-01,9.99999e-01,9.99876e-01,2.89450e-01,9.99999e-01
4.204560528e-01,2.96603e-01,9.99999e-01,9.99923e-01,2.96625e-01,9.99999e-01
4.225583331e-01,3.03823e-01,9.99999e-01,9.99971e-01,3.03832e-01,9.99999e-01
4.246711247e-01,3.11059e-01,9.99999e-01,9.99977e-01,3.11066e-01,9.99999e-01
4.267944804e-01,3.18314e-01,9.99999e-01,9.99966e-01,3.18324e-01,9.99999e-01
4.289284528e-01,3.25596e-01,9.99999e-01,9.99973e-01,3.25604e-01,9.99999e-01
4.310730950e-01,3.32897e-01,9.99999e-01,9.99988e-01,3.32901e-01,9.99999e-01
4.332284605e-01,3.40212e-01,9.99999e-01,9.99996e-01,3.40213e-01,9.99999e-01
4.353946028e-01,3.47535e-01,9.99999e-01,9.99998e-01,3.47536e-01,9.99999e-01
4.375715758e-01,3.54860e-01,9.99999e-01,9.99979e-01,3.54867e-01,9.99999e-01
4.397594337e-01,3.62139e-01,9.99999e-01,9.99819e-01,3.62204e-01,9.99999e-01
4.419582309e-01,3.69206e-01,9.99999e-01,9.99086e-01,3.69543e-01,9.99999e-01
4.441680220e-01,3.76608e-01,9.99999e-01,9.99274e-01,3.76881e-01,9.99999e-01
4.463888621e-01,3.83928e-01,9.99999e-01,9.99248e-01,3.84216e-01,9.99999e-01
4.486208064e-01,3.91361e-01,9.99999e-01,9.99531e-01,3.91545e-01,9.99999e-01
4.508639105e-01,3.98777e-01,9.99999e-01,9.99780e-01,3.98864e-01,9.99999e-01
4.531182300e-01,4.06137e-01,9.99999e-01,9.99912e-01,4.06172e-01,9.99999e-01
4.553838212e-01,4.13441e-01,9.99999e-01,9.99940e-01,4.13465e-01,9.99999e-01
4.576607403e-01,4.20730e-01,9.99999e-01,9.99972e-01,4.20741e-01,9.99999e-01
4.599490440e-01,4.27990e-01,9.99999e-01,9.99980e-01,4.27998e-01,9.99999e-01
4.622487892e-01,4.35231e-01,9.99999e-01,9.99996e-01,4.35233e-01,9.99999e-01
4.645600332e-01,4.42438e-01,9.99999e-01,9.99986e-01,4.42443e-01,9.99999e-01
4.668828333e-01,4.49529e-01,9.99999e-01,9.99780e-01,4.49627e-01,9.99999e-01
4.692172475e-01,4.56568e-01,9.99999e-01,9.99528e-01,4.56783e-01,9.99999e-01
4.715633337e-01,4.63765e-01,9.99999e-01,9.99692e-01,4.63907e-01,9.99999e-01
4.739211504e-01,4.70860e-01,9.99999e-01,9.99704e-01,4.70999e-01,9.99999e-01
4.762907561e-01,4.77983e-01,9.99999e-01,9.99846e-01,4.78056e-01,9.99999e-01
4.786722099e-01,4.85046e-01,9.99999e-01,9.99936e-01,4.85076e-01,9.99999e-01
4.810655710e-01,4.92048e-01,9.99999e-01,9.99980e-01,4.92058e-01,9.99999e-01
4.834708988e-01,4.98910e-01,9.99999e-01,9.99822e-01,4.98999e-01,9.99999e-01
4.858882533e-01,5.05729e-01,9.99999e-01,9.99665e-01,5.05898e-01,9.99999e-01
4.883176946e-01,5.12610e-01,9.99999e-01,9.99721e-01,5.12753e-01,9.99999e-01
4.907592831e-01,5.19432e-01,9.99999e-01,9.99746e-01,5.19563e-01,9.99999e-01
4.932130795e-01,5.26232e-01,9.99999e-01,9.99820e-01,5.26326e-01,9.99999e-01
4.956791449e-01,5.32991e-01,9.99999e-01,9.99904e-01,5.33041e-01,9.99999e-01
4.981575406e-01,5.39452e-01,9.99999e-01,9.99527e-01,5.39707e-01,9.99999e-01
5.006483283e-01,5.45653e-01,9.99999e-01,9.98783e-01,5.46322e-01,9.99991e-01
5.031515699e-01,5.49427e-01,9.99999e-01,9.93811e-01,5.52885e-01,9.99934e-01
5.056673278e-01,5.57518e-01,9.99999e-01,9.96718e-01,5.59394e-01,9.99924e-01
5.081956644e-01,5.63481e-01,9.99999e-01,9.95859e-01,5.65850e-01,9.99951e-01
5.107366428e-01,5.70644e-01,9.99999e-01,9.97201e-01,5.72250e-01,9.99990e-01
5.132903260e-01,5.77667e-01,9.99999e-01,9.98397e-01,5.78595e-01,9.99998e-01
5.158567776e-01,5.84486e-01,9.99999e-01,9.99322e-01,5.84882e-01,9.99999e-01
5.184360615e-01,5.90951e-01,9.99999e-01,9.99728e-01,5.91111e-01,9.99999e-01
5.210282418e-01,5.97221e-01,9.99999e-01,9.99898e-01,5.97282e-01,9.99999e-01
5.236333830e-01,6.03147e-01,9.99999e-01,9.99594e-01,6.03393e-01,9.99996e-01
5.262515499e-01,6.09287e-01,9.99999e-01,9.99745e-01,6.09444e-01,9.99995e-01
5.288828077e-01,6.15290e-01,9.99999e-01,9.99767e-01,6.15435e-01,9.99996e-01
5.315272217e-01,6.21236e-01,9.99999e-01,9.99794e-01,6.21364e-01,9.99998e-01
5.341848578e-01,6.27148e-01,9.99999e-01,9.99866e-01,6.27232e-01,9.99999e-01
5.368557821e-01,6.32739e-01,9.99999e-01,9.99529e-01,6.33037e-01,9.99998e-01
5.395400610e-01,6.37693e-01,9.99999e-01,9.98311e-01,6.38780e-01,9.99985e-01
5.422377613e-01,6.43014e-01,9.99999e-01,9.97794e-01,6.44461e-01,9.99959e-01
5.449489501e-01,6.48725e-01,9.99999e-01,9.97960e-01,6.50078e-01,9.99958e-01
5.476736949e-01,6.54426e-01,9.99999e-01,9.98182e-01,6.55631e-01,9.99979e-01
5.504120634e-01,6.60246e-01,9.99999e-01,9.98680e-01,6.61121e-01,9.99993e-01
5.531641237e-01,6.66104e-01,9.99999e-01,9.99335e-01,6.66547e-01,9.99998e-01
5.559299443e-01,6.71694e-01,9.99999e-01,9.99679e-01,6.71909e-01,9.99999e-01
5.587095940e-01,6.77072e-01,9.99999e-01,9.99799e-01,6.77207e-01,9.99999e-01
5.615031420e-01,6.82289e-01,9.99999e-01,9.99776e-01,6.82441e-01,9.99999e-01
5.643106577e-01,6.87438e-01,9.99999e-01,9.99749e-01,6.87611e-01,9.99997e-01
5.671322110e-01,6.90603e-01,9.99999e-01,9.96975e-01,6.92717e-01,9.99972e-01
5.699678720e-01,6.95408e-01,9.99999e-01,9.96713e-01,6.97759e-01,9.99915e-01
5.728177114e-01,7.00301e-01,9.99999e-01,9.96603e-01,7.02736e-01,9.99929e-01
5.756818000e-01,7.05411e-01,9.99999e-01,9.96877e-01,7.07650e-01,9.99956e-01
5.785602090e-01,7.10549e-01,9.99999e-01,9.97274e-01,7.12500e-01,9.99986e-01
5.814530100e-01,7.15323e-01,9.99999e-01,9.97266e-01,7.17287e-01,9.99993e-01
5.843602750e-01,7.19661e-01,9.99999e-01,9.96764e-01,7.22010e-01,9.99981e-01
5.872820764e-01,7.06568e-01,9.99999e-01,9.72527e-01,7.26670e-01,9.99802e-01
5.902184868e-01,7.06350e-01,9.99999e-01,9.66444e-01,7.31268e-01,9.99462e-01
5.931695792e-01,7.17985e-01,9.99999e-01,9.76295e-01,7.35802e-01,9.99476e-01
5.961354271e-01,7.20767e-01,9.99999e-01,9.73954e-01,7.40275e-01,9.99683e-01
5.991161043e-01,7.30398e-01,9.99999e-01,9.80903e-01,7.44685e-01,9.99907e-01
6.021116848e-01,7.40869e-01,9.99999e-01,9.89109e-01,7.49034e-01,9.99988e-01
6.051222432e-01,7.49158e-01,9.99999e-01,9.94473e-01,7.53322e-01,9.99998e-01
6.081478544e-01,7.55742e-01,9.99999e-01,9.97614e-01,7.57549e-01,9.99999e-01
6.111885937e-01,7.60944e-01,9.99999e-01,9.98988e-01,7.61715e-01,9.99999e-01
6.142445367e-01,7.65476e-01,9.99999e-01,9.99548e-01,7.65821e-01,9.99999e-01
6.173157594e-01,7.69676e-01,9.99999e-01,9.99751e-01,7.69868e-01,9.99999e-01
6.204023382e-01,7.73693e-01,9.99999e-01,9.99790e-01,7.73855e-01,9.99999e-01
6.235043498e-01,7.77072e-01,9.99999e-01,9.99086e-01,7.77784e-01,9.99997e-01
6.266218716e-01,7.77808e-01,9.99999e-01,9.95112e-01,7.81654e-01,9.99965e-01
6.297549810e-01,7.84004e-01,9.99999e-01,9.98205e-01,7.85467e-01,9.99930e-01
6.329037559e-01,7.86375e-01,9.99999e-01,9.96446e-01,7.89222e-01,9.99944e-01
6.360682746e-01,7.90504e-01,9.99999e-01,9.96983e-01,7.92921e-01,9.99966e-01
6.392486160e-01,7.93434e-01,9.99999e-01,9.96085e-01,7.96563e-01,9.99985e-01
6.424448591e-01,7.95971e-01,9.99999e-01,9.94799e-01,8.00150e-01,9.99976e-01
6.456570834e-01,7.84368e-01,9.99999e-01,9.76098e-01,8.03682e-01,9.99864e-01
6.488853688e-01,7.90168e-01,9.99999e-01,9.79319e-01,8.07159e-01,9.99622e-01
6.521297956e-01,7.95742e-01,9.99999e-01,9.82003e-01,8.10581e-01,9.99683e-01
6.553904446e-01,7.99244e-01,9.99999e-01,9.82163e-01,8.13951e-01,9.99762e-01
6.586673968e-01,8.04618e-01,9.99999e-01,9.84598e-01,8.17267e-01,9.99922e-01
6.619607338e-01,8.13184e-01,9.99999e-01,9.91061e-01,8.20531e-01,9.99982e-01
6.652705375e-01,8.19457e-01,9.99999e-01,9.94804e-01,8.23743e-01,9.99991e-01
6.685968902e-01,8.24906e-01,9.99999e-01,9.97584e-01,8.26904e-01,9.99998e-01
6.719398746e-01,8.29084e-01,9.99999e-01,9.98878e-01,8.30014e-01,9.99999e-01
6.752995740e-01,8.32571e-01,9.99999e-01,9.99394e-01,8.33075e-01,9.99999e-01
6.786760719e-01,8.35358e-01,9.99999e-01,9.99130e-01,8.36085e-01,9.99998e-01
6.820694522e-01,8.37789e-01,9.99999e-01,9.98507e-01,8.39047e-01,9.99991e-01
6.854797995e-01,8.40328e-01,9.99999e-01,9.98077e-01,8.41961e-01,9.99982e-01
6.889071985e-01,8.40913e-01,9.99999e-01,9.95408e-01,8.44826e-01,9.99957e-01
6.923517345e-01,7.85781e-01,9.99999e-01,9.27354e-01,8.47645e-01,9.99634e-01
6.958134932e-01,8.16608e-01,9.99999e-01,9.61035e-01,8.50417e-01,9.99176e-01
6.992925606e-01,8.21231e-01,9.99999e-01,9.63291e-01,8.53143e-01,9.99275e-01
7.027890234e-01,8.16513e-01,9.99999e-01,9.54596e-01,8.55824e-01,9.99443e-01
7.063029686e-01,8.25305e-01,9.99999e-01,9.61644e-01,8.58460e-01,9.99722e-01
7.098344834e-01,8.29183e-01,9.99999e-01,9.63146e-01,8.61051e-01,9.99835e-01
7.133836558e-01,8.21797e-01,9.99999e-01,9.51904e-01,8.63599e-01,9.99674e-01
7.169505741e-01,5.89224e-01,9.99999e-01,6.82058e-01,8.66105e-01,9.97443e-01
7.205353270e-01,7.13151e-01,9.99999e-01,8.24781e-01,8.68567e-01,9.95494e-01
7.241380036e-01,6.80192e-01,9.99999e-01,7.83993e-01,8.70988e-01,9.96108e-01
7.277586936e-01,6.98971e-01,9.99999e-01,8.02871e-01,8.73368e-01,9.96817e-01
7.313974871e-01,6.89908e-01,9.99999e-01,7.89006e-01,8.75707e-01,9.98507e-01
7.350544745e-01,7.70516e-01,9.99999e-01,8.78029e-01,8.78005e-01,9.99481e-01
7.387297469e-01,7.99272e-01,9.99999e-01,9.08205e-01,8.80265e-01,9.99761e-01
7.424233956e-01,8.41661e-01,9.99999e-01,9.53782e-01,8.82485e-01,9.99953e-01
7.461355126e-01,8.59665e-01,9.99999e-01,9.71746e-01,8.84667e-01,9.99991e-01
7.498661902e-01,8.75027e-01,9.99999e-01,9.86715e-01,8.86811e-01,9.99996e-01
7.536155211e-01,8.83116e-01,9.99999e-01,9.93475e-01,8.88917e-01,9.99997e-01
7.573835987e-01,8.87989e-01,9.99999e-01,9.96634e-01,8.90987e-01,9.99999e-01
7.611705167e-01,8.91153e-01,9.99999e-01,9.97908e-01,8.93021e-01,9.99999e-01
7.649763693e-01,8.93847e-01,9.99999e-01,9.98690e-01,8.95019e-01,9.99999e-01
7.688012511e-01,8.96164e-01,9.99999e-01,9.99088e-01,8.96982e-01,9.99999e-01
7.726452574e-01,8.98236e-01,9.99999e-01,9.99250e-01,8.98910e-01,9.99999e-01
7.765084837e-01,8.99850e-01,9.99999e-01,9.98940e-01,9.00804e-01,9.99998e-01
7.803910261e-01,8.98541e-01,9.99999e-01,9.95435e-01,9.02665e-01,9.99995e-01
7.842929812e-01,8.90148e-01,9.99999e-01,9.84168e-01,9.04493e-01,9.99970e-01
7.882144461e-01,8.76595e-01,9.99999e-01,9.67431e-01,9.06288e-01,9.99797e-01
7.921555184e-01,8.91318e-01,9.99999e-01,9.81955e-01,9.08051e-01,9.99608e-01
7.961162960e-01,8.80893e-01,9.99999e-01,9.68608e-01,9.09783e-01,9.99624e-01
8.000968774e-01,8.77940e-01,9.99999e-01,9.63582e-01,9.11483e-01,9.99600e-01
8.040973618e-01,8.79672e-01,9.99999e-01,9.63639e-01,9.13154e-01,9.99682e-01
8.081178486e-01,8.42122e-01,9.99999e-01,9.20832e-01,9.14794e-01,9.99702e-01
8.121584379e-01,6.53184e-01,9.99999e-01,7.13600e-01,9.16404e-01,9.98832e-01
8.162192301e-01,6.11953e-01,9.99999e-01,6.69560e-01,9.17986e-01,9.95616e-01
8.203003262e-01,7.56947e-01,9.99999e-01,8.27426e-01,9.19539e-01,9.94868e-01
8.244018279e-01,7.06117e-01,9.99999e-01,7.69776e-01,9.21064e-01,9.95914e-01
8.285238370e-01,7.22070e-01,9.99999e-01,7.85200e-01,9.22561e-01,9.96789e-01
8.326664562e-01,7.22969e-01,9.99999e-01,7.83448e-01,9.24031e-01,9.98670e-01
8.368297885e-01,7.74988e-01,9.99999e-01,8.37649e-01,9.25474e-01,9.99695e-01
8.410139374e-01,8.33745e-01,9.99999e-01,8.99666e-01,9.26891e-01,9.99821e-01
8.452190071e-01,8.81108e-01,9.99999e-01,9.49281e-01,9.28282e-01,9.99893e-01
8.494451021e-01,9.01949e-01,9.99999e-01,9.70287e-01,9.29647e-01,9.99914e-01
8.536923276e-01,9.14439e-01,9.99999e-01,9.82279e-01,9.30988e-01,9.99943e-01
8.579607893e-01,9.22104e-01,9.99999e-01,9.89074e-01,9.32304e-01,9.99984e-01
8.622505932e-01,9.27090e-01,9.99999e-01,9.93033e-01,9.33595e-01,9.99997e-01
8.665618462e-01,9.30840e-01,9.99999e-01,9.95697e-01,9.34863e-01,9.99998e-01
8.708946554e-01,9.31503e-01,9.99999e-01,9.95082e-01,9.36108e-01,9.99996e-01
8.752491287e-01,9.31157e-01,9.99999e-01,9.93421e-01,9.37330e-01,9.99992e-01
8.796253743e-01,9.29992e-01,9.99999e-01,9.90923e-01,9.38529e-01,9.99979e-01
8.840235012e-01,9.29906e-01,9.99999e-01,9.89634e-01,9.39705e-01,9.99936e-01
8.884436187e-01,9.06448e-01,9.99999e-01,9.63598e-01,9.40860e-01,9.99818e-01
8.928858368e-01,6.42442e-01,9.99999e-01,6.82712e-01,9.41994e-01,9.98957e-01
8.973502660e-01,4.79096e-01,9.99999e-01,5.10719e-01,9.43107e-01,9.94669e-01
9.018370173e-01,6.63152e-01,9.99999e-01,7.08270e-01,9.44198e-01,9.91631e-01
9.063462024e-01,6.92880e-01,9.99999e-01,7.38427e-01,9.45270e-01,9.92645e-01
9.108779334e-01,5.84969e-01,9.99999e-01,6.22909e-01,9.46321e-01,9.92358e-01
9.154323231e-01,5.46242e-01,9.99999e-01,5.80265e-01,9.47353e-01,9.93679e-01
9.200094847e-01,6.19074e-01,9.99999e-01,6.55099e-01,9.48366e-01,9.96457e-01
9.246095321e-01,5.13246e-01,9.99999e-01,5.42838e-01,9.49359e-01,9.95919e-01
9.292325798e-01,3.65656e-02,9.99999e-01,3.90949e-02,9.50334e-01,9.84181e-01
9.338787427e-01,8.53608e-03,9.99999e-01,9.58454e-03,9.51291e-01,9.36209e-01
9.385481364e-01,1.32406e-01,9.99999e-01,1.50388e-01,9.52230e-01,9.24597e-01
9.432408771e-01,7.64381e-02,9.99999e-01,8.58067e-02,9.53151e-01,9.34602e-01
9.479570815e-01,2.47847e-02,9.99999e-01,2.74483e-02,9.54055e-01,9.46442e-01
9.526968669e-01,5.48361e-02,9.99999e-01,5.93842e-02,9.54941e-01,9.66982e-01
9.574603512e-01,6.28848e-02,9.99999e-01,6.69237e-02,9.55811e-01,9.83090e-01
9.622476530e-01,9.72945e-02,9.99999e-01,1.02908e-01,9.56665e-01,9.88276e-01
9.670588912e-01,2.48604e-01,9.99999e-01,2.61740e-01,9.57503e-01,9.91967e-01
9.718941857e-01,3.86974e-01,9.99999e-01,4.06207e-01,9.58324e-01,9.94080e-01
9.767536566e-01,4.50748e-01,9.99999e-01,4.72092e-01,9.59130e-01,9.95473e-01
9.816374249e-01,5.44160e-01,9.99999e-01,5.67770e-01,9.59921e-01,9.98430e-01
9.865456120e-01,6.71930e-01,9.99999e-01,6.99647e-01,9.60697e-01,9.99672e-01
9.914783401e-01,7.69780e-01,9.99999e-01,8.00710e-01,9.61458e-01,9.99908e-01
9.964357318e-01,8.52346e-01,9.99999e-01,8.85872e-01,9.62205e-01,9.99946e-01
1.001417910e+00,8.95265e-01,9.99999e-01,9.29797e-01,9.62937e-01,9.99918e-01
1.006425000e+00,9.24397e-01,9.99999e-01,9.59370e-01,9.63656e-01,9.99884e-01
1.011457125e+00,9.39709e-01,9.99999e-01,9.74540e-01,9.64361e-01,9.99892e-01
1.016514411e+00,9.48247e-01,9.99999e-01,9.82659e-01,9.65052e-01,9.99924e-01
1.021596983e+00,9.52299e-01,9.99999e-01,9.86165e-01,9.65731e-01,9.99923e-01
1.026704968e+00,9.55909e-01,9.99999e-01,9.89197e-01,9.66396e-01,9.99948e-01
1.031838492e+00,9.59422e-01,9.99999e-01,9.92126e-01,9.67049e-01,9.99985e-01
1.036997685e+00,9.63162e-01,9.99999e-01,9.95323e-01,9.67689e-01,9.99997e-01
1.042182673e+00,9.62934e-01,9.99999e-01,9.94441e-01,9.68317e-01,9.99998e-01
1.047393587e+00,9.61786e-01,9.99999e-01,9.92624e-01,9.68933e-01,9.99998e-01
1.052630555e+00,9.59746e-01,9.99999e-01,9.89903e-01,9.69537e-01,9.99997e-01
1.057893707e+00,9.53850e-01,9.99999e-01,9.83224e-01,9.70130e-01,9.99993e-01
1.063183176e+00,9.44045e-01,9.99999e-01,9.72542e-01,9.70711e-01,9.99985e-01
1.068499092e+00,9.27007e-01,9.99999e-01,9.54446e-01,9.71281e-01,9.99968e-01
1.073841587e+00,9.20409e-01,9.99999e-01,9.47143e-01,9.71840e-01,9.99930e-01
1.079210795e+00,9.06566e-01,9.99999e-01,9.32481e-01,9.72389e-01,9.99813e-01
1.084606849e+00,8.75236e-01,9.99999e-01,8.99994e-01,9.72927e-01,9.99550e-01
1.090029883e+00,8.37256e-01,9.99999e-01,8.60888e-01,9.73454e-01,9.99069e-01
1.095480033e+00,6.47041e-01,9.99999e-01,6.65451e-01,9.73972e-01,9.98317e-01
1.100957433e+00,3.57041e-01,9.99999e-01,3.67529e-01,9.74479e-01,9.96904e-01
1.106462220e+00,9.54007e-02,9.99999e-01,9.83650e-02,9.74977e-01,9.94755e-01
1.111994531e+00,8.66783e-03,9.99999e-01,9.01074e-03,9.75465e-01,9.86137e-01
1.117554504e+00,8.11465e-04,9.99999e-01,8.74443e-04,9.75944e-01,9.50851e-01
1.123142276e+00,8.05495e-03,9.99999e-01,9.29678e-03,9.76413e-01,8.87352e-01
1.128757988e+00,2.50852e-02,9.99999e-01,2.94865e-02,9.76874e-01,8.70873e-01
1.134401778e+00,1.34802e-02,9.99999e-01,1.55137e-02,9.77325e-01,8.89085e-01
1.140073787e+00,9.12220e-02,9.99999e-01,1.02484e-01,9.77768e-01,9.10346e-01
1.145774156e+00,1.56246e-02,9.99999e-01,1.74068e-02,9.78202e-01,9.17613e-01
1.151503026e+00,9.39469e-03,9.99999e-01,1.00708e-02,9.78628e-01,9.53231e-01
1.157260541e+00,1.21412e-02,9.99999e-01,1.25799e-02,9.79046e-01,9.85780e-01
1.163046844e+00,3.70608e-02,9.99999e-01,3.79920e-02,9.79456e-01,9.95948e-01
1.168862078e+00,8.86908e-02,9.99999e-01,9.07034e-02,9.79857e-01,9.97910e-01
1.174706389e+00,2.17695e-01,9.99999e-01,2.22697e-01,9.80251e-01,9.97231e-01
1.180579921e+00,3.85278e-01,9.99999e-01,3.94535e-01,9.80637e-01,9.95817e-01
1.186482820e+00,5.71270e-01,9.99999e-01,5.84834e-01,9.81016e-01,9.95706e-01
1.192415234e+00,7.13525e-01,9.99999e-01,7.29402e-01,9.81388e-01,9.96783e-01
1.198377311e+00,7.50754e-01,9.99999e-01,7.67038e-01,9.81752e-01,9.96961e-01
1.204369197e+00,7.63670e-01,9.99999e-01,7.79725e-01,9.82109e-01,9.97250e-01
1.210391043e+00,7.72016e-01,9.99999e-01,7.87115e-01,9.82459e-01,9.98326e-01
1.216442998e+00,8.00666e-01,9.99999e-01,8.15512e-01,9.82803e-01,9.98974e-01
1.222525213e+00,8.37639e-01,9.99999e-01,8.52546e-01,9.83140e-01,9.99362e-01
1.228637839e+00,8.79998e-01,9.99999e-01,8.95053e-01,9.83470e-01,9.99703e-01
1.234781029e+00,9.05928e-01,9.99999e-01,9.20928e-01,9.83794e-01,9.99914e-01
1.240954934e+00,9.34152e-01,9.99999e-01,9.49256e-01,9.84111e-01,9.99975e-01
1.247159708e+00,9.45231e-01,9.99999e-01,9.60201e-01,9.84423e-01,9.99984e-01
1.253395507e+00,9.49872e-01,9.99999e-01,9.64622e-01,9.84728e-01,9.99979e-01
1.259662485e+00,9.51918e-01,9.99999e-01,9.66416e-01,9.85027e-01,9.99968e-01
1.265960797e+00,9.32901e-01,9.99999e-01,9.46848e-01,9.85321e-01,9.99946e-01
1.272290601e+00,9.09699e-01,9.99999e-01,9.23067e-01,9.85609e-01,9.99906e-01
1.278652054e+00,8.33305e-01,9.99999e-01,8.45369e-01,9.85891e-01,9.99834e-01
1.285045314e+00,7.58601e-01,9.99999e-01,7.69478e-01,9.86168e-01,9.99690e-01
1.291470541e+00,5.83614e-01,9.99999e-01,5.91957e-01,9.86439e-01,9.99458e-01
1.297927893e+00,5.02575e-01,9.99999e-01,5.09861e-01,9.86705e-01,9.98988e-01
1.304417533e+00,4.16495e-01,9.99999e-01,4.22899e-01,9.86966e-01,9.97859e-01
1.310939621e+00,3.69079e-01,9.99999e-01,3.75504e-01,9.87222e-01,9.95610e-01
1.317494319e+00,3.39193e-01,9.99999e-01,3.46302e-01,9.87472e-01,9.91895e-01
1.324081790e+00,2.12756e-01,9.99999e-01,2.18282e-01,9.87718e-01,9.86802e-01
1.330702199e+00,3.02205e-02,9.99999e-01,3.12976e-02,9.87959e-01,9.77351e-01
1.337355710e+00,3.13943e-06,9.99999e-01,3.32022e-06,9.88196e-01,9.56840e-01
1.344042489e+00,4.10752e-09,9.99999e-01,4.74619e-09,9.88428e-01,8.75565e-01
1.350762701e+00,3.60852e-30,9.99999e-01,5.75271e-30,9.88655e-01,6.34470e-01
1.357516515e+00,6.50876e-46,9.99999e-01,2.50171e-45,9.88878e-01,2.63099e-01
1.364304097e+00,2.65843e-28,9.99999e-01,2.79043e-27,9.89096e-01,9.63194e-02
1.371125618e+00,4.15827e-17,9.99999e-01,3.81711e-16,9.89310e-01,1.10115e-01
1.377981246e+00,1.78065e-16,9.99999e-01,1.19255e-15,9.89520e-01,1.50895e-01
1.384871152e+00,3.17120e-23,9.99999e-01,1.90237e-22,9.89726e-01,1.68427e-01
1.391795508e+00,1.72718e-28,9.99999e-01,9.41917e-28,9.89928e-01,1.85234e-01
1.398754485e+00,1.16348e-21,9.99999e-01,4.70635e-21,9.90126e-01,2.49681e-01
1.405748258e+00,2.14621e-21,9.99999e-01,4.87732e-21,9.90320e-01,4.44339e-01
1.412776999e+00,1.24368e-20,9.99998e-01,1.81841e-20,9.90511e-01,6.90489e-01
1.419840884e+00,2.19848e-20,9.99998e-01,2.61040e-20,9.90697e-01,8.50109e-01
1.426940089e+00,2.21436e-13,9.99998e-01,2.52817e-13,9.90880e-01,8.83935e-01
1.434074789e+00,6.69236e-12,9.99998e-01,7.81096e-12,9.91059e-01,8.64519e-01
1.441245163e+00,7.69667e-10,9.99998e-01,9.09093e-10,9.91235e-01,8.54116e-01
1.448451389e+00,1.12219e-06,9.99997e-01,1.29950e-06,9.91407e-01,8.71038e-01
1.455693646e+00,8.89136e-05,9.99998e-01,9.98387e-05,9.91576e-01,8.98136e-01
1.462972114e+00,1.25132e-04,9.99999e-01,1.39787e-04,9.91742e-01,9.02612e-01
1.470286975e+00,3.99373e-05,9.99999e-01,4.45296e-05,9.91905e-01,9.04189e-01
