#,Wave/freq,Total,N2,H2O,Rayleigh,CIA
4.000000000e-01,8.89177e-01,9.99999e-01,9.99986e-01,8.89189e-01,9.99999e-01
4.020000000e-01,8.91249e-01,9.99999e-01,9.99991e-01,8.91257e-01,9.99999e-01
4.040100000e-01,8.93282e-01,9.99999e-01,9.99996e-01,8.93286e-01,9.99999e-01
4.060300500e-01,8.95278e-01,9.99999e-01,9.99998e-01,8.95279e-01,9.99999e-01
4.080602003e-01,8.97237e-01,9.99999e-01,9.99999e-01,8.97237e-01,9.99999e-01
4.101005013e-01,8.99161e-01,9.99999e-01,9.99999e-01,8.99161e-01,9.99999e-01
4.121510038e-01,9.01050e-01,9.99999e-01,9.99999e-01,9.01051e-01,9.99999e-01
4.142117588e-01,9.02904e-01,9.99999e-01,9.99995e-01,9.02907e-01,9.99999e-01
4.162828176e-01,9.04716e-01,9.99999e-01,9.99983e-01,9.04731e-01,9.99999e-01
4.183642317e-01,9.06513e-01,9.99999e-01,9.99989e-01,9.06521e-01,9.99999e-01
4.204560528e-01,9.08275e-01,9.99999e-01,9.99993e-01,9.08280e-01,9.99999e-01
4.225583331e-01,9.10006e-01,9.99999e-01,9.99997e-01,9.10008e-01,9.99999e-01
4.246711247e-01,9.11703e-01,9.99999e-01,9.99997e-01,9.11705e-01,9.99999e-01
4.267944804e-01,9.13368e-01,9.99999e-01,9.99996e-01,9.13371e-01,9.99999e-01
4.289284528e-01,9.15005e-01,9.99999e-01,9.99997e-01,9.15007e-01,9.99999e-01
4.310730950e-01,9.16613e-01,9.99999e-01,9.99998e-01,9.16614e-01,9.99999e-01
4.332284605e-01,9.18191e-01,9.99999e-01,9.99999e-01,9.18192e-01,9.99999e-01
4.353946028e-01,9.19741e-01,9.99999e-01,9.99999e-01,9.19741e-01,9.99999e-01
4.375715758e-01,9.21261e-01,9.99999e-01,9.99997e-01,9.21262e-01,9.99999e-01
4.397594337e-01,9.22742e-01,9.99999e-01,9.99985e-01,9.22756e-01,9.99999e-01
4.419582309e-01,9.24155e-01,9.99999e-01,9.99927e-01,9.24222e-01,9.99999e-01
4.441680220e-01,9.25609e-01,9.99999e-01,9.99942e-01,9.25662e-01,9.99999e-01
4.463888621e-01,9.27020e-01,9.99999e-01,9.99940e-01,9.27075e-01,9.99999e-01
4.486208064e-01,9.28428e-01,9.99999e-01,9.99962e-01,9.28463e-01,9.99999e-01
4.508639105e-01,9.29809e-01,9.99999e-01,9.99982e-01,9.29825e-01,9.99999e-01
4.531182300e-01,9.31156e-01,9.99999e-01,9.99992e-01,9.31162e-01,9.99999e-01
4.553838212e-01,9.32471e-01,9.99999e-01,9.99994e-01,9.32475e-01,9.99999e-01
4.576607403e-01,9.33761e-01,9.99999e-01,9.99997e-01,9.33763e-01,9.99999e-01
4.599490440e-01,9.35027e-01,9.99999e-01,9.99997e-01,9.35028e-01,9.99999e-01
4.622487892e-01,9.36270e-01,9.99999e-01,9.99999e-01,9.36270e-01,9.99999e-01
4.645600332e-01,9.37488e-01,9.99999e-01,9.99998e-01,9.37488e-01,9.99999e-01
4.668828333e-01,9.38668e-01,9.99999e-01,9.99982e-01,9.38685e-01,9.99999e-01
4.692172475e-01,9.39823e-01,9.99999e-01,9.99962e-01,9.39858e-01,9.99999e-01
4.715633337e-01,9.40988e-01,9.99999e-01,9.99975e-01,9.41011e-01,9.99999e-01
4.739211504e-01,9.42119e-01,9.99999e-01,9.99976e-01,9.42141e-01,9.99999e-01
4.762907561e-01,9.43240e-01,9.99999e-01,9.99987e-01,9.43251e-01,9.99999e-01
4.786722099e-01,9.44336e-01,9.99999e-01,9.99994e-01,9.44340e-01,9.99999e-01
4.810655710e-01,9.45408e-01,9.99999e-01,9.99998e-01,9.45409e-01,9.99999e-01
4.834708988e-01,9.46445e-01,9.99999e-01,9.99985e-01,9.46458e-01,9.99999e-01
4.858882533e-01,9.47462e-01,9.99999e-01,9.99973e-01,9.47487e-01,9.99999e-01
4.883176946e-01,9.48477e-01,9.99999e-01,9.99977e-01,9.48497e-01,9.99999e-01
4.907592831e-01,9.49470e-01,9.99999e-01,9.99979e-01,9.49489e-01,9.99999e-01
4.932130795e-01,9.50448e-01,9.99999e-01,9.99985e-01,9.50461e-01,9.99999e-01
4.956791449e-01,9.51408e-01,9.99999e-01,9.99992e-01,9.51415e-01,9.99999e-01
4.981575406e-01,9.52316e-01,9.99999e-01,9.99962e-01,9.52352e-01,9.99999e-01
5.006483283e-01,9.53178e-01,9.99999e-01,9.99903e-01,9.53271e-01,9.99998e-01
5.031515699e-01,9.53698e-01,9.99999e-01,9.99507e-01,9.54172e-01,9.99994e-01
5.056673278e-01,9.54803e-01,9.99999e-01,9.99739e-01,9.55057e-01,9.99993e-01
5.081956644e-01,9.55607e-01,9.99999e-01,9.99671e-01,9.55925e-01,9.99995e-01
5.107366428e-01,9.56563e-01,9.99999e-01,9.99777e-01,9.56776e-01,9.99998e-01
5.132903260e-01,9.57490e-01,9.99999e-01,9.99872e-01,9.57611e-01,9.99999e-01
5.158567776e-01,9.58380e-01,9.99999e-01,9.99945e-01,9.58431e-01,9.99999e-01
5.184360615e-01,9.59215e-01,9.99999e-01,9.99978e-01,9.59235e-01,9.99999e-01
5.210282418e-01,9.60016e-01,9.99999e-01,9.99991e-01,9.60024e-01,9.99999e-01
5.236333830e-01,9.60767e-01,9.99999e-01,9.99967e-01,9.60798e-01,9.99999e-01
5.262515499e-01,9.61538e-01,9.99999e-01,9.99979e-01,9.61557e-01,9.99999e-01
5.288828077e-01,9.62284e-01,9.99999e-01,9.99981e-01,9.62302e-01,9.99999e-01
5.315272217e-01,9.63017e-01,9.99999e-01,9.99983e-01,9.63033e-01,9.99999e-01
5.341848578e-01,9.63739e-01,9.99999e-01,9.99988e-01,9.63749e-01,9.99999e-01
5.368557821e-01,9.64417e-01,9.99999e-01,9.99962e-01,9.64453e-01,9.99999e-01
5.395400610e-01,9.65012e-01,9.99999e-01,9.99865e-01,9.65142e-01,9.99998e-01
5.422377613e-01,9.65647e-01,9.99999e-01,9.99824e-01,9.65819e-01,9.99996e-01
5.449489501e-01,9.66323e-01,9.99999e-01,9.99837e-01,9.66483e-01,9.99996e-01
5.476736949e-01,9.66993e-01,9.99999e-01,9.99855e-01,9.67134e-01,9.99997e-01
5.504120634e-01,9.67671e-01,9.99999e-01,9.99895e-01,9.67772e-01,9.99999e-01
5.531641237e-01,9.68348e-01,9.99999e-01,9.99946e-01,9.68399e-01,9.99999e-01
5.559299443e-01,9.68988e-01,9.99999e-01,9.99974e-01,9.69013e-01,9.99999e-01
5.587095940e-01,9.69600e-01,9.99999e-01,9.99983e-01,9.69616e-01,9.99999e-01
5.615031420e-01,9.70190e-01,9.99999e-01,9.99981e-01,9.70207e-01,9.99999e-01
5.643106577e-01,9.70767e-01,9.99999e-01,9.99979e-01,9.70787e-01,9.99999e-01
5.671322110e-01,9.71120e-01,9.99999e-01,9.99759e-01,9.71355e-01,9.99997e-01
5.699678720e-01,9.71653e-01,9.99999e-01,9.99738e-01,9.71913e-01,9.99992e-01
5.728177114e-01,9.72193e-01,9.99999e-01,9.99730e-01,9.72460e-01,9.99993e-01
5.756818000e-01,9.72753e-01,9.99999e-01,9.99751e-01,9.72997e-01,9.99996e-01
5.785602090e-01,9.73312e-01,9.99999e-01,9.99783e-01,9.73523e-01,9.99998e-01
5.814530100e-01,9.73828e-01,9.99999e-01,9.99782e-01,9.74039e-01,9.99999e-01
5.843602750e-01,9.74294e-01,9.99999e-01,9.99742e-01,9.74545e-01,9.99998e-01
5.872820764e-01,9.72864e-01,9.99999e-01,9.97781e-01,9.75042e-01,9.99983e-01
5.902184868e-01,9.72851e-01,9.99999e-01,9.97296e-01,9.75529e-01,9.99956e-01
5.931695792e-01,9.74106e-01,9.99999e-01,9.98093e-01,9.76006e-01,9.99958e-01
5.961354271e-01,9.74407e-01,9.99999e-01,9.97907e-01,9.76474e-01,9.99974e-01
5.991161043e-01,9.75435e-01,9.99999e-01,9.98472e-01,9.76934e-01,9.99992e-01
6.021116848e-01,9.76536e-01,9.99999e-01,9.99132e-01,9.77384e-01,9.99998e-01
6.051222432e-01,9.77397e-01,9.99999e-01,9.99560e-01,9.77826e-01,9.99999e-01
6.081478544e-01,9.78074e-01,9.99999e-01,9.99810e-01,9.78259e-01,9.99999e-01
6.111885937e-01,9.78605e-01,9.99999e-01,9.99919e-01,9.78684e-01,9.99999e-01
6.142445367e-01,9.79065e-01,9.99999e-01,9.99963e-01,9.79100e-01,9.99999e-01
6.173157594e-01,9.79490e-01,9.99999e-01,9.99979e-01,9.79509e-01,9.99999e-01
6.204023382e-01,9.79893e-01,9.99999e-01,9.99982e-01,9.79910e-01,9.99999e-01
6.235043498e-01,9.80231e-01,9.99999e-01,9.99927e-01,9.80302e-01,9.99999e-01
6.266218716e-01,9.80305e-01,9.99999e-01,9.99611e-01,9.80688e-01,9.99996e-01
6.297549810e-01,9.80921e-01,9.99999e-01,9.99857e-01,9.81065e-01,9.99994e-01
6.329037559e-01,9.81155e-01,9.99999e-01,9.99717e-01,9.81436e-01,9.99995e-01
6.360682746e-01,9.81562e-01,9.99999e-01,9.99760e-01,9.81799e-01,9.99996e-01
6.392486160e-01,9.81850e-01,9.99999e-01,9.99689e-01,9.82156e-01,9.99998e-01
6.424448591e-01,9.82097e-01,9.99999e-01,9.99586e-01,9.82505e-01,9.99997e-01
6.456570834e-01,9.80950e-01,9.99999e-01,9.98079e-01,9.82847e-01,9.99988e-01
6.488853688e-01,9.81524e-01,9.99999e-01,9.98341e-01,9.83183e-01,9.99969e-01
6.521297956e-01,9.82068e-01,9.99999e-01,9.98555e-01,9.83513e-01,9.99974e-01
6.553904446e-01,9.82415e-01,9.99999e-01,9.98573e-01,9.83836e-01,9.99980e-01
6.586673968e-01,9.82935e-01,9.99999e-01,9.98768e-01,9.84153e-01,9.99993e-01
6.619607338e-01,9.83762e-01,9.99999e-01,9.99288e-01,9.84463e-01,9.99998e-01
6.652705375e-01,9.84361e-01,9.99999e-01,9.99587e-01,9.84768e-01,9.99998e-01
6.685968902e-01,9.84878e-01,9.99999e-01,9.99808e-01,9.85066e-01,9.99999e-01
6.719398746e-01,9.85271e-01,9.99999e-01,9.99910e-01,9.85359e-01,9.99999e-01
6.752995740e-01,9.85599e-01,9.99999e-01,9.99951e-01,9.85646e-01,9.99999e-01
6.786760719e-01,9.85860e-01,9.99999e-01,9.99930e-01,9.85928e-01,9.99999e-01
6.820694522e-01,9.86086e-01,9.99999e-01,9.99881e-01,9.86204e-01,9.99998e-01
6.854797995e-01,9.86323e-01,9.99999e-01,9.99847e-01,9.86474e-01,9.99998e-01
6.889071985e-01,9.86376e-01,9.99999e-01,9.99634e-01,9.86740e-01,9.99996e-01
6.923517345e-01,9.81041e-01,9.99999e-01,9.93991e-01,9.87000e-01,9.99970e-01
6.958134932e-01,9.84060e-01,9.99999e-01,9.96828e-01,9.87255e-01,9.99934e-01
6.992925606e-01,9.84515e-01,9.99999e-01,9.97028e-01,9.87505e-01,9.99942e-01
7.027890234e-01,9.84065e-01,9.99999e-01,9.96312e-01,9.87750e-01,9.99955e-01
7.063029686e-01,9.84909e-01,9.99999e-01,9.96901e-01,9.87991e-01,9.99977e-01
7.098344834e-01,9.85277e-01,9.99999e-01,9.97027e-01,9.88227e-01,9.99986e-01
7.133836558e-01,9.84549e-01,9.99999e-01,9.96070e-01,9.88458e-01,9.99973e-01
7.169505741e-01,9.57410e-01,9.99999e-01,9.68563e-01,9.88684e-01,9.99796e-01
7.205353270e-01,9.73056e-01,9.99999e-01,9.84323e-01,9.88907e-01,9.99641e-01
7.241380036e-01,9.69379e-01,9.99999e-01,9.80339e-01,9.89125e-01,9.99690e-01
7.277586936e-01,9.71513e-01,9.99999e-01,9.82230e-01,9.89338e-01,9.99746e-01
7.313974871e-01,9.70682e-01,9.99999e-01,9.81050e-01,9.89548e-01,9.99881e-01
7.350544745e-01,9.79447e-01,9.99999e-01,9.89626e-01,9.89753e-01,9.99958e-01
7.387297469e-01,9.82371e-01,9.99999e-01,9.92358e-01,9.89954e-01,9.99980e-01
7.424233956e-01,9.86436e-01,9.99999e-01,9.96250e-01,9.90152e-01,9.99995e-01
7.461355126e-01,9.88096e-01,9.99999e-01,9.97729e-01,9.90345e-01,9.99998e-01
7.498661902e-01,9.89486e-01,9.99999e-01,9.98940e-01,9.90535e-01,9.99999e-01
7.536155211e-01,9.90208e-01,9.99999e-01,9.99481e-01,9.90721e-01,9.99999e-01
7.573835987e-01,9.90639e-01,9.99999e-01,9.99732e-01,9.90904e-01,9.99999e-01
7.611705167e-01,9.90918e-01,9.99999e-01,9.99833e-01,9.91083e-01,9.99999e-01
7.649763693e-01,9.91155e-01,9.99999e-01,9.99895e-01,9.91258e-01,9.99999e-01
7.688012511e-01,9.91358e-01,9.99999e-01,9.99927e-01,9.91430e-01,9.99999e-01
7.726452574e-01,9.91539e-01,9.99999e-01,9.99940e-01,9.91598e-01,9.99999e-01
7.765084837e-01,9.91680e-01,9.99999e-01,9.99915e-01,9.91764e-01,9.99999e-01
7.803910261e-01,9.91566e-01,9.99999e-01,9.99636e-01,9.91926e-01,9.99999e-01
7.842929812e-01,9.90826e-01,9.99999e-01,9.98733e-01,9.92084e-01,9.99997e-01
7.882144461e-01,9.89622e-01,9.99999e-01,9.97376e-01,9.92240e-01,9.99983e-01
7.921555184e-01,9.90929e-01,9.99999e-01,9.98555e-01,9.92393e-01,9.99968e-01
7.961162960e-01,9.90000e-01,9.99999e-01,9.97467e-01,9.92543e-01,9.99969e-01
8.000968774e-01,9.89744e-01,9.99999e-01,9.97064e-01,9.92689e-01,9.99967e-01
8.040973618e-01,9.89896e-01,9.99999e-01,9.97065e-01,9.92833e-01,9.99974e-01
8.081178486e-01,9.86418e-01,9.99999e-01,9.93420e-01,9.92974e-01,9.99975e-01
8.121584379e-01,9.65962e-01,9.99999e-01,9.72750e-01,9.93112e-01,9.99906e-01
8.162192301e-01,9.60629e-01,9.99999e-01,9.67495e-01,9.93248e-01,9.99651e-01
8.203003262e-01,9.76892e-01,9.99999e-01,9.83801e-01,9.93381e-01,9.99591e-01
8.244018279e-01,9.70349e-01,9.99999e-01,9.77002e-01,9.93511e-01,9.99675e-01
8.285238370e-01,9.74101e-01,9.99999e-01,9.80586e-01,9.93639e-01,9.99744e-01
8.326664562e-01,9.74100e-01,9.99999e-01,9.80315e-01,9.93764e-01,9.99894e-01
8.368297885e-01,9.79856e-01,9.99999e-01,9.85905e-01,9.93887e-01,9.99975e-01
8.410139374e-01,9.85650e-01,9.99999e-01,9.91605e-01,9.94007e-01,9.99985e-01
8.452190071e-01,9.90016e-01,9.99999e-01,9.95874e-01,9.94125e-01,9.99991e-01
8.494451021e-01,9.91860e-01,9.99999e-01,9.97611e-01,9.94241e-01,9.99992e-01
8.536923276e-01,9.92942e-01,9.99999e-01,9.98583e-01,9.94354e-01,9.99995e-01
8.579607893e-01,9.93599e-01,9.99999e-01,9.99129e-01,9.94466e-01,9.99998e-01
8.622505932e-01,9.94024e-01,9.99999e-01,9.99445e-01,9.94575e-01,9.99999e-01
8.665618462e-01,9.94342e-01,9.99999e-01,9.99657e-01,9.94682e-01,9.99999e-01
8.708946554e-01,9.94398e-01,9.99999e-01,9.99609e-01,9.94786e-01,9.99999e-01
8.752491287e-01,9.94368e-01,9.99999e-01,9.99476e-01,9.94889e-01,9.99998e-01
8.796253743e-01,9.94269e-01,9.99999e-01,9.99277e-01,9.94990e-01,9.99997e-01
8.840235012e-01,9.94262e-01,9.99999e-01,9.99173e-01,9.95088e-01,9.99994e-01
8.884436187e-01,9.92205e-01,9.99999e-01,9.97019e-01,9.95185e-01,9.99985e-01
8.928858368e-01,9.64033e-01,9.99999e-01,9.68684e-01,9.95280e-01,9.99916e-01
8.973502660e-01,9.40083e-01,9.99999e-01,9.44852e-01,9.95373e-01,9.99576e-01
9.018370173e-01,9.66269e-01,9.99999e-01,9.71318e-01,9.95464e-01,9.99333e-01
9.063462024e-01,9.70101e-01,9.99999e-01,9.75003e-01,9.95554e-01,9.99414e-01
9.108779334e-01,9.56374e-01,9.99999e-01,9.61144e-01,9.95641e-01,9.99391e-01
9.154323231e-01,9.51389e-01,9.99999e-01,9.55950e-01,9.95727e-01,9.99497e-01
9.200094847e-01,9.60941e-01,9.99999e-01,9.65254e-01,9.95811e-01,9.99718e-01
9.246095321e-01,9.42327e-01,9.99999e-01,9.46518e-01,9.95894e-01,9.99675e-01
9.292325798e-01,6.85033e-01,9.99999e-01,6.88670e-01,9.95975e-01,9.98736e-01
9.338787427e-01,6.09928e-01,9.99999e-01,6.15551e-01,9.96054e-01,9.94789e-01
9.385481364e-01,8.14209e-01,9.99999e-01,8.22463e-01,9.96132e-01,9.93806e-01
9.432408771e-01,7.54678e-01,9.99999e-01,7.61621e-01,9.96208e-01,9.94654e-01
9.479570815e-01,6.79994e-01,9.99999e-01,6.85514e-01,9.96283e-01,9.95647e-01
9.526968669e-01,7.49089e-01,9.99999e-01,7.53831e-01,9.96356e-01,9.97342e-01
9.574603512e-01,7.69852e-01,9.99999e-01,7.73656e-01,9.96428e-01,9.98649e-01
9.622476530e-01,8.08090e-01,9.99999e-01,8.11686e-01,9.96498e-01,9.99065e-01
9.670588912e-01,8.83360e-01,9.99999e-01,8.86968e-01,9.96567e-01,9.99360e-01
9.718941857e-01,9.24520e-01,9.99999e-01,9.28077e-01,9.96635e-01,9.99529e-01
9.767536566e-01,9.36518e-01,9.99999e-01,9.39955e-01,9.96701e-01,9.99640e-01
9.816374249e-01,9.51908e-01,9.99999e-01,9.55114e-01,9.96766e-01,9.99875e-01
9.865456120e-01,9.68624e-01,9.99999e-01,9.71728e-01,9.96830e-01,9.99973e-01
9.914783401e-01,9.79388e-01,9.99999e-01,9.82447e-01,9.96893e-01,9.99992e-01
9.964357318e-01,9.87383e-01,9.99999e-01,9.90403e-01,9.96954e-01,9.99995e-01
1.001417910e+00,9.91263e-01,9.99999e-01,9.94237e-01,9.97014e-01,9.99993e-01
1.006425000e+00,9.93791e-01,9.99999e-01,9.96716e-01,9.97073e-01,9.99990e-01
1.011457125e+00,9.95086e-01,9.99999e-01,9.97957e-01,9.97131e-01,9.99991e-01
1.016514411e+00,9.95800e-01,9.99999e-01,9.98614e-01,9.97187e-01,9.99993e-01
1.021596983e+00,9.96136e-01,9.99999e-01,9.98896e-01,9.97243e-01,9.99993e-01
1.026704968e+00,9.96435e-01,9.99999e-01,9.99139e-01,9.97297e-01,9.99995e-01
1.031838492e+00,9.96725e-01,9.99999e-01,9.99373e-01,9.97350e-01,9.99998e-01
1.036997685e+00,9.97032e-01,9.99999e-01,9.99628e-01,9.97403e-01,9.99999e-01
1.042182673e+00,9.97013e-01,9.99999e-01,9.99557e-01,9.97454e-01,9.99999e-01
1.047393587e+00,9.96919e-01,9.99999e-01,9.99413e-01,9.97504e-01,9.99999e-01
1.052630555e+00,9.96751e-01,9.99999e-01,9.99195e-01,9.97553e-01,9.99999e-01
1.057893707e+00,9.96263e-01,9.99999e-01,9.98658e-01,9.97601e-01,9.99999e-01
1.063183176e+00,9.95445e-01,9.99999e-01,9.97791e-01,9.97649e-01,9.99998e-01
1.068499092e+00,9.94002e-01,9.99999e-01,9.96300e-01,9.97695e-01,9.99997e-01
1.073841587e+00,9.93421e-01,9.99999e-01,9.95675e-01,9.97741e-01,9.99994e-01
1.079210795e+00,9.92232e-01,9.99999e-01,9.94449e-01,9.97785e-01,9.99984e-01
1.084606849e+00,9.89428e-01,9.99999e-01,9.91615e-01,9.97829e-01,9.99963e-01
1.090029883e+00,9.85839e-01,9.99999e-01,9.88014e-01,9.97872e-01,9.99925e-01
1.095480033e+00,9.65481e-01,9.99999e-01,9.67627e-01,9.97914e-01,9.99866e-01
1.100957433e+00,9.17562e-01,9.99999e-01,9.19668e-01,9.97955e-01,9.99753e-01
1.106462220e+00,8.05880e-01,9.99999e-01,8.07835e-01,9.97995e-01,9.99582e-01
1.111994531e+00,6.34650e-01,9.99999e-01,6.36603e-01,9.98035e-01,9.98894e-01
1.117554504e+00,4.77476e-01,9.99999e-01,4.80311e-01,9.98073e-01,9.96013e-01
1.123142276e+00,5.73132e-01,9.99999e-01,5.79680e-01,9.98111e-01,9.90573e-01
1.128757988e+00,6.98725e-01,9.99999e-01,7.07732e-01,9.98149e-01,9.89103e-01
1.134401778e+00,4.47009e-01,9.99999e-01,4.52013e-01,9.98185e-01,9.90727e-01
1.140073787e+00,8.07346e-01,9.99999e-01,8.14826e-01,9.98221e-01,9.92584e-01
1.145774156e+00,6.44633e-01,9.99999e-01,6.50174e-01,9.98256e-01,9.93209e-01
1.151503026e+00,6.14931e-01,9.99999e-01,6.18326e-01,9.98290e-01,9.96211e-01
1.157260541e+00,6.69950e-01,9.99999e-01,6.71836e-01,9.98324e-01,9.98865e-01
1.163046844e+00,7.43839e-01,9.99999e-01,7.45302e-01,9.98357e-01,9.99677e-01
1.168862078e+00,8.14367e-01,9.99999e-01,8.15815e-01,9.98390e-01,9.99833e-01
1.174706389e+00,8.80407e-01,9.99999e-01,8.81991e-01,9.98421e-01,9.99779e-01
1.180579921e+00,9.24665e-01,9.99999e-01,9.26405e-01,9.98453e-01,9.99667e-01
1.186482820e+00,9.56012e-01,9.99999e-01,9.57790e-01,9.98483e-01,9.99658e-01
1.192415234e+00,9.73478e-01,9.99999e-01,9.75176e-01,9.98513e-01,9.99744e-01
1.198377311e+00,9.77398e-01,9.99999e-01,9.79060e-01,9.98542e-01,9.99758e-01
1.204369197e+00,9.78540e-01,9.99999e-01,9.80153e-01,9.98571e-01,9.99781e-01
1.210391043e+00,9.79512e-01,9.99999e-01,9.81015e-01,9.98599e-01,9.99866e-01
1.216442998e+00,9.82376e-01,9.99999e-01,9.83806e-01,9.98627e-01,9.99918e-01
1.222525213e+00,9.86004e-01,9.99999e-01,9.87382e-01,9.98654e-01,9.99949e-01
1.228637839e+00,9.89897e-01,9.99999e-01,9.91227e-01,9.98681e-01,9.99976e-01
1.234781029e+00,9.92183e-01,9.99999e-01,9.93474e-01,9.98707e-01,9.99992e-01
1.240954934e+00,9.94608e-01,9.99999e-01,9.95872e-01,9.98732e-01,9.99997e-01
1.247159708e+00,9.95543e-01,9.99999e-01,9.96783e-01,9.98757e-01,9.99998e-01
1.253395507e+00,9.95931e-01,9.99999e-01,9.97146e-01,9.98782e-01,9.99997e-01
1.259662485e+00,9.96100e-01,9.99999e-01,9.97293e-01,9.98806e-01,9.99997e-01
1.265960797e+00,9.94501e-01,9.99999e-01,9.95670e-01,9.98829e-01,9.99995e-01
1.272290601e+00,9.92499e-01,9.99999e-01,9.93646e-01,9.98852e-01,9.99992e-01
1.278652054e+00,9.85478e-01,9.99999e-01,9.86600e-01,9.98875e-01,9.99986e-01
1.285045314e+00,9.77885e-01,9.99999e-01,9.78988e-01,9.98897e-01,9.99975e-01
1.291470541e+00,9.57071e-01,9.99999e-01,9.58147e-01,9.98919e-01,9.99956e-01
1.297927893e+00,9.44571e-01,9.99999e-01,9.45648e-01,9.98940e-01,9.99919e-01
1.304417533e+00,9.29308e-01,9.99999e-01,9.30431e-01,9.98961e-01,9.99829e-01
1.310939621e+00,9.19699e-01,9.99999e-01,9.20956e-01,9.98982e-01,9.99651e-01
1.317494319e+00,9.12690e-01,9.99999e-01,9.14190e-01,9.99002e-01,9.99354e-01
1.324081790e+00,8.72575e-01,9.99999e-01,8.74349e-01,9.99021e-01,9.98947e-01
1.330702199e+00,5.74027e-01,9.99999e-01,5.75622e-01,9.99041e-01,9.98185e-01
1.337355710e+00,2.46732e-01,9.99999e-01,2.47829e-01,9.99060e-01,9.96509e-01
1.344042489e+00,2.67187e-02,9.99999e-01,2.70264e-02,9.99078e-01,9.89524e-01
1.350762701e+00,6.97730e-04,9.99999e-01,7.23997e-04,9.99096e-01,9.64590e-01
1.357516515e+00,4.87064e-05,9.99999e-01,5.41902e-05,9.99114e-01,8.99600e-01
1.364304097e+00,1.21425e-03,9.99999e-01,1.46290e-03,9.99132e-01,8.30747e-01
1.371125618e+00,1.02769e-02,9.99999e-01,1.22506e-02,9.99149e-01,8.39605e-01
1.377981246e+00,2.08667e-02,9.99999e-01,2.42603e-02,9.99165e-01,8.60830e-01
1.384871152e+00,1.18579e-03,9.99999e-01,1.36667e-03,9.99182e-01,8.68361e-01
1.391795508e+00,1.78260e-03,9.99999e-01,2.03904e-03,9.99198e-01,8.74931e-01
1.398754485e+00,4.54405e-03,9.99999e-01,5.07616e-03,9.99214e-01,8.95877e-01
1.405748258e+00,4.47738e-03,9.99999e-01,4.77830e-03,9.99229e-01,9.37744e-01
1.412776999e+00,4.99211e-03,9.99999e-01,5.14467e-03,9.99245e-01,9.71078e-01
1.419840884e+00,7.21300e-03,9.99999e-01,7.31182e-03,9.99259e-01,9.87214e-01
1.426940089e+00,2.07318e-02,9.99999e-01,2.09506e-02,9.99274e-01,9.90271e-01
1.434074789e+00,5.15326e-02,9.99999e-01,5.21676e-02,9.99288e-01,9.88529e-01
1.441245163e+00,1.06922e-01,9.99999e-01,1.08342e-01,9.99302e-01,9.87582e-01
1.448451389e+00,2.01551e-01,9.99999e-01,2.03908e-01,9.99316e-01,9.89118e-01
1.455693646e+00,3.50129e-01,9.99999e-01,3.53359e-01,9.99330e-01,9.91522e-01
1.462972114e+00,4.07803e-01,9.99999e-01,4.11397e-01,9.99343e-01,9.91913e-01
1.470286975e+00,3.50816e-01,9.99999e-01,3.53855e-01,9.99356e-01,9.92050e-01
