#,Wave/freq,Total,N2,H2O,Rayleigh,CIA
4.000000000e-01,6.64410e-01,9.99999e-01,9.99953e-01,6.64441e-01,9.99999e-01
4.020000000e-01,6.69814e-01,9.99999e-01,9.99971e-01,6.69833e-01,9.99999e-01
4.040100000e-01,6.75148e-01,9.99999e-01,9.99987e-01,6.75156e-01,9.99999e-01
4.060300500e-01,6.80413e-01,9.99999e-01,9.99996e-01,6.80415e-01,9.99999e-01
4.080602003e-01,6.85609e-01,9.99999e-01,9.99998e-01,6.85610e-01,9.99999e-01
4.101005013e-01,6.90741e-01,9.99999e-01,9.99999e-01,6.90741e-01,9.99999e-01
4.121510038e-01,6.95806e-01,9.99999e-01,9.99997e-01,6.95807e-01,9.99999e-01
4.142117588e-01,7.00801e-01,9.99999e-01,9.99986e-01,7.00810e-01,9.99999e-01
4.162828176e-01,7.05708e-01,9.99999e-01,9.99942e-01,7.05748e-01,9.99999e-01
4.183642317e-01,7.10599e-01,9.99999e-01,9.99965e-01,7.10623e-01,9.99999e-01
4.204560528e-01,7.15420e-01,9.99999e-01,9.99978e-01,7.15435e-01,9.99999e-01
4.225583331e-01,7.20177e-01,9.99999e-01,9.99991e-01,7.20182e-01,9.99999e-01
4.246711247e-01,7.24862e-01,9.99999e-01,9.99993e-01,7.24867e-01,9.99999e-01
4.267944804e-01,7.29482e-01,9.99999e-01,9.99990e-01,7.29489e-01,9.99999e-01
4.289284528e-01,7.34043e-01,9.99999e-01,9.99992e-01,7.34048e-01,9.99999e-01
4.310730950e-01,7.38542e-01,9.99999e-01,9.99996e-01,7.38544e-01,9.99999e-01
4.332284605e-01,7.42978e-01,9.99999e-01,9.99998e-01,7.42979e-01,9.99999e-01
4.353946028e-01,7.47351e-01,9.99999e-01,9.99999e-01,7.47352e-01,9.99999e-01
4.375715758e-01,7.51659e-01,9.99999e-01,9.99993e-01,7.51663e-01,9.99999e-01
4.397594337e-01,7.55875e-01,9.99999e-01,9.99948e-01,7.55913e-01,9.99999e-01
4.419582309e-01,7.59906e-01,9.99999e-01,9.99739e-01,7.60103e-01,9.99999e-01
4.441680220e-01,7.64082e-01,9.99999e-01,9.99802e-01,7.64233e-01,9.99999e-01
4.463888621e-01,7.68143e-01,9.99999e-01,9.99792e-01,7.68302e-01,9.99999e-01
4.486208064e-01,7.72214e-01,9.99999e-01,9.99871e-01,7.72313e-01,9.99999e-01
4.508639105e-01,7.76218e-01,9.99999e-01,9.99939e-01,7.76264e-01,9.99999e-01
4.531182300e-01,7.80139e-01,9.99999e-01,9.99975e-01,7.80157e-01,9.99999e-01
4.553838212e-01,7.83980e-01,9.99999e-01,9.99983e-01,7.83992e-01,9.99999e-01
4.576607403e-01,7.87764e-01,9.99999e-01,9.99992e-01,7.87770e-01,9.99999e-01
4.599490440e-01,7.91486e-01,9.99999e-01,9.99994e-01,7.91490e-01,9.99999e-01
4.622487892e-01,7.95154e-01,9.99999e-01,9.99998e-01,7.95155e-01,9.99999e-01
4.645600332e-01,7.98760e-01,9.99999e-01,9.99995e-01,7.98763e-01,9.99999e-01
4.668828333e-01,8.02267e-01,9.99999e-01,9.99938e-01,8.02316e-01,9.99999e-01
4.692172475e-01,8.05710e-01,9.99999e-01,9.99869e-01,8.05814e-01,9.99999e-01
4.715633337e-01,8.09189e-01,9.99999e-01,9.99914e-01,8.09258e-01,9.99999e-01
4.739211504e-01,8.12582e-01,9.99999e-01,9.99918e-01,8.12648e-01,9.99999e-01
4.762907561e-01,8.15951e-01,9.99999e-01,9.99957e-01,8.15985e-01,9.99999e-01
4.786722099e-01,8.19255e-01,9.99999e-01,9.99982e-01,8.19269e-01,9.99999e-01
4.810655710e-01,8.22497e-01,9.99999e-01,9.99994e-01,8.22501e-01,9.99999e-01
4.834708988e-01,8.25640e-01,9.99999e-01,9.99948e-01,8.25682e-01,9.99999e-01
4.858882533e-01,8.28736e-01,9.99999e-01,9.99908e-01,8.28812e-01,9.99999e-01
4.883176946e-01,8.31827e-01,9.99999e-01,9.99922e-01,8.31891e-01,9.99999e-01
4.907592831e-01,8.34864e-01,9.99999e-01,9.99930e-01,8.34921e-01,9.99999e-01
4.932130795e-01,8.37861e-01,9.99999e-01,9.99950e-01,8.37902e-01,9.99999e-01
4.956791449e-01,8.40812e-01,9.99999e-01,9.99973e-01,8.40834e-01,9.99999e-01
4.981575406e-01,8.43608e-01,9.99999e-01,9.99868e-01,8.43718e-01,9.99999e-01
5.006483283e-01,8.46263e-01,9.99999e-01,9.99656e-01,8.46555e-01,9.99997e-01
5.031515699e-01,8.47870e-01,9.99999e-01,9.98280e-01,8.49345e-01,9.99981e-01
5.056673278e-01,8.51302e-01,9.99999e-01,9.99096e-01,8.52089e-01,9.99978e-01
5.081956644e-01,8.53804e-01,9.99999e-01,9.98861e-01,8.54787e-01,9.99986e-01
5.107366428e-01,8.56780e-01,9.99999e-01,9.99231e-01,8.57441e-01,9.99997e-01
5.132903260e-01,8.59673e-01,9.99999e-01,9.99561e-01,8.60049e-01,9.99999e-01
5.158567776e-01,8.62455e-01,9.99999e-01,9.99814e-01,8.62614e-01,9.99999e-01
5.184360615e-01,8.65072e-01,9.99999e-01,9.99925e-01,8.65136e-01,9.99999e-01
5.210282418e-01,8.67591e-01,9.99999e-01,9.99971e-01,8.67615e-01,9.99999e-01
5.236333830e-01,8.69955e-01,9.99999e-01,9.99887e-01,8.70052e-01,9.99998e-01
5.262515499e-01,8.72386e-01,9.99999e-01,9.99929e-01,8.72448e-01,9.99998e-01
5.288828077e-01,8.74746e-01,9.99999e-01,9.99934e-01,8.74803e-01,9.99998e-01
5.315272217e-01,8.77068e-01,9.99999e-01,9.99943e-01,8.77117e-01,9.99999e-01
5.341848578e-01,8.79359e-01,9.99999e-01,9.99962e-01,8.79391e-01,9.99999e-01
5.368557821e-01,8.81511e-01,9.99999e-01,9.99868e-01,8.81627e-01,9.99999e-01
5.395400610e-01,8.83398e-01,9.99999e-01,9.99522e-01,8.83823e-01,9.99995e-01
5.422377613e-01,8.85437e-01,9.99999e-01,9.99395e-01,8.85982e-01,9.99988e-01
5.449489501e-01,8.87589e-01,9.99999e-01,9.99431e-01,8.88103e-01,9.99988e-01
5.476736949e-01,8.89740e-01,9.99999e-01,9.99502e-01,8.90187e-01,9.99993e-01
5.504120634e-01,8.91911e-01,9.99999e-01,9.99638e-01,8.92235e-01,9.99997e-01
5.531641237e-01,8.94084e-01,9.99999e-01,9.99818e-01,8.94247e-01,9.99999e-01
5.559299443e-01,8.96145e-01,9.99999e-01,9.99912e-01,8.96223e-01,9.99999e-01
5.587095940e-01,8.98115e-01,9.99999e-01,9.99944e-01,8.98165e-01,9.99999e-01
5.615031420e-01,9.00017e-01,9.99999e-01,9.99938e-01,9.00072e-01,9.99999e-01
5.643106577e-01,9.01882e-01,9.99999e-01,9.99928e-01,9.01946e-01,9.99998e-01
5.671322110e-01,9.02995e-01,9.99999e-01,9.99130e-01,9.03786e-01,9.99991e-01
5.699678720e-01,9.04767e-01,9.99999e-01,9.99108e-01,9.05594e-01,9.99976e-01
5.728177114e-01,9.06498e-01,9.99999e-01,9.99057e-01,9.07370e-01,9.99980e-01
5.756818000e-01,9.08320e-01,9.99999e-01,9.99137e-01,9.09114e-01,9.99988e-01
5.785602090e-01,9.10141e-01,9.99999e-01,9.99250e-01,9.10826e-01,9.99996e-01
5.814530100e-01,9.11818e-01,9.99999e-01,9.99244e-01,9.12508e-01,9.99997e-01
5.843602750e-01,9.13325e-01,9.99999e-01,9.99091e-01,9.14160e-01,9.99994e-01
5.872820764e-01,9.08591e-01,9.99999e-01,9.92201e-01,9.15782e-01,9.99945e-01
5.902184868e-01,9.08676e-01,9.99999e-01,9.90664e-01,9.17375e-01,9.99851e-01
5.931695792e-01,9.12719e-01,9.99999e-01,9.93373e-01,9.18939e-01,9.99856e-01
5.961354271e-01,9.13733e-01,9.99999e-01,9.92757e-01,9.20474e-01,9.99917e-01
5.991161043e-01,9.17092e-01,9.99999e-01,9.94720e-01,9.21982e-01,9.99974e-01
6.021116848e-01,9.20696e-01,9.99999e-01,9.97006e-01,9.23463e-01,9.99996e-01
6.051222432e-01,9.23516e-01,9.99999e-01,9.98485e-01,9.24916e-01,9.99999e-01
6.081478544e-01,9.25737e-01,9.99999e-01,9.99345e-01,9.26343e-01,9.99999e-01
6.111885937e-01,9.27489e-01,9.99999e-01,9.99723e-01,9.27744e-01,9.99999e-01
6.142445367e-01,9.29005e-01,9.99999e-01,9.99876e-01,9.29120e-01,9.99999e-01
6.173157594e-01,9.30406e-01,9.99999e-01,9.99931e-01,9.30470e-01,9.99999e-01
6.204023382e-01,9.31741e-01,9.99999e-01,9.99941e-01,9.31795e-01,9.99999e-01
6.235043498e-01,9.32852e-01,9.99999e-01,9.99738e-01,9.33096e-01,9.99998e-01
6.266218716e-01,9.33102e-01,9.99999e-01,9.98647e-01,9.34374e-01,9.99990e-01
6.297549810e-01,9.35145e-01,9.99999e-01,9.99503e-01,9.35627e-01,9.99980e-01
6.329037559e-01,9.35929e-01,9.99999e-01,9.99023e-01,9.36858e-01,9.99984e-01
6.360682746e-01,9.37272e-01,9.99999e-01,9.99163e-01,9.38065e-01,9.99990e-01
6.392486160e-01,9.38232e-01,9.99999e-01,9.98918e-01,9.39251e-01,9.99995e-01
6.424448591e-01,9.39033e-01,9.99999e-01,9.98537e-01,9.40414e-01,9.99992e-01
6.456570834e-01,9.35142e-01,9.99999e-01,9.93227e-01,9.41556e-01,9.99958e-01
6.488853688e-01,9.37970e-01,9.99999e-01,9.95110e-01,9.42677e-01,9.99895e-01
6.521297956e-01,9.38995e-01,9.99999e-01,9.95018e-01,9.43777e-01,9.99913e-01
6.553904446e-01,9.40079e-01,9.99999e-01,9.95007e-01,9.44856e-01,9.99935e-01
6.586673968e-01,9.41874e-01,9.99999e-01,9.95748e-01,9.45915e-01,9.99978e-01
6.619607338e-01,9.44706e-01,9.99999e-01,9.97629e-01,9.46955e-01,9.99994e-01
6.652705375e-01,9.46624e-01,9.99999e-01,9.98576e-01,9.47975e-01,9.99997e-01
6.685968902e-01,9.48402e-01,9.99999e-01,9.99395e-01,9.48975e-01,9.99999e-01
6.719398746e-01,9.49667e-01,9.99999e-01,9.99693e-01,9.49958e-01,9.99999e-01
6.752995740e-01,9.50768e-01,9.99999e-01,9.99837e-01,9.50921e-01,9.99999e-01
6.786760719e-01,9.51636e-01,9.99999e-01,9.99756e-01,9.51867e-01,9.99999e-01
6.820694522e-01,9.52396e-01,9.99999e-01,9.99582e-01,9.52795e-01,9.99997e-01
6.854797995e-01,9.53193e-01,9.99999e-01,9.99466e-01,9.53705e-01,9.99994e-01
6.889071985e-01,9.52939e-01,9.99999e-01,9.98272e-01,9.54599e-01,9.99988e-01
6.923517345e-01,9.35237e-01,9.99999e-01,9.78916e-01,9.55475e-01,9.99898e-01
6.958134932e-01,9.45918e-01,9.99999e-01,9.89327e-01,9.56335e-01,9.99776e-01
6.992925606e-01,9.47009e-01,9.99999e-01,9.89573e-01,9.57179e-01,9.99798e-01
7.027890234e-01,9.45672e-01,9.99999e-01,9.87275e-01,9.58007e-01,9.99846e-01
7.063029686e-01,9.48466e-01,9.99999e-01,9.89277e-01,9.58819e-01,9.99923e-01
7.098344834e-01,9.49698e-01,9.99999e-01,9.89709e-01,9.59616e-01,9.99954e-01
7.133836558e-01,9.46957e-01,9.99999e-01,9.86093e-01,9.60397e-01,9.99909e-01
7.169505741e-01,8.59422e-01,9.99999e-01,8.94778e-01,9.61164e-01,9.99293e-01
7.205353270e-01,9.10954e-01,9.99999e-01,9.48199e-01,9.61916e-01,9.98754e-01
7.241380036e-01,8.97445e-01,9.99999e-01,9.33263e-01,9.62654e-01,9.98924e-01
7.277586936e-01,9.04464e-01,9.99999e-01,9.39670e-01,9.63378e-01,9.99120e-01
7.313974871e-01,9.02404e-01,9.99999e-01,9.36402e-01,9.64089e-01,9.99587e-01
7.350544745e-01,9.30540e-01,9.99999e-01,9.64641e-01,9.64785e-01,9.99856e-01
7.387297469e-01,9.40177e-01,9.99999e-01,9.73866e-01,9.65469e-01,9.99933e-01
7.424233956e-01,9.53728e-01,9.99999e-01,9.87164e-01,9.66139e-01,9.99988e-01
7.461355126e-01,9.59242e-01,9.99999e-01,9.92186e-01,9.66797e-01,9.99997e-01
7.498661902e-01,9.63929e-01,9.99999e-01,9.96369e-01,9.67442e-01,9.99998e-01
7.536155211e-01,9.66342e-01,9.99999e-01,9.98210e-01,9.68074e-01,9.99999e-01
7.573835987e-01,9.67803e-01,9.99999e-01,9.99079e-01,9.68695e-01,9.99999e-01
7.611705167e-01,9.68749e-01,9.99999e-01,9.99427e-01,9.69304e-01,9.99999e-01
7.649763693e-01,9.69553e-01,9.99999e-01,9.99640e-01,9.69901e-01,9.99999e-01
7.688012511e-01,9.70243e-01,9.99999e-01,9.99748e-01,9.70487e-01,9.99999e-01
7.726452574e-01,9.70860e-01,9.99999e-01,9.99793e-01,9.71061e-01,9.99999e-01
7.765084837e-01,9.71336e-01,9.99999e-01,9.99703e-01,9.71624e-01,9.99999e-01
7.803910261e-01,9.70929e-01,9.99999e-01,9.98716e-01,9.72177e-01,9.99998e-01
7.842929812e-01,9.68359e-01,9.99999e-01,9.95525e-01,9.72719e-01,9.99991e-01
7.882144461e-01,9.64336e-01,9.99999e-01,9.90902e-01,9.73251e-01,9.99936e-01
7.921555184e-01,9.68834e-01,9.99999e-01,9.95036e-01,9.73772e-01,9.99890e-01
7.961162960e-01,9.65523e-01,9.99999e-01,9.91110e-01,9.74283e-01,9.99896e-01
8.000968774e-01,9.64749e-01,9.99999e-01,9.89813e-01,9.74785e-01,9.99889e-01
8.040973618e-01,9.65240e-01,9.99999e-01,9.89792e-01,9.75277e-01,9.99915e-01
8.081178486e-01,9.53207e-01,9.99999e-01,9.76969e-01,9.75759e-01,9.99914e-01
8.121584379e-01,8.86004e-01,9.99999e-01,9.07867e-01,9.76232e-01,9.99677e-01
8.162192301e-01,8.71182e-01,9.99999e-01,8.93049e-01,9.76696e-01,9.98788e-01
8.203003262e-01,9.21604e-01,9.99999e-01,9.44493e-01,9.77151e-01,9.98581e-01
8.244018279e-01,9.04190e-01,9.99999e-01,9.25955e-01,9.77597e-01,9.98870e-01
8.285238370e-01,9.12727e-01,9.99999e-01,9.34053e-01,9.78035e-01,9.99112e-01
8.326664562e-01,9.13318e-01,9.99999e-01,9.33761e-01,9.78464e-01,9.99632e-01
8.368297885e-01,9.32053e-01,9.99999e-01,9.52237e-01,9.78885e-01,9.99915e-01
8.410139374e-01,9.51192e-01,9.99999e-01,9.71347e-01,9.79297e-01,9.99950e-01
8.452190071e-01,9.65830e-01,9.99999e-01,9.85868e-01,9.79702e-01,9.99970e-01
8.494451021e-01,9.71978e-01,9.99999e-01,9.91736e-01,9.80099e-01,9.99976e-01
8.536923276e-01,9.75697e-01,9.99999e-01,9.95126e-01,9.80488e-01,9.99985e-01
8.579607893e-01,9.77910e-01,9.99999e-01,9.96985e-01,9.80870e-01,9.99996e-01
8.622505932e-01,9.79370e-01,9.99999e-01,9.98089e-01,9.81244e-01,9.99998e-01
8.665618462e-01,9.80446e-01,9.99999e-01,9.98812e-01,9.81611e-01,9.99999e-01
8.708946554e-01,9.80632e-01,9.99999e-01,9.98636e-01,9.81971e-01,9.99998e-01
8.752491287e-01,9.80533e-01,9.99999e-01,9.98178e-01,9.82324e-01,9.99997e-01
8.796253743e-01,9.80176e-01,9.99999e-01,9.97467e-01,9.82670e-01,9.99993e-01
8.840235012e-01,9.80153e-01,9.99999e-01,9.97110e-01,9.83010e-01,9.99982e-01
8.884436187e-01,9.72731e-01,9.99999e-01,9.89257e-01,9.83342e-01,9.99949e-01
8.928858368e-01,8.79745e-01,9.99999e-01,8.94608e-01,9.83669e-01,9.99711e-01
8.973502660e-01,8.09156e-01,9.99999e-01,8.23535e-01,9.83989e-01,9.98526e-01
9.018370173e-01,8.90322e-01,9.99999e-01,9.06619e-01,9.84302e-01,9.97684e-01
9.063462024e-01,8.99532e-01,9.99999e-01,9.15454e-01,9.84610e-01,9.97965e-01
9.108779334e-01,8.57197e-01,9.99999e-01,8.72172e-01,9.84912e-01,9.97885e-01
9.154323231e-01,8.42074e-01,9.99999e-01,8.56213e-01,9.85207e-01,9.98252e-01
9.200094847e-01,8.72354e-01,9.99999e-01,8.86057e-01,9.85497e-01,9.99021e-01
9.246095321e-01,8.14119e-01,9.99999e-01,8.26793e-01,9.85782e-01,9.98872e-01
9.292325798e-01,2.92227e-01,9.99999e-01,2.97976e-01,9.86061e-01,9.94568e-01
9.338787427e-01,2.07880e-01,9.99999e-01,2.14950e-01,9.86334e-01,9.80506e-01
9.385481364e-01,5.17384e-01,9.99999e-01,5.35875e-01,9.86602e-01,9.78603e-01
9.432408771e-01,4.11483e-01,9.99999e-01,4.24813e-01,9.86865e-01,9.81513e-01
9.479570815e-01,3.01188e-01,9.99999e-01,3.09786e-01,9.87123e-01,9.84928e-01
9.526968669e-01,3.99555e-01,9.99999e-01,4.08429e-01,9.87376e-01,9.90779e-01
9.574603512e-01,4.21236e-01,9.99999e-01,4.28526e-01,9.87623e-01,9.95305e-01
9.622476530e-01,4.91553e-01,9.99999e-01,4.99212e-01,9.87866e-01,9.96751e-01
9.670588912e-01,6.58455e-01,9.99999e-01,6.67803e-01,9.88105e-01,9.97870e-01
9.718941857e-01,7.63280e-01,9.99999e-01,7.73547e-01,9.88338e-01,9.98368e-01
9.767536566e-01,7.97563e-01,9.99999e-01,8.07796e-01,9.88567e-01,9.98748e-01
9.816374249e-01,8.43847e-01,9.99999e-01,8.53781e-01,9.88792e-01,9.99566e-01
9.865456120e-01,8.95807e-01,9.99999e-01,9.05841e-01,9.89012e-01,9.99909e-01
9.914783401e-01,9.30446e-01,9.99999e-01,9.40600e-01,9.89228e-01,9.99974e-01
9.964357318e-01,9.56981e-01,9.99999e-01,9.67208e-01,9.89439e-01,9.99984e-01
1.001417910e+00,9.70059e-01,9.99999e-01,9.80228e-01,9.89647e-01,9.99977e-01
1.006425000e+00,9.78582e-01,9.99999e-01,9.88646e-01,9.89850e-01,9.99967e-01
1.011457125e+00,9.83054e-01,9.99999e-01,9.92962e-01,9.90050e-01,9.99969e-01
1.016514411e+00,9.85481e-01,9.99999e-01,9.95208e-01,9.90245e-01,9.99978e-01
1.021596983e+00,9.86631e-01,9.99999e-01,9.96176e-01,9.90437e-01,9.99979e-01
1.026704968e+00,9.87656e-01,9.99999e-01,9.97015e-01,9.90625e-01,9.99986e-01
1.031838492e+00,9.88662e-01,9.99999e-01,9.97835e-01,9.90809e-01,9.99995e-01
1.036997685e+00,9.89712e-01,9.99999e-01,9.98710e-01,9.90990e-01,9.99998e-01
1.042182673e+00,9.89636e-01,9.99999e-01,9.98455e-01,9.91167e-01,9.99999e-01
1.047393587e+00,9.89316e-01,9.99999e-01,9.97956e-01,9.91341e-01,9.99999e-01
1.052630555e+00,9.88727e-01,9.99999e-01,9.97192e-01,9.91511e-01,9.99998e-01
1.057893707e+00,9.87023e-01,9.99999e-01,9.95307e-01,9.91678e-01,9.99997e-01
1.063183176e+00,9.84200e-01,9.99999e-01,9.92299e-01,9.91842e-01,9.99995e-01
1.068499092e+00,9.79260e-01,9.99999e-01,9.87162e-01,9.92002e-01,9.99990e-01
1.073841587e+00,9.77220e-01,9.99999e-01,9.84960e-01,9.92160e-01,9.99980e-01
1.079210795e+00,9.73255e-01,9.99999e-01,9.80843e-01,9.92314e-01,9.99948e-01
1.084606849e+00,9.63651e-01,9.99999e-01,9.71086e-01,9.92465e-01,9.99875e-01
1.090029883e+00,9.51099e-01,9.99999e-01,9.58422e-01,9.92613e-01,9.99742e-01
1.095480033e+00,8.84241e-01,9.99999e-01,8.91104e-01,9.92759e-01,9.99535e-01
1.100957433e+00,7.41484e-01,9.99999e-01,7.47424e-01,9.92901e-01,9.99144e-01
1.106462220e+00,4.80427e-01,9.99999e-01,4.84496e-01,9.93041e-01,9.98549e-01
1.111994531e+00,2.23388e-01,9.99999e-01,2.25790e-01,9.93178e-01,9.96155e-01
1.117554504e+00,9.29898e-02,9.99999e-01,9.49264e-02,9.93312e-01,9.86192e-01
1.123142276e+00,1.86744e-01,9.99999e-01,1.94278e-01,9.93444e-01,9.67565e-01
1.128757988e+00,3.14219e-01,9.99999e-01,3.28547e-01,9.93573e-01,9.62575e-01
1.134401778e+00,1.48855e-01,9.99999e-01,1.54737e-01,9.93699e-01,9.68086e-01
1.140073787e+00,4.87522e-01,9.99999e-01,5.03429e-01,9.93823e-01,9.74418e-01
1.145774156e+00,2.46924e-01,9.99999e-01,2.54391e-01,9.93945e-01,9.76558e-01
1.151503026e+00,2.16054e-01,9.99999e-01,2.20235e-01,9.94064e-01,9.86872e-01
1.157260541e+00,2.63758e-01,9.99999e-01,2.66352e-01,9.94181e-01,9.96056e-01
1.163046844e+00,3.71951e-01,9.99999e-01,3.74503e-01,9.94296e-01,9.98880e-01
1.168862078e+00,4.96101e-01,9.99999e-01,4.99182e-01,9.94408e-01,9.99416e-01
1.174706389e+00,6.46606e-01,9.99999e-01,6.50692e-01,9.94518e-01,9.99196e-01
1.180579921e+00,7.64171e-01,9.99999e-01,7.69188e-01,9.94626e-01,9.98843e-01
1.186482820e+00,8.55976e-01,9.99999e-01,8.61530e-01,9.94732e-01,9.98813e-01
1.192415234e+00,9.10935e-01,9.99999e-01,9.16477e-01,9.94836e-01,9.99111e-01
1.198377311e+00,9.23509e-01,9.99999e-01,9.28991e-01,9.94938e-01,9.99156e-01
1.204369197e+00,9.27546e-01,9.99999e-01,9.32856e-01,9.95037e-01,9.99265e-01
1.210391043e+00,9.30668e-01,9.99999e-01,9.35649e-01,9.95135e-01,9.99537e-01
1.216442998e+00,9.40366e-01,9.99999e-01,9.45139e-01,9.95231e-01,9.99716e-01
1.222525213e+00,9.52301e-01,9.99999e-01,9.56941e-01,9.95325e-01,9.99823e-01
1.228637839e+00,9.65348e-01,9.99999e-01,9.69870e-01,9.95417e-01,9.99917e-01
1.234781029e+00,9.73164e-01,9.99999e-01,9.77578e-01,9.95507e-01,9.99976e-01
1.240954934e+00,9.81399e-01,9.99999e-01,9.85746e-01,9.95596e-01,9.99992e-01
1.247159708e+00,9.84622e-01,9.99999e-01,9.88895e-01,9.95683e-01,9.99995e-01
1.253395507e+00,9.85922e-01,9.99999e-01,9.90117e-01,9.95768e-01,9.99994e-01
1.259662485e+00,9.86464e-01,9.99999e-01,9.90582e-01,9.95851e-01,9.99990e-01
1.265960797e+00,9.81016e-01,9.99999e-01,9.85036e-01,9.95933e-01,9.99984e-01
1.272290601e+00,9.72576e-01,9.99999e-01,9.76493e-01,9.96013e-01,9.99973e-01
1.278652054e+00,9.50107e-01,9.99999e-01,9.53877e-01,9.96092e-01,9.99953e-01
1.285045314e+00,9.14331e-01,9.99999e-01,9.17924e-01,9.96169e-01,9.99914e-01
1.291470541e+00,8.58097e-01,9.99999e-01,8.61460e-01,9.96244e-01,9.99850e-01
1.297927893e+00,8.06074e-01,9.99999e-01,8.09278e-01,9.96318e-01,9.99720e-01
1.304417533e+00,7.77093e-01,9.99999e-01,7.80368e-01,9.96391e-01,9.99408e-01
1.310939621e+00,7.27466e-01,9.99999e-01,7.30935e-01,9.96462e-01,9.98786e-01
1.317494319e+00,7.31495e-01,9.99999e-01,7.35690e-01,9.96532e-01,9.97757e-01
1.324081790e+00,6.31996e-01,9.99999e-01,6.36688e-01,9.96600e-01,9.96015e-01
1.330702199e+00,2.15103e-01,9.99999e-01,2.17288e-01,9.96667e-01,9.93253e-01
1.337355710e+00,1.09326e-02,9.99999e-01,1.11027e-02,9.96733e-01,9.87901e-01
1.344042489e+00,2.56587e-05,9.99999e-01,2.67024e-05,9.96797e-01,9.64002e-01
1.350762701e+00,9.12822e-10,9.99999e-01,1.03816e-09,9.96860e-01,8.82040e-01
1.357516515e+00,3.53298e-14,9.99999e-01,5.12222e-14,9.96922e-01,6.91864e-01
1.364304097e+00,3.48434e-09,9.99999e-01,6.66512e-09,9.96983e-01,5.24354e-01
1.371125618e+00,3.32833e-06,9.99999e-01,6.13549e-06,9.97042e-01,5.44079e-01
1.377981246e+00,1.15349e-05,9.99999e-01,1.94923e-05,9.97101e-01,5.93487e-01
1.384871152e+00,4.96448e-08,9.99999e-01,8.09561e-08,9.97158e-01,6.14978e-01
1.391795508e+00,4.21991e-09,9.99999e-01,6.72630e-09,9.97214e-01,6.29126e-01
1.398754485e+00,2.35952e-07,9.99999e-01,3.46946e-07,9.97269e-01,6.81945e-01
1.405748258e+00,2.66551e-07,9.99999e-01,3.34297e-07,9.97323e-01,7.99485e-01
1.412776999e+00,3.21201e-07,9.99999e-01,3.56690e-07,9.97375e-01,9.02871e-01
1.419840884e+00,7.02812e-07,9.99999e-01,7.36909e-07,9.97427e-01,9.56187e-01
1.426940089e+00,3.14354e-05,9.99999e-01,3.26059e-05,9.97478e-01,9.66536e-01
1.434074789e+00,2.40446e-04,9.99999e-01,2.50920e-04,9.97528e-01,9.60632e-01
1.441245163e+00,1.11283e-03,9.99999e-01,1.16513e-03,9.97576e-01,9.57429e-01
1.448451389e+00,9.04762e-03,9.99998e-01,9.42127e-03,9.97624e-01,9.62625e-01
1.455693646e+00,4.03065e-02,9.99999e-01,4.16159e-02,9.97671e-01,9.70795e-01
1.462972114e+00,5.61605e-02,9.99999e-01,5.79028e-02,9.97717e-01,9.72128e-01
1.470286975e+00,3.62082e-02,9.99999e-01,3.73118e-02,9.97762e-01,9.72596e-01
