#,Wave/freq,Total,N2,H2O,Rayleigh,CIA
4.000000000e-01,8.94081e-01,9.99999e-01,9.99986e-01,8.94092e-01,9.99999e-01
4.020000000e-01,8.96066e-01,9.99999e-01,9.99991e-01,8.96073e-01,9.99999e-01
4.040100000e-01,8.98015e-01,9.99999e-01,9.99996e-01,8.98018e-01,9.99999e-01
4.060300500e-01,8.99927e-01,9.99999e-01,9.99998e-01,8.99928e-01,9.99999e-01
4.080602003e-01,9.01804e-01,9.99999e-01,9.99999e-01,9.01804e-01,9.99999e-01
4.101005013e-01,9.03647e-01,9.99999e-01,9.99999e-01,9.03647e-01,9.99999e-01
4.121510038e-01,9.05457e-01,9.99999e-01,9.99999e-01,9.05457e-01,9.99999e-01
4.142117588e-01,9.07232e-01,9.99999e-01,9.99996e-01,9.07235e-01,9.99999e-01
4.162828176e-01,9.08967e-01,9.99999e-01,9.99983e-01,9.08981e-01,9.99999e-01
4.183642317e-01,9.10688e-01,9.99999e-01,9.99990e-01,9.10696e-01,9.99999e-01
4.204560528e-01,9.12375e-01,9.99999e-01,9.99993e-01,9.12381e-01,9.99999e-01
4.225583331e-01,9.14033e-01,9.99999e-01,9.99997e-01,9.14035e-01,9.99999e-01
4.246711247e-01,9.15657e-01,9.99999e-01,9.99997e-01,9.15659e-01,9.99999e-01
4.267944804e-01,9.17252e-01,9.99999e-01,9.99997e-01,9.17254e-01,9.99999e-01
4.289284528e-01,9.18818e-01,9.99999e-01,9.99997e-01,9.18820e-01,9.99999e-01
4.310730950e-01,9.20357e-01,9.99999e-01,9.99998e-01,9.20358e-01,9.99999e-01
4.332284605e-01,9.21868e-01,9.99999e-01,9.99999e-01,9.21868e-01,9.99999e-01
4.353946028e-01,9.23350e-01,9.99999e-01,9.99999e-01,9.23350e-01,9.99999e-01
4.375715758e-01,9.24805e-01,9.99999e-01,9.99997e-01,9.24806e-01,9.99999e-01
4.397594337e-01,9.26222e-01,9.99999e-01,9.99985e-01,9.26235e-01,9.99999e-01
4.419582309e-01,9.27573e-01,9.99999e-01,9.99929e-01,9.27638e-01,9.99999e-01
4.441680220e-01,9.28965e-01,9.99999e-01,9.99945e-01,9.29015e-01,9.99999e-01
4.463888621e-01,9.30315e-01,9.99999e-01,9.99942e-01,9.30367e-01,9.99999e-01
4.486208064e-01,9.31662e-01,9.99999e-01,9.99964e-01,9.31695e-01,9.99999e-01
4.508639105e-01,9.32982e-01,9.99999e-01,9.99983e-01,9.32998e-01,9.99999e-01
4.531182300e-01,9.34271e-01,9.99999e-01,9.99993e-01,9.34277e-01,9.99999e-01
4.553838212e-01,9.35528e-01,9.99999e-01,9.99995e-01,9.35532e-01,9.99999e-01
4.576607403e-01,9.36762e-01,9.99999e-01,9.99997e-01,9.36764e-01,9.99999e-01
4.599490440e-01,9.37972e-01,9.99999e-01,9.99998e-01,9.37974e-01,9.99999e-01
4.622487892e-01,9.39161e-01,9.99999e-01,9.99999e-01,9.39161e-01,9.99999e-01
4.645600332e-01,9.40325e-01,9.99999e-01,9.99998e-01,9.40326e-01,9.99999e-01
4.668828333e-01,9.41454e-01,9.99999e-01,9.99982e-01,9.41469e-01,9.99999e-01
4.692172475e-01,9.42558e-01,9.99999e-01,9.99963e-01,9.42592e-01,9.99999e-01
4.715633337e-01,9.43671e-01,9.99999e-01,9.99976e-01,9.43693e-01,9.99999e-01
4.739211504e-01,9.44753e-01,9.99999e-01,9.99977e-01,9.44774e-01,9.99999e-01
4.762907561e-01,9.45824e-01,9.99999e-01,9.99988e-01,9.45835e-01,9.99999e-01
4.786722099e-01,9.46871e-01,9.99999e-01,9.99994e-01,9.46876e-01,9.99999e-01
4.810655710e-01,9.47896e-01,9.99999e-01,9.99998e-01,9.47897e-01,9.99999e-01
4.834708988e-01,9.48886e-01,9.99999e-01,9.99985e-01,9.48900e-01,9.99999e-01
4.858882533e-01,9.49859e-01,9.99999e-01,9.99974e-01,9.49883e-01,9.99999e-01
4.883176946e-01,9.50828e-01,9.99999e-01,9.99978e-01,9.50848e-01,9.99999e-01
4.907592831e-01,9.51777e-01,9.99999e-01,9.99980e-01,9.51795e-01,9.99999e-01
4.932130795e-01,9.52712e-01,9.99999e-01,9.99986e-01,9.52725e-01,9.99999e-01
4.956791449e-01,9.53630e-01,9.99999e-01,9.99992e-01,9.53636e-01,9.99999e-01
4.981575406e-01,9.54497e-01,9.99999e-01,9.99963e-01,9.54531e-01,9.99999e-01
5.006483283e-01,9.55319e-01,9.99999e-01,9.99906e-01,9.55409e-01,9.99998e-01
5.031515699e-01,9.55816e-01,9.99999e-01,9.99529e-01,9.56270e-01,9.99994e-01
5.056673278e-01,9.56873e-01,9.99999e-01,9.99751e-01,9.57115e-01,9.99993e-01
5.081956644e-01,9.57642e-01,9.99999e-01,9.99687e-01,9.57944e-01,9.99996e-01
5.107366428e-01,9.58555e-01,9.99999e-01,9.99788e-01,9.58757e-01,9.99998e-01
5.132903260e-01,9.59440e-01,9.99999e-01,9.99879e-01,9.59555e-01,9.99999e-01
5.158567776e-01,9.60289e-01,9.99999e-01,9.99948e-01,9.60338e-01,9.99999e-01
5.184360615e-01,9.61086e-01,9.99999e-01,9.99979e-01,9.61106e-01,9.99999e-01
5.210282418e-01,9.61852e-01,9.99999e-01,9.99991e-01,9.61859e-01,9.99999e-01
5.236333830e-01,9.62569e-01,9.99999e-01,9.99968e-01,9.62598e-01,9.99999e-01
5.262515499e-01,9.63305e-01,9.99999e-01,9.99980e-01,9.63324e-01,9.99999e-01
5.288828077e-01,9.64018e-01,9.99999e-01,9.99981e-01,9.64035e-01,9.99999e-01
5.315272217e-01,9.64718e-01,9.99999e-01,9.99984e-01,9.64732e-01,9.99999e-01
5.341848578e-01,9.65407e-01,9.99999e-01,9.99989e-01,9.65417e-01,9.99999e-01
5.368557821e-01,9.66054e-01,9.99999e-01,9.99963e-01,9.66088e-01,9.99999e-01
5.395400610e-01,9.66621e-01,9.99999e-01,9.99870e-01,9.66747e-01,9.99998e-01
5.422377613e-01,9.67229e-01,9.99999e-01,9.99833e-01,9.67393e-01,9.99996e-01
5.449489501e-01,9.67873e-01,9.99999e-01,9.99844e-01,9.68026e-01,9.99996e-01
5.476736949e-01,9.68514e-01,9.99999e-01,9.99862e-01,9.68648e-01,9.99997e-01
5.504120634e-01,9.69161e-01,9.99999e-01,9.99900e-01,9.69258e-01,9.99999e-01
5.531641237e-01,9.69807e-01,9.99999e-01,9.99949e-01,9.69856e-01,9.99999e-01
5.559299443e-01,9.70419e-01,9.99999e-01,9.99975e-01,9.70442e-01,9.99999e-01
5.587095940e-01,9.71003e-01,9.99999e-01,9.99984e-01,9.71017e-01,9.99999e-01
5.615031420e-01,9.71565e-01,9.99999e-01,9.99982e-01,9.71582e-01,9.99999e-01
5.643106577e-01,9.72116e-01,9.99999e-01,9.99980e-01,9.72135e-01,9.99999e-01
5.671322110e-01,9.72448e-01,9.99999e-01,9.99765e-01,9.72678e-01,9.99997e-01
5.699678720e-01,9.72965e-01,9.99999e-01,9.99753e-01,9.73210e-01,9.99993e-01
5.728177114e-01,9.73477e-01,9.99999e-01,9.99742e-01,9.73732e-01,9.99994e-01
5.756818000e-01,9.74012e-01,9.99999e-01,9.99763e-01,9.74244e-01,9.99996e-01
5.785602090e-01,9.74545e-01,9.99999e-01,9.99793e-01,9.74747e-01,9.99998e-01
5.814530100e-01,9.75037e-01,9.99999e-01,9.99792e-01,9.75239e-01,9.99999e-01
5.843602750e-01,9.75480e-01,9.99999e-01,9.99752e-01,9.75722e-01,9.99998e-01
5.872820764e-01,9.74101e-01,9.99999e-01,9.97867e-01,9.76196e-01,9.99984e-01
5.902184868e-01,9.74111e-01,9.99999e-01,9.97429e-01,9.76661e-01,9.99958e-01
5.931695792e-01,9.75301e-01,9.99999e-01,9.98180e-01,9.77116e-01,9.99960e-01
5.961354271e-01,9.75595e-01,9.99999e-01,9.98007e-01,9.77563e-01,9.99977e-01
5.991161043e-01,9.76575e-01,9.99999e-01,9.98548e-01,9.78002e-01,9.99992e-01
6.021116848e-01,9.77625e-01,9.99999e-01,9.99176e-01,9.78431e-01,9.99998e-01
6.051222432e-01,9.78445e-01,9.99999e-01,9.99583e-01,9.78853e-01,9.99999e-01
6.081478544e-01,9.79090e-01,9.99999e-01,9.99819e-01,9.79266e-01,9.99999e-01
6.111885937e-01,9.79597e-01,9.99999e-01,9.99923e-01,9.79671e-01,9.99999e-01
6.142445367e-01,9.80036e-01,9.99999e-01,9.99965e-01,9.80069e-01,9.99999e-01
6.173157594e-01,9.80440e-01,9.99999e-01,9.99980e-01,9.80459e-01,9.99999e-01
6.204023382e-01,9.80825e-01,9.99999e-01,9.99983e-01,9.80841e-01,9.99999e-01
6.235043498e-01,9.81147e-01,9.99999e-01,9.99929e-01,9.81216e-01,9.99999e-01
6.266218716e-01,9.81218e-01,9.99999e-01,9.99629e-01,9.81583e-01,9.99996e-01
6.297549810e-01,9.81805e-01,9.99999e-01,9.99863e-01,9.81944e-01,9.99994e-01
6.329037559e-01,9.82030e-01,9.99999e-01,9.99731e-01,9.82297e-01,9.99995e-01
6.360682746e-01,9.82417e-01,9.99999e-01,9.99770e-01,9.82644e-01,9.99997e-01
6.392486160e-01,9.82692e-01,9.99999e-01,9.99703e-01,9.82984e-01,9.99998e-01
6.424448591e-01,9.82924e-01,9.99999e-01,9.99601e-01,9.83317e-01,9.99997e-01
6.456570834e-01,9.81816e-01,9.99999e-01,9.98152e-01,9.83644e-01,9.99988e-01
6.488853688e-01,9.82612e-01,9.99999e-01,9.98654e-01,9.83964e-01,9.99971e-01
6.521297956e-01,9.82905e-01,9.99999e-01,9.98627e-01,9.84279e-01,9.99975e-01
6.553904446e-01,9.83223e-01,9.99999e-01,9.98631e-01,9.84587e-01,9.99981e-01
6.586673968e-01,9.83732e-01,9.99999e-01,9.98830e-01,9.84889e-01,9.99993e-01
6.619607338e-01,9.84542e-01,9.99999e-01,9.99348e-01,9.85185e-01,9.99998e-01
6.652705375e-01,9.85090e-01,9.99999e-01,9.99608e-01,9.85475e-01,9.99998e-01
6.685968902e-01,9.85597e-01,9.99999e-01,9.99833e-01,9.85760e-01,9.99999e-01
6.719398746e-01,9.85957e-01,9.99999e-01,9.99915e-01,9.86040e-01,9.99999e-01
6.752995740e-01,9.86268e-01,9.99999e-01,9.99953e-01,9.86313e-01,9.99999e-01
6.786760719e-01,9.86517e-01,9.99999e-01,9.99933e-01,9.86582e-01,9.99999e-01
6.820694522e-01,9.86733e-01,9.99999e-01,9.99886e-01,9.86845e-01,9.99998e-01
6.854797995e-01,9.86958e-01,9.99999e-01,9.99853e-01,9.87103e-01,9.99998e-01
6.889071985e-01,9.87002e-01,9.99999e-01,9.99644e-01,9.87356e-01,9.99996e-01
6.923517345e-01,9.81877e-01,9.99999e-01,9.94227e-01,9.87605e-01,9.99971e-01
6.958134932e-01,9.84849e-01,9.99999e-01,9.97024e-01,9.87848e-01,9.99938e-01
6.992925606e-01,9.85213e-01,9.99999e-01,9.97146e-01,9.88087e-01,9.99944e-01
7.027890234e-01,9.84812e-01,9.99999e-01,9.96490e-01,9.88320e-01,9.99957e-01
7.063029686e-01,9.85612e-01,9.99999e-01,9.97048e-01,9.88550e-01,9.99978e-01
7.098344834e-01,9.85963e-01,9.99999e-01,9.97168e-01,9.88775e-01,9.99987e-01
7.133836558e-01,9.85216e-01,9.99999e-01,9.96202e-01,9.88995e-01,9.99974e-01
7.169505741e-01,9.59169e-01,9.99999e-01,9.69816e-01,9.89211e-01,9.99806e-01
7.205353270e-01,9.74512e-01,9.99999e-01,9.85265e-01,9.89423e-01,9.99658e-01
7.241380036e-01,9.70728e-01,9.99999e-01,9.81187e-01,9.89631e-01,9.99704e-01
7.277586936e-01,9.72789e-01,9.99999e-01,9.83015e-01,9.89835e-01,9.99758e-01
7.313974871e-01,9.72125e-01,9.99999e-01,9.82020e-01,9.90035e-01,9.99886e-01
7.350544745e-01,9.80429e-01,9.99999e-01,9.90140e-01,9.90230e-01,9.99960e-01
7.387297469e-01,9.83218e-01,9.99999e-01,9.92743e-01,9.90422e-01,9.99981e-01
7.424233956e-01,9.87090e-01,9.99999e-01,9.96448e-01,9.90611e-01,9.99996e-01
7.461355126e-01,9.88661e-01,9.99999e-01,9.97845e-01,9.90795e-01,9.99998e-01
7.498661902e-01,9.89984e-01,9.99999e-01,9.98997e-01,9.90976e-01,9.99999e-01
7.536155211e-01,9.90666e-01,9.99999e-01,9.99507e-01,9.91154e-01,9.99999e-01
7.573835987e-01,9.91077e-01,9.99999e-01,9.99746e-01,9.91328e-01,9.99999e-01
7.611705167e-01,9.91342e-01,9.99999e-01,9.99842e-01,9.91498e-01,9.99999e-01
7.649763693e-01,9.91568e-01,9.99999e-01,9.99900e-01,9.91665e-01,9.99999e-01
7.688012511e-01,9.91761e-01,9.99999e-01,9.99930e-01,9.91829e-01,9.99999e-01
7.726452574e-01,9.91934e-01,9.99999e-01,9.99942e-01,9.91990e-01,9.99999e-01
7.765084837e-01,9.92068e-01,9.99999e-01,9.99918e-01,9.92148e-01,9.99999e-01
7.803910261e-01,9.91955e-01,9.99999e-01,9.99650e-01,9.92302e-01,9.99999e-01
7.842929812e-01,9.91242e-01,9.99999e-01,9.98780e-01,9.92454e-01,9.99997e-01
7.882144461e-01,9.90103e-01,9.99999e-01,9.97499e-01,9.92602e-01,9.99982e-01
7.921555184e-01,9.91360e-01,9.99999e-01,9.98631e-01,9.92748e-01,9.99969e-01
7.961162960e-01,9.90449e-01,9.99999e-01,9.97568e-01,9.92890e-01,9.99971e-01
8.000968774e-01,9.90221e-01,9.99999e-01,9.97200e-01,9.93030e-01,9.99969e-01
8.040973618e-01,9.90362e-01,9.99999e-01,9.97197e-01,9.93168e-01,9.99976e-01
8.081178486e-01,9.86989e-01,9.99999e-01,9.93667e-01,9.93302e-01,9.99976e-01
8.121584379e-01,9.67346e-01,9.99999e-01,9.73825e-01,9.93434e-01,9.99911e-01
8.162192301e-01,9.62564e-01,9.99999e-01,9.69121e-01,9.93563e-01,9.99667e-01
8.203003262e-01,9.77710e-01,9.99999e-01,9.84301e-01,9.93690e-01,9.99610e-01
8.244018279e-01,9.71991e-01,9.99999e-01,9.78343e-01,9.93814e-01,9.99690e-01
8.285238370e-01,9.75245e-01,9.99999e-01,9.81432e-01,9.93936e-01,9.99756e-01
8.326664562e-01,9.75330e-01,9.99999e-01,9.81260e-01,9.94055e-01,9.99899e-01
8.368297885e-01,9.80841e-01,9.99999e-01,9.86612e-01,9.94172e-01,9.99976e-01
8.410139374e-01,9.86352e-01,9.99999e-01,9.92032e-01,9.94287e-01,9.99986e-01
8.452190071e-01,9.90504e-01,9.99999e-01,9.96089e-01,9.94400e-01,9.99991e-01
8.494451021e-01,9.92243e-01,9.99999e-01,9.97726e-01,9.94510e-01,9.99993e-01
8.536923276e-01,9.93279e-01,9.99999e-01,9.98657e-01,9.94618e-01,9.99995e-01
8.579607893e-01,9.93900e-01,9.99999e-01,9.99171e-01,9.94724e-01,9.99998e-01
8.622505932e-01,9.94305e-01,9.99999e-01,9.99474e-01,9.94828e-01,9.99999e-01
8.665618462e-01,9.94606e-01,9.99999e-01,9.99674e-01,9.94930e-01,9.99999e-01
8.708946554e-01,9.94658e-01,9.99999e-01,9.99626e-01,9.95030e-01,9.99999e-01
8.752491287e-01,9.94631e-01,9.99999e-01,9.99500e-01,9.95128e-01,9.99998e-01
8.796253743e-01,9.94534e-01,9.99999e-01,9.99307e-01,9.95224e-01,9.99997e-01
8.840235012e-01,9.94527e-01,9.99999e-01,9.99209e-01,9.95318e-01,9.99994e-01
8.884436187e-01,9.92501e-01,9.99999e-01,9.97091e-01,9.95410e-01,9.99985e-01
8.928858368e-01,9.65399e-01,9.99999e-01,9.69838e-01,9.95500e-01,9.99920e-01
8.973502660e-01,9.42855e-01,9.99999e-01,9.47414e-01,9.95589e-01,9.99595e-01
9.018370173e-01,9.68073e-01,9.99999e-01,9.72894e-01,9.95676e-01,9.99364e-01
9.063462024e-01,9.71277e-01,9.99999e-01,9.75955e-01,9.95761e-01,9.99442e-01
9.108779334e-01,9.58276e-01,9.99999e-01,9.62832e-01,9.95845e-01,9.99420e-01
9.154323231e-01,9.53599e-01,9.99999e-01,9.57957e-01,9.95927e-01,9.99520e-01
9.200094847e-01,9.62819e-01,9.99999e-01,9.66937e-01,9.96007e-01,9.99731e-01
9.246095321e-01,9.43849e-01,9.99999e-01,9.47849e-01,9.96086e-01,9.99690e-01
9.292325798e-01,6.95197e-01,9.99999e-01,6.98715e-01,9.96163e-01,9.98795e-01
9.338787427e-01,6.24747e-01,9.99999e-01,6.30236e-01,9.96238e-01,9.95032e-01
9.385481364e-01,8.22675e-01,9.99999e-01,8.30624e-01,9.96313e-01,9.94094e-01
9.432408771e-01,7.63093e-01,9.99999e-01,7.69784e-01,9.96385e-01,9.94903e-01
9.479570815e-01,6.89833e-01,9.99999e-01,6.95170e-01,9.96456e-01,9.95849e-01
9.526968669e-01,7.59598e-01,9.99999e-01,7.64181e-01,9.96526e-01,9.97466e-01
9.574603512e-01,7.79352e-01,9.99999e-01,7.83022e-01,9.96595e-01,9.98711e-01
9.622476530e-01,8.16782e-01,9.99999e-01,8.20247e-01,9.96662e-01,9.99109e-01
9.670588912e-01,8.88702e-01,9.99999e-01,8.92163e-01,9.96728e-01,9.99390e-01
9.718941857e-01,9.27965e-01,9.99999e-01,9.31368e-01,9.96792e-01,9.99551e-01
9.767536566e-01,9.39411e-01,9.99999e-01,9.42697e-01,9.96855e-01,9.99656e-01
9.816374249e-01,9.54239e-01,9.99999e-01,9.57302e-01,9.96917e-01,9.99880e-01
9.865456120e-01,9.70165e-01,9.99999e-01,9.73128e-01,9.96978e-01,9.99974e-01
9.914783401e-01,9.80391e-01,9.99999e-01,9.83310e-01,9.97038e-01,9.99992e-01
9.964357318e-01,9.87999e-01,9.99999e-01,9.90879e-01,9.97096e-01,9.99995e-01
1.001417910e+00,9.91690e-01,9.99999e-01,9.94526e-01,9.97154e-01,9.99993e-01
1.006425000e+00,9.94084e-01,9.99999e-01,9.96874e-01,9.97210e-01,9.99990e-01
1.011457125e+00,9.95324e-01,9.99999e-01,9.98061e-01,9.97265e-01,9.99991e-01
1.016514411e+00,9.96000e-01,9.99999e-01,9.98682e-01,9.97319e-01,9.99993e-01
1.021596983e+00,9.96319e-01,9.99999e-01,9.98949e-01,9.97371e-01,9.99993e-01
1.026704968e+00,9.96603e-01,9.99999e-01,9.99180e-01,9.97423e-01,9.99995e-01
1.031838492e+00,9.96880e-01,9.99999e-01,9.99404e-01,9.97474e-01,9.99998e-01
1.036997685e+00,9.97171e-01,9.99999e-01,9.99646e-01,9.97524e-01,9.99999e-01
1.042182673e+00,9.97152e-01,9.99999e-01,9.99577e-01,9.97573e-01,9.99999e-01
1.047393587e+00,9.97062e-01,9.99999e-01,9.99440e-01,9.97621e-01,9.99999e-01
1.052630555e+00,9.96901e-01,9.99999e-01,9.99231e-01,9.97668e-01,9.99999e-01
1.057893707e+00,9.96433e-01,9.99999e-01,9.98716e-01,9.97714e-01,9.99999e-01
1.063183176e+00,9.95651e-01,9.99999e-01,9.97888e-01,9.97759e-01,9.99998e-01
1.068499092e+00,9.94277e-01,9.99999e-01,9.96468e-01,9.97803e-01,9.99997e-01
1.073841587e+00,9.93713e-01,9.99999e-01,9.95862e-01,9.97846e-01,9.99994e-01
1.079210795e+00,9.92596e-01,9.99999e-01,9.94709e-01,9.97889e-01,9.99985e-01
1.084606849e+00,9.89906e-01,9.99999e-01,9.91992e-01,9.97930e-01,9.99965e-01
1.090029883e+00,9.86403e-01,9.99999e-01,9.88477e-01,9.97971e-01,9.99929e-01
1.095480033e+00,9.66883e-01,9.99999e-01,9.68933e-01,9.98011e-01,9.99872e-01
1.100957433e+00,9.20791e-01,9.99999e-01,9.22805e-01,9.98050e-01,9.99765e-01
1.106462220e+00,8.12439e-01,9.99999e-01,8.14318e-01,9.98089e-01,9.99602e-01
1.111994531e+00,6.47169e-01,9.99999e-01,6.49067e-01,9.98127e-01,9.98945e-01
1.117554504e+00,4.93200e-01,9.99999e-01,4.95992e-01,9.98163e-01,9.96199e-01
1.123142276e+00,5.88252e-01,9.99999e-01,5.94657e-01,9.98200e-01,9.91011e-01
1.128757988e+00,7.09510e-01,9.99999e-01,7.18226e-01,9.98235e-01,9.89608e-01
1.134401778e+00,4.63290e-01,9.99999e-01,4.68233e-01,9.98270e-01,9.91157e-01
1.140073787e+00,8.14722e-01,9.99999e-01,8.21916e-01,9.98304e-01,9.92928e-01
1.145774156e+00,6.57640e-01,9.99999e-01,6.63027e-01,9.98338e-01,9.93525e-01
1.151503026e+00,6.28169e-01,9.99999e-01,6.31474e-01,9.98370e-01,9.96387e-01
1.157260541e+00,6.82415e-01,9.99999e-01,6.84246e-01,9.98403e-01,9.98918e-01
1.163046844e+00,7.54622e-01,9.99999e-01,7.56036e-01,9.98434e-01,9.99692e-01
1.168862078e+00,8.22644e-01,9.99999e-01,8.24038e-01,9.98465e-01,9.99841e-01
1.174706389e+00,8.85914e-01,9.99999e-01,8.87434e-01,9.98495e-01,9.99790e-01
1.180579921e+00,9.28260e-01,9.99999e-01,9.29924e-01,9.98525e-01,9.99682e-01
1.186482820e+00,9.58107e-01,9.99999e-01,9.59806e-01,9.98554e-01,9.99674e-01
1.192415234e+00,9.74728e-01,9.99999e-01,9.76348e-01,9.98582e-01,9.99756e-01
1.198377311e+00,9.78424e-01,9.99999e-01,9.80010e-01,9.98610e-01,9.99769e-01
1.204369197e+00,9.79534e-01,9.99999e-01,9.81073e-01,9.98638e-01,9.99791e-01
1.210391043e+00,9.80467e-01,9.99999e-01,9.81901e-01,9.98665e-01,9.99873e-01
1.216442998e+00,9.83235e-01,9.99999e-01,9.84599e-01,9.98691e-01,9.99922e-01
1.222525213e+00,9.86675e-01,9.99999e-01,9.87989e-01,9.98717e-01,9.99951e-01
1.228637839e+00,9.90376e-01,9.99999e-01,9.91644e-01,9.98742e-01,9.99977e-01
1.234781029e+00,9.92562e-01,9.99999e-01,9.93793e-01,9.98767e-01,9.99993e-01
1.240954934e+00,9.94865e-01,9.99999e-01,9.96070e-01,9.98791e-01,9.99997e-01
1.247159708e+00,9.95758e-01,9.99999e-01,9.96940e-01,9.98815e-01,9.99998e-01
1.253395507e+00,9.96122e-01,9.99999e-01,9.97281e-01,9.98839e-01,9.99998e-01
1.259662485e+00,9.96277e-01,9.99999e-01,9.97414e-01,9.98861e-01,9.99997e-01
1.265960797e+00,9.94760e-01,9.99999e-01,9.95875e-01,9.98884e-01,9.99995e-01
1.272290601e+00,9.92422e-01,9.99999e-01,9.93515e-01,9.98906e-01,9.99992e-01
1.278652054e+00,9.86070e-01,9.99999e-01,9.87140e-01,9.98927e-01,9.99987e-01
1.285045314e+00,9.75714e-01,9.99999e-01,9.76762e-01,9.98949e-01,9.99976e-01
1.291470541e+00,9.58816e-01,9.99999e-01,9.59844e-01,9.98969e-01,9.99958e-01
1.297927893e+00,9.42281e-01,9.99999e-01,9.43305e-01,9.98990e-01,9.99923e-01
1.304417533e+00,9.32442e-01,9.99999e-01,9.33517e-01,9.99010e-01,9.99837e-01
1.310939621e+00,9.22813e-01,9.99999e-01,9.24016e-01,9.99029e-01,9.99667e-01
1.317494319e+00,9.16730e-01,9.99999e-01,9.18167e-01,9.99048e-01,9.99384e-01
1.324081790e+00,8.77908e-01,9.99999e-01,8.79609e-01,9.99067e-01,9.98996e-01
1.330702199e+00,5.81046e-01,9.99999e-01,5.82584e-01,9.99085e-01,9.98270e-01
1.337355710e+00,2.60751e-01,9.99999e-01,2.61856e-01,9.99104e-01,9.96672e-01
1.344042489e+00,2.95823e-02,9.99999e-01,2.99070e-02,9.99121e-01,9.90010e-01
1.350762701e+00,9.09557e-04,9.99999e-01,9.42174e-04,9.99139e-01,9.66212e-01
1.357516515e+00,7.34657e-05,9.99999e-01,8.13315e-05,9.99156e-01,9.04048e-01
1.364304097e+00,1.61028e-03,9.99999e-01,1.92325e-03,9.99172e-01,8.37959e-01
1.371125618e+00,1.25930e-02,9.99999e-01,1.48890e-02,9.99189e-01,8.46475e-01
1.377981246e+00,2.40075e-02,9.99999e-01,2.77167e-02,9.99205e-01,8.66865e-01
1.384871152e+00,1.51183e-03,9.99999e-01,1.72846e-03,9.99220e-01,8.75350e-01
1.391795508e+00,2.32061e-03,9.99999e-01,2.63662e-03,9.99236e-01,8.80819e-01
1.398754485e+00,5.71595e-03,9.99999e-01,6.35242e-03,9.99251e-01,9.00480e-01
1.405748258e+00,5.41418e-03,9.99999e-01,5.76057e-03,9.99265e-01,9.40558e-01
1.412776999e+00,6.25021e-03,9.99999e-01,6.43218e-03,9.99280e-01,9.72408e-01
1.419840884e+00,8.76706e-03,9.99999e-01,8.88154e-03,9.99294e-01,9.87806e-01
1.426940089e+00,2.46522e-02,9.99999e-01,2.49002e-02,9.99308e-01,9.90722e-01
1.434074789e+00,5.86154e-02,9.99999e-01,5.93038e-02,9.99322e-01,9.89061e-01
1.441245163e+00,1.17699e-01,9.99999e-01,1.19188e-01,9.99335e-01,9.88157e-01
1.448451389e+00,2.15967e-01,9.99999e-01,2.18373e-01,9.99348e-01,9.89623e-01
1.455693646e+00,3.68741e-01,9.99999e-01,3.71984e-01,9.99361e-01,9.91916e-01
1.462972114e+00,4.24576e-01,9.99999e-01,4.28143e-01,9.99374e-01,9.92288e-01
1.470286975e+00,3.67916e-01,9.99999e-01,3.70954e-01,9.99386e-01,9.92419e-01
