#,Wave/freq,Total,N2,H2O,Rayleigh,CIA
4.000000000e-01,6.33020e-01,9.99999e-01,9.99947e-01,6.33053e-01,9.99999e-01
4.020000000e-01,6.38781e-01,9.99999e-01,9.99967e-01,6.38802e-01,9.99999e-01
4.040100000e-01,6.44473e-01,9.99999e-01,9.99985e-01,6.44482e-01,9.99999e-01
4.060300500e-01,6.50097e-01,9.99999e-01,9.99996e-01,6.50099e-01,9.99999e-01
4.080602003e-01,6.55651e-01,9.99999e-01,9.99998e-01,6.55652e-01,9.99999e-01
4.101005013e-01,6.61142e-01,9.99999e-01,9.99999e-01,6.61142e-01,9.99999e-01
4.121510038e-01,6.66566e-01,9.99999e-01,9.99997e-01,6.66567e-01,9.99999e-01
4.142117588e-01,6.71920e-01,9.99999e-01,9.99985e-01,6.71929e-01,9.99999e-01
4.162828176e-01,6.77184e-01,9.99999e-01,9.99935e-01,6.77227e-01,9.99999e-01
4.183642317e-01,6.82435e-01,9.99999e-01,9.99961e-01,6.82461e-01,9.99999e-01
4.204560528e-01,6.87615e-01,9.99999e-01,9.99976e-01,6.87631e-01,9.99999e-01
4.225583331e-01,6.92730e-01,9.99999e-01,9.99990e-01,6.92736e-01,9.99999e-01
4.246711247e-01,6.97773e-01,9.99999e-01,9.99992e-01,6.97778e-01,9.99999e-01
4.267944804e-01,7.02748e-01,9.99999e-01,9.99989e-01,7.02755e-01,9.99999e-01
4.289284528e-01,7.07663e-01,9.99999e-01,9.99991e-01,7.07669e-01,9.99999e-01
4.310730950e-01,7.12516e-01,9.99999e-01,9.99996e-01,7.12519e-01,9.99999e-01
4.332284605e-01,7.17304e-01,9.99999e-01,9.99998e-01,7.17305e-01,9.99999e-01
4.353946028e-01,7.22028e-01,9.99999e-01,9.99999e-01,7.22028e-01,9.99999e-01
4.375715758e-01,7.26683e-01,9.99999e-01,9.99993e-01,7.26688e-01,9.99999e-01
4.397594337e-01,7.31244e-01,9.99999e-01,9.99943e-01,7.31285e-01,9.99999e-01
4.419582309e-01,7.35611e-01,9.99999e-01,9.99716e-01,7.35819e-01,9.99999e-01
4.441680220e-01,7.40127e-01,9.99999e-01,9.99776e-01,7.40292e-01,9.99999e-01
4.463888621e-01,7.44530e-01,9.99999e-01,9.99768e-01,7.44702e-01,9.99999e-01
4.486208064e-01,7.48943e-01,9.99999e-01,9.99855e-01,7.49050e-01,9.99999e-01
4.508639105e-01,7.53287e-01,9.99999e-01,9.99932e-01,7.53338e-01,9.99999e-01
4.531182300e-01,7.57544e-01,9.99999e-01,9.99972e-01,7.57564e-01,9.99999e-01
4.553838212e-01,7.61717e-01,9.99999e-01,9.99981e-01,7.61730e-01,9.99999e-01
4.576607403e-01,7.65830e-01,9.99999e-01,9.99991e-01,7.65836e-01,9.99999e-01
4.599490440e-01,7.69878e-01,9.99999e-01,9.99993e-01,7.69883e-01,9.99999e-01
4.622487892e-01,7.73869e-01,9.99999e-01,9.99998e-01,7.73870e-01,9.99999e-01
4.645600332e-01,7.77795e-01,9.99999e-01,9.99995e-01,7.77798e-01,9.99999e-01
4.668828333e-01,7.81616e-01,9.99999e-01,9.99931e-01,7.81669e-01,9.99999e-01
4.692172475e-01,7.85367e-01,9.99999e-01,9.99854e-01,7.85481e-01,9.99999e-01
4.715633337e-01,7.89162e-01,9.99999e-01,9.99904e-01,7.89236e-01,9.99999e-01
4.739211504e-01,7.92863e-01,9.99999e-01,9.99908e-01,7.92935e-01,9.99999e-01
4.762907561e-01,7.96539e-01,9.99999e-01,9.99952e-01,7.96577e-01,9.99999e-01
4.786722099e-01,8.00148e-01,9.99999e-01,9.99980e-01,8.00164e-01,9.99999e-01
4.810655710e-01,8.03690e-01,9.99999e-01,9.99993e-01,8.03695e-01,9.99999e-01
4.834708988e-01,8.07127e-01,9.99999e-01,9.99944e-01,8.07172e-01,9.99999e-01
4.858882533e-01,8.10511e-01,9.99999e-01,9.99896e-01,8.10594e-01,9.99999e-01
4.883176946e-01,8.13894e-01,9.99999e-01,9.99913e-01,8.13963e-01,9.99999e-01
4.907592831e-01,8.17216e-01,9.99999e-01,9.99921e-01,8.17280e-01,9.99999e-01
4.932130795e-01,8.20498e-01,9.99999e-01,9.99944e-01,8.20543e-01,9.99999e-01
4.956791449e-01,8.23731e-01,9.99999e-01,9.99970e-01,8.23755e-01,9.99999e-01
4.981575406e-01,8.26796e-01,9.99999e-01,9.99853e-01,8.26916e-01,9.99999e-01
5.006483283e-01,8.29712e-01,9.99999e-01,9.99623e-01,8.30026e-01,9.99996e-01
5.031515699e-01,8.31475e-01,9.99999e-01,9.98085e-01,8.33086e-01,9.99979e-01
5.056673278e-01,8.35231e-01,9.99999e-01,9.98987e-01,8.36097e-01,9.99976e-01
5.081956644e-01,8.37974e-01,9.99999e-01,9.98722e-01,8.39058e-01,9.99984e-01
5.107366428e-01,8.41243e-01,9.99999e-01,9.99136e-01,8.41971e-01,9.99996e-01
5.132903260e-01,8.44420e-01,9.99999e-01,9.99506e-01,8.44837e-01,9.99999e-01
5.158567776e-01,8.47479e-01,9.99999e-01,9.99791e-01,8.47655e-01,9.99999e-01
5.184360615e-01,8.50356e-01,9.99999e-01,9.99916e-01,8.50427e-01,9.99999e-01
5.210282418e-01,8.53127e-01,9.99999e-01,9.99968e-01,8.53153e-01,9.99999e-01
5.236333830e-01,8.55726e-01,9.99999e-01,9.99874e-01,8.55834e-01,9.99998e-01
5.262515499e-01,8.58401e-01,9.99999e-01,9.99921e-01,8.58469e-01,9.99998e-01
5.288828077e-01,8.60999e-01,9.99999e-01,9.99927e-01,8.61061e-01,9.99998e-01
5.315272217e-01,8.63554e-01,9.99999e-01,9.99936e-01,8.63609e-01,9.99999e-01
5.341848578e-01,8.66078e-01,9.99999e-01,9.99958e-01,8.66114e-01,9.99999e-01
5.368557821e-01,8.68450e-01,9.99999e-01,9.99854e-01,8.68577e-01,9.99999e-01
5.395400610e-01,8.70538e-01,9.99999e-01,9.99477e-01,8.70997e-01,9.99995e-01
5.422377613e-01,8.72773e-01,9.99999e-01,9.99320e-01,8.73377e-01,9.99987e-01
5.449489501e-01,8.75153e-01,9.99999e-01,9.99369e-01,8.75715e-01,9.99986e-01
5.476736949e-01,8.77517e-01,9.99999e-01,9.99439e-01,8.78014e-01,9.99993e-01
5.504120634e-01,8.79914e-01,9.99999e-01,9.99593e-01,8.80273e-01,9.99997e-01
5.531641237e-01,8.82313e-01,9.99999e-01,9.99795e-01,8.82493e-01,9.99999e-01
5.559299443e-01,8.84588e-01,9.99999e-01,9.99900e-01,8.84675e-01,9.99999e-01
5.587095940e-01,8.86764e-01,9.99999e-01,9.99937e-01,8.86819e-01,9.99999e-01
5.615031420e-01,8.88864e-01,9.99999e-01,9.99930e-01,8.88925e-01,9.99999e-01
5.643106577e-01,8.90925e-01,9.99999e-01,9.99922e-01,8.90995e-01,9.99998e-01
5.671322110e-01,8.92182e-01,9.99999e-01,9.99059e-01,8.93029e-01,9.99991e-01
5.699678720e-01,8.94098e-01,9.99999e-01,9.98987e-01,8.95026e-01,9.99973e-01
5.728177114e-01,8.96029e-01,9.99999e-01,9.98950e-01,8.96989e-01,9.99978e-01
5.756818000e-01,8.98040e-01,9.99999e-01,9.99036e-01,8.98917e-01,9.99986e-01
5.785602090e-01,9.00051e-01,9.99999e-01,9.99159e-01,9.00811e-01,9.99995e-01
5.814530100e-01,9.01909e-01,9.99999e-01,9.99156e-01,9.02672e-01,9.99997e-01
5.843602750e-01,9.03589e-01,9.99999e-01,9.98997e-01,9.04500e-01,9.99993e-01
5.872820764e-01,8.98439e-01,9.99999e-01,9.91391e-01,9.06295e-01,9.99938e-01
5.902184868e-01,8.98402e-01,9.99999e-01,9.89529e-01,9.08058e-01,9.99833e-01
5.931695792e-01,9.02919e-01,9.99999e-01,9.92606e-01,9.09789e-01,9.99840e-01
5.961354271e-01,9.04013e-01,9.99999e-01,9.91887e-01,9.11490e-01,9.99907e-01
5.991161043e-01,9.07724e-01,9.99999e-01,9.94074e-01,9.13160e-01,9.99971e-01
6.021116848e-01,9.11716e-01,9.99999e-01,9.96632e-01,9.14800e-01,9.99996e-01
6.051222432e-01,9.14847e-01,9.99999e-01,9.98294e-01,9.16410e-01,9.99999e-01
6.081478544e-01,9.17317e-01,9.99999e-01,9.99264e-01,9.17992e-01,9.99999e-01
6.111885937e-01,9.19258e-01,9.99999e-01,9.99688e-01,9.19545e-01,9.99999e-01
6.142445367e-01,9.20941e-01,9.99999e-01,9.99860e-01,9.21069e-01,9.99999e-01
6.173157594e-01,9.22496e-01,9.99999e-01,9.99922e-01,9.22566e-01,9.99999e-01
6.204023382e-01,9.23976e-01,9.99999e-01,9.99934e-01,9.24036e-01,9.99999e-01
6.235043498e-01,9.25217e-01,9.99999e-01,9.99716e-01,9.25479e-01,9.99998e-01
6.266218716e-01,9.25487e-01,9.99999e-01,9.98489e-01,9.26896e-01,9.99988e-01
6.297549810e-01,9.27753e-01,9.99999e-01,9.99445e-01,9.28287e-01,9.99978e-01
6.329037559e-01,9.28618e-01,9.99999e-01,9.98903e-01,9.29652e-01,9.99982e-01
6.360682746e-01,9.30117e-01,9.99999e-01,9.99068e-01,9.30993e-01,9.99989e-01
6.392486160e-01,9.31178e-01,9.99999e-01,9.98791e-01,9.32309e-01,9.99995e-01
6.424448591e-01,9.32090e-01,9.99999e-01,9.98389e-01,9.33600e-01,9.99992e-01
6.456570834e-01,9.27854e-01,9.99999e-01,9.92537e-01,9.34868e-01,9.99957e-01
6.488853688e-01,9.30863e-01,9.99999e-01,9.94507e-01,9.36113e-01,9.99883e-01
6.521297956e-01,9.31997e-01,9.99999e-01,9.94402e-01,9.37334e-01,9.99901e-01
6.553904446e-01,9.33267e-01,9.99999e-01,9.94460e-01,9.38533e-01,9.99926e-01
6.586673968e-01,9.35201e-01,9.99999e-01,9.95225e-01,9.39710e-01,9.99975e-01
6.619607338e-01,9.38261e-01,9.99999e-01,9.97236e-01,9.40865e-01,9.99994e-01
6.652705375e-01,9.40487e-01,9.99999e-01,9.98398e-01,9.41998e-01,9.99996e-01
6.685968902e-01,9.42409e-01,9.99999e-01,9.99255e-01,9.43111e-01,9.99999e-01
6.719398746e-01,9.43877e-01,9.99999e-01,9.99654e-01,9.44202e-01,9.99999e-01
6.752995740e-01,9.45098e-01,9.99999e-01,9.99813e-01,9.45274e-01,9.99999e-01
6.786760719e-01,9.46071e-01,9.99999e-01,9.99731e-01,9.46325e-01,9.99999e-01
6.820694522e-01,9.46919e-01,9.99999e-01,9.99539e-01,9.47357e-01,9.99997e-01
6.854797995e-01,9.47802e-01,9.99999e-01,9.99406e-01,9.48369e-01,9.99994e-01
6.889071985e-01,9.47996e-01,9.99999e-01,9.98572e-01,9.49363e-01,9.99986e-01
6.923517345e-01,9.28210e-01,9.99999e-01,9.76824e-01,9.50338e-01,9.99887e-01
6.958134932e-01,9.39438e-01,9.99999e-01,9.87786e-01,9.51295e-01,9.99745e-01
6.992925606e-01,9.41052e-01,9.99999e-01,9.88477e-01,9.52233e-01,9.99776e-01
7.027890234e-01,9.39405e-01,9.99999e-01,9.85743e-01,9.53154e-01,9.99828e-01
7.063029686e-01,9.42532e-01,9.99999e-01,9.88002e-01,9.54058e-01,9.99914e-01
7.098344834e-01,9.43901e-01,9.99999e-01,9.88484e-01,9.54945e-01,9.99949e-01
7.133836558e-01,9.41169e-01,9.99999e-01,9.84775e-01,9.55815e-01,9.99899e-01
7.169505741e-01,8.45352e-01,9.99999e-01,8.84339e-01,9.56668e-01,9.99210e-01
7.205353270e-01,8.99827e-01,9.99999e-01,9.41071e-01,9.57506e-01,9.98607e-01
7.241380036e-01,8.86453e-01,9.99999e-01,9.26112e-01,9.58327e-01,9.98797e-01
7.277586936e-01,8.94055e-01,9.99999e-01,9.33065e-01,9.59133e-01,9.99017e-01
7.313974871e-01,8.91028e-01,9.99999e-01,9.28654e-01,9.59924e-01,9.99539e-01
7.350544745e-01,9.22484e-01,9.99999e-01,9.60373e-01,9.60700e-01,9.99839e-01
7.387297469e-01,9.33176e-01,9.99999e-01,9.70652e-01,9.61461e-01,9.99926e-01
7.424233956e-01,9.48259e-01,9.99999e-01,9.85516e-01,9.62208e-01,9.99985e-01
7.461355126e-01,9.54468e-01,9.99999e-01,9.91203e-01,9.62940e-01,9.99997e-01
7.498661902e-01,9.59699e-01,9.99999e-01,9.95891e-01,9.63659e-01,9.99998e-01
7.536155211e-01,9.62421e-01,9.99999e-01,9.97985e-01,9.64364e-01,9.99998e-01
7.573835987e-01,9.64054e-01,9.99999e-01,9.98962e-01,9.65055e-01,9.99999e-01
7.611705167e-01,9.65111e-01,9.99999e-01,9.99355e-01,9.65733e-01,9.99999e-01
7.649763693e-01,9.66008e-01,9.99999e-01,9.99595e-01,9.66399e-01,9.99999e-01
7.688012511e-01,9.66779e-01,9.99999e-01,9.99718e-01,9.67051e-01,9.99999e-01
7.726452574e-01,9.67468e-01,9.99999e-01,9.99768e-01,9.67691e-01,9.99999e-01
7.765084837e-01,9.68002e-01,9.99999e-01,9.99672e-01,9.68319e-01,9.99999e-01
7.803910261e-01,9.67564e-01,9.99999e-01,9.98585e-01,9.68935e-01,9.99998e-01
7.842929812e-01,9.64753e-01,9.99999e-01,9.95071e-01,9.69539e-01,9.99990e-01
7.882144461e-01,9.60209e-01,9.99999e-01,9.89832e-01,9.70132e-01,9.99937e-01
7.921555184e-01,9.65163e-01,9.99999e-01,9.94401e-01,9.70713e-01,9.99878e-01
7.961162960e-01,9.61627e-01,9.99999e-01,9.90172e-01,9.71283e-01,9.99883e-01
8.000968774e-01,9.60668e-01,9.99999e-01,9.88622e-01,9.71842e-01,9.99876e-01
8.040973618e-01,9.61239e-01,9.99999e-01,9.88628e-01,9.72391e-01,9.99901e-01
8.081178486e-01,9.48170e-01,9.99999e-01,9.74640e-01,9.72929e-01,9.99907e-01
8.121584379e-01,8.74522e-01,9.99999e-01,8.98690e-01,9.73456e-01,9.99639e-01
8.162192301e-01,8.56485e-01,9.99999e-01,8.80563e-01,9.73974e-01,9.98645e-01
8.203003262e-01,9.14256e-01,9.99999e-01,9.39687e-01,9.74481e-01,9.98414e-01
8.244018279e-01,8.92278e-01,9.99999e-01,9.16333e-01,9.74979e-01,9.98737e-01
8.285238370e-01,9.03273e-01,9.99999e-01,9.26909e-01,9.75467e-01,9.99008e-01
8.326664562e-01,9.03443e-01,9.99999e-01,9.26089e-01,9.75946e-01,9.99589e-01
8.368297885e-01,9.24041e-01,9.99999e-01,9.46448e-01,9.76415e-01,9.99905e-01
8.410139374e-01,9.45375e-01,9.99999e-01,9.67806e-01,9.76875e-01,9.99944e-01
8.452190071e-01,9.61728e-01,9.99999e-01,9.84070e-01,9.77327e-01,9.99966e-01
8.494451021e-01,9.68692e-01,9.99999e-01,9.90741e-01,9.77770e-01,9.99973e-01
8.536923276e-01,9.72817e-01,9.99999e-01,9.94507e-01,9.78204e-01,9.99983e-01
8.579607893e-01,9.75318e-01,9.99999e-01,9.96619e-01,9.78630e-01,9.99995e-01
8.622505932e-01,9.76941e-01,9.99999e-01,9.97848e-01,9.79048e-01,9.99998e-01
8.665618462e-01,9.78156e-01,9.99999e-01,9.98671e-01,9.79457e-01,9.99999e-01
8.708946554e-01,9.78369e-01,9.99999e-01,9.98479e-01,9.79859e-01,9.99998e-01
8.752491287e-01,9.78257e-01,9.99999e-01,9.97966e-01,9.80253e-01,9.99997e-01
8.796253743e-01,9.77876e-01,9.99999e-01,9.97188e-01,9.80639e-01,9.99993e-01
8.840235012e-01,9.77847e-01,9.99999e-01,9.96787e-01,9.81018e-01,9.99979e-01
8.884436187e-01,9.69983e-01,9.99999e-01,9.88431e-01,9.81389e-01,9.99943e-01
8.928858368e-01,8.68243e-01,9.99999e-01,8.84663e-01,9.81753e-01,9.99678e-01
8.973502660e-01,7.89186e-01,9.99999e-01,8.04887e-01,9.82110e-01,9.98352e-01
9.018370173e-01,8.76879e-01,9.99999e-01,8.94849e-01,9.82461e-01,9.97411e-01
9.063462024e-01,8.89596e-01,9.99999e-01,9.07223e-01,9.82804e-01,9.97725e-01
9.108779334e-01,8.42437e-01,9.99999e-01,8.58912e-01,9.83141e-01,9.97636e-01
9.154323231e-01,8.25375e-01,9.99999e-01,8.40889e-01,9.83471e-01,9.98046e-01
9.200094847e-01,8.58122e-01,9.99999e-01,8.73211e-01,9.83795e-01,9.98905e-01
9.246095321e-01,8.00283e-01,9.99999e-01,8.14228e-01,9.84112e-01,9.98739e-01
9.292325798e-01,2.60948e-01,9.99999e-01,2.66384e-01,9.84424e-01,9.95093e-01
9.338787427e-01,1.74486e-01,9.99999e-01,1.80831e-01,9.84729e-01,9.79875e-01
9.385481364e-01,4.79477e-01,9.99999e-01,4.98677e-01,9.85028e-01,9.76110e-01
9.432408771e-01,3.78969e-01,9.99999e-01,3.92721e-01,9.85322e-01,9.79355e-01
9.479570815e-01,2.67735e-01,9.99999e-01,2.76295e-01,9.85610e-01,9.83165e-01
9.526968669e-01,3.61478e-01,9.99999e-01,3.70466e-01,9.85892e-01,9.89698e-01
9.574603512e-01,3.82437e-01,9.99999e-01,3.89845e-01,9.86169e-01,9.94753e-01
9.622476530e-01,4.51600e-01,9.99999e-01,4.59476e-01,9.86440e-01,9.96369e-01
9.670588912e-01,6.26877e-01,9.99999e-01,6.36904e-01,9.86706e-01,9.97515e-01
9.718941857e-01,7.39380e-01,9.99999e-01,7.50516e-01,9.86967e-01,9.98170e-01
9.767536566e-01,7.76665e-01,9.99999e-01,7.87818e-01,9.87223e-01,9.98601e-01
9.816374249e-01,8.26462e-01,9.99999e-01,8.37351e-01,9.87473e-01,9.99515e-01
9.865456120e-01,8.83732e-01,9.99999e-01,8.94809e-01,9.87719e-01,9.99898e-01
9.914783401e-01,9.22268e-01,9.99999e-01,9.33532e-01,9.87960e-01,9.99971e-01
9.964357318e-01,9.51847e-01,9.99999e-01,9.63231e-01,9.88197e-01,9.99983e-01
1.001417910e+00,9.66452e-01,9.99999e-01,9.77790e-01,9.88429e-01,9.99974e-01
1.006425000e+00,9.76054e-01,9.99999e-01,9.87288e-01,9.88656e-01,9.99963e-01
1.011457125e+00,9.81019e-01,9.99999e-01,9.92084e-01,9.88879e-01,9.99966e-01
1.016514411e+00,9.83756e-01,9.99999e-01,9.94622e-01,9.89097e-01,9.99976e-01
1.021596983e+00,9.85049e-01,9.99999e-01,9.95714e-01,9.89311e-01,9.99976e-01
1.026704968e+00,9.86198e-01,9.99999e-01,9.96656e-01,9.89521e-01,9.99983e-01
1.031838492e+00,9.87316e-01,9.99999e-01,9.97567e-01,9.89727e-01,9.99995e-01
1.036997685e+00,9.88499e-01,9.99999e-01,9.98555e-01,9.89929e-01,9.99998e-01
1.042182673e+00,9.88425e-01,9.99999e-01,9.98280e-01,9.90127e-01,9.99999e-01
1.047393587e+00,9.88062e-01,9.99999e-01,9.97718e-01,9.90321e-01,9.99999e-01
1.052630555e+00,9.87413e-01,9.99999e-01,9.96872e-01,9.90511e-01,9.99998e-01
1.057893707e+00,9.85532e-01,9.99999e-01,9.94787e-01,9.90698e-01,9.99997e-01
1.063183176e+00,9.82387e-01,9.99999e-01,9.91432e-01,9.90881e-01,9.99995e-01
1.068499092e+00,9.76864e-01,9.99999e-01,9.85685e-01,9.91060e-01,9.99989e-01
1.073841587e+00,9.74652e-01,9.99999e-01,9.83290e-01,9.91236e-01,9.99978e-01
1.079210795e+00,9.70134e-01,9.99999e-01,9.78597e-01,9.91408e-01,9.99942e-01
1.084606849e+00,9.59532e-01,9.99999e-01,9.67816e-01,9.91577e-01,9.99861e-01
1.090029883e+00,9.46099e-01,9.99999e-01,9.54249e-01,9.91743e-01,9.99712e-01
1.095480033e+00,8.72598e-01,9.99999e-01,8.80176e-01,9.91905e-01,9.99480e-01
1.100957433e+00,7.18273e-01,9.99999e-01,7.24710e-01,9.92064e-01,9.99044e-01
1.106462220e+00,4.46689e-01,9.99999e-01,4.50922e-01,9.92221e-01,9.98379e-01
1.111994531e+00,1.90657e-01,9.99999e-01,1.92951e-01,9.92374e-01,9.95703e-01
1.117554504e+00,7.27109e-02,9.99999e-01,7.44061e-02,9.92524e-01,9.84576e-01
1.123142276e+00,1.56558e-01,9.99999e-01,1.63636e-01,9.92671e-01,9.63810e-01
1.128757988e+00,2.77814e-01,9.99999e-01,2.92014e-01,9.92815e-01,9.58254e-01
1.134401778e+00,1.25672e-01,9.99999e-01,1.31237e-01,9.92956e-01,9.64390e-01
1.140073787e+00,4.51136e-01,9.99999e-01,4.67625e-01,9.93095e-01,9.71445e-01
1.145774156e+00,2.12921e-01,9.99999e-01,2.20133e-01,9.93231e-01,9.73830e-01
1.151503026e+00,1.84457e-01,9.99999e-01,1.88452e-01,9.93364e-01,9.85335e-01
1.157260541e+00,2.27351e-01,9.99999e-01,2.29853e-01,9.93495e-01,9.95592e-01
1.163046844e+00,3.31449e-01,9.99999e-01,3.33993e-01,9.93623e-01,9.98748e-01
1.168862078e+00,4.55832e-01,9.99999e-01,4.58995e-01,9.93748e-01,9.99354e-01
1.174706389e+00,6.13576e-01,9.99999e-01,6.17887e-01,9.93871e-01,9.99145e-01
1.180579921e+00,7.39501e-01,9.99999e-01,7.44933e-01,9.93992e-01,9.98707e-01
1.186482820e+00,8.39988e-01,9.99999e-01,8.46085e-01,9.94110e-01,9.98673e-01
1.192415234e+00,9.00812e-01,9.99999e-01,9.06943e-01,9.94226e-01,9.99006e-01
1.198377311e+00,9.14984e-01,9.99999e-01,9.21055e-01,9.94340e-01,9.99061e-01
1.204369197e+00,9.19342e-01,9.99999e-01,9.25256e-01,9.94452e-01,9.99150e-01
1.210391043e+00,9.22782e-01,9.99999e-01,9.28307e-01,9.94561e-01,9.99483e-01
1.216442998e+00,9.33328e-01,9.99999e-01,9.38627e-01,9.94668e-01,9.99683e-01
1.222525213e+00,9.46694e-01,9.99999e-01,9.51855e-01,9.94773e-01,9.99803e-01
1.228637839e+00,9.61283e-01,9.99999e-01,9.66321e-01,9.94876e-01,9.99908e-01
1.234781029e+00,9.69952e-01,9.99999e-01,9.74874e-01,9.94977e-01,9.99973e-01
1.240954934e+00,9.79194e-01,9.99999e-01,9.84045e-01,9.95076e-01,9.99992e-01
1.247159708e+00,9.82778e-01,9.99999e-01,9.87549e-01,9.95173e-01,9.99994e-01
1.253395507e+00,9.84260e-01,9.99999e-01,9.88945e-01,9.95268e-01,9.99993e-01
1.259662485e+00,9.84908e-01,9.99999e-01,9.89507e-01,9.95361e-01,9.99989e-01
1.265960797e+00,9.78782e-01,9.99999e-01,9.83268e-01,9.95453e-01,9.99983e-01
1.272290601e+00,9.69515e-01,9.99999e-01,9.73884e-01,9.95542e-01,9.99970e-01
1.278652054e+00,9.44597e-01,9.99999e-01,9.48790e-01,9.95630e-01,9.99948e-01
1.285045314e+00,9.16884e-01,9.99999e-01,9.20915e-01,9.95716e-01,9.99904e-01
1.291470541e+00,8.43818e-01,9.99999e-01,8.47518e-01,9.95801e-01,9.99832e-01
1.297927893e+00,8.02768e-01,9.99999e-01,8.06337e-01,9.95883e-01,9.99687e-01
1.304417533e+00,7.54879e-01,9.99999e-01,7.58437e-01,9.95964e-01,9.99339e-01
1.310939621e+00,7.25257e-01,9.99999e-01,7.29125e-01,9.96044e-01,9.98643e-01
1.317494319e+00,7.05102e-01,9.99999e-01,7.09625e-01,9.96122e-01,9.97493e-01
1.324081790e+00,5.97622e-01,9.99999e-01,6.02365e-01,9.96198e-01,9.95910e-01
1.330702199e+00,1.96928e-01,9.99999e-01,1.99066e-01,9.96273e-01,9.92959e-01
1.337355710e+00,9.65999e-03,9.99999e-01,9.82822e-03,9.96347e-01,9.86484e-01
1.344042489e+00,2.33001e-04,9.99999e-01,2.43621e-04,9.96419e-01,9.59843e-01
1.350762701e+00,1.07878e-10,9.99999e-01,1.24566e-10,9.96489e-01,8.69078e-01
1.357516515e+00,1.26488e-15,9.99999e-01,1.91599e-15,9.96559e-01,6.62448e-01
1.364304097e+00,4.42562e-10,9.99999e-01,9.13873e-10,9.96626e-01,4.85909e-01
1.371125618e+00,9.87638e-07,9.99999e-01,1.95683e-06,9.96693e-01,5.06388e-01
1.377981246e+00,3.65806e-06,9.99999e-01,6.57619e-06,9.96758e-01,5.58066e-01
1.384871152e+00,1.02361e-08,9.99999e-01,1.77873e-08,9.96822e-01,5.77309e-01
1.391795508e+00,5.22682e-10,9.99999e-01,8.81949e-10,9.96885e-01,5.94496e-01
1.398754485e+00,4.64670e-08,9.99999e-01,7.15043e-08,9.96946e-01,6.51838e-01
1.405748258e+00,6.20366e-08,9.99999e-01,7.99102e-08,9.97006e-01,7.78659e-01
1.412776999e+00,7.45041e-08,9.99999e-01,8.37652e-08,9.97065e-01,8.92056e-01
1.419840884e+00,1.63224e-07,9.99999e-01,1.72102e-07,9.97123e-01,9.51148e-01
1.426940089e+00,1.24011e-05,9.99999e-01,1.29185e-05,9.97180e-01,9.62664e-01
1.434074789e+00,1.02510e-04,9.99999e-01,1.07515e-04,9.97236e-01,9.56092e-01
1.441245163e+00,5.51524e-04,9.99999e-01,5.80582e-04,9.97290e-01,9.52529e-01
1.448451389e+00,5.60184e-03,9.99998e-01,5.86110e-03,9.97344e-01,9.58309e-01
1.455693646e+00,2.85985e-02,9.99999e-01,2.96392e-02,9.97396e-01,9.67407e-01
1.462972114e+00,4.14937e-02,9.99999e-01,4.29354e-02,9.97447e-01,9.68892e-01
1.470286975e+00,2.53890e-02,9.99999e-01,2.62557e-02,9.97498e-01,9.69413e-01
