#,Wave/freq,Total,N2,H2O,Rayleigh,CIA
4.000000000e-01,5.32547e-01,9.99999e-01,9.99928e-01,5.32584e-01,9.99999e-01
4.020000000e-01,5.39237e-01,9.99999e-01,9.99955e-01,5.39260e-01,9.99999e-01
4.040100000e-01,5.45868e-01,9.99999e-01,9.99980e-01,5.45878e-01,9.99999e-01
4.060300500e-01,5.52443e-01,9.99999e-01,9.99995e-01,5.52445e-01,9.99999e-01
4.080602003e-01,5.58958e-01,9.99999e-01,9.99998e-01,5.58958e-01,9.99999e-01
4.101005013e-01,5.65417e-01,9.99999e-01,9.99999e-01,5.65418e-01,9.99999e-01
4.121510038e-01,5.71820e-01,9.99999e-01,9.99996e-01,5.71822e-01,9.99999e-01
4.142117588e-01,5.78158e-01,9.99999e-01,9.99979e-01,5.78170e-01,9.99999e-01
4.162828176e-01,5.84409e-01,9.99999e-01,9.99911e-01,5.84461e-01,9.99999e-01
4.183642317e-01,5.90663e-01,9.99999e-01,9.99947e-01,5.90694e-01,9.99999e-01
4.204560528e-01,5.96849e-01,9.99999e-01,9.99967e-01,5.96868e-01,9.99999e-01
4.225583331e-01,6.02976e-01,9.99999e-01,9.99987e-01,6.02984e-01,9.99999e-01
4.246711247e-01,6.09033e-01,9.99999e-01,9.99989e-01,6.09039e-01,9.99999e-01
4.267944804e-01,6.15025e-01,9.99999e-01,9.99985e-01,6.15034e-01,9.99999e-01
4.289284528e-01,6.20960e-01,9.99999e-01,9.99988e-01,6.20967e-01,9.99999e-01
4.310730950e-01,6.26836e-01,9.99999e-01,9.99994e-01,6.26839e-01,9.99999e-01
4.332284605e-01,6.32648e-01,9.99999e-01,9.99998e-01,6.32649e-01,9.99999e-01
4.353946028e-01,6.38396e-01,9.99999e-01,9.99998e-01,6.38396e-01,9.99999e-01
4.375715758e-01,6.44075e-01,9.99999e-01,9.99990e-01,6.44080e-01,9.99999e-01
4.397594337e-01,6.49651e-01,9.99999e-01,9.99921e-01,6.49702e-01,9.99999e-01
4.419582309e-01,6.54998e-01,9.99999e-01,9.99600e-01,6.55260e-01,9.99999e-01
4.441680220e-01,6.60553e-01,9.99999e-01,9.99695e-01,6.60754e-01,9.99999e-01
4.463888621e-01,6.65972e-01,9.99999e-01,9.99680e-01,6.66184e-01,9.99999e-01
4.486208064e-01,6.71418e-01,9.99999e-01,9.99802e-01,6.71551e-01,9.99999e-01
4.508639105e-01,6.76791e-01,9.99999e-01,9.99907e-01,6.76853e-01,9.99999e-01
4.531182300e-01,6.82066e-01,9.99999e-01,9.99963e-01,6.82091e-01,9.99999e-01
4.553838212e-01,6.87248e-01,9.99999e-01,9.99974e-01,6.87265e-01,9.99999e-01
4.576607403e-01,6.92368e-01,9.99999e-01,9.99988e-01,6.92375e-01,9.99999e-01
4.599490440e-01,6.97416e-01,9.99999e-01,9.99991e-01,6.97421e-01,9.99999e-01
4.622487892e-01,7.02403e-01,9.99999e-01,9.99998e-01,7.02404e-01,9.99999e-01
4.645600332e-01,7.07318e-01,9.99999e-01,9.99993e-01,7.07322e-01,9.99999e-01
4.668828333e-01,7.12109e-01,9.99999e-01,9.99905e-01,7.12176e-01,9.99999e-01
4.692172475e-01,7.16824e-01,9.99999e-01,9.99799e-01,7.16967e-01,9.99999e-01
4.715633337e-01,7.21600e-01,9.99999e-01,9.99868e-01,7.21694e-01,9.99999e-01
4.739211504e-01,7.26268e-01,9.99999e-01,9.99874e-01,7.26359e-01,9.99999e-01
4.762907561e-01,7.30913e-01,9.99999e-01,9.99935e-01,7.30960e-01,9.99999e-01
4.786722099e-01,7.35480e-01,9.99999e-01,9.99973e-01,7.35499e-01,9.99999e-01
4.810655710e-01,7.39970e-01,9.99999e-01,9.99991e-01,7.39976e-01,9.99999e-01
4.834708988e-01,7.44332e-01,9.99999e-01,9.99921e-01,7.44391e-01,9.99999e-01
4.858882533e-01,7.48638e-01,9.99999e-01,9.99858e-01,7.48744e-01,9.99999e-01
4.883176946e-01,7.52946e-01,9.99999e-01,9.99880e-01,7.53035e-01,9.99999e-01
4.907592831e-01,7.57185e-01,9.99999e-01,9.99892e-01,7.57266e-01,9.99999e-01
4.932130795e-01,7.61379e-01,9.99999e-01,9.99923e-01,7.61436e-01,9.99999e-01
4.956791449e-01,7.65516e-01,9.99999e-01,9.99959e-01,7.65547e-01,9.99999e-01
4.981575406e-01,7.69442e-01,9.99999e-01,9.99797e-01,7.69597e-01,9.99999e-01
5.006483283e-01,7.73178e-01,9.99999e-01,9.99472e-01,7.73589e-01,9.99995e-01
5.031515699e-01,7.75443e-01,9.99999e-01,9.97354e-01,7.77521e-01,9.99971e-01
5.056673278e-01,7.80283e-01,9.99999e-01,9.98607e-01,7.81396e-01,9.99967e-01
5.081956644e-01,7.83819e-01,9.99999e-01,9.98245e-01,7.85212e-01,9.99980e-01
5.107366428e-01,7.88035e-01,9.99999e-01,9.98815e-01,7.88971e-01,9.99996e-01
5.132903260e-01,7.92138e-01,9.99999e-01,9.99324e-01,7.92674e-01,9.99999e-01
5.158567776e-01,7.96093e-01,9.99999e-01,9.99714e-01,7.96320e-01,9.99999e-01
5.184360615e-01,7.99819e-01,9.99999e-01,9.99885e-01,7.99911e-01,9.99999e-01
5.210282418e-01,8.03411e-01,9.99999e-01,9.99956e-01,8.03446e-01,9.99999e-01
5.236333830e-01,8.06787e-01,9.99999e-01,9.99827e-01,8.06926e-01,9.99998e-01
5.262515499e-01,8.10264e-01,9.99999e-01,9.99891e-01,8.10353e-01,9.99997e-01
5.288828077e-01,8.13644e-01,9.99999e-01,9.99900e-01,8.13726e-01,9.99998e-01
5.315272217e-01,8.16975e-01,9.99999e-01,9.99913e-01,8.17046e-01,9.99999e-01
5.341848578e-01,8.20266e-01,9.99999e-01,9.99942e-01,8.20313e-01,9.99999e-01
5.368557821e-01,8.23362e-01,9.99999e-01,9.99797e-01,8.23529e-01,9.99999e-01
5.395400610e-01,8.26082e-01,9.99999e-01,9.99266e-01,8.26693e-01,9.99992e-01
5.422377613e-01,8.29019e-01,9.99999e-01,9.99067e-01,8.29807e-01,9.99982e-01
5.449489501e-01,8.32128e-01,9.99999e-01,9.99125e-01,8.32870e-01,9.99981e-01
5.476736949e-01,8.35236e-01,9.99999e-01,9.99232e-01,8.35884e-01,9.99990e-01
5.504120634e-01,8.38380e-01,9.99999e-01,9.99442e-01,8.38849e-01,9.99997e-01
5.531641237e-01,8.41530e-01,9.99999e-01,9.99719e-01,8.41766e-01,9.99999e-01
5.559299443e-01,8.44521e-01,9.99999e-01,9.99864e-01,8.44635e-01,9.99999e-01
5.587095940e-01,8.47385e-01,9.99999e-01,9.99914e-01,8.47457e-01,9.99999e-01
5.615031420e-01,8.50151e-01,9.99999e-01,9.99904e-01,8.50232e-01,9.99999e-01
5.643106577e-01,8.52867e-01,9.99999e-01,9.99890e-01,8.52961e-01,9.99998e-01
5.671322110e-01,8.54495e-01,9.99999e-01,9.98667e-01,8.55645e-01,9.99987e-01
5.699678720e-01,8.57073e-01,9.99999e-01,9.98624e-01,8.58284e-01,9.99964e-01
5.728177114e-01,8.59605e-01,9.99999e-01,9.98549e-01,8.60878e-01,9.99969e-01
5.756818000e-01,8.62269e-01,9.99999e-01,9.98672e-01,8.63429e-01,9.99982e-01
5.785602090e-01,8.64933e-01,9.99999e-01,9.98844e-01,8.65937e-01,9.99994e-01
5.814530100e-01,8.67391e-01,9.99999e-01,9.98837e-01,8.68403e-01,9.99997e-01
5.843602750e-01,8.69604e-01,9.99999e-01,9.98602e-01,8.70827e-01,9.99991e-01
5.872820764e-01,8.62695e-01,9.99999e-01,9.88041e-01,8.73209e-01,9.99915e-01
5.902184868e-01,8.62787e-01,9.99999e-01,9.85646e-01,8.75551e-01,9.99770e-01
5.931695792e-01,8.68722e-01,9.99999e-01,9.89816e-01,8.77852e-01,9.99779e-01
5.961354271e-01,8.70201e-01,9.99999e-01,9.88861e-01,8.80114e-01,9.99873e-01
5.991161043e-01,8.75132e-01,9.99999e-01,9.91872e-01,8.82337e-01,9.99960e-01
6.021116848e-01,8.80438e-01,9.99999e-01,9.95387e-01,8.84521e-01,9.99995e-01
6.051222432e-01,8.84597e-01,9.99999e-01,9.97664e-01,8.86668e-01,9.99999e-01
6.081478544e-01,8.87880e-01,9.99999e-01,9.98990e-01,8.88777e-01,9.99999e-01
6.111885937e-01,8.90470e-01,9.99999e-01,9.99574e-01,8.90849e-01,9.99999e-01
6.142445367e-01,8.92715e-01,9.99999e-01,9.99809e-01,8.92885e-01,9.99999e-01
6.173157594e-01,8.94792e-01,9.99999e-01,9.99894e-01,8.94886e-01,9.99999e-01
6.204023382e-01,8.96771e-01,9.99999e-01,9.99909e-01,8.96851e-01,9.99999e-01
6.235043498e-01,8.98421e-01,9.99999e-01,9.99599e-01,8.98781e-01,9.99998e-01
6.266218716e-01,8.98790e-01,9.99999e-01,9.97917e-01,9.00678e-01,9.99984e-01
6.297549810e-01,9.01825e-01,9.99999e-01,9.99235e-01,9.02541e-01,9.99970e-01
6.329037559e-01,9.02989e-01,9.99999e-01,9.98494e-01,9.04371e-01,9.99976e-01
6.360682746e-01,9.04989e-01,9.99999e-01,9.98711e-01,9.06168e-01,9.99985e-01
6.392486160e-01,9.06416e-01,9.99999e-01,9.98334e-01,9.07933e-01,9.99993e-01
6.424448591e-01,9.07613e-01,9.99999e-01,9.97752e-01,9.09667e-01,9.99988e-01
6.456570834e-01,9.01845e-01,9.99999e-01,9.89610e-01,9.11370e-01,9.99936e-01
6.488853688e-01,9.06026e-01,9.99999e-01,9.92474e-01,9.13042e-01,9.99839e-01
6.521297956e-01,9.07552e-01,9.99999e-01,9.92333e-01,9.14684e-01,9.99867e-01
6.553904446e-01,9.09173e-01,9.99999e-01,9.92322e-01,9.16297e-01,9.99900e-01
6.586673968e-01,9.11842e-01,9.99999e-01,9.93453e-01,9.17880e-01,9.99966e-01
6.619607338e-01,9.16071e-01,9.99999e-01,9.96347e-01,9.19435e-01,9.99992e-01
6.652705375e-01,9.18939e-01,9.99999e-01,9.97806e-01,9.20962e-01,9.99995e-01
6.685968902e-01,9.21601e-01,9.99999e-01,9.99068e-01,9.22461e-01,9.99998e-01
6.719398746e-01,9.23497e-01,9.99999e-01,9.99527e-01,9.23933e-01,9.99999e-01
6.752995740e-01,9.25147e-01,9.99999e-01,9.99750e-01,9.25378e-01,9.99999e-01
6.786760719e-01,9.26450e-01,9.99999e-01,9.99625e-01,9.26796e-01,9.99998e-01
6.820694522e-01,9.27590e-01,9.99999e-01,9.99357e-01,9.28189e-01,9.99996e-01
6.854797995e-01,9.28787e-01,9.99999e-01,9.99178e-01,9.29556e-01,9.99992e-01
6.889071985e-01,9.29006e-01,9.99999e-01,9.97983e-01,9.30898e-01,9.99981e-01
6.923517345e-01,9.02173e-01,9.99999e-01,9.67922e-01,9.32216e-01,9.99844e-01
6.958134932e-01,9.17856e-01,9.99999e-01,9.83569e-01,9.33509e-01,9.99656e-01
6.992925606e-01,9.19554e-01,9.99999e-01,9.84017e-01,9.34779e-01,9.99690e-01
7.027890234e-01,9.17523e-01,9.99999e-01,9.80464e-01,9.36025e-01,9.99763e-01
7.063029686e-01,9.21701e-01,9.99999e-01,9.83526e-01,9.37248e-01,9.99881e-01
7.098344834e-01,9.23545e-01,9.99999e-01,9.84186e-01,9.38449e-01,9.99929e-01
7.133836558e-01,9.19528e-01,9.99999e-01,9.78744e-01,9.39627e-01,9.99861e-01
7.169505741e-01,7.93101e-01,9.99999e-01,8.43938e-01,9.40783e-01,9.98912e-01
7.205353270e-01,8.66290e-01,9.99999e-01,9.21474e-01,9.41918e-01,9.98081e-01
7.241380036e-01,8.46927e-01,9.99999e-01,8.99578e-01,9.43032e-01,9.98343e-01
7.277586936e-01,8.57095e-01,9.99999e-01,9.09049e-01,9.44126e-01,9.98645e-01
7.313974871e-01,8.53808e-01,9.99999e-01,9.03883e-01,9.45198e-01,9.99365e-01
7.350544745e-01,8.95054e-01,9.99999e-01,9.46103e-01,9.46251e-01,9.99779e-01
7.387297469e-01,9.09318e-01,9.99999e-01,9.60017e-01,9.47284e-01,9.99898e-01
7.424233956e-01,9.29570e-01,9.99999e-01,9.80267e-01,9.48298e-01,9.99981e-01
7.461355126e-01,9.37876e-01,9.99999e-01,9.87975e-01,9.49293e-01,9.99996e-01
7.498661902e-01,9.44948e-01,9.99999e-01,9.94401e-01,9.50269e-01,9.99998e-01
7.536155211e-01,9.48603e-01,9.99999e-01,9.97241e-01,9.51227e-01,9.99998e-01
7.573835987e-01,9.50815e-01,9.99999e-01,9.98579e-01,9.52167e-01,9.99999e-01
7.611705167e-01,9.52248e-01,9.99999e-01,9.99116e-01,9.53089e-01,9.99999e-01
7.649763693e-01,9.53466e-01,9.99999e-01,9.99445e-01,9.53994e-01,9.99999e-01
7.688012511e-01,9.54513e-01,9.99999e-01,9.99613e-01,9.54882e-01,9.99999e-01
7.726452574e-01,9.55449e-01,9.99999e-01,9.99681e-01,9.55753e-01,9.99999e-01
7.765084837e-01,9.56172e-01,9.99999e-01,9.99543e-01,9.56608e-01,9.99998e-01
7.803910261e-01,9.55557e-01,9.99999e-01,9.98027e-01,9.57447e-01,9.99997e-01
7.842929812e-01,9.51675e-01,9.99999e-01,9.93130e-01,9.58269e-01,9.99986e-01
7.882144461e-01,9.45578e-01,9.99999e-01,9.86019e-01,9.59077e-01,9.99903e-01
7.921555184e-01,9.52371e-01,9.99999e-01,9.92354e-01,9.59868e-01,9.99831e-01
7.961162960e-01,9.47395e-01,9.99999e-01,9.86363e-01,9.60645e-01,9.99840e-01
8.000968774e-01,9.46200e-01,9.99999e-01,9.84348e-01,9.61407e-01,9.99829e-01
8.040973618e-01,9.46951e-01,9.99999e-01,9.84324e-01,9.62155e-01,9.99870e-01
8.081178486e-01,9.28930e-01,9.99999e-01,9.64858e-01,9.62889e-01,9.99868e-01
8.121584379e-01,8.30697e-01,9.99999e-01,8.62497e-01,9.63608e-01,9.99503e-01
8.162192301e-01,8.09335e-01,9.99999e-01,8.40854e-01,9.64314e-01,9.98133e-01
8.203003262e-01,8.83286e-01,9.99999e-01,9.17319e-01,9.65006e-01,9.97815e-01
8.244018279e-01,8.57939e-01,9.99999e-01,8.89971e-01,9.65686e-01,9.98260e-01
8.285238370e-01,8.69139e-01,9.99999e-01,9.00631e-01,9.66352e-01,9.98633e-01
8.326664562e-01,8.69989e-01,9.99999e-01,9.00181e-01,9.67005e-01,9.99434e-01
8.368297885e-01,8.97303e-01,9.99999e-01,9.27424e-01,9.67646e-01,9.99870e-01
8.410139374e-01,9.25789e-01,9.99999e-01,9.56193e-01,9.68275e-01,9.99924e-01
8.452190071e-01,9.47812e-01,9.99999e-01,9.78286e-01,9.68892e-01,9.99954e-01
8.494451021e-01,9.57142e-01,9.99999e-01,9.87292e-01,9.69497e-01,9.99963e-01
8.536923276e-01,9.62787e-01,9.99999e-01,9.92492e-01,9.70090e-01,9.99977e-01
8.579607893e-01,9.66160e-01,9.99999e-01,9.95356e-01,9.70672e-01,9.99994e-01
8.622505932e-01,9.68383e-01,9.99999e-01,9.97055e-01,9.71243e-01,9.99998e-01
8.665618462e-01,9.70025e-01,9.99999e-01,9.98170e-01,9.71803e-01,9.99998e-01
8.708946554e-01,9.70310e-01,9.99999e-01,9.97900e-01,9.72352e-01,9.99998e-01
8.752491287e-01,9.70159e-01,9.99999e-01,9.97194e-01,9.72891e-01,9.99996e-01
8.796253743e-01,9.69619e-01,9.99999e-01,9.96104e-01,9.73419e-01,9.99990e-01
8.840235012e-01,9.69583e-01,9.99999e-01,9.95555e-01,9.73937e-01,9.99972e-01
8.884436187e-01,9.58428e-01,9.99999e-01,9.83637e-01,9.74445e-01,9.99922e-01
8.928858368e-01,8.22285e-01,9.99999e-01,8.43791e-01,9.74944e-01,9.99556e-01
8.973502660e-01,7.23827e-01,9.99999e-01,7.43744e-01,9.75433e-01,9.97730e-01
9.018370173e-01,8.37174e-01,9.99999e-01,8.60907e-01,9.75912e-01,9.96433e-01
9.063462024e-01,8.50686e-01,9.99999e-01,8.74001e-01,9.76382e-01,9.96866e-01
9.108779334e-01,7.90274e-01,9.99999e-01,8.11649e-01,9.76843e-01,9.96744e-01
9.154323231e-01,7.68664e-01,9.99999e-01,7.88644e-01,9.77295e-01,9.97307e-01
9.200094847e-01,8.11505e-01,9.99999e-01,8.31234e-01,9.77739e-01,9.98492e-01
9.246095321e-01,7.34924e-01,9.99999e-01,7.52629e-01,9.78174e-01,9.98262e-01
9.292325798e-01,1.67990e-01,9.99999e-01,1.73110e-01,9.78600e-01,9.91642e-01
9.338787427e-01,1.00013e-01,9.99999e-01,1.05302e-01,9.79018e-01,9.70120e-01
9.385481364e-01,3.78539e-01,9.99999e-01,3.99588e-01,9.79428e-01,9.67220e-01
9.432408771e-01,2.76269e-01,9.99999e-01,2.90180e-01,9.79831e-01,9.71656e-01
9.479570815e-01,1.72886e-01,9.99999e-01,1.80549e-01,9.80225e-01,9.76870e-01
9.526968669e-01,2.57180e-01,9.99999e-01,2.66035e-01,9.80612e-01,9.85827e-01
9.574603512e-01,2.75192e-01,9.99999e-01,2.82565e-01,9.80991e-01,9.92775e-01
9.622476530e-01,3.43569e-01,9.99999e-01,3.51852e-01,9.81363e-01,9.94998e-01
9.670588912e-01,5.31746e-01,9.99999e-01,5.43503e-01,9.81728e-01,9.96576e-01
9.718941857e-01,6.61400e-01,9.99999e-01,6.75166e-01,9.82085e-01,9.97478e-01
9.767536566e-01,7.07226e-01,9.99999e-01,7.21258e-01,9.82436e-01,9.98072e-01
9.816374249e-01,7.70377e-01,9.99999e-01,7.84398e-01,9.82780e-01,9.99332e-01
9.865456120e-01,8.44219e-01,9.99999e-01,8.58835e-01,9.83117e-01,9.99860e-01
9.914783401e-01,8.94874e-01,9.99999e-01,9.09969e-01,9.83448e-01,9.99960e-01
9.964357318e-01,9.34485e-01,9.99999e-01,9.49920e-01,9.83772e-01,9.99976e-01
1.001417910e+00,9.54217e-01,9.99999e-01,9.69677e-01,9.84090e-01,9.99965e-01
1.006425000e+00,9.67183e-01,9.99999e-01,9.82555e-01,9.84402e-01,9.99950e-01
1.011457125e+00,9.73997e-01,9.99999e-01,9.89167e-01,9.84708e-01,9.99954e-01
1.016514411e+00,9.77709e-01,9.99999e-01,9.92622e-01,9.85007e-01,9.99967e-01
1.021596983e+00,9.79470e-01,9.99999e-01,9.94112e-01,9.85301e-01,9.99967e-01
1.026704968e+00,9.81040e-01,9.99999e-01,9.95403e-01,9.85589e-01,9.99979e-01
1.031838492e+00,9.82579e-01,9.99999e-01,9.96664e-01,9.85872e-01,9.99993e-01
1.036997685e+00,9.84190e-01,9.99999e-01,9.98013e-01,9.86149e-01,9.99998e-01
1.042182673e+00,9.84076e-01,9.99999e-01,9.97622e-01,9.86421e-01,9.99999e-01
1.047393587e+00,9.83583e-01,9.99999e-01,9.96854e-01,9.86687e-01,9.99998e-01
1.052630555e+00,9.82684e-01,9.99999e-01,9.95679e-01,9.86949e-01,9.99998e-01
1.057893707e+00,9.80081e-01,9.99999e-01,9.92785e-01,9.87205e-01,9.99997e-01
1.063183176e+00,9.75769e-01,9.99999e-01,9.88170e-01,9.87456e-01,9.99993e-01
1.068499092e+00,9.68235e-01,9.99999e-01,9.80303e-01,9.87702e-01,9.99986e-01
1.073841587e+00,9.65158e-01,9.99999e-01,9.76965e-01,9.87943e-01,9.99970e-01
1.079210795e+00,9.59108e-01,9.99999e-01,9.70657e-01,9.88180e-01,9.99920e-01
1.084606849e+00,9.44619e-01,9.99999e-01,9.55875e-01,9.88412e-01,9.99808e-01
1.090029883e+00,9.25946e-01,9.99999e-01,9.36956e-01,9.88640e-01,9.99603e-01
1.095480033e+00,8.27990e-01,9.99999e-01,8.37914e-01,9.88863e-01,9.99283e-01
1.100957433e+00,6.33587e-01,9.99999e-01,6.41425e-01,9.89082e-01,9.98682e-01
1.106462220e+00,3.33497e-01,9.99999e-01,3.37859e-01,9.89296e-01,9.97766e-01
1.111994531e+00,1.07687e-01,9.99999e-01,1.09477e-01,9.89506e-01,9.94082e-01
1.117554504e+00,3.07371e-02,9.99999e-01,3.17291e-02,9.89713e-01,9.78802e-01
1.123142276e+00,8.98725e-02,9.99999e-01,9.55200e-02,9.89915e-01,9.50460e-01
1.128757988e+00,1.79641e-01,9.99999e-01,1.92419e-01,9.90113e-01,9.42916e-01
1.134401778e+00,8.24043e-02,9.99999e-01,8.74752e-02,9.90307e-01,9.51249e-01
1.140073787e+00,3.39160e-01,9.99999e-01,3.56363e-01,9.90498e-01,9.60854e-01
1.145774156e+00,1.29173e-01,9.99999e-01,1.35242e-01,9.90685e-01,9.64107e-01
1.151503026e+00,1.06030e-01,9.99999e-01,1.09208e-01,9.90868e-01,9.79843e-01
1.157260541e+00,1.35143e-01,9.99999e-01,1.37196e-01,9.91047e-01,9.93929e-01
1.163046844e+00,2.25317e-01,9.99999e-01,2.27704e-01,9.91223e-01,9.98275e-01
1.168862078e+00,3.43316e-01,9.99999e-01,3.46603e-01,9.91396e-01,9.99111e-01
1.174706389e+00,5.13639e-01,9.99999e-01,5.18618e-01,9.91565e-01,9.98821e-01
1.180579921e+00,6.62167e-01,9.99999e-01,6.68878e-01,9.91731e-01,9.98219e-01
1.186482820e+00,7.87258e-01,9.99999e-01,7.95144e-01,9.91894e-01,9.98172e-01
1.192415234e+00,8.66184e-01,9.99999e-01,8.74319e-01,9.92053e-01,9.98630e-01
1.198377311e+00,8.84738e-01,9.99999e-01,8.92844e-01,9.92210e-01,9.98700e-01
1.204369197e+00,8.90826e-01,9.99999e-01,8.98697e-01,9.92363e-01,9.98868e-01
1.210391043e+00,8.95342e-01,9.99999e-01,9.02738e-01,9.92513e-01,9.99287e-01
1.216442998e+00,9.09690e-01,9.99999e-01,9.16815e-01,9.92660e-01,9.99563e-01
1.222525213e+00,9.27478e-01,9.99999e-01,9.34452e-01,9.92805e-01,9.99728e-01
1.228637839e+00,9.47118e-01,9.99999e-01,9.53965e-01,9.92946e-01,9.99873e-01
1.234781029e+00,9.58948e-01,9.99999e-01,9.65658e-01,9.93085e-01,9.99963e-01
1.240954934e+00,9.71484e-01,9.99999e-01,9.78123e-01,9.93221e-01,9.99989e-01
1.247159708e+00,9.76397e-01,9.99999e-01,9.82935e-01,9.93355e-01,9.99993e-01
1.253395507e+00,9.78389e-01,9.99999e-01,9.84812e-01,9.93486e-01,9.99991e-01
1.259662485e+00,9.79227e-01,9.99999e-01,9.85533e-01,9.93614e-01,9.99986e-01
1.265960797e+00,9.70904e-01,9.99999e-01,9.77041e-01,9.93740e-01,9.99977e-01
1.272290601e+00,9.58108e-01,9.99999e-01,9.64061e-01,9.93863e-01,9.99959e-01
1.278652054e+00,9.24340e-01,9.99999e-01,9.29999e-01,9.93984e-01,9.99929e-01
1.285045314e+00,8.71619e-01,9.99999e-01,8.76904e-01,9.94102e-01,9.99868e-01
1.291470541e+00,7.90891e-01,9.99999e-01,7.95673e-01,9.94218e-01,9.99769e-01
1.297927893e+00,7.19097e-01,9.99999e-01,7.23506e-01,9.94332e-01,9.99569e-01
1.304417533e+00,6.80477e-01,9.99999e-01,6.84901e-01,9.94444e-01,9.99089e-01
1.310939621e+00,6.15510e-01,9.99999e-01,6.20038e-01,9.94553e-01,9.98131e-01
1.317494319e+00,6.20856e-01,9.99999e-01,6.26351e-01,9.94660e-01,9.96546e-01
1.324081790e+00,4.98568e-01,9.99999e-01,5.04029e-01,9.94766e-01,9.94367e-01
1.330702199e+00,1.24870e-01,9.99999e-01,1.26742e-01,9.94869e-01,9.90307e-01
1.337355710e+00,2.21054e-03,9.99999e-01,2.26378e-03,9.94970e-01,9.81418e-01
1.344042489e+00,3.63286e-05,9.99999e-01,3.86304e-05,9.95069e-01,9.45073e-01
1.350762701e+00,5.00061e-14,9.99999e-01,6.09715e-14,9.95166e-01,8.24138e-01
1.357516515e+00,8.88886e-21,9.99999e-01,1.57554e-20,9.95261e-01,5.66863e-01
1.364304097e+00,3.40374e-13,9.99999e-01,9.24753e-13,9.95355e-01,3.69787e-01
1.371125618e+00,1.61163e-08,9.99999e-01,4.13602e-08,9.95446e-01,3.91440e-01
1.377981246e+00,5.84016e-08,9.99999e-01,1.31079e-07,9.95536e-01,4.47543e-01
1.384871152e+00,3.67954e-11,9.99999e-01,7.81730e-11,9.95624e-01,4.72760e-01
1.391795508e+00,3.46890e-13,9.99999e-01,7.11535e-13,9.95710e-01,4.89623e-01
1.398754485e+00,2.15241e-10,9.99999e-01,3.89889e-10,9.95795e-01,5.54387e-01
1.405748258e+00,2.90338e-10,9.99999e-01,4.11588e-10,9.95878e-01,7.08328e-01
1.412776999e+00,4.84422e-10,9.99999e-01,5.69325e-10,9.95959e-01,8.54321e-01
1.419840884e+00,9.66541e-10,9.99999e-01,1.03974e-09,9.96038e-01,9.33292e-01
1.426940089e+00,5.78096e-07,9.99998e-01,6.11600e-07,9.96116e-01,9.48903e-01
1.434074789e+00,5.82398e-06,9.99999e-01,6.21949e-06,9.96193e-01,9.39985e-01
1.441245163e+00,4.99816e-05,9.99999e-01,5.36473e-05,9.96268e-01,9.35160e-01
1.448451389e+00,1.15176e-03,9.99998e-01,1.22588e-03,9.96342e-01,9.42992e-01
1.455693646e+00,9.86968e-03,9.99999e-01,1.03681e-02,9.96414e-01,9.55354e-01
1.462972114e+00,1.43601e-02,9.99999e-01,1.50523e-02,9.96484e-01,9.57375e-01
1.470286975e+00,7.69983e-03,9.99999e-01,8.06446e-03,9.96554e-01,9.58086e-01
