#,Wave/freq,Total,N2,H2O,Rayleigh,CIA
4.000000000e-01,7.90638e-01,9.99999e-01,9.99973e-01,7.90659e-01,9.99999e-01
4.020000000e-01,7.94326e-01,9.99999e-01,9.99983e-01,7.94339e-01,9.99999e-01
4.040100000e-01,7.97954e-01,9.99999e-01,9.99992e-01,7.97960e-01,9.99999e-01
4.060300500e-01,8.01524e-01,9.99999e-01,9.99997e-01,8.01525e-01,9.99999e-01
4.080602003e-01,8.05035e-01,9.99999e-01,9.99998e-01,8.05036e-01,9.99999e-01
4.101005013e-01,8.08492e-01,9.99999e-01,9.99999e-01,8.08492e-01,9.99999e-01
4.121510038e-01,8.11893e-01,9.99999e-01,9.99998e-01,8.11894e-01,9.99999e-01
4.142117588e-01,8.15236e-01,9.99999e-01,9.99992e-01,8.15242e-01,9.99999e-01
4.162828176e-01,8.18511e-01,9.99999e-01,9.99966e-01,8.18538e-01,9.99999e-01
4.183642317e-01,8.21766e-01,9.99999e-01,9.99980e-01,8.21782e-01,9.99999e-01
4.204560528e-01,8.24965e-01,9.99999e-01,9.99987e-01,8.24974e-01,9.99999e-01
4.225583331e-01,8.28112e-01,9.99999e-01,9.99995e-01,8.28116e-01,9.99999e-01
4.246711247e-01,8.31203e-01,9.99999e-01,9.99995e-01,8.31206e-01,9.99999e-01
4.267944804e-01,8.34243e-01,9.99999e-01,9.99994e-01,8.34247e-01,9.99999e-01
4.289284528e-01,8.37236e-01,9.99999e-01,9.99995e-01,8.37239e-01,9.99999e-01
4.310730950e-01,8.40180e-01,9.99999e-01,9.99997e-01,8.40182e-01,9.99999e-01
4.332284605e-01,8.43076e-01,9.99999e-01,9.99999e-01,8.43077e-01,9.99999e-01
4.353946028e-01,8.45924e-01,9.99999e-01,9.99999e-01,8.45924e-01,9.99999e-01
4.375715758e-01,8.48722e-01,9.99999e-01,9.99996e-01,8.48725e-01,9.99999e-01
4.397594337e-01,8.51454e-01,9.99999e-01,9.99970e-01,8.51479e-01,9.99999e-01
4.419582309e-01,8.54063e-01,9.99999e-01,9.99853e-01,8.54187e-01,9.99999e-01
4.441680220e-01,8.56752e-01,9.99999e-01,9.99885e-01,8.56850e-01,9.99999e-01
4.463888621e-01,8.59367e-01,9.99999e-01,9.99880e-01,8.59469e-01,9.99999e-01
4.486208064e-01,8.61980e-01,9.99999e-01,9.99925e-01,8.62044e-01,9.99999e-01
4.508639105e-01,8.64545e-01,9.99999e-01,9.99964e-01,8.64575e-01,9.99999e-01
4.531182300e-01,8.67052e-01,9.99999e-01,9.99985e-01,8.67064e-01,9.99999e-01
4.553838212e-01,8.69502e-01,9.99999e-01,9.99990e-01,8.69510e-01,9.99999e-01
4.576607403e-01,8.71912e-01,9.99999e-01,9.99995e-01,8.71915e-01,9.99999e-01
4.599490440e-01,8.74276e-01,9.99999e-01,9.99996e-01,8.74279e-01,9.99999e-01
4.622487892e-01,8.76602e-01,9.99999e-01,9.99998e-01,8.76602e-01,9.99999e-01
4.645600332e-01,8.78884e-01,9.99999e-01,9.99997e-01,8.78886e-01,9.99999e-01
4.668828333e-01,8.81099e-01,9.99999e-01,9.99964e-01,8.81130e-01,9.99999e-01
4.692172475e-01,8.83269e-01,9.99999e-01,9.99924e-01,8.83335e-01,9.99999e-01
4.715633337e-01,8.85459e-01,9.99999e-01,9.99950e-01,8.85502e-01,9.99999e-01
4.739211504e-01,8.87590e-01,9.99999e-01,9.99952e-01,8.87632e-01,9.99999e-01
4.762907561e-01,8.89702e-01,9.99999e-01,9.99975e-01,8.89724e-01,9.99999e-01
4.786722099e-01,8.91771e-01,9.99999e-01,9.99989e-01,8.91780e-01,9.99999e-01
4.810655710e-01,8.93797e-01,9.99999e-01,9.99996e-01,8.93799e-01,9.99999e-01
4.834708988e-01,8.95758e-01,9.99999e-01,9.99971e-01,8.95784e-01,9.99999e-01
4.858882533e-01,8.97686e-01,9.99999e-01,9.99946e-01,8.97733e-01,9.99999e-01
4.883176946e-01,8.99609e-01,9.99999e-01,9.99955e-01,8.99648e-01,9.99999e-01
4.907592831e-01,9.01493e-01,9.99999e-01,9.99959e-01,9.01529e-01,9.99999e-01
4.932130795e-01,9.03352e-01,9.99999e-01,9.99971e-01,9.03377e-01,9.99999e-01
4.956791449e-01,9.05179e-01,9.99999e-01,9.99984e-01,9.05192e-01,9.99999e-01
4.981575406e-01,9.06907e-01,9.99999e-01,9.99924e-01,9.06975e-01,9.99999e-01
5.006483283e-01,9.08549e-01,9.99999e-01,9.99805e-01,9.08726e-01,9.99998e-01
5.031515699e-01,9.09540e-01,9.99999e-01,9.99015e-01,9.10446e-01,9.99989e-01
5.056673278e-01,9.11649e-01,9.99999e-01,9.99479e-01,9.12134e-01,9.99987e-01
5.081956644e-01,9.13186e-01,9.99999e-01,9.99343e-01,9.13793e-01,9.99991e-01
5.107366428e-01,9.15014e-01,9.99999e-01,9.99556e-01,9.15421e-01,9.99998e-01
5.132903260e-01,9.16788e-01,9.99999e-01,9.99746e-01,9.17021e-01,9.99999e-01
5.158567776e-01,9.18493e-01,9.99999e-01,9.99892e-01,9.18591e-01,9.99999e-01
5.184360615e-01,9.20094e-01,9.99999e-01,9.99956e-01,9.20133e-01,9.99999e-01
5.210282418e-01,9.21632e-01,9.99999e-01,9.99983e-01,9.21647e-01,9.99999e-01
5.236333830e-01,9.23074e-01,9.99999e-01,9.99935e-01,9.23134e-01,9.99999e-01
5.262515499e-01,9.24556e-01,9.99999e-01,9.99959e-01,9.24593e-01,9.99998e-01
5.288828077e-01,9.25992e-01,9.99999e-01,9.99962e-01,9.26026e-01,9.99999e-01
5.315272217e-01,9.27403e-01,9.99999e-01,9.99967e-01,9.27433e-01,9.99999e-01
5.341848578e-01,9.28794e-01,9.99999e-01,9.99978e-01,9.28814e-01,9.99999e-01
5.368557821e-01,9.30100e-01,9.99999e-01,9.99924e-01,9.30170e-01,9.99999e-01
5.395400610e-01,9.31248e-01,9.99999e-01,9.99730e-01,9.31501e-01,9.99997e-01
5.422377613e-01,9.32476e-01,9.99999e-01,9.99650e-01,9.32807e-01,9.99993e-01
5.449489501e-01,9.33781e-01,9.99999e-01,9.99675e-01,9.34090e-01,9.99992e-01
5.476736949e-01,9.35077e-01,9.99999e-01,9.99711e-01,9.35349e-01,9.99996e-01
5.504120634e-01,9.36388e-01,9.99999e-01,9.99790e-01,9.36584e-01,9.99998e-01
5.531641237e-01,9.37698e-01,9.99999e-01,9.99894e-01,9.37797e-01,9.99999e-01
5.559299443e-01,9.38940e-01,9.99999e-01,9.99948e-01,9.38987e-01,9.99999e-01
5.587095940e-01,9.40126e-01,9.99999e-01,9.99967e-01,9.40156e-01,9.99999e-01
5.615031420e-01,9.41269e-01,9.99999e-01,9.99964e-01,9.41302e-01,9.99999e-01
5.643106577e-01,9.42390e-01,9.99999e-01,9.99959e-01,9.42428e-01,9.99999e-01
5.671322110e-01,9.43072e-01,9.99999e-01,9.99515e-01,9.43532e-01,9.99995e-01
5.699678720e-01,9.44113e-01,9.99999e-01,9.99479e-01,9.44616e-01,9.99986e-01
5.728177114e-01,9.45160e-01,9.99999e-01,9.99460e-01,9.45680e-01,9.99988e-01
5.756818000e-01,9.46248e-01,9.99999e-01,9.99504e-01,9.46724e-01,9.99992e-01
5.785602090e-01,9.47337e-01,9.99999e-01,9.99567e-01,9.47748e-01,9.99997e-01
5.814530100e-01,9.48341e-01,9.99999e-01,9.99566e-01,9.48753e-01,9.99998e-01
5.843602750e-01,9.49248e-01,9.99999e-01,9.99484e-01,9.49739e-01,9.99996e-01
5.872820764e-01,9.46458e-01,9.99999e-01,9.95561e-01,9.50707e-01,9.99968e-01
5.902184868e-01,9.46444e-01,9.99999e-01,9.94605e-01,9.51657e-01,9.99914e-01
5.931695792e-01,9.48884e-01,9.99999e-01,9.96191e-01,9.52589e-01,9.99917e-01
5.961354271e-01,9.49476e-01,9.99999e-01,9.95822e-01,9.53503e-01,9.99952e-01
5.991161043e-01,9.51477e-01,9.99999e-01,9.96950e-01,9.54400e-01,9.99984e-01
6.021116848e-01,9.53625e-01,9.99999e-01,9.98268e-01,9.55281e-01,9.99997e-01
6.051222432e-01,9.55306e-01,9.99999e-01,9.99123e-01,9.56144e-01,9.99999e-01
6.081478544e-01,9.56630e-01,9.99999e-01,9.99621e-01,9.56992e-01,9.99999e-01
6.111885937e-01,9.57670e-01,9.99999e-01,9.99839e-01,9.57823e-01,9.99999e-01
6.142445367e-01,9.58570e-01,9.99999e-01,9.99928e-01,9.58638e-01,9.99999e-01
6.173157594e-01,9.59401e-01,9.99999e-01,9.99960e-01,9.59439e-01,9.99999e-01
6.204023382e-01,9.60192e-01,9.99999e-01,9.99966e-01,9.60224e-01,9.99999e-01
6.235043498e-01,9.60853e-01,9.99999e-01,9.99853e-01,9.60994e-01,9.99999e-01
6.266218716e-01,9.60998e-01,9.99999e-01,9.99223e-01,9.61749e-01,9.99994e-01
6.297549810e-01,9.62206e-01,9.99999e-01,9.99714e-01,9.62490e-01,9.99988e-01
6.329037559e-01,9.62667e-01,9.99999e-01,9.99436e-01,9.63218e-01,9.99990e-01
6.360682746e-01,9.63464e-01,9.99999e-01,9.99520e-01,9.63931e-01,9.99994e-01
6.392486160e-01,9.64029e-01,9.99999e-01,9.99378e-01,9.64631e-01,9.99997e-01
6.424448591e-01,9.64514e-01,9.99999e-01,9.99171e-01,9.65317e-01,9.99995e-01
6.456570834e-01,9.62256e-01,9.99999e-01,9.96155e-01,9.65990e-01,9.99978e-01
6.488853688e-01,9.63861e-01,9.99999e-01,9.97173e-01,9.66651e-01,9.99939e-01
6.521297956e-01,9.64463e-01,9.99999e-01,9.97118e-01,9.67298e-01,9.99949e-01
6.553904446e-01,9.65139e-01,9.99999e-01,9.97149e-01,9.67934e-01,9.99961e-01
6.586673968e-01,9.66166e-01,9.99999e-01,9.97543e-01,9.68557e-01,9.99987e-01
6.619607338e-01,9.67790e-01,9.99999e-01,9.98579e-01,9.69169e-01,9.99996e-01
6.652705375e-01,9.68969e-01,9.99999e-01,9.99176e-01,9.69768e-01,9.99998e-01
6.685968902e-01,9.69985e-01,9.99999e-01,9.99617e-01,9.70356e-01,9.99999e-01
6.719398746e-01,9.70761e-01,9.99999e-01,9.99822e-01,9.70933e-01,9.99999e-01
6.752995740e-01,9.71406e-01,9.99999e-01,9.99903e-01,9.71499e-01,9.99999e-01
6.786760719e-01,9.71920e-01,9.99999e-01,9.99861e-01,9.72054e-01,9.99999e-01
6.820694522e-01,9.72367e-01,9.99999e-01,9.99762e-01,9.72599e-01,9.99998e-01
6.854797995e-01,9.72833e-01,9.99999e-01,9.99694e-01,9.73132e-01,9.99996e-01
6.889071985e-01,9.72934e-01,9.99999e-01,9.99264e-01,9.73656e-01,9.99992e-01
6.923517345e-01,9.62428e-01,9.99999e-01,9.88003e-01,9.74170e-01,9.99941e-01
6.958134932e-01,9.68408e-01,9.99999e-01,9.93701e-01,9.74673e-01,9.99869e-01
6.992925606e-01,9.69261e-01,9.99999e-01,9.94056e-01,9.75167e-01,9.99884e-01
7.027890234e-01,9.68391e-01,9.99999e-01,9.92645e-01,9.75652e-01,9.99911e-01
7.063029686e-01,9.70048e-01,9.99999e-01,9.93815e-01,9.76127e-01,9.99955e-01
7.098344834e-01,9.70773e-01,9.99999e-01,9.94065e-01,9.76593e-01,9.99973e-01
7.133836558e-01,9.69313e-01,9.99999e-01,9.92132e-01,9.77050e-01,9.99947e-01
7.169505741e-01,9.16792e-01,9.99999e-01,9.38276e-01,9.77498e-01,9.99594e-01
7.205353270e-01,9.47059e-01,9.99999e-01,9.69117e-01,9.77937e-01,9.99284e-01
7.241380036e-01,9.39763e-01,9.99999e-01,9.61133e-01,9.78369e-01,9.99381e-01
7.277586936e-01,9.43911e-01,9.99999e-01,9.64850e-01,9.78791e-01,9.99494e-01
7.313974871e-01,9.42338e-01,9.99999e-01,9.62576e-01,9.79206e-01,9.99762e-01
7.350544745e-01,9.59356e-01,9.99999e-01,9.79401e-01,9.79612e-01,9.99917e-01
7.387297469e-01,9.65079e-01,9.99999e-01,9.84799e-01,9.80011e-01,9.99961e-01
7.424233956e-01,9.73073e-01,9.99999e-01,9.92531e-01,9.80402e-01,9.99992e-01
7.461355126e-01,9.76342e-01,9.99999e-01,9.95470e-01,9.80785e-01,9.99998e-01
7.498661902e-01,9.79088e-01,9.99999e-01,9.97887e-01,9.81161e-01,9.99999e-01
7.536155211e-01,9.80513e-01,9.99999e-01,9.98964e-01,9.81530e-01,9.99999e-01
7.573835987e-01,9.81368e-01,9.99999e-01,9.99466e-01,9.81891e-01,9.99999e-01
7.611705167e-01,9.81920e-01,9.99999e-01,9.99668e-01,9.82246e-01,9.99999e-01
7.649763693e-01,9.82389e-01,9.99999e-01,9.99792e-01,9.82593e-01,9.99999e-01
7.688012511e-01,9.82792e-01,9.99999e-01,9.99855e-01,9.82934e-01,9.99999e-01
7.726452574e-01,9.83152e-01,9.99999e-01,9.99880e-01,9.83268e-01,9.99999e-01
7.765084837e-01,9.83430e-01,9.99999e-01,9.99831e-01,9.83596e-01,9.99999e-01
7.803910261e-01,9.83201e-01,9.99999e-01,9.99272e-01,9.83917e-01,9.99998e-01
7.842929812e-01,9.81731e-01,9.99999e-01,9.97462e-01,9.84233e-01,9.99994e-01
7.882144461e-01,9.79353e-01,9.99999e-01,9.94761e-01,9.84542e-01,9.99967e-01
7.921555184e-01,9.81947e-01,9.99999e-01,9.97119e-01,9.84845e-01,9.99937e-01
7.961162960e-01,9.80093e-01,9.99999e-01,9.94933e-01,9.85142e-01,9.99940e-01
8.000968774e-01,9.79594e-01,9.99999e-01,9.94137e-01,9.85433e-01,9.99936e-01
8.040973618e-01,9.79892e-01,9.99999e-01,9.94138e-01,9.85719e-01,9.99949e-01
8.081178486e-01,9.72998e-01,9.99999e-01,9.86860e-01,9.85999e-01,9.99952e-01
8.121584379e-01,9.33133e-01,9.99999e-01,9.46294e-01,9.86273e-01,9.99814e-01
8.162192301e-01,9.23102e-01,9.99999e-01,9.36345e-01,9.86543e-01,9.99303e-01
8.203003262e-01,9.54467e-01,9.99999e-01,9.68015e-01,9.86807e-01,9.99184e-01
8.244018279e-01,9.42248e-01,9.99999e-01,9.55214e-01,9.87066e-01,9.99350e-01
8.285238370e-01,9.48924e-01,9.99999e-01,9.61601e-01,9.87319e-01,9.99490e-01
8.326664562e-01,9.48990e-01,9.99999e-01,9.61138e-01,9.87568e-01,9.99788e-01
8.368297885e-01,9.60177e-01,9.99999e-01,9.72069e-01,9.87812e-01,9.99951e-01
8.410139374e-01,9.71537e-01,9.99999e-01,9.83312e-01,9.88052e-01,9.99971e-01
8.452190071e-01,9.80149e-01,9.99999e-01,9.91782e-01,9.88286e-01,9.99982e-01
8.494451021e-01,9.83790e-01,9.99999e-01,9.95231e-01,9.88516e-01,9.99986e-01
8.536923276e-01,9.85941e-01,9.99999e-01,9.97174e-01,9.88742e-01,9.99991e-01
8.579607893e-01,9.87242e-01,9.99999e-01,9.98261e-01,9.88963e-01,9.99997e-01
8.622505932e-01,9.88086e-01,9.99999e-01,9.98894e-01,9.89180e-01,9.99999e-01
8.665618462e-01,9.88717e-01,9.99999e-01,9.99316e-01,9.89392e-01,9.99999e-01
8.708946554e-01,9.88827e-01,9.99999e-01,9.99218e-01,9.89601e-01,9.99999e-01
8.752491287e-01,9.88769e-01,9.99999e-01,9.98954e-01,9.89805e-01,9.99998e-01
8.796253743e-01,9.88571e-01,9.99999e-01,9.98553e-01,9.90005e-01,9.99996e-01
8.840235012e-01,9.88556e-01,9.99999e-01,9.98347e-01,9.90202e-01,9.99989e-01
8.884436187e-01,9.84441e-01,9.99999e-01,9.94016e-01,9.90394e-01,9.99970e-01
8.928858368e-01,9.29463e-01,9.99999e-01,9.38453e-01,9.90583e-01,9.99834e-01
8.973502660e-01,8.84385e-01,9.99999e-01,8.93381e-01,9.90768e-01,9.99152e-01
9.018370173e-01,9.34154e-01,9.99999e-01,9.43940e-01,9.90950e-01,9.98668e-01
9.063462024e-01,9.41217e-01,9.99999e-01,9.50753e-01,9.91128e-01,9.98830e-01
9.108779334e-01,9.14980e-01,9.99999e-01,9.24130e-01,9.91302e-01,9.98784e-01
9.154323231e-01,9.05480e-01,9.99999e-01,9.14184e-01,9.91473e-01,9.98995e-01
9.200094847e-01,9.23795e-01,9.99999e-01,9.32106e-01,9.91641e-01,9.99437e-01
9.246095321e-01,8.89075e-01,9.99999e-01,8.97001e-01,9.91805e-01,9.99351e-01
9.292325798e-01,4.80291e-01,9.99999e-01,4.85405e-01,9.91967e-01,9.97475e-01
9.338787427e-01,3.86097e-01,9.99999e-01,3.93248e-01,9.92125e-01,9.89607e-01
9.385481364e-01,6.71821e-01,9.99999e-01,6.85512e-01,9.92280e-01,9.87651e-01
9.432408771e-01,5.84495e-01,9.99999e-01,5.95299e-01,9.92431e-01,9.89337e-01
9.479570815e-01,4.83089e-01,9.99999e-01,4.90964e-01,9.92580e-01,9.91313e-01
9.526968669e-01,5.75511e-01,9.99999e-01,5.82820e-01,9.92726e-01,9.94692e-01
9.574603512e-01,5.99320e-01,9.99999e-01,6.05257e-01,9.92870e-01,9.97300e-01
9.622476530e-01,6.57456e-01,9.99999e-01,6.63322e-01,9.93010e-01,9.98132e-01
9.670588912e-01,7.82687e-01,9.99999e-01,7.89094e-01,9.93147e-01,9.98722e-01
9.718941857e-01,8.55311e-01,9.99999e-01,8.61905e-01,9.93282e-01,9.99059e-01
9.767536566e-01,8.77481e-01,9.99999e-01,8.83932e-01,9.93415e-01,9.99280e-01
9.816374249e-01,9.06388e-01,9.99999e-01,9.12504e-01,9.93544e-01,9.99750e-01
9.865456120e-01,9.38354e-01,9.99999e-01,9.44379e-01,9.93671e-01,9.99947e-01
9.914783401e-01,9.59247e-01,9.99999e-01,9.65249e-01,9.93796e-01,9.99985e-01
9.964357318e-01,9.74951e-01,9.99999e-01,9.80924e-01,9.93918e-01,9.99991e-01
1.001417910e+00,9.82618e-01,9.99999e-01,9.88523e-01,9.94038e-01,9.99986e-01
1.006425000e+00,9.87624e-01,9.99999e-01,9.93447e-01,9.94155e-01,9.99981e-01
1.011457125e+00,9.90202e-01,9.99999e-01,9.95925e-01,9.94270e-01,9.99982e-01
1.016514411e+00,9.91621e-01,9.99999e-01,9.97233e-01,9.94383e-01,9.99987e-01
1.021596983e+00,9.92290e-01,9.99999e-01,9.97795e-01,9.94494e-01,9.99987e-01
1.026704968e+00,9.92885e-01,9.99999e-01,9.98280e-01,9.94602e-01,9.99991e-01
1.031838492e+00,9.93463e-01,9.99999e-01,9.98749e-01,9.94709e-01,9.99997e-01
1.036997685e+00,9.94074e-01,9.99999e-01,9.99257e-01,9.94813e-01,9.99999e-01
1.042182673e+00,9.94036e-01,9.99999e-01,9.99115e-01,9.94915e-01,9.99999e-01
1.047393587e+00,9.93848e-01,9.99999e-01,9.98826e-01,9.95015e-01,9.99999e-01
1.052630555e+00,9.93513e-01,9.99999e-01,9.98391e-01,9.95113e-01,9.99999e-01
1.057893707e+00,9.92539e-01,9.99999e-01,9.97316e-01,9.95210e-01,9.99998e-01
1.063183176e+00,9.90909e-01,9.99999e-01,9.95586e-01,9.95304e-01,9.99997e-01
1.068499092e+00,9.88040e-01,9.99999e-01,9.92614e-01,9.95397e-01,9.99994e-01
1.073841587e+00,9.86883e-01,9.99999e-01,9.91367e-01,9.95487e-01,9.99988e-01
1.079210795e+00,9.84532e-01,9.99999e-01,9.88935e-01,9.95576e-01,9.99969e-01
1.084606849e+00,9.78973e-01,9.99999e-01,9.83306e-01,9.95663e-01,9.99928e-01
1.090029883e+00,9.71860e-01,9.99999e-01,9.76153e-01,9.95749e-01,9.99851e-01
1.095480033e+00,9.32158e-01,9.99999e-01,9.36308e-01,9.95833e-01,9.99732e-01
1.100957433e+00,8.42344e-01,9.99999e-01,8.46214e-01,9.95915e-01,9.99508e-01
1.106462220e+00,6.53184e-01,9.99999e-01,6.56357e-01,9.95995e-01,9.99166e-01
1.111994531e+00,4.11876e-01,9.99999e-01,4.14414e-01,9.96074e-01,9.97789e-01
1.117554504e+00,2.40110e-01,9.99999e-01,2.42970e-01,9.96151e-01,9.92044e-01
1.123142276e+00,3.52208e-01,9.99999e-01,3.60302e-01,9.96227e-01,9.81236e-01
1.128757988e+00,5.00894e-01,9.99999e-01,5.13890e-01,9.96302e-01,9.78326e-01
1.134401778e+00,2.61480e-01,9.99999e-01,2.67366e-01,9.96375e-01,9.81540e-01
1.140073787e+00,6.56722e-01,9.99999e-01,6.68948e-01,9.96446e-01,9.85223e-01
1.145774156e+00,4.29740e-01,9.99999e-01,4.37158e-01,9.96516e-01,9.86465e-01
1.151503026e+00,3.95499e-01,9.99999e-01,3.99878e-01,9.96585e-01,9.92437e-01
1.157260541e+00,4.56031e-01,9.99999e-01,4.58602e-01,9.96652e-01,9.97732e-01
1.163046844e+00,5.58603e-01,9.99999e-01,5.60802e-01,9.96718e-01,9.99356e-01
1.168862078e+00,6.64965e-01,9.99999e-01,6.67331e-01,9.96783e-01,9.99668e-01
1.174706389e+00,7.76250e-01,9.99999e-01,7.79048e-01,9.96846e-01,9.99560e-01
1.180579921e+00,8.55567e-01,9.99999e-01,8.58790e-01,9.96908e-01,9.99335e-01
1.186482820e+00,9.14114e-01,9.99999e-01,9.17518e-01,9.96969e-01,9.99317e-01
1.192415234e+00,9.47700e-01,9.99999e-01,9.51008e-01,9.97029e-01,9.99489e-01
1.198377311e+00,9.55324e-01,9.99999e-01,9.58575e-01,9.97088e-01,9.99517e-01
1.204369197e+00,9.57602e-01,9.99999e-01,9.60762e-01,9.97145e-01,9.99563e-01
1.210391043e+00,9.59485e-01,9.99999e-01,9.62432e-01,9.97201e-01,9.99734e-01
1.216442998e+00,9.65118e-01,9.99999e-01,9.67929e-01,9.97257e-01,9.99836e-01
1.222525213e+00,9.72229e-01,9.99999e-01,9.74948e-01,9.97311e-01,9.99898e-01
1.228637839e+00,9.79907e-01,9.99999e-01,9.82542e-01,9.97364e-01,9.99952e-01
1.234781029e+00,9.84441e-01,9.99999e-01,9.87004e-01,9.97416e-01,9.99986e-01
1.240954934e+00,9.89252e-01,9.99999e-01,9.91767e-01,9.97467e-01,9.99995e-01
1.247159708e+00,9.91113e-01,9.99999e-01,9.93582e-01,9.97517e-01,9.99997e-01
1.253395507e+00,9.91880e-01,9.99999e-01,9.94303e-01,9.97566e-01,9.99996e-01
1.259662485e+00,9.92215e-01,9.99999e-01,9.94592e-01,9.97614e-01,9.99994e-01
1.265960797e+00,9.89037e-01,9.99999e-01,9.91364e-01,9.97661e-01,9.99991e-01
1.272290601e+00,9.84205e-01,9.99999e-01,9.86481e-01,9.97707e-01,9.99984e-01
1.278652054e+00,9.71079e-01,9.99999e-01,9.73291e-01,9.97752e-01,9.99973e-01
1.285045314e+00,9.56218e-01,9.99999e-01,9.58376e-01,9.97796e-01,9.99950e-01
1.291470541e+00,9.16054e-01,9.99999e-01,9.18114e-01,9.97840e-01,9.99913e-01
1.297927893e+00,8.92491e-01,9.99999e-01,8.94527e-01,9.97882e-01,9.99839e-01
1.304417533e+00,8.64257e-01,9.99999e-01,8.66348e-01,9.97924e-01,9.99660e-01
1.310939621e+00,8.46372e-01,9.99999e-01,8.48689e-01,9.97965e-01,9.99302e-01
1.317494319e+00,8.34001e-01,9.99999e-01,8.36745e-01,9.98005e-01,9.98710e-01
1.324081790e+00,7.63563e-01,9.99999e-01,7.66670e-01,9.98045e-01,9.97896e-01
1.330702199e+00,3.73266e-01,9.99999e-01,3.75343e-01,9.98083e-01,9.96375e-01
1.337355710e+00,7.37093e-02,9.99999e-01,7.43662e-02,9.98121e-01,9.93031e-01
1.344042489e+00,3.21535e-03,9.99999e-01,3.28984e-03,9.98158e-01,9.79159e-01
1.350762701e+00,2.48969e-06,9.99999e-01,2.68067e-06,9.98194e-01,9.30433e-01
1.357516515e+00,7.89026e-09,9.99999e-01,9.76700e-09,9.98230e-01,8.09279e-01
1.364304097e+00,5.90140e-06,9.99999e-01,8.56590e-06,9.98265e-01,6.90137e-01
1.371125618e+00,2.98486e-04,9.99999e-01,4.24145e-04,9.98299e-01,7.04934e-01
1.377981246e+00,9.04597e-04,9.99999e-01,1.22277e-03,9.98333e-01,7.41027e-01
1.384871152e+00,1.53529e-05,9.99999e-01,2.03940e-05,9.98366e-01,7.54048e-01
1.391795508e+00,8.37025e-06,9.99999e-01,1.09519e-05,9.98398e-01,7.65501e-01
1.398754485e+00,7.04406e-05,9.99999e-01,8.79042e-05,9.98429e-01,8.02593e-01
1.405748258e+00,7.32913e-05,9.99999e-01,8.34742e-05,9.98460e-01,8.79363e-01
1.412776999e+00,7.51709e-05,9.99999e-01,7.98356e-05,9.98491e-01,9.42993e-01
1.419840884e+00,1.50112e-04,9.99999e-01,1.54254e-04,9.98521e-01,9.74591e-01
1.426940089e+00,1.06231e-03,9.99999e-01,1.08486e-03,9.98550e-01,9.80637e-01
1.434074789e+00,5.15383e-03,9.99999e-01,5.28163e-03,9.98578e-01,9.77191e-01
1.441245163e+00,1.53635e-02,9.99999e-01,1.57743e-02,9.98606e-01,9.75318e-01
1.448451389e+00,5.29939e-02,9.99999e-01,5.42403e-02,9.98634e-01,9.78355e-01
1.455693646e+00,1.36992e-01,9.99999e-01,1.39531e-01,9.98661e-01,9.83117e-01
1.462972114e+00,1.77395e-01,9.99999e-01,1.80536e-01,9.98687e-01,9.83892e-01
1.470286975e+00,1.34257e-01,9.99999e-01,1.36593e-01,9.98713e-01,9.84164e-01
