#,Wave/freq,Total,N2,H2O,Rayleigh,CIA
4.000000000e-01,7.73636e-01,9.99999e-01,9.99970e-01,7.73658e-01,9.99999e-01
4.020000000e-01,7.77580e-01,9.99999e-01,9.99981e-01,7.77594e-01,9.99999e-01
4.040100000e-01,7.81461e-01,9.99999e-01,9.99991e-01,7.81467e-01,9.99999e-01
4.060300500e-01,7.85281e-01,9.99999e-01,9.99997e-01,7.85282e-01,9.99999e-01
4.080602003e-01,7.89040e-01,9.99999e-01,9.99998e-01,7.89041e-01,9.99999e-01
4.101005013e-01,7.92742e-01,9.99999e-01,9.99999e-01,7.92742e-01,9.99999e-01
4.121510038e-01,7.96386e-01,9.99999e-01,9.99998e-01,7.96387e-01,9.99999e-01
4.142117588e-01,7.99970e-01,9.99999e-01,9.99991e-01,7.99977e-01,9.99999e-01
4.162828176e-01,8.03482e-01,9.99999e-01,9.99963e-01,8.03511e-01,9.99999e-01
4.183642317e-01,8.06973e-01,9.99999e-01,9.99978e-01,8.06990e-01,9.99999e-01
4.204560528e-01,8.10405e-01,9.99999e-01,9.99986e-01,8.10416e-01,9.99999e-01
4.225583331e-01,8.13784e-01,9.99999e-01,9.99994e-01,8.13788e-01,9.99999e-01
4.246711247e-01,8.17104e-01,9.99999e-01,9.99995e-01,8.17107e-01,9.99999e-01
4.267944804e-01,8.20369e-01,9.99999e-01,9.99993e-01,8.20373e-01,9.99999e-01
4.289284528e-01,8.23584e-01,9.99999e-01,9.99995e-01,8.23588e-01,9.99999e-01
4.310730950e-01,8.26750e-01,9.99999e-01,9.99997e-01,8.26751e-01,9.99999e-01
4.332284605e-01,8.29864e-01,9.99999e-01,9.99999e-01,8.29864e-01,9.99999e-01
4.353946028e-01,8.32926e-01,9.99999e-01,9.99999e-01,8.32927e-01,9.99999e-01
4.375715758e-01,8.35937e-01,9.99999e-01,9.99996e-01,8.35940e-01,9.99999e-01
4.397594337e-01,8.38878e-01,9.99999e-01,9.99968e-01,8.38904e-01,9.99999e-01
4.419582309e-01,8.41686e-01,9.99999e-01,9.99840e-01,8.41820e-01,9.99999e-01
4.441680220e-01,8.44582e-01,9.99999e-01,9.99874e-01,8.44688e-01,9.99999e-01
4.463888621e-01,8.47398e-01,9.99999e-01,9.99869e-01,8.47509e-01,9.99999e-01
4.486208064e-01,8.50214e-01,9.99999e-01,9.99918e-01,8.50283e-01,9.99999e-01
4.508639105e-01,8.52979e-01,9.99999e-01,9.99961e-01,8.53011e-01,9.99999e-01
4.531182300e-01,8.55681e-01,9.99999e-01,9.99984e-01,8.55694e-01,9.99999e-01
4.553838212e-01,8.58323e-01,9.99999e-01,9.99989e-01,8.58332e-01,9.99999e-01
4.576607403e-01,8.60922e-01,9.99999e-01,9.99994e-01,8.60926e-01,9.99999e-01
4.599490440e-01,8.63473e-01,9.99999e-01,9.99996e-01,8.63476e-01,9.99999e-01
4.622487892e-01,8.65983e-01,9.99999e-01,9.99998e-01,8.65984e-01,9.99999e-01
4.645600332e-01,8.68446e-01,9.99999e-01,9.99997e-01,8.68448e-01,9.99999e-01
4.668828333e-01,8.70838e-01,9.99999e-01,9.99961e-01,8.70871e-01,9.99999e-01
4.692172475e-01,8.73182e-01,9.99999e-01,9.99918e-01,8.73253e-01,9.99999e-01
4.715633337e-01,8.75547e-01,9.99999e-01,9.99946e-01,8.75594e-01,9.99999e-01
4.739211504e-01,8.77850e-01,9.99999e-01,9.99948e-01,8.77894e-01,9.99999e-01
4.762907561e-01,8.80132e-01,9.99999e-01,9.99973e-01,8.80155e-01,9.99999e-01
4.786722099e-01,8.82368e-01,9.99999e-01,9.99988e-01,8.82378e-01,9.99999e-01
4.810655710e-01,8.84558e-01,9.99999e-01,9.99996e-01,8.84561e-01,9.99999e-01
4.834708988e-01,8.86680e-01,9.99999e-01,9.99968e-01,8.86707e-01,9.99999e-01
4.858882533e-01,8.88764e-01,9.99999e-01,9.99941e-01,8.88816e-01,9.99999e-01
4.883176946e-01,8.90844e-01,9.99999e-01,9.99951e-01,8.90887e-01,9.99999e-01
4.907592831e-01,8.92884e-01,9.99999e-01,9.99955e-01,8.92923e-01,9.99999e-01
4.932130795e-01,8.94895e-01,9.99999e-01,9.99968e-01,8.94922e-01,9.99999e-01
4.956791449e-01,8.96872e-01,9.99999e-01,9.99983e-01,8.96887e-01,9.99999e-01
4.981575406e-01,8.98744e-01,9.99999e-01,9.99917e-01,8.98817e-01,9.99999e-01
5.006483283e-01,9.00521e-01,9.99999e-01,9.99788e-01,9.00713e-01,9.99998e-01
5.031515699e-01,9.01595e-01,9.99999e-01,9.98924e-01,9.02575e-01,9.99988e-01
5.056673278e-01,9.03879e-01,9.99999e-01,9.99431e-01,9.04404e-01,9.99986e-01
5.081956644e-01,9.05544e-01,9.99999e-01,9.99282e-01,9.06201e-01,9.99991e-01
5.107366428e-01,9.07525e-01,9.99999e-01,9.99515e-01,9.07966e-01,9.99997e-01
5.132903260e-01,9.09447e-01,9.99999e-01,9.99722e-01,9.09699e-01,9.99999e-01
5.158567776e-01,9.11295e-01,9.99999e-01,9.99882e-01,9.11401e-01,9.99999e-01
5.184360615e-01,9.13030e-01,9.99999e-01,9.99952e-01,9.13073e-01,9.99999e-01
5.210282418e-01,9.14698e-01,9.99999e-01,9.99982e-01,9.14714e-01,9.99999e-01
5.236333830e-01,9.16262e-01,9.99999e-01,9.99929e-01,9.16327e-01,9.99999e-01
5.262515499e-01,9.17869e-01,9.99999e-01,9.99955e-01,9.17909e-01,9.99998e-01
5.288828077e-01,9.19426e-01,9.99999e-01,9.99959e-01,9.19464e-01,9.99999e-01
5.315272217e-01,9.20957e-01,9.99999e-01,9.99964e-01,9.20990e-01,9.99999e-01
5.341848578e-01,9.22467e-01,9.99999e-01,9.99976e-01,9.22488e-01,9.99999e-01
5.368557821e-01,9.23884e-01,9.99999e-01,9.99918e-01,9.23960e-01,9.99999e-01
5.395400610e-01,9.25131e-01,9.99999e-01,9.99706e-01,9.25404e-01,9.99997e-01
5.422377613e-01,9.26462e-01,9.99999e-01,9.99618e-01,9.26822e-01,9.99992e-01
5.449489501e-01,9.27880e-01,9.99999e-01,9.99646e-01,9.28215e-01,9.99992e-01
5.476736949e-01,9.29286e-01,9.99999e-01,9.99685e-01,9.29581e-01,9.99996e-01
5.504120634e-01,9.30710e-01,9.99999e-01,9.99771e-01,9.30923e-01,9.99998e-01
5.531641237e-01,9.32133e-01,9.99999e-01,9.99884e-01,9.32240e-01,9.99999e-01
5.559299443e-01,9.33481e-01,9.99999e-01,9.99944e-01,9.33533e-01,9.99999e-01
5.587095940e-01,9.34770e-01,9.99999e-01,9.99964e-01,9.34802e-01,9.99999e-01
5.615031420e-01,9.36012e-01,9.99999e-01,9.99960e-01,9.36048e-01,9.99999e-01
5.643106577e-01,9.37230e-01,9.99999e-01,9.99956e-01,9.37271e-01,9.99999e-01
5.671322110e-01,9.37972e-01,9.99999e-01,9.99472e-01,9.38471e-01,9.99994e-01
5.699678720e-01,9.39101e-01,9.99999e-01,9.99430e-01,9.39649e-01,9.99985e-01
5.728177114e-01,9.40240e-01,9.99999e-01,9.99410e-01,9.40805e-01,9.99987e-01
5.756818000e-01,9.41423e-01,9.99999e-01,9.99458e-01,9.41939e-01,9.99992e-01
5.785602090e-01,9.42606e-01,9.99999e-01,9.99527e-01,9.43053e-01,9.99997e-01
5.814530100e-01,9.43698e-01,9.99999e-01,9.99526e-01,9.44146e-01,9.99998e-01
5.843602750e-01,9.44684e-01,9.99999e-01,9.99437e-01,9.45218e-01,9.99996e-01
5.872820764e-01,9.41658e-01,9.99999e-01,9.95158e-01,9.46271e-01,9.99965e-01
5.902184868e-01,9.41633e-01,9.99999e-01,9.94106e-01,9.47303e-01,9.99906e-01
5.931695792e-01,9.44288e-01,9.99999e-01,9.95841e-01,9.48317e-01,9.99908e-01
5.961354271e-01,9.44927e-01,9.99999e-01,9.95435e-01,9.49311e-01,9.99944e-01
5.991161043e-01,9.47106e-01,9.99999e-01,9.96667e-01,9.50287e-01,9.99983e-01
6.021116848e-01,9.49443e-01,9.99999e-01,9.98106e-01,9.51245e-01,9.99997e-01
6.051222432e-01,9.51272e-01,9.99999e-01,9.99041e-01,9.52184e-01,9.99999e-01
6.081478544e-01,9.52713e-01,9.99999e-01,9.99586e-01,9.53106e-01,9.99999e-01
6.111885937e-01,9.53844e-01,9.99999e-01,9.99824e-01,9.54011e-01,9.99999e-01
6.142445367e-01,9.54824e-01,9.99999e-01,9.99921e-01,9.54899e-01,9.99999e-01
6.173157594e-01,9.55728e-01,9.99999e-01,9.99956e-01,9.55769e-01,9.99999e-01
6.204023382e-01,9.56589e-01,9.99999e-01,9.99963e-01,9.56624e-01,9.99999e-01
6.235043498e-01,9.57310e-01,9.99999e-01,9.99840e-01,9.57462e-01,9.99999e-01
6.266218716e-01,9.57467e-01,9.99999e-01,9.99151e-01,9.58285e-01,9.99993e-01
6.297549810e-01,9.58782e-01,9.99999e-01,9.99688e-01,9.59091e-01,9.99987e-01
6.329037559e-01,9.59283e-01,9.99999e-01,9.99384e-01,9.59883e-01,9.99989e-01
6.360682746e-01,9.60152e-01,9.99999e-01,9.99476e-01,9.60660e-01,9.99993e-01
6.392486160e-01,9.60767e-01,9.99999e-01,9.99321e-01,9.61421e-01,9.99997e-01
6.424448591e-01,9.61296e-01,9.99999e-01,9.99096e-01,9.62169e-01,9.99995e-01
6.456570834e-01,9.58843e-01,9.99999e-01,9.95806e-01,9.62902e-01,9.99976e-01
6.488853688e-01,9.60582e-01,9.99999e-01,9.96910e-01,9.63621e-01,9.99934e-01
6.521297956e-01,9.61237e-01,9.99999e-01,9.96850e-01,9.64327e-01,9.99944e-01
6.553904446e-01,9.61976e-01,9.99999e-01,9.96886e-01,9.65019e-01,9.99958e-01
6.586673968e-01,9.63092e-01,9.99999e-01,9.97314e-01,9.65698e-01,9.99986e-01
6.619607338e-01,9.64861e-01,9.99999e-01,9.98447e-01,9.66364e-01,9.99996e-01
6.652705375e-01,9.66146e-01,9.99999e-01,9.99099e-01,9.67017e-01,9.99998e-01
6.685968902e-01,9.67253e-01,9.99999e-01,9.99581e-01,9.67658e-01,9.99999e-01
6.719398746e-01,9.68099e-01,9.99999e-01,9.99805e-01,9.68287e-01,9.99999e-01
6.752995740e-01,9.68802e-01,9.99999e-01,9.99894e-01,9.68903e-01,9.99999e-01
6.786760719e-01,9.69362e-01,9.99999e-01,9.99848e-01,9.69508e-01,9.99999e-01
6.820694522e-01,9.69849e-01,9.99999e-01,9.99741e-01,9.70101e-01,9.99998e-01
6.854797995e-01,9.70357e-01,9.99999e-01,9.99666e-01,9.70683e-01,9.99996e-01
6.889071985e-01,9.70470e-01,9.99999e-01,9.99199e-01,9.71254e-01,9.99992e-01
6.923517345e-01,9.59041e-01,9.99999e-01,9.86918e-01,9.71813e-01,9.99936e-01
6.958134932e-01,9.65519e-01,9.99999e-01,9.93103e-01,9.72362e-01,9.99856e-01
6.992925606e-01,9.66473e-01,9.99999e-01,9.93516e-01,9.72901e-01,9.99874e-01
7.027890234e-01,9.65515e-01,9.99999e-01,9.91965e-01,9.73429e-01,9.99903e-01
7.063029686e-01,9.67322e-01,9.99999e-01,9.93244e-01,9.73947e-01,9.99951e-01
7.098344834e-01,9.68111e-01,9.99999e-01,9.93517e-01,9.74455e-01,9.99971e-01
7.133836558e-01,9.66542e-01,9.99999e-01,9.91428e-01,9.74953e-01,9.99943e-01
7.169505741e-01,9.09572e-01,9.99999e-01,9.32884e-01,9.75442e-01,9.99556e-01
7.205353270e-01,9.42245e-01,9.99999e-01,9.66247e-01,9.75921e-01,9.99218e-01
7.241380036e-01,9.34418e-01,9.99999e-01,9.57658e-01,9.76391e-01,9.99324e-01
7.277586936e-01,9.38915e-01,9.99999e-01,9.61694e-01,9.76852e-01,9.99447e-01
7.313974871e-01,9.37152e-01,9.99999e-01,9.59163e-01,9.77304e-01,9.99741e-01
7.350544745e-01,9.55672e-01,9.99999e-01,9.77510e-01,9.77747e-01,9.99909e-01
7.387297469e-01,9.61901e-01,9.99999e-01,9.83395e-01,9.78182e-01,9.99958e-01
7.424233956e-01,9.70609e-01,9.99999e-01,9.91833e-01,9.78608e-01,9.99991e-01
7.461355126e-01,9.74178e-01,9.99999e-01,9.95048e-01,9.79026e-01,9.99998e-01
7.498661902e-01,9.77172e-01,9.99999e-01,9.97688e-01,9.79436e-01,9.99999e-01
7.536155211e-01,9.78729e-01,9.99999e-01,9.98867e-01,9.79838e-01,9.99999e-01
7.573835987e-01,9.79661e-01,9.99999e-01,9.99416e-01,9.80232e-01,9.99999e-01
7.611705167e-01,9.80264e-01,9.99999e-01,9.99637e-01,9.80619e-01,9.99999e-01
7.649763693e-01,9.80776e-01,9.99999e-01,9.99772e-01,9.80998e-01,9.99999e-01
7.688012511e-01,9.81215e-01,9.99999e-01,9.99841e-01,9.81370e-01,9.99999e-01
7.726452574e-01,9.81607e-01,9.99999e-01,9.99869e-01,9.81734e-01,9.99999e-01
7.765084837e-01,9.81911e-01,9.99999e-01,9.99815e-01,9.82092e-01,9.99999e-01
7.803910261e-01,9.81663e-01,9.99999e-01,9.99206e-01,9.82442e-01,9.99998e-01
7.842929812e-01,9.80062e-01,9.99999e-01,9.97232e-01,9.82786e-01,9.99994e-01
7.882144461e-01,9.77464e-01,9.99999e-01,9.94278e-01,9.83123e-01,9.99964e-01
7.921555184e-01,9.80291e-01,9.99999e-01,9.96850e-01,9.83454e-01,9.99931e-01
7.961162960e-01,9.78277e-01,9.99999e-01,9.94472e-01,9.83778e-01,9.99934e-01
8.000968774e-01,9.77728e-01,9.99999e-01,9.93597e-01,9.84096e-01,9.99930e-01
8.040973618e-01,9.78055e-01,9.99999e-01,9.93600e-01,9.84408e-01,9.99944e-01
8.081178486e-01,9.70562e-01,9.99999e-01,9.85678e-01,9.84713e-01,9.99948e-01
8.121584379e-01,9.27272e-01,9.99999e-01,9.41570e-01,9.85013e-01,9.99797e-01
8.162192301e-01,9.16288e-01,9.99999e-01,9.30658e-01,9.85307e-01,9.99239e-01
8.203003262e-01,9.50500e-01,9.99999e-01,9.65250e-01,9.85595e-01,9.99109e-01
8.244018279e-01,9.37073e-01,9.99999e-01,9.51169e-01,9.85877e-01,9.99290e-01
8.285238370e-01,9.44367e-01,9.99999e-01,9.58159e-01,9.86154e-01,9.99442e-01
8.326664562e-01,9.44410e-01,9.99999e-01,9.57626e-01,9.86426e-01,9.99769e-01
8.368297885e-01,9.56560e-01,9.99999e-01,9.69511e-01,9.86692e-01,9.99946e-01
8.410139374e-01,9.68933e-01,9.99999e-01,9.81771e-01,9.86953e-01,9.99968e-01
8.452190071e-01,9.78324e-01,9.99999e-01,9.91016e-01,9.87209e-01,9.99981e-01
8.494451021e-01,9.82302e-01,9.99999e-01,9.94790e-01,9.87460e-01,9.99984e-01
8.536923276e-01,9.84646e-01,9.99999e-01,9.96910e-01,9.87707e-01,9.99989e-01
8.579607893e-01,9.86069e-01,9.99999e-01,9.98099e-01,9.87948e-01,9.99996e-01
8.622505932e-01,9.86990e-01,9.99999e-01,9.98791e-01,9.88184e-01,9.99999e-01
8.665618462e-01,9.87679e-01,9.99999e-01,9.99253e-01,9.88416e-01,9.99999e-01
8.708946554e-01,9.87800e-01,9.99999e-01,9.99146e-01,9.88644e-01,9.99999e-01
8.752491287e-01,9.87737e-01,9.99999e-01,9.98857e-01,9.88867e-01,9.99998e-01
8.796253743e-01,9.87521e-01,9.99999e-01,9.98421e-01,9.89086e-01,9.99995e-01
8.840235012e-01,9.87505e-01,9.99999e-01,9.98195e-01,9.89300e-01,9.99988e-01
8.884436187e-01,9.83040e-01,9.99999e-01,9.93491e-01,9.89510e-01,9.99968e-01
8.928858368e-01,9.23347e-01,9.99999e-01,9.33109e-01,9.89716e-01,9.99819e-01
8.973502660e-01,8.74482e-01,9.99999e-01,8.84205e-01,9.89918e-01,9.99074e-01
9.018370173e-01,9.28255e-01,9.99999e-01,9.38885e-01,9.90117e-01,9.98545e-01
9.063462024e-01,9.36075e-01,9.99999e-01,9.46441e-01,9.90311e-01,9.98722e-01
9.108779334e-01,9.07594e-01,9.99999e-01,9.17515e-01,9.90501e-01,9.98672e-01
9.154323231e-01,8.97267e-01,9.99999e-01,9.06695e-01,9.90688e-01,9.98902e-01
9.200094847e-01,9.17078e-01,9.99999e-01,9.26095e-01,9.90871e-01,9.99385e-01
9.246095321e-01,8.80102e-01,9.99999e-01,8.88677e-01,9.91051e-01,9.99291e-01
9.292325798e-01,4.51314e-01,9.99999e-01,4.56567e-01,9.91227e-01,9.97242e-01
9.338787427e-01,3.55621e-01,9.99999e-01,3.62823e-01,9.91399e-01,9.88651e-01
9.385481364e-01,6.48854e-01,9.99999e-01,6.63314e-01,9.91568e-01,9.86517e-01
9.432408771e-01,5.59116e-01,9.99999e-01,5.70416e-01,9.91734e-01,9.88357e-01
9.479570815e-01,4.55110e-01,9.99999e-01,4.63221e-01,9.91897e-01,9.90514e-01
9.526968669e-01,5.48874e-01,9.99999e-01,5.56495e-01,9.92056e-01,9.94203e-01
9.574603512e-01,5.72731e-01,9.99999e-01,5.78933e-01,9.92212e-01,9.97051e-01
9.622476530e-01,6.33005e-01,9.99999e-01,6.39178e-01,9.92366e-01,9.97959e-01
9.670588912e-01,7.65488e-01,9.99999e-01,7.72338e-01,9.92516e-01,9.98604e-01
9.718941857e-01,8.43118e-01,9.99999e-01,8.50222e-01,9.92663e-01,9.98972e-01
9.767536566e-01,8.67003e-01,9.99999e-01,8.73970e-01,9.92807e-01,9.99214e-01
9.816374249e-01,8.98170e-01,9.99999e-01,9.04793e-01,9.92949e-01,9.99727e-01
9.865456120e-01,9.32824e-01,9.99999e-01,9.39369e-01,9.93088e-01,9.99942e-01
9.914783401e-01,9.55547e-01,9.99999e-01,9.62080e-01,9.93224e-01,9.99983e-01
9.964357318e-01,9.72655e-01,9.99999e-01,9.79167e-01,9.93357e-01,9.99990e-01
1.001417910e+00,9.81018e-01,9.99999e-01,9.87461e-01,9.93488e-01,9.99985e-01
1.006425000e+00,9.86485e-01,9.99999e-01,9.92841e-01,9.93616e-01,9.99979e-01
1.011457125e+00,9.89298e-01,9.99999e-01,9.95545e-01,9.93742e-01,9.99980e-01
1.016514411e+00,9.90848e-01,9.99999e-01,9.96976e-01,9.93865e-01,9.99986e-01
1.021596983e+00,9.91579e-01,9.99999e-01,9.97591e-01,9.93986e-01,9.99986e-01
1.026704968e+00,9.92229e-01,9.99999e-01,9.98121e-01,9.94104e-01,9.99990e-01
1.031838492e+00,9.92859e-01,9.99999e-01,9.98632e-01,9.94220e-01,9.99997e-01
1.036997685e+00,9.93528e-01,9.99999e-01,9.99188e-01,9.94334e-01,9.99999e-01
1.042182673e+00,9.93486e-01,9.99999e-01,9.99034e-01,9.94446e-01,9.99999e-01
1.047393587e+00,9.93281e-01,9.99999e-01,9.98718e-01,9.94555e-01,9.99999e-01
1.052630555e+00,9.92915e-01,9.99999e-01,9.98243e-01,9.94662e-01,9.99999e-01
1.057893707e+00,9.91854e-01,9.99999e-01,9.97071e-01,9.94768e-01,9.99998e-01
1.063183176e+00,9.90074e-01,9.99999e-01,9.95181e-01,9.94871e-01,9.99996e-01
1.068499092e+00,9.86943e-01,9.99999e-01,9.91935e-01,9.94972e-01,9.99994e-01
1.073841587e+00,9.85685e-01,9.99999e-01,9.90578e-01,9.95071e-01,9.99987e-01
1.079210795e+00,9.83114e-01,9.99999e-01,9.87918e-01,9.95168e-01,9.99967e-01
1.084606849e+00,9.77058e-01,9.99999e-01,9.81784e-01,9.95263e-01,9.99921e-01
1.090029883e+00,9.69338e-01,9.99999e-01,9.74016e-01,9.95356e-01,9.99838e-01
1.095480033e+00,9.26203e-01,9.99999e-01,9.30709e-01,9.95448e-01,9.99707e-01
1.100957433e+00,8.29366e-01,9.99999e-01,8.33530e-01,9.95538e-01,9.99462e-01
1.106462220e+00,6.29146e-01,9.99999e-01,6.32485e-01,9.95625e-01,9.99089e-01
1.111994531e+00,3.81171e-01,9.99999e-01,3.83739e-01,9.95712e-01,9.97585e-01
1.117554504e+00,2.12510e-01,9.99999e-01,2.15277e-01,9.95796e-01,9.91311e-01
1.123142276e+00,3.23369e-01,9.99999e-01,3.31496e-01,9.95879e-01,9.79519e-01
1.128757988e+00,4.71975e-01,9.99999e-01,4.85370e-01,9.95960e-01,9.76345e-01
1.134401778e+00,2.39983e-01,9.99999e-01,2.45892e-01,9.96040e-01,9.79850e-01
1.140073787e+00,6.32697e-01,9.99999e-01,6.45577e-01,9.96118e-01,9.83867e-01
1.145774156e+00,3.99812e-01,9.99999e-01,4.07358e-01,9.96194e-01,9.85222e-01
1.151503026e+00,3.65806e-01,9.99999e-01,3.70233e-01,9.96269e-01,9.91740e-01
1.157260541e+00,4.25304e-01,9.99999e-01,4.27924e-01,9.96343e-01,9.97522e-01
1.163046844e+00,5.30072e-01,9.99999e-01,5.32353e-01,9.96415e-01,9.99296e-01
1.168862078e+00,6.40490e-01,9.99999e-01,6.42981e-01,9.96486e-01,9.99637e-01
1.174706389e+00,7.58375e-01,9.99999e-01,7.61362e-01,9.96555e-01,9.99519e-01
1.180579921e+00,8.43320e-01,9.99999e-01,8.46791e-01,9.96623e-01,9.99274e-01
1.186482820e+00,9.06542e-01,9.99999e-01,9.10230e-01,9.96689e-01,9.99254e-01
1.192415234e+00,9.42996e-01,9.99999e-01,9.46594e-01,9.96755e-01,9.99441e-01
1.198377311e+00,9.51305e-01,9.99999e-01,9.54843e-01,9.96819e-01,9.99472e-01
1.204369197e+00,9.53782e-01,9.99999e-01,9.57221e-01,9.96881e-01,9.99522e-01
1.210391043e+00,9.55825e-01,9.99999e-01,9.59033e-01,9.96943e-01,9.99709e-01
1.216442998e+00,9.61943e-01,9.99999e-01,9.65005e-01,9.97003e-01,9.99821e-01
1.222525213e+00,9.69692e-01,9.99999e-01,9.72656e-01,9.97062e-01,9.99889e-01
1.228637839e+00,9.78067e-01,9.99999e-01,9.80941e-01,9.97120e-01,9.99948e-01
1.234781029e+00,9.83009e-01,9.99999e-01,9.85805e-01,9.97177e-01,9.99984e-01
1.240954934e+00,9.88261e-01,9.99999e-01,9.91007e-01,9.97233e-01,9.99995e-01
1.247159708e+00,9.90292e-01,9.99999e-01,9.92987e-01,9.97287e-01,9.99996e-01
1.253395507e+00,9.91132e-01,9.99999e-01,9.93777e-01,9.97341e-01,9.99996e-01
1.259662485e+00,9.91500e-01,9.99999e-01,9.94095e-01,9.97393e-01,9.99994e-01
1.265960797e+00,9.88028e-01,9.99999e-01,9.90568e-01,9.97445e-01,9.99990e-01
1.272290601e+00,9.83681e-01,9.99999e-01,9.86166e-01,9.97495e-01,9.99983e-01
1.278652054e+00,9.68563e-01,9.99999e-01,9.70974e-01,9.97544e-01,9.99970e-01
1.285045314e+00,9.52364e-01,9.99999e-01,9.54712e-01,9.97593e-01,9.99946e-01
1.291470541e+00,9.08773e-01,9.99999e-01,9.11007e-01,9.97640e-01,9.99905e-01
1.297927893e+00,8.83304e-01,9.99999e-01,8.85507e-01,9.97687e-01,9.99824e-01
1.304417533e+00,8.52812e-01,9.99999e-01,8.55066e-01,9.97732e-01,9.99628e-01
1.310939621e+00,8.33721e-01,9.99999e-01,8.36215e-01,9.97777e-01,9.99238e-01
1.317494319e+00,8.20238e-01,9.99999e-01,8.23187e-01,9.97821e-01,9.98591e-01
1.324081790e+00,7.45242e-01,9.99999e-01,7.48556e-01,9.97864e-01,9.97701e-01
1.330702199e+00,3.48706e-01,9.99999e-01,3.50826e-01,9.97906e-01,9.96040e-01
1.337355710e+00,5.98039e-02,9.99999e-01,6.03863e-02,9.97947e-01,9.92389e-01
1.344042489e+00,2.39239e-03,9.99999e-01,2.45300e-03,9.97988e-01,9.77253e-01
1.350762701e+00,9.16711e-07,9.99999e-01,9.93805e-07,9.98028e-01,9.24247e-01
1.357516515e+00,1.64922e-09,9.99999e-01,2.08220e-09,9.98066e-01,7.93590e-01
1.364304097e+00,2.27195e-06,9.99999e-01,3.41340e-06,9.98105e-01,6.66860e-01
1.371125618e+00,1.63316e-04,9.99999e-01,2.39737e-04,9.98142e-01,6.82496e-01
1.377981246e+00,5.19771e-04,9.99999e-01,7.22456e-04,9.98179e-01,7.20762e-01
1.384871152e+00,7.38296e-06,9.99999e-01,1.00681e-05,9.98215e-01,7.34610e-01
1.391795508e+00,3.18147e-06,9.99999e-01,4.26754e-06,9.98250e-01,7.46809e-01
1.398754485e+00,3.32975e-05,9.99999e-01,4.24128e-05,9.98284e-01,7.86430e-01
1.405748258e+00,3.59318e-05,9.99999e-01,4.14196e-05,9.98318e-01,8.68967e-01
1.412776999e+00,3.64489e-05,9.99999e-01,3.89269e-05,9.98351e-01,9.37887e-01
1.419840884e+00,7.55176e-05,9.99999e-01,7.77967e-05,9.98384e-01,9.72274e-01
1.426940089e+00,6.47914e-04,9.99999e-01,6.62953e-04,9.98416e-01,9.78865e-01
1.434074789e+00,3.44275e-03,9.99999e-01,3.53613e-03,9.98447e-01,9.75107e-01
1.441245163e+00,1.09117e-02,9.99999e-01,1.12308e-02,9.98478e-01,9.73066e-01
1.448451389e+00,4.19627e-02,9.99999e-01,4.30422e-02,9.98508e-01,9.76377e-01
1.455693646e+00,1.16053e-01,9.99999e-01,1.18405e-01,9.98537e-01,9.81570e-01
1.462972114e+00,1.52947e-01,9.99999e-01,1.55909e-01,9.98566e-01,9.82415e-01
1.470286975e+00,1.13165e-01,9.99999e-01,1.15318e-01,9.98594e-01,9.82712e-01
