#,Wave/freq,Total,N2,H2O,Rayleigh,CIA
4.000000000e-01,9.31438e-01,9.99999e-01,9.99991e-01,9.31446e-01,9.99999e-01
4.020000000e-01,9.32750e-01,9.99999e-01,9.99994e-01,9.32754e-01,9.99999e-01
4.040100000e-01,9.34036e-01,9.99999e-01,9.99997e-01,9.34038e-01,9.99999e-01
4.060300500e-01,9.35297e-01,9.99999e-01,9.99999e-01,9.35298e-01,9.99999e-01
4.080602003e-01,9.36534e-01,9.99999e-01,9.99999e-01,9.36534e-01,9.99999e-01
4.101005013e-01,9.37748e-01,9.99999e-01,9.99999e-01,9.37748e-01,9.99999e-01
4.121510038e-01,9.38939e-01,9.99999e-01,9.99999e-01,9.38939e-01,9.99999e-01
4.142117588e-01,9.40106e-01,9.99999e-01,9.99997e-01,9.40108e-01,9.99999e-01
4.162828176e-01,9.41247e-01,9.99999e-01,9.99989e-01,9.41256e-01,9.99999e-01
4.183642317e-01,9.42377e-01,9.99999e-01,9.99993e-01,9.42382e-01,9.99999e-01
4.204560528e-01,9.43484e-01,9.99999e-01,9.99995e-01,9.43487e-01,9.99999e-01
4.225583331e-01,9.44571e-01,9.99999e-01,9.99998e-01,9.44572e-01,9.99999e-01
4.246711247e-01,9.45636e-01,9.99999e-01,9.99998e-01,9.45637e-01,9.99999e-01
4.267944804e-01,9.46680e-01,9.99999e-01,9.99997e-01,9.46681e-01,9.99999e-01
4.289284528e-01,9.47705e-01,9.99999e-01,9.99998e-01,9.47706e-01,9.99999e-01
4.310730950e-01,9.48712e-01,9.99999e-01,9.99998e-01,9.48712e-01,9.99999e-01
4.332284605e-01,9.49699e-01,9.99999e-01,9.99999e-01,9.49699e-01,9.99999e-01
4.353946028e-01,9.50668e-01,9.99999e-01,9.99999e-01,9.50668e-01,9.99999e-01
4.375715758e-01,9.51618e-01,9.99999e-01,9.99998e-01,9.51619e-01,9.99999e-01
4.397594337e-01,9.52543e-01,9.99999e-01,9.99990e-01,9.52551e-01,9.99999e-01
4.419582309e-01,9.53423e-01,9.99999e-01,9.99954e-01,9.53466e-01,9.99999e-01
4.441680220e-01,9.54331e-01,9.99999e-01,9.99965e-01,9.54364e-01,9.99999e-01
4.463888621e-01,9.55211e-01,9.99999e-01,9.99963e-01,9.55245e-01,9.99999e-01
4.486208064e-01,9.56088e-01,9.99999e-01,9.99977e-01,9.56109e-01,9.99999e-01
4.508639105e-01,9.56947e-01,9.99999e-01,9.99989e-01,9.56957e-01,9.99999e-01
4.531182300e-01,9.57785e-01,9.99999e-01,9.99995e-01,9.57789e-01,9.99999e-01
4.553838212e-01,9.58603e-01,9.99999e-01,9.99996e-01,9.58605e-01,9.99999e-01
4.576607403e-01,9.59405e-01,9.99999e-01,9.99998e-01,9.59406e-01,9.99999e-01
4.599490440e-01,9.60191e-01,9.99999e-01,9.99998e-01,9.60192e-01,9.99999e-01
4.622487892e-01,9.60962e-01,9.99999e-01,9.99999e-01,9.60963e-01,9.99999e-01
4.645600332e-01,9.61718e-01,9.99999e-01,9.99998e-01,9.61719e-01,9.99999e-01
4.668828333e-01,9.62450e-01,9.99999e-01,9.99988e-01,9.62461e-01,9.99999e-01
4.692172475e-01,9.63166e-01,9.99999e-01,9.99976e-01,9.63188e-01,9.99999e-01
4.715633337e-01,9.63888e-01,9.99999e-01,9.99984e-01,9.63902e-01,9.99999e-01
4.739211504e-01,9.64589e-01,9.99999e-01,9.99985e-01,9.64602e-01,9.99999e-01
4.762907561e-01,9.65282e-01,9.99999e-01,9.99992e-01,9.65289e-01,9.99999e-01
4.786722099e-01,9.65960e-01,9.99999e-01,9.99996e-01,9.65963e-01,9.99999e-01
4.810655710e-01,9.66623e-01,9.99999e-01,9.99998e-01,9.66624e-01,9.99999e-01
4.834708988e-01,9.67264e-01,9.99999e-01,9.99990e-01,9.67272e-01,9.99999e-01
4.858882533e-01,9.67893e-01,9.99999e-01,9.99983e-01,9.67908e-01,9.99999e-01
4.883176946e-01,9.68519e-01,9.99999e-01,9.99986e-01,9.68532e-01,9.99999e-01
4.907592831e-01,9.69132e-01,9.99999e-01,9.99987e-01,9.69144e-01,9.99999e-01
4.932130795e-01,9.69736e-01,9.99999e-01,9.99990e-01,9.69744e-01,9.99999e-01
4.956791449e-01,9.70328e-01,9.99999e-01,9.99994e-01,9.70333e-01,9.99999e-01
4.981575406e-01,9.70888e-01,9.99999e-01,9.99976e-01,9.70910e-01,9.99999e-01
5.006483283e-01,9.71418e-01,9.99999e-01,9.99940e-01,9.71476e-01,9.99999e-01
5.031515699e-01,9.71738e-01,9.99999e-01,9.99700e-01,9.72032e-01,9.99996e-01
5.056673278e-01,9.72420e-01,9.99999e-01,9.99842e-01,9.72577e-01,9.99995e-01
5.081956644e-01,9.72916e-01,9.99999e-01,9.99801e-01,9.73111e-01,9.99997e-01
5.107366428e-01,9.73505e-01,9.99999e-01,9.99866e-01,9.73635e-01,9.99999e-01
5.132903260e-01,9.74075e-01,9.99999e-01,9.99923e-01,9.74149e-01,9.99999e-01
5.158567776e-01,9.74622e-01,9.99999e-01,9.99967e-01,9.74653e-01,9.99999e-01
5.184360615e-01,9.75135e-01,9.99999e-01,9.99986e-01,9.75147e-01,9.99999e-01
5.210282418e-01,9.75627e-01,9.99999e-01,9.99994e-01,9.75632e-01,9.99999e-01
5.236333830e-01,9.76089e-01,9.99999e-01,9.99980e-01,9.76108e-01,9.99999e-01
5.262515499e-01,9.76562e-01,9.99999e-01,9.99987e-01,9.76574e-01,9.99999e-01
5.288828077e-01,9.77020e-01,9.99999e-01,9.99988e-01,9.77031e-01,9.99999e-01
5.315272217e-01,9.77470e-01,9.99999e-01,9.99989e-01,9.77480e-01,9.99999e-01
5.341848578e-01,9.77913e-01,9.99999e-01,9.99993e-01,9.77920e-01,9.99999e-01
5.368557821e-01,9.78329e-01,9.99999e-01,9.99976e-01,9.78351e-01,9.99999e-01
5.395400610e-01,9.78692e-01,9.99999e-01,9.99916e-01,9.78774e-01,9.99998e-01
5.422377613e-01,9.79084e-01,9.99999e-01,9.99894e-01,9.79189e-01,9.99997e-01
5.449489501e-01,9.79497e-01,9.99999e-01,9.99900e-01,9.79596e-01,9.99997e-01
5.476736949e-01,9.79909e-01,9.99999e-01,9.99913e-01,9.79995e-01,9.99998e-01
5.504120634e-01,9.80324e-01,9.99999e-01,9.99936e-01,9.80386e-01,9.99999e-01
5.531641237e-01,9.80739e-01,9.99999e-01,9.99967e-01,9.80770e-01,9.99999e-01
5.559299443e-01,9.81131e-01,9.99999e-01,9.99984e-01,9.81146e-01,9.99999e-01
5.587095940e-01,9.81505e-01,9.99999e-01,9.99989e-01,9.81515e-01,9.99999e-01
5.615031420e-01,9.81866e-01,9.99999e-01,9.99988e-01,9.81877e-01,9.99999e-01
5.643106577e-01,9.82219e-01,9.99999e-01,9.99987e-01,9.82231e-01,9.99999e-01
5.671322110e-01,9.82430e-01,9.99999e-01,9.99848e-01,9.82579e-01,9.99998e-01
5.699678720e-01,9.82764e-01,9.99999e-01,9.99844e-01,9.82920e-01,9.99995e-01
5.728177114e-01,9.83091e-01,9.99999e-01,9.99835e-01,9.83255e-01,9.99996e-01
5.756818000e-01,9.83434e-01,9.99999e-01,9.99849e-01,9.83583e-01,9.99997e-01
5.785602090e-01,9.83776e-01,9.99999e-01,9.99869e-01,9.83904e-01,9.99998e-01
5.814530100e-01,9.84091e-01,9.99999e-01,9.99868e-01,9.84220e-01,9.99999e-01
5.843602750e-01,9.84373e-01,9.99999e-01,9.99841e-01,9.84529e-01,9.99998e-01
5.872820764e-01,9.83484e-01,9.99999e-01,9.98639e-01,9.84832e-01,9.99990e-01
5.902184868e-01,9.83499e-01,9.99999e-01,9.98370e-01,9.85130e-01,9.99973e-01
5.931695792e-01,9.84258e-01,9.99999e-01,9.98844e-01,9.85421e-01,9.99974e-01
5.961354271e-01,9.84448e-01,9.99999e-01,9.98736e-01,9.85707e-01,9.99985e-01
5.991161043e-01,9.85076e-01,9.99999e-01,9.99079e-01,9.85987e-01,9.99995e-01
6.021116848e-01,9.85748e-01,9.99999e-01,9.99478e-01,9.86262e-01,9.99999e-01
6.051222432e-01,9.86272e-01,9.99999e-01,9.99736e-01,9.86532e-01,9.99999e-01
6.081478544e-01,9.86684e-01,9.99999e-01,9.99885e-01,9.86796e-01,9.99999e-01
6.111885937e-01,9.87008e-01,9.99999e-01,9.99951e-01,9.87055e-01,9.99999e-01
6.142445367e-01,9.87288e-01,9.99999e-01,9.99978e-01,9.87309e-01,9.99999e-01
6.173157594e-01,9.87547e-01,9.99999e-01,9.99987e-01,9.87558e-01,9.99999e-01
6.204023382e-01,9.87793e-01,9.99999e-01,9.99989e-01,9.87803e-01,9.99999e-01
6.235043498e-01,9.87997e-01,9.99999e-01,9.99954e-01,9.88042e-01,9.99999e-01
6.266218716e-01,9.88043e-01,9.99999e-01,9.99764e-01,9.88277e-01,9.99997e-01
6.297549810e-01,9.88419e-01,9.99999e-01,9.99913e-01,9.88507e-01,9.99996e-01
6.329037559e-01,9.88562e-01,9.99999e-01,9.99829e-01,9.88733e-01,9.99996e-01
6.360682746e-01,9.88809e-01,9.99999e-01,9.99854e-01,9.88954e-01,9.99997e-01
6.392486160e-01,9.88985e-01,9.99999e-01,9.99811e-01,9.89171e-01,9.99998e-01
6.424448591e-01,9.89131e-01,9.99999e-01,9.99745e-01,9.89384e-01,9.99998e-01
6.456570834e-01,9.88418e-01,9.99999e-01,9.98820e-01,9.89592e-01,9.99992e-01
6.488853688e-01,9.88936e-01,9.99999e-01,9.99147e-01,9.89797e-01,9.99981e-01
6.521297956e-01,9.89123e-01,9.99999e-01,9.99130e-01,9.89997e-01,9.99984e-01
6.553904446e-01,9.89322e-01,9.99999e-01,9.99130e-01,9.90194e-01,9.99988e-01
6.586673968e-01,9.89650e-01,9.99999e-01,9.99259e-01,9.90387e-01,9.99995e-01
6.619607338e-01,9.90166e-01,9.99999e-01,9.99587e-01,9.90576e-01,9.99998e-01
6.652705375e-01,9.90515e-01,9.99999e-01,9.99752e-01,9.90761e-01,9.99999e-01
6.685968902e-01,9.90838e-01,9.99999e-01,9.99894e-01,9.90943e-01,9.99999e-01
6.719398746e-01,9.91068e-01,9.99999e-01,9.99946e-01,9.91121e-01,9.99999e-01
6.752995740e-01,9.91267e-01,9.99999e-01,9.99971e-01,9.91295e-01,9.99999e-01
6.786760719e-01,9.91425e-01,9.99999e-01,9.99957e-01,9.91466e-01,9.99999e-01
6.820694522e-01,9.91562e-01,9.99999e-01,9.99927e-01,9.91634e-01,9.99999e-01
6.854797995e-01,9.91706e-01,9.99999e-01,9.99906e-01,9.91799e-01,9.99998e-01
6.889071985e-01,9.91732e-01,9.99999e-01,9.99771e-01,9.91960e-01,9.99997e-01
6.923517345e-01,9.88445e-01,9.99999e-01,9.96314e-01,9.92118e-01,9.99982e-01
6.958134932e-01,9.90379e-01,9.99999e-01,9.98129e-01,9.92273e-01,9.99960e-01
6.992925606e-01,9.90585e-01,9.99999e-01,9.98179e-01,9.92425e-01,9.99964e-01
7.027890234e-01,9.90340e-01,9.99999e-01,9.97774e-01,9.92574e-01,9.99972e-01
7.063029686e-01,9.90849e-01,9.99999e-01,9.98127e-01,9.92721e-01,9.99986e-01
7.098344834e-01,9.91073e-01,9.99999e-01,9.98203e-01,9.92864e-01,9.99991e-01
7.133836558e-01,9.90575e-01,9.99999e-01,9.97568e-01,9.93004e-01,9.99983e-01
7.169505741e-01,9.73799e-01,9.99999e-01,9.80642e-01,9.93142e-01,9.99876e-01
7.205353270e-01,9.83832e-01,9.99999e-01,9.90705e-01,9.93277e-01,9.99783e-01
7.241380036e-01,9.81292e-01,9.99999e-01,9.87986e-01,9.93409e-01,9.99812e-01
7.277586936e-01,9.82625e-01,9.99999e-01,9.89165e-01,9.93539e-01,9.99846e-01
7.313974871e-01,9.82255e-01,9.99999e-01,9.88586e-01,9.93666e-01,9.99927e-01
7.350544745e-01,9.87549e-01,9.99999e-01,9.93743e-01,9.93791e-01,9.99974e-01
7.387297469e-01,9.89331e-01,9.99999e-01,9.95400e-01,9.93913e-01,9.99988e-01
7.424233956e-01,9.91799e-01,9.99999e-01,9.97754e-01,9.94033e-01,9.99997e-01
7.461355126e-01,9.92795e-01,9.99999e-01,9.98636e-01,9.94150e-01,9.99999e-01
7.498661902e-01,9.93637e-01,9.99999e-01,9.99367e-01,9.94266e-01,9.99999e-01
7.536155211e-01,9.94069e-01,9.99999e-01,9.99688e-01,9.94379e-01,9.99999e-01
7.573835987e-01,9.94330e-01,9.99999e-01,9.99839e-01,9.94489e-01,9.99999e-01
7.611705167e-01,9.94499e-01,9.99999e-01,9.99900e-01,9.94598e-01,9.99999e-01
7.649763693e-01,9.94642e-01,9.99999e-01,9.99937e-01,9.94704e-01,9.99999e-01
7.688012511e-01,9.94765e-01,9.99999e-01,9.99955e-01,9.94809e-01,9.99999e-01
7.726452574e-01,9.94875e-01,9.99999e-01,9.99963e-01,9.94911e-01,9.99999e-01
7.765084837e-01,9.94960e-01,9.99999e-01,9.99948e-01,9.95011e-01,9.99999e-01
7.803910261e-01,9.94887e-01,9.99999e-01,9.99776e-01,9.95109e-01,9.99999e-01
7.842929812e-01,9.94430e-01,9.99999e-01,9.99221e-01,9.95206e-01,9.99998e-01
7.882144461e-01,9.93710e-01,9.99999e-01,9.98412e-01,9.95300e-01,9.99988e-01
7.921555184e-01,9.94513e-01,9.99999e-01,9.99134e-01,9.95393e-01,9.99980e-01
7.961162960e-01,9.93923e-01,9.99999e-01,9.98449e-01,9.95484e-01,9.99981e-01
8.000968774e-01,9.93784e-01,9.99999e-01,9.98222e-01,9.95573e-01,9.99980e-01
8.040973618e-01,9.93872e-01,9.99999e-01,9.98218e-01,9.95660e-01,9.99984e-01
8.081178486e-01,9.91702e-01,9.99999e-01,9.95953e-01,9.95745e-01,9.99984e-01
8.121584379e-01,9.79070e-01,9.99999e-01,9.83225e-01,9.95829e-01,9.99943e-01
8.162192301e-01,9.76115e-01,9.99999e-01,9.80328e-01,9.95911e-01,9.99788e-01
8.203003262e-01,9.85665e-01,9.99999e-01,9.89875e-01,9.95992e-01,9.99752e-01
8.244018279e-01,9.82197e-01,9.99999e-01,9.86263e-01,9.96071e-01,9.99803e-01
8.285238370e-01,9.84194e-01,9.99999e-01,9.88150e-01,9.96148e-01,9.99845e-01
8.326664562e-01,9.84281e-01,9.99999e-01,9.88073e-01,9.96224e-01,9.99935e-01
8.368297885e-01,9.87820e-01,9.99999e-01,9.91504e-01,9.96299e-01,9.99984e-01
8.410139374e-01,9.91333e-01,9.99999e-01,9.94950e-01,9.96372e-01,9.99990e-01
8.452190071e-01,9.93974e-01,9.99999e-01,9.97526e-01,9.96443e-01,9.99994e-01
8.494451021e-01,9.95073e-01,9.99999e-01,9.98558e-01,9.96513e-01,9.99995e-01
8.536923276e-01,9.95734e-01,9.99999e-01,9.99150e-01,9.96582e-01,9.99997e-01
8.579607893e-01,9.96126e-01,9.99999e-01,9.99474e-01,9.96649e-01,9.99998e-01
8.622505932e-01,9.96384e-01,9.99999e-01,9.99667e-01,9.96715e-01,9.99999e-01
8.665618462e-01,9.96574e-01,9.99999e-01,9.99793e-01,9.96780e-01,9.99999e-01
8.708946554e-01,9.96607e-01,9.99999e-01,9.99762e-01,9.96844e-01,9.99999e-01
8.752491287e-01,9.96590e-01,9.99999e-01,9.99682e-01,9.96906e-01,9.99999e-01
8.796253743e-01,9.96527e-01,9.99999e-01,9.99559e-01,9.96967e-01,9.99998e-01
8.840235012e-01,9.96523e-01,9.99999e-01,9.99497e-01,9.97027e-01,9.99996e-01
8.884436187e-01,9.95206e-01,9.99999e-01,9.98123e-01,9.97085e-01,9.99990e-01
8.928858368e-01,9.77767e-01,9.99999e-01,9.80617e-01,9.97143e-01,9.99949e-01
8.973502660e-01,9.63315e-01,9.99999e-01,9.66267e-01,9.97199e-01,9.99743e-01
9.018370173e-01,9.79704e-01,9.99999e-01,9.82796e-01,9.97254e-01,9.99596e-01
9.063462024e-01,9.81575e-01,9.99999e-01,9.84571e-01,9.97309e-01,9.99645e-01
9.108779334e-01,9.73247e-01,9.99999e-01,9.76179e-01,9.97362e-01,9.99631e-01
9.154323231e-01,9.70267e-01,9.99999e-01,9.73078e-01,9.97414e-01,9.99695e-01
9.200094847e-01,9.76247e-01,9.99999e-01,9.78894e-01,9.97465e-01,9.99829e-01
9.246095321e-01,9.63291e-01,9.99999e-01,9.65879e-01,9.97515e-01,9.99803e-01
9.292325798e-01,7.90906e-01,9.99999e-01,7.93588e-01,9.97564e-01,9.99053e-01
9.338787427e-01,7.39074e-01,9.99999e-01,7.43381e-01,9.97612e-01,9.96585e-01
9.385481364e-01,8.82632e-01,9.99999e-01,8.88034e-01,9.97659e-01,9.96248e-01
9.432408771e-01,8.39150e-01,9.99999e-01,8.43810e-01,9.97705e-01,9.96762e-01
9.479570815e-01,7.83839e-01,9.99999e-01,7.87681e-01,9.97750e-01,9.97364e-01
9.526968669e-01,8.37453e-01,9.99999e-01,8.40655e-01,9.97795e-01,9.98391e-01
9.574603512e-01,8.52759e-01,9.99999e-01,8.55305e-01,9.97838e-01,9.99182e-01
9.622476530e-01,8.79220e-01,9.99999e-01,8.81585e-01,9.97881e-01,9.99434e-01
9.670588912e-01,9.27714e-01,9.99999e-01,9.29989e-01,9.97923e-01,9.99629e-01
9.718941857e-01,9.53637e-01,9.99999e-01,9.55854e-01,9.97963e-01,9.99715e-01
9.767536566e-01,9.61088e-01,9.99999e-01,9.63219e-01,9.98004e-01,9.99782e-01
9.816374249e-01,9.70757e-01,9.99999e-01,9.72733e-01,9.98043e-01,9.99924e-01
9.865456120e-01,9.80999e-01,9.99999e-01,9.82899e-01,9.98082e-01,9.99983e-01
9.914783401e-01,9.87533e-01,9.99999e-01,9.89397e-01,9.98119e-01,9.99995e-01
9.964357318e-01,9.92380e-01,9.99999e-01,9.94215e-01,9.98157e-01,9.99996e-01
1.001417910e+00,9.94728e-01,9.99999e-01,9.96532e-01,9.98193e-01,9.99995e-01
1.006425000e+00,9.96244e-01,9.99999e-01,9.98017e-01,9.98229e-01,9.99993e-01
1.011457125e+00,9.97034e-01,9.99999e-01,9.98772e-01,9.98264e-01,9.99994e-01
1.016514411e+00,9.97461e-01,9.99999e-01,9.99165e-01,9.98298e-01,9.99995e-01
1.021596983e+00,9.97664e-01,9.99999e-01,9.99334e-01,9.98331e-01,9.99995e-01
1.026704968e+00,9.97844e-01,9.99999e-01,9.99480e-01,9.98364e-01,9.99997e-01
1.031838492e+00,9.98020e-01,9.99999e-01,9.99623e-01,9.98397e-01,9.99998e-01
1.036997685e+00,9.98204e-01,9.99999e-01,9.99775e-01,9.98428e-01,9.99999e-01
1.042182673e+00,9.98191e-01,9.99999e-01,9.99731e-01,9.98459e-01,9.99999e-01
1.047393587e+00,9.98135e-01,9.99999e-01,9.99644e-01,9.98490e-01,9.99999e-01
1.052630555e+00,9.98032e-01,9.99999e-01,9.99511e-01,9.98519e-01,9.99999e-01
1.057893707e+00,9.97733e-01,9.99999e-01,9.99182e-01,9.98549e-01,9.99999e-01
1.063183176e+00,9.97236e-01,9.99999e-01,9.98657e-01,9.98577e-01,9.99998e-01
1.068499092e+00,9.96363e-01,9.99999e-01,9.97755e-01,9.98605e-01,9.99997e-01
1.073841587e+00,9.96000e-01,9.99999e-01,9.97366e-01,9.98633e-01,9.99996e-01
1.079210795e+00,9.95296e-01,9.99999e-01,9.96640e-01,9.98660e-01,9.99990e-01
1.084606849e+00,9.93577e-01,9.99999e-01,9.94905e-01,9.98686e-01,9.99977e-01
1.090029883e+00,9.91305e-01,9.99999e-01,9.92627e-01,9.98712e-01,9.99954e-01
1.095480033e+00,9.78769e-01,9.99999e-01,9.80084e-01,9.98737e-01,9.99918e-01
1.100957433e+00,9.48733e-01,9.99999e-01,9.50048e-01,9.98762e-01,9.99850e-01
1.106462220e+00,8.75211e-01,9.99999e-01,8.76494e-01,9.98787e-01,9.99747e-01
1.111994531e+00,7.56294e-01,9.99999e-01,7.57701e-01,9.98811e-01,9.99330e-01
1.117554504e+00,6.34409e-01,9.99999e-01,6.36685e-01,9.98834e-01,9.97586e-01
1.123142276e+00,7.08345e-01,9.99999e-01,7.13229e-01,9.98857e-01,9.94287e-01
1.128757988e+00,8.01075e-01,9.99999e-01,8.07305e-01,9.98880e-01,9.93394e-01
1.134401778e+00,5.91208e-01,9.99999e-01,5.95202e-01,9.98902e-01,9.94380e-01
1.140073787e+00,8.76951e-01,9.99999e-01,8.81856e-01,9.98923e-01,9.95507e-01
1.145774156e+00,7.63501e-01,9.99999e-01,7.67463e-01,9.98945e-01,9.95886e-01
1.151503026e+00,7.40092e-01,9.99999e-01,7.42561e-01,9.98966e-01,9.97706e-01
1.157260541e+00,7.83291e-01,9.99999e-01,7.84624e-01,9.98986e-01,9.99313e-01
1.163046844e+00,8.35832e-01,9.99999e-01,8.36826e-01,9.99006e-01,9.99804e-01
1.168862078e+00,8.83484e-01,9.99999e-01,8.84434e-01,9.99026e-01,9.99898e-01
1.174706389e+00,9.26010e-01,9.99999e-01,9.27024e-01,9.99045e-01,9.99859e-01
1.180579921e+00,9.53901e-01,9.99999e-01,9.54986e-01,9.99064e-01,9.99798e-01
1.186482820e+00,9.73238e-01,9.99999e-01,9.74333e-01,9.99082e-01,9.99793e-01
1.192415234e+00,9.83900e-01,9.99999e-01,9.84937e-01,9.99100e-01,9.99845e-01
1.198377311e+00,9.86247e-01,9.99999e-01,9.87261e-01,9.99118e-01,9.99852e-01
1.204369197e+00,9.86965e-01,9.99999e-01,9.87945e-01,9.99135e-01,9.99871e-01
1.210391043e+00,9.87562e-01,9.99999e-01,9.88478e-01,9.99152e-01,9.99919e-01
1.216442998e+00,9.89344e-01,9.99999e-01,9.90215e-01,9.99169e-01,9.99950e-01
1.222525213e+00,9.91533e-01,9.99999e-01,9.92370e-01,9.99185e-01,9.99968e-01
1.228637839e+00,9.93886e-01,9.99999e-01,9.94693e-01,9.99202e-01,9.99985e-01
1.234781029e+00,9.95280e-01,9.99999e-01,9.96063e-01,9.99217e-01,9.99995e-01
1.240954934e+00,9.96741e-01,9.99999e-01,9.97506e-01,9.99233e-01,9.99998e-01
1.247159708e+00,9.97309e-01,9.99999e-01,9.98060e-01,9.99248e-01,9.99998e-01
1.253395507e+00,9.97538e-01,9.99999e-01,9.98274e-01,9.99263e-01,9.99998e-01
1.259662485e+00,9.97634e-01,9.99999e-01,9.98356e-01,9.99277e-01,9.99997e-01
1.265960797e+00,9.96673e-01,9.99999e-01,9.97381e-01,9.99291e-01,9.99996e-01
1.272290601e+00,9.95176e-01,9.99999e-01,9.95872e-01,9.99305e-01,9.99995e-01
1.278652054e+00,9.91123e-01,9.99999e-01,9.91805e-01,9.99319e-01,9.99991e-01
1.285045314e+00,9.84479e-01,9.99999e-01,9.85150e-01,9.99333e-01,9.99984e-01
1.291470541e+00,9.73594e-01,9.99999e-01,9.74256e-01,9.99346e-01,9.99973e-01
1.297927893e+00,9.62880e-01,9.99999e-01,9.63544e-01,9.99359e-01,9.99951e-01
1.304417533e+00,9.56501e-01,9.99999e-01,9.57201e-01,9.99371e-01,9.99896e-01
1.310939621e+00,9.45387e-01,9.99999e-01,9.46168e-01,9.99384e-01,9.99788e-01
1.317494319e+00,9.46238e-01,9.99999e-01,9.47179e-01,9.99396e-01,9.99609e-01
1.324081790e+00,9.21693e-01,9.99999e-01,9.22826e-01,9.99408e-01,9.99362e-01
1.330702199e+00,6.90763e-01,9.99999e-01,6.91923e-01,9.99419e-01,9.98902e-01
1.337355710e+00,3.82666e-01,9.99999e-01,3.83694e-01,9.99431e-01,9.97887e-01
1.344042489e+00,7.84964e-02,9.99999e-01,7.90420e-02,9.99442e-01,9.93650e-01
1.350762701e+00,8.21210e-03,9.99999e-01,8.39774e-03,9.99453e-01,9.78428e-01
1.357516515e+00,1.82511e-03,9.99999e-01,1.94678e-03,9.99464e-01,9.38003e-01
1.364304097e+00,1.24270e-02,9.99999e-01,1.39094e-02,9.99474e-01,8.93895e-01
1.371125618e+00,5.31382e-02,9.99999e-01,5.90958e-02,9.99485e-01,8.99648e-01
1.377981246e+00,7.82924e-02,9.99999e-01,8.57644e-02,9.99495e-01,9.13338e-01
1.384871152e+00,1.04337e-02,9.99999e-01,1.13589e-02,9.99505e-01,9.19000e-01
1.391795508e+00,1.69836e-02,9.99999e-01,1.84165e-02,9.99515e-01,9.22639e-01
1.398754485e+00,2.83066e-02,9.99999e-01,3.02676e-02,9.99524e-01,9.35653e-01
1.405748258e+00,2.71085e-02,9.99999e-01,2.81964e-02,9.99534e-01,9.61864e-01
1.412776999e+00,3.25918e-02,9.99999e-01,3.31907e-02,9.99543e-01,9.82404e-01
1.419840884e+00,3.93660e-02,9.99999e-01,3.96914e-02,9.99552e-01,9.92246e-01
1.426940089e+00,8.30693e-02,9.99999e-01,8.35986e-02,9.99561e-01,9.94103e-01
1.434074789e+00,1.46897e-01,9.99999e-01,1.47989e-01,9.99569e-01,9.93045e-01
1.441245163e+00,2.44954e-01,9.99999e-01,2.46917e-01,9.99578e-01,9.92469e-01
1.448451389e+00,3.62761e-01,9.99999e-01,3.65321e-01,9.99586e-01,9.93403e-01
1.455693646e+00,5.25692e-01,9.99999e-01,5.28620e-01,9.99594e-01,9.94863e-01
1.462972114e+00,5.76245e-01,9.99999e-01,5.79312e-01,9.99602e-01,9.95100e-01
1.470286975e+00,5.24705e-01,9.99999e-01,5.27449e-01,9.99610e-01,9.95183e-01
