#,Wave/freq,Total,N2,H2O,Rayleigh,CIA
4.000000000e-01,8.07396e-01,9.99999e-01,9.99975e-01,8.07416e-01,9.99999e-01
4.020000000e-01,8.10826e-01,9.99999e-01,9.99984e-01,8.10838e-01,9.99999e-01
4.040100000e-01,8.14198e-01,9.99999e-01,9.99993e-01,8.14204e-01,9.99999e-01
4.060300500e-01,8.17515e-01,9.99999e-01,9.99998e-01,8.17516e-01,9.99999e-01
4.080602003e-01,8.20776e-01,9.99999e-01,9.99999e-01,8.20776e-01,9.99999e-01
4.101005013e-01,8.23984e-01,9.99999e-01,9.99999e-01,8.23984e-01,9.99999e-01
4.121510038e-01,8.27141e-01,9.99999e-01,9.99998e-01,8.27141e-01,9.99999e-01
4.142117588e-01,8.30242e-01,9.99999e-01,9.99992e-01,8.30248e-01,9.99999e-01
4.162828176e-01,8.33279e-01,9.99999e-01,9.99969e-01,8.33304e-01,9.99999e-01
4.183642317e-01,8.36296e-01,9.99999e-01,9.99981e-01,8.36311e-01,9.99999e-01
4.204560528e-01,8.39260e-01,9.99999e-01,9.99988e-01,8.39269e-01,9.99999e-01
4.225583331e-01,8.42176e-01,9.99999e-01,9.99995e-01,8.42179e-01,9.99999e-01
4.246711247e-01,8.45038e-01,9.99999e-01,9.99996e-01,8.45041e-01,9.99999e-01
4.267944804e-01,8.47852e-01,9.99999e-01,9.99994e-01,8.47856e-01,9.99999e-01
4.289284528e-01,8.50622e-01,9.99999e-01,9.99995e-01,8.50625e-01,9.99999e-01
4.310730950e-01,8.53346e-01,9.99999e-01,9.99997e-01,8.53347e-01,9.99999e-01
4.332284605e-01,8.56024e-01,9.99999e-01,9.99999e-01,8.56025e-01,9.99999e-01
4.353946028e-01,8.58657e-01,9.99999e-01,9.99999e-01,8.58657e-01,9.99999e-01
4.375715758e-01,8.61243e-01,9.99999e-01,9.99996e-01,8.61246e-01,9.99999e-01
4.397594337e-01,8.63768e-01,9.99999e-01,9.99973e-01,8.63790e-01,9.99999e-01
4.419582309e-01,8.66176e-01,9.99999e-01,9.99864e-01,8.66292e-01,9.99999e-01
4.441680220e-01,8.68662e-01,9.99999e-01,9.99895e-01,8.68752e-01,9.99999e-01
4.463888621e-01,8.71075e-01,9.99999e-01,9.99891e-01,8.71170e-01,9.99999e-01
4.486208064e-01,8.73488e-01,9.99999e-01,9.99932e-01,8.73546e-01,9.99999e-01
4.508639105e-01,8.75854e-01,9.99999e-01,9.99968e-01,8.75882e-01,9.99999e-01
4.531182300e-01,8.78167e-01,9.99999e-01,9.99987e-01,8.78178e-01,9.99999e-01
4.553838212e-01,8.80427e-01,9.99999e-01,9.99991e-01,8.80434e-01,9.99999e-01
4.576607403e-01,8.82648e-01,9.99999e-01,9.99995e-01,8.82651e-01,9.99999e-01
4.599490440e-01,8.84828e-01,9.99999e-01,9.99996e-01,8.84830e-01,9.99999e-01
4.622487892e-01,8.86971e-01,9.99999e-01,9.99999e-01,8.86971e-01,9.99999e-01
4.645600332e-01,8.89073e-01,9.99999e-01,9.99997e-01,8.89075e-01,9.99999e-01
4.668828333e-01,8.91114e-01,9.99999e-01,9.99967e-01,8.91142e-01,9.99999e-01
4.692172475e-01,8.93113e-01,9.99999e-01,9.99931e-01,8.93173e-01,9.99999e-01
4.715633337e-01,8.95129e-01,9.99999e-01,9.99955e-01,8.95169e-01,9.99999e-01
4.739211504e-01,8.97091e-01,9.99999e-01,9.99957e-01,8.97129e-01,9.99999e-01
4.762907561e-01,8.99035e-01,9.99999e-01,9.99977e-01,8.99055e-01,9.99999e-01
4.786722099e-01,9.00938e-01,9.99999e-01,9.99990e-01,9.00946e-01,9.99999e-01
4.810655710e-01,9.02802e-01,9.99999e-01,9.99996e-01,9.02804e-01,9.99999e-01
4.834708988e-01,9.04606e-01,9.99999e-01,9.99973e-01,9.04630e-01,9.99999e-01
4.858882533e-01,9.06379e-01,9.99999e-01,9.99951e-01,9.06422e-01,9.99999e-01
4.883176946e-01,9.08147e-01,9.99999e-01,9.99959e-01,9.08183e-01,9.99999e-01
4.907592831e-01,9.09879e-01,9.99999e-01,9.99963e-01,9.09912e-01,9.99999e-01
4.932130795e-01,9.11587e-01,9.99999e-01,9.99973e-01,9.11611e-01,9.99999e-01
4.956791449e-01,9.13266e-01,9.99999e-01,9.99985e-01,9.13279e-01,9.99999e-01
4.981575406e-01,9.14854e-01,9.99999e-01,9.99931e-01,9.14917e-01,9.99999e-01
5.006483283e-01,9.16361e-01,9.99999e-01,9.99821e-01,9.16525e-01,9.99998e-01
5.031515699e-01,9.17271e-01,9.99999e-01,9.99100e-01,9.18104e-01,9.99990e-01
5.056673278e-01,9.19210e-01,9.99999e-01,9.99526e-01,9.19655e-01,9.99988e-01
5.081956644e-01,9.20622e-01,9.99999e-01,9.99402e-01,9.21178e-01,9.99992e-01
5.107366428e-01,9.22300e-01,9.99999e-01,9.99596e-01,9.22673e-01,9.99998e-01
5.132903260e-01,9.23928e-01,9.99999e-01,9.99769e-01,9.24141e-01,9.99999e-01
5.158567776e-01,9.25492e-01,9.99999e-01,9.99902e-01,9.25582e-01,9.99999e-01
5.184360615e-01,9.26961e-01,9.99999e-01,9.99960e-01,9.26997e-01,9.99999e-01
5.210282418e-01,9.28372e-01,9.99999e-01,9.99984e-01,9.28386e-01,9.99999e-01
5.236333830e-01,9.29695e-01,9.99999e-01,9.99941e-01,9.29750e-01,9.99999e-01
5.262515499e-01,9.31054e-01,9.99999e-01,9.99962e-01,9.31088e-01,9.99998e-01
5.288828077e-01,9.32371e-01,9.99999e-01,9.99965e-01,9.32402e-01,9.99999e-01
5.315272217e-01,9.33665e-01,9.99999e-01,9.99970e-01,9.33692e-01,9.99999e-01
5.341848578e-01,9.34940e-01,9.99999e-01,9.99980e-01,9.34958e-01,9.99999e-01
5.368557821e-01,9.36137e-01,9.99999e-01,9.99931e-01,9.36201e-01,9.99999e-01
5.395400610e-01,9.37187e-01,9.99999e-01,9.99751e-01,9.37421e-01,9.99997e-01
5.422377613e-01,9.38316e-01,9.99999e-01,9.99682e-01,9.38618e-01,9.99993e-01
5.449489501e-01,9.39510e-01,9.99999e-01,9.99703e-01,9.39794e-01,9.99993e-01
5.476736949e-01,9.40699e-01,9.99999e-01,9.99738e-01,9.40947e-01,9.99996e-01
5.504120634e-01,9.41900e-01,9.99999e-01,9.99810e-01,9.42079e-01,9.99998e-01
5.531641237e-01,9.43100e-01,9.99999e-01,9.99904e-01,9.43190e-01,9.99999e-01
5.559299443e-01,9.44237e-01,9.99999e-01,9.99953e-01,9.44280e-01,9.99999e-01
5.587095940e-01,9.45323e-01,9.99999e-01,9.99970e-01,9.45350e-01,9.99999e-01
5.615031420e-01,9.46370e-01,9.99999e-01,9.99967e-01,9.46400e-01,9.99999e-01
5.643106577e-01,9.47395e-01,9.99999e-01,9.99962e-01,9.47430e-01,9.99999e-01
5.671322110e-01,9.48012e-01,9.99999e-01,9.99550e-01,9.48442e-01,9.99995e-01
5.699678720e-01,9.48977e-01,9.99999e-01,9.99530e-01,9.49434e-01,9.99987e-01
5.728177114e-01,9.49930e-01,9.99999e-01,9.99507e-01,9.50407e-01,9.99989e-01
5.756818000e-01,9.50928e-01,9.99999e-01,9.99548e-01,9.51363e-01,9.99993e-01
5.785602090e-01,9.51925e-01,9.99999e-01,9.99607e-01,9.52300e-01,9.99997e-01
5.814530100e-01,9.52843e-01,9.99999e-01,9.99604e-01,9.53220e-01,9.99998e-01
5.843602750e-01,9.53668e-01,9.99999e-01,9.99526e-01,9.54122e-01,9.99996e-01
5.872820764e-01,9.51091e-01,9.99999e-01,9.95926e-01,9.55008e-01,9.99971e-01
5.902184868e-01,9.51116e-01,9.99999e-01,9.95096e-01,9.55877e-01,9.99921e-01
5.931695792e-01,9.53335e-01,9.99999e-01,9.96526e-01,9.56729e-01,9.99924e-01
5.961354271e-01,9.53885e-01,9.99999e-01,9.96199e-01,9.57565e-01,9.99956e-01
5.991161043e-01,9.55718e-01,9.99999e-01,9.97229e-01,9.58386e-01,9.99986e-01
6.021116848e-01,9.57682e-01,9.99999e-01,9.98428e-01,9.59191e-01,9.99998e-01
6.051222432e-01,9.59217e-01,9.99999e-01,9.99204e-01,9.59980e-01,9.99999e-01
6.081478544e-01,9.60426e-01,9.99999e-01,9.99656e-01,9.60755e-01,9.99999e-01
6.111885937e-01,9.61376e-01,9.99999e-01,9.99854e-01,9.61515e-01,9.99999e-01
6.142445367e-01,9.62199e-01,9.99999e-01,9.99934e-01,9.62261e-01,9.99999e-01
6.173157594e-01,9.62958e-01,9.99999e-01,9.99963e-01,9.62992e-01,9.99999e-01
6.204023382e-01,9.63681e-01,9.99999e-01,9.99969e-01,9.63710e-01,9.99999e-01
6.235043498e-01,9.64283e-01,9.99999e-01,9.99864e-01,9.64414e-01,9.99999e-01
6.266218716e-01,9.64417e-01,9.99999e-01,9.99292e-01,9.65104e-01,9.99994e-01
6.297549810e-01,9.65521e-01,9.99999e-01,9.99740e-01,9.65782e-01,9.99989e-01
6.329037559e-01,9.65944e-01,9.99999e-01,9.99487e-01,9.66446e-01,9.99991e-01
6.360682746e-01,9.66670e-01,9.99999e-01,9.99562e-01,9.67098e-01,9.99994e-01
6.392486160e-01,9.67188e-01,9.99999e-01,9.99433e-01,9.67737e-01,9.99997e-01
6.424448591e-01,9.67623e-01,9.99999e-01,9.99238e-01,9.68364e-01,9.99995e-01
6.456570834e-01,9.65537e-01,9.99999e-01,9.96468e-01,9.68979e-01,9.99978e-01
6.488853688e-01,9.67041e-01,9.99999e-01,9.97432e-01,9.69582e-01,9.99945e-01
6.521297956e-01,9.67592e-01,9.99999e-01,9.97382e-01,9.70174e-01,9.99954e-01
6.553904446e-01,9.68186e-01,9.99999e-01,9.97387e-01,9.70755e-01,9.99966e-01
6.586673968e-01,9.69146e-01,9.99999e-01,9.97768e-01,9.71324e-01,9.99988e-01
6.619607338e-01,9.70672e-01,9.99999e-01,9.98756e-01,9.71882e-01,9.99997e-01
6.652705375e-01,9.71703e-01,9.99999e-01,9.99253e-01,9.72430e-01,9.99998e-01
6.685968902e-01,9.72658e-01,9.99999e-01,9.99682e-01,9.72967e-01,9.99999e-01
6.719398746e-01,9.73338e-01,9.99999e-01,9.99839e-01,9.73494e-01,9.99999e-01
6.752995740e-01,9.73928e-01,9.99999e-01,9.99914e-01,9.74010e-01,9.99999e-01
6.786760719e-01,9.74394e-01,9.99999e-01,9.99872e-01,9.74517e-01,9.99999e-01
6.820694522e-01,9.74803e-01,9.99999e-01,9.99783e-01,9.75014e-01,9.99998e-01
6.854797995e-01,9.75228e-01,9.99999e-01,9.99721e-01,9.75502e-01,9.99997e-01
6.889071985e-01,9.75309e-01,9.99999e-01,9.99318e-01,9.75980e-01,9.99993e-01
6.923517345e-01,9.65648e-01,9.99999e-01,9.88990e-01,9.76448e-01,9.99946e-01
6.958134932e-01,9.71268e-01,9.99999e-01,9.94341e-01,9.76908e-01,9.99882e-01
6.992925606e-01,9.71931e-01,9.99999e-01,9.94549e-01,9.77359e-01,9.99894e-01
7.027890234e-01,9.71183e-01,9.99999e-01,9.93310e-01,9.77801e-01,9.99919e-01
7.063029686e-01,9.72689e-01,9.99999e-01,9.94370e-01,9.78235e-01,9.99959e-01
7.098344834e-01,9.73351e-01,9.99999e-01,9.94598e-01,9.78660e-01,9.99975e-01
7.133836558e-01,9.71930e-01,9.99999e-01,9.92745e-01,9.79077e-01,9.99952e-01
7.169505741e-01,9.23582e-01,9.99999e-01,9.43272e-01,9.79486e-01,9.99630e-01
7.205353270e-01,9.52006e-01,9.99999e-01,9.72179e-01,9.79887e-01,9.99347e-01
7.241380036e-01,9.44872e-01,9.99999e-01,9.64421e-01,9.80281e-01,9.99436e-01
7.277586936e-01,9.48711e-01,9.99999e-01,9.67859e-01,9.80666e-01,9.99539e-01
7.313974871e-01,9.47491e-01,9.99999e-01,9.66005e-01,9.81045e-01,9.99784e-01
7.350544745e-01,9.62964e-01,9.99999e-01,9.81272e-01,9.81415e-01,9.99924e-01
7.387297469e-01,9.68193e-01,9.99999e-01,9.86195e-01,9.81779e-01,9.99965e-01
7.424233956e-01,9.75486e-01,9.99999e-01,9.93234e-01,9.82136e-01,9.99993e-01
7.461355126e-01,9.78448e-01,9.99999e-01,9.95891e-01,9.82486e-01,9.99998e-01
7.498661902e-01,9.80951e-01,9.99999e-01,9.98089e-01,9.82829e-01,9.99999e-01
7.536155211e-01,9.82241e-01,9.99999e-01,9.99060e-01,9.83165e-01,9.99999e-01
7.573835987e-01,9.83019e-01,9.99999e-01,9.99516e-01,9.83495e-01,9.99999e-01
7.611705167e-01,9.83522e-01,9.99999e-01,9.99699e-01,9.83818e-01,9.99999e-01
7.649763693e-01,9.83950e-01,9.99999e-01,9.99811e-01,9.84135e-01,9.99999e-01
7.688012511e-01,9.84317e-01,9.99999e-01,9.99868e-01,9.84446e-01,9.99999e-01
7.726452574e-01,9.84644e-01,9.99999e-01,9.99891e-01,9.84751e-01,9.99999e-01
7.765084837e-01,9.84897e-01,9.99999e-01,9.99845e-01,9.85050e-01,9.99999e-01
7.803910261e-01,9.84684e-01,9.99999e-01,9.99331e-01,9.85343e-01,9.99998e-01
7.842929812e-01,9.83328e-01,9.99999e-01,9.97668e-01,9.85630e-01,9.99995e-01
7.882144461e-01,9.81175e-01,9.99999e-01,9.95227e-01,9.85912e-01,9.99966e-01
7.921555184e-01,9.83559e-01,9.99999e-01,9.97389e-01,9.86188e-01,9.99942e-01
7.961162960e-01,9.81824e-01,9.99999e-01,9.95354e-01,9.86459e-01,9.99945e-01
8.000968774e-01,9.81397e-01,9.99999e-01,9.94656e-01,9.86725e-01,9.99941e-01
8.040973618e-01,9.81663e-01,9.99999e-01,9.94650e-01,9.86985e-01,9.99955e-01
8.081178486e-01,9.75277e-01,9.99999e-01,9.87924e-01,9.87241e-01,9.99955e-01
8.121584379e-01,9.38594e-01,9.99999e-01,9.50643e-01,9.87491e-01,9.99830e-01
8.162192301e-01,9.29902e-01,9.99999e-01,9.42044e-01,9.87737e-01,9.99365e-01
8.203003262e-01,9.58000e-01,9.99999e-01,9.70377e-01,9.87978e-01,9.99257e-01
8.244018279e-01,9.47651e-01,9.99999e-01,9.59520e-01,9.88214e-01,9.99408e-01
8.285238370e-01,9.53277e-01,9.99999e-01,9.64867e-01,9.88445e-01,9.99535e-01
8.326664562e-01,9.53479e-01,9.99999e-01,9.64588e-01,9.88672e-01,9.99807e-01
8.368297885e-01,9.63750e-01,9.99999e-01,9.74615e-01,9.88894e-01,9.99955e-01
8.410139374e-01,9.74102e-01,9.99999e-01,9.84849e-01,9.89113e-01,9.99973e-01
8.452190071e-01,9.81943e-01,9.99999e-01,9.92551e-01,9.89326e-01,9.99984e-01
8.494451021e-01,9.85233e-01,9.99999e-01,9.95662e-01,9.89536e-01,9.99987e-01
8.536923276e-01,9.87200e-01,9.99999e-01,9.97438e-01,9.89742e-01,9.99992e-01
8.579607893e-01,9.88377e-01,9.99999e-01,9.98419e-01,9.89943e-01,9.99997e-01
8.622505932e-01,9.89148e-01,9.99999e-01,9.98997e-01,9.90141e-01,9.99999e-01
8.665618462e-01,9.89719e-01,9.99999e-01,9.99377e-01,9.90335e-01,9.99999e-01
8.708946554e-01,9.89818e-01,9.99999e-01,9.99286e-01,9.90525e-01,9.99999e-01
8.752491287e-01,9.89766e-01,9.99999e-01,9.99046e-01,9.90711e-01,9.99998e-01
8.796253743e-01,9.89580e-01,9.99999e-01,9.98676e-01,9.90894e-01,9.99996e-01
8.840235012e-01,9.89567e-01,9.99999e-01,9.98489e-01,9.91073e-01,9.99990e-01
8.884436187e-01,9.85705e-01,9.99999e-01,9.94433e-01,9.91248e-01,9.99973e-01
8.928858368e-01,9.35048e-01,9.99999e-01,9.43281e-01,9.91420e-01,9.99849e-01
8.973502660e-01,8.94148e-01,9.99999e-01,9.02428e-01,9.91589e-01,9.99228e-01
9.018370173e-01,9.40221e-01,9.99999e-01,9.49188e-01,9.91755e-01,9.98787e-01
9.063462024e-01,9.45959e-01,9.99999e-01,9.54684e-01,9.91917e-01,9.98934e-01
9.108779334e-01,9.22063e-01,9.99999e-01,9.30457e-01,9.92076e-01,9.98892e-01
9.154323231e-01,9.13482e-01,9.99999e-01,9.21476e-01,9.92232e-01,9.99084e-01
9.200094847e-01,9.30450e-01,9.99999e-01,9.38070e-01,9.92384e-01,9.99487e-01
9.246095321e-01,8.96552e-01,9.99999e-01,9.03828e-01,9.92534e-01,9.99409e-01
9.292325798e-01,5.08499e-01,9.99999e-01,5.13710e-01,9.92681e-01,9.97153e-01
9.338787427e-01,4.18960e-01,9.99999e-01,4.26357e-01,9.92825e-01,9.89751e-01
9.385481364e-01,6.95928e-01,9.99999e-01,7.08834e-01,9.92966e-01,9.88745e-01
9.432408771e-01,6.09290e-01,9.99999e-01,6.19539e-01,9.93105e-01,9.90283e-01
9.479570815e-01,5.10809e-01,9.99999e-01,5.18388e-01,9.93241e-01,9.92084e-01
9.526968669e-01,6.03252e-01,9.99999e-01,6.10226e-01,9.93374e-01,9.95164e-01
9.574603512e-01,6.26557e-01,9.99999e-01,6.32208e-01,9.93504e-01,9.97540e-01
9.622476530e-01,6.82863e-01,9.99999e-01,6.88410e-01,9.93632e-01,9.98298e-01
9.670588912e-01,8.00021e-01,9.99999e-01,8.05983e-01,9.93757e-01,9.98835e-01
9.718941857e-01,8.67326e-01,9.99999e-01,8.73414e-01,9.93880e-01,9.99142e-01
9.767536566e-01,8.87751e-01,9.99999e-01,8.93693e-01,9.94001e-01,9.99344e-01
9.816374249e-01,9.14570e-01,9.99999e-01,9.20188e-01,9.94119e-01,9.99772e-01
9.865456120e-01,9.43848e-01,9.99999e-01,9.49365e-01,9.94235e-01,9.99952e-01
9.914783401e-01,9.62896e-01,9.99999e-01,9.68380e-01,9.94348e-01,9.99986e-01
9.964357318e-01,9.77210e-01,9.99999e-01,9.82661e-01,9.94460e-01,9.99991e-01
1.001417910e+00,9.84190e-01,9.99999e-01,9.89575e-01,9.94569e-01,9.99987e-01
1.006425000e+00,9.88729e-01,9.99999e-01,9.94037e-01,9.94676e-01,9.99982e-01
1.011457125e+00,9.91087e-01,9.99999e-01,9.96301e-01,9.94780e-01,9.99984e-01
1.016514411e+00,9.92372e-01,9.99999e-01,9.97485e-01,9.94883e-01,9.99988e-01
1.021596983e+00,9.92979e-01,9.99999e-01,9.97995e-01,9.94984e-01,9.99988e-01
1.026704968e+00,9.93520e-01,9.99999e-01,9.98435e-01,9.95083e-01,9.99992e-01
1.031838492e+00,9.94048e-01,9.99999e-01,9.98864e-01,9.95180e-01,9.99997e-01
1.036997685e+00,9.94602e-01,9.99999e-01,9.99324e-01,9.95275e-01,9.99999e-01
1.042182673e+00,9.94564e-01,9.99999e-01,9.99192e-01,9.95368e-01,9.99999e-01
1.047393587e+00,9.94395e-01,9.99999e-01,9.98930e-01,9.95459e-01,9.99999e-01
1.052630555e+00,9.94087e-01,9.99999e-01,9.98531e-01,9.95549e-01,9.99999e-01
1.057893707e+00,9.93194e-01,9.99999e-01,9.97546e-01,9.95636e-01,9.99998e-01
1.063183176e+00,9.91706e-01,9.99999e-01,9.95968e-01,9.95722e-01,9.99997e-01
1.068499092e+00,9.89094e-01,9.99999e-01,9.93262e-01,9.95807e-01,9.99994e-01
1.073841587e+00,9.88021e-01,9.99999e-01,9.92108e-01,9.95889e-01,9.99989e-01
1.079210795e+00,9.85905e-01,9.99999e-01,9.89920e-01,9.95970e-01,9.99972e-01
1.084606849e+00,9.80807e-01,9.99999e-01,9.84760e-01,9.96050e-01,9.99934e-01
1.090029883e+00,9.74175e-01,9.99999e-01,9.78092e-01,9.96128e-01,9.99865e-01
1.095480033e+00,9.37699e-01,9.99999e-01,9.41500e-01,9.96204e-01,9.99756e-01
1.100957433e+00,8.54525e-01,9.99999e-01,8.58099e-01,9.96279e-01,9.99552e-01
1.106462220e+00,6.75789e-01,9.99999e-01,6.78778e-01,9.96352e-01,9.99240e-01
1.111994531e+00,4.43475e-01,9.99999e-01,4.45964e-01,9.96424e-01,9.97986e-01
1.117554504e+00,2.70176e-01,9.99999e-01,2.73106e-01,9.96494e-01,9.92750e-01
1.123142276e+00,3.83894e-01,9.99999e-01,3.91921e-01,9.96564e-01,9.82894e-01
1.128757988e+00,5.30363e-01,9.99999e-01,5.42883e-01,9.96631e-01,9.80238e-01
1.134401778e+00,2.87264e-01,9.99999e-01,2.93149e-01,9.96698e-01,9.83171e-01
1.140073787e+00,6.80307e-01,9.99999e-01,6.91833e-01,9.96763e-01,9.86531e-01
1.145774156e+00,4.61274e-01,9.99999e-01,4.68522e-01,9.96827e-01,9.87664e-01
1.151503026e+00,4.26650e-01,9.99999e-01,4.30950e-01,9.96889e-01,9.93108e-01
1.157260541e+00,4.88002e-01,9.99999e-01,4.90507e-01,9.96951e-01,9.97934e-01
1.163046844e+00,5.88306e-01,9.99999e-01,5.90416e-01,9.97011e-01,9.99413e-01
1.168862078e+00,6.90033e-01,9.99999e-01,6.92269e-01,9.97070e-01,9.99697e-01
1.174706389e+00,7.94249e-01,9.99999e-01,7.96855e-01,9.97127e-01,9.99599e-01
1.180579921e+00,8.67826e-01,9.99999e-01,8.70802e-01,9.97184e-01,9.99394e-01
1.186482820e+00,9.21592e-01,9.99999e-01,9.24716e-01,9.97240e-01,9.99378e-01
1.192415234e+00,9.52294e-01,9.99999e-01,9.55321e-01,9.97294e-01,9.99534e-01
1.198377311e+00,9.59194e-01,9.99999e-01,9.62167e-01,9.97347e-01,9.99560e-01
1.204369197e+00,9.61305e-01,9.99999e-01,9.64193e-01,9.97400e-01,9.99602e-01
1.210391043e+00,9.63038e-01,9.99999e-01,9.65732e-01,9.97451e-01,9.99757e-01
1.216442998e+00,9.68247e-01,9.99999e-01,9.70815e-01,9.97501e-01,9.99851e-01
1.222525213e+00,9.74709e-01,9.99999e-01,9.77192e-01,9.97550e-01,9.99907e-01
1.228637839e+00,9.81697e-01,9.99999e-01,9.84101e-01,9.97599e-01,9.99956e-01
1.234781029e+00,9.85844e-01,9.99999e-01,9.88181e-01,9.97646e-01,9.99987e-01
1.240954934e+00,9.90214e-01,9.99999e-01,9.92507e-01,9.97693e-01,9.99996e-01
1.247159708e+00,9.91914e-01,9.99999e-01,9.94164e-01,9.97738e-01,9.99997e-01
1.253395507e+00,9.92605e-01,9.99999e-01,9.94813e-01,9.97783e-01,9.99996e-01
1.259662485e+00,9.92898e-01,9.99999e-01,9.95065e-01,9.97826e-01,9.99994e-01
1.265960797e+00,9.90015e-01,9.99999e-01,9.92135e-01,9.97869e-01,9.99991e-01
1.272290601e+00,9.85568e-01,9.99999e-01,9.87643e-01,9.97911e-01,9.99986e-01
1.278652054e+00,9.73564e-01,9.99999e-01,9.75584e-01,9.97952e-01,9.99975e-01
1.285045314e+00,9.54157e-01,9.99999e-01,9.56118e-01,9.97993e-01,9.99954e-01
1.291470541e+00,9.22893e-01,9.99999e-01,9.24784e-01,9.98032e-01,9.99921e-01
1.297927893e+00,8.92879e-01,9.99999e-01,8.94734e-01,9.98071e-01,9.99853e-01
1.304417533e+00,8.75410e-01,9.99999e-01,8.77339e-01,9.98109e-01,9.99690e-01
1.310939621e+00,8.45418e-01,9.99999e-01,8.47524e-01,9.98147e-01,9.99364e-01
1.317494319e+00,8.47681e-01,9.99999e-01,8.50221e-01,9.98183e-01,9.98825e-01
1.324081790e+00,7.81492e-01,9.99999e-01,7.84389e-01,9.98219e-01,9.98083e-01
1.330702199e+00,3.95086e-01,9.99999e-01,3.97088e-01,9.98254e-01,9.96697e-01
1.337355710e+00,8.99275e-02,9.99999e-01,9.06571e-02,9.98289e-01,9.93650e-01
1.344042489e+00,4.29625e-03,9.99999e-01,4.38681e-03,9.98322e-01,9.80999e-01
1.350762701e+00,6.49196e-06,9.99999e-01,6.94407e-06,9.98355e-01,9.36431e-01
1.357516515e+00,3.57462e-08,9.99999e-01,4.34152e-08,9.98388e-01,8.24685e-01
1.364304097e+00,1.51631e-05,9.99999e-01,2.12905e-05,9.98420e-01,7.13327e-01
1.371125618e+00,5.51698e-04,9.99999e-01,7.59790e-04,9.98451e-01,7.27244e-01
1.377981246e+00,1.53507e-03,9.99999e-01,2.02001e-03,9.98481e-01,7.61085e-01
1.384871152e+00,3.15750e-05,9.99999e-01,4.07824e-05,9.98511e-01,7.75384e-01
1.391795508e+00,2.15083e-05,9.99999e-01,2.74508e-05,9.98541e-01,7.84668e-01
1.398754485e+00,1.50223e-04,9.99999e-01,1.83803e-04,9.98569e-01,8.18476e-01
1.405748258e+00,1.44555e-04,9.99999e-01,1.62742e-04,9.98598e-01,8.89495e-01
1.412776999e+00,1.55217e-04,9.99999e-01,1.63967e-04,9.98625e-01,9.47939e-01
1.419840884e+00,2.93822e-04,9.99999e-01,3.01196e-04,9.98652e-01,9.76829e-01
1.426940089e+00,1.77857e-03,9.99999e-01,1.81293e-03,9.98679e-01,9.82347e-01
1.434074789e+00,7.73811e-03,9.99999e-01,7.91269e-03,9.98705e-01,9.79202e-01
1.441245163e+00,2.14840e-02,9.99999e-01,2.20066e-02,9.98731e-01,9.77492e-01
1.448451389e+00,6.67954e-02,9.99999e-01,6.82249e-02,9.98756e-01,9.80265e-01
1.455693646e+00,1.62198e-01,9.99999e-01,1.64934e-01,9.98780e-01,9.84610e-01
1.462972114e+00,2.04920e-01,9.99999e-01,2.08222e-01,9.98804e-01,9.85317e-01
1.470286975e+00,1.58817e-01,9.99999e-01,1.61332e-01,9.98828e-01,9.85565e-01
