#,Wave/freq,Total,N2,H2O,Rayleigh,CIA
4.000000000e-01,1.04771e-01,9.99999e-01,9.99744e-01,1.04798e-01,9.99999e-01
4.020000000e-01,1.09560e-01,9.99999e-01,9.99841e-01,1.09578e-01,9.99999e-01
4.040100000e-01,1.14462e-01,9.99999e-01,9.99932e-01,1.14469e-01,9.99999e-01
4.060300500e-01,1.19475e-01,9.99999e-01,9.99983e-01,1.19477e-01,9.99999e-01
4.080602003e-01,1.24597e-01,9.99999e-01,9.99994e-01,1.24597e-01,9.99999e-01
4.101005013e-01,1.29830e-01,9.99999e-01,9.99999e-01,1.29830e-01,9.99999e-01
4.121510038e-01,1.35171e-01,9.99999e-01,9.99990e-01,1.35172e-01,9.99999e-01
4.142117588e-01,1.40613e-01,9.99999e-01,9.99930e-01,1.40623e-01,9.99999e-01
4.162828176e-01,1.46132e-01,9.99999e-01,9.99684e-01,1.46178e-01,9.99999e-01
4.183642317e-01,1.51809e-01,9.99999e-01,9.99812e-01,1.51837e-01,9.99999e-01
4.204560528e-01,1.57579e-01,9.99999e-01,9.99884e-01,1.57597e-01,9.99999e-01
4.225583331e-01,1.63448e-01,9.99999e-01,9.99956e-01,1.63455e-01,9.99999e-01
4.246711247e-01,1.69403e-01,9.99999e-01,9.99965e-01,1.69409e-01,9.99999e-01
4.267944804e-01,1.75446e-01,9.99999e-01,9.99948e-01,1.75455e-01,9.99999e-01
4.289284528e-01,1.81585e-01,9.99999e-01,9.99960e-01,1.81592e-01,9.99999e-01
4.310730950e-01,1.87812e-01,9.99999e-01,9.99982e-01,1.87815e-01,9.99999e-01
4.332284605e-01,1.94122e-01,9.99999e-01,9.99995e-01,1.94123e-01,9.99999e-01
4.353946028e-01,2.00511e-01,9.99999e-01,9.99997e-01,2.00511e-01,9.99999e-01
4.375715758e-01,2.06971e-01,9.99999e-01,9.99969e-01,2.06977e-01,9.99999e-01
4.397594337e-01,2.13460e-01,9.99999e-01,9.99725e-01,2.13518e-01,9.99999e-01
4.419582309e-01,2.19825e-01,9.99999e-01,9.98612e-01,2.20131e-01,9.99999e-01
4.441680220e-01,2.26561e-01,9.99999e-01,9.98896e-01,2.26811e-01,9.99999e-01
4.463888621e-01,2.33290e-01,9.99999e-01,9.98858e-01,2.33556e-01,9.99999e-01
4.486208064e-01,2.40192e-01,9.99999e-01,9.99287e-01,2.40363e-01,9.99999e-01
4.508639105e-01,2.47145e-01,9.99999e-01,9.99666e-01,2.47227e-01,9.99999e-01
4.531182300e-01,2.54113e-01,9.99999e-01,9.99867e-01,2.54147e-01,9.99999e-01
4.553838212e-01,2.61094e-01,9.99999e-01,9.99910e-01,2.61117e-01,9.99999e-01
4.576607403e-01,2.68125e-01,9.99999e-01,9.99958e-01,2.68136e-01,9.99999e-01
4.599490440e-01,2.75190e-01,9.99999e-01,9.99970e-01,2.75198e-01,9.99999e-01
4.622487892e-01,2.82301e-01,9.99999e-01,9.99994e-01,2.82302e-01,9.99999e-01
4.645600332e-01,2.89438e-01,9.99999e-01,9.99979e-01,2.89444e-01,9.99999e-01
4.668828333e-01,2.96520e-01,9.99999e-01,9.99665e-01,2.96619e-01,9.99999e-01
4.692172475e-01,3.03608e-01,9.99999e-01,9.99283e-01,3.03826e-01,9.99999e-01
4.715633337e-01,3.10915e-01,9.99999e-01,9.99532e-01,3.11060e-01,9.99999e-01
4.739211504e-01,3.18176e-01,9.99999e-01,9.99550e-01,3.18318e-01,9.99999e-01
4.762907561e-01,3.25522e-01,9.99999e-01,9.99766e-01,3.25598e-01,9.99999e-01
4.786722099e-01,3.32863e-01,9.99999e-01,9.99904e-01,3.32895e-01,9.99999e-01
4.810655710e-01,3.40197e-01,9.99999e-01,9.99971e-01,3.40207e-01,9.99999e-01
4.834708988e-01,3.47436e-01,9.99999e-01,9.99730e-01,3.47530e-01,9.99999e-01
4.858882533e-01,3.54681e-01,9.99999e-01,9.99491e-01,3.54861e-01,9.99999e-01
4.883176946e-01,3.62045e-01,9.99999e-01,9.99576e-01,3.62198e-01,9.99999e-01
4.907592831e-01,3.69395e-01,9.99999e-01,9.99615e-01,3.69537e-01,9.99999e-01
4.932130795e-01,3.76773e-01,9.99999e-01,9.99727e-01,3.76875e-01,9.99999e-01
4.956791449e-01,3.84155e-01,9.99999e-01,9.99855e-01,3.84210e-01,9.99999e-01
4.981575406e-01,3.91258e-01,9.99999e-01,9.99282e-01,3.91539e-01,9.99999e-01
5.006483283e-01,3.98116e-01,9.99999e-01,9.98152e-01,3.98858e-01,9.99986e-01
5.031515699e-01,4.02313e-01,9.99999e-01,9.90612e-01,4.06166e-01,9.99900e-01
5.056673278e-01,4.11352e-01,9.99999e-01,9.95015e-01,4.13459e-01,9.99886e-01
5.081956644e-01,4.18059e-01,9.99999e-01,9.93711e-01,4.20735e-01,9.99926e-01
5.107366428e-01,4.26167e-01,9.99999e-01,9.95749e-01,4.27992e-01,9.99985e-01
5.132903260e-01,4.34167e-01,9.99999e-01,9.97565e-01,4.35227e-01,9.99997e-01
5.158567776e-01,4.41982e-01,9.99999e-01,9.98970e-01,4.42437e-01,9.99999e-01
5.184360615e-01,4.49436e-01,9.99999e-01,9.99587e-01,4.49622e-01,9.99999e-01
5.210282418e-01,4.56707e-01,9.99999e-01,9.99846e-01,4.56777e-01,9.99999e-01
5.236333830e-01,4.63614e-01,9.99999e-01,9.99384e-01,4.63902e-01,9.99995e-01
5.262515499e-01,4.70809e-01,9.99999e-01,9.99613e-01,4.70993e-01,9.99993e-01
5.288828077e-01,4.77880e-01,9.99999e-01,9.99647e-01,4.78050e-01,9.99995e-01
5.315272217e-01,4.84919e-01,9.99999e-01,9.99687e-01,4.85070e-01,9.99998e-01
5.341848578e-01,4.91952e-01,9.99999e-01,9.99797e-01,4.92052e-01,9.99999e-01
5.368557821e-01,4.98636e-01,9.99999e-01,9.99285e-01,4.98993e-01,9.99997e-01
5.395400610e-01,5.04585e-01,9.99999e-01,9.97436e-01,5.05892e-01,9.99978e-01
5.422377613e-01,5.10998e-01,9.99999e-01,9.96648e-01,5.12747e-01,9.99939e-01
5.449489501e-01,5.17915e-01,9.99999e-01,9.96901e-01,5.19557e-01,9.99936e-01
5.476736949e-01,5.24851e-01,9.99999e-01,9.97237e-01,5.26321e-01,9.99968e-01
5.504120634e-01,5.31963e-01,9.99999e-01,9.97995e-01,5.33036e-01,9.99991e-01
5.531641237e-01,5.39157e-01,9.99999e-01,9.98990e-01,5.39701e-01,9.99998e-01
5.559299443e-01,5.46050e-01,9.99999e-01,9.99512e-01,5.46316e-01,9.99999e-01
5.587095940e-01,5.52711e-01,9.99999e-01,9.99695e-01,5.52879e-01,9.99999e-01
5.615031420e-01,5.59199e-01,9.99999e-01,9.99660e-01,5.59389e-01,9.99998e-01
5.643106577e-01,5.65628e-01,9.99999e-01,9.99619e-01,5.65845e-01,9.99996e-01
5.671322110e-01,5.69599e-01,9.99999e-01,9.95415e-01,5.72245e-01,9.99958e-01
5.699678720e-01,5.75628e-01,9.99999e-01,9.95007e-01,5.78589e-01,9.99872e-01
5.728177114e-01,5.81798e-01,9.99999e-01,9.94841e-01,5.84877e-01,9.99893e-01
5.756818000e-01,5.88264e-01,9.99999e-01,9.95256e-01,5.91106e-01,9.99934e-01
5.785602090e-01,5.94792e-01,9.99999e-01,9.95859e-01,5.97277e-01,9.99980e-01
5.814530100e-01,6.00878e-01,9.99999e-01,9.95849e-01,6.03388e-01,9.99990e-01
5.843602750e-01,6.06430e-01,9.99999e-01,9.95090e-01,6.09439e-01,9.99971e-01
5.872820764e-01,5.89832e-01,9.99999e-01,9.58692e-01,6.15430e-01,9.99699e-01
5.902184868e-01,5.89480e-01,9.99999e-01,9.49469e-01,6.21359e-01,9.99183e-01
5.931695792e-01,6.04335e-01,9.99999e-01,9.64269e-01,6.27227e-01,9.99205e-01
5.961354271e-01,6.07876e-01,9.99999e-01,9.60720e-01,6.33033e-01,9.99519e-01
5.991161043e-01,6.20247e-01,9.99999e-01,9.71128e-01,6.38776e-01,9.99859e-01
6.021116848e-01,6.33811e-01,9.99999e-01,9.83498e-01,6.44456e-01,9.99982e-01
6.051222432e-01,6.44621e-01,9.99999e-01,9.91613e-01,6.50073e-01,9.99998e-01
6.081478544e-01,6.53252e-01,9.99999e-01,9.96378e-01,6.55627e-01,9.99999e-01
6.111885937e-01,6.60101e-01,9.99999e-01,9.98463e-01,6.61117e-01,9.99999e-01
6.142445367e-01,6.66086e-01,9.99999e-01,9.99314e-01,6.66543e-01,9.99999e-01
6.173157594e-01,6.71651e-01,9.99999e-01,9.99622e-01,6.71905e-01,9.99999e-01
6.204023382e-01,6.76988e-01,9.99999e-01,9.99681e-01,6.77203e-01,9.99999e-01
6.235043498e-01,6.81490e-01,9.99999e-01,9.98614e-01,6.82437e-01,9.99996e-01
6.266218716e-01,6.82471e-01,9.99999e-01,9.92582e-01,6.87607e-01,9.99947e-01
6.297549810e-01,6.90753e-01,9.99999e-01,9.97273e-01,6.92713e-01,9.99895e-01
6.329037559e-01,6.93930e-01,9.99999e-01,9.94601e-01,6.97755e-01,9.99915e-01
6.360682746e-01,6.99479e-01,9.99999e-01,9.95419e-01,7.02732e-01,9.99950e-01
6.392486160e-01,7.03425e-01,9.99999e-01,9.94056e-01,7.07646e-01,9.99977e-01
6.424448591e-01,7.06852e-01,9.99999e-01,9.92112e-01,7.12496e-01,9.99964e-01
6.456570834e-01,6.91294e-01,9.99999e-01,9.63963e-01,7.17283e-01,9.99795e-01
6.488853688e-01,6.99055e-01,9.99999e-01,9.68765e-01,7.22006e-01,9.99426e-01
6.521297956e-01,7.06590e-01,9.99999e-01,9.72839e-01,7.26667e-01,9.99519e-01
6.553904446e-01,7.11285e-01,9.99999e-01,9.73028e-01,7.31264e-01,9.99639e-01
6.586673968e-01,7.18574e-01,9.99999e-01,9.76705e-01,7.35799e-01,9.99881e-01
6.619607338e-01,7.30223e-01,9.99999e-01,9.86450e-01,7.40271e-01,9.99974e-01
6.652705375e-01,7.38800e-01,9.99999e-01,9.92113e-01,7.44682e-01,9.99986e-01
6.685968902e-01,7.46282e-01,9.99999e-01,9.96332e-01,7.49031e-01,9.99997e-01
6.719398746e-01,7.52036e-01,9.99999e-01,9.98297e-01,7.53318e-01,9.99999e-01
6.752995740e-01,7.56849e-01,9.99999e-01,9.99080e-01,7.57545e-01,9.99999e-01
6.786760719e-01,7.60705e-01,9.99999e-01,9.98679e-01,7.61711e-01,9.99997e-01
6.820694522e-01,7.64073e-01,9.99999e-01,9.97733e-01,7.65818e-01,9.99987e-01
6.854797995e-01,7.67596e-01,9.99999e-01,9.97078e-01,7.69864e-01,9.99974e-01
6.889071985e-01,7.68422e-01,9.99999e-01,9.93045e-01,7.73852e-01,9.99936e-01
6.923517345e-01,6.93573e-01,9.99999e-01,8.92227e-01,7.77780e-01,9.99445e-01
6.958134932e-01,7.35106e-01,9.99999e-01,9.41629e-01,7.81651e-01,9.98749e-01
6.992925606e-01,7.41353e-01,9.99999e-01,9.44879e-01,7.85464e-01,9.98900e-01
7.027890234e-01,7.34887e-01,9.99999e-01,9.31943e-01,7.89219e-01,9.99155e-01
7.063029686e-01,7.46884e-01,9.99999e-01,9.42338e-01,7.92918e-01,9.99579e-01
7.098344834e-01,7.52210e-01,9.99999e-01,9.44556e-01,7.96560e-01,9.99751e-01
7.133836558e-01,7.42304e-01,9.99999e-01,9.28167e-01,8.00147e-01,9.99506e-01
7.169505741e-01,4.55330e-01,9.99999e-01,5.68763e-01,8.03679e-01,9.96120e-01
7.205353270e-01,6.01230e-01,9.99999e-01,7.49999e-01,8.07156e-01,9.93166e-01
7.241380036e-01,5.59895e-01,9.99999e-01,6.94836e-01,8.10579e-01,9.94096e-01
7.277586936e-01,5.83323e-01,9.99999e-01,7.20135e-01,8.13948e-01,9.95171e-01
7.313974871e-01,5.70891e-01,9.99999e-01,7.00123e-01,8.17264e-01,9.97735e-01
7.350544745e-01,6.73677e-01,9.99999e-01,8.21674e-01,8.20528e-01,9.99212e-01
7.387297469e-01,7.11684e-01,9.99999e-01,8.64277e-01,8.23741e-01,9.99638e-01
7.424233956e-01,7.69543e-01,9.99999e-01,9.30698e-01,8.26902e-01,9.99929e-01
7.461355126e-01,7.94655e-01,9.99999e-01,9.57413e-01,8.30012e-01,9.99987e-01
7.498661902e-01,8.16314e-01,9.99999e-01,9.79888e-01,8.33072e-01,9.99995e-01
7.536155211e-01,8.27808e-01,9.99999e-01,9.90104e-01,8.36083e-01,9.99996e-01
7.573835987e-01,8.34758e-01,9.99999e-01,9.94891e-01,8.39045e-01,9.99998e-01
7.611705167e-01,8.39284e-01,9.99999e-01,9.96823e-01,8.41958e-01,9.99999e-01
7.649763693e-01,8.43144e-01,9.99999e-01,9.98011e-01,8.44824e-01,9.99999e-01
7.688012511e-01,8.46470e-01,9.99999e-01,9.98615e-01,8.47643e-01,9.99999e-01
7.726452574e-01,8.49447e-01,9.99999e-01,9.98861e-01,8.50415e-01,9.99998e-01
7.765084837e-01,8.51768e-01,9.99999e-01,9.98392e-01,8.53141e-01,9.99997e-01
7.803910261e-01,8.49893e-01,9.99999e-01,9.93078e-01,8.55821e-01,9.99992e-01
7.842929812e-01,8.37885e-01,9.99999e-01,9.76079e-01,8.58457e-01,9.99954e-01
7.882144461e-01,8.18571e-01,9.99999e-01,9.50958e-01,8.61049e-01,9.99692e-01
7.921555184e-01,8.39543e-01,9.99999e-01,9.72723e-01,8.63597e-01,9.99405e-01
7.961162960e-01,8.24737e-01,9.99999e-01,9.52781e-01,8.66103e-01,9.99430e-01
8.000968774e-01,8.20462e-01,9.99999e-01,9.45189e-01,8.68565e-01,9.99393e-01
8.040973618e-01,8.22955e-01,9.99999e-01,9.45308e-01,8.70986e-01,9.99518e-01
8.081178486e-01,7.70723e-01,9.99999e-01,8.82872e-01,8.73366e-01,9.99548e-01
8.121584379e-01,5.28334e-01,9.99999e-01,6.04394e-01,8.75705e-01,9.98227e-01
8.162192301e-01,4.79982e-01,9.99999e-01,5.50333e-01,8.78004e-01,9.93350e-01
8.203003262e-01,6.61278e-01,9.99999e-01,7.57119e-01,8.80263e-01,9.92218e-01
8.244018279e-01,6.00810e-01,9.99999e-01,6.85063e-01,8.82483e-01,9.93801e-01
8.285238370e-01,6.12329e-01,9.99999e-01,6.95546e-01,8.84665e-01,9.95128e-01
8.326664562e-01,6.13993e-01,9.99999e-01,6.93761e-01,8.86809e-01,9.97982e-01
8.368297885e-01,6.79938e-01,9.99999e-01,7.65260e-01,8.88916e-01,9.99538e-01
8.410139374e-01,7.58975e-01,9.99999e-01,8.52066e-01,8.90986e-01,9.99729e-01
8.452190071e-01,8.25072e-01,9.99999e-01,9.24061e-01,8.93019e-01,9.99838e-01
8.494451021e-01,8.54831e-01,9.99999e-01,9.55223e-01,8.95017e-01,9.99870e-01
8.536923276e-01,8.72868e-01,9.99999e-01,9.73201e-01,8.96980e-01,9.99914e-01
8.579607893e-01,8.84010e-01,9.99999e-01,9.83448e-01,8.98909e-01,9.99976e-01
8.622505932e-01,8.91282e-01,9.99999e-01,9.89434e-01,9.00803e-01,9.99996e-01
8.665618462e-01,8.96769e-01,9.99999e-01,9.93471e-01,9.02664e-01,9.99997e-01
8.708946554e-01,8.97741e-01,9.99999e-01,9.92540e-01,9.04491e-01,9.99995e-01
8.752491287e-01,8.97235e-01,9.99999e-01,9.90022e-01,9.06286e-01,9.99989e-01
8.796253743e-01,8.95533e-01,9.99999e-01,9.86246e-01,9.08050e-01,9.99968e-01
8.840235012e-01,8.95412e-01,9.99999e-01,9.84299e-01,9.09781e-01,9.99903e-01
8.884436187e-01,8.61761e-01,9.99999e-01,9.45709e-01,9.11482e-01,9.99725e-01
8.928858368e-01,5.18955e-01,9.99999e-01,5.69211e-01,9.13152e-01,9.98417e-01
8.973502660e-01,3.37406e-01,9.99999e-01,3.71838e-01,9.14792e-01,9.91916e-01
9.018370173e-01,5.44080e-01,9.99999e-01,6.01336e-01,9.16403e-01,9.87320e-01
9.063462024e-01,5.79542e-01,9.99999e-01,6.38436e-01,9.17985e-01,9.88852e-01
9.108779334e-01,4.51378e-01,9.99999e-01,4.96626e-01,9.19538e-01,9.88419e-01
9.154323231e-01,4.05965e-01,9.99999e-01,4.45021e-01,9.21062e-01,9.90418e-01
9.200094847e-01,4.90552e-01,9.99999e-01,5.34601e-01,9.22560e-01,9.94625e-01
9.246095321e-01,3.75998e-01,9.99999e-01,4.09445e-01,9.24030e-01,9.93810e-01
9.292325798e-01,1.46937e-02,9.99999e-01,1.62660e-02,9.25473e-01,9.76076e-01
9.338787427e-01,1.28028e-03,9.99999e-01,1.52668e-03,9.26890e-01,9.04746e-01
9.385481364e-01,5.83505e-02,9.99999e-01,7.08059e-02,9.28281e-01,8.87759e-01
9.432408771e-01,2.80625e-02,9.99999e-01,3.34514e-02,9.29646e-01,9.02388e-01
9.479570815e-01,4.91401e-03,9.99999e-01,5.73846e-03,9.30987e-01,9.19806e-01
9.526968669e-01,1.52258e-02,9.99999e-01,1.71856e-02,9.32303e-01,9.50291e-01
9.574603512e-01,1.90772e-02,9.99999e-01,2.09703e-02,9.33594e-01,9.74433e-01
9.622476530e-01,3.56462e-02,9.99999e-01,3.88189e-02,9.34862e-01,9.82250e-01
9.670588912e-01,1.34659e-01,9.99999e-01,1.45623e-01,9.36107e-01,9.87827e-01
9.718941857e-01,2.43396e-01,9.99999e-01,2.62021e-01,9.37329e-01,9.91024e-01
9.767536566e-01,3.05179e-01,9.99999e-01,3.27416e-01,9.38528e-01,9.93133e-01
9.816374249e-01,4.00883e-01,9.99999e-01,4.27623e-01,9.39704e-01,9.97618e-01
9.865456120e-01,5.48632e-01,9.99999e-01,5.83407e-01,9.40860e-01,9.99503e-01
9.914783401e-01,6.72675e-01,9.99999e-01,7.14195e-01,9.41993e-01,9.99861e-01
9.964357318e-01,7.84813e-01,9.99999e-01,8.32224e-01,9.43106e-01,9.99919e-01
1.001417910e+00,8.45355e-01,9.99999e-01,8.95425e-01,9.44197e-01,9.99876e-01
1.006425000e+00,8.87413e-01,9.99999e-01,9.38957e-01,9.45269e-01,9.99824e-01
1.011457125e+00,9.09824e-01,9.99999e-01,9.61589e-01,9.46320e-01,9.99837e-01
1.016514411e+00,9.22406e-01,9.99999e-01,9.73778e-01,9.47352e-01,9.99884e-01
1.021596983e+00,9.28398e-01,9.99999e-01,9.79058e-01,9.48365e-01,9.99884e-01
1.026704968e+00,9.33751e-01,9.99999e-01,9.83635e-01,9.49359e-01,9.99922e-01
1.031838492e+00,9.38969e-01,9.99999e-01,9.88062e-01,9.50334e-01,9.99978e-01
1.036997685e+00,9.44539e-01,9.99999e-01,9.92905e-01,9.51290e-01,9.99996e-01
1.042182673e+00,9.44201e-01,9.99999e-01,9.91570e-01,9.52229e-01,9.99998e-01
1.047393587e+00,9.42492e-01,9.99999e-01,9.88819e-01,9.53150e-01,9.99997e-01
1.052630555e+00,9.39460e-01,9.99999e-01,9.84706e-01,9.54054e-01,9.99995e-01
1.057893707e+00,9.30720e-01,9.99999e-01,9.74644e-01,9.54941e-01,9.99990e-01
1.063183176e+00,9.16255e-01,9.99999e-01,9.58636e-01,9.55811e-01,9.99977e-01
1.068499092e+00,8.91321e-01,9.99999e-01,9.31740e-01,9.56664e-01,9.99951e-01
1.073841587e+00,8.81875e-01,9.99999e-01,9.21111e-01,9.57502e-01,9.99895e-01
1.079210795e+00,8.61758e-01,9.99999e-01,8.99488e-01,9.58324e-01,9.99716e-01
1.084606849e+00,8.17293e-01,9.99999e-01,8.52700e-01,9.59130e-01,9.99317e-01
1.090029883e+00,7.64974e-01,9.99999e-01,7.98040e-01,9.59921e-01,9.98586e-01
1.095480033e+00,5.19667e-01,9.99999e-01,5.42312e-01,9.60696e-01,9.97445e-01
1.100957433e+00,2.18747e-01,9.99999e-01,2.28589e-01,9.61458e-01,9.95303e-01
1.106462220e+00,3.49866e-02,9.99999e-01,3.66524e-02,9.62204e-01,9.92046e-01
1.111994531e+00,1.10428e-03,9.99999e-01,1.17135e-03,9.62937e-01,9.79024e-01
1.117554504e+00,5.04350e-05,9.99999e-01,5.64999e-05,9.63655e-01,9.26321e-01
1.123142276e+00,1.25774e-03,9.99999e-01,1.56377e-03,9.64360e-01,8.34022e-01
1.128757988e+00,4.88767e-03,9.99999e-01,6.24791e-03,9.65052e-01,8.10616e-01
1.134401778e+00,3.50152e-03,9.99999e-01,4.33446e-03,9.65730e-01,8.36498e-01
1.140073787e+00,2.97339e-02,9.99999e-01,3.54850e-02,9.66396e-01,8.67063e-01
1.145774156e+00,3.25208e-03,9.99999e-01,3.83193e-03,9.67048e-01,8.77595e-01
1.151503026e+00,1.33728e-03,9.99999e-01,1.48620e-03,9.67689e-01,9.29844e-01
1.157260541e+00,1.56664e-03,9.99999e-01,1.65347e-03,9.68317e-01,9.78486e-01
1.163046844e+00,8.17488e-03,9.99999e-01,8.48915e-03,9.68932e-01,9.93854e-01
1.168862078e+00,2.89672e-02,9.99999e-01,2.99723e-02,9.69537e-01,9.96829e-01
1.174706389e+00,1.04607e-01,9.99999e-01,1.08283e-01,9.70129e-01,9.95799e-01
1.180579921e+00,2.41064e-01,9.99999e-01,2.49923e-01,9.70711e-01,9.93655e-01
1.186482820e+00,4.29756e-01,9.99999e-01,4.45363e-01,9.71281e-01,9.93488e-01
1.192415234e+00,5.99674e-01,9.99999e-01,6.20076e-01,9.71840e-01,9.95119e-01
1.198377311e+00,6.47889e-01,9.99999e-01,6.69372e-01,9.72388e-01,9.95389e-01
1.204369197e+00,6.66073e-01,9.99999e-01,6.87475e-01,9.72926e-01,9.95827e-01
1.210391043e+00,6.76303e-01,9.99999e-01,6.96514e-01,9.73454e-01,9.97459e-01
1.216442998e+00,7.14567e-01,9.99999e-01,7.34807e-01,9.73971e-01,9.98443e-01
1.222525213e+00,7.64458e-01,9.99999e-01,7.85237e-01,9.74479e-01,9.99032e-01
1.228637839e+00,8.23688e-01,9.99999e-01,8.45208e-01,9.74977e-01,9.99549e-01
1.234781029e+00,8.60797e-01,9.99999e-01,8.82560e-01,9.75465e-01,9.99871e-01
1.240954934e+00,9.01775e-01,9.99999e-01,9.24036e-01,9.75943e-01,9.99963e-01
1.247159708e+00,9.18014e-01,9.99999e-01,9.40211e-01,9.76413e-01,9.99976e-01
1.253395507e+00,9.24868e-01,9.99999e-01,9.46791e-01,9.76873e-01,9.99969e-01
1.259662485e+00,9.28274e-01,9.99999e-01,9.49856e-01,9.77325e-01,9.99951e-01
1.265960797e+00,9.00245e-01,9.99999e-01,9.20787e-01,9.77768e-01,9.99919e-01
1.272290601e+00,8.66383e-01,9.99999e-01,8.85813e-01,9.78202e-01,9.99857e-01
1.278652054e+00,7.59524e-01,9.99999e-01,7.76305e-01,9.78628e-01,9.99748e-01
1.285045314e+00,6.60465e-01,9.99999e-01,6.74916e-01,9.79046e-01,9.99530e-01
1.291470541e+00,4.46919e-01,9.99999e-01,4.56669e-01,9.79455e-01,9.99177e-01
1.297927893e+00,3.60902e-01,9.99999e-01,3.68886e-01,9.79857e-01,9.98465e-01
1.304417533e+00,2.73535e-01,9.99999e-01,2.79955e-01,9.80251e-01,9.96751e-01
1.310939621e+00,2.29338e-01,9.99999e-01,2.35433e-01,9.80637e-01,9.93342e-01
1.317494319e+00,2.03673e-01,9.99999e-01,2.10195e-01,9.81016e-01,9.87719e-01
1.324081790e+00,1.05786e-01,9.99999e-01,1.09989e-01,9.81387e-01,9.80026e-01
1.330702199e+00,1.08761e-02,9.99999e-01,1.14704e-02,9.81752e-01,9.65809e-01
1.337355710e+00,1.11780e-08,9.99999e-01,1.21703e-08,9.82109e-01,9.35196e-01
1.344042489e+00,1.12835e-12,9.99999e-01,1.40530e-12,9.82459e-01,8.17258e-01
1.350762701e+00,1.15439e-44,9.99999e-01,2.34395e-44,9.82803e-01,5.01117e-01
1.357516515e+00,1.38476e-68,9.99999e-01,1.06998e-67,9.83139e-01,1.31639e-01
1.364304097e+00,7.65475e-42,9.99999e-01,2.71966e-40,9.83470e-01,2.86190e-02
1.371125618e+00,7.99773e-25,9.99999e-01,2.31808e-23,9.83793e-01,3.50698e-02
1.377981246e+00,4.93268e-24,9.99999e-01,8.85750e-23,9.84111e-01,5.65884e-02
1.384871152e+00,4.07685e-34,9.99999e-01,6.19329e-33,9.84422e-01,6.68683e-02
1.391795508e+00,3.82893e-42,9.99999e-01,5.03278e-41,9.84728e-01,7.72596e-02
1.398754485e+00,9.71383e-32,9.99999e-01,8.11111e-31,9.85027e-01,1.21580e-01
1.405748258e+00,2.34322e-31,9.99999e-01,8.15115e-31,9.85321e-01,2.91753e-01
1.412776999e+00,3.59336e-30,9.99998e-01,6.39815e-30,9.85608e-01,5.69825e-01
1.419840884e+00,7.66915e-30,9.99997e-01,9.95448e-30,9.85891e-01,7.81447e-01
1.426940089e+00,3.72398e-19,9.99997e-01,4.55431e-19,9.86167e-01,8.29151e-01
1.434074789e+00,4.02110e-17,9.99997e-01,5.08497e-17,9.86439e-01,8.01651e-01
1.441245163e+00,4.89167e-14,9.99998e-01,6.29895e-14,9.86705e-01,7.87048e-01
1.448451389e+00,3.73396e-09,9.99996e-01,4.66581e-09,9.86966e-01,8.10848e-01
1.455693646e+00,1.85053e-06,9.99998e-01,2.20666e-06,9.87221e-01,8.49464e-01
1.462972114e+00,2.38596e-06,9.99998e-01,2.82302e-06,9.87472e-01,8.55902e-01
1.470286975e+00,5.99740e-07,9.99998e-01,7.07545e-07,9.87718e-01,8.58173e-01
