#,Wave/freq,Total,N2,H2O,Rayleigh,CIA
4.000000000e-01,9.11581e-02,9.99999e-01,9.99729e-01,9.11826e-02,9.99999e-01
4.020000000e-01,9.55883e-02,9.99999e-01,9.99832e-01,9.56043e-02,9.99999e-01
4.040100000e-01,1.00135e-01,9.99999e-01,9.99928e-01,1.00142e-01,9.99999e-01
4.060300500e-01,1.04797e-01,9.99999e-01,9.99983e-01,1.04799e-01,9.99999e-01
4.080602003e-01,1.09573e-01,9.99999e-01,9.99994e-01,1.09574e-01,9.99999e-01
4.101005013e-01,1.14465e-01,9.99999e-01,9.99999e-01,1.14465e-01,9.99999e-01
4.121510038e-01,1.19471e-01,9.99999e-01,9.99989e-01,1.19472e-01,9.99999e-01
4.142117588e-01,1.24584e-01,9.99999e-01,9.99924e-01,1.24593e-01,9.99999e-01
4.162828176e-01,1.29782e-01,9.99999e-01,9.99665e-01,1.29826e-01,9.99999e-01
4.183642317e-01,1.35141e-01,9.99999e-01,9.99800e-01,1.35168e-01,9.99999e-01
4.204560528e-01,1.40601e-01,9.99999e-01,9.99878e-01,1.40618e-01,9.99999e-01
4.225583331e-01,1.46167e-01,9.99999e-01,9.99954e-01,1.46174e-01,9.99999e-01
4.246711247e-01,1.51827e-01,9.99999e-01,9.99963e-01,1.51833e-01,9.99999e-01
4.267944804e-01,1.57584e-01,9.99999e-01,9.99946e-01,1.57592e-01,9.99999e-01
4.289284528e-01,1.63444e-01,9.99999e-01,9.99958e-01,1.63450e-01,9.99999e-01
4.310730950e-01,1.69401e-01,9.99999e-01,9.99982e-01,1.69404e-01,9.99999e-01
4.332284605e-01,1.75450e-01,9.99999e-01,9.99995e-01,1.75450e-01,9.99999e-01
4.353946028e-01,1.81586e-01,9.99999e-01,9.99997e-01,1.81587e-01,9.99999e-01
4.375715758e-01,1.87804e-01,9.99999e-01,9.99965e-01,1.87810e-01,9.99999e-01
4.397594337e-01,1.94060e-01,9.99999e-01,9.99703e-01,1.94117e-01,9.99999e-01
4.419582309e-01,2.00204e-01,9.99999e-01,9.98491e-01,2.00506e-01,9.99999e-01
4.441680220e-01,2.06732e-01,9.99999e-01,9.98841e-01,2.06972e-01,9.99999e-01
4.463888621e-01,2.13254e-01,9.99999e-01,9.98788e-01,2.13513e-01,9.99999e-01
4.486208064e-01,2.19960e-01,9.99999e-01,9.99250e-01,2.20125e-01,9.99999e-01
4.508639105e-01,2.26726e-01,9.99999e-01,9.99648e-01,2.26806e-01,9.99999e-01
4.531182300e-01,2.33518e-01,9.99999e-01,9.99861e-01,2.33551e-01,9.99999e-01
4.553838212e-01,2.40335e-01,9.99999e-01,9.99905e-01,2.40357e-01,9.99999e-01
4.576607403e-01,2.47211e-01,9.99999e-01,9.99956e-01,2.47222e-01,9.99999e-01
4.599490440e-01,2.54133e-01,9.99999e-01,9.99968e-01,2.54141e-01,9.99999e-01
4.622487892e-01,2.61110e-01,9.99999e-01,9.99994e-01,2.61112e-01,9.99999e-01
4.645600332e-01,2.68124e-01,9.99999e-01,9.99978e-01,2.68130e-01,9.99999e-01
4.668828333e-01,2.75094e-01,9.99999e-01,9.99641e-01,2.75193e-01,9.99999e-01
4.692172475e-01,2.82082e-01,9.99999e-01,9.99240e-01,2.82296e-01,9.99999e-01
4.715633337e-01,2.89294e-01,9.99999e-01,9.99502e-01,2.89438e-01,9.99999e-01
4.739211504e-01,2.96473e-01,9.99999e-01,9.99525e-01,2.96613e-01,9.99999e-01
4.762907561e-01,3.03745e-01,9.99999e-01,9.99754e-01,3.03820e-01,9.99999e-01
4.786722099e-01,3.11023e-01,9.99999e-01,9.99899e-01,3.11054e-01,9.99999e-01
4.810655710e-01,3.18303e-01,9.99999e-01,9.99969e-01,3.18313e-01,9.99999e-01
4.834708988e-01,3.25496e-01,9.99999e-01,9.99703e-01,3.25592e-01,9.99999e-01
4.858882533e-01,3.32710e-01,9.99999e-01,9.99462e-01,3.32889e-01,9.99999e-01
4.883176946e-01,3.40047e-01,9.99999e-01,9.99548e-01,3.40201e-01,9.99999e-01
4.907592831e-01,3.47383e-01,9.99999e-01,9.99593e-01,3.47524e-01,9.99999e-01
4.932130795e-01,3.54753e-01,9.99999e-01,9.99711e-01,3.54855e-01,9.99999e-01
4.956791449e-01,3.62137e-01,9.99999e-01,9.99847e-01,3.62192e-01,9.99999e-01
4.981575406e-01,3.69248e-01,9.99999e-01,9.99233e-01,3.69531e-01,9.99999e-01
5.006483283e-01,3.76113e-01,9.99999e-01,9.98006e-01,3.76869e-01,9.99986e-01
5.031515699e-01,3.80324e-01,9.99999e-01,9.90004e-01,3.84204e-01,9.99894e-01
5.056673278e-01,3.89419e-01,9.99999e-01,9.94720e-01,3.91533e-01,9.99879e-01
5.081956644e-01,3.96169e-01,9.99999e-01,9.93344e-01,3.98852e-01,9.99926e-01
5.107366428e-01,4.04329e-01,9.99999e-01,9.95505e-01,4.06160e-01,9.99987e-01
5.132903260e-01,4.12391e-01,9.99999e-01,9.97432e-01,4.13453e-01,9.99997e-01
5.158567776e-01,4.20273e-01,9.99999e-01,9.98916e-01,4.20729e-01,9.99999e-01
5.184360615e-01,4.27800e-01,9.99999e-01,9.99565e-01,4.27986e-01,9.99999e-01
5.210282418e-01,4.35150e-01,9.99999e-01,9.99836e-01,4.35221e-01,9.99999e-01
5.236333830e-01,4.42140e-01,9.99999e-01,9.99345e-01,4.42431e-01,9.99994e-01
5.262515499e-01,4.49429e-01,9.99999e-01,9.99590e-01,4.49616e-01,9.99993e-01
5.288828077e-01,4.56597e-01,9.99999e-01,9.99622e-01,4.56771e-01,9.99995e-01
5.315272217e-01,4.63743e-01,9.99999e-01,9.99671e-01,4.63896e-01,9.99998e-01
5.341848578e-01,4.70885e-01,9.99999e-01,9.99782e-01,4.70988e-01,9.99999e-01
5.368557821e-01,4.77678e-01,9.99999e-01,9.99234e-01,4.78044e-01,9.99997e-01
5.395400610e-01,4.83708e-01,9.99999e-01,9.97229e-01,4.85065e-01,9.99973e-01
5.422377613e-01,4.90272e-01,9.99999e-01,9.96458e-01,4.92046e-01,9.99934e-01
5.449489501e-01,4.97301e-01,9.99999e-01,9.96687e-01,4.98987e-01,9.99932e-01
5.476736949e-01,5.04395e-01,9.99999e-01,9.97084e-01,5.05886e-01,9.99966e-01
5.504120634e-01,5.11652e-01,9.99999e-01,9.97882e-01,5.12742e-01,9.99990e-01
5.531641237e-01,5.18998e-01,9.99999e-01,9.98934e-01,5.19552e-01,9.99998e-01
5.559299443e-01,5.26045e-01,9.99999e-01,9.99486e-01,5.26315e-01,9.99999e-01
5.587095940e-01,5.32858e-01,9.99999e-01,9.99676e-01,5.33030e-01,9.99999e-01
5.615031420e-01,5.39502e-01,9.99999e-01,9.99639e-01,5.39696e-01,9.99998e-01
5.643106577e-01,5.46084e-01,9.99999e-01,9.99587e-01,5.46311e-01,9.99996e-01
5.671322110e-01,5.50078e-01,9.99999e-01,9.94986e-01,5.52874e-01,9.99955e-01
5.699678720e-01,5.56385e-01,9.99999e-01,9.94772e-01,5.59384e-01,9.99864e-01
5.728177114e-01,5.62667e-01,9.99999e-01,9.94504e-01,5.65840e-01,9.99887e-01
5.756818000e-01,5.69322e-01,9.99999e-01,9.94964e-01,5.72240e-01,9.99934e-01
5.785602090e-01,5.76038e-01,9.99999e-01,9.95617e-01,5.78584e-01,9.99980e-01
5.814530100e-01,5.82287e-01,9.99999e-01,9.95590e-01,5.84871e-01,9.99990e-01
5.843602750e-01,5.87963e-01,9.99999e-01,9.94720e-01,5.91101e-01,9.99970e-01
5.872820764e-01,5.70659e-01,9.99999e-01,9.55747e-01,5.97272e-01,9.99681e-01
5.902184868e-01,5.70674e-01,9.99999e-01,9.46611e-01,6.03383e-01,9.99132e-01
5.931695792e-01,5.85830e-01,9.99999e-01,9.62070e-01,6.09434e-01,9.99165e-01
5.961354271e-01,5.89562e-01,9.99999e-01,9.58435e-01,6.15425e-01,9.99520e-01
5.991161043e-01,6.02304e-01,9.99999e-01,9.69483e-01,6.21354e-01,9.99851e-01
6.021116848e-01,6.16288e-01,9.99999e-01,9.82583e-01,6.27222e-01,9.99983e-01
6.051222432e-01,6.27426e-01,9.99999e-01,9.91151e-01,6.33028e-01,9.99998e-01
6.081478544e-01,6.36326e-01,9.99999e-01,9.96171e-01,6.38771e-01,9.99999e-01
6.111885937e-01,6.43409e-01,9.99999e-01,9.98382e-01,6.44451e-01,9.99999e-01
6.142445367e-01,6.49598e-01,9.99999e-01,9.99276e-01,6.50068e-01,9.99999e-01
6.173157594e-01,6.55360e-01,9.99999e-01,9.99600e-01,6.55622e-01,9.99999e-01
6.204023382e-01,6.60887e-01,9.99999e-01,9.99660e-01,6.61112e-01,9.99999e-01
6.235043498e-01,6.65529e-01,9.99999e-01,9.98488e-01,6.66538e-01,9.99995e-01
6.266218716e-01,6.66567e-01,9.99999e-01,9.92117e-01,6.71901e-01,9.99944e-01
6.297549810e-01,6.75162e-01,9.99999e-01,9.97102e-01,6.77199e-01,9.99888e-01
6.329037559e-01,6.78476e-01,9.99999e-01,9.94289e-01,6.82433e-01,9.99910e-01
6.360682746e-01,6.84211e-01,9.99999e-01,9.95119e-01,6.87603e-01,9.99946e-01
6.392486160e-01,6.88321e-01,9.99999e-01,9.93688e-01,6.92709e-01,9.99976e-01
6.424448591e-01,6.91802e-01,9.99999e-01,9.91515e-01,6.97750e-01,9.99957e-01
6.456570834e-01,6.75386e-01,9.99999e-01,9.61319e-01,7.02728e-01,9.99761e-01
6.488853688e-01,6.87270e-01,9.99999e-01,9.71801e-01,7.07642e-01,9.99390e-01
6.521297956e-01,6.91713e-01,9.99999e-01,9.71322e-01,7.12492e-01,9.99497e-01
6.553904446e-01,6.96354e-01,9.99999e-01,9.71189e-01,7.17279e-01,9.99625e-01
6.586673968e-01,7.04154e-01,9.99999e-01,9.75400e-01,7.22003e-01,9.99874e-01
6.619607338e-01,7.16612e-01,9.99999e-01,9.86194e-01,7.26663e-01,9.99972e-01
6.652705375e-01,7.25173e-01,9.99999e-01,9.91688e-01,7.31260e-01,9.99985e-01
6.685968902e-01,7.33191e-01,9.99999e-01,9.96462e-01,7.35795e-01,9.99997e-01
6.719398746e-01,7.38941e-01,9.99999e-01,9.98207e-01,7.40268e-01,9.99999e-01
6.752995740e-01,7.43973e-01,9.99999e-01,9.99053e-01,7.44678e-01,9.99999e-01
6.786760719e-01,7.47964e-01,9.99999e-01,9.98582e-01,7.49027e-01,9.99997e-01
6.820694522e-01,7.51488e-01,9.99999e-01,9.97586e-01,7.53315e-01,9.99987e-01
6.854797995e-01,7.55163e-01,9.99999e-01,9.96886e-01,7.57542e-01,9.99972e-01
6.889071985e-01,7.55882e-01,9.99999e-01,9.92417e-01,7.61708e-01,9.99932e-01
6.923517345e-01,6.77281e-01,9.99999e-01,8.84913e-01,7.65814e-01,9.99411e-01
6.958134932e-01,7.22325e-01,9.99999e-01,9.39477e-01,7.69861e-01,9.98696e-01
6.992925606e-01,7.27379e-01,9.99999e-01,9.41054e-01,7.73849e-01,9.98825e-01
7.027890234e-01,7.21213e-01,9.99999e-01,9.28106e-01,7.77777e-01,9.99103e-01
7.063029686e-01,7.33615e-01,9.99999e-01,9.38968e-01,7.81648e-01,9.99553e-01
7.098344834e-01,7.39162e-01,9.99999e-01,9.41303e-01,7.85461e-01,9.99735e-01
7.133836558e-01,7.27798e-01,9.99999e-01,9.22661e-01,7.89216e-01,9.99475e-01
7.169505741e-01,4.32497e-01,9.99999e-01,5.47709e-01,7.92915e-01,9.95878e-01
7.205353270e-01,5.86251e-01,9.99999e-01,7.41363e-01,7.96557e-01,9.92739e-01
7.241380036e-01,5.39817e-01,9.99999e-01,6.78907e-01,8.00144e-01,9.93727e-01
7.277586936e-01,5.64287e-01,9.99999e-01,7.05752e-01,8.03676e-01,9.94869e-01
7.313974871e-01,5.53328e-01,9.99999e-01,6.87183e-01,8.07153e-01,9.97593e-01
7.350544745e-01,6.58151e-01,9.99999e-01,8.12634e-01,8.10576e-01,9.99162e-01
7.387297469e-01,6.97517e-01,9.99999e-01,8.57286e-01,8.13945e-01,9.99616e-01
7.424233956e-01,7.57717e-01,9.99999e-01,9.27201e-01,8.17262e-01,9.99932e-01
7.461355126e-01,7.83689e-01,9.99999e-01,9.55116e-01,8.20526e-01,9.99988e-01
7.498661902e-01,8.06334e-01,9.99999e-01,9.78876e-01,8.23738e-01,9.99994e-01
7.536155211e-01,8.18260e-01,9.99999e-01,9.89555e-01,8.26899e-01,9.99996e-01
7.573835987e-01,8.25537e-01,9.99999e-01,9.94611e-01,8.30009e-01,9.99998e-01
7.611705167e-01,8.30278e-01,9.99999e-01,9.96648e-01,8.33070e-01,9.99999e-01
7.649763693e-01,8.34322e-01,9.99999e-01,9.97896e-01,8.36080e-01,9.99999e-01
7.688012511e-01,8.37812e-01,9.99999e-01,9.98533e-01,8.39042e-01,9.99999e-01
7.726452574e-01,8.40939e-01,9.99999e-01,9.98792e-01,8.41956e-01,9.99998e-01
7.765084837e-01,8.43363e-01,9.99999e-01,9.98274e-01,8.44822e-01,9.99997e-01
7.803910261e-01,8.41325e-01,9.99999e-01,9.92555e-01,8.47640e-01,9.99992e-01
7.842929812e-01,8.28509e-01,9.99999e-01,9.74289e-01,8.50412e-01,9.99951e-01
7.882144461e-01,8.08502e-01,9.99999e-01,9.48026e-01,8.53138e-01,9.99633e-01
7.921555184e-01,8.30727e-01,9.99999e-01,9.71297e-01,8.55819e-01,9.99363e-01
7.961162960e-01,8.14604e-01,9.99999e-01,9.49491e-01,8.58455e-01,9.99394e-01
8.000968774e-01,8.10481e-01,9.99999e-01,9.41879e-01,8.61047e-01,9.99355e-01
8.040973618e-01,8.13010e-01,9.99999e-01,9.41886e-01,8.63595e-01,9.99508e-01
8.081178486e-01,7.57250e-01,9.99999e-01,8.74755e-01,8.66101e-01,9.99502e-01
8.121584379e-01,5.06069e-01,9.99999e-01,5.83750e-01,8.68563e-01,9.98116e-01
8.162192301e-01,4.61771e-01,9.99999e-01,5.33942e-01,8.70984e-01,9.92935e-01
8.203003262e-01,6.43167e-01,9.99999e-01,7.42562e-01,8.73364e-01,9.91733e-01
8.244018279e-01,5.87737e-01,9.99999e-01,6.75608e-01,8.75703e-01,9.93415e-01
8.285238370e-01,5.93644e-01,9.99999e-01,6.79647e-01,8.78002e-01,9.94824e-01
8.326664562e-01,5.96938e-01,9.99999e-01,6.79593e-01,8.80261e-01,9.97856e-01
8.368297885e-01,6.65111e-01,9.99999e-01,7.54052e-01,8.82481e-01,9.99509e-01
8.410139374e-01,7.46990e-01,9.99999e-01,8.44619e-01,8.84663e-01,9.99713e-01
8.452190071e-01,8.15864e-01,9.99999e-01,9.20158e-01,8.86807e-01,9.99828e-01
8.494451021e-01,8.46677e-01,9.99999e-01,9.52615e-01,8.88914e-01,9.99862e-01
8.536923276e-01,8.65760e-01,9.99999e-01,9.71770e-01,8.90984e-01,9.99916e-01
8.579607893e-01,8.77354e-01,9.99999e-01,9.82478e-01,8.93018e-01,9.99979e-01
8.622505932e-01,8.85035e-01,9.99999e-01,9.88851e-01,8.95016e-01,9.99996e-01
8.665618462e-01,8.90763e-01,9.99999e-01,9.93071e-01,8.96979e-01,9.99997e-01
8.708946554e-01,8.91764e-01,9.99999e-01,9.92057e-01,8.98907e-01,9.99995e-01
8.752491287e-01,8.91237e-01,9.99999e-01,9.89393e-01,9.00801e-01,9.99988e-01
8.796253743e-01,8.89375e-01,9.99999e-01,9.85311e-01,9.02662e-01,9.99966e-01
8.840235012e-01,8.89257e-01,9.99999e-01,9.83258e-01,9.04490e-01,9.99897e-01
8.884436187e-01,8.52398e-01,9.99999e-01,9.40814e-01,9.06285e-01,9.99708e-01
8.928858368e-01,4.96073e-01,9.99999e-01,5.47226e-01,9.08048e-01,9.98318e-01
8.973502660e-01,3.18118e-01,9.99999e-01,3.52693e-01,9.09780e-01,9.91412e-01
9.018370173e-01,5.29479e-01,9.99999e-01,5.88830e-01,9.11481e-01,9.86531e-01
9.063462024e-01,5.58693e-01,9.99999e-01,6.19161e-01,9.13151e-01,9.88158e-01
9.108779334e-01,4.30342e-01,9.99999e-01,4.76285e-01,9.14791e-01,9.87698e-01
9.154323231e-01,3.85132e-01,9.99999e-01,4.24587e-01,9.16402e-01,9.89821e-01
9.200094847e-01,4.71833e-01,9.99999e-01,5.16940e-01,9.17983e-01,9.94290e-01
9.246095321e-01,3.51421e-01,9.99999e-01,3.84701e-01,9.19536e-01,9.93423e-01
9.292325798e-01,1.23445e-02,9.99999e-01,1.38363e-02,9.21061e-01,9.68646e-01
9.338787427e-01,9.74683e-04,9.99999e-01,1.18543e-03,9.22558e-01,8.91235e-01
9.385481364e-01,5.13194e-02,9.99999e-01,6.30286e-02,9.24028e-01,8.81165e-01
9.432408771e-01,2.29104e-02,9.99999e-01,2.76101e-02,9.25472e-01,8.96603e-01
9.479570815e-01,3.66373e-03,9.99999e-01,4.31988e-03,9.26889e-01,9.15004e-01
9.526968669e-01,1.21441e-02,9.99999e-01,1.38107e-02,9.28280e-01,9.47262e-01
9.574603512e-01,1.55594e-02,9.99999e-01,1.72039e-02,9.29645e-01,9.72854e-01
9.622476530e-01,3.05296e-02,9.99999e-01,3.34227e-02,9.30986e-01,9.81149e-01
9.670588912e-01,1.21795e-01,9.99999e-01,1.32350e-01,9.32302e-01,9.87069e-01
9.718941857e-01,2.24305e-01,9.99999e-01,2.42573e-01,9.33593e-01,9.90465e-01
9.767536566e-01,2.84864e-01,9.99999e-01,3.06951e-01,9.34861e-01,9.92705e-01
9.816374249e-01,3.80885e-01,9.99999e-01,4.07914e-01,9.36106e-01,9.97469e-01
9.865456120e-01,5.30381e-01,9.99999e-01,5.66141e-01,9.37328e-01,9.99472e-01
9.914783401e-01,6.57388e-01,9.99999e-01,7.00549e-01,9.38527e-01,9.99853e-01
9.964357318e-01,7.73822e-01,9.99999e-01,8.23545e-01,9.39704e-01,9.99914e-01
1.001417910e+00,8.37091e-01,9.99999e-01,8.89824e-01,9.40859e-01,9.99868e-01
1.006425000e+00,8.80975e-01,9.99999e-01,9.35399e-01,9.41992e-01,9.99813e-01
1.011457125e+00,9.04733e-01,9.99999e-01,9.59478e-01,9.43105e-01,9.99826e-01
1.016514411e+00,9.17899e-01,9.99999e-01,9.72266e-01,9.44197e-01,9.99877e-01
1.021596983e+00,9.24198e-01,9.99999e-01,9.77826e-01,9.45268e-01,9.99879e-01
1.026704968e+00,9.29837e-01,9.99999e-01,9.82655e-01,9.46320e-01,9.99924e-01
1.031838492e+00,9.35380e-01,9.99999e-01,9.87385e-01,9.47351e-01,9.99976e-01
1.036997685e+00,9.41226e-01,9.99999e-01,9.92476e-01,9.48364e-01,9.99995e-01
1.042182673e+00,9.40824e-01,9.99999e-01,9.91012e-01,9.49358e-01,9.99997e-01
1.047393587e+00,9.39035e-01,9.99999e-01,9.88113e-01,9.50333e-01,9.99997e-01
1.052630555e+00,9.35791e-01,9.99999e-01,9.83711e-01,9.51289e-01,9.99995e-01
1.057893707e+00,9.26456e-01,9.99999e-01,9.72943e-01,9.52228e-01,9.99990e-01
1.063183176e+00,9.11160e-01,9.99999e-01,9.55968e-01,9.53149e-01,9.99976e-01
1.068499092e+00,8.84903e-01,9.99999e-01,9.27565e-01,9.54053e-01,9.99948e-01
1.073841587e+00,8.74748e-01,9.99999e-01,9.16124e-01,9.54940e-01,9.99888e-01
1.079210795e+00,8.53952e-01,9.99999e-01,8.93701e-01,9.55810e-01,9.99698e-01
1.084606849e+00,8.06972e-01,9.99999e-01,8.44138e-01,9.56664e-01,9.99275e-01
1.090029883e+00,7.50741e-01,9.99999e-01,7.85241e-01,9.57501e-01,9.98498e-01
1.095480033e+00,4.97168e-01,9.99999e-01,5.20201e-01,9.58323e-01,9.97285e-01
1.100957433e+00,1.98232e-01,9.99999e-01,2.07715e-01,9.59129e-01,9.95010e-01
1.106462220e+00,2.87327e-02,9.99999e-01,3.01874e-02,9.59920e-01,9.91550e-01
1.111994531e+00,7.60301e-04,9.99999e-01,8.09435e-04,9.60696e-01,9.77726e-01
1.117554504e+00,3.11961e-05,9.99999e-01,3.51957e-05,9.61457e-01,9.21892e-01
1.123142276e+00,9.53788e-04,9.99999e-01,1.20210e-03,9.62204e-01,8.24598e-01
1.128757988e+00,3.65837e-03,9.99999e-01,4.74880e-03,9.62936e-01,8.00028e-01
1.134401778e+00,2.93534e-03,9.99999e-01,3.68236e-03,9.63655e-01,8.27199e-01
1.140073787e+00,2.42551e-02,9.99999e-01,2.92679e-02,9.64360e-01,8.59353e-01
1.145774156e+00,2.49698e-03,9.99999e-01,2.97249e-03,9.65051e-01,8.70450e-01
1.151503026e+00,9.43441e-04,9.99999e-01,1.05542e-03,9.65730e-01,9.25619e-01
1.157260541e+00,1.08689e-03,9.99999e-01,1.15098e-03,9.66395e-01,9.77154e-01
1.163046844e+00,6.32809e-03,9.99999e-01,6.58671e-03,9.67048e-01,9.93471e-01
1.168862078e+00,2.43032e-02,9.99999e-01,2.51995e-02,9.67688e-01,9.96631e-01
1.174706389e+00,9.25858e-02,9.99999e-01,9.60438e-02,9.68316e-01,9.95536e-01
1.180579921e+00,2.23370e-01,9.99999e-01,2.32096e-01,9.68932e-01,9.93259e-01
1.186482820e+00,4.09270e-01,9.99999e-01,4.25070e-01,9.69536e-01,9.93081e-01
1.192415234e+00,5.81552e-01,9.99999e-01,6.02582e-01,9.70129e-01,9.94814e-01
1.198377311e+00,6.30620e-01,9.99999e-01,6.52846e-01,9.70710e-01,9.95101e-01
1.204369197e+00,6.49912e-01,9.99999e-01,6.72107e-01,9.71280e-01,9.95566e-01
1.210391043e+00,6.60528e-01,9.99999e-01,6.81506e-01,9.71839e-01,9.97301e-01
1.216442998e+00,7.00920e-01,9.99999e-01,7.22017e-01,9.72388e-01,9.98345e-01
1.222525213e+00,7.52431e-01,9.99999e-01,7.74164e-01,9.72926e-01,9.98972e-01
1.228637839e+00,8.14098e-01,9.99999e-01,8.36698e-01,9.73453e-01,9.99521e-01
1.234781029e+00,8.53233e-01,9.99999e-01,8.76154e-01,9.73971e-01,9.99863e-01
1.240954934e+00,8.96155e-01,9.99999e-01,9.19660e-01,9.74478e-01,9.99961e-01
1.247159708e+00,9.13344e-01,9.99999e-01,9.36808e-01,9.74976e-01,9.99975e-01
1.253395507e+00,9.20446e-01,9.99999e-01,9.43627e-01,9.75464e-01,9.99967e-01
1.259662485e+00,9.23468e-01,9.99999e-01,9.46279e-01,9.75943e-01,9.99948e-01
1.265960797e+00,8.94175e-01,9.99999e-01,9.15853e-01,9.76413e-01,9.99914e-01
1.272290601e+00,8.50831e-01,9.99999e-01,8.71104e-01,9.76873e-01,9.99849e-01
1.278652054e+00,7.45228e-01,9.99999e-01,7.62720e-01,9.77325e-01,9.99733e-01
1.285045314e+00,6.02556e-01,9.99999e-01,6.16563e-01,9.77767e-01,9.99501e-01
1.291470541e+00,4.23426e-01,9.99999e-01,4.33240e-01,9.78202e-01,9.99126e-01
1.297927893e+00,3.05855e-01,9.99999e-01,3.13044e-01,9.78628e-01,9.98369e-01
1.304417533e+00,2.53777e-01,9.99999e-01,2.60106e-01,9.79045e-01,9.96548e-01
1.310939621e+00,1.79916e-01,9.99999e-01,1.84998e-01,9.79455e-01,9.92926e-01
1.317494319e+00,1.86849e-01,9.99999e-01,1.93210e-01,9.79857e-01,9.86955e-01
1.324081790e+00,9.25072e-02,9.99999e-01,9.64159e-02,9.80251e-01,9.78789e-01
1.330702199e+00,8.63704e-03,9.99999e-01,9.13926e-03,9.80637e-01,9.63707e-01
1.337355710e+00,3.96692e-09,9.99999e-01,4.34206e-09,9.81016e-01,9.31281e-01
1.344042489e+00,2.51489e-13,9.99999e-01,3.17547e-13,9.81387e-01,8.06995e-01
1.350762701e+00,2.57012e-47,9.99999e-01,5.45508e-47,9.81751e-01,4.79899e-01
1.357516515e+00,1.00463e-72,9.99999e-01,8.82275e-72,9.82109e-01,1.15943e-01
1.364304097e+00,2.59547e-44,9.99999e-01,1.15315e-42,9.82459e-01,2.29094e-02
1.371125618e+00,3.12264e-26,9.99999e-01,1.11746e-24,9.82802e-01,2.84329e-02
1.377981246e+00,2.06986e-25,9.99999e-01,4.45346e-24,9.83139e-01,4.72744e-02
1.384871152e+00,4.31372e-36,9.99999e-01,7.53533e-35,9.83469e-01,5.82087e-02
1.391795508e+00,1.24448e-44,9.99999e-01,1.90247e-43,9.83793e-01,6.64915e-02
1.398754485e+00,1.39813e-33,9.99999e-01,1.33336e-32,9.84111e-01,1.06551e-01
1.405748258e+00,3.55143e-33,9.99999e-01,1.33569e-32,9.84422e-01,2.70094e-01
1.412776999e+00,6.45890e-32,9.99998e-01,1.19233e-31,9.84727e-01,5.50106e-01
1.419840884e+00,1.43922e-31,9.99997e-01,1.89883e-31,9.85027e-01,7.69473e-01
1.426940089e+00,3.25801e-20,9.99997e-01,4.03493e-20,9.85320e-01,8.19480e-01
1.434074789e+00,4.56249e-18,9.99997e-01,5.85496e-18,9.85608e-01,7.90629e-01
1.441245163e+00,8.48946e-15,9.99998e-01,1.11061e-14,9.85890e-01,7.75334e-01
1.448451389e+00,1.36584e-09,9.99996e-01,1.73065e-09,9.86167e-01,8.00272e-01
1.455693646e+00,9.54009e-07,9.99998e-01,1.15020e-06,9.86439e-01,8.40830e-01
1.462972114e+00,1.15030e-06,9.99998e-01,1.37541e-06,9.86705e-01,8.47603e-01
1.470286975e+00,2.91025e-07,9.99998e-01,3.46906e-07,9.86965e-01,8.49993e-01
