#,Wave/freq,Total,N2,H2O,Rayleigh,CIA
4.000000000e-01,7.07410e-01,9.99999e-01,9.99960e-01,7.07438e-01,9.99999e-01
4.020000000e-01,7.12278e-01,9.99999e-01,9.99975e-01,7.12296e-01,9.99999e-01
4.040100000e-01,7.17078e-01,9.99999e-01,9.99989e-01,7.17085e-01,9.99999e-01
4.060300500e-01,7.21809e-01,9.99999e-01,9.99997e-01,7.21811e-01,9.99999e-01
4.080602003e-01,7.26473e-01,9.99999e-01,9.99998e-01,7.26474e-01,9.99999e-01
4.101005013e-01,7.31074e-01,9.99999e-01,9.99999e-01,7.31074e-01,9.99999e-01
4.121510038e-01,7.35610e-01,9.99999e-01,9.99998e-01,7.35611e-01,9.99999e-01
4.142117588e-01,7.40078e-01,9.99999e-01,9.99988e-01,7.40086e-01,9.99999e-01
4.162828176e-01,7.44463e-01,9.99999e-01,9.99951e-01,7.44499e-01,9.99999e-01
4.183642317e-01,7.48829e-01,9.99999e-01,9.99970e-01,7.48851e-01,9.99999e-01
4.204560528e-01,7.53128e-01,9.99999e-01,9.99981e-01,7.53141e-01,9.99999e-01
4.225583331e-01,7.57365e-01,9.99999e-01,9.99992e-01,7.57370e-01,9.99999e-01
4.246711247e-01,7.61535e-01,9.99999e-01,9.99994e-01,7.61539e-01,9.99999e-01
4.267944804e-01,7.65642e-01,9.99999e-01,9.99991e-01,7.65648e-01,9.99999e-01
4.289284528e-01,7.69692e-01,9.99999e-01,9.99993e-01,7.69697e-01,9.99999e-01
4.310730950e-01,7.73685e-01,9.99999e-01,9.99996e-01,7.73687e-01,9.99999e-01
4.332284605e-01,7.77617e-01,9.99999e-01,9.99998e-01,7.77618e-01,9.99999e-01
4.353946028e-01,7.81491e-01,9.99999e-01,9.99999e-01,7.81491e-01,9.99999e-01
4.375715758e-01,7.85302e-01,9.99999e-01,9.99994e-01,7.85306e-01,9.99999e-01
4.397594337e-01,7.89030e-01,9.99999e-01,9.99957e-01,7.89064e-01,9.99999e-01
4.419582309e-01,7.92594e-01,9.99999e-01,9.99783e-01,7.92765e-01,9.99999e-01
4.441680220e-01,7.96276e-01,9.99999e-01,9.99831e-01,7.96410e-01,9.99999e-01
4.463888621e-01,7.99859e-01,9.99999e-01,9.99824e-01,7.99999e-01,9.99999e-01
4.486208064e-01,8.03445e-01,9.99999e-01,9.99890e-01,8.03533e-01,9.99999e-01
4.508639105e-01,8.06971e-01,9.99999e-01,9.99948e-01,8.07012e-01,9.99999e-01
4.531182300e-01,8.10421e-01,9.99999e-01,9.99979e-01,8.10437e-01,9.99999e-01
4.553838212e-01,8.13798e-01,9.99999e-01,9.99985e-01,8.13809e-01,9.99999e-01
4.576607403e-01,8.17122e-01,9.99999e-01,9.99993e-01,8.17127e-01,9.99999e-01
4.599490440e-01,8.20390e-01,9.99999e-01,9.99995e-01,8.20394e-01,9.99999e-01
4.622487892e-01,8.23607e-01,9.99999e-01,9.99998e-01,8.23608e-01,9.99999e-01
4.645600332e-01,8.26768e-01,9.99999e-01,9.99996e-01,8.26771e-01,9.99999e-01
4.668828333e-01,8.29841e-01,9.99999e-01,9.99948e-01,8.29883e-01,9.99999e-01
4.692172475e-01,8.32854e-01,9.99999e-01,9.99889e-01,8.32946e-01,9.99999e-01
4.715633337e-01,8.35898e-01,9.99999e-01,9.99927e-01,8.35958e-01,9.99999e-01
4.739211504e-01,8.38865e-01,9.99999e-01,9.99930e-01,8.38922e-01,9.99999e-01
4.762907561e-01,8.41808e-01,9.99999e-01,9.99963e-01,8.41838e-01,9.99999e-01
4.786722099e-01,8.44693e-01,9.99999e-01,9.99984e-01,8.44705e-01,9.99999e-01
4.810655710e-01,8.47522e-01,9.99999e-01,9.99995e-01,8.47526e-01,9.99999e-01
4.834708988e-01,8.50264e-01,9.99999e-01,9.99957e-01,8.50300e-01,9.99999e-01
4.858882533e-01,8.52962e-01,9.99999e-01,9.99921e-01,8.53028e-01,9.99999e-01
4.883176946e-01,8.55655e-01,9.99999e-01,9.99934e-01,8.55711e-01,9.99999e-01
4.907592831e-01,8.58298e-01,9.99999e-01,9.99940e-01,8.58348e-01,9.99999e-01
4.932130795e-01,8.60906e-01,9.99999e-01,9.99957e-01,8.60942e-01,9.99999e-01
4.956791449e-01,8.63473e-01,9.99999e-01,9.99977e-01,8.63492e-01,9.99999e-01
4.981575406e-01,8.65903e-01,9.99999e-01,9.99889e-01,8.65999e-01,9.99999e-01
5.006483283e-01,8.68213e-01,9.99999e-01,9.99713e-01,8.68464e-01,9.99997e-01
5.031515699e-01,8.69609e-01,9.99999e-01,9.98548e-01,8.70886e-01,9.99984e-01
5.056673278e-01,8.72583e-01,9.99999e-01,9.99233e-01,8.73267e-01,9.99982e-01
5.081956644e-01,8.74752e-01,9.99999e-01,9.99033e-01,8.75608e-01,9.99988e-01
5.107366428e-01,8.77334e-01,9.99999e-01,9.99347e-01,8.77909e-01,9.99997e-01
5.132903260e-01,8.79841e-01,9.99999e-01,9.99626e-01,8.80169e-01,9.99999e-01
5.158567776e-01,8.82252e-01,9.99999e-01,9.99842e-01,8.82391e-01,9.99999e-01
5.184360615e-01,8.84519e-01,9.99999e-01,9.99936e-01,8.84575e-01,9.99999e-01
5.210282418e-01,8.86699e-01,9.99999e-01,9.99975e-01,8.86720e-01,9.99999e-01
5.236333830e-01,8.88744e-01,9.99999e-01,9.99904e-01,8.88829e-01,9.99998e-01
5.262515499e-01,8.90846e-01,9.99999e-01,9.99940e-01,8.90900e-01,9.99998e-01
5.288828077e-01,8.92886e-01,9.99999e-01,9.99945e-01,8.92935e-01,9.99998e-01
5.315272217e-01,8.94892e-01,9.99999e-01,9.99951e-01,8.94935e-01,9.99999e-01
5.341848578e-01,8.96871e-01,9.99999e-01,9.99968e-01,8.96899e-01,9.99999e-01
5.368557821e-01,8.98730e-01,9.99999e-01,9.99889e-01,8.98829e-01,9.99999e-01
5.395400610e-01,9.00364e-01,9.99999e-01,9.99602e-01,9.00725e-01,9.99996e-01
5.422377613e-01,9.02115e-01,9.99999e-01,9.99485e-01,9.02587e-01,9.99990e-01
5.449489501e-01,9.03975e-01,9.99999e-01,9.99521e-01,9.04416e-01,9.99989e-01
5.476736949e-01,9.05825e-01,9.99999e-01,9.99576e-01,9.06212e-01,9.99994e-01
5.504120634e-01,9.07697e-01,9.99999e-01,9.99692e-01,9.07977e-01,9.99998e-01
5.531641237e-01,9.09569e-01,9.99999e-01,9.99845e-01,9.09710e-01,9.99999e-01
5.559299443e-01,9.11344e-01,9.99999e-01,9.99924e-01,9.11412e-01,9.99999e-01
5.587095940e-01,9.13041e-01,9.99999e-01,9.99952e-01,9.13083e-01,9.99999e-01
5.615031420e-01,9.14677e-01,9.99999e-01,9.99947e-01,9.14725e-01,9.99999e-01
5.643106577e-01,9.16282e-01,9.99999e-01,9.99940e-01,9.16336e-01,9.99998e-01
5.671322110e-01,9.17255e-01,9.99999e-01,9.99282e-01,9.17919e-01,9.99993e-01
5.699678720e-01,9.18753e-01,9.99999e-01,9.99235e-01,9.19473e-01,9.99980e-01
5.728177114e-01,9.20253e-01,9.99999e-01,9.99204e-01,9.20999e-01,9.99983e-01
5.756818000e-01,9.21816e-01,9.99999e-01,9.99270e-01,9.22498e-01,9.99989e-01
5.785602090e-01,9.23379e-01,9.99999e-01,9.99363e-01,9.23969e-01,9.99996e-01
5.814530100e-01,9.24821e-01,9.99999e-01,9.99360e-01,9.25413e-01,9.99998e-01
5.843602750e-01,9.26122e-01,9.99999e-01,9.99238e-01,9.26831e-01,9.99995e-01
5.872820764e-01,9.22106e-01,9.99999e-01,9.93455e-01,9.28223e-01,9.99953e-01
5.902184868e-01,9.22102e-01,9.99999e-01,9.92068e-01,9.29590e-01,9.99873e-01
5.931695792e-01,9.25601e-01,9.99999e-01,9.94393e-01,9.30931e-01,9.99878e-01
5.961354271e-01,9.26455e-01,9.99999e-01,9.93854e-01,9.32248e-01,9.99930e-01
5.991161043e-01,9.29334e-01,9.99999e-01,9.95514e-01,9.33541e-01,9.99978e-01
6.021116848e-01,9.32427e-01,9.99999e-01,9.97452e-01,9.34810e-01,9.99997e-01
6.051222432e-01,9.34849e-01,9.99999e-01,9.98710e-01,9.36056e-01,9.99999e-01
6.081478544e-01,9.36757e-01,9.99999e-01,9.99443e-01,9.37278e-01,9.99999e-01
6.111885937e-01,9.38257e-01,9.99999e-01,9.99764e-01,9.38478e-01,9.99999e-01
6.142445367e-01,9.39557e-01,9.99999e-01,9.99894e-01,9.39656e-01,9.99999e-01
6.173157594e-01,9.40757e-01,9.99999e-01,9.99941e-01,9.40812e-01,9.99999e-01
6.204023382e-01,9.41900e-01,9.99999e-01,9.99950e-01,9.41946e-01,9.99999e-01
6.235043498e-01,9.42856e-01,9.99999e-01,9.99783e-01,9.43060e-01,9.99998e-01
6.266218716e-01,9.43065e-01,9.99999e-01,9.98856e-01,9.44152e-01,9.99991e-01
6.297549810e-01,9.44813e-01,9.99999e-01,9.99580e-01,9.45225e-01,9.99983e-01
6.329037559e-01,9.45481e-01,9.99999e-01,9.99170e-01,9.46277e-01,9.99986e-01
6.360682746e-01,9.46634e-01,9.99999e-01,9.99293e-01,9.47310e-01,9.99991e-01
6.392486160e-01,9.47452e-01,9.99999e-01,9.99084e-01,9.48323e-01,9.99996e-01
6.424448591e-01,9.48151e-01,9.99999e-01,9.98775e-01,9.49317e-01,9.99994e-01
6.456570834e-01,9.44873e-01,9.99999e-01,9.94326e-01,9.50293e-01,9.99968e-01
6.488853688e-01,9.47213e-01,9.99999e-01,9.95842e-01,9.51251e-01,9.99911e-01
6.521297956e-01,9.48087e-01,9.99999e-01,9.95762e-01,9.52190e-01,9.99926e-01
6.553904446e-01,9.49041e-01,9.99999e-01,9.95782e-01,9.53112e-01,9.99945e-01
6.586673968e-01,9.50552e-01,9.99999e-01,9.96386e-01,9.54017e-01,9.99981e-01
6.619607338e-01,9.52905e-01,9.99999e-01,9.97909e-01,9.54904e-01,9.99995e-01
6.652705375e-01,9.54617e-01,9.99999e-01,9.98790e-01,9.55775e-01,9.99997e-01
6.685968902e-01,9.56091e-01,9.99999e-01,9.99437e-01,9.56629e-01,9.99999e-01
6.719398746e-01,9.57218e-01,9.99999e-01,9.99739e-01,9.57467e-01,9.99999e-01
6.752995740e-01,9.58154e-01,9.99999e-01,9.99858e-01,9.58290e-01,9.99999e-01
6.786760719e-01,9.58901e-01,9.99999e-01,9.99795e-01,9.59096e-01,9.99999e-01
6.820694522e-01,9.59551e-01,9.99999e-01,9.99650e-01,9.59888e-01,9.99997e-01
6.854797995e-01,9.60229e-01,9.99999e-01,9.99549e-01,9.60664e-01,9.99995e-01
6.889071985e-01,9.60371e-01,9.99999e-01,9.98911e-01,9.61426e-01,9.99989e-01
6.923517345e-01,9.45109e-01,9.99999e-01,9.82348e-01,9.62173e-01,9.99914e-01
6.958134932e-01,9.53851e-01,9.99999e-01,9.90781e-01,9.62907e-01,9.99810e-01
6.992925606e-01,9.55023e-01,9.99999e-01,9.91240e-01,9.63626e-01,9.99829e-01
7.027890234e-01,9.53785e-01,9.99999e-01,9.89191e-01,9.64331e-01,9.99869e-01
7.063029686e-01,9.56185e-01,9.99999e-01,9.90904e-01,9.65023e-01,9.99934e-01
7.098344834e-01,9.57237e-01,9.99999e-01,9.91271e-01,9.65702e-01,9.99961e-01
7.133836558e-01,9.55079e-01,9.99999e-01,9.88392e-01,9.66368e-01,9.99923e-01
7.169505741e-01,8.80048e-01,9.99999e-01,9.10604e-01,9.67021e-01,9.99402e-01
7.205353270e-01,9.23279e-01,9.99999e-01,9.55139e-01,9.67662e-01,9.98945e-01
7.241380036e-01,9.12606e-01,9.99999e-01,9.43349e-01,9.68291e-01,9.99089e-01
7.277586936e-01,9.18558e-01,9.99999e-01,9.48740e-01,9.68907e-01,9.99255e-01
7.313974871e-01,9.16367e-01,9.99999e-01,9.45512e-01,9.69512e-01,9.99651e-01
7.350544745e-01,9.40747e-01,9.99999e-01,9.69854e-01,9.70105e-01,9.99878e-01
7.387297469e-01,9.49008e-01,9.99999e-01,9.77720e-01,9.70687e-01,9.99944e-01
7.424233956e-01,9.60600e-01,9.99999e-01,9.89037e-01,9.71257e-01,9.99988e-01
7.461355126e-01,9.65346e-01,9.99999e-01,9.93343e-01,9.71817e-01,9.99997e-01
7.498661902e-01,9.69347e-01,9.99999e-01,9.96895e-01,9.72366e-01,9.99998e-01
7.536155211e-01,9.71422e-01,9.99999e-01,9.98476e-01,9.72904e-01,9.99999e-01
7.573835987e-01,9.72669e-01,9.99999e-01,9.99215e-01,9.73432e-01,9.99999e-01
7.611705167e-01,9.73476e-01,9.99999e-01,9.99512e-01,9.73950e-01,9.99999e-01
7.649763693e-01,9.74160e-01,9.99999e-01,9.99694e-01,9.74458e-01,9.99999e-01
7.688012511e-01,9.74749e-01,9.99999e-01,9.99786e-01,9.74956e-01,9.99999e-01
7.726452574e-01,9.75274e-01,9.99999e-01,9.99824e-01,9.75445e-01,9.99999e-01
7.765084837e-01,9.75681e-01,9.99999e-01,9.99751e-01,9.75924e-01,9.99999e-01
7.803910261e-01,9.75344e-01,9.99999e-01,9.98925e-01,9.76394e-01,9.99998e-01
7.842929812e-01,9.73189e-01,9.99999e-01,9.96253e-01,9.76854e-01,9.99992e-01
7.882144461e-01,9.69728e-01,9.99999e-01,9.92291e-01,9.77306e-01,9.99952e-01
7.921555184e-01,9.73522e-01,9.99999e-01,9.95766e-01,9.77750e-01,9.99908e-01
7.961162960e-01,9.70794e-01,9.99999e-01,9.92531e-01,9.78184e-01,9.99911e-01
8.000968774e-01,9.70078e-01,9.99999e-01,9.91373e-01,9.78610e-01,9.99906e-01
8.040973618e-01,9.70510e-01,9.99999e-01,9.91372e-01,9.79028e-01,9.99925e-01
8.081178486e-01,9.60435e-01,9.99999e-01,9.80664e-01,9.79438e-01,9.99930e-01
8.121584379e-01,9.03108e-01,9.99999e-01,9.21940e-01,9.79840e-01,9.99726e-01
8.162192301e-01,8.89181e-01,9.99999e-01,9.08040e-01,9.80235e-01,9.98974e-01
8.203003262e-01,9.33819e-01,9.99999e-01,9.53416e-01,9.80621e-01,9.98799e-01
8.244018279e-01,9.16966e-01,9.99999e-01,9.35618e-01,9.81000e-01,9.99043e-01
8.285238370e-01,9.25724e-01,9.99999e-01,9.44003e-01,9.81372e-01,9.99249e-01
8.326664562e-01,9.25915e-01,9.99999e-01,9.43432e-01,9.81737e-01,9.99689e-01
8.368297885e-01,9.41961e-01,9.99999e-01,9.59202e-01,9.82094e-01,9.99928e-01
8.410139374e-01,9.58388e-01,9.99999e-01,9.75553e-01,9.82445e-01,9.99958e-01
8.452190071e-01,9.70910e-01,9.99999e-01,9.87937e-01,9.82788e-01,9.99974e-01
8.494451021e-01,9.76211e-01,9.99999e-01,9.92985e-01,9.83125e-01,9.99979e-01
8.536923276e-01,9.79360e-01,9.99999e-01,9.95846e-01,9.83456e-01,9.99987e-01
8.579607893e-01,9.81260e-01,9.99999e-01,9.97440e-01,9.83780e-01,9.99996e-01
8.622505932e-01,9.82497e-01,9.99999e-01,9.98373e-01,9.84098e-01,9.99998e-01
8.665618462e-01,9.83419e-01,9.99999e-01,9.98993e-01,9.84409e-01,9.99999e-01
8.708946554e-01,9.83581e-01,9.99999e-01,9.98848e-01,9.84715e-01,9.99998e-01
8.752491287e-01,9.83496e-01,9.99999e-01,9.98459e-01,9.85015e-01,9.99997e-01
8.796253743e-01,9.83203e-01,9.99999e-01,9.97866e-01,9.85308e-01,9.99994e-01
8.840235012e-01,9.83181e-01,9.99999e-01,9.97563e-01,9.85597e-01,9.99984e-01
8.884436187e-01,9.77116e-01,9.99999e-01,9.91152e-01,9.85879e-01,9.99957e-01
8.928858368e-01,8.97950e-01,9.99999e-01,9.10776e-01,9.86156e-01,9.99756e-01
8.973502660e-01,8.35224e-01,9.99999e-01,8.47773e-01,9.86428e-01,9.98752e-01
9.018370173e-01,9.05150e-01,9.99999e-01,9.19157e-01,9.86694e-01,9.98039e-01
9.063462024e-01,9.14752e-01,9.99999e-01,9.28440e-01,9.86955e-01,9.98277e-01
9.108779334e-01,8.77711e-01,9.99999e-01,8.90675e-01,9.87211e-01,9.98209e-01
9.154323231e-01,8.64338e-01,9.99999e-01,8.76609e-01,9.87462e-01,9.98520e-01
9.200094847e-01,8.90280e-01,9.99999e-01,9.02106e-01,9.87708e-01,9.99171e-01
9.246095321e-01,8.42223e-01,9.99999e-01,8.53309e-01,9.87949e-01,9.99045e-01
9.292325798e-01,3.49878e-01,9.99999e-01,3.55382e-01,9.88186e-01,9.96283e-01
9.338787427e-01,2.57340e-01,9.99999e-01,2.64394e-01,9.88418e-01,9.84724e-01
9.385481364e-01,5.65749e-01,9.99999e-01,5.82818e-01,9.88645e-01,9.81859e-01
9.432408771e-01,4.66822e-01,9.99999e-01,4.79592e-01,9.88868e-01,9.84329e-01
9.479570815e-01,3.56785e-01,9.99999e-01,3.65388e-01,9.89087e-01,9.87227e-01
9.526968669e-01,4.54225e-01,9.99999e-01,4.62750e-01,9.89301e-01,9.92190e-01
9.574603512e-01,4.77027e-01,9.99999e-01,4.84007e-01,9.89512e-01,9.96024e-01
9.622476530e-01,5.43958e-01,9.99999e-01,5.51125e-01,9.89718e-01,9.97249e-01
9.670588912e-01,6.99805e-01,9.99999e-01,7.08263e-01,9.89920e-01,9.98118e-01
9.718941857e-01,7.95032e-01,9.99999e-01,8.04081e-01,9.90118e-01,9.98614e-01
9.767536566e-01,8.25361e-01,9.99999e-01,8.34318e-01,9.90312e-01,9.98940e-01
9.816374249e-01,8.65521e-01,9.99999e-01,8.74140e-01,9.90503e-01,9.99632e-01
9.865456120e-01,9.10676e-01,9.99999e-01,9.19304e-01,9.90689e-01,9.99923e-01
9.914783401e-01,9.40601e-01,9.99999e-01,9.49285e-01,9.90872e-01,9.99978e-01
9.964357318e-01,9.63347e-01,9.99999e-01,9.72056e-01,9.91052e-01,9.99987e-01
1.001417910e+00,9.74514e-01,9.99999e-01,9.83156e-01,9.91228e-01,9.99980e-01
1.006425000e+00,9.81822e-01,9.99999e-01,9.90364e-01,9.91400e-01,9.99972e-01
1.011457125e+00,9.85605e-01,9.99999e-01,9.94009e-01,9.91569e-01,9.99974e-01
1.016514411e+00,9.87681e-01,9.99999e-01,9.95929e-01,9.91735e-01,9.99981e-01
1.021596983e+00,9.88662e-01,9.99999e-01,9.96755e-01,9.91898e-01,9.99981e-01
1.026704968e+00,9.89535e-01,9.99999e-01,9.97468e-01,9.92057e-01,9.99987e-01
1.031838492e+00,9.90385e-01,9.99999e-01,9.98159e-01,9.92213e-01,9.99996e-01
1.036997685e+00,9.91282e-01,9.99999e-01,9.98906e-01,9.92367e-01,9.99998e-01
1.042182673e+00,9.91223e-01,9.99999e-01,9.98696e-01,9.92517e-01,9.99999e-01
1.047393587e+00,9.90949e-01,9.99999e-01,9.98271e-01,9.92664e-01,9.99999e-01
1.052630555e+00,9.90455e-01,9.99999e-01,9.97629e-01,9.92808e-01,9.99998e-01
1.057893707e+00,9.89022e-01,9.99999e-01,9.96045e-01,9.92950e-01,9.99998e-01
1.063183176e+00,9.86630e-01,9.99999e-01,9.93499e-01,9.93089e-01,9.99996e-01
1.068499092e+00,9.82428e-01,9.99999e-01,9.89135e-01,9.93225e-01,9.99992e-01
1.073841587e+00,9.80729e-01,9.99999e-01,9.87301e-01,9.93358e-01,9.99983e-01
1.079210795e+00,9.77301e-01,9.99999e-01,9.83748e-01,9.93489e-01,9.99955e-01
1.084606849e+00,9.69179e-01,9.99999e-01,9.75507e-01,9.93617e-01,9.99894e-01
1.090029883e+00,9.58785e-01,9.99999e-01,9.65031e-01,9.93743e-01,9.99782e-01
1.095480033e+00,9.01666e-01,9.99999e-01,9.07587e-01,9.93866e-01,9.99606e-01
1.100957433e+00,7.77163e-01,9.99999e-01,7.82430e-01,9.93987e-01,9.99275e-01
1.106462220e+00,5.37937e-01,9.99999e-01,5.41791e-01,9.94105e-01,9.98772e-01
1.111994531e+00,2.78021e-01,9.99999e-01,2.80550e-01,9.94221e-01,9.96745e-01
1.117554504e+00,1.30015e-01,9.99999e-01,1.32303e-01,9.94335e-01,9.88299e-01
1.123142276e+00,2.31805e-01,9.99999e-01,2.39696e-01,9.94446e-01,9.72476e-01
1.128757988e+00,3.70899e-01,9.99999e-01,3.85165e-01,9.94556e-01,9.68229e-01
1.134401778e+00,1.76781e-01,9.99999e-01,1.82676e-01,9.94663e-01,9.72920e-01
1.140073787e+00,5.42850e-01,9.99999e-01,5.57807e-01,9.94768e-01,9.78304e-01
1.145774156e+00,2.99723e-01,9.99999e-01,3.07377e-01,9.94871e-01,9.80122e-01
1.151503026e+00,2.67445e-01,9.99999e-01,2.71819e-01,9.94972e-01,9.88876e-01
1.157260541e+00,3.20485e-01,9.99999e-01,3.23150e-01,9.95071e-01,9.96660e-01
1.163046844e+00,4.29190e-01,9.99999e-01,4.31682e-01,9.95168e-01,9.99052e-01
1.168862078e+00,5.50215e-01,9.99999e-01,5.53103e-01,9.95264e-01,9.99511e-01
1.174706389e+00,6.89917e-01,9.99999e-01,6.93583e-01,9.95357e-01,9.99352e-01
1.180579921e+00,7.95384e-01,9.99999e-01,7.99802e-01,9.95448e-01,9.99021e-01
1.186482820e+00,8.76272e-01,9.99999e-01,8.81084e-01,9.95538e-01,9.98995e-01
1.192415234e+00,9.23957e-01,9.99999e-01,9.28713e-01,9.95626e-01,9.99247e-01
1.198377311e+00,9.34895e-01,9.99999e-01,9.39587e-01,9.95712e-01,9.99289e-01
1.204369197e+00,9.38241e-01,9.99999e-01,9.42807e-01,9.95797e-01,9.99356e-01
1.210391043e+00,9.40933e-01,9.99999e-01,9.45195e-01,9.95880e-01,9.99608e-01
1.216442998e+00,9.49106e-01,9.99999e-01,9.53183e-01,9.95961e-01,9.99760e-01
1.222525213e+00,9.59384e-01,9.99999e-01,9.63340e-01,9.96040e-01,9.99850e-01
1.228637839e+00,9.70550e-01,9.99999e-01,9.74398e-01,9.96118e-01,9.99930e-01
1.234781029e+00,9.77177e-01,9.99999e-01,9.80928e-01,9.96195e-01,9.99979e-01
1.240954934e+00,9.84210e-01,9.99999e-01,9.87900e-01,9.96270e-01,9.99993e-01
1.247159708e+00,9.86940e-01,9.99999e-01,9.90565e-01,9.96343e-01,9.99995e-01
1.253395507e+00,9.88062e-01,9.99999e-01,9.91620e-01,9.96416e-01,9.99994e-01
1.259662485e+00,9.88547e-01,9.99999e-01,9.92039e-01,9.96486e-01,9.99992e-01
1.265960797e+00,9.83894e-01,9.99999e-01,9.87306e-01,9.96555e-01,9.99987e-01
1.272290601e+00,9.76806e-01,9.99999e-01,9.80136e-01,9.96623e-01,9.99977e-01
1.278652054e+00,9.57693e-01,9.99999e-01,9.60910e-01,9.96690e-01,9.99960e-01
1.285045314e+00,9.27198e-01,9.99999e-01,9.30283e-01,9.96755e-01,9.99927e-01
1.291470541e+00,8.78809e-01,9.99999e-01,8.81724e-01,9.96819e-01,9.99873e-01
1.297927893e+00,8.46053e-01,9.99999e-01,8.48899e-01,9.96882e-01,9.99763e-01
1.304417533e+00,8.07397e-01,9.99999e-01,8.10277e-01,9.96943e-01,9.99499e-01
1.310939621e+00,7.82764e-01,9.99999e-01,7.85922e-01,9.97004e-01,9.98972e-01
1.317494319e+00,7.66576e-01,9.99999e-01,7.70296e-01,9.97063e-01,9.98101e-01
1.324081790e+00,6.74525e-01,9.99999e-01,6.78574e-01,9.97121e-01,9.96901e-01
1.330702199e+00,2.63733e-01,9.99999e-01,2.65898e-01,9.97177e-01,9.94664e-01
1.337355710e+00,2.57832e-02,9.99999e-01,2.61225e-02,9.97233e-01,9.89750e-01
1.344042489e+00,7.97246e-04,9.99999e-01,8.24609e-04,9.97288e-01,9.69445e-01
1.350762701e+00,1.55632e-08,9.99999e-01,1.73539e-08,9.97341e-01,8.99206e-01
1.357516515e+00,2.85980e-12,9.99999e-01,3.91635e-12,9.97393e-01,7.32127e-01
1.364304097e+00,4.86490e-08,9.99999e-01,8.42376e-08,9.97445e-01,5.78999e-01
1.371125618e+00,1.56905e-05,9.99999e-01,2.63313e-05,9.97495e-01,5.97383e-01
1.377981246e+00,5.47362e-05,9.99999e-01,8.53367e-05,9.97545e-01,6.42992e-01
1.384871152e+00,3.86252e-07,9.99999e-01,5.84298e-07,9.97593e-01,6.62646e-01
1.391795508e+00,6.30508e-08,9.99999e-01,9.35562e-08,9.97641e-01,6.75527e-01
1.398754485e+00,1.71711e-06,9.99999e-01,2.37971e-06,9.97687e-01,7.23232e-01
1.405748258e+00,1.99418e-06,9.99999e-01,2.41555e-06,9.97733e-01,8.27436e-01
1.412776999e+00,2.13516e-06,9.99999e-01,2.33322e-06,9.97777e-01,9.17149e-01
1.419840884e+00,4.72294e-06,9.99999e-01,4.91618e-06,9.97821e-01,9.62788e-01
1.426940089e+00,1.01937e-04,9.99999e-01,1.05141e-04,9.97864e-01,9.71601e-01
1.434074789e+00,6.99732e-04,9.99999e-01,7.25447e-04,9.97906e-01,9.66575e-01
1.441245163e+00,2.78948e-03,9.99999e-01,2.90006e-03,9.97948e-01,9.63846e-01
1.448451389e+00,1.66892e-02,9.99999e-01,1.72708e-02,9.97988e-01,9.68272e-01
1.455693646e+00,6.09978e-02,9.99999e-01,6.26709e-02,9.98028e-01,9.75224e-01
1.462972114e+00,8.43199e-02,9.99999e-01,8.65289e-02,9.98067e-01,9.76356e-01
1.470286975e+00,5.72224e-02,9.99999e-01,5.86953e-02,9.98105e-01,9.76754e-01
