#,Wave/freq,Total,N2,H2O,Rayleigh,CIA
4.000000000e-01,3.64188e-01,9.99999e-01,9.99885e-01,3.64229e-01,9.99999e-01
4.020000000e-01,3.71550e-01,9.99999e-01,9.99928e-01,3.71576e-01,9.99999e-01
4.040100000e-01,3.78903e-01,9.99999e-01,9.99969e-01,3.78914e-01,9.99999e-01
4.060300500e-01,3.86245e-01,9.99999e-01,9.99992e-01,3.86247e-01,9.99999e-01
4.080602003e-01,3.93573e-01,9.99999e-01,9.99997e-01,3.93574e-01,9.99999e-01
4.101005013e-01,4.00890e-01,9.99999e-01,9.99999e-01,4.00890e-01,9.99999e-01
4.121510038e-01,4.08192e-01,9.99999e-01,9.99995e-01,4.08194e-01,9.99999e-01
4.142117588e-01,4.15470e-01,9.99999e-01,9.99968e-01,4.15483e-01,9.99999e-01
4.162828176e-01,4.22694e-01,9.99999e-01,9.99858e-01,4.22754e-01,9.99999e-01
4.183642317e-01,4.29968e-01,9.99999e-01,9.99915e-01,4.30004e-01,9.99999e-01
4.204560528e-01,4.37210e-01,9.99999e-01,9.99947e-01,4.37233e-01,9.99999e-01
4.225583331e-01,4.44428e-01,9.99999e-01,9.99980e-01,4.44436e-01,9.99999e-01
4.246711247e-01,4.51606e-01,9.99999e-01,9.99984e-01,4.51613e-01,9.99999e-01
4.267944804e-01,4.58749e-01,9.99999e-01,9.99976e-01,4.58760e-01,9.99999e-01
4.289284528e-01,4.65867e-01,9.99999e-01,9.99982e-01,4.65876e-01,9.99999e-01
4.310730950e-01,4.72954e-01,9.99999e-01,9.99992e-01,4.72958e-01,9.99999e-01
4.332284605e-01,4.80004e-01,9.99999e-01,9.99997e-01,4.80005e-01,9.99999e-01
4.353946028e-01,4.87014e-01,9.99999e-01,9.99998e-01,4.87014e-01,9.99999e-01
4.375715758e-01,4.93978e-01,9.99999e-01,9.99985e-01,4.93985e-01,9.99999e-01
4.397594337e-01,5.00853e-01,9.99999e-01,9.99877e-01,5.00914e-01,9.99999e-01
4.419582309e-01,5.07486e-01,9.99999e-01,9.99378e-01,5.07801e-01,9.99999e-01
4.441680220e-01,5.14390e-01,9.99999e-01,9.99505e-01,5.14644e-01,9.99999e-01
4.463888621e-01,5.21175e-01,9.99999e-01,9.99488e-01,5.21441e-01,9.99999e-01
4.486208064e-01,5.28023e-01,9.99999e-01,9.99680e-01,5.28191e-01,9.99999e-01
4.508639105e-01,5.34813e-01,9.99999e-01,9.99850e-01,5.34893e-01,9.99999e-01
4.531182300e-01,5.41513e-01,9.99999e-01,9.99940e-01,5.41545e-01,9.99999e-01
4.553838212e-01,5.48123e-01,9.99999e-01,9.99959e-01,5.48145e-01,9.99999e-01
4.576607403e-01,5.54683e-01,9.99999e-01,9.99981e-01,5.54694e-01,9.99999e-01
4.599490440e-01,5.61181e-01,9.99999e-01,9.99986e-01,5.61188e-01,9.99999e-01
4.622487892e-01,5.67628e-01,9.99999e-01,9.99997e-01,5.67629e-01,9.99999e-01
4.645600332e-01,5.74009e-01,9.99999e-01,9.99990e-01,5.74014e-01,9.99999e-01
4.668828333e-01,5.80256e-01,9.99999e-01,9.99850e-01,5.80342e-01,9.99999e-01
4.692172475e-01,5.86425e-01,9.99999e-01,9.99678e-01,5.86613e-01,9.99999e-01
4.715633337e-01,5.92702e-01,9.99999e-01,9.99790e-01,5.92826e-01,9.99999e-01
4.739211504e-01,5.98860e-01,9.99999e-01,9.99798e-01,5.98981e-01,9.99999e-01
4.762907561e-01,6.05012e-01,9.99999e-01,9.99895e-01,6.05075e-01,9.99999e-01
4.786722099e-01,6.11084e-01,9.99999e-01,9.99956e-01,6.11110e-01,9.99999e-01
4.810655710e-01,6.17076e-01,9.99999e-01,9.99986e-01,6.17083e-01,9.99999e-01
4.834708988e-01,6.22921e-01,9.99999e-01,9.99879e-01,6.22996e-01,9.99999e-01
4.858882533e-01,6.28703e-01,9.99999e-01,9.99771e-01,6.28846e-01,9.99999e-01
4.883176946e-01,6.34515e-01,9.99999e-01,9.99810e-01,6.34635e-01,9.99999e-01
4.907592831e-01,6.40250e-01,9.99999e-01,9.99827e-01,6.40360e-01,9.99999e-01
4.932130795e-01,6.45944e-01,9.99999e-01,9.99877e-01,6.46023e-01,9.99999e-01
4.956791449e-01,6.51580e-01,9.99999e-01,9.99935e-01,6.51623e-01,9.99999e-01
4.981575406e-01,6.56947e-01,9.99999e-01,9.99678e-01,6.57158e-01,9.99999e-01
5.006483283e-01,6.62078e-01,9.99999e-01,9.99171e-01,6.62631e-01,9.99993e-01
5.031515699e-01,6.65192e-01,9.99999e-01,9.95781e-01,6.68039e-01,9.99955e-01
5.056673278e-01,6.71844e-01,9.99999e-01,9.97764e-01,6.73384e-01,9.99948e-01
5.081956644e-01,6.76728e-01,9.99999e-01,9.97179e-01,6.78664e-01,9.99966e-01
5.107366428e-01,6.82572e-01,9.99999e-01,9.98093e-01,6.83880e-01,9.99993e-01
5.132903260e-01,6.88280e-01,9.99999e-01,9.98908e-01,6.89032e-01,9.99998e-01
5.158567776e-01,6.93800e-01,9.99999e-01,9.99538e-01,6.94120e-01,9.99999e-01
5.184360615e-01,6.99015e-01,9.99999e-01,9.99815e-01,6.99144e-01,9.99999e-01
5.210282418e-01,7.04056e-01,9.99999e-01,9.99930e-01,7.04104e-01,9.99999e-01
5.236333830e-01,7.08804e-01,9.99999e-01,9.99723e-01,7.09000e-01,9.99997e-01
5.262515499e-01,7.13708e-01,9.99999e-01,9.99826e-01,7.13833e-01,9.99996e-01
5.288828077e-01,7.18487e-01,9.99999e-01,9.99841e-01,7.18602e-01,9.99997e-01
5.315272217e-01,7.23206e-01,9.99999e-01,9.99859e-01,7.23308e-01,9.99999e-01
5.341848578e-01,7.27884e-01,9.99999e-01,9.99908e-01,7.27950e-01,9.99999e-01
5.368557821e-01,7.32296e-01,9.99999e-01,9.99679e-01,7.32530e-01,9.99998e-01
5.395400610e-01,7.36194e-01,9.99999e-01,9.98850e-01,7.37048e-01,9.99989e-01
5.422377613e-01,7.40369e-01,9.99999e-01,9.98497e-01,7.41503e-01,9.99972e-01
5.449489501e-01,7.44840e-01,9.99999e-01,9.98611e-01,7.45896e-01,9.99971e-01
5.476736949e-01,7.49289e-01,9.99999e-01,9.98761e-01,7.50228e-01,9.99985e-01
5.504120634e-01,7.53818e-01,9.99999e-01,9.99101e-01,7.54499e-01,9.99995e-01
5.531641237e-01,7.58366e-01,9.99999e-01,9.99547e-01,7.58709e-01,9.99998e-01
5.559299443e-01,7.62692e-01,9.99999e-01,9.99781e-01,7.62858e-01,9.99999e-01
5.587095940e-01,7.66844e-01,9.99999e-01,9.99863e-01,7.66948e-01,9.99999e-01
5.615031420e-01,7.70861e-01,9.99999e-01,9.99847e-01,7.70978e-01,9.99999e-01
5.643106577e-01,7.74816e-01,9.99999e-01,9.99829e-01,7.74949e-01,9.99998e-01
5.671322110e-01,7.77244e-01,9.99999e-01,9.97941e-01,7.78862e-01,9.99980e-01
5.699678720e-01,7.80918e-01,9.99999e-01,9.97759e-01,7.82716e-01,9.99942e-01
5.728177114e-01,7.84657e-01,9.99999e-01,9.97686e-01,7.86513e-01,9.99952e-01
5.756818000e-01,7.88549e-01,9.99999e-01,9.97873e-01,7.90253e-01,9.99970e-01
5.785602090e-01,7.92455e-01,9.99999e-01,9.98142e-01,7.93936e-01,9.99990e-01
5.814530100e-01,7.96075e-01,9.99999e-01,9.98138e-01,7.97563e-01,9.99995e-01
5.843602750e-01,7.99360e-01,9.99999e-01,9.97796e-01,8.01134e-01,9.99987e-01
5.872820764e-01,7.89404e-01,9.99999e-01,9.81183e-01,8.04650e-01,9.99865e-01
5.902184868e-01,7.89251e-01,9.99999e-01,9.77016e-01,8.08112e-01,9.99633e-01
5.931695792e-01,7.98071e-01,9.99999e-01,9.83777e-01,8.11520e-01,9.99643e-01
5.961354271e-01,8.00181e-01,9.99999e-01,9.82178e-01,8.14875e-01,9.99784e-01
5.991161043e-01,8.07452e-01,9.99999e-01,9.86952e-01,8.18177e-01,9.99936e-01
6.021116848e-01,8.15316e-01,9.99999e-01,9.92569e-01,8.21426e-01,9.99991e-01
6.051222432e-01,8.21517e-01,9.99999e-01,9.96232e-01,8.24624e-01,9.99998e-01
6.081478544e-01,8.26426e-01,9.99999e-01,9.98374e-01,8.27771e-01,9.99999e-01
6.111885937e-01,8.30295e-01,9.99999e-01,9.99310e-01,8.30867e-01,9.99999e-01
6.142445367e-01,8.33657e-01,9.99999e-01,9.99692e-01,8.33914e-01,9.99999e-01
6.173157594e-01,8.36769e-01,9.99999e-01,9.99830e-01,8.36911e-01,9.99999e-01
6.204023382e-01,8.39739e-01,9.99999e-01,9.99856e-01,8.39859e-01,9.99999e-01
6.235043498e-01,8.42235e-01,9.99999e-01,9.99378e-01,8.42759e-01,9.99997e-01
6.266218716e-01,8.42777e-01,9.99999e-01,9.96669e-01,8.45612e-01,9.99976e-01
6.297549810e-01,8.47341e-01,9.99999e-01,9.98777e-01,8.48417e-01,9.99952e-01
6.329037559e-01,8.49084e-01,9.99999e-01,9.97578e-01,8.51177e-01,9.99962e-01
6.360682746e-01,8.52118e-01,9.99999e-01,9.97945e-01,8.53890e-01,9.99977e-01
6.392486160e-01,8.54266e-01,9.99999e-01,9.97333e-01,8.56558e-01,9.99989e-01
6.424448591e-01,8.56126e-01,9.99999e-01,9.96457e-01,8.59182e-01,9.99983e-01
6.456570834e-01,8.47602e-01,9.99999e-01,9.83658e-01,8.61762e-01,9.99907e-01
6.488853688e-01,8.51848e-01,9.99999e-01,9.85848e-01,8.64298e-01,9.99742e-01
6.521297956e-01,8.55938e-01,9.99999e-01,9.87691e-01,8.66791e-01,9.99784e-01
6.553904446e-01,8.58515e-01,9.99999e-01,9.87818e-01,8.69242e-01,9.99837e-01
6.586673968e-01,8.62435e-01,9.99999e-01,9.89478e-01,8.71652e-01,9.99946e-01
6.619607338e-01,8.68681e-01,9.99999e-01,9.93902e-01,8.74020e-01,9.99988e-01
6.652705375e-01,8.73239e-01,9.99999e-01,9.96457e-01,8.76348e-01,9.99993e-01
6.685968902e-01,8.77189e-01,9.99999e-01,9.98354e-01,8.78635e-01,9.99998e-01
6.719398746e-01,8.80211e-01,9.99999e-01,9.99236e-01,8.80884e-01,9.99999e-01
6.752995740e-01,8.82729e-01,9.99999e-01,9.99587e-01,8.83093e-01,9.99999e-01
6.786760719e-01,8.84740e-01,9.99999e-01,9.99407e-01,8.85264e-01,9.99998e-01
6.820694522e-01,8.86492e-01,9.99999e-01,9.98983e-01,8.87398e-01,9.99994e-01
6.854797995e-01,8.88320e-01,9.99999e-01,9.98690e-01,8.89494e-01,9.99988e-01
6.889071985e-01,8.88742e-01,9.99999e-01,9.96873e-01,8.91554e-01,9.99971e-01
6.923517345e-01,8.48530e-01,9.99999e-01,9.49822e-01,8.93578e-01,9.99751e-01
6.958134932e-01,8.71069e-01,9.99999e-01,9.73190e-01,8.95566e-01,9.99438e-01
6.992925606e-01,8.74500e-01,9.99999e-01,9.74831e-01,8.97520e-01,9.99506e-01
7.027890234e-01,8.71059e-01,9.99999e-01,9.68813e-01,8.99438e-01,9.99621e-01
7.063029686e-01,8.77459e-01,9.99999e-01,9.73705e-01,9.01323e-01,9.99811e-01
7.098344834e-01,8.80270e-01,9.99999e-01,9.74747e-01,9.03175e-01,9.99888e-01
7.133836558e-01,8.74882e-01,9.99999e-01,9.66940e-01,9.04993e-01,9.99778e-01
7.169505741e-01,6.94342e-01,9.99999e-01,7.67058e-01,9.06780e-01,9.98258e-01
7.205353270e-01,7.93082e-01,9.99999e-01,8.75612e-01,9.08534e-01,9.96929e-01
7.241380036e-01,7.67971e-01,9.99999e-01,8.45928e-01,9.10257e-01,9.97348e-01
7.277586936e-01,7.82421e-01,9.99999e-01,8.59829e-01,9.11949e-01,9.97831e-01
7.313974871e-01,7.75819e-01,9.99999e-01,8.50042e-01,9.13611e-01,9.98983e-01
7.350544745e-01,8.37056e-01,9.99999e-01,9.14895e-01,9.15243e-01,9.99646e-01
7.387297469e-01,8.58399e-01,9.99999e-01,9.36404e-01,9.16845e-01,9.99837e-01
7.424233956e-01,8.89236e-01,9.99999e-01,9.68254e-01,9.18419e-01,9.99968e-01
7.461355126e-01,9.02167e-01,9.99999e-01,9.80659e-01,9.19964e-01,9.99994e-01
7.498661902e-01,9.13121e-01,9.99999e-01,9.90928e-01,9.21481e-01,9.99997e-01
7.536155211e-01,9.18864e-01,9.99999e-01,9.95550e-01,9.22971e-01,9.99998e-01
7.573835987e-01,9.22313e-01,9.99999e-01,9.97706e-01,9.24433e-01,9.99999e-01
7.611705167e-01,9.24550e-01,9.99999e-01,9.98574e-01,9.25869e-01,9.99999e-01
7.649763693e-01,9.26452e-01,9.99999e-01,9.99107e-01,9.27279e-01,9.99999e-01
7.688012511e-01,9.28086e-01,9.99999e-01,9.99378e-01,9.28663e-01,9.99999e-01
7.726452574e-01,9.29546e-01,9.99999e-01,9.99489e-01,9.30021e-01,9.99999e-01
7.765084837e-01,9.30683e-01,9.99999e-01,9.99278e-01,9.31355e-01,9.99998e-01
7.803910261e-01,9.29762e-01,9.99999e-01,9.96890e-01,9.32664e-01,9.99996e-01
7.842929812e-01,9.23837e-01,9.99999e-01,9.89192e-01,9.33949e-01,9.99979e-01
7.882144461e-01,9.14227e-01,9.99999e-01,9.77696e-01,9.35211e-01,9.99861e-01
7.921555184e-01,9.24652e-01,9.99999e-01,9.87665e-01,9.36449e-01,9.99733e-01
7.961162960e-01,9.17272e-01,9.99999e-01,9.78501e-01,9.37664e-01,9.99744e-01
8.000968774e-01,9.15189e-01,9.99999e-01,9.75054e-01,9.38857e-01,9.99727e-01
8.040973618e-01,9.16412e-01,9.99999e-01,9.75088e-01,9.40028e-01,9.99783e-01
8.081178486e-01,8.89457e-01,9.99999e-01,9.45238e-01,9.41177e-01,9.99797e-01
8.121584379e-01,7.46422e-01,9.99999e-01,7.92754e-01,9.42304e-01,9.99204e-01
8.162192301e-01,7.13121e-01,9.99999e-01,7.58160e-01,9.43411e-01,9.97012e-01
8.203003262e-01,8.24701e-01,9.99999e-01,8.76227e-01,9.44497e-01,9.96502e-01
8.244018279e-01,7.83841e-01,9.99999e-01,8.31281e-01,9.45563e-01,9.97215e-01
8.285238370e-01,8.00148e-01,9.99999e-01,8.47130e-01,9.46609e-01,9.97812e-01
8.326664562e-01,8.00564e-01,9.99999e-01,8.45566e-01,9.47636e-01,9.99094e-01
8.368297885e-01,8.40245e-01,9.99999e-01,8.85917e-01,9.48643e-01,9.99792e-01
8.410139374e-01,8.83399e-01,9.99999e-01,9.30366e-01,9.49631e-01,9.99878e-01
8.452190071e-01,9.17394e-01,9.99999e-01,9.65135e-01,9.50601e-01,9.99927e-01
8.494451021e-01,9.32149e-01,9.99999e-01,9.79664e-01,9.51553e-01,9.99941e-01
8.536923276e-01,9.40919e-01,9.99999e-01,9.87893e-01,9.52487e-01,9.99961e-01
8.579607893e-01,9.46287e-01,9.99999e-01,9.92545e-01,9.53403e-01,9.99989e-01
8.622505932e-01,9.49768e-01,9.99999e-01,9.95249e-01,9.54302e-01,9.99998e-01
8.665618462e-01,9.52383e-01,9.99999e-01,9.97067e-01,9.55184e-01,9.99998e-01
8.708946554e-01,9.52845e-01,9.99999e-01,9.96649e-01,9.56050e-01,9.99997e-01
8.752491287e-01,9.52604e-01,9.99999e-01,9.95515e-01,9.56899e-01,9.99994e-01
8.796253743e-01,9.51792e-01,9.99999e-01,9.93811e-01,9.57732e-01,9.99985e-01
8.840235012e-01,9.51731e-01,9.99999e-01,9.92929e-01,9.58549e-01,9.99956e-01
8.884436187e-01,9.35232e-01,9.99999e-01,9.74978e-01,9.59351e-01,9.99876e-01
8.928858368e-01,7.36606e-01,9.99999e-01,7.67732e-01,9.60138e-01,9.99289e-01
8.973502660e-01,6.00030e-01,9.99999e-01,6.26716e-01,9.60909e-01,9.96366e-01
9.018370173e-01,7.52261e-01,9.99999e-01,7.86735e-01,9.61667e-01,9.94293e-01
9.063462024e-01,7.76251e-01,9.99999e-01,8.10634e-01,9.62409e-01,9.94985e-01
9.108779334e-01,6.90095e-01,9.99999e-01,7.20258e-01,9.63138e-01,9.94790e-01
9.154323231e-01,6.58992e-01,9.99999e-01,6.86663e-01,9.63853e-01,9.95691e-01
9.200094847e-01,7.17744e-01,9.99999e-01,7.45919e-01,9.64554e-01,9.97586e-01
9.246095321e-01,6.26837e-01,9.99999e-01,6.51219e-01,9.65242e-01,9.97219e-01
9.292325798e-01,7.79768e-02,9.99999e-01,8.16095e-02,9.65916e-01,9.89200e-01
9.338787427e-01,3.11402e-02,9.99999e-01,3.36960e-02,9.66578e-01,9.56106e-01
9.385481364e-01,2.30036e-01,9.99999e-01,2.50871e-01,9.67227e-01,9.48014e-01
9.432408771e-01,1.51814e-01,9.99999e-01,1.64248e-01,9.67864e-01,9.54987e-01
9.479570815e-01,7.11003e-02,9.99999e-01,7.62177e-02,9.68489e-01,9.63209e-01
9.526968669e-01,1.26202e-01,9.99999e-01,1.33237e-01,9.69102e-01,9.77396e-01
9.574603512e-01,1.38649e-01,9.99999e-01,1.44651e-01,9.69703e-01,9.88453e-01
9.622476530e-01,1.90622e-01,9.99999e-01,1.98042e-01,9.70292e-01,9.92001e-01
9.670588912e-01,3.73952e-01,9.99999e-01,3.87293e-01,9.70870e-01,9.94522e-01
9.718941857e-01,5.19207e-01,9.99999e-01,5.36637e-01,9.71437e-01,9.95965e-01
9.767536566e-01,5.77184e-01,9.99999e-01,5.95651e-01,9.71993e-01,9.96914e-01
9.816374249e-01,6.58685e-01,9.99999e-01,6.78008e-01,9.72539e-01,9.98931e-01
9.865456120e-01,7.61936e-01,9.99999e-01,7.83193e-01,9.73074e-01,9.99776e-01
9.914783401e-01,8.36535e-01,9.99999e-01,8.59272e-01,9.73599e-01,9.99937e-01
9.964357318e-01,8.96798e-01,9.99999e-01,9.20663e-01,9.74113e-01,9.99963e-01
1.001417910e+00,9.27395e-01,9.99999e-01,9.51598e-01,9.74618e-01,9.99944e-01
1.006425000e+00,9.47875e-01,9.99999e-01,9.72142e-01,9.75113e-01,9.99920e-01
1.011457125e+00,9.58539e-01,9.99999e-01,9.82584e-01,9.75599e-01,9.99926e-01
1.016514411e+00,9.64466e-01,9.99999e-01,9.88156e-01,9.76075e-01,9.99948e-01
1.021596983e+00,9.67271e-01,9.99999e-01,9.90556e-01,9.76542e-01,9.99947e-01
1.026704968e+00,9.69767e-01,9.99999e-01,9.92631e-01,9.77000e-01,9.99964e-01
1.031838492e+00,9.72192e-01,9.99999e-01,9.94630e-01,9.77449e-01,9.99989e-01
1.036997685e+00,9.74772e-01,9.99999e-01,9.96813e-01,9.77889e-01,9.99998e-01
1.042182673e+00,9.74615e-01,9.99999e-01,9.96212e-01,9.78321e-01,9.99998e-01
1.047393587e+00,9.73824e-01,9.99999e-01,9.94972e-01,9.78745e-01,9.99998e-01
1.052630555e+00,9.72417e-01,9.99999e-01,9.93113e-01,9.79160e-01,9.99997e-01
1.057893707e+00,9.68344e-01,9.99999e-01,9.88545e-01,9.79568e-01,9.99995e-01
1.063183176e+00,9.61546e-01,9.99999e-01,9.81210e-01,9.79967e-01,9.99989e-01
1.068499092e+00,9.49672e-01,9.99999e-01,9.68718e-01,9.80359e-01,9.99978e-01
1.073841587e+00,9.45018e-01,9.99999e-01,9.63617e-01,9.80743e-01,9.99952e-01
1.079210795e+00,9.35316e-01,9.99999e-01,9.53435e-01,9.81120e-01,9.99872e-01
1.084606849e+00,9.13073e-01,9.99999e-01,9.30577e-01,9.81489e-01,9.99693e-01
1.090029883e+00,8.85649e-01,9.99999e-01,9.02591e-01,9.81852e-01,9.99365e-01
1.095480033e+00,7.42155e-01,9.99999e-01,7.56465e-01,9.82207e-01,9.98853e-01
1.100957433e+00,4.89786e-01,9.99999e-01,4.99535e-01,9.82555e-01,9.97891e-01
1.106462220e+00,1.87856e-01,9.99999e-01,1.91810e-01,9.82897e-01,9.96425e-01
1.111994531e+00,3.36890e-02,9.99999e-01,3.45907e-02,9.83232e-01,9.90539e-01
1.117554504e+00,5.53627e-03,9.99999e-01,5.82532e-03,9.83560e-01,9.66263e-01
1.123142276e+00,2.85707e-02,9.99999e-01,3.15008e-02,9.83882e-01,9.21839e-01
1.128757988e+00,7.27710e-02,9.99999e-01,8.12387e-02,9.84198e-01,9.10147e-01
1.134401778e+00,3.38201e-02,9.99999e-01,3.72154e-02,9.84508e-01,9.23065e-01
1.140073787e+00,1.87013e-01,9.99999e-01,2.02440e-01,9.84811e-01,9.38039e-01
1.145774156e+00,4.73015e-02,9.99999e-01,5.09116e-02,9.85109e-01,9.43132e-01
1.151503026e+00,3.44472e-02,9.99999e-01,3.61165e-02,9.85401e-01,9.67909e-01
1.157260541e+00,4.50742e-02,9.99999e-01,4.61768e-02,9.85687e-01,9.90294e-01
1.163046844e+00,9.83597e-02,9.99999e-01,1.00035e-01,9.85968e-01,9.97239e-01
1.168862078e+00,1.84580e-01,9.99999e-01,1.87421e-01,9.86243e-01,9.98576e-01
1.174706389e+00,3.47725e-01,9.99999e-01,3.53145e-01,9.86513e-01,9.98113e-01
1.180579921e+00,5.18190e-01,9.99999e-01,5.26634e-01,9.86778e-01,9.97149e-01
1.186482820e+00,6.81752e-01,9.99999e-01,6.92731e-01,9.87037e-01,9.97074e-01
1.192415234e+00,7.94325e-01,9.99999e-01,8.06316e-01,9.87292e-01,9.97808e-01
1.198377311e+00,8.22319e-01,9.99999e-01,8.34419e-01,9.87541e-01,9.97929e-01
1.204369197e+00,8.31480e-01,9.99999e-01,8.43340e-01,9.87786e-01,9.98126e-01
1.210391043e+00,8.37966e-01,9.99999e-01,8.49088e-01,9.88025e-01,9.98859e-01
1.216442998e+00,8.59077e-01,9.99999e-01,8.69889e-01,9.88261e-01,9.99301e-01
1.222525213e+00,8.86188e-01,9.99999e-01,8.96894e-01,9.88491e-01,9.99565e-01
1.228637839e+00,9.16559e-01,9.99999e-01,9.27204e-01,9.88717e-01,9.99797e-01
1.234781029e+00,9.34876e-01,9.99999e-01,9.45386e-01,9.88939e-01,9.99941e-01
1.240954934e+00,9.54649e-01,9.99999e-01,9.65129e-01,9.89156e-01,9.99983e-01
1.247159708e+00,9.62359e-01,9.99999e-01,9.72708e-01,9.89369e-01,9.99989e-01
1.253395507e+00,9.65579e-01,9.99999e-01,9.75760e-01,9.89578e-01,9.99986e-01
1.259662485e+00,9.67177e-01,9.99999e-01,9.77181e-01,9.89783e-01,9.99978e-01
1.265960797e+00,9.53907e-01,9.99999e-01,9.63592e-01,9.89983e-01,9.99963e-01
1.272290601e+00,9.37527e-01,9.99999e-01,9.46884e-01,9.90180e-01,9.99936e-01
1.278652054e+00,8.82800e-01,9.99999e-01,8.91481e-01,9.90373e-01,9.99887e-01
1.285045314e+00,8.27481e-01,9.99999e-01,8.35540e-01,9.90563e-01,9.99789e-01
1.291470541e+00,6.90672e-01,9.99999e-01,6.97378e-01,9.90748e-01,9.99630e-01
1.297927893e+00,6.21442e-01,9.99999e-01,6.27562e-01,9.90930e-01,9.99311e-01
1.304417533e+00,5.44942e-01,9.99999e-01,5.50633e-01,9.91108e-01,9.98541e-01
1.310939621e+00,5.01008e-01,9.99999e-01,5.06930e-01,9.91283e-01,9.97008e-01
1.317494319e+00,4.71408e-01,9.99999e-01,4.78112e-01,9.91455e-01,9.94474e-01
1.324081790e+00,3.36895e-01,9.99999e-01,3.42828e-01,9.91623e-01,9.90993e-01
1.330702199e+00,6.38219e-02,9.99999e-01,6.53620e-02,9.91787e-01,9.84520e-01
1.337355710e+00,1.12289e-04,9.99999e-01,1.16653e-04,9.91949e-01,9.70403e-01
1.344042489e+00,6.36125e-07,9.99999e-01,7.01912e-07,9.92107e-01,9.13483e-01
1.350762701e+00,3.09494e-21,9.99999e-01,4.25182e-21,9.92263e-01,7.33583e-01
1.357516515e+00,5.63147e-32,9.99999e-01,1.40866e-31,9.92415e-01,4.02830e-01
1.364304097e+00,5.87516e-20,9.99999e-01,2.91282e-19,9.92564e-01,2.03211e-01
1.371125618e+00,2.31882e-12,9.99999e-01,1.04933e-11,9.92710e-01,2.22603e-01
1.377981246e+00,8.81705e-12,9.99999e-01,3.21906e-11,9.92854e-01,2.75873e-01
1.384871152e+00,1.56678e-16,9.99999e-01,5.30696e-16,9.92995e-01,2.97314e-01
1.391795508e+00,4.73893e-20,9.99999e-01,1.50427e-19,9.93132e-01,3.17209e-01
1.398754485e+00,1.87217e-15,9.99999e-01,4.84884e-15,9.93268e-01,3.88724e-01
1.405748258e+00,3.08226e-15,9.99999e-01,5.39061e-15,9.93400e-01,5.75581e-01
1.412776999e+00,9.14983e-15,9.99999e-01,1.18511e-14,9.93530e-01,7.77090e-01
1.419840884e+00,1.59866e-14,9.99998e-01,1.79698e-14,9.93657e-01,8.95313e-01
1.426940089e+00,7.89576e-10,9.99998e-01,8.64147e-10,9.93782e-01,9.19420e-01
1.434074789e+00,1.20907e-08,9.99998e-01,1.34326e-08,9.93905e-01,9.05619e-01
1.441245163e+00,3.26493e-07,9.99999e-01,3.65688e-07,9.94025e-01,8.98184e-01
1.448451389e+00,4.50741e-05,9.99998e-01,4.98093e-05,9.94142e-01,9.10264e-01
1.455693646e+00,1.08869e-03,9.99998e-01,1.17809e-03,9.94258e-01,9.29453e-01
1.462972114e+00,1.62870e-03,9.99999e-01,1.75628e-03,9.94371e-01,9.32605e-01
1.470286975e+00,6.58428e-04,9.99999e-01,7.09082e-04,9.94482e-01,9.33714e-01
