#,Wave/freq,Total,N2,H2O,Rayleigh,CIA
4.000000000e-01,7.07652e-01,9.99999e-01,9.99960e-01,7.07679e-01,9.99999e-01
4.020000000e-01,7.12517e-01,9.99999e-01,9.99975e-01,7.12534e-01,9.99999e-01
4.040100000e-01,7.17313e-01,9.99999e-01,9.99989e-01,7.17320e-01,9.99999e-01
4.060300500e-01,7.22042e-01,9.99999e-01,9.99997e-01,7.22043e-01,9.99999e-01
4.080602003e-01,7.26702e-01,9.99999e-01,9.99998e-01,7.26703e-01,9.99999e-01
4.101005013e-01,7.31300e-01,9.99999e-01,9.99999e-01,7.31300e-01,9.99999e-01
4.121510038e-01,7.35833e-01,9.99999e-01,9.99998e-01,7.35834e-01,9.99999e-01
4.142117588e-01,7.40298e-01,9.99999e-01,9.99988e-01,7.40306e-01,9.99999e-01
4.162828176e-01,7.44680e-01,9.99999e-01,9.99951e-01,7.44716e-01,9.99999e-01
4.183642317e-01,7.49043e-01,9.99999e-01,9.99970e-01,7.49065e-01,9.99999e-01
4.204560528e-01,7.53338e-01,9.99999e-01,9.99981e-01,7.53352e-01,9.99999e-01
4.225583331e-01,7.57573e-01,9.99999e-01,9.99992e-01,7.57578e-01,9.99999e-01
4.246711247e-01,7.61740e-01,9.99999e-01,9.99994e-01,7.61744e-01,9.99999e-01
4.267944804e-01,7.65844e-01,9.99999e-01,9.99991e-01,7.65850e-01,9.99999e-01
4.289284528e-01,7.69891e-01,9.99999e-01,9.99993e-01,7.69896e-01,9.99999e-01
4.310730950e-01,7.73881e-01,9.99999e-01,9.99996e-01,7.73883e-01,9.99999e-01
4.332284605e-01,7.77811e-01,9.99999e-01,9.99998e-01,7.77811e-01,9.99999e-01
4.353946028e-01,7.81681e-01,9.99999e-01,9.99999e-01,7.81681e-01,9.99999e-01
4.375715758e-01,7.85490e-01,9.99999e-01,9.99994e-01,7.85493e-01,9.99999e-01
4.397594337e-01,7.89215e-01,9.99999e-01,9.99957e-01,7.89249e-01,9.99999e-01
4.419582309e-01,7.92778e-01,9.99999e-01,9.99786e-01,7.92947e-01,9.99999e-01
4.441680220e-01,7.96454e-01,9.99999e-01,9.99830e-01,7.96589e-01,9.99999e-01
4.463888621e-01,8.00035e-01,9.99999e-01,9.99824e-01,8.00175e-01,9.99999e-01
4.486208064e-01,8.03619e-01,9.99999e-01,9.99890e-01,8.03706e-01,9.99999e-01
4.508639105e-01,8.07142e-01,9.99999e-01,9.99948e-01,8.07183e-01,9.99999e-01
4.531182300e-01,8.10589e-01,9.99999e-01,9.99979e-01,8.10605e-01,9.99999e-01
4.553838212e-01,8.13963e-01,9.99999e-01,9.99985e-01,8.13974e-01,9.99999e-01
4.576607403e-01,8.17285e-01,9.99999e-01,9.99993e-01,8.17290e-01,9.99999e-01
4.599490440e-01,8.20550e-01,9.99999e-01,9.99995e-01,8.20554e-01,9.99999e-01
4.622487892e-01,8.23765e-01,9.99999e-01,9.99998e-01,8.23766e-01,9.99999e-01
4.645600332e-01,8.26924e-01,9.99999e-01,9.99996e-01,8.26926e-01,9.99999e-01
4.668828333e-01,8.29994e-01,9.99999e-01,9.99948e-01,8.30036e-01,9.99999e-01
4.692172475e-01,8.33005e-01,9.99999e-01,9.99889e-01,8.33096e-01,9.99999e-01
4.715633337e-01,8.36046e-01,9.99999e-01,9.99927e-01,8.36106e-01,9.99999e-01
4.739211504e-01,8.39010e-01,9.99999e-01,9.99930e-01,8.39068e-01,9.99999e-01
4.762907561e-01,8.41951e-01,9.99999e-01,9.99963e-01,8.41981e-01,9.99999e-01
4.786722099e-01,8.44834e-01,9.99999e-01,9.99984e-01,8.44846e-01,9.99999e-01
4.810655710e-01,8.47661e-01,9.99999e-01,9.99995e-01,8.47665e-01,9.99999e-01
4.834708988e-01,8.50401e-01,9.99999e-01,9.99958e-01,8.50436e-01,9.99999e-01
4.858882533e-01,8.53096e-01,9.99999e-01,9.99921e-01,8.53162e-01,9.99999e-01
4.883176946e-01,8.55787e-01,9.99999e-01,9.99934e-01,8.55842e-01,9.99999e-01
4.907592831e-01,8.58427e-01,9.99999e-01,9.99940e-01,8.58478e-01,9.99999e-01
4.932130795e-01,8.61033e-01,9.99999e-01,9.99957e-01,8.61069e-01,9.99999e-01
4.956791449e-01,8.63598e-01,9.99999e-01,9.99977e-01,8.63617e-01,9.99999e-01
4.981575406e-01,8.66027e-01,9.99999e-01,9.99889e-01,8.66122e-01,9.99999e-01
5.006483283e-01,8.68336e-01,9.99999e-01,9.99715e-01,8.68585e-01,9.99997e-01
5.031515699e-01,8.69731e-01,9.99999e-01,9.98552e-01,8.71005e-01,9.99984e-01
5.056673278e-01,8.72700e-01,9.99999e-01,9.99233e-01,8.73384e-01,9.99982e-01
5.081956644e-01,8.74867e-01,9.99999e-01,9.99033e-01,8.75723e-01,9.99988e-01
5.107366428e-01,8.77446e-01,9.99999e-01,9.99346e-01,8.78021e-01,9.99997e-01
5.132903260e-01,8.79951e-01,9.99999e-01,9.99625e-01,8.80280e-01,9.99999e-01
5.158567776e-01,8.82361e-01,9.99999e-01,9.99841e-01,8.82500e-01,9.99999e-01
5.184360615e-01,8.84626e-01,9.99999e-01,9.99936e-01,8.84682e-01,9.99999e-01
5.210282418e-01,8.86805e-01,9.99999e-01,9.99976e-01,8.86826e-01,9.99999e-01
5.236333830e-01,8.88848e-01,9.99999e-01,9.99905e-01,8.88932e-01,9.99998e-01
5.262515499e-01,8.90948e-01,9.99999e-01,9.99940e-01,8.91002e-01,9.99998e-01
5.288828077e-01,8.92986e-01,9.99999e-01,9.99945e-01,8.93035e-01,9.99998e-01
5.315272217e-01,8.94990e-01,9.99999e-01,9.99951e-01,8.95033e-01,9.99999e-01
5.341848578e-01,8.96968e-01,9.99999e-01,9.99968e-01,8.96996e-01,9.99999e-01
5.368557821e-01,8.98825e-01,9.99999e-01,9.99890e-01,8.98924e-01,9.99999e-01
5.395400610e-01,9.00460e-01,9.99999e-01,9.99605e-01,9.00818e-01,9.99996e-01
5.422377613e-01,9.02206e-01,9.99999e-01,9.99485e-01,9.02678e-01,9.99990e-01
5.449489501e-01,9.04067e-01,9.99999e-01,9.99523e-01,9.04506e-01,9.99989e-01
5.476736949e-01,9.05912e-01,9.99999e-01,9.99575e-01,9.06300e-01,9.99994e-01
5.504120634e-01,9.07783e-01,9.99999e-01,9.99692e-01,9.08063e-01,9.99998e-01
5.531641237e-01,9.09654e-01,9.99999e-01,9.99844e-01,9.09795e-01,9.99999e-01
5.559299443e-01,9.11427e-01,9.99999e-01,9.99924e-01,9.11495e-01,9.99999e-01
5.587095940e-01,9.13123e-01,9.99999e-01,9.99952e-01,9.13165e-01,9.99999e-01
5.615031420e-01,9.14758e-01,9.99999e-01,9.99947e-01,9.14805e-01,9.99999e-01
5.643106577e-01,9.16362e-01,9.99999e-01,9.99941e-01,9.16416e-01,9.99998e-01
5.671322110e-01,9.17342e-01,9.99999e-01,9.99292e-01,9.17997e-01,9.99993e-01
5.699678720e-01,9.18826e-01,9.99999e-01,9.99232e-01,9.19550e-01,9.99980e-01
5.728177114e-01,9.20329e-01,9.99999e-01,9.99206e-01,9.21074e-01,9.99983e-01
5.756818000e-01,9.21890e-01,9.99999e-01,9.99270e-01,9.22571e-01,9.99989e-01
5.785602090e-01,9.23451e-01,9.99999e-01,9.99363e-01,9.24041e-01,9.99996e-01
5.814530100e-01,9.24893e-01,9.99999e-01,9.99361e-01,9.25484e-01,9.99998e-01
5.843602750e-01,9.26197e-01,9.99999e-01,9.99244e-01,9.26901e-01,9.99995e-01
5.872820764e-01,9.22211e-01,9.99999e-01,9.93494e-01,9.28292e-01,9.99953e-01
5.902184868e-01,9.22165e-01,9.99999e-01,9.92065e-01,9.29657e-01,9.99874e-01
5.931695792e-01,9.25674e-01,9.99999e-01,9.94403e-01,9.30997e-01,9.99877e-01
5.961354271e-01,9.26516e-01,9.99999e-01,9.93855e-01,9.32313e-01,9.99925e-01
5.991161043e-01,9.29395e-01,9.99999e-01,9.95511e-01,9.33605e-01,9.99978e-01
6.021116848e-01,9.32485e-01,9.99999e-01,9.97448e-01,9.34872e-01,9.99996e-01
6.051222432e-01,9.34907e-01,9.99999e-01,9.98707e-01,9.36117e-01,9.99999e-01
6.081478544e-01,9.36816e-01,9.99999e-01,9.99442e-01,9.37338e-01,9.99999e-01
6.111885937e-01,9.38316e-01,9.99999e-01,9.99763e-01,9.38537e-01,9.99999e-01
6.142445367e-01,9.39615e-01,9.99999e-01,9.99894e-01,9.39714e-01,9.99999e-01
6.173157594e-01,9.40814e-01,9.99999e-01,9.99941e-01,9.40869e-01,9.99999e-01
6.204023382e-01,9.41956e-01,9.99999e-01,9.99950e-01,9.42002e-01,9.99999e-01
6.235043498e-01,9.42913e-01,9.99999e-01,9.99786e-01,9.43114e-01,9.99998e-01
6.266218716e-01,9.43121e-01,9.99999e-01,9.98857e-01,9.44206e-01,9.99991e-01
6.297549810e-01,9.44866e-01,9.99999e-01,9.99580e-01,9.45277e-01,9.99983e-01
6.329037559e-01,9.45532e-01,9.99999e-01,9.99170e-01,9.46329e-01,9.99986e-01
6.360682746e-01,9.46686e-01,9.99999e-01,9.99295e-01,9.47360e-01,9.99991e-01
6.392486160e-01,9.47503e-01,9.99999e-01,9.99085e-01,9.48373e-01,9.99996e-01
6.424448591e-01,9.48208e-01,9.99999e-01,9.98784e-01,9.49366e-01,9.99994e-01
6.456570834e-01,9.44956e-01,9.99999e-01,9.94364e-01,9.50341e-01,9.99968e-01
6.488853688e-01,9.46579e-01,9.99999e-01,9.95126e-01,9.51298e-01,9.99911e-01
6.521297956e-01,9.48128e-01,9.99999e-01,9.95758e-01,9.52236e-01,9.99925e-01
6.553904446e-01,9.49111e-01,9.99999e-01,9.95809e-01,9.53157e-01,9.99944e-01
6.586673968e-01,9.50592e-01,9.99999e-01,9.96381e-01,9.54061e-01,9.99981e-01
6.619607338e-01,9.52946e-01,9.99999e-01,9.97907e-01,9.54948e-01,9.99995e-01
6.652705375e-01,9.54655e-01,9.99999e-01,9.98785e-01,9.55817e-01,9.99997e-01
6.685968902e-01,9.56132e-01,9.99999e-01,9.99435e-01,9.56671e-01,9.99999e-01
6.719398746e-01,9.57258e-01,9.99999e-01,9.99738e-01,9.57508e-01,9.99999e-01
6.752995740e-01,9.58195e-01,9.99999e-01,9.99858e-01,9.58330e-01,9.99999e-01
6.786760719e-01,9.58941e-01,9.99999e-01,9.99796e-01,9.59136e-01,9.99999e-01
6.820694522e-01,9.59591e-01,9.99999e-01,9.99651e-01,9.59927e-01,9.99997e-01
6.854797995e-01,9.60268e-01,9.99999e-01,9.99551e-01,9.60702e-01,9.99995e-01
6.889071985e-01,9.60422e-01,9.99999e-01,9.98925e-01,9.61464e-01,9.99989e-01
6.923517345e-01,9.45240e-01,9.99999e-01,9.82446e-01,9.62210e-01,9.99914e-01
6.958134932e-01,9.53806e-01,9.99999e-01,9.90701e-01,9.62943e-01,9.99807e-01
6.992925606e-01,9.55105e-01,9.99999e-01,9.91288e-01,9.63661e-01,9.99830e-01
7.027890234e-01,9.53818e-01,9.99999e-01,9.89189e-01,9.64366e-01,9.99869e-01
7.063029686e-01,9.56223e-01,9.99999e-01,9.90909e-01,9.65057e-01,9.99934e-01
7.098344834e-01,9.57274e-01,9.99999e-01,9.91275e-01,9.65735e-01,9.99961e-01
7.133836558e-01,9.55218e-01,9.99999e-01,9.88502e-01,9.66401e-01,9.99923e-01
7.169505741e-01,8.80488e-01,9.99999e-01,9.11028e-01,9.67053e-01,9.99402e-01
7.205353270e-01,9.22977e-01,9.99999e-01,9.54795e-01,9.67693e-01,9.98946e-01
7.241380036e-01,9.12796e-01,9.99999e-01,9.43515e-01,9.68321e-01,9.99090e-01
7.277586936e-01,9.18701e-01,9.99999e-01,9.48857e-01,9.68937e-01,9.99256e-01
7.313974871e-01,9.16284e-01,9.99999e-01,9.45398e-01,9.69541e-01,9.99651e-01
7.350544745e-01,9.40750e-01,9.99999e-01,9.69828e-01,9.70134e-01,9.99878e-01
7.387297469e-01,9.49005e-01,9.99999e-01,9.77688e-01,9.70715e-01,9.99944e-01
7.424233956e-01,9.60594e-01,9.99999e-01,9.89002e-01,9.71285e-01,9.99988e-01
7.461355126e-01,9.65361e-01,9.99999e-01,9.93330e-01,9.71844e-01,9.99997e-01
7.498661902e-01,9.69362e-01,9.99999e-01,9.96883e-01,9.72393e-01,9.99998e-01
7.536155211e-01,9.71446e-01,9.99999e-01,9.98473e-01,9.72930e-01,9.99999e-01
7.573835987e-01,9.72693e-01,9.99999e-01,9.99213e-01,9.73458e-01,9.99999e-01
7.611705167e-01,9.73500e-01,9.99999e-01,9.99511e-01,9.73975e-01,9.99999e-01
7.649763693e-01,9.74185e-01,9.99999e-01,9.99693e-01,9.74483e-01,9.99999e-01
7.688012511e-01,9.74773e-01,9.99999e-01,9.99786e-01,9.74980e-01,9.99999e-01
7.726452574e-01,9.75298e-01,9.99999e-01,9.99824e-01,9.75468e-01,9.99999e-01
7.765084837e-01,9.75706e-01,9.99999e-01,9.99752e-01,9.75947e-01,9.99999e-01
7.803910261e-01,9.75374e-01,9.99999e-01,9.98932e-01,9.76417e-01,9.99998e-01
7.842929812e-01,9.73237e-01,9.99999e-01,9.96280e-01,9.76877e-01,9.99992e-01
7.882144461e-01,9.69758e-01,9.99999e-01,9.92299e-01,9.77328e-01,9.99952e-01
7.921555184e-01,9.73533e-01,9.99999e-01,9.95755e-01,9.77771e-01,9.99908e-01
7.961162960e-01,9.70853e-01,9.99999e-01,9.92570e-01,9.78206e-01,9.99912e-01
8.000968774e-01,9.70110e-01,9.99999e-01,9.91384e-01,9.78631e-01,9.99906e-01
8.040973618e-01,9.70549e-01,9.99999e-01,9.91391e-01,9.79049e-01,9.99925e-01
8.081178486e-01,9.60584e-01,9.99999e-01,9.80796e-01,9.79458e-01,9.99930e-01
8.121584379e-01,9.03515e-01,9.99999e-01,9.22336e-01,9.79860e-01,9.99727e-01
8.162192301e-01,8.89049e-01,9.99999e-01,9.07886e-01,9.80254e-01,9.98975e-01
8.203003262e-01,9.34284e-01,9.99999e-01,9.53872e-01,9.80640e-01,9.98800e-01
8.244018279e-01,9.16553e-01,9.99999e-01,9.35178e-01,9.81019e-01,9.99045e-01
8.285238370e-01,9.25887e-01,9.99999e-01,9.44151e-01,9.81390e-01,9.99249e-01
8.326664562e-01,9.25923e-01,9.99999e-01,9.43422e-01,9.81754e-01,9.99689e-01
8.368297885e-01,9.41923e-01,9.99999e-01,9.59147e-01,9.82112e-01,9.99928e-01
8.410139374e-01,9.58364e-01,9.99999e-01,9.75511e-01,9.82462e-01,9.99958e-01
8.452190071e-01,9.70897e-01,9.99999e-01,9.87906e-01,9.82805e-01,9.99974e-01
8.494451021e-01,9.76227e-01,9.99999e-01,9.92986e-01,9.83142e-01,9.99979e-01
8.536923276e-01,9.79365e-01,9.99999e-01,9.95836e-01,9.83472e-01,9.99986e-01
8.579607893e-01,9.81275e-01,9.99999e-01,9.97440e-01,9.83796e-01,9.99995e-01
8.622505932e-01,9.82510e-01,9.99999e-01,9.98370e-01,9.84113e-01,9.99998e-01
8.665618462e-01,9.83435e-01,9.99999e-01,9.98994e-01,9.84425e-01,9.99999e-01
8.708946554e-01,9.83598e-01,9.99999e-01,9.98850e-01,9.84730e-01,9.99998e-01
8.752491287e-01,9.83513e-01,9.99999e-01,9.98461e-01,9.85029e-01,9.99997e-01
8.796253743e-01,9.83225e-01,9.99999e-01,9.97875e-01,9.85323e-01,9.99994e-01
8.840235012e-01,9.83203e-01,9.99999e-01,9.97571e-01,9.85611e-01,9.99984e-01
8.884436187e-01,9.77260e-01,9.99999e-01,9.91285e-01,9.85893e-01,9.99957e-01
8.928858368e-01,8.98535e-01,9.99999e-01,9.11358e-01,9.86170e-01,9.99756e-01
8.973502660e-01,8.35261e-01,9.99999e-01,8.47797e-01,9.86441e-01,9.98753e-01
9.018370173e-01,9.04783e-01,9.99999e-01,9.18771e-01,9.86707e-01,9.98041e-01
9.063462024e-01,9.15183e-01,9.99999e-01,9.28864e-01,9.86968e-01,9.98279e-01
9.108779334e-01,8.77972e-01,9.99999e-01,8.90926e-01,9.87223e-01,9.98211e-01
9.154323231e-01,8.64467e-01,9.99999e-01,8.76727e-01,9.87474e-01,9.98521e-01
9.200094847e-01,8.90225e-01,9.99999e-01,9.02038e-01,9.87720e-01,9.99172e-01
9.246095321e-01,8.43865e-01,9.99999e-01,8.54962e-01,9.87961e-01,9.99046e-01
9.292325798e-01,3.51657e-01,9.99999e-01,3.57183e-01,9.88198e-01,9.96287e-01
9.338787427e-01,2.56647e-01,9.99999e-01,2.63674e-01,9.88429e-01,9.84741e-01
9.385481364e-01,5.65074e-01,9.99999e-01,5.82105e-01,9.88657e-01,9.81878e-01
9.432408771e-01,4.68348e-01,9.99999e-01,4.81146e-01,9.88879e-01,9.84346e-01
9.479570815e-01,3.58029e-01,9.99999e-01,3.66653e-01,9.89098e-01,9.87241e-01
9.526968669e-01,4.54182e-01,9.99999e-01,4.62698e-01,9.89312e-01,9.92198e-01
9.574603512e-01,4.77132e-01,9.99999e-01,4.84106e-01,9.89522e-01,9.96029e-01
9.622476530e-01,5.43422e-01,9.99999e-01,5.50574e-01,9.89728e-01,9.97252e-01
9.670588912e-01,6.99675e-01,9.99999e-01,7.08123e-01,9.89930e-01,9.98120e-01
9.718941857e-01,7.95128e-01,9.99999e-01,8.04168e-01,9.90128e-01,9.98615e-01
9.767536566e-01,8.25481e-01,9.99999e-01,8.34430e-01,9.90322e-01,9.98941e-01
9.816374249e-01,8.65417e-01,9.99999e-01,8.74026e-01,9.90512e-01,9.99633e-01
9.865456120e-01,9.10591e-01,9.99999e-01,9.19210e-01,9.90698e-01,9.99923e-01
9.914783401e-01,9.40572e-01,9.99999e-01,9.49246e-01,9.90881e-01,9.99978e-01
9.964357318e-01,9.63328e-01,9.99999e-01,9.72028e-01,9.91061e-01,9.99987e-01
1.001417910e+00,9.74503e-01,9.99999e-01,9.83136e-01,9.91236e-01,9.99980e-01
1.006425000e+00,9.81832e-01,9.99999e-01,9.90366e-01,9.91409e-01,9.99972e-01
1.011457125e+00,9.85604e-01,9.99999e-01,9.93999e-01,9.91578e-01,9.99974e-01
1.016514411e+00,9.87687e-01,9.99999e-01,9.95927e-01,9.91743e-01,9.99981e-01
1.021596983e+00,9.88670e-01,9.99999e-01,9.96755e-01,9.91906e-01,9.99981e-01
1.026704968e+00,9.89544e-01,9.99999e-01,9.97469e-01,9.92065e-01,9.99987e-01
1.031838492e+00,9.90390e-01,9.99999e-01,9.98157e-01,9.92221e-01,9.99996e-01
1.036997685e+00,9.91289e-01,9.99999e-01,9.98907e-01,9.92374e-01,9.99998e-01
1.042182673e+00,9.91235e-01,9.99999e-01,9.98700e-01,9.92524e-01,9.99999e-01
1.047393587e+00,9.90959e-01,9.99999e-01,9.98274e-01,9.92671e-01,9.99999e-01
1.052630555e+00,9.90468e-01,9.99999e-01,9.97635e-01,9.92815e-01,9.99998e-01
1.057893707e+00,9.89043e-01,9.99999e-01,9.96059e-01,9.92957e-01,9.99998e-01
1.063183176e+00,9.86654e-01,9.99999e-01,9.93517e-01,9.93095e-01,9.99996e-01
1.068499092e+00,9.82454e-01,9.99999e-01,9.89155e-01,9.93231e-01,9.99992e-01
1.073841587e+00,9.80775e-01,9.99999e-01,9.87341e-01,9.93365e-01,9.99983e-01
1.079210795e+00,9.77321e-01,9.99999e-01,9.83762e-01,9.93495e-01,9.99956e-01
1.084606849e+00,9.69235e-01,9.99999e-01,9.75556e-01,9.93623e-01,9.99894e-01
1.090029883e+00,9.58993e-01,9.99999e-01,9.65235e-01,9.93749e-01,9.99782e-01
1.095480033e+00,9.02069e-01,9.99999e-01,9.07987e-01,9.93872e-01,9.99606e-01
1.100957433e+00,7.78084e-01,9.99999e-01,7.83352e-01,9.93993e-01,9.99276e-01
1.106462220e+00,5.39805e-01,9.99999e-01,5.43669e-01,9.94111e-01,9.98773e-01
1.111994531e+00,2.78828e-01,9.99999e-01,2.81361e-01,9.94227e-01,9.96748e-01
1.117554504e+00,1.30441e-01,9.99999e-01,1.32735e-01,9.94340e-01,9.88312e-01
1.123142276e+00,2.31346e-01,9.99999e-01,2.39213e-01,9.94452e-01,9.72506e-01
1.128757988e+00,3.71483e-01,9.99999e-01,3.85756e-01,9.94561e-01,9.68263e-01
1.134401778e+00,1.75324e-01,9.99999e-01,1.81164e-01,9.94668e-01,9.72949e-01
1.140073787e+00,5.43712e-01,9.99999e-01,5.58676e-01,9.94773e-01,9.78327e-01
1.145774156e+00,2.99908e-01,9.99999e-01,3.07559e-01,9.94876e-01,9.80143e-01
1.151503026e+00,2.67929e-01,9.99999e-01,2.72307e-01,9.94977e-01,9.88889e-01
1.157260541e+00,3.20820e-01,9.99999e-01,3.23486e-01,9.95076e-01,9.96664e-01
1.163046844e+00,4.28973e-01,9.99999e-01,4.31462e-01,9.95173e-01,9.99053e-01
1.168862078e+00,5.49948e-01,9.99999e-01,5.52832e-01,9.95268e-01,9.99511e-01
1.174706389e+00,6.89779e-01,9.99999e-01,6.93441e-01,9.95362e-01,9.99353e-01
1.180579921e+00,7.95215e-01,9.99999e-01,7.99628e-01,9.95453e-01,9.99022e-01
1.186482820e+00,8.76247e-01,9.99999e-01,8.81053e-01,9.95543e-01,9.98996e-01
1.192415234e+00,9.23984e-01,9.99999e-01,9.28736e-01,9.95630e-01,9.99248e-01
1.198377311e+00,9.34992e-01,9.99999e-01,9.39681e-01,9.95716e-01,9.99289e-01
1.204369197e+00,9.38299e-01,9.99999e-01,9.42860e-01,9.95801e-01,9.99357e-01
1.210391043e+00,9.40980e-01,9.99999e-01,9.45238e-01,9.95884e-01,9.99608e-01
1.216442998e+00,9.49080e-01,9.99999e-01,9.53152e-01,9.95965e-01,9.99760e-01
1.222525213e+00,9.59384e-01,9.99999e-01,9.63336e-01,9.96044e-01,9.99850e-01
1.228637839e+00,9.70564e-01,9.99999e-01,9.74409e-01,9.96122e-01,9.99930e-01
1.234781029e+00,9.77173e-01,9.99999e-01,9.80920e-01,9.96199e-01,9.99979e-01
1.240954934e+00,9.84217e-01,9.99999e-01,9.87903e-01,9.96274e-01,9.99993e-01
1.247159708e+00,9.86940e-01,9.99999e-01,9.90561e-01,9.96347e-01,9.99995e-01
1.253395507e+00,9.88071e-01,9.99999e-01,9.91625e-01,9.96419e-01,9.99994e-01
1.259662485e+00,9.88568e-01,9.99999e-01,9.92057e-01,9.96490e-01,9.99992e-01
1.265960797e+00,9.83906e-01,9.99999e-01,9.87314e-01,9.96559e-01,9.99987e-01
1.272290601e+00,9.78101e-01,9.99999e-01,9.81432e-01,9.96627e-01,9.99977e-01
1.278652054e+00,9.57949e-01,9.99999e-01,9.61163e-01,9.96693e-01,9.99960e-01
1.285045314e+00,9.36543e-01,9.99999e-01,9.39656e-01,9.96758e-01,9.99927e-01
1.291470541e+00,8.79395e-01,9.99999e-01,8.82309e-01,9.96822e-01,9.99873e-01
1.297927893e+00,8.46565e-01,9.99999e-01,8.49410e-01,9.96885e-01,9.99763e-01
1.304417533e+00,8.07623e-01,9.99999e-01,8.10501e-01,9.96946e-01,9.99499e-01
1.310939621e+00,7.83729e-01,9.99999e-01,7.86888e-01,9.97007e-01,9.98974e-01
1.317494319e+00,7.66540e-01,9.99999e-01,7.70256e-01,9.97066e-01,9.98103e-01
1.324081790e+00,6.75104e-01,9.99999e-01,6.79152e-01,9.97123e-01,9.96905e-01
1.330702199e+00,2.67260e-01,9.99999e-01,2.69451e-01,9.97180e-01,9.94670e-01
1.337355710e+00,2.60474e-02,9.99999e-01,2.63897e-02,9.97236e-01,9.89761e-01
1.344042489e+00,8.04420e-04,9.99999e-01,8.31998e-04,9.97290e-01,9.69478e-01
1.350762701e+00,1.59623e-08,9.99999e-01,1.77967e-08,9.97344e-01,8.99311e-01
1.357516515e+00,2.95393e-12,9.99999e-01,4.04386e-12,9.97396e-01,7.32378e-01
1.364304097e+00,4.87479e-08,9.99999e-01,8.43579e-08,9.97447e-01,5.79347e-01
1.371125618e+00,1.56343e-05,9.99999e-01,2.62220e-05,9.97498e-01,5.97721e-01
1.377981246e+00,5.57321e-05,9.99999e-01,8.68471e-05,9.97547e-01,6.43304e-01
1.384871152e+00,3.89277e-07,9.99999e-01,5.91224e-07,9.97595e-01,6.60011e-01
1.391795508e+00,6.36225e-08,9.99999e-01,9.45035e-08,9.97643e-01,6.74818e-01
1.398754485e+00,1.68317e-06,9.99999e-01,2.33185e-06,9.97689e-01,7.23490e-01
1.405748258e+00,2.05207e-06,9.99999e-01,2.48515e-06,9.97735e-01,8.27608e-01
1.412776999e+00,2.13936e-06,9.99999e-01,2.33758e-06,9.97780e-01,9.17236e-01
1.419840884e+00,4.76435e-06,9.99999e-01,4.95907e-06,9.97823e-01,9.62828e-01
1.426940089e+00,1.00839e-04,9.99999e-01,1.04005e-04,9.97866e-01,9.71631e-01
1.434074789e+00,6.96500e-04,9.99999e-01,7.22068e-04,9.97908e-01,9.66611e-01
1.441245163e+00,2.79895e-03,9.99999e-01,2.90978e-03,9.97950e-01,9.63885e-01
1.448451389e+00,1.66820e-02,9.99999e-01,1.72627e-02,9.97990e-01,9.68306e-01
1.455693646e+00,6.06654e-02,9.99999e-01,6.23276e-02,9.98030e-01,9.75250e-01
1.462972114e+00,8.45646e-02,9.99999e-01,8.67776e-02,9.98069e-01,9.76382e-01
1.470286975e+00,5.72771e-02,9.99999e-01,5.87498e-02,9.98107e-01,9.76780e-01
