#,Wave/freq,Total,N2,H2O,Rayleigh,CIA
4.000000000e-01,7.44273e-01,9.99999e-01,9.99966e-01,7.44298e-01,9.99999e-01
4.020000000e-01,7.48641e-01,9.99999e-01,9.99978e-01,7.48656e-01,9.99999e-01
4.040100000e-01,7.52943e-01,9.99999e-01,9.99990e-01,7.52949e-01,9.99999e-01
4.060300500e-01,7.57180e-01,9.99999e-01,9.99997e-01,7.57181e-01,9.99999e-01
4.080602003e-01,7.61352e-01,9.99999e-01,9.99998e-01,7.61353e-01,9.99999e-01
4.101005013e-01,7.65464e-01,9.99999e-01,9.99999e-01,7.65464e-01,9.99999e-01
4.121510038e-01,7.69515e-01,9.99999e-01,9.99998e-01,7.69516e-01,9.99999e-01
4.142117588e-01,7.73502e-01,9.99999e-01,9.99990e-01,7.73509e-01,9.99999e-01
4.162828176e-01,7.77410e-01,9.99999e-01,9.99958e-01,7.77443e-01,9.99999e-01
4.183642317e-01,7.81299e-01,9.99999e-01,9.99974e-01,7.81318e-01,9.99999e-01
4.204560528e-01,7.85124e-01,9.99999e-01,9.99984e-01,7.85136e-01,9.99999e-01
4.225583331e-01,7.88892e-01,9.99999e-01,9.99993e-01,7.88896e-01,9.99999e-01
4.246711247e-01,7.92596e-01,9.99999e-01,9.99995e-01,7.92600e-01,9.99999e-01
4.267944804e-01,7.96242e-01,9.99999e-01,9.99992e-01,7.96247e-01,9.99999e-01
4.289284528e-01,7.99835e-01,9.99999e-01,9.99994e-01,7.99839e-01,9.99999e-01
4.310730950e-01,8.03373e-01,9.99999e-01,9.99997e-01,8.03375e-01,9.99999e-01
4.332284605e-01,8.06856e-01,9.99999e-01,9.99998e-01,8.06857e-01,9.99999e-01
4.353946028e-01,8.10284e-01,9.99999e-01,9.99999e-01,8.10284e-01,9.99999e-01
4.375715758e-01,8.13655e-01,9.99999e-01,9.99995e-01,8.13658e-01,9.99999e-01
4.397594337e-01,8.16950e-01,9.99999e-01,9.99963e-01,8.16979e-01,9.99999e-01
4.419582309e-01,8.20099e-01,9.99999e-01,9.99818e-01,8.20248e-01,9.99999e-01
4.441680220e-01,8.23345e-01,9.99999e-01,9.99854e-01,8.23465e-01,9.99999e-01
4.463888621e-01,8.26506e-01,9.99999e-01,9.99850e-01,8.26630e-01,9.99999e-01
4.486208064e-01,8.29667e-01,9.99999e-01,9.99906e-01,8.29745e-01,9.99999e-01
4.508639105e-01,8.32773e-01,9.99999e-01,9.99955e-01,8.32809e-01,9.99999e-01
4.531182300e-01,8.35810e-01,9.99999e-01,9.99982e-01,8.35824e-01,9.99999e-01
4.553838212e-01,8.38780e-01,9.99999e-01,9.99987e-01,8.38790e-01,9.99999e-01
4.576607403e-01,8.41703e-01,9.99999e-01,9.99994e-01,8.41708e-01,9.99999e-01
4.599490440e-01,8.44574e-01,9.99999e-01,9.99995e-01,8.44578e-01,9.99999e-01
4.622487892e-01,8.47400e-01,9.99999e-01,9.99998e-01,8.47400e-01,9.99999e-01
4.645600332e-01,8.50174e-01,9.99999e-01,9.99996e-01,8.50176e-01,9.99999e-01
4.668828333e-01,8.52869e-01,9.99999e-01,9.99955e-01,8.52906e-01,9.99999e-01
4.692172475e-01,8.55511e-01,9.99999e-01,9.99905e-01,8.55591e-01,9.99999e-01
4.715633337e-01,8.58178e-01,9.99999e-01,9.99938e-01,8.58231e-01,9.99999e-01
4.739211504e-01,8.60776e-01,9.99999e-01,9.99940e-01,8.60826e-01,9.99999e-01
4.762907561e-01,8.63352e-01,9.99999e-01,9.99968e-01,8.63378e-01,9.99999e-01
4.786722099e-01,8.65876e-01,9.99999e-01,9.99987e-01,8.65887e-01,9.99999e-01
4.810655710e-01,8.68350e-01,9.99999e-01,9.99995e-01,8.68354e-01,9.99999e-01
4.834708988e-01,8.70748e-01,9.99999e-01,9.99964e-01,8.70778e-01,9.99999e-01
4.858882533e-01,8.73103e-01,9.99999e-01,9.99932e-01,8.73161e-01,9.99999e-01
4.883176946e-01,8.75455e-01,9.99999e-01,9.99944e-01,8.75504e-01,9.99999e-01
4.907592831e-01,8.77762e-01,9.99999e-01,9.99949e-01,8.77806e-01,9.99999e-01
4.932130795e-01,8.80037e-01,9.99999e-01,9.99963e-01,8.80069e-01,9.99999e-01
4.956791449e-01,8.82276e-01,9.99999e-01,9.99980e-01,8.82292e-01,9.99999e-01
4.981575406e-01,8.84395e-01,9.99999e-01,9.99905e-01,8.84477e-01,9.99999e-01
5.006483283e-01,8.86409e-01,9.99999e-01,9.99758e-01,8.86625e-01,9.99997e-01
5.031515699e-01,8.87625e-01,9.99999e-01,9.98764e-01,8.88735e-01,9.99986e-01
5.056673278e-01,8.90212e-01,9.99999e-01,9.99345e-01,8.90808e-01,9.99984e-01
5.081956644e-01,8.92099e-01,9.99999e-01,9.99173e-01,8.92845e-01,9.99989e-01
5.107366428e-01,8.94345e-01,9.99999e-01,9.99441e-01,8.94846e-01,9.99997e-01
5.132903260e-01,8.96525e-01,9.99999e-01,9.99679e-01,8.96812e-01,9.99999e-01
5.158567776e-01,8.98621e-01,9.99999e-01,9.99864e-01,8.98743e-01,9.99999e-01
5.184360615e-01,9.00591e-01,9.99999e-01,9.99945e-01,9.00640e-01,9.99999e-01
5.210282418e-01,9.02486e-01,9.99999e-01,9.99979e-01,9.02504e-01,9.99999e-01
5.236333830e-01,9.04261e-01,9.99999e-01,9.99918e-01,9.04334e-01,9.99998e-01
5.262515499e-01,9.06086e-01,9.99999e-01,9.99948e-01,9.06132e-01,9.99998e-01
5.288828077e-01,9.07856e-01,9.99999e-01,9.99953e-01,9.07898e-01,9.99998e-01
5.315272217e-01,9.09595e-01,9.99999e-01,9.99958e-01,9.09633e-01,9.99999e-01
5.341848578e-01,9.11312e-01,9.99999e-01,9.99973e-01,9.11336e-01,9.99999e-01
5.368557821e-01,9.12923e-01,9.99999e-01,9.99906e-01,9.13009e-01,9.99999e-01
5.395400610e-01,9.14343e-01,9.99999e-01,9.99664e-01,9.14652e-01,9.99996e-01
5.422377613e-01,9.15855e-01,9.99999e-01,9.99559e-01,9.16265e-01,9.99991e-01
5.449489501e-01,9.17469e-01,9.99999e-01,9.99593e-01,9.17849e-01,9.99991e-01
5.476736949e-01,9.19067e-01,9.99999e-01,9.99636e-01,9.19404e-01,9.99995e-01
5.504120634e-01,9.20688e-01,9.99999e-01,9.99736e-01,9.20931e-01,9.99998e-01
5.531641237e-01,9.22309e-01,9.99999e-01,9.99867e-01,9.22431e-01,9.99999e-01
5.559299443e-01,9.23844e-01,9.99999e-01,9.99935e-01,9.23903e-01,9.99999e-01
5.587095940e-01,9.25312e-01,9.99999e-01,9.99959e-01,9.25349e-01,9.99999e-01
5.615031420e-01,9.26727e-01,9.99999e-01,9.99955e-01,9.26768e-01,9.99999e-01
5.643106577e-01,9.28115e-01,9.99999e-01,9.99949e-01,9.28161e-01,9.99999e-01
5.671322110e-01,9.28967e-01,9.99999e-01,9.99399e-01,9.29529e-01,9.99994e-01
5.699678720e-01,9.30244e-01,9.99999e-01,9.99342e-01,9.30872e-01,9.99982e-01
5.728177114e-01,9.31546e-01,9.99999e-01,9.99323e-01,9.32190e-01,9.99985e-01
5.756818000e-01,9.32895e-01,9.99999e-01,9.99377e-01,9.33484e-01,9.99991e-01
5.785602090e-01,9.34243e-01,9.99999e-01,9.99455e-01,9.34754e-01,9.99996e-01
5.814530100e-01,9.35489e-01,9.99999e-01,9.99454e-01,9.36000e-01,9.99998e-01
5.843602750e-01,9.36617e-01,9.99999e-01,9.99356e-01,9.37224e-01,9.99995e-01
5.872820764e-01,9.33183e-01,9.99999e-01,9.94452e-01,9.38425e-01,9.99960e-01
5.902184868e-01,9.33128e-01,9.99999e-01,9.93214e-01,9.39603e-01,9.99892e-01
5.931695792e-01,9.36165e-01,9.99999e-01,9.95218e-01,9.40760e-01,9.99895e-01
5.961354271e-01,9.36889e-01,9.99999e-01,9.94746e-01,9.41896e-01,9.99936e-01
5.991161043e-01,9.39374e-01,9.99999e-01,9.96162e-01,9.43010e-01,9.99981e-01
6.021116848e-01,9.42042e-01,9.99999e-01,9.97817e-01,9.44104e-01,9.99997e-01
6.051222432e-01,9.44133e-01,9.99999e-01,9.98894e-01,9.45177e-01,9.99999e-01
6.081478544e-01,9.45780e-01,9.99999e-01,9.99523e-01,9.46230e-01,9.99999e-01
6.111885937e-01,9.47072e-01,9.99999e-01,9.99797e-01,9.47264e-01,9.99999e-01
6.142445367e-01,9.48193e-01,9.99999e-01,9.99909e-01,9.48278e-01,9.99999e-01
6.173157594e-01,9.49226e-01,9.99999e-01,9.99949e-01,9.49273e-01,9.99999e-01
6.204023382e-01,9.50210e-01,9.99999e-01,9.99957e-01,9.50250e-01,9.99999e-01
6.235043498e-01,9.51036e-01,9.99999e-01,9.99818e-01,9.51208e-01,9.99999e-01
6.266218716e-01,9.51214e-01,9.99999e-01,9.99024e-01,9.52148e-01,9.99992e-01
6.297549810e-01,9.52717e-01,9.99999e-01,9.99642e-01,9.53071e-01,9.99985e-01
6.329037559e-01,9.53290e-01,9.99999e-01,9.99290e-01,9.53976e-01,9.99988e-01
6.360682746e-01,9.54285e-01,9.99999e-01,9.99398e-01,9.54865e-01,9.99993e-01
6.392486160e-01,9.54987e-01,9.99999e-01,9.99219e-01,9.55736e-01,9.99996e-01
6.424448591e-01,9.55692e-01,9.99999e-01,9.99064e-01,9.56591e-01,9.99994e-01
6.456570834e-01,9.52841e-01,9.99999e-01,9.95233e-01,9.57430e-01,9.99972e-01
6.488853688e-01,9.54179e-01,9.99999e-01,9.95822e-01,9.58253e-01,9.99924e-01
6.521297956e-01,9.55524e-01,9.99999e-01,9.96374e-01,9.59060e-01,9.99936e-01
6.553904446e-01,9.56373e-01,9.99999e-01,9.96421e-01,9.59853e-01,9.99952e-01
6.586673968e-01,9.57642e-01,9.99999e-01,9.96904e-01,9.60630e-01,9.99984e-01
6.619607338e-01,9.59669e-01,9.99999e-01,9.98210e-01,9.61392e-01,9.99996e-01
6.652705375e-01,9.61139e-01,9.99999e-01,9.98960e-01,9.62140e-01,9.99997e-01
6.685968902e-01,9.62409e-01,9.99999e-01,9.99517e-01,9.62874e-01,9.99999e-01
6.719398746e-01,9.63378e-01,9.99999e-01,9.99775e-01,9.63594e-01,9.99999e-01
6.752995740e-01,9.64184e-01,9.99999e-01,9.99878e-01,9.64300e-01,9.99999e-01
6.786760719e-01,9.64825e-01,9.99999e-01,9.99826e-01,9.64993e-01,9.99999e-01
6.820694522e-01,9.65384e-01,9.99999e-01,9.99702e-01,9.65672e-01,9.99997e-01
6.854797995e-01,9.65965e-01,9.99999e-01,9.99616e-01,9.66338e-01,9.99996e-01
6.889071985e-01,9.66103e-01,9.99999e-01,9.99087e-01,9.66992e-01,9.99991e-01
6.923517345e-01,9.53063e-01,9.99999e-01,9.85013e-01,9.67634e-01,9.99926e-01
6.958134932e-01,9.60377e-01,9.99999e-01,9.92018e-01,9.68263e-01,9.99835e-01
6.992925606e-01,9.61540e-01,9.99999e-01,9.92567e-01,9.68880e-01,9.99855e-01
7.027890234e-01,9.60415e-01,9.99999e-01,9.90753e-01,9.69485e-01,9.99888e-01
7.063029686e-01,9.62487e-01,9.99999e-01,9.92228e-01,9.70078e-01,9.99944e-01
7.098344834e-01,9.63391e-01,9.99999e-01,9.92541e-01,9.70661e-01,9.99966e-01
7.133836558e-01,9.61661e-01,9.99999e-01,9.90208e-01,9.71232e-01,9.99934e-01
7.169505741e-01,8.96996e-01,9.99999e-01,9.23503e-01,9.71792e-01,9.99489e-01
7.205353270e-01,9.33635e-01,9.99999e-01,9.61056e-01,9.72341e-01,9.99100e-01
7.241380036e-01,9.25013e-01,9.99999e-01,9.51542e-01,9.72880e-01,9.99217e-01
7.277586936e-01,9.30099e-01,9.99999e-01,9.56128e-01,9.73409e-01,9.99349e-01
7.313974871e-01,9.27951e-01,9.99999e-01,9.53076e-01,9.73927e-01,9.99702e-01
7.350544745e-01,9.49139e-01,9.99999e-01,9.74139e-01,9.74435e-01,9.99896e-01
7.387297469e-01,9.56256e-01,9.99999e-01,9.80887e-01,9.74934e-01,9.99952e-01
7.424233956e-01,9.66227e-01,9.99999e-01,9.90580e-01,9.75423e-01,9.99990e-01
7.461355126e-01,9.70332e-01,9.99999e-01,9.94292e-01,9.75902e-01,9.99997e-01
7.498661902e-01,9.73768e-01,9.99999e-01,9.97332e-01,9.76373e-01,9.99998e-01
7.536155211e-01,9.75559e-01,9.99999e-01,9.98694e-01,9.76834e-01,9.99999e-01
7.573835987e-01,9.76629e-01,9.99999e-01,9.99327e-01,9.77286e-01,9.99999e-01
7.611705167e-01,9.77322e-01,9.99999e-01,9.99581e-01,9.77730e-01,9.99999e-01
7.649763693e-01,9.77909e-01,9.99999e-01,9.99738e-01,9.78165e-01,9.99999e-01
7.688012511e-01,9.78414e-01,9.99999e-01,9.99817e-01,9.78591e-01,9.99999e-01
7.726452574e-01,9.78864e-01,9.99999e-01,9.99850e-01,9.79010e-01,9.99999e-01
7.765084837e-01,9.79214e-01,9.99999e-01,9.99788e-01,9.79420e-01,9.99999e-01
7.803910261e-01,9.78931e-01,9.99999e-01,9.99090e-01,9.79822e-01,9.99998e-01
7.842929812e-01,9.77105e-01,9.99999e-01,9.96830e-01,9.80217e-01,9.99993e-01
7.882144461e-01,9.74112e-01,9.99999e-01,9.93418e-01,9.80604e-01,9.99959e-01
7.921555184e-01,9.77344e-01,9.99999e-01,9.96367e-01,9.80983e-01,9.99921e-01
7.961162960e-01,9.75063e-01,9.99999e-01,9.93661e-01,9.81356e-01,9.99924e-01
8.000968774e-01,9.74415e-01,9.99999e-01,9.92637e-01,9.81720e-01,9.99920e-01
8.040973618e-01,9.74795e-01,9.99999e-01,9.92646e-01,9.82078e-01,9.99936e-01
8.081178486e-01,9.66273e-01,9.99999e-01,9.83612e-01,9.82429e-01,9.99940e-01
8.121584379e-01,9.17034e-01,9.99999e-01,9.33325e-01,9.82773e-01,9.99766e-01
8.162192301e-01,9.04226e-01,9.99999e-01,9.20565e-01,9.83110e-01,9.99124e-01
8.203003262e-01,9.43620e-01,9.99999e-01,9.60491e-01,9.83441e-01,9.98975e-01
8.244018279e-01,9.27832e-01,9.99999e-01,9.43912e-01,9.83766e-01,9.99184e-01
8.285238370e-01,9.36343e-01,9.99999e-01,9.52096e-01,9.84084e-01,9.99359e-01
8.326664562e-01,9.36303e-01,9.99999e-01,9.51396e-01,9.84396e-01,9.99734e-01
8.368297885e-01,9.50131e-01,9.99999e-01,9.64950e-01,9.84701e-01,9.99939e-01
8.410139374e-01,9.64299e-01,9.99999e-01,9.79016e-01,9.85001e-01,9.99964e-01
8.452190071e-01,9.75073e-01,9.99999e-01,9.89645e-01,9.85295e-01,9.99978e-01
8.494451021e-01,9.79658e-01,9.99999e-01,9.94003e-01,9.85584e-01,9.99982e-01
8.536923276e-01,9.82344e-01,9.99999e-01,9.96437e-01,9.85866e-01,9.99988e-01
8.579607893e-01,9.83984e-01,9.99999e-01,9.97812e-01,9.86144e-01,9.99996e-01
8.622505932e-01,9.85041e-01,9.99999e-01,9.98606e-01,9.86415e-01,9.99999e-01
8.665618462e-01,9.85835e-01,9.99999e-01,9.99140e-01,9.86682e-01,9.99999e-01
8.708946554e-01,9.85975e-01,9.99999e-01,9.99018e-01,9.86943e-01,9.99998e-01
8.752491287e-01,9.85902e-01,9.99999e-01,9.98686e-01,9.87200e-01,9.99998e-01
8.796253743e-01,9.85657e-01,9.99999e-01,9.98187e-01,9.87451e-01,9.99995e-01
8.840235012e-01,9.85638e-01,9.99999e-01,9.97927e-01,9.87697e-01,9.99986e-01
8.884436187e-01,9.80596e-01,9.99999e-01,9.92602e-01,9.87939e-01,9.99963e-01
8.928858368e-01,9.12729e-01,9.99999e-01,9.23841e-01,9.88175e-01,9.99791e-01
8.973502660e-01,8.57143e-01,9.99999e-01,8.68118e-01,9.88408e-01,9.98935e-01
9.018370173e-01,9.17745e-01,9.99999e-01,9.29849e-01,9.88635e-01,9.98326e-01
9.063462024e-01,9.27110e-01,9.99999e-01,9.38934e-01,9.88858e-01,9.98530e-01
9.108779334e-01,8.94667e-01,9.99999e-01,9.05929e-01,9.89077e-01,9.98472e-01
9.154323231e-01,8.82862e-01,9.99999e-01,8.93545e-01,9.89292e-01,9.98737e-01
9.200094847e-01,9.05224e-01,9.99999e-01,9.15473e-01,9.89502e-01,9.99292e-01
9.246095321e-01,8.64936e-01,9.99999e-01,8.74641e-01,9.89709e-01,9.99185e-01
9.292325798e-01,4.05229e-01,9.99999e-01,4.10662e-01,9.89911e-01,9.96828e-01
9.338787427e-01,3.07411e-01,9.99999e-01,3.14586e-01,9.90109e-01,9.86954e-01
9.385481364e-01,6.10119e-01,9.99999e-01,6.25790e-01,9.90303e-01,9.84503e-01
9.432408771e-01,5.17795e-01,9.99999e-01,5.29856e-01,9.90494e-01,9.86616e-01
9.479570815e-01,4.10222e-01,9.99999e-01,4.18646e-01,9.90681e-01,9.89093e-01
9.526968669e-01,5.04912e-01,9.99999e-01,5.12987e-01,9.90864e-01,9.93333e-01
9.574603512e-01,5.28634e-01,9.99999e-01,5.35226e-01,9.91044e-01,9.96607e-01
9.622476530e-01,5.91754e-01,9.99999e-01,5.98399e-01,9.91220e-01,9.97653e-01
9.670588912e-01,7.35867e-01,9.99999e-01,7.43449e-01,9.91393e-01,9.98394e-01
9.718941857e-01,8.21867e-01,9.99999e-01,8.29841e-01,9.91562e-01,9.98817e-01
9.767536566e-01,8.48688e-01,9.99999e-01,8.56540e-01,9.91728e-01,9.99096e-01
9.816374249e-01,8.83679e-01,9.99999e-01,8.91182e-01,9.91890e-01,9.99686e-01
9.865456120e-01,9.23020e-01,9.99999e-01,9.30477e-01,9.92050e-01,9.99934e-01
9.914783401e-01,9.48975e-01,9.99999e-01,9.56445e-01,9.92206e-01,9.99981e-01
9.964357318e-01,9.68568e-01,9.99999e-01,9.76035e-01,9.92360e-01,9.99988e-01
1.001417910e+00,9.78167e-01,9.99999e-01,9.85563e-01,9.92510e-01,9.99983e-01
1.006425000e+00,9.84460e-01,9.99999e-01,9.91763e-01,9.92657e-01,9.99976e-01
1.011457125e+00,9.87685e-01,9.99999e-01,9.94866e-01,9.92802e-01,9.99978e-01
1.016514411e+00,9.89472e-01,9.99999e-01,9.96518e-01,9.92944e-01,9.99984e-01
1.021596983e+00,9.90314e-01,9.99999e-01,9.97226e-01,9.93082e-01,9.99984e-01
1.026704968e+00,9.91062e-01,9.99999e-01,9.97837e-01,9.93219e-01,9.99989e-01
1.031838492e+00,9.91785e-01,9.99999e-01,9.98424e-01,9.93352e-01,9.99996e-01
1.036997685e+00,9.92555e-01,9.99999e-01,9.99066e-01,9.93483e-01,9.99999e-01
1.042182673e+00,9.92509e-01,9.99999e-01,9.98890e-01,9.93611e-01,9.99999e-01
1.047393587e+00,9.92273e-01,9.99999e-01,9.98526e-01,9.93737e-01,9.99999e-01
1.052630555e+00,9.91854e-01,9.99999e-01,9.97981e-01,9.93860e-01,9.99999e-01
1.057893707e+00,9.90638e-01,9.99999e-01,9.96636e-01,9.93981e-01,9.99998e-01
1.063183176e+00,9.88594e-01,9.99999e-01,9.94464e-01,9.94100e-01,9.99996e-01
1.068499092e+00,9.84997e-01,9.99999e-01,9.90733e-01,9.94216e-01,9.99993e-01
1.073841587e+00,9.83564e-01,9.99999e-01,9.89185e-01,9.94330e-01,9.99985e-01
1.079210795e+00,9.80594e-01,9.99999e-01,9.86111e-01,9.94442e-01,9.99962e-01
1.084606849e+00,9.73667e-01,9.99999e-01,9.79088e-01,9.94551e-01,9.99910e-01
1.090029883e+00,9.64923e-01,9.99999e-01,9.70284e-01,9.94658e-01,9.99814e-01
1.095480033e+00,9.15814e-01,9.99999e-01,9.20943e-01,9.94764e-01,9.99664e-01
1.100957433e+00,8.07064e-01,9.99999e-01,8.11729e-01,9.94867e-01,9.99382e-01
1.106462220e+00,5.89313e-01,9.99999e-01,5.92914e-01,9.94968e-01,9.98952e-01
1.111994531e+00,3.32723e-01,9.99999e-01,3.35303e-01,9.95067e-01,9.97222e-01
1.117554504e+00,1.71633e-01,9.99999e-01,1.74207e-01,9.95164e-01,9.90009e-01
1.123142276e+00,2.78455e-01,9.99999e-01,2.86522e-01,9.95259e-01,9.76472e-01
1.128757988e+00,4.25167e-01,9.99999e-01,4.39081e-01,9.95353e-01,9.72832e-01
1.134401778e+00,2.07096e-01,9.99999e-01,2.13092e-01,9.95444e-01,9.76310e-01
1.140073787e+00,5.92222e-01,9.99999e-01,6.06417e-01,9.95534e-01,9.80972e-01
1.145774156e+00,3.52272e-01,9.99999e-01,3.59933e-01,9.95622e-01,9.83017e-01
1.151503026e+00,3.19155e-01,9.99999e-01,3.23603e-01,9.95708e-01,9.90503e-01
1.157260541e+00,3.76027e-01,9.99999e-01,3.78694e-01,9.95793e-01,9.97150e-01
1.163046844e+00,4.82993e-01,9.99999e-01,4.85385e-01,9.95876e-01,9.99191e-01
1.168862078e+00,5.99078e-01,9.99999e-01,6.01760e-01,9.95957e-01,9.99583e-01
1.174706389e+00,7.27543e-01,9.99999e-01,7.30840e-01,9.96037e-01,9.99447e-01
1.180579921e+00,8.21883e-01,9.99999e-01,8.25777e-01,9.96115e-01,9.99164e-01
1.186482820e+00,8.93191e-01,9.99999e-01,8.97373e-01,9.96192e-01,9.99142e-01
1.192415234e+00,9.34674e-01,9.99999e-01,9.38778e-01,9.96267e-01,9.99357e-01
1.198377311e+00,9.44210e-01,9.99999e-01,9.48252e-01,9.96340e-01,9.99393e-01
1.204369197e+00,9.47027e-01,9.99999e-01,9.50957e-01,9.96412e-01,9.99451e-01
1.210391043e+00,9.49347e-01,9.99999e-01,9.53014e-01,9.96483e-01,9.99665e-01
1.216442998e+00,9.56296e-01,9.99999e-01,9.59800e-01,9.96552e-01,9.99795e-01
1.222525213e+00,9.65184e-01,9.99999e-01,9.68579e-01,9.96620e-01,9.99872e-01
1.228637839e+00,9.74796e-01,9.99999e-01,9.78093e-01,9.96687e-01,9.99940e-01
1.234781029e+00,9.80458e-01,9.99999e-01,9.83669e-01,9.96752e-01,9.99982e-01
1.240954934e+00,9.86500e-01,9.99999e-01,9.89654e-01,9.96816e-01,9.99994e-01
1.247159708e+00,9.88830e-01,9.99999e-01,9.91928e-01,9.96879e-01,9.99996e-01
1.253395507e+00,9.89801e-01,9.99999e-01,9.92841e-01,9.96941e-01,9.99995e-01
1.259662485e+00,9.90283e-01,9.99999e-01,9.93268e-01,9.97001e-01,9.99993e-01
1.265960797e+00,9.86280e-01,9.99999e-01,9.89198e-01,9.97060e-01,9.99989e-01
1.272290601e+00,9.81290e-01,9.99999e-01,9.84144e-01,9.97118e-01,9.99980e-01
1.278652054e+00,9.64009e-01,9.99999e-01,9.66771e-01,9.97175e-01,9.99966e-01
1.285045314e+00,9.45643e-01,9.99999e-01,9.48326e-01,9.97231e-01,9.99938e-01
1.291470541e+00,8.96096e-01,9.99999e-01,8.98631e-01,9.97285e-01,9.99891e-01
1.297927893e+00,8.67332e-01,9.99999e-01,8.69821e-01,9.97339e-01,9.99798e-01
1.304417533e+00,8.32886e-01,9.99999e-01,8.35420e-01,9.97391e-01,9.99572e-01
1.310939621e+00,8.12051e-01,9.99999e-01,8.14846e-01,9.97443e-01,9.99123e-01
1.317494319e+00,7.96305e-01,9.99999e-01,7.99601e-01,9.97493e-01,9.98379e-01
1.324081790e+00,7.13980e-01,9.99999e-01,7.17635e-01,9.97542e-01,9.97356e-01
1.330702199e+00,3.11647e-01,9.99999e-01,3.13828e-01,9.97591e-01,9.95446e-01
1.337355710e+00,4.16287e-02,9.99999e-01,4.20956e-02,9.97638e-01,9.91249e-01
1.344042489e+00,1.47055e-03,9.99999e-01,1.51350e-03,9.97685e-01,9.73874e-01
1.350762701e+00,1.57658e-07,9.99999e-01,1.73008e-07,9.97731e-01,9.13350e-01
1.357516515e+00,1.04679e-10,9.99999e-01,1.36882e-10,9.97775e-01,7.66442e-01
1.364304097e+00,4.21212e-07,9.99999e-01,6.72832e-07,9.97819e-01,6.27395e-01
1.371125618e+00,5.73643e-05,9.99999e-01,8.92172e-05,9.97862e-01,6.44350e-01
1.377981246e+00,1.96736e-04,9.99999e-01,2.87352e-04,9.97904e-01,6.86089e-01
1.384871152e+00,2.04359e-06,9.99999e-01,2.92009e-06,9.97946e-01,7.01278e-01
1.391795508e+00,5.75931e-07,9.99999e-01,8.07469e-07,9.97986e-01,7.14693e-01
1.398754485e+00,8.87408e-06,9.99999e-01,1.17228e-05,9.98026e-01,7.58491e-01
1.405748258e+00,1.03473e-05,9.99999e-01,1.21856e-05,9.98065e-01,8.50784e-01
1.412776999e+00,1.03608e-05,9.99999e-01,1.11753e-05,9.98103e-01,9.28875e-01
1.419840884e+00,2.25392e-05,9.99999e-01,2.33236e-05,9.98141e-01,9.68166e-01
1.426940089e+00,2.78150e-04,9.99999e-01,2.85592e-04,9.98177e-01,9.75721e-01
1.434074789e+00,1.69591e-03,9.99999e-01,1.74894e-03,9.98213e-01,9.71414e-01
1.441245163e+00,5.99543e-03,9.99999e-01,6.19760e-03,9.98248e-01,9.69074e-01
1.448451389e+00,2.79018e-02,9.99999e-01,2.87292e-02,9.98283e-01,9.72869e-01
1.455693646e+00,8.67557e-02,9.99999e-01,8.87818e-02,9.98317e-01,9.78824e-01
1.462972114e+00,1.17949e-01,9.99999e-01,1.20580e-01,9.98350e-01,9.79794e-01
1.470286975e+00,8.38509e-02,9.99999e-01,8.56888e-02,9.98383e-01,9.80135e-01
