#,Wave/freq,Total,N2,H2O,Rayleigh,CIA
4.000000000e-01,2.57331e-01,9.99999e-01,9.99846e-01,2.57371e-01,9.99999e-01
4.020000000e-01,2.64346e-01,9.99999e-01,9.99904e-01,2.64371e-01,9.99999e-01
4.040100000e-01,2.71400e-01,9.99999e-01,9.99959e-01,2.71410e-01,9.99999e-01
4.060300500e-01,2.78490e-01,9.99999e-01,9.99990e-01,2.78493e-01,9.99999e-01
4.080602003e-01,2.85614e-01,9.99999e-01,9.99996e-01,2.85614e-01,9.99999e-01
4.101005013e-01,2.92772e-01,9.99999e-01,9.99999e-01,2.92772e-01,9.99999e-01
4.121510038e-01,2.99961e-01,9.99999e-01,9.99993e-01,2.99963e-01,9.99999e-01
4.142117588e-01,3.07170e-01,9.99999e-01,9.99957e-01,3.07182e-01,9.99999e-01
4.162828176e-01,3.14369e-01,9.99999e-01,9.99809e-01,3.14428e-01,9.99999e-01
4.183642317e-01,3.21661e-01,9.99999e-01,9.99886e-01,3.21697e-01,9.99999e-01
4.204560528e-01,3.28962e-01,9.99999e-01,9.99930e-01,3.28985e-01,9.99999e-01
4.225583331e-01,3.36280e-01,9.99999e-01,9.99973e-01,3.36289e-01,9.99999e-01
4.246711247e-01,3.43600e-01,9.99999e-01,9.99979e-01,3.43607e-01,9.99999e-01
4.267944804e-01,3.50923e-01,9.99999e-01,9.99969e-01,3.50934e-01,9.99999e-01
4.289284528e-01,3.58260e-01,9.99999e-01,9.99976e-01,3.58268e-01,9.99999e-01
4.310730950e-01,3.65603e-01,9.99999e-01,9.99989e-01,3.65606e-01,9.99999e-01
4.332284605e-01,3.72944e-01,9.99999e-01,9.99996e-01,3.72945e-01,9.99999e-01
4.353946028e-01,3.80282e-01,9.99999e-01,9.99998e-01,3.80283e-01,9.99999e-01
4.375715758e-01,3.87608e-01,9.99999e-01,9.99980e-01,3.87615e-01,9.99999e-01
4.397594337e-01,3.94874e-01,9.99999e-01,9.99833e-01,3.94939e-01,9.99999e-01
4.419582309e-01,4.01915e-01,9.99999e-01,9.99158e-01,4.02254e-01,9.99999e-01
4.441680220e-01,4.09284e-01,9.99999e-01,9.99338e-01,4.09555e-01,9.99999e-01
4.463888621e-01,4.16554e-01,9.99999e-01,9.99312e-01,4.16840e-01,9.99999e-01
4.486208064e-01,4.23927e-01,9.99999e-01,9.99572e-01,4.24108e-01,9.99999e-01
4.508639105e-01,4.31269e-01,9.99999e-01,9.99799e-01,4.31355e-01,9.99999e-01
4.531182300e-01,4.38544e-01,9.99999e-01,9.99920e-01,4.38579e-01,9.99999e-01
4.553838212e-01,4.45753e-01,9.99999e-01,9.99945e-01,4.45777e-01,9.99999e-01
4.576607403e-01,4.52937e-01,9.99999e-01,9.99974e-01,4.52948e-01,9.99999e-01
4.599490440e-01,4.60082e-01,9.99999e-01,9.99982e-01,4.60090e-01,9.99999e-01
4.622487892e-01,4.67198e-01,9.99999e-01,9.99996e-01,4.67199e-01,9.99999e-01
4.645600332e-01,4.74270e-01,9.99999e-01,9.99987e-01,4.74275e-01,9.99999e-01
4.668828333e-01,4.81218e-01,9.99999e-01,9.99798e-01,4.81315e-01,9.99999e-01
4.692172475e-01,4.88107e-01,9.99999e-01,9.99568e-01,4.88318e-01,9.99999e-01
4.715633337e-01,4.95141e-01,9.99999e-01,9.99718e-01,4.95281e-01,9.99999e-01
4.739211504e-01,5.02067e-01,9.99999e-01,9.99729e-01,5.02202e-01,9.99999e-01
4.762907561e-01,5.09010e-01,9.99999e-01,9.99859e-01,5.09081e-01,9.99999e-01
4.786722099e-01,5.15886e-01,9.99999e-01,9.99942e-01,5.15916e-01,9.99999e-01
4.810655710e-01,5.22695e-01,9.99999e-01,9.99982e-01,5.22704e-01,9.99999e-01
4.834708988e-01,5.29359e-01,9.99999e-01,9.99835e-01,5.29445e-01,9.99999e-01
4.858882533e-01,5.35974e-01,9.99999e-01,9.99694e-01,5.36138e-01,9.99999e-01
4.883176946e-01,5.42642e-01,9.99999e-01,9.99744e-01,5.42780e-01,9.99999e-01
4.907592831e-01,5.49244e-01,9.99999e-01,9.99768e-01,5.49371e-01,9.99999e-01
4.932130795e-01,5.55818e-01,9.99999e-01,9.99835e-01,5.55909e-01,9.99999e-01
4.956791449e-01,5.62345e-01,9.99999e-01,9.99912e-01,5.62394e-01,9.99999e-01
4.981575406e-01,5.68578e-01,9.99999e-01,9.99567e-01,5.68824e-01,9.99999e-01
5.006483283e-01,5.74551e-01,9.99999e-01,9.98881e-01,5.75199e-01,9.99991e-01
5.031515699e-01,5.78185e-01,9.99999e-01,9.94330e-01,5.81517e-01,9.99939e-01
5.056673278e-01,5.85973e-01,9.99999e-01,9.96999e-01,5.87777e-01,9.99931e-01
5.081956644e-01,5.91705e-01,9.99999e-01,9.96214e-01,5.93979e-01,9.99955e-01
5.107366428e-01,5.98583e-01,9.99999e-01,9.97442e-01,6.00122e-01,9.99991e-01
5.132903260e-01,6.05319e-01,9.99999e-01,9.98537e-01,6.06206e-01,9.99998e-01
5.158567776e-01,6.11850e-01,9.99999e-01,9.99381e-01,6.12229e-01,9.99999e-01
5.184360615e-01,6.18038e-01,9.99999e-01,9.99752e-01,6.18191e-01,9.99999e-01
5.210282418e-01,6.24034e-01,9.99999e-01,9.99907e-01,6.24092e-01,9.99999e-01
5.236333830e-01,6.29696e-01,9.99999e-01,9.99629e-01,6.29931e-01,9.99996e-01
5.262515499e-01,6.35558e-01,9.99999e-01,9.99767e-01,6.35708e-01,9.99995e-01
5.288828077e-01,6.41284e-01,9.99999e-01,9.99787e-01,6.41422e-01,9.99997e-01
5.315272217e-01,6.46951e-01,9.99999e-01,9.99812e-01,6.47072e-01,9.99998e-01
5.341848578e-01,6.52580e-01,9.99999e-01,9.99877e-01,6.52660e-01,9.99999e-01
5.368557821e-01,6.57900e-01,9.99999e-01,9.99568e-01,6.58184e-01,9.99998e-01
5.395400610e-01,6.62606e-01,9.99999e-01,9.98447e-01,6.63645e-01,9.99986e-01
5.422377613e-01,6.67669e-01,9.99999e-01,9.97985e-01,6.69041e-01,9.99963e-01
5.449489501e-01,6.73087e-01,9.99999e-01,9.98129e-01,6.74373e-01,9.99961e-01
5.476736949e-01,6.78501e-01,9.99999e-01,9.98339e-01,6.79642e-01,9.99981e-01
5.504120634e-01,6.84018e-01,9.99999e-01,9.98795e-01,6.84846e-01,9.99994e-01
5.531641237e-01,6.89568e-01,9.99999e-01,9.99393e-01,6.89986e-01,9.99998e-01
5.559299443e-01,6.94859e-01,9.99999e-01,9.99706e-01,6.95062e-01,9.99999e-01
5.587095940e-01,6.99946e-01,9.99999e-01,9.99816e-01,7.00074e-01,9.99999e-01
5.615031420e-01,7.04878e-01,9.99999e-01,9.99795e-01,7.05022e-01,9.99999e-01
5.643106577e-01,7.09742e-01,9.99999e-01,9.99769e-01,7.09907e-01,9.99997e-01
5.671322110e-01,7.12714e-01,9.99999e-01,9.97207e-01,7.14727e-01,9.99974e-01
5.699678720e-01,7.17275e-01,9.99999e-01,9.97004e-01,7.19485e-01,9.99923e-01
5.728177114e-01,7.21880e-01,9.99999e-01,9.96888e-01,7.24179e-01,9.99935e-01
5.756818000e-01,7.26699e-01,9.99999e-01,9.97142e-01,7.28810e-01,9.99960e-01
5.785602090e-01,7.31542e-01,9.99999e-01,9.97507e-01,7.33378e-01,9.99987e-01
5.814530100e-01,7.36035e-01,9.99999e-01,9.97498e-01,7.37884e-01,9.99994e-01
5.843602750e-01,7.40109e-01,9.99999e-01,9.97027e-01,7.42327e-01,9.99982e-01
5.872820764e-01,7.27718e-01,9.99999e-01,9.74742e-01,7.46709e-01,9.99818e-01
5.902184868e-01,7.27601e-01,9.99999e-01,9.69281e-01,7.51030e-01,9.99507e-01
5.931695792e-01,7.38530e-01,9.99999e-01,9.78274e-01,7.55289e-01,9.99526e-01
5.961354271e-01,7.41175e-01,9.99999e-01,9.76153e-01,7.59488e-01,9.99727e-01
5.991161043e-01,7.50224e-01,9.99999e-01,9.82532e-01,7.63626e-01,9.99915e-01
6.021116848e-01,7.60056e-01,9.99999e-01,9.90047e-01,7.67704e-01,9.99989e-01
6.051222432e-01,7.67827e-01,9.99999e-01,9.94951e-01,7.71724e-01,9.99998e-01
6.081478544e-01,7.73993e-01,9.99999e-01,9.97820e-01,7.75684e-01,9.99999e-01
6.111885937e-01,7.78866e-01,9.99999e-01,9.99076e-01,7.79585e-01,9.99999e-01
6.142445367e-01,7.83106e-01,9.99999e-01,9.99587e-01,7.83429e-01,9.99999e-01
6.173157594e-01,7.87036e-01,9.99999e-01,9.99772e-01,7.87215e-01,9.99999e-01
6.204023382e-01,7.90792e-01,9.99999e-01,9.99807e-01,7.90944e-01,9.99999e-01
6.235043498e-01,7.93946e-01,9.99999e-01,9.99157e-01,7.94617e-01,9.99997e-01
6.266218716e-01,7.94638e-01,9.99999e-01,9.95526e-01,7.98233e-01,9.99968e-01
6.297549810e-01,8.00427e-01,9.99999e-01,9.98357e-01,8.01794e-01,9.99936e-01
6.329037559e-01,8.02644e-01,9.99999e-01,9.96751e-01,8.05300e-01,9.99949e-01
6.360682746e-01,8.06494e-01,9.99999e-01,9.97237e-01,8.08752e-01,9.99969e-01
6.392486160e-01,8.09231e-01,9.99999e-01,9.96418e-01,8.12150e-01,9.99986e-01
6.424448591e-01,8.11583e-01,9.99999e-01,9.95223e-01,8.15495e-01,9.99978e-01
6.456570834e-01,8.00699e-01,9.99999e-01,9.78029e-01,8.18787e-01,9.99876e-01
6.488853688e-01,8.08455e-01,9.99999e-01,9.83829e-01,8.22027e-01,9.99654e-01
6.521297956e-01,8.11393e-01,9.99999e-01,9.83534e-01,8.25215e-01,9.99709e-01
6.553904446e-01,8.14578e-01,9.99999e-01,9.83584e-01,8.28352e-01,9.99782e-01
6.586673968e-01,8.19676e-01,9.99999e-01,9.85921e-01,8.31439e-01,9.99928e-01
6.619607338e-01,8.27647e-01,9.99999e-01,9.91830e-01,8.34477e-01,9.99984e-01
6.652705375e-01,8.33489e-01,9.99999e-01,9.95260e-01,8.37464e-01,9.99991e-01
6.685968902e-01,8.38550e-01,9.99999e-01,9.97795e-01,8.40404e-01,9.99998e-01
6.719398746e-01,8.42433e-01,9.99999e-01,9.98977e-01,8.43295e-01,9.99999e-01
6.752995740e-01,8.45671e-01,9.99999e-01,9.99446e-01,8.46139e-01,9.99999e-01
6.786760719e-01,8.48258e-01,9.99999e-01,9.99202e-01,8.48936e-01,9.99998e-01
6.820694522e-01,8.50517e-01,9.99999e-01,9.98633e-01,8.51686e-01,9.99992e-01
6.854797995e-01,8.52874e-01,9.99999e-01,9.98238e-01,8.54391e-01,9.99984e-01
6.889071985e-01,8.53389e-01,9.99999e-01,9.95764e-01,8.57051e-01,9.99961e-01
6.923517345e-01,8.01876e-01,9.99999e-01,9.33086e-01,8.59667e-01,9.99665e-01
6.958134932e-01,8.30984e-01,9.99999e-01,9.64478e-01,8.62238e-01,9.99246e-01
6.992925606e-01,8.35034e-01,9.99999e-01,9.66258e-01,8.64766e-01,9.99336e-01
7.027890234e-01,8.30748e-01,9.99999e-01,9.58396e-01,8.67252e-01,9.99491e-01
7.063029686e-01,8.38920e-01,9.99999e-01,9.64857e-01,8.69695e-01,9.99746e-01
7.098344834e-01,8.42527e-01,9.99999e-01,9.66238e-01,8.72096e-01,9.99849e-01
7.133836558e-01,8.35422e-01,9.99999e-01,9.55644e-01,8.74457e-01,9.99702e-01
7.169505741e-01,6.14722e-01,9.99999e-01,7.02758e-01,8.76777e-01,9.97660e-01
7.205353270e-01,7.34260e-01,9.99999e-01,8.38738e-01,8.79058e-01,9.95876e-01
7.241380036e-01,7.02267e-01,9.99999e-01,7.99702e-01,8.81299e-01,9.96438e-01
7.277586936e-01,7.20106e-01,9.99999e-01,8.17439e-01,8.83501e-01,9.97087e-01
7.313974871e-01,7.12105e-01,9.99999e-01,8.05132e-01,8.85665e-01,9.98634e-01
7.350544745e-01,7.87823e-01,9.99999e-01,8.87816e-01,8.87792e-01,9.99525e-01
7.387297469e-01,8.14741e-01,9.99999e-01,9.15759e-01,8.89881e-01,9.99782e-01
7.424233956e-01,8.54202e-01,9.99999e-01,9.57735e-01,8.91935e-01,9.99957e-01
7.461355126e-01,8.70849e-01,9.99999e-01,9.74163e-01,8.93952e-01,9.99992e-01
7.498661902e-01,8.85068e-01,9.99999e-01,9.87874e-01,8.95933e-01,9.99996e-01
7.536155211e-01,8.92527e-01,9.99999e-01,9.94038e-01,8.97880e-01,9.99997e-01
7.573835987e-01,8.97028e-01,9.99999e-01,9.96927e-01,8.99793e-01,9.99999e-01
7.611705167e-01,8.99949e-01,9.99999e-01,9.98089e-01,9.01671e-01,9.99999e-01
7.649763693e-01,9.02435e-01,9.99999e-01,9.98802e-01,9.03516e-01,9.99999e-01
7.688012511e-01,9.04575e-01,9.99999e-01,9.99166e-01,9.05329e-01,9.99999e-01
7.726452574e-01,9.06487e-01,9.99999e-01,9.99314e-01,9.07109e-01,9.99999e-01
7.765084837e-01,9.07974e-01,9.99999e-01,9.99027e-01,9.08858e-01,9.99998e-01
7.803910261e-01,9.06754e-01,9.99999e-01,9.95807e-01,9.10575e-01,9.99995e-01
7.842929812e-01,8.98963e-01,9.99999e-01,9.85448e-01,9.12261e-01,9.99972e-01
7.882144461e-01,8.86482e-01,9.99999e-01,9.70158e-01,9.13918e-01,9.99814e-01
7.921555184e-01,9.00128e-01,9.99999e-01,9.83513e-01,9.15544e-01,9.99641e-01
7.961162960e-01,8.90384e-01,9.99999e-01,9.71157e-01,9.17141e-01,9.99656e-01
8.000968774e-01,8.87723e-01,9.99999e-01,9.66623e-01,9.18709e-01,9.99634e-01
8.040973618e-01,8.89304e-01,9.99999e-01,9.66652e-01,9.20249e-01,9.99709e-01
8.081178486e-01,8.54235e-01,9.99999e-01,9.26993e-01,9.21761e-01,9.99727e-01
8.121584379e-01,6.76095e-01,9.99999e-01,7.33085e-01,9.23246e-01,9.98931e-01
8.162192301e-01,6.37703e-01,9.99999e-01,6.92407e-01,9.24703e-01,9.95988e-01
8.203003262e-01,7.73652e-01,9.99999e-01,8.39296e-01,9.26134e-01,9.95303e-01
8.244018279e-01,7.26588e-01,9.99999e-01,7.86290e-01,9.27539e-01,9.96260e-01
8.285238370e-01,7.41850e-01,9.99999e-01,8.00970e-01,9.28918e-01,9.97062e-01
8.326664562e-01,7.42932e-01,9.99999e-01,7.99589e-01,9.30272e-01,9.98783e-01
8.368297885e-01,7.92050e-01,9.99999e-01,8.50439e-01,9.31601e-01,9.99721e-01
8.410139374e-01,8.46847e-01,9.99999e-01,9.07899e-01,9.32906e-01,9.99837e-01
8.452190071e-01,8.90741e-01,9.99999e-01,9.53586e-01,9.34186e-01,9.99902e-01
8.494451021e-01,9.09926e-01,9.99999e-01,9.72796e-01,9.35443e-01,9.99921e-01
8.536923276e-01,9.21469e-01,9.99999e-01,9.83809e-01,9.36677e-01,9.99952e-01
8.579607893e-01,9.28506e-01,9.99999e-01,9.90006e-01,9.37888e-01,9.99988e-01
8.622505932e-01,9.33099e-01,9.99999e-01,9.93635e-01,9.39077e-01,9.99997e-01
8.665618462e-01,9.36542e-01,9.99999e-01,9.96063e-01,9.40244e-01,9.99998e-01
8.708946554e-01,9.37147e-01,9.99999e-01,9.95496e-01,9.41389e-01,9.99997e-01
8.752491287e-01,9.36830e-01,9.99999e-01,9.93977e-01,9.42512e-01,9.99993e-01
8.796253743e-01,9.35745e-01,9.99999e-01,9.91677e-01,9.43615e-01,9.99980e-01
8.840235012e-01,9.35668e-01,9.99999e-01,9.90498e-01,9.44698e-01,9.99941e-01
8.884436187e-01,9.13743e-01,9.99999e-01,9.66305e-01,9.45760e-01,9.99834e-01
8.928858368e-01,6.65152e-01,9.99999e-01,7.03194e-01,9.46802e-01,9.99046e-01
8.973502660e-01,5.08543e-01,9.99999e-01,5.39166e-01,9.47825e-01,9.95121e-01
9.018370173e-01,6.86448e-01,9.99999e-01,7.29052e-01,9.48829e-01,9.92340e-01
9.063462024e-01,7.13330e-01,9.99999e-01,7.56110e-01,9.49814e-01,9.93268e-01
9.108779334e-01,6.10805e-01,9.99999e-01,6.46949e-01,9.50780e-01,9.93006e-01
9.154323231e-01,5.74029e-01,9.99999e-01,6.06652e-01,9.51728e-01,9.94215e-01
9.200094847e-01,6.43986e-01,9.99999e-01,6.78186e-01,9.52659e-01,9.96758e-01
9.246095321e-01,5.39441e-01,9.99999e-01,5.67825e-01,9.53572e-01,9.96265e-01
9.292325798e-01,4.35527e-02,9.99999e-01,4.63009e-02,9.54468e-01,9.85516e-01
9.338787427e-01,1.20734e-02,9.99999e-01,1.34234e-02,9.55347e-01,9.41470e-01
9.385481364e-01,1.53151e-01,9.99999e-01,1.72076e-01,9.56209e-01,9.30780e-01
9.432408771e-01,9.06818e-02,9.99999e-01,1.00799e-01,9.57055e-01,9.39991e-01
9.479570815e-01,3.25784e-02,9.99999e-01,3.57675e-02,9.57885e-01,9.50881e-01
9.526968669e-01,6.81967e-02,9.99999e-01,7.33536e-02,9.58700e-01,9.69747e-01
9.574603512e-01,7.73056e-02,9.99999e-01,8.18358e-02,9.59499e-01,9.84516e-01
9.622476530e-01,1.16248e-01,9.99999e-01,1.22369e-01,9.60283e-01,9.89267e-01
9.670588912e-01,2.76782e-01,9.99999e-01,2.90132e-01,9.61052e-01,9.92647e-01
9.718941857e-01,4.18309e-01,9.99999e-01,4.37288e-01,9.61806e-01,9.94582e-01
9.767536566e-01,4.81228e-01,9.99999e-01,5.02032e-01,9.62546e-01,9.95857e-01
9.816374249e-01,5.72809e-01,9.99999e-01,5.95504e-01,9.63272e-01,9.98564e-01
9.865456120e-01,6.95098e-01,9.99999e-01,7.21282e-01,9.63985e-01,9.99700e-01
9.914783401e-01,7.87211e-01,9.99999e-01,8.16097e-01,9.64683e-01,9.99916e-01
9.964357318e-01,8.64099e-01,9.99999e-01,8.95139e-01,9.65369e-01,9.99951e-01
1.001417910e+00,9.03809e-01,9.99999e-01,9.35649e-01,9.66041e-01,9.99925e-01
1.006425000e+00,9.30620e-01,9.99999e-01,9.62778e-01,9.66700e-01,9.99894e-01
1.011457125e+00,9.44735e-01,9.99999e-01,9.76719e-01,9.67347e-01,9.99901e-01
1.016514411e+00,9.52563e-01,9.99999e-01,9.84138e-01,9.67982e-01,9.99930e-01
1.021596983e+00,9.56279e-01,9.99999e-01,9.87343e-01,9.68604e-01,9.99930e-01
1.026704968e+00,9.59591e-01,9.99999e-01,9.90116e-01,9.69215e-01,9.99953e-01
1.031838492e+00,9.62823e-01,9.99999e-01,9.92804e-01,9.69813e-01,9.99986e-01
1.036997685e+00,9.66249e-01,9.99999e-01,9.95722e-01,9.70401e-01,9.99997e-01
1.042182673e+00,9.66031e-01,9.99999e-01,9.94907e-01,9.70977e-01,9.99998e-01
1.047393587e+00,9.64981e-01,9.99999e-01,9.93247e-01,9.71542e-01,9.99998e-01
1.052630555e+00,9.63102e-01,9.99999e-01,9.90749e-01,9.72096e-01,9.99997e-01
1.057893707e+00,9.57671e-01,9.99999e-01,9.84614e-01,9.72639e-01,9.99994e-01
1.063183176e+00,9.48654e-01,9.99999e-01,9.74818e-01,9.73173e-01,9.99986e-01
1.068499092e+00,9.32975e-01,9.99999e-01,9.58206e-01,9.73695e-01,9.99970e-01
1.073841587e+00,9.26839e-01,9.99999e-01,9.51435e-01,9.74208e-01,9.99936e-01
1.079210795e+00,9.14148e-01,9.99999e-01,9.38025e-01,9.74711e-01,9.99828e-01
1.084606849e+00,8.85099e-01,9.99999e-01,9.07975e-01,9.75204e-01,9.99588e-01
1.090029883e+00,8.49488e-01,9.99999e-01,8.71397e-01,9.75688e-01,9.99148e-01
1.095480033e+00,6.70465e-01,9.99999e-01,6.87895e-01,9.76163e-01,9.98459e-01
1.100957433e+00,3.87125e-01,9.99999e-01,3.97515e-01,9.76628e-01,9.97167e-01
1.106462220e+00,1.13149e-01,9.99999e-01,1.16362e-01,9.77084e-01,9.95200e-01
1.111994531e+00,1.23122e-02,9.99999e-01,1.27570e-02,9.77532e-01,9.87308e-01
1.117554504e+00,1.32527e-03,9.99999e-01,1.41908e-03,9.77971e-01,9.54934e-01
1.123142276e+00,1.12492e-02,9.99999e-01,1.28261e-02,9.78401e-01,8.96414e-01
1.128757988e+00,3.31246e-02,9.99999e-01,3.84048e-02,9.78823e-01,8.81170e-01
1.134401778e+00,1.72948e-02,9.99999e-01,1.96673e-02,9.79237e-01,8.98016e-01
1.140073787e+00,1.10054e-01,9.99999e-01,1.22423e-01,9.79643e-01,9.17645e-01
1.145774156e+00,2.07392e-02,9.99999e-01,2.28935e-02,9.80041e-01,9.24345e-01
1.151503026e+00,1.31379e-02,9.99999e-01,1.40004e-02,9.80431e-01,9.57120e-01
1.157260541e+00,1.71387e-02,9.99999e-01,1.77044e-02,9.80814e-01,9.86981e-01
1.163046844e+00,4.79931e-02,9.99999e-01,4.90951e-02,9.81189e-01,9.96292e-01
1.168862078e+00,1.07787e-01,9.99999e-01,1.10023e-01,9.81557e-01,9.98088e-01
1.174706389e+00,2.46637e-01,9.99999e-01,2.51817e-01,9.81918e-01,9.97466e-01
1.180579921e+00,4.17194e-01,9.99999e-01,4.26355e-01,9.82272e-01,9.96172e-01
1.186482820e+00,5.99004e-01,9.99999e-01,6.12003e-01,9.82619e-01,9.96071e-01
1.192415234e+00,7.34303e-01,9.99999e-01,7.49237e-01,9.82960e-01,9.97056e-01
1.198377311e+00,7.69115e-01,9.99999e-01,7.84362e-01,9.83294e-01,9.97219e-01
1.204369197e+00,7.81131e-01,9.99999e-01,7.96141e-01,9.83621e-01,9.97483e-01
1.210391043e+00,7.89066e-01,9.99999e-01,8.03172e-01,9.83942e-01,9.98468e-01
1.216442998e+00,8.15975e-01,9.99999e-01,8.29805e-01,9.84256e-01,9.99061e-01
1.222525213e+00,8.50403e-01,9.99999e-01,8.64238e-01,9.84565e-01,9.99416e-01
1.228637839e+00,8.89634e-01,9.99999e-01,9.03548e-01,9.84867e-01,9.99728e-01
1.234781029e+00,9.13620e-01,9.99999e-01,9.27450e-01,9.85164e-01,9.99922e-01
1.240954934e+00,9.39596e-01,9.99999e-01,9.53484e-01,9.85455e-01,9.99977e-01
1.247159708e+00,9.49800e-01,9.99999e-01,9.63552e-01,9.85740e-01,9.99985e-01
1.253395507e+00,9.54043e-01,9.99999e-01,9.67587e-01,9.86020e-01,9.99981e-01
1.259662485e+00,9.55893e-01,9.99999e-01,9.69204e-01,9.86294e-01,9.99970e-01
1.265960797e+00,9.38432e-01,9.99999e-01,9.51259e-01,9.86563e-01,9.99951e-01
1.272290601e+00,9.12432e-01,9.99999e-01,9.24690e-01,9.86827e-01,9.99914e-01
1.278652054e+00,8.45482e-01,9.99999e-01,8.56673e-01,9.87085e-01,9.99848e-01
1.285045314e+00,7.75503e-01,9.99999e-01,7.85668e-01,9.87339e-01,9.99717e-01
1.291470541e+00,6.09532e-01,9.99999e-01,6.17498e-01,9.87587e-01,9.99504e-01
1.297927893e+00,5.30948e-01,9.99999e-01,5.37986e-01,9.87831e-01,9.99074e-01
1.304417533e+00,4.47031e-01,9.99999e-01,4.53315e-01,9.88070e-01,9.98041e-01
1.310939621e+00,3.99058e-01,9.99999e-01,4.05409e-01,9.88304e-01,9.95983e-01
1.317494319e+00,3.70114e-01,9.99999e-01,3.77204e-01,9.88534e-01,9.92582e-01
1.324081790e+00,2.39485e-01,9.99999e-01,2.45169e-01,9.88759e-01,9.87917e-01
1.330702199e+00,3.59074e-02,9.99999e-01,3.70766e-02,9.88980e-01,9.79257e-01
1.337355710e+00,8.00665e-06,9.99999e-01,8.42751e-06,9.89196e-01,9.60436e-01
1.344042489e+00,1.57472e-08,9.99999e-01,1.79735e-08,9.89408e-01,8.85513e-01
1.350762701e+00,8.60408e-28,9.99999e-01,1.31834e-27,9.89616e-01,6.59492e-01
1.357516515e+00,3.36945e-42,9.99999e-01,1.15500e-41,9.89820e-01,2.94726e-01
1.364304097e+00,4.42617e-26,9.99999e-01,3.80423e-25,9.90020e-01,1.17521e-01
1.371125618e+00,7.64223e-16,9.99999e-01,5.81010e-15,9.90217e-01,1.32833e-01
1.377981246e+00,3.12643e-15,9.99999e-01,1.78127e-14,9.90409e-01,1.77216e-01
1.384871152e+00,1.96274e-21,9.99999e-01,9.93633e-21,9.90597e-01,1.99406e-01
1.391795508e+00,3.04549e-26,9.99999e-01,1.42948e-25,9.90782e-01,2.15030e-01
1.398754485e+00,5.23397e-20,9.99999e-01,1.87998e-19,9.90964e-01,2.80943e-01
1.405748258e+00,9.25459e-20,9.99999e-01,1.96135e-19,9.91141e-01,4.76064e-01
1.412776999e+00,4.54970e-19,9.99998e-01,6.44078e-19,9.91315e-01,7.12576e-01
1.419840884e+00,7.91550e-19,9.99998e-01,9.26233e-19,9.91486e-01,8.61927e-01
1.426940089e+00,1.95777e-12,9.99998e-01,2.21017e-12,9.91654e-01,8.93255e-01
1.434074789e+00,4.90815e-11,9.99998e-01,5.65374e-11,9.91818e-01,8.75286e-01
1.441245163e+00,3.82146e-09,9.99999e-01,4.45028e-09,9.91979e-01,8.65644e-01
1.448451389e+00,2.96061e-06,9.99997e-01,3.38590e-06,9.92137e-01,8.81322e-01
1.455693646e+00,1.72753e-04,9.99998e-01,1.92078e-04,9.92291e-01,9.06377e-01
1.462972114e+00,2.43855e-04,9.99999e-01,2.69862e-04,9.92443e-01,9.10509e-01
1.470286975e+00,8.28704e-05,9.99999e-01,9.15483e-05,9.92592e-01,9.11964e-01
