#,Wave/freq,Total,N2,H2O,Rayleigh,CIA
4.000000000e-01,6.71520e-01,9.99999e-01,9.99954e-01,6.71550e-01,9.99999e-01
4.020000000e-01,6.76839e-01,9.99999e-01,9.99971e-01,6.76858e-01,9.99999e-01
4.040100000e-01,6.82088e-01,9.99999e-01,9.99987e-01,6.82096e-01,9.99999e-01
4.060300500e-01,6.87268e-01,9.99999e-01,9.99996e-01,6.87270e-01,9.99999e-01
4.080602003e-01,6.92379e-01,9.99999e-01,9.99998e-01,6.92380e-01,9.99999e-01
4.101005013e-01,6.97426e-01,9.99999e-01,9.99999e-01,6.97426e-01,9.99999e-01
4.121510038e-01,7.02407e-01,9.99999e-01,9.99997e-01,7.02408e-01,9.99999e-01
4.142117588e-01,7.07317e-01,9.99999e-01,9.99987e-01,7.07326e-01,9.99999e-01
4.162828176e-01,7.12141e-01,9.99999e-01,9.99943e-01,7.12180e-01,9.99999e-01
4.183642317e-01,7.16948e-01,9.99999e-01,9.99966e-01,7.16971e-01,9.99999e-01
4.204560528e-01,7.21684e-01,9.99999e-01,9.99979e-01,7.21699e-01,9.99999e-01
4.225583331e-01,7.26358e-01,9.99999e-01,9.99991e-01,7.26363e-01,9.99999e-01
4.246711247e-01,7.30960e-01,9.99999e-01,9.99993e-01,7.30965e-01,9.99999e-01
4.267944804e-01,7.35497e-01,9.99999e-01,9.99990e-01,7.35503e-01,9.99999e-01
4.289284528e-01,7.39975e-01,9.99999e-01,9.99992e-01,7.39980e-01,9.99999e-01
4.310730950e-01,7.44392e-01,9.99999e-01,9.99996e-01,7.44395e-01,9.99999e-01
4.332284605e-01,7.48747e-01,9.99999e-01,9.99998e-01,7.48747e-01,9.99999e-01
4.353946028e-01,7.53039e-01,9.99999e-01,9.99999e-01,7.53039e-01,9.99999e-01
4.375715758e-01,7.57266e-01,9.99999e-01,9.99994e-01,7.57270e-01,9.99999e-01
4.397594337e-01,7.61404e-01,9.99999e-01,9.99951e-01,7.61440e-01,9.99999e-01
4.419582309e-01,7.65364e-01,9.99999e-01,9.99755e-01,7.65550e-01,9.99999e-01
4.441680220e-01,7.69451e-01,9.99999e-01,9.99804e-01,7.69601e-01,9.99999e-01
4.463888621e-01,7.73436e-01,9.99999e-01,9.99797e-01,7.73592e-01,9.99999e-01
4.486208064e-01,7.77427e-01,9.99999e-01,9.99873e-01,7.77525e-01,9.99999e-01
4.508639105e-01,7.81353e-01,9.99999e-01,9.99940e-01,7.81399e-01,9.99999e-01
4.531182300e-01,7.85197e-01,9.99999e-01,9.99976e-01,7.85216e-01,9.99999e-01
4.553838212e-01,7.88962e-01,9.99999e-01,9.99983e-01,7.88975e-01,9.99999e-01
4.576607403e-01,7.92671e-01,9.99999e-01,9.99992e-01,7.92677e-01,9.99999e-01
4.599490440e-01,7.96319e-01,9.99999e-01,9.99994e-01,7.96323e-01,9.99999e-01
4.622487892e-01,7.99913e-01,9.99999e-01,9.99998e-01,7.99914e-01,9.99999e-01
4.645600332e-01,8.03446e-01,9.99999e-01,9.99996e-01,8.03449e-01,9.99999e-01
4.668828333e-01,8.06882e-01,9.99999e-01,9.99940e-01,8.06930e-01,9.99999e-01
4.692172475e-01,8.10253e-01,9.99999e-01,9.99873e-01,8.10356e-01,9.99999e-01
4.715633337e-01,8.13662e-01,9.99999e-01,9.99917e-01,8.13729e-01,9.99999e-01
4.739211504e-01,8.16984e-01,9.99999e-01,9.99920e-01,8.17049e-01,9.99999e-01
4.762907561e-01,8.20282e-01,9.99999e-01,9.99958e-01,8.20316e-01,9.99999e-01
4.786722099e-01,8.23518e-01,9.99999e-01,9.99982e-01,8.23532e-01,9.99999e-01
4.810655710e-01,8.26692e-01,9.99999e-01,9.99994e-01,8.26696e-01,9.99999e-01
4.834708988e-01,8.29771e-01,9.99999e-01,9.99952e-01,8.29810e-01,9.99999e-01
4.858882533e-01,8.32798e-01,9.99999e-01,9.99909e-01,8.32873e-01,9.99999e-01
4.883176946e-01,8.35825e-01,9.99999e-01,9.99925e-01,8.35887e-01,9.99999e-01
4.907592831e-01,8.38795e-01,9.99999e-01,9.99931e-01,8.38852e-01,9.99999e-01
4.932130795e-01,8.41728e-01,9.99999e-01,9.99951e-01,8.41769e-01,9.99999e-01
4.956791449e-01,8.44616e-01,9.99999e-01,9.99974e-01,8.44638e-01,9.99999e-01
4.981575406e-01,8.47352e-01,9.99999e-01,9.99873e-01,8.47459e-01,9.99999e-01
5.006483283e-01,8.49956e-01,9.99999e-01,9.99674e-01,8.50234e-01,9.99997e-01
5.031515699e-01,8.51528e-01,9.99999e-01,9.98334e-01,8.52963e-01,9.99981e-01
5.056673278e-01,8.54875e-01,9.99999e-01,9.99117e-01,8.55647e-01,9.99979e-01
5.081956644e-01,8.57319e-01,9.99999e-01,9.98886e-01,8.58286e-01,9.99986e-01
5.107366428e-01,8.60231e-01,9.99999e-01,9.99246e-01,8.60881e-01,9.99997e-01
5.132903260e-01,8.63059e-01,9.99999e-01,9.99568e-01,8.63432e-01,9.99999e-01
5.158567776e-01,8.65782e-01,9.99999e-01,9.99817e-01,8.65940e-01,9.99999e-01
5.184360615e-01,8.68342e-01,9.99999e-01,9.99926e-01,8.68405e-01,9.99999e-01
5.210282418e-01,8.70805e-01,9.99999e-01,9.99972e-01,8.70829e-01,9.99999e-01
5.236333830e-01,8.73116e-01,9.99999e-01,9.99890e-01,8.73211e-01,9.99998e-01
5.262515499e-01,8.75492e-01,9.99999e-01,9.99931e-01,8.75553e-01,9.99998e-01
5.288828077e-01,8.77799e-01,9.99999e-01,9.99937e-01,8.77854e-01,9.99998e-01
5.315272217e-01,8.80067e-01,9.99999e-01,9.99944e-01,8.80116e-01,9.99999e-01
5.341848578e-01,8.82307e-01,9.99999e-01,9.99963e-01,8.82339e-01,9.99999e-01
5.368557821e-01,8.84412e-01,9.99999e-01,9.99873e-01,8.84523e-01,9.99999e-01
5.395400610e-01,8.86266e-01,9.99999e-01,9.99548e-01,8.86670e-01,9.99995e-01
5.422377613e-01,8.88242e-01,9.99999e-01,9.99406e-01,8.88779e-01,9.99988e-01
5.449489501e-01,8.90354e-01,9.99999e-01,9.99452e-01,8.90851e-01,9.99988e-01
5.476736949e-01,8.92446e-01,9.99999e-01,9.99510e-01,8.92887e-01,9.99994e-01
5.504120634e-01,8.94569e-01,9.99999e-01,9.99644e-01,8.94887e-01,9.99998e-01
5.531641237e-01,8.96692e-01,9.99999e-01,9.99821e-01,8.96853e-01,9.99999e-01
5.559299443e-01,8.98706e-01,9.99999e-01,9.99913e-01,8.98783e-01,9.99999e-01
5.587095940e-01,9.00631e-01,9.99999e-01,9.99945e-01,9.00680e-01,9.99999e-01
5.615031420e-01,9.02489e-01,9.99999e-01,9.99939e-01,9.02543e-01,9.99999e-01
5.643106577e-01,9.04312e-01,9.99999e-01,9.99932e-01,9.04372e-01,9.99999e-01
5.671322110e-01,9.05432e-01,9.99999e-01,9.99192e-01,9.06170e-01,9.99992e-01
5.699678720e-01,9.07110e-01,9.99999e-01,9.99113e-01,9.07935e-01,9.99977e-01
5.728177114e-01,9.08822e-01,9.99999e-01,9.99087e-01,9.09669e-01,9.99980e-01
5.756818000e-01,9.10597e-01,9.99999e-01,9.99160e-01,9.11371e-01,9.99988e-01
5.785602090e-01,9.12371e-01,9.99999e-01,9.99266e-01,9.13044e-01,9.99996e-01
5.814530100e-01,9.14013e-01,9.99999e-01,9.99265e-01,9.14686e-01,9.99997e-01
5.843602750e-01,9.15500e-01,9.99999e-01,9.99132e-01,9.16298e-01,9.99994e-01
5.872820764e-01,9.10982e-01,9.99999e-01,9.92534e-01,9.17882e-01,9.99946e-01
5.902184868e-01,9.10904e-01,9.99999e-01,9.90862e-01,9.19437e-01,9.99855e-01
5.931695792e-01,9.14906e-01,9.99999e-01,9.93562e-01,9.20963e-01,9.99858e-01
5.961354271e-01,9.15859e-01,9.99999e-01,9.92924e-01,9.22462e-01,9.99914e-01
5.991161043e-01,9.19134e-01,9.99999e-01,9.94828e-01,9.23934e-01,9.99974e-01
6.021116848e-01,9.22655e-01,9.99999e-01,9.97058e-01,9.25379e-01,9.99996e-01
6.051222432e-01,9.25417e-01,9.99999e-01,9.98510e-01,9.26798e-01,9.99999e-01
6.081478544e-01,9.27595e-01,9.99999e-01,9.99357e-01,9.28190e-01,9.99999e-01
6.111885937e-01,9.29304e-01,9.99999e-01,9.99727e-01,9.29557e-01,9.99999e-01
6.142445367e-01,9.30787e-01,9.99999e-01,9.99878e-01,9.30900e-01,9.99999e-01
6.173157594e-01,9.32155e-01,9.99999e-01,9.99932e-01,9.32217e-01,9.99999e-01
6.204023382e-01,9.33458e-01,9.99999e-01,9.99943e-01,9.33511e-01,9.99999e-01
6.235043498e-01,9.34552e-01,9.99999e-01,9.99755e-01,9.34780e-01,9.99998e-01
6.266218716e-01,9.34788e-01,9.99999e-01,9.98685e-01,9.36026e-01,9.99990e-01
6.297549810e-01,9.36780e-01,9.99999e-01,9.99517e-01,9.37249e-01,9.99981e-01
6.329037559e-01,9.37539e-01,9.99999e-01,9.99043e-01,9.38450e-01,9.99984e-01
6.360682746e-01,9.38859e-01,9.99999e-01,9.99189e-01,9.39628e-01,9.99990e-01
6.392486160e-01,9.39791e-01,9.99999e-01,9.98947e-01,9.40784e-01,9.99995e-01
6.424448591e-01,9.40727e-01,9.99999e-01,9.98739e-01,9.41919e-01,9.99993e-01
6.456570834e-01,9.36951e-01,9.99999e-01,9.93586e-01,9.43033e-01,9.99963e-01
6.488853688e-01,9.38716e-01,9.99999e-01,9.94369e-01,9.44127e-01,9.99898e-01
6.521297956e-01,9.40504e-01,9.99999e-01,9.95117e-01,9.45199e-01,9.99914e-01
6.553904446e-01,9.41631e-01,9.99999e-01,9.95179e-01,9.46252e-01,9.99935e-01
6.586673968e-01,9.43315e-01,9.99999e-01,9.95828e-01,9.47285e-01,9.99978e-01
6.619607338e-01,9.46008e-01,9.99999e-01,9.97587e-01,9.48299e-01,9.99995e-01
6.652705375e-01,9.47962e-01,9.99999e-01,9.98598e-01,9.49294e-01,9.99997e-01
6.685968902e-01,9.49652e-01,9.99999e-01,9.99349e-01,9.50270e-01,9.99999e-01
6.719398746e-01,9.50941e-01,9.99999e-01,9.99697e-01,9.51228e-01,9.99999e-01
6.752995740e-01,9.52013e-01,9.99999e-01,9.99836e-01,9.52168e-01,9.99999e-01
6.786760719e-01,9.52868e-01,9.99999e-01,9.99766e-01,9.53090e-01,9.99999e-01
6.820694522e-01,9.53611e-01,9.99999e-01,9.99599e-01,9.53995e-01,9.99997e-01
6.854797995e-01,9.54386e-01,9.99999e-01,9.99483e-01,9.54883e-01,9.99995e-01
6.889071985e-01,9.54570e-01,9.99999e-01,9.98771e-01,9.55754e-01,9.99988e-01
6.923517345e-01,9.37260e-01,9.99999e-01,9.79868e-01,9.56609e-01,9.99901e-01
6.958134932e-01,9.46951e-01,9.99999e-01,9.89255e-01,9.57447e-01,9.99778e-01
6.992925606e-01,9.48504e-01,9.99999e-01,9.90000e-01,9.58270e-01,9.99804e-01
7.027890234e-01,9.47002e-01,9.99999e-01,9.87556e-01,9.59077e-01,9.99850e-01
7.063029686e-01,9.49756e-01,9.99999e-01,9.89537e-01,9.59869e-01,9.99925e-01
7.098344834e-01,9.50958e-01,9.99999e-01,9.89958e-01,9.60646e-01,9.99955e-01
7.133836558e-01,9.48673e-01,9.99999e-01,9.86839e-01,9.61408e-01,9.99912e-01
7.169505741e-01,8.64077e-01,9.99999e-01,8.98680e-01,9.62156e-01,9.99312e-01
7.205353270e-01,9.11673e-01,9.99999e-01,9.47958e-01,9.62889e-01,9.98787e-01
7.241380036e-01,9.00392e-01,9.99999e-01,9.35381e-01,9.63609e-01,9.98944e-01
7.277586936e-01,9.07058e-01,9.99999e-01,9.41449e-01,9.64315e-01,9.99123e-01
7.313974871e-01,9.04169e-01,9.99999e-01,9.37331e-01,9.65007e-01,9.99598e-01
7.350544745e-01,9.32065e-01,9.99999e-01,9.65318e-01,9.65686e-01,9.99860e-01
7.387297469e-01,9.41481e-01,9.99999e-01,9.74324e-01,9.66352e-01,9.99935e-01
7.424233956e-01,9.54732e-01,9.99999e-01,9.87319e-01,9.67006e-01,9.99987e-01
7.461355126e-01,9.60206e-01,9.99999e-01,9.92311e-01,9.67647e-01,9.99997e-01
7.498661902e-01,9.64793e-01,9.99999e-01,9.96403e-01,9.68276e-01,9.99998e-01
7.536155211e-01,9.67187e-01,9.99999e-01,9.98240e-01,9.68892e-01,9.99999e-01
7.573835987e-01,9.68618e-01,9.99999e-01,9.99092e-01,9.69497e-01,9.99999e-01
7.611705167e-01,9.69545e-01,9.99999e-01,9.99436e-01,9.70091e-01,9.99999e-01
7.649763693e-01,9.70331e-01,9.99999e-01,9.99647e-01,9.70673e-01,9.99999e-01
7.688012511e-01,9.71006e-01,9.99999e-01,9.99754e-01,9.71244e-01,9.99999e-01
7.726452574e-01,9.71608e-01,9.99999e-01,9.99798e-01,9.71804e-01,9.99999e-01
7.765084837e-01,9.72077e-01,9.99999e-01,9.99715e-01,9.72353e-01,9.99999e-01
7.803910261e-01,9.71699e-01,9.99999e-01,9.98775e-01,9.72891e-01,9.99998e-01
7.842929812e-01,9.69258e-01,9.99999e-01,9.95732e-01,9.73420e-01,9.99991e-01
7.882144461e-01,9.65256e-01,9.99999e-01,9.91138e-01,9.73938e-01,9.99945e-01
7.921555184e-01,9.69575e-01,9.99999e-01,9.95105e-01,9.74446e-01,9.99894e-01
7.961162960e-01,9.66531e-01,9.99999e-01,9.91469e-01,9.74944e-01,9.99898e-01
8.000968774e-01,9.65661e-01,9.99999e-01,9.90087e-01,9.75433e-01,9.99892e-01
8.040973618e-01,9.66170e-01,9.99999e-01,9.90100e-01,9.75912e-01,9.99914e-01
8.081178486e-01,9.54823e-01,9.99999e-01,9.77996e-01,9.76382e-01,9.99919e-01
8.121584379e-01,8.90027e-01,9.99999e-01,9.11411e-01,9.76843e-01,9.99685e-01
8.162192301e-01,8.73348e-01,9.99999e-01,8.94692e-01,9.77296e-01,9.98820e-01
8.203003262e-01,9.25145e-01,9.99999e-01,9.47516e-01,9.77739e-01,9.98618e-01
8.244018279e-01,9.04584e-01,9.99999e-01,9.25785e-01,9.78174e-01,9.98900e-01
8.285238370e-01,9.15260e-01,9.99999e-01,9.36081e-01,9.78600e-01,9.99136e-01
8.326664562e-01,9.15218e-01,9.99999e-01,9.35165e-01,9.79019e-01,9.99642e-01
8.368297885e-01,9.33384e-01,9.99999e-01,9.53065e-01,9.79429e-01,9.99917e-01
8.410139374e-01,9.52174e-01,9.99999e-01,9.71819e-01,9.79831e-01,9.99951e-01
8.452190071e-01,9.66537e-01,9.99999e-01,9.86062e-01,9.80225e-01,9.99971e-01
8.494451021e-01,9.72670e-01,9.99999e-01,9.91923e-01,9.80612e-01,9.99976e-01
8.536923276e-01,9.76267e-01,9.99999e-01,9.95198e-01,9.80991e-01,9.99984e-01
8.579607893e-01,9.78466e-01,9.99999e-01,9.97051e-01,9.81363e-01,9.99995e-01
8.622505932e-01,9.79883e-01,9.99999e-01,9.98120e-01,9.81728e-01,9.99998e-01
8.665618462e-01,9.80949e-01,9.99999e-01,9.98841e-01,9.82086e-01,9.99999e-01
8.708946554e-01,9.81137e-01,9.99999e-01,9.98677e-01,9.82436e-01,9.99998e-01
8.752491287e-01,9.81039e-01,9.99999e-01,9.98229e-01,9.82780e-01,9.99997e-01
8.796253743e-01,9.80711e-01,9.99999e-01,9.97557e-01,9.83117e-01,9.99994e-01
8.840235012e-01,9.80686e-01,9.99999e-01,9.97207e-01,9.83448e-01,9.99982e-01
8.884436187e-01,9.73953e-01,9.99999e-01,9.90066e-01,9.83772e-01,9.99950e-01
8.928858368e-01,8.84568e-01,9.99999e-01,8.99120e-01,9.84090e-01,9.99719e-01
8.973502660e-01,8.13116e-01,9.99999e-01,8.27186e-01,9.84402e-01,9.98565e-01
9.018370173e-01,8.91122e-01,9.99999e-01,9.07005e-01,9.84708e-01,9.97745e-01
9.063462024e-01,9.03348e-01,9.99999e-01,9.18917e-01,9.85008e-01,9.98018e-01
9.108779334e-01,8.61175e-01,9.99999e-01,8.75823e-01,9.85302e-01,9.97941e-01
9.154323231e-01,8.45831e-01,9.99999e-01,8.59659e-01,9.85590e-01,9.98298e-01
9.200094847e-01,8.74811e-01,9.99999e-01,8.88192e-01,9.85872e-01,9.99046e-01
9.246095321e-01,8.24292e-01,9.99999e-01,8.36787e-01,9.86149e-01,9.98901e-01
9.292325798e-01,3.06021e-01,9.99999e-01,3.11565e-01,9.86421e-01,9.95725e-01
9.338787427e-01,2.12589e-01,9.99999e-01,2.19305e-01,9.86688e-01,9.82450e-01
9.385481364e-01,5.21792e-01,9.99999e-01,5.39943e-01,9.86949e-01,9.79161e-01
9.432408771e-01,4.24292e-01,9.99999e-01,4.37670e-01,9.87205e-01,9.81996e-01
9.479570815e-01,3.12509e-01,9.99999e-01,3.21193e-01,9.87456e-01,9.85322e-01
9.526968669e-01,4.07313e-01,9.99999e-01,4.16120e-01,9.87702e-01,9.91021e-01
9.574603512e-01,4.29427e-01,9.99999e-01,4.36663e-01,9.87944e-01,9.95429e-01
9.622476530e-01,4.97142e-01,9.99999e-01,5.04684e-01,9.88180e-01,9.96836e-01
9.670588912e-01,6.63938e-01,9.99999e-01,6.73178e-01,9.88412e-01,9.97835e-01
9.718941857e-01,7.68281e-01,9.99999e-01,7.78348e-01,9.88640e-01,9.98406e-01
9.767536566e-01,8.02082e-01,9.99999e-01,8.12103e-01,9.88863e-01,9.98781e-01
9.816374249e-01,8.46655e-01,9.99999e-01,8.56361e-01,9.89082e-01,9.99577e-01
9.865456120e-01,8.97700e-01,9.99999e-01,9.07492e-01,9.89296e-01,9.99911e-01
9.914783401e-01,9.31838e-01,9.99999e-01,9.41741e-01,9.89507e-01,9.99975e-01
9.964357318e-01,9.57860e-01,9.99999e-01,9.67828e-01,9.89713e-01,9.99985e-01
1.001417910e+00,9.70674e-01,9.99999e-01,9.80584e-01,9.89915e-01,9.99977e-01
1.006425000e+00,9.79104e-01,9.99999e-01,9.88910e-01,9.90113e-01,9.99968e-01
1.011457125e+00,9.83430e-01,9.99999e-01,9.93083e-01,9.90307e-01,9.99970e-01
1.016514411e+00,9.85831e-01,9.99999e-01,9.95307e-01,9.90498e-01,9.99979e-01
1.021596983e+00,9.86962e-01,9.99999e-01,9.96262e-01,9.90685e-01,9.99979e-01
1.026704968e+00,9.87968e-01,9.99999e-01,9.97086e-01,9.90868e-01,9.99985e-01
1.031838492e+00,9.88940e-01,9.99999e-01,9.97876e-01,9.91047e-01,9.99995e-01
1.036997685e+00,9.89976e-01,9.99999e-01,9.98741e-01,9.91224e-01,9.99998e-01
1.042182673e+00,9.89914e-01,9.99999e-01,9.98504e-01,9.91396e-01,9.99999e-01
1.047393587e+00,9.89596e-01,9.99999e-01,9.98014e-01,9.91565e-01,9.99999e-01
1.052630555e+00,9.89033e-01,9.99999e-01,9.97279e-01,9.91731e-01,9.99998e-01
1.057893707e+00,9.87399e-01,9.99999e-01,9.95469e-01,9.91894e-01,9.99997e-01
1.063183176e+00,9.84655e-01,9.99999e-01,9.92545e-01,9.92053e-01,9.99995e-01
1.068499092e+00,9.79829e-01,9.99999e-01,9.87530e-01,9.92210e-01,9.99991e-01
1.073841587e+00,9.77914e-01,9.99999e-01,9.85458e-01,9.92363e-01,9.99981e-01
1.079210795e+00,9.73932e-01,9.99999e-01,9.81326e-01,9.92513e-01,9.99949e-01
1.084606849e+00,9.64681e-01,9.99999e-01,9.71930e-01,9.92661e-01,9.99878e-01
1.090029883e+00,9.53063e-01,9.99999e-01,9.60209e-01,9.92805e-01,9.99749e-01
1.095480033e+00,8.88368e-01,9.99999e-01,8.95083e-01,9.92947e-01,9.99547e-01
1.100957433e+00,7.49951e-01,9.99999e-01,7.55801e-01,9.93085e-01,9.99167e-01
1.106462220e+00,4.94712e-01,9.99999e-01,4.98792e-01,9.93221e-01,9.98588e-01
1.111994531e+00,2.33146e-01,9.99999e-01,2.35587e-01,9.93355e-01,9.96257e-01
1.117554504e+00,9.88734e-02,9.99999e-01,1.00878e-01,9.93486e-01,9.86553e-01
1.123142276e+00,1.91371e-01,9.99999e-01,1.98884e-01,9.93614e-01,9.68407e-01
1.128757988e+00,3.23834e-01,9.99999e-01,3.38203e-01,9.93740e-01,9.63543e-01
1.134401778e+00,1.47742e-01,9.99999e-01,1.53538e-01,9.93863e-01,9.68191e-01
1.140073787e+00,4.97866e-01,9.99999e-01,5.14022e-01,9.93984e-01,9.74430e-01
1.145774156e+00,2.54642e-01,9.99999e-01,2.62137e-01,9.94102e-01,9.77169e-01
1.151503026e+00,2.24485e-01,9.99999e-01,2.28713e-01,9.94218e-01,9.87216e-01
1.157260541e+00,2.72566e-01,9.99999e-01,2.75176e-01,9.94332e-01,9.96160e-01
1.163046844e+00,3.79251e-01,9.99999e-01,3.81785e-01,9.94444e-01,9.98909e-01
1.168862078e+00,5.02837e-01,9.99999e-01,5.05874e-01,9.94553e-01,9.99438e-01
1.174706389e+00,6.52406e-01,9.99999e-01,6.56396e-01,9.94661e-01,9.99255e-01
1.180579921e+00,7.68145e-01,9.99999e-01,7.73056e-01,9.94766e-01,9.98874e-01
1.186482820e+00,8.58868e-01,9.99999e-01,8.64295e-01,9.94869e-01,9.98844e-01
1.192415234e+00,9.12967e-01,9.99999e-01,9.18376e-01,9.94970e-01,9.99134e-01
1.198377311e+00,9.25561e-01,9.99999e-01,9.30907e-01,9.95069e-01,9.99182e-01
1.204369197e+00,9.29329e-01,9.99999e-01,9.34533e-01,9.95166e-01,9.99260e-01
1.210391043e+00,9.32365e-01,9.99999e-01,9.37224e-01,9.95261e-01,9.99549e-01
1.216442998e+00,9.41564e-01,9.99999e-01,9.46218e-01,9.95355e-01,9.99724e-01
1.222525213e+00,9.53357e-01,9.99999e-01,9.57881e-01,9.95446e-01,9.99828e-01
1.228637839e+00,9.66173e-01,9.99999e-01,9.70582e-01,9.95536e-01,9.99919e-01
1.234781029e+00,9.73745e-01,9.99999e-01,9.78047e-01,9.95624e-01,9.99976e-01
1.240954934e+00,9.81843e-01,9.99999e-01,9.86078e-01,9.95710e-01,9.99993e-01
1.247159708e+00,9.84968e-01,9.99999e-01,9.89131e-01,9.95795e-01,9.99995e-01
1.253395507e+00,9.86274e-01,9.99999e-01,9.90361e-01,9.95878e-01,9.99994e-01
1.259662485e+00,9.86923e-01,9.99999e-01,9.90935e-01,9.95959e-01,9.99991e-01
1.265960797e+00,9.81551e-01,9.99999e-01,9.85468e-01,9.96038e-01,9.99985e-01
1.272290601e+00,9.74870e-01,9.99999e-01,9.78695e-01,9.96117e-01,9.99974e-01
1.278652054e+00,9.51838e-01,9.99999e-01,9.55517e-01,9.96193e-01,9.99955e-01
1.285045314e+00,9.27562e-01,9.99999e-01,9.31113e-01,9.96268e-01,9.99916e-01
1.291470541e+00,8.62813e-01,9.99999e-01,8.66106e-01,9.96342e-01,9.99854e-01
1.297927893e+00,8.25961e-01,9.99999e-01,8.29158e-01,9.96414e-01,9.99727e-01
1.304417533e+00,7.82359e-01,9.99999e-01,7.85570e-01,9.96484e-01,9.99424e-01
1.310939621e+00,7.56326e-01,9.99999e-01,7.59838e-01,9.96554e-01,9.98818e-01
1.317494319e+00,7.36720e-01,9.99999e-01,7.40834e-01,9.96622e-01,9.97816e-01
1.324081790e+00,6.37591e-01,9.99999e-01,6.41995e-01,9.96688e-01,9.96437e-01
1.330702199e+00,2.32890e-01,9.99999e-01,2.35090e-01,9.96754e-01,9.93865e-01
1.337355710e+00,1.63293e-02,9.99999e-01,1.65767e-02,9.96818e-01,9.88219e-01
1.344042489e+00,4.46461e-04,9.99999e-01,4.64132e-04,9.96880e-01,9.64935e-01
1.350762701e+00,1.52014e-09,9.99999e-01,1.72300e-09,9.96942e-01,8.84965e-01
1.357516515e+00,7.60658e-14,9.99999e-01,1.09208e-13,9.97002e-01,6.98618e-01
1.364304097e+00,5.23927e-09,9.99999e-01,9.85211e-09,9.97061e-01,5.33358e-01
1.371125618e+00,4.16363e-06,9.99999e-01,7.55251e-06,9.97119e-01,5.52883e-01
1.377981246e+00,1.54584e-05,9.99999e-01,2.57636e-05,9.97176e-01,6.01709e-01
1.384871152e+00,7.02208e-08,9.99999e-01,1.13621e-07,9.97232e-01,6.19739e-01
1.391795508e+00,6.55817e-09,9.99999e-01,1.03432e-08,9.97286e-01,6.35777e-01
1.398754485e+00,3.00765e-07,9.99999e-01,4.37774e-07,9.97340e-01,6.88864e-01
1.405748258e+00,3.97403e-07,9.99999e-01,4.95440e-07,9.97392e-01,8.04217e-01
1.412776999e+00,4.30909e-07,9.99999e-01,4.77200e-07,9.97444e-01,9.05307e-01
1.419840884e+00,9.64872e-07,9.99999e-01,1.01042e-06,9.97494e-01,9.57318e-01
1.426940089e+00,3.64786e-05,9.99999e-01,3.78005e-05,9.97544e-01,9.67404e-01
1.434074789e+00,2.78257e-04,9.99999e-01,2.90052e-04,9.97592e-01,9.61650e-01
1.441245163e+00,1.28987e-03,9.99999e-01,1.34886e-03,9.97639e-01,9.58528e-01
1.448451389e+00,9.87833e-03,9.99999e-01,1.02753e-02,9.97686e-01,9.63592e-01
1.455693646e+00,4.20202e-02,9.99999e-01,4.33487e-02,9.97732e-01,9.71554e-01
1.462972114e+00,6.03175e-02,9.99999e-01,6.21387e-02,9.97776e-01,9.72853e-01
1.470286975e+00,3.88340e-02,9.99999e-01,3.99860e-02,9.97820e-01,9.73309e-01
