#,Wave/freq,Total,N2,H2O,Rayleigh,CIA
4.000000000e-01,3.07477e-01,9.99999e-01,9.99866e-01,3.07518e-01,9.99999e-01
4.020000000e-01,3.14746e-01,9.99999e-01,9.99917e-01,3.14772e-01,9.99999e-01
4.040100000e-01,3.22030e-01,9.99999e-01,9.99964e-01,3.22042e-01,9.99999e-01
4.060300500e-01,3.29328e-01,9.99999e-01,9.99991e-01,3.29330e-01,9.99999e-01
4.080602003e-01,3.36635e-01,9.99999e-01,9.99996e-01,3.36635e-01,9.99999e-01
4.101005013e-01,3.43953e-01,9.99999e-01,9.99999e-01,3.43953e-01,9.99999e-01
4.121510038e-01,3.51279e-01,9.99999e-01,9.99994e-01,3.51281e-01,9.99999e-01
4.142117588e-01,3.58603e-01,9.99999e-01,9.99962e-01,3.58616e-01,9.99999e-01
4.162828176e-01,3.65894e-01,9.99999e-01,9.99834e-01,3.65954e-01,9.99999e-01
4.183642317e-01,3.73257e-01,9.99999e-01,9.99901e-01,3.73293e-01,9.99999e-01
4.204560528e-01,3.80607e-01,9.99999e-01,9.99939e-01,3.80630e-01,9.99999e-01
4.225583331e-01,3.87953e-01,9.99999e-01,9.99977e-01,3.87962e-01,9.99999e-01
4.246711247e-01,3.95279e-01,9.99999e-01,9.99981e-01,3.95286e-01,9.99999e-01
4.267944804e-01,4.02589e-01,9.99999e-01,9.99973e-01,4.02600e-01,9.99999e-01
4.289284528e-01,4.09892e-01,9.99999e-01,9.99979e-01,4.09900e-01,9.99999e-01
4.310730950e-01,4.17181e-01,9.99999e-01,9.99990e-01,4.17185e-01,9.99999e-01
4.332284605e-01,4.24451e-01,9.99999e-01,9.99997e-01,4.24452e-01,9.99999e-01
4.353946028e-01,4.31697e-01,9.99999e-01,9.99998e-01,4.31697e-01,9.99999e-01
4.375715758e-01,4.38913e-01,9.99999e-01,9.99983e-01,4.38920e-01,9.99999e-01
4.397594337e-01,4.46053e-01,9.99999e-01,9.99854e-01,4.46118e-01,9.99999e-01
4.419582309e-01,4.52954e-01,9.99999e-01,9.99263e-01,4.53287e-01,9.99999e-01
4.441680220e-01,4.60164e-01,9.99999e-01,9.99426e-01,4.60427e-01,9.99999e-01
4.463888621e-01,4.67256e-01,9.99999e-01,9.99402e-01,4.67535e-01,9.99999e-01
4.486208064e-01,4.74434e-01,9.99999e-01,9.99629e-01,4.74610e-01,9.99999e-01
4.508639105e-01,4.81564e-01,9.99999e-01,9.99826e-01,4.81648e-01,9.99999e-01
4.531182300e-01,4.88615e-01,9.99999e-01,9.99931e-01,4.88648e-01,9.99999e-01
4.553838212e-01,4.95586e-01,9.99999e-01,9.99953e-01,4.95609e-01,9.99999e-01
4.576607403e-01,5.02518e-01,9.99999e-01,9.99978e-01,5.02529e-01,9.99999e-01
4.599490440e-01,5.09398e-01,9.99999e-01,9.99984e-01,5.09406e-01,9.99999e-01
4.622487892e-01,5.16237e-01,9.99999e-01,9.99996e-01,5.16238e-01,9.99999e-01
4.645600332e-01,5.23019e-01,9.99999e-01,9.99989e-01,5.23025e-01,9.99999e-01
4.668828333e-01,5.29671e-01,9.99999e-01,9.99824e-01,5.29764e-01,9.99999e-01
4.692172475e-01,5.36253e-01,9.99999e-01,9.99625e-01,5.36454e-01,9.99999e-01
4.715633337e-01,5.42961e-01,9.99999e-01,9.99754e-01,5.43093e-01,9.99999e-01
4.739211504e-01,5.49553e-01,9.99999e-01,9.99765e-01,5.49682e-01,9.99999e-01
4.762907561e-01,5.56150e-01,9.99999e-01,9.99878e-01,5.56218e-01,9.99999e-01
4.786722099e-01,5.62672e-01,9.99999e-01,9.99949e-01,5.62700e-01,9.99999e-01
4.810655710e-01,5.69119e-01,9.99999e-01,9.99984e-01,5.69127e-01,9.99999e-01
4.834708988e-01,5.75417e-01,9.99999e-01,9.99855e-01,5.75499e-01,9.99999e-01
4.858882533e-01,5.81660e-01,9.99999e-01,9.99734e-01,5.81814e-01,9.99999e-01
4.883176946e-01,5.87942e-01,9.99999e-01,9.99777e-01,5.88072e-01,9.99999e-01
4.907592831e-01,5.94152e-01,9.99999e-01,9.99799e-01,5.94271e-01,9.99999e-01
4.932130795e-01,6.00326e-01,9.99999e-01,9.99857e-01,6.00412e-01,9.99999e-01
4.956791449e-01,6.06447e-01,9.99999e-01,9.99924e-01,6.06492e-01,9.99999e-01
4.981575406e-01,6.12282e-01,9.99999e-01,9.99623e-01,6.12513e-01,9.99999e-01
5.006483283e-01,6.17865e-01,9.99999e-01,9.99023e-01,6.18472e-01,9.99992e-01
5.031515699e-01,6.21258e-01,9.99999e-01,9.95067e-01,6.24370e-01,9.99947e-01
5.056673278e-01,6.28526e-01,9.99999e-01,9.97393e-01,6.30206e-01,9.99940e-01
5.081956644e-01,6.33865e-01,9.99999e-01,9.96712e-01,6.35980e-01,9.99961e-01
5.107366428e-01,6.40262e-01,9.99999e-01,9.97779e-01,6.41691e-01,9.99992e-01
5.132903260e-01,6.46517e-01,9.99999e-01,9.98730e-01,6.47339e-01,9.99998e-01
5.158567776e-01,6.52573e-01,9.99999e-01,9.99463e-01,6.52923e-01,9.99999e-01
5.184360615e-01,6.58303e-01,9.99999e-01,9.99785e-01,6.58444e-01,9.99999e-01
5.210282418e-01,6.63848e-01,9.99999e-01,9.99919e-01,6.63902e-01,9.99999e-01
5.236333830e-01,6.69078e-01,9.99999e-01,9.99677e-01,6.69295e-01,9.99997e-01
5.262515499e-01,6.74486e-01,9.99999e-01,9.99797e-01,6.74624e-01,9.99996e-01
5.288828077e-01,6.79763e-01,9.99999e-01,9.99814e-01,6.79890e-01,9.99997e-01
5.315272217e-01,6.84980e-01,9.99999e-01,9.99837e-01,6.85091e-01,9.99999e-01
5.341848578e-01,6.90155e-01,9.99999e-01,9.99893e-01,6.90228e-01,9.99999e-01
5.368557821e-01,6.95040e-01,9.99999e-01,9.99624e-01,6.95301e-01,9.99998e-01
5.395400610e-01,6.99354e-01,9.99999e-01,9.98644e-01,7.00310e-01,9.99988e-01
5.422377613e-01,7.04000e-01,9.99999e-01,9.98251e-01,7.05255e-01,9.99967e-01
5.449489501e-01,7.08958e-01,9.99999e-01,9.98372e-01,7.10136e-01,9.99966e-01
5.476736949e-01,7.13913e-01,9.99999e-01,9.98559e-01,7.14954e-01,9.99983e-01
5.504120634e-01,7.18953e-01,9.99999e-01,9.98954e-01,7.19708e-01,9.99995e-01
5.531641237e-01,7.24018e-01,9.99999e-01,9.99473e-01,7.24399e-01,9.99998e-01
5.559299443e-01,7.28842e-01,9.99999e-01,9.99745e-01,7.29027e-01,9.99999e-01
5.587095940e-01,7.33476e-01,9.99999e-01,9.99840e-01,7.33593e-01,9.99999e-01
5.615031420e-01,7.37964e-01,9.99999e-01,9.99822e-01,7.38095e-01,9.99999e-01
5.643106577e-01,7.42386e-01,9.99999e-01,9.99798e-01,7.42536e-01,9.99997e-01
5.671322110e-01,7.45073e-01,9.99999e-01,9.97554e-01,7.46915e-01,9.99977e-01
5.699678720e-01,7.49234e-01,9.99999e-01,9.97405e-01,7.51233e-01,9.99933e-01
5.728177114e-01,7.53403e-01,9.99999e-01,9.97294e-01,7.55489e-01,9.99944e-01
5.756818000e-01,7.57773e-01,9.99999e-01,9.97516e-01,7.59685e-01,9.99965e-01
5.785602090e-01,7.62160e-01,9.99999e-01,9.97835e-01,7.63820e-01,9.99989e-01
5.814530100e-01,7.66224e-01,9.99999e-01,9.97825e-01,7.67896e-01,9.99994e-01
5.843602750e-01,7.69901e-01,9.99999e-01,9.97407e-01,7.71912e-01,9.99985e-01
5.872820764e-01,7.58636e-01,9.99999e-01,9.77940e-01,7.75870e-01,9.99842e-01
5.902184868e-01,7.58602e-01,9.99999e-01,9.73271e-01,7.79769e-01,9.99572e-01
5.931695792e-01,7.68467e-01,9.99999e-01,9.81078e-01,7.83610e-01,9.99588e-01
5.961354271e-01,7.70874e-01,9.99999e-01,9.79251e-01,7.87393e-01,9.99763e-01
5.991161043e-01,7.79051e-01,9.99999e-01,9.84816e-01,7.91119e-01,9.99926e-01
6.021116848e-01,7.87914e-01,9.99999e-01,9.91357e-01,7.94789e-01,9.99991e-01
6.051222432e-01,7.94904e-01,9.99999e-01,9.95617e-01,7.98403e-01,9.99999e-01
6.081478544e-01,8.00444e-01,9.99999e-01,9.98107e-01,8.01962e-01,9.99999e-01
6.111885937e-01,8.04820e-01,9.99999e-01,9.99199e-01,8.05465e-01,9.99999e-01
6.142445367e-01,8.08625e-01,9.99999e-01,9.99641e-01,8.08914e-01,9.99999e-01
6.173157594e-01,8.12150e-01,9.99999e-01,9.99802e-01,8.12310e-01,9.99999e-01
6.204023382e-01,8.15516e-01,9.99999e-01,9.99832e-01,8.15652e-01,9.99999e-01
6.235043498e-01,8.18337e-01,9.99999e-01,9.99263e-01,8.18941e-01,9.99997e-01
6.266218716e-01,8.18959e-01,9.99999e-01,9.96110e-01,8.22179e-01,9.99972e-01
6.297549810e-01,8.24142e-01,9.99999e-01,9.98571e-01,8.25365e-01,9.99944e-01
6.329037559e-01,8.26127e-01,9.99999e-01,9.97179e-01,8.28500e-01,9.99955e-01
6.360682746e-01,8.29565e-01,9.99999e-01,9.97596e-01,8.31584e-01,9.99973e-01
6.392486160e-01,8.32012e-01,9.99999e-01,9.96886e-01,8.34619e-01,9.99988e-01
6.424448591e-01,8.34100e-01,9.99999e-01,9.95833e-01,8.37605e-01,9.99981e-01
6.456570834e-01,8.24330e-01,9.99999e-01,9.80816e-01,8.40542e-01,9.99892e-01
6.488853688e-01,8.31327e-01,9.99999e-01,9.85944e-01,8.43431e-01,9.99699e-01
6.521297956e-01,8.33953e-01,9.99999e-01,9.85685e-01,8.46272e-01,9.99751e-01
6.553904446e-01,8.36781e-01,9.99999e-01,9.85710e-01,8.49067e-01,9.99815e-01
6.586673968e-01,8.41342e-01,9.99999e-01,9.87764e-01,8.51816e-01,9.99937e-01
6.619607338e-01,8.48661e-01,9.99999e-01,9.93158e-01,8.54518e-01,9.99986e-01
6.652705375e-01,8.53646e-01,9.99999e-01,9.95887e-01,8.57176e-01,9.99992e-01
6.685968902e-01,8.58145e-01,9.99999e-01,9.98087e-01,8.59789e-01,9.99998e-01
6.719398746e-01,8.61595e-01,9.99999e-01,9.99113e-01,8.62359e-01,9.99999e-01
6.752995740e-01,8.64469e-01,9.99999e-01,9.99519e-01,8.64885e-01,9.99999e-01
6.786760719e-01,8.66766e-01,9.99999e-01,9.99305e-01,8.67368e-01,9.99998e-01
6.820694522e-01,8.68771e-01,9.99999e-01,9.98811e-01,8.69809e-01,9.99993e-01
6.854797995e-01,8.70862e-01,9.99999e-01,9.98467e-01,8.72209e-01,9.99986e-01
6.889071985e-01,8.71297e-01,9.99999e-01,9.96292e-01,8.74568e-01,9.99966e-01
6.923517345e-01,8.25248e-01,9.99999e-01,9.41384e-01,8.76886e-01,9.99709e-01
6.958134932e-01,8.51529e-01,9.99999e-01,9.69187e-01,8.79165e-01,9.99357e-01
6.992925606e-01,8.54935e-01,9.99999e-01,9.70530e-01,8.81404e-01,9.99420e-01
7.027890234e-01,8.51202e-01,9.99999e-01,9.63754e-01,8.83604e-01,9.99557e-01
7.063029686e-01,8.58469e-01,9.99999e-01,9.69394e-01,8.85767e-01,9.99779e-01
7.098344834e-01,8.61678e-01,9.99999e-01,9.70601e-01,8.87892e-01,9.99869e-01
7.133836558e-01,8.55172e-01,9.99999e-01,9.61137e-01,8.89980e-01,9.99741e-01
7.169505741e-01,6.53382e-01,9.99999e-01,7.33958e-01,8.92031e-01,9.97966e-01
7.205353270e-01,7.64622e-01,9.99999e-01,8.58314e-01,8.94046e-01,9.96414e-01
7.241380036e-01,7.34886e-01,9.99999e-01,8.22707e-01,8.96026e-01,9.96903e-01
7.277586936e-01,7.51185e-01,9.99999e-01,8.38658e-01,8.97971e-01,9.97467e-01
7.313974871e-01,7.44417e-01,9.99999e-01,8.28220e-01,8.99882e-01,9.98813e-01
7.350544745e-01,8.12799e-01,9.99999e-01,9.01720e-01,9.01759e-01,9.99587e-01
7.387297469e-01,8.36957e-01,9.99999e-01,9.26418e-01,9.03603e-01,9.99810e-01
7.424233956e-01,8.72093e-01,9.99999e-01,9.63232e-01,9.05414e-01,9.99963e-01
7.461355126e-01,8.86812e-01,9.99999e-01,9.77539e-01,9.07193e-01,9.99993e-01
7.498661902e-01,8.99377e-01,9.99999e-01,9.89480e-01,9.08940e-01,9.99997e-01
7.536155211e-01,9.05942e-01,9.99999e-01,9.94824e-01,9.10656e-01,9.99998e-01
7.573835987e-01,9.09908e-01,9.99999e-01,9.97333e-01,9.12341e-01,9.99999e-01
7.611705167e-01,9.12481e-01,9.99999e-01,9.98342e-01,9.13995e-01,9.99999e-01
7.649763693e-01,9.14669e-01,9.99999e-01,9.98960e-01,9.15620e-01,9.99999e-01
7.688012511e-01,9.16552e-01,9.99999e-01,9.99275e-01,9.17216e-01,9.99999e-01
7.726452574e-01,9.18236e-01,9.99999e-01,9.99404e-01,9.18783e-01,9.99999e-01
7.765084837e-01,9.19541e-01,9.99999e-01,9.99152e-01,9.20321e-01,9.99998e-01
7.803910261e-01,9.18458e-01,9.99999e-01,9.96343e-01,9.21832e-01,9.99995e-01
7.842929812e-01,9.11567e-01,9.99999e-01,9.87298e-01,9.23315e-01,9.99976e-01
7.882144461e-01,9.00579e-01,9.99999e-01,9.74014e-01,9.24771e-01,9.99819e-01
7.921555184e-01,9.12655e-01,9.99999e-01,9.85683e-01,9.26201e-01,9.99686e-01
7.961162960e-01,9.03981e-01,9.99999e-01,9.74822e-01,9.27605e-01,9.99701e-01
8.000968774e-01,9.01690e-01,9.99999e-01,9.70928e-01,9.28983e-01,9.99682e-01
8.040973618e-01,9.03069e-01,9.99999e-01,9.70935e-01,9.30335e-01,9.99747e-01
8.081178486e-01,8.71805e-01,9.99999e-01,9.35971e-01,9.31663e-01,9.99763e-01
8.121584379e-01,7.10418e-01,9.99999e-01,7.62168e-01,9.32967e-01,9.99071e-01
8.162192301e-01,6.75704e-01,9.99999e-01,7.25791e-01,9.34246e-01,9.96511e-01
8.203003262e-01,7.98463e-01,9.99999e-01,8.57011e-01,9.35502e-01,9.95916e-01
8.244018279e-01,7.56198e-01,9.99999e-01,8.09902e-01,9.36735e-01,9.96748e-01
8.285238370e-01,7.70894e-01,9.99999e-01,8.24000e-01,9.37945e-01,9.97445e-01
8.326664562e-01,7.72012e-01,9.99999e-01,8.22916e-01,9.39133e-01,9.98942e-01
8.368297885e-01,8.16603e-01,9.99999e-01,8.68660e-01,9.40298e-01,9.99758e-01
8.410139374e-01,8.65546e-01,9.99999e-01,9.19512e-01,9.41442e-01,9.99858e-01
8.452190071e-01,9.04411e-01,9.99999e-01,9.59601e-01,9.42565e-01,9.99915e-01
8.494451021e-01,9.21265e-01,9.99999e-01,9.76326e-01,9.43667e-01,9.99931e-01
8.536923276e-01,9.31427e-01,9.99999e-01,9.85939e-01,9.44748e-01,9.99958e-01
8.579607893e-01,9.37587e-01,9.99999e-01,9.91315e-01,9.45810e-01,9.99989e-01
8.622505932e-01,9.41619e-01,9.99999e-01,9.94475e-01,9.46851e-01,9.99997e-01
8.665618462e-01,9.44629e-01,9.99999e-01,9.96578e-01,9.47873e-01,9.99998e-01
8.708946554e-01,9.45157e-01,9.99999e-01,9.96082e-01,9.48876e-01,9.99997e-01
8.752491287e-01,9.44880e-01,9.99999e-01,9.94762e-01,9.49860e-01,9.99994e-01
8.796253743e-01,9.43920e-01,9.99999e-01,9.92752e-01,9.50825e-01,9.99983e-01
8.840235012e-01,9.43852e-01,9.99999e-01,9.91727e-01,9.51773e-01,9.99949e-01
8.884436187e-01,9.24354e-01,9.99999e-01,9.70383e-01,9.52703e-01,9.99855e-01
8.928858368e-01,6.99562e-01,9.99999e-01,7.34198e-01,9.53615e-01,9.99170e-01
8.973502660e-01,5.53478e-01,9.99999e-01,5.82325e-01,9.54510e-01,9.95758e-01
9.018370173e-01,7.20291e-01,9.99999e-01,7.58979e-01,9.55388e-01,9.93338e-01
9.063462024e-01,7.43970e-01,9.99999e-01,7.82588e-01,9.56250e-01,9.94146e-01
9.108779334e-01,6.49717e-01,9.99999e-01,6.82996e-01,9.57095e-01,9.93917e-01
9.154323231e-01,6.15908e-01,9.99999e-01,6.46210e-01,9.57924e-01,9.94970e-01
9.200094847e-01,6.80914e-01,9.99999e-01,7.12225e-01,9.58738e-01,9.97181e-01
9.246095321e-01,5.80199e-01,9.99999e-01,6.06634e-01,9.59536e-01,9.96753e-01
9.292325798e-01,5.72701e-02,9.99999e-01,6.03975e-02,9.60320e-01,9.87398e-01
9.338787427e-01,1.97034e-02,9.99999e-01,2.16045e-02,9.61088e-01,9.48926e-01
9.385481364e-01,1.88664e-01,9.99999e-01,2.08768e-01,9.61842e-01,9.39553e-01
9.432408771e-01,1.16682e-01,9.99999e-01,1.27917e-01,9.62581e-01,9.47630e-01
9.479570815e-01,4.82429e-02,9.99999e-01,5.23216e-02,9.63306e-01,9.57165e-01
9.526968669e-01,9.31845e-02,9.99999e-01,9.92784e-02,9.64018e-01,9.73650e-01
9.574603512e-01,1.03970e-01,9.99999e-01,1.09244e-01,9.64716e-01,9.86527e-01
9.622476530e-01,1.49854e-01,9.99999e-01,1.56688e-01,9.65401e-01,9.90664e-01
9.670588912e-01,3.22722e-01,9.99999e-01,3.36205e-01,9.66072e-01,9.93606e-01
9.718941857e-01,4.67132e-01,9.99999e-01,4.85494e-01,9.66731e-01,9.95289e-01
9.767536566e-01,5.28034e-01,9.99999e-01,5.47813e-01,9.67377e-01,9.96397e-01
9.816374249e-01,6.15640e-01,9.99999e-01,6.36778e-01,9.68011e-01,9.98751e-01
9.865456120e-01,7.28906e-01,9.99999e-01,7.52705e-01,9.68633e-01,9.99739e-01
9.914783401e-01,8.12302e-01,9.99999e-01,8.38138e-01,9.69243e-01,9.99927e-01
9.964357318e-01,8.80832e-01,9.99999e-01,9.08260e-01,9.69841e-01,9.99957e-01
1.001417910e+00,9.15912e-01,9.99999e-01,9.43882e-01,9.70428e-01,9.99935e-01
1.006425000e+00,9.39440e-01,9.99999e-01,9.67581e-01,9.71004e-01,9.99907e-01
1.011457125e+00,9.51826e-01,9.99999e-01,9.79762e-01,9.71568e-01,9.99914e-01
1.016514411e+00,9.58661e-01,9.99999e-01,9.86211e-01,9.72122e-01,9.99939e-01
1.021596983e+00,9.61906e-01,9.99999e-01,9.88997e-01,9.72665e-01,9.99939e-01
1.026704968e+00,9.64798e-01,9.99999e-01,9.91408e-01,9.73198e-01,9.99959e-01
1.031838492e+00,9.67624e-01,9.99999e-01,9.93750e-01,9.73720e-01,9.99988e-01
1.036997685e+00,9.70610e-01,9.99999e-01,9.96282e-01,9.74232e-01,9.99997e-01
1.042182673e+00,9.70414e-01,9.99999e-01,9.95567e-01,9.74735e-01,9.99998e-01
1.047393587e+00,9.69500e-01,9.99999e-01,9.94127e-01,9.75228e-01,9.99998e-01
1.052630555e+00,9.67854e-01,9.99999e-01,9.91948e-01,9.75711e-01,9.99997e-01
1.057893707e+00,9.63096e-01,9.99999e-01,9.86595e-01,9.76185e-01,9.99994e-01
1.063183176e+00,9.55205e-01,9.99999e-01,9.78053e-01,9.76650e-01,9.99987e-01
1.068499092e+00,9.41466e-01,9.99999e-01,9.63548e-01,9.77106e-01,9.99974e-01
1.073841587e+00,9.36029e-01,9.99999e-01,9.57574e-01,9.77553e-01,9.99944e-01
1.079210795e+00,9.24937e-01,9.99999e-01,9.45891e-01,9.77991e-01,9.99851e-01
1.084606849e+00,8.99245e-01,9.99999e-01,9.19405e-01,9.78421e-01,9.99642e-01
1.090029883e+00,8.67359e-01,9.99999e-01,8.86762e-01,9.78843e-01,9.99259e-01
1.095480033e+00,7.05502e-01,9.99999e-01,7.21411e-01,9.79256e-01,9.98661e-01
1.100957433e+00,4.35205e-01,9.99999e-01,4.45336e-01,9.79662e-01,9.97537e-01
1.106462220e+00,1.45244e-01,9.99999e-01,1.48820e-01,9.80060e-01,9.95826e-01
1.111994531e+00,2.04163e-02,9.99999e-01,2.10559e-02,9.80450e-01,9.88959e-01
1.117554504e+00,2.70851e-03,9.99999e-01,2.87438e-03,9.80832e-01,9.60710e-01
1.123142276e+00,1.81376e-02,9.99999e-01,2.03282e-02,9.81207e-01,9.09326e-01
1.128757988e+00,4.93275e-02,9.99999e-01,5.60944e-02,9.81575e-01,8.95870e-01
1.134401778e+00,2.46242e-02,9.99999e-01,2.75350e-02,9.81935e-01,9.10739e-01
1.140073787e+00,1.43885e-01,9.99999e-01,1.57841e-01,9.82289e-01,9.28017e-01
1.145774156e+00,3.13701e-02,9.99999e-01,3.41838e-02,9.82636e-01,9.33904e-01
1.151503026e+00,2.13280e-02,9.99999e-01,2.25399e-02,9.82976e-01,9.62622e-01
1.157260541e+00,2.80110e-02,9.99999e-01,2.88127e-02,9.83309e-01,9.88674e-01
1.163046844e+00,6.92910e-02,9.99999e-01,7.06715e-02,9.83636e-01,9.96776e-01
1.168862078e+00,1.42104e-01,9.99999e-01,1.44662e-01,9.83957e-01,9.98338e-01
1.174706389e+00,2.94235e-01,9.99999e-01,2.99597e-01,9.84271e-01,9.97797e-01
1.180579921e+00,4.66585e-01,9.99999e-01,4.75474e-01,9.84579e-01,9.96671e-01
1.186482820e+00,6.40276e-01,9.99999e-01,6.52332e-01,9.84882e-01,9.96584e-01
1.192415234e+00,7.64545e-01,9.99999e-01,7.78037e-01,9.85178e-01,9.97440e-01
1.198377311e+00,7.95824e-01,9.99999e-01,8.09515e-01,9.85469e-01,9.97582e-01
1.204369197e+00,8.06487e-01,9.99999e-01,8.19935e-01,9.85754e-01,9.97812e-01
1.210391043e+00,8.13752e-01,9.99999e-01,8.26377e-01,9.86033e-01,9.98668e-01
1.216442998e+00,8.37949e-01,9.99999e-01,8.50275e-01,9.86307e-01,9.99184e-01
1.222525213e+00,8.68647e-01,9.99999e-01,8.80912e-01,9.86576e-01,9.99493e-01
1.228637839e+00,9.03363e-01,9.99999e-01,9.15626e-01,9.86839e-01,9.99763e-01
1.234781029e+00,9.24518e-01,9.99999e-01,9.36664e-01,9.87097e-01,9.99932e-01
1.240954934e+00,9.47299e-01,9.99999e-01,9.59453e-01,9.87350e-01,9.99980e-01
1.247159708e+00,9.56246e-01,9.99999e-01,9.68265e-01,9.87599e-01,9.99987e-01
1.253395507e+00,9.59941e-01,9.99999e-01,9.71770e-01,9.87842e-01,9.99983e-01
1.259662485e+00,9.61536e-01,9.99999e-01,9.73158e-01,9.88081e-01,9.99974e-01
1.265960797e+00,9.46269e-01,9.99999e-01,9.57496e-01,9.88315e-01,9.99957e-01
1.272290601e+00,9.23341e-01,9.99999e-01,9.34109e-01,9.88544e-01,9.99925e-01
1.278652054e+00,8.63973e-01,9.99999e-01,8.73900e-01,9.88769e-01,9.99868e-01
1.285045314e+00,7.75666e-01,9.99999e-01,7.84493e-01,9.88990e-01,9.99754e-01
1.291470541e+00,6.48650e-01,9.99999e-01,6.56009e-01,9.89206e-01,9.99568e-01
1.297927893e+00,5.74536e-01,9.99999e-01,5.81148e-01,9.89418e-01,9.99195e-01
1.304417533e+00,4.94397e-01,9.99999e-01,5.00431e-01,9.89626e-01,9.98297e-01
1.310939621e+00,4.46864e-01,9.99999e-01,4.53037e-01,9.89830e-01,9.96507e-01
1.317494319e+00,4.18925e-01,9.99999e-01,4.25890e-01,9.90030e-01,9.93549e-01
1.324081790e+00,2.84178e-01,9.99999e-01,2.90032e-01,9.90226e-01,9.89489e-01
1.330702199e+00,4.68251e-02,9.99999e-01,4.81474e-02,9.90418e-01,9.81945e-01
1.337355710e+00,3.03642e-05,9.99999e-01,3.17467e-05,9.90606e-01,9.65520e-01
1.344042489e+00,1.04421e-07,9.99999e-01,1.17140e-07,9.90791e-01,8.99707e-01
1.350762701e+00,1.92427e-24,9.99999e-01,2.78837e-24,9.90972e-01,6.96392e-01
1.357516515e+00,5.72285e-37,9.99999e-01,1.66979e-36,9.91150e-01,3.45788e-01
1.364304097e+00,5.99658e-23,9.99999e-01,3.89007e-22,9.91324e-01,1.55500e-01
1.371125618e+00,4.61644e-14,9.99999e-01,2.69187e-13,9.91494e-01,1.72967e-01
1.377981246e+00,1.79364e-13,9.99999e-01,8.13924e-13,9.91661e-01,2.22222e-01
1.384871152e+00,6.36684e-19,9.99999e-01,2.60715e-18,9.91826e-01,2.46219e-01
1.391795508e+00,4.45477e-23,9.99999e-01,1.70813e-22,9.91986e-01,2.62905e-01
1.398754485e+00,1.11940e-17,9.99999e-01,3.40157e-17,9.92144e-01,3.31688e-01
1.405748258e+00,1.87176e-17,9.99999e-01,3.59571e-17,9.92299e-01,5.24591e-01
1.412776999e+00,7.22737e-17,9.99999e-01,9.77670e-17,9.92450e-01,7.44866e-01
1.419840884e+00,1.24729e-16,9.99998e-01,1.42983e-16,9.92599e-01,8.78840e-01
1.426940089e+00,4.20938e-11,9.99998e-01,4.67728e-11,9.92744e-01,9.06540e-01
1.434074789e+00,8.20108e-10,9.99998e-01,9.27374e-10,9.92887e-01,8.90667e-01
1.441245163e+00,3.69301e-08,9.99999e-01,4.21584e-08,9.93027e-01,8.82133e-01
1.448451389e+00,1.18436e-05,9.99998e-01,1.33092e-05,9.93164e-01,8.96005e-01
1.455693646e+00,4.44147e-04,9.99998e-01,4.87028e-04,9.93299e-01,9.18104e-01
1.462972114e+00,6.35111e-04,9.99999e-01,6.93589e-04,9.93431e-01,9.21742e-01
1.470286975e+00,2.36860e-04,9.99999e-01,2.58276e-04,9.93560e-01,9.23022e-01
