#,Wave/freq,Total,N2,H2O,Rayleigh,CIA
4.000000000e-01,1.10112e-01,9.99999e-01,9.99750e-01,1.10139e-01,9.99999e-01
4.020000000e-01,1.15032e-01,9.99999e-01,9.99844e-01,1.15050e-01,9.99999e-01
4.040100000e-01,1.20062e-01,9.99999e-01,9.99933e-01,1.20070e-01,9.99999e-01
4.060300500e-01,1.25202e-01,9.99999e-01,9.99984e-01,1.25204e-01,9.99999e-01
4.080602003e-01,1.30449e-01,9.99999e-01,9.99994e-01,1.30450e-01,9.99999e-01
4.101005013e-01,1.35805e-01,9.99999e-01,9.99999e-01,1.35805e-01,9.99999e-01
4.121510038e-01,1.41266e-01,9.99999e-01,9.99990e-01,1.41267e-01,9.99999e-01
4.142117588e-01,1.46825e-01,9.99999e-01,9.99931e-01,1.46835e-01,9.99999e-01
4.162828176e-01,1.52459e-01,9.99999e-01,9.99691e-01,1.52506e-01,9.99999e-01
4.183642317e-01,1.58249e-01,9.99999e-01,9.99816e-01,1.58278e-01,9.99999e-01
4.204560528e-01,1.64129e-01,9.99999e-01,9.99886e-01,1.64147e-01,9.99999e-01
4.225583331e-01,1.70105e-01,9.99999e-01,9.99957e-01,1.70112e-01,9.99999e-01
4.246711247e-01,1.76163e-01,9.99999e-01,9.99966e-01,1.76169e-01,9.99999e-01
4.267944804e-01,1.82307e-01,9.99999e-01,9.99950e-01,1.82316e-01,9.99999e-01
4.289284528e-01,1.88542e-01,9.99999e-01,9.99961e-01,1.88549e-01,9.99999e-01
4.310730950e-01,1.94863e-01,9.99999e-01,9.99983e-01,1.94866e-01,9.99999e-01
4.332284605e-01,2.01263e-01,9.99999e-01,9.99995e-01,2.01264e-01,9.99999e-01
4.353946028e-01,2.07739e-01,9.99999e-01,9.99997e-01,2.07739e-01,9.99999e-01
4.375715758e-01,2.14282e-01,9.99999e-01,9.99969e-01,2.14289e-01,9.99999e-01
4.397594337e-01,2.20850e-01,9.99999e-01,9.99731e-01,2.20909e-01,9.99999e-01
4.419582309e-01,2.27288e-01,9.99999e-01,9.98639e-01,2.27597e-01,9.99999e-01
4.441680220e-01,2.34097e-01,9.99999e-01,9.98922e-01,2.34350e-01,9.99999e-01
4.463888621e-01,2.40894e-01,9.99999e-01,9.98883e-01,2.41163e-01,9.99999e-01
4.486208064e-01,2.47862e-01,9.99999e-01,9.99303e-01,2.48035e-01,9.99999e-01
4.508639105e-01,2.54877e-01,9.99999e-01,9.99674e-01,2.54960e-01,9.99999e-01
4.531182300e-01,2.61903e-01,9.99999e-01,9.99870e-01,2.61936e-01,9.99999e-01
4.553838212e-01,2.68937e-01,9.99999e-01,9.99912e-01,2.68960e-01,9.99999e-01
4.576607403e-01,2.76017e-01,9.99999e-01,9.99959e-01,2.76028e-01,9.99999e-01
4.599490440e-01,2.83128e-01,9.99999e-01,9.99971e-01,2.83136e-01,9.99999e-01
4.622487892e-01,2.90280e-01,9.99999e-01,9.99994e-01,2.90282e-01,9.99999e-01
4.645600332e-01,2.97456e-01,9.99999e-01,9.99980e-01,2.97461e-01,9.99999e-01
4.668828333e-01,3.04572e-01,9.99999e-01,9.99672e-01,3.04671e-01,9.99999e-01
4.692172475e-01,3.11690e-01,9.99999e-01,9.99299e-01,3.11908e-01,9.99999e-01
4.715633337e-01,3.19024e-01,9.99999e-01,9.99542e-01,3.19170e-01,9.99999e-01
4.739211504e-01,3.26308e-01,9.99999e-01,9.99560e-01,3.26451e-01,9.99999e-01
4.762907561e-01,3.33674e-01,9.99999e-01,9.99771e-01,3.33750e-01,9.99999e-01
4.786722099e-01,3.41032e-01,9.99999e-01,9.99906e-01,3.41063e-01,9.99999e-01
4.810655710e-01,3.48378e-01,9.99999e-01,9.99971e-01,3.48388e-01,9.99999e-01
4.834708988e-01,3.55626e-01,9.99999e-01,9.99735e-01,3.55720e-01,9.99999e-01
4.858882533e-01,3.62877e-01,9.99999e-01,9.99502e-01,3.63057e-01,9.99999e-01
4.883176946e-01,3.70243e-01,9.99999e-01,9.99585e-01,3.70396e-01,9.99999e-01
4.907592831e-01,3.77592e-01,9.99999e-01,9.99624e-01,3.77734e-01,9.99999e-01
4.932130795e-01,3.84966e-01,9.99999e-01,9.99733e-01,3.85068e-01,9.99999e-01
4.956791449e-01,3.92341e-01,9.99999e-01,9.99858e-01,3.92396e-01,9.99999e-01
4.981575406e-01,3.99434e-01,9.99999e-01,9.99298e-01,3.99714e-01,9.99999e-01
5.006483283e-01,4.06278e-01,9.99999e-01,9.98189e-01,4.07020e-01,9.99987e-01
5.031515699e-01,4.10467e-01,9.99999e-01,9.90815e-01,4.14311e-01,9.99902e-01
5.056673278e-01,4.19485e-01,9.99999e-01,9.95126e-01,4.21586e-01,9.99888e-01
5.081956644e-01,4.26173e-01,9.99999e-01,9.93852e-01,4.28840e-01,9.99927e-01
5.107366428e-01,4.34254e-01,9.99999e-01,9.95844e-01,4.36072e-01,9.99986e-01
5.132903260e-01,4.42225e-01,9.99999e-01,9.97620e-01,4.43280e-01,9.99997e-01
5.158567776e-01,4.50007e-01,9.99999e-01,9.98993e-01,4.50461e-01,9.99999e-01
5.184360615e-01,4.57428e-01,9.99999e-01,9.99597e-01,4.57613e-01,9.99999e-01
5.210282418e-01,4.64664e-01,9.99999e-01,9.99849e-01,4.64733e-01,9.99999e-01
5.236333830e-01,4.71535e-01,9.99999e-01,9.99397e-01,4.71821e-01,9.99995e-01
5.262515499e-01,4.78690e-01,9.99999e-01,9.99622e-01,4.78874e-01,9.99993e-01
5.288828077e-01,4.85720e-01,9.99999e-01,9.99654e-01,4.85890e-01,9.99995e-01
5.315272217e-01,4.92716e-01,9.99999e-01,9.99694e-01,4.92866e-01,9.99998e-01
5.341848578e-01,4.99704e-01,9.99999e-01,9.99801e-01,4.99803e-01,9.99999e-01
5.368557821e-01,5.06342e-01,9.99999e-01,9.99300e-01,5.06697e-01,9.99997e-01
5.395400610e-01,5.12246e-01,9.99999e-01,9.97487e-01,5.13547e-01,9.99978e-01
5.422377613e-01,5.18617e-01,9.99999e-01,9.96724e-01,5.20351e-01,9.99940e-01
5.449489501e-01,5.25479e-01,9.99999e-01,9.96967e-01,5.27109e-01,9.99938e-01
5.476736949e-01,5.32362e-01,9.99999e-01,9.97299e-01,5.33819e-01,9.99969e-01
5.504120634e-01,5.39415e-01,9.99999e-01,9.98040e-01,5.40478e-01,9.99991e-01
5.531641237e-01,5.46547e-01,9.99999e-01,9.99013e-01,5.47087e-01,9.99998e-01
5.559299443e-01,5.53381e-01,9.99999e-01,9.99523e-01,5.53644e-01,9.99999e-01
5.587095940e-01,5.59981e-01,9.99999e-01,9.99702e-01,5.60148e-01,9.99999e-01
5.615031420e-01,5.66409e-01,9.99999e-01,9.99668e-01,5.66597e-01,9.99998e-01
5.643106577e-01,5.72775e-01,9.99999e-01,9.99627e-01,5.72991e-01,9.99996e-01
5.671322110e-01,5.76698e-01,9.99999e-01,9.95498e-01,5.79328e-01,9.99959e-01
5.699678720e-01,5.82682e-01,9.99999e-01,9.95125e-01,5.85609e-01,9.99875e-01
5.728177114e-01,5.88784e-01,9.99999e-01,9.94953e-01,5.91831e-01,9.99896e-01
5.756818000e-01,5.95184e-01,9.99999e-01,9.95361e-01,5.97995e-01,9.99936e-01
5.785602090e-01,6.01643e-01,9.99999e-01,9.95951e-01,6.04099e-01,9.99980e-01
5.814530100e-01,6.07661e-01,9.99999e-01,9.95939e-01,6.10143e-01,9.99990e-01
5.843602750e-01,6.13147e-01,9.99999e-01,9.95189e-01,6.16127e-01,9.99972e-01
5.872820764e-01,5.96695e-01,9.99999e-01,9.59521e-01,6.22049e-01,9.99706e-01
5.902184868e-01,5.96399e-01,9.99999e-01,9.50575e-01,6.27910e-01,9.99200e-01
5.931695792e-01,6.11076e-01,9.99999e-01,9.65036e-01,6.33708e-01,9.99221e-01
5.961354271e-01,6.14586e-01,9.99999e-01,9.61577e-01,6.39444e-01,9.99529e-01
5.991161043e-01,6.26817e-01,9.99999e-01,9.71765e-01,6.45117e-01,9.99862e-01
6.021116848e-01,6.40217e-01,9.99999e-01,9.83866e-01,6.50726e-01,9.99982e-01
6.051222432e-01,6.50891e-01,9.99999e-01,9.91801e-01,6.56272e-01,9.99998e-01
6.081478544e-01,6.59411e-01,9.99999e-01,9.96458e-01,6.61755e-01,9.99999e-01
6.111885937e-01,6.66172e-01,9.99999e-01,9.98497e-01,6.67174e-01,9.99999e-01
6.142445367e-01,6.72078e-01,9.99999e-01,9.99329e-01,6.72528e-01,9.99999e-01
6.173157594e-01,6.77569e-01,9.99999e-01,9.99630e-01,6.77819e-01,9.99999e-01
6.204023382e-01,6.82833e-01,9.99999e-01,9.99688e-01,6.83046e-01,9.99999e-01
6.235043498e-01,6.87270e-01,9.99999e-01,9.98639e-01,6.88208e-01,9.99996e-01
6.266218716e-01,6.88241e-01,9.99999e-01,9.92743e-01,6.93306e-01,9.99948e-01
6.297549810e-01,6.96408e-01,9.99999e-01,9.97333e-01,6.98340e-01,9.99897e-01
6.329037559e-01,6.99542e-01,9.99999e-01,9.94722e-01,7.03311e-01,9.99917e-01
6.360682746e-01,7.05009e-01,9.99999e-01,9.95518e-01,7.08217e-01,9.99951e-01
6.392486160e-01,7.08900e-01,9.99999e-01,9.94186e-01,7.13060e-01,9.99978e-01
6.424448591e-01,7.12268e-01,9.99999e-01,9.92272e-01,7.17839e-01,9.99965e-01
6.456570834e-01,6.96900e-01,9.99999e-01,9.64686e-01,7.22555e-01,9.99799e-01
6.488853688e-01,7.07822e-01,9.99999e-01,9.73886e-01,7.27208e-01,9.99439e-01
6.521297956e-01,7.12022e-01,9.99999e-01,9.73433e-01,7.31798e-01,9.99529e-01
6.553904446e-01,7.16640e-01,9.99999e-01,9.73608e-01,7.36325e-01,9.99646e-01
6.586673968e-01,7.23837e-01,9.99999e-01,9.77226e-01,7.40791e-01,9.99884e-01
6.619607338e-01,7.35304e-01,9.99999e-01,9.86751e-01,7.45194e-01,9.99974e-01
6.652705375e-01,7.43751e-01,9.99999e-01,9.92294e-01,7.49536e-01,9.99987e-01
6.685968902e-01,7.51113e-01,9.99999e-01,9.96415e-01,7.53816e-01,9.99997e-01
6.719398746e-01,7.56775e-01,9.99999e-01,9.98335e-01,7.58036e-01,9.99999e-01
6.752995740e-01,7.61510e-01,9.99999e-01,9.99100e-01,7.62195e-01,9.99999e-01
6.786760719e-01,7.65303e-01,9.99999e-01,9.98706e-01,7.66294e-01,9.99997e-01
6.820694522e-01,7.68617e-01,9.99999e-01,9.97782e-01,7.70334e-01,9.99988e-01
6.854797995e-01,7.72083e-01,9.99999e-01,9.97141e-01,7.74315e-01,9.99974e-01
6.889071985e-01,7.72876e-01,9.99999e-01,9.93173e-01,7.78237e-01,9.99937e-01
6.923517345e-01,6.99063e-01,9.99999e-01,8.94312e-01,7.82100e-01,9.99457e-01
6.958134932e-01,7.40215e-01,9.99999e-01,9.43013e-01,7.85906e-01,9.98776e-01
6.992925606e-01,7.46209e-01,9.99999e-01,9.45998e-01,7.89655e-01,9.98923e-01
7.027890234e-01,7.39904e-01,9.99999e-01,9.33405e-01,7.93347e-01,9.99173e-01
7.063029686e-01,7.51705e-01,9.99999e-01,9.43575e-01,7.96983e-01,9.99588e-01
7.098344834e-01,7.56944e-01,9.99999e-01,9.45743e-01,8.00563e-01,9.99756e-01
7.133836558e-01,7.47039e-01,9.99999e-01,9.29499e-01,8.04089e-01,9.99516e-01
7.169505741e-01,4.62444e-01,9.99999e-01,5.74826e-01,8.07559e-01,9.96203e-01
7.205353270e-01,6.08181e-01,9.99999e-01,7.54986e-01,8.10976e-01,9.93311e-01
7.241380036e-01,5.66789e-01,9.99999e-01,7.00056e-01,8.14339e-01,9.94221e-01
7.277586936e-01,5.90041e-01,9.99999e-01,7.25057e-01,8.17649e-01,9.95273e-01
7.313974871e-01,5.78010e-01,9.99999e-01,7.05674e-01,8.20907e-01,9.97783e-01
7.350544745e-01,6.79551e-01,9.99999e-01,8.25219e-01,8.24113e-01,9.99229e-01
7.387297469e-01,7.17061e-01,9.99999e-01,8.67087e-01,8.27268e-01,9.99646e-01
7.424233956e-01,7.74038e-01,9.99999e-01,9.32220e-01,8.30373e-01,9.99931e-01
7.461355126e-01,7.98702e-01,9.99999e-01,9.58345e-01,8.33427e-01,9.99987e-01
7.498661902e-01,8.19986e-01,9.99999e-01,9.80341e-01,8.36432e-01,9.99995e-01
7.536155211e-01,8.31264e-01,9.99999e-01,9.90322e-01,8.39388e-01,9.99997e-01
7.573835987e-01,8.38089e-01,9.99999e-01,9.95005e-01,8.42296e-01,9.99998e-01
7.611705167e-01,8.42532e-01,9.99999e-01,9.96894e-01,8.45156e-01,9.99999e-01
7.649763693e-01,8.46320e-01,9.99999e-01,9.98054e-01,8.47969e-01,9.99999e-01
7.688012511e-01,8.49584e-01,9.99999e-01,9.98645e-01,8.50736e-01,9.99999e-01
7.726452574e-01,8.52506e-01,9.99999e-01,9.98886e-01,8.53457e-01,9.99998e-01
7.765084837e-01,8.54783e-01,9.99999e-01,9.98424e-01,8.56132e-01,9.99997e-01
7.803910261e-01,8.52933e-01,9.99999e-01,9.93216e-01,8.58763e-01,9.99992e-01
7.842929812e-01,8.41119e-01,9.99999e-01,9.76555e-01,8.61350e-01,9.99955e-01
7.882144461e-01,8.22191e-01,9.99999e-01,9.52013e-01,8.63893e-01,9.99699e-01
7.921555184e-01,8.42807e-01,9.99999e-01,9.73342e-01,8.66393e-01,9.99418e-01
7.961162960e-01,8.28198e-01,9.99999e-01,9.53742e-01,8.68851e-01,9.99442e-01
8.000968774e-01,8.24044e-01,9.99999e-01,9.46360e-01,8.71267e-01,9.99406e-01
8.040973618e-01,8.26476e-01,9.99999e-01,9.46457e-01,8.73642e-01,9.99528e-01
8.081178486e-01,7.74950e-01,9.99999e-01,8.85061e-01,8.75976e-01,9.99558e-01
8.121584379e-01,5.35151e-01,9.99999e-01,6.10382e-01,8.78270e-01,9.98265e-01
8.162192301e-01,4.87678e-01,9.99999e-01,5.57476e-01,8.80525e-01,9.93491e-01
8.203003262e-01,6.66665e-01,9.99999e-01,7.61018e-01,8.82740e-01,9.92383e-01
8.244018279e-01,6.07320e-01,9.99999e-01,6.90488e-01,8.84918e-01,9.93933e-01
8.285238370e-01,6.18700e-01,9.99999e-01,7.00815e-01,8.87057e-01,9.95232e-01
8.326664562e-01,6.20475e-01,9.99999e-01,6.99202e-01,8.89160e-01,9.98025e-01
8.368297885e-01,6.85747e-01,9.99999e-01,7.69789e-01,8.91225e-01,9.99548e-01
8.410139374e-01,7.63627e-01,9.99999e-01,8.55106e-01,8.93255e-01,9.99735e-01
8.452190071e-01,8.28603e-01,9.99999e-01,9.25701e-01,8.95249e-01,9.99841e-01
8.494451021e-01,8.57785e-01,9.99999e-01,9.56180e-01,8.97208e-01,9.99873e-01
8.536923276e-01,8.75501e-01,9.99999e-01,9.73799e-01,8.99132e-01,9.99915e-01
8.579607893e-01,8.86415e-01,9.99999e-01,9.83809e-01,9.01022e-01,9.99977e-01
8.622505932e-01,8.93549e-01,9.99999e-01,9.89668e-01,9.02879e-01,9.99996e-01
8.665618462e-01,8.98923e-01,9.99999e-01,9.93611e-01,9.04703e-01,9.99997e-01
8.708946554e-01,8.99873e-01,9.99999e-01,9.92698e-01,9.06494e-01,9.99995e-01
8.752491287e-01,8.99377e-01,9.99999e-01,9.90236e-01,9.08254e-01,9.99989e-01
8.796253743e-01,8.97702e-01,9.99999e-01,9.86534e-01,9.09982e-01,9.99969e-01
8.840235012e-01,8.97584e-01,9.99999e-01,9.84631e-01,9.11679e-01,9.99905e-01
8.884436187e-01,8.64362e-01,9.99999e-01,9.46621e-01,9.13346e-01,9.99731e-01
8.928858368e-01,5.25444e-01,9.99999e-01,5.75157e-01,9.14982e-01,9.98451e-01
8.973502660e-01,3.44988e-01,9.99999e-01,3.79383e-01,9.16590e-01,9.92088e-01
9.018370173e-01,5.51359e-01,9.99999e-01,6.08045e-01,9.18168e-01,9.87588e-01
9.063462024e-01,5.85780e-01,9.99999e-01,6.43938e-01,9.19717e-01,9.89088e-01
9.108779334e-01,4.58698e-01,9.99999e-01,5.03623e-01,9.21239e-01,9.88664e-01
9.154323231e-01,4.13629e-01,9.99999e-01,4.52509e-01,9.22733e-01,9.90621e-01
9.200094847e-01,4.97896e-01,9.99999e-01,5.41580e-01,9.24200e-01,9.94739e-01
9.246095321e-01,3.82816e-01,9.99999e-01,4.16089e-01,9.25640e-01,9.93941e-01
9.292325798e-01,1.54144e-02,9.99999e-01,1.70260e-02,9.27054e-01,9.76580e-01
9.338787427e-01,1.44808e-03,9.99999e-01,1.72023e-03,9.28442e-01,9.06677e-01
9.385481364e-01,6.14463e-02,9.99999e-01,7.42518e-02,9.29804e-01,8.90013e-01
9.432408771e-01,2.97103e-02,9.99999e-01,3.52815e-02,9.31142e-01,9.04364e-01
9.479570815e-01,5.42334e-03,9.99999e-01,6.31203e-03,9.32455e-01,9.21444e-01
9.526968669e-01,1.64827e-02,9.99999e-01,1.85554e-02,9.33744e-01,9.51324e-01
9.574603512e-01,2.05313e-02,9.99999e-01,2.25220e-02,9.35009e-01,9.74971e-01
9.622476530e-01,3.79604e-02,9.99999e-01,4.12619e-02,9.36251e-01,9.82625e-01
9.670588912e-01,1.39851e-01,9.99999e-01,1.50978e-01,9.37470e-01,9.88084e-01
9.718941857e-01,2.50562e-01,9.99999e-01,2.69300e-01,9.38667e-01,9.91214e-01
9.767536566e-01,3.12722e-01,9.99999e-01,3.34991e-01,9.39841e-01,9.93279e-01
9.816374249e-01,4.08836e-01,9.99999e-01,4.35487e-01,9.40993e-01,9.97669e-01
9.865456120e-01,5.55866e-01,9.99999e-01,5.90300e-01,9.42124e-01,9.99513e-01
9.914783401e-01,6.78541e-01,9.99999e-01,7.19472e-01,9.43234e-01,9.99864e-01
9.964357318e-01,7.88996e-01,9.99999e-01,8.35579e-01,9.44324e-01,9.99920e-01
1.001417910e+00,8.48492e-01,9.99999e-01,8.97609e-01,9.45393e-01,9.99879e-01
1.006425000e+00,8.89733e-01,9.99999e-01,9.40241e-01,9.46442e-01,9.99828e-01
1.011457125e+00,9.11727e-01,9.99999e-01,9.62425e-01,9.47472e-01,9.99840e-01
1.016514411e+00,9.24047e-01,9.99999e-01,9.74346e-01,9.48482e-01,9.99887e-01
1.021596983e+00,9.29918e-01,9.99999e-01,9.79513e-01,9.49474e-01,9.99886e-01
1.026704968e+00,9.35159e-01,9.99999e-01,9.83989e-01,9.50446e-01,9.99924e-01
1.031838492e+00,9.40275e-01,9.99999e-01,9.88325e-01,9.51401e-01,9.99978e-01
1.036997685e+00,9.45725e-01,9.99999e-01,9.93058e-01,9.52338e-01,9.99996e-01
1.042182673e+00,9.45389e-01,9.99999e-01,9.91746e-01,9.53257e-01,9.99998e-01
1.047393587e+00,9.43716e-01,9.99999e-01,9.89056e-01,9.54159e-01,9.99997e-01
1.052630555e+00,9.40741e-01,9.99999e-01,9.85027e-01,9.55043e-01,9.99995e-01
1.057893707e+00,9.32165e-01,9.99999e-01,9.75166e-01,9.55911e-01,9.99990e-01
1.063183176e+00,9.17988e-01,9.99999e-01,9.59492e-01,9.56763e-01,9.99977e-01
1.068499092e+00,8.93544e-01,9.99999e-01,9.33151e-01,9.57599e-01,9.99952e-01
1.073841587e+00,8.84245e-01,9.99999e-01,9.22702e-01,9.58419e-01,9.99897e-01
1.079210795e+00,8.64559e-01,9.99999e-01,9.01561e-01,9.59223e-01,9.99722e-01
1.084606849e+00,8.20845e-01,9.99999e-01,8.55606e-01,9.60012e-01,9.99332e-01
1.090029883e+00,7.69135e-01,9.99999e-01,8.01634e-01,9.60786e-01,9.98616e-01
1.095480033e+00,5.26578e-01,9.99999e-01,5.49009e-01,9.61546e-01,9.97499e-01
1.100957433e+00,2.25107e-01,9.99999e-01,2.35009e-01,9.62291e-01,9.95403e-01
1.106462220e+00,3.70569e-02,9.99999e-01,3.87817e-02,9.63022e-01,9.92215e-01
1.111994531e+00,1.25095e-03,9.99999e-01,1.32523e-03,9.63739e-01,9.79466e-01
1.117554504e+00,5.94903e-05,9.99999e-01,6.64813e-05,9.64442e-01,9.27832e-01
1.123142276e+00,1.41340e-03,9.99999e-01,1.74912e-03,9.65132e-01,8.37252e-01
1.128757988e+00,5.40549e-03,9.99999e-01,6.87363e-03,9.65809e-01,8.14249e-01
1.134401778e+00,3.82169e-03,9.99999e-01,4.70922e-03,9.66473e-01,8.39685e-01
1.140073787e+00,3.18628e-02,9.99999e-01,3.78819e-02,9.67124e-01,8.69701e-01
1.145774156e+00,3.56696e-03,9.99999e-01,4.18819e-03,9.67763e-01,8.80039e-01
1.151503026e+00,1.50308e-03,9.99999e-01,1.66666e-03,9.68389e-01,9.31286e-01
1.157260541e+00,1.77845e-03,9.99999e-01,1.87482e-03,9.69004e-01,9.78939e-01
1.163046844e+00,8.98547e-03,9.99999e-01,9.32319e-03,9.69607e-01,9.93985e-01
1.168862078e+00,3.10734e-02,9.99999e-01,3.21276e-02,9.70198e-01,9.96896e-01
1.174706389e+00,1.09547e-01,9.99999e-01,1.13310e-01,9.70778e-01,9.95888e-01
1.180579921e+00,2.48417e-01,9.99999e-01,2.57343e-01,9.71347e-01,9.93789e-01
1.186482820e+00,4.37658e-01,9.99999e-01,4.53198e-01,9.71905e-01,9.93626e-01
1.192415234e+00,6.06355e-01,9.99999e-01,6.26524e-01,9.72452e-01,9.95223e-01
1.198377311e+00,6.53950e-01,9.99999e-01,6.75150e-01,9.72989e-01,9.95487e-01
1.204369197e+00,6.71873e-01,9.99999e-01,6.92981e-01,9.73515e-01,9.95916e-01
1.210391043e+00,6.82038e-01,9.99999e-01,7.01966e-01,9.74031e-01,9.97513e-01
1.216442998e+00,7.19849e-01,9.99999e-01,7.39783e-01,9.74538e-01,9.98476e-01
1.222525213e+00,7.68977e-01,9.99999e-01,7.89413e-01,9.75034e-01,9.99053e-01
1.228637839e+00,8.27186e-01,9.99999e-01,8.48315e-01,9.75521e-01,9.99559e-01
1.234781029e+00,8.63633e-01,9.99999e-01,8.84981e-01,9.75999e-01,9.99873e-01
1.240954934e+00,9.03807e-01,9.99999e-01,9.25620e-01,9.76467e-01,9.99964e-01
1.247159708e+00,9.19736e-01,9.99999e-01,9.41478e-01,9.76927e-01,9.99977e-01
1.253395507e+00,9.26438e-01,9.99999e-01,9.47909e-01,9.77377e-01,9.99970e-01
1.259662485e+00,9.29386e-01,9.99999e-01,9.50512e-01,9.77819e-01,9.99952e-01
1.265960797e+00,9.02016e-01,9.99999e-01,9.22140e-01,9.78252e-01,9.99921e-01
1.272290601e+00,8.68949e-01,9.99999e-01,8.88003e-01,9.78677e-01,9.99860e-01
1.278652054e+00,7.63776e-01,9.99999e-01,7.80275e-01,9.79094e-01,9.99754e-01
1.285045314e+00,6.65801e-01,9.99999e-01,6.80045e-01,9.79503e-01,9.99540e-01
1.291470541e+00,4.54079e-01,9.99999e-01,4.63764e-01,9.79903e-01,9.99195e-01
1.297927893e+00,3.68140e-01,9.99999e-01,3.76104e-01,9.80296e-01,9.98497e-01
1.304417533e+00,2.80773e-01,9.99999e-01,2.87216e-01,9.80682e-01,9.96820e-01
1.310939621e+00,2.35831e-01,9.99999e-01,2.41960e-01,9.81060e-01,9.93483e-01
1.317494319e+00,2.10303e-01,9.99999e-01,2.16889e-01,9.81430e-01,9.87979e-01
1.324081790e+00,1.10258e-01,9.99999e-01,1.14542e-01,9.81794e-01,9.80447e-01
1.330702199e+00,1.14729e-02,9.99999e-01,1.20860e-02,9.82150e-01,9.66524e-01
1.337355710e+00,1.57732e-08,9.99999e-01,1.71421e-08,9.82500e-01,9.36531e-01
1.344042489e+00,1.88546e-12,9.99999e-01,2.33726e-12,9.82842e-01,8.20777e-01
1.350762701e+00,9.33232e-44,9.99999e-01,1.86650e-43,9.83178e-01,5.08545e-01
1.357516515e+00,3.72079e-67,9.99999e-01,2.75244e-66,9.83508e-01,1.37448e-01
1.364304097e+00,5.47401e-41,9.99999e-01,1.80245e-39,9.83831e-01,3.08689e-02
1.371125618e+00,2.45225e-24,9.99999e-01,6.61582e-23,9.84148e-01,3.76635e-02
1.377981246e+00,1.46882e-23,9.99999e-01,2.48017e-22,9.84458e-01,6.01574e-02
1.384871152e+00,1.97956e-33,9.99999e-01,2.83790e-32,9.84763e-01,7.08334e-02
1.391795508e+00,2.75809e-41,9.99999e-01,3.43170e-40,9.85062e-01,8.15895e-02
1.398754485e+00,4.17632e-31,9.99999e-01,3.33311e-30,9.85355e-01,1.27160e-01
1.405748258e+00,9.89189e-31,9.99999e-01,3.35082e-30,9.85642e-01,2.99507e-01
1.412776999e+00,1.42434e-29,9.99998e-01,2.50511e-29,9.85923e-01,5.76691e-01
1.419840884e+00,2.99815e-29,9.99997e-01,3.86997e-29,9.86199e-01,7.85562e-01
1.426940089e+00,8.54451e-19,9.99997e-01,1.04049e-18,9.86470e-01,8.32466e-01
1.434074789e+00,8.52025e-17,9.99997e-01,1.07206e-16,9.86736e-01,8.05434e-01
1.441245163e+00,8.93619e-14,9.99998e-01,1.14451e-13,9.86996e-01,7.91072e-01
1.448451389e+00,5.32426e-09,9.99996e-01,6.62144e-09,9.87251e-01,8.14477e-01
1.455693646e+00,2.35597e-06,9.99998e-01,2.79883e-06,9.87501e-01,8.52421e-01
1.462972114e+00,3.03279e-06,9.99998e-01,3.57547e-06,9.87747e-01,8.58743e-01
1.470286975e+00,7.74783e-07,9.99998e-01,9.10833e-07,9.87987e-01,8.60973e-01
