#,Wave/freq,Total,N2,H2O,Rayleigh,CIA
4.000000000e-01,9.02536e-01,9.99999e-01,9.99987e-01,9.02547e-01,9.99999e-01
4.020000000e-01,9.04372e-01,9.99999e-01,9.99992e-01,9.04378e-01,9.99999e-01
4.040100000e-01,9.06173e-01,9.99999e-01,9.99996e-01,9.06176e-01,9.99999e-01
4.060300500e-01,9.07940e-01,9.99999e-01,9.99998e-01,9.07941e-01,9.99999e-01
4.080602003e-01,9.09674e-01,9.99999e-01,9.99999e-01,9.09674e-01,9.99999e-01
4.101005013e-01,9.11377e-01,9.99999e-01,9.99999e-01,9.11377e-01,9.99999e-01
4.121510038e-01,9.13049e-01,9.99999e-01,9.99999e-01,9.13049e-01,9.99999e-01
4.142117588e-01,9.14688e-01,9.99999e-01,9.99996e-01,9.14691e-01,9.99999e-01
4.162828176e-01,9.16290e-01,9.99999e-01,9.99985e-01,9.16303e-01,9.99999e-01
4.183642317e-01,9.17879e-01,9.99999e-01,9.99990e-01,9.17887e-01,9.99999e-01
4.204560528e-01,9.19437e-01,9.99999e-01,9.99994e-01,9.19442e-01,9.99999e-01
4.225583331e-01,9.20966e-01,9.99999e-01,9.99997e-01,9.20968e-01,9.99999e-01
4.246711247e-01,9.22466e-01,9.99999e-01,9.99997e-01,9.22467e-01,9.99999e-01
4.267944804e-01,9.23937e-01,9.99999e-01,9.99997e-01,9.23939e-01,9.99999e-01
4.289284528e-01,9.25382e-01,9.99999e-01,9.99997e-01,9.25384e-01,9.99999e-01
4.310730950e-01,9.26801e-01,9.99999e-01,9.99998e-01,9.26802e-01,9.99999e-01
4.332284605e-01,9.28195e-01,9.99999e-01,9.99999e-01,9.28195e-01,9.99999e-01
4.353946028e-01,9.29562e-01,9.99999e-01,9.99999e-01,9.29562e-01,9.99999e-01
4.375715758e-01,9.30903e-01,9.99999e-01,9.99998e-01,9.30904e-01,9.99999e-01
4.397594337e-01,9.32210e-01,9.99999e-01,9.99987e-01,9.32221e-01,9.99999e-01
4.419582309e-01,9.33456e-01,9.99999e-01,9.99936e-01,9.33515e-01,9.99999e-01
4.441680220e-01,9.34737e-01,9.99999e-01,9.99949e-01,9.34784e-01,9.99999e-01
4.463888621e-01,9.35982e-01,9.99999e-01,9.99947e-01,9.36030e-01,9.99999e-01
4.486208064e-01,9.37223e-01,9.99999e-01,9.99967e-01,9.37253e-01,9.99999e-01
4.508639105e-01,9.38439e-01,9.99999e-01,9.99984e-01,9.38454e-01,9.99999e-01
4.531182300e-01,9.39626e-01,9.99999e-01,9.99993e-01,9.39632e-01,9.99999e-01
4.553838212e-01,9.40784e-01,9.99999e-01,9.99995e-01,9.40788e-01,9.99999e-01
4.576607403e-01,9.41921e-01,9.99999e-01,9.99997e-01,9.41923e-01,9.99999e-01
4.599490440e-01,9.43036e-01,9.99999e-01,9.99998e-01,9.43037e-01,9.99999e-01
4.622487892e-01,9.44130e-01,9.99999e-01,9.99999e-01,9.44130e-01,9.99999e-01
4.645600332e-01,9.45202e-01,9.99999e-01,9.99998e-01,9.45203e-01,9.99999e-01
4.668828333e-01,9.46241e-01,9.99999e-01,9.99984e-01,9.46255e-01,9.99999e-01
4.692172475e-01,9.47258e-01,9.99999e-01,9.99966e-01,9.47289e-01,9.99999e-01
4.715633337e-01,9.48282e-01,9.99999e-01,9.99978e-01,9.48302e-01,9.99999e-01
4.739211504e-01,9.49278e-01,9.99999e-01,9.99979e-01,9.49297e-01,9.99999e-01
4.762907561e-01,9.50263e-01,9.99999e-01,9.99988e-01,9.50273e-01,9.99999e-01
4.786722099e-01,9.51227e-01,9.99999e-01,9.99995e-01,9.51231e-01,9.99999e-01
4.810655710e-01,9.52170e-01,9.99999e-01,9.99998e-01,9.52171e-01,9.99999e-01
4.834708988e-01,9.53082e-01,9.99999e-01,9.99987e-01,9.53093e-01,9.99999e-01
4.858882533e-01,9.53976e-01,9.99999e-01,9.99976e-01,9.53998e-01,9.99999e-01
4.883176946e-01,9.54868e-01,9.99999e-01,9.99980e-01,9.54886e-01,9.99999e-01
4.907592831e-01,9.55740e-01,9.99999e-01,9.99982e-01,9.55757e-01,9.99999e-01
4.932130795e-01,9.56600e-01,9.99999e-01,9.99987e-01,9.56612e-01,9.99999e-01
4.956791449e-01,9.57444e-01,9.99999e-01,9.99992e-01,9.57450e-01,9.99999e-01
4.981575406e-01,9.58242e-01,9.99999e-01,9.99966e-01,9.58273e-01,9.99999e-01
5.006483283e-01,9.58998e-01,9.99999e-01,9.99915e-01,9.59080e-01,9.99998e-01
5.031515699e-01,9.59455e-01,9.99999e-01,9.99569e-01,9.59872e-01,9.99994e-01
5.056673278e-01,9.60425e-01,9.99999e-01,9.99772e-01,9.60649e-01,9.99994e-01
5.081956644e-01,9.61132e-01,9.99999e-01,9.99712e-01,9.61411e-01,9.99996e-01
5.107366428e-01,9.61971e-01,9.99999e-01,9.99805e-01,9.62158e-01,9.99998e-01
5.132903260e-01,9.62785e-01,9.99999e-01,9.99888e-01,9.62892e-01,9.99999e-01
5.158567776e-01,9.63566e-01,9.99999e-01,9.99952e-01,9.63611e-01,9.99999e-01
5.184360615e-01,9.64299e-01,9.99999e-01,9.99980e-01,9.64317e-01,9.99999e-01
5.210282418e-01,9.65002e-01,9.99999e-01,9.99992e-01,9.65009e-01,9.99999e-01
5.236333830e-01,9.65661e-01,9.99999e-01,9.99971e-01,9.65688e-01,9.99999e-01
5.262515499e-01,9.66337e-01,9.99999e-01,9.99981e-01,9.66355e-01,9.99999e-01
5.288828077e-01,9.66992e-01,9.99999e-01,9.99983e-01,9.67008e-01,9.99999e-01
5.315272217e-01,9.67635e-01,9.99999e-01,9.99985e-01,9.67649e-01,9.99999e-01
5.341848578e-01,9.68269e-01,9.99999e-01,9.99990e-01,9.68278e-01,9.99999e-01
5.368557821e-01,9.68863e-01,9.99999e-01,9.99966e-01,9.68894e-01,9.99999e-01
5.395400610e-01,9.69385e-01,9.99999e-01,9.99882e-01,9.69499e-01,9.99998e-01
5.422377613e-01,9.69942e-01,9.99999e-01,9.99847e-01,9.70093e-01,9.99996e-01
5.449489501e-01,9.70535e-01,9.99999e-01,9.99858e-01,9.70675e-01,9.99996e-01
5.476736949e-01,9.71122e-01,9.99999e-01,9.99873e-01,9.71246e-01,9.99998e-01
5.504120634e-01,9.71716e-01,9.99999e-01,9.99908e-01,9.71805e-01,9.99999e-01
5.531641237e-01,9.72310e-01,9.99999e-01,9.99953e-01,9.72355e-01,9.99999e-01
5.559299443e-01,9.72872e-01,9.99999e-01,9.99977e-01,9.72893e-01,9.99999e-01
5.587095940e-01,9.73408e-01,9.99999e-01,9.99985e-01,9.73421e-01,9.99999e-01
5.615031420e-01,9.73924e-01,9.99999e-01,9.99984e-01,9.73939e-01,9.99999e-01
5.643106577e-01,9.74430e-01,9.99999e-01,9.99982e-01,9.74447e-01,9.99999e-01
5.671322110e-01,9.74739e-01,9.99999e-01,9.99789e-01,9.74946e-01,9.99997e-01
5.699678720e-01,9.75207e-01,9.99999e-01,9.99772e-01,9.75435e-01,9.99993e-01
5.728177114e-01,9.75680e-01,9.99999e-01,9.99764e-01,9.75914e-01,9.99994e-01
5.756818000e-01,9.76170e-01,9.99999e-01,9.99783e-01,9.76384e-01,9.99996e-01
5.785602090e-01,9.76660e-01,9.99999e-01,9.99810e-01,9.76845e-01,9.99998e-01
5.814530100e-01,9.77112e-01,9.99999e-01,9.99810e-01,9.77297e-01,9.99999e-01
5.843602750e-01,9.77520e-01,9.99999e-01,9.99775e-01,9.77740e-01,9.99998e-01
5.872820764e-01,9.76266e-01,9.99999e-01,9.98061e-01,9.78175e-01,9.99985e-01
5.902184868e-01,9.76257e-01,9.99999e-01,9.97640e-01,9.78602e-01,9.99962e-01
5.931695792e-01,9.77355e-01,9.99999e-01,9.98335e-01,9.79020e-01,9.99963e-01
5.961354271e-01,9.77620e-01,9.99999e-01,9.98173e-01,9.79430e-01,9.99977e-01
5.991161043e-01,9.78520e-01,9.99999e-01,9.98666e-01,9.79832e-01,9.99993e-01
6.021116848e-01,9.79484e-01,9.99999e-01,9.99242e-01,9.80227e-01,9.99998e-01
6.051222432e-01,9.80238e-01,9.99999e-01,9.99616e-01,9.80613e-01,9.99999e-01
6.081478544e-01,9.80831e-01,9.99999e-01,9.99834e-01,9.80993e-01,9.99999e-01
6.111885937e-01,9.81296e-01,9.99999e-01,9.99929e-01,9.81364e-01,9.99999e-01
6.142445367e-01,9.81699e-01,9.99999e-01,9.99968e-01,9.81729e-01,9.99999e-01
6.173157594e-01,9.82070e-01,9.99999e-01,9.99982e-01,9.82087e-01,9.99999e-01
6.204023382e-01,9.82423e-01,9.99999e-01,9.99985e-01,9.82437e-01,9.99999e-01
6.235043498e-01,9.82719e-01,9.99999e-01,9.99936e-01,9.82781e-01,9.99999e-01
6.266218716e-01,9.82783e-01,9.99999e-01,9.99660e-01,9.83119e-01,9.99997e-01
6.297549810e-01,9.83322e-01,9.99999e-01,9.99875e-01,9.83449e-01,9.99994e-01
6.329037559e-01,9.83528e-01,9.99999e-01,9.99753e-01,9.83773e-01,9.99995e-01
6.360682746e-01,9.83884e-01,9.99999e-01,9.99790e-01,9.84091e-01,9.99997e-01
6.392486160e-01,9.84135e-01,9.99999e-01,9.99728e-01,9.84403e-01,9.99998e-01
6.424448591e-01,9.84352e-01,9.99999e-01,9.99638e-01,9.84709e-01,9.99997e-01
6.456570834e-01,9.83347e-01,9.99999e-01,9.98321e-01,9.85009e-01,9.99990e-01
6.488853688e-01,9.84059e-01,9.99999e-01,9.98763e-01,9.85302e-01,9.99973e-01
6.521297956e-01,9.84327e-01,9.99999e-01,9.98739e-01,9.85591e-01,9.99977e-01
6.553904446e-01,9.84630e-01,9.99999e-01,9.98754e-01,9.85873e-01,9.99983e-01
6.586673968e-01,9.85086e-01,9.99999e-01,9.98925e-01,9.86150e-01,9.99994e-01
6.619607338e-01,9.85809e-01,9.99999e-01,9.99378e-01,9.86422e-01,9.99998e-01
6.652705375e-01,9.86333e-01,9.99999e-01,9.99639e-01,9.86688e-01,9.99998e-01
6.685968902e-01,9.86785e-01,9.99999e-01,9.99832e-01,9.86950e-01,9.99999e-01
6.719398746e-01,9.87129e-01,9.99999e-01,9.99922e-01,9.87206e-01,9.99999e-01
6.752995740e-01,9.87415e-01,9.99999e-01,9.99957e-01,9.87457e-01,9.99999e-01
6.786760719e-01,9.87643e-01,9.99999e-01,9.99939e-01,9.87703e-01,9.99999e-01
6.820694522e-01,9.87842e-01,9.99999e-01,9.99896e-01,9.87944e-01,9.99998e-01
6.854797995e-01,9.88048e-01,9.99999e-01,9.99866e-01,9.88181e-01,9.99998e-01
6.889071985e-01,9.88094e-01,9.99999e-01,9.99679e-01,9.88413e-01,9.99996e-01
6.923517345e-01,9.83423e-01,9.99999e-01,9.94747e-01,9.88641e-01,9.99974e-01
6.958134932e-01,9.86074e-01,9.99999e-01,9.97235e-01,9.88864e-01,9.99942e-01
6.992925606e-01,9.86465e-01,9.99999e-01,9.97402e-01,9.89083e-01,9.99949e-01
7.027890234e-01,9.86074e-01,9.99999e-01,9.96780e-01,9.89297e-01,9.99961e-01
7.063029686e-01,9.86812e-01,9.99999e-01,9.97294e-01,9.89507e-01,9.99980e-01
7.098344834e-01,9.87134e-01,9.99999e-01,9.97404e-01,9.89713e-01,9.99988e-01
7.133836558e-01,9.86492e-01,9.99999e-01,9.96562e-01,9.89916e-01,9.99977e-01
7.169505741e-01,9.62679e-01,9.99999e-01,9.72463e-01,9.90114e-01,9.99822e-01
7.205353270e-01,9.76452e-01,9.99999e-01,9.86316e-01,9.90308e-01,9.99687e-01
7.241380036e-01,9.73202e-01,9.99999e-01,9.82801e-01,9.90499e-01,9.99729e-01
7.277586936e-01,9.75075e-01,9.99999e-01,9.84459e-01,9.90685e-01,9.99779e-01
7.313974871e-01,9.74361e-01,9.99999e-01,9.83441e-01,9.90869e-01,9.99896e-01
7.350544745e-01,9.82034e-01,9.99999e-01,9.90939e-01,9.91048e-01,9.99963e-01
7.387297469e-01,9.84594e-01,9.99999e-01,9.93327e-01,9.91224e-01,9.99983e-01
7.424233956e-01,9.88150e-01,9.99999e-01,9.96727e-01,9.91397e-01,9.99996e-01
7.461355126e-01,9.89601e-01,9.99999e-01,9.98018e-01,9.91566e-01,9.99998e-01
7.498661902e-01,9.90815e-01,9.99999e-01,9.99075e-01,9.91732e-01,9.99999e-01
7.536155211e-01,9.91446e-01,9.99999e-01,9.99547e-01,9.91894e-01,9.99999e-01
7.573835987e-01,9.91823e-01,9.99999e-01,9.99766e-01,9.92054e-01,9.99999e-01
7.611705167e-01,9.92067e-01,9.99999e-01,9.99854e-01,9.92210e-01,9.99999e-01
7.649763693e-01,9.92274e-01,9.99999e-01,9.99908e-01,9.92363e-01,9.99999e-01
7.688012511e-01,9.92451e-01,9.99999e-01,9.99936e-01,9.92514e-01,9.99999e-01
7.726452574e-01,9.92609e-01,9.99999e-01,9.99947e-01,9.92661e-01,9.99999e-01
7.765084837e-01,9.92732e-01,9.99999e-01,9.99926e-01,9.92805e-01,9.99999e-01
7.803910261e-01,9.92632e-01,9.99999e-01,9.99682e-01,9.92947e-01,9.99999e-01
7.842929812e-01,9.91985e-01,9.99999e-01,9.98892e-01,9.93086e-01,9.99997e-01
7.882144461e-01,9.90933e-01,9.99999e-01,9.97709e-01,9.93222e-01,9.99985e-01
7.921555184e-01,9.92077e-01,9.99999e-01,9.98739e-01,9.93355e-01,9.99972e-01
7.961162960e-01,9.91262e-01,9.99999e-01,9.97786e-01,9.93486e-01,9.99973e-01
8.000968774e-01,9.91040e-01,9.99999e-01,9.97436e-01,9.93614e-01,9.99971e-01
8.040973618e-01,9.91172e-01,9.99999e-01,9.97437e-01,9.93740e-01,9.99977e-01
8.081178486e-01,9.88125e-01,9.99999e-01,9.94246e-01,9.93863e-01,9.99978e-01
8.121584379e-01,9.70191e-01,9.99999e-01,9.76141e-01,9.93984e-01,9.99918e-01
8.162192301e-01,9.65541e-01,9.99999e-01,9.71563e-01,9.94103e-01,9.99695e-01
8.203003262e-01,9.79755e-01,9.99999e-01,9.85802e-01,9.94219e-01,9.99643e-01
8.244018279e-01,9.74063e-01,9.99999e-01,9.79891e-01,9.94333e-01,9.99716e-01
8.285238370e-01,9.77342e-01,9.99999e-01,9.83020e-01,9.94444e-01,9.99777e-01
8.326664562e-01,9.77348e-01,9.99999e-01,9.82790e-01,9.94554e-01,9.99907e-01
8.368297885e-01,9.82394e-01,9.99999e-01,9.87687e-01,9.94661e-01,9.99978e-01
8.410139374e-01,9.87463e-01,9.99999e-01,9.92670e-01,9.94766e-01,9.99987e-01
8.452190071e-01,9.91280e-01,9.99999e-01,9.96399e-01,9.94869e-01,9.99992e-01
8.494451021e-01,9.92890e-01,9.99999e-01,9.97914e-01,9.94970e-01,9.99993e-01
8.536923276e-01,9.93836e-01,9.99999e-01,9.98764e-01,9.95069e-01,9.99995e-01
8.579607893e-01,9.94410e-01,9.99999e-01,9.99240e-01,9.95166e-01,9.99998e-01
8.622505932e-01,9.94781e-01,9.99999e-01,9.99516e-01,9.95262e-01,9.99999e-01
8.665618462e-01,9.95058e-01,9.99999e-01,9.99701e-01,9.95355e-01,9.99999e-01
8.708946554e-01,9.95107e-01,9.99999e-01,9.99658e-01,9.95447e-01,9.99999e-01
8.752491287e-01,9.95081e-01,9.99999e-01,9.99543e-01,9.95536e-01,9.99999e-01
8.796253743e-01,9.94995e-01,9.99999e-01,9.99368e-01,9.95624e-01,9.99998e-01
8.840235012e-01,9.94988e-01,9.99999e-01,9.99278e-01,9.95710e-01,9.99995e-01
8.884436187e-01,9.93184e-01,9.99999e-01,9.97389e-01,9.95795e-01,9.99987e-01
8.928858368e-01,9.68483e-01,9.99999e-01,9.72561e-01,9.95878e-01,9.99927e-01
8.973502660e-01,9.47457e-01,9.99999e-01,9.51652e-01,9.95959e-01,9.99629e-01
9.018370173e-01,9.70495e-01,9.99999e-01,9.74920e-01,9.96039e-01,9.99418e-01
9.063462024e-01,9.73813e-01,9.99999e-01,9.78107e-01,9.96117e-01,9.99488e-01
9.108779334e-01,9.61774e-01,9.99999e-01,9.65961e-01,9.96193e-01,9.99469e-01
9.154323231e-01,9.57406e-01,9.99999e-01,9.61413e-01,9.96268e-01,9.99560e-01
9.200094847e-01,9.65804e-01,9.99999e-01,9.69586e-01,9.96342e-01,9.99754e-01
9.246095321e-01,9.49250e-01,9.99999e-01,9.52934e-01,9.96414e-01,9.99716e-01
9.292325798e-01,7.17541e-01,9.99999e-01,7.20867e-01,9.96485e-01,9.98897e-01
9.338787427e-01,6.48146e-01,9.99999e-01,6.53360e-01,9.96554e-01,9.95449e-01
9.385481364e-01,8.35181e-01,9.99999e-01,8.42569e-01,9.96622e-01,9.94590e-01
9.432408771e-01,7.80717e-01,9.99999e-01,7.86984e-01,9.96689e-01,9.95331e-01
9.479570815e-01,7.11629e-01,9.99999e-01,7.16670e-01,9.96754e-01,9.96198e-01
9.526968669e-01,7.75811e-01,9.99999e-01,7.80097e-01,9.96818e-01,9.97679e-01
9.574603512e-01,7.95355e-01,9.99999e-01,7.98784e-01,9.96881e-01,9.98820e-01
9.622476530e-01,8.30021e-01,9.99999e-01,8.33245e-01,9.96942e-01,9.99184e-01
9.670588912e-01,8.97260e-01,9.99999e-01,9.00459e-01,9.97002e-01,9.99441e-01
9.718941857e-01,9.33750e-01,9.99999e-01,9.36885e-01,9.97061e-01,9.99588e-01
9.767536566e-01,9.44327e-01,9.99999e-01,9.47351e-01,9.97119e-01,9.99685e-01
9.816374249e-01,9.57885e-01,9.99999e-01,9.60701e-01,9.97176e-01,9.99890e-01
9.865456120e-01,9.72558e-01,9.99999e-01,9.75278e-01,9.97232e-01,9.99976e-01
9.914783401e-01,9.81985e-01,9.99999e-01,9.84662e-01,9.97286e-01,9.99993e-01
9.964357318e-01,9.88978e-01,9.99999e-01,9.91618e-01,9.97340e-01,9.99995e-01
1.001417910e+00,9.92370e-01,9.99999e-01,9.94969e-01,9.97392e-01,9.99993e-01
1.006425000e+00,9.94577e-01,9.99999e-01,9.97133e-01,9.97444e-01,9.99991e-01
1.011457125e+00,9.95709e-01,9.99999e-01,9.98217e-01,9.97494e-01,9.99992e-01
1.016514411e+00,9.96332e-01,9.99999e-01,9.98790e-01,9.97544e-01,9.99994e-01
1.021596983e+00,9.96626e-01,9.99999e-01,9.99036e-01,9.97592e-01,9.99994e-01
1.026704968e+00,9.96887e-01,9.99999e-01,9.99248e-01,9.97640e-01,9.99995e-01
1.031838492e+00,9.97140e-01,9.99999e-01,9.99453e-01,9.97686e-01,9.99998e-01
1.036997685e+00,9.97408e-01,9.99999e-01,9.99675e-01,9.97732e-01,9.99999e-01
1.042182673e+00,9.97392e-01,9.99999e-01,9.99613e-01,9.97777e-01,9.99999e-01
1.047393587e+00,9.97309e-01,9.99999e-01,9.99487e-01,9.97820e-01,9.99999e-01
1.052630555e+00,9.97163e-01,9.99999e-01,9.99297e-01,9.97863e-01,9.99999e-01
1.057893707e+00,9.96736e-01,9.99999e-01,9.98828e-01,9.97905e-01,9.99999e-01
1.063183176e+00,9.96021e-01,9.99999e-01,9.98070e-01,9.97947e-01,9.99998e-01
1.068499092e+00,9.94761e-01,9.99999e-01,9.96768e-01,9.97987e-01,9.99997e-01
1.073841587e+00,9.94252e-01,9.99999e-01,9.96221e-01,9.98027e-01,9.99994e-01
1.079210795e+00,9.93215e-01,9.99999e-01,9.95151e-01,9.98066e-01,9.99986e-01
1.084606849e+00,9.90761e-01,9.99999e-01,9.92673e-01,9.98104e-01,9.99968e-01
1.090029883e+00,9.87614e-01,9.99999e-01,9.89516e-01,9.98141e-01,9.99935e-01
1.095480033e+00,9.69771e-01,9.99999e-01,9.71653e-01,9.98178e-01,9.99883e-01
1.100957433e+00,9.27548e-01,9.99999e-01,9.29406e-01,9.98214e-01,9.99785e-01
1.106462220e+00,8.27796e-01,9.99999e-01,8.29548e-01,9.98249e-01,9.99635e-01
1.111994531e+00,6.71342e-01,9.99999e-01,6.73145e-01,9.98284e-01,9.99034e-01
1.117554504e+00,5.22738e-01,9.99999e-01,5.25447e-01,9.98318e-01,9.96518e-01
1.123142276e+00,6.12469e-01,9.99999e-01,6.18574e-01,9.98351e-01,9.91765e-01
1.128757988e+00,7.29918e-01,9.99999e-01,7.38126e-01,9.98383e-01,9.90480e-01
1.134401778e+00,4.85938e-01,9.99999e-01,4.90684e-01,9.98415e-01,9.91899e-01
1.140073787e+00,8.29112e-01,9.99999e-01,8.35815e-01,9.98447e-01,9.93522e-01
1.145774156e+00,6.80196e-01,9.99999e-01,6.85297e-01,9.98477e-01,9.94068e-01
1.151503026e+00,6.52138e-01,9.99999e-01,6.55280e-01,9.98507e-01,9.96691e-01
1.157260541e+00,7.04226e-01,9.99999e-01,7.05956e-01,9.98537e-01,9.99009e-01
1.163046844e+00,7.71962e-01,9.99999e-01,7.73288e-01,9.98566e-01,9.99718e-01
1.168862078e+00,8.35814e-01,9.99999e-01,8.37111e-01,9.98594e-01,9.99854e-01
1.174706389e+00,8.94721e-01,9.99999e-01,8.96127e-01,9.98622e-01,9.99807e-01
1.180579921e+00,9.33900e-01,9.99999e-01,9.35434e-01,9.98649e-01,9.99709e-01
1.186482820e+00,9.61489e-01,9.99999e-01,9.63050e-01,9.98675e-01,9.99701e-01
1.192415234e+00,9.76807e-01,9.99999e-01,9.78294e-01,9.98702e-01,9.99776e-01
1.198377311e+00,9.80235e-01,9.99999e-01,9.81690e-01,9.98727e-01,9.99789e-01
1.204369197e+00,9.81235e-01,9.99999e-01,9.82647e-01,9.98752e-01,9.99809e-01
1.210391043e+00,9.82088e-01,9.99999e-01,9.83404e-01,9.98777e-01,9.99883e-01
1.216442998e+00,9.84598e-01,9.99999e-01,9.85849e-01,9.98801e-01,9.99928e-01
1.222525213e+00,9.87771e-01,9.99999e-01,9.88976e-01,9.98825e-01,9.99955e-01
1.228637839e+00,9.91174e-01,9.99999e-01,9.92337e-01,9.98848e-01,9.99979e-01
1.234781029e+00,9.93173e-01,9.99999e-01,9.94301e-01,9.98871e-01,9.99993e-01
1.240954934e+00,9.95291e-01,9.99999e-01,9.96395e-01,9.98893e-01,9.99997e-01
1.247159708e+00,9.96109e-01,9.99999e-01,9.97191e-01,9.98915e-01,9.99998e-01
1.253395507e+00,9.96446e-01,9.99999e-01,9.97508e-01,9.98936e-01,9.99998e-01
1.259662485e+00,9.96594e-01,9.99999e-01,9.97636e-01,9.98957e-01,9.99997e-01
1.265960797e+00,9.95198e-01,9.99999e-01,9.96219e-01,9.98978e-01,9.99995e-01
1.272290601e+00,9.93444e-01,9.99999e-01,9.94446e-01,9.98998e-01,9.99993e-01
1.278652054e+00,9.87300e-01,9.99999e-01,9.88281e-01,9.99018e-01,9.99988e-01
1.285045314e+00,9.80640e-01,9.99999e-01,9.81605e-01,9.99037e-01,9.99978e-01
1.291470541e+00,9.62382e-01,9.99999e-01,9.63326e-01,9.99056e-01,9.99962e-01
1.297927893e+00,9.51388e-01,9.99999e-01,9.52334e-01,9.99075e-01,9.99929e-01
1.304417533e+00,9.37953e-01,9.99999e-01,9.38943e-01,9.99093e-01,9.99851e-01
1.310939621e+00,9.29420e-01,9.99999e-01,9.30529e-01,9.99111e-01,9.99695e-01
1.317494319e+00,9.23296e-01,9.99999e-01,9.24621e-01,9.99128e-01,9.99436e-01
1.324081790e+00,8.87635e-01,9.99999e-01,8.89210e-01,9.99145e-01,9.99080e-01
1.330702199e+00,6.09429e-01,9.99999e-01,6.10907e-01,9.99162e-01,9.98415e-01
1.337355710e+00,2.90502e-01,9.99999e-01,2.91629e-01,9.99179e-01,9.96951e-01
1.344042489e+00,3.79488e-02,9.99999e-01,3.83301e-02,9.99195e-01,9.90848e-01
1.350762701e+00,1.50357e-03,9.99999e-01,1.55287e-03,9.99211e-01,9.69014e-01
1.357516515e+00,1.53837e-04,9.99999e-01,1.68855e-04,9.99226e-01,9.11763e-01
1.364304097e+00,2.49521e-03,9.99999e-01,2.93592e-03,9.99242e-01,8.50532e-01
1.371125618e+00,1.70179e-02,9.99999e-01,1.98388e-02,9.99257e-01,8.58445e-01
1.377981246e+00,3.17584e-02,9.99999e-01,3.62240e-02,9.99271e-01,8.77362e-01
1.384871152e+00,2.27854e-03,9.99999e-01,2.57920e-03,9.99286e-01,8.84059e-01
1.391795508e+00,3.62356e-03,9.99999e-01,4.07474e-03,9.99300e-01,8.89895e-01
1.398754485e+00,7.99941e-03,9.99999e-01,8.81142e-03,9.99314e-01,9.08467e-01
1.405748258e+00,7.87411e-03,9.99999e-01,8.33422e-03,9.99327e-01,9.45426e-01
1.412776999e+00,8.94011e-03,9.99999e-01,9.17817e-03,9.99340e-01,9.74703e-01
1.419840884e+00,1.22222e-02,9.99999e-01,1.23682e-02,9.99353e-01,9.88827e-01
1.426940089e+00,3.17913e-02,9.99999e-01,3.20841e-02,9.99366e-01,9.91500e-01
1.434074789e+00,7.10782e-02,9.99999e-01,7.18423e-02,9.99379e-01,9.89978e-01
1.441245163e+00,1.38824e-01,9.99999e-01,1.40432e-01,9.99391e-01,9.89149e-01
1.448451389e+00,2.42123e-01,9.99999e-01,2.44593e-01,9.99403e-01,9.90493e-01
1.455693646e+00,3.97602e-01,9.99999e-01,4.00802e-01,9.99415e-01,9.92594e-01
1.462972114e+00,4.55181e-01,9.99999e-01,4.58681e-01,9.99426e-01,9.92936e-01
1.470286975e+00,3.98544e-01,9.99999e-01,4.01556e-01,9.99437e-01,9.93055e-01
