#,Wave/freq,Total,N2,H2O,Rayleigh,CIA
4.000000000e-01,8.97125e-01,9.99999e-01,9.99987e-01,8.97136e-01,9.99999e-01
4.020000000e-01,8.99057e-01,9.99999e-01,9.99991e-01,8.99064e-01,9.99999e-01
4.040100000e-01,9.00952e-01,9.99999e-01,9.99996e-01,9.00955e-01,9.99999e-01
4.060300500e-01,9.02813e-01,9.99999e-01,9.99998e-01,9.02813e-01,9.99999e-01
4.080602003e-01,9.04638e-01,9.99999e-01,9.99999e-01,9.04638e-01,9.99999e-01
4.101005013e-01,9.06431e-01,9.99999e-01,9.99999e-01,9.06431e-01,9.99999e-01
4.121510038e-01,9.08191e-01,9.99999e-01,9.99999e-01,9.08191e-01,9.99999e-01
4.142117588e-01,9.09918e-01,9.99999e-01,9.99996e-01,9.09921e-01,9.99999e-01
4.162828176e-01,9.11605e-01,9.99999e-01,9.99984e-01,9.11619e-01,9.99999e-01
4.183642317e-01,9.13278e-01,9.99999e-01,9.99990e-01,9.13287e-01,9.99999e-01
4.204560528e-01,9.14919e-01,9.99999e-01,9.99993e-01,9.14924e-01,9.99999e-01
4.225583331e-01,9.16531e-01,9.99999e-01,9.99997e-01,9.16533e-01,9.99999e-01
4.246711247e-01,9.18110e-01,9.99999e-01,9.99997e-01,9.18112e-01,9.99999e-01
4.267944804e-01,9.19660e-01,9.99999e-01,9.99997e-01,9.19662e-01,9.99999e-01
4.289284528e-01,9.21183e-01,9.99999e-01,9.99997e-01,9.21185e-01,9.99999e-01
4.310730950e-01,9.22679e-01,9.99999e-01,9.99998e-01,9.22680e-01,9.99999e-01
4.332284605e-01,9.24148e-01,9.99999e-01,9.99999e-01,9.24148e-01,9.99999e-01
4.353946028e-01,9.25589e-01,9.99999e-01,9.99999e-01,9.25589e-01,9.99999e-01
4.375715758e-01,9.27002e-01,9.99999e-01,9.99998e-01,9.27004e-01,9.99999e-01
4.397594337e-01,9.28380e-01,9.99999e-01,9.99986e-01,9.28393e-01,9.99999e-01
4.419582309e-01,9.29693e-01,9.99999e-01,9.99932e-01,9.29756e-01,9.99999e-01
4.441680220e-01,9.31045e-01,9.99999e-01,9.99946e-01,9.31095e-01,9.99999e-01
4.463888621e-01,9.32357e-01,9.99999e-01,9.99944e-01,9.32408e-01,9.99999e-01
4.486208064e-01,9.33666e-01,9.99999e-01,9.99965e-01,9.33698e-01,9.99999e-01
4.508639105e-01,9.34949e-01,9.99999e-01,9.99983e-01,9.34964e-01,9.99999e-01
4.531182300e-01,9.36201e-01,9.99999e-01,9.99993e-01,9.36207e-01,9.99999e-01
4.553838212e-01,9.37423e-01,9.99999e-01,9.99995e-01,9.37427e-01,9.99999e-01
4.576607403e-01,9.38622e-01,9.99999e-01,9.99997e-01,9.38624e-01,9.99999e-01
4.599490440e-01,9.39798e-01,9.99999e-01,9.99998e-01,9.39799e-01,9.99999e-01
4.622487892e-01,9.40952e-01,9.99999e-01,9.99999e-01,9.40952e-01,9.99999e-01
4.645600332e-01,9.42083e-01,9.99999e-01,9.99998e-01,9.42084e-01,9.99999e-01
4.668828333e-01,9.43180e-01,9.99999e-01,9.99983e-01,9.43195e-01,9.99999e-01
4.692172475e-01,9.44253e-01,9.99999e-01,9.99965e-01,9.44285e-01,9.99999e-01
4.715633337e-01,9.45334e-01,9.99999e-01,9.99977e-01,9.45355e-01,9.99999e-01
4.739211504e-01,9.46385e-01,9.99999e-01,9.99977e-01,9.46405e-01,9.99999e-01
4.762907561e-01,9.47425e-01,9.99999e-01,9.99988e-01,9.47435e-01,9.99999e-01
4.786722099e-01,9.48442e-01,9.99999e-01,9.99994e-01,9.48446e-01,9.99999e-01
4.810655710e-01,9.49437e-01,9.99999e-01,9.99998e-01,9.49438e-01,9.99999e-01
4.834708988e-01,9.50399e-01,9.99999e-01,9.99986e-01,9.50412e-01,9.99999e-01
4.858882533e-01,9.51344e-01,9.99999e-01,9.99975e-01,9.51367e-01,9.99999e-01
4.883176946e-01,9.52285e-01,9.99999e-01,9.99979e-01,9.52304e-01,9.99999e-01
4.907592831e-01,9.53207e-01,9.99999e-01,9.99981e-01,9.53224e-01,9.99999e-01
4.932130795e-01,9.54114e-01,9.99999e-01,9.99986e-01,9.54127e-01,9.99999e-01
4.956791449e-01,9.55005e-01,9.99999e-01,9.99992e-01,9.55012e-01,9.99999e-01
4.981575406e-01,9.55848e-01,9.99999e-01,9.99964e-01,9.55881e-01,9.99999e-01
5.006483283e-01,9.56647e-01,9.99999e-01,9.99909e-01,9.56733e-01,9.99998e-01
5.031515699e-01,9.57129e-01,9.99999e-01,9.99544e-01,9.57569e-01,9.99994e-01
5.056673278e-01,9.58154e-01,9.99999e-01,9.99759e-01,9.58390e-01,9.99994e-01
5.081956644e-01,9.58900e-01,9.99999e-01,9.99696e-01,9.59194e-01,9.99995e-01
5.107366428e-01,9.59787e-01,9.99999e-01,9.99794e-01,9.59984e-01,9.99998e-01
5.132903260e-01,9.60646e-01,9.99999e-01,9.99882e-01,9.60759e-01,9.99999e-01
5.158567776e-01,9.61471e-01,9.99999e-01,9.99950e-01,9.61519e-01,9.99999e-01
5.184360615e-01,9.62245e-01,9.99999e-01,9.99979e-01,9.62264e-01,9.99999e-01
5.210282418e-01,9.62989e-01,9.99999e-01,9.99992e-01,9.62996e-01,9.99999e-01
5.236333830e-01,9.63684e-01,9.99999e-01,9.99969e-01,9.63713e-01,9.99999e-01
5.262515499e-01,9.64399e-01,9.99999e-01,9.99980e-01,9.64417e-01,9.99999e-01
5.288828077e-01,9.65091e-01,9.99999e-01,9.99982e-01,9.65107e-01,9.99999e-01
5.315272217e-01,9.65770e-01,9.99999e-01,9.99984e-01,9.65785e-01,9.99999e-01
5.341848578e-01,9.66440e-01,9.99999e-01,9.99989e-01,9.66449e-01,9.99999e-01
5.368557821e-01,9.67067e-01,9.99999e-01,9.99965e-01,9.67101e-01,9.99999e-01
5.395400610e-01,9.67619e-01,9.99999e-01,9.99875e-01,9.67740e-01,9.99998e-01
5.422377613e-01,9.68208e-01,9.99999e-01,9.99838e-01,9.68367e-01,9.99996e-01
5.449489501e-01,9.68834e-01,9.99999e-01,9.99849e-01,9.68982e-01,9.99996e-01
5.476736949e-01,9.69455e-01,9.99999e-01,9.99866e-01,9.69585e-01,9.99998e-01
5.504120634e-01,9.70083e-01,9.99999e-01,9.99903e-01,9.70177e-01,9.99999e-01
5.531641237e-01,9.70710e-01,9.99999e-01,9.99951e-01,9.70757e-01,9.99999e-01
5.559299443e-01,9.71304e-01,9.99999e-01,9.99976e-01,9.71327e-01,9.99999e-01
5.587095940e-01,9.71871e-01,9.99999e-01,9.99984e-01,9.71885e-01,9.99999e-01
5.615031420e-01,9.72417e-01,9.99999e-01,9.99983e-01,9.72432e-01,9.99999e-01
5.643106577e-01,9.72951e-01,9.99999e-01,9.99981e-01,9.72970e-01,9.99999e-01
5.671322110e-01,9.73276e-01,9.99999e-01,9.99775e-01,9.73496e-01,9.99997e-01
5.699678720e-01,9.73773e-01,9.99999e-01,9.99759e-01,9.74013e-01,9.99993e-01
5.728177114e-01,9.74272e-01,9.99999e-01,9.99750e-01,9.74520e-01,9.99994e-01
5.756818000e-01,9.74790e-01,9.99999e-01,9.99770e-01,9.75017e-01,9.99996e-01
5.785602090e-01,9.75308e-01,9.99999e-01,9.99799e-01,9.75504e-01,9.99998e-01
5.814530100e-01,9.75786e-01,9.99999e-01,9.99799e-01,9.75982e-01,9.99999e-01
5.843602750e-01,9.76217e-01,9.99999e-01,9.99761e-01,9.76451e-01,9.99998e-01
5.872820764e-01,9.74887e-01,9.99999e-01,9.97943e-01,9.76910e-01,9.99985e-01
5.902184868e-01,9.74883e-01,9.99999e-01,9.97503e-01,9.77361e-01,9.99960e-01
5.931695792e-01,9.76043e-01,9.99999e-01,9.98236e-01,9.77803e-01,9.99961e-01
5.961354271e-01,9.76325e-01,9.99999e-01,9.98066e-01,9.78237e-01,9.99977e-01
5.991161043e-01,9.77276e-01,9.99999e-01,9.98589e-01,9.78662e-01,9.99992e-01
6.021116848e-01,9.78295e-01,9.99999e-01,9.99199e-01,9.79079e-01,9.99998e-01
6.051222432e-01,9.79092e-01,9.99999e-01,9.99594e-01,9.79488e-01,9.99999e-01
6.081478544e-01,9.79718e-01,9.99999e-01,9.99824e-01,9.79889e-01,9.99999e-01
6.111885937e-01,9.80210e-01,9.99999e-01,9.99925e-01,9.80283e-01,9.99999e-01
6.142445367e-01,9.80636e-01,9.99999e-01,9.99966e-01,9.80668e-01,9.99999e-01
6.173157594e-01,9.81029e-01,9.99999e-01,9.99981e-01,9.81046e-01,9.99999e-01
6.204023382e-01,9.81402e-01,9.99999e-01,9.99984e-01,9.81417e-01,9.99999e-01
6.235043498e-01,9.81714e-01,9.99999e-01,9.99932e-01,9.81781e-01,9.99999e-01
6.266218716e-01,9.81783e-01,9.99999e-01,9.99640e-01,9.82138e-01,9.99996e-01
6.297549810e-01,9.82353e-01,9.99999e-01,9.99867e-01,9.82487e-01,9.99994e-01
6.329037559e-01,9.82570e-01,9.99999e-01,9.99739e-01,9.82830e-01,9.99995e-01
6.360682746e-01,9.82946e-01,9.99999e-01,9.99778e-01,9.83166e-01,9.99997e-01
6.392486160e-01,9.83213e-01,9.99999e-01,9.99712e-01,9.83496e-01,9.99998e-01
6.424448591e-01,9.83441e-01,9.99999e-01,9.99616e-01,9.83819e-01,9.99997e-01
6.456570834e-01,9.82374e-01,9.99999e-01,9.98218e-01,9.84136e-01,9.99989e-01
6.488853688e-01,9.83133e-01,9.99999e-01,9.98692e-01,9.84447e-01,9.99971e-01
6.521297956e-01,9.83417e-01,9.99999e-01,9.98666e-01,9.84752e-01,9.99976e-01
6.553904446e-01,9.83730e-01,9.99999e-01,9.98675e-01,9.85051e-01,9.99982e-01
6.586673968e-01,9.84220e-01,9.99999e-01,9.98863e-01,9.85344e-01,9.99993e-01
6.619607338e-01,9.84983e-01,9.99999e-01,9.99343e-01,9.85632e-01,9.99998e-01
6.652705375e-01,9.85538e-01,9.99999e-01,9.99619e-01,9.85913e-01,9.99998e-01
6.685968902e-01,9.86015e-01,9.99999e-01,9.99823e-01,9.86190e-01,9.99999e-01
6.719398746e-01,9.86380e-01,9.99999e-01,9.99917e-01,9.86461e-01,9.99999e-01
6.752995740e-01,9.86683e-01,9.99999e-01,9.99955e-01,9.86726e-01,9.99999e-01
6.786760719e-01,9.86924e-01,9.99999e-01,9.99935e-01,9.86987e-01,9.99999e-01
6.820694522e-01,9.87134e-01,9.99999e-01,9.99890e-01,9.87242e-01,9.99998e-01
6.854797995e-01,9.87352e-01,9.99999e-01,9.99858e-01,9.87492e-01,9.99998e-01
6.889071985e-01,9.87399e-01,9.99999e-01,9.99659e-01,9.87738e-01,9.99996e-01
6.923517345e-01,9.82448e-01,9.99999e-01,9.94428e-01,9.87979e-01,9.99972e-01
6.958134932e-01,9.85276e-01,9.99999e-01,9.97086e-01,9.88215e-01,9.99939e-01
6.992925606e-01,9.85671e-01,9.99999e-01,9.97245e-01,9.88446e-01,9.99946e-01
7.027890234e-01,9.85265e-01,9.99999e-01,9.96593e-01,9.88673e-01,9.99958e-01
7.063029686e-01,9.86045e-01,9.99999e-01,9.97136e-01,9.88895e-01,9.99979e-01
7.098344834e-01,9.86385e-01,9.99999e-01,9.97252e-01,9.89114e-01,9.99987e-01
7.133836558e-01,9.85691e-01,9.99999e-01,9.96347e-01,9.89327e-01,9.99975e-01
7.169505741e-01,9.60491e-01,9.99999e-01,9.70828e-01,9.89537e-01,9.99812e-01
7.205353270e-01,9.75150e-01,9.99999e-01,9.85580e-01,9.89743e-01,9.99668e-01
7.241380036e-01,9.71639e-01,9.99999e-01,9.81788e-01,9.89944e-01,9.99713e-01
7.277586936e-01,9.73625e-01,9.99999e-01,9.83547e-01,9.90142e-01,9.99766e-01
7.313974871e-01,9.72904e-01,9.99999e-01,9.82505e-01,9.90336e-01,9.99890e-01
7.350544745e-01,9.80999e-01,9.99999e-01,9.90419e-01,9.90526e-01,9.99961e-01
7.387297469e-01,9.83706e-01,9.99999e-01,9.92945e-01,9.90712e-01,9.99982e-01
7.424233956e-01,9.87466e-01,9.99999e-01,9.96542e-01,9.90895e-01,9.99996e-01
7.461355126e-01,9.88997e-01,9.99999e-01,9.97904e-01,9.91074e-01,9.99998e-01
7.498661902e-01,9.90281e-01,9.99999e-01,9.99023e-01,9.91249e-01,9.99999e-01
7.536155211e-01,9.90947e-01,9.99999e-01,9.99521e-01,9.91421e-01,9.99999e-01
7.573835987e-01,9.91346e-01,9.99999e-01,9.99753e-01,9.91590e-01,9.99999e-01
7.611705167e-01,9.91604e-01,9.99999e-01,9.99846e-01,9.91755e-01,9.99999e-01
7.649763693e-01,9.91822e-01,9.99999e-01,9.99903e-01,9.91917e-01,9.99999e-01
7.688012511e-01,9.92010e-01,9.99999e-01,9.99932e-01,9.92076e-01,9.99999e-01
7.726452574e-01,9.92178e-01,9.99999e-01,9.99944e-01,9.92232e-01,9.99999e-01
7.765084837e-01,9.92308e-01,9.99999e-01,9.99921e-01,9.92385e-01,9.99999e-01
7.803910261e-01,9.92201e-01,9.99999e-01,9.99663e-01,9.92535e-01,9.99999e-01
7.842929812e-01,9.91514e-01,9.99999e-01,9.98824e-01,9.92682e-01,9.99997e-01
7.882144461e-01,9.90404e-01,9.99999e-01,9.97574e-01,9.92826e-01,9.99984e-01
7.921555184e-01,9.91617e-01,9.99999e-01,9.98668e-01,9.92967e-01,9.99970e-01
7.961162960e-01,9.90747e-01,9.99999e-01,9.97652e-01,9.93105e-01,9.99972e-01
8.000968774e-01,9.90517e-01,9.99999e-01,9.97285e-01,9.93241e-01,9.99970e-01
8.040973618e-01,9.90655e-01,9.99999e-01,9.97285e-01,9.93374e-01,9.99976e-01
8.081178486e-01,9.87417e-01,9.99999e-01,9.93893e-01,9.93505e-01,9.99977e-01
8.121584379e-01,9.68426e-01,9.99999e-01,9.74715e-01,9.93633e-01,9.99913e-01
8.162192301e-01,9.63599e-01,9.99999e-01,9.69962e-01,9.93758e-01,9.99677e-01
8.203003262e-01,9.78523e-01,9.99999e-01,9.84917e-01,9.93881e-01,9.99622e-01
8.244018279e-01,9.72652e-01,9.99999e-01,9.78815e-01,9.94001e-01,9.99699e-01
8.285238370e-01,9.76017e-01,9.99999e-01,9.82021e-01,9.94119e-01,9.99764e-01
8.326664562e-01,9.76048e-01,9.99999e-01,9.81802e-01,9.94235e-01,9.99902e-01
8.368297885e-01,9.81386e-01,9.99999e-01,9.86985e-01,9.94349e-01,9.99977e-01
8.410139374e-01,9.86743e-01,9.99999e-01,9.92251e-01,9.94460e-01,9.99986e-01
8.452190071e-01,9.90778e-01,9.99999e-01,9.96194e-01,9.94569e-01,9.99991e-01
8.494451021e-01,9.92476e-01,9.99999e-01,9.97793e-01,9.94676e-01,9.99993e-01
8.536923276e-01,9.93478e-01,9.99999e-01,9.98693e-01,9.94781e-01,9.99995e-01
8.579607893e-01,9.94083e-01,9.99999e-01,9.99195e-01,9.94884e-01,9.99998e-01
8.622505932e-01,9.94476e-01,9.99999e-01,9.99488e-01,9.94985e-01,9.99999e-01
8.665618462e-01,9.94769e-01,9.99999e-01,9.99683e-01,9.95083e-01,9.99999e-01
8.708946554e-01,9.94821e-01,9.99999e-01,9.99638e-01,9.95180e-01,9.99999e-01
8.752491287e-01,9.94794e-01,9.99999e-01,9.99516e-01,9.95275e-01,9.99998e-01
8.796253743e-01,9.94701e-01,9.99999e-01,9.99330e-01,9.95368e-01,9.99998e-01
8.840235012e-01,9.94694e-01,9.99999e-01,9.99235e-01,9.95460e-01,9.99994e-01
8.884436187e-01,9.92768e-01,9.99999e-01,9.97219e-01,9.95549e-01,9.99986e-01
8.928858368e-01,9.66596e-01,9.99999e-01,9.70905e-01,9.95637e-01,9.99923e-01
8.973502660e-01,9.44495e-01,9.99999e-01,9.48922e-01,9.95723e-01,9.99608e-01
9.018370173e-01,9.68870e-01,9.99999e-01,9.73547e-01,9.95807e-01,9.99384e-01
9.063462024e-01,9.72250e-01,9.99999e-01,9.76790e-01,9.95890e-01,9.99459e-01
9.108779334e-01,9.59564e-01,9.99999e-01,9.63987e-01,9.95971e-01,9.99437e-01
9.154323231e-01,9.54973e-01,9.99999e-01,9.59204e-01,9.96050e-01,9.99535e-01
9.200094847e-01,9.63868e-01,9.99999e-01,9.67865e-01,9.96128e-01,9.99739e-01
9.246095321e-01,9.46117e-01,9.99999e-01,9.50006e-01,9.96204e-01,9.99700e-01
9.292325798e-01,7.03684e-01,9.99999e-01,7.07137e-01,9.96279e-01,9.98832e-01
9.338787427e-01,6.32778e-01,9.99999e-01,6.38167e-01,9.96352e-01,9.95183e-01
9.385481364e-01,8.26901e-01,9.99999e-01,8.34646e-01,9.96424e-01,9.94273e-01
9.432408771e-01,7.69730e-01,9.99999e-01,7.76273e-01,9.96495e-01,9.95058e-01
9.479570815e-01,6.98098e-01,9.99999e-01,7.03334e-01,9.96564e-01,9.95975e-01
9.526968669e-01,7.65162e-01,9.99999e-01,7.69637e-01,9.96632e-01,9.97543e-01
9.574603512e-01,7.85022e-01,9.99999e-01,7.88606e-01,9.96698e-01,9.98751e-01
9.622476530e-01,8.21319e-01,9.99999e-01,8.24697e-01,9.96763e-01,9.99136e-01
9.670588912e-01,8.91704e-01,9.99999e-01,8.95071e-01,9.96827e-01,9.99408e-01
9.718941857e-01,9.30033e-01,9.99999e-01,9.33340e-01,9.96889e-01,9.99564e-01
9.767536566e-01,9.41177e-01,9.99999e-01,9.44368e-01,9.96951e-01,9.99667e-01
9.816374249e-01,9.55513e-01,9.99999e-01,9.58487e-01,9.97011e-01,9.99884e-01
9.865456120e-01,9.70999e-01,9.99999e-01,9.73875e-01,9.97070e-01,9.99975e-01
9.914783401e-01,9.80952e-01,9.99999e-01,9.83783e-01,9.97128e-01,9.99992e-01
9.964357318e-01,9.88344e-01,9.99999e-01,9.91137e-01,9.97184e-01,9.99995e-01
1.001417910e+00,9.91930e-01,9.99999e-01,9.94680e-01,9.97240e-01,9.99993e-01
1.006425000e+00,9.94261e-01,9.99999e-01,9.96966e-01,9.97294e-01,9.99991e-01
1.011457125e+00,9.95461e-01,9.99999e-01,9.98115e-01,9.97348e-01,9.99991e-01
1.016514411e+00,9.96119e-01,9.99999e-01,9.98720e-01,9.97400e-01,9.99993e-01
1.021596983e+00,9.96429e-01,9.99999e-01,9.98980e-01,9.97451e-01,9.99993e-01
1.026704968e+00,9.96705e-01,9.99999e-01,9.99204e-01,9.97501e-01,9.99995e-01
1.031838492e+00,9.96973e-01,9.99999e-01,9.99421e-01,9.97551e-01,9.99998e-01
1.036997685e+00,9.97257e-01,9.99999e-01,9.99656e-01,9.97599e-01,9.99999e-01
1.042182673e+00,9.97239e-01,9.99999e-01,9.99590e-01,9.97646e-01,9.99999e-01
1.047393587e+00,9.97152e-01,9.99999e-01,9.99457e-01,9.97693e-01,9.99999e-01
1.052630555e+00,9.96996e-01,9.99999e-01,9.99255e-01,9.97738e-01,9.99999e-01
1.057893707e+00,9.96544e-01,9.99999e-01,9.98758e-01,9.97783e-01,9.99999e-01
1.063183176e+00,9.95787e-01,9.99999e-01,9.97956e-01,9.97827e-01,9.99998e-01
1.068499092e+00,9.94453e-01,9.99999e-01,9.96578e-01,9.97869e-01,9.99997e-01
1.073841587e+00,9.93912e-01,9.99999e-01,9.95996e-01,9.97911e-01,9.99994e-01
1.079210795e+00,9.92819e-01,9.99999e-01,9.94868e-01,9.97953e-01,9.99985e-01
1.084606849e+00,9.90219e-01,9.99999e-01,9.92242e-01,9.97993e-01,9.99966e-01
1.090029883e+00,9.86869e-01,9.99999e-01,9.88881e-01,9.98033e-01,9.99931e-01
1.095480033e+00,9.67982e-01,9.99999e-01,9.69971e-01,9.98071e-01,9.99876e-01
1.100957433e+00,9.23360e-01,9.99999e-01,9.25318e-01,9.98109e-01,9.99772e-01
1.106462220e+00,8.18423e-01,9.99999e-01,8.20258e-01,9.98147e-01,9.99614e-01
1.111994531e+00,6.56019e-01,9.99999e-01,6.57884e-01,9.98183e-01,9.98977e-01
1.117554504e+00,5.03791e-01,9.99999e-01,5.06556e-01,9.98219e-01,9.96315e-01
1.123142276e+00,5.96543e-01,9.99999e-01,6.02839e-01,9.98254e-01,9.91284e-01
1.128757988e+00,7.16967e-01,9.99999e-01,7.25505e-01,9.98289e-01,9.89924e-01
1.134401778e+00,4.70443e-01,9.99999e-01,4.75308e-01,9.98322e-01,9.91425e-01
1.140073787e+00,8.20065e-01,9.99999e-01,8.27086e-01,9.98356e-01,9.93143e-01
1.145774156e+00,6.65630e-01,9.99999e-01,6.70916e-01,9.98388e-01,9.93721e-01
1.151503026e+00,6.36756e-01,9.99999e-01,6.40004e-01,9.98420e-01,9.96497e-01
1.157260541e+00,6.90191e-01,9.99999e-01,6.91986e-01,9.98451e-01,9.98951e-01
1.163046844e+00,7.60662e-01,9.99999e-01,7.62045e-01,9.98482e-01,9.99702e-01
1.168862078e+00,8.27238e-01,9.99999e-01,8.28597e-01,9.98511e-01,9.99846e-01
1.174706389e+00,8.89002e-01,9.99999e-01,8.90481e-01,9.98541e-01,9.99796e-01
1.180579921e+00,9.30230e-01,9.99999e-01,9.31848e-01,9.98570e-01,9.99692e-01
1.186482820e+00,9.59302e-01,9.99999e-01,9.60951e-01,9.98598e-01,9.99684e-01
1.192415234e+00,9.75471e-01,9.99999e-01,9.77043e-01,9.98625e-01,9.99763e-01
1.198377311e+00,9.79084e-01,9.99999e-01,9.80622e-01,9.98653e-01,9.99776e-01
1.204369197e+00,9.80148e-01,9.99999e-01,9.81641e-01,9.98679e-01,9.99797e-01
1.210391043e+00,9.81050e-01,9.99999e-01,9.82442e-01,9.98705e-01,9.99876e-01
1.216442998e+00,9.83714e-01,9.99999e-01,9.85038e-01,9.98731e-01,9.99924e-01
1.222525213e+00,9.87065e-01,9.99999e-01,9.88340e-01,9.98756e-01,9.99952e-01
1.228637839e+00,9.90662e-01,9.99999e-01,9.91892e-01,9.98780e-01,9.99977e-01
1.234781029e+00,9.92778e-01,9.99999e-01,9.93972e-01,9.98804e-01,9.99993e-01
1.240954934e+00,9.95017e-01,9.99999e-01,9.96186e-01,9.98828e-01,9.99997e-01
1.247159708e+00,9.95883e-01,9.99999e-01,9.97028e-01,9.98851e-01,9.99998e-01
1.253395507e+00,9.96239e-01,9.99999e-01,9.97362e-01,9.98874e-01,9.99998e-01
1.259662485e+00,9.96393e-01,9.99999e-01,9.97496e-01,9.98896e-01,9.99997e-01
1.265960797e+00,9.94917e-01,9.99999e-01,9.95998e-01,9.98918e-01,9.99995e-01
1.272290601e+00,9.92664e-01,9.99999e-01,9.93724e-01,9.98939e-01,9.99992e-01
1.278652054e+00,9.86510e-01,9.99999e-01,9.87548e-01,9.98960e-01,9.99987e-01
1.285045314e+00,9.79457e-01,9.99999e-01,9.80477e-01,9.98981e-01,9.99976e-01
1.291470541e+00,9.60164e-01,9.99999e-01,9.61161e-01,9.99001e-01,9.99959e-01
1.297927893e+00,9.48561e-01,9.99999e-01,9.49561e-01,9.99020e-01,9.99925e-01
1.304417533e+00,9.34443e-01,9.99999e-01,9.35487e-01,9.99040e-01,9.99842e-01
1.310939621e+00,9.25334e-01,9.99999e-01,9.26504e-01,9.99059e-01,9.99677e-01
1.317494319e+00,9.19050e-01,9.99999e-01,9.20446e-01,9.99077e-01,9.99403e-01
1.324081790e+00,8.81464e-01,9.99999e-01,8.83120e-01,9.99095e-01,9.99026e-01
1.330702199e+00,5.92880e-01,9.99999e-01,5.94402e-01,9.99113e-01,9.98323e-01
1.337355710e+00,2.71481e-01,9.99999e-01,2.72596e-01,9.99131e-01,9.96773e-01
1.344042489e+00,3.25738e-02,9.99999e-01,3.29204e-02,9.99148e-01,9.90313e-01
1.350762701e+00,1.09464e-03,9.99999e-01,1.13267e-03,9.99165e-01,9.67225e-01
1.357516515e+00,9.62212e-05,9.99999e-01,1.06194e-04,9.99181e-01,9.06833e-01
1.364304097e+00,1.87435e-03,9.99999e-01,2.22656e-03,9.99197e-01,8.42488e-01
1.371125618e+00,1.39469e-02,9.99999e-01,1.64058e-02,9.99213e-01,8.50788e-01
1.377981246e+00,2.66621e-02,9.99999e-01,3.06468e-02,9.99229e-01,8.70650e-01
1.384871152e+00,1.74869e-03,9.99999e-01,1.99111e-03,9.99244e-01,8.78911e-01
1.391795508e+00,2.72253e-03,9.99999e-01,3.08124e-03,9.99259e-01,8.84234e-01
1.398754485e+00,6.40642e-03,9.99999e-01,7.09689e-03,9.99273e-01,9.03363e-01
1.405748258e+00,6.22609e-03,9.99999e-01,6.61191e-03,9.99288e-01,9.42317e-01
1.412776999e+00,7.08293e-03,9.99999e-01,7.28277e-03,9.99302e-01,9.73238e-01
1.419840884e+00,9.87199e-03,9.99999e-01,9.99694e-03,9.99315e-01,9.88176e-01
1.426940089e+00,2.68681e-02,9.99999e-01,2.71302e-02,9.99329e-01,9.91004e-01
1.434074789e+00,6.25960e-02,9.99999e-01,6.33086e-02,9.99342e-01,9.89393e-01
1.441245163e+00,1.24895e-01,9.99999e-01,1.26427e-01,9.99355e-01,9.88516e-01
1.448451389e+00,2.24892e-01,9.99999e-01,2.27321e-01,9.99368e-01,9.89937e-01
1.455693646e+00,3.78254e-01,9.99999e-01,3.81478e-01,9.99380e-01,9.92161e-01
1.462972114e+00,4.35384e-01,9.99999e-01,4.38930e-01,9.99393e-01,9.92523e-01
1.470286975e+00,3.78582e-01,9.99999e-01,3.81612e-01,9.99405e-01,9.92649e-01
