#,Wave/freq,Total,N2,H2O,Rayleigh,CIA
4.000000000e-01,4.16672e-01,9.99999e-01,9.99900e-01,4.16713e-01,9.99999e-01
4.020000000e-01,4.23962e-01,9.99999e-01,9.99938e-01,4.23989e-01,9.99999e-01
4.040100000e-01,4.31225e-01,9.99999e-01,9.99973e-01,4.31236e-01,9.99999e-01
4.060300500e-01,4.38457e-01,9.99999e-01,9.99993e-01,4.38460e-01,9.99999e-01
4.080602003e-01,4.45658e-01,9.99999e-01,9.99997e-01,4.45659e-01,9.99999e-01
4.101005013e-01,4.52831e-01,9.99999e-01,9.99999e-01,4.52831e-01,9.99999e-01
4.121510038e-01,4.59971e-01,9.99999e-01,9.99995e-01,4.59973e-01,9.99999e-01
4.142117588e-01,4.67070e-01,9.99999e-01,9.99972e-01,4.67083e-01,9.99999e-01
4.162828176e-01,4.74101e-01,9.99999e-01,9.99877e-01,4.74159e-01,9.99999e-01
4.183642317e-01,4.81165e-01,9.99999e-01,9.99926e-01,4.81200e-01,9.99999e-01
4.204560528e-01,4.88181e-01,9.99999e-01,9.99954e-01,4.88203e-01,9.99999e-01
4.225583331e-01,4.95158e-01,9.99999e-01,9.99982e-01,4.95166e-01,9.99999e-01
4.246711247e-01,5.02082e-01,9.99999e-01,9.99986e-01,5.02089e-01,9.99999e-01
4.267944804e-01,5.08959e-01,9.99999e-01,9.99979e-01,5.08968e-01,9.99999e-01
4.289284528e-01,5.15796e-01,9.99999e-01,9.99984e-01,5.15804e-01,9.99999e-01
4.310730950e-01,5.22590e-01,9.99999e-01,9.99993e-01,5.22593e-01,9.99999e-01
4.332284605e-01,5.29334e-01,9.99999e-01,9.99997e-01,5.29335e-01,9.99999e-01
4.353946028e-01,5.36028e-01,9.99999e-01,9.99998e-01,5.36028e-01,9.99999e-01
4.375715758e-01,5.42665e-01,9.99999e-01,9.99987e-01,5.42671e-01,9.99999e-01
4.397594337e-01,5.49205e-01,9.99999e-01,9.99893e-01,5.49263e-01,9.99999e-01
4.419582309e-01,5.55503e-01,9.99999e-01,9.99461e-01,5.55802e-01,9.99999e-01
4.441680220e-01,5.62047e-01,9.99999e-01,9.99571e-01,5.62288e-01,9.99999e-01
4.463888621e-01,5.68467e-01,9.99999e-01,9.99556e-01,5.68719e-01,9.99999e-01
4.486208064e-01,5.74935e-01,9.99999e-01,9.99723e-01,5.75094e-01,9.99999e-01
4.508639105e-01,5.81338e-01,9.99999e-01,9.99870e-01,5.81413e-01,9.99999e-01
4.531182300e-01,5.87644e-01,9.99999e-01,9.99948e-01,5.87674e-01,9.99999e-01
4.553838212e-01,5.93857e-01,9.99999e-01,9.99964e-01,5.93878e-01,9.99999e-01
4.576607403e-01,6.00012e-01,9.99999e-01,9.99983e-01,6.00022e-01,9.99999e-01
4.599490440e-01,6.06099e-01,9.99999e-01,9.99988e-01,6.06106e-01,9.99999e-01
4.622487892e-01,6.12129e-01,9.99999e-01,9.99997e-01,6.12130e-01,9.99999e-01
4.645600332e-01,6.18089e-01,9.99999e-01,9.99991e-01,6.18094e-01,9.99999e-01
4.668828333e-01,6.23915e-01,9.99999e-01,9.99870e-01,6.23995e-01,9.99999e-01
4.692172475e-01,6.29660e-01,9.99999e-01,9.99721e-01,6.29835e-01,9.99999e-01
4.715633337e-01,6.35498e-01,9.99999e-01,9.99818e-01,6.35613e-01,9.99999e-01
4.739211504e-01,6.41216e-01,9.99999e-01,9.99825e-01,6.41328e-01,9.99999e-01
4.762907561e-01,6.46921e-01,9.99999e-01,9.99908e-01,6.46980e-01,9.99999e-01
4.786722099e-01,6.52545e-01,9.99999e-01,9.99962e-01,6.52569e-01,9.99999e-01
4.810655710e-01,6.58087e-01,9.99999e-01,9.99988e-01,6.58094e-01,9.99999e-01
4.834708988e-01,6.63486e-01,9.99999e-01,9.99895e-01,6.63555e-01,9.99999e-01
4.858882533e-01,6.68821e-01,9.99999e-01,9.99802e-01,6.68953e-01,9.99999e-01
4.883176946e-01,6.74176e-01,9.99999e-01,9.99835e-01,6.74286e-01,9.99999e-01
4.907592831e-01,6.79454e-01,9.99999e-01,9.99850e-01,6.79556e-01,9.99999e-01
4.932130795e-01,6.84689e-01,9.99999e-01,9.99893e-01,6.84761e-01,9.99999e-01
4.956791449e-01,6.89864e-01,9.99999e-01,9.99943e-01,6.89902e-01,9.99999e-01
4.981575406e-01,6.94786e-01,9.99999e-01,9.99721e-01,6.94979e-01,9.99999e-01
5.006483283e-01,6.99487e-01,9.99999e-01,9.99281e-01,6.99992e-01,9.99994e-01
5.031515699e-01,7.02336e-01,9.99999e-01,9.96342e-01,7.04942e-01,9.99961e-01
5.056673278e-01,7.08420e-01,9.99999e-01,9.98062e-01,7.09827e-01,9.99955e-01
5.081956644e-01,7.12881e-01,9.99999e-01,9.97554e-01,7.14649e-01,9.99971e-01
5.107366428e-01,7.18214e-01,9.99999e-01,9.98347e-01,7.19407e-01,9.99994e-01
5.132903260e-01,7.23417e-01,9.99999e-01,9.99053e-01,7.24102e-01,9.99998e-01
5.158567776e-01,7.28442e-01,9.99999e-01,9.99599e-01,7.28734e-01,9.99999e-01
5.184360615e-01,7.33186e-01,9.99999e-01,9.99839e-01,7.33303e-01,9.99999e-01
5.210282418e-01,7.37766e-01,9.99999e-01,9.99940e-01,7.37810e-01,9.99999e-01
5.236333830e-01,7.42076e-01,9.99999e-01,9.99760e-01,7.42255e-01,9.99997e-01
5.262515499e-01,7.46524e-01,9.99999e-01,9.99849e-01,7.46638e-01,9.99997e-01
5.288828077e-01,7.50855e-01,9.99999e-01,9.99862e-01,7.50959e-01,9.99997e-01
5.315272217e-01,7.55128e-01,9.99999e-01,9.99878e-01,7.55219e-01,9.99999e-01
5.341848578e-01,7.59359e-01,9.99999e-01,9.99921e-01,7.59419e-01,9.99999e-01
5.368557821e-01,7.63346e-01,9.99999e-01,9.99722e-01,7.63558e-01,9.99998e-01
5.395400610e-01,7.66867e-01,9.99999e-01,9.99003e-01,7.67638e-01,9.99991e-01
5.422377613e-01,7.70635e-01,9.99999e-01,9.98697e-01,7.71658e-01,9.99976e-01
5.449489501e-01,7.74667e-01,9.99999e-01,9.98796e-01,7.75619e-01,9.99975e-01
5.476736949e-01,7.78676e-01,9.99999e-01,9.98926e-01,7.79522e-01,9.99987e-01
5.504120634e-01,7.82754e-01,9.99999e-01,9.99221e-01,7.83366e-01,9.99996e-01
5.531641237e-01,7.86844e-01,9.99999e-01,9.99607e-01,7.87153e-01,9.99999e-01
5.559299443e-01,7.90734e-01,9.99999e-01,9.99810e-01,7.90883e-01,9.99999e-01
5.587095940e-01,7.94463e-01,9.99999e-01,9.99881e-01,7.94557e-01,9.99999e-01
5.615031420e-01,7.98069e-01,9.99999e-01,9.99867e-01,7.98174e-01,9.99999e-01
5.643106577e-01,8.01617e-01,9.99999e-01,9.99852e-01,8.01736e-01,9.99998e-01
5.671322110e-01,8.03793e-01,9.99999e-01,9.98215e-01,8.05243e-01,9.99983e-01
5.699678720e-01,8.07086e-01,9.99999e-01,9.98057e-01,8.08696e-01,9.99950e-01
5.728177114e-01,8.10433e-01,9.99999e-01,9.97994e-01,8.12095e-01,9.99958e-01
5.756818000e-01,8.13917e-01,9.99999e-01,9.98156e-01,8.15440e-01,9.99974e-01
5.785602090e-01,8.17409e-01,9.99999e-01,9.98390e-01,8.18733e-01,9.99991e-01
5.814530100e-01,8.20645e-01,9.99999e-01,9.98386e-01,8.21974e-01,9.99996e-01
5.843602750e-01,8.23579e-01,9.99999e-01,9.98089e-01,8.25163e-01,9.99988e-01
5.872820764e-01,8.14673e-01,9.99999e-01,9.83660e-01,8.28301e-01,9.99883e-01
5.902184868e-01,8.14541e-01,9.99999e-01,9.80046e-01,8.31389e-01,9.99682e-01
5.931695792e-01,8.22423e-01,9.99999e-01,9.85918e-01,8.34427e-01,9.99690e-01
5.961354271e-01,8.24309e-01,9.99999e-01,9.84531e-01,8.37416e-01,9.99812e-01
5.991161043e-01,8.30799e-01,9.99999e-01,9.88680e-01,8.40356e-01,9.99945e-01
6.021116848e-01,8.37808e-01,9.99999e-01,9.93555e-01,8.43248e-01,9.99992e-01
6.051222432e-01,8.43328e-01,9.99999e-01,9.96733e-01,8.46092e-01,9.99999e-01
6.081478544e-01,8.47694e-01,9.99999e-01,9.98590e-01,8.48890e-01,9.99999e-01
6.111885937e-01,8.51133e-01,9.99999e-01,9.99402e-01,8.51641e-01,9.99999e-01
6.142445367e-01,8.54120e-01,9.99999e-01,9.99733e-01,8.54347e-01,9.99999e-01
6.173157594e-01,8.56882e-01,9.99999e-01,9.99852e-01,8.57008e-01,9.99999e-01
6.204023382e-01,8.59518e-01,9.99999e-01,9.99875e-01,8.59624e-01,9.99999e-01
6.235043498e-01,8.61731e-01,9.99999e-01,9.99461e-01,8.62196e-01,9.99998e-01
6.266218716e-01,8.62211e-01,9.99999e-01,9.97112e-01,8.64725e-01,9.99979e-01
6.297549810e-01,8.66257e-01,9.99999e-01,9.98940e-01,8.67211e-01,9.99958e-01
6.329037559e-01,8.67802e-01,9.99999e-01,9.97901e-01,8.69655e-01,9.99967e-01
6.360682746e-01,8.70488e-01,9.99999e-01,9.98219e-01,8.72057e-01,9.99980e-01
6.392486160e-01,8.72390e-01,9.99999e-01,9.97688e-01,8.74419e-01,9.99990e-01
6.424448591e-01,8.74035e-01,9.99999e-01,9.96928e-01,8.76739e-01,9.99985e-01
6.456570834e-01,8.66485e-01,9.99999e-01,9.85817e-01,8.79021e-01,9.99920e-01
6.488853688e-01,8.70246e-01,9.99999e-01,9.87718e-01,8.81262e-01,9.99776e-01
6.521297956e-01,8.73865e-01,9.99999e-01,9.89318e-01,8.83465e-01,9.99812e-01
6.553904446e-01,8.76149e-01,9.99999e-01,9.89432e-01,8.85630e-01,9.99859e-01
6.586673968e-01,8.79614e-01,9.99999e-01,9.90871e-01,8.87757e-01,9.99953e-01
6.619607338e-01,8.85134e-01,9.99999e-01,9.94712e-01,8.89847e-01,9.99989e-01
6.652705375e-01,8.89158e-01,9.99999e-01,9.96928e-01,8.91901e-01,9.99994e-01
6.685968902e-01,8.92643e-01,9.99999e-01,9.98573e-01,8.93919e-01,9.99998e-01
6.719398746e-01,8.95308e-01,9.99999e-01,9.99337e-01,8.95901e-01,9.99999e-01
6.752995740e-01,8.97528e-01,9.99999e-01,9.99642e-01,8.97848e-01,9.99999e-01
6.786760719e-01,8.99299e-01,9.99999e-01,9.99486e-01,8.99761e-01,9.99998e-01
6.820694522e-01,9.00843e-01,9.99999e-01,9.99119e-01,9.01641e-01,9.99994e-01
6.854797995e-01,9.02452e-01,9.99999e-01,9.98864e-01,9.03486e-01,9.99989e-01
6.889071985e-01,9.02823e-01,9.99999e-01,9.97288e-01,9.05299e-01,9.99974e-01
6.923517345e-01,8.67276e-01,9.99999e-01,9.56323e-01,9.07080e-01,9.99784e-01
6.958134932e-01,8.87222e-01,9.99999e-01,9.76699e-01,9.08829e-01,9.99513e-01
6.992925606e-01,8.90262e-01,9.99999e-01,9.78140e-01,9.10547e-01,9.99571e-01
7.027890234e-01,8.87224e-01,9.99999e-01,9.72902e-01,9.12234e-01,9.99671e-01
7.063029686e-01,8.92877e-01,9.99999e-01,9.77165e-01,9.13891e-01,9.99836e-01
7.098344834e-01,8.95357e-01,9.99999e-01,9.78072e-01,9.15518e-01,9.99902e-01
7.133836558e-01,8.90587e-01,9.99999e-01,9.71260e-01,9.17115e-01,9.99807e-01
7.169505741e-01,7.28061e-01,9.99999e-01,7.93702e-01,9.18684e-01,9.98489e-01
7.205353270e-01,8.17638e-01,9.99999e-01,8.90891e-01,9.20224e-01,9.97337e-01
7.241380036e-01,7.95138e-01,9.99999e-01,8.64639e-01,9.21736e-01,9.97700e-01
7.277586936e-01,8.08113e-01,9.99999e-01,8.76966e-01,9.23221e-01,9.98119e-01
7.313974871e-01,8.02295e-01,9.99999e-01,8.68411e-01,9.24679e-01,9.99118e-01
7.350544745e-01,8.57053e-01,9.99999e-01,9.25715e-01,9.26111e-01,9.99693e-01
7.387297469e-01,8.76013e-01,9.99999e-01,9.44604e-01,9.27516e-01,9.99859e-01
7.424233956e-01,9.03249e-01,9.99999e-01,9.72416e-01,9.28896e-01,9.99972e-01
7.461355126e-01,9.14628e-01,9.99999e-01,9.83210e-01,9.30250e-01,9.99994e-01
7.498661902e-01,9.24248e-01,9.99999e-01,9.92131e-01,9.31579e-01,9.99997e-01
7.536155211e-01,9.29285e-01,9.99999e-01,9.96141e-01,9.32884e-01,9.99998e-01
7.573835987e-01,9.32308e-01,9.99999e-01,9.98011e-01,9.34165e-01,9.99999e-01
7.611705167e-01,9.34267e-01,9.99999e-01,9.98764e-01,9.35423e-01,9.99999e-01
7.649763693e-01,9.35933e-01,9.99999e-01,9.99226e-01,9.36657e-01,9.99999e-01
7.688012511e-01,9.37364e-01,9.99999e-01,9.99461e-01,9.37869e-01,9.99999e-01
7.726452574e-01,9.38642e-01,9.99999e-01,9.99557e-01,9.39058e-01,9.99999e-01
7.765084837e-01,9.39636e-01,9.99999e-01,9.99374e-01,9.40225e-01,9.99998e-01
7.803910261e-01,9.38830e-01,9.99999e-01,9.97304e-01,9.41370e-01,9.99996e-01
7.842929812e-01,9.33641e-01,9.99999e-01,9.90623e-01,9.42494e-01,9.99982e-01
7.882144461e-01,9.25216e-01,9.99999e-01,9.80636e-01,9.43597e-01,9.99880e-01
7.921555184e-01,9.34355e-01,9.99999e-01,9.89298e-01,9.44680e-01,9.99768e-01
7.961162960e-01,9.27883e-01,9.99999e-01,9.81332e-01,9.45742e-01,9.99778e-01
8.000968774e-01,9.26061e-01,9.99999e-01,9.78341e-01,9.46785e-01,9.99764e-01
8.040973618e-01,9.27132e-01,9.99999e-01,9.78368e-01,9.47808e-01,9.99812e-01
8.081178486e-01,9.03406e-01,9.99999e-01,9.52310e-01,9.48812e-01,9.99824e-01
8.121584379e-01,7.75579e-01,9.99999e-01,8.17135e-01,9.49798e-01,9.99310e-01
8.162192301e-01,7.45293e-01,9.99999e-01,7.85923e-01,9.50764e-01,9.97409e-01
8.203003262e-01,8.45401e-01,9.99999e-01,8.90995e-01,9.51713e-01,9.96967e-01
8.244018279e-01,8.08263e-01,9.99999e-01,8.50494e-01,9.52644e-01,9.97585e-01
8.285238370e-01,8.24010e-01,9.99999e-01,8.65784e-01,9.53557e-01,9.98103e-01
8.326664562e-01,8.24318e-01,9.99999e-01,8.64332e-01,9.54453e-01,9.99215e-01
8.368297885e-01,8.59855e-01,9.99999e-01,9.00219e-01,9.55332e-01,9.99820e-01
8.410139374e-01,8.98075e-01,9.99999e-01,9.39315e-01,9.56195e-01,9.99894e-01
8.452190071e-01,9.27985e-01,9.99999e-01,9.69699e-01,9.57042e-01,9.99936e-01
8.494451021e-01,9.40916e-01,9.99999e-01,9.82347e-01,9.57872e-01,9.99949e-01
8.536923276e-01,9.48586e-01,9.99999e-01,9.89496e-01,9.58687e-01,9.99966e-01
8.579607893e-01,9.53275e-01,9.99999e-01,9.93534e-01,9.59486e-01,9.99990e-01
8.622505932e-01,9.56314e-01,9.99999e-01,9.95880e-01,9.60270e-01,9.99998e-01
8.665618462e-01,9.58596e-01,9.99999e-01,9.97457e-01,9.61039e-01,9.99998e-01
8.708946554e-01,9.58999e-01,9.99999e-01,9.97094e-01,9.61794e-01,9.99997e-01
8.752491287e-01,9.58788e-01,9.99999e-01,9.96111e-01,9.62534e-01,9.99995e-01
8.796253743e-01,9.58080e-01,9.99999e-01,9.94633e-01,9.63260e-01,9.99987e-01
8.840235012e-01,9.58027e-01,9.99999e-01,9.93868e-01,9.63973e-01,9.99962e-01
8.884436187e-01,9.43584e-01,9.99999e-01,9.78243e-01,9.64672e-01,9.99892e-01
8.928858368e-01,7.66347e-01,9.99999e-01,7.94336e-01,9.65357e-01,9.99384e-01
8.973502660e-01,6.40675e-01,9.99999e-01,6.65299e-01,9.66030e-01,9.96849e-01
9.018370173e-01,7.80350e-01,9.99999e-01,8.11252e-01,9.66690e-01,9.95051e-01
9.063462024e-01,8.02161e-01,9.99999e-01,8.32867e-01,9.67337e-01,9.95651e-01
9.108779334e-01,7.23955e-01,9.99999e-01,7.51303e-01,9.67971e-01,9.95481e-01
9.154323231e-01,6.95681e-01,9.99999e-01,7.20931e-01,9.68594e-01,9.96263e-01
9.200094847e-01,7.49171e-01,9.99999e-01,7.74595e-01,9.69205e-01,9.97907e-01
9.246095321e-01,6.64437e-01,9.99999e-01,6.86780e-01,9.69804e-01,9.97588e-01
9.292325798e-01,1.00926e-01,9.99999e-01,1.04989e-01,9.70391e-01,9.90631e-01
9.338787427e-01,4.61709e-02,9.99999e-01,4.94382e-02,9.70967e-01,9.61835e-01
9.385481364e-01,2.72070e-01,9.99999e-01,2.93306e-01,9.71533e-01,9.54774e-01
9.432408771e-01,1.87043e-01,9.99999e-01,2.00252e-01,9.72087e-01,9.60859e-01
9.479570815e-01,9.70459e-02,9.99999e-01,1.03072e-01,9.72631e-01,9.68027e-01
9.526968669e-01,1.61469e-01,9.99999e-01,1.69243e-01,9.73164e-01,9.80375e-01
9.574603512e-01,1.75581e-01,9.99999e-01,1.82150e-01,9.73687e-01,9.89982e-01
9.622476530e-01,2.33126e-01,9.99999e-01,2.40971e-01,9.74200e-01,9.93062e-01
9.670588912e-01,4.22221e-01,9.99999e-01,4.35245e-01,9.74703e-01,9.95250e-01
9.718941857e-01,5.65248e-01,9.99999e-01,5.81659e-01,9.75196e-01,9.96501e-01
9.767536566e-01,6.19915e-01,9.99999e-01,6.37071e-01,9.75680e-01,9.97324e-01
9.816374249e-01,6.95803e-01,9.99999e-01,7.13460e-01,9.76155e-01,9.99073e-01
9.865456120e-01,7.89810e-01,9.99999e-01,8.08873e-01,9.76620e-01,9.99806e-01
9.914783401e-01,8.56594e-01,9.99999e-01,8.76736e-01,9.77077e-01,9.99946e-01
9.964357318e-01,9.09873e-01,9.99999e-01,9.30822e-01,9.77524e-01,9.99968e-01
1.001417910e+00,9.36744e-01,9.99999e-01,9.57896e-01,9.77963e-01,9.99951e-01
1.006425000e+00,9.54657e-01,9.99999e-01,9.75804e-01,9.78394e-01,9.99931e-01
1.011457125e+00,9.63960e-01,9.99999e-01,9.84884e-01,9.78816e-01,9.99936e-01
1.016514411e+00,9.69126e-01,9.99999e-01,9.89725e-01,9.79230e-01,9.99954e-01
1.021596983e+00,9.71569e-01,9.99999e-01,9.91809e-01,9.79636e-01,9.99954e-01
1.026704968e+00,9.73743e-01,9.99999e-01,9.93609e-01,9.80034e-01,9.99969e-01
1.031838492e+00,9.75852e-01,9.99999e-01,9.95343e-01,9.80425e-01,9.99991e-01
1.036997685e+00,9.78097e-01,9.99999e-01,9.97236e-01,9.80808e-01,9.99998e-01
1.042182673e+00,9.77961e-01,9.99999e-01,9.96715e-01,9.81183e-01,9.99998e-01
1.047393587e+00,9.77272e-01,9.99999e-01,9.95640e-01,9.81551e-01,9.99998e-01
1.052630555e+00,9.76047e-01,9.99999e-01,9.94027e-01,9.81913e-01,9.99998e-01
1.057893707e+00,9.72502e-01,9.99999e-01,9.90062e-01,9.82267e-01,9.99996e-01
1.063183176e+00,9.66579e-01,9.99999e-01,9.83689e-01,9.82614e-01,9.99990e-01
1.068499092e+00,9.56219e-01,9.99999e-01,9.72818e-01,9.82954e-01,9.99980e-01
1.073841587e+00,9.52143e-01,9.99999e-01,9.68364e-01,9.83288e-01,9.99958e-01
1.079210795e+00,9.43667e-01,9.99999e-01,9.59490e-01,9.83615e-01,9.99889e-01
1.084606849e+00,9.24154e-01,9.99999e-01,9.39490e-01,9.83936e-01,9.99734e-01
1.090029883e+00,8.99970e-01,9.99999e-01,9.14872e-01,9.84251e-01,9.99450e-01
1.095480033e+00,7.71866e-01,9.99999e-01,7.84749e-01,9.84560e-01,9.99005e-01
1.100957433e+00,5.36902e-01,9.99999e-01,5.46152e-01,9.84863e-01,9.98171e-01
1.106462220e+00,2.30066e-01,9.99999e-01,2.34258e-01,9.85159e-01,9.96900e-01
1.111994531e+00,5.04634e-02,9.99999e-01,5.16321e-02,9.85450e-01,9.91793e-01
1.117554504e+00,9.96233e-03,9.99999e-01,1.04117e-02,9.85736e-01,9.70687e-01
1.123142276e+00,4.20303e-02,9.99999e-01,4.57424e-02,9.86015e-01,9.31879e-01
1.128757988e+00,9.96631e-02,9.99999e-01,1.09642e-01,9.86290e-01,9.21624e-01
1.134401778e+00,4.49759e-02,9.99999e-01,4.88648e-02,9.86559e-01,9.32953e-01
1.140073787e+00,2.30574e-01,9.99999e-01,2.46975e-01,9.86822e-01,9.46059e-01
1.145774156e+00,6.65580e-02,9.99999e-01,7.09398e-02,9.87081e-01,9.50510e-01
1.151503026e+00,5.08153e-02,9.99999e-01,5.29431e-02,9.87334e-01,9.72120e-01
1.157260541e+00,6.61271e-02,9.99999e-01,6.75269e-02,9.87583e-01,9.91581e-01
1.163046844e+00,1.31020e-01,9.99999e-01,1.32953e-01,9.87827e-01,9.97606e-01
1.168862078e+00,2.28883e-01,9.99999e-01,2.31933e-01,9.88066e-01,9.98766e-01
1.174706389e+00,3.98372e-01,9.99999e-01,4.03747e-01,9.88300e-01,9.98364e-01
1.180579921e+00,5.64473e-01,9.99999e-01,5.72436e-01,9.88530e-01,9.97528e-01
1.186482820e+00,7.17108e-01,9.99999e-01,7.27107e-01,9.88755e-01,9.97463e-01
1.192415234e+00,8.18976e-01,9.99999e-01,8.29681e-01,9.88976e-01,9.98099e-01
1.198377311e+00,8.43935e-01,9.99999e-01,8.54689e-01,9.89193e-01,9.98204e-01
1.204369197e+00,8.51966e-01,9.99999e-01,8.62490e-01,9.89405e-01,9.98375e-01
1.210391043e+00,8.57805e-01,9.99999e-01,8.67665e-01,9.89613e-01,9.99011e-01
1.216442998e+00,8.76526e-01,9.99999e-01,8.86079e-01,9.89817e-01,9.99394e-01
1.222525213e+00,9.00525e-01,9.99999e-01,9.09947e-01,9.90017e-01,9.99623e-01
1.228637839e+00,9.27239e-01,9.99999e-01,9.36566e-01,9.90213e-01,9.99824e-01
1.234781029e+00,9.43284e-01,9.99999e-01,9.52468e-01,9.90406e-01,9.99949e-01
1.240954934e+00,9.60560e-01,9.99999e-01,9.69693e-01,9.90594e-01,9.99985e-01
1.247159708e+00,9.67286e-01,9.99999e-01,9.76295e-01,9.90779e-01,9.99990e-01
1.253395507e+00,9.70091e-01,9.99999e-01,9.78951e-01,9.90961e-01,9.99987e-01
1.259662485e+00,9.71483e-01,9.99999e-01,9.80187e-01,9.91138e-01,9.99980e-01
1.265960797e+00,9.59912e-01,9.99999e-01,9.68353e-01,9.91313e-01,9.99968e-01
1.272290601e+00,9.45595e-01,9.99999e-01,9.53769e-01,9.91483e-01,9.99944e-01
1.278652054e+00,8.97461e-01,9.99999e-01,9.05104e-01,9.91651e-01,9.99902e-01
1.285045314e+00,8.48328e-01,9.99999e-01,8.55483e-01,9.91815e-01,9.99817e-01
1.291470541e+00,7.24928e-01,9.99999e-01,7.31025e-01,9.91976e-01,9.99679e-01
1.297927893e+00,6.60878e-01,9.99999e-01,6.66514e-01,9.92134e-01,9.99402e-01
1.304417533e+00,5.89187e-01,9.99999e-01,5.94516e-01,9.92289e-01,9.98735e-01
1.310939621e+00,5.47492e-01,9.99999e-01,5.53096e-01,9.92440e-01,9.97406e-01
1.317494319e+00,5.18950e-01,9.99999e-01,5.25342e-01,9.92589e-01,9.95207e-01
1.324081790e+00,3.85797e-01,9.99999e-01,3.91680e-01,9.92735e-01,9.92187e-01
1.330702199e+00,8.11670e-02,9.99999e-01,8.28622e-02,9.92878e-01,9.86567e-01
1.337355710e+00,3.18879e-04,9.99999e-01,3.29594e-04,9.93018e-01,9.74291e-01
1.344042489e+00,2.66543e-06,9.99999e-01,2.90281e-06,9.93156e-01,9.24552e-01
1.350762701e+00,1.09230e-18,9.99999e-01,1.43848e-18,9.93290e-01,7.64466e-01
1.357516515e+00,5.17121e-28,9.99999e-01,1.14492e-27,9.93422e-01,4.54654e-01
1.364304097e+00,1.41535e-17,9.99999e-01,5.67039e-17,9.93552e-01,2.51223e-01
1.371125618e+00,5.22053e-11,9.99999e-01,1.93237e-10,9.93679e-01,2.71879e-01
1.377981246e+00,1.96139e-10,9.99999e-01,6.02714e-10,9.93803e-01,3.27455e-01
1.384871152e+00,1.24994e-14,9.99999e-01,3.59916e-14,9.93925e-01,3.49407e-01
1.391795508e+00,1.23217e-17,9.99999e-01,3.35388e-17,9.94045e-01,3.69587e-01
1.398754485e+00,1.10622e-13,9.99999e-01,2.52419e-13,9.94162e-01,4.40819e-01
1.405748258e+00,1.77858e-13,9.99999e-01,2.88754e-13,9.94277e-01,6.19493e-01
1.412776999e+00,4.26388e-13,9.99999e-01,5.33578e-13,9.94390e-01,8.03618e-01
1.419840884e+00,7.67633e-13,9.99998e-01,8.49534e-13,9.94500e-01,9.08588e-01
1.426940089e+00,8.07963e-09,9.99998e-01,8.73711e-09,9.94609e-01,9.29759e-01
1.434074789e+00,1.04695e-07,9.99998e-01,1.14696e-07,9.94715e-01,9.17648e-01
1.441245163e+00,1.88286e-06,9.99999e-01,2.07731e-06,9.94819e-01,9.11114e-01
1.448451389e+00,1.36026e-04,9.99998e-01,1.48331e-04,9.94921e-01,9.21726e-01
1.455693646e+00,2.29555e-03,9.99999e-01,2.45809e-03,9.95021e-01,9.38548e-01
1.462972114e+00,3.47144e-03,9.99999e-01,3.70598e-03,9.95119e-01,9.41307e-01
1.470286975e+00,1.52931e-03,9.99999e-01,1.63080e-03,9.95215e-01,9.42277e-01
