#,Wave/freq,Total,N2,H2O,Rayleigh,CIA
4.000000000e-01,1.94243e-01,9.99999e-01,9.99814e-01,1.94279e-01,9.99999e-01
4.020000000e-01,2.00653e-01,9.99999e-01,9.99884e-01,2.00676e-01,9.99999e-01
4.040100000e-01,2.07135e-01,9.99999e-01,9.99950e-01,2.07145e-01,9.99999e-01
4.060300500e-01,2.13685e-01,9.99999e-01,9.99988e-01,2.13687e-01,9.99999e-01
4.080602003e-01,2.20301e-01,9.99999e-01,9.99995e-01,2.20302e-01,9.99999e-01
4.101005013e-01,2.26984e-01,9.99999e-01,9.99999e-01,2.26984e-01,9.99999e-01
4.121510038e-01,2.33729e-01,9.99999e-01,9.99992e-01,2.33730e-01,9.99999e-01
4.142117588e-01,2.40527e-01,9.99999e-01,9.99949e-01,2.40539e-01,9.99999e-01
4.162828176e-01,2.47348e-01,9.99999e-01,9.99770e-01,2.47405e-01,9.99999e-01
4.183642317e-01,2.54291e-01,9.99999e-01,9.99863e-01,2.54325e-01,9.99999e-01
4.204560528e-01,2.61275e-01,9.99999e-01,9.99915e-01,2.61297e-01,9.99999e-01
4.225583331e-01,2.68308e-01,9.99999e-01,9.99968e-01,2.68317e-01,9.99999e-01
4.246711247e-01,2.75374e-01,9.99999e-01,9.99974e-01,2.75381e-01,9.99999e-01
4.267944804e-01,2.82475e-01,9.99999e-01,9.99962e-01,2.82485e-01,9.99999e-01
4.289284528e-01,2.89620e-01,9.99999e-01,9.99971e-01,2.89628e-01,9.99999e-01
4.310730950e-01,2.96801e-01,9.99999e-01,9.99987e-01,2.96804e-01,9.99999e-01
4.332284605e-01,3.04011e-01,9.99999e-01,9.99996e-01,3.04012e-01,9.99999e-01
4.353946028e-01,3.11246e-01,9.99999e-01,9.99998e-01,3.11246e-01,9.99999e-01
4.375715758e-01,3.18498e-01,9.99999e-01,9.99977e-01,3.18505e-01,9.99999e-01
4.397594337e-01,3.25720e-01,9.99999e-01,9.99800e-01,3.25785e-01,9.99999e-01
4.419582309e-01,3.32747e-01,9.99999e-01,9.98991e-01,3.33083e-01,9.99999e-01
4.441680220e-01,3.40122e-01,9.99999e-01,9.99198e-01,3.40395e-01,9.99999e-01
4.463888621e-01,3.47430e-01,9.99999e-01,9.99170e-01,3.47718e-01,9.99999e-01
4.486208064e-01,3.54866e-01,9.99999e-01,9.99482e-01,3.55050e-01,9.99999e-01
4.508639105e-01,3.62299e-01,9.99999e-01,9.99757e-01,3.62387e-01,9.99999e-01
4.531182300e-01,3.69690e-01,9.99999e-01,9.99903e-01,3.69726e-01,9.99999e-01
4.553838212e-01,3.77040e-01,9.99999e-01,9.99934e-01,3.77064e-01,9.99999e-01
4.576607403e-01,3.84387e-01,9.99999e-01,9.99969e-01,3.84399e-01,9.99999e-01
4.599490440e-01,3.91719e-01,9.99999e-01,9.99978e-01,3.91727e-01,9.99999e-01
4.622487892e-01,3.99045e-01,9.99999e-01,9.99995e-01,3.99046e-01,9.99999e-01
4.645600332e-01,4.06348e-01,9.99999e-01,9.99985e-01,4.06353e-01,9.99999e-01
4.668828333e-01,4.13546e-01,9.99999e-01,9.99757e-01,4.13646e-01,9.99999e-01
4.692172475e-01,4.20703e-01,9.99999e-01,9.99479e-01,4.20922e-01,9.99999e-01
4.715633337e-01,4.28033e-01,9.99999e-01,9.99660e-01,4.28178e-01,9.99999e-01
4.739211504e-01,4.35270e-01,9.99999e-01,9.99673e-01,4.35412e-01,9.99999e-01
4.762907561e-01,4.42547e-01,9.99999e-01,9.99830e-01,4.42622e-01,9.99999e-01
4.786722099e-01,4.49775e-01,9.99999e-01,9.99930e-01,4.49806e-01,9.99999e-01
4.810655710e-01,4.56951e-01,9.99999e-01,9.99978e-01,4.56961e-01,9.99999e-01
4.834708988e-01,4.63994e-01,9.99999e-01,9.99804e-01,4.64084e-01,9.99999e-01
4.858882533e-01,4.71001e-01,9.99999e-01,9.99630e-01,4.71175e-01,9.99999e-01
4.883176946e-01,4.78084e-01,9.99999e-01,9.99692e-01,4.78231e-01,9.99999e-01
4.907592831e-01,4.85115e-01,9.99999e-01,9.99720e-01,4.85250e-01,9.99999e-01
4.932130795e-01,4.92133e-01,9.99999e-01,9.99801e-01,4.92231e-01,9.99999e-01
4.956791449e-01,4.99119e-01,9.99999e-01,9.99894e-01,4.99171e-01,9.99999e-01
4.981575406e-01,5.05805e-01,9.99999e-01,9.99478e-01,5.06069e-01,9.99999e-01
5.006483283e-01,5.12230e-01,9.99999e-01,9.98657e-01,5.12923e-01,9.99990e-01
5.031515699e-01,5.16145e-01,9.99999e-01,9.93169e-01,5.19732e-01,9.99927e-01
5.056673278e-01,5.24543e-01,9.99999e-01,9.96376e-01,5.26494e-01,9.99917e-01
5.081956644e-01,5.30742e-01,9.99999e-01,9.95428e-01,5.33208e-01,9.99946e-01
5.107366428e-01,5.38199e-01,9.99999e-01,9.96909e-01,5.39872e-01,9.99989e-01
5.132903260e-01,5.45518e-01,9.99999e-01,9.98230e-01,5.46486e-01,9.99998e-01
5.158567776e-01,5.52634e-01,9.99999e-01,9.99251e-01,5.53047e-01,9.99999e-01
5.184360615e-01,5.59388e-01,9.99999e-01,9.99700e-01,5.59556e-01,9.99999e-01
5.210282418e-01,5.65947e-01,9.99999e-01,9.99888e-01,5.66010e-01,9.99999e-01
5.236333830e-01,5.72151e-01,9.99999e-01,9.99552e-01,5.72409e-01,9.99996e-01
5.262515499e-01,5.78587e-01,9.99999e-01,9.99719e-01,5.78752e-01,9.99995e-01
5.288828077e-01,5.84886e-01,9.99999e-01,9.99743e-01,5.85037e-01,9.99996e-01
5.315272217e-01,5.91131e-01,9.99999e-01,9.99773e-01,5.91265e-01,9.99998e-01
5.341848578e-01,5.97347e-01,9.99999e-01,9.99852e-01,5.97434e-01,9.99999e-01
5.368557821e-01,6.03231e-01,9.99999e-01,9.99481e-01,6.03544e-01,9.99998e-01
5.395400610e-01,6.08449e-01,9.99999e-01,9.98137e-01,6.09594e-01,9.99984e-01
5.422377613e-01,6.14057e-01,9.99999e-01,9.97564e-01,6.15583e-01,9.99955e-01
5.449489501e-01,6.20083e-01,9.99999e-01,9.97748e-01,6.21511e-01,9.99953e-01
5.476736949e-01,6.26104e-01,9.99999e-01,9.97992e-01,6.27377e-01,9.99977e-01
5.504120634e-01,6.32255e-01,9.99999e-01,9.98543e-01,6.33181e-01,9.99993e-01
5.531641237e-01,6.38454e-01,9.99999e-01,9.99266e-01,6.38922e-01,9.99998e-01
5.559299443e-01,6.44373e-01,9.99999e-01,9.99645e-01,6.44601e-01,9.99999e-01
5.587095940e-01,6.50073e-01,9.99999e-01,9.99778e-01,6.50217e-01,9.99999e-01
5.615031420e-01,6.55607e-01,9.99999e-01,9.99753e-01,6.55768e-01,9.99999e-01
5.643106577e-01,6.61073e-01,9.99999e-01,9.99723e-01,6.61257e-01,9.99997e-01
5.671322110e-01,6.64439e-01,9.99999e-01,9.96665e-01,6.66681e-01,9.99969e-01
5.699678720e-01,6.69541e-01,9.99999e-01,9.96369e-01,6.72042e-01,9.99907e-01
5.728177114e-01,6.74747e-01,9.99999e-01,9.96250e-01,6.77338e-01,9.99922e-01
5.756818000e-01,6.80186e-01,9.99999e-01,9.96552e-01,6.82571e-01,9.99952e-01
5.785602090e-01,6.85659e-01,9.99999e-01,9.96989e-01,6.87739e-01,9.99985e-01
5.814530100e-01,6.90748e-01,9.99999e-01,9.96982e-01,6.92843e-01,9.99993e-01
5.843602750e-01,6.95378e-01,9.99999e-01,9.96429e-01,6.97883e-01,9.99979e-01
5.872820764e-01,6.81443e-01,9.99999e-01,9.69740e-01,7.02859e-01,9.99781e-01
5.902184868e-01,6.81189e-01,9.99999e-01,9.63012e-01,7.07772e-01,9.99405e-01
5.931695792e-01,6.93599e-01,9.99999e-01,9.73870e-01,7.12620e-01,9.99421e-01
5.961354271e-01,6.96561e-01,9.99999e-01,9.71283e-01,7.17405e-01,9.99650e-01
5.991161043e-01,7.06842e-01,9.99999e-01,9.78932e-01,7.22127e-01,9.99897e-01
6.021116848e-01,7.18040e-01,9.99999e-01,9.87978e-01,7.26786e-01,9.99987e-01
6.051222432e-01,7.26917e-01,9.99999e-01,9.93897e-01,7.31381e-01,9.99998e-01
6.081478544e-01,7.33976e-01,9.99999e-01,9.97365e-01,7.35914e-01,9.99999e-01
6.111885937e-01,7.39558e-01,9.99999e-01,9.98882e-01,7.40385e-01,9.99999e-01
6.142445367e-01,7.44423e-01,9.99999e-01,9.99501e-01,7.44794e-01,9.99999e-01
6.173157594e-01,7.48936e-01,9.99999e-01,9.99725e-01,7.49142e-01,9.99999e-01
6.204023382e-01,7.53253e-01,9.99999e-01,9.99768e-01,7.53428e-01,9.99999e-01
6.235043498e-01,7.56888e-01,9.99999e-01,9.98992e-01,7.57653e-01,9.99997e-01
6.266218716e-01,7.57679e-01,9.99999e-01,9.94604e-01,7.61818e-01,9.99961e-01
6.297549810e-01,7.64347e-01,9.99999e-01,9.98018e-01,7.65922e-01,9.99923e-01
6.329037559e-01,7.66900e-01,9.99999e-01,9.96075e-01,7.69968e-01,9.99938e-01
6.360682746e-01,7.71349e-01,9.99999e-01,9.96670e-01,7.73953e-01,9.99963e-01
6.392486160e-01,7.74507e-01,9.99999e-01,9.95678e-01,7.77881e-01,9.99983e-01
6.424448591e-01,7.77244e-01,9.99999e-01,9.94261e-01,7.81750e-01,9.99974e-01
6.456570834e-01,7.64756e-01,9.99999e-01,9.73659e-01,7.85561e-01,9.99850e-01
6.488853688e-01,7.70983e-01,9.99999e-01,9.77181e-01,7.89315e-01,9.99583e-01
6.521297956e-01,7.77003e-01,9.99999e-01,9.80154e-01,7.93012e-01,9.99650e-01
6.553904446e-01,7.80776e-01,9.99999e-01,9.80325e-01,7.96653e-01,9.99737e-01
6.586673968e-01,7.86572e-01,9.99999e-01,9.83005e-01,8.00239e-01,9.99914e-01
6.619607338e-01,7.95824e-01,9.99999e-01,9.90132e-01,8.03769e-01,9.99981e-01
6.652705375e-01,8.02605e-01,9.99999e-01,9.94261e-01,8.07244e-01,9.99990e-01
6.685968902e-01,8.08503e-01,9.99999e-01,9.97332e-01,8.10666e-01,9.99997e-01
6.719398746e-01,8.13026e-01,9.99999e-01,9.98761e-01,8.14034e-01,9.99999e-01
6.752995740e-01,8.16803e-01,9.99999e-01,9.99331e-01,8.17349e-01,9.99999e-01
6.786760719e-01,8.19823e-01,9.99999e-01,9.99040e-01,8.20612e-01,9.99998e-01
6.820694522e-01,8.22459e-01,9.99999e-01,9.98352e-01,8.23823e-01,9.99990e-01
6.854797995e-01,8.25212e-01,9.99999e-01,9.97877e-01,8.26982e-01,9.99981e-01
6.889071985e-01,8.25852e-01,9.99999e-01,9.94937e-01,8.30091e-01,9.99953e-01
6.923517345e-01,7.66352e-01,9.99999e-01,9.20194e-01,8.33150e-01,9.99596e-01
6.958134932e-01,7.99537e-01,9.99999e-01,9.57070e-01,8.36160e-01,9.99090e-01
6.992925606e-01,8.04557e-01,9.99999e-01,9.59577e-01,8.39120e-01,9.99199e-01
7.027890234e-01,7.99440e-01,9.99999e-01,9.49999e-01,8.42032e-01,9.99385e-01
7.063029686e-01,8.08942e-01,9.99999e-01,9.57736e-01,8.44897e-01,9.99694e-01
7.098344834e-01,8.13137e-01,9.99999e-01,9.59383e-01,8.47714e-01,9.99818e-01
7.133836558e-01,8.05212e-01,9.99999e-01,9.47107e-01,8.50485e-01,9.99640e-01
7.169505741e-01,5.59092e-01,9.99999e-01,6.57134e-01,8.53210e-01,9.97177e-01
7.205353270e-01,6.88888e-01,9.99999e-01,8.08901e-01,8.55890e-01,9.95025e-01
7.241380036e-01,6.53990e-01,9.99999e-01,7.65047e-01,8.58525e-01,9.95703e-01
7.277586936e-01,6.73902e-01,9.99999e-01,7.85351e-01,8.61115e-01,9.96486e-01
7.313974871e-01,6.64028e-01,9.99999e-01,7.70119e-01,8.63662e-01,9.98352e-01
7.350544745e-01,7.49968e-01,9.99999e-01,8.66343e-01,8.66166e-01,9.99426e-01
7.387297469e-01,7.80843e-01,9.99999e-01,8.99174e-01,8.68628e-01,9.99737e-01
7.424233956e-01,8.26655e-01,9.99999e-01,9.49082e-01,8.71048e-01,9.99948e-01
7.461355126e-01,8.46205e-01,9.99999e-01,9.68841e-01,8.73426e-01,9.99990e-01
7.498661902e-01,8.62918e-01,9.99999e-01,9.85334e-01,8.75764e-01,9.99996e-01
7.536155211e-01,8.71735e-01,9.99999e-01,9.92795e-01,8.78062e-01,9.99997e-01
7.573835987e-01,8.77048e-01,9.99999e-01,9.96282e-01,8.80320e-01,9.99999e-01
7.611705167e-01,8.80501e-01,9.99999e-01,9.97689e-01,8.82540e-01,9.99999e-01
7.649763693e-01,8.83441e-01,9.99999e-01,9.98553e-01,8.84721e-01,9.99999e-01
7.688012511e-01,8.85971e-01,9.99999e-01,9.98993e-01,8.86864e-01,9.99999e-01
7.726452574e-01,8.88233e-01,9.99999e-01,9.99172e-01,8.88969e-01,9.99999e-01
7.765084837e-01,8.89996e-01,9.99999e-01,9.98830e-01,8.91038e-01,9.99998e-01
7.803910261e-01,8.88569e-01,9.99999e-01,9.94963e-01,8.93071e-01,9.99994e-01
7.842929812e-01,8.79417e-01,9.99999e-01,9.82544e-01,8.95068e-01,9.99966e-01
7.882144461e-01,8.64638e-01,9.99999e-01,9.64104e-01,8.97030e-01,9.99776e-01
7.921555184e-01,8.80681e-01,9.99999e-01,9.80091e-01,8.98958e-01,9.99567e-01
7.961162960e-01,8.69339e-01,9.99999e-01,9.65418e-01,9.00851e-01,9.99585e-01
8.000968774e-01,8.66100e-01,9.99999e-01,9.59865e-01,9.02711e-01,9.99559e-01
8.040973618e-01,8.67994e-01,9.99999e-01,9.59934e-01,9.04538e-01,9.99649e-01
8.081178486e-01,8.27283e-01,9.99999e-01,9.13080e-01,9.06332e-01,9.99671e-01
8.121584379e-01,6.25737e-01,9.99999e-01,6.89955e-01,9.08095e-01,9.98710e-01
8.162192301e-01,5.82432e-01,9.99999e-01,6.43270e-01,9.09825e-01,9.95160e-01
8.203003262e-01,7.36500e-01,9.99999e-01,8.12588e-01,9.11525e-01,9.94335e-01
8.244018279e-01,6.82949e-01,9.99999e-01,7.51256e-01,9.13195e-01,9.95488e-01
8.285238370e-01,6.98452e-01,9.99999e-01,7.66189e-01,9.14834e-01,9.96455e-01
8.326664562e-01,6.99458e-01,9.99999e-01,7.64351e-01,9.16444e-01,9.98532e-01
8.368297885e-01,7.54813e-01,9.99999e-01,8.22489e-01,9.18025e-01,9.99664e-01
8.410139374e-01,8.18128e-01,9.99999e-01,8.89852e-01,9.19577e-01,9.99803e-01
8.452190071e-01,8.69549e-01,9.99999e-01,9.44142e-01,9.21101e-01,9.99882e-01
8.494451021e-01,8.92289e-01,9.99999e-01,9.67239e-01,9.22598e-01,9.99905e-01
8.536923276e-01,9.05941e-01,9.99999e-01,9.80444e-01,9.24067e-01,9.99937e-01
8.579607893e-01,9.14334e-01,9.99999e-01,9.87940e-01,9.25510e-01,9.99982e-01
8.622505932e-01,9.19794e-01,9.99999e-01,9.92307e-01,9.26926e-01,9.99997e-01
8.665618462e-01,9.23905e-01,9.99999e-01,9.95249e-01,9.28316e-01,9.99998e-01
8.708946554e-01,9.24632e-01,9.99999e-01,9.94571e-01,9.29681e-01,9.99996e-01
8.752491287e-01,9.24253e-01,9.99999e-01,9.92737e-01,9.31021e-01,9.99991e-01
8.796253743e-01,9.22978e-01,9.99999e-01,9.89984e-01,9.32336e-01,9.99977e-01
8.840235012e-01,9.22885e-01,9.99999e-01,9.88562e-01,9.33627e-01,9.99929e-01
8.884436187e-01,8.97315e-01,9.99999e-01,9.59994e-01,9.34895e-01,9.99800e-01
8.928858368e-01,6.15066e-01,9.99999e-01,6.57781e-01,9.36139e-01,9.98848e-01
8.973502660e-01,4.45855e-01,9.99999e-01,4.78464e-01,9.37360e-01,9.94115e-01
9.018370173e-01,6.36769e-01,9.99999e-01,6.84779e-01,9.38558e-01,9.90763e-01
9.063462024e-01,6.68184e-01,9.99999e-01,7.16853e-01,9.39734e-01,9.91881e-01
9.108779334e-01,5.54838e-01,9.99999e-01,5.94711e-01,9.40889e-01,9.91564e-01
9.154323231e-01,5.14235e-01,9.99999e-01,5.49719e-01,9.42022e-01,9.93022e-01
9.200094847e-01,5.90342e-01,9.99999e-01,6.28393e-01,9.43134e-01,9.96088e-01
9.246095321e-01,4.81768e-01,9.99999e-01,5.12535e-01,9.44225e-01,9.95494e-01
9.292325798e-01,2.97553e-02,9.99999e-01,3.20364e-02,9.45296e-01,9.82545e-01
9.338787427e-01,5.71231e-03,9.99999e-01,6.49193e-03,9.46347e-01,9.29794e-01
9.385481364e-01,1.11559e-01,9.99999e-01,1.28405e-01,9.47379e-01,9.17066e-01
9.432408771e-01,6.19522e-02,9.99999e-01,7.03892e-02,9.48391e-01,9.28031e-01
9.479570815e-01,1.77655e-02,9.99999e-01,1.98854e-02,9.49384e-01,9.41022e-01
9.526968669e-01,4.21323e-02,9.99999e-01,4.60076e-02,9.50358e-01,9.63602e-01
9.574603512e-01,4.90916e-02,9.99999e-01,5.25850e-02,9.51315e-01,9.81342e-01
9.622476530e-01,7.88506e-02,9.99999e-01,8.38895e-02,9.52253e-01,9.87061e-01
9.670588912e-01,2.18736e-01,9.99999e-01,2.31535e-01,9.53174e-01,9.91133e-01
9.718941857e-01,3.52067e-01,9.99999e-01,3.71440e-01,9.54077e-01,9.93465e-01
9.767536566e-01,4.16294e-01,9.99999e-01,4.38116e-01,9.54963e-01,9.95002e-01
9.816374249e-01,5.11463e-01,9.99999e-01,5.36025e-01,9.55833e-01,9.98267e-01
9.865456120e-01,6.44958e-01,9.99999e-01,6.74401e-01,9.56686e-01,9.99638e-01
9.914783401e-01,7.49145e-01,9.99999e-01,7.82456e-01,9.57523e-01,9.99899e-01
9.964357318e-01,8.38294e-01,9.99999e-01,8.74782e-01,9.58344e-01,9.99941e-01
1.001417910e+00,8.84994e-01,9.99999e-01,9.22767e-01,9.59150e-01,9.99910e-01
1.006425000e+00,9.16847e-01,9.99999e-01,9.55228e-01,9.59941e-01,9.99872e-01
1.011457125e+00,9.33628e-01,9.99999e-01,9.71918e-01,9.60716e-01,9.99881e-01
1.016514411e+00,9.43002e-01,9.99999e-01,9.80866e-01,9.61477e-01,9.99916e-01
1.021596983e+00,9.47454e-01,9.99999e-01,9.84732e-01,9.62223e-01,9.99915e-01
1.026704968e+00,9.51422e-01,9.99999e-01,9.88077e-01,9.62955e-01,9.99943e-01
1.031838492e+00,9.55283e-01,9.99999e-01,9.91307e-01,9.63674e-01,9.99984e-01
1.036997685e+00,9.59398e-01,9.99999e-01,9.94837e-01,9.64378e-01,9.99997e-01
1.042182673e+00,9.59148e-01,9.99999e-01,9.93864e-01,9.65069e-01,9.99998e-01
1.047393587e+00,9.57885e-01,9.99999e-01,9.91859e-01,9.65747e-01,9.99998e-01
1.052630555e+00,9.55642e-01,9.99999e-01,9.88857e-01,9.66413e-01,9.99996e-01
1.057893707e+00,9.49165e-01,9.99999e-01,9.81496e-01,9.67065e-01,9.99993e-01
1.063183176e+00,9.38402e-01,9.99999e-01,9.69734e-01,9.67705e-01,9.99983e-01
1.068499092e+00,9.19729e-01,9.99999e-01,9.49839e-01,9.68332e-01,9.99964e-01
1.073841587e+00,9.12535e-01,9.99999e-01,9.41850e-01,9.68948e-01,9.99923e-01
1.079210795e+00,8.97377e-01,9.99999e-01,9.25748e-01,9.69552e-01,9.99793e-01
1.084606849e+00,8.63263e-01,9.99999e-01,8.90270e-01,9.70144e-01,9.99503e-01
1.090029883e+00,8.22181e-01,9.99999e-01,8.47846e-01,9.70725e-01,9.98972e-01
1.095480033e+00,6.19012e-01,9.99999e-01,6.38491e-01,9.71295e-01,9.98141e-01
1.100957433e+00,3.22929e-01,9.99999e-01,3.33420e-01,9.71854e-01,9.96582e-01
1.106462220e+00,7.73504e-02,9.99999e-01,8.00088e-02,9.72402e-01,9.94209e-01
1.111994531e+00,5.66132e-03,9.99999e-01,5.90916e-03,9.72940e-01,9.84702e-01
1.117554504e+00,4.51242e-04,9.99999e-01,4.90070e-04,9.73467e-01,9.45865e-01
1.123142276e+00,5.44634e-03,9.99999e-01,6.38074e-03,9.73985e-01,8.76357e-01
1.128757988e+00,1.79138e-02,9.99999e-01,2.14150e-02,9.74492e-01,8.58403e-01
1.134401778e+00,1.01457e-02,9.99999e-01,1.18485e-02,9.74989e-01,8.78248e-01
1.140073787e+00,7.25458e-02,9.99999e-01,8.24980e-02,9.75477e-01,9.01469e-01
1.145774156e+00,1.11708e-02,9.99999e-01,1.25860e-02,9.75956e-01,9.09419e-01
1.151503026e+00,6.26365e-03,9.99999e-01,6.76332e-03,9.76425e-01,9.48480e-01
1.157260541e+00,7.98755e-03,9.99999e-01,8.30688e-03,9.76885e-01,9.84309e-01
1.163046844e+00,2.71654e-02,9.99999e-01,2.79201e-02,9.77336e-01,9.95527e-01
1.168862078e+00,7.02965e-02,9.99999e-01,7.20601e-02,9.77779e-01,9.97693e-01
1.174706389e+00,1.87331e-01,9.99999e-01,1.92090e-01,9.78213e-01,9.96943e-01
1.180579921e+00,3.50123e-01,9.99999e-01,3.59425e-01,9.78639e-01,9.95381e-01
1.186482820e+00,5.39333e-01,9.99999e-01,5.53493e-01,9.79056e-01,9.95260e-01
1.192415234e+00,6.88977e-01,9.99999e-01,7.05927e-01,9.79466e-01,9.96448e-01
1.198377311e+00,7.28819e-01,9.99999e-01,7.46296e-01,9.79867e-01,9.96644e-01
1.204369197e+00,7.42870e-01,9.99999e-01,7.60135e-01,9.80261e-01,9.96963e-01
1.210391043e+00,7.51692e-01,9.99999e-01,7.67945e-01,9.80647e-01,9.98152e-01
1.216442998e+00,7.82499e-01,9.99999e-01,7.98536e-01,9.81026e-01,9.98867e-01
1.222525213e+00,8.22367e-01,9.99999e-01,8.38544e-01,9.81397e-01,9.99296e-01
1.228637839e+00,8.68375e-01,9.99999e-01,8.84796e-01,9.81761e-01,9.99672e-01
1.234781029e+00,8.96660e-01,9.99999e-01,9.13070e-01,9.82118e-01,9.99906e-01
1.240954934e+00,9.27549e-01,9.99999e-01,9.44125e-01,9.82468e-01,9.99973e-01
1.247159708e+00,9.39694e-01,9.99999e-01,9.56144e-01,9.82811e-01,9.99982e-01
1.253395507e+00,9.44794e-01,9.99999e-01,9.61008e-01,9.83148e-01,9.99977e-01
1.259662485e+00,9.47326e-01,9.99999e-01,9.63273e-01,9.83478e-01,9.99964e-01
1.265960797e+00,9.26392e-01,9.99999e-01,9.41698e-01,9.83802e-01,9.99941e-01
1.272290601e+00,9.00830e-01,9.99999e-01,9.15460e-01,9.84119e-01,9.99896e-01
1.278652054e+00,8.17881e-01,9.99999e-01,8.30967e-01,9.84430e-01,9.99817e-01
1.285045314e+00,7.37680e-01,9.99999e-01,7.49369e-01,9.84735e-01,9.99658e-01
1.291470541e+00,5.52864e-01,9.99999e-01,5.61598e-01,9.85035e-01,9.99401e-01
1.297927893e+00,4.69656e-01,9.99999e-01,4.77181e-01,9.85328e-01,9.98883e-01
1.304417533e+00,3.82170e-01,9.99999e-01,3.88666e-01,9.85616e-01,9.97636e-01
1.310939621e+00,3.34930e-01,9.99999e-01,3.41375e-01,9.85898e-01,9.95153e-01
1.317494319e+00,3.05403e-01,9.99999e-01,3.12479e-01,9.86174e-01,9.91054e-01
1.324081790e+00,1.84118e-01,9.99999e-01,1.89406e-01,9.86446e-01,9.85435e-01
1.330702199e+00,2.43050e-02,9.99999e-01,2.52634e-02,9.86712e-01,9.75018e-01
1.337355710e+00,9.97175e-07,9.99999e-01,1.06078e-06,9.86972e-01,9.52447e-01
1.344042489e+00,7.89874e-10,9.99999e-01,9.26555e-10,9.87228e-01,8.63512e-01
1.350762701e+00,4.38259e-33,9.99999e-01,7.33506e-33,9.87479e-01,6.05060e-01
1.357516515e+00,1.81191e-50,9.99999e-01,8.01447e-50,9.87724e-01,2.28889e-01
1.364304097e+00,5.04309e-31,9.99999e-01,6.76487e-30,9.87965e-01,7.54561e-02
1.371125618e+00,1.17095e-18,9.99999e-01,1.35457e-17,9.88202e-01,8.74762e-02
1.377981246e+00,5.32462e-18,9.99999e-01,4.34855e-17,9.88433e-01,1.23878e-01
1.384871152e+00,2.05548e-25,9.99999e-01,1.48646e-24,9.88661e-01,1.39866e-01
1.391795508e+00,3.08527e-31,9.99999e-01,2.00825e-30,9.88883e-01,1.55357e-01
1.398754485e+00,1.09555e-23,9.99999e-01,5.12709e-23,9.89102e-01,2.16033e-01
1.405748258e+00,2.12267e-23,9.99999e-01,5.25511e-23,9.89316e-01,4.08285e-01
1.412776999e+00,1.50301e-22,9.99998e-01,2.28643e-22,9.89526e-01,6.64320e-01
1.419840884e+00,2.73251e-22,9.99998e-01,3.30314e-22,9.89731e-01,8.35829e-01
1.426940089e+00,1.52737e-14,9.99997e-01,1.76810e-14,9.89933e-01,8.72632e-01
1.434074789e+00,5.88823e-13,9.99998e-01,6.98413e-13,9.90131e-01,8.51489e-01
1.441245163e+00,1.08934e-10,9.99998e-01,1.30922e-10,9.90325e-01,8.40181e-01
1.448451389e+00,3.49115e-07,9.99997e-01,4.10511e-07,9.90515e-01,8.58582e-01
1.455693646e+00,4.01613e-05,9.99998e-01,4.56446e-05,9.90702e-01,8.88126e-01
1.462972114e+00,5.55069e-05,9.99999e-01,6.27284e-05,9.90884e-01,8.93016e-01
1.470286975e+00,1.66739e-05,9.99999e-01,1.88035e-05,9.91064e-01,8.94739e-01
