#,Wave/freq,Total,N2,H2O,Rayleigh,CIA
4.000000000e-01,9.10326e-01,9.99999e-01,9.99988e-01,9.10335e-01,9.99999e-01
4.020000000e-01,9.12022e-01,9.99999e-01,9.99992e-01,9.12028e-01,9.99999e-01
4.040100000e-01,9.13686e-01,9.99999e-01,9.99996e-01,9.13688e-01,9.99999e-01
4.060300500e-01,9.15318e-01,9.99999e-01,9.99998e-01,9.15319e-01,9.99999e-01
4.080602003e-01,9.16920e-01,9.99999e-01,9.99999e-01,9.16920e-01,9.99999e-01
4.101005013e-01,9.18492e-01,9.99999e-01,9.99999e-01,9.18492e-01,9.99999e-01
4.121510038e-01,9.20035e-01,9.99999e-01,9.99999e-01,9.20036e-01,9.99999e-01
4.142117588e-01,9.21549e-01,9.99999e-01,9.99996e-01,9.21552e-01,9.99999e-01
4.162828176e-01,9.23028e-01,9.99999e-01,9.99986e-01,9.23040e-01,9.99999e-01
4.183642317e-01,9.24494e-01,9.99999e-01,9.99991e-01,9.24501e-01,9.99999e-01
4.204560528e-01,9.25931e-01,9.99999e-01,9.99994e-01,9.25936e-01,9.99999e-01
4.225583331e-01,9.27343e-01,9.99999e-01,9.99997e-01,9.27344e-01,9.99999e-01
4.246711247e-01,9.28726e-01,9.99999e-01,9.99998e-01,9.28727e-01,9.99999e-01
4.267944804e-01,9.30082e-01,9.99999e-01,9.99997e-01,9.30084e-01,9.99999e-01
4.289284528e-01,9.31415e-01,9.99999e-01,9.99997e-01,9.31417e-01,9.99999e-01
4.310730950e-01,9.32724e-01,9.99999e-01,9.99998e-01,9.32725e-01,9.99999e-01
4.332284605e-01,9.34009e-01,9.99999e-01,9.99999e-01,9.34009e-01,9.99999e-01
4.353946028e-01,9.35269e-01,9.99999e-01,9.99999e-01,9.35269e-01,9.99999e-01
4.375715758e-01,9.36505e-01,9.99999e-01,9.99998e-01,9.36506e-01,9.99999e-01
4.397594337e-01,9.37710e-01,9.99999e-01,9.99987e-01,9.37720e-01,9.99999e-01
4.419582309e-01,9.38857e-01,9.99999e-01,9.99940e-01,9.38912e-01,9.99999e-01
4.441680220e-01,9.40039e-01,9.99999e-01,9.99953e-01,9.40082e-01,9.99999e-01
4.463888621e-01,9.41185e-01,9.99999e-01,9.99951e-01,9.41230e-01,9.99999e-01
4.486208064e-01,9.42329e-01,9.99999e-01,9.99970e-01,9.42357e-01,9.99999e-01
4.508639105e-01,9.43449e-01,9.99999e-01,9.99985e-01,9.43462e-01,9.99999e-01
4.531182300e-01,9.44542e-01,9.99999e-01,9.99994e-01,9.44548e-01,9.99999e-01
4.553838212e-01,9.45609e-01,9.99999e-01,9.99995e-01,9.45613e-01,9.99999e-01
4.576607403e-01,9.46656e-01,9.99999e-01,9.99997e-01,9.46658e-01,9.99999e-01
4.599490440e-01,9.47682e-01,9.99999e-01,9.99998e-01,9.47683e-01,9.99999e-01
4.622487892e-01,9.48689e-01,9.99999e-01,9.99999e-01,9.48690e-01,9.99999e-01
4.645600332e-01,9.49676e-01,9.99999e-01,9.99998e-01,9.49677e-01,9.99999e-01
4.668828333e-01,9.50633e-01,9.99999e-01,9.99985e-01,9.50646e-01,9.99999e-01
4.692172475e-01,9.51569e-01,9.99999e-01,9.99969e-01,9.51597e-01,9.99999e-01
4.715633337e-01,9.52511e-01,9.99999e-01,9.99980e-01,9.52530e-01,9.99999e-01
4.739211504e-01,9.53428e-01,9.99999e-01,9.99980e-01,9.53445e-01,9.99999e-01
4.762907561e-01,9.54335e-01,9.99999e-01,9.99989e-01,9.54344e-01,9.99999e-01
4.786722099e-01,9.55221e-01,9.99999e-01,9.99995e-01,9.55225e-01,9.99999e-01
4.810655710e-01,9.56089e-01,9.99999e-01,9.99998e-01,9.56090e-01,9.99999e-01
4.834708988e-01,9.56927e-01,9.99999e-01,9.99987e-01,9.56938e-01,9.99999e-01
4.858882533e-01,9.57750e-01,9.99999e-01,9.99978e-01,9.57770e-01,9.99999e-01
4.883176946e-01,9.58570e-01,9.99999e-01,9.99981e-01,9.58587e-01,9.99999e-01
4.907592831e-01,9.59373e-01,9.99999e-01,9.99983e-01,9.59388e-01,9.99999e-01
4.932130795e-01,9.60163e-01,9.99999e-01,9.99988e-01,9.60174e-01,9.99999e-01
4.956791449e-01,9.60939e-01,9.99999e-01,9.99993e-01,9.60945e-01,9.99999e-01
4.981575406e-01,9.61673e-01,9.99999e-01,9.99969e-01,9.61702e-01,9.99999e-01
5.006483283e-01,9.62368e-01,9.99999e-01,9.99921e-01,9.62444e-01,9.99998e-01
5.031515699e-01,9.62788e-01,9.99999e-01,9.99604e-01,9.63172e-01,9.99995e-01
5.056673278e-01,9.63681e-01,9.99999e-01,9.99791e-01,9.63886e-01,9.99994e-01
5.081956644e-01,9.64331e-01,9.99999e-01,9.99737e-01,9.64586e-01,9.99996e-01
5.107366428e-01,9.65102e-01,9.99999e-01,9.99822e-01,9.65274e-01,9.99999e-01
5.132903260e-01,9.65850e-01,9.99999e-01,9.99898e-01,9.65948e-01,9.99999e-01
5.158567776e-01,9.66568e-01,9.99999e-01,9.99956e-01,9.66609e-01,9.99999e-01
5.184360615e-01,9.67241e-01,9.99999e-01,9.99982e-01,9.67258e-01,9.99999e-01
5.210282418e-01,9.67888e-01,9.99999e-01,9.99993e-01,9.67894e-01,9.99999e-01
5.236333830e-01,9.68493e-01,9.99999e-01,9.99973e-01,9.68518e-01,9.99999e-01
5.262515499e-01,9.69114e-01,9.99999e-01,9.99983e-01,9.69130e-01,9.99999e-01
5.288828077e-01,9.69716e-01,9.99999e-01,9.99984e-01,9.69730e-01,9.99999e-01
5.315272217e-01,9.70307e-01,9.99999e-01,9.99986e-01,9.70319e-01,9.99999e-01
5.341848578e-01,9.70889e-01,9.99999e-01,9.99991e-01,9.70897e-01,9.99999e-01
5.368557821e-01,9.71434e-01,9.99999e-01,9.99969e-01,9.71463e-01,9.99999e-01
5.395400610e-01,9.71913e-01,9.99999e-01,9.99890e-01,9.72019e-01,9.99998e-01
5.422377613e-01,9.72426e-01,9.99999e-01,9.99860e-01,9.72564e-01,9.99996e-01
5.449489501e-01,9.72970e-01,9.99999e-01,9.99869e-01,9.73099e-01,9.99996e-01
5.476736949e-01,9.73510e-01,9.99999e-01,9.99884e-01,9.73623e-01,9.99998e-01
5.504120634e-01,9.74056e-01,9.99999e-01,9.99916e-01,9.74137e-01,9.99999e-01
5.531641237e-01,9.74601e-01,9.99999e-01,9.99957e-01,9.74642e-01,9.99999e-01
5.559299443e-01,9.75116e-01,9.99999e-01,9.99979e-01,9.75136e-01,9.99999e-01
5.587095940e-01,9.75609e-01,9.99999e-01,9.99986e-01,9.75621e-01,9.99999e-01
5.615031420e-01,9.76083e-01,9.99999e-01,9.99985e-01,9.76097e-01,9.99999e-01
5.643106577e-01,9.76548e-01,9.99999e-01,9.99983e-01,9.76563e-01,9.99999e-01
5.671322110e-01,9.76827e-01,9.99999e-01,9.99802e-01,9.77021e-01,9.99997e-01
5.699678720e-01,9.77263e-01,9.99999e-01,9.99793e-01,9.77470e-01,9.99994e-01
5.728177114e-01,9.77694e-01,9.99999e-01,9.99783e-01,9.77910e-01,9.99995e-01
5.756818000e-01,9.78145e-01,9.99999e-01,9.99801e-01,9.78341e-01,9.99996e-01
5.785602090e-01,9.78595e-01,9.99999e-01,9.99827e-01,9.78765e-01,9.99998e-01
5.814530100e-01,9.79009e-01,9.99999e-01,9.99826e-01,9.79180e-01,9.99999e-01
5.843602750e-01,9.79382e-01,9.99999e-01,9.99792e-01,9.79587e-01,9.99998e-01
5.872820764e-01,9.78220e-01,9.99999e-01,9.98210e-01,9.79986e-01,9.99986e-01
5.902184868e-01,9.78229e-01,9.99999e-01,9.97842e-01,9.80377e-01,9.99965e-01
5.931695792e-01,9.79231e-01,9.99999e-01,9.98472e-01,9.80761e-01,9.99966e-01
5.961354271e-01,9.79479e-01,9.99999e-01,9.98327e-01,9.81137e-01,9.99980e-01
5.991161043e-01,9.80305e-01,9.99999e-01,9.98781e-01,9.81506e-01,9.99993e-01
6.021116848e-01,9.81189e-01,9.99999e-01,9.99308e-01,9.81868e-01,9.99998e-01
6.051222432e-01,9.81880e-01,9.99999e-01,9.99650e-01,9.82223e-01,9.99999e-01
6.081478544e-01,9.82423e-01,9.99999e-01,9.99848e-01,9.82571e-01,9.99999e-01
6.111885937e-01,9.82850e-01,9.99999e-01,9.99935e-01,9.82913e-01,9.99999e-01
6.142445367e-01,9.83219e-01,9.99999e-01,9.99971e-01,9.83247e-01,9.99999e-01
6.173157594e-01,9.83560e-01,9.99999e-01,9.99983e-01,9.83575e-01,9.99999e-01
6.204023382e-01,9.83884e-01,9.99999e-01,9.99986e-01,9.83897e-01,9.99999e-01
6.235043498e-01,9.84154e-01,9.99999e-01,9.99940e-01,9.84213e-01,9.99999e-01
6.266218716e-01,9.84214e-01,9.99999e-01,9.99688e-01,9.84522e-01,9.99997e-01
6.297549810e-01,9.84709e-01,9.99999e-01,9.99885e-01,9.84826e-01,9.99995e-01
6.329037559e-01,9.84898e-01,9.99999e-01,9.99774e-01,9.85123e-01,9.99996e-01
6.360682746e-01,9.85224e-01,9.99999e-01,9.99807e-01,9.85415e-01,9.99997e-01
6.392486160e-01,9.85455e-01,9.99999e-01,9.99751e-01,9.85701e-01,9.99998e-01
6.424448591e-01,9.85650e-01,9.99999e-01,9.99665e-01,9.85981e-01,9.99997e-01
6.456570834e-01,9.84718e-01,9.99999e-01,9.98449e-01,9.86256e-01,9.99990e-01
6.488853688e-01,9.85388e-01,9.99999e-01,9.98870e-01,9.86526e-01,9.99975e-01
6.521297956e-01,9.85635e-01,9.99999e-01,9.98848e-01,9.86790e-01,9.99979e-01
6.553904446e-01,9.85902e-01,9.99999e-01,9.98851e-01,9.87049e-01,9.99984e-01
6.586673968e-01,9.86330e-01,9.99999e-01,9.99018e-01,9.87303e-01,9.99994e-01
6.619607338e-01,9.87012e-01,9.99999e-01,9.99452e-01,9.87553e-01,9.99998e-01
6.652705375e-01,9.87473e-01,9.99999e-01,9.99671e-01,9.87797e-01,9.99998e-01
6.685968902e-01,9.87899e-01,9.99999e-01,9.99860e-01,9.88037e-01,9.99999e-01
6.719398746e-01,9.88202e-01,9.99999e-01,9.99929e-01,9.88271e-01,9.99999e-01
6.752995740e-01,9.88464e-01,9.99999e-01,9.99961e-01,9.88502e-01,9.99999e-01
6.786760719e-01,9.88673e-01,9.99999e-01,9.99944e-01,9.88728e-01,9.99999e-01
6.820694522e-01,9.88855e-01,9.99999e-01,9.99904e-01,9.88949e-01,9.99999e-01
6.854797995e-01,9.89044e-01,9.99999e-01,9.99877e-01,9.89166e-01,9.99998e-01
6.889071985e-01,9.89081e-01,9.99999e-01,9.99701e-01,9.89379e-01,9.99996e-01
6.923517345e-01,9.84768e-01,9.99999e-01,9.95152e-01,9.89588e-01,9.99976e-01
6.958134932e-01,9.87270e-01,9.99999e-01,9.97502e-01,9.89792e-01,9.99948e-01
6.992925606e-01,9.87576e-01,9.99999e-01,9.97604e-01,9.89993e-01,9.99953e-01
7.027890234e-01,9.87238e-01,9.99999e-01,9.97054e-01,9.90189e-01,9.99964e-01
7.063029686e-01,9.87912e-01,9.99999e-01,9.97522e-01,9.90382e-01,9.99981e-01
7.098344834e-01,9.88207e-01,9.99999e-01,9.97623e-01,9.90571e-01,9.99989e-01
7.133836558e-01,9.87578e-01,9.99999e-01,9.96812e-01,9.90757e-01,9.99978e-01
7.169505741e-01,9.65604e-01,9.99999e-01,9.74591e-01,9.90938e-01,9.99837e-01
7.205353270e-01,9.78561e-01,9.99999e-01,9.87614e-01,9.91117e-01,9.99713e-01
7.241380036e-01,9.75371e-01,9.99999e-01,9.84182e-01,9.91291e-01,9.99752e-01
7.277586936e-01,9.77109e-01,9.99999e-01,9.85721e-01,9.91463e-01,9.99797e-01
7.313974871e-01,9.76551e-01,9.99999e-01,9.84886e-01,9.91630e-01,9.99904e-01
7.350544745e-01,9.83549e-01,9.99999e-01,9.91717e-01,9.91795e-01,9.99966e-01
7.387297469e-01,9.85897e-01,9.99999e-01,9.93906e-01,9.91956e-01,9.99984e-01
7.424233956e-01,9.89155e-01,9.99999e-01,9.97018e-01,9.92115e-01,9.99996e-01
7.461355126e-01,9.90475e-01,9.99999e-01,9.98191e-01,9.92270e-01,9.99999e-01
7.498661902e-01,9.91588e-01,9.99999e-01,9.99158e-01,9.92422e-01,9.99999e-01
7.536155211e-01,9.92161e-01,9.99999e-01,9.99586e-01,9.92571e-01,9.99999e-01
7.573835987e-01,9.92506e-01,9.99999e-01,9.99787e-01,9.92717e-01,9.99999e-01
7.611705167e-01,9.92729e-01,9.99999e-01,9.99867e-01,9.92861e-01,9.99999e-01
7.649763693e-01,9.92919e-01,9.99999e-01,9.99916e-01,9.93001e-01,9.99999e-01
7.688012511e-01,9.93082e-01,9.99999e-01,9.99941e-01,9.93139e-01,9.99999e-01
7.726452574e-01,9.93227e-01,9.99999e-01,9.99952e-01,9.93274e-01,9.99999e-01
7.765084837e-01,9.93339e-01,9.99999e-01,9.99931e-01,9.93406e-01,9.99999e-01
7.803910261e-01,9.93245e-01,9.99999e-01,9.99706e-01,9.93536e-01,9.99999e-01
7.842929812e-01,9.92645e-01,9.99999e-01,9.98976e-01,9.93663e-01,9.99997e-01
7.882144461e-01,9.91688e-01,9.99999e-01,9.97900e-01,9.93788e-01,9.99985e-01
7.921555184e-01,9.92744e-01,9.99999e-01,9.98851e-01,9.93910e-01,9.99974e-01
7.961162960e-01,9.91978e-01,9.99999e-01,9.97958e-01,9.94030e-01,9.99975e-01
8.000968774e-01,9.91787e-01,9.99999e-01,9.97649e-01,9.94148e-01,9.99974e-01
8.040973618e-01,9.91905e-01,9.99999e-01,9.97647e-01,9.94263e-01,9.99980e-01
8.081178486e-01,9.89069e-01,9.99999e-01,9.94682e-01,9.94376e-01,9.99979e-01
8.121584379e-01,9.72515e-01,9.99999e-01,9.77978e-01,9.94487e-01,9.99925e-01
8.162192301e-01,9.68475e-01,9.99999e-01,9.74007e-01,9.94595e-01,9.99721e-01
8.203003262e-01,9.81242e-01,9.99999e-01,9.86789e-01,9.94702e-01,9.99673e-01
8.244018279e-01,9.76409e-01,9.99999e-01,9.81761e-01,9.94806e-01,9.99740e-01
8.285238370e-01,9.79179e-01,9.99999e-01,9.84390e-01,9.94909e-01,9.99795e-01
8.326664562e-01,9.79250e-01,9.99999e-01,9.84244e-01,9.95009e-01,9.99915e-01
8.368297885e-01,9.83896e-01,9.99999e-01,9.88751e-01,9.95107e-01,9.99980e-01
8.410139374e-01,9.88534e-01,9.99999e-01,9.93308e-01,9.95204e-01,9.99988e-01
8.452190071e-01,9.92025e-01,9.99999e-01,9.96717e-01,9.95298e-01,9.99992e-01
8.494451021e-01,9.93486e-01,9.99999e-01,9.98091e-01,9.95391e-01,9.99994e-01
8.536923276e-01,9.94357e-01,9.99999e-01,9.98873e-01,9.95481e-01,9.99996e-01
8.579607893e-01,9.94878e-01,9.99999e-01,9.99304e-01,9.95571e-01,9.99998e-01
8.622505932e-01,9.95219e-01,9.99999e-01,9.99558e-01,9.95658e-01,9.99999e-01
8.665618462e-01,9.95471e-01,9.99999e-01,9.99726e-01,9.95743e-01,9.99999e-01
8.708946554e-01,9.95515e-01,9.99999e-01,9.99686e-01,9.95827e-01,9.99999e-01
8.752491287e-01,9.95492e-01,9.99999e-01,9.99580e-01,9.95909e-01,9.99999e-01
8.796253743e-01,9.95411e-01,9.99999e-01,9.99418e-01,9.95990e-01,9.99998e-01
8.840235012e-01,9.95405e-01,9.99999e-01,9.99336e-01,9.96069e-01,9.99995e-01
8.884436187e-01,9.93703e-01,9.99999e-01,9.97557e-01,9.96147e-01,9.99988e-01
8.928858368e-01,9.70865e-01,9.99999e-01,9.74610e-01,9.96223e-01,9.99933e-01
8.973502660e-01,9.51781e-01,9.99999e-01,9.55641e-01,9.96297e-01,9.99660e-01
9.018370173e-01,9.73117e-01,9.99999e-01,9.77181e-01,9.96370e-01,9.99466e-01
9.063462024e-01,9.75825e-01,9.99999e-01,9.79767e-01,9.96442e-01,9.99531e-01
9.108779334e-01,9.64843e-01,9.99999e-01,9.68690e-01,9.96512e-01,9.99513e-01
9.154323231e-01,9.60891e-01,9.99999e-01,9.64575e-01,9.96580e-01,9.99597e-01
9.200094847e-01,9.68682e-01,9.99999e-01,9.72158e-01,9.96648e-01,9.99774e-01
9.246095321e-01,9.52535e-01,9.99999e-01,9.55923e-01,9.96714e-01,9.99740e-01
9.292325798e-01,7.35884e-01,9.99999e-01,7.39008e-01,9.96779e-01,9.98989e-01
9.338787427e-01,6.72191e-01,9.99999e-01,6.77144e-01,9.96842e-01,9.95829e-01
9.385481364e-01,8.48194e-01,9.99999e-01,8.55066e-01,9.96905e-01,9.95041e-01
9.432408771e-01,7.95515e-01,9.99999e-01,8.01364e-01,9.96966e-01,9.95720e-01
9.479570815e-01,7.29493e-01,9.99999e-01,7.34227e-01,9.97025e-01,9.96515e-01
9.526968669e-01,7.92428e-01,9.99999e-01,7.96439e-01,9.97084e-01,9.97873e-01
9.574603512e-01,8.10654e-01,9.99999e-01,8.13856e-01,9.97142e-01,9.98918e-01
9.622476530e-01,8.43470e-01,9.99999e-01,8.46472e-01,9.97198e-01,9.99252e-01
9.670588912e-01,9.05566e-01,9.99999e-01,9.08524e-01,9.97253e-01,9.99488e-01
9.718941857e-01,9.39153e-01,9.99999e-01,9.42043e-01,9.97307e-01,9.99623e-01
9.767536566e-01,9.48875e-01,9.99999e-01,9.51659e-01,9.97360e-01,9.99711e-01
9.816374249e-01,9.61443e-01,9.99999e-01,9.64032e-01,9.97412e-01,9.99899e-01
9.865456120e-01,9.74898e-01,9.99999e-01,9.77397e-01,9.97463e-01,9.99978e-01
9.914783401e-01,9.83517e-01,9.99999e-01,9.85974e-01,9.97513e-01,9.99993e-01
9.964357318e-01,9.89919e-01,9.99999e-01,9.92340e-01,9.97563e-01,9.99996e-01
1.001417910e+00,9.93022e-01,9.99999e-01,9.95404e-01,9.97611e-01,9.99994e-01
1.006425000e+00,9.95033e-01,9.99999e-01,9.97375e-01,9.97658e-01,9.99992e-01
1.011457125e+00,9.96074e-01,9.99999e-01,9.98372e-01,9.97704e-01,9.99992e-01
1.016514411e+00,9.96642e-01,9.99999e-01,9.98894e-01,9.97749e-01,9.99994e-01
1.021596983e+00,9.96910e-01,9.99999e-01,9.99118e-01,9.97794e-01,9.99994e-01
1.026704968e+00,9.97148e-01,9.99999e-01,9.99312e-01,9.97837e-01,9.99996e-01
1.031838492e+00,9.97381e-01,9.99999e-01,9.99500e-01,9.97880e-01,9.99998e-01
1.036997685e+00,9.97625e-01,9.99999e-01,9.99702e-01,9.97922e-01,9.99999e-01
1.042182673e+00,9.97609e-01,9.99999e-01,9.99645e-01,9.97963e-01,9.99999e-01
1.047393587e+00,9.97534e-01,9.99999e-01,9.99530e-01,9.98003e-01,9.99999e-01
1.052630555e+00,9.97399e-01,9.99999e-01,9.99354e-01,9.98042e-01,9.99999e-01
1.057893707e+00,9.97005e-01,9.99999e-01,9.98922e-01,9.98081e-01,9.99999e-01
1.063183176e+00,9.96349e-01,9.99999e-01,9.98227e-01,9.98119e-01,9.99998e-01
1.068499092e+00,9.95195e-01,9.99999e-01,9.97035e-01,9.98156e-01,9.99997e-01
1.073841587e+00,9.94721e-01,9.99999e-01,9.96526e-01,9.98192e-01,9.99995e-01
1.079210795e+00,9.93783e-01,9.99999e-01,9.95558e-01,9.98228e-01,9.99987e-01
1.084606849e+00,9.91521e-01,9.99999e-01,9.93274e-01,9.98263e-01,9.99971e-01
1.090029883e+00,9.88575e-01,9.99999e-01,9.90319e-01,9.98297e-01,9.99940e-01
1.095480033e+00,9.72128e-01,9.99999e-01,9.73856e-01,9.98331e-01,9.99892e-01
1.100957433e+00,9.33047e-01,9.99999e-01,9.34759e-01,9.98364e-01,9.99803e-01
1.106462220e+00,8.39660e-01,9.99999e-01,8.41289e-01,9.98396e-01,9.99666e-01
1.111994531e+00,6.92982e-01,9.99999e-01,6.94687e-01,9.98427e-01,9.99114e-01
1.117554504e+00,5.50603e-01,9.99999e-01,5.53218e-01,9.98458e-01,9.96809e-01
1.123142276e+00,6.37444e-01,9.99999e-01,6.43264e-01,9.98489e-01,9.92451e-01
1.128757988e+00,7.48233e-01,9.99999e-01,7.55939e-01,9.98519e-01,9.91272e-01
1.134401778e+00,5.12913e-01,9.99999e-01,5.17501e-01,9.98548e-01,9.92574e-01
1.140073787e+00,8.41538e-01,9.99999e-01,8.47770e-01,9.98577e-01,9.94062e-01
1.145774156e+00,7.01867e-01,9.99999e-01,7.06688e-01,9.98605e-01,9.94563e-01
1.151503026e+00,6.74691e-01,9.99999e-01,6.77669e-01,9.98632e-01,9.96967e-01
1.157260541e+00,7.24891e-01,9.99999e-01,7.26523e-01,9.98659e-01,9.99092e-01
1.163046844e+00,7.89110e-01,9.99999e-01,7.90351e-01,9.98686e-01,9.99742e-01
1.168862078e+00,8.48761e-01,9.99999e-01,8.49968e-01,9.98711e-01,9.99866e-01
1.174706389e+00,9.03270e-01,9.99999e-01,9.04570e-01,9.98737e-01,9.99823e-01
1.180579921e+00,9.39410e-01,9.99999e-01,9.40823e-01,9.98762e-01,9.99733e-01
1.186482820e+00,9.64717e-01,9.99999e-01,9.66152e-01,9.98786e-01,9.99726e-01
1.192415234e+00,9.78747e-01,9.99999e-01,9.80112e-01,9.98810e-01,9.99795e-01
1.198377311e+00,9.81861e-01,9.99999e-01,9.83196e-01,9.98834e-01,9.99806e-01
1.204369197e+00,9.82793e-01,9.99999e-01,9.84089e-01,9.98857e-01,9.99824e-01
1.210391043e+00,9.83580e-01,9.99999e-01,9.84787e-01,9.98879e-01,9.99893e-01
1.216442998e+00,9.85910e-01,9.99999e-01,9.87058e-01,9.98901e-01,9.99934e-01
1.222525213e+00,9.88805e-01,9.99999e-01,9.89910e-01,9.98923e-01,9.99959e-01
1.228637839e+00,9.91917e-01,9.99999e-01,9.92983e-01,9.98944e-01,9.99980e-01
1.234781029e+00,9.93754e-01,9.99999e-01,9.94788e-01,9.98965e-01,9.99994e-01
1.240954934e+00,9.95689e-01,9.99999e-01,9.96700e-01,9.98985e-01,9.99997e-01
1.247159708e+00,9.96439e-01,9.99999e-01,9.97431e-01,9.99005e-01,9.99998e-01
1.253395507e+00,9.96745e-01,9.99999e-01,9.97717e-01,9.99025e-01,9.99998e-01
1.259662485e+00,9.96875e-01,9.99999e-01,9.97829e-01,9.99044e-01,9.99997e-01
1.265960797e+00,9.95601e-01,9.99999e-01,9.96537e-01,9.99063e-01,9.99996e-01
1.272290601e+00,9.93636e-01,9.99999e-01,9.94555e-01,9.99082e-01,9.99993e-01
1.278652054e+00,9.88295e-01,9.99999e-01,9.89195e-01,9.99100e-01,9.99989e-01
1.285045314e+00,9.79573e-01,9.99999e-01,9.80457e-01,9.99118e-01,9.99979e-01
1.291470541e+00,9.65311e-01,9.99999e-01,9.66179e-01,9.99135e-01,9.99965e-01
1.297927893e+00,9.51308e-01,9.99999e-01,9.52175e-01,9.99152e-01,9.99935e-01
1.304417533e+00,9.42946e-01,9.99999e-01,9.43858e-01,9.99169e-01,9.99863e-01
1.310939621e+00,9.34758e-01,9.99999e-01,9.35780e-01,9.99185e-01,9.99720e-01
1.317494319e+00,9.29575e-01,9.99999e-01,9.30798e-01,9.99201e-01,9.99483e-01
1.324081790e+00,8.96319e-01,9.99999e-01,8.97777e-01,9.99217e-01,9.99157e-01
1.330702199e+00,6.26816e-01,9.99999e-01,6.28209e-01,9.99232e-01,9.98548e-01
1.337355710e+00,3.18575e-01,9.99999e-01,3.19707e-01,9.99247e-01,9.97206e-01
1.344042489e+00,4.60543e-02,9.99999e-01,4.64781e-02,9.99262e-01,9.91610e-01
1.350762701e+00,2.33685e-03,9.99999e-01,2.40697e-03,9.99277e-01,9.71568e-01
1.357516515e+00,2.97763e-04,9.99999e-01,3.24296e-04,9.99291e-01,9.18834e-01
1.364304097e+00,3.86549e-03,9.99999e-01,4.48678e-03,9.99305e-01,8.62125e-01
1.371125618e+00,2.32546e-02,9.99999e-01,2.67639e-02,9.99319e-01,8.69472e-01
1.377981246e+00,4.01407e-02,9.99999e-01,4.52839e-02,9.99332e-01,8.87014e-01
1.384871152e+00,3.39573e-03,9.99999e-01,3.79958e-03,9.99345e-01,8.94294e-01
1.391795508e+00,5.49454e-03,9.99999e-01,6.11588e-03,9.99358e-01,8.98980e-01
1.398754485e+00,1.13281e-02,9.99999e-01,1.23775e-02,9.99371e-01,9.15790e-01
1.405748258e+00,1.08422e-02,9.99999e-01,1.14213e-02,9.99383e-01,9.49874e-01
1.412776999e+00,1.26983e-02,9.99999e-01,1.30079e-02,9.99396e-01,9.76793e-01
1.419840884e+00,1.66947e-02,9.99999e-01,1.68774e-02,9.99407e-01,9.89757e-01
1.426940089e+00,4.13998e-02,9.99999e-01,4.17491e-02,9.99419e-01,9.92208e-01
1.434074789e+00,8.66721e-02,9.99999e-01,8.75255e-02,9.99431e-01,9.90812e-01
1.441245163e+00,1.61714e-01,9.99999e-01,1.63430e-01,9.99442e-01,9.90052e-01
1.448451389e+00,2.70011e-01,9.99999e-01,2.72534e-01,9.99453e-01,9.91284e-01
1.455693646e+00,4.29775e-01,9.99999e-01,4.32944e-01,9.99464e-01,9.93211e-01
1.462972114e+00,4.85146e-01,9.99999e-01,4.88564e-01,9.99474e-01,9.93524e-01
1.470286975e+00,4.29439e-01,9.99999e-01,4.32412e-01,9.99485e-01,9.93634e-01
