#,Wave/freq,Total,N2,H2O,Rayleigh,CIA
4.000000000e-01,7.81327e-01,9.99999e-01,9.99971e-01,7.81349e-01,9.99999e-01
4.020000000e-01,7.85157e-01,9.99999e-01,9.99982e-01,7.85170e-01,9.99999e-01
4.040100000e-01,7.88924e-01,9.99999e-01,9.99992e-01,7.88930e-01,9.99999e-01
4.060300500e-01,7.92632e-01,9.99999e-01,9.99997e-01,7.92633e-01,9.99999e-01
4.080602003e-01,7.96280e-01,9.99999e-01,9.99998e-01,7.96280e-01,9.99999e-01
4.101005013e-01,7.99871e-01,9.99999e-01,9.99999e-01,7.99871e-01,9.99999e-01
4.121510038e-01,8.03406e-01,9.99999e-01,9.99998e-01,8.03407e-01,9.99999e-01
4.142117588e-01,8.06882e-01,9.99999e-01,9.99991e-01,8.06888e-01,9.99999e-01
4.162828176e-01,8.10287e-01,9.99999e-01,9.99965e-01,8.10315e-01,9.99999e-01
4.183642317e-01,8.13672e-01,9.99999e-01,9.99979e-01,8.13689e-01,9.99999e-01
4.204560528e-01,8.16999e-01,9.99999e-01,9.99987e-01,8.17009e-01,9.99999e-01
4.225583331e-01,8.20273e-01,9.99999e-01,9.99994e-01,8.20277e-01,9.99999e-01
4.246711247e-01,8.23490e-01,9.99999e-01,9.99995e-01,8.23493e-01,9.99999e-01
4.267944804e-01,8.26654e-01,9.99999e-01,9.99994e-01,8.26658e-01,9.99999e-01
4.289284528e-01,8.29769e-01,9.99999e-01,9.99995e-01,8.29773e-01,9.99999e-01
4.310730950e-01,8.32835e-01,9.99999e-01,9.99997e-01,8.32837e-01,9.99999e-01
4.332284605e-01,8.35851e-01,9.99999e-01,9.99999e-01,8.35851e-01,9.99999e-01
4.353946028e-01,8.38817e-01,9.99999e-01,9.99999e-01,8.38817e-01,9.99999e-01
4.375715758e-01,8.41731e-01,9.99999e-01,9.99995e-01,8.41734e-01,9.99999e-01
4.397594337e-01,8.44577e-01,9.99999e-01,9.99968e-01,8.44603e-01,9.99999e-01
4.419582309e-01,8.47293e-01,9.99999e-01,9.99842e-01,8.47426e-01,9.99999e-01
4.441680220e-01,8.50100e-01,9.99999e-01,9.99880e-01,8.50201e-01,9.99999e-01
4.463888621e-01,8.52824e-01,9.99999e-01,9.99874e-01,8.52931e-01,9.99999e-01
4.486208064e-01,8.55549e-01,9.99999e-01,9.99922e-01,8.55615e-01,9.99999e-01
4.508639105e-01,8.58224e-01,9.99999e-01,9.99963e-01,8.58255e-01,9.99999e-01
4.531182300e-01,8.60838e-01,9.99999e-01,9.99985e-01,8.60850e-01,9.99999e-01
4.553838212e-01,8.63393e-01,9.99999e-01,9.99989e-01,8.63401e-01,9.99999e-01
4.576607403e-01,8.65906e-01,9.99999e-01,9.99995e-01,8.65910e-01,9.99999e-01
4.599490440e-01,8.68373e-01,9.99999e-01,9.99996e-01,8.68376e-01,9.99999e-01
4.622487892e-01,8.70799e-01,9.99999e-01,9.99998e-01,8.70800e-01,9.99999e-01
4.645600332e-01,8.73181e-01,9.99999e-01,9.99997e-01,8.73183e-01,9.99999e-01
4.668828333e-01,8.75492e-01,9.99999e-01,9.99962e-01,8.75525e-01,9.99999e-01
4.692172475e-01,8.77758e-01,9.99999e-01,9.99921e-01,8.77827e-01,9.99999e-01
4.715633337e-01,8.80044e-01,9.99999e-01,9.99948e-01,8.80089e-01,9.99999e-01
4.739211504e-01,8.82269e-01,9.99999e-01,9.99950e-01,8.82312e-01,9.99999e-01
4.762907561e-01,8.84475e-01,9.99999e-01,9.99974e-01,8.84497e-01,9.99999e-01
4.786722099e-01,8.86635e-01,9.99999e-01,9.99989e-01,8.86644e-01,9.99999e-01
4.810655710e-01,8.88751e-01,9.99999e-01,9.99996e-01,8.88754e-01,9.99999e-01
4.834708988e-01,8.90799e-01,9.99999e-01,9.99968e-01,8.90826e-01,9.99999e-01
4.858882533e-01,8.92814e-01,9.99999e-01,9.99944e-01,8.92863e-01,9.99999e-01
4.883176946e-01,8.94822e-01,9.99999e-01,9.99952e-01,8.94864e-01,9.99999e-01
4.907592831e-01,8.96792e-01,9.99999e-01,9.99957e-01,8.96829e-01,9.99999e-01
4.932130795e-01,8.98734e-01,9.99999e-01,9.99969e-01,8.98760e-01,9.99999e-01
4.956791449e-01,9.00643e-01,9.99999e-01,9.99983e-01,9.00657e-01,9.99999e-01
4.981575406e-01,9.02449e-01,9.99999e-01,9.99920e-01,9.02520e-01,9.99999e-01
5.006483283e-01,9.04162e-01,9.99999e-01,9.99792e-01,9.04351e-01,9.99998e-01
5.031515699e-01,9.05198e-01,9.99999e-01,9.98961e-01,9.06148e-01,9.99988e-01
5.056673278e-01,9.07408e-01,9.99999e-01,9.99454e-01,9.07914e-01,9.99987e-01
5.081956644e-01,9.09016e-01,9.99999e-01,9.99312e-01,9.09648e-01,9.99991e-01
5.107366428e-01,9.10928e-01,9.99999e-01,9.99535e-01,9.11351e-01,9.99998e-01
5.132903260e-01,9.12782e-01,9.99999e-01,9.99735e-01,9.13024e-01,9.99999e-01
5.158567776e-01,9.14564e-01,9.99999e-01,9.99888e-01,9.14666e-01,9.99999e-01
5.184360615e-01,9.16238e-01,9.99999e-01,9.99954e-01,9.16279e-01,9.99999e-01
5.210282418e-01,9.17848e-01,9.99999e-01,9.99982e-01,9.17863e-01,9.99999e-01
5.236333830e-01,9.19356e-01,9.99999e-01,9.99932e-01,9.19418e-01,9.99999e-01
5.262515499e-01,9.20906e-01,9.99999e-01,9.99957e-01,9.20945e-01,9.99998e-01
5.288828077e-01,9.22408e-01,9.99999e-01,9.99960e-01,9.22444e-01,9.99999e-01
5.315272217e-01,9.23885e-01,9.99999e-01,9.99965e-01,9.23917e-01,9.99999e-01
5.341848578e-01,9.25341e-01,9.99999e-01,9.99977e-01,9.25362e-01,9.99999e-01
5.368557821e-01,9.26707e-01,9.99999e-01,9.99920e-01,9.26781e-01,9.99999e-01
5.395400610e-01,9.27904e-01,9.99999e-01,9.99711e-01,9.28174e-01,9.99996e-01
5.422377613e-01,9.29196e-01,9.99999e-01,9.99634e-01,9.29541e-01,9.99992e-01
5.449489501e-01,9.30558e-01,9.99999e-01,9.99656e-01,9.30884e-01,9.99992e-01
5.476736949e-01,9.31919e-01,9.99999e-01,9.99699e-01,9.32202e-01,9.99996e-01
5.504120634e-01,9.33291e-01,9.99999e-01,9.99781e-01,9.33495e-01,9.99998e-01
5.531641237e-01,9.34662e-01,9.99999e-01,9.99889e-01,9.34765e-01,9.99999e-01
5.559299443e-01,9.35962e-01,9.99999e-01,9.99946e-01,9.36011e-01,9.99999e-01
5.587095940e-01,9.37203e-01,9.99999e-01,9.99966e-01,9.37235e-01,9.99999e-01
5.615031420e-01,9.38401e-01,9.99999e-01,9.99962e-01,9.38435e-01,9.99999e-01
5.643106577e-01,9.39573e-01,9.99999e-01,9.99956e-01,9.39614e-01,9.99999e-01
5.671322110e-01,9.40273e-01,9.99999e-01,9.99475e-01,9.40771e-01,9.99994e-01
5.699678720e-01,9.41386e-01,9.99999e-01,9.99461e-01,9.41906e-01,9.99985e-01
5.728177114e-01,9.42473e-01,9.99999e-01,9.99431e-01,9.43020e-01,9.99987e-01
5.756818000e-01,9.43616e-01,9.99999e-01,9.99479e-01,9.44114e-01,9.99992e-01
5.785602090e-01,9.44757e-01,9.99999e-01,9.99547e-01,9.45187e-01,9.99997e-01
5.814530100e-01,9.45808e-01,9.99999e-01,9.99543e-01,9.46240e-01,9.99998e-01
5.843602750e-01,9.46751e-01,9.99999e-01,9.99451e-01,9.47273e-01,9.99996e-01
5.872820764e-01,9.43783e-01,9.99999e-01,9.95282e-01,9.48287e-01,9.99966e-01
5.902184868e-01,9.43838e-01,9.99999e-01,9.94353e-01,9.49282e-01,9.99909e-01
5.931695792e-01,9.46370e-01,9.99999e-01,9.95992e-01,9.50259e-01,9.99913e-01
5.961354271e-01,9.47005e-01,9.99999e-01,9.95620e-01,9.51217e-01,9.99950e-01
5.991161043e-01,9.49105e-01,9.99999e-01,9.96809e-01,9.52157e-01,9.99984e-01
6.021116848e-01,9.51355e-01,9.99999e-01,9.98191e-01,9.53079e-01,9.99997e-01
6.051222432e-01,9.53112e-01,9.99999e-01,9.99085e-01,9.53984e-01,9.99999e-01
6.081478544e-01,9.54495e-01,9.99999e-01,9.99604e-01,9.54873e-01,9.99999e-01
6.111885937e-01,9.55585e-01,9.99999e-01,9.99833e-01,9.55744e-01,9.99999e-01
6.142445367e-01,9.56527e-01,9.99999e-01,9.99925e-01,9.56599e-01,9.99999e-01
6.173157594e-01,9.57398e-01,9.99999e-01,9.99958e-01,9.57437e-01,9.99999e-01
6.204023382e-01,9.58227e-01,9.99999e-01,9.99964e-01,9.58260e-01,9.99999e-01
6.235043498e-01,9.58916e-01,9.99999e-01,9.99841e-01,9.59068e-01,9.99999e-01
6.266218716e-01,9.59071e-01,9.99999e-01,9.99183e-01,9.59860e-01,9.99993e-01
6.297549810e-01,9.60338e-01,9.99999e-01,9.99700e-01,9.60637e-01,9.99988e-01
6.329037559e-01,9.60824e-01,9.99999e-01,9.99410e-01,9.61399e-01,9.99990e-01
6.360682746e-01,9.61656e-01,9.99999e-01,9.99494e-01,9.62147e-01,9.99994e-01
6.392486160e-01,9.62250e-01,9.99999e-01,9.99347e-01,9.62881e-01,9.99997e-01
6.424448591e-01,9.62746e-01,9.99999e-01,9.99116e-01,9.63600e-01,9.99995e-01
6.456570834e-01,9.60335e-01,9.99999e-01,9.95905e-01,9.64306e-01,9.99974e-01
6.488853688e-01,9.62087e-01,9.99999e-01,9.97044e-01,9.64999e-01,9.99936e-01
6.521297956e-01,9.62720e-01,9.99999e-01,9.96988e-01,9.65678e-01,9.99947e-01
6.553904446e-01,9.63393e-01,9.99999e-01,9.96983e-01,9.66344e-01,9.99960e-01
6.586673968e-01,9.64502e-01,9.99999e-01,9.97430e-01,9.66998e-01,9.99986e-01
6.619607338e-01,9.66252e-01,9.99999e-01,9.98568e-01,9.67639e-01,9.99996e-01
6.652705375e-01,9.67435e-01,9.99999e-01,9.99140e-01,9.68268e-01,9.99998e-01
6.685968902e-01,9.68532e-01,9.99999e-01,9.99635e-01,9.68885e-01,9.99999e-01
6.719398746e-01,9.69311e-01,9.99999e-01,9.99814e-01,9.69490e-01,9.99999e-01
6.752995740e-01,9.69989e-01,9.99999e-01,9.99901e-01,9.70084e-01,9.99999e-01
6.786760719e-01,9.70524e-01,9.99999e-01,9.99853e-01,9.70666e-01,9.99999e-01
6.820694522e-01,9.70991e-01,9.99999e-01,9.99747e-01,9.71237e-01,9.99998e-01
6.854797995e-01,9.71482e-01,9.99999e-01,9.99677e-01,9.71797e-01,9.99996e-01
6.889071985e-01,9.71325e-01,9.99999e-01,9.98956e-01,9.72346e-01,9.99992e-01
6.923517345e-01,9.60383e-01,9.99999e-01,9.87208e-01,9.72885e-01,9.99938e-01
6.958134932e-01,9.66992e-01,9.99999e-01,9.93536e-01,9.73413e-01,9.99864e-01
6.992925606e-01,9.67670e-01,9.99999e-01,9.93690e-01,9.73932e-01,9.99878e-01
7.027890234e-01,9.66844e-01,9.99999e-01,9.92296e-01,9.74440e-01,9.99906e-01
7.063029686e-01,9.68569e-01,9.99999e-01,9.93512e-01,9.74938e-01,9.99953e-01
7.098344834e-01,9.69329e-01,9.99999e-01,9.93775e-01,9.75427e-01,9.99972e-01
7.133836558e-01,9.67632e-01,9.99999e-01,9.91574e-01,9.75907e-01,9.99945e-01
7.169505741e-01,9.12248e-01,9.99999e-01,9.34717e-01,9.76377e-01,9.99573e-01
7.205353270e-01,9.45139e-01,9.99999e-01,9.68276e-01,9.76838e-01,9.99247e-01
7.241380036e-01,9.36639e-01,9.99999e-01,9.59025e-01,9.77290e-01,9.99350e-01
7.277586936e-01,9.41062e-01,9.99999e-01,9.63003e-01,9.77734e-01,9.99468e-01
7.313974871e-01,9.39812e-01,9.99999e-01,9.61025e-01,9.78169e-01,9.99750e-01
7.350544745e-01,9.57449e-01,9.99999e-01,9.78475e-01,9.78595e-01,9.99913e-01
7.387297469e-01,9.63441e-01,9.99999e-01,9.84132e-01,9.79014e-01,9.99959e-01
7.424233956e-01,9.71808e-01,9.99999e-01,9.92230e-01,9.79424e-01,9.99992e-01
7.461355126e-01,9.75197e-01,9.99999e-01,9.95275e-01,9.79826e-01,9.99998e-01
7.498661902e-01,9.78071e-01,9.99999e-01,9.97806e-01,9.80221e-01,9.99999e-01
7.536155211e-01,9.79548e-01,9.99999e-01,9.98919e-01,9.80607e-01,9.99999e-01
7.573835987e-01,9.80442e-01,9.99999e-01,9.99443e-01,9.80987e-01,9.99999e-01
7.611705167e-01,9.81020e-01,9.99999e-01,9.99654e-01,9.81359e-01,9.99999e-01
7.649763693e-01,9.81511e-01,9.99999e-01,9.99782e-01,9.81724e-01,9.99999e-01
7.688012511e-01,9.81933e-01,9.99999e-01,9.99848e-01,9.82081e-01,9.99999e-01
7.726452574e-01,9.82310e-01,9.99999e-01,9.99874e-01,9.82432e-01,9.99999e-01
7.765084837e-01,9.82600e-01,9.99999e-01,9.99820e-01,9.82776e-01,9.99999e-01
7.803910261e-01,9.82351e-01,9.99999e-01,9.99224e-01,9.83113e-01,9.99998e-01
7.842929812e-01,9.80781e-01,9.99999e-01,9.97296e-01,9.83444e-01,9.99994e-01
7.882144461e-01,9.78319e-01,9.99999e-01,9.94497e-01,9.83769e-01,9.99961e-01
7.921555184e-01,9.81071e-01,9.99999e-01,9.97000e-01,9.84087e-01,9.99933e-01
7.961162960e-01,9.79044e-01,9.99999e-01,9.94622e-01,9.84398e-01,9.99937e-01
8.000968774e-01,9.78572e-01,9.99999e-01,9.93838e-01,9.84704e-01,9.99933e-01
8.040973618e-01,9.78873e-01,9.99999e-01,9.93824e-01,9.85004e-01,9.99948e-01
8.081178486e-01,9.71473e-01,9.99999e-01,9.86018e-01,9.85298e-01,9.99948e-01
8.121584379e-01,9.29341e-01,9.99999e-01,9.43114e-01,9.85586e-01,9.99805e-01
8.162192301e-01,9.19824e-01,9.99999e-01,9.33690e-01,9.85869e-01,9.99268e-01
8.203003262e-01,9.51501e-01,9.99999e-01,9.65695e-01,9.86146e-01,9.99143e-01
8.244018279e-01,9.40348e-01,9.99999e-01,9.53945e-01,9.86418e-01,9.99318e-01
8.285238370e-01,9.46264e-01,9.99999e-01,9.59547e-01,9.86684e-01,9.99464e-01
8.326664562e-01,9.46606e-01,9.99999e-01,9.59339e-01,9.86946e-01,9.99778e-01
8.368297885e-01,9.58379e-01,9.99999e-01,9.70851e-01,9.87202e-01,9.99948e-01
8.410139374e-01,9.70235e-01,9.99999e-01,9.82592e-01,9.87453e-01,9.99969e-01
8.452190071e-01,9.79231e-01,9.99999e-01,9.91443e-01,9.87699e-01,9.99981e-01
8.494451021e-01,9.82991e-01,9.99999e-01,9.95003e-01,9.87941e-01,9.99985e-01
8.536923276e-01,9.85260e-01,9.99999e-01,9.97055e-01,9.88178e-01,9.99990e-01
8.579607893e-01,9.86608e-01,9.99999e-01,9.98178e-01,9.88410e-01,9.99997e-01
8.622505932e-01,9.87497e-01,9.99999e-01,9.98846e-01,9.88637e-01,9.99999e-01
8.665618462e-01,9.88152e-01,9.99999e-01,9.99282e-01,9.88860e-01,9.99999e-01
8.708946554e-01,9.88265e-01,9.99999e-01,9.99176e-01,9.89079e-01,9.99999e-01
8.752491287e-01,9.88205e-01,9.99999e-01,9.98899e-01,9.89294e-01,9.99998e-01
8.796253743e-01,9.87988e-01,9.99999e-01,9.98470e-01,9.89504e-01,9.99996e-01
8.840235012e-01,9.87973e-01,9.99999e-01,9.98254e-01,9.89710e-01,9.99988e-01
8.884436187e-01,9.83439e-01,9.99999e-01,9.93489e-01,9.89913e-01,9.99969e-01
8.928858368e-01,9.25206e-01,9.99999e-01,9.34608e-01,9.90111e-01,9.99825e-01
8.973502660e-01,8.79180e-01,9.99999e-01,8.88577e-01,9.90305e-01,9.99109e-01
9.018370173e-01,9.31825e-01,9.99999e-01,9.42083e-01,9.90496e-01,9.98601e-01
9.063462024e-01,9.37761e-01,9.99999e-01,9.47744e-01,9.90683e-01,9.98771e-01
9.108779334e-01,9.10663e-01,9.99999e-01,9.20232e-01,9.90866e-01,9.98723e-01
9.154323231e-01,9.00980e-01,9.99999e-01,9.10080e-01,9.91045e-01,9.98944e-01
9.200094847e-01,9.20419e-01,9.99999e-01,9.29118e-01,9.91221e-01,9.99408e-01
9.246095321e-01,8.80909e-01,9.99999e-01,8.89160e-01,9.91394e-01,9.99318e-01
9.292325798e-01,4.60271e-01,9.99999e-01,4.65715e-01,9.91563e-01,9.96717e-01
9.338787427e-01,3.71081e-01,9.99999e-01,3.78648e-01,9.91729e-01,9.88187e-01
9.385481364e-01,6.61499e-01,9.99999e-01,6.75669e-01,9.91892e-01,9.87029e-01
9.432408771e-01,5.67741e-01,9.99999e-01,5.78771e-01,9.92051e-01,9.88800e-01
9.479570815e-01,4.64944e-01,9.99999e-01,4.72909e-01,9.92208e-01,9.90875e-01
9.526968669e-01,5.61938e-01,9.99999e-01,5.69438e-01,9.92361e-01,9.94424e-01
9.574603512e-01,5.85176e-01,9.99999e-01,5.91267e-01,9.92511e-01,9.97163e-01
9.622476530e-01,6.45912e-01,9.99999e-01,6.51967e-01,9.92659e-01,9.98037e-01
9.670588912e-01,7.74050e-01,9.99999e-01,7.80664e-01,9.92803e-01,9.98713e-01
9.718941857e-01,8.48808e-01,9.99999e-01,8.55681e-01,9.92945e-01,9.99014e-01
9.767536566e-01,8.71824e-01,9.99999e-01,8.78559e-01,9.93084e-01,9.99244e-01
9.816374249e-01,9.02346e-01,9.99999e-01,9.08743e-01,9.93220e-01,9.99738e-01
9.865456120e-01,9.35652e-01,9.99999e-01,9.41963e-01,9.93353e-01,9.99945e-01
9.914783401e-01,9.57395e-01,9.99999e-01,9.63688e-01,9.93484e-01,9.99984e-01
9.964357318e-01,9.73798e-01,9.99999e-01,9.80066e-01,9.93612e-01,9.99990e-01
1.001417910e+00,9.81816e-01,9.99999e-01,9.88015e-01,9.93738e-01,9.99986e-01
1.006425000e+00,9.87016e-01,9.99999e-01,9.93131e-01,9.93861e-01,9.99980e-01
1.011457125e+00,9.89737e-01,9.99999e-01,9.95745e-01,9.93982e-01,9.99981e-01
1.016514411e+00,9.91211e-01,9.99999e-01,9.97104e-01,9.94101e-01,9.99986e-01
1.021596983e+00,9.91909e-01,9.99999e-01,9.97690e-01,9.94217e-01,9.99987e-01
1.026704968e+00,9.92531e-01,9.99999e-01,9.98197e-01,9.94331e-01,9.99991e-01
1.031838492e+00,9.93141e-01,9.99999e-01,9.98692e-01,9.94443e-01,9.99997e-01
1.036997685e+00,9.93778e-01,9.99999e-01,9.99221e-01,9.94552e-01,9.99999e-01
1.042182673e+00,9.93732e-01,9.99999e-01,9.99067e-01,9.94659e-01,9.99999e-01
1.047393587e+00,9.93537e-01,9.99999e-01,9.98766e-01,9.94764e-01,9.99999e-01
1.052630555e+00,9.93181e-01,9.99999e-01,9.98304e-01,9.94868e-01,9.99999e-01
1.057893707e+00,9.92147e-01,9.99999e-01,9.97164e-01,9.94969e-01,9.99998e-01
1.063183176e+00,9.90432e-01,9.99999e-01,9.95343e-01,9.95068e-01,9.99997e-01
1.068499092e+00,9.87426e-01,9.99999e-01,9.92228e-01,9.95165e-01,9.99994e-01
1.073841587e+00,9.86180e-01,9.99999e-01,9.90887e-01,9.95260e-01,9.99988e-01
1.079210795e+00,9.83764e-01,9.99999e-01,9.88386e-01,9.95354e-01,9.99968e-01
1.084606849e+00,9.77881e-01,9.99999e-01,9.82428e-01,9.95445e-01,9.99924e-01
1.090029883e+00,9.70143e-01,9.99999e-01,9.74644e-01,9.95535e-01,9.99844e-01
1.095480033e+00,9.28280e-01,9.99999e-01,9.32621e-01,9.95623e-01,9.99719e-01
1.100957433e+00,8.33862e-01,9.99999e-01,8.37887e-01,9.95709e-01,9.99483e-01
1.106462220e+00,6.36347e-01,9.99999e-01,6.39594e-01,9.95794e-01,9.99124e-01
1.111994531e+00,3.93475e-01,9.99999e-01,3.96023e-01,9.95877e-01,9.97677e-01
1.117554504e+00,2.23977e-01,9.99999e-01,2.26781e-01,9.95958e-01,9.91642e-01
1.123142276e+00,3.38076e-01,9.99999e-01,3.46243e-01,9.96038e-01,9.80294e-01
1.128757988e+00,4.84115e-01,9.99999e-01,4.97322e-01,9.96116e-01,9.77239e-01
1.134401778e+00,2.54208e-01,9.99999e-01,2.60224e-01,9.96192e-01,9.80613e-01
1.140073787e+00,6.42163e-01,9.99999e-01,6.54729e-01,9.96267e-01,9.84479e-01
1.145774156e+00,4.13479e-01,9.99999e-01,4.20982e-01,9.96341e-01,9.85783e-01
1.151503026e+00,3.78584e-01,9.99999e-01,3.82989e-01,9.96413e-01,9.92055e-01
1.157260541e+00,4.39046e-01,9.99999e-01,4.41646e-01,9.96484e-01,9.97617e-01
1.163046844e+00,5.44189e-01,9.99999e-01,5.46440e-01,9.96553e-01,9.99323e-01
1.168862078e+00,6.52776e-01,9.99999e-01,6.55220e-01,9.96621e-01,9.99647e-01
1.174706389e+00,7.67233e-01,9.99999e-01,7.70155e-01,9.96688e-01,9.99514e-01
1.180579921e+00,8.49520e-01,9.99999e-01,8.52881e-01,9.96753e-01,9.99301e-01
1.186482820e+00,9.10255e-01,9.99999e-01,9.13815e-01,9.96817e-01,9.99283e-01
1.192415234e+00,9.45217e-01,9.99999e-01,9.48683e-01,9.96880e-01,9.99463e-01
1.198377311e+00,9.53067e-01,9.99999e-01,9.56477e-01,9.96941e-01,9.99490e-01
1.204369197e+00,9.55535e-01,9.99999e-01,9.58833e-01,9.97001e-01,9.99556e-01
1.210391043e+00,9.57508e-01,9.99999e-01,9.60597e-01,9.97061e-01,9.99720e-01
1.216442998e+00,9.63526e-01,9.99999e-01,9.66474e-01,9.97119e-01,9.99828e-01
1.222525213e+00,9.70915e-01,9.99999e-01,9.73768e-01,9.97175e-01,9.99893e-01
1.228637839e+00,9.78931e-01,9.99999e-01,9.81697e-01,9.97231e-01,9.99950e-01
1.234781029e+00,9.83709e-01,9.99999e-01,9.86400e-01,9.97286e-01,9.99985e-01
1.240954934e+00,9.88728e-01,9.99999e-01,9.91369e-01,9.97339e-01,9.99995e-01
1.247159708e+00,9.90688e-01,9.99999e-01,9.93281e-01,9.97392e-01,9.99996e-01
1.253395507e+00,9.91477e-01,9.99999e-01,9.94021e-01,9.97443e-01,9.99996e-01
1.259662485e+00,9.91807e-01,9.99999e-01,9.94303e-01,9.97493e-01,9.99994e-01
1.265960797e+00,9.88495e-01,9.99999e-01,9.90938e-01,9.97543e-01,9.99990e-01
1.272290601e+00,9.83348e-01,9.99999e-01,9.85736e-01,9.97591e-01,9.99983e-01
1.278652054e+00,9.69538e-01,9.99999e-01,9.71858e-01,9.97639e-01,9.99972e-01
1.285045314e+00,9.47238e-01,9.99999e-01,9.49484e-01,9.97685e-01,9.99948e-01
1.291470541e+00,9.11490e-01,9.99999e-01,9.13644e-01,9.97731e-01,9.99909e-01
1.297927893e+00,8.77428e-01,9.99999e-01,8.79531e-01,9.97776e-01,9.99831e-01
1.304417533e+00,8.57872e-01,9.99999e-01,8.60052e-01,9.97820e-01,9.99642e-01
1.310939621e+00,8.24065e-01,9.99999e-01,8.26435e-01,9.97863e-01,9.99267e-01
1.317494319e+00,8.26748e-01,9.99999e-01,8.29606e-01,9.97905e-01,9.98645e-01
1.324081790e+00,7.55749e-01,9.99999e-01,7.59130e-01,9.97946e-01,9.97592e-01
1.330702199e+00,3.50203e-01,9.99999e-01,3.52346e-01,9.97987e-01,9.95921e-01
1.337355710e+00,5.22519e-02,9.99999e-01,5.27412e-02,9.98026e-01,9.92679e-01
1.344042489e+00,8.30383e-04,9.99999e-01,8.50608e-04,9.98065e-01,9.78114e-01
1.350762701e+00,1.40533e-06,9.99999e-01,1.51882e-06,9.98103e-01,9.27036e-01
1.357516515e+00,3.28197e-09,9.99999e-01,4.10682e-09,9.98141e-01,8.00637e-01
1.364304097e+00,3.61921e-06,9.99999e-01,5.35355e-06,9.98178e-01,6.77273e-01
1.371125618e+00,2.23265e-04,9.99999e-01,3.22963e-04,9.98214e-01,6.92539e-01
1.377981246e+00,6.52592e-04,9.99999e-01,8.95721e-04,9.98249e-01,7.29843e-01
1.384871152e+00,1.03240e-05,9.99999e-01,1.38688e-05,9.98283e-01,7.45683e-01
1.391795508e+00,4.98732e-06,9.99999e-01,6.60817e-06,9.98317e-01,7.55991e-01
1.398754485e+00,4.98155e-05,9.99999e-01,6.28681e-05,9.98350e-01,7.93688e-01
1.405748258e+00,4.76387e-05,9.99999e-01,5.46168e-05,9.98383e-01,8.73646e-01
1.412776999e+00,5.20629e-05,9.99999e-01,5.54628e-05,9.98415e-01,9.40189e-01
1.419840884e+00,1.03697e-04,9.99999e-01,1.06705e-04,9.98446e-01,9.73320e-01
1.426940089e+00,8.50756e-04,9.99999e-01,8.69739e-04,9.98477e-01,9.79664e-01
1.434074789e+00,4.24038e-03,9.99999e-01,4.35092e-03,9.98507e-01,9.76048e-01
1.441245163e+00,1.27758e-02,9.99999e-01,1.31349e-02,9.98536e-01,9.74082e-01
1.448451389e+00,4.69682e-02,9.99999e-01,4.81296e-02,9.98565e-01,9.77270e-01
1.455693646e+00,1.27036e-01,9.99999e-01,1.29511e-01,9.98593e-01,9.82268e-01
1.462972114e+00,1.63426e-01,9.99999e-01,1.66467e-01,9.98621e-01,9.83082e-01
1.470286975e+00,1.22682e-01,9.99999e-01,1.24926e-01,9.98648e-01,9.83367e-01
