#,Wave/freq,Total,N2,H2O,Rayleigh,CIA
4.000000000e-01,5.97733e-01,9.99999e-01,9.99941e-01,5.97768e-01,9.99999e-01
4.020000000e-01,6.03859e-01,9.99999e-01,9.99963e-01,6.03880e-01,9.99999e-01
4.040100000e-01,6.09918e-01,9.99999e-01,9.99984e-01,6.09927e-01,9.99999e-01
4.060300500e-01,6.15910e-01,9.99999e-01,9.99996e-01,6.15913e-01,9.99999e-01
4.080602003e-01,6.21836e-01,9.99999e-01,9.99998e-01,6.21837e-01,9.99999e-01
4.101005013e-01,6.27700e-01,9.99999e-01,9.99999e-01,6.27700e-01,9.99999e-01
4.121510038e-01,6.33499e-01,9.99999e-01,9.99997e-01,6.33500e-01,9.99999e-01
4.142117588e-01,6.39228e-01,9.99999e-01,9.99983e-01,6.39238e-01,9.99999e-01
4.162828176e-01,6.44867e-01,9.99999e-01,9.99927e-01,6.44913e-01,9.99999e-01
4.183642317e-01,6.50498e-01,9.99999e-01,9.99956e-01,6.50525e-01,9.99999e-01
4.204560528e-01,6.56057e-01,9.99999e-01,9.99973e-01,6.56074e-01,9.99999e-01
4.225583331e-01,6.61552e-01,9.99999e-01,9.99989e-01,6.61559e-01,9.99999e-01
4.246711247e-01,6.66974e-01,9.99999e-01,9.99991e-01,6.66980e-01,9.99999e-01
4.267944804e-01,6.72329e-01,9.99999e-01,9.99988e-01,6.72337e-01,9.99999e-01
4.289284528e-01,6.77624e-01,9.99999e-01,9.99990e-01,6.77630e-01,9.99999e-01
4.310730950e-01,6.82856e-01,9.99999e-01,9.99995e-01,6.82858e-01,9.99999e-01
4.332284605e-01,6.88022e-01,9.99999e-01,9.99998e-01,6.88023e-01,9.99999e-01
4.353946028e-01,6.93123e-01,9.99999e-01,9.99999e-01,6.93124e-01,9.99999e-01
4.375715758e-01,6.98155e-01,9.99999e-01,9.99992e-01,6.98160e-01,9.99999e-01
4.397594337e-01,7.03088e-01,9.99999e-01,9.99936e-01,7.03133e-01,9.99999e-01
4.419582309e-01,7.07813e-01,9.99999e-01,9.99676e-01,7.08042e-01,9.99999e-01
4.441680220e-01,7.12709e-01,9.99999e-01,9.99750e-01,7.12887e-01,9.99999e-01
4.463888621e-01,7.17481e-01,9.99999e-01,9.99739e-01,7.17668e-01,9.99999e-01
4.486208064e-01,7.22270e-01,9.99999e-01,9.99838e-01,7.22386e-01,9.99999e-01
4.508639105e-01,7.26987e-01,9.99999e-01,9.99924e-01,7.27041e-01,9.99999e-01
4.531182300e-01,7.31612e-01,9.99999e-01,9.99969e-01,7.31634e-01,9.99999e-01
4.553838212e-01,7.36149e-01,9.99999e-01,9.99979e-01,7.36163e-01,9.99999e-01
4.576607403e-01,7.40624e-01,9.99999e-01,9.99990e-01,7.40631e-01,9.99999e-01
4.599490440e-01,7.45032e-01,9.99999e-01,9.99992e-01,7.45036e-01,9.99999e-01
4.622487892e-01,7.49380e-01,9.99999e-01,9.99998e-01,7.49380e-01,9.99999e-01
4.645600332e-01,7.53660e-01,9.99999e-01,9.99994e-01,7.53663e-01,9.99999e-01
4.668828333e-01,7.57827e-01,9.99999e-01,9.99922e-01,7.57885e-01,9.99999e-01
4.692172475e-01,7.61922e-01,9.99999e-01,9.99836e-01,7.62046e-01,9.99999e-01
4.715633337e-01,7.66066e-01,9.99999e-01,9.99892e-01,7.66148e-01,9.99999e-01
4.739211504e-01,7.70111e-01,9.99999e-01,9.99897e-01,7.70190e-01,9.99999e-01
4.762907561e-01,7.74131e-01,9.99999e-01,9.99946e-01,7.74172e-01,9.99999e-01
4.786722099e-01,7.78080e-01,9.99999e-01,9.99977e-01,7.78096e-01,9.99999e-01
4.810655710e-01,7.81957e-01,9.99999e-01,9.99993e-01,7.81962e-01,9.99999e-01
4.834708988e-01,7.85720e-01,9.99999e-01,9.99936e-01,7.85770e-01,9.99999e-01
4.858882533e-01,7.89430e-01,9.99999e-01,9.99884e-01,7.89521e-01,9.99999e-01
4.883176946e-01,7.93138e-01,9.99999e-01,9.99902e-01,7.93215e-01,9.99999e-01
4.907592831e-01,7.96784e-01,9.99999e-01,9.99912e-01,7.96853e-01,9.99999e-01
4.932130795e-01,8.00386e-01,9.99999e-01,9.99937e-01,8.00435e-01,9.99999e-01
4.956791449e-01,8.03936e-01,9.99999e-01,9.99966e-01,8.03963e-01,9.99999e-01
4.981575406e-01,8.07302e-01,9.99999e-01,9.99834e-01,8.07435e-01,9.99999e-01
5.006483283e-01,8.10504e-01,9.99999e-01,9.99571e-01,8.10854e-01,9.99996e-01
5.031515699e-01,8.12443e-01,9.99999e-01,9.97840e-01,8.14219e-01,9.99976e-01
5.056673278e-01,8.16580e-01,9.99999e-01,9.98861e-01,8.17531e-01,9.99973e-01
5.081956644e-01,8.19600e-01,9.99999e-01,9.98564e-01,8.20791e-01,9.99983e-01
5.107366428e-01,8.23199e-01,9.99999e-01,9.99031e-01,8.23999e-01,9.99996e-01
5.132903260e-01,8.26698e-01,9.99999e-01,9.99446e-01,8.27156e-01,9.99999e-01
5.158567776e-01,8.30068e-01,9.99999e-01,9.99766e-01,8.30262e-01,9.99999e-01
5.184360615e-01,8.33240e-01,9.99999e-01,9.99906e-01,8.33318e-01,9.99999e-01
5.210282418e-01,8.36295e-01,9.99999e-01,9.99964e-01,8.36325e-01,9.99999e-01
5.236333830e-01,8.39164e-01,9.99999e-01,9.99858e-01,8.39283e-01,9.99998e-01
5.262515499e-01,8.42117e-01,9.99999e-01,9.99911e-01,8.42192e-01,9.99998e-01
5.288828077e-01,8.44985e-01,9.99999e-01,9.99918e-01,8.45054e-01,9.99998e-01
5.315272217e-01,8.47809e-01,9.99999e-01,9.99928e-01,8.47869e-01,9.99999e-01
5.341848578e-01,8.50598e-01,9.99999e-01,9.99952e-01,8.50637e-01,9.99999e-01
5.368557821e-01,8.53219e-01,9.99999e-01,9.99835e-01,8.53360e-01,9.99999e-01
5.395400610e-01,8.55523e-01,9.99999e-01,9.99404e-01,8.56037e-01,9.99993e-01
5.422377613e-01,8.58003e-01,9.99999e-01,9.99237e-01,8.58669e-01,9.99985e-01
5.449489501e-01,8.60632e-01,9.99999e-01,9.99287e-01,8.61257e-01,9.99985e-01
5.476736949e-01,8.63254e-01,9.99999e-01,9.99371e-01,8.63802e-01,9.99992e-01
5.504120634e-01,8.65907e-01,9.99999e-01,9.99543e-01,8.66304e-01,9.99997e-01
5.531641237e-01,8.68564e-01,9.99999e-01,9.99770e-01,8.68763e-01,9.99999e-01
5.559299443e-01,8.71084e-01,9.99999e-01,9.99888e-01,8.71181e-01,9.99999e-01
5.587095940e-01,8.73496e-01,9.99999e-01,9.99930e-01,8.73557e-01,9.99999e-01
5.615031420e-01,8.75825e-01,9.99999e-01,9.99922e-01,8.75893e-01,9.99999e-01
5.643106577e-01,8.78110e-01,9.99999e-01,9.99911e-01,8.78188e-01,9.99998e-01
5.671322110e-01,8.79487e-01,9.99999e-01,9.98921e-01,8.80444e-01,9.99990e-01
5.699678720e-01,8.81639e-01,9.99999e-01,9.98870e-01,8.82661e-01,9.99970e-01
5.728177114e-01,8.83772e-01,9.99999e-01,9.98816e-01,8.84840e-01,9.99975e-01
5.756818000e-01,8.86007e-01,9.99999e-01,9.98915e-01,8.86981e-01,9.99985e-01
5.785602090e-01,8.88242e-01,9.99999e-01,9.99055e-01,8.89085e-01,9.99995e-01
5.814530100e-01,8.90304e-01,9.99999e-01,9.99050e-01,8.91152e-01,9.99997e-01
5.843602750e-01,8.92162e-01,9.99999e-01,9.98863e-01,8.93182e-01,9.99993e-01
5.872820764e-01,8.86392e-01,9.99999e-01,9.90252e-01,8.95178e-01,9.99930e-01
5.902184868e-01,8.86429e-01,9.99999e-01,9.88247e-01,8.97138e-01,9.99812e-01
5.931695792e-01,8.91420e-01,9.99999e-01,9.91676e-01,8.99063e-01,9.99819e-01
5.961354271e-01,8.92652e-01,9.99999e-01,9.90886e-01,9.00955e-01,9.99896e-01
5.991161043e-01,8.96780e-01,9.99999e-01,9.93348e-01,9.02813e-01,9.99967e-01
6.021116848e-01,9.01219e-01,9.99999e-01,9.96223e-01,9.04638e-01,9.99995e-01
6.051222432e-01,9.04698e-01,9.99999e-01,9.98088e-01,9.06431e-01,9.99999e-01
6.081478544e-01,9.07442e-01,9.99999e-01,9.99174e-01,9.08191e-01,9.99999e-01
6.111885937e-01,9.09603e-01,9.99999e-01,9.99650e-01,9.09920e-01,9.99999e-01
6.142445367e-01,9.11476e-01,9.99999e-01,9.99843e-01,9.11619e-01,9.99999e-01
6.173157594e-01,9.13208e-01,9.99999e-01,9.99913e-01,9.13286e-01,9.99999e-01
6.204023382e-01,9.14857e-01,9.99999e-01,9.99926e-01,9.14924e-01,9.99999e-01
6.235043498e-01,9.16235e-01,9.99999e-01,9.99675e-01,9.16532e-01,9.99998e-01
6.266218716e-01,9.16540e-01,9.99999e-01,9.98299e-01,9.18111e-01,9.99987e-01
6.297549810e-01,9.19067e-01,9.99999e-01,9.99375e-01,9.19662e-01,9.99975e-01
6.329037559e-01,9.20034e-01,9.99999e-01,9.98769e-01,9.21185e-01,9.99980e-01
6.360682746e-01,9.21700e-01,9.99999e-01,9.98949e-01,9.22680e-01,9.99988e-01
6.392486160e-01,9.22886e-01,9.99999e-01,9.98639e-01,9.24147e-01,9.99994e-01
6.424448591e-01,9.23888e-01,9.99999e-01,9.98171e-01,9.25589e-01,9.99990e-01
6.456570834e-01,9.19115e-01,9.99999e-01,9.91540e-01,9.27003e-01,9.99948e-01
6.488853688e-01,9.22552e-01,9.99999e-01,9.93838e-01,9.28392e-01,9.99868e-01
6.521297956e-01,9.23819e-01,9.99999e-01,9.93721e-01,9.29756e-01,9.99891e-01
6.553904446e-01,9.25182e-01,9.99999e-01,9.93730e-01,9.31094e-01,9.99919e-01
6.586673968e-01,9.27388e-01,9.99999e-01,9.94642e-01,9.32408e-01,9.99972e-01
6.619607338e-01,9.30902e-01,9.99999e-01,9.97011e-01,9.33698e-01,9.99993e-01
6.652705375e-01,9.33284e-01,9.99999e-01,9.98205e-01,9.34964e-01,9.99996e-01
6.685968902e-01,9.35493e-01,9.99999e-01,9.99237e-01,9.36207e-01,9.99999e-01
6.719398746e-01,9.37065e-01,9.99999e-01,9.99613e-01,9.37427e-01,9.99999e-01
6.752995740e-01,9.38427e-01,9.99999e-01,9.99790e-01,9.38624e-01,9.99999e-01
6.786760719e-01,9.39513e-01,9.99999e-01,9.99695e-01,9.39799e-01,9.99999e-01
6.820694522e-01,9.40461e-01,9.99999e-01,9.99480e-01,9.40952e-01,9.99996e-01
6.854797995e-01,9.41448e-01,9.99999e-01,9.99330e-01,9.42084e-01,9.99993e-01
6.889071985e-01,9.41641e-01,9.99999e-01,9.98366e-01,9.43195e-01,9.99985e-01
6.923517345e-01,9.19425e-01,9.99999e-01,9.73796e-01,9.44285e-01,9.99872e-01
6.958134932e-01,9.32286e-01,9.99999e-01,9.86452e-01,9.45355e-01,9.99719e-01
6.992925606e-01,9.33833e-01,9.99999e-01,9.86965e-01,9.46405e-01,9.99746e-01
7.027890234e-01,9.32094e-01,9.99999e-01,9.83996e-01,9.47435e-01,9.99806e-01
7.063029686e-01,9.35569e-01,9.99999e-01,9.86517e-01,9.48446e-01,9.99903e-01
7.098344834e-01,9.37099e-01,9.99999e-01,9.87059e-01,9.49438e-01,9.99942e-01
7.133836558e-01,9.33862e-01,9.99999e-01,9.82696e-01,9.50412e-01,9.99886e-01
7.169505741e-01,8.27346e-01,9.99999e-01,8.70411e-01,9.51367e-01,9.99111e-01
7.205353270e-01,8.88805e-01,9.99999e-01,9.34784e-01,9.52304e-01,9.98433e-01
7.241380036e-01,8.73037e-01,9.99999e-01,9.17118e-01,9.53224e-01,9.98646e-01
7.277586936e-01,8.81548e-01,9.99999e-01,9.24954e-01,9.54126e-01,9.98893e-01
7.313974871e-01,8.78605e-01,9.99999e-01,9.20470e-01,9.55012e-01,9.99481e-01
7.350544745e-01,9.13324e-01,9.99999e-01,9.55650e-01,9.55881e-01,9.99819e-01
7.387297469e-01,9.25226e-01,9.99999e-01,9.67147e-01,9.56733e-01,9.99916e-01
7.424233956e-01,9.42046e-01,9.99999e-01,9.83803e-01,9.57569e-01,9.99985e-01
7.461355126e-01,9.48943e-01,9.99999e-01,9.90145e-01,9.58389e-01,9.99997e-01
7.498661902e-01,9.54789e-01,9.99999e-01,9.95407e-01,9.59194e-01,9.99998e-01
7.536155211e-01,9.57816e-01,9.99999e-01,9.97741e-01,9.59984e-01,9.99998e-01
7.573835987e-01,9.59642e-01,9.99999e-01,9.98836e-01,9.60759e-01,9.99999e-01
7.611705167e-01,9.60824e-01,9.99999e-01,9.99277e-01,9.61519e-01,9.99999e-01
7.649763693e-01,9.61828e-01,9.99999e-01,9.99546e-01,9.62264e-01,9.99999e-01
7.688012511e-01,9.62691e-01,9.99999e-01,9.99683e-01,9.62996e-01,9.99999e-01
7.726452574e-01,9.63463e-01,9.99999e-01,9.99739e-01,9.63713e-01,9.99999e-01
7.765084837e-01,9.64059e-01,9.99999e-01,9.99628e-01,9.64417e-01,9.99999e-01
7.803910261e-01,9.63558e-01,9.99999e-01,9.98395e-01,9.65107e-01,9.99997e-01
7.842929812e-01,9.60376e-01,9.99999e-01,9.94409e-01,9.65785e-01,9.99989e-01
7.882144461e-01,9.55323e-01,9.99999e-01,9.88564e-01,9.66449e-01,9.99920e-01
7.921555184e-01,9.60909e-01,9.99999e-01,9.93733e-01,9.67101e-01,9.99862e-01
7.961162960e-01,9.56856e-01,9.99999e-01,9.88882e-01,9.67740e-01,9.99869e-01
8.000968774e-01,9.55840e-01,9.99999e-01,9.87200e-01,9.68367e-01,9.99860e-01
8.040973618e-01,9.56468e-01,9.99999e-01,9.87189e-01,9.68982e-01,9.99893e-01
8.081178486e-01,9.41653e-01,9.99999e-01,9.71295e-01,9.69585e-01,9.99892e-01
8.121584379e-01,8.59464e-01,9.99999e-01,8.86242e-01,9.70177e-01,9.99594e-01
8.162192301e-01,8.40659e-01,9.99999e-01,8.67304e-01,9.70757e-01,9.98475e-01
8.203003262e-01,9.03511e-01,9.99999e-01,9.31845e-01,9.71326e-01,9.98215e-01
8.244018279e-01,8.81001e-01,9.99999e-01,9.07776e-01,9.71885e-01,9.98579e-01
8.285238370e-01,8.91714e-01,9.99999e-01,9.18017e-01,9.72432e-01,9.98883e-01
8.326664562e-01,8.92226e-01,9.99999e-01,9.17435e-01,9.72969e-01,9.99538e-01
8.368297885e-01,9.15142e-01,9.99999e-01,9.40156e-01,9.73496e-01,9.99894e-01
8.410139374e-01,9.38875e-01,9.99999e-01,9.63983e-01,9.74013e-01,9.99937e-01
8.452190071e-01,9.57117e-01,9.99999e-01,9.82177e-01,9.74520e-01,9.99962e-01
8.494451021e-01,9.64848e-01,9.99999e-01,9.89600e-01,9.75016e-01,9.99969e-01
8.536923276e-01,9.69487e-01,9.99999e-01,9.93849e-01,9.75504e-01,9.99981e-01
8.579607893e-01,9.72271e-01,9.99999e-01,9.96202e-01,9.75982e-01,9.99995e-01
8.622505932e-01,9.74096e-01,9.99999e-01,9.97588e-01,9.76451e-01,9.99998e-01
8.665618462e-01,9.75450e-01,9.99999e-01,9.98505e-01,9.76910e-01,9.99999e-01
8.708946554e-01,9.75686e-01,9.99999e-01,9.98286e-01,9.77361e-01,9.99998e-01
8.752491287e-01,9.75562e-01,9.99999e-01,9.97709e-01,9.77803e-01,9.99997e-01
8.796253743e-01,9.75123e-01,9.99999e-01,9.96823e-01,9.78237e-01,9.99992e-01
8.840235012e-01,9.75093e-01,9.99999e-01,9.96374e-01,9.78662e-01,9.99977e-01
8.884436187e-01,9.66042e-01,9.99999e-01,9.86745e-01,9.79079e-01,9.99936e-01
8.928858368e-01,8.52301e-01,9.99999e-01,8.70463e-01,9.79488e-01,9.99637e-01
8.973502660e-01,7.66833e-01,9.99999e-01,7.84024e-01,9.79889e-01,9.98145e-01
9.018370173e-01,8.63728e-01,9.99999e-01,8.83674e-01,9.80282e-01,9.97086e-01
9.063462024e-01,8.76193e-01,9.99999e-01,8.95757e-01,9.80668e-01,9.97440e-01
9.108779334e-01,8.24575e-01,9.99999e-01,8.42746e-01,9.81046e-01,9.97340e-01
9.154323231e-01,8.06037e-01,9.99999e-01,8.23108e-01,9.81417e-01,9.97800e-01
9.200094847e-01,8.42409e-01,9.99999e-01,8.59099e-01,9.81781e-01,9.98768e-01
9.246095321e-01,7.76756e-01,9.99999e-01,7.92006e-01,9.82137e-01,9.98581e-01
9.292325798e-01,2.23800e-01,9.99999e-01,2.29053e-01,9.82487e-01,9.94478e-01
9.338787427e-01,1.44997e-01,9.99999e-01,1.50946e-01,9.82830e-01,9.77373e-01
9.385481364e-01,4.43127e-01,9.99999e-01,4.63150e-01,9.83166e-01,9.73147e-01
9.432408771e-01,3.39677e-01,9.99999e-01,3.53583e-01,9.83496e-01,9.76790e-01
9.479570815e-01,2.30655e-01,9.99999e-01,2.38972e-01,9.83819e-01,9.81069e-01
9.526968669e-01,3.22506e-01,9.99999e-01,3.31546e-01,9.84136e-01,9.88410e-01
9.574603512e-01,3.42433e-01,9.99999e-01,3.49908e-01,9.84447e-01,9.94095e-01
9.622476530e-01,4.12443e-01,9.99999e-01,4.20548e-01,9.84752e-01,9.95913e-01
9.670588912e-01,5.93455e-01,9.99999e-01,6.04150e-01,9.85051e-01,9.97203e-01
9.718941857e-01,7.12488e-01,9.99999e-01,7.24577e-01,9.85344e-01,9.97940e-01
9.767536566e-01,7.52839e-01,9.99999e-01,7.65017e-01,9.85632e-01,9.98425e-01
9.816374249e-01,8.07533e-01,9.99999e-01,8.19516e-01,9.85913e-01,9.99454e-01
9.865456120e-01,8.70524e-01,9.99999e-01,8.82814e-01,9.86190e-01,9.99886e-01
9.914783401e-01,9.13142e-01,9.99999e-01,9.25703e-01,9.86461e-01,9.99968e-01
9.964357318e-01,9.46087e-01,9.99999e-01,9.58831e-01,9.86726e-01,9.99981e-01
1.001417910e+00,9.62398e-01,9.99999e-01,9.75114e-01,9.86987e-01,9.99971e-01
1.006425000e+00,9.73106e-01,9.99999e-01,9.85720e-01,9.87242e-01,9.99959e-01
1.011457125e+00,9.78694e-01,9.99999e-01,9.91126e-01,9.87492e-01,9.99962e-01
1.016514411e+00,9.81750e-01,9.99999e-01,9.93963e-01,9.87738e-01,9.99973e-01
1.021596983e+00,9.83197e-01,9.99999e-01,9.95185e-01,9.87979e-01,9.99973e-01
1.026704968e+00,9.84486e-01,9.99999e-01,9.96242e-01,9.88215e-01,9.99983e-01
1.031838492e+00,9.85744e-01,9.99999e-01,9.97270e-01,9.88446e-01,9.99994e-01
1.036997685e+00,9.87067e-01,9.99999e-01,9.98376e-01,9.88673e-01,9.99998e-01
1.042182673e+00,9.86977e-01,9.99999e-01,9.98060e-01,9.88895e-01,9.99999e-01
1.047393587e+00,9.86573e-01,9.99999e-01,9.97431e-01,9.89114e-01,9.99999e-01
1.052630555e+00,9.85838e-01,9.99999e-01,9.96473e-01,9.89327e-01,9.99998e-01
1.057893707e+00,9.83712e-01,9.99999e-01,9.94114e-01,9.89537e-01,9.99997e-01
1.063183176e+00,9.80177e-01,9.99999e-01,9.90339e-01,9.89743e-01,9.99994e-01
1.068499092e+00,9.73984e-01,9.99999e-01,9.83888e-01,9.89944e-01,9.99988e-01
1.073841587e+00,9.71469e-01,9.99999e-01,9.81164e-01,9.90142e-01,9.99975e-01
1.079210795e+00,9.66461e-01,9.99999e-01,9.75955e-01,9.90336e-01,9.99934e-01
1.084606849e+00,9.54535e-01,9.99999e-01,9.63814e-01,9.90526e-01,9.99843e-01
1.090029883e+00,9.39236e-01,9.99999e-01,9.48347e-01,9.90712e-01,9.99676e-01
1.095480033e+00,8.57288e-01,9.99999e-01,8.65671e-01,9.90894e-01,9.99415e-01
1.100957433e+00,6.88366e-01,9.99999e-01,6.95314e-01,9.91074e-01,9.98923e-01
1.106462220e+00,4.04003e-01,9.99999e-01,4.08314e-01,9.91249e-01,9.98175e-01
1.111994531e+00,1.57081e-01,9.99999e-01,1.59209e-01,9.91421e-01,9.95164e-01
1.117554504e+00,5.42433e-02,9.99999e-01,5.56689e-02,9.91590e-01,9.82654e-01
1.123142276e+00,1.29904e-01,9.99999e-01,1.36533e-01,9.91755e-01,9.59354e-01
1.128757988e+00,2.39811e-01,9.99999e-01,2.53653e-01,9.91917e-01,9.53131e-01
1.134401778e+00,1.09242e-01,9.99999e-01,1.14702e-01,9.92076e-01,9.60004e-01
1.140073787e+00,4.09735e-01,9.99999e-01,4.26631e-01,9.92232e-01,9.67913e-01
1.145774156e+00,1.79770e-01,9.99999e-01,1.86638e-01,9.92385e-01,9.70589e-01
1.151503026e+00,1.52908e-01,9.99999e-01,1.56641e-01,9.92535e-01,9.83507e-01
1.157260541e+00,1.90967e-01,9.99999e-01,1.93334e-01,9.92682e-01,9.95039e-01
1.163046844e+00,2.91498e-01,9.99999e-01,2.94019e-01,9.92826e-01,9.98591e-01
1.168862078e+00,4.15001e-01,9.99999e-01,4.18243e-01,9.92967e-01,9.99273e-01
1.174706389e+00,5.78503e-01,9.99999e-01,5.83079e-01,9.93105e-01,9.99037e-01
1.180579921e+00,7.13028e-01,9.99999e-01,7.18925e-01,9.93241e-01,9.98545e-01
1.186482820e+00,8.22181e-01,9.99999e-01,8.28902e-01,9.93374e-01,9.98507e-01
1.192415234e+00,8.89194e-01,9.99999e-01,8.96008e-01,9.93505e-01,9.98881e-01
1.198377311e+00,9.04801e-01,9.99999e-01,9.11561e-01,9.93633e-01,9.98943e-01
1.204369197e+00,9.09754e-01,9.99999e-01,9.16343e-01,9.93758e-01,9.99044e-01
1.210391043e+00,9.13582e-01,9.99999e-01,9.19740e-01,9.93881e-01,9.99418e-01
1.216442998e+00,9.25464e-01,9.99999e-01,9.31380e-01,9.94001e-01,9.99643e-01
1.222525213e+00,9.40298e-01,9.99999e-01,9.46068e-01,9.94119e-01,9.99778e-01
1.228637839e+00,9.56567e-01,9.99999e-01,9.62212e-01,9.94235e-01,9.99896e-01
1.234781029e+00,9.66304e-01,9.99999e-01,9.71824e-01,9.94349e-01,9.99970e-01
1.240954934e+00,9.76634e-01,9.99999e-01,9.82082e-01,9.94460e-01,9.99991e-01
1.247159708e+00,9.80665e-01,9.99999e-01,9.86024e-01,9.94569e-01,9.99994e-01
1.253395507e+00,9.82310e-01,9.99999e-01,9.87573e-01,9.94676e-01,9.99992e-01
1.259662485e+00,9.83011e-01,9.99999e-01,9.88178e-01,9.94781e-01,9.99988e-01
1.265960797e+00,9.76163e-01,9.99999e-01,9.81199e-01,9.94884e-01,9.99981e-01
1.272290601e+00,9.65683e-01,9.99999e-01,9.70581e-01,9.94985e-01,9.99967e-01
1.278652054e+00,9.37770e-01,9.99999e-01,9.42457e-01,9.95083e-01,9.99942e-01
1.285045314e+00,8.93813e-01,9.99999e-01,8.98238e-01,9.95180e-01,9.99892e-01
1.291470541e+00,8.25516e-01,9.99999e-01,8.29590e-01,9.95275e-01,9.99811e-01
1.297927893e+00,7.63411e-01,9.99999e-01,7.67232e-01,9.95368e-01,9.99648e-01
1.304417533e+00,7.29153e-01,9.99999e-01,7.33023e-01,9.95460e-01,9.99256e-01
1.310939621e+00,6.71492e-01,9.99999e-01,6.75524e-01,9.95549e-01,9.98473e-01
1.317494319e+00,6.76013e-01,9.99999e-01,6.80895e-01,9.95637e-01,9.97178e-01
1.324081790e+00,5.61208e-01,9.99999e-01,5.66224e-01,9.95723e-01,9.95397e-01
1.330702199e+00,1.67401e-01,9.99999e-01,1.69448e-01,9.95807e-01,9.92077e-01
1.337355710e+00,5.83569e-03,9.99999e-01,5.95022e-03,9.95890e-01,9.84798e-01
1.344042489e+00,1.25140e-04,9.99999e-01,1.31579e-04,9.95971e-01,9.54911e-01
1.350762701e+00,8.29886e-12,9.99999e-01,9.75750e-12,9.96050e-01,8.53882e-01
1.357516515e+00,2.40993e-17,9.99999e-01,3.84610e-17,9.96128e-01,6.29026e-01
1.364304097e+00,4.07938e-11,9.99999e-01,9.22769e-11,9.96204e-01,4.43763e-01
1.371125618e+00,2.49837e-07,9.99999e-01,5.39438e-07,9.96279e-01,4.64873e-01
1.377981246e+00,9.10232e-07,9.99999e-01,1.76156e-06,9.96352e-01,5.18610e-01
1.384871152e+00,1.58378e-09,9.99999e-01,2.93068e-09,9.96424e-01,5.42354e-01
1.391795508e+00,4.56120e-11,9.99999e-01,8.20143e-11,9.96495e-01,5.58103e-01
1.398754485e+00,7.84556e-09,9.99999e-01,1.27451e-08,9.96564e-01,6.17697e-01
1.405748258e+00,1.02137e-08,9.99999e-01,1.35819e-08,9.96632e-01,7.54551e-01
1.412776999e+00,1.38444e-08,9.99999e-01,1.57962e-08,9.96698e-01,8.79338e-01
1.419840884e+00,2.94134e-08,9.99999e-01,3.12204e-08,9.96763e-01,9.45178e-01
1.426940089e+00,4.45514e-06,9.99999e-01,4.66491e-06,9.96827e-01,9.58070e-01
1.434074789e+00,3.94651e-05,9.99999e-01,4.16407e-05,9.96889e-01,9.50710e-01
1.441245163e+00,2.45716e-04,9.99999e-01,2.60337e-04,9.96951e-01,9.46723e-01
1.448451389e+00,3.28484e-03,9.99998e-01,3.45646e-03,9.97011e-01,9.53193e-01
1.455693646e+00,2.00103e-02,9.99999e-01,2.08319e-02,9.97070e-01,9.63386e-01
1.462972114e+00,2.89906e-02,9.99999e-01,3.01270e-02,9.97128e-01,9.65051e-01
1.470286975e+00,1.69787e-02,9.99999e-01,1.76326e-02,9.97184e-01,9.65635e-01
