#,Wave/freq,Total,N2,H2O,Rayleigh,CIA
4.000000000e-01,8.68307e-01,9.99999e-01,9.99983e-01,8.68320e-01,9.99999e-01
4.020000000e-01,8.70739e-01,9.99999e-01,9.99989e-01,8.70748e-01,9.99999e-01
4.040100000e-01,8.73128e-01,9.99999e-01,9.99995e-01,8.73131e-01,9.99999e-01
4.060300500e-01,8.75474e-01,9.99999e-01,9.99998e-01,8.75474e-01,9.99999e-01
4.080602003e-01,8.77777e-01,9.99999e-01,9.99999e-01,8.77777e-01,9.99999e-01
4.101005013e-01,8.80040e-01,9.99999e-01,9.99999e-01,8.80040e-01,9.99999e-01
4.121510038e-01,8.82264e-01,9.99999e-01,9.99998e-01,8.82264e-01,9.99999e-01
4.142117588e-01,8.84446e-01,9.99999e-01,9.99995e-01,8.84450e-01,9.99999e-01
4.162828176e-01,8.86580e-01,9.99999e-01,9.99979e-01,8.86598e-01,9.99999e-01
4.183642317e-01,8.88698e-01,9.99999e-01,9.99987e-01,8.88708e-01,9.99999e-01
4.204560528e-01,8.90775e-01,9.99999e-01,9.99992e-01,8.90782e-01,9.99999e-01
4.225583331e-01,8.92817e-01,9.99999e-01,9.99996e-01,8.92819e-01,9.99999e-01
4.246711247e-01,8.94819e-01,9.99999e-01,9.99997e-01,8.94821e-01,9.99999e-01
4.267944804e-01,8.96784e-01,9.99999e-01,9.99996e-01,8.96787e-01,9.99999e-01
4.289284528e-01,8.98717e-01,9.99999e-01,9.99997e-01,8.98719e-01,9.99999e-01
4.310730950e-01,9.00615e-01,9.99999e-01,9.99998e-01,9.00616e-01,9.99999e-01
4.332284605e-01,9.02480e-01,9.99999e-01,9.99999e-01,9.02480e-01,9.99999e-01
4.353946028e-01,9.04311e-01,9.99999e-01,9.99999e-01,9.04311e-01,9.99999e-01
4.375715758e-01,9.06108e-01,9.99999e-01,9.99997e-01,9.06110e-01,9.99999e-01
4.397594337e-01,9.07860e-01,9.99999e-01,9.99981e-01,9.07876e-01,9.99999e-01
4.419582309e-01,9.09529e-01,9.99999e-01,9.99909e-01,9.09611e-01,9.99999e-01
4.441680220e-01,9.11253e-01,9.99999e-01,9.99931e-01,9.11315e-01,9.99999e-01
4.463888621e-01,9.12923e-01,9.99999e-01,9.99928e-01,9.12988e-01,9.99999e-01
4.486208064e-01,9.14591e-01,9.99999e-01,9.99955e-01,9.14631e-01,9.99999e-01
4.508639105e-01,9.16226e-01,9.99999e-01,9.99978e-01,9.16244e-01,9.99999e-01
4.531182300e-01,9.17821e-01,9.99999e-01,9.99991e-01,9.17829e-01,9.99999e-01
4.553838212e-01,9.19380e-01,9.99999e-01,9.99993e-01,9.19385e-01,9.99999e-01
4.576607403e-01,9.20910e-01,9.99999e-01,9.99996e-01,9.20912e-01,9.99999e-01
4.599490440e-01,9.22411e-01,9.99999e-01,9.99997e-01,9.22412e-01,9.99999e-01
4.622487892e-01,9.23885e-01,9.99999e-01,9.99999e-01,9.23885e-01,9.99999e-01
4.645600332e-01,9.25330e-01,9.99999e-01,9.99998e-01,9.25331e-01,9.99999e-01
4.668828333e-01,9.26731e-01,9.99999e-01,9.99978e-01,9.26750e-01,9.99999e-01
4.692172475e-01,9.28102e-01,9.99999e-01,9.99954e-01,9.28144e-01,9.99999e-01
4.715633337e-01,9.29485e-01,9.99999e-01,9.99970e-01,9.29512e-01,9.99999e-01
4.739211504e-01,9.30829e-01,9.99999e-01,9.99971e-01,9.30855e-01,9.99999e-01
4.762907561e-01,9.32160e-01,9.99999e-01,9.99985e-01,9.32173e-01,9.99999e-01
4.786722099e-01,9.33462e-01,9.99999e-01,9.99993e-01,9.33467e-01,9.99999e-01
4.810655710e-01,9.34736e-01,9.99999e-01,9.99997e-01,9.34738e-01,9.99999e-01
4.834708988e-01,9.35968e-01,9.99999e-01,9.99981e-01,9.35985e-01,9.99999e-01
4.858882533e-01,9.37179e-01,9.99999e-01,9.99967e-01,9.37208e-01,9.99999e-01
4.883176946e-01,9.38385e-01,9.99999e-01,9.99972e-01,9.38410e-01,9.99999e-01
4.907592831e-01,9.39566e-01,9.99999e-01,9.99975e-01,9.39589e-01,9.99999e-01
4.932130795e-01,9.40730e-01,9.99999e-01,9.99982e-01,9.40746e-01,9.99999e-01
4.956791449e-01,9.41873e-01,9.99999e-01,9.99990e-01,9.41882e-01,9.99999e-01
4.981575406e-01,9.42953e-01,9.99999e-01,9.99954e-01,9.42996e-01,9.99999e-01
5.006483283e-01,9.43978e-01,9.99999e-01,9.99881e-01,9.44090e-01,9.99998e-01
5.031515699e-01,9.44596e-01,9.99999e-01,9.99405e-01,9.45164e-01,9.99993e-01
5.056673278e-01,9.45915e-01,9.99999e-01,9.99687e-01,9.46217e-01,9.99992e-01
5.081956644e-01,9.46874e-01,9.99999e-01,9.99606e-01,9.47251e-01,9.99995e-01
5.107366428e-01,9.48013e-01,9.99999e-01,9.99734e-01,9.48265e-01,9.99998e-01
5.132903260e-01,9.49117e-01,9.99999e-01,9.99848e-01,9.49261e-01,9.99999e-01
5.158567776e-01,9.50177e-01,9.99999e-01,9.99935e-01,9.50238e-01,9.99999e-01
5.184360615e-01,9.51172e-01,9.99999e-01,9.99973e-01,9.51196e-01,9.99999e-01
5.210282418e-01,9.52127e-01,9.99999e-01,9.99989e-01,9.52137e-01,9.99999e-01
5.236333830e-01,9.53022e-01,9.99999e-01,9.99960e-01,9.53059e-01,9.99999e-01
5.262515499e-01,9.53942e-01,9.99999e-01,9.99975e-01,9.53965e-01,9.99999e-01
5.288828077e-01,9.54832e-01,9.99999e-01,9.99977e-01,9.54853e-01,9.99999e-01
5.315272217e-01,9.55707e-01,9.99999e-01,9.99980e-01,9.55725e-01,9.99999e-01
5.341848578e-01,9.56568e-01,9.99999e-01,9.99986e-01,9.56580e-01,9.99999e-01
5.368557821e-01,9.57376e-01,9.99999e-01,9.99954e-01,9.57419e-01,9.99999e-01
5.395400610e-01,9.58083e-01,9.99999e-01,9.99834e-01,9.58243e-01,9.99997e-01
5.422377613e-01,9.58846e-01,9.99999e-01,9.99790e-01,9.59050e-01,9.99995e-01
5.449489501e-01,9.59651e-01,9.99999e-01,9.99803e-01,9.59843e-01,9.99995e-01
5.476736949e-01,9.60453e-01,9.99999e-01,9.99827e-01,9.60620e-01,9.99997e-01
5.504120634e-01,9.61262e-01,9.99999e-01,9.99874e-01,9.61383e-01,9.99998e-01
5.531641237e-01,9.62070e-01,9.99999e-01,9.99936e-01,9.62131e-01,9.99999e-01
5.559299443e-01,9.62836e-01,9.99999e-01,9.99969e-01,9.62865e-01,9.99999e-01
5.587095940e-01,9.63566e-01,9.99999e-01,9.99980e-01,9.63585e-01,9.99999e-01
5.615031420e-01,9.64271e-01,9.99999e-01,9.99978e-01,9.64291e-01,9.99999e-01
5.643106577e-01,9.64960e-01,9.99999e-01,9.99975e-01,9.64984e-01,9.99999e-01
5.671322110e-01,9.65372e-01,9.99999e-01,9.99700e-01,9.65663e-01,9.99996e-01
5.699678720e-01,9.66025e-01,9.99999e-01,9.99691e-01,9.66330e-01,9.99991e-01
5.728177114e-01,9.66663e-01,9.99999e-01,9.99674e-01,9.66984e-01,9.99992e-01
5.756818000e-01,9.67334e-01,9.99999e-01,9.99701e-01,9.67626e-01,9.99995e-01
5.785602090e-01,9.68003e-01,9.99999e-01,9.99740e-01,9.68255e-01,9.99998e-01
5.814530100e-01,9.68619e-01,9.99999e-01,9.99738e-01,9.68872e-01,9.99998e-01
5.843602750e-01,9.69172e-01,9.99999e-01,9.99685e-01,9.69477e-01,9.99997e-01
5.872820764e-01,9.67433e-01,9.99999e-01,9.97298e-01,9.70071e-01,9.99980e-01
5.902184868e-01,9.67463e-01,9.99999e-01,9.96763e-01,9.70653e-01,9.99948e-01
5.931695792e-01,9.68948e-01,9.99999e-01,9.97704e-01,9.71225e-01,9.99950e-01
5.961354271e-01,9.69319e-01,9.99999e-01,9.97490e-01,9.71785e-01,9.99971e-01
5.991161043e-01,9.70549e-01,9.99999e-01,9.98172e-01,9.72334e-01,9.99990e-01
6.021116848e-01,9.71865e-01,9.99999e-01,9.98964e-01,9.72873e-01,9.99998e-01
6.051222432e-01,9.72892e-01,9.99999e-01,9.99475e-01,9.73402e-01,9.99999e-01
6.081478544e-01,9.73700e-01,9.99999e-01,9.99773e-01,9.73920e-01,9.99999e-01
6.111885937e-01,9.74336e-01,9.99999e-01,9.99904e-01,9.74429e-01,9.99999e-01
6.142445367e-01,9.74886e-01,9.99999e-01,9.99956e-01,9.74928e-01,9.99999e-01
6.173157594e-01,9.75394e-01,9.99999e-01,9.99975e-01,9.75417e-01,9.99999e-01
6.204023382e-01,9.75877e-01,9.99999e-01,9.99979e-01,9.75896e-01,9.99999e-01
6.235043498e-01,9.76279e-01,9.99999e-01,9.99909e-01,9.76367e-01,9.99999e-01
6.266218716e-01,9.76369e-01,9.99999e-01,9.99532e-01,9.76828e-01,9.99996e-01
6.297549810e-01,9.77107e-01,9.99999e-01,9.99828e-01,9.77281e-01,9.99992e-01
6.329037559e-01,9.77389e-01,9.99999e-01,9.99662e-01,9.77724e-01,9.99994e-01
6.360682746e-01,9.77874e-01,9.99999e-01,9.99710e-01,9.78159e-01,9.99996e-01
6.392486160e-01,9.78219e-01,9.99999e-01,9.99626e-01,9.78586e-01,9.99998e-01
6.424448591e-01,9.78508e-01,9.99999e-01,9.99494e-01,9.79005e-01,9.99997e-01
6.456570834e-01,9.77107e-01,9.99999e-01,9.97656e-01,9.79415e-01,9.99985e-01
6.488853688e-01,9.78123e-01,9.99999e-01,9.98306e-01,9.79817e-01,9.99963e-01
6.521297956e-01,9.78492e-01,9.99999e-01,9.98273e-01,9.80212e-01,9.99969e-01
6.553904446e-01,9.78884e-01,9.99999e-01,9.98272e-01,9.80599e-01,9.99977e-01
6.586673968e-01,9.79528e-01,9.99999e-01,9.98528e-01,9.80979e-01,9.99992e-01
6.619607338e-01,9.80545e-01,9.99999e-01,9.99179e-01,9.81351e-01,9.99997e-01
6.652705375e-01,9.81232e-01,9.99999e-01,9.99507e-01,9.81716e-01,9.99998e-01
6.685968902e-01,9.81869e-01,9.99999e-01,9.99790e-01,9.82074e-01,9.99999e-01
6.719398746e-01,9.82321e-01,9.99999e-01,9.99893e-01,9.82425e-01,9.99999e-01
6.752995740e-01,9.82714e-01,9.99999e-01,9.99943e-01,9.82769e-01,9.99999e-01
6.786760719e-01,9.83024e-01,9.99999e-01,9.99915e-01,9.83106e-01,9.99999e-01
6.820694522e-01,9.83295e-01,9.99999e-01,9.99855e-01,9.83437e-01,9.99998e-01
6.854797995e-01,9.83579e-01,9.99999e-01,9.99815e-01,9.83762e-01,9.99997e-01
6.889071985e-01,9.83630e-01,9.99999e-01,9.99546e-01,9.84080e-01,9.99995e-01
6.923517345e-01,9.77163e-01,9.99999e-01,9.92690e-01,9.84392e-01,9.99964e-01
6.958134932e-01,9.80966e-01,9.99999e-01,9.96286e-01,9.84698e-01,9.99922e-01
6.992925606e-01,9.81370e-01,9.99999e-01,9.96386e-01,9.84998e-01,9.99930e-01
7.027890234e-01,9.80887e-01,9.99999e-01,9.95581e-01,9.85292e-01,9.99946e-01
7.063029686e-01,9.81890e-01,9.99999e-01,9.96281e-01,9.85580e-01,9.99973e-01
7.098344834e-01,9.82331e-01,9.99999e-01,9.96432e-01,9.85863e-01,9.99983e-01
7.133836558e-01,9.81351e-01,9.99999e-01,9.95173e-01,9.86140e-01,9.99968e-01
7.169505741e-01,9.48679e-01,9.99999e-01,9.61981e-01,9.86412e-01,9.99755e-01
7.205353270e-01,9.68147e-01,9.99999e-01,9.81639e-01,9.86679e-01,9.99569e-01
7.241380036e-01,9.63188e-01,9.99999e-01,9.76295e-01,9.86940e-01,9.99628e-01
7.277586936e-01,9.65788e-01,9.99999e-01,9.78610e-01,9.87196e-01,9.99695e-01
7.313974871e-01,9.65053e-01,9.99999e-01,9.77458e-01,9.87448e-01,9.99857e-01
7.350544745e-01,9.75407e-01,9.99999e-01,9.87608e-01,9.87694e-01,9.99950e-01
7.387297469e-01,9.78904e-01,9.99999e-01,9.90879e-01,9.87936e-01,9.99976e-01
7.424233956e-01,9.83763e-01,9.99999e-01,9.95541e-01,9.88172e-01,9.99995e-01
7.461355126e-01,9.85728e-01,9.99999e-01,9.97291e-01,9.88405e-01,9.99998e-01
7.498661902e-01,9.87390e-01,9.99999e-01,9.98742e-01,9.88632e-01,9.99999e-01
7.536155211e-01,9.88244e-01,9.99999e-01,9.99380e-01,9.88856e-01,9.99999e-01
7.573835987e-01,9.88760e-01,9.99999e-01,9.99681e-01,9.89075e-01,9.99999e-01
7.611705167e-01,9.89093e-01,9.99999e-01,9.99801e-01,9.89289e-01,9.99999e-01
7.649763693e-01,9.89377e-01,9.99999e-01,9.99875e-01,9.89500e-01,9.99999e-01
7.688012511e-01,9.89620e-01,9.99999e-01,9.99912e-01,9.89706e-01,9.99999e-01
7.726452574e-01,9.89838e-01,9.99999e-01,9.99928e-01,9.89908e-01,9.99999e-01
7.765084837e-01,9.90005e-01,9.99999e-01,9.99897e-01,9.90107e-01,9.99999e-01
7.803910261e-01,9.89862e-01,9.99999e-01,9.99556e-01,9.90301e-01,9.99999e-01
7.842929812e-01,9.88957e-01,9.99999e-01,9.98453e-01,9.90492e-01,9.99996e-01
7.882144461e-01,9.87534e-01,9.99999e-01,9.96846e-01,9.90679e-01,9.99977e-01
7.921555184e-01,9.89121e-01,9.99999e-01,9.98280e-01,9.90862e-01,9.99961e-01
7.961162960e-01,9.87955e-01,9.99999e-01,9.96920e-01,9.91041e-01,9.99963e-01
8.000968774e-01,9.87681e-01,9.99999e-01,9.96469e-01,9.91218e-01,9.99961e-01
8.040973618e-01,9.87854e-01,9.99999e-01,9.96461e-01,9.91390e-01,9.99970e-01
8.081178486e-01,9.83575e-01,9.99999e-01,9.91976e-01,9.91560e-01,9.99970e-01
8.121584379e-01,9.58875e-01,9.99999e-01,9.66981e-01,9.91726e-01,9.99888e-01
8.162192301e-01,9.53157e-01,9.99999e-01,9.61354e-01,9.91888e-01,9.99580e-01
8.203003262e-01,9.71819e-01,9.99999e-01,9.80088e-01,9.92048e-01,9.99509e-01
8.244018279e-01,9.65103e-01,9.99999e-01,9.73064e-01,9.92204e-01,9.99609e-01
8.285238370e-01,9.68850e-01,9.99999e-01,9.76609e-01,9.92358e-01,9.99693e-01
8.326664562e-01,9.69028e-01,9.99999e-01,9.76465e-01,9.92508e-01,9.99872e-01
8.368297885e-01,9.75942e-01,9.99999e-01,9.83190e-01,9.92656e-01,9.99970e-01
8.410139374e-01,9.82846e-01,9.99999e-01,9.89990e-01,9.92800e-01,9.99982e-01
8.452190071e-01,9.88057e-01,9.99999e-01,9.95089e-01,9.92942e-01,9.99989e-01
8.494451021e-01,9.90230e-01,9.99999e-01,9.97136e-01,9.93081e-01,9.99991e-01
8.536923276e-01,9.91537e-01,9.99999e-01,9.98312e-01,9.93217e-01,9.99994e-01
8.579607893e-01,9.92314e-01,9.99999e-01,9.98957e-01,9.93350e-01,9.99998e-01
8.622505932e-01,9.92825e-01,9.99999e-01,9.99339e-01,9.93481e-01,9.99999e-01
8.665618462e-01,9.93202e-01,9.99999e-01,9.99589e-01,9.93610e-01,9.99999e-01
8.708946554e-01,9.93267e-01,9.99999e-01,9.99528e-01,9.93735e-01,9.99999e-01
8.752491287e-01,9.93233e-01,9.99999e-01,9.99370e-01,9.93859e-01,9.99998e-01
8.796253743e-01,9.93108e-01,9.99999e-01,9.99124e-01,9.93980e-01,9.99997e-01
8.840235012e-01,9.93100e-01,9.99999e-01,9.99000e-01,9.94098e-01,9.99993e-01
8.884436187e-01,9.90495e-01,9.99999e-01,9.96275e-01,9.94214e-01,9.99982e-01
8.928858368e-01,9.56381e-01,9.99999e-01,9.61931e-01,9.94328e-01,9.99900e-01
8.973502660e-01,9.28615e-01,9.99999e-01,9.34282e-01,9.94440e-01,9.99490e-01
9.018370173e-01,9.60178e-01,9.99999e-01,9.66212e-01,9.94550e-01,9.99199e-01
9.063462024e-01,9.63791e-01,9.99999e-01,9.69649e-01,9.94657e-01,9.99296e-01
9.108779334e-01,9.47657e-01,9.99999e-01,9.53342e-01,9.94762e-01,9.99268e-01
9.154323231e-01,9.41885e-01,9.99999e-01,9.47317e-01,9.94865e-01,9.99395e-01
9.200094847e-01,9.53456e-01,9.99999e-01,9.58602e-01,9.94967e-01,9.99661e-01
9.246095321e-01,9.29104e-01,9.99999e-01,9.34074e-01,9.95066e-01,9.99609e-01
9.292325798e-01,6.33180e-01,9.99999e-01,6.37455e-01,9.95163e-01,9.98120e-01
9.338787427e-01,5.56140e-01,9.99999e-01,5.62601e-01,9.95258e-01,9.93222e-01
9.385481364e-01,7.84030e-01,9.99999e-01,7.93597e-01,9.95352e-01,9.92556e-01
9.432408771e-01,7.13387e-01,9.99999e-01,7.21286e-01,9.95443e-01,9.93574e-01
9.479570815e-01,6.30246e-01,9.99999e-01,6.36403e-01,9.95533e-01,9.94767e-01
9.526968669e-01,7.10448e-01,9.99999e-01,7.15859e-01,9.95621e-01,9.96805e-01
9.574603512e-01,7.31614e-01,9.99999e-01,7.35963e-01,9.95707e-01,9.98375e-01
9.622476530e-01,7.76001e-01,9.99999e-01,7.80155e-01,9.95792e-01,9.98876e-01
9.670588912e-01,8.62318e-01,9.99999e-01,8.66526e-01,9.95875e-01,9.99263e-01
9.718941857e-01,9.10144e-01,9.99999e-01,9.14354e-01,9.95956e-01,9.99435e-01
9.767536566e-01,9.24277e-01,9.99999e-01,9.28356e-01,9.96036e-01,9.99567e-01
9.816374249e-01,9.42769e-01,9.99999e-01,9.46588e-01,9.96114e-01,9.99849e-01
9.865456120e-01,9.62603e-01,9.99999e-01,9.66313e-01,9.96191e-01,9.99968e-01
9.914783401e-01,9.75374e-01,9.99999e-01,9.79038e-01,9.96266e-01,9.99990e-01
9.964357318e-01,9.84912e-01,9.99999e-01,9.88534e-01,9.96339e-01,9.99994e-01
1.001417910e+00,9.89548e-01,9.99999e-01,9.93119e-01,9.96411e-01,9.99991e-01
1.006425000e+00,9.92548e-01,9.99999e-01,9.96062e-01,9.96482e-01,9.99988e-01
1.011457125e+00,9.94112e-01,9.99999e-01,9.97561e-01,9.96551e-01,9.99989e-01
1.016514411e+00,9.94960e-01,9.99999e-01,9.98341e-01,9.96619e-01,9.99992e-01
1.021596983e+00,9.95361e-01,9.99999e-01,9.98677e-01,9.96686e-01,9.99992e-01
1.026704968e+00,9.95718e-01,9.99999e-01,9.98967e-01,9.96751e-01,9.99995e-01
1.031838492e+00,9.96068e-01,9.99999e-01,9.99251e-01,9.96815e-01,9.99998e-01
1.036997685e+00,9.96434e-01,9.99999e-01,9.99554e-01,9.96878e-01,9.99999e-01
1.042182673e+00,9.96408e-01,9.99999e-01,9.99465e-01,9.96940e-01,9.99999e-01
1.047393587e+00,9.96296e-01,9.99999e-01,9.99293e-01,9.97000e-01,9.99999e-01
1.052630555e+00,9.96092e-01,9.99999e-01,9.99029e-01,9.97059e-01,9.99999e-01
1.057893707e+00,9.95499e-01,9.99999e-01,9.98376e-01,9.97117e-01,9.99998e-01
1.063183176e+00,9.94514e-01,9.99999e-01,9.97332e-01,9.97174e-01,9.99998e-01
1.068499092e+00,9.92784e-01,9.99999e-01,9.95544e-01,9.97230e-01,9.99996e-01
1.073841587e+00,9.92066e-01,9.99999e-01,9.94773e-01,9.97284e-01,9.99992e-01
1.079210795e+00,9.90673e-01,9.99999e-01,9.93333e-01,9.97338e-01,9.99981e-01
1.084606849e+00,9.87277e-01,9.99999e-01,9.89901e-01,9.97391e-01,9.99956e-01
1.090029883e+00,9.82801e-01,9.99999e-01,9.85408e-01,9.97442e-01,9.99910e-01
1.095480033e+00,9.58272e-01,9.99999e-01,9.60834e-01,9.97492e-01,9.99839e-01
1.100957433e+00,9.00917e-01,9.99999e-01,9.03403e-01,9.97542e-01,9.99704e-01
1.106462220e+00,7.69290e-01,9.99999e-01,7.71534e-01,9.97590e-01,9.99498e-01
1.111994531e+00,5.79270e-01,9.99999e-01,5.81414e-01,9.97638e-01,9.98670e-01
1.117554504e+00,4.13211e-01,9.99999e-01,4.16163e-01,9.97684e-01,9.95208e-01
1.123142276e+00,5.18747e-01,9.99999e-01,5.25882e-01,9.97730e-01,9.88674e-01
1.128757988e+00,6.51296e-01,9.99999e-01,6.61405e-01,9.97775e-01,9.86910e-01
1.134401778e+00,3.99555e-01,9.99999e-01,4.04939e-01,9.97819e-01,9.88858e-01
1.140073787e+00,7.72851e-01,9.99999e-01,7.81470e-01,9.97862e-01,9.91088e-01
1.145774156e+00,5.92756e-01,9.99999e-01,5.98888e-01,9.97904e-01,9.91839e-01
1.151503026e+00,5.60444e-01,9.99999e-01,5.64167e-01,9.97945e-01,9.95445e-01
1.157260541e+00,6.19170e-01,9.99999e-01,6.21266e-01,9.97986e-01,9.98635e-01
1.163046844e+00,7.02508e-01,9.99999e-01,7.04169e-01,9.98026e-01,9.99612e-01
1.168862078e+00,7.82353e-01,9.99999e-01,7.84028e-01,9.98064e-01,9.99798e-01
1.174706389e+00,8.58676e-01,9.99999e-01,8.60546e-01,9.98103e-01,9.99721e-01
1.180579921e+00,9.10609e-01,9.99999e-01,9.12669e-01,9.98140e-01,9.99600e-01
1.186482820e+00,9.47538e-01,9.99999e-01,9.49657e-01,9.98177e-01,9.99589e-01
1.192415234e+00,9.68255e-01,9.99999e-01,9.70285e-01,9.98213e-01,9.99692e-01
1.198377311e+00,9.72853e-01,9.99999e-01,9.74844e-01,9.98248e-01,9.99708e-01
1.204369197e+00,9.74275e-01,9.99999e-01,9.76197e-01,9.98283e-01,9.99745e-01
1.210391043e+00,9.75437e-01,9.99999e-01,9.77236e-01,9.98316e-01,9.99839e-01
1.216442998e+00,9.78939e-01,9.99999e-01,9.80652e-01,9.98350e-01,9.99901e-01
1.222525213e+00,9.83241e-01,9.99999e-01,9.84893e-01,9.98382e-01,9.99938e-01
1.228637839e+00,9.87884e-01,9.99999e-01,9.89480e-01,9.98414e-01,9.99971e-01
1.234781029e+00,9.90640e-01,9.99999e-01,9.92189e-01,9.98445e-01,9.99991e-01
1.240954934e+00,9.93532e-01,9.99999e-01,9.95049e-01,9.98476e-01,9.99997e-01
1.247159708e+00,9.94659e-01,9.99999e-01,9.96147e-01,9.98506e-01,9.99998e-01
1.253395507e+00,9.95113e-01,9.99999e-01,9.96573e-01,9.98536e-01,9.99997e-01
1.259662485e+00,9.95303e-01,9.99999e-01,9.96736e-01,9.98564e-01,9.99996e-01
1.265960797e+00,9.93398e-01,9.99999e-01,9.94802e-01,9.98593e-01,9.99994e-01
1.272290601e+00,9.90436e-01,9.99999e-01,9.91812e-01,9.98621e-01,9.99990e-01
1.278652054e+00,9.82441e-01,9.99999e-01,9.83785e-01,9.98648e-01,9.99983e-01
1.285045314e+00,9.69415e-01,9.99999e-01,9.70729e-01,9.98674e-01,9.99970e-01
1.291470541e+00,9.48259e-01,9.99999e-01,9.49540e-01,9.98701e-01,9.99947e-01
1.297927893e+00,9.27703e-01,9.99999e-01,9.28974e-01,9.98726e-01,9.99903e-01
1.304417533e+00,9.15635e-01,9.99999e-01,9.16966e-01,9.98751e-01,9.99795e-01
1.310939621e+00,8.94688e-01,9.99999e-01,8.96159e-01,9.98776e-01,9.99580e-01
1.317494319e+00,8.96310e-01,9.99999e-01,8.98082e-01,9.98800e-01,9.99224e-01
1.324081790e+00,8.51057e-01,9.99999e-01,8.53138e-01,9.98824e-01,9.98734e-01
1.330702199e+00,5.13050e-01,9.99999e-01,5.14764e-01,9.98847e-01,9.97818e-01
1.337355710e+00,1.64184e-01,9.99999e-01,1.65062e-01,9.98870e-01,9.95804e-01
1.344042489e+00,1.08565e-02,9.99999e-01,1.10071e-02,9.98892e-01,9.87415e-01
1.350762701e+00,2.06973e-04,9.99999e-01,2.16378e-04,9.98914e-01,9.57569e-01
1.357516515e+00,7.81622e-06,9.99999e-01,8.88628e-06,9.98935e-01,8.80519e-01
1.364304097e+00,4.10255e-04,9.99999e-01,5.13282e-04,9.98956e-01,8.00112e-01
1.371125618e+00,4.93348e-03,9.99999e-01,6.09406e-03,9.98977e-01,8.10383e-01
1.377981246e+00,1.05643e-02,9.99999e-01,1.26633e-02,9.98997e-01,8.35084e-01
1.384871152e+00,4.52009e-04,9.99999e-01,5.35189e-04,9.99017e-01,8.45408e-01
1.391795508e+00,5.90569e-04,9.99999e-01,6.93761e-04,9.99036e-01,8.52076e-01
1.398754485e+00,1.97748e-03,9.99999e-01,2.25917e-03,9.99055e-01,8.76138e-01
1.405748258e+00,1.80851e-03,9.99999e-01,1.95567e-03,9.99074e-01,9.25610e-01
1.412776999e+00,2.07897e-03,9.99999e-01,2.15561e-03,9.99092e-01,9.65321e-01
1.419840884e+00,3.20244e-03,9.99999e-01,3.25528e-03,9.99110e-01,9.84643e-01
1.426940089e+00,1.11700e-02,9.99999e-01,1.13119e-02,9.99128e-01,9.88311e-01
1.434074789e+00,3.21544e-02,9.99999e-01,3.26315e-02,9.99145e-01,9.86221e-01
1.441245163e+00,7.11782e-02,9.99999e-01,7.23164e-02,9.99162e-01,9.85084e-01
1.448451389e+00,1.52320e-01,9.99999e-01,1.54464e-01,9.99178e-01,9.86928e-01
1.455693646e+00,2.90277e-01,9.99999e-01,2.93500e-01,9.99194e-01,9.89813e-01
1.462972114e+00,3.42931e-01,9.99999e-01,3.46570e-01,9.99210e-01,9.90282e-01
1.470286975e+00,2.87626e-01,9.99999e-01,2.90625e-01,9.99226e-01,9.90447e-01
