#,Wave/freq,Total,N2,H2O,Rayleigh,CIA
4.000000000e-01,8.98217e-01,9.99999e-01,9.99987e-01,8.98227e-01,9.99999e-01
4.020000000e-01,9.00129e-01,9.99999e-01,9.99991e-01,9.00136e-01,9.99999e-01
4.040100000e-01,9.02005e-01,9.99999e-01,9.99996e-01,9.02008e-01,9.99999e-01
4.060300500e-01,9.03847e-01,9.99999e-01,9.99998e-01,9.03848e-01,9.99999e-01
4.080602003e-01,9.05654e-01,9.99999e-01,9.99999e-01,9.05654e-01,9.99999e-01
4.101005013e-01,9.07429e-01,9.99999e-01,9.99999e-01,9.07429e-01,9.99999e-01
4.121510038e-01,9.09171e-01,9.99999e-01,9.99999e-01,9.09171e-01,9.99999e-01
4.142117588e-01,9.10880e-01,9.99999e-01,9.99996e-01,9.10883e-01,9.99999e-01
4.162828176e-01,9.12550e-01,9.99999e-01,9.99984e-01,9.12564e-01,9.99999e-01
4.183642317e-01,9.14207e-01,9.99999e-01,9.99990e-01,9.14215e-01,9.99999e-01
4.204560528e-01,9.15831e-01,9.99999e-01,9.99994e-01,9.15836e-01,9.99999e-01
4.225583331e-01,9.17426e-01,9.99999e-01,9.99997e-01,9.17428e-01,9.99999e-01
4.246711247e-01,9.18989e-01,9.99999e-01,9.99997e-01,9.18991e-01,9.99999e-01
4.267944804e-01,9.20523e-01,9.99999e-01,9.99997e-01,9.20525e-01,9.99999e-01
4.289284528e-01,9.22031e-01,9.99999e-01,9.99997e-01,9.22032e-01,9.99999e-01
4.310730950e-01,9.23511e-01,9.99999e-01,9.99998e-01,9.23512e-01,9.99999e-01
4.332284605e-01,9.24964e-01,9.99999e-01,9.99999e-01,9.24965e-01,9.99999e-01
4.353946028e-01,9.26391e-01,9.99999e-01,9.99999e-01,9.26391e-01,9.99999e-01
4.375715758e-01,9.27789e-01,9.99999e-01,9.99998e-01,9.27791e-01,9.99999e-01
4.397594337e-01,9.29153e-01,9.99999e-01,9.99986e-01,9.29165e-01,9.99999e-01
4.419582309e-01,9.30453e-01,9.99999e-01,9.99932e-01,9.30515e-01,9.99999e-01
4.441680220e-01,9.31791e-01,9.99999e-01,9.99947e-01,9.31839e-01,9.99999e-01
4.463888621e-01,9.33089e-01,9.99999e-01,9.99945e-01,9.33140e-01,9.99999e-01
4.486208064e-01,9.34384e-01,9.99999e-01,9.99965e-01,9.34416e-01,9.99999e-01
4.508639105e-01,9.35654e-01,9.99999e-01,9.99983e-01,9.35669e-01,9.99999e-01
4.531182300e-01,9.36893e-01,9.99999e-01,9.99993e-01,9.36898e-01,9.99999e-01
4.553838212e-01,9.38101e-01,9.99999e-01,9.99995e-01,9.38105e-01,9.99999e-01
4.576607403e-01,9.39288e-01,9.99999e-01,9.99997e-01,9.39290e-01,9.99999e-01
4.599490440e-01,9.40452e-01,9.99999e-01,9.99998e-01,9.40453e-01,9.99999e-01
4.622487892e-01,9.41594e-01,9.99999e-01,9.99999e-01,9.41594e-01,9.99999e-01
4.645600332e-01,9.42713e-01,9.99999e-01,9.99998e-01,9.42714e-01,9.99999e-01
4.668828333e-01,9.43798e-01,9.99999e-01,9.99983e-01,9.43813e-01,9.99999e-01
4.692172475e-01,9.44859e-01,9.99999e-01,9.99965e-01,9.44892e-01,9.99999e-01
4.715633337e-01,9.45929e-01,9.99999e-01,9.99977e-01,9.45950e-01,9.99999e-01
4.739211504e-01,9.46969e-01,9.99999e-01,9.99978e-01,9.46989e-01,9.99999e-01
4.762907561e-01,9.47998e-01,9.99999e-01,9.99988e-01,9.48008e-01,9.99999e-01
4.786722099e-01,9.49004e-01,9.99999e-01,9.99994e-01,9.49009e-01,9.99999e-01
4.810655710e-01,9.49989e-01,9.99999e-01,9.99998e-01,9.49990e-01,9.99999e-01
4.834708988e-01,9.50941e-01,9.99999e-01,9.99986e-01,9.50953e-01,9.99999e-01
4.858882533e-01,9.51876e-01,9.99999e-01,9.99975e-01,9.51898e-01,9.99999e-01
4.883176946e-01,9.52807e-01,9.99999e-01,9.99979e-01,9.52826e-01,9.99999e-01
4.907592831e-01,9.53718e-01,9.99999e-01,9.99981e-01,9.53736e-01,9.99999e-01
4.932130795e-01,9.54616e-01,9.99999e-01,9.99986e-01,9.54628e-01,9.99999e-01
4.956791449e-01,9.55498e-01,9.99999e-01,9.99992e-01,9.55504e-01,9.99999e-01
4.981575406e-01,9.56331e-01,9.99999e-01,9.99965e-01,9.56364e-01,9.99999e-01
5.006483283e-01,9.57122e-01,9.99999e-01,9.99911e-01,9.57207e-01,9.99998e-01
5.031515699e-01,9.57599e-01,9.99999e-01,9.99549e-01,9.58034e-01,9.99994e-01
5.056673278e-01,9.58613e-01,9.99999e-01,9.99761e-01,9.58846e-01,9.99994e-01
5.081956644e-01,9.59351e-01,9.99999e-01,9.99699e-01,9.59642e-01,9.99996e-01
5.107366428e-01,9.60228e-01,9.99999e-01,9.99796e-01,9.60423e-01,9.99998e-01
5.132903260e-01,9.61078e-01,9.99999e-01,9.99883e-01,9.61190e-01,9.99999e-01
5.158567776e-01,9.61894e-01,9.99999e-01,9.99950e-01,9.61941e-01,9.99999e-01
5.184360615e-01,9.62660e-01,9.99999e-01,9.99979e-01,9.62679e-01,9.99999e-01
5.210282418e-01,9.63395e-01,9.99999e-01,9.99992e-01,9.63402e-01,9.99999e-01
5.236333830e-01,9.64084e-01,9.99999e-01,9.99970e-01,9.64112e-01,9.99999e-01
5.262515499e-01,9.64790e-01,9.99999e-01,9.99981e-01,9.64808e-01,9.99999e-01
5.288828077e-01,9.65475e-01,9.99999e-01,9.99982e-01,9.65491e-01,9.99999e-01
5.315272217e-01,9.66147e-01,9.99999e-01,9.99984e-01,9.66161e-01,9.99999e-01
5.341848578e-01,9.66809e-01,9.99999e-01,9.99989e-01,9.66819e-01,9.99999e-01
5.368557821e-01,9.67430e-01,9.99999e-01,9.99965e-01,9.67463e-01,9.99999e-01
5.395400610e-01,9.67976e-01,9.99999e-01,9.99876e-01,9.68095e-01,9.99998e-01
5.422377613e-01,9.68558e-01,9.99999e-01,9.99840e-01,9.68716e-01,9.99996e-01
5.449489501e-01,9.69178e-01,9.99999e-01,9.99851e-01,9.69324e-01,9.99996e-01
5.476736949e-01,9.69792e-01,9.99999e-01,9.99868e-01,9.69921e-01,9.99998e-01
5.504120634e-01,9.70413e-01,9.99999e-01,9.99904e-01,9.70506e-01,9.99999e-01
5.531641237e-01,9.71033e-01,9.99999e-01,9.99951e-01,9.71080e-01,9.99999e-01
5.559299443e-01,9.71621e-01,9.99999e-01,9.99976e-01,9.71643e-01,9.99999e-01
5.587095940e-01,9.72181e-01,9.99999e-01,9.99985e-01,9.72195e-01,9.99999e-01
5.615031420e-01,9.72721e-01,9.99999e-01,9.99983e-01,9.72737e-01,9.99999e-01
5.643106577e-01,9.73250e-01,9.99999e-01,9.99981e-01,9.73268e-01,9.99999e-01
5.671322110e-01,9.73572e-01,9.99999e-01,9.99778e-01,9.73789e-01,9.99997e-01
5.699678720e-01,9.74063e-01,9.99999e-01,9.99761e-01,9.74300e-01,9.99993e-01
5.728177114e-01,9.74556e-01,9.99999e-01,9.99753e-01,9.74801e-01,9.99994e-01
5.756818000e-01,9.75069e-01,9.99999e-01,9.99773e-01,9.75293e-01,9.99996e-01
5.785602090e-01,9.75581e-01,9.99999e-01,9.99802e-01,9.75775e-01,9.99998e-01
5.814530100e-01,9.76054e-01,9.99999e-01,9.99801e-01,9.76248e-01,9.99999e-01
5.843602750e-01,9.76480e-01,9.99999e-01,9.99764e-01,9.76711e-01,9.99998e-01
5.872820764e-01,9.75167e-01,9.99999e-01,9.97967e-01,9.77166e-01,9.99985e-01
5.902184868e-01,9.75161e-01,9.99999e-01,9.97530e-01,9.77612e-01,9.99960e-01
5.931695792e-01,9.76308e-01,9.99999e-01,9.98256e-01,9.78049e-01,9.99962e-01
5.961354271e-01,9.76587e-01,9.99999e-01,9.98088e-01,9.78478e-01,9.99977e-01
5.991161043e-01,9.77527e-01,9.99999e-01,9.98605e-01,9.78899e-01,9.99992e-01
6.021116848e-01,9.78535e-01,9.99999e-01,9.99207e-01,9.79311e-01,9.99998e-01
6.051222432e-01,9.79323e-01,9.99999e-01,9.99598e-01,9.79716e-01,9.99999e-01
6.081478544e-01,9.79943e-01,9.99999e-01,9.99826e-01,9.80112e-01,9.99999e-01
6.111885937e-01,9.80429e-01,9.99999e-01,9.99926e-01,9.80501e-01,9.99999e-01
6.142445367e-01,9.80851e-01,9.99999e-01,9.99966e-01,9.80883e-01,9.99999e-01
6.173157594e-01,9.81239e-01,9.99999e-01,9.99981e-01,9.81257e-01,9.99999e-01
6.204023382e-01,9.81609e-01,9.99999e-01,9.99984e-01,9.81623e-01,9.99999e-01
6.235043498e-01,9.81918e-01,9.99999e-01,9.99932e-01,9.81983e-01,9.99999e-01
6.266218716e-01,9.81985e-01,9.99999e-01,9.99644e-01,9.82336e-01,9.99997e-01
6.297549810e-01,9.82549e-01,9.99999e-01,9.99869e-01,9.82682e-01,9.99994e-01
6.329037559e-01,9.82764e-01,9.99999e-01,9.99742e-01,9.83021e-01,9.99995e-01
6.360682746e-01,9.83136e-01,9.99999e-01,9.99780e-01,9.83353e-01,9.99997e-01
6.392486160e-01,9.83399e-01,9.99999e-01,9.99715e-01,9.83679e-01,9.99998e-01
6.424448591e-01,9.83625e-01,9.99999e-01,9.99620e-01,9.83999e-01,9.99997e-01
6.456570834e-01,9.82572e-01,9.99999e-01,9.98240e-01,9.84313e-01,9.99989e-01
6.488853688e-01,9.83320e-01,9.99999e-01,9.98706e-01,9.84620e-01,9.99972e-01
6.521297956e-01,9.83601e-01,9.99999e-01,9.98681e-01,9.84922e-01,9.99976e-01
6.553904446e-01,9.83916e-01,9.99999e-01,9.98695e-01,9.85217e-01,9.99982e-01
6.586673968e-01,9.84395e-01,9.99999e-01,9.98876e-01,9.85507e-01,9.99993e-01
6.619607338e-01,9.85150e-01,9.99999e-01,9.99350e-01,9.85791e-01,9.99998e-01
6.652705375e-01,9.85699e-01,9.99999e-01,9.99623e-01,9.86070e-01,9.99998e-01
6.685968902e-01,9.86171e-01,9.99999e-01,9.99824e-01,9.86343e-01,9.99999e-01
6.719398746e-01,9.86531e-01,9.99999e-01,9.99918e-01,9.86611e-01,9.99999e-01
6.752995740e-01,9.86831e-01,9.99999e-01,9.99955e-01,9.86874e-01,9.99999e-01
6.786760719e-01,9.87069e-01,9.99999e-01,9.99936e-01,9.87131e-01,9.99999e-01
6.820694522e-01,9.87277e-01,9.99999e-01,9.99891e-01,9.87384e-01,9.99998e-01
6.854797995e-01,9.87493e-01,9.99999e-01,9.99860e-01,9.87632e-01,9.99998e-01
6.889071985e-01,9.87540e-01,9.99999e-01,9.99663e-01,9.87874e-01,9.99996e-01
6.923517345e-01,9.82648e-01,9.99999e-01,9.94495e-01,9.88112e-01,9.99973e-01
6.958134932e-01,9.85435e-01,9.99999e-01,9.97113e-01,9.88346e-01,9.99939e-01
6.992925606e-01,9.85833e-01,9.99999e-01,9.97278e-01,9.88575e-01,9.99947e-01
7.027890234e-01,9.85428e-01,9.99999e-01,9.96630e-01,9.88799e-01,9.99959e-01
7.063029686e-01,9.86200e-01,9.99999e-01,9.97168e-01,9.89019e-01,9.99979e-01
7.098344834e-01,9.86536e-01,9.99999e-01,9.97283e-01,9.89235e-01,9.99987e-01
7.133836558e-01,9.85856e-01,9.99999e-01,9.96394e-01,9.89446e-01,9.99975e-01
7.169505741e-01,9.60943e-01,9.99999e-01,9.71168e-01,9.89654e-01,9.99814e-01
7.205353270e-01,9.75401e-01,9.99999e-01,9.85717e-01,9.89857e-01,9.99672e-01
7.241380036e-01,9.71958e-01,9.99999e-01,9.81996e-01,9.90056e-01,9.99717e-01
7.277586936e-01,9.73920e-01,9.99999e-01,9.83734e-01,9.90252e-01,9.99768e-01
7.313974871e-01,9.73193e-01,9.99999e-01,9.82689e-01,9.90443e-01,9.99891e-01
7.350544745e-01,9.81207e-01,9.99999e-01,9.90522e-01,9.90631e-01,9.99961e-01
7.387297469e-01,9.83884e-01,9.99999e-01,9.93020e-01,9.90815e-01,9.99982e-01
7.424233956e-01,9.87603e-01,9.99999e-01,9.96579e-01,9.90996e-01,9.99996e-01
7.461355126e-01,9.89118e-01,9.99999e-01,9.97927e-01,9.91173e-01,9.99998e-01
7.498661902e-01,9.90389e-01,9.99999e-01,9.99033e-01,9.91347e-01,9.99999e-01
7.536155211e-01,9.91047e-01,9.99999e-01,9.99526e-01,9.91517e-01,9.99999e-01
7.573835987e-01,9.91442e-01,9.99999e-01,9.99755e-01,9.91684e-01,9.99999e-01
7.611705167e-01,9.91697e-01,9.99999e-01,9.99848e-01,9.91847e-01,9.99999e-01
7.649763693e-01,9.91914e-01,9.99999e-01,9.99904e-01,9.92008e-01,9.99999e-01
7.688012511e-01,9.92099e-01,9.99999e-01,9.99933e-01,9.92165e-01,9.99999e-01
7.726452574e-01,9.92265e-01,9.99999e-01,9.99945e-01,9.92319e-01,9.99999e-01
7.765084837e-01,9.92394e-01,9.99999e-01,9.99922e-01,9.92470e-01,9.99999e-01
7.803910261e-01,9.92288e-01,9.99999e-01,9.99667e-01,9.92618e-01,9.99999e-01
7.842929812e-01,9.91609e-01,9.99999e-01,9.98839e-01,9.92764e-01,9.99997e-01
7.882144461e-01,9.90511e-01,9.99999e-01,9.97602e-01,9.92906e-01,9.99984e-01
7.921555184e-01,9.91709e-01,9.99999e-01,9.98682e-01,9.93046e-01,9.99971e-01
7.961162960e-01,9.90852e-01,9.99999e-01,9.97680e-01,9.93182e-01,9.99972e-01
8.000968774e-01,9.90623e-01,9.99999e-01,9.97316e-01,9.93317e-01,9.99970e-01
8.040973618e-01,9.90760e-01,9.99999e-01,9.97316e-01,9.93448e-01,9.99976e-01
8.081178486e-01,9.87564e-01,9.99999e-01,9.93968e-01,9.93577e-01,9.99977e-01
8.121584379e-01,9.68793e-01,9.99999e-01,9.75013e-01,9.93704e-01,9.99914e-01
8.162192301e-01,9.63984e-01,9.99999e-01,9.70278e-01,9.93828e-01,9.99681e-01
8.203003262e-01,9.78785e-01,9.99999e-01,9.85110e-01,9.93949e-01,9.99627e-01
8.244018279e-01,9.72921e-01,9.99999e-01,9.79016e-01,9.94068e-01,9.99703e-01
8.285238370e-01,9.76288e-01,9.99999e-01,9.82226e-01,9.94185e-01,9.99766e-01
8.326664562e-01,9.76309e-01,9.99999e-01,9.82000e-01,9.94300e-01,9.99903e-01
8.368297885e-01,9.81587e-01,9.99999e-01,9.87124e-01,9.94412e-01,9.99977e-01
8.410139374e-01,9.86886e-01,9.99999e-01,9.92334e-01,9.94522e-01,9.99986e-01
8.452190071e-01,9.90878e-01,9.99999e-01,9.96234e-01,9.94630e-01,9.99991e-01
8.494451021e-01,9.92559e-01,9.99999e-01,9.97817e-01,9.94736e-01,9.99993e-01
8.536923276e-01,9.93550e-01,9.99999e-01,9.98707e-01,9.94839e-01,9.99995e-01
8.579607893e-01,9.94149e-01,9.99999e-01,9.99204e-01,9.94941e-01,9.99998e-01
8.622505932e-01,9.94538e-01,9.99999e-01,9.99494e-01,9.95041e-01,9.99999e-01
8.665618462e-01,9.94828e-01,9.99999e-01,9.99687e-01,9.95138e-01,9.99999e-01
8.708946554e-01,9.94879e-01,9.99999e-01,9.99642e-01,9.95234e-01,9.99999e-01
8.752491287e-01,9.94852e-01,9.99999e-01,9.99521e-01,9.95328e-01,9.99999e-01
8.796253743e-01,9.94761e-01,9.99999e-01,9.99338e-01,9.95420e-01,9.99998e-01
8.840235012e-01,9.94754e-01,9.99999e-01,9.99244e-01,9.95510e-01,9.99994e-01
8.884436187e-01,9.92856e-01,9.99999e-01,9.97257e-01,9.95599e-01,9.99986e-01
8.928858368e-01,9.66992e-01,9.99999e-01,9.71255e-01,9.95685e-01,9.99924e-01
8.973502660e-01,9.45089e-01,9.99999e-01,9.49470e-01,9.95770e-01,9.99612e-01
9.018370173e-01,9.69184e-01,9.99999e-01,9.73810e-01,9.95854e-01,9.99391e-01
9.063462024e-01,9.72577e-01,9.99999e-01,9.77067e-01,9.95936e-01,9.99465e-01
9.108779334e-01,9.60016e-01,9.99999e-01,9.64391e-01,9.96016e-01,9.99444e-01
9.154323231e-01,9.55465e-01,9.99999e-01,9.59651e-01,9.96094e-01,9.99540e-01
9.200094847e-01,9.64254e-01,9.99999e-01,9.68208e-01,9.96171e-01,9.99742e-01
9.246095321e-01,9.46807e-01,9.99999e-01,9.50654e-01,9.96247e-01,9.99703e-01
9.292325798e-01,7.06554e-01,9.99999e-01,7.09982e-01,9.96321e-01,9.98845e-01
9.338787427e-01,6.35790e-01,9.99999e-01,6.41144e-01,9.96393e-01,9.95237e-01
9.385481364e-01,8.28520e-01,9.99999e-01,8.36193e-01,9.96464e-01,9.94338e-01
9.432408771e-01,7.71994e-01,9.99999e-01,7.78482e-01,9.96534e-01,9.95113e-01
9.479570815e-01,7.00900e-01,9.99999e-01,7.06098e-01,9.96602e-01,9.96021e-01
9.526968669e-01,7.67256e-01,9.99999e-01,7.71694e-01,9.96669e-01,9.97570e-01
9.574603512e-01,7.87086e-01,9.99999e-01,7.90640e-01,9.96735e-01,9.98765e-01
9.622476530e-01,8.23030e-01,9.99999e-01,8.26378e-01,9.96799e-01,9.99145e-01
9.670588912e-01,8.92810e-01,9.99999e-01,8.96142e-01,9.96862e-01,9.99415e-01
9.718941857e-01,9.30780e-01,9.99999e-01,9.34052e-01,9.96924e-01,9.99569e-01
9.767536566e-01,9.41811e-01,9.99999e-01,9.44969e-01,9.96985e-01,9.99670e-01
9.816374249e-01,9.55984e-01,9.99999e-01,9.58926e-01,9.97044e-01,9.99885e-01
9.865456120e-01,9.71309e-01,9.99999e-01,9.74153e-01,9.97103e-01,9.99975e-01
9.914783401e-01,9.81158e-01,9.99999e-01,9.83958e-01,9.97160e-01,9.99992e-01
9.964357318e-01,9.88470e-01,9.99999e-01,9.91233e-01,9.97216e-01,9.99995e-01
1.001417910e+00,9.92018e-01,9.99999e-01,9.94737e-01,9.97271e-01,9.99993e-01
1.006425000e+00,9.94325e-01,9.99999e-01,9.96999e-01,9.97324e-01,9.99991e-01
1.011457125e+00,9.95510e-01,9.99999e-01,9.98135e-01,9.97377e-01,9.99991e-01
1.016514411e+00,9.96162e-01,9.99999e-01,9.98734e-01,9.97429e-01,9.99994e-01
1.021596983e+00,9.96469e-01,9.99999e-01,9.98991e-01,9.97480e-01,9.99994e-01
1.026704968e+00,9.96742e-01,9.99999e-01,9.99213e-01,9.97529e-01,9.99995e-01
1.031838492e+00,9.97007e-01,9.99999e-01,9.99428e-01,9.97578e-01,9.99998e-01
1.036997685e+00,9.97287e-01,9.99999e-01,9.99660e-01,9.97626e-01,9.99999e-01
1.042182673e+00,9.97270e-01,9.99999e-01,9.99595e-01,9.97673e-01,9.99999e-01
1.047393587e+00,9.97184e-01,9.99999e-01,9.99463e-01,9.97719e-01,9.99999e-01
1.052630555e+00,9.97030e-01,9.99999e-01,9.99264e-01,9.97764e-01,9.99999e-01
1.057893707e+00,9.96583e-01,9.99999e-01,9.98772e-01,9.97808e-01,9.99999e-01
1.063183176e+00,9.95835e-01,9.99999e-01,9.97979e-01,9.97851e-01,9.99998e-01
1.068499092e+00,9.94515e-01,9.99999e-01,9.96616e-01,9.97893e-01,9.99997e-01
1.073841587e+00,9.93981e-01,9.99999e-01,9.96042e-01,9.97935e-01,9.99994e-01
1.079210795e+00,9.92899e-01,9.99999e-01,9.94926e-01,9.97976e-01,9.99985e-01
1.084606849e+00,9.90329e-01,9.99999e-01,9.92330e-01,9.98015e-01,9.99966e-01
1.090029883e+00,9.87025e-01,9.99999e-01,9.89014e-01,9.98055e-01,9.99932e-01
1.095480033e+00,9.68353e-01,9.99999e-01,9.70321e-01,9.98093e-01,9.99877e-01
1.100957433e+00,9.24230e-01,9.99999e-01,9.26168e-01,9.98131e-01,9.99775e-01
1.106462220e+00,8.20385e-01,9.99999e-01,8.22204e-01,9.98167e-01,9.99618e-01
1.111994531e+00,6.59128e-01,9.99999e-01,6.60982e-01,9.98204e-01,9.98989e-01
1.117554504e+00,5.07586e-01,9.99999e-01,5.10340e-01,9.98239e-01,9.96356e-01
1.123142276e+00,5.99662e-01,9.99999e-01,6.05920e-01,9.98274e-01,9.91381e-01
1.128757988e+00,7.19593e-01,9.99999e-01,7.28065e-01,9.98308e-01,9.90036e-01
1.134401778e+00,4.73360e-01,9.99999e-01,4.78201e-01,9.98341e-01,9.91521e-01
1.140073787e+00,8.21917e-01,9.99999e-01,8.28874e-01,9.98374e-01,9.93220e-01
1.145774156e+00,6.68536e-01,9.99999e-01,6.73785e-01,9.98406e-01,9.93792e-01
1.151503026e+00,6.39840e-01,9.99999e-01,6.43068e-01,9.98437e-01,9.96536e-01
1.157260541e+00,6.93001e-01,9.99999e-01,6.94783e-01,9.98468e-01,9.98962e-01
1.163046844e+00,7.62900e-01,9.99999e-01,7.64271e-01,9.98498e-01,9.99705e-01
1.168862078e+00,8.28939e-01,9.99999e-01,8.30286e-01,9.98528e-01,9.99848e-01
1.174706389e+00,8.90140e-01,9.99999e-01,8.91605e-01,9.98557e-01,9.99798e-01
1.180579921e+00,9.30959e-01,9.99999e-01,9.32560e-01,9.98586e-01,9.99696e-01
1.186482820e+00,9.59739e-01,9.99999e-01,9.61370e-01,9.98613e-01,9.99688e-01
1.192415234e+00,9.75739e-01,9.99999e-01,9.77294e-01,9.98641e-01,9.99766e-01
1.198377311e+00,9.79317e-01,9.99999e-01,9.80839e-01,9.98668e-01,9.99779e-01
1.204369197e+00,9.80367e-01,9.99999e-01,9.81844e-01,9.98694e-01,9.99800e-01
1.210391043e+00,9.81260e-01,9.99999e-01,9.82636e-01,9.98720e-01,9.99878e-01
1.216442998e+00,9.83891e-01,9.99999e-01,9.85199e-01,9.98745e-01,9.99925e-01
1.222525213e+00,9.87207e-01,9.99999e-01,9.88467e-01,9.98770e-01,9.99953e-01
1.228637839e+00,9.90765e-01,9.99999e-01,9.91981e-01,9.98794e-01,9.99978e-01
1.234781029e+00,9.92857e-01,9.99999e-01,9.94038e-01,9.98818e-01,9.99993e-01
1.240954934e+00,9.95073e-01,9.99999e-01,9.96228e-01,9.98841e-01,9.99997e-01
1.247159708e+00,9.95928e-01,9.99999e-01,9.97061e-01,9.98864e-01,9.99998e-01
1.253395507e+00,9.96281e-01,9.99999e-01,9.97392e-01,9.98886e-01,9.99998e-01
1.259662485e+00,9.96434e-01,9.99999e-01,9.97524e-01,9.98908e-01,9.99997e-01
1.265960797e+00,9.94974e-01,9.99999e-01,9.96043e-01,9.98930e-01,9.99995e-01
1.272290601e+00,9.92748e-01,9.99999e-01,9.93796e-01,9.98951e-01,9.99992e-01
1.278652054e+00,9.86664e-01,9.99999e-01,9.87690e-01,9.98972e-01,9.99987e-01
1.285045314e+00,9.79709e-01,9.99999e-01,9.80718e-01,9.98992e-01,9.99977e-01
1.291470541e+00,9.60624e-01,9.99999e-01,9.61611e-01,9.99012e-01,9.99960e-01
1.297927893e+00,9.49144e-01,9.99999e-01,9.50133e-01,9.99031e-01,9.99926e-01
1.304417533e+00,9.35154e-01,9.99999e-01,9.36187e-01,9.99050e-01,9.99844e-01
1.310939621e+00,9.26184e-01,9.99999e-01,9.27342e-01,9.99069e-01,9.99681e-01
1.317494319e+00,9.19898e-01,9.99999e-01,9.21280e-01,9.99087e-01,9.99410e-01
1.324081790e+00,8.82718e-01,9.99999e-01,8.84358e-01,9.99105e-01,9.99037e-01
1.330702199e+00,5.96503e-01,9.99999e-01,5.98018e-01,9.99123e-01,9.98341e-01
1.337355710e+00,2.75285e-01,9.99999e-01,2.76403e-01,9.99140e-01,9.96809e-01
1.344042489e+00,3.36303e-02,9.99999e-01,3.39842e-02,9.99157e-01,9.90421e-01
1.350762701e+00,1.16786e-03,9.99999e-01,1.20798e-03,9.99174e-01,9.67587e-01
1.357516515e+00,1.05845e-04,9.99999e-01,1.16686e-04,9.99190e-01,9.07828e-01
1.364304097e+00,1.98343e-03,9.99999e-01,2.35159e-03,9.99206e-01,8.44109e-01
1.371125618e+00,1.45008e-02,9.99999e-01,1.70263e-02,9.99222e-01,8.52332e-01
1.377981246e+00,2.76406e-02,9.99999e-01,3.17220e-02,9.99237e-01,8.72003e-01
1.384871152e+00,1.84132e-03,9.99999e-01,2.09642e-03,9.99252e-01,8.78973e-01
1.391795508e+00,2.88255e-03,9.99999e-01,3.25932e-03,9.99267e-01,8.85048e-01
1.398754485e+00,6.69082e-03,9.99999e-01,7.40343e-03,9.99281e-01,9.04393e-01
1.405748258e+00,6.53360e-03,9.99999e-01,6.93379e-03,9.99296e-01,9.42945e-01
1.412776999e+00,7.41804e-03,9.99999e-01,7.62495e-03,9.99310e-01,9.73534e-01
1.419840884e+00,1.03043e-02,9.99999e-01,1.04333e-02,9.99323e-01,9.88307e-01
1.426940089e+00,2.77659e-02,9.99999e-01,2.80336e-02,9.99336e-01,9.91104e-01
1.434074789e+00,6.41752e-02,9.99999e-01,6.48976e-02,9.99350e-01,9.89511e-01
1.441245163e+00,1.27584e-01,9.99999e-01,1.29131e-01,9.99362e-01,9.88644e-01
1.448451389e+00,2.28236e-01,9.99999e-01,2.30673e-01,9.99375e-01,9.90050e-01
1.455693646e+00,3.81975e-01,9.99999e-01,3.85194e-01,9.99387e-01,9.92249e-01
1.462972114e+00,4.39315e-01,9.99999e-01,4.42852e-01,9.99399e-01,9.92606e-01
1.470286975e+00,3.82513e-01,9.99999e-01,3.85540e-01,9.99411e-01,9.92732e-01
