#,Wave/freq,Total,N2,H2O,Rayleigh,CIA
4.000000000e-01,9.31156e-01,9.99999e-01,9.99991e-01,9.31163e-01,9.99999e-01
4.020000000e-01,9.32473e-01,9.99999e-01,9.99994e-01,9.32477e-01,9.99999e-01
4.040100000e-01,9.33764e-01,9.99999e-01,9.99997e-01,9.33766e-01,9.99999e-01
4.060300500e-01,9.35030e-01,9.99999e-01,9.99999e-01,9.35031e-01,9.99999e-01
4.080602003e-01,9.36272e-01,9.99999e-01,9.99999e-01,9.36272e-01,9.99999e-01
4.101005013e-01,9.37491e-01,9.99999e-01,9.99999e-01,9.37491e-01,9.99999e-01
4.121510038e-01,9.38686e-01,9.99999e-01,9.99999e-01,9.38687e-01,9.99999e-01
4.142117588e-01,9.39858e-01,9.99999e-01,9.99997e-01,9.39861e-01,9.99999e-01
4.162828176e-01,9.41003e-01,9.99999e-01,9.99989e-01,9.41013e-01,9.99999e-01
4.183642317e-01,9.42138e-01,9.99999e-01,9.99993e-01,9.42143e-01,9.99999e-01
4.204560528e-01,9.43250e-01,9.99999e-01,9.99995e-01,9.43253e-01,9.99999e-01
4.225583331e-01,9.44341e-01,9.99999e-01,9.99998e-01,9.44342e-01,9.99999e-01
4.246711247e-01,9.45410e-01,9.99999e-01,9.99998e-01,9.45411e-01,9.99999e-01
4.267944804e-01,9.46458e-01,9.99999e-01,9.99997e-01,9.46460e-01,9.99999e-01
4.289284528e-01,9.47488e-01,9.99999e-01,9.99998e-01,9.47489e-01,9.99999e-01
4.310730950e-01,9.48499e-01,9.99999e-01,9.99998e-01,9.48499e-01,9.99999e-01
4.332284605e-01,9.49490e-01,9.99999e-01,9.99999e-01,9.49490e-01,9.99999e-01
4.353946028e-01,9.50463e-01,9.99999e-01,9.99999e-01,9.50463e-01,9.99999e-01
4.375715758e-01,9.51416e-01,9.99999e-01,9.99998e-01,9.51417e-01,9.99999e-01
4.397594337e-01,9.52345e-01,9.99999e-01,9.99990e-01,9.52353e-01,9.99999e-01
4.419582309e-01,9.53230e-01,9.99999e-01,9.99954e-01,9.53272e-01,9.99999e-01
4.441680220e-01,9.54141e-01,9.99999e-01,9.99964e-01,9.54174e-01,9.99999e-01
4.463888621e-01,9.55024e-01,9.99999e-01,9.99963e-01,9.55058e-01,9.99999e-01
4.486208064e-01,9.55905e-01,9.99999e-01,9.99977e-01,9.55926e-01,9.99999e-01
4.508639105e-01,9.56768e-01,9.99999e-01,9.99989e-01,9.56778e-01,9.99999e-01
4.531182300e-01,9.57609e-01,9.99999e-01,9.99995e-01,9.57613e-01,9.99999e-01
4.553838212e-01,9.58430e-01,9.99999e-01,9.99996e-01,9.58432e-01,9.99999e-01
4.576607403e-01,9.59235e-01,9.99999e-01,9.99998e-01,9.59237e-01,9.99999e-01
4.599490440e-01,9.60025e-01,9.99999e-01,9.99998e-01,9.60025e-01,9.99999e-01
4.622487892e-01,9.60799e-01,9.99999e-01,9.99999e-01,9.60799e-01,9.99999e-01
4.645600332e-01,9.61558e-01,9.99999e-01,9.99998e-01,9.61559e-01,9.99999e-01
4.668828333e-01,9.62293e-01,9.99999e-01,9.99988e-01,9.62303e-01,9.99999e-01
4.692172475e-01,9.63012e-01,9.99999e-01,9.99976e-01,9.63034e-01,9.99999e-01
4.715633337e-01,9.63736e-01,9.99999e-01,9.99984e-01,9.63751e-01,9.99999e-01
4.739211504e-01,9.64440e-01,9.99999e-01,9.99985e-01,9.64454e-01,9.99999e-01
4.762907561e-01,9.65136e-01,9.99999e-01,9.99992e-01,9.65144e-01,9.99999e-01
4.786722099e-01,9.65817e-01,9.99999e-01,9.99996e-01,9.65820e-01,9.99999e-01
4.810655710e-01,9.66483e-01,9.99999e-01,9.99998e-01,9.66484e-01,9.99999e-01
4.834708988e-01,9.67126e-01,9.99999e-01,9.99990e-01,9.67135e-01,9.99999e-01
4.858882533e-01,9.67758e-01,9.99999e-01,9.99983e-01,9.67773e-01,9.99999e-01
4.883176946e-01,9.68387e-01,9.99999e-01,9.99986e-01,9.68400e-01,9.99999e-01
4.907592831e-01,9.69002e-01,9.99999e-01,9.99987e-01,9.69014e-01,9.99999e-01
4.932130795e-01,9.69608e-01,9.99999e-01,9.99990e-01,9.69617e-01,9.99999e-01
4.956791449e-01,9.70203e-01,9.99999e-01,9.99994e-01,9.70208e-01,9.99999e-01
4.981575406e-01,9.70766e-01,9.99999e-01,9.99976e-01,9.70788e-01,9.99999e-01
5.006483283e-01,9.71298e-01,9.99999e-01,9.99940e-01,9.71356e-01,9.99999e-01
5.031515699e-01,9.71620e-01,9.99999e-01,9.99699e-01,9.71914e-01,9.99996e-01
5.056673278e-01,9.72304e-01,9.99999e-01,9.99841e-01,9.72461e-01,9.99995e-01
5.081956644e-01,9.72802e-01,9.99999e-01,9.99800e-01,9.72998e-01,9.99997e-01
5.107366428e-01,9.73393e-01,9.99999e-01,9.99865e-01,9.73524e-01,9.99999e-01
5.132903260e-01,9.73965e-01,9.99999e-01,9.99922e-01,9.74040e-01,9.99999e-01
5.158567776e-01,9.74515e-01,9.99999e-01,9.99967e-01,9.74546e-01,9.99999e-01
5.184360615e-01,9.75030e-01,9.99999e-01,9.99986e-01,9.75043e-01,9.99999e-01
5.210282418e-01,9.75525e-01,9.99999e-01,9.99994e-01,9.75529e-01,9.99999e-01
5.236333830e-01,9.75988e-01,9.99999e-01,9.99980e-01,9.76007e-01,9.99999e-01
5.262515499e-01,9.76463e-01,9.99999e-01,9.99987e-01,9.76475e-01,9.99999e-01
5.288828077e-01,9.76923e-01,9.99999e-01,9.99988e-01,9.76934e-01,9.99999e-01
5.315272217e-01,9.77375e-01,9.99999e-01,9.99989e-01,9.77385e-01,9.99999e-01
5.341848578e-01,9.77820e-01,9.99999e-01,9.99993e-01,9.77827e-01,9.99999e-01
5.368557821e-01,9.78237e-01,9.99999e-01,9.99976e-01,9.78260e-01,9.99999e-01
5.395400610e-01,9.78603e-01,9.99999e-01,9.99917e-01,9.78684e-01,9.99998e-01
5.422377613e-01,9.78996e-01,9.99999e-01,9.99893e-01,9.79101e-01,9.99997e-01
5.449489501e-01,9.79411e-01,9.99999e-01,9.99900e-01,9.79510e-01,9.99997e-01
5.476736949e-01,9.79824e-01,9.99999e-01,9.99912e-01,9.79910e-01,9.99998e-01
5.504120634e-01,9.80241e-01,9.99999e-01,9.99936e-01,9.80303e-01,9.99999e-01
5.531641237e-01,9.80657e-01,9.99999e-01,9.99967e-01,9.80688e-01,9.99999e-01
5.559299443e-01,9.81051e-01,9.99999e-01,9.99984e-01,9.81066e-01,9.99999e-01
5.587095940e-01,9.81427e-01,9.99999e-01,9.99989e-01,9.81437e-01,9.99999e-01
5.615031420e-01,9.81789e-01,9.99999e-01,9.99988e-01,9.81800e-01,9.99999e-01
5.643106577e-01,9.82144e-01,9.99999e-01,9.99987e-01,9.82156e-01,9.99999e-01
5.671322110e-01,9.82358e-01,9.99999e-01,9.99850e-01,9.82506e-01,9.99998e-01
5.699678720e-01,9.82690e-01,9.99999e-01,9.99842e-01,9.82848e-01,9.99995e-01
5.728177114e-01,9.83019e-01,9.99999e-01,9.99835e-01,9.83184e-01,9.99996e-01
5.756818000e-01,9.83364e-01,9.99999e-01,9.99849e-01,9.83513e-01,9.99997e-01
5.785602090e-01,9.83707e-01,9.99999e-01,9.99868e-01,9.83836e-01,9.99998e-01
5.814530100e-01,9.84023e-01,9.99999e-01,9.99867e-01,9.84153e-01,9.99999e-01
5.843602750e-01,9.84308e-01,9.99999e-01,9.99842e-01,9.84464e-01,9.99998e-01
5.872820764e-01,9.83421e-01,9.99999e-01,9.98641e-01,9.84768e-01,9.99990e-01
5.902184868e-01,9.83427e-01,9.99999e-01,9.98360e-01,9.85067e-01,9.99973e-01
5.931695792e-01,9.84193e-01,9.99999e-01,9.98840e-01,9.85359e-01,9.99974e-01
5.961354271e-01,9.84381e-01,9.99999e-01,9.98730e-01,9.85647e-01,9.99985e-01
5.991161043e-01,9.85012e-01,9.99999e-01,9.99074e-01,9.85928e-01,9.99995e-01
6.021116848e-01,9.85686e-01,9.99999e-01,9.99474e-01,9.86204e-01,9.99999e-01
6.051222432e-01,9.86213e-01,9.99999e-01,9.99734e-01,9.86475e-01,9.99999e-01
6.081478544e-01,9.86627e-01,9.99999e-01,9.99885e-01,9.86740e-01,9.99999e-01
6.111885937e-01,9.86953e-01,9.99999e-01,9.99951e-01,9.87000e-01,9.99999e-01
6.142445367e-01,9.87234e-01,9.99999e-01,9.99977e-01,9.87255e-01,9.99999e-01
6.173157594e-01,9.87494e-01,9.99999e-01,9.99987e-01,9.87506e-01,9.99999e-01
6.204023382e-01,9.87741e-01,9.99999e-01,9.99989e-01,9.87751e-01,9.99999e-01
6.235043498e-01,9.87947e-01,9.99999e-01,9.99954e-01,9.87991e-01,9.99999e-01
6.266218716e-01,9.87992e-01,9.99999e-01,9.99763e-01,9.88227e-01,9.99997e-01
6.297549810e-01,9.88369e-01,9.99999e-01,9.99913e-01,9.88458e-01,9.99996e-01
6.329037559e-01,9.88513e-01,9.99999e-01,9.99828e-01,9.88685e-01,9.99996e-01
6.360682746e-01,9.88762e-01,9.99999e-01,9.99853e-01,9.88907e-01,9.99997e-01
6.392486160e-01,9.88938e-01,9.99999e-01,9.99810e-01,9.89125e-01,9.99998e-01
6.424448591e-01,9.89087e-01,9.99999e-01,9.99746e-01,9.89339e-01,9.99998e-01
6.456570834e-01,9.88377e-01,9.99999e-01,9.98822e-01,9.89548e-01,9.99992e-01
6.488853688e-01,9.88887e-01,9.99999e-01,9.99141e-01,9.89753e-01,9.99981e-01
6.521297956e-01,9.89075e-01,9.99999e-01,9.99125e-01,9.89955e-01,9.99984e-01
6.553904446e-01,9.89278e-01,9.99999e-01,9.99128e-01,9.90152e-01,9.99988e-01
6.586673968e-01,9.89604e-01,9.99999e-01,9.99254e-01,9.90346e-01,9.99995e-01
6.619607338e-01,9.90124e-01,9.99999e-01,9.99584e-01,9.90536e-01,9.99998e-01
6.652705375e-01,9.90475e-01,9.99999e-01,9.99750e-01,9.90722e-01,9.99999e-01
6.685968902e-01,9.90799e-01,9.99999e-01,9.99893e-01,9.90904e-01,9.99999e-01
6.719398746e-01,9.91030e-01,9.99999e-01,9.99945e-01,9.91083e-01,9.99999e-01
6.752995740e-01,9.91229e-01,9.99999e-01,9.99970e-01,9.91258e-01,9.99999e-01
6.786760719e-01,9.91388e-01,9.99999e-01,9.99957e-01,9.91430e-01,9.99999e-01
6.820694522e-01,9.91527e-01,9.99999e-01,9.99927e-01,9.91599e-01,9.99999e-01
6.854797995e-01,9.91671e-01,9.99999e-01,9.99906e-01,9.91764e-01,9.99998e-01
6.889071985e-01,9.91700e-01,9.99999e-01,9.99773e-01,9.91926e-01,9.99997e-01
6.923517345e-01,9.88416e-01,9.99999e-01,9.96318e-01,9.92085e-01,9.99981e-01
6.958134932e-01,9.90318e-01,9.99999e-01,9.98100e-01,9.92240e-01,9.99960e-01
6.992925606e-01,9.90554e-01,9.99999e-01,9.98181e-01,9.92393e-01,9.99964e-01
7.027890234e-01,9.90296e-01,9.99999e-01,9.97762e-01,9.92543e-01,9.99972e-01
7.063029686e-01,9.90809e-01,9.99999e-01,9.98118e-01,9.92690e-01,9.99986e-01
7.098344834e-01,9.91034e-01,9.99999e-01,9.98194e-01,9.92833e-01,9.99991e-01
7.133836558e-01,9.90557e-01,9.99999e-01,9.97580e-01,9.92974e-01,9.99983e-01
7.169505741e-01,9.73767e-01,9.99999e-01,9.80640e-01,9.93113e-01,9.99876e-01
7.205353270e-01,9.83667e-01,9.99999e-01,9.90568e-01,9.93248e-01,9.99782e-01
7.241380036e-01,9.81241e-01,9.99999e-01,9.87964e-01,9.93381e-01,9.99811e-01
7.277586936e-01,9.82568e-01,9.99999e-01,9.89136e-01,9.93511e-01,9.99846e-01
7.313974871e-01,9.82140e-01,9.99999e-01,9.88497e-01,9.93639e-01,9.99927e-01
7.350544745e-01,9.87483e-01,9.99999e-01,9.93703e-01,9.93764e-01,9.99974e-01
7.387297469e-01,9.89273e-01,9.99999e-01,9.95368e-01,9.93887e-01,9.99988e-01
7.424233956e-01,9.91755e-01,9.99999e-01,9.97734e-01,9.94008e-01,9.99997e-01
7.461355126e-01,9.92760e-01,9.99999e-01,9.98626e-01,9.94126e-01,9.99999e-01
7.498661902e-01,9.93606e-01,9.99999e-01,9.99360e-01,9.94241e-01,9.99999e-01
7.536155211e-01,9.94043e-01,9.99999e-01,9.99685e-01,9.94355e-01,9.99999e-01
7.573835987e-01,9.94305e-01,9.99999e-01,9.99838e-01,9.94466e-01,9.99999e-01
7.611705167e-01,9.94475e-01,9.99999e-01,9.99899e-01,9.94575e-01,9.99999e-01
7.649763693e-01,9.94619e-01,9.99999e-01,9.99936e-01,9.94682e-01,9.99999e-01
7.688012511e-01,9.94743e-01,9.99999e-01,9.99955e-01,9.94786e-01,9.99999e-01
7.726452574e-01,9.94853e-01,9.99999e-01,9.99963e-01,9.94889e-01,9.99999e-01
7.765084837e-01,9.94939e-01,9.99999e-01,9.99948e-01,9.94990e-01,9.99999e-01
7.803910261e-01,9.94867e-01,9.99999e-01,9.99777e-01,9.95089e-01,9.99999e-01
7.842929812e-01,9.94411e-01,9.99999e-01,9.99223e-01,9.95185e-01,9.99998e-01
7.882144461e-01,9.93683e-01,9.99999e-01,9.98405e-01,9.95280e-01,9.99988e-01
7.921555184e-01,9.94486e-01,9.99999e-01,9.99127e-01,9.95373e-01,9.99980e-01
7.961162960e-01,9.93904e-01,9.99999e-01,9.98450e-01,9.95464e-01,9.99981e-01
8.000968774e-01,9.93758e-01,9.99999e-01,9.98215e-01,9.95554e-01,9.99980e-01
8.040973618e-01,9.93848e-01,9.99999e-01,9.98213e-01,9.95641e-01,9.99984e-01
8.081178486e-01,9.91692e-01,9.99999e-01,9.95961e-01,9.95727e-01,9.99984e-01
8.121584379e-01,9.79061e-01,9.99999e-01,9.83233e-01,9.95811e-01,9.99943e-01
8.162192301e-01,9.75955e-01,9.99999e-01,9.80185e-01,9.95894e-01,9.99788e-01
8.203003262e-01,9.85717e-01,9.99999e-01,9.89945e-01,9.95975e-01,9.99751e-01
8.244018279e-01,9.81996e-01,9.99999e-01,9.86080e-01,9.96054e-01,9.99802e-01
8.285238370e-01,9.84150e-01,9.99999e-01,9.88123e-01,9.96132e-01,9.99844e-01
8.326664562e-01,9.84199e-01,9.99999e-01,9.88008e-01,9.96208e-01,9.99935e-01
8.368297885e-01,9.87746e-01,9.99999e-01,9.91445e-01,9.96283e-01,9.99984e-01
8.410139374e-01,9.91281e-01,9.99999e-01,9.94913e-01,9.96356e-01,9.99990e-01
8.452190071e-01,9.93938e-01,9.99999e-01,9.97505e-01,9.96428e-01,9.99994e-01
8.494451021e-01,9.95051e-01,9.99999e-01,9.98550e-01,9.96498e-01,9.99995e-01
8.536923276e-01,9.95712e-01,9.99999e-01,9.99143e-01,9.96567e-01,9.99997e-01
8.579607893e-01,9.96109e-01,9.99999e-01,9.99472e-01,9.96635e-01,9.99998e-01
8.622505932e-01,9.96368e-01,9.99999e-01,9.99664e-01,9.96701e-01,9.99999e-01
8.665618462e-01,9.96560e-01,9.99999e-01,9.99792e-01,9.96766e-01,9.99999e-01
8.708946554e-01,9.96593e-01,9.99999e-01,9.99761e-01,9.96830e-01,9.99999e-01
8.752491287e-01,9.96576e-01,9.99999e-01,9.99681e-01,9.96893e-01,9.99999e-01
8.796253743e-01,9.96514e-01,9.99999e-01,9.99558e-01,9.96954e-01,9.99998e-01
8.840235012e-01,9.96509e-01,9.99999e-01,9.99496e-01,9.97014e-01,9.99996e-01
8.884436187e-01,9.95217e-01,9.99999e-01,9.98147e-01,9.97073e-01,9.99990e-01
8.928858368e-01,9.77796e-01,9.99999e-01,9.80658e-01,9.97131e-01,9.99949e-01
8.973502660e-01,9.63134e-01,9.99999e-01,9.66098e-01,9.97187e-01,9.99742e-01
9.018370173e-01,9.79493e-01,9.99999e-01,9.82598e-01,9.97243e-01,9.99595e-01
9.063462024e-01,9.81585e-01,9.99999e-01,9.84594e-01,9.97297e-01,9.99644e-01
9.108779334e-01,9.73173e-01,9.99999e-01,9.76118e-01,9.97350e-01,9.99630e-01
9.154323231e-01,9.70145e-01,9.99999e-01,9.72967e-01,9.97403e-01,9.99694e-01
9.200094847e-01,9.76108e-01,9.99999e-01,9.78766e-01,9.97454e-01,9.99828e-01
9.246095321e-01,9.63672e-01,9.99999e-01,9.66273e-01,9.97504e-01,9.99802e-01
9.292325798e-01,7.91134e-01,9.99999e-01,7.93683e-01,9.97553e-01,9.99232e-01
9.338787427e-01,7.37835e-01,9.99999e-01,7.41958e-01,9.97602e-01,9.96832e-01
9.385481364e-01,8.81735e-01,9.99999e-01,8.87153e-01,9.97649e-01,9.96233e-01
9.432408771e-01,8.39048e-01,9.99999e-01,8.43728e-01,9.97695e-01,9.96749e-01
9.479570815e-01,7.83978e-01,9.99999e-01,7.87837e-01,9.97741e-01,9.97353e-01
9.526968669e-01,8.36387e-01,9.99999e-01,8.39598e-01,9.97785e-01,9.98384e-01
9.574603512e-01,8.52084e-01,9.99999e-01,8.54638e-01,9.97829e-01,9.99179e-01
9.622476530e-01,8.78400e-01,9.99999e-01,8.80773e-01,9.97872e-01,9.99432e-01
9.670588912e-01,9.27289e-01,9.99999e-01,9.29587e-01,9.97914e-01,9.99611e-01
9.718941857e-01,9.53420e-01,9.99999e-01,9.55646e-01,9.97955e-01,9.99713e-01
9.767536566e-01,9.60915e-01,9.99999e-01,9.63055e-01,9.97995e-01,9.99781e-01
9.816374249e-01,9.70573e-01,9.99999e-01,9.72556e-01,9.98035e-01,9.99923e-01
9.865456120e-01,9.80877e-01,9.99999e-01,9.82785e-01,9.98073e-01,9.99983e-01
9.914783401e-01,9.87458e-01,9.99999e-01,9.89330e-01,9.98111e-01,9.99995e-01
9.964357318e-01,9.92335e-01,9.99999e-01,9.94177e-01,9.98149e-01,9.99996e-01
1.001417910e+00,9.94696e-01,9.99999e-01,9.96508e-01,9.98185e-01,9.99995e-01
1.006425000e+00,9.96226e-01,9.99999e-01,9.98006e-01,9.98221e-01,9.99993e-01
1.011457125e+00,9.97018e-01,9.99999e-01,9.98763e-01,9.98256e-01,9.99994e-01
1.016514411e+00,9.97449e-01,9.99999e-01,9.99160e-01,9.98291e-01,9.99995e-01
1.021596983e+00,9.97653e-01,9.99999e-01,9.99330e-01,9.98324e-01,9.99995e-01
1.026704968e+00,9.97834e-01,9.99999e-01,9.99477e-01,9.98357e-01,9.99997e-01
1.031838492e+00,9.98011e-01,9.99999e-01,9.99620e-01,9.98390e-01,9.99998e-01
1.036997685e+00,9.98196e-01,9.99999e-01,9.99774e-01,9.98421e-01,9.99999e-01
1.042182673e+00,9.98184e-01,9.99999e-01,9.99730e-01,9.98453e-01,9.99999e-01
1.047393587e+00,9.98127e-01,9.99999e-01,9.99643e-01,9.98483e-01,9.99999e-01
1.052630555e+00,9.98024e-01,9.99999e-01,9.99510e-01,9.98513e-01,9.99999e-01
1.057893707e+00,9.97726e-01,9.99999e-01,9.99181e-01,9.98542e-01,9.99999e-01
1.063183176e+00,9.97227e-01,9.99999e-01,9.98654e-01,9.98571e-01,9.99998e-01
1.068499092e+00,9.96350e-01,9.99999e-01,9.97748e-01,9.98599e-01,9.99997e-01
1.073841587e+00,9.95989e-01,9.99999e-01,9.97361e-01,9.98627e-01,9.99996e-01
1.079210795e+00,9.95276e-01,9.99999e-01,9.96625e-01,9.98654e-01,9.99990e-01
1.084606849e+00,9.93556e-01,9.99999e-01,9.94889e-01,9.98681e-01,9.99977e-01
1.090029883e+00,9.91315e-01,9.99999e-01,9.92643e-01,9.98707e-01,9.99954e-01
1.095480033e+00,9.78768e-01,9.99999e-01,9.80089e-01,9.98732e-01,9.99918e-01
1.100957433e+00,9.48719e-01,9.99999e-01,9.50041e-01,9.98757e-01,9.99850e-01
1.106462220e+00,8.75428e-01,9.99999e-01,8.76717e-01,9.98782e-01,9.99746e-01
1.111994531e+00,7.55816e-01,9.99999e-01,7.57228e-01,9.98806e-01,9.99327e-01
1.117554504e+00,6.33475e-01,9.99999e-01,6.35757e-01,9.98829e-01,9.97576e-01
1.123142276e+00,7.06823e-01,9.99999e-01,7.11717e-01,9.98852e-01,9.94263e-01
1.128757988e+00,8.00688e-01,9.99999e-01,8.06941e-01,9.98875e-01,9.93367e-01
1.134401778e+00,5.88596e-01,9.99999e-01,5.92588e-01,9.98897e-01,9.94357e-01
1.140073787e+00,8.76762e-01,9.99999e-01,8.81687e-01,9.98919e-01,9.95488e-01
1.145774156e+00,7.62565e-01,9.99999e-01,7.66538e-01,9.98940e-01,9.95869e-01
1.151503026e+00,7.39265e-01,9.99999e-01,7.41741e-01,9.98961e-01,9.97696e-01
1.157260541e+00,7.82459e-01,9.99999e-01,7.83796e-01,9.98982e-01,9.99310e-01
1.163046844e+00,8.34924e-01,9.99999e-01,8.35920e-01,9.99002e-01,9.99804e-01
1.168862078e+00,8.82807e-01,9.99999e-01,8.83760e-01,9.99021e-01,9.99898e-01
1.174706389e+00,9.25591e-01,9.99999e-01,9.26602e-01,9.99041e-01,9.99866e-01
1.180579921e+00,9.53618e-01,9.99999e-01,9.54708e-01,9.99060e-01,9.99797e-01
1.186482820e+00,9.73088e-01,9.99999e-01,9.74186e-01,9.99078e-01,9.99792e-01
1.192415234e+00,9.83821e-01,9.99999e-01,9.84862e-01,9.99096e-01,9.99844e-01
1.198377311e+00,9.86197e-01,9.99999e-01,9.87215e-01,9.99114e-01,9.99853e-01
1.204369197e+00,9.86905e-01,9.99999e-01,9.87893e-01,9.99132e-01,9.99867e-01
1.210391043e+00,9.87506e-01,9.99999e-01,9.88426e-01,9.99149e-01,9.99918e-01
1.216442998e+00,9.89281e-01,9.99999e-01,9.90155e-01,9.99166e-01,9.99950e-01
1.222525213e+00,9.91488e-01,9.99999e-01,9.92329e-01,9.99182e-01,9.99968e-01
1.228637839e+00,9.93856e-01,9.99999e-01,9.94667e-01,9.99198e-01,9.99985e-01
1.234781029e+00,9.95253e-01,9.99999e-01,9.96040e-01,9.99214e-01,9.99995e-01
1.240954934e+00,9.96725e-01,9.99999e-01,9.97493e-01,9.99229e-01,9.99998e-01
1.247159708e+00,9.97295e-01,9.99999e-01,9.98049e-01,9.99245e-01,9.99998e-01
1.253395507e+00,9.97527e-01,9.99999e-01,9.98266e-01,9.99260e-01,9.99998e-01
1.259662485e+00,9.97626e-01,9.99999e-01,9.98352e-01,9.99274e-01,9.99997e-01
1.265960797e+00,9.96658e-01,9.99999e-01,9.97369e-01,9.99288e-01,9.99996e-01
1.272290601e+00,9.95165e-01,9.99999e-01,9.95863e-01,9.99302e-01,9.99995e-01
1.278652054e+00,9.91100e-01,9.99999e-01,9.91785e-01,9.99316e-01,9.99991e-01
1.285045314e+00,9.84451e-01,9.99999e-01,9.85124e-01,9.99330e-01,9.99984e-01
1.291470541e+00,9.73545e-01,9.99999e-01,9.74210e-01,9.99343e-01,9.99973e-01
1.297927893e+00,9.62792e-01,9.99999e-01,9.63459e-01,9.99356e-01,9.99950e-01
1.304417533e+00,9.56337e-01,9.99999e-01,9.57039e-01,9.99369e-01,9.99896e-01
1.310939621e+00,9.50032e-01,9.99999e-01,9.50821e-01,9.99381e-01,9.99787e-01
1.317494319e+00,9.45999e-01,9.99999e-01,9.46943e-01,9.99393e-01,9.99607e-01
1.324081790e+00,9.20100e-01,9.99999e-01,9.21235e-01,9.99405e-01,9.99360e-01
1.330702199e+00,6.93028e-01,9.99999e-01,6.94197e-01,9.99417e-01,9.98897e-01
1.337355710e+00,4.12713e-01,9.99999e-01,4.13826e-01,9.99428e-01,9.97878e-01
1.344042489e+00,8.48543e-02,9.99999e-01,8.54465e-02,9.99440e-01,9.93624e-01
1.350762701e+00,8.14033e-03,9.99999e-01,8.32511e-03,9.99451e-01,9.78340e-01
1.357516515e+00,1.79286e-03,9.99999e-01,1.91289e-03,9.99462e-01,9.37756e-01
1.364304097e+00,1.20953e-02,9.99999e-01,1.35444e-02,9.99472e-01,8.93481e-01
1.371125618e+00,5.20350e-02,9.99999e-01,5.78944e-02,9.99483e-01,8.99256e-01
1.377981246e+00,7.82913e-02,9.99999e-01,8.57954e-02,9.99493e-01,9.12996e-01
1.384871152e+00,1.02425e-02,9.99999e-01,1.11547e-02,9.99503e-01,9.18680e-01
1.391795508e+00,1.67070e-02,9.99999e-01,1.81227e-02,9.99513e-01,9.22333e-01
1.398754485e+00,2.76945e-02,9.99999e-01,2.96213e-02,9.99522e-01,9.35396e-01
1.405748258e+00,2.70140e-02,9.99999e-01,2.81027e-02,9.99532e-01,9.61710e-01
1.412776999e+00,3.19800e-02,9.99999e-01,3.25701e-02,9.99541e-01,9.82332e-01
1.419840884e+00,3.88772e-02,9.99999e-01,3.91999e-02,9.99550e-01,9.92214e-01
1.426940089e+00,8.16997e-02,9.99999e-01,8.22225e-02,9.99559e-01,9.94079e-01
1.434074789e+00,1.45011e-01,9.99999e-01,1.46093e-01,9.99567e-01,9.93017e-01
1.441245163e+00,2.43587e-01,9.99999e-01,2.45547e-01,9.99576e-01,9.92438e-01
1.448451389e+00,3.60997e-01,9.99999e-01,3.63554e-01,9.99584e-01,9.93376e-01
1.455693646e+00,5.22795e-01,9.99999e-01,5.25719e-01,9.99592e-01,9.94842e-01
1.462972114e+00,5.74947e-01,9.99999e-01,5.78020e-01,9.99601e-01,9.95080e-01
1.470286975e+00,5.23123e-01,9.99999e-01,5.25871e-01,9.99608e-01,9.95163e-01
