#,Wave/freq,Total,N2,H2O,Rayleigh,CIA
4.000000000e-01,3.44533e-01,9.99999e-01,9.99879e-01,3.44574e-01,9.99999e-01
4.020000000e-01,3.51884e-01,9.99999e-01,9.99925e-01,3.51911e-01,9.99999e-01
4.040100000e-01,3.59234e-01,9.99999e-01,9.99967e-01,3.59245e-01,9.99999e-01
4.060300500e-01,3.66581e-01,9.99999e-01,9.99992e-01,3.66584e-01,9.99999e-01
4.080602003e-01,3.73922e-01,9.99999e-01,9.99997e-01,3.73923e-01,9.99999e-01
4.101005013e-01,3.81259e-01,9.99999e-01,9.99999e-01,3.81260e-01,9.99999e-01
4.121510038e-01,3.88589e-01,9.99999e-01,9.99995e-01,3.88591e-01,9.99999e-01
4.142117588e-01,3.95901e-01,9.99999e-01,9.99966e-01,3.95914e-01,9.99999e-01
4.162828176e-01,4.03167e-01,9.99999e-01,9.99850e-01,4.03227e-01,9.99999e-01
4.183642317e-01,4.10490e-01,9.99999e-01,9.99911e-01,4.10526e-01,9.99999e-01
4.204560528e-01,4.17787e-01,9.99999e-01,9.99945e-01,4.17810e-01,9.99999e-01
4.225583331e-01,4.25066e-01,9.99999e-01,9.99979e-01,4.25074e-01,9.99999e-01
4.246711247e-01,4.32311e-01,9.99999e-01,9.99983e-01,4.32318e-01,9.99999e-01
4.267944804e-01,4.39529e-01,9.99999e-01,9.99975e-01,4.39539e-01,9.99999e-01
4.289284528e-01,4.46726e-01,9.99999e-01,9.99981e-01,4.46734e-01,9.99999e-01
4.310730950e-01,4.53898e-01,9.99999e-01,9.99991e-01,4.53901e-01,9.99999e-01
4.332284605e-01,4.61038e-01,9.99999e-01,9.99997e-01,4.61039e-01,9.99999e-01
4.353946028e-01,4.68144e-01,9.99999e-01,9.99998e-01,4.68144e-01,9.99999e-01
4.375715758e-01,4.75208e-01,9.99999e-01,9.99984e-01,4.75215e-01,9.99999e-01
4.397594337e-01,4.82187e-01,9.99999e-01,9.99868e-01,4.82250e-01,9.99999e-01
4.419582309e-01,4.88921e-01,9.99999e-01,9.99332e-01,4.89247e-01,9.99999e-01
4.441680220e-01,4.95949e-01,9.99999e-01,9.99482e-01,4.96205e-01,9.99999e-01
4.463888621e-01,5.02850e-01,9.99999e-01,9.99460e-01,5.03121e-01,9.99999e-01
4.486208064e-01,5.09824e-01,9.99999e-01,9.99665e-01,5.09994e-01,9.99999e-01
4.508639105e-01,5.16742e-01,9.99999e-01,9.99842e-01,5.16823e-01,9.99999e-01
4.531182300e-01,5.23573e-01,9.99999e-01,9.99937e-01,5.23605e-01,9.99999e-01
4.553838212e-01,5.30317e-01,9.99999e-01,9.99957e-01,5.30340e-01,9.99999e-01
4.576607403e-01,5.37015e-01,9.99999e-01,9.99980e-01,5.37025e-01,9.99999e-01
4.599490440e-01,5.43654e-01,9.99999e-01,9.99985e-01,5.43661e-01,9.99999e-01
4.622487892e-01,5.50244e-01,9.99999e-01,9.99997e-01,5.50245e-01,9.99999e-01
4.645600332e-01,5.56771e-01,9.99999e-01,9.99990e-01,5.56776e-01,9.99999e-01
4.668828333e-01,5.63164e-01,9.99999e-01,9.99840e-01,5.63254e-01,9.99999e-01
4.692172475e-01,5.69484e-01,9.99999e-01,9.99661e-01,5.69677e-01,9.99999e-01
4.715633337e-01,5.75916e-01,9.99999e-01,9.99778e-01,5.76043e-01,9.99999e-01
4.739211504e-01,5.82231e-01,9.99999e-01,9.99788e-01,5.82354e-01,9.99999e-01
4.762907561e-01,5.88542e-01,9.99999e-01,9.99890e-01,5.88606e-01,9.99999e-01
4.786722099e-01,5.94774e-01,9.99999e-01,9.99954e-01,5.94801e-01,9.99999e-01
4.810655710e-01,6.00928e-01,9.99999e-01,9.99986e-01,6.00936e-01,9.99999e-01
4.834708988e-01,6.06932e-01,9.99999e-01,9.99869e-01,6.07011e-01,9.99999e-01
4.858882533e-01,6.12880e-01,9.99999e-01,9.99760e-01,6.13027e-01,9.99999e-01
4.883176946e-01,6.18857e-01,9.99999e-01,9.99799e-01,6.18981e-01,9.99999e-01
4.907592831e-01,6.24760e-01,9.99999e-01,9.99818e-01,6.24873e-01,9.99999e-01
4.932130795e-01,6.30623e-01,9.99999e-01,9.99871e-01,6.30704e-01,9.99999e-01
4.956791449e-01,6.36429e-01,9.99999e-01,9.99931e-01,6.36472e-01,9.99999e-01
4.981575406e-01,6.41959e-01,9.99999e-01,9.99659e-01,6.42178e-01,9.99999e-01
5.006483283e-01,6.47244e-01,9.99999e-01,9.99116e-01,6.47820e-01,9.99993e-01
5.031515699e-01,6.50455e-01,9.99999e-01,9.95539e-01,6.53400e-01,9.99952e-01
5.056673278e-01,6.57329e-01,9.99999e-01,9.97645e-01,6.58915e-01,9.99945e-01
5.081956644e-01,6.62373e-01,9.99999e-01,9.97030e-01,6.64367e-01,9.99966e-01
5.107366428e-01,6.68408e-01,9.99999e-01,9.97994e-01,6.69755e-01,9.99993e-01
5.132903260e-01,6.74305e-01,9.99999e-01,9.98853e-01,6.75079e-01,9.99998e-01
5.158567776e-01,6.80010e-01,9.99999e-01,9.99515e-01,6.80339e-01,9.99999e-01
5.184360615e-01,6.85402e-01,9.99999e-01,9.99805e-01,6.85534e-01,9.99999e-01
5.210282418e-01,6.90616e-01,9.99999e-01,9.99927e-01,6.90666e-01,9.99999e-01
5.236333830e-01,6.95530e-01,9.99999e-01,9.99708e-01,6.95734e-01,9.99997e-01
5.262515499e-01,7.00608e-01,9.99999e-01,9.99817e-01,7.00737e-01,9.99996e-01
5.288828077e-01,7.05557e-01,9.99999e-01,9.99832e-01,7.05677e-01,9.99997e-01
5.315272217e-01,7.10448e-01,9.99999e-01,9.99853e-01,7.10552e-01,9.99999e-01
5.341848578e-01,7.15296e-01,9.99999e-01,9.99903e-01,7.15365e-01,9.99999e-01
5.368557821e-01,7.19868e-01,9.99999e-01,9.99660e-01,7.20113e-01,9.99998e-01
5.395400610e-01,7.23903e-01,9.99999e-01,9.98772e-01,7.24799e-01,9.99989e-01
5.422377613e-01,7.28249e-01,9.99999e-01,9.98420e-01,7.29422e-01,9.99970e-01
5.449489501e-01,7.32880e-01,9.99999e-01,9.98527e-01,7.33982e-01,9.99969e-01
5.476736949e-01,7.37508e-01,9.99999e-01,9.98699e-01,7.38479e-01,9.99985e-01
5.504120634e-01,7.42210e-01,9.99999e-01,9.99055e-01,7.42914e-01,9.99995e-01
5.531641237e-01,7.46933e-01,9.99999e-01,9.99524e-01,7.47288e-01,9.99998e-01
5.559299443e-01,7.51428e-01,9.99999e-01,9.99770e-01,7.51600e-01,9.99999e-01
5.587095940e-01,7.55743e-01,9.99999e-01,9.99855e-01,7.55852e-01,9.99999e-01
5.615031420e-01,7.59920e-01,9.99999e-01,9.99839e-01,7.60042e-01,9.99999e-01
5.643106577e-01,7.64032e-01,9.99999e-01,9.99817e-01,7.64173e-01,9.99997e-01
5.671322110e-01,7.66524e-01,9.99999e-01,9.97781e-01,7.68243e-01,9.99979e-01
5.699678720e-01,7.70401e-01,9.99999e-01,9.97658e-01,7.72254e-01,9.99939e-01
5.728177114e-01,7.74270e-01,9.99999e-01,9.97553e-01,7.76207e-01,9.99949e-01
5.756818000e-01,7.78328e-01,9.99999e-01,9.97756e-01,7.80101e-01,9.99970e-01
5.785602090e-01,7.82398e-01,9.99999e-01,9.98045e-01,7.83937e-01,9.99991e-01
5.814530100e-01,7.86164e-01,9.99999e-01,9.98035e-01,7.87715e-01,9.99995e-01
5.843602750e-01,7.89570e-01,9.99999e-01,9.97653e-01,7.91436e-01,9.99986e-01
5.872820764e-01,7.79097e-01,9.99999e-01,9.80010e-01,7.95102e-01,9.99857e-01
5.902184868e-01,7.79101e-01,9.99999e-01,9.75824e-01,7.98711e-01,9.99613e-01
5.931695792e-01,7.88237e-01,9.99999e-01,9.82879e-01,8.02264e-01,9.99627e-01
5.961354271e-01,7.90475e-01,9.99999e-01,9.81235e-01,8.05763e-01,9.99785e-01
5.991161043e-01,7.98050e-01,9.99999e-01,9.86275e-01,8.09208e-01,9.99933e-01
6.021116848e-01,8.06249e-01,9.99999e-01,9.92192e-01,8.12599e-01,9.99992e-01
6.051222432e-01,8.12707e-01,9.99999e-01,9.96042e-01,8.15936e-01,9.99999e-01
6.081478544e-01,8.17821e-01,9.99999e-01,9.98290e-01,8.19221e-01,9.99999e-01
6.111885937e-01,8.21860e-01,9.99999e-01,9.99276e-01,8.22454e-01,9.99999e-01
6.142445367e-01,8.25369e-01,9.99999e-01,9.99676e-01,8.25636e-01,9.99999e-01
6.173157594e-01,8.28619e-01,9.99999e-01,9.99821e-01,8.28766e-01,9.99999e-01
6.204023382e-01,8.31721e-01,9.99999e-01,9.99848e-01,8.31847e-01,9.99999e-01
6.235043498e-01,8.34319e-01,9.99999e-01,9.99332e-01,8.34877e-01,9.99997e-01
6.266218716e-01,8.34893e-01,9.99999e-01,9.96484e-01,8.37859e-01,9.99974e-01
6.297549810e-01,8.39665e-01,9.99999e-01,9.98709e-01,8.40792e-01,9.99950e-01
6.329037559e-01,8.41494e-01,9.99999e-01,9.97452e-01,8.43677e-01,9.99959e-01
6.360682746e-01,8.44655e-01,9.99999e-01,9.97827e-01,8.46514e-01,9.99976e-01
6.392486160e-01,8.46907e-01,9.99999e-01,9.97186e-01,8.49305e-01,9.99989e-01
6.424448591e-01,8.48821e-01,9.99999e-01,9.96227e-01,8.52049e-01,9.99982e-01
6.456570834e-01,8.39812e-01,9.99999e-01,9.82619e-01,8.54748e-01,9.99902e-01
6.488853688e-01,8.46280e-01,9.99999e-01,9.87294e-01,8.57402e-01,9.99728e-01
6.521297956e-01,8.48694e-01,9.99999e-01,9.87060e-01,8.60012e-01,9.99775e-01
6.553904446e-01,8.51286e-01,9.99999e-01,9.87074e-01,8.62577e-01,9.99832e-01
6.586673968e-01,8.55486e-01,9.99999e-01,9.88941e-01,8.65100e-01,9.99943e-01
6.619607338e-01,8.62207e-01,9.99999e-01,9.93819e-01,8.67579e-01,9.99987e-01
6.652705375e-01,8.66781e-01,9.99999e-01,9.96285e-01,8.70017e-01,9.99993e-01
6.685968902e-01,8.70907e-01,9.99999e-01,9.98273e-01,8.72413e-01,9.99998e-01
6.719398746e-01,8.74069e-01,9.99999e-01,9.99200e-01,8.74768e-01,9.99999e-01
6.752995740e-01,8.76703e-01,9.99999e-01,9.99565e-01,8.77083e-01,9.99999e-01
6.786760719e-01,8.78806e-01,9.99999e-01,9.99371e-01,8.79358e-01,9.99998e-01
6.820694522e-01,8.80643e-01,9.99999e-01,9.98925e-01,8.81594e-01,9.99993e-01
6.854797995e-01,8.82557e-01,9.99999e-01,9.98614e-01,8.83792e-01,9.99987e-01
6.889071985e-01,8.82946e-01,9.99999e-01,9.96637e-01,8.85951e-01,9.99969e-01
6.923517345e-01,8.40589e-01,9.99999e-01,9.46779e-01,8.88072e-01,9.99737e-01
6.958134932e-01,8.64881e-01,9.99999e-01,9.72169e-01,8.90157e-01,9.99418e-01
6.992925606e-01,8.67924e-01,9.99999e-01,9.73294e-01,8.92205e-01,9.99476e-01
7.027890234e-01,8.64536e-01,9.99999e-01,9.67192e-01,8.94218e-01,9.99600e-01
7.063029686e-01,8.71202e-01,9.99999e-01,9.72304e-01,8.96195e-01,9.99800e-01
7.098344834e-01,8.74144e-01,9.99999e-01,9.73400e-01,8.98137e-01,9.99881e-01
7.133836558e-01,8.68088e-01,9.99999e-01,9.64719e-01,9.00045e-01,9.99765e-01
7.169505741e-01,6.79720e-01,9.99999e-01,7.55024e-01,9.01919e-01,9.98161e-01
7.205353270e-01,7.84617e-01,9.99999e-01,8.70992e-01,9.03760e-01,9.96759e-01
7.241380036e-01,7.56655e-01,9.99999e-01,8.37902e-01,9.05568e-01,9.97201e-01
7.277586936e-01,7.71856e-01,9.99999e-01,8.52627e-01,9.07344e-01,9.97711e-01
7.313974871e-01,7.65821e-01,9.99999e-01,8.43309e-01,9.09088e-01,9.98927e-01
7.350544745e-01,8.29175e-01,9.99999e-01,9.10718e-01,9.10801e-01,9.99626e-01
7.387297469e-01,8.51458e-01,9.99999e-01,9.33280e-01,9.12484e-01,9.99828e-01
7.424233956e-01,8.83707e-01,9.99999e-01,9.66744e-01,9.14136e-01,9.99966e-01
7.461355126e-01,8.97159e-01,9.99999e-01,9.79695e-01,9.15758e-01,9.99993e-01
7.498661902e-01,9.08636e-01,9.99999e-01,9.90501e-01,9.17352e-01,9.99997e-01
7.536155211e-01,9.14620e-01,9.99999e-01,9.95325e-01,9.18916e-01,9.99998e-01
7.573835987e-01,9.18235e-01,9.99999e-01,9.97591e-01,9.20452e-01,9.99999e-01
7.611705167e-01,9.20581e-01,9.99999e-01,9.98502e-01,9.21960e-01,9.99999e-01
7.649763693e-01,9.22575e-01,9.99999e-01,9.99060e-01,9.23441e-01,9.99999e-01
7.688012511e-01,9.24290e-01,9.99999e-01,9.99345e-01,9.24895e-01,9.99999e-01
7.726452574e-01,9.25824e-01,9.99999e-01,9.99461e-01,9.26323e-01,9.99999e-01
7.765084837e-01,9.27012e-01,9.99999e-01,9.99233e-01,9.27724e-01,9.99998e-01
7.803910261e-01,9.26022e-01,9.99999e-01,9.96689e-01,9.29100e-01,9.99996e-01
7.842929812e-01,9.19727e-01,9.99999e-01,9.88495e-01,9.30450e-01,9.99978e-01
7.882144461e-01,9.09721e-01,9.99999e-01,9.76488e-01,9.31776e-01,9.99836e-01
7.921555184e-01,9.20748e-01,9.99999e-01,9.87065e-01,9.33078e-01,9.99716e-01
7.961162960e-01,9.12796e-01,9.99999e-01,9.77189e-01,9.34355e-01,9.99730e-01
8.000968774e-01,9.10735e-01,9.99999e-01,9.73692e-01,9.35609e-01,9.99712e-01
8.040973618e-01,9.11992e-01,9.99999e-01,9.73689e-01,9.36840e-01,9.99780e-01
8.081178486e-01,8.83284e-01,9.99999e-01,9.41827e-01,9.38048e-01,9.99777e-01
8.121584379e-01,7.33530e-01,9.99999e-01,7.81643e-01,9.39234e-01,9.99160e-01
8.162192301e-01,7.01241e-01,9.99999e-01,7.48044e-01,9.40397e-01,9.96846e-01
8.203003262e-01,8.15007e-01,9.99999e-01,8.68816e-01,9.41540e-01,9.96308e-01
8.244018279e-01,7.75862e-01,9.99999e-01,8.25480e-01,9.42660e-01,9.97061e-01
8.285238370e-01,7.90161e-01,9.99999e-01,8.39183e-01,9.43761e-01,9.97691e-01
8.326664562e-01,7.91247e-01,9.99999e-01,8.38240e-01,9.44840e-01,9.99044e-01
8.368297885e-01,8.32682e-01,9.99999e-01,8.80498e-01,9.45900e-01,9.99781e-01
8.410139374e-01,8.77694e-01,9.99999e-01,9.26992e-01,9.46939e-01,9.99871e-01
8.452190071e-01,9.13241e-01,9.99999e-01,9.63448e-01,9.47960e-01,9.99923e-01
8.494451021e-01,9.28585e-01,9.99999e-01,9.78587e-01,9.48961e-01,9.99938e-01
8.536923276e-01,9.37842e-01,9.99999e-01,9.87296e-01,9.49943e-01,9.99962e-01
8.579607893e-01,9.43436e-01,9.99999e-01,9.92151e-01,9.50907e-01,9.99990e-01
8.622505932e-01,9.47103e-01,9.99999e-01,9.95010e-01,9.51853e-01,9.99997e-01
8.665618462e-01,9.49835e-01,9.99999e-01,9.96907e-01,9.52782e-01,9.99998e-01
8.708946554e-01,9.50313e-01,9.99999e-01,9.96457e-01,9.53692e-01,9.99997e-01
8.752491287e-01,9.50062e-01,9.99999e-01,9.95264e-01,9.54586e-01,9.99994e-01
8.796253743e-01,9.49185e-01,9.99999e-01,9.93443e-01,9.55463e-01,9.99984e-01
8.840235012e-01,9.49124e-01,9.99999e-01,9.92517e-01,9.56323e-01,9.99953e-01
8.884436187e-01,9.31263e-01,9.99999e-01,9.73062e-01,9.57167e-01,9.99869e-01
8.928858368e-01,7.22908e-01,9.99999e-01,7.55170e-01,9.57995e-01,9.99250e-01
8.973502660e-01,5.84572e-01,9.99999e-01,6.12033e-01,9.58807e-01,9.96165e-01
9.018370173e-01,7.42823e-01,9.99999e-01,7.78782e-01,9.59604e-01,9.93977e-01
9.063462024e-01,7.64564e-01,9.99999e-01,8.00335e-01,9.60386e-01,9.94707e-01
9.108779334e-01,6.76184e-01,9.99999e-01,7.07402e-01,9.61153e-01,9.94501e-01
9.154323231e-01,6.44484e-01,9.99999e-01,6.73067e-01,9.61906e-01,9.95453e-01
9.200094847e-01,7.05789e-01,9.99999e-01,7.35049e-01,9.62644e-01,9.97452e-01
9.246095321e-01,6.08462e-01,9.99999e-01,6.33456e-01,9.63368e-01,9.97065e-01
9.292325798e-01,6.94400e-02,9.99999e-01,7.28575e-02,9.64078e-01,9.88604e-01
9.338787427e-01,2.71408e-02,9.99999e-01,2.94967e-02,9.64775e-01,9.53726e-01
9.385481364e-01,2.16317e-01,9.99999e-01,2.37044e-01,9.65459e-01,9.45208e-01
9.432408771e-01,1.37955e-01,9.99999e-01,1.49905e-01,9.66129e-01,9.52548e-01
9.479570815e-01,6.22998e-02,9.99999e-01,6.70406e-02,9.66787e-01,9.61207e-01
9.526968669e-01,1.14181e-01,9.99999e-01,1.20907e-01,9.67432e-01,9.76156e-01
9.574603512e-01,1.26180e-01,9.99999e-01,1.31950e-01,9.68065e-01,9.87816e-01
9.622476530e-01,1.76833e-01,9.99999e-01,1.84103e-01,9.68686e-01,9.91559e-01
9.670588912e-01,3.56682e-01,9.99999e-01,3.70120e-01,9.69295e-01,9.94219e-01
9.718941857e-01,5.01561e-01,9.99999e-01,5.19341e-01,9.69892e-01,9.95741e-01
9.767536566e-01,5.60567e-01,9.99999e-01,5.79506e-01,9.70478e-01,9.96743e-01
9.816374249e-01,6.44738e-01,9.99999e-01,6.64706e-01,9.71053e-01,9.98871e-01
9.865456120e-01,7.51363e-01,9.99999e-01,7.73494e-01,9.71616e-01,9.99764e-01
9.914783401e-01,8.28740e-01,9.99999e-01,8.52520e-01,9.72169e-01,9.99934e-01
9.964357318e-01,8.91682e-01,9.99999e-01,9.16731e-01,9.72711e-01,9.99961e-01
1.001417910e+00,9.23719e-01,9.99999e-01,9.49169e-01,9.73243e-01,9.99941e-01
1.006425000e+00,9.45119e-01,9.99999e-01,9.70662e-01,9.73764e-01,9.99916e-01
1.011457125e+00,9.56379e-01,9.99999e-01,9.81705e-01,9.74276e-01,9.99922e-01
1.016514411e+00,9.62577e-01,9.99999e-01,9.87536e-01,9.74777e-01,9.99945e-01
1.021596983e+00,9.65519e-01,9.99999e-01,9.90055e-01,9.75269e-01,9.99944e-01
1.026704968e+00,9.68140e-01,9.99999e-01,9.92234e-01,9.75752e-01,9.99963e-01
1.031838492e+00,9.70704e-01,9.99999e-01,9.94354e-01,9.76225e-01,9.99989e-01
1.036997685e+00,9.73407e-01,9.99999e-01,9.96640e-01,9.76689e-01,9.99997e-01
1.042182673e+00,9.73228e-01,9.99999e-01,9.95991e-01,9.77144e-01,9.99998e-01
1.047393587e+00,9.72400e-01,9.99999e-01,9.94690e-01,9.77591e-01,9.99998e-01
1.052630555e+00,9.70905e-01,9.99999e-01,9.92718e-01,9.78028e-01,9.99997e-01
1.057893707e+00,9.66585e-01,9.99999e-01,9.87869e-01,9.78458e-01,9.99995e-01
1.063183176e+00,9.59423e-01,9.99999e-01,9.80133e-01,9.78879e-01,9.99989e-01
1.068499092e+00,9.46941e-01,9.99999e-01,9.66986e-01,9.79291e-01,9.99976e-01
1.073841587e+00,9.41971e-01,9.99999e-01,9.61539e-01,9.79696e-01,9.99950e-01
1.079210795e+00,9.31905e-01,9.99999e-01,9.50959e-01,9.80093e-01,9.99865e-01
1.084606849e+00,9.08433e-01,9.99999e-01,9.26814e-01,9.80483e-01,9.99676e-01
1.090029883e+00,8.79084e-01,9.99999e-01,8.96833e-01,9.80864e-01,9.99330e-01
1.095480033e+00,7.29053e-01,9.99999e-01,7.43892e-01,9.81239e-01,9.98789e-01
1.100957433e+00,4.69636e-01,9.99999e-01,4.79503e-01,9.81606e-01,9.97774e-01
1.106462220e+00,1.71231e-01,9.99999e-01,1.75036e-01,9.81966e-01,9.96227e-01
1.111994531e+00,2.84192e-02,9.99999e-01,2.92224e-02,9.82319e-01,9.90016e-01
1.117554504e+00,4.34759e-03,9.99999e-01,4.58749e-03,9.82665e-01,9.64423e-01
1.123142276e+00,2.48126e-02,9.99999e-01,2.75057e-02,9.83005e-01,9.17682e-01
1.128757988e+00,6.39182e-02,9.99999e-01,7.17927e-02,9.83337e-01,9.05401e-01
1.134401778e+00,3.10797e-02,9.99999e-01,3.43818e-02,9.83664e-01,9.18971e-01
1.140073787e+00,1.71167e-01,9.99999e-01,1.86103e-01,9.83984e-01,9.34713e-01
1.145774156e+00,4.12876e-02,9.99999e-01,4.46202e-02,9.84298e-01,9.40070e-01
1.151503026e+00,2.93005e-02,9.99999e-01,3.08009e-02,9.84606e-01,9.66158e-01
1.157260541e+00,3.85022e-02,9.99999e-01,3.94966e-02,9.84907e-01,9.89758e-01
1.163046844e+00,8.78981e-02,9.99999e-01,8.94788e-02,9.85203e-01,9.97086e-01
1.168862078e+00,1.69931e-01,9.99999e-01,1.72691e-01,9.85493e-01,9.98497e-01
1.174706389e+00,3.29658e-01,9.99999e-01,3.35081e-01,9.85778e-01,9.98009e-01
1.180579921e+00,5.01321e-01,9.99999e-01,5.09943e-01,9.86057e-01,9.96991e-01
1.186482820e+00,6.68169e-01,9.99999e-01,6.79526e-01,9.86330e-01,9.96912e-01
1.192415234e+00,7.84532e-01,9.99999e-01,7.97031e-01,9.86598e-01,9.97686e-01
1.198377311e+00,8.13423e-01,9.99999e-01,8.26056e-01,9.86861e-01,9.97814e-01
1.204369197e+00,8.23181e-01,9.99999e-01,8.35574e-01,9.87119e-01,9.98022e-01
1.210391043e+00,8.29965e-01,9.99999e-01,8.41591e-01,9.87372e-01,9.98796e-01
1.216442998e+00,8.52301e-01,9.99999e-01,8.63620e-01,9.87620e-01,9.99262e-01
1.222525213e+00,8.80507e-01,9.99999e-01,8.91732e-01,9.87863e-01,9.99541e-01
1.228637839e+00,9.12249e-01,9.99999e-01,9.23430e-01,9.88101e-01,9.99786e-01
1.234781029e+00,9.31543e-01,9.99999e-01,9.42595e-01,9.88335e-01,9.99938e-01
1.240954934e+00,9.52255e-01,9.99999e-01,9.63286e-01,9.88564e-01,9.99982e-01
1.247159708e+00,9.60385e-01,9.99999e-01,9.71285e-01,9.88788e-01,9.99988e-01
1.253395507e+00,9.63731e-01,9.99999e-01,9.74454e-01,9.89009e-01,9.99985e-01
1.259662485e+00,9.65167e-01,9.99999e-01,9.75702e-01,9.89225e-01,9.99976e-01
1.265960797e+00,9.51313e-01,9.99999e-01,9.61505e-01,9.89436e-01,9.99961e-01
1.272290601e+00,9.30409e-01,9.99999e-01,9.40207e-01,9.89644e-01,9.99932e-01
1.278652054e+00,8.76069e-01,9.99999e-01,8.85158e-01,9.89847e-01,9.99880e-01
1.285045314e+00,7.94436e-01,9.99999e-01,8.02600e-01,9.90047e-01,9.99777e-01
1.291470541e+00,6.75516e-01,9.99999e-01,6.82437e-01,9.90242e-01,9.99610e-01
1.297927893e+00,5.77412e-01,9.99999e-01,5.83412e-01,9.90434e-01,9.99273e-01
1.304417533e+00,5.27599e-01,9.99999e-01,5.33414e-01,9.90622e-01,9.98460e-01
1.310939621e+00,4.80974e-01,9.99999e-01,4.86974e-01,9.90807e-01,9.96842e-01
1.317494319e+00,4.53839e-01,9.99999e-01,4.60653e-01,9.90987e-01,9.94168e-01
1.324081790e+00,3.17775e-01,9.99999e-01,3.23684e-01,9.91165e-01,9.90495e-01
1.330702199e+00,5.61789e-02,9.99999e-01,5.76105e-02,9.91338e-01,9.83668e-01
1.337355710e+00,7.19507e-05,9.99999e-01,7.49049e-05,9.91509e-01,9.68786e-01
1.344042489e+00,3.50164e-07,9.99999e-01,3.88492e-07,9.91676e-01,9.08905e-01
1.350762701e+00,2.68715e-22,9.99999e-01,3.75727e-22,9.91839e-01,7.21071e-01
1.357516515e+00,1.26736e-33,9.99999e-01,3.33572e-33,9.92000e-01,3.82998e-01
1.364304097e+00,6.08711e-21,9.99999e-01,3.29846e-20,9.92157e-01,1.86003e-01
1.371125618e+00,6.37406e-13,9.99999e-01,3.13664e-12,9.92312e-01,2.04787e-01
1.377981246e+00,2.41574e-12,9.99999e-01,9.47723e-12,9.92463e-01,2.56834e-01
1.384871152e+00,2.56919e-17,9.99999e-01,9.18575e-17,9.92611e-01,2.81775e-01
1.391795508e+00,4.77311e-21,9.99999e-01,1.60813e-20,9.92757e-01,2.98977e-01
1.398754485e+00,3.48589e-16,9.99999e-01,9.51815e-16,9.92899e-01,3.68855e-01
1.405748258e+00,5.62970e-16,9.99999e-01,1.01562e-15,9.93039e-01,5.58195e-01
1.412776999e+00,1.84946e-15,9.99999e-01,2.43012e-15,9.93176e-01,7.66284e-01
1.419840884e+00,3.21201e-15,9.99998e-01,3.63399e-15,9.93310e-01,8.89832e-01
1.426940089e+00,2.99721e-10,9.99998e-01,3.29674e-10,9.93442e-01,9.15141e-01
1.434074789e+00,5.01341e-09,9.99998e-01,5.60246e-09,9.93571e-01,9.00648e-01
1.441245163e+00,1.59251e-07,9.99999e-01,1.79495e-07,9.93698e-01,8.92845e-01
1.448451389e+00,2.92470e-05,9.99998e-01,3.24992e-05,9.93822e-01,9.05524e-01
1.455693646e+00,8.20671e-04,9.99998e-01,8.91956e-04,9.93943e-01,9.25685e-01
1.462972114e+00,1.18473e-03,9.99999e-01,1.28289e-03,9.94063e-01,9.28999e-01
1.470286975e+00,4.71384e-04,9.99999e-01,5.09740e-04,9.94179e-01,9.30165e-01
