#,Wave/freq,Total,N2,H2O,Rayleigh,CIA
4.000000000e-01,5.35815e-01,9.99999e-01,9.99929e-01,5.35853e-01,9.99999e-01
4.020000000e-01,5.42481e-01,9.99999e-01,9.99955e-01,5.42504e-01,9.99999e-01
4.040100000e-01,5.49087e-01,9.99999e-01,9.99981e-01,5.49097e-01,9.99999e-01
4.060300500e-01,5.55635e-01,9.99999e-01,9.99995e-01,5.55638e-01,9.99999e-01
4.080602003e-01,5.62124e-01,9.99999e-01,9.99998e-01,5.62125e-01,9.99999e-01
4.101005013e-01,5.68557e-01,9.99999e-01,9.99999e-01,5.68557e-01,9.99999e-01
4.121510038e-01,5.74933e-01,9.99999e-01,9.99996e-01,5.74934e-01,9.99999e-01
4.142117588e-01,5.81243e-01,9.99999e-01,9.99980e-01,5.81254e-01,9.99999e-01
4.162828176e-01,5.87466e-01,9.99999e-01,9.99912e-01,5.87517e-01,9.99999e-01
4.183642317e-01,5.93691e-01,9.99999e-01,9.99947e-01,5.93722e-01,9.99999e-01
4.204560528e-01,5.99848e-01,9.99999e-01,9.99967e-01,5.99867e-01,9.99999e-01
4.225583331e-01,6.05946e-01,9.99999e-01,9.99987e-01,6.05953e-01,9.99999e-01
4.246711247e-01,6.11973e-01,9.99999e-01,9.99990e-01,6.11979e-01,9.99999e-01
4.267944804e-01,6.17935e-01,9.99999e-01,9.99985e-01,6.17944e-01,9.99999e-01
4.289284528e-01,6.23840e-01,9.99999e-01,9.99988e-01,6.23847e-01,9.99999e-01
4.310730950e-01,6.29686e-01,9.99999e-01,9.99994e-01,6.29689e-01,9.99999e-01
4.332284605e-01,6.35467e-01,9.99999e-01,9.99998e-01,6.35468e-01,9.99999e-01
4.353946028e-01,6.41184e-01,9.99999e-01,9.99998e-01,6.41185e-01,9.99999e-01
4.375715758e-01,6.46833e-01,9.99999e-01,9.99990e-01,6.46838e-01,9.99999e-01
4.397594337e-01,6.52378e-01,9.99999e-01,9.99922e-01,6.52428e-01,9.99999e-01
4.419582309e-01,6.57698e-01,9.99999e-01,9.99608e-01,6.57955e-01,9.99999e-01
4.441680220e-01,6.63217e-01,9.99999e-01,9.99696e-01,6.63418e-01,9.99999e-01
4.463888621e-01,6.68606e-01,9.99999e-01,9.99683e-01,6.68817e-01,9.99999e-01
4.486208064e-01,6.74020e-01,9.99999e-01,9.99803e-01,6.74152e-01,9.99999e-01
4.508639105e-01,6.79361e-01,9.99999e-01,9.99907e-01,6.79423e-01,9.99999e-01
4.531182300e-01,6.84606e-01,9.99999e-01,9.99963e-01,6.84630e-01,9.99999e-01
4.553838212e-01,6.89756e-01,9.99999e-01,9.99974e-01,6.89773e-01,9.99999e-01
4.576607403e-01,6.94844e-01,9.99999e-01,9.99988e-01,6.94852e-01,9.99999e-01
4.599490440e-01,6.99861e-01,9.99999e-01,9.99991e-01,6.99867e-01,9.99999e-01
4.622487892e-01,7.04816e-01,9.99999e-01,9.99998e-01,7.04817e-01,9.99999e-01
4.645600332e-01,7.09700e-01,9.99999e-01,9.99993e-01,7.09704e-01,9.99999e-01
4.668828333e-01,7.14461e-01,9.99999e-01,9.99906e-01,7.14528e-01,9.99999e-01
4.692172475e-01,7.19145e-01,9.99999e-01,9.99801e-01,7.19287e-01,9.99999e-01
4.715633337e-01,7.23890e-01,9.99999e-01,9.99870e-01,7.23984e-01,9.99999e-01
4.739211504e-01,7.28528e-01,9.99999e-01,9.99875e-01,7.28618e-01,9.99999e-01
4.762907561e-01,7.33142e-01,9.99999e-01,9.99935e-01,7.33189e-01,9.99999e-01
4.786722099e-01,7.37678e-01,9.99999e-01,9.99973e-01,7.37697e-01,9.99999e-01
4.810655710e-01,7.42137e-01,9.99999e-01,9.99991e-01,7.42143e-01,9.99999e-01
4.834708988e-01,7.46471e-01,9.99999e-01,9.99923e-01,7.46528e-01,9.99999e-01
4.858882533e-01,7.50746e-01,9.99999e-01,9.99859e-01,7.50851e-01,9.99999e-01
4.883176946e-01,7.55024e-01,9.99999e-01,9.99882e-01,7.55113e-01,9.99999e-01
4.907592831e-01,7.59233e-01,9.99999e-01,9.99893e-01,7.59314e-01,9.99999e-01
4.932130795e-01,7.63397e-01,9.99999e-01,9.99924e-01,7.63455e-01,9.99999e-01
4.956791449e-01,7.67505e-01,9.99999e-01,9.99959e-01,7.67536e-01,9.99999e-01
4.981575406e-01,7.71403e-01,9.99999e-01,9.99800e-01,7.71557e-01,9.99999e-01
5.006483283e-01,7.75115e-01,9.99999e-01,9.99481e-01,7.75520e-01,9.99996e-01
5.031515699e-01,7.77364e-01,9.99999e-01,9.97383e-01,7.79424e-01,9.99972e-01
5.056673278e-01,7.82165e-01,9.99999e-01,9.98620e-01,7.83270e-01,9.99968e-01
5.081956644e-01,7.85674e-01,9.99999e-01,9.98259e-01,7.87058e-01,9.99980e-01
5.107366428e-01,7.89858e-01,9.99999e-01,9.98824e-01,7.90790e-01,9.99996e-01
5.132903260e-01,7.93931e-01,9.99999e-01,9.99328e-01,7.94465e-01,9.99999e-01
5.158567776e-01,7.97857e-01,9.99999e-01,9.99716e-01,7.98083e-01,9.99999e-01
5.184360615e-01,8.01556e-01,9.99999e-01,9.99886e-01,8.01647e-01,9.99999e-01
5.210282418e-01,8.05121e-01,9.99999e-01,9.99957e-01,8.05155e-01,9.99999e-01
5.236333830e-01,8.08471e-01,9.99999e-01,9.99829e-01,8.08609e-01,9.99998e-01
5.262515499e-01,8.11922e-01,9.99999e-01,9.99892e-01,8.12010e-01,9.99997e-01
5.288828077e-01,8.15276e-01,9.99999e-01,9.99901e-01,8.15356e-01,9.99998e-01
5.315272217e-01,8.18580e-01,9.99999e-01,9.99913e-01,8.18651e-01,9.99999e-01
5.341848578e-01,8.21846e-01,9.99999e-01,9.99943e-01,8.21893e-01,9.99999e-01
5.368557821e-01,8.24919e-01,9.99999e-01,9.99800e-01,8.25083e-01,9.99999e-01
5.395400610e-01,8.27622e-01,9.99999e-01,9.99280e-01,8.28223e-01,9.99993e-01
5.422377613e-01,8.30529e-01,9.99999e-01,9.99074e-01,8.31312e-01,9.99982e-01
5.449489501e-01,8.33617e-01,9.99999e-01,9.99137e-01,8.34351e-01,9.99982e-01
5.476736949e-01,8.36696e-01,9.99999e-01,9.99238e-01,8.37341e-01,9.99991e-01
5.504120634e-01,8.39816e-01,9.99999e-01,9.99446e-01,8.40282e-01,9.99997e-01
5.531641237e-01,8.42941e-01,9.99999e-01,9.99721e-01,8.43175e-01,9.99999e-01
5.559299443e-01,8.45908e-01,9.99999e-01,9.99865e-01,8.46021e-01,9.99999e-01
5.587095940e-01,8.48749e-01,9.99999e-01,9.99915e-01,8.48820e-01,9.99999e-01
5.615031420e-01,8.51493e-01,9.99999e-01,9.99905e-01,8.51573e-01,9.99999e-01
5.643106577e-01,8.54187e-01,9.99999e-01,9.99892e-01,8.54279e-01,9.99998e-01
5.671322110e-01,8.55816e-01,9.99999e-01,9.98697e-01,8.56941e-01,9.99988e-01
5.699678720e-01,8.58350e-01,9.99999e-01,9.98628e-01,8.59558e-01,9.99964e-01
5.728177114e-01,8.60871e-01,9.99999e-01,9.98566e-01,8.62132e-01,9.99970e-01
5.756818000e-01,8.63510e-01,9.99999e-01,9.98685e-01,8.64662e-01,9.99982e-01
5.785602090e-01,8.66152e-01,9.99999e-01,9.98854e-01,8.67149e-01,9.99994e-01
5.814530100e-01,8.68591e-01,9.99999e-01,9.98848e-01,8.69594e-01,9.99997e-01
5.843602750e-01,8.70791e-01,9.99999e-01,9.98624e-01,8.71997e-01,9.99991e-01
5.872820764e-01,8.63985e-01,9.99999e-01,9.88216e-01,8.74359e-01,9.99916e-01
5.902184868e-01,8.64006e-01,9.99999e-01,9.85764e-01,8.76681e-01,9.99773e-01
5.931695792e-01,8.69917e-01,9.99999e-01,9.89922e-01,8.78963e-01,9.99781e-01
5.961354271e-01,8.71369e-01,9.99999e-01,9.88959e-01,8.81206e-01,9.99874e-01
5.991161043e-01,8.76255e-01,9.99999e-01,9.91938e-01,8.83410e-01,9.99960e-01
6.021116848e-01,8.81517e-01,9.99999e-01,9.95420e-01,8.85576e-01,9.99995e-01
6.051222432e-01,8.85645e-01,9.99999e-01,9.97680e-01,8.87704e-01,9.99999e-01
6.081478544e-01,8.88904e-01,9.99999e-01,9.98998e-01,8.89795e-01,9.99999e-01
6.111885937e-01,8.91472e-01,9.99999e-01,9.99576e-01,8.91850e-01,9.99999e-01
6.142445367e-01,8.93699e-01,9.99999e-01,9.99810e-01,8.93868e-01,9.99999e-01
6.173157594e-01,8.95758e-01,9.99999e-01,9.99895e-01,8.95851e-01,9.99999e-01
6.204023382e-01,8.97720e-01,9.99999e-01,9.99911e-01,8.97800e-01,9.99999e-01
6.235043498e-01,8.99361e-01,9.99999e-01,9.99608e-01,8.99713e-01,9.99998e-01
6.266218716e-01,8.99723e-01,9.99999e-01,9.97939e-01,9.01593e-01,9.99985e-01
6.297549810e-01,9.02731e-01,9.99999e-01,9.99243e-01,9.03440e-01,9.99970e-01
6.329037559e-01,9.03882e-01,9.99999e-01,9.98507e-01,9.05254e-01,9.99976e-01
6.360682746e-01,9.05869e-01,9.99999e-01,9.98726e-01,9.07036e-01,9.99985e-01
6.392486160e-01,9.07282e-01,9.99999e-01,9.98351e-01,9.08786e-01,9.99993e-01
6.424448591e-01,9.08481e-01,9.99999e-01,9.97787e-01,9.10504e-01,9.99989e-01
6.456570834e-01,9.02810e-01,9.99999e-01,9.89770e-01,9.12192e-01,9.99942e-01
6.488853688e-01,9.06881e-01,9.99999e-01,9.92532e-01,9.13849e-01,9.99840e-01
6.521297956e-01,9.08393e-01,9.99999e-01,9.92391e-01,9.15477e-01,9.99868e-01
6.553904446e-01,9.10023e-01,9.99999e-01,9.92406e-01,9.17075e-01,9.99901e-01
6.586673968e-01,9.12649e-01,9.99999e-01,9.93505e-01,9.18645e-01,9.99966e-01
6.619607338e-01,9.16844e-01,9.99999e-01,9.96375e-01,9.20186e-01,9.99992e-01
6.652705375e-01,9.19690e-01,9.99999e-01,9.97823e-01,9.21699e-01,9.99995e-01
6.685968902e-01,9.22330e-01,9.99999e-01,9.99074e-01,9.23184e-01,9.99998e-01
6.719398746e-01,9.24210e-01,9.99999e-01,9.99531e-01,9.24643e-01,9.99999e-01
6.752995740e-01,9.25840e-01,9.99999e-01,9.99745e-01,9.26075e-01,9.99999e-01
6.786760719e-01,9.27139e-01,9.99999e-01,9.99631e-01,9.27481e-01,9.99998e-01
6.820694522e-01,9.28274e-01,9.99999e-01,9.99370e-01,9.28861e-01,9.99996e-01
6.854797995e-01,9.29455e-01,9.99999e-01,9.99188e-01,9.30216e-01,9.99992e-01
6.889071985e-01,9.29692e-01,9.99999e-01,9.98026e-01,9.31546e-01,9.99981e-01
6.923517345e-01,9.03217e-01,9.99999e-01,9.68380e-01,9.32852e-01,9.99846e-01
6.958134932e-01,9.18471e-01,9.99999e-01,9.83566e-01,9.34133e-01,9.99659e-01
6.992925606e-01,9.20370e-01,9.99999e-01,9.84242e-01,9.35391e-01,9.99693e-01
7.027890234e-01,9.18269e-01,9.99999e-01,9.80630e-01,9.36626e-01,9.99765e-01
7.063029686e-01,9.22423e-01,9.99999e-01,9.83676e-01,9.37838e-01,9.99883e-01
7.098344834e-01,9.24251e-01,9.99999e-01,9.84330e-01,9.39028e-01,9.99930e-01
7.133836558e-01,9.20437e-01,9.99999e-01,9.79117e-01,9.40195e-01,9.99862e-01
7.169505741e-01,7.95386e-01,9.99999e-01,8.45859e-01,9.41341e-01,9.98922e-01
7.205353270e-01,8.66845e-01,9.99999e-01,9.21511e-01,9.42466e-01,9.98100e-01
7.241380036e-01,8.48474e-01,9.99999e-01,9.00693e-01,9.43570e-01,9.98359e-01
7.277586936e-01,8.58478e-01,9.99999e-01,9.09995e-01,9.44653e-01,9.98658e-01
7.313974871e-01,8.54834e-01,9.99999e-01,9.04468e-01,9.45716e-01,9.99371e-01
7.350544745e-01,8.95921e-01,9.99999e-01,9.46508e-01,9.46759e-01,9.99781e-01
7.387297469e-01,9.10067e-01,9.99999e-01,9.60301e-01,9.47783e-01,9.99899e-01
7.424233956e-01,9.30154e-01,9.99999e-01,9.80379e-01,9.48787e-01,9.99980e-01
7.461355126e-01,9.38427e-01,9.99999e-01,9.88056e-01,9.49773e-01,9.99996e-01
7.498661902e-01,9.45442e-01,9.99999e-01,9.94427e-01,9.50740e-01,9.99998e-01
7.536155211e-01,9.49082e-01,9.99999e-01,9.97260e-01,9.51689e-01,9.99998e-01
7.573835987e-01,9.51277e-01,9.99999e-01,9.98589e-01,9.52621e-01,9.99999e-01
7.611705167e-01,9.52698e-01,9.99999e-01,9.99122e-01,9.53534e-01,9.99999e-01
7.649763693e-01,9.53906e-01,9.99999e-01,9.99449e-01,9.54431e-01,9.99999e-01
7.688012511e-01,9.54945e-01,9.99999e-01,9.99616e-01,9.55310e-01,9.99999e-01
7.726452574e-01,9.55872e-01,9.99999e-01,9.99684e-01,9.56174e-01,9.99999e-01
7.765084837e-01,9.56590e-01,9.99999e-01,9.99550e-01,9.57020e-01,9.99998e-01
7.803910261e-01,9.55990e-01,9.99999e-01,9.98058e-01,9.57851e-01,9.99997e-01
7.842929812e-01,9.52173e-01,9.99999e-01,9.93238e-01,9.58666e-01,9.99987e-01
7.882144461e-01,9.46092e-01,9.99999e-01,9.86154e-01,9.59466e-01,9.99904e-01
7.921555184e-01,9.52796e-01,9.99999e-01,9.92401e-01,9.60250e-01,9.99833e-01
7.961162960e-01,9.47951e-01,9.99999e-01,9.86556e-01,9.61020e-01,9.99841e-01
8.000968774e-01,9.46713e-01,9.99999e-01,9.84504e-01,9.61775e-01,9.99831e-01
8.040973618e-01,9.47473e-01,9.99999e-01,9.84496e-01,9.62516e-01,9.99871e-01
8.081178486e-01,9.29778e-01,9.99999e-01,9.65383e-01,9.63242e-01,9.99869e-01
8.121584379e-01,8.32716e-01,9.99999e-01,8.64277e-01,9.63955e-01,9.99507e-01
8.162192301e-01,8.10572e-01,9.99999e-01,8.41826e-01,9.64654e-01,9.98152e-01
8.203003262e-01,8.84997e-01,9.99999e-01,9.18758e-01,9.65340e-01,9.97836e-01
8.244018279e-01,8.58359e-01,9.99999e-01,8.90090e-01,9.66013e-01,9.98277e-01
8.285238370e-01,8.70476e-01,9.99999e-01,9.01705e-01,9.66673e-01,9.98647e-01
8.326664562e-01,8.71049e-01,9.99999e-01,9.00980e-01,9.67320e-01,9.99440e-01
8.368297885e-01,8.98081e-01,9.99999e-01,9.27930e-01,9.67955e-01,9.99871e-01
8.410139374e-01,9.26369e-01,9.99999e-01,9.56492e-01,9.68578e-01,9.99924e-01
8.452190071e-01,9.48230e-01,9.99999e-01,9.78417e-01,9.69189e-01,9.99954e-01
8.494451021e-01,9.57538e-01,9.99999e-01,9.87402e-01,9.69789e-01,9.99963e-01
8.536923276e-01,9.63118e-01,9.99999e-01,9.92541e-01,9.70376e-01,9.99977e-01
8.579607893e-01,9.66478e-01,9.99999e-01,9.95395e-01,9.70953e-01,9.99994e-01
8.622505932e-01,9.68677e-01,9.99999e-01,9.97075e-01,9.71518e-01,9.99998e-01
8.665618462e-01,9.70311e-01,9.99999e-01,9.98187e-01,9.72073e-01,9.99998e-01
8.708946554e-01,9.70597e-01,9.99999e-01,9.97923e-01,9.72617e-01,9.99998e-01
8.752491287e-01,9.70447e-01,9.99999e-01,9.97223e-01,9.73151e-01,9.99996e-01
8.796253743e-01,9.69921e-01,9.99999e-01,9.96153e-01,9.73674e-01,9.99990e-01
8.840235012e-01,9.69884e-01,9.99999e-01,9.95608e-01,9.74187e-01,9.99972e-01
8.884436187e-01,9.59059e-01,9.99999e-01,9.84036e-01,9.74690e-01,9.99923e-01
8.928858368e-01,8.24631e-01,9.99999e-01,8.45987e-01,9.75184e-01,9.99560e-01
8.973502660e-01,7.25855e-01,9.99999e-01,7.45631e-01,9.75668e-01,9.97752e-01
9.018370173e-01,8.37720e-01,9.99999e-01,8.61234e-01,9.76143e-01,9.96468e-01
9.063462024e-01,8.52576e-01,9.99999e-01,8.75712e-01,9.76609e-01,9.96897e-01
9.108779334e-01,7.92281e-01,9.99999e-01,8.13499e-01,9.77065e-01,9.96776e-01
9.154323231e-01,7.70608e-01,9.99999e-01,7.90441e-01,9.77513e-01,9.97334e-01
9.200094847e-01,8.12869e-01,9.99999e-01,8.32437e-01,9.77952e-01,9.98507e-01
9.246095321e-01,7.39290e-01,9.99999e-01,7.56925e-01,9.78383e-01,9.98280e-01
9.292325798e-01,1.71943e-01,9.99999e-01,1.76849e-01,9.78806e-01,9.93310e-01
9.338787427e-01,1.01547e-01,9.99999e-01,1.06620e-01,9.79220e-01,9.72636e-01
9.385481364e-01,3.80495e-01,9.99999e-01,4.01438e-01,9.79626e-01,9.67540e-01
9.432408771e-01,2.80504e-01,9.99999e-01,2.94487e-01,9.80024e-01,9.71933e-01
9.479570815e-01,1.76032e-01,9.99999e-01,1.83756e-01,9.80415e-01,9.77096e-01
9.526968669e-01,2.60115e-01,9.99999e-01,2.68982e-01,9.80798e-01,9.85967e-01
9.574603512e-01,2.78157e-01,9.99999e-01,2.85536e-01,9.81174e-01,9.92847e-01
9.622476530e-01,3.45919e-01,9.99999e-01,3.54178e-01,9.81542e-01,9.95048e-01
9.670588912e-01,5.34357e-01,9.99999e-01,5.46055e-01,9.81903e-01,9.96610e-01
9.718941857e-01,6.63909e-01,9.99999e-01,6.77591e-01,9.82258e-01,9.97503e-01
9.767536566e-01,7.09522e-01,9.99999e-01,7.23462e-01,9.82605e-01,9.98091e-01
9.816374249e-01,7.71943e-01,9.99999e-01,7.85855e-01,9.82946e-01,9.99338e-01
9.865456120e-01,8.45321e-01,9.99999e-01,8.59813e-01,9.83280e-01,9.99861e-01
9.914783401e-01,8.95684e-01,9.99999e-01,9.10645e-01,9.83607e-01,9.99961e-01
9.964357318e-01,9.35006e-01,9.99999e-01,9.50299e-01,9.83928e-01,9.99977e-01
1.001417910e+00,9.54582e-01,9.99999e-01,9.69896e-01,9.84243e-01,9.99965e-01
1.006425000e+00,9.67484e-01,9.99999e-01,9.82710e-01,9.84552e-01,9.99950e-01
1.011457125e+00,9.74220e-01,9.99999e-01,9.89245e-01,9.84855e-01,9.99954e-01
1.016514411e+00,9.77913e-01,9.99999e-01,9.92682e-01,9.85152e-01,9.99967e-01
1.021596983e+00,9.79662e-01,9.99999e-01,9.94163e-01,9.85443e-01,9.99968e-01
1.026704968e+00,9.81220e-01,9.99999e-01,9.95445e-01,9.85728e-01,9.99979e-01
1.031838492e+00,9.82739e-01,9.99999e-01,9.96690e-01,9.86008e-01,9.99993e-01
1.036997685e+00,9.84341e-01,9.99999e-01,9.98031e-01,9.86283e-01,9.99998e-01
1.042182673e+00,9.84234e-01,9.99999e-01,9.97650e-01,9.86552e-01,9.99999e-01
1.047393587e+00,9.83744e-01,9.99999e-01,9.96886e-01,9.86816e-01,9.99998e-01
1.052630555e+00,9.82857e-01,9.99999e-01,9.95728e-01,9.87074e-01,9.99998e-01
1.057893707e+00,9.80291e-01,9.99999e-01,9.92874e-01,9.87328e-01,9.99997e-01
1.063183176e+00,9.76024e-01,9.99999e-01,9.88307e-01,9.87577e-01,9.99993e-01
1.068499092e+00,9.68555e-01,9.99999e-01,9.80509e-01,9.87821e-01,9.99986e-01
1.073841587e+00,9.65540e-01,9.99999e-01,9.77235e-01,9.88060e-01,9.99970e-01
1.079210795e+00,9.59493e-01,9.99999e-01,9.70933e-01,9.88294e-01,9.99921e-01
1.084606849e+00,9.45187e-01,9.99999e-01,9.56340e-01,9.88524e-01,9.99810e-01
1.090029883e+00,9.26974e-01,9.99999e-01,9.37888e-01,9.88749e-01,9.99607e-01
1.095480033e+00,8.30086e-01,9.99999e-01,8.39938e-01,9.88970e-01,9.99290e-01
1.100957433e+00,6.37384e-01,9.99999e-01,6.45192e-01,9.89187e-01,9.98695e-01
1.106462220e+00,3.38370e-01,9.99999e-01,3.42752e-01,9.89400e-01,9.97788e-01
1.111994531e+00,1.10114e-01,9.99999e-01,1.11926e-01,9.89608e-01,9.94141e-01
1.117554504e+00,3.17303e-02,9.99999e-01,3.27441e-02,9.89812e-01,9.79010e-01
1.123142276e+00,9.11194e-02,9.99999e-01,9.67869e-02,9.90012e-01,9.50939e-01
1.128757988e+00,1.82529e-01,9.99999e-01,1.95380e-01,9.90209e-01,9.43466e-01
1.134401778e+00,8.23134e-02,9.99999e-01,8.73272e-02,9.90401e-01,9.51721e-01
1.140073787e+00,3.43044e-01,9.99999e-01,3.60268e-01,9.90590e-01,9.61234e-01
1.145774156e+00,1.31311e-01,9.99999e-01,1.37418e-01,9.90775e-01,9.64457e-01
1.151503026e+00,1.08213e-01,9.99999e-01,1.11425e-01,9.90956e-01,9.80040e-01
1.157260541e+00,1.37642e-01,9.99999e-01,1.39712e-01,9.91134e-01,9.93989e-01
1.163046844e+00,2.27919e-01,9.99999e-01,2.30310e-01,9.91308e-01,9.98292e-01
1.168862078e+00,3.46096e-01,9.99999e-01,3.49377e-01,9.91479e-01,9.99119e-01
1.174706389e+00,5.16371e-01,9.99999e-01,5.21328e-01,9.91647e-01,9.98833e-01
1.180579921e+00,6.64268e-01,9.99999e-01,6.70934e-01,9.91811e-01,9.98237e-01
1.186482820e+00,7.88841e-01,9.99999e-01,7.96665e-01,9.91972e-01,9.98190e-01
1.192415234e+00,8.67319e-01,9.99999e-01,8.75384e-01,9.92130e-01,9.98644e-01
1.198377311e+00,8.85850e-01,9.99999e-01,8.93881e-01,9.92285e-01,9.98719e-01
1.204369197e+00,8.91786e-01,9.99999e-01,8.99624e-01,9.92437e-01,9.98841e-01
1.210391043e+00,8.96282e-01,9.99999e-01,9.03613e-01,9.92585e-01,9.99294e-01
1.216442998e+00,9.10392e-01,9.99999e-01,9.17453e-01,9.92731e-01,9.99567e-01
1.222525213e+00,9.28088e-01,9.99999e-01,9.34998e-01,9.92874e-01,9.99731e-01
1.228637839e+00,9.47591e-01,9.99999e-01,9.54375e-01,9.93015e-01,9.99874e-01
1.234781029e+00,9.59290e-01,9.99999e-01,9.65938e-01,9.93152e-01,9.99963e-01
1.240954934e+00,9.71741e-01,9.99999e-01,9.78317e-01,9.93287e-01,9.99989e-01
1.247159708e+00,9.76602e-01,9.99999e-01,9.83077e-01,9.93419e-01,9.99993e-01
1.253395507e+00,9.78592e-01,9.99999e-01,9.84954e-01,9.93549e-01,9.99991e-01
1.259662485e+00,9.79445e-01,9.99999e-01,9.85691e-01,9.93676e-01,9.99986e-01
1.265960797e+00,9.71176e-01,9.99999e-01,9.77255e-01,9.93800e-01,9.99977e-01
1.272290601e+00,9.58579e-01,9.99999e-01,9.64478e-01,9.93922e-01,9.99960e-01
1.278652054e+00,9.25158e-01,9.99999e-01,9.30767e-01,9.94042e-01,9.99930e-01
1.285045314e+00,8.73039e-01,9.99999e-01,8.78281e-01,9.94159e-01,9.99869e-01
1.291470541e+00,7.93086e-01,9.99999e-01,7.97834e-01,9.94274e-01,9.99771e-01
1.297927893e+00,7.21755e-01,9.99999e-01,7.26137e-01,9.94387e-01,9.99574e-01
1.304417533e+00,6.83053e-01,9.99999e-01,6.87451e-01,9.94498e-01,9.99098e-01
1.310939621e+00,6.46037e-01,9.99999e-01,6.50744e-01,9.94606e-01,9.98149e-01
1.317494319e+00,6.23553e-01,9.99999e-01,6.29018e-01,9.94712e-01,9.96580e-01
1.324081790e+00,4.99601e-01,9.99999e-01,5.05020e-01,9.94816e-01,9.94423e-01
1.330702199e+00,1.30660e-01,9.99999e-01,1.32600e-01,9.94918e-01,9.90403e-01
1.337355710e+00,2.34794e-03,9.99999e-01,2.40392e-03,9.95019e-01,9.81601e-01
1.344042489e+00,3.88406e-05,9.99999e-01,4.12764e-05,9.95117e-01,9.45602e-01
1.350762701e+00,6.62344e-14,9.99999e-01,8.05999e-14,9.95213e-01,8.25720e-01
1.357516515e+00,1.36235e-20,9.99999e-01,2.40108e-20,9.95307e-01,5.70062e-01
1.364304097e+00,4.35174e-13,9.99999e-01,1.17066e-12,9.95400e-01,3.73452e-01
1.371125618e+00,1.85275e-08,9.99999e-01,4.71059e-08,9.95490e-01,3.95096e-01
1.377981246e+00,6.81725e-08,9.99999e-01,1.51788e-07,9.95579e-01,4.51125e-01
1.384871152e+00,4.50736e-11,9.99999e-01,9.50477e-11,9.95666e-01,4.76284e-01
1.391795508e+00,4.47782e-13,9.99999e-01,9.11965e-13,9.95752e-01,4.93102e-01
1.398754485e+00,2.54421e-10,9.99999e-01,4.58154e-10,9.95835e-01,5.57639e-01
1.405748258e+00,3.57808e-10,9.99999e-01,5.05482e-10,9.95917e-01,7.10754e-01
1.412776999e+00,5.77749e-10,9.99999e-01,6.77924e-10,9.95998e-01,8.55656e-01
1.419840884e+00,1.15871e-09,9.99999e-01,1.24556e-09,9.96077e-01,9.33931e-01
1.426940089e+00,6.41126e-07,9.99998e-01,6.77904e-07,9.96154e-01,9.49396e-01
1.434074789e+00,6.38425e-06,9.99999e-01,6.81337e-06,9.96230e-01,9.40562e-01
1.441245163e+00,5.42025e-05,9.99999e-01,5.81369e-05,9.96304e-01,9.35782e-01
1.448451389e+00,1.20771e-03,9.99998e-01,1.28463e-03,9.96377e-01,9.43541e-01
1.455693646e+00,1.01303e-02,9.99999e-01,1.06366e-02,9.96448e-01,9.55787e-01
1.462972114e+00,1.49374e-02,9.99999e-01,1.56502e-02,9.96519e-01,9.57789e-01
1.470286975e+00,7.99356e-03,9.99999e-01,8.36826e-03,9.96587e-01,9.58493e-01
