#,Wave/freq,Total,N2,H2O,Rayleigh,CIA
4.000000000e-01,9.14457e-01,9.99999e-01,9.99989e-01,9.14466e-01,9.99999e-01
4.020000000e-01,9.16079e-01,9.99999e-01,9.99993e-01,9.16084e-01,9.99999e-01
4.040100000e-01,9.17669e-01,9.99999e-01,9.99996e-01,9.17672e-01,9.99999e-01
4.060300500e-01,9.19230e-01,9.99999e-01,9.99998e-01,9.19230e-01,9.99999e-01
4.080602003e-01,9.20761e-01,9.99999e-01,9.99999e-01,9.20761e-01,9.99999e-01
4.101005013e-01,9.22263e-01,9.99999e-01,9.99999e-01,9.22263e-01,9.99999e-01
4.121510038e-01,9.23738e-01,9.99999e-01,9.99999e-01,9.23739e-01,9.99999e-01
4.142117588e-01,9.25185e-01,9.99999e-01,9.99996e-01,9.25187e-01,9.99999e-01
4.162828176e-01,9.26598e-01,9.99999e-01,9.99987e-01,9.26609e-01,9.99999e-01
4.183642317e-01,9.27999e-01,9.99999e-01,9.99992e-01,9.28006e-01,9.99999e-01
4.204560528e-01,9.29372e-01,9.99999e-01,9.99994e-01,9.29376e-01,9.99999e-01
4.225583331e-01,9.30720e-01,9.99999e-01,9.99997e-01,9.30722e-01,9.99999e-01
4.246711247e-01,9.32041e-01,9.99999e-01,9.99998e-01,9.32042e-01,9.99999e-01
4.267944804e-01,9.33337e-01,9.99999e-01,9.99997e-01,9.33339e-01,9.99999e-01
4.289284528e-01,9.34610e-01,9.99999e-01,9.99997e-01,9.34612e-01,9.99999e-01
4.310730950e-01,9.35860e-01,9.99999e-01,9.99998e-01,9.35861e-01,9.99999e-01
4.332284605e-01,9.37087e-01,9.99999e-01,9.99999e-01,9.37087e-01,9.99999e-01
4.353946028e-01,9.38290e-01,9.99999e-01,9.99999e-01,9.38291e-01,9.99999e-01
4.375715758e-01,9.39471e-01,9.99999e-01,9.99998e-01,9.39472e-01,9.99999e-01
4.397594337e-01,9.40621e-01,9.99999e-01,9.99988e-01,9.40631e-01,9.99999e-01
4.419582309e-01,9.41716e-01,9.99999e-01,9.99943e-01,9.41769e-01,9.99999e-01
4.441680220e-01,9.42845e-01,9.99999e-01,9.99956e-01,9.42886e-01,9.99999e-01
4.463888621e-01,9.43939e-01,9.99999e-01,9.99954e-01,9.43982e-01,9.99999e-01
4.486208064e-01,9.45031e-01,9.99999e-01,9.99971e-01,9.45057e-01,9.99999e-01
4.508639105e-01,9.46100e-01,9.99999e-01,9.99986e-01,9.46112e-01,9.99999e-01
4.531182300e-01,9.47143e-01,9.99999e-01,9.99994e-01,9.47148e-01,9.99999e-01
4.553838212e-01,9.48161e-01,9.99999e-01,9.99995e-01,9.48165e-01,9.99999e-01
4.576607403e-01,9.49160e-01,9.99999e-01,9.99997e-01,9.49162e-01,9.99999e-01
4.599490440e-01,9.50140e-01,9.99999e-01,9.99998e-01,9.50141e-01,9.99999e-01
4.622487892e-01,9.51101e-01,9.99999e-01,9.99999e-01,9.51101e-01,9.99999e-01
4.645600332e-01,9.52043e-01,9.99999e-01,9.99998e-01,9.52043e-01,9.99999e-01
4.668828333e-01,9.52955e-01,9.99999e-01,9.99986e-01,9.52968e-01,9.99999e-01
4.692172475e-01,9.53848e-01,9.99999e-01,9.99971e-01,9.53875e-01,9.99999e-01
4.715633337e-01,9.54748e-01,9.99999e-01,9.99980e-01,9.54765e-01,9.99999e-01
4.739211504e-01,9.55622e-01,9.99999e-01,9.99981e-01,9.55639e-01,9.99999e-01
4.762907561e-01,9.56487e-01,9.99999e-01,9.99990e-01,9.56496e-01,9.99999e-01
4.786722099e-01,9.57333e-01,9.99999e-01,9.99995e-01,9.57336e-01,9.99999e-01
4.810655710e-01,9.58160e-01,9.99999e-01,9.99998e-01,9.58161e-01,9.99999e-01
4.834708988e-01,9.58960e-01,9.99999e-01,9.99988e-01,9.58970e-01,9.99999e-01
4.858882533e-01,9.59745e-01,9.99999e-01,9.99979e-01,9.59764e-01,9.99999e-01
4.883176946e-01,9.60527e-01,9.99999e-01,9.99982e-01,9.60543e-01,9.99999e-01
4.907592831e-01,9.61293e-01,9.99999e-01,9.99984e-01,9.61307e-01,9.99999e-01
4.932130795e-01,9.62046e-01,9.99999e-01,9.99988e-01,9.62057e-01,9.99999e-01
4.956791449e-01,9.62787e-01,9.99999e-01,9.99993e-01,9.62792e-01,9.99999e-01
4.981575406e-01,9.63486e-01,9.99999e-01,9.99970e-01,9.63513e-01,9.99999e-01
5.006483283e-01,9.64149e-01,9.99999e-01,9.99925e-01,9.64221e-01,9.99999e-01
5.031515699e-01,9.64549e-01,9.99999e-01,9.99623e-01,9.64915e-01,9.99995e-01
5.056673278e-01,9.65401e-01,9.99999e-01,9.99801e-01,9.65596e-01,9.99994e-01
5.081956644e-01,9.66020e-01,9.99999e-01,9.99750e-01,9.66264e-01,9.99996e-01
5.107366428e-01,9.66756e-01,9.99999e-01,9.99831e-01,9.66919e-01,9.99999e-01
5.132903260e-01,9.67469e-01,9.99999e-01,9.99903e-01,9.67562e-01,9.99999e-01
5.158567776e-01,9.68153e-01,9.99999e-01,9.99958e-01,9.68192e-01,9.99999e-01
5.184360615e-01,9.68795e-01,9.99999e-01,9.99983e-01,9.68811e-01,9.99999e-01
5.210282418e-01,9.69411e-01,9.99999e-01,9.99993e-01,9.69417e-01,9.99999e-01
5.236333830e-01,9.69988e-01,9.99999e-01,9.99975e-01,9.70012e-01,9.99999e-01
5.262515499e-01,9.70581e-01,9.99999e-01,9.99984e-01,9.70596e-01,9.99999e-01
5.288828077e-01,9.71154e-01,9.99999e-01,9.99985e-01,9.71168e-01,9.99999e-01
5.315272217e-01,9.71717e-01,9.99999e-01,9.99987e-01,9.71729e-01,9.99999e-01
5.341848578e-01,9.72272e-01,9.99999e-01,9.99991e-01,9.72280e-01,9.99999e-01
5.368557821e-01,9.72792e-01,9.99999e-01,9.99970e-01,9.72820e-01,9.99999e-01
5.395400610e-01,9.73248e-01,9.99999e-01,9.99895e-01,9.73350e-01,9.99998e-01
5.422377613e-01,9.73738e-01,9.99999e-01,9.99867e-01,9.73869e-01,9.99997e-01
5.449489501e-01,9.74255e-01,9.99999e-01,9.99875e-01,9.74378e-01,9.99997e-01
5.476736949e-01,9.74771e-01,9.99999e-01,9.99890e-01,9.74878e-01,9.99998e-01
5.504120634e-01,9.75291e-01,9.99999e-01,9.99920e-01,9.75368e-01,9.99999e-01
5.531641237e-01,9.75810e-01,9.99999e-01,9.99959e-01,9.75849e-01,9.99999e-01
5.559299443e-01,9.76301e-01,9.99999e-01,9.99980e-01,9.76320e-01,9.99999e-01
5.587095940e-01,9.76771e-01,9.99999e-01,9.99987e-01,9.76782e-01,9.99999e-01
5.615031420e-01,9.77223e-01,9.99999e-01,9.99986e-01,9.77236e-01,9.99999e-01
5.643106577e-01,9.77665e-01,9.99999e-01,9.99984e-01,9.77680e-01,9.99999e-01
5.671322110e-01,9.77931e-01,9.99999e-01,9.99811e-01,9.78116e-01,9.99997e-01
5.699678720e-01,9.78347e-01,9.99999e-01,9.99803e-01,9.78544e-01,9.99994e-01
5.728177114e-01,9.78758e-01,9.99999e-01,9.99793e-01,9.78963e-01,9.99995e-01
5.756818000e-01,9.79187e-01,9.99999e-01,9.99811e-01,9.79374e-01,9.99997e-01
5.785602090e-01,9.79616e-01,9.99999e-01,9.99835e-01,9.79778e-01,9.99998e-01
5.814530100e-01,9.80011e-01,9.99999e-01,9.99834e-01,9.80173e-01,9.99999e-01
5.843602750e-01,9.80366e-01,9.99999e-01,9.99801e-01,9.80561e-01,9.99998e-01
5.872820764e-01,9.79257e-01,9.99999e-01,9.98294e-01,9.80941e-01,9.99987e-01
5.902184868e-01,9.79268e-01,9.99999e-01,9.97946e-01,9.81314e-01,9.99967e-01
5.931695792e-01,9.80222e-01,9.99999e-01,9.98545e-01,9.81680e-01,9.99968e-01
5.961354271e-01,9.80459e-01,9.99999e-01,9.98408e-01,9.82038e-01,9.99981e-01
5.991161043e-01,9.81246e-01,9.99999e-01,9.98840e-01,9.82390e-01,9.99993e-01
6.021116848e-01,9.82088e-01,9.99999e-01,9.99342e-01,9.82735e-01,9.99998e-01
6.051222432e-01,9.82746e-01,9.99999e-01,9.99667e-01,9.83073e-01,9.99999e-01
6.081478544e-01,9.83263e-01,9.99999e-01,9.99856e-01,9.83404e-01,9.99999e-01
6.111885937e-01,9.83670e-01,9.99999e-01,9.99938e-01,9.83729e-01,9.99999e-01
6.142445367e-01,9.84022e-01,9.99999e-01,9.99972e-01,9.84048e-01,9.99999e-01
6.173157594e-01,9.84346e-01,9.99999e-01,9.99984e-01,9.84361e-01,9.99999e-01
6.204023382e-01,9.84655e-01,9.99999e-01,9.99986e-01,9.84667e-01,9.99999e-01
6.235043498e-01,9.84912e-01,9.99999e-01,9.99943e-01,9.84968e-01,9.99999e-01
6.266218716e-01,9.84969e-01,9.99999e-01,9.99703e-01,9.85263e-01,9.99997e-01
6.297549810e-01,9.85441e-01,9.99999e-01,9.99891e-01,9.85552e-01,9.99995e-01
6.329037559e-01,9.85621e-01,9.99999e-01,9.99785e-01,9.85835e-01,9.99996e-01
6.360682746e-01,9.85931e-01,9.99999e-01,9.99816e-01,9.86113e-01,9.99997e-01
6.392486160e-01,9.86151e-01,9.99999e-01,9.99763e-01,9.86385e-01,9.99998e-01
6.424448591e-01,9.86337e-01,9.99999e-01,9.99681e-01,9.86652e-01,9.99997e-01
6.456570834e-01,9.85447e-01,9.99999e-01,9.98521e-01,9.86914e-01,9.99990e-01
6.488853688e-01,9.86088e-01,9.99999e-01,9.98925e-01,9.87171e-01,9.99976e-01
6.521297956e-01,9.86323e-01,9.99999e-01,9.98904e-01,9.87423e-01,9.99980e-01
6.553904446e-01,9.86576e-01,9.99999e-01,9.98906e-01,9.87670e-01,9.99985e-01
6.586673968e-01,9.86985e-01,9.99999e-01,9.99066e-01,9.87912e-01,9.99994e-01
6.619607338e-01,9.87634e-01,9.99999e-01,9.99479e-01,9.88149e-01,9.99998e-01
6.652705375e-01,9.88073e-01,9.99999e-01,9.99687e-01,9.88382e-01,9.99998e-01
6.685968902e-01,9.88479e-01,9.99999e-01,9.99867e-01,9.88610e-01,9.99999e-01
6.719398746e-01,9.88767e-01,9.99999e-01,9.99932e-01,9.88834e-01,9.99999e-01
6.752995740e-01,9.89018e-01,9.99999e-01,9.99964e-01,9.89053e-01,9.99999e-01
6.786760719e-01,9.89215e-01,9.99999e-01,9.99946e-01,9.89268e-01,9.99999e-01
6.820694522e-01,9.89389e-01,9.99999e-01,9.99909e-01,9.89479e-01,9.99999e-01
6.854797995e-01,9.89569e-01,9.99999e-01,9.99883e-01,9.89685e-01,9.99998e-01
6.889071985e-01,9.89604e-01,9.99999e-01,9.99714e-01,9.89888e-01,9.99996e-01
6.923517345e-01,9.85491e-01,9.99999e-01,9.95379e-01,9.90087e-01,9.99977e-01
6.958134932e-01,9.87886e-01,9.99999e-01,9.97628e-01,9.90282e-01,9.99950e-01
6.992925606e-01,9.88169e-01,9.99999e-01,9.97716e-01,9.90473e-01,9.99955e-01
7.027890234e-01,9.87850e-01,9.99999e-01,9.97196e-01,9.90660e-01,9.99965e-01
7.063029686e-01,9.88491e-01,9.99999e-01,9.97642e-01,9.90844e-01,9.99982e-01
7.098344834e-01,9.88773e-01,9.99999e-01,9.97737e-01,9.91024e-01,9.99989e-01
7.133836558e-01,9.88167e-01,9.99999e-01,9.96958e-01,9.91200e-01,9.99979e-01
7.169505741e-01,9.67206e-01,9.99999e-01,9.75772e-01,9.91373e-01,9.99845e-01
7.205353270e-01,9.79612e-01,9.99999e-01,9.88236e-01,9.91543e-01,9.99727e-01
7.241380036e-01,9.76534e-01,9.99999e-01,9.84928e-01,9.91709e-01,9.99764e-01
7.277586936e-01,9.78193e-01,9.99999e-01,9.86398e-01,9.91872e-01,9.99807e-01
7.313974871e-01,9.77680e-01,9.99999e-01,9.85620e-01,9.92032e-01,9.99909e-01
7.350544745e-01,9.84340e-01,9.99999e-01,9.92119e-01,9.92189e-01,9.99968e-01
7.387297469e-01,9.86576e-01,9.99999e-01,9.94202e-01,9.92343e-01,9.99985e-01
7.424233956e-01,9.89678e-01,9.99999e-01,9.97165e-01,9.92493e-01,9.99997e-01
7.461355126e-01,9.90934e-01,9.99999e-01,9.98280e-01,9.92641e-01,9.99999e-01
7.498661902e-01,9.91992e-01,9.99999e-01,9.99200e-01,9.92786e-01,9.99999e-01
7.536155211e-01,9.92538e-01,9.99999e-01,9.99606e-01,9.92928e-01,9.99999e-01
7.573835987e-01,9.92866e-01,9.99999e-01,9.99797e-01,9.93067e-01,9.99999e-01
7.611705167e-01,9.93079e-01,9.99999e-01,9.99873e-01,9.93203e-01,9.99999e-01
7.649763693e-01,9.93259e-01,9.99999e-01,9.99920e-01,9.93337e-01,9.99999e-01
7.688012511e-01,9.93414e-01,9.99999e-01,9.99944e-01,9.93468e-01,9.99999e-01
7.726452574e-01,9.93552e-01,9.99999e-01,9.99954e-01,9.93597e-01,9.99999e-01
7.765084837e-01,9.93659e-01,9.99999e-01,9.99934e-01,9.93723e-01,9.99999e-01
7.803910261e-01,9.93569e-01,9.99999e-01,9.99720e-01,9.93847e-01,9.99999e-01
7.842929812e-01,9.92997e-01,9.99999e-01,9.99024e-01,9.93968e-01,9.99997e-01
7.882144461e-01,9.92087e-01,9.99999e-01,9.98001e-01,9.94087e-01,9.99985e-01
7.921555184e-01,9.93094e-01,9.99999e-01,9.98907e-01,9.94203e-01,9.99975e-01
7.961162960e-01,9.92361e-01,9.99999e-01,9.98054e-01,9.94317e-01,9.99976e-01
8.000968774e-01,9.92181e-01,9.99999e-01,9.97762e-01,9.94429e-01,9.99975e-01
8.040973618e-01,9.92293e-01,9.99999e-01,9.97759e-01,9.94539e-01,9.99981e-01
8.081178486e-01,9.89585e-01,9.99999e-01,9.94929e-01,9.94646e-01,9.99980e-01
8.121584379e-01,9.73795e-01,9.99999e-01,9.79001e-01,9.94752e-01,9.99929e-01
8.162192301e-01,9.69985e-01,9.99999e-01,9.75259e-01,9.94855e-01,9.99734e-01
8.203003262e-01,9.82099e-01,9.99999e-01,9.87383e-01,9.94956e-01,9.99689e-01
8.244018279e-01,9.77564e-01,9.99999e-01,9.82663e-01,9.95056e-01,9.99752e-01
8.285238370e-01,9.80164e-01,9.99999e-01,9.85128e-01,9.95153e-01,9.99805e-01
8.326664562e-01,9.80243e-01,9.99999e-01,9.85001e-01,9.95249e-01,9.99919e-01
8.368297885e-01,9.84672e-01,9.99999e-01,9.89297e-01,9.95342e-01,9.99981e-01
8.410139374e-01,9.89088e-01,9.99999e-01,9.93634e-01,9.95434e-01,9.99988e-01
8.452190071e-01,9.92411e-01,9.99999e-01,9.96878e-01,9.95524e-01,9.99993e-01
8.494451021e-01,9.93800e-01,9.99999e-01,9.98184e-01,9.95612e-01,9.99994e-01
8.536923276e-01,9.94629e-01,9.99999e-01,9.98928e-01,9.95699e-01,9.99996e-01
8.579607893e-01,9.95125e-01,9.99999e-01,9.99338e-01,9.95784e-01,9.99998e-01
8.622505932e-01,9.95449e-01,9.99999e-01,9.99580e-01,9.95867e-01,9.99999e-01
8.665618462e-01,9.95689e-01,9.99999e-01,9.99739e-01,9.95948e-01,9.99999e-01
8.708946554e-01,9.95731e-01,9.99999e-01,9.99701e-01,9.96028e-01,9.99999e-01
8.752491287e-01,9.95709e-01,9.99999e-01,9.99601e-01,9.96106e-01,9.99999e-01
8.796253743e-01,9.95631e-01,9.99999e-01,9.99446e-01,9.96183e-01,9.99998e-01
8.840235012e-01,9.95625e-01,9.99999e-01,9.99368e-01,9.96258e-01,9.99995e-01
8.884436187e-01,9.93996e-01,9.99999e-01,9.97665e-01,9.96332e-01,9.99988e-01
8.928858368e-01,9.72208e-01,9.99999e-01,9.75777e-01,9.96404e-01,9.99936e-01
8.973502660e-01,9.54049e-01,9.99999e-01,9.57732e-01,9.96475e-01,9.99677e-01
9.018370173e-01,9.74424e-01,9.99999e-01,9.78297e-01,9.96545e-01,9.99492e-01
9.063462024e-01,9.76946e-01,9.99999e-01,9.80702e-01,9.96613e-01,9.99554e-01
9.108779334e-01,9.66490e-01,9.99999e-01,9.70158e-01,9.96680e-01,9.99536e-01
9.154323231e-01,9.62735e-01,9.99999e-01,9.66247e-01,9.96745e-01,9.99617e-01
9.200094847e-01,9.70176e-01,9.99999e-01,9.73489e-01,9.96809e-01,9.99785e-01
9.246095321e-01,9.54576e-01,9.99999e-01,9.57806e-01,9.96872e-01,9.99752e-01
9.292325798e-01,7.46134e-01,9.99999e-01,7.49320e-01,9.96934e-01,9.98809e-01
9.338787427e-01,6.84696e-01,9.99999e-01,6.89723e-01,9.96994e-01,9.95702e-01
9.385481364e-01,8.54900e-01,9.99999e-01,8.61491e-01,9.97053e-01,9.95279e-01
9.432408771e-01,8.03816e-01,9.99999e-01,8.09441e-01,9.97112e-01,9.95926e-01
9.479570815e-01,7.39699e-01,9.99999e-01,7.44267e-01,9.97168e-01,9.96683e-01
9.526968669e-01,8.01104e-01,9.99999e-01,8.04962e-01,9.97224e-01,9.97975e-01
9.574603512e-01,8.18786e-01,9.99999e-01,8.21865e-01,9.97279e-01,9.98970e-01
9.622476530e-01,8.50440e-01,9.99999e-01,8.53321e-01,9.97333e-01,9.99288e-01
9.670588912e-01,9.09902e-01,9.99999e-01,9.12731e-01,9.97385e-01,9.99512e-01
9.718941857e-01,9.41997e-01,9.99999e-01,9.44755e-01,9.97437e-01,9.99641e-01
9.767536566e-01,9.51275e-01,9.99999e-01,9.53931e-01,9.97487e-01,9.99725e-01
9.816374249e-01,9.63282e-01,9.99999e-01,9.65751e-01,9.97537e-01,9.99904e-01
9.865456120e-01,9.76105e-01,9.99999e-01,9.78486e-01,9.97586e-01,9.99979e-01
9.914783401e-01,9.84312e-01,9.99999e-01,9.86651e-01,9.97633e-01,9.99994e-01
9.964357318e-01,9.90406e-01,9.99999e-01,9.92712e-01,9.97680e-01,9.99996e-01
1.001417910e+00,9.93359e-01,9.99999e-01,9.95628e-01,9.97726e-01,9.99994e-01
1.006425000e+00,9.95272e-01,9.99999e-01,9.97502e-01,9.97770e-01,9.99992e-01
1.011457125e+00,9.96264e-01,9.99999e-01,9.98452e-01,9.97814e-01,9.99993e-01
1.016514411e+00,9.96804e-01,9.99999e-01,9.98947e-01,9.97858e-01,9.99994e-01
1.021596983e+00,9.97059e-01,9.99999e-01,9.99161e-01,9.97900e-01,9.99995e-01
1.026704968e+00,9.97286e-01,9.99999e-01,9.99345e-01,9.97941e-01,9.99996e-01
1.031838492e+00,9.97507e-01,9.99999e-01,9.99524e-01,9.97982e-01,9.99998e-01
1.036997685e+00,9.97740e-01,9.99999e-01,9.99717e-01,9.98022e-01,9.99999e-01
1.042182673e+00,9.97724e-01,9.99999e-01,9.99662e-01,9.98061e-01,9.99999e-01
1.047393587e+00,9.97653e-01,9.99999e-01,9.99552e-01,9.98099e-01,9.99999e-01
1.052630555e+00,9.97523e-01,9.99999e-01,9.99385e-01,9.98136e-01,9.99999e-01
1.057893707e+00,9.97149e-01,9.99999e-01,9.98973e-01,9.98173e-01,9.99999e-01
1.063183176e+00,9.96524e-01,9.99999e-01,9.98312e-01,9.98209e-01,9.99998e-01
1.068499092e+00,9.95425e-01,9.99999e-01,9.97177e-01,9.98244e-01,9.99997e-01
1.073841587e+00,9.94973e-01,9.99999e-01,9.96691e-01,9.98279e-01,9.99995e-01
1.079210795e+00,9.94081e-01,9.99999e-01,9.95771e-01,9.98313e-01,9.99988e-01
1.084606849e+00,9.91926e-01,9.99999e-01,9.93595e-01,9.98346e-01,9.99972e-01
1.090029883e+00,9.89108e-01,9.99999e-01,9.90769e-01,9.98379e-01,9.99943e-01
1.095480033e+00,9.73424e-01,9.99999e-01,9.75072e-01,9.98411e-01,9.99897e-01
1.100957433e+00,9.36095e-01,9.99999e-01,9.37730e-01,9.98442e-01,9.99812e-01
1.106462220e+00,8.46455e-01,9.99999e-01,8.48018e-01,9.98473e-01,9.99682e-01
1.111994531e+00,7.04950e-01,9.99999e-01,7.06601e-01,9.98503e-01,9.99157e-01
1.117554504e+00,5.66102e-01,9.99999e-01,5.68660e-01,9.98533e-01,9.96962e-01
1.123142276e+00,6.50776e-01,9.99999e-01,6.56430e-01,9.98562e-01,9.92813e-01
1.128757988e+00,7.58283e-01,9.99999e-01,7.65714e-01,9.98590e-01,9.91691e-01
1.134401778e+00,5.27179e-01,9.99999e-01,5.31666e-01,9.98618e-01,9.92930e-01
1.140073787e+00,8.48359e-01,9.99999e-01,8.54338e-01,9.98645e-01,9.94347e-01
1.145774156e+00,7.13565e-01,9.99999e-01,7.18230e-01,9.98672e-01,9.94824e-01
1.151503026e+00,6.87017e-01,9.99999e-01,6.89903e-01,9.98698e-01,9.97113e-01
1.157260541e+00,7.36035e-01,9.99999e-01,7.37612e-01,9.98724e-01,9.99135e-01
1.163046844e+00,7.98137e-01,9.99999e-01,7.99332e-01,9.98749e-01,9.99754e-01
1.168862078e+00,8.55530e-01,9.99999e-01,8.56688e-01,9.98773e-01,9.99873e-01
1.174706389e+00,9.07730e-01,9.99999e-01,9.08973e-01,9.98798e-01,9.99832e-01
1.180579921e+00,9.42264e-01,9.99999e-01,9.43614e-01,9.98821e-01,9.99746e-01
1.186482820e+00,9.66399e-01,9.99999e-01,9.67767e-01,9.98845e-01,9.99739e-01
1.192415234e+00,9.79764e-01,9.99999e-01,9.81065e-01,9.98867e-01,9.99805e-01
1.198377311e+00,9.82724e-01,9.99999e-01,9.83996e-01,9.98890e-01,9.99815e-01
1.204369197e+00,9.83615e-01,9.99999e-01,9.84849e-01,9.98912e-01,9.99833e-01
1.210391043e+00,9.84365e-01,9.99999e-01,9.85515e-01,9.98933e-01,9.99898e-01
1.216442998e+00,9.86590e-01,9.99999e-01,9.87683e-01,9.98954e-01,9.99937e-01
1.222525213e+00,9.89345e-01,9.99999e-01,9.90397e-01,9.98975e-01,9.99961e-01
1.228637839e+00,9.92306e-01,9.99999e-01,9.93321e-01,9.98995e-01,9.99981e-01
1.234781029e+00,9.94056e-01,9.99999e-01,9.95040e-01,9.99015e-01,9.99994e-01
1.240954934e+00,9.95897e-01,9.99999e-01,9.96860e-01,9.99034e-01,9.99998e-01
1.247159708e+00,9.96611e-01,9.99999e-01,9.97556e-01,9.99053e-01,9.99998e-01
1.253395507e+00,9.96901e-01,9.99999e-01,9.97828e-01,9.99072e-01,9.99998e-01
1.259662485e+00,9.97024e-01,9.99999e-01,9.97933e-01,9.99090e-01,9.99997e-01
1.265960797e+00,9.95813e-01,9.99999e-01,9.96703e-01,9.99108e-01,9.99996e-01
1.272290601e+00,9.93939e-01,9.99999e-01,9.94813e-01,9.99126e-01,9.99993e-01
1.278652054e+00,9.88851e-01,9.99999e-01,9.89708e-01,9.99143e-01,9.99989e-01
1.285045314e+00,9.80535e-01,9.99999e-01,9.81377e-01,9.99160e-01,9.99980e-01
1.291470541e+00,9.66932e-01,9.99999e-01,9.67760e-01,9.99177e-01,9.99966e-01
1.297927893e+00,9.53572e-01,9.99999e-01,9.54400e-01,9.99193e-01,9.99938e-01
1.304417533e+00,9.45603e-01,9.99999e-01,9.46474e-01,9.99209e-01,9.99870e-01
1.310939621e+00,9.31824e-01,9.99999e-01,9.32794e-01,9.99224e-01,9.99734e-01
1.317494319e+00,9.32843e-01,9.99999e-01,9.34010e-01,9.99240e-01,9.99508e-01
1.324081790e+00,9.00993e-01,9.99999e-01,9.02387e-01,9.99255e-01,9.99198e-01
1.330702199e+00,6.38284e-01,9.99999e-01,6.39634e-01,9.99269e-01,9.98618e-01
1.337355710e+00,3.35066e-01,9.99999e-01,3.36200e-01,9.99284e-01,9.97340e-01
1.344042489e+00,5.15689e-02,9.99999e-01,5.20206e-02,9.99298e-01,9.92012e-01
1.350762701e+00,2.97382e-03,9.99999e-01,3.05870e-03,9.99312e-01,9.72918e-01
1.357516515e+00,4.24152e-04,9.99999e-01,4.60051e-04,9.99325e-01,9.22587e-01
1.364304097e+00,4.85235e-03,9.99999e-01,5.59198e-03,9.99339e-01,8.68307e-01
1.371125618e+00,2.73154e-02,9.99999e-01,3.12253e-02,9.99352e-01,8.75349e-01
1.377981246e+00,4.56704e-02,9.99999e-01,5.12239e-02,9.99364e-01,8.92150e-01
1.384871152e+00,4.20384e-03,9.99999e-01,4.67842e-03,9.99377e-01,8.99119e-01
1.391795508e+00,6.84670e-03,9.99999e-01,7.58172e-03,9.99389e-01,9.03603e-01
1.398754485e+00,1.35414e-02,9.99999e-01,1.47328e-02,9.99401e-01,9.19678e-01
1.405748258e+00,1.29293e-02,9.99999e-01,1.35859e-02,9.99413e-01,9.52229e-01
1.412776999e+00,1.52571e-02,9.99999e-01,1.56109e-02,9.99425e-01,9.77898e-01
1.419840884e+00,1.97066e-02,9.99999e-01,1.99119e-02,9.99436e-01,9.90248e-01
1.426940089e+00,4.74180e-02,9.99999e-01,4.77987e-02,9.99447e-01,9.92582e-01
1.434074789e+00,9.60269e-02,9.99999e-01,9.69266e-02,9.99458e-01,9.91253e-01
1.441245163e+00,1.75359e-01,9.99999e-01,1.77129e-01,9.99469e-01,9.90529e-01
1.448451389e+00,2.85984e-01,9.99999e-01,2.88527e-01,9.99479e-01,9.91702e-01
1.455693646e+00,4.47196e-01,9.99999e-01,4.50334e-01,9.99489e-01,9.93537e-01
1.462972114e+00,5.01809e-01,9.99999e-01,5.05173e-01,9.99499e-01,9.93835e-01
1.470286975e+00,4.46664e-01,9.99999e-01,4.49607e-01,9.99509e-01,9.93940e-01
