#,Wave/freq,Total,N2,H2O,Rayleigh,CIA
4.000000000e-01,8.27743e-01,9.99999e-01,9.99978e-01,8.27760e-01,9.99999e-01
4.020000000e-01,8.30849e-01,9.99999e-01,9.99986e-01,8.30860e-01,9.99999e-01
4.040100000e-01,8.33902e-01,9.99999e-01,9.99993e-01,8.33907e-01,9.99999e-01
4.060300500e-01,8.36903e-01,9.99999e-01,9.99998e-01,8.36904e-01,9.99999e-01
4.080602003e-01,8.39852e-01,9.99999e-01,9.99999e-01,8.39852e-01,9.99999e-01
4.101005013e-01,8.42752e-01,9.99999e-01,9.99999e-01,8.42752e-01,9.99999e-01
4.121510038e-01,8.45605e-01,9.99999e-01,9.99998e-01,8.45605e-01,9.99999e-01
4.142117588e-01,8.48406e-01,9.99999e-01,9.99993e-01,8.48411e-01,9.99999e-01
4.162828176e-01,8.51148e-01,9.99999e-01,9.99973e-01,8.51170e-01,9.99999e-01
4.183642317e-01,8.53870e-01,9.99999e-01,9.99983e-01,8.53884e-01,9.99999e-01
4.204560528e-01,8.56544e-01,9.99999e-01,9.99989e-01,8.56552e-01,9.99999e-01
4.225583331e-01,8.59173e-01,9.99999e-01,9.99995e-01,8.59176e-01,9.99999e-01
4.246711247e-01,8.61753e-01,9.99999e-01,9.99996e-01,8.61756e-01,9.99999e-01
4.267944804e-01,8.64288e-01,9.99999e-01,9.99995e-01,8.64292e-01,9.99999e-01
4.289284528e-01,8.66783e-01,9.99999e-01,9.99996e-01,8.66785e-01,9.99999e-01
4.310730950e-01,8.69235e-01,9.99999e-01,9.99998e-01,8.69236e-01,9.99999e-01
4.332284605e-01,8.71646e-01,9.99999e-01,9.99999e-01,8.71646e-01,9.99999e-01
4.353946028e-01,8.74014e-01,9.99999e-01,9.99999e-01,8.74014e-01,9.99999e-01
4.375715758e-01,8.76340e-01,9.99999e-01,9.99996e-01,8.76342e-01,9.99999e-01
4.397594337e-01,8.78609e-01,9.99999e-01,9.99976e-01,8.78630e-01,9.99999e-01
4.419582309e-01,8.80773e-01,9.99999e-01,9.99879e-01,8.80878e-01,9.99999e-01
4.441680220e-01,8.83007e-01,9.99999e-01,9.99908e-01,8.83088e-01,9.99999e-01
4.463888621e-01,8.85175e-01,9.99999e-01,9.99903e-01,8.85259e-01,9.99999e-01
4.486208064e-01,8.87341e-01,9.99999e-01,9.99940e-01,8.87393e-01,9.99999e-01
4.508639105e-01,8.89465e-01,9.99999e-01,9.99971e-01,8.89490e-01,9.99999e-01
4.531182300e-01,8.91540e-01,9.99999e-01,9.99988e-01,8.91549e-01,9.99999e-01
4.553838212e-01,8.93567e-01,9.99999e-01,9.99992e-01,8.93573e-01,9.99999e-01
4.576607403e-01,8.95559e-01,9.99999e-01,9.99996e-01,8.95562e-01,9.99999e-01
4.599490440e-01,8.97513e-01,9.99999e-01,9.99997e-01,8.97515e-01,9.99999e-01
4.622487892e-01,8.99433e-01,9.99999e-01,9.99999e-01,8.99434e-01,9.99999e-01
4.645600332e-01,9.01317e-01,9.99999e-01,9.99997e-01,9.01319e-01,9.99999e-01
4.668828333e-01,9.03145e-01,9.99999e-01,9.99971e-01,9.03170e-01,9.99999e-01
4.692172475e-01,9.04935e-01,9.99999e-01,9.99939e-01,9.04989e-01,9.99999e-01
4.715633337e-01,9.06740e-01,9.99999e-01,9.99960e-01,9.06775e-01,9.99999e-01
4.739211504e-01,9.08496e-01,9.99999e-01,9.99962e-01,9.08530e-01,9.99999e-01
4.762907561e-01,9.10235e-01,9.99999e-01,9.99980e-01,9.10253e-01,9.99999e-01
4.786722099e-01,9.11938e-01,9.99999e-01,9.99991e-01,9.11945e-01,9.99999e-01
4.810655710e-01,9.13605e-01,9.99999e-01,9.99997e-01,9.13607e-01,9.99999e-01
4.834708988e-01,9.15218e-01,9.99999e-01,9.99975e-01,9.15239e-01,9.99999e-01
4.858882533e-01,9.16803e-01,9.99999e-01,9.99957e-01,9.16842e-01,9.99999e-01
4.883176946e-01,9.18383e-01,9.99999e-01,9.99963e-01,9.18415e-01,9.99999e-01
4.907592831e-01,9.19931e-01,9.99999e-01,9.99967e-01,9.19960e-01,9.99999e-01
4.932130795e-01,9.21457e-01,9.99999e-01,9.99976e-01,9.21478e-01,9.99999e-01
4.956791449e-01,9.22956e-01,9.99999e-01,9.99987e-01,9.22967e-01,9.99999e-01
4.981575406e-01,9.24374e-01,9.99999e-01,9.99938e-01,9.24430e-01,9.99999e-01
5.006483283e-01,9.25718e-01,9.99999e-01,9.99841e-01,9.25866e-01,9.99998e-01
5.031515699e-01,9.26531e-01,9.99999e-01,9.99204e-01,9.27275e-01,9.99991e-01
5.056673278e-01,9.28263e-01,9.99999e-01,9.99581e-01,9.28659e-01,9.99989e-01
5.081956644e-01,9.29523e-01,9.99999e-01,9.99472e-01,9.30018e-01,9.99993e-01
5.107366428e-01,9.31020e-01,9.99999e-01,9.99644e-01,9.31352e-01,9.99998e-01
5.132903260e-01,9.32472e-01,9.99999e-01,9.99796e-01,9.32661e-01,9.99999e-01
5.158567776e-01,9.33866e-01,9.99999e-01,9.99914e-01,9.33946e-01,9.99999e-01
5.184360615e-01,9.35176e-01,9.99999e-01,9.99965e-01,9.35208e-01,9.99999e-01
5.210282418e-01,9.36434e-01,9.99999e-01,9.99986e-01,9.36446e-01,9.99999e-01
5.236333830e-01,9.37612e-01,9.99999e-01,9.99947e-01,9.37661e-01,9.99999e-01
5.262515499e-01,9.38823e-01,9.99999e-01,9.99967e-01,9.38854e-01,9.99998e-01
5.288828077e-01,9.39997e-01,9.99999e-01,9.99969e-01,9.40025e-01,9.99999e-01
5.315272217e-01,9.41150e-01,9.99999e-01,9.99973e-01,9.41174e-01,9.99999e-01
5.341848578e-01,9.42286e-01,9.99999e-01,9.99982e-01,9.42302e-01,9.99999e-01
5.368557821e-01,9.43351e-01,9.99999e-01,9.99938e-01,9.43409e-01,9.99999e-01
5.395400610e-01,9.44285e-01,9.99999e-01,9.99779e-01,9.44495e-01,9.99997e-01
5.422377613e-01,9.45291e-01,9.99999e-01,9.99719e-01,9.45561e-01,9.99994e-01
5.449489501e-01,9.46353e-01,9.99999e-01,9.99737e-01,9.46607e-01,9.99994e-01
5.476736949e-01,9.47413e-01,9.99999e-01,9.99769e-01,9.47633e-01,9.99996e-01
5.504120634e-01,9.48481e-01,9.99999e-01,9.99832e-01,9.48641e-01,9.99998e-01
5.531641237e-01,9.49549e-01,9.99999e-01,9.99915e-01,9.49629e-01,9.99999e-01
5.559299443e-01,9.50560e-01,9.99999e-01,9.99958e-01,9.50599e-01,9.99999e-01
5.587095940e-01,9.51526e-01,9.99999e-01,9.99973e-01,9.51551e-01,9.99999e-01
5.615031420e-01,9.52457e-01,9.99999e-01,9.99971e-01,9.52485e-01,9.99999e-01
5.643106577e-01,9.53369e-01,9.99999e-01,9.99966e-01,9.53401e-01,9.99999e-01
5.671322110e-01,9.53915e-01,9.99999e-01,9.99599e-01,9.54300e-01,9.99996e-01
5.699678720e-01,9.54777e-01,9.99999e-01,9.99586e-01,9.55182e-01,9.99988e-01
5.728177114e-01,9.55623e-01,9.99999e-01,9.99564e-01,9.56048e-01,9.99990e-01
5.756818000e-01,9.56510e-01,9.99999e-01,9.99601e-01,9.56897e-01,9.99994e-01
5.785602090e-01,9.57396e-01,9.99999e-01,9.99652e-01,9.57730e-01,9.99998e-01
5.814530100e-01,9.58212e-01,9.99999e-01,9.99650e-01,9.58547e-01,9.99998e-01
5.843602750e-01,9.58945e-01,9.99999e-01,9.99580e-01,9.59349e-01,9.99997e-01
5.872820764e-01,9.56645e-01,9.99999e-01,9.96389e-01,9.60136e-01,9.99974e-01
5.902184868e-01,9.56680e-01,9.99999e-01,9.95668e-01,9.60908e-01,9.99930e-01
5.931695792e-01,9.58648e-01,9.99999e-01,9.96928e-01,9.61665e-01,9.99933e-01
5.961354271e-01,9.59140e-01,9.99999e-01,9.96641e-01,9.62408e-01,9.99961e-01
5.991161043e-01,9.60769e-01,9.99999e-01,9.97553e-01,9.63136e-01,9.99987e-01
6.021116848e-01,9.62513e-01,9.99999e-01,9.98612e-01,9.63851e-01,9.99998e-01
6.051222432e-01,9.63876e-01,9.99999e-01,9.99298e-01,9.64552e-01,9.99999e-01
6.081478544e-01,9.64948e-01,9.99999e-01,9.99696e-01,9.65240e-01,9.99999e-01
6.111885937e-01,9.65792e-01,9.99999e-01,9.99871e-01,9.65915e-01,9.99999e-01
6.142445367e-01,9.66521e-01,9.99999e-01,9.99942e-01,9.66577e-01,9.99999e-01
6.173157594e-01,9.67195e-01,9.99999e-01,9.99967e-01,9.67226e-01,9.99999e-01
6.204023382e-01,9.67837e-01,9.99999e-01,9.99972e-01,9.67863e-01,9.99999e-01
6.235043498e-01,9.68371e-01,9.99999e-01,9.99879e-01,9.68487e-01,9.99999e-01
6.266218716e-01,9.68490e-01,9.99999e-01,9.99374e-01,9.69100e-01,9.99995e-01
6.297549810e-01,9.69470e-01,9.99999e-01,9.99770e-01,9.69701e-01,9.99990e-01
6.329037559e-01,9.69845e-01,9.99999e-01,9.99547e-01,9.70291e-01,9.99992e-01
6.360682746e-01,9.70489e-01,9.99999e-01,9.99612e-01,9.70869e-01,9.99995e-01
6.392486160e-01,9.70949e-01,9.99999e-01,9.99499e-01,9.71436e-01,9.99997e-01
6.424448591e-01,9.71333e-01,9.99999e-01,9.99324e-01,9.71992e-01,9.99996e-01
6.456570834e-01,9.69474e-01,9.99999e-01,9.96868e-01,9.72538e-01,9.99980e-01
6.488853688e-01,9.70820e-01,9.99999e-01,9.97732e-01,9.73073e-01,9.99951e-01
6.521297956e-01,9.71310e-01,9.99999e-01,9.97689e-01,9.73597e-01,9.99959e-01
6.553904446e-01,9.71833e-01,9.99999e-01,9.97688e-01,9.74112e-01,9.99969e-01
6.586673968e-01,9.72687e-01,9.99999e-01,9.98029e-01,9.74617e-01,9.99989e-01
6.619607338e-01,9.74040e-01,9.99999e-01,9.98902e-01,9.75112e-01,9.99997e-01
6.652705375e-01,9.74954e-01,9.99999e-01,9.99340e-01,9.75598e-01,9.99998e-01
6.685968902e-01,9.75801e-01,9.99999e-01,9.99719e-01,9.76074e-01,9.99999e-01
6.719398746e-01,9.76402e-01,9.99999e-01,9.99857e-01,9.76541e-01,9.99999e-01
6.752995740e-01,9.76926e-01,9.99999e-01,9.99924e-01,9.76999e-01,9.99999e-01
6.786760719e-01,9.77338e-01,9.99999e-01,9.99887e-01,9.77448e-01,9.99999e-01
6.820694522e-01,9.77699e-01,9.99999e-01,9.99806e-01,9.77888e-01,9.99998e-01
6.854797995e-01,9.78077e-01,9.99999e-01,9.99753e-01,9.78320e-01,9.99997e-01
6.889071985e-01,9.78146e-01,9.99999e-01,9.99393e-01,9.78744e-01,9.99994e-01
6.923517345e-01,9.69556e-01,9.99999e-01,9.90237e-01,9.79159e-01,9.99952e-01
6.958134932e-01,9.74593e-01,9.99999e-01,9.95024e-01,9.79567e-01,9.99896e-01
6.992925606e-01,9.75143e-01,9.99999e-01,9.95169e-01,9.79966e-01,9.99906e-01
7.027890234e-01,9.74495e-01,9.99999e-01,9.94089e-01,9.80358e-01,9.99928e-01
7.063029686e-01,9.75829e-01,9.99999e-01,9.95024e-01,9.80742e-01,9.99964e-01
7.098344834e-01,9.76415e-01,9.99999e-01,9.95226e-01,9.81119e-01,9.99978e-01
7.133836558e-01,9.75124e-01,9.99999e-01,9.93556e-01,9.81488e-01,9.99958e-01
7.169505741e-01,9.32017e-01,9.99999e-01,9.49554e-01,9.81851e-01,9.99673e-01
7.205353270e-01,9.57576e-01,9.99999e-01,9.75484e-01,9.82206e-01,9.99423e-01
7.241380036e-01,9.51072e-01,9.99999e-01,9.68439e-01,9.82554e-01,9.99502e-01
7.277586936e-01,9.54503e-01,9.99999e-01,9.71507e-01,9.82896e-01,9.99592e-01
7.313974871e-01,9.53495e-01,9.99999e-01,9.69941e-01,9.83231e-01,9.99809e-01
7.350544745e-01,9.67214e-01,9.99999e-01,9.83446e-01,9.83559e-01,9.99933e-01
7.387297469e-01,9.71855e-01,9.99999e-01,9.87806e-01,9.83882e-01,9.99969e-01
7.424233956e-01,9.78319e-01,9.99999e-01,9.94032e-01,9.84197e-01,9.99994e-01
7.461355126e-01,9.80937e-01,9.99999e-01,9.96374e-01,9.84507e-01,9.99998e-01
7.498661902e-01,9.83152e-01,9.99999e-01,9.98315e-01,9.84811e-01,9.99999e-01
7.536155211e-01,9.84292e-01,9.99999e-01,9.99170e-01,9.85108e-01,9.99999e-01
7.573835987e-01,9.84980e-01,9.99999e-01,9.99573e-01,9.85400e-01,9.99999e-01
7.611705167e-01,9.85426e-01,9.99999e-01,9.99734e-01,9.85687e-01,9.99999e-01
7.649763693e-01,9.85804e-01,9.99999e-01,9.99833e-01,9.85967e-01,9.99999e-01
7.688012511e-01,9.86128e-01,9.99999e-01,9.99883e-01,9.86243e-01,9.99999e-01
7.726452574e-01,9.86418e-01,9.99999e-01,9.99904e-01,9.86513e-01,9.99999e-01
7.765084837e-01,9.86642e-01,9.99999e-01,9.99862e-01,9.86777e-01,9.99999e-01
7.803910261e-01,9.86452e-01,9.99999e-01,9.99407e-01,9.87037e-01,9.99998e-01
7.842929812e-01,9.85246e-01,9.99999e-01,9.97932e-01,9.87291e-01,9.99995e-01
7.882144461e-01,9.83346e-01,9.99999e-01,9.95781e-01,9.87541e-01,9.99970e-01
7.921555184e-01,9.85462e-01,9.99999e-01,9.97697e-01,9.87785e-01,9.99949e-01
7.961162960e-01,9.83911e-01,9.99999e-01,9.95883e-01,9.88025e-01,9.99951e-01
8.000968774e-01,9.83542e-01,9.99999e-01,9.95276e-01,9.88260e-01,9.99948e-01
8.040973618e-01,9.83775e-01,9.99999e-01,9.95267e-01,9.88491e-01,9.99960e-01
8.081178486e-01,9.78087e-01,9.99999e-01,9.89287e-01,9.88717e-01,9.99960e-01
8.121584379e-01,9.45412e-01,9.99999e-01,9.56129e-01,9.88938e-01,9.99850e-01
8.162192301e-01,9.37837e-01,9.99999e-01,9.48649e-01,9.89155e-01,9.99439e-01
8.203003262e-01,9.62603e-01,9.99999e-01,9.73584e-01,9.89369e-01,9.99343e-01
8.244018279e-01,9.53671e-01,9.99999e-01,9.64217e-01,9.89577e-01,9.99477e-01
8.285238370e-01,9.58554e-01,9.99999e-01,9.68846e-01,9.89782e-01,9.99589e-01
8.326664562e-01,9.58780e-01,9.99999e-01,9.68644e-01,9.89983e-01,9.99829e-01
8.368297885e-01,9.67923e-01,9.99999e-01,9.77559e-01,9.90180e-01,9.99960e-01
8.410139374e-01,9.77098e-01,9.99999e-01,9.86618e-01,9.90373e-01,9.99976e-01
8.452190071e-01,9.84039e-01,9.99999e-01,9.93427e-01,9.90562e-01,9.99985e-01
8.494451021e-01,9.86941e-01,9.99999e-01,9.96168e-01,9.90748e-01,9.99988e-01
8.536923276e-01,9.88684e-01,9.99999e-01,9.97740e-01,9.90930e-01,9.99992e-01
8.579607893e-01,9.89723e-01,9.99999e-01,9.98603e-01,9.91108e-01,9.99997e-01
8.622505932e-01,9.90406e-01,9.99999e-01,9.99115e-01,9.91283e-01,9.99999e-01
8.665618462e-01,9.90910e-01,9.99999e-01,9.99450e-01,9.91454e-01,9.99999e-01
8.708946554e-01,9.90997e-01,9.99999e-01,9.99369e-01,9.91622e-01,9.99999e-01
8.752491287e-01,9.90951e-01,9.99999e-01,9.99157e-01,9.91787e-01,9.99998e-01
8.796253743e-01,9.90785e-01,9.99999e-01,9.98828e-01,9.91949e-01,9.99996e-01
8.840235012e-01,9.90774e-01,9.99999e-01,9.98663e-01,9.92107e-01,9.99991e-01
8.884436187e-01,9.87314e-01,9.99999e-01,9.95035e-01,9.92262e-01,9.99976e-01
8.928858368e-01,9.42180e-01,9.99999e-01,9.49507e-01,9.92415e-01,9.99866e-01
8.973502660e-01,9.05793e-01,9.99999e-01,9.13201e-01,9.92564e-01,9.99317e-01
9.018370173e-01,9.47109e-01,9.99999e-01,9.55087e-01,9.92710e-01,9.98928e-01
9.063462024e-01,9.51940e-01,9.99999e-01,9.59695e-01,9.92854e-01,9.99058e-01
9.108779334e-01,9.30694e-01,9.99999e-01,9.38177e-01,9.92994e-01,9.99021e-01
9.154323231e-01,9.23087e-01,9.99999e-01,9.30221e-01,9.93132e-01,9.99191e-01
9.200094847e-01,9.38278e-01,9.99999e-01,9.45064e-01,9.93267e-01,9.99546e-01
9.246095321e-01,9.07085e-01,9.99999e-01,9.13587e-01,9.93400e-01,9.99478e-01
9.292325798e-01,5.47084e-01,9.99999e-01,5.52035e-01,9.93530e-01,9.97484e-01
9.338787427e-01,4.61262e-01,9.99999e-01,4.68451e-01,9.93657e-01,9.90937e-01
9.385481364e-01,7.24855e-01,9.99999e-01,7.36721e-01,9.93782e-01,9.90047e-01
9.432408771e-01,6.42131e-01,9.99999e-01,6.51667e-01,9.93904e-01,9.91408e-01
9.479570815e-01,5.47828e-01,9.99999e-01,5.55004e-01,9.94024e-01,9.93001e-01
9.526968669e-01,6.37681e-01,9.99999e-01,6.44191e-01,9.94142e-01,9.95725e-01
9.574603512e-01,6.60467e-01,9.99999e-01,6.65728e-01,9.94257e-01,9.97826e-01
9.622476530e-01,7.13456e-01,9.99999e-01,7.18575e-01,9.94371e-01,9.98496e-01
9.670588912e-01,8.20796e-01,9.99999e-01,8.26199e-01,9.94481e-01,9.98971e-01
9.718941857e-01,8.81741e-01,9.99999e-01,8.87207e-01,9.94590e-01,9.99242e-01
9.767536566e-01,9.00075e-01,9.99999e-01,9.05397e-01,9.94697e-01,9.99420e-01
9.816374249e-01,9.24166e-01,9.99999e-01,9.29181e-01,9.94801e-01,9.99799e-01
9.865456120e-01,9.50257e-01,9.99999e-01,9.55164e-01,9.94904e-01,9.99957e-01
9.914783401e-01,9.67166e-01,9.99999e-01,9.72032e-01,9.95004e-01,9.99987e-01
9.964357318e-01,9.79849e-01,9.99999e-01,9.84677e-01,9.95102e-01,9.99992e-01
1.001417910e+00,9.86029e-01,9.99999e-01,9.90795e-01,9.95199e-01,9.99989e-01
1.006425000e+00,9.90035e-01,9.99999e-01,9.94731e-01,9.95293e-01,9.99984e-01
1.011457125e+00,9.92124e-01,9.99999e-01,9.96735e-01,9.95386e-01,9.99985e-01
1.016514411e+00,9.93258e-01,9.99999e-01,9.97779e-01,9.95477e-01,9.99989e-01
1.021596983e+00,9.93794e-01,9.99999e-01,9.98229e-01,9.95566e-01,9.99990e-01
1.026704968e+00,9.94272e-01,9.99999e-01,9.98618e-01,9.95654e-01,9.99993e-01
1.031838492e+00,9.94740e-01,9.99999e-01,9.98997e-01,9.95739e-01,9.99997e-01
1.036997685e+00,9.95229e-01,9.99999e-01,9.99403e-01,9.95823e-01,9.99999e-01
1.042182673e+00,9.95194e-01,9.99999e-01,9.99285e-01,9.95905e-01,9.99999e-01
1.047393587e+00,9.95045e-01,9.99999e-01,9.99054e-01,9.95986e-01,9.99999e-01
1.052630555e+00,9.94772e-01,9.99999e-01,9.98701e-01,9.96065e-01,9.99999e-01
1.057893707e+00,9.93980e-01,9.99999e-01,9.97828e-01,9.96143e-01,9.99998e-01
1.063183176e+00,9.92664e-01,9.99999e-01,9.96432e-01,9.96219e-01,9.99997e-01
1.068499092e+00,9.90353e-01,9.99999e-01,9.94041e-01,9.96293e-01,9.99995e-01
1.073841587e+00,9.89398e-01,9.99999e-01,9.93014e-01,9.96366e-01,9.99990e-01
1.079210795e+00,9.87534e-01,9.99999e-01,9.91087e-01,9.96438e-01,9.99975e-01
1.084606849e+00,9.83010e-01,9.99999e-01,9.86510e-01,9.96508e-01,9.99942e-01
1.090029883e+00,9.77075e-01,9.99999e-01,9.80547e-01,9.96577e-01,9.99880e-01
1.095480033e+00,9.44608e-01,9.99999e-01,9.47990e-01,9.96645e-01,9.99784e-01
1.100957433e+00,8.69936e-01,9.99999e-01,8.73151e-01,9.96711e-01,9.99604e-01
1.106462220e+00,7.05779e-01,9.99999e-01,7.08537e-01,9.96776e-01,9.99328e-01
1.111994531e+00,4.85313e-01,9.99999e-01,4.87719e-01,9.96839e-01,9.98220e-01
1.117554504e+00,3.11745e-01,9.99999e-01,3.14731e-01,9.96901e-01,9.93590e-01
1.123142276e+00,4.24845e-01,9.99999e-01,4.32686e-01,9.96963e-01,9.84868e-01
1.128757988e+00,5.68403e-01,9.99999e-01,5.80245e-01,9.97022e-01,9.82515e-01
1.134401778e+00,3.20034e-01,9.99999e-01,3.25821e-01,9.97081e-01,9.85113e-01
1.140073787e+00,7.10279e-01,9.99999e-01,7.20903e-01,9.97139e-01,9.88087e-01
1.145774156e+00,5.02042e-01,9.99999e-01,5.09007e-01,9.97195e-01,9.89090e-01
1.151503026e+00,4.67645e-01,9.99999e-01,4.71808e-01,9.97250e-01,9.93907e-01
1.157260541e+00,5.29114e-01,9.99999e-01,5.31513e-01,9.97305e-01,9.98174e-01
1.163046844e+00,6.25074e-01,9.99999e-01,6.27054e-01,9.97358e-01,9.99481e-01
1.168862078e+00,7.20406e-01,9.99999e-01,7.22469e-01,9.97410e-01,9.99732e-01
1.174706389e+00,8.15787e-01,9.99999e-01,8.18152e-01,9.97461e-01,9.99645e-01
1.180579921e+00,8.82289e-01,9.99999e-01,8.84963e-01,9.97511e-01,9.99464e-01
1.186482820e+00,9.30416e-01,9.99999e-01,9.33203e-01,9.97560e-01,9.99450e-01
1.192415234e+00,9.57734e-01,9.99999e-01,9.60424e-01,9.97608e-01,9.99588e-01
1.198377311e+00,9.63837e-01,9.99999e-01,9.66478e-01,9.97655e-01,9.99609e-01
1.204369197e+00,9.65730e-01,9.99999e-01,9.68282e-01,9.97702e-01,9.99659e-01
1.210391043e+00,9.67263e-01,9.99999e-01,9.69654e-01,9.97747e-01,9.99785e-01
1.216442998e+00,9.71907e-01,9.99999e-01,9.74184e-01,9.97791e-01,9.99868e-01
1.222525213e+00,9.77628e-01,9.99999e-01,9.79828e-01,9.97835e-01,9.99918e-01
1.228637839e+00,9.83813e-01,9.99999e-01,9.85941e-01,9.97878e-01,9.99961e-01
1.234781029e+00,9.87488e-01,9.99999e-01,9.89556e-01,9.97920e-01,9.99988e-01
1.240954934e+00,9.91350e-01,9.99999e-01,9.93378e-01,9.97961e-01,9.99996e-01
1.247159708e+00,9.92855e-01,9.99999e-01,9.94845e-01,9.98001e-01,9.99997e-01
1.253395507e+00,9.93463e-01,9.99999e-01,9.95415e-01,9.98040e-01,9.99996e-01
1.259662485e+00,9.93718e-01,9.99999e-01,9.95634e-01,9.98079e-01,9.99995e-01
1.265960797e+00,9.91172e-01,9.99999e-01,9.93048e-01,9.98117e-01,9.99992e-01
1.272290601e+00,9.87223e-01,9.99999e-01,9.89059e-01,9.98154e-01,9.99987e-01
1.278652054e+00,9.76579e-01,9.99999e-01,9.78369e-01,9.98190e-01,9.99978e-01
1.285045314e+00,9.59315e-01,9.99999e-01,9.61057e-01,9.98226e-01,9.99960e-01
1.291470541e+00,9.31435e-01,9.99999e-01,9.33121e-01,9.98261e-01,9.99930e-01
1.297927893e+00,9.04575e-01,9.99999e-01,9.06236e-01,9.98295e-01,9.99870e-01
1.304417533e+00,8.88930e-01,9.99999e-01,8.90660e-01,9.98329e-01,9.99726e-01
1.310939621e+00,8.61895e-01,9.99999e-01,8.63793e-01,9.98362e-01,9.99438e-01
1.317494319e+00,8.63984e-01,9.99999e-01,8.66272e-01,9.98394e-01,9.98961e-01
1.324081790e+00,8.06559e-01,9.99999e-01,8.09200e-01,9.98426e-01,9.98306e-01
1.330702199e+00,4.28779e-01,9.99999e-01,4.30698e-01,9.98457e-01,9.97081e-01
1.337355710e+00,1.15192e-01,9.99999e-01,1.16017e-01,9.98487e-01,9.94386e-01
1.344042489e+00,6.32136e-03,9.99999e-01,6.43898e-03,9.98517e-01,9.83189e-01
1.350762701e+00,2.07462e-05,9.99999e-01,2.20180e-05,9.98546e-01,9.43609e-01
1.357516515e+00,2.20601e-07,9.99999e-01,2.61943e-07,9.98575e-01,8.43374e-01
1.364304097e+00,4.62797e-05,9.99999e-01,6.24672e-05,9.98603e-01,7.41900e-01
1.371125618e+00,1.14487e-03,9.99999e-01,1.51911e-03,9.98631e-01,7.54678e-01
1.377981246e+00,2.93073e-03,9.99999e-01,3.73542e-03,9.98658e-01,7.85630e-01
1.384871152e+00,7.56107e-05,9.99999e-01,9.47965e-05,9.98684e-01,7.98660e-01
1.391795508e+00,6.61111e-05,9.99999e-01,8.20171e-05,9.98710e-01,8.07104e-01
1.398754485e+00,3.60530e-04,9.99999e-01,4.30894e-04,9.98736e-01,8.37761e-01
1.405748258e+00,3.34724e-04,9.99999e-01,3.71679e-04,9.98761e-01,9.01688e-01
1.412776999e+00,3.69712e-04,9.99999e-01,3.88071e-04,9.98785e-01,9.53849e-01
1.419840884e+00,6.56589e-04,9.99999e-01,6.71133e-04,9.98809e-01,9.79495e-01
1.426940089e+00,3.27131e-03,9.99999e-01,3.32708e-03,9.98832e-01,9.84383e-01
1.434074789e+00,1.24900e-02,9.99999e-01,1.27387e-02,9.98856e-01,9.81598e-01
1.441245163e+00,3.21389e-02,9.99999e-01,3.28288e-02,9.98878e-01,9.80083e-01
1.448451389e+00,8.80585e-02,9.99999e-01,8.97219e-02,9.98900e-01,9.82539e-01
1.455693646e+00,1.97501e-01,9.99999e-01,2.00443e-01,9.98922e-01,9.86387e-01
1.462972114e+00,2.43804e-01,9.99999e-01,2.47273e-01,9.98943e-01,9.87012e-01
1.470286975e+00,1.94090e-01,9.99999e-01,1.96804e-01,9.98964e-01,9.87232e-01
