#,Wave/freq,Total,N2,H2O,Rayleigh,CIA
4.000000000e-01,3.04122e-01,9.99999e-01,9.99865e-01,3.04163e-01,9.99999e-01
4.020000000e-01,3.11380e-01,9.99999e-01,9.99916e-01,3.11406e-01,9.99999e-01
4.040100000e-01,3.18654e-01,9.99999e-01,9.99964e-01,3.18666e-01,9.99999e-01
4.060300500e-01,3.25943e-01,9.99999e-01,9.99991e-01,3.25946e-01,9.99999e-01
4.080602003e-01,3.33243e-01,9.99999e-01,9.99996e-01,3.33244e-01,9.99999e-01
4.101005013e-01,3.40556e-01,9.99999e-01,9.99999e-01,3.40556e-01,9.99999e-01
4.121510038e-01,3.47878e-01,9.99999e-01,9.99994e-01,3.47880e-01,9.99999e-01
4.142117588e-01,3.55198e-01,9.99999e-01,9.99962e-01,3.55211e-01,9.99999e-01
4.162828176e-01,3.62488e-01,9.99999e-01,9.99833e-01,3.62548e-01,9.99999e-01
4.183642317e-01,3.69851e-01,9.99999e-01,9.99900e-01,3.69887e-01,9.99999e-01
4.204560528e-01,3.77203e-01,9.99999e-01,9.99938e-01,3.77226e-01,9.99999e-01
4.225583331e-01,3.84552e-01,9.99999e-01,9.99976e-01,3.84560e-01,9.99999e-01
4.246711247e-01,3.91881e-01,9.99999e-01,9.99981e-01,3.91888e-01,9.99999e-01
4.267944804e-01,3.99197e-01,9.99999e-01,9.99972e-01,3.99207e-01,9.99999e-01
4.289284528e-01,4.06506e-01,9.99999e-01,9.99978e-01,4.06514e-01,9.99999e-01
4.310730950e-01,4.13803e-01,9.99999e-01,9.99990e-01,4.13807e-01,9.99999e-01
4.332284605e-01,4.21081e-01,9.99999e-01,9.99997e-01,4.21082e-01,9.99999e-01
4.353946028e-01,4.28337e-01,9.99999e-01,9.99998e-01,4.28338e-01,9.99999e-01
4.375715758e-01,4.35564e-01,9.99999e-01,9.99983e-01,4.35571e-01,9.99999e-01
4.397594337e-01,4.42717e-01,9.99999e-01,9.99854e-01,4.42781e-01,9.99999e-01
4.419582309e-01,4.49633e-01,9.99999e-01,9.99264e-01,4.49964e-01,9.99999e-01
4.441680220e-01,4.56852e-01,9.99999e-01,9.99418e-01,4.57118e-01,9.99999e-01
4.463888621e-01,4.63961e-01,9.99999e-01,9.99397e-01,4.64241e-01,9.99999e-01
4.486208064e-01,4.71154e-01,9.99999e-01,9.99624e-01,4.71331e-01,9.99999e-01
4.508639105e-01,4.78302e-01,9.99999e-01,9.99823e-01,4.78386e-01,9.99999e-01
4.531182300e-01,4.85371e-01,9.99999e-01,9.99930e-01,4.85405e-01,9.99999e-01
4.553838212e-01,4.92361e-01,9.99999e-01,9.99952e-01,4.92384e-01,9.99999e-01
4.576607403e-01,4.99312e-01,9.99999e-01,9.99977e-01,4.99323e-01,9.99999e-01
4.599490440e-01,5.06212e-01,9.99999e-01,9.99984e-01,5.06220e-01,9.99999e-01
4.622487892e-01,5.13072e-01,9.99999e-01,9.99996e-01,5.13073e-01,9.99999e-01
4.645600332e-01,5.19876e-01,9.99999e-01,9.99989e-01,5.19881e-01,9.99999e-01
4.668828333e-01,5.26550e-01,9.99999e-01,9.99823e-01,5.26642e-01,9.99999e-01
4.692172475e-01,5.33154e-01,9.99999e-01,9.99621e-01,5.33355e-01,9.99999e-01
4.715633337e-01,5.39885e-01,9.99999e-01,9.99752e-01,5.40018e-01,9.99999e-01
4.739211504e-01,5.46502e-01,9.99999e-01,9.99762e-01,5.46631e-01,9.99999e-01
4.762907561e-01,5.53123e-01,9.99999e-01,9.99876e-01,5.53191e-01,9.99999e-01
4.786722099e-01,5.59670e-01,9.99999e-01,9.99949e-01,5.59699e-01,9.99999e-01
4.810655710e-01,5.66143e-01,9.99999e-01,9.99984e-01,5.66152e-01,9.99999e-01
4.834708988e-01,5.72468e-01,9.99999e-01,9.99856e-01,5.72549e-01,9.99999e-01
4.858882533e-01,5.78736e-01,9.99999e-01,9.99731e-01,5.78891e-01,9.99999e-01
4.883176946e-01,5.85045e-01,9.99999e-01,9.99776e-01,5.85175e-01,9.99999e-01
4.907592831e-01,5.91282e-01,9.99999e-01,9.99796e-01,5.91402e-01,9.99999e-01
4.932130795e-01,5.97484e-01,9.99999e-01,9.99855e-01,5.97570e-01,9.99999e-01
4.956791449e-01,6.03632e-01,9.99999e-01,9.99923e-01,6.03678e-01,9.99999e-01
4.981575406e-01,6.09496e-01,9.99999e-01,9.99620e-01,6.09726e-01,9.99999e-01
5.006483283e-01,6.15108e-01,9.99999e-01,9.99021e-01,6.15714e-01,9.99992e-01
5.031515699e-01,6.18518e-01,9.99999e-01,9.95028e-01,6.21641e-01,9.99947e-01
5.056673278e-01,6.25816e-01,9.99999e-01,9.97366e-01,6.27505e-01,9.99939e-01
5.081956644e-01,6.31180e-01,9.99999e-01,9.96678e-01,6.33308e-01,9.99960e-01
5.107366428e-01,6.37610e-01,9.99999e-01,9.97755e-01,6.39048e-01,9.99992e-01
5.132903260e-01,6.43897e-01,9.99999e-01,9.98715e-01,6.44725e-01,9.99998e-01
5.158567776e-01,6.49986e-01,9.99999e-01,9.99456e-01,6.50340e-01,9.99999e-01
5.184360615e-01,6.55748e-01,9.99999e-01,9.99782e-01,6.55890e-01,9.99999e-01
5.210282418e-01,6.61323e-01,9.99999e-01,9.99918e-01,6.61377e-01,9.99999e-01
5.236333830e-01,6.66582e-01,9.99999e-01,9.99674e-01,6.66800e-01,9.99997e-01
5.262515499e-01,6.72020e-01,9.99999e-01,9.99795e-01,6.72159e-01,9.99996e-01
5.288828077e-01,6.77327e-01,9.99999e-01,9.99813e-01,6.77454e-01,9.99997e-01
5.315272217e-01,6.82573e-01,9.99999e-01,9.99835e-01,6.82685e-01,9.99999e-01
5.341848578e-01,6.87779e-01,9.99999e-01,9.99892e-01,6.87852e-01,9.99999e-01
5.368557821e-01,6.92693e-01,9.99999e-01,9.99622e-01,6.92955e-01,9.99998e-01
5.395400610e-01,6.97038e-01,9.99999e-01,9.98642e-01,6.97994e-01,9.99988e-01
5.422377613e-01,7.01703e-01,9.99999e-01,9.98231e-01,7.02968e-01,9.99967e-01
5.449489501e-01,7.06696e-01,9.99999e-01,9.98361e-01,7.07879e-01,9.99966e-01
5.476736949e-01,7.11676e-01,9.99999e-01,9.98542e-01,7.12726e-01,9.99983e-01
5.504120634e-01,7.16748e-01,9.99999e-01,9.98942e-01,7.17510e-01,9.99995e-01
5.531641237e-01,7.21846e-01,9.99999e-01,9.99467e-01,7.22230e-01,9.99998e-01
5.559299443e-01,7.26701e-01,9.99999e-01,9.99742e-01,7.26887e-01,9.99999e-01
5.587095940e-01,7.31364e-01,9.99999e-01,9.99838e-01,7.31482e-01,9.99999e-01
5.615031420e-01,7.35882e-01,9.99999e-01,9.99820e-01,7.36014e-01,9.99999e-01
5.643106577e-01,7.40333e-01,9.99999e-01,9.99798e-01,7.40483e-01,9.99997e-01
5.671322110e-01,7.43059e-01,9.99999e-01,9.97562e-01,7.44891e-01,9.99977e-01
5.699678720e-01,7.47214e-01,9.99999e-01,9.97366e-01,7.49237e-01,9.99932e-01
5.728177114e-01,7.51425e-01,9.99999e-01,9.97272e-01,7.53521e-01,9.99943e-01
5.756818000e-01,7.55821e-01,9.99999e-01,9.97494e-01,7.57745e-01,9.99965e-01
5.785602090e-01,7.60235e-01,9.99999e-01,9.97813e-01,7.61909e-01,9.99989e-01
5.814530100e-01,7.64329e-01,9.99999e-01,9.97806e-01,7.66012e-01,9.99994e-01
5.843602750e-01,7.68042e-01,9.99999e-01,9.97398e-01,7.70056e-01,9.99984e-01
5.872820764e-01,7.56769e-01,9.99999e-01,9.77840e-01,7.74041e-01,9.99841e-01
5.902184868e-01,7.56628e-01,9.99999e-01,9.72990e-01,7.77967e-01,9.99568e-01
5.931695792e-01,7.66593e-01,9.99999e-01,9.80916e-01,7.81834e-01,9.99579e-01
5.961354271e-01,7.68986e-01,9.99999e-01,9.79044e-01,7.85644e-01,9.99745e-01
5.991161043e-01,7.77226e-01,9.99999e-01,9.84654e-01,7.89397e-01,9.99925e-01
6.021116848e-01,7.86153e-01,9.99999e-01,9.91258e-01,7.93093e-01,9.99990e-01
6.051222432e-01,7.93201e-01,9.99999e-01,9.95566e-01,7.96733e-01,9.99998e-01
6.081478544e-01,7.98786e-01,9.99999e-01,9.98086e-01,8.00317e-01,9.99999e-01
6.111885937e-01,8.03194e-01,9.99999e-01,9.99188e-01,8.03846e-01,9.99999e-01
6.142445367e-01,8.07028e-01,9.99999e-01,9.99637e-01,8.07320e-01,9.99999e-01
6.173157594e-01,8.10579e-01,9.99999e-01,9.99800e-01,8.10741e-01,9.99999e-01
6.204023382e-01,8.13971e-01,9.99999e-01,9.99831e-01,8.14108e-01,9.99999e-01
6.235043498e-01,8.16819e-01,9.99999e-01,9.99264e-01,8.17421e-01,9.99997e-01
6.266218716e-01,8.17441e-01,9.99999e-01,9.96076e-01,8.20683e-01,9.99971e-01
6.297549810e-01,8.22661e-01,9.99999e-01,9.98559e-01,8.23893e-01,9.99944e-01
6.329037559e-01,8.24657e-01,9.99999e-01,9.97149e-01,8.27051e-01,9.99955e-01
6.360682746e-01,8.28128e-01,9.99999e-01,9.97578e-01,8.30159e-01,9.99973e-01
6.392486160e-01,8.30590e-01,9.99999e-01,9.96858e-01,8.33217e-01,9.99987e-01
6.424448591e-01,8.32714e-01,9.99999e-01,9.95818e-01,8.36225e-01,9.99981e-01
6.456570834e-01,8.22933e-01,9.99999e-01,9.80739e-01,8.39185e-01,9.99891e-01
6.488853688e-01,8.29878e-01,9.99999e-01,9.85788e-01,8.42096e-01,9.99696e-01
6.521297956e-01,8.32519e-01,9.99999e-01,9.85526e-01,8.44960e-01,9.99745e-01
6.553904446e-01,8.35458e-01,9.99999e-01,9.85657e-01,8.47776e-01,9.99809e-01
6.586673968e-01,8.39972e-01,9.99999e-01,9.87628e-01,8.50546e-01,9.99937e-01
6.619607338e-01,8.47137e-01,9.99999e-01,9.92825e-01,8.53270e-01,9.99986e-01
6.652705375e-01,8.52378e-01,9.99999e-01,9.95834e-01,8.55948e-01,9.99992e-01
6.685968902e-01,8.56919e-01,9.99999e-01,9.98063e-01,8.58582e-01,9.99998e-01
6.719398746e-01,8.60399e-01,9.99999e-01,9.99101e-01,8.61172e-01,9.99999e-01
6.752995740e-01,8.63299e-01,9.99999e-01,9.99514e-01,8.63718e-01,9.99999e-01
6.786760719e-01,8.65616e-01,9.99999e-01,9.99301e-01,8.66221e-01,9.99998e-01
6.820694522e-01,8.67636e-01,9.99999e-01,9.98802e-01,8.68682e-01,9.99993e-01
6.854797995e-01,8.69745e-01,9.99999e-01,9.98456e-01,8.71101e-01,9.99986e-01
6.889071985e-01,8.70219e-01,9.99999e-01,9.96300e-01,8.73478e-01,9.99966e-01
6.923517345e-01,8.23998e-01,9.99999e-01,9.41110e-01,8.75815e-01,9.99706e-01
6.958134932e-01,8.50008e-01,9.99999e-01,9.68633e-01,8.78112e-01,9.99339e-01
6.992925606e-01,8.53796e-01,9.99999e-01,9.70378e-01,8.80370e-01,9.99418e-01
7.027890234e-01,8.49896e-01,9.99999e-01,9.63387e-01,8.82588e-01,9.99553e-01
7.063029686e-01,8.57240e-01,9.99999e-01,9.69101e-01,8.84768e-01,9.99777e-01
7.098344834e-01,8.60475e-01,9.99999e-01,9.70320e-01,8.86910e-01,9.99868e-01
7.133836558e-01,8.54188e-01,9.99999e-01,9.61075e-01,8.89015e-01,9.99738e-01
7.169505741e-01,6.51674e-01,9.99999e-01,7.32830e-01,8.91083e-01,9.97948e-01
7.205353270e-01,7.61856e-01,9.99999e-01,8.56127e-01,8.93115e-01,9.96383e-01
7.241380036e-01,7.33085e-01,9.99999e-01,8.21552e-01,8.95112e-01,9.96876e-01
7.277586936e-01,7.49375e-01,9.99999e-01,8.37494e-01,8.97073e-01,9.97445e-01
7.313974871e-01,7.41993e-01,9.99999e-01,8.26342e-01,8.99000e-01,9.98802e-01
7.350544745e-01,8.11104e-01,9.99999e-01,9.00708e-01,9.00892e-01,9.99583e-01
7.387297469e-01,8.35440e-01,9.99999e-01,9.25613e-01,9.02752e-01,9.99808e-01
7.424233956e-01,8.70868e-01,9.99999e-01,9.62769e-01,9.04578e-01,9.99962e-01
7.461355126e-01,8.85772e-01,9.99999e-01,9.77278e-01,9.06371e-01,9.99993e-01
7.498661902e-01,8.98450e-01,9.99999e-01,9.89339e-01,9.08133e-01,9.99997e-01
7.536155211e-01,9.05099e-01,9.99999e-01,9.94765e-01,9.09863e-01,9.99998e-01
7.573835987e-01,9.09102e-01,9.99999e-01,9.97301e-01,9.11562e-01,9.99999e-01
7.611705167e-01,9.11700e-01,9.99999e-01,9.98322e-01,9.13231e-01,9.99999e-01
7.649763693e-01,9.13909e-01,9.99999e-01,9.98949e-01,9.14870e-01,9.99999e-01
7.688012511e-01,9.15809e-01,9.99999e-01,9.99268e-01,9.16479e-01,9.99999e-01
7.726452574e-01,9.17507e-01,9.99999e-01,9.99398e-01,9.18059e-01,9.99999e-01
7.765084837e-01,9.18828e-01,9.99999e-01,9.99148e-01,9.19611e-01,9.99998e-01
7.803910261e-01,9.17751e-01,9.99999e-01,9.96329e-01,9.21134e-01,9.99995e-01
7.842929812e-01,9.10848e-01,9.99999e-01,9.87252e-01,9.22630e-01,9.99975e-01
7.882144461e-01,8.99720e-01,9.99999e-01,9.73776e-01,9.24099e-01,9.99837e-01
7.921555184e-01,9.11839e-01,9.99999e-01,9.85504e-01,9.25541e-01,9.99685e-01
7.961162960e-01,9.03223e-01,9.99999e-01,9.74688e-01,9.26957e-01,9.99698e-01
8.000968774e-01,9.00830e-01,9.99999e-01,9.70670e-01,9.28346e-01,9.99679e-01
8.040973618e-01,9.02244e-01,9.99999e-01,9.70702e-01,9.29711e-01,9.99745e-01
8.081178486e-01,8.71014e-01,9.99999e-01,9.35740e-01,9.31050e-01,9.99761e-01
8.121584379e-01,7.09004e-01,9.99999e-01,7.61148e-01,9.32365e-01,9.99062e-01
8.162192301e-01,6.72737e-01,9.99999e-01,7.23084e-01,9.33656e-01,9.96480e-01
8.203003262e-01,7.97717e-01,9.99999e-01,8.56772e-01,9.34922e-01,9.95880e-01
8.244018279e-01,7.53261e-01,9.99999e-01,8.07269e-01,9.36166e-01,9.96720e-01
8.285238370e-01,7.69301e-01,9.99999e-01,8.22806e-01,9.37386e-01,9.97423e-01
8.326664562e-01,7.70034e-01,9.99999e-01,8.21296e-01,9.38584e-01,9.98933e-01
8.368297885e-01,8.14836e-01,9.99999e-01,8.67279e-01,9.39760e-01,9.99755e-01
8.410139374e-01,8.64215e-01,9.99999e-01,9.18615e-01,9.40914e-01,9.99857e-01
8.452190071e-01,9.03453e-01,9.99999e-01,9.59113e-01,9.42047e-01,9.99914e-01
8.494451021e-01,9.20548e-01,9.99999e-01,9.76092e-01,9.43158e-01,9.99931e-01
8.536923276e-01,9.30770e-01,9.99999e-01,9.85768e-01,9.44249e-01,9.99954e-01
8.579607893e-01,9.37015e-01,9.99999e-01,9.91226e-01,9.45320e-01,9.99987e-01
8.622505932e-01,9.41080e-01,9.99999e-01,9.94410e-01,9.46370e-01,9.99997e-01
8.665618462e-01,9.44129e-01,9.99999e-01,9.96546e-01,9.47401e-01,9.99998e-01
8.708946554e-01,9.44666e-01,9.99999e-01,9.96051e-01,9.48413e-01,9.99997e-01
8.752491287e-01,9.44385e-01,9.99999e-01,9.94717e-01,9.49405e-01,9.99993e-01
8.796253743e-01,9.43432e-01,9.99999e-01,9.92705e-01,9.50380e-01,9.99983e-01
8.840235012e-01,9.43362e-01,9.99999e-01,9.91668e-01,9.51335e-01,9.99948e-01
8.884436187e-01,9.24032e-01,9.99999e-01,9.70483e-01,9.52273e-01,9.99854e-01
8.928858368e-01,6.98503e-01,9.99999e-01,7.33415e-01,9.53194e-01,9.99163e-01
8.973502660e-01,5.50333e-01,9.99999e-01,5.79289e-01,9.54097e-01,9.95720e-01
9.018370173e-01,7.17070e-01,9.99999e-01,7.55951e-01,9.54983e-01,9.93279e-01
9.063462024e-01,7.42838e-01,9.99999e-01,7.81764e-01,9.55852e-01,9.94094e-01
9.108779334e-01,6.47539e-01,9.99999e-01,6.81020e-01,9.56705e-01,9.93864e-01
9.154323231e-01,6.13250e-01,9.99999e-01,6.43708e-01,9.57541e-01,9.94925e-01
9.200094847e-01,6.78249e-01,9.99999e-01,7.09733e-01,9.58362e-01,9.97156e-01
9.246095321e-01,5.79624e-01,9.99999e-01,6.06284e-01,9.59168e-01,9.96724e-01
9.292325798e-01,5.67984e-02,9.99999e-01,5.99294e-02,9.59958e-01,9.87287e-01
9.338787427e-01,1.88601e-02,9.99999e-01,2.06971e-02,9.60733e-01,9.48484e-01
9.385481364e-01,1.85541e-01,9.99999e-01,2.05500e-01,9.61494e-01,9.39033e-01
9.432408771e-01,1.15701e-01,9.99999e-01,1.26947e-01,9.62240e-01,9.47177e-01
9.479570815e-01,4.72374e-02,9.99999e-01,5.12688e-02,9.62971e-01,9.56794e-01
9.526968669e-01,9.14004e-02,9.99999e-01,9.74338e-02,9.63689e-01,9.73420e-01
9.574603512e-01,1.01981e-01,9.99999e-01,1.07203e-01,9.64394e-01,9.86409e-01
9.622476530e-01,1.46908e-01,9.99999e-01,1.53670e-01,9.65085e-01,9.90582e-01
9.670588912e-01,3.19258e-01,9.99999e-01,3.32722e-01,9.65762e-01,9.93549e-01
9.718941857e-01,4.63890e-01,9.99999e-01,4.82297e-01,9.66427e-01,9.95247e-01
9.767536566e-01,5.24993e-01,9.99999e-01,5.44844e-01,9.67079e-01,9.96365e-01
9.816374249e-01,6.12479e-01,9.99999e-01,6.33707e-01,9.67719e-01,9.98740e-01
9.865456120e-01,7.26407e-01,9.99999e-01,7.50348e-01,9.68346e-01,9.99737e-01
9.914783401e-01,8.10533e-01,9.99999e-01,8.36557e-01,9.68962e-01,9.99926e-01
9.964357318e-01,8.79661e-01,9.99999e-01,9.07311e-01,9.69565e-01,9.99957e-01
1.001417910e+00,9.15070e-01,9.99999e-01,9.43278e-01,9.70157e-01,9.99934e-01
1.006425000e+00,9.38880e-01,9.99999e-01,9.67270e-01,9.70738e-01,9.99906e-01
1.011457125e+00,9.51347e-01,9.99999e-01,9.79532e-01,9.71308e-01,9.99913e-01
1.016514411e+00,9.58269e-01,9.99999e-01,9.86068e-01,9.71866e-01,9.99938e-01
1.021596983e+00,9.61550e-01,9.99999e-01,9.88887e-01,9.72414e-01,9.99938e-01
1.026704968e+00,9.64473e-01,9.99999e-01,9.91324e-01,9.72952e-01,9.99958e-01
1.031838492e+00,9.67318e-01,9.99999e-01,9.93681e-01,9.73479e-01,9.99988e-01
1.036997685e+00,9.70339e-01,9.99999e-01,9.96247e-01,9.73996e-01,9.99997e-01
1.042182673e+00,9.70152e-01,9.99999e-01,9.95535e-01,9.74503e-01,9.99998e-01
1.047393587e+00,9.69225e-01,9.99999e-01,9.94077e-01,9.75000e-01,9.99998e-01
1.052630555e+00,9.67572e-01,9.99999e-01,9.91887e-01,9.75488e-01,9.99997e-01
1.057893707e+00,9.62792e-01,9.99999e-01,9.86506e-01,9.75966e-01,9.99994e-01
1.063183176e+00,9.54836e-01,9.99999e-01,9.77890e-01,9.76435e-01,9.99987e-01
1.068499092e+00,9.40970e-01,9.99999e-01,9.63249e-01,9.76895e-01,9.99974e-01
1.073841587e+00,9.35540e-01,9.99999e-01,9.57277e-01,9.77346e-01,9.99944e-01
1.079210795e+00,9.24265e-01,9.99999e-01,9.45401e-01,9.77789e-01,9.99849e-01
1.084606849e+00,8.98440e-01,9.99999e-01,9.18771e-01,9.78223e-01,9.99639e-01
1.090029883e+00,8.66696e-01,9.99999e-01,8.86267e-01,9.78648e-01,9.99252e-01
1.095480033e+00,7.04009e-01,9.99999e-01,7.20034e-01,9.79065e-01,9.98649e-01
1.100957433e+00,4.33243e-01,9.99999e-01,4.43423e-01,9.79475e-01,9.97515e-01
1.106462220e+00,1.43924e-01,9.99999e-01,1.47501e-01,9.79876e-01,9.95789e-01
1.111994531e+00,1.98599e-02,9.99999e-01,2.04878e-02,9.80269e-01,9.88861e-01
1.117554504e+00,2.59861e-03,9.99999e-01,2.75922e-03,9.80655e-01,9.60368e-01
1.123142276e+00,1.74477e-02,9.99999e-01,1.95750e-02,9.81034e-01,9.08559e-01
1.128757988e+00,4.81754e-02,9.99999e-01,5.48473e-02,9.81405e-01,8.94996e-01
1.134401778e+00,2.36818e-02,9.99999e-01,2.65076e-02,9.81769e-01,9.09983e-01
1.140073787e+00,1.41771e-01,9.99999e-01,1.55651e-01,9.82126e-01,9.27402e-01
1.145774156e+00,3.05509e-02,9.99999e-01,3.33167e-02,9.82476e-01,9.33338e-01
1.151503026e+00,2.07508e-02,9.99999e-01,2.19408e-02,9.82819e-01,9.62297e-01
1.157260541e+00,2.71931e-02,9.99999e-01,2.79786e-02,9.83155e-01,9.88574e-01
1.163046844e+00,6.75528e-02,9.99999e-01,6.89112e-02,9.83485e-01,9.96748e-01
1.168862078e+00,1.39241e-01,9.99999e-01,1.41770e-01,9.83809e-01,9.98323e-01
1.174706389e+00,2.90625e-01,9.99999e-01,2.95970e-01,9.84126e-01,9.97778e-01
1.180579921e+00,4.62794e-01,9.99999e-01,4.71693e-01,9.84437e-01,9.96642e-01
1.186482820e+00,6.37384e-01,9.99999e-01,6.49497e-01,9.84742e-01,9.96553e-01
1.192415234e+00,7.62562e-01,9.99999e-01,7.76145e-01,9.85041e-01,9.97418e-01
1.198377311e+00,7.94248e-01,9.99999e-01,8.08039e-01,9.85334e-01,9.97560e-01
1.204369197e+00,8.04912e-01,9.99999e-01,8.18459e-01,9.85622e-01,9.97793e-01
1.210391043e+00,8.12189e-01,9.99999e-01,8.24908e-01,9.85904e-01,9.98656e-01
1.216442998e+00,8.36391e-01,9.99999e-01,8.48809e-01,9.86180e-01,9.99176e-01
1.222525213e+00,8.67415e-01,9.99999e-01,8.79777e-01,9.86452e-01,9.99488e-01
1.228637839e+00,9.02478e-01,9.99999e-01,9.14844e-01,9.86717e-01,9.99761e-01
1.234781029e+00,9.23775e-01,9.99999e-01,9.36026e-01,9.86978e-01,9.99931e-01
1.240954934e+00,9.46804e-01,9.99999e-01,9.59065e-01,9.87234e-01,9.99980e-01
1.247159708e+00,9.55817e-01,9.99999e-01,9.67942e-01,9.87484e-01,9.99987e-01
1.253395507e+00,9.59574e-01,9.99999e-01,9.71509e-01,9.87730e-01,9.99983e-01
1.259662485e+00,9.61222e-01,9.99999e-01,9.72949e-01,9.87971e-01,9.99974e-01
1.265960797e+00,9.45779e-01,9.99999e-01,9.57106e-01,9.88207e-01,9.99957e-01
1.272290601e+00,9.26759e-01,9.99999e-01,9.37668e-01,9.88438e-01,9.99924e-01
1.278652054e+00,8.63444e-01,9.99999e-01,8.73457e-01,9.88665e-01,9.99867e-01
1.285045314e+00,8.00117e-01,9.99999e-01,8.09308e-01,9.88888e-01,9.99751e-01
1.291470541e+00,6.47226e-01,9.99999e-01,6.54638e-01,9.89106e-01,9.99565e-01
1.297927893e+00,5.72500e-01,9.99999e-01,5.79150e-01,9.89320e-01,9.99188e-01
1.304417533e+00,4.91422e-01,9.99999e-01,4.97476e-01,9.89530e-01,9.98282e-01
1.310939621e+00,4.44915e-01,9.99999e-01,4.51118e-01,9.89736e-01,9.96476e-01
1.317494319e+00,4.15390e-01,9.99999e-01,4.22361e-01,9.89938e-01,9.93492e-01
1.324081790e+00,2.81770e-01,9.99999e-01,2.87627e-01,9.90135e-01,9.89396e-01
1.330702199e+00,4.69376e-02,9.99999e-01,4.82751e-02,9.90329e-01,9.81786e-01
1.337355710e+00,2.82805e-05,9.99999e-01,2.95799e-05,9.90519e-01,9.65219e-01
1.344042489e+00,9.33520e-08,9.99999e-01,1.04830e-07,9.90706e-01,8.98863e-01
1.350762701e+00,1.21999e-24,9.99999e-01,1.77367e-24,9.90888e-01,6.94160e-01
1.357516515e+00,2.79034e-37,9.99999e-01,8.21930e-37,9.91068e-01,3.42545e-01
1.364304097e+00,3.88204e-23,9.99999e-01,2.56048e-22,9.91243e-01,1.52953e-01
1.371125618e+00,3.61191e-14,9.99999e-01,2.13934e-13,9.91415e-01,1.70294e-01
1.377981246e+00,1.41531e-13,9.99999e-01,6.50926e-13,9.91584e-01,2.19276e-01
1.384871152e+00,4.44208e-19,9.99999e-01,1.87021e-18,9.91750e-01,2.39493e-01
1.391795508e+00,2.86105e-23,9.99999e-01,1.11587e-22,9.91912e-01,2.58487e-01
1.398754485e+00,8.09256e-18,9.99999e-01,2.48351e-17,9.92071e-01,3.28456e-01
1.405748258e+00,1.37525e-17,9.99999e-01,2.65727e-17,9.92227e-01,5.21597e-01
1.412776999e+00,5.35002e-17,9.99999e-01,7.25660e-17,9.92380e-01,7.42922e-01
1.419840884e+00,9.22700e-17,9.99998e-01,1.05902e-16,9.92530e-01,8.77834e-01
1.426940089e+00,3.51089e-11,9.99998e-01,3.90481e-11,9.92677e-01,9.05751e-01
1.434074789e+00,6.88374e-10,9.99998e-01,7.79262e-10,9.92821e-01,8.89753e-01
1.441245163e+00,3.21565e-08,9.99999e-01,3.67523e-08,9.92962e-01,8.81152e-01
1.448451389e+00,1.07794e-05,9.99998e-01,1.21259e-05,9.93101e-01,8.95132e-01
1.455693646e+00,4.14274e-04,9.99998e-01,4.54643e-04,9.93237e-01,9.17409e-01
1.462972114e+00,6.02662e-04,9.99999e-01,6.58668e-04,9.93370e-01,9.21076e-01
1.470286975e+00,2.21005e-04,9.99999e-01,2.41174e-04,9.93500e-01,9.22366e-01
