#,Wave/freq,Total,N2,H2O,Rayleigh,CIA
4.000000000e-01,3.49518e-01,9.99999e-01,9.99881e-01,3.49560e-01,9.99999e-01
4.020000000e-01,3.56874e-01,9.99999e-01,9.99926e-01,3.56901e-01,9.99999e-01
4.040100000e-01,3.64227e-01,9.99999e-01,9.99968e-01,3.64238e-01,9.99999e-01
4.060300500e-01,3.71575e-01,9.99999e-01,9.99992e-01,3.71577e-01,9.99999e-01
4.080602003e-01,3.78914e-01,9.99999e-01,9.99997e-01,3.78915e-01,9.99999e-01
4.101005013e-01,3.86248e-01,9.99999e-01,9.99999e-01,3.86248e-01,9.99999e-01
4.121510038e-01,3.93573e-01,9.99999e-01,9.99995e-01,3.93575e-01,9.99999e-01
4.142117588e-01,4.00878e-01,9.99999e-01,9.99966e-01,4.00891e-01,9.99999e-01
4.162828176e-01,4.08135e-01,9.99999e-01,9.99852e-01,4.08195e-01,9.99999e-01
4.183642317e-01,4.15447e-01,9.99999e-01,9.99912e-01,4.15484e-01,9.99999e-01
4.204560528e-01,4.22732e-01,9.99999e-01,9.99946e-01,4.22755e-01,9.99999e-01
4.225583331e-01,4.29997e-01,9.99999e-01,9.99979e-01,4.30006e-01,9.99999e-01
4.246711247e-01,4.37227e-01,9.99999e-01,9.99983e-01,4.37234e-01,9.99999e-01
4.267944804e-01,4.44427e-01,9.99999e-01,9.99976e-01,4.44437e-01,9.99999e-01
4.289284528e-01,4.51606e-01,9.99999e-01,9.99981e-01,4.51614e-01,9.99999e-01
4.310730950e-01,4.58757e-01,9.99999e-01,9.99991e-01,4.58761e-01,9.99999e-01
4.332284605e-01,4.65876e-01,9.99999e-01,9.99997e-01,4.65877e-01,9.99999e-01
4.353946028e-01,4.72958e-01,9.99999e-01,9.99998e-01,4.72959e-01,9.99999e-01
4.375715758e-01,4.79999e-01,9.99999e-01,9.99985e-01,4.80006e-01,9.99999e-01
4.397594337e-01,4.86953e-01,9.99999e-01,9.99870e-01,4.87015e-01,9.99999e-01
4.419582309e-01,4.93662e-01,9.99999e-01,9.99345e-01,4.93986e-01,9.99999e-01
4.441680220e-01,5.00659e-01,9.99999e-01,9.99488e-01,5.00915e-01,9.99999e-01
4.463888621e-01,5.07532e-01,9.99999e-01,9.99467e-01,5.07802e-01,9.99999e-01
4.486208064e-01,5.14475e-01,9.99999e-01,9.99669e-01,5.14645e-01,9.99999e-01
4.508639105e-01,5.21362e-01,9.99999e-01,9.99844e-01,5.21442e-01,9.99999e-01
4.531182300e-01,5.28160e-01,9.99999e-01,9.99938e-01,5.28192e-01,9.99999e-01
4.553838212e-01,5.34872e-01,9.99999e-01,9.99958e-01,5.34894e-01,9.99999e-01
4.576607403e-01,5.41535e-01,9.99999e-01,9.99980e-01,5.41546e-01,9.99999e-01
4.599490440e-01,5.48139e-01,9.99999e-01,9.99986e-01,5.48146e-01,9.99999e-01
4.622487892e-01,5.54693e-01,9.99999e-01,9.99997e-01,5.54695e-01,9.99999e-01
4.645600332e-01,5.61184e-01,9.99999e-01,9.99990e-01,5.61189e-01,9.99999e-01
4.668828333e-01,5.67541e-01,9.99999e-01,9.99843e-01,5.67630e-01,9.99999e-01
4.692172475e-01,5.73823e-01,9.99999e-01,9.99665e-01,5.74015e-01,9.99999e-01
4.715633337e-01,5.80217e-01,9.99999e-01,9.99781e-01,5.80343e-01,9.99999e-01
4.739211504e-01,5.86492e-01,9.99999e-01,9.99790e-01,5.86614e-01,9.99999e-01
4.762907561e-01,5.92763e-01,9.99999e-01,9.99891e-01,5.92827e-01,9.99999e-01
4.786722099e-01,5.98955e-01,9.99999e-01,9.99955e-01,5.98982e-01,9.99999e-01
4.810655710e-01,6.05068e-01,9.99999e-01,9.99986e-01,6.05076e-01,9.99999e-01
4.834708988e-01,6.11033e-01,9.99999e-01,9.99871e-01,6.11111e-01,9.99999e-01
4.858882533e-01,6.16939e-01,9.99999e-01,9.99763e-01,6.17084e-01,9.99999e-01
4.883176946e-01,6.22874e-01,9.99999e-01,9.99802e-01,6.22997e-01,9.99999e-01
4.907592831e-01,6.28735e-01,9.99999e-01,9.99820e-01,6.28847e-01,9.99999e-01
4.932130795e-01,6.34555e-01,9.99999e-01,9.99872e-01,6.34635e-01,9.99999e-01
4.956791449e-01,6.40318e-01,9.99999e-01,9.99932e-01,6.40361e-01,9.99999e-01
4.981575406e-01,6.45807e-01,9.99999e-01,9.99664e-01,6.46024e-01,9.99999e-01
5.006483283e-01,6.51053e-01,9.99999e-01,9.99130e-01,6.51623e-01,9.99993e-01
5.031515699e-01,6.54240e-01,9.99999e-01,9.95602e-01,6.57159e-01,9.99953e-01
5.056673278e-01,6.61057e-01,9.99999e-01,9.97675e-01,6.62631e-01,9.99946e-01
5.081956644e-01,6.66059e-01,9.99999e-01,9.97068e-01,6.68040e-01,9.99965e-01
5.107366428e-01,6.72047e-01,9.99999e-01,9.98019e-01,6.73384e-01,9.99993e-01
5.132903260e-01,6.77896e-01,9.99999e-01,9.98867e-01,6.78665e-01,9.99998e-01
5.158567776e-01,6.83554e-01,9.99999e-01,9.99521e-01,6.83881e-01,9.99999e-01
5.184360615e-01,6.88901e-01,9.99999e-01,9.99808e-01,6.89033e-01,9.99999e-01
5.210282418e-01,6.94071e-01,9.99999e-01,9.99928e-01,6.94121e-01,9.99999e-01
5.236333830e-01,6.98943e-01,9.99999e-01,9.99712e-01,6.99145e-01,9.99997e-01
5.262515499e-01,7.03976e-01,9.99999e-01,9.99819e-01,7.04105e-01,9.99996e-01
5.288828077e-01,7.08883e-01,9.99999e-01,9.99834e-01,7.09001e-01,9.99997e-01
5.315272217e-01,7.13730e-01,9.99999e-01,9.99854e-01,7.13834e-01,9.99999e-01
5.341848578e-01,7.18534e-01,9.99999e-01,9.99904e-01,7.18603e-01,9.99999e-01
5.368557821e-01,7.23066e-01,9.99999e-01,9.99665e-01,7.23308e-01,9.99998e-01
5.395400610e-01,7.27066e-01,9.99999e-01,9.98793e-01,7.27951e-01,9.99989e-01
5.422377613e-01,7.31368e-01,9.99999e-01,9.98440e-01,7.32531e-01,9.99971e-01
5.449489501e-01,7.35958e-01,9.99999e-01,9.98549e-01,7.37048e-01,9.99970e-01
5.476736949e-01,7.40541e-01,9.99999e-01,9.98715e-01,7.41504e-01,9.99985e-01
5.504120634e-01,7.45199e-01,9.99999e-01,9.99067e-01,7.45897e-01,9.99995e-01
5.531641237e-01,7.49877e-01,9.99999e-01,9.99530e-01,7.50229e-01,9.99998e-01
5.559299443e-01,7.54329e-01,9.99999e-01,9.99773e-01,7.54499e-01,9.99999e-01
5.587095940e-01,7.58602e-01,9.99999e-01,9.99857e-01,7.58709e-01,9.99999e-01
5.615031420e-01,7.62738e-01,9.99999e-01,9.99841e-01,7.62859e-01,9.99999e-01
5.643106577e-01,7.66810e-01,9.99999e-01,9.99820e-01,7.66949e-01,9.99997e-01
5.671322110e-01,7.69287e-01,9.99999e-01,9.97824e-01,7.70979e-01,9.99980e-01
5.699678720e-01,7.73110e-01,9.99999e-01,9.97683e-01,7.74950e-01,9.99940e-01
5.728177114e-01,7.76946e-01,9.99999e-01,9.97588e-01,7.78862e-01,9.99950e-01
5.756818000e-01,7.80961e-01,9.99999e-01,9.97786e-01,7.82717e-01,9.99969e-01
5.785602090e-01,7.84989e-01,9.99999e-01,9.98070e-01,7.86514e-01,9.99990e-01
5.814530100e-01,7.88719e-01,9.99999e-01,9.98062e-01,7.90253e-01,9.99995e-01
5.843602750e-01,7.92093e-01,9.99999e-01,9.97691e-01,7.93936e-01,9.99986e-01
5.872820764e-01,7.81758e-01,9.99999e-01,9.80320e-01,7.97563e-01,9.99859e-01
5.902184868e-01,7.81714e-01,9.99999e-01,9.76129e-01,8.01135e-01,9.99618e-01
5.931695792e-01,7.90772e-01,9.99999e-01,9.83111e-01,8.04651e-01,9.99633e-01
5.961354271e-01,7.92978e-01,9.99999e-01,9.81477e-01,8.08113e-01,9.99788e-01
5.991161043e-01,8.00473e-01,9.99999e-01,9.86449e-01,8.11521e-01,9.99934e-01
6.021116848e-01,8.08586e-01,9.99999e-01,9.92288e-01,8.14875e-01,9.99992e-01
6.051222432e-01,8.14979e-01,9.99999e-01,9.96091e-01,8.18177e-01,9.99999e-01
6.081478544e-01,8.20041e-01,9.99999e-01,9.98312e-01,8.21427e-01,9.99999e-01
6.111885937e-01,8.24036e-01,9.99999e-01,9.99285e-01,8.24625e-01,9.99999e-01
6.142445367e-01,8.27507e-01,9.99999e-01,9.99680e-01,8.27771e-01,9.99999e-01
6.173157594e-01,8.30722e-01,9.99999e-01,9.99823e-01,8.30868e-01,9.99999e-01
6.204023382e-01,8.33790e-01,9.99999e-01,9.99850e-01,8.33914e-01,9.99999e-01
6.235043498e-01,8.36362e-01,9.99999e-01,9.99344e-01,8.36911e-01,9.99997e-01
6.266218716e-01,8.36927e-01,9.99999e-01,9.96532e-01,8.39859e-01,9.99975e-01
6.297549810e-01,8.41646e-01,9.99999e-01,9.98727e-01,8.42760e-01,9.99950e-01
6.329037559e-01,8.43453e-01,9.99999e-01,9.97484e-01,8.45612e-01,9.99960e-01
6.360682746e-01,8.46582e-01,9.99999e-01,9.97858e-01,8.48418e-01,9.99976e-01
6.392486160e-01,8.48806e-01,9.99999e-01,9.97224e-01,8.51177e-01,9.99989e-01
6.424448591e-01,8.50709e-01,9.99999e-01,9.96289e-01,8.53891e-01,9.99983e-01
6.456570834e-01,8.41829e-01,9.99999e-01,9.82896e-01,8.56559e-01,9.99904e-01
6.488853688e-01,8.48176e-01,9.99999e-01,9.87452e-01,8.59182e-01,9.99732e-01
6.521297956e-01,8.50562e-01,9.99999e-01,9.87220e-01,8.61762e-01,9.99778e-01
6.553904446e-01,8.53143e-01,9.99999e-01,9.87254e-01,8.64298e-01,9.99835e-01
6.586673968e-01,8.57280e-01,9.99999e-01,9.89080e-01,8.66791e-01,9.99944e-01
6.619607338e-01,8.63731e-01,9.99999e-01,9.93670e-01,8.69243e-01,9.99987e-01
6.652705375e-01,8.68450e-01,9.99999e-01,9.96332e-01,8.71652e-01,9.99993e-01
6.685968902e-01,8.72529e-01,9.99999e-01,9.98294e-01,8.74020e-01,9.99998e-01
6.719398746e-01,8.75655e-01,9.99999e-01,9.99209e-01,8.76348e-01,9.99999e-01
6.752995740e-01,8.78259e-01,9.99999e-01,9.99571e-01,8.78636e-01,9.99999e-01
6.786760719e-01,8.80339e-01,9.99999e-01,9.99381e-01,8.80884e-01,9.99998e-01
6.820694522e-01,8.82154e-01,9.99999e-01,9.98941e-01,8.83093e-01,9.99994e-01
6.854797995e-01,8.84046e-01,9.99999e-01,9.98634e-01,8.85265e-01,9.99987e-01
6.889071985e-01,8.84446e-01,9.99999e-01,9.96701e-01,8.87398e-01,9.99970e-01
6.923517345e-01,8.42656e-01,9.99999e-01,9.47586e-01,8.89495e-01,9.99741e-01
6.958134932e-01,8.66464e-01,9.99999e-01,9.72413e-01,8.91555e-01,9.99427e-01
6.992925606e-01,8.69628e-01,9.99999e-01,9.73699e-01,8.93578e-01,9.99483e-01
7.027890234e-01,8.66217e-01,9.99999e-01,9.67608e-01,8.95567e-01,9.99605e-01
7.063029686e-01,8.72817e-01,9.99999e-01,9.72666e-01,8.97520e-01,9.99803e-01
7.098344834e-01,8.75726e-01,9.99999e-01,9.73748e-01,8.99439e-01,9.99883e-01
7.133836558e-01,8.69858e-01,9.99999e-01,9.65311e-01,9.01323e-01,9.99769e-01
7.169505741e-01,6.83529e-01,9.99999e-01,7.58180e-01,9.03175e-01,9.98187e-01
7.205353270e-01,7.86741e-01,9.99999e-01,8.72119e-01,9.04994e-01,9.96804e-01
7.241380036e-01,7.59583e-01,9.99999e-01,8.39988e-01,9.06780e-01,9.97239e-01
7.277586936e-01,7.74584e-01,9.99999e-01,8.54492e-01,9.08534e-01,9.97742e-01
7.313974871e-01,7.68367e-01,9.99999e-01,8.45013e-01,9.10257e-01,9.98942e-01
7.350544745e-01,8.31201e-01,9.99999e-01,9.11789e-01,9.11949e-01,9.99631e-01
7.387297469e-01,8.53243e-01,9.99999e-01,9.34080e-01,9.13611e-01,9.99831e-01
7.424233956e-01,8.85132e-01,9.99999e-01,9.67131e-01,9.15243e-01,9.99967e-01
7.461355126e-01,8.98452e-01,9.99999e-01,9.79943e-01,9.16846e-01,9.99993e-01
7.498661902e-01,9.09794e-01,9.99999e-01,9.90609e-01,9.18419e-01,9.99997e-01
7.536155211e-01,9.15717e-01,9.99999e-01,9.95383e-01,9.19964e-01,9.99998e-01
7.573835987e-01,9.19290e-01,9.99999e-01,9.97621e-01,9.21481e-01,9.99999e-01
7.611705167e-01,9.21607e-01,9.99999e-01,9.98521e-01,9.22971e-01,9.99999e-01
7.649763693e-01,9.23577e-01,9.99999e-01,9.99072e-01,9.24433e-01,9.99999e-01
7.688012511e-01,9.25272e-01,9.99999e-01,9.99354e-01,9.25869e-01,9.99999e-01
7.726452574e-01,9.26787e-01,9.99999e-01,9.99468e-01,9.27279e-01,9.99999e-01
7.765084837e-01,9.27962e-01,9.99999e-01,9.99245e-01,9.28663e-01,9.99998e-01
7.803910261e-01,9.26990e-01,9.99999e-01,9.96743e-01,9.30021e-01,9.99996e-01
7.842929812e-01,9.20795e-01,9.99999e-01,9.88681e-01,9.31355e-01,9.99978e-01
7.882144461e-01,9.10897e-01,9.99999e-01,9.76800e-01,9.32664e-01,9.99856e-01
7.921555184e-01,9.21756e-01,9.99999e-01,9.87217e-01,9.33949e-01,9.99722e-01
7.961162960e-01,9.13961e-01,9.99999e-01,9.77536e-01,9.35211e-01,9.99733e-01
8.000968774e-01,9.11886e-01,9.99999e-01,9.74045e-01,9.36449e-01,9.99716e-01
8.040973618e-01,9.13131e-01,9.99999e-01,9.74054e-01,9.37664e-01,9.99774e-01
8.081178486e-01,8.84905e-01,9.99999e-01,9.42732e-01,9.38857e-01,9.99788e-01
8.121584379e-01,7.36907e-01,9.99999e-01,7.84569e-01,9.40028e-01,9.99171e-01
8.162192301e-01,7.04251e-01,9.99999e-01,7.50600e-01,9.41177e-01,9.96890e-01
8.203003262e-01,8.17569e-01,9.99999e-01,8.70795e-01,9.42305e-01,9.96359e-01
8.244018279e-01,7.77839e-01,9.99999e-01,8.26891e-01,9.43411e-01,9.97101e-01
8.285238370e-01,7.92750e-01,9.99999e-01,8.41249e-01,9.44497e-01,9.97723e-01
8.326664562e-01,7.93638e-01,9.99999e-01,8.40119e-01,9.45563e-01,9.99057e-01
8.368297885e-01,8.34620e-01,9.99999e-01,8.81883e-01,9.46609e-01,9.99784e-01
8.410139374e-01,8.79160e-01,9.99999e-01,9.27856e-01,9.47636e-01,9.99873e-01
8.452190071e-01,9.14310e-01,9.99999e-01,9.63879e-01,9.48643e-01,9.99924e-01
8.494451021e-01,9.29507e-01,9.99999e-01,9.78866e-01,9.49631e-01,9.99939e-01
8.536923276e-01,9.38637e-01,9.99999e-01,9.87449e-01,9.50601e-01,9.99962e-01
8.579607893e-01,9.44174e-01,9.99999e-01,9.92253e-01,9.51553e-01,9.99990e-01
8.622505932e-01,9.47792e-01,9.99999e-01,9.95071e-01,9.52487e-01,9.99997e-01
8.665618462e-01,9.50494e-01,9.99999e-01,9.96949e-01,9.53403e-01,9.99998e-01
8.708946554e-01,9.50969e-01,9.99999e-01,9.96508e-01,9.54302e-01,9.99997e-01
8.752491287e-01,9.50720e-01,9.99999e-01,9.95330e-01,9.55184e-01,9.99994e-01
8.796253743e-01,9.49861e-01,9.99999e-01,9.93540e-01,9.56050e-01,9.99985e-01
8.840235012e-01,9.49800e-01,9.99999e-01,9.92625e-01,9.56899e-01,9.99954e-01
8.884436187e-01,9.32317e-01,9.99999e-01,9.73587e-01,9.57732e-01,9.99871e-01
8.928858368e-01,7.26519e-01,9.99999e-01,7.58495e-01,9.58549e-01,9.99260e-01
8.973502660e-01,5.88508e-01,9.99999e-01,6.15772e-01,9.59351e-01,9.96218e-01
9.018370173e-01,7.45170e-01,9.99999e-01,7.80743e-01,9.60138e-01,9.94061e-01
9.063462024e-01,7.67611e-01,9.99999e-01,8.03028e-01,9.60910e-01,9.94780e-01
9.108779334e-01,6.79775e-01,9.99999e-01,7.10725e-01,9.61667e-01,9.94577e-01
9.154323231e-01,6.48211e-01,9.99999e-01,6.76563e-01,9.62409e-01,9.95515e-01
9.200094847e-01,7.08843e-01,9.99999e-01,7.37825e-01,9.63138e-01,9.97487e-01
9.246095321e-01,6.13348e-01,9.99999e-01,6.38197e-01,9.63853e-01,9.97105e-01
9.292325798e-01,7.15950e-02,9.99999e-01,7.50696e-02,9.64554e-01,9.88761e-01
9.338787427e-01,2.81224e-02,9.99999e-01,3.05286e-02,9.65242e-01,9.54351e-01
9.385481364e-01,2.19721e-01,9.99999e-01,2.40472e-01,9.65916e-01,9.45945e-01
9.432408771e-01,1.41515e-01,9.99999e-01,1.53598e-01,9.66578e-01,9.53189e-01
9.479570815e-01,6.44894e-02,9.99999e-01,6.93273e-02,9.67228e-01,9.61733e-01
9.526968669e-01,1.17186e-01,9.99999e-01,1.23993e-01,9.67864e-01,9.76482e-01
9.574603512e-01,1.29294e-01,9.99999e-01,1.35125e-01,9.68489e-01,9.87983e-01
9.622476530e-01,1.80255e-01,9.99999e-01,1.87563e-01,9.69102e-01,9.91675e-01
9.670588912e-01,3.61056e-01,9.99999e-01,3.74471e-01,9.69703e-01,9.94299e-01
9.718941857e-01,5.06085e-01,9.99999e-01,5.23779e-01,9.70292e-01,9.95800e-01
9.767536566e-01,5.64835e-01,9.99999e-01,5.83655e-01,9.70870e-01,9.96788e-01
9.816374249e-01,6.48300e-01,9.99999e-01,6.68104e-01,9.71437e-01,9.98887e-01
9.865456120e-01,7.54074e-01,9.99999e-01,7.75981e-01,9.71993e-01,9.99767e-01
9.914783401e-01,8.30749e-01,9.99999e-01,8.54260e-01,9.72539e-01,9.99935e-01
9.964357318e-01,8.93004e-01,9.99999e-01,9.17748e-01,9.73074e-01,9.99961e-01
1.001417910e+00,9.24668e-01,9.99999e-01,9.49796e-01,9.73599e-01,9.99942e-01
1.006425000e+00,9.45834e-01,9.99999e-01,9.71048e-01,9.74113e-01,9.99917e-01
1.011457125e+00,9.56938e-01,9.99999e-01,9.81932e-01,9.74618e-01,9.99923e-01
1.016514411e+00,9.63066e-01,9.99999e-01,9.87697e-01,9.75113e-01,9.99946e-01
1.021596983e+00,9.65972e-01,9.99999e-01,9.90185e-01,9.75599e-01,9.99945e-01
1.026704968e+00,9.68561e-01,9.99999e-01,9.92337e-01,9.76075e-01,9.99963e-01
1.031838492e+00,9.71089e-01,9.99999e-01,9.94425e-01,9.76542e-01,9.99989e-01
1.036997685e+00,9.73761e-01,9.99999e-01,9.96685e-01,9.77000e-01,9.99997e-01
1.042182673e+00,9.73588e-01,9.99999e-01,9.96049e-01,9.77449e-01,9.99998e-01
1.047393587e+00,9.72769e-01,9.99999e-01,9.94764e-01,9.77889e-01,9.99998e-01
1.052630555e+00,9.71298e-01,9.99999e-01,9.92822e-01,9.78321e-01,9.99997e-01
1.057893707e+00,9.67044e-01,9.99999e-01,9.88048e-01,9.78745e-01,9.99995e-01
1.063183176e+00,9.59976e-01,9.99999e-01,9.80417e-01,9.79160e-01,9.99989e-01
1.068499092e+00,9.47652e-01,9.99999e-01,9.67439e-01,9.79568e-01,9.99977e-01
1.073841587e+00,9.42766e-01,9.99999e-01,9.62085e-01,9.79967e-01,9.99950e-01
1.079210795e+00,9.32788e-01,9.99999e-01,9.51601e-01,9.80359e-01,9.99867e-01
1.084606849e+00,9.09638e-01,9.99999e-01,9.27793e-01,9.80743e-01,9.99681e-01
1.090029883e+00,8.80821e-01,9.99999e-01,8.98363e-01,9.81120e-01,9.99339e-01
1.095480033e+00,7.32502e-01,9.99999e-01,7.47207e-01,9.81489e-01,9.98806e-01
1.100957433e+00,4.74878e-01,9.99999e-01,4.84719e-01,9.81852e-01,9.97804e-01
1.106462220e+00,1.75491e-01,9.99999e-01,1.79337e-01,9.82207e-01,9.96279e-01
1.111994531e+00,2.97120e-02,9.99999e-01,3.05402e-02,9.82555e-01,9.90153e-01
1.117554504e+00,4.63004e-03,9.99999e-01,4.88192e-03,9.82897e-01,9.64907e-01
1.123142276e+00,2.57231e-02,9.99999e-01,2.84746e-02,9.83232e-01,9.18774e-01
1.128757988e+00,6.61114e-02,9.99999e-01,7.41372e-02,9.83560e-01,9.06647e-01
1.134401778e+00,3.17087e-02,9.99999e-01,3.50287e-02,9.83882e-01,9.20046e-01
1.140073787e+00,1.75171e-01,9.99999e-01,1.90237e-01,9.84198e-01,9.35587e-01
1.145774156e+00,4.27635e-02,9.99999e-01,4.61660e-02,9.84508e-01,9.40874e-01
1.151503026e+00,3.05630e-02,9.99999e-01,3.21061e-02,9.84811e-01,9.66618e-01
1.157260541e+00,4.01156e-02,9.99999e-01,4.11374e-02,9.85109e-01,9.89899e-01
1.163046844e+00,9.04926e-02,9.99999e-01,9.20978e-02,9.85401e-01,9.97126e-01
1.168862078e+00,1.73585e-01,9.99999e-01,1.76367e-01,9.85687e-01,9.98518e-01
1.174706389e+00,3.34237e-01,9.99999e-01,3.39660e-01,9.85968e-01,9.98036e-01
1.180579921e+00,5.05621e-01,9.99999e-01,5.14199e-01,9.86243e-01,9.97033e-01
1.186482820e+00,6.71655e-01,9.99999e-01,6.82916e-01,9.86513e-01,9.96954e-01
1.192415234e+00,7.87065e-01,9.99999e-01,7.99434e-01,9.86778e-01,9.97718e-01
1.198377311e+00,8.15731e-01,9.99999e-01,8.28227e-01,9.87037e-01,9.97844e-01
1.204369197e+00,8.25327e-01,9.99999e-01,8.37583e-01,9.87292e-01,9.98049e-01
1.210391043e+00,8.32032e-01,9.99999e-01,8.43528e-01,9.87541e-01,9.98813e-01
1.216442998e+00,8.54041e-01,9.99999e-01,8.65229e-01,9.87786e-01,9.99272e-01
1.222525213e+00,8.81975e-01,9.99999e-01,8.93066e-01,9.88025e-01,9.99548e-01
1.228637839e+00,9.13365e-01,9.99999e-01,9.24408e-01,9.88261e-01,9.99789e-01
1.234781029e+00,9.32405e-01,9.99999e-01,9.43317e-01,9.88491e-01,9.99939e-01
1.240954934e+00,9.52877e-01,9.99999e-01,9.63766e-01,9.88717e-01,9.99982e-01
1.247159708e+00,9.60897e-01,9.99999e-01,9.71654e-01,9.88939e-01,9.99988e-01
1.253395507e+00,9.64212e-01,9.99999e-01,9.74795e-01,9.89156e-01,9.99985e-01
1.259662485e+00,9.65647e-01,9.99999e-01,9.76044e-01,9.89369e-01,9.99977e-01
1.265960797e+00,9.51954e-01,9.99999e-01,9.62015e-01,9.89578e-01,9.99962e-01
1.272290601e+00,9.31375e-01,9.99999e-01,9.41051e-01,9.89783e-01,9.99933e-01
1.278652054e+00,8.77717e-01,9.99999e-01,8.86701e-01,9.89983e-01,9.99882e-01
1.285045314e+00,7.97073e-01,9.99999e-01,8.05153e-01,9.90180e-01,9.99780e-01
1.291470541e+00,6.79323e-01,9.99999e-01,6.86189e-01,9.90373e-01,9.99615e-01
1.297927893e+00,6.09069e-01,9.99999e-01,6.15312e-01,9.90563e-01,9.99283e-01
1.304417533e+00,5.32085e-01,9.99999e-01,5.37869e-01,9.90748e-01,9.98482e-01
1.310939621e+00,4.86152e-01,9.99999e-01,4.92134e-01,9.90930e-01,9.96886e-01
1.317494319e+00,4.58304e-01,9.99999e-01,4.65090e-01,9.91108e-01,9.94248e-01
1.324081790e+00,3.22683e-01,9.99999e-01,3.28600e-01,9.91283e-01,9.90626e-01
1.330702199e+00,5.81436e-02,9.99999e-01,5.96048e-02,9.91455e-01,9.83892e-01
1.337355710e+00,8.09027e-05,9.99999e-01,8.41777e-05,9.91623e-01,9.69211e-01
1.344042489e+00,4.09554e-07,9.99999e-01,4.53732e-07,9.91787e-01,9.10106e-01
1.350762701e+00,5.10142e-22,9.99999e-01,7.10000e-22,9.91949e-01,7.24340e-01
1.357516515e+00,3.41868e-33,9.99999e-01,8.87845e-33,9.92107e-01,3.88116e-01
1.364304097e+00,1.10054e-20,9.99999e-01,5.82581e-20,9.92263e-01,1.90381e-01
1.371125618e+00,8.93372e-13,9.99999e-01,4.30040e-12,9.92415e-01,2.09329e-01
1.377981246e+00,3.38955e-12,9.99999e-01,1.30486e-11,9.92564e-01,2.61709e-01
1.384871152e+00,4.13721e-17,9.99999e-01,1.45336e-16,9.92710e-01,2.86755e-01
1.391795508e+00,8.71243e-21,9.99999e-01,2.88644e-20,9.92854e-01,3.04012e-01
1.398754485e+00,5.41085e-16,9.99999e-01,1.45704e-15,9.92995e-01,3.73979e-01
1.405748258e+00,8.78771e-16,9.99999e-01,1.57246e-15,9.93132e-01,5.62715e-01
1.412776999e+00,2.81277e-15,9.99999e-01,3.68196e-15,9.93268e-01,7.69111e-01
1.419840884e+00,4.89019e-15,9.99998e-01,5.52321e-15,9.93400e-01,8.91270e-01
1.426940089e+00,3.86573e-10,9.99998e-01,4.24648e-10,9.93530e-01,9.16265e-01
1.434074789e+00,6.31144e-09,9.99998e-01,7.04219e-09,9.93657e-01,9.01952e-01
1.441245163e+00,1.92147e-07,9.99999e-01,2.16214e-07,9.93782e-01,8.94246e-01
1.448451389e+00,3.27095e-05,9.99998e-01,3.62937e-05,9.93905e-01,9.06768e-01
1.455693646e+00,8.82988e-04,9.99998e-01,9.58582e-04,9.94025e-01,9.26675e-01
1.462972114e+00,1.28800e-03,9.99999e-01,1.39318e-03,9.94142e-01,9.29946e-01
1.470286975e+00,5.13925e-04,9.99999e-01,5.55143e-04,9.94258e-01,9.31097e-01
