#,Wave/freq,Total,N2,H2O,Rayleigh,CIA
4.000000000e-01,3.58436e-01,9.99999e-01,9.99884e-01,3.58477e-01,9.99999e-01
4.020000000e-01,3.65797e-01,9.99999e-01,9.99928e-01,3.65823e-01,9.99999e-01
4.040100000e-01,3.73151e-01,9.99999e-01,9.99969e-01,3.73162e-01,9.99999e-01
4.060300500e-01,3.80496e-01,9.99999e-01,9.99992e-01,3.80499e-01,9.99999e-01
4.080602003e-01,3.87830e-01,9.99999e-01,9.99997e-01,3.87831e-01,9.99999e-01
4.101005013e-01,3.95155e-01,9.99999e-01,9.99999e-01,3.95155e-01,9.99999e-01
4.121510038e-01,4.02467e-01,9.99999e-01,9.99995e-01,4.02469e-01,9.99999e-01
4.142117588e-01,4.09757e-01,9.99999e-01,9.99967e-01,4.09770e-01,9.99999e-01
4.162828176e-01,4.16995e-01,9.99999e-01,9.99856e-01,4.17055e-01,9.99999e-01
4.183642317e-01,4.24286e-01,9.99999e-01,9.99914e-01,4.24322e-01,9.99999e-01
4.204560528e-01,4.31546e-01,9.99999e-01,9.99947e-01,4.31568e-01,9.99999e-01
4.225583331e-01,4.38783e-01,9.99999e-01,9.99980e-01,4.38791e-01,9.99999e-01
4.246711247e-01,4.45982e-01,9.99999e-01,9.99983e-01,4.45989e-01,9.99999e-01
4.267944804e-01,4.53149e-01,9.99999e-01,9.99976e-01,4.53159e-01,9.99999e-01
4.289284528e-01,4.60292e-01,9.99999e-01,9.99981e-01,4.60300e-01,9.99999e-01
4.310730950e-01,4.67405e-01,9.99999e-01,9.99992e-01,4.67409e-01,9.99999e-01
4.332284605e-01,4.74482e-01,9.99999e-01,9.99997e-01,4.74483e-01,9.99999e-01
4.353946028e-01,4.81522e-01,9.99999e-01,9.99998e-01,4.81522e-01,9.99999e-01
4.375715758e-01,4.88516e-01,9.99999e-01,9.99984e-01,4.88524e-01,9.99999e-01
4.397594337e-01,4.95422e-01,9.99999e-01,9.99871e-01,4.95485e-01,9.99999e-01
4.419582309e-01,5.02079e-01,9.99999e-01,9.99348e-01,5.02406e-01,9.99999e-01
4.441680220e-01,5.09032e-01,9.99999e-01,9.99505e-01,5.09283e-01,9.99999e-01
4.463888621e-01,5.15849e-01,9.99999e-01,9.99480e-01,5.16117e-01,9.99999e-01
4.486208064e-01,5.22736e-01,9.99999e-01,9.99679e-01,5.22904e-01,9.99999e-01
4.508639105e-01,5.29564e-01,9.99999e-01,9.99849e-01,5.29643e-01,9.99999e-01
4.531182300e-01,5.36303e-01,9.99999e-01,9.99940e-01,5.36334e-01,9.99999e-01
4.553838212e-01,5.42953e-01,9.99999e-01,9.99959e-01,5.42975e-01,9.99999e-01
4.576607403e-01,5.49554e-01,9.99999e-01,9.99981e-01,5.49565e-01,9.99999e-01
4.599490440e-01,5.56094e-01,9.99999e-01,9.99986e-01,5.56101e-01,9.99999e-01
4.622487892e-01,5.62583e-01,9.99999e-01,9.99997e-01,5.62585e-01,9.99999e-01
4.645600332e-01,5.69008e-01,9.99999e-01,9.99990e-01,5.69013e-01,9.99999e-01
4.668828333e-01,5.75297e-01,9.99999e-01,9.99845e-01,5.75386e-01,9.99999e-01
4.692172475e-01,5.81513e-01,9.99999e-01,9.99674e-01,5.81702e-01,9.99999e-01
4.715633337e-01,5.87835e-01,9.99999e-01,9.99786e-01,5.87961e-01,9.99999e-01
4.739211504e-01,5.94041e-01,9.99999e-01,9.99796e-01,5.94161e-01,9.99999e-01
4.762907561e-01,6.00240e-01,9.99999e-01,9.99894e-01,6.00302e-01,9.99999e-01
4.786722099e-01,6.06358e-01,9.99999e-01,9.99956e-01,6.06384e-01,9.99999e-01
4.810655710e-01,6.12398e-01,9.99999e-01,9.99986e-01,6.12406e-01,9.99999e-01
4.834708988e-01,6.18287e-01,9.99999e-01,9.99871e-01,6.18366e-01,9.99999e-01
4.858882533e-01,6.24122e-01,9.99999e-01,9.99770e-01,6.24265e-01,9.99999e-01
4.883176946e-01,6.29980e-01,9.99999e-01,9.99805e-01,6.30102e-01,9.99999e-01
4.907592831e-01,6.35767e-01,9.99999e-01,9.99825e-01,6.35877e-01,9.99999e-01
4.932130795e-01,6.41510e-01,9.99999e-01,9.99876e-01,6.41589e-01,9.99999e-01
4.956791449e-01,6.47196e-01,9.99999e-01,9.99934e-01,6.47238e-01,9.99999e-01
4.981575406e-01,6.52609e-01,9.99999e-01,9.99670e-01,6.52824e-01,9.99999e-01
5.006483283e-01,6.57777e-01,9.99999e-01,9.99140e-01,6.58346e-01,9.99993e-01
5.031515699e-01,6.60917e-01,9.99999e-01,9.95694e-01,6.63805e-01,9.99954e-01
5.056673278e-01,6.67649e-01,9.99999e-01,9.97735e-01,6.69199e-01,9.99947e-01
5.081956644e-01,6.72583e-01,9.99999e-01,9.97145e-01,6.74530e-01,9.99968e-01
5.107366428e-01,6.78483e-01,9.99999e-01,9.98073e-01,6.79796e-01,9.99994e-01
5.132903260e-01,6.84246e-01,9.99999e-01,9.98901e-01,6.84999e-01,9.99998e-01
5.158567776e-01,6.89817e-01,9.99999e-01,9.99536e-01,6.90137e-01,9.99999e-01
5.184360615e-01,6.95082e-01,9.99999e-01,9.99813e-01,6.95211e-01,9.99999e-01
5.210282418e-01,7.00172e-01,9.99999e-01,9.99929e-01,7.00221e-01,9.99999e-01
5.236333830e-01,7.04968e-01,9.99999e-01,9.99719e-01,7.05167e-01,9.99997e-01
5.262515499e-01,7.09923e-01,9.99999e-01,9.99824e-01,7.10050e-01,9.99996e-01
5.288828077e-01,7.14752e-01,9.99999e-01,9.99837e-01,7.14869e-01,9.99997e-01
5.315272217e-01,7.19523e-01,9.99999e-01,9.99859e-01,7.19624e-01,9.99999e-01
5.341848578e-01,7.24248e-01,9.99999e-01,9.99906e-01,7.24316e-01,9.99999e-01
5.368557821e-01,7.28705e-01,9.99999e-01,9.99670e-01,7.28945e-01,9.99998e-01
5.395400610e-01,7.32626e-01,9.99999e-01,9.98803e-01,7.33512e-01,9.99988e-01
5.422377613e-01,7.36876e-01,9.99999e-01,9.98483e-01,7.38015e-01,9.99971e-01
5.449489501e-01,7.41379e-01,9.99999e-01,9.98575e-01,7.42457e-01,9.99970e-01
5.476736949e-01,7.45896e-01,9.99999e-01,9.98752e-01,7.46837e-01,9.99985e-01
5.504120634e-01,7.50473e-01,9.99999e-01,9.99093e-01,7.51156e-01,9.99995e-01
5.531641237e-01,7.55069e-01,9.99999e-01,9.99544e-01,7.55414e-01,9.99998e-01
5.559299443e-01,7.59444e-01,9.99999e-01,9.99779e-01,7.59610e-01,9.99999e-01
5.587095940e-01,7.63641e-01,9.99999e-01,9.99860e-01,7.63747e-01,9.99999e-01
5.615031420e-01,7.67705e-01,9.99999e-01,9.99845e-01,7.67824e-01,9.99999e-01
5.643106577e-01,7.71703e-01,9.99999e-01,9.99821e-01,7.71841e-01,9.99998e-01
5.671322110e-01,7.74098e-01,9.99999e-01,9.97825e-01,7.75800e-01,9.99980e-01
5.699678720e-01,7.77912e-01,9.99999e-01,9.97765e-01,7.79699e-01,9.99941e-01
5.728177114e-01,7.81654e-01,9.99999e-01,9.97638e-01,7.83541e-01,9.99951e-01
5.756818000e-01,7.85603e-01,9.99999e-01,9.97839e-01,7.87326e-01,9.99971e-01
5.785602090e-01,7.89561e-01,9.99999e-01,9.98121e-01,7.91053e-01,9.99991e-01
5.814530100e-01,7.93217e-01,9.99999e-01,9.98107e-01,7.94724e-01,9.99995e-01
5.843602750e-01,7.96512e-01,9.99999e-01,9.97723e-01,7.98339e-01,9.99986e-01
5.872820764e-01,7.86242e-01,9.99999e-01,9.80608e-01,8.01898e-01,9.99862e-01
5.902184868e-01,7.86388e-01,9.99999e-01,9.76753e-01,8.05403e-01,9.99627e-01
5.931695792e-01,7.95214e-01,9.99999e-01,9.83488e-01,8.08853e-01,9.99641e-01
5.961354271e-01,7.97420e-01,9.99999e-01,9.81943e-01,8.12250e-01,9.99793e-01
5.991161043e-01,8.04785e-01,9.99999e-01,9.86811e-01,8.15593e-01,9.99935e-01
6.021116848e-01,8.12742e-01,9.99999e-01,9.92507e-01,8.18883e-01,9.99992e-01
6.051222432e-01,8.19001e-01,9.99999e-01,9.96204e-01,8.22121e-01,9.99999e-01
6.081478544e-01,8.23955e-01,9.99999e-01,9.98359e-01,8.25308e-01,9.99999e-01
6.111885937e-01,8.27871e-01,9.99999e-01,9.99308e-01,8.28444e-01,9.99999e-01
6.142445367e-01,8.31272e-01,9.99999e-01,9.99689e-01,8.31530e-01,9.99999e-01
6.173157594e-01,8.34423e-01,9.99999e-01,9.99828e-01,8.34565e-01,9.99999e-01
6.204023382e-01,8.37430e-01,9.99999e-01,9.99853e-01,8.37552e-01,9.99999e-01
6.235043498e-01,8.39939e-01,9.99999e-01,9.99345e-01,8.40490e-01,9.99997e-01
6.266218716e-01,8.40502e-01,9.99999e-01,9.96611e-01,8.43380e-01,9.99975e-01
6.297549810e-01,8.45129e-01,9.99999e-01,9.98755e-01,8.46222e-01,9.99951e-01
6.329037559e-01,8.46907e-01,9.99999e-01,9.97551e-01,8.49017e-01,9.99961e-01
6.360682746e-01,8.49962e-01,9.99999e-01,9.97902e-01,8.51767e-01,9.99976e-01
6.392486160e-01,8.52147e-01,9.99999e-01,9.97290e-01,8.54470e-01,9.99989e-01
6.424448591e-01,8.53976e-01,9.99999e-01,9.96338e-01,8.57129e-01,9.99981e-01
6.456570834e-01,8.45148e-01,9.99999e-01,9.83123e-01,8.59743e-01,9.99897e-01
6.488853688e-01,8.51566e-01,9.99999e-01,9.87794e-01,8.62313e-01,9.99738e-01
6.521297956e-01,8.53907e-01,9.99999e-01,9.87571e-01,8.64840e-01,9.99784e-01
6.553904446e-01,8.56370e-01,9.99999e-01,9.87528e-01,8.67324e-01,9.99839e-01
6.586673968e-01,8.60480e-01,9.99999e-01,9.89375e-01,8.69766e-01,9.99945e-01
6.619607338e-01,8.66981e-01,9.99999e-01,9.94065e-01,8.72167e-01,9.99988e-01
6.652705375e-01,8.71403e-01,9.99999e-01,9.96434e-01,8.74526e-01,9.99993e-01
6.685968902e-01,8.75516e-01,9.99999e-01,9.98485e-01,8.76845e-01,9.99998e-01
6.719398746e-01,8.78450e-01,9.99999e-01,9.99232e-01,8.79124e-01,9.99999e-01
6.752995740e-01,8.81007e-01,9.99999e-01,9.99593e-01,8.81364e-01,9.99999e-01
6.786760719e-01,8.83027e-01,9.99999e-01,9.99390e-01,8.83565e-01,9.99998e-01
6.820694522e-01,8.84798e-01,9.99999e-01,9.98954e-01,8.85729e-01,9.99994e-01
6.854797995e-01,8.86657e-01,9.99999e-01,9.98663e-01,8.87854e-01,9.99988e-01
6.889071985e-01,8.86991e-01,9.99999e-01,9.96712e-01,8.89943e-01,9.99970e-01
6.923517345e-01,8.45713e-01,9.99999e-01,9.48353e-01,8.91995e-01,9.99747e-01
6.958134932e-01,8.69862e-01,9.99999e-01,9.73532e-01,8.94011e-01,9.99440e-01
6.992925606e-01,8.72351e-01,9.99999e-01,9.74106e-01,8.95991e-01,9.99495e-01
7.027890234e-01,8.69259e-01,9.99999e-01,9.68434e-01,8.97937e-01,9.99614e-01
7.063029686e-01,8.75687e-01,9.99999e-01,9.73335e-01,8.99848e-01,9.99808e-01
7.098344834e-01,8.78536e-01,9.99999e-01,9.74392e-01,9.01726e-01,9.99886e-01
7.133836558e-01,8.72316e-01,9.99999e-01,9.65627e-01,9.03570e-01,9.99774e-01
7.169505741e-01,6.88209e-01,9.99999e-01,7.61478e-01,9.05382e-01,9.98230e-01
7.205353270e-01,7.92866e-01,9.99999e-01,8.76742e-01,9.07161e-01,9.96879e-01
7.241380036e-01,7.64015e-01,9.99999e-01,8.42855e-01,9.08909e-01,9.97305e-01
7.277586936e-01,7.78978e-01,9.99999e-01,8.57320e-01,9.10625e-01,9.97796e-01
7.313974871e-01,7.73934e-01,9.99999e-01,8.49199e-01,9.12311e-01,9.98967e-01
7.350544745e-01,8.35139e-01,9.99999e-01,9.14080e-01,9.13966e-01,9.99640e-01
7.387297469e-01,8.56743e-01,9.99999e-01,9.35879e-01,9.15592e-01,9.99835e-01
7.424233956e-01,8.87936e-01,9.99999e-01,9.68134e-01,9.17188e-01,9.99970e-01
7.461355126e-01,9.00856e-01,9.99999e-01,9.80522e-01,9.18755e-01,9.99994e-01
7.498661902e-01,9.11933e-01,9.99999e-01,9.90916e-01,9.20294e-01,9.99997e-01
7.536155211e-01,9.17673e-01,9.99999e-01,9.95517e-01,9.21805e-01,9.99998e-01
7.573835987e-01,9.21158e-01,9.99999e-01,9.97691e-01,9.23289e-01,9.99999e-01
7.611705167e-01,9.23419e-01,9.99999e-01,9.98564e-01,9.24746e-01,9.99999e-01
7.649763693e-01,9.25342e-01,9.99999e-01,9.99098e-01,9.26176e-01,9.99999e-01
7.688012511e-01,9.26997e-01,9.99999e-01,9.99371e-01,9.27580e-01,9.99999e-01
7.726452574e-01,9.28477e-01,9.99999e-01,9.99481e-01,9.28958e-01,9.99999e-01
7.765084837e-01,9.29620e-01,9.99999e-01,9.99257e-01,9.30311e-01,9.99998e-01
7.803910261e-01,9.28644e-01,9.99999e-01,9.96786e-01,9.31640e-01,9.99996e-01
7.842929812e-01,9.22503e-01,9.99999e-01,9.88828e-01,9.32944e-01,9.99979e-01
7.882144461e-01,9.12919e-01,9.99999e-01,9.77348e-01,9.34224e-01,9.99842e-01
7.921555184e-01,9.23631e-01,9.99999e-01,9.87602e-01,9.35480e-01,9.99726e-01
7.961162960e-01,9.15763e-01,9.99999e-01,9.77887e-01,9.36713e-01,9.99740e-01
8.000968774e-01,9.13891e-01,9.99999e-01,9.74645e-01,9.37924e-01,9.99723e-01
8.040973618e-01,9.15072e-01,9.99999e-01,9.74606e-01,9.39112e-01,9.99788e-01
8.081178486e-01,8.86963e-01,9.99999e-01,9.43500e-01,9.40278e-01,9.99786e-01
8.121584379e-01,7.40783e-01,9.99999e-01,7.87512e-01,9.41422e-01,9.99191e-01
8.162192301e-01,7.11109e-01,9.99999e-01,7.56752e-01,9.42545e-01,9.96964e-01
8.203003262e-01,8.19697e-01,9.99999e-01,8.71744e-01,9.43647e-01,9.96446e-01
8.244018279e-01,7.84312e-01,9.99999e-01,8.32552e-01,9.44729e-01,9.97170e-01
8.285238370e-01,7.96671e-01,9.99999e-01,8.44208e-01,9.45791e-01,9.97777e-01
8.326664562e-01,7.98261e-01,9.99999e-01,8.43861e-01,9.46833e-01,9.99079e-01
8.368297885e-01,8.38677e-01,9.99999e-01,8.85001e-01,9.47855e-01,9.99789e-01
8.410139374e-01,8.82194e-01,9.99999e-01,9.29856e-01,9.48858e-01,9.99876e-01
8.452190071e-01,9.16492e-01,9.99999e-01,9.64958e-01,9.49842e-01,9.99926e-01
8.494451021e-01,9.31173e-01,9.99999e-01,9.79405e-01,9.50808e-01,9.99940e-01
8.536923276e-01,9.40131e-01,9.99999e-01,9.87820e-01,9.51756e-01,9.99963e-01
8.579607893e-01,9.45491e-01,9.99999e-01,9.92455e-01,9.52686e-01,9.99990e-01
8.622505932e-01,9.49035e-01,9.99999e-01,9.95214e-01,9.53599e-01,9.99998e-01
8.665618462e-01,9.51653e-01,9.99999e-01,9.97024e-01,9.54494e-01,9.99998e-01
8.708946554e-01,9.52108e-01,9.99999e-01,9.96584e-01,9.55372e-01,9.99997e-01
8.752491287e-01,9.51867e-01,9.99999e-01,9.95437e-01,9.56234e-01,9.99994e-01
8.796253743e-01,9.51001e-01,9.99999e-01,9.93661e-01,9.57080e-01,9.99985e-01
8.840235012e-01,9.50945e-01,9.99999e-01,9.92772e-01,9.57910e-01,9.99955e-01
8.884436187e-01,9.33202e-01,9.99999e-01,9.73500e-01,9.58724e-01,9.99874e-01
8.928858368e-01,7.29812e-01,9.99999e-01,7.61147e-01,9.59522e-01,9.99278e-01
8.973502660e-01,5.96181e-01,9.99999e-01,6.23124e-01,9.60306e-01,9.96308e-01
9.018370173e-01,7.52428e-01,9.99999e-01,7.87468e-01,9.61074e-01,9.94201e-01
9.063462024e-01,7.70811e-01,9.99999e-01,8.05505e-01,9.61828e-01,9.94904e-01
9.108779334e-01,6.85260e-01,9.99999e-01,7.15696e-01,9.62568e-01,9.94706e-01
9.154323231e-01,6.54753e-01,9.99999e-01,6.82690e-01,9.63293e-01,9.95622e-01
9.200094847e-01,7.15133e-01,9.99999e-01,7.43658e-01,9.64005e-01,9.97547e-01
9.246095321e-01,6.15473e-01,9.99999e-01,6.39799e-01,9.64704e-01,9.97174e-01
9.292325798e-01,7.33725e-02,9.99999e-01,7.70483e-02,9.65389e-01,9.86432e-01
9.338787427e-01,3.07379e-02,9.99999e-01,3.34282e-02,9.66060e-01,9.51822e-01
9.385481364e-01,2.28358e-01,9.99999e-01,2.49387e-01,9.66720e-01,9.47196e-01
9.432408771e-01,1.45088e-01,9.99999e-01,1.57168e-01,9.67366e-01,9.54276e-01
9.479570815e-01,6.78931e-02,9.99999e-01,7.28605e-02,9.68000e-01,9.62626e-01
9.526968669e-01,1.22700e-01,9.99999e-01,1.29652e-01,9.68622e-01,9.77035e-01
9.574603512e-01,1.35311e-01,9.99999e-01,1.41263e-01,9.69232e-01,9.88267e-01
9.622476530e-01,1.88550e-01,9.99999e-01,1.96008e-01,9.69831e-01,9.91872e-01
9.670588912e-01,3.70245e-01,9.99999e-01,3.83577e-01,9.70418e-01,9.94667e-01
9.718941857e-01,5.14377e-01,9.99999e-01,5.31916e-01,9.70994e-01,9.95913e-01
9.767536566e-01,5.72500e-01,9.99999e-01,5.91112e-01,9.71558e-01,9.96865e-01
9.816374249e-01,6.55876e-01,9.99999e-01,6.75424e-01,9.72112e-01,9.98913e-01
9.865456120e-01,7.59901e-01,9.99999e-01,7.81441e-01,9.72655e-01,9.99773e-01
9.914783401e-01,8.34873e-01,9.99999e-01,8.57927e-01,9.73188e-01,9.99936e-01
9.964357318e-01,8.95695e-01,9.99999e-01,9.19910e-01,9.73711e-01,9.99962e-01
1.001417910e+00,9.26606e-01,9.99999e-01,9.51176e-01,9.74223e-01,9.99943e-01
1.006425000e+00,9.47136e-01,9.99999e-01,9.71772e-01,9.74726e-01,9.99919e-01
1.011457125e+00,9.58027e-01,9.99999e-01,9.82443e-01,9.75219e-01,9.99925e-01
1.016514411e+00,9.63968e-01,9.99999e-01,9.88024e-01,9.75702e-01,9.99947e-01
1.021596983e+00,9.66793e-01,9.99999e-01,9.90438e-01,9.76176e-01,9.99948e-01
1.026704968e+00,9.69315e-01,9.99999e-01,9.92530e-01,9.76641e-01,9.99967e-01
1.031838492e+00,9.71793e-01,9.99999e-01,9.94579e-01,9.77098e-01,9.99989e-01
1.036997685e+00,9.74385e-01,9.99999e-01,9.96769e-01,9.77545e-01,9.99997e-01
1.042182673e+00,9.74199e-01,9.99999e-01,9.96130e-01,9.77983e-01,9.99998e-01
1.047393587e+00,9.73408e-01,9.99999e-01,9.94884e-01,9.78414e-01,9.99998e-01
1.052630555e+00,9.71957e-01,9.99999e-01,9.92974e-01,9.78835e-01,9.99997e-01
1.057893707e+00,9.67767e-01,9.99999e-01,9.88277e-01,9.79249e-01,9.99995e-01
1.063183176e+00,9.60852e-01,9.99999e-01,9.80815e-01,9.79655e-01,9.99989e-01
1.068499092e+00,9.48825e-01,9.99999e-01,9.68157e-01,9.80052e-01,9.99977e-01
1.073841587e+00,9.43952e-01,9.99999e-01,9.62826e-01,9.80443e-01,9.99951e-01
1.079210795e+00,9.34353e-01,9.99999e-01,9.52741e-01,9.80825e-01,9.99870e-01
1.084606849e+00,9.11560e-01,9.99999e-01,9.29313e-01,9.81200e-01,9.99688e-01
1.090029883e+00,8.82541e-01,9.99999e-01,8.99692e-01,9.81568e-01,9.99355e-01
1.095480033e+00,7.36437e-01,9.99999e-01,7.50864e-01,9.81929e-01,9.98834e-01
1.100957433e+00,4.80805e-01,9.99999e-01,4.90528e-01,9.82283e-01,9.97857e-01
1.106462220e+00,1.80051e-01,9.99999e-01,1.83901e-01,9.82630e-01,9.96367e-01
1.111994531e+00,3.18071e-02,9.99999e-01,3.26722e-02,9.82970e-01,9.90386e-01
1.117554504e+00,5.12720e-03,9.99999e-01,5.39930e-03,9.83303e-01,9.65727e-01
1.123142276e+00,2.80541e-02,9.99999e-01,3.09799e-02,9.83630e-01,9.20627e-01
1.128757988e+00,6.99487e-02,9.99999e-01,7.82267e-02,9.83951e-01,9.08762e-01
1.134401778e+00,3.47309e-02,9.99999e-01,3.82766e-02,9.84266e-01,9.21871e-01
1.140073787e+00,1.81517e-01,9.99999e-01,1.96742e-01,9.84574e-01,9.37070e-01
1.145774156e+00,4.55904e-02,9.99999e-01,4.91281e-02,9.84876e-01,9.42239e-01
1.151503026e+00,3.26966e-02,9.99999e-01,3.43071e-02,9.85173e-01,9.67399e-01
1.157260541e+00,4.30473e-02,9.99999e-01,4.41173e-02,9.85463e-01,9.90138e-01
1.163046844e+00,9.59694e-02,9.99999e-01,9.76306e-02,9.85749e-01,9.97194e-01
1.168862078e+00,1.81795e-01,9.99999e-01,1.84641e-01,9.86028e-01,9.98537e-01
1.174706389e+00,3.43788e-01,9.99999e-01,3.49266e-01,9.86302e-01,9.97986e-01
1.180579921e+00,5.14956e-01,9.99999e-01,5.23481e-01,9.86571e-01,9.97103e-01
1.186482820e+00,6.78639e-01,9.99999e-01,6.89742e-01,9.86834e-01,9.97027e-01
1.192415234e+00,7.91787e-01,9.99999e-01,8.03930e-01,9.87093e-01,9.97772e-01
1.198377311e+00,8.19547e-01,9.99999e-01,8.31808e-01,9.87346e-01,9.97886e-01
1.204369197e+00,8.29136e-01,9.99999e-01,8.41099e-01,9.87594e-01,9.98158e-01
1.210391043e+00,8.35730e-01,9.99999e-01,8.47000e-01,9.87838e-01,9.98841e-01
1.216442998e+00,8.57621e-01,9.99999e-01,8.68585e-01,9.88077e-01,9.99290e-01
1.222525213e+00,8.84818e-01,9.99999e-01,8.95677e-01,9.88311e-01,9.99558e-01
1.228637839e+00,9.15424e-01,9.99999e-01,9.26225e-01,9.88540e-01,9.99794e-01
1.234781029e+00,9.34108e-01,9.99999e-01,9.44776e-01,9.88765e-01,9.99941e-01
1.240954934e+00,9.54026e-01,9.99999e-01,9.64666e-01,9.88986e-01,9.99983e-01
1.247159708e+00,9.61883e-01,9.99999e-01,9.72392e-01,9.89202e-01,9.99989e-01
1.253395507e+00,9.65069e-01,9.99999e-01,9.75407e-01,9.89415e-01,9.99985e-01
1.259662485e+00,9.66404e-01,9.99999e-01,9.76558e-01,9.89622e-01,9.99977e-01
1.265960797e+00,9.53100e-01,9.99999e-01,9.62930e-01,9.89826e-01,9.99963e-01
1.272290601e+00,9.32750e-01,9.99999e-01,9.42207e-01,9.90026e-01,9.99934e-01
1.278652054e+00,8.80123e-01,9.99999e-01,8.88915e-01,9.90222e-01,9.99885e-01
1.285045314e+00,8.00622e-01,9.99999e-01,8.08543e-01,9.90415e-01,9.99785e-01
1.291470541e+00,6.84472e-01,9.99999e-01,6.91223e-01,9.90603e-01,9.99624e-01
1.297927893e+00,5.88244e-01,9.99999e-01,5.94128e-01,9.90788e-01,9.99300e-01
1.304417533e+00,5.39643e-01,9.99999e-01,5.45368e-01,9.90969e-01,9.98518e-01
1.310939621e+00,4.59927e-01,9.99999e-01,4.65450e-01,9.91146e-01,9.96960e-01
1.317494319e+00,4.66879e-01,9.99999e-01,4.73625e-01,9.91320e-01,9.94384e-01
1.324081790e+00,3.30106e-01,9.99999e-01,3.36014e-01,9.91491e-01,9.90848e-01
1.330702199e+00,5.63461e-02,9.99999e-01,5.77279e-02,9.91659e-01,9.84272e-01
1.337355710e+00,6.96258e-05,9.99999e-01,7.23759e-05,9.91823e-01,9.69932e-01
1.344042489e+00,1.97148e-10,9.99999e-01,2.17882e-10,9.91983e-01,9.12148e-01
1.350762701e+00,1.50757e-21,9.99999e-01,2.08175e-21,9.92141e-01,7.29917e-01
1.357516515e+00,1.85977e-32,9.99999e-01,4.72150e-32,9.92296e-01,3.96952e-01
1.364304097e+00,3.07652e-20,9.99999e-01,1.56528e-19,9.92447e-01,1.98042e-01
1.371125618e+00,1.59669e-12,9.99999e-01,7.40395e-12,9.92596e-01,2.17262e-01
1.377981246e+00,5.94729e-12,9.99999e-01,2.21725e-11,9.92742e-01,2.70188e-01
1.384871152e+00,9.33006e-17,9.99999e-01,3.18105e-16,9.92885e-01,2.95403e-01
1.391795508e+00,2.46306e-20,9.99999e-01,7.93092e-20,9.93025e-01,3.12745e-01
1.398754485e+00,1.17664e-15,9.99999e-01,3.09468e-15,9.93162e-01,3.82831e-01
1.405748258e+00,1.82378e-15,9.99999e-01,3.21858e-15,9.93296e-01,5.70464e-01
1.412776999e+00,5.74755e-15,9.99999e-01,7.47558e-15,9.93428e-01,7.73928e-01
1.419840884e+00,1.00289e-14,9.99998e-01,1.12943e-14,9.93558e-01,8.93714e-01
1.426940089e+00,5.96359e-10,9.99998e-01,6.53633e-10,9.93685e-01,9.18172e-01
1.434074789e+00,9.56765e-09,9.99998e-01,1.06476e-08,9.93809e-01,9.04169e-01
1.441245163e+00,2.67433e-07,9.99999e-01,3.00086e-07,9.93931e-01,8.96626e-01
1.448451389e+00,4.08980e-05,9.99998e-01,4.52674e-05,9.94050e-01,9.08881e-01
1.455693646e+00,1.03810e-03,9.99998e-01,1.12477e-03,9.94167e-01,9.28355e-01
1.462972114e+00,1.46679e-03,9.99999e-01,1.58361e-03,9.94282e-01,9.31554e-01
1.470286975e+00,6.07458e-04,9.99999e-01,6.54974e-04,9.94395e-01,9.32679e-01
