#,Wave/freq,Total,N2,H2O,Rayleigh,CIA
4.000000000e-01,7.77566e-01,9.99999e-01,9.99971e-01,7.77588e-01,9.99999e-01
4.020000000e-01,7.81452e-01,9.99999e-01,9.99982e-01,7.81466e-01,9.99999e-01
4.040100000e-01,7.85275e-01,9.99999e-01,9.99992e-01,7.85281e-01,9.99999e-01
4.060300500e-01,7.89038e-01,9.99999e-01,9.99997e-01,7.89039e-01,9.99999e-01
4.080602003e-01,7.92740e-01,9.99999e-01,9.99998e-01,7.92741e-01,9.99999e-01
4.101005013e-01,7.96386e-01,9.99999e-01,9.99999e-01,7.96386e-01,9.99999e-01
4.121510038e-01,7.99975e-01,9.99999e-01,9.99998e-01,7.99975e-01,9.99999e-01
4.142117588e-01,8.03503e-01,9.99999e-01,9.99991e-01,8.03510e-01,9.99999e-01
4.162828176e-01,8.06961e-01,9.99999e-01,9.99964e-01,8.06989e-01,9.99999e-01
4.183642317e-01,8.10398e-01,9.99999e-01,9.99978e-01,8.10415e-01,9.99999e-01
4.204560528e-01,8.13776e-01,9.99999e-01,9.99986e-01,8.13787e-01,9.99999e-01
4.225583331e-01,8.17102e-01,9.99999e-01,9.99994e-01,8.17106e-01,9.99999e-01
4.246711247e-01,8.20369e-01,9.99999e-01,9.99995e-01,8.20372e-01,9.99999e-01
4.267944804e-01,8.23582e-01,9.99999e-01,9.99993e-01,8.23587e-01,9.99999e-01
4.289284528e-01,8.26747e-01,9.99999e-01,9.99995e-01,8.26750e-01,9.99999e-01
4.310730950e-01,8.29861e-01,9.99999e-01,9.99997e-01,8.29863e-01,9.99999e-01
4.332284605e-01,8.32925e-01,9.99999e-01,9.99999e-01,8.32926e-01,9.99999e-01
4.353946028e-01,8.35939e-01,9.99999e-01,9.99999e-01,8.35939e-01,9.99999e-01
4.375715758e-01,8.38900e-01,9.99999e-01,9.99995e-01,8.38903e-01,9.99999e-01
4.397594337e-01,8.41792e-01,9.99999e-01,9.99968e-01,8.41819e-01,9.99999e-01
4.419582309e-01,8.44552e-01,9.99999e-01,9.99840e-01,8.44687e-01,9.99999e-01
4.441680220e-01,8.47405e-01,9.99999e-01,9.99878e-01,8.47508e-01,9.99999e-01
4.463888621e-01,8.50174e-01,9.99999e-01,9.99872e-01,8.50282e-01,9.99999e-01
4.486208064e-01,8.52943e-01,9.99999e-01,9.99920e-01,8.53010e-01,9.99999e-01
4.508639105e-01,8.55662e-01,9.99999e-01,9.99962e-01,8.55693e-01,9.99999e-01
4.531182300e-01,8.58319e-01,9.99999e-01,9.99985e-01,8.58331e-01,9.99999e-01
4.553838212e-01,8.60917e-01,9.99999e-01,9.99989e-01,8.60925e-01,9.99999e-01
4.576607403e-01,8.63471e-01,9.99999e-01,9.99994e-01,8.63475e-01,9.99999e-01
4.599490440e-01,8.65980e-01,9.99999e-01,9.99996e-01,8.65983e-01,9.99999e-01
4.622487892e-01,8.68447e-01,9.99999e-01,9.99998e-01,8.68447e-01,9.99999e-01
4.645600332e-01,8.70868e-01,9.99999e-01,9.99997e-01,8.70870e-01,9.99999e-01
4.668828333e-01,8.73219e-01,9.99999e-01,9.99961e-01,8.73252e-01,9.99999e-01
4.692172475e-01,8.75523e-01,9.99999e-01,9.99919e-01,8.75593e-01,9.99999e-01
4.715633337e-01,8.77848e-01,9.99999e-01,9.99947e-01,8.77894e-01,9.99999e-01
4.739211504e-01,8.80111e-01,9.99999e-01,9.99949e-01,8.80155e-01,9.99999e-01
4.762907561e-01,8.82354e-01,9.99999e-01,9.99973e-01,8.82377e-01,9.99999e-01
4.786722099e-01,8.84551e-01,9.99999e-01,9.99988e-01,8.84561e-01,9.99999e-01
4.810655710e-01,8.86703e-01,9.99999e-01,9.99996e-01,8.86706e-01,9.99999e-01
4.834708988e-01,8.88787e-01,9.99999e-01,9.99968e-01,8.88815e-01,9.99999e-01
4.858882533e-01,8.90836e-01,9.99999e-01,9.99943e-01,8.90886e-01,9.99999e-01
4.883176946e-01,8.92880e-01,9.99999e-01,9.99952e-01,8.92922e-01,9.99999e-01
4.907592831e-01,8.94884e-01,9.99999e-01,9.99956e-01,8.94922e-01,9.99999e-01
4.932130795e-01,8.96859e-01,9.99999e-01,9.99969e-01,8.96886e-01,9.99999e-01
4.956791449e-01,8.98802e-01,9.99999e-01,9.99983e-01,8.98816e-01,9.99999e-01
4.981575406e-01,9.00640e-01,9.99999e-01,9.99918e-01,9.00712e-01,9.99999e-01
5.006483283e-01,9.02383e-01,9.99999e-01,9.99788e-01,9.02575e-01,9.99998e-01
5.031515699e-01,9.03437e-01,9.99999e-01,9.98941e-01,9.04404e-01,9.99988e-01
5.056673278e-01,9.05685e-01,9.99999e-01,9.99443e-01,9.06201e-01,9.99986e-01
5.081956644e-01,9.07322e-01,9.99999e-01,9.99298e-01,9.07965e-01,9.99991e-01
5.107366428e-01,9.09267e-01,9.99999e-01,9.99526e-01,9.09698e-01,9.99998e-01
5.132903260e-01,9.11155e-01,9.99999e-01,9.99729e-01,9.11401e-01,9.99999e-01
5.158567776e-01,9.12968e-01,9.99999e-01,9.99885e-01,9.13072e-01,9.99999e-01
5.184360615e-01,9.14672e-01,9.99999e-01,9.99953e-01,9.14714e-01,9.99999e-01
5.210282418e-01,9.16310e-01,9.99999e-01,9.99982e-01,9.16326e-01,9.99999e-01
5.236333830e-01,9.17845e-01,9.99999e-01,9.99930e-01,9.17909e-01,9.99999e-01
5.262515499e-01,9.19423e-01,9.99999e-01,9.99956e-01,9.19463e-01,9.99998e-01
5.288828077e-01,9.20953e-01,9.99999e-01,9.99959e-01,9.20989e-01,9.99999e-01
5.315272217e-01,9.22456e-01,9.99999e-01,9.99965e-01,9.22488e-01,9.99999e-01
5.341848578e-01,9.23938e-01,9.99999e-01,9.99976e-01,9.23959e-01,9.99999e-01
5.368557821e-01,9.25329e-01,9.99999e-01,9.99918e-01,9.25404e-01,9.99999e-01
5.395400610e-01,9.26548e-01,9.99999e-01,9.99706e-01,9.26822e-01,9.99996e-01
5.422377613e-01,9.27862e-01,9.99999e-01,9.99627e-01,9.28214e-01,9.99992e-01
5.449489501e-01,9.29250e-01,9.99999e-01,9.99650e-01,9.29581e-01,9.99992e-01
5.476736949e-01,9.30634e-01,9.99999e-01,9.99693e-01,9.30923e-01,9.99996e-01
5.504120634e-01,9.32032e-01,9.99999e-01,9.99777e-01,9.32240e-01,9.99998e-01
5.531641237e-01,9.33428e-01,9.99999e-01,9.99887e-01,9.33533e-01,9.99999e-01
5.559299443e-01,9.34751e-01,9.99999e-01,9.99945e-01,9.34802e-01,9.99999e-01
5.587095940e-01,9.36016e-01,9.99999e-01,9.99965e-01,9.36047e-01,9.99999e-01
5.615031420e-01,9.37235e-01,9.99999e-01,9.99961e-01,9.37270e-01,9.99999e-01
5.643106577e-01,9.38429e-01,9.99999e-01,9.99955e-01,9.38470e-01,9.99999e-01
5.671322110e-01,9.39143e-01,9.99999e-01,9.99466e-01,9.39648e-01,9.99994e-01
5.699678720e-01,9.40274e-01,9.99999e-01,9.99450e-01,9.40804e-01,9.99985e-01
5.728177114e-01,9.41382e-01,9.99999e-01,9.99420e-01,9.41939e-01,9.99987e-01
5.756818000e-01,9.42546e-01,9.99999e-01,9.99469e-01,9.43052e-01,9.99992e-01
5.785602090e-01,9.43708e-01,9.99999e-01,9.99538e-01,9.44145e-01,9.99997e-01
5.814530100e-01,9.44778e-01,9.99999e-01,9.99535e-01,9.45218e-01,9.99998e-01
5.843602750e-01,9.45739e-01,9.99999e-01,9.99441e-01,9.46270e-01,9.99996e-01
5.872820764e-01,9.42722e-01,9.99999e-01,9.95197e-01,9.47303e-01,9.99966e-01
5.902184868e-01,9.42770e-01,9.99999e-01,9.94241e-01,9.48316e-01,9.99908e-01
5.931695792e-01,9.45351e-01,9.99999e-01,9.95915e-01,9.49311e-01,9.99911e-01
5.961354271e-01,9.45996e-01,9.99999e-01,9.95534e-01,9.50287e-01,9.99949e-01
5.991161043e-01,9.48135e-01,9.99999e-01,9.96746e-01,9.51244e-01,9.99983e-01
6.021116848e-01,9.50426e-01,9.99999e-01,9.98155e-01,9.52184e-01,9.99997e-01
6.051222432e-01,9.52217e-01,9.99999e-01,9.99066e-01,9.53106e-01,9.99999e-01
6.081478544e-01,9.53626e-01,9.99999e-01,9.99596e-01,9.54011e-01,9.99999e-01
6.111885937e-01,9.54736e-01,9.99999e-01,9.99829e-01,9.54898e-01,9.99999e-01
6.142445367e-01,9.55696e-01,9.99999e-01,9.99923e-01,9.55769e-01,9.99999e-01
6.173157594e-01,9.56583e-01,9.99999e-01,9.99957e-01,9.56624e-01,9.99999e-01
6.204023382e-01,9.57428e-01,9.99999e-01,9.99963e-01,9.57462e-01,9.99999e-01
6.235043498e-01,9.58131e-01,9.99999e-01,9.99839e-01,9.58284e-01,9.99999e-01
6.266218716e-01,9.58288e-01,9.99999e-01,9.99167e-01,9.59091e-01,9.99993e-01
6.297549810e-01,9.59579e-01,9.99999e-01,9.99694e-01,9.59883e-01,9.99987e-01
6.329037559e-01,9.60073e-01,9.99999e-01,9.99398e-01,9.60659e-01,9.99990e-01
6.360682746e-01,9.60921e-01,9.99999e-01,9.99485e-01,9.61421e-01,9.99993e-01
6.392486160e-01,9.61526e-01,9.99999e-01,9.99334e-01,9.62169e-01,9.99997e-01
6.424448591e-01,9.62033e-01,9.99999e-01,9.99101e-01,9.62902e-01,9.99995e-01
6.456570834e-01,9.59582e-01,9.99999e-01,9.95832e-01,9.63621e-01,9.99974e-01
6.488853688e-01,9.61359e-01,9.99999e-01,9.96985e-01,9.64327e-01,9.99935e-01
6.521297956e-01,9.62004e-01,9.99999e-01,9.96927e-01,9.65019e-01,9.99946e-01
6.553904446e-01,9.62691e-01,9.99999e-01,9.96925e-01,9.65698e-01,9.99960e-01
6.586673968e-01,9.63819e-01,9.99999e-01,9.97379e-01,9.66364e-01,9.99986e-01
6.619607338e-01,9.65603e-01,9.99999e-01,9.98539e-01,9.67017e-01,9.99996e-01
6.652705375e-01,9.66809e-01,9.99999e-01,9.99123e-01,9.67658e-01,9.99998e-01
6.685968902e-01,9.67926e-01,9.99999e-01,9.99627e-01,9.68286e-01,9.99999e-01
6.719398746e-01,9.68721e-01,9.99999e-01,9.99811e-01,9.68903e-01,9.99999e-01
6.752995740e-01,9.69411e-01,9.99999e-01,9.99899e-01,9.69508e-01,9.99999e-01
6.786760719e-01,9.69956e-01,9.99999e-01,9.99850e-01,9.70101e-01,9.99999e-01
6.820694522e-01,9.70433e-01,9.99999e-01,9.99743e-01,9.70683e-01,9.99998e-01
6.854797995e-01,9.70932e-01,9.99999e-01,9.99671e-01,9.71253e-01,9.99996e-01
6.889071985e-01,9.71023e-01,9.99999e-01,9.99192e-01,9.71813e-01,9.99992e-01
6.923517345e-01,9.59691e-01,9.99999e-01,9.87029e-01,9.72362e-01,9.99937e-01
6.958134932e-01,9.66341e-01,9.99999e-01,9.93393e-01,9.72901e-01,9.99862e-01
6.992925606e-01,9.67056e-01,9.99999e-01,9.93575e-01,9.73429e-01,9.99875e-01
7.027890234e-01,9.66205e-01,9.99999e-01,9.92144e-01,9.73947e-01,9.99905e-01
7.063029686e-01,9.67964e-01,9.99999e-01,9.93385e-01,9.74455e-01,9.99952e-01
7.098344834e-01,9.68738e-01,9.99999e-01,9.93653e-01,9.74953e-01,9.99971e-01
7.133836558e-01,9.67030e-01,9.99999e-01,9.91431e-01,9.75441e-01,9.99944e-01
7.169505741e-01,9.10688e-01,9.99999e-01,9.33563e-01,9.75921e-01,9.99565e-01
7.205353270e-01,9.44021e-01,9.99999e-01,9.67589e-01,9.76390e-01,9.99233e-01
7.241380036e-01,9.35469e-01,9.99999e-01,9.58270e-01,9.76851e-01,9.99337e-01
7.277586936e-01,9.39963e-01,9.99999e-01,9.62312e-01,9.77303e-01,9.99458e-01
7.313974871e-01,9.38641e-01,9.99999e-01,9.60247e-01,9.77747e-01,9.99746e-01
7.350544745e-01,9.56625e-01,9.99999e-01,9.78048e-01,9.78181e-01,9.99911e-01
7.387297469e-01,9.62730e-01,9.99999e-01,9.83814e-01,9.78608e-01,9.99959e-01
7.424233956e-01,9.71256e-01,9.99999e-01,9.92069e-01,9.79026e-01,9.99992e-01
7.461355126e-01,9.74714e-01,9.99999e-01,9.95179e-01,9.79436e-01,9.99998e-01
7.498661902e-01,9.77644e-01,9.99999e-01,9.97760e-01,9.79838e-01,9.99999e-01
7.536155211e-01,9.79151e-01,9.99999e-01,9.98897e-01,9.80232e-01,9.99999e-01
7.573835987e-01,9.80063e-01,9.99999e-01,9.99432e-01,9.80619e-01,9.99999e-01
7.611705167e-01,9.80652e-01,9.99999e-01,9.99647e-01,9.80998e-01,9.99999e-01
7.649763693e-01,9.81153e-01,9.99999e-01,9.99778e-01,9.81370e-01,9.99999e-01
7.688012511e-01,9.81583e-01,9.99999e-01,9.99845e-01,9.81734e-01,9.99999e-01
7.726452574e-01,9.81967e-01,9.99999e-01,9.99872e-01,9.82092e-01,9.99999e-01
7.765084837e-01,9.82263e-01,9.99999e-01,9.99817e-01,9.82442e-01,9.99999e-01
7.803910261e-01,9.82011e-01,9.99999e-01,9.99211e-01,9.82786e-01,9.99998e-01
7.842929812e-01,9.80413e-01,9.99999e-01,9.97248e-01,9.83123e-01,9.99994e-01
7.882144461e-01,9.77900e-01,9.99999e-01,9.94390e-01,9.83454e-01,9.99961e-01
7.921555184e-01,9.80701e-01,9.99999e-01,9.96938e-01,9.83778e-01,9.99932e-01
7.961162960e-01,9.78646e-01,9.99999e-01,9.94524e-01,9.84096e-01,9.99935e-01
8.000968774e-01,9.78158e-01,9.99999e-01,9.93718e-01,9.84407e-01,9.99931e-01
8.040973618e-01,9.78466e-01,9.99999e-01,9.93706e-01,9.84713e-01,9.99947e-01
8.081178486e-01,9.70945e-01,9.99999e-01,9.85769e-01,9.85013e-01,9.99947e-01
8.121584379e-01,9.28083e-01,9.99999e-01,9.42109e-01,9.85307e-01,9.99801e-01
8.162192301e-01,9.18280e-01,9.99999e-01,9.32395e-01,9.85595e-01,9.99253e-01
8.203003262e-01,9.50683e-01,9.99999e-01,9.65143e-01,9.85877e-01,9.99126e-01
8.244018279e-01,9.39135e-01,9.99999e-01,9.52982e-01,9.86154e-01,9.99304e-01
8.285238370e-01,9.45265e-01,9.99999e-01,9.58795e-01,9.86426e-01,9.99453e-01
8.326664562e-01,9.45583e-01,9.99999e-01,9.58552e-01,9.86692e-01,9.99773e-01
8.368297885e-01,9.57564e-01,9.99999e-01,9.70271e-01,9.86953e-01,9.99947e-01
8.410139374e-01,9.69649e-01,9.99999e-01,9.82241e-01,9.87209e-01,9.99969e-01
8.452190071e-01,9.78821e-01,9.99999e-01,9.91267e-01,9.87460e-01,9.99981e-01
8.494451021e-01,9.82660e-01,9.99999e-01,9.94904e-01,9.87706e-01,9.99985e-01
8.536923276e-01,9.84971e-01,9.99999e-01,9.96995e-01,9.87948e-01,9.99990e-01
8.579607893e-01,9.86348e-01,9.99999e-01,9.98142e-01,9.88184e-01,9.99997e-01
8.622505932e-01,9.87253e-01,9.99999e-01,9.98822e-01,9.88416e-01,9.99999e-01
8.665618462e-01,9.87921e-01,9.99999e-01,9.99268e-01,9.88644e-01,9.99999e-01
8.708946554e-01,9.88037e-01,9.99999e-01,9.99160e-01,9.88867e-01,9.99999e-01
8.752491287e-01,9.87976e-01,9.99999e-01,9.98878e-01,9.89086e-01,9.99998e-01
8.796253743e-01,9.87755e-01,9.99999e-01,9.98441e-01,9.89300e-01,9.99996e-01
8.840235012e-01,9.87740e-01,9.99999e-01,9.98221e-01,9.89510e-01,9.99988e-01
8.884436187e-01,9.83148e-01,9.99999e-01,9.93393e-01,9.89716e-01,9.99968e-01
8.928858368e-01,9.23915e-01,9.99999e-01,9.33489e-01,9.89918e-01,9.99822e-01
8.973502660e-01,8.76972e-01,9.99999e-01,8.86529e-01,9.90117e-01,9.99092e-01
9.018370173e-01,9.30456e-01,9.99999e-01,9.40900e-01,9.90311e-01,9.98573e-01
9.063462024e-01,9.36667e-01,9.99999e-01,9.46834e-01,9.90501e-01,9.98747e-01
9.108779334e-01,9.09046e-01,9.99999e-01,9.18785e-01,9.90688e-01,9.98698e-01
9.154323231e-01,8.99162e-01,9.99999e-01,9.08422e-01,9.90871e-01,9.98923e-01
9.200094847e-01,9.18910e-01,9.99999e-01,9.27766e-01,9.91051e-01,9.99397e-01
9.246095321e-01,8.79177e-01,9.99999e-01,8.87574e-01,9.91227e-01,9.99305e-01
9.292325798e-01,4.54229e-01,9.99999e-01,4.59708e-01,9.91399e-01,9.96653e-01
9.338787427e-01,3.64200e-01,9.99999e-01,3.71773e-01,9.91568e-01,9.87958e-01
9.385481364e-01,6.56227e-01,9.99999e-01,6.70562e-01,9.91734e-01,9.86777e-01
9.432408771e-01,5.62375e-01,9.99999e-01,5.73516e-01,9.91897e-01,9.88582e-01
9.479570815e-01,4.59038e-01,9.99999e-01,4.67057e-01,9.92056e-01,9.90697e-01
9.526968669e-01,5.55974e-01,9.99999e-01,5.63540e-01,9.92212e-01,9.94315e-01
9.574603512e-01,5.79282e-01,9.99999e-01,5.85430e-01,9.92366e-01,9.97108e-01
9.622476530e-01,6.40369e-01,9.99999e-01,6.46490e-01,9.92516e-01,9.97999e-01
9.670588912e-01,7.70150e-01,9.99999e-01,7.76904e-01,9.92663e-01,9.98631e-01
9.718941857e-01,8.46094e-01,9.99999e-01,8.53082e-01,9.92807e-01,9.98992e-01
9.767536566e-01,8.69498e-01,9.99999e-01,8.76346e-01,9.92949e-01,9.99229e-01
9.816374249e-01,9.00489e-01,9.99999e-01,9.06998e-01,9.93088e-01,9.99733e-01
9.865456120e-01,9.34404e-01,9.99999e-01,9.40830e-01,9.93224e-01,9.99944e-01
9.914783401e-01,9.56561e-01,9.99999e-01,9.62972e-01,9.93357e-01,9.99984e-01
9.964357318e-01,9.73282e-01,9.99999e-01,9.79669e-01,9.93488e-01,9.99990e-01
1.001417910e+00,9.81455e-01,9.99999e-01,9.87773e-01,9.93616e-01,9.99985e-01
1.006425000e+00,9.86763e-01,9.99999e-01,9.92995e-01,9.93742e-01,9.99979e-01
1.011457125e+00,9.89534e-01,9.99999e-01,9.95659e-01,9.93865e-01,9.99981e-01
1.016514411e+00,9.91038e-01,9.99999e-01,9.97047e-01,9.93986e-01,9.99986e-01
1.021596983e+00,9.91751e-01,9.99999e-01,9.97644e-01,9.94104e-01,9.99986e-01
1.026704968e+00,9.92385e-01,9.99999e-01,9.98161e-01,9.94220e-01,9.99991e-01
1.031838492e+00,9.93006e-01,9.99999e-01,9.98666e-01,9.94334e-01,9.99997e-01
1.036997685e+00,9.93656e-01,9.99999e-01,9.99205e-01,9.94446e-01,9.99999e-01
1.042182673e+00,9.93610e-01,9.99999e-01,9.99049e-01,9.94555e-01,9.99999e-01
1.047393587e+00,9.93412e-01,9.99999e-01,9.98742e-01,9.94662e-01,9.99999e-01
1.052630555e+00,9.93048e-01,9.99999e-01,9.98271e-01,9.94768e-01,9.99999e-01
1.057893707e+00,9.91996e-01,9.99999e-01,9.97111e-01,9.94871e-01,9.99998e-01
1.063183176e+00,9.90249e-01,9.99999e-01,9.95255e-01,9.94972e-01,9.99997e-01
1.068499092e+00,9.87184e-01,9.99999e-01,9.92078e-01,9.95071e-01,9.99994e-01
1.073841587e+00,9.85917e-01,9.99999e-01,9.90715e-01,9.95168e-01,9.99987e-01
1.079210795e+00,9.83449e-01,9.99999e-01,9.88160e-01,9.95263e-01,9.99967e-01
1.084606849e+00,9.77460e-01,9.99999e-01,9.82094e-01,9.95356e-01,9.99923e-01
1.090029883e+00,9.69614e-01,9.99999e-01,9.74201e-01,9.95448e-01,9.99841e-01
1.095480033e+00,9.27007e-01,9.99999e-01,9.31427e-01,9.95538e-01,9.99713e-01
1.100957433e+00,8.31084e-01,9.99999e-01,8.35174e-01,9.95625e-01,9.99473e-01
1.106462220e+00,6.31328e-01,9.99999e-01,6.34613e-01,9.95712e-01,9.99107e-01
1.111994531e+00,3.86869e-01,9.99999e-01,3.89424e-01,9.95796e-01,9.97632e-01
1.117554504e+00,2.18044e-01,9.99999e-01,2.20827e-01,9.95879e-01,9.91479e-01
1.123142276e+00,3.31616e-01,9.99999e-01,3.39785e-01,9.95960e-01,9.79913e-01
1.128757988e+00,4.77840e-01,9.99999e-01,4.91133e-01,9.96040e-01,9.76800e-01
1.134401778e+00,2.49071e-01,9.99999e-01,2.55082e-01,9.96118e-01,9.80238e-01
1.140073787e+00,6.36975e-01,9.99999e-01,6.49686e-01,9.96194e-01,9.84179e-01
1.145774156e+00,4.06893e-01,9.99999e-01,4.14421e-01,9.96269e-01,9.85508e-01
1.151503026e+00,3.72120e-01,9.99999e-01,3.76535e-01,9.96343e-01,9.91900e-01
1.157260541e+00,4.32302e-01,9.99999e-01,4.34913e-01,9.96415e-01,9.97571e-01
1.163046844e+00,5.37805e-01,9.99999e-01,5.40074e-01,9.96486e-01,9.99310e-01
1.168862078e+00,6.47274e-01,9.99999e-01,6.49742e-01,9.96555e-01,9.99644e-01
1.174706389e+00,7.63239e-01,9.99999e-01,7.66185e-01,9.96623e-01,9.99529e-01
1.180579921e+00,8.46764e-01,9.99999e-01,8.50180e-01,9.96689e-01,9.99288e-01
1.186482820e+00,9.08555e-01,9.99999e-01,9.12178e-01,9.96755e-01,9.99269e-01
1.192415234e+00,9.44168e-01,9.99999e-01,9.47699e-01,9.96819e-01,9.99452e-01
1.198377311e+00,9.52180e-01,9.99999e-01,9.55653e-01,9.96881e-01,9.99480e-01
1.204369197e+00,9.54688e-01,9.99999e-01,9.58048e-01,9.96943e-01,9.99547e-01
1.210391043e+00,9.56694e-01,9.99999e-01,9.59842e-01,9.97003e-01,9.99715e-01
1.216442998e+00,9.62812e-01,9.99999e-01,9.65816e-01,9.97062e-01,9.99825e-01
1.222525213e+00,9.70348e-01,9.99999e-01,9.73255e-01,9.97120e-01,9.99891e-01
1.228637839e+00,9.78521e-01,9.99999e-01,9.81339e-01,9.97177e-01,9.99949e-01
1.234781029e+00,9.83388e-01,9.99999e-01,9.86130e-01,9.97233e-01,9.99985e-01
1.240954934e+00,9.88507e-01,9.99999e-01,9.91199e-01,9.97287e-01,9.99995e-01
1.247159708e+00,9.90505e-01,9.99999e-01,9.93147e-01,9.97341e-01,9.99996e-01
1.253395507e+00,9.91311e-01,9.99999e-01,9.93904e-01,9.97393e-01,9.99996e-01
1.259662485e+00,9.91649e-01,9.99999e-01,9.94194e-01,9.97445e-01,9.99994e-01
1.265960797e+00,9.88271e-01,9.99999e-01,9.90761e-01,9.97495e-01,9.99990e-01
1.272290601e+00,9.83033e-01,9.99999e-01,9.85468e-01,9.97544e-01,9.99983e-01
1.278652054e+00,9.68966e-01,9.99999e-01,9.71330e-01,9.97593e-01,9.99971e-01
1.285045314e+00,9.46271e-01,9.99999e-01,9.48558e-01,9.97640e-01,9.99947e-01
1.291470541e+00,9.09900e-01,9.99999e-01,9.12092e-01,9.97687e-01,9.99907e-01
1.297927893e+00,8.75264e-01,9.99999e-01,8.77403e-01,9.97732e-01,9.99827e-01
1.304417533e+00,8.55346e-01,9.99999e-01,8.57562e-01,9.97777e-01,9.99635e-01
1.310939621e+00,8.21020e-01,9.99999e-01,8.23427e-01,9.97821e-01,9.99253e-01
1.317494319e+00,8.23710e-01,9.99999e-01,8.26614e-01,9.97864e-01,9.98619e-01
1.324081790e+00,7.52052e-01,9.99999e-01,7.55331e-01,9.97906e-01,9.97746e-01
1.330702199e+00,3.45319e-01,9.99999e-01,3.47377e-01,9.97947e-01,9.96117e-01
1.337355710e+00,6.19287e-02,9.99999e-01,6.25201e-02,9.97988e-01,9.92537e-01
1.344042489e+00,2.50404e-03,9.99999e-01,2.56623e-03,9.98028e-01,9.77691e-01
1.350762701e+00,1.12879e-06,9.99999e-01,1.22179e-06,9.98066e-01,9.25666e-01
1.357516515e+00,2.32431e-09,9.99999e-01,2.92123e-09,9.98105e-01,7.97170e-01
1.364304097e+00,2.92136e-06,9.99999e-01,4.35443e-06,9.98142e-01,6.72141e-01
1.371125618e+00,1.94666e-04,9.99999e-01,2.83629e-04,9.98179e-01,6.87590e-01
1.377981246e+00,5.78365e-04,9.99999e-01,7.98762e-04,9.98215e-01,7.25371e-01
1.384871152e+00,8.77768e-06,9.99999e-01,1.18597e-05,9.98250e-01,7.41425e-01
1.391795508e+00,4.02211e-06,9.99999e-01,5.35862e-06,9.98284e-01,7.51875e-01
1.398754485e+00,4.20402e-05,9.99999e-01,5.32971e-05,9.98318e-01,7.90117e-01
1.405748258e+00,4.08214e-05,9.99999e-01,4.69259e-05,9.98351e-01,8.71346e-01
1.412776999e+00,4.42280e-05,9.99999e-01,4.71744e-05,9.98384e-01,9.39058e-01
1.419840884e+00,8.90115e-05,9.99999e-01,9.16447e-05,9.98416e-01,9.72806e-01
1.426940089e+00,7.59775e-04,9.99999e-01,7.77063e-04,9.98447e-01,9.79272e-01
1.434074789e+00,3.86973e-03,9.99999e-01,3.97261e-03,9.98478e-01,9.75586e-01
1.441245163e+00,1.18417e-02,9.99999e-01,1.21811e-02,9.98508e-01,9.73583e-01
1.448451389e+00,4.45824e-02,9.99999e-01,4.57066e-02,9.98537e-01,9.76831e-01
1.455693646e+00,1.22312e-01,9.99999e-01,1.24742e-01,9.98566e-01,9.81925e-01
1.462972114e+00,1.58154e-01,9.99999e-01,1.61156e-01,9.98594e-01,9.82754e-01
1.470286975e+00,1.18085e-01,9.99999e-01,1.20287e-01,9.98622e-01,9.83045e-01
