#,Wave/freq,Total,N2,H2O,Rayleigh,CIA
4.000000000e-01,3.95521e-01,9.99999e-01,9.99895e-01,3.95563e-01,9.99999e-01
4.020000000e-01,4.02857e-01,9.99999e-01,9.99934e-01,4.02883e-01,9.99999e-01
4.040100000e-01,4.10172e-01,9.99999e-01,9.99972e-01,4.10183e-01,9.99999e-01
4.060300500e-01,4.17465e-01,9.99999e-01,9.99993e-01,4.17468e-01,9.99999e-01
4.080602003e-01,4.24733e-01,9.99999e-01,9.99997e-01,4.24733e-01,9.99999e-01
4.101005013e-01,4.31978e-01,9.99999e-01,9.99999e-01,4.31978e-01,9.99999e-01
4.121510038e-01,4.39198e-01,9.99999e-01,9.99995e-01,4.39200e-01,9.99999e-01
4.142117588e-01,4.46384e-01,9.99999e-01,9.99970e-01,4.46397e-01,9.99999e-01
4.162828176e-01,4.53506e-01,9.99999e-01,9.99870e-01,4.53565e-01,9.99999e-01
4.183642317e-01,4.60668e-01,9.99999e-01,9.99922e-01,4.60704e-01,9.99999e-01
4.204560528e-01,4.67789e-01,9.99999e-01,9.99952e-01,4.67811e-01,9.99999e-01
4.225583331e-01,4.74875e-01,9.99999e-01,9.99981e-01,4.74883e-01,9.99999e-01
4.246711247e-01,4.81914e-01,9.99999e-01,9.99985e-01,4.81920e-01,9.99999e-01
4.267944804e-01,4.88909e-01,9.99999e-01,9.99978e-01,4.88919e-01,9.99999e-01
4.289284528e-01,4.95871e-01,9.99999e-01,9.99983e-01,4.95879e-01,9.99999e-01
4.310730950e-01,5.02794e-01,9.99999e-01,9.99992e-01,5.02797e-01,9.99999e-01
4.332284605e-01,5.09671e-01,9.99999e-01,9.99997e-01,5.09672e-01,9.99999e-01
4.353946028e-01,5.16502e-01,9.99999e-01,9.99998e-01,5.16503e-01,9.99999e-01
4.375715758e-01,5.23280e-01,9.99999e-01,9.99986e-01,5.23287e-01,9.99999e-01
4.397594337e-01,5.29964e-01,9.99999e-01,9.99885e-01,5.30024e-01,9.99999e-01
4.419582309e-01,5.36400e-01,9.99999e-01,9.99418e-01,5.36712e-01,9.99999e-01
4.441680220e-01,5.43106e-01,9.99999e-01,9.99549e-01,5.43350e-01,9.99999e-01
4.463888621e-01,5.49679e-01,9.99999e-01,9.99530e-01,5.49937e-01,9.99999e-01
4.486208064e-01,5.56309e-01,9.99999e-01,9.99708e-01,5.56470e-01,9.99999e-01
4.508639105e-01,5.62874e-01,9.99999e-01,9.99863e-01,5.62951e-01,9.99999e-01
4.531182300e-01,5.69345e-01,9.99999e-01,9.99945e-01,5.69376e-01,9.99999e-01
4.553838212e-01,5.75724e-01,9.99999e-01,9.99962e-01,5.75745e-01,9.99999e-01
4.576607403e-01,5.82049e-01,9.99999e-01,9.99982e-01,5.82058e-01,9.99999e-01
4.599490440e-01,5.88307e-01,9.99999e-01,9.99987e-01,5.88314e-01,9.99999e-01
4.622487892e-01,5.94510e-01,9.99999e-01,9.99997e-01,5.94511e-01,9.99999e-01
4.645600332e-01,6.00644e-01,9.99999e-01,9.99991e-01,6.00649e-01,9.99999e-01
4.668828333e-01,6.06643e-01,9.99999e-01,9.99861e-01,6.06727e-01,9.99999e-01
4.692172475e-01,6.12565e-01,9.99999e-01,9.99705e-01,6.12745e-01,9.99999e-01
4.715633337e-01,6.18583e-01,9.99999e-01,9.99807e-01,6.18702e-01,9.99999e-01
4.739211504e-01,6.24483e-01,9.99999e-01,9.99815e-01,6.24598e-01,9.99999e-01
4.762907561e-01,6.30371e-01,9.99999e-01,9.99904e-01,6.30431e-01,9.99999e-01
4.786722099e-01,6.36178e-01,9.99999e-01,9.99960e-01,6.36203e-01,9.99999e-01
4.810655710e-01,6.41904e-01,9.99999e-01,9.99987e-01,6.41911e-01,9.99999e-01
4.834708988e-01,6.47483e-01,9.99999e-01,9.99885e-01,6.47557e-01,9.99999e-01
4.858882533e-01,6.53003e-01,9.99999e-01,9.99791e-01,6.53139e-01,9.99999e-01
4.883176946e-01,6.58542e-01,9.99999e-01,9.99825e-01,6.58657e-01,9.99999e-01
4.907592831e-01,6.64008e-01,9.99999e-01,9.99842e-01,6.64112e-01,9.99999e-01
4.932130795e-01,6.69428e-01,9.99999e-01,9.99887e-01,6.69503e-01,9.99999e-01
4.956791449e-01,6.74790e-01,9.99999e-01,9.99940e-01,6.74830e-01,9.99999e-01
4.981575406e-01,6.79891e-01,9.99999e-01,9.99703e-01,6.80093e-01,9.99999e-01
5.006483283e-01,6.84760e-01,9.99999e-01,9.99229e-01,6.85292e-01,9.99994e-01
5.031515699e-01,6.87716e-01,9.99999e-01,9.96114e-01,6.90426e-01,9.99958e-01
5.056673278e-01,6.94039e-01,9.99999e-01,9.97949e-01,6.95497e-01,9.99952e-01
5.081956644e-01,6.98673e-01,9.99999e-01,9.97414e-01,7.00503e-01,9.99971e-01
5.107366428e-01,7.04211e-01,9.99999e-01,9.98254e-01,7.05446e-01,9.99994e-01
5.132903260e-01,7.09616e-01,9.99999e-01,9.99002e-01,7.10325e-01,9.99998e-01
5.158567776e-01,7.14839e-01,9.99999e-01,9.99578e-01,7.15140e-01,9.99999e-01
5.184360615e-01,7.19770e-01,9.99999e-01,9.99831e-01,7.19892e-01,9.99999e-01
5.210282418e-01,7.24534e-01,9.99999e-01,9.99936e-01,7.24580e-01,9.99999e-01
5.236333830e-01,7.29020e-01,9.99999e-01,9.99746e-01,7.29206e-01,9.99997e-01
5.262515499e-01,7.33651e-01,9.99999e-01,9.99841e-01,7.33769e-01,9.99997e-01
5.288828077e-01,7.38160e-01,9.99999e-01,9.99853e-01,7.38269e-01,9.99997e-01
5.315272217e-01,7.42612e-01,9.99999e-01,9.99872e-01,7.42707e-01,9.99999e-01
5.341848578e-01,7.47021e-01,9.99999e-01,9.99915e-01,7.47084e-01,9.99999e-01
5.368557821e-01,7.51176e-01,9.99999e-01,9.99703e-01,7.51399e-01,9.99998e-01
5.395400610e-01,7.54838e-01,9.99999e-01,9.98929e-01,7.55653e-01,9.99990e-01
5.422377613e-01,7.58784e-01,9.99999e-01,9.98625e-01,7.59847e-01,9.99974e-01
5.449489501e-01,7.62981e-01,9.99999e-01,9.98717e-01,7.63980e-01,9.99973e-01
5.476736949e-01,7.67175e-01,9.99999e-01,9.98868e-01,7.68053e-01,9.99986e-01
5.504120634e-01,7.71430e-01,9.99999e-01,9.99178e-01,7.72067e-01,9.99996e-01
5.531641237e-01,7.75701e-01,9.99999e-01,9.99586e-01,7.76022e-01,9.99999e-01
5.559299443e-01,7.79763e-01,9.99999e-01,9.99800e-01,7.79919e-01,9.99999e-01
5.587095940e-01,7.83659e-01,9.99999e-01,9.99874e-01,7.83757e-01,9.99999e-01
5.615031420e-01,7.87429e-01,9.99999e-01,9.99860e-01,7.87539e-01,9.99999e-01
5.643106577e-01,7.91136e-01,9.99999e-01,9.99840e-01,7.91263e-01,9.99998e-01
5.671322110e-01,7.93378e-01,9.99999e-01,9.98063e-01,7.94930e-01,9.99982e-01
5.699678720e-01,7.96875e-01,9.99999e-01,9.97963e-01,7.98542e-01,9.99947e-01
5.728177114e-01,8.00355e-01,9.99999e-01,9.97869e-01,8.02099e-01,9.99955e-01
5.756818000e-01,8.04006e-01,9.99999e-01,9.98046e-01,8.05600e-01,9.99974e-01
5.785602090e-01,8.07665e-01,9.99999e-01,9.98298e-01,8.09047e-01,9.99992e-01
5.814530100e-01,8.11048e-01,9.99999e-01,9.98289e-01,8.12441e-01,9.99995e-01
5.843602750e-01,8.14104e-01,9.99999e-01,9.97955e-01,8.15781e-01,9.99988e-01
5.872820764e-01,8.04676e-01,9.99999e-01,9.82548e-01,8.19068e-01,9.99876e-01
5.902184868e-01,8.04701e-01,9.99999e-01,9.78922e-01,8.22304e-01,9.99663e-01
5.931695792e-01,8.12900e-01,9.99999e-01,9.85069e-01,8.25487e-01,9.99676e-01
5.961354271e-01,8.14915e-01,9.99999e-01,9.83642e-01,8.28620e-01,9.99813e-01
5.991161043e-01,8.21713e-01,9.99999e-01,9.88044e-01,8.31703e-01,9.99942e-01
6.021116848e-01,8.29058e-01,9.99999e-01,9.93203e-01,8.34736e-01,9.99993e-01
6.051222432e-01,8.34835e-01,9.99999e-01,9.96556e-01,8.37720e-01,9.99999e-01
6.081478544e-01,8.39405e-01,9.99999e-01,9.98512e-01,8.40655e-01,9.99999e-01
6.111885937e-01,8.43012e-01,9.99999e-01,9.99371e-01,8.43542e-01,9.99999e-01
6.142445367e-01,8.46144e-01,9.99999e-01,9.99718e-01,8.46382e-01,9.99999e-01
6.173157594e-01,8.49043e-01,9.99999e-01,9.99844e-01,8.49175e-01,9.99999e-01
6.204023382e-01,8.51809e-01,9.99999e-01,9.99868e-01,8.51921e-01,9.99999e-01
6.235043498e-01,8.54124e-01,9.99999e-01,9.99417e-01,8.54622e-01,9.99998e-01
6.266218716e-01,8.54636e-01,9.99999e-01,9.96938e-01,8.57278e-01,9.99978e-01
6.297549810e-01,8.58887e-01,9.99999e-01,9.98876e-01,8.59890e-01,9.99956e-01
6.329037559e-01,8.60516e-01,9.99999e-01,9.97782e-01,8.62458e-01,9.99965e-01
6.360682746e-01,8.63328e-01,9.99999e-01,9.98107e-01,8.64982e-01,9.99979e-01
6.392486160e-01,8.65331e-01,9.99999e-01,9.97550e-01,8.67464e-01,9.99990e-01
6.424448591e-01,8.67029e-01,9.99999e-01,9.96711e-01,8.69903e-01,9.99983e-01
6.456570834e-01,8.58993e-01,9.99999e-01,9.84833e-01,8.72302e-01,9.99907e-01
6.488853688e-01,8.64773e-01,9.99999e-01,9.88930e-01,8.74659e-01,9.99763e-01
6.521297956e-01,8.66919e-01,9.99999e-01,9.88724e-01,8.76975e-01,9.99804e-01
6.553904446e-01,8.69222e-01,9.99999e-01,9.88734e-01,8.79252e-01,9.99854e-01
6.586673968e-01,8.72958e-01,9.99999e-01,9.90367e-01,8.81490e-01,9.99951e-01
6.619607338e-01,8.78926e-01,9.99999e-01,9.94619e-01,8.83689e-01,9.99989e-01
6.652705375e-01,8.82982e-01,9.99999e-01,9.96767e-01,8.85850e-01,9.99994e-01
6.685968902e-01,8.86752e-01,9.99999e-01,9.98625e-01,8.87973e-01,9.99998e-01
6.719398746e-01,8.89441e-01,9.99999e-01,9.99304e-01,8.90060e-01,9.99999e-01
6.752995740e-01,8.91773e-01,9.99999e-01,9.99622e-01,8.92110e-01,9.99999e-01
6.786760719e-01,8.93634e-01,9.99999e-01,9.99452e-01,8.94124e-01,9.99998e-01
6.820694522e-01,8.95261e-01,9.99999e-01,9.99064e-01,8.96102e-01,9.99994e-01
6.854797995e-01,8.96954e-01,9.99999e-01,9.98793e-01,8.98046e-01,9.99989e-01
6.889071985e-01,8.97292e-01,9.99999e-01,9.97065e-01,8.99956e-01,9.99973e-01
6.923517345e-01,8.59637e-01,9.99999e-01,9.53429e-01,9.01832e-01,9.99771e-01
6.958134932e-01,8.81310e-01,9.99999e-01,9.75744e-01,9.03674e-01,9.99494e-01
6.992925606e-01,8.83965e-01,9.99999e-01,9.76679e-01,9.05484e-01,9.99544e-01
7.027890234e-01,8.80983e-01,9.99999e-01,9.71372e-01,9.07261e-01,9.99651e-01
7.063029686e-01,8.86897e-01,9.99999e-01,9.75844e-01,9.09007e-01,9.99826e-01
7.098344834e-01,8.89507e-01,9.99999e-01,9.76805e-01,9.10722e-01,9.99897e-01
7.133836558e-01,8.84081e-01,9.99999e-01,9.69152e-01,9.12405e-01,9.99796e-01
7.169505741e-01,7.13522e-01,9.99999e-01,7.81858e-01,9.14059e-01,9.98400e-01
7.205353270e-01,8.09466e-01,9.99999e-01,8.86501e-01,9.15683e-01,9.97179e-01
7.241380036e-01,7.84064e-01,9.99999e-01,8.56859e-01,9.17277e-01,9.97563e-01
7.277586936e-01,7.97804e-01,9.99999e-01,8.70002e-01,9.18843e-01,9.98008e-01
7.313974871e-01,7.92584e-01,9.99999e-01,8.61952e-01,9.20381e-01,9.99066e-01
7.350544745e-01,8.49482e-01,9.99999e-01,9.21755e-01,9.21890e-01,9.99675e-01
7.387297469e-01,8.69373e-01,9.99999e-01,9.41659e-01,9.23372e-01,9.99850e-01
7.424233956e-01,8.97990e-01,9.99999e-01,9.71005e-01,9.24827e-01,9.99973e-01
7.461355126e-01,9.09869e-01,9.99999e-01,9.82311e-01,9.26256e-01,9.99995e-01
7.498661902e-01,9.19991e-01,9.99999e-01,9.91735e-01,9.27659e-01,9.99997e-01
7.536155211e-01,9.25257e-01,9.99999e-01,9.95932e-01,9.29036e-01,9.99998e-01
7.573835987e-01,9.28438e-01,9.99999e-01,9.97904e-01,9.30387e-01,9.99999e-01
7.611705167e-01,9.30501e-01,9.99999e-01,9.98697e-01,9.31714e-01,9.99999e-01
7.649763693e-01,9.32255e-01,9.99999e-01,9.99182e-01,9.33017e-01,9.99999e-01
7.688012511e-01,9.33764e-01,9.99999e-01,9.99430e-01,9.34296e-01,9.99999e-01
7.726452574e-01,9.35112e-01,9.99999e-01,9.99531e-01,9.35551e-01,9.99999e-01
7.765084837e-01,9.36157e-01,9.99999e-01,9.99332e-01,9.36782e-01,9.99998e-01
7.803910261e-01,9.35283e-01,9.99999e-01,9.97115e-01,9.37992e-01,9.99996e-01
7.842929812e-01,9.29738e-01,9.99999e-01,9.89965e-01,9.39178e-01,9.99981e-01
7.882144461e-01,9.20933e-01,9.99999e-01,9.79496e-01,9.40343e-01,9.99857e-01
7.921555184e-01,9.30651e-01,9.99999e-01,9.88734e-01,9.41486e-01,9.99753e-01
7.961162960e-01,9.23624e-01,9.99999e-01,9.80088e-01,9.42608e-01,9.99765e-01
8.000968774e-01,9.21828e-01,9.99999e-01,9.77056e-01,9.43709e-01,9.99749e-01
8.040973618e-01,9.22930e-01,9.99999e-01,9.77048e-01,9.44790e-01,9.99809e-01
8.081178486e-01,8.97507e-01,9.99999e-01,9.49071e-01,9.45850e-01,9.99806e-01
8.121584379e-01,7.62905e-01,9.99999e-01,8.06282e-01,9.46891e-01,9.99269e-01
8.162192301e-01,7.33562e-01,9.99999e-01,7.75999e-01,9.47912e-01,9.97255e-01
8.203003262e-01,8.35887e-01,9.99999e-01,8.83725e-01,9.48914e-01,9.96787e-01
8.244018279e-01,8.00498e-01,9.99999e-01,8.44880e-01,9.49898e-01,9.97442e-01
8.285238370e-01,8.14299e-01,9.99999e-01,8.58102e-01,9.50863e-01,9.97990e-01
8.326664562e-01,8.15282e-01,9.99999e-01,8.57272e-01,9.51809e-01,9.99168e-01
8.368297885e-01,8.52601e-01,9.99999e-01,8.95065e-01,9.52738e-01,9.99809e-01
8.410139374e-01,8.92647e-01,9.99999e-01,9.36135e-01,9.53650e-01,9.99888e-01
8.452190071e-01,9.24056e-01,9.99999e-01,9.68123e-01,9.54544e-01,9.99933e-01
8.494451021e-01,9.37545e-01,9.99999e-01,9.81340e-01,9.55422e-01,9.99946e-01
8.536923276e-01,9.45677e-01,9.99999e-01,9.88940e-01,9.56283e-01,9.99967e-01
8.579607893e-01,9.50580e-01,9.99999e-01,9.93166e-01,9.57127e-01,9.99991e-01
8.622505932e-01,9.53796e-01,9.99999e-01,9.95658e-01,9.57956e-01,9.99998e-01
8.665618462e-01,9.56189e-01,9.99999e-01,9.97308e-01,9.58769e-01,9.99998e-01
8.708946554e-01,9.56606e-01,9.99999e-01,9.96915e-01,9.59567e-01,9.99997e-01
8.752491287e-01,9.56387e-01,9.99999e-01,9.95877e-01,9.60350e-01,9.99995e-01
8.796253743e-01,9.55615e-01,9.99999e-01,9.94287e-01,9.61117e-01,9.99986e-01
8.840235012e-01,9.55562e-01,9.99999e-01,9.93480e-01,9.61871e-01,9.99959e-01
8.884436187e-01,9.39802e-01,9.99999e-01,9.76416e-01,9.62609e-01,9.99886e-01
8.928858368e-01,7.52816e-01,9.99999e-01,7.81978e-01,9.63334e-01,9.99347e-01
8.973502660e-01,6.24994e-01,9.99999e-01,6.50474e-01,9.64045e-01,9.96662e-01
9.018370173e-01,7.71100e-01,9.99999e-01,8.03491e-01,9.64743e-01,9.94757e-01
9.063462024e-01,7.90662e-01,9.99999e-01,8.22765e-01,9.65427e-01,9.95393e-01
9.108779334e-01,7.10088e-01,9.99999e-01,7.38540e-01,9.66098e-01,9.95213e-01
9.154323231e-01,6.81197e-01,9.99999e-01,7.07420e-01,9.66757e-01,9.96042e-01
9.200094847e-01,7.37381e-01,9.99999e-01,7.63920e-01,9.67402e-01,9.97782e-01
9.246095321e-01,6.45606e-01,9.99999e-01,6.68631e-01,9.68036e-01,9.97445e-01
9.292325798e-01,8.96695e-02,9.99999e-01,9.34986e-02,9.68657e-01,9.90076e-01
9.338787427e-01,4.04012e-02,9.99999e-01,4.34365e-02,9.69267e-01,9.59610e-01
9.385481364e-01,2.56440e-01,9.99999e-01,2.77696e-01,9.69864e-01,9.52148e-01
9.432408771e-01,1.70427e-01,9.99999e-01,1.83204e-01,9.70451e-01,9.58579e-01
9.479570815e-01,8.55075e-02,9.99999e-01,9.11434e-02,9.71026e-01,9.66157e-01
9.526968669e-01,1.46785e-01,9.99999e-01,1.54283e-01,9.71590e-01,9.79219e-01
9.574603512e-01,1.60431e-01,9.99999e-01,1.66798e-01,9.72143e-01,9.89389e-01
9.622476530e-01,2.16994e-01,9.99999e-01,2.24738e-01,9.72686e-01,9.92650e-01
9.670588912e-01,4.03622e-01,9.99999e-01,4.16826e-01,9.73218e-01,9.94968e-01
9.718941857e-01,5.47144e-01,9.99999e-01,5.63989e-01,9.73740e-01,9.96293e-01
9.767536566e-01,6.03081e-01,9.99999e-01,6.20778e-01,9.74252e-01,9.97165e-01
9.816374249e-01,6.81984e-01,9.99999e-01,7.00333e-01,9.74754e-01,9.99018e-01
9.865456120e-01,7.79564e-01,9.99999e-01,7.99514e-01,9.75247e-01,9.99795e-01
9.914783401e-01,8.49143e-01,9.99999e-01,8.70314e-01,9.75729e-01,9.99942e-01
9.964357318e-01,9.05032e-01,9.99999e-01,9.27124e-01,9.76203e-01,9.99966e-01
1.001417910e+00,9.33279e-01,9.99999e-01,9.55622e-01,9.76668e-01,9.99948e-01
1.006425000e+00,9.52062e-01,9.99999e-01,9.74421e-01,9.77123e-01,9.99927e-01
1.011457125e+00,9.61929e-01,9.99999e-01,9.84065e-01,9.77570e-01,9.99932e-01
1.016514411e+00,9.67349e-01,9.99999e-01,9.89147e-01,9.78008e-01,9.99952e-01
1.021596983e+00,9.69920e-01,9.99999e-01,9.91340e-01,9.78438e-01,9.99953e-01
1.026704968e+00,9.72213e-01,9.99999e-01,9.93238e-01,9.78859e-01,9.99970e-01
1.031838492e+00,9.74452e-01,9.99999e-01,9.95086e-01,9.79272e-01,9.99990e-01
1.036997685e+00,9.76812e-01,9.99999e-01,9.97076e-01,9.79677e-01,9.99998e-01
1.042182673e+00,9.76654e-01,9.99999e-01,9.96509e-01,9.80075e-01,9.99998e-01
1.047393587e+00,9.75932e-01,9.99999e-01,9.95377e-01,9.80464e-01,9.99998e-01
1.052630555e+00,9.74625e-01,9.99999e-01,9.93658e-01,9.80847e-01,9.99997e-01
1.057893707e+00,9.70846e-01,9.99999e-01,9.89429e-01,9.81221e-01,9.99995e-01
1.063183176e+00,9.64577e-01,9.99999e-01,9.82677e-01,9.81589e-01,9.99990e-01
1.068499092e+00,9.53641e-01,9.99999e-01,9.71189e-01,9.81949e-01,9.99979e-01
1.073841587e+00,9.49258e-01,9.99999e-01,9.66401e-01,9.82303e-01,9.99956e-01
1.079210795e+00,9.40437e-01,9.99999e-01,9.57154e-01,9.82649e-01,9.99882e-01
1.084606849e+00,9.19736e-01,9.99999e-01,9.35915e-01,9.82989e-01,9.99718e-01
1.090029883e+00,8.93674e-01,9.99999e-01,9.09360e-01,9.83322e-01,9.99417e-01
1.095480033e+00,7.59017e-01,9.99999e-01,7.72447e-01,9.83649e-01,9.98946e-01
1.100957433e+00,5.15956e-01,9.99999e-01,5.25379e-01,9.83969e-01,9.98062e-01
1.106462220e+00,2.10415e-01,9.99999e-01,2.14479e-01,9.84283e-01,9.96716e-01
1.111994531e+00,4.28734e-02,9.99999e-01,4.39262e-02,9.84591e-01,9.91306e-01
1.117554504e+00,7.88031e-03,9.99999e-01,8.25740e-03,9.84893e-01,9.68969e-01
1.123142276e+00,3.66743e-02,9.99999e-01,4.01148e-02,9.85189e-01,9.27974e-01
1.128757988e+00,8.80506e-02,9.99999e-01,9.74181e-02,9.85480e-01,9.17158e-01
1.134401778e+00,4.15176e-02,9.99999e-01,4.53306e-02,9.85765e-01,9.29108e-01
1.140073787e+00,2.11951e-01,9.99999e-01,2.27957e-01,9.86044e-01,9.42942e-01
1.145774156e+00,5.83226e-02,9.99999e-01,6.23985e-02,9.86317e-01,9.47643e-01
1.151503026e+00,4.35129e-02,9.99999e-01,4.54457e-02,9.86586e-01,9.70486e-01
1.157260541e+00,5.69567e-02,9.99999e-01,5.82349e-02,9.86849e-01,9.91082e-01
1.163046844e+00,1.17797e-01,9.99999e-01,1.19639e-01,9.87107e-01,9.97464e-01
1.168862078e+00,2.11665e-01,9.99999e-01,2.14655e-01,9.87360e-01,9.98692e-01
1.174706389e+00,3.78872e-01,9.99999e-01,3.84291e-01,9.87608e-01,9.98267e-01
1.180579921e+00,5.47202e-01,9.99999e-01,5.55385e-01,9.87852e-01,9.97381e-01
1.186482820e+00,7.03730e-01,9.99999e-01,7.14130e-01,9.88090e-01,9.97312e-01
1.192415234e+00,8.09536e-01,9.99999e-01,8.20751e-01,9.88324e-01,9.97986e-01
1.198377311e+00,8.35368e-01,9.99999e-01,8.46650e-01,9.88553e-01,9.98098e-01
1.204369197e+00,8.43972e-01,9.99999e-01,8.55021e-01,9.88778e-01,9.98279e-01
1.210391043e+00,8.50113e-01,9.99999e-01,8.60470e-01,9.88998e-01,9.98952e-01
1.216442998e+00,8.70047e-01,9.99999e-01,8.80096e-01,9.89215e-01,9.99358e-01
1.222525213e+00,8.95119e-01,9.99999e-01,9.05045e-01,9.89426e-01,9.99601e-01
1.228637839e+00,9.23158e-01,9.99999e-01,9.33000e-01,9.89634e-01,9.99814e-01
1.234781029e+00,9.40142e-01,9.99999e-01,9.49844e-01,9.89838e-01,9.99946e-01
1.240954934e+00,9.58311e-01,9.99999e-01,9.67968e-01,9.90038e-01,9.99984e-01
1.247159708e+00,9.65435e-01,9.99999e-01,9.74965e-01,9.90233e-01,9.99990e-01
1.253395507e+00,9.68357e-01,9.99999e-01,9.77730e-01,9.90425e-01,9.99987e-01
1.259662485e+00,9.69607e-01,9.99999e-01,9.78813e-01,9.90614e-01,9.99979e-01
1.265960797e+00,9.57484e-01,9.99999e-01,9.66408e-01,9.90798e-01,9.99966e-01
1.272290601e+00,9.39111e-01,9.99999e-01,9.47714e-01,9.90979e-01,9.99941e-01
1.278652054e+00,8.91078e-01,9.99999e-01,8.99121e-01,9.91156e-01,9.99896e-01
1.285045314e+00,8.18062e-01,9.99999e-01,8.25375e-01,9.91330e-01,9.99806e-01
1.291470541e+00,7.09991e-01,9.99999e-01,7.16319e-01,9.91501e-01,9.99660e-01
1.297927893e+00,6.18659e-01,9.99999e-01,6.24251e-01,9.91668e-01,9.99367e-01
1.304417533e+00,5.71434e-01,9.99999e-01,5.76912e-01,9.91832e-01,9.98660e-01
1.310939621e+00,5.26665e-01,9.99999e-01,5.32378e-01,9.91992e-01,9.97252e-01
1.317494319e+00,5.00622e-01,9.99999e-01,5.07157e-01,9.92150e-01,9.94923e-01
1.324081790e+00,3.64944e-01,9.99999e-01,3.70843e-01,9.92304e-01,9.91724e-01
1.330702199e+00,7.13134e-02,9.99999e-01,7.28924e-02,9.92456e-01,9.85773e-01
1.337355710e+00,2.08974e-04,9.99999e-01,2.16421e-04,9.92604e-01,9.72782e-01
1.344042489e+00,1.52931e-06,9.99999e-01,1.67399e-06,9.92750e-01,9.20246e-01
1.350762701e+00,1.11453e-19,9.99999e-01,1.49201e-19,9.92893e-01,7.52344e-01
1.357516515e+00,1.49790e-29,9.99999e-01,3.47704e-29,9.93032e-01,4.33819e-01
1.364304097e+00,1.70276e-18,9.99999e-01,7.40924e-18,9.93170e-01,2.31396e-01
1.371125618e+00,1.56329e-11,9.99999e-01,6.25519e-11,9.93304e-01,2.51603e-01
1.377981246e+00,5.80709e-11,9.99999e-01,1.90775e-10,9.93436e-01,3.06406e-01
1.384871152e+00,2.31352e-15,9.99999e-01,7.01062e-15,9.93565e-01,3.32140e-01
1.391795508e+00,1.44041e-18,9.99999e-01,4.14494e-18,9.93692e-01,3.49715e-01
1.398754485e+00,2.32020e-14,9.99999e-01,5.56069e-14,9.93816e-01,4.19846e-01
1.405748258e+00,3.59742e-14,9.99999e-01,6.01133e-14,9.93938e-01,6.02088e-01
1.412776999e+00,9.61825e-14,9.99999e-01,1.21979e-13,9.94057e-01,7.93230e-01
1.419840884e+00,1.70833e-13,9.99998e-01,1.90204e-13,9.94174e-01,9.03419e-01
1.426940089e+00,3.28398e-09,9.99998e-01,3.56779e-09,9.94289e-01,9.25738e-01
1.434074789e+00,4.60093e-08,9.99998e-01,5.06790e-08,9.94401e-01,9.12967e-01
1.441245163e+00,9.58670e-07,9.99999e-01,1.06388e-06,9.94512e-01,9.06080e-01
1.448451389e+00,8.99939e-05,9.99998e-01,9.86415e-05,9.94620e-01,9.17266e-01
1.455693646e+00,1.75679e-03,9.99999e-01,1.88885e-03,9.94726e-01,9.35012e-01
1.462972114e+00,2.56621e-03,9.99999e-01,2.75027e-03,9.94829e-01,9.37924e-01
1.470286975e+00,1.11033e-03,9.99999e-01,1.18855e-03,9.94931e-01,9.38949e-01
