#,Wave/freq,Total,N2,H2O,Rayleigh,CIA
4.000000000e-01,3.20656e-02,9.99999e-01,9.99611e-01,3.20781e-02,9.99999e-01
4.020000000e-01,3.43274e-02,9.99999e-01,9.99757e-01,3.43357e-02,9.99999e-01
4.040100000e-01,3.66964e-02,9.99999e-01,9.99897e-01,3.67002e-02,9.99999e-01
4.060300500e-01,3.91750e-02,9.99999e-01,9.99975e-01,3.91760e-02,9.99999e-01
4.080602003e-01,4.17645e-02,9.99999e-01,9.99991e-01,4.17649e-02,9.99999e-01
4.101005013e-01,4.44686e-02,9.99999e-01,9.99998e-01,4.44686e-02,9.99999e-01
4.121510038e-01,4.72881e-02,9.99999e-01,9.99985e-01,4.72887e-02,9.99999e-01
4.142117588e-01,5.02214e-02,9.99999e-01,9.99894e-01,5.02267e-02,9.99999e-01
4.162828176e-01,5.32580e-02,9.99999e-01,9.99518e-01,5.32837e-02,9.99999e-01
4.183642317e-01,5.64447e-02,9.99999e-01,9.99713e-01,5.64608e-02,9.99999e-01
4.204560528e-01,5.97485e-02,9.99999e-01,9.99823e-01,5.97590e-02,9.99999e-01
4.225583331e-01,6.31748e-02,9.99999e-01,9.99933e-01,6.31789e-02,9.99999e-01
4.246711247e-01,6.67178e-02,9.99999e-01,9.99948e-01,6.67212e-02,9.99999e-01
4.267944804e-01,7.03808e-02,9.99999e-01,9.99922e-01,7.03862e-02,9.99999e-01
4.289284528e-01,7.41698e-02,9.99999e-01,9.99940e-01,7.41742e-02,9.99999e-01
4.310730950e-01,7.80831e-02,9.99999e-01,9.99974e-01,7.80851e-02,9.99999e-01
4.332284605e-01,8.21182e-02,9.99999e-01,9.99992e-01,8.21188e-02,9.99999e-01
4.353946028e-01,8.62748e-02,9.99999e-01,9.99996e-01,8.62750e-02,9.99999e-01
4.375715758e-01,9.05490e-02,9.99999e-01,9.99953e-01,9.05532e-02,9.99999e-01
4.397594337e-01,9.49133e-02,9.99999e-01,9.99583e-01,9.49527e-02,9.99999e-01
4.419582309e-01,9.92634e-02,9.99999e-01,9.97894e-01,9.94728e-02,9.99999e-01
4.441680220e-01,1.03937e-01,9.99999e-01,9.98314e-01,1.04112e-01,9.99999e-01
4.463888621e-01,1.08681e-01,9.99999e-01,9.98259e-01,1.08870e-01,9.99999e-01
4.486208064e-01,1.13621e-01,9.99999e-01,9.98912e-01,1.13745e-01,9.99999e-01
4.508639105e-01,1.18675e-01,9.99999e-01,9.99491e-01,1.18735e-01,9.99999e-01
4.531182300e-01,1.23815e-01,9.99999e-01,9.99798e-01,1.23840e-01,9.99999e-01
4.553838212e-01,1.29038e-01,9.99999e-01,9.99863e-01,1.29056e-01,9.99999e-01
4.576607403e-01,1.34374e-01,9.99999e-01,9.99936e-01,1.34382e-01,9.99999e-01
4.599490440e-01,1.39811e-01,9.99999e-01,9.99955e-01,1.39817e-01,9.99999e-01
4.622487892e-01,1.45356e-01,9.99999e-01,9.99991e-01,1.45357e-01,9.99999e-01
4.645600332e-01,1.50997e-01,9.99999e-01,9.99969e-01,1.51001e-01,9.99999e-01
4.668828333e-01,1.56667e-01,9.99999e-01,9.99491e-01,1.56746e-01,9.99999e-01
4.692172475e-01,1.62413e-01,9.99999e-01,9.98906e-01,1.62590e-01,9.99999e-01
4.715633337e-01,1.68410e-01,9.99999e-01,9.99287e-01,1.68530e-01,9.99999e-01
4.739211504e-01,1.74443e-01,9.99999e-01,9.99314e-01,1.74563e-01,9.99999e-01
4.762907561e-01,1.80622e-01,9.99999e-01,9.99643e-01,1.80687e-01,9.99999e-01
4.786722099e-01,1.86870e-01,9.99999e-01,9.99854e-01,1.86897e-01,9.99999e-01
4.810655710e-01,1.93184e-01,9.99999e-01,9.99956e-01,1.93193e-01,9.99999e-01
4.834708988e-01,1.99488e-01,9.99999e-01,9.99591e-01,1.99570e-01,9.99999e-01
4.858882533e-01,2.05865e-01,9.99999e-01,9.99223e-01,2.06025e-01,9.99999e-01
4.883176946e-01,2.12418e-01,9.99999e-01,9.99355e-01,2.12555e-01,9.99999e-01
4.907592831e-01,2.19028e-01,9.99999e-01,9.99413e-01,2.19157e-01,9.99999e-01
4.932130795e-01,2.25734e-01,9.99999e-01,9.99584e-01,2.25827e-01,9.99999e-01
4.956791449e-01,2.32512e-01,9.99999e-01,9.99779e-01,2.32563e-01,9.99999e-01
4.981575406e-01,2.39100e-01,9.99999e-01,9.98908e-01,2.39361e-01,9.99999e-01
5.006483283e-01,2.45522e-01,9.99999e-01,9.97192e-01,2.46217e-01,9.99980e-01
5.031515699e-01,2.49483e-01,9.99999e-01,9.85745e-01,2.53129e-01,9.99848e-01
5.056673278e-01,2.58074e-01,9.99999e-01,9.92409e-01,2.60092e-01,9.99826e-01
5.081956644e-01,2.64517e-01,9.99999e-01,9.90424e-01,2.67104e-01,9.99888e-01
5.107366428e-01,2.72379e-01,9.99999e-01,9.93524e-01,2.74160e-01,9.99978e-01
5.132903260e-01,2.80214e-01,9.99999e-01,9.96288e-01,2.81258e-01,9.99997e-01
5.158567776e-01,2.87942e-01,9.99999e-01,9.98429e-01,2.88394e-01,9.99999e-01
5.184360615e-01,2.95380e-01,9.99999e-01,9.99371e-01,2.95565e-01,9.99999e-01
5.210282418e-01,3.02697e-01,9.99999e-01,9.99766e-01,3.02768e-01,9.99999e-01
5.236333830e-01,3.09705e-01,9.99999e-01,9.99061e-01,3.09998e-01,9.99992e-01
5.262515499e-01,3.17063e-01,9.99999e-01,9.99410e-01,3.17253e-01,9.99990e-01
5.288828077e-01,3.24353e-01,9.99999e-01,9.99463e-01,3.24529e-01,9.99993e-01
5.315272217e-01,3.31666e-01,9.99999e-01,9.99523e-01,3.31824e-01,9.99998e-01
5.341848578e-01,3.39029e-01,9.99999e-01,9.99691e-01,3.39134e-01,9.99999e-01
5.368557821e-01,3.46078e-01,9.99999e-01,9.98913e-01,3.46456e-01,9.99997e-01
5.395400610e-01,3.52397e-01,9.99999e-01,9.96106e-01,3.53786e-01,9.99967e-01
5.422377613e-01,3.59244e-01,9.99999e-01,9.94890e-01,3.61122e-01,9.99907e-01
5.449489501e-01,3.66689e-01,9.99999e-01,9.95284e-01,3.68461e-01,9.99904e-01
5.476736949e-01,3.74199e-01,9.99999e-01,9.95786e-01,3.75800e-01,9.99952e-01
5.504120634e-01,3.81959e-01,9.99999e-01,9.96943e-01,3.83135e-01,9.99986e-01
5.531641237e-01,3.89863e-01,9.99999e-01,9.98461e-01,3.90465e-01,9.99997e-01
5.559299443e-01,3.97490e-01,9.99999e-01,9.99256e-01,3.97786e-01,9.99999e-01
5.587095940e-01,4.04907e-01,9.99999e-01,9.99536e-01,4.05095e-01,9.99999e-01
5.615031420e-01,4.12177e-01,9.99999e-01,9.99483e-01,4.12391e-01,9.99998e-01
5.643106577e-01,4.19425e-01,9.99999e-01,9.99422e-01,4.19669e-01,9.99995e-01
5.671322110e-01,4.23944e-01,9.99999e-01,9.93064e-01,4.26929e-01,9.99942e-01
5.699678720e-01,4.30779e-01,9.99999e-01,9.92387e-01,4.34167e-01,9.99806e-01
5.728177114e-01,4.37847e-01,9.99999e-01,9.92149e-01,4.41382e-01,9.99838e-01
5.756818000e-01,4.45287e-01,9.99999e-01,9.92777e-01,4.48570e-01,9.99901e-01
5.785602090e-01,4.52842e-01,9.99999e-01,9.93692e-01,4.55730e-01,9.99970e-01
5.814530100e-01,4.59929e-01,9.99999e-01,9.93681e-01,4.62859e-01,9.99986e-01
5.843602750e-01,4.66433e-01,9.99999e-01,9.92545e-01,4.69956e-01,9.99957e-01
5.872820764e-01,4.47305e-01,9.99999e-01,9.38139e-01,4.77018e-01,9.99543e-01
5.902184868e-01,4.46725e-01,9.99999e-01,9.24050e-01,4.84043e-01,9.98757e-01
5.931695792e-01,4.64073e-01,9.99999e-01,9.46243e-01,4.91031e-01,9.98789e-01
5.961354271e-01,4.68173e-01,9.99999e-01,9.40835e-01,4.97978e-01,9.99268e-01
5.991161043e-01,4.82735e-01,9.99999e-01,9.56335e-01,5.04883e-01,9.99786e-01
6.021116848e-01,4.98914e-01,9.99999e-01,9.74952e-01,5.11745e-01,9.99973e-01
6.051222432e-01,5.11944e-01,9.99999e-01,9.87240e-01,5.18562e-01,9.99997e-01
6.081478544e-01,5.22435e-01,9.99999e-01,9.94484e-01,5.25332e-01,9.99999e-01
6.111885937e-01,5.30808e-01,9.99999e-01,9.97656e-01,5.32054e-01,9.99999e-01
6.142445367e-01,5.38165e-01,9.99999e-01,9.98955e-01,5.38727e-01,9.99999e-01
6.173157594e-01,5.45036e-01,9.99999e-01,9.99424e-01,5.45350e-01,9.99999e-01
6.204023382e-01,5.51653e-01,9.99999e-01,9.99515e-01,5.51920e-01,9.99999e-01
6.235043498e-01,5.57263e-01,9.99999e-01,9.97899e-01,5.58438e-01,9.99994e-01
6.266218716e-01,5.58486e-01,9.99999e-01,9.88720e-01,5.64902e-01,9.99920e-01
6.297549810e-01,5.68849e-01,9.99999e-01,9.95849e-01,5.71310e-01,9.99840e-01
6.329037559e-01,5.72840e-01,9.99999e-01,9.91777e-01,5.77663e-01,9.99872e-01
6.360682746e-01,5.79845e-01,9.99999e-01,9.93030e-01,5.83958e-01,9.99924e-01
6.392486160e-01,5.84838e-01,9.99999e-01,9.90954e-01,5.90196e-01,9.99966e-01
6.424448591e-01,5.89891e-01,9.99999e-01,9.89179e-01,5.96376e-01,9.99946e-01
6.456570834e-01,5.69928e-01,9.99999e-01,9.46239e-01,6.02496e-01,9.99688e-01
6.488853688e-01,5.79318e-01,9.99999e-01,9.52786e-01,6.08556e-01,9.99127e-01
6.521297956e-01,5.88955e-01,9.99999e-01,9.59044e-01,6.14555e-01,9.99267e-01
6.553904446e-01,5.94868e-01,9.99999e-01,9.59226e-01,6.20494e-01,9.99451e-01
6.586673968e-01,6.04175e-01,9.99999e-01,9.64737e-01,6.26370e-01,9.99820e-01
6.619607338e-01,6.19152e-01,9.99999e-01,9.79421e-01,6.32185e-01,9.99961e-01
6.652705375e-01,6.30265e-01,9.99999e-01,9.87990e-01,6.37938e-01,9.99980e-01
6.685968902e-01,6.40028e-01,9.99999e-01,9.94410e-01,6.43627e-01,9.99996e-01
6.719398746e-01,6.47568e-01,9.99999e-01,9.97403e-01,6.49253e-01,9.99999e-01
6.752995740e-01,6.53900e-01,9.99999e-01,9.98599e-01,6.54816e-01,9.99999e-01
6.786760719e-01,6.58988e-01,9.99999e-01,9.97991e-01,6.60316e-01,9.99996e-01
6.820694522e-01,6.63442e-01,9.99999e-01,9.96548e-01,6.65751e-01,9.99981e-01
6.854797995e-01,6.68113e-01,9.99999e-01,9.95552e-01,6.71123e-01,9.99961e-01
6.889071985e-01,6.69253e-01,9.99999e-01,9.89484e-01,6.76430e-01,9.99903e-01
6.923517345e-01,5.73344e-01,9.99999e-01,8.41791e-01,6.81674e-01,9.99156e-01
6.958134932e-01,6.25788e-01,9.99999e-01,9.12830e-01,6.86853e-01,9.98097e-01
6.992925606e-01,6.33896e-01,9.99999e-01,9.17612e-01,6.91968e-01,9.98325e-01
7.027890234e-01,6.25413e-01,9.99999e-01,8.98420e-01,6.97019e-01,9.98715e-01
7.063029686e-01,6.40920e-01,9.99999e-01,9.13566e-01,7.02006e-01,9.99360e-01
7.098344834e-01,6.47864e-01,9.99999e-01,9.16794e-01,7.06930e-01,9.99621e-01
7.133836558e-01,6.35528e-01,9.99999e-01,8.93530e-01,7.11789e-01,9.99248e-01
7.169505741e-01,3.13794e-01,9.99999e-01,4.40501e-01,7.16585e-01,9.94099e-01
7.205353270e-01,4.65142e-01,9.99999e-01,6.51618e-01,7.21318e-01,9.89612e-01
7.241380036e-01,4.18434e-01,9.99999e-01,5.81625e-01,7.25987e-01,9.90956e-01
7.277586936e-01,4.44919e-01,9.99999e-01,6.13596e-01,7.30594e-01,9.92480e-01
7.313974871e-01,4.28863e-01,9.99999e-01,5.85395e-01,7.35138e-01,9.96553e-01
7.350544745e-01,5.49121e-01,9.99999e-01,7.43327e-01,7.39619e-01,9.98800e-01
7.387297469e-01,5.95974e-01,9.99999e-01,8.01437e-01,7.44039e-01,9.99450e-01
7.424233956e-01,6.70806e-01,9.99999e-01,8.96418e-01,7.48397e-01,9.99893e-01
7.461355126e-01,7.04400e-01,9.99999e-01,9.35856e-01,7.52693e-01,9.99980e-01
7.498661902e-01,7.33832e-01,9.99999e-01,9.69491e-01,7.56929e-01,9.99992e-01
7.536155211e-01,7.49651e-01,9.99999e-01,9.84954e-01,7.61104e-01,9.99995e-01
7.573835987e-01,7.59266e-01,9.99999e-01,9.92220e-01,7.65219e-01,9.99998e-01
7.611705167e-01,7.65553e-01,9.99999e-01,9.95161e-01,7.69275e-01,9.99999e-01
7.649763693e-01,7.70929e-01,9.99999e-01,9.96971e-01,7.73271e-01,9.99999e-01
7.688012511e-01,7.75570e-01,9.99999e-01,9.97892e-01,7.77208e-01,9.99999e-01
7.726452574e-01,7.79733e-01,9.99999e-01,9.98266e-01,7.81087e-01,9.99998e-01
7.765084837e-01,7.82989e-01,9.99999e-01,9.97556e-01,7.84908e-01,9.99996e-01
7.803910261e-01,7.80384e-01,9.99999e-01,9.89500e-01,7.88672e-01,9.99989e-01
7.842929812e-01,7.63733e-01,9.99999e-01,9.63912e-01,7.92379e-01,9.99931e-01
7.882144461e-01,7.37031e-01,9.99999e-01,9.26316e-01,7.96030e-01,9.99532e-01
7.921555184e-01,7.65943e-01,9.99999e-01,9.58744e-01,7.99625e-01,9.99095e-01
7.961162960e-01,7.45681e-01,9.99999e-01,9.29234e-01,8.03164e-01,9.99132e-01
8.000968774e-01,7.39591e-01,9.99999e-01,9.17714e-01,8.06649e-01,9.99077e-01
8.040973618e-01,7.43094e-01,9.99999e-01,9.17981e-01,8.10080e-01,9.99267e-01
8.081178486e-01,6.73676e-01,9.99999e-01,8.28731e-01,8.13457e-01,9.99312e-01
8.121584379e-01,3.86286e-01,9.99999e-01,4.74215e-01,8.16782e-01,9.97302e-01
8.162192301e-01,3.35360e-01,9.99999e-01,4.13124e-01,8.20053e-01,9.89892e-01
8.203003262e-01,5.41703e-01,9.99999e-01,6.65861e-01,8.23273e-01,9.88174e-01
8.244018279e-01,4.76068e-01,9.99999e-01,5.81524e-01,8.26441e-01,9.90577e-01
8.285238370e-01,4.78225e-01,9.99999e-01,5.80783e-01,8.29559e-01,9.92592e-01
8.326664562e-01,4.80743e-01,9.99999e-01,5.79158e-01,8.32627e-01,9.96929e-01
8.368297885e-01,5.57470e-01,9.99999e-01,6.67582e-01,8.35645e-01,9.99297e-01
8.410139374e-01,6.57583e-01,9.99999e-01,7.84452e-01,8.38613e-01,9.99589e-01
8.452190071e-01,7.46057e-01,9.99999e-01,8.86760e-01,8.41534e-01,9.99754e-01
8.494451021e-01,7.87345e-01,9.99999e-01,9.32606e-01,8.44407e-01,9.99802e-01
8.536923276e-01,8.12754e-01,9.99999e-01,9.59429e-01,8.47232e-01,9.99869e-01
8.579607893e-01,8.28637e-01,9.99999e-01,9.74888e-01,8.50011e-01,9.99964e-01
8.622505932e-01,8.39040e-01,9.99999e-01,9.83934e-01,8.52744e-01,9.99994e-01
8.665618462e-01,8.46936e-01,9.99999e-01,9.90071e-01,8.55431e-01,9.99996e-01
8.708946554e-01,8.48343e-01,9.99999e-01,9.88664e-01,8.58074e-01,9.99993e-01
8.752491287e-01,8.47613e-01,9.99999e-01,9.84842e-01,8.60672e-01,9.99983e-01
8.796253743e-01,8.45184e-01,9.99999e-01,9.79144e-01,8.63226e-01,9.99952e-01
8.840235012e-01,8.45017e-01,9.99999e-01,9.76208e-01,8.65738e-01,9.99852e-01
8.884436187e-01,7.98250e-01,9.99999e-01,9.19807e-01,8.68207e-01,9.99582e-01
8.928858368e-01,3.82223e-01,9.99999e-01,4.40077e-01,8.70634e-01,9.97591e-01
8.973502660e-01,2.03465e-01,9.99999e-01,2.35957e-01,8.73019e-01,9.87717e-01
9.018370173e-01,4.07723e-01,9.99999e-01,4.74914e-01,8.75364e-01,9.80755e-01
9.063462024e-01,4.46959e-01,9.99999e-01,5.18024e-01,8.77669e-01,9.83074e-01
9.108779334e-01,3.09552e-01,9.99999e-01,3.58085e-01,8.79934e-01,9.82418e-01
9.154323231e-01,2.62240e-01,9.99999e-01,3.01660e-01,8.82160e-01,9.85445e-01
9.200094847e-01,3.48978e-01,9.99999e-01,3.97867e-01,8.84347e-01,9.91827e-01
9.246095321e-01,2.39094e-01,9.99999e-01,2.72269e-01,8.86497e-01,9.90589e-01
9.292325798e-01,4.81344e-03,9.99999e-01,5.62027e-03,8.88609e-01,9.63798e-01
9.338787427e-01,9.70842e-05,9.99999e-01,1.26948e-04,8.90684e-01,8.58617e-01
9.385481364e-01,1.83087e-02,9.99999e-01,2.45853e-02,8.92723e-01,8.34189e-01
9.432408771e-01,7.21288e-03,9.99999e-01,9.42636e-03,8.94727e-01,8.55212e-01
9.479570815e-01,4.77812e-04,9.99999e-01,6.05194e-04,8.96695e-01,8.80475e-01
9.526968669e-01,2.37079e-03,9.99999e-01,2.85122e-03,8.98628e-01,9.25296e-01
9.574603512e-01,3.50748e-03,9.99999e-01,4.05159e-03,9.00527e-01,9.61329e-01
9.622476530e-01,8.85642e-03,9.99999e-01,1.00857e-02,9.02393e-01,9.73097e-01
9.670588912e-01,5.76584e-02,9.99999e-01,6.49659e-02,9.04225e-01,9.81522e-01
9.718941857e-01,1.23251e-01,9.99999e-01,1.37915e-01,9.06025e-01,9.86364e-01
9.767536566e-01,1.72450e-01,9.99999e-01,1.91969e-01,9.07793e-01,9.89563e-01
9.816374249e-01,2.53961e-01,9.99999e-01,2.80237e-01,9.09529e-01,9.96375e-01
9.865456120e-01,4.03824e-01,9.99999e-01,4.43496e-01,9.11235e-01,9.99243e-01
9.914783401e-01,5.47785e-01,9.99999e-01,6.00169e-01,9.12909e-01,9.99790e-01
9.964357318e-01,6.91886e-01,9.99999e-01,7.56620e-01,9.14554e-01,9.99877e-01
1.001417910e+00,7.74289e-01,9.99999e-01,8.45295e-01,9.16169e-01,9.99812e-01
1.006425000e+00,8.33603e-01,9.99999e-01,9.08549e-01,9.17754e-01,9.99732e-01
1.011457125e+00,8.65833e-01,9.99999e-01,9.42059e-01,9.19312e-01,9.99752e-01
1.016514411e+00,8.84148e-01,9.99999e-01,9.60320e-01,9.20841e-01,9.99825e-01
1.021596983e+00,8.92918e-01,9.99999e-01,9.68268e-01,9.22342e-01,9.99824e-01
1.026704968e+00,9.00775e-01,9.99999e-01,9.75172e-01,9.23816e-01,9.99882e-01
1.031838492e+00,9.08449e-01,9.99999e-01,9.81859e-01,9.25263e-01,9.99967e-01
1.036997685e+00,9.16682e-01,9.99999e-01,9.89211e-01,9.26684e-01,9.99994e-01
1.042182673e+00,9.16193e-01,9.99999e-01,9.87195e-01,9.28078e-01,9.99997e-01
1.047393587e+00,9.13667e-01,9.99999e-01,9.83023e-01,9.29448e-01,9.99996e-01
1.052630555e+00,9.09206e-01,9.99999e-01,9.76814e-01,9.30792e-01,9.99993e-01
1.057893707e+00,8.96394e-01,9.99999e-01,9.61693e-01,9.32111e-01,9.99986e-01
1.063183176e+00,8.75333e-01,9.99999e-01,9.37814e-01,9.33407e-01,9.99965e-01
1.068499092e+00,8.39459e-01,9.99999e-01,8.98191e-01,9.34678e-01,9.99926e-01
1.073841587e+00,8.26349e-01,9.99999e-01,8.83060e-01,9.35926e-01,9.99840e-01
1.079210795e+00,7.97667e-01,9.99999e-01,8.51528e-01,9.37151e-01,9.99568e-01
1.084606849e+00,7.36647e-01,9.99999e-01,7.85858e-01,9.38353e-01,9.98961e-01
1.090029883e+00,6.68021e-01,9.99999e-01,7.12545e-01,9.39533e-01,9.97849e-01
1.095480033e+00,3.74996e-01,9.99999e-01,4.00193e-01,9.40692e-01,9.96113e-01
1.100957433e+00,1.08954e-01,9.99999e-01,1.16516e-01,9.41828e-01,9.92857e-01
1.106462220e+00,8.92824e-03,9.99999e-01,9.58430e-03,9.42944e-01,9.87914e-01
1.111994531e+00,5.81126e-05,9.99999e-01,6.35769e-05,9.44039e-01,9.68235e-01
1.117554504e+00,1.10087e-06,9.99999e-01,1.30878e-06,9.45113e-01,8.89990e-01
1.123142276e+00,9.76261e-05,9.99999e-01,1.36027e-04,9.46168e-01,7.58526e-01
1.128757988e+00,4.61459e-04,9.99999e-01,6.70725e-04,9.47202e-01,7.26349e-01
1.134401778e+00,5.28054e-04,9.99999e-01,7.35583e-04,9.48218e-01,7.57072e-01
1.140073787e+00,5.73063e-03,9.99999e-01,7.54544e-03,9.49214e-01,8.00116e-01
1.145774156e+00,4.17192e-04,9.99999e-01,5.35642e-04,9.50192e-01,8.19690e-01
1.151503026e+00,8.77984e-05,9.99999e-01,1.03119e-04,9.51151e-01,8.95150e-01
1.157260541e+00,7.78257e-05,9.99999e-01,8.44941e-05,9.52092e-01,9.67424e-01
1.163046844e+00,9.06870e-04,9.99999e-01,9.60552e-04,9.53016e-01,9.90657e-01
1.168862078e+00,6.06359e-03,9.99999e-01,6.38728e-03,9.53922e-01,9.95176e-01
1.174706389e+00,3.61194e-02,9.99999e-01,3.80720e-02,9.54812e-01,9.93610e-01
1.180579921e+00,1.20918e-01,9.99999e-01,1.27757e-01,9.55684e-01,9.90354e-01
1.186482820e+00,2.79776e-01,9.99999e-01,2.95412e-01,9.56540e-01,9.90100e-01
1.192415234e+00,4.60306e-01,9.99999e-01,4.84392e-01,9.57380e-01,9.92577e-01
1.198377311e+00,5.18031e-01,9.99999e-01,5.44444e-01,9.58204e-01,9.92987e-01
1.204369197e+00,5.42358e-01,9.99999e-01,5.69149e-01,9.59012e-01,9.93653e-01
1.210391043e+00,5.53593e-01,9.99999e-01,5.79014e-01,9.59806e-01,9.96134e-01
1.216442998e+00,6.01467e-01,9.99999e-01,6.27633e-01,9.60584e-01,9.97630e-01
1.222525213e+00,6.65039e-01,9.99999e-01,6.92797e-01,9.61347e-01,9.98527e-01
1.228637839e+00,7.44597e-01,9.99999e-01,7.74462e-01,9.62096e-01,9.99314e-01
1.234781029e+00,7.96165e-01,9.99999e-01,8.27061e-01,9.62830e-01,9.99804e-01
1.240954934e+00,8.54444e-01,9.99999e-01,8.86814e-01,9.63551e-01,9.99944e-01
1.247159708e+00,8.77857e-01,9.99999e-01,9.10428e-01,9.64258e-01,9.99964e-01
1.253395507e+00,8.87870e-01,9.99999e-01,9.20161e-01,9.64951e-01,9.99953e-01
1.259662485e+00,8.92869e-01,9.99999e-01,9.24714e-01,9.65632e-01,9.99926e-01
1.265960797e+00,8.52352e-01,9.99999e-01,8.82185e-01,9.66299e-01,9.99877e-01
1.272290601e+00,8.04501e-01,9.99999e-01,8.32174e-01,9.66953e-01,9.99783e-01
1.278652054e+00,6.60899e-01,9.99999e-01,6.83293e-01,9.67595e-01,9.99617e-01
1.285045314e+00,5.37749e-01,9.99999e-01,5.55793e-01,9.68225e-01,9.99286e-01
1.291470541e+00,3.01987e-01,9.99999e-01,3.12089e-01,9.68843e-01,9.98748e-01
1.297927893e+00,2.24458e-01,9.99999e-01,2.32073e-01,9.69449e-01,9.97664e-01
1.304417533e+00,1.48399e-01,9.99999e-01,1.53741e-01,9.70043e-01,9.95057e-01
1.310939621e+00,1.15440e-01,9.99999e-01,1.20149e-01,9.70626e-01,9.89879e-01
1.317494319e+00,9.80874e-02,9.99999e-01,1.02915e-01,9.71198e-01,9.81359e-01
1.324081790e+00,3.98064e-02,9.99999e-01,4.22412e-02,9.71759e-01,9.69744e-01
1.330702199e+00,2.83766e-03,9.99999e-01,3.07725e-03,9.72309e-01,9.48402e-01
1.337355710e+00,2.50867e-12,9.99999e-01,2.85566e-12,9.72848e-01,9.03007e-01
1.344042489e+00,3.98031e-18,9.99999e-01,5.56024e-18,9.73377e-01,7.35430e-01
1.350762701e+00,7.52010e-67,9.99999e-01,2.21125e-66,9.73896e-01,3.49198e-01
1.357516515e+00,2.60981e-103,9.99999e-01,5.87296e-102,9.74405e-01,4.56049e-02
1.364304097e+00,1.42531e-62,9.99999e-01,3.27441e-60,9.74904e-01,4.46493e-03
1.371125618e+00,1.21743e-36,9.99999e-01,2.05126e-34,9.75394e-01,6.08477e-03
1.377981246e+00,1.59012e-35,9.99999e-01,1.29230e-33,9.75874e-01,1.26087e-02
1.384871152e+00,8.51019e-51,9.99999e-01,5.36135e-49,9.76345e-01,1.62578e-02
1.391795508e+00,5.03294e-63,9.99999e-01,2.54345e-61,9.76806e-01,2.02576e-02
1.398754485e+00,3.59594e-47,9.99999e-01,9.10675e-46,9.77259e-01,4.04054e-02
1.405748258e+00,1.36459e-46,9.99999e-01,9.10883e-46,9.77703e-01,1.53226e-01
1.412776999e+00,8.89014e-45,9.99998e-01,2.14023e-44,9.78139e-01,4.24665e-01
1.419840884e+00,2.76042e-44,9.99996e-01,4.10653e-44,9.78566e-01,6.86925e-01
1.426940089e+00,5.38224e-28,9.99996e-01,7.31291e-28,9.78985e-01,7.51790e-01
1.434074789e+00,4.94397e-25,9.99996e-01,7.06849e-25,9.79396e-01,7.14151e-01
1.441245163e+00,2.18247e-20,9.99998e-01,3.20759e-20,9.79799e-01,6.94436e-01
1.448451389e+00,7.57046e-13,9.99995e-01,1.06286e-12,9.80194e-01,7.26665e-01
1.455693646e+00,6.20265e-09,9.99997e-01,8.10943e-09,9.80581e-01,7.80015e-01
1.462972114e+00,7.38970e-09,9.99998e-01,9.54725e-09,9.80961e-01,7.89035e-01
1.470286975e+00,1.45552e-09,9.99998e-01,1.87220e-09,9.81333e-01,7.92225e-01
