#,Wave/freq,Total,N2,H2O,Rayleigh,CIA
4.000000000e-01,5.63116e-01,9.99999e-01,9.99934e-01,5.63153e-01,9.99999e-01
4.020000000e-01,5.69560e-01,9.99999e-01,9.99959e-01,5.69583e-01,9.99999e-01
4.040100000e-01,5.75941e-01,9.99999e-01,9.99982e-01,5.75951e-01,9.99999e-01
4.060300500e-01,5.82260e-01,9.99999e-01,9.99995e-01,5.82262e-01,9.99999e-01
4.080602003e-01,5.88515e-01,9.99999e-01,9.99998e-01,5.88515e-01,9.99999e-01
4.101005013e-01,5.94711e-01,9.99999e-01,9.99999e-01,5.94711e-01,9.99999e-01
4.121510038e-01,6.00845e-01,9.99999e-01,9.99997e-01,6.00847e-01,9.99999e-01
4.142117588e-01,6.06912e-01,9.99999e-01,9.99981e-01,6.06923e-01,9.99999e-01
4.162828176e-01,6.12890e-01,9.99999e-01,9.99919e-01,6.12939e-01,9.99999e-01
4.183642317e-01,6.18865e-01,9.99999e-01,9.99951e-01,6.18894e-01,9.99999e-01
4.204560528e-01,6.24769e-01,9.99999e-01,9.99970e-01,6.24788e-01,9.99999e-01
4.225583331e-01,6.30612e-01,9.99999e-01,9.99988e-01,6.30619e-01,9.99999e-01
4.246711247e-01,6.36383e-01,9.99999e-01,9.99990e-01,6.36388e-01,9.99999e-01
4.267944804e-01,6.42087e-01,9.99999e-01,9.99986e-01,6.42095e-01,9.99999e-01
4.289284528e-01,6.47732e-01,9.99999e-01,9.99989e-01,6.47738e-01,9.99999e-01
4.310730950e-01,6.53316e-01,9.99999e-01,9.99995e-01,6.53319e-01,9.99999e-01
4.332284605e-01,6.58834e-01,9.99999e-01,9.99998e-01,6.58835e-01,9.99999e-01
4.353946028e-01,6.64288e-01,9.99999e-01,9.99999e-01,6.64288e-01,9.99999e-01
4.375715758e-01,6.69671e-01,9.99999e-01,9.99991e-01,6.69677e-01,9.99999e-01
4.397594337e-01,6.74954e-01,9.99999e-01,9.99928e-01,6.75002e-01,9.99999e-01
4.419582309e-01,6.80018e-01,9.99999e-01,9.99639e-01,6.80262e-01,9.99999e-01
4.441680220e-01,6.85268e-01,9.99999e-01,9.99721e-01,6.85459e-01,9.99999e-01
4.463888621e-01,6.90391e-01,9.99999e-01,9.99708e-01,6.90592e-01,9.99999e-01
4.486208064e-01,6.95535e-01,9.99999e-01,9.99819e-01,6.95660e-01,9.99999e-01
4.508639105e-01,7.00605e-01,9.99999e-01,9.99915e-01,7.00664e-01,9.99999e-01
4.531182300e-01,7.05581e-01,9.99999e-01,9.99966e-01,7.05605e-01,9.99999e-01
4.553838212e-01,7.10466e-01,9.99999e-01,9.99976e-01,7.10482e-01,9.99999e-01
4.576607403e-01,7.15287e-01,9.99999e-01,9.99989e-01,7.15295e-01,9.99999e-01
4.599490440e-01,7.20039e-01,9.99999e-01,9.99992e-01,7.20045e-01,9.99999e-01
4.622487892e-01,7.24730e-01,9.99999e-01,9.99998e-01,7.24731e-01,9.99999e-01
4.645600332e-01,7.29351e-01,9.99999e-01,9.99994e-01,7.29355e-01,9.99999e-01
4.668828333e-01,7.33853e-01,9.99999e-01,9.99913e-01,7.33915e-01,9.99999e-01
4.692172475e-01,7.38279e-01,9.99999e-01,9.99817e-01,7.38414e-01,9.99999e-01
4.715633337e-01,7.42762e-01,9.99999e-01,9.99880e-01,7.42850e-01,9.99999e-01
4.739211504e-01,7.47140e-01,9.99999e-01,9.99885e-01,7.47225e-01,9.99999e-01
4.762907561e-01,7.51494e-01,9.99999e-01,9.99940e-01,7.51538e-01,9.99999e-01
4.786722099e-01,7.55772e-01,9.99999e-01,9.99975e-01,7.55790e-01,9.99999e-01
4.810655710e-01,7.59976e-01,9.99999e-01,9.99992e-01,7.59981e-01,9.99999e-01
4.834708988e-01,7.64059e-01,9.99999e-01,9.99929e-01,7.64113e-01,9.99999e-01
4.858882533e-01,7.68085e-01,9.99999e-01,9.99870e-01,7.68184e-01,9.99999e-01
4.883176946e-01,7.72113e-01,9.99999e-01,9.99891e-01,7.72196e-01,9.99999e-01
4.907592831e-01,7.76074e-01,9.99999e-01,9.99902e-01,7.76149e-01,9.99999e-01
4.932130795e-01,7.79990e-01,9.99999e-01,9.99930e-01,7.80044e-01,9.99999e-01
4.956791449e-01,7.83852e-01,9.99999e-01,9.99962e-01,7.83881e-01,9.99999e-01
4.981575406e-01,7.87516e-01,9.99999e-01,9.99816e-01,7.87660e-01,9.99999e-01
5.006483283e-01,7.91003e-01,9.99999e-01,9.99522e-01,7.91382e-01,9.99996e-01
5.031515699e-01,7.93114e-01,9.99999e-01,9.97591e-01,7.95048e-01,9.99974e-01
5.056673278e-01,7.97621e-01,9.99999e-01,9.98729e-01,7.98658e-01,9.99970e-01
5.081956644e-01,8.00914e-01,9.99999e-01,9.98398e-01,8.02213e-01,9.99981e-01
5.107366428e-01,8.04839e-01,9.99999e-01,9.98918e-01,8.05713e-01,9.99996e-01
5.132903260e-01,8.08658e-01,9.99999e-01,9.99382e-01,8.09158e-01,9.99999e-01
5.158567776e-01,8.12338e-01,9.99999e-01,9.99738e-01,8.12550e-01,9.99999e-01
5.184360615e-01,8.15803e-01,9.99999e-01,9.99895e-01,8.15888e-01,9.99999e-01
5.210282418e-01,8.19142e-01,9.99999e-01,9.99960e-01,8.19174e-01,9.99999e-01
5.236333830e-01,8.22278e-01,9.99999e-01,9.99842e-01,8.22408e-01,9.99998e-01
5.262515499e-01,8.25508e-01,9.99999e-01,9.99901e-01,8.25590e-01,9.99997e-01
5.288828077e-01,8.28646e-01,9.99999e-01,9.99909e-01,8.28721e-01,9.99998e-01
5.315272217e-01,8.31736e-01,9.99999e-01,9.99920e-01,8.31802e-01,9.99999e-01
5.341848578e-01,8.34790e-01,9.99999e-01,9.99947e-01,8.34833e-01,9.99999e-01
5.368557821e-01,8.37662e-01,9.99999e-01,9.99816e-01,8.37816e-01,9.99999e-01
5.395400610e-01,8.40188e-01,9.99999e-01,9.99337e-01,8.40749e-01,9.99994e-01
5.422377613e-01,8.42904e-01,9.99999e-01,9.99148e-01,8.43635e-01,9.99984e-01
5.449489501e-01,8.45788e-01,9.99999e-01,9.99205e-01,8.46473e-01,9.99983e-01
5.476736949e-01,8.48663e-01,9.99999e-01,9.99298e-01,8.49264e-01,9.99991e-01
5.504120634e-01,8.51574e-01,9.99999e-01,9.99490e-01,8.52010e-01,9.99997e-01
5.531641237e-01,8.54490e-01,9.99999e-01,9.99743e-01,8.54709e-01,9.99999e-01
5.559299443e-01,8.57258e-01,9.99999e-01,9.99876e-01,8.57364e-01,9.99999e-01
5.587095940e-01,8.59907e-01,9.99999e-01,9.99921e-01,8.59974e-01,9.99999e-01
5.615031420e-01,8.62466e-01,9.99999e-01,9.99913e-01,8.62540e-01,9.99999e-01
5.643106577e-01,8.64977e-01,9.99999e-01,9.99901e-01,8.65063e-01,9.99998e-01
5.671322110e-01,8.66495e-01,9.99999e-01,9.98801e-01,8.67543e-01,9.99988e-01
5.699678720e-01,8.68856e-01,9.99999e-01,9.98737e-01,8.69982e-01,9.99967e-01
5.728177114e-01,8.71204e-01,9.99999e-01,9.98680e-01,8.72379e-01,9.99972e-01
5.756818000e-01,8.73662e-01,9.99999e-01,9.98789e-01,8.74734e-01,9.99983e-01
5.785602090e-01,8.76122e-01,9.99999e-01,9.98945e-01,8.77050e-01,9.99995e-01
5.814530100e-01,8.78392e-01,9.99999e-01,9.98940e-01,8.79325e-01,9.99997e-01
5.843602750e-01,8.80440e-01,9.99999e-01,9.98733e-01,8.81562e-01,9.99992e-01
5.872820764e-01,8.74102e-01,9.99999e-01,9.89147e-01,8.83760e-01,9.99923e-01
5.902184868e-01,8.74124e-01,9.99999e-01,9.86890e-01,8.85919e-01,9.99791e-01
5.931695792e-01,8.79625e-01,9.99999e-01,9.90719e-01,8.88042e-01,9.99799e-01
5.961354271e-01,8.80977e-01,9.99999e-01,9.89833e-01,8.90127e-01,9.99884e-01
5.991161043e-01,8.85522e-01,9.99999e-01,9.92577e-01,8.92176e-01,9.99963e-01
6.021116848e-01,8.90415e-01,9.99999e-01,9.95784e-01,8.94188e-01,9.99995e-01
6.051222432e-01,8.94253e-01,9.99999e-01,9.97865e-01,8.96166e-01,9.99999e-01
6.081478544e-01,8.97281e-01,9.99999e-01,9.99078e-01,8.98109e-01,9.99999e-01
6.111885937e-01,8.99667e-01,9.99999e-01,9.99610e-01,9.00017e-01,9.99999e-01
6.142445367e-01,9.01735e-01,9.99999e-01,9.99825e-01,9.01892e-01,9.99999e-01
6.173157594e-01,9.03646e-01,9.99999e-01,9.99903e-01,9.03733e-01,9.99999e-01
6.204023382e-01,9.05468e-01,9.99999e-01,9.99918e-01,9.05542e-01,9.99999e-01
6.235043498e-01,9.06991e-01,9.99999e-01,9.99639e-01,9.07318e-01,9.99998e-01
6.266218716e-01,9.07327e-01,9.99999e-01,9.98102e-01,9.09063e-01,9.99986e-01
6.297549810e-01,9.10119e-01,9.99999e-01,9.99303e-01,9.10777e-01,9.99972e-01
6.329037559e-01,9.11187e-01,9.99999e-01,9.98625e-01,9.12459e-01,9.99978e-01
6.360682746e-01,9.13030e-01,9.99999e-01,9.98827e-01,9.14112e-01,9.99986e-01
6.392486160e-01,9.14341e-01,9.99999e-01,9.98482e-01,9.15735e-01,9.99993e-01
6.424448591e-01,9.15453e-01,9.99999e-01,9.97963e-01,9.17329e-01,9.99990e-01
6.456570834e-01,9.10191e-01,9.99999e-01,9.90580e-01,9.18893e-01,9.99947e-01
6.488853688e-01,9.13968e-01,9.99999e-01,9.93124e-01,9.20430e-01,9.99853e-01
6.521297956e-01,9.15369e-01,9.99999e-01,9.92993e-01,9.21939e-01,9.99878e-01
6.553904446e-01,9.16882e-01,9.99999e-01,9.93008e-01,9.23420e-01,9.99909e-01
6.586673968e-01,9.19317e-01,9.99999e-01,9.94020e-01,9.24874e-01,9.99969e-01
6.619607338e-01,9.23206e-01,9.99999e-01,9.96663e-01,9.26302e-01,9.99993e-01
6.652705375e-01,9.25842e-01,9.99999e-01,9.97996e-01,9.27704e-01,9.99996e-01
6.685968902e-01,9.28288e-01,9.99999e-01,9.99147e-01,9.29080e-01,9.99998e-01
6.719398746e-01,9.30030e-01,9.99999e-01,9.99568e-01,9.30431e-01,9.99999e-01
6.752995740e-01,9.31539e-01,9.99999e-01,9.99765e-01,9.31757e-01,9.99999e-01
6.786760719e-01,9.32742e-01,9.99999e-01,9.99661e-01,9.33059e-01,9.99999e-01
6.820694522e-01,9.33793e-01,9.99999e-01,9.99420e-01,9.34337e-01,9.99996e-01
6.854797995e-01,9.34886e-01,9.99999e-01,9.99252e-01,9.35591e-01,9.99993e-01
6.889071985e-01,9.35105e-01,9.99999e-01,9.98183e-01,9.36822e-01,9.99983e-01
6.923517345e-01,9.10561e-01,9.99999e-01,9.70852e-01,9.38030e-01,9.99858e-01
6.958134932e-01,9.24708e-01,9.99999e-01,9.84859e-01,9.39216e-01,9.99686e-01
6.992925606e-01,9.26471e-01,9.99999e-01,9.85485e-01,9.40381e-01,9.99717e-01
7.027890234e-01,9.24524e-01,9.99999e-01,9.82156e-01,9.41523e-01,9.99784e-01
7.063029686e-01,9.28374e-01,9.99999e-01,9.84965e-01,9.42644e-01,9.99892e-01
7.098344834e-01,9.30067e-01,9.99999e-01,9.85568e-01,9.43745e-01,9.99936e-01
7.133836558e-01,9.26529e-01,9.99999e-01,9.80759e-01,9.44825e-01,9.99873e-01
7.169505741e-01,8.09786e-01,9.99999e-01,8.56963e-01,9.45884e-01,9.99008e-01
7.205353270e-01,8.76681e-01,9.99999e-01,9.27439e-01,9.46924e-01,9.98251e-01
7.241380036e-01,8.59560e-01,9.99999e-01,9.08131e-01,9.47945e-01,9.98490e-01
7.277586936e-01,8.68889e-01,9.99999e-01,9.16766e-01,9.48946e-01,9.98765e-01
7.313974871e-01,8.65521e-01,9.99999e-01,9.11669e-01,9.49929e-01,9.99421e-01
7.350544745e-01,9.03776e-01,9.99999e-01,9.50639e-01,9.50894e-01,9.99798e-01
7.387297469e-01,9.16915e-01,9.99999e-01,9.63396e-01,9.51840e-01,9.99907e-01
7.424233956e-01,9.35531e-01,9.99999e-01,9.81925e-01,9.52768e-01,9.99981e-01
7.461355126e-01,9.43188e-01,9.99999e-01,9.89001e-01,9.53679e-01,9.99996e-01
7.498661902e-01,9.49675e-01,9.99999e-01,9.94869e-01,9.54573e-01,9.99998e-01
7.536155211e-01,9.53040e-01,9.99999e-01,9.97478e-01,9.55450e-01,9.99998e-01
7.573835987e-01,9.55069e-01,9.99999e-01,9.98701e-01,9.56310e-01,9.99999e-01
7.611705167e-01,9.56382e-01,9.99999e-01,9.99192e-01,9.57155e-01,9.99999e-01
7.649763693e-01,9.57498e-01,9.99999e-01,9.99493e-01,9.57983e-01,9.99999e-01
7.688012511e-01,9.58457e-01,9.99999e-01,9.99647e-01,9.58795e-01,9.99999e-01
7.726452574e-01,9.59314e-01,9.99999e-01,9.99709e-01,9.59593e-01,9.99999e-01
7.765084837e-01,9.59977e-01,9.99999e-01,9.99586e-01,9.60375e-01,9.99999e-01
7.803910261e-01,9.59423e-01,9.99999e-01,9.98212e-01,9.61142e-01,9.99997e-01
7.842929812e-01,9.55896e-01,9.99999e-01,9.93774e-01,9.61895e-01,9.99988e-01
7.882144461e-01,9.50276e-01,9.99999e-01,9.87249e-01,9.62633e-01,9.99911e-01
7.921555184e-01,9.56472e-01,9.99999e-01,9.93003e-01,9.63357e-01,9.99846e-01
7.961162960e-01,9.51994e-01,9.99999e-01,9.87618e-01,9.64068e-01,9.99854e-01
8.000968774e-01,9.50850e-01,9.99999e-01,9.85728e-01,9.64765e-01,9.99844e-01
8.040973618e-01,9.51552e-01,9.99999e-01,9.85721e-01,9.65449e-01,9.99881e-01
8.081178486e-01,9.35174e-01,9.99999e-01,9.68083e-01,9.66120e-01,9.99880e-01
8.121584379e-01,8.44808e-01,9.99999e-01,8.74234e-01,9.66778e-01,9.99547e-01
8.162192301e-01,8.24050e-01,9.99999e-01,8.53249e-01,9.67423e-01,9.98299e-01
8.203003262e-01,8.93413e-01,9.99999e-01,9.24734e-01,9.68056e-01,9.98008e-01
8.244018279e-01,8.68453e-01,9.99999e-01,8.97957e-01,9.68677e-01,9.98414e-01
8.285238370e-01,8.80073e-01,9.99999e-01,9.09091e-01,9.69286e-01,9.98754e-01
8.326664562e-01,8.80590e-01,9.99999e-01,9.08401e-01,9.69884e-01,9.99484e-01
8.368297885e-01,9.05775e-01,9.99999e-01,9.33446e-01,9.70470e-01,9.99881e-01
8.410139374e-01,9.32019e-01,9.99999e-01,9.59876e-01,9.71044e-01,9.99930e-01
8.452190071e-01,9.52250e-01,9.99999e-01,9.80116e-01,9.71608e-01,9.99958e-01
8.494451021e-01,9.60852e-01,9.99999e-01,9.88399e-01,9.72161e-01,9.99966e-01
8.536923276e-01,9.66005e-01,9.99999e-01,9.93133e-01,9.72703e-01,9.99979e-01
8.579607893e-01,9.69106e-01,9.99999e-01,9.95761e-01,9.73235e-01,9.99994e-01
8.622505932e-01,9.71135e-01,9.99999e-01,9.97307e-01,9.73757e-01,9.99998e-01
8.665618462e-01,9.72643e-01,9.99999e-01,9.98331e-01,9.74268e-01,9.99999e-01
8.708946554e-01,9.72907e-01,9.99999e-01,9.98088e-01,9.74770e-01,9.99998e-01
8.752491287e-01,9.72768e-01,9.99999e-01,9.97444e-01,9.75262e-01,9.99996e-01
8.796253743e-01,9.72283e-01,9.99999e-01,9.96458e-01,9.75745e-01,9.99991e-01
8.840235012e-01,9.72248e-01,9.99999e-01,9.95957e-01,9.76218e-01,9.99974e-01
8.884436187e-01,9.62249e-01,9.99999e-01,9.85290e-01,9.76682e-01,9.99929e-01
8.928858368e-01,8.37152e-01,9.99999e-01,8.57084e-01,9.77138e-01,9.99595e-01
8.973502660e-01,7.44132e-01,9.99999e-01,7.62771e-01,9.77584e-01,9.97931e-01
9.018370173e-01,8.49336e-01,9.99999e-01,8.71253e-01,9.78022e-01,9.96749e-01
9.063462024e-01,8.63268e-01,9.99999e-01,8.84806e-01,9.78451e-01,9.97143e-01
9.108779334e-01,8.06791e-01,9.99999e-01,8.26656e-01,9.78873e-01,9.97032e-01
9.154323231e-01,7.86484e-01,9.99999e-01,8.05095e-01,9.79285e-01,9.97546e-01
9.200094847e-01,8.26109e-01,9.99999e-01,8.44394e-01,9.79690e-01,9.98625e-01
9.246095321e-01,7.56249e-01,9.99999e-01,7.72836e-01,9.80088e-01,9.98416e-01
9.292325798e-01,1.93559e-01,9.99999e-01,1.98636e-01,9.80477e-01,9.93841e-01
9.338787427e-01,1.19108e-01,9.99999e-01,1.24573e-01,9.80859e-01,9.74786e-01
9.385481364e-01,4.07361e-01,9.99999e-01,4.27953e-01,9.81233e-01,9.70084e-01
9.432408771e-01,3.05832e-01,9.99999e-01,3.19835e-01,9.81601e-01,9.74138e-01
9.479570815e-01,1.98932e-01,9.99999e-01,2.06953e-01,9.81961e-01,9.78900e-01
9.526968669e-01,2.86599e-01,9.99999e-01,2.95578e-01,9.82314e-01,9.87077e-01
9.574603512e-01,3.05481e-01,9.99999e-01,3.12932e-01,9.82660e-01,9.93414e-01
9.622476530e-01,3.74407e-01,9.99999e-01,3.82626e-01,9.83000e-01,9.95441e-01
9.670588912e-01,5.60256e-01,9.99999e-01,5.71535e-01,9.83333e-01,9.96880e-01
9.718941857e-01,6.85509e-01,9.99999e-01,6.98500e-01,9.83659e-01,9.97702e-01
9.767536566e-01,7.28851e-01,9.99999e-01,7.42020e-01,9.83979e-01,9.98243e-01
9.816374249e-01,7.87864e-01,9.99999e-01,8.00922e-01,9.84293e-01,9.99391e-01
9.865456120e-01,8.56647e-01,9.99999e-01,8.70155e-01,9.84601e-01,9.99872e-01
9.914783401e-01,9.03558e-01,9.99999e-01,9.17439e-01,9.84903e-01,9.99964e-01
9.964357318e-01,9.40015e-01,9.99999e-01,9.54156e-01,9.85199e-01,9.99978e-01
1.001417910e+00,9.58119e-01,9.99999e-01,9.72257e-01,9.85489e-01,9.99968e-01
1.006425000e+00,9.70033e-01,9.99999e-01,9.84075e-01,9.85774e-01,9.99954e-01
1.011457125e+00,9.76248e-01,9.99999e-01,9.90097e-01,9.86053e-01,9.99958e-01
1.016514411e+00,9.79653e-01,9.99999e-01,9.93263e-01,9.86326e-01,9.99970e-01
1.021596983e+00,9.81266e-01,9.99999e-01,9.94627e-01,9.86595e-01,9.99970e-01
1.026704968e+00,9.82702e-01,9.99999e-01,9.95806e-01,9.86858e-01,9.99981e-01
1.031838492e+00,9.84103e-01,9.99999e-01,9.96953e-01,9.87115e-01,9.99994e-01
1.036997685e+00,9.85579e-01,9.99999e-01,9.98187e-01,9.87368e-01,9.99998e-01
1.042182673e+00,9.85480e-01,9.99999e-01,9.97837e-01,9.87616e-01,9.99999e-01
1.047393587e+00,9.85028e-01,9.99999e-01,9.97134e-01,9.87859e-01,9.99998e-01
1.052630555e+00,9.84212e-01,9.99999e-01,9.96067e-01,9.88098e-01,9.99998e-01
1.057893707e+00,9.81846e-01,9.99999e-01,9.93439e-01,9.88331e-01,9.99997e-01
1.063183176e+00,9.77911e-01,9.99999e-01,9.89232e-01,9.88561e-01,9.99993e-01
1.068499092e+00,9.71020e-01,9.99999e-01,9.82044e-01,9.88785e-01,9.99987e-01
1.073841587e+00,9.68234e-01,9.99999e-01,9.79023e-01,9.89005e-01,9.99972e-01
1.079210795e+00,9.62652e-01,9.99999e-01,9.73211e-01,9.89221e-01,9.99927e-01
1.084606849e+00,9.49427e-01,9.99999e-01,9.59732e-01,9.89433e-01,9.99825e-01
1.090029883e+00,9.32556e-01,9.99999e-01,9.42656e-01,9.89641e-01,9.99638e-01
1.095480033e+00,8.42389e-01,9.99999e-01,8.51586e-01,9.89844e-01,9.99347e-01
1.100957433e+00,6.60124e-01,9.99999e-01,6.67563e-01,9.90044e-01,9.98799e-01
1.106462220e+00,3.66750e-01,9.99999e-01,3.71120e-01,9.90240e-01,9.97964e-01
1.111994531e+00,1.29287e-01,9.99999e-01,1.31243e-01,9.90431e-01,9.94606e-01
1.117554504e+00,4.03900e-02,9.99999e-01,4.15763e-02,9.90620e-01,9.80664e-01
1.123142276e+00,1.06777e-01,9.99999e-01,1.12875e-01,9.90804e-01,9.54755e-01
1.128757988e+00,2.06486e-01,9.99999e-01,2.19829e-01,9.90985e-01,9.47847e-01
1.134401778e+00,9.31794e-02,9.99999e-01,9.83907e-02,9.91162e-01,9.55477e-01
1.140073787e+00,3.71821e-01,9.99999e-01,3.88970e-01,9.91336e-01,9.64264e-01
1.145774156e+00,1.51204e-01,9.99999e-01,1.57664e-01,9.91506e-01,9.67239e-01
1.151503026e+00,1.26465e-01,9.99999e-01,1.29915e-01,9.91673e-01,9.81615e-01
1.157260541e+00,1.59610e-01,9.99999e-01,1.61819e-01,9.91837e-01,9.94466e-01
1.163046844e+00,2.54681e-01,9.99999e-01,2.57139e-01,9.91998e-01,9.98428e-01
1.168862078e+00,3.75692e-01,9.99999e-01,3.78969e-01,9.92155e-01,9.99189e-01
1.174706389e+00,5.43611e-01,9.99999e-01,5.48412e-01,9.92309e-01,9.98926e-01
1.180579921e+00,6.85910e-01,9.99999e-01,6.92243e-01,9.92461e-01,9.98377e-01
1.186482820e+00,8.03787e-01,9.99999e-01,8.11122e-01,9.92609e-01,9.98334e-01
1.192415234e+00,8.77182e-01,9.99999e-01,8.84687e-01,9.92755e-01,9.98752e-01
1.198377311e+00,8.94416e-01,9.99999e-01,9.01876e-01,9.92897e-01,9.98821e-01
1.204369197e+00,8.99902e-01,9.99999e-01,9.07178e-01,9.93037e-01,9.98933e-01
1.210391043e+00,9.04098e-01,9.99999e-01,9.10901e-01,9.93174e-01,9.99351e-01
1.216442998e+00,9.17195e-01,9.99999e-01,9.23740e-01,9.93308e-01,9.99602e-01
1.222525213e+00,9.33609e-01,9.99999e-01,9.40005e-01,9.93440e-01,9.99752e-01
1.228637839e+00,9.51657e-01,9.99999e-01,9.57925e-01,9.93569e-01,9.99884e-01
1.234781029e+00,9.62466e-01,9.99999e-01,9.68603e-01,9.93696e-01,9.99966e-01
1.240954934e+00,9.73960e-01,9.99999e-01,9.80024e-01,9.93820e-01,9.99990e-01
1.247159708e+00,9.78444e-01,9.99999e-01,9.84412e-01,9.93942e-01,9.99993e-01
1.253395507e+00,9.80279e-01,9.99999e-01,9.86143e-01,9.94061e-01,9.99991e-01
1.259662485e+00,9.81066e-01,9.99999e-01,9.86822e-01,9.94178e-01,9.99987e-01
1.265960797e+00,9.73438e-01,9.99999e-01,9.79045e-01,9.94292e-01,9.99979e-01
1.272290601e+00,9.61808e-01,9.99999e-01,9.67253e-01,9.94405e-01,9.99963e-01
1.278652054e+00,9.30877e-01,9.99999e-01,9.36069e-01,9.94515e-01,9.99935e-01
1.285045314e+00,8.82437e-01,9.99999e-01,8.87313e-01,9.94623e-01,9.99879e-01
1.291470541e+00,8.07687e-01,9.99999e-01,8.12137e-01,9.94729e-01,9.99789e-01
1.297927893e+00,7.40401e-01,9.99999e-01,7.44538e-01,9.94833e-01,9.99607e-01
1.304417533e+00,7.03589e-01,9.99999e-01,7.07758e-01,9.94935e-01,9.99169e-01
1.310939621e+00,6.68318e-01,9.99999e-01,6.72798e-01,9.95034e-01,9.98296e-01
1.317494319e+00,6.46772e-01,9.99999e-01,6.51987e-01,9.95132e-01,9.96852e-01
1.324081790e+00,5.26639e-01,9.99999e-01,5.31894e-01,9.95228e-01,9.94865e-01
1.330702199e+00,1.46096e-01,9.99999e-01,1.48091e-01,9.95322e-01,9.91164e-01
1.337355710e+00,3.54226e-03,9.99999e-01,3.61992e-03,9.95414e-01,9.83053e-01
1.344042489e+00,6.60553e-05,9.99999e-01,6.98589e-05,9.95505e-01,9.49822e-01
1.350762701e+00,5.93450e-13,9.99999e-01,7.10965e-13,9.95593e-01,8.38403e-01
1.357516515e+00,4.05660e-19,9.99999e-01,6.83424e-19,9.95680e-01,5.96144e-01
1.364304097e+00,3.40559e-12,9.99999e-01,8.46737e-12,9.95765e-01,4.03911e-01
1.371125618e+00,6.00310e-08,9.99999e-01,1.41702e-07,9.95849e-01,4.25408e-01
1.377981246e+00,2.20680e-07,9.99999e-01,4.61017e-07,9.95930e-01,4.80635e-01
1.384871152e+00,2.27229e-10,9.99999e-01,4.51535e-10,9.96011e-01,5.05252e-01
1.391795508e+00,3.63863e-12,9.99999e-01,7.00260e-12,9.96089e-01,5.21650e-01
1.398754485e+00,1.19605e-09,9.99999e-01,2.05529e-09,9.96166e-01,5.84176e-01
1.405748258e+00,1.63930e-09,9.99999e-01,2.25305e-09,9.96242e-01,7.30336e-01
1.412776999e+00,2.43349e-09,9.99999e-01,2.81931e-09,9.96316e-01,8.66340e-01
1.419840884e+00,5.01408e-09,9.99999e-01,5.35900e-09,9.96389e-01,9.39027e-01
1.426940089e+00,1.53792e-06,9.99998e-01,1.61894e-06,9.96460e-01,9.53329e-01
1.434074789e+00,1.45360e-05,9.99999e-01,1.54329e-05,9.96530e-01,9.45161e-01
1.441245163e+00,1.07144e-04,9.99999e-01,1.14282e-04,9.96598e-01,9.40739e-01
1.448451389e+00,1.89216e-03,9.99998e-01,2.00280e-03,9.96665e-01,9.47916e-01
1.455693646e+00,1.37313e-02,9.99999e-01,1.43618e-02,9.96731e-01,9.59233e-01
1.462972114e+00,2.01476e-02,9.99999e-01,2.10308e-02,9.96795e-01,9.61083e-01
1.470286975e+00,1.12171e-02,9.99999e-01,1.17001e-02,9.96858e-01,9.61733e-01
