#,Wave/freq,Total,N2,H2O,Rayleigh,CIA
4.000000000e-01,3.73199e-02,9.99999e-01,9.99629e-01,3.73337e-02,9.99999e-01
4.020000000e-01,3.98322e-02,9.99999e-01,9.99770e-01,3.98414e-02,9.99999e-01
4.040100000e-01,4.24560e-02,9.99999e-01,9.99902e-01,4.24601e-02,9.99999e-01
4.060300500e-01,4.51931e-02,9.99999e-01,9.99977e-01,4.51941e-02,9.99999e-01
4.080602003e-01,4.80446e-02,9.99999e-01,9.99992e-01,4.80449e-02,9.99999e-01
4.101005013e-01,5.10138e-02,9.99999e-01,9.99998e-01,5.10139e-02,9.99999e-01
4.121510038e-01,5.41014e-02,9.99999e-01,9.99985e-01,5.41022e-02,9.99999e-01
4.142117588e-01,5.73049e-02,9.99999e-01,9.99896e-01,5.73108e-02,9.99999e-01
4.162828176e-01,6.06129e-02,9.99999e-01,9.99540e-01,6.06407e-02,9.99999e-01
4.183642317e-01,6.40751e-02,9.99999e-01,9.99726e-01,6.40926e-02,9.99999e-01
4.204560528e-01,6.76556e-02,9.99999e-01,9.99832e-01,6.76669e-02,9.99999e-01
4.225583331e-01,7.13596e-02,9.99999e-01,9.99937e-01,7.13640e-02,9.99999e-01
4.246711247e-01,7.51804e-02,9.99999e-01,9.99949e-01,7.51841e-02,9.99999e-01
4.267944804e-01,7.91213e-02,9.99999e-01,9.99926e-01,7.91271e-02,9.99999e-01
4.289284528e-01,8.31881e-02,9.99999e-01,9.99942e-01,8.31929e-02,9.99999e-01
4.310730950e-01,8.73789e-02,9.99999e-01,9.99975e-01,8.73810e-02,9.99999e-01
4.332284605e-01,9.16904e-02,9.99999e-01,9.99993e-01,9.16910e-02,9.99999e-01
4.353946028e-01,9.61219e-02,9.99999e-01,9.99996e-01,9.61221e-02,9.99999e-01
4.375715758e-01,1.00669e-01,9.99999e-01,9.99953e-01,1.00673e-01,9.99999e-01
4.397594337e-01,1.05301e-01,9.99999e-01,9.99594e-01,1.05344e-01,9.99999e-01
4.419582309e-01,1.09906e-01,9.99999e-01,9.97940e-01,1.10133e-01,9.99999e-01
4.441680220e-01,1.14855e-01,9.99999e-01,9.98406e-01,1.15038e-01,9.99999e-01
4.463888621e-01,1.19858e-01,9.99999e-01,9.98336e-01,1.20058e-01,9.99999e-01
4.486208064e-01,1.25063e-01,9.99999e-01,9.98969e-01,1.25192e-01,9.99999e-01
4.508639105e-01,1.30374e-01,9.99999e-01,9.99517e-01,1.30437e-01,9.99999e-01
4.531182300e-01,1.35766e-01,9.99999e-01,9.99809e-01,1.35792e-01,9.99999e-01
4.553838212e-01,1.41236e-01,9.99999e-01,9.99870e-01,1.41254e-01,9.99999e-01
4.576607403e-01,1.46813e-01,9.99999e-01,9.99940e-01,1.46822e-01,9.99999e-01
4.599490440e-01,1.52486e-01,9.99999e-01,9.99957e-01,1.52493e-01,9.99999e-01
4.622487892e-01,1.58263e-01,9.99999e-01,9.99992e-01,1.58264e-01,9.99999e-01
4.645600332e-01,1.64128e-01,9.99999e-01,9.99970e-01,1.64133e-01,9.99999e-01
4.668828333e-01,1.70014e-01,9.99999e-01,9.99509e-01,1.70097e-01,9.99999e-01
4.692172475e-01,1.75971e-01,9.99999e-01,9.98956e-01,1.76154e-01,9.99999e-01
4.715633337e-01,1.82177e-01,9.99999e-01,9.99317e-01,1.82301e-01,9.99999e-01
4.739211504e-01,1.88411e-01,9.99999e-01,9.99348e-01,1.88534e-01,9.99999e-01
4.762907561e-01,1.94785e-01,9.99999e-01,9.99662e-01,1.94851e-01,9.99999e-01
4.786722099e-01,2.01221e-01,9.99999e-01,9.99861e-01,2.01249e-01,9.99999e-01
4.810655710e-01,2.07715e-01,9.99999e-01,9.99958e-01,2.07724e-01,9.99999e-01
4.834708988e-01,2.14187e-01,9.99999e-01,9.99596e-01,2.14273e-01,9.99999e-01
4.858882533e-01,2.20730e-01,9.99999e-01,9.99262e-01,2.20893e-01,9.99999e-01
4.883176946e-01,2.27440e-01,9.99999e-01,9.99380e-01,2.27581e-01,9.99999e-01
4.907592831e-01,2.34203e-01,9.99999e-01,9.99441e-01,2.34334e-01,9.99999e-01
4.932130795e-01,2.41052e-01,9.99999e-01,9.99603e-01,2.41147e-01,9.99999e-01
4.956791449e-01,2.47966e-01,9.99999e-01,9.99790e-01,2.48018e-01,9.99999e-01
4.981575406e-01,2.54676e-01,9.99999e-01,9.98949e-01,2.54943e-01,9.99999e-01
5.006483283e-01,2.61201e-01,9.99999e-01,9.97273e-01,2.61920e-01,9.99981e-01
5.031515699e-01,2.65227e-01,9.99999e-01,9.86325e-01,2.68943e-01,9.99855e-01
5.056673278e-01,2.73967e-01,9.99999e-01,9.92758e-01,2.76011e-01,9.99834e-01
5.081956644e-01,2.80506e-01,9.99999e-01,9.90870e-01,2.83119e-01,9.99899e-01
5.107366428e-01,2.88469e-01,9.99999e-01,9.93831e-01,2.90265e-01,9.99982e-01
5.132903260e-01,2.96394e-01,9.99999e-01,9.96472e-01,2.97444e-01,9.99997e-01
5.158567776e-01,3.04200e-01,9.99999e-01,9.98509e-01,3.04654e-01,9.99999e-01
5.184360615e-01,3.11705e-01,9.99999e-01,9.99403e-01,3.11891e-01,9.99999e-01
5.210282418e-01,3.19081e-01,9.99999e-01,9.99776e-01,3.19152e-01,9.99999e-01
5.236333830e-01,3.26139e-01,9.99999e-01,9.99101e-01,3.26434e-01,9.99993e-01
5.262515499e-01,3.33542e-01,9.99999e-01,9.99437e-01,3.33733e-01,9.99990e-01
5.288828077e-01,3.40868e-01,9.99999e-01,9.99483e-01,3.41046e-01,9.99993e-01
5.315272217e-01,3.48212e-01,9.99999e-01,9.99547e-01,3.48370e-01,9.99998e-01
5.341848578e-01,3.55597e-01,9.99999e-01,9.99702e-01,3.55702e-01,9.99999e-01
5.368557821e-01,3.62658e-01,9.99999e-01,9.98951e-01,3.63039e-01,9.99997e-01
5.395400610e-01,3.68965e-01,9.99999e-01,9.96214e-01,3.70379e-01,9.99968e-01
5.422377613e-01,3.75847e-01,9.99999e-01,9.95137e-01,3.77717e-01,9.99911e-01
5.449489501e-01,3.83269e-01,9.99999e-01,9.95462e-01,3.85051e-01,9.99908e-01
5.476736949e-01,3.90790e-01,9.99999e-01,9.95995e-01,3.92378e-01,9.99954e-01
5.504120634e-01,3.98530e-01,9.99999e-01,9.97091e-01,3.99697e-01,9.99987e-01
5.531641237e-01,4.06407e-01,9.99999e-01,9.98536e-01,4.07003e-01,9.99997e-01
5.559299443e-01,4.14002e-01,9.99999e-01,9.99293e-01,4.14294e-01,9.99999e-01
5.587095940e-01,4.21381e-01,9.99999e-01,9.99556e-01,4.21568e-01,9.99999e-01
5.615031420e-01,4.28610e-01,9.99999e-01,9.99505e-01,4.28823e-01,9.99998e-01
5.643106577e-01,4.35807e-01,9.99999e-01,9.99436e-01,4.36055e-01,9.99994e-01
5.671322110e-01,4.40210e-01,9.99999e-01,9.93172e-01,4.43262e-01,9.99939e-01
5.699678720e-01,4.47124e-01,9.99999e-01,9.92814e-01,4.50443e-01,9.99814e-01
5.728177114e-01,4.54080e-01,9.99999e-01,9.92470e-01,4.57595e-01,9.99845e-01
5.756818000e-01,4.61466e-01,9.99999e-01,9.93094e-01,4.64716e-01,9.99910e-01
5.785602090e-01,4.68955e-01,9.99999e-01,9.93986e-01,4.71804e-01,9.99973e-01
5.814530100e-01,4.75956e-01,9.99999e-01,9.93953e-01,4.78857e-01,9.99986e-01
5.843602750e-01,4.82346e-01,9.99999e-01,9.92779e-01,4.85873e-01,9.99959e-01
5.872820764e-01,4.63139e-01,9.99999e-01,9.40127e-01,4.92850e-01,9.99562e-01
5.902184868e-01,4.62993e-01,9.99999e-01,9.27484e-01,4.99786e-01,9.98809e-01
5.931695792e-01,4.80021e-01,9.99999e-01,9.48470e-01,5.06680e-01,9.98854e-01
5.961354271e-01,4.84175e-01,9.99999e-01,9.43456e-01,5.13530e-01,9.99341e-01
5.991161043e-01,4.98560e-01,9.99999e-01,9.58346e-01,5.20335e-01,9.99795e-01
6.021116848e-01,5.14512e-01,9.99999e-01,9.76153e-01,5.27093e-01,9.99976e-01
6.051222432e-01,5.27322e-01,9.99999e-01,9.87861e-01,5.33803e-01,9.99998e-01
6.081478544e-01,5.37622e-01,9.99999e-01,9.94743e-01,5.40463e-01,9.99999e-01
6.111885937e-01,5.45855e-01,9.99999e-01,9.97776e-01,5.47072e-01,9.99999e-01
6.142445367e-01,5.53078e-01,9.99999e-01,9.99005e-01,5.53628e-01,9.99999e-01
6.173157594e-01,5.59825e-01,9.99999e-01,9.99451e-01,5.60132e-01,9.99999e-01
6.204023382e-01,5.66318e-01,9.99999e-01,9.99534e-01,5.66581e-01,9.99999e-01
6.235043498e-01,5.71792e-01,9.99999e-01,9.97939e-01,5.72975e-01,9.99994e-01
6.266218716e-01,5.73014e-01,9.99999e-01,9.89201e-01,5.79313e-01,9.99923e-01
6.297549810e-01,5.83179e-01,9.99999e-01,9.96027e-01,5.85594e-01,9.99847e-01
6.329037559e-01,5.87108e-01,9.99999e-01,9.92164e-01,5.91816e-01,9.99877e-01
6.360682746e-01,5.93939e-01,9.99999e-01,9.93312e-01,5.97980e-01,9.99927e-01
6.392486160e-01,5.98839e-01,9.99999e-01,9.91346e-01,6.04085e-01,9.99967e-01
6.424448591e-01,6.03021e-01,9.99999e-01,9.88406e-01,6.10129e-01,9.99942e-01
6.456570834e-01,5.83585e-01,9.99999e-01,9.47514e-01,6.16113e-01,9.99673e-01
6.488853688e-01,5.97620e-01,9.99999e-01,9.61552e-01,6.22035e-01,9.99164e-01
6.521297956e-01,6.02948e-01,9.99999e-01,9.60929e-01,6.27896e-01,9.99310e-01
6.553904446e-01,6.08488e-01,9.99999e-01,9.60715e-01,6.33694e-01,9.99486e-01
6.586673968e-01,6.17845e-01,9.99999e-01,9.66408e-01,6.39430e-01,9.99828e-01
6.619607338e-01,6.32881e-01,9.99999e-01,9.81089e-01,6.45103e-01,9.99962e-01
6.652705375e-01,6.43283e-01,9.99999e-01,9.88600e-01,6.50713e-01,9.99980e-01
6.685968902e-01,6.53069e-01,9.99999e-01,9.95140e-01,6.56259e-01,9.99996e-01
6.719398746e-01,6.60113e-01,9.99999e-01,9.97538e-01,6.61742e-01,9.99999e-01
6.752995740e-01,6.66269e-01,9.99999e-01,9.98663e-01,6.67161e-01,9.99999e-01
6.786760719e-01,6.71212e-01,9.99999e-01,9.98063e-01,6.72516e-01,9.99996e-01
6.820694522e-01,6.75552e-01,9.99999e-01,9.96691e-01,6.77806e-01,9.99982e-01
6.854797995e-01,6.80093e-01,9.99999e-01,9.95732e-01,6.83033e-01,9.99962e-01
6.889071985e-01,6.81027e-01,9.99999e-01,9.89673e-01,6.88196e-01,9.99907e-01
6.923517345e-01,5.86485e-01,9.99999e-01,8.46622e-01,6.93294e-01,9.99192e-01
6.958134932e-01,6.39940e-01,9.99999e-01,9.18028e-01,6.98328e-01,9.98211e-01
6.992925606e-01,6.46256e-01,9.99999e-01,9.20374e-01,7.03299e-01,9.98388e-01
7.027890234e-01,6.38624e-01,9.99999e-01,9.02859e-01,7.08206e-01,9.98769e-01
7.063029686e-01,6.53661e-01,9.99999e-01,9.17274e-01,7.13048e-01,9.99387e-01
7.098344834e-01,6.60422e-01,9.99999e-01,9.20361e-01,7.17828e-01,9.99637e-01
7.133836558e-01,6.47090e-01,9.99999e-01,8.96215e-01,7.22544e-01,9.99279e-01
7.169505741e-01,3.25874e-01,9.99999e-01,4.50669e-01,7.27197e-01,9.94347e-01
7.205353270e-01,4.83514e-01,9.99999e-01,6.67370e-01,7.31787e-01,9.90049e-01
7.241380036e-01,4.33160e-01,9.99999e-01,5.93383e-01,7.36315e-01,9.91401e-01
7.277586936e-01,4.59988e-01,9.99999e-01,6.25349e-01,7.40780e-01,9.92965e-01
7.313974871e-01,4.46193e-01,9.99999e-01,6.00751e-01,7.45183e-01,9.96699e-01
7.350544745e-01,5.64163e-01,9.99999e-01,7.53557e-01,7.49525e-01,9.98851e-01
7.387297469e-01,6.10222e-01,9.99999e-01,8.09947e-01,7.53806e-01,9.99473e-01
7.424233956e-01,6.83257e-01,9.99999e-01,9.01445e-01,7.58026e-01,9.99908e-01
7.461355126e-01,7.15597e-01,9.99999e-01,9.38889e-01,7.62185e-01,9.99983e-01
7.498661902e-01,7.44110e-01,9.99999e-01,9.71067e-01,7.66285e-01,9.99993e-01
7.536155211e-01,7.59287e-01,9.99999e-01,9.85674e-01,7.70324e-01,9.99995e-01
7.573835987e-01,7.68576e-01,9.99999e-01,9.92601e-01,7.74305e-01,9.99998e-01
7.611705167e-01,7.74645e-01,9.99999e-01,9.95396e-01,7.78227e-01,9.99999e-01
7.649763693e-01,7.79832e-01,9.99999e-01,9.97111e-01,7.82091e-01,9.99999e-01
7.688012511e-01,7.84315e-01,9.99999e-01,9.97986e-01,7.85897e-01,9.99999e-01
7.726452574e-01,7.88337e-01,9.99999e-01,9.98342e-01,7.89646e-01,9.99998e-01
7.765084837e-01,7.91463e-01,9.99999e-01,9.97637e-01,7.93338e-01,9.99996e-01
7.803910261e-01,7.88859e-01,9.99999e-01,9.89826e-01,7.96974e-01,9.99989e-01
7.842929812e-01,7.72500e-01,9.99999e-01,9.65018e-01,8.00555e-01,9.99934e-01
7.882144461e-01,7.46973e-01,9.99999e-01,9.29444e-01,8.04080e-01,9.99497e-01
7.921555184e-01,7.75229e-01,9.99999e-01,9.60812e-01,8.07551e-01,9.99127e-01
7.961162960e-01,7.54892e-01,9.99999e-01,9.31625e-01,8.10968e-01,9.99169e-01
8.000968774e-01,7.49455e-01,9.99999e-01,9.21145e-01,8.14331e-01,9.99116e-01
8.040973618e-01,7.52732e-01,9.99999e-01,9.21233e-01,8.17641e-01,9.99325e-01
8.081178486e-01,6.83811e-01,9.99999e-01,8.33570e-01,8.20899e-01,9.99317e-01
8.121584379e-01,3.98982e-01,9.99999e-01,4.85393e-01,8.24106e-01,9.97416e-01
8.162192301e-01,3.52766e-01,9.99999e-01,4.30595e-01,8.27261e-01,9.90317e-01
8.203003262e-01,5.53267e-01,9.99999e-01,6.73927e-01,8.30365e-01,9.88671e-01
8.244018279e-01,4.93492e-01,9.99999e-01,5.97521e-01,8.33420e-01,9.90973e-01
8.285238370e-01,4.92428e-01,9.99999e-01,5.92936e-01,8.36425e-01,9.92904e-01
8.326664562e-01,4.96410e-01,9.99999e-01,5.93143e-01,8.39381e-01,9.97059e-01
8.368297885e-01,5.72718e-01,9.99999e-01,6.80411e-01,8.42289e-01,9.99327e-01
8.410139374e-01,6.70528e-01,9.99999e-01,7.93695e-01,8.45149e-01,9.99606e-01
8.452190071e-01,7.56278e-01,9.99999e-01,8.92085e-01,8.47963e-01,9.99764e-01
8.494451021e-01,7.95745e-01,9.99999e-01,9.35544e-01,8.50729e-01,9.99811e-01
8.536923276e-01,8.20431e-01,9.99999e-01,9.61420e-01,8.53450e-01,9.99885e-01
8.579607893e-01,8.35576e-01,9.99999e-01,9.76023e-01,8.56126e-01,9.99972e-01
8.622505932e-01,8.45624e-01,9.99999e-01,9.84711e-01,8.58757e-01,9.99994e-01
8.665618462e-01,8.53161e-01,9.99999e-01,9.90502e-01,8.61344e-01,9.99996e-01
8.708946554e-01,8.54484e-01,9.99999e-01,9.89120e-01,8.63887e-01,9.99993e-01
8.752491287e-01,8.53790e-01,9.99999e-01,9.85474e-01,8.66387e-01,9.99984e-01
8.796253743e-01,8.51367e-01,9.99999e-01,9.79927e-01,8.68845e-01,9.99954e-01
8.840235012e-01,8.51217e-01,9.99999e-01,9.77130e-01,8.71261e-01,9.99859e-01
8.884436187e-01,8.04187e-01,9.99999e-01,9.20873e-01,8.73636e-01,9.99599e-01
8.928858368e-01,3.93122e-01,9.99999e-01,4.49821e-01,8.75970e-01,9.97693e-01
8.973502660e-01,2.17323e-01,9.99999e-01,2.50392e-01,8.78265e-01,9.88233e-01
9.018370173e-01,4.26625e-01,9.99999e-01,4.93616e-01,8.80519e-01,9.81561e-01
9.063462024e-01,4.58720e-01,9.99999e-01,5.28223e-01,8.82735e-01,9.83784e-01
9.108779334e-01,3.23635e-01,9.99999e-01,3.71991e-01,8.84913e-01,9.83155e-01
9.154323231e-01,2.76889e-01,9.99999e-01,3.16558e-01,8.87052e-01,9.86056e-01
9.200094847e-01,3.64997e-01,9.99999e-01,4.13737e-01,8.89155e-01,9.92172e-01
9.246095321e-01,2.49514e-01,9.99999e-01,2.82515e-01,8.91221e-01,9.90985e-01
9.292325798e-01,5.37392e-03,9.99999e-01,6.23237e-03,8.93250e-01,9.65302e-01
9.338787427e-01,1.40864e-04,9.99999e-01,1.82078e-04,8.95244e-01,8.64169e-01
9.385481364e-01,2.13931e-02,9.99999e-01,2.83654e-02,8.97203e-01,8.40608e-01
9.432408771e-01,8.17372e-03,9.99999e-01,1.05597e-02,8.99127e-01,8.60886e-01
9.479570815e-01,6.29470e-04,9.99999e-01,7.89198e-04,9.01018e-01,8.85227e-01
9.526968669e-01,2.97979e-03,9.99999e-01,3.55510e-03,9.02875e-01,9.28339e-01
9.574603512e-01,4.32711e-03,9.99999e-01,4.96703e-03,9.04699e-01,9.62933e-01
9.622476530e-01,1.06737e-02,9.99999e-01,1.20863e-02,9.06490e-01,9.74220e-01
9.670588912e-01,6.41570e-02,9.99999e-01,7.19110e-02,9.08250e-01,9.82296e-01
9.718941857e-01,1.34106e-01,9.99999e-01,1.49323e-01,9.09978e-01,9.86937e-01
9.767536566e-01,1.85049e-01,9.99999e-01,2.05027e-01,9.11675e-01,9.90002e-01
9.816374249e-01,2.69963e-01,9.99999e-01,2.96606e-01,9.13342e-01,9.96528e-01
9.865456120e-01,4.21007e-01,9.99999e-01,4.60461e-01,9.14979e-01,9.99275e-01
9.914783401e-01,5.63076e-01,9.99999e-01,6.14441e-01,9.16586e-01,9.99798e-01
9.964357318e-01,7.03672e-01,9.99999e-01,7.66479e-01,9.18164e-01,9.99882e-01
1.001417910e+00,7.83470e-01,9.99999e-01,8.52014e-01,9.19714e-01,9.99820e-01
1.006425000e+00,8.40344e-01,9.99999e-01,9.12425e-01,9.21235e-01,9.99744e-01
1.011457125e+00,8.71560e-01,9.99999e-01,9.44768e-01,9.22729e-01,9.99762e-01
1.016514411e+00,8.89034e-01,9.99999e-01,9.62113e-01,9.24196e-01,9.99832e-01
1.021596983e+00,8.97430e-01,9.99999e-01,9.69686e-01,9.25637e-01,9.99835e-01
1.026704968e+00,9.04955e-01,9.99999e-01,9.76266e-01,9.27050e-01,9.99896e-01
1.031838492e+00,9.12360e-01,9.99999e-01,9.82711e-01,9.28439e-01,9.99968e-01
1.036997685e+00,9.20207e-01,9.99999e-01,9.89685e-01,9.29801e-01,9.99994e-01
1.042182673e+00,9.19680e-01,9.99999e-01,9.87695e-01,9.31139e-01,9.99997e-01
1.047393587e+00,9.17275e-01,9.99999e-01,9.83725e-01,9.32452e-01,9.99996e-01
1.052630555e+00,9.12942e-01,9.99999e-01,9.77730e-01,9.33741e-01,9.99993e-01
1.057893707e+00,9.00508e-01,9.99999e-01,9.63115e-01,9.35006e-01,9.99986e-01
1.063183176e+00,8.80229e-01,9.99999e-01,9.40196e-01,9.36248e-01,9.99967e-01
1.068499092e+00,8.45714e-01,9.99999e-01,9.02188e-01,9.37467e-01,9.99929e-01
1.073841587e+00,8.32759e-01,9.99999e-01,8.87309e-01,9.38664e-01,9.99847e-01
1.079210795e+00,8.05570e-01,9.99999e-01,8.57490e-01,9.39838e-01,9.99586e-01
1.084606849e+00,7.46043e-01,9.99999e-01,7.93615e-01,9.40991e-01,9.99005e-01
1.090029883e+00,6.77321e-01,9.99999e-01,7.20415e-01,9.42122e-01,9.97940e-01
1.095480033e+00,3.88133e-01,9.99999e-01,4.13030e-01,9.43232e-01,9.96277e-01
1.100957433e+00,1.16749e-01,9.99999e-01,1.24484e-01,9.44321e-01,9.93158e-01
1.106462220e+00,1.02048e-02,9.99999e-01,1.09207e-02,9.45391e-01,9.88422e-01
1.111994531e+00,8.20858e-05,9.99999e-01,8.94542e-05,9.46440e-01,9.69557e-01
1.117554504e+00,1.73849e-06,9.99999e-01,2.05154e-06,9.47469e-01,8.94386e-01
1.123142276e+00,1.38508e-04,9.99999e-01,1.90283e-04,9.48480e-01,7.67442e-01
1.128757988e+00,6.15032e-04,9.99999e-01,8.79830e-04,9.49471e-01,7.36235e-01
1.134401778e+00,7.03270e-04,9.99999e-01,9.60000e-04,9.50444e-01,7.70767e-01
1.140073787e+00,7.02053e-03,9.99999e-01,9.08560e-03,9.51399e-01,8.12182e-01
1.145774156e+00,5.28246e-04,9.99999e-01,6.71034e-04,9.52336e-01,8.26610e-01
1.151503026e+00,1.20324e-04,9.99999e-01,1.40350e-04,9.53255e-01,8.99352e-01
1.157260541e+00,1.12306e-04,9.99999e-01,1.21495e-04,9.54156e-01,9.68780e-01
1.163046844e+00,1.20103e-03,9.99999e-01,1.26892e-03,9.55041e-01,9.91050e-01
1.168862078e+00,7.48407e-03,9.99999e-01,7.86559e-03,9.55909e-01,9.95379e-01
1.174706389e+00,4.14844e-02,9.99999e-01,4.36261e-02,9.56761e-01,9.93879e-01
1.180579921e+00,1.32893e-01,9.99999e-01,1.40071e-01,9.57597e-01,9.90760e-01
1.186482820e+00,2.96059e-01,9.99999e-01,3.11861e-01,9.58417e-01,9.90517e-01
1.192415234e+00,4.76288e-01,9.99999e-01,5.00090e-01,9.59221e-01,9.92890e-01
1.198377311e+00,5.32555e-01,9.99999e-01,5.58490e-01,9.60010e-01,9.93282e-01
1.204369197e+00,5.56476e-01,9.99999e-01,5.82731e-01,9.60784e-01,9.93920e-01
1.210391043e+00,5.67889e-01,9.99999e-01,5.92795e-01,9.61544e-01,9.96297e-01
1.216442998e+00,6.15594e-01,9.99999e-01,6.41172e-01,9.62289e-01,9.97730e-01
1.222525213e+00,6.77416e-01,9.99999e-01,7.04421e-01,9.63020e-01,9.98589e-01
1.228637839e+00,7.54387e-01,9.99999e-01,7.83286e-01,9.63737e-01,9.99343e-01
1.234781029e+00,8.04465e-01,9.99999e-01,8.34282e-01,9.64440e-01,9.99812e-01
1.240954934e+00,8.60408e-01,9.99999e-01,8.91540e-01,9.65130e-01,9.99946e-01
1.247159708e+00,8.83035e-01,9.99999e-01,9.14327e-01,9.65807e-01,9.99965e-01
1.253395507e+00,8.92496e-01,9.99999e-01,9.23498e-01,9.66471e-01,9.99955e-01
1.259662485e+00,8.96562e-01,9.99999e-01,9.27105e-01,9.67122e-01,9.99929e-01
1.265960797e+00,8.57839e-01,9.99999e-01,8.86519e-01,9.67761e-01,9.99882e-01
1.272290601e+00,8.01746e-01,9.99999e-01,8.28088e-01,9.68388e-01,9.99793e-01
1.278652054e+00,6.70153e-01,9.99999e-01,6.91842e-01,9.69002e-01,9.99633e-01
1.285045314e+00,5.04158e-01,9.99999e-01,5.20317e-01,9.69605e-01,9.99316e-01
1.291470541e+00,3.14052e-01,9.99999e-01,3.24088e-01,9.70197e-01,9.98800e-01
1.297927893e+00,2.06031e-01,9.99999e-01,2.12709e-01,9.70777e-01,9.97762e-01
1.304417533e+00,1.59886e-01,9.99999e-01,1.65385e-01,9.71345e-01,9.95266e-01
1.310939621e+00,1.23838e-01,9.99999e-01,1.28665e-01,9.71903e-01,9.90305e-01
1.317494319e+00,1.07692e-01,9.99999e-01,1.12757e-01,9.72451e-01,9.82140e-01
1.324081790e+00,4.40036e-02,9.99999e-01,4.65757e-02,9.72987e-01,9.71004e-01
1.330702199e+00,3.14757e-03,9.99999e-01,3.40147e-03,9.73514e-01,9.50529e-01
1.337355710e+00,6.87526e-12,9.99999e-01,7.78307e-12,9.74030e-01,9.06911e-01
1.344042489e+00,1.88125e-17,9.99999e-01,2.59097e-17,9.74536e-01,7.45048e-01
1.350762701e+00,4.18675e-64,9.99999e-01,1.17616e-63,9.75033e-01,3.65083e-01
1.357516515e+00,5.55678e-99,9.99999e-01,1.09616e-97,9.75520e-01,5.19650e-02
1.364304097e+00,5.51244e-60,9.99999e-01,1.00626e-57,9.75998e-01,5.61287e-03
1.371125618e+00,3.62337e-35,9.99999e-01,4.91499e-33,9.76466e-01,7.54972e-03
1.377981246e+00,4.24536e-34,9.99999e-01,2.86467e-32,9.76926e-01,1.51697e-02
1.384871152e+00,1.06236e-48,9.99999e-01,5.38535e-47,9.77376e-01,2.01835e-02
1.391795508e+00,2.00515e-60,9.99999e-01,8.46435e-59,9.77818e-01,2.42267e-02
1.398754485e+00,2.97175e-45,9.99999e-01,6.56446e-44,9.78251e-01,4.62766e-02
1.405748258e+00,1.06584e-44,9.99999e-01,6.56558e-44,9.78676e-01,1.65874e-01
1.412776999e+00,5.73716e-43,9.99998e-01,1.33076e-42,9.79093e-01,4.40325e-01
1.419840884e+00,1.70043e-42,9.99996e-01,2.48741e-42,9.79502e-01,6.97919e-01
1.426940089e+00,6.63269e-27,9.99996e-01,8.89552e-27,9.79903e-01,7.60914e-01
1.434074789e+00,4.70414e-24,9.99996e-01,6.62447e-24,9.80296e-01,7.24389e-01
1.441245163e+00,1.32872e-19,9.99998e-01,1.92122e-19,9.80681e-01,7.05226e-01
1.448451389e+00,2.17766e-12,9.99995e-01,3.01368e-12,9.81059e-01,7.36542e-01
1.455693646e+00,1.26974e-08,9.99997e-01,1.64131e-08,9.81430e-01,7.88252e-01
1.462972114e+00,1.45622e-08,9.99998e-01,1.86106e-08,9.81793e-01,7.96980e-01
1.470286975e+00,3.04780e-09,9.99998e-01,3.87867e-09,9.82149e-01,8.00066e-01
