#,Wave/freq,Total,N2,H2O,Rayleigh,CIA
4.000000000e-01,4.67733e-01,9.99999e-01,9.99913e-01,4.67773e-01,9.99999e-01
4.020000000e-01,4.74828e-01,9.99999e-01,9.99946e-01,4.74853e-01,9.99999e-01
4.040100000e-01,4.81880e-01,9.99999e-01,9.99976e-01,4.81890e-01,9.99999e-01
4.060300500e-01,4.88887e-01,9.99999e-01,9.99994e-01,4.88890e-01,9.99999e-01
4.080602003e-01,4.95848e-01,9.99999e-01,9.99997e-01,4.95849e-01,9.99999e-01
4.101005013e-01,5.02768e-01,9.99999e-01,9.99999e-01,5.02768e-01,9.99999e-01
4.121510038e-01,5.09641e-01,9.99999e-01,9.99996e-01,5.09643e-01,9.99999e-01
4.142117588e-01,5.16462e-01,9.99999e-01,9.99976e-01,5.16474e-01,9.99999e-01
4.162828176e-01,5.23203e-01,9.99999e-01,9.99893e-01,5.23258e-01,9.99999e-01
4.183642317e-01,5.29962e-01,9.99999e-01,9.99936e-01,5.29996e-01,9.99999e-01
4.204560528e-01,5.36663e-01,9.99999e-01,9.99960e-01,5.36684e-01,9.99999e-01
4.225583331e-01,5.43314e-01,9.99999e-01,9.99984e-01,5.43322e-01,9.99999e-01
4.246711247e-01,5.49902e-01,9.99999e-01,9.99988e-01,5.49909e-01,9.99999e-01
4.267944804e-01,5.56433e-01,9.99999e-01,9.99982e-01,5.56443e-01,9.99999e-01
4.289284528e-01,5.62916e-01,9.99999e-01,9.99986e-01,5.62923e-01,9.99999e-01
4.310730950e-01,5.69345e-01,9.99999e-01,9.99993e-01,5.69349e-01,9.99999e-01
4.332284605e-01,5.75718e-01,9.99999e-01,9.99998e-01,5.75718e-01,9.99999e-01
4.353946028e-01,5.82031e-01,9.99999e-01,9.99998e-01,5.82032e-01,9.99999e-01
4.375715758e-01,5.88281e-01,9.99999e-01,9.99989e-01,5.88287e-01,9.99999e-01
4.397594337e-01,5.94430e-01,9.99999e-01,9.99907e-01,5.94485e-01,9.99999e-01
4.419582309e-01,6.00341e-01,9.99999e-01,9.99530e-01,6.00623e-01,9.99999e-01
4.441680220e-01,6.06477e-01,9.99999e-01,9.99628e-01,6.06701e-01,9.99999e-01
4.463888621e-01,6.12484e-01,9.99999e-01,9.99615e-01,6.12720e-01,9.99999e-01
4.486208064e-01,6.18529e-01,9.99999e-01,9.99759e-01,6.18677e-01,9.99999e-01
4.508639105e-01,6.24503e-01,9.99999e-01,9.99887e-01,6.24573e-01,9.99999e-01
4.531182300e-01,6.30379e-01,9.99999e-01,9.99955e-01,6.30407e-01,9.99999e-01
4.553838212e-01,6.36159e-01,9.99999e-01,9.99969e-01,6.36178e-01,9.99999e-01
4.576607403e-01,6.41878e-01,9.99999e-01,9.99985e-01,6.41887e-01,9.99999e-01
4.599490440e-01,6.47526e-01,9.99999e-01,9.99989e-01,6.47533e-01,9.99999e-01
4.622487892e-01,6.53114e-01,9.99999e-01,9.99997e-01,6.53115e-01,9.99999e-01
4.645600332e-01,6.58630e-01,9.99999e-01,9.99992e-01,6.58634e-01,9.99999e-01
4.668828333e-01,6.64014e-01,9.99999e-01,9.99887e-01,6.64089e-01,9.99999e-01
4.692172475e-01,6.69319e-01,9.99999e-01,9.99758e-01,6.69480e-01,9.99999e-01
4.715633337e-01,6.74701e-01,9.99999e-01,9.99842e-01,6.74808e-01,9.99999e-01
4.739211504e-01,6.79968e-01,9.99999e-01,9.99848e-01,6.80071e-01,9.99999e-01
4.762907561e-01,6.85216e-01,9.99999e-01,9.99921e-01,6.85270e-01,9.99999e-01
4.786722099e-01,6.90382e-01,9.99999e-01,9.99967e-01,6.90405e-01,9.99999e-01
4.810655710e-01,6.95469e-01,9.99999e-01,9.99989e-01,6.95475e-01,9.99999e-01
4.834708988e-01,7.00418e-01,9.99999e-01,9.99908e-01,7.00482e-01,9.99999e-01
4.858882533e-01,7.05304e-01,9.99999e-01,9.99828e-01,7.05425e-01,9.99999e-01
4.883176946e-01,7.10203e-01,9.99999e-01,9.99857e-01,7.10304e-01,9.99999e-01
4.907592831e-01,7.15027e-01,9.99999e-01,9.99870e-01,7.15120e-01,9.99999e-01
4.932130795e-01,7.19805e-01,9.99999e-01,9.99907e-01,7.19872e-01,9.99999e-01
4.956791449e-01,7.24525e-01,9.99999e-01,9.99950e-01,7.24560e-01,9.99999e-01
4.981575406e-01,7.29010e-01,9.99999e-01,9.99757e-01,7.29186e-01,9.99999e-01
5.006483283e-01,7.33288e-01,9.99999e-01,9.99374e-01,7.33749e-01,9.99995e-01
5.031515699e-01,7.35880e-01,9.99999e-01,9.96822e-01,7.38250e-01,9.99966e-01
5.056673278e-01,7.41412e-01,9.99999e-01,9.98318e-01,7.42689e-01,9.99961e-01
5.081956644e-01,7.45462e-01,9.99999e-01,9.97878e-01,7.47065e-01,9.99974e-01
5.107366428e-01,7.50300e-01,9.99999e-01,9.98566e-01,7.51381e-01,9.99994e-01
5.132903260e-01,7.55015e-01,9.99999e-01,9.99179e-01,7.55635e-01,9.99998e-01
5.158567776e-01,7.59565e-01,9.99999e-01,9.99652e-01,7.59829e-01,9.99999e-01
5.184360615e-01,7.63856e-01,9.99999e-01,9.99860e-01,7.63962e-01,9.99999e-01
5.210282418e-01,7.67996e-01,9.99999e-01,9.99947e-01,7.68036e-01,9.99999e-01
5.236333830e-01,7.71889e-01,9.99999e-01,9.99792e-01,7.72050e-01,9.99998e-01
5.262515499e-01,7.75903e-01,9.99999e-01,9.99869e-01,7.76006e-01,9.99997e-01
5.288828077e-01,7.79809e-01,9.99999e-01,9.99880e-01,7.79902e-01,9.99998e-01
5.315272217e-01,7.83659e-01,9.99999e-01,9.99894e-01,7.83741e-01,9.99999e-01
5.341848578e-01,7.87469e-01,9.99999e-01,9.99931e-01,7.87523e-01,9.99999e-01
5.368557821e-01,7.91056e-01,9.99999e-01,9.99758e-01,7.91247e-01,9.99998e-01
5.395400610e-01,7.94220e-01,9.99999e-01,9.99132e-01,7.94915e-01,9.99992e-01
5.422377613e-01,7.97609e-01,9.99999e-01,9.98870e-01,7.98527e-01,9.99979e-01
5.449489501e-01,8.01228e-01,9.99999e-01,9.98953e-01,8.02084e-01,9.99978e-01
5.476736949e-01,8.04827e-01,9.99999e-01,9.99069e-01,8.05585e-01,9.99989e-01
5.504120634e-01,8.08484e-01,9.99999e-01,9.99324e-01,8.09033e-01,9.99996e-01
5.531641237e-01,8.12150e-01,9.99999e-01,9.99659e-01,8.12426e-01,9.99999e-01
5.559299443e-01,8.15633e-01,9.99999e-01,9.99835e-01,8.15767e-01,9.99999e-01
5.587095940e-01,8.18970e-01,9.99999e-01,9.99896e-01,8.19054e-01,9.99999e-01
5.615031420e-01,8.22196e-01,9.99999e-01,9.99885e-01,8.22290e-01,9.99999e-01
5.643106577e-01,8.25367e-01,9.99999e-01,9.99871e-01,8.25474e-01,9.99998e-01
5.671322110e-01,8.27305e-01,9.99999e-01,9.98442e-01,8.28607e-01,9.99985e-01
5.699678720e-01,8.30255e-01,9.99999e-01,9.98317e-01,8.31690e-01,9.99956e-01
5.728177114e-01,8.33240e-01,9.99999e-01,9.98258e-01,8.34723e-01,9.99963e-01
5.756818000e-01,8.36348e-01,9.99999e-01,9.98399e-01,8.37707e-01,9.99977e-01
5.785602090e-01,8.39463e-01,9.99999e-01,9.98603e-01,8.40642e-01,9.99992e-01
5.814530100e-01,8.42346e-01,9.99999e-01,9.98598e-01,8.43530e-01,9.99996e-01
5.843602750e-01,8.44956e-01,9.99999e-01,9.98337e-01,8.46370e-01,9.99990e-01
5.872820764e-01,8.36994e-01,9.99999e-01,9.85769e-01,8.49163e-01,9.99898e-01
5.902184868e-01,8.36911e-01,9.99999e-01,9.82664e-01,8.51910e-01,9.99723e-01
5.931695792e-01,8.43924e-01,9.99999e-01,9.87759e-01,8.54611e-01,9.99731e-01
5.961354271e-01,8.45610e-01,9.99999e-01,9.86561e-01,8.57267e-01,9.99837e-01
5.991161043e-01,8.51388e-01,9.99999e-01,9.90172e-01,8.59879e-01,9.99952e-01
6.021116848e-01,8.57620e-01,9.99999e-01,9.94408e-01,8.62447e-01,9.99993e-01
6.051222432e-01,8.62520e-01,9.99999e-01,9.97166e-01,8.64971e-01,9.99999e-01
6.081478544e-01,8.66393e-01,9.99999e-01,9.98777e-01,8.67453e-01,9.99999e-01
6.111885937e-01,8.69443e-01,9.99999e-01,9.99481e-01,8.69893e-01,9.99999e-01
6.142445367e-01,8.72090e-01,9.99999e-01,9.99768e-01,8.72291e-01,9.99999e-01
6.173157594e-01,8.74537e-01,9.99999e-01,9.99872e-01,8.74649e-01,9.99999e-01
6.204023382e-01,8.76871e-01,9.99999e-01,9.99892e-01,8.76966e-01,9.99999e-01
6.235043498e-01,8.78829e-01,9.99999e-01,9.99530e-01,8.79243e-01,9.99998e-01
6.266218716e-01,8.79256e-01,9.99999e-01,9.97492e-01,8.81481e-01,9.99981e-01
6.297549810e-01,8.82836e-01,9.99999e-01,9.99079e-01,8.83680e-01,9.99964e-01
6.329037559e-01,8.84203e-01,9.99999e-01,9.98178e-01,8.85841e-01,9.99971e-01
6.360682746e-01,8.86577e-01,9.99999e-01,9.98453e-01,8.87965e-01,9.99982e-01
6.392486160e-01,8.88259e-01,9.99999e-01,9.97992e-01,8.90051e-01,9.99992e-01
6.424448591e-01,8.89707e-01,9.99999e-01,9.97327e-01,8.92101e-01,9.99987e-01
6.456570834e-01,8.83013e-01,9.99999e-01,9.87650e-01,8.94115e-01,9.99930e-01
6.488853688e-01,8.87764e-01,9.99999e-01,9.90894e-01,8.96094e-01,9.99806e-01
6.521297956e-01,8.89562e-01,9.99999e-01,9.90722e-01,8.98038e-01,9.99837e-01
6.553904446e-01,8.91576e-01,9.99999e-01,9.90816e-01,8.99948e-01,9.99877e-01
6.586673968e-01,8.94645e-01,9.99999e-01,9.92078e-01,9.01824e-01,9.99959e-01
6.619607338e-01,8.99513e-01,9.99999e-01,9.95411e-01,9.03666e-01,9.99991e-01
6.652705375e-01,9.03062e-01,9.99999e-01,9.97337e-01,9.05476e-01,9.99995e-01
6.685968902e-01,9.06131e-01,9.99999e-01,9.98762e-01,9.07254e-01,9.99998e-01
6.719398746e-01,9.08478e-01,9.99999e-01,9.99425e-01,9.09000e-01,9.99999e-01
6.752995740e-01,9.10432e-01,9.99999e-01,9.99689e-01,9.10714e-01,9.99999e-01
6.786760719e-01,9.11991e-01,9.99999e-01,9.99553e-01,9.12398e-01,9.99998e-01
6.820694522e-01,9.13350e-01,9.99999e-01,9.99234e-01,9.14052e-01,9.99995e-01
6.854797995e-01,9.14766e-01,9.99999e-01,9.99014e-01,9.15676e-01,9.99990e-01
6.889071985e-01,9.15082e-01,9.99999e-01,9.97635e-01,9.17271e-01,9.99978e-01
6.923517345e-01,8.83655e-01,9.99999e-01,9.61889e-01,9.18837e-01,9.99812e-01
6.958134932e-01,9.01401e-01,9.99999e-01,9.79798e-01,9.20374e-01,9.99577e-01
6.992925606e-01,9.03998e-01,9.99999e-01,9.80962e-01,9.21884e-01,9.99628e-01
7.027890234e-01,9.01354e-01,9.99999e-01,9.76438e-01,9.23366e-01,9.99714e-01
7.063029686e-01,9.06335e-01,9.99999e-01,9.80149e-01,9.24821e-01,9.99857e-01
7.098344834e-01,9.08521e-01,9.99999e-01,9.80940e-01,9.26250e-01,9.99915e-01
7.133836558e-01,9.04227e-01,9.99999e-01,9.74909e-01,9.27653e-01,9.99832e-01
7.169505741e-01,7.58300e-01,9.99999e-01,8.17298e-01,9.29030e-01,9.98688e-01
7.205353270e-01,8.39672e-01,9.99999e-01,9.04592e-01,9.30382e-01,9.97687e-01
7.241380036e-01,8.19238e-01,9.99999e-01,8.81043e-01,9.31709e-01,9.98003e-01
7.277586936e-01,8.30879e-01,9.99999e-01,8.91990e-01,9.33011e-01,9.98367e-01
7.313974871e-01,8.25917e-01,9.99999e-01,8.84681e-01,9.34290e-01,9.99234e-01
7.350544745e-01,8.74662e-01,9.99999e-01,9.35170e-01,9.35545e-01,9.99733e-01
7.387297469e-01,8.91471e-01,9.99999e-01,9.51751e-01,9.36777e-01,9.99877e-01
7.424233956e-01,9.15494e-01,9.99999e-01,9.76042e-01,9.37986e-01,9.99976e-01
7.461355126e-01,9.25479e-01,9.99999e-01,9.85422e-01,9.39173e-01,9.99995e-01
7.498661902e-01,9.33921e-01,9.99999e-01,9.93176e-01,9.40338e-01,9.99998e-01
7.536155211e-01,9.38330e-01,9.99999e-01,9.96652e-01,9.41482e-01,9.99998e-01
7.573835987e-01,9.40978e-01,9.99999e-01,9.98275e-01,9.42604e-01,9.99999e-01
7.611705167e-01,9.42694e-01,9.99999e-01,9.98928e-01,9.43705e-01,9.99999e-01
7.649763693e-01,9.44151e-01,9.99999e-01,9.99328e-01,9.44785e-01,9.99999e-01
7.688012511e-01,9.45404e-01,9.99999e-01,9.99532e-01,9.45846e-01,9.99999e-01
7.726452574e-01,9.46523e-01,9.99999e-01,9.99615e-01,9.46887e-01,9.99999e-01
7.765084837e-01,9.47392e-01,9.99999e-01,9.99456e-01,9.47908e-01,9.99998e-01
7.803910261e-01,9.46682e-01,9.99999e-01,9.97654e-01,9.48910e-01,9.99997e-01
7.842929812e-01,9.42125e-01,9.99999e-01,9.91836e-01,9.49894e-01,9.99984e-01
7.882144461e-01,9.34758e-01,9.99999e-01,9.83169e-01,9.50858e-01,9.99895e-01
7.921555184e-01,9.42779e-01,9.99999e-01,9.90714e-01,9.51805e-01,9.99799e-01
7.961162960e-01,9.37071e-01,9.99999e-01,9.83748e-01,9.52734e-01,9.99807e-01
8.000968774e-01,9.35499e-01,9.99999e-01,9.81170e-01,9.53646e-01,9.99795e-01
8.040973618e-01,9.36430e-01,9.99999e-01,9.81185e-01,9.54540e-01,9.99837e-01
8.081178486e-01,9.15485e-01,9.99999e-01,9.58348e-01,9.55418e-01,9.99847e-01
8.121584379e-01,8.01424e-01,9.99999e-01,8.38566e-01,9.56279e-01,9.99401e-01
8.162192301e-01,7.74417e-01,9.99999e-01,8.10932e-01,9.57124e-01,9.97750e-01
8.203003262e-01,8.63492e-01,9.99999e-01,9.03772e-01,9.57953e-01,9.97366e-01
8.244018279e-01,8.30485e-01,9.99999e-01,8.68021e-01,9.58766e-01,9.97903e-01
8.285238370e-01,8.45065e-01,9.99999e-01,8.82128e-01,9.59564e-01,9.98352e-01
8.326664562e-01,8.45401e-01,9.99999e-01,8.80908e-01,9.60346e-01,9.99318e-01
8.368297885e-01,8.77152e-01,9.99999e-01,9.12782e-01,9.61114e-01,9.99843e-01
8.410139374e-01,9.10928e-01,9.99999e-01,9.47126e-01,9.61867e-01,9.99908e-01
8.452190071e-01,9.37209e-01,9.99999e-01,9.73669e-01,9.62606e-01,9.99945e-01
8.494451021e-01,9.48515e-01,9.99999e-01,9.84661e-01,9.63331e-01,9.99955e-01
8.536923276e-01,9.55229e-01,9.99999e-01,9.90886e-01,9.64042e-01,9.99970e-01
8.579607893e-01,9.59318e-01,9.99999e-01,9.94387e-01,9.64740e-01,9.99991e-01
8.622505932e-01,9.61974e-01,9.99999e-01,9.96426e-01,9.65424e-01,9.99998e-01
8.665618462e-01,9.63963e-01,9.99999e-01,9.97792e-01,9.66095e-01,9.99998e-01
8.708946554e-01,9.64313e-01,9.99999e-01,9.97476e-01,9.66754e-01,9.99998e-01
8.752491287e-01,9.64130e-01,9.99999e-01,9.96623e-01,9.67400e-01,9.99995e-01
8.796253743e-01,9.63508e-01,9.99999e-01,9.95335e-01,9.68033e-01,9.99989e-01
8.840235012e-01,9.63461e-01,9.99999e-01,9.94670e-01,9.68655e-01,9.99967e-01
8.884436187e-01,9.50723e-01,9.99999e-01,9.80961e-01,9.69264e-01,9.99906e-01
8.928858368e-01,7.92717e-01,9.99999e-01,8.17787e-01,9.69862e-01,9.99465e-01
8.973502660e-01,6.78239e-01,9.99999e-01,7.00809e-01,9.70448e-01,9.97264e-01
9.018370173e-01,8.05859e-01,9.99999e-01,8.33488e-01,9.71023e-01,9.95701e-01
9.063462024e-01,8.25032e-01,9.99999e-01,8.52376e-01,9.71588e-01,9.96223e-01
9.108779334e-01,7.54523e-01,9.99999e-01,7.79202e-01,9.72141e-01,9.96075e-01
9.154323231e-01,7.29040e-01,9.99999e-01,7.51952e-01,9.72684e-01,9.96755e-01
9.200094847e-01,7.77592e-01,9.99999e-01,8.00446e-01,9.73216e-01,9.98182e-01
9.246095321e-01,6.98191e-01,9.99999e-01,7.18525e-01,9.73738e-01,9.97906e-01
9.292325798e-01,1.27871e-01,9.99999e-01,1.32328e-01,9.74250e-01,9.91860e-01
9.338787427e-01,6.57436e-02,9.99999e-01,6.97640e-02,9.74752e-01,9.66779e-01
9.385481364e-01,3.16140e-01,9.99999e-01,3.37455e-01,9.75244e-01,9.60614e-01
9.432408771e-01,2.24746e-01,9.99999e-01,2.38461e-01,9.75727e-01,9.65927e-01
9.479570815e-01,1.27287e-01,9.99999e-01,1.34121e-01,9.76201e-01,9.72180e-01
9.526968669e-01,2.00416e-01,9.99999e-01,2.08766e-01,9.76666e-01,9.82938e-01
9.574603512e-01,2.16192e-01,9.99999e-01,2.23196e-01,9.77121e-01,9.91296e-01
9.622476530e-01,2.78553e-01,9.99999e-01,2.86672e-01,9.77568e-01,9.93973e-01
9.670588912e-01,4.69769e-01,9.99999e-01,4.82323e-01,9.78006e-01,9.95874e-01
9.718941857e-01,6.08390e-01,9.99999e-01,6.23693e-01,9.78436e-01,9.96961e-01
9.767536566e-01,6.59418e-01,9.99999e-01,6.75228e-01,9.78857e-01,9.97676e-01
9.816374249e-01,7.29621e-01,9.99999e-01,7.45664e-01,9.79270e-01,9.99195e-01
9.865456120e-01,8.14727e-01,9.99999e-01,8.31768e-01,9.79676e-01,9.99831e-01
9.914783401e-01,8.74278e-01,9.99999e-01,8.92094e-01,9.80073e-01,9.99953e-01
9.964357318e-01,9.21299e-01,9.99999e-01,9.39682e-01,9.80463e-01,9.99972e-01
1.001417910e+00,9.44875e-01,9.99999e-01,9.63367e-01,9.80845e-01,9.99958e-01
1.006425000e+00,9.60524e-01,9.99999e-01,9.78965e-01,9.81220e-01,9.99940e-01
1.011457125e+00,9.68652e-01,9.99999e-01,9.86876e-01,9.81587e-01,9.99944e-01
1.016514411e+00,9.73150e-01,9.99999e-01,9.91078e-01,9.81948e-01,9.99960e-01
1.021596983e+00,9.75277e-01,9.99999e-01,9.92888e-01,9.82301e-01,9.99960e-01
1.026704968e+00,9.77170e-01,9.99999e-01,9.94450e-01,9.82648e-01,9.99973e-01
1.031838492e+00,9.79009e-01,9.99999e-01,9.95959e-01,9.82987e-01,9.99992e-01
1.036997685e+00,9.80961e-01,9.99999e-01,9.97601e-01,9.83321e-01,9.99998e-01
1.042182673e+00,9.80840e-01,9.99999e-01,9.97146e-01,9.83647e-01,9.99999e-01
1.047393587e+00,9.80241e-01,9.99999e-01,9.96212e-01,9.83968e-01,9.99998e-01
1.052630555e+00,9.79173e-01,9.99999e-01,9.94810e-01,9.84282e-01,9.99998e-01
1.057893707e+00,9.76079e-01,9.99999e-01,9.91358e-01,9.84590e-01,9.99996e-01
1.063183176e+00,9.70914e-01,9.99999e-01,9.85814e-01,9.84892e-01,9.99992e-01
1.068499092e+00,9.61871e-01,9.99999e-01,9.76347e-01,9.85188e-01,9.99983e-01
1.073841587e+00,9.58288e-01,9.99999e-01,9.72442e-01,9.85479e-01,9.99964e-01
1.079210795e+00,9.50903e-01,9.99999e-01,9.64727e-01,9.85763e-01,9.99903e-01
1.084606849e+00,9.33769e-01,9.99999e-01,9.47204e-01,9.86043e-01,9.99769e-01
1.090029883e+00,9.12349e-01,9.99999e-01,9.25447e-01,9.86316e-01,9.99522e-01
1.095480033e+00,7.98187e-01,9.99999e-01,8.09738e-01,9.86585e-01,9.99136e-01
1.100957433e+00,5.80952e-01,9.99999e-01,5.89630e-01,9.86848e-01,9.98412e-01
1.106462220e+00,2.74425e-01,9.99999e-01,2.78759e-01,9.87106e-01,9.97308e-01
1.111994531e+00,7.19064e-02,9.99999e-01,7.33499e-02,9.87359e-01,9.92870e-01
1.117554504e+00,1.67852e-02,9.99999e-01,1.74406e-02,9.87607e-01,9.74499e-01
1.123142276e+00,5.93997e-02,9.99999e-01,6.39287e-02,9.87851e-01,9.40581e-01
1.128757988e+00,1.31207e-01,9.99999e-01,1.42540e-01,9.88089e-01,9.31588e-01
1.134401778e+00,5.85000e-02,9.99999e-01,6.28673e-02,9.88323e-01,9.41523e-01
1.140073787e+00,2.76486e-01,9.99999e-01,2.93482e-01,9.88552e-01,9.52996e-01
1.145774156e+00,9.02886e-02,9.99999e-01,9.54273e-02,9.88777e-01,9.56888e-01
1.151503026e+00,7.15306e-02,9.99999e-01,7.41238e-02,9.88997e-01,9.75748e-01
1.157260541e+00,9.23255e-02,9.99999e-01,9.40197e-02,9.89214e-01,9.92686e-01
1.163046844e+00,1.68418e-01,9.99999e-01,1.70572e-01,9.89426e-01,9.97921e-01
1.168862078e+00,2.76223e-01,9.99999e-01,2.79415e-01,9.89633e-01,9.98928e-01
1.174706389e+00,4.48372e-01,9.99999e-01,4.53619e-01,9.89837e-01,9.98579e-01
1.180579921e+00,6.08001e-01,9.99999e-01,6.15440e-01,9.90037e-01,9.97853e-01
1.186482820e+00,7.49099e-01,9.99999e-01,7.58157e-01,9.90233e-01,9.97797e-01
1.192415234e+00,8.40803e-01,9.99999e-01,8.50334e-01,9.90425e-01,9.98349e-01
1.198377311e+00,8.62945e-01,9.99999e-01,8.72481e-01,9.90613e-01,9.98441e-01
1.204369197e+00,8.70011e-01,9.99999e-01,8.79330e-01,9.90797e-01,9.98589e-01
1.210391043e+00,8.75254e-01,9.99999e-01,8.83980e-01,9.90978e-01,9.99141e-01
1.216442998e+00,8.91873e-01,9.99999e-01,9.00304e-01,9.91156e-01,9.99473e-01
1.222525213e+00,9.13061e-01,9.99999e-01,9.21347e-01,9.91330e-01,9.99673e-01
1.228637839e+00,9.36524e-01,9.99999e-01,9.44695e-01,9.91500e-01,9.99847e-01
1.234781029e+00,9.50587e-01,9.99999e-01,9.58615e-01,9.91667e-01,9.99956e-01
1.240954934e+00,9.65674e-01,9.99999e-01,9.73638e-01,9.91831e-01,9.99987e-01
1.247159708e+00,9.71546e-01,9.99999e-01,9.79396e-01,9.91992e-01,9.99991e-01
1.253395507e+00,9.73985e-01,9.99999e-01,9.81701e-01,9.92149e-01,9.99989e-01
1.259662485e+00,9.75054e-01,9.99999e-01,9.82631e-01,9.92304e-01,9.99983e-01
1.265960797e+00,9.65003e-01,9.99999e-01,9.72364e-01,9.92455e-01,9.99972e-01
1.272290601e+00,9.52529e-01,9.99999e-01,9.59671e-01,9.92604e-01,9.99951e-01
1.278652054e+00,9.10166e-01,9.99999e-01,9.16890e-01,9.92749e-01,9.99914e-01
1.285045314e+00,8.66448e-01,9.99999e-01,8.72788e-01,9.92892e-01,9.99841e-01
1.291470541e+00,7.55578e-01,9.99999e-01,7.61090e-01,9.93032e-01,9.99722e-01
1.297927893e+00,6.96800e-01,9.99999e-01,7.01956e-01,9.93169e-01,9.99481e-01
1.304417533e+00,6.30403e-01,9.99999e-01,6.35350e-01,9.93303e-01,9.98902e-01
1.310939621e+00,5.90737e-01,9.99999e-01,5.95982e-01,9.93435e-01,9.97747e-01
1.317494319e+00,5.64243e-01,9.99999e-01,5.70271e-01,9.93564e-01,9.95837e-01
1.324081790e+00,4.34072e-01,9.99999e-01,4.39812e-01,9.93691e-01,9.93213e-01
1.330702199e+00,1.00566e-01,9.99999e-01,1.02387e-01,9.93815e-01,9.88326e-01
1.337355710e+00,7.90708e-04,9.99999e-01,8.13724e-04,9.93937e-01,9.77640e-01
1.344042489e+00,9.11666e-06,9.99999e-01,9.81757e-06,9.94057e-01,9.34157e-01
1.350762701e+00,1.70054e-16,9.99999e-01,2.15972e-16,9.94174e-01,7.92002e-01
1.357516515e+00,1.31292e-24,9.99999e-01,2.61783e-24,9.94288e-01,5.04410e-01
1.364304097e+00,1.59984e-15,9.99999e-01,5.33837e-15,9.94401e-01,3.01374e-01
1.371125618e+00,7.64061e-10,9.99999e-01,2.38022e-09,9.94511e-01,3.22775e-01
1.377981246e+00,2.85340e-09,9.99999e-01,7.56261e-09,9.94619e-01,3.79344e-01
1.384871152e+00,5.35938e-13,9.99999e-01,1.34249e-12,9.94725e-01,4.01329e-01
1.391795508e+00,1.49696e-15,9.99999e-01,3.57099e-15,9.94829e-01,4.21379e-01
1.398754485e+00,3.75528e-12,9.99999e-01,7.68629e-12,9.94931e-01,4.91056e-01
1.405748258e+00,5.83340e-12,9.99999e-01,8.88479e-12,9.95031e-01,6.59837e-01
1.412776999e+00,1.15905e-11,9.99999e-01,1.40820e-11,9.95129e-01,8.27104e-01
1.419840884e+00,2.17642e-11,9.99998e-01,2.37667e-11,9.95225e-01,9.20137e-01
1.426940089e+00,5.96864e-08,9.99998e-01,6.38815e-08,9.95319e-01,9.38724e-01
1.434074789e+00,6.80503e-07,9.99998e-01,7.36602e-07,9.95411e-01,9.28098e-01
1.441245163e+00,8.65727e-06,9.99999e-01,9.42843e-06,9.95501e-01,9.22357e-01
1.448451389e+00,3.62574e-04,9.99998e-01,3.90886e-04,9.95590e-01,9.31678e-01
1.455693646e+00,4.45878e-03,9.99999e-01,4.73164e-03,9.95677e-01,9.46423e-01
1.462972114e+00,6.72913e-03,9.99999e-01,7.12214e-03,9.95762e-01,9.48838e-01
1.470286975e+00,3.22266e-03,9.99999e-01,3.40754e-03,9.95846e-01,9.49687e-01
