#,Wave/freq,Total,N2,H2O,Rayleigh,CIA
4.000000000e-01,8.88696e-01,9.99999e-01,9.99986e-01,8.88708e-01,9.99999e-01
4.020000000e-01,8.90776e-01,9.99999e-01,9.99991e-01,8.90784e-01,9.99999e-01
4.040100000e-01,8.92818e-01,9.99999e-01,9.99996e-01,8.92821e-01,9.99999e-01
4.060300500e-01,8.94822e-01,9.99999e-01,9.99998e-01,8.94822e-01,9.99999e-01
4.080602003e-01,8.96788e-01,9.99999e-01,9.99999e-01,8.96789e-01,9.99999e-01
4.101005013e-01,8.98720e-01,9.99999e-01,9.99999e-01,8.98720e-01,9.99999e-01
4.121510038e-01,9.00618e-01,9.99999e-01,9.99999e-01,9.00618e-01,9.99999e-01
4.142117588e-01,9.02479e-01,9.99999e-01,9.99995e-01,9.02482e-01,9.99999e-01
4.162828176e-01,9.04298e-01,9.99999e-01,9.99983e-01,9.04313e-01,9.99999e-01
4.183642317e-01,9.06102e-01,9.99999e-01,9.99989e-01,9.06111e-01,9.99999e-01
4.204560528e-01,9.07872e-01,9.99999e-01,9.99993e-01,9.07878e-01,9.99999e-01
4.225583331e-01,9.09610e-01,9.99999e-01,9.99997e-01,9.09612e-01,9.99999e-01
4.246711247e-01,9.11314e-01,9.99999e-01,9.99997e-01,9.11316e-01,9.99999e-01
4.267944804e-01,9.12987e-01,9.99999e-01,9.99996e-01,9.12989e-01,9.99999e-01
4.289284528e-01,9.14630e-01,9.99999e-01,9.99997e-01,9.14632e-01,9.99999e-01
4.310730950e-01,9.16245e-01,9.99999e-01,9.99998e-01,9.16246e-01,9.99999e-01
4.332284605e-01,9.17830e-01,9.99999e-01,9.99999e-01,9.17830e-01,9.99999e-01
4.353946028e-01,9.19386e-01,9.99999e-01,9.99999e-01,9.19386e-01,9.99999e-01
4.375715758e-01,9.20912e-01,9.99999e-01,9.99997e-01,9.20914e-01,9.99999e-01
4.397594337e-01,9.22400e-01,9.99999e-01,9.99984e-01,9.22414e-01,9.99999e-01
4.419582309e-01,9.23818e-01,9.99999e-01,9.99925e-01,9.23886e-01,9.99999e-01
4.441680220e-01,9.25279e-01,9.99999e-01,9.99942e-01,9.25332e-01,9.99999e-01
4.463888621e-01,9.26696e-01,9.99999e-01,9.99939e-01,9.26751e-01,9.99999e-01
4.486208064e-01,9.28111e-01,9.99999e-01,9.99962e-01,9.28145e-01,9.99999e-01
4.508639105e-01,9.29497e-01,9.99999e-01,9.99982e-01,9.29513e-01,9.99999e-01
4.531182300e-01,9.30850e-01,9.99999e-01,9.99992e-01,9.30856e-01,9.99999e-01
4.553838212e-01,9.32170e-01,9.99999e-01,9.99994e-01,9.32174e-01,9.99999e-01
4.576607403e-01,9.33466e-01,9.99999e-01,9.99997e-01,9.33468e-01,9.99999e-01
4.599490440e-01,9.34737e-01,9.99999e-01,9.99997e-01,9.34739e-01,9.99999e-01
4.622487892e-01,9.35985e-01,9.99999e-01,9.99999e-01,9.35986e-01,9.99999e-01
4.645600332e-01,9.37208e-01,9.99999e-01,9.99998e-01,9.37209e-01,9.99999e-01
4.668828333e-01,9.38394e-01,9.99999e-01,9.99981e-01,9.38411e-01,9.99999e-01
4.692172475e-01,9.39555e-01,9.99999e-01,9.99962e-01,9.39590e-01,9.99999e-01
4.715633337e-01,9.40724e-01,9.99999e-01,9.99975e-01,9.40747e-01,9.99999e-01
4.739211504e-01,9.41861e-01,9.99999e-01,9.99976e-01,9.41883e-01,9.99999e-01
4.762907561e-01,9.42986e-01,9.99999e-01,9.99987e-01,9.42997e-01,9.99999e-01
4.786722099e-01,9.44086e-01,9.99999e-01,9.99994e-01,9.44091e-01,9.99999e-01
4.810655710e-01,9.45163e-01,9.99999e-01,9.99998e-01,9.45164e-01,9.99999e-01
4.834708988e-01,9.46204e-01,9.99999e-01,9.99985e-01,9.46218e-01,9.99999e-01
4.858882533e-01,9.47227e-01,9.99999e-01,9.99973e-01,9.47252e-01,9.99999e-01
4.883176946e-01,9.48245e-01,9.99999e-01,9.99977e-01,9.48266e-01,9.99999e-01
4.907592831e-01,9.49243e-01,9.99999e-01,9.99979e-01,9.49262e-01,9.99999e-01
4.932130795e-01,9.50225e-01,9.99999e-01,9.99985e-01,9.50238e-01,9.99999e-01
4.956791449e-01,9.51190e-01,9.99999e-01,9.99991e-01,9.51197e-01,9.99999e-01
4.981575406e-01,9.52102e-01,9.99999e-01,9.99961e-01,9.52137e-01,9.99999e-01
5.006483283e-01,9.52966e-01,9.99999e-01,9.99901e-01,9.53060e-01,9.99998e-01
5.031515699e-01,9.53488e-01,9.99999e-01,9.99504e-01,9.53966e-01,9.99994e-01
5.056673278e-01,9.54599e-01,9.99999e-01,9.99738e-01,9.54854e-01,9.99993e-01
5.081956644e-01,9.55408e-01,9.99999e-01,9.99670e-01,9.55726e-01,9.99995e-01
5.107366428e-01,9.56368e-01,9.99999e-01,9.99777e-01,9.56581e-01,9.99998e-01
5.132903260e-01,9.57299e-01,9.99999e-01,9.99872e-01,9.57420e-01,9.99999e-01
5.158567776e-01,9.58192e-01,9.99999e-01,9.99945e-01,9.58243e-01,9.99999e-01
5.184360615e-01,9.59030e-01,9.99999e-01,9.99978e-01,9.59051e-01,9.99999e-01
5.210282418e-01,9.59836e-01,9.99999e-01,9.99991e-01,9.59843e-01,9.99999e-01
5.236333830e-01,9.60590e-01,9.99999e-01,9.99967e-01,9.60621e-01,9.99999e-01
5.262515499e-01,9.61364e-01,9.99999e-01,9.99979e-01,9.61383e-01,9.99999e-01
5.288828077e-01,9.62113e-01,9.99999e-01,9.99980e-01,9.62131e-01,9.99999e-01
5.315272217e-01,9.62850e-01,9.99999e-01,9.99983e-01,9.62865e-01,9.99999e-01
5.341848578e-01,9.63575e-01,9.99999e-01,9.99988e-01,9.63585e-01,9.99999e-01
5.368557821e-01,9.64255e-01,9.99999e-01,9.99961e-01,9.64292e-01,9.99999e-01
5.395400610e-01,9.64852e-01,9.99999e-01,9.99863e-01,9.64984e-01,9.99998e-01
5.422377613e-01,9.65492e-01,9.99999e-01,9.99824e-01,9.65664e-01,9.99996e-01
5.449489501e-01,9.66170e-01,9.99999e-01,9.99836e-01,9.66331e-01,9.99996e-01
5.476736949e-01,9.66844e-01,9.99999e-01,9.99855e-01,9.66985e-01,9.99997e-01
5.504120634e-01,9.67524e-01,9.99999e-01,9.99894e-01,9.67626e-01,9.99999e-01
5.531641237e-01,9.68204e-01,9.99999e-01,9.99946e-01,9.68255e-01,9.99999e-01
5.559299443e-01,9.68848e-01,9.99999e-01,9.99974e-01,9.68872e-01,9.99999e-01
5.587095940e-01,9.69462e-01,9.99999e-01,9.99983e-01,9.69478e-01,9.99999e-01
5.615031420e-01,9.70054e-01,9.99999e-01,9.99981e-01,9.70072e-01,9.99999e-01
5.643106577e-01,9.70634e-01,9.99999e-01,9.99979e-01,9.70654e-01,9.99999e-01
5.671322110e-01,9.70984e-01,9.99999e-01,9.99753e-01,9.71225e-01,9.99997e-01
5.699678720e-01,9.71527e-01,9.99999e-01,9.99739e-01,9.71785e-01,9.99992e-01
5.728177114e-01,9.72066e-01,9.99999e-01,9.99728e-01,9.72335e-01,9.99993e-01
5.756818000e-01,9.72629e-01,9.99999e-01,9.99750e-01,9.72874e-01,9.99996e-01
5.785602090e-01,9.73191e-01,9.99999e-01,9.99782e-01,9.73402e-01,9.99998e-01
5.814530100e-01,9.73708e-01,9.99999e-01,9.99781e-01,9.73921e-01,9.99999e-01
5.843602750e-01,9.74174e-01,9.99999e-01,9.99739e-01,9.74429e-01,9.99998e-01
5.872820764e-01,9.72725e-01,9.99999e-01,9.97755e-01,9.74928e-01,9.99983e-01
5.902184868e-01,9.72733e-01,9.99999e-01,9.97290e-01,9.75417e-01,9.99956e-01
5.931695792e-01,9.73986e-01,9.99999e-01,9.98082e-01,9.75897e-01,9.99958e-01
5.961354271e-01,9.74295e-01,9.99999e-01,9.97900e-01,9.76367e-01,9.99975e-01
5.991161043e-01,9.75327e-01,9.99999e-01,9.98469e-01,9.76828e-01,9.99992e-01
6.021116848e-01,9.76432e-01,9.99999e-01,9.99131e-01,9.77281e-01,9.99998e-01
6.051222432e-01,9.77295e-01,9.99999e-01,9.99560e-01,9.77725e-01,9.99999e-01
6.081478544e-01,9.77974e-01,9.99999e-01,9.99810e-01,9.78160e-01,9.99999e-01
6.111885937e-01,9.78508e-01,9.99999e-01,9.99919e-01,9.78586e-01,9.99999e-01
6.142445367e-01,9.78970e-01,9.99999e-01,9.99963e-01,9.79005e-01,9.99999e-01
6.173157594e-01,9.79396e-01,9.99999e-01,9.99979e-01,9.79415e-01,9.99999e-01
6.204023382e-01,9.79801e-01,9.99999e-01,9.99982e-01,9.79818e-01,9.99999e-01
6.235043498e-01,9.80140e-01,9.99999e-01,9.99925e-01,9.80212e-01,9.99999e-01
6.266218716e-01,9.80214e-01,9.99999e-01,9.99609e-01,9.80599e-01,9.99996e-01
6.297549810e-01,9.80833e-01,9.99999e-01,9.99856e-01,9.80979e-01,9.99994e-01
6.329037559e-01,9.81070e-01,9.99999e-01,9.99717e-01,9.81351e-01,9.99995e-01
6.360682746e-01,9.81477e-01,9.99999e-01,9.99758e-01,9.81716e-01,9.99996e-01
6.392486160e-01,9.81767e-01,9.99999e-01,9.99687e-01,9.82074e-01,9.99998e-01
6.424448591e-01,9.82012e-01,9.99999e-01,9.99580e-01,9.82425e-01,9.99997e-01
6.456570834e-01,9.80848e-01,9.99999e-01,9.98055e-01,9.82769e-01,9.99988e-01
6.488853688e-01,9.81683e-01,9.99999e-01,9.98581e-01,9.83106e-01,9.99969e-01
6.521297956e-01,9.81991e-01,9.99999e-01,9.98553e-01,9.83437e-01,9.99974e-01
6.553904446e-01,9.82326e-01,9.99999e-01,9.98558e-01,9.83762e-01,9.99981e-01
6.586673968e-01,9.82861e-01,9.99999e-01,9.98767e-01,9.84080e-01,9.99993e-01
6.619607338e-01,9.83715e-01,9.99999e-01,9.99312e-01,9.84392e-01,9.99998e-01
6.652705375e-01,9.84292e-01,9.99999e-01,9.99587e-01,9.84698e-01,9.99998e-01
6.685968902e-01,9.84825e-01,9.99999e-01,9.99824e-01,9.84998e-01,9.99999e-01
6.719398746e-01,9.85205e-01,9.99999e-01,9.99910e-01,9.85292e-01,9.99999e-01
6.752995740e-01,9.85533e-01,9.99999e-01,9.99951e-01,9.85580e-01,9.99999e-01
6.786760719e-01,9.85794e-01,9.99999e-01,9.99929e-01,9.85863e-01,9.99999e-01
6.820694522e-01,9.86022e-01,9.99999e-01,9.99880e-01,9.86140e-01,9.99998e-01
6.854797995e-01,9.86260e-01,9.99999e-01,9.99846e-01,9.86412e-01,9.99998e-01
6.889071985e-01,9.86307e-01,9.99999e-01,9.99625e-01,9.86679e-01,9.99996e-01
6.923517345e-01,9.80914e-01,9.99999e-01,9.93922e-01,9.86940e-01,9.99970e-01
6.958134932e-01,9.84033e-01,9.99999e-01,9.96858e-01,9.87197e-01,9.99935e-01
6.992925606e-01,9.84424e-01,9.99999e-01,9.96995e-01,9.87448e-01,9.99941e-01
7.027890234e-01,9.83998e-01,9.99999e-01,9.96301e-01,9.87694e-01,9.99955e-01
7.063029686e-01,9.84842e-01,9.99999e-01,9.96889e-01,9.87936e-01,9.99977e-01
7.098344834e-01,9.85211e-01,9.99999e-01,9.97015e-01,9.88173e-01,9.99986e-01
7.133836558e-01,9.84431e-01,9.99999e-01,9.96004e-01,9.88405e-01,9.99973e-01
7.169505741e-01,9.57043e-01,9.99999e-01,9.68243e-01,9.88633e-01,9.99795e-01
7.205353270e-01,9.73133e-01,9.99999e-01,9.84453e-01,9.88856e-01,9.99640e-01
7.241380036e-01,9.69183e-01,9.99999e-01,9.80192e-01,9.89075e-01,9.99689e-01
7.277586936e-01,9.71349e-01,9.99999e-01,9.82114e-01,9.89289e-01,9.99745e-01
7.313974871e-01,9.70634e-01,9.99999e-01,9.81050e-01,9.89500e-01,9.99880e-01
7.350544745e-01,9.79381e-01,9.99999e-01,9.89608e-01,9.89706e-01,9.99958e-01
7.387297469e-01,9.82317e-01,9.99999e-01,9.92349e-01,9.89908e-01,9.99980e-01
7.424233956e-01,9.86396e-01,9.99999e-01,9.96254e-01,9.90107e-01,9.99995e-01
7.461355126e-01,9.88051e-01,9.99999e-01,9.97728e-01,9.90301e-01,9.99998e-01
7.498661902e-01,9.89445e-01,9.99999e-01,9.98942e-01,9.90492e-01,9.99999e-01
7.536155211e-01,9.90165e-01,9.99999e-01,9.99480e-01,9.90679e-01,9.99999e-01
7.573835987e-01,9.90597e-01,9.99999e-01,9.99732e-01,9.90862e-01,9.99999e-01
7.611705167e-01,9.90877e-01,9.99999e-01,9.99833e-01,9.91042e-01,9.99999e-01
7.649763693e-01,9.91115e-01,9.99999e-01,9.99895e-01,9.91218e-01,9.99999e-01
7.688012511e-01,9.91319e-01,9.99999e-01,9.99927e-01,9.91390e-01,9.99999e-01
7.726452574e-01,9.91501e-01,9.99999e-01,9.99939e-01,9.91560e-01,9.99999e-01
7.765084837e-01,9.91641e-01,9.99999e-01,9.99914e-01,9.91726e-01,9.99999e-01
7.803910261e-01,9.91524e-01,9.99999e-01,9.99632e-01,9.91889e-01,9.99999e-01
7.842929812e-01,9.90773e-01,9.99999e-01,9.98716e-01,9.92048e-01,9.99997e-01
7.882144461e-01,9.89572e-01,9.99999e-01,9.97364e-01,9.92205e-01,9.99981e-01
7.921555184e-01,9.90895e-01,9.99999e-01,9.98556e-01,9.92358e-01,9.99968e-01
7.961162960e-01,9.89938e-01,9.99999e-01,9.97439e-01,9.92508e-01,9.99969e-01
8.000968774e-01,9.89696e-01,9.99999e-01,9.97049e-01,9.92656e-01,9.99967e-01
8.040973618e-01,9.89845e-01,9.99999e-01,9.97047e-01,9.92800e-01,9.99975e-01
8.081178486e-01,9.86299e-01,9.99999e-01,9.93333e-01,9.92942e-01,9.99974e-01
8.121584379e-01,9.65640e-01,9.99999e-01,9.72457e-01,9.93081e-01,9.99906e-01
8.162192301e-01,9.60575e-01,9.99999e-01,9.67473e-01,9.93217e-01,9.99649e-01
8.203003262e-01,9.76560e-01,9.99999e-01,9.83498e-01,9.93351e-01,9.99590e-01
8.244018279e-01,9.70482e-01,9.99999e-01,9.77168e-01,9.93481e-01,9.99673e-01
8.285238370e-01,9.73935e-01,9.99999e-01,9.80449e-01,9.93610e-01,9.99743e-01
8.326664562e-01,9.74015e-01,9.99999e-01,9.80258e-01,9.93736e-01,9.99893e-01
8.368297885e-01,9.79813e-01,9.99999e-01,9.85890e-01,9.93859e-01,9.99975e-01
8.410139374e-01,9.85617e-01,9.99999e-01,9.91600e-01,9.93980e-01,9.99985e-01
8.452190071e-01,9.89992e-01,9.99999e-01,9.95876e-01,9.94098e-01,9.99991e-01
8.494451021e-01,9.91826e-01,9.99999e-01,9.97603e-01,9.94215e-01,9.99992e-01
8.536923276e-01,9.92917e-01,9.99999e-01,9.98584e-01,9.94329e-01,9.99995e-01
8.579607893e-01,9.93572e-01,9.99999e-01,9.99126e-01,9.94440e-01,9.99998e-01
8.622505932e-01,9.93999e-01,9.99999e-01,9.99445e-01,9.94550e-01,9.99999e-01
8.665618462e-01,9.94316e-01,9.99999e-01,9.99656e-01,9.94657e-01,9.99999e-01
8.708946554e-01,9.94371e-01,9.99999e-01,9.99606e-01,9.94762e-01,9.99999e-01
8.752491287e-01,9.94342e-01,9.99999e-01,9.99473e-01,9.94865e-01,9.99998e-01
8.796253743e-01,9.94240e-01,9.99999e-01,9.99270e-01,9.94967e-01,9.99997e-01
8.840235012e-01,9.94233e-01,9.99999e-01,9.99167e-01,9.95066e-01,9.99994e-01
8.884436187e-01,9.92107e-01,9.99999e-01,9.96942e-01,9.95163e-01,9.99985e-01
8.928858368e-01,9.63607e-01,9.99999e-01,9.68277e-01,9.95258e-01,9.99916e-01
8.973502660e-01,9.39876e-01,9.99999e-01,9.44666e-01,9.95352e-01,9.99574e-01
9.018370173e-01,9.66359e-01,9.99999e-01,9.71431e-01,9.95443e-01,9.99330e-01
9.063462024e-01,9.69780e-01,9.99999e-01,9.74704e-01,9.95533e-01,9.99411e-01
9.108779334e-01,9.56096e-01,9.99999e-01,9.60887e-01,9.95621e-01,9.99388e-01
9.154323231e-01,9.51167e-01,9.99999e-01,9.55749e-01,9.95707e-01,9.99494e-01
9.200094847e-01,9.60851e-01,9.99999e-01,9.65183e-01,9.95792e-01,9.99717e-01
9.246095321e-01,9.41091e-01,9.99999e-01,9.45296e-01,9.95875e-01,9.99674e-01
9.292325798e-01,6.82342e-01,9.99999e-01,6.85982e-01,9.95956e-01,9.98730e-01
9.338787427e-01,6.09594e-01,9.99999e-01,6.15240e-01,9.96036e-01,9.94765e-01
9.385481364e-01,8.14238e-01,9.99999e-01,8.22532e-01,9.96114e-01,9.93776e-01
9.432408771e-01,7.52751e-01,9.99999e-01,7.59709e-01,9.96191e-01,9.94628e-01
9.479570815e-01,6.77365e-01,9.99999e-01,6.82889e-01,9.96266e-01,9.95626e-01
9.526968669e-01,7.48894e-01,9.99999e-01,7.53657e-01,9.96339e-01,9.97329e-01
9.574603512e-01,7.69144e-01,9.99999e-01,7.72962e-01,9.96411e-01,9.98642e-01
9.622476530e-01,8.07961e-01,9.99999e-01,8.11574e-01,9.96482e-01,9.99061e-01
9.670588912e-01,8.83099e-01,9.99999e-01,8.86723e-01,9.96552e-01,9.99357e-01
9.718941857e-01,9.24239e-01,9.99999e-01,9.27811e-01,9.96620e-01,9.99526e-01
9.767536566e-01,9.36257e-01,9.99999e-01,9.39709e-01,9.96686e-01,9.99638e-01
9.816374249e-01,9.51819e-01,9.99999e-01,9.55039e-01,9.96751e-01,9.99874e-01
9.865456120e-01,9.68571e-01,9.99999e-01,9.71690e-01,9.96816e-01,9.99973e-01
9.914783401e-01,9.79339e-01,9.99999e-01,9.82412e-01,9.96878e-01,9.99992e-01
9.964357318e-01,9.87353e-01,9.99999e-01,9.90386e-01,9.96940e-01,9.99995e-01
1.001417910e+00,9.91241e-01,9.99999e-01,9.94229e-01,9.97000e-01,9.99993e-01
1.006425000e+00,9.93766e-01,9.99999e-01,9.96705e-01,9.97059e-01,9.99990e-01
1.011457125e+00,9.95071e-01,9.99999e-01,9.97955e-01,9.97117e-01,9.99990e-01
1.016514411e+00,9.95784e-01,9.99999e-01,9.98611e-01,9.97174e-01,9.99993e-01
1.021596983e+00,9.96120e-01,9.99999e-01,9.98892e-01,9.97230e-01,9.99993e-01
1.026704968e+00,9.96420e-01,9.99999e-01,9.99136e-01,9.97285e-01,9.99995e-01
1.031838492e+00,9.96712e-01,9.99999e-01,9.99372e-01,9.97338e-01,9.99998e-01
1.036997685e+00,9.97019e-01,9.99999e-01,9.99626e-01,9.97391e-01,9.99999e-01
1.042182673e+00,9.96998e-01,9.99999e-01,9.99554e-01,9.97442e-01,9.99999e-01
1.047393587e+00,9.96904e-01,9.99999e-01,9.99409e-01,9.97492e-01,9.99999e-01
1.052630555e+00,9.96734e-01,9.99999e-01,9.99190e-01,9.97542e-01,9.99999e-01
1.057893707e+00,9.96241e-01,9.99999e-01,9.98647e-01,9.97590e-01,9.99999e-01
1.063183176e+00,9.95418e-01,9.99999e-01,9.97775e-01,9.97638e-01,9.99998e-01
1.068499092e+00,9.93970e-01,9.99999e-01,9.96278e-01,9.97684e-01,9.99996e-01
1.073841587e+00,9.93377e-01,9.99999e-01,9.95641e-01,9.97730e-01,9.99994e-01
1.079210795e+00,9.92198e-01,9.99999e-01,9.94424e-01,9.97775e-01,9.99984e-01
1.084606849e+00,9.89366e-01,9.99999e-01,9.91563e-01,9.97819e-01,9.99963e-01
1.090029883e+00,9.85687e-01,9.99999e-01,9.87871e-01,9.97862e-01,9.99925e-01
1.095480033e+00,9.65154e-01,9.99999e-01,9.67310e-01,9.97904e-01,9.99865e-01
1.100957433e+00,9.16772e-01,9.99999e-01,9.18885e-01,9.97945e-01,9.99752e-01
1.106462220e+00,8.03713e-01,9.99999e-01,8.05671e-01,9.97986e-01,9.99580e-01
1.111994531e+00,6.32654e-01,9.99999e-01,6.34610e-01,9.98026e-01,9.98888e-01
1.117554504e+00,4.75500e-01,9.99999e-01,4.78338e-01,9.98065e-01,9.95994e-01
1.123142276e+00,5.72707e-01,9.99999e-01,5.79282e-01,9.98103e-01,9.90528e-01
1.128757988e+00,6.97136e-01,9.99999e-01,7.06165e-01,9.98140e-01,9.89051e-01
1.134401778e+00,4.48066e-01,9.99999e-01,4.53105e-01,9.98177e-01,9.90682e-01
1.140073787e+00,8.06022e-01,9.99999e-01,8.13526e-01,9.98213e-01,9.92548e-01
1.145774156e+00,6.43532e-01,9.99999e-01,6.49089e-01,9.98248e-01,9.93177e-01
1.151503026e+00,6.13459e-01,9.99999e-01,6.16862e-01,9.98283e-01,9.96193e-01
1.157260541e+00,6.68781e-01,9.99999e-01,6.70673e-01,9.98316e-01,9.98859e-01
1.163046844e+00,7.43363e-01,9.99999e-01,7.44831e-01,9.98350e-01,9.99676e-01
1.168862078e+00,8.14020e-01,9.99999e-01,8.15474e-01,9.98382e-01,9.99833e-01
1.174706389e+00,8.80140e-01,9.99999e-01,8.81732e-01,9.98414e-01,9.99778e-01
1.180579921e+00,9.24527e-01,9.99999e-01,9.26275e-01,9.98445e-01,9.99665e-01
1.186482820e+00,9.55890e-01,9.99999e-01,9.57676e-01,9.98476e-01,9.99657e-01
1.192415234e+00,9.73381e-01,9.99999e-01,9.75086e-01,9.98506e-01,9.99743e-01
1.198377311e+00,9.77277e-01,9.99999e-01,9.78946e-01,9.98536e-01,9.99757e-01
1.204369197e+00,9.78443e-01,9.99999e-01,9.80064e-01,9.98564e-01,9.99780e-01
1.210391043e+00,9.79424e-01,9.99999e-01,9.80934e-01,9.98593e-01,9.99866e-01
1.216442998e+00,9.82334e-01,9.99999e-01,9.83770e-01,9.98621e-01,9.99917e-01
1.222525213e+00,9.85959e-01,9.99999e-01,9.87343e-01,9.98648e-01,9.99948e-01
1.228637839e+00,9.89858e-01,9.99999e-01,9.91194e-01,9.98674e-01,9.99975e-01
1.234781029e+00,9.92161e-01,9.99999e-01,9.93457e-01,9.98701e-01,9.99992e-01
1.240954934e+00,9.94588e-01,9.99999e-01,9.95857e-01,9.98726e-01,9.99997e-01
1.247159708e+00,9.95529e-01,9.99999e-01,9.96774e-01,9.98751e-01,9.99998e-01
1.253395507e+00,9.95913e-01,9.99999e-01,9.97134e-01,9.98776e-01,9.99997e-01
1.259662485e+00,9.96077e-01,9.99999e-01,9.97276e-01,9.98800e-01,9.99996e-01
1.265960797e+00,9.94478e-01,9.99999e-01,9.95652e-01,9.98824e-01,9.99995e-01
1.272290601e+00,9.92018e-01,9.99999e-01,9.93169e-01,9.98847e-01,9.99992e-01
1.278652054e+00,9.85329e-01,9.99999e-01,9.86456e-01,9.98870e-01,9.99986e-01
1.285045314e+00,9.74433e-01,9.99999e-01,9.75537e-01,9.98892e-01,9.99974e-01
1.291470541e+00,9.56665e-01,9.99999e-01,9.57746e-01,9.98914e-01,9.99956e-01
1.297927893e+00,9.39291e-01,9.99999e-01,9.40367e-01,9.98935e-01,9.99919e-01
1.304417533e+00,9.28953e-01,9.99999e-01,9.30081e-01,9.98956e-01,9.99828e-01
1.310939621e+00,9.18900e-01,9.99999e-01,9.20162e-01,9.98977e-01,9.99649e-01
1.317494319e+00,9.12449e-01,9.99999e-01,9.13956e-01,9.98997e-01,9.99351e-01
1.324081790e+00,8.71853e-01,9.99999e-01,8.73634e-01,9.99017e-01,9.98942e-01
1.330702199e+00,5.67493e-01,9.99999e-01,5.69076e-01,9.99036e-01,9.98177e-01
1.337355710e+00,2.44189e-01,9.99999e-01,2.45280e-01,9.99055e-01,9.96492e-01
1.344042489e+00,2.57782e-02,9.99999e-01,2.60766e-02,9.99074e-01,9.89474e-01
1.350762701e+00,6.68915e-04,9.99999e-01,6.94220e-04,9.99092e-01,9.64423e-01
1.357516515e+00,4.62177e-05,9.99999e-01,5.14476e-05,9.99110e-01,8.99143e-01
1.364304097e+00,1.20383e-03,9.99999e-01,1.45165e-03,9.99128e-01,8.30007e-01
1.371125618e+00,1.02777e-02,9.99999e-01,1.22618e-02,9.99145e-01,8.38900e-01
1.377981246e+00,2.02914e-02,9.99999e-01,2.36085e-02,9.99162e-01,8.60211e-01
1.384871152e+00,1.16560e-03,9.99999e-01,1.34227e-03,9.99178e-01,8.69088e-01
1.391795508e+00,1.74329e-03,9.99999e-01,1.99437e-03,9.99194e-01,8.74811e-01
1.398754485e+00,4.55035e-03,9.99999e-01,5.08591e-03,9.99210e-01,8.95404e-01
1.405748258e+00,4.31939e-03,9.99999e-01,4.61113e-03,9.99226e-01,9.37455e-01
1.412776999e+00,4.94300e-03,9.99999e-01,5.09479e-03,9.99241e-01,9.70942e-01
1.419840884e+00,7.09259e-03,9.99999e-01,7.19023e-03,9.99256e-01,9.87153e-01
1.426940089e+00,2.07591e-02,9.99999e-01,2.09793e-02,9.99271e-01,9.90224e-01
1.434074789e+00,5.14945e-02,9.99999e-01,5.21320e-02,9.99285e-01,9.88475e-01
1.441245163e+00,1.05948e-01,9.99999e-01,1.07362e-01,9.99299e-01,9.87522e-01
1.448451389e+00,2.00602e-01,9.99999e-01,2.02958e-01,9.99313e-01,9.89066e-01
1.455693646e+00,3.50246e-01,9.99999e-01,3.53492e-01,9.99327e-01,9.91482e-01
1.462972114e+00,4.06146e-01,9.99999e-01,4.09743e-01,9.99340e-01,9.91874e-01
1.470286975e+00,3.49445e-01,9.99999e-01,3.52487e-01,9.99353e-01,9.92012e-01
