#,Wave/freq,Total,N2,H2O,Rayleigh,CIA
4.000000000e-01,7.35086e-02,9.99999e-01,9.99705e-01,7.35302e-02,9.99999e-01
4.020000000e-01,7.74104e-02,9.99999e-01,9.99817e-01,7.74245e-02,9.99999e-01
4.040100000e-01,8.14315e-02,9.99999e-01,9.99922e-01,8.14377e-02,9.99999e-01
4.060300500e-01,8.55720e-02,9.99999e-01,9.99982e-01,8.55735e-02,9.99999e-01
4.080602003e-01,8.98309e-02,9.99999e-01,9.99993e-01,8.98315e-02,9.99999e-01
4.101005013e-01,9.42108e-02,9.99999e-01,9.99999e-01,9.42108e-02,9.99999e-01
4.121510038e-01,9.87098e-02,9.99999e-01,9.99988e-01,9.87108e-02,9.99999e-01
4.142117588e-01,1.03322e-01,9.99999e-01,9.99917e-01,1.03331e-01,9.99999e-01
4.162828176e-01,1.08029e-01,9.99999e-01,9.99635e-01,1.08069e-01,9.99999e-01
4.183642317e-01,1.12900e-01,9.99999e-01,9.99783e-01,1.12924e-01,9.99999e-01
4.204560528e-01,1.17880e-01,9.99999e-01,9.99867e-01,1.17895e-01,9.99999e-01
4.225583331e-01,1.22975e-01,9.99999e-01,9.99950e-01,1.22981e-01,9.99999e-01
4.246711247e-01,1.28173e-01,9.99999e-01,9.99959e-01,1.28178e-01,9.99999e-01
4.267944804e-01,1.33479e-01,9.99999e-01,9.99941e-01,1.33487e-01,9.99999e-01
4.289284528e-01,1.38897e-01,9.99999e-01,9.99954e-01,1.38903e-01,9.99999e-01
4.310730950e-01,1.44423e-01,9.99999e-01,9.99980e-01,1.44426e-01,9.99999e-01
4.332284605e-01,1.50052e-01,9.99999e-01,9.99994e-01,1.50053e-01,9.99999e-01
4.353946028e-01,1.55781e-01,9.99999e-01,9.99997e-01,1.55782e-01,9.99999e-01
4.375715758e-01,1.61603e-01,9.99999e-01,9.99962e-01,1.61609e-01,9.99999e-01
4.397594337e-01,1.67479e-01,9.99999e-01,9.99676e-01,1.67533e-01,9.99999e-01
4.419582309e-01,1.73265e-01,9.99999e-01,9.98354e-01,1.73551e-01,9.99999e-01
4.441680220e-01,1.79433e-01,9.99999e-01,9.98738e-01,1.79659e-01,9.99999e-01
4.463888621e-01,1.85611e-01,9.99999e-01,9.98679e-01,1.85856e-01,9.99999e-01
4.486208064e-01,1.91981e-01,9.99999e-01,9.99183e-01,1.92137e-01,9.99999e-01
4.508639105e-01,1.98425e-01,9.99999e-01,9.99617e-01,1.98501e-01,9.99999e-01
4.531182300e-01,2.04912e-01,9.99999e-01,9.99848e-01,2.04943e-01,9.99999e-01
4.553838212e-01,2.11439e-01,9.99999e-01,9.99896e-01,2.11461e-01,9.99999e-01
4.576607403e-01,2.18041e-01,9.99999e-01,9.99952e-01,2.18051e-01,9.99999e-01
4.599490440e-01,2.24703e-01,9.99999e-01,9.99966e-01,2.24711e-01,9.99999e-01
4.622487892e-01,2.31435e-01,9.99999e-01,9.99993e-01,2.31436e-01,9.99999e-01
4.645600332e-01,2.38218e-01,9.99999e-01,9.99976e-01,2.38224e-01,9.99999e-01
4.668828333e-01,2.44975e-01,9.99999e-01,9.99609e-01,2.45070e-01,9.99999e-01
4.692172475e-01,2.51764e-01,9.99999e-01,9.99171e-01,2.51973e-01,9.99999e-01
4.715633337e-01,2.58787e-01,9.99999e-01,9.99457e-01,2.58928e-01,9.99999e-01
4.739211504e-01,2.65794e-01,9.99999e-01,9.99483e-01,2.65932e-01,9.99999e-01
4.762907561e-01,2.72908e-01,9.99999e-01,9.99732e-01,2.72981e-01,9.99999e-01
4.786722099e-01,2.80041e-01,9.99999e-01,9.99890e-01,2.80072e-01,9.99999e-01
4.810655710e-01,2.87193e-01,9.99999e-01,9.99966e-01,2.87202e-01,9.99999e-01
4.834708988e-01,2.94272e-01,9.99999e-01,9.99676e-01,2.94367e-01,9.99999e-01
4.858882533e-01,3.01388e-01,9.99999e-01,9.99414e-01,3.01565e-01,9.99999e-01
4.883176946e-01,3.08639e-01,9.99999e-01,9.99507e-01,3.08791e-01,9.99999e-01
4.907592831e-01,3.15902e-01,9.99999e-01,9.99557e-01,3.16042e-01,9.99999e-01
4.932130795e-01,3.23213e-01,9.99999e-01,9.99685e-01,3.23315e-01,9.99999e-01
4.956791449e-01,3.30552e-01,9.99999e-01,9.99833e-01,3.30607e-01,9.99999e-01
4.981575406e-01,3.37632e-01,9.99999e-01,9.99164e-01,3.37914e-01,9.99999e-01
5.006483283e-01,3.44479e-01,9.99999e-01,9.97825e-01,3.45234e-01,9.99984e-01
5.031515699e-01,3.48684e-01,9.99999e-01,9.89110e-01,3.52563e-01,9.99884e-01
5.056673278e-01,3.57782e-01,9.99999e-01,9.94247e-01,3.59899e-01,9.99868e-01
5.081956644e-01,3.64546e-01,9.99999e-01,9.92748e-01,3.67237e-01,9.99919e-01
5.107366428e-01,3.72737e-01,9.99999e-01,9.95103e-01,3.74576e-01,9.99985e-01
5.132903260e-01,3.80844e-01,9.99999e-01,9.97203e-01,3.81912e-01,9.99997e-01
5.158567776e-01,3.88784e-01,9.99999e-01,9.98819e-01,3.89243e-01,9.99999e-01
5.184360615e-01,3.96378e-01,9.99999e-01,9.99526e-01,3.96566e-01,9.99999e-01
5.210282418e-01,4.03806e-01,9.99999e-01,9.99822e-01,4.03877e-01,9.99999e-01
5.236333830e-01,4.10880e-01,9.99999e-01,9.99286e-01,4.11175e-01,9.99994e-01
5.262515499e-01,4.18268e-01,9.99999e-01,9.99553e-01,4.18457e-01,9.99992e-01
5.288828077e-01,4.25543e-01,9.99999e-01,9.99588e-01,4.25720e-01,9.99995e-01
5.315272217e-01,4.32807e-01,9.99999e-01,9.99641e-01,4.32962e-01,9.99998e-01
5.341848578e-01,4.40077e-01,9.99999e-01,9.99763e-01,4.40181e-01,9.99999e-01
5.368557821e-01,4.47000e-01,9.99999e-01,9.99165e-01,4.47373e-01,9.99997e-01
5.395400610e-01,4.53152e-01,9.99999e-01,9.96978e-01,4.54538e-01,9.99971e-01
5.422377613e-01,4.59859e-01,9.99999e-01,9.96141e-01,4.61673e-01,9.99928e-01
5.449489501e-01,4.67048e-01,9.99999e-01,9.96388e-01,4.68775e-01,9.99927e-01
5.476736949e-01,4.74315e-01,9.99999e-01,9.96824e-01,4.75843e-01,9.99964e-01
5.504120634e-01,4.81757e-01,9.99999e-01,9.97693e-01,4.82875e-01,9.99989e-01
5.531641237e-01,4.89300e-01,9.99999e-01,9.98839e-01,4.89868e-01,9.99998e-01
5.559299443e-01,4.96545e-01,9.99999e-01,9.99440e-01,4.96822e-01,9.99999e-01
5.587095940e-01,5.03557e-01,9.99999e-01,9.99647e-01,5.03735e-01,9.99999e-01
5.615031420e-01,5.10403e-01,9.99999e-01,9.99607e-01,5.10604e-01,9.99998e-01
5.643106577e-01,5.17194e-01,9.99999e-01,9.99549e-01,5.17428e-01,9.99995e-01
5.671322110e-01,5.21316e-01,9.99999e-01,9.94532e-01,5.24207e-01,9.99951e-01
5.699678720e-01,5.27837e-01,9.99999e-01,9.94307e-01,5.30937e-01,9.99852e-01
5.728177114e-01,5.34333e-01,9.99999e-01,9.94010e-01,5.37618e-01,9.99877e-01
5.756818000e-01,5.41225e-01,9.99999e-01,9.94513e-01,5.44249e-01,9.99928e-01
5.785602090e-01,5.48188e-01,9.99999e-01,9.95225e-01,5.50829e-01,9.99979e-01
5.814530100e-01,5.54672e-01,9.99999e-01,9.95195e-01,5.57355e-01,9.99989e-01
5.843602750e-01,5.60565e-01,9.99999e-01,9.94244e-01,5.63828e-01,9.99967e-01
5.872820764e-01,5.42625e-01,9.99999e-01,9.51892e-01,5.70246e-01,9.99652e-01
5.902184868e-01,5.42638e-01,9.99999e-01,9.41976e-01,5.76608e-01,9.99054e-01
5.931695792e-01,5.58364e-01,9.99999e-01,9.58756e-01,5.82913e-01,9.99090e-01
5.961354271e-01,5.62240e-01,9.99999e-01,9.54805e-01,5.89160e-01,9.99477e-01
5.991161043e-01,5.75491e-01,9.99999e-01,9.66800e-01,5.95349e-01,9.99837e-01
6.021116848e-01,5.90067e-01,9.99999e-01,9.81043e-01,6.01479e-01,9.99981e-01
6.051222432e-01,6.01696e-01,9.99999e-01,9.90365e-01,6.07549e-01,9.99998e-01
6.081478544e-01,6.11001e-01,9.99999e-01,9.95830e-01,6.13559e-01,9.99999e-01
6.111885937e-01,6.18417e-01,9.99999e-01,9.98238e-01,6.19508e-01,9.99999e-01
6.142445367e-01,6.24902e-01,9.99999e-01,9.99211e-01,6.25395e-01,9.99999e-01
6.173157594e-01,6.30946e-01,9.99999e-01,9.99564e-01,6.31220e-01,9.99999e-01
6.204023382e-01,6.36747e-01,9.99999e-01,9.99629e-01,6.36983e-01,9.99999e-01
6.235043498e-01,6.41621e-01,9.99999e-01,9.98351e-01,6.42683e-01,9.99995e-01
6.266218716e-01,6.42714e-01,9.99999e-01,9.91412e-01,6.48320e-01,9.99939e-01
6.297549810e-01,6.51750e-01,9.99999e-01,9.96842e-01,6.53893e-01,9.99878e-01
6.329037559e-01,6.55238e-01,9.99999e-01,9.93778e-01,6.59403e-01,9.99902e-01
6.360682746e-01,6.61276e-01,9.99999e-01,9.94681e-01,6.64849e-01,9.99942e-01
6.392486160e-01,6.65606e-01,9.99999e-01,9.93123e-01,6.70232e-01,9.99974e-01
6.424448591e-01,6.69273e-01,9.99999e-01,9.90753e-01,6.75550e-01,9.99954e-01
6.456570834e-01,6.51984e-01,9.99999e-01,9.57914e-01,6.80804e-01,9.99740e-01
6.488853688e-01,6.64513e-01,9.99999e-01,9.69328e-01,6.85994e-01,9.99336e-01
6.521297956e-01,6.69201e-01,9.99999e-01,9.68815e-01,6.91120e-01,9.99452e-01
6.553904446e-01,6.74078e-01,9.99999e-01,9.68643e-01,6.96182e-01,9.99592e-01
6.586673968e-01,6.82320e-01,9.99999e-01,9.73235e-01,7.01179e-01,9.99863e-01
6.619607338e-01,6.95481e-01,9.99999e-01,9.84970e-01,7.06113e-01,9.99970e-01
6.652705375e-01,7.04539e-01,9.99999e-01,9.90949e-01,7.10983e-01,9.99984e-01
6.685968902e-01,7.13031e-01,9.99999e-01,9.96147e-01,7.15790e-01,9.99997e-01
6.719398746e-01,7.19127e-01,9.99999e-01,9.98048e-01,7.20533e-01,9.99999e-01
6.752995740e-01,7.24465e-01,9.99999e-01,9.98968e-01,7.25213e-01,9.99999e-01
6.786760719e-01,7.28702e-01,9.99999e-01,9.98455e-01,7.29830e-01,9.99997e-01
6.820694522e-01,7.32444e-01,9.99999e-01,9.97370e-01,7.34384e-01,9.99985e-01
6.854797995e-01,7.36348e-01,9.99999e-01,9.96606e-01,7.38876e-01,9.99970e-01
6.889071985e-01,7.37109e-01,9.99999e-01,9.91734e-01,7.43306e-01,9.99926e-01
6.923517345e-01,6.54062e-01,9.99999e-01,8.75355e-01,7.47675e-01,9.99358e-01
6.958134932e-01,7.01635e-01,9.99999e-01,9.34374e-01,7.51981e-01,9.98580e-01
6.992925606e-01,7.06882e-01,9.99999e-01,9.35945e-01,7.56227e-01,9.98720e-01
7.027890234e-01,7.00388e-01,9.99999e-01,9.21962e-01,7.60412e-01,9.99022e-01
7.063029686e-01,7.13499e-01,9.99999e-01,9.33696e-01,7.64537e-01,9.99513e-01
7.098344834e-01,7.19376e-01,9.99999e-01,9.36221e-01,7.68603e-01,9.99712e-01
7.133836558e-01,7.07355e-01,9.99999e-01,9.16064e-01,7.72609e-01,9.99428e-01
7.169505741e-01,4.03189e-01,9.99999e-01,5.21541e-01,7.76556e-01,9.95511e-01
7.205353270e-01,5.59787e-01,9.99999e-01,7.22981e-01,7.80444e-01,9.92093e-01
7.241380036e-01,5.11599e-01,9.99999e-01,6.56806e-01,7.84275e-01,9.93169e-01
7.277586936e-01,5.36899e-01,9.99999e-01,6.85128e-01,7.88049e-01,9.94412e-01
7.313974871e-01,5.25381e-01,9.99999e-01,6.65300e-01,7.91765e-01,9.97379e-01
7.350544745e-01,6.34177e-01,9.99999e-01,7.98007e-01,7.95425e-01,9.99088e-01
7.387297469e-01,6.75452e-01,9.99999e-01,8.45694e-01,7.99029e-01,9.99581e-01
7.424233956e-01,7.39125e-01,9.99999e-01,9.21004e-01,8.02578e-01,9.99926e-01
7.461355126e-01,7.66744e-01,9.99999e-01,9.51221e-01,8.06072e-01,9.99987e-01
7.498661902e-01,7.90907e-01,9.99999e-01,9.77021e-01,8.09512e-01,9.99994e-01
7.536155211e-01,8.03653e-01,9.99999e-01,9.88630e-01,8.12898e-01,9.99996e-01
7.573835987e-01,8.11442e-01,9.99999e-01,9.94133e-01,8.16231e-01,9.99998e-01
7.611705167e-01,8.16521e-01,9.99999e-01,9.96350e-01,8.19511e-01,9.99999e-01
7.649763693e-01,8.20855e-01,9.99999e-01,9.97709e-01,8.22740e-01,9.99999e-01
7.688012511e-01,8.24598e-01,9.99999e-01,9.98402e-01,8.25917e-01,9.99999e-01
7.726452574e-01,8.27952e-01,9.99999e-01,9.98684e-01,8.29043e-01,9.99998e-01
7.765084837e-01,8.30553e-01,9.99999e-01,9.98119e-01,8.32119e-01,9.99997e-01
7.803910261e-01,8.28364e-01,9.99999e-01,9.91888e-01,8.35145e-01,9.99991e-01
7.842929812e-01,8.14622e-01,9.99999e-01,9.72010e-01,8.38122e-01,9.99947e-01
7.882144461e-01,7.93221e-01,9.99999e-01,9.43506e-01,8.41050e-01,9.99601e-01
7.921555184e-01,8.17018e-01,9.99999e-01,9.68780e-01,8.43931e-01,9.99307e-01
7.961162960e-01,7.99740e-01,9.99999e-01,9.45088e-01,8.46764e-01,9.99340e-01
8.000968774e-01,7.95330e-01,9.99999e-01,9.36833e-01,8.49551e-01,9.99298e-01
8.040973618e-01,7.98039e-01,9.99999e-01,9.36845e-01,8.52291e-01,9.99464e-01
8.081178486e-01,7.38702e-01,9.99999e-01,8.64460e-01,8.54986e-01,9.99457e-01
8.121584379e-01,4.77301e-01,9.99999e-01,5.57674e-01,8.57636e-01,9.97948e-01
8.162192301e-01,4.32587e-01,9.99999e-01,5.06764e-01,8.60242e-01,9.92307e-01
8.203003262e-01,6.19764e-01,9.99999e-01,7.24838e-01,8.62804e-01,9.90998e-01
8.244018279e-01,5.63425e-01,9.99999e-01,6.55818e-01,8.65322e-01,9.92829e-01
8.285238370e-01,5.67220e-01,9.99999e-01,6.57335e-01,8.67798e-01,9.94363e-01
8.326664562e-01,5.70868e-01,9.99999e-01,6.57529e-01,8.70232e-01,9.97665e-01
8.368297885e-01,6.41611e-01,9.99999e-01,7.35657e-01,8.72625e-01,9.99465e-01
8.410139374e-01,7.27874e-01,9.99999e-01,8.32138e-01,8.74976e-01,9.99687e-01
8.452190071e-01,8.01159e-01,9.99999e-01,9.13393e-01,8.77288e-01,9.99813e-01
8.494451021e-01,8.34133e-01,9.99999e-01,9.48495e-01,8.79559e-01,9.99849e-01
8.536923276e-01,8.54638e-01,9.99999e-01,9.69293e-01,8.81792e-01,9.99908e-01
8.579607893e-01,8.67108e-01,9.99999e-01,9.80928e-01,8.83985e-01,9.99977e-01
8.622505932e-01,8.75384e-01,9.99999e-01,9.87863e-01,8.86141e-01,9.99995e-01
8.665618462e-01,8.81556e-01,9.99999e-01,9.92454e-01,8.88259e-01,9.99997e-01
8.708946554e-01,8.82635e-01,9.99999e-01,9.91349e-01,8.90341e-01,9.99994e-01
8.752491287e-01,8.82067e-01,9.99999e-01,9.88448e-01,8.92386e-01,9.99987e-01
8.796253743e-01,8.80056e-01,9.99999e-01,9.84002e-01,8.94395e-01,9.99963e-01
8.840235012e-01,8.79930e-01,9.99999e-01,9.81769e-01,8.96369e-01,9.99888e-01
8.884436187e-01,8.40326e-01,9.99999e-01,9.35750e-01,8.98308e-01,9.99682e-01
8.928858368e-01,4.68106e-01,9.99999e-01,5.20948e-01,9.00213e-01,9.98168e-01
8.973502660e-01,2.89788e-01,9.99999e-01,3.24274e-01,9.02084e-01,9.90649e-01
9.018370173e-01,5.02746e-01,9.99999e-01,5.64458e-01,9.03922e-01,9.85337e-01
9.063462024e-01,5.32041e-01,9.99999e-01,5.95090e-01,9.05727e-01,9.87108e-01
9.108779334e-01,4.01240e-01,9.99999e-01,4.48139e-01,9.07501e-01,9.86607e-01
9.154323231e-01,3.55350e-01,9.99999e-01,3.95199e-01,9.09242e-01,9.88917e-01
9.200094847e-01,4.43248e-01,9.99999e-01,4.89621e-01,9.10952e-01,9.93781e-01
9.246095321e-01,3.22796e-01,9.99999e-01,3.56249e-01,9.12632e-01,9.92838e-01
9.292325798e-01,9.97559e-03,9.99999e-01,1.12961e-02,9.14282e-01,9.65894e-01
9.338787427e-01,6.03371e-04,9.99999e-01,7.46808e-04,9.15901e-01,8.82116e-01
9.385481364e-01,4.14562e-02,9.99999e-01,5.18605e-02,9.17492e-01,8.71265e-01
9.432408771e-01,1.76627e-02,9.99999e-01,2.16445e-02,9.19054e-01,8.87905e-01
9.479570815e-01,2.37918e-03,9.99999e-01,2.84698e-03,9.20588e-01,9.07773e-01
9.526968669e-01,8.61895e-03,9.99999e-01,9.91540e-03,9.22093e-01,9.42689e-01
9.574603512e-01,1.13698e-02,9.99999e-01,1.26853e-02,9.23572e-01,9.70466e-01
9.622476530e-01,2.35824e-02,9.99999e-01,2.60278e-02,9.25023e-01,9.79483e-01
9.670588912e-01,1.03950e-01,9.99999e-01,1.13805e-01,9.26448e-01,9.85923e-01
9.718941857e-01,1.97886e-01,9.99999e-01,2.15511e-01,9.27848e-01,9.89618e-01
9.767536566e-01,2.56392e-01,9.99999e-01,2.78131e-01,9.29221e-01,9.92056e-01
9.816374249e-01,3.50505e-01,9.99999e-01,3.77697e-01,9.30569e-01,9.97243e-01
9.865456120e-01,5.01748e-01,9.99999e-01,5.38727e-01,9.31893e-01,9.99425e-01
9.914783401e-01,6.33415e-01,9.99999e-01,6.78869e-01,9.33192e-01,9.99840e-01
9.964357318e-01,7.56396e-01,9.99999e-01,8.09515e-01,9.34468e-01,9.99906e-01
1.001417910e+00,8.23921e-01,9.99999e-01,8.80646e-01,9.35720e-01,9.99857e-01
1.006425000e+00,8.71037e-01,9.99999e-01,9.29841e-01,9.36948e-01,9.99796e-01
1.011457125e+00,8.96660e-01,9.99999e-01,9.55949e-01,9.38154e-01,9.99811e-01
1.016514411e+00,9.10877e-01,9.99999e-01,9.69829e-01,9.39338e-01,9.99866e-01
1.021596983e+00,9.17686e-01,9.99999e-01,9.75869e-01,9.40500e-01,9.99869e-01
1.026704968e+00,9.23786e-01,9.99999e-01,9.81118e-01,9.41640e-01,9.99917e-01
1.031838492e+00,9.29790e-01,9.99999e-01,9.86266e-01,9.42759e-01,9.99974e-01
1.036997685e+00,9.36122e-01,9.99999e-01,9.91807e-01,9.43858e-01,9.99995e-01
1.042182673e+00,9.35684e-01,9.99999e-01,9.90210e-01,9.44935e-01,9.99997e-01
1.047393587e+00,9.33747e-01,9.99999e-01,9.87056e-01,9.45993e-01,9.99997e-01
1.052630555e+00,9.30232e-01,9.99999e-01,9.82265e-01,9.47031e-01,9.99994e-01
1.057893707e+00,9.20126e-01,9.99999e-01,9.70555e-01,9.48050e-01,9.99989e-01
1.063183176e+00,9.03594e-01,9.99999e-01,9.52128e-01,9.49049e-01,9.99974e-01
1.068499092e+00,8.75284e-01,9.99999e-01,9.21372e-01,9.50030e-01,9.99944e-01
1.073841587e+00,8.64386e-01,9.99999e-01,9.09040e-01,9.50992e-01,9.99878e-01
1.079210795e+00,8.42026e-01,9.99999e-01,8.84829e-01,9.51937e-01,9.99671e-01
1.084606849e+00,7.91770e-01,9.99999e-01,8.31592e-01,9.52863e-01,9.99210e-01
1.090029883e+00,7.32055e-01,9.99999e-01,7.68793e-01,9.53773e-01,9.98364e-01
1.095480033e+00,4.67906e-01,9.99999e-01,4.91578e-01,9.54665e-01,9.97043e-01
1.100957433e+00,1.73778e-01,9.99999e-01,1.82857e-01,9.55540e-01,9.94565e-01
1.106462220e+00,2.21478e-02,9.99999e-01,2.33725e-02,9.56399e-01,9.90799e-01
1.111994531e+00,4.40215e-04,9.99999e-01,4.71302e-04,9.57241e-01,9.75761e-01
1.117554504e+00,1.53133e-05,9.99999e-01,1.74641e-05,9.58068e-01,9.15220e-01
1.123142276e+00,5.94109e-04,9.99999e-01,7.64435e-04,9.58879e-01,8.10515e-01
1.128757988e+00,2.36540e-03,9.99999e-01,3.14288e-03,9.59674e-01,7.84244e-01
1.134401778e+00,2.07647e-03,9.99999e-01,2.65825e-03,9.60455e-01,8.13301e-01
1.140073787e+00,1.79234e-02,9.99999e-01,2.19940e-02,9.61221e-01,8.47797e-01
1.145774156e+00,1.68916e-03,9.99999e-01,2.04243e-03,9.61972e-01,8.59729e-01
1.151503026e+00,5.66665e-04,9.99999e-01,6.40320e-04,9.62709e-01,9.19251e-01
1.157260541e+00,6.25507e-04,9.99999e-01,6.65800e-04,9.63432e-01,9.75140e-01
1.163046844e+00,4.22494e-03,9.99999e-01,4.41345e-03,9.64141e-01,9.92890e-01
1.168862078e+00,1.81952e-02,9.99999e-01,1.89277e-02,9.64837e-01,9.96331e-01
1.174706389e+00,7.61468e-02,9.99999e-01,7.92513e-02,9.65519e-01,9.95139e-01
1.180579921e+00,1.96976e-01,9.99999e-01,2.05376e-01,9.66188e-01,9.92659e-01
1.186482820e+00,3.78557e-01,9.99999e-01,3.94510e-01,9.66845e-01,9.92466e-01
1.192415234e+00,5.54279e-01,9.99999e-01,5.76157e-01,9.67489e-01,9.94352e-01
1.198377311e+00,6.05386e-01,9.99999e-01,6.28674e-01,9.68121e-01,9.94664e-01
1.204369197e+00,6.25924e-01,9.99999e-01,6.49255e-01,9.68741e-01,9.95171e-01
1.210391043e+00,6.36844e-01,9.99999e-01,6.58918e-01,9.69349e-01,9.97060e-01
1.216442998e+00,6.79358e-01,9.99999e-01,7.01672e-01,9.69945e-01,9.98198e-01
1.222525213e+00,7.33668e-01,9.99999e-01,7.56792e-01,9.70530e-01,9.98880e-01
1.228637839e+00,7.99316e-01,9.99999e-01,8.23528e-01,9.71103e-01,9.99478e-01
1.234781029e+00,8.41267e-01,9.99999e-01,8.65926e-01,9.71666e-01,9.99850e-01
1.240954934e+00,8.87436e-01,9.99999e-01,9.12833e-01,9.72218e-01,9.99957e-01
1.247159708e+00,9.05982e-01,9.99999e-01,9.31377e-01,9.72759e-01,9.99972e-01
1.253395507e+00,9.13651e-01,9.99999e-01,9.38756e-01,9.73290e-01,9.99964e-01
1.259662485e+00,9.16910e-01,9.99999e-01,9.41621e-01,9.73810e-01,9.99944e-01
1.265960797e+00,8.85303e-01,9.99999e-01,9.08719e-01,9.74321e-01,9.99906e-01
1.272290601e+00,8.38687e-01,9.99999e-01,8.60490e-01,9.74822e-01,9.99835e-01
1.278652054e+00,7.26260e-01,9.99999e-01,7.44858e-01,9.75313e-01,9.99709e-01
1.285045314e+00,5.76857e-01,9.99999e-01,5.91487e-01,9.75794e-01,9.99457e-01
1.291470541e+00,3.93528e-01,9.99999e-01,4.03478e-01,9.76267e-01,9.99048e-01
1.297927893e+00,2.77413e-01,9.99999e-01,2.84528e-01,9.76730e-01,9.98223e-01
1.304417533e+00,2.26663e-01,9.99999e-01,2.32830e-01,9.77184e-01,9.96240e-01
1.310939621e+00,1.56553e-01,9.99999e-01,1.61378e-01,9.77630e-01,9.92297e-01
1.317494319e+00,1.63189e-01,9.99999e-01,1.69252e-01,9.78067e-01,9.85798e-01
1.324081790e+00,7.68630e-02,9.99999e-01,8.04083e-02,9.78495e-01,9.76916e-01
1.330702199e+00,6.66768e-03,9.99999e-01,7.09116e-03,9.78916e-01,9.60530e-01
1.337355710e+00,8.53209e-10,9.99999e-01,9.41472e-10,9.79328e-01,9.25378e-01
1.344042489e+00,2.57280e-14,9.99999e-01,3.31699e-14,9.79732e-01,7.91686e-01
1.350762701e+00,2.40488e-51,9.99999e-01,5.45932e-51,9.80128e-01,4.49440e-01
1.357516515e+00,4.94253e-79,9.99999e-01,5.27021e-78,9.80517e-01,9.56456e-02
1.364304097e+00,4.44630e-48,9.99999e-01,2.77228e-46,9.80898e-01,1.63507e-02
1.371125618e+00,2.22697e-28,9.99999e-01,1.09699e-26,9.81272e-01,2.06882e-02
1.377981246e+00,1.68047e-27,9.99999e-01,4.75586e-26,9.81638e-01,3.59955e-02
1.384871152e+00,4.03641e-39,9.99999e-01,9.10338e-38,9.81998e-01,4.51525e-02
1.391795508e+00,2.00533e-48,9.99999e-01,3.91109e-47,9.82350e-01,5.21939e-02
1.398754485e+00,2.20133e-36,9.99999e-01,2.56781e-35,9.82696e-01,8.72374e-02
1.405748258e+00,6.07117e-36,9.99999e-01,2.57017e-35,9.83035e-01,2.40293e-01
1.412776999e+00,1.43737e-34,9.99998e-01,2.80277e-34,9.83367e-01,5.21512e-01
1.419840884e+00,3.42263e-34,9.99997e-01,4.62883e-34,9.83693e-01,7.51672e-01
1.426940089e+00,8.08962e-22,9.99997e-01,1.02120e-21,9.84012e-01,8.05038e-01
1.434074789e+00,1.65540e-19,9.99997e-01,2.17222e-19,9.84325e-01,7.74213e-01
1.441245163e+00,5.92027e-16,9.99998e-01,7.93320e-16,9.84633e-01,7.57912e-01
1.448451389e+00,2.88911e-10,9.99996e-01,3.73905e-10,9.84934e-01,7.84504e-01
1.455693646e+00,3.35630e-07,9.99998e-01,4.11472e-07,9.85229e-01,8.27911e-01
1.462972114e+00,3.96594e-07,9.99998e-01,4.81838e-07,9.85519e-01,8.35178e-01
1.470286975e+00,9.59853e-08,9.99998e-01,1.16226e-07,9.85803e-01,8.37744e-01
