#,Wave/freq,Total,N2,H2O,Rayleigh,CIA
4.000000000e-01,8.94991e-01,9.99999e-01,9.99986e-01,8.95002e-01,9.99999e-01
4.020000000e-01,8.96960e-01,9.99999e-01,9.99991e-01,8.96967e-01,9.99999e-01
4.040100000e-01,8.98893e-01,9.99999e-01,9.99996e-01,8.98896e-01,9.99999e-01
4.060300500e-01,9.00790e-01,9.99999e-01,9.99998e-01,9.00790e-01,9.99999e-01
4.080602003e-01,9.02651e-01,9.99999e-01,9.99999e-01,9.02651e-01,9.99999e-01
4.101005013e-01,9.04479e-01,9.99999e-01,9.99999e-01,9.04479e-01,9.99999e-01
4.121510038e-01,9.06274e-01,9.99999e-01,9.99999e-01,9.06274e-01,9.99999e-01
4.142117588e-01,9.08035e-01,9.99999e-01,9.99996e-01,9.08038e-01,9.99999e-01
4.162828176e-01,9.09756e-01,9.99999e-01,9.99983e-01,9.09770e-01,9.99999e-01
4.183642317e-01,9.11462e-01,9.99999e-01,9.99990e-01,9.11471e-01,9.99999e-01
4.204560528e-01,9.13136e-01,9.99999e-01,9.99993e-01,9.13141e-01,9.99999e-01
4.225583331e-01,9.14780e-01,9.99999e-01,9.99997e-01,9.14781e-01,9.99999e-01
4.246711247e-01,9.16391e-01,9.99999e-01,9.99997e-01,9.16392e-01,9.99999e-01
4.267944804e-01,9.17972e-01,9.99999e-01,9.99997e-01,9.17974e-01,9.99999e-01
4.289284528e-01,9.19525e-01,9.99999e-01,9.99997e-01,9.19527e-01,9.99999e-01
4.310730950e-01,9.21051e-01,9.99999e-01,9.99998e-01,9.21052e-01,9.99999e-01
4.332284605e-01,9.22549e-01,9.99999e-01,9.99999e-01,9.22550e-01,9.99999e-01
4.353946028e-01,9.24020e-01,9.99999e-01,9.99999e-01,9.24020e-01,9.99999e-01
4.375715758e-01,9.25462e-01,9.99999e-01,9.99998e-01,9.25463e-01,9.99999e-01
4.397594337e-01,9.26868e-01,9.99999e-01,9.99986e-01,9.26880e-01,9.99999e-01
4.419582309e-01,9.28208e-01,9.99999e-01,9.99931e-01,9.28271e-01,9.99999e-01
4.441680220e-01,9.29587e-01,9.99999e-01,9.99945e-01,9.29637e-01,9.99999e-01
4.463888621e-01,9.30926e-01,9.99999e-01,9.99943e-01,9.30978e-01,9.99999e-01
4.486208064e-01,9.32261e-01,9.99999e-01,9.99964e-01,9.32294e-01,9.99999e-01
4.508639105e-01,9.33571e-01,9.99999e-01,9.99983e-01,9.33586e-01,9.99999e-01
4.531182300e-01,9.34848e-01,9.99999e-01,9.99993e-01,9.34854e-01,9.99999e-01
4.553838212e-01,9.36095e-01,9.99999e-01,9.99995e-01,9.36099e-01,9.99999e-01
4.576607403e-01,9.37319e-01,9.99999e-01,9.99997e-01,9.37320e-01,9.99999e-01
4.599490440e-01,9.38518e-01,9.99999e-01,9.99998e-01,9.38520e-01,9.99999e-01
4.622487892e-01,9.39696e-01,9.99999e-01,9.99999e-01,9.39697e-01,9.99999e-01
4.645600332e-01,9.40851e-01,9.99999e-01,9.99998e-01,9.40852e-01,9.99999e-01
4.668828333e-01,9.41970e-01,9.99999e-01,9.99983e-01,9.41986e-01,9.99999e-01
4.692172475e-01,9.43065e-01,9.99999e-01,9.99964e-01,9.43098e-01,9.99999e-01
4.715633337e-01,9.44168e-01,9.99999e-01,9.99976e-01,9.44190e-01,9.99999e-01
4.739211504e-01,9.45241e-01,9.99999e-01,9.99977e-01,9.45262e-01,9.99999e-01
4.762907561e-01,9.46303e-01,9.99999e-01,9.99988e-01,9.46313e-01,9.99999e-01
4.786722099e-01,9.47341e-01,9.99999e-01,9.99994e-01,9.47345e-01,9.99999e-01
4.810655710e-01,9.48357e-01,9.99999e-01,9.99998e-01,9.48358e-01,9.99999e-01
4.834708988e-01,9.49339e-01,9.99999e-01,9.99986e-01,9.49352e-01,9.99999e-01
4.858882533e-01,9.50303e-01,9.99999e-01,9.99974e-01,9.50327e-01,9.99999e-01
4.883176946e-01,9.51264e-01,9.99999e-01,9.99978e-01,9.51284e-01,9.99999e-01
4.907592831e-01,9.52205e-01,9.99999e-01,9.99980e-01,9.52223e-01,9.99999e-01
4.932130795e-01,9.53131e-01,9.99999e-01,9.99986e-01,9.53144e-01,9.99999e-01
4.956791449e-01,9.54041e-01,9.99999e-01,9.99992e-01,9.54048e-01,9.99999e-01
4.981575406e-01,9.54901e-01,9.99999e-01,9.99964e-01,9.54935e-01,9.99999e-01
5.006483283e-01,9.55717e-01,9.99999e-01,9.99908e-01,9.55805e-01,9.99998e-01
5.031515699e-01,9.56210e-01,9.99999e-01,9.99534e-01,9.56659e-01,9.99994e-01
5.056673278e-01,9.57256e-01,9.99999e-01,9.99753e-01,9.57496e-01,9.99993e-01
5.081956644e-01,9.58017e-01,9.99999e-01,9.99689e-01,9.58318e-01,9.99995e-01
5.107366428e-01,9.58923e-01,9.99999e-01,9.99789e-01,9.59124e-01,9.99998e-01
5.132903260e-01,9.59800e-01,9.99999e-01,9.99879e-01,9.59915e-01,9.99999e-01
5.158567776e-01,9.60643e-01,9.99999e-01,9.99948e-01,9.60691e-01,9.99999e-01
5.184360615e-01,9.61433e-01,9.99999e-01,9.99979e-01,9.61453e-01,9.99999e-01
5.210282418e-01,9.62192e-01,9.99999e-01,9.99991e-01,9.62199e-01,9.99999e-01
5.236333830e-01,9.62903e-01,9.99999e-01,9.99969e-01,9.62932e-01,9.99999e-01
5.262515499e-01,9.63632e-01,9.99999e-01,9.99980e-01,9.63651e-01,9.99999e-01
5.288828077e-01,9.64339e-01,9.99999e-01,9.99982e-01,9.64356e-01,9.99999e-01
5.315272217e-01,9.65032e-01,9.99999e-01,9.99984e-01,9.65047e-01,9.99999e-01
5.341848578e-01,9.65716e-01,9.99999e-01,9.99989e-01,9.65726e-01,9.99999e-01
5.368557821e-01,9.66357e-01,9.99999e-01,9.99964e-01,9.66391e-01,9.99999e-01
5.395400610e-01,9.66921e-01,9.99999e-01,9.99873e-01,9.67044e-01,9.99998e-01
5.422377613e-01,9.67522e-01,9.99999e-01,9.99834e-01,9.67684e-01,9.99996e-01
5.449489501e-01,9.68162e-01,9.99999e-01,9.99846e-01,9.68312e-01,9.99996e-01
5.476736949e-01,9.68795e-01,9.99999e-01,9.99863e-01,9.68928e-01,9.99997e-01
5.504120634e-01,9.69437e-01,9.99999e-01,9.99900e-01,9.69533e-01,9.99999e-01
5.531641237e-01,9.70077e-01,9.99999e-01,9.99949e-01,9.70125e-01,9.99999e-01
5.559299443e-01,9.70683e-01,9.99999e-01,9.99975e-01,9.70707e-01,9.99999e-01
5.587095940e-01,9.71262e-01,9.99999e-01,9.99984e-01,9.71277e-01,9.99999e-01
5.615031420e-01,9.71820e-01,9.99999e-01,9.99982e-01,9.71836e-01,9.99999e-01
5.643106577e-01,9.72366e-01,9.99999e-01,9.99980e-01,9.72385e-01,9.99999e-01
5.671322110e-01,9.72700e-01,9.99999e-01,9.99772e-01,9.72923e-01,9.99997e-01
5.699678720e-01,9.73205e-01,9.99999e-01,9.99753e-01,9.73450e-01,9.99993e-01
5.728177114e-01,9.73715e-01,9.99999e-01,9.99745e-01,9.73968e-01,9.99994e-01
5.756818000e-01,9.74245e-01,9.99999e-01,9.99765e-01,9.74475e-01,9.99996e-01
5.785602090e-01,9.74773e-01,9.99999e-01,9.99795e-01,9.74973e-01,9.99998e-01
5.814530100e-01,9.75261e-01,9.99999e-01,9.99794e-01,9.75461e-01,9.99999e-01
5.843602750e-01,9.75702e-01,9.99999e-01,9.99757e-01,9.75940e-01,9.99998e-01
5.872820764e-01,9.74351e-01,9.99999e-01,9.97905e-01,9.76410e-01,9.99984e-01
5.902184868e-01,9.74337e-01,9.99999e-01,9.97446e-01,9.76870e-01,9.99959e-01
5.931695792e-01,9.75524e-01,9.99999e-01,9.98199e-01,9.77322e-01,9.99960e-01
5.961354271e-01,9.75809e-01,9.99999e-01,9.98023e-01,9.77765e-01,9.99975e-01
5.991161043e-01,9.76782e-01,9.99999e-01,9.98557e-01,9.78199e-01,9.99992e-01
6.021116848e-01,9.77823e-01,9.99999e-01,9.99180e-01,9.78625e-01,9.99998e-01
6.051222432e-01,9.78637e-01,9.99999e-01,9.99584e-01,9.79043e-01,9.99999e-01
6.081478544e-01,9.79278e-01,9.99999e-01,9.99820e-01,9.79453e-01,9.99999e-01
6.111885937e-01,9.79780e-01,9.99999e-01,9.99923e-01,9.79854e-01,9.99999e-01
6.142445367e-01,9.80215e-01,9.99999e-01,9.99965e-01,9.80248e-01,9.99999e-01
6.173157594e-01,9.80616e-01,9.99999e-01,9.99980e-01,9.80635e-01,9.99999e-01
6.204023382e-01,9.80998e-01,9.99999e-01,9.99983e-01,9.81013e-01,9.99999e-01
6.235043498e-01,9.81318e-01,9.99999e-01,9.99931e-01,9.81385e-01,9.99999e-01
6.266218716e-01,9.81387e-01,9.99999e-01,9.99633e-01,9.81749e-01,9.99996e-01
6.297549810e-01,9.81969e-01,9.99999e-01,9.99865e-01,9.82106e-01,9.99994e-01
6.329037559e-01,9.82191e-01,9.99999e-01,9.99733e-01,9.82457e-01,9.99995e-01
6.360682746e-01,9.82576e-01,9.99999e-01,9.99773e-01,9.82800e-01,9.99997e-01
6.392486160e-01,9.82848e-01,9.99999e-01,9.99706e-01,9.83137e-01,9.99998e-01
6.424448591e-01,9.83082e-01,9.99999e-01,9.99609e-01,9.83467e-01,9.99997e-01
6.456570834e-01,9.81999e-01,9.99999e-01,9.98187e-01,9.83791e-01,9.99989e-01
6.488853688e-01,9.82539e-01,9.99999e-01,9.98432e-01,9.84109e-01,9.99971e-01
6.521297956e-01,9.83055e-01,9.99999e-01,9.98635e-01,9.84420e-01,9.99975e-01
6.553904446e-01,9.83382e-01,9.99999e-01,9.98653e-01,9.84726e-01,9.99981e-01
6.586673968e-01,9.83874e-01,9.99999e-01,9.98836e-01,9.85025e-01,9.99993e-01
6.619607338e-01,9.84655e-01,9.99999e-01,9.99327e-01,9.85319e-01,9.99998e-01
6.652705375e-01,9.85222e-01,9.99999e-01,9.99609e-01,9.85607e-01,9.99998e-01
6.685968902e-01,9.85710e-01,9.99999e-01,9.99818e-01,9.85889e-01,9.99999e-01
6.719398746e-01,9.86083e-01,9.99999e-01,9.99915e-01,9.86166e-01,9.99999e-01
6.752995740e-01,9.86392e-01,9.99999e-01,9.99954e-01,9.86437e-01,9.99999e-01
6.786760719e-01,9.86639e-01,9.99999e-01,9.99934e-01,9.86703e-01,9.99999e-01
6.820694522e-01,9.86853e-01,9.99999e-01,9.99887e-01,9.86964e-01,9.99998e-01
6.854797995e-01,9.87076e-01,9.99999e-01,9.99855e-01,9.87220e-01,9.99998e-01
6.889071985e-01,9.87127e-01,9.99999e-01,9.99654e-01,9.87471e-01,9.99996e-01
6.923517345e-01,9.82086e-01,9.99999e-01,9.94325e-01,9.87717e-01,9.99972e-01
6.958134932e-01,9.84935e-01,9.99999e-01,9.97001e-01,9.87958e-01,9.99937e-01
6.992925606e-01,9.85368e-01,9.99999e-01,9.97194e-01,9.88194e-01,9.99945e-01
7.027890234e-01,9.84942e-01,9.99999e-01,9.96515e-01,9.88426e-01,9.99957e-01
7.063029686e-01,9.85740e-01,9.99999e-01,9.97073e-01,9.88653e-01,9.99978e-01
7.098344834e-01,9.86088e-01,9.99999e-01,9.97191e-01,9.88876e-01,9.99987e-01
7.133836558e-01,9.85403e-01,9.99999e-01,9.96291e-01,9.89095e-01,9.99975e-01
7.169505741e-01,9.59728e-01,9.99999e-01,9.70284e-01,9.89309e-01,9.99807e-01
7.205353270e-01,9.74517e-01,9.99999e-01,9.85171e-01,9.89519e-01,9.99661e-01
7.241380036e-01,9.71053e-01,9.99999e-01,9.81420e-01,9.89725e-01,9.99707e-01
7.277586936e-01,9.73071e-01,9.99999e-01,9.83207e-01,9.89927e-01,9.99760e-01
7.313974871e-01,9.72279e-01,9.99999e-01,9.82085e-01,9.90125e-01,9.99887e-01
7.350544745e-01,9.80573e-01,9.99999e-01,9.90197e-01,9.90319e-01,9.99960e-01
7.387297469e-01,9.83339e-01,9.99999e-01,9.92778e-01,9.90509e-01,9.99981e-01
7.424233956e-01,9.87182e-01,9.99999e-01,9.96456e-01,9.90696e-01,9.99996e-01
7.461355126e-01,9.88752e-01,9.99999e-01,9.97854e-01,9.90879e-01,9.99998e-01
7.498661902e-01,9.90066e-01,9.99999e-01,9.98998e-01,9.91058e-01,9.99999e-01
7.536155211e-01,9.90748e-01,9.99999e-01,9.99509e-01,9.91234e-01,9.99999e-01
7.573835987e-01,9.91156e-01,9.99999e-01,9.99747e-01,9.91406e-01,9.99999e-01
7.611705167e-01,9.91420e-01,9.99999e-01,9.99842e-01,9.91575e-01,9.99999e-01
7.649763693e-01,9.91644e-01,9.99999e-01,9.99901e-01,9.91741e-01,9.99999e-01
7.688012511e-01,9.91836e-01,9.99999e-01,9.99931e-01,9.91903e-01,9.99999e-01
7.726452574e-01,9.92007e-01,9.99999e-01,9.99943e-01,9.92063e-01,9.99999e-01
7.765084837e-01,9.92140e-01,9.99999e-01,9.99920e-01,9.92219e-01,9.99999e-01
7.803910261e-01,9.92032e-01,9.99999e-01,9.99657e-01,9.92372e-01,9.99999e-01
7.842929812e-01,9.91333e-01,9.99999e-01,9.98804e-01,9.92522e-01,9.99997e-01
7.882144461e-01,9.90195e-01,9.99999e-01,9.97521e-01,9.92669e-01,9.99984e-01
7.921555184e-01,9.91430e-01,9.99999e-01,9.98635e-01,9.92813e-01,9.99970e-01
7.961162960e-01,9.90553e-01,9.99999e-01,9.97608e-01,9.92955e-01,9.99971e-01
8.000968774e-01,9.90310e-01,9.99999e-01,9.97226e-01,9.93093e-01,9.99969e-01
8.040973618e-01,9.90454e-01,9.99999e-01,9.97228e-01,9.93229e-01,9.99975e-01
8.081178486e-01,9.87170e-01,9.99999e-01,9.93787e-01,9.93363e-01,9.99977e-01
8.121584379e-01,9.67825e-01,9.99999e-01,9.74248e-01,9.93493e-01,9.99912e-01
8.162192301e-01,9.62758e-01,9.99999e-01,9.69256e-01,9.93621e-01,9.99670e-01
8.203003262e-01,9.78165e-01,9.99999e-01,9.84698e-01,9.93747e-01,9.99614e-01
8.244018279e-01,9.71940e-01,9.99999e-01,9.78234e-01,9.93870e-01,9.99693e-01
8.285238370e-01,9.75521e-01,9.99999e-01,9.81654e-01,9.93991e-01,9.99758e-01
8.326664562e-01,9.75515e-01,9.99999e-01,9.81392e-01,9.94109e-01,9.99900e-01
8.368297885e-01,9.80959e-01,9.99999e-01,9.86678e-01,9.94225e-01,9.99976e-01
8.410139374e-01,9.86438e-01,9.99999e-01,9.92067e-01,9.94339e-01,9.99986e-01
8.452190071e-01,9.90566e-01,9.99999e-01,9.96101e-01,9.94450e-01,9.99991e-01
8.494451021e-01,9.92310e-01,9.99999e-01,9.97743e-01,9.94560e-01,9.99993e-01
8.536923276e-01,9.93332e-01,9.99999e-01,9.98661e-01,9.94667e-01,9.99995e-01
8.579607893e-01,9.93953e-01,9.99999e-01,9.99177e-01,9.94772e-01,9.99998e-01
8.622505932e-01,9.94354e-01,9.99999e-01,9.99476e-01,9.94875e-01,9.99999e-01
8.665618462e-01,9.94655e-01,9.99999e-01,9.99676e-01,9.94976e-01,9.99999e-01
8.708946554e-01,9.94708e-01,9.99999e-01,9.99630e-01,9.95075e-01,9.99999e-01
8.752491287e-01,9.94680e-01,9.99999e-01,9.99505e-01,9.95172e-01,9.99998e-01
8.796253743e-01,9.94587e-01,9.99999e-01,9.99317e-01,9.95267e-01,9.99997e-01
8.840235012e-01,9.94579e-01,9.99999e-01,9.99219e-01,9.95360e-01,9.99994e-01
8.884436187e-01,9.92639e-01,9.99999e-01,9.97188e-01,9.95452e-01,9.99985e-01
8.928858368e-01,9.66003e-01,9.99999e-01,9.70404e-01,9.95541e-01,9.99921e-01
8.973502660e-01,9.43290e-01,9.99999e-01,9.47810e-01,9.95629e-01,9.99599e-01
9.018370173e-01,9.68087e-01,9.99999e-01,9.72864e-01,9.95715e-01,9.99370e-01
9.063462024e-01,9.71740e-01,9.99999e-01,9.76377e-01,9.95800e-01,9.99447e-01
9.108779334e-01,9.58738e-01,9.99999e-01,9.63254e-01,9.95882e-01,9.99425e-01
9.154323231e-01,9.54013e-01,9.99999e-01,9.58333e-01,9.95964e-01,9.99525e-01
9.200094847e-01,9.63053e-01,9.99999e-01,9.67135e-01,9.96043e-01,9.99733e-01
9.246095321e-01,9.45449e-01,9.99999e-01,9.49420e-01,9.96121e-01,9.99693e-01
9.292325798e-01,6.99187e-01,9.99999e-01,7.02693e-01,9.96198e-01,9.98806e-01
9.338787427e-01,6.26180e-01,9.99999e-01,6.31630e-01,9.96273e-01,9.95078e-01
9.385481364e-01,8.23205e-01,9.99999e-01,8.31085e-01,9.96346e-01,9.94149e-01
9.432408771e-01,7.66012e-01,9.99999e-01,7.72667e-01,9.96418e-01,9.94950e-01
9.479570815e-01,6.93753e-01,9.99999e-01,6.99071e-01,9.96489e-01,9.95888e-01
9.526968669e-01,7.60526e-01,9.99999e-01,7.65072e-01,9.96558e-01,9.97489e-01
9.574603512e-01,7.80856e-01,9.99999e-01,7.84500e-01,9.96626e-01,9.98723e-01
9.622476530e-01,8.17523e-01,9.99999e-01,8.20959e-01,9.96692e-01,9.99117e-01
9.670588912e-01,8.89377e-01,9.99999e-01,8.92808e-01,9.96757e-01,9.99396e-01
9.718941857e-01,9.28536e-01,9.99999e-01,9.31910e-01,9.96821e-01,9.99555e-01
9.767536566e-01,9.39920e-01,9.99999e-01,9.43177e-01,9.96884e-01,9.99660e-01
9.816374249e-01,9.54502e-01,9.99999e-01,9.57538e-01,9.96945e-01,9.99882e-01
9.865456120e-01,9.70331e-01,9.99999e-01,9.73268e-01,9.97006e-01,9.99975e-01
9.914783401e-01,9.80517e-01,9.99999e-01,9.83409e-01,9.97065e-01,9.99992e-01
9.964357318e-01,9.88077e-01,9.99999e-01,9.90931e-01,9.97123e-01,9.99995e-01
1.001417910e+00,9.91745e-01,9.99999e-01,9.94555e-01,9.97179e-01,9.99993e-01
1.006425000e+00,9.94134e-01,9.99999e-01,9.96898e-01,9.97235e-01,9.99990e-01
1.011457125e+00,9.95357e-01,9.99999e-01,9.98070e-01,9.97289e-01,9.99991e-01
1.016514411e+00,9.96032e-01,9.99999e-01,9.98691e-01,9.97343e-01,9.99993e-01
1.021596983e+00,9.96350e-01,9.99999e-01,9.98957e-01,9.97395e-01,9.99993e-01
1.026704968e+00,9.96633e-01,9.99999e-01,9.99187e-01,9.97447e-01,9.99995e-01
1.031838492e+00,9.96906e-01,9.99999e-01,9.99408e-01,9.97497e-01,9.99998e-01
1.036997685e+00,9.97196e-01,9.99999e-01,9.99648e-01,9.97546e-01,9.99999e-01
1.042182673e+00,9.97179e-01,9.99999e-01,9.99582e-01,9.97595e-01,9.99999e-01
1.047393587e+00,9.97090e-01,9.99999e-01,9.99445e-01,9.97642e-01,9.99999e-01
1.052630555e+00,9.96931e-01,9.99999e-01,9.99240e-01,9.97689e-01,9.99999e-01
1.057893707e+00,9.96471e-01,9.99999e-01,9.98733e-01,9.97734e-01,9.99999e-01
1.063183176e+00,9.95697e-01,9.99999e-01,9.97914e-01,9.97779e-01,9.99998e-01
1.068499092e+00,9.94334e-01,9.99999e-01,9.96505e-01,9.97823e-01,9.99997e-01
1.073841587e+00,9.93785e-01,9.99999e-01,9.95915e-01,9.97866e-01,9.99994e-01
1.079210795e+00,9.92662e-01,9.99999e-01,9.94756e-01,9.97908e-01,9.99985e-01
1.084606849e+00,9.90012e-01,9.99999e-01,9.92079e-01,9.97949e-01,9.99965e-01
1.090029883e+00,9.86624e-01,9.99999e-01,9.88680e-01,9.97990e-01,9.99929e-01
1.095480033e+00,9.67372e-01,9.99999e-01,9.69403e-01,9.98029e-01,9.99873e-01
1.100957433e+00,9.21960e-01,9.99999e-01,9.23958e-01,9.98068e-01,9.99767e-01
1.106462220e+00,8.15522e-01,9.99999e-01,8.17390e-01,9.98106e-01,9.99606e-01
1.111994531e+00,6.50481e-01,9.99999e-01,6.52371e-01,9.98144e-01,9.98955e-01
1.117554504e+00,4.96746e-01,9.99999e-01,4.99532e-01,9.98180e-01,9.96234e-01
1.123142276e+00,5.89817e-01,9.99999e-01,5.96180e-01,9.98216e-01,9.91094e-01
1.128757988e+00,7.12209e-01,9.99999e-01,7.20876e-01,9.98251e-01,9.89705e-01
1.134401778e+00,4.63124e-01,9.99999e-01,4.68019e-01,9.98286e-01,9.91239e-01
1.140073787e+00,8.16831e-01,9.99999e-01,8.23978e-01,9.98320e-01,9.92994e-01
1.145774156e+00,6.59880e-01,9.99999e-01,6.65235e-01,9.98353e-01,9.93585e-01
1.151503026e+00,6.30886e-01,9.99999e-01,6.34175e-01,9.98385e-01,9.96421e-01
1.157260541e+00,6.84693e-01,9.99999e-01,6.86513e-01,9.98417e-01,9.98928e-01
1.163046844e+00,7.55931e-01,9.99999e-01,7.57335e-01,9.98448e-01,9.99695e-01
1.168862078e+00,8.23623e-01,9.99999e-01,8.25006e-01,9.98479e-01,9.99843e-01
1.174706389e+00,8.86606e-01,9.99999e-01,8.88113e-01,9.98509e-01,9.99792e-01
1.180579921e+00,9.28667e-01,9.99999e-01,9.30317e-01,9.98538e-01,9.99685e-01
1.186482820e+00,9.58394e-01,9.99999e-01,9.60077e-01,9.98567e-01,9.99677e-01
1.192415234e+00,9.74929e-01,9.99999e-01,9.76535e-01,9.98595e-01,9.99758e-01
1.198377311e+00,9.78639e-01,9.99999e-01,9.80211e-01,9.98623e-01,9.99771e-01
1.204369197e+00,9.79717e-01,9.99999e-01,9.81242e-01,9.98650e-01,9.99793e-01
1.210391043e+00,9.80637e-01,9.99999e-01,9.82058e-01,9.98677e-01,9.99874e-01
1.216442998e+00,9.83342e-01,9.99999e-01,9.84694e-01,9.98703e-01,9.99922e-01
1.222525213e+00,9.86774e-01,9.99999e-01,9.88076e-01,9.98729e-01,9.99951e-01
1.228637839e+00,9.90454e-01,9.99999e-01,9.91711e-01,9.98754e-01,9.99977e-01
1.234781029e+00,9.92614e-01,9.99999e-01,9.93834e-01,9.98778e-01,9.99993e-01
1.240954934e+00,9.94906e-01,9.99999e-01,9.96100e-01,9.98802e-01,9.99997e-01
1.247159708e+00,9.95790e-01,9.99999e-01,9.96960e-01,9.98826e-01,9.99998e-01
1.253395507e+00,9.96156e-01,9.99999e-01,9.97304e-01,9.98849e-01,9.99998e-01
1.259662485e+00,9.96317e-01,9.99999e-01,9.97443e-01,9.98872e-01,9.99997e-01
1.265960797e+00,9.94805e-01,9.99999e-01,9.95910e-01,9.98894e-01,9.99995e-01
1.272290601e+00,9.92916e-01,9.99999e-01,9.93999e-01,9.98916e-01,9.99992e-01
1.278652054e+00,9.86281e-01,9.99999e-01,9.87342e-01,9.98937e-01,9.99987e-01
1.285045314e+00,9.79108e-01,9.99999e-01,9.80151e-01,9.98958e-01,9.99976e-01
1.291470541e+00,9.59411e-01,9.99999e-01,9.60430e-01,9.98979e-01,9.99958e-01
1.297927893e+00,9.47565e-01,9.99999e-01,9.48585e-01,9.98999e-01,9.99923e-01
1.304417533e+00,9.33079e-01,9.99999e-01,9.34144e-01,9.99019e-01,9.99839e-01
1.310939621e+00,9.23992e-01,9.99999e-01,9.25185e-01,9.99038e-01,9.99670e-01
1.317494319e+00,9.17293e-01,9.99999e-01,9.18717e-01,9.99057e-01,9.99390e-01
1.324081790e+00,8.79139e-01,9.99999e-01,8.80827e-01,9.99076e-01,9.99005e-01
1.330702199e+00,5.89703e-01,9.99999e-01,5.91250e-01,9.99094e-01,9.98286e-01
1.337355710e+00,2.65011e-01,9.99999e-01,2.66124e-01,9.99112e-01,9.96703e-01
1.344042489e+00,3.11500e-02,9.99999e-01,3.14887e-02,9.99129e-01,9.90103e-01
1.350762701e+00,9.74928e-04,9.99999e-01,1.00956e-03,9.99146e-01,9.66521e-01
1.357516515e+00,8.04741e-05,9.99999e-01,8.90059e-05,9.99163e-01,9.04898e-01
1.364304097e+00,1.65718e-03,9.99999e-01,1.97600e-03,9.99180e-01,8.39340e-01
1.371125618e+00,1.27618e-02,9.99999e-01,1.50651e-02,9.99196e-01,8.47791e-01
1.377981246e+00,2.50835e-02,9.99999e-01,2.89201e-02,9.99212e-01,8.68020e-01
1.384871152e+00,1.56972e-03,9.99999e-01,1.79496e-03,9.99227e-01,8.75190e-01
1.391795508e+00,2.42674e-03,9.99999e-01,2.75523e-03,9.99243e-01,8.81442e-01
1.398754485e+00,5.79579e-03,9.99999e-01,6.43482e-03,9.99257e-01,9.01360e-01
1.405748258e+00,5.72932e-03,9.99999e-01,6.09235e-03,9.99272e-01,9.41095e-01
1.412776999e+00,6.42136e-03,9.99999e-01,6.60655e-03,9.99286e-01,9.72661e-01
1.419840884e+00,9.06613e-03,9.99999e-01,9.18341e-03,9.99301e-01,9.87919e-01
1.426940089e+00,2.49084e-02,9.99999e-01,2.51567e-02,9.99314e-01,9.90808e-01
1.434074789e+00,5.91714e-02,9.99999e-01,5.98598e-02,9.99328e-01,9.89162e-01
1.441245163e+00,1.19781e-01,9.99999e-01,1.21283e-01,9.99341e-01,9.88267e-01
1.448451389e+00,2.18219e-01,9.99999e-01,2.20627e-01,9.99354e-01,9.89719e-01
1.455693646e+00,3.69847e-01,9.99999e-01,3.73068e-01,9.99367e-01,9.91991e-01
1.462972114e+00,4.27814e-01,9.99999e-01,4.31374e-01,9.99379e-01,9.92360e-01
1.470286975e+00,3.70838e-01,9.99999e-01,3.73871e-01,9.99392e-01,9.92489e-01
