#,Wave/freq,Total,N2,H2O,Rayleigh,CIA
4.000000000e-01,4.92919e-01,9.99999e-01,9.99919e-01,4.92959e-01,9.99999e-01
4.020000000e-01,4.99877e-01,9.99999e-01,9.99949e-01,4.99902e-01,9.99999e-01
4.040100000e-01,5.06785e-01,9.99999e-01,9.99978e-01,5.06795e-01,9.99999e-01
4.060300500e-01,5.13642e-01,9.99999e-01,9.99994e-01,5.13645e-01,9.99999e-01
4.080602003e-01,5.20448e-01,9.99999e-01,9.99997e-01,5.20449e-01,9.99999e-01
4.101005013e-01,5.27206e-01,9.99999e-01,9.99999e-01,5.27206e-01,9.99999e-01
4.121510038e-01,5.33913e-01,9.99999e-01,9.99996e-01,5.33914e-01,9.99999e-01
4.142117588e-01,5.40562e-01,9.99999e-01,9.99977e-01,5.40574e-01,9.99999e-01
4.162828176e-01,5.47128e-01,9.99999e-01,9.99900e-01,5.47182e-01,9.99999e-01
4.183642317e-01,5.53705e-01,9.99999e-01,9.99940e-01,5.53738e-01,9.99999e-01
4.204560528e-01,5.60220e-01,9.99999e-01,9.99963e-01,5.60240e-01,9.99999e-01
4.225583331e-01,5.66681e-01,9.99999e-01,9.99985e-01,5.66689e-01,9.99999e-01
4.246711247e-01,5.73076e-01,9.99999e-01,9.99988e-01,5.73082e-01,9.99999e-01
4.267944804e-01,5.79410e-01,9.99999e-01,9.99983e-01,5.79419e-01,9.99999e-01
4.289284528e-01,5.85691e-01,9.99999e-01,9.99987e-01,5.85698e-01,9.99999e-01
4.310730950e-01,5.91917e-01,9.99999e-01,9.99994e-01,5.91920e-01,9.99999e-01
4.332284605e-01,5.98082e-01,9.99999e-01,9.99998e-01,5.98083e-01,9.99999e-01
4.353946028e-01,6.04186e-01,9.99999e-01,9.99998e-01,6.04186e-01,9.99999e-01
4.375715758e-01,6.10224e-01,9.99999e-01,9.99989e-01,6.10230e-01,9.99999e-01
4.397594337e-01,6.16159e-01,9.99999e-01,9.99913e-01,6.16212e-01,9.99999e-01
4.419582309e-01,6.21862e-01,9.99999e-01,9.99562e-01,6.22134e-01,9.99999e-01
4.441680220e-01,6.27776e-01,9.99999e-01,9.99654e-01,6.27993e-01,9.99999e-01
4.463888621e-01,6.33564e-01,9.99999e-01,9.99641e-01,6.33791e-01,9.99999e-01
4.486208064e-01,6.39383e-01,9.99999e-01,9.99776e-01,6.39526e-01,9.99999e-01
4.508639105e-01,6.45130e-01,9.99999e-01,9.99895e-01,6.45197e-01,9.99999e-01
4.531182300e-01,6.50779e-01,9.99999e-01,9.99958e-01,6.50806e-01,9.99999e-01
4.553838212e-01,6.56333e-01,9.99999e-01,9.99971e-01,6.56351e-01,9.99999e-01
4.576607403e-01,6.61825e-01,9.99999e-01,9.99986e-01,6.61833e-01,9.99999e-01
4.599490440e-01,6.67245e-01,9.99999e-01,9.99990e-01,6.67251e-01,9.99999e-01
4.622487892e-01,6.72604e-01,9.99999e-01,9.99997e-01,6.72605e-01,9.99999e-01
4.645600332e-01,6.77890e-01,9.99999e-01,9.99993e-01,6.77894e-01,9.99999e-01
4.668828333e-01,6.83048e-01,9.99999e-01,9.99894e-01,6.83120e-01,9.99999e-01
4.692172475e-01,6.88127e-01,9.99999e-01,9.99774e-01,6.88281e-01,9.99999e-01
4.715633337e-01,6.93277e-01,9.99999e-01,9.99852e-01,6.93379e-01,9.99999e-01
4.739211504e-01,6.98314e-01,9.99999e-01,9.99858e-01,6.98412e-01,9.99999e-01
4.762907561e-01,7.03330e-01,9.99999e-01,9.99926e-01,7.03382e-01,9.99999e-01
4.786722099e-01,7.08266e-01,9.99999e-01,9.99969e-01,7.08287e-01,9.99999e-01
4.810655710e-01,7.13123e-01,9.99999e-01,9.99990e-01,7.13129e-01,9.99999e-01
4.834708988e-01,7.17846e-01,9.99999e-01,9.99914e-01,7.17907e-01,9.99999e-01
4.858882533e-01,7.22507e-01,9.99999e-01,9.99840e-01,7.22622e-01,9.99999e-01
4.883176946e-01,7.27178e-01,9.99999e-01,9.99866e-01,7.27274e-01,9.99999e-01
4.907592831e-01,7.31775e-01,9.99999e-01,9.99879e-01,7.31863e-01,9.99999e-01
4.932130795e-01,7.36327e-01,9.99999e-01,9.99914e-01,7.36390e-01,9.99999e-01
4.956791449e-01,7.40821e-01,9.99999e-01,9.99954e-01,7.40854e-01,9.99999e-01
4.981575406e-01,7.45089e-01,9.99999e-01,9.99774e-01,7.45257e-01,9.99999e-01
5.006483283e-01,7.49159e-01,9.99999e-01,9.99418e-01,7.49597e-01,9.99995e-01
5.031515699e-01,7.51623e-01,9.99999e-01,9.97041e-01,7.53877e-01,9.99968e-01
5.056673278e-01,7.56882e-01,9.99999e-01,9.98434e-01,7.58096e-01,9.99963e-01
5.081956644e-01,7.60731e-01,9.99999e-01,9.98024e-01,7.62254e-01,9.99976e-01
5.107366428e-01,7.65327e-01,9.99999e-01,9.98664e-01,7.66353e-01,9.99995e-01
5.132903260e-01,7.69803e-01,9.99999e-01,9.99235e-01,7.70392e-01,9.99999e-01
5.158567776e-01,7.74121e-01,9.99999e-01,9.99676e-01,7.74371e-01,9.99999e-01
5.184360615e-01,7.78192e-01,9.99999e-01,9.99870e-01,7.78292e-01,9.99999e-01
5.210282418e-01,7.82118e-01,9.99999e-01,9.99951e-01,7.82155e-01,9.99999e-01
5.236333830e-01,7.85808e-01,9.99999e-01,9.99806e-01,7.85960e-01,9.99998e-01
5.262515499e-01,7.89611e-01,9.99999e-01,9.99878e-01,7.89708e-01,9.99997e-01
5.288828077e-01,7.93311e-01,9.99999e-01,9.99888e-01,7.93400e-01,9.99998e-01
5.315272217e-01,7.96957e-01,9.99999e-01,9.99901e-01,7.97035e-01,9.99999e-01
5.341848578e-01,8.00563e-01,9.99999e-01,9.99935e-01,8.00614e-01,9.99999e-01
5.368557821e-01,8.03958e-01,9.99999e-01,9.99775e-01,8.04139e-01,9.99998e-01
5.395400610e-01,8.06952e-01,9.99999e-01,9.99192e-01,8.07609e-01,9.99992e-01
5.422377613e-01,8.10157e-01,9.99999e-01,9.98948e-01,8.11024e-01,9.99980e-01
5.449489501e-01,8.13578e-01,9.99999e-01,9.99025e-01,8.14387e-01,9.99979e-01
5.476736949e-01,8.16980e-01,9.99999e-01,9.99133e-01,8.17696e-01,9.99989e-01
5.504120634e-01,8.20435e-01,9.99999e-01,9.99370e-01,8.20953e-01,9.99996e-01
5.531641237e-01,8.23898e-01,9.99999e-01,9.99683e-01,8.24159e-01,9.99999e-01
5.559299443e-01,8.27187e-01,9.99999e-01,9.99846e-01,8.27313e-01,9.99999e-01
5.587095940e-01,8.30338e-01,9.99999e-01,9.99904e-01,8.30417e-01,9.99999e-01
5.615031420e-01,8.33382e-01,9.99999e-01,9.99893e-01,8.33471e-01,9.99999e-01
5.643106577e-01,8.36374e-01,9.99999e-01,9.99879e-01,8.36475e-01,9.99998e-01
5.671322110e-01,8.38202e-01,9.99999e-01,9.98549e-01,8.39430e-01,9.99986e-01
5.699678720e-01,8.40985e-01,9.99999e-01,9.98433e-01,8.42337e-01,9.99959e-01
5.728177114e-01,8.43799e-01,9.99999e-01,9.98378e-01,8.45197e-01,9.99966e-01
5.756818000e-01,8.46729e-01,9.99999e-01,9.98509e-01,8.48009e-01,9.99979e-01
5.785602090e-01,8.49664e-01,9.99999e-01,9.98699e-01,8.50775e-01,9.99993e-01
5.814530100e-01,8.52380e-01,9.99999e-01,9.98695e-01,8.53495e-01,9.99996e-01
5.843602750e-01,8.54838e-01,9.99999e-01,9.98452e-01,8.56170e-01,9.99990e-01
5.872820764e-01,8.47335e-01,9.99999e-01,9.86741e-01,8.58800e-01,9.99905e-01
5.902184868e-01,8.47258e-01,9.99999e-01,9.83850e-01,8.61386e-01,9.99743e-01
5.931695792e-01,8.53865e-01,9.99999e-01,9.88597e-01,8.63929e-01,9.99749e-01
5.961354271e-01,8.55454e-01,9.99999e-01,9.87481e-01,8.66429e-01,9.99848e-01
5.991161043e-01,8.60895e-01,9.99999e-01,9.90847e-01,8.68886e-01,9.99955e-01
6.021116848e-01,8.66760e-01,9.99999e-01,9.94792e-01,8.71301e-01,9.99994e-01
6.051222432e-01,8.71370e-01,9.99999e-01,9.97361e-01,8.73675e-01,9.99999e-01
6.081478544e-01,8.75012e-01,9.99999e-01,9.98861e-01,8.76009e-01,9.99999e-01
6.111885937e-01,8.77879e-01,9.99999e-01,9.99517e-01,8.78303e-01,9.99999e-01
6.142445367e-01,8.80367e-01,9.99999e-01,9.99784e-01,8.80557e-01,9.99999e-01
6.173157594e-01,8.82667e-01,9.99999e-01,9.99881e-01,8.82772e-01,9.99999e-01
6.204023382e-01,8.84860e-01,9.99999e-01,9.99899e-01,8.84949e-01,9.99999e-01
6.235043498e-01,8.86699e-01,9.99999e-01,9.99562e-01,8.87088e-01,9.99998e-01
6.266218716e-01,8.87100e-01,9.99999e-01,9.97665e-01,8.89190e-01,9.99983e-01
6.297549810e-01,8.90463e-01,9.99999e-01,9.99143e-01,8.91255e-01,9.99966e-01
6.329037559e-01,8.91746e-01,9.99999e-01,9.98304e-01,8.93284e-01,9.99973e-01
6.360682746e-01,8.93974e-01,9.99999e-01,9.98559e-01,8.95277e-01,9.99983e-01
6.392486160e-01,8.95553e-01,9.99999e-01,9.98131e-01,8.97236e-01,9.99992e-01
6.424448591e-01,8.96913e-01,9.99999e-01,9.97512e-01,8.99159e-01,9.99988e-01
6.456570834e-01,8.90627e-01,9.99999e-01,9.88496e-01,9.01049e-01,9.99935e-01
6.488853688e-01,8.95087e-01,9.99999e-01,9.91519e-01,9.02906e-01,9.99819e-01
6.521297956e-01,8.96775e-01,9.99999e-01,9.91358e-01,9.04729e-01,9.99848e-01
6.553904446e-01,8.98666e-01,9.99999e-01,9.91447e-01,9.06520e-01,9.99886e-01
6.586673968e-01,9.01545e-01,9.99999e-01,9.92622e-01,9.08279e-01,9.99962e-01
6.619607338e-01,9.06112e-01,9.99999e-01,9.95727e-01,9.10007e-01,9.99991e-01
6.652705375e-01,9.09440e-01,9.99999e-01,9.97521e-01,9.11703e-01,9.99995e-01
6.685968902e-01,9.12317e-01,9.99999e-01,9.98848e-01,9.13369e-01,9.99998e-01
6.719398746e-01,9.14517e-01,9.99999e-01,9.99465e-01,9.15006e-01,9.99999e-01
6.752995740e-01,9.16348e-01,9.99999e-01,9.99711e-01,9.16612e-01,9.99999e-01
6.786760719e-01,9.17809e-01,9.99999e-01,9.99584e-01,9.18190e-01,9.99998e-01
6.820694522e-01,9.19081e-01,9.99999e-01,9.99287e-01,9.19739e-01,9.99995e-01
6.854797995e-01,9.20408e-01,9.99999e-01,9.99081e-01,9.21261e-01,9.99991e-01
6.889071985e-01,9.20704e-01,9.99999e-01,9.97797e-01,9.22754e-01,9.99979e-01
6.923517345e-01,8.91220e-01,9.99999e-01,9.64461e-01,9.24221e-01,9.99825e-01
6.958134932e-01,9.07876e-01,9.99999e-01,9.81172e-01,9.25660e-01,9.99606e-01
6.992925606e-01,9.10314e-01,9.99999e-01,9.82261e-01,9.27074e-01,9.99653e-01
7.027890234e-01,9.07835e-01,9.99999e-01,9.78043e-01,9.28462e-01,9.99734e-01
7.063029686e-01,9.12507e-01,9.99999e-01,9.81505e-01,9.29824e-01,9.99867e-01
7.098344834e-01,9.14556e-01,9.99999e-01,9.82243e-01,9.31161e-01,9.99921e-01
7.133836558e-01,9.10526e-01,9.99999e-01,9.76613e-01,9.32474e-01,9.99844e-01
7.169505741e-01,7.72628e-01,9.99999e-01,8.28445e-01,9.33762e-01,9.98779e-01
7.205353270e-01,8.49749e-01,9.99999e-01,9.10755e-01,9.35027e-01,9.97847e-01
7.241380036e-01,8.30475e-01,9.99999e-01,8.88656e-01,9.36269e-01,9.98140e-01
7.277586936e-01,8.41465e-01,9.99999e-01,8.98940e-01,9.37487e-01,9.98479e-01
7.313974871e-01,8.36820e-01,9.99999e-01,8.92117e-01,9.38684e-01,9.99287e-01
7.350544745e-01,8.82758e-01,9.99999e-01,9.39478e-01,9.39857e-01,9.99752e-01
7.387297469e-01,8.98558e-01,9.99999e-01,9.54995e-01,9.41010e-01,9.99886e-01
7.424233956e-01,9.21088e-01,9.99999e-01,9.77675e-01,9.42140e-01,9.99977e-01
7.461355126e-01,9.30439e-01,9.99999e-01,9.86421e-01,9.43250e-01,9.99995e-01
7.498661902e-01,9.38338e-01,9.99999e-01,9.93645e-01,9.44339e-01,9.99998e-01
7.536155211e-01,9.42462e-01,9.99999e-01,9.96883e-01,9.45408e-01,9.99998e-01
7.573835987e-01,9.44938e-01,9.99999e-01,9.98394e-01,9.46457e-01,9.99999e-01
7.611705167e-01,9.46541e-01,9.99999e-01,9.99002e-01,9.47486e-01,9.99999e-01
7.649763693e-01,9.47904e-01,9.99999e-01,9.99374e-01,9.48497e-01,9.99999e-01
7.688012511e-01,9.49075e-01,9.99999e-01,9.99564e-01,9.49488e-01,9.99999e-01
7.726452574e-01,9.50120e-01,9.99999e-01,9.99642e-01,9.50460e-01,9.99999e-01
7.765084837e-01,9.50933e-01,9.99999e-01,9.99493e-01,9.51415e-01,9.99998e-01
7.803910261e-01,9.50269e-01,9.99999e-01,9.97815e-01,9.52351e-01,9.99997e-01
7.842929812e-01,9.46010e-01,9.99999e-01,9.92397e-01,9.53270e-01,9.99985e-01
7.882144461e-01,9.39120e-01,9.99999e-01,9.84320e-01,9.54171e-01,9.99903e-01
7.921555184e-01,9.46620e-01,9.99999e-01,9.91351e-01,9.55056e-01,9.99812e-01
7.961162960e-01,9.41282e-01,9.99999e-01,9.84859e-01,9.55924e-01,9.99820e-01
8.000968774e-01,9.39813e-01,9.99999e-01,9.82458e-01,9.56775e-01,9.99809e-01
8.040973618e-01,9.40684e-01,9.99999e-01,9.82471e-01,9.57611e-01,9.99848e-01
8.081178486e-01,9.21068e-01,9.99999e-01,9.61152e-01,9.58430e-01,9.99857e-01
8.121584379e-01,8.13594e-01,9.99999e-01,8.48642e-01,9.59234e-01,9.99442e-01
8.162192301e-01,7.87964e-01,9.99999e-01,8.22497e-01,9.60023e-01,9.97905e-01
8.203003262e-01,8.72013e-01,9.99999e-01,9.09822e-01,9.60797e-01,9.97548e-01
8.244018279e-01,8.40699e-01,9.99999e-01,8.76019e-01,9.61557e-01,9.98048e-01
8.285238370e-01,8.54850e-01,9.99999e-01,8.89702e-01,9.62301e-01,9.98466e-01
8.326664562e-01,8.55147e-01,9.99999e-01,8.88536e-01,9.63032e-01,9.99365e-01
8.368297885e-01,8.85090e-01,9.99999e-01,9.18514e-01,9.63749e-01,9.99854e-01
8.410139374e-01,9.16801e-01,9.99999e-01,9.50672e-01,9.64452e-01,9.99914e-01
8.452190071e-01,9.41412e-01,9.99999e-01,9.75461e-01,9.65142e-01,9.99948e-01
8.494451021e-01,9.51981e-01,9.99999e-01,9.85712e-01,9.65818e-01,9.99958e-01
8.536923276e-01,9.58254e-01,9.99999e-01,9.91512e-01,9.66482e-01,9.99972e-01
8.579607893e-01,9.62072e-01,9.99999e-01,9.94773e-01,9.67133e-01,9.99992e-01
8.622505932e-01,9.64551e-01,9.99999e-01,9.96672e-01,9.67772e-01,9.99998e-01
8.665618462e-01,9.66408e-01,9.99999e-01,9.97944e-01,9.68398e-01,9.99998e-01
8.708946554e-01,9.66735e-01,9.99999e-01,9.97650e-01,9.69013e-01,9.99998e-01
8.752491287e-01,9.66564e-01,9.99999e-01,9.96855e-01,9.69615e-01,9.99996e-01
8.796253743e-01,9.65983e-01,9.99999e-01,9.95656e-01,9.70206e-01,9.99989e-01
8.840235012e-01,9.65940e-01,9.99999e-01,9.95037e-01,9.70786e-01,9.99969e-01
8.884436187e-01,9.54035e-01,9.99999e-01,9.82253e-01,9.71355e-01,9.99913e-01
8.928858368e-01,8.05237e-01,9.99999e-01,8.28919e-01,9.71913e-01,9.99502e-01
8.973502660e-01,6.96085e-01,9.99999e-01,7.17625e-01,9.72460e-01,9.97452e-01
9.018370173e-01,8.17609e-01,9.99999e-01,8.43675e-01,9.72996e-01,9.95998e-01
9.063462024e-01,8.35803e-01,9.99999e-01,8.61563e-01,9.73522e-01,9.96483e-01
9.108779334e-01,7.68948e-01,9.99999e-01,7.92337e-01,9.74039e-01,9.96346e-01
9.154323231e-01,7.44777e-01,9.99999e-01,7.66545e-01,9.74545e-01,9.96979e-01
9.200094847e-01,7.90865e-01,9.99999e-01,8.12483e-01,9.75041e-01,9.98307e-01
9.246095321e-01,7.14655e-01,9.99999e-01,7.34013e-01,9.75528e-01,9.98050e-01
9.292325798e-01,1.43415e-01,9.99999e-01,1.48063e-01,9.76006e-01,9.92420e-01
9.338787427e-01,7.73168e-02,9.99999e-01,8.17094e-02,9.76474e-01,9.69037e-01
9.385481364e-01,3.38800e-01,9.99999e-01,3.60017e-01,9.76933e-01,9.63283e-01
9.432408771e-01,2.45074e-01,9.99999e-01,2.58969e-01,9.77384e-01,9.68242e-01
9.479570815e-01,1.44317e-01,9.99999e-01,1.51518e-01,9.77825e-01,9.74076e-01
9.526968669e-01,2.21391e-01,9.99999e-01,2.29966e-01,9.78259e-01,9.84107e-01
9.574603512e-01,2.37974e-01,9.99999e-01,2.45144e-01,9.78683e-01,9.91895e-01
9.622476530e-01,3.02225e-01,9.99999e-01,3.10418e-01,9.79100e-01,9.94388e-01
9.670588912e-01,4.93328e-01,9.99999e-01,5.05590e-01,9.79509e-01,9.96158e-01
9.718941857e-01,6.29140e-01,9.99999e-01,6.43860e-01,9.79909e-01,9.97170e-01
9.767536566e-01,6.78255e-01,9.99999e-01,6.93383e-01,9.80302e-01,9.97837e-01
9.816374249e-01,7.45480e-01,9.99999e-01,7.60730e-01,9.80687e-01,9.99250e-01
9.865456120e-01,8.26258e-01,9.99999e-01,8.42335e-01,9.81065e-01,9.99843e-01
9.914783401e-01,8.82403e-01,9.99999e-01,8.99132e-01,9.81436e-01,9.99956e-01
9.964357318e-01,9.26518e-01,9.99999e-01,9.43717e-01,9.81799e-01,9.99974e-01
1.001417910e+00,9.48578e-01,9.99999e-01,9.65849e-01,9.82155e-01,9.99960e-01
1.006425000e+00,9.63198e-01,9.99999e-01,9.80402e-01,9.82505e-01,9.99944e-01
1.011457125e+00,9.70784e-01,9.99999e-01,9.87776e-01,9.82847e-01,9.99948e-01
1.016514411e+00,9.74980e-01,9.99999e-01,9.91691e-01,9.83183e-01,9.99963e-01
1.021596983e+00,9.76964e-01,9.99999e-01,9.93377e-01,9.83513e-01,9.99963e-01
1.026704968e+00,9.78729e-01,9.99999e-01,9.94832e-01,9.83836e-01,9.99975e-01
1.031838492e+00,9.80444e-01,9.99999e-01,9.96238e-01,9.84152e-01,9.99992e-01
1.036997685e+00,9.82264e-01,9.99999e-01,9.97766e-01,9.84463e-01,9.99998e-01
1.042182673e+00,9.82151e-01,9.99999e-01,9.97342e-01,9.84767e-01,9.99999e-01
1.047393587e+00,9.81592e-01,9.99999e-01,9.96473e-01,9.85066e-01,9.99998e-01
1.052630555e+00,9.80596e-01,9.99999e-01,9.95167e-01,9.85359e-01,9.99998e-01
1.057893707e+00,9.77711e-01,9.99999e-01,9.91952e-01,9.85646e-01,9.99996e-01
1.063183176e+00,9.72893e-01,9.99999e-01,9.86785e-01,9.85927e-01,9.99992e-01
1.068499092e+00,9.64453e-01,9.99999e-01,9.77959e-01,9.86203e-01,9.99984e-01
1.073841587e+00,9.61103e-01,9.99999e-01,9.74312e-01,9.86474e-01,9.99966e-01
1.079210795e+00,9.54206e-01,9.99999e-01,9.67115e-01,9.86739e-01,9.99910e-01
1.084606849e+00,9.38179e-01,9.99999e-01,9.50740e-01,9.87000e-01,9.99785e-01
1.090029883e+00,9.18105e-01,9.99999e-01,9.30369e-01,9.87255e-01,9.99555e-01
1.095480033e+00,8.10585e-01,9.99999e-01,8.21501e-01,9.87505e-01,9.99196e-01
1.100957433e+00,6.02526e-01,9.99999e-01,6.10901e-01,9.87750e-01,9.98521e-01
1.106462220e+00,2.97991e-01,9.99999e-01,3.02371e-01,9.87991e-01,9.97493e-01
1.111994531e+00,8.47382e-02,9.99999e-01,8.63207e-02,9.88226e-01,9.93361e-01
1.117554504e+00,2.14140e-02,9.99999e-01,2.21913e-02,9.88458e-01,9.76239e-01
1.123142276e+00,6.97055e-02,9.99999e-01,7.46406e-02,9.88684e-01,9.44569e-01
1.128757988e+00,1.48947e-01,9.99999e-01,1.60889e-01,9.88907e-01,9.36158e-01
1.134401778e+00,6.60597e-02,9.99999e-01,7.06393e-02,9.89124e-01,9.45449e-01
1.140073787e+00,3.00570e-01,9.99999e-01,3.17735e-01,9.89338e-01,9.56170e-01
1.145774156e+00,1.04078e-01,9.99999e-01,1.09581e-01,9.89548e-01,9.59804e-01
1.151503026e+00,8.38344e-02,9.99999e-01,8.66604e-02,9.89753e-01,9.77404e-01
1.157260541e+00,1.07619e-01,9.99999e-01,1.09456e-01,9.89954e-01,9.93189e-01
1.163046844e+00,1.88940e-01,9.99999e-01,1.91189e-01,9.90152e-01,9.98064e-01
1.168862078e+00,3.00935e-01,9.99999e-01,3.04171e-01,9.90345e-01,9.99002e-01
1.174706389e+00,4.73172e-01,9.99999e-01,4.78325e-01,9.90535e-01,9.98677e-01
1.180579921e+00,6.28841e-01,9.99999e-01,6.36000e-01,9.90721e-01,9.98001e-01
1.186482820e+00,7.64073e-01,9.99999e-01,7.72671e-01,9.90904e-01,9.97948e-01
1.192415234e+00,8.50900e-01,9.99999e-01,8.59876e-01,9.91082e-01,9.98463e-01
1.198377311e+00,8.71739e-01,9.99999e-01,8.80704e-01,9.91258e-01,9.98548e-01
1.204369197e+00,8.78343e-01,9.99999e-01,8.87100e-01,9.91430e-01,9.98686e-01
1.210391043e+00,8.83298e-01,9.99999e-01,8.91493e-01,9.91598e-01,9.99200e-01
1.216442998e+00,8.98908e-01,9.99999e-01,9.06816e-01,9.91763e-01,9.99510e-01
1.222525213e+00,9.18798e-01,9.99999e-01,9.26558e-01,9.91926e-01,9.99695e-01
1.228637839e+00,9.40767e-01,9.99999e-01,9.48406e-01,9.92084e-01,9.99858e-01
1.234781029e+00,9.53913e-01,9.99999e-01,9.61411e-01,9.92240e-01,9.99959e-01
1.240954934e+00,9.68003e-01,9.99999e-01,9.75433e-01,9.92393e-01,9.99988e-01
1.247159708e+00,9.73483e-01,9.99999e-01,9.80803e-01,9.92542e-01,9.99992e-01
1.253395507e+00,9.75758e-01,9.99999e-01,9.82953e-01,9.92689e-01,9.99990e-01
1.259662485e+00,9.76755e-01,9.99999e-01,9.83820e-01,9.92833e-01,9.99984e-01
1.265960797e+00,9.67377e-01,9.99999e-01,9.74245e-01,9.92974e-01,9.99974e-01
1.272290601e+00,9.55726e-01,9.99999e-01,9.62396e-01,9.93112e-01,9.99955e-01
1.278652054e+00,9.16062e-01,9.99999e-01,9.22361e-01,9.93248e-01,9.99920e-01
1.285045314e+00,8.74971e-01,9.99999e-01,8.80930e-01,9.93381e-01,9.99852e-01
1.291470541e+00,7.70123e-01,9.99999e-01,7.75353e-01,9.93511e-01,9.99741e-01
1.297927893e+00,7.13977e-01,9.99999e-01,7.18894e-01,9.93639e-01,9.99517e-01
1.304417533e+00,6.50204e-01,9.99999e-01,6.54953e-01,9.93764e-01,9.98977e-01
1.310939621e+00,6.11918e-01,9.99999e-01,6.16974e-01,9.93887e-01,9.97902e-01
1.317494319e+00,5.86191e-01,9.99999e-01,5.92019e-01,9.94007e-01,9.96124e-01
1.324081790e+00,4.58351e-01,9.99999e-01,4.63991e-01,9.94125e-01,9.93680e-01
1.330702199e+00,1.11819e-01,9.99999e-01,1.13703e-01,9.94241e-01,9.89128e-01
1.337355710e+00,1.20451e-03,9.99999e-01,1.23712e-03,9.94354e-01,9.79168e-01
1.344042489e+00,1.59545e-05,9.99999e-01,1.70934e-05,9.94466e-01,9.38561e-01
1.350762701e+00,1.70120e-15,9.99999e-01,2.12518e-15,9.94575e-01,8.04859e-01
1.357516515e+00,4.65765e-23,9.99999e-01,8.85470e-23,9.94681e-01,5.28820e-01
1.364304097e+00,1.38026e-14,9.99999e-01,4.23794e-14,9.94786e-01,3.27398e-01
1.371125618e+00,2.59986e-09,9.99999e-01,7.48792e-09,9.94889e-01,3.48991e-01
1.377981246e+00,9.71608e-09,9.99999e-01,2.40751e-08,9.94990e-01,4.05605e-01
1.384871152e+00,2.95951e-12,9.99999e-01,6.95787e-12,9.95088e-01,4.27446e-01
1.391795508e+00,1.33951e-14,9.99999e-01,3.00918e-14,9.95185e-01,4.47292e-01
1.398754485e+00,1.87708e-11,9.99999e-01,3.65659e-11,9.95280e-01,5.15775e-01
1.405748258e+00,2.87570e-11,9.99999e-01,4.25453e-11,9.95373e-01,6.79056e-01
1.412776999e+00,5.22221e-11,9.99999e-01,6.26001e-11,9.95464e-01,8.38017e-01
1.419840884e+00,1.00437e-10,9.99998e-01,1.09013e-10,9.95553e-01,9.25440e-01
1.426940089e+00,1.48581e-07,9.99998e-01,1.58280e-07,9.95641e-01,9.42832e-01
1.434074789e+00,1.60097e-06,9.99998e-01,1.72350e-06,9.95727e-01,9.32892e-01
1.441245163e+00,1.74583e-05,9.99999e-01,1.89017e-05,9.95811e-01,9.27519e-01
1.448451389e+00,5.71334e-04,9.99998e-01,6.12757e-04,9.95894e-01,9.36242e-01
1.455693646e+00,6.05992e-03,9.99999e-01,6.40443e-03,9.95975e-01,9.50029e-01
1.462972114e+00,9.14026e-03,9.99999e-01,9.63625e-03,9.96054e-01,9.52285e-01
1.470286975e+00,4.55076e-03,9.99999e-01,4.79333e-03,9.96132e-01,9.53079e-01
