#,Wave/freq,Total,N2,H2O,Rayleigh,CIA
4.000000000e-01,6.94242e-01,9.99999e-01,9.99958e-01,6.94270e-01,9.99999e-01
4.020000000e-01,6.99280e-01,9.99999e-01,9.99974e-01,6.99297e-01,9.99999e-01
4.040100000e-01,7.04248e-01,9.99999e-01,9.99988e-01,7.04255e-01,9.99999e-01
4.060300500e-01,7.09148e-01,9.99999e-01,9.99997e-01,7.09150e-01,9.99999e-01
4.080602003e-01,7.13980e-01,9.99999e-01,9.99998e-01,7.13980e-01,9.99999e-01
4.101005013e-01,7.18747e-01,9.99999e-01,9.99999e-01,7.18747e-01,9.99999e-01
4.121510038e-01,7.23450e-01,9.99999e-01,9.99997e-01,7.23451e-01,9.99999e-01
4.142117588e-01,7.28084e-01,9.99999e-01,9.99988e-01,7.28092e-01,9.99999e-01
4.162828176e-01,7.32633e-01,9.99999e-01,9.99948e-01,7.32670e-01,9.99999e-01
4.183642317e-01,7.37163e-01,9.99999e-01,9.99969e-01,7.37185e-01,9.99999e-01
4.204560528e-01,7.41625e-01,9.99999e-01,9.99980e-01,7.41639e-01,9.99999e-01
4.225583331e-01,7.46025e-01,9.99999e-01,9.99992e-01,7.46030e-01,9.99999e-01
4.246711247e-01,7.50356e-01,9.99999e-01,9.99993e-01,7.50360e-01,9.99999e-01
4.267944804e-01,7.54623e-01,9.99999e-01,9.99991e-01,7.54629e-01,9.99999e-01
4.289284528e-01,7.58832e-01,9.99999e-01,9.99993e-01,7.58837e-01,9.99999e-01
4.310730950e-01,7.62983e-01,9.99999e-01,9.99996e-01,7.62985e-01,9.99999e-01
4.332284605e-01,7.67072e-01,9.99999e-01,9.99998e-01,7.67073e-01,9.99999e-01
4.353946028e-01,7.71101e-01,9.99999e-01,9.99999e-01,7.71101e-01,9.99999e-01
4.375715758e-01,7.75066e-01,9.99999e-01,9.99994e-01,7.75070e-01,9.99999e-01
4.397594337e-01,7.78946e-01,9.99999e-01,9.99954e-01,7.78981e-01,9.99999e-01
4.419582309e-01,7.82654e-01,9.99999e-01,9.99769e-01,7.82834e-01,9.99999e-01
4.441680220e-01,7.86490e-01,9.99999e-01,9.99823e-01,7.86629e-01,9.99999e-01
4.463888621e-01,7.90221e-01,9.99999e-01,9.99814e-01,7.90367e-01,9.99999e-01
4.486208064e-01,7.93957e-01,9.99999e-01,9.99885e-01,7.94048e-01,9.99999e-01
4.508639105e-01,7.97630e-01,9.99999e-01,9.99946e-01,7.97673e-01,9.99999e-01
4.531182300e-01,8.01226e-01,9.99999e-01,9.99978e-01,8.01243e-01,9.99999e-01
4.553838212e-01,8.04746e-01,9.99999e-01,9.99985e-01,8.04758e-01,9.99999e-01
4.576607403e-01,8.08212e-01,9.99999e-01,9.99992e-01,8.08218e-01,9.99999e-01
4.599490440e-01,8.11620e-01,9.99999e-01,9.99994e-01,8.11624e-01,9.99999e-01
4.622487892e-01,8.14976e-01,9.99999e-01,9.99998e-01,8.14977e-01,9.99999e-01
4.645600332e-01,8.18275e-01,9.99999e-01,9.99996e-01,8.18277e-01,9.99999e-01
4.668828333e-01,8.21480e-01,9.99999e-01,9.99945e-01,8.21525e-01,9.99999e-01
4.692172475e-01,8.24626e-01,9.99999e-01,9.99883e-01,8.24722e-01,9.99999e-01
4.715633337e-01,8.27804e-01,9.99999e-01,9.99923e-01,8.27867e-01,9.99999e-01
4.739211504e-01,8.30902e-01,9.99999e-01,9.99927e-01,8.30962e-01,9.99999e-01
4.762907561e-01,8.33975e-01,9.99999e-01,9.99962e-01,8.34006e-01,9.99999e-01
4.786722099e-01,8.36989e-01,9.99999e-01,9.99984e-01,8.37002e-01,9.99999e-01
4.810655710e-01,8.39945e-01,9.99999e-01,9.99994e-01,8.39949e-01,9.99999e-01
4.834708988e-01,8.42810e-01,9.99999e-01,9.99954e-01,8.42848e-01,9.99999e-01
4.858882533e-01,8.45630e-01,9.99999e-01,9.99917e-01,8.45699e-01,9.99999e-01
4.883176946e-01,8.48445e-01,9.99999e-01,9.99930e-01,8.48503e-01,9.99999e-01
4.907592831e-01,8.51208e-01,9.99999e-01,9.99937e-01,8.51261e-01,9.99999e-01
4.932130795e-01,8.53935e-01,9.99999e-01,9.99955e-01,8.53973e-01,9.99999e-01
4.956791449e-01,8.56620e-01,9.99999e-01,9.99976e-01,8.56640e-01,9.99999e-01
4.981575406e-01,8.59161e-01,9.99999e-01,9.99882e-01,8.59262e-01,9.99999e-01
5.006483283e-01,8.61576e-01,9.99999e-01,9.99695e-01,8.61840e-01,9.99997e-01
5.031515699e-01,8.63037e-01,9.99999e-01,9.98467e-01,8.64375e-01,9.99983e-01
5.056673278e-01,8.66152e-01,9.99999e-01,9.99192e-01,8.66867e-01,9.99981e-01
5.081956644e-01,8.68423e-01,9.99999e-01,9.98982e-01,8.69317e-01,9.99988e-01
5.107366428e-01,8.71125e-01,9.99999e-01,9.99313e-01,8.71725e-01,9.99997e-01
5.132903260e-01,8.73749e-01,9.99999e-01,9.99607e-01,8.74092e-01,9.99999e-01
5.158567776e-01,8.76273e-01,9.99999e-01,9.99834e-01,8.76418e-01,9.99999e-01
5.184360615e-01,8.78647e-01,9.99999e-01,9.99933e-01,8.78705e-01,9.99999e-01
5.210282418e-01,8.80930e-01,9.99999e-01,9.99974e-01,8.80952e-01,9.99999e-01
5.236333830e-01,8.83072e-01,9.99999e-01,9.99899e-01,8.83160e-01,9.99998e-01
5.262515499e-01,8.85274e-01,9.99999e-01,9.99937e-01,8.85331e-01,9.99998e-01
5.288828077e-01,8.87411e-01,9.99999e-01,9.99942e-01,8.87463e-01,9.99998e-01
5.315272217e-01,8.89514e-01,9.99999e-01,9.99949e-01,8.89558e-01,9.99999e-01
5.341848578e-01,8.91587e-01,9.99999e-01,9.99966e-01,8.91617e-01,9.99999e-01
5.368557821e-01,8.93535e-01,9.99999e-01,9.99882e-01,8.93640e-01,9.99999e-01
5.395400610e-01,8.95245e-01,9.99999e-01,9.99576e-01,8.95627e-01,9.99995e-01
5.422377613e-01,8.97085e-01,9.99999e-01,9.99459e-01,8.97579e-01,9.99989e-01
5.449489501e-01,8.99033e-01,9.99999e-01,9.99494e-01,8.99497e-01,9.99989e-01
5.476736949e-01,9.00975e-01,9.99999e-01,9.99554e-01,9.01381e-01,9.99994e-01
5.504120634e-01,9.02938e-01,9.99999e-01,9.99676e-01,9.03231e-01,9.99998e-01
5.531641237e-01,9.04902e-01,9.99999e-01,9.99837e-01,9.05049e-01,9.99999e-01
5.559299443e-01,9.06763e-01,9.99999e-01,9.99921e-01,9.06834e-01,9.99999e-01
5.587095940e-01,9.08543e-01,9.99999e-01,9.99950e-01,9.08587e-01,9.99999e-01
5.615031420e-01,9.10259e-01,9.99999e-01,9.99944e-01,9.10309e-01,9.99999e-01
5.643106577e-01,9.11943e-01,9.99999e-01,9.99936e-01,9.12001e-01,9.99998e-01
5.671322110e-01,9.12954e-01,9.99999e-01,9.99232e-01,9.13662e-01,9.99992e-01
5.699678720e-01,9.14542e-01,9.99999e-01,9.99200e-01,9.15292e-01,9.99978e-01
5.728177114e-01,9.16109e-01,9.99999e-01,9.99160e-01,9.16894e-01,9.99982e-01
5.756818000e-01,9.17751e-01,9.99999e-01,9.99230e-01,9.18467e-01,9.99989e-01
5.785602090e-01,9.19393e-01,9.99999e-01,9.99330e-01,9.20011e-01,9.99996e-01
5.814530100e-01,9.20905e-01,9.99999e-01,9.99326e-01,9.21527e-01,9.99998e-01
5.843602750e-01,9.22267e-01,9.99999e-01,9.99192e-01,9.23016e-01,9.99995e-01
5.872820764e-01,9.18021e-01,9.99999e-01,9.93063e-01,9.24478e-01,9.99950e-01
5.902184868e-01,9.18063e-01,9.99999e-01,9.91652e-01,9.25913e-01,9.99867e-01
5.931695792e-01,9.21720e-01,9.99999e-01,9.94085e-01,9.27322e-01,9.99872e-01
5.961354271e-01,9.22627e-01,9.99999e-01,9.93527e-01,9.28705e-01,9.99926e-01
5.991161043e-01,9.25652e-01,9.99999e-01,9.95280e-01,9.30063e-01,9.99976e-01
6.021116848e-01,9.28899e-01,9.99999e-01,9.97321e-01,9.31395e-01,9.99996e-01
6.051222432e-01,9.31440e-01,9.99999e-01,9.98644e-01,9.32704e-01,9.99999e-01
6.081478544e-01,9.33442e-01,9.99999e-01,9.99414e-01,9.33988e-01,9.99999e-01
6.111885937e-01,9.35018e-01,9.99999e-01,9.99752e-01,9.35249e-01,9.99999e-01
6.142445367e-01,9.36383e-01,9.99999e-01,9.99889e-01,9.36486e-01,9.99999e-01
6.173157594e-01,9.37644e-01,9.99999e-01,9.99938e-01,9.37701e-01,9.99999e-01
6.204023382e-01,9.38844e-01,9.99999e-01,9.99947e-01,9.38893e-01,9.99999e-01
6.235043498e-01,9.39846e-01,9.99999e-01,9.99768e-01,9.40063e-01,9.99998e-01
6.266218716e-01,9.40068e-01,9.99999e-01,9.98793e-01,9.41212e-01,9.99991e-01
6.297549810e-01,9.41906e-01,9.99999e-01,9.99557e-01,9.42339e-01,9.99982e-01
6.329037559e-01,9.42609e-01,9.99999e-01,9.99127e-01,9.43445e-01,9.99985e-01
6.360682746e-01,9.43819e-01,9.99999e-01,9.99254e-01,9.44530e-01,9.99991e-01
6.392486160e-01,9.44680e-01,9.99999e-01,9.99035e-01,9.45596e-01,9.99995e-01
6.424448591e-01,9.45405e-01,9.99999e-01,9.98700e-01,9.46641e-01,9.99993e-01
6.456570834e-01,9.41930e-01,9.99999e-01,9.93981e-01,9.47667e-01,9.99963e-01
6.488853688e-01,9.44438e-01,9.99999e-01,9.95627e-01,9.48673e-01,9.99906e-01
6.521297956e-01,9.45357e-01,9.99999e-01,9.95543e-01,9.49661e-01,9.99922e-01
6.553904446e-01,9.46344e-01,9.99999e-01,9.95547e-01,9.50631e-01,9.99942e-01
6.586673968e-01,9.47947e-01,9.99999e-01,9.96198e-01,9.51582e-01,9.99980e-01
6.619607338e-01,9.50493e-01,9.99999e-01,9.97880e-01,9.52515e-01,9.99995e-01
6.652705375e-01,9.52216e-01,9.99999e-01,9.98727e-01,9.53431e-01,9.99997e-01
6.685968902e-01,9.53813e-01,9.99999e-01,9.99459e-01,9.54329e-01,9.99999e-01
6.719398746e-01,9.54950e-01,9.99999e-01,9.99725e-01,9.55211e-01,9.99999e-01
6.752995740e-01,9.55938e-01,9.99999e-01,9.99855e-01,9.56076e-01,9.99999e-01
6.786760719e-01,9.56717e-01,9.99999e-01,9.99783e-01,9.56924e-01,9.99999e-01
6.820694522e-01,9.57403e-01,9.99999e-01,9.99631e-01,9.57757e-01,9.99997e-01
6.854797995e-01,9.58115e-01,9.99999e-01,9.99524e-01,9.58574e-01,9.99995e-01
6.889071985e-01,9.58250e-01,9.99999e-01,9.98836e-01,9.59375e-01,9.99989e-01
6.923517345e-01,9.42126e-01,9.99999e-01,9.81303e-01,9.60162e-01,9.99909e-01
6.958134932e-01,9.51507e-01,9.99999e-01,9.90387e-01,9.60933e-01,9.99800e-01
6.992925606e-01,9.52597e-01,9.99999e-01,9.90722e-01,9.61690e-01,9.99820e-01
7.027890234e-01,9.51352e-01,9.99999e-01,9.88622e-01,9.62432e-01,9.99862e-01
7.063029686e-01,9.53868e-01,9.99999e-01,9.90419e-01,9.63160e-01,9.99931e-01
7.098344834e-01,9.54974e-01,9.99999e-01,9.90805e-01,9.63874e-01,9.99959e-01
7.133836558e-01,9.52597e-01,9.99999e-01,9.87660e-01,9.64575e-01,9.99919e-01
7.169505741e-01,8.73654e-01,9.99999e-01,9.05665e-01,9.65263e-01,9.99369e-01
7.205353270e-01,9.19742e-01,9.99999e-01,9.53234e-01,9.65937e-01,9.98888e-01
7.241380036e-01,9.07984e-01,9.99999e-01,9.40261e-01,9.66598e-01,9.99039e-01
7.277586936e-01,9.14278e-01,9.99999e-01,9.45978e-01,9.67247e-01,9.99215e-01
7.313974871e-01,9.12237e-01,9.99999e-01,9.42852e-01,9.67884e-01,9.99632e-01
7.350544745e-01,9.37703e-01,9.99999e-01,9.68316e-01,9.68508e-01,9.99871e-01
7.387297469e-01,9.46377e-01,9.99999e-01,9.76589e-01,9.69120e-01,9.99940e-01
7.424233956e-01,9.58555e-01,9.99999e-01,9.88495e-01,9.69721e-01,9.99989e-01
7.461355126e-01,9.63522e-01,9.99999e-01,9.93005e-01,9.70310e-01,9.99997e-01
7.498661902e-01,9.67727e-01,9.99999e-01,9.96745e-01,9.70888e-01,9.99998e-01
7.536155211e-01,9.69899e-01,9.99999e-01,9.98398e-01,9.71454e-01,9.99999e-01
7.573835987e-01,9.71209e-01,9.99999e-01,9.99175e-01,9.72010e-01,9.99999e-01
7.611705167e-01,9.72058e-01,9.99999e-01,9.99487e-01,9.72555e-01,9.99999e-01
7.649763693e-01,9.72778e-01,9.99999e-01,9.99678e-01,9.73090e-01,9.99999e-01
7.688012511e-01,9.73397e-01,9.99999e-01,9.99775e-01,9.73615e-01,9.99999e-01
7.726452574e-01,9.73949e-01,9.99999e-01,9.99815e-01,9.74129e-01,9.99999e-01
7.765084837e-01,9.74377e-01,9.99999e-01,9.99736e-01,9.74633e-01,9.99999e-01
7.803910261e-01,9.74016e-01,9.99999e-01,9.98859e-01,9.75128e-01,9.99998e-01
7.842929812e-01,9.71729e-01,9.99999e-01,9.96024e-01,9.75613e-01,9.99992e-01
7.882144461e-01,9.68105e-01,9.99999e-01,9.91875e-01,9.76089e-01,9.99943e-01
7.921555184e-01,9.72121e-01,9.99999e-01,9.95554e-01,9.76556e-01,9.99902e-01
7.961162960e-01,9.69196e-01,9.99999e-01,9.92089e-01,9.77014e-01,9.99907e-01
8.000968774e-01,9.68477e-01,9.99999e-01,9.90904e-01,9.77463e-01,9.99901e-01
8.040973618e-01,9.68925e-01,9.99999e-01,9.90893e-01,9.77903e-01,9.99924e-01
8.081178486e-01,9.58210e-01,9.99999e-01,9.79504e-01,9.78334e-01,9.99923e-01
8.121584379e-01,8.97795e-01,9.99999e-01,9.17543e-01,9.78758e-01,9.99711e-01
8.162192301e-01,8.83846e-01,9.99999e-01,9.03622e-01,9.79173e-01,9.98918e-01
8.203003262e-01,9.29938e-01,9.99999e-01,9.50525e-01,9.79580e-01,9.98733e-01
8.244018279e-01,9.13339e-01,9.99999e-01,9.32938e-01,9.79979e-01,9.98992e-01
8.285238370e-01,9.21763e-01,9.99999e-01,9.40963e-01,9.80371e-01,9.99208e-01
8.326664562e-01,9.22149e-01,9.99999e-01,9.40551e-01,9.80755e-01,9.99672e-01
8.368297885e-01,9.39025e-01,9.99999e-01,9.57154e-01,9.81131e-01,9.99924e-01
8.410139374e-01,9.56256e-01,9.99999e-01,9.74322e-01,9.81501e-01,9.99955e-01
8.452190071e-01,9.69404e-01,9.99999e-01,9.87337e-01,9.81863e-01,9.99973e-01
8.494451021e-01,9.74944e-01,9.99999e-01,9.92614e-01,9.82218e-01,9.99978e-01
8.536923276e-01,9.78267e-01,9.99999e-01,9.95637e-01,9.82566e-01,9.99986e-01
8.579607893e-01,9.80257e-01,9.99999e-01,9.97305e-01,9.82907e-01,9.99996e-01
8.622505932e-01,9.81561e-01,9.99999e-01,9.98290e-01,9.83242e-01,9.99998e-01
8.665618462e-01,9.82527e-01,9.99999e-01,9.98939e-01,9.83570e-01,9.99999e-01
8.708946554e-01,9.82695e-01,9.99999e-01,9.98783e-01,9.83892e-01,9.99998e-01
8.752491287e-01,9.82607e-01,9.99999e-01,9.98374e-01,9.84208e-01,9.99997e-01
8.796253743e-01,9.82292e-01,9.99999e-01,9.97744e-01,9.84517e-01,9.99994e-01
8.840235012e-01,9.82270e-01,9.99999e-01,9.97425e-01,9.84821e-01,9.99983e-01
8.884436187e-01,9.75744e-01,9.99999e-01,9.90527e-01,9.85118e-01,9.99955e-01
8.928858368e-01,8.92219e-01,9.99999e-01,9.05661e-01,9.85410e-01,9.99742e-01
8.973502660e-01,8.27362e-01,9.99999e-01,8.40473e-01,9.85696e-01,9.98684e-01
9.018370173e-01,9.00872e-01,9.99999e-01,9.15576e-01,9.85977e-01,9.97932e-01
9.063462024e-01,9.09998e-01,9.99999e-01,9.24361e-01,9.86252e-01,9.98183e-01
9.108779334e-01,8.71432e-01,9.99999e-01,8.85007e-01,9.86521e-01,9.98112e-01
9.154323231e-01,8.57595e-01,9.99999e-01,8.70436e-01,9.86786e-01,9.98439e-01
9.200094847e-01,8.84935e-01,9.99999e-01,8.97332e-01,9.87045e-01,9.99126e-01
9.246095321e-01,8.32912e-01,9.99999e-01,8.44476e-01,9.87299e-01,9.98993e-01
9.292325798e-01,3.30427e-01,9.99999e-01,3.36223e-01,9.87549e-01,9.95150e-01
9.338787427e-01,2.41400e-01,9.99999e-01,2.48714e-01,9.87793e-01,9.82583e-01
9.385481364e-01,5.51115e-01,9.99999e-01,5.68661e-01,9.88033e-01,9.80881e-01
9.432408771e-01,4.48739e-01,9.99999e-01,4.61690e-01,9.88268e-01,9.83484e-01
9.479570815e-01,3.38556e-01,9.99999e-01,3.47169e-01,9.88498e-01,9.86537e-01
9.526968669e-01,4.37161e-01,9.99999e-01,4.45817e-01,9.88724e-01,9.91766e-01
9.574603512e-01,4.59571e-01,9.99999e-01,4.66664e-01,9.88945e-01,9.95809e-01
9.622476530e-01,5.28015e-01,9.99999e-01,5.35352e-01,9.89163e-01,9.97100e-01
9.670588912e-01,6.87253e-01,9.99999e-01,6.96013e-01,9.89376e-01,9.98015e-01
9.718941857e-01,7.85407e-01,9.99999e-01,7.94834e-01,9.89584e-01,9.98538e-01
9.767536566e-01,8.16938e-01,9.99999e-01,8.26287e-01,9.89789e-01,9.98883e-01
9.816374249e-01,8.59071e-01,9.99999e-01,8.68093e-01,9.89990e-01,9.99613e-01
9.865456120e-01,9.06274e-01,9.99999e-01,9.15329e-01,9.90186e-01,9.99919e-01
9.914783401e-01,9.37587e-01,9.99999e-01,9.46715e-01,9.90379e-01,9.99977e-01
9.964357318e-01,9.61462e-01,9.99999e-01,9.70628e-01,9.90568e-01,9.99986e-01
1.001417910e+00,9.73193e-01,9.99999e-01,9.82294e-01,9.90754e-01,9.99979e-01
1.006425000e+00,9.80853e-01,9.99999e-01,9.89853e-01,9.90936e-01,9.99971e-01
1.011457125e+00,9.84847e-01,9.99999e-01,9.93702e-01,9.91114e-01,9.99973e-01
1.016514411e+00,9.87025e-01,9.99999e-01,9.95716e-01,9.91288e-01,9.99980e-01
1.021596983e+00,9.88055e-01,9.99999e-01,9.96583e-01,9.91460e-01,9.99981e-01
1.026704968e+00,9.88973e-01,9.99999e-01,9.97333e-01,9.91628e-01,9.99988e-01
1.031838492e+00,9.89870e-01,9.99999e-01,9.98064e-01,9.91792e-01,9.99996e-01
1.036997685e+00,9.90811e-01,9.99999e-01,9.98848e-01,9.91954e-01,9.99998e-01
1.042182673e+00,9.90746e-01,9.99999e-01,9.98623e-01,9.92112e-01,9.99999e-01
1.047393587e+00,9.90459e-01,9.99999e-01,9.98177e-01,9.92267e-01,9.99999e-01
1.052630555e+00,9.89935e-01,9.99999e-01,9.97496e-01,9.92419e-01,9.99998e-01
1.057893707e+00,9.88418e-01,9.99999e-01,9.95819e-01,9.92569e-01,9.99998e-01
1.063183176e+00,9.85896e-01,9.99999e-01,9.93133e-01,9.92715e-01,9.99995e-01
1.068499092e+00,9.81473e-01,9.99999e-01,9.88540e-01,9.92858e-01,9.99991e-01
1.073841587e+00,9.79663e-01,9.99999e-01,9.86586e-01,9.92999e-01,9.99982e-01
1.079210795e+00,9.76088e-01,9.99999e-01,9.82878e-01,9.93137e-01,9.99953e-01
1.084606849e+00,9.67507e-01,9.99999e-01,9.74168e-01,9.93272e-01,9.99888e-01
1.090029883e+00,9.56401e-01,9.99999e-01,9.62971e-01,9.93404e-01,9.99770e-01
1.095480033e+00,8.96253e-01,9.99999e-01,9.02459e-01,9.93534e-01,9.99584e-01
1.100957433e+00,7.65942e-01,9.99999e-01,7.71416e-01,9.93661e-01,9.99236e-01
1.106462220e+00,5.19166e-01,9.99999e-01,5.23088e-01,9.93786e-01,9.98705e-01
1.111994531e+00,2.60047e-01,9.99999e-01,2.62541e-01,9.93908e-01,9.96568e-01
1.117554504e+00,1.17397e-01,9.99999e-01,1.19577e-01,9.94028e-01,9.87667e-01
1.123142276e+00,2.17410e-01,9.99999e-01,2.25221e-01,9.94146e-01,9.71001e-01
1.128757988e+00,3.52683e-01,9.99999e-01,3.67001e-01,9.94261e-01,9.66530e-01
1.134401778e+00,1.68431e-01,9.99999e-01,1.74358e-01,9.94374e-01,9.71468e-01
1.140073787e+00,5.25310e-01,9.99999e-01,5.40582e-01,9.94485e-01,9.77137e-01
1.145774156e+00,2.82715e-01,9.99999e-01,2.90334e-01,9.94594e-01,9.79052e-01
1.151503026e+00,2.50664e-01,9.99999e-01,2.54989e-01,9.94700e-01,9.88275e-01
1.157260541e+00,3.02234e-01,9.99999e-01,3.04885e-01,9.94805e-01,9.96479e-01
1.163046844e+00,4.11352e-01,9.99999e-01,4.13871e-01,9.94907e-01,9.99000e-01
1.168862078e+00,5.33644e-01,9.99999e-01,5.36597e-01,9.95007e-01,9.99484e-01
1.174706389e+00,6.76811e-01,9.99999e-01,6.80603e-01,9.95106e-01,9.99317e-01
1.180579921e+00,7.86049e-01,9.99999e-01,7.90654e-01,9.95202e-01,9.98968e-01
1.186482820e+00,8.70205e-01,9.99999e-01,8.75243e-01,9.95297e-01,9.98940e-01
1.192415234e+00,9.20057e-01,9.99999e-01,9.25051e-01,9.95389e-01,9.99206e-01
1.198377311e+00,9.31453e-01,9.99999e-01,9.36382e-01,9.95480e-01,9.99250e-01
1.204369197e+00,9.35016e-01,9.99999e-01,9.39813e-01,9.95569e-01,9.99321e-01
1.210391043e+00,9.37850e-01,9.99999e-01,9.42329e-01,9.95656e-01,9.99587e-01
1.216442998e+00,9.46514e-01,9.99999e-01,9.50801e-01,9.95742e-01,9.99747e-01
1.222525213e+00,9.57273e-01,9.99999e-01,9.61436e-01,9.95826e-01,9.99842e-01
1.228637839e+00,9.68995e-01,9.99999e-01,9.73046e-01,9.95908e-01,9.99926e-01
1.234781029e+00,9.75986e-01,9.99999e-01,9.79936e-01,9.95989e-01,9.99978e-01
1.240954934e+00,9.83372e-01,9.99999e-01,9.87258e-01,9.96068e-01,9.99993e-01
1.247159708e+00,9.86251e-01,9.99999e-01,9.90070e-01,9.96145e-01,9.99995e-01
1.253395507e+00,9.87421e-01,9.99999e-01,9.91171e-01,9.96221e-01,9.99994e-01
1.259662485e+00,9.87918e-01,9.99999e-01,9.91597e-01,9.96296e-01,9.99991e-01
1.265960797e+00,9.83033e-01,9.99999e-01,9.86628e-01,9.96369e-01,9.99986e-01
1.272290601e+00,9.75517e-01,9.99999e-01,9.79024e-01,9.96440e-01,9.99976e-01
1.278652054e+00,9.55383e-01,9.99999e-01,9.58767e-01,9.96511e-01,9.99958e-01
1.285045314e+00,9.23250e-01,9.99999e-01,9.26488e-01,9.96579e-01,9.99923e-01
1.291470541e+00,8.72428e-01,9.99999e-01,8.75480e-01,9.96647e-01,9.99866e-01
1.297927893e+00,8.24971e-01,9.99999e-01,8.27897e-01,9.96713e-01,9.99750e-01
1.304417533e+00,7.98141e-01,9.99999e-01,8.01143e-01,9.96778e-01,9.99472e-01
1.310939621e+00,7.52444e-01,9.99999e-01,7.55645e-01,9.96841e-01,9.98917e-01
1.317494319e+00,7.55991e-01,9.99999e-01,7.59860e-01,9.96904e-01,9.97998e-01
1.324081790e+00,6.60338e-01,9.99999e-01,6.64518e-01,9.96965e-01,9.96733e-01
1.330702199e+00,2.46541e-01,9.99999e-01,2.48676e-01,9.97024e-01,9.94374e-01
1.337355710e+00,2.15662e-02,9.99999e-01,2.18655e-02,9.97083e-01,9.89195e-01
1.344042489e+00,6.41294e-04,9.99999e-01,6.64523e-04,9.97141e-01,9.67809e-01
1.350762701e+00,6.60414e-09,9.99999e-01,7.40774e-09,9.97197e-01,8.94023e-01
1.357516515e+00,7.59378e-13,9.99999e-01,1.05787e-12,9.97252e-01,7.19813e-01
1.364304097e+00,2.21692e-08,9.99999e-01,3.95506e-08,9.97306e-01,5.62040e-01
1.371125618e+00,9.88541e-06,9.99999e-01,1.70632e-05,9.97360e-01,5.80872e-01
1.377981246e+00,3.40738e-05,9.99999e-01,5.44219e-05,9.97412e-01,6.27728e-01
1.384871152e+00,2.08621e-07,9.99999e-01,3.22777e-07,9.97463e-01,6.47976e-01
1.391795508e+00,2.80281e-08,9.99999e-01,4.24912e-08,9.97513e-01,6.61264e-01
1.398754485e+00,9.59885e-07,9.99999e-01,1.35412e-06,9.97562e-01,7.10595e-01
1.405748258e+00,1.07793e-06,9.99999e-01,1.31938e-06,9.97610e-01,8.18953e-01
1.412776999e+00,1.20963e-06,9.99999e-01,1.32823e-06,9.97657e-01,9.12844e-01
1.419840884e+00,2.66488e-06,9.99999e-01,2.77998e-06,9.97703e-01,9.60804e-01
1.426940089e+00,7.19072e-05,9.99999e-01,7.42922e-05,9.97748e-01,9.70079e-01
1.434074789e+00,5.09720e-04,9.99999e-01,5.29491e-04,9.97793e-01,9.64789e-01
1.441245163e+00,2.11439e-03,9.99999e-01,2.20286e-03,9.97836e-01,9.61917e-01
1.448451389e+00,1.38909e-02,9.99999e-01,1.44018e-02,9.97879e-01,9.66575e-01
1.455693646e+00,5.39815e-02,9.99999e-01,5.55439e-02,9.97921e-01,9.73893e-01
1.462972114e+00,7.45534e-02,9.99999e-01,7.66143e-02,9.97962e-01,9.75086e-01
1.470286975e+00,4.98645e-02,9.99999e-01,5.12188e-02,9.98002e-01,9.75505e-01
