#,Wave/freq,Total,N2,H2O,Rayleigh,CIA
4.000000000e-01,4.59151e-01,9.99999e-01,9.99911e-01,4.59191e-01,9.99999e-01
4.020000000e-01,4.66287e-01,9.99999e-01,9.99945e-01,4.66312e-01,9.99999e-01
4.040100000e-01,4.73381e-01,9.99999e-01,9.99976e-01,4.73392e-01,9.99999e-01
4.060300500e-01,4.80434e-01,9.99999e-01,9.99994e-01,4.80437e-01,9.99999e-01
4.080602003e-01,4.87443e-01,9.99999e-01,9.99997e-01,4.87444e-01,9.99999e-01
4.101005013e-01,4.94412e-01,9.99999e-01,9.99999e-01,4.94412e-01,9.99999e-01
4.121510038e-01,5.01337e-01,9.99999e-01,9.99996e-01,5.01339e-01,9.99999e-01
4.142117588e-01,5.08211e-01,9.99999e-01,9.99975e-01,5.08223e-01,9.99999e-01
4.162828176e-01,5.15007e-01,9.99999e-01,9.99890e-01,5.15063e-01,9.99999e-01
4.183642317e-01,5.21824e-01,9.99999e-01,9.99934e-01,5.21858e-01,9.99999e-01
4.204560528e-01,5.28584e-01,9.99999e-01,9.99959e-01,5.28605e-01,9.99999e-01
4.225583331e-01,5.35295e-01,9.99999e-01,9.99984e-01,5.35303e-01,9.99999e-01
4.246711247e-01,5.41946e-01,9.99999e-01,9.99987e-01,5.41952e-01,9.99999e-01
4.267944804e-01,5.48540e-01,9.99999e-01,9.99982e-01,5.48549e-01,9.99999e-01
4.289284528e-01,5.55087e-01,9.99999e-01,9.99986e-01,5.55094e-01,9.99999e-01
4.310730950e-01,5.61583e-01,9.99999e-01,9.99993e-01,5.61586e-01,9.99999e-01
4.332284605e-01,5.68022e-01,9.99999e-01,9.99998e-01,5.68023e-01,9.99999e-01
4.353946028e-01,5.74404e-01,9.99999e-01,9.99998e-01,5.74404e-01,9.99999e-01
4.375715758e-01,5.80723e-01,9.99999e-01,9.99988e-01,5.80729e-01,9.99999e-01
4.397594337e-01,5.86941e-01,9.99999e-01,9.99903e-01,5.86997e-01,9.99999e-01
4.419582309e-01,5.92917e-01,9.99999e-01,9.99511e-01,5.93206e-01,9.99999e-01
4.441680220e-01,5.99131e-01,9.99999e-01,9.99622e-01,5.99357e-01,9.99999e-01
4.463888621e-01,6.05210e-01,9.99999e-01,9.99605e-01,6.05448e-01,9.99999e-01
4.486208064e-01,6.11329e-01,9.99999e-01,9.99755e-01,6.11479e-01,9.99999e-01
4.508639105e-01,6.17378e-01,9.99999e-01,9.99885e-01,6.17449e-01,9.99999e-01
4.531182300e-01,6.23329e-01,9.99999e-01,9.99954e-01,6.23357e-01,9.99999e-01
4.553838212e-01,6.29185e-01,9.99999e-01,9.99968e-01,6.29204e-01,9.99999e-01
4.576607403e-01,6.34979e-01,9.99999e-01,9.99985e-01,6.34988e-01,9.99999e-01
4.599490440e-01,6.40704e-01,9.99999e-01,9.99989e-01,6.40710e-01,9.99999e-01
4.622487892e-01,6.46368e-01,9.99999e-01,9.99997e-01,6.46369e-01,9.99999e-01
4.645600332e-01,6.51960e-01,9.99999e-01,9.99992e-01,6.51965e-01,9.99999e-01
4.668828333e-01,6.57420e-01,9.99999e-01,9.99883e-01,6.57497e-01,9.99999e-01
4.692172475e-01,6.62801e-01,9.99999e-01,9.99752e-01,6.62965e-01,9.99999e-01
4.715633337e-01,6.68262e-01,9.99999e-01,9.99838e-01,6.68369e-01,9.99999e-01
4.739211504e-01,6.73606e-01,9.99999e-01,9.99845e-01,6.73710e-01,9.99999e-01
4.762907561e-01,6.78932e-01,9.99999e-01,9.99919e-01,6.78986e-01,9.99999e-01
4.786722099e-01,6.84176e-01,9.99999e-01,9.99966e-01,6.84199e-01,9.99999e-01
4.810655710e-01,6.89340e-01,9.99999e-01,9.99989e-01,6.89347e-01,9.99999e-01
4.834708988e-01,6.94364e-01,9.99999e-01,9.99904e-01,6.94431e-01,9.99999e-01
4.858882533e-01,6.99329e-01,9.99999e-01,9.99824e-01,6.99451e-01,9.99999e-01
4.883176946e-01,7.04304e-01,9.99999e-01,9.99853e-01,7.04407e-01,9.99999e-01
4.907592831e-01,7.09205e-01,9.99999e-01,9.99867e-01,7.09299e-01,9.99999e-01
4.932130795e-01,7.14061e-01,9.99999e-01,9.99905e-01,7.14128e-01,9.99999e-01
4.956791449e-01,7.18857e-01,9.99999e-01,9.99949e-01,7.18893e-01,9.99999e-01
4.981575406e-01,7.23415e-01,9.99999e-01,9.99750e-01,7.23595e-01,9.99999e-01
5.006483283e-01,7.27760e-01,9.99999e-01,9.99353e-01,7.28234e-01,9.99995e-01
5.031515699e-01,7.30394e-01,9.99999e-01,9.96737e-01,7.32810e-01,9.99965e-01
5.056673278e-01,7.36026e-01,9.99999e-01,9.98279e-01,7.37323e-01,9.99960e-01
5.081956644e-01,7.40148e-01,9.99999e-01,9.97830e-01,7.41775e-01,9.99975e-01
5.107366428e-01,7.45068e-01,9.99999e-01,9.98534e-01,7.46164e-01,9.99995e-01
5.132903260e-01,7.49864e-01,9.99999e-01,9.99163e-01,7.50492e-01,9.99998e-01
5.158567776e-01,7.54493e-01,9.99999e-01,9.99646e-01,7.54759e-01,9.99999e-01
5.184360615e-01,7.58858e-01,9.99999e-01,9.99858e-01,7.58966e-01,9.99999e-01
5.210282418e-01,7.63071e-01,9.99999e-01,9.99946e-01,7.63112e-01,9.99999e-01
5.236333830e-01,7.67033e-01,9.99999e-01,9.99786e-01,7.67197e-01,9.99997e-01
5.262515499e-01,7.71120e-01,9.99999e-01,9.99866e-01,7.71224e-01,9.99997e-01
5.288828077e-01,7.75096e-01,9.99999e-01,9.99877e-01,7.75191e-01,9.99998e-01
5.315272217e-01,7.79017e-01,9.99999e-01,9.99892e-01,7.79100e-01,9.99999e-01
5.341848578e-01,7.82896e-01,9.99999e-01,9.99929e-01,7.82951e-01,9.99999e-01
5.368557821e-01,7.86549e-01,9.99999e-01,9.99751e-01,7.86744e-01,9.99998e-01
5.395400610e-01,7.89765e-01,9.99999e-01,9.99101e-01,7.90481e-01,9.99992e-01
5.422377613e-01,7.93228e-01,9.99999e-01,9.98846e-01,7.94160e-01,9.99978e-01
5.449489501e-01,7.96908e-01,9.99999e-01,9.98923e-01,7.97784e-01,9.99977e-01
5.476736949e-01,8.00582e-01,9.99999e-01,9.99049e-01,8.01352e-01,9.99988e-01
5.504120634e-01,8.04308e-01,9.99999e-01,9.99310e-01,8.04865e-01,9.99996e-01
5.531641237e-01,8.08043e-01,9.99999e-01,9.99652e-01,8.08323e-01,9.99999e-01
5.559299443e-01,8.11592e-01,9.99999e-01,9.99832e-01,8.11728e-01,9.99999e-01
5.587095940e-01,8.14994e-01,9.99999e-01,9.99894e-01,8.15079e-01,9.99999e-01
5.615031420e-01,8.18282e-01,9.99999e-01,9.99882e-01,8.18378e-01,9.99999e-01
5.643106577e-01,8.21514e-01,9.99999e-01,9.99866e-01,8.21624e-01,9.99998e-01
5.671322110e-01,8.23467e-01,9.99999e-01,9.98374e-01,8.24819e-01,9.99985e-01
5.699678720e-01,8.26512e-01,9.99999e-01,9.98290e-01,8.27963e-01,9.99955e-01
5.728177114e-01,8.29540e-01,9.99999e-01,9.98211e-01,8.31056e-01,9.99962e-01
5.756818000e-01,8.32714e-01,9.99999e-01,9.98360e-01,8.34099e-01,9.99978e-01
5.785602090e-01,8.35893e-01,9.99999e-01,9.98571e-01,8.37093e-01,9.99993e-01
5.814530100e-01,8.38830e-01,9.99999e-01,9.98564e-01,8.40039e-01,9.99996e-01
5.843602750e-01,8.41481e-01,9.99999e-01,9.98283e-01,8.42936e-01,9.99989e-01
5.872820764e-01,8.33288e-01,9.99999e-01,9.85324e-01,8.45786e-01,9.99895e-01
5.902184868e-01,8.33315e-01,9.99999e-01,9.82278e-01,8.48588e-01,9.99717e-01
5.931695792e-01,8.40432e-01,9.99999e-01,9.87449e-01,8.51345e-01,9.99728e-01
5.961354271e-01,8.42182e-01,9.99999e-01,9.86251e-01,8.54055e-01,9.99843e-01
5.991161043e-01,8.48076e-01,9.99999e-01,9.89956e-01,8.56721e-01,9.99951e-01
6.021116848e-01,8.54433e-01,9.99999e-01,9.94292e-01,8.59342e-01,9.99994e-01
6.051222432e-01,8.59427e-01,9.99999e-01,9.97108e-01,8.61919e-01,9.99999e-01
6.081478544e-01,8.63373e-01,9.99999e-01,9.98751e-01,8.64452e-01,9.99999e-01
6.111885937e-01,8.66486e-01,9.99999e-01,9.99472e-01,8.66943e-01,9.99999e-01
6.142445367e-01,8.69187e-01,9.99999e-01,9.99763e-01,8.69391e-01,9.99999e-01
6.173157594e-01,8.71685e-01,9.99999e-01,9.99869e-01,8.71798e-01,9.99999e-01
6.204023382e-01,8.74068e-01,9.99999e-01,9.99889e-01,8.74164e-01,9.99999e-01
6.235043498e-01,8.76060e-01,9.99999e-01,9.99510e-01,8.76489e-01,9.99998e-01
6.266218716e-01,8.76501e-01,9.99999e-01,9.97429e-01,8.78775e-01,9.99981e-01
6.297549810e-01,8.80158e-01,9.99999e-01,9.99056e-01,8.81021e-01,9.99963e-01
6.329037559e-01,8.81559e-01,9.99999e-01,9.98138e-01,8.83228e-01,9.99970e-01
6.360682746e-01,8.83976e-01,9.99999e-01,9.98411e-01,8.85397e-01,9.99982e-01
6.392486160e-01,8.85697e-01,9.99999e-01,9.97943e-01,8.87528e-01,9.99991e-01
6.424448591e-01,8.87155e-01,9.99999e-01,9.97239e-01,8.89622e-01,9.99985e-01
6.456570834e-01,8.80246e-01,9.99999e-01,9.87253e-01,8.91680e-01,9.99922e-01
6.488853688e-01,8.85213e-01,9.99999e-01,9.90698e-01,8.93701e-01,9.99801e-01
6.521297956e-01,8.87055e-01,9.99999e-01,9.90524e-01,8.95687e-01,9.99836e-01
6.553904446e-01,8.89036e-01,9.99999e-01,9.90536e-01,8.97638e-01,9.99877e-01
6.586673968e-01,8.92241e-01,9.99999e-01,9.91908e-01,8.99555e-01,9.99958e-01
6.619607338e-01,8.97358e-01,9.99999e-01,9.95482e-01,9.01438e-01,9.99990e-01
6.652705375e-01,9.00833e-01,9.99999e-01,9.97286e-01,9.03287e-01,9.99995e-01
6.685968902e-01,9.04059e-01,9.99999e-01,9.98846e-01,9.05104e-01,9.99998e-01
6.719398746e-01,9.06359e-01,9.99999e-01,9.99415e-01,9.06888e-01,9.99999e-01
6.752995740e-01,9.08353e-01,9.99999e-01,9.99682e-01,9.08641e-01,9.99999e-01
6.786760719e-01,9.09944e-01,9.99999e-01,9.99540e-01,9.10362e-01,9.99998e-01
6.820694522e-01,9.11333e-01,9.99999e-01,9.99215e-01,9.12052e-01,9.99995e-01
6.854797995e-01,9.12779e-01,9.99999e-01,9.98987e-01,9.13712e-01,9.99990e-01
6.889071985e-01,9.13068e-01,9.99999e-01,9.97536e-01,9.15342e-01,9.99977e-01
6.923517345e-01,8.80769e-01,9.99999e-01,9.60732e-01,9.16943e-01,9.99808e-01
6.958134932e-01,8.99380e-01,9.99999e-01,9.79582e-01,9.18515e-01,9.99575e-01
6.992925606e-01,9.01665e-01,9.99999e-01,9.80383e-01,9.20058e-01,9.99617e-01
7.027890234e-01,8.99110e-01,9.99999e-01,9.75908e-01,9.21574e-01,9.99707e-01
7.063029686e-01,9.04179e-01,9.99999e-01,9.79684e-01,9.23061e-01,9.99854e-01
7.098344834e-01,9.06413e-01,9.99999e-01,9.80495e-01,9.24522e-01,9.99913e-01
7.133836558e-01,9.01751e-01,9.99999e-01,9.74024e-01,9.25956e-01,9.99828e-01
7.169505741e-01,7.52441e-01,9.99999e-01,8.12465e-01,9.27365e-01,9.98657e-01
7.205353270e-01,8.37134e-01,9.99999e-01,9.03496e-01,9.28747e-01,9.97632e-01
7.241380036e-01,8.15002e-01,9.99999e-01,8.78043e-01,9.30104e-01,9.97954e-01
7.277586936e-01,8.26993e-01,9.99999e-01,8.89355e-01,9.31436e-01,9.98327e-01
7.313974871e-01,8.22552e-01,9.99999e-01,8.82554e-01,9.32744e-01,9.99216e-01
7.350544745e-01,8.71981e-01,9.99999e-01,9.33824e-01,9.34027e-01,9.99727e-01
7.387297469e-01,8.89135e-01,9.99999e-01,9.50772e-01,9.35287e-01,9.99874e-01
7.424233956e-01,9.13656e-01,9.99999e-01,9.75602e-01,9.36524e-01,9.99977e-01
7.461355126e-01,9.23792e-01,9.99999e-01,9.85131e-01,9.37738e-01,9.99995e-01
7.498661902e-01,9.32411e-01,9.99999e-01,9.93058e-01,9.38929e-01,9.99998e-01
7.536155211e-01,9.36888e-01,9.99999e-01,9.96585e-01,9.40099e-01,9.99998e-01
7.573835987e-01,9.39591e-01,9.99999e-01,9.98241e-01,9.41247e-01,9.99999e-01
7.611705167e-01,9.41343e-01,9.99999e-01,9.98906e-01,9.42373e-01,9.99999e-01
7.649763693e-01,9.42832e-01,9.99999e-01,9.99314e-01,9.43478e-01,9.99999e-01
7.688012511e-01,9.44112e-01,9.99999e-01,9.99522e-01,9.44563e-01,9.99999e-01
7.726452574e-01,9.45256e-01,9.99999e-01,9.99606e-01,9.45628e-01,9.99999e-01
7.765084837e-01,9.46142e-01,9.99999e-01,9.99439e-01,9.46673e-01,9.99998e-01
7.803910261e-01,9.45401e-01,9.99999e-01,9.97578e-01,9.47698e-01,9.99997e-01
7.842929812e-01,9.40693e-01,9.99999e-01,9.91570e-01,9.48704e-01,9.99984e-01
7.882144461e-01,9.33210e-01,9.99999e-01,9.82761e-01,9.49691e-01,9.99880e-01
7.921555184e-01,9.41468e-01,9.99999e-01,9.90535e-01,9.50660e-01,9.99792e-01
7.961162960e-01,9.35495e-01,9.99999e-01,9.83257e-01,9.51611e-01,9.99802e-01
8.000968774e-01,9.33972e-01,9.99999e-01,9.80708e-01,9.52544e-01,9.99790e-01
8.040973618e-01,9.34908e-01,9.99999e-01,9.80699e-01,9.53459e-01,9.99839e-01
8.081178486e-01,9.13205e-01,9.99999e-01,9.57034e-01,9.54357e-01,9.99837e-01
8.121584379e-01,7.96321e-01,9.99999e-01,8.34147e-01,9.55238e-01,9.99386e-01
8.162192301e-01,7.70318e-01,9.99999e-01,8.07545e-01,9.56102e-01,9.97696e-01
8.203003262e-01,8.59494e-01,9.99999e-01,9.00587e-01,9.56950e-01,9.97302e-01
8.244018279e-01,8.28202e-01,9.99999e-01,8.66567e-01,9.57782e-01,9.97852e-01
8.285238370e-01,8.41374e-01,9.99999e-01,8.79194e-01,9.58599e-01,9.98313e-01
8.326664562e-01,8.42163e-01,9.99999e-01,8.78414e-01,9.59400e-01,9.99301e-01
8.368297885e-01,8.74640e-01,9.99999e-01,9.11052e-01,9.60186e-01,9.99840e-01
8.410139374e-01,9.09058e-01,9.99999e-01,9.46081e-01,9.60956e-01,9.99906e-01
8.452190071e-01,9.35858e-01,9.99999e-01,9.73170e-01,9.61713e-01,9.99943e-01
8.494451021e-01,9.47316e-01,9.99999e-01,9.84314e-01,9.62454e-01,9.99954e-01
8.536923276e-01,9.54208e-01,9.99999e-01,9.90709e-01,9.63182e-01,9.99972e-01
8.579607893e-01,9.58359e-01,9.99999e-01,9.94261e-01,9.63896e-01,9.99992e-01
8.622505932e-01,9.61080e-01,9.99999e-01,9.96354e-01,9.64597e-01,9.99998e-01
8.665618462e-01,9.63102e-01,9.99999e-01,9.97740e-01,9.65284e-01,9.99998e-01
8.708946554e-01,9.63456e-01,9.99999e-01,9.97410e-01,9.65957e-01,9.99998e-01
8.752491287e-01,9.63270e-01,9.99999e-01,9.96538e-01,9.66618e-01,9.99995e-01
8.796253743e-01,9.62617e-01,9.99999e-01,9.95203e-01,9.67267e-01,9.99988e-01
8.840235012e-01,9.62572e-01,9.99999e-01,9.94524e-01,9.67903e-01,9.99966e-01
8.884436187e-01,9.49199e-01,9.99999e-01,9.80136e-01,9.68527e-01,9.99904e-01
8.928858368e-01,7.87077e-01,9.99999e-01,8.12584e-01,9.69139e-01,9.99452e-01
8.973502660e-01,6.72354e-01,9.99999e-01,6.95282e-01,9.69739e-01,9.97198e-01
9.018370173e-01,8.02985e-01,9.99999e-01,8.31198e-01,9.70328e-01,9.95598e-01
9.063462024e-01,8.20330e-01,9.99999e-01,8.48192e-01,9.70905e-01,9.96132e-01
9.108779334e-01,7.49121e-01,9.99999e-01,7.74230e-01,9.71472e-01,9.95981e-01
9.154323231e-01,7.23564e-01,9.99999e-01,7.46867e-01,9.72027e-01,9.96677e-01
9.200094847e-01,7.73373e-01,9.99999e-01,7.96665e-01,9.72572e-01,9.98138e-01
9.246095321e-01,6.89510e-01,9.99999e-01,7.10087e-01,9.73106e-01,9.97855e-01
9.292325798e-01,1.21564e-01,9.99999e-01,1.25906e-01,9.73631e-01,9.91664e-01
9.338787427e-01,6.29226e-02,9.99999e-01,6.68667e-02,9.74145e-01,9.65989e-01
9.385481364e-01,3.10009e-01,9.99999e-01,3.31435e-01,9.74649e-01,9.59681e-01
9.432408771e-01,2.16385e-01,9.99999e-01,2.29920e-01,9.75143e-01,9.65118e-01
9.479570815e-01,1.21319e-01,9.99999e-01,1.27995e-01,9.75628e-01,9.71517e-01
9.526968669e-01,1.93682e-01,9.99999e-01,2.01952e-01,9.76104e-01,9.82529e-01
9.574603512e-01,2.09336e-01,9.99999e-01,2.16285e-01,9.76570e-01,9.91087e-01
9.622476530e-01,2.71979e-01,9.99999e-01,2.80102e-01,9.77028e-01,9.93828e-01
9.670588912e-01,4.62505e-01,9.99999e-01,4.75170e-01,9.77476e-01,9.95775e-01
9.718941857e-01,6.01444e-01,9.99999e-01,6.16945e-01,9.77916e-01,9.96888e-01
9.767536566e-01,6.53003e-01,9.99999e-01,6.69046e-01,9.78348e-01,9.97620e-01
9.816374249e-01,7.24702e-01,9.99999e-01,7.41031e-01,9.78771e-01,9.99175e-01
9.865456120e-01,8.11179e-01,9.99999e-01,8.28564e-01,9.79186e-01,9.99827e-01
9.914783401e-01,8.71696e-01,9.99999e-01,8.89897e-01,9.79592e-01,9.99951e-01
9.964357318e-01,9.19638e-01,9.99999e-01,9.38439e-01,9.79992e-01,9.99971e-01
1.001417910e+00,9.43688e-01,9.99999e-01,9.62611e-01,9.80383e-01,9.99957e-01
1.006425000e+00,9.59609e-01,9.99999e-01,9.78486e-01,9.80767e-01,9.99938e-01
1.011457125e+00,9.67950e-01,9.99999e-01,9.86608e-01,9.81143e-01,9.99943e-01
1.016514411e+00,9.72526e-01,9.99999e-01,9.90883e-01,9.81512e-01,9.99959e-01
1.021596983e+00,9.74695e-01,9.99999e-01,9.92726e-01,9.81874e-01,9.99960e-01
1.026704968e+00,9.76629e-01,9.99999e-01,9.94322e-01,9.82228e-01,9.99975e-01
1.031838492e+00,9.78516e-01,9.99999e-01,9.95874e-01,9.82576e-01,9.99992e-01
1.036997685e+00,9.80504e-01,9.99999e-01,9.97545e-01,9.82918e-01,9.99998e-01
1.042182673e+00,9.80371e-01,9.99999e-01,9.97069e-01,9.83252e-01,9.99998e-01
1.047393587e+00,9.79762e-01,9.99999e-01,9.96118e-01,9.83580e-01,9.99998e-01
1.052630555e+00,9.78661e-01,9.99999e-01,9.94674e-01,9.83902e-01,9.99998e-01
1.057893707e+00,9.75475e-01,9.99999e-01,9.91119e-01,9.84217e-01,9.99996e-01
1.063183176e+00,9.70184e-01,9.99999e-01,9.85438e-01,9.84527e-01,9.99991e-01
1.068499092e+00,9.60938e-01,9.99999e-01,9.75755e-01,9.84830e-01,9.99983e-01
1.073841587e+00,9.57217e-01,9.99999e-01,9.71703e-01,9.85127e-01,9.99963e-01
1.079210795e+00,9.49749e-01,9.99999e-01,9.63896e-01,9.85419e-01,9.99901e-01
1.084606849e+00,9.32143e-01,9.99999e-01,9.45884e-01,9.85705e-01,9.99763e-01
1.090029883e+00,9.09847e-01,9.99999e-01,9.23229e-01,9.85985e-01,9.99510e-01
1.095480033e+00,7.93048e-01,9.99999e-01,8.04806e-01,9.86260e-01,9.99115e-01
1.100957433e+00,5.72023e-01,9.99999e-01,5.80777e-01,9.86530e-01,9.98373e-01
1.106462220e+00,2.64741e-01,9.99999e-01,2.69025e-01,9.86794e-01,9.97243e-01
1.111994531e+00,6.76444e-02,9.99999e-01,6.90356e-02,9.87053e-01,9.92698e-01
1.117554504e+00,1.53724e-02,9.99999e-01,1.59875e-02,9.87307e-01,9.73890e-01
1.123142276e+00,5.67409e-02,9.99999e-01,6.11759e-02,9.87556e-01,9.39189e-01
1.128757988e+00,1.25378e-01,9.99999e-01,1.36481e-01,9.87801e-01,9.29993e-01
1.134401778e+00,5.74326e-02,9.99999e-01,6.18280e-02,9.88040e-01,9.40152e-01
1.140073787e+00,2.67946e-01,9.99999e-01,2.84828e-01,9.88275e-01,9.51887e-01
1.145774156e+00,8.60436e-02,9.99999e-01,9.10627e-02,9.88505e-01,9.55869e-01
1.151503026e+00,6.75374e-02,9.99999e-01,7.00463e-02,9.88731e-01,9.75169e-01
1.157260541e+00,8.74938e-02,9.99999e-01,8.91388e-02,9.88952e-01,9.92510e-01
1.163046844e+00,1.62367e-01,9.99999e-01,1.64495e-01,9.89169e-01,9.97871e-01
1.168862078e+00,2.69018e-01,9.99999e-01,2.72204e-01,9.89382e-01,9.98902e-01
1.174706389e+00,4.40767e-01,9.99999e-01,4.46052e-01,9.89591e-01,9.98545e-01
1.180579921e+00,6.01684e-01,9.99999e-01,6.09226e-01,9.89795e-01,9.97801e-01
1.186482820e+00,7.44282e-01,9.99999e-01,7.53502e-01,9.89996e-01,9.97743e-01
1.192415234e+00,8.37418e-01,9.99999e-01,8.47143e-01,9.90192e-01,9.98309e-01
1.198377311e+00,8.59782e-01,9.99999e-01,8.69516e-01,9.90385e-01,9.98403e-01
1.204369197e+00,8.67096e-01,9.99999e-01,8.76612e-01,9.90574e-01,9.98555e-01
1.210391043e+00,8.72469e-01,9.99999e-01,8.81380e-01,9.90759e-01,9.99120e-01
1.216442998e+00,8.89627e-01,9.99999e-01,8.98242e-01,9.90941e-01,9.99461e-01
1.222525213e+00,9.11165e-01,9.99999e-01,9.19636e-01,9.91119e-01,9.99665e-01
1.228637839e+00,9.35081e-01,9.99999e-01,9.43440e-01,9.91294e-01,9.99844e-01
1.234781029e+00,9.49502e-01,9.99999e-01,9.57718e-01,9.91465e-01,9.99955e-01
1.240954934e+00,9.64887e-01,9.99999e-01,9.73039e-01,9.91633e-01,9.99987e-01
1.247159708e+00,9.70907e-01,9.99999e-01,9.78943e-01,9.91797e-01,9.99991e-01
1.253395507e+00,9.73373e-01,9.99999e-01,9.81273e-01,9.91959e-01,9.99989e-01
1.259662485e+00,9.74428e-01,9.99999e-01,9.82186e-01,9.92117e-01,9.99982e-01
1.265960797e+00,9.64186e-01,9.99999e-01,9.71722e-01,9.92272e-01,9.99971e-01
1.272290601e+00,9.48620e-01,9.99999e-01,9.55908e-01,9.92424e-01,9.99950e-01
1.278652054e+00,9.07638e-01,9.99999e-01,9.14507e-01,9.92573e-01,9.99912e-01
1.285045314e+00,8.44551e-01,9.99999e-01,8.50882e-01,9.92719e-01,9.99837e-01
1.291470541e+00,7.49530e-01,9.99999e-01,7.55132e-01,9.92863e-01,9.99715e-01
1.297927893e+00,6.67073e-01,9.99999e-01,6.72129e-01,9.93003e-01,9.99468e-01
1.304417533e+00,6.23463e-01,9.99999e-01,6.28475e-01,9.93141e-01,9.98875e-01
1.310939621e+00,5.81865e-01,9.99999e-01,5.87158e-01,9.93276e-01,9.97693e-01
1.317494319e+00,5.57244e-01,9.99999e-01,5.63342e-01,9.93408e-01,9.95737e-01
1.324081790e+00,4.25123e-01,9.99999e-01,4.30882e-01,9.93538e-01,9.93049e-01
1.330702199e+00,9.45664e-02,9.99999e-01,9.63206e-02,9.93665e-01,9.88046e-01
1.337355710e+00,6.74557e-04,9.99999e-01,6.94675e-04,9.93790e-01,9.77106e-01
1.344042489e+00,7.49100e-06,9.99999e-01,8.08139e-06,9.93912e-01,9.32620e-01
1.350762701e+00,7.53740e-17,9.99999e-01,9.62815e-17,9.94032e-01,7.87549e-01
1.357516515e+00,3.73389e-25,9.99999e-01,7.57028e-25,9.94150e-01,4.96132e-01
1.364304097e+00,7.58905e-16,9.99999e-01,2.60720e-15,9.94265e-01,2.92759e-01
1.371125618e+00,4.99161e-10,9.99999e-01,1.59831e-09,9.94378e-01,3.14070e-01
1.377981246e+00,1.83721e-09,9.99999e-01,4.98544e-09,9.94488e-01,3.70556e-01
1.384871152e+00,2.96597e-13,9.99999e-01,7.52090e-13,9.94597e-01,3.96505e-01
1.391795508e+00,7.02003e-16,9.99999e-01,1.70451e-15,9.94703e-01,4.14042e-01
1.398754485e+00,2.19285e-12,9.99999e-01,4.56674e-12,9.94808e-01,4.82684e-01
1.405748258e+00,3.25862e-12,9.99999e-01,5.01392e-12,9.94910e-01,6.53237e-01
1.412776999e+00,6.84895e-12,9.99999e-01,8.36044e-12,9.95010e-01,8.23316e-01
1.419840884e+00,1.27557e-11,9.99998e-01,1.39591e-11,9.95109e-01,9.18287e-01
1.426940089e+00,4.35100e-08,9.99998e-01,4.66446e-08,9.95205e-01,9.37289e-01
1.434074789e+00,5.11537e-07,9.99998e-01,5.54769e-07,9.95299e-01,9.26425e-01
1.441245163e+00,6.81320e-06,9.99999e-01,7.43542e-06,9.95392e-01,9.20556e-01
1.448451389e+00,3.13768e-04,9.99998e-01,3.38884e-04,9.95483e-01,9.30085e-01
1.455693646e+00,4.08023e-03,9.99999e-01,4.33615e-03,9.95572e-01,9.45164e-01
1.462972114e+00,6.02168e-03,9.99999e-01,6.38213e-03,9.95659e-01,9.47634e-01
1.470286975e+00,2.87583e-03,9.99999e-01,3.04492e-03,9.95745e-01,9.48502e-01
