#,Wave/freq,Total,N2,H2O,Rayleigh,CIA
4.000000000e-01,8.00000e-01,9.99999e-01,9.99974e-01,8.00020e-01,9.99999e-01
4.020000000e-01,8.03545e-01,9.99999e-01,9.99983e-01,8.03558e-01,9.99999e-01
4.040100000e-01,8.07031e-01,9.99999e-01,9.99992e-01,8.07037e-01,9.99999e-01
4.060300500e-01,8.10460e-01,9.99999e-01,9.99997e-01,8.10461e-01,9.99999e-01
4.080602003e-01,8.13832e-01,9.99999e-01,9.99999e-01,8.13832e-01,9.99999e-01
4.101005013e-01,8.17151e-01,9.99999e-01,9.99999e-01,8.17151e-01,9.99999e-01
4.121510038e-01,8.20416e-01,9.99999e-01,9.99998e-01,8.20417e-01,9.99999e-01
4.142117588e-01,8.23625e-01,9.99999e-01,9.99992e-01,8.23631e-01,9.99999e-01
4.162828176e-01,8.26767e-01,9.99999e-01,9.99968e-01,8.26793e-01,9.99999e-01
4.183642317e-01,8.29890e-01,9.99999e-01,9.99980e-01,8.29905e-01,9.99999e-01
4.204560528e-01,8.32958e-01,9.99999e-01,9.99988e-01,8.32967e-01,9.99999e-01
4.225583331e-01,8.35976e-01,9.99999e-01,9.99995e-01,8.35980e-01,9.99999e-01
4.246711247e-01,8.38940e-01,9.99999e-01,9.99996e-01,8.38943e-01,9.99999e-01
4.267944804e-01,8.41854e-01,9.99999e-01,9.99994e-01,8.41858e-01,9.99999e-01
4.289284528e-01,8.44722e-01,9.99999e-01,9.99995e-01,8.44726e-01,9.99999e-01
4.310730950e-01,8.47545e-01,9.99999e-01,9.99997e-01,8.47546e-01,9.99999e-01
4.332284605e-01,8.50319e-01,9.99999e-01,9.99999e-01,8.50320e-01,9.99999e-01
4.353946028e-01,8.53047e-01,9.99999e-01,9.99999e-01,8.53047e-01,9.99999e-01
4.375715758e-01,8.55727e-01,9.99999e-01,9.99996e-01,8.55730e-01,9.99999e-01
4.397594337e-01,8.58344e-01,9.99999e-01,9.99972e-01,8.58367e-01,9.99999e-01
4.419582309e-01,8.60841e-01,9.99999e-01,9.99861e-01,8.60960e-01,9.99999e-01
4.441680220e-01,8.63416e-01,9.99999e-01,9.99890e-01,8.63510e-01,9.99999e-01
4.463888621e-01,8.65919e-01,9.99999e-01,9.99886e-01,8.66017e-01,9.99999e-01
4.486208064e-01,8.68420e-01,9.99999e-01,9.99929e-01,8.68481e-01,9.99999e-01
4.508639105e-01,8.70875e-01,9.99999e-01,9.99966e-01,8.70903e-01,9.99999e-01
4.531182300e-01,8.73273e-01,9.99999e-01,9.99986e-01,8.73284e-01,9.99999e-01
4.553838212e-01,8.75617e-01,9.99999e-01,9.99990e-01,8.75625e-01,9.99999e-01
4.576607403e-01,8.77921e-01,9.99999e-01,9.99995e-01,8.77925e-01,9.99999e-01
4.599490440e-01,8.80183e-01,9.99999e-01,9.99996e-01,8.80185e-01,9.99999e-01
4.622487892e-01,8.82407e-01,9.99999e-01,9.99999e-01,8.82407e-01,9.99999e-01
4.645600332e-01,8.84588e-01,9.99999e-01,9.99997e-01,8.84590e-01,9.99999e-01
4.668828333e-01,8.86706e-01,9.99999e-01,9.99966e-01,8.86735e-01,9.99999e-01
4.692172475e-01,8.88780e-01,9.99999e-01,9.99928e-01,8.88843e-01,9.99999e-01
4.715633337e-01,8.90873e-01,9.99999e-01,9.99953e-01,8.90915e-01,9.99999e-01
4.739211504e-01,8.92910e-01,9.99999e-01,9.99955e-01,8.92950e-01,9.99999e-01
4.762907561e-01,8.94928e-01,9.99999e-01,9.99976e-01,8.94949e-01,9.99999e-01
4.786722099e-01,8.96905e-01,9.99999e-01,9.99990e-01,8.96913e-01,9.99999e-01
4.810655710e-01,8.98840e-01,9.99999e-01,9.99996e-01,8.98842e-01,9.99999e-01
4.834708988e-01,9.00714e-01,9.99999e-01,9.99972e-01,9.00738e-01,9.99999e-01
4.858882533e-01,9.02555e-01,9.99999e-01,9.99949e-01,9.02600e-01,9.99999e-01
4.883176946e-01,9.04391e-01,9.99999e-01,9.99957e-01,9.04429e-01,9.99999e-01
4.907592831e-01,9.06191e-01,9.99999e-01,9.99961e-01,9.06225e-01,9.99999e-01
4.932130795e-01,9.07965e-01,9.99999e-01,9.99972e-01,9.07989e-01,9.99999e-01
4.956791449e-01,9.09709e-01,9.99999e-01,9.99985e-01,9.09722e-01,9.99999e-01
4.981575406e-01,9.11359e-01,9.99999e-01,9.99928e-01,9.11424e-01,9.99999e-01
5.006483283e-01,9.12926e-01,9.99999e-01,9.99815e-01,9.13095e-01,9.99998e-01
5.031515699e-01,9.13872e-01,9.99999e-01,9.99064e-01,9.14736e-01,9.99989e-01
5.056673278e-01,9.15885e-01,9.99999e-01,9.99505e-01,9.16348e-01,9.99988e-01
5.081956644e-01,9.17352e-01,9.99999e-01,9.99376e-01,9.17930e-01,9.99992e-01
5.107366428e-01,9.19096e-01,9.99999e-01,9.99578e-01,9.19484e-01,9.99998e-01
5.132903260e-01,9.20788e-01,9.99999e-01,9.99758e-01,9.21010e-01,9.99999e-01
5.158567776e-01,9.22414e-01,9.99999e-01,9.99897e-01,9.22508e-01,9.99999e-01
5.184360615e-01,9.23942e-01,9.99999e-01,9.99958e-01,9.23979e-01,9.99999e-01
5.210282418e-01,9.25409e-01,9.99999e-01,9.99984e-01,9.25423e-01,9.99999e-01
5.236333830e-01,9.26784e-01,9.99999e-01,9.99938e-01,9.26841e-01,9.99999e-01
5.262515499e-01,9.28197e-01,9.99999e-01,9.99961e-01,9.28233e-01,9.99998e-01
5.288828077e-01,9.29567e-01,9.99999e-01,9.99964e-01,9.29599e-01,9.99999e-01
5.315272217e-01,9.30912e-01,9.99999e-01,9.99968e-01,9.30941e-01,9.99999e-01
5.341848578e-01,9.32239e-01,9.99999e-01,9.99979e-01,9.32258e-01,9.99999e-01
5.368557821e-01,9.33484e-01,9.99999e-01,9.99928e-01,9.33550e-01,9.99999e-01
5.395400610e-01,9.34578e-01,9.99999e-01,9.99744e-01,9.34819e-01,9.99997e-01
5.422377613e-01,9.35748e-01,9.99999e-01,9.99668e-01,9.36064e-01,9.99993e-01
5.449489501e-01,9.36993e-01,9.99999e-01,9.99692e-01,9.37287e-01,9.99993e-01
5.476736949e-01,9.38227e-01,9.99999e-01,9.99726e-01,9.38487e-01,9.99996e-01
5.504120634e-01,9.39477e-01,9.99999e-01,9.99801e-01,9.39664e-01,9.99998e-01
5.531641237e-01,9.40726e-01,9.99999e-01,9.99899e-01,9.40820e-01,9.99999e-01
5.559299443e-01,9.41909e-01,9.99999e-01,9.99951e-01,9.41954e-01,9.99999e-01
5.587095940e-01,9.43039e-01,9.99999e-01,9.99969e-01,9.43068e-01,9.99999e-01
5.615031420e-01,9.44128e-01,9.99999e-01,9.99965e-01,9.44160e-01,9.99999e-01
5.643106577e-01,9.45196e-01,9.99999e-01,9.99961e-01,9.45232e-01,9.99999e-01
5.671322110e-01,9.45846e-01,9.99999e-01,9.99539e-01,9.46284e-01,9.99995e-01
5.699678720e-01,9.46837e-01,9.99999e-01,9.99505e-01,9.47317e-01,9.99986e-01
5.728177114e-01,9.47835e-01,9.99999e-01,9.99487e-01,9.48330e-01,9.99989e-01
5.756818000e-01,9.48872e-01,9.99999e-01,9.99529e-01,9.49324e-01,9.99993e-01
5.785602090e-01,9.49908e-01,9.99999e-01,9.99589e-01,9.50300e-01,9.99997e-01
5.814530100e-01,9.50865e-01,9.99999e-01,9.99587e-01,9.51257e-01,9.99998e-01
5.843602750e-01,9.51728e-01,9.99999e-01,9.99510e-01,9.52197e-01,9.99996e-01
5.872820764e-01,9.49072e-01,9.99999e-01,9.95783e-01,9.53119e-01,9.99969e-01
5.902184868e-01,9.49058e-01,9.99999e-01,9.94875e-01,9.54023e-01,9.99918e-01
5.931695792e-01,9.51382e-01,9.99999e-01,9.96381e-01,9.54910e-01,9.99921e-01
5.961354271e-01,9.51945e-01,9.99999e-01,9.96031e-01,9.55781e-01,9.99954e-01
5.991161043e-01,9.53851e-01,9.99999e-01,9.97103e-01,9.56635e-01,9.99985e-01
6.021116848e-01,9.55897e-01,9.99999e-01,9.98354e-01,9.57473e-01,9.99997e-01
6.051222432e-01,9.57498e-01,9.99999e-01,9.99167e-01,9.58295e-01,9.99999e-01
6.081478544e-01,9.58758e-01,9.99999e-01,9.99640e-01,9.59102e-01,9.99999e-01
6.111885937e-01,9.59748e-01,9.99999e-01,9.99847e-01,9.59893e-01,9.99999e-01
6.142445367e-01,9.60605e-01,9.99999e-01,9.99931e-01,9.60670e-01,9.99999e-01
6.173157594e-01,9.61396e-01,9.99999e-01,9.99962e-01,9.61432e-01,9.99999e-01
6.204023382e-01,9.62148e-01,9.99999e-01,9.99967e-01,9.62179e-01,9.99999e-01
6.235043498e-01,9.62778e-01,9.99999e-01,9.99861e-01,9.62912e-01,9.99999e-01
6.266218716e-01,9.62916e-01,9.99999e-01,9.99262e-01,9.63631e-01,9.99994e-01
6.297549810e-01,9.64066e-01,9.99999e-01,9.99729e-01,9.64336e-01,9.99989e-01
6.329037559e-01,9.64504e-01,9.99999e-01,9.99464e-01,9.65028e-01,9.99991e-01
6.360682746e-01,9.65263e-01,9.99999e-01,9.99544e-01,9.65707e-01,9.99994e-01
6.392486160e-01,9.65801e-01,9.99999e-01,9.99409e-01,9.66373e-01,9.99997e-01
6.424448591e-01,9.66262e-01,9.99999e-01,9.99212e-01,9.67026e-01,9.99996e-01
6.456570834e-01,9.64113e-01,9.99999e-01,9.96347e-01,9.67667e-01,9.99979e-01
6.488853688e-01,9.65640e-01,9.99999e-01,9.97314e-01,9.68295e-01,9.99942e-01
6.521297956e-01,9.66213e-01,9.99999e-01,9.97262e-01,9.68911e-01,9.99951e-01
6.553904446e-01,9.66856e-01,9.99999e-01,9.97291e-01,9.69516e-01,9.99963e-01
6.586673968e-01,9.67834e-01,9.99999e-01,9.97666e-01,9.70109e-01,9.99987e-01
6.619607338e-01,9.69379e-01,9.99999e-01,9.98650e-01,9.70691e-01,9.99997e-01
6.652705375e-01,9.70501e-01,9.99999e-01,9.99218e-01,9.71261e-01,9.99998e-01
6.685968902e-01,9.71468e-01,9.99999e-01,9.99636e-01,9.71821e-01,9.99999e-01
6.719398746e-01,9.72206e-01,9.99999e-01,9.99831e-01,9.72370e-01,9.99999e-01
6.752995740e-01,9.72819e-01,9.99999e-01,9.99908e-01,9.72908e-01,9.99999e-01
6.786760719e-01,9.73308e-01,9.99999e-01,9.99868e-01,9.73436e-01,9.99999e-01
6.820694522e-01,9.73734e-01,9.99999e-01,9.99774e-01,9.73954e-01,9.99998e-01
6.854797995e-01,9.74177e-01,9.99999e-01,9.99709e-01,9.74461e-01,9.99997e-01
6.889071985e-01,9.74273e-01,9.99999e-01,9.99301e-01,9.74960e-01,9.99993e-01
6.923517345e-01,9.64276e-01,9.99999e-01,9.88600e-01,9.75448e-01,9.99944e-01
6.958134932e-01,9.69967e-01,9.99999e-01,9.94015e-01,9.75927e-01,9.99875e-01
6.992925606e-01,9.70778e-01,9.99999e-01,9.94353e-01,9.76397e-01,9.99890e-01
7.027890234e-01,9.69951e-01,9.99999e-01,9.93012e-01,9.76858e-01,9.99915e-01
7.063029686e-01,9.71528e-01,9.99999e-01,9.94124e-01,9.77310e-01,9.99957e-01
7.098344834e-01,9.72217e-01,9.99999e-01,9.94362e-01,9.77753e-01,9.99974e-01
7.133836558e-01,9.70828e-01,9.99999e-01,9.92524e-01,9.78187e-01,9.99950e-01
7.169505741e-01,9.20767e-01,9.99999e-01,9.41251e-01,9.78613e-01,9.99614e-01
7.205353270e-01,9.49635e-01,9.99999e-01,9.70632e-01,9.79031e-01,9.99320e-01
7.241380036e-01,9.42683e-01,9.99999e-01,9.63035e-01,9.79441e-01,9.99412e-01
7.277586936e-01,9.46637e-01,9.99999e-01,9.66573e-01,9.79843e-01,9.99519e-01
7.313974871e-01,9.45141e-01,9.99999e-01,9.64411e-01,9.80237e-01,9.99774e-01
7.350544745e-01,9.61351e-01,9.99999e-01,9.80421e-01,9.80624e-01,9.99921e-01
7.387297469e-01,9.66799e-01,9.99999e-01,9.85555e-01,9.81003e-01,9.99963e-01
7.424233956e-01,9.74405e-01,9.99999e-01,9.92904e-01,9.81375e-01,9.99992e-01
7.461355126e-01,9.77514e-01,9.99999e-01,9.95697e-01,9.81739e-01,9.99998e-01
7.498661902e-01,9.80125e-01,9.99999e-01,9.97992e-01,9.82097e-01,9.99999e-01
7.536155211e-01,9.81481e-01,9.99999e-01,9.99016e-01,9.82447e-01,9.99999e-01
7.573835987e-01,9.82293e-01,9.99999e-01,9.99493e-01,9.82791e-01,9.99999e-01
7.611705167e-01,9.82819e-01,9.99999e-01,9.99684e-01,9.83128e-01,9.99999e-01
7.649763693e-01,9.83265e-01,9.99999e-01,9.99802e-01,9.83458e-01,9.99999e-01
7.688012511e-01,9.83647e-01,9.99999e-01,9.99862e-01,9.83782e-01,9.99999e-01
7.726452574e-01,9.83989e-01,9.99999e-01,9.99886e-01,9.84100e-01,9.99999e-01
7.765084837e-01,9.84254e-01,9.99999e-01,9.99839e-01,9.84412e-01,9.99999e-01
7.803910261e-01,9.84036e-01,9.99999e-01,9.99308e-01,9.84717e-01,9.99998e-01
7.842929812e-01,9.82638e-01,9.99999e-01,9.97589e-01,9.85017e-01,9.99995e-01
7.882144461e-01,9.80377e-01,9.99999e-01,9.95023e-01,9.85311e-01,9.99969e-01
7.921555184e-01,9.82844e-01,9.99999e-01,9.97263e-01,9.85599e-01,9.99940e-01
7.961162960e-01,9.81081e-01,9.99999e-01,9.95186e-01,9.85881e-01,9.99943e-01
8.000968774e-01,9.80607e-01,9.99999e-01,9.94430e-01,9.86158e-01,9.99939e-01
8.040973618e-01,9.80890e-01,9.99999e-01,9.94431e-01,9.86429e-01,9.99951e-01
8.081178486e-01,9.74333e-01,9.99999e-01,9.87513e-01,9.86696e-01,9.99954e-01
8.121584379e-01,9.36361e-01,9.99999e-01,9.48901e-01,9.86957e-01,9.99823e-01
8.162192301e-01,9.26790e-01,9.99999e-01,9.39415e-01,9.87213e-01,9.99338e-01
8.203003262e-01,9.56672e-01,9.99999e-01,9.69567e-01,9.87464e-01,9.99225e-01
8.244018279e-01,9.45013e-01,9.99999e-01,9.57361e-01,9.87710e-01,9.99383e-01
8.285238370e-01,9.51413e-01,9.99999e-01,9.63482e-01,9.87951e-01,9.99515e-01
8.326664562e-01,9.51474e-01,9.99999e-01,9.63039e-01,9.88188e-01,9.99799e-01
8.368297885e-01,9.62132e-01,9.99999e-01,9.73448e-01,9.88420e-01,9.99953e-01
8.410139374e-01,9.72943e-01,9.99999e-01,9.84141e-01,9.88647e-01,9.99972e-01
8.452190071e-01,9.81134e-01,9.99999e-01,9.92192e-01,9.88870e-01,9.99983e-01
8.494451021e-01,9.84596e-01,9.99999e-01,9.95470e-01,9.89089e-01,9.99986e-01
8.536923276e-01,9.86640e-01,9.99999e-01,9.97316e-01,9.89303e-01,9.99991e-01
8.579607893e-01,9.87877e-01,9.99999e-01,9.98348e-01,9.89513e-01,9.99997e-01
8.622505932e-01,9.88680e-01,9.99999e-01,9.98949e-01,9.89719e-01,9.99999e-01
8.665618462e-01,9.89279e-01,9.99999e-01,9.99350e-01,9.89921e-01,9.99999e-01
8.708946554e-01,9.89384e-01,9.99999e-01,9.99257e-01,9.90119e-01,9.99999e-01
8.752491287e-01,9.89329e-01,9.99999e-01,9.99006e-01,9.90313e-01,9.99998e-01
8.796253743e-01,9.89140e-01,9.99999e-01,9.98625e-01,9.90504e-01,9.99996e-01
8.840235012e-01,9.89126e-01,9.99999e-01,9.98429e-01,9.90691e-01,9.99989e-01
8.884436187e-01,9.85214e-01,9.99999e-01,9.94315e-01,9.90874e-01,9.99972e-01
8.928858368e-01,9.32852e-01,9.99999e-01,9.41420e-01,9.91053e-01,9.99842e-01
8.973502660e-01,8.89791e-01,9.99999e-01,8.98386e-01,9.91229e-01,9.99195e-01
9.018370173e-01,9.37316e-01,9.99999e-01,9.46642e-01,9.91401e-01,9.98735e-01
9.063462024e-01,9.44056e-01,9.99999e-01,9.53140e-01,9.91571e-01,9.98888e-01
9.108779334e-01,9.19028e-01,9.99999e-01,9.27755e-01,9.91736e-01,9.98845e-01
9.154323231e-01,9.09964e-01,9.99999e-01,9.18271e-01,9.91899e-01,9.99045e-01
9.200094847e-01,9.27440e-01,9.99999e-01,9.35364e-01,9.92058e-01,9.99465e-01
9.246095321e-01,8.94179e-01,9.99999e-01,9.01749e-01,9.92214e-01,9.99384e-01
9.292325798e-01,4.97143e-01,9.99999e-01,5.02170e-01,9.92368e-01,9.97602e-01
9.338787427e-01,4.03666e-01,9.99999e-01,4.10765e-01,9.92518e-01,9.90125e-01
9.385481364e-01,6.84565e-01,9.99999e-01,6.97809e-01,9.92665e-01,9.88267e-01
9.432408771e-01,5.99052e-01,9.99999e-01,6.09565e-01,9.92809e-01,9.89869e-01
9.479570815e-01,4.99278e-01,9.99999e-01,5.07006e-01,9.92951e-01,9.91747e-01
9.526968669e-01,5.90508e-01,9.99999e-01,5.97629e-01,9.93090e-01,9.94958e-01
9.574603512e-01,6.14281e-01,9.99999e-01,6.20060e-01,9.93226e-01,9.97435e-01
9.622476530e-01,6.71028e-01,9.99999e-01,6.76714e-01,9.93359e-01,9.98225e-01
9.670588912e-01,7.92146e-01,9.99999e-01,7.98305e-01,9.93490e-01,9.98786e-01
9.718941857e-01,8.61986e-01,9.99999e-01,8.68297e-01,9.93618e-01,9.99106e-01
9.767536566e-01,8.83209e-01,9.99999e-01,8.89376e-01,9.93744e-01,9.99316e-01
9.816374249e-01,9.10846e-01,9.99999e-01,9.16683e-01,9.93867e-01,9.99763e-01
9.865456120e-01,9.41345e-01,9.99999e-01,9.47085e-01,9.93987e-01,9.99950e-01
9.914783401e-01,9.61248e-01,9.99999e-01,9.66960e-01,9.94106e-01,9.99985e-01
9.964357318e-01,9.76190e-01,9.99999e-01,9.81870e-01,9.94222e-01,9.99991e-01
1.001417910e+00,9.83481e-01,9.99999e-01,9.89095e-01,9.94336e-01,9.99987e-01
1.006425000e+00,9.88240e-01,9.99999e-01,9.93774e-01,9.94447e-01,9.99982e-01
1.011457125e+00,9.90691e-01,9.99999e-01,9.96128e-01,9.94557e-01,9.99983e-01
1.016514411e+00,9.92039e-01,9.99999e-01,9.97371e-01,9.94664e-01,9.99988e-01
1.021596983e+00,9.92675e-01,9.99999e-01,9.97905e-01,9.94769e-01,9.99988e-01
1.026704968e+00,9.93240e-01,9.99999e-01,9.98366e-01,9.94872e-01,9.99991e-01
1.031838492e+00,9.93789e-01,9.99999e-01,9.98811e-01,9.94973e-01,9.99997e-01
1.036997685e+00,9.94370e-01,9.99999e-01,9.99294e-01,9.95072e-01,9.99999e-01
1.042182673e+00,9.94334e-01,9.99999e-01,9.99160e-01,9.95169e-01,9.99999e-01
1.047393587e+00,9.94156e-01,9.99999e-01,9.98885e-01,9.95264e-01,9.99999e-01
1.052630555e+00,9.93837e-01,9.99999e-01,9.98471e-01,9.95358e-01,9.99999e-01
1.057893707e+00,9.92912e-01,9.99999e-01,9.97451e-01,9.95449e-01,9.99998e-01
1.063183176e+00,9.91362e-01,9.99999e-01,9.95806e-01,9.95539e-01,9.99997e-01
1.068499092e+00,9.88636e-01,9.99999e-01,9.92982e-01,9.95627e-01,9.99994e-01
1.073841587e+00,9.87536e-01,9.99999e-01,9.91797e-01,9.95713e-01,9.99989e-01
1.079210795e+00,9.85301e-01,9.99999e-01,9.89486e-01,9.95797e-01,9.99971e-01
1.084606849e+00,9.80015e-01,9.99999e-01,9.84135e-01,9.95880e-01,9.99931e-01
1.090029883e+00,9.73249e-01,9.99999e-01,9.77331e-01,9.95961e-01,9.99859e-01
1.095480033e+00,9.35436e-01,9.99999e-01,9.39391e-01,9.96041e-01,9.99746e-01
1.100957433e+00,8.49555e-01,9.99999e-01,8.53262e-01,9.96119e-01,9.99533e-01
1.106462220e+00,6.66861e-01,9.99999e-01,6.69937e-01,9.96195e-01,9.99208e-01
1.111994531e+00,4.29724e-01,9.99999e-01,4.32239e-01,9.96270e-01,9.97900e-01
1.117554504e+00,2.56716e-01,9.99999e-01,2.59620e-01,9.96344e-01,9.92441e-01
1.123142276e+00,3.68985e-01,9.99999e-01,3.77035e-01,9.96416e-01,9.82169e-01
1.128757988e+00,5.17449e-01,9.99999e-01,5.30194e-01,9.96487e-01,9.79401e-01
1.134401778e+00,2.74057e-01,9.99999e-01,2.79914e-01,9.96556e-01,9.82457e-01
1.140073787e+00,6.70249e-01,9.99999e-01,6.82096e-01,9.96624e-01,9.85959e-01
1.145774156e+00,4.47010e-01,9.99999e-01,4.54336e-01,9.96690e-01,9.87139e-01
1.151503026e+00,4.12767e-01,9.99999e-01,4.17107e-01,9.96756e-01,9.92815e-01
1.157260541e+00,4.73669e-01,9.99999e-01,4.76205e-01,9.96820e-01,9.97845e-01
1.163046844e+00,5.74670e-01,9.99999e-01,5.76819e-01,9.96882e-01,9.99388e-01
1.168862078e+00,6.78553e-01,9.99999e-01,6.80846e-01,9.96944e-01,9.99684e-01
1.174706389e+00,7.86073e-01,9.99999e-01,7.88763e-01,9.97004e-01,9.99582e-01
1.180579921e+00,8.62240e-01,9.99999e-01,8.65325e-01,9.97063e-01,9.99368e-01
1.186482820e+00,9.18228e-01,9.99999e-01,9.21474e-01,9.97121e-01,9.99352e-01
1.192415234e+00,9.50253e-01,9.99999e-01,9.53403e-01,9.97178e-01,9.99514e-01
1.198377311e+00,9.57512e-01,9.99999e-01,9.60608e-01,9.97233e-01,9.99541e-01
1.204369197e+00,9.59678e-01,9.99999e-01,9.62685e-01,9.97288e-01,9.99585e-01
1.210391043e+00,9.61472e-01,9.99999e-01,9.64277e-01,9.97341e-01,9.99747e-01
1.216442998e+00,9.66834e-01,9.99999e-01,9.69509e-01,9.97394e-01,9.99845e-01
1.222525213e+00,9.73601e-01,9.99999e-01,9.76187e-01,9.97445e-01,9.99903e-01
1.228637839e+00,9.80904e-01,9.99999e-01,9.83410e-01,9.97496e-01,9.99954e-01
1.234781029e+00,9.85214e-01,9.99999e-01,9.87651e-01,9.97545e-01,9.99986e-01
1.240954934e+00,9.89787e-01,9.99999e-01,9.92178e-01,9.97593e-01,9.99995e-01
1.247159708e+00,9.91556e-01,9.99999e-01,9.93902e-01,9.97641e-01,9.99997e-01
1.253395507e+00,9.92286e-01,9.99999e-01,9.94588e-01,9.97687e-01,9.99996e-01
1.259662485e+00,9.92603e-01,9.99999e-01,9.94863e-01,9.97733e-01,9.99994e-01
1.265960797e+00,9.89584e-01,9.99999e-01,9.91794e-01,9.97778e-01,9.99991e-01
1.272290601e+00,9.84991e-01,9.99999e-01,9.87154e-01,9.97822e-01,9.99985e-01
1.278652054e+00,9.72506e-01,9.99999e-01,9.74610e-01,9.97865e-01,9.99974e-01
1.285045314e+00,9.58358e-01,9.99999e-01,9.60412e-01,9.97907e-01,9.99953e-01
1.291470541e+00,9.20069e-01,9.99999e-01,9.22036e-01,9.97948e-01,9.99917e-01
1.297927893e+00,8.97555e-01,9.99999e-01,8.99500e-01,9.97988e-01,9.99847e-01
1.304417533e+00,8.70536e-01,9.99999e-01,8.72537e-01,9.98028e-01,9.99677e-01
1.310939621e+00,8.53402e-01,9.99999e-01,8.55620e-01,9.98067e-01,9.99337e-01
1.317494319e+00,8.41535e-01,9.99999e-01,8.44165e-01,9.98105e-01,9.98775e-01
1.324081790e+00,7.73742e-01,9.99999e-01,7.76733e-01,9.98142e-01,9.98001e-01
1.330702199e+00,3.88230e-01,9.99999e-01,3.90282e-01,9.98179e-01,9.96556e-01
1.337355710e+00,8.27338e-02,9.99999e-01,8.34339e-02,9.98215e-01,9.93380e-01
1.344042489e+00,3.81094e-03,9.99999e-01,3.89475e-03,9.98250e-01,9.80194e-01
1.350762701e+00,4.29721e-06,9.99999e-01,4.60974e-06,9.98285e-01,9.33802e-01
1.357516515e+00,1.85349e-08,9.99999e-01,2.26994e-08,9.98319e-01,8.17910e-01
1.364304097e+00,9.90942e-06,9.99999e-01,1.41174e-05,9.98352e-01,7.03088e-01
1.371125618e+00,4.15289e-04,9.99999e-01,5.79818e-04,9.98384e-01,7.17399e-01
1.377981246e+00,1.22575e-03,9.99999e-01,1.63204e-03,9.98416e-01,7.52245e-01
1.384871152e+00,2.29289e-05,9.99999e-01,3.00270e-05,9.98447e-01,7.64795e-01
1.391795508e+00,1.41624e-05,9.99999e-01,1.82824e-05,9.98478e-01,7.75825e-01
1.398754485e+00,1.05598e-04,9.99999e-01,1.30323e-04,9.98508e-01,8.11490e-01
1.405748258e+00,1.08509e-04,9.99999e-01,1.22781e-04,9.98537e-01,8.85049e-01
1.412776999e+00,1.11763e-04,9.99999e-01,1.18340e-04,9.98566e-01,9.45772e-01
1.419840884e+00,2.18306e-04,9.99999e-01,2.24023e-04,9.98595e-01,9.75850e-01
1.426940089e+00,1.39444e-03,9.99999e-01,1.42254e-03,9.98622e-01,9.81598e-01
1.434074789e+00,6.41888e-03,9.99999e-01,6.56998e-03,9.98649e-01,9.78322e-01
1.441245163e+00,1.85240e-02,9.99999e-01,1.89941e-02,9.98676e-01,9.76541e-01
1.448451389e+00,6.02038e-02,9.99999e-01,6.15481e-02,9.98702e-01,9.79429e-01
1.455693646e+00,1.49910e-01,9.99999e-01,1.52548e-01,9.98728e-01,9.83956e-01
1.462972114e+00,1.92368e-01,9.99999e-01,1.95602e-01,9.98753e-01,9.84693e-01
1.470286975e+00,1.47377e-01,9.99999e-01,1.49812e-01,9.98778e-01,9.84952e-01
