#,Wave/freq,Total,N2,H2O,Rayleigh,CIA
4.000000000e-01,6.77591e-01,9.99999e-01,9.99955e-01,6.77621e-01,9.99999e-01
4.020000000e-01,6.82836e-01,9.99999e-01,9.99972e-01,6.82855e-01,9.99999e-01
4.040100000e-01,6.88012e-01,9.99999e-01,9.99988e-01,6.88020e-01,9.99999e-01
4.060300500e-01,6.93118e-01,9.99999e-01,9.99996e-01,6.93120e-01,9.99999e-01
4.080602003e-01,6.98156e-01,9.99999e-01,9.99998e-01,6.98157e-01,9.99999e-01
4.101005013e-01,7.03129e-01,9.99999e-01,9.99999e-01,7.03129e-01,9.99999e-01
4.121510038e-01,7.08037e-01,9.99999e-01,9.99997e-01,7.08038e-01,9.99999e-01
4.142117588e-01,7.12875e-01,9.99999e-01,9.99987e-01,7.12883e-01,9.99999e-01
4.162828176e-01,7.17626e-01,9.99999e-01,9.99945e-01,7.17665e-01,9.99999e-01
4.183642317e-01,7.22360e-01,9.99999e-01,9.99967e-01,7.22383e-01,9.99999e-01
4.204560528e-01,7.27024e-01,9.99999e-01,9.99979e-01,7.27038e-01,9.99999e-01
4.225583331e-01,7.31625e-01,9.99999e-01,9.99992e-01,7.31631e-01,9.99999e-01
4.246711247e-01,7.36156e-01,9.99999e-01,9.99993e-01,7.36160e-01,9.99999e-01
4.267944804e-01,7.40621e-01,9.99999e-01,9.99990e-01,7.40628e-01,9.99999e-01
4.289284528e-01,7.45028e-01,9.99999e-01,9.99992e-01,7.45033e-01,9.99999e-01
4.310730950e-01,7.49375e-01,9.99999e-01,9.99996e-01,7.49377e-01,9.99999e-01
4.332284605e-01,7.53660e-01,9.99999e-01,9.99998e-01,7.53660e-01,9.99999e-01
4.353946028e-01,7.57882e-01,9.99999e-01,9.99999e-01,7.57882e-01,9.99999e-01
4.375715758e-01,7.62039e-01,9.99999e-01,9.99993e-01,7.62044e-01,9.99999e-01
4.397594337e-01,7.66108e-01,9.99999e-01,9.99951e-01,7.66145e-01,9.99999e-01
4.419582309e-01,7.69997e-01,9.99999e-01,9.99753e-01,7.70187e-01,9.99999e-01
4.441680220e-01,7.74024e-01,9.99999e-01,9.99811e-01,7.74170e-01,9.99999e-01
4.463888621e-01,7.77940e-01,9.99999e-01,9.99802e-01,7.78094e-01,9.99999e-01
4.486208064e-01,7.81864e-01,9.99999e-01,9.99877e-01,7.81959e-01,9.99999e-01
4.508639105e-01,7.85723e-01,9.99999e-01,9.99942e-01,7.85768e-01,9.99999e-01
4.531182300e-01,7.89501e-01,9.99999e-01,9.99977e-01,7.89518e-01,9.99999e-01
4.553838212e-01,7.93201e-01,9.99999e-01,9.99984e-01,7.93213e-01,9.99999e-01
4.576607403e-01,7.96845e-01,9.99999e-01,9.99992e-01,7.96851e-01,9.99999e-01
4.599490440e-01,8.00429e-01,9.99999e-01,9.99994e-01,8.00433e-01,9.99999e-01
4.622487892e-01,8.03960e-01,9.99999e-01,9.99998e-01,8.03960e-01,9.99999e-01
4.645600332e-01,8.07430e-01,9.99999e-01,9.99996e-01,8.07433e-01,9.99999e-01
4.668828333e-01,8.10804e-01,9.99999e-01,9.99941e-01,8.10851e-01,9.99999e-01
4.692172475e-01,8.14116e-01,9.99999e-01,9.99876e-01,8.14216e-01,9.99999e-01
4.715633337e-01,8.17463e-01,9.99999e-01,9.99918e-01,8.17529e-01,9.99999e-01
4.739211504e-01,8.20725e-01,9.99999e-01,9.99922e-01,8.20789e-01,9.99999e-01
4.762907561e-01,8.23964e-01,9.99999e-01,9.99959e-01,8.23997e-01,9.99999e-01
4.786722099e-01,8.27140e-01,9.99999e-01,9.99983e-01,8.27153e-01,9.99999e-01
4.810655710e-01,8.30256e-01,9.99999e-01,9.99994e-01,8.30260e-01,9.99999e-01
4.834708988e-01,8.33275e-01,9.99999e-01,9.99951e-01,8.33316e-01,9.99999e-01
4.858882533e-01,8.36250e-01,9.99999e-01,9.99912e-01,8.36323e-01,9.99999e-01
4.883176946e-01,8.39219e-01,9.99999e-01,9.99926e-01,8.39281e-01,9.99999e-01
4.907592831e-01,8.42135e-01,9.99999e-01,9.99933e-01,8.42190e-01,9.99999e-01
4.932130795e-01,8.45013e-01,9.99999e-01,9.99952e-01,8.45052e-01,9.99999e-01
4.956791449e-01,8.47846e-01,9.99999e-01,9.99974e-01,8.47867e-01,9.99999e-01
4.981575406e-01,8.50529e-01,9.99999e-01,9.99874e-01,8.50635e-01,9.99999e-01
5.006483283e-01,8.53078e-01,9.99999e-01,9.99673e-01,8.53358e-01,9.99997e-01
5.031515699e-01,8.54620e-01,9.99999e-01,9.98364e-01,8.56035e-01,9.99982e-01
5.056673278e-01,8.57912e-01,9.99999e-01,9.99139e-01,8.58667e-01,9.99979e-01
5.081956644e-01,8.60312e-01,9.99999e-01,9.98915e-01,8.61256e-01,9.99987e-01
5.107366428e-01,8.63167e-01,9.99999e-01,9.99267e-01,8.63800e-01,9.99997e-01
5.132903260e-01,8.65940e-01,9.99999e-01,9.99582e-01,8.66302e-01,9.99999e-01
5.158567776e-01,8.68608e-01,9.99999e-01,9.99823e-01,8.68761e-01,9.99999e-01
5.184360615e-01,8.71118e-01,9.99999e-01,9.99929e-01,8.71179e-01,9.99999e-01
5.210282418e-01,8.73532e-01,9.99999e-01,9.99972e-01,8.73555e-01,9.99999e-01
5.236333830e-01,8.75797e-01,9.99999e-01,9.99893e-01,8.75891e-01,9.99998e-01
5.262515499e-01,8.78127e-01,9.99999e-01,9.99933e-01,8.78187e-01,9.99998e-01
5.288828077e-01,8.80388e-01,9.99999e-01,9.99938e-01,8.80443e-01,9.99998e-01
5.315272217e-01,8.82613e-01,9.99999e-01,9.99946e-01,8.82660e-01,9.99999e-01
5.341848578e-01,8.84807e-01,9.99999e-01,9.99964e-01,8.84839e-01,9.99999e-01
5.368557821e-01,8.86869e-01,9.99999e-01,9.99874e-01,8.86980e-01,9.99999e-01
5.395400610e-01,8.88677e-01,9.99999e-01,9.99546e-01,8.89083e-01,9.99995e-01
5.422377613e-01,8.90628e-01,9.99999e-01,9.99423e-01,8.91150e-01,9.99988e-01
5.449489501e-01,8.92689e-01,9.99999e-01,9.99459e-01,8.93181e-01,9.99988e-01
5.476736949e-01,8.94748e-01,9.99999e-01,9.99525e-01,8.95176e-01,9.99994e-01
5.504120634e-01,8.96827e-01,9.99999e-01,9.99655e-01,8.97136e-01,9.99998e-01
5.531641237e-01,8.98906e-01,9.99999e-01,9.99826e-01,8.99062e-01,9.99999e-01
5.559299443e-01,9.00878e-01,9.99999e-01,9.99916e-01,9.00954e-01,9.99999e-01
5.587095940e-01,9.02764e-01,9.99999e-01,9.99946e-01,9.02812e-01,9.99999e-01
5.615031420e-01,9.04584e-01,9.99999e-01,9.99940e-01,9.04637e-01,9.99999e-01
5.643106577e-01,9.06368e-01,9.99999e-01,9.99932e-01,9.06429e-01,9.99998e-01
5.671322110e-01,9.07436e-01,9.99999e-01,9.99176e-01,9.08190e-01,9.99992e-01
5.699678720e-01,9.09126e-01,9.99999e-01,9.99149e-01,9.09919e-01,9.99977e-01
5.728177114e-01,9.10784e-01,9.99999e-01,9.99103e-01,9.11617e-01,9.99981e-01
5.756818000e-01,9.12526e-01,9.99999e-01,9.99179e-01,9.13285e-01,9.99988e-01
5.785602090e-01,9.14267e-01,9.99999e-01,9.99286e-01,9.14923e-01,9.99996e-01
5.814530100e-01,9.15871e-01,9.99999e-01,9.99281e-01,9.16531e-01,9.99997e-01
5.843602750e-01,9.17314e-01,9.99999e-01,9.99136e-01,9.18110e-01,9.99994e-01
5.872820764e-01,9.12798e-01,9.99999e-01,9.92588e-01,9.19661e-01,9.99947e-01
5.902184868e-01,9.12862e-01,9.99999e-01,9.91106e-01,9.21184e-01,9.99858e-01
5.931695792e-01,9.16734e-01,9.99999e-01,9.93692e-01,9.22679e-01,9.99863e-01
5.961354271e-01,9.17700e-01,9.99999e-01,9.93101e-01,9.24146e-01,9.99921e-01
5.991161043e-01,9.20911e-01,9.99999e-01,9.94970e-01,9.25588e-01,9.99975e-01
6.021116848e-01,9.24356e-01,9.99999e-01,9.97147e-01,9.27002e-01,9.99996e-01
6.051222432e-01,9.27051e-01,9.99999e-01,9.98556e-01,9.28391e-01,9.99999e-01
6.081478544e-01,9.29175e-01,9.99999e-01,9.99376e-01,9.29755e-01,9.99999e-01
6.111885937e-01,9.30849e-01,9.99999e-01,9.99736e-01,9.31093e-01,9.99999e-01
6.142445367e-01,9.32298e-01,9.99999e-01,9.99881e-01,9.32407e-01,9.99999e-01
6.173157594e-01,9.33637e-01,9.99999e-01,9.99934e-01,9.33697e-01,9.99999e-01
6.204023382e-01,9.34912e-01,9.99999e-01,9.99944e-01,9.34963e-01,9.99999e-01
6.235043498e-01,9.35974e-01,9.99999e-01,9.99752e-01,9.36206e-01,9.99998e-01
6.266218716e-01,9.36211e-01,9.99999e-01,9.98712e-01,9.37426e-01,9.99990e-01
6.297549810e-01,9.38163e-01,9.99999e-01,9.99527e-01,9.38623e-01,9.99981e-01
6.329037559e-01,9.38911e-01,9.99999e-01,9.99069e-01,9.39798e-01,9.99985e-01
6.360682746e-01,9.40195e-01,9.99999e-01,9.99203e-01,9.40951e-01,9.99990e-01
6.392486160e-01,9.41111e-01,9.99999e-01,9.98970e-01,9.42083e-01,9.99995e-01
6.424448591e-01,9.41878e-01,9.99999e-01,9.98610e-01,9.43194e-01,9.99992e-01
6.456570834e-01,9.38173e-01,9.99999e-01,9.93565e-01,9.44284e-01,9.99960e-01
6.488853688e-01,9.40857e-01,9.99999e-01,9.95341e-01,9.45354e-01,9.99900e-01
6.521297956e-01,9.41835e-01,9.99999e-01,9.95252e-01,9.46404e-01,9.99917e-01
6.553904446e-01,9.42876e-01,9.99999e-01,9.95249e-01,9.47434e-01,9.99938e-01
6.586673968e-01,9.44585e-01,9.99999e-01,9.95949e-01,9.48445e-01,9.99979e-01
6.619607338e-01,9.47290e-01,9.99999e-01,9.97741e-01,9.49438e-01,9.99995e-01
6.652705375e-01,9.49121e-01,9.99999e-01,9.98644e-01,9.50411e-01,9.99997e-01
6.685968902e-01,9.50818e-01,9.99999e-01,9.99424e-01,9.51366e-01,9.99999e-01
6.719398746e-01,9.52026e-01,9.99999e-01,9.99708e-01,9.52304e-01,9.99999e-01
6.752995740e-01,9.53077e-01,9.99999e-01,9.99845e-01,9.53223e-01,9.99999e-01
6.786760719e-01,9.53905e-01,9.99999e-01,9.99768e-01,9.54126e-01,9.99999e-01
6.820694522e-01,9.54631e-01,9.99999e-01,9.99602e-01,9.55011e-01,9.99997e-01
6.854797995e-01,9.55391e-01,9.99999e-01,9.99492e-01,9.55880e-01,9.99995e-01
6.889071985e-01,9.55530e-01,9.99999e-01,9.98753e-01,9.56732e-01,9.99988e-01
6.923517345e-01,9.38358e-01,9.99999e-01,9.80031e-01,9.57568e-01,9.99903e-01
6.958134932e-01,9.48412e-01,9.99999e-01,9.89799e-01,9.58389e-01,9.99787e-01
6.992925606e-01,9.49506e-01,9.99999e-01,9.90088e-01,9.59194e-01,9.99808e-01
7.027890234e-01,9.48208e-01,9.99999e-01,9.87877e-01,9.59983e-01,9.99853e-01
7.063029686e-01,9.50878e-01,9.99999e-01,9.89787e-01,9.60758e-01,9.99926e-01
7.098344834e-01,9.52054e-01,9.99999e-01,9.90199e-01,9.61518e-01,9.99956e-01
7.133836558e-01,9.49478e-01,9.99999e-01,9.86796e-01,9.62264e-01,9.99914e-01
7.169505741e-01,8.65762e-01,9.99999e-01,8.99634e-01,9.62995e-01,9.99327e-01
7.205353270e-01,9.14866e-01,9.99999e-01,9.50439e-01,9.63713e-01,9.98814e-01
7.241380036e-01,9.02146e-01,9.99999e-01,9.36390e-01,9.64416e-01,9.98976e-01
7.277586936e-01,9.08841e-01,9.99999e-01,9.42488e-01,9.65107e-01,9.99162e-01
7.313974871e-01,9.06784e-01,9.99999e-01,9.39276e-01,9.65784e-01,9.99607e-01
7.350544745e-01,9.33734e-01,9.99999e-01,9.66280e-01,9.66449e-01,9.99863e-01
7.387297469e-01,9.42943e-01,9.99999e-01,9.75081e-01,9.67100e-01,9.99937e-01
7.424233956e-01,9.55882e-01,9.99999e-01,9.87757e-01,9.67739e-01,9.99988e-01
7.461355126e-01,9.61153e-01,9.99999e-01,9.92552e-01,9.68366e-01,9.99997e-01
7.498661902e-01,9.65625e-01,9.99999e-01,9.96536e-01,9.68981e-01,9.99998e-01
7.536155211e-01,9.67931e-01,9.99999e-01,9.98294e-01,9.69585e-01,9.99999e-01
7.573835987e-01,9.69325e-01,9.99999e-01,9.99122e-01,9.70176e-01,9.99999e-01
7.611705167e-01,9.70227e-01,9.99999e-01,9.99454e-01,9.70757e-01,9.99999e-01
7.649763693e-01,9.70994e-01,9.99999e-01,9.99657e-01,9.71326e-01,9.99999e-01
7.688012511e-01,9.71652e-01,9.99999e-01,9.99760e-01,9.71884e-01,9.99999e-01
7.726452574e-01,9.72241e-01,9.99999e-01,9.99803e-01,9.72432e-01,9.99999e-01
7.765084837e-01,9.72695e-01,9.99999e-01,9.99718e-01,9.72969e-01,9.99999e-01
7.803910261e-01,9.72308e-01,9.99999e-01,9.98780e-01,9.73496e-01,9.99998e-01
7.842929812e-01,9.69865e-01,9.99999e-01,9.95749e-01,9.74012e-01,9.99991e-01
7.882144461e-01,9.66020e-01,9.99999e-01,9.91337e-01,9.74519e-01,9.99939e-01
7.921555184e-01,9.70303e-01,9.99999e-01,9.95268e-01,9.75016e-01,9.99896e-01
7.961162960e-01,9.67165e-01,9.99999e-01,9.91548e-01,9.75504e-01,9.99901e-01
8.000968774e-01,9.66415e-01,9.99999e-01,9.90301e-01,9.75981e-01,9.99894e-01
8.040973618e-01,9.66887e-01,9.99999e-01,9.90284e-01,9.76450e-01,9.99919e-01
8.081178486e-01,9.55443e-01,9.99999e-01,9.78103e-01,9.76910e-01,9.99918e-01
8.121584379e-01,8.91263e-01,9.99999e-01,9.12187e-01,9.77361e-01,9.99692e-01
8.162192301e-01,8.76816e-01,9.99999e-01,8.97754e-01,9.77803e-01,9.98846e-01
8.203003262e-01,9.25330e-01,9.99999e-01,9.47194e-01,9.78237e-01,9.98649e-01
8.244018279e-01,9.08252e-01,9.99999e-01,9.29053e-01,9.78662e-01,9.98924e-01
8.285238370e-01,9.16759e-01,9.99999e-01,9.37139e-01,9.79079e-01,9.99155e-01
8.326664562e-01,9.17254e-01,9.99999e-01,9.36789e-01,9.79488e-01,9.99650e-01
8.368297885e-01,9.35160e-01,9.99999e-01,9.54429e-01,9.79889e-01,9.99919e-01
8.410139374e-01,9.53451e-01,9.99999e-01,9.72673e-01,9.80282e-01,9.99952e-01
8.452190071e-01,9.67425e-01,9.99999e-01,9.86523e-01,9.80668e-01,9.99971e-01
8.494451021e-01,9.73303e-01,9.99999e-01,9.92128e-01,9.81046e-01,9.99977e-01
8.536923276e-01,9.76845e-01,9.99999e-01,9.95354e-01,9.81417e-01,9.99985e-01
8.579607893e-01,9.78959e-01,9.99999e-01,9.97128e-01,9.81781e-01,9.99996e-01
8.622505932e-01,9.80349e-01,9.99999e-01,9.98179e-01,9.82137e-01,9.99998e-01
8.665618462e-01,9.81376e-01,9.99999e-01,9.98869e-01,9.82487e-01,9.99999e-01
8.708946554e-01,9.81554e-01,9.99999e-01,9.98702e-01,9.82830e-01,9.99998e-01
8.752491287e-01,9.81460e-01,9.99999e-01,9.98265e-01,9.83166e-01,9.99997e-01
8.796253743e-01,9.81122e-01,9.99999e-01,9.97591e-01,9.83496e-01,9.99994e-01
8.840235012e-01,9.81099e-01,9.99999e-01,9.97251e-01,9.83819e-01,9.99982e-01
8.884436187e-01,9.74083e-01,9.99999e-01,9.89831e-01,9.84136e-01,9.99952e-01
8.928858368e-01,8.85308e-01,9.99999e-01,8.99540e-01,9.84447e-01,9.99725e-01
8.973502660e-01,8.17239e-01,9.99999e-01,8.31058e-01,9.84752e-01,9.98596e-01
9.018370173e-01,8.95030e-01,9.99999e-01,9.10620e-01,9.85051e-01,9.97794e-01
9.063462024e-01,9.04205e-01,9.99999e-01,9.19434e-01,9.85344e-01,9.98062e-01
9.108779334e-01,8.63534e-01,9.99999e-01,8.77889e-01,9.85631e-01,9.97987e-01
9.154323231e-01,8.48976e-01,9.99999e-01,8.62540e-01,9.85913e-01,9.98335e-01
9.200094847e-01,8.77950e-01,9.99999e-01,8.91073e-01,9.86189e-01,9.99068e-01
9.246095321e-01,8.22465e-01,9.99999e-01,8.34648e-01,9.86460e-01,9.98926e-01
9.292325798e-01,3.08642e-01,9.99999e-01,3.14419e-01,9.86726e-01,9.94828e-01
9.338787427e-01,2.22118e-01,9.99999e-01,2.29304e-01,9.86986e-01,9.81432e-01
9.385481364e-01,5.32104e-01,9.99999e-01,5.50193e-01,9.87242e-01,9.79619e-01
9.432408771e-01,4.27673e-01,9.99999e-01,4.40851e-01,9.87492e-01,9.82392e-01
9.479570815e-01,3.17284e-01,9.99999e-01,3.25901e-01,9.87738e-01,9.85646e-01
9.526968669e-01,4.15889e-01,9.99999e-01,4.24678e-01,9.87978e-01,9.91220e-01
9.574603512e-01,4.37897e-01,9.99999e-01,4.45109e-01,9.88214e-01,9.95530e-01
9.622476530e-01,5.07465e-01,9.99999e-01,5.14989e-01,9.88446e-01,9.96907e-01
9.670588912e-01,6.71102e-01,9.99999e-01,6.80230e-01,9.88673e-01,9.97883e-01
9.718941857e-01,7.73079e-01,9.99999e-01,7.82979e-01,9.88895e-01,9.98441e-01
9.767536566e-01,8.06159e-01,9.99999e-01,8.16003e-01,9.89113e-01,9.98808e-01
9.816374249e-01,8.50607e-01,9.99999e-01,8.60137e-01,9.89327e-01,9.99587e-01
9.865456120e-01,9.00464e-01,9.99999e-01,9.10062e-01,9.89537e-01,9.99913e-01
9.914783401e-01,9.33626e-01,9.99999e-01,9.43324e-01,9.89743e-01,9.99975e-01
9.964357318e-01,9.58979e-01,9.99999e-01,9.68733e-01,9.89944e-01,9.99985e-01
1.001417910e+00,9.71457e-01,9.99999e-01,9.81149e-01,9.90142e-01,9.99978e-01
1.006425000e+00,9.79596e-01,9.99999e-01,9.89185e-01,9.90336e-01,9.99969e-01
1.011457125e+00,9.83855e-01,9.99999e-01,9.93292e-01,9.90525e-01,9.99971e-01
1.016514411e+00,9.86170e-01,9.99999e-01,9.95435e-01,9.90712e-01,9.99979e-01
1.021596983e+00,9.87267e-01,9.99999e-01,9.96358e-01,9.90894e-01,9.99980e-01
1.026704968e+00,9.88245e-01,9.99999e-01,9.97157e-01,9.91073e-01,9.99987e-01
1.031838492e+00,9.89202e-01,9.99999e-01,9.97937e-01,9.91249e-01,9.99995e-01
1.036997685e+00,9.90203e-01,9.99999e-01,9.98771e-01,9.91421e-01,9.99998e-01
1.042182673e+00,9.90133e-01,9.99999e-01,9.98530e-01,9.91590e-01,9.99999e-01
1.047393587e+00,9.89827e-01,9.99999e-01,9.98055e-01,9.91755e-01,9.99999e-01
1.052630555e+00,9.89267e-01,9.99999e-01,9.97328e-01,9.91917e-01,9.99998e-01
1.057893707e+00,9.87647e-01,9.99999e-01,9.95536e-01,9.92076e-01,9.99997e-01
1.063183176e+00,9.84958e-01,9.99999e-01,9.92672e-01,9.92232e-01,9.99995e-01
1.068499092e+00,9.80249e-01,9.99999e-01,9.87778e-01,9.92385e-01,9.99991e-01
1.073841587e+00,9.78312e-01,9.99999e-01,9.85687e-01,9.92535e-01,9.99981e-01
1.079210795e+00,9.74521e-01,9.99999e-01,9.81752e-01,9.92682e-01,9.99950e-01
1.084606849e+00,9.65374e-01,9.99999e-01,9.72464e-01,9.92826e-01,9.99881e-01
1.090029883e+00,9.53471e-01,9.99999e-01,9.60458e-01,9.92967e-01,9.99755e-01
1.095480033e+00,8.89592e-01,9.99999e-01,8.96163e-01,9.93105e-01,9.99557e-01
1.100957433e+00,7.52317e-01,9.99999e-01,7.58052e-01,9.93241e-01,9.99185e-01
1.106462220e+00,4.97340e-01,9.99999e-01,5.01349e-01,9.93374e-01,9.98619e-01
1.111994531e+00,2.39030e-01,9.99999e-01,2.41476e-01,9.93505e-01,9.96340e-01
1.117554504e+00,1.03147e-01,9.99999e-01,1.05191e-01,9.93632e-01,9.86850e-01
1.123142276e+00,1.99764e-01,9.99999e-01,2.07429e-01,9.93758e-01,9.69097e-01
1.128757988e+00,3.30808e-01,9.99999e-01,3.45153e-01,9.93881e-01,9.64338e-01
1.134401778e+00,1.57094e-01,9.99999e-01,1.62998e-01,9.94001e-01,9.69594e-01
1.140073787e+00,5.04035e-01,9.99999e-01,5.19680e-01,9.94119e-01,9.75631e-01
1.145774156e+00,2.62240e-01,9.99999e-01,2.69784e-01,9.94235e-01,9.77670e-01
1.151503026e+00,2.30820e-01,9.99999e-01,2.35070e-01,9.94349e-01,9.87498e-01
1.157260541e+00,2.80264e-01,9.99999e-01,2.82888e-01,9.94460e-01,9.96245e-01
1.163046844e+00,3.89013e-01,9.99999e-01,3.91554e-01,9.94569e-01,9.98934e-01
1.168862078e+00,5.12491e-01,9.99999e-01,5.15516e-01,9.94676e-01,9.99450e-01
1.174706389e+00,6.59921e-01,9.99999e-01,6.63866e-01,9.94781e-01,9.99271e-01
1.180579921e+00,7.73857e-01,9.99999e-01,7.78692e-01,9.94884e-01,9.98899e-01
1.186482820e+00,8.62300e-01,9.99999e-01,8.67625e-01,9.94984e-01,9.98870e-01
1.192415234e+00,9.14998e-01,9.99999e-01,9.20297e-01,9.95083e-01,9.99153e-01
1.198377311e+00,9.27050e-01,9.99999e-01,9.32288e-01,9.95180e-01,9.99196e-01
1.204369197e+00,9.30887e-01,9.99999e-01,9.35959e-01,9.95275e-01,9.99300e-01
1.210391043e+00,9.33871e-01,9.99999e-01,9.38629e-01,9.95368e-01,9.99559e-01
1.216442998e+00,9.43107e-01,9.99999e-01,9.47663e-01,9.95459e-01,9.99730e-01
1.222525213e+00,9.54519e-01,9.99999e-01,9.58946e-01,9.95549e-01,9.99832e-01
1.228637839e+00,9.66976e-01,9.99999e-01,9.71288e-01,9.95637e-01,9.99921e-01
1.234781029e+00,9.74423e-01,9.99999e-01,9.78630e-01,9.95723e-01,9.99977e-01
1.240954934e+00,9.82280e-01,9.99999e-01,9.86421e-01,9.95807e-01,9.99993e-01
1.247159708e+00,9.85350e-01,9.99999e-01,9.89419e-01,9.95890e-01,9.99995e-01
1.253395507e+00,9.86591e-01,9.99999e-01,9.90587e-01,9.95971e-01,9.99994e-01
1.259662485e+00,9.87114e-01,9.99999e-01,9.91035e-01,9.96050e-01,9.99991e-01
1.265960797e+00,9.81917e-01,9.99999e-01,9.85746e-01,9.96128e-01,9.99985e-01
1.272290601e+00,9.73890e-01,9.99999e-01,9.77623e-01,9.96204e-01,9.99975e-01
1.278652054e+00,9.52461e-01,9.99999e-01,9.56059e-01,9.96279e-01,9.99956e-01
1.285045314e+00,9.18307e-01,9.99999e-01,9.21742e-01,9.96352e-01,9.99918e-01
1.291470541e+00,8.64474e-01,9.99999e-01,8.67699e-01,9.96424e-01,9.99857e-01
1.297927893e+00,8.14471e-01,9.99999e-01,8.17553e-01,9.96495e-01,9.99733e-01
1.304417533e+00,7.86424e-01,9.99999e-01,7.89579e-01,9.96564e-01,9.99437e-01
1.310939621e+00,7.38521e-01,9.99999e-01,7.41873e-01,9.96632e-01,9.98844e-01
1.317494319e+00,7.42334e-01,9.99999e-01,7.46386e-01,9.96698e-01,9.97864e-01
1.324081790e+00,6.46247e-01,9.99999e-01,6.50611e-01,9.96763e-01,9.96516e-01
1.330702199e+00,2.27768e-01,9.99999e-01,2.29871e-01,9.96827e-01,9.94000e-01
1.337355710e+00,1.72705e-02,9.99999e-01,1.75263e-02,9.96889e-01,9.88479e-01
1.344042489e+00,4.88133e-04,9.99999e-01,5.07016e-04,9.96951e-01,9.65700e-01
1.350762701e+00,2.20561e-09,9.99999e-01,2.49301e-09,9.97011e-01,8.87368e-01
1.357516515e+00,1.38686e-13,9.99999e-01,1.97520e-13,9.97070e-01,7.04201e-01
1.364304097e+00,7.95306e-09,9.99999e-01,1.47471e-08,9.97128e-01,5.40850e-01
1.371125618e+00,5.40037e-06,9.99999e-01,9.66723e-06,9.97184e-01,5.60203e-01
1.377981246e+00,1.86879e-05,9.99999e-01,3.07948e-05,9.97240e-01,6.08532e-01
1.384871152e+00,9.42305e-08,9.99999e-01,1.50099e-07,9.97294e-01,6.29492e-01
1.391795508e+00,9.81504e-09,9.99999e-01,1.52986e-08,9.97348e-01,6.43271e-01
1.398754485e+00,4.40745e-07,9.99999e-01,6.36196e-07,9.97400e-01,6.94586e-01
1.405748258e+00,4.96810e-07,9.99999e-01,6.16345e-07,9.97451e-01,8.08116e-01
1.412776999e+00,5.79080e-07,9.99999e-01,6.39837e-07,9.97501e-01,9.07308e-01
1.419840884e+00,1.27279e-06,9.99999e-01,1.33151e-06,9.97551e-01,9.58245e-01
1.426940089e+00,4.53473e-05,9.99999e-01,4.69534e-05,9.97599e-01,9.68116e-01
1.434074789e+00,3.35886e-04,9.99999e-01,3.49800e-04,9.97646e-01,9.62485e-01
1.441245163e+00,1.48006e-03,9.99999e-01,1.54621e-03,9.97693e-01,9.59429e-01
1.448451389e+00,1.09433e-02,9.99999e-01,1.13732e-02,9.97738e-01,9.64385e-01
1.455693646e+00,4.58714e-02,9.99999e-01,4.72889e-02,9.97783e-01,9.72177e-01
1.462972114e+00,6.37040e-02,9.99999e-01,6.55841e-02,9.97827e-01,9.73447e-01
1.470286975e+00,4.17376e-02,9.99999e-01,4.29479e-02,9.97869e-01,9.73893e-01
