#,Wave/freq,Total,N2,H2O,Rayleigh,CIA
4.000000000e-01,2.30320e-01,9.99999e-01,9.99833e-01,2.30358e-01,9.99999e-01
4.020000000e-01,2.37118e-01,9.99999e-01,9.99896e-01,2.37143e-01,9.99999e-01
4.040100000e-01,2.43970e-01,9.99999e-01,9.99955e-01,2.43980e-01,9.99999e-01
4.060300500e-01,2.50872e-01,9.99999e-01,9.99989e-01,2.50874e-01,9.99999e-01
4.080602003e-01,2.57820e-01,9.99999e-01,9.99996e-01,2.57821e-01,9.99999e-01
4.101005013e-01,2.64817e-01,9.99999e-01,9.99999e-01,2.64817e-01,9.99999e-01
4.121510038e-01,2.71858e-01,9.99999e-01,9.99993e-01,2.71860e-01,9.99999e-01
4.142117588e-01,2.78932e-01,9.99999e-01,9.99954e-01,2.78944e-01,9.99999e-01
4.162828176e-01,2.86010e-01,9.99999e-01,9.99794e-01,2.86069e-01,9.99999e-01
4.183642317e-01,2.93193e-01,9.99999e-01,9.99877e-01,2.93229e-01,9.99999e-01
4.204560528e-01,3.00398e-01,9.99999e-01,9.99924e-01,3.00421e-01,9.99999e-01
4.225583331e-01,3.07634e-01,9.99999e-01,9.99971e-01,3.07642e-01,9.99999e-01
4.246711247e-01,3.14883e-01,9.99999e-01,9.99977e-01,3.14890e-01,9.99999e-01
4.267944804e-01,3.22149e-01,9.99999e-01,9.99966e-01,3.22160e-01,9.99999e-01
4.289284528e-01,3.29441e-01,9.99999e-01,9.99974e-01,3.29449e-01,9.99999e-01
4.310730950e-01,3.36750e-01,9.99999e-01,9.99988e-01,3.36754e-01,9.99999e-01
4.332284605e-01,3.44071e-01,9.99999e-01,9.99996e-01,3.44072e-01,9.99999e-01
4.353946028e-01,3.51400e-01,9.99999e-01,9.99998e-01,3.51400e-01,9.99999e-01
4.375715758e-01,3.58728e-01,9.99999e-01,9.99979e-01,3.58735e-01,9.99999e-01
4.397594337e-01,3.66008e-01,9.99999e-01,9.99821e-01,3.66073e-01,9.99999e-01
4.419582309e-01,3.73074e-01,9.99999e-01,9.99093e-01,3.73412e-01,9.99999e-01
4.441680220e-01,3.80476e-01,9.99999e-01,9.99282e-01,3.80749e-01,9.99999e-01
4.463888621e-01,3.87793e-01,9.99999e-01,9.99256e-01,3.88081e-01,9.99999e-01
4.486208064e-01,3.95222e-01,9.99999e-01,9.99536e-01,3.95405e-01,9.99999e-01
4.508639105e-01,4.02631e-01,9.99999e-01,9.99782e-01,4.02718e-01,9.99999e-01
4.531182300e-01,4.09984e-01,9.99999e-01,9.99913e-01,4.10019e-01,9.99999e-01
4.553838212e-01,4.17279e-01,9.99999e-01,9.99941e-01,4.17303e-01,9.99999e-01
4.576607403e-01,4.24558e-01,9.99999e-01,9.99972e-01,4.24569e-01,9.99999e-01
4.599490440e-01,4.31807e-01,9.99999e-01,9.99980e-01,4.31815e-01,9.99999e-01
4.622487892e-01,4.39036e-01,9.99999e-01,9.99996e-01,4.39037e-01,9.99999e-01
4.645600332e-01,4.46228e-01,9.99999e-01,9.99986e-01,4.46234e-01,9.99999e-01
4.668828333e-01,4.53305e-01,9.99999e-01,9.99782e-01,4.53403e-01,9.99999e-01
4.692172475e-01,4.60328e-01,9.99999e-01,9.99533e-01,4.60543e-01,9.99999e-01
4.715633337e-01,4.67508e-01,9.99999e-01,9.99695e-01,4.67650e-01,9.99999e-01
4.739211504e-01,4.74585e-01,9.99999e-01,9.99707e-01,4.74724e-01,9.99999e-01
4.762907561e-01,4.81689e-01,9.99999e-01,9.99847e-01,4.81762e-01,9.99999e-01
4.786722099e-01,4.88731e-01,9.99999e-01,9.99937e-01,4.88762e-01,9.99999e-01
4.810655710e-01,4.95713e-01,9.99999e-01,9.99980e-01,4.95722e-01,9.99999e-01
4.834708988e-01,5.02553e-01,9.99999e-01,9.99823e-01,5.02641e-01,9.99999e-01
4.858882533e-01,5.09349e-01,9.99999e-01,9.99669e-01,5.09517e-01,9.99999e-01
4.883176946e-01,5.16207e-01,9.99999e-01,9.99724e-01,5.16349e-01,9.99999e-01
4.907592831e-01,5.23004e-01,9.99999e-01,9.99749e-01,5.23134e-01,9.99999e-01
4.932130795e-01,5.29779e-01,9.99999e-01,9.99822e-01,5.29872e-01,9.99999e-01
4.956791449e-01,5.36511e-01,9.99999e-01,9.99905e-01,5.36562e-01,9.99999e-01
4.981575406e-01,5.42947e-01,9.99999e-01,9.99532e-01,5.43201e-01,9.99999e-01
5.006483283e-01,5.49121e-01,9.99999e-01,9.98794e-01,5.49788e-01,9.99991e-01
5.031515699e-01,5.52880e-01,9.99999e-01,9.93873e-01,5.56323e-01,9.99934e-01
5.056673278e-01,5.60936e-01,9.99999e-01,9.96753e-01,5.62805e-01,9.99925e-01
5.081956644e-01,5.66873e-01,9.99999e-01,9.95904e-01,5.69231e-01,9.99951e-01
5.107366428e-01,5.74004e-01,9.99999e-01,9.97231e-01,5.75602e-01,9.99990e-01
5.132903260e-01,5.80994e-01,9.99999e-01,9.98415e-01,5.81916e-01,9.99998e-01
5.158567776e-01,5.87779e-01,9.99999e-01,9.99329e-01,5.88173e-01,9.99999e-01
5.184360615e-01,5.94212e-01,9.99999e-01,9.99731e-01,5.94371e-01,9.99999e-01
5.210282418e-01,6.00451e-01,9.99999e-01,9.99899e-01,6.00511e-01,9.99999e-01
5.236333830e-01,6.06346e-01,9.99999e-01,9.99598e-01,6.06591e-01,9.99996e-01
5.262515499e-01,6.12454e-01,9.99999e-01,9.99748e-01,6.12610e-01,9.99995e-01
5.288828077e-01,6.18425e-01,9.99999e-01,9.99770e-01,6.18568e-01,9.99996e-01
5.315272217e-01,6.24338e-01,9.99999e-01,9.99796e-01,6.24465e-01,9.99998e-01
5.341848578e-01,6.30217e-01,9.99999e-01,9.99867e-01,6.30300e-01,9.99999e-01
5.368557821e-01,6.35776e-01,9.99999e-01,9.99534e-01,6.36073e-01,9.99998e-01
5.395400610e-01,6.40701e-01,9.99999e-01,9.98326e-01,6.41783e-01,9.99985e-01
5.422377613e-01,6.45992e-01,9.99999e-01,9.97818e-01,6.47430e-01,9.99960e-01
5.449489501e-01,6.51668e-01,9.99999e-01,9.97980e-01,6.53013e-01,9.99958e-01
5.476736949e-01,6.57336e-01,9.99999e-01,9.98201e-01,6.58533e-01,9.99979e-01
5.504120634e-01,6.63120e-01,9.99999e-01,9.98695e-01,6.63990e-01,9.99994e-01
5.531641237e-01,6.68942e-01,9.99999e-01,9.99343e-01,6.69382e-01,9.99998e-01
5.559299443e-01,6.74497e-01,9.99999e-01,9.99682e-01,6.74710e-01,9.99999e-01
5.587095940e-01,6.79840e-01,9.99999e-01,9.99801e-01,6.79975e-01,9.99999e-01
5.615031420e-01,6.85024e-01,9.99999e-01,9.99778e-01,6.85175e-01,9.99999e-01
5.643106577e-01,6.90138e-01,9.99999e-01,9.99751e-01,6.90311e-01,9.99997e-01
5.671322110e-01,6.93278e-01,9.99999e-01,9.96999e-01,6.95383e-01,9.99972e-01
5.699678720e-01,6.98058e-01,9.99999e-01,9.96751e-01,7.00391e-01,9.99916e-01
5.728177114e-01,7.02916e-01,9.99999e-01,9.96638e-01,7.05335e-01,9.99930e-01
5.756818000e-01,7.07991e-01,9.99999e-01,9.96910e-01,7.10215e-01,9.99957e-01
5.785602090e-01,7.13095e-01,9.99999e-01,9.97303e-01,7.15032e-01,9.99986e-01
5.814530100e-01,7.17834e-01,9.99999e-01,9.97295e-01,7.19785e-01,9.99993e-01
5.843602750e-01,7.22140e-01,9.99999e-01,9.96794e-01,7.24475e-01,9.99981e-01
5.872820764e-01,7.09121e-01,9.99999e-01,9.72784e-01,7.29102e-01,9.99804e-01
5.902184868e-01,7.08930e-01,9.99999e-01,9.66798e-01,7.33666e-01,9.99467e-01
5.931695792e-01,7.20476e-01,9.99999e-01,9.76537e-01,7.38168e-01,9.99481e-01
5.961354271e-01,7.23243e-01,9.99999e-01,9.74227e-01,7.42608e-01,9.99686e-01
5.991161043e-01,7.32806e-01,9.99999e-01,9.81106e-01,7.46986e-01,9.99908e-01
6.021116848e-01,7.43201e-01,9.99999e-01,9.89227e-01,7.51302e-01,9.99988e-01
6.051222432e-01,7.51427e-01,9.99999e-01,9.94533e-01,7.55558e-01,9.99998e-01
6.081478544e-01,7.57960e-01,9.99999e-01,9.97640e-01,7.59752e-01,9.99999e-01
6.111885937e-01,7.63123e-01,9.99999e-01,9.98999e-01,7.63887e-01,9.99999e-01
6.142445367e-01,7.67619e-01,9.99999e-01,9.99553e-01,7.67962e-01,9.99999e-01
6.173157594e-01,7.71787e-01,9.99999e-01,9.99753e-01,7.71977e-01,9.99999e-01
6.204023382e-01,7.75773e-01,9.99999e-01,9.99792e-01,7.75934e-01,9.99999e-01
6.235043498e-01,7.79124e-01,9.99999e-01,9.99094e-01,7.79831e-01,9.99997e-01
6.266218716e-01,7.79855e-01,9.99999e-01,9.95163e-01,7.83671e-01,9.99965e-01
6.297549810e-01,7.86002e-01,9.99999e-01,9.98224e-01,7.87454e-01,9.99931e-01
6.329037559e-01,7.88355e-01,9.99999e-01,9.96484e-01,7.91179e-01,9.99945e-01
6.360682746e-01,7.92450e-01,9.99999e-01,9.97014e-01,7.94848e-01,9.99967e-01
6.392486160e-01,7.95357e-01,9.99999e-01,9.96126e-01,7.98461e-01,9.99985e-01
6.424448591e-01,7.97869e-01,9.99999e-01,9.94848e-01,8.02019e-01,9.99976e-01
6.456570834e-01,7.86343e-01,9.99999e-01,9.76321e-01,8.05521e-01,9.99866e-01
6.488853688e-01,7.94525e-01,9.99999e-01,9.82510e-01,8.08970e-01,9.99626e-01
6.521297956e-01,7.97649e-01,9.99999e-01,9.82192e-01,8.12364e-01,9.99686e-01
6.553904446e-01,8.01117e-01,9.99999e-01,9.82345e-01,8.15706e-01,9.99764e-01
6.586673968e-01,8.06456e-01,9.99999e-01,9.84765e-01,8.18994e-01,9.99922e-01
6.619607338e-01,8.14948e-01,9.99999e-01,9.91157e-01,8.22231e-01,9.99983e-01
6.652705375e-01,8.21169e-01,9.99999e-01,9.94862e-01,8.25416e-01,9.99991e-01
6.685968902e-01,8.26571e-01,9.99999e-01,9.97611e-01,8.28550e-01,9.99998e-01
6.719398746e-01,8.30712e-01,9.99999e-01,9.98891e-01,8.31634e-01,9.99999e-01
6.752995740e-01,8.34168e-01,9.99999e-01,9.99401e-01,8.34668e-01,9.99999e-01
6.786760719e-01,8.36931e-01,9.99999e-01,9.99138e-01,8.37653e-01,9.99998e-01
6.820694522e-01,8.39342e-01,9.99999e-01,9.98523e-01,8.40589e-01,9.99991e-01
6.854797995e-01,8.41858e-01,9.99999e-01,9.98096e-01,8.43477e-01,9.99983e-01
6.889071985e-01,8.42430e-01,9.99999e-01,9.95445e-01,8.46318e-01,9.99958e-01
6.923517345e-01,7.87710e-01,9.99999e-01,9.28021e-01,8.49112e-01,9.99638e-01
6.958134932e-01,8.18395e-01,9.99999e-01,9.61498e-01,8.51860e-01,9.99184e-01
6.992925606e-01,8.22900e-01,9.99999e-01,9.63639e-01,8.54562e-01,9.99282e-01
7.027890234e-01,8.18253e-01,9.99999e-01,9.55068e-01,8.57219e-01,9.99449e-01
7.063029686e-01,8.26966e-01,9.99999e-01,9.62040e-01,8.59831e-01,9.99725e-01
7.098344834e-01,8.30811e-01,9.99999e-01,9.63526e-01,8.62400e-01,9.99837e-01
7.133836558e-01,8.23417e-01,9.99999e-01,9.52314e-01,8.64925e-01,9.99677e-01
7.169505741e-01,5.92172e-01,9.99999e-01,6.84421e-01,8.67408e-01,9.97469e-01
7.205353270e-01,7.15829e-01,9.99999e-01,8.26620e-01,8.69849e-01,9.95540e-01
7.241380036e-01,6.82827e-01,9.99999e-01,7.85862e-01,8.72248e-01,9.96148e-01
7.277586936e-01,7.01510e-01,9.99999e-01,8.04620e-01,8.74606e-01,9.96850e-01
7.313974871e-01,6.92648e-01,9.99999e-01,7.91028e-01,8.76924e-01,9.98523e-01
7.350544745e-01,7.72635e-01,9.99999e-01,8.79243e-01,8.79201e-01,9.99486e-01
7.387297469e-01,8.01172e-01,9.99999e-01,9.09148e-01,8.81440e-01,9.99764e-01
7.424233956e-01,8.43207e-01,9.99999e-01,9.54285e-01,8.83640e-01,9.99954e-01
7.461355126e-01,8.61037e-01,9.99999e-01,9.72049e-01,8.85802e-01,9.99991e-01
7.498661902e-01,8.76259e-01,9.99999e-01,9.86863e-01,8.87926e-01,9.99996e-01
7.536155211e-01,8.84267e-01,9.99999e-01,9.93545e-01,8.90013e-01,9.99997e-01
7.573835987e-01,8.89094e-01,9.99999e-01,9.96671e-01,8.92064e-01,9.99999e-01
7.611705167e-01,8.92229e-01,9.99999e-01,9.97930e-01,8.94079e-01,9.99999e-01
7.649763693e-01,8.94897e-01,9.99999e-01,9.98703e-01,8.96058e-01,9.99999e-01
7.688012511e-01,8.97193e-01,9.99999e-01,9.99097e-01,8.98003e-01,9.99999e-01
7.726452574e-01,8.99245e-01,9.99999e-01,9.99258e-01,8.99913e-01,9.99999e-01
7.765084837e-01,9.00843e-01,9.99999e-01,9.98950e-01,9.01789e-01,9.99998e-01
7.803910261e-01,8.99543e-01,9.99999e-01,9.95477e-01,9.03633e-01,9.99995e-01
7.842929812e-01,8.91216e-01,9.99999e-01,9.84314e-01,9.05443e-01,9.99970e-01
7.882144461e-01,8.77804e-01,9.99999e-01,9.67766e-01,9.07221e-01,9.99799e-01
7.921555184e-01,8.92401e-01,9.99999e-01,9.82154e-01,9.08968e-01,9.99612e-01
7.961162960e-01,8.82041e-01,9.99999e-01,9.68907e-01,9.10683e-01,9.99628e-01
8.000968774e-01,8.79134e-01,9.99999e-01,9.63954e-01,9.12368e-01,9.99604e-01
8.040973618e-01,8.80845e-01,9.99999e-01,9.64003e-01,9.14022e-01,9.99686e-01
8.081178486e-01,8.43552e-01,9.99999e-01,9.21534e-01,9.15646e-01,9.99705e-01
8.121584379e-01,6.55838e-01,9.99999e-01,7.15837e-01,9.17242e-01,9.98844e-01
8.162192301e-01,6.15136e-01,9.99999e-01,6.72409e-01,9.18808e-01,9.95661e-01
8.203003262e-01,7.58866e-01,9.99999e-01,8.28751e-01,9.20346e-01,9.94921e-01
8.244018279e-01,7.08732e-01,9.99999e-01,7.71930e-01,9.21856e-01,9.95956e-01
8.285238370e-01,7.24434e-01,9.99999e-01,7.87080e-01,9.23339e-01,9.96822e-01
8.326664562e-01,7.25408e-01,9.99999e-01,7.85431e-01,9.24795e-01,9.98684e-01
8.368297885e-01,7.77092e-01,9.99999e-01,8.39240e-01,9.26224e-01,9.99699e-01
8.410139374e-01,8.35364e-01,9.99999e-01,9.00696e-01,9.27627e-01,9.99823e-01
8.452190071e-01,8.82299e-01,9.99999e-01,9.49823e-01,9.29005e-01,9.99894e-01
8.494451021e-01,9.02926e-01,9.99999e-01,9.70596e-01,9.30357e-01,9.99915e-01
8.536923276e-01,9.15304e-01,9.99999e-01,9.82472e-01,9.31685e-01,9.99943e-01
8.579607893e-01,9.22888e-01,9.99999e-01,9.89189e-01,9.32988e-01,9.99984e-01
8.622505932e-01,9.27827e-01,9.99999e-01,9.93109e-01,9.34267e-01,9.99997e-01
8.665618462e-01,9.31538e-01,9.99999e-01,9.95741e-01,9.35522e-01,9.99998e-01
8.708946554e-01,9.32193e-01,9.99999e-01,9.95132e-01,9.36755e-01,9.99996e-01
8.752491287e-01,9.31851e-01,9.99999e-01,9.93488e-01,9.37965e-01,9.99992e-01
8.796253743e-01,9.30693e-01,9.99999e-01,9.91013e-01,9.39152e-01,9.99979e-01
8.840235012e-01,9.30609e-01,9.99999e-01,9.89737e-01,9.40317e-01,9.99936e-01
8.884436187e-01,9.07283e-01,9.99999e-01,9.63868e-01,9.41461e-01,9.99820e-01
8.928858368e-01,6.45011e-01,9.99999e-01,6.85007e-01,9.42583e-01,9.98968e-01
8.973502660e-01,4.82636e-01,9.99999e-01,5.14150e-01,9.43685e-01,9.94724e-01
9.018370173e-01,6.66114e-01,9.99999e-01,7.10944e-01,9.44766e-01,9.91717e-01
9.063462024e-01,6.95239e-01,9.99999e-01,7.40449e-01,9.45827e-01,9.92720e-01
9.108779334e-01,5.88030e-01,9.99999e-01,6.25758e-01,9.46868e-01,9.92437e-01
9.154323231e-01,5.49565e-01,9.99999e-01,5.83426e-01,9.47889e-01,9.93744e-01
9.200094847e-01,6.22110e-01,9.99999e-01,6.57923e-01,9.48892e-01,9.96494e-01
9.246095321e-01,5.16114e-01,9.99999e-01,5.45552e-01,9.49876e-01,9.95961e-01
9.292325798e-01,3.72853e-02,9.99999e-01,3.98367e-02,9.50841e-01,9.84342e-01
9.338787427e-01,8.92439e-03,9.99999e-01,1.00085e-02,9.51788e-01,9.36844e-01
9.385481364e-01,1.34832e-01,9.99999e-01,1.52941e-01,9.52718e-01,9.25343e-01
9.432408771e-01,7.79568e-02,9.99999e-01,8.74067e-02,9.53629e-01,9.35252e-01
9.479570815e-01,2.56107e-02,9.99999e-01,2.83331e-02,9.54524e-01,9.46978e-01
9.526968669e-01,5.63079e-02,9.99999e-01,6.09276e-02,9.55402e-01,9.67317e-01
9.574603512e-01,6.44876e-02,9.99999e-01,6.85849e-02,9.56263e-01,9.83262e-01
9.622476530e-01,9.94733e-02,9.99999e-01,1.05151e-01,9.57109e-01,9.88396e-01
9.670588912e-01,2.51908e-01,9.99999e-01,2.65076e-01,9.57938e-01,9.92049e-01
9.718941857e-01,3.90672e-01,9.99999e-01,4.09881e-01,9.58751e-01,9.94141e-01
9.767536566e-01,4.54363e-01,9.99999e-01,4.75648e-01,9.59549e-01,9.95519e-01
9.816374249e-01,5.47639e-01,9.99999e-01,5.71146e-01,9.60332e-01,9.98447e-01
9.865456120e-01,6.74770e-01,9.99999e-01,7.02307e-01,9.61100e-01,9.99676e-01
9.914783401e-01,7.71917e-01,9.99999e-01,8.02602e-01,9.61854e-01,9.99909e-01
9.964357318e-01,8.53792e-01,9.99999e-01,8.87017e-01,9.62593e-01,9.99947e-01
1.001417910e+00,8.96318e-01,9.99999e-01,9.30523e-01,9.63318e-01,9.99919e-01
1.006425000e+00,9.25158e-01,9.99999e-01,9.59787e-01,9.64029e-01,9.99885e-01
1.011457125e+00,9.40329e-01,9.99999e-01,9.74812e-01,9.64727e-01,9.99893e-01
1.016514411e+00,9.48777e-01,9.99999e-01,9.82842e-01,9.65412e-01,9.99924e-01
1.021596983e+00,9.52787e-01,9.99999e-01,9.86310e-01,9.66083e-01,9.99924e-01
1.026704968e+00,9.56360e-01,9.99999e-01,9.89310e-01,9.66742e-01,9.99949e-01
1.031838492e+00,9.59840e-01,9.99999e-01,9.92211e-01,9.67388e-01,9.99985e-01
1.036997685e+00,9.63541e-01,9.99999e-01,9.95372e-01,9.68022e-01,9.99997e-01
1.042182673e+00,9.63312e-01,9.99999e-01,9.94497e-01,9.68643e-01,9.99998e-01
1.047393587e+00,9.62177e-01,9.99999e-01,9.92700e-01,9.69253e-01,9.99998e-01
1.052630555e+00,9.60155e-01,9.99999e-01,9.90004e-01,9.69851e-01,9.99997e-01
1.057893707e+00,9.54312e-01,9.99999e-01,9.83388e-01,9.70438e-01,9.99993e-01
1.063183176e+00,9.44603e-01,9.99999e-01,9.72815e-01,9.71013e-01,9.99985e-01
1.068499092e+00,9.27732e-01,9.99999e-01,9.54901e-01,9.71577e-01,9.99968e-01
1.073841587e+00,9.21182e-01,9.99999e-01,9.47654e-01,9.72131e-01,9.99931e-01
1.079210795e+00,9.07493e-01,9.99999e-01,9.33159e-01,9.72674e-01,9.99815e-01
1.084606849e+00,8.76428e-01,9.99999e-01,9.00957e-01,9.73206e-01,9.99555e-01
1.090029883e+00,8.38671e-01,9.99999e-01,8.62092e-01,9.73728e-01,9.99078e-01
1.095480033e+00,6.49746e-01,9.99999e-01,6.68037e-01,9.74241e-01,9.98334e-01
1.100957433e+00,3.60406e-01,9.99999e-01,3.70880e-01,9.74743e-01,9.96936e-01
1.106462220e+00,9.73017e-02,9.99999e-01,1.00293e-01,9.75235e-01,9.94809e-01
1.111994531e+00,9.03976e-03,9.99999e-01,9.39359e-03,9.75719e-01,9.86279e-01
1.117554504e+00,8.60550e-04,9.99999e-01,9.26621e-04,9.76192e-01,9.51344e-01
1.123142276e+00,8.39857e-03,9.99999e-01,9.67905e-03,9.76657e-01,8.88443e-01
1.128757988e+00,2.59437e-02,9.99999e-01,3.04448e-02,9.77113e-01,8.72113e-01
1.134401778e+00,1.39204e-02,9.99999e-01,1.59971e-02,9.77560e-01,8.90161e-01
1.140073787e+00,9.33091e-02,9.99999e-01,1.04703e-01,9.77998e-01,9.11226e-01
1.145774156e+00,1.61675e-02,9.99999e-01,1.79916e-02,9.78428e-01,9.18425e-01
1.151503026e+00,9.77886e-03,9.99999e-01,1.04751e-02,9.78850e-01,9.53701e-01
1.157260541e+00,1.26595e-02,9.99999e-01,1.31121e-02,9.79263e-01,9.85926e-01
1.163046844e+00,3.82569e-02,9.99999e-01,3.92080e-02,9.79668e-01,9.95990e-01
1.168862078e+00,9.08621e-02,9.99999e-01,9.29021e-02,9.80066e-01,9.97932e-01
1.174706389e+00,2.21073e-01,9.99999e-01,2.26099e-01,9.80456e-01,9.97260e-01
1.180579921e+00,3.89114e-01,9.99999e-01,3.98365e-01,9.80838e-01,9.95860e-01
1.186482820e+00,5.74624e-01,9.99999e-01,5.88124e-01,9.81213e-01,9.95751e-01
1.192415234e+00,7.16043e-01,9.99999e-01,7.31809e-01,9.81581e-01,9.96816e-01
1.198377311e+00,7.52962e-01,9.99999e-01,7.69122e-01,9.81941e-01,9.96992e-01
1.204369197e+00,7.65784e-01,9.99999e-01,7.81713e-01,9.82295e-01,9.97278e-01
1.210391043e+00,7.74086e-01,9.99999e-01,7.89067e-01,9.82641e-01,9.98343e-01
1.216442998e+00,8.02552e-01,9.99999e-01,8.17275e-01,9.82981e-01,9.98984e-01
1.222525213e+00,8.39206e-01,9.99999e-01,8.53983e-01,9.83315e-01,9.99369e-01
1.228637839e+00,8.81177e-01,9.99999e-01,8.96093e-01,9.83641e-01,9.99706e-01
1.234781029e+00,9.06875e-01,9.99999e-01,9.21733e-01,9.83962e-01,9.99915e-01
1.240954934e+00,9.34819e-01,9.99999e-01,9.49774e-01,9.84276e-01,9.99976e-01
1.247159708e+00,9.45792e-01,9.99999e-01,9.60614e-01,9.84584e-01,9.99984e-01
1.253395507e+00,9.50381e-01,9.99999e-01,9.64983e-01,9.84886e-01,9.99979e-01
1.259662485e+00,9.52398e-01,9.99999e-01,9.66751e-01,9.85183e-01,9.99968e-01
1.265960797e+00,9.33576e-01,9.99999e-01,9.47386e-01,9.85473e-01,9.99947e-01
1.272290601e+00,9.10539e-01,9.99999e-01,9.23779e-01,9.85758e-01,9.99907e-01
1.278652054e+00,8.34769e-01,9.99999e-01,8.46727e-01,9.86037e-01,9.99836e-01
1.285045314e+00,7.60510e-01,9.99999e-01,7.71300e-01,9.86311e-01,9.99694e-01
1.291470541e+00,5.86583e-01,9.99999e-01,5.94880e-01,9.86580e-01,9.99463e-01
1.297927893e+00,5.05848e-01,9.99999e-01,5.13105e-01,9.86843e-01,9.98999e-01
1.304417533e+00,4.20090e-01,9.99999e-01,4.26483e-01,9.87101e-01,9.97881e-01
1.310939621e+00,3.72408e-01,9.99999e-01,3.78823e-01,9.87355e-01,9.95655e-01
1.317494319e+00,3.42859e-01,9.99999e-01,3.49970e-01,9.87603e-01,9.91978e-01
1.324081790e+00,2.15761e-01,9.99999e-01,2.21306e-01,9.87846e-01,9.86936e-01
1.330702199e+00,3.07732e-02,9.99999e-01,3.18585e-02,9.88085e-01,9.77582e-01
1.337355710e+00,3.51122e-06,9.99999e-01,3.71128e-06,9.88319e-01,9.57275e-01
1.344042489e+00,4.83437e-09,9.99999e-01,5.57775e-09,9.88548e-01,8.76763e-01
1.350762701e+00,7.00683e-30,9.99999e-01,1.11168e-29,9.88773e-01,6.37447e-01
1.357516515e+00,1.84132e-45,9.99999e-01,6.97989e-45,9.88993e-01,2.66738e-01
1.364304097e+00,4.95329e-28,9.99999e-01,5.07497e-27,9.89210e-01,9.86667e-02
1.371125618e+00,5.92480e-17,9.99999e-01,5.31603e-16,9.89422e-01,1.12643e-01
1.377981246e+00,2.52057e-16,9.99999e-01,1.65538e-15,9.89630e-01,1.53860e-01
1.384871152e+00,5.22547e-23,9.99999e-01,3.07744e-22,9.89833e-01,1.71543e-01
1.391795508e+00,3.23450e-28,9.99999e-01,1.73341e-27,9.90033e-01,1.88476e-01
1.398754485e+00,1.84728e-21,9.99999e-01,7.36563e-21,9.90229e-01,2.53271e-01
1.405748258e+00,3.38777e-21,9.99999e-01,7.63402e-21,9.90421e-01,4.48063e-01
1.412776999e+00,1.92467e-20,9.99998e-01,2.80312e-20,9.90609e-01,6.93125e-01
1.419840884e+00,3.39493e-20,9.99998e-01,4.02389e-20,9.90794e-01,8.51531e-01
1.426940089e+00,2.88327e-13,9.99998e-01,3.28738e-13,9.90975e-01,8.85058e-01
1.434074789e+00,8.52589e-12,9.99998e-01,9.93513e-12,9.91152e-01,8.65815e-01
1.441245163e+00,9.34783e-10,9.99998e-01,1.10223e-09,9.91326e-01,8.55503e-01
1.448451389e+00,1.26311e-06,9.99997e-01,1.46048e-06,9.91497e-01,8.72276e-01
1.455693646e+00,9.64855e-05,9.99998e-01,1.08212e-04,9.91664e-01,8.99129e-01
1.462972114e+00,1.35523e-04,9.99999e-01,1.51223e-04,9.91828e-01,9.03565e-01
1.470286975e+00,4.36377e-05,9.99999e-01,4.86010e-05,9.91989e-01,9.05126e-01
