#,Wave/freq,Total,N2,H2O,Rayleigh,CIA
4.000000000e-01,5.86687e-01,9.99999e-01,9.99939e-01,5.86722e-01,9.99999e-01
4.020000000e-01,5.92919e-01,9.99999e-01,9.99962e-01,5.92941e-01,9.99999e-01
4.040100000e-01,5.99084e-01,9.99999e-01,9.99983e-01,5.99094e-01,9.99999e-01
4.060300500e-01,6.05185e-01,9.99999e-01,9.99995e-01,6.05187e-01,9.99999e-01
4.080602003e-01,6.11220e-01,9.99999e-01,9.99998e-01,6.11221e-01,9.99999e-01
4.101005013e-01,6.17193e-01,9.99999e-01,9.99999e-01,6.17193e-01,9.99999e-01
4.121510038e-01,6.23103e-01,9.99999e-01,9.99997e-01,6.23105e-01,9.99999e-01
4.142117588e-01,6.28943e-01,9.99999e-01,9.99982e-01,6.28954e-01,9.99999e-01
4.162828176e-01,6.34694e-01,9.99999e-01,9.99925e-01,6.34741e-01,9.99999e-01
4.183642317e-01,6.40437e-01,9.99999e-01,9.99955e-01,6.40466e-01,9.99999e-01
4.204560528e-01,6.46110e-01,9.99999e-01,9.99972e-01,6.46127e-01,9.99999e-01
4.225583331e-01,6.51719e-01,9.99999e-01,9.99989e-01,6.51725e-01,9.99999e-01
4.246711247e-01,6.57255e-01,9.99999e-01,9.99991e-01,6.57260e-01,9.99999e-01
4.267944804e-01,6.62723e-01,9.99999e-01,9.99987e-01,6.62731e-01,9.99999e-01
4.289284528e-01,6.68132e-01,9.99999e-01,9.99990e-01,6.68139e-01,9.99999e-01
4.310730950e-01,6.73479e-01,9.99999e-01,9.99995e-01,6.73482e-01,9.99999e-01
4.332284605e-01,6.78760e-01,9.99999e-01,9.99998e-01,6.78761e-01,9.99999e-01
4.353946028e-01,6.83976e-01,9.99999e-01,9.99999e-01,6.83976e-01,9.99999e-01
4.375715758e-01,6.89122e-01,9.99999e-01,9.99991e-01,6.89127e-01,9.99999e-01
4.397594337e-01,6.94168e-01,9.99999e-01,9.99933e-01,6.94214e-01,9.99999e-01
4.419582309e-01,6.99001e-01,9.99999e-01,9.99663e-01,6.99236e-01,9.99999e-01
4.441680220e-01,7.04014e-01,9.99999e-01,9.99741e-01,7.04195e-01,9.99999e-01
4.463888621e-01,7.08899e-01,9.99999e-01,9.99729e-01,7.09090e-01,9.99999e-01
4.486208064e-01,7.13802e-01,9.99999e-01,9.99832e-01,7.13922e-01,9.99999e-01
4.508639105e-01,7.18633e-01,9.99999e-01,9.99921e-01,7.18689e-01,9.99999e-01
4.531182300e-01,7.23372e-01,9.99999e-01,9.99968e-01,7.23394e-01,9.99999e-01
4.553838212e-01,7.28020e-01,9.99999e-01,9.99978e-01,7.28036e-01,9.99999e-01
4.576607403e-01,7.32607e-01,9.99999e-01,9.99989e-01,7.32614e-01,9.99999e-01
4.599490440e-01,7.37126e-01,9.99999e-01,9.99992e-01,7.37131e-01,9.99999e-01
4.622487892e-01,7.41584e-01,9.99999e-01,9.99998e-01,7.41585e-01,9.99999e-01
4.645600332e-01,7.45973e-01,9.99999e-01,9.99994e-01,7.45977e-01,9.99999e-01
4.668828333e-01,7.50248e-01,9.99999e-01,9.99919e-01,7.50308e-01,9.99999e-01
4.692172475e-01,7.54450e-01,9.99999e-01,9.99830e-01,7.54577e-01,9.99999e-01
4.715633337e-01,7.58702e-01,9.99999e-01,9.99888e-01,7.58786e-01,9.99999e-01
4.739211504e-01,7.62854e-01,9.99999e-01,9.99893e-01,7.62935e-01,9.99999e-01
4.762907561e-01,7.66981e-01,9.99999e-01,9.99944e-01,7.67023e-01,9.99999e-01
4.786722099e-01,7.71035e-01,9.99999e-01,9.99977e-01,7.71052e-01,9.99999e-01
4.810655710e-01,7.75017e-01,9.99999e-01,9.99992e-01,7.75022e-01,9.99999e-01
4.834708988e-01,7.78882e-01,9.99999e-01,9.99933e-01,7.78934e-01,9.99999e-01
4.858882533e-01,7.82693e-01,9.99999e-01,9.99880e-01,7.82787e-01,9.99999e-01
4.883176946e-01,7.86504e-01,9.99999e-01,9.99899e-01,7.86583e-01,9.99999e-01
4.907592831e-01,7.90250e-01,9.99999e-01,9.99909e-01,7.90321e-01,9.99999e-01
4.932130795e-01,7.93952e-01,9.99999e-01,9.99935e-01,7.94003e-01,9.99999e-01
4.956791449e-01,7.97602e-01,9.99999e-01,9.99965e-01,7.97629e-01,9.99999e-01
4.981575406e-01,8.01063e-01,9.99999e-01,9.99828e-01,8.01200e-01,9.99999e-01
5.006483283e-01,8.04355e-01,9.99999e-01,9.99554e-01,8.04715e-01,9.99996e-01
5.031515699e-01,8.06348e-01,9.99999e-01,9.97761e-01,8.08176e-01,9.99976e-01
5.056673278e-01,8.10605e-01,9.99999e-01,9.98821e-01,8.11583e-01,9.99972e-01
5.081956644e-01,8.13712e-01,9.99999e-01,9.98513e-01,8.14936e-01,9.99983e-01
5.107366428e-01,8.17414e-01,9.99999e-01,9.98996e-01,8.18237e-01,9.99996e-01
5.132903260e-01,8.21015e-01,9.99999e-01,9.99427e-01,8.21486e-01,9.99999e-01
5.158567776e-01,8.24484e-01,9.99999e-01,9.99758e-01,8.24683e-01,9.99999e-01
5.184360615e-01,8.27749e-01,9.99999e-01,9.99902e-01,8.27829e-01,9.99999e-01
5.210282418e-01,8.30894e-01,9.99999e-01,9.99963e-01,8.30924e-01,9.99999e-01
5.236333830e-01,8.33847e-01,9.99999e-01,9.99853e-01,8.33970e-01,9.99998e-01
5.262515499e-01,8.36888e-01,9.99999e-01,9.99908e-01,8.36966e-01,9.99998e-01
5.288828077e-01,8.39842e-01,9.99999e-01,9.99915e-01,8.39913e-01,9.99998e-01
5.315272217e-01,8.42751e-01,9.99999e-01,9.99926e-01,8.42812e-01,9.99999e-01
5.341848578e-01,8.45623e-01,9.99999e-01,9.99951e-01,8.45664e-01,9.99999e-01
5.368557821e-01,8.48324e-01,9.99999e-01,9.99829e-01,8.48469e-01,9.99999e-01
5.395400610e-01,8.50696e-01,9.99999e-01,9.99381e-01,8.51227e-01,9.99993e-01
5.422377613e-01,8.53253e-01,9.99999e-01,9.99210e-01,8.53940e-01,9.99985e-01
5.449489501e-01,8.55962e-01,9.99999e-01,9.99260e-01,8.56607e-01,9.99984e-01
5.476736949e-01,8.58666e-01,9.99999e-01,9.99349e-01,8.59230e-01,9.99992e-01
5.504120634e-01,8.61401e-01,9.99999e-01,9.99527e-01,8.61809e-01,9.99997e-01
5.531641237e-01,8.64139e-01,9.99999e-01,9.99762e-01,8.64344e-01,9.99999e-01
5.559299443e-01,8.66738e-01,9.99999e-01,9.99885e-01,8.66837e-01,9.99999e-01
5.587095940e-01,8.69224e-01,9.99999e-01,9.99927e-01,8.69287e-01,9.99999e-01
5.615031420e-01,8.71626e-01,9.99999e-01,9.99919e-01,8.71696e-01,9.99999e-01
5.643106577e-01,8.73982e-01,9.99999e-01,9.99907e-01,8.74063e-01,9.99998e-01
5.671322110e-01,8.75398e-01,9.99999e-01,9.98877e-01,8.76390e-01,9.99989e-01
5.699678720e-01,8.77625e-01,9.99999e-01,9.98832e-01,8.78677e-01,9.99969e-01
5.728177114e-01,8.79822e-01,9.99999e-01,9.98773e-01,8.80925e-01,9.99974e-01
5.756818000e-01,8.82129e-01,9.99999e-01,9.98876e-01,8.83134e-01,9.99984e-01
5.785602090e-01,8.84435e-01,9.99999e-01,9.99021e-01,8.85304e-01,9.99995e-01
5.814530100e-01,8.86562e-01,9.99999e-01,9.99015e-01,8.87437e-01,9.99997e-01
5.843602750e-01,8.88478e-01,9.99999e-01,9.98819e-01,8.89533e-01,9.99992e-01
5.872820764e-01,8.82510e-01,9.99999e-01,9.89883e-01,8.91592e-01,9.99928e-01
5.902184868e-01,8.82570e-01,9.99999e-01,9.87830e-01,8.93615e-01,9.99806e-01
5.931695792e-01,8.87713e-01,9.99999e-01,9.91374e-01,8.95603e-01,9.99813e-01
5.961354271e-01,8.88988e-01,9.99999e-01,9.90560e-01,8.97555e-01,9.99892e-01
5.991161043e-01,8.93249e-01,9.99999e-01,9.93112e-01,8.99473e-01,9.99966e-01
6.021116848e-01,8.97831e-01,9.99999e-01,9.96090e-01,9.01358e-01,9.99995e-01
6.051222432e-01,9.01421e-01,9.99999e-01,9.98020e-01,9.03209e-01,9.99999e-01
6.081478544e-01,9.04253e-01,9.99999e-01,9.99145e-01,9.05027e-01,9.99999e-01
6.111885937e-01,9.06485e-01,9.99999e-01,9.99638e-01,9.06812e-01,9.99999e-01
6.142445367e-01,9.08420e-01,9.99999e-01,9.99838e-01,9.08566e-01,9.99999e-01
6.173157594e-01,9.10208e-01,9.99999e-01,9.99910e-01,9.10289e-01,9.99999e-01
6.204023382e-01,9.11911e-01,9.99999e-01,9.99923e-01,9.11980e-01,9.99999e-01
6.235043498e-01,9.13333e-01,9.99999e-01,9.99662e-01,9.13641e-01,9.99998e-01
6.266218716e-01,9.13649e-01,9.99999e-01,9.98237e-01,9.15273e-01,9.99987e-01
6.297549810e-01,9.16259e-01,9.99999e-01,9.99353e-01,9.16875e-01,9.99974e-01
6.329037559e-01,9.17259e-01,9.99999e-01,9.98725e-01,9.18448e-01,9.99979e-01
6.360682746e-01,9.18980e-01,9.99999e-01,9.98910e-01,9.19992e-01,9.99987e-01
6.392486160e-01,9.20206e-01,9.99999e-01,9.98590e-01,9.21509e-01,9.99994e-01
6.424448591e-01,9.21238e-01,9.99999e-01,9.98101e-01,9.22998e-01,9.99990e-01
6.456570834e-01,9.16292e-01,9.99999e-01,9.91216e-01,9.24460e-01,9.99946e-01
6.488853688e-01,9.19865e-01,9.99999e-01,9.93620e-01,9.25895e-01,9.99863e-01
6.521297956e-01,9.21174e-01,9.99999e-01,9.93500e-01,9.27305e-01,9.99887e-01
6.553904446e-01,9.22576e-01,9.99999e-01,9.93500e-01,9.28688e-01,9.99916e-01
6.586673968e-01,9.24861e-01,9.99999e-01,9.94452e-01,9.30046e-01,9.99971e-01
6.619607338e-01,9.28492e-01,9.99999e-01,9.96905e-01,9.31379e-01,9.99993e-01
6.652705375e-01,9.30952e-01,9.99999e-01,9.98141e-01,9.32688e-01,9.99996e-01
6.685968902e-01,9.33235e-01,9.99999e-01,9.99210e-01,9.33973e-01,9.99999e-01
6.719398746e-01,9.34860e-01,9.99999e-01,9.99599e-01,9.35234e-01,9.99999e-01
6.752995740e-01,9.36274e-01,9.99999e-01,9.99788e-01,9.36471e-01,9.99999e-01
6.786760719e-01,9.37390e-01,9.99999e-01,9.99683e-01,9.37686e-01,9.99999e-01
6.820694522e-01,9.38371e-01,9.99999e-01,9.99461e-01,9.38879e-01,9.99996e-01
6.854797995e-01,9.39391e-01,9.99999e-01,9.99305e-01,9.40049e-01,9.99993e-01
6.889071985e-01,9.39584e-01,9.99999e-01,9.98299e-01,9.41198e-01,9.99984e-01
6.923517345e-01,9.16588e-01,9.99999e-01,9.72815e-01,9.42325e-01,9.99868e-01
6.958134932e-01,9.29969e-01,9.99999e-01,9.86016e-01,9.43431e-01,9.99708e-01
6.992925606e-01,9.31498e-01,9.99999e-01,9.86474e-01,9.44517e-01,9.99737e-01
7.027890234e-01,9.29728e-01,9.99999e-01,9.83429e-01,9.45583e-01,9.99799e-01
7.063029686e-01,9.33317e-01,9.99999e-01,9.86035e-01,9.46628e-01,9.99900e-01
7.098344834e-01,9.34898e-01,9.99999e-01,9.86596e-01,9.47654e-01,9.99940e-01
7.133836558e-01,9.31501e-01,9.99999e-01,9.82025e-01,9.48661e-01,9.99882e-01
7.169505741e-01,8.21597e-01,9.99999e-01,8.65955e-01,9.49649e-01,9.99079e-01
7.205353270e-01,8.85249e-01,9.99999e-01,9.32748e-01,9.50619e-01,9.98376e-01
7.241380036e-01,8.68723e-01,9.99999e-01,9.14217e-01,9.51570e-01,9.98597e-01
7.277586936e-01,8.77524e-01,9.99999e-01,9.22337e-01,9.52504e-01,9.98853e-01
7.313974871e-01,8.74602e-01,9.99999e-01,9.17824e-01,9.53420e-01,9.99462e-01
7.350544745e-01,9.10365e-01,9.99999e-01,9.54120e-01,9.54318e-01,9.99812e-01
7.387297469e-01,9.22655e-01,9.99999e-01,9.66010e-01,9.55200e-01,9.99914e-01
7.424233956e-01,9.40034e-01,9.99999e-01,9.83246e-01,9.56065e-01,9.99984e-01
7.461355126e-01,9.47153e-01,9.99999e-01,9.89801e-01,9.56914e-01,9.99996e-01
7.498661902e-01,9.53198e-01,9.99999e-01,9.95250e-01,9.57747e-01,9.99998e-01
7.536155211e-01,9.56323e-01,9.99999e-01,9.97662e-01,9.58564e-01,9.99998e-01
7.573835987e-01,9.58211e-01,9.99999e-01,9.98796e-01,9.59366e-01,9.99999e-01
7.611705167e-01,9.59434e-01,9.99999e-01,9.99251e-01,9.60152e-01,9.99999e-01
7.649763693e-01,9.60473e-01,9.99999e-01,9.99530e-01,9.60924e-01,9.99999e-01
7.688012511e-01,9.61366e-01,9.99999e-01,9.99672e-01,9.61680e-01,9.99999e-01
7.726452574e-01,9.62164e-01,9.99999e-01,9.99730e-01,9.62423e-01,9.99999e-01
7.765084837e-01,9.62780e-01,9.99999e-01,9.99614e-01,9.63151e-01,9.99999e-01
7.803910261e-01,9.62259e-01,9.99999e-01,9.98334e-01,9.63866e-01,9.99997e-01
7.842929812e-01,9.58958e-01,9.99999e-01,9.94195e-01,9.64567e-01,9.99988e-01
7.882144461e-01,9.53742e-01,9.99999e-01,9.88153e-01,9.65254e-01,9.99917e-01
7.921555184e-01,9.59530e-01,9.99999e-01,9.93515e-01,9.65929e-01,9.99857e-01
7.961162960e-01,9.55310e-01,9.99999e-01,9.88462e-01,9.66590e-01,9.99864e-01
8.000968774e-01,9.54276e-01,9.99999e-01,9.86738e-01,9.67239e-01,9.99855e-01
8.040973618e-01,9.54920e-01,9.99999e-01,9.86722e-01,9.67876e-01,9.99890e-01
8.081178486e-01,9.39550e-01,9.99999e-01,9.70215e-01,9.68500e-01,9.99888e-01
8.121584379e-01,8.54637e-01,9.99999e-01,8.82245e-01,9.69113e-01,9.99579e-01
8.162192301e-01,8.35580e-01,9.99999e-01,8.63039e-01,9.69714e-01,9.98420e-01
8.203003262e-01,9.00062e-01,9.99999e-01,9.29327e-01,9.70303e-01,9.98150e-01
8.244018279e-01,8.77372e-01,9.99999e-01,9.05017e-01,9.70881e-01,9.98527e-01
8.285238370e-01,8.87992e-01,9.99999e-01,9.15148e-01,9.71448e-01,9.98843e-01
8.326664562e-01,8.88611e-01,9.99999e-01,9.14642e-01,9.72004e-01,9.99521e-01
8.368297885e-01,9.12268e-01,9.99999e-01,9.38119e-01,9.72549e-01,9.99890e-01
8.410139374e-01,9.36770e-01,9.99999e-01,9.62743e-01,9.73084e-01,9.99935e-01
8.452190071e-01,9.55623e-01,9.99999e-01,9.81563e-01,9.73608e-01,9.99961e-01
8.494451021e-01,9.63602e-01,9.99999e-01,9.89229e-01,9.74123e-01,9.99968e-01
8.536923276e-01,9.68406e-01,9.99999e-01,9.93634e-01,9.74627e-01,9.99980e-01
8.579607893e-01,9.71283e-01,9.99999e-01,9.96066e-01,9.75122e-01,9.99995e-01
8.622505932e-01,9.73172e-01,9.99999e-01,9.97504e-01,9.75608e-01,9.99998e-01
8.665618462e-01,9.74572e-01,9.99999e-01,9.98451e-01,9.76084e-01,9.99999e-01
8.708946554e-01,9.74815e-01,9.99999e-01,9.98223e-01,9.76550e-01,9.99998e-01
8.752491287e-01,9.74687e-01,9.99999e-01,9.97625e-01,9.77008e-01,9.99997e-01
8.796253743e-01,9.74230e-01,9.99999e-01,9.96705e-01,9.77457e-01,9.99992e-01
8.840235012e-01,9.74199e-01,9.99999e-01,9.96239e-01,9.77897e-01,9.99976e-01
8.884436187e-01,9.64763e-01,9.99999e-01,9.86197e-01,9.78329e-01,9.99934e-01
8.928858368e-01,8.47205e-01,9.99999e-01,8.65920e-01,9.78753e-01,9.99624e-01
8.973502660e-01,7.59722e-01,9.99999e-01,7.77378e-01,9.79168e-01,9.98078e-01
9.018370173e-01,8.59556e-01,9.99999e-01,8.80134e-01,9.79575e-01,9.96980e-01
9.063462024e-01,8.71894e-01,9.99999e-01,8.92076e-01,9.79975e-01,9.97347e-01
9.108779334e-01,8.18866e-01,9.99999e-01,8.37573e-01,9.80366e-01,9.97243e-01
9.154323231e-01,7.99860e-01,9.99999e-01,8.17420e-01,9.80750e-01,9.97721e-01
9.200094847e-01,8.37371e-01,9.99999e-01,8.54568e-01,9.81127e-01,9.98723e-01
9.246095321e-01,7.69278e-01,9.99999e-01,7.84934e-01,9.81496e-01,9.98529e-01
9.292325798e-01,2.12851e-01,9.99999e-01,2.18328e-01,9.81858e-01,9.92922e-01
9.338787427e-01,1.36361e-01,9.99999e-01,1.42440e-01,9.82213e-01,9.74653e-01
9.385481364e-01,4.32076e-01,9.99999e-01,4.52323e-01,9.82562e-01,9.72187e-01
9.432408771e-01,3.28033e-01,9.99999e-01,3.41959e-01,9.82903e-01,9.75959e-01
9.479570815e-01,2.19888e-01,9.99999e-01,2.28109e-01,9.83238e-01,9.80390e-01
9.526968669e-01,3.10850e-01,9.99999e-01,3.19884e-01,9.83566e-01,9.87992e-01
9.574603512e-01,3.30465e-01,9.99999e-01,3.37943e-01,9.83888e-01,9.93882e-01
9.622476530e-01,4.00553e-01,9.99999e-01,4.08712e-01,9.84204e-01,9.95765e-01
9.670588912e-01,5.83042e-01,9.99999e-01,5.93934e-01,9.84513e-01,9.97102e-01
9.718941857e-01,7.03976e-01,9.99999e-01,7.16357e-01,9.84817e-01,9.97865e-01
9.767536566e-01,7.45268e-01,9.99999e-01,7.57764e-01,9.85115e-01,9.98368e-01
9.816374249e-01,8.01478e-01,9.99999e-01,8.13806e-01,9.85406e-01,9.99434e-01
9.865456120e-01,8.66274e-01,9.99999e-01,8.78950e-01,9.85693e-01,9.99881e-01
9.914783401e-01,9.10195e-01,9.99999e-01,9.23173e-01,9.85973e-01,9.99966e-01
9.964357318e-01,9.44223e-01,9.99999e-01,9.57405e-01,9.86248e-01,9.99980e-01
1.001417910e+00,9.61085e-01,9.99999e-01,9.74247e-01,9.86518e-01,9.99970e-01
1.006425000e+00,9.72149e-01,9.99999e-01,9.85211e-01,9.86783e-01,9.99958e-01
1.011457125e+00,9.77939e-01,9.99999e-01,9.90815e-01,9.87042e-01,9.99961e-01
1.016514411e+00,9.81098e-01,9.99999e-01,9.93748e-01,9.87296e-01,9.99972e-01
1.021596983e+00,9.82595e-01,9.99999e-01,9.95013e-01,9.87546e-01,9.99972e-01
1.026704968e+00,9.83929e-01,9.99999e-01,9.96107e-01,9.87790e-01,9.99982e-01
1.031838492e+00,9.85233e-01,9.99999e-01,9.97174e-01,9.88030e-01,9.99994e-01
1.036997685e+00,9.86602e-01,9.99999e-01,9.98317e-01,9.88265e-01,9.99998e-01
1.042182673e+00,9.86507e-01,9.99999e-01,9.97988e-01,9.88495e-01,9.99999e-01
1.047393587e+00,9.86089e-01,9.99999e-01,9.97337e-01,9.88721e-01,9.99999e-01
1.052630555e+00,9.85327e-01,9.99999e-01,9.96344e-01,9.88943e-01,9.99998e-01
1.057893707e+00,9.83121e-01,9.99999e-01,9.93896e-01,9.89160e-01,9.99997e-01
1.063183176e+00,9.79459e-01,9.99999e-01,9.89984e-01,9.89373e-01,9.99994e-01
1.068499092e+00,9.73050e-01,9.99999e-01,9.83305e-01,9.89582e-01,9.99988e-01
1.073841587e+00,9.70437e-01,9.99999e-01,9.80474e-01,9.89786e-01,9.99974e-01
1.079210795e+00,9.65270e-01,9.99999e-01,9.75098e-01,9.89987e-01,9.99932e-01
1.084606849e+00,9.52916e-01,9.99999e-01,9.62517e-01,9.90184e-01,9.99837e-01
1.090029883e+00,9.37017e-01,9.99999e-01,9.46438e-01,9.90377e-01,9.99664e-01
1.095480033e+00,8.52364e-01,9.99999e-01,8.61002e-01,9.90566e-01,9.99393e-01
1.100957433e+00,6.78958e-01,9.99999e-01,6.86060e-01,9.90751e-01,9.98884e-01
1.106462220e+00,3.91187e-01,9.99999e-01,3.95513e-01,9.90933e-01,9.98109e-01
1.111994531e+00,1.47601e-01,9.99999e-01,1.49674e-01,9.91112e-01,9.94989e-01
1.117554504e+00,4.93858e-02,9.99999e-01,5.07314e-02,9.91286e-01,9.82030e-01
1.123142276e+00,1.22380e-01,9.99999e-01,1.28857e-01,9.91458e-01,9.57912e-01
1.128757988e+00,2.28722e-01,9.99999e-01,2.42416e-01,9.91626e-01,9.51473e-01
1.134401778e+00,1.04543e-01,9.99999e-01,1.09962e-01,9.91790e-01,9.58584e-01
1.140073787e+00,3.97203e-01,9.99999e-01,4.14189e-01,9.91952e-01,9.66769e-01
1.145774156e+00,1.70285e-01,9.99999e-01,1.77031e-01,9.92110e-01,9.69539e-01
1.151503026e+00,1.43973e-01,9.99999e-01,1.47617e-01,9.92265e-01,9.82914e-01
1.157260541e+00,1.80513e-01,9.99999e-01,1.82831e-01,9.92418e-01,9.94860e-01
1.163046844e+00,2.79650e-01,9.99999e-01,2.82156e-01,9.92567e-01,9.98540e-01
1.168862078e+00,4.02578e-01,9.99999e-01,4.05838e-01,9.92713e-01,9.99247e-01
1.174706389e+00,5.67571e-01,9.99999e-01,5.72224e-01,9.92857e-01,9.99002e-01
1.180579921e+00,7.04642e-01,9.99999e-01,7.10681e-01,9.92997e-01,9.98492e-01
1.186482820e+00,8.16481e-01,9.99999e-01,8.23397e-01,9.93135e-01,9.98452e-01
1.192415234e+00,8.85451e-01,9.99999e-01,8.92483e-01,9.93270e-01,9.98841e-01
1.198377311e+00,9.01519e-01,9.99999e-01,9.08499e-01,9.93403e-01,9.98905e-01
1.204369197e+00,9.06661e-01,9.99999e-01,9.13467e-01,9.93532e-01,9.99009e-01
1.210391043e+00,9.10612e-01,9.99999e-01,9.16974e-01,9.93660e-01,9.99397e-01
1.216442998e+00,9.22922e-01,9.99999e-01,9.29036e-01,9.93785e-01,9.99630e-01
1.222525213e+00,9.38228e-01,9.99999e-01,9.44195e-01,9.93907e-01,9.99770e-01
1.228637839e+00,9.55040e-01,9.99999e-01,9.60880e-01,9.94027e-01,9.99892e-01
1.234781029e+00,9.65121e-01,9.99999e-01,9.70835e-01,9.94145e-01,9.99969e-01
1.240954934e+00,9.75803e-01,9.99999e-01,9.81444e-01,9.94260e-01,9.99990e-01
1.247159708e+00,9.79979e-01,9.99999e-01,9.85529e-01,9.94373e-01,9.99994e-01
1.253395507e+00,9.81676e-01,9.99999e-01,9.87128e-01,9.94484e-01,9.99992e-01
1.259662485e+00,9.82395e-01,9.99999e-01,9.87747e-01,9.94592e-01,9.99988e-01
1.265960797e+00,9.75313e-01,9.99999e-01,9.80528e-01,9.94699e-01,9.99980e-01
1.272290601e+00,9.64441e-01,9.99999e-01,9.69511e-01,9.94803e-01,9.99965e-01
1.278652054e+00,9.35565e-01,9.99999e-01,9.40410e-01,9.94906e-01,9.99940e-01
1.285045314e+00,8.90134e-01,9.99999e-01,8.94701e-01,9.95006e-01,9.99888e-01
1.291470541e+00,8.19732e-01,9.99999e-01,8.23924e-01,9.95104e-01,9.99804e-01
1.297927893e+00,7.55973e-01,9.99999e-01,7.59894e-01,9.95201e-01,9.99635e-01
1.304417533e+00,7.21012e-01,9.99999e-01,7.24978e-01,9.95295e-01,9.99229e-01
1.310939621e+00,6.62036e-01,9.99999e-01,6.66156e-01,9.95388e-01,9.98418e-01
1.317494319e+00,6.66749e-01,9.99999e-01,6.71740e-01,9.95479e-01,9.97076e-01
1.324081790e+00,5.49916e-01,9.99999e-01,5.55010e-01,9.95568e-01,9.95231e-01
1.330702199e+00,1.59170e-01,9.99999e-01,1.61188e-01,9.95655e-01,9.91791e-01
1.337355710e+00,4.96704e-03,9.99999e-01,5.06809e-03,9.95741e-01,9.84251e-01
1.344042489e+00,1.02396e-04,9.99999e-01,1.07860e-04,9.95825e-01,9.53314e-01
1.350762701e+00,3.61857e-12,9.99999e-01,4.27964e-12,9.95907e-01,8.49005e-01
1.357516515e+00,6.68745e-18,9.99999e-01,1.08552e-17,9.95988e-01,6.18540e-01
1.364304097e+00,1.88309e-11,9.99999e-01,4.38757e-11,9.96067e-01,4.30880e-01
1.371125618e+00,1.60294e-07,9.99999e-01,3.55896e-07,9.96144e-01,4.52138e-01
1.377981246e+00,5.81203e-07,9.99999e-01,1.15205e-06,9.96220e-01,5.06408e-01
1.384871152e+00,8.62261e-10,9.99999e-01,1.63156e-09,9.96295e-01,5.30454e-01
1.391795508e+00,2.06975e-11,9.99999e-01,3.80161e-11,9.96368e-01,5.46424e-01
1.398754485e+00,4.40534e-09,9.99999e-01,7.28348e-09,9.96440e-01,6.07000e-01
1.405748258e+00,5.70477e-09,9.99999e-01,7.66483e-09,9.96510e-01,7.46884e-01
1.412776999e+00,8.04136e-09,9.99999e-01,9.21905e-09,9.96579e-01,8.75248e-01
1.419840884e+00,1.68990e-08,9.99999e-01,1.79760e-08,9.96646e-01,9.43248e-01
1.426940089e+00,3.20152e-06,9.99999e-01,3.35787e-06,9.96712e-01,9.56583e-01
1.434074789e+00,2.89829e-05,9.99999e-01,3.06401e-05,9.96777e-01,9.48969e-01
1.441245163e+00,1.89514e-04,9.99999e-01,2.01212e-04,9.96840e-01,9.44845e-01
1.448451389e+00,2.76903e-03,9.99998e-01,2.91909e-03,9.96903e-01,9.51538e-01
1.455693646e+00,1.78510e-02,9.99999e-01,1.86110e-02,9.96964e-01,9.62084e-01
1.462972114e+00,2.58340e-02,9.99999e-01,2.68841e-02,9.97024e-01,9.63806e-01
1.470286975e+00,1.49251e-02,9.99999e-01,1.55211e-02,9.97082e-01,9.64412e-01
