#,Wave/freq,Total,N2,H2O,Rayleigh,CIA
4.000000000e-01,8.53010e-01,9.99999e-01,9.99981e-01,8.53026e-01,9.99999e-01
4.020000000e-01,8.55701e-01,9.99999e-01,9.99988e-01,8.55711e-01,9.99999e-01
4.040100000e-01,8.58345e-01,9.99999e-01,9.99994e-01,8.58349e-01,9.99999e-01
4.060300500e-01,8.60941e-01,9.99999e-01,9.99998e-01,8.60942e-01,9.99999e-01
4.080602003e-01,8.63492e-01,9.99999e-01,9.99999e-01,8.63492e-01,9.99999e-01
4.101005013e-01,8.65999e-01,9.99999e-01,9.99999e-01,8.65999e-01,9.99999e-01
4.121510038e-01,8.68463e-01,9.99999e-01,9.99998e-01,8.68464e-01,9.99999e-01
4.142117588e-01,8.70882e-01,9.99999e-01,9.99994e-01,8.70886e-01,9.99999e-01
4.162828176e-01,8.73248e-01,9.99999e-01,9.99977e-01,8.73268e-01,9.99999e-01
4.183642317e-01,8.75597e-01,9.99999e-01,9.99986e-01,8.75608e-01,9.99999e-01
4.204560528e-01,8.77902e-01,9.99999e-01,9.99991e-01,8.77909e-01,9.99999e-01
4.225583331e-01,8.80167e-01,9.99999e-01,9.99996e-01,8.80170e-01,9.99999e-01
4.246711247e-01,8.82389e-01,9.99999e-01,9.99997e-01,8.82392e-01,9.99999e-01
4.267944804e-01,8.84572e-01,9.99999e-01,9.99995e-01,8.84575e-01,9.99999e-01
4.289284528e-01,8.86718e-01,9.99999e-01,9.99996e-01,8.86721e-01,9.99999e-01
4.310730950e-01,8.88828e-01,9.99999e-01,9.99998e-01,8.88829e-01,9.99999e-01
4.332284605e-01,8.90900e-01,9.99999e-01,9.99999e-01,8.90900e-01,9.99999e-01
4.353946028e-01,8.92935e-01,9.99999e-01,9.99999e-01,8.92935e-01,9.99999e-01
4.375715758e-01,8.94933e-01,9.99999e-01,9.99997e-01,8.94935e-01,9.99999e-01
4.397594337e-01,8.96882e-01,9.99999e-01,9.99980e-01,8.96899e-01,9.99999e-01
4.419582309e-01,8.98740e-01,9.99999e-01,9.99900e-01,8.98829e-01,9.99999e-01
4.441680220e-01,9.00655e-01,9.99999e-01,9.99922e-01,9.00725e-01,9.99999e-01
4.463888621e-01,9.02514e-01,9.99999e-01,9.99919e-01,9.02587e-01,9.99999e-01
4.486208064e-01,9.04371e-01,9.99999e-01,9.99949e-01,9.04416e-01,9.99999e-01
4.508639105e-01,9.06191e-01,9.99999e-01,9.99976e-01,9.06212e-01,9.99999e-01
4.531182300e-01,9.07969e-01,9.99999e-01,9.99990e-01,9.07977e-01,9.99999e-01
4.553838212e-01,9.09704e-01,9.99999e-01,9.99993e-01,9.09710e-01,9.99999e-01
4.576607403e-01,9.11409e-01,9.99999e-01,9.99996e-01,9.11412e-01,9.99999e-01
4.599490440e-01,9.13082e-01,9.99999e-01,9.99997e-01,9.13083e-01,9.99999e-01
4.622487892e-01,9.14724e-01,9.99999e-01,9.99999e-01,9.14725e-01,9.99999e-01
4.645600332e-01,9.16335e-01,9.99999e-01,9.99998e-01,9.16337e-01,9.99999e-01
4.668828333e-01,9.17898e-01,9.99999e-01,9.99975e-01,9.17919e-01,9.99999e-01
4.692172475e-01,9.19427e-01,9.99999e-01,9.99949e-01,9.19474e-01,9.99999e-01
4.715633337e-01,9.20969e-01,9.99999e-01,9.99966e-01,9.21000e-01,9.99999e-01
4.739211504e-01,9.22469e-01,9.99999e-01,9.99967e-01,9.22498e-01,9.99999e-01
4.762907561e-01,9.23954e-01,9.99999e-01,9.99983e-01,9.23969e-01,9.99999e-01
4.786722099e-01,9.25407e-01,9.99999e-01,9.99992e-01,9.25413e-01,9.99999e-01
4.810655710e-01,9.26829e-01,9.99999e-01,9.99997e-01,9.26831e-01,9.99999e-01
4.834708988e-01,9.28205e-01,9.99999e-01,9.99980e-01,9.28223e-01,9.99999e-01
4.858882533e-01,9.29557e-01,9.99999e-01,9.99963e-01,9.29590e-01,9.99999e-01
4.883176946e-01,9.30904e-01,9.99999e-01,9.99969e-01,9.30932e-01,9.99999e-01
4.907592831e-01,9.32223e-01,9.99999e-01,9.99972e-01,9.32248e-01,9.99999e-01
4.932130795e-01,9.33523e-01,9.99999e-01,9.99980e-01,9.33541e-01,9.99999e-01
4.956791449e-01,9.34801e-01,9.99999e-01,9.99989e-01,9.34810e-01,9.99999e-01
4.981575406e-01,9.36008e-01,9.99999e-01,9.99948e-01,9.36056e-01,9.99999e-01
5.006483283e-01,9.37154e-01,9.99999e-01,9.99867e-01,9.37278e-01,9.99998e-01
5.031515699e-01,9.37846e-01,9.99999e-01,9.99332e-01,9.38478e-01,9.99992e-01
5.056673278e-01,9.39318e-01,9.99999e-01,9.99647e-01,9.39656e-01,9.99991e-01
5.081956644e-01,9.40390e-01,9.99999e-01,9.99555e-01,9.40812e-01,9.99994e-01
5.107366428e-01,9.41663e-01,9.99999e-01,9.99699e-01,9.41946e-01,9.99998e-01
5.132903260e-01,9.42898e-01,9.99999e-01,9.99828e-01,9.43060e-01,9.99999e-01
5.158567776e-01,9.44084e-01,9.99999e-01,9.99927e-01,9.44152e-01,9.99999e-01
5.184360615e-01,9.45197e-01,9.99999e-01,9.99970e-01,9.45225e-01,9.99999e-01
5.210282418e-01,9.46267e-01,9.99999e-01,9.99988e-01,9.46277e-01,9.99999e-01
5.236333830e-01,9.47268e-01,9.99999e-01,9.99956e-01,9.47310e-01,9.99999e-01
5.262515499e-01,9.48297e-01,9.99999e-01,9.99972e-01,9.48323e-01,9.99999e-01
5.288828077e-01,9.49294e-01,9.99999e-01,9.99974e-01,9.49318e-01,9.99999e-01
5.315272217e-01,9.50273e-01,9.99999e-01,9.99977e-01,9.50293e-01,9.99999e-01
5.341848578e-01,9.51237e-01,9.99999e-01,9.99985e-01,9.51251e-01,9.99999e-01
5.368557821e-01,9.52142e-01,9.99999e-01,9.99948e-01,9.52190e-01,9.99999e-01
5.395400610e-01,9.52937e-01,9.99999e-01,9.99816e-01,9.53112e-01,9.99998e-01
5.422377613e-01,9.53788e-01,9.99999e-01,9.99763e-01,9.54017e-01,9.99995e-01
5.449489501e-01,9.54690e-01,9.99999e-01,9.99780e-01,9.54904e-01,9.99995e-01
5.476736949e-01,9.55587e-01,9.99999e-01,9.99805e-01,9.55775e-01,9.99997e-01
5.504120634e-01,9.56494e-01,9.99999e-01,9.99858e-01,9.56629e-01,9.99998e-01
5.531641237e-01,9.57399e-01,9.99999e-01,9.99928e-01,9.57467e-01,9.99999e-01
5.559299443e-01,9.58257e-01,9.99999e-01,9.99965e-01,9.58290e-01,9.99999e-01
5.587095940e-01,9.59076e-01,9.99999e-01,9.99978e-01,9.59096e-01,9.99999e-01
5.615031420e-01,9.59865e-01,9.99999e-01,9.99975e-01,9.59888e-01,9.99999e-01
5.643106577e-01,9.60638e-01,9.99999e-01,9.99972e-01,9.60664e-01,9.99999e-01
5.671322110e-01,9.61106e-01,9.99999e-01,9.99669e-01,9.61426e-01,9.99996e-01
5.699678720e-01,9.61828e-01,9.99999e-01,9.99648e-01,9.62174e-01,9.99990e-01
5.728177114e-01,9.62548e-01,9.99999e-01,9.99634e-01,9.62907e-01,9.99992e-01
5.756818000e-01,9.63299e-01,9.99999e-01,9.99664e-01,9.63626e-01,9.99994e-01
5.785602090e-01,9.64048e-01,9.99999e-01,9.99707e-01,9.64331e-01,9.99998e-01
5.814530100e-01,9.64740e-01,9.99999e-01,9.99706e-01,9.65023e-01,9.99998e-01
5.843602750e-01,9.65363e-01,9.99999e-01,9.99649e-01,9.65702e-01,9.99997e-01
5.872820764e-01,9.63434e-01,9.99999e-01,9.96984e-01,9.66368e-01,9.99978e-01
5.902184868e-01,9.63435e-01,9.99999e-01,9.96348e-01,9.67021e-01,9.99941e-01
5.931695792e-01,9.65112e-01,9.99999e-01,9.97419e-01,9.67662e-01,9.99944e-01
5.961354271e-01,9.65522e-01,9.99999e-01,9.97171e-01,9.68291e-01,9.99967e-01
5.991161043e-01,9.66899e-01,9.99999e-01,9.97936e-01,9.68907e-01,9.99989e-01
6.021116848e-01,9.68376e-01,9.99999e-01,9.98828e-01,9.69512e-01,9.99998e-01
6.051222432e-01,9.69530e-01,9.99999e-01,9.99407e-01,9.70105e-01,9.99999e-01
6.081478544e-01,9.70439e-01,9.99999e-01,9.99744e-01,9.70687e-01,9.99999e-01
6.111885937e-01,9.71152e-01,9.99999e-01,9.99891e-01,9.71257e-01,9.99999e-01
6.142445367e-01,9.71770e-01,9.99999e-01,9.99951e-01,9.71817e-01,9.99999e-01
6.173157594e-01,9.72340e-01,9.99999e-01,9.99972e-01,9.72366e-01,9.99999e-01
6.204023382e-01,9.72882e-01,9.99999e-01,9.99976e-01,9.72904e-01,9.99999e-01
6.235043498e-01,9.73335e-01,9.99999e-01,9.99900e-01,9.73432e-01,9.99999e-01
6.266218716e-01,9.73435e-01,9.99999e-01,9.99474e-01,9.73950e-01,9.99995e-01
6.297549810e-01,9.74263e-01,9.99999e-01,9.99806e-01,9.74458e-01,9.99992e-01
6.329037559e-01,9.74579e-01,9.99999e-01,9.99618e-01,9.74956e-01,9.99993e-01
6.360682746e-01,9.75125e-01,9.99999e-01,9.99675e-01,9.75445e-01,9.99996e-01
6.392486160e-01,9.75512e-01,9.99999e-01,9.99579e-01,9.75924e-01,9.99997e-01
6.424448591e-01,9.75842e-01,9.99999e-01,9.99436e-01,9.76394e-01,9.99997e-01
6.456570834e-01,9.74289e-01,9.99999e-01,9.97387e-01,9.76854e-01,9.99985e-01
6.488853688e-01,9.75398e-01,9.99999e-01,9.98087e-01,9.77306e-01,9.99959e-01
6.521297956e-01,9.75811e-01,9.99999e-01,9.98050e-01,9.77750e-01,9.99966e-01
6.553904446e-01,9.76263e-01,9.99999e-01,9.98059e-01,9.78184e-01,9.99974e-01
6.586673968e-01,9.76977e-01,9.99999e-01,9.98338e-01,9.78610e-01,9.99991e-01
6.619607338e-01,9.78120e-01,9.99999e-01,9.99073e-01,9.79029e-01,9.99997e-01
6.652705375e-01,9.78893e-01,9.99999e-01,9.99443e-01,9.79438e-01,9.99998e-01
6.685968902e-01,9.79587e-01,9.99999e-01,9.99741e-01,9.79840e-01,9.99999e-01
6.719398746e-01,9.80117e-01,9.99999e-01,9.99879e-01,9.80235e-01,9.99999e-01
6.752995740e-01,9.80558e-01,9.99999e-01,9.99934e-01,9.80621e-01,9.99999e-01
6.786760719e-01,9.80908e-01,9.99999e-01,9.99905e-01,9.81000e-01,9.99999e-01
6.820694522e-01,9.81214e-01,9.99999e-01,9.99839e-01,9.81372e-01,9.99998e-01
6.854797995e-01,9.81532e-01,9.99999e-01,9.99792e-01,9.81737e-01,9.99997e-01
6.889071985e-01,9.81598e-01,9.99999e-01,9.99498e-01,9.82094e-01,9.99995e-01
6.923517345e-01,9.74390e-01,9.99999e-01,9.91839e-01,9.82445e-01,9.99960e-01
6.958134932e-01,9.78530e-01,9.99999e-01,9.95752e-01,9.82788e-01,9.99912e-01
6.992925606e-01,9.79080e-01,9.99999e-01,9.95962e-01,9.83125e-01,9.99921e-01
7.027890234e-01,9.78499e-01,9.99999e-01,9.95018e-01,9.83456e-01,9.99939e-01
7.063029686e-01,9.79630e-01,9.99999e-01,9.95810e-01,9.83780e-01,9.99969e-01
7.098344834e-01,9.80126e-01,9.99999e-01,9.95980e-01,9.84098e-01,9.99981e-01
7.133836558e-01,9.79101e-01,9.99999e-01,9.94641e-01,9.84410e-01,9.99964e-01
7.169505741e-01,9.42695e-01,9.99999e-01,9.57590e-01,9.84715e-01,9.99725e-01
7.205353270e-01,9.63912e-01,9.99999e-01,9.79049e-01,9.85015e-01,9.99515e-01
7.241380036e-01,9.58752e-01,9.99999e-01,9.73453e-01,9.85309e-01,9.99581e-01
7.277586936e-01,9.61629e-01,9.99999e-01,9.76014e-01,9.85597e-01,9.99657e-01
7.313974871e-01,9.60617e-01,9.99999e-01,9.74532e-01,9.85879e-01,9.99839e-01
7.350544745e-01,9.72313e-01,9.99999e-01,9.86017e-01,9.86156e-01,9.99943e-01
7.387297469e-01,9.76240e-01,9.99999e-01,9.89697e-01,9.86428e-01,9.99974e-01
7.424233956e-01,9.81706e-01,9.99999e-01,9.94949e-01,9.86694e-01,9.99994e-01
7.461355126e-01,9.83931e-01,9.99999e-01,9.96936e-01,9.86955e-01,9.99998e-01
7.498661902e-01,9.85802e-01,9.99999e-01,9.98573e-01,9.87211e-01,9.99999e-01
7.536155211e-01,9.86771e-01,9.99999e-01,9.99299e-01,9.87462e-01,9.99999e-01
7.573835987e-01,9.87352e-01,9.99999e-01,9.99639e-01,9.87708e-01,9.99999e-01
7.611705167e-01,9.87728e-01,9.99999e-01,9.99775e-01,9.87949e-01,9.99999e-01
7.649763693e-01,9.88047e-01,9.99999e-01,9.99859e-01,9.88186e-01,9.99999e-01
7.688012511e-01,9.88321e-01,9.99999e-01,9.99901e-01,9.88418e-01,9.99999e-01
7.726452574e-01,9.88566e-01,9.99999e-01,9.99919e-01,9.88645e-01,9.99999e-01
7.765084837e-01,9.88755e-01,9.99999e-01,9.99885e-01,9.88868e-01,9.99999e-01
7.803910261e-01,9.88598e-01,9.99999e-01,9.99505e-01,9.89087e-01,9.99999e-01
7.842929812e-01,9.87593e-01,9.99999e-01,9.98275e-01,9.89301e-01,9.99996e-01
7.882144461e-01,9.85979e-01,9.99999e-01,9.96450e-01,9.89512e-01,9.99977e-01
7.921555184e-01,9.87750e-01,9.99999e-01,9.98053e-01,9.89718e-01,9.99957e-01
7.961162960e-01,9.86475e-01,9.99999e-01,9.96559e-01,9.89920e-01,9.99959e-01
8.000968774e-01,9.86143e-01,9.99999e-01,9.96027e-01,9.90118e-01,9.99956e-01
8.040973618e-01,9.86344e-01,9.99999e-01,9.96026e-01,9.90312e-01,9.99965e-01
8.081178486e-01,9.81611e-01,9.99999e-01,9.91054e-01,9.90503e-01,9.99967e-01
8.121584379e-01,9.54091e-01,9.99999e-01,9.63178e-01,9.90689e-01,9.99874e-01
8.162192301e-01,9.47251e-01,9.99999e-01,9.56427e-01,9.90872e-01,9.99528e-01
8.203003262e-01,9.68715e-01,9.99999e-01,9.78000e-01,9.91052e-01,9.99447e-01
8.244018279e-01,9.60448e-01,9.99999e-01,9.69372e-01,9.91228e-01,9.99560e-01
8.285238370e-01,9.65082e-01,9.99999e-01,9.73788e-01,9.91400e-01,9.99654e-01
8.326664562e-01,9.65159e-01,9.99999e-01,9.73503e-01,9.91569e-01,9.99856e-01
8.368297885e-01,9.72884e-01,9.99999e-01,9.81022e-01,9.91735e-01,9.99966e-01
8.410139374e-01,9.80659e-01,9.99999e-01,9.88687e-01,9.91898e-01,9.99980e-01
8.452190071e-01,9.86531e-01,9.99999e-01,9.94440e-01,9.92057e-01,9.99988e-01
8.494451021e-01,9.89002e-01,9.99999e-01,9.96771e-01,9.92213e-01,9.99990e-01
8.536923276e-01,9.90466e-01,9.99999e-01,9.98090e-01,9.92367e-01,9.99993e-01
8.579607893e-01,9.91348e-01,9.99999e-01,9.98823e-01,9.92517e-01,9.99998e-01
8.622505932e-01,9.91922e-01,9.99999e-01,9.99252e-01,9.92664e-01,9.99999e-01
8.665618462e-01,9.92349e-01,9.99999e-01,9.99537e-01,9.92808e-01,9.99999e-01
8.708946554e-01,9.92424e-01,9.99999e-01,9.99470e-01,9.92950e-01,9.99999e-01
8.752491287e-01,9.92385e-01,9.99999e-01,9.99291e-01,9.93089e-01,9.99998e-01
8.796253743e-01,9.92249e-01,9.99999e-01,9.99019e-01,9.93225e-01,9.99997e-01
8.840235012e-01,9.92239e-01,9.99999e-01,9.98879e-01,9.93358e-01,9.99992e-01
8.884436187e-01,9.89409e-01,9.99999e-01,9.95912e-01,9.93489e-01,9.99980e-01
8.928858368e-01,9.51453e-01,9.99999e-01,9.57671e-01,9.93617e-01,9.99887e-01
8.973502660e-01,9.19973e-01,9.99999e-01,9.26296e-01,9.93743e-01,9.99426e-01
9.018370173e-01,9.54922e-01,9.99999e-01,9.61681e-01,9.93866e-01,9.99098e-01
9.063462024e-01,9.59632e-01,9.99999e-01,9.66201e-01,9.93987e-01,9.99208e-01
9.108779334e-01,9.41430e-01,9.99999e-01,9.47791e-01,9.94105e-01,9.99177e-01
9.154323231e-01,9.34856e-01,9.99999e-01,9.40929e-01,9.94221e-01,9.99319e-01
9.200094847e-01,9.47662e-01,9.99999e-01,9.53423e-01,9.94335e-01,9.99618e-01
9.246095321e-01,9.22311e-01,9.99999e-01,9.27867e-01,9.94446e-01,9.99561e-01
9.292325798e-01,6.01665e-01,9.99999e-01,6.05993e-01,9.94556e-01,9.98290e-01
9.338787427e-01,5.17605e-01,9.99999e-01,5.24074e-01,9.94663e-01,9.92953e-01
9.385481364e-01,7.60206e-01,9.99999e-01,7.70657e-01,9.94768e-01,9.91625e-01
9.432408771e-01,6.87052e-01,9.99999e-01,6.95621e-01,9.94871e-01,9.92770e-01
9.479570815e-01,5.99595e-01,9.99999e-01,6.06193e-01,9.94972e-01,9.94112e-01
9.526968669e-01,6.81474e-01,9.99999e-01,6.87319e-01,9.95071e-01,9.96404e-01
9.574603512e-01,7.03931e-01,9.99999e-01,7.08643e-01,9.95168e-01,9.98171e-01
9.622476530e-01,7.51157e-01,9.99999e-01,7.55686e-01,9.95264e-01,9.98735e-01
9.670588912e-01,8.46260e-01,9.99999e-01,8.50943e-01,9.95357e-01,9.99134e-01
9.718941857e-01,8.99405e-01,9.99999e-01,9.04093e-01,9.95448e-01,9.99362e-01
9.767536566e-01,9.15173e-01,9.99999e-01,9.19721e-01,9.95538e-01,9.99512e-01
9.816374249e-01,9.35626e-01,9.99999e-01,9.39893e-01,9.95626e-01,9.99831e-01
9.865456120e-01,9.57867e-01,9.99999e-01,9.62025e-01,9.95712e-01,9.99964e-01
9.914783401e-01,9.72249e-01,9.99999e-01,9.76361e-01,9.95797e-01,9.99989e-01
9.964357318e-01,9.82988e-01,9.99999e-01,9.87060e-01,9.95880e-01,9.99993e-01
1.001417910e+00,9.88211e-01,9.99999e-01,9.92226e-01,9.95961e-01,9.99990e-01
1.006425000e+00,9.91608e-01,9.99999e-01,9.95562e-01,9.96040e-01,9.99987e-01
1.011457125e+00,9.93362e-01,9.99999e-01,9.97244e-01,9.96118e-01,9.99988e-01
1.016514411e+00,9.94323e-01,9.99999e-01,9.98128e-01,9.96195e-01,9.99991e-01
1.021596983e+00,9.94776e-01,9.99999e-01,9.98508e-01,9.96270e-01,9.99991e-01
1.026704968e+00,9.95179e-01,9.99999e-01,9.98836e-01,9.96343e-01,9.99994e-01
1.031838492e+00,9.95572e-01,9.99999e-01,9.99154e-01,9.96416e-01,9.99998e-01
1.036997685e+00,9.95986e-01,9.99999e-01,9.99497e-01,9.96486e-01,9.99999e-01
1.042182673e+00,9.95959e-01,9.99999e-01,9.99400e-01,9.96555e-01,9.99999e-01
1.047393587e+00,9.95832e-01,9.99999e-01,9.99205e-01,9.96623e-01,9.99999e-01
1.052630555e+00,9.95604e-01,9.99999e-01,9.98909e-01,9.96690e-01,9.99999e-01
1.057893707e+00,9.94942e-01,9.99999e-01,9.98180e-01,9.96755e-01,9.99998e-01
1.063183176e+00,9.93835e-01,9.99999e-01,9.97007e-01,9.96819e-01,9.99997e-01
1.068499092e+00,9.91887e-01,9.99999e-01,9.94992e-01,9.96882e-01,9.99996e-01
1.073841587e+00,9.91094e-01,9.99999e-01,9.94139e-01,9.96943e-01,9.99992e-01
1.079210795e+00,9.89504e-01,9.99999e-01,9.92496e-01,9.97004e-01,9.99979e-01
1.084606849e+00,9.85708e-01,9.99999e-01,9.88659e-01,9.97063e-01,9.99951e-01
1.090029883e+00,9.80810e-01,9.99999e-01,9.83740e-01,9.97121e-01,9.99899e-01
1.095480033e+00,9.53439e-01,9.99999e-01,9.56309e-01,9.97177e-01,9.99818e-01
1.100957433e+00,8.89859e-01,9.99999e-01,8.92624e-01,9.97233e-01,9.99667e-01
1.106462220e+00,7.46770e-01,9.99999e-01,7.49223e-01,9.97288e-01,9.99435e-01
1.111994531e+00,5.43014e-01,9.99999e-01,5.45277e-01,9.97341e-01,9.98503e-01
1.117554504e+00,3.72261e-01,9.99999e-01,3.75256e-01,9.97394e-01,9.94608e-01
1.123142276e+00,4.80006e-01,9.99999e-01,4.87444e-01,9.97445e-01,9.87261e-01
1.128757988e+00,6.19485e-01,9.99999e-01,6.30319e-01,9.97495e-01,9.85278e-01
1.134401778e+00,3.63758e-01,9.99999e-01,3.69280e-01,9.97545e-01,9.87468e-01
1.140073787e+00,7.49587e-01,9.99999e-01,7.59004e-01,9.97593e-01,9.89974e-01
1.145774156e+00,5.56776e-01,9.99999e-01,5.63263e-01,9.97641e-01,9.90819e-01
1.151503026e+00,5.23835e-01,9.99999e-01,5.27754e-01,9.97687e-01,9.94874e-01
1.157260541e+00,5.83849e-01,9.99999e-01,5.86075e-01,9.97733e-01,9.98464e-01
1.163046844e+00,6.71891e-01,9.99999e-01,6.73680e-01,9.97777e-01,9.99564e-01
1.168862078e+00,7.58128e-01,9.99999e-01,7.59953e-01,9.97821e-01,9.99775e-01
1.174706389e+00,8.42122e-01,9.99999e-01,8.44175e-01,9.97864e-01,9.99702e-01
1.180579921e+00,8.99703e-01,9.99999e-01,9.01995e-01,9.97906e-01,9.99550e-01
1.186482820e+00,9.41025e-01,9.99999e-01,9.43394e-01,9.97948e-01,9.99538e-01
1.192415234e+00,9.64299e-01,9.99999e-01,9.66576e-01,9.97988e-01,9.99654e-01
1.198377311e+00,9.69520e-01,9.99999e-01,9.71752e-01,9.98028e-01,9.99673e-01
1.204369197e+00,9.71080e-01,9.99999e-01,9.73247e-01,9.98067e-01,9.99704e-01
1.210391043e+00,9.72384e-01,9.99999e-01,9.74404e-01,9.98105e-01,9.99819e-01
1.216442998e+00,9.76263e-01,9.99999e-01,9.78187e-01,9.98142e-01,9.99889e-01
1.222525213e+00,9.81124e-01,9.99999e-01,9.82980e-01,9.98179e-01,9.99931e-01
1.228637839e+00,9.86358e-01,9.99999e-01,9.88153e-01,9.98215e-01,9.99967e-01
1.234781029e+00,9.89448e-01,9.99999e-01,9.91191e-01,9.98250e-01,9.99990e-01
1.240954934e+00,9.92714e-01,9.99999e-01,9.94422e-01,9.98285e-01,9.99996e-01
1.247159708e+00,9.93979e-01,9.99999e-01,9.95654e-01,9.98318e-01,9.99997e-01
1.253395507e+00,9.94498e-01,9.99999e-01,9.96141e-01,9.98352e-01,9.99997e-01
1.259662485e+00,9.94721e-01,9.99999e-01,9.96334e-01,9.98384e-01,9.99996e-01
1.265960797e+00,9.92567e-01,9.99999e-01,9.94147e-01,9.98416e-01,9.99993e-01
1.272290601e+00,9.89270e-01,9.99999e-01,9.90818e-01,9.98447e-01,9.99989e-01
1.278652054e+00,9.80305e-01,9.99999e-01,9.81816e-01,9.98478e-01,9.99981e-01
1.285045314e+00,9.65764e-01,9.99999e-01,9.67238e-01,9.98508e-01,9.99966e-01
1.291470541e+00,9.42162e-01,9.99999e-01,9.43596e-01,9.98537e-01,9.99941e-01
1.297927893e+00,9.25627e-01,9.99999e-01,9.27056e-01,9.98566e-01,9.99891e-01
1.304417533e+00,9.05665e-01,9.99999e-01,9.07147e-01,9.98594e-01,9.99769e-01
1.310939621e+00,8.92679e-01,9.99999e-01,8.94332e-01,9.98622e-01,9.99527e-01
1.317494319e+00,8.84043e-01,9.99999e-01,8.86010e-01,9.98649e-01,9.99127e-01
1.324081790e+00,8.31966e-01,9.99999e-01,8.34256e-01,9.98676e-01,9.98575e-01
1.330702199e+00,4.85202e-01,9.99999e-01,4.87027e-01,9.98702e-01,9.97545e-01
1.337355710e+00,1.58011e-01,9.99999e-01,1.58962e-01,9.98728e-01,9.95278e-01
1.344042489e+00,1.10212e-02,9.99999e-01,1.11934e-02,9.98753e-01,9.85846e-01
1.350762701e+00,8.85411e-05,9.99999e-01,9.30830e-05,9.98777e-01,9.52369e-01
1.357516515e+00,2.08275e-06,9.99999e-01,2.40635e-06,9.98801e-01,8.66559e-01
1.364304097e+00,1.77306e-04,9.99999e-01,2.28163e-04,9.98825e-01,7.78013e-01
1.371125618e+00,2.76585e-03,9.99999e-01,3.50838e-03,9.98848e-01,7.89264e-01
1.377981246e+00,6.61936e-03,9.99999e-01,8.11719e-03,9.98871e-01,8.16394e-01
1.384871152e+00,2.26824e-04,9.99999e-01,2.74323e-04,9.98893e-01,8.27763e-01
1.391795508e+00,2.59174e-04,9.99999e-01,3.10682e-04,9.98915e-01,8.35116e-01
1.398754485e+00,1.01488e-03,9.99999e-01,1.17901e-03,9.98936e-01,8.61707e-01
1.405748258e+00,9.76227e-04,9.99999e-01,1.06608e-03,9.98957e-01,9.16667e-01
1.412776999e+00,1.06499e-03,9.99999e-01,1.10928e-03,9.98978e-01,9.61051e-01
1.419840884e+00,1.75904e-03,9.99999e-01,1.79174e-03,9.98998e-01,9.82731e-01
1.426940089e+00,6.83433e-03,9.99999e-01,6.93217e-03,9.99018e-01,9.86853e-01
1.434074789e+00,2.21857e-02,9.99999e-01,2.25566e-02,9.99037e-01,9.84504e-01
1.441245163e+00,5.27503e-02,9.99999e-01,5.37007e-02,9.99056e-01,9.83227e-01
1.448451389e+00,1.23528e-01,9.99999e-01,1.25487e-01,9.99075e-01,9.85298e-01
1.455693646e+00,2.49369e-01,9.99999e-01,2.52488e-01,9.99093e-01,9.88541e-01
1.462972114e+00,3.01857e-01,9.99999e-01,3.05464e-01,9.99111e-01,9.89069e-01
1.470286975e+00,2.47874e-01,9.99999e-01,2.50785e-01,9.99129e-01,9.89254e-01
