#,Wave/freq,Total,N2,H2O,Rayleigh,CIA
4.000000000e-01,2.57873e-01,9.99999e-01,9.99847e-01,2.57913e-01,9.99999e-01
4.020000000e-01,2.64892e-01,9.99999e-01,9.99905e-01,2.64917e-01,9.99999e-01
4.040100000e-01,2.71949e-01,9.99999e-01,9.99959e-01,2.71960e-01,9.99999e-01
4.060300500e-01,2.79042e-01,9.99999e-01,9.99990e-01,2.79045e-01,9.99999e-01
4.080602003e-01,2.86169e-01,9.99999e-01,9.99996e-01,2.86170e-01,9.99999e-01
4.101005013e-01,2.93330e-01,9.99999e-01,9.99999e-01,2.93330e-01,9.99999e-01
4.121510038e-01,3.00521e-01,9.99999e-01,9.99993e-01,3.00523e-01,9.99999e-01
4.142117588e-01,3.07732e-01,9.99999e-01,9.99956e-01,3.07745e-01,9.99999e-01
4.162828176e-01,3.14933e-01,9.99999e-01,9.99810e-01,3.14993e-01,9.99999e-01
4.183642317e-01,3.22227e-01,9.99999e-01,9.99887e-01,3.22263e-01,9.99999e-01
4.204560528e-01,3.29530e-01,9.99999e-01,9.99930e-01,3.29552e-01,9.99999e-01
4.225583331e-01,3.36849e-01,9.99999e-01,9.99974e-01,3.36858e-01,9.99999e-01
4.246711247e-01,3.44169e-01,9.99999e-01,9.99978e-01,3.44176e-01,9.99999e-01
4.267944804e-01,3.51493e-01,9.99999e-01,9.99969e-01,3.51504e-01,9.99999e-01
4.289284528e-01,3.58830e-01,9.99999e-01,9.99976e-01,3.58839e-01,9.99999e-01
4.310730950e-01,3.66173e-01,9.99999e-01,9.99989e-01,3.66177e-01,9.99999e-01
4.332284605e-01,3.73515e-01,9.99999e-01,9.99996e-01,3.73516e-01,9.99999e-01
4.353946028e-01,3.80852e-01,9.99999e-01,9.99998e-01,3.80853e-01,9.99999e-01
4.375715758e-01,3.88177e-01,9.99999e-01,9.99980e-01,3.88184e-01,9.99999e-01
4.397594337e-01,3.95442e-01,9.99999e-01,9.99830e-01,3.95508e-01,9.99999e-01
4.419582309e-01,4.02475e-01,9.99999e-01,9.99139e-01,4.02822e-01,9.99999e-01
4.441680220e-01,4.09854e-01,9.99999e-01,9.99346e-01,4.10122e-01,9.99999e-01
4.463888621e-01,4.17120e-01,9.99999e-01,9.99314e-01,4.17406e-01,9.99999e-01
4.486208064e-01,4.24492e-01,9.99999e-01,9.99576e-01,4.24672e-01,9.99999e-01
4.508639105e-01,4.31832e-01,9.99999e-01,9.99801e-01,4.31917e-01,9.99999e-01
4.531182300e-01,4.39105e-01,9.99999e-01,9.99921e-01,4.39139e-01,9.99999e-01
4.553838212e-01,4.46312e-01,9.99999e-01,9.99946e-01,4.46336e-01,9.99999e-01
4.576607403e-01,4.53494e-01,9.99999e-01,9.99975e-01,4.53505e-01,9.99999e-01
4.599490440e-01,4.60636e-01,9.99999e-01,9.99982e-01,4.60644e-01,9.99999e-01
4.622487892e-01,4.67749e-01,9.99999e-01,9.99996e-01,4.67751e-01,9.99999e-01
4.645600332e-01,4.74818e-01,9.99999e-01,9.99987e-01,4.74824e-01,9.99999e-01
4.668828333e-01,4.81763e-01,9.99999e-01,9.99796e-01,4.81861e-01,9.99999e-01
4.692172475e-01,4.88650e-01,9.99999e-01,9.99570e-01,4.88860e-01,9.99999e-01
4.715633337e-01,4.95681e-01,9.99999e-01,9.99718e-01,4.95820e-01,9.99999e-01
4.739211504e-01,5.02604e-01,9.99999e-01,9.99731e-01,5.02739e-01,9.99999e-01
4.762907561e-01,5.09544e-01,9.99999e-01,9.99861e-01,5.09614e-01,9.99999e-01
4.786722099e-01,5.16416e-01,9.99999e-01,9.99942e-01,5.16445e-01,9.99999e-01
4.810655710e-01,5.23221e-01,9.99999e-01,9.99982e-01,5.23230e-01,9.99999e-01
4.834708988e-01,5.29878e-01,9.99999e-01,9.99829e-01,5.29967e-01,9.99999e-01
4.858882533e-01,5.36493e-01,9.99999e-01,9.99696e-01,5.36656e-01,9.99999e-01
4.883176946e-01,5.43155e-01,9.99999e-01,9.99743e-01,5.43294e-01,9.99999e-01
4.907592831e-01,5.49755e-01,9.99999e-01,9.99770e-01,5.49881e-01,9.99999e-01
4.932130795e-01,5.56325e-01,9.99999e-01,9.99836e-01,5.56415e-01,9.99999e-01
4.956791449e-01,5.62848e-01,9.99999e-01,9.99913e-01,5.62896e-01,9.99999e-01
4.981575406e-01,5.69074e-01,9.99999e-01,9.99564e-01,5.69322e-01,9.99999e-01
5.006483283e-01,5.75034e-01,9.99999e-01,9.98864e-01,5.75692e-01,9.99991e-01
5.031515699e-01,5.78665e-01,9.99999e-01,9.94318e-01,5.82005e-01,9.99939e-01
5.056673278e-01,5.86462e-01,9.99999e-01,9.97009e-01,5.88261e-01,9.99931e-01
5.081956644e-01,5.92194e-01,9.99999e-01,9.96230e-01,5.94459e-01,9.99958e-01
5.107366428e-01,5.99066e-01,9.99999e-01,9.97456e-01,6.00597e-01,9.99992e-01
5.132903260e-01,6.05796e-01,9.99999e-01,9.98549e-01,6.06676e-01,9.99998e-01
5.158567776e-01,6.12320e-01,9.99999e-01,9.99387e-01,6.12695e-01,9.99999e-01
5.184360615e-01,6.18501e-01,9.99999e-01,9.99754e-01,6.18652e-01,9.99999e-01
5.210282418e-01,6.24490e-01,9.99999e-01,9.99907e-01,6.24548e-01,9.99999e-01
5.236333830e-01,6.30147e-01,9.99999e-01,9.99629e-01,6.30382e-01,9.99996e-01
5.262515499e-01,6.36005e-01,9.99999e-01,9.99768e-01,6.36154e-01,9.99995e-01
5.288828077e-01,6.41724e-01,9.99999e-01,9.99785e-01,6.41863e-01,9.99997e-01
5.315272217e-01,6.47389e-01,9.99999e-01,9.99814e-01,6.47509e-01,9.99998e-01
5.341848578e-01,6.53011e-01,9.99999e-01,9.99876e-01,6.53092e-01,9.99999e-01
5.368557821e-01,6.58324e-01,9.99999e-01,9.99565e-01,6.58611e-01,9.99998e-01
5.395400610e-01,6.63007e-01,9.99999e-01,9.98419e-01,6.64066e-01,9.99984e-01
5.422377613e-01,6.68093e-01,9.99999e-01,9.97997e-01,6.69458e-01,9.99962e-01
5.449489501e-01,6.73491e-01,9.99999e-01,9.98119e-01,6.74785e-01,9.99961e-01
5.476736949e-01,6.78916e-01,9.99999e-01,9.98352e-01,6.80049e-01,9.99981e-01
5.504120634e-01,6.84425e-01,9.99999e-01,9.98803e-01,6.85248e-01,9.99994e-01
5.531641237e-01,6.89967e-01,9.99999e-01,9.99398e-01,6.90383e-01,9.99998e-01
5.559299443e-01,6.95253e-01,9.99999e-01,9.99709e-01,6.95454e-01,9.99999e-01
5.587095940e-01,7.00333e-01,9.99999e-01,9.99816e-01,7.00461e-01,9.99999e-01
5.615031420e-01,7.05260e-01,9.99999e-01,9.99795e-01,7.05404e-01,9.99999e-01
5.643106577e-01,7.10116e-01,9.99999e-01,9.99764e-01,7.10284e-01,9.99997e-01
5.671322110e-01,7.13030e-01,9.99999e-01,9.97129e-01,7.15099e-01,9.99974e-01
5.699678720e-01,7.17674e-01,9.99999e-01,9.97049e-01,7.19852e-01,9.99923e-01
5.728177114e-01,7.22236e-01,9.99999e-01,9.96882e-01,7.24541e-01,9.99935e-01
5.756818000e-01,7.27060e-01,9.99999e-01,9.97146e-01,7.29167e-01,9.99962e-01
5.785602090e-01,7.31903e-01,9.99999e-01,9.97519e-01,7.33730e-01,9.99988e-01
5.814530100e-01,7.36383e-01,9.99999e-01,9.97501e-01,7.38231e-01,9.99994e-01
5.843602750e-01,7.40426e-01,9.99999e-01,9.96994e-01,7.42670e-01,9.99982e-01
5.872820764e-01,7.27869e-01,9.99999e-01,9.74502e-01,7.47047e-01,9.99819e-01
5.902184868e-01,7.28029e-01,9.99999e-01,9.69419e-01,7.51363e-01,9.99508e-01
5.931695792e-01,7.38849e-01,9.99999e-01,9.78269e-01,7.55617e-01,9.99527e-01
5.961354271e-01,7.41551e-01,9.99999e-01,9.76231e-01,7.59811e-01,9.99728e-01
5.991161043e-01,7.50606e-01,9.99999e-01,9.82621e-01,7.63945e-01,9.99915e-01
6.021116848e-01,7.60423e-01,9.99999e-01,9.90118e-01,7.68019e-01,9.99990e-01
6.051222432e-01,7.68167e-01,9.99999e-01,9.94991e-01,7.72033e-01,9.99998e-01
6.081478544e-01,7.74309e-01,9.99999e-01,9.97834e-01,7.75989e-01,9.99999e-01
6.111885937e-01,7.79174e-01,9.99999e-01,9.99086e-01,7.79886e-01,9.99999e-01
6.142445367e-01,7.83405e-01,9.99999e-01,9.99590e-01,7.83725e-01,9.99999e-01
6.173157594e-01,7.87329e-01,9.99999e-01,9.99773e-01,7.87507e-01,9.99999e-01
6.204023382e-01,7.91079e-01,9.99999e-01,9.99807e-01,7.91232e-01,9.99999e-01
6.235043498e-01,7.94212e-01,9.99999e-01,9.99136e-01,7.94900e-01,9.99997e-01
6.266218716e-01,7.94916e-01,9.99999e-01,9.95527e-01,7.98512e-01,9.99968e-01
6.297549810e-01,8.00701e-01,9.99999e-01,9.98357e-01,8.02069e-01,9.99936e-01
6.329037559e-01,8.02927e-01,9.99999e-01,9.96767e-01,8.05571e-01,9.99949e-01
6.360682746e-01,8.06754e-01,9.99999e-01,9.97230e-01,8.09018e-01,9.99969e-01
6.392486160e-01,8.09495e-01,9.99999e-01,9.96422e-01,8.12412e-01,9.99986e-01
6.424448591e-01,8.11792e-01,9.99999e-01,9.95167e-01,8.15753e-01,9.99975e-01
6.456570834e-01,8.00737e-01,9.99999e-01,9.77783e-01,8.19041e-01,9.99864e-01
6.488853688e-01,8.08778e-01,9.99999e-01,9.83922e-01,8.22276e-01,9.99654e-01
6.521297956e-01,8.11721e-01,9.99999e-01,9.83634e-01,8.25461e-01,9.99715e-01
6.553904446e-01,8.14803e-01,9.99999e-01,9.83563e-01,8.28594e-01,9.99787e-01
6.586673968e-01,8.19975e-01,9.99999e-01,9.85998e-01,8.31677e-01,9.99928e-01
6.619607338e-01,8.28163e-01,9.99999e-01,9.92170e-01,8.34711e-01,9.99984e-01
6.652705375e-01,8.33746e-01,9.99999e-01,9.95293e-01,8.37695e-01,9.99991e-01
6.685968902e-01,8.38948e-01,9.99999e-01,9.98000e-01,8.40630e-01,9.99998e-01
6.719398746e-01,8.42663e-01,9.99999e-01,9.98986e-01,8.43518e-01,9.99999e-01
6.752995740e-01,8.45904e-01,9.99999e-01,9.99463e-01,8.46358e-01,9.99999e-01
6.786760719e-01,8.48468e-01,9.99999e-01,9.99195e-01,8.49151e-01,9.99998e-01
6.820694522e-01,8.50716e-01,9.99999e-01,9.98618e-01,8.51898e-01,9.99992e-01
6.854797995e-01,8.53079e-01,9.99999e-01,9.98234e-01,8.54600e-01,9.99984e-01
6.889071985e-01,8.53505e-01,9.99999e-01,9.95661e-01,8.57256e-01,9.99961e-01
6.923517345e-01,8.01549e-01,9.99999e-01,9.32486e-01,8.59868e-01,9.99666e-01
6.958134932e-01,8.31869e-01,9.99999e-01,9.65269e-01,8.62436e-01,9.99261e-01
6.992925606e-01,8.34975e-01,9.99999e-01,9.65973e-01,8.64961e-01,9.99334e-01
7.027890234e-01,8.31074e-01,9.99999e-01,9.58559e-01,8.67443e-01,9.99491e-01
7.063029686e-01,8.39180e-01,9.99999e-01,9.64948e-01,8.69883e-01,9.99746e-01
7.098344834e-01,8.42784e-01,9.99999e-01,9.66327e-01,8.72281e-01,9.99850e-01
7.133836558e-01,8.34982e-01,9.99999e-01,9.54941e-01,8.74639e-01,9.99702e-01
7.169505741e-01,6.13161e-01,9.99999e-01,7.00828e-01,8.76956e-01,9.97664e-01
7.205353270e-01,7.36961e-01,9.99999e-01,8.41650e-01,8.79233e-01,9.95882e-01
7.241380036e-01,7.01888e-01,9.99999e-01,7.99109e-01,8.81471e-01,9.96443e-01
7.277586936e-01,7.20040e-01,9.99999e-01,8.17204e-01,8.83671e-01,9.97091e-01
7.313974871e-01,7.13560e-01,9.99999e-01,8.06623e-01,8.85832e-01,9.98636e-01
7.350544745e-01,7.88507e-01,9.99999e-01,8.88422e-01,8.87956e-01,9.99525e-01
7.387297469e-01,8.15383e-01,9.99999e-01,9.16316e-01,8.90042e-01,9.99782e-01
7.424233956e-01,8.54736e-01,9.99999e-01,9.58160e-01,8.92093e-01,9.99961e-01
7.461355126e-01,8.71185e-01,9.99999e-01,9.74369e-01,8.94107e-01,9.99993e-01
7.498661902e-01,8.85353e-01,9.99999e-01,9.88025e-01,8.96086e-01,9.99996e-01
7.536155211e-01,8.92718e-01,9.99999e-01,9.94085e-01,8.98030e-01,9.99997e-01
7.573835987e-01,8.97198e-01,9.99999e-01,9.96953e-01,8.99940e-01,9.99999e-01
7.611705167e-01,9.00107e-01,9.99999e-01,9.98105e-01,9.01816e-01,9.99999e-01
7.649763693e-01,9.02584e-01,9.99999e-01,9.98810e-01,9.03659e-01,9.99999e-01
7.688012511e-01,9.04717e-01,9.99999e-01,9.99169e-01,9.05469e-01,9.99999e-01
7.726452574e-01,9.06626e-01,9.99999e-01,9.99316e-01,9.07246e-01,9.99999e-01
7.765084837e-01,9.08100e-01,9.99999e-01,9.99019e-01,9.08992e-01,9.99998e-01
7.803910261e-01,9.06842e-01,9.99999e-01,9.95759e-01,9.10707e-01,9.99995e-01
7.842929812e-01,8.98937e-01,9.99999e-01,9.85279e-01,9.12391e-01,9.99972e-01
7.882144461e-01,8.86625e-01,9.99999e-01,9.70201e-01,9.14045e-01,9.99792e-01
7.921555184e-01,9.00389e-01,9.99999e-01,9.83666e-01,9.15669e-01,9.99639e-01
7.961162960e-01,8.90285e-01,9.99999e-01,9.70919e-01,9.17264e-01,9.99657e-01
8.000968774e-01,8.87866e-01,9.99999e-01,9.66652e-01,9.18830e-01,9.99635e-01
8.040973618e-01,8.89390e-01,9.99999e-01,9.66610e-01,9.20368e-01,9.99721e-01
8.081178486e-01,8.53640e-01,9.99999e-01,9.26240e-01,9.21878e-01,9.99717e-01
8.121584379e-01,6.74441e-01,9.99999e-01,7.31200e-01,9.23360e-01,9.98932e-01
8.162192301e-01,6.39648e-01,9.99999e-01,6.94431e-01,9.24815e-01,9.95994e-01
8.203003262e-01,7.71695e-01,9.99999e-01,8.37068e-01,9.26244e-01,9.95310e-01
8.244018279e-01,7.29831e-01,9.99999e-01,7.89703e-01,9.27647e-01,9.96266e-01
8.285238370e-01,7.41530e-01,9.99999e-01,8.00528e-01,9.29024e-01,9.97066e-01
8.326664562e-01,7.43687e-01,9.99999e-01,8.00310e-01,9.30376e-01,9.98785e-01
8.368297885e-01,7.93016e-01,9.99999e-01,8.51382e-01,9.31703e-01,9.99722e-01
8.410139374e-01,8.47563e-01,9.99999e-01,9.08568e-01,9.33006e-01,9.99837e-01
8.452190071e-01,8.91239e-01,9.99999e-01,9.54018e-01,9.34285e-01,9.99902e-01
8.494451021e-01,9.10117e-01,9.99999e-01,9.72899e-01,9.35540e-01,9.99921e-01
8.536923276e-01,9.21694e-01,9.99999e-01,9.83950e-01,9.36772e-01,9.99952e-01
8.579607893e-01,9.28638e-01,9.99999e-01,9.90049e-01,9.37981e-01,9.99988e-01
8.622505932e-01,9.33238e-01,9.99999e-01,9.93686e-01,9.39168e-01,9.99997e-01
8.665618462e-01,9.36640e-01,9.99999e-01,9.96072e-01,9.40333e-01,9.99998e-01
8.708946554e-01,9.37231e-01,9.99999e-01,9.95491e-01,9.41477e-01,9.99997e-01
8.752491287e-01,9.36918e-01,9.99999e-01,9.93979e-01,9.42599e-01,9.99993e-01
8.796253743e-01,9.35792e-01,9.99999e-01,9.91638e-01,9.43700e-01,9.99980e-01
8.840235012e-01,9.35721e-01,9.99999e-01,9.90467e-01,9.44781e-01,9.99941e-01
8.884436187e-01,9.12856e-01,9.99999e-01,9.65284e-01,9.45841e-01,9.99834e-01
8.928858368e-01,6.62583e-01,9.99999e-01,7.00418e-01,9.46882e-01,9.99047e-01
8.973502660e-01,5.09716e-01,9.99999e-01,5.40361e-01,9.47904e-01,9.95128e-01
9.018370173e-01,6.89968e-01,9.99999e-01,7.32722e-01,9.48906e-01,9.92352e-01
9.063462024e-01,7.11485e-01,9.99999e-01,7.54086e-01,9.49889e-01,9.93278e-01
9.108779334e-01,6.10425e-01,9.99999e-01,6.46489e-01,9.50854e-01,9.93016e-01
9.154323231e-01,5.74469e-01,9.99999e-01,6.07065e-01,9.51801e-01,9.94224e-01
9.200094847e-01,6.45280e-01,9.99999e-01,6.79494e-01,9.52731e-01,9.96763e-01
9.246095321e-01,5.34535e-01,9.99999e-01,5.62617e-01,9.53642e-01,9.96271e-01
9.292325798e-01,4.24770e-02,9.99999e-01,4.53099e-02,9.54537e-01,9.82126e-01
9.338787427e-01,1.25007e-02,9.99999e-01,1.39654e-02,9.55414e-01,9.36888e-01
9.385481364e-01,1.55216e-01,9.99999e-01,1.74365e-01,9.56276e-01,9.30880e-01
9.432408771e-01,8.91326e-02,9.99999e-01,9.90615e-02,9.57120e-01,9.40078e-01
9.479570815e-01,3.24845e-02,9.99999e-01,3.56594e-02,9.57949e-01,9.50953e-01
9.526968669e-01,6.84654e-02,9.99999e-01,7.36344e-02,9.58763e-01,9.69791e-01
9.574603512e-01,7.78138e-02,9.99999e-01,8.23665e-02,9.59560e-01,9.84539e-01
9.622476530e-01,1.18021e-01,9.99999e-01,1.24226e-01,9.60343e-01,9.89283e-01
9.670588912e-01,2.78426e-01,9.99999e-01,2.91744e-01,9.61111e-01,9.92965e-01
9.718941857e-01,4.19129e-01,9.99999e-01,4.38108e-01,9.61864e-01,9.94608e-01
9.767536566e-01,4.81890e-01,9.99999e-01,5.02690e-01,9.62603e-01,9.95863e-01
9.816374249e-01,5.74550e-01,9.99999e-01,5.97277e-01,9.63328e-01,9.98566e-01
9.865456120e-01,6.96590e-01,9.99999e-01,7.22789e-01,9.64039e-01,9.99700e-01
9.914783401e-01,7.88166e-01,9.99999e-01,8.17041e-01,9.64737e-01,9.99916e-01
9.964357318e-01,8.64720e-01,9.99999e-01,8.95735e-01,9.65421e-01,9.99951e-01
1.001417910e+00,9.04266e-01,9.99999e-01,9.36072e-01,9.66093e-01,9.99925e-01
1.006425000e+00,9.30790e-01,9.99999e-01,9.62903e-01,9.66751e-01,9.99894e-01
1.011457125e+00,9.44945e-01,9.99999e-01,9.76886e-01,9.67397e-01,9.99901e-01
1.016514411e+00,9.52689e-01,9.99999e-01,9.84219e-01,9.68030e-01,9.99930e-01
1.021596983e+00,9.56377e-01,9.99999e-01,9.87393e-01,9.68652e-01,9.99931e-01
1.026704968e+00,9.59672e-01,9.99999e-01,9.90147e-01,9.69262e-01,9.99956e-01
1.031838492e+00,9.62913e-01,9.99999e-01,9.92849e-01,9.69859e-01,9.99986e-01
1.036997685e+00,9.66307e-01,9.99999e-01,9.95736e-01,9.70446e-01,9.99997e-01
1.042182673e+00,9.66063e-01,9.99999e-01,9.94894e-01,9.71021e-01,9.99998e-01
1.047393587e+00,9.65027e-01,9.99999e-01,9.93250e-01,9.71585e-01,9.99998e-01
1.052630555e+00,9.63129e-01,9.99999e-01,9.90734e-01,9.72139e-01,9.99997e-01
1.057893707e+00,9.57652e-01,9.99999e-01,9.84553e-01,9.72681e-01,9.99994e-01
1.063183176e+00,9.48635e-01,9.99999e-01,9.74757e-01,9.73214e-01,9.99986e-01
1.068499092e+00,9.33006e-01,9.99999e-01,9.58199e-01,9.73736e-01,9.99970e-01
1.073841587e+00,9.26730e-01,9.99999e-01,9.51285e-01,9.74248e-01,9.99936e-01
1.079210795e+00,9.14296e-01,9.99999e-01,9.38139e-01,9.74750e-01,9.99829e-01
1.084606849e+00,8.85061e-01,9.99999e-01,9.07901e-01,9.75242e-01,9.99589e-01
1.090029883e+00,8.48330e-01,9.99999e-01,8.70174e-01,9.75725e-01,9.99149e-01
1.095480033e+00,6.68847e-01,9.99999e-01,6.86208e-01,9.76199e-01,9.98462e-01
1.100957433e+00,3.84858e-01,9.99999e-01,3.95171e-01,9.76664e-01,9.97171e-01
1.106462220e+00,1.11585e-01,9.99999e-01,1.14748e-01,9.77119e-01,9.95207e-01
1.111994531e+00,1.22781e-02,9.99999e-01,1.27211e-02,9.77566e-01,9.87327e-01
1.117554504e+00,1.32802e-03,9.99999e-01,1.42187e-03,9.78004e-01,9.55000e-01
1.123142276e+00,1.16104e-02,9.99999e-01,1.32353e-02,9.78434e-01,8.96561e-01
1.128757988e+00,3.32153e-02,9.99999e-01,3.85014e-02,9.78855e-01,8.81338e-01
1.134401778e+00,1.82946e-02,9.99999e-01,2.08001e-02,9.79269e-01,8.98161e-01
1.140073787e+00,1.09943e-01,9.99999e-01,1.22280e-01,9.79674e-01,9.17763e-01
1.145774156e+00,2.08796e-02,9.99999e-01,2.30450e-02,9.80071e-01,9.24454e-01
1.151503026e+00,1.31300e-02,9.99999e-01,1.39907e-02,9.80461e-01,9.57183e-01
1.157260541e+00,1.72256e-02,9.99999e-01,1.77933e-02,9.80843e-01,9.87001e-01
1.163046844e+00,4.86109e-02,9.99999e-01,4.97254e-02,9.81218e-01,9.96298e-01
1.168862078e+00,1.09282e-01,9.99999e-01,1.11547e-01,9.81586e-01,9.98069e-01
1.174706389e+00,2.48307e-01,9.99999e-01,2.53546e-01,9.81946e-01,9.97342e-01
1.180579921e+00,4.19379e-01,9.99999e-01,4.28574e-01,9.82300e-01,9.96177e-01
1.186482820e+00,6.00342e-01,9.99999e-01,6.13349e-01,9.82646e-01,9.96077e-01
1.192415234e+00,7.34981e-01,9.99999e-01,7.49905e-01,9.82986e-01,9.97060e-01
1.198377311e+00,7.69214e-01,9.99999e-01,7.84449e-01,9.83319e-01,9.97210e-01
1.204369197e+00,7.81485e-01,9.99999e-01,7.96412e-01,9.83646e-01,9.97569e-01
1.210391043e+00,7.89437e-01,9.99999e-01,8.03528e-01,9.83966e-01,9.98470e-01
1.216442998e+00,8.16788e-01,9.99999e-01,8.30609e-01,9.84281e-01,9.99062e-01
1.222525213e+00,8.50919e-01,9.99999e-01,8.64740e-01,9.84589e-01,9.99417e-01
1.228637839e+00,8.89920e-01,9.99999e-01,9.03816e-01,9.84891e-01,9.99728e-01
1.234781029e+00,9.13972e-01,9.99999e-01,9.27786e-01,9.85187e-01,9.99922e-01
1.240954934e+00,9.39767e-01,9.99999e-01,9.53636e-01,9.85477e-01,9.99977e-01
1.247159708e+00,9.49986e-01,9.99999e-01,9.63720e-01,9.85762e-01,9.99985e-01
1.253395507e+00,9.54141e-01,9.99999e-01,9.67664e-01,9.86041e-01,9.99981e-01
1.259662485e+00,9.55882e-01,9.99999e-01,9.69172e-01,9.86315e-01,9.99970e-01
1.265960797e+00,9.38566e-01,9.99999e-01,9.51375e-01,9.86584e-01,9.99951e-01
1.272290601e+00,9.12249e-01,9.99999e-01,9.24486e-01,9.86847e-01,9.99914e-01
1.278652054e+00,8.45230e-01,9.99999e-01,8.56400e-01,9.87105e-01,9.99848e-01
1.285045314e+00,7.46714e-01,9.99999e-01,7.56488e-01,9.87358e-01,9.99717e-01
1.291470541e+00,6.08139e-01,9.99999e-01,6.16074e-01,9.87606e-01,9.99504e-01
1.297927893e+00,4.99761e-01,9.99999e-01,5.06375e-01,9.87849e-01,9.99076e-01
1.304417533e+00,4.47322e-01,9.99999e-01,4.53601e-01,9.88088e-01,9.98044e-01
1.310939621e+00,3.63606e-01,9.99999e-01,3.69383e-01,9.88322e-01,9.95989e-01
1.317494319e+00,3.71143e-01,9.99999e-01,3.78242e-01,9.88551e-01,9.92593e-01
1.324081790e+00,2.37275e-01,9.99999e-01,2.42898e-01,9.88776e-01,9.87935e-01
1.330702199e+00,3.20859e-02,9.99999e-01,3.31291e-02,9.88997e-01,9.79287e-01
1.337355710e+00,5.85014e-06,9.99999e-01,6.15717e-06,9.89213e-01,9.60494e-01
1.344042489e+00,4.54757e-13,9.99999e-01,5.18946e-13,9.89425e-01,8.85675e-01
1.350762701e+00,9.35723e-28,9.99999e-01,1.43282e-27,9.89632e-01,6.59905e-01
1.357516515e+00,3.83800e-42,9.99999e-01,1.31318e-41,9.89836e-01,2.95268e-01
1.364304097e+00,4.81382e-26,9.99999e-01,4.12405e-25,9.90036e-01,1.17900e-01
1.371125618e+00,7.99510e-16,9.99999e-01,6.05987e-15,9.90232e-01,1.33236e-01
1.377981246e+00,3.22799e-15,9.99999e-01,1.83433e-14,9.90424e-01,1.77678e-01
1.384871152e+00,2.08985e-21,9.99999e-01,1.05541e-20,9.90612e-01,1.99890e-01
1.391795508e+00,3.32128e-26,9.99999e-01,1.55531e-25,9.90797e-01,2.15528e-01
1.398754485e+00,5.60205e-20,9.99999e-01,2.00833e-19,9.90977e-01,2.81479e-01
1.405748258e+00,9.67643e-20,9.99999e-01,2.04844e-19,9.91155e-01,4.76595e-01
1.412776999e+00,4.81507e-19,9.99998e-01,6.81289e-19,9.91329e-01,7.12939e-01
1.419840884e+00,8.37888e-19,9.99998e-01,9.80224e-19,9.91499e-01,8.62120e-01
1.426940089e+00,2.02775e-12,9.99998e-01,2.28876e-12,9.91667e-01,8.93407e-01
1.434074789e+00,5.14882e-11,9.99998e-01,5.92970e-11,9.91830e-01,8.75461e-01
1.441245163e+00,3.94988e-09,9.99999e-01,4.59877e-09,9.91991e-01,8.65832e-01
1.448451389e+00,3.09458e-06,9.99997e-01,3.53840e-06,9.92149e-01,8.81490e-01
1.455693646e+00,1.80332e-04,9.99998e-01,2.00472e-04,9.92303e-01,9.06511e-01
1.462972114e+00,2.42673e-04,9.99999e-01,2.68513e-04,9.92455e-01,9.10638e-01
1.470286975e+00,8.54338e-05,9.99999e-01,9.43659e-05,9.92603e-01,9.12091e-01
