#,Wave/freq,Total,N2,H2O,Rayleigh,CIA
4.000000000e-01,2.54541e-01,9.99999e-01,9.99845e-01,2.54580e-01,9.99999e-01
4.020000000e-01,2.61536e-01,9.99999e-01,9.99903e-01,2.61561e-01,9.99999e-01
4.040100000e-01,2.68571e-01,9.99999e-01,9.99958e-01,2.68582e-01,9.99999e-01
4.060300500e-01,2.75645e-01,9.99999e-01,9.99990e-01,2.75648e-01,9.99999e-01
4.080602003e-01,2.82753e-01,9.99999e-01,9.99996e-01,2.82754e-01,9.99999e-01
4.101005013e-01,2.89898e-01,9.99999e-01,9.99999e-01,2.89898e-01,9.99999e-01
4.121510038e-01,2.97074e-01,9.99999e-01,9.99993e-01,2.97076e-01,9.99999e-01
4.142117588e-01,3.04271e-01,9.99999e-01,9.99957e-01,3.04284e-01,9.99999e-01
4.162828176e-01,3.11460e-01,9.99999e-01,9.99808e-01,3.11520e-01,9.99999e-01
4.183642317e-01,3.18743e-01,9.99999e-01,9.99886e-01,3.18780e-01,9.99999e-01
4.204560528e-01,3.26038e-01,9.99999e-01,9.99929e-01,3.26060e-01,9.99999e-01
4.225583331e-01,3.33350e-01,9.99999e-01,9.99973e-01,3.33358e-01,9.99999e-01
4.246711247e-01,3.40664e-01,9.99999e-01,9.99978e-01,3.40671e-01,9.99999e-01
4.267944804e-01,3.47984e-01,9.99999e-01,9.99969e-01,3.47995e-01,9.99999e-01
4.289284528e-01,3.55318e-01,9.99999e-01,9.99975e-01,3.55327e-01,9.99999e-01
4.310730950e-01,3.62660e-01,9.99999e-01,9.99989e-01,3.62664e-01,9.99999e-01
4.332284605e-01,3.70002e-01,9.99999e-01,9.99996e-01,3.70003e-01,9.99999e-01
4.353946028e-01,3.77340e-01,9.99999e-01,9.99998e-01,3.77341e-01,9.99999e-01
4.375715758e-01,3.84668e-01,9.99999e-01,9.99980e-01,3.84675e-01,9.99999e-01
4.397594337e-01,3.91938e-01,9.99999e-01,9.99831e-01,3.92003e-01,9.99999e-01
4.419582309e-01,3.98981e-01,9.99999e-01,9.99145e-01,3.99322e-01,9.99999e-01
4.441680220e-01,4.06359e-01,9.99999e-01,9.99335e-01,4.06629e-01,9.99999e-01
4.463888621e-01,4.13634e-01,9.99999e-01,9.99307e-01,4.13921e-01,9.99999e-01
4.486208064e-01,4.21015e-01,9.99999e-01,9.99569e-01,4.21196e-01,9.99999e-01
4.508639105e-01,4.28365e-01,9.99999e-01,9.99798e-01,4.28451e-01,9.99999e-01
4.531182300e-01,4.35650e-01,9.99999e-01,9.99920e-01,4.35685e-01,9.99999e-01
4.553838212e-01,4.42870e-01,9.99999e-01,9.99945e-01,4.42894e-01,9.99999e-01
4.576607403e-01,4.50065e-01,9.99999e-01,9.99974e-01,4.50076e-01,9.99999e-01
4.599490440e-01,4.57222e-01,9.99999e-01,9.99981e-01,4.57230e-01,9.99999e-01
4.622487892e-01,4.64351e-01,9.99999e-01,9.99996e-01,4.64352e-01,9.99999e-01
4.645600332e-01,4.71436e-01,9.99999e-01,9.99987e-01,4.71442e-01,9.99999e-01
4.668828333e-01,4.78399e-01,9.99999e-01,9.99796e-01,4.78497e-01,9.99999e-01
4.692172475e-01,4.85304e-01,9.99999e-01,9.99565e-01,4.85514e-01,9.99999e-01
4.715633337e-01,4.92354e-01,9.99999e-01,9.99715e-01,4.92493e-01,9.99999e-01
4.739211504e-01,4.99296e-01,9.99999e-01,9.99728e-01,4.99432e-01,9.99999e-01
4.762907561e-01,5.06257e-01,9.99999e-01,9.99858e-01,5.06328e-01,9.99999e-01
4.786722099e-01,5.13151e-01,9.99999e-01,9.99942e-01,5.13181e-01,9.99999e-01
4.810655710e-01,5.19979e-01,9.99999e-01,9.99982e-01,5.19988e-01,9.99999e-01
4.834708988e-01,5.26660e-01,9.99999e-01,9.99832e-01,5.26748e-01,9.99999e-01
4.858882533e-01,5.33296e-01,9.99999e-01,9.99692e-01,5.33460e-01,9.99999e-01
4.883176946e-01,5.39984e-01,9.99999e-01,9.99742e-01,5.40123e-01,9.99999e-01
4.907592831e-01,5.46607e-01,9.99999e-01,9.99767e-01,5.46734e-01,9.99999e-01
4.932130795e-01,5.53203e-01,9.99999e-01,9.99834e-01,5.53294e-01,9.99999e-01
4.956791449e-01,5.59751e-01,9.99999e-01,9.99912e-01,5.59800e-01,9.99999e-01
4.981575406e-01,5.66005e-01,9.99999e-01,9.99562e-01,5.66252e-01,9.99999e-01
5.006483283e-01,5.71996e-01,9.99999e-01,9.98866e-01,5.72649e-01,9.99991e-01
5.031515699e-01,5.75644e-01,9.99999e-01,9.94279e-01,5.78990e-01,9.99939e-01
5.056673278e-01,5.83465e-01,9.99999e-01,9.96977e-01,5.85273e-01,9.99930e-01
5.081956644e-01,5.89218e-01,9.99999e-01,9.96187e-01,5.91499e-01,9.99955e-01
5.107366428e-01,5.96122e-01,9.99999e-01,9.97424e-01,5.97666e-01,9.99991e-01
5.132903260e-01,6.02884e-01,9.99999e-01,9.98527e-01,6.03773e-01,9.99998e-01
5.158567776e-01,6.09442e-01,9.99999e-01,9.99377e-01,6.09821e-01,9.99999e-01
5.184360615e-01,6.15654e-01,9.99999e-01,9.99750e-01,6.15808e-01,9.99999e-01
5.210282418e-01,6.21675e-01,9.99999e-01,9.99906e-01,6.21733e-01,9.99999e-01
5.236333830e-01,6.27361e-01,9.99999e-01,9.99625e-01,6.27597e-01,9.99996e-01
5.262515499e-01,6.33248e-01,9.99999e-01,9.99765e-01,6.33399e-01,9.99995e-01
5.288828077e-01,6.38999e-01,9.99999e-01,9.99784e-01,6.39138e-01,9.99997e-01
5.315272217e-01,6.44692e-01,9.99999e-01,9.99811e-01,6.44814e-01,9.99998e-01
5.341848578e-01,6.50347e-01,9.99999e-01,9.99876e-01,6.50427e-01,9.99999e-01
5.368557821e-01,6.55690e-01,9.99999e-01,9.99564e-01,6.55977e-01,9.99998e-01
5.395400610e-01,6.60414e-01,9.99999e-01,9.98426e-01,6.61463e-01,9.99986e-01
5.422377613e-01,6.65508e-01,9.99999e-01,9.97971e-01,6.66885e-01,9.99962e-01
5.449489501e-01,6.70948e-01,9.99999e-01,9.98111e-01,6.72243e-01,9.99961e-01
5.476736949e-01,6.76393e-01,9.99999e-01,9.98329e-01,6.77537e-01,9.99980e-01
5.504120634e-01,6.81936e-01,9.99999e-01,9.98787e-01,6.82767e-01,9.99994e-01
5.531641237e-01,6.87513e-01,9.99999e-01,9.99389e-01,6.87933e-01,9.99998e-01
5.559299443e-01,6.92831e-01,9.99999e-01,9.99705e-01,6.93034e-01,9.99999e-01
5.587095940e-01,6.97943e-01,9.99999e-01,9.99814e-01,6.98072e-01,9.99999e-01
5.615031420e-01,7.02901e-01,9.99999e-01,9.99793e-01,7.03046e-01,9.99999e-01
5.643106577e-01,7.07789e-01,9.99999e-01,9.99766e-01,7.07956e-01,9.99997e-01
5.671322110e-01,7.10760e-01,9.99999e-01,9.97159e-01,7.12802e-01,9.99974e-01
5.699678720e-01,7.15371e-01,9.99999e-01,9.96992e-01,7.17585e-01,9.99922e-01
5.728177114e-01,7.19991e-01,9.99999e-01,9.96861e-01,7.22304e-01,9.99935e-01
5.756818000e-01,7.24838e-01,9.99999e-01,9.97119e-01,7.26960e-01,9.99960e-01
5.785602090e-01,7.29709e-01,9.99999e-01,9.97490e-01,7.31553e-01,9.99987e-01
5.814530100e-01,7.34224e-01,9.99999e-01,9.97478e-01,7.36084e-01,9.99994e-01
5.843602750e-01,7.38313e-01,9.99999e-01,9.96991e-01,7.40553e-01,9.99982e-01
5.872820764e-01,7.25803e-01,9.99999e-01,9.74462e-01,7.44959e-01,9.99817e-01
5.902184868e-01,7.25768e-01,9.99999e-01,9.69068e-01,7.49304e-01,9.99503e-01
5.931695792e-01,7.36729e-01,9.99999e-01,9.78094e-01,7.53588e-01,9.99522e-01
5.961354271e-01,7.39405e-01,9.99999e-01,9.75978e-01,7.57811e-01,9.99725e-01
5.991161043e-01,7.48508e-01,9.99999e-01,9.82410e-01,7.61974e-01,9.99914e-01
6.021116848e-01,7.58395e-01,9.99999e-01,9.89982e-01,7.66076e-01,9.99990e-01
6.051222432e-01,7.66206e-01,9.99999e-01,9.94919e-01,7.70119e-01,9.99998e-01
6.081478544e-01,7.72404e-01,9.99999e-01,9.97805e-01,7.74103e-01,9.99999e-01
6.111885937e-01,7.77306e-01,9.99999e-01,9.99071e-01,7.78028e-01,9.99999e-01
6.142445367e-01,7.81570e-01,9.99999e-01,9.99584e-01,7.81895e-01,9.99999e-01
6.173157594e-01,7.85524e-01,9.99999e-01,9.99770e-01,7.85704e-01,9.99999e-01
6.204023382e-01,7.89302e-01,9.99999e-01,9.99805e-01,7.89456e-01,9.99999e-01
6.235043498e-01,7.92471e-01,9.99999e-01,9.99144e-01,7.93151e-01,9.99997e-01
6.266218716e-01,7.93170e-01,9.99999e-01,9.95488e-01,7.96790e-01,9.99967e-01
6.297549810e-01,7.98997e-01,9.99999e-01,9.98343e-01,8.00373e-01,9.99936e-01
6.329037559e-01,8.01231e-01,9.99999e-01,9.96728e-01,8.03901e-01,9.99948e-01
6.360682746e-01,8.05100e-01,9.99999e-01,9.97212e-01,8.07375e-01,9.99969e-01
6.392486160e-01,8.07856e-01,9.99999e-01,9.96388e-01,8.10794e-01,9.99986e-01
6.424448591e-01,8.10207e-01,9.99999e-01,9.95165e-01,8.14160e-01,9.99978e-01
6.456570834e-01,7.99206e-01,9.99999e-01,9.77774e-01,8.17473e-01,9.99875e-01
6.488853688e-01,8.07094e-01,9.99999e-01,9.83722e-01,8.20734e-01,9.99651e-01
6.521297956e-01,8.10055e-01,9.99999e-01,9.83426e-01,8.23943e-01,9.99712e-01
6.553904446e-01,8.13231e-01,9.99999e-01,9.83441e-01,8.27100e-01,9.99785e-01
6.586673968e-01,8.18381e-01,9.99999e-01,9.85825e-01,8.30208e-01,9.99928e-01
6.619607338e-01,8.26644e-01,9.99999e-01,9.92068e-01,8.33265e-01,9.99984e-01
6.652705375e-01,8.32279e-01,9.99999e-01,9.95231e-01,8.36272e-01,9.99991e-01
6.685968902e-01,8.37369e-01,9.99999e-01,9.97782e-01,8.39231e-01,9.99998e-01
6.719398746e-01,8.41276e-01,9.99999e-01,9.98972e-01,8.42141e-01,9.99999e-01
6.752995740e-01,8.44533e-01,9.99999e-01,9.99442e-01,8.45004e-01,9.99999e-01
6.786760719e-01,8.47136e-01,9.99999e-01,9.99194e-01,8.47820e-01,9.99998e-01
6.820694522e-01,8.49411e-01,9.99999e-01,9.98621e-01,8.50589e-01,9.99992e-01
6.854797995e-01,8.51783e-01,9.99999e-01,9.98222e-01,8.53312e-01,9.99984e-01
6.889071985e-01,8.52274e-01,9.99999e-01,9.95696e-01,8.55990e-01,9.99961e-01
6.923517345e-01,8.00285e-01,9.99999e-01,9.32369e-01,8.58623e-01,9.99663e-01
6.958134932e-01,8.29954e-01,9.99999e-01,9.64423e-01,8.61212e-01,9.99254e-01
6.992925606e-01,8.33744e-01,9.99999e-01,9.65900e-01,8.63758e-01,9.99327e-01
7.027890234e-01,8.29540e-01,9.99999e-01,9.58101e-01,8.66260e-01,9.99486e-01
7.063029686e-01,8.37747e-01,9.99999e-01,9.64591e-01,8.68720e-01,9.99744e-01
7.098344834e-01,8.41376e-01,9.99999e-01,9.65980e-01,8.71138e-01,9.99848e-01
7.133836558e-01,8.34017e-01,9.99999e-01,9.55068e-01,8.73515e-01,9.99699e-01
7.169505741e-01,6.11810e-01,9.99999e-01,7.00183e-01,8.75852e-01,9.97640e-01
7.205353270e-01,7.33152e-01,9.99999e-01,8.38369e-01,8.78148e-01,9.95841e-01
7.241380036e-01,7.00112e-01,9.99999e-01,7.98081e-01,8.80405e-01,9.96407e-01
7.277586936e-01,7.18131e-01,9.99999e-01,8.16029e-01,8.82623e-01,9.97062e-01
7.313974871e-01,7.10502e-01,9.99999e-01,8.04113e-01,8.84802e-01,9.98623e-01
7.350544745e-01,7.86427e-01,9.99999e-01,8.87094e-01,8.86944e-01,9.99521e-01
7.387297469e-01,8.13506e-01,9.99999e-01,9.15231e-01,8.89048e-01,9.99780e-01
7.424233956e-01,8.53206e-01,9.99999e-01,9.57498e-01,8.91116e-01,9.99957e-01
7.461355126e-01,8.69919e-01,9.99999e-01,9.73999e-01,8.93147e-01,9.99992e-01
7.498661902e-01,8.84230e-01,9.99999e-01,9.87811e-01,8.95143e-01,9.99996e-01
7.536155211e-01,8.91719e-01,9.99999e-01,9.93999e-01,8.97104e-01,9.99997e-01
7.573835987e-01,8.96249e-01,9.99999e-01,9.96907e-01,8.99030e-01,9.99999e-01
7.611705167e-01,8.99190e-01,9.99999e-01,9.98077e-01,9.00922e-01,9.99999e-01
7.649763693e-01,9.01692e-01,9.99999e-01,9.98794e-01,9.02780e-01,9.99999e-01
7.688012511e-01,9.03846e-01,9.99999e-01,9.99159e-01,9.04606e-01,9.99999e-01
7.726452574e-01,9.05773e-01,9.99999e-01,9.99308e-01,9.06399e-01,9.99999e-01
7.765084837e-01,9.07267e-01,9.99999e-01,9.99016e-01,9.08160e-01,9.99998e-01
7.803910261e-01,9.06026e-01,9.99999e-01,9.95756e-01,9.09890e-01,9.99995e-01
7.842929812e-01,8.98141e-01,9.99999e-01,9.85274e-01,9.11589e-01,9.99972e-01
7.882144461e-01,8.85606e-01,9.99999e-01,9.69924e-01,9.13257e-01,9.99790e-01
7.921555184e-01,8.99401e-01,9.99999e-01,9.83420e-01,9.14895e-01,9.99635e-01
7.961162960e-01,8.89483e-01,9.99999e-01,9.70852e-01,9.16504e-01,9.99653e-01
8.000968774e-01,8.86869e-01,9.99999e-01,9.66354e-01,9.18084e-01,9.99631e-01
8.040973618e-01,8.88442e-01,9.99999e-01,9.66363e-01,9.19635e-01,9.99707e-01
8.081178486e-01,8.52909e-01,9.99999e-01,9.26162e-01,9.21158e-01,9.99725e-01
8.121584379e-01,6.73413e-01,9.99999e-01,7.30652e-01,9.22654e-01,9.98922e-01
8.162192301e-01,6.35920e-01,9.99999e-01,6.90929e-01,9.24122e-01,9.95953e-01
8.203003262e-01,7.71500e-01,9.99999e-01,8.37511e-01,9.25563e-01,9.95263e-01
8.244018279e-01,7.25702e-01,9.99999e-01,7.85830e-01,9.26979e-01,9.96228e-01
8.285238370e-01,7.39917e-01,9.99999e-01,7.99375e-01,9.28368e-01,9.97036e-01
8.326664562e-01,7.41314e-01,9.99999e-01,7.98320e-01,9.29732e-01,9.98773e-01
8.368297885e-01,7.90762e-01,9.99999e-01,8.49541e-01,9.31071e-01,9.99719e-01
8.410139374e-01,8.45851e-01,9.99999e-01,9.07338e-01,9.32385e-01,9.99835e-01
8.452190071e-01,8.89999e-01,9.99999e-01,9.53314e-01,9.33676e-01,9.99901e-01
8.494451021e-01,9.09246e-01,9.99999e-01,9.72591e-01,9.34942e-01,9.99921e-01
8.536923276e-01,9.20893e-01,9.99999e-01,9.83711e-01,9.36185e-01,9.99951e-01
8.579607893e-01,9.27958e-01,9.99999e-01,9.89932e-01,9.37405e-01,9.99988e-01
8.622505932e-01,9.32590e-01,9.99999e-01,9.93594e-01,9.38603e-01,9.99997e-01
8.665618462e-01,9.36048e-01,9.99999e-01,9.96031e-01,9.39778e-01,9.99998e-01
8.708946554e-01,9.36654e-01,9.99999e-01,9.95455e-01,9.40932e-01,9.99997e-01
8.752491287e-01,9.36336e-01,9.99999e-01,9.93925e-01,9.42064e-01,9.99993e-01
8.796253743e-01,9.35231e-01,9.99999e-01,9.91594e-01,9.43176e-01,9.99980e-01
8.840235012e-01,9.35155e-01,9.99999e-01,9.90408e-01,9.44266e-01,9.99940e-01
8.884436187e-01,9.12803e-01,9.99999e-01,9.65745e-01,9.45336e-01,9.99832e-01
8.928858368e-01,6.62167e-01,9.99999e-01,7.00352e-01,9.46386e-01,9.99037e-01
8.973502660e-01,5.06132e-01,9.99999e-01,5.36864e-01,9.47417e-01,9.95079e-01
9.018370173e-01,6.85342e-01,9.99999e-01,7.28232e-01,9.48428e-01,9.92275e-01
9.063462024e-01,7.10850e-01,9.99999e-01,7.53836e-01,9.49421e-01,9.93210e-01
9.108779334e-01,6.08268e-01,9.99999e-01,6.44561e-01,9.50395e-01,9.92946e-01
9.154323231e-01,5.71545e-01,9.99999e-01,6.04297e-01,9.51350e-01,9.94166e-01
9.200094847e-01,6.42054e-01,9.99999e-01,6.76433e-01,9.52288e-01,9.96730e-01
9.246095321e-01,5.35467e-01,9.99999e-01,5.63876e-01,9.53208e-01,9.96233e-01
9.292325798e-01,4.25290e-02,9.99999e-01,4.52352e-02,9.54111e-01,9.85393e-01
9.338787427e-01,1.18413e-02,9.99999e-01,1.31770e-02,9.54996e-01,9.40984e-01
9.385481364e-01,1.51679e-01,9.99999e-01,1.70588e-01,9.55865e-01,9.30208e-01
9.432408771e-01,8.87242e-02,9.99999e-01,9.87106e-02,9.56718e-01,9.39493e-01
9.479570815e-01,3.17146e-02,9.99999e-01,3.48462e-02,9.57554e-01,9.50471e-01
9.526968669e-01,6.68925e-02,9.99999e-01,7.19942e-02,9.58375e-01,9.69491e-01
9.574603512e-01,7.59668e-02,9.99999e-01,8.04559e-02,9.59180e-01,9.84384e-01
9.622476530e-01,1.14851e-01,9.99999e-01,1.20949e-01,9.59970e-01,9.89176e-01
9.670588912e-01,2.74471e-01,9.99999e-01,2.87819e-01,9.60745e-01,9.92584e-01
9.718941857e-01,4.15511e-01,9.99999e-01,4.34520e-01,9.61505e-01,9.94536e-01
9.767536566e-01,4.78496e-01,9.99999e-01,4.99353e-01,9.62251e-01,9.95821e-01
9.816374249e-01,5.70612e-01,9.99999e-01,5.93404e-01,9.62983e-01,9.98551e-01
9.865456120e-01,6.93361e-01,9.99999e-01,7.19694e-01,9.63701e-01,9.99697e-01
9.914783401e-01,7.85848e-01,9.99999e-01,8.14920e-01,9.64405e-01,9.99915e-01
9.964357318e-01,8.63180e-01,9.99999e-01,8.94442e-01,9.65095e-01,9.99950e-01
1.001417910e+00,9.03142e-01,9.99999e-01,9.35219e-01,9.65773e-01,9.99924e-01
1.006425000e+00,9.30089e-01,9.99999e-01,9.62491e-01,9.66437e-01,9.99893e-01
1.011457125e+00,9.44333e-01,9.99999e-01,9.76565e-01,9.67089e-01,9.99900e-01
1.016514411e+00,9.52202e-01,9.99999e-01,9.84023e-01,9.67729e-01,9.99929e-01
1.021596983e+00,9.55941e-01,9.99999e-01,9.87248e-01,9.68356e-01,9.99929e-01
1.026704968e+00,9.59276e-01,9.99999e-01,9.90039e-01,9.68971e-01,9.99952e-01
1.031838492e+00,9.62538e-01,9.99999e-01,9.92754e-01,9.69575e-01,9.99986e-01
1.036997685e+00,9.65982e-01,9.99999e-01,9.95688e-01,9.70167e-01,9.99997e-01
1.042182673e+00,9.65756e-01,9.99999e-01,9.94858e-01,9.70747e-01,9.99998e-01
1.047393587e+00,9.64700e-01,9.99999e-01,9.93188e-01,9.71317e-01,9.99998e-01
1.052630555e+00,9.62800e-01,9.99999e-01,9.90663e-01,9.71875e-01,9.99997e-01
1.057893707e+00,9.57309e-01,9.99999e-01,9.84462e-01,9.72423e-01,9.99994e-01
1.063183176e+00,9.48221e-01,9.99999e-01,9.74585e-01,9.72960e-01,9.99986e-01
1.068499092e+00,9.32429e-01,9.99999e-01,9.57850e-01,9.73487e-01,9.99970e-01
1.073841587e+00,9.26206e-01,9.99999e-01,9.50986e-01,9.74004e-01,9.99936e-01
1.079210795e+00,9.13492e-01,9.99999e-01,9.37545e-01,9.74511e-01,9.99827e-01
1.084606849e+00,8.84175e-01,9.99999e-01,9.07214e-01,9.75008e-01,9.99585e-01
1.090029883e+00,8.48010e-01,9.99999e-01,8.70059e-01,9.75495e-01,9.99140e-01
1.095480033e+00,6.67755e-01,9.99999e-01,6.85257e-01,9.75973e-01,9.98446e-01
1.100957433e+00,3.83425e-01,9.99999e-01,3.93800e-01,9.76442e-01,9.97143e-01
1.106462220e+00,1.10815e-01,9.99999e-01,1.13987e-01,9.76902e-01,9.95159e-01
1.111994531e+00,1.18956e-02,9.99999e-01,1.23290e-02,9.77353e-01,9.87200e-01
1.117554504e+00,1.26504e-03,9.99999e-01,1.35536e-03,9.77796e-01,9.54557e-01
1.123142276e+00,1.10092e-02,9.99999e-01,1.25664e-02,9.78229e-01,8.95575e-01
1.128757988e+00,3.22942e-02,9.99999e-01,3.74891e-02,9.78655e-01,8.80216e-01
1.134401778e+00,1.71606e-02,9.99999e-01,1.95359e-02,9.79072e-01,8.97189e-01
1.140073787e+00,1.08091e-01,9.99999e-01,1.20348e-01,9.79481e-01,9.16970e-01
1.145774156e+00,2.02297e-02,9.99999e-01,2.23498e-02,9.79882e-01,9.23722e-01
1.151503026e+00,1.27211e-02,9.99999e-01,1.35636e-02,9.80276e-01,9.56761e-01
1.157260541e+00,1.66135e-02,9.99999e-01,1.71664e-02,9.80661e-01,9.86870e-01
1.163046844e+00,4.70165e-02,9.99999e-01,4.81049e-02,9.81040e-01,9.96261e-01
1.168862078e+00,1.06264e-01,9.99999e-01,1.08486e-01,9.81411e-01,9.98072e-01
1.174706389e+00,2.44257e-01,9.99999e-01,2.49428e-01,9.81775e-01,9.97445e-01
1.180579921e+00,4.14765e-01,9.99999e-01,4.23947e-01,9.82131e-01,9.96139e-01
1.186482820e+00,5.96755e-01,9.99999e-01,6.09811e-01,9.82481e-01,9.96037e-01
1.192415234e+00,7.32534e-01,9.99999e-01,7.47555e-01,9.82824e-01,9.97031e-01
1.198377311e+00,7.67415e-01,9.99999e-01,7.82753e-01,9.83160e-01,9.97195e-01
1.204369197e+00,7.79586e-01,9.99999e-01,7.94689e-01,9.83490e-01,9.97462e-01
1.210391043e+00,7.87587e-01,9.99999e-01,8.01782e-01,9.83814e-01,9.98455e-01
1.216442998e+00,8.14800e-01,9.99999e-01,8.28722e-01,9.84131e-01,9.99053e-01
1.222525213e+00,8.49370e-01,9.99999e-01,8.63300e-01,9.84442e-01,9.99411e-01
1.228637839e+00,8.88821e-01,9.99999e-01,9.02834e-01,9.84747e-01,9.99726e-01
1.234781029e+00,9.13007e-01,9.99999e-01,9.26939e-01,9.85046e-01,9.99921e-01
1.240954934e+00,9.39136e-01,9.99999e-01,9.53129e-01,9.85339e-01,9.99977e-01
1.247159708e+00,9.49427e-01,9.99999e-01,9.63285e-01,9.85626e-01,9.99985e-01
1.253395507e+00,9.53680e-01,9.99999e-01,9.67328e-01,9.85908e-01,9.99981e-01
1.259662485e+00,9.55513e-01,9.99999e-01,9.68926e-01,9.86185e-01,9.99970e-01
1.265960797e+00,9.37950e-01,9.99999e-01,9.50874e-01,9.86456e-01,9.99950e-01
1.272290601e+00,9.11649e-01,9.99999e-01,9.23996e-01,9.86722e-01,9.99913e-01
1.278652054e+00,8.44181e-01,9.99999e-01,8.55445e-01,9.86982e-01,9.99847e-01
1.285045314e+00,7.45361e-01,9.99999e-01,7.55211e-01,9.87238e-01,9.99714e-01
1.291470541e+00,6.06274e-01,9.99999e-01,6.14262e-01,9.87488e-01,9.99499e-01
1.297927893e+00,5.27750e-01,9.99999e-01,5.34802e-01,9.87734e-01,9.99066e-01
1.304417533e+00,4.44193e-01,9.99999e-01,4.50489e-01,9.87974e-01,9.98024e-01
1.310939621e+00,3.95391e-01,9.99999e-01,4.01735e-01,9.88211e-01,9.95948e-01
1.317494319e+00,3.67563e-01,9.99999e-01,3.74663e-01,9.88442e-01,9.92518e-01
1.324081790e+00,2.36518e-01,9.99999e-01,2.42180e-01,9.88669e-01,9.87814e-01
1.330702199e+00,3.47884e-02,9.99999e-01,3.59307e-02,9.88892e-01,9.79081e-01
1.337355710e+00,7.29643e-06,9.99999e-01,7.68328e-06,9.89110e-01,9.60104e-01
1.344042489e+00,1.39253e-08,9.99999e-01,1.59119e-08,9.89324e-01,8.84592e-01
1.350762701e+00,5.21118e-28,9.99999e-01,8.01388e-28,9.89533e-01,6.57145e-01
1.357516515e+00,1.55531e-42,9.99999e-01,5.38791e-42,9.89739e-01,2.91659e-01
1.364304097e+00,2.79550e-26,9.99999e-01,2.44736e-25,9.89941e-01,1.15386e-01
1.371125618e+00,5.87616e-16,9.99999e-01,4.54569e-15,9.90138e-01,1.30556e-01
1.377981246e+00,2.40290e-15,9.99999e-01,1.38959e-14,9.90332e-01,1.74609e-01
1.384871152e+00,1.35367e-21,9.99999e-01,6.94875e-21,9.90522e-01,1.96672e-01
1.391795508e+00,1.90826e-26,9.99999e-01,9.07626e-26,9.90709e-01,2.12219e-01
1.398754485e+00,3.71168e-20,9.99999e-01,1.34787e-19,9.90891e-01,2.77905e-01
1.405748258e+00,6.54430e-20,9.99999e-01,1.39590e-19,9.91070e-01,4.73047e-01
1.412776999e+00,3.27572e-19,9.99998e-01,4.65108e-19,9.91246e-01,7.10511e-01
1.419840884e+00,5.70890e-19,9.99998e-01,6.68924e-19,9.91418e-01,8.60831e-01
1.426940089e+00,1.60252e-12,9.99998e-01,1.81099e-12,9.91587e-01,8.92392e-01
1.434074789e+00,4.11298e-11,9.99998e-01,4.74349e-11,9.91752e-01,8.74288e-01
1.441245163e+00,3.30840e-09,9.99998e-01,3.85781e-09,9.91915e-01,8.64575e-01
1.448451389e+00,2.73393e-06,9.99997e-01,3.13024e-06,9.92074e-01,8.80369e-01
1.455693646e+00,1.64233e-04,9.99998e-01,1.82770e-04,9.92230e-01,9.05614e-01
1.462972114e+00,2.28299e-04,9.99999e-01,2.52865e-04,9.92382e-01,9.09779e-01
1.470286975e+00,7.79078e-05,9.99999e-01,8.61391e-05,9.92532e-01,9.11245e-01
