#,Wave/freq,Total,N2,H2O,Rayleigh,CIA
4.000000000e-01,6.50723e-01,9.99999e-01,9.99951e-01,6.50754e-01,9.99999e-01
4.020000000e-01,6.56286e-01,9.99999e-01,9.99969e-01,6.56306e-01,9.99999e-01
4.040100000e-01,6.61780e-01,9.99999e-01,9.99986e-01,6.61788e-01,9.99999e-01
4.060300500e-01,6.67204e-01,9.99999e-01,9.99996e-01,6.67206e-01,9.99999e-01
4.080602003e-01,6.72560e-01,9.99999e-01,9.99998e-01,6.72561e-01,9.99999e-01
4.101005013e-01,6.77851e-01,9.99999e-01,9.99999e-01,6.77851e-01,9.99999e-01
4.121510038e-01,6.83076e-01,9.99999e-01,9.99997e-01,6.83077e-01,9.99999e-01
4.142117588e-01,6.88230e-01,9.99999e-01,9.99986e-01,6.88239e-01,9.99999e-01
4.162828176e-01,6.93295e-01,9.99999e-01,9.99939e-01,6.93337e-01,9.99999e-01
4.183642317e-01,6.98346e-01,9.99999e-01,9.99963e-01,6.98371e-01,9.99999e-01
4.204560528e-01,7.03325e-01,9.99999e-01,9.99977e-01,7.03341e-01,9.99999e-01
4.225583331e-01,7.08241e-01,9.99999e-01,9.99991e-01,7.08247e-01,9.99999e-01
4.246711247e-01,7.13085e-01,9.99999e-01,9.99993e-01,7.13089e-01,9.99999e-01
4.267944804e-01,7.17861e-01,9.99999e-01,9.99989e-01,7.17868e-01,9.99999e-01
4.289284528e-01,7.22578e-01,9.99999e-01,9.99992e-01,7.22584e-01,9.99999e-01
4.310730950e-01,7.27234e-01,9.99999e-01,9.99996e-01,7.27236e-01,9.99999e-01
4.332284605e-01,7.31825e-01,9.99999e-01,9.99998e-01,7.31826e-01,9.99999e-01
4.353946028e-01,7.36353e-01,9.99999e-01,9.99999e-01,7.36353e-01,9.99999e-01
4.375715758e-01,7.40813e-01,9.99999e-01,9.99993e-01,7.40818e-01,9.99999e-01
4.397594337e-01,7.45182e-01,9.99999e-01,9.99947e-01,7.45221e-01,9.99999e-01
4.419582309e-01,7.49363e-01,9.99999e-01,9.99734e-01,7.49562e-01,9.99999e-01
4.441680220e-01,7.53684e-01,9.99999e-01,9.99789e-01,7.53842e-01,9.99999e-01
4.463888621e-01,7.57897e-01,9.99999e-01,9.99782e-01,7.58061e-01,9.99999e-01
4.486208064e-01,7.62117e-01,9.99999e-01,9.99864e-01,7.62220e-01,9.99999e-01
4.508639105e-01,7.66271e-01,9.99999e-01,9.99936e-01,7.66319e-01,9.99999e-01
4.531182300e-01,7.70339e-01,9.99999e-01,9.99974e-01,7.70358e-01,9.99999e-01
4.553838212e-01,7.74326e-01,9.99999e-01,9.99982e-01,7.74339e-01,9.99999e-01
4.576607403e-01,7.78254e-01,9.99999e-01,9.99991e-01,7.78260e-01,9.99999e-01
4.599490440e-01,7.82119e-01,9.99999e-01,9.99993e-01,7.82124e-01,9.99999e-01
4.622487892e-01,7.85929e-01,9.99999e-01,9.99998e-01,7.85929e-01,9.99999e-01
4.645600332e-01,7.89675e-01,9.99999e-01,9.99995e-01,7.89678e-01,9.99999e-01
4.668828333e-01,7.93319e-01,9.99999e-01,9.99935e-01,7.93369e-01,9.99999e-01
4.692172475e-01,7.96896e-01,9.99999e-01,9.99863e-01,7.97005e-01,9.99999e-01
4.715633337e-01,8.00514e-01,9.99999e-01,9.99910e-01,8.00585e-01,9.99999e-01
4.739211504e-01,8.04041e-01,9.99999e-01,9.99914e-01,8.04110e-01,9.99999e-01
4.762907561e-01,8.07544e-01,9.99999e-01,9.99955e-01,8.07580e-01,9.99999e-01
4.786722099e-01,8.10982e-01,9.99999e-01,9.99981e-01,8.10996e-01,9.99999e-01
4.810655710e-01,8.14355e-01,9.99999e-01,9.99994e-01,8.14359e-01,9.99999e-01
4.834708988e-01,8.17627e-01,9.99999e-01,9.99947e-01,8.17669e-01,9.99999e-01
4.858882533e-01,8.20847e-01,9.99999e-01,9.99902e-01,8.20927e-01,9.99999e-01
4.883176946e-01,8.24066e-01,9.99999e-01,9.99918e-01,8.24133e-01,9.99999e-01
4.907592831e-01,8.27227e-01,9.99999e-01,9.99926e-01,8.27287e-01,9.99999e-01
4.932130795e-01,8.30348e-01,9.99999e-01,9.99947e-01,8.30391e-01,9.99999e-01
4.956791449e-01,8.33423e-01,9.99999e-01,9.99972e-01,8.33446e-01,9.99999e-01
4.981575406e-01,8.36336e-01,9.99999e-01,9.99862e-01,8.36450e-01,9.99999e-01
5.006483283e-01,8.39107e-01,9.99999e-01,9.99646e-01,8.39406e-01,9.99997e-01
5.031515699e-01,8.40783e-01,9.99999e-01,9.98200e-01,8.42314e-01,9.99980e-01
5.056673278e-01,8.44351e-01,9.99999e-01,9.99048e-01,8.45174e-01,9.99977e-01
5.081956644e-01,8.46957e-01,9.99999e-01,9.98799e-01,8.47986e-01,9.99985e-01
5.107366428e-01,8.50061e-01,9.99999e-01,9.99188e-01,8.50753e-01,9.99996e-01
5.132903260e-01,8.53077e-01,9.99999e-01,9.99535e-01,8.53473e-01,9.99999e-01
5.158567776e-01,8.55981e-01,9.99999e-01,9.99803e-01,8.56148e-01,9.99999e-01
5.184360615e-01,8.58712e-01,9.99999e-01,9.99921e-01,8.58779e-01,9.99999e-01
5.210282418e-01,8.61340e-01,9.99999e-01,9.99970e-01,8.61365e-01,9.99999e-01
5.236333830e-01,8.63806e-01,9.99999e-01,9.99882e-01,8.63908e-01,9.99998e-01
5.262515499e-01,8.66343e-01,9.99999e-01,9.99926e-01,8.66408e-01,9.99998e-01
5.288828077e-01,8.68807e-01,9.99999e-01,9.99932e-01,8.68866e-01,9.99998e-01
5.315272217e-01,8.71230e-01,9.99999e-01,9.99940e-01,8.71281e-01,9.99999e-01
5.341848578e-01,8.73622e-01,9.99999e-01,9.99960e-01,8.73656e-01,9.99999e-01
5.368557821e-01,8.75870e-01,9.99999e-01,9.99863e-01,8.75990e-01,9.99999e-01
5.395400610e-01,8.77850e-01,9.99999e-01,9.99509e-01,8.78284e-01,9.99995e-01
5.422377613e-01,8.79966e-01,9.99999e-01,9.99360e-01,8.80538e-01,9.99987e-01
5.449489501e-01,8.82221e-01,9.99999e-01,9.99408e-01,8.82754e-01,9.99987e-01
5.476736949e-01,8.84460e-01,9.99999e-01,9.99473e-01,8.84931e-01,9.99993e-01
5.504120634e-01,8.86730e-01,9.99999e-01,9.99617e-01,8.87070e-01,9.99997e-01
5.531641237e-01,8.89001e-01,9.99999e-01,9.99807e-01,8.89172e-01,9.99999e-01
5.559299443e-01,8.91155e-01,9.99999e-01,9.99906e-01,8.91238e-01,9.99999e-01
5.587095940e-01,8.93215e-01,9.99999e-01,9.99941e-01,8.93267e-01,9.99999e-01
5.615031420e-01,8.95203e-01,9.99999e-01,9.99934e-01,8.95261e-01,9.99999e-01
5.643106577e-01,8.97154e-01,9.99999e-01,9.99926e-01,8.97220e-01,9.99998e-01
5.671322110e-01,8.98344e-01,9.99999e-01,9.99118e-01,8.99144e-01,9.99991e-01
5.699678720e-01,9.00154e-01,9.99999e-01,9.99047e-01,9.01034e-01,9.99975e-01
5.728177114e-01,9.01983e-01,9.99999e-01,9.99014e-01,9.02890e-01,9.99979e-01
5.756818000e-01,9.03884e-01,9.99999e-01,9.99094e-01,9.04714e-01,9.99987e-01
5.785602090e-01,9.05786e-01,9.99999e-01,9.99209e-01,9.06505e-01,9.99995e-01
5.814530100e-01,9.07543e-01,9.99999e-01,9.99207e-01,9.08265e-01,9.99997e-01
5.843602750e-01,9.09132e-01,9.99999e-01,9.99059e-01,9.09992e-01,9.99994e-01
5.872820764e-01,9.04267e-01,9.99999e-01,9.91915e-01,9.11689e-01,9.99942e-01
5.902184868e-01,9.04224e-01,9.99999e-01,9.90155e-01,9.13356e-01,9.99843e-01
5.931695792e-01,9.08497e-01,9.99999e-01,9.93051e-01,9.14992e-01,9.99847e-01
5.961354271e-01,9.09526e-01,9.99999e-01,9.92373e-01,9.16599e-01,9.99907e-01
5.991161043e-01,9.13038e-01,9.99999e-01,9.94429e-01,9.18177e-01,9.99972e-01
6.021116848e-01,9.16812e-01,9.99999e-01,9.96833e-01,9.19727e-01,9.99996e-01
6.051222432e-01,9.19771e-01,9.99999e-01,9.98396e-01,9.21248e-01,9.99999e-01
6.081478544e-01,9.22104e-01,9.99999e-01,9.99308e-01,9.22742e-01,9.99999e-01
6.111885937e-01,9.23938e-01,9.99999e-01,9.99706e-01,9.24209e-01,9.99999e-01
6.142445367e-01,9.25528e-01,9.99999e-01,9.99868e-01,9.25649e-01,9.99999e-01
6.173157594e-01,9.26996e-01,9.99999e-01,9.99927e-01,9.27062e-01,9.99999e-01
6.204023382e-01,9.28394e-01,9.99999e-01,9.99938e-01,9.28450e-01,9.99999e-01
6.235043498e-01,9.29565e-01,9.99999e-01,9.99734e-01,9.29813e-01,9.99998e-01
6.266218716e-01,9.29820e-01,9.99999e-01,9.98581e-01,9.31150e-01,9.99989e-01
6.297549810e-01,9.31959e-01,9.99999e-01,9.99479e-01,9.32463e-01,9.99979e-01
6.329037559e-01,9.32775e-01,9.99999e-01,9.98969e-01,9.33752e-01,9.99983e-01
6.360682746e-01,9.34190e-01,9.99999e-01,9.99124e-01,9.35017e-01,9.99990e-01
6.392486160e-01,9.35192e-01,9.99999e-01,9.98864e-01,9.36259e-01,9.99995e-01
6.424448591e-01,9.36054e-01,9.99999e-01,9.98487e-01,9.37477e-01,9.99992e-01
6.456570834e-01,9.32061e-01,9.99999e-01,9.92993e-01,9.38674e-01,9.99960e-01
6.488853688e-01,9.34893e-01,9.99999e-01,9.94835e-01,9.39848e-01,9.99890e-01
6.521297956e-01,9.35962e-01,9.99999e-01,9.94736e-01,9.41000e-01,9.99907e-01
6.553904446e-01,9.37163e-01,9.99999e-01,9.94794e-01,9.42131e-01,9.99930e-01
6.586673968e-01,9.38986e-01,9.99999e-01,9.95510e-01,9.43241e-01,9.99977e-01
6.619607338e-01,9.41873e-01,9.99999e-01,9.97402e-01,9.44330e-01,9.99994e-01
6.652705375e-01,9.43973e-01,9.99999e-01,9.98493e-01,9.45399e-01,9.99997e-01
6.685968902e-01,9.45786e-01,9.99999e-01,9.99300e-01,9.46449e-01,9.99999e-01
6.719398746e-01,9.47171e-01,9.99999e-01,9.99675e-01,9.47478e-01,9.99999e-01
6.752995740e-01,9.48322e-01,9.99999e-01,9.99824e-01,9.48488e-01,9.99999e-01
6.786760719e-01,9.49240e-01,9.99999e-01,9.99747e-01,9.49480e-01,9.99999e-01
6.820694522e-01,9.50039e-01,9.99999e-01,9.99567e-01,9.50452e-01,9.99997e-01
6.854797995e-01,9.50872e-01,9.99999e-01,9.99442e-01,9.51407e-01,9.99994e-01
6.889071985e-01,9.51057e-01,9.99999e-01,9.98661e-01,9.52343e-01,9.99987e-01
6.923517345e-01,9.32404e-01,9.99999e-01,9.78221e-01,9.53262e-01,9.99893e-01
6.958134932e-01,9.42964e-01,9.99999e-01,9.88496e-01,9.54164e-01,9.99760e-01
6.992925606e-01,9.44514e-01,9.99999e-01,9.89176e-01,9.55049e-01,9.99789e-01
7.027890234e-01,9.42950e-01,9.99999e-01,9.86593e-01,9.55917e-01,9.99838e-01
7.063029686e-01,9.45901e-01,9.99999e-01,9.88720e-01,9.56768e-01,9.99919e-01
7.098344834e-01,9.47192e-01,9.99999e-01,9.89174e-01,9.57604e-01,9.99952e-01
7.133836558e-01,9.44636e-01,9.99999e-01,9.85706e-01,9.58424e-01,9.99905e-01
7.169505741e-01,8.53930e-01,9.99999e-01,8.90886e-01,9.59228e-01,9.99258e-01
7.205353270e-01,9.05453e-01,9.99999e-01,9.44398e-01,9.60017e-01,9.98691e-01
7.241380036e-01,8.92906e-01,9.99999e-01,9.30394e-01,9.60791e-01,9.98870e-01
7.277586936e-01,9.00093e-01,9.99999e-01,9.36949e-01,9.61550e-01,9.99076e-01
7.313974871e-01,8.97190e-01,9.99999e-01,9.32746e-01,9.62295e-01,9.99566e-01
7.350544745e-01,9.26963e-01,9.99999e-01,9.62696e-01,9.63026e-01,9.99849e-01
7.387297469e-01,9.37062e-01,9.99999e-01,9.72381e-01,9.63743e-01,9.99930e-01
7.424233956e-01,9.51291e-01,9.99999e-01,9.86372e-01,9.64446e-01,9.99986e-01
7.461355126e-01,9.57150e-01,9.99999e-01,9.91727e-01,9.65136e-01,9.99997e-01
7.498661902e-01,9.62080e-01,9.99999e-01,9.96134e-01,9.65813e-01,9.99998e-01
7.536155211e-01,9.64646e-01,9.99999e-01,9.98105e-01,9.66477e-01,9.99999e-01
7.573835987e-01,9.66184e-01,9.99999e-01,9.99024e-01,9.67128e-01,9.99999e-01
7.611705167e-01,9.67180e-01,9.99999e-01,9.99393e-01,9.67766e-01,9.99999e-01
7.649763693e-01,9.68025e-01,9.99999e-01,9.99620e-01,9.68393e-01,9.99999e-01
7.688012511e-01,9.68752e-01,9.99999e-01,9.99735e-01,9.69008e-01,9.99999e-01
7.726452574e-01,9.69400e-01,9.99999e-01,9.99782e-01,9.69610e-01,9.99999e-01
7.765084837e-01,9.69903e-01,9.99999e-01,9.99692e-01,9.70201e-01,9.99999e-01
7.803910261e-01,9.69492e-01,9.99999e-01,9.98672e-01,9.70781e-01,9.99998e-01
7.842929812e-01,9.66848e-01,9.99999e-01,9.95373e-01,9.71350e-01,9.99990e-01
7.882144461e-01,9.62563e-01,9.99999e-01,9.90442e-01,9.71908e-01,9.99940e-01
7.921555184e-01,9.67226e-01,9.99999e-01,9.94735e-01,9.72455e-01,9.99886e-01
7.961162960e-01,9.63905e-01,9.99999e-01,9.90768e-01,9.72992e-01,9.99890e-01
8.000968774e-01,9.62996e-01,9.99999e-01,9.89305e-01,9.73518e-01,9.99883e-01
8.040973618e-01,9.63536e-01,9.99999e-01,9.89312e-01,9.74034e-01,9.99907e-01
8.081178486e-01,9.51238e-01,9.99999e-01,9.76172e-01,9.74541e-01,9.99913e-01
8.121584379e-01,8.81632e-01,9.99999e-01,9.04509e-01,9.75037e-01,9.99661e-01
8.162192301e-01,8.64390e-01,9.99999e-01,8.87205e-01,9.75524e-01,9.98727e-01
8.203003262e-01,9.19197e-01,9.99999e-01,9.43202e-01,9.76002e-01,9.98509e-01
8.244018279e-01,8.98137e-01,9.99999e-01,9.20871e-01,9.76470e-01,9.98813e-01
8.285238370e-01,9.08823e-01,9.99999e-01,9.31151e-01,9.76929e-01,9.99068e-01
8.326664562e-01,9.08941e-01,9.99999e-01,9.30334e-01,9.77380e-01,9.99614e-01
8.368297885e-01,9.28421e-01,9.99999e-01,9.49561e-01,9.77822e-01,9.99911e-01
8.410139374e-01,9.48564e-01,9.99999e-01,9.69698e-01,9.78255e-01,9.99948e-01
8.452190071e-01,9.63984e-01,9.99999e-01,9.85013e-01,9.78680e-01,9.99968e-01
8.494451021e-01,9.70551e-01,9.99999e-01,9.91295e-01,9.79097e-01,9.99974e-01
8.536923276e-01,9.74431e-01,9.99999e-01,9.94834e-01,9.79505e-01,9.99983e-01
8.579607893e-01,9.76788e-01,9.99999e-01,9.96821e-01,9.79906e-01,9.99995e-01
8.622505932e-01,9.78316e-01,9.99999e-01,9.97977e-01,9.80299e-01,9.99998e-01
8.665618462e-01,9.79459e-01,9.99999e-01,9.98750e-01,9.80684e-01,9.99999e-01
8.708946554e-01,9.79661e-01,9.99999e-01,9.98571e-01,9.81062e-01,9.99998e-01
8.752491287e-01,9.79555e-01,9.99999e-01,9.98088e-01,9.81433e-01,9.99997e-01
8.796253743e-01,9.79198e-01,9.99999e-01,9.97358e-01,9.81796e-01,9.99993e-01
8.840235012e-01,9.79171e-01,9.99999e-01,9.96981e-01,9.82152e-01,9.99981e-01
8.884436187e-01,9.71791e-01,9.99999e-01,9.89149e-01,9.82502e-01,9.99947e-01
8.928858368e-01,8.75675e-01,9.99999e-01,8.91229e-01,9.82844e-01,9.99697e-01
8.973502660e-01,8.00293e-01,9.99999e-01,8.15245e-01,9.83180e-01,9.98451e-01
9.018370173e-01,8.83630e-01,9.99999e-01,9.00635e-01,9.83510e-01,9.97567e-01
9.063462024e-01,8.95884e-01,9.99999e-01,9.12555e-01,9.83833e-01,9.97862e-01
9.108779334e-01,8.51085e-01,9.99999e-01,8.66716e-01,9.84150e-01,9.97778e-01
9.154323231e-01,8.34858e-01,9.99999e-01,8.49595e-01,9.84460e-01,9.98163e-01
9.200094847e-01,8.65916e-01,9.99999e-01,8.80216e-01,9.84765e-01,9.98971e-01
9.246095321e-01,8.10917e-01,9.99999e-01,8.24188e-01,9.85063e-01,9.98815e-01
9.292325798e-01,2.80578e-01,9.99999e-01,2.86066e-01,9.85356e-01,9.95388e-01
9.338787427e-01,1.91544e-01,9.99999e-01,1.98082e-01,9.85643e-01,9.81076e-01
9.385481364e-01,4.98937e-01,9.99999e-01,5.17690e-01,9.85925e-01,9.77533e-01
9.432408771e-01,3.99041e-01,9.99999e-01,4.12634e-01,9.86201e-01,9.80587e-01
9.479570815e-01,2.87472e-01,9.99999e-01,2.96100e-01,9.86472e-01,9.84172e-01
9.526968669e-01,3.82199e-01,9.99999e-01,3.91123e-01,9.86737e-01,9.90315e-01
9.574603512e-01,4.03673e-01,9.99999e-01,4.11017e-01,9.86997e-01,9.95068e-01
9.622476530e-01,4.72474e-01,9.99999e-01,4.80212e-01,9.87253e-01,9.96587e-01
9.670588912e-01,6.43979e-01,9.99999e-01,6.53654e-01,9.87503e-01,9.97664e-01
9.718941857e-01,7.52752e-01,9.99999e-01,7.63401e-01,9.87748e-01,9.98280e-01
9.767536566e-01,7.88435e-01,9.99999e-01,7.99070e-01,9.87989e-01,9.98685e-01
9.816374249e-01,8.35896e-01,9.99999e-01,8.46240e-01,9.88224e-01,9.99544e-01
9.865456120e-01,8.90278e-01,9.99999e-01,9.00760e-01,9.88456e-01,9.99904e-01
9.914783401e-01,9.26751e-01,9.99999e-01,9.37383e-01,9.88682e-01,9.99973e-01
9.964357318e-01,9.54667e-01,9.99999e-01,9.65392e-01,9.88905e-01,9.99984e-01
1.001417910e+00,9.68433e-01,9.99999e-01,9.79105e-01,9.89123e-01,9.99976e-01
1.006425000e+00,9.77480e-01,9.99999e-01,9.88047e-01,9.89336e-01,9.99966e-01
1.011457125e+00,9.82149e-01,9.99999e-01,9.92555e-01,9.89546e-01,9.99968e-01
1.016514411e+00,9.84727e-01,9.99999e-01,9.94944e-01,9.89751e-01,9.99977e-01
1.021596983e+00,9.85943e-01,9.99999e-01,9.95971e-01,9.89953e-01,9.99977e-01
1.026704968e+00,9.87025e-01,9.99999e-01,9.96857e-01,9.90150e-01,9.99984e-01
1.031838492e+00,9.88075e-01,9.99999e-01,9.97712e-01,9.90344e-01,9.99995e-01
1.036997685e+00,9.89189e-01,9.99999e-01,9.98642e-01,9.90534e-01,9.99998e-01
1.042182673e+00,9.89120e-01,9.99999e-01,9.98384e-01,9.90720e-01,9.99999e-01
1.047393587e+00,9.88778e-01,9.99999e-01,9.97856e-01,9.90902e-01,9.99999e-01
1.052630555e+00,9.88169e-01,9.99999e-01,9.97061e-01,9.91081e-01,9.99998e-01
1.057893707e+00,9.86401e-01,9.99999e-01,9.95102e-01,9.91256e-01,9.99997e-01
1.063183176e+00,9.83442e-01,9.99999e-01,9.91948e-01,9.91428e-01,9.99995e-01
1.068499092e+00,9.78245e-01,9.99999e-01,9.86543e-01,9.91597e-01,9.99990e-01
1.073841587e+00,9.76166e-01,9.99999e-01,9.84293e-01,9.91762e-01,9.99979e-01
1.079210795e+00,9.71907e-01,9.99999e-01,9.79872e-01,9.91924e-01,9.99945e-01
1.084606849e+00,9.61926e-01,9.99999e-01,9.69727e-01,9.92083e-01,9.99869e-01
1.090029883e+00,9.49288e-01,9.99999e-01,9.56971e-01,9.92239e-01,9.99729e-01
1.095480033e+00,8.79823e-01,9.99999e-01,8.87001e-01,9.92392e-01,9.99511e-01
1.100957433e+00,7.32654e-01,9.99999e-01,7.38823e-01,9.92541e-01,9.99101e-01
1.106462220e+00,4.68035e-01,9.99999e-01,4.72201e-01,9.92688e-01,9.98476e-01
1.111994531e+00,2.09249e-01,9.99999e-01,2.11614e-01,9.92832e-01,9.95961e-01
1.117554504e+00,8.38221e-02,9.99999e-01,8.56573e-02,9.92973e-01,9.85498e-01
1.123142276e+00,1.71988e-01,9.99999e-01,1.79285e-01,9.93111e-01,9.65953e-01
1.128757988e+00,2.98286e-01,9.99999e-01,3.12593e-01,9.93247e-01,9.60719e-01
1.134401778e+00,1.35771e-01,9.99999e-01,1.41413e-01,9.93380e-01,9.66500e-01
1.140073787e+00,4.72345e-01,9.99999e-01,4.88551e-01,9.93510e-01,9.73142e-01
1.145774156e+00,2.31385e-01,9.99999e-01,2.38742e-01,9.93638e-01,9.75387e-01
1.151503026e+00,2.02020e-01,9.99999e-01,2.06130e-01,9.93763e-01,9.86213e-01
1.157260541e+00,2.47387e-01,9.99999e-01,2.49944e-01,9.93886e-01,9.95857e-01
1.163046844e+00,3.53048e-01,9.99999e-01,3.55595e-01,9.94006e-01,9.98823e-01
1.168862078e+00,4.77342e-01,9.99999e-01,4.80454e-01,9.94124e-01,9.99393e-01
1.174706389e+00,6.31502e-01,9.99999e-01,6.35670e-01,9.94240e-01,9.99196e-01
1.180579921e+00,7.52841e-01,9.99999e-01,7.58036e-01,9.94353e-01,9.98785e-01
1.186482820e+00,8.48792e-01,9.99999e-01,8.54581e-01,9.94465e-01,9.98753e-01
1.192415234e+00,9.06482e-01,9.99999e-01,9.12278e-01,9.94574e-01,9.99066e-01
1.198377311e+00,9.19896e-01,9.99999e-01,9.25630e-01,9.94681e-01,9.99117e-01
1.204369197e+00,9.23992e-01,9.99999e-01,9.29576e-01,9.94785e-01,9.99201e-01
1.210391043e+00,9.27248e-01,9.99999e-01,9.32464e-01,9.94888e-01,9.99514e-01
1.216442998e+00,9.37190e-01,9.99999e-01,9.42190e-01,9.94989e-01,9.99702e-01
1.222525213e+00,9.49813e-01,9.99999e-01,9.54677e-01,9.95087e-01,9.99814e-01
1.228637839e+00,9.63569e-01,9.99999e-01,9.68313e-01,9.95184e-01,9.99913e-01
1.234781029e+00,9.71730e-01,9.99999e-01,9.76362e-01,9.95279e-01,9.99974e-01
1.240954934e+00,9.80433e-01,9.99999e-01,9.84997e-01,9.95372e-01,9.99992e-01
1.247159708e+00,9.83804e-01,9.99999e-01,9.88291e-01,9.95463e-01,9.99995e-01
1.253395507e+00,9.85201e-01,9.99999e-01,9.89607e-01,9.95553e-01,9.99993e-01
1.259662485e+00,9.85813e-01,9.99999e-01,9.90138e-01,9.95640e-01,9.99990e-01
1.265960797e+00,9.80046e-01,9.99999e-01,9.84267e-01,9.95726e-01,9.99984e-01
1.272290601e+00,9.72847e-01,9.99999e-01,9.76965e-01,9.95810e-01,9.99972e-01
1.278652054e+00,9.48013e-01,9.99999e-01,9.51967e-01,9.95893e-01,9.99951e-01
1.285045314e+00,9.21749e-01,9.99999e-01,9.25557e-01,9.95974e-01,9.99910e-01
1.291470541e+00,8.52512e-01,9.99999e-01,8.56024e-01,9.96053e-01,9.99842e-01
1.297927893e+00,8.13398e-01,9.99999e-01,8.16796e-01,9.96131e-01,9.99706e-01
1.304417533e+00,7.67559e-01,9.99999e-01,7.70959e-01,9.96207e-01,9.99378e-01
1.310939621e+00,7.39320e-01,9.99999e-01,7.43025e-01,9.96282e-01,9.98725e-01
1.317494319e+00,7.19744e-01,9.99999e-01,7.24081e-01,9.96355e-01,9.97643e-01
1.324081790e+00,6.15832e-01,9.99999e-01,6.20424e-01,9.96427e-01,9.96156e-01
1.330702199e+00,2.11912e-01,9.99999e-01,2.14073e-01,9.96498e-01,9.93381e-01
1.337355710e+00,1.22978e-02,9.99999e-01,1.24989e-02,9.96567e-01,9.87294e-01
1.344042489e+00,3.14718e-04,9.99999e-01,3.28180e-04,9.96634e-01,9.62217e-01
1.350762701e+00,3.69448e-10,9.99999e-01,4.22918e-10,9.96701e-01,8.76459e-01
1.357516515e+00,8.51797e-15,9.99999e-01,1.25838e-14,9.96766e-01,6.79094e-01
1.364304097e+00,1.40524e-09,9.99999e-01,2.77770e-09,9.96830e-01,5.07509e-01
1.371125618e+00,1.93304e-06,9.99999e-01,3.67535e-06,9.96892e-01,5.27585e-01
1.377981246e+00,7.13715e-06,9.99999e-01,1.23851e-05,9.96953e-01,5.78031e-01
1.384871152e+00,2.51461e-08,9.99999e-01,4.22650e-08,9.97013e-01,5.96742e-01
1.391795508e+00,1.70141e-09,9.99999e-01,2.78178e-09,9.97072e-01,6.13422e-01
1.398754485e+00,1.11568e-07,9.99999e-01,1.67281e-07,9.97130e-01,6.68868e-01
1.405748258e+00,1.46708e-07,9.99999e-01,1.86115e-07,9.97187e-01,7.90487e-01
1.412776999e+00,1.68775e-07,9.99999e-01,1.88419e-07,9.97242e-01,8.98218e-01
1.419840884e+00,3.73640e-07,9.99999e-01,3.92708e-07,9.97296e-01,9.54023e-01
1.426940089e+00,2.05220e-05,9.99999e-01,2.13256e-05,9.97350e-01,9.64874e-01
1.434074789e+00,1.63616e-04,9.99999e-01,1.71112e-04,9.97402e-01,9.58682e-01
1.441245163e+00,8.18716e-04,9.99999e-01,8.59190e-04,9.97453e-01,9.55324e-01
1.448451389e+00,7.29611e-03,9.99998e-01,7.61300e-03,9.97503e-01,9.60772e-01
1.455693646e+00,3.42571e-02,9.99999e-01,3.54273e-02,9.97553e-01,9.69341e-01
1.462972114e+00,4.93593e-02,9.99999e-01,5.09693e-02,9.97601e-01,9.70739e-01
1.470286975e+00,3.09408e-02,9.99999e-01,3.19323e-02,9.97648e-01,9.71230e-01
