#,Wave/freq,Total,N2,H2O,Rayleigh,CIA
4.000000000e-01,7.51667e-01,9.99999e-01,9.99967e-01,7.51691e-01,9.99999e-01
4.020000000e-01,7.55930e-01,9.99999e-01,9.99979e-01,7.55945e-01,9.99999e-01
4.040100000e-01,7.60128e-01,9.99999e-01,9.99991e-01,7.60134e-01,9.99999e-01
4.060300500e-01,7.64262e-01,9.99999e-01,9.99997e-01,7.64263e-01,9.99999e-01
4.080602003e-01,7.68332e-01,9.99999e-01,9.99998e-01,7.68333e-01,9.99999e-01
4.101005013e-01,7.72343e-01,9.99999e-01,9.99999e-01,7.72343e-01,9.99999e-01
4.121510038e-01,7.76293e-01,9.99999e-01,9.99998e-01,7.76294e-01,9.99999e-01
4.142117588e-01,7.80179e-01,9.99999e-01,9.99990e-01,7.80186e-01,9.99999e-01
4.162828176e-01,7.83990e-01,9.99999e-01,9.99959e-01,7.84021e-01,9.99999e-01
4.183642317e-01,7.87779e-01,9.99999e-01,9.99975e-01,7.87798e-01,9.99999e-01
4.204560528e-01,7.91507e-01,9.99999e-01,9.99984e-01,7.91518e-01,9.99999e-01
4.225583331e-01,7.95178e-01,9.99999e-01,9.99994e-01,7.95182e-01,9.99999e-01
4.246711247e-01,7.98787e-01,9.99999e-01,9.99995e-01,7.98790e-01,9.99999e-01
4.267944804e-01,8.02337e-01,9.99999e-01,9.99993e-01,8.02342e-01,9.99999e-01
4.289284528e-01,8.05836e-01,9.99999e-01,9.99994e-01,8.05840e-01,9.99999e-01
4.310730950e-01,8.09282e-01,9.99999e-01,9.99997e-01,8.09284e-01,9.99999e-01
4.332284605e-01,8.12673e-01,9.99999e-01,9.99998e-01,8.12673e-01,9.99999e-01
4.353946028e-01,8.16010e-01,9.99999e-01,9.99999e-01,8.16010e-01,9.99999e-01
4.375715758e-01,8.19290e-01,9.99999e-01,9.99995e-01,8.19294e-01,9.99999e-01
4.397594337e-01,8.22497e-01,9.99999e-01,9.99964e-01,8.22525e-01,9.99999e-01
4.419582309e-01,8.25559e-01,9.99999e-01,9.99822e-01,8.25706e-01,9.99999e-01
4.441680220e-01,8.28720e-01,9.99999e-01,9.99860e-01,8.28835e-01,9.99999e-01
4.463888621e-01,8.31794e-01,9.99999e-01,9.99855e-01,8.31914e-01,9.99999e-01
4.486208064e-01,8.34869e-01,9.99999e-01,9.99909e-01,8.34944e-01,9.99999e-01
4.508639105e-01,8.37889e-01,9.99999e-01,9.99957e-01,8.37924e-01,9.99999e-01
4.531182300e-01,8.40842e-01,9.99999e-01,9.99982e-01,8.40856e-01,9.99999e-01
4.553838212e-01,8.43730e-01,9.99999e-01,9.99988e-01,8.43740e-01,9.99999e-01
4.576607403e-01,8.46572e-01,9.99999e-01,9.99994e-01,8.46576e-01,9.99999e-01
4.599490440e-01,8.49363e-01,9.99999e-01,9.99995e-01,8.49366e-01,9.99999e-01
4.622487892e-01,8.52109e-01,9.99999e-01,9.99998e-01,8.52110e-01,9.99999e-01
4.645600332e-01,8.54805e-01,9.99999e-01,9.99996e-01,8.54807e-01,9.99999e-01
4.668828333e-01,8.57424e-01,9.99999e-01,9.99957e-01,8.57460e-01,9.99999e-01
4.692172475e-01,8.59991e-01,9.99999e-01,9.99908e-01,8.60069e-01,9.99999e-01
4.715633337e-01,8.62583e-01,9.99999e-01,9.99940e-01,8.62634e-01,9.99999e-01
4.739211504e-01,8.65106e-01,9.99999e-01,9.99942e-01,8.65155e-01,9.99999e-01
4.762907561e-01,8.67608e-01,9.99999e-01,9.99970e-01,8.67634e-01,9.99999e-01
4.786722099e-01,8.70060e-01,9.99999e-01,9.99987e-01,8.70071e-01,9.99999e-01
4.810655710e-01,8.72463e-01,9.99999e-01,9.99995e-01,8.72466e-01,9.99999e-01
4.834708988e-01,8.74790e-01,9.99999e-01,9.99964e-01,8.74820e-01,9.99999e-01
4.858882533e-01,8.77078e-01,9.99999e-01,9.99935e-01,8.77134e-01,9.99999e-01
4.883176946e-01,8.79361e-01,9.99999e-01,9.99945e-01,8.79408e-01,9.99999e-01
4.907592831e-01,8.81601e-01,9.99999e-01,9.99950e-01,8.81643e-01,9.99999e-01
4.932130795e-01,8.83809e-01,9.99999e-01,9.99965e-01,8.83840e-01,9.99999e-01
4.956791449e-01,8.85982e-01,9.99999e-01,9.99981e-01,8.85998e-01,9.99999e-01
4.981575406e-01,8.88038e-01,9.99999e-01,9.99908e-01,8.88119e-01,9.99999e-01
5.006483283e-01,8.89992e-01,9.99999e-01,9.99763e-01,8.90203e-01,9.99997e-01
5.031515699e-01,8.91172e-01,9.99999e-01,9.98803e-01,8.92250e-01,9.99986e-01
5.056673278e-01,8.93684e-01,9.99999e-01,9.99367e-01,8.94262e-01,9.99985e-01
5.081956644e-01,8.95515e-01,9.99999e-01,9.99202e-01,8.96238e-01,9.99990e-01
5.107366428e-01,8.97694e-01,9.99999e-01,9.99461e-01,8.98179e-01,9.99997e-01
5.132903260e-01,8.99809e-01,9.99999e-01,9.99691e-01,9.00087e-01,9.99999e-01
5.158567776e-01,9.01843e-01,9.99999e-01,9.99869e-01,9.01960e-01,9.99999e-01
5.184360615e-01,9.03753e-01,9.99999e-01,9.99947e-01,9.03800e-01,9.99999e-01
5.210282418e-01,9.05590e-01,9.99999e-01,9.99980e-01,9.05608e-01,9.99999e-01
5.236333830e-01,9.07312e-01,9.99999e-01,9.99921e-01,9.07383e-01,9.99998e-01
5.262515499e-01,9.09082e-01,9.99999e-01,9.99950e-01,9.09127e-01,9.99998e-01
5.288828077e-01,9.10798e-01,9.99999e-01,9.99954e-01,9.10839e-01,9.99999e-01
5.315272217e-01,9.12485e-01,9.99999e-01,9.99960e-01,9.12521e-01,9.99999e-01
5.341848578e-01,9.14149e-01,9.99999e-01,9.99973e-01,9.14172e-01,9.99999e-01
5.368557821e-01,9.15711e-01,9.99999e-01,9.99908e-01,9.15794e-01,9.99999e-01
5.395400610e-01,9.17084e-01,9.99999e-01,9.99672e-01,9.17387e-01,9.99996e-01
5.422377613e-01,9.18554e-01,9.99999e-01,9.99575e-01,9.18950e-01,9.99991e-01
5.449489501e-01,9.20116e-01,9.99999e-01,9.99605e-01,9.20486e-01,9.99991e-01
5.476736949e-01,9.21668e-01,9.99999e-01,9.99650e-01,9.21994e-01,9.99995e-01
5.504120634e-01,9.23239e-01,9.99999e-01,9.99746e-01,9.23474e-01,9.99998e-01
5.531641237e-01,9.24809e-01,9.99999e-01,9.99872e-01,9.24927e-01,9.99999e-01
5.559299443e-01,9.26297e-01,9.99999e-01,9.99937e-01,9.26354e-01,9.99999e-01
5.587095940e-01,9.27719e-01,9.99999e-01,9.99960e-01,9.27755e-01,9.99999e-01
5.615031420e-01,9.29090e-01,9.99999e-01,9.99956e-01,9.29130e-01,9.99999e-01
5.643106577e-01,9.30434e-01,9.99999e-01,9.99951e-01,9.30480e-01,9.99999e-01
5.671322110e-01,9.31250e-01,9.99999e-01,9.99409e-01,9.31805e-01,9.99994e-01
5.699678720e-01,9.32503e-01,9.99999e-01,9.99369e-01,9.33106e-01,9.99983e-01
5.728177114e-01,9.33758e-01,9.99999e-01,9.99344e-01,9.34383e-01,9.99986e-01
5.756818000e-01,9.35066e-01,9.99999e-01,9.99397e-01,9.35637e-01,9.99991e-01
5.785602090e-01,9.36373e-01,9.99999e-01,9.99474e-01,9.36867e-01,9.99997e-01
5.814530100e-01,9.37579e-01,9.99999e-01,9.99472e-01,9.38074e-01,9.99998e-01
5.843602750e-01,9.38668e-01,9.99999e-01,9.99372e-01,9.39260e-01,9.99996e-01
5.872820764e-01,9.35312e-01,9.99999e-01,9.94602e-01,9.40423e-01,9.99961e-01
5.902184868e-01,9.35303e-01,9.99999e-01,9.93452e-01,9.41565e-01,9.99895e-01
5.931695792e-01,9.38231e-01,9.99999e-01,9.95373e-01,9.42685e-01,9.99899e-01
5.961354271e-01,9.38944e-01,9.99999e-01,9.94927e-01,9.43785e-01,9.99942e-01
5.991161043e-01,9.41350e-01,9.99999e-01,9.96297e-01,9.44864e-01,9.99981e-01
6.021116848e-01,9.43933e-01,9.99999e-01,9.97897e-01,9.45923e-01,9.99997e-01
6.051222432e-01,9.45955e-01,9.99999e-01,9.98935e-01,9.46962e-01,9.99999e-01
6.081478544e-01,9.47547e-01,9.99999e-01,9.99540e-01,9.47982e-01,9.99999e-01
6.111885937e-01,9.48799e-01,9.99999e-01,9.99805e-01,9.48983e-01,9.99999e-01
6.142445367e-01,9.49883e-01,9.99999e-01,9.99912e-01,9.49965e-01,9.99999e-01
6.173157594e-01,9.50883e-01,9.99999e-01,9.99951e-01,9.50929e-01,9.99999e-01
6.204023382e-01,9.51836e-01,9.99999e-01,9.99959e-01,9.51874e-01,9.99999e-01
6.235043498e-01,9.52632e-01,9.99999e-01,9.99821e-01,9.52802e-01,9.99999e-01
6.266218716e-01,9.52807e-01,9.99999e-01,9.99056e-01,9.53712e-01,9.99992e-01
6.297549810e-01,9.54263e-01,9.99999e-01,9.99653e-01,9.54605e-01,9.99986e-01
6.329037559e-01,9.54818e-01,9.99999e-01,9.99315e-01,9.55482e-01,9.99988e-01
6.360682746e-01,9.55779e-01,9.99999e-01,9.99417e-01,9.56342e-01,9.99993e-01
6.392486160e-01,9.56461e-01,9.99999e-01,9.99245e-01,9.57185e-01,9.99996e-01
6.424448591e-01,9.57043e-01,9.99999e-01,9.98991e-01,9.58013e-01,9.99995e-01
6.456570834e-01,9.54317e-01,9.99999e-01,9.95323e-01,9.58825e-01,9.99973e-01
6.488853688e-01,9.56259e-01,9.99999e-01,9.96568e-01,9.59622e-01,9.99926e-01
6.521297956e-01,9.56987e-01,9.99999e-01,9.96501e-01,9.60403e-01,9.99939e-01
6.553904446e-01,9.57784e-01,9.99999e-01,9.96520e-01,9.61170e-01,9.99954e-01
6.586673968e-01,9.59039e-01,9.99999e-01,9.97017e-01,9.61922e-01,9.99984e-01
6.619607338e-01,9.60997e-01,9.99999e-01,9.98275e-01,9.62660e-01,9.99996e-01
6.652705375e-01,9.62420e-01,9.99999e-01,9.99001e-01,9.63384e-01,9.99997e-01
6.685968902e-01,9.63646e-01,9.99999e-01,9.99535e-01,9.64094e-01,9.99999e-01
6.719398746e-01,9.64583e-01,9.99999e-01,9.99784e-01,9.64791e-01,9.99999e-01
6.752995740e-01,9.65361e-01,9.99999e-01,9.99883e-01,9.65474e-01,9.99999e-01
6.786760719e-01,9.65982e-01,9.99999e-01,9.99831e-01,9.66144e-01,9.99999e-01
6.820694522e-01,9.66522e-01,9.99999e-01,9.99711e-01,9.66802e-01,9.99998e-01
6.854797995e-01,9.67085e-01,9.99999e-01,9.99628e-01,9.67447e-01,9.99996e-01
6.889071985e-01,9.67204e-01,9.99999e-01,9.99103e-01,9.68079e-01,9.99991e-01
6.923517345e-01,9.54516e-01,9.99999e-01,9.85427e-01,9.68700e-01,9.99929e-01
6.958134932e-01,9.61768e-01,9.99999e-01,9.92374e-01,9.69308e-01,9.99843e-01
6.992925606e-01,9.62763e-01,9.99999e-01,9.92775e-01,9.69905e-01,9.99859e-01
7.027890234e-01,9.61726e-01,9.99999e-01,9.91073e-01,9.70491e-01,9.99892e-01
7.063029686e-01,9.63724e-01,9.99999e-01,9.92491e-01,9.71065e-01,9.99946e-01
7.098344834e-01,9.64598e-01,9.99999e-01,9.92795e-01,9.71629e-01,9.99968e-01
7.133836558e-01,9.62816e-01,9.99999e-01,9.90428e-01,9.72181e-01,9.99936e-01
7.169505741e-01,8.99873e-01,9.99999e-01,9.25563e-01,9.72723e-01,9.99506e-01
7.205353270e-01,9.36176e-01,9.99999e-01,9.62738e-01,9.73254e-01,9.99130e-01
7.241380036e-01,9.27310e-01,9.99999e-01,9.52998e-01,9.73776e-01,9.99248e-01
7.277586936e-01,9.32293e-01,9.99999e-01,9.57484e-01,9.74287e-01,9.99385e-01
7.313974871e-01,9.30442e-01,9.99999e-01,9.54780e-01,9.74788e-01,9.99712e-01
7.350544745e-01,9.50853e-01,9.99999e-01,9.75050e-01,9.75280e-01,9.99899e-01
7.387297469e-01,9.57742e-01,9.99999e-01,9.81576e-01,9.75763e-01,9.99953e-01
7.424233956e-01,9.67385e-01,9.99999e-01,9.90942e-01,9.76236e-01,9.99990e-01
7.461355126e-01,9.71330e-01,9.99999e-01,9.94503e-01,9.76699e-01,9.99997e-01
7.498661902e-01,9.74649e-01,9.99999e-01,9.97436e-01,9.77154e-01,9.99998e-01
7.536155211e-01,9.76371e-01,9.99999e-01,9.98742e-01,9.77600e-01,9.99999e-01
7.573835987e-01,9.77405e-01,9.99999e-01,9.99352e-01,9.78038e-01,9.99999e-01
7.611705167e-01,9.78074e-01,9.99999e-01,9.99597e-01,9.78467e-01,9.99999e-01
7.649763693e-01,9.78641e-01,9.99999e-01,9.99747e-01,9.78888e-01,9.99999e-01
7.688012511e-01,9.79129e-01,9.99999e-01,9.99824e-01,9.79301e-01,9.99999e-01
7.726452574e-01,9.79564e-01,9.99999e-01,9.99855e-01,9.79705e-01,9.99999e-01
7.765084837e-01,9.79901e-01,9.99999e-01,9.99794e-01,9.80102e-01,9.99999e-01
7.803910261e-01,9.79623e-01,9.99999e-01,9.99114e-01,9.80491e-01,9.99998e-01
7.842929812e-01,9.77839e-01,9.99999e-01,9.96912e-01,9.80873e-01,9.99993e-01
7.882144461e-01,9.74967e-01,9.99999e-01,9.93638e-01,9.81247e-01,9.99960e-01
7.921555184e-01,9.78110e-01,9.99999e-01,9.96504e-01,9.81614e-01,9.99924e-01
7.961162960e-01,9.75855e-01,9.99999e-01,9.93840e-01,9.81974e-01,9.99927e-01
8.000968774e-01,9.75258e-01,9.99999e-01,9.92880e-01,9.82327e-01,9.99922e-01
8.040973618e-01,9.75617e-01,9.99999e-01,9.92880e-01,9.82673e-01,9.99938e-01
8.081178486e-01,9.67265e-01,9.99999e-01,9.84036e-01,9.83012e-01,9.99942e-01
8.121584379e-01,9.19345e-01,9.99999e-01,9.35125e-01,9.83345e-01,9.99774e-01
8.162192301e-01,9.07511e-01,9.99999e-01,9.23355e-01,9.83671e-01,9.99153e-01
8.203003262e-01,9.44990e-01,9.99999e-01,9.61316e-01,9.83991e-01,9.99009e-01
8.244018279e-01,9.30633e-01,9.99999e-01,9.46217e-01,9.84305e-01,9.99211e-01
8.285238370e-01,9.38300e-01,9.99999e-01,9.53553e-01,9.84612e-01,9.99380e-01
8.326664562e-01,9.38424e-01,9.99999e-01,9.53041e-01,9.84914e-01,9.99743e-01
8.368297885e-01,9.51854e-01,9.99999e-01,9.66199e-01,9.85210e-01,9.99941e-01
8.410139374e-01,9.65539e-01,9.99999e-01,9.79778e-01,9.85500e-01,9.99965e-01
8.452190071e-01,9.75940e-01,9.99999e-01,9.90033e-01,9.85784e-01,9.99979e-01
8.494451021e-01,9.80338e-01,9.99999e-01,9.94210e-01,9.86063e-01,9.99983e-01
8.536923276e-01,9.82945e-01,9.99999e-01,9.96571e-01,9.86336e-01,9.99989e-01
8.579607893e-01,9.84519e-01,9.99999e-01,9.97888e-01,9.86604e-01,9.99997e-01
8.622505932e-01,9.85542e-01,9.99999e-01,9.98657e-01,9.86867e-01,9.99999e-01
8.665618462e-01,9.86306e-01,9.99999e-01,9.99169e-01,9.87125e-01,9.99999e-01
8.708946554e-01,9.86439e-01,9.99999e-01,9.99050e-01,9.87377e-01,9.99998e-01
8.752491287e-01,9.86369e-01,9.99999e-01,9.98729e-01,9.87625e-01,9.99998e-01
8.796253743e-01,9.86127e-01,9.99999e-01,9.98241e-01,9.87868e-01,9.99995e-01
8.840235012e-01,9.86110e-01,9.99999e-01,9.97990e-01,9.88106e-01,9.99987e-01
8.884436187e-01,9.81102e-01,9.99999e-01,9.92711e-01,9.88340e-01,9.99964e-01
8.928858368e-01,9.14969e-01,9.99999e-01,9.25734e-01,9.88569e-01,9.99798e-01
8.973502660e-01,8.61636e-01,9.99999e-01,8.72298e-01,9.88793e-01,9.98970e-01
9.018370173e-01,9.20834e-01,9.99999e-01,9.32570e-01,9.89013e-01,9.98382e-01
9.063462024e-01,9.29065e-01,9.99999e-01,9.40516e-01,9.89229e-01,9.98578e-01
9.108779334e-01,8.97810e-01,9.99999e-01,9.08731e-01,9.89441e-01,9.98523e-01
9.154323231e-01,8.86511e-01,9.99999e-01,8.96877e-01,9.89648e-01,9.98779e-01
9.200094847e-01,9.08379e-01,9.99999e-01,9.18319e-01,9.89852e-01,9.99316e-01
9.246095321e-01,8.67287e-01,9.99999e-01,8.76691e-01,9.90051e-01,9.99212e-01
9.292325798e-01,4.14850e-01,9.99999e-01,4.20224e-01,9.90247e-01,9.96933e-01
9.338787427e-01,3.20206e-01,9.99999e-01,3.27428e-01,9.90438e-01,9.87385e-01
9.385481364e-01,6.20715e-01,9.99999e-01,6.36120e-01,9.90626e-01,9.85014e-01
9.432408771e-01,5.26718e-01,9.99999e-01,5.38572e-01,9.90811e-01,9.87058e-01
9.479570815e-01,4.20058e-01,9.99999e-01,4.28394e-01,9.90991e-01,9.89454e-01
9.526968669e-01,5.16203e-01,9.99999e-01,5.24181e-01,9.91168e-01,9.93554e-01
9.574603512e-01,5.39750e-01,9.99999e-01,5.46254e-01,9.91342e-01,9.96720e-01
9.622476530e-01,6.02848e-01,9.99999e-01,6.09391e-01,9.91512e-01,9.97731e-01
9.670588912e-01,7.43660e-01,9.99999e-01,7.51064e-01,9.91679e-01,9.98447e-01
9.718941857e-01,8.27317e-01,9.99999e-01,8.35074e-01,9.91843e-01,9.98856e-01
9.767536566e-01,8.53358e-01,9.99999e-01,8.60988e-01,9.92003e-01,9.99126e-01
9.816374249e-01,8.87567e-01,9.99999e-01,8.94850e-01,9.92161e-01,9.99697e-01
9.865456120e-01,9.25669e-01,9.99999e-01,9.32895e-01,9.92315e-01,9.99936e-01
9.914783401e-01,9.50728e-01,9.99999e-01,9.57960e-01,9.92466e-01,9.99982e-01
9.964357318e-01,9.69660e-01,9.99999e-01,9.76884e-01,9.92614e-01,9.99989e-01
1.001417910e+00,9.78927e-01,9.99999e-01,9.86081e-01,9.92760e-01,9.99983e-01
1.006425000e+00,9.84983e-01,9.99999e-01,9.92045e-01,9.92902e-01,9.99977e-01
1.011457125e+00,9.88111e-01,9.99999e-01,9.95054e-01,9.93042e-01,9.99978e-01
1.016514411e+00,9.89829e-01,9.99999e-01,9.96640e-01,9.93179e-01,9.99984e-01
1.021596983e+00,9.90640e-01,9.99999e-01,9.97322e-01,9.93313e-01,9.99984e-01
1.026704968e+00,9.91361e-01,9.99999e-01,9.97911e-01,9.93445e-01,9.99989e-01
1.031838492e+00,9.92063e-01,9.99999e-01,9.98481e-01,9.93574e-01,9.99996e-01
1.036997685e+00,9.92804e-01,9.99999e-01,9.99098e-01,9.93700e-01,9.99999e-01
1.042182673e+00,9.92757e-01,9.99999e-01,9.98925e-01,9.93824e-01,9.99999e-01
1.047393587e+00,9.92530e-01,9.99999e-01,9.98574e-01,9.93946e-01,9.99999e-01
1.052630555e+00,9.92122e-01,9.99999e-01,9.98044e-01,9.94065e-01,9.99998e-01
1.057893707e+00,9.90939e-01,9.99999e-01,9.96738e-01,9.94182e-01,9.99998e-01
1.063183176e+00,9.88962e-01,9.99999e-01,9.94636e-01,9.94297e-01,9.99996e-01
1.068499092e+00,9.85485e-01,9.99999e-01,9.91031e-01,9.94409e-01,9.99993e-01
1.073841587e+00,9.84080e-01,9.99999e-01,9.89516e-01,9.94519e-01,9.99986e-01
1.079210795e+00,9.81239e-01,9.99999e-01,9.86574e-01,9.94627e-01,9.99963e-01
1.084606849e+00,9.74508e-01,9.99999e-01,9.79752e-01,9.94733e-01,9.99913e-01
1.090029883e+00,9.65890e-01,9.99999e-01,9.71076e-01,9.94837e-01,9.99820e-01
1.095480033e+00,9.18157e-01,9.99999e-01,9.23127e-01,9.94938e-01,9.99675e-01
1.100957433e+00,8.11984e-01,9.99999e-01,8.16520e-01,9.95038e-01,9.99402e-01
1.106462220e+00,5.97607e-01,9.99999e-01,6.01136e-01,9.95136e-01,9.98987e-01
1.111994531e+00,3.43854e-01,9.99999e-01,3.46431e-01,9.95232e-01,9.97314e-01
1.117554504e+00,1.80941e-01,9.99999e-01,1.83564e-01,9.95326e-01,9.90340e-01
1.123142276e+00,2.90038e-01,9.99999e-01,2.98157e-01,9.95418e-01,9.77245e-01
1.128757988e+00,4.36297e-01,9.99999e-01,4.50092e-01,9.95508e-01,9.73724e-01
1.134401778e+00,2.16840e-01,9.99999e-01,2.22786e-01,9.95596e-01,9.77613e-01
1.140073787e+00,6.01917e-01,9.99999e-01,6.15561e-01,9.95683e-01,9.82072e-01
1.145774156e+00,3.63914e-01,9.99999e-01,3.71561e-01,9.95768e-01,9.83577e-01
1.151503026e+00,3.30187e-01,9.99999e-01,3.34635e-01,9.95852e-01,9.90817e-01
1.157260541e+00,3.88009e-01,9.99999e-01,3.90669e-01,9.95933e-01,9.97245e-01
1.163046844e+00,4.95162e-01,9.99999e-01,4.97532e-01,9.96014e-01,9.99218e-01
1.168862078e+00,6.09967e-01,9.99999e-01,6.12606e-01,9.96092e-01,9.99596e-01
1.174706389e+00,7.35659e-01,9.99999e-01,7.38881e-01,9.96169e-01,9.99465e-01
1.180579921e+00,8.27631e-01,9.99999e-01,8.31421e-01,9.96245e-01,9.99192e-01
1.186482820e+00,8.96709e-01,9.99999e-01,9.00768e-01,9.96319e-01,9.99171e-01
1.192415234e+00,9.36833e-01,9.99999e-01,9.40809e-01,9.96391e-01,9.99379e-01
1.198377311e+00,9.45981e-01,9.99999e-01,9.49895e-01,9.96462e-01,9.99413e-01
1.204369197e+00,9.48748e-01,9.99999e-01,9.52554e-01,9.96532e-01,9.99469e-01
1.210391043e+00,9.51005e-01,9.99999e-01,9.54556e-01,9.96601e-01,9.99677e-01
1.216442998e+00,9.57806e-01,9.99999e-01,9.61198e-01,9.96668e-01,9.99802e-01
1.222525213e+00,9.66370e-01,9.99999e-01,9.69655e-01,9.96733e-01,9.99876e-01
1.228637839e+00,9.75643e-01,9.99999e-01,9.78833e-01,9.96798e-01,9.99942e-01
1.234781029e+00,9.81133e-01,9.99999e-01,9.84238e-01,9.96861e-01,9.99983e-01
1.240954934e+00,9.86957e-01,9.99999e-01,9.90007e-01,9.96923e-01,9.99994e-01
1.247159708e+00,9.89214e-01,9.99999e-01,9.92209e-01,9.96983e-01,9.99996e-01
1.253395507e+00,9.90143e-01,9.99999e-01,9.93083e-01,9.97043e-01,9.99995e-01
1.259662485e+00,9.90546e-01,9.99999e-01,9.93431e-01,9.97101e-01,9.99993e-01
1.265960797e+00,9.86696e-01,9.99999e-01,9.89517e-01,9.97158e-01,9.99989e-01
1.272290601e+00,9.80834e-01,9.99999e-01,9.83591e-01,9.97214e-01,9.99981e-01
1.278652054e+00,9.64968e-01,9.99999e-01,9.67640e-01,9.97269e-01,9.99967e-01
1.285045314e+00,9.46997e-01,9.99999e-01,9.49595e-01,9.97323e-01,9.99940e-01
1.291470541e+00,8.98944e-01,9.99999e-01,9.01402e-01,9.97376e-01,9.99895e-01
1.297927893e+00,8.71030e-01,9.99999e-01,8.73446e-01,9.97428e-01,9.99804e-01
1.304417533e+00,8.37867e-01,9.99999e-01,8.40331e-01,9.97478e-01,9.99587e-01
1.310939621e+00,8.16754e-01,9.99999e-01,8.19471e-01,9.97528e-01,9.99152e-01
1.317494319e+00,8.02565e-01,9.99999e-01,8.05776e-01,9.97577e-01,9.98433e-01
1.324081790e+00,7.21511e-01,9.99999e-01,7.25081e-01,9.97625e-01,9.97444e-01
1.330702199e+00,3.16651e-01,9.99999e-01,3.18793e-01,9.97671e-01,9.95597e-01
1.337355710e+00,4.53076e-02,9.99999e-01,4.57987e-02,9.97717e-01,9.91538e-01
1.344042489e+00,1.64321e-03,9.99999e-01,1.68958e-03,9.97762e-01,9.74732e-01
1.350762701e+00,2.44004e-07,9.99999e-01,2.66934e-07,9.97807e-01,9.16108e-01
1.357516515e+00,2.09018e-10,9.99999e-01,2.70891e-10,9.97850e-01,7.73254e-01
1.364304097e+00,6.55587e-07,9.99999e-01,1.03103e-06,9.97892e-01,6.37201e-01
1.371125618e+00,7.58288e-05,9.99999e-01,1.16214e-04,9.97934e-01,6.53840e-01
1.377981246e+00,2.49217e-04,9.99999e-01,3.59446e-04,9.97975e-01,6.94742e-01
1.384871152e+00,2.84134e-06,9.99999e-01,3.99740e-06,9.98014e-01,7.12209e-01
1.391795508e+00,8.94612e-07,9.99999e-01,1.23873e-06,9.98054e-01,7.23608e-01
1.398754485e+00,1.27890e-05,9.99999e-01,1.67387e-05,9.98092e-01,7.65498e-01
1.405748258e+00,1.39437e-05,9.99999e-01,1.63319e-05,9.98130e-01,8.55370e-01
1.412776999e+00,1.43857e-05,9.99999e-01,1.54777e-05,9.98167e-01,9.31158e-01
1.419840884e+00,3.07084e-05,9.99999e-01,3.17410e-05,9.98203e-01,9.69209e-01
1.426940089e+00,3.51029e-04,9.99999e-01,3.60103e-04,9.98238e-01,9.76520e-01
1.434074789e+00,2.05221e-03,9.99999e-01,2.11422e-03,9.98273e-01,9.72351e-01
1.441245163e+00,6.98725e-03,9.99999e-01,7.21491e-03,9.98307e-01,9.70087e-01
1.448451389e+00,3.10418e-02,9.99999e-01,3.19312e-02,9.98340e-01,9.73759e-01
1.455693646e+00,9.40822e-02,9.99999e-01,9.62055e-02,9.98373e-01,9.79521e-01
1.462972114e+00,1.25927e-01,9.99999e-01,1.28642e-01,9.98405e-01,9.80460e-01
1.470286975e+00,9.05970e-02,9.99999e-01,9.25160e-02,9.98437e-01,9.80789e-01
