#,Wave/freq,Total,N2,H2O,Rayleigh,CIA
4.000000000e-01,5.11765e-01,9.99999e-01,9.99923e-01,5.11803e-01,9.99999e-01
4.020000000e-01,5.18603e-01,9.99999e-01,9.99952e-01,5.18627e-01,9.99999e-01
4.040100000e-01,5.25386e-01,9.99999e-01,9.99979e-01,5.25397e-01,9.99999e-01
4.060300500e-01,5.32116e-01,9.99999e-01,9.99994e-01,5.32119e-01,9.99999e-01
4.080602003e-01,5.38790e-01,9.99999e-01,9.99998e-01,5.38791e-01,9.99999e-01
4.101005013e-01,5.45413e-01,9.99999e-01,9.99999e-01,5.45413e-01,9.99999e-01
4.121510038e-01,5.51982e-01,9.99999e-01,9.99996e-01,5.51983e-01,9.99999e-01
4.142117588e-01,5.58489e-01,9.99999e-01,9.99978e-01,5.58500e-01,9.99999e-01
4.162828176e-01,5.64911e-01,9.99999e-01,9.99905e-01,5.64963e-01,9.99999e-01
4.183642317e-01,5.71340e-01,9.99999e-01,9.99943e-01,5.71371e-01,9.99999e-01
4.204560528e-01,5.77704e-01,9.99999e-01,9.99965e-01,5.77723e-01,9.99999e-01
4.225583331e-01,5.84011e-01,9.99999e-01,9.99986e-01,5.84018e-01,9.99999e-01
4.246711247e-01,5.90250e-01,9.99999e-01,9.99989e-01,5.90256e-01,9.99999e-01
4.267944804e-01,5.96426e-01,9.99999e-01,9.99984e-01,5.96434e-01,9.99999e-01
4.289284528e-01,6.02547e-01,9.99999e-01,9.99987e-01,6.02554e-01,9.99999e-01
4.310730950e-01,6.08610e-01,9.99999e-01,9.99994e-01,6.08613e-01,9.99999e-01
4.332284605e-01,6.14612e-01,9.99999e-01,9.99998e-01,6.14612e-01,9.99999e-01
4.353946028e-01,6.20550e-01,9.99999e-01,9.99998e-01,6.20550e-01,9.99999e-01
4.375715758e-01,6.26421e-01,9.99999e-01,9.99990e-01,6.26427e-01,9.99999e-01
4.397594337e-01,6.32189e-01,9.99999e-01,9.99917e-01,6.32241e-01,9.99999e-01
4.419582309e-01,6.37728e-01,9.99999e-01,9.99584e-01,6.37992e-01,9.99999e-01
4.441680220e-01,6.43471e-01,9.99999e-01,9.99672e-01,6.43681e-01,9.99999e-01
4.463888621e-01,6.49087e-01,9.99999e-01,9.99660e-01,6.49307e-01,9.99999e-01
4.486208064e-01,6.54731e-01,9.99999e-01,9.99788e-01,6.54869e-01,9.99999e-01
4.508639105e-01,6.60303e-01,9.99999e-01,9.99900e-01,6.60368e-01,9.99999e-01
4.531182300e-01,6.65777e-01,9.99999e-01,9.99960e-01,6.65803e-01,9.99999e-01
4.553838212e-01,6.71156e-01,9.99999e-01,9.99973e-01,6.71174e-01,9.99999e-01
4.576607403e-01,6.76473e-01,9.99999e-01,9.99987e-01,6.76481e-01,9.99999e-01
4.599490440e-01,6.81718e-01,9.99999e-01,9.99990e-01,6.81724e-01,9.99999e-01
4.622487892e-01,6.86901e-01,9.99999e-01,9.99998e-01,6.86902e-01,9.99999e-01
4.645600332e-01,6.92013e-01,9.99999e-01,9.99993e-01,6.92017e-01,9.99999e-01
4.668828333e-01,6.96998e-01,9.99999e-01,9.99900e-01,6.97067e-01,9.99999e-01
4.692172475e-01,7.01905e-01,9.99999e-01,9.99786e-01,7.02054e-01,9.99999e-01
4.715633337e-01,7.06878e-01,9.99999e-01,9.99860e-01,7.06977e-01,9.99999e-01
4.739211504e-01,7.11741e-01,9.99999e-01,9.99866e-01,7.11836e-01,9.99999e-01
4.762907561e-01,7.16581e-01,9.99999e-01,9.99930e-01,7.16631e-01,9.99999e-01
4.786722099e-01,7.21343e-01,9.99999e-01,9.99971e-01,7.21363e-01,9.99999e-01
4.810655710e-01,7.26026e-01,9.99999e-01,9.99991e-01,7.26032e-01,9.99999e-01
4.834708988e-01,7.30579e-01,9.99999e-01,9.99918e-01,7.30638e-01,9.99999e-01
4.858882533e-01,7.35070e-01,9.99999e-01,9.99848e-01,7.35181e-01,9.99999e-01
4.883176946e-01,7.39569e-01,9.99999e-01,9.99873e-01,7.39662e-01,9.99999e-01
4.907592831e-01,7.43996e-01,9.99999e-01,9.99885e-01,7.44081e-01,9.99999e-01
4.932130795e-01,7.48378e-01,9.99999e-01,9.99918e-01,7.48438e-01,9.99999e-01
4.956791449e-01,7.52702e-01,9.99999e-01,9.99956e-01,7.52734e-01,9.99999e-01
4.981575406e-01,7.56808e-01,9.99999e-01,9.99786e-01,7.56969e-01,9.99999e-01
5.006483283e-01,7.60722e-01,9.99999e-01,9.99448e-01,7.61144e-01,9.99995e-01
5.031515699e-01,7.63091e-01,9.99999e-01,9.97196e-01,7.65259e-01,9.99970e-01
5.056673278e-01,7.68147e-01,9.99999e-01,9.98517e-01,7.69313e-01,9.99965e-01
5.081956644e-01,7.71846e-01,9.99999e-01,9.98129e-01,7.73309e-01,9.99977e-01
5.107366428e-01,7.76260e-01,9.99999e-01,9.98736e-01,7.77246e-01,9.99995e-01
5.132903260e-01,7.80559e-01,9.99999e-01,9.99276e-01,7.81124e-01,9.99999e-01
5.158567776e-01,7.84705e-01,9.99999e-01,9.99694e-01,7.84945e-01,9.99999e-01
5.184360615e-01,7.88612e-01,9.99999e-01,9.99877e-01,7.88708e-01,9.99999e-01
5.210282418e-01,7.92378e-01,9.99999e-01,9.99953e-01,7.92414e-01,9.99999e-01
5.236333830e-01,7.95918e-01,9.99999e-01,9.99816e-01,7.96065e-01,9.99998e-01
5.262515499e-01,7.99566e-01,9.99999e-01,9.99884e-01,7.99659e-01,9.99997e-01
5.288828077e-01,8.03113e-01,9.99999e-01,9.99894e-01,8.03198e-01,9.99998e-01
5.315272217e-01,8.06608e-01,9.99999e-01,9.99907e-01,8.06683e-01,9.99999e-01
5.341848578e-01,8.10064e-01,9.99999e-01,9.99939e-01,8.10113e-01,9.99999e-01
5.368557821e-01,8.13316e-01,9.99999e-01,9.99787e-01,8.13490e-01,9.99999e-01
5.395400610e-01,8.16183e-01,9.99999e-01,9.99234e-01,8.16813e-01,9.99993e-01
5.422377613e-01,8.19254e-01,9.99999e-01,9.99004e-01,8.20084e-01,9.99981e-01
5.449489501e-01,8.22529e-01,9.99999e-01,9.99076e-01,8.23304e-01,9.99980e-01
5.476736949e-01,8.25786e-01,9.99999e-01,9.99179e-01,8.26472e-01,9.99990e-01
5.504120634e-01,8.29093e-01,9.99999e-01,9.99404e-01,8.29589e-01,9.99996e-01
5.531641237e-01,8.32406e-01,9.99999e-01,9.99700e-01,8.32656e-01,9.99999e-01
5.559299443e-01,8.35552e-01,9.99999e-01,9.99854e-01,8.35673e-01,9.99999e-01
5.587095940e-01,8.38566e-01,9.99999e-01,9.99909e-01,8.38642e-01,9.99999e-01
5.615031420e-01,8.41477e-01,9.99999e-01,9.99898e-01,8.41562e-01,9.99999e-01
5.643106577e-01,8.44337e-01,9.99999e-01,9.99886e-01,8.44434e-01,9.99998e-01
5.671322110e-01,8.46082e-01,9.99999e-01,9.98622e-01,8.47259e-01,9.99987e-01
5.699678720e-01,8.48746e-01,9.99999e-01,9.98517e-01,8.50037e-01,9.99961e-01
5.728177114e-01,8.51433e-01,9.99999e-01,9.98463e-01,8.52770e-01,9.99968e-01
5.756818000e-01,8.54233e-01,9.99999e-01,9.98588e-01,8.55457e-01,9.99980e-01
5.785602090e-01,8.57038e-01,9.99999e-01,9.98768e-01,8.58099e-01,9.99993e-01
5.814530100e-01,8.59631e-01,9.99999e-01,9.98764e-01,8.60697e-01,9.99996e-01
5.843602750e-01,8.61978e-01,9.99999e-01,9.98532e-01,8.63251e-01,9.99991e-01
5.872820764e-01,8.54800e-01,9.99999e-01,9.87426e-01,8.65762e-01,9.99910e-01
5.902184868e-01,8.54742e-01,9.99999e-01,9.84702e-01,8.68230e-01,9.99756e-01
5.931695792e-01,8.61049e-01,9.99999e-01,9.89195e-01,8.70657e-01,9.99765e-01
5.961354271e-01,8.62575e-01,9.99999e-01,9.88142e-01,8.73042e-01,9.99865e-01
5.991161043e-01,8.67764e-01,9.99999e-01,9.91332e-01,8.75387e-01,9.99957e-01
6.021116848e-01,8.73360e-01,9.99999e-01,9.95070e-01,8.77691e-01,9.99994e-01
6.051222432e-01,8.77758e-01,9.99999e-01,9.97502e-01,8.79956e-01,9.99999e-01
6.081478544e-01,8.81231e-01,9.99999e-01,9.98922e-01,8.82181e-01,9.99999e-01
6.111885937e-01,8.83965e-01,9.99999e-01,9.99543e-01,8.84368e-01,9.99999e-01
6.142445367e-01,8.86337e-01,9.99999e-01,9.99795e-01,8.86517e-01,9.99999e-01
6.173157594e-01,8.88529e-01,9.99999e-01,9.99887e-01,8.88629e-01,9.99999e-01
6.204023382e-01,8.90620e-01,9.99999e-01,9.99904e-01,8.90704e-01,9.99999e-01
6.235043498e-01,8.92371e-01,9.99999e-01,9.99584e-01,8.92743e-01,9.99998e-01
6.266218716e-01,8.92754e-01,9.99999e-01,9.97788e-01,8.94746e-01,9.99984e-01
6.297549810e-01,8.95958e-01,9.99999e-01,9.99188e-01,8.96713e-01,9.99968e-01
6.329037559e-01,8.97182e-01,9.99999e-01,9.98394e-01,8.98646e-01,9.99974e-01
6.360682746e-01,8.99304e-01,9.99999e-01,9.98635e-01,9.00545e-01,9.99984e-01
6.392486160e-01,9.00808e-01,9.99999e-01,9.98230e-01,9.02411e-01,9.99992e-01
6.424448591e-01,9.02101e-01,9.99999e-01,9.97641e-01,9.04243e-01,9.99989e-01
6.456570834e-01,8.96105e-01,9.99999e-01,9.89091e-01,9.06042e-01,9.99938e-01
6.488853688e-01,9.00366e-01,9.99999e-01,9.91968e-01,9.07810e-01,9.99829e-01
6.521297956e-01,9.01974e-01,9.99999e-01,9.91816e-01,9.09546e-01,9.99856e-01
6.553904446e-01,9.03771e-01,9.99999e-01,9.91897e-01,9.11251e-01,9.99892e-01
6.586673968e-01,9.06517e-01,9.99999e-01,9.93015e-01,9.12925e-01,9.99964e-01
6.619607338e-01,9.10864e-01,9.99999e-01,9.95955e-01,9.14569e-01,9.99992e-01
6.652705375e-01,9.14032e-01,9.99999e-01,9.97654e-01,9.16184e-01,9.99995e-01
6.685968902e-01,9.16769e-01,9.99999e-01,9.98910e-01,9.17770e-01,9.99998e-01
6.719398746e-01,9.18862e-01,9.99999e-01,9.99494e-01,9.19326e-01,9.99999e-01
6.752995740e-01,9.20604e-01,9.99999e-01,9.99726e-01,9.20855e-01,9.99999e-01
6.786760719e-01,9.21993e-01,9.99999e-01,9.99606e-01,9.22356e-01,9.99998e-01
6.820694522e-01,9.23204e-01,9.99999e-01,9.99325e-01,9.23830e-01,9.99996e-01
6.854797995e-01,9.24465e-01,9.99999e-01,9.99130e-01,9.25277e-01,9.99992e-01
6.889071985e-01,9.24743e-01,9.99999e-01,9.97909e-01,9.26697e-01,9.99980e-01
6.923517345e-01,8.96647e-01,9.99999e-01,9.66277e-01,9.28092e-01,9.99834e-01
6.958134932e-01,9.12565e-01,9.99999e-01,9.82187e-01,9.29461e-01,9.99627e-01
6.992925606e-01,9.14847e-01,9.99999e-01,9.83177e-01,9.30805e-01,9.99672e-01
7.027890234e-01,9.12504e-01,9.99999e-01,9.79197e-01,9.32124e-01,9.99748e-01
7.063029686e-01,9.16950e-01,9.99999e-01,9.82478e-01,9.33419e-01,9.99874e-01
7.098344834e-01,9.18900e-01,9.99999e-01,9.83178e-01,9.34690e-01,9.99925e-01
7.133836558e-01,9.15028e-01,9.99999e-01,9.77802e-01,9.35938e-01,9.99852e-01
7.169505741e-01,7.82966e-01,9.99999e-01,8.36430e-01,9.37163e-01,9.98843e-01
7.205353270e-01,8.57161e-01,9.99999e-01,9.15328e-01,9.38365e-01,9.97961e-01
7.241380036e-01,8.38582e-01,9.99999e-01,8.94114e-01,9.39545e-01,9.98239e-01
7.277586936e-01,8.49108e-01,9.99999e-01,9.03931e-01,9.40703e-01,9.98560e-01
7.313974871e-01,8.44766e-01,9.99999e-01,8.97537e-01,9.41839e-01,9.99325e-01
7.350544745e-01,8.88617e-01,9.99999e-01,9.42595e-01,9.42954e-01,9.99765e-01
7.387297469e-01,9.03682e-01,9.99999e-01,9.57342e-01,9.44049e-01,9.99892e-01
7.424233956e-01,9.25127e-01,9.99999e-01,9.78862e-01,9.45123e-01,9.99978e-01
7.461355126e-01,9.34010e-01,9.99999e-01,9.87143e-01,9.46178e-01,9.99995e-01
7.498661902e-01,9.41516e-01,9.99999e-01,9.93987e-01,9.47212e-01,9.99998e-01
7.536155211e-01,9.45430e-01,9.99999e-01,9.97050e-01,9.48227e-01,9.99998e-01
7.573835987e-01,9.47781e-01,9.99999e-01,9.98480e-01,9.49223e-01,9.99999e-01
7.611705167e-01,9.49304e-01,9.99999e-01,9.99055e-01,9.50201e-01,9.99999e-01
7.649763693e-01,9.50598e-01,9.99999e-01,9.99408e-01,9.51160e-01,9.99999e-01
7.688012511e-01,9.51709e-01,9.99999e-01,9.99587e-01,9.52101e-01,9.99999e-01
7.726452574e-01,9.52702e-01,9.99999e-01,9.99661e-01,9.53025e-01,9.99999e-01
7.765084837e-01,9.53473e-01,9.99999e-01,9.99520e-01,9.53931e-01,9.99998e-01
7.803910261e-01,9.52842e-01,9.99999e-01,9.97929e-01,9.54820e-01,9.99997e-01
7.842929812e-01,9.48791e-01,9.99999e-01,9.92790e-01,9.55692e-01,9.99986e-01
7.882144461e-01,9.42253e-01,9.99999e-01,9.85144e-01,9.56548e-01,9.99908e-01
7.921555184e-01,9.49383e-01,9.99999e-01,9.91813e-01,9.57388e-01,9.99822e-01
7.961162960e-01,9.44296e-01,9.99999e-01,9.85643e-01,9.58212e-01,9.99830e-01
8.000968774e-01,9.42911e-01,9.99999e-01,9.83379e-01,9.59020e-01,9.99819e-01
8.040973618e-01,9.43735e-01,9.99999e-01,9.83388e-01,9.59813e-01,9.99856e-01
8.081178486e-01,9.25047e-01,9.99999e-01,9.63126e-01,9.60591e-01,9.99865e-01
8.121584379e-01,8.22328e-01,9.99999e-01,8.55836e-01,9.61354e-01,9.99471e-01
8.162192301e-01,7.97894e-01,9.99999e-01,8.30970e-01,9.62103e-01,9.98016e-01
8.203003262e-01,8.78060e-01,9.99999e-01,9.14072e-01,9.62837e-01,9.97678e-01
8.244018279e-01,8.48276e-01,9.99999e-01,8.81987e-01,9.63558e-01,9.98151e-01
8.285238370e-01,8.61895e-01,9.99999e-01,8.95136e-01,9.64265e-01,9.98547e-01
8.326664562e-01,8.62217e-01,9.99999e-01,8.94064e-01,9.64958e-01,9.99399e-01
8.368297885e-01,8.90847e-01,9.99999e-01,9.22673e-01,9.65638e-01,9.99862e-01
8.410139374e-01,9.21049e-01,9.99999e-01,9.53241e-01,9.66305e-01,9.99919e-01
8.452190071e-01,9.44444e-01,9.99999e-01,9.76761e-01,9.66960e-01,9.99951e-01
8.494451021e-01,9.54472e-01,9.99999e-01,9.86467e-01,9.67602e-01,9.99961e-01
8.536923276e-01,9.60430e-01,9.99999e-01,9.91965e-01,9.68231e-01,9.99976e-01
8.579607893e-01,9.64050e-01,9.99999e-01,9.95051e-01,9.68849e-01,9.99993e-01
8.622505932e-01,9.66401e-01,9.99999e-01,9.96850e-01,9.69455e-01,9.99998e-01
8.665618462e-01,9.68161e-01,9.99999e-01,9.98054e-01,9.70049e-01,9.99998e-01
8.708946554e-01,9.68471e-01,9.99999e-01,9.97774e-01,9.70632e-01,9.99998e-01
8.752491287e-01,9.68308e-01,9.99999e-01,9.97022e-01,9.71203e-01,9.99996e-01
8.796253743e-01,9.67756e-01,9.99999e-01,9.95883e-01,9.71764e-01,9.99990e-01
8.840235012e-01,9.67715e-01,9.99999e-01,9.95297e-01,9.72314e-01,9.99970e-01
8.884436187e-01,9.56372e-01,9.99999e-01,9.83138e-01,9.72853e-01,9.99917e-01
8.928858368e-01,8.14189e-01,9.99999e-01,8.36846e-01,9.73382e-01,9.99528e-01
8.973502660e-01,7.09222e-01,9.99999e-01,7.29987e-01,9.73901e-01,9.97587e-01
9.018370173e-01,8.26293e-01,9.99999e-01,8.51218e-01,9.74410e-01,9.96210e-01
9.063462024e-01,8.43502e-01,9.99999e-01,8.68101e-01,9.74909e-01,9.96670e-01
9.108779334e-01,7.79423e-01,9.99999e-01,8.01855e-01,9.75398e-01,9.96540e-01
9.154323231e-01,7.56272e-01,9.99999e-01,7.77187e-01,9.75878e-01,9.97139e-01
9.200094847e-01,8.00577e-01,9.99999e-01,8.21285e-01,9.76349e-01,9.98397e-01
9.246095321e-01,7.26367e-01,9.99999e-01,7.44985e-01,9.76811e-01,9.98154e-01
9.292325798e-01,1.55839e-01,9.99999e-01,1.60617e-01,9.77264e-01,9.92821e-01
9.338787427e-01,8.71094e-02,9.99999e-01,9.17887e-02,9.77708e-01,9.70657e-01
9.385481364e-01,3.56436e-01,9.99999e-01,3.77539e-01,9.78143e-01,9.65199e-01
9.432408771e-01,2.60752e-01,9.99999e-01,2.74730e-01,9.78570e-01,9.69903e-01
9.479570815e-01,1.57923e-01,9.99999e-01,1.65374e-01,9.78989e-01,9.75436e-01
9.526968669e-01,2.37908e-01,9.99999e-01,2.46624e-01,9.79400e-01,9.84944e-01
9.574603512e-01,2.55109e-01,9.99999e-01,2.62381e-01,9.79802e-01,9.92323e-01
9.622476530e-01,3.20729e-01,9.99999e-01,3.28956e-01,9.80197e-01,9.94685e-01
9.670588912e-01,5.11134e-01,9.99999e-01,5.23157e-01,9.80585e-01,9.96362e-01
9.718941857e-01,6.44487e-01,9.99999e-01,6.58757e-01,9.80964e-01,9.97320e-01
9.767536566e-01,6.92109e-01,9.99999e-01,7.06718e-01,9.81337e-01,9.97951e-01
9.816374249e-01,7.57126e-01,9.99999e-01,7.71784e-01,9.81702e-01,9.99290e-01
9.865456120e-01,8.34671e-01,9.99999e-01,8.50043e-01,9.82060e-01,9.99851e-01
9.914783401e-01,8.88296e-01,9.99999e-01,9.04236e-01,9.82411e-01,9.99958e-01
9.964357318e-01,9.30291e-01,9.99999e-01,9.46637e-01,9.82756e-01,9.99975e-01
1.001417910e+00,9.51250e-01,9.99999e-01,9.67644e-01,9.83094e-01,9.99962e-01
1.006425000e+00,9.65119e-01,9.99999e-01,9.81435e-01,9.83425e-01,9.99947e-01
1.011457125e+00,9.72318e-01,9.99999e-01,9.88426e-01,9.83749e-01,9.99951e-01
1.016514411e+00,9.76294e-01,9.99999e-01,9.92133e-01,9.84068e-01,9.99965e-01
1.021596983e+00,9.78174e-01,9.99999e-01,9.93728e-01,9.84380e-01,9.99965e-01
1.026704968e+00,9.79846e-01,9.99999e-01,9.95106e-01,9.84686e-01,9.99976e-01
1.031838492e+00,9.81473e-01,9.99999e-01,9.96438e-01,9.84986e-01,9.99993e-01
1.036997685e+00,9.83197e-01,9.99999e-01,9.97885e-01,9.85281e-01,9.99998e-01
1.042182673e+00,9.83089e-01,9.99999e-01,9.97482e-01,9.85569e-01,9.99999e-01
1.047393587e+00,9.82560e-01,9.99999e-01,9.96660e-01,9.85852e-01,9.99998e-01
1.052630555e+00,9.81615e-01,9.99999e-01,9.95422e-01,9.86130e-01,9.99998e-01
1.057893707e+00,9.78878e-01,9.99999e-01,9.92374e-01,9.86402e-01,9.99996e-01
1.063183176e+00,9.74308e-01,9.99999e-01,9.87478e-01,9.86669e-01,9.99992e-01
1.068499092e+00,9.66301e-01,9.99999e-01,9.79111e-01,9.86930e-01,9.99985e-01
1.073841587e+00,9.63114e-01,9.99999e-01,9.75644e-01,9.87187e-01,9.99968e-01
1.079210795e+00,9.56578e-01,9.99999e-01,9.68828e-01,9.87438e-01,9.99915e-01
1.084606849e+00,9.41340e-01,9.99999e-01,9.53270e-01,9.87685e-01,9.99796e-01
1.090029883e+00,9.22193e-01,9.99999e-01,9.33855e-01,9.87927e-01,9.99579e-01
1.095480033e+00,8.19490e-01,9.99999e-01,8.29936e-01,9.88164e-01,9.99238e-01
1.100957433e+00,6.18314e-01,9.99999e-01,6.26449e-01,9.88396e-01,9.98600e-01
1.106462220e+00,3.15994e-01,9.99999e-01,3.20390e-01,9.88624e-01,9.97626e-01
1.111994531e+00,9.53710e-02,9.99999e-01,9.70568e-02,9.88847e-01,9.93712e-01
1.117554504e+00,2.55452e-02,9.99999e-01,2.64224e-02,9.89066e-01,9.77486e-01
1.123142276e+00,7.83901e-02,9.99999e-01,8.36357e-02,9.89281e-01,9.47434e-01
1.128757988e+00,1.63195e-01,9.99999e-01,1.75559e-01,9.89492e-01,9.39444e-01
1.134401778e+00,7.24213e-02,9.99999e-01,7.71669e-02,9.89698e-01,9.48270e-01
1.140073787e+00,3.19101e-01,9.99999e-01,3.36331e-01,9.89901e-01,9.58449e-01
1.145774156e+00,1.15415e-01,9.99999e-01,1.21186e-01,9.90099e-01,9.61898e-01
1.151503026e+00,9.40159e-02,9.99999e-01,9.70142e-02,9.90294e-01,9.78591e-01
1.157260541e+00,1.20176e-01,9.99999e-01,1.22118e-01,9.90485e-01,9.93550e-01
1.163046844e+00,2.05347e-01,9.99999e-01,2.07661e-01,9.90672e-01,9.98167e-01
1.168862078e+00,3.20187e-01,9.99999e-01,3.23447e-01,9.90855e-01,9.99055e-01
1.174706389e+00,4.91922e-01,9.99999e-01,4.96993e-01,9.91035e-01,9.98748e-01
1.180579921e+00,6.44331e-01,9.99999e-01,6.51276e-01,9.91211e-01,9.98107e-01
1.186482820e+00,7.75027e-01,9.99999e-01,7.83283e-01,9.91384e-01,9.98057e-01
1.192415234e+00,8.58218e-01,9.99999e-01,8.66789e-01,9.91553e-01,9.98545e-01
1.198377311e+00,8.78078e-01,9.99999e-01,8.86627e-01,9.91719e-01,9.98625e-01
1.204369197e+00,8.84360e-01,9.99999e-01,8.92707e-01,9.91882e-01,9.98756e-01
1.210391043e+00,8.89105e-01,9.99999e-01,8.96915e-01,9.92042e-01,9.99243e-01
1.216442998e+00,9.04005e-01,9.99999e-01,9.11534e-01,9.92199e-01,9.99536e-01
1.222525213e+00,9.22940e-01,9.99999e-01,9.30320e-01,9.92352e-01,9.99711e-01
1.228637839e+00,9.43820e-01,9.99999e-01,9.51076e-01,9.92503e-01,9.99865e-01
1.234781029e+00,9.56310e-01,9.99999e-01,9.63427e-01,9.92650e-01,9.99961e-01
1.240954934e+00,9.69677e-01,9.99999e-01,9.76724e-01,9.92795e-01,9.99988e-01
1.247159708e+00,9.74876e-01,9.99999e-01,9.81817e-01,9.92937e-01,9.99992e-01
1.253395507e+00,9.77031e-01,9.99999e-01,9.83851e-01,9.93076e-01,9.99990e-01
1.259662485e+00,9.77972e-01,9.99999e-01,9.84669e-01,9.93212e-01,9.99985e-01
1.265960797e+00,9.69081e-01,9.99999e-01,9.75595e-01,9.93345e-01,9.99975e-01
1.272290601e+00,9.55688e-01,9.99999e-01,9.62003e-01,9.93476e-01,9.99957e-01
1.278652054e+00,9.20037e-01,9.99999e-01,9.26026e-01,9.93605e-01,9.99924e-01
1.285045314e+00,8.81000e-01,9.99999e-01,8.86681e-01,9.93731e-01,9.99860e-01
1.291470541e+00,7.80600e-01,9.99999e-01,7.85618e-01,9.93854e-01,9.99754e-01
1.297927893e+00,7.26458e-01,9.99999e-01,7.31195e-01,9.93975e-01,9.99542e-01
1.304417533e+00,6.64793e-01,9.99999e-01,6.69389e-01,9.94094e-01,9.99032e-01
1.310939621e+00,6.27395e-01,9.99999e-01,6.32303e-01,9.94210e-01,9.98014e-01
1.317494319e+00,6.02550e-01,9.99999e-01,6.08221e-01,9.94324e-01,9.96330e-01
1.324081790e+00,4.76582e-01,9.99999e-01,4.82133e-01,9.94436e-01,9.94015e-01
1.330702199e+00,1.20556e-01,9.99999e-01,1.22478e-01,9.94546e-01,9.89702e-01
1.337355710e+00,1.63008e-03,9.99999e-01,1.67184e-03,9.94653e-01,9.80263e-01
1.344042489e+00,2.38194e-05,9.99999e-01,2.54265e-05,9.94758e-01,9.41727e-01
1.350762701e+00,8.86143e-15,9.99999e-01,1.09399e-14,9.94862e-01,8.14192e-01
1.357516515e+00,6.00328e-22,9.99999e-01,1.10301e-21,9.94963e-01,5.47020e-01
1.364304097e+00,6.48601e-14,9.99999e-01,1.87627e-13,9.95062e-01,3.47401e-01
1.371125618e+00,6.26772e-09,9.99999e-01,1.70656e-08,9.95159e-01,3.69058e-01
1.377981246e+00,2.33926e-08,9.99999e-01,5.52365e-08,9.95255e-01,4.25517e-01
1.384871152e+00,1.00534e-11,9.99999e-01,2.25867e-11,9.95348e-01,4.47182e-01
1.391795508e+00,6.46514e-14,9.99999e-01,1.39128e-13,9.95440e-01,4.66819e-01
1.398754485e+00,5.98967e-11,9.99999e-01,1.12620e-10,9.95530e-01,5.34234e-01
1.405748258e+00,9.00277e-11,9.99999e-01,1.30452e-10,9.95618e-01,6.93160e-01
1.412776999e+00,1.53771e-10,9.99999e-01,1.82564e-10,9.95704e-01,8.45919e-01
1.419840884e+00,3.01307e-10,9.99998e-01,3.25616e-10,9.95789e-01,9.29257e-01
1.426940089e+00,2.86089e-07,9.99998e-01,3.03742e-07,9.95872e-01,9.45784e-01
1.434074789e+00,2.96752e-06,9.99998e-01,3.18215e-06,9.95953e-01,9.36340e-01
1.441245163e+00,2.89740e-05,9.99999e-01,3.12375e-05,9.96033e-01,9.31233e-01
1.448451389e+00,7.95856e-04,9.99998e-01,8.50390e-04,9.96111e-01,9.39524e-01
1.455693646e+00,7.58980e-03,9.99999e-01,7.99777e-03,9.96188e-01,9.52619e-01
1.462972114e+00,1.13992e-02,9.99999e-01,1.19841e-02,9.96263e-01,9.54761e-01
1.470286975e+00,5.84665e-03,9.99999e-01,6.14134e-03,9.96336e-01,9.55514e-01
