#,Wave/freq,Total,N2,H2O,Rayleigh,CIA
4.000000000e-01,5.79786e-01,9.99999e-01,9.99938e-01,5.79822e-01,9.99999e-01
4.020000000e-01,5.86082e-01,9.99999e-01,9.99961e-01,5.86104e-01,9.99999e-01
4.040100000e-01,5.92313e-01,9.99999e-01,9.99983e-01,5.92322e-01,9.99999e-01
4.060300500e-01,5.98479e-01,9.99999e-01,9.99995e-01,5.98481e-01,9.99999e-01
4.080602003e-01,6.04580e-01,9.99999e-01,9.99998e-01,6.04581e-01,9.99999e-01
4.101005013e-01,6.10620e-01,9.99999e-01,9.99999e-01,6.10620e-01,9.99999e-01
4.121510038e-01,6.16597e-01,9.99999e-01,9.99997e-01,6.16599e-01,9.99999e-01
4.142117588e-01,6.22505e-01,9.99999e-01,9.99982e-01,6.22516e-01,9.99999e-01
4.162828176e-01,6.28324e-01,9.99999e-01,9.99923e-01,6.28372e-01,9.99999e-01
4.183642317e-01,6.34137e-01,9.99999e-01,9.99954e-01,6.34165e-01,9.99999e-01
4.204560528e-01,6.39878e-01,9.99999e-01,9.99971e-01,6.39896e-01,9.99999e-01
4.225583331e-01,6.45557e-01,9.99999e-01,9.99989e-01,6.45564e-01,9.99999e-01
4.246711247e-01,6.51163e-01,9.99999e-01,9.99991e-01,6.51168e-01,9.99999e-01
4.267944804e-01,6.56702e-01,9.99999e-01,9.99987e-01,6.56710e-01,9.99999e-01
4.289284528e-01,6.62181e-01,9.99999e-01,9.99990e-01,6.62187e-01,9.99999e-01
4.310730950e-01,6.67598e-01,9.99999e-01,9.99995e-01,6.67601e-01,9.99999e-01
4.332284605e-01,6.72950e-01,9.99999e-01,9.99998e-01,6.72950e-01,9.99999e-01
4.353946028e-01,6.78235e-01,9.99999e-01,9.99999e-01,6.78236e-01,9.99999e-01
4.375715758e-01,6.83452e-01,9.99999e-01,9.99991e-01,6.83457e-01,9.99999e-01
4.397594337e-01,6.88568e-01,9.99999e-01,9.99931e-01,6.88615e-01,9.99999e-01
4.419582309e-01,6.93469e-01,9.99999e-01,9.99654e-01,6.93708e-01,9.99999e-01
4.441680220e-01,6.98553e-01,9.99999e-01,9.99736e-01,6.98737e-01,9.99999e-01
4.463888621e-01,7.03508e-01,9.99999e-01,9.99723e-01,7.03702e-01,9.99999e-01
4.486208064e-01,7.08483e-01,9.99999e-01,9.99829e-01,7.08604e-01,9.99999e-01
4.508639105e-01,7.13384e-01,9.99999e-01,9.99919e-01,7.13441e-01,9.99999e-01
4.531182300e-01,7.18193e-01,9.99999e-01,9.99968e-01,7.18215e-01,9.99999e-01
4.553838212e-01,7.22911e-01,9.99999e-01,9.99978e-01,7.22926e-01,9.99999e-01
4.576607403e-01,7.27567e-01,9.99999e-01,9.99989e-01,7.27574e-01,9.99999e-01
4.599490440e-01,7.32154e-01,9.99999e-01,9.99992e-01,7.32159e-01,9.99999e-01
4.622487892e-01,7.36681e-01,9.99999e-01,9.99998e-01,7.36682e-01,9.99999e-01
4.645600332e-01,7.41138e-01,9.99999e-01,9.99994e-01,7.41142e-01,9.99999e-01
4.668828333e-01,7.45480e-01,9.99999e-01,9.99917e-01,7.45540e-01,9.99999e-01
4.692172475e-01,7.49748e-01,9.99999e-01,9.99826e-01,7.49877e-01,9.99999e-01
4.715633337e-01,7.54068e-01,9.99999e-01,9.99886e-01,7.54153e-01,9.99999e-01
4.739211504e-01,7.58286e-01,9.99999e-01,9.99891e-01,7.58368e-01,9.99999e-01
4.762907561e-01,7.62480e-01,9.99999e-01,9.99943e-01,7.62522e-01,9.99999e-01
4.786722099e-01,7.66599e-01,9.99999e-01,9.99976e-01,7.66617e-01,9.99999e-01
4.810655710e-01,7.70647e-01,9.99999e-01,9.99992e-01,7.70652e-01,9.99999e-01
4.834708988e-01,7.74575e-01,9.99999e-01,9.99931e-01,7.74628e-01,9.99999e-01
4.858882533e-01,7.78450e-01,9.99999e-01,9.99877e-01,7.78545e-01,9.99999e-01
4.883176946e-01,7.82324e-01,9.99999e-01,9.99896e-01,7.82404e-01,9.99999e-01
4.907592831e-01,7.86133e-01,9.99999e-01,9.99907e-01,7.86206e-01,9.99999e-01
4.932130795e-01,7.89898e-01,9.99999e-01,9.99933e-01,7.89950e-01,9.99999e-01
4.956791449e-01,7.93610e-01,9.99999e-01,9.99964e-01,7.93638e-01,9.99999e-01
4.981575406e-01,7.97130e-01,9.99999e-01,9.99824e-01,7.97269e-01,9.99999e-01
5.006483283e-01,8.00478e-01,9.99999e-01,9.99543e-01,8.00845e-01,9.99996e-01
5.031515699e-01,8.02505e-01,9.99999e-01,9.97710e-01,8.04366e-01,9.99975e-01
5.056673278e-01,8.06837e-01,9.99999e-01,9.98795e-01,8.07832e-01,9.99972e-01
5.081956644e-01,8.09999e-01,9.99999e-01,9.98481e-01,8.11244e-01,9.99982e-01
5.107366428e-01,8.13767e-01,9.99999e-01,9.98975e-01,8.14603e-01,9.99996e-01
5.132903260e-01,8.17431e-01,9.99999e-01,9.99415e-01,8.17909e-01,9.99999e-01
5.158567776e-01,8.20961e-01,9.99999e-01,9.99753e-01,8.21163e-01,9.99999e-01
5.184360615e-01,8.24284e-01,9.99999e-01,9.99900e-01,8.24365e-01,9.99999e-01
5.210282418e-01,8.27486e-01,9.99999e-01,9.99962e-01,8.27516e-01,9.99999e-01
5.236333830e-01,8.30492e-01,9.99999e-01,9.99850e-01,8.30617e-01,9.99998e-01
5.262515499e-01,8.33588e-01,9.99999e-01,9.99906e-01,8.33667e-01,9.99998e-01
5.288828077e-01,8.36596e-01,9.99999e-01,9.99913e-01,8.36668e-01,9.99998e-01
5.315272217e-01,8.39558e-01,9.99999e-01,9.99924e-01,8.39621e-01,9.99999e-01
5.341848578e-01,8.42483e-01,9.99999e-01,9.99950e-01,8.42525e-01,9.99999e-01
5.368557821e-01,8.45233e-01,9.99999e-01,9.99825e-01,8.45381e-01,9.99999e-01
5.395400610e-01,8.47648e-01,9.99999e-01,9.99366e-01,8.48190e-01,9.99993e-01
5.422377613e-01,8.50255e-01,9.99999e-01,9.99193e-01,8.50953e-01,9.99984e-01
5.449489501e-01,8.53013e-01,9.99999e-01,9.99243e-01,8.53671e-01,9.99984e-01
5.476736949e-01,8.55768e-01,9.99999e-01,9.99336e-01,8.56343e-01,9.99992e-01
5.504120634e-01,8.58554e-01,9.99999e-01,9.99517e-01,8.58970e-01,9.99997e-01
5.531641237e-01,8.61344e-01,9.99999e-01,9.99757e-01,8.61553e-01,9.99999e-01
5.559299443e-01,8.63992e-01,9.99999e-01,9.99882e-01,8.64093e-01,9.99999e-01
5.587095940e-01,8.66526e-01,9.99999e-01,9.99925e-01,8.66589e-01,9.99999e-01
5.615031420e-01,8.68973e-01,9.99999e-01,9.99917e-01,8.69044e-01,9.99999e-01
5.643106577e-01,8.71374e-01,9.99999e-01,9.99905e-01,8.71457e-01,9.99998e-01
5.671322110e-01,8.72814e-01,9.99999e-01,9.98848e-01,8.73828e-01,9.99989e-01
5.699678720e-01,8.75089e-01,9.99999e-01,9.98808e-01,8.76159e-01,9.99968e-01
5.728177114e-01,8.77326e-01,9.99999e-01,9.98745e-01,8.78450e-01,9.99973e-01
5.756818000e-01,8.79677e-01,9.99999e-01,9.98851e-01,8.80702e-01,9.99984e-01
5.785602090e-01,8.82029e-01,9.99999e-01,9.99000e-01,8.82914e-01,9.99995e-01
5.814530100e-01,8.84197e-01,9.99999e-01,9.98993e-01,8.85089e-01,9.99997e-01
5.843602750e-01,8.86148e-01,9.99999e-01,9.98791e-01,8.87225e-01,9.99992e-01
5.872820764e-01,8.80054e-01,9.99999e-01,9.89647e-01,8.89325e-01,9.99926e-01
5.902184868e-01,8.80132e-01,9.99999e-01,9.87567e-01,8.91388e-01,9.99801e-01
5.931695792e-01,8.85368e-01,9.99999e-01,9.91181e-01,8.93414e-01,9.99809e-01
5.961354271e-01,8.86672e-01,9.99999e-01,9.90354e-01,8.95405e-01,9.99890e-01
5.991161043e-01,8.91018e-01,9.99999e-01,9.92963e-01,8.97362e-01,9.99965e-01
6.021116848e-01,8.95689e-01,9.99999e-01,9.96006e-01,8.99283e-01,9.99995e-01
6.051222432e-01,8.99350e-01,9.99999e-01,9.97978e-01,9.01171e-01,9.99999e-01
6.081478544e-01,9.02237e-01,9.99999e-01,9.99126e-01,9.03025e-01,9.99999e-01
6.111885937e-01,9.04513e-01,9.99999e-01,9.99631e-01,9.04846e-01,9.99999e-01
6.142445367e-01,9.06486e-01,9.99999e-01,9.99834e-01,9.06635e-01,9.99999e-01
6.173157594e-01,9.08310e-01,9.99999e-01,9.99908e-01,9.08392e-01,9.99999e-01
6.204023382e-01,9.10047e-01,9.99999e-01,9.99922e-01,9.10118e-01,9.99999e-01
6.235043498e-01,9.11496e-01,9.99999e-01,9.99653e-01,9.11812e-01,9.99998e-01
6.266218716e-01,9.11820e-01,9.99999e-01,9.98198e-01,9.13477e-01,9.99986e-01
6.297549810e-01,9.14483e-01,9.99999e-01,9.99338e-01,9.15111e-01,9.99974e-01
6.329037559e-01,9.15504e-01,9.99999e-01,9.98697e-01,9.16716e-01,9.99979e-01
6.360682746e-01,9.17258e-01,9.99999e-01,9.98885e-01,9.18292e-01,9.99987e-01
6.392486160e-01,9.18509e-01,9.99999e-01,9.98559e-01,9.19839e-01,9.99994e-01
6.424448591e-01,9.19559e-01,9.99999e-01,9.98056e-01,9.21359e-01,9.99990e-01
6.456570834e-01,9.14503e-01,9.99999e-01,9.91008e-01,9.22850e-01,9.99945e-01
6.488853688e-01,9.18165e-01,9.99999e-01,9.93483e-01,9.24315e-01,9.99860e-01
6.521297956e-01,9.19502e-01,9.99999e-01,9.93360e-01,9.25753e-01,9.99885e-01
6.553904446e-01,9.20926e-01,9.99999e-01,9.93354e-01,9.27165e-01,9.99914e-01
6.586673968e-01,9.23262e-01,9.99999e-01,9.94332e-01,9.28551e-01,9.99971e-01
6.619607338e-01,9.26966e-01,9.99999e-01,9.96838e-01,9.29911e-01,9.99993e-01
6.652705375e-01,9.29477e-01,9.99999e-01,9.98101e-01,9.31247e-01,9.99996e-01
6.685968902e-01,9.31806e-01,9.99999e-01,9.99193e-01,9.32558e-01,9.99998e-01
6.719398746e-01,9.33464e-01,9.99999e-01,9.99591e-01,9.33845e-01,9.99999e-01
6.752995740e-01,9.34907e-01,9.99999e-01,9.99783e-01,9.35109e-01,9.99999e-01
6.786760719e-01,9.36046e-01,9.99999e-01,9.99676e-01,9.36349e-01,9.99999e-01
6.820694522e-01,9.37043e-01,9.99999e-01,9.99444e-01,9.37566e-01,9.99996e-01
6.854797995e-01,9.38088e-01,9.99999e-01,9.99289e-01,9.38760e-01,9.99993e-01
6.889071985e-01,9.38281e-01,9.99999e-01,9.98257e-01,9.39933e-01,9.99984e-01
6.923517345e-01,9.14786e-01,9.99999e-01,9.72185e-01,9.41084e-01,9.99865e-01
6.958134932e-01,9.28509e-01,9.99999e-01,9.85747e-01,9.42213e-01,9.99702e-01
6.992925606e-01,9.30017e-01,9.99999e-01,9.86159e-01,9.43322e-01,9.99731e-01
7.027890234e-01,9.28232e-01,9.99999e-01,9.83070e-01,9.44409e-01,9.99795e-01
7.063029686e-01,9.31891e-01,9.99999e-01,9.85729e-01,9.45477e-01,9.99897e-01
7.098344834e-01,9.33504e-01,9.99999e-01,9.86302e-01,9.46525e-01,9.99939e-01
7.133836558e-01,9.29997e-01,9.99999e-01,9.81589e-01,9.47553e-01,9.99879e-01
7.169505741e-01,8.17948e-01,9.99999e-01,8.63115e-01,9.48561e-01,9.99058e-01
7.205353270e-01,8.83035e-01,9.99999e-01,9.31494e-01,9.49551e-01,9.98340e-01
7.241380036e-01,8.65986e-01,9.99999e-01,9.12369e-01,9.50523e-01,9.98566e-01
7.277586936e-01,8.74976e-01,9.99999e-01,9.20676e-01,9.51476e-01,9.98828e-01
7.313974871e-01,8.72087e-01,9.99999e-01,9.16164e-01,9.52411e-01,9.99450e-01
7.350544745e-01,9.08499e-01,9.99999e-01,9.53156e-01,9.53329e-01,9.99808e-01
7.387297469e-01,9.21033e-01,9.99999e-01,9.65295e-01,9.54229e-01,9.99912e-01
7.424233956e-01,9.38764e-01,9.99999e-01,9.82897e-01,9.55113e-01,9.99984e-01
7.461355126e-01,9.46021e-01,9.99999e-01,9.89585e-01,9.55980e-01,9.99996e-01
7.498661902e-01,9.52191e-01,9.99999e-01,9.95152e-01,9.56830e-01,9.99998e-01
7.536155211e-01,9.55378e-01,9.99999e-01,9.97612e-01,9.57664e-01,9.99998e-01
7.573835987e-01,9.57305e-01,9.99999e-01,9.98770e-01,9.58483e-01,9.99999e-01
7.611705167e-01,9.58553e-01,9.99999e-01,9.99235e-01,9.59286e-01,9.99999e-01
7.649763693e-01,9.59614e-01,9.99999e-01,9.99520e-01,9.60074e-01,9.99999e-01
7.688012511e-01,9.60526e-01,9.99999e-01,9.99665e-01,9.60847e-01,9.99999e-01
7.726452574e-01,9.61341e-01,9.99999e-01,9.99724e-01,9.61605e-01,9.99999e-01
7.765084837e-01,9.61970e-01,9.99999e-01,9.99605e-01,9.62349e-01,9.99999e-01
7.803910261e-01,9.61435e-01,9.99999e-01,9.98294e-01,9.63079e-01,9.99997e-01
7.842929812e-01,9.58057e-01,9.99999e-01,9.94057e-01,9.63795e-01,9.99988e-01
7.882144461e-01,9.52740e-01,9.99999e-01,9.87892e-01,9.64497e-01,9.99916e-01
7.921555184e-01,9.58657e-01,9.99999e-01,9.93379e-01,9.65186e-01,9.99854e-01
7.961162960e-01,9.54328e-01,9.99999e-01,9.88194e-01,9.65862e-01,9.99861e-01
8.000968774e-01,9.53284e-01,9.99999e-01,9.86445e-01,9.66525e-01,9.99852e-01
8.040973618e-01,9.53939e-01,9.99999e-01,9.86424e-01,9.67175e-01,9.99887e-01
8.081178486e-01,9.38210e-01,9.99999e-01,9.69521e-01,9.67813e-01,9.99886e-01
8.121584379e-01,8.51564e-01,9.99999e-01,8.79693e-01,9.68438e-01,9.99570e-01
8.162192301e-01,8.32404e-01,9.99999e-01,8.60375e-01,9.69052e-01,9.98385e-01
8.203003262e-01,8.97849e-01,9.99999e-01,9.27700e-01,9.69654e-01,9.98109e-01
8.244018279e-01,8.75122e-01,9.99999e-01,9.03319e-01,9.70244e-01,9.98495e-01
8.285238370e-01,8.85631e-01,9.99999e-01,9.13326e-01,9.70823e-01,9.98817e-01
8.326664562e-01,8.86332e-01,9.99999e-01,9.12880e-01,9.71391e-01,9.99510e-01
8.368297885e-01,9.10458e-01,9.99999e-01,9.36838e-01,9.71948e-01,9.99887e-01
8.410139374e-01,9.35444e-01,9.99999e-01,9.61963e-01,9.72495e-01,9.99934e-01
8.452190071e-01,9.54680e-01,9.99999e-01,9.81178e-01,9.73031e-01,9.99960e-01
8.494451021e-01,9.62813e-01,9.99999e-01,9.88995e-01,9.73556e-01,9.99968e-01
8.536923276e-01,9.67722e-01,9.99999e-01,9.93499e-01,9.74072e-01,9.99980e-01
8.579607893e-01,9.70657e-01,9.99999e-01,9.95981e-01,9.74577e-01,9.99994e-01
8.622505932e-01,9.72588e-01,9.99999e-01,9.97451e-01,9.75073e-01,9.99998e-01
8.665618462e-01,9.74015e-01,9.99999e-01,9.98417e-01,9.75559e-01,9.99999e-01
8.708946554e-01,9.74263e-01,9.99999e-01,9.98183e-01,9.76036e-01,9.99998e-01
8.752491287e-01,9.74132e-01,9.99999e-01,9.97572e-01,9.76504e-01,9.99996e-01
8.796253743e-01,9.73663e-01,9.99999e-01,9.96629e-01,9.76963e-01,9.99992e-01
8.840235012e-01,9.73632e-01,9.99999e-01,9.96154e-01,9.77413e-01,9.99976e-01
8.884436187e-01,9.63941e-01,9.99999e-01,9.85837e-01,9.77854e-01,9.99933e-01
8.928858368e-01,8.43951e-01,9.99999e-01,8.63013e-01,9.78286e-01,9.99616e-01
8.973502660e-01,7.55261e-01,9.99999e-01,7.73207e-01,9.78711e-01,9.98036e-01
9.018370173e-01,8.56954e-01,9.99999e-01,8.77931e-01,9.79127e-01,9.96914e-01
9.063462024e-01,8.69150e-01,9.99999e-01,8.89720e-01,9.79535e-01,9.97288e-01
9.108779334e-01,8.15257e-01,9.99999e-01,8.34299e-01,9.79935e-01,9.97182e-01
9.154323231e-01,7.95968e-01,9.99999e-01,8.13835e-01,9.80327e-01,9.97670e-01
9.200094847e-01,8.34207e-01,9.99999e-01,8.51723e-01,9.80712e-01,9.98695e-01
9.246095321e-01,7.64472e-01,9.99999e-01,7.80379e-01,9.81089e-01,9.98497e-01
9.292325798e-01,2.06339e-01,9.99999e-01,2.11769e-01,9.81459e-01,9.92766e-01
9.338787427e-01,1.31379e-01,9.99999e-01,1.37369e-01,9.81822e-01,9.74099e-01
9.385481364e-01,4.25331e-01,9.99999e-01,4.45716e-01,9.82178e-01,9.71579e-01
9.432408771e-01,3.20821e-01,9.99999e-01,3.34749e-01,9.82527e-01,9.75433e-01
9.479570815e-01,2.13319e-01,9.99999e-01,2.21476e-01,9.82869e-01,9.79959e-01
9.526968669e-01,3.03712e-01,9.99999e-01,3.12738e-01,9.83205e-01,9.87728e-01
9.574603512e-01,3.23133e-01,9.99999e-01,3.30610e-01,9.83534e-01,9.93747e-01
9.622476530e-01,3.93271e-01,9.99999e-01,4.01461e-01,9.83856e-01,9.95672e-01
9.670588912e-01,5.76578e-01,9.99999e-01,5.87590e-01,9.84173e-01,9.97038e-01
9.718941857e-01,6.98642e-01,9.99999e-01,7.11204e-01,9.84483e-01,9.97818e-01
9.767536566e-01,7.40513e-01,9.99999e-01,7.53208e-01,9.84787e-01,9.98332e-01
9.816374249e-01,7.97683e-01,9.99999e-01,8.10227e-01,9.85085e-01,9.99422e-01
9.865456120e-01,8.63605e-01,9.99999e-01,8.76525e-01,9.85378e-01,9.99879e-01
9.914783401e-01,9.08342e-01,9.99999e-01,9.21583e-01,9.85664e-01,9.99966e-01
9.964357318e-01,9.43046e-01,9.99999e-01,9.56507e-01,9.85945e-01,9.99980e-01
1.001417910e+00,9.60259e-01,9.99999e-01,9.73703e-01,9.86221e-01,9.99969e-01
1.006425000e+00,9.71544e-01,9.99999e-01,9.84889e-01,9.86491e-01,9.99957e-01
1.011457125e+00,9.77462e-01,9.99999e-01,9.90619e-01,9.86756e-01,9.99960e-01
1.016514411e+00,9.80686e-01,9.99999e-01,9.93613e-01,9.87016e-01,9.99971e-01
1.021596983e+00,9.82214e-01,9.99999e-01,9.94904e-01,9.87271e-01,9.99972e-01
1.026704968e+00,9.83576e-01,9.99999e-01,9.96021e-01,9.87521e-01,9.99982e-01
1.031838492e+00,9.84910e-01,9.99999e-01,9.97113e-01,9.87766e-01,9.99994e-01
1.036997685e+00,9.86307e-01,9.99999e-01,9.98280e-01,9.88006e-01,9.99998e-01
1.042182673e+00,9.86209e-01,9.99999e-01,9.97943e-01,9.88242e-01,9.99999e-01
1.047393587e+00,9.85782e-01,9.99999e-01,9.97278e-01,9.88472e-01,9.99998e-01
1.052630555e+00,9.85002e-01,9.99999e-01,9.96261e-01,9.88699e-01,9.99998e-01
1.057893707e+00,9.82746e-01,9.99999e-01,9.93757e-01,9.88921e-01,9.99997e-01
1.063183176e+00,9.79003e-01,9.99999e-01,9.89758e-01,9.89138e-01,9.99994e-01
1.068499092e+00,9.72458e-01,9.99999e-01,9.82935e-01,9.89352e-01,9.99987e-01
1.073841587e+00,9.69781e-01,9.99999e-01,9.80035e-01,9.89561e-01,9.99974e-01
1.079210795e+00,9.64516e-01,9.99999e-01,9.74555e-01,9.89766e-01,9.99930e-01
1.084606849e+00,9.51889e-01,9.99999e-01,9.61694e-01,9.89967e-01,9.99834e-01
1.090029883e+00,9.35583e-01,9.99999e-01,9.45199e-01,9.90164e-01,9.99657e-01
1.095480033e+00,8.49229e-01,9.99999e-01,8.58027e-01,9.90358e-01,9.99380e-01
1.100957433e+00,6.73018e-01,9.99999e-01,6.80215e-01,9.90547e-01,9.98860e-01
1.106462220e+00,3.83215e-01,9.99999e-01,3.87548e-01,9.90733e-01,9.98067e-01
1.111994531e+00,1.41895e-01,9.99999e-01,1.43932e-01,9.90915e-01,9.94879e-01
1.117554504e+00,4.65442e-02,9.99999e-01,4.78409e-02,9.91094e-01,9.81636e-01
1.123142276e+00,1.17899e-01,9.99999e-01,1.24282e-01,9.91269e-01,9.56999e-01
1.128757988e+00,2.21971e-01,9.99999e-01,2.35566e-01,9.91441e-01,9.50424e-01
1.134401778e+00,1.01777e-01,9.99999e-01,1.07173e-01,9.91609e-01,9.57686e-01
1.140073787e+00,3.89445e-01,9.99999e-01,4.06476e-01,9.91774e-01,9.66045e-01
1.145774156e+00,1.64570e-01,9.99999e-01,1.71238e-01,9.91936e-01,9.68874e-01
1.151503026e+00,1.38596e-01,9.99999e-01,1.42183e-01,9.92095e-01,9.82538e-01
1.157260541e+00,1.74198e-01,9.99999e-01,1.76486e-01,9.92250e-01,9.94746e-01
1.163046844e+00,2.72438e-01,9.99999e-01,2.74933e-01,9.92403e-01,9.98507e-01
1.168862078e+00,3.94947e-01,9.99999e-01,3.98216e-01,9.92552e-01,9.99230e-01
1.174706389e+00,5.60786e-01,9.99999e-01,5.65486e-01,9.92699e-01,9.98980e-01
1.180579921e+00,6.99407e-01,9.99999e-01,7.05535e-01,9.92842e-01,9.98459e-01
1.186482820e+00,8.12901e-01,9.99999e-01,8.19940e-01,9.92983e-01,9.98418e-01
1.192415234e+00,8.83090e-01,9.99999e-01,8.90260e-01,9.93121e-01,9.98815e-01
1.198377311e+00,8.99437e-01,9.99999e-01,9.06561e-01,9.93257e-01,9.98875e-01
1.204369197e+00,9.04736e-01,9.99999e-01,9.11648e-01,9.93389e-01,9.99020e-01
1.210391043e+00,9.08735e-01,9.99999e-01,9.15225e-01,9.93520e-01,9.99383e-01
1.216442998e+00,9.21321e-01,9.99999e-01,9.27560e-01,9.93647e-01,9.99622e-01
1.222525213e+00,9.36921e-01,9.99999e-01,9.43013e-01,9.93772e-01,9.99765e-01
1.228637839e+00,9.54074e-01,9.99999e-01,9.60038e-01,9.93895e-01,9.99890e-01
1.234781029e+00,9.64375e-01,9.99999e-01,9.70211e-01,9.94015e-01,9.99968e-01
1.240954934e+00,9.75278e-01,9.99999e-01,9.81042e-01,9.94133e-01,9.99990e-01
1.247159708e+00,9.79545e-01,9.99999e-01,9.85216e-01,9.94248e-01,9.99993e-01
1.253395507e+00,9.81275e-01,9.99999e-01,9.86846e-01,9.94362e-01,9.99992e-01
1.259662485e+00,9.82004e-01,9.99999e-01,9.87473e-01,9.94473e-01,9.99987e-01
1.265960797e+00,9.74775e-01,9.99999e-01,9.80104e-01,9.94582e-01,9.99980e-01
1.272290601e+00,9.63651e-01,9.99999e-01,9.68830e-01,9.94688e-01,9.99965e-01
1.278652054e+00,9.34164e-01,9.99999e-01,9.39110e-01,9.94793e-01,9.99938e-01
1.285045314e+00,8.87798e-01,9.99999e-01,8.92453e-01,9.94895e-01,9.99886e-01
1.291470541e+00,8.16068e-01,9.99999e-01,8.20334e-01,9.94996e-01,9.99800e-01
1.297927893e+00,7.51279e-01,9.99999e-01,7.55263e-01,9.95095e-01,9.99627e-01
1.304417533e+00,7.15899e-01,9.99999e-01,7.19925e-01,9.95191e-01,9.99211e-01
1.310939621e+00,6.56105e-01,9.99999e-01,6.60279e-01,9.95286e-01,9.98383e-01
1.317494319e+00,6.60951e-01,9.99999e-01,6.66009e-01,9.95379e-01,9.97011e-01
1.324081790e+00,5.45995e-01,9.99999e-01,5.51165e-01,9.95470e-01,9.95125e-01
1.330702199e+00,1.52308e-01,9.99999e-01,1.54282e-01,9.95559e-01,9.91610e-01
1.337355710e+00,4.48509e-03,9.99999e-01,4.57838e-03,9.95647e-01,9.83905e-01
1.344042489e+00,9.01871e-05,9.99999e-01,9.51098e-05,9.95732e-01,9.52304e-01
1.350762701e+00,2.13879e-12,9.99999e-01,2.53895e-12,9.95817e-01,8.45929e-01
1.357516515e+00,2.96917e-18,9.99999e-01,4.87166e-18,9.95899e-01,6.11986e-01
1.364304097e+00,1.15459e-11,9.99999e-01,2.74112e-11,9.95980e-01,4.22910e-01
1.371125618e+00,1.21106e-07,9.99999e-01,2.73687e-07,9.96059e-01,4.44249e-01
1.377981246e+00,4.37436e-07,9.99999e-01,8.80332e-07,9.96137e-01,4.98825e-01
1.384871152e+00,5.86456e-10,9.99999e-01,1.12549e-09,9.96213e-01,5.23048e-01
1.391795508e+00,1.25551e-11,9.99999e-01,2.33736e-11,9.96288e-01,5.39149e-01
1.398754485e+00,3.05868e-09,9.99999e-01,5.11371e-09,9.96361e-01,6.00317e-01
1.405748258e+00,3.94229e-09,9.99999e-01,5.33160e-09,9.96432e-01,7.42066e-01
1.412776999e+00,5.70394e-09,9.99999e-01,6.55916e-09,9.96503e-01,8.72665e-01
1.419840884e+00,1.19010e-08,9.99999e-01,1.26768e-08,9.96572e-01,9.42027e-01
1.426940089e+00,2.59912e-06,9.99998e-01,2.72893e-06,9.96639e-01,9.55642e-01
1.434074789e+00,2.38549e-05,9.99999e-01,2.52500e-05,9.96706e-01,9.47868e-01
1.441245163e+00,1.60889e-04,9.99999e-01,1.71048e-04,9.96771e-01,9.43657e-01
1.448451389e+00,2.48741e-03,9.99998e-01,2.62529e-03,9.96834e-01,9.50490e-01
1.455693646e+00,1.66224e-02,9.99999e-01,1.73462e-02,9.96897e-01,9.61260e-01
1.462972114e+00,2.40175e-02,9.99999e-01,2.50159e-02,9.96958e-01,9.63019e-01
1.470286975e+00,1.37626e-02,9.99999e-01,1.43246e-02,9.97018e-01,9.63637e-01
