#,Wave/freq,Total,N2,H2O,Rayleigh,CIA
4.000000000e-01,4.25389e-01,9.99999e-01,9.99903e-01,4.25430e-01,9.99999e-01
4.020000000e-01,4.32655e-01,9.99999e-01,9.99939e-01,4.32680e-01,9.99999e-01
4.040100000e-01,4.39889e-01,9.99999e-01,9.99974e-01,4.39900e-01,9.99999e-01
4.060300500e-01,4.47091e-01,9.99999e-01,9.99993e-01,4.47094e-01,9.99999e-01
4.080602003e-01,4.54259e-01,9.99999e-01,9.99997e-01,4.54259e-01,9.99999e-01
4.101005013e-01,4.61395e-01,9.99999e-01,9.99999e-01,4.61395e-01,9.99999e-01
4.121510038e-01,4.68497e-01,9.99999e-01,9.99995e-01,4.68499e-01,9.99999e-01
4.142117588e-01,4.75555e-01,9.99999e-01,9.99972e-01,4.75568e-01,9.99999e-01
4.162828176e-01,4.82544e-01,9.99999e-01,9.99880e-01,4.82601e-01,9.99999e-01
4.183642317e-01,4.89562e-01,9.99999e-01,9.99928e-01,4.89597e-01,9.99999e-01
4.204560528e-01,4.96531e-01,9.99999e-01,9.99956e-01,4.96552e-01,9.99999e-01
4.225583331e-01,5.03458e-01,9.99999e-01,9.99983e-01,5.03466e-01,9.99999e-01
4.246711247e-01,5.10330e-01,9.99999e-01,9.99986e-01,5.10337e-01,9.99999e-01
4.267944804e-01,5.17153e-01,9.99999e-01,9.99980e-01,5.17163e-01,9.99999e-01
4.289284528e-01,5.23935e-01,9.99999e-01,9.99984e-01,5.23943e-01,9.99999e-01
4.310730950e-01,5.30672e-01,9.99999e-01,9.99993e-01,5.30676e-01,9.99999e-01
4.332284605e-01,5.37358e-01,9.99999e-01,9.99997e-01,5.37359e-01,9.99999e-01
4.353946028e-01,5.43991e-01,9.99999e-01,9.99998e-01,5.43992e-01,9.99999e-01
4.375715758e-01,5.50567e-01,9.99999e-01,9.99987e-01,5.50573e-01,9.99999e-01
4.397594337e-01,5.57043e-01,9.99999e-01,9.99894e-01,5.57102e-01,9.99999e-01
4.419582309e-01,5.63276e-01,9.99999e-01,9.99465e-01,5.63577e-01,9.99999e-01
4.441680220e-01,5.69760e-01,9.99999e-01,9.99584e-01,5.69997e-01,9.99999e-01
4.463888621e-01,5.76111e-01,9.99999e-01,9.99567e-01,5.76361e-01,9.99999e-01
4.486208064e-01,5.82512e-01,9.99999e-01,9.99731e-01,5.82668e-01,9.99999e-01
4.508639105e-01,5.88844e-01,9.99999e-01,9.99873e-01,5.88918e-01,9.99999e-01
4.531182300e-01,5.95080e-01,9.99999e-01,9.99949e-01,5.95109e-01,9.99999e-01
4.553838212e-01,6.01221e-01,9.99999e-01,9.99965e-01,6.01242e-01,9.99999e-01
4.576607403e-01,6.07305e-01,9.99999e-01,9.99984e-01,6.07314e-01,9.99999e-01
4.599490440e-01,6.13319e-01,9.99999e-01,9.99988e-01,6.13326e-01,9.99999e-01
4.622487892e-01,6.19276e-01,9.99999e-01,9.99997e-01,6.19277e-01,9.99999e-01
4.645600332e-01,6.25162e-01,9.99999e-01,9.99991e-01,6.25167e-01,9.99999e-01
4.668828333e-01,6.30914e-01,9.99999e-01,9.99872e-01,6.30994e-01,9.99999e-01
4.692172475e-01,6.36587e-01,9.99999e-01,9.99728e-01,6.36759e-01,9.99999e-01
4.715633337e-01,6.42348e-01,9.99999e-01,9.99822e-01,6.42462e-01,9.99999e-01
4.739211504e-01,6.47991e-01,9.99999e-01,9.99830e-01,6.48101e-01,9.99999e-01
4.762907561e-01,6.53620e-01,9.99999e-01,9.99911e-01,6.53677e-01,9.99999e-01
4.786722099e-01,6.59166e-01,9.99999e-01,9.99963e-01,6.59190e-01,9.99999e-01
4.810655710e-01,6.64631e-01,9.99999e-01,9.99988e-01,6.64638e-01,9.99999e-01
4.834708988e-01,6.69953e-01,9.99999e-01,9.99895e-01,6.70023e-01,9.99999e-01
4.858882533e-01,6.75214e-01,9.99999e-01,9.99807e-01,6.75344e-01,9.99999e-01
4.883176946e-01,6.80491e-01,9.99999e-01,9.99838e-01,6.80600e-01,9.99999e-01
4.907592831e-01,6.85693e-01,9.99999e-01,9.99854e-01,6.85793e-01,9.99999e-01
4.932130795e-01,6.90850e-01,9.99999e-01,9.99896e-01,6.90921e-01,9.99999e-01
4.956791449e-01,6.95948e-01,9.99999e-01,9.99945e-01,6.95986e-01,9.99999e-01
4.981575406e-01,7.00794e-01,9.99999e-01,9.99726e-01,7.00986e-01,9.99999e-01
5.006483283e-01,7.05419e-01,9.99999e-01,9.99291e-01,7.05922e-01,9.99994e-01
5.031515699e-01,7.08224e-01,9.99999e-01,9.96420e-01,7.10795e-01,9.99961e-01
5.056673278e-01,7.14221e-01,9.99999e-01,9.98110e-01,7.15604e-01,9.99956e-01
5.081956644e-01,7.18613e-01,9.99999e-01,9.97616e-01,7.20349e-01,9.99971e-01
5.107366428e-01,7.23861e-01,9.99999e-01,9.98390e-01,7.25032e-01,9.99994e-01
5.132903260e-01,7.28980e-01,9.99999e-01,9.99080e-01,7.29651e-01,9.99998e-01
5.158567776e-01,7.33923e-01,9.99999e-01,9.99611e-01,7.34208e-01,9.99999e-01
5.184360615e-01,7.38588e-01,9.99999e-01,9.99844e-01,7.38703e-01,9.99999e-01
5.210282418e-01,7.43092e-01,9.99999e-01,9.99941e-01,7.43135e-01,9.99999e-01
5.236333830e-01,7.47330e-01,9.99999e-01,9.99766e-01,7.47505e-01,9.99997e-01
5.262515499e-01,7.51703e-01,9.99999e-01,9.99853e-01,7.51815e-01,9.99997e-01
5.288828077e-01,7.55960e-01,9.99999e-01,9.99865e-01,7.56063e-01,9.99998e-01
5.315272217e-01,7.60161e-01,9.99999e-01,9.99881e-01,7.60250e-01,9.99999e-01
5.341848578e-01,7.64319e-01,9.99999e-01,9.99922e-01,7.64378e-01,9.99999e-01
5.368557821e-01,7.68236e-01,9.99999e-01,9.99727e-01,7.68445e-01,9.99998e-01
5.395400610e-01,7.71688e-01,9.99999e-01,9.99015e-01,7.72454e-01,9.99991e-01
5.422377613e-01,7.75402e-01,9.99999e-01,9.98732e-01,7.76403e-01,9.99976e-01
5.449489501e-01,7.79354e-01,9.99999e-01,9.98819e-01,7.80294e-01,9.99975e-01
5.476736949e-01,7.83300e-01,9.99999e-01,9.98956e-01,7.84127e-01,9.99987e-01
5.504120634e-01,7.87303e-01,9.99999e-01,9.99242e-01,7.87903e-01,9.99996e-01
5.531641237e-01,7.91319e-01,9.99999e-01,9.99618e-01,7.91621e-01,9.99999e-01
5.559299443e-01,7.95137e-01,9.99999e-01,9.99815e-01,7.95283e-01,9.99999e-01
5.587095940e-01,7.98798e-01,9.99999e-01,9.99884e-01,7.98890e-01,9.99999e-01
5.615031420e-01,8.02338e-01,9.99999e-01,9.99871e-01,8.02441e-01,9.99999e-01
5.643106577e-01,8.05818e-01,9.99999e-01,9.99853e-01,8.05937e-01,9.99998e-01
5.671322110e-01,8.07927e-01,9.99999e-01,9.98221e-01,8.09379e-01,9.99983e-01
5.699678720e-01,8.11201e-01,9.99999e-01,9.98120e-01,8.12767e-01,9.99951e-01
5.728177114e-01,8.14468e-01,9.99999e-01,9.98037e-01,8.16102e-01,9.99959e-01
5.756818000e-01,8.17890e-01,9.99999e-01,9.98199e-01,8.19384e-01,9.99974e-01
5.785602090e-01,8.21319e-01,9.99999e-01,9.98431e-01,8.22615e-01,9.99992e-01
5.814530100e-01,8.24490e-01,9.99999e-01,9.98423e-01,8.25794e-01,9.99996e-01
5.843602750e-01,8.27354e-01,9.99999e-01,9.98118e-01,8.28922e-01,9.99989e-01
5.872820764e-01,8.18532e-01,9.99999e-01,9.83924e-01,8.32000e-01,9.99885e-01
5.902184868e-01,8.18535e-01,9.99999e-01,9.80552e-01,8.35028e-01,9.99689e-01
5.931695792e-01,8.26225e-01,9.99999e-01,9.86234e-01,8.38007e-01,9.99701e-01
5.961354271e-01,8.28108e-01,9.99999e-01,9.84912e-01,8.40937e-01,9.99828e-01
5.991161043e-01,8.34470e-01,9.99999e-01,9.88972e-01,8.43820e-01,9.99946e-01
6.021116848e-01,8.41342e-01,9.99999e-01,9.93729e-01,8.46655e-01,9.99993e-01
6.051222432e-01,8.46745e-01,9.99999e-01,9.96822e-01,8.49443e-01,9.99999e-01
6.081478544e-01,8.51017e-01,9.99999e-01,9.98628e-01,8.52185e-01,9.99999e-01
6.111885937e-01,8.54386e-01,9.99999e-01,9.99419e-01,8.54882e-01,9.99999e-01
6.142445367e-01,8.57312e-01,9.99999e-01,9.99740e-01,8.57534e-01,9.99999e-01
6.173157594e-01,8.60018e-01,9.99999e-01,9.99856e-01,8.60141e-01,9.99999e-01
6.204023382e-01,8.62600e-01,9.99999e-01,9.99878e-01,8.62705e-01,9.99999e-01
6.235043498e-01,8.64761e-01,9.99999e-01,9.99464e-01,8.65225e-01,9.99998e-01
6.266218716e-01,8.65238e-01,9.99999e-01,9.97178e-01,8.67702e-01,9.99979e-01
6.297549810e-01,8.69203e-01,9.99999e-01,9.98964e-01,8.70138e-01,9.99959e-01
6.329037559e-01,8.70721e-01,9.99999e-01,9.97955e-01,8.72532e-01,9.99967e-01
6.360682746e-01,8.73344e-01,9.99999e-01,9.98256e-01,8.74885e-01,9.99980e-01
6.392486160e-01,8.75211e-01,9.99999e-01,9.97742e-01,8.77198e-01,9.99991e-01
6.424448591e-01,8.76799e-01,9.99999e-01,9.96974e-01,8.79471e-01,9.99986e-01
6.456570834e-01,8.69326e-01,9.99999e-01,9.86035e-01,8.81705e-01,9.99921e-01
6.488853688e-01,8.74684e-01,9.99999e-01,9.89787e-01,8.83901e-01,9.99782e-01
6.521297956e-01,8.76683e-01,9.99999e-01,9.89596e-01,8.86058e-01,9.99819e-01
6.553904446e-01,8.78839e-01,9.99999e-01,9.89617e-01,8.88178e-01,9.99865e-01
6.586673968e-01,8.82311e-01,9.99999e-01,9.91114e-01,8.90260e-01,9.99954e-01
6.619607338e-01,8.87871e-01,9.99999e-01,9.95037e-01,8.92307e-01,9.99989e-01
6.652705375e-01,8.91647e-01,9.99999e-01,9.97018e-01,8.94317e-01,9.99994e-01
6.685968902e-01,8.95050e-01,9.99999e-01,9.98614e-01,8.96293e-01,9.99998e-01
6.719398746e-01,8.97657e-01,9.99999e-01,9.99357e-01,8.98233e-01,9.99999e-01
6.752995740e-01,8.99826e-01,9.99999e-01,9.99651e-01,9.00139e-01,9.99999e-01
6.786760719e-01,9.01557e-01,9.99999e-01,9.99496e-01,9.02012e-01,9.99998e-01
6.820694522e-01,9.03069e-01,9.99999e-01,9.99138e-01,9.03851e-01,9.99995e-01
6.854797995e-01,9.04643e-01,9.99999e-01,9.98888e-01,9.05658e-01,9.99989e-01
6.889071985e-01,9.04965e-01,9.99999e-01,9.97304e-01,9.07432e-01,9.99975e-01
6.923517345e-01,8.69935e-01,9.99999e-01,9.57040e-01,9.09175e-01,9.99789e-01
6.958134932e-01,8.90030e-01,9.99999e-01,9.77557e-01,9.10886e-01,9.99533e-01
6.992925606e-01,8.92585e-01,9.99999e-01,9.78512e-01,9.12567e-01,9.99579e-01
7.027890234e-01,8.89776e-01,9.99999e-01,9.73575e-01,9.14218e-01,9.99679e-01
7.063029686e-01,8.95286e-01,9.99999e-01,9.77713e-01,9.15839e-01,9.99840e-01
7.098344834e-01,8.97714e-01,9.99999e-01,9.78600e-01,9.17431e-01,9.99905e-01
7.133836558e-01,8.92714e-01,9.99999e-01,9.71584e-01,9.18994e-01,9.99812e-01
7.169505741e-01,7.32403e-01,9.99999e-01,7.96807e-01,9.20528e-01,9.98525e-01
7.205353270e-01,8.22626e-01,9.99999e-01,8.94510e-01,9.22035e-01,9.97399e-01
7.241380036e-01,7.99069e-01,9.99999e-01,8.67195e-01,9.23515e-01,9.97754e-01
7.277586936e-01,8.11947e-01,9.99999e-01,8.79425e-01,9.24967e-01,9.98163e-01
7.313974871e-01,8.06962e-01,9.99999e-01,8.71828e-01,9.26393e-01,9.99139e-01
7.350544745e-01,8.60346e-01,9.99999e-01,9.27580e-01,9.27794e-01,9.99700e-01
7.387297469e-01,8.78924e-01,9.99999e-01,9.46054e-01,9.29168e-01,9.99862e-01
7.424233956e-01,9.05569e-01,9.99999e-01,9.73213e-01,9.30517e-01,9.99973e-01
7.461355126e-01,9.16622e-01,9.99999e-01,9.83671e-01,9.31842e-01,9.99994e-01
7.498661902e-01,9.26020e-01,9.99999e-01,9.92368e-01,9.33142e-01,9.99997e-01
7.536155211e-01,9.30911e-01,9.99999e-01,9.96247e-01,9.34418e-01,9.99998e-01
7.573835987e-01,9.33863e-01,9.99999e-01,9.98066e-01,9.35671e-01,9.99999e-01
7.611705167e-01,9.35775e-01,9.99999e-01,9.98798e-01,9.36901e-01,9.99999e-01
7.649763693e-01,9.37401e-01,9.99999e-01,9.99246e-01,9.38108e-01,9.99999e-01
7.688012511e-01,9.38800e-01,9.99999e-01,9.99474e-01,9.39292e-01,9.99999e-01
7.726452574e-01,9.40049e-01,9.99999e-01,9.99567e-01,9.40455e-01,9.99999e-01
7.765084837e-01,9.41017e-01,9.99999e-01,9.99385e-01,9.41596e-01,9.99998e-01
7.803910261e-01,9.40211e-01,9.99999e-01,9.97344e-01,9.42716e-01,9.99996e-01
7.842929812e-01,9.35081e-01,9.99999e-01,9.90762e-01,9.43815e-01,9.99982e-01
7.882144461e-01,9.26905e-01,9.99999e-01,9.81089e-01,9.44894e-01,9.99868e-01
7.921555184e-01,9.35905e-01,9.99999e-01,9.89603e-01,9.45952e-01,9.99772e-01
7.961162960e-01,9.29420e-01,9.99999e-01,9.81656e-01,9.46991e-01,9.99783e-01
8.000968774e-01,9.27736e-01,9.99999e-01,9.78838e-01,9.48010e-01,9.99769e-01
8.040973618e-01,9.28756e-01,9.99999e-01,9.78835e-01,9.49011e-01,9.99816e-01
8.081178486e-01,9.05200e-01,9.99999e-01,9.53012e-01,9.49992e-01,9.99828e-01
8.121584379e-01,7.79189e-01,9.99999e-01,8.19926e-01,9.50955e-01,9.99326e-01
8.162192301e-01,7.51116e-01,9.99999e-01,7.91070e-01,9.51900e-01,9.97469e-01
8.203003262e-01,8.47513e-01,9.99999e-01,8.92113e-01,9.52828e-01,9.97038e-01
8.244018279e-01,8.13566e-01,9.99999e-01,8.55044e-01,9.53737e-01,9.97641e-01
8.285238370e-01,8.27449e-01,9.99999e-01,8.68382e-01,9.54630e-01,9.98147e-01
8.326664562e-01,8.28238e-01,9.99999e-01,8.67470e-01,9.55506e-01,9.99233e-01
8.368297885e-01,8.63217e-01,9.99999e-01,9.02758e-01,9.56365e-01,9.99824e-01
8.410139374e-01,9.00569e-01,9.99999e-01,9.40924e-01,9.57209e-01,9.99897e-01
8.452190071e-01,9.29765e-01,9.99999e-01,9.70549e-01,9.58036e-01,9.99938e-01
8.494451021e-01,9.42293e-01,9.99999e-01,9.82783e-01,9.58847e-01,9.99950e-01
8.536923276e-01,9.49820e-01,9.99999e-01,9.89792e-01,9.59644e-01,9.99969e-01
8.579607893e-01,9.54366e-01,9.99999e-01,9.93697e-01,9.60425e-01,9.99992e-01
8.622505932e-01,9.57340e-01,9.99999e-01,9.95994e-01,9.61191e-01,9.99998e-01
8.665618462e-01,9.59556e-01,9.99999e-01,9.97518e-01,9.61943e-01,9.99998e-01
8.708946554e-01,9.59943e-01,9.99999e-01,9.97157e-01,9.62680e-01,9.99997e-01
8.752491287e-01,9.59739e-01,9.99999e-01,9.96199e-01,9.63404e-01,9.99995e-01
8.796253743e-01,9.59030e-01,9.99999e-01,9.94737e-01,9.64114e-01,9.99987e-01
8.840235012e-01,9.58980e-01,9.99999e-01,9.93993e-01,9.64810e-01,9.99962e-01
8.884436187e-01,9.44454e-01,9.99999e-01,9.78310e-01,9.65493e-01,9.99895e-01
8.928858368e-01,7.69563e-01,9.99999e-01,7.96993e-01,9.66163e-01,9.99398e-01
8.973502660e-01,6.47542e-01,9.99999e-01,6.71831e-01,9.66820e-01,9.96922e-01
9.018370173e-01,7.86198e-01,9.99999e-01,8.16583e-01,9.67464e-01,9.95166e-01
9.063462024e-01,8.05178e-01,9.99999e-01,8.35258e-01,9.68097e-01,9.95752e-01
9.108779334e-01,7.28913e-01,9.99999e-01,7.55786e-01,9.68717e-01,9.95586e-01
9.154323231e-01,7.01508e-01,9.99999e-01,7.26357e-01,9.69325e-01,9.96350e-01
9.200094847e-01,7.54597e-01,9.99999e-01,7.79590e-01,9.69922e-01,9.97955e-01
9.246095321e-01,6.67181e-01,9.99999e-01,6.89078e-01,9.70507e-01,9.97645e-01
9.292325798e-01,1.03884e-01,9.99999e-01,1.07965e-01,9.71081e-01,9.90848e-01
9.338787427e-01,4.99017e-02,9.99999e-01,5.33474e-02,9.71644e-01,9.62707e-01
9.385481364e-01,2.80743e-01,9.99999e-01,3.02124e-01,9.72196e-01,9.55804e-01
9.432408771e-01,1.91553e-01,9.99999e-01,2.04753e-01,9.72738e-01,9.61754e-01
9.479570815e-01,1.01378e-01,9.99999e-01,1.07521e-01,9.73269e-01,9.68760e-01
9.526968669e-01,1.67864e-01,9.99999e-01,1.75752e-01,9.73790e-01,9.80828e-01
9.574603512e-01,1.82417e-01,9.99999e-01,1.89079e-01,9.74301e-01,9.90214e-01
9.622476530e-01,2.41809e-01,9.99999e-01,2.49752e-01,9.74802e-01,9.93223e-01
9.670588912e-01,4.31001e-01,9.99999e-01,4.43979e-01,9.75294e-01,9.95360e-01
9.718941857e-01,5.72872e-01,9.99999e-01,5.89106e-01,9.75776e-01,9.96582e-01
9.767536566e-01,6.26856e-01,9.99999e-01,6.43788e-01,9.76249e-01,9.97387e-01
9.816374249e-01,7.02336e-01,9.99999e-01,7.19732e-01,9.76712e-01,9.99094e-01
9.865456120e-01,7.94703e-01,9.99999e-01,8.13425e-01,9.77167e-01,9.99811e-01
9.914783401e-01,8.59998e-01,9.99999e-01,8.79737e-01,9.77613e-01,9.99947e-01
9.964357318e-01,9.12080e-01,9.99999e-01,9.32577e-01,9.78050e-01,9.99968e-01
1.001417910e+00,9.38312e-01,9.99999e-01,9.58993e-01,9.78479e-01,9.99952e-01
1.006425000e+00,9.55727e-01,9.99999e-01,9.76392e-01,9.78899e-01,9.99933e-01
1.011457125e+00,9.64850e-01,9.99999e-01,9.85292e-01,9.79312e-01,9.99937e-01
1.016514411e+00,9.69866e-01,9.99999e-01,9.89987e-01,9.79716e-01,9.99955e-01
1.021596983e+00,9.72243e-01,9.99999e-01,9.92013e-01,9.80113e-01,9.99955e-01
1.026704968e+00,9.74361e-01,9.99999e-01,9.93765e-01,9.80502e-01,9.99970e-01
1.031838492e+00,9.76430e-01,9.99999e-01,9.95467e-01,9.80883e-01,9.99991e-01
1.036997685e+00,9.78611e-01,9.99999e-01,9.97304e-01,9.81257e-01,9.99998e-01
1.042182673e+00,9.78467e-01,9.99999e-01,9.96783e-01,9.81624e-01,9.99998e-01
1.047393587e+00,9.77799e-01,9.99999e-01,9.95738e-01,9.81984e-01,9.99998e-01
1.052630555e+00,9.76594e-01,9.99999e-01,9.94155e-01,9.82336e-01,9.99997e-01
1.057893707e+00,9.73107e-01,9.99999e-01,9.90258e-01,9.82682e-01,9.99996e-01
1.063183176e+00,9.67315e-01,9.99999e-01,9.84029e-01,9.83021e-01,9.99991e-01
1.068499092e+00,9.57197e-01,9.99999e-01,9.73417e-01,9.83354e-01,9.99981e-01
1.073841587e+00,9.53148e-01,9.99999e-01,9.68999e-01,9.83680e-01,9.99959e-01
1.079210795e+00,9.44965e-01,9.99999e-01,9.60433e-01,9.84000e-01,9.99892e-01
1.084606849e+00,9.25783e-01,9.99999e-01,9.40779e-01,9.84313e-01,9.99740e-01
1.090029883e+00,9.01629e-01,9.99999e-01,9.16203e-01,9.84621e-01,9.99462e-01
1.095480033e+00,7.75590e-01,9.99999e-01,7.88227e-01,9.84922e-01,9.99029e-01
1.100957433e+00,5.42787e-01,9.99999e-01,5.51916e-01,9.85218e-01,9.98214e-01
1.106462220e+00,2.35492e-01,9.99999e-01,2.39680e-01,9.85508e-01,9.96972e-01
1.111994531e+00,5.34948e-02,9.99999e-01,5.47043e-02,9.85792e-01,9.91983e-01
1.117554504e+00,1.08810e-02,9.99999e-01,1.13600e-02,9.86071e-01,9.71360e-01
1.123142276e+00,4.51592e-02,9.99999e-01,4.90505e-02,9.86344e-01,9.33412e-01
1.128757988e+00,1.04519e-01,9.99999e-01,1.14728e-01,9.86612e-01,9.23379e-01
1.134401778e+00,4.82401e-02,9.99999e-01,5.23098e-02,9.86874e-01,9.34463e-01
1.140073787e+00,2.37603e-01,9.99999e-01,2.54095e-01,9.87132e-01,9.47283e-01
1.145774156e+00,7.03195e-02,9.99999e-01,7.48373e-02,9.87384e-01,9.51635e-01
1.151503026e+00,5.38385e-02,9.99999e-01,5.60391e-02,9.87632e-01,9.72761e-01
1.157260541e+00,7.01439e-02,9.99999e-01,7.15935e-02,9.87875e-01,9.91776e-01
1.163046844e+00,1.37513e-01,9.99999e-01,1.39493e-01,9.88113e-01,9.97662e-01
1.168862078e+00,2.37587e-01,9.99999e-01,2.40678e-01,9.88346e-01,9.98794e-01
1.174706389e+00,4.07610e-01,9.99999e-01,4.12980e-01,9.88575e-01,9.98402e-01
1.180579921e+00,5.72875e-01,9.99999e-01,5.80765e-01,9.88800e-01,9.97585e-01
1.186482820e+00,7.23111e-01,9.99999e-01,7.32954e-01,9.89020e-01,9.97522e-01
1.192415234e+00,8.22970e-01,9.99999e-01,8.33471e-01,9.89235e-01,9.98143e-01
1.198377311e+00,8.47197e-01,9.99999e-01,8.57736e-01,9.89447e-01,9.98246e-01
1.204369197e+00,8.55162e-01,9.99999e-01,8.65474e-01,9.89654e-01,9.98413e-01
1.210391043e+00,8.60931e-01,9.99999e-01,8.70592e-01,9.89857e-01,9.99034e-01
1.216442998e+00,8.79488e-01,9.99999e-01,8.88845e-01,9.90057e-01,9.99408e-01
1.222525213e+00,9.02880e-01,9.99999e-01,9.12102e-01,9.90252e-01,9.99632e-01
1.228637839e+00,9.28940e-01,9.99999e-01,9.38063e-01,9.90444e-01,9.99828e-01
1.234781029e+00,9.44673e-01,9.99999e-01,9.53653e-01,9.90632e-01,9.99950e-01
1.240954934e+00,9.61502e-01,9.99999e-01,9.70427e-01,9.90816e-01,9.99985e-01
1.247159708e+00,9.68088e-01,9.99999e-01,9.76891e-01,9.90996e-01,9.99990e-01
1.253395507e+00,9.70795e-01,9.99999e-01,9.79451e-01,9.91173e-01,9.99988e-01
1.259662485e+00,9.71959e-01,9.99999e-01,9.80460e-01,9.91347e-01,9.99981e-01
1.265960797e+00,9.60739e-01,9.99999e-01,9.68987e-01,9.91517e-01,9.99969e-01
1.272290601e+00,9.43755e-01,9.99999e-01,9.51719e-01,9.91684e-01,9.99945e-01
1.278652054e+00,8.99140e-01,9.99999e-01,9.06616e-01,9.91848e-01,9.99904e-01
1.285045314e+00,8.30935e-01,9.99999e-01,8.37777e-01,9.92008e-01,9.99821e-01
1.291470541e+00,7.29094e-01,9.99999e-01,7.35080e-01,9.92165e-01,9.99687e-01
1.297927893e+00,6.41870e-01,9.99999e-01,6.47215e-01,9.92319e-01,9.99416e-01
1.304417533e+00,5.96183e-01,9.99999e-01,6.01448e-01,9.92470e-01,9.98765e-01
1.310939621e+00,5.53149e-01,9.99999e-01,5.58677e-01,9.92619e-01,9.97466e-01
1.317494319e+00,5.27274e-01,9.99999e-01,5.33614e-01,9.92764e-01,9.95319e-01
1.324081790e+00,3.93141e-01,9.99999e-01,3.98994e-01,9.92906e-01,9.92368e-01
1.330702199e+00,8.20138e-02,9.99999e-01,8.36861e-02,9.93046e-01,9.86878e-01
1.337355710e+00,3.69251e-04,9.99999e-01,3.81364e-04,9.93183e-01,9.74883e-01
1.344042489e+00,3.31341e-06,9.99999e-01,3.60132e-06,9.93317e-01,9.26244e-01
1.350762701e+00,2.65167e-18,9.99999e-01,3.46974e-18,9.93448e-01,7.69266e-01
1.357516515e+00,2.07100e-27,9.99999e-01,4.50110e-27,9.93577e-01,4.63083e-01
1.364304097e+00,3.30414e-17,9.99999e-01,1.28162e-16,9.93704e-01,2.59443e-01
1.371125618e+00,8.42074e-11,9.99999e-01,3.02329e-10,9.93828e-01,2.80259e-01
1.377981246e+00,3.11812e-10,9.99999e-01,9.33420e-10,9.93949e-01,3.36087e-01
1.384871152e+00,2.45953e-14,9.99999e-01,6.83436e-14,9.94068e-01,3.62024e-01
1.391795508e+00,2.91272e-17,9.99999e-01,7.71702e-17,9.94185e-01,3.79648e-01
1.398754485e+00,2.10633e-13,9.99999e-01,4.71473e-13,9.94300e-01,4.49316e-01
1.405748258e+00,3.23034e-13,9.99999e-01,5.18559e-13,9.94412e-01,6.26446e-01
1.412776999e+00,7.65712e-13,9.99999e-01,9.53208e-13,9.94522e-01,8.07724e-01
1.419840884e+00,1.38790e-12,9.99998e-01,1.53235e-12,9.94630e-01,9.10620e-01
1.426940089e+00,1.15269e-08,9.99998e-01,1.24422e-08,9.94736e-01,9.31339e-01
1.434074789e+00,1.47744e-07,9.99998e-01,1.61514e-07,9.94839e-01,9.19488e-01
1.441245163e+00,2.47704e-06,9.99999e-01,2.72659e-06,9.94941e-01,9.13092e-01
1.448451389e+00,1.63846e-04,9.99998e-01,1.78307e-04,9.95041e-01,9.23479e-01
1.455693646e+00,2.62797e-03,9.99999e-01,2.80956e-03,9.95138e-01,9.39936e-01
1.462972114e+00,3.88092e-03,9.99999e-01,4.13681e-03,9.95234e-01,9.42634e-01
1.470286975e+00,1.75510e-03,9.99999e-01,1.86877e-03,9.95328e-01,9.43583e-01
