#,Wave/freq,Total,N2,H2O,Rayleigh,CIA
4.000000000e-01,3.30189e-01,9.99999e-01,9.99874e-01,3.30230e-01,9.99999e-01
4.020000000e-01,3.37518e-01,9.99999e-01,9.99922e-01,3.37544e-01,9.99999e-01
4.040100000e-01,3.44852e-01,9.99999e-01,9.99966e-01,3.44863e-01,9.99999e-01
4.060300500e-01,3.52189e-01,9.99999e-01,9.99992e-01,3.52192e-01,9.99999e-01
4.080602003e-01,3.59526e-01,9.99999e-01,9.99997e-01,3.59527e-01,9.99999e-01
4.101005013e-01,3.66866e-01,9.99999e-01,9.99999e-01,3.66866e-01,9.99999e-01
4.121510038e-01,3.74203e-01,9.99999e-01,9.99994e-01,3.74205e-01,9.99999e-01
4.142117588e-01,3.81528e-01,9.99999e-01,9.99964e-01,3.81541e-01,9.99999e-01
4.162828176e-01,3.88812e-01,9.99999e-01,9.99845e-01,3.88872e-01,9.99999e-01
4.183642317e-01,3.96159e-01,9.99999e-01,9.99907e-01,3.96195e-01,9.99999e-01
4.204560528e-01,4.03485e-01,9.99999e-01,9.99943e-01,4.03507e-01,9.99999e-01
4.225583331e-01,4.10798e-01,9.99999e-01,9.99978e-01,4.10806e-01,9.99999e-01
4.246711247e-01,4.18082e-01,9.99999e-01,9.99982e-01,4.18089e-01,9.99999e-01
4.267944804e-01,4.25342e-01,9.99999e-01,9.99974e-01,4.25353e-01,9.99999e-01
4.289284528e-01,4.32588e-01,9.99999e-01,9.99980e-01,4.32596e-01,9.99999e-01
4.310730950e-01,4.39812e-01,9.99999e-01,9.99991e-01,4.39816e-01,9.99999e-01
4.332284605e-01,4.47009e-01,9.99999e-01,9.99997e-01,4.47010e-01,9.99999e-01
4.353946028e-01,4.54176e-01,9.99999e-01,9.99998e-01,4.54176e-01,9.99999e-01
4.375715758e-01,4.61305e-01,9.99999e-01,9.99983e-01,4.61312e-01,9.99999e-01
4.397594337e-01,4.68351e-01,9.99999e-01,9.99861e-01,4.68416e-01,9.99999e-01
4.419582309e-01,4.75152e-01,9.99999e-01,9.99297e-01,4.75486e-01,9.99999e-01
4.441680220e-01,4.82262e-01,9.99999e-01,9.99465e-01,4.82520e-01,9.99999e-01
4.463888621e-01,4.89241e-01,9.99999e-01,9.99439e-01,4.89515e-01,9.99999e-01
4.486208064e-01,4.96299e-01,9.99999e-01,9.99653e-01,4.96471e-01,9.99999e-01
4.508639105e-01,5.03304e-01,9.99999e-01,9.99837e-01,5.03386e-01,9.99999e-01
4.531182300e-01,5.10225e-01,9.99999e-01,9.99935e-01,5.10257e-01,9.99999e-01
4.553838212e-01,5.17061e-01,9.99999e-01,9.99955e-01,5.17084e-01,9.99999e-01
4.576607403e-01,5.23854e-01,9.99999e-01,9.99979e-01,5.23864e-01,9.99999e-01
4.599490440e-01,5.30590e-01,9.99999e-01,9.99985e-01,5.30597e-01,9.99999e-01
4.622487892e-01,5.37280e-01,9.99999e-01,9.99997e-01,5.37281e-01,9.99999e-01
4.645600332e-01,5.43909e-01,9.99999e-01,9.99989e-01,5.43915e-01,9.99999e-01
4.668828333e-01,5.50405e-01,9.99999e-01,9.99833e-01,5.50497e-01,9.99999e-01
4.692172475e-01,5.56830e-01,9.99999e-01,9.99648e-01,5.57026e-01,9.99999e-01
4.715633337e-01,5.63372e-01,9.99999e-01,9.99769e-01,5.63501e-01,9.99999e-01
4.739211504e-01,5.69797e-01,9.99999e-01,9.99780e-01,5.69922e-01,9.99999e-01
4.762907561e-01,5.76222e-01,9.99999e-01,9.99886e-01,5.76287e-01,9.99999e-01
4.786722099e-01,5.82568e-01,9.99999e-01,9.99953e-01,5.82595e-01,9.99999e-01
4.810655710e-01,5.88837e-01,9.99999e-01,9.99985e-01,5.88845e-01,9.99999e-01
4.834708988e-01,5.94955e-01,9.99999e-01,9.99861e-01,5.95037e-01,9.99999e-01
4.858882533e-01,6.01021e-01,9.99999e-01,9.99751e-01,6.01170e-01,9.99999e-01
4.883176946e-01,6.07117e-01,9.99999e-01,9.99790e-01,6.07244e-01,9.99999e-01
4.907592831e-01,6.13141e-01,9.99999e-01,9.99811e-01,6.13256e-01,9.99999e-01
4.932130795e-01,6.19126e-01,9.99999e-01,9.99866e-01,6.19208e-01,9.99999e-01
4.956791449e-01,6.25054e-01,9.99999e-01,9.99929e-01,6.25098e-01,9.99999e-01
4.981575406e-01,6.30702e-01,9.99999e-01,9.99644e-01,6.30927e-01,9.99999e-01
5.006483283e-01,6.36098e-01,9.99999e-01,9.99072e-01,6.36693e-01,9.99993e-01
5.031515699e-01,6.39380e-01,9.99999e-01,9.95353e-01,6.42396e-01,9.99950e-01
5.056673278e-01,6.46415e-01,9.99999e-01,9.97554e-01,6.48036e-01,9.99943e-01
5.081956644e-01,6.51575e-01,9.99999e-01,9.96916e-01,6.53612e-01,9.99965e-01
5.107366428e-01,6.57751e-01,9.99999e-01,9.97919e-01,6.59126e-01,9.99993e-01
5.132903260e-01,6.63786e-01,9.99999e-01,9.98812e-01,6.64575e-01,9.99998e-01
5.158567776e-01,6.69625e-01,9.99999e-01,9.99498e-01,6.69961e-01,9.99999e-01
5.184360615e-01,6.75147e-01,9.99999e-01,9.99798e-01,6.75282e-01,9.99999e-01
5.210282418e-01,6.80488e-01,9.99999e-01,9.99924e-01,6.80539e-01,9.99999e-01
5.236333830e-01,6.85524e-01,9.99999e-01,9.99696e-01,6.85733e-01,9.99997e-01
5.262515499e-01,6.90729e-01,9.99999e-01,9.99810e-01,6.90862e-01,9.99996e-01
5.288828077e-01,6.95804e-01,9.99999e-01,9.99824e-01,6.95927e-01,9.99997e-01
5.315272217e-01,7.00821e-01,9.99999e-01,9.99847e-01,7.00928e-01,9.99999e-01
5.341848578e-01,7.05794e-01,9.99999e-01,9.99899e-01,7.05865e-01,9.99999e-01
5.368557821e-01,7.10486e-01,9.99999e-01,9.99644e-01,7.10738e-01,9.99998e-01
5.395400610e-01,7.14617e-01,9.99999e-01,9.98710e-01,7.15548e-01,9.99987e-01
5.422377613e-01,7.19093e-01,9.99999e-01,9.98361e-01,7.20294e-01,9.99969e-01
5.449489501e-01,7.23841e-01,9.99999e-01,9.98463e-01,7.24978e-01,9.99968e-01
5.476736949e-01,7.28604e-01,9.99999e-01,9.98652e-01,7.29598e-01,9.99984e-01
5.504120634e-01,7.33434e-01,9.99999e-01,9.99020e-01,7.34155e-01,9.99995e-01
5.531641237e-01,7.38287e-01,9.99999e-01,9.99507e-01,7.38650e-01,9.99998e-01
5.559299443e-01,7.42907e-01,9.99999e-01,9.99762e-01,7.43084e-01,9.99999e-01
5.587095940e-01,7.47343e-01,9.99999e-01,9.99849e-01,7.47455e-01,9.99999e-01
5.615031420e-01,7.51639e-01,9.99999e-01,9.99832e-01,7.51765e-01,9.99999e-01
5.643106577e-01,7.55867e-01,9.99999e-01,9.99807e-01,7.56014e-01,9.99997e-01
5.671322110e-01,7.58406e-01,9.99999e-01,9.97657e-01,7.60202e-01,9.99979e-01
5.699678720e-01,7.62436e-01,9.99999e-01,9.97584e-01,7.64330e-01,9.99937e-01
5.728177114e-01,7.66400e-01,9.99999e-01,9.97451e-01,7.68398e-01,9.99947e-01
5.756818000e-01,7.70582e-01,9.99999e-01,9.97666e-01,7.72407e-01,9.99969e-01
5.785602090e-01,7.74775e-01,9.99999e-01,9.97970e-01,7.76357e-01,9.99990e-01
5.814530100e-01,7.78651e-01,9.99999e-01,9.97956e-01,7.80249e-01,9.99995e-01
5.843602750e-01,7.82147e-01,9.99999e-01,9.97543e-01,7.84083e-01,9.99985e-01
5.872820764e-01,7.71280e-01,9.99999e-01,9.79101e-01,7.87859e-01,9.99852e-01
5.902184868e-01,7.71412e-01,9.99999e-01,9.74915e-01,7.91578e-01,9.99597e-01
5.931695792e-01,7.80775e-01,9.99999e-01,9.82188e-01,7.95241e-01,9.99613e-01
5.961354271e-01,7.83108e-01,9.99999e-01,9.80514e-01,7.98848e-01,9.99777e-01
5.991161043e-01,7.90920e-01,9.99999e-01,9.85759e-01,8.02400e-01,9.99930e-01
6.021116848e-01,7.99368e-01,9.99999e-01,9.91906e-01,8.05897e-01,9.99991e-01
6.051222432e-01,8.06020e-01,9.99999e-01,9.95898e-01,8.09339e-01,9.99999e-01
6.081478544e-01,8.11287e-01,9.99999e-01,9.98227e-01,8.12728e-01,9.99999e-01
6.111885937e-01,8.15453e-01,9.99999e-01,9.99252e-01,8.16063e-01,9.99999e-01
6.142445367e-01,8.19072e-01,9.99999e-01,9.99664e-01,8.19346e-01,9.99999e-01
6.173157594e-01,8.22425e-01,9.99999e-01,9.99814e-01,8.22577e-01,9.99999e-01
6.204023382e-01,8.25627e-01,9.99999e-01,9.99842e-01,8.25757e-01,9.99999e-01
6.235043498e-01,8.28300e-01,9.99999e-01,9.99294e-01,8.28886e-01,9.99997e-01
6.266218716e-01,8.28900e-01,9.99999e-01,9.96341e-01,8.31964e-01,9.99973e-01
6.297549810e-01,8.33829e-01,9.99999e-01,9.98656e-01,8.34993e-01,9.99948e-01
6.329037559e-01,8.35722e-01,9.99999e-01,9.97355e-01,8.37972e-01,9.99958e-01
6.360682746e-01,8.38979e-01,9.99999e-01,9.97735e-01,8.40903e-01,9.99975e-01
6.392486160e-01,8.41309e-01,9.99999e-01,9.97073e-01,8.43786e-01,9.99988e-01
6.424448591e-01,8.43262e-01,9.99999e-01,9.96050e-01,8.46622e-01,9.99980e-01
6.456570834e-01,8.33867e-01,9.99999e-01,9.81808e-01,8.49411e-01,9.99889e-01
6.488853688e-01,8.40689e-01,9.99999e-01,9.86823e-01,8.52154e-01,9.99717e-01
6.521297956e-01,8.43185e-01,9.99999e-01,9.86582e-01,8.54851e-01,9.99766e-01
6.553904446e-01,8.45817e-01,9.99999e-01,9.86542e-01,8.57503e-01,9.99826e-01
6.586673968e-01,8.50195e-01,9.99999e-01,9.88528e-01,8.60111e-01,9.99941e-01
6.619607338e-01,8.57134e-01,9.99999e-01,9.93589e-01,8.62675e-01,9.99987e-01
6.652705375e-01,8.61857e-01,9.99999e-01,9.96147e-01,8.65196e-01,9.99993e-01
6.685968902e-01,8.66253e-01,9.99999e-01,9.98362e-01,8.67674e-01,9.99998e-01
6.719398746e-01,8.69388e-01,9.99999e-01,9.99170e-01,8.70110e-01,9.99999e-01
6.752995740e-01,8.72122e-01,9.99999e-01,9.99561e-01,8.72504e-01,9.99999e-01
6.786760719e-01,8.74282e-01,9.99999e-01,9.99342e-01,8.74858e-01,9.99998e-01
6.820694522e-01,8.76176e-01,9.99999e-01,9.98870e-01,8.77171e-01,9.99993e-01
6.854797995e-01,8.78165e-01,9.99999e-01,9.98556e-01,8.79445e-01,9.99987e-01
6.889071985e-01,8.78528e-01,9.99999e-01,9.96456e-01,8.81679e-01,9.99968e-01
6.923517345e-01,8.34518e-01,9.99999e-01,9.44415e-01,8.83875e-01,9.99726e-01
6.958134932e-01,8.60186e-01,9.99999e-01,9.71414e-01,8.86033e-01,9.99395e-01
6.992925606e-01,8.62902e-01,9.99999e-01,9.72097e-01,8.88153e-01,9.99455e-01
7.027890234e-01,8.59572e-01,9.99999e-01,9.65955e-01,8.90236e-01,9.99584e-01
7.063029686e-01,8.66437e-01,9.99999e-01,9.71234e-01,8.92283e-01,9.99792e-01
7.098344834e-01,8.69480e-01,9.99999e-01,9.72371e-01,8.94294e-01,9.99877e-01
7.133836558e-01,8.62899e-01,9.99999e-01,9.63000e-01,8.96270e-01,9.99756e-01
7.169505741e-01,6.68691e-01,9.99999e-01,7.45895e-01,8.98211e-01,9.98088e-01
7.205353270e-01,7.78328e-01,9.99999e-01,8.67619e-01,9.00117e-01,9.96629e-01
7.241380036e-01,7.48048e-01,9.99999e-01,8.31750e-01,9.01990e-01,9.97089e-01
7.277586936e-01,7.63839e-01,9.99999e-01,8.47128e-01,9.03830e-01,9.97619e-01
7.313974871e-01,7.58306e-01,9.99999e-01,8.38252e-01,9.05637e-01,9.98884e-01
7.350544745e-01,8.23213e-01,9.99999e-01,9.07561e-01,9.07412e-01,9.99611e-01
7.387297469e-01,8.46200e-01,9.99999e-01,9.30919e-01,9.09155e-01,9.99821e-01
7.424233956e-01,8.79511e-01,9.99999e-01,9.65605e-01,9.10867e-01,9.99968e-01
7.461355126e-01,8.93351e-01,9.99999e-01,9.78967e-01,9.12548e-01,9.99994e-01
7.498661902e-01,9.05222e-01,9.99999e-01,9.90182e-01,9.14199e-01,9.99997e-01
7.536155211e-01,9.11383e-01,9.99999e-01,9.95155e-01,9.15820e-01,9.99998e-01
7.573835987e-01,9.15124e-01,9.99999e-01,9.97505e-01,9.17412e-01,9.99999e-01
7.611705167e-01,9.17550e-01,9.99999e-01,9.98448e-01,9.18976e-01,9.99999e-01
7.649763693e-01,9.19614e-01,9.99999e-01,9.99025e-01,9.20511e-01,9.99999e-01
7.688012511e-01,9.21392e-01,9.99999e-01,9.99320e-01,9.22018e-01,9.99999e-01
7.726452574e-01,9.22981e-01,9.99999e-01,9.99440e-01,9.23498e-01,9.99999e-01
7.765084837e-01,9.24209e-01,9.99999e-01,9.99198e-01,9.24951e-01,9.99998e-01
7.803910261e-01,9.23163e-01,9.99999e-01,9.96533e-01,9.26377e-01,9.99996e-01
7.842929812e-01,9.16582e-01,9.99999e-01,9.87954e-01,9.27777e-01,9.99977e-01
7.882144461e-01,9.06293e-01,9.99999e-01,9.75562e-01,9.29152e-01,9.99830e-01
7.921555184e-01,9.17774e-01,9.99999e-01,9.86611e-01,9.30502e-01,9.99704e-01
7.961162960e-01,9.09362e-01,9.99999e-01,9.76165e-01,9.31827e-01,9.99719e-01
8.000968774e-01,9.07334e-01,9.99999e-01,9.72648e-01,9.33127e-01,9.99701e-01
8.040973618e-01,9.08606e-01,9.99999e-01,9.72611e-01,9.34404e-01,9.99772e-01
8.081178486e-01,8.78576e-01,9.99999e-01,9.39209e-01,9.35657e-01,9.99769e-01
8.121584379e-01,7.23720e-01,9.99999e-01,7.73147e-01,9.36887e-01,9.99126e-01
8.162192301e-01,6.92367e-01,9.99999e-01,7.40484e-01,9.38094e-01,9.96720e-01
8.203003262e-01,8.07537e-01,9.99999e-01,8.63053e-01,9.39279e-01,9.96161e-01
8.244018279e-01,7.69963e-01,9.99999e-01,8.21234e-01,9.40442e-01,9.96943e-01
8.285238370e-01,7.82562e-01,9.99999e-01,8.33112e-01,9.41583e-01,9.97598e-01
8.326664562e-01,7.84209e-01,9.99999e-01,8.32699e-01,9.42703e-01,9.99006e-01
8.368297885e-01,8.26975e-01,9.99999e-01,8.76415e-01,9.43802e-01,9.99772e-01
8.410139374e-01,8.73377e-01,9.99999e-01,9.24446e-01,9.44881e-01,9.99866e-01
8.452190071e-01,9.10096e-01,9.99999e-01,9.62183e-01,9.45940e-01,9.99920e-01
8.494451021e-01,9.25869e-01,9.99999e-01,9.77770e-01,9.46979e-01,9.99935e-01
8.536923276e-01,9.35491e-01,9.99999e-01,9.86844e-01,9.47999e-01,9.99960e-01
8.579607893e-01,9.41258e-01,9.99999e-01,9.91851e-01,9.48999e-01,9.99990e-01
8.622505932e-01,9.45068e-01,9.99999e-01,9.94829e-01,9.49981e-01,9.99997e-01
8.665618462e-01,9.47887e-01,9.99999e-01,9.96785e-01,9.50944e-01,9.99998e-01
8.708946554e-01,9.48377e-01,9.99999e-01,9.96311e-01,9.51889e-01,9.99997e-01
8.752491287e-01,9.48118e-01,9.99999e-01,9.95072e-01,9.52817e-01,9.99994e-01
8.796253743e-01,9.47189e-01,9.99999e-01,9.93159e-01,9.53727e-01,9.99984e-01
8.840235012e-01,9.47129e-01,9.99999e-01,9.92199e-01,9.54620e-01,9.99952e-01
8.884436187e-01,9.28158e-01,9.99999e-01,9.71519e-01,9.55496e-01,9.99864e-01
8.928858368e-01,7.12495e-01,9.99999e-01,7.45591e-01,9.56356e-01,9.99220e-01
8.973502660e-01,5.73073e-01,9.99999e-01,6.01094e-01,9.57199e-01,9.96012e-01
9.018370173e-01,7.35990e-01,9.99999e-01,7.73075e-01,9.58026e-01,9.93737e-01
9.063462024e-01,7.55640e-01,9.99999e-01,7.92439e-01,9.58838e-01,9.94496e-01
9.108779334e-01,6.65699e-01,9.99999e-01,6.97689e-01,9.59634e-01,9.94282e-01
9.154323231e-01,6.33607e-01,9.99999e-01,6.62854e-01,9.60416e-01,9.95271e-01
9.200094847e-01,6.96827e-01,9.99999e-01,7.26893e-01,9.61182e-01,9.97350e-01
9.246095321e-01,5.94396e-01,9.99999e-01,6.19808e-01,9.61934e-01,9.96947e-01
9.292325798e-01,6.34503e-02,9.99999e-01,6.68904e-02,9.62672e-01,9.85351e-01
9.338787427e-01,2.43324e-02,9.99999e-01,2.66407e-02,9.63395e-01,9.48056e-01
9.385481364e-01,2.06676e-01,9.99999e-01,2.27309e-01,9.64105e-01,9.43078e-01
9.432408771e-01,1.28217e-01,9.99999e-01,1.39787e-01,9.64802e-01,9.50696e-01
9.479570815e-01,5.63446e-02,9.99999e-01,6.08103e-02,9.65485e-01,9.59686e-01
9.526968669e-01,1.05814e-01,9.99999e-01,1.12305e-01,9.66155e-01,9.75213e-01
9.574603512e-01,1.17494e-01,9.99999e-01,1.23087e-01,9.66812e-01,9.87331e-01
9.622476530e-01,1.67175e-01,9.99999e-01,1.74328e-01,9.67457e-01,9.91222e-01
9.670588912e-01,3.44167e-01,9.99999e-01,3.57661e-01,9.68089e-01,9.93988e-01
9.718941857e-01,4.88520e-01,9.99999e-01,5.06543e-01,9.68710e-01,9.95571e-01
9.767536566e-01,5.48221e-01,9.99999e-01,5.67494e-01,9.69318e-01,9.96613e-01
9.816374249e-01,6.34362e-01,9.99999e-01,6.54806e-01,9.69915e-01,9.98826e-01
9.865456120e-01,7.43443e-01,9.99999e-01,7.66227e-01,9.70500e-01,9.99755e-01
9.914783401e-01,8.22881e-01,9.99999e-01,8.47449e-01,9.71074e-01,9.99931e-01
9.964357318e-01,8.87813e-01,9.99999e-01,9.13763e-01,9.71638e-01,9.99959e-01
1.001417910e+00,9.20946e-01,9.99999e-01,9.47346e-01,9.72190e-01,9.99939e-01
1.006425000e+00,9.43021e-01,9.99999e-01,9.69539e-01,9.72732e-01,9.99913e-01
1.011457125e+00,9.54734e-01,9.99999e-01,9.81040e-01,9.73263e-01,9.99919e-01
1.016514411e+00,9.61137e-01,9.99999e-01,9.87067e-01,9.73784e-01,9.99943e-01
1.021596983e+00,9.64182e-01,9.99999e-01,9.89674e-01,9.74295e-01,9.99944e-01
1.026704968e+00,9.66900e-01,9.99999e-01,9.91932e-01,9.74797e-01,9.99964e-01
1.031838492e+00,9.69568e-01,9.99999e-01,9.94144e-01,9.75288e-01,9.99989e-01
1.036997685e+00,9.72364e-01,9.99999e-01,9.96509e-01,9.75770e-01,9.99997e-01
1.042182673e+00,9.72165e-01,9.99999e-01,9.95822e-01,9.76243e-01,9.99998e-01
1.047393587e+00,9.71310e-01,9.99999e-01,9.94475e-01,9.76707e-01,9.99998e-01
1.052630555e+00,9.69749e-01,9.99999e-01,9.92415e-01,9.77162e-01,9.99997e-01
1.057893707e+00,9.65238e-01,9.99999e-01,9.87350e-01,9.77608e-01,9.99995e-01
1.063183176e+00,9.57794e-01,9.99999e-01,9.79304e-01,9.78045e-01,9.99988e-01
1.068499092e+00,9.44855e-01,9.99999e-01,9.65663e-01,9.78474e-01,9.99976e-01
1.073841587e+00,9.39636e-01,9.99999e-01,9.59943e-01,9.78895e-01,9.99948e-01
1.079210795e+00,9.29303e-01,9.99999e-01,9.49071e-01,9.79307e-01,9.99860e-01
1.084606849e+00,9.04884e-01,9.99999e-01,9.23932e-01,9.79712e-01,9.99663e-01
1.090029883e+00,8.73962e-01,9.99999e-01,8.92320e-01,9.80108e-01,9.99303e-01
1.095480033e+00,7.19024e-01,9.99999e-01,7.34248e-01,9.80497e-01,9.98741e-01
1.100957433e+00,4.54758e-01,9.99999e-01,4.64698e-01,9.80879e-01,9.97685e-01
1.106462220e+00,1.59536e-01,9.99999e-01,1.63224e-01,9.81253e-01,9.96076e-01
1.111994531e+00,2.49752e-02,9.99999e-01,2.57097e-02,9.81620e-01,9.89619e-01
1.117554504e+00,3.62239e-03,9.99999e-01,3.83049e-03,9.81980e-01,9.63026e-01
1.123142276e+00,2.23247e-02,9.99999e-01,2.48500e-02,9.82332e-01,9.14532e-01
1.128757988e+00,5.79182e-02,9.99999e-01,6.53566e-02,9.82678e-01,9.01807e-01
1.134401778e+00,2.93050e-02,9.99999e-01,3.25497e-02,9.83018e-01,9.15868e-01
1.140073787e+00,1.59988e-01,9.99999e-01,1.74531e-01,9.83350e-01,9.32191e-01
1.145774156e+00,3.72649e-02,9.99999e-01,4.03981e-02,9.83676e-01,9.37748e-01
1.151503026e+00,2.59171e-02,9.99999e-01,2.72987e-02,9.83996e-01,9.64827e-01
1.157260541e+00,3.41531e-02,9.99999e-01,3.50710e-02,9.84310e-01,9.89351e-01
1.163046844e+00,8.07298e-02,9.99999e-01,8.22401e-02,9.84617e-01,9.96970e-01
1.168862078e+00,1.59678e-01,9.99999e-01,1.62376e-01,9.84919e-01,9.98437e-01
1.174706389e+00,3.16625e-01,9.99999e-01,3.22043e-01,9.85214e-01,9.97929e-01
1.180579921e+00,4.88907e-01,9.99999e-01,4.97654e-01,9.85504e-01,9.96871e-01
1.186482820e+00,6.58046e-01,9.99999e-01,6.69682e-01,9.85789e-01,9.96788e-01
1.192415234e+00,7.77150e-01,9.99999e-01,7.90030e-01,9.86067e-01,9.97594e-01
1.198377311e+00,8.06677e-01,9.99999e-01,8.19718e-01,9.86341e-01,9.97716e-01
1.204369197e+00,8.16946e-01,9.99999e-01,8.29683e-01,9.86609e-01,9.98010e-01
1.210391043e+00,8.23902e-01,9.99999e-01,8.35907e-01,9.86871e-01,9.98748e-01
1.216442998e+00,8.47182e-01,9.99999e-01,8.58886e-01,9.87129e-01,9.99233e-01
1.222525213e+00,8.76200e-01,9.99999e-01,8.87819e-01,9.87382e-01,9.99523e-01
1.228637839e+00,9.08975e-01,9.99999e-01,9.20564e-01,9.87629e-01,9.99778e-01
1.234781029e+00,9.29016e-01,9.99999e-01,9.40480e-01,9.87872e-01,9.99936e-01
1.240954934e+00,9.50434e-01,9.99999e-01,9.61887e-01,9.88110e-01,9.99981e-01
1.247159708e+00,9.58887e-01,9.99999e-01,9.70206e-01,9.88344e-01,9.99988e-01
1.253395507e+00,9.62323e-01,9.99999e-01,9.73460e-01,9.88573e-01,9.99984e-01
1.259662485e+00,9.63768e-01,9.99999e-01,9.74709e-01,9.88797e-01,9.99975e-01
1.265960797e+00,9.49440e-01,9.99999e-01,9.60020e-01,9.89017e-01,9.99960e-01
1.272290601e+00,9.27597e-01,9.99999e-01,9.37758e-01,9.89233e-01,9.99929e-01
1.278652054e+00,8.71279e-01,9.99999e-01,8.80682e-01,9.89444e-01,9.99876e-01
1.285045314e+00,7.86807e-01,9.99999e-01,7.95217e-01,9.89652e-01,9.99768e-01
1.291470541e+00,6.64545e-01,9.99999e-01,6.71627e-01,9.89855e-01,9.99594e-01
1.297927893e+00,5.64692e-01,9.99999e-01,5.70795e-01,9.90054e-01,9.99243e-01
1.304417533e+00,5.14741e-01,9.99999e-01,5.20641e-01,9.90250e-01,9.98399e-01
1.310939621e+00,4.33512e-01,9.99999e-01,4.39137e-01,9.90442e-01,9.96716e-01
1.317494319e+00,4.40606e-01,9.99999e-01,4.47487e-01,9.90629e-01,9.93935e-01
1.324081790e+00,3.03823e-01,9.99999e-01,3.09700e-01,9.90814e-01,9.90117e-01
1.330702199e+00,4.87179e-02,9.99999e-01,5.00097e-02,9.90994e-01,9.83020e-01
1.337355710e+00,5.13474e-05,9.99999e-01,5.35418e-05,9.91171e-01,9.67557e-01
1.344042489e+00,2.22224e-07,9.99999e-01,2.47575e-07,9.91345e-01,9.05437e-01
1.350762701e+00,4.18442e-23,9.99999e-01,5.92983e-23,9.91515e-01,7.11694e-01
1.357516515e+00,7.01278e-35,9.99999e-01,1.91869e-34,9.91682e-01,3.68564e-01
1.364304097e+00,1.07926e-21,9.99999e-01,6.25750e-21,9.91846e-01,1.73892e-01
1.371125618e+00,2.38028e-13,9.99999e-01,1.24847e-12,9.92006e-01,1.92192e-01
1.377981246e+00,9.01288e-13,9.99999e-01,3.73470e-12,9.92163e-01,2.43234e-01
1.384871152e+00,6.40411e-18,9.99999e-01,2.40948e-17,9.92317e-01,2.67845e-01
1.391795508e+00,8.27817e-22,9.99999e-01,2.92798e-21,9.92469e-01,2.84872e-01
1.398754485e+00,9.67751e-17,9.99999e-01,2.75083e-16,9.92617e-01,3.54420e-01
1.405748258e+00,1.54576e-16,9.99999e-01,2.85526e-16,9.92762e-01,5.45319e-01
1.412776999e+00,5.47061e-16,9.99999e-01,7.26717e-16,9.92905e-01,7.58162e-01
1.419840884e+00,9.47168e-16,9.99998e-01,1.07691e-15,9.93044e-01,8.85685e-01
1.426940089e+00,1.43384e-10,9.99998e-01,1.58316e-10,9.93181e-01,9.11899e-01
1.434074789e+00,2.56529e-09,9.99998e-01,2.87948e-09,9.93315e-01,8.96883e-01
1.441245163e+00,9.23221e-08,9.99999e-01,1.04557e-07,9.93447e-01,8.88804e-01
1.448451389e+00,2.11256e-05,9.99998e-01,2.35740e-05,9.93576e-01,9.01934e-01
1.455693646e+00,6.62954e-04,9.99998e-01,7.22945e-04,9.93702e-01,9.22829e-01
1.462972114e+00,9.29729e-04,9.99999e-01,1.00997e-03,9.93826e-01,9.26265e-01
1.470286975e+00,3.67158e-04,9.99999e-01,3.98279e-04,9.93948e-01,9.27474e-01
