#,Wave/freq,Total,N2,H2O,Rayleigh,CIA
4.000000000e-01,1.61535e-03,9.99999e-01,9.99276e-01,1.61652e-03,9.99999e-01
4.020000000e-01,1.83476e-03,9.99999e-01,9.99553e-01,1.83558e-03,9.99999e-01
4.040100000e-01,2.07845e-03,9.99999e-01,9.99810e-01,2.07884e-03,9.99999e-01
4.060300500e-01,2.34846e-03,9.99999e-01,9.99956e-01,2.34856e-03,9.99999e-01
4.080602003e-01,2.64684e-03,9.99999e-01,9.99985e-01,2.64688e-03,9.99999e-01
4.101005013e-01,2.97605e-03,9.99999e-01,9.99998e-01,2.97606e-03,9.99999e-01
4.121510038e-01,3.33835e-03,9.99999e-01,9.99972e-01,3.33844e-03,9.99999e-01
4.142117588e-01,3.73569e-03,9.99999e-01,9.99796e-01,3.73645e-03,9.99999e-01
4.162828176e-01,4.16888e-03,9.99999e-01,9.99103e-01,4.17262e-03,9.99999e-01
4.183642317e-01,4.64709e-03,9.99999e-01,9.99466e-01,4.64956e-03,9.99999e-01
4.204560528e-01,5.16827e-03,9.99999e-01,9.99674e-01,5.16995e-03,9.99999e-01
4.225583331e-01,5.73586e-03,9.99999e-01,9.99879e-01,5.73655e-03,9.99999e-01
4.246711247e-01,6.35156e-03,9.99999e-01,9.99900e-01,6.35218e-03,9.99999e-01
4.267944804e-01,7.01873e-03,9.99999e-01,9.99856e-01,7.01973e-03,9.99999e-01
4.289284528e-01,7.74128e-03,9.99999e-01,9.99888e-01,7.74214e-03,9.99999e-01
4.310730950e-01,8.52199e-03,9.99999e-01,9.99953e-01,8.52239e-03,9.99999e-01
4.332284605e-01,9.36338e-03,9.99999e-01,9.99987e-01,9.36349e-03,9.99999e-01
4.353946028e-01,1.02684e-02,9.99999e-01,9.99994e-01,1.02685e-02,9.99999e-01
4.375715758e-01,1.12395e-02,9.99999e-01,9.99908e-01,1.12405e-02,9.99999e-01
4.397594337e-01,1.22727e-02,9.99999e-01,9.99200e-01,1.22825e-02,9.99999e-01
4.419582309e-01,1.33432e-02,9.99999e-01,9.95934e-01,1.33976e-02,9.99999e-01
4.441680220e-01,1.45438e-02,9.99999e-01,9.96902e-01,1.45889e-02,9.99999e-01
4.463888621e-01,1.58080e-02,9.99999e-01,9.96751e-01,1.58595e-02,9.99999e-01
4.486208064e-01,1.71778e-02,9.99999e-01,9.97996e-01,1.72122e-02,9.99999e-01
4.508639105e-01,1.86327e-02,9.99999e-01,9.99061e-01,1.86502e-02,9.99999e-01
4.531182300e-01,2.01689e-02,9.99999e-01,9.99630e-01,2.01763e-02,9.99999e-01
4.553838212e-01,2.17879e-02,9.99999e-01,9.99746e-01,2.17934e-02,9.99999e-01
4.576607403e-01,2.35016e-02,9.99999e-01,9.99883e-01,2.35043e-02,9.99999e-01
4.599490440e-01,2.53097e-02,9.99999e-01,9.99917e-01,2.53117e-02,9.99999e-01
4.622487892e-01,2.72179e-02,9.99999e-01,9.99985e-01,2.72183e-02,9.99999e-01
4.645600332e-01,2.92247e-02,9.99999e-01,9.99941e-01,2.92264e-02,9.99999e-01
4.668828333e-01,3.13085e-02,9.99999e-01,9.99036e-01,3.13387e-02,9.99999e-01
4.692172475e-01,3.34889e-02,9.99999e-01,9.97962e-01,3.35573e-02,9.99999e-01
4.715633337e-01,3.58365e-02,9.99999e-01,9.98664e-01,3.58844e-02,9.99999e-01
4.739211504e-01,3.82735e-02,9.99999e-01,9.98729e-01,3.83222e-02,9.99999e-01
4.762907561e-01,4.08456e-02,9.99999e-01,9.99343e-01,4.08724e-02,9.99999e-01
4.786722099e-01,4.35253e-02,9.99999e-01,9.99731e-01,4.35370e-02,9.99999e-01
4.810655710e-01,4.63136e-02,9.99999e-01,9.99918e-01,4.63174e-02,9.99999e-01
4.834708988e-01,4.91757e-02,9.99999e-01,9.99196e-01,4.92152e-02,9.99999e-01
4.858882533e-01,5.21565e-02,9.99999e-01,9.98561e-01,5.22316e-02,9.99999e-01
4.883176946e-01,5.53006e-02,9.99999e-01,9.98786e-01,5.53678e-02,9.99999e-01
4.907592831e-01,5.85610e-02,9.99999e-01,9.98911e-01,5.86247e-02,9.99999e-01
4.932130795e-01,6.19554e-02,9.99999e-01,9.99227e-01,6.20032e-02,9.99999e-01
4.956791449e-01,6.54772e-02,9.99999e-01,9.99591e-01,6.55039e-02,9.99999e-01
4.981575406e-01,6.89850e-02,9.99999e-01,9.97942e-01,6.91272e-02,9.99999e-01
5.006483283e-01,7.24801e-02,9.99999e-01,9.94638e-01,7.28733e-02,9.99963e-01
5.031515699e-01,7.46854e-02,9.99999e-01,9.73469e-01,7.67425e-02,9.99718e-01
5.056673278e-01,7.95718e-02,9.99999e-01,9.85916e-01,8.07345e-02,9.99677e-01
5.081956644e-01,8.33276e-02,9.99999e-01,9.82260e-01,8.48491e-02,9.99803e-01
5.107366428e-01,8.80152e-02,9.99999e-01,9.88013e-01,8.90859e-02,9.99966e-01
5.132903260e-01,9.28038e-02,9.99999e-01,9.93149e-01,9.34443e-02,9.99995e-01
5.158567776e-01,9.76404e-02,9.99999e-01,9.97107e-01,9.79235e-02,9.99999e-01
5.184360615e-01,1.02404e-01,9.99999e-01,9.98841e-01,1.02523e-01,9.99999e-01
5.210282418e-01,1.07194e-01,9.99999e-01,9.99563e-01,1.07240e-01,9.99999e-01
5.236333830e-01,1.11878e-01,9.99999e-01,9.98244e-01,1.12076e-01,9.99987e-01
5.262515499e-01,1.16896e-01,9.99999e-01,9.98901e-01,1.17027e-01,9.99982e-01
5.288828077e-01,1.21967e-01,9.99999e-01,9.98985e-01,1.22093e-01,9.99988e-01
5.315272217e-01,1.27159e-01,9.99999e-01,9.99120e-01,1.27271e-01,9.99996e-01
5.341848578e-01,1.32483e-01,9.99999e-01,9.99416e-01,1.32560e-01,9.99998e-01
5.368557821e-01,1.37674e-01,9.99999e-01,9.97943e-01,1.37958e-01,9.99994e-01
5.395400610e-01,1.42384e-01,9.99999e-01,9.92544e-01,1.43463e-01,9.99929e-01
5.422377613e-01,1.47636e-01,9.99999e-01,9.90535e-01,1.49072e-01,9.99825e-01
5.449489501e-01,1.53381e-01,9.99999e-01,9.91115e-01,1.54783e-01,9.99821e-01
5.476736949e-01,1.59330e-01,9.99999e-01,9.92214e-01,1.60594e-01,9.99912e-01
5.504120634e-01,1.65555e-01,9.99999e-01,9.94342e-01,1.66501e-01,9.99975e-01
5.531641237e-01,1.72012e-01,9.99999e-01,9.97153e-01,1.72503e-01,9.99996e-01
5.559299443e-01,1.78351e-01,9.99999e-01,9.98628e-01,1.78596e-01,9.99999e-01
5.587095940e-01,1.84617e-01,9.99999e-01,9.99133e-01,1.84777e-01,9.99999e-01
5.615031420e-01,1.90860e-01,9.99999e-01,9.99034e-01,1.91044e-01,9.99997e-01
5.643106577e-01,1.97173e-01,9.99999e-01,9.98887e-01,1.97394e-01,9.99990e-01
5.671322110e-01,2.01060e-01,9.99999e-01,9.86561e-01,2.03823e-01,9.99882e-01
5.699678720e-01,2.07335e-01,9.99999e-01,9.86126e-01,2.10328e-01,9.99639e-01
5.728177114e-01,2.13655e-01,9.99999e-01,9.85308e-01,2.16906e-01,9.99699e-01
5.756818000e-01,2.20508e-01,9.99999e-01,9.86548e-01,2.23554e-01,9.99825e-01
5.785602090e-01,2.27564e-01,9.99999e-01,9.88307e-01,2.30268e-01,9.99949e-01
5.814530100e-01,2.34247e-01,9.99999e-01,9.88221e-01,2.37045e-01,9.99974e-01
5.843602750e-01,2.40418e-01,9.99999e-01,9.85874e-01,2.43882e-01,9.99921e-01
5.872820764e-01,2.22301e-01,9.99999e-01,8.87212e-01,2.50775e-01,9.99148e-01
5.902184868e-01,2.22116e-01,9.99999e-01,8.63851e-01,2.57721e-01,9.97681e-01
5.931695792e-01,2.38402e-01,9.99999e-01,9.02605e-01,2.64716e-01,9.97769e-01
5.961354271e-01,2.42401e-01,9.99999e-01,8.93120e-01,2.71758e-01,9.98717e-01
5.991161043e-01,2.56588e-01,9.99999e-01,9.20557e-01,2.78842e-01,9.99602e-01
6.021116848e-01,2.72846e-01,9.99999e-01,9.54162e-01,2.85966e-01,9.99955e-01
6.051222432e-01,2.86247e-01,9.99999e-01,9.76537e-01,2.93125e-01,9.99996e-01
6.081478544e-01,2.97254e-01,9.99999e-01,9.89800e-01,3.00317e-01,9.99999e-01
6.111885937e-01,3.06213e-01,9.99999e-01,9.95689e-01,3.07538e-01,9.99999e-01
6.142445367e-01,3.14177e-01,9.99999e-01,9.98068e-01,3.14785e-01,9.99999e-01
6.173157594e-01,3.21711e-01,9.99999e-01,9.98933e-01,3.22055e-01,9.99999e-01
6.204023382e-01,3.29044e-01,9.99999e-01,9.99090e-01,3.29344e-01,9.99998e-01
6.235043498e-01,3.35274e-01,9.99999e-01,9.95926e-01,3.36649e-01,9.99989e-01
6.266218716e-01,3.36699e-01,9.99999e-01,9.79016e-01,3.43967e-01,9.99851e-01
6.297549810e-01,3.48469e-01,9.99999e-01,9.92251e-01,3.51295e-01,9.99702e-01
6.329037559e-01,3.53084e-01,9.99999e-01,9.84771e-01,3.58629e-01,9.99762e-01
6.360682746e-01,3.61142e-01,9.99999e-01,9.86953e-01,3.65967e-01,9.99859e-01
6.392486160e-01,3.66998e-01,9.99999e-01,9.83162e-01,3.73306e-01,9.99937e-01
6.424448591e-01,3.71987e-01,9.99999e-01,9.77366e-01,3.80643e-01,9.99888e-01
6.456570834e-01,3.48945e-01,9.99999e-01,8.99973e-01,3.87975e-01,9.99363e-01
6.488853688e-01,3.65827e-01,9.99999e-01,9.26949e-01,3.95299e-01,9.98372e-01
6.521297956e-01,3.72319e-01,9.99999e-01,9.26000e-01,4.02613e-01,9.98656e-01
6.553904446e-01,3.78685e-01,9.99999e-01,9.24741e-01,4.09914e-01,9.98999e-01
6.586673968e-01,3.90307e-01,9.99999e-01,9.35855e-01,4.17198e-01,9.99665e-01
6.619607338e-01,4.08963e-01,9.99999e-01,9.63548e-01,4.24465e-01,9.99928e-01
6.652705375e-01,4.22169e-01,9.99999e-01,9.77933e-01,4.31711e-01,9.99963e-01
6.685968902e-01,4.34795e-01,9.99999e-01,9.90576e-01,4.38933e-01,9.99993e-01
6.719398746e-01,4.43997e-01,9.99999e-01,9.95216e-01,4.46131e-01,9.99999e-01
6.752995740e-01,4.52153e-01,9.99999e-01,9.97469e-01,4.53300e-01,9.99998e-01
6.786760719e-01,4.58689e-01,9.99999e-01,9.96202e-01,4.60440e-01,9.99994e-01
6.820694522e-01,4.64483e-01,9.99999e-01,9.93476e-01,4.67548e-01,9.99966e-01
6.854797995e-01,4.70631e-01,9.99999e-01,9.91660e-01,4.74622e-01,9.99927e-01
6.889071985e-01,4.71832e-01,9.99999e-01,9.79770e-01,4.81661e-01,9.99819e-01
6.923517345e-01,3.54019e-01,9.99999e-01,7.25608e-01,4.88661e-01,9.98426e-01
6.958134932e-01,4.20118e-01,9.99999e-01,8.50618e-01,4.95622e-01,9.96518e-01
6.992925606e-01,4.26302e-01,9.99999e-01,8.50961e-01,5.02542e-01,9.96862e-01
7.027890234e-01,4.17083e-01,9.99999e-01,8.20710e-01,5.09418e-01,9.97603e-01
7.063029686e-01,4.35960e-01,9.99999e-01,8.45481e-01,5.16251e-01,9.98806e-01
7.098344834e-01,4.44690e-01,9.99999e-01,8.50808e-01,5.23037e-01,9.99293e-01
7.133836558e-01,4.27838e-01,9.99999e-01,8.08716e-01,5.29776e-01,9.98597e-01
7.169505741e-01,1.32114e-01,9.99999e-01,2.49002e-01,5.36466e-01,9.89014e-01
7.205353270e-01,2.54435e-01,9.99999e-01,4.77702e-01,5.43105e-01,9.80698e-01
7.241380036e-01,2.05425e-01,9.99999e-01,3.80051e-01,5.49694e-01,9.83310e-01
7.277586936e-01,2.30764e-01,9.99999e-01,4.20619e-01,5.56230e-01,9.86336e-01
7.313974871e-01,2.15499e-01,9.99999e-01,3.85441e-01,5.62712e-01,9.93577e-01
7.350544745e-01,3.31430e-01,9.99999e-01,5.83641e-01,5.69139e-01,9.97763e-01
7.387297469e-01,3.83378e-01,9.99999e-01,6.66835e-01,5.75511e-01,9.98974e-01
7.424233956e-01,4.76087e-01,9.99999e-01,8.18409e-01,5.81826e-01,9.99821e-01
7.461355126e-01,5.20408e-01,9.99999e-01,8.84949e-01,5.88083e-01,9.99969e-01
7.498661902e-01,5.61430e-01,9.99999e-01,9.44729e-01,5.94283e-01,9.99987e-01
7.536155211e-01,5.83821e-01,9.99999e-01,9.72357e-01,6.00423e-01,9.99992e-01
7.573835987e-01,5.97818e-01,9.99999e-01,9.85680e-01,6.06503e-01,9.99997e-01
7.611705167e-01,6.07057e-01,9.99999e-01,9.91075e-01,6.12524e-01,9.99999e-01
7.649763693e-01,6.15014e-01,9.99999e-01,9.94391e-01,6.18483e-01,9.99999e-01
7.688012511e-01,6.21936e-01,9.99999e-01,9.96085e-01,6.24381e-01,9.99998e-01
7.726452574e-01,6.28182e-01,9.99999e-01,9.96773e-01,6.30217e-01,9.99997e-01
7.765084837e-01,6.33046e-01,9.99999e-01,9.95376e-01,6.35990e-01,9.99994e-01
7.803910261e-01,6.28945e-01,9.99999e-01,9.80139e-01,6.41701e-01,9.99980e-01
7.842929812e-01,6.03709e-01,9.99999e-01,9.32704e-01,6.47349e-01,9.99872e-01
7.882144461e-01,5.65741e-01,9.99999e-01,8.67308e-01,6.52933e-01,9.99021e-01
7.921555184e-01,6.08382e-01,9.99999e-01,9.25528e-01,6.58454e-01,9.98299e-01
7.961162960e-01,5.77412e-01,9.99999e-01,8.71119e-01,6.63911e-01,9.98382e-01
8.000968774e-01,5.69219e-01,9.99999e-01,8.51928e-01,6.69305e-01,9.98278e-01
8.040973618e-01,5.74192e-01,9.99999e-01,8.52234e-01,6.74634e-01,9.98686e-01
8.081178486e-01,4.78664e-01,9.99999e-01,7.04959e-01,6.79899e-01,9.98669e-01
8.121584379e-01,1.80230e-01,9.99999e-01,2.64401e-01,6.85100e-01,9.94970e-01
8.162192301e-01,1.47785e-01,9.99999e-01,2.18206e-01,6.90237e-01,9.81216e-01
8.203003262e-01,3.32002e-01,9.99999e-01,4.88208e-01,6.95310e-01,9.78040e-01
8.244018279e-01,2.83950e-01,9.99999e-01,4.12686e-01,7.00319e-01,9.82484e-01
8.285238370e-01,2.60563e-01,9.99999e-01,3.74617e-01,7.05264e-01,9.86217e-01
8.326664562e-01,2.67059e-01,9.99999e-01,3.78226e-01,7.10145e-01,9.94277e-01
8.368297885e-01,3.43600e-01,9.99999e-01,4.81214e-01,7.14963e-01,9.98689e-01
8.410139374e-01,4.61935e-01,9.99999e-01,6.42320e-01,7.19717e-01,9.99233e-01
8.452190071e-01,5.80790e-01,9.99999e-01,8.02111e-01,7.24408e-01,9.99541e-01
8.494451021e-01,6.40182e-01,9.99999e-01,8.78443e-01,7.29036e-01,9.99632e-01
8.536923276e-01,6.79505e-01,9.99999e-01,9.26466e-01,7.33601e-01,9.99776e-01
8.579607893e-01,7.04006e-01,9.99999e-01,9.53853e-01,7.38104e-01,9.99945e-01
8.622505932e-01,7.20633e-01,9.99999e-01,9.70500e-01,7.42544e-01,9.99990e-01
8.665618462e-01,7.33155e-01,9.99999e-01,9.81571e-01,7.46923e-01,9.99994e-01
8.708946554e-01,7.35355e-01,9.99999e-01,9.78865e-01,7.51240e-01,9.99987e-01
8.752491287e-01,7.34202e-01,9.99999e-01,9.71842e-01,7.55497e-01,9.99969e-01
8.796253743e-01,7.30086e-01,9.99999e-01,9.61112e-01,7.59692e-01,9.99911e-01
8.840235012e-01,7.29883e-01,9.99999e-01,9.55820e-01,7.63828e-01,9.99725e-01
8.884436187e-01,6.54896e-01,9.99999e-01,8.53501e-01,7.67903e-01,9.99220e-01
8.928858368e-01,1.89038e-01,9.99999e-01,2.45997e-01,7.71920e-01,9.95509e-01
8.973502660e-01,6.46289e-02,9.99999e-01,8.52416e-02,7.75877e-01,9.77195e-01
9.018370173e-01,2.17282e-01,9.99999e-01,2.88939e-01,7.79776e-01,9.64379e-01
9.063462024e-01,2.40511e-01,9.99999e-01,3.16860e-01,7.83616e-01,9.68640e-01
9.108779334e-01,1.28064e-01,9.99999e-01,1.68116e-01,7.87400e-01,9.67433e-01
9.154323231e-01,9.32528e-02,9.99999e-01,1.21144e-01,7.91126e-01,9.73005e-01
9.200094847e-01,1.58396e-01,9.99999e-01,2.02366e-01,7.94796e-01,9.84800e-01
9.246095321e-01,8.00083e-02,9.99999e-01,1.01994e-01,7.98410e-01,9.82507e-01
9.292325798e-01,3.55124e-04,9.99999e-01,4.82200e-04,8.01968e-01,9.18321e-01
9.338787427e-01,3.51669e-07,9.99999e-01,5.94082e-07,8.05471e-01,7.34914e-01
9.385481364e-01,1.23048e-03,9.99999e-01,2.13369e-03,8.08921e-01,7.12913e-01
9.432408771e-01,3.55891e-04,9.99999e-01,5.86649e-04,8.12316e-01,7.46814e-01
9.479570815e-01,2.03883e-06,9.99999e-01,3.17001e-06,8.15658e-01,7.88518e-01
9.526968669e-01,2.79006e-05,9.99999e-01,3.93817e-05,8.18947e-01,8.65091e-01
9.574603512e-01,6.78488e-05,9.99999e-01,8.88264e-05,8.22185e-01,9.29030e-01
9.622476530e-01,4.13052e-04,9.99999e-01,5.26577e-04,8.25371e-01,9.50372e-01
9.670588912e-01,9.12009e-03,9.99999e-01,1.13812e-02,8.28505e-01,9.67200e-01
9.718941857e-01,2.49409e-02,9.99999e-01,3.07677e-02,8.31590e-01,9.74781e-01
9.767536566e-01,4.56093e-02,9.99999e-01,5.57271e-02,8.34625e-01,9.80607e-01
9.816374249e-01,8.58678e-02,9.99999e-01,1.03212e-01,8.37610e-01,9.93246e-01
9.865456120e-01,1.92313e-01,9.99999e-01,2.29118e-01,8.40547e-01,9.98589e-01
9.914783401e-01,3.30705e-01,9.99999e-01,3.92246e-01,8.43436e-01,9.99608e-01
9.964357318e-01,5.06740e-01,9.99999e-01,5.98923e-01,8.46277e-01,9.99770e-01
1.001417910e+00,6.22571e-01,9.99999e-01,7.33493e-01,8.49072e-01,9.99650e-01
1.006425000e+00,7.12384e-01,9.99999e-01,8.36724e-01,8.51820e-01,9.99501e-01
1.011457125e+00,7.64922e-01,9.99999e-01,8.95557e-01,8.54523e-01,9.99538e-01
1.016514411e+00,7.94878e-01,9.99999e-01,9.27617e-01,8.57181e-01,9.99673e-01
1.021596983e+00,8.09520e-01,9.99999e-01,9.41828e-01,8.59794e-01,9.99679e-01
1.026704968e+00,8.22765e-01,9.99999e-01,9.54272e-01,8.62363e-01,9.99798e-01
1.031838492e+00,8.35992e-01,9.99999e-01,9.66646e-01,8.64889e-01,9.99939e-01
1.036997685e+00,8.50020e-01,9.99999e-01,9.80002e-01,8.67373e-01,9.99990e-01
1.042182673e+00,8.49022e-01,9.99999e-01,9.76100e-01,8.69814e-01,9.99995e-01
1.047393587e+00,8.44729e-01,9.99999e-01,9.68493e-01,8.72214e-01,9.99993e-01
1.052630555e+00,8.36943e-01,9.99999e-01,9.56984e-01,8.74572e-01,9.99988e-01
1.057893707e+00,8.14839e-01,9.99999e-01,9.29259e-01,8.76890e-01,9.99974e-01
1.063183176e+00,7.79717e-01,9.99999e-01,8.86934e-01,8.79169e-01,9.99936e-01
1.068499092e+00,7.21904e-01,9.99999e-01,8.19146e-01,8.81408e-01,9.99863e-01
1.073841587e+00,7.01691e-01,9.99999e-01,7.94355e-01,8.83608e-01,9.99702e-01
1.079210795e+00,6.57839e-01,9.99999e-01,7.43271e-01,8.85771e-01,9.99195e-01
1.084606849e+00,5.68727e-01,9.99999e-01,6.41776e-01,8.87896e-01,9.98063e-01
1.090029883e+00,4.74918e-01,9.99999e-01,5.35774e-01,8.89983e-01,9.95989e-01
1.095480033e+00,1.68855e-01,9.99999e-01,1.90672e-01,8.92035e-01,9.92757e-01
1.100957433e+00,2.22783e-02,9.99999e-01,2.52539e-02,8.94050e-01,9.86709e-01
1.106462220e+00,4.36837e-04,9.99999e-01,4.98715e-04,8.96030e-01,9.77559e-01
1.111994531e+00,5.62971e-08,9.99999e-01,6.65868e-08,8.97975e-01,9.41526e-01
1.117554504e+00,1.26348e-10,9.99999e-01,1.74525e-10,8.99886e-01,8.04498e-01
1.123142276e+00,3.25407e-07,9.99999e-01,6.04470e-07,9.01763e-01,5.96979e-01
1.128757988e+00,1.73886e-06,9.99999e-01,3.49514e-06,9.03606e-01,5.50580e-01
1.134401778e+00,7.51537e-06,9.99999e-01,1.37874e-05,9.05417e-01,6.02030e-01
1.140073787e+00,1.16270e-04,9.99999e-01,1.92242e-04,9.07196e-01,6.66681e-01
1.145774156e+00,4.83791e-06,9.99999e-01,7.71432e-06,9.08943e-01,6.89958e-01
1.151503026e+00,1.91085e-07,9.99999e-01,2.58024e-07,9.10659e-01,8.13226e-01
1.157260541e+00,5.91945e-08,9.99999e-01,6.90190e-08,9.12344e-01,9.40056e-01
1.163046844e+00,5.09510e-06,9.99999e-01,5.67304e-06,9.13998e-01,9.82632e-01
1.168862078e+00,2.05161e-04,9.99999e-01,2.26121e-04,9.15623e-01,9.90915e-01
1.174706389e+00,3.28851e-03,9.99999e-01,3.63066e-03,9.17219e-01,9.87506e-01
1.180579921e+00,2.50358e-02,9.99999e-01,2.77462e-02,9.18786e-01,9.82071e-01
1.186482820e+00,9.88590e-02,9.99999e-01,1.09431e-01,9.20324e-01,9.81602e-01
1.192415234e+00,2.39291e-01,9.99999e-01,2.63215e-01,9.21835e-01,9.86190e-01
1.198377311e+00,2.97102e-01,9.99999e-01,3.26051e-01,9.23318e-01,9.86890e-01
1.204369197e+00,3.28858e-01,9.99999e-01,3.59719e-01,9.24774e-01,9.88571e-01
1.210391043e+00,3.38646e-01,9.99999e-01,3.68280e-01,9.26204e-01,9.92797e-01
1.216442998e+00,3.95618e-01,9.99999e-01,4.28385e-01,9.27607e-01,9.95582e-01
1.222525213e+00,4.71515e-01,9.99999e-01,5.08956e-01,9.28985e-01,9.97253e-01
1.228637839e+00,5.79060e-01,9.99999e-01,6.23215e-01,9.30338e-01,9.98721e-01
1.234781029e+00,6.56179e-01,9.99999e-01,7.04564e-01,9.31666e-01,9.99634e-01
1.240954934e+00,7.46806e-01,9.99999e-01,8.00542e-01,9.32969e-01,9.99897e-01
1.247159708e+00,7.85133e-01,9.99999e-01,8.40444e-01,9.34249e-01,9.99934e-01
1.253395507e+00,8.01364e-01,9.99999e-01,8.56684e-01,9.35505e-01,9.99914e-01
1.259662485e+00,8.08241e-01,9.99999e-01,8.62942e-01,9.36737e-01,9.99863e-01
1.265960797e+00,7.42547e-01,9.99999e-01,7.91851e-01,9.37947e-01,9.99772e-01
1.272290601e+00,6.51854e-01,9.99999e-01,6.94379e-01,9.39135e-01,9.99597e-01
1.278652054e+00,4.66798e-01,9.99999e-01,4.96788e-01,9.40300e-01,9.99287e-01
1.285045314e+00,2.78493e-01,9.99999e-01,2.96208e-01,9.41444e-01,9.98668e-01
1.291470541e+00,1.17578e-01,9.99999e-01,1.25034e-01,9.42567e-01,9.97664e-01
1.297927893e+00,6.04714e-02,9.99999e-01,6.43613e-02,9.43669e-01,9.95644e-01
1.304417533e+00,3.54726e-02,9.99999e-01,3.78959e-02,9.44750e-01,9.90795e-01
1.310939621e+00,1.74499e-02,9.99999e-01,1.88033e-02,9.45811e-01,9.81192e-01
1.317494319e+00,1.87489e-02,9.99999e-01,2.05090e-02,9.46853e-01,9.65487e-01
1.324081790e+00,3.68439e-03,9.99999e-01,4.11642e-03,9.47875e-01,9.44267e-01
1.330702199e+00,4.63801e-05,9.99999e-01,5.39591e-05,9.48878e-01,9.05849e-01
1.337355710e+00,2.61731e-21,9.99999e-01,3.33348e-21,9.49862e-01,8.26601e-01
1.344042489e+00,2.03009e-53,9.99999e-01,3.78896e-53,9.50827e-01,5.63499e-01
1.350762701e+00,7.42364e-123,9.99999e-01,5.55857e-122,9.51775e-01,1.40320e-01
1.357516515e+00,5.51552e-191,9.99999e-01,1.84354e-188,9.52704e-01,3.14032e-03
1.364304097e+00,6.50296e-115,9.99999e-01,1.66143e-110,9.53616e-01,4.10445e-05
1.371125618e+00,1.76818e-66,9.99999e-01,2.53261e-62,9.54511e-01,7.31434e-05
1.377981246e+00,1.98813e-64,9.99999e-01,7.30237e-61,9.55390e-01,2.84971e-04
1.384871152e+00,7.08696e-93,9.99999e-01,1.49067e-89,9.56251e-01,4.97172e-04
1.391795508e+00,1.00916e-115,9.99999e-01,1.48576e-112,9.57097e-01,7.09669e-04
1.398754485e+00,3.95019e-86,9.99999e-01,1.64604e-83,9.57926e-01,2.50522e-03
1.405748258e+00,4.75905e-85,9.99998e-01,1.64604e-83,9.58740e-01,3.01564e-02
1.412776999e+00,1.18812e-81,9.99996e-01,6.12448e-81,9.59538e-01,2.02176e-01
1.419840884e+00,9.81314e-81,9.99994e-01,2.05972e-80,9.60321e-01,4.96116e-01
1.426940089e+00,2.61083e-50,9.99993e-01,4.62686e-50,9.61089e-01,5.87121e-01
1.434074789e+00,7.41441e-45,9.99994e-01,1.44504e-44,9.61843e-01,5.33448e-01
1.441245163e+00,2.91878e-36,9.99997e-01,5.98914e-36,9.62582e-01,5.06289e-01
1.448451389e+00,4.59194e-22,9.99991e-01,8.65082e-22,9.63308e-01,5.51028e-01
1.455693646e+00,5.97989e-15,9.99996e-01,9.86284e-15,9.64019e-01,6.28934e-01
1.462972114e+00,6.23960e-15,9.99997e-01,1.00654e-14,9.64717e-01,6.42577e-01
1.470286975e+00,5.84731e-16,9.99997e-01,9.35515e-16,9.65402e-01,6.47435e-01
