#,Wave/freq,Total,N2,H2O,Rayleigh,CIA
4.000000000e-01,9.05455e-01,9.99999e-01,9.99988e-01,9.05465e-01,9.99999e-01
4.020000000e-01,9.07239e-01,9.99999e-01,9.99992e-01,9.07245e-01,9.99999e-01
4.040100000e-01,9.08988e-01,9.99999e-01,9.99996e-01,9.08991e-01,9.99999e-01
4.060300500e-01,9.10705e-01,9.99999e-01,9.99998e-01,9.10706e-01,9.99999e-01
4.080602003e-01,9.12390e-01,9.99999e-01,9.99999e-01,9.12390e-01,9.99999e-01
4.101005013e-01,9.14044e-01,9.99999e-01,9.99999e-01,9.14044e-01,9.99999e-01
4.121510038e-01,9.15667e-01,9.99999e-01,9.99999e-01,9.15668e-01,9.99999e-01
4.142117588e-01,9.17260e-01,9.99999e-01,9.99996e-01,9.17263e-01,9.99999e-01
4.162828176e-01,9.18816e-01,9.99999e-01,9.99985e-01,9.18829e-01,9.99999e-01
4.183642317e-01,9.20359e-01,9.99999e-01,9.99991e-01,9.20366e-01,9.99999e-01
4.204560528e-01,9.21872e-01,9.99999e-01,9.99994e-01,9.21876e-01,9.99999e-01
4.225583331e-01,9.23357e-01,9.99999e-01,9.99997e-01,9.23359e-01,9.99999e-01
4.246711247e-01,9.24813e-01,9.99999e-01,9.99997e-01,9.24814e-01,9.99999e-01
4.267944804e-01,9.26241e-01,9.99999e-01,9.99997e-01,9.26243e-01,9.99999e-01
4.289284528e-01,9.27644e-01,9.99999e-01,9.99997e-01,9.27646e-01,9.99999e-01
4.310730950e-01,9.29022e-01,9.99999e-01,9.99998e-01,9.29023e-01,9.99999e-01
4.332284605e-01,9.30375e-01,9.99999e-01,9.99999e-01,9.30375e-01,9.99999e-01
4.353946028e-01,9.31702e-01,9.99999e-01,9.99999e-01,9.31702e-01,9.99999e-01
4.375715758e-01,9.33004e-01,9.99999e-01,9.99998e-01,9.33005e-01,9.99999e-01
4.397594337e-01,9.34272e-01,9.99999e-01,9.99987e-01,9.34284e-01,9.99999e-01
4.419582309e-01,9.35481e-01,9.99999e-01,9.99937e-01,9.35539e-01,9.99999e-01
4.441680220e-01,9.36726e-01,9.99999e-01,9.99951e-01,9.36771e-01,9.99999e-01
4.463888621e-01,9.37933e-01,9.99999e-01,9.99949e-01,9.37980e-01,9.99999e-01
4.486208064e-01,9.39138e-01,9.99999e-01,9.99968e-01,9.39167e-01,9.99999e-01
4.508639105e-01,9.40319e-01,9.99999e-01,9.99984e-01,9.40332e-01,9.99999e-01
4.531182300e-01,9.41470e-01,9.99999e-01,9.99993e-01,9.41476e-01,9.99999e-01
4.553838212e-01,9.42594e-01,9.99999e-01,9.99995e-01,9.42598e-01,9.99999e-01
4.576607403e-01,9.43698e-01,9.99999e-01,9.99997e-01,9.43699e-01,9.99999e-01
4.599490440e-01,9.44779e-01,9.99999e-01,9.99998e-01,9.44780e-01,9.99999e-01
4.622487892e-01,9.45840e-01,9.99999e-01,9.99999e-01,9.45841e-01,9.99999e-01
4.645600332e-01,9.46881e-01,9.99999e-01,9.99998e-01,9.46881e-01,9.99999e-01
4.668828333e-01,9.47889e-01,9.99999e-01,9.99984e-01,9.47903e-01,9.99999e-01
4.692172475e-01,9.48875e-01,9.99999e-01,9.99967e-01,9.48905e-01,9.99999e-01
4.715633337e-01,9.49869e-01,9.99999e-01,9.99978e-01,9.49889e-01,9.99999e-01
4.739211504e-01,9.50835e-01,9.99999e-01,9.99979e-01,9.50854e-01,9.99999e-01
4.762907561e-01,9.51791e-01,9.99999e-01,9.99989e-01,9.51801e-01,9.99999e-01
4.786722099e-01,9.52726e-01,9.99999e-01,9.99995e-01,9.52730e-01,9.99999e-01
4.810655710e-01,9.53640e-01,9.99999e-01,9.99998e-01,9.53641e-01,9.99999e-01
4.834708988e-01,9.54524e-01,9.99999e-01,9.99987e-01,9.54536e-01,9.99999e-01
4.858882533e-01,9.55392e-01,9.99999e-01,9.99977e-01,9.55414e-01,9.99999e-01
4.883176946e-01,9.56257e-01,9.99999e-01,9.99980e-01,9.56275e-01,9.99999e-01
4.907592831e-01,9.57104e-01,9.99999e-01,9.99982e-01,9.57120e-01,9.99999e-01
4.932130795e-01,9.57937e-01,9.99999e-01,9.99987e-01,9.57949e-01,9.99999e-01
4.956791449e-01,9.58756e-01,9.99999e-01,9.99993e-01,9.58762e-01,9.99999e-01
4.981575406e-01,9.59529e-01,9.99999e-01,9.99967e-01,9.59560e-01,9.99999e-01
5.006483283e-01,9.60263e-01,9.99999e-01,9.99917e-01,9.60342e-01,9.99998e-01
5.031515699e-01,9.60705e-01,9.99999e-01,9.99582e-01,9.61110e-01,9.99995e-01
5.056673278e-01,9.61647e-01,9.99999e-01,9.99779e-01,9.61864e-01,9.99994e-01
5.081956644e-01,9.62333e-01,9.99999e-01,9.99722e-01,9.62603e-01,9.99996e-01
5.107366428e-01,9.63147e-01,9.99999e-01,9.99812e-01,9.63328e-01,9.99998e-01
5.132903260e-01,9.63936e-01,9.99999e-01,9.99892e-01,9.64039e-01,9.99999e-01
5.158567776e-01,9.64693e-01,9.99999e-01,9.99954e-01,9.64736e-01,9.99999e-01
5.184360615e-01,9.65403e-01,9.99999e-01,9.99981e-01,9.65421e-01,9.99999e-01
5.210282418e-01,9.66085e-01,9.99999e-01,9.99992e-01,9.66092e-01,9.99999e-01
5.236333830e-01,9.66724e-01,9.99999e-01,9.99972e-01,9.66750e-01,9.99999e-01
5.262515499e-01,9.67380e-01,9.99999e-01,9.99982e-01,9.67396e-01,9.99999e-01
5.288828077e-01,9.68015e-01,9.99999e-01,9.99983e-01,9.68030e-01,9.99999e-01
5.315272217e-01,9.68638e-01,9.99999e-01,9.99985e-01,9.68651e-01,9.99999e-01
5.341848578e-01,9.69252e-01,9.99999e-01,9.99990e-01,9.69261e-01,9.99999e-01
5.368557821e-01,9.69828e-01,9.99999e-01,9.99967e-01,9.69859e-01,9.99999e-01
5.395400610e-01,9.70333e-01,9.99999e-01,9.99885e-01,9.70445e-01,9.99998e-01
5.422377613e-01,9.70875e-01,9.99999e-01,9.99852e-01,9.71021e-01,9.99996e-01
5.449489501e-01,9.71449e-01,9.99999e-01,9.99862e-01,9.71585e-01,9.99996e-01
5.476736949e-01,9.72019e-01,9.99999e-01,9.99878e-01,9.72138e-01,9.99998e-01
5.504120634e-01,9.72595e-01,9.99999e-01,9.99911e-01,9.72681e-01,9.99999e-01
5.531641237e-01,9.73170e-01,9.99999e-01,9.99955e-01,9.73213e-01,9.99999e-01
5.559299443e-01,9.73714e-01,9.99999e-01,9.99978e-01,9.73735e-01,9.99999e-01
5.587095940e-01,9.74234e-01,9.99999e-01,9.99986e-01,9.74247e-01,9.99999e-01
5.615031420e-01,9.74735e-01,9.99999e-01,9.99984e-01,9.74749e-01,9.99999e-01
5.643106577e-01,9.75225e-01,9.99999e-01,9.99982e-01,9.75242e-01,9.99999e-01
5.671322110e-01,9.75521e-01,9.99999e-01,9.99792e-01,9.75725e-01,9.99997e-01
5.699678720e-01,9.75980e-01,9.99999e-01,9.99780e-01,9.76199e-01,9.99993e-01
5.728177114e-01,9.76436e-01,9.99999e-01,9.99771e-01,9.76663e-01,9.99994e-01
5.756818000e-01,9.76912e-01,9.99999e-01,9.99790e-01,9.77119e-01,9.99996e-01
5.785602090e-01,9.77387e-01,9.99999e-01,9.99817e-01,9.77566e-01,9.99998e-01
5.814530100e-01,9.77824e-01,9.99999e-01,9.99816e-01,9.78004e-01,9.99999e-01
5.843602750e-01,9.78218e-01,9.99999e-01,9.99780e-01,9.78434e-01,9.99998e-01
5.872820764e-01,9.76994e-01,9.99999e-01,9.98111e-01,9.78855e-01,9.99986e-01
5.902184868e-01,9.76999e-01,9.99999e-01,9.97717e-01,9.79268e-01,9.99963e-01
5.931695792e-01,9.78059e-01,9.99999e-01,9.98386e-01,9.79674e-01,9.99964e-01
5.961354271e-01,9.78319e-01,9.99999e-01,9.98232e-01,9.80071e-01,9.99979e-01
5.991161043e-01,9.79192e-01,9.99999e-01,9.98711e-01,9.80461e-01,9.99993e-01
6.021116848e-01,9.80126e-01,9.99999e-01,9.99268e-01,9.80843e-01,9.99998e-01
6.051222432e-01,9.80855e-01,9.99999e-01,9.99629e-01,9.81218e-01,9.99999e-01
6.081478544e-01,9.81429e-01,9.99999e-01,9.99840e-01,9.81585e-01,9.99999e-01
6.111885937e-01,9.81880e-01,9.99999e-01,9.99932e-01,9.81946e-01,9.99999e-01
6.142445367e-01,9.82270e-01,9.99999e-01,9.99969e-01,9.82299e-01,9.99999e-01
6.173157594e-01,9.82630e-01,9.99999e-01,9.99982e-01,9.82646e-01,9.99999e-01
6.204023382e-01,9.82972e-01,9.99999e-01,9.99985e-01,9.82986e-01,9.99999e-01
6.235043498e-01,9.83258e-01,9.99999e-01,9.99937e-01,9.83319e-01,9.99999e-01
6.266218716e-01,9.83320e-01,9.99999e-01,9.99671e-01,9.83646e-01,9.99997e-01
6.297549810e-01,9.83843e-01,9.99999e-01,9.99879e-01,9.83966e-01,9.99994e-01
6.329037559e-01,9.84043e-01,9.99999e-01,9.99761e-01,9.84280e-01,9.99995e-01
6.360682746e-01,9.84387e-01,9.99999e-01,9.99796e-01,9.84588e-01,9.99997e-01
6.392486160e-01,9.84631e-01,9.99999e-01,9.99736e-01,9.84890e-01,9.99998e-01
6.424448591e-01,9.84838e-01,9.99999e-01,9.99647e-01,9.85187e-01,9.99997e-01
6.456570834e-01,9.83857e-01,9.99999e-01,9.98364e-01,9.85477e-01,9.99990e-01
6.488853688e-01,9.84560e-01,9.99999e-01,9.98805e-01,9.85762e-01,9.99974e-01
6.521297956e-01,9.84820e-01,9.99999e-01,9.98781e-01,9.86041e-01,9.99978e-01
6.553904446e-01,9.85103e-01,9.99999e-01,9.98786e-01,9.86315e-01,9.99983e-01
6.586673968e-01,9.85554e-01,9.99999e-01,9.98961e-01,9.86583e-01,9.99994e-01
6.619607338e-01,9.86275e-01,9.99999e-01,9.99421e-01,9.86847e-01,9.99998e-01
6.652705375e-01,9.86762e-01,9.99999e-01,9.99652e-01,9.87105e-01,9.99998e-01
6.685968902e-01,9.87199e-01,9.99999e-01,9.99838e-01,9.87358e-01,9.99999e-01
6.719398746e-01,9.87532e-01,9.99999e-01,9.99924e-01,9.87606e-01,9.99999e-01
6.752995740e-01,9.87809e-01,9.99999e-01,9.99959e-01,9.87849e-01,9.99999e-01
6.786760719e-01,9.88030e-01,9.99999e-01,9.99940e-01,9.88088e-01,9.99999e-01
6.820694522e-01,9.88222e-01,9.99999e-01,9.99899e-01,9.88322e-01,9.99998e-01
6.854797995e-01,9.88422e-01,9.99999e-01,9.99870e-01,9.88551e-01,9.99998e-01
6.889071985e-01,9.88463e-01,9.99999e-01,9.99685e-01,9.88776e-01,9.99996e-01
6.923517345e-01,9.83915e-01,9.99999e-01,9.94885e-01,9.88996e-01,9.99975e-01
6.958134932e-01,9.86539e-01,9.99999e-01,9.97350e-01,9.89213e-01,9.99945e-01
6.992925606e-01,9.86876e-01,9.99999e-01,9.97472e-01,9.89424e-01,9.99950e-01
7.027890234e-01,9.86513e-01,9.99999e-01,9.96885e-01,9.89632e-01,9.99962e-01
7.063029686e-01,9.87226e-01,9.99999e-01,9.97380e-01,9.89836e-01,9.99980e-01
7.098344834e-01,9.87538e-01,9.99999e-01,9.97487e-01,9.90036e-01,9.99988e-01
7.133836558e-01,9.86884e-01,9.99999e-01,9.96640e-01,9.90232e-01,9.99977e-01
7.169505741e-01,9.63719e-01,9.99999e-01,9.73203e-01,9.90424e-01,9.99828e-01
7.205353270e-01,9.77310e-01,9.99999e-01,9.86870e-01,9.90612e-01,9.99696e-01
7.241380036e-01,9.73997e-01,9.99999e-01,9.83301e-01,9.90796e-01,9.99738e-01
7.277586936e-01,9.75827e-01,9.99999e-01,9.84921e-01,9.90977e-01,9.99785e-01
7.313974871e-01,9.75212e-01,9.99999e-01,9.84012e-01,9.91155e-01,9.99899e-01
7.350544745e-01,9.82612e-01,9.99999e-01,9.91241e-01,9.91329e-01,9.99964e-01
7.387297469e-01,9.85092e-01,9.99999e-01,9.93553e-01,9.91499e-01,9.99983e-01
7.424233956e-01,9.88535e-01,9.99999e-01,9.96844e-01,9.91666e-01,9.99996e-01
7.461355126e-01,9.89932e-01,9.99999e-01,9.98086e-01,9.91830e-01,9.99998e-01
7.498661902e-01,9.91108e-01,9.99999e-01,9.99109e-01,9.91991e-01,9.99999e-01
7.536155211e-01,9.91715e-01,9.99999e-01,9.99562e-01,9.92149e-01,9.99999e-01
7.573835987e-01,9.92080e-01,9.99999e-01,9.99774e-01,9.92303e-01,9.99999e-01
7.611705167e-01,9.92316e-01,9.99999e-01,9.99859e-01,9.92454e-01,9.99999e-01
7.649763693e-01,9.92516e-01,9.99999e-01,9.99911e-01,9.92603e-01,9.99999e-01
7.688012511e-01,9.92688e-01,9.99999e-01,9.99938e-01,9.92748e-01,9.99999e-01
7.726452574e-01,9.92841e-01,9.99999e-01,9.99949e-01,9.92891e-01,9.99999e-01
7.765084837e-01,9.92960e-01,9.99999e-01,9.99928e-01,9.93031e-01,9.99999e-01
7.803910261e-01,9.92861e-01,9.99999e-01,9.99690e-01,9.93168e-01,9.99999e-01
7.842929812e-01,9.92229e-01,9.99999e-01,9.98920e-01,9.93303e-01,9.99997e-01
7.882144461e-01,9.91216e-01,9.99999e-01,9.97781e-01,9.93435e-01,9.99984e-01
7.921555184e-01,9.92330e-01,9.99999e-01,9.98784e-01,9.93564e-01,9.99973e-01
7.961162960e-01,9.91526e-01,9.99999e-01,9.97846e-01,9.93691e-01,9.99974e-01
8.000968774e-01,9.91320e-01,9.99999e-01,9.97516e-01,9.93815e-01,9.99972e-01
8.040973618e-01,9.91446e-01,9.99999e-01,9.97514e-01,9.93937e-01,9.99978e-01
8.081178486e-01,9.88461e-01,9.99999e-01,9.94390e-01,9.94056e-01,9.99979e-01
8.121584379e-01,9.71007e-01,9.99999e-01,9.76774e-01,9.94173e-01,9.99921e-01
8.162192301e-01,9.66683e-01,9.99999e-01,9.72522e-01,9.94288e-01,9.99705e-01
8.203003262e-01,9.80238e-01,9.99999e-01,9.86097e-01,9.94400e-01,9.99654e-01
8.244018279e-01,9.75033e-01,9.99999e-01,9.80683e-01,9.94511e-01,9.99725e-01
8.285238370e-01,9.78016e-01,9.99999e-01,9.83518e-01,9.94619e-01,9.99784e-01
8.326664562e-01,9.78073e-01,9.99999e-01,9.83347e-01,9.94725e-01,9.99910e-01
8.368297885e-01,9.82974e-01,9.99999e-01,9.88103e-01,9.94829e-01,9.99979e-01
8.410139374e-01,9.87876e-01,9.99999e-01,9.92921e-01,9.94930e-01,9.99987e-01
8.452190071e-01,9.91567e-01,9.99999e-01,9.96525e-01,9.95030e-01,9.99992e-01
8.494451021e-01,9.93115e-01,9.99999e-01,9.97982e-01,9.95128e-01,9.99993e-01
8.536923276e-01,9.94034e-01,9.99999e-01,9.98807e-01,9.95224e-01,9.99996e-01
8.579607893e-01,9.94586e-01,9.99999e-01,9.99264e-01,9.95318e-01,9.99998e-01
8.622505932e-01,9.94946e-01,9.99999e-01,9.99533e-01,9.95410e-01,9.99999e-01
8.665618462e-01,9.95213e-01,9.99999e-01,9.99710e-01,9.95501e-01,9.99999e-01
8.708946554e-01,9.95260e-01,9.99999e-01,9.99668e-01,9.95590e-01,9.99999e-01
8.752491287e-01,9.95236e-01,9.99999e-01,9.99557e-01,9.95676e-01,9.99999e-01
8.796253743e-01,9.95150e-01,9.99999e-01,9.99386e-01,9.95762e-01,9.99998e-01
8.840235012e-01,9.95144e-01,9.99999e-01,9.99299e-01,9.95845e-01,9.99995e-01
8.884436187e-01,9.93359e-01,9.99999e-01,9.97432e-01,9.95927e-01,9.99987e-01
8.928858368e-01,9.69289e-01,9.99999e-01,9.73241e-01,9.96007e-01,9.99929e-01
8.973502660e-01,9.49098e-01,9.99999e-01,9.53168e-01,9.96086e-01,9.99641e-01
9.018370173e-01,9.71560e-01,9.99999e-01,9.75850e-01,9.96163e-01,9.99436e-01
9.063462024e-01,9.74506e-01,9.99999e-01,9.78668e-01,9.96239e-01,9.99504e-01
9.108779334e-01,9.62898e-01,9.99999e-01,9.66958e-01,9.96313e-01,9.99485e-01
9.154323231e-01,9.58713e-01,9.99999e-01,9.62598e-01,9.96386e-01,9.99574e-01
9.200094847e-01,9.66913e-01,9.99999e-01,9.70580e-01,9.96457e-01,9.99761e-01
9.246095321e-01,9.50155e-01,9.99999e-01,9.53727e-01,9.96527e-01,9.99725e-01
9.292325798e-01,7.23826e-01,9.99999e-01,7.27074e-01,9.96595e-01,9.98931e-01
9.338787427e-01,6.57421e-01,9.99999e-01,6.62542e-01,9.96662e-01,9.95592e-01
9.385481364e-01,8.40303e-01,9.99999e-01,8.47501e-01,9.96728e-01,9.94759e-01
9.432408771e-01,7.85886e-01,9.99999e-01,7.91996e-01,9.96793e-01,9.95477e-01
9.479570815e-01,7.17713e-01,9.99999e-01,7.22637e-01,9.96856e-01,9.96317e-01
9.526968669e-01,7.82280e-01,9.99999e-01,7.86466e-01,9.96918e-01,9.97752e-01
9.574603512e-01,8.01132e-01,9.99999e-01,8.04478e-01,9.96979e-01,9.98857e-01
9.622476530e-01,8.35269e-01,9.99999e-01,8.38412e-01,9.97038e-01,9.99209e-01
9.670588912e-01,9.00451e-01,9.99999e-01,9.03560e-01,9.97097e-01,9.99459e-01
9.718941857e-01,9.35793e-01,9.99999e-01,9.38837e-01,9.97154e-01,9.99601e-01
9.767536566e-01,9.46040e-01,9.99999e-01,9.48975e-01,9.97210e-01,9.99695e-01
9.816374249e-01,9.59263e-01,9.99999e-01,9.61994e-01,9.97265e-01,9.99894e-01
9.865456120e-01,9.73466e-01,9.99999e-01,9.76104e-01,9.97319e-01,9.99977e-01
9.914783401e-01,9.82575e-01,9.99999e-01,9.85169e-01,9.97372e-01,9.99993e-01
9.964357318e-01,9.89341e-01,9.99999e-01,9.91899e-01,9.97424e-01,9.99995e-01
1.001417910e+00,9.92621e-01,9.99999e-01,9.95139e-01,9.97474e-01,9.99994e-01
1.006425000e+00,9.94750e-01,9.99999e-01,9.97225e-01,9.97524e-01,9.99991e-01
1.011457125e+00,9.95849e-01,9.99999e-01,9.98278e-01,9.97573e-01,9.99992e-01
1.016514411e+00,9.96450e-01,9.99999e-01,9.98830e-01,9.97621e-01,9.99994e-01
1.021596983e+00,9.96733e-01,9.99999e-01,9.99067e-01,9.97668e-01,9.99994e-01
1.026704968e+00,9.96985e-01,9.99999e-01,9.99272e-01,9.97714e-01,9.99996e-01
1.031838492e+00,9.97231e-01,9.99999e-01,9.99471e-01,9.97759e-01,9.99998e-01
1.036997685e+00,9.97490e-01,9.99999e-01,9.99685e-01,9.97803e-01,9.99999e-01
1.042182673e+00,9.97473e-01,9.99999e-01,9.99625e-01,9.97846e-01,9.99999e-01
1.047393587e+00,9.97394e-01,9.99999e-01,9.99503e-01,9.97889e-01,9.99999e-01
1.052630555e+00,9.97251e-01,9.99999e-01,9.99318e-01,9.97931e-01,9.99999e-01
1.057893707e+00,9.96836e-01,9.99999e-01,9.98861e-01,9.97971e-01,9.99999e-01
1.063183176e+00,9.96143e-01,9.99999e-01,9.98128e-01,9.98011e-01,9.99998e-01
1.068499092e+00,9.94922e-01,9.99999e-01,9.96867e-01,9.98051e-01,9.99997e-01
1.073841587e+00,9.94423e-01,9.99999e-01,9.96331e-01,9.98089e-01,9.99994e-01
1.079210795e+00,9.93429e-01,9.99999e-01,9.95304e-01,9.98127e-01,9.99987e-01
1.084606849e+00,9.91043e-01,9.99999e-01,9.92895e-01,9.98164e-01,9.99969e-01
1.090029883e+00,9.87947e-01,9.99999e-01,9.89789e-01,9.98200e-01,9.99937e-01
1.095480033e+00,9.70602e-01,9.99999e-01,9.72426e-01,9.98235e-01,9.99886e-01
1.100957433e+00,9.29467e-01,9.99999e-01,9.31270e-01,9.98270e-01,9.99791e-01
1.106462220e+00,8.31755e-01,9.99999e-01,8.33461e-01,9.98304e-01,9.99647e-01
1.111994531e+00,6.79126e-01,9.99999e-01,6.80893e-01,9.98338e-01,9.99064e-01
1.117554504e+00,5.32865e-01,9.99999e-01,5.35540e-01,9.98371e-01,9.96627e-01
1.123142276e+00,6.22048e-01,9.99999e-01,6.28053e-01,9.98403e-01,9.92022e-01
1.128757988e+00,7.36559e-01,9.99999e-01,7.44580e-01,9.98434e-01,9.90777e-01
1.134401778e+00,4.96676e-01,9.99999e-01,5.01373e-01,9.98465e-01,9.92152e-01
1.140073787e+00,8.33565e-01,9.99999e-01,8.40091e-01,9.98495e-01,9.93724e-01
1.145774156e+00,6.88296e-01,9.99999e-01,6.93295e-01,9.98525e-01,9.94254e-01
1.151503026e+00,6.60443e-01,9.99999e-01,6.63525e-01,9.98554e-01,9.96794e-01
1.157260541e+00,7.11928e-01,9.99999e-01,7.13622e-01,9.98583e-01,9.99040e-01
1.163046844e+00,7.78538e-01,9.99999e-01,7.79833e-01,9.98611e-01,9.99727e-01
1.168862078e+00,8.40797e-01,9.99999e-01,8.42061e-01,9.98638e-01,9.99859e-01
1.174706389e+00,8.98007e-01,9.99999e-01,8.99373e-01,9.98665e-01,9.99813e-01
1.180579921e+00,9.36031e-01,9.99999e-01,9.37520e-01,9.98691e-01,9.99718e-01
1.186482820e+00,9.62726e-01,9.99999e-01,9.64240e-01,9.98717e-01,9.99711e-01
1.192415234e+00,9.77543e-01,9.99999e-01,9.78984e-01,9.98742e-01,9.99783e-01
1.198377311e+00,9.80839e-01,9.99999e-01,9.82249e-01,9.98767e-01,9.99795e-01
1.204369197e+00,9.81821e-01,9.99999e-01,9.83189e-01,9.98791e-01,9.99815e-01
1.210391043e+00,9.82650e-01,9.99999e-01,9.83925e-01,9.98815e-01,9.99887e-01
1.216442998e+00,9.85104e-01,9.99999e-01,9.86316e-01,9.98839e-01,9.99930e-01
1.222525213e+00,9.88166e-01,9.99999e-01,9.89334e-01,9.98862e-01,9.99956e-01
1.228637839e+00,9.91456e-01,9.99999e-01,9.92582e-01,9.98884e-01,9.99979e-01
1.234781029e+00,9.93396e-01,9.99999e-01,9.94488e-01,9.98906e-01,9.99993e-01
1.240954934e+00,9.95442e-01,9.99999e-01,9.96511e-01,9.98928e-01,9.99997e-01
1.247159708e+00,9.96235e-01,9.99999e-01,9.97283e-01,9.98949e-01,9.99998e-01
1.253395507e+00,9.96559e-01,9.99999e-01,9.97587e-01,9.98969e-01,9.99998e-01
1.259662485e+00,9.96698e-01,9.99999e-01,9.97707e-01,9.98990e-01,9.99997e-01
1.265960797e+00,9.95350e-01,9.99999e-01,9.96339e-01,9.99010e-01,9.99995e-01
1.272290601e+00,9.93279e-01,9.99999e-01,9.94249e-01,9.99029e-01,9.99993e-01
1.278652054e+00,9.87638e-01,9.99999e-01,9.88589e-01,9.99048e-01,9.99988e-01
1.285045314e+00,9.78438e-01,9.99999e-01,9.79371e-01,9.99067e-01,9.99978e-01
1.291470541e+00,9.63400e-01,9.99999e-01,9.64315e-01,9.99086e-01,9.99963e-01
1.297927893e+00,9.48638e-01,9.99999e-01,9.49552e-01,9.99104e-01,9.99931e-01
1.304417533e+00,9.39810e-01,9.99999e-01,9.40770e-01,9.99121e-01,9.99855e-01
1.310939621e+00,9.31275e-01,9.99999e-01,9.32351e-01,9.99139e-01,9.99704e-01
1.317494319e+00,9.25697e-01,9.99999e-01,9.26983e-01,9.99156e-01,9.99454e-01
1.324081790e+00,8.90826e-01,9.99999e-01,8.92357e-01,9.99172e-01,9.99109e-01
1.330702199e+00,6.13898e-01,9.99999e-01,6.15340e-01,9.99189e-01,9.98465e-01
1.337355710e+00,3.00260e-01,9.99999e-01,3.01388e-01,9.99205e-01,9.97047e-01
1.344042489e+00,4.04339e-02,9.99999e-01,4.08273e-02,9.99220e-01,9.91133e-01
1.350762701e+00,1.76324e-03,9.99999e-01,1.81921e-03,9.99236e-01,9.69970e-01
1.357516515e+00,1.96280e-04,9.99999e-01,2.14813e-04,9.99251e-01,9.14407e-01
1.364304097e+00,2.95779e-03,9.99999e-01,3.46251e-03,9.99266e-01,8.54859e-01
1.371125618e+00,1.92422e-02,9.99999e-01,2.23243e-02,9.99280e-01,8.62562e-01
1.377981246e+00,3.45033e-02,9.99999e-01,3.91929e-02,9.99294e-01,8.80967e-01
1.384871152e+00,2.64963e-03,9.99999e-01,2.98382e-03,9.99308e-01,8.88612e-01
1.391795508e+00,4.24006e-03,9.99999e-01,4.74847e-03,9.99322e-01,8.93535e-01
1.398754485e+00,9.17813e-03,9.99999e-01,1.00792e-02,9.99335e-01,9.11205e-01
1.405748258e+00,8.82534e-03,9.99999e-01,9.32442e-03,9.99348e-01,9.47091e-01
1.412776999e+00,1.02325e-02,9.99999e-01,1.04963e-02,9.99361e-01,9.75486e-01
1.419840884e+00,1.37424e-02,9.99999e-01,1.39015e-02,9.99374e-01,9.89176e-01
1.426940089e+00,3.52829e-02,9.99999e-01,3.55977e-02,9.99386e-01,9.91766e-01
1.434074789e+00,7.68310e-02,9.99999e-01,7.76309e-02,9.99398e-01,9.90291e-01
1.441245163e+00,1.47000e-01,9.99999e-01,1.48649e-01,9.99410e-01,9.89487e-01
1.448451389e+00,2.52359e-01,9.99999e-01,2.54852e-01,9.99422e-01,9.90789e-01
1.455693646e+00,4.10029e-01,9.99999e-01,4.13225e-01,9.99433e-01,9.92825e-01
1.462972114e+00,4.66182e-01,9.99999e-01,4.69655e-01,9.99444e-01,9.93156e-01
1.470286975e+00,4.09948e-01,9.99999e-01,4.12949e-01,9.99455e-01,9.93272e-01
