#,Wave/freq,Total,N2,H2O,Rayleigh,CIA
4.000000000e-01,8.71333e-01,9.99999e-01,9.99984e-01,8.71346e-01,9.99999e-01
4.020000000e-01,8.73714e-01,9.99999e-01,9.99989e-01,8.73722e-01,9.99999e-01
4.040100000e-01,8.76051e-01,9.99999e-01,9.99995e-01,8.76055e-01,9.99999e-01
4.060300500e-01,8.78347e-01,9.99999e-01,9.99998e-01,8.78348e-01,9.99999e-01
4.080602003e-01,8.80601e-01,9.99999e-01,9.99999e-01,8.80601e-01,9.99999e-01
4.101005013e-01,8.82816e-01,9.99999e-01,9.99999e-01,8.82816e-01,9.99999e-01
4.121510038e-01,8.84991e-01,9.99999e-01,9.99998e-01,8.84992e-01,9.99999e-01
4.142117588e-01,8.87126e-01,9.99999e-01,9.99995e-01,8.87130e-01,9.99999e-01
4.162828176e-01,8.89214e-01,9.99999e-01,9.99980e-01,8.89231e-01,9.99999e-01
4.183642317e-01,8.91285e-01,9.99999e-01,9.99988e-01,8.91295e-01,9.99999e-01
4.204560528e-01,8.93318e-01,9.99999e-01,9.99992e-01,8.93324e-01,9.99999e-01
4.225583331e-01,8.95314e-01,9.99999e-01,9.99996e-01,8.95316e-01,9.99999e-01
4.246711247e-01,8.97272e-01,9.99999e-01,9.99997e-01,8.97274e-01,9.99999e-01
4.267944804e-01,8.99195e-01,9.99999e-01,9.99996e-01,8.99197e-01,9.99999e-01
4.289284528e-01,9.01084e-01,9.99999e-01,9.99997e-01,9.01086e-01,9.99999e-01
4.310730950e-01,9.02941e-01,9.99999e-01,9.99998e-01,9.02942e-01,9.99999e-01
4.332284605e-01,9.04765e-01,9.99999e-01,9.99999e-01,9.04765e-01,9.99999e-01
4.353946028e-01,9.06555e-01,9.99999e-01,9.99999e-01,9.06555e-01,9.99999e-01
4.375715758e-01,9.08312e-01,9.99999e-01,9.99997e-01,9.08314e-01,9.99999e-01
4.397594337e-01,9.10025e-01,9.99999e-01,9.99982e-01,9.10041e-01,9.99999e-01
4.419582309e-01,9.11657e-01,9.99999e-01,9.99911e-01,9.11737e-01,9.99999e-01
4.441680220e-01,9.13342e-01,9.99999e-01,9.99933e-01,9.13402e-01,9.99999e-01
4.463888621e-01,9.14974e-01,9.99999e-01,9.99929e-01,9.15038e-01,9.99999e-01
4.486208064e-01,9.16605e-01,9.99999e-01,9.99956e-01,9.16644e-01,9.99999e-01
4.508639105e-01,9.18203e-01,9.99999e-01,9.99979e-01,9.18221e-01,9.99999e-01
4.531182300e-01,9.19763e-01,9.99999e-01,9.99991e-01,9.19770e-01,9.99999e-01
4.553838212e-01,9.21286e-01,9.99999e-01,9.99994e-01,9.21291e-01,9.99999e-01
4.576607403e-01,9.22781e-01,9.99999e-01,9.99997e-01,9.22784e-01,9.99999e-01
4.599490440e-01,9.24248e-01,9.99999e-01,9.99997e-01,9.24250e-01,9.99999e-01
4.622487892e-01,9.25688e-01,9.99999e-01,9.99999e-01,9.25689e-01,9.99999e-01
4.645600332e-01,9.27101e-01,9.99999e-01,9.99998e-01,9.27102e-01,9.99999e-01
4.668828333e-01,9.28470e-01,9.99999e-01,9.99978e-01,9.28489e-01,9.99999e-01
4.692172475e-01,9.29810e-01,9.99999e-01,9.99955e-01,9.29851e-01,9.99999e-01
4.715633337e-01,9.31161e-01,9.99999e-01,9.99970e-01,9.31187e-01,9.99999e-01
4.739211504e-01,9.32474e-01,9.99999e-01,9.99972e-01,9.32500e-01,9.99999e-01
4.762907561e-01,9.33775e-01,9.99999e-01,9.99985e-01,9.33788e-01,9.99999e-01
4.786722099e-01,9.35047e-01,9.99999e-01,9.99993e-01,9.35052e-01,9.99999e-01
4.810655710e-01,9.36292e-01,9.99999e-01,9.99997e-01,9.36293e-01,9.99999e-01
4.834708988e-01,9.37495e-01,9.99999e-01,9.99982e-01,9.37511e-01,9.99999e-01
4.858882533e-01,9.38678e-01,9.99999e-01,9.99968e-01,9.38707e-01,9.99999e-01
4.883176946e-01,9.39856e-01,9.99999e-01,9.99973e-01,9.39881e-01,9.99999e-01
4.907592831e-01,9.41010e-01,9.99999e-01,9.99976e-01,9.41032e-01,9.99999e-01
4.932130795e-01,9.42147e-01,9.99999e-01,9.99982e-01,9.42163e-01,9.99999e-01
4.956791449e-01,9.43264e-01,9.99999e-01,9.99990e-01,9.43272e-01,9.99999e-01
4.981575406e-01,9.44319e-01,9.99999e-01,9.99955e-01,9.44361e-01,9.99999e-01
5.006483283e-01,9.45319e-01,9.99999e-01,9.99883e-01,9.45429e-01,9.99998e-01
5.031515699e-01,9.45924e-01,9.99999e-01,9.99419e-01,9.46478e-01,9.99993e-01
5.056673278e-01,9.47212e-01,9.99999e-01,9.99695e-01,9.47507e-01,9.99992e-01
5.081956644e-01,9.48149e-01,9.99999e-01,9.99615e-01,9.48516e-01,9.99995e-01
5.107366428e-01,9.49261e-01,9.99999e-01,9.99740e-01,9.49507e-01,9.99998e-01
5.132903260e-01,9.50339e-01,9.99999e-01,9.99851e-01,9.50479e-01,9.99999e-01
5.158567776e-01,9.51374e-01,9.99999e-01,9.99937e-01,9.51433e-01,9.99999e-01
5.184360615e-01,9.52346e-01,9.99999e-01,9.99974e-01,9.52369e-01,9.99999e-01
5.210282418e-01,9.53279e-01,9.99999e-01,9.99990e-01,9.53288e-01,9.99999e-01
5.236333830e-01,9.54153e-01,9.99999e-01,9.99961e-01,9.54189e-01,9.99999e-01
5.262515499e-01,9.55051e-01,9.99999e-01,9.99975e-01,9.55073e-01,9.99999e-01
5.288828077e-01,9.55920e-01,9.99999e-01,9.99977e-01,9.55941e-01,9.99999e-01
5.315272217e-01,9.56774e-01,9.99999e-01,9.99980e-01,9.56792e-01,9.99999e-01
5.341848578e-01,9.57615e-01,9.99999e-01,9.99986e-01,9.57627e-01,9.99999e-01
5.368557821e-01,9.58404e-01,9.99999e-01,9.99955e-01,9.58446e-01,9.99999e-01
5.395400610e-01,9.59095e-01,9.99999e-01,9.99838e-01,9.59250e-01,9.99998e-01
5.422377613e-01,9.59840e-01,9.99999e-01,9.99795e-01,9.60039e-01,9.99995e-01
5.449489501e-01,9.60625e-01,9.99999e-01,9.99808e-01,9.60813e-01,9.99995e-01
5.476736949e-01,9.61409e-01,9.99999e-01,9.99832e-01,9.61571e-01,9.99997e-01
5.504120634e-01,9.62198e-01,9.99999e-01,9.99877e-01,9.62316e-01,9.99998e-01
5.531641237e-01,9.62987e-01,9.99999e-01,9.99938e-01,9.63046e-01,9.99999e-01
5.559299443e-01,9.63735e-01,9.99999e-01,9.99970e-01,9.63763e-01,9.99999e-01
5.587095940e-01,9.64448e-01,9.99999e-01,9.99980e-01,9.64466e-01,9.99999e-01
5.615031420e-01,9.65135e-01,9.99999e-01,9.99978e-01,9.65155e-01,9.99999e-01
5.643106577e-01,9.65808e-01,9.99999e-01,9.99975e-01,9.65832e-01,9.99999e-01
5.671322110e-01,9.66210e-01,9.99999e-01,9.99706e-01,9.66495e-01,9.99996e-01
5.699678720e-01,9.66848e-01,9.99999e-01,9.99699e-01,9.67146e-01,9.99991e-01
5.728177114e-01,9.67471e-01,9.99999e-01,9.99682e-01,9.67784e-01,9.99993e-01
5.756818000e-01,9.68126e-01,9.99999e-01,9.99709e-01,9.68410e-01,9.99995e-01
5.785602090e-01,9.68779e-01,9.99999e-01,9.99747e-01,9.69025e-01,9.99998e-01
5.814530100e-01,9.69380e-01,9.99999e-01,9.99745e-01,9.69627e-01,9.99998e-01
5.843602750e-01,9.69919e-01,9.99999e-01,9.99693e-01,9.70218e-01,9.99997e-01
5.872820764e-01,9.68220e-01,9.99999e-01,9.97362e-01,9.70798e-01,9.99981e-01
5.902184868e-01,9.68252e-01,9.99999e-01,9.96843e-01,9.71366e-01,9.99949e-01
5.931695792e-01,9.69701e-01,9.99999e-01,9.97760e-01,9.71924e-01,9.99951e-01
5.961354271e-01,9.70064e-01,9.99999e-01,9.97552e-01,9.72470e-01,9.99971e-01
5.991161043e-01,9.71265e-01,9.99999e-01,9.98217e-01,9.73007e-01,9.99990e-01
6.021116848e-01,9.72549e-01,9.99999e-01,9.98990e-01,9.73533e-01,9.99998e-01
6.051222432e-01,9.73552e-01,9.99999e-01,9.99489e-01,9.74049e-01,9.99999e-01
6.081478544e-01,9.74340e-01,9.99999e-01,9.99779e-01,9.74555e-01,9.99999e-01
6.111885937e-01,9.74960e-01,9.99999e-01,9.99906e-01,9.75051e-01,9.99999e-01
6.142445367e-01,9.75497e-01,9.99999e-01,9.99957e-01,9.75538e-01,9.99999e-01
6.173157594e-01,9.75993e-01,9.99999e-01,9.99976e-01,9.76015e-01,9.99999e-01
6.204023382e-01,9.76464e-01,9.99999e-01,9.99979e-01,9.76483e-01,9.99999e-01
6.235043498e-01,9.76856e-01,9.99999e-01,9.99911e-01,9.76942e-01,9.99999e-01
6.266218716e-01,9.76944e-01,9.99999e-01,9.99543e-01,9.77393e-01,9.99996e-01
6.297549810e-01,9.77664e-01,9.99999e-01,9.99832e-01,9.77834e-01,9.99993e-01
6.329037559e-01,9.77940e-01,9.99999e-01,9.99670e-01,9.78267e-01,9.99994e-01
6.360682746e-01,9.78413e-01,9.99999e-01,9.99717e-01,9.78692e-01,9.99996e-01
6.392486160e-01,9.78750e-01,9.99999e-01,9.99635e-01,9.79108e-01,9.99998e-01
6.424448591e-01,9.79032e-01,9.99999e-01,9.99506e-01,9.79517e-01,9.99997e-01
6.456570834e-01,9.77662e-01,9.99999e-01,9.97711e-01,9.79917e-01,9.99985e-01
6.488853688e-01,9.78657e-01,9.99999e-01,9.98348e-01,9.80310e-01,9.99964e-01
6.521297956e-01,9.79017e-01,9.99999e-01,9.98316e-01,9.80695e-01,9.99970e-01
6.553904446e-01,9.79399e-01,9.99999e-01,9.98314e-01,9.81073e-01,9.99977e-01
6.586673968e-01,9.80028e-01,9.99999e-01,9.98564e-01,9.81443e-01,9.99992e-01
6.619607338e-01,9.81020e-01,9.99999e-01,9.99200e-01,9.81806e-01,9.99997e-01
6.652705375e-01,9.81691e-01,9.99999e-01,9.99520e-01,9.82162e-01,9.99998e-01
6.685968902e-01,9.82311e-01,9.99999e-01,9.99796e-01,9.82511e-01,9.99999e-01
6.719398746e-01,9.82753e-01,9.99999e-01,9.99896e-01,9.82854e-01,9.99999e-01
6.752995740e-01,9.83136e-01,9.99999e-01,9.99944e-01,9.83190e-01,9.99999e-01
6.786760719e-01,9.83438e-01,9.99999e-01,9.99917e-01,9.83519e-01,9.99999e-01
6.820694522e-01,9.83703e-01,9.99999e-01,9.99859e-01,9.83842e-01,9.99998e-01
6.854797995e-01,9.83980e-01,9.99999e-01,9.99819e-01,9.84158e-01,9.99997e-01
6.889071985e-01,9.83892e-01,9.99999e-01,9.99417e-01,9.84469e-01,9.99995e-01
6.923517345e-01,9.77685e-01,9.99999e-01,9.92835e-01,9.84773e-01,9.99965e-01
6.958134932e-01,9.81437e-01,9.99999e-01,9.96384e-01,9.85072e-01,9.99924e-01
6.992925606e-01,9.81822e-01,9.99999e-01,9.96471e-01,9.85364e-01,9.99931e-01
7.027890234e-01,9.81354e-01,9.99999e-01,9.95691e-01,9.85651e-01,9.99947e-01
7.063029686e-01,9.82332e-01,9.99999e-01,9.96373e-01,9.85933e-01,9.99973e-01
7.098344834e-01,9.82763e-01,9.99999e-01,9.96520e-01,9.86209e-01,9.99984e-01
7.133836558e-01,9.81799e-01,9.99999e-01,9.95285e-01,9.86479e-01,9.99969e-01
7.169505741e-01,9.49882e-01,9.99999e-01,9.62870e-01,9.86745e-01,9.99761e-01
7.205353270e-01,9.68948e-01,9.99999e-01,9.82116e-01,9.87005e-01,9.99579e-01
7.241380036e-01,9.64068e-01,9.99999e-01,9.76862e-01,9.87260e-01,9.99637e-01
7.277586936e-01,9.66610e-01,9.99999e-01,9.79125e-01,9.87510e-01,9.99703e-01
7.313974871e-01,9.65910e-01,9.99999e-01,9.78019e-01,9.87755e-01,9.99860e-01
7.350544745e-01,9.76009e-01,9.99999e-01,9.87915e-01,9.87995e-01,9.99951e-01
7.387297469e-01,9.79422e-01,9.99999e-01,9.91107e-01,9.88231e-01,9.99977e-01
7.424233956e-01,9.84164e-01,9.99999e-01,9.95654e-01,9.88462e-01,9.99995e-01
7.461355126e-01,9.86078e-01,9.99999e-01,9.97359e-01,9.88689e-01,9.99998e-01
7.498661902e-01,9.87700e-01,9.99999e-01,9.98774e-01,9.88911e-01,9.99999e-01
7.536155211e-01,9.88532e-01,9.99999e-01,9.99396e-01,9.89129e-01,9.99999e-01
7.573835987e-01,9.89035e-01,9.99999e-01,9.99689e-01,9.89342e-01,9.99999e-01
7.611705167e-01,9.89361e-01,9.99999e-01,9.99806e-01,9.89552e-01,9.99999e-01
7.649763693e-01,9.89637e-01,9.99999e-01,9.99878e-01,9.89757e-01,9.99999e-01
7.688012511e-01,9.89875e-01,9.99999e-01,9.99915e-01,9.89958e-01,9.99999e-01
7.726452574e-01,9.90087e-01,9.99999e-01,9.99929e-01,9.90156e-01,9.99999e-01
7.765084837e-01,9.90250e-01,9.99999e-01,9.99899e-01,9.90349e-01,9.99999e-01
7.803910261e-01,9.90110e-01,9.99999e-01,9.99567e-01,9.90539e-01,9.99999e-01
7.842929812e-01,9.89226e-01,9.99999e-01,9.98489e-01,9.90725e-01,9.99996e-01
7.882144461e-01,9.87839e-01,9.99999e-01,9.96924e-01,9.90907e-01,9.99978e-01
7.921555184e-01,9.89389e-01,9.99999e-01,9.98324e-01,9.91086e-01,9.99962e-01
7.961162960e-01,9.88247e-01,9.99999e-01,9.96993e-01,9.91261e-01,9.99964e-01
8.000968774e-01,9.87982e-01,9.99999e-01,9.96555e-01,9.91433e-01,9.99962e-01
8.040973618e-01,9.88151e-01,9.99999e-01,9.96547e-01,9.91602e-01,9.99971e-01
8.081178486e-01,9.83969e-01,9.99999e-01,9.92165e-01,9.91767e-01,9.99970e-01
8.121584379e-01,9.59839e-01,9.99999e-01,9.67754e-01,9.91929e-01,9.99890e-01
8.162192301e-01,9.54300e-01,9.99999e-01,9.62303e-01,9.92087e-01,9.99591e-01
8.203003262e-01,9.72462e-01,9.99999e-01,9.80532e-01,9.92243e-01,9.99521e-01
8.244018279e-01,9.65979e-01,9.99999e-01,9.73750e-01,9.92396e-01,9.99619e-01
8.285238370e-01,9.69597e-01,9.99999e-01,9.77170e-01,9.92545e-01,9.99700e-01
8.326664562e-01,9.69782e-01,9.99999e-01,9.77041e-01,9.92692e-01,9.99875e-01
8.368297885e-01,9.76535e-01,9.99999e-01,9.83608e-01,9.92836e-01,9.99971e-01
8.410139374e-01,9.83270e-01,9.99999e-01,9.90240e-01,9.92977e-01,9.99982e-01
8.452190071e-01,9.88352e-01,9.99999e-01,9.95213e-01,9.93115e-01,9.99989e-01
8.494451021e-01,9.90470e-01,9.99999e-01,9.97207e-01,9.93251e-01,9.99991e-01
8.536923276e-01,9.91745e-01,9.99999e-01,9.98355e-01,9.93383e-01,9.99994e-01
8.579607893e-01,9.92503e-01,9.99999e-01,9.98982e-01,9.93514e-01,9.99998e-01
8.622505932e-01,9.93001e-01,9.99999e-01,9.99355e-01,9.93641e-01,9.99999e-01
8.665618462e-01,9.93369e-01,9.99999e-01,9.99599e-01,9.93767e-01,9.99999e-01
8.708946554e-01,9.93432e-01,9.99999e-01,9.99540e-01,9.93889e-01,9.99999e-01
8.752491287e-01,9.93399e-01,9.99999e-01,9.99385e-01,9.94010e-01,9.99998e-01
8.796253743e-01,9.93277e-01,9.99999e-01,9.99145e-01,9.94128e-01,9.99997e-01
8.840235012e-01,9.93269e-01,9.99999e-01,9.99025e-01,9.94243e-01,9.99993e-01
8.884436187e-01,9.90717e-01,9.99999e-01,9.96355e-01,9.94357e-01,9.99982e-01
8.928858368e-01,9.57389e-01,9.99999e-01,9.62807e-01,9.94468e-01,9.99902e-01
8.973502660e-01,9.30309e-01,9.99999e-01,9.35845e-01,9.94577e-01,9.99502e-01
9.018370173e-01,9.61170e-01,9.99999e-01,9.67062e-01,9.94684e-01,9.99218e-01
9.063462024e-01,9.64636e-01,9.99999e-01,9.70354e-01,9.94788e-01,9.99313e-01
9.108779334e-01,9.48894e-01,9.99999e-01,9.54446e-01,9.94891e-01,9.99286e-01
9.154323231e-01,9.43268e-01,9.99999e-01,9.48574e-01,9.94992e-01,9.99410e-01
9.200094847e-01,9.54582e-01,9.99999e-01,9.59608e-01,9.95090e-01,9.99669e-01
9.246095321e-01,9.30599e-01,9.99999e-01,9.35454e-01,9.95187e-01,9.99619e-01
9.292325798e-01,6.39847e-01,9.99999e-01,6.44060e-01,9.95282e-01,9.98166e-01
9.338787427e-01,5.64013e-01,9.99999e-01,5.70404e-01,9.95375e-01,9.93388e-01
9.385481364e-01,7.88694e-01,9.99999e-01,7.98080e-01,9.95466e-01,9.92739e-01
9.432408771e-01,7.18850e-01,9.99999e-01,7.26612e-01,9.95555e-01,9.93732e-01
9.479570815e-01,6.36670e-01,9.99999e-01,6.42736e-01,9.95643e-01,9.94896e-01
9.526968669e-01,7.16223e-01,9.99999e-01,7.21543e-01,9.95729e-01,9.96883e-01
9.574603512e-01,7.37153e-01,9.99999e-01,7.41426e-01,9.95813e-01,9.98415e-01
9.622476530e-01,7.80876e-01,9.99999e-01,7.84954e-01,9.95895e-01,9.98903e-01
9.670588912e-01,8.65462e-01,9.99999e-01,8.69582e-01,9.95976e-01,9.99281e-01
9.718941857e-01,9.12255e-01,9.99999e-01,9.16371e-01,9.96056e-01,9.99449e-01
9.767536566e-01,9.26068e-01,9.99999e-01,9.30054e-01,9.96133e-01,9.99577e-01
9.816374249e-01,9.44157e-01,9.99999e-01,9.47887e-01,9.96209e-01,9.99853e-01
9.865456120e-01,9.63519e-01,9.99999e-01,9.67141e-01,9.96284e-01,9.99969e-01
9.914783401e-01,9.75980e-01,9.99999e-01,9.79556e-01,9.96357e-01,9.99991e-01
9.964357318e-01,9.85284e-01,9.99999e-01,9.88819e-01,9.96429e-01,9.99994e-01
1.001417910e+00,9.89807e-01,9.99999e-01,9.93291e-01,9.96500e-01,9.99991e-01
1.006425000e+00,9.92731e-01,9.99999e-01,9.96159e-01,9.96569e-01,9.99988e-01
1.011457125e+00,9.94258e-01,9.99999e-01,9.97622e-01,9.96636e-01,9.99989e-01
1.016514411e+00,9.95084e-01,9.99999e-01,9.98382e-01,9.96703e-01,9.99992e-01
1.021596983e+00,9.95475e-01,9.99999e-01,9.98709e-01,9.96768e-01,9.99992e-01
1.026704968e+00,9.95824e-01,9.99999e-01,9.98993e-01,9.96831e-01,9.99995e-01
1.031838492e+00,9.96165e-01,9.99999e-01,9.99269e-01,9.96894e-01,9.99998e-01
1.036997685e+00,9.96522e-01,9.99999e-01,9.99565e-01,9.96955e-01,9.99999e-01
1.042182673e+00,9.96496e-01,9.99999e-01,9.99478e-01,9.97015e-01,9.99999e-01
1.047393587e+00,9.96387e-01,9.99999e-01,9.99310e-01,9.97074e-01,9.99999e-01
1.052630555e+00,9.96187e-01,9.99999e-01,9.99052e-01,9.97132e-01,9.99999e-01
1.057893707e+00,9.95609e-01,9.99999e-01,9.98415e-01,9.97188e-01,9.99998e-01
1.063183176e+00,9.94647e-01,9.99999e-01,9.97397e-01,9.97244e-01,9.99998e-01
1.068499092e+00,9.92961e-01,9.99999e-01,9.95653e-01,9.97298e-01,9.99996e-01
1.073841587e+00,9.92259e-01,9.99999e-01,9.94899e-01,9.97351e-01,9.99993e-01
1.079210795e+00,9.90901e-01,9.99999e-01,9.93497e-01,9.97403e-01,9.99982e-01
1.084606849e+00,9.87586e-01,9.99999e-01,9.90146e-01,9.97455e-01,9.99957e-01
1.090029883e+00,9.83204e-01,9.99999e-01,9.85748e-01,9.97505e-01,9.99912e-01
1.095480033e+00,9.59250e-01,9.99999e-01,9.61752e-01,9.97554e-01,9.99842e-01
1.100957433e+00,9.03164e-01,9.99999e-01,9.05595e-01,9.97602e-01,9.99711e-01
1.106462220e+00,7.73989e-01,9.99999e-01,7.76191e-01,9.97650e-01,9.99510e-01
1.111994531e+00,5.86772e-01,9.99999e-01,5.88890e-01,9.97696e-01,9.98702e-01
1.117554504e+00,4.21848e-01,9.99999e-01,4.24788e-01,9.97741e-01,9.95326e-01
1.123142276e+00,5.26645e-01,9.99999e-01,5.33709e-01,9.97786e-01,9.88952e-01
1.128757988e+00,6.57807e-01,9.99999e-01,6.67764e-01,9.97830e-01,9.87230e-01
1.134401778e+00,4.06868e-01,9.99999e-01,4.12215e-01,9.97872e-01,9.89131e-01
1.140073787e+00,7.77578e-01,9.99999e-01,7.86035e-01,9.97914e-01,9.91306e-01
1.145774156e+00,6.00095e-01,9.99999e-01,6.06149e-01,9.97956e-01,9.92039e-01
1.151503026e+00,5.67989e-01,9.99999e-01,5.71669e-01,9.97996e-01,9.95557e-01
1.157260541e+00,6.26352e-01,9.99999e-01,6.28420e-01,9.98035e-01,9.98669e-01
1.163046844e+00,7.08607e-01,9.99999e-01,7.10241e-01,9.98074e-01,9.99622e-01
1.168862078e+00,7.87133e-01,9.99999e-01,7.88776e-01,9.98112e-01,9.99803e-01
1.174706389e+00,8.61924e-01,9.99999e-01,8.63755e-01,9.98149e-01,9.99728e-01
1.180579921e+00,9.12732e-01,9.99999e-01,9.14746e-01,9.98186e-01,9.99610e-01
1.186482820e+00,9.48808e-01,9.99999e-01,9.50877e-01,9.98222e-01,9.99599e-01
1.192415234e+00,9.69028e-01,9.99999e-01,9.71010e-01,9.98257e-01,9.99700e-01
1.198377311e+00,9.73510e-01,9.99999e-01,9.75453e-01,9.98291e-01,9.99715e-01
1.204369197e+00,9.74899e-01,9.99999e-01,9.76776e-01,9.98325e-01,9.99752e-01
1.210391043e+00,9.76035e-01,9.99999e-01,9.77791e-01,9.98358e-01,9.99843e-01
1.216442998e+00,9.79457e-01,9.99999e-01,9.81129e-01,9.98390e-01,9.99904e-01
1.222525213e+00,9.83654e-01,9.99999e-01,9.85266e-01,9.98422e-01,9.99940e-01
1.228637839e+00,9.88181e-01,9.99999e-01,9.89739e-01,9.98453e-01,9.99971e-01
1.234781029e+00,9.90871e-01,9.99999e-01,9.92383e-01,9.98484e-01,9.99991e-01
1.240954934e+00,9.93691e-01,9.99999e-01,9.95172e-01,9.98514e-01,9.99997e-01
1.247159708e+00,9.94791e-01,9.99999e-01,9.96243e-01,9.98543e-01,9.99998e-01
1.253395507e+00,9.95233e-01,9.99999e-01,9.96658e-01,9.98572e-01,9.99997e-01
1.259662485e+00,9.95418e-01,9.99999e-01,9.96816e-01,9.98600e-01,9.99996e-01
1.265960797e+00,9.93560e-01,9.99999e-01,9.94930e-01,9.98627e-01,9.99994e-01
1.272290601e+00,9.90667e-01,9.99999e-01,9.92010e-01,9.98654e-01,9.99990e-01
1.278652054e+00,9.82864e-01,9.99999e-01,9.84176e-01,9.98681e-01,9.99984e-01
1.285045314e+00,9.70144e-01,9.99999e-01,9.71427e-01,9.98707e-01,9.99970e-01
1.291470541e+00,9.49478e-01,9.99999e-01,9.50730e-01,9.98733e-01,9.99949e-01
1.297927893e+00,9.29389e-01,9.99999e-01,9.30631e-01,9.98758e-01,9.99905e-01
1.304417533e+00,9.17608e-01,9.99999e-01,9.18909e-01,9.98782e-01,9.99800e-01
1.310939621e+00,8.97116e-01,9.99999e-01,8.98555e-01,9.98806e-01,9.99590e-01
1.317494319e+00,8.98717e-01,9.99999e-01,9.00449e-01,9.98830e-01,9.99243e-01
1.324081790e+00,8.54237e-01,9.99999e-01,8.56368e-01,9.98853e-01,9.98655e-01
1.330702199e+00,5.19622e-01,9.99999e-01,5.21395e-01,9.98875e-01,9.97721e-01
1.337355710e+00,1.70767e-01,9.99999e-01,1.71658e-01,9.98898e-01,9.95907e-01
1.344042489e+00,1.18805e-02,9.99999e-01,1.20412e-02,9.98919e-01,9.87723e-01
1.350762701e+00,2.45283e-04,9.99999e-01,2.56149e-04,9.98941e-01,9.58592e-01
1.357516515e+00,1.01559e-05,9.99999e-01,1.15099e-05,9.98961e-01,8.83282e-01
1.364304097e+00,4.83361e-04,9.99999e-01,6.01419e-04,9.98982e-01,8.04517e-01
1.371125618e+00,5.52343e-03,9.99999e-01,6.78739e-03,9.99002e-01,8.14589e-01
1.377981246e+00,1.16021e-02,9.99999e-01,1.38453e-02,9.99022e-01,8.38798e-01
1.384871152e+00,5.19260e-04,9.99999e-01,6.12263e-04,9.99041e-01,8.48911e-01
1.391795508e+00,6.94345e-04,9.99999e-01,8.12443e-04,9.99060e-01,8.55441e-01
1.398754485e+00,2.24903e-03,9.99999e-01,2.56099e-03,9.99078e-01,8.78995e-01
1.405748258e+00,2.04802e-03,9.99999e-01,2.21041e-03,9.99097e-01,9.27373e-01
1.412776999e+00,2.37073e-03,9.99999e-01,2.45594e-03,9.99114e-01,9.66160e-01
1.419840884e+00,3.60471e-03,9.99999e-01,3.66271e-03,9.99132e-01,9.85018e-01
1.426940089e+00,1.22892e-02,9.99999e-01,1.24415e-02,9.99149e-01,9.88597e-01
1.434074789e+00,3.45681e-02,9.99999e-01,3.50682e-02,9.99166e-01,9.86558e-01
1.441245163e+00,7.55154e-02,9.99999e-01,7.66930e-02,9.99182e-01,9.85449e-01
1.448451389e+00,1.58735e-01,9.99999e-01,1.60914e-01,9.99198e-01,9.87247e-01
1.455693646e+00,2.98924e-01,9.99999e-01,3.02161e-01,9.99214e-01,9.90063e-01
1.462972114e+00,3.51673e-01,9.99999e-01,3.55311e-01,9.99230e-01,9.90520e-01
1.470286975e+00,2.96158e-01,9.99999e-01,2.99169e-01,9.99245e-01,9.90681e-01
