#,Wave/freq,Total,N2,H2O,Rayleigh,CIA
4.000000000e-01,2.04313e-01,9.99999e-01,9.99820e-01,2.04350e-01,9.99999e-01
4.020000000e-01,2.10844e-01,9.99999e-01,9.99888e-01,2.10868e-01,9.99999e-01
4.040100000e-01,2.17441e-01,9.99999e-01,9.99952e-01,2.17452e-01,9.99999e-01
4.060300500e-01,2.24103e-01,9.99999e-01,9.99988e-01,2.24105e-01,9.99999e-01
4.080602003e-01,2.30824e-01,9.99999e-01,9.99996e-01,2.30824e-01,9.99999e-01
4.101005013e-01,2.37607e-01,9.99999e-01,9.99999e-01,2.37607e-01,9.99999e-01
4.121510038e-01,2.44447e-01,9.99999e-01,9.99992e-01,2.44448e-01,9.99999e-01
4.142117588e-01,2.51334e-01,9.99999e-01,9.99950e-01,2.51346e-01,9.99999e-01
4.162828176e-01,2.58239e-01,9.99999e-01,9.99777e-01,2.58296e-01,9.99999e-01
4.183642317e-01,2.65261e-01,9.99999e-01,9.99867e-01,2.65296e-01,9.99999e-01
4.204560528e-01,2.72319e-01,9.99999e-01,9.99918e-01,2.72341e-01,9.99999e-01
4.225583331e-01,2.79420e-01,9.99999e-01,9.99969e-01,2.79428e-01,9.99999e-01
4.246711247e-01,2.86548e-01,9.99999e-01,9.99975e-01,2.86555e-01,9.99999e-01
4.267944804e-01,2.93707e-01,9.99999e-01,9.99963e-01,2.93717e-01,9.99999e-01
4.289284528e-01,3.00904e-01,9.99999e-01,9.99972e-01,3.00912e-01,9.99999e-01
4.310730950e-01,3.08132e-01,9.99999e-01,9.99987e-01,3.08135e-01,9.99999e-01
4.332284605e-01,3.15383e-01,9.99999e-01,9.99996e-01,3.15384e-01,9.99999e-01
4.353946028e-01,3.22655e-01,9.99999e-01,9.99998e-01,3.22656e-01,9.99999e-01
4.375715758e-01,3.29939e-01,9.99999e-01,9.99977e-01,3.29946e-01,9.99999e-01
4.397594337e-01,3.37187e-01,9.99999e-01,9.99806e-01,3.37252e-01,9.99999e-01
4.419582309e-01,3.44233e-01,9.99999e-01,9.99019e-01,3.44571e-01,9.99999e-01
4.441680220e-01,3.51627e-01,9.99999e-01,9.99224e-01,3.51899e-01,9.99999e-01
4.463888621e-01,3.58946e-01,9.99999e-01,9.99196e-01,3.59234e-01,9.99999e-01
4.486208064e-01,3.66389e-01,9.99999e-01,9.99498e-01,3.66573e-01,9.99999e-01
4.508639105e-01,3.73824e-01,9.99999e-01,9.99765e-01,3.73912e-01,9.99999e-01
4.531182300e-01,3.81213e-01,9.99999e-01,9.99906e-01,3.81248e-01,9.99999e-01
4.553838212e-01,3.88556e-01,9.99999e-01,9.99936e-01,3.88580e-01,9.99999e-01
4.576607403e-01,3.95892e-01,9.99999e-01,9.99970e-01,3.95903e-01,9.99999e-01
4.599490440e-01,4.03208e-01,9.99999e-01,9.99979e-01,4.03216e-01,9.99999e-01
4.622487892e-01,4.10514e-01,9.99999e-01,9.99996e-01,4.10515e-01,9.99999e-01
4.645600332e-01,4.17793e-01,9.99999e-01,9.99985e-01,4.17799e-01,9.99999e-01
4.668828333e-01,4.24964e-01,9.99999e-01,9.99764e-01,4.25063e-01,9.99999e-01
4.692172475e-01,4.32090e-01,9.99999e-01,9.99495e-01,4.32307e-01,9.99999e-01
4.715633337e-01,4.39384e-01,9.99999e-01,9.99670e-01,4.39528e-01,9.99999e-01
4.739211504e-01,4.46582e-01,9.99999e-01,9.99683e-01,4.46723e-01,9.99999e-01
4.762907561e-01,4.53816e-01,9.99999e-01,9.99835e-01,4.53891e-01,9.99999e-01
4.786722099e-01,4.60997e-01,9.99999e-01,9.99932e-01,4.61028e-01,9.99999e-01
4.810655710e-01,4.68124e-01,9.99999e-01,9.99979e-01,4.68133e-01,9.99999e-01
4.834708988e-01,4.75114e-01,9.99999e-01,9.99809e-01,4.75204e-01,9.99999e-01
4.858882533e-01,4.82067e-01,9.99999e-01,9.99642e-01,4.82240e-01,9.99999e-01
4.883176946e-01,4.89091e-01,9.99999e-01,9.99701e-01,4.89237e-01,9.99999e-01
4.907592831e-01,4.96060e-01,9.99999e-01,9.99729e-01,4.96195e-01,9.99999e-01
4.932130795e-01,5.03014e-01,9.99999e-01,9.99807e-01,5.03111e-01,9.99999e-01
4.956791449e-01,5.09932e-01,9.99999e-01,9.99898e-01,5.09984e-01,9.99999e-01
4.981575406e-01,5.16551e-01,9.99999e-01,9.99494e-01,5.16812e-01,9.99999e-01
5.006483283e-01,5.22907e-01,9.99999e-01,9.98694e-01,5.23595e-01,9.99990e-01
5.031515699e-01,5.26780e-01,9.99999e-01,9.93375e-01,5.30330e-01,9.99929e-01
5.056673278e-01,5.35088e-01,9.99999e-01,9.96489e-01,5.37015e-01,9.99919e-01
5.081956644e-01,5.41216e-01,9.99999e-01,9.95571e-01,5.43651e-01,9.99947e-01
5.107366428e-01,5.48583e-01,9.99999e-01,9.97006e-01,5.50235e-01,9.99989e-01
5.132903260e-01,5.55812e-01,9.99999e-01,9.98286e-01,5.56766e-01,9.99998e-01
5.158567776e-01,5.62836e-01,9.99999e-01,9.99275e-01,5.63244e-01,9.99999e-01
5.184360615e-01,5.69502e-01,9.99999e-01,9.99709e-01,5.69667e-01,9.99999e-01
5.210282418e-01,5.75972e-01,9.99999e-01,9.99891e-01,5.76034e-01,9.99999e-01
5.236333830e-01,5.82090e-01,9.99999e-01,9.99566e-01,5.82344e-01,9.99996e-01
5.262515499e-01,5.88435e-01,9.99999e-01,9.99727e-01,5.88597e-01,9.99995e-01
5.288828077e-01,5.94642e-01,9.99999e-01,9.99751e-01,5.94791e-01,9.99996e-01
5.315272217e-01,6.00795e-01,9.99999e-01,9.99780e-01,6.00927e-01,9.99998e-01
5.341848578e-01,6.06916e-01,9.99999e-01,9.99856e-01,6.07002e-01,9.99999e-01
5.368557821e-01,6.12708e-01,9.99999e-01,9.99496e-01,6.13018e-01,9.99998e-01
5.395400610e-01,6.17842e-01,9.99999e-01,9.98189e-01,6.18972e-01,9.99984e-01
5.422377613e-01,6.23365e-01,9.99999e-01,9.97641e-01,6.24865e-01,9.99956e-01
5.449489501e-01,6.29290e-01,9.99999e-01,9.97815e-01,6.30695e-01,9.99955e-01
5.476736949e-01,6.35213e-01,9.99999e-01,9.98055e-01,6.36464e-01,9.99977e-01
5.504120634e-01,6.41260e-01,9.99999e-01,9.98589e-01,6.42169e-01,9.99993e-01
5.531641237e-01,6.47352e-01,9.99999e-01,9.99289e-01,6.47812e-01,9.99998e-01
5.559299443e-01,6.53167e-01,9.99999e-01,9.99656e-01,6.53391e-01,9.99999e-01
5.587095940e-01,6.58766e-01,9.99999e-01,9.99785e-01,6.58907e-01,9.99999e-01
5.615031420e-01,6.64200e-01,9.99999e-01,9.99760e-01,6.64359e-01,9.99999e-01
5.643106577e-01,6.69566e-01,9.99999e-01,9.99731e-01,6.69747e-01,9.99997e-01
5.671322110e-01,6.72859e-01,9.99999e-01,9.96751e-01,6.75071e-01,9.99970e-01
5.699678720e-01,6.77882e-01,9.99999e-01,9.96488e-01,6.80331e-01,9.99910e-01
5.728177114e-01,6.82983e-01,9.99999e-01,9.96363e-01,6.85527e-01,9.99925e-01
5.756818000e-01,6.88319e-01,9.99999e-01,9.96658e-01,6.90658e-01,9.99953e-01
5.785602090e-01,6.93688e-01,9.99999e-01,9.97083e-01,6.95726e-01,9.99985e-01
5.814530100e-01,6.98676e-01,9.99999e-01,9.97074e-01,7.00730e-01,9.99993e-01
5.843602750e-01,7.03208e-01,9.99999e-01,9.96531e-01,7.05669e-01,9.99980e-01
5.872820764e-01,6.89509e-01,9.99999e-01,9.70598e-01,7.10545e-01,9.99788e-01
5.902184868e-01,6.89314e-01,9.99999e-01,9.64148e-01,7.15357e-01,9.99424e-01
5.931695792e-01,7.01463e-01,9.99999e-01,9.74655e-01,7.20106e-01,9.99439e-01
5.961354271e-01,7.04377e-01,9.99999e-01,9.72161e-01,7.24792e-01,9.99661e-01
5.991161043e-01,7.14455e-01,9.99999e-01,9.79586e-01,7.29415e-01,9.99901e-01
6.021116848e-01,7.25421e-01,9.99999e-01,9.88357e-01,7.33975e-01,9.99987e-01
6.051222432e-01,7.34108e-01,9.99999e-01,9.94090e-01,7.38472e-01,9.99998e-01
6.081478544e-01,7.41013e-01,9.99999e-01,9.97448e-01,7.42908e-01,9.99999e-01
6.111885937e-01,7.46474e-01,9.99999e-01,9.98918e-01,7.47282e-01,9.99999e-01
6.142445367e-01,7.51231e-01,9.99999e-01,9.99517e-01,7.51594e-01,9.99999e-01
6.173157594e-01,7.55644e-01,9.99999e-01,9.99733e-01,7.55845e-01,9.99999e-01
6.204023382e-01,7.59865e-01,9.99999e-01,9.99775e-01,7.60036e-01,9.99999e-01
6.235043498e-01,7.63415e-01,9.99999e-01,9.99019e-01,7.64166e-01,9.99997e-01
6.266218716e-01,7.64191e-01,9.99999e-01,9.94769e-01,7.68237e-01,9.99962e-01
6.297549810e-01,7.70709e-01,9.99999e-01,9.98079e-01,7.72248e-01,9.99925e-01
6.329037559e-01,7.73205e-01,9.99999e-01,9.96198e-01,7.76201e-01,9.99940e-01
6.360682746e-01,7.77549e-01,9.99999e-01,9.96770e-01,7.80095e-01,9.99964e-01
6.392486160e-01,7.80635e-01,9.99999e-01,9.95811e-01,7.83931e-01,9.99984e-01
6.424448591e-01,7.83300e-01,9.99999e-01,9.94426e-01,7.87709e-01,9.99974e-01
6.456570834e-01,7.71065e-01,9.99999e-01,9.74407e-01,7.91431e-01,9.99855e-01
6.488853688e-01,7.79759e-01,9.99999e-01,9.81105e-01,7.95096e-01,9.99595e-01
6.521297956e-01,7.83078e-01,9.99999e-01,9.80765e-01,7.98705e-01,9.99660e-01
6.553904446e-01,7.86752e-01,9.99999e-01,9.80918e-01,8.02259e-01,9.99745e-01
6.586673968e-01,7.92430e-01,9.99999e-01,9.83540e-01,8.05758e-01,9.99916e-01
6.619607338e-01,8.01455e-01,9.99999e-01,9.90442e-01,8.09203e-01,9.99981e-01
6.652705375e-01,8.08075e-01,9.99999e-01,9.94447e-01,8.12594e-01,9.99990e-01
6.685968902e-01,8.13824e-01,9.99999e-01,9.97418e-01,8.15931e-01,9.99998e-01
6.719398746e-01,8.18235e-01,9.99999e-01,9.98801e-01,8.19217e-01,9.99999e-01
6.752995740e-01,8.21917e-01,9.99999e-01,9.99352e-01,8.22450e-01,9.99999e-01
6.786760719e-01,8.24861e-01,9.99999e-01,9.99068e-01,8.25631e-01,9.99998e-01
6.820694522e-01,8.27432e-01,9.99999e-01,9.98402e-01,8.28762e-01,9.99991e-01
6.854797995e-01,8.30115e-01,9.99999e-01,9.97941e-01,8.31842e-01,9.99981e-01
6.889071985e-01,8.30721e-01,9.99999e-01,9.95070e-01,8.34873e-01,9.99954e-01
6.923517345e-01,7.72543e-01,9.99999e-01,9.22409e-01,8.37854e-01,9.99609e-01
6.958134932e-01,8.05181e-01,9.99999e-01,9.58495e-01,8.40787e-01,9.99118e-01
6.992925606e-01,8.09915e-01,9.99999e-01,9.60731e-01,8.43672e-01,9.99224e-01
7.027890234e-01,8.04988e-01,9.99999e-01,9.51515e-01,8.46510e-01,9.99404e-01
7.063029686e-01,8.14253e-01,9.99999e-01,9.59016e-01,8.49301e-01,9.99703e-01
7.098344834e-01,8.18346e-01,9.99999e-01,9.60616e-01,8.52045e-01,9.99824e-01
7.133836558e-01,8.10462e-01,9.99999e-01,9.48521e-01,8.54744e-01,9.99651e-01
7.169505741e-01,5.68369e-01,9.99999e-01,6.64717e-01,8.57398e-01,9.97264e-01
7.205353270e-01,6.97096e-01,9.99999e-01,8.14495e-01,8.60008e-01,9.95178e-01
7.241380036e-01,6.62299e-01,9.99999e-01,7.71028e-01,8.62573e-01,9.95834e-01
7.277586936e-01,6.81906e-01,9.99999e-01,7.90936e-01,8.65096e-01,9.96593e-01
7.313974871e-01,6.72538e-01,9.99999e-01,7.76431e-01,8.67576e-01,9.98403e-01
7.350544745e-01,7.56675e-01,9.99999e-01,8.70209e-01,8.70013e-01,9.99444e-01
7.387297469e-01,7.86874e-01,9.99999e-01,9.02183e-01,8.72410e-01,9.99745e-01
7.424233956e-01,8.31582e-01,9.99999e-01,9.50681e-01,8.74765e-01,9.99950e-01
7.461355126e-01,8.50600e-01,9.99999e-01,9.69817e-01,8.77080e-01,9.99990e-01
7.498661902e-01,8.66872e-01,9.99999e-01,9.85806e-01,8.79355e-01,9.99996e-01
7.536155211e-01,8.75439e-01,9.99999e-01,9.93023e-01,8.81591e-01,9.99997e-01
7.573835987e-01,8.80608e-01,9.99999e-01,9.96401e-01,8.83788e-01,9.99999e-01
7.611705167e-01,8.83966e-01,9.99999e-01,9.97763e-01,8.85948e-01,9.99999e-01
7.649763693e-01,8.86825e-01,9.99999e-01,9.98598e-01,8.88069e-01,9.99999e-01
7.688012511e-01,8.89286e-01,9.99999e-01,9.99024e-01,8.90154e-01,9.99999e-01
7.726452574e-01,8.91487e-01,9.99999e-01,9.99197e-01,8.92202e-01,9.99999e-01
7.765084837e-01,8.93199e-01,9.99999e-01,9.98864e-01,8.94215e-01,9.99998e-01
7.803910261e-01,8.91803e-01,9.99999e-01,9.95107e-01,8.96192e-01,9.99994e-01
7.842929812e-01,8.82874e-01,9.99999e-01,9.83040e-01,8.98134e-01,9.99967e-01
7.882144461e-01,8.68523e-01,9.99999e-01,9.65188e-01,9.00042e-01,9.99783e-01
7.921555184e-01,8.84159e-01,9.99999e-01,9.80722e-01,9.01916e-01,9.99580e-01
7.961162960e-01,8.73052e-01,9.99999e-01,9.66412e-01,9.03757e-01,9.99598e-01
8.000968774e-01,8.69944e-01,9.99999e-01,9.61073e-01,9.05565e-01,9.99572e-01
8.040973618e-01,8.71774e-01,9.99999e-01,9.61126e-01,9.07341e-01,9.99660e-01
8.081178486e-01,8.31951e-01,9.99999e-01,9.15441e-01,9.09086e-01,9.99681e-01
8.121584379e-01,6.34208e-01,9.99999e-01,6.97191e-01,9.10799e-01,9.98750e-01
8.162192301e-01,5.92144e-01,9.99999e-01,6.51996e-01,9.12481e-01,9.95308e-01
8.203003262e-01,7.42755e-01,9.99999e-01,8.17009e-01,9.14134e-01,9.94508e-01
8.244018279e-01,6.90866e-01,9.99999e-01,7.57734e-01,9.15756e-01,9.95627e-01
8.285238370e-01,7.05956e-01,9.99999e-01,7.72213e-01,9.17349e-01,9.96564e-01
8.326664562e-01,7.07107e-01,9.99999e-01,7.70598e-01,9.18914e-01,9.98577e-01
8.368297885e-01,7.61448e-01,9.99999e-01,8.27524e-01,9.20450e-01,9.99674e-01
8.410139374e-01,8.23275e-01,9.99999e-01,8.93132e-01,9.21958e-01,9.99809e-01
8.452190071e-01,8.73360e-01,9.99999e-01,9.45875e-01,9.23439e-01,9.99885e-01
8.494451021e-01,8.95440e-01,9.99999e-01,9.68242e-01,9.24893e-01,9.99908e-01
8.536923276e-01,9.08726e-01,9.99999e-01,9.81064e-01,9.26321e-01,9.99939e-01
8.579607893e-01,9.16867e-01,9.99999e-01,9.88314e-01,9.27722e-01,9.99983e-01
8.622505932e-01,9.22176e-01,9.99999e-01,9.92551e-01,9.29098e-01,9.99997e-01
8.665618462e-01,9.26164e-01,9.99999e-01,9.95395e-01,9.30448e-01,9.99998e-01
8.708946554e-01,9.26867e-01,9.99999e-01,9.94736e-01,9.31774e-01,9.99996e-01
8.752491287e-01,9.26500e-01,9.99999e-01,9.92959e-01,9.33076e-01,9.99992e-01
8.796253743e-01,9.25253e-01,9.99999e-01,9.90281e-01,9.34353e-01,9.99977e-01
8.840235012e-01,9.25163e-01,9.99999e-01,9.88904e-01,9.35607e-01,9.99931e-01
8.884436187e-01,9.00109e-01,9.99999e-01,9.60980e-01,9.36838e-01,9.99806e-01
8.928858368e-01,6.23341e-01,9.99999e-01,6.65252e-01,9.38046e-01,9.98884e-01
8.973502660e-01,4.56511e-01,9.99999e-01,4.88835e-01,9.39232e-01,9.94295e-01
9.018370173e-01,6.45725e-01,9.99999e-01,6.92856e-01,9.40396e-01,9.91045e-01
9.063462024e-01,6.75754e-01,9.99999e-01,7.23405e-01,9.41538e-01,9.92129e-01
9.108779334e-01,5.64337e-01,9.99999e-01,6.03600e-01,9.42659e-01,9.91823e-01
9.154323231e-01,5.24439e-01,9.99999e-01,5.59474e-01,9.43759e-01,9.93236e-01
9.200094847e-01,5.99684e-01,9.99999e-01,6.37109e-01,9.44839e-01,9.96208e-01
9.246095321e-01,4.91014e-01,9.99999e-01,5.21374e-01,9.45898e-01,9.95633e-01
9.292325798e-01,3.16500e-02,9.99999e-01,3.39988e-02,9.46938e-01,9.83077e-01
9.338787427e-01,6.55960e-03,9.99999e-01,7.42555e-03,9.47958e-01,9.31877e-01
9.385481364e-01,1.18118e-01,9.99999e-01,1.35367e-01,9.48959e-01,9.19511e-01
9.432408771e-01,6.60879e-02,9.99999e-01,7.47936e-02,9.49942e-01,9.30164e-01
9.479570815e-01,1.97690e-02,9.99999e-01,2.20514e-02,9.50906e-01,9.42783e-01
9.526968669e-01,4.58949e-02,9.99999e-01,4.99806e-02,9.51852e-01,9.64701e-01
9.574603512e-01,5.32199e-02,9.99999e-01,5.68864e-02,9.52780e-01,9.81911e-01
9.622476530e-01,8.45692e-02,9.99999e-01,8.98020e-02,9.53691e-01,9.87456e-01
9.670588912e-01,2.28142e-01,9.99999e-01,2.41068e-01,9.54585e-01,9.91404e-01
9.718941857e-01,3.63097e-01,9.99999e-01,3.82445e-01,9.55461e-01,9.93665e-01
9.767536566e-01,4.27221e-01,9.99999e-01,4.48908e-01,9.56322e-01,9.95155e-01
9.816374249e-01,5.22082e-01,9.99999e-01,5.46363e-01,9.57166e-01,9.98320e-01
9.865456120e-01,6.53806e-01,9.99999e-01,6.82712e-01,9.57994e-01,9.99649e-01
9.914783401e-01,7.55917e-01,9.99999e-01,7.88469e-01,9.58806e-01,9.99902e-01
9.964357318e-01,8.42923e-01,9.99999e-01,8.78457e-01,9.59603e-01,9.99942e-01
1.001417910e+00,8.88381e-01,9.99999e-01,9.25105e-01,9.60385e-01,9.99912e-01
1.006425000e+00,9.19313e-01,9.99999e-01,9.56587e-01,9.61152e-01,9.99876e-01
1.011457125e+00,9.35630e-01,9.99999e-01,9.72796e-01,9.61904e-01,9.99885e-01
1.016514411e+00,9.44719e-01,9.99999e-01,9.81459e-01,9.62643e-01,9.99918e-01
1.021596983e+00,9.49037e-01,9.99999e-01,9.85204e-01,9.63367e-01,9.99918e-01
1.026704968e+00,9.52886e-01,9.99999e-01,9.88444e-01,9.64077e-01,9.99945e-01
1.031838492e+00,9.56638e-01,9.99999e-01,9.91580e-01,9.64774e-01,9.99984e-01
1.036997685e+00,9.60626e-01,9.99999e-01,9.94996e-01,9.65458e-01,9.99997e-01
1.042182673e+00,9.60378e-01,9.99999e-01,9.94048e-01,9.66128e-01,9.99998e-01
1.047393587e+00,9.59155e-01,9.99999e-01,9.92107e-01,9.66786e-01,9.99998e-01
1.052630555e+00,9.56974e-01,9.99999e-01,9.89192e-01,9.67431e-01,9.99996e-01
1.057893707e+00,9.50676e-01,9.99999e-01,9.82044e-01,9.68064e-01,9.99993e-01
1.063183176e+00,9.40223e-01,9.99999e-01,9.70632e-01,9.68685e-01,9.99983e-01
1.068499092e+00,9.22084e-01,9.99999e-01,9.51325e-01,9.69294e-01,9.99965e-01
1.073841587e+00,9.15058e-01,9.99999e-01,9.43533e-01,9.69891e-01,9.99925e-01
1.079210795e+00,9.00368e-01,9.99999e-01,9.27942e-01,9.70477e-01,9.99799e-01
1.084606849e+00,8.67115e-01,9.99999e-01,8.93394e-01,9.71052e-01,9.99519e-01
1.090029883e+00,8.26843e-01,9.99999e-01,8.51846e-01,9.71615e-01,9.99003e-01
1.095480033e+00,6.27680e-01,9.99999e-01,6.46813e-01,9.72168e-01,9.98198e-01
1.100957433e+00,3.33164e-01,9.99999e-01,3.43649e-01,9.72710e-01,9.96687e-01
1.106462220e+00,8.25474e-02,9.99999e-01,8.52955e-02,9.73242e-01,9.94387e-01
1.111994531e+00,6.49000e-03,9.99999e-01,6.76518e-03,9.73764e-01,9.85169e-01
1.117554504e+00,5.44817e-04,9.99999e-01,5.90195e-04,9.74275e-01,9.47485e-01
1.123142276e+00,6.21048e-03,9.99999e-01,7.24061e-03,9.74777e-01,8.79921e-01
1.128757988e+00,1.99761e-02,9.99999e-01,2.37496e-02,9.75269e-01,8.62442e-01
1.134401778e+00,1.11986e-02,9.99999e-01,1.30159e-02,9.75751e-01,8.81761e-01
1.140073787e+00,7.81018e-02,9.99999e-01,8.84656e-02,9.76224e-01,9.04349e-01
1.145774156e+00,1.24481e-02,9.99999e-01,1.39738e-02,9.76689e-01,9.12078e-01
1.151503026e+00,7.13241e-03,9.99999e-01,7.68321e-03,9.77144e-01,9.50024e-01
1.157260541e+00,9.15015e-03,9.99999e-01,9.50448e-03,9.77590e-01,9.84787e-01
1.163046844e+00,3.00899e-02,9.99999e-01,3.08998e-02,9.78028e-01,9.95664e-01
1.168862078e+00,7.59417e-02,9.99999e-01,7.77875e-02,9.78457e-01,9.97764e-01
1.174706389e+00,1.96861e-01,9.99999e-01,2.01706e-01,9.78878e-01,9.97037e-01
1.180579921e+00,3.61460e-01,9.99999e-01,3.70763e-01,9.79291e-01,9.95523e-01
1.186482820e+00,5.49668e-01,9.99999e-01,5.63649e-01,9.79696e-01,9.95405e-01
1.192415234e+00,6.96938e-01,9.99999e-01,7.13549e-01,9.80093e-01,9.96557e-01
1.198377311e+00,7.35861e-01,9.99999e-01,7.52957e-01,9.80482e-01,9.96747e-01
1.204369197e+00,7.49584e-01,9.99999e-01,7.66462e-01,9.80864e-01,9.97057e-01
1.210391043e+00,7.58272e-01,9.99999e-01,7.74156e-01,9.81238e-01,9.98208e-01
1.216442998e+00,7.88470e-01,9.99999e-01,8.04126e-01,9.81605e-01,9.98902e-01
1.222525213e+00,8.27371e-01,9.99999e-01,8.43141e-01,9.81965e-01,9.99317e-01
1.228637839e+00,8.72169e-01,9.99999e-01,8.88149e-01,9.82318e-01,9.99682e-01
1.234781029e+00,8.99710e-01,9.99999e-01,9.15664e-01,9.82665e-01,9.99909e-01
1.240954934e+00,9.29710e-01,9.99999e-01,9.45808e-01,9.83004e-01,9.99974e-01
1.247159708e+00,9.41514e-01,9.99999e-01,9.57483e-01,9.83337e-01,9.99983e-01
1.253395507e+00,9.46451e-01,9.99999e-01,9.62189e-01,9.83663e-01,9.99978e-01
1.259662485e+00,9.48618e-01,9.99999e-01,9.64090e-01,9.83983e-01,9.99965e-01
1.265960797e+00,9.28373e-01,9.99999e-01,9.43236e-01,9.84297e-01,9.99943e-01
1.272290601e+00,9.03614e-01,9.99999e-01,9.17833e-01,9.84605e-01,9.99899e-01
1.278652054e+00,8.22692e-01,9.99999e-01,8.35446e-01,9.84907e-01,9.99822e-01
1.285045314e+00,7.44001e-01,9.99999e-01,7.55424e-01,9.85203e-01,9.99669e-01
1.291470541e+00,5.62295e-01,9.99999e-01,5.70902e-01,9.85493e-01,9.99420e-01
1.297927893e+00,4.79814e-01,9.99999e-01,4.87264e-01,9.85777e-01,9.98917e-01
1.304417533e+00,3.92987e-01,9.99999e-01,3.99458e-01,9.86056e-01,9.97709e-01
1.310939621e+00,3.45113e-01,9.99999e-01,3.51547e-01,9.86330e-01,9.95302e-01
1.317494319e+00,3.16125e-01,9.99999e-01,3.23222e-01,9.86598e-01,9.91328e-01
1.324081790e+00,1.92741e-01,9.99999e-01,1.98104e-01,9.86861e-01,9.85880e-01
1.330702199e+00,2.58602e-02,9.99999e-01,2.68479e-02,9.87119e-01,9.75777e-01
1.337355710e+00,1.44276e-06,9.99999e-01,1.53186e-06,9.87372e-01,9.53875e-01
1.344042489e+00,1.35107e-09,9.99999e-01,1.57710e-09,9.87619e-01,8.67417e-01
1.350762701e+00,3.89741e-32,9.99999e-01,6.42053e-32,9.87862e-01,6.14481e-01
1.357516515e+00,5.51723e-49,9.99999e-01,2.33132e-48,9.88101e-01,2.39506e-01
1.364304097e+00,3.88403e-30,9.99999e-01,4.81031e-29,9.88334e-01,8.16968e-02
1.371125618e+00,3.74517e-18,9.99999e-01,4.01827e-17,9.88564e-01,9.42815e-02
1.377981246e+00,1.66575e-17,9.99999e-01,1.27533e-16,9.88788e-01,1.32095e-01
1.384871152e+00,1.06069e-24,9.99999e-01,7.21784e-24,9.89008e-01,1.48587e-01
1.391795508e+00,2.42165e-30,9.99999e-01,1.48806e-29,9.89224e-01,1.64512e-01
1.398754485e+00,5.00636e-23,9.99999e-01,2.23434e-22,9.89436e-01,2.26456e-01
1.405748258e+00,9.52515e-23,9.99999e-01,2.29333e-22,9.89644e-01,4.19688e-01
1.412776999e+00,6.32959e-22,9.99998e-01,9.50533e-22,9.89847e-01,6.72728e-01
1.419840884e+00,1.13941e-21,9.99998e-01,1.36934e-21,9.90047e-01,8.40451e-01
1.426940089e+00,3.64751e-14,9.99998e-01,4.20343e-14,9.90242e-01,8.76295e-01
1.434074789e+00,1.30101e-12,9.99998e-01,1.53507e-12,9.90434e-01,8.55708e-01
1.441245163e+00,2.05920e-10,9.99998e-01,2.46088e-10,9.90622e-01,8.44692e-01
1.448451389e+00,5.11709e-07,9.99997e-01,5.98709e-07,9.90806e-01,8.62616e-01
1.455693646e+00,5.22323e-05,9.99998e-01,5.91304e-05,9.90987e-01,8.91372e-01
1.462972114e+00,7.20549e-05,9.99999e-01,8.11235e-05,9.91164e-01,8.96129e-01
1.470286975e+00,2.21624e-05,9.99999e-01,2.49007e-05,9.91338e-01,8.97804e-01
