#,Wave/freq,Total,N2,H2O,Rayleigh,CIA
4.000000000e-01,8.64595e-01,9.99999e-01,9.99983e-01,8.64609e-01,9.99999e-01
4.020000000e-01,8.67091e-01,9.99999e-01,9.99989e-01,8.67100e-01,9.99999e-01
4.040100000e-01,8.69542e-01,9.99999e-01,9.99995e-01,8.69546e-01,9.99999e-01
4.060300500e-01,8.71949e-01,9.99999e-01,9.99998e-01,8.71950e-01,9.99999e-01
4.080602003e-01,8.74313e-01,9.99999e-01,9.99999e-01,8.74313e-01,9.99999e-01
4.101005013e-01,8.76636e-01,9.99999e-01,9.99999e-01,8.76636e-01,9.99999e-01
4.121510038e-01,8.78918e-01,9.99999e-01,9.99998e-01,8.78919e-01,9.99999e-01
4.142117588e-01,8.81158e-01,9.99999e-01,9.99995e-01,8.81162e-01,9.99999e-01
4.162828176e-01,8.83349e-01,9.99999e-01,9.99979e-01,8.83367e-01,9.99999e-01
4.183642317e-01,8.85523e-01,9.99999e-01,9.99987e-01,8.85533e-01,9.99999e-01
4.204560528e-01,8.87656e-01,9.99999e-01,9.99992e-01,8.87662e-01,9.99999e-01
4.225583331e-01,8.89752e-01,9.99999e-01,9.99996e-01,8.89754e-01,9.99999e-01
4.246711247e-01,8.91807e-01,9.99999e-01,9.99997e-01,8.91809e-01,9.99999e-01
4.267944804e-01,8.93826e-01,9.99999e-01,9.99996e-01,8.93829e-01,9.99999e-01
4.289284528e-01,8.95810e-01,9.99999e-01,9.99996e-01,8.95812e-01,9.99999e-01
4.310730950e-01,8.97760e-01,9.99999e-01,9.99998e-01,8.97761e-01,9.99999e-01
4.332284605e-01,8.99676e-01,9.99999e-01,9.99999e-01,8.99676e-01,9.99999e-01
4.353946028e-01,9.01556e-01,9.99999e-01,9.99999e-01,9.01557e-01,9.99999e-01
4.375715758e-01,9.03402e-01,9.99999e-01,9.99997e-01,9.03404e-01,9.99999e-01
4.397594337e-01,9.05203e-01,9.99999e-01,9.99981e-01,9.05218e-01,9.99999e-01
4.419582309e-01,9.06920e-01,9.99999e-01,9.99910e-01,9.07001e-01,9.99999e-01
4.441680220e-01,9.08686e-01,9.99999e-01,9.99928e-01,9.08751e-01,9.99999e-01
4.463888621e-01,9.10403e-01,9.99999e-01,9.99925e-01,9.10470e-01,9.99999e-01
4.486208064e-01,9.12117e-01,9.99999e-01,9.99953e-01,9.12159e-01,9.99999e-01
4.508639105e-01,9.13797e-01,9.99999e-01,9.99977e-01,9.13817e-01,9.99999e-01
4.531182300e-01,9.15437e-01,9.99999e-01,9.99990e-01,9.15445e-01,9.99999e-01
4.553838212e-01,9.17038e-01,9.99999e-01,9.99993e-01,9.17044e-01,9.99999e-01
4.576607403e-01,9.18611e-01,9.99999e-01,9.99996e-01,9.18614e-01,9.99999e-01
4.599490440e-01,9.20154e-01,9.99999e-01,9.99997e-01,9.20155e-01,9.99999e-01
4.622487892e-01,9.21669e-01,9.99999e-01,9.99999e-01,9.21669e-01,9.99999e-01
4.645600332e-01,9.23154e-01,9.99999e-01,9.99998e-01,9.23155e-01,9.99999e-01
4.668828333e-01,9.24594e-01,9.99999e-01,9.99978e-01,9.24614e-01,9.99999e-01
4.692172475e-01,9.26004e-01,9.99999e-01,9.99953e-01,9.26047e-01,9.99999e-01
4.715633337e-01,9.27425e-01,9.99999e-01,9.99969e-01,9.27453e-01,9.99999e-01
4.739211504e-01,9.28807e-01,9.99999e-01,9.99970e-01,9.28834e-01,9.99999e-01
4.762907561e-01,9.30175e-01,9.99999e-01,9.99984e-01,9.30189e-01,9.99999e-01
4.786722099e-01,9.31514e-01,9.99999e-01,9.99993e-01,9.31520e-01,9.99999e-01
4.810655710e-01,9.32824e-01,9.99999e-01,9.99997e-01,9.32826e-01,9.99999e-01
4.834708988e-01,9.34092e-01,9.99999e-01,9.99982e-01,9.34108e-01,9.99999e-01
4.858882533e-01,9.35336e-01,9.99999e-01,9.99966e-01,9.35367e-01,9.99999e-01
4.883176946e-01,9.36576e-01,9.99999e-01,9.99972e-01,9.36602e-01,9.99999e-01
4.907592831e-01,9.37791e-01,9.99999e-01,9.99974e-01,9.37814e-01,9.99999e-01
4.932130795e-01,9.38988e-01,9.99999e-01,9.99981e-01,9.39004e-01,9.99999e-01
4.956791449e-01,9.40164e-01,9.99999e-01,9.99990e-01,9.40172e-01,9.99999e-01
4.981575406e-01,9.41275e-01,9.99999e-01,9.99953e-01,9.41319e-01,9.99999e-01
5.006483283e-01,9.42331e-01,9.99999e-01,9.99880e-01,9.42444e-01,9.99998e-01
5.031515699e-01,9.42968e-01,9.99999e-01,9.99390e-01,9.43548e-01,9.99993e-01
5.056673278e-01,9.44320e-01,9.99999e-01,9.99677e-01,9.44632e-01,9.99992e-01
5.081956644e-01,9.45306e-01,9.99999e-01,9.99592e-01,9.45695e-01,9.99994e-01
5.107366428e-01,9.46477e-01,9.99999e-01,9.99724e-01,9.46739e-01,9.99998e-01
5.132903260e-01,9.47613e-01,9.99999e-01,9.99842e-01,9.47763e-01,9.99999e-01
5.158567776e-01,9.48704e-01,9.99999e-01,9.99932e-01,9.48767e-01,9.99999e-01
5.184360615e-01,9.49728e-01,9.99999e-01,9.99972e-01,9.49754e-01,9.99999e-01
5.210282418e-01,9.50712e-01,9.99999e-01,9.99989e-01,9.50721e-01,9.99999e-01
5.236333830e-01,9.51633e-01,9.99999e-01,9.99959e-01,9.51671e-01,9.99999e-01
5.262515499e-01,9.52578e-01,9.99999e-01,9.99974e-01,9.52602e-01,9.99999e-01
5.288828077e-01,9.53494e-01,9.99999e-01,9.99976e-01,9.53516e-01,9.99999e-01
5.315272217e-01,9.54394e-01,9.99999e-01,9.99979e-01,9.54413e-01,9.99999e-01
5.341848578e-01,9.55281e-01,9.99999e-01,9.99986e-01,9.55293e-01,9.99999e-01
5.368557821e-01,9.56113e-01,9.99999e-01,9.99953e-01,9.56157e-01,9.99999e-01
5.395400610e-01,9.56845e-01,9.99999e-01,9.99834e-01,9.57004e-01,9.99998e-01
5.422377613e-01,9.57624e-01,9.99999e-01,9.99782e-01,9.57835e-01,9.99995e-01
5.449489501e-01,9.58455e-01,9.99999e-01,9.99799e-01,9.58650e-01,9.99995e-01
5.476736949e-01,9.59277e-01,9.99999e-01,9.99820e-01,9.59450e-01,9.99997e-01
5.504120634e-01,9.60110e-01,9.99999e-01,9.99869e-01,9.60235e-01,9.99998e-01
5.531641237e-01,9.60942e-01,9.99999e-01,9.99934e-01,9.61005e-01,9.99999e-01
5.559299443e-01,9.61730e-01,9.99999e-01,9.99968e-01,9.61760e-01,9.99999e-01
5.587095940e-01,9.62482e-01,9.99999e-01,9.99979e-01,9.62501e-01,9.99999e-01
5.615031420e-01,9.63207e-01,9.99999e-01,9.99977e-01,9.63228e-01,9.99999e-01
5.643106577e-01,9.63917e-01,9.99999e-01,9.99975e-01,9.63941e-01,9.99999e-01
5.671322110e-01,9.64354e-01,9.99999e-01,9.99704e-01,9.64641e-01,9.99997e-01
5.699678720e-01,9.65006e-01,9.99999e-01,9.99675e-01,9.65327e-01,9.99991e-01
5.728177114e-01,9.65671e-01,9.99999e-01,9.99666e-01,9.66000e-01,9.99992e-01
5.756818000e-01,9.66360e-01,9.99999e-01,9.99692e-01,9.66660e-01,9.99995e-01
5.785602090e-01,9.67047e-01,9.99999e-01,9.99731e-01,9.67308e-01,9.99998e-01
5.814530100e-01,9.67683e-01,9.99999e-01,9.99731e-01,9.67943e-01,9.99998e-01
5.843602750e-01,9.68258e-01,9.99999e-01,9.99682e-01,9.68566e-01,9.99997e-01
5.872820764e-01,9.66506e-01,9.99999e-01,9.97262e-01,9.69177e-01,9.99980e-01
5.902184868e-01,9.66478e-01,9.99999e-01,9.96650e-01,9.69777e-01,9.99946e-01
5.931695792e-01,9.68026e-01,9.99999e-01,9.97640e-01,9.70365e-01,9.99948e-01
5.961354271e-01,9.68395e-01,9.99999e-01,9.97407e-01,9.70942e-01,9.99968e-01
5.991161043e-01,9.69660e-01,9.99999e-01,9.98106e-01,9.71507e-01,9.99990e-01
6.021116848e-01,9.71016e-01,9.99999e-01,9.98923e-01,9.72062e-01,9.99998e-01
6.051222432e-01,9.72077e-01,9.99999e-01,9.99454e-01,9.72606e-01,9.99999e-01
6.081478544e-01,9.72912e-01,9.99999e-01,9.99764e-01,9.73140e-01,9.99999e-01
6.111885937e-01,9.73567e-01,9.99999e-01,9.99899e-01,9.73664e-01,9.99999e-01
6.142445367e-01,9.74134e-01,9.99999e-01,9.99955e-01,9.74177e-01,9.99999e-01
6.173157594e-01,9.74657e-01,9.99999e-01,9.99975e-01,9.74681e-01,9.99999e-01
6.204023382e-01,9.75154e-01,9.99999e-01,9.99978e-01,9.75174e-01,9.99999e-01
6.235043498e-01,9.75572e-01,9.99999e-01,9.99910e-01,9.75659e-01,9.99999e-01
6.266218716e-01,9.75662e-01,9.99999e-01,9.99519e-01,9.76134e-01,9.99996e-01
6.297549810e-01,9.76421e-01,9.99999e-01,9.99823e-01,9.76600e-01,9.99992e-01
6.329037559e-01,9.76710e-01,9.99999e-01,9.99650e-01,9.77056e-01,9.99994e-01
6.360682746e-01,9.77212e-01,9.99999e-01,9.99703e-01,9.77504e-01,9.99996e-01
6.392486160e-01,9.77566e-01,9.99999e-01,9.99615e-01,9.77944e-01,9.99998e-01
6.424448591e-01,9.77922e-01,9.99999e-01,9.99538e-01,9.78375e-01,9.99997e-01
6.456570834e-01,9.76485e-01,9.99999e-01,9.97650e-01,9.78797e-01,9.99986e-01
6.488853688e-01,9.77156e-01,9.99999e-01,9.97937e-01,9.79212e-01,9.99962e-01
6.521297956e-01,9.77836e-01,9.99999e-01,9.98211e-01,9.79618e-01,9.99968e-01
6.553904446e-01,9.78265e-01,9.99999e-01,9.98235e-01,9.80017e-01,9.99976e-01
6.586673968e-01,9.78903e-01,9.99999e-01,9.98472e-01,9.80407e-01,9.99991e-01
6.619607338e-01,9.79924e-01,9.99999e-01,9.99117e-01,9.80791e-01,9.99997e-01
6.652705375e-01,9.80663e-01,9.99999e-01,9.99487e-01,9.81166e-01,9.99998e-01
6.685968902e-01,9.81302e-01,9.99999e-01,9.99761e-01,9.81535e-01,9.99999e-01
6.719398746e-01,9.81788e-01,9.99999e-01,9.99889e-01,9.81896e-01,9.99999e-01
6.752995740e-01,9.82192e-01,9.99999e-01,9.99940e-01,9.82251e-01,9.99999e-01
6.786760719e-01,9.82515e-01,9.99999e-01,9.99914e-01,9.82598e-01,9.99999e-01
6.820694522e-01,9.82794e-01,9.99999e-01,9.99853e-01,9.82939e-01,9.99998e-01
6.854797995e-01,9.83086e-01,9.99999e-01,9.99810e-01,9.83273e-01,9.99997e-01
6.889071985e-01,9.83155e-01,9.99999e-01,9.99550e-01,9.83601e-01,9.99995e-01
6.923517345e-01,9.76591e-01,9.99999e-01,9.92584e-01,9.83922e-01,9.99963e-01
6.958134932e-01,9.80273e-01,9.99999e-01,9.96052e-01,9.84237e-01,9.99918e-01
6.992925606e-01,9.80865e-01,9.99999e-01,9.96331e-01,9.84546e-01,9.99928e-01
7.027890234e-01,9.80297e-01,9.99999e-01,9.95431e-01,9.84849e-01,9.99944e-01
7.063029686e-01,9.81339e-01,9.99999e-01,9.96162e-01,9.85146e-01,9.99972e-01
7.098344834e-01,9.81794e-01,9.99999e-01,9.96318e-01,9.85437e-01,9.99983e-01
7.133836558e-01,9.80925e-01,9.99999e-01,9.95164e-01,9.85723e-01,9.99967e-01
7.169505741e-01,9.47658e-01,9.99999e-01,9.61352e-01,9.86003e-01,9.99748e-01
7.205353270e-01,9.66641e-01,9.99999e-01,9.80524e-01,9.86277e-01,9.99556e-01
7.241380036e-01,9.62252e-01,9.99999e-01,9.75750e-01,9.86547e-01,9.99614e-01
7.277586936e-01,9.64860e-01,9.99999e-01,9.78068e-01,9.86811e-01,9.99679e-01
7.313974871e-01,9.63776e-01,9.99999e-01,9.76544e-01,9.87069e-01,9.99853e-01
7.350544745e-01,9.74592e-01,9.99999e-01,9.87155e-01,9.87323e-01,9.99948e-01
7.387297469e-01,9.78197e-01,9.99999e-01,9.90529e-01,9.87572e-01,9.99976e-01
7.424233956e-01,9.83214e-01,9.99999e-01,9.95345e-01,9.87816e-01,9.99995e-01
7.461355126e-01,9.85271e-01,9.99999e-01,9.97182e-01,9.88055e-01,9.99998e-01
7.498661902e-01,9.86989e-01,9.99999e-01,9.98683e-01,9.88290e-01,9.99999e-01
7.536155211e-01,9.87884e-01,9.99999e-01,9.99356e-01,9.88520e-01,9.99999e-01
7.573835987e-01,9.88417e-01,9.99999e-01,9.99668e-01,9.88745e-01,9.99999e-01
7.611705167e-01,9.88763e-01,9.99999e-01,9.99793e-01,9.88966e-01,9.99999e-01
7.649763693e-01,9.89056e-01,9.99999e-01,9.99870e-01,9.89183e-01,9.99999e-01
7.688012511e-01,9.89307e-01,9.99999e-01,9.99909e-01,9.89395e-01,9.99999e-01
7.726452574e-01,9.89531e-01,9.99999e-01,9.99925e-01,9.89604e-01,9.99999e-01
7.765084837e-01,9.89705e-01,9.99999e-01,9.99895e-01,9.89808e-01,9.99999e-01
7.803910261e-01,9.89565e-01,9.99999e-01,9.99552e-01,9.90008e-01,9.99999e-01
7.842929812e-01,9.88655e-01,9.99999e-01,9.98437e-01,9.90205e-01,9.99996e-01
7.882144461e-01,9.87161e-01,9.99999e-01,9.96751e-01,9.90397e-01,9.99979e-01
7.921555184e-01,9.88773e-01,9.99999e-01,9.98207e-01,9.90586e-01,9.99961e-01
7.961162960e-01,9.87636e-01,9.99999e-01,9.96872e-01,9.90771e-01,9.99962e-01
8.000968774e-01,9.87313e-01,9.99999e-01,9.96365e-01,9.90952e-01,9.99960e-01
8.040973618e-01,9.87502e-01,9.99999e-01,9.96370e-01,9.91130e-01,9.99968e-01
8.081178486e-01,9.83235e-01,9.99999e-01,9.91888e-01,9.91305e-01,9.99970e-01
8.121584379e-01,9.58122e-01,9.99999e-01,9.66469e-01,9.91476e-01,9.99884e-01
8.162192301e-01,9.51428e-01,9.99999e-01,9.59858e-01,9.91643e-01,9.99568e-01
8.203003262e-01,9.71620e-01,9.99999e-01,9.80139e-01,9.91808e-01,9.99494e-01
8.244018279e-01,9.63343e-01,9.99999e-01,9.71532e-01,9.91969e-01,9.99597e-01
8.285238370e-01,9.68058e-01,9.99999e-01,9.76047e-01,9.92127e-01,9.99684e-01
8.326664562e-01,9.68016e-01,9.99999e-01,9.75671e-01,9.92282e-01,9.99869e-01
8.368297885e-01,9.75087e-01,9.99999e-01,9.82550e-01,9.92434e-01,9.99969e-01
8.410139374e-01,9.82240e-01,9.99999e-01,9.89596e-01,9.92583e-01,9.99982e-01
8.452190071e-01,9.87638e-01,9.99999e-01,9.94881e-01,9.92729e-01,9.99989e-01
8.494451021e-01,9.89926e-01,9.99999e-01,9.97040e-01,9.92872e-01,9.99991e-01
8.536923276e-01,9.91262e-01,9.99999e-01,9.98242e-01,9.93012e-01,9.99993e-01
8.579607893e-01,9.92077e-01,9.99999e-01,9.98921e-01,9.93149e-01,9.99998e-01
8.622505932e-01,9.92602e-01,9.99999e-01,9.99312e-01,9.93284e-01,9.99999e-01
8.665618462e-01,9.92996e-01,9.99999e-01,9.99576e-01,9.93416e-01,9.99999e-01
8.708946554e-01,9.93066e-01,9.99999e-01,9.99516e-01,9.93546e-01,9.99999e-01
8.752491287e-01,9.93029e-01,9.99999e-01,9.99352e-01,9.93673e-01,9.99998e-01
8.796253743e-01,9.92908e-01,9.99999e-01,9.99106e-01,9.93798e-01,9.99997e-01
8.840235012e-01,9.92899e-01,9.99999e-01,9.98978e-01,9.93920e-01,9.99993e-01
8.884436187e-01,9.90393e-01,9.99999e-01,9.96348e-01,9.94040e-01,9.99981e-01
8.928858368e-01,9.55822e-01,9.99999e-01,9.61537e-01,9.94157e-01,9.99897e-01
8.973502660e-01,9.26382e-01,9.99999e-01,9.32207e-01,9.94272e-01,9.99475e-01
9.018370173e-01,9.58313e-01,9.99999e-01,9.64518e-01,9.94385e-01,9.99175e-01
9.063462024e-01,9.63231e-01,9.99999e-01,9.69264e-01,9.94495e-01,9.99275e-01
9.108779334e-01,9.46347e-01,9.99999e-01,9.52197e-01,9.94604e-01,9.99247e-01
9.154323231e-01,9.40194e-01,9.99999e-01,9.45782e-01,9.94710e-01,9.99377e-01
9.200094847e-01,9.51853e-01,9.99999e-01,9.57147e-01,9.94814e-01,9.99651e-01
9.246095321e-01,9.29849e-01,9.99999e-01,9.34974e-01,9.94916e-01,9.99598e-01
9.292325798e-01,6.28969e-01,9.99999e-01,6.33109e-01,9.95017e-01,9.98435e-01
9.338787427e-01,5.44475e-01,9.99999e-01,5.50699e-01,9.95115e-01,9.93551e-01
9.385481364e-01,7.76382e-01,9.99999e-01,7.86143e-01,9.95211e-01,9.92334e-01
9.432408771e-01,7.09155e-01,9.99999e-01,7.17245e-01,9.95305e-01,9.93383e-01
9.479570815e-01,6.25776e-01,9.99999e-01,6.32074e-01,9.95398e-01,9.94611e-01
9.526968669e-01,7.01835e-01,9.99999e-01,7.07342e-01,9.95489e-01,9.96709e-01
9.574603512e-01,7.24383e-01,9.99999e-01,7.28819e-01,9.95577e-01,9.98327e-01
9.622476530e-01,7.68427e-01,9.99999e-01,7.72666e-01,9.95665e-01,9.98842e-01
9.670588912e-01,8.57838e-01,9.99999e-01,8.62180e-01,9.95750e-01,9.99208e-01
9.718941857e-01,9.07423e-01,9.99999e-01,9.11749e-01,9.95834e-01,9.99417e-01
9.767536566e-01,9.22024e-01,9.99999e-01,9.26216e-01,9.95916e-01,9.99554e-01
9.816374249e-01,9.40738e-01,9.99999e-01,9.44664e-01,9.95996e-01,9.99845e-01
9.865456120e-01,9.61245e-01,9.99999e-01,9.65062e-01,9.96075e-01,9.99967e-01
9.914783401e-01,9.74511e-01,9.99999e-01,9.78282e-01,9.96153e-01,9.99990e-01
9.964357318e-01,9.84381e-01,9.99999e-01,9.88112e-01,9.96228e-01,9.99994e-01
1.001417910e+00,9.89180e-01,9.99999e-01,9.92858e-01,9.96303e-01,9.99991e-01
1.006425000e+00,9.92313e-01,9.99999e-01,9.95933e-01,9.96376e-01,9.99988e-01
1.011457125e+00,9.93913e-01,9.99999e-01,9.97466e-01,9.96447e-01,9.99989e-01
1.016514411e+00,9.94799e-01,9.99999e-01,9.98282e-01,9.96517e-01,9.99992e-01
1.021596983e+00,9.95216e-01,9.99999e-01,9.98632e-01,9.96586e-01,9.99992e-01
1.026704968e+00,9.95586e-01,9.99999e-01,9.98933e-01,9.96653e-01,9.99994e-01
1.031838492e+00,9.95944e-01,9.99999e-01,9.99223e-01,9.96719e-01,9.99998e-01
1.036997685e+00,9.96325e-01,9.99999e-01,9.99539e-01,9.96784e-01,9.99999e-01
1.042182673e+00,9.96302e-01,9.99999e-01,9.99453e-01,9.96847e-01,9.99999e-01
1.047393587e+00,9.96186e-01,9.99999e-01,9.99273e-01,9.96909e-01,9.99999e-01
1.052630555e+00,9.95978e-01,9.99999e-01,9.99004e-01,9.96970e-01,9.99999e-01
1.057893707e+00,9.95377e-01,9.99999e-01,9.98341e-01,9.97030e-01,9.99998e-01
1.063183176e+00,9.94364e-01,9.99999e-01,9.97268e-01,9.97089e-01,9.99998e-01
1.068499092e+00,9.92579e-01,9.99999e-01,9.95422e-01,9.97146e-01,9.99996e-01
1.073841587e+00,9.91865e-01,9.99999e-01,9.94654e-01,9.97202e-01,9.99992e-01
1.079210795e+00,9.90388e-01,9.99999e-01,9.93129e-01,9.97257e-01,9.99981e-01
1.084606849e+00,9.86930e-01,9.99999e-01,9.89633e-01,9.97311e-01,9.99955e-01
1.090029883e+00,9.82544e-01,9.99999e-01,9.85229e-01,9.97365e-01,9.99908e-01
1.095480033e+00,9.57532e-01,9.99999e-01,9.60170e-01,9.97416e-01,9.99834e-01
1.100957433e+00,8.99259e-01,9.99999e-01,9.01815e-01,9.97467e-01,9.99695e-01
1.106462220e+00,7.66847e-01,9.99999e-01,7.69151e-01,9.97517e-01,9.99483e-01
1.111994531e+00,5.71757e-01,9.99999e-01,5.73937e-01,9.97566e-01,9.98630e-01
1.117554504e+00,4.03733e-01,9.99999e-01,4.06704e-01,9.97614e-01,9.95065e-01
1.123142276e+00,5.07070e-01,9.99999e-01,5.14255e-01,9.97661e-01,9.88338e-01
1.128757988e+00,6.44435e-01,9.99999e-01,6.54740e-01,9.97707e-01,9.86522e-01
1.134401778e+00,3.85383e-01,9.99999e-01,3.90839e-01,9.97753e-01,9.88258e-01
1.140073787e+00,7.68178e-01,9.99999e-01,7.77194e-01,9.97797e-01,9.90580e-01
1.145774156e+00,5.83516e-01,9.99999e-01,5.89734e-01,9.97840e-01,9.91596e-01
1.151503026e+00,5.51737e-01,9.99999e-01,5.55512e-01,9.97883e-01,9.95309e-01
1.157260541e+00,6.10370e-01,9.99999e-01,6.12499e-01,9.97925e-01,9.98594e-01
1.163046844e+00,6.93826e-01,9.99999e-01,6.95517e-01,9.97966e-01,9.99601e-01
1.168862078e+00,7.75465e-01,9.99999e-01,7.77173e-01,9.98006e-01,9.99794e-01
1.174706389e+00,8.54082e-01,9.99999e-01,8.55986e-01,9.98045e-01,9.99727e-01
1.180579921e+00,9.07502e-01,9.99999e-01,9.09617e-01,9.98084e-01,9.99588e-01
1.186482820e+00,9.45780e-01,9.99999e-01,9.47959e-01,9.98122e-01,9.99577e-01
1.192415234e+00,9.67244e-01,9.99999e-01,9.69334e-01,9.98159e-01,9.99683e-01
1.198377311e+00,9.72096e-01,9.99999e-01,9.74143e-01,9.98195e-01,9.99700e-01
1.204369197e+00,9.73495e-01,9.99999e-01,9.75484e-01,9.98231e-01,9.99729e-01
1.210391043e+00,9.74688e-01,9.99999e-01,9.76541e-01,9.98265e-01,9.99835e-01
1.216442998e+00,9.78198e-01,9.99999e-01,9.79962e-01,9.98300e-01,9.99898e-01
1.222525213e+00,9.82683e-01,9.99999e-01,9.84385e-01,9.98333e-01,9.99936e-01
1.228637839e+00,9.87498e-01,9.99999e-01,9.89142e-01,9.98366e-01,9.99970e-01
1.234781029e+00,9.90320e-01,9.99999e-01,9.91916e-01,9.98398e-01,9.99991e-01
1.240954934e+00,9.93324e-01,9.99999e-01,9.94887e-01,9.98430e-01,9.99997e-01
1.247159708e+00,9.94480e-01,9.99999e-01,9.96013e-01,9.98461e-01,9.99998e-01
1.253395507e+00,9.94961e-01,9.99999e-01,9.96466e-01,9.98491e-01,9.99997e-01
1.259662485e+00,9.95201e-01,9.99999e-01,9.96677e-01,9.98521e-01,9.99996e-01
1.265960797e+00,9.93216e-01,9.99999e-01,9.94662e-01,9.98550e-01,9.99994e-01
1.272290601e+00,9.90737e-01,9.99999e-01,9.92155e-01,9.98579e-01,9.99990e-01
1.278652054e+00,9.82085e-01,9.99999e-01,9.83470e-01,9.98607e-01,9.99983e-01
1.285045314e+00,9.72792e-01,9.99999e-01,9.74151e-01,9.98634e-01,9.99969e-01
1.291470541e+00,9.47245e-01,9.99999e-01,9.48564e-01,9.98661e-01,9.99946e-01
1.297927893e+00,9.31973e-01,9.99999e-01,9.33290e-01,9.98688e-01,9.99900e-01
1.304417533e+00,9.13311e-01,9.99999e-01,9.14679e-01,9.98713e-01,9.99789e-01
1.310939621e+00,9.01901e-01,9.99999e-01,9.03429e-01,9.98739e-01,9.99567e-01
1.317494319e+00,8.93077e-01,9.99999e-01,8.94896e-01,9.98764e-01,9.99201e-01
1.324081790e+00,8.45120e-01,9.99999e-01,8.47248e-01,9.98788e-01,9.98696e-01
1.330702199e+00,5.16825e-01,9.99999e-01,5.18604e-01,9.98812e-01,9.97753e-01
1.337355710e+00,1.83157e-01,9.99999e-01,1.84166e-01,9.98835e-01,9.95678e-01
1.344042489e+00,1.47788e-02,9.99999e-01,1.49899e-02,9.98858e-01,9.87042e-01
1.350762701e+00,1.73576e-04,9.99999e-01,1.81706e-04,9.98881e-01,9.56329e-01
1.357516515e+00,5.81011e-06,9.99999e-01,6.63089e-06,9.98903e-01,8.77178e-01
1.364304097e+00,3.23280e-04,9.99999e-01,4.07182e-04,9.98925e-01,7.94799e-01
1.371125618e+00,4.11598e-03,9.99999e-01,5.11645e-03,9.98946e-01,8.05309e-01
1.377981246e+00,9.67828e-03,9.99999e-01,1.16642e-02,9.98967e-01,8.30600e-01
1.384871152e+00,3.77916e-04,9.99999e-01,4.50566e-04,9.98987e-01,8.39608e-01
1.391795508e+00,4.80394e-04,9.99999e-01,5.67410e-04,9.99007e-01,8.47483e-01
1.398754485e+00,1.60364e-03,9.99999e-01,1.83938e-03,9.99027e-01,8.72683e-01
1.405748258e+00,1.61143e-03,9.99999e-01,1.74662e-03,9.99046e-01,9.23475e-01
1.412776999e+00,1.72229e-03,9.99999e-01,1.78771e-03,9.99065e-01,9.64304e-01
1.419840884e+00,2.75575e-03,9.99999e-01,2.80258e-03,9.99083e-01,9.84188e-01
1.426940089e+00,9.52459e-03,9.99999e-01,9.64928e-03,9.99101e-01,9.87964e-01
1.434074789e+00,2.86929e-02,9.99999e-01,2.91315e-02,9.99119e-01,9.85813e-01
1.441245163e+00,6.61359e-02,9.99999e-01,6.72254e-02,9.99136e-01,9.84642e-01
1.448451389e+00,1.44126e-01,9.99999e-01,1.46216e-01,9.99153e-01,9.86540e-01
1.455693646e+00,2.76487e-01,9.99999e-01,2.79650e-01,9.99170e-01,9.89511e-01
1.462972114e+00,3.32604e-01,9.99999e-01,3.36239e-01,9.99186e-01,9.89993e-01
1.470286975e+00,2.76966e-01,9.99999e-01,2.79941e-01,9.99202e-01,9.90163e-01
