#,Wave/freq,Total,N2,H2O,Rayleigh,CIA
4.000000000e-01,6.64622e-01,9.99999e-01,9.99953e-01,6.64652e-01,9.99999e-01
4.020000000e-01,6.70023e-01,9.99999e-01,9.99970e-01,6.70043e-01,9.99999e-01
4.040100000e-01,6.75355e-01,9.99999e-01,9.99987e-01,6.75363e-01,9.99999e-01
4.060300500e-01,6.80617e-01,9.99999e-01,9.99996e-01,6.80619e-01,9.99999e-01
4.080602003e-01,6.85811e-01,9.99999e-01,9.99998e-01,6.85812e-01,9.99999e-01
4.101005013e-01,6.90940e-01,9.99999e-01,9.99999e-01,6.90940e-01,9.99999e-01
4.121510038e-01,6.96003e-01,9.99999e-01,9.99997e-01,6.96004e-01,9.99999e-01
4.142117588e-01,7.00995e-01,9.99999e-01,9.99986e-01,7.01004e-01,9.99999e-01
4.162828176e-01,7.05900e-01,9.99999e-01,9.99942e-01,7.05940e-01,9.99999e-01
4.183642317e-01,7.10788e-01,9.99999e-01,9.99965e-01,7.10812e-01,9.99999e-01
4.204560528e-01,7.15606e-01,9.99999e-01,9.99978e-01,7.15621e-01,9.99999e-01
4.225583331e-01,7.20361e-01,9.99999e-01,9.99991e-01,7.20367e-01,9.99999e-01
4.246711247e-01,7.25044e-01,9.99999e-01,9.99993e-01,7.25049e-01,9.99999e-01
4.267944804e-01,7.29661e-01,9.99999e-01,9.99990e-01,7.29668e-01,9.99999e-01
4.289284528e-01,7.34219e-01,9.99999e-01,9.99992e-01,7.34225e-01,9.99999e-01
4.310730950e-01,7.38717e-01,9.99999e-01,9.99996e-01,7.38719e-01,9.99999e-01
4.332284605e-01,7.43150e-01,9.99999e-01,9.99998e-01,7.43151e-01,9.99999e-01
4.353946028e-01,7.47521e-01,9.99999e-01,9.99999e-01,7.47521e-01,9.99999e-01
4.375715758e-01,7.51826e-01,9.99999e-01,9.99993e-01,7.51830e-01,9.99999e-01
4.397594337e-01,7.56041e-01,9.99999e-01,9.99949e-01,7.56078e-01,9.99999e-01
4.419582309e-01,7.60073e-01,9.99999e-01,9.99746e-01,7.60266e-01,9.99999e-01
4.441680220e-01,7.64241e-01,9.99999e-01,9.99800e-01,7.64393e-01,9.99999e-01
4.463888621e-01,7.68301e-01,9.99999e-01,9.99792e-01,7.68460e-01,9.99999e-01
4.486208064e-01,7.72369e-01,9.99999e-01,9.99870e-01,7.72468e-01,9.99999e-01
4.508639105e-01,7.76371e-01,9.99999e-01,9.99939e-01,7.76417e-01,9.99999e-01
4.531182300e-01,7.80289e-01,9.99999e-01,9.99975e-01,7.80308e-01,9.99999e-01
4.553838212e-01,7.84128e-01,9.99999e-01,9.99983e-01,7.84141e-01,9.99999e-01
4.576607403e-01,7.87910e-01,9.99999e-01,9.99992e-01,7.87916e-01,9.99999e-01
4.599490440e-01,7.91631e-01,9.99999e-01,9.99994e-01,7.91635e-01,9.99999e-01
4.622487892e-01,7.95296e-01,9.99999e-01,9.99998e-01,7.95297e-01,9.99999e-01
4.645600332e-01,7.98900e-01,9.99999e-01,9.99995e-01,7.98903e-01,9.99999e-01
4.668828333e-01,8.02405e-01,9.99999e-01,9.99938e-01,8.02454e-01,9.99999e-01
4.692172475e-01,8.05845e-01,9.99999e-01,9.99869e-01,8.05950e-01,9.99999e-01
4.715633337e-01,8.09323e-01,9.99999e-01,9.99914e-01,8.09391e-01,9.99999e-01
4.739211504e-01,8.12713e-01,9.99999e-01,9.99918e-01,8.12779e-01,9.99999e-01
4.762907561e-01,8.16080e-01,9.99999e-01,9.99957e-01,8.16114e-01,9.99999e-01
4.786722099e-01,8.19382e-01,9.99999e-01,9.99982e-01,8.19396e-01,9.99999e-01
4.810655710e-01,8.22622e-01,9.99999e-01,9.99994e-01,8.22627e-01,9.99999e-01
4.834708988e-01,8.25765e-01,9.99999e-01,9.99950e-01,8.25805e-01,9.99999e-01
4.858882533e-01,8.28857e-01,9.99999e-01,9.99907e-01,8.28933e-01,9.99999e-01
4.883176946e-01,8.31947e-01,9.99999e-01,9.99922e-01,8.32011e-01,9.99999e-01
4.907592831e-01,8.34981e-01,9.99999e-01,9.99930e-01,8.35039e-01,9.99999e-01
4.932130795e-01,8.37976e-01,9.99999e-01,9.99950e-01,8.38017e-01,9.99999e-01
4.956791449e-01,8.40926e-01,9.99999e-01,9.99973e-01,8.40948e-01,9.99999e-01
4.981575406e-01,8.43720e-01,9.99999e-01,9.99869e-01,8.43830e-01,9.99999e-01
5.006483283e-01,8.46378e-01,9.99999e-01,9.99662e-01,8.46665e-01,9.99997e-01
5.031515699e-01,8.47985e-01,9.99999e-01,9.98288e-01,8.49453e-01,9.99981e-01
5.056673278e-01,8.51407e-01,9.99999e-01,9.99095e-01,8.52195e-01,9.99978e-01
5.081956644e-01,8.53905e-01,9.99999e-01,9.98858e-01,8.54892e-01,9.99986e-01
5.107366428e-01,8.56881e-01,9.99999e-01,9.99228e-01,8.57543e-01,9.99997e-01
5.132903260e-01,8.59771e-01,9.99999e-01,9.99558e-01,8.60151e-01,9.99999e-01
5.158567776e-01,8.62553e-01,9.99999e-01,9.99813e-01,8.62714e-01,9.99999e-01
5.184360615e-01,8.65169e-01,9.99999e-01,9.99925e-01,8.65234e-01,9.99999e-01
5.210282418e-01,8.67687e-01,9.99999e-01,9.99971e-01,8.67711e-01,9.99999e-01
5.236333830e-01,8.70049e-01,9.99999e-01,9.99887e-01,8.70147e-01,9.99998e-01
5.262515499e-01,8.72479e-01,9.99999e-01,9.99929e-01,8.72541e-01,9.99998e-01
5.288828077e-01,8.74837e-01,9.99999e-01,9.99935e-01,8.74894e-01,9.99998e-01
5.315272217e-01,8.77157e-01,9.99999e-01,9.99943e-01,8.77207e-01,9.99999e-01
5.341848578e-01,8.79447e-01,9.99999e-01,9.99962e-01,8.79480e-01,9.99999e-01
5.368557821e-01,8.81599e-01,9.99999e-01,9.99869e-01,8.81713e-01,9.99999e-01
5.395400610e-01,8.83492e-01,9.99999e-01,9.99532e-01,8.83909e-01,9.99995e-01
5.422377613e-01,8.85518e-01,9.99999e-01,9.99392e-01,8.86066e-01,9.99988e-01
5.449489501e-01,8.87675e-01,9.99999e-01,9.99436e-01,8.88185e-01,9.99988e-01
5.476736949e-01,8.89818e-01,9.99999e-01,9.99499e-01,8.90268e-01,9.99993e-01
5.504120634e-01,8.91989e-01,9.99999e-01,9.99636e-01,8.92314e-01,9.99997e-01
5.531641237e-01,8.94161e-01,9.99999e-01,9.99816e-01,8.94325e-01,9.99999e-01
5.559299443e-01,8.96221e-01,9.99999e-01,9.99911e-01,8.96300e-01,9.99999e-01
5.587095940e-01,8.98191e-01,9.99999e-01,9.99944e-01,8.98240e-01,9.99999e-01
5.615031420e-01,9.00091e-01,9.99999e-01,9.99938e-01,9.00146e-01,9.99999e-01
5.643106577e-01,9.01956e-01,9.99999e-01,9.99930e-01,9.02019e-01,9.99998e-01
5.671322110e-01,9.03090e-01,9.99999e-01,9.99157e-01,9.03858e-01,9.99992e-01
5.699678720e-01,9.04825e-01,9.99999e-01,9.99096e-01,9.05664e-01,9.99976e-01
5.728177114e-01,9.06571e-01,9.99999e-01,9.99062e-01,9.07438e-01,9.99980e-01
5.756818000e-01,9.08388e-01,9.99999e-01,9.99138e-01,9.09181e-01,9.99987e-01
5.785602090e-01,9.10205e-01,9.99999e-01,9.99248e-01,9.10893e-01,9.99995e-01
5.814530100e-01,9.11884e-01,9.99999e-01,9.99246e-01,9.12573e-01,9.99997e-01
5.843602750e-01,9.13400e-01,9.99999e-01,9.99103e-01,9.14224e-01,9.99994e-01
5.872820764e-01,9.08741e-01,9.99999e-01,9.92296e-01,9.15845e-01,9.99945e-01
5.902184868e-01,9.08717e-01,9.99999e-01,9.90641e-01,9.17436e-01,9.99851e-01
5.931695792e-01,9.12795e-01,9.99999e-01,9.93389e-01,9.18999e-01,9.99856e-01
5.961354271e-01,9.13785e-01,9.99999e-01,9.92749e-01,9.20534e-01,9.99917e-01
5.991161043e-01,9.17136e-01,9.99999e-01,9.94705e-01,9.22041e-01,9.99974e-01
6.021116848e-01,9.20739e-01,9.99999e-01,9.96991e-01,9.23520e-01,9.99996e-01
6.051222432e-01,9.23564e-01,9.99999e-01,9.98476e-01,9.24973e-01,9.99999e-01
6.081478544e-01,9.25790e-01,9.99999e-01,9.99342e-01,9.26399e-01,9.99999e-01
6.111885937e-01,9.27541e-01,9.99999e-01,9.99721e-01,9.27799e-01,9.99999e-01
6.142445367e-01,9.29058e-01,9.99999e-01,9.99875e-01,9.29173e-01,9.99999e-01
6.173157594e-01,9.30459e-01,9.99999e-01,9.99931e-01,9.30522e-01,9.99999e-01
6.204023382e-01,9.31793e-01,9.99999e-01,9.99941e-01,9.31847e-01,9.99999e-01
6.235043498e-01,9.32910e-01,9.99999e-01,9.99745e-01,9.33147e-01,9.99998e-01
6.266218716e-01,9.33154e-01,9.99999e-01,9.98650e-01,9.34423e-01,9.99990e-01
6.297549810e-01,9.35195e-01,9.99999e-01,9.99504e-01,9.35676e-01,9.99980e-01
6.329037559e-01,9.35974e-01,9.99999e-01,9.99020e-01,9.36905e-01,9.99984e-01
6.360682746e-01,9.37323e-01,9.99999e-01,9.99167e-01,9.38112e-01,9.99990e-01
6.392486160e-01,9.38279e-01,9.99999e-01,9.98920e-01,9.39297e-01,9.99995e-01
6.424448591e-01,9.39098e-01,9.99999e-01,9.98558e-01,9.40459e-01,9.99993e-01
6.456570834e-01,9.35279e-01,9.99999e-01,9.93322e-01,9.41600e-01,9.99962e-01
6.488853688e-01,9.37997e-01,9.99999e-01,9.95092e-01,9.42720e-01,9.99895e-01
6.521297956e-01,9.39017e-01,9.99999e-01,9.94998e-01,9.43819e-01,9.99912e-01
6.553904446e-01,9.40137e-01,9.99999e-01,9.95026e-01,9.44898e-01,9.99934e-01
6.586673968e-01,9.41901e-01,9.99999e-01,9.95734e-01,9.45956e-01,9.99978e-01
6.619607338e-01,9.44653e-01,9.99999e-01,9.97531e-01,9.46995e-01,9.99994e-01
6.652705375e-01,9.46657e-01,9.99999e-01,9.98569e-01,9.48014e-01,9.99997e-01
6.685968902e-01,9.48383e-01,9.99999e-01,9.99335e-01,9.49014e-01,9.99999e-01
6.719398746e-01,9.49703e-01,9.99999e-01,9.99691e-01,9.49996e-01,9.99999e-01
6.752995740e-01,9.50800e-01,9.99999e-01,9.99832e-01,9.50959e-01,9.99999e-01
6.786760719e-01,9.51675e-01,9.99999e-01,9.99759e-01,9.51904e-01,9.99999e-01
6.820694522e-01,9.52437e-01,9.99999e-01,9.99588e-01,9.52831e-01,9.99997e-01
6.854797995e-01,9.53231e-01,9.99999e-01,9.99469e-01,9.53741e-01,9.99994e-01
6.889071985e-01,9.53402e-01,9.99999e-01,9.98721e-01,9.54633e-01,9.99988e-01
6.923517345e-01,9.35583e-01,9.99999e-01,9.79244e-01,9.55509e-01,9.99899e-01
6.958134932e-01,9.45726e-01,9.99999e-01,9.89096e-01,9.56369e-01,9.99772e-01
6.992925606e-01,9.47153e-01,9.99999e-01,9.89689e-01,9.57212e-01,9.99799e-01
7.027890234e-01,9.45682e-01,9.99999e-01,9.87252e-01,9.58039e-01,9.99846e-01
7.063029686e-01,9.48494e-01,9.99999e-01,9.89273e-01,9.58850e-01,9.99923e-01
7.098344834e-01,9.49725e-01,9.99999e-01,9.89705e-01,9.59647e-01,9.99954e-01
7.133836558e-01,9.47244e-01,9.99999e-01,9.86361e-01,9.60428e-01,9.99909e-01
7.169505741e-01,8.60374e-01,9.99999e-01,8.95740e-01,9.61194e-01,9.99294e-01
7.205353270e-01,9.10018e-01,9.99999e-01,9.47195e-01,9.61946e-01,9.98755e-01
7.241380036e-01,8.97819e-01,9.99999e-01,9.33623e-01,9.62683e-01,9.98925e-01
7.277586936e-01,9.04710e-01,9.99999e-01,9.39898e-01,9.63406e-01,9.99121e-01
7.313974871e-01,9.02040e-01,9.99999e-01,9.35998e-01,9.64116e-01,9.99588e-01
7.350544745e-01,9.30444e-01,9.99999e-01,9.64515e-01,9.64812e-01,9.99856e-01
7.387297469e-01,9.40083e-01,9.99999e-01,9.73742e-01,9.65495e-01,9.99934e-01
7.424233956e-01,9.53649e-01,9.99999e-01,9.87057e-01,9.66165e-01,9.99986e-01
7.461355126e-01,9.59222e-01,9.99999e-01,9.92140e-01,9.66822e-01,9.99997e-01
7.498661902e-01,9.63917e-01,9.99999e-01,9.96330e-01,9.67467e-01,9.99998e-01
7.536155211e-01,9.66357e-01,9.99999e-01,9.98200e-01,9.68099e-01,9.99999e-01
7.573835987e-01,9.67822e-01,9.99999e-01,9.99073e-01,9.68719e-01,9.99999e-01
7.611705167e-01,9.68769e-01,9.99999e-01,9.99423e-01,9.69327e-01,9.99999e-01
7.649763693e-01,9.69574e-01,9.99999e-01,9.99638e-01,9.69924e-01,9.99999e-01
7.688012511e-01,9.70266e-01,9.99999e-01,9.99748e-01,9.70509e-01,9.99999e-01
7.726452574e-01,9.70883e-01,9.99999e-01,9.99793e-01,9.71083e-01,9.99999e-01
7.765084837e-01,9.71361e-01,9.99999e-01,9.99706e-01,9.71646e-01,9.99999e-01
7.803910261e-01,9.70968e-01,9.99999e-01,9.98734e-01,9.72198e-01,9.99998e-01
7.842929812e-01,9.68443e-01,9.99999e-01,9.95590e-01,9.72740e-01,9.99991e-01
7.882144461e-01,9.64371e-01,9.99999e-01,9.90909e-01,9.73271e-01,9.99943e-01
7.921555184e-01,9.68819e-01,9.99999e-01,9.94999e-01,9.73792e-01,9.99891e-01
7.961162960e-01,9.65636e-01,9.99999e-01,9.91206e-01,9.74303e-01,9.99896e-01
8.000968774e-01,9.64783e-01,9.99999e-01,9.89827e-01,9.74804e-01,9.99889e-01
8.040973618e-01,9.65293e-01,9.99999e-01,9.89830e-01,9.75296e-01,9.99912e-01
8.081178486e-01,9.53529e-01,9.99999e-01,9.77278e-01,9.75778e-01,9.99917e-01
8.121584379e-01,8.86935e-01,9.99999e-01,9.08803e-01,9.76250e-01,9.99677e-01
8.162192301e-01,8.70643e-01,9.99999e-01,8.92479e-01,9.76714e-01,9.98789e-01
8.203003262e-01,9.22770e-01,9.99999e-01,9.45669e-01,9.77169e-01,9.98582e-01
8.244018279e-01,9.02961e-01,9.99999e-01,9.24679e-01,9.77614e-01,9.98871e-01
8.285238370e-01,9.13043e-01,9.99999e-01,9.34359e-01,9.78052e-01,9.99113e-01
8.326664562e-01,9.13217e-01,9.99999e-01,9.33642e-01,9.78480e-01,9.99633e-01
8.368297885e-01,9.31850e-01,9.99999e-01,9.52013e-01,9.78901e-01,9.99915e-01
8.410139374e-01,9.51056e-01,9.99999e-01,9.71192e-01,9.79313e-01,9.99950e-01
8.452190071e-01,9.65742e-01,9.99999e-01,9.85762e-01,9.79718e-01,9.99970e-01
8.494451021e-01,9.71981e-01,9.99999e-01,9.91724e-01,9.80114e-01,9.99976e-01
8.536923276e-01,9.75680e-01,9.99999e-01,9.95094e-01,9.80503e-01,9.99985e-01
8.579607893e-01,9.77919e-01,9.99999e-01,9.96979e-01,9.80885e-01,9.99996e-01
8.622505932e-01,9.79373e-01,9.99999e-01,9.98078e-01,9.81259e-01,9.99998e-01
8.665618462e-01,9.80460e-01,9.99999e-01,9.98812e-01,9.81625e-01,9.99999e-01
8.708946554e-01,9.80651e-01,9.99999e-01,9.98641e-01,9.81985e-01,9.99998e-01
8.752491287e-01,9.80551e-01,9.99999e-01,9.98182e-01,9.82338e-01,9.99997e-01
8.796253743e-01,9.80208e-01,9.99999e-01,9.97485e-01,9.82684e-01,9.99993e-01
8.840235012e-01,9.80182e-01,9.99999e-01,9.97127e-01,9.83023e-01,9.99982e-01
8.884436187e-01,9.73106e-01,9.99999e-01,9.89625e-01,9.83355e-01,9.99949e-01
8.928858368e-01,8.81129e-01,9.99999e-01,8.96003e-01,9.83681e-01,9.99712e-01
8.973502660e-01,8.08993e-01,9.99999e-01,8.23358e-01,9.84001e-01,9.98527e-01
9.018370173e-01,8.89122e-01,9.99999e-01,9.05384e-01,9.84314e-01,9.97686e-01
9.063462024e-01,9.00526e-01,9.99999e-01,9.16452e-01,9.84622e-01,9.97967e-01
9.108779334e-01,8.57693e-01,9.99999e-01,8.72664e-01,9.84923e-01,9.97887e-01
9.154323231e-01,8.42205e-01,9.99999e-01,8.56335e-01,9.85219e-01,9.98253e-01
9.200094847e-01,8.72040e-01,9.99999e-01,8.85727e-01,9.85509e-01,9.99022e-01
9.246095321e-01,8.18342e-01,9.99999e-01,8.31071e-01,9.85793e-01,9.98873e-01
9.292325798e-01,2.96114e-01,9.99999e-01,3.01618e-01,9.86072e-01,9.95615e-01
9.338787427e-01,2.06420e-01,9.99999e-01,2.13114e-01,9.86345e-01,9.81998e-01
9.385481364e-01,5.15060e-01,9.99999e-01,5.33450e-01,9.86613e-01,9.78626e-01
9.432408771e-01,4.14674e-01,9.99999e-01,4.28094e-01,9.86875e-01,9.81533e-01
9.479570815e-01,3.03290e-01,9.99999e-01,3.11939e-01,9.87133e-01,9.84944e-01
9.526968669e-01,3.99156e-01,9.99999e-01,4.08013e-01,9.87385e-01,9.90789e-01
9.574603512e-01,4.20982e-01,9.99999e-01,4.28262e-01,9.87633e-01,9.95310e-01
9.622476530e-01,4.89686e-01,9.99999e-01,4.97308e-01,9.87876e-01,9.96754e-01
9.670588912e-01,6.57675e-01,9.99999e-01,6.67066e-01,9.88114e-01,9.97779e-01
9.718941857e-01,7.63231e-01,9.99999e-01,7.73493e-01,9.88347e-01,9.98364e-01
9.767536566e-01,7.97611e-01,9.99999e-01,8.07837e-01,9.88576e-01,9.98750e-01
9.816374249e-01,8.43341e-01,9.99999e-01,8.53261e-01,9.88800e-01,9.99566e-01
9.865456120e-01,8.95434e-01,9.99999e-01,9.05455e-01,9.89020e-01,9.99909e-01
9.914783401e-01,9.30257e-01,9.99999e-01,9.40401e-01,9.89236e-01,9.99974e-01
9.964357318e-01,9.56869e-01,9.99999e-01,9.67087e-01,9.89448e-01,9.99984e-01
1.001417910e+00,9.69977e-01,9.99999e-01,9.80137e-01,9.89655e-01,9.99977e-01
1.006425000e+00,9.78578e-01,9.99999e-01,9.88635e-01,9.89858e-01,9.99967e-01
1.011457125e+00,9.83027e-01,9.99999e-01,9.92927e-01,9.90057e-01,9.99970e-01
1.016514411e+00,9.85475e-01,9.99999e-01,9.95195e-01,9.90253e-01,9.99978e-01
1.021596983e+00,9.86631e-01,9.99999e-01,9.96170e-01,9.90444e-01,9.99978e-01
1.026704968e+00,9.87660e-01,9.99999e-01,9.97012e-01,9.90632e-01,9.99985e-01
1.031838492e+00,9.88660e-01,9.99999e-01,9.97827e-01,9.90816e-01,9.99995e-01
1.036997685e+00,9.89718e-01,9.99999e-01,9.98709e-01,9.90997e-01,9.99998e-01
1.042182673e+00,9.89651e-01,9.99999e-01,9.98463e-01,9.91174e-01,9.99999e-01
1.047393587e+00,9.89327e-01,9.99999e-01,9.97961e-01,9.91348e-01,9.99999e-01
1.052630555e+00,9.88746e-01,9.99999e-01,9.97204e-01,9.91518e-01,9.99998e-01
1.057893707e+00,9.87061e-01,9.99999e-01,9.95338e-01,9.91685e-01,9.99997e-01
1.063183176e+00,9.84245e-01,9.99999e-01,9.92338e-01,9.91848e-01,9.99995e-01
1.068499092e+00,9.79299e-01,9.99999e-01,9.87196e-01,9.92008e-01,9.99990e-01
1.073841587e+00,9.77312e-01,9.99999e-01,9.85046e-01,9.92166e-01,9.99980e-01
1.079210795e+00,9.73269e-01,9.99999e-01,9.80851e-01,9.92320e-01,9.99948e-01
1.084606849e+00,9.63749e-01,9.99999e-01,9.71179e-01,9.92471e-01,9.99875e-01
1.090029883e+00,9.51640e-01,9.99999e-01,9.58962e-01,9.92619e-01,9.99742e-01
1.095480033e+00,8.85221e-01,9.99999e-01,8.92086e-01,9.92764e-01,9.99535e-01
1.100957433e+00,7.43473e-01,9.99999e-01,7.49424e-01,9.92907e-01,9.99145e-01
1.106462220e+00,4.84382e-01,9.99999e-01,4.88480e-01,9.93046e-01,9.98551e-01
1.111994531e+00,2.24614e-01,9.99999e-01,2.27027e-01,9.93183e-01,9.96160e-01
1.117554504e+00,9.35002e-02,9.99999e-01,9.54456e-02,9.93317e-01,9.86206e-01
1.123142276e+00,1.85381e-01,9.99999e-01,1.92852e-01,9.93449e-01,9.67599e-01
1.128757988e+00,3.14995e-01,9.99999e-01,3.29344e-01,9.93578e-01,9.62614e-01
1.134401778e+00,1.45110e-01,9.99999e-01,1.50838e-01,9.93704e-01,9.68120e-01
1.140073787e+00,4.89065e-01,9.99999e-01,5.05006e-01,9.93828e-01,9.74445e-01
1.145774156e+00,2.46845e-01,9.99999e-01,2.54302e-01,9.93950e-01,9.76583e-01
1.151503026e+00,2.16659e-01,9.99999e-01,2.20848e-01,9.94069e-01,9.86886e-01
1.157260541e+00,2.64019e-01,9.99999e-01,2.66613e-01,9.94186e-01,9.96060e-01
1.163046844e+00,3.70935e-01,9.99999e-01,3.73478e-01,9.94300e-01,9.98881e-01
1.168862078e+00,4.94894e-01,9.99999e-01,4.97962e-01,9.94412e-01,9.99423e-01
1.174706389e+00,6.45851e-01,9.99999e-01,6.49903e-01,9.94523e-01,9.99235e-01
1.180579921e+00,7.63451e-01,9.99999e-01,7.68459e-01,9.94630e-01,9.98845e-01
1.186482820e+00,8.55692e-01,9.99999e-01,8.61240e-01,9.94736e-01,9.98814e-01
1.192415234e+00,9.10883e-01,9.99999e-01,9.16420e-01,9.94840e-01,9.99112e-01
1.198377311e+00,9.23658e-01,9.99999e-01,9.29132e-01,9.94941e-01,9.99161e-01
1.204369197e+00,9.27575e-01,9.99999e-01,9.32904e-01,9.95041e-01,9.99241e-01
1.210391043e+00,9.30693e-01,9.99999e-01,9.35670e-01,9.95139e-01,9.99538e-01
1.216442998e+00,9.40208e-01,9.99999e-01,9.44976e-01,9.95235e-01,9.99716e-01
1.222525213e+00,9.52235e-01,9.99999e-01,9.56871e-01,9.95328e-01,9.99823e-01
1.228637839e+00,9.65334e-01,9.99999e-01,9.69853e-01,9.95421e-01,9.99917e-01
1.234781029e+00,9.73112e-01,9.99999e-01,9.77522e-01,9.95511e-01,9.99976e-01
1.240954934e+00,9.81389e-01,9.99999e-01,9.85733e-01,9.95599e-01,9.99992e-01
1.247159708e+00,9.84600e-01,9.99999e-01,9.88869e-01,9.95686e-01,9.99995e-01
1.253395507e+00,9.85925e-01,9.99999e-01,9.90117e-01,9.95771e-01,9.99994e-01
1.259662485e+00,9.86502e-01,9.99999e-01,9.90616e-01,9.95854e-01,9.99990e-01
1.265960797e+00,9.81020e-01,9.99999e-01,9.85036e-01,9.95936e-01,9.99984e-01
1.272290601e+00,9.72705e-01,9.99999e-01,9.76620e-01,9.96016e-01,9.99973e-01
1.278652054e+00,9.50314e-01,9.99999e-01,9.54083e-01,9.96095e-01,9.99953e-01
1.285045314e+00,9.25255e-01,9.99999e-01,9.28889e-01,9.96172e-01,9.99914e-01
1.291470541e+00,8.59007e-01,9.99999e-01,8.62371e-01,9.96247e-01,9.99850e-01
1.297927893e+00,8.21436e-01,9.99999e-01,8.24698e-01,9.96321e-01,9.99720e-01
1.304417533e+00,7.77411e-01,9.99999e-01,7.80685e-01,9.96394e-01,9.99409e-01
1.310939621e+00,7.49880e-01,9.99999e-01,7.53452e-01,9.96465e-01,9.98788e-01
1.317494319e+00,7.31335e-01,9.99999e-01,7.35525e-01,9.96534e-01,9.97759e-01
1.324081790e+00,6.30027e-01,9.99999e-01,6.34493e-01,9.96603e-01,9.96344e-01
1.330702199e+00,2.22964e-01,9.99999e-01,2.25125e-01,9.96670e-01,9.93706e-01
1.337355710e+00,1.47700e-02,9.99999e-01,1.49996e-02,9.96735e-01,9.87914e-01
1.344042489e+00,3.96556e-04,9.99999e-01,4.12668e-04,9.96800e-01,9.64040e-01
1.350762701e+00,9.47414e-10,9.99999e-01,1.07735e-09,9.96863e-01,8.82158e-01
1.357516515e+00,3.68017e-14,9.99999e-01,5.33351e-14,9.96925e-01,6.92136e-01
1.364304097e+00,3.43829e-09,9.99999e-01,6.57248e-09,9.96985e-01,5.24715e-01
1.371125618e+00,3.26539e-06,9.99999e-01,6.01556e-06,9.97045e-01,5.44432e-01
1.377981246e+00,1.18876e-05,9.99999e-01,2.00771e-05,9.97103e-01,5.93817e-01
1.384871152e+00,5.03449e-08,9.99999e-01,8.20551e-08,9.97160e-01,6.15297e-01
1.391795508e+00,4.23625e-09,9.99999e-01,6.74900e-09,9.97216e-01,6.29437e-01
1.398754485e+00,2.22813e-07,9.99999e-01,3.27491e-07,9.97271e-01,6.82223e-01
1.405748258e+00,2.81853e-07,9.99999e-01,3.53404e-07,9.97325e-01,7.99676e-01
1.412776999e+00,3.18545e-07,9.99999e-01,3.53702e-07,9.97378e-01,9.02970e-01
1.419840884e+00,7.07495e-07,9.99999e-01,7.41783e-07,9.97429e-01,9.56233e-01
1.426940089e+00,3.05669e-05,9.99999e-01,3.17039e-05,9.97480e-01,9.66571e-01
1.434074789e+00,2.36006e-04,9.99999e-01,2.46276e-04,9.97530e-01,9.60673e-01
1.441245163e+00,1.11271e-03,9.99999e-01,1.16495e-03,9.97578e-01,9.57473e-01
1.448451389e+00,8.97617e-03,9.99999e-01,9.34648e-03,9.97626e-01,9.62664e-01
1.455693646e+00,3.96036e-02,9.99999e-01,4.08888e-02,9.97673e-01,9.70826e-01
1.462972114e+00,5.64235e-02,9.99999e-01,5.81721e-02,9.97719e-01,9.72157e-01
1.470286975e+00,3.60946e-02,9.99999e-01,3.71937e-02,9.97764e-01,9.72625e-01
