#,Wave/freq,Total,N2,H2O,Rayleigh,CIA
4.000000000e-01,7.74413e-01,9.99999e-01,9.99970e-01,7.74436e-01,9.99999e-01
4.020000000e-01,7.78346e-01,9.99999e-01,9.99981e-01,7.78360e-01,9.99999e-01
4.040100000e-01,7.82216e-01,9.99999e-01,9.99991e-01,7.82222e-01,9.99999e-01
4.060300500e-01,7.86025e-01,9.99999e-01,9.99997e-01,7.86026e-01,9.99999e-01
4.080602003e-01,7.89773e-01,9.99999e-01,9.99998e-01,7.89773e-01,9.99999e-01
4.101005013e-01,7.93463e-01,9.99999e-01,9.99999e-01,7.93463e-01,9.99999e-01
4.121510038e-01,7.97097e-01,9.99999e-01,9.99998e-01,7.97097e-01,9.99999e-01
4.142117588e-01,8.00670e-01,9.99999e-01,9.99991e-01,8.00676e-01,9.99999e-01
4.162828176e-01,8.04171e-01,9.99999e-01,9.99963e-01,8.04199e-01,9.99999e-01
4.183642317e-01,8.07651e-01,9.99999e-01,9.99978e-01,8.07668e-01,9.99999e-01
4.204560528e-01,8.11073e-01,9.99999e-01,9.99986e-01,8.11083e-01,9.99999e-01
4.225583331e-01,8.14441e-01,9.99999e-01,9.99994e-01,8.14445e-01,9.99999e-01
4.246711247e-01,8.17750e-01,9.99999e-01,9.99995e-01,8.17753e-01,9.99999e-01
4.267944804e-01,8.21005e-01,9.99999e-01,9.99993e-01,8.21010e-01,9.99999e-01
4.289284528e-01,8.24210e-01,9.99999e-01,9.99995e-01,8.24214e-01,9.99999e-01
4.310730950e-01,8.27366e-01,9.99999e-01,9.99997e-01,8.27367e-01,9.99999e-01
4.332284605e-01,8.30470e-01,9.99999e-01,9.99999e-01,8.30470e-01,9.99999e-01
4.353946028e-01,8.33523e-01,9.99999e-01,9.99999e-01,8.33523e-01,9.99999e-01
4.375715758e-01,8.36524e-01,9.99999e-01,9.99996e-01,8.36526e-01,9.99999e-01
4.397594337e-01,8.39455e-01,9.99999e-01,9.99968e-01,8.39481e-01,9.99999e-01
4.419582309e-01,8.42254e-01,9.99999e-01,9.99841e-01,8.42387e-01,9.99999e-01
4.441680220e-01,8.45141e-01,9.99999e-01,9.99874e-01,8.45246e-01,9.99999e-01
4.463888621e-01,8.47948e-01,9.99999e-01,9.99870e-01,8.48058e-01,9.99999e-01
4.486208064e-01,8.50754e-01,9.99999e-01,9.99918e-01,8.50823e-01,9.99999e-01
4.508639105e-01,8.53510e-01,9.99999e-01,9.99961e-01,8.53542e-01,9.99999e-01
4.531182300e-01,8.56204e-01,9.99999e-01,9.99984e-01,8.56216e-01,9.99999e-01
4.553838212e-01,8.58837e-01,9.99999e-01,9.99989e-01,8.58846e-01,9.99999e-01
4.576607403e-01,8.61427e-01,9.99999e-01,9.99994e-01,8.61431e-01,9.99999e-01
4.599490440e-01,8.63970e-01,9.99999e-01,9.99996e-01,8.63973e-01,9.99999e-01
4.622487892e-01,8.66471e-01,9.99999e-01,9.99998e-01,8.66472e-01,9.99999e-01
4.645600332e-01,8.68926e-01,9.99999e-01,9.99997e-01,8.68928e-01,9.99999e-01
4.668828333e-01,8.71310e-01,9.99999e-01,9.99961e-01,8.71343e-01,9.99999e-01
4.692172475e-01,8.73645e-01,9.99999e-01,9.99918e-01,8.73716e-01,9.99999e-01
4.715633337e-01,8.76003e-01,9.99999e-01,9.99946e-01,8.76049e-01,9.99999e-01
4.739211504e-01,8.78297e-01,9.99999e-01,9.99948e-01,8.78342e-01,9.99999e-01
4.762907561e-01,8.80572e-01,9.99999e-01,9.99973e-01,8.80596e-01,9.99999e-01
4.786722099e-01,8.82801e-01,9.99999e-01,9.99988e-01,8.82810e-01,9.99999e-01
4.810655710e-01,8.84983e-01,9.99999e-01,9.99996e-01,8.84986e-01,9.99999e-01
4.834708988e-01,8.87097e-01,9.99999e-01,9.99968e-01,8.87125e-01,9.99999e-01
4.858882533e-01,8.89175e-01,9.99999e-01,9.99942e-01,8.89226e-01,9.99999e-01
4.883176946e-01,8.91248e-01,9.99999e-01,9.99951e-01,8.91290e-01,9.99999e-01
4.907592831e-01,8.93280e-01,9.99999e-01,9.99956e-01,8.93319e-01,9.99999e-01
4.932130795e-01,8.95284e-01,9.99999e-01,9.99968e-01,8.95311e-01,9.99999e-01
4.956791449e-01,8.97255e-01,9.99999e-01,9.99983e-01,8.97269e-01,9.99999e-01
4.981575406e-01,8.99119e-01,9.99999e-01,9.99918e-01,8.99192e-01,9.99999e-01
5.006483283e-01,9.00891e-01,9.99999e-01,9.99788e-01,9.01082e-01,9.99998e-01
5.031515699e-01,9.01960e-01,9.99999e-01,9.98928e-01,9.02937e-01,9.99988e-01
5.056673278e-01,9.04237e-01,9.99999e-01,9.99433e-01,9.04760e-01,9.99986e-01
5.081956644e-01,9.05896e-01,9.99999e-01,9.99285e-01,9.06551e-01,9.99991e-01
5.107366428e-01,9.07870e-01,9.99999e-01,9.99517e-01,9.08309e-01,9.99997e-01
5.132903260e-01,9.09785e-01,9.99999e-01,9.99723e-01,9.10036e-01,9.99999e-01
5.158567776e-01,9.11626e-01,9.99999e-01,9.99882e-01,9.11732e-01,9.99999e-01
5.184360615e-01,9.13355e-01,9.99999e-01,9.99952e-01,9.13398e-01,9.99999e-01
5.210282418e-01,9.15018e-01,9.99999e-01,9.99982e-01,9.15034e-01,9.99999e-01
5.236333830e-01,9.16576e-01,9.99999e-01,9.99929e-01,9.16640e-01,9.99999e-01
5.262515499e-01,9.18177e-01,9.99999e-01,9.99955e-01,9.18217e-01,9.99998e-01
5.288828077e-01,9.19729e-01,9.99999e-01,9.99959e-01,9.19766e-01,9.99999e-01
5.315272217e-01,9.21254e-01,9.99999e-01,9.99964e-01,9.21287e-01,9.99999e-01
5.341848578e-01,9.22759e-01,9.99999e-01,9.99976e-01,9.22780e-01,9.99999e-01
5.368557821e-01,9.24171e-01,9.99999e-01,9.99918e-01,9.24246e-01,9.99999e-01
5.395400610e-01,9.25412e-01,9.99999e-01,9.99707e-01,9.25685e-01,9.99997e-01
5.422377613e-01,9.26740e-01,9.99999e-01,9.99619e-01,9.27098e-01,9.99992e-01
5.449489501e-01,9.28152e-01,9.99999e-01,9.99647e-01,9.28485e-01,9.99992e-01
5.476736949e-01,9.29553e-01,9.99999e-01,9.99686e-01,9.29847e-01,9.99996e-01
5.504120634e-01,9.30972e-01,9.99999e-01,9.99772e-01,9.31184e-01,9.99998e-01
5.531641237e-01,9.32390e-01,9.99999e-01,9.99885e-01,9.32496e-01,9.99999e-01
5.559299443e-01,9.33733e-01,9.99999e-01,9.99944e-01,9.33785e-01,9.99999e-01
5.587095940e-01,9.35017e-01,9.99999e-01,9.99965e-01,9.35049e-01,9.99999e-01
5.615031420e-01,9.36254e-01,9.99999e-01,9.99961e-01,9.36290e-01,9.99999e-01
5.643106577e-01,9.37467e-01,9.99999e-01,9.99956e-01,9.37508e-01,9.99999e-01
5.671322110e-01,9.38205e-01,9.99999e-01,9.99473e-01,9.38704e-01,9.99994e-01
5.699678720e-01,9.39333e-01,9.99999e-01,9.99433e-01,9.39878e-01,9.99985e-01
5.728177114e-01,9.40466e-01,9.99999e-01,9.99412e-01,9.41029e-01,9.99987e-01
5.756818000e-01,9.41645e-01,9.99999e-01,9.99460e-01,9.42160e-01,9.99992e-01
5.785602090e-01,9.42824e-01,9.99999e-01,9.99529e-01,9.43269e-01,9.99997e-01
5.814530100e-01,9.43912e-01,9.99999e-01,9.99527e-01,9.44358e-01,9.99998e-01
5.843602750e-01,9.44894e-01,9.99999e-01,9.99439e-01,9.45427e-01,9.99996e-01
5.872820764e-01,9.41873e-01,9.99999e-01,9.95171e-01,9.46475e-01,9.99965e-01
5.902184868e-01,9.41857e-01,9.99999e-01,9.94131e-01,9.47504e-01,9.99906e-01
5.931695792e-01,9.44500e-01,9.99999e-01,9.95856e-01,9.48514e-01,9.99910e-01
5.961354271e-01,9.45141e-01,9.99999e-01,9.95454e-01,9.49505e-01,9.99948e-01
5.991161043e-01,9.47309e-01,9.99999e-01,9.96682e-01,9.50477e-01,9.99983e-01
6.021116848e-01,9.49637e-01,9.99999e-01,9.98115e-01,9.51431e-01,9.99997e-01
6.051222432e-01,9.51459e-01,9.99999e-01,9.99045e-01,9.52367e-01,9.99999e-01
6.081478544e-01,9.52894e-01,9.99999e-01,9.99588e-01,9.53286e-01,9.99999e-01
6.111885937e-01,9.54021e-01,9.99999e-01,9.99825e-01,9.54187e-01,9.99999e-01
6.142445367e-01,9.54997e-01,9.99999e-01,9.99921e-01,9.55071e-01,9.99999e-01
6.173157594e-01,9.55898e-01,9.99999e-01,9.99956e-01,9.55939e-01,9.99999e-01
6.204023382e-01,9.56755e-01,9.99999e-01,9.99963e-01,9.56790e-01,9.99999e-01
6.235043498e-01,9.57473e-01,9.99999e-01,9.99840e-01,9.57625e-01,9.99999e-01
6.266218716e-01,9.57629e-01,9.99999e-01,9.99155e-01,9.58444e-01,9.99993e-01
6.297549810e-01,9.58940e-01,9.99999e-01,9.99689e-01,9.59248e-01,9.99987e-01
6.329037559e-01,9.59440e-01,9.99999e-01,9.99386e-01,9.60037e-01,9.99990e-01
6.360682746e-01,9.60305e-01,9.99999e-01,9.99478e-01,9.60811e-01,9.99993e-01
6.392486160e-01,9.60918e-01,9.99999e-01,9.99323e-01,9.61570e-01,9.99997e-01
6.424448591e-01,9.61443e-01,9.99999e-01,9.99098e-01,9.62314e-01,9.99995e-01
6.456570834e-01,9.58994e-01,9.99999e-01,9.95816e-01,9.63045e-01,9.99976e-01
6.488853688e-01,9.60735e-01,9.99999e-01,9.96924e-01,9.63761e-01,9.99934e-01
6.521297956e-01,9.61388e-01,9.99999e-01,9.96864e-01,9.64464e-01,9.99944e-01
6.553904446e-01,9.62121e-01,9.99999e-01,9.96898e-01,9.65154e-01,9.99958e-01
6.586673968e-01,9.63236e-01,9.99999e-01,9.97327e-01,9.65830e-01,9.99986e-01
6.619607338e-01,9.64997e-01,9.99999e-01,9.98454e-01,9.66493e-01,9.99996e-01
6.652705375e-01,9.66277e-01,9.99999e-01,9.99104e-01,9.67144e-01,9.99998e-01
6.685968902e-01,9.67380e-01,9.99999e-01,9.99583e-01,9.67783e-01,9.99999e-01
6.719398746e-01,9.68222e-01,9.99999e-01,9.99806e-01,9.68409e-01,9.99999e-01
6.752995740e-01,9.68922e-01,9.99999e-01,9.99895e-01,9.69023e-01,9.99999e-01
6.786760719e-01,9.69480e-01,9.99999e-01,9.99849e-01,9.69626e-01,9.99999e-01
6.820694522e-01,9.69965e-01,9.99999e-01,9.99742e-01,9.70216e-01,9.99998e-01
6.854797995e-01,9.70471e-01,9.99999e-01,9.99667e-01,9.70796e-01,9.99996e-01
6.889071985e-01,9.70581e-01,9.99999e-01,9.99200e-01,9.71365e-01,9.99992e-01
6.923517345e-01,9.59182e-01,9.99999e-01,9.86953e-01,9.71922e-01,9.99936e-01
6.958134932e-01,9.65670e-01,9.99999e-01,9.93148e-01,9.72469e-01,9.99857e-01
6.992925606e-01,9.66594e-01,9.99999e-01,9.93534e-01,9.73005e-01,9.99874e-01
7.027890234e-01,9.65650e-01,9.99999e-01,9.91999e-01,9.73531e-01,9.99903e-01
7.063029686e-01,9.67448e-01,9.99999e-01,9.93272e-01,9.74047e-01,9.99951e-01
7.098344834e-01,9.68235e-01,9.99999e-01,9.93543e-01,9.74553e-01,9.99971e-01
7.133836558e-01,9.66652e-01,9.99999e-01,9.91441e-01,9.75050e-01,9.99943e-01
7.169505741e-01,9.09839e-01,9.99999e-01,9.33066e-01,9.75536e-01,9.99558e-01
7.205353270e-01,9.42542e-01,9.99999e-01,9.66457e-01,9.76014e-01,9.99221e-01
7.241380036e-01,9.34643e-01,9.99999e-01,9.57796e-01,9.76482e-01,9.99327e-01
7.277586936e-01,9.39132e-01,9.99999e-01,9.61826e-01,9.76941e-01,9.99449e-01
7.313974871e-01,9.37423e-01,9.99999e-01,9.59353e-01,9.77391e-01,9.99742e-01
7.350544745e-01,9.55853e-01,9.99999e-01,9.77608e-01,9.77833e-01,9.99910e-01
7.387297469e-01,9.62058e-01,9.99999e-01,9.83471e-01,9.78266e-01,9.99958e-01
7.424233956e-01,9.70732e-01,9.99999e-01,9.91875e-01,9.78691e-01,9.99991e-01
7.461355126e-01,9.74281e-01,9.99999e-01,9.95072e-01,9.79107e-01,9.99998e-01
7.498661902e-01,9.77264e-01,9.99999e-01,9.97700e-01,9.79516e-01,9.99999e-01
7.536155211e-01,9.78812e-01,9.99999e-01,9.98872e-01,9.79916e-01,9.99999e-01
7.573835987e-01,9.79740e-01,9.99999e-01,9.99419e-01,9.80309e-01,9.99999e-01
7.611705167e-01,9.80341e-01,9.99999e-01,9.99639e-01,9.80694e-01,9.99999e-01
7.649763693e-01,9.80850e-01,9.99999e-01,9.99773e-01,9.81072e-01,9.99999e-01
7.688012511e-01,9.81288e-01,9.99999e-01,9.99842e-01,9.81442e-01,9.99999e-01
7.726452574e-01,9.81678e-01,9.99999e-01,9.99870e-01,9.81805e-01,9.99999e-01
7.765084837e-01,9.81981e-01,9.99999e-01,9.99816e-01,9.82161e-01,9.99999e-01
7.803910261e-01,9.81733e-01,9.99999e-01,9.99208e-01,9.82511e-01,9.99998e-01
7.842929812e-01,9.80135e-01,9.99999e-01,9.97238e-01,9.82853e-01,9.99994e-01
7.882144461e-01,9.77552e-01,9.99999e-01,9.94300e-01,9.83189e-01,9.99964e-01
7.921555184e-01,9.80370e-01,9.99999e-01,9.96865e-01,9.83518e-01,9.99932e-01
7.961162960e-01,9.78355e-01,9.99999e-01,9.94487e-01,9.83841e-01,9.99934e-01
8.000968774e-01,9.77814e-01,9.99999e-01,9.93621e-01,9.84158e-01,9.99930e-01
8.040973618e-01,9.78137e-01,9.99999e-01,9.93623e-01,9.84468e-01,9.99944e-01
8.081178486e-01,9.70652e-01,9.99999e-01,9.85711e-01,9.84773e-01,9.99948e-01
8.121584379e-01,9.27479e-01,9.99999e-01,9.41724e-01,9.85071e-01,9.99798e-01
8.162192301e-01,9.16647e-01,9.99999e-01,9.30967e-01,9.85364e-01,9.99242e-01
8.203003262e-01,9.50601e-01,9.99999e-01,9.65295e-01,9.85651e-01,9.99112e-01
8.244018279e-01,9.37409e-01,9.99999e-01,9.51455e-01,9.85932e-01,9.99293e-01
8.285238370e-01,9.44559e-01,9.99999e-01,9.58298e-01,9.86208e-01,9.99445e-01
8.326664562e-01,9.44634e-01,9.99999e-01,9.57800e-01,9.86479e-01,9.99770e-01
8.368297885e-01,9.56745e-01,9.99999e-01,9.69648e-01,9.86744e-01,9.99947e-01
8.410139374e-01,9.69066e-01,9.99999e-01,9.81855e-01,9.87004e-01,9.99968e-01
8.452190071e-01,9.78416e-01,9.99999e-01,9.91060e-01,9.87259e-01,9.99981e-01
8.494451021e-01,9.82372e-01,9.99999e-01,9.94812e-01,9.87509e-01,9.99984e-01
8.536923276e-01,9.84710e-01,9.99999e-01,9.96925e-01,9.87754e-01,9.99990e-01
8.579607893e-01,9.86124e-01,9.99999e-01,9.98108e-01,9.87995e-01,9.99997e-01
8.622505932e-01,9.87041e-01,9.99999e-01,9.98796e-01,9.88230e-01,9.99999e-01
8.665618462e-01,9.87727e-01,9.99999e-01,9.99256e-01,9.88462e-01,9.99999e-01
8.708946554e-01,9.87847e-01,9.99999e-01,9.99149e-01,9.88688e-01,9.99999e-01
8.752491287e-01,9.87784e-01,9.99999e-01,9.98861e-01,9.88910e-01,9.99998e-01
8.796253743e-01,9.87568e-01,9.99999e-01,9.98426e-01,9.89128e-01,9.99996e-01
8.840235012e-01,9.87552e-01,9.99999e-01,9.98201e-01,9.89342e-01,9.99988e-01
8.884436187e-01,9.83081e-01,9.99999e-01,9.93492e-01,9.89551e-01,9.99968e-01
8.928858368e-01,9.23532e-01,9.99999e-01,9.33257e-01,9.89756e-01,9.99819e-01
8.973502660e-01,8.74958e-01,9.99999e-01,8.84648e-01,9.89958e-01,9.99078e-01
9.018370173e-01,9.28617e-01,9.99999e-01,9.39209e-01,9.90155e-01,9.98551e-01
9.063462024e-01,9.36242e-01,9.99999e-01,9.46569e-01,9.90349e-01,9.98727e-01
9.108779334e-01,9.07904e-01,9.99999e-01,9.17788e-01,9.90538e-01,9.98677e-01
9.154323231e-01,8.97644e-01,9.99999e-01,9.07038e-01,9.90724e-01,9.98906e-01
9.200094847e-01,9.17418e-01,9.99999e-01,9.26403e-01,9.90907e-01,9.99387e-01
9.246095321e-01,8.80193e-01,9.99999e-01,8.88736e-01,9.91085e-01,9.99294e-01
9.292325798e-01,4.52238e-01,9.99999e-01,4.57481e-01,9.91261e-01,9.97253e-01
9.338787427e-01,3.57235e-01,9.99999e-01,3.64441e-01,9.91433e-01,9.88695e-01
9.385481364e-01,6.50116e-01,9.99999e-01,6.64546e-01,9.91601e-01,9.86569e-01
9.432408771e-01,5.59974e-01,9.99999e-01,5.71247e-01,9.91766e-01,9.88402e-01
9.479570815e-01,4.56087e-01,9.99999e-01,4.64184e-01,9.91928e-01,9.90550e-01
9.526968669e-01,5.50200e-01,9.99999e-01,5.57808e-01,9.92087e-01,9.94225e-01
9.574603512e-01,5.73985e-01,9.99999e-01,5.80176e-01,9.92243e-01,9.97062e-01
9.622476530e-01,6.34309e-01,9.99999e-01,6.40470e-01,9.92395e-01,9.97967e-01
9.670588912e-01,7.66354e-01,9.99999e-01,7.73184e-01,9.92545e-01,9.98609e-01
9.718941857e-01,8.43696e-01,9.99999e-01,8.50778e-01,9.92692e-01,9.98976e-01
9.767536566e-01,8.67493e-01,9.99999e-01,8.74436e-01,9.92836e-01,9.99217e-01
9.816374249e-01,8.98595e-01,9.99999e-01,9.05195e-01,9.92977e-01,9.99728e-01
9.865456120e-01,9.33113e-01,9.99999e-01,9.39634e-01,9.93115e-01,9.99943e-01
9.914783401e-01,9.55735e-01,9.99999e-01,9.62244e-01,9.93250e-01,9.99983e-01
9.964357318e-01,9.72772e-01,9.99999e-01,9.79259e-01,9.93383e-01,9.99990e-01
1.001417910e+00,9.81099e-01,9.99999e-01,9.87517e-01,9.93513e-01,9.99985e-01
1.006425000e+00,9.86539e-01,9.99999e-01,9.92871e-01,9.93641e-01,9.99979e-01
1.011457125e+00,9.89343e-01,9.99999e-01,9.95566e-01,9.93766e-01,9.99981e-01
1.016514411e+00,9.90885e-01,9.99999e-01,9.96989e-01,9.93889e-01,9.99986e-01
1.021596983e+00,9.91612e-01,9.99999e-01,9.97601e-01,9.94009e-01,9.99986e-01
1.026704968e+00,9.92259e-01,9.99999e-01,9.98129e-01,9.94127e-01,9.99990e-01
1.031838492e+00,9.92888e-01,9.99999e-01,9.98639e-01,9.94243e-01,9.99997e-01
1.036997685e+00,9.93553e-01,9.99999e-01,9.99192e-01,9.94356e-01,9.99999e-01
1.042182673e+00,9.93511e-01,9.99999e-01,9.99037e-01,9.94467e-01,9.99999e-01
1.047393587e+00,9.93307e-01,9.99999e-01,9.98723e-01,9.94576e-01,9.99999e-01
1.052630555e+00,9.92942e-01,9.99999e-01,9.98249e-01,9.94683e-01,9.99999e-01
1.057893707e+00,9.91883e-01,9.99999e-01,9.97080e-01,9.94788e-01,9.99998e-01
1.063183176e+00,9.90111e-01,9.99999e-01,9.95197e-01,9.94891e-01,9.99997e-01
1.068499092e+00,9.86992e-01,9.99999e-01,9.91965e-01,9.94991e-01,9.99994e-01
1.073841587e+00,9.85735e-01,9.99999e-01,9.90609e-01,9.95090e-01,9.99987e-01
1.079210795e+00,9.83180e-01,9.99999e-01,9.87966e-01,9.95187e-01,9.99967e-01
1.084606849e+00,9.77141e-01,9.99999e-01,9.81849e-01,9.95282e-01,9.99922e-01
1.090029883e+00,9.69422e-01,9.99999e-01,9.74082e-01,9.95374e-01,9.99838e-01
1.095480033e+00,9.26417e-01,9.99999e-01,9.30906e-01,9.95466e-01,9.99709e-01
1.100957433e+00,8.29813e-01,9.99999e-01,8.33963e-01,9.95555e-01,9.99465e-01
1.106462220e+00,6.29876e-01,9.99999e-01,6.33205e-01,9.95643e-01,9.99093e-01
1.111994531e+00,3.82399e-01,9.99999e-01,3.84965e-01,9.95728e-01,9.97594e-01
1.117554504e+00,2.13644e-01,9.99999e-01,2.16416e-01,9.95813e-01,9.91345e-01
1.123142276e+00,3.24844e-01,9.99999e-01,3.32976e-01,9.95895e-01,9.79598e-01
1.128757988e+00,4.73194e-01,9.99999e-01,4.86570e-01,9.95976e-01,9.76436e-01
1.134401778e+00,2.41388e-01,9.99999e-01,2.47308e-01,9.96055e-01,9.79928e-01
1.140073787e+00,6.33649e-01,9.99999e-01,6.46497e-01,9.96133e-01,9.83930e-01
1.145774156e+00,4.01176e-01,9.99999e-01,4.08718e-01,9.96209e-01,9.85280e-01
1.151503026e+00,3.67081e-01,9.99999e-01,3.71506e-01,9.96284e-01,9.91772e-01
1.157260541e+00,4.26681e-01,9.99999e-01,4.29300e-01,9.96357e-01,9.97532e-01
1.163046844e+00,5.31497e-01,9.99999e-01,5.33775e-01,9.96429e-01,9.99299e-01
1.168862078e+00,6.41735e-01,9.99999e-01,6.44221e-01,9.96499e-01,9.99638e-01
1.174706389e+00,7.59277e-01,9.99999e-01,7.62255e-01,9.96568e-01,9.99521e-01
1.180579921e+00,8.43954e-01,9.99999e-01,8.47414e-01,9.96636e-01,9.99276e-01
1.186482820e+00,9.06919e-01,9.99999e-01,9.10594e-01,9.96702e-01,9.99257e-01
1.192415234e+00,9.43223e-01,9.99999e-01,9.46807e-01,9.96767e-01,9.99444e-01
1.198377311e+00,9.51484e-01,9.99999e-01,9.55008e-01,9.96831e-01,9.99474e-01
1.204369197e+00,9.53959e-01,9.99999e-01,9.57385e-01,9.96894e-01,9.99524e-01
1.210391043e+00,9.55996e-01,9.99999e-01,9.59192e-01,9.96955e-01,9.99710e-01
1.216442998e+00,9.62104e-01,9.99999e-01,9.65155e-01,9.97015e-01,9.99822e-01
1.222525213e+00,9.69817e-01,9.99999e-01,9.72769e-01,9.97074e-01,9.99889e-01
1.228637839e+00,9.78155e-01,9.99999e-01,9.81018e-01,9.97131e-01,9.99948e-01
1.234781029e+00,9.83080e-01,9.99999e-01,9.85866e-01,9.97188e-01,9.99984e-01
1.240954934e+00,9.88309e-01,9.99999e-01,9.91044e-01,9.97243e-01,9.99995e-01
1.247159708e+00,9.90332e-01,9.99999e-01,9.93017e-01,9.97298e-01,9.99996e-01
1.253395507e+00,9.91167e-01,9.99999e-01,9.93802e-01,9.97351e-01,9.99996e-01
1.259662485e+00,9.91531e-01,9.99999e-01,9.94117e-01,9.97403e-01,9.99994e-01
1.265960797e+00,9.88076e-01,9.99999e-01,9.90605e-01,9.97455e-01,9.99990e-01
1.272290601e+00,9.82825e-01,9.99999e-01,9.85298e-01,9.97505e-01,9.99983e-01
1.278652054e+00,9.68573e-01,9.99999e-01,9.70975e-01,9.97554e-01,9.99971e-01
1.285045314e+00,9.52463e-01,9.99999e-01,9.54802e-01,9.97602e-01,9.99946e-01
1.291470541e+00,9.09030e-01,9.99999e-01,9.11256e-01,9.97649e-01,9.99906e-01
1.297927893e+00,8.83653e-01,9.99999e-01,8.85847e-01,9.97696e-01,9.99825e-01
1.304417533e+00,8.53325e-01,9.99999e-01,8.55572e-01,9.97741e-01,9.99630e-01
1.310939621e+00,8.34152e-01,9.99999e-01,8.36636e-01,9.97786e-01,9.99241e-01
1.317494319e+00,8.20918e-01,9.99999e-01,8.23858e-01,9.97830e-01,9.98597e-01
1.324081790e+00,7.46012e-01,9.99999e-01,7.49317e-01,9.97872e-01,9.97710e-01
1.330702199e+00,3.48867e-01,9.99999e-01,3.50980e-01,9.97914e-01,9.96056e-01
1.337355710e+00,6.02932e-02,9.99999e-01,6.08781e-02,9.97955e-01,9.92419e-01
1.344042489e+00,2.41833e-03,9.99999e-01,2.47936e-03,9.97996e-01,9.77341e-01
1.350762701e+00,9.57612e-07,9.99999e-01,1.03782e-06,9.98035e-01,9.24532e-01
1.357516515e+00,1.76903e-09,9.99999e-01,2.23142e-09,9.98074e-01,7.94309e-01
1.364304097e+00,2.38250e-06,9.99999e-01,3.57378e-06,9.98112e-01,6.67919e-01
1.371125618e+00,1.68539e-04,9.99999e-01,2.47032e-04,9.98149e-01,6.83517e-01
1.377981246e+00,5.31953e-04,9.99999e-01,7.38435e-04,9.98186e-01,7.21686e-01
1.384871152e+00,7.63681e-06,9.99999e-01,1.04017e-05,9.98222e-01,7.35498e-01
1.391795508e+00,3.33048e-06,9.99999e-01,4.46230e-06,9.98257e-01,7.47663e-01
1.398754485e+00,3.47196e-05,9.99999e-01,4.41823e-05,9.98291e-01,7.87170e-01
1.405748258e+00,3.69833e-05,9.99999e-01,4.26080e-05,9.98325e-01,8.69445e-01
1.412776999e+00,3.77858e-05,9.99999e-01,4.03443e-05,9.98358e-01,9.38122e-01
1.419840884e+00,7.79980e-05,9.99999e-01,8.03426e-05,9.98390e-01,9.72381e-01
1.426940089e+00,6.66172e-04,9.99999e-01,6.81573e-04,9.98422e-01,9.78946e-01
1.434074789e+00,3.51677e-03,9.99999e-01,3.61177e-03,9.98453e-01,9.75204e-01
1.441245163e+00,1.10885e-02,9.99999e-01,1.14115e-02,9.98484e-01,9.73170e-01
1.448451389e+00,4.24466e-02,9.99999e-01,4.35342e-02,9.98513e-01,9.76468e-01
1.455693646e+00,1.17131e-01,9.99999e-01,1.19495e-01,9.98543e-01,9.81641e-01
1.462972114e+00,1.53988e-01,9.99999e-01,1.56958e-01,9.98572e-01,9.82483e-01
1.470286975e+00,1.14094e-01,9.99999e-01,1.16255e-01,9.98600e-01,9.82779e-01
