#,Wave/freq,Total,N2,H2O,Rayleigh,CIA
4.000000000e-01,1.99503e-01,9.99999e-01,9.99818e-01,1.99539e-01,9.99999e-01
4.020000000e-01,2.05977e-01,9.99999e-01,9.99887e-01,2.06000e-01,9.99999e-01
4.040100000e-01,2.12520e-01,9.99999e-01,9.99951e-01,2.12530e-01,9.99999e-01
4.060300500e-01,2.19130e-01,9.99999e-01,9.99988e-01,2.19132e-01,9.99999e-01
4.080602003e-01,2.25802e-01,9.99999e-01,9.99995e-01,2.25802e-01,9.99999e-01
4.101005013e-01,2.32538e-01,9.99999e-01,9.99999e-01,2.32538e-01,9.99999e-01
4.121510038e-01,2.39334e-01,9.99999e-01,9.99992e-01,2.39336e-01,9.99999e-01
4.142117588e-01,2.46179e-01,9.99999e-01,9.99948e-01,2.46192e-01,9.99999e-01
4.162828176e-01,2.53046e-01,9.99999e-01,9.99774e-01,2.53103e-01,9.99999e-01
4.183642317e-01,2.60031e-01,9.99999e-01,9.99865e-01,2.60066e-01,9.99999e-01
4.204560528e-01,2.67056e-01,9.99999e-01,9.99917e-01,2.67077e-01,9.99999e-01
4.225583331e-01,2.74125e-01,9.99999e-01,9.99969e-01,2.74134e-01,9.99999e-01
4.246711247e-01,2.81225e-01,9.99999e-01,9.99974e-01,2.81232e-01,9.99999e-01
4.267944804e-01,2.88357e-01,9.99999e-01,9.99963e-01,2.88368e-01,9.99999e-01
4.289284528e-01,2.95530e-01,9.99999e-01,9.99971e-01,2.95538e-01,9.99999e-01
4.310730950e-01,3.02737e-01,9.99999e-01,9.99987e-01,3.02741e-01,9.99999e-01
4.332284605e-01,3.09970e-01,9.99999e-01,9.99996e-01,3.09971e-01,9.99999e-01
4.353946028e-01,3.17225e-01,9.99999e-01,9.99998e-01,3.17226e-01,9.99999e-01
4.375715758e-01,3.24495e-01,9.99999e-01,9.99976e-01,3.24502e-01,9.99999e-01
4.397594337e-01,3.31731e-01,9.99999e-01,9.99800e-01,3.31797e-01,9.99999e-01
4.419582309e-01,3.38762e-01,9.99999e-01,9.98984e-01,3.39107e-01,9.99999e-01
4.441680220e-01,3.46158e-01,9.99999e-01,9.99220e-01,3.46428e-01,9.99999e-01
4.463888621e-01,3.53470e-01,9.99999e-01,9.99184e-01,3.53759e-01,9.99999e-01
4.486208064e-01,3.60913e-01,9.99999e-01,9.99495e-01,3.61095e-01,9.99999e-01
4.508639105e-01,3.68347e-01,9.99999e-01,9.99763e-01,3.68434e-01,9.99999e-01
4.531182300e-01,3.75737e-01,9.99999e-01,9.99906e-01,3.75772e-01,9.99999e-01
4.553838212e-01,3.83083e-01,9.99999e-01,9.99936e-01,3.83108e-01,9.99999e-01
4.576607403e-01,3.90426e-01,9.99999e-01,9.99970e-01,3.90437e-01,9.99999e-01
4.599490440e-01,3.97750e-01,9.99999e-01,9.99978e-01,3.97758e-01,9.99999e-01
4.622487892e-01,4.05066e-01,9.99999e-01,9.99995e-01,4.05068e-01,9.99999e-01
4.645600332e-01,4.12357e-01,9.99999e-01,9.99985e-01,4.12363e-01,9.99999e-01
4.668828333e-01,4.19541e-01,9.99999e-01,9.99758e-01,4.19642e-01,9.99999e-01
4.692172475e-01,4.26684e-01,9.99999e-01,9.99488e-01,4.26902e-01,9.99999e-01
4.715633337e-01,4.33995e-01,9.99999e-01,9.99664e-01,4.34140e-01,9.99999e-01
4.739211504e-01,4.41214e-01,9.99999e-01,9.99680e-01,4.41355e-01,9.99999e-01
4.762907561e-01,4.48469e-01,9.99999e-01,9.99834e-01,4.48543e-01,9.99999e-01
4.786722099e-01,4.55672e-01,9.99999e-01,9.99932e-01,4.55703e-01,9.99999e-01
4.810655710e-01,4.62823e-01,9.99999e-01,9.99979e-01,4.62832e-01,9.99999e-01
4.834708988e-01,4.69836e-01,9.99999e-01,9.99800e-01,4.69929e-01,9.99999e-01
4.858882533e-01,4.76819e-01,9.99999e-01,9.99638e-01,4.76991e-01,9.99999e-01
4.883176946e-01,4.83870e-01,9.99999e-01,9.99695e-01,4.84017e-01,9.99999e-01
4.907592831e-01,4.90870e-01,9.99999e-01,9.99726e-01,4.91005e-01,9.99999e-01
4.932130795e-01,4.97855e-01,9.99999e-01,9.99805e-01,4.97952e-01,9.99999e-01
4.956791449e-01,5.04806e-01,9.99999e-01,9.99896e-01,5.04857e-01,9.99999e-01
4.981575406e-01,5.11455e-01,9.99999e-01,9.99483e-01,5.11719e-01,9.99999e-01
5.006483283e-01,5.17836e-01,9.99999e-01,9.98657e-01,5.18536e-01,9.99990e-01
5.031515699e-01,5.21728e-01,9.99999e-01,9.93256e-01,5.25307e-01,9.99928e-01
5.056673278e-01,5.30094e-01,9.99999e-01,9.96442e-01,5.32029e-01,9.99918e-01
5.081956644e-01,5.36260e-01,9.99999e-01,9.95514e-01,5.38702e-01,9.99950e-01
5.107366428e-01,5.43670e-01,9.99999e-01,9.96972e-01,5.45325e-01,9.99991e-01
5.132903260e-01,5.50941e-01,9.99999e-01,9.98271e-01,5.51896e-01,9.99998e-01
5.158567776e-01,5.58006e-01,9.99999e-01,9.99270e-01,5.58414e-01,9.99999e-01
5.184360615e-01,5.64713e-01,9.99999e-01,9.99707e-01,5.64878e-01,9.99999e-01
5.210282418e-01,5.71224e-01,9.99999e-01,9.99889e-01,5.71286e-01,9.99999e-01
5.236333830e-01,5.77383e-01,9.99999e-01,9.99559e-01,5.77639e-01,9.99996e-01
5.262515499e-01,5.83772e-01,9.99999e-01,9.99724e-01,5.83935e-01,9.99995e-01
5.288828077e-01,5.90022e-01,9.99999e-01,9.99745e-01,5.90173e-01,9.99996e-01
5.315272217e-01,5.96220e-01,9.99999e-01,9.99778e-01,5.96353e-01,9.99998e-01
5.341848578e-01,6.02385e-01,9.99999e-01,9.99853e-01,6.02473e-01,9.99999e-01
5.368557821e-01,6.08219e-01,9.99999e-01,9.99484e-01,6.08533e-01,9.99998e-01
5.395400610e-01,6.13376e-01,9.99999e-01,9.98134e-01,6.14533e-01,9.99981e-01
5.422377613e-01,6.18965e-01,9.99999e-01,9.97614e-01,6.20472e-01,9.99955e-01
5.449489501e-01,6.24924e-01,9.99999e-01,9.97769e-01,6.26349e-01,9.99954e-01
5.476736949e-01,6.30909e-01,9.99999e-01,9.98036e-01,6.32164e-01,9.99977e-01
5.504120634e-01,6.37003e-01,9.99999e-01,9.98574e-01,6.37916e-01,9.99993e-01
5.531641237e-01,6.43144e-01,9.99999e-01,9.99282e-01,6.43606e-01,9.99998e-01
5.559299443e-01,6.49008e-01,9.99999e-01,9.99653e-01,6.49232e-01,9.99999e-01
5.587095940e-01,6.54653e-01,9.99999e-01,9.99781e-01,6.54796e-01,9.99999e-01
5.615031420e-01,6.60135e-01,9.99999e-01,9.99757e-01,6.60295e-01,9.99999e-01
5.643106577e-01,6.65545e-01,9.99999e-01,9.99722e-01,6.65731e-01,9.99997e-01
5.671322110e-01,6.68815e-01,9.99999e-01,9.96619e-01,6.71103e-01,9.99969e-01
5.699678720e-01,6.73966e-01,9.99999e-01,9.96476e-01,6.76410e-01,9.99908e-01
5.728177114e-01,6.79079e-01,9.99999e-01,9.96297e-01,6.81654e-01,9.99923e-01
5.756818000e-01,6.84474e-01,9.99999e-01,9.96607e-01,6.86834e-01,9.99955e-01
5.785602090e-01,6.89898e-01,9.99999e-01,9.97047e-01,6.91949e-01,9.99986e-01
5.814530100e-01,6.94926e-01,9.99999e-01,9.97029e-01,6.97001e-01,9.99993e-01
5.843602750e-01,6.99477e-01,9.99999e-01,9.96441e-01,7.01988e-01,9.99979e-01
5.872820764e-01,6.85482e-01,9.99999e-01,9.69892e-01,7.06911e-01,9.99785e-01
5.902184868e-01,6.85541e-01,9.99999e-01,9.63710e-01,7.11771e-01,9.99415e-01
5.931695792e-01,6.97720e-01,9.99999e-01,9.74244e-01,7.16567e-01,9.99437e-01
5.961354271e-01,7.00728e-01,9.99999e-01,9.71791e-01,7.21300e-01,9.99676e-01
5.991161043e-01,7.10904e-01,9.99999e-01,9.79344e-01,7.25970e-01,9.99899e-01
6.021116848e-01,7.21976e-01,9.99999e-01,9.88238e-01,7.30577e-01,9.99988e-01
6.051222432e-01,7.30735e-01,9.99999e-01,9.94033e-01,7.35121e-01,9.99998e-01
6.081478544e-01,7.37695e-01,9.99999e-01,9.97420e-01,7.39603e-01,9.99999e-01
6.111885937e-01,7.43212e-01,9.99999e-01,9.98910e-01,7.44022e-01,9.99999e-01
6.142445367e-01,7.48016e-01,9.99999e-01,9.99512e-01,7.48381e-01,9.99999e-01
6.173157594e-01,7.52475e-01,9.99999e-01,9.99730e-01,7.52678e-01,9.99999e-01
6.204023382e-01,7.56740e-01,9.99999e-01,9.99771e-01,7.56913e-01,9.99999e-01
6.235043498e-01,7.60313e-01,9.99999e-01,9.98982e-01,7.61089e-01,9.99997e-01
6.266218716e-01,7.61110e-01,9.99999e-01,9.94685e-01,7.65204e-01,9.99962e-01
6.297549810e-01,7.67701e-01,9.99999e-01,9.98047e-01,7.69260e-01,9.99924e-01
6.329037559e-01,7.70235e-01,9.99999e-01,9.96152e-01,7.73256e-01,9.99939e-01
6.360682746e-01,7.74611e-01,9.99999e-01,9.96711e-01,7.77194e-01,9.99964e-01
6.392486160e-01,7.77739e-01,9.99999e-01,9.95747e-01,7.81073e-01,9.99983e-01
6.424448591e-01,7.80383e-01,9.99999e-01,9.94279e-01,7.84894e-01,9.99971e-01
6.456570834e-01,7.67840e-01,9.99999e-01,9.73758e-01,7.88658e-01,9.99839e-01
6.488853688e-01,7.76908e-01,9.99999e-01,9.80893e-01,7.92365e-01,9.99589e-01
6.521297956e-01,7.80273e-01,9.99999e-01,9.80553e-01,7.96016e-01,9.99661e-01
6.553904446e-01,7.83825e-01,9.99999e-01,9.80504e-01,7.99611e-01,9.99747e-01
6.586673968e-01,7.89717e-01,9.99999e-01,9.83354e-01,8.03151e-01,9.99915e-01
6.619607338e-01,7.99107e-01,9.99999e-01,9.90682e-01,8.06636e-01,9.99981e-01
6.652705375e-01,8.05522e-01,9.99999e-01,9.94397e-01,8.10067e-01,9.99990e-01
6.685968902e-01,8.11505e-01,9.99999e-01,9.97616e-01,8.13445e-01,9.99997e-01
6.719398746e-01,8.15784e-01,9.99999e-01,9.98793e-01,8.16769e-01,9.99999e-01
6.752995740e-01,8.19519e-01,9.99999e-01,9.99362e-01,8.20041e-01,9.99999e-01
6.786760719e-01,8.22474e-01,9.99999e-01,9.99045e-01,8.23261e-01,9.99998e-01
6.820694522e-01,8.25080e-01,9.99999e-01,9.98375e-01,8.26430e-01,9.99991e-01
6.854797995e-01,8.27794e-01,9.99999e-01,9.97903e-01,8.29547e-01,9.99981e-01
6.889071985e-01,8.28319e-01,9.99999e-01,9.94884e-01,8.32615e-01,9.99954e-01
6.923517345e-01,7.69003e-01,9.99999e-01,9.20628e-01,8.35633e-01,9.99603e-01
6.958134932e-01,8.03194e-01,9.99999e-01,9.58617e-01,8.38602e-01,9.99122e-01
6.992925606e-01,8.07082e-01,9.99999e-01,9.59830e-01,8.41523e-01,9.99209e-01
7.027890234e-01,8.02458e-01,9.99999e-01,9.50907e-01,8.44396e-01,9.99395e-01
7.063029686e-01,8.11778e-01,9.99999e-01,9.58452e-01,8.47222e-01,9.99699e-01
7.098344834e-01,8.15921e-01,9.99999e-01,9.60076e-01,8.50001e-01,9.99821e-01
7.133836558e-01,8.07283e-01,9.99999e-01,9.47034e-01,8.52734e-01,9.99646e-01
7.169505741e-01,5.61932e-01,9.99999e-01,6.58735e-01,8.55421e-01,9.97223e-01
7.205353270e-01,6.95552e-01,9.99999e-01,8.14591e-01,8.58064e-01,9.95106e-01
7.241380036e-01,6.57620e-01,9.99999e-01,7.67328e-01,8.60662e-01,9.95772e-01
7.277586936e-01,6.77695e-01,9.99999e-01,7.87803e-01,8.63217e-01,9.96543e-01
7.313974871e-01,6.69606e-01,9.99999e-01,7.74714e-01,8.65729e-01,9.98379e-01
7.350544745e-01,7.53907e-01,9.99999e-01,8.68848e-01,8.68198e-01,9.99436e-01
7.387297469e-01,7.84423e-01,9.99999e-01,9.01220e-01,8.70625e-01,9.99741e-01
7.424233956e-01,8.29603e-01,9.99999e-01,9.50320e-01,8.73011e-01,9.99954e-01
7.461355126e-01,8.48682e-01,9.99999e-01,9.69535e-01,8.75356e-01,9.99991e-01
7.498661902e-01,8.65130e-01,9.99999e-01,9.85724e-01,8.77660e-01,9.99996e-01
7.536155211e-01,8.73726e-01,9.99999e-01,9.92955e-01,8.79926e-01,9.99997e-01
7.573835987e-01,8.78949e-01,9.99999e-01,9.96369e-01,8.82152e-01,9.99999e-01
7.611705167e-01,8.82343e-01,9.99999e-01,9.97742e-01,8.84339e-01,9.99999e-01
7.649763693e-01,8.85233e-01,9.99999e-01,9.98583e-01,8.86489e-01,9.99999e-01
7.688012511e-01,8.87724e-01,9.99999e-01,9.99012e-01,8.88601e-01,9.99999e-01
7.726452574e-01,8.89952e-01,9.99999e-01,9.99186e-01,8.90677e-01,9.99999e-01
7.765084837e-01,8.91678e-01,9.99999e-01,9.98838e-01,8.92716e-01,9.99998e-01
7.803910261e-01,8.90225e-01,9.99999e-01,9.94981e-01,8.94719e-01,9.99994e-01
7.842929812e-01,8.81058e-01,9.99999e-01,9.82600e-01,8.96687e-01,9.99967e-01
7.882144461e-01,8.66664e-01,9.99999e-01,9.64674e-01,8.98621e-01,9.99753e-01
7.921555184e-01,8.82638e-01,9.99999e-01,9.80561e-01,9.00520e-01,9.99571e-01
7.961162960e-01,8.71032e-01,9.99999e-01,9.65646e-01,9.02386e-01,9.99592e-01
8.000968774e-01,8.68108e-01,9.99999e-01,9.60480e-01,9.04219e-01,9.99566e-01
8.040973618e-01,8.69913e-01,9.99999e-01,9.60465e-01,9.06019e-01,9.99668e-01
8.081178486e-01,8.28890e-01,9.99999e-01,9.13394e-01,9.07787e-01,9.99664e-01
8.121584379e-01,6.28139e-01,9.99999e-01,6.91501e-01,9.09523e-01,9.98731e-01
8.162192301e-01,5.89033e-01,9.99999e-01,6.49509e-01,9.11228e-01,9.95238e-01
8.203003262e-01,7.37685e-01,9.99999e-01,8.12592e-01,9.12903e-01,9.94426e-01
8.244018279e-01,6.89991e-01,9.99999e-01,7.57823e-01,9.14548e-01,9.95561e-01
8.285238370e-01,7.01736e-01,9.99999e-01,7.68630e-01,9.16163e-01,9.96512e-01
8.326664562e-01,7.03917e-01,9.99999e-01,7.68112e-01,9.17749e-01,9.98556e-01
8.368297885e-01,7.59011e-01,9.99999e-01,8.25906e-01,9.19306e-01,9.99669e-01
8.410139374e-01,8.21367e-01,9.99999e-01,8.92152e-01,9.20835e-01,9.99806e-01
8.452190071e-01,8.71914e-01,9.99999e-01,9.45440e-01,9.22336e-01,9.99884e-01
8.494451021e-01,8.94014e-01,9.99999e-01,9.67835e-01,9.23810e-01,9.99907e-01
8.536923276e-01,9.07535e-01,9.99999e-01,9.80900e-01,9.25257e-01,9.99943e-01
8.579607893e-01,9.15702e-01,9.99999e-01,9.88168e-01,9.26678e-01,9.99986e-01
8.622505932e-01,9.21093e-01,9.99999e-01,9.92480e-01,9.28073e-01,9.99997e-01
8.665618462e-01,9.25102e-01,9.99999e-01,9.95330e-01,9.29443e-01,9.99998e-01
8.708946554e-01,9.25801e-01,9.99999e-01,9.94646e-01,9.30787e-01,9.99996e-01
8.752491287e-01,9.25433e-01,9.99999e-01,9.92847e-01,9.32106e-01,9.99992e-01
8.796253743e-01,9.24128e-01,9.99999e-01,9.90085e-01,9.33402e-01,9.99977e-01
8.840235012e-01,9.24042e-01,9.99999e-01,9.88693e-01,9.34673e-01,9.99930e-01
8.884436187e-01,8.97771e-01,9.99999e-01,9.59425e-01,9.35921e-01,9.99803e-01
8.928858368e-01,6.16475e-01,9.99999e-01,6.58566e-01,9.37146e-01,9.98867e-01
8.973502660e-01,4.52111e-01,9.99999e-01,4.84620e-01,9.38349e-01,9.94210e-01
9.018370173e-01,6.44474e-01,9.99999e-01,6.92245e-01,9.39529e-01,9.90912e-01
9.063462024e-01,6.69954e-01,9.99999e-01,7.17930e-01,9.40687e-01,9.92012e-01
9.108779334e-01,5.59042e-01,9.99999e-01,5.98540e-01,9.41824e-01,9.91701e-01
9.154323231e-01,5.19574e-01,9.99999e-01,5.54823e-01,9.42940e-01,9.93135e-01
9.200094847e-01,5.96117e-01,9.99999e-01,6.33894e-01,9.44035e-01,9.96152e-01
9.246095321e-01,4.81996e-01,9.99999e-01,5.12260e-01,9.45109e-01,9.95567e-01
9.292325798e-01,2.99182e-02,9.99999e-01,3.23060e-02,9.46164e-01,9.78782e-01
9.338787427e-01,6.35456e-03,9.99999e-01,7.24954e-03,9.47198e-01,9.25408e-01
9.385481364e-01,1.16170e-01,9.99999e-01,1.33407e-01,9.48214e-01,9.18356e-01
9.432408771e-01,6.27580e-02,9.99999e-01,7.11569e-02,9.49210e-01,9.29157e-01
9.479570815e-01,1.86650e-02,9.99999e-01,2.08539e-02,9.50188e-01,9.41952e-01
9.526968669e-01,4.40811e-02,9.99999e-01,4.80667e-02,9.51148e-01,9.64182e-01
9.574603512e-01,5.13912e-02,9.99999e-01,5.49866e-02,9.52089e-01,9.81642e-01
9.622476530e-01,8.28514e-02,9.99999e-01,8.80571e-02,9.53013e-01,9.87270e-01
9.670588912e-01,2.24535e-01,9.99999e-01,2.37452e-01,9.53919e-01,9.91276e-01
9.718941857e-01,3.58082e-01,9.99999e-01,3.77456e-01,9.54808e-01,9.93570e-01
9.767536566e-01,4.22147e-01,9.99999e-01,4.43905e-01,9.55681e-01,9.95082e-01
9.816374249e-01,5.18231e-01,9.99999e-01,5.42702e-01,9.56537e-01,9.98295e-01
9.865456120e-01,6.50727e-01,9.99999e-01,6.79939e-01,9.57377e-01,9.99644e-01
9.914783401e-01,7.53387e-01,9.99999e-01,7.86328e-01,9.58201e-01,9.99901e-01
9.964357318e-01,8.41192e-01,9.99999e-01,8.77197e-01,9.59009e-01,9.99941e-01
1.001417910e+00,8.87101e-01,9.99999e-01,9.24334e-01,9.59803e-01,9.99911e-01
1.006425000e+00,9.18220e-01,9.99999e-01,9.56020e-01,9.60581e-01,9.99874e-01
1.011457125e+00,9.34824e-01,9.99999e-01,9.72525e-01,9.61344e-01,9.99883e-01
1.016514411e+00,9.43968e-01,9.99999e-01,9.81240e-01,9.62093e-01,9.99917e-01
1.021596983e+00,9.48324e-01,9.99999e-01,9.85015e-01,9.62828e-01,9.99918e-01
1.026704968e+00,9.52217e-01,9.99999e-01,9.88289e-01,9.63548e-01,9.99948e-01
1.031838492e+00,9.56035e-01,9.99999e-01,9.91489e-01,9.64255e-01,9.99984e-01
1.036997685e+00,9.60054e-01,9.99999e-01,9.94928e-01,9.64949e-01,9.99997e-01
1.042182673e+00,9.59777e-01,9.99999e-01,9.93940e-01,9.65629e-01,9.99998e-01
1.047393587e+00,9.58548e-01,9.99999e-01,9.91982e-01,9.66296e-01,9.99997e-01
1.052630555e+00,9.56316e-01,9.99999e-01,9.89003e-01,9.66951e-01,9.99996e-01
1.057893707e+00,9.49876e-01,9.99999e-01,9.81695e-01,9.67593e-01,9.99993e-01
1.063183176e+00,9.39264e-01,9.99999e-01,9.70105e-01,9.68223e-01,9.99983e-01
1.068499092e+00,9.20898e-01,9.99999e-01,9.50547e-01,9.68841e-01,9.99965e-01
1.073841587e+00,9.13639e-01,9.99999e-01,9.42503e-01,9.69447e-01,9.99924e-01
1.079210795e+00,8.98979e-01,9.99999e-01,9.26930e-01,9.70041e-01,9.99796e-01
1.084606849e+00,8.65085e-01,9.99999e-01,8.91701e-01,9.70624e-01,9.99511e-01
1.090029883e+00,8.23323e-01,9.99999e-01,8.48599e-01,9.71196e-01,9.98988e-01
1.095480033e+00,6.21641e-01,9.99999e-01,6.40879e-01,9.71757e-01,9.98171e-01
1.100957433e+00,3.25728e-01,9.99999e-01,3.36136e-01,9.72307e-01,9.96637e-01
1.106462220e+00,7.86904e-02,9.99999e-01,8.13501e-02,9.72846e-01,9.94303e-01
1.111994531e+00,6.03206e-03,9.99999e-01,6.29174e-03,9.73375e-01,9.84949e-01
1.117554504e+00,4.95702e-04,9.99999e-01,5.37634e-04,9.73894e-01,9.46720e-01
1.123142276e+00,6.00509e-03,9.99999e-01,7.01726e-03,9.74403e-01,8.78237e-01
1.128757988e+00,1.89417e-02,9.99999e-01,2.25782e-02,9.74902e-01,8.60534e-01
1.134401778e+00,1.12085e-02,9.99999e-01,1.30567e-02,9.75392e-01,8.80102e-01
1.140073787e+00,7.51342e-02,9.99999e-01,8.52632e-02,9.75872e-01,9.02989e-01
1.145774156e+00,1.18399e-02,9.99999e-01,1.33140e-02,9.76343e-01,9.10822e-01
1.151503026e+00,6.66224e-03,9.99999e-01,7.18473e-03,9.76805e-01,9.49295e-01
1.157260541e+00,8.57510e-03,9.99999e-01,8.91223e-03,9.77258e-01,9.84561e-01
1.163046844e+00,2.89217e-02,9.99999e-01,2.97120e-02,9.77702e-01,9.95599e-01
1.168862078e+00,7.40705e-02,9.99999e-01,7.58982e-02,9.78137e-01,9.97730e-01
1.174706389e+00,1.93288e-01,9.99999e-01,1.98117e-01,9.78565e-01,9.96992e-01
1.180579921e+00,3.57621e-01,9.99999e-01,3.66965e-01,9.78983e-01,9.95456e-01
1.186482820e+00,5.45600e-01,9.99999e-01,5.59688e-01,9.79394e-01,9.95336e-01
1.192415234e+00,6.93512e-01,9.99999e-01,7.10293e-01,9.79797e-01,9.96505e-01
1.198377311e+00,7.32324e-01,9.99999e-01,7.49596e-01,9.80192e-01,9.96699e-01
1.204369197e+00,7.46400e-01,9.99999e-01,7.63462e-01,9.80580e-01,9.97013e-01
1.210391043e+00,7.55249e-01,9.99999e-01,7.71310e-01,9.80959e-01,9.98182e-01
1.216442998e+00,7.86224e-01,9.99999e-01,8.02073e-01,9.81332e-01,9.98885e-01
1.222525213e+00,8.25332e-01,9.99999e-01,8.41300e-01,9.81697e-01,9.99307e-01
1.228637839e+00,8.70510e-01,9.99999e-01,8.86701e-01,9.82056e-01,9.99677e-01
1.234781029e+00,8.98508e-01,9.99999e-01,9.14682e-01,9.82407e-01,9.99907e-01
1.240954934e+00,9.28778e-01,9.99999e-01,9.45103e-01,9.82751e-01,9.99973e-01
1.247159708e+00,9.40775e-01,9.99999e-01,9.56973e-01,9.83089e-01,9.99983e-01
1.253395507e+00,9.45700e-01,9.99999e-01,9.61664e-01,9.83420e-01,9.99977e-01
1.259662485e+00,9.47793e-01,9.99999e-01,9.63486e-01,9.83745e-01,9.99965e-01
1.265960797e+00,9.27385e-01,9.99999e-01,9.42457e-01,9.84064e-01,9.99942e-01
1.272290601e+00,8.96732e-01,9.99999e-01,9.11057e-01,9.84376e-01,9.99898e-01
1.278652054e+00,8.19307e-01,9.99999e-01,8.32201e-01,9.84682e-01,9.99820e-01
1.285045314e+00,7.07986e-01,9.99999e-01,7.19021e-01,9.84982e-01,9.99664e-01
1.291470541e+00,5.55710e-01,9.99999e-01,5.64346e-01,9.85277e-01,9.99411e-01
1.297927893e+00,4.41615e-01,9.99999e-01,4.48575e-01,9.85566e-01,9.98901e-01
1.304417533e+00,3.87662e-01,9.99999e-01,3.94143e-01,9.85849e-01,9.97674e-01
1.310939621e+00,3.04186e-01,9.99999e-01,3.09942e-01,9.86126e-01,9.95232e-01
1.317494319e+00,3.11689e-01,9.99999e-01,3.18792e-01,9.86398e-01,9.91198e-01
1.324081790e+00,1.87335e-01,9.99999e-01,1.92627e-01,9.86665e-01,9.85670e-01
1.330702199e+00,2.39162e-02,9.99999e-01,2.48436e-02,9.86927e-01,9.75419e-01
1.337355710e+00,1.19129e-06,9.99999e-01,1.26600e-06,9.87183e-01,9.53200e-01
1.344042489e+00,1.04816e-09,9.99999e-01,1.22635e-09,9.87435e-01,8.65572e-01
1.350762701e+00,1.38459e-32,9.99999e-01,2.29807e-32,9.87682e-01,6.10017e-01
1.357516515e+00,1.08996e-49,9.99999e-01,4.70609e-49,9.87923e-01,2.34436e-01
1.364304097e+00,1.47717e-30,9.99999e-01,1.89968e-29,9.88160e-01,7.86902e-02
1.371125618e+00,2.15678e-18,9.99999e-01,2.39774e-17,9.88393e-01,9.10067e-02
1.377981246e+00,9.60185e-18,9.99999e-01,7.57878e-17,9.88621e-01,1.28152e-01
1.384871152e+00,4.96969e-25,9.99999e-01,3.40911e-24,9.88844e-01,1.47421e-01
1.391795508e+00,9.21750e-31,9.99999e-01,5.78005e-30,9.89063e-01,1.61234e-01
1.398754485e+00,2.44417e-23,9.99999e-01,1.11554e-22,9.89278e-01,2.21476e-01
1.405748258e+00,4.63941e-23,9.99999e-01,1.13180e-22,9.89489e-01,4.14268e-01
1.412776999e+00,3.20515e-22,9.99998e-01,4.84265e-22,9.89695e-01,6.68747e-01
1.419840884e+00,5.79701e-22,9.99998e-01,6.98603e-22,9.89898e-01,8.38267e-01
1.426940089e+00,2.41795e-14,9.99998e-01,2.79240e-14,9.90097e-01,8.74565e-01
1.434074789e+00,9.05719e-13,9.99998e-01,1.07132e-12,9.90291e-01,8.53715e-01
1.441245163e+00,1.53276e-10,9.99998e-01,1.83665e-10,9.90482e-01,8.42560e-01
1.448451389e+00,4.37640e-07,9.99997e-01,5.13252e-07,9.90669e-01,8.60710e-01
1.455693646e+00,4.75278e-05,9.99998e-01,5.39046e-05,9.90853e-01,8.89839e-01
1.462972114e+00,6.26317e-05,9.99999e-01,7.06397e-05,9.91032e-01,8.94658e-01
1.470286975e+00,1.96696e-05,9.99999e-01,2.21386e-05,9.91209e-01,8.96356e-01
