#,Wave/freq,Total,N2,H2O,Rayleigh,CIA
4.000000000e-01,8.44549e-01,9.99999e-01,9.99980e-01,8.44565e-01,9.99999e-01
4.020000000e-01,8.47381e-01,9.99999e-01,9.99987e-01,8.47391e-01,9.99999e-01
4.040100000e-01,8.50163e-01,9.99999e-01,9.99994e-01,8.50167e-01,9.99999e-01
4.060300500e-01,8.52896e-01,9.99999e-01,9.99998e-01,8.52897e-01,9.99999e-01
4.080602003e-01,8.55582e-01,9.99999e-01,9.99999e-01,8.55582e-01,9.99999e-01
4.101005013e-01,8.58222e-01,9.99999e-01,9.99999e-01,8.58222e-01,9.99999e-01
4.121510038e-01,8.60817e-01,9.99999e-01,9.99998e-01,8.60818e-01,9.99999e-01
4.142117588e-01,8.63365e-01,9.99999e-01,9.99994e-01,8.63370e-01,9.99999e-01
4.162828176e-01,8.65858e-01,9.99999e-01,9.99975e-01,8.65879e-01,9.99999e-01
4.183642317e-01,8.68333e-01,9.99999e-01,9.99985e-01,8.68345e-01,9.99999e-01
4.204560528e-01,8.70763e-01,9.99999e-01,9.99990e-01,8.70770e-01,9.99999e-01
4.225583331e-01,8.73151e-01,9.99999e-01,9.99996e-01,8.73153e-01,9.99999e-01
4.246711247e-01,8.75494e-01,9.99999e-01,9.99996e-01,8.75496e-01,9.99999e-01
4.267944804e-01,8.77795e-01,9.99999e-01,9.99995e-01,8.77798e-01,9.99999e-01
4.289284528e-01,8.80059e-01,9.99999e-01,9.99996e-01,8.80061e-01,9.99999e-01
4.310730950e-01,8.82284e-01,9.99999e-01,9.99998e-01,8.82285e-01,9.99999e-01
4.332284605e-01,8.84470e-01,9.99999e-01,9.99999e-01,8.84470e-01,9.99999e-01
4.353946028e-01,8.86617e-01,9.99999e-01,9.99999e-01,8.86618e-01,9.99999e-01
4.375715758e-01,8.88725e-01,9.99999e-01,9.99997e-01,8.88728e-01,9.99999e-01
4.397594337e-01,8.90782e-01,9.99999e-01,9.99978e-01,8.90801e-01,9.99999e-01
4.419582309e-01,8.92743e-01,9.99999e-01,9.99893e-01,8.92838e-01,9.99999e-01
4.441680220e-01,8.94766e-01,9.99999e-01,9.99917e-01,8.94839e-01,9.99999e-01
4.463888621e-01,8.96728e-01,9.99999e-01,9.99914e-01,8.96805e-01,9.99999e-01
4.486208064e-01,8.98689e-01,9.99999e-01,9.99946e-01,8.98736e-01,9.99999e-01
4.508639105e-01,9.00611e-01,9.99999e-01,9.99974e-01,9.00634e-01,9.99999e-01
4.531182300e-01,9.02489e-01,9.99999e-01,9.99989e-01,9.02497e-01,9.99999e-01
4.553838212e-01,9.04322e-01,9.99999e-01,9.99992e-01,9.04328e-01,9.99999e-01
4.576607403e-01,9.06123e-01,9.99999e-01,9.99996e-01,9.06126e-01,9.99999e-01
4.599490440e-01,9.07890e-01,9.99999e-01,9.99997e-01,9.07892e-01,9.99999e-01
4.622487892e-01,9.09626e-01,9.99999e-01,9.99999e-01,9.09627e-01,9.99999e-01
4.645600332e-01,9.11329e-01,9.99999e-01,9.99998e-01,9.11330e-01,9.99999e-01
4.668828333e-01,9.12980e-01,9.99999e-01,9.99974e-01,9.13003e-01,9.99999e-01
4.692172475e-01,9.14597e-01,9.99999e-01,9.99945e-01,9.14646e-01,9.99999e-01
4.715633337e-01,9.16227e-01,9.99999e-01,9.99964e-01,9.16259e-01,9.99999e-01
4.739211504e-01,9.17813e-01,9.99999e-01,9.99966e-01,9.17843e-01,9.99999e-01
4.762907561e-01,9.19383e-01,9.99999e-01,9.99982e-01,9.19399e-01,9.99999e-01
4.786722099e-01,9.20920e-01,9.99999e-01,9.99992e-01,9.20926e-01,9.99999e-01
4.810655710e-01,9.22424e-01,9.99999e-01,9.99997e-01,9.22426e-01,9.99999e-01
4.834708988e-01,9.23879e-01,9.99999e-01,9.99978e-01,9.23898e-01,9.99999e-01
4.858882533e-01,9.25309e-01,9.99999e-01,9.99961e-01,9.25344e-01,9.99999e-01
4.883176946e-01,9.26734e-01,9.99999e-01,9.99967e-01,9.26763e-01,9.99999e-01
4.907592831e-01,9.28130e-01,9.99999e-01,9.99970e-01,9.28157e-01,9.99999e-01
4.932130795e-01,9.29505e-01,9.99999e-01,9.99979e-01,9.29524e-01,9.99999e-01
4.956791449e-01,9.30857e-01,9.99999e-01,9.99988e-01,9.30867e-01,9.99999e-01
4.981575406e-01,9.32135e-01,9.99999e-01,9.99945e-01,9.32185e-01,9.99999e-01
5.006483283e-01,9.33347e-01,9.99999e-01,9.99859e-01,9.33479e-01,9.99998e-01
5.031515699e-01,9.34079e-01,9.99999e-01,9.99290e-01,9.34749e-01,9.99992e-01
5.056673278e-01,9.35638e-01,9.99999e-01,9.99625e-01,9.35996e-01,9.99990e-01
5.081956644e-01,9.36773e-01,9.99999e-01,9.99528e-01,9.37220e-01,9.99994e-01
5.107366428e-01,9.38121e-01,9.99999e-01,9.99681e-01,9.38421e-01,9.99998e-01
5.132903260e-01,9.39429e-01,9.99999e-01,9.99817e-01,9.39599e-01,9.99999e-01
5.158567776e-01,9.40684e-01,9.99999e-01,9.99922e-01,9.40756e-01,9.99999e-01
5.184360615e-01,9.41863e-01,9.99999e-01,9.99968e-01,9.41892e-01,9.99999e-01
5.210282418e-01,9.42996e-01,9.99999e-01,9.99988e-01,9.43006e-01,9.99999e-01
5.236333830e-01,9.44056e-01,9.99999e-01,9.99953e-01,9.44100e-01,9.99999e-01
5.262515499e-01,9.45146e-01,9.99999e-01,9.99970e-01,9.45173e-01,9.99999e-01
5.288828077e-01,9.46201e-01,9.99999e-01,9.99972e-01,9.46227e-01,9.99999e-01
5.315272217e-01,9.47238e-01,9.99999e-01,9.99976e-01,9.47260e-01,9.99999e-01
5.341848578e-01,9.48260e-01,9.99999e-01,9.99984e-01,9.48275e-01,9.99999e-01
5.368557821e-01,9.49219e-01,9.99999e-01,9.99945e-01,9.49270e-01,9.99999e-01
5.395400610e-01,9.50060e-01,9.99999e-01,9.99804e-01,9.50247e-01,9.99997e-01
5.422377613e-01,9.50962e-01,9.99999e-01,9.99748e-01,9.51205e-01,9.99994e-01
5.449489501e-01,9.51918e-01,9.99999e-01,9.99765e-01,9.52145e-01,9.99994e-01
5.476736949e-01,9.52869e-01,9.99999e-01,9.99793e-01,9.53068e-01,9.99997e-01
5.504120634e-01,9.53830e-01,9.99999e-01,9.99849e-01,9.53973e-01,9.99998e-01
5.531641237e-01,9.54790e-01,9.99999e-01,9.99924e-01,9.54862e-01,9.99999e-01
5.559299443e-01,9.55698e-01,9.99999e-01,9.99963e-01,9.55733e-01,9.99999e-01
5.587095940e-01,9.56566e-01,9.99999e-01,9.99976e-01,9.56588e-01,9.99999e-01
5.615031420e-01,9.57403e-01,9.99999e-01,9.99974e-01,9.57427e-01,9.99999e-01
5.643106577e-01,9.58222e-01,9.99999e-01,9.99970e-01,9.58250e-01,9.99999e-01
5.671322110e-01,9.58717e-01,9.99999e-01,9.99647e-01,9.59058e-01,9.99996e-01
5.699678720e-01,9.59484e-01,9.99999e-01,9.99627e-01,9.59850e-01,9.99989e-01
5.728177114e-01,9.60247e-01,9.99999e-01,9.99611e-01,9.60627e-01,9.99991e-01
5.756818000e-01,9.61043e-01,9.99999e-01,9.99643e-01,9.61390e-01,9.99994e-01
5.785602090e-01,9.61838e-01,9.99999e-01,9.99689e-01,9.62138e-01,9.99998e-01
5.814530100e-01,9.62571e-01,9.99999e-01,9.99687e-01,9.62872e-01,9.99998e-01
5.843602750e-01,9.63230e-01,9.99999e-01,9.99627e-01,9.63591e-01,9.99997e-01
5.872820764e-01,9.61181e-01,9.99999e-01,9.96789e-01,9.64297e-01,9.99977e-01
5.902184868e-01,9.61190e-01,9.99999e-01,9.96122e-01,9.64990e-01,9.99938e-01
5.931695792e-01,9.62964e-01,9.99999e-01,9.97256e-01,9.65670e-01,9.99940e-01
5.961354271e-01,9.63401e-01,9.99999e-01,9.96995e-01,9.66336e-01,9.99965e-01
5.991161043e-01,9.64862e-01,9.99999e-01,9.97809e-01,9.66990e-01,9.99989e-01
6.021116848e-01,9.66428e-01,9.99999e-01,9.98756e-01,9.67631e-01,9.99998e-01
6.051222432e-01,9.67652e-01,9.99999e-01,9.99370e-01,9.68260e-01,9.99999e-01
6.081478544e-01,9.68615e-01,9.99999e-01,9.99728e-01,9.68878e-01,9.99999e-01
6.111885937e-01,9.69372e-01,9.99999e-01,9.99884e-01,9.69483e-01,9.99999e-01
6.142445367e-01,9.70027e-01,9.99999e-01,9.99948e-01,9.70076e-01,9.99999e-01
6.173157594e-01,9.70631e-01,9.99999e-01,9.99971e-01,9.70659e-01,9.99999e-01
6.204023382e-01,9.71207e-01,9.99999e-01,9.99975e-01,9.71230e-01,9.99999e-01
6.235043498e-01,9.71687e-01,9.99999e-01,9.99893e-01,9.71790e-01,9.99999e-01
6.266218716e-01,9.71793e-01,9.99999e-01,9.99441e-01,9.72339e-01,9.99995e-01
6.297549810e-01,9.72671e-01,9.99999e-01,9.99794e-01,9.72878e-01,9.99991e-01
6.329037559e-01,9.73007e-01,9.99999e-01,9.99595e-01,9.73407e-01,9.99993e-01
6.360682746e-01,9.73586e-01,9.99999e-01,9.99654e-01,9.73925e-01,9.99995e-01
6.392486160e-01,9.73997e-01,9.99999e-01,9.99552e-01,9.74434e-01,9.99997e-01
6.424448591e-01,9.74345e-01,9.99999e-01,9.99400e-01,9.74932e-01,9.99996e-01
6.456570834e-01,9.72693e-01,9.99999e-01,9.97218e-01,9.75421e-01,9.99984e-01
6.488853688e-01,9.73877e-01,9.99999e-01,9.97969e-01,9.75901e-01,9.99956e-01
6.521297956e-01,9.74316e-01,9.99999e-01,9.97929e-01,9.76371e-01,9.99964e-01
6.553904446e-01,9.74792e-01,9.99999e-01,9.97937e-01,9.76832e-01,9.99973e-01
6.586673968e-01,9.75552e-01,9.99999e-01,9.98235e-01,9.77285e-01,9.99990e-01
6.619607338e-01,9.76765e-01,9.99999e-01,9.99016e-01,9.77728e-01,9.99997e-01
6.652705375e-01,9.77585e-01,9.99999e-01,9.99409e-01,9.78163e-01,9.99998e-01
6.685968902e-01,9.78322e-01,9.99999e-01,9.99725e-01,9.78590e-01,9.99999e-01
6.719398746e-01,9.78884e-01,9.99999e-01,9.99872e-01,9.79008e-01,9.99999e-01
6.752995740e-01,9.79351e-01,9.99999e-01,9.99930e-01,9.79419e-01,9.99999e-01
6.786760719e-01,9.79723e-01,9.99999e-01,9.99899e-01,9.79821e-01,9.99999e-01
6.820694522e-01,9.80048e-01,9.99999e-01,9.99829e-01,9.80216e-01,9.99998e-01
6.854797995e-01,9.80385e-01,9.99999e-01,9.99779e-01,9.80603e-01,9.99997e-01
6.889071985e-01,9.80453e-01,9.99999e-01,9.99465e-01,9.80982e-01,9.99994e-01
6.923517345e-01,9.72792e-01,9.99999e-01,9.91315e-01,9.81354e-01,9.99957e-01
6.958134932e-01,9.77215e-01,9.99999e-01,9.95503e-01,9.81719e-01,9.99907e-01
6.992925606e-01,9.77777e-01,9.99999e-01,9.95703e-01,9.82077e-01,9.99916e-01
7.027890234e-01,9.77168e-01,9.99999e-01,9.94708e-01,9.82428e-01,9.99936e-01
7.063029686e-01,9.78368e-01,9.99999e-01,9.95549e-01,9.82772e-01,9.99967e-01
7.098344834e-01,9.78894e-01,9.99999e-01,9.95730e-01,9.83109e-01,9.99980e-01
7.133836558e-01,9.77789e-01,9.99999e-01,9.94290e-01,9.83440e-01,9.99962e-01
7.169505741e-01,9.39168e-01,9.99999e-01,9.54945e-01,9.83765e-01,9.99707e-01
7.205353270e-01,9.61768e-01,9.99999e-01,9.77827e-01,9.84083e-01,9.99484e-01
7.241380036e-01,9.56209e-01,9.99999e-01,9.71798e-01,9.84395e-01,9.99555e-01
7.277586936e-01,9.59266e-01,9.99999e-01,9.74523e-01,9.84700e-01,9.99636e-01
7.313974871e-01,9.58235e-01,9.99999e-01,9.72991e-01,9.85000e-01,9.99829e-01
7.350544745e-01,9.70615e-01,9.99999e-01,9.85158e-01,9.85294e-01,9.99940e-01
7.387297469e-01,9.74780e-01,9.99999e-01,9.89065e-01,9.85583e-01,9.99972e-01
7.424233956e-01,9.80578e-01,9.99999e-01,9.94641e-01,9.85865e-01,9.99994e-01
7.461355126e-01,9.82936e-01,9.99999e-01,9.96748e-01,9.86143e-01,9.99998e-01
7.498661902e-01,9.84922e-01,9.99999e-01,9.98486e-01,9.86415e-01,9.99999e-01
7.536155211e-01,9.85948e-01,9.99999e-01,9.99256e-01,9.86681e-01,9.99999e-01
7.573835987e-01,9.86565e-01,9.99999e-01,9.99617e-01,9.86942e-01,9.99999e-01
7.611705167e-01,9.86964e-01,9.99999e-01,9.99761e-01,9.87199e-01,9.99999e-01
7.649763693e-01,9.87303e-01,9.99999e-01,9.99850e-01,9.87450e-01,9.99999e-01
7.688012511e-01,9.87594e-01,9.99999e-01,9.99895e-01,9.87696e-01,9.99999e-01
7.726452574e-01,9.87853e-01,9.99999e-01,9.99914e-01,9.87938e-01,9.99999e-01
7.765084837e-01,9.88054e-01,9.99999e-01,9.99877e-01,9.88175e-01,9.99999e-01
7.803910261e-01,9.87887e-01,9.99999e-01,9.99473e-01,9.88407e-01,9.99998e-01
7.842929812e-01,9.86816e-01,9.99999e-01,9.98163e-01,9.88634e-01,9.99996e-01
7.882144461e-01,9.85104e-01,9.99999e-01,9.96228e-01,9.88858e-01,9.99973e-01
7.921555184e-01,9.86989e-01,9.99999e-01,9.97933e-01,9.89077e-01,9.99954e-01
7.961162960e-01,9.85627e-01,9.99999e-01,9.96338e-01,9.89291e-01,9.99956e-01
8.000968774e-01,9.85280e-01,9.99999e-01,9.95778e-01,9.89502e-01,9.99954e-01
8.040973618e-01,9.85493e-01,9.99999e-01,9.95775e-01,9.89708e-01,9.99964e-01
8.081178486e-01,9.80450e-01,9.99999e-01,9.90477e-01,9.89910e-01,9.99964e-01
8.121584379e-01,9.51234e-01,9.99999e-01,9.60864e-01,9.90108e-01,9.99866e-01
8.162192301e-01,9.44095e-01,9.99999e-01,9.53817e-01,9.90303e-01,9.99498e-01
8.203003262e-01,9.66724e-01,9.99999e-01,9.76574e-01,9.90493e-01,9.99413e-01
8.244018279e-01,9.58146e-01,9.99999e-01,9.67610e-01,9.90680e-01,9.99532e-01
8.285238370e-01,9.62921e-01,9.99999e-01,9.72155e-01,9.90863e-01,9.99633e-01
8.326664562e-01,9.63033e-01,9.99999e-01,9.71883e-01,9.91043e-01,9.99847e-01
8.368297885e-01,9.71227e-01,9.99999e-01,9.79864e-01,9.91219e-01,9.99964e-01
8.410139374e-01,9.79471e-01,9.99999e-01,9.87995e-01,9.91392e-01,9.99979e-01
8.452190071e-01,9.85700e-01,9.99999e-01,9.94100e-01,9.91561e-01,9.99987e-01
8.494451021e-01,9.88317e-01,9.99999e-01,9.96570e-01,9.91727e-01,9.99989e-01
8.536923276e-01,9.89874e-01,9.99999e-01,9.97973e-01,9.91890e-01,9.99993e-01
8.579607893e-01,9.90809e-01,9.99999e-01,9.98750e-01,9.92049e-01,9.99998e-01
8.622505932e-01,9.91419e-01,9.99999e-01,9.99206e-01,9.92206e-01,9.99999e-01
8.665618462e-01,9.91872e-01,9.99999e-01,9.99508e-01,9.92359e-01,9.99999e-01
8.708946554e-01,9.91951e-01,9.99999e-01,9.99436e-01,9.92510e-01,9.99999e-01
8.752491287e-01,9.91909e-01,9.99999e-01,9.99247e-01,9.92657e-01,9.99998e-01
8.796253743e-01,9.91764e-01,9.99999e-01,9.98956e-01,9.92801e-01,9.99997e-01
8.840235012e-01,9.91753e-01,9.99999e-01,9.98808e-01,9.92943e-01,9.99992e-01
8.884436187e-01,9.88727e-01,9.99999e-01,9.95634e-01,9.93082e-01,9.99978e-01
8.928858368e-01,9.48412e-01,9.99999e-01,9.55001e-01,9.93218e-01,9.99880e-01
8.973502660e-01,9.15233e-01,9.99999e-01,9.21919e-01,9.93352e-01,9.99390e-01
9.018370173e-01,9.52270e-01,9.99999e-01,9.59434e-01,9.93483e-01,9.99042e-01
9.063462024e-01,9.57108e-01,9.99999e-01,9.64072e-01,9.93611e-01,9.99158e-01
9.108779334e-01,9.37868e-01,9.99999e-01,9.44604e-01,9.93737e-01,9.99125e-01
9.154323231e-01,9.30936e-01,9.99999e-01,9.37364e-01,9.93860e-01,9.99277e-01
9.200094847e-01,9.44524e-01,9.99999e-01,9.50627e-01,9.93981e-01,9.99595e-01
9.246095321e-01,9.17413e-01,9.99999e-01,9.23287e-01,9.94099e-01,9.99533e-01
9.292325798e-01,5.83218e-01,9.99999e-01,5.87678e-01,9.94216e-01,9.98183e-01
9.338787427e-01,4.98064e-01,9.99999e-01,5.04682e-01,9.94329e-01,9.92513e-01
9.385481364e-01,7.48093e-01,9.99999e-01,7.59027e-01,9.94441e-01,9.91102e-01
9.432408771e-01,6.71861e-01,9.99999e-01,6.80770e-01,9.94551e-01,9.92319e-01
9.479570815e-01,5.81946e-01,9.99999e-01,5.88754e-01,9.94658e-01,9.93744e-01
9.526968669e-01,6.66486e-01,9.99999e-01,6.72563e-01,9.94763e-01,9.96179e-01
9.574603512e-01,6.89133e-01,9.99999e-01,6.94036e-01,9.94866e-01,9.98057e-01
9.622476530e-01,7.38297e-01,9.99999e-01,7.43029e-01,9.94967e-01,9.98656e-01
9.670588912e-01,8.37675e-01,9.99999e-01,8.42602e-01,9.95067e-01,9.99080e-01
9.718941857e-01,8.93498e-01,9.99999e-01,8.98447e-01,9.95164e-01,9.99322e-01
9.767536566e-01,9.10133e-01,9.99999e-01,9.14940e-01,9.95259e-01,9.99482e-01
9.816374249e-01,9.31786e-01,9.99999e-01,9.36304e-01,9.95352e-01,9.99820e-01
9.865456120e-01,9.55321e-01,9.99999e-01,9.59729e-01,9.95444e-01,9.99962e-01
9.914783401e-01,9.70552e-01,9.99999e-01,9.74915e-01,9.95534e-01,9.99989e-01
9.964357318e-01,9.81941e-01,9.99999e-01,9.86264e-01,9.95622e-01,9.99993e-01
1.001417910e+00,9.87483e-01,9.99999e-01,9.91748e-01,9.95708e-01,9.99990e-01
1.006425000e+00,9.91086e-01,9.99999e-01,9.95285e-01,9.95793e-01,9.99986e-01
1.011457125e+00,9.92950e-01,9.99999e-01,9.97074e-01,9.95876e-01,9.99987e-01
1.016514411e+00,9.93969e-01,9.99999e-01,9.98012e-01,9.95957e-01,9.99990e-01
1.021596983e+00,9.94450e-01,9.99999e-01,9.98415e-01,9.96037e-01,9.99990e-01
1.026704968e+00,9.94878e-01,9.99999e-01,9.98763e-01,9.96115e-01,9.99993e-01
1.031838492e+00,9.95295e-01,9.99999e-01,9.99101e-01,9.96191e-01,9.99997e-01
1.036997685e+00,9.95735e-01,9.99999e-01,9.99466e-01,9.96266e-01,9.99999e-01
1.042182673e+00,9.95705e-01,9.99999e-01,9.99362e-01,9.96340e-01,9.99999e-01
1.047393587e+00,9.95571e-01,9.99999e-01,9.99155e-01,9.96412e-01,9.99999e-01
1.052630555e+00,9.95328e-01,9.99999e-01,9.98841e-01,9.96483e-01,9.99999e-01
1.057893707e+00,9.94623e-01,9.99999e-01,9.98064e-01,9.96552e-01,9.99998e-01
1.063183176e+00,9.93448e-01,9.99999e-01,9.96817e-01,9.96620e-01,9.99997e-01
1.068499092e+00,9.91379e-01,9.99999e-01,9.94677e-01,9.96687e-01,9.99995e-01
1.073841587e+00,9.90534e-01,9.99999e-01,9.93768e-01,9.96752e-01,9.99991e-01
1.079210795e+00,9.88850e-01,9.99999e-01,9.92029e-01,9.96816e-01,9.99978e-01
1.084606849e+00,9.84815e-01,9.99999e-01,9.87948e-01,9.96879e-01,9.99948e-01
1.090029883e+00,9.79590e-01,9.99999e-01,9.82699e-01,9.96940e-01,9.99893e-01
1.095480033e+00,9.50537e-01,9.99999e-01,9.53579e-01,9.97001e-01,9.99807e-01
1.100957433e+00,8.83269e-01,9.99999e-01,8.86186e-01,9.97060e-01,9.99646e-01
1.106462220e+00,7.33084e-01,9.99999e-01,7.35643e-01,9.97118e-01,9.99400e-01
1.111994531e+00,5.23171e-01,9.99999e-01,5.25488e-01,9.97175e-01,9.98409e-01
1.117554504e+00,3.50929e-01,9.99999e-01,3.53931e-01,9.97230e-01,9.94270e-01
1.123142276e+00,4.60656e-01,9.99999e-01,4.68246e-01,9.97285e-01,9.86467e-01
1.128757988e+00,6.02027e-01,9.99999e-01,6.13222e-01,9.97339e-01,9.84362e-01
1.134401778e+00,3.47874e-01,9.99999e-01,3.53490e-01,9.97391e-01,9.86687e-01
1.140073787e+00,7.36362e-01,9.99999e-01,7.46197e-01,9.97442e-01,9.89348e-01
1.145774156e+00,5.37864e-01,9.99999e-01,5.44527e-01,9.97493e-01,9.90246e-01
1.151503026e+00,5.04391e-01,9.99999e-01,5.08402e-01,9.97542e-01,9.94554e-01
1.157260541e+00,5.65041e-01,9.99999e-01,5.67330e-01,9.97591e-01,9.98368e-01
1.163046844e+00,6.55874e-01,9.99999e-01,6.57730e-01,9.97638e-01,9.99536e-01
1.168862078e+00,7.45326e-01,9.99999e-01,7.47233e-01,9.97685e-01,9.99761e-01
1.174706389e+00,8.33247e-01,9.99999e-01,8.35406e-01,9.97731e-01,9.99683e-01
1.180579921e+00,8.93855e-01,9.99999e-01,8.96276e-01,9.97775e-01,9.99521e-01
1.186482820e+00,9.37479e-01,9.99999e-01,9.39988e-01,9.97819e-01,9.99509e-01
1.192415234e+00,9.62113e-01,9.99999e-01,9.64528e-01,9.97862e-01,9.99632e-01
1.198377311e+00,9.67636e-01,9.99999e-01,9.70003e-01,9.97904e-01,9.99652e-01
1.204369197e+00,9.69298e-01,9.99999e-01,9.71598e-01,9.97946e-01,9.99685e-01
1.210391043e+00,9.70682e-01,9.99999e-01,9.72825e-01,9.97986e-01,9.99808e-01
1.216442998e+00,9.74809e-01,9.99999e-01,9.76851e-01,9.98026e-01,9.99882e-01
1.222525213e+00,9.79960e-01,9.99999e-01,9.81930e-01,9.98065e-01,9.99926e-01
1.228637839e+00,9.85512e-01,9.99999e-01,9.87418e-01,9.98103e-01,9.99965e-01
1.234781029e+00,9.88795e-01,9.99999e-01,9.90646e-01,9.98140e-01,9.99989e-01
1.240954934e+00,9.92261e-01,9.99999e-01,9.94075e-01,9.98177e-01,9.99996e-01
1.247159708e+00,9.93605e-01,9.99999e-01,9.95385e-01,9.98213e-01,9.99997e-01
1.253395507e+00,9.94154e-01,9.99999e-01,9.95900e-01,9.98248e-01,9.99997e-01
1.259662485e+00,9.94390e-01,9.99999e-01,9.96103e-01,9.98283e-01,9.99995e-01
1.265960797e+00,9.92104e-01,9.99999e-01,9.93782e-01,9.98317e-01,9.99993e-01
1.272290601e+00,9.88595e-01,9.99999e-01,9.90238e-01,9.98350e-01,9.99988e-01
1.278652054e+00,9.79073e-01,9.99999e-01,9.80677e-01,9.98382e-01,9.99980e-01
1.285045314e+00,9.63634e-01,9.99999e-01,9.65198e-01,9.98414e-01,9.99964e-01
1.291470541e+00,9.38614e-01,9.99999e-01,9.40132e-01,9.98446e-01,9.99937e-01
1.297927893e+00,9.14370e-01,9.99999e-01,9.15870e-01,9.98476e-01,9.99884e-01
1.304417533e+00,9.00078e-01,9.99999e-01,9.01644e-01,9.98506e-01,9.99755e-01
1.310939621e+00,8.86247e-01,9.99999e-01,8.87991e-01,9.98536e-01,9.99498e-01
1.317494319e+00,8.77345e-01,9.99999e-01,8.79420e-01,9.98565e-01,9.99072e-01
1.324081790e+00,8.22511e-01,9.99999e-01,8.24917e-01,9.98593e-01,9.98486e-01
1.330702199e+00,4.66167e-01,9.99999e-01,4.68031e-01,9.98621e-01,9.97391e-01
1.337355710e+00,1.42257e-01,9.99999e-01,1.43168e-01,9.98648e-01,9.94982e-01
1.344042489e+00,9.10621e-03,9.99999e-01,9.25747e-03,9.98675e-01,9.84965e-01
1.350762701e+00,5.45983e-05,9.99999e-01,5.75795e-05,9.98701e-01,9.49456e-01
1.357516515e+00,9.86920e-07,9.99999e-01,1.15064e-06,9.98726e-01,8.58805e-01
1.364304097e+00,1.13069e-04,9.99999e-01,1.47822e-04,9.98752e-01,7.65853e-01
1.371125618e+00,2.05060e-03,9.99999e-01,2.64022e-03,9.98776e-01,7.77629e-01
1.377981246e+00,5.04880e-03,9.99999e-01,6.27101e-03,9.98800e-01,8.06066e-01
1.384871152e+00,1.56464e-04,9.99999e-01,1.91500e-04,9.98824e-01,8.18002e-01
1.391795508e+00,1.64348e-04,9.99999e-01,1.99264e-04,9.98847e-01,8.25726e-01
1.398754485e+00,7.16415e-04,9.99999e-01,8.40140e-04,9.98870e-01,8.53696e-01
1.405748258e+00,6.83570e-04,9.99999e-01,7.50626e-04,9.98892e-01,9.11675e-01
1.412776999e+00,7.45358e-04,9.99999e-01,7.78345e-04,9.98914e-01,9.58658e-01
1.419840884e+00,1.26515e-03,9.99999e-01,1.29016e-03,9.98935e-01,9.81657e-01
1.426940089e+00,5.31594e-03,9.99999e-01,5.39685e-03,9.98956e-01,9.86034e-01
1.434074789e+00,1.82755e-02,9.99999e-01,1.86004e-02,9.98977e-01,9.83540e-01
1.441245163e+00,4.46954e-02,9.99999e-01,4.55518e-02,9.98997e-01,9.82184e-01
1.448451389e+00,1.10253e-01,9.99999e-01,1.12112e-01,9.99017e-01,9.84383e-01
1.455693646e+00,2.30474e-01,9.99999e-01,2.33539e-01,9.99036e-01,9.87827e-01
1.462972114e+00,2.81119e-01,9.99999e-01,2.84691e-01,9.99055e-01,9.88387e-01
1.470286975e+00,2.28407e-01,9.99999e-01,2.31259e-01,9.99074e-01,9.88583e-01
