#,Wave/freq,Total,N2,H2O,Rayleigh,CIA
4.000000000e-01,9.04298e-01,9.99999e-01,9.99988e-01,9.04308e-01,9.99999e-01
4.020000000e-01,9.06102e-01,9.99999e-01,9.99992e-01,9.06109e-01,9.99999e-01
4.040100000e-01,9.07872e-01,9.99999e-01,9.99996e-01,9.07875e-01,9.99999e-01
4.060300500e-01,9.09609e-01,9.99999e-01,9.99998e-01,9.09610e-01,9.99999e-01
4.080602003e-01,9.11313e-01,9.99999e-01,9.99999e-01,9.11313e-01,9.99999e-01
4.101005013e-01,9.12987e-01,9.99999e-01,9.99999e-01,9.12987e-01,9.99999e-01
4.121510038e-01,9.14629e-01,9.99999e-01,9.99999e-01,9.14630e-01,9.99999e-01
4.142117588e-01,9.16241e-01,9.99999e-01,9.99996e-01,9.16243e-01,9.99999e-01
4.162828176e-01,9.17815e-01,9.99999e-01,9.99985e-01,9.17828e-01,9.99999e-01
4.183642317e-01,9.19376e-01,9.99999e-01,9.99991e-01,9.19384e-01,9.99999e-01
4.204560528e-01,9.20907e-01,9.99999e-01,9.99994e-01,9.20911e-01,9.99999e-01
4.225583331e-01,9.22409e-01,9.99999e-01,9.99997e-01,9.22411e-01,9.99999e-01
4.246711247e-01,9.23882e-01,9.99999e-01,9.99997e-01,9.23884e-01,9.99999e-01
4.267944804e-01,9.25328e-01,9.99999e-01,9.99997e-01,9.25330e-01,9.99999e-01
4.289284528e-01,9.26748e-01,9.99999e-01,9.99997e-01,9.26749e-01,9.99999e-01
4.310730950e-01,9.28142e-01,9.99999e-01,9.99998e-01,9.28143e-01,9.99999e-01
4.332284605e-01,9.29511e-01,9.99999e-01,9.99999e-01,9.29511e-01,9.99999e-01
4.353946028e-01,9.30854e-01,9.99999e-01,9.99999e-01,9.30854e-01,9.99999e-01
4.375715758e-01,9.32171e-01,9.99999e-01,9.99998e-01,9.32172e-01,9.99999e-01
4.397594337e-01,9.33455e-01,9.99999e-01,9.99987e-01,9.33466e-01,9.99999e-01
4.419582309e-01,9.34679e-01,9.99999e-01,9.99937e-01,9.34737e-01,9.99999e-01
4.441680220e-01,9.35938e-01,9.99999e-01,9.99950e-01,9.35984e-01,9.99999e-01
4.463888621e-01,9.37160e-01,9.99999e-01,9.99948e-01,9.37208e-01,9.99999e-01
4.486208064e-01,9.38379e-01,9.99999e-01,9.99967e-01,9.38409e-01,9.99999e-01
4.508639105e-01,9.39574e-01,9.99999e-01,9.99984e-01,9.39588e-01,9.99999e-01
4.531182300e-01,9.40740e-01,9.99999e-01,9.99993e-01,9.40745e-01,9.99999e-01
4.553838212e-01,9.41877e-01,9.99999e-01,9.99995e-01,9.41881e-01,9.99999e-01
4.576607403e-01,9.42994e-01,9.99999e-01,9.99997e-01,9.42995e-01,9.99999e-01
4.599490440e-01,9.44088e-01,9.99999e-01,9.99998e-01,9.44089e-01,9.99999e-01
4.622487892e-01,9.45163e-01,9.99999e-01,9.99999e-01,9.45163e-01,9.99999e-01
4.645600332e-01,9.46215e-01,9.99999e-01,9.99998e-01,9.46216e-01,9.99999e-01
4.668828333e-01,9.47236e-01,9.99999e-01,9.99984e-01,9.47250e-01,9.99999e-01
4.692172475e-01,9.48234e-01,9.99999e-01,9.99967e-01,9.48265e-01,9.99999e-01
4.715633337e-01,9.49240e-01,9.99999e-01,9.99978e-01,9.49260e-01,9.99999e-01
4.739211504e-01,9.50218e-01,9.99999e-01,9.99979e-01,9.50237e-01,9.99999e-01
4.762907561e-01,9.51186e-01,9.99999e-01,9.99989e-01,9.51195e-01,9.99999e-01
4.786722099e-01,9.52132e-01,9.99999e-01,9.99995e-01,9.52136e-01,9.99999e-01
4.810655710e-01,9.53058e-01,9.99999e-01,9.99998e-01,9.53059e-01,9.99999e-01
4.834708988e-01,9.53953e-01,9.99999e-01,9.99987e-01,9.53964e-01,9.99999e-01
4.858882533e-01,9.54831e-01,9.99999e-01,9.99976e-01,9.54853e-01,9.99999e-01
4.883176946e-01,9.55707e-01,9.99999e-01,9.99980e-01,9.55725e-01,9.99999e-01
4.907592831e-01,9.56563e-01,9.99999e-01,9.99982e-01,9.56580e-01,9.99999e-01
4.932130795e-01,9.57407e-01,9.99999e-01,9.99987e-01,9.57419e-01,9.99999e-01
4.956791449e-01,9.58236e-01,9.99999e-01,9.99993e-01,9.58242e-01,9.99999e-01
4.981575406e-01,9.59019e-01,9.99999e-01,9.99967e-01,9.59050e-01,9.99999e-01
5.006483283e-01,9.59762e-01,9.99999e-01,9.99916e-01,9.59842e-01,9.99998e-01
5.031515699e-01,9.60210e-01,9.99999e-01,9.99577e-01,9.60620e-01,9.99995e-01
5.056673278e-01,9.61163e-01,9.99999e-01,9.99776e-01,9.61382e-01,9.99994e-01
5.081956644e-01,9.61857e-01,9.99999e-01,9.99718e-01,9.62130e-01,9.99996e-01
5.107366428e-01,9.62681e-01,9.99999e-01,9.99809e-01,9.62864e-01,9.99998e-01
5.132903260e-01,9.63480e-01,9.99999e-01,9.99890e-01,9.63584e-01,9.99999e-01
5.158567776e-01,9.64246e-01,9.99999e-01,9.99953e-01,9.64291e-01,9.99999e-01
5.184360615e-01,9.64966e-01,9.99999e-01,9.99981e-01,9.64983e-01,9.99999e-01
5.210282418e-01,9.65656e-01,9.99999e-01,9.99992e-01,9.65663e-01,9.99999e-01
5.236333830e-01,9.66303e-01,9.99999e-01,9.99972e-01,9.66330e-01,9.99999e-01
5.262515499e-01,9.66967e-01,9.99999e-01,9.99982e-01,9.66984e-01,9.99999e-01
5.288828077e-01,9.67610e-01,9.99999e-01,9.99983e-01,9.67625e-01,9.99999e-01
5.315272217e-01,9.68241e-01,9.99999e-01,9.99985e-01,9.68254e-01,9.99999e-01
5.341848578e-01,9.68863e-01,9.99999e-01,9.99990e-01,9.68871e-01,9.99999e-01
5.368557821e-01,9.69446e-01,9.99999e-01,9.99967e-01,9.69477e-01,9.99999e-01
5.395400610e-01,9.69958e-01,9.99999e-01,9.99884e-01,9.70071e-01,9.99998e-01
5.422377613e-01,9.70505e-01,9.99999e-01,9.99849e-01,9.70653e-01,9.99996e-01
5.449489501e-01,9.71087e-01,9.99999e-01,9.99860e-01,9.71224e-01,9.99996e-01
5.476736949e-01,9.71663e-01,9.99999e-01,9.99876e-01,9.71785e-01,9.99998e-01
5.504120634e-01,9.72247e-01,9.99999e-01,9.99910e-01,9.72334e-01,9.99999e-01
5.531641237e-01,9.72829e-01,9.99999e-01,9.99954e-01,9.72873e-01,9.99999e-01
5.559299443e-01,9.73380e-01,9.99999e-01,9.99977e-01,9.73402e-01,9.99999e-01
5.587095940e-01,9.73907e-01,9.99999e-01,9.99985e-01,9.73920e-01,9.99999e-01
5.615031420e-01,9.74414e-01,9.99999e-01,9.99984e-01,9.74429e-01,9.99999e-01
5.643106577e-01,9.74911e-01,9.99999e-01,9.99982e-01,9.74927e-01,9.99999e-01
5.671322110e-01,9.75213e-01,9.99999e-01,9.99793e-01,9.75416e-01,9.99997e-01
5.699678720e-01,9.75673e-01,9.99999e-01,9.99776e-01,9.75896e-01,9.99993e-01
5.728177114e-01,9.76137e-01,9.99999e-01,9.99768e-01,9.76366e-01,9.99994e-01
5.756818000e-01,9.76618e-01,9.99999e-01,9.99787e-01,9.76828e-01,9.99996e-01
5.785602090e-01,9.77099e-01,9.99999e-01,9.99814e-01,9.77280e-01,9.99998e-01
5.814530100e-01,9.77542e-01,9.99999e-01,9.99813e-01,9.77724e-01,9.99999e-01
5.843602750e-01,9.77943e-01,9.99999e-01,9.99779e-01,9.78159e-01,9.99998e-01
5.872820764e-01,9.76712e-01,9.99999e-01,9.98098e-01,9.78586e-01,9.99986e-01
5.902184868e-01,9.76703e-01,9.99999e-01,9.97685e-01,9.79004e-01,9.99963e-01
5.931695792e-01,9.77781e-01,9.99999e-01,9.98366e-01,9.79415e-01,9.99963e-01
5.961354271e-01,9.78041e-01,9.99999e-01,9.98207e-01,9.79817e-01,9.99978e-01
5.991161043e-01,9.78924e-01,9.99999e-01,9.98692e-01,9.80212e-01,9.99993e-01
6.021116848e-01,9.79870e-01,9.99999e-01,9.99257e-01,9.80599e-01,9.99998e-01
6.051222432e-01,9.80610e-01,9.99999e-01,9.99623e-01,9.80978e-01,9.99999e-01
6.081478544e-01,9.81192e-01,9.99999e-01,9.99837e-01,9.81351e-01,9.99999e-01
6.111885937e-01,9.81648e-01,9.99999e-01,9.99930e-01,9.81716e-01,9.99999e-01
6.142445367e-01,9.82043e-01,9.99999e-01,9.99968e-01,9.82073e-01,9.99999e-01
6.173157594e-01,9.82408e-01,9.99999e-01,9.99982e-01,9.82424e-01,9.99999e-01
6.204023382e-01,9.82755e-01,9.99999e-01,9.99985e-01,9.82769e-01,9.99999e-01
6.235043498e-01,9.83045e-01,9.99999e-01,9.99937e-01,9.83106e-01,9.99999e-01
6.266218716e-01,9.83108e-01,9.99999e-01,9.99667e-01,9.83437e-01,9.99997e-01
6.297549810e-01,9.83637e-01,9.99999e-01,9.99877e-01,9.83761e-01,9.99994e-01
6.329037559e-01,9.83838e-01,9.99999e-01,9.99758e-01,9.84080e-01,9.99995e-01
6.360682746e-01,9.84188e-01,9.99999e-01,9.99794e-01,9.84392e-01,9.99997e-01
6.392486160e-01,9.84435e-01,9.99999e-01,9.99733e-01,9.84697e-01,9.99998e-01
6.424448591e-01,9.84647e-01,9.99999e-01,9.99645e-01,9.84997e-01,9.99997e-01
6.456570834e-01,9.83661e-01,9.99999e-01,9.98353e-01,9.85292e-01,9.99990e-01
6.488853688e-01,9.84360e-01,9.99999e-01,9.98787e-01,9.85580e-01,9.99973e-01
6.521297956e-01,9.84623e-01,9.99999e-01,9.98763e-01,9.85863e-01,9.99978e-01
6.553904446e-01,9.84920e-01,9.99999e-01,9.98778e-01,9.86140e-01,9.99983e-01
6.586673968e-01,9.85368e-01,9.99999e-01,9.98946e-01,9.86412e-01,9.99994e-01
6.619607338e-01,9.86077e-01,9.99999e-01,9.99390e-01,9.86678e-01,9.99998e-01
6.652705375e-01,9.86591e-01,9.99999e-01,9.99646e-01,9.86940e-01,9.99998e-01
6.685968902e-01,9.87034e-01,9.99999e-01,9.99835e-01,9.87196e-01,9.99999e-01
6.719398746e-01,9.87372e-01,9.99999e-01,9.99923e-01,9.87447e-01,9.99999e-01
6.752995740e-01,9.87653e-01,9.99999e-01,9.99958e-01,9.87694e-01,9.99999e-01
6.786760719e-01,9.87877e-01,9.99999e-01,9.99940e-01,9.87935e-01,9.99999e-01
6.820694522e-01,9.88072e-01,9.99999e-01,9.99898e-01,9.88172e-01,9.99998e-01
6.854797995e-01,9.88274e-01,9.99999e-01,9.99868e-01,9.88405e-01,9.99998e-01
6.889071985e-01,9.88319e-01,9.99999e-01,9.99685e-01,9.88632e-01,9.99996e-01
6.923517345e-01,9.83736e-01,9.99999e-01,9.94846e-01,9.88856e-01,9.99974e-01
6.958134932e-01,9.86337e-01,9.99999e-01,9.97287e-01,9.89074e-01,9.99943e-01
6.992925606e-01,9.86720e-01,9.99999e-01,9.97452e-01,9.89289e-01,9.99950e-01
7.027890234e-01,9.86337e-01,9.99999e-01,9.96841e-01,9.89499e-01,9.99961e-01
7.063029686e-01,9.87061e-01,9.99999e-01,9.97345e-01,9.89706e-01,9.99980e-01
7.098344834e-01,9.87377e-01,9.99999e-01,9.97453e-01,9.89908e-01,9.99988e-01
7.133836558e-01,9.86747e-01,9.99999e-01,9.96628e-01,9.90106e-01,9.99977e-01
7.169505741e-01,9.63374e-01,9.99999e-01,9.72977e-01,9.90301e-01,9.99825e-01
7.205353270e-01,9.76894e-01,9.99999e-01,9.86573e-01,9.90492e-01,9.99693e-01
7.241380036e-01,9.73704e-01,9.99999e-01,9.83125e-01,9.90678e-01,9.99734e-01
7.277586936e-01,9.75542e-01,9.99999e-01,9.84751e-01,9.90862e-01,9.99783e-01
7.313974871e-01,9.74842e-01,9.99999e-01,9.83753e-01,9.91041e-01,9.99898e-01
7.350544745e-01,9.82372e-01,9.99999e-01,9.91110e-01,9.91218e-01,9.99964e-01
7.387297469e-01,9.84885e-01,9.99999e-01,9.93453e-01,9.91390e-01,9.99983e-01
7.424233956e-01,9.88374e-01,9.99999e-01,9.96789e-01,9.91560e-01,9.99996e-01
7.461355126e-01,9.89797e-01,9.99999e-01,9.98055e-01,9.91726e-01,9.99998e-01
7.498661902e-01,9.90989e-01,9.99999e-01,9.99093e-01,9.91888e-01,9.99999e-01
7.536155211e-01,9.91608e-01,9.99999e-01,9.99555e-01,9.92048e-01,9.99999e-01
7.573835987e-01,9.91978e-01,9.99999e-01,9.99771e-01,9.92204e-01,9.99999e-01
7.611705167e-01,9.92217e-01,9.99999e-01,9.99857e-01,9.92358e-01,9.99999e-01
7.649763693e-01,9.92420e-01,9.99999e-01,9.99910e-01,9.92508e-01,9.99999e-01
7.688012511e-01,9.92594e-01,9.99999e-01,9.99937e-01,9.92655e-01,9.99999e-01
7.726452574e-01,9.92750e-01,9.99999e-01,9.99948e-01,9.92800e-01,9.99999e-01
7.765084837e-01,9.92870e-01,9.99999e-01,9.99927e-01,9.92942e-01,9.99999e-01
7.803910261e-01,9.92772e-01,9.99999e-01,9.99688e-01,9.93081e-01,9.99999e-01
7.842929812e-01,9.92137e-01,9.99999e-01,9.98913e-01,9.93217e-01,9.99997e-01
7.882144461e-01,9.91105e-01,9.99999e-01,9.97752e-01,9.93350e-01,9.99985e-01
7.921555184e-01,9.92227e-01,9.99999e-01,9.98763e-01,9.93481e-01,9.99972e-01
7.961162960e-01,9.91427e-01,9.99999e-01,9.97828e-01,9.93610e-01,9.99974e-01
8.000968774e-01,9.91210e-01,9.99999e-01,9.97484e-01,9.93735e-01,9.99972e-01
8.040973618e-01,9.91339e-01,9.99999e-01,9.97485e-01,9.93859e-01,9.99978e-01
8.081178486e-01,9.88350e-01,9.99999e-01,9.94355e-01,9.93980e-01,9.99979e-01
8.121584379e-01,9.70749e-01,9.99999e-01,9.76588e-01,9.94098e-01,9.99920e-01
8.162192301e-01,9.66183e-01,9.99999e-01,9.72094e-01,9.94214e-01,9.99701e-01
8.203003262e-01,9.80134e-01,9.99999e-01,9.86068e-01,9.94328e-01,9.99650e-01
8.244018279e-01,9.74546e-01,9.99999e-01,9.80266e-01,9.94440e-01,9.99721e-01
8.285238370e-01,9.77767e-01,9.99999e-01,9.83339e-01,9.94550e-01,9.99781e-01
8.326664562e-01,9.77774e-01,9.99999e-01,9.83114e-01,9.94657e-01,9.99909e-01
8.368297885e-01,9.82726e-01,9.99999e-01,9.87920e-01,9.94762e-01,9.99978e-01
8.410139374e-01,9.87700e-01,9.99999e-01,9.92809e-01,9.94865e-01,9.99987e-01
8.452190071e-01,9.91445e-01,9.99999e-01,9.96467e-01,9.94966e-01,9.99992e-01
8.494451021e-01,9.93025e-01,9.99999e-01,9.97954e-01,9.95066e-01,9.99993e-01
8.536923276e-01,9.93953e-01,9.99999e-01,9.98787e-01,9.95163e-01,9.99995e-01
8.579607893e-01,9.94516e-01,9.99999e-01,9.99254e-01,9.95258e-01,9.99998e-01
8.622505932e-01,9.94880e-01,9.99999e-01,9.99525e-01,9.95352e-01,9.99999e-01
8.665618462e-01,9.95152e-01,9.99999e-01,9.99707e-01,9.95443e-01,9.99999e-01
8.708946554e-01,9.95200e-01,9.99999e-01,9.99665e-01,9.95533e-01,9.99999e-01
8.752491287e-01,9.95175e-01,9.99999e-01,9.99551e-01,9.95621e-01,9.99999e-01
8.796253743e-01,9.95090e-01,9.99999e-01,9.99380e-01,9.95707e-01,9.99998e-01
8.840235012e-01,9.95083e-01,9.99999e-01,9.99291e-01,9.95792e-01,9.99995e-01
8.884436187e-01,9.93313e-01,9.99999e-01,9.97439e-01,9.95875e-01,9.99987e-01
8.928858368e-01,9.69071e-01,9.99999e-01,9.73073e-01,9.95956e-01,9.99928e-01
8.973502660e-01,9.48425e-01,9.99999e-01,9.52544e-01,9.96036e-01,9.99636e-01
9.018370173e-01,9.71045e-01,9.99999e-01,9.75388e-01,9.96114e-01,9.99429e-01
9.063462024e-01,9.74302e-01,9.99999e-01,9.78517e-01,9.96190e-01,9.99498e-01
9.108779334e-01,9.62484e-01,9.99999e-01,9.66594e-01,9.96266e-01,9.99479e-01
9.154323231e-01,9.58196e-01,9.99999e-01,9.62130e-01,9.96339e-01,9.99569e-01
9.200094847e-01,9.66440e-01,9.99999e-01,9.70154e-01,9.96411e-01,9.99758e-01
9.246095321e-01,9.50177e-01,9.99999e-01,9.53795e-01,9.96482e-01,9.99722e-01
9.292325798e-01,7.21953e-01,9.99999e-01,7.25235e-01,9.96551e-01,9.98917e-01
9.338787427e-01,6.53327e-01,9.99999e-01,6.58482e-01,9.96619e-01,9.95536e-01
9.385481364e-01,8.37964e-01,9.99999e-01,8.45234e-01,9.96686e-01,9.94693e-01
9.432408771e-01,7.84230e-01,9.99999e-01,7.90405e-01,9.96751e-01,9.95419e-01
9.479570815e-01,7.15938e-01,9.99999e-01,7.20913e-01,9.96815e-01,9.96270e-01
9.526968669e-01,7.79385e-01,9.99999e-01,7.83609e-01,9.96878e-01,9.97723e-01
9.574603512e-01,7.98759e-01,9.99999e-01,8.02138e-01,9.96940e-01,9.98842e-01
9.622476530e-01,8.32928e-01,9.99999e-01,8.36102e-01,9.97000e-01,9.99199e-01
9.670588912e-01,8.99093e-01,9.99999e-01,9.02237e-01,9.97059e-01,9.99452e-01
9.718941857e-01,9.34963e-01,9.99999e-01,9.38043e-01,9.97117e-01,9.99596e-01
9.767536566e-01,9.45353e-01,9.99999e-01,9.48323e-01,9.97174e-01,9.99691e-01
9.816374249e-01,9.58668e-01,9.99999e-01,9.61433e-01,9.97230e-01,9.99892e-01
9.865456120e-01,9.73072e-01,9.99999e-01,9.75742e-01,9.97284e-01,9.99977e-01
9.914783401e-01,9.82324e-01,9.99999e-01,9.84951e-01,9.97338e-01,9.99993e-01
9.964357318e-01,9.89186e-01,9.99999e-01,9.91777e-01,9.97390e-01,9.99995e-01
1.001417910e+00,9.92514e-01,9.99999e-01,9.95064e-01,9.97442e-01,9.99994e-01
1.006425000e+00,9.94680e-01,9.99999e-01,9.97187e-01,9.97492e-01,9.99991e-01
1.011457125e+00,9.95791e-01,9.99999e-01,9.98251e-01,9.97542e-01,9.99992e-01
1.016514411e+00,9.96402e-01,9.99999e-01,9.98813e-01,9.97590e-01,9.99994e-01
1.021596983e+00,9.96690e-01,9.99999e-01,9.99054e-01,9.97638e-01,9.99994e-01
1.026704968e+00,9.96946e-01,9.99999e-01,9.99262e-01,9.97684e-01,9.99996e-01
1.031838492e+00,9.97194e-01,9.99999e-01,9.99463e-01,9.97730e-01,9.99998e-01
1.036997685e+00,9.97458e-01,9.99999e-01,9.99681e-01,9.97775e-01,9.99999e-01
1.042182673e+00,9.97441e-01,9.99999e-01,9.99621e-01,9.97819e-01,9.99999e-01
1.047393587e+00,9.97361e-01,9.99999e-01,9.99497e-01,9.97862e-01,9.99999e-01
1.052630555e+00,9.97216e-01,9.99999e-01,9.99310e-01,9.97904e-01,9.99999e-01
1.057893707e+00,9.96798e-01,9.99999e-01,9.98850e-01,9.97945e-01,9.99999e-01
1.063183176e+00,9.96097e-01,9.99999e-01,9.98107e-01,9.97986e-01,9.99998e-01
1.068499092e+00,9.94860e-01,9.99999e-01,9.96829e-01,9.98026e-01,9.99997e-01
1.073841587e+00,9.94361e-01,9.99999e-01,9.96293e-01,9.98064e-01,9.99994e-01
1.079210795e+00,9.93343e-01,9.99999e-01,9.95243e-01,9.98103e-01,9.99986e-01
1.084606849e+00,9.90936e-01,9.99999e-01,9.92812e-01,9.98140e-01,9.99969e-01
1.090029883e+00,9.87848e-01,9.99999e-01,9.89714e-01,9.98177e-01,9.99936e-01
1.095480033e+00,9.70337e-01,9.99999e-01,9.72184e-01,9.98213e-01,9.99885e-01
1.100957433e+00,9.28871e-01,9.99999e-01,9.30696e-01,9.98248e-01,9.99789e-01
1.106462220e+00,8.30735e-01,9.99999e-01,8.32461e-01,9.98283e-01,9.99642e-01
1.111994531e+00,6.76326e-01,9.99999e-01,6.78108e-01,9.98316e-01,9.99052e-01
1.117554504e+00,5.29007e-01,9.99999e-01,5.31696e-01,9.98350e-01,9.96585e-01
1.123142276e+00,6.17844e-01,9.99999e-01,6.23885e-01,9.98382e-01,9.91921e-01
1.128757988e+00,7.34130e-01,9.99999e-01,7.42227e-01,9.98414e-01,9.90660e-01
1.134401778e+00,4.91391e-01,9.99999e-01,4.96098e-01,9.98445e-01,9.92052e-01
1.140073787e+00,8.32019e-01,9.99999e-01,8.38617e-01,9.98476e-01,9.93645e-01
1.145774156e+00,6.85014e-01,9.99999e-01,6.90053e-01,9.98506e-01,9.94181e-01
1.151503026e+00,6.57206e-01,9.99999e-01,6.60312e-01,9.98536e-01,9.96754e-01
1.157260541e+00,7.08849e-01,9.99999e-01,7.10558e-01,9.98564e-01,9.99028e-01
1.163046844e+00,7.75718e-01,9.99999e-01,7.77025e-01,9.98593e-01,9.99724e-01
1.168862078e+00,8.38656e-01,9.99999e-01,8.39933e-01,9.98620e-01,9.99857e-01
1.174706389e+00,8.96608e-01,9.99999e-01,8.97990e-01,9.98648e-01,9.99811e-01
1.180579921e+00,9.35112e-01,9.99999e-01,9.36618e-01,9.98674e-01,9.99715e-01
1.186482820e+00,9.62207e-01,9.99999e-01,9.63739e-01,9.98701e-01,9.99707e-01
1.192415234e+00,9.77243e-01,9.99999e-01,9.78702e-01,9.98726e-01,9.99780e-01
1.198377311e+00,9.80607e-01,9.99999e-01,9.82035e-01,9.98751e-01,9.99793e-01
1.204369197e+00,9.81588e-01,9.99999e-01,9.82974e-01,9.98776e-01,9.99812e-01
1.210391043e+00,9.82426e-01,9.99999e-01,9.83717e-01,9.98800e-01,9.99885e-01
1.216442998e+00,9.84889e-01,9.99999e-01,9.86116e-01,9.98824e-01,9.99929e-01
1.222525213e+00,9.88002e-01,9.99999e-01,9.89185e-01,9.98847e-01,9.99956e-01
1.228637839e+00,9.91341e-01,9.99999e-01,9.92482e-01,9.98870e-01,9.99979e-01
1.234781029e+00,9.93303e-01,9.99999e-01,9.94409e-01,9.98892e-01,9.99993e-01
1.240954934e+00,9.95381e-01,9.99999e-01,9.96464e-01,9.98914e-01,9.99997e-01
1.247159708e+00,9.96182e-01,9.99999e-01,9.97244e-01,9.98935e-01,9.99998e-01
1.253395507e+00,9.96514e-01,9.99999e-01,9.97555e-01,9.98956e-01,9.99998e-01
1.259662485e+00,9.96659e-01,9.99999e-01,9.97681e-01,9.98977e-01,9.99997e-01
1.265960797e+00,9.95289e-01,9.99999e-01,9.96290e-01,9.98997e-01,9.99995e-01
1.272290601e+00,9.93568e-01,9.99999e-01,9.94551e-01,9.99017e-01,9.99993e-01
1.278652054e+00,9.87540e-01,9.99999e-01,9.88503e-01,9.99036e-01,9.99988e-01
1.285045314e+00,9.81004e-01,9.99999e-01,9.81951e-01,9.99055e-01,9.99978e-01
1.291470541e+00,9.63082e-01,9.99999e-01,9.64010e-01,9.99074e-01,9.99962e-01
1.297927893e+00,9.52287e-01,9.99999e-01,9.53216e-01,9.99092e-01,9.99930e-01
1.304417533e+00,9.39091e-01,9.99999e-01,9.40064e-01,9.99110e-01,9.99854e-01
1.310939621e+00,9.30708e-01,9.99999e-01,9.31798e-01,9.99128e-01,9.99701e-01
1.317494319e+00,9.24690e-01,9.99999e-01,9.25992e-01,9.99145e-01,9.99447e-01
1.324081790e+00,8.89630e-01,9.99999e-01,8.91179e-01,9.99162e-01,9.99098e-01
1.330702199e+00,6.14401e-01,9.99999e-01,6.15863e-01,9.99178e-01,9.98446e-01
1.337355710e+00,2.96863e-01,9.99999e-01,2.97993e-01,9.99194e-01,9.97009e-01
1.344042489e+00,3.98184e-02,9.99999e-01,4.02109e-02,9.99210e-01,9.91021e-01
1.350762701e+00,1.66563e-03,9.99999e-01,1.71919e-03,9.99226e-01,9.69594e-01
1.357516515e+00,1.79029e-04,9.99999e-01,1.96158e-04,9.99241e-01,9.13367e-01
1.364304097e+00,2.74413e-03,9.99999e-01,3.21884e-03,9.99256e-01,8.53155e-01
1.371125618e+00,1.81939e-02,9.99999e-01,2.11480e-02,9.99271e-01,8.60941e-01
1.377981246e+00,3.35792e-02,9.99999e-01,3.82050e-02,9.99285e-01,8.79548e-01
1.384871152e+00,2.48838e-03,9.99999e-01,2.81009e-03,9.99299e-01,8.86133e-01
1.391795508e+00,3.97885e-03,9.99999e-01,4.46429e-03,9.99313e-01,8.91872e-01
1.398754485e+00,8.61857e-03,9.99999e-01,9.47599e-03,9.99327e-01,9.10128e-01
1.405748258e+00,8.48936e-03,9.99999e-01,8.97572e-03,9.99340e-01,9.46436e-01
1.412776999e+00,9.65647e-03,9.99999e-01,9.90866e-03,9.99353e-01,9.75178e-01
1.419840884e+00,1.31078e-02,9.99999e-01,1.32615e-02,9.99366e-01,9.89039e-01
1.426940089e+00,3.36417e-02,9.99999e-01,3.39457e-02,9.99378e-01,9.91661e-01
1.434074789e+00,7.41712e-02,9.99999e-01,7.49533e-02,9.99390e-01,9.90168e-01
1.441245163e+00,1.43693e-01,9.99999e-01,1.45326e-01,9.99402e-01,9.89354e-01
1.448451389e+00,2.48071e-01,9.99999e-01,2.50553e-01,9.99414e-01,9.90673e-01
1.455693646e+00,4.04287e-01,9.99999e-01,4.07479e-01,9.99426e-01,9.92734e-01
1.462972114e+00,4.61807e-01,9.99999e-01,4.65291e-01,9.99437e-01,9.93069e-01
1.470286975e+00,4.05286e-01,9.99999e-01,4.08291e-01,9.99448e-01,9.93187e-01
