#,Wave/freq,Total,N2,H2O,Rayleigh,CIA
4.000000000e-01,1.74422e-01,9.99999e-01,9.99803e-01,1.74457e-01,9.99999e-01
4.020000000e-01,1.80563e-01,9.99999e-01,9.99877e-01,1.80585e-01,9.99999e-01
4.040100000e-01,1.86785e-01,9.99999e-01,9.99947e-01,1.86794e-01,9.99999e-01
4.060300500e-01,1.93086e-01,9.99999e-01,9.99987e-01,1.93088e-01,9.99999e-01
4.080602003e-01,1.99463e-01,9.99999e-01,9.99995e-01,1.99464e-01,9.99999e-01
4.101005013e-01,2.05918e-01,9.99999e-01,9.99999e-01,2.05918e-01,9.99999e-01
4.121510038e-01,2.12445e-01,9.99999e-01,9.99992e-01,2.12447e-01,9.99999e-01
4.142117588e-01,2.19035e-01,9.99999e-01,9.99944e-01,2.19047e-01,9.99999e-01
4.162828176e-01,2.25662e-01,9.99999e-01,9.99755e-01,2.25717e-01,9.99999e-01
4.183642317e-01,2.32418e-01,9.99999e-01,9.99854e-01,2.32452e-01,9.99999e-01
4.204560528e-01,2.39227e-01,9.99999e-01,9.99910e-01,2.39249e-01,9.99999e-01
4.225583331e-01,2.46096e-01,9.99999e-01,9.99966e-01,2.46104e-01,9.99999e-01
4.246711247e-01,2.53008e-01,9.99999e-01,9.99972e-01,2.53015e-01,9.99999e-01
4.267944804e-01,2.59967e-01,9.99999e-01,9.99960e-01,2.59977e-01,9.99999e-01
4.289284528e-01,2.66980e-01,9.99999e-01,9.99969e-01,2.66988e-01,9.99999e-01
4.310730950e-01,2.74040e-01,9.99999e-01,9.99986e-01,2.74044e-01,9.99999e-01
4.332284605e-01,2.81140e-01,9.99999e-01,9.99996e-01,2.81141e-01,9.99999e-01
4.353946028e-01,2.88276e-01,9.99999e-01,9.99998e-01,2.88276e-01,9.99999e-01
4.375715758e-01,2.95440e-01,9.99999e-01,9.99974e-01,2.95447e-01,9.99999e-01
4.397594337e-01,3.02583e-01,9.99999e-01,9.99783e-01,3.02649e-01,9.99999e-01
4.419582309e-01,3.09538e-01,9.99999e-01,9.98900e-01,3.09878e-01,9.99999e-01
4.441680220e-01,3.16865e-01,9.99999e-01,9.99155e-01,3.17133e-01,9.99999e-01
4.463888621e-01,3.24123e-01,9.99999e-01,9.99116e-01,3.24409e-01,9.99999e-01
4.486208064e-01,3.31522e-01,9.99999e-01,9.99453e-01,3.31704e-01,9.99999e-01
4.508639105e-01,3.38927e-01,9.99999e-01,9.99743e-01,3.39013e-01,9.99999e-01
4.531182300e-01,3.46300e-01,9.99999e-01,9.99898e-01,3.46335e-01,9.99999e-01
4.553838212e-01,3.53641e-01,9.99999e-01,9.99930e-01,3.53665e-01,9.99999e-01
4.576607403e-01,3.60990e-01,9.99999e-01,9.99967e-01,3.61001e-01,9.99999e-01
4.599490440e-01,3.68332e-01,9.99999e-01,9.99977e-01,3.68340e-01,9.99999e-01
4.622487892e-01,3.75677e-01,9.99999e-01,9.99995e-01,3.75679e-01,9.99999e-01
4.645600332e-01,3.83008e-01,9.99999e-01,9.99983e-01,3.83014e-01,9.99999e-01
4.668828333e-01,3.90242e-01,9.99999e-01,9.99738e-01,3.90344e-01,9.99999e-01
4.692172475e-01,3.97445e-01,9.99999e-01,9.99445e-01,3.97665e-01,9.99999e-01
4.715633337e-01,4.04828e-01,9.99999e-01,9.99637e-01,4.04975e-01,9.99999e-01
4.739211504e-01,4.12128e-01,9.99999e-01,9.99653e-01,4.12270e-01,9.99999e-01
4.762907561e-01,4.19475e-01,9.99999e-01,9.99820e-01,4.19550e-01,9.99999e-01
4.786722099e-01,4.26778e-01,9.99999e-01,9.99926e-01,4.26810e-01,9.99999e-01
4.810655710e-01,4.34039e-01,9.99999e-01,9.99977e-01,4.34048e-01,9.99999e-01
4.834708988e-01,4.41168e-01,9.99999e-01,9.99783e-01,4.41263e-01,9.99999e-01
4.858882533e-01,4.48276e-01,9.99999e-01,9.99608e-01,4.48452e-01,9.99999e-01
4.883176946e-01,4.55462e-01,9.99999e-01,9.99670e-01,4.55612e-01,9.99999e-01
4.907592831e-01,4.62605e-01,9.99999e-01,9.99703e-01,4.62742e-01,9.99999e-01
4.932130795e-01,4.69740e-01,9.99999e-01,9.99789e-01,4.69839e-01,9.99999e-01
4.956791449e-01,4.76849e-01,9.99999e-01,9.99888e-01,4.76902e-01,9.99999e-01
4.981575406e-01,4.83658e-01,9.99999e-01,9.99440e-01,4.83928e-01,9.99999e-01
5.006483283e-01,4.90197e-01,9.99999e-01,9.98545e-01,4.90916e-01,9.99989e-01
5.031515699e-01,4.94191e-01,9.99999e-01,9.92698e-01,4.97864e-01,9.99922e-01
5.056673278e-01,5.02781e-01,9.99999e-01,9.96147e-01,5.04770e-01,9.99911e-01
5.081956644e-01,5.09120e-01,9.99999e-01,9.95142e-01,5.11632e-01,9.99946e-01
5.107366428e-01,5.16745e-01,9.99999e-01,9.96720e-01,5.18450e-01,9.99990e-01
5.132903260e-01,5.24237e-01,9.99999e-01,9.98126e-01,5.25221e-01,9.99998e-01
5.158567776e-01,5.31523e-01,9.99999e-01,9.99209e-01,5.31944e-01,9.99999e-01
5.184360615e-01,5.38447e-01,9.99999e-01,9.99682e-01,5.38618e-01,9.99999e-01
5.210282418e-01,5.45176e-01,9.99999e-01,9.99880e-01,5.45241e-01,9.99999e-01
5.236333830e-01,5.51547e-01,9.99999e-01,9.99522e-01,5.51813e-01,9.99996e-01
5.262515499e-01,5.58162e-01,9.99999e-01,9.99701e-01,5.58331e-01,9.99994e-01
5.288828077e-01,5.64639e-01,9.99999e-01,9.99724e-01,5.64796e-01,9.99996e-01
5.315272217e-01,5.71068e-01,9.99999e-01,9.99760e-01,5.71205e-01,9.99998e-01
5.341848578e-01,5.77467e-01,9.99999e-01,9.99841e-01,5.77559e-01,9.99999e-01
5.368557821e-01,5.83529e-01,9.99999e-01,9.99441e-01,5.83855e-01,9.99998e-01
5.395400610e-01,5.88890e-01,9.99999e-01,9.97978e-01,5.90094e-01,9.99980e-01
5.422377613e-01,5.94706e-01,9.99999e-01,9.97416e-01,5.96274e-01,9.99952e-01
5.449489501e-01,6.00911e-01,9.99999e-01,9.97583e-01,6.02395e-01,9.99950e-01
5.476736949e-01,6.07148e-01,9.99999e-01,9.97873e-01,6.08456e-01,9.99975e-01
5.504120634e-01,6.13504e-01,9.99999e-01,9.98455e-01,6.14457e-01,9.99992e-01
5.531641237e-01,6.19914e-01,9.99999e-01,9.99222e-01,6.20396e-01,9.99998e-01
5.559299443e-01,6.26040e-01,9.99999e-01,9.99625e-01,6.26274e-01,9.99999e-01
5.587095940e-01,6.31941e-01,9.99999e-01,9.99763e-01,6.32090e-01,9.99999e-01
5.615031420e-01,6.37676e-01,9.99999e-01,9.99737e-01,6.37843e-01,9.99999e-01
5.643106577e-01,6.43339e-01,9.99999e-01,9.99698e-01,6.43534e-01,9.99996e-01
5.671322110e-01,6.46764e-01,9.99999e-01,9.96339e-01,6.49161e-01,9.99967e-01
5.699678720e-01,6.52163e-01,9.99999e-01,9.96184e-01,6.54725e-01,9.99901e-01
5.728177114e-01,6.57525e-01,9.99999e-01,9.95990e-01,6.60225e-01,9.99917e-01
5.756818000e-01,6.63185e-01,9.99999e-01,9.96325e-01,6.65662e-01,9.99951e-01
5.785602090e-01,6.68880e-01,9.99999e-01,9.96802e-01,6.71035e-01,9.99985e-01
5.814530100e-01,6.74163e-01,9.99999e-01,9.96782e-01,6.76343e-01,9.99992e-01
5.843602750e-01,6.78947e-01,9.99999e-01,9.96146e-01,6.81588e-01,9.99978e-01
5.872820764e-01,6.64257e-01,9.99999e-01,9.67445e-01,6.86768e-01,9.99767e-01
5.902184868e-01,6.64313e-01,9.99999e-01,9.60757e-01,6.91884e-01,9.99366e-01
5.931695792e-01,6.77112e-01,9.99999e-01,9.72145e-01,6.96937e-01,9.99390e-01
5.961354271e-01,6.80269e-01,9.99999e-01,9.69486e-01,7.01925e-01,9.99649e-01
5.991161043e-01,6.90972e-01,9.99999e-01,9.77644e-01,7.06849e-01,9.99891e-01
6.021116848e-01,7.02637e-01,9.99999e-01,9.87263e-01,7.11710e-01,9.99987e-01
6.051222432e-01,7.11876e-01,9.99999e-01,9.93537e-01,7.16507e-01,9.99998e-01
6.081478544e-01,7.19225e-01,9.99999e-01,9.97205e-01,7.21240e-01,9.99999e-01
6.111885937e-01,7.25054e-01,9.99999e-01,9.98819e-01,7.25911e-01,9.99999e-01
6.142445367e-01,7.30133e-01,9.99999e-01,9.99471e-01,7.30518e-01,9.99999e-01
6.173157594e-01,7.34849e-01,9.99999e-01,9.99708e-01,7.35063e-01,9.99999e-01
6.204023382e-01,7.39363e-01,9.99999e-01,9.99751e-01,7.39546e-01,9.99999e-01
6.235043498e-01,7.43145e-01,9.99999e-01,9.98897e-01,7.43967e-01,9.99996e-01
6.266218716e-01,7.43989e-01,9.99999e-01,9.94244e-01,7.48325e-01,9.99959e-01
6.297549810e-01,7.50971e-01,9.99999e-01,9.97885e-01,7.52623e-01,9.99918e-01
6.329037559e-01,7.53657e-01,9.99999e-01,9.95832e-01,7.56860e-01,9.99934e-01
6.360682746e-01,7.58297e-01,9.99999e-01,9.96438e-01,7.61036e-01,9.99961e-01
6.392486160e-01,7.61615e-01,9.99999e-01,9.95393e-01,7.65152e-01,9.99982e-01
6.424448591e-01,7.64420e-01,9.99999e-01,9.93804e-01,7.69208e-01,9.99969e-01
6.456570834e-01,7.51124e-01,9.99999e-01,9.71610e-01,7.73205e-01,9.99825e-01
6.488853688e-01,7.60741e-01,9.99999e-01,9.79327e-01,7.77144e-01,9.99555e-01
6.521297956e-01,7.64312e-01,9.99999e-01,9.78961e-01,7.81024e-01,9.99632e-01
6.553904446e-01,7.68076e-01,9.99999e-01,9.78900e-01,7.84846e-01,9.99726e-01
6.586673968e-01,7.74332e-01,9.99999e-01,9.81983e-01,7.88611e-01,9.99908e-01
6.619607338e-01,7.84309e-01,9.99999e-01,9.89909e-01,7.92319e-01,9.99980e-01
6.652705375e-01,7.91132e-01,9.99999e-01,9.93930e-01,7.95970e-01,9.99989e-01
6.685968902e-01,7.97500e-01,9.99999e-01,9.97417e-01,7.99566e-01,9.99997e-01
6.719398746e-01,8.02056e-01,9.99999e-01,9.98692e-01,8.03107e-01,9.99999e-01
6.752995740e-01,8.06035e-01,9.99999e-01,9.99309e-01,8.06592e-01,9.99999e-01
6.786760719e-01,8.09186e-01,9.99999e-01,9.98965e-01,8.10024e-01,9.99998e-01
6.820694522e-01,8.11963e-01,9.99999e-01,9.98239e-01,8.13402e-01,9.99990e-01
6.854797995e-01,8.14857e-01,9.99999e-01,9.97728e-01,8.16727e-01,9.99979e-01
6.889071985e-01,8.15417e-01,9.99999e-01,9.94459e-01,8.20000e-01,9.99950e-01
6.923517345e-01,7.52409e-01,9.99999e-01,9.14374e-01,8.23220e-01,9.99570e-01
6.958134932e-01,7.88697e-01,9.99999e-01,9.55296e-01,8.26390e-01,9.99048e-01
6.992925606e-01,7.92814e-01,9.99999e-01,9.56583e-01,8.29508e-01,9.99142e-01
7.027890234e-01,7.87894e-01,9.99999e-01,9.46951e-01,8.32576e-01,9.99345e-01
7.063029686e-01,7.97799e-01,9.99999e-01,9.55078e-01,8.35595e-01,9.99673e-01
7.098344834e-01,8.02205e-01,9.99999e-01,9.56823e-01,8.38565e-01,9.99806e-01
7.133836558e-01,7.93037e-01,9.99999e-01,9.42784e-01,8.41486e-01,9.99616e-01
7.169505741e-01,5.36802e-01,9.99999e-01,6.37669e-01,8.44360e-01,9.96990e-01
7.205353270e-01,6.75302e-01,9.99999e-01,8.01360e-01,8.47186e-01,9.94696e-01
7.241380036e-01,6.35566e-01,9.99999e-01,7.51195e-01,8.49966e-01,9.95419e-01
7.277586936e-01,6.56579e-01,9.99999e-01,7.72895e-01,8.52699e-01,9.96253e-01
7.313974871e-01,6.47928e-01,9.99999e-01,7.58799e-01,8.55387e-01,9.98243e-01
7.350544745e-01,7.36483e-01,9.99999e-01,8.58865e-01,8.58031e-01,9.99389e-01
7.387297469e-01,7.68749e-01,9.99999e-01,8.93490e-01,8.60629e-01,9.99719e-01
7.424233956e-01,8.16789e-01,9.99999e-01,9.46296e-01,8.63185e-01,9.99950e-01
7.461355126e-01,8.37152e-01,9.99999e-01,9.67034e-01,8.65697e-01,9.99991e-01
7.498661902e-01,8.54742e-01,9.99999e-01,9.84540e-01,8.68166e-01,9.99996e-01
7.536155211e-01,8.63949e-01,9.99999e-01,9.92368e-01,8.70594e-01,9.99997e-01
7.573835987e-01,8.69546e-01,9.99999e-01,9.96065e-01,8.72980e-01,9.99998e-01
7.611705167e-01,8.73185e-01,9.99999e-01,9.97553e-01,8.75326e-01,9.99999e-01
7.649763693e-01,8.76284e-01,9.99999e-01,9.98464e-01,8.77631e-01,9.99999e-01
7.688012511e-01,8.78955e-01,9.99999e-01,9.98929e-01,8.79897e-01,9.99999e-01
7.726452574e-01,8.81346e-01,9.99999e-01,9.99118e-01,8.82124e-01,9.99999e-01
7.765084837e-01,8.83197e-01,9.99999e-01,9.98740e-01,8.84312e-01,9.99998e-01
7.803910261e-01,8.81638e-01,9.99999e-01,9.94563e-01,8.86462e-01,9.99994e-01
7.842929812e-01,8.71809e-01,9.99999e-01,9.81165e-01,8.88575e-01,9.99964e-01
7.882144461e-01,8.56398e-01,9.99999e-01,9.61798e-01,8.90650e-01,9.99732e-01
7.921555184e-01,8.73509e-01,9.99999e-01,9.78966e-01,8.92690e-01,9.99535e-01
7.961162960e-01,8.61079e-01,9.99999e-01,9.62853e-01,8.94694e-01,9.99558e-01
8.000968774e-01,8.57939e-01,9.99999e-01,9.57263e-01,8.96662e-01,9.99529e-01
8.040973618e-01,8.59873e-01,9.99999e-01,9.57248e-01,8.98596e-01,9.99641e-01
8.081178486e-01,8.16092e-01,9.99999e-01,9.06597e-01,9.00496e-01,9.99636e-01
8.121584379e-01,6.04997e-01,9.99999e-01,6.71382e-01,9.02362e-01,9.98625e-01
8.162192301e-01,5.64622e-01,9.99999e-01,6.27685e-01,9.04195e-01,9.94840e-01
8.203003262e-01,7.20276e-01,9.99999e-01,7.99840e-01,9.05996e-01,9.93960e-01
8.244018279e-01,6.70786e-01,9.99999e-01,7.42513e-01,9.07764e-01,9.95190e-01
8.285238370e-01,6.81747e-01,9.99999e-01,7.52426e-01,9.09501e-01,9.96220e-01
8.326664562e-01,6.84117e-01,9.99999e-01,7.51957e-01,9.11207e-01,9.98435e-01
8.368297885e-01,7.41925e-01,9.99999e-01,8.13018e-01,9.12882e-01,9.99642e-01
8.410139374e-01,8.08055e-01,9.99999e-01,8.83761e-01,9.14527e-01,9.99790e-01
8.452190071e-01,8.62011e-01,9.99999e-01,9.41031e-01,9.16142e-01,9.99874e-01
8.494451021e-01,8.85700e-01,9.99999e-01,9.65195e-01,9.17729e-01,9.99899e-01
8.536923276e-01,9.00223e-01,9.99999e-01,9.79322e-01,9.19286e-01,9.99938e-01
8.579607893e-01,9.09004e-01,9.99999e-01,9.87186e-01,9.20816e-01,9.99984e-01
8.622505932e-01,9.14803e-01,9.99999e-01,9.91854e-01,9.22317e-01,9.99996e-01
8.665618462e-01,9.19117e-01,9.99999e-01,9.94940e-01,9.23792e-01,9.99998e-01
8.708946554e-01,9.19870e-01,9.99999e-01,9.94199e-01,9.25239e-01,9.99996e-01
8.752491287e-01,9.19473e-01,9.99999e-01,9.92251e-01,9.26660e-01,9.99991e-01
8.796253743e-01,9.18070e-01,9.99999e-01,9.89263e-01,9.28056e-01,9.99975e-01
8.840235012e-01,9.17978e-01,9.99999e-01,9.87757e-01,9.29425e-01,9.99924e-01
8.884436187e-01,8.89788e-01,9.99999e-01,9.56173e-01,9.30770e-01,9.99786e-01
8.928858368e-01,5.93398e-01,9.99999e-01,6.37414e-01,9.32090e-01,9.98772e-01
8.973502660e-01,4.25066e-01,9.99999e-01,4.58277e-01,9.33385e-01,9.93726e-01
9.018370173e-01,6.22693e-01,9.99999e-01,6.72850e-01,9.34657e-01,9.90153e-01
9.063462024e-01,6.49069e-01,9.99999e-01,6.99573e-01,9.35906e-01,9.91345e-01
9.108779334e-01,5.34057e-01,9.99999e-01,5.75055e-01,9.37131e-01,9.91008e-01
9.154323231e-01,4.93171e-01,9.99999e-01,5.29519e-01,9.38334e-01,9.92562e-01
9.200094847e-01,5.72260e-01,9.99999e-01,6.11651e-01,9.39514e-01,9.95830e-01
9.246095321e-01,4.56031e-01,9.99999e-01,4.87132e-01,9.40673e-01,9.95197e-01
9.292325798e-01,2.52154e-02,9.99999e-01,2.74029e-02,9.41810e-01,9.77023e-01
9.338787427e-01,4.53249e-03,9.99999e-01,5.22816e-03,9.42926e-01,9.19411e-01
9.385481364e-01,1.00423e-01,9.99999e-01,1.16665e-01,9.44021e-01,9.11820e-01
9.432408771e-01,5.23350e-02,9.99999e-01,5.99657e-02,9.45096e-01,9.23448e-01
9.479570815e-01,1.40035e-02,9.99999e-01,1.57916e-02,9.46150e-01,9.37239e-01
9.526968669e-01,3.51285e-02,9.99999e-01,3.85828e-02,9.47185e-01,9.61237e-01
9.574603512e-01,4.15617e-02,9.99999e-01,4.47213e-02,9.48201e-01,9.80118e-01
9.622476530e-01,6.92944e-02,9.99999e-01,7.40239e-02,9.49198e-01,9.86209e-01
9.670588912e-01,2.01273e-01,9.99999e-01,2.13848e-01,9.50176e-01,9.90548e-01
9.718941857e-01,3.29980e-01,9.99999e-01,3.49366e-01,9.51135e-01,9.93033e-01
9.767536566e-01,3.94110e-01,9.99999e-01,4.16164e-01,9.52077e-01,9.94671e-01
9.816374249e-01,4.91264e-01,9.99999e-01,5.16444e-01,9.53001e-01,9.98152e-01
9.865456120e-01,6.28112e-01,9.99999e-01,6.58714e-01,9.53908e-01,9.99614e-01
9.914783401e-01,7.35873e-01,9.99999e-01,7.70793e-01,9.54797e-01,9.99892e-01
9.964357318e-01,8.29168e-01,9.99999e-01,8.67683e-01,9.55670e-01,9.99937e-01
1.001417910e+00,8.78280e-01,9.99999e-01,9.18285e-01,9.56526e-01,9.99904e-01
1.006425000e+00,9.11702e-01,9.99999e-01,9.52430e-01,9.57366e-01,9.99863e-01
1.011457125e+00,9.29580e-01,9.99999e-01,9.70262e-01,9.58191e-01,9.99873e-01
1.016514411e+00,9.39437e-01,9.99999e-01,9.79687e-01,9.58999e-01,9.99910e-01
1.021596983e+00,9.44137e-01,9.99999e-01,9.83773e-01,9.59793e-01,9.99912e-01
1.026704968e+00,9.48336e-01,9.99999e-01,9.87316e-01,9.60571e-01,9.99944e-01
1.031838492e+00,9.52457e-01,9.99999e-01,9.90780e-01,9.61334e-01,9.99983e-01
1.036997685e+00,9.56795e-01,9.99999e-01,9.94505e-01,9.62083e-01,9.99996e-01
1.042182673e+00,9.56496e-01,9.99999e-01,9.93434e-01,9.62818e-01,9.99998e-01
1.047393587e+00,9.55168e-01,9.99999e-01,9.91313e-01,9.63539e-01,9.99997e-01
1.052630555e+00,9.52759e-01,9.99999e-01,9.88089e-01,9.64246e-01,9.99996e-01
1.057893707e+00,9.45809e-01,9.99999e-01,9.80180e-01,9.64940e-01,9.99992e-01
1.063183176e+00,9.34371e-01,9.99999e-01,9.67654e-01,9.65620e-01,9.99982e-01
1.068499092e+00,9.14604e-01,9.99999e-01,9.46547e-01,9.66288e-01,9.99962e-01
1.073841587e+00,9.06822e-01,9.99999e-01,9.37899e-01,9.66943e-01,9.99918e-01
1.079210795e+00,8.91067e-01,9.99999e-01,9.21120e-01,9.67585e-01,9.99780e-01
1.084606849e+00,8.54787e-01,9.99999e-01,8.83315e-01,9.68215e-01,9.99470e-01
1.090029883e+00,8.10285e-01,9.99999e-01,8.37268e-01,9.68833e-01,9.98904e-01
1.095480033e+00,5.97984e-01,9.99999e-01,6.18059e-01,9.69439e-01,9.98018e-01
1.100957433e+00,2.98402e-01,9.99999e-01,3.08745e-01,9.70033e-01,9.96356e-01
1.106462220e+00,6.56442e-02,9.99999e-01,6.80514e-02,9.70617e-01,9.93827e-01
1.111994531e+00,4.17817e-03,9.99999e-01,4.37341e-03,9.71188e-01,9.83697e-01
1.117554504e+00,3.00489e-04,9.99999e-01,3.28130e-04,9.71749e-01,9.42383e-01
1.123142276e+00,4.31233e-03,9.99999e-01,5.10538e-03,9.72300e-01,8.68726e-01
1.128757988e+00,1.41730e-02,9.99999e-01,1.71444e-02,9.72839e-01,8.49761e-01
1.134401778e+00,8.81512e-03,9.99999e-01,1.04009e-02,9.73369e-01,8.70725e-01
1.140073787e+00,6.16319e-02,9.99999e-01,7.06855e-02,9.73888e-01,8.95294e-01
1.145774156e+00,8.90313e-03,9.99999e-01,1.01105e-02,9.74397e-01,9.03715e-01
1.151503026e+00,4.70033e-03,9.99999e-01,5.10110e-03,9.74896e-01,9.45161e-01
1.157260541e+00,5.97040e-03,9.99999e-01,6.22515e-03,9.75386e-01,9.83278e-01
1.163046844e+00,2.21360e-02,9.99999e-01,2.27920e-02,9.75866e-01,9.95231e-01
1.168862078e+00,6.07369e-02,9.99999e-01,6.23622e-02,9.76337e-01,9.97540e-01
1.174706389e+00,1.69844e-01,9.99999e-01,1.74446e-01,9.76799e-01,9.96741e-01
1.180579921e+00,3.29380e-01,9.99999e-01,3.38715e-01,9.77252e-01,9.95076e-01
1.186482820e+00,5.19114e-01,9.99999e-01,5.33652e-01,9.77696e-01,9.94946e-01
1.192415234e+00,6.72757e-01,9.99999e-01,6.90411e-01,9.78132e-01,9.96213e-01
1.198377311e+00,7.13684e-01,9.99999e-01,7.31938e-01,9.78559e-01,9.96422e-01
1.204369197e+00,7.28743e-01,9.99999e-01,7.46808e-01,9.78978e-01,9.96763e-01
1.210391043e+00,7.37985e-01,9.99999e-01,7.55002e-01,9.79389e-01,9.98029e-01
1.216442998e+00,7.70793e-01,9.99999e-01,7.87640e-01,9.79792e-01,9.98792e-01
1.222525213e+00,8.12288e-01,9.99999e-01,8.29328e-01,9.80187e-01,9.99249e-01
1.228637839e+00,8.60527e-01,9.99999e-01,8.77879e-01,9.80575e-01,9.99650e-01
1.234781029e+00,8.90539e-01,9.99999e-01,9.07919e-01,9.80955e-01,9.99899e-01
1.240954934e+00,9.23073e-01,9.99999e-01,9.40662e-01,9.81327e-01,9.99971e-01
1.247159708e+00,9.35992e-01,9.99999e-01,9.53463e-01,9.81693e-01,9.99981e-01
1.253395507e+00,9.41302e-01,9.99999e-01,9.58528e-01,9.82051e-01,9.99976e-01
1.259662485e+00,9.43559e-01,9.99999e-01,9.60495e-01,9.82402e-01,9.99962e-01
1.265960797e+00,9.21574e-01,9.99999e-01,9.37810e-01,9.82747e-01,9.99937e-01
1.272290601e+00,8.88635e-01,9.99999e-01,9.04024e-01,9.83085e-01,9.99889e-01
1.278652054e+00,8.05969e-01,9.99999e-01,8.19719e-01,9.83416e-01,9.99805e-01
1.285045314e+00,6.88395e-01,9.99999e-01,7.00027e-01,9.83741e-01,9.99636e-01
1.291470541e+00,5.29979e-01,9.99999e-01,5.38907e-01,9.84060e-01,9.99362e-01
1.297927893e+00,4.14012e-01,9.99999e-01,4.21085e-01,9.84372e-01,9.98809e-01
1.304417533e+00,3.59904e-01,9.99999e-01,3.66427e-01,9.84678e-01,9.97480e-01
1.310939621e+00,2.77332e-01,9.99999e-01,2.83024e-01,9.84979e-01,9.94833e-01
1.317494319e+00,2.84823e-01,9.99999e-01,2.91863e-01,9.85273e-01,9.90464e-01
1.324081790e+00,1.65270e-01,9.99999e-01,1.70335e-01,9.85562e-01,9.84477e-01
1.330702199e+00,1.98318e-02,9.99999e-01,2.06666e-02,9.85845e-01,9.73385e-01
1.337355710e+00,4.39492e-07,9.99999e-01,4.69441e-07,9.86123e-01,9.49376e-01
1.344042489e+00,2.48626e-10,9.99999e-01,2.94748e-10,9.86395e-01,8.55155e-01
1.350762701e+00,3.96176e-35,9.99999e-01,6.86090e-35,9.86662e-01,5.85246e-01
1.357516515e+00,1.16796e-53,9.99999e-01,5.70105e-53,9.86923e-01,2.07581e-01
1.364304097e+00,6.28561e-33,9.99999e-01,1.00145e-31,9.87180e-01,6.35799e-02
1.371125618e+00,9.61182e-20,9.99999e-01,1.30776e-18,9.87432e-01,7.44337e-02
1.377981246e+00,4.53127e-19,9.99999e-01,4.25319e-18,9.87678e-01,1.07867e-01
1.384871152e+00,6.16246e-27,9.99999e-01,4.96828e-26,9.87920e-01,1.25552e-01
1.391795508e+00,3.71581e-33,9.99999e-01,2.71795e-32,9.88157e-01,1.38352e-01
1.398754485e+00,4.17924e-25,9.99999e-01,2.16645e-24,9.88390e-01,1.95173e-01
1.405748258e+00,8.32540e-25,9.99999e-01,2.18873e-24,9.88618e-01,3.84754e-01
1.412776999e+00,6.80281e-24,9.99998e-01,1.06403e-23,9.88842e-01,6.46556e-01
1.419840884e+00,1.26710e-23,9.99998e-01,1.55107e-23,9.89061e-01,8.25955e-01
1.426940089e+00,2.34139e-15,9.99997e-01,2.73682e-15,9.89276e-01,8.64789e-01
1.434074789e+00,1.09174e-13,9.99998e-01,1.30965e-13,9.89486e-01,8.42465e-01
1.441245163e+00,2.79674e-11,9.99998e-01,3.40244e-11,9.89693e-01,8.30541e-01
1.448451389e+00,1.59393e-07,9.99997e-01,1.89446e-07,9.89895e-01,8.49950e-01
1.455693646e+00,2.39193e-05,9.99998e-01,2.74164e-05,9.90094e-01,8.81171e-01
1.462972114e+00,3.09620e-05,9.99998e-01,3.52747e-05,9.90289e-01,8.86345e-01
1.470286975e+00,9.29301e-06,9.99999e-01,1.05637e-05,9.90480e-01,8.88168e-01
