#,Wave/freq,Total,N2,H2O,Rayleigh,CIA
4.000000000e-01,7.95143e-01,9.99999e-01,9.99973e-01,7.95163e-01,9.99999e-01
4.020000000e-01,7.98762e-01,9.99999e-01,9.99983e-01,7.98775e-01,9.99999e-01
4.040100000e-01,8.02322e-01,9.99999e-01,9.99992e-01,8.02328e-01,9.99999e-01
4.060300500e-01,8.05824e-01,9.99999e-01,9.99997e-01,8.05826e-01,9.99999e-01
4.080602003e-01,8.09269e-01,9.99999e-01,9.99998e-01,8.09269e-01,9.99999e-01
4.101005013e-01,8.12659e-01,9.99999e-01,9.99999e-01,8.12659e-01,9.99999e-01
4.121510038e-01,8.15995e-01,9.99999e-01,9.99998e-01,8.15996e-01,9.99999e-01
4.142117588e-01,8.19274e-01,9.99999e-01,9.99992e-01,8.19280e-01,9.99999e-01
4.162828176e-01,8.22486e-01,9.99999e-01,9.99967e-01,8.22512e-01,9.99999e-01
4.183642317e-01,8.25677e-01,9.99999e-01,9.99980e-01,8.25693e-01,9.99999e-01
4.204560528e-01,8.28813e-01,9.99999e-01,9.99987e-01,8.28822e-01,9.99999e-01
4.225583331e-01,8.31898e-01,9.99999e-01,9.99995e-01,8.31902e-01,9.99999e-01
4.246711247e-01,8.34928e-01,9.99999e-01,9.99996e-01,8.34931e-01,9.99999e-01
4.267944804e-01,8.37908e-01,9.99999e-01,9.99994e-01,8.37912e-01,9.99999e-01
4.289284528e-01,8.40840e-01,9.99999e-01,9.99995e-01,8.40844e-01,9.99999e-01
4.310730950e-01,8.43726e-01,9.99999e-01,9.99997e-01,8.43728e-01,9.99999e-01
4.332284605e-01,8.46564e-01,9.99999e-01,9.99999e-01,8.46565e-01,9.99999e-01
4.353946028e-01,8.49354e-01,9.99999e-01,9.99999e-01,8.49354e-01,9.99999e-01
4.375715758e-01,8.52095e-01,9.99999e-01,9.99996e-01,8.52098e-01,9.99999e-01
4.397594337e-01,8.54772e-01,9.99999e-01,9.99971e-01,8.54796e-01,9.99999e-01
4.419582309e-01,8.57325e-01,9.99999e-01,9.99855e-01,8.57449e-01,9.99999e-01
4.441680220e-01,8.59963e-01,9.99999e-01,9.99888e-01,8.60058e-01,9.99999e-01
4.463888621e-01,8.62523e-01,9.99999e-01,9.99883e-01,8.62623e-01,9.99999e-01
4.486208064e-01,8.65082e-01,9.99999e-01,9.99927e-01,8.65145e-01,9.99999e-01
4.508639105e-01,8.67594e-01,9.99999e-01,9.99965e-01,8.67624e-01,9.99999e-01
4.531182300e-01,8.70049e-01,9.99999e-01,9.99986e-01,8.70060e-01,9.99999e-01
4.553838212e-01,8.72448e-01,9.99999e-01,9.99990e-01,8.72456e-01,9.99999e-01
4.576607403e-01,8.74807e-01,9.99999e-01,9.99995e-01,8.74810e-01,9.99999e-01
4.599490440e-01,8.77122e-01,9.99999e-01,9.99996e-01,8.77125e-01,9.99999e-01
4.622487892e-01,8.79398e-01,9.99999e-01,9.99998e-01,8.79399e-01,9.99999e-01
4.645600332e-01,8.81632e-01,9.99999e-01,9.99997e-01,8.81634e-01,9.99999e-01
4.668828333e-01,8.83800e-01,9.99999e-01,9.99965e-01,8.83831e-01,9.99999e-01
4.692172475e-01,8.85925e-01,9.99999e-01,9.99926e-01,8.85989e-01,9.99999e-01
4.715633337e-01,8.88068e-01,9.99999e-01,9.99951e-01,8.88110e-01,9.99999e-01
4.739211504e-01,8.90154e-01,9.99999e-01,9.99954e-01,8.90194e-01,9.99999e-01
4.762907561e-01,8.92221e-01,9.99999e-01,9.99976e-01,8.92242e-01,9.99999e-01
4.786722099e-01,8.94245e-01,9.99999e-01,9.99989e-01,8.94253e-01,9.99999e-01
4.810655710e-01,8.96227e-01,9.99999e-01,9.99996e-01,8.96230e-01,9.99999e-01
4.834708988e-01,8.98146e-01,9.99999e-01,9.99971e-01,8.98171e-01,9.99999e-01
4.858882533e-01,9.00032e-01,9.99999e-01,9.99948e-01,9.00079e-01,9.99999e-01
4.883176946e-01,9.01913e-01,9.99999e-01,9.99956e-01,9.01952e-01,9.99999e-01
4.907592831e-01,9.03757e-01,9.99999e-01,9.99960e-01,9.03793e-01,9.99999e-01
4.932130795e-01,9.05575e-01,9.99999e-01,9.99971e-01,9.05600e-01,9.99999e-01
4.956791449e-01,9.07362e-01,9.99999e-01,9.99984e-01,9.07376e-01,9.99999e-01
4.981575406e-01,9.09053e-01,9.99999e-01,9.99926e-01,9.09119e-01,9.99999e-01
5.006483283e-01,9.10657e-01,9.99999e-01,9.99808e-01,9.10832e-01,9.99998e-01
5.031515699e-01,9.11626e-01,9.99999e-01,9.99036e-01,9.12514e-01,9.99989e-01
5.056673278e-01,9.13692e-01,9.99999e-01,9.99492e-01,9.14165e-01,9.99987e-01
5.081956644e-01,9.15196e-01,9.99999e-01,9.99360e-01,9.15787e-01,9.99992e-01
5.107366428e-01,9.16983e-01,9.99999e-01,9.99568e-01,9.17380e-01,9.99998e-01
5.132903260e-01,9.18718e-01,9.99999e-01,9.99753e-01,9.18944e-01,9.99999e-01
5.158567776e-01,9.20384e-01,9.99999e-01,9.99895e-01,9.20479e-01,9.99999e-01
5.184360615e-01,9.21949e-01,9.99999e-01,9.99957e-01,9.21987e-01,9.99999e-01
5.210282418e-01,9.23453e-01,9.99999e-01,9.99983e-01,9.23468e-01,9.99999e-01
5.236333830e-01,9.24863e-01,9.99999e-01,9.99936e-01,9.24921e-01,9.99999e-01
5.262515499e-01,9.26311e-01,9.99999e-01,9.99960e-01,9.26348e-01,9.99998e-01
5.288828077e-01,9.27715e-01,9.99999e-01,9.99963e-01,9.27749e-01,9.99999e-01
5.315272217e-01,9.29095e-01,9.99999e-01,9.99968e-01,9.29124e-01,9.99999e-01
5.341848578e-01,9.30455e-01,9.99999e-01,9.99978e-01,9.30474e-01,9.99999e-01
5.368557821e-01,9.31731e-01,9.99999e-01,9.99926e-01,9.31800e-01,9.99999e-01
5.395400610e-01,9.32851e-01,9.99999e-01,9.99733e-01,9.33101e-01,9.99997e-01
5.422377613e-01,9.34055e-01,9.99999e-01,9.99660e-01,9.34378e-01,9.99993e-01
5.449489501e-01,9.35328e-01,9.99999e-01,9.99682e-01,9.35631e-01,9.99993e-01
5.476736949e-01,9.36597e-01,9.99999e-01,9.99720e-01,9.36862e-01,9.99996e-01
5.504120634e-01,9.37878e-01,9.99999e-01,9.99796e-01,9.38069e-01,9.99998e-01
5.531641237e-01,9.39159e-01,9.99999e-01,9.99897e-01,9.39255e-01,9.99999e-01
5.559299443e-01,9.40372e-01,9.99999e-01,9.99950e-01,9.40418e-01,9.99999e-01
5.587095940e-01,9.41531e-01,9.99999e-01,9.99968e-01,9.41560e-01,9.99999e-01
5.615031420e-01,9.42648e-01,9.99999e-01,9.99965e-01,9.42680e-01,9.99999e-01
5.643106577e-01,9.43743e-01,9.99999e-01,9.99960e-01,9.43780e-01,9.99999e-01
5.671322110e-01,9.44400e-01,9.99999e-01,9.99517e-01,9.44859e-01,9.99995e-01
5.699678720e-01,9.45431e-01,9.99999e-01,9.99497e-01,9.45919e-01,9.99986e-01
5.728177114e-01,9.46448e-01,9.99999e-01,9.99472e-01,9.46958e-01,9.99988e-01
5.756818000e-01,9.47514e-01,9.99999e-01,9.99516e-01,9.47978e-01,9.99993e-01
5.785602090e-01,9.48578e-01,9.99999e-01,9.99579e-01,9.48979e-01,9.99997e-01
5.814530100e-01,9.49558e-01,9.99999e-01,9.99576e-01,9.49961e-01,9.99998e-01
5.843602750e-01,9.50440e-01,9.99999e-01,9.99492e-01,9.50925e-01,9.99996e-01
5.872820764e-01,9.47686e-01,9.99999e-01,9.95634e-01,9.51870e-01,9.99968e-01
5.902184868e-01,9.47715e-01,9.99999e-01,9.94747e-01,9.52798e-01,9.99916e-01
5.931695792e-01,9.50084e-01,9.99999e-01,9.96279e-01,9.53708e-01,9.99919e-01
5.961354271e-01,9.50672e-01,9.99999e-01,9.95928e-01,9.54602e-01,9.99953e-01
5.991161043e-01,9.52629e-01,9.99999e-01,9.97031e-01,9.55478e-01,9.99985e-01
6.021116848e-01,9.54727e-01,9.99999e-01,9.98316e-01,9.56338e-01,9.99997e-01
6.051222432e-01,9.56367e-01,9.99999e-01,9.99148e-01,9.57182e-01,9.99999e-01
6.081478544e-01,9.57657e-01,9.99999e-01,9.99632e-01,9.58010e-01,9.99999e-01
6.111885937e-01,9.58673e-01,9.99999e-01,9.99844e-01,9.58822e-01,9.99999e-01
6.142445367e-01,9.59552e-01,9.99999e-01,9.99930e-01,9.59618e-01,9.99999e-01
6.173157594e-01,9.60363e-01,9.99999e-01,9.99961e-01,9.60400e-01,9.99999e-01
6.204023382e-01,9.61135e-01,9.99999e-01,9.99966e-01,9.61167e-01,9.99999e-01
6.235043498e-01,9.61779e-01,9.99999e-01,9.99854e-01,9.61919e-01,9.99999e-01
6.266218716e-01,9.61922e-01,9.99999e-01,9.99241e-01,9.62657e-01,9.99994e-01
6.297549810e-01,9.63103e-01,9.99999e-01,9.99721e-01,9.63381e-01,9.99988e-01
6.329037559e-01,9.63554e-01,9.99999e-01,9.99451e-01,9.64091e-01,9.99990e-01
6.360682746e-01,9.64331e-01,9.99999e-01,9.99531e-01,9.64788e-01,9.99994e-01
6.392486160e-01,9.64884e-01,9.99999e-01,9.99393e-01,9.65471e-01,9.99997e-01
6.424448591e-01,9.65349e-01,9.99999e-01,9.99183e-01,9.66141e-01,9.99995e-01
6.456570834e-01,9.63117e-01,9.99999e-01,9.96214e-01,9.66799e-01,9.99976e-01
6.488853688e-01,9.64727e-01,9.99999e-01,9.97249e-01,9.67444e-01,9.99941e-01
6.521297956e-01,9.65317e-01,9.99999e-01,9.97196e-01,9.68077e-01,9.99951e-01
6.553904446e-01,9.65951e-01,9.99999e-01,9.97200e-01,9.68697e-01,9.99963e-01
6.586673968e-01,9.66978e-01,9.99999e-01,9.97609e-01,9.69306e-01,9.99987e-01
6.619607338e-01,9.68609e-01,9.99999e-01,9.98667e-01,9.69903e-01,9.99996e-01
6.652705375e-01,9.69711e-01,9.99999e-01,9.99200e-01,9.70488e-01,9.99998e-01
6.685968902e-01,9.70733e-01,9.99999e-01,9.99660e-01,9.71063e-01,9.99999e-01
6.719398746e-01,9.71459e-01,9.99999e-01,9.99827e-01,9.71626e-01,9.99999e-01
6.752995740e-01,9.72091e-01,9.99999e-01,9.99908e-01,9.72179e-01,9.99999e-01
6.786760719e-01,9.72588e-01,9.99999e-01,9.99863e-01,9.72721e-01,9.99999e-01
6.820694522e-01,9.73026e-01,9.99999e-01,9.99768e-01,9.73252e-01,9.99998e-01
6.854797995e-01,9.73481e-01,9.99999e-01,9.99701e-01,9.73774e-01,9.99996e-01
6.889071985e-01,9.73567e-01,9.99999e-01,9.99268e-01,9.74285e-01,9.99993e-01
6.923517345e-01,9.63234e-01,9.99999e-01,9.88204e-01,9.74786e-01,9.99943e-01
6.958134932e-01,9.69252e-01,9.99999e-01,9.93944e-01,9.75278e-01,9.99874e-01
6.992925606e-01,9.69953e-01,9.99999e-01,9.94159e-01,9.75760e-01,9.99886e-01
7.027890234e-01,9.69156e-01,9.99999e-01,9.92834e-01,9.76234e-01,9.99913e-01
7.063029686e-01,9.70766e-01,9.99999e-01,9.93969e-01,9.76697e-01,9.99956e-01
7.098344834e-01,9.71474e-01,9.99999e-01,9.94213e-01,9.77152e-01,9.99974e-01
7.133836558e-01,9.69949e-01,9.99999e-01,9.92224e-01,9.77599e-01,9.99949e-01
7.169505741e-01,9.18361e-01,9.99999e-01,9.39356e-01,9.78036e-01,9.99603e-01
7.205353270e-01,9.48701e-01,9.99999e-01,9.70258e-01,9.78465e-01,9.99301e-01
7.241380036e-01,9.41055e-01,9.99999e-01,9.61932e-01,9.78886e-01,9.99396e-01
7.277586936e-01,9.45155e-01,9.99999e-01,9.65610e-01,9.79299e-01,9.99506e-01
7.313974871e-01,9.43863e-01,9.99999e-01,9.63639e-01,9.79703e-01,9.99768e-01
7.350544745e-01,9.60376e-01,9.99999e-01,9.79953e-01,9.80100e-01,9.99919e-01
7.387297469e-01,9.65963e-01,9.99999e-01,9.85219e-01,9.80490e-01,9.99962e-01
7.424233956e-01,9.73759e-01,9.99999e-01,9.92755e-01,9.80871e-01,9.99993e-01
7.461355126e-01,9.76927e-01,9.99999e-01,9.95599e-01,9.81245e-01,9.99998e-01
7.498661902e-01,9.79604e-01,9.99999e-01,9.97953e-01,9.81612e-01,9.99999e-01
7.536155211e-01,9.80984e-01,9.99999e-01,9.98993e-01,9.81972e-01,9.99999e-01
7.573835987e-01,9.81817e-01,9.99999e-01,9.99481e-01,9.82325e-01,9.99999e-01
7.611705167e-01,9.82355e-01,9.99999e-01,9.99677e-01,9.82671e-01,9.99999e-01
7.649763693e-01,9.82812e-01,9.99999e-01,9.99797e-01,9.83011e-01,9.99999e-01
7.688012511e-01,9.83205e-01,9.99999e-01,9.99858e-01,9.83343e-01,9.99999e-01
7.726452574e-01,9.83556e-01,9.99999e-01,9.99883e-01,9.83670e-01,9.99999e-01
7.765084837e-01,9.83827e-01,9.99999e-01,9.99834e-01,9.83990e-01,9.99999e-01
7.803910261e-01,9.83598e-01,9.99999e-01,9.99283e-01,9.84303e-01,9.99998e-01
7.842929812e-01,9.82146e-01,9.99999e-01,9.97500e-01,9.84611e-01,9.99994e-01
7.882144461e-01,9.79843e-01,9.99999e-01,9.94887e-01,9.84913e-01,9.99964e-01
7.921555184e-01,9.82395e-01,9.99999e-01,9.97204e-01,9.85208e-01,9.99938e-01
7.961162960e-01,9.80536e-01,9.99999e-01,9.95021e-01,9.85498e-01,9.99941e-01
8.000968774e-01,9.80080e-01,9.99999e-01,9.94276e-01,9.85783e-01,9.99937e-01
8.040973618e-01,9.80364e-01,9.99999e-01,9.94268e-01,9.86062e-01,9.99952e-01
8.081178486e-01,9.73528e-01,9.99999e-01,9.87062e-01,9.86335e-01,9.99951e-01
8.121584379e-01,9.34350e-01,9.99999e-01,9.47208e-01,9.86603e-01,9.99818e-01
8.162192301e-01,9.25127e-01,9.99999e-01,9.38076e-01,9.86866e-01,9.99320e-01
8.203003262e-01,9.55076e-01,9.99999e-01,9.68304e-01,9.87124e-01,9.99204e-01
8.244018279e-01,9.44110e-01,9.99999e-01,9.56785e-01,9.87376e-01,9.99366e-01
8.285238370e-01,9.50026e-01,9.99999e-01,9.62408e-01,9.87624e-01,9.99502e-01
8.326664562e-01,9.50254e-01,9.99999e-01,9.62121e-01,9.87867e-01,9.99793e-01
8.368297885e-01,9.61219e-01,9.99999e-01,9.72834e-01,9.88105e-01,9.99952e-01
8.410139374e-01,9.72282e-01,9.99999e-01,9.83780e-01,9.88339e-01,9.99972e-01
8.452190071e-01,9.80667e-01,9.99999e-01,9.92023e-01,9.88568e-01,9.99983e-01
8.494451021e-01,9.84186e-01,9.99999e-01,9.95353e-01,9.88792e-01,9.99986e-01
8.536923276e-01,9.86292e-01,9.99999e-01,9.97256e-01,9.89013e-01,9.99991e-01
8.579607893e-01,9.87552e-01,9.99999e-01,9.98306e-01,9.89228e-01,9.99997e-01
8.622505932e-01,9.88377e-01,9.99999e-01,9.98925e-01,9.89440e-01,9.99999e-01
8.665618462e-01,9.88988e-01,9.99999e-01,9.99333e-01,9.89648e-01,9.99999e-01
8.708946554e-01,9.89094e-01,9.99999e-01,9.99235e-01,9.89851e-01,9.99999e-01
8.752491287e-01,9.89038e-01,9.99999e-01,9.98978e-01,9.90050e-01,9.99998e-01
8.796253743e-01,9.88839e-01,9.99999e-01,9.98582e-01,9.90246e-01,9.99996e-01
8.840235012e-01,9.88825e-01,9.99999e-01,9.98381e-01,9.90438e-01,9.99989e-01
8.884436187e-01,9.84684e-01,9.99999e-01,9.94029e-01,9.90626e-01,9.99971e-01
8.928858368e-01,9.30572e-01,9.99999e-01,9.39354e-01,9.90810e-01,9.99838e-01
8.973502660e-01,8.87109e-01,9.99999e-01,8.95913e-01,9.90991e-01,9.99173e-01
9.018370173e-01,9.36167e-01,9.99999e-01,9.45737e-01,9.91168e-01,9.98700e-01
9.063462024e-01,9.42218e-01,9.99999e-01,9.51532e-01,9.91341e-01,9.98858e-01
9.108779334e-01,9.16769e-01,9.99999e-01,9.25714e-01,9.91512e-01,9.98813e-01
9.154323231e-01,9.07634e-01,9.99999e-01,9.16147e-01,9.91679e-01,9.99019e-01
9.200094847e-01,9.25720e-01,9.99999e-01,9.33845e-01,9.91842e-01,9.99450e-01
9.246095321e-01,8.89679e-01,9.99999e-01,8.97417e-01,9.92003e-01,9.99367e-01
9.292325798e-01,4.85853e-01,9.99999e-01,4.91189e-01,9.92160e-01,9.96950e-01
9.338787427e-01,3.95483e-01,9.99999e-01,4.02969e-01,9.92314e-01,9.89022e-01
9.385481364e-01,6.79247e-01,9.99999e-01,6.92753e-01,9.92466e-01,9.87945e-01
9.432408771e-01,5.89836e-01,9.99999e-01,6.00474e-01,9.92614e-01,9.89592e-01
9.479570815e-01,4.89158e-01,9.99999e-01,4.96938e-01,9.92759e-01,9.91521e-01
9.526968669e-01,5.83403e-01,9.99999e-01,5.90633e-01,9.92902e-01,9.94819e-01
9.574603512e-01,6.06793e-01,9.99999e-01,6.12658e-01,9.93041e-01,9.97364e-01
9.622476530e-01,6.65078e-01,9.99999e-01,6.70868e-01,9.93178e-01,9.98177e-01
9.670588912e-01,7.87667e-01,9.99999e-01,7.93959e-01,9.93313e-01,9.98752e-01
9.718941857e-01,8.58618e-01,9.99999e-01,8.65077e-01,9.93444e-01,9.99081e-01
9.767536566e-01,8.80279e-01,9.99999e-01,8.86594e-01,9.93573e-01,9.99297e-01
9.816374249e-01,9.08788e-01,9.99999e-01,9.14771e-01,9.93700e-01,9.99756e-01
9.865456120e-01,9.39976e-01,9.99999e-01,9.45864e-01,9.93824e-01,9.99948e-01
9.914783401e-01,9.60304e-01,9.99999e-01,9.66166e-01,9.93945e-01,9.99985e-01
9.964357318e-01,9.75605e-01,9.99999e-01,9.81437e-01,9.94065e-01,9.99991e-01
1.001417910e+00,9.83072e-01,9.99999e-01,9.88837e-01,9.94182e-01,9.99986e-01
1.006425000e+00,9.87928e-01,9.99999e-01,9.93612e-01,9.94296e-01,9.99981e-01
1.011457125e+00,9.90454e-01,9.99999e-01,9.96038e-01,9.94408e-01,9.99982e-01
1.016514411e+00,9.91829e-01,9.99999e-01,9.97306e-01,9.94519e-01,9.99987e-01
1.021596983e+00,9.92479e-01,9.99999e-01,9.97852e-01,9.94627e-01,9.99988e-01
1.026704968e+00,9.93059e-01,9.99999e-01,9.98324e-01,9.94732e-01,9.99992e-01
1.031838492e+00,9.93624e-01,9.99999e-01,9.98783e-01,9.94836e-01,9.99997e-01
1.036997685e+00,9.94218e-01,9.99999e-01,9.99276e-01,9.94938e-01,9.99999e-01
1.042182673e+00,9.94177e-01,9.99999e-01,9.99134e-01,9.95038e-01,9.99999e-01
1.047393587e+00,9.93995e-01,9.99999e-01,9.98854e-01,9.95135e-01,9.99999e-01
1.052630555e+00,9.93665e-01,9.99999e-01,9.98426e-01,9.95231e-01,9.99999e-01
1.057893707e+00,9.92708e-01,9.99999e-01,9.97371e-01,9.95325e-01,9.99998e-01
1.063183176e+00,9.91115e-01,9.99999e-01,9.95680e-01,9.95417e-01,9.99997e-01
1.068499092e+00,9.88319e-01,9.99999e-01,9.92782e-01,9.95508e-01,9.99994e-01
1.073841587e+00,9.87169e-01,9.99999e-01,9.91546e-01,9.95596e-01,9.99988e-01
1.079210795e+00,9.84906e-01,9.99999e-01,9.89204e-01,9.95683e-01,9.99970e-01
1.084606849e+00,9.79449e-01,9.99999e-01,9.83679e-01,9.95768e-01,9.99930e-01
1.090029883e+00,9.72347e-01,9.99999e-01,9.76538e-01,9.95851e-01,9.99855e-01
1.095480033e+00,9.33387e-01,9.99999e-01,9.37441e-01,9.95933e-01,9.99739e-01
1.100957433e+00,8.45011e-01,9.99999e-01,8.48800e-01,9.96013e-01,9.99520e-01
1.106462220e+00,6.57564e-01,9.99999e-01,6.60680e-01,9.96092e-01,9.99186e-01
1.111994531e+00,4.19544e-01,9.99999e-01,4.22067e-01,9.96169e-01,9.97842e-01
1.117554504e+00,2.47565e-01,9.99999e-01,2.50443e-01,9.96244e-01,9.92234e-01
1.123142276e+00,3.61381e-01,9.99999e-01,3.69484e-01,9.96318e-01,9.81682e-01
1.128757988e+00,5.08318e-01,9.99999e-01,5.21187e-01,9.96391e-01,9.78840e-01
1.134401778e+00,2.70327e-01,9.99999e-01,2.76265e-01,9.96462e-01,9.81978e-01
1.140073787e+00,6.62408e-01,9.99999e-01,6.74441e-01,9.96532e-01,9.85575e-01
1.145774156e+00,4.38192e-01,9.99999e-01,4.45573e-01,9.96600e-01,9.86787e-01
1.151503026e+00,4.03480e-01,9.99999e-01,4.07839e-01,9.96667e-01,9.92617e-01
1.157260541e+00,4.64480e-01,9.99999e-01,4.67035e-01,9.96733e-01,9.97786e-01
1.163046844e+00,5.67085e-01,9.99999e-01,5.69264e-01,9.96797e-01,9.99371e-01
1.168862078e+00,6.72214e-01,9.99999e-01,6.74549e-01,9.96860e-01,9.99676e-01
1.174706389e+00,7.81429e-01,9.99999e-01,7.84176e-01,9.96922e-01,9.99570e-01
1.180579921e+00,8.59153e-01,9.99999e-01,8.62311e-01,9.96983e-01,9.99351e-01
1.186482820e+00,9.16251e-01,9.99999e-01,9.19579e-01,9.97043e-01,9.99334e-01
1.192415234e+00,9.48978e-01,9.99999e-01,9.52210e-01,9.97101e-01,9.99501e-01
1.198377311e+00,9.56343e-01,9.99999e-01,9.59519e-01,9.97158e-01,9.99528e-01
1.204369197e+00,9.58604e-01,9.99999e-01,9.61691e-01,9.97214e-01,9.99573e-01
1.210391043e+00,9.60454e-01,9.99999e-01,9.63333e-01,9.97269e-01,9.99740e-01
1.216442998e+00,9.66025e-01,9.99999e-01,9.68771e-01,9.97323e-01,9.99840e-01
1.222525213e+00,9.72930e-01,9.99999e-01,9.75585e-01,9.97376e-01,9.99900e-01
1.228637839e+00,9.80403e-01,9.99999e-01,9.82976e-01,9.97427e-01,9.99953e-01
1.234781029e+00,9.84842e-01,9.99999e-01,9.87343e-01,9.97478e-01,9.99986e-01
1.240954934e+00,9.89519e-01,9.99999e-01,9.91974e-01,9.97528e-01,9.99995e-01
1.247159708e+00,9.91340e-01,9.99999e-01,9.93749e-01,9.97577e-01,9.99997e-01
1.253395507e+00,9.92079e-01,9.99999e-01,9.94443e-01,9.97624e-01,9.99996e-01
1.259662485e+00,9.92392e-01,9.99999e-01,9.94712e-01,9.97671e-01,9.99994e-01
1.265960797e+00,9.89305e-01,9.99999e-01,9.91576e-01,9.97717e-01,9.99991e-01
1.272290601e+00,9.84543e-01,9.99999e-01,9.86764e-01,9.97762e-01,9.99985e-01
1.278652054e+00,9.71701e-01,9.99999e-01,9.73861e-01,9.97806e-01,9.99973e-01
1.285045314e+00,9.50964e-01,9.99999e-01,9.53058e-01,9.97850e-01,9.99951e-01
1.291470541e+00,9.17622e-01,9.99999e-01,9.19637e-01,9.97892e-01,9.99915e-01
1.297927893e+00,8.85710e-01,9.99999e-01,8.87682e-01,9.97934e-01,9.99843e-01
1.304417533e+00,8.67203e-01,9.99999e-01,8.69250e-01,9.97974e-01,9.99668e-01
1.310939621e+00,8.35429e-01,9.99999e-01,8.37660e-01,9.98014e-01,9.99319e-01
1.317494319e+00,8.37844e-01,9.99999e-01,8.40534e-01,9.98053e-01,9.98741e-01
1.324081790e+00,7.68098e-01,9.99999e-01,7.71149e-01,9.98092e-01,9.97946e-01
1.330702199e+00,3.74651e-01,9.99999e-01,3.76685e-01,9.98129e-01,9.96462e-01
1.337355710e+00,7.72601e-02,9.99999e-01,7.79320e-02,9.98166e-01,9.93198e-01
1.344042489e+00,3.42816e-03,9.99999e-01,3.50566e-03,9.98203e-01,9.79654e-01
1.350762701e+00,3.18510e-06,9.99999e-01,3.42336e-06,9.98238e-01,9.32042e-01
1.357516515e+00,1.17398e-08,9.99999e-01,1.44581e-08,9.98273e-01,8.13393e-01
1.364304097e+00,7.72692e-06,9.99999e-01,1.11159e-05,9.98307e-01,6.96298e-01
1.371125618e+00,3.58469e-04,9.99999e-01,5.05108e-04,9.98340e-01,7.10865e-01
1.377981246e+00,1.03195e-03,9.99999e-01,1.38488e-03,9.98373e-01,7.46368e-01
1.384871152e+00,1.86851e-05,9.99999e-01,2.45795e-05,9.98405e-01,7.61403e-01
1.391795508e+00,1.08509e-05,9.99999e-01,1.40926e-05,9.98437e-01,7.71176e-01
1.398754485e+00,8.89540e-05,9.99999e-01,1.10420e-04,9.98467e-01,8.06834e-01
1.405748258e+00,8.64077e-05,9.99999e-01,9.81066e-05,9.98498e-01,8.82077e-01
1.412776999e+00,9.24941e-05,9.99999e-01,9.80921e-05,9.98527e-01,9.44321e-01
1.419840884e+00,1.80350e-04,9.99999e-01,1.85205e-04,9.98556e-01,9.75193e-01
1.426940089e+00,1.24691e-03,9.99999e-01,1.27273e-03,9.98585e-01,9.81096e-01
1.434074789e+00,5.81601e-03,9.99999e-01,5.95672e-03,9.98613e-01,9.77731e-01
1.441245163e+00,1.68333e-02,9.99999e-01,1.72724e-02,9.98640e-01,9.75902e-01
1.448451389e+00,5.65693e-02,9.99999e-01,5.78675e-02,9.98667e-01,9.78868e-01
1.455693646e+00,1.44314e-01,9.99999e-01,1.46924e-01,9.98693e-01,9.83518e-01
1.462972114e+00,1.84352e-01,9.99999e-01,1.87537e-01,9.98719e-01,9.84275e-01
1.470286975e+00,1.40661e-01,9.99999e-01,1.43049e-01,9.98744e-01,9.84540e-01
