#,Wave/freq,Total,N2,H2O,Rayleigh,CIA
4.000000000e-01,7.73329e-01,9.99999e-01,9.99970e-01,7.73351e-01,9.99999e-01
4.020000000e-01,7.77277e-01,9.99999e-01,9.99981e-01,7.77291e-01,9.99999e-01
4.040100000e-01,7.81163e-01,9.99999e-01,9.99991e-01,7.81169e-01,9.99999e-01
4.060300500e-01,7.84988e-01,9.99999e-01,9.99997e-01,7.84989e-01,9.99999e-01
4.080602003e-01,7.88751e-01,9.99999e-01,9.99998e-01,7.88752e-01,9.99999e-01
4.101005013e-01,7.92458e-01,9.99999e-01,9.99999e-01,7.92458e-01,9.99999e-01
4.121510038e-01,7.96106e-01,9.99999e-01,9.99998e-01,7.96107e-01,9.99999e-01
4.142117588e-01,7.99695e-01,9.99999e-01,9.99991e-01,7.99701e-01,9.99999e-01
4.162828176e-01,8.03210e-01,9.99999e-01,9.99963e-01,8.03239e-01,9.99999e-01
4.183642317e-01,8.06706e-01,9.99999e-01,9.99978e-01,8.06723e-01,9.99999e-01
4.204560528e-01,8.10142e-01,9.99999e-01,9.99986e-01,8.10153e-01,9.99999e-01
4.225583331e-01,8.13525e-01,9.99999e-01,9.99994e-01,8.13529e-01,9.99999e-01
4.246711247e-01,8.16849e-01,9.99999e-01,9.99995e-01,8.16852e-01,9.99999e-01
4.267944804e-01,8.20118e-01,9.99999e-01,9.99993e-01,8.20122e-01,9.99999e-01
4.289284528e-01,8.23337e-01,9.99999e-01,9.99995e-01,8.23341e-01,9.99999e-01
4.310730950e-01,8.26507e-01,9.99999e-01,9.99997e-01,8.26508e-01,9.99999e-01
4.332284605e-01,8.29625e-01,9.99999e-01,9.99999e-01,8.29625e-01,9.99999e-01
4.353946028e-01,8.32691e-01,9.99999e-01,9.99999e-01,8.32691e-01,9.99999e-01
4.375715758e-01,8.35705e-01,9.99999e-01,9.99996e-01,8.35708e-01,9.99999e-01
4.397594337e-01,8.38650e-01,9.99999e-01,9.99968e-01,8.38676e-01,9.99999e-01
4.419582309e-01,8.41463e-01,9.99999e-01,9.99842e-01,8.41596e-01,9.99999e-01
4.441680220e-01,8.44361e-01,9.99999e-01,9.99873e-01,8.44467e-01,9.99999e-01
4.463888621e-01,8.47182e-01,9.99999e-01,9.99869e-01,8.47292e-01,9.99999e-01
4.486208064e-01,8.50001e-01,9.99999e-01,9.99918e-01,8.50070e-01,9.99999e-01
4.508639105e-01,8.52769e-01,9.99999e-01,9.99961e-01,8.52802e-01,9.99999e-01
4.531182300e-01,8.55475e-01,9.99999e-01,9.99984e-01,8.55488e-01,9.99999e-01
4.553838212e-01,8.58121e-01,9.99999e-01,9.99989e-01,8.58130e-01,9.99999e-01
4.576607403e-01,8.60723e-01,9.99999e-01,9.99994e-01,8.60727e-01,9.99999e-01
4.599490440e-01,8.63278e-01,9.99999e-01,9.99996e-01,8.63280e-01,9.99999e-01
4.622487892e-01,8.65790e-01,9.99999e-01,9.99998e-01,8.65791e-01,9.99999e-01
4.645600332e-01,8.68257e-01,9.99999e-01,9.99997e-01,8.68259e-01,9.99999e-01
4.668828333e-01,8.70652e-01,9.99999e-01,9.99961e-01,8.70685e-01,9.99999e-01
4.692172475e-01,8.72999e-01,9.99999e-01,9.99917e-01,8.73070e-01,9.99999e-01
4.715633337e-01,8.75367e-01,9.99999e-01,9.99946e-01,8.75414e-01,9.99999e-01
4.739211504e-01,8.77673e-01,9.99999e-01,9.99948e-01,8.77718e-01,9.99999e-01
4.762907561e-01,8.79958e-01,9.99999e-01,9.99972e-01,8.79982e-01,9.99999e-01
4.786722099e-01,8.82197e-01,9.99999e-01,9.99988e-01,8.82207e-01,9.99999e-01
4.810655710e-01,8.84391e-01,9.99999e-01,9.99996e-01,8.84394e-01,9.99999e-01
4.834708988e-01,8.86515e-01,9.99999e-01,9.99969e-01,8.86542e-01,9.99999e-01
4.858882533e-01,8.88602e-01,9.99999e-01,9.99941e-01,8.88654e-01,9.99999e-01
4.883176946e-01,8.90685e-01,9.99999e-01,9.99951e-01,8.90728e-01,9.99999e-01
4.907592831e-01,8.92727e-01,9.99999e-01,9.99955e-01,8.92766e-01,9.99999e-01
4.932130795e-01,8.94741e-01,9.99999e-01,9.99968e-01,8.94769e-01,9.99999e-01
4.956791449e-01,8.96721e-01,9.99999e-01,9.99983e-01,8.96736e-01,9.99999e-01
4.981575406e-01,8.98595e-01,9.99999e-01,9.99917e-01,8.98669e-01,9.99999e-01
5.006483283e-01,9.00377e-01,9.99999e-01,9.99789e-01,9.00567e-01,9.99998e-01
5.031515699e-01,9.01452e-01,9.99999e-01,9.98924e-01,9.02432e-01,9.99988e-01
5.056673278e-01,9.03737e-01,9.99999e-01,9.99429e-01,9.04264e-01,9.99986e-01
5.081956644e-01,9.05404e-01,9.99999e-01,9.99280e-01,9.06063e-01,9.99991e-01
5.107366428e-01,9.07388e-01,9.99999e-01,9.99513e-01,9.07830e-01,9.99997e-01
5.132903260e-01,9.09313e-01,9.99999e-01,9.99721e-01,9.09566e-01,9.99999e-01
5.158567776e-01,9.11163e-01,9.99999e-01,9.99881e-01,9.11271e-01,9.99999e-01
5.184360615e-01,9.12902e-01,9.99999e-01,9.99952e-01,9.12945e-01,9.99999e-01
5.210282418e-01,9.14572e-01,9.99999e-01,9.99982e-01,9.14588e-01,9.99999e-01
5.236333830e-01,9.16138e-01,9.99999e-01,9.99929e-01,9.16203e-01,9.99999e-01
5.262515499e-01,9.17747e-01,9.99999e-01,9.99955e-01,9.17788e-01,9.99998e-01
5.288828077e-01,9.19307e-01,9.99999e-01,9.99959e-01,9.19344e-01,9.99999e-01
5.315272217e-01,9.20840e-01,9.99999e-01,9.99963e-01,9.20873e-01,9.99999e-01
5.341848578e-01,9.22352e-01,9.99999e-01,9.99976e-01,9.22373e-01,9.99999e-01
5.368557821e-01,9.23772e-01,9.99999e-01,9.99918e-01,9.23847e-01,9.99999e-01
5.395400610e-01,9.25021e-01,9.99999e-01,9.99708e-01,9.25293e-01,9.99997e-01
5.422377613e-01,9.26352e-01,9.99999e-01,9.99616e-01,9.26714e-01,9.99992e-01
5.449489501e-01,9.27774e-01,9.99999e-01,9.99646e-01,9.28108e-01,9.99992e-01
5.476736949e-01,9.29180e-01,9.99999e-01,9.99683e-01,9.29476e-01,9.99996e-01
5.504120634e-01,9.30606e-01,9.99999e-01,9.99770e-01,9.30820e-01,9.99998e-01
5.531641237e-01,9.32032e-01,9.99999e-01,9.99884e-01,9.32139e-01,9.99999e-01
5.559299443e-01,9.33382e-01,9.99999e-01,9.99943e-01,9.33434e-01,9.99999e-01
5.587095940e-01,9.34672e-01,9.99999e-01,9.99964e-01,9.34705e-01,9.99999e-01
5.615031420e-01,9.35916e-01,9.99999e-01,9.99960e-01,9.35952e-01,9.99999e-01
5.643106577e-01,9.37136e-01,9.99999e-01,9.99956e-01,9.37177e-01,9.99999e-01
5.671322110e-01,9.37886e-01,9.99999e-01,9.99478e-01,9.38379e-01,9.99995e-01
5.699678720e-01,9.39007e-01,9.99999e-01,9.99427e-01,9.39558e-01,9.99985e-01
5.728177114e-01,9.40151e-01,9.99999e-01,9.99410e-01,9.40716e-01,9.99987e-01
5.756818000e-01,9.41335e-01,9.99999e-01,9.99457e-01,9.41852e-01,9.99992e-01
5.785602090e-01,9.42519e-01,9.99999e-01,9.99526e-01,9.42967e-01,9.99997e-01
5.814530100e-01,9.43613e-01,9.99999e-01,9.99525e-01,9.44062e-01,9.99998e-01
5.843602750e-01,9.44604e-01,9.99999e-01,9.99439e-01,9.45136e-01,9.99996e-01
5.872820764e-01,9.41589e-01,9.99999e-01,9.95171e-01,9.46190e-01,9.99965e-01
5.902184868e-01,9.41539e-01,9.99999e-01,9.94090e-01,9.47224e-01,9.99906e-01
5.931695792e-01,9.44207e-01,9.99999e-01,9.95837e-01,9.48239e-01,9.99908e-01
5.961354271e-01,9.44842e-01,9.99999e-01,9.95425e-01,9.49235e-01,9.99944e-01
5.991161043e-01,9.47022e-01,9.99999e-01,9.96658e-01,9.50212e-01,9.99983e-01
6.021116848e-01,9.49363e-01,9.99999e-01,9.98100e-01,9.51171e-01,9.99997e-01
6.051222432e-01,9.51196e-01,9.99999e-01,9.99037e-01,9.52112e-01,9.99999e-01
6.081478544e-01,9.52641e-01,9.99999e-01,9.99585e-01,9.53036e-01,9.99999e-01
6.111885937e-01,9.53774e-01,9.99999e-01,9.99823e-01,9.53942e-01,9.99999e-01
6.142445367e-01,9.54756e-01,9.99999e-01,9.99921e-01,9.54830e-01,9.99999e-01
6.173157594e-01,9.55661e-01,9.99999e-01,9.99956e-01,9.55703e-01,9.99999e-01
6.204023382e-01,9.56524e-01,9.99999e-01,9.99963e-01,9.56558e-01,9.99999e-01
6.235043498e-01,9.57247e-01,9.99999e-01,9.99842e-01,9.57398e-01,9.99999e-01
6.266218716e-01,9.57403e-01,9.99999e-01,9.99151e-01,9.58221e-01,9.99993e-01
6.297549810e-01,9.58720e-01,9.99999e-01,9.99688e-01,9.59030e-01,9.99987e-01
6.329037559e-01,9.59221e-01,9.99999e-01,9.99382e-01,9.59822e-01,9.99989e-01
6.360682746e-01,9.60092e-01,9.99999e-01,9.99476e-01,9.60600e-01,9.99993e-01
6.392486160e-01,9.60708e-01,9.99999e-01,9.99320e-01,9.61363e-01,9.99996e-01
6.424448591e-01,9.61325e-01,9.99999e-01,9.99185e-01,9.62112e-01,9.99995e-01
6.456570834e-01,9.58832e-01,9.99999e-01,9.95853e-01,9.62846e-01,9.99976e-01
6.488853688e-01,9.59997e-01,9.99999e-01,9.96360e-01,9.63566e-01,9.99934e-01
6.521297956e-01,9.61177e-01,9.99999e-01,9.96843e-01,9.64273e-01,9.99944e-01
6.553904446e-01,9.61921e-01,9.99999e-01,9.96884e-01,9.64966e-01,9.99958e-01
6.586673968e-01,9.63031e-01,9.99999e-01,9.97304e-01,9.65646e-01,9.99986e-01
6.619607338e-01,9.64805e-01,9.99999e-01,9.98441e-01,9.66313e-01,9.99996e-01
6.652705375e-01,9.66091e-01,9.99999e-01,9.99094e-01,9.66967e-01,9.99998e-01
6.685968902e-01,9.67202e-01,9.99999e-01,9.99579e-01,9.67609e-01,9.99999e-01
6.719398746e-01,9.68050e-01,9.99999e-01,9.99804e-01,9.68238e-01,9.99999e-01
6.752995740e-01,9.68754e-01,9.99999e-01,9.99894e-01,9.68856e-01,9.99999e-01
6.786760719e-01,9.69316e-01,9.99999e-01,9.99849e-01,9.69462e-01,9.99999e-01
6.820694522e-01,9.69804e-01,9.99999e-01,9.99741e-01,9.70056e-01,9.99998e-01
6.854797995e-01,9.70312e-01,9.99999e-01,9.99666e-01,9.70638e-01,9.99996e-01
6.889071985e-01,9.70433e-01,9.99999e-01,9.99206e-01,9.71210e-01,9.99992e-01
6.923517345e-01,9.59025e-01,9.99999e-01,9.86945e-01,9.71770e-01,9.99936e-01
6.958134932e-01,9.65419e-01,9.99999e-01,9.93043e-01,9.72320e-01,9.99856e-01
6.992925606e-01,9.66444e-01,9.99999e-01,9.93530e-01,9.72859e-01,9.99873e-01
7.027890234e-01,9.65456e-01,9.99999e-01,9.91945e-01,9.73388e-01,9.99903e-01
7.063029686e-01,9.67270e-01,9.99999e-01,9.93231e-01,9.73907e-01,9.99951e-01
7.098344834e-01,9.68060e-01,9.99999e-01,9.93505e-01,9.74416e-01,9.99971e-01
7.133836558e-01,9.66552e-01,9.99999e-01,9.91477e-01,9.74915e-01,9.99943e-01
7.169505741e-01,9.09662e-01,9.99999e-01,9.33013e-01,9.75404e-01,9.99555e-01
7.205353270e-01,9.41924e-01,9.99999e-01,9.65956e-01,9.75884e-01,9.99216e-01
7.241380036e-01,9.34382e-01,9.99999e-01,9.57662e-01,9.76355e-01,9.99318e-01
7.277586936e-01,9.38852e-01,9.99999e-01,9.61678e-01,9.76816e-01,9.99433e-01
7.313974871e-01,9.36959e-01,9.99999e-01,9.59000e-01,9.77269e-01,9.99740e-01
7.350544745e-01,9.55573e-01,9.99999e-01,9.77442e-01,9.77713e-01,9.99909e-01
7.387297469e-01,9.61812e-01,9.99999e-01,9.83338e-01,9.78148e-01,9.99958e-01
7.424233956e-01,9.70537e-01,9.99999e-01,9.91793e-01,9.78575e-01,9.99991e-01
7.461355126e-01,9.74127e-01,9.99999e-01,9.95029e-01,9.78994e-01,9.99998e-01
7.498661902e-01,9.77129e-01,9.99999e-01,9.97676e-01,9.79404e-01,9.99999e-01
7.536155211e-01,9.78694e-01,9.99999e-01,9.98863e-01,9.79807e-01,9.99999e-01
7.573835987e-01,9.79628e-01,9.99999e-01,9.99414e-01,9.80202e-01,9.99999e-01
7.611705167e-01,9.80233e-01,9.99999e-01,9.99635e-01,9.80589e-01,9.99999e-01
7.649763693e-01,9.80746e-01,9.99999e-01,9.99772e-01,9.80969e-01,9.99999e-01
7.688012511e-01,9.81186e-01,9.99999e-01,9.99841e-01,9.81341e-01,9.99999e-01
7.726452574e-01,9.81579e-01,9.99999e-01,9.99869e-01,9.81706e-01,9.99999e-01
7.765084837e-01,9.81884e-01,9.99999e-01,9.99816e-01,9.82064e-01,9.99999e-01
7.803910261e-01,9.81638e-01,9.99999e-01,9.99209e-01,9.82416e-01,9.99998e-01
7.842929812e-01,9.80045e-01,9.99999e-01,9.97242e-01,9.82760e-01,9.99994e-01
7.882144461e-01,9.77430e-01,9.99999e-01,9.94269e-01,9.83097e-01,9.99964e-01
7.921555184e-01,9.80252e-01,9.99999e-01,9.96836e-01,9.83429e-01,9.99931e-01
7.961162960e-01,9.78262e-01,9.99999e-01,9.94482e-01,9.83753e-01,9.99934e-01
8.000968774e-01,9.77695e-01,9.99999e-01,9.93588e-01,9.84072e-01,9.99930e-01
8.040973618e-01,9.78028e-01,9.99999e-01,9.93597e-01,9.84384e-01,9.99944e-01
8.081178486e-01,9.70584e-01,9.99999e-01,9.85725e-01,9.84690e-01,9.99948e-01
8.121584379e-01,9.27359e-01,9.99999e-01,9.41681e-01,9.84990e-01,9.99796e-01
8.162192301e-01,9.16015e-01,9.99999e-01,9.30403e-01,9.85284e-01,9.99238e-01
8.203003262e-01,9.50684e-01,9.99999e-01,9.65460e-01,9.85573e-01,9.99107e-01
8.244018279e-01,9.36679e-01,9.99999e-01,9.50791e-01,9.85856e-01,9.99289e-01
8.285238370e-01,9.44342e-01,9.99999e-01,9.58154e-01,9.86133e-01,9.99442e-01
8.326664562e-01,9.44289e-01,9.99999e-01,9.57523e-01,9.86405e-01,9.99769e-01
8.368297885e-01,9.56437e-01,9.99999e-01,9.69407e-01,9.86672e-01,9.99946e-01
8.410139374e-01,9.68847e-01,9.99999e-01,9.81703e-01,9.86933e-01,9.99968e-01
8.452190071e-01,9.78266e-01,9.99999e-01,9.90977e-01,9.87190e-01,9.99981e-01
8.494451021e-01,9.82271e-01,9.99999e-01,9.94778e-01,9.87441e-01,9.99984e-01
8.536923276e-01,9.84614e-01,9.99999e-01,9.96897e-01,9.87688e-01,9.99989e-01
8.579607893e-01,9.86045e-01,9.99999e-01,9.98095e-01,9.87929e-01,9.99996e-01
8.622505932e-01,9.86967e-01,9.99999e-01,9.98786e-01,9.88166e-01,9.99999e-01
8.665618462e-01,9.87660e-01,9.99999e-01,9.99252e-01,9.88399e-01,9.99999e-01
8.708946554e-01,9.87782e-01,9.99999e-01,9.99145e-01,9.88627e-01,9.99999e-01
8.752491287e-01,9.87718e-01,9.99999e-01,9.98856e-01,9.88850e-01,9.99998e-01
8.796253743e-01,9.87505e-01,9.99999e-01,9.98422e-01,9.89069e-01,9.99995e-01
8.840235012e-01,9.87489e-01,9.99999e-01,9.98196e-01,9.89284e-01,9.99988e-01
8.884436187e-01,9.83098e-01,9.99999e-01,9.93566e-01,9.89494e-01,9.99968e-01
8.928858368e-01,9.23542e-01,9.99999e-01,9.33320e-01,9.89701e-01,9.99818e-01
8.973502660e-01,8.74235e-01,9.99999e-01,8.83970e-01,9.89903e-01,9.99073e-01
9.018370173e-01,9.27871e-01,9.99999e-01,9.38513e-01,9.90101e-01,9.98543e-01
9.063462024e-01,9.36197e-01,9.99999e-01,9.46580e-01,9.90296e-01,9.98720e-01
9.108779334e-01,9.07553e-01,9.99999e-01,9.17488e-01,9.90487e-01,9.98670e-01
9.154323231e-01,8.97122e-01,9.99999e-01,9.06563e-01,9.90674e-01,9.98900e-01
9.200094847e-01,9.16859e-01,9.99999e-01,9.25887e-01,9.90857e-01,9.99384e-01
9.246095321e-01,8.80978e-01,9.99999e-01,8.89575e-01,9.91037e-01,9.99290e-01
9.292325798e-01,4.51955e-01,9.99999e-01,4.57224e-01,9.91213e-01,9.97238e-01
9.338787427e-01,3.54115e-01,9.99999e-01,3.61298e-01,9.91386e-01,9.88635e-01
9.385481364e-01,6.47751e-01,9.99999e-01,6.62208e-01,9.91555e-01,9.86497e-01
9.432408771e-01,5.59526e-01,9.99999e-01,5.70852e-01,9.91721e-01,9.88340e-01
9.479570815e-01,4.55476e-01,9.99999e-01,4.63606e-01,9.91884e-01,9.90500e-01
9.526968669e-01,5.48023e-01,9.99999e-01,5.55642e-01,9.92044e-01,9.94194e-01
9.574603512e-01,5.72090e-01,9.99999e-01,5.78294e-01,9.92200e-01,9.97046e-01
9.622476530e-01,6.31981e-01,9.99999e-01,6.38153e-01,9.92354e-01,9.97956e-01
9.670588912e-01,7.64934e-01,9.99999e-01,7.71789e-01,9.92504e-01,9.98602e-01
9.718941857e-01,8.42844e-01,9.99999e-01,8.49956e-01,9.92652e-01,9.98970e-01
9.767536566e-01,8.66791e-01,9.99999e-01,8.73766e-01,9.92796e-01,9.99213e-01
9.816374249e-01,8.97880e-01,9.99999e-01,9.04511e-01,9.92938e-01,9.99727e-01
9.865456120e-01,9.32620e-01,9.99999e-01,9.39174e-01,9.93077e-01,9.99942e-01
9.914783401e-01,9.55427e-01,9.99999e-01,9.61970e-01,9.93213e-01,9.99983e-01
9.964357318e-01,9.72580e-01,9.99999e-01,9.79102e-01,9.93347e-01,9.99990e-01
1.001417910e+00,9.80967e-01,9.99999e-01,9.87419e-01,9.93478e-01,9.99985e-01
1.006425000e+00,9.86460e-01,9.99999e-01,9.92826e-01,9.93606e-01,9.99979e-01
1.011457125e+00,9.89271e-01,9.99999e-01,9.95528e-01,9.93732e-01,9.99980e-01
1.016514411e+00,9.90830e-01,9.99999e-01,9.96968e-01,9.93856e-01,9.99986e-01
1.021596983e+00,9.91564e-01,9.99999e-01,9.97585e-01,9.93977e-01,9.99986e-01
1.026704968e+00,9.92216e-01,9.99999e-01,9.98117e-01,9.94095e-01,9.99990e-01
1.031838492e+00,9.92846e-01,9.99999e-01,9.98628e-01,9.94211e-01,9.99997e-01
1.036997685e+00,9.93517e-01,9.99999e-01,9.99187e-01,9.94325e-01,9.99999e-01
1.042182673e+00,9.93477e-01,9.99999e-01,9.99034e-01,9.94437e-01,9.99999e-01
1.047393587e+00,9.93271e-01,9.99999e-01,9.98717e-01,9.94547e-01,9.99999e-01
1.052630555e+00,9.92906e-01,9.99999e-01,9.98242e-01,9.94654e-01,9.99999e-01
1.057893707e+00,9.91847e-01,9.99999e-01,9.97072e-01,9.94759e-01,9.99998e-01
1.063183176e+00,9.90066e-01,9.99999e-01,9.95180e-01,9.94863e-01,9.99996e-01
1.068499092e+00,9.86929e-01,9.99999e-01,9.91929e-01,9.94964e-01,9.99994e-01
1.073841587e+00,9.85679e-01,9.99999e-01,9.90580e-01,9.95063e-01,9.99987e-01
1.079210795e+00,9.83086e-01,9.99999e-01,9.87898e-01,9.95160e-01,9.99967e-01
1.084606849e+00,9.77039e-01,9.99999e-01,9.81772e-01,9.95256e-01,9.99921e-01
1.090029883e+00,9.69401e-01,9.99999e-01,9.74087e-01,9.95349e-01,9.99838e-01
1.095480033e+00,9.26302e-01,9.99999e-01,9.30816e-01,9.95441e-01,9.99707e-01
1.100957433e+00,8.29627e-01,9.99999e-01,8.33799e-01,9.95531e-01,9.99462e-01
1.106462220e+00,6.29842e-01,9.99999e-01,6.33190e-01,9.95619e-01,9.99088e-01
1.111994531e+00,3.81058e-01,9.99999e-01,3.83628e-01,9.95705e-01,9.97582e-01
1.117554504e+00,2.12236e-01,9.99999e-01,2.15003e-01,9.95790e-01,9.91298e-01
1.123142276e+00,3.22232e-01,9.99999e-01,3.30342e-01,9.95873e-01,9.79489e-01
1.128757988e+00,4.71703e-01,9.99999e-01,4.85110e-01,9.95954e-01,9.76311e-01
1.134401778e+00,2.38088e-01,9.99999e-01,2.44076e-01,9.96034e-01,9.79348e-01
1.140073787e+00,6.32406e-01,9.99999e-01,6.45579e-01,9.96112e-01,9.83417e-01
1.145774156e+00,3.99180e-01,9.99999e-01,4.06726e-01,9.96189e-01,9.85201e-01
1.151503026e+00,3.65445e-01,9.99999e-01,3.69874e-01,9.96264e-01,9.91728e-01
1.157260541e+00,4.24751e-01,9.99999e-01,4.27372e-01,9.96337e-01,9.97519e-01
1.163046844e+00,5.29142e-01,9.99999e-01,5.31422e-01,9.96410e-01,9.99295e-01
1.168862078e+00,6.39638e-01,9.99999e-01,6.42130e-01,9.96480e-01,9.99637e-01
1.174706389e+00,7.57800e-01,9.99999e-01,7.60788e-01,9.96550e-01,9.99519e-01
1.180579921e+00,8.42870e-01,9.99999e-01,8.46345e-01,9.96618e-01,9.99273e-01
1.186482820e+00,9.06319e-01,9.99999e-01,9.10012e-01,9.96684e-01,9.99253e-01
1.192415234e+00,9.42884e-01,9.99999e-01,9.46486e-01,9.96750e-01,9.99441e-01
1.198377311e+00,9.51257e-01,9.99999e-01,9.54800e-01,9.96814e-01,9.99472e-01
1.204369197e+00,9.53712e-01,9.99999e-01,9.57156e-01,9.96877e-01,9.99522e-01
1.210391043e+00,9.55753e-01,9.99999e-01,9.58965e-01,9.96938e-01,9.99709e-01
1.216442998e+00,9.61836e-01,9.99999e-01,9.64902e-01,9.96999e-01,9.99821e-01
1.222525213e+00,9.69622e-01,9.99999e-01,9.72590e-01,9.97058e-01,9.99889e-01
1.228637839e+00,9.78024e-01,9.99999e-01,9.80902e-01,9.97116e-01,9.99948e-01
1.234781029e+00,9.82967e-01,9.99999e-01,9.85767e-01,9.97173e-01,9.99984e-01
1.240954934e+00,9.88238e-01,9.99999e-01,9.90988e-01,9.97228e-01,9.99995e-01
1.247159708e+00,9.90269e-01,9.99999e-01,9.92969e-01,9.97283e-01,9.99996e-01
1.253395507e+00,9.91116e-01,9.99999e-01,9.93766e-01,9.97337e-01,9.99996e-01
1.259662485e+00,9.91538e-01,9.99999e-01,9.94138e-01,9.97389e-01,9.99994e-01
1.265960797e+00,9.88048e-01,9.99999e-01,9.90592e-01,9.97441e-01,9.99990e-01
1.272290601e+00,9.83698e-01,9.99999e-01,9.86187e-01,9.97491e-01,9.99983e-01
1.278652054e+00,9.68599e-01,9.99999e-01,9.71014e-01,9.97541e-01,9.99970e-01
1.285045314e+00,9.52515e-01,9.99999e-01,9.54867e-01,9.97589e-01,9.99945e-01
1.291470541e+00,9.08890e-01,9.99999e-01,9.11128e-01,9.97637e-01,9.99905e-01
1.297927893e+00,8.83372e-01,9.99999e-01,8.85578e-01,9.97683e-01,9.99824e-01
1.304417533e+00,8.52643e-01,9.99999e-01,8.54901e-01,9.97729e-01,9.99628e-01
1.310939621e+00,8.34052e-01,9.99999e-01,8.36550e-01,9.97774e-01,9.99237e-01
1.317494319e+00,8.19839e-01,9.99999e-01,8.22791e-01,9.97818e-01,9.98589e-01
1.324081790e+00,7.45115e-01,9.99999e-01,7.48434e-01,9.97861e-01,9.97698e-01
1.330702199e+00,3.51281e-01,9.99999e-01,3.53420e-01,9.97903e-01,9.96035e-01
1.337355710e+00,5.98627e-02,9.99999e-01,6.04466e-02,9.97944e-01,9.92378e-01
1.344042489e+00,2.40510e-03,9.99999e-01,2.46612e-03,9.97985e-01,9.77221e-01
1.350762701e+00,9.07777e-07,9.99999e-01,9.84234e-07,9.98025e-01,9.24142e-01
1.357516515e+00,1.61457e-09,9.99999e-01,2.03913e-09,9.98063e-01,7.93325e-01
1.364304097e+00,2.21011e-06,9.99999e-01,3.32244e-06,9.98102e-01,6.66471e-01
1.371125618e+00,1.59631e-04,9.99999e-01,2.34458e-04,9.98139e-01,6.82120e-01
1.377981246e+00,5.18469e-04,9.99999e-01,7.20988e-04,9.98176e-01,7.20421e-01
1.384871152e+00,7.28356e-06,9.99999e-01,9.93703e-06,9.98212e-01,7.34283e-01
1.391795508e+00,3.11669e-06,9.99999e-01,4.18243e-06,9.98247e-01,7.46494e-01
1.398754485e+00,3.22189e-05,9.99999e-01,4.10532e-05,9.98282e-01,7.86157e-01
1.405748258e+00,3.58930e-05,9.99999e-01,4.13833e-05,9.98316e-01,8.68791e-01
1.412776999e+00,3.56800e-05,9.99999e-01,3.81094e-05,9.98349e-01,9.37800e-01
1.419840884e+00,7.44628e-05,9.99999e-01,7.67133e-05,9.98381e-01,9.72234e-01
1.426940089e+00,6.31934e-04,9.99999e-01,6.46623e-04,9.98413e-01,9.78834e-01
1.434074789e+00,3.38960e-03,9.99999e-01,3.48167e-03,9.98445e-01,9.75072e-01
1.441245163e+00,1.08352e-02,9.99999e-01,1.11525e-02,9.98475e-01,9.73027e-01
1.448451389e+00,4.16942e-02,9.99999e-01,4.27683e-02,9.98505e-01,9.76343e-01
1.455693646e+00,1.15086e-01,9.99999e-01,1.17422e-01,9.98535e-01,9.81543e-01
1.462972114e+00,1.52569e-01,9.99999e-01,1.55527e-01,9.98564e-01,9.82390e-01
1.470286975e+00,1.12720e-01,9.99999e-01,1.14867e-01,9.98592e-01,9.82687e-01
