#,Wave/freq,Total,N2,H2O,Rayleigh,CIA
4.000000000e-01,6.81746e-01,9.99999e-01,9.99956e-01,6.81775e-01,9.99999e-01
4.020000000e-01,6.86940e-01,9.99999e-01,9.99972e-01,6.86959e-01,9.99999e-01
4.040100000e-01,6.92065e-01,9.99999e-01,9.99988e-01,6.92072e-01,9.99999e-01
4.060300500e-01,6.97120e-01,9.99999e-01,9.99996e-01,6.97122e-01,9.99999e-01
4.080602003e-01,7.02108e-01,9.99999e-01,9.99998e-01,7.02108e-01,9.99999e-01
4.101005013e-01,7.07030e-01,9.99999e-01,9.99999e-01,7.07030e-01,9.99999e-01
4.121510038e-01,7.11887e-01,9.99999e-01,9.99997e-01,7.11888e-01,9.99999e-01
4.142117588e-01,7.16675e-01,9.99999e-01,9.99987e-01,7.16683e-01,9.99999e-01
4.162828176e-01,7.21376e-01,9.99999e-01,9.99945e-01,7.21414e-01,9.99999e-01
4.183642317e-01,7.26059e-01,9.99999e-01,9.99967e-01,7.26082e-01,9.99999e-01
4.204560528e-01,7.30673e-01,9.99999e-01,9.99979e-01,7.30688e-01,9.99999e-01
4.225583331e-01,7.35225e-01,9.99999e-01,9.99992e-01,7.35230e-01,9.99999e-01
4.246711247e-01,7.39706e-01,9.99999e-01,9.99993e-01,7.39711e-01,9.99999e-01
4.267944804e-01,7.44123e-01,9.99999e-01,9.99990e-01,7.44129e-01,9.99999e-01
4.289284528e-01,7.48481e-01,9.99999e-01,9.99992e-01,7.48486e-01,9.99999e-01
4.310730950e-01,7.52779e-01,9.99999e-01,9.99996e-01,7.52781e-01,9.99999e-01
4.332284605e-01,7.57015e-01,9.99999e-01,9.99998e-01,7.57015e-01,9.99999e-01
4.353946028e-01,7.61189e-01,9.99999e-01,9.99999e-01,7.61189e-01,9.99999e-01
4.375715758e-01,7.65299e-01,9.99999e-01,9.99994e-01,7.65303e-01,9.99999e-01
4.397594337e-01,7.69322e-01,9.99999e-01,9.99953e-01,7.69357e-01,9.99999e-01
4.419582309e-01,7.73171e-01,9.99999e-01,9.99764e-01,7.73352e-01,9.99999e-01
4.441680220e-01,7.77143e-01,9.99999e-01,9.99811e-01,7.77288e-01,9.99999e-01
4.463888621e-01,7.81015e-01,9.99999e-01,9.99805e-01,7.81166e-01,9.99999e-01
4.486208064e-01,7.84891e-01,9.99999e-01,9.99878e-01,7.84986e-01,9.99999e-01
4.508639105e-01,7.88704e-01,9.99999e-01,9.99942e-01,7.88749e-01,9.99999e-01
4.531182300e-01,7.92437e-01,9.99999e-01,9.99977e-01,7.92455e-01,9.99999e-01
4.553838212e-01,7.96092e-01,9.99999e-01,9.99984e-01,7.96104e-01,9.99999e-01
4.576607403e-01,7.99692e-01,9.99999e-01,9.99992e-01,7.99698e-01,9.99999e-01
4.599490440e-01,8.03233e-01,9.99999e-01,9.99994e-01,8.03237e-01,9.99999e-01
4.622487892e-01,8.06720e-01,9.99999e-01,9.99998e-01,8.06720e-01,9.99999e-01
4.645600332e-01,8.10147e-01,9.99999e-01,9.99996e-01,8.10150e-01,9.99999e-01
4.668828333e-01,8.13480e-01,9.99999e-01,9.99942e-01,8.13526e-01,9.99999e-01
4.692172475e-01,8.16750e-01,9.99999e-01,9.99877e-01,8.16849e-01,9.99999e-01
4.715633337e-01,8.20055e-01,9.99999e-01,9.99920e-01,8.20120e-01,9.99999e-01
4.739211504e-01,8.23276e-01,9.99999e-01,9.99923e-01,8.23338e-01,9.99999e-01
4.762907561e-01,8.26473e-01,9.99999e-01,9.99959e-01,8.26506e-01,9.99999e-01
4.786722099e-01,8.29609e-01,9.99999e-01,9.99983e-01,8.29623e-01,9.99999e-01
4.810655710e-01,8.32685e-01,9.99999e-01,9.99994e-01,8.32689e-01,9.99999e-01
4.834708988e-01,8.35668e-01,9.99999e-01,9.99954e-01,8.35706e-01,9.99999e-01
4.858882533e-01,8.38601e-01,9.99999e-01,9.99913e-01,8.38674e-01,9.99999e-01
4.883176946e-01,8.41533e-01,9.99999e-01,9.99927e-01,8.41593e-01,9.99999e-01
4.907592831e-01,8.44410e-01,9.99999e-01,9.99934e-01,8.44465e-01,9.99999e-01
4.932130795e-01,8.47250e-01,9.99999e-01,9.99953e-01,8.47290e-01,9.99999e-01
4.956791449e-01,8.50047e-01,9.99999e-01,9.99975e-01,8.50068e-01,9.99999e-01
4.981575406e-01,8.52696e-01,9.99999e-01,9.99877e-01,8.52799e-01,9.99999e-01
5.006483283e-01,8.55216e-01,9.99999e-01,9.99686e-01,8.55486e-01,9.99997e-01
5.031515699e-01,8.56738e-01,9.99999e-01,9.98397e-01,8.58127e-01,9.99982e-01
5.056673278e-01,8.59978e-01,9.99999e-01,9.99150e-01,8.60725e-01,9.99980e-01
5.081956644e-01,8.62343e-01,9.99999e-01,9.98928e-01,8.63278e-01,9.99987e-01
5.107366428e-01,8.65160e-01,9.99999e-01,9.99275e-01,8.65789e-01,9.99997e-01
5.132903260e-01,8.67897e-01,9.99999e-01,9.99585e-01,8.68257e-01,9.99999e-01
5.158567776e-01,8.70531e-01,9.99999e-01,9.99824e-01,8.70683e-01,9.99999e-01
5.184360615e-01,8.73007e-01,9.99999e-01,9.99929e-01,8.73068e-01,9.99999e-01
5.210282418e-01,8.75389e-01,9.99999e-01,9.99973e-01,8.75412e-01,9.99999e-01
5.236333830e-01,8.77623e-01,9.99999e-01,9.99894e-01,8.77716e-01,9.99998e-01
5.262515499e-01,8.79922e-01,9.99999e-01,9.99933e-01,8.79980e-01,9.99998e-01
5.288828077e-01,8.82152e-01,9.99999e-01,9.99939e-01,8.82205e-01,9.99998e-01
5.315272217e-01,8.84345e-01,9.99999e-01,9.99946e-01,8.84392e-01,9.99999e-01
5.341848578e-01,8.86510e-01,9.99999e-01,9.99965e-01,8.86541e-01,9.99999e-01
5.368557821e-01,8.88544e-01,9.99999e-01,9.99878e-01,8.88652e-01,9.99999e-01
5.395400610e-01,8.90336e-01,9.99999e-01,9.99564e-01,8.90727e-01,9.99995e-01
5.422377613e-01,8.92247e-01,9.99999e-01,9.99429e-01,8.92765e-01,9.99989e-01
5.449489501e-01,8.94287e-01,9.99999e-01,9.99473e-01,8.94767e-01,9.99988e-01
5.476736949e-01,8.96308e-01,9.99999e-01,9.99529e-01,8.96735e-01,9.99994e-01
5.504120634e-01,8.98360e-01,9.99999e-01,9.99658e-01,8.98667e-01,9.99998e-01
5.531641237e-01,9.00411e-01,9.99999e-01,9.99827e-01,9.00566e-01,9.99999e-01
5.559299443e-01,9.02356e-01,9.99999e-01,9.99916e-01,9.02431e-01,9.99999e-01
5.587095940e-01,9.04216e-01,9.99999e-01,9.99947e-01,9.04263e-01,9.99999e-01
5.615031420e-01,9.06010e-01,9.99999e-01,9.99941e-01,9.06062e-01,9.99999e-01
5.643106577e-01,9.07770e-01,9.99999e-01,9.99935e-01,9.07829e-01,9.99999e-01
5.671322110e-01,9.08851e-01,9.99999e-01,9.99220e-01,9.09565e-01,9.99993e-01
5.699678720e-01,9.10473e-01,9.99999e-01,9.99147e-01,9.11269e-01,9.99977e-01
5.728177114e-01,9.12126e-01,9.99999e-01,9.99122e-01,9.12943e-01,9.99981e-01
5.756818000e-01,9.13839e-01,9.99999e-01,9.99192e-01,9.14587e-01,9.99988e-01
5.785602090e-01,9.15553e-01,9.99999e-01,9.99294e-01,9.16202e-01,9.99996e-01
5.814530100e-01,9.17137e-01,9.99999e-01,9.99293e-01,9.17787e-01,9.99998e-01
5.843602750e-01,9.18571e-01,9.99999e-01,9.99164e-01,9.19343e-01,9.99994e-01
5.872820764e-01,9.14204e-01,9.99999e-01,9.92810e-01,9.20872e-01,9.99948e-01
5.902184868e-01,9.14138e-01,9.99999e-01,9.91209e-01,9.22372e-01,9.99860e-01
5.931695792e-01,9.17998e-01,9.99999e-01,9.93804e-01,9.23846e-01,9.99864e-01
5.961354271e-01,9.18919e-01,9.99999e-01,9.93193e-01,9.25292e-01,9.99917e-01
5.991161043e-01,9.22082e-01,9.99999e-01,9.95026e-01,9.26712e-01,9.99975e-01
6.021116848e-01,9.25479e-01,9.99999e-01,9.97171e-01,9.28107e-01,9.99996e-01
6.051222432e-01,9.28144e-01,9.99999e-01,9.98567e-01,9.29475e-01,9.99999e-01
6.081478544e-01,9.30245e-01,9.99999e-01,9.99382e-01,9.30819e-01,9.99999e-01
6.111885937e-01,9.31894e-01,9.99999e-01,9.99737e-01,9.32138e-01,9.99999e-01
6.142445367e-01,9.33324e-01,9.99999e-01,9.99882e-01,9.33433e-01,9.99999e-01
6.173157594e-01,9.34644e-01,9.99999e-01,9.99935e-01,9.34704e-01,9.99999e-01
6.204023382e-01,9.35901e-01,9.99999e-01,9.99945e-01,9.35951e-01,9.99999e-01
6.235043498e-01,9.36955e-01,9.99999e-01,9.99764e-01,9.37176e-01,9.99998e-01
6.266218716e-01,9.37183e-01,9.99999e-01,9.98735e-01,9.38378e-01,9.99990e-01
6.297549810e-01,9.39105e-01,9.99999e-01,9.99535e-01,9.39557e-01,9.99981e-01
6.329037559e-01,9.39837e-01,9.99999e-01,9.99080e-01,9.40715e-01,9.99985e-01
6.360682746e-01,9.41110e-01,9.99999e-01,9.99220e-01,9.41851e-01,9.99991e-01
6.392486160e-01,9.42009e-01,9.99999e-01,9.98987e-01,9.42966e-01,9.99995e-01
6.424448591e-01,9.42910e-01,9.99999e-01,9.98786e-01,9.44061e-01,9.99993e-01
6.456570834e-01,9.39260e-01,9.99999e-01,9.93817e-01,9.45135e-01,9.99964e-01
6.488853688e-01,9.40978e-01,9.99999e-01,9.94589e-01,9.46189e-01,9.99902e-01
6.521297956e-01,9.42697e-01,9.99999e-01,9.95302e-01,9.47223e-01,9.99917e-01
6.553904446e-01,9.43782e-01,9.99999e-01,9.95360e-01,9.48238e-01,9.99938e-01
6.586673968e-01,9.45408e-01,9.99999e-01,9.95988e-01,9.49234e-01,9.99979e-01
6.619607338e-01,9.48004e-01,9.99999e-01,9.97680e-01,9.50212e-01,9.99995e-01
6.652705375e-01,9.49887e-01,9.99999e-01,9.98652e-01,9.51171e-01,9.99997e-01
6.685968902e-01,9.51516e-01,9.99999e-01,9.99374e-01,9.52112e-01,9.99999e-01
6.719398746e-01,9.52758e-01,9.99999e-01,9.99709e-01,9.53035e-01,9.99999e-01
6.752995740e-01,9.53792e-01,9.99999e-01,9.99843e-01,9.53941e-01,9.99999e-01
6.786760719e-01,9.54615e-01,9.99999e-01,9.99775e-01,9.54830e-01,9.99999e-01
6.820694522e-01,9.55332e-01,9.99999e-01,9.99614e-01,9.55702e-01,9.99997e-01
6.854797995e-01,9.56079e-01,9.99999e-01,9.99503e-01,9.56558e-01,9.99995e-01
6.889071985e-01,9.56253e-01,9.99999e-01,9.98815e-01,9.57397e-01,9.99988e-01
6.923517345e-01,9.39551e-01,9.99999e-01,9.80607e-01,9.58221e-01,9.99905e-01
6.958134932e-01,9.48924e-01,9.99999e-01,9.89673e-01,9.59029e-01,9.99786e-01
6.992925606e-01,9.50401e-01,9.99999e-01,9.90369e-01,9.59822e-01,9.99812e-01
7.027890234e-01,9.48963e-01,9.99999e-01,9.88027e-01,9.60599e-01,9.99855e-01
7.063029686e-01,9.51617e-01,9.99999e-01,9.89932e-01,9.61362e-01,9.99928e-01
7.098344834e-01,9.52775e-01,9.99999e-01,9.90338e-01,9.62111e-01,9.99957e-01
7.133836558e-01,9.50552e-01,9.99999e-01,9.87314e-01,9.62845e-01,9.99915e-01
7.169505741e-01,8.68755e-01,9.99999e-01,9.02200e-01,9.63566e-01,9.99338e-01
7.205353270e-01,9.14932e-01,9.99999e-01,9.49939e-01,9.64272e-01,9.98833e-01
7.241380036e-01,9.03943e-01,9.99999e-01,9.37712e-01,9.64965e-01,9.98984e-01
7.277586936e-01,9.10391e-01,9.99999e-01,9.43574e-01,9.65645e-01,9.99156e-01
7.313974871e-01,9.07652e-01,9.99999e-01,9.39656e-01,9.66312e-01,9.99613e-01
7.350544745e-01,9.34563e-01,9.99999e-01,9.66618e-01,9.66967e-01,9.99865e-01
7.387297469e-01,9.43647e-01,9.99999e-01,9.75295e-01,9.67608e-01,9.99938e-01
7.424233956e-01,9.56421e-01,9.99999e-01,9.87806e-01,9.68238e-01,9.99987e-01
7.461355126e-01,9.61691e-01,9.99999e-01,9.92606e-01,9.68855e-01,9.99997e-01
7.498661902e-01,9.66109e-01,9.99999e-01,9.96542e-01,9.69461e-01,9.99998e-01
7.536155211e-01,9.68414e-01,9.99999e-01,9.98307e-01,9.70055e-01,9.99999e-01
7.573835987e-01,9.69792e-01,9.99999e-01,9.99127e-01,9.70638e-01,9.99999e-01
7.611705167e-01,9.70684e-01,9.99999e-01,9.99458e-01,9.71209e-01,9.99999e-01
7.649763693e-01,9.71441e-01,9.99999e-01,9.99660e-01,9.71770e-01,9.99999e-01
7.688012511e-01,9.72091e-01,9.99999e-01,9.99763e-01,9.72320e-01,9.99999e-01
7.726452574e-01,9.72671e-01,9.99999e-01,9.99805e-01,9.72859e-01,9.99999e-01
7.765084837e-01,9.73122e-01,9.99999e-01,9.99726e-01,9.73388e-01,9.99999e-01
7.803910261e-01,9.72757e-01,9.99999e-01,9.98820e-01,9.73907e-01,9.99998e-01
7.842929812e-01,9.70403e-01,9.99999e-01,9.95889e-01,9.74415e-01,9.99991e-01
7.882144461e-01,9.66552e-01,9.99999e-01,9.91473e-01,9.74914e-01,9.99947e-01
7.921555184e-01,9.70715e-01,9.99999e-01,9.95293e-01,9.75404e-01,9.99898e-01
7.961162960e-01,9.67774e-01,9.99999e-01,9.91785e-01,9.75884e-01,9.99902e-01
8.000968774e-01,9.66941e-01,9.99999e-01,9.90460e-01,9.76354e-01,9.99896e-01
8.040973618e-01,9.67430e-01,9.99999e-01,9.90472e-01,9.76816e-01,9.99917e-01
8.081178486e-01,9.56476e-01,9.99999e-01,9.78798e-01,9.77269e-01,9.99922e-01
8.121584379e-01,8.93880e-01,9.99999e-01,9.14532e-01,9.77712e-01,9.99697e-01
8.162192301e-01,8.77853e-01,9.99999e-01,8.98483e-01,9.78148e-01,9.98865e-01
8.203003262e-01,9.27749e-01,9.99999e-01,9.49322e-01,9.78575e-01,9.98671e-01
8.244018279e-01,9.08028e-01,9.99999e-01,9.28493e-01,9.78993e-01,9.98942e-01
8.285238370e-01,9.18306e-01,9.99999e-01,9.38395e-01,9.79404e-01,9.99169e-01
8.326664562e-01,9.18293e-01,9.99999e-01,9.37539e-01,9.79807e-01,9.99656e-01
8.368297885e-01,9.35843e-01,9.99999e-01,9.54819e-01,9.80202e-01,9.99921e-01
8.410139374e-01,9.53958e-01,9.99999e-01,9.72885e-01,9.80589e-01,9.99953e-01
8.452190071e-01,9.67794e-01,9.99999e-01,9.86596e-01,9.80969e-01,9.99972e-01
8.494451021e-01,9.73695e-01,9.99999e-01,9.92230e-01,9.81341e-01,9.99977e-01
8.536923276e-01,9.77160e-01,9.99999e-01,9.95383e-01,9.81706e-01,9.99984e-01
8.579607893e-01,9.79275e-01,9.99999e-01,9.97163e-01,9.82064e-01,9.99995e-01
8.622505932e-01,9.80640e-01,9.99999e-01,9.98193e-01,9.82415e-01,9.99998e-01
8.665618462e-01,9.81665e-01,9.99999e-01,9.98885e-01,9.82760e-01,9.99999e-01
8.708946554e-01,9.81846e-01,9.99999e-01,9.98727e-01,9.83097e-01,9.99998e-01
8.752491287e-01,9.81752e-01,9.99999e-01,9.98296e-01,9.83428e-01,9.99997e-01
8.796253743e-01,9.81435e-01,9.99999e-01,9.97648e-01,9.83753e-01,9.99994e-01
8.840235012e-01,9.81411e-01,9.99999e-01,9.97312e-01,9.84071e-01,9.99983e-01
8.884436187e-01,9.74898e-01,9.99999e-01,9.90410e-01,9.84383e-01,9.99952e-01
8.928858368e-01,8.88549e-01,9.99999e-01,9.02607e-01,9.84689e-01,9.99730e-01
8.973502660e-01,8.19434e-01,9.99999e-01,8.33070e-01,9.84990e-01,9.98619e-01
9.018370173e-01,8.95053e-01,9.99999e-01,9.10395e-01,9.85284e-01,9.97830e-01
9.063462024e-01,9.06726e-01,9.99999e-01,9.21755e-01,9.85572e-01,9.98093e-01
9.108779334e-01,8.65971e-01,9.99999e-01,8.80138e-01,9.85855e-01,9.98019e-01
9.154323231e-01,8.51157e-01,9.99999e-01,8.64541e-01,9.86133e-01,9.98362e-01
9.200094847e-01,8.79229e-01,9.99999e-01,8.92164e-01,9.86405e-01,9.99083e-01
9.246095321e-01,8.29807e-01,9.99999e-01,8.41905e-01,9.86672e-01,9.98943e-01
9.292325798e-01,3.18355e-01,9.99999e-01,3.23901e-01,9.86933e-01,9.95887e-01
9.338787427e-01,2.24427e-01,9.99999e-01,2.31245e-01,9.87189e-01,9.83111e-01
9.385481364e-01,5.33869e-01,9.99999e-01,5.51723e-01,9.87441e-01,9.79945e-01
9.432408771e-01,4.36386e-01,9.99999e-01,4.49615e-01,9.87687e-01,9.82674e-01
9.479570815e-01,3.24902e-01,9.99999e-01,3.33583e-01,9.87929e-01,9.85876e-01
9.526968669e-01,4.20241e-01,9.99999e-01,4.28978e-01,9.88166e-01,9.91361e-01
9.574603512e-01,4.42613e-01,9.99999e-01,4.49786e-01,9.88399e-01,9.95602e-01
9.622476530e-01,5.10050e-01,9.99999e-01,5.17492e-01,9.88626e-01,9.96956e-01
9.670588912e-01,6.74037e-01,9.99999e-01,6.83059e-01,9.88850e-01,9.97917e-01
9.718941857e-01,7.75926e-01,9.99999e-01,7.85705e-01,9.89069e-01,9.98466e-01
9.767536566e-01,8.08757e-01,9.99999e-01,8.18476e-01,9.89283e-01,9.98827e-01
9.816374249e-01,8.52032e-01,9.99999e-01,8.61427e-01,9.89494e-01,9.99593e-01
9.865456120e-01,9.01407e-01,9.99999e-01,9.10864e-01,9.89700e-01,9.99915e-01
9.914783401e-01,9.34353e-01,9.99999e-01,9.43905e-01,9.89903e-01,9.99976e-01
9.964357318e-01,9.59437e-01,9.99999e-01,9.69041e-01,9.90101e-01,9.99985e-01
1.001417910e+00,9.71779e-01,9.99999e-01,9.81321e-01,9.90296e-01,9.99978e-01
1.006425000e+00,9.79891e-01,9.99999e-01,9.89331e-01,9.90487e-01,9.99969e-01
1.011457125e+00,9.84057e-01,9.99999e-01,9.93348e-01,9.90674e-01,9.99971e-01
1.016514411e+00,9.86366e-01,9.99999e-01,9.95486e-01,9.90857e-01,9.99980e-01
1.021596983e+00,9.87455e-01,9.99999e-01,9.96404e-01,9.91037e-01,9.99979e-01
1.026704968e+00,9.88422e-01,9.99999e-01,9.97196e-01,9.91213e-01,9.99986e-01
1.031838492e+00,9.89358e-01,9.99999e-01,9.97957e-01,9.91386e-01,9.99995e-01
1.036997685e+00,9.90354e-01,9.99999e-01,9.98789e-01,9.91555e-01,9.99998e-01
1.042182673e+00,9.90295e-01,9.99999e-01,9.98561e-01,9.91721e-01,9.99999e-01
1.047393587e+00,9.89989e-01,9.99999e-01,9.98089e-01,9.91884e-01,9.99999e-01
1.052630555e+00,9.89446e-01,9.99999e-01,9.97382e-01,9.92044e-01,9.99998e-01
1.057893707e+00,9.87873e-01,9.99999e-01,9.95639e-01,9.92200e-01,9.99998e-01
1.063183176e+00,9.85231e-01,9.99999e-01,9.92825e-01,9.92354e-01,9.99995e-01
1.068499092e+00,9.80585e-01,9.99999e-01,9.87998e-01,9.92504e-01,9.99991e-01
1.073841587e+00,9.78737e-01,9.99999e-01,9.85999e-01,9.92652e-01,9.99981e-01
1.079210795e+00,9.74908e-01,9.99999e-01,9.82028e-01,9.92796e-01,9.99951e-01
1.084606849e+00,9.65991e-01,9.99999e-01,9.72973e-01,9.92938e-01,9.99883e-01
1.090029883e+00,9.54761e-01,9.99999e-01,9.61648e-01,9.93077e-01,9.99758e-01
1.095480033e+00,8.92282e-01,9.99999e-01,8.98769e-01,9.93213e-01,9.99564e-01
1.100957433e+00,7.57919e-01,9.99999e-01,7.63606e-01,9.93347e-01,9.99198e-01
1.106462220e+00,5.07227e-01,9.99999e-01,5.11251e-01,9.93478e-01,9.98641e-01
1.111994531e+00,2.45412e-01,9.99999e-01,2.47884e-01,9.93606e-01,9.96399e-01
1.117554504e+00,1.07026e-01,9.99999e-01,1.09112e-01,9.93732e-01,9.87061e-01
1.123142276e+00,2.02046e-01,9.99999e-01,2.09671e-01,9.93856e-01,9.69589e-01
1.128757988e+00,3.36834e-01,9.99999e-01,3.51200e-01,9.93977e-01,9.64904e-01
1.134401778e+00,1.55073e-01,9.99999e-01,1.60921e-01,9.94095e-01,9.69381e-01
1.140073787e+00,5.10530e-01,9.99999e-01,5.26459e-01,9.94211e-01,9.75389e-01
1.145774156e+00,2.66846e-01,9.99999e-01,2.74397e-01,9.94325e-01,9.78027e-01
1.151503026e+00,2.36139e-01,9.99999e-01,2.40417e-01,9.94437e-01,9.87699e-01
1.157260541e+00,2.85634e-01,9.99999e-01,2.88265e-01,9.94547e-01,9.96305e-01
1.163046844e+00,3.92942e-01,9.99999e-01,3.95468e-01,9.94654e-01,9.98951e-01
1.168862078e+00,5.16007e-01,9.99999e-01,5.19006e-01,9.94759e-01,9.99459e-01
1.174706389e+00,6.62978e-01,9.99999e-01,6.66878e-01,9.94863e-01,9.99283e-01
1.180579921e+00,7.75869e-01,9.99999e-01,7.80640e-01,9.94964e-01,9.98917e-01
1.186482820e+00,8.63850e-01,9.99999e-01,8.69101e-01,9.95063e-01,9.98888e-01
1.192415234e+00,9.16134e-01,9.99999e-01,9.21355e-01,9.95160e-01,9.99167e-01
1.198377311e+00,9.28269e-01,9.99999e-01,9.33427e-01,9.95256e-01,9.99213e-01
1.204369197e+00,9.31906e-01,9.99999e-01,9.36926e-01,9.95349e-01,9.99288e-01
1.210391043e+00,9.34841e-01,9.99999e-01,9.39529e-01,9.95441e-01,9.99566e-01
1.216442998e+00,9.43729e-01,9.99999e-01,9.48216e-01,9.95531e-01,9.99734e-01
1.222525213e+00,9.55093e-01,9.99999e-01,9.59453e-01,9.95619e-01,9.99834e-01
1.228637839e+00,9.67439e-01,9.99999e-01,9.71685e-01,9.95705e-01,9.99922e-01
1.234781029e+00,9.74734e-01,9.99999e-01,9.78876e-01,9.95790e-01,9.99977e-01
1.240954934e+00,9.82527e-01,9.99999e-01,9.86605e-01,9.95873e-01,9.99993e-01
1.247159708e+00,9.85538e-01,9.99999e-01,9.89545e-01,9.95954e-01,9.99995e-01
1.253395507e+00,9.86792e-01,9.99999e-01,9.90726e-01,9.96034e-01,9.99994e-01
1.259662485e+00,9.87415e-01,9.99999e-01,9.91277e-01,9.96112e-01,9.99991e-01
1.265960797e+00,9.82242e-01,9.99999e-01,9.86013e-01,9.96189e-01,9.99985e-01
1.272290601e+00,9.75799e-01,9.99999e-01,9.79481e-01,9.96264e-01,9.99975e-01
1.278652054e+00,9.53591e-01,9.99999e-01,9.57137e-01,9.96337e-01,9.99956e-01
1.285045314e+00,9.30128e-01,9.99999e-01,9.33553e-01,9.96409e-01,9.99919e-01
1.291470541e+00,8.67544e-01,9.99999e-01,8.70729e-01,9.96480e-01,9.99859e-01
1.297927893e+00,8.31830e-01,9.99999e-01,8.34927e-01,9.96550e-01,9.99738e-01
1.304417533e+00,7.89551e-01,9.99999e-01,7.92669e-01,9.96618e-01,9.99446e-01
1.310939621e+00,7.64104e-01,9.99999e-01,7.67517e-01,9.96684e-01,9.98863e-01
1.317494319e+00,7.45194e-01,9.99999e-01,7.49197e-01,9.96750e-01,9.97899e-01
1.324081790e+00,6.48146e-01,9.99999e-01,6.52453e-01,9.96814e-01,9.96572e-01
1.330702199e+00,2.42015e-01,9.99999e-01,2.44214e-01,9.96877e-01,9.94097e-01
1.337355710e+00,1.86588e-02,9.99999e-01,1.89306e-02,9.96938e-01,9.88664e-01
1.344042489e+00,5.28103e-04,9.99999e-01,5.48197e-04,9.96999e-01,9.66244e-01
1.350762701e+00,2.99186e-09,9.99999e-01,3.37503e-09,9.97058e-01,8.89083e-01
1.357516515e+00,2.17920e-13,9.99999e-01,3.08598e-13,9.97116e-01,7.08203e-01
1.364304097e+00,9.95555e-09,9.99999e-01,1.82770e-08,9.97173e-01,5.46248e-01
1.371125618e+00,6.07918e-06,9.99999e-01,1.07805e-05,9.97228e-01,5.65472e-01
1.377981246e+00,2.23392e-05,9.99999e-01,3.65157e-05,9.97283e-01,6.13435e-01
1.384871152e+00,1.15049e-07,9.99999e-01,1.82784e-07,9.97337e-01,6.31108e-01
1.391795508e+00,1.26133e-08,9.99999e-01,1.95517e-08,9.97389e-01,6.46812e-01
1.398754485e+00,4.93180e-07,9.99999e-01,7.07676e-07,9.97441e-01,6.98688e-01
1.405748258e+00,6.36819e-07,9.99999e-01,7.87295e-07,9.97491e-01,8.10902e-01
1.412776999e+00,6.81723e-07,9.99999e-01,7.52036e-07,9.97541e-01,9.08736e-01
1.419840884e+00,1.52722e-06,9.99999e-01,1.59651e-06,9.97589e-01,9.58906e-01
1.426940089e+00,4.87036e-05,9.99999e-01,5.04003e-05,9.97637e-01,9.68623e-01
1.434074789e+00,3.62155e-04,9.99999e-01,3.76911e-04,9.97683e-01,9.63079e-01
1.441245163e+00,1.61039e-03,9.99999e-01,1.68118e-03,9.97729e-01,9.60072e-01
1.448451389e+00,1.14776e-02,9.99999e-01,1.19210e-02,9.97774e-01,9.64951e-01
1.455693646e+00,4.66751e-02,9.99999e-01,4.80939e-02,9.97818e-01,9.72620e-01
1.462972114e+00,6.64466e-02,9.99999e-01,6.83755e-02,9.97861e-01,9.73870e-01
1.470286975e+00,4.34074e-02,9.99999e-01,4.46455e-02,9.97903e-01,9.74310e-01
