#,Wave/freq,Total,N2,H2O,Rayleigh,CIA
4.000000000e-01,5.62187e-01,9.99999e-01,9.99934e-01,5.62223e-01,9.99999e-01
4.020000000e-01,5.68638e-01,9.99999e-01,9.99959e-01,5.68661e-01,9.99999e-01
4.040100000e-01,5.75027e-01,9.99999e-01,9.99982e-01,5.75037e-01,9.99999e-01
4.060300500e-01,5.81354e-01,9.99999e-01,9.99995e-01,5.81356e-01,9.99999e-01
4.080602003e-01,5.87617e-01,9.99999e-01,9.99998e-01,5.87618e-01,9.99999e-01
4.101005013e-01,5.93822e-01,9.99999e-01,9.99999e-01,5.93822e-01,9.99999e-01
4.121510038e-01,5.99965e-01,9.99999e-01,9.99997e-01,5.99966e-01,9.99999e-01
4.142117588e-01,6.06040e-01,9.99999e-01,9.99981e-01,6.06051e-01,9.99999e-01
4.162828176e-01,6.12027e-01,9.99999e-01,9.99919e-01,6.12076e-01,9.99999e-01
4.183642317e-01,6.18010e-01,9.99999e-01,9.99951e-01,6.18040e-01,9.99999e-01
4.204560528e-01,6.23924e-01,9.99999e-01,9.99970e-01,6.23942e-01,9.99999e-01
4.225583331e-01,6.29776e-01,9.99999e-01,9.99988e-01,6.29783e-01,9.99999e-01
4.246711247e-01,6.35556e-01,9.99999e-01,9.99990e-01,6.35561e-01,9.99999e-01
4.267944804e-01,6.41269e-01,9.99999e-01,9.99986e-01,6.41277e-01,9.99999e-01
4.289284528e-01,6.46923e-01,9.99999e-01,9.99989e-01,6.46929e-01,9.99999e-01
4.310730950e-01,6.52516e-01,9.99999e-01,9.99995e-01,6.52519e-01,9.99999e-01
4.332284605e-01,6.58044e-01,9.99999e-01,9.99998e-01,6.58044e-01,9.99999e-01
4.353946028e-01,6.63506e-01,9.99999e-01,9.99999e-01,6.63506e-01,9.99999e-01
4.375715758e-01,6.68899e-01,9.99999e-01,9.99991e-01,6.68904e-01,9.99999e-01
4.397594337e-01,6.74190e-01,9.99999e-01,9.99927e-01,6.74238e-01,9.99999e-01
4.419582309e-01,6.79260e-01,9.99999e-01,9.99633e-01,6.79508e-01,9.99999e-01
4.441680220e-01,6.84524e-01,9.99999e-01,9.99722e-01,6.84714e-01,9.99999e-01
4.463888621e-01,6.89655e-01,9.99999e-01,9.99708e-01,6.89856e-01,9.99999e-01
4.486208064e-01,6.94809e-01,9.99999e-01,9.99819e-01,6.94934e-01,9.99999e-01
4.508639105e-01,6.99888e-01,9.99999e-01,9.99915e-01,6.99947e-01,9.99999e-01
4.531182300e-01,7.04874e-01,9.99999e-01,9.99966e-01,7.04897e-01,9.99999e-01
4.553838212e-01,7.09767e-01,9.99999e-01,9.99976e-01,7.09783e-01,9.99999e-01
4.576607403e-01,7.14598e-01,9.99999e-01,9.99989e-01,7.14605e-01,9.99999e-01
4.599490440e-01,7.19359e-01,9.99999e-01,9.99992e-01,7.19364e-01,9.99999e-01
4.622487892e-01,7.24059e-01,9.99999e-01,9.99998e-01,7.24060e-01,9.99999e-01
4.645600332e-01,7.28688e-01,9.99999e-01,9.99994e-01,7.28692e-01,9.99999e-01
4.668828333e-01,7.33199e-01,9.99999e-01,9.99913e-01,7.33262e-01,9.99999e-01
4.692172475e-01,7.37635e-01,9.99999e-01,9.99817e-01,7.37770e-01,9.99999e-01
4.715633337e-01,7.42126e-01,9.99999e-01,9.99879e-01,7.42215e-01,9.99999e-01
4.739211504e-01,7.46513e-01,9.99999e-01,9.99885e-01,7.46598e-01,9.99999e-01
4.762907561e-01,7.50876e-01,9.99999e-01,9.99940e-01,7.50920e-01,9.99999e-01
4.786722099e-01,7.55163e-01,9.99999e-01,9.99975e-01,7.55181e-01,9.99999e-01
4.810655710e-01,7.59376e-01,9.99999e-01,9.99992e-01,7.59381e-01,9.99999e-01
4.834708988e-01,7.63466e-01,9.99999e-01,9.99927e-01,7.63521e-01,9.99999e-01
4.858882533e-01,7.67502e-01,9.99999e-01,9.99870e-01,7.67601e-01,9.99999e-01
4.883176946e-01,7.71538e-01,9.99999e-01,9.99890e-01,7.71622e-01,9.99999e-01
4.907592831e-01,7.75508e-01,9.99999e-01,9.99902e-01,7.75583e-01,9.99999e-01
4.932130795e-01,7.79433e-01,9.99999e-01,9.99930e-01,7.79487e-01,9.99999e-01
4.956791449e-01,7.83303e-01,9.99999e-01,9.99962e-01,7.83332e-01,9.99999e-01
4.981575406e-01,7.86974e-01,9.99999e-01,9.99814e-01,7.87119e-01,9.99999e-01
5.006483283e-01,7.90465e-01,9.99999e-01,9.99516e-01,7.90850e-01,9.99996e-01
5.031515699e-01,7.92581e-01,9.99999e-01,9.97579e-01,7.94524e-01,9.99974e-01
5.056673278e-01,7.97104e-01,9.99999e-01,9.98727e-01,7.98142e-01,9.99970e-01
5.081956644e-01,8.00405e-01,9.99999e-01,9.98396e-01,8.01704e-01,9.99981e-01
5.107366428e-01,8.04338e-01,9.99999e-01,9.98918e-01,8.05212e-01,9.99996e-01
5.132903260e-01,8.08166e-01,9.99999e-01,9.99382e-01,8.08665e-01,9.99999e-01
5.158567776e-01,8.11853e-01,9.99999e-01,9.99739e-01,8.12064e-01,9.99999e-01
5.184360615e-01,8.15325e-01,9.99999e-01,9.99895e-01,8.15410e-01,9.99999e-01
5.210282418e-01,8.18671e-01,9.99999e-01,9.99960e-01,8.18704e-01,9.99999e-01
5.236333830e-01,8.21815e-01,9.99999e-01,9.99842e-01,8.21945e-01,9.99998e-01
5.262515499e-01,8.25052e-01,9.99999e-01,9.99901e-01,8.25134e-01,9.99997e-01
5.288828077e-01,8.28197e-01,9.99999e-01,9.99908e-01,8.28273e-01,9.99998e-01
5.315272217e-01,8.31296e-01,9.99999e-01,9.99920e-01,8.31361e-01,9.99999e-01
5.341848578e-01,8.34356e-01,9.99999e-01,9.99947e-01,8.34400e-01,9.99999e-01
5.368557821e-01,8.37234e-01,9.99999e-01,9.99814e-01,8.37389e-01,9.99999e-01
5.395400610e-01,8.39759e-01,9.99999e-01,9.99327e-01,8.40329e-01,9.99993e-01
5.422377613e-01,8.42491e-01,9.99999e-01,9.99148e-01,8.43222e-01,9.99983e-01
5.449489501e-01,8.45377e-01,9.99999e-01,9.99199e-01,8.46067e-01,9.99983e-01
5.476736949e-01,8.48264e-01,9.99999e-01,9.99299e-01,8.48865e-01,9.99991e-01
5.504120634e-01,8.51182e-01,9.99999e-01,9.99491e-01,8.51617e-01,9.99997e-01
5.531641237e-01,8.54104e-01,9.99999e-01,9.99743e-01,8.54323e-01,9.99999e-01
5.559299443e-01,8.56878e-01,9.99999e-01,9.99876e-01,8.56984e-01,9.99999e-01
5.587095940e-01,8.59534e-01,9.99999e-01,9.99921e-01,8.59600e-01,9.99999e-01
5.615031420e-01,8.62098e-01,9.99999e-01,9.99912e-01,8.62173e-01,9.99999e-01
5.643106577e-01,8.64615e-01,9.99999e-01,9.99899e-01,8.64702e-01,9.99998e-01
5.671322110e-01,8.66119e-01,9.99999e-01,9.98776e-01,8.67189e-01,9.99988e-01
5.699678720e-01,8.68514e-01,9.99999e-01,9.98745e-01,8.69633e-01,9.99967e-01
5.728177114e-01,8.70856e-01,9.99999e-01,9.98673e-01,8.72036e-01,9.99972e-01
5.756818000e-01,8.73323e-01,9.99999e-01,9.98786e-01,8.74397e-01,9.99983e-01
5.785602090e-01,8.75790e-01,9.99999e-01,9.98944e-01,8.76719e-01,9.99995e-01
5.814530100e-01,8.78064e-01,9.99999e-01,9.98936e-01,8.79000e-01,9.99997e-01
5.843602750e-01,8.80109e-01,9.99999e-01,9.98720e-01,8.81242e-01,9.99992e-01
5.872820764e-01,8.73697e-01,9.99999e-01,9.89041e-01,8.83445e-01,9.99922e-01
5.902184868e-01,8.73807e-01,9.99999e-01,9.86877e-01,8.85611e-01,9.99790e-01
5.931695792e-01,8.79291e-01,9.99999e-01,9.90683e-01,8.87738e-01,9.99798e-01
5.961354271e-01,8.80666e-01,9.99999e-01,9.89816e-01,8.89829e-01,9.99884e-01
5.991161043e-01,8.85228e-01,9.99999e-01,9.92573e-01,8.91883e-01,9.99963e-01
6.021116848e-01,8.90131e-01,9.99999e-01,9.95786e-01,8.93901e-01,9.99995e-01
6.051222432e-01,8.93973e-01,9.99999e-01,9.97867e-01,8.95883e-01,9.99999e-01
6.081478544e-01,8.97004e-01,9.99999e-01,9.99078e-01,8.97831e-01,9.99999e-01
6.111885937e-01,8.99395e-01,9.99999e-01,9.99611e-01,8.99744e-01,9.99999e-01
6.142445367e-01,9.01467e-01,9.99999e-01,9.99825e-01,9.01624e-01,9.99999e-01
6.173157594e-01,9.03383e-01,9.99999e-01,9.99903e-01,9.03470e-01,9.99999e-01
6.204023382e-01,9.05209e-01,9.99999e-01,9.99917e-01,9.05283e-01,9.99999e-01
6.235043498e-01,9.06730e-01,9.99999e-01,9.99631e-01,9.07064e-01,9.99998e-01
6.266218716e-01,9.07072e-01,9.99999e-01,9.98095e-01,9.08814e-01,9.99986e-01
6.297549810e-01,9.09871e-01,9.99999e-01,9.99301e-01,9.10532e-01,9.99972e-01
6.329037559e-01,9.10945e-01,9.99999e-01,9.98624e-01,9.12219e-01,9.99978e-01
6.360682746e-01,9.12788e-01,9.99999e-01,9.98821e-01,9.13876e-01,9.99986e-01
6.392486160e-01,9.14105e-01,9.99999e-01,9.98477e-01,9.15503e-01,9.99993e-01
6.424448591e-01,9.15204e-01,9.99999e-01,9.97941e-01,9.17101e-01,9.99989e-01
6.456570834e-01,9.09870e-01,9.99999e-01,9.90477e-01,9.18670e-01,9.99942e-01
6.488853688e-01,9.13749e-01,9.99999e-01,9.93122e-01,9.20210e-01,9.99852e-01
6.521297956e-01,9.15155e-01,9.99999e-01,9.92994e-01,9.21723e-01,9.99878e-01
6.553904446e-01,9.16642e-01,9.99999e-01,9.92976e-01,9.23208e-01,9.99909e-01
6.586673968e-01,9.19108e-01,9.99999e-01,9.94018e-01,9.24666e-01,9.99969e-01
6.619607338e-01,9.23003e-01,9.99999e-01,9.96663e-01,9.26098e-01,9.99993e-01
6.652705375e-01,9.25643e-01,9.99999e-01,9.97996e-01,9.27503e-01,9.99996e-01
6.685968902e-01,9.28093e-01,9.99999e-01,9.99149e-01,9.28883e-01,9.99998e-01
6.719398746e-01,9.29837e-01,9.99999e-01,9.99568e-01,9.30238e-01,9.99999e-01
6.752995740e-01,9.31355e-01,9.99999e-01,9.99771e-01,9.31567e-01,9.99999e-01
6.786760719e-01,9.32553e-01,9.99999e-01,9.99657e-01,9.32873e-01,9.99999e-01
6.820694522e-01,9.33603e-01,9.99999e-01,9.99412e-01,9.34154e-01,9.99996e-01
6.854797995e-01,9.34704e-01,9.99999e-01,9.99249e-01,9.35412e-01,9.99993e-01
6.889071985e-01,9.34354e-01,9.99999e-01,9.97568e-01,9.36646e-01,9.99983e-01
6.923517345e-01,9.10024e-01,9.99999e-01,9.70459e-01,9.37858e-01,9.99857e-01
6.958134932e-01,9.24689e-01,9.99999e-01,9.85018e-01,9.39047e-01,9.99685e-01
6.992925606e-01,9.26181e-01,9.99999e-01,9.85353e-01,9.40214e-01,9.99716e-01
7.027890234e-01,9.24341e-01,9.99999e-01,9.82133e-01,9.41360e-01,9.99783e-01
7.063029686e-01,9.28185e-01,9.99999e-01,9.84933e-01,9.42484e-01,9.99892e-01
7.098344834e-01,9.29882e-01,9.99999e-01,9.85537e-01,9.43587e-01,9.99935e-01
7.133836558e-01,9.26121e-01,9.99999e-01,9.80487e-01,9.44670e-01,9.99873e-01
7.169505741e-01,8.08627e-01,9.99999e-01,8.55876e-01,9.45733e-01,9.99005e-01
7.205353270e-01,8.77171e-01,9.99999e-01,9.28109e-01,9.46776e-01,9.98246e-01
7.241380036e-01,8.58940e-01,9.99999e-01,9.07620e-01,9.47799e-01,9.98485e-01
7.277586936e-01,8.68398e-01,9.99999e-01,9.16390e-01,9.48803e-01,9.98761e-01
7.313974871e-01,8.65518e-01,9.99999e-01,9.11802e-01,9.49789e-01,9.99419e-01
7.350544745e-01,9.03636e-01,9.99999e-01,9.50631e-01,9.50756e-01,9.99798e-01
7.387297469e-01,9.16802e-01,9.99999e-01,9.63415e-01,9.51704e-01,9.99907e-01
7.424233956e-01,9.35449e-01,9.99999e-01,9.81973e-01,9.52635e-01,9.99983e-01
7.461355126e-01,9.43072e-01,9.99999e-01,9.89014e-01,9.53549e-01,9.99996e-01
7.498661902e-01,9.49568e-01,9.99999e-01,9.94890e-01,9.54445e-01,9.99998e-01
7.536155211e-01,9.52918e-01,9.99999e-01,9.97480e-01,9.55325e-01,9.99998e-01
7.573835987e-01,9.54948e-01,9.99999e-01,9.98703e-01,9.56187e-01,9.99999e-01
7.611705167e-01,9.56263e-01,9.99999e-01,9.99193e-01,9.57034e-01,9.99999e-01
7.649763693e-01,9.57380e-01,9.99999e-01,9.99493e-01,9.57864e-01,9.99999e-01
7.688012511e-01,9.58341e-01,9.99999e-01,9.99646e-01,9.58679e-01,9.99999e-01
7.726452574e-01,9.59200e-01,9.99999e-01,9.99708e-01,9.59479e-01,9.99999e-01
7.765084837e-01,9.59862e-01,9.99999e-01,9.99582e-01,9.60263e-01,9.99998e-01
7.803910261e-01,9.59295e-01,9.99999e-01,9.98193e-01,9.61032e-01,9.99997e-01
7.842929812e-01,9.55722e-01,9.99999e-01,9.93705e-01,9.61787e-01,9.99988e-01
7.882144461e-01,9.50136e-01,9.99999e-01,9.87212e-01,9.62528e-01,9.99911e-01
7.921555184e-01,9.56383e-01,9.99999e-01,9.93018e-01,9.63254e-01,9.99846e-01
7.961162960e-01,9.51785e-01,9.99999e-01,9.87506e-01,9.63967e-01,9.99853e-01
8.000968774e-01,9.50707e-01,9.99999e-01,9.85682e-01,9.64666e-01,9.99844e-01
8.040973618e-01,9.51391e-01,9.99999e-01,9.85654e-01,9.65351e-01,9.99881e-01
8.081178486e-01,9.34762e-01,9.99999e-01,9.67753e-01,9.66024e-01,9.99879e-01
8.121584379e-01,8.43716e-01,9.99999e-01,8.73189e-01,9.66684e-01,9.99545e-01
8.162192301e-01,8.24115e-01,9.99999e-01,8.53403e-01,9.67331e-01,9.98293e-01
8.203003262e-01,8.92249e-01,9.99999e-01,9.23620e-01,9.67966e-01,9.98002e-01
8.244018279e-01,8.69148e-01,9.99999e-01,8.98763e-01,9.68588e-01,9.98410e-01
8.285238370e-01,8.79545e-01,9.99999e-01,9.08630e-01,9.69199e-01,9.98750e-01
8.326664562e-01,8.80405e-01,9.99999e-01,9.08291e-01,9.69798e-01,9.99483e-01
8.368297885e-01,9.05729e-01,9.99999e-01,9.33479e-01,9.70386e-01,9.99881e-01
8.410139374e-01,9.31975e-01,9.99999e-01,9.59912e-01,9.70962e-01,9.99930e-01
8.452190071e-01,9.52214e-01,9.99999e-01,9.80160e-01,9.71528e-01,9.99958e-01
8.494451021e-01,9.60757e-01,9.99999e-01,9.88382e-01,9.72082e-01,9.99966e-01
8.536923276e-01,9.65938e-01,9.99999e-01,9.93143e-01,9.72626e-01,9.99979e-01
8.579607893e-01,9.69026e-01,9.99999e-01,9.95756e-01,9.73159e-01,9.99994e-01
8.622505932e-01,9.71063e-01,9.99999e-01,9.97310e-01,9.73682e-01,9.99998e-01
8.665618462e-01,9.72566e-01,9.99999e-01,9.98327e-01,9.74195e-01,9.99999e-01
8.708946554e-01,9.72827e-01,9.99999e-01,9.98080e-01,9.74698e-01,9.99998e-01
8.752491287e-01,9.72689e-01,9.99999e-01,9.97435e-01,9.75192e-01,9.99996e-01
8.796253743e-01,9.72190e-01,9.99999e-01,9.96434e-01,9.75676e-01,9.99991e-01
8.840235012e-01,9.72158e-01,9.99999e-01,9.95933e-01,9.76151e-01,9.99974e-01
8.884436187e-01,9.61834e-01,9.99999e-01,9.84932e-01,9.76616e-01,9.99929e-01
8.928858368e-01,8.35692e-01,9.99999e-01,8.55648e-01,9.77073e-01,9.99594e-01
8.973502660e-01,7.43750e-01,9.99999e-01,7.62434e-01,9.77520e-01,9.97925e-01
9.018370173e-01,8.50022e-01,9.99999e-01,8.72021e-01,9.77959e-01,9.96739e-01
9.063462024e-01,8.62163e-01,9.99999e-01,8.83736e-01,9.78390e-01,9.97135e-01
9.108779334e-01,8.05991e-01,9.99999e-01,8.25895e-01,9.78812e-01,9.97023e-01
9.154323231e-01,7.85933e-01,9.99999e-01,8.04584e-01,9.79226e-01,9.97539e-01
9.200094847e-01,8.25983e-01,9.99999e-01,8.44318e-01,9.79633e-01,9.98621e-01
9.246095321e-01,7.52648e-01,9.99999e-01,7.69204e-01,9.80031e-01,9.98412e-01
9.292325798e-01,1.90733e-01,9.99999e-01,1.96040e-01,9.80421e-01,9.92358e-01
9.338787427e-01,1.19235e-01,9.99999e-01,1.24986e-01,9.80804e-01,9.72653e-01
9.385481364e-01,4.08110e-01,9.99999e-01,4.28803e-01,9.81180e-01,9.69995e-01
9.432408771e-01,3.03158e-01,9.99999e-01,3.17082e-01,9.81548e-01,9.74060e-01
9.479570815e-01,1.97326e-01,9.99999e-01,2.05306e-01,9.81909e-01,9.78837e-01
9.526968669e-01,2.85906e-01,9.99999e-01,2.94890e-01,9.82263e-01,9.87038e-01
9.574603512e-01,3.04827e-01,9.99999e-01,3.12283e-01,9.82611e-01,9.93394e-01
9.622476530e-01,3.74784e-01,9.99999e-01,3.83035e-01,9.82951e-01,9.95427e-01
9.670588912e-01,5.60096e-01,9.99999e-01,5.71329e-01,9.83285e-01,9.97001e-01
9.718941857e-01,6.84927e-01,9.99999e-01,6.97941e-01,9.83613e-01,9.97702e-01
9.767536566e-01,7.28267e-01,9.99999e-01,7.41464e-01,9.83934e-01,9.98238e-01
9.816374249e-01,7.87820e-01,9.99999e-01,8.00915e-01,9.84248e-01,9.99389e-01
9.865456120e-01,8.56633e-01,9.99999e-01,8.70179e-01,9.84557e-01,9.99872e-01
9.914783401e-01,9.03499e-01,9.99999e-01,9.17420e-01,9.84860e-01,9.99964e-01
9.964357318e-01,9.39968e-01,9.99999e-01,9.54149e-01,9.85157e-01,9.99978e-01
1.001417910e+00,9.58093e-01,9.99999e-01,9.72271e-01,9.85448e-01,9.99968e-01
1.006425000e+00,9.69966e-01,9.99999e-01,9.84047e-01,9.85733e-01,9.99954e-01
1.011457125e+00,9.76215e-01,9.99999e-01,9.90103e-01,9.86013e-01,9.99957e-01
1.016514411e+00,9.79610e-01,9.99999e-01,9.93258e-01,9.86287e-01,9.99970e-01
1.021596983e+00,9.81220e-01,9.99999e-01,9.94619e-01,9.86556e-01,9.99970e-01
1.026704968e+00,9.82657e-01,9.99999e-01,9.95798e-01,9.86820e-01,9.99981e-01
1.031838492e+00,9.84066e-01,9.99999e-01,9.96953e-01,9.87079e-01,9.99994e-01
1.036997685e+00,9.85539e-01,9.99999e-01,9.98184e-01,9.87332e-01,9.99998e-01
1.042182673e+00,9.85433e-01,9.99999e-01,9.97825e-01,9.87581e-01,9.99999e-01
1.047393587e+00,9.84983e-01,9.99999e-01,9.97123e-01,9.87825e-01,9.99998e-01
1.052630555e+00,9.84158e-01,9.99999e-01,9.96048e-01,9.88064e-01,9.99998e-01
1.057893707e+00,9.81771e-01,9.99999e-01,9.93397e-01,9.88298e-01,9.99997e-01
1.063183176e+00,9.77820e-01,9.99999e-01,9.89173e-01,9.88528e-01,9.99993e-01
1.068499092e+00,9.70918e-01,9.99999e-01,9.81973e-01,9.88753e-01,9.99987e-01
1.073841587e+00,9.68082e-01,9.99999e-01,9.78901e-01,9.88974e-01,9.99972e-01
1.079210795e+00,9.62553e-01,9.99999e-01,9.73141e-01,9.89191e-01,9.99927e-01
1.084606849e+00,9.49226e-01,9.99999e-01,9.59559e-01,9.89403e-01,9.99825e-01
1.090029883e+00,9.31927e-01,9.99999e-01,9.42050e-01,9.89611e-01,9.99637e-01
1.095480033e+00,8.41233e-01,9.99999e-01,8.50444e-01,9.89815e-01,9.99345e-01
1.100957433e+00,6.58005e-01,9.99999e-01,6.65441e-01,9.90015e-01,9.98795e-01
1.106462220e+00,3.63621e-01,9.99999e-01,3.67967e-01,9.90212e-01,9.97958e-01
1.111994531e+00,1.28172e-01,9.99999e-01,1.30118e-01,9.90404e-01,9.94590e-01
1.117554504e+00,3.99479e-02,9.99999e-01,4.11248e-02,9.90593e-01,9.80606e-01
1.123142276e+00,1.06957e-01,9.99999e-01,1.13084e-01,9.90778e-01,9.54621e-01
1.128757988e+00,2.05415e-01,9.99999e-01,2.18729e-01,9.90959e-01,9.47693e-01
1.134401778e+00,9.47836e-02,9.99999e-01,1.00101e-01,9.91137e-01,9.55345e-01
1.140073787e+00,3.70109e-01,9.99999e-01,3.87231e-01,9.91311e-01,9.64158e-01
1.145774156e+00,1.50649e-01,9.99999e-01,1.57105e-01,9.91482e-01,9.67142e-01
1.151503026e+00,1.25612e-01,9.99999e-01,1.29049e-01,9.91649e-01,9.81559e-01
1.157260541e+00,1.58809e-01,9.99999e-01,1.61013e-01,9.91814e-01,9.94450e-01
1.163046844e+00,2.54449e-01,9.99999e-01,2.56912e-01,9.91975e-01,9.98423e-01
1.168862078e+00,3.75645e-01,9.99999e-01,3.78935e-01,9.92133e-01,9.99178e-01
1.174706389e+00,5.43365e-01,9.99999e-01,5.48208e-01,9.92287e-01,9.98868e-01
1.180579921e+00,6.85851e-01,9.99999e-01,6.92202e-01,9.92439e-01,9.98372e-01
1.186482820e+00,8.03601e-01,9.99999e-01,8.10955e-01,9.92588e-01,9.98329e-01
1.192415234e+00,8.76951e-01,9.99999e-01,8.84475e-01,9.92734e-01,9.98748e-01
1.198377311e+00,8.94056e-01,9.99999e-01,9.01540e-01,9.92877e-01,9.98812e-01
1.204369197e+00,8.99663e-01,9.99999e-01,9.06927e-01,9.93017e-01,9.98965e-01
1.210391043e+00,9.03860e-01,9.99999e-01,9.10682e-01,9.93154e-01,9.99349e-01
1.216442998e+00,9.17136e-01,9.99999e-01,9.23700e-01,9.93289e-01,9.99601e-01
1.222525213e+00,9.33511e-01,9.99999e-01,9.39925e-01,9.93421e-01,9.99752e-01
1.228637839e+00,9.51556e-01,9.99999e-01,9.57842e-01,9.93551e-01,9.99884e-01
1.234781029e+00,9.62422e-01,9.99999e-01,9.68577e-01,9.93678e-01,9.99966e-01
1.240954934e+00,9.73907e-01,9.99999e-01,9.79989e-01,9.93802e-01,9.99990e-01
1.247159708e+00,9.78412e-01,9.99999e-01,9.84397e-01,9.93924e-01,9.99993e-01
1.253395507e+00,9.80230e-01,9.99999e-01,9.86110e-01,9.94044e-01,9.99991e-01
1.259662485e+00,9.80990e-01,9.99999e-01,9.86762e-01,9.94161e-01,9.99987e-01
1.265960797e+00,9.73372e-01,9.99999e-01,9.78995e-01,9.94276e-01,9.99979e-01
1.272290601e+00,9.61609e-01,9.99999e-01,9.67069e-01,9.94389e-01,9.99963e-01
1.278652054e+00,9.30545e-01,9.99999e-01,9.35751e-01,9.94499e-01,9.99935e-01
1.285045314e+00,8.81788e-01,9.99999e-01,8.86674e-01,9.94608e-01,9.99879e-01
1.291470541e+00,8.06677e-01,9.99999e-01,8.11134e-01,9.94714e-01,9.99789e-01
1.297927893e+00,7.39258e-01,9.99999e-01,7.43400e-01,9.94818e-01,9.99606e-01
1.304417533e+00,7.02781e-01,9.99999e-01,7.06957e-01,9.94920e-01,9.99167e-01
1.310939621e+00,6.40966e-01,9.99999e-01,6.45275e-01,9.95020e-01,9.98291e-01
1.317494319e+00,6.46097e-01,9.99999e-01,6.51322e-01,9.95118e-01,9.96842e-01
1.324081790e+00,5.27591e-01,9.99999e-01,5.33117e-01,9.95214e-01,9.94392e-01
1.330702199e+00,1.40971e-01,9.99999e-01,1.42992e-01,9.95309e-01,9.90510e-01
1.337355710e+00,2.52621e-03,9.99999e-01,2.58176e-03,9.95401e-01,9.83002e-01
1.344042489e+00,9.35864e-07,9.99999e-01,9.89919e-07,9.95492e-01,9.49674e-01
1.350762701e+00,5.44729e-13,9.99999e-01,6.52952e-13,9.95581e-01,8.37957e-01
1.357516515e+00,3.58902e-19,9.99999e-01,6.05604e-19,9.95668e-01,5.95213e-01
1.364304097e+00,3.22140e-12,9.99999e-01,8.03149e-12,9.95753e-01,4.02806e-01
1.371125618e+00,5.82966e-08,9.99999e-01,1.37965e-07,9.95837e-01,4.24311e-01
1.377981246e+00,2.09422e-07,9.99999e-01,4.38474e-07,9.95919e-01,4.79572e-01
1.384871152e+00,2.14695e-10,9.99999e-01,4.27513e-10,9.95999e-01,5.04211e-01
1.391795508e+00,3.41288e-12,9.99999e-01,6.58115e-12,9.96078e-01,5.20625e-01
1.398754485e+00,1.17629e-09,9.99999e-01,2.02464e-09,9.96155e-01,5.83228e-01
1.405748258e+00,1.51444e-09,9.99999e-01,2.08344e-09,9.96231e-01,7.29643e-01
1.412776999e+00,2.33038e-09,9.99999e-01,2.70106e-09,9.96305e-01,8.65964e-01
1.419840884e+00,4.77731e-09,9.99999e-01,5.10697e-09,9.96378e-01,9.38848e-01
1.426940089e+00,1.50803e-06,9.99998e-01,1.58772e-06,9.96450e-01,9.53191e-01
1.434074789e+00,1.43403e-05,9.99999e-01,1.52279e-05,9.96520e-01,9.45000e-01
1.441245163e+00,1.05142e-04,9.99999e-01,1.12168e-04,9.96588e-01,9.40565e-01
1.448451389e+00,1.88189e-03,9.99998e-01,1.99227e-03,9.96655e-01,9.47763e-01
1.455693646e+00,1.37925e-02,9.99999e-01,1.44277e-02,9.96721e-01,9.59113e-01
1.462972114e+00,1.98869e-02,9.99999e-01,2.07613e-02,9.96786e-01,9.60967e-01
1.470286975e+00,1.11513e-02,9.99999e-01,1.16330e-02,9.96849e-01,9.61619e-01
