#,Wave/freq,Total,N2,H2O,Rayleigh,CIA
4.000000000e-01,5.26495e-01,9.99999e-01,9.99927e-01,5.26533e-01,9.99999e-01
4.020000000e-01,5.33230e-01,9.99999e-01,9.99954e-01,5.33254e-01,9.99999e-01
4.040100000e-01,5.39907e-01,9.99999e-01,9.99980e-01,5.39918e-01,9.99999e-01
4.060300500e-01,5.46529e-01,9.99999e-01,9.99995e-01,5.46531e-01,9.99999e-01
4.080602003e-01,5.53091e-01,9.99999e-01,9.99998e-01,5.53092e-01,9.99999e-01
4.101005013e-01,5.59600e-01,9.99999e-01,9.99999e-01,5.59600e-01,9.99999e-01
4.121510038e-01,5.66053e-01,9.99999e-01,9.99996e-01,5.66054e-01,9.99999e-01
4.142117588e-01,5.72441e-01,9.99999e-01,9.99979e-01,5.72453e-01,9.99999e-01
4.162828176e-01,5.78743e-01,9.99999e-01,9.99909e-01,5.78795e-01,9.99999e-01
4.183642317e-01,5.85049e-01,9.99999e-01,9.99946e-01,5.85080e-01,9.99999e-01
4.204560528e-01,5.91289e-01,9.99999e-01,9.99966e-01,5.91308e-01,9.99999e-01
4.225583331e-01,5.97469e-01,9.99999e-01,9.99987e-01,5.97477e-01,9.99999e-01
4.246711247e-01,6.03580e-01,9.99999e-01,9.99989e-01,6.03586e-01,9.99999e-01
4.267944804e-01,6.09626e-01,9.99999e-01,9.99985e-01,6.09635e-01,9.99999e-01
4.289284528e-01,6.15617e-01,9.99999e-01,9.99988e-01,6.15624e-01,9.99999e-01
4.310730950e-01,6.21548e-01,9.99999e-01,9.99994e-01,6.21551e-01,9.99999e-01
4.332284605e-01,6.27416e-01,9.99999e-01,9.99998e-01,6.27417e-01,9.99999e-01
4.353946028e-01,6.33220e-01,9.99999e-01,9.99998e-01,6.33221e-01,9.99999e-01
4.375715758e-01,6.38956e-01,9.99999e-01,9.99990e-01,6.38962e-01,9.99999e-01
4.397594337e-01,6.44589e-01,9.99999e-01,9.99920e-01,6.44640e-01,9.99999e-01
4.419582309e-01,6.49995e-01,9.99999e-01,9.99600e-01,6.50255e-01,9.99999e-01
4.441680220e-01,6.55602e-01,9.99999e-01,9.99687e-01,6.55806e-01,9.99999e-01
4.463888621e-01,6.61080e-01,9.99999e-01,9.99674e-01,6.61294e-01,9.99999e-01
4.486208064e-01,6.66584e-01,9.99999e-01,9.99797e-01,6.66718e-01,9.99999e-01
4.508639105e-01,6.72015e-01,9.99999e-01,9.99905e-01,6.72078e-01,9.99999e-01
4.531182300e-01,6.77349e-01,9.99999e-01,9.99962e-01,6.77375e-01,9.99999e-01
4.553838212e-01,6.82589e-01,9.99999e-01,9.99974e-01,6.82606e-01,9.99999e-01
4.576607403e-01,6.87766e-01,9.99999e-01,9.99987e-01,6.87774e-01,9.99999e-01
4.599490440e-01,6.92872e-01,9.99999e-01,9.99991e-01,6.92878e-01,9.99999e-01
4.622487892e-01,6.97917e-01,9.99999e-01,9.99998e-01,6.97918e-01,9.99999e-01
4.645600332e-01,7.02889e-01,9.99999e-01,9.99993e-01,7.02893e-01,9.99999e-01
4.668828333e-01,7.07738e-01,9.99999e-01,9.99904e-01,7.07805e-01,9.99999e-01
4.692172475e-01,7.12508e-01,9.99999e-01,9.99795e-01,7.12653e-01,9.99999e-01
4.715633337e-01,7.17342e-01,9.99999e-01,9.99866e-01,7.17438e-01,9.99999e-01
4.739211504e-01,7.22067e-01,9.99999e-01,9.99872e-01,7.22159e-01,9.99999e-01
4.762907561e-01,7.26769e-01,9.99999e-01,9.99933e-01,7.26817e-01,9.99999e-01
4.786722099e-01,7.31393e-01,9.99999e-01,9.99972e-01,7.31413e-01,9.99999e-01
4.810655710e-01,7.35939e-01,9.99999e-01,9.99991e-01,7.35945e-01,9.99999e-01
4.834708988e-01,7.40358e-01,9.99999e-01,9.99921e-01,7.40416e-01,9.99999e-01
4.858882533e-01,7.44717e-01,9.99999e-01,9.99855e-01,7.44824e-01,9.99999e-01
4.883176946e-01,7.49081e-01,9.99999e-01,9.99879e-01,7.49171e-01,9.99999e-01
4.907592831e-01,7.53375e-01,9.99999e-01,9.99890e-01,7.53457e-01,9.99999e-01
4.932130795e-01,7.57623e-01,9.99999e-01,9.99922e-01,7.57682e-01,9.99999e-01
4.956791449e-01,7.61815e-01,9.99999e-01,9.99958e-01,7.61846e-01,9.99999e-01
4.981575406e-01,7.65794e-01,9.99999e-01,9.99794e-01,7.65950e-01,9.99999e-01
5.006483283e-01,7.69584e-01,9.99999e-01,9.99469e-01,7.69995e-01,9.99995e-01
5.031515699e-01,7.71880e-01,9.99999e-01,9.97312e-01,7.73981e-01,9.99971e-01
5.056673278e-01,7.76779e-01,9.99999e-01,9.98580e-01,7.77907e-01,9.99967e-01
5.081956644e-01,7.80361e-01,9.99999e-01,9.98209e-01,7.81776e-01,9.99978e-01
5.107366428e-01,7.84634e-01,9.99999e-01,9.98790e-01,7.85587e-01,9.99995e-01
5.132903260e-01,7.88795e-01,9.99999e-01,9.99308e-01,7.89341e-01,9.99999e-01
5.158567776e-01,7.92806e-01,9.99999e-01,9.99707e-01,7.93037e-01,9.99999e-01
5.184360615e-01,7.96585e-01,9.99999e-01,9.99882e-01,7.96678e-01,9.99999e-01
5.210282418e-01,8.00228e-01,9.99999e-01,9.99955e-01,8.00263e-01,9.99999e-01
5.236333830e-01,8.03651e-01,9.99999e-01,9.99824e-01,8.03793e-01,9.99998e-01
5.262515499e-01,8.07178e-01,9.99999e-01,9.99889e-01,8.07268e-01,9.99997e-01
5.288828077e-01,8.10607e-01,9.99999e-01,9.99898e-01,8.10689e-01,9.99998e-01
5.315272217e-01,8.13985e-01,9.99999e-01,9.99911e-01,8.14057e-01,9.99999e-01
5.341848578e-01,8.17324e-01,9.99999e-01,9.99941e-01,8.17372e-01,9.99999e-01
5.368557821e-01,8.20466e-01,9.99999e-01,9.99795e-01,8.20634e-01,9.99999e-01
5.395400610e-01,8.23233e-01,9.99999e-01,9.99263e-01,8.23844e-01,9.99993e-01
5.422377613e-01,8.26202e-01,9.99999e-01,9.99047e-01,8.27004e-01,9.99982e-01
5.449489501e-01,8.29363e-01,9.99999e-01,9.99114e-01,8.30112e-01,9.99981e-01
5.476736949e-01,8.32510e-01,9.99999e-01,9.99215e-01,8.33171e-01,9.99990e-01
5.504120634e-01,8.35702e-01,9.99999e-01,9.99430e-01,8.36180e-01,9.99997e-01
5.531641237e-01,8.38900e-01,9.99999e-01,9.99713e-01,8.39140e-01,9.99999e-01
5.559299443e-01,8.41936e-01,9.99999e-01,9.99861e-01,8.42052e-01,9.99999e-01
5.587095940e-01,8.44843e-01,9.99999e-01,9.99912e-01,8.44916e-01,9.99999e-01
5.615031420e-01,8.47652e-01,9.99999e-01,9.99903e-01,8.47734e-01,9.99999e-01
5.643106577e-01,8.50410e-01,9.99999e-01,9.99890e-01,8.50504e-01,9.99998e-01
5.671322110e-01,8.52085e-01,9.99999e-01,9.98671e-01,8.53229e-01,9.99987e-01
5.699678720e-01,8.54667e-01,9.99999e-01,9.98585e-01,8.55908e-01,9.99963e-01
5.728177114e-01,8.57253e-01,9.99999e-01,9.98527e-01,8.58543e-01,9.99969e-01
5.756818000e-01,8.59953e-01,9.99999e-01,9.98648e-01,8.61133e-01,9.99981e-01
5.785602090e-01,8.62658e-01,9.99999e-01,9.98821e-01,8.63680e-01,9.99993e-01
5.814530100e-01,8.65157e-01,9.99999e-01,9.98816e-01,8.66183e-01,9.99996e-01
5.843602750e-01,8.67414e-01,9.99999e-01,9.98589e-01,8.68645e-01,9.99991e-01
5.872820764e-01,8.60470e-01,9.99999e-01,9.87921e-01,8.71064e-01,9.99914e-01
5.902184868e-01,8.60453e-01,9.99999e-01,9.85356e-01,8.73443e-01,9.99766e-01
5.931695792e-01,8.66519e-01,9.99999e-01,9.89646e-01,8.75780e-01,9.99775e-01
5.961354271e-01,8.67997e-01,9.99999e-01,9.88646e-01,8.78078e-01,9.99870e-01
5.991161043e-01,8.72999e-01,9.99999e-01,9.91705e-01,8.80336e-01,9.99959e-01
6.021116848e-01,8.78390e-01,9.99999e-01,9.95285e-01,8.82555e-01,9.99995e-01
6.051222432e-01,8.82623e-01,9.99999e-01,9.97611e-01,8.84735e-01,9.99999e-01
6.081478544e-01,8.85964e-01,9.99999e-01,9.98969e-01,8.86878e-01,9.99999e-01
6.111885937e-01,8.88596e-01,9.99999e-01,9.99563e-01,8.88984e-01,9.99999e-01
6.142445367e-01,8.90879e-01,9.99999e-01,9.99804e-01,8.91052e-01,9.99999e-01
6.173157594e-01,8.92989e-01,9.99999e-01,9.99892e-01,8.93085e-01,9.99999e-01
6.204023382e-01,8.95000e-01,9.99999e-01,9.99908e-01,8.95082e-01,9.99999e-01
6.235043498e-01,8.96684e-01,9.99999e-01,9.99599e-01,8.97044e-01,9.99998e-01
6.266218716e-01,8.97054e-01,9.99999e-01,9.97881e-01,8.98971e-01,9.99984e-01
6.297549810e-01,9.00137e-01,9.99999e-01,9.99222e-01,9.00864e-01,9.99969e-01
6.329037559e-01,9.01316e-01,9.99999e-01,9.98463e-01,9.02724e-01,9.99975e-01
6.360682746e-01,9.03355e-01,9.99999e-01,9.98692e-01,9.04550e-01,9.99985e-01
6.392486160e-01,9.04803e-01,9.99999e-01,9.98304e-01,9.06344e-01,9.99993e-01
6.424448591e-01,9.06040e-01,9.99999e-01,9.97733e-01,9.08107e-01,9.99989e-01
6.456570834e-01,9.00249e-01,9.99999e-01,9.89518e-01,9.09837e-01,9.99941e-01
6.488853688e-01,9.04385e-01,9.99999e-01,9.92315e-01,9.11537e-01,9.99836e-01
6.521297956e-01,9.05934e-01,9.99999e-01,9.92169e-01,9.13206e-01,9.99864e-01
6.553904446e-01,9.07619e-01,9.99999e-01,9.92199e-01,9.14845e-01,9.99899e-01
6.586673968e-01,9.10300e-01,9.99999e-01,9.93316e-01,9.16455e-01,9.99965e-01
6.619607338e-01,9.14477e-01,9.99999e-01,9.96130e-01,9.18036e-01,9.99992e-01
6.652705375e-01,9.17524e-01,9.99999e-01,9.97759e-01,9.19588e-01,9.99995e-01
6.685968902e-01,9.20152e-01,9.99999e-01,9.98958e-01,9.21112e-01,9.99998e-01
6.719398746e-01,9.22163e-01,9.99999e-01,9.99517e-01,9.22608e-01,9.99999e-01
6.752995740e-01,9.23835e-01,9.99999e-01,9.99738e-01,9.24077e-01,9.99999e-01
6.786760719e-01,9.25170e-01,9.99999e-01,9.99622e-01,9.25519e-01,9.99998e-01
6.820694522e-01,9.26333e-01,9.99999e-01,9.99353e-01,9.26935e-01,9.99996e-01
6.854797995e-01,9.27545e-01,9.99999e-01,9.99166e-01,9.28326e-01,9.99992e-01
6.889071985e-01,9.27800e-01,9.99999e-01,9.97984e-01,9.29690e-01,9.99981e-01
6.923517345e-01,9.00717e-01,9.99999e-01,9.67593e-01,9.31030e-01,9.99841e-01
6.958134932e-01,9.16196e-01,9.99999e-01,9.83022e-01,9.32345e-01,9.99649e-01
6.992925606e-01,9.18264e-01,9.99999e-01,9.83844e-01,9.33636e-01,9.99684e-01
7.027890234e-01,9.16060e-01,9.99999e-01,9.80080e-01,9.34903e-01,9.99758e-01
7.063029686e-01,9.20327e-01,9.99999e-01,9.83217e-01,9.36147e-01,9.99879e-01
7.098344834e-01,9.22201e-01,9.99999e-01,9.83888e-01,9.37368e-01,9.99928e-01
7.133836558e-01,9.18382e-01,9.99999e-01,9.78632e-01,9.38566e-01,9.99858e-01
7.169505741e-01,7.90675e-01,9.99999e-01,8.42305e-01,9.39742e-01,9.98892e-01
7.205353270e-01,8.63065e-01,9.99999e-01,9.19072e-01,9.40897e-01,9.98047e-01
7.241380036e-01,8.44704e-01,9.99999e-01,8.98198e-01,9.42030e-01,9.98313e-01
7.277586936e-01,8.54899e-01,9.99999e-01,9.07688e-01,9.43142e-01,9.98621e-01
7.313974871e-01,8.50940e-01,9.99999e-01,9.01779e-01,9.44233e-01,9.99353e-01
7.350544745e-01,8.93110e-01,9.99999e-01,9.44997e-01,9.45304e-01,9.99775e-01
7.387297469e-01,9.07610e-01,9.99999e-01,9.59157e-01,9.46354e-01,9.99896e-01
7.424233956e-01,9.28221e-01,9.99999e-01,9.79789e-01,9.47386e-01,9.99979e-01
7.461355126e-01,9.36732e-01,9.99999e-01,9.87702e-01,9.48398e-01,9.99996e-01
7.498661902e-01,9.43936e-01,9.99999e-01,9.94255e-01,9.49391e-01,9.99998e-01
7.536155211e-01,9.47683e-01,9.99999e-01,9.97178e-01,9.50365e-01,9.99998e-01
7.573835987e-01,9.49939e-01,9.99999e-01,9.98546e-01,9.51321e-01,9.99999e-01
7.611705167e-01,9.51400e-01,9.99999e-01,9.99096e-01,9.52259e-01,9.99999e-01
7.649763693e-01,9.52640e-01,9.99999e-01,9.99433e-01,9.53180e-01,9.99999e-01
7.688012511e-01,9.53707e-01,9.99999e-01,9.99605e-01,9.54083e-01,9.99999e-01
7.726452574e-01,9.54660e-01,9.99999e-01,9.99675e-01,9.54969e-01,9.99999e-01
7.765084837e-01,9.55398e-01,9.99999e-01,9.99539e-01,9.55839e-01,9.99998e-01
7.803910261e-01,9.54787e-01,9.99999e-01,9.98010e-01,9.56692e-01,9.99997e-01
7.842929812e-01,9.50883e-01,9.99999e-01,9.93071e-01,9.57529e-01,9.99986e-01
7.882144461e-01,9.44629e-01,9.99999e-01,9.85768e-01,9.58350e-01,9.99912e-01
7.921555184e-01,9.51488e-01,9.99999e-01,9.92173e-01,9.59156e-01,9.99830e-01
7.961162960e-01,9.46560e-01,9.99999e-01,9.86215e-01,9.59946e-01,9.99837e-01
8.000968774e-01,9.45259e-01,9.99999e-01,9.84074e-01,9.60721e-01,9.99826e-01
8.040973618e-01,9.46042e-01,9.99999e-01,9.84075e-01,9.61482e-01,9.99862e-01
8.081178486e-01,9.27988e-01,9.99999e-01,9.64538e-01,9.62228e-01,9.99870e-01
8.121584379e-01,8.28786e-01,9.99999e-01,8.61099e-01,9.62960e-01,9.99494e-01
8.162192301e-01,8.05662e-01,9.99999e-01,8.37618e-01,9.63679e-01,9.98100e-01
8.203003262e-01,8.82415e-01,9.99999e-01,9.17043e-01,9.64383e-01,9.97775e-01
8.244018279e-01,8.54393e-01,9.99999e-01,8.86883e-01,9.65074e-01,9.98229e-01
8.285238370e-01,8.67206e-01,9.99999e-01,8.99209e-01,9.65752e-01,9.98609e-01
8.326664562e-01,8.67650e-01,9.99999e-01,8.98317e-01,9.66417e-01,9.99424e-01
8.368297885e-01,8.95288e-01,9.99999e-01,9.25895e-01,9.67069e-01,9.99868e-01
8.410139374e-01,9.24317e-01,9.99999e-01,9.55232e-01,9.67709e-01,9.99922e-01
8.452190071e-01,9.46771e-01,9.99999e-01,9.77773e-01,9.68337e-01,9.99953e-01
8.494451021e-01,9.56362e-01,9.99999e-01,9.87042e-01,9.68952e-01,9.99962e-01
8.536923276e-01,9.62087e-01,9.99999e-01,9.92317e-01,9.69556e-01,9.99977e-01
8.579607893e-01,9.65548e-01,9.99999e-01,9.95263e-01,9.70148e-01,9.99994e-01
8.622505932e-01,9.67805e-01,9.99999e-01,9.96988e-01,9.70729e-01,9.99998e-01
8.665618462e-01,9.69489e-01,9.99999e-01,9.98136e-01,9.71299e-01,9.99998e-01
8.708946554e-01,9.69784e-01,9.99999e-01,9.97866e-01,9.71858e-01,9.99998e-01
8.752491287e-01,9.69629e-01,9.99999e-01,9.97146e-01,9.72406e-01,9.99996e-01
8.796253743e-01,9.69094e-01,9.99999e-01,9.96051e-01,9.72944e-01,9.99990e-01
8.840235012e-01,9.69055e-01,9.99999e-01,9.95490e-01,9.73471e-01,9.99972e-01
8.884436187e-01,9.58057e-01,9.99999e-01,9.83719e-01,9.73988e-01,9.99921e-01
8.928858368e-01,8.20703e-01,9.99999e-01,8.42562e-01,9.74495e-01,9.99548e-01
8.973502660e-01,7.19429e-01,9.99999e-01,7.39589e-01,9.74993e-01,9.97689e-01
9.018370173e-01,8.33250e-01,9.99999e-01,8.57306e-01,9.75480e-01,9.96369e-01
9.063462024e-01,8.49156e-01,9.99999e-01,8.72857e-01,9.75959e-01,9.96809e-01
9.108779334e-01,7.87369e-01,9.99999e-01,8.09058e-01,9.76428e-01,9.96685e-01
9.154323231e-01,7.65093e-01,9.99999e-01,7.85345e-01,9.76888e-01,9.97259e-01
9.200094847e-01,8.08115e-01,9.99999e-01,8.28122e-01,9.77340e-01,9.98465e-01
9.246095321e-01,7.34568e-01,9.99999e-01,7.52589e-01,9.77782e-01,9.98231e-01
9.292325798e-01,1.65666e-01,9.99999e-01,1.70528e-01,9.78216e-01,9.93122e-01
9.338787427e-01,9.56792e-02,9.99999e-01,1.00597e-01,9.78642e-01,9.71874e-01
9.385481364e-01,3.70930e-01,9.99999e-01,3.91938e-01,9.79059e-01,9.66639e-01
9.432408771e-01,2.72893e-01,9.99999e-01,2.86889e-01,9.79469e-01,9.71152e-01
9.479570815e-01,1.68901e-01,9.99999e-01,1.76527e-01,9.79870e-01,9.76458e-01
9.526968669e-01,2.51335e-01,9.99999e-01,2.60148e-01,9.80264e-01,9.85574e-01
9.574603512e-01,2.69043e-01,9.99999e-01,2.76384e-01,9.80650e-01,9.92645e-01
9.622476530e-01,3.35915e-01,9.99999e-01,3.44162e-01,9.81028e-01,9.94908e-01
9.670588912e-01,5.25265e-01,9.99999e-01,5.37091e-01,9.81399e-01,9.96515e-01
9.718941857e-01,6.56382e-01,9.99999e-01,6.70293e-01,9.81763e-01,9.97433e-01
9.767536566e-01,7.02794e-01,9.99999e-01,7.16994e-01,9.82120e-01,9.98037e-01
9.816374249e-01,7.66192e-01,9.99999e-01,7.80392e-01,9.82470e-01,9.99320e-01
9.865456120e-01,8.41192e-01,9.99999e-01,8.56022e-01,9.82814e-01,9.99858e-01
9.914783401e-01,8.92827e-01,9.99999e-01,9.08163e-01,9.83150e-01,9.99960e-01
9.964357318e-01,9.33185e-01,9.99999e-01,9.48880e-01,9.83480e-01,9.99976e-01
1.001417910e+00,9.53297e-01,9.99999e-01,9.69024e-01,9.83804e-01,9.99964e-01
1.006425000e+00,9.66576e-01,9.99999e-01,9.82219e-01,9.84121e-01,9.99949e-01
1.011457125e+00,9.73489e-01,9.99999e-01,9.88928e-01,9.84432e-01,9.99953e-01
1.016514411e+00,9.77291e-01,9.99999e-01,9.92470e-01,9.84738e-01,9.99966e-01
1.021596983e+00,9.79091e-01,9.99999e-01,9.93996e-01,9.85037e-01,9.99966e-01
1.026704968e+00,9.80693e-01,9.99999e-01,9.95314e-01,9.85330e-01,9.99977e-01
1.031838492e+00,9.82254e-01,9.99999e-01,9.96592e-01,9.85618e-01,9.99993e-01
1.036997685e+00,9.83903e-01,9.99999e-01,9.97975e-01,9.85900e-01,9.99998e-01
1.042182673e+00,9.83796e-01,9.99999e-01,9.97586e-01,9.86176e-01,9.99999e-01
1.047393587e+00,9.83291e-01,9.99999e-01,9.96800e-01,9.86447e-01,9.99998e-01
1.052630555e+00,9.82383e-01,9.99999e-01,9.95611e-01,9.86713e-01,9.99998e-01
1.057893707e+00,9.79752e-01,9.99999e-01,9.92684e-01,9.86974e-01,9.99996e-01
1.063183176e+00,9.75369e-01,9.99999e-01,9.87992e-01,9.87230e-01,9.99993e-01
1.068499092e+00,9.67694e-01,9.99999e-01,9.79975e-01,9.87480e-01,9.99985e-01
1.073841587e+00,9.64616e-01,9.99999e-01,9.76631e-01,9.87726e-01,9.99969e-01
1.079210795e+00,9.58376e-01,9.99999e-01,9.70126e-01,9.87967e-01,9.99918e-01
1.084606849e+00,9.43720e-01,9.99999e-01,9.55170e-01,9.88203e-01,9.99805e-01
1.090029883e+00,9.25177e-01,9.99999e-01,9.36378e-01,9.88435e-01,9.99596e-01
1.095480033e+00,8.26075e-01,9.99999e-01,8.36157e-01,9.88662e-01,9.99270e-01
1.100957433e+00,6.30111e-01,9.99999e-01,6.38048e-01,9.88885e-01,9.98658e-01
1.106462220e+00,3.29769e-01,9.99999e-01,3.34162e-01,9.89103e-01,9.97726e-01
1.111994531e+00,1.04224e-01,9.99999e-01,1.05987e-01,9.89317e-01,9.93976e-01
1.117554504e+00,2.91971e-02,9.99999e-01,3.01567e-02,9.89527e-01,9.78424e-01
1.123142276e+00,8.59343e-02,9.99999e-01,9.14348e-02,9.89733e-01,9.49590e-01
1.128757988e+00,1.74868e-01,9.99999e-01,1.87538e-01,9.89935e-01,9.41917e-01
1.134401778e+00,7.81732e-02,9.99999e-01,8.30732e-02,9.90132e-01,9.50392e-01
1.140073787e+00,3.33713e-01,9.99999e-01,3.50953e-01,9.90326e-01,9.60162e-01
1.145774156e+00,1.24940e-01,9.99999e-01,1.30919e-01,9.90516e-01,9.63472e-01
1.151503026e+00,1.02530e-01,9.99999e-01,1.05659e-01,9.90703e-01,9.79483e-01
1.157260541e+00,1.30655e-01,9.99999e-01,1.32676e-01,9.90886e-01,9.93820e-01
1.163046844e+00,2.18912e-01,9.99999e-01,2.21273e-01,9.91065e-01,9.98244e-01
1.168862078e+00,3.35828e-01,9.99999e-01,3.39102e-01,9.91241e-01,9.99095e-01
1.174706389e+00,5.06786e-01,9.99999e-01,5.11789e-01,9.91413e-01,9.98800e-01
1.180579921e+00,6.56492e-01,9.99999e-01,6.63267e-01,9.91582e-01,9.98187e-01
1.186482820e+00,7.83491e-01,9.99999e-01,7.91482e-01,9.91747e-01,9.98139e-01
1.192415234e+00,8.63811e-01,9.99999e-01,8.72070e-01,9.91910e-01,9.98606e-01
1.198377311e+00,8.82873e-01,9.99999e-01,8.91103e-01,9.92069e-01,9.98683e-01
1.204369197e+00,8.88937e-01,9.99999e-01,8.96970e-01,9.92225e-01,9.98808e-01
1.210391043e+00,8.93528e-01,9.99999e-01,9.01042e-01,9.92378e-01,9.99275e-01
1.216442998e+00,9.07928e-01,9.99999e-01,9.15168e-01,9.92528e-01,9.99555e-01
1.222525213e+00,9.26107e-01,9.99999e-01,9.33197e-01,9.92675e-01,9.99723e-01
1.228637839e+00,9.46142e-01,9.99999e-01,9.53107e-01,9.92819e-01,9.99871e-01
1.234781029e+00,9.58142e-01,9.99999e-01,9.64969e-01,9.92960e-01,9.99962e-01
1.240954934e+00,9.70947e-01,9.99999e-01,9.77704e-01,9.93099e-01,9.99989e-01
1.247159708e+00,9.75937e-01,9.99999e-01,9.82590e-01,9.93235e-01,9.99992e-01
1.253395507e+00,9.77993e-01,9.99999e-01,9.84530e-01,9.93368e-01,9.99990e-01
1.259662485e+00,9.78882e-01,9.99999e-01,9.85300e-01,9.93498e-01,9.99985e-01
1.265960797e+00,9.70371e-01,9.99999e-01,9.76617e-01,9.93626e-01,9.99976e-01
1.272290601e+00,9.57478e-01,9.99999e-01,9.63536e-01,9.93752e-01,9.99959e-01
1.278652054e+00,9.23202e-01,9.99999e-01,9.28957e-01,9.93875e-01,9.99928e-01
1.285045314e+00,8.69882e-01,9.99999e-01,8.75253e-01,9.93995e-01,9.99865e-01
1.291470541e+00,7.88211e-01,9.99999e-01,7.93063e-01,9.94114e-01,9.99765e-01
1.297927893e+00,7.35802e-01,9.99999e-01,7.40396e-01,9.94230e-01,9.99562e-01
1.304417533e+00,6.76020e-01,9.99999e-01,6.80496e-01,9.94343e-01,9.99072e-01
1.310939621e+00,6.38955e-01,9.99999e-01,6.43741e-01,9.94455e-01,9.98097e-01
1.317494319e+00,6.15383e-01,9.99999e-01,6.20929e-01,9.94564e-01,9.96484e-01
1.324081790e+00,4.90693e-01,9.99999e-01,4.96166e-01,9.94671e-01,9.94266e-01
1.330702199e+00,1.26906e-01,9.99999e-01,1.28843e-01,9.94776e-01,9.90134e-01
1.337355710e+00,2.04190e-03,9.99999e-01,2.09197e-03,9.94879e-01,9.81086e-01
1.344042489e+00,3.21891e-05,9.99999e-01,3.42666e-05,9.94980e-01,9.44110e-01
1.350762701e+00,3.05989e-14,9.99999e-01,3.74423e-14,9.95079e-01,8.21268e-01
1.357516515e+00,4.11286e-21,9.99999e-01,7.36564e-21,9.95176e-01,5.61090e-01
1.364304097e+00,2.09296e-13,9.99999e-01,5.78974e-13,9.95271e-01,3.63212e-01
1.371125618e+00,1.22054e-08,9.99999e-01,3.18605e-08,9.95364e-01,3.84874e-01
1.377981246e+00,4.52549e-08,9.99999e-01,1.03064e-07,9.95455e-01,4.41101e-01
1.384871152e+00,2.54332e-11,9.99999e-01,5.47730e-11,9.95545e-01,4.66416e-01
1.391795508e+00,2.12973e-13,9.99999e-01,4.42544e-13,9.95632e-01,4.83358e-01
1.398754485e+00,1.45322e-10,9.99999e-01,2.66073e-10,9.95719e-01,5.48521e-01
1.405748258e+00,2.11135e-10,9.99999e-01,3.01198e-10,9.95803e-01,7.03937e-01
1.412776999e+00,3.47159e-10,9.99999e-01,4.09195e-10,9.95886e-01,8.51899e-01
1.419840884e+00,6.90295e-10,9.99999e-01,7.43553e-10,9.95967e-01,9.32131e-01
1.426940089e+00,4.69488e-07,9.99998e-01,4.97203e-07,9.96046e-01,9.48006e-01
1.434074789e+00,4.74863e-06,9.99998e-01,5.07712e-06,9.96124e-01,9.38937e-01
1.441245163e+00,4.25701e-05,9.99999e-01,4.57506e-05,9.96201e-01,9.34030e-01
1.448451389e+00,1.02728e-03,9.99998e-01,1.09461e-03,9.96275e-01,9.41994e-01
1.455693646e+00,9.05013e-03,9.99999e-01,9.51560e-03,9.96349e-01,9.54568e-01
1.462972114e+00,1.34643e-02,9.99999e-01,1.41253e-02,9.96421e-01,9.56624e-01
1.470286975e+00,7.08352e-03,9.99999e-01,7.42516e-03,9.96491e-01,9.57346e-01
