#,Wave/freq,Total,N2,H2O,Rayleigh,CIA
4.000000000e-01,6.59251e-01,9.99999e-01,9.99952e-01,6.59281e-01,9.99999e-01
4.020000000e-01,6.64715e-01,9.99999e-01,9.99970e-01,6.64735e-01,9.99999e-01
4.040100000e-01,6.70110e-01,9.99999e-01,9.99987e-01,6.70118e-01,9.99999e-01
4.060300500e-01,6.75436e-01,9.99999e-01,9.99996e-01,6.75438e-01,9.99999e-01
4.080602003e-01,6.80693e-01,9.99999e-01,9.99998e-01,6.80693e-01,9.99999e-01
4.101005013e-01,6.85885e-01,9.99999e-01,9.99999e-01,6.85885e-01,9.99999e-01
4.121510038e-01,6.91011e-01,9.99999e-01,9.99997e-01,6.91012e-01,9.99999e-01
4.142117588e-01,6.96066e-01,9.99999e-01,9.99986e-01,6.96075e-01,9.99999e-01
4.162828176e-01,7.01033e-01,9.99999e-01,9.99941e-01,7.01074e-01,9.99999e-01
4.183642317e-01,7.05985e-01,9.99999e-01,9.99964e-01,7.06009e-01,9.99999e-01
4.204560528e-01,7.10866e-01,9.99999e-01,9.99978e-01,7.10881e-01,9.99999e-01
4.225583331e-01,7.15683e-01,9.99999e-01,9.99991e-01,7.15689e-01,9.99999e-01
4.246711247e-01,7.20429e-01,9.99999e-01,9.99993e-01,7.20433e-01,9.99999e-01
4.267944804e-01,7.25108e-01,9.99999e-01,9.99990e-01,7.25115e-01,9.99999e-01
4.289284528e-01,7.29728e-01,9.99999e-01,9.99992e-01,7.29733e-01,9.99999e-01
4.310730950e-01,7.34286e-01,9.99999e-01,9.99996e-01,7.34289e-01,9.99999e-01
4.332284605e-01,7.38781e-01,9.99999e-01,9.99998e-01,7.38782e-01,9.99999e-01
4.353946028e-01,7.43213e-01,9.99999e-01,9.99999e-01,7.43213e-01,9.99999e-01
4.375715758e-01,7.47578e-01,9.99999e-01,9.99993e-01,7.47583e-01,9.99999e-01
4.397594337e-01,7.51852e-01,9.99999e-01,9.99948e-01,7.51891e-01,9.99999e-01
4.419582309e-01,7.55940e-01,9.99999e-01,9.99738e-01,7.56138e-01,9.99999e-01
4.441680220e-01,7.60171e-01,9.99999e-01,9.99797e-01,7.60324e-01,9.99999e-01
4.463888621e-01,7.64290e-01,9.99999e-01,9.99788e-01,7.64451e-01,9.99999e-01
4.486208064e-01,7.68417e-01,9.99999e-01,9.99868e-01,7.68517e-01,9.99999e-01
4.508639105e-01,7.72477e-01,9.99999e-01,9.99938e-01,7.72524e-01,9.99999e-01
4.531182300e-01,7.76454e-01,9.99999e-01,9.99975e-01,7.76473e-01,9.99999e-01
4.553838212e-01,7.80350e-01,9.99999e-01,9.99983e-01,7.80363e-01,9.99999e-01
4.576607403e-01,7.84189e-01,9.99999e-01,9.99991e-01,7.84195e-01,9.99999e-01
4.599490440e-01,7.87965e-01,9.99999e-01,9.99994e-01,7.87969e-01,9.99999e-01
4.622487892e-01,7.91686e-01,9.99999e-01,9.99998e-01,7.91687e-01,9.99999e-01
4.645600332e-01,7.95345e-01,9.99999e-01,9.99995e-01,7.95348e-01,9.99999e-01
4.668828333e-01,7.98904e-01,9.99999e-01,9.99937e-01,7.98953e-01,9.99999e-01
4.692172475e-01,8.02397e-01,9.99999e-01,9.99867e-01,8.02503e-01,9.99999e-01
4.715633337e-01,8.05929e-01,9.99999e-01,9.99913e-01,8.05999e-01,9.99999e-01
4.739211504e-01,8.09373e-01,9.99999e-01,9.99916e-01,8.09440e-01,9.99999e-01
4.762907561e-01,8.12792e-01,9.99999e-01,9.99956e-01,8.12827e-01,9.99999e-01
4.786722099e-01,8.16147e-01,9.99999e-01,9.99982e-01,8.16161e-01,9.99999e-01
4.810655710e-01,8.19438e-01,9.99999e-01,9.99994e-01,8.19442e-01,9.99999e-01
4.834708988e-01,8.22630e-01,9.99999e-01,9.99948e-01,8.22672e-01,9.99999e-01
4.858882533e-01,8.25773e-01,9.99999e-01,9.99906e-01,8.25850e-01,9.99999e-01
4.883176946e-01,8.28912e-01,9.99999e-01,9.99921e-01,8.28977e-01,9.99999e-01
4.907592831e-01,8.31995e-01,9.99999e-01,9.99928e-01,8.32054e-01,9.99999e-01
4.932130795e-01,8.35039e-01,9.99999e-01,9.99949e-01,8.35081e-01,9.99999e-01
4.956791449e-01,8.38037e-01,9.99999e-01,9.99972e-01,8.38059e-01,9.99999e-01
4.981575406e-01,8.40877e-01,9.99999e-01,9.99866e-01,8.40989e-01,9.99999e-01
5.006483283e-01,8.43577e-01,9.99999e-01,9.99653e-01,8.43871e-01,9.99997e-01
5.031515699e-01,8.45209e-01,9.99999e-01,9.98251e-01,8.46705e-01,9.99981e-01
5.056673278e-01,8.48692e-01,9.99999e-01,9.99078e-01,8.49492e-01,9.99978e-01
5.081956644e-01,8.51233e-01,9.99999e-01,9.98837e-01,8.52234e-01,9.99986e-01
5.107366428e-01,8.54257e-01,9.99999e-01,9.99215e-01,8.54930e-01,9.99997e-01
5.132903260e-01,8.57196e-01,9.99999e-01,9.99551e-01,8.57581e-01,9.99999e-01
5.158567776e-01,8.60024e-01,9.99999e-01,9.99810e-01,8.60187e-01,9.99999e-01
5.184360615e-01,8.62684e-01,9.99999e-01,9.99923e-01,8.62750e-01,9.99999e-01
5.210282418e-01,8.65245e-01,9.99999e-01,9.99971e-01,8.65269e-01,9.99999e-01
5.236333830e-01,8.67647e-01,9.99999e-01,9.99885e-01,8.67746e-01,9.99998e-01
5.262515499e-01,8.70118e-01,9.99999e-01,9.99928e-01,8.70181e-01,9.99998e-01
5.288828077e-01,8.72517e-01,9.99999e-01,9.99934e-01,8.72574e-01,9.99998e-01
5.315272217e-01,8.74877e-01,9.99999e-01,9.99942e-01,8.74927e-01,9.99999e-01
5.341848578e-01,8.77206e-01,9.99999e-01,9.99961e-01,8.77239e-01,9.99999e-01
5.368557821e-01,8.79394e-01,9.99999e-01,9.99866e-01,8.79511e-01,9.99999e-01
5.395400610e-01,8.81317e-01,9.99999e-01,9.99518e-01,8.81745e-01,9.99995e-01
5.422377613e-01,8.83384e-01,9.99999e-01,9.99382e-01,8.83939e-01,9.99988e-01
5.449489501e-01,8.85575e-01,9.99999e-01,9.99423e-01,8.86096e-01,9.99987e-01
5.476736949e-01,8.87758e-01,9.99999e-01,9.99491e-01,8.88215e-01,9.99993e-01
5.504120634e-01,8.89967e-01,9.99999e-01,9.99630e-01,8.90297e-01,9.99997e-01
5.531641237e-01,8.92177e-01,9.99999e-01,9.99813e-01,8.92343e-01,9.99999e-01
5.559299443e-01,8.94273e-01,9.99999e-01,9.99909e-01,8.94353e-01,9.99999e-01
5.587095940e-01,8.96277e-01,9.99999e-01,9.99943e-01,8.96327e-01,9.99999e-01
5.615031420e-01,8.98211e-01,9.99999e-01,9.99936e-01,8.98267e-01,9.99999e-01
5.643106577e-01,9.00108e-01,9.99999e-01,9.99928e-01,9.00173e-01,9.99998e-01
5.671322110e-01,9.01252e-01,9.99999e-01,9.99128e-01,9.02045e-01,9.99991e-01
5.699678720e-01,9.03035e-01,9.99999e-01,9.99084e-01,9.03883e-01,9.99976e-01
5.728177114e-01,9.04805e-01,9.99999e-01,9.99041e-01,9.05689e-01,9.99979e-01
5.756818000e-01,9.06656e-01,9.99999e-01,9.99121e-01,9.07463e-01,9.99988e-01
5.785602090e-01,9.08507e-01,9.99999e-01,9.99234e-01,9.09206e-01,9.99996e-01
5.814530100e-01,9.10215e-01,9.99999e-01,9.99230e-01,9.10917e-01,9.99997e-01
5.843602750e-01,9.11753e-01,9.99999e-01,9.99080e-01,9.12597e-01,9.99994e-01
5.872820764e-01,9.06979e-01,9.99999e-01,9.92104e-01,9.14247e-01,9.99944e-01
5.902184868e-01,9.07003e-01,9.99999e-01,9.90470e-01,9.15867e-01,9.99848e-01
5.931695792e-01,9.11138e-01,9.99999e-01,9.93254e-01,9.17459e-01,9.99854e-01
5.961354271e-01,9.12156e-01,9.99999e-01,9.92611e-01,9.19021e-01,9.99915e-01
5.991161043e-01,9.15570e-01,9.99999e-01,9.94609e-01,9.20555e-01,9.99973e-01
6.021116848e-01,9.19238e-01,9.99999e-01,9.96939e-01,9.22062e-01,9.99996e-01
6.051222432e-01,9.22110e-01,9.99999e-01,9.98450e-01,9.23541e-01,9.99999e-01
6.081478544e-01,9.24375e-01,9.99999e-01,9.99331e-01,9.24993e-01,9.99999e-01
6.111885937e-01,9.26157e-01,9.99999e-01,9.99717e-01,9.26419e-01,9.99999e-01
6.142445367e-01,9.27701e-01,9.99999e-01,9.99873e-01,9.27818e-01,9.99999e-01
6.173157594e-01,9.29128e-01,9.99999e-01,9.99929e-01,9.29192e-01,9.99999e-01
6.204023382e-01,9.30486e-01,9.99999e-01,9.99940e-01,9.30541e-01,9.99999e-01
6.235043498e-01,9.31621e-01,9.99999e-01,9.99737e-01,9.31865e-01,9.99998e-01
6.266218716e-01,9.31871e-01,9.99999e-01,9.98622e-01,9.33165e-01,9.99989e-01
6.297549810e-01,9.33951e-01,9.99999e-01,9.99494e-01,9.34441e-01,9.99980e-01
6.329037559e-01,9.34746e-01,9.99999e-01,9.99002e-01,9.35693e-01,9.99984e-01
6.360682746e-01,9.36117e-01,9.99999e-01,9.99149e-01,9.36922e-01,9.99990e-01
6.392486160e-01,9.37092e-01,9.99999e-01,9.98898e-01,9.38129e-01,9.99995e-01
6.424448591e-01,9.37918e-01,9.99999e-01,9.98520e-01,9.39313e-01,9.99992e-01
6.456570834e-01,9.33996e-01,9.99999e-01,9.93151e-01,9.40476e-01,9.99958e-01
6.488853688e-01,9.36814e-01,9.99999e-01,9.95005e-01,9.41616e-01,9.99893e-01
6.521297956e-01,9.37855e-01,9.99999e-01,9.94909e-01,9.42736e-01,9.99911e-01
6.553904446e-01,9.38980e-01,9.99999e-01,9.94921e-01,9.43834e-01,9.99934e-01
6.586673968e-01,9.40789e-01,9.99999e-01,9.95657e-01,9.44913e-01,9.99977e-01
6.619607338e-01,9.43676e-01,9.99999e-01,9.97578e-01,9.45971e-01,9.99994e-01
6.652705375e-01,9.45630e-01,9.99999e-01,9.98545e-01,9.47009e-01,9.99997e-01
6.685968902e-01,9.47442e-01,9.99999e-01,9.99381e-01,9.48028e-01,9.99999e-01
6.719398746e-01,9.48732e-01,9.99999e-01,9.99686e-01,9.49028e-01,9.99999e-01
6.752995740e-01,9.49848e-01,9.99999e-01,9.99829e-01,9.50009e-01,9.99999e-01
6.786760719e-01,9.50738e-01,9.99999e-01,9.99753e-01,9.50972e-01,9.99999e-01
6.820694522e-01,9.51515e-01,9.99999e-01,9.99579e-01,9.51917e-01,9.99997e-01
6.854797995e-01,9.52323e-01,9.99999e-01,9.99457e-01,9.52844e-01,9.99994e-01
6.889071985e-01,9.52483e-01,9.99999e-01,9.98679e-01,9.53753e-01,9.99987e-01
6.923517345e-01,9.34251e-01,9.99999e-01,9.78736e-01,9.54646e-01,9.99897e-01
6.958134932e-01,9.44786e-01,9.99999e-01,9.88988e-01,9.55522e-01,9.99772e-01
6.992925606e-01,9.46087e-01,9.99999e-01,9.89438e-01,9.56381e-01,9.99794e-01
7.027890234e-01,9.44648e-01,9.99999e-01,9.87016e-01,9.57223e-01,9.99843e-01
7.063029686e-01,9.47503e-01,9.99999e-01,9.89067e-01,9.58050e-01,9.99921e-01
7.098344834e-01,9.48758e-01,9.99999e-01,9.89507e-01,9.58862e-01,9.99953e-01
7.133836558e-01,9.46116e-01,9.99999e-01,9.85979e-01,9.59658e-01,9.99908e-01
7.169505741e-01,8.57452e-01,9.99999e-01,8.93412e-01,9.60439e-01,9.99280e-01
7.205353270e-01,9.08761e-01,9.99999e-01,9.46640e-01,9.61205e-01,9.98731e-01
7.241380036e-01,8.95782e-01,9.99999e-01,9.32229e-01,9.61956e-01,9.98904e-01
7.277586936e-01,9.02845e-01,9.99999e-01,9.38672e-01,9.62693e-01,9.99103e-01
7.313974871e-01,9.00396e-01,9.99999e-01,9.34978e-01,9.63417e-01,9.99579e-01
7.350544745e-01,9.29180e-01,9.99999e-01,9.63893e-01,9.64126e-01,9.99853e-01
7.387297469e-01,9.38992e-01,9.99999e-01,9.73292e-01,9.64822e-01,9.99932e-01
7.424233956e-01,9.52801e-01,9.99999e-01,9.86853e-01,9.65505e-01,9.99987e-01
7.461355126e-01,9.58451e-01,9.99999e-01,9.92008e-01,9.66174e-01,9.99997e-01
7.498661902e-01,9.63231e-01,9.99999e-01,9.96276e-01,9.66831e-01,9.99998e-01
7.536155211e-01,9.65705e-01,9.99999e-01,9.98169e-01,9.67476e-01,9.99999e-01
7.573835987e-01,9.67196e-01,9.99999e-01,9.99057e-01,9.68108e-01,9.99999e-01
7.611705167e-01,9.68161e-01,9.99999e-01,9.99414e-01,9.68728e-01,9.99999e-01
7.649763693e-01,9.68980e-01,9.99999e-01,9.99632e-01,9.69336e-01,9.99999e-01
7.688012511e-01,9.69684e-01,9.99999e-01,9.99743e-01,9.69932e-01,9.99999e-01
7.726452574e-01,9.70313e-01,9.99999e-01,9.99789e-01,9.70517e-01,9.99999e-01
7.765084837e-01,9.70800e-01,9.99999e-01,9.99699e-01,9.71091e-01,9.99999e-01
7.803910261e-01,9.70392e-01,9.99999e-01,9.98702e-01,9.71654e-01,9.99998e-01
7.842929812e-01,9.67800e-01,9.99999e-01,9.95475e-01,9.72206e-01,9.99991e-01
7.882144461e-01,9.63669e-01,9.99999e-01,9.90730e-01,9.72748e-01,9.99935e-01
7.921555184e-01,9.68226e-01,9.99999e-01,9.94918e-01,9.73279e-01,9.99888e-01
7.961162960e-01,9.64928e-01,9.99999e-01,9.90993e-01,9.73799e-01,9.99894e-01
8.000968774e-01,9.64093e-01,9.99999e-01,9.89623e-01,9.74310e-01,9.99887e-01
8.040973618e-01,9.64607e-01,9.99999e-01,9.89616e-01,9.74811e-01,9.99913e-01
8.081178486e-01,9.52497e-01,9.99999e-01,9.76701e-01,9.75302e-01,9.99912e-01
8.121584379e-01,8.84464e-01,9.99999e-01,9.06710e-01,9.75784e-01,9.99671e-01
8.162192301e-01,8.68551e-01,9.99999e-01,8.90773e-01,9.76257e-01,9.98765e-01
8.203003262e-01,9.20848e-01,9.99999e-01,9.44159e-01,9.76720e-01,9.98554e-01
8.244018279e-01,9.01763e-01,9.99999e-01,9.23888e-01,9.77175e-01,9.98849e-01
8.285238370e-01,9.11293e-01,9.99999e-01,9.32996e-01,9.77621e-01,9.99096e-01
8.326664562e-01,9.11656e-01,9.99999e-01,9.32456e-01,9.78058e-01,9.99625e-01
8.368297885e-01,9.30659e-01,9.99999e-01,9.51201e-01,9.78486e-01,9.99914e-01
8.410139374e-01,9.50186e-01,9.99999e-01,9.70708e-01,9.78907e-01,9.99949e-01
8.452190071e-01,9.65123e-01,9.99999e-01,9.85532e-01,9.79319e-01,9.99969e-01
8.494451021e-01,9.71441e-01,9.99999e-01,9.91568e-01,9.79723e-01,9.99975e-01
8.536923276e-01,9.75219e-01,9.99999e-01,9.95013e-01,9.80120e-01,9.99984e-01
8.579607893e-01,9.77489e-01,9.99999e-01,9.96922e-01,9.80509e-01,9.99996e-01
8.622505932e-01,9.78973e-01,9.99999e-01,9.98046e-01,9.80890e-01,9.99998e-01
8.665618462e-01,9.80076e-01,9.99999e-01,9.98789e-01,9.81264e-01,9.99999e-01
8.708946554e-01,9.80268e-01,9.99999e-01,9.98612e-01,9.81631e-01,9.99998e-01
8.752491287e-01,9.80167e-01,9.99999e-01,9.98144e-01,9.81990e-01,9.99997e-01
8.796253743e-01,9.79811e-01,9.99999e-01,9.97428e-01,9.82343e-01,9.99993e-01
8.840235012e-01,9.79786e-01,9.99999e-01,9.97064e-01,9.82688e-01,9.99981e-01
8.884436187e-01,9.72432e-01,9.99999e-01,9.89271e-01,9.83027e-01,9.99948e-01
8.928858368e-01,8.78370e-01,9.99999e-01,8.93494e-01,9.83360e-01,9.99706e-01
8.973502660e-01,8.05790e-01,9.99999e-01,8.20385e-01,9.83686e-01,9.98498e-01
9.018370173e-01,8.87622e-01,9.99999e-01,9.04182e-01,9.84005e-01,9.97640e-01
9.063462024e-01,8.98275e-01,9.99999e-01,9.14481e-01,9.84319e-01,9.97926e-01
9.108779334e-01,8.54949e-01,9.99999e-01,8.70171e-01,9.84626e-01,9.97845e-01
9.154323231e-01,8.39367e-01,9.99999e-01,8.53732e-01,9.84928e-01,9.98218e-01
9.200094847e-01,8.69890e-01,9.99999e-01,8.83817e-01,9.85223e-01,9.99002e-01
9.246095321e-01,8.13527e-01,9.99999e-01,8.26434e-01,9.85513e-01,9.98850e-01
9.292325798e-01,2.88389e-01,9.99999e-01,2.93857e-01,9.85797e-01,9.95527e-01
9.338787427e-01,2.01574e-01,9.99999e-01,2.08244e-01,9.86075e-01,9.81640e-01
9.385481364e-01,5.09995e-01,9.99999e-01,5.28574e-01,9.86349e-01,9.78202e-01
9.432408771e-01,4.07082e-01,9.99999e-01,4.20524e-01,9.86616e-01,9.81166e-01
9.479570815e-01,2.96183e-01,9.99999e-01,3.04801e-01,9.86879e-01,9.84644e-01
9.526968669e-01,3.92867e-01,9.99999e-01,4.01760e-01,9.87136e-01,9.90605e-01
9.574603512e-01,4.14495e-01,9.99999e-01,4.21805e-01,9.87389e-01,9.95216e-01
9.622476530e-01,4.84038e-01,9.99999e-01,4.91724e-01,9.87636e-01,9.96690e-01
9.670588912e-01,6.52839e-01,9.99999e-01,6.62349e-01,9.87879e-01,9.97735e-01
9.718941857e-01,7.59291e-01,9.99999e-01,7.69705e-01,9.88117e-01,9.98332e-01
9.767536566e-01,7.94117e-01,9.99999e-01,8.04502e-01,9.88350e-01,9.98724e-01
9.816374249e-01,8.40778e-01,9.99999e-01,8.50866e-01,9.88579e-01,9.99558e-01
9.865456120e-01,8.93677e-01,9.99999e-01,9.03879e-01,9.88804e-01,9.99907e-01
9.914783401e-01,9.29027e-01,9.99999e-01,9.39360e-01,9.89023e-01,9.99974e-01
9.964357318e-01,9.56097e-01,9.99999e-01,9.66511e-01,9.89239e-01,9.99984e-01
1.001417910e+00,9.69433e-01,9.99999e-01,9.79791e-01,9.89450e-01,9.99976e-01
1.006425000e+00,9.78166e-01,9.99999e-01,9.88419e-01,9.89658e-01,9.99967e-01
1.011457125e+00,9.82710e-01,9.99999e-01,9.92805e-01,9.89861e-01,9.99969e-01
1.016514411e+00,9.85196e-01,9.99999e-01,9.95107e-01,9.90060e-01,9.99978e-01
1.021596983e+00,9.86372e-01,9.99999e-01,9.96098e-01,9.90256e-01,9.99978e-01
1.026704968e+00,9.87420e-01,9.99999e-01,9.96955e-01,9.90447e-01,9.99986e-01
1.031838492e+00,9.88441e-01,9.99999e-01,9.97788e-01,9.90635e-01,9.99995e-01
1.036997685e+00,9.89516e-01,9.99999e-01,9.98684e-01,9.90819e-01,9.99998e-01
1.042182673e+00,9.89444e-01,9.99999e-01,9.98429e-01,9.91000e-01,9.99999e-01
1.047393587e+00,9.89115e-01,9.99999e-01,9.97919e-01,9.91177e-01,9.99999e-01
1.052630555e+00,9.88519e-01,9.99999e-01,9.97144e-01,9.91350e-01,9.99998e-01
1.057893707e+00,9.86793e-01,9.99999e-01,9.95234e-01,9.91520e-01,9.99997e-01
1.063183176e+00,9.83921e-01,9.99999e-01,9.92172e-01,9.91687e-01,9.99995e-01
1.068499092e+00,9.78882e-01,9.99999e-01,9.86933e-01,9.91850e-01,9.99990e-01
1.073841587e+00,9.76834e-01,9.99999e-01,9.84719e-01,9.92011e-01,9.99980e-01
1.079210795e+00,9.72749e-01,9.99999e-01,9.80478e-01,9.92168e-01,9.99947e-01
1.084606849e+00,9.63013e-01,9.99999e-01,9.70586e-01,9.92322e-01,9.99873e-01
1.090029883e+00,9.50502e-01,9.99999e-01,9.57960e-01,9.92473e-01,9.99737e-01
1.095480033e+00,8.82712e-01,9.99999e-01,8.89694e-01,9.92621e-01,9.99526e-01
1.100957433e+00,7.38363e-01,9.99999e-01,7.44390e-01,9.92766e-01,9.99128e-01
1.106462220e+00,4.76153e-01,9.99999e-01,4.80262e-01,9.92909e-01,9.98522e-01
1.111994531e+00,2.18081e-01,9.99999e-01,2.20471e-01,9.93048e-01,9.96083e-01
1.117554504e+00,8.94741e-02,9.99999e-01,9.13733e-02,9.93185e-01,9.85932e-01
1.123142276e+00,1.80886e-01,9.99999e-01,1.88325e-01,9.93319e-01,9.66961e-01
1.128757988e+00,3.08207e-01,9.99999e-01,3.22534e-01,9.93451e-01,9.61879e-01
1.134401778e+00,1.43259e-01,9.99999e-01,1.49029e-01,9.93580e-01,9.67491e-01
1.140073787e+00,4.81933e-01,9.99999e-01,4.97962e-01,9.93706e-01,9.73940e-01
1.145774156e+00,2.40929e-01,9.99999e-01,2.48355e-01,9.93830e-01,9.76119e-01
1.151503026e+00,2.10710e-01,9.99999e-01,2.14866e-01,9.93951e-01,9.86625e-01
1.157260541e+00,2.57489e-01,9.99999e-01,2.60069e-01,9.94071e-01,9.95981e-01
1.163046844e+00,3.64588e-01,9.99999e-01,3.67138e-01,9.94187e-01,9.98859e-01
1.168862078e+00,4.88798e-01,9.99999e-01,4.91888e-01,9.94302e-01,9.99411e-01
1.174706389e+00,6.40791e-01,9.99999e-01,6.44892e-01,9.94414e-01,9.99220e-01
1.180579921e+00,7.59804e-01,9.99999e-01,7.64888e-01,9.94524e-01,9.98822e-01
1.186482820e+00,8.53224e-01,9.99999e-01,8.58866e-01,9.94632e-01,9.98790e-01
1.192415234e+00,9.09250e-01,9.99999e-01,9.14887e-01,9.94738e-01,9.99094e-01
1.198377311e+00,9.22164e-01,9.99999e-01,9.27738e-01,9.94841e-01,9.99144e-01
1.204369197e+00,9.26198e-01,9.99999e-01,9.31625e-01,9.94943e-01,9.99225e-01
1.210391043e+00,9.29381e-01,9.99999e-01,9.34451e-01,9.95043e-01,9.99528e-01
1.216442998e+00,9.39150e-01,9.99999e-01,9.44008e-01,9.95140e-01,9.99711e-01
1.222525213e+00,9.51355e-01,9.99999e-01,9.56079e-01,9.95236e-01,9.99820e-01
1.228637839e+00,9.64675e-01,9.99999e-01,9.69281e-01,9.95330e-01,9.99916e-01
1.234781029e+00,9.72617e-01,9.99999e-01,9.77113e-01,9.95422e-01,9.99975e-01
1.240954934e+00,9.81034e-01,9.99999e-01,9.85462e-01,9.95512e-01,9.99992e-01
1.247159708e+00,9.84312e-01,9.99999e-01,9.88665e-01,9.95600e-01,9.99995e-01
1.253395507e+00,9.85651e-01,9.99999e-01,9.89924e-01,9.95687e-01,9.99993e-01
1.259662485e+00,9.86223e-01,9.99999e-01,9.90418e-01,9.95772e-01,9.99990e-01
1.265960797e+00,9.80651e-01,9.99999e-01,9.84746e-01,9.95855e-01,9.99984e-01
1.272290601e+00,9.72123e-01,9.99999e-01,9.76113e-01,9.95937e-01,9.99973e-01
1.278652054e+00,9.49280e-01,9.99999e-01,9.53119e-01,9.96017e-01,9.99953e-01
1.285045314e+00,9.13014e-01,9.99999e-01,9.16671e-01,9.96096e-01,9.99912e-01
1.291470541e+00,8.55989e-01,9.99999e-01,8.59408e-01,9.96173e-01,9.99847e-01
1.297927893e+00,8.03189e-01,9.99999e-01,8.06442e-01,9.96248e-01,9.99715e-01
1.304417533e+00,7.73517e-01,9.99999e-01,7.76839e-01,9.96322e-01,9.99397e-01
1.310939621e+00,7.44844e-01,9.99999e-01,7.48463e-01,9.96395e-01,9.98763e-01
1.317494319e+00,7.27164e-01,9.99999e-01,7.31413e-01,9.96466e-01,9.97714e-01
1.324081790e+00,6.24099e-01,9.99999e-01,6.28612e-01,9.96535e-01,9.96271e-01
1.330702199e+00,2.15208e-01,9.99999e-01,2.17336e-01,9.96604e-01,9.93580e-01
1.337355710e+00,1.36371e-02,9.99999e-01,1.38534e-02,9.96671e-01,9.87674e-01
1.344042489e+00,3.61709e-04,9.99999e-01,3.76705e-04,9.96736e-01,9.63333e-01
1.350762701e+00,6.51872e-10,9.99999e-01,7.43188e-10,9.96801e-01,8.79944e-01
1.357516515e+00,2.07618e-14,9.99999e-01,3.03137e-14,9.96864e-01,6.87050e-01
1.364304097e+00,2.46961e-09,9.99999e-01,4.78250e-09,9.96925e-01,5.17976e-01
1.371125618e+00,2.70029e-06,9.99999e-01,5.03581e-06,9.96986e-01,5.37837e-01
1.377981246e+00,9.65972e-06,9.99999e-01,1.64867e-05,9.97045e-01,5.87646e-01
1.384871152e+00,3.85573e-08,9.99999e-01,6.34611e-08,9.97104e-01,6.09336e-01
1.391795508e+00,2.99895e-09,9.99999e-01,4.82260e-09,9.97161e-01,6.23623e-01
1.398754485e+00,1.76925e-07,9.99999e-01,2.62060e-07,9.97217e-01,6.77014e-01
1.405748258e+00,2.14316e-07,9.99999e-01,2.69943e-07,9.97272e-01,7.96101e-01
1.412776999e+00,2.51176e-07,9.99999e-01,2.79484e-07,9.97326e-01,9.01124e-01
1.419840884e+00,5.54079e-07,9.99999e-01,5.81482e-07,9.97378e-01,9.55376e-01
1.426940089e+00,2.66243e-05,9.99999e-01,2.76349e-05,9.97430e-01,9.65913e-01
1.434074789e+00,2.07420e-04,9.99999e-01,2.16631e-04,9.97481e-01,9.59901e-01
1.441245163e+00,9.90946e-04,9.99999e-01,1.03842e-03,9.97530e-01,9.56639e-01
1.448451389e+00,8.33369e-03,9.99998e-01,8.68452e-03,9.97579e-01,9.61930e-01
1.455693646e+00,3.78263e-02,9.99999e-01,3.90788e-02,9.97627e-01,9.70250e-01
1.462972114e+00,5.35176e-02,9.99999e-01,5.52099e-02,9.97674e-01,9.71607e-01
1.470286975e+00,3.40981e-02,9.99999e-01,3.51575e-02,9.97719e-01,9.72084e-01
