#,Wave/freq,Total,N2,H2O,Rayleigh,CIA
4.000000000e-01,7.37936e-02,9.99999e-01,9.99706e-01,7.38153e-02,9.99999e-01
4.020000000e-01,7.77046e-02,9.99999e-01,9.99817e-01,7.77187e-02,9.99999e-01
4.040100000e-01,8.17348e-02,9.99999e-01,9.99922e-01,8.17411e-02,9.99999e-01
4.060300500e-01,8.58845e-02,9.99999e-01,9.99982e-01,8.58860e-02,9.99999e-01
4.080602003e-01,9.01525e-02,9.99999e-01,9.99993e-01,9.01530e-02,9.99999e-01
4.101005013e-01,9.45414e-02,9.99999e-01,9.99999e-01,9.45414e-02,9.99999e-01
4.121510038e-01,9.90493e-02,9.99999e-01,9.99988e-01,9.90503e-02,9.99999e-01
4.142117588e-01,1.03670e-01,9.99999e-01,9.99917e-01,1.03679e-01,9.99999e-01
4.162828176e-01,1.08386e-01,9.99999e-01,9.99636e-01,1.08426e-01,9.99999e-01
4.183642317e-01,1.13265e-01,9.99999e-01,9.99783e-01,1.13290e-01,9.99999e-01
4.204560528e-01,1.18254e-01,9.99999e-01,9.99867e-01,1.18270e-01,9.99999e-01
4.225583331e-01,1.23357e-01,9.99999e-01,9.99950e-01,1.23363e-01,9.99999e-01
4.246711247e-01,1.28564e-01,9.99999e-01,9.99959e-01,1.28569e-01,9.99999e-01
4.267944804e-01,1.33878e-01,9.99999e-01,9.99941e-01,1.33886e-01,9.99999e-01
4.289284528e-01,1.39304e-01,9.99999e-01,9.99954e-01,1.39310e-01,9.99999e-01
4.310730950e-01,1.44838e-01,9.99999e-01,9.99980e-01,1.44841e-01,9.99999e-01
4.332284605e-01,1.50475e-01,9.99999e-01,9.99994e-01,1.50476e-01,9.99999e-01
4.353946028e-01,1.56211e-01,9.99999e-01,9.99997e-01,1.56212e-01,9.99999e-01
4.375715758e-01,1.62041e-01,9.99999e-01,9.99962e-01,1.62047e-01,9.99999e-01
4.397594337e-01,1.67923e-01,9.99999e-01,9.99677e-01,1.67978e-01,9.99999e-01
4.419582309e-01,1.73717e-01,9.99999e-01,9.98360e-01,1.74002e-01,9.99999e-01
4.441680220e-01,1.79890e-01,9.99999e-01,9.98739e-01,1.80117e-01,9.99999e-01
4.463888621e-01,1.86075e-01,9.99999e-01,9.98681e-01,1.86320e-01,9.99999e-01
4.486208064e-01,1.92451e-01,9.99999e-01,9.99183e-01,1.92608e-01,9.99999e-01
4.508639105e-01,1.98901e-01,9.99999e-01,9.99617e-01,1.98977e-01,9.99999e-01
4.531182300e-01,2.05394e-01,9.99999e-01,9.99848e-01,2.05425e-01,9.99999e-01
4.553838212e-01,2.11927e-01,9.99999e-01,9.99896e-01,2.11949e-01,9.99999e-01
4.576607403e-01,2.18534e-01,9.99999e-01,9.99952e-01,2.18544e-01,9.99999e-01
4.599490440e-01,2.25201e-01,9.99999e-01,9.99966e-01,2.25209e-01,9.99999e-01
4.622487892e-01,2.31937e-01,9.99999e-01,9.99993e-01,2.31939e-01,9.99999e-01
4.645600332e-01,2.38725e-01,9.99999e-01,9.99976e-01,2.38731e-01,9.99999e-01
4.668828333e-01,2.45486e-01,9.99999e-01,9.99610e-01,2.45582e-01,9.99999e-01
4.692172475e-01,2.52280e-01,9.99999e-01,9.99173e-01,2.52488e-01,9.99999e-01
4.715633337e-01,2.59307e-01,9.99999e-01,9.99458e-01,2.59447e-01,9.99999e-01
4.739211504e-01,2.66317e-01,9.99999e-01,9.99483e-01,2.66454e-01,9.99999e-01
4.762907561e-01,2.73434e-01,9.99999e-01,9.99732e-01,2.73507e-01,9.99999e-01
4.786722099e-01,2.80570e-01,9.99999e-01,9.99890e-01,2.80601e-01,9.99999e-01
4.810655710e-01,2.87724e-01,9.99999e-01,9.99966e-01,2.87734e-01,9.99999e-01
4.834708988e-01,2.94807e-01,9.99999e-01,9.99677e-01,2.94902e-01,9.99999e-01
4.858882533e-01,3.01925e-01,9.99999e-01,9.99415e-01,3.02101e-01,9.99999e-01
4.883176946e-01,3.09177e-01,9.99999e-01,9.99508e-01,3.09329e-01,9.99999e-01
4.907592831e-01,3.16442e-01,9.99999e-01,9.99557e-01,3.16582e-01,9.99999e-01
4.932130795e-01,3.23755e-01,9.99999e-01,9.99685e-01,3.23857e-01,9.99999e-01
4.956791449e-01,3.31095e-01,9.99999e-01,9.99833e-01,3.31150e-01,9.99999e-01
4.981575406e-01,3.38176e-01,9.99999e-01,9.99166e-01,3.38458e-01,9.99999e-01
5.006483283e-01,3.45025e-01,9.99999e-01,9.97831e-01,3.45779e-01,9.99984e-01
5.031515699e-01,3.49231e-01,9.99999e-01,9.89132e-01,3.53109e-01,9.99884e-01
5.056673278e-01,3.58328e-01,9.99999e-01,9.94257e-01,3.60445e-01,9.99868e-01
5.081956644e-01,3.65091e-01,9.99999e-01,9.92759e-01,3.67783e-01,9.99919e-01
5.107366428e-01,3.73282e-01,9.99999e-01,9.95108e-01,3.75122e-01,9.99985e-01
5.132903260e-01,3.81389e-01,9.99999e-01,9.97205e-01,3.82458e-01,9.99997e-01
5.158567776e-01,3.89328e-01,9.99999e-01,9.98819e-01,3.89788e-01,9.99999e-01
5.184360615e-01,3.96922e-01,9.99999e-01,9.99527e-01,3.97110e-01,9.99999e-01
5.210282418e-01,4.04349e-01,9.99999e-01,9.99822e-01,4.04421e-01,9.99999e-01
5.236333830e-01,4.11422e-01,9.99999e-01,9.99287e-01,4.11718e-01,9.99994e-01
5.262515499e-01,4.18809e-01,9.99999e-01,9.99554e-01,4.18998e-01,9.99992e-01
5.288828077e-01,4.26083e-01,9.99999e-01,9.99589e-01,4.26260e-01,9.99995e-01
5.315272217e-01,4.33345e-01,9.99999e-01,9.99641e-01,4.33500e-01,9.99998e-01
5.341848578e-01,4.40613e-01,9.99999e-01,9.99763e-01,4.40717e-01,9.99999e-01
5.368557821e-01,4.47534e-01,9.99999e-01,9.99167e-01,4.47907e-01,9.99997e-01
5.395400610e-01,4.53687e-01,9.99999e-01,9.96988e-01,4.55070e-01,9.99971e-01
5.422377613e-01,4.60388e-01,9.99999e-01,9.96146e-01,4.62202e-01,9.99928e-01
5.449489501e-01,4.67577e-01,9.99999e-01,9.96397e-01,4.69302e-01,9.99927e-01
5.476736949e-01,4.74839e-01,9.99999e-01,9.96827e-01,4.76367e-01,9.99964e-01
5.504120634e-01,4.82278e-01,9.99999e-01,9.97695e-01,4.83396e-01,9.99989e-01
5.531641237e-01,4.89818e-01,9.99999e-01,9.98840e-01,4.90387e-01,9.99998e-01
5.559299443e-01,4.97060e-01,9.99999e-01,9.99440e-01,4.97338e-01,9.99999e-01
5.587095940e-01,5.04070e-01,9.99999e-01,9.99647e-01,5.04247e-01,9.99999e-01
5.615031420e-01,5.10913e-01,9.99999e-01,9.99607e-01,5.11113e-01,9.99998e-01
5.643106577e-01,5.17700e-01,9.99999e-01,9.99551e-01,5.17934e-01,9.99995e-01
5.671322110e-01,5.21826e-01,9.99999e-01,9.94553e-01,5.24709e-01,9.99951e-01
5.699678720e-01,5.28335e-01,9.99999e-01,9.94310e-01,5.31436e-01,9.99852e-01
5.728177114e-01,5.34832e-01,9.99999e-01,9.94023e-01,5.38113e-01,9.99877e-01
5.756818000e-01,5.41718e-01,9.99999e-01,9.94522e-01,5.44740e-01,9.99928e-01
5.785602090e-01,5.48676e-01,9.99999e-01,9.95231e-01,5.51316e-01,9.99979e-01
5.814530100e-01,5.55157e-01,9.99999e-01,9.95201e-01,5.57838e-01,9.99989e-01
5.843602750e-01,5.61050e-01,9.99999e-01,9.94258e-01,5.64307e-01,9.99967e-01
5.872820764e-01,5.43143e-01,9.99999e-01,9.52007e-01,5.70721e-01,9.99652e-01
5.902184868e-01,5.43127e-01,9.99999e-01,9.42055e-01,5.77079e-01,9.99055e-01
5.931695792e-01,5.58856e-01,9.99999e-01,9.58832e-01,5.83379e-01,9.99091e-01
5.961354271e-01,5.62719e-01,9.99999e-01,9.54869e-01,5.89623e-01,9.99477e-01
5.991161043e-01,5.75955e-01,9.99999e-01,9.66835e-01,5.95807e-01,9.99837e-01
6.021116848e-01,5.90520e-01,9.99999e-01,9.81056e-01,6.01933e-01,9.99981e-01
6.051222432e-01,6.02143e-01,9.99999e-01,9.90370e-01,6.07999e-01,9.99998e-01
6.081478544e-01,6.11445e-01,9.99999e-01,9.95832e-01,6.14004e-01,9.99999e-01
6.111885937e-01,6.18856e-01,9.99999e-01,9.98238e-01,6.19948e-01,9.99999e-01
6.142445367e-01,6.25337e-01,9.99999e-01,9.99211e-01,6.25830e-01,9.99999e-01
6.173157594e-01,6.31376e-01,9.99999e-01,9.99564e-01,6.31651e-01,9.99999e-01
6.204023382e-01,6.37173e-01,9.99999e-01,9.99630e-01,6.37409e-01,9.99999e-01
6.235043498e-01,6.42046e-01,9.99999e-01,9.98357e-01,6.43104e-01,9.99995e-01
6.266218716e-01,6.43136e-01,9.99999e-01,9.91425e-01,6.48736e-01,9.99939e-01
6.297549810e-01,6.52164e-01,9.99999e-01,9.96847e-01,6.54305e-01,9.99878e-01
6.329037559e-01,6.55648e-01,9.99999e-01,9.93786e-01,6.59810e-01,9.99902e-01
6.360682746e-01,6.61683e-01,9.99999e-01,9.94691e-01,6.65252e-01,9.99942e-01
6.392486160e-01,6.66008e-01,9.99999e-01,9.93133e-01,6.70629e-01,9.99974e-01
6.424448591e-01,6.69677e-01,9.99999e-01,9.90775e-01,6.75943e-01,9.99954e-01
6.456570834e-01,6.52426e-01,9.99999e-01,9.58018e-01,6.81192e-01,9.99740e-01
6.488853688e-01,6.64912e-01,9.99999e-01,9.69368e-01,6.86377e-01,9.99336e-01
6.521297956e-01,6.69593e-01,9.99999e-01,9.68851e-01,6.91498e-01,9.99452e-01
6.553904446e-01,6.74478e-01,9.99999e-01,9.68698e-01,6.96556e-01,9.99592e-01
6.586673968e-01,6.82699e-01,9.99999e-01,9.73263e-01,7.01549e-01,9.99863e-01
6.619607338e-01,6.95848e-01,9.99999e-01,9.84982e-01,7.06478e-01,9.99970e-01
6.652705375e-01,7.04899e-01,9.99999e-01,9.90955e-01,7.11343e-01,9.99984e-01
6.685968902e-01,7.13385e-01,9.99999e-01,9.96148e-01,7.16145e-01,9.99997e-01
6.719398746e-01,7.19477e-01,9.99999e-01,9.98048e-01,7.20883e-01,9.99999e-01
6.752995740e-01,7.24811e-01,9.99999e-01,9.98969e-01,7.25559e-01,9.99999e-01
6.786760719e-01,7.29044e-01,9.99999e-01,9.98457e-01,7.30171e-01,9.99997e-01
6.820694522e-01,7.32782e-01,9.99999e-01,9.97374e-01,7.34721e-01,9.99985e-01
6.854797995e-01,7.36683e-01,9.99999e-01,9.96612e-01,7.39208e-01,9.99970e-01
6.889071985e-01,7.37453e-01,9.99999e-01,9.91760e-01,7.43633e-01,9.99926e-01
6.923517345e-01,6.54549e-01,9.99999e-01,8.75629e-01,7.47997e-01,9.99359e-01
6.958134932e-01,7.01928e-01,9.99999e-01,9.34368e-01,7.52299e-01,9.98581e-01
6.992925606e-01,7.07297e-01,9.99999e-01,9.36105e-01,7.56541e-01,9.98721e-01
7.027890234e-01,7.00749e-01,9.99999e-01,9.22063e-01,7.60721e-01,9.99023e-01
7.063029686e-01,7.13851e-01,9.99999e-01,9.33784e-01,7.64842e-01,9.99513e-01
7.098344834e-01,7.19715e-01,9.99999e-01,9.36297e-01,7.68903e-01,9.99712e-01
7.133836558e-01,7.07787e-01,9.99999e-01,9.16272e-01,7.72904e-01,9.99428e-01
7.169505741e-01,4.03877e-01,9.99999e-01,5.22235e-01,7.76847e-01,9.95513e-01
7.205353270e-01,5.59994e-01,9.99999e-01,7.22981e-01,7.80731e-01,9.92097e-01
7.241380036e-01,5.12199e-01,9.99999e-01,6.57337e-01,7.84558e-01,9.93172e-01
7.277586936e-01,5.37437e-01,9.99999e-01,6.85572e-01,7.88327e-01,9.94415e-01
7.313974871e-01,5.25726e-01,9.99999e-01,6.65505e-01,7.92039e-01,9.97380e-01
7.350544745e-01,6.34514e-01,9.99999e-01,7.98159e-01,7.95695e-01,9.99088e-01
7.387297469e-01,6.75760e-01,9.99999e-01,8.45798e-01,7.99295e-01,9.99582e-01
7.424233956e-01,7.39383e-01,9.99999e-01,9.21025e-01,8.02840e-01,9.99926e-01
7.461355126e-01,7.67003e-01,9.99999e-01,9.51238e-01,8.06330e-01,9.99987e-01
7.498661902e-01,7.91152e-01,9.99999e-01,9.77017e-01,8.09766e-01,9.99994e-01
7.536155211e-01,8.03901e-01,9.99999e-01,9.88631e-01,8.13148e-01,9.99996e-01
7.573835987e-01,8.11687e-01,9.99999e-01,9.94133e-01,8.16477e-01,9.99998e-01
7.611705167e-01,8.16762e-01,9.99999e-01,9.96350e-01,8.19753e-01,9.99999e-01
7.649763693e-01,8.21093e-01,9.99999e-01,9.97709e-01,8.22978e-01,9.99999e-01
7.688012511e-01,8.24832e-01,9.99999e-01,9.98403e-01,8.26151e-01,9.99999e-01
7.726452574e-01,8.28183e-01,9.99999e-01,9.98685e-01,8.29273e-01,9.99998e-01
7.765084837e-01,8.30781e-01,9.99999e-01,9.98122e-01,8.32345e-01,9.99997e-01
7.803910261e-01,8.28599e-01,9.99999e-01,9.91904e-01,8.35368e-01,9.99991e-01
7.842929812e-01,8.14887e-01,9.99999e-01,9.72073e-01,8.38341e-01,9.99947e-01
7.882144461e-01,7.93500e-01,9.99999e-01,9.43595e-01,8.41266e-01,9.99601e-01
7.921555184e-01,8.17250e-01,9.99999e-01,9.68811e-01,8.44143e-01,9.99307e-01
7.961162960e-01,8.00047e-01,9.99999e-01,9.45217e-01,8.46973e-01,9.99341e-01
8.000968774e-01,7.95604e-01,9.99999e-01,9.36929e-01,8.49756e-01,9.99298e-01
8.040973618e-01,7.98315e-01,9.99999e-01,9.36947e-01,8.52493e-01,9.99464e-01
8.081178486e-01,7.39099e-01,9.99999e-01,8.64723e-01,8.55185e-01,9.99458e-01
8.121584379e-01,4.77978e-01,9.99999e-01,5.58338e-01,8.57832e-01,9.97949e-01
8.162192301e-01,4.32930e-01,9.99999e-01,5.07051e-01,8.60434e-01,9.92310e-01
8.203003262e-01,6.20361e-01,9.99999e-01,7.25374e-01,8.62992e-01,9.91002e-01
8.244018279e-01,5.63493e-01,9.99999e-01,6.55754e-01,8.65508e-01,9.92832e-01
8.285238370e-01,5.67758e-01,9.99999e-01,6.57819e-01,8.67981e-01,9.94366e-01
8.326664562e-01,5.71243e-01,9.99999e-01,6.57825e-01,8.70411e-01,9.97666e-01
8.368297885e-01,6.41885e-01,9.99999e-01,7.35823e-01,8.72801e-01,9.99466e-01
8.410139374e-01,7.28092e-01,9.99999e-01,8.32222e-01,8.75149e-01,9.99687e-01
8.452190071e-01,8.01332e-01,9.99999e-01,9.13412e-01,8.77458e-01,9.99813e-01
8.494451021e-01,8.34324e-01,9.99999e-01,9.48531e-01,8.79726e-01,9.99850e-01
8.536923276e-01,8.54809e-01,9.99999e-01,9.69306e-01,8.81956e-01,9.99908e-01
8.579607893e-01,8.67279e-01,9.99999e-01,9.80942e-01,8.84147e-01,9.99977e-01
8.622505932e-01,8.75544e-01,9.99999e-01,9.87867e-01,8.86300e-01,9.99995e-01
8.665618462e-01,8.81715e-01,9.99999e-01,9.92460e-01,8.88416e-01,9.99997e-01
8.708946554e-01,8.82795e-01,9.99999e-01,9.91357e-01,8.90494e-01,9.99994e-01
8.752491287e-01,8.82227e-01,9.99999e-01,9.88460e-01,8.92537e-01,9.99987e-01
8.796253743e-01,8.80226e-01,9.99999e-01,9.84029e-01,8.94543e-01,9.99963e-01
8.840235012e-01,8.80100e-01,9.99999e-01,9.81800e-01,8.96514e-01,9.99888e-01
8.884436187e-01,8.40656e-01,9.99999e-01,9.35969e-01,8.98451e-01,9.99682e-01
8.928858368e-01,4.68792e-01,9.99999e-01,5.21629e-01,9.00353e-01,9.98169e-01
8.973502660e-01,2.90154e-01,9.99999e-01,3.24633e-01,9.02222e-01,9.90653e-01
9.018370173e-01,5.02647e-01,9.99999e-01,5.64259e-01,9.04057e-01,9.85344e-01
9.063462024e-01,5.32765e-01,9.99999e-01,5.95808e-01,9.05860e-01,9.87114e-01
9.108779334e-01,4.01793e-01,9.99999e-01,4.48689e-01,9.07631e-01,9.86613e-01
9.154323231e-01,3.55806e-01,9.99999e-01,3.95649e-01,9.09370e-01,9.88922e-01
9.200094847e-01,4.43586e-01,9.99999e-01,4.89925e-01,9.11078e-01,9.93784e-01
9.246095321e-01,3.23540e-01,9.99999e-01,3.57020e-01,9.12756e-01,9.92842e-01
9.292325798e-01,1.00184e-02,9.99999e-01,1.13429e-02,9.14403e-01,9.65910e-01
9.338787427e-01,6.04253e-04,9.99999e-01,7.47758e-04,9.16021e-01,8.82169e-01
9.385481364e-01,4.15236e-02,9.99999e-01,5.19348e-02,9.17609e-01,8.71322e-01
9.432408771e-01,1.77640e-02,9.99999e-01,2.17647e-02,9.19169e-01,8.87955e-01
9.479570815e-01,2.39205e-03,9.99999e-01,2.86190e-03,9.20701e-01,9.07815e-01
9.526968669e-01,8.65629e-03,9.99999e-01,9.95688e-03,9.22204e-01,9.42716e-01
9.574603512e-01,1.14064e-02,9.99999e-01,1.27245e-02,9.23681e-01,9.70480e-01
9.622476530e-01,2.36140e-02,9.99999e-01,2.60594e-02,9.25130e-01,9.79493e-01
9.670588912e-01,1.04084e-01,9.99999e-01,1.13937e-01,9.26553e-01,9.85929e-01
9.718941857e-01,1.98176e-01,9.99999e-01,2.15802e-01,9.27951e-01,9.89623e-01
9.767536566e-01,2.56742e-01,9.99999e-01,2.78478e-01,9.29322e-01,9.92060e-01
9.816374249e-01,3.50781e-01,9.99999e-01,3.77953e-01,9.30669e-01,9.97245e-01
9.865456120e-01,5.01971e-01,9.99999e-01,5.38910e-01,9.31990e-01,9.99425e-01
9.914783401e-01,6.33610e-01,9.99999e-01,6.79008e-01,9.33288e-01,9.99840e-01
9.964357318e-01,7.56534e-01,9.99999e-01,8.09581e-01,9.34562e-01,9.99906e-01
1.001417910e+00,8.24036e-01,9.99999e-01,8.80682e-01,9.35812e-01,9.99857e-01
1.006425000e+00,8.71160e-01,9.99999e-01,9.29882e-01,9.37039e-01,9.99796e-01
1.011457125e+00,8.96757e-01,9.99999e-01,9.55961e-01,9.38243e-01,9.99811e-01
1.016514411e+00,9.10976e-01,9.99999e-01,9.69843e-01,9.39425e-01,9.99866e-01
1.021596983e+00,9.17787e-01,9.99999e-01,9.75888e-01,9.40585e-01,9.99869e-01
1.026704968e+00,9.23883e-01,9.99999e-01,9.81134e-01,9.41724e-01,9.99917e-01
1.031838492e+00,9.29877e-01,9.99999e-01,9.86273e-01,9.42842e-01,9.99974e-01
1.036997685e+00,9.36206e-01,9.99999e-01,9.91812e-01,9.43938e-01,9.99995e-01
1.042182673e+00,9.35772e-01,9.99999e-01,9.90221e-01,9.45015e-01,9.99997e-01
1.047393587e+00,9.33834e-01,9.99999e-01,9.87066e-01,9.46071e-01,9.99997e-01
1.052630555e+00,9.30325e-01,9.99999e-01,9.82284e-01,9.47107e-01,9.99994e-01
1.057893707e+00,9.20234e-01,9.99999e-01,9.70592e-01,9.48125e-01,9.99989e-01
1.063183176e+00,9.03723e-01,9.99999e-01,9.52190e-01,9.49123e-01,9.99974e-01
1.068499092e+00,8.75439e-01,9.99999e-01,9.21465e-01,9.50102e-01,9.99944e-01
1.073841587e+00,8.64578e-01,9.99999e-01,9.09174e-01,9.51063e-01,9.99878e-01
1.079210795e+00,8.42212e-01,9.99999e-01,8.84960e-01,9.52006e-01,9.99671e-01
1.084606849e+00,7.92051e-01,9.99999e-01,8.31828e-01,9.52932e-01,9.99210e-01
1.090029883e+00,7.32487e-01,9.99999e-01,7.69191e-01,9.53839e-01,9.98365e-01
1.095480033e+00,4.68476e-01,9.99999e-01,4.92143e-01,9.54730e-01,9.97045e-01
1.100957433e+00,1.74218e-01,9.99999e-01,1.83308e-01,9.55604e-01,9.94568e-01
1.106462220e+00,2.22514e-02,9.99999e-01,2.34802e-02,9.56462e-01,9.90803e-01
1.111994531e+00,4.43135e-04,9.99999e-01,4.74391e-04,9.57303e-01,9.75772e-01
1.117554504e+00,1.54125e-05,9.99999e-01,1.75754e-05,9.58129e-01,9.15259e-01
1.123142276e+00,5.94979e-04,9.99999e-01,7.65430e-04,9.58938e-01,8.10596e-01
1.128757988e+00,2.37776e-03,9.99999e-01,3.15875e-03,9.59733e-01,7.84334e-01
1.134401778e+00,2.07368e-03,9.99999e-01,2.65426e-03,9.60512e-01,8.13381e-01
1.140073787e+00,1.79951e-02,9.99999e-01,2.20789e-02,9.61277e-01,8.47864e-01
1.145774156e+00,1.69663e-03,9.99999e-01,2.05119e-03,9.62027e-01,8.59791e-01
1.151503026e+00,5.70147e-04,9.99999e-01,6.44191e-04,9.62763e-01,9.19287e-01
1.157260541e+00,6.29277e-04,9.99999e-01,6.69767e-04,9.63485e-01,9.75151e-01
1.163046844e+00,4.23770e-03,9.99999e-01,4.42652e-03,9.64193e-01,9.92893e-01
1.168862078e+00,1.82157e-02,9.99999e-01,1.89480e-02,9.64888e-01,9.96332e-01
1.174706389e+00,7.62405e-02,9.99999e-01,7.93445e-02,9.65569e-01,9.95141e-01
1.180579921e+00,1.97120e-01,9.99999e-01,2.05515e-01,9.66238e-01,9.92662e-01
1.186482820e+00,3.78838e-01,9.99999e-01,3.94782e-01,9.66893e-01,9.92469e-01
1.192415234e+00,5.54558e-01,9.99999e-01,5.76418e-01,9.67537e-01,9.94355e-01
1.198377311e+00,6.05759e-01,9.99999e-01,6.29029e-01,9.68168e-01,9.94667e-01
1.204369197e+00,6.26280e-01,9.99999e-01,6.49593e-01,9.68786e-01,9.95174e-01
1.210391043e+00,6.37188e-01,9.99999e-01,6.59242e-01,9.69393e-01,9.97061e-01
1.216442998e+00,6.79602e-01,9.99999e-01,7.01892e-01,9.69989e-01,9.98199e-01
1.222525213e+00,7.33892e-01,9.99999e-01,7.56989e-01,9.70573e-01,9.98881e-01
1.228637839e+00,7.99504e-01,9.99999e-01,8.23687e-01,9.71145e-01,9.99479e-01
1.234781029e+00,8.41386e-01,9.99999e-01,8.66012e-01,9.71707e-01,9.99850e-01
1.240954934e+00,8.87527e-01,9.99999e-01,9.12888e-01,9.72258e-01,9.99957e-01
1.247159708e+00,9.06053e-01,9.99999e-01,9.31412e-01,9.72799e-01,9.99972e-01
1.253395507e+00,9.13728e-01,9.99999e-01,9.38797e-01,9.73329e-01,9.99964e-01
1.259662485e+00,9.17000e-01,9.99999e-01,9.41676e-01,9.73849e-01,9.99944e-01
1.265960797e+00,8.85397e-01,9.99999e-01,9.08780e-01,9.74358e-01,9.99906e-01
1.272290601e+00,8.38862e-01,9.99999e-01,8.60636e-01,9.74858e-01,9.99835e-01
1.278652054e+00,7.26534e-01,9.99999e-01,7.45112e-01,9.75349e-01,9.99709e-01
1.285045314e+00,5.77264e-01,9.99999e-01,5.91883e-01,9.75830e-01,9.99457e-01
1.291470541e+00,3.94006e-01,9.99999e-01,4.03953e-01,9.76302e-01,9.99048e-01
1.297927893e+00,2.77855e-01,9.99999e-01,2.84970e-01,9.76764e-01,9.98224e-01
1.304417533e+00,2.26996e-01,9.99999e-01,2.33163e-01,9.77218e-01,9.96242e-01
1.310939621e+00,1.56885e-01,9.99999e-01,1.61714e-01,9.77663e-01,9.92301e-01
1.317494319e+00,1.63483e-01,9.99999e-01,1.69550e-01,9.78099e-01,9.85805e-01
1.324081790e+00,7.71247e-02,9.99999e-01,8.06785e-02,9.78527e-01,9.76927e-01
1.330702199e+00,6.72178e-03,9.99999e-01,7.14833e-03,9.78947e-01,9.60549e-01
1.337355710e+00,8.60661e-10,9.99999e-01,9.49631e-10,9.79358e-01,9.25412e-01
1.344042489e+00,2.61685e-14,9.99999e-01,3.37331e-14,9.79762e-01,7.91774e-01
1.350762701e+00,2.58046e-51,9.99999e-01,5.85550e-51,9.80157e-01,4.49610e-01
1.357516515e+00,5.73417e-79,9.99999e-01,6.10736e-78,9.80546e-01,9.57521e-02
1.364304097e+00,4.88011e-48,9.99999e-01,3.03674e-46,9.80926e-01,1.63826e-02
1.371125618e+00,2.34441e-28,9.99999e-01,1.15269e-26,9.81299e-01,2.07262e-02
1.377981246e+00,1.76314e-27,9.99999e-01,4.98184e-26,9.81665e-01,3.60523e-02
1.384871152e+00,4.32890e-39,9.99999e-01,9.74845e-38,9.82024e-01,4.52188e-02
1.391795508e+00,2.17028e-48,9.99999e-01,4.22678e-47,9.82376e-01,5.22671e-02
1.398754485e+00,2.33326e-36,9.99999e-01,2.71848e-35,9.82721e-01,8.73383e-02
1.405748258e+00,6.43250e-36,9.99999e-01,2.72123e-35,9.83059e-01,2.40455e-01
1.412776999e+00,1.50948e-34,9.99998e-01,2.94240e-34,9.83391e-01,5.21673e-01
1.419840884e+00,3.59488e-34,9.99997e-01,4.86101e-34,9.83717e-01,7.51774e-01
1.426940089e+00,8.28537e-22,9.99997e-01,1.04578e-21,9.84036e-01,8.05120e-01
1.434074789e+00,1.69760e-19,9.99997e-01,2.22727e-19,9.84348e-01,7.74307e-01
1.441245163e+00,6.04136e-16,9.99998e-01,8.09421e-16,9.84655e-01,7.58011e-01
1.448451389e+00,2.92239e-10,9.99996e-01,3.78159e-10,9.84956e-01,7.84594e-01
1.455693646e+00,3.37281e-07,9.99998e-01,4.13449e-07,9.85251e-01,8.27985e-01
1.462972114e+00,4.00645e-07,9.99998e-01,4.86708e-07,9.85540e-01,8.35249e-01
1.470286975e+00,9.67278e-08,9.99998e-01,1.17113e-07,9.85824e-01,8.37814e-01
