#,Wave/freq,Total,N2,H2O,Rayleigh,CIA
4.000000000e-01,3.38784e-01,9.99999e-01,9.99877e-01,3.38825e-01,9.99999e-01
4.020000000e-01,3.46128e-01,9.99999e-01,9.99923e-01,3.46154e-01,9.99999e-01
4.040100000e-01,3.53473e-01,9.99999e-01,9.99967e-01,3.53484e-01,9.99999e-01
4.060300500e-01,3.60817e-01,9.99999e-01,9.99992e-01,3.60820e-01,9.99999e-01
4.080602003e-01,3.68158e-01,9.99999e-01,9.99997e-01,3.68159e-01,9.99999e-01
4.101005013e-01,3.75497e-01,9.99999e-01,9.99999e-01,3.75497e-01,9.99999e-01
4.121510038e-01,3.82831e-01,9.99999e-01,9.99995e-01,3.82833e-01,9.99999e-01
4.142117588e-01,3.90150e-01,9.99999e-01,9.99965e-01,3.90163e-01,9.99999e-01
4.162828176e-01,3.97424e-01,9.99999e-01,9.99848e-01,3.97484e-01,9.99999e-01
4.183642317e-01,4.04758e-01,9.99999e-01,9.99909e-01,4.04794e-01,9.99999e-01
4.204560528e-01,4.12068e-01,9.99999e-01,9.99944e-01,4.12090e-01,9.99999e-01
4.225583331e-01,4.19361e-01,9.99999e-01,9.99978e-01,4.19370e-01,9.99999e-01
4.246711247e-01,4.26624e-01,9.99999e-01,9.99983e-01,4.26631e-01,9.99999e-01
4.267944804e-01,4.33859e-01,9.99999e-01,9.99975e-01,4.33870e-01,9.99999e-01
4.289284528e-01,4.41077e-01,9.99999e-01,9.99980e-01,4.41085e-01,9.99999e-01
4.310730950e-01,4.48271e-01,9.99999e-01,9.99991e-01,4.48274e-01,9.99999e-01
4.332284605e-01,4.55434e-01,9.99999e-01,9.99997e-01,4.55435e-01,9.99999e-01
4.353946028e-01,4.62566e-01,9.99999e-01,9.99998e-01,4.62566e-01,9.99999e-01
4.375715758e-01,4.69657e-01,9.99999e-01,9.99984e-01,4.69664e-01,9.99999e-01
4.397594337e-01,4.76664e-01,9.99999e-01,9.99866e-01,4.76728e-01,9.99999e-01
4.419582309e-01,4.83429e-01,9.99999e-01,9.99325e-01,4.83755e-01,9.99999e-01
4.441680220e-01,4.90486e-01,9.99999e-01,9.99473e-01,4.90744e-01,9.99999e-01
4.463888621e-01,4.97420e-01,9.99999e-01,9.99451e-01,4.97692e-01,9.99999e-01
4.486208064e-01,5.04428e-01,9.99999e-01,9.99659e-01,5.04600e-01,9.99999e-01
4.508639105e-01,5.11382e-01,9.99999e-01,9.99840e-01,5.11463e-01,9.99999e-01
4.531182300e-01,5.18249e-01,9.99999e-01,9.99936e-01,5.18282e-01,9.99999e-01
4.553838212e-01,5.25032e-01,9.99999e-01,9.99956e-01,5.25054e-01,9.99999e-01
4.576607403e-01,5.31768e-01,9.99999e-01,9.99979e-01,5.31778e-01,9.99999e-01
4.599490440e-01,5.38446e-01,9.99999e-01,9.99985e-01,5.38453e-01,9.99999e-01
4.622487892e-01,5.45077e-01,9.99999e-01,9.99997e-01,5.45078e-01,9.99999e-01
4.645600332e-01,5.51646e-01,9.99999e-01,9.99989e-01,5.51651e-01,9.99999e-01
4.668828333e-01,5.58081e-01,9.99999e-01,9.99838e-01,5.58171e-01,9.99999e-01
4.692172475e-01,5.64443e-01,9.99999e-01,9.99656e-01,5.64637e-01,9.99999e-01
4.715633337e-01,5.70919e-01,9.99999e-01,9.99775e-01,5.71047e-01,9.99999e-01
4.739211504e-01,5.77278e-01,9.99999e-01,9.99784e-01,5.77402e-01,9.99999e-01
4.762907561e-01,5.83635e-01,9.99999e-01,9.99888e-01,5.83700e-01,9.99999e-01
4.786722099e-01,5.89914e-01,9.99999e-01,9.99954e-01,5.89940e-01,9.99999e-01
4.810655710e-01,5.96114e-01,9.99999e-01,9.99985e-01,5.96122e-01,9.99999e-01
4.834708988e-01,6.02165e-01,9.99999e-01,9.99867e-01,6.02245e-01,9.99999e-01
4.858882533e-01,6.08159e-01,9.99999e-01,9.99756e-01,6.08307e-01,9.99999e-01
4.883176946e-01,6.14184e-01,9.99999e-01,9.99796e-01,6.14309e-01,9.99999e-01
4.907592831e-01,6.20136e-01,9.99999e-01,9.99815e-01,6.20250e-01,9.99999e-01
4.932130795e-01,6.26048e-01,9.99999e-01,9.99869e-01,6.26130e-01,9.99999e-01
4.956791449e-01,6.31903e-01,9.99999e-01,9.99930e-01,6.31947e-01,9.99999e-01
4.981575406e-01,6.37482e-01,9.99999e-01,9.99654e-01,6.37702e-01,9.99999e-01
5.006483283e-01,6.42814e-01,9.99999e-01,9.99104e-01,6.43394e-01,9.99993e-01
5.031515699e-01,6.46054e-01,9.99999e-01,9.95472e-01,6.49023e-01,9.99951e-01
5.056673278e-01,6.52987e-01,9.99999e-01,9.97607e-01,6.54588e-01,9.99945e-01
5.081956644e-01,6.58075e-01,9.99999e-01,9.96982e-01,6.60090e-01,9.99964e-01
5.107366428e-01,6.64168e-01,9.99999e-01,9.97961e-01,6.65528e-01,9.99992e-01
5.132903260e-01,6.70121e-01,9.99999e-01,9.98834e-01,6.70903e-01,9.99998e-01
5.158567776e-01,6.75880e-01,9.99999e-01,9.99507e-01,6.76213e-01,9.99999e-01
5.184360615e-01,6.81325e-01,9.99999e-01,9.99802e-01,6.81459e-01,9.99999e-01
5.210282418e-01,6.86590e-01,9.99999e-01,9.99925e-01,6.86641e-01,9.99999e-01
5.236333830e-01,6.91553e-01,9.99999e-01,9.99704e-01,6.91759e-01,9.99997e-01
5.262515499e-01,6.96682e-01,9.99999e-01,9.99814e-01,6.96812e-01,9.99996e-01
5.288828077e-01,7.01682e-01,9.99999e-01,9.99829e-01,7.01802e-01,9.99997e-01
5.315272217e-01,7.06623e-01,9.99999e-01,9.99850e-01,7.06728e-01,9.99999e-01
5.341848578e-01,7.11521e-01,9.99999e-01,9.99901e-01,7.11590e-01,9.99999e-01
5.368557821e-01,7.16142e-01,9.99999e-01,9.99655e-01,7.16389e-01,9.99998e-01
5.395400610e-01,7.20221e-01,9.99999e-01,9.98757e-01,7.21124e-01,9.99989e-01
5.422377613e-01,7.24610e-01,9.99999e-01,9.98394e-01,7.25796e-01,9.99970e-01
5.449489501e-01,7.29293e-01,9.99999e-01,9.98506e-01,7.30405e-01,9.99969e-01
5.476736949e-01,7.33969e-01,9.99999e-01,9.98677e-01,7.34952e-01,9.99984e-01
5.504120634e-01,7.38723e-01,9.99999e-01,9.99039e-01,7.39436e-01,9.99995e-01
5.531641237e-01,7.43499e-01,9.99999e-01,9.99516e-01,7.43858e-01,9.99998e-01
5.559299443e-01,7.48044e-01,9.99999e-01,9.99766e-01,7.48219e-01,9.99999e-01
5.587095940e-01,7.52408e-01,9.99999e-01,9.99853e-01,7.52518e-01,9.99999e-01
5.615031420e-01,7.56633e-01,9.99999e-01,9.99836e-01,7.56756e-01,9.99999e-01
5.643106577e-01,7.60792e-01,9.99999e-01,9.99815e-01,7.60934e-01,9.99997e-01
5.671322110e-01,7.63321e-01,9.99999e-01,9.97757e-01,7.65051e-01,9.99979e-01
5.699678720e-01,7.67229e-01,9.99999e-01,9.97616e-01,7.69109e-01,9.99938e-01
5.728177114e-01,7.71149e-01,9.99999e-01,9.97516e-01,7.73107e-01,9.99948e-01
5.756818000e-01,7.75252e-01,9.99999e-01,9.97720e-01,7.77047e-01,9.99968e-01
5.785602090e-01,7.79370e-01,9.99999e-01,9.98013e-01,7.80928e-01,9.99990e-01
5.814530100e-01,7.83183e-01,9.99999e-01,9.98004e-01,7.84752e-01,9.99995e-01
5.843602750e-01,7.86633e-01,9.99999e-01,9.97621e-01,7.88518e-01,9.99986e-01
5.872820764e-01,7.76062e-01,9.99999e-01,9.79735e-01,7.92228e-01,9.99855e-01
5.902184868e-01,7.76026e-01,9.99999e-01,9.75434e-01,7.95881e-01,9.99607e-01
5.931695792e-01,7.85284e-01,9.99999e-01,9.82616e-01,7.99478e-01,9.99622e-01
5.961354271e-01,7.87541e-01,9.99999e-01,9.80936e-01,8.03020e-01,9.99782e-01
5.991161043e-01,7.95205e-01,9.99999e-01,9.86052e-01,8.06507e-01,9.99932e-01
6.021116848e-01,8.03506e-01,9.99999e-01,9.92062e-01,8.09940e-01,9.99992e-01
6.051222432e-01,8.10047e-01,9.99999e-01,9.95976e-01,8.13319e-01,9.99999e-01
6.081478544e-01,8.15227e-01,9.99999e-01,9.98262e-01,8.16646e-01,9.99999e-01
6.111885937e-01,8.19317e-01,9.99999e-01,9.99264e-01,8.19919e-01,9.99999e-01
6.142445367e-01,8.22871e-01,9.99999e-01,9.99671e-01,8.23141e-01,9.99999e-01
6.173157594e-01,8.26162e-01,9.99999e-01,9.99818e-01,8.26312e-01,9.99999e-01
6.204023382e-01,8.29304e-01,9.99999e-01,9.99846e-01,8.29432e-01,9.99999e-01
6.235043498e-01,8.31938e-01,9.99999e-01,9.99324e-01,8.32501e-01,9.99997e-01
6.266218716e-01,8.32518e-01,9.99999e-01,9.96429e-01,8.35521e-01,9.99974e-01
6.297549810e-01,8.37352e-01,9.99999e-01,9.98689e-01,8.38492e-01,9.99949e-01
6.329037559e-01,8.39202e-01,9.99999e-01,9.97410e-01,8.41415e-01,9.99959e-01
6.360682746e-01,8.42408e-01,9.99999e-01,9.97794e-01,8.44289e-01,9.99975e-01
6.392486160e-01,8.44687e-01,9.99999e-01,9.97142e-01,8.47117e-01,9.99988e-01
6.424448591e-01,8.46635e-01,9.99999e-01,9.96177e-01,8.49897e-01,9.99982e-01
6.456570834e-01,8.37532e-01,9.99999e-01,9.82385e-01,8.52632e-01,9.99901e-01
6.488853688e-01,8.44044e-01,9.99999e-01,9.87086e-01,8.55321e-01,9.99724e-01
6.521297956e-01,8.46490e-01,9.99999e-01,9.86847e-01,8.57966e-01,9.99772e-01
6.553904446e-01,8.49130e-01,9.99999e-01,9.86878e-01,8.60566e-01,9.99830e-01
6.586673968e-01,8.53374e-01,9.99999e-01,9.88760e-01,8.63122e-01,9.99942e-01
6.619607338e-01,8.60187e-01,9.99999e-01,9.93717e-01,8.65635e-01,9.99987e-01
6.652705375e-01,8.64824e-01,9.99999e-01,9.96224e-01,8.68106e-01,9.99993e-01
6.685968902e-01,8.69006e-01,9.99999e-01,9.98244e-01,8.70535e-01,9.99998e-01
6.719398746e-01,8.72212e-01,9.99999e-01,9.99186e-01,8.72922e-01,9.99999e-01
6.752995740e-01,8.74883e-01,9.99999e-01,9.99558e-01,8.75269e-01,9.99999e-01
6.786760719e-01,8.77015e-01,9.99999e-01,9.99362e-01,8.77575e-01,9.99998e-01
6.820694522e-01,8.78878e-01,9.99999e-01,9.98909e-01,8.79841e-01,9.99993e-01
6.854797995e-01,8.80819e-01,9.99999e-01,9.98593e-01,8.82069e-01,9.99987e-01
6.889071985e-01,8.81225e-01,9.99999e-01,9.96600e-01,8.84258e-01,9.99969e-01
6.923517345e-01,8.38375e-01,9.99999e-01,9.46061e-01,8.86409e-01,9.99733e-01
6.958134932e-01,8.62815e-01,9.99999e-01,9.71639e-01,8.88523e-01,9.99409e-01
6.992925606e-01,8.66024e-01,9.99999e-01,9.72922e-01,8.90600e-01,9.99468e-01
7.027890234e-01,8.62539e-01,9.99999e-01,9.66670e-01,8.92640e-01,9.99593e-01
7.063029686e-01,8.69303e-01,9.99999e-01,9.71869e-01,8.94645e-01,9.99797e-01
7.098344834e-01,8.72286e-01,9.99999e-01,9.72982e-01,8.96614e-01,9.99880e-01
7.133836558e-01,8.66248e-01,9.99999e-01,9.64280e-01,8.98549e-01,9.99762e-01
7.169505741e-01,6.76010e-01,9.99999e-01,7.52150e-01,9.00450e-01,9.98133e-01
7.205353270e-01,7.81331e-01,9.99999e-01,8.68774e-01,9.02317e-01,9.96709e-01
7.241380036e-01,7.53478e-01,9.99999e-01,8.35729e-01,9.04150e-01,9.97157e-01
7.277586936e-01,7.68809e-01,9.99999e-01,8.50596e-01,9.05952e-01,9.97675e-01
7.313974871e-01,7.62480e-01,9.99999e-01,8.40909e-01,9.07721e-01,9.98910e-01
7.350544745e-01,8.26687e-01,9.99999e-01,9.09331e-01,9.09458e-01,9.99621e-01
7.387297469e-01,8.49254e-01,9.99999e-01,9.32214e-01,9.11165e-01,9.99826e-01
7.424233956e-01,8.81944e-01,9.99999e-01,9.66185e-01,9.12841e-01,9.99966e-01
7.461355126e-01,8.95606e-01,9.99999e-01,9.79359e-01,9.14487e-01,9.99993e-01
7.498661902e-01,9.07248e-01,9.99999e-01,9.90336e-01,9.16103e-01,9.99997e-01
7.536155211e-01,9.13328e-01,9.99999e-01,9.95247e-01,9.17690e-01,9.99998e-01
7.573835987e-01,9.16997e-01,9.99999e-01,9.97551e-01,9.19248e-01,9.99999e-01
7.611705167e-01,9.19377e-01,9.99999e-01,9.98477e-01,9.20778e-01,9.99999e-01
7.649763693e-01,9.21401e-01,9.99999e-01,9.99045e-01,9.22280e-01,9.99999e-01
7.688012511e-01,9.23142e-01,9.99999e-01,9.99335e-01,9.23756e-01,9.99999e-01
7.726452574e-01,9.24698e-01,9.99999e-01,9.99452e-01,9.25204e-01,9.99999e-01
7.765084837e-01,9.25905e-01,9.99999e-01,9.99222e-01,9.26626e-01,9.99998e-01
7.803910261e-01,9.24905e-01,9.99999e-01,9.96645e-01,9.28021e-01,9.99996e-01
7.842929812e-01,9.18537e-01,9.99999e-01,9.88341e-01,9.29392e-01,9.99977e-01
7.882144461e-01,9.08379e-01,9.99999e-01,9.76121e-01,9.30737e-01,9.99851e-01
7.921555184e-01,9.19535e-01,9.99999e-01,9.86845e-01,9.32057e-01,9.99714e-01
7.961162960e-01,9.11518e-01,9.99999e-01,9.76871e-01,9.33354e-01,9.99725e-01
8.000968774e-01,9.09394e-01,9.99999e-01,9.73285e-01,9.34626e-01,9.99708e-01
8.040973618e-01,9.10670e-01,9.99999e-01,9.73292e-01,9.35875e-01,9.99768e-01
8.081178486e-01,8.81683e-01,9.99999e-01,9.41065e-01,9.37101e-01,9.99782e-01
8.121584379e-01,7.30322e-01,9.99999e-01,7.79005e-01,9.38304e-01,9.99147e-01
8.162192301e-01,6.97204e-01,9.99999e-01,7.44496e-01,9.39485e-01,9.96798e-01
8.203003262e-01,8.12823e-01,9.99999e-01,8.67362e-01,9.40644e-01,9.96251e-01
8.244018279e-01,7.72537e-01,9.99999e-01,8.22747e-01,9.41782e-01,9.97015e-01
8.285238370e-01,7.87357e-01,9.99999e-01,8.37000e-01,9.42898e-01,9.97655e-01
8.326664562e-01,7.88318e-01,9.99999e-01,8.35898e-01,9.43994e-01,9.99029e-01
8.368297885e-01,8.30205e-01,9.99999e-01,8.78653e-01,9.45069e-01,9.99777e-01
8.410139374e-01,8.75832e-01,9.99999e-01,9.25823e-01,9.46124e-01,9.99869e-01
8.452190071e-01,9.11894e-01,9.99999e-01,9.62840e-01,9.47160e-01,9.99922e-01
8.494451021e-01,9.27494e-01,9.99999e-01,9.78248e-01,9.48176e-01,9.99937e-01
8.536923276e-01,9.36878e-01,9.99999e-01,9.87083e-01,9.49173e-01,9.99961e-01
8.579607893e-01,9.42567e-01,9.99999e-01,9.92025e-01,9.50152e-01,9.99990e-01
8.622505932e-01,9.46286e-01,9.99999e-01,9.94926e-01,9.51112e-01,9.99997e-01
8.665618462e-01,9.49063e-01,9.99999e-01,9.96859e-01,9.52054e-01,9.99998e-01
8.708946554e-01,9.49550e-01,9.99999e-01,9.96404e-01,9.52978e-01,9.99997e-01
8.752491287e-01,9.49295e-01,9.99999e-01,9.95191e-01,9.53885e-01,9.99994e-01
8.796253743e-01,9.48410e-01,9.99999e-01,9.93347e-01,9.54775e-01,9.99984e-01
8.840235012e-01,9.48348e-01,9.99999e-01,9.92405e-01,9.55649e-01,9.99953e-01
8.884436187e-01,9.30356e-01,9.99999e-01,9.72789e-01,9.56505e-01,9.99867e-01
8.928858368e-01,7.19787e-01,9.99999e-01,7.52429e-01,9.57346e-01,9.99238e-01
8.973502660e-01,5.79761e-01,9.99999e-01,6.07435e-01,9.58170e-01,9.96106e-01
9.018370173e-01,7.39065e-01,9.99999e-01,7.75419e-01,9.58979e-01,9.93884e-01
9.063462024e-01,7.61737e-01,9.99999e-01,7.97951e-01,9.59773e-01,9.94626e-01
9.108779334e-01,6.72296e-01,9.99999e-01,7.03835e-01,9.60552e-01,9.94416e-01
9.154323231e-01,6.40173e-01,9.99999e-01,6.69023e-01,9.61316e-01,9.95382e-01
9.200094847e-01,7.01933e-01,9.99999e-01,7.31502e-01,9.62065e-01,9.97412e-01
9.246095321e-01,6.04968e-01,9.99999e-01,6.30219e-01,9.62800e-01,9.97019e-01
9.292325798e-01,6.76627e-02,9.99999e-01,7.10464e-02,9.63522e-01,9.88428e-01
9.338787427e-01,2.57770e-02,9.99999e-01,2.80509e-02,9.64229e-01,9.53024e-01
9.385481364e-01,2.11669e-01,9.99999e-01,2.32282e-01,9.64923e-01,9.44381e-01
9.432408771e-01,1.34901e-01,9.99999e-01,1.46776e-01,9.65604e-01,9.51829e-01
9.479570815e-01,6.00506e-02,9.99999e-01,6.46945e-02,9.66272e-01,9.60616e-01
9.526968669e-01,1.10785e-01,9.99999e-01,1.17416e-01,9.66927e-01,9.75790e-01
9.574603512e-01,1.22561e-01,9.99999e-01,1.28255e-01,9.67569e-01,9.87628e-01
9.622476530e-01,1.72293e-01,9.99999e-01,1.79490e-01,9.68199e-01,9.91428e-01
9.670588912e-01,3.51269e-01,9.99999e-01,3.64715e-01,9.68818e-01,9.94130e-01
9.718941857e-01,4.96284e-01,9.99999e-01,5.14160e-01,9.69424e-01,9.95675e-01
9.767536566e-01,5.55619e-01,9.99999e-01,5.74692e-01,9.70019e-01,9.96693e-01
9.816374249e-01,6.40197e-01,9.99999e-01,6.60343e-01,9.70602e-01,9.98854e-01
9.865456120e-01,7.47876e-01,9.99999e-01,7.70257e-01,9.71174e-01,9.99760e-01
9.914783401e-01,8.26224e-01,9.99999e-01,8.50311e-01,9.71736e-01,9.99933e-01
9.964357318e-01,8.90028e-01,9.99999e-01,9.15431e-01,9.72286e-01,9.99960e-01
1.001417910e+00,9.22531e-01,9.99999e-01,9.48356e-01,9.72826e-01,9.99940e-01
1.006425000e+00,9.44273e-01,9.99999e-01,9.70202e-01,9.73356e-01,9.99915e-01
1.011457125e+00,9.55692e-01,9.99999e-01,9.81405e-01,9.73875e-01,9.99921e-01
1.016514411e+00,9.61992e-01,9.99999e-01,9.87335e-01,9.74384e-01,9.99944e-01
1.021596983e+00,9.64981e-01,9.99999e-01,9.89896e-01,9.74884e-01,9.99944e-01
1.026704968e+00,9.67644e-01,9.99999e-01,9.92111e-01,9.75374e-01,9.99962e-01
1.031838492e+00,9.70245e-01,9.99999e-01,9.94261e-01,9.75854e-01,9.99989e-01
1.036997685e+00,9.72993e-01,9.99999e-01,9.96587e-01,9.76325e-01,9.99997e-01
1.042182673e+00,9.72814e-01,9.99999e-01,9.95932e-01,9.76788e-01,9.99998e-01
1.047393587e+00,9.71972e-01,9.99999e-01,9.94608e-01,9.77241e-01,9.99998e-01
1.052630555e+00,9.70458e-01,9.99999e-01,9.92609e-01,9.77685e-01,9.99997e-01
1.057893707e+00,9.66080e-01,9.99999e-01,9.87692e-01,9.78121e-01,9.99995e-01
1.063183176e+00,9.58811e-01,9.99999e-01,9.79839e-01,9.78549e-01,9.99988e-01
1.068499092e+00,9.46140e-01,9.99999e-01,9.66488e-01,9.78968e-01,9.99976e-01
1.073841587e+00,9.41117e-01,9.99999e-01,9.60980e-01,9.79379e-01,9.99949e-01
1.079210795e+00,9.30870e-01,9.99999e-01,9.50207e-01,9.79782e-01,9.99863e-01
1.084606849e+00,9.07093e-01,9.99999e-01,9.25739e-01,9.80177e-01,9.99671e-01
1.090029883e+00,8.77500e-01,9.99999e-01,8.95499e-01,9.80565e-01,9.99320e-01
1.095480033e+00,7.25789e-01,9.99999e-01,7.40796e-01,9.80945e-01,9.98771e-01
1.100957433e+00,4.64797e-01,9.99999e-01,4.74718e-01,9.81318e-01,9.97739e-01
1.106462220e+00,1.67469e-01,9.99999e-01,1.71249e-01,9.81684e-01,9.96168e-01
1.111994531e+00,2.70925e-02,9.99999e-01,2.78704e-02,9.82042e-01,9.89862e-01
1.117554504e+00,4.05599e-03,9.99999e-01,4.28339e-03,9.82394e-01,9.63881e-01
1.123142276e+00,2.36105e-02,9.99999e-01,2.62152e-02,9.82739e-01,9.16459e-01
1.128757988e+00,6.15292e-02,9.99999e-01,6.92345e-02,9.83077e-01,9.04005e-01
1.134401778e+00,2.98134e-02,9.99999e-01,3.30328e-02,9.83408e-01,9.17766e-01
1.140073787e+00,1.66925e-01,9.99999e-01,1.81727e-01,9.83733e-01,9.33734e-01
1.145774156e+00,3.96172e-02,9.99999e-01,4.28669e-02,9.84052e-01,9.39169e-01
1.151503026e+00,2.79743e-02,9.99999e-01,2.94297e-02,9.84364e-01,9.65641e-01
1.157260541e+00,3.67389e-02,9.99999e-01,3.77029e-02,9.84671e-01,9.89600e-01
1.163046844e+00,8.47753e-02,9.99999e-01,8.63241e-02,9.84971e-01,9.97041e-01
1.168862078e+00,1.65306e-01,9.99999e-01,1.68035e-01,9.85266e-01,9.98474e-01
1.174706389e+00,3.24002e-01,9.99999e-01,3.29416e-01,9.85555e-01,9.97978e-01
1.180579921e+00,4.95823e-01,9.99999e-01,5.04486e-01,9.85838e-01,9.96944e-01
1.186482820e+00,6.63878e-01,9.99999e-01,6.75341e-01,9.86116e-01,9.96864e-01
1.192415234e+00,7.81520e-01,9.99999e-01,7.94169e-01,9.86388e-01,9.97650e-01
1.198377311e+00,8.10831e-01,9.99999e-01,8.23624e-01,9.86655e-01,9.97780e-01
1.204369197e+00,8.20694e-01,9.99999e-01,8.33245e-01,9.86917e-01,9.97992e-01
1.210391043e+00,8.27541e-01,9.99999e-01,8.39317e-01,9.87174e-01,9.98777e-01
1.216442998e+00,8.50100e-01,9.99999e-01,8.61570e-01,9.87426e-01,9.99251e-01
1.222525213e+00,8.78713e-01,9.99999e-01,8.90094e-01,9.87672e-01,9.99534e-01
1.228637839e+00,9.10920e-01,9.99999e-01,9.22262e-01,9.87914e-01,9.99783e-01
1.234781029e+00,9.30480e-01,9.99999e-01,9.41694e-01,9.88152e-01,9.99937e-01
1.240954934e+00,9.51516e-01,9.99999e-01,9.62714e-01,9.88384e-01,9.99982e-01
1.247159708e+00,9.59763e-01,9.99999e-01,9.70828e-01,9.88612e-01,9.99988e-01
1.253395507e+00,9.63170e-01,9.99999e-01,9.74057e-01,9.88836e-01,9.99985e-01
1.259662485e+00,9.64642e-01,9.99999e-01,9.75338e-01,9.89055e-01,9.99976e-01
1.265960797e+00,9.50566e-01,9.99999e-01,9.60912e-01,9.89270e-01,9.99961e-01
1.272290601e+00,9.29405e-01,9.99999e-01,9.39348e-01,9.89481e-01,9.99931e-01
1.278652054e+00,8.74337e-01,9.99999e-01,8.83553e-01,9.89688e-01,9.99878e-01
1.285045314e+00,7.91776e-01,9.99999e-01,8.00042e-01,9.89890e-01,9.99774e-01
1.291470541e+00,6.71678e-01,9.99999e-01,6.78669e-01,9.90089e-01,9.99604e-01
1.297927893e+00,6.00405e-01,9.99999e-01,6.06743e-01,9.90284e-01,9.99261e-01
1.304417533e+00,5.22611e-01,9.99999e-01,5.28462e-01,9.90475e-01,9.98437e-01
1.310939621e+00,4.76185e-01,9.99999e-01,4.82219e-01,9.90662e-01,9.96794e-01
1.317494319e+00,4.48361e-01,9.99999e-01,4.55198e-01,9.90846e-01,9.94077e-01
1.324081790e+00,3.12763e-01,9.99999e-01,3.18670e-01,9.91026e-01,9.90348e-01
1.330702199e+00,5.50435e-02,9.99999e-01,5.64684e-02,9.91202e-01,9.83417e-01
1.337355710e+00,6.36025e-05,9.99999e-01,6.62554e-05,9.91375e-01,9.68309e-01
1.344042489e+00,2.93445e-07,9.99999e-01,3.26091e-07,9.91545e-01,9.07558e-01
1.350762701e+00,1.30658e-22,9.99999e-01,1.83644e-22,9.91711e-01,7.17419e-01
1.357516515e+00,4.10258e-34,9.99999e-01,1.09616e-33,9.91874e-01,3.77332e-01
1.364304097e+00,3.08647e-21,9.99999e-01,1.71695e-20,9.92034e-01,1.81208e-01
1.371125618e+00,4.33719e-13,9.99999e-01,2.18778e-12,9.92191e-01,1.99806e-01
1.377981246e+00,1.65315e-12,9.99999e-01,6.62464e-12,9.92344e-01,2.51470e-01
1.384871152e+00,1.49523e-17,9.99999e-01,5.45279e-17,9.92495e-01,2.76287e-01
1.391795508e+00,2.40348e-21,9.99999e-01,8.25184e-21,9.92643e-01,2.93424e-01
1.398754485e+00,2.10095e-16,9.99999e-01,5.82677e-16,9.92787e-01,3.63186e-01
1.405748258e+00,3.43201e-16,9.99999e-01,6.24849e-16,9.92929e-01,5.53164e-01
1.412776999e+00,1.15140e-15,9.99999e-01,1.51933e-15,9.93069e-01,7.63123e-01
1.419840884e+00,1.99588e-15,9.99998e-01,2.26242e-15,9.93205e-01,8.88221e-01
1.426940089e+00,2.25036e-10,9.99998e-01,2.47892e-10,9.93339e-01,9.13882e-01
1.434074789e+00,3.83455e-09,9.99998e-01,4.29249e-09,9.93470e-01,8.99186e-01
1.441245163e+00,1.28378e-07,9.99999e-01,1.44967e-07,9.93598e-01,8.91275e-01
1.448451389e+00,2.54942e-05,9.99998e-01,2.83755e-05,9.93724e-01,9.04130e-01
1.455693646e+00,7.46306e-04,9.99998e-01,8.12182e-04,9.93848e-01,9.24576e-01
1.462972114e+00,1.08265e-03,9.99999e-01,1.17381e-03,9.93969e-01,9.27937e-01
1.470286975e+00,4.24873e-04,9.99999e-01,4.60004e-04,9.94088e-01,9.29120e-01
