#,Wave/freq,Total,N2,H2O,Rayleigh,CIA
4.000000000e-01,8.74221e-01,9.99999e-01,9.99984e-01,8.74234e-01,9.99999e-01
4.020000000e-01,8.76552e-01,9.99999e-01,9.99990e-01,8.76560e-01,9.99999e-01
4.040100000e-01,8.78841e-01,9.99999e-01,9.99995e-01,8.78844e-01,9.99999e-01
4.060300500e-01,8.81088e-01,9.99999e-01,9.99998e-01,8.81089e-01,9.99999e-01
4.080602003e-01,8.83295e-01,9.99999e-01,9.99999e-01,8.83295e-01,9.99999e-01
4.101005013e-01,8.85463e-01,9.99999e-01,9.99999e-01,8.85463e-01,9.99999e-01
4.121510038e-01,8.87592e-01,9.99999e-01,9.99998e-01,8.87593e-01,9.99999e-01
4.142117588e-01,8.89682e-01,9.99999e-01,9.99995e-01,8.89686e-01,9.99999e-01
4.162828176e-01,8.91726e-01,9.99999e-01,9.99980e-01,8.91742e-01,9.99999e-01
4.183642317e-01,8.93753e-01,9.99999e-01,9.99988e-01,8.93763e-01,9.99999e-01
4.204560528e-01,8.95742e-01,9.99999e-01,9.99992e-01,8.95748e-01,9.99999e-01
4.225583331e-01,8.97696e-01,9.99999e-01,9.99996e-01,8.97698e-01,9.99999e-01
4.246711247e-01,8.99612e-01,9.99999e-01,9.99997e-01,8.99614e-01,9.99999e-01
4.267944804e-01,9.01493e-01,9.99999e-01,9.99996e-01,9.01495e-01,9.99999e-01
4.289284528e-01,9.03342e-01,9.99999e-01,9.99997e-01,9.03344e-01,9.99999e-01
4.310730950e-01,9.05159e-01,9.99999e-01,9.99998e-01,9.05159e-01,9.99999e-01
4.332284605e-01,9.06942e-01,9.99999e-01,9.99999e-01,9.06943e-01,9.99999e-01
4.353946028e-01,9.08694e-01,9.99999e-01,9.99999e-01,9.08694e-01,9.99999e-01
4.375715758e-01,9.10413e-01,9.99999e-01,9.99997e-01,9.10414e-01,9.99999e-01
4.397594337e-01,9.12088e-01,9.99999e-01,9.99982e-01,9.12104e-01,9.99999e-01
4.419582309e-01,9.13685e-01,9.99999e-01,9.99914e-01,9.13763e-01,9.99999e-01
4.441680220e-01,9.15333e-01,9.99999e-01,9.99934e-01,9.15392e-01,9.99999e-01
4.463888621e-01,9.16929e-01,9.99999e-01,9.99931e-01,9.16992e-01,9.99999e-01
4.486208064e-01,9.18524e-01,9.99999e-01,9.99957e-01,9.18563e-01,9.99999e-01
4.508639105e-01,9.20087e-01,9.99999e-01,9.99979e-01,9.20105e-01,9.99999e-01
4.531182300e-01,9.21613e-01,9.99999e-01,9.99991e-01,9.21620e-01,9.99999e-01
4.553838212e-01,9.23102e-01,9.99999e-01,9.99994e-01,9.23107e-01,9.99999e-01
4.576607403e-01,9.24565e-01,9.99999e-01,9.99997e-01,9.24567e-01,9.99999e-01
4.599490440e-01,9.25999e-01,9.99999e-01,9.99997e-01,9.26000e-01,9.99999e-01
4.622487892e-01,9.27407e-01,9.99999e-01,9.99999e-01,9.27407e-01,9.99999e-01
4.645600332e-01,9.28788e-01,9.99999e-01,9.99998e-01,9.28789e-01,9.99999e-01
4.668828333e-01,9.30127e-01,9.99999e-01,9.99979e-01,9.30145e-01,9.99999e-01
4.692172475e-01,9.31437e-01,9.99999e-01,9.99956e-01,9.31477e-01,9.99999e-01
4.715633337e-01,9.32758e-01,9.99999e-01,9.99971e-01,9.32784e-01,9.99999e-01
4.739211504e-01,9.34042e-01,9.99999e-01,9.99972e-01,9.34066e-01,9.99999e-01
4.762907561e-01,9.35313e-01,9.99999e-01,9.99985e-01,9.35326e-01,9.99999e-01
4.786722099e-01,9.36557e-01,9.99999e-01,9.99993e-01,9.36562e-01,9.99999e-01
4.810655710e-01,9.37773e-01,9.99999e-01,9.99997e-01,9.37775e-01,9.99999e-01
4.834708988e-01,9.38950e-01,9.99999e-01,9.99982e-01,9.38966e-01,9.99999e-01
4.858882533e-01,9.40106e-01,9.99999e-01,9.99969e-01,9.40134e-01,9.99999e-01
4.883176946e-01,9.41258e-01,9.99999e-01,9.99974e-01,9.41282e-01,9.99999e-01
4.907592831e-01,9.42386e-01,9.99999e-01,9.99976e-01,9.42407e-01,9.99999e-01
4.932130795e-01,9.43497e-01,9.99999e-01,9.99983e-01,9.43512e-01,9.99999e-01
4.956791449e-01,9.44588e-01,9.99999e-01,9.99990e-01,9.44596e-01,9.99999e-01
4.981575406e-01,9.45620e-01,9.99999e-01,9.99956e-01,9.45660e-01,9.99999e-01
5.006483283e-01,9.46597e-01,9.99999e-01,9.99886e-01,9.46705e-01,9.99998e-01
5.031515699e-01,9.47188e-01,9.99999e-01,9.99434e-01,9.47729e-01,9.99993e-01
5.056673278e-01,9.48447e-01,9.99999e-01,9.99702e-01,9.48735e-01,9.99992e-01
5.081956644e-01,9.49362e-01,9.99999e-01,9.99624e-01,9.49722e-01,9.99995e-01
5.107366428e-01,9.50449e-01,9.99999e-01,9.99746e-01,9.50690e-01,9.99998e-01
5.132903260e-01,9.51503e-01,9.99999e-01,9.99855e-01,9.51640e-01,9.99999e-01
5.158567776e-01,9.52514e-01,9.99999e-01,9.99938e-01,9.52572e-01,9.99999e-01
5.184360615e-01,9.53463e-01,9.99999e-01,9.99975e-01,9.53487e-01,9.99999e-01
5.210282418e-01,9.54375e-01,9.99999e-01,9.99990e-01,9.54384e-01,9.99999e-01
5.236333830e-01,9.55229e-01,9.99999e-01,9.99962e-01,9.55265e-01,9.99999e-01
5.262515499e-01,9.56106e-01,9.99999e-01,9.99976e-01,9.56129e-01,9.99999e-01
5.288828077e-01,9.56956e-01,9.99999e-01,9.99978e-01,9.56976e-01,9.99999e-01
5.315272217e-01,9.57790e-01,9.99999e-01,9.99981e-01,9.57808e-01,9.99999e-01
5.341848578e-01,9.58612e-01,9.99999e-01,9.99987e-01,9.58624e-01,9.99999e-01
5.368557821e-01,9.59383e-01,9.99999e-01,9.99956e-01,9.59424e-01,9.99999e-01
5.395400610e-01,9.60058e-01,9.99999e-01,9.99842e-01,9.60209e-01,9.99998e-01
5.422377613e-01,9.60785e-01,9.99999e-01,9.99800e-01,9.60980e-01,9.99995e-01
5.449489501e-01,9.61553e-01,9.99999e-01,9.99812e-01,9.61736e-01,9.99995e-01
5.476736949e-01,9.62318e-01,9.99999e-01,9.99835e-01,9.62477e-01,9.99997e-01
5.504120634e-01,9.63090e-01,9.99999e-01,9.99880e-01,9.63204e-01,9.99998e-01
5.531641237e-01,9.63860e-01,9.99999e-01,9.99939e-01,9.63918e-01,9.99999e-01
5.559299443e-01,9.64590e-01,9.99999e-01,9.99970e-01,9.64618e-01,9.99999e-01
5.587095940e-01,9.65287e-01,9.99999e-01,9.99981e-01,9.65304e-01,9.99999e-01
5.615031420e-01,9.65958e-01,9.99999e-01,9.99979e-01,9.65978e-01,9.99999e-01
5.643106577e-01,9.66616e-01,9.99999e-01,9.99976e-01,9.66639e-01,9.99999e-01
5.671322110e-01,9.67009e-01,9.99999e-01,9.99714e-01,9.67287e-01,9.99997e-01
5.699678720e-01,9.67631e-01,9.99999e-01,9.99705e-01,9.67922e-01,9.99991e-01
5.728177114e-01,9.68240e-01,9.99999e-01,9.99689e-01,9.68546e-01,9.99993e-01
5.756818000e-01,9.68879e-01,9.99999e-01,9.99716e-01,9.69157e-01,9.99995e-01
5.785602090e-01,9.69517e-01,9.99999e-01,9.99753e-01,9.69757e-01,9.99998e-01
5.814530100e-01,9.70104e-01,9.99999e-01,9.99751e-01,9.70346e-01,9.99998e-01
5.843602750e-01,9.70632e-01,9.99999e-01,9.99701e-01,9.70923e-01,9.99997e-01
5.872820764e-01,9.68975e-01,9.99999e-01,9.97429e-01,9.71489e-01,9.99981e-01
5.902184868e-01,9.69002e-01,9.99999e-01,9.96918e-01,9.72044e-01,9.99950e-01
5.931695792e-01,9.70418e-01,9.99999e-01,9.97814e-01,9.72589e-01,9.99952e-01
5.961354271e-01,9.70772e-01,9.99999e-01,9.97610e-01,9.73123e-01,9.99972e-01
5.991161043e-01,9.71945e-01,9.99999e-01,9.98259e-01,9.73647e-01,9.99991e-01
6.021116848e-01,9.73199e-01,9.99999e-01,9.99013e-01,9.74160e-01,9.99998e-01
6.051222432e-01,9.74178e-01,9.99999e-01,9.99500e-01,9.74664e-01,9.99999e-01
6.081478544e-01,9.74948e-01,9.99999e-01,9.99784e-01,9.75158e-01,9.99999e-01
6.111885937e-01,9.75554e-01,9.99999e-01,9.99908e-01,9.75643e-01,9.99999e-01
6.142445367e-01,9.76079e-01,9.99999e-01,9.99958e-01,9.76118e-01,9.99999e-01
6.173157594e-01,9.76563e-01,9.99999e-01,9.99977e-01,9.76584e-01,9.99999e-01
6.204023382e-01,9.77023e-01,9.99999e-01,9.99980e-01,9.77042e-01,9.99999e-01
6.235043498e-01,9.77406e-01,9.99999e-01,9.99913e-01,9.77490e-01,9.99999e-01
6.266218716e-01,9.77492e-01,9.99999e-01,9.99554e-01,9.77930e-01,9.99996e-01
6.297549810e-01,9.78195e-01,9.99999e-01,9.99836e-01,9.78361e-01,9.99993e-01
6.329037559e-01,9.78464e-01,9.99999e-01,9.99678e-01,9.78784e-01,9.99994e-01
6.360682746e-01,9.78926e-01,9.99999e-01,9.99724e-01,9.79198e-01,9.99996e-01
6.392486160e-01,9.79255e-01,9.99999e-01,9.99644e-01,9.79605e-01,9.99998e-01
6.424448591e-01,9.79531e-01,9.99999e-01,9.99519e-01,9.80004e-01,9.99997e-01
6.456570834e-01,9.78196e-01,9.99999e-01,9.97770e-01,9.80395e-01,9.99986e-01
6.488853688e-01,9.79164e-01,9.99999e-01,9.98387e-01,9.80778e-01,9.99965e-01
6.521297956e-01,9.79514e-01,9.99999e-01,9.98356e-01,9.81154e-01,9.99971e-01
6.553904446e-01,9.79889e-01,9.99999e-01,9.98355e-01,9.81523e-01,9.99978e-01
6.586673968e-01,9.80502e-01,9.99999e-01,9.98598e-01,9.81885e-01,9.99992e-01
6.619607338e-01,9.81471e-01,9.99999e-01,9.99219e-01,9.82239e-01,9.99997e-01
6.652705375e-01,9.82126e-01,9.99999e-01,9.99531e-01,9.82587e-01,9.99998e-01
6.685968902e-01,9.82732e-01,9.99999e-01,9.99800e-01,9.82928e-01,9.99999e-01
6.719398746e-01,9.83163e-01,9.99999e-01,9.99898e-01,9.83262e-01,9.99999e-01
6.752995740e-01,9.83538e-01,9.99999e-01,9.99946e-01,9.83590e-01,9.99999e-01
6.786760719e-01,9.83833e-01,9.99999e-01,9.99919e-01,9.83912e-01,9.99999e-01
6.820694522e-01,9.84091e-01,9.99999e-01,9.99862e-01,9.84227e-01,9.99998e-01
6.854797995e-01,9.84362e-01,9.99999e-01,9.99824e-01,9.84536e-01,9.99997e-01
6.889071985e-01,9.84411e-01,9.99999e-01,9.99568e-01,9.84839e-01,9.99995e-01
6.923517345e-01,9.78251e-01,9.99999e-01,9.93043e-01,9.85136e-01,9.99966e-01
6.958134932e-01,9.81869e-01,9.99999e-01,9.96461e-01,9.85428e-01,9.99926e-01
6.992925606e-01,9.82259e-01,9.99999e-01,9.96560e-01,9.85714e-01,9.99933e-01
7.027890234e-01,9.81797e-01,9.99999e-01,9.95793e-01,9.85994e-01,9.99949e-01
7.063029686e-01,9.82752e-01,9.99999e-01,9.96459e-01,9.86268e-01,9.99974e-01
7.098344834e-01,9.83173e-01,9.99999e-01,9.96603e-01,9.86538e-01,9.99984e-01
7.133836558e-01,9.82243e-01,9.99999e-01,9.95408e-01,9.86802e-01,9.99970e-01
7.169505741e-01,9.51088e-01,9.99999e-01,9.63778e-01,9.87061e-01,9.99767e-01
7.205353270e-01,9.69637e-01,9.99999e-01,9.82496e-01,9.87315e-01,9.99589e-01
7.241380036e-01,9.64927e-01,9.99999e-01,9.77423e-01,9.87564e-01,9.99645e-01
7.277586936e-01,9.67405e-01,9.99999e-01,9.79627e-01,9.87808e-01,9.99710e-01
7.313974871e-01,9.66696e-01,9.99999e-01,9.78522e-01,9.88047e-01,9.99864e-01
7.350544745e-01,9.76572e-01,9.99999e-01,9.88197e-01,9.88282e-01,9.99952e-01
7.387297469e-01,9.79905e-01,9.99999e-01,9.91313e-01,9.88512e-01,9.99977e-01
7.424233956e-01,9.84536e-01,9.99999e-01,9.95753e-01,9.88738e-01,9.99995e-01
7.461355126e-01,9.86408e-01,9.99999e-01,9.97421e-01,9.88959e-01,9.99998e-01
7.498661902e-01,9.87992e-01,9.99999e-01,9.98802e-01,9.89176e-01,9.99999e-01
7.536155211e-01,9.88806e-01,9.99999e-01,9.99410e-01,9.89388e-01,9.99999e-01
7.573835987e-01,9.89297e-01,9.99999e-01,9.99696e-01,9.89597e-01,9.99999e-01
7.611705167e-01,9.89615e-01,9.99999e-01,9.99811e-01,9.89801e-01,9.99999e-01
7.649763693e-01,9.89885e-01,9.99999e-01,9.99881e-01,9.90002e-01,9.99999e-01
7.688012511e-01,9.90117e-01,9.99999e-01,9.99917e-01,9.90198e-01,9.99999e-01
7.726452574e-01,9.90324e-01,9.99999e-01,9.99931e-01,9.90391e-01,9.99999e-01
7.765084837e-01,9.90483e-01,9.99999e-01,9.99902e-01,9.90580e-01,9.99999e-01
7.803910261e-01,9.90347e-01,9.99999e-01,9.99578e-01,9.90765e-01,9.99999e-01
7.842929812e-01,9.89486e-01,9.99999e-01,9.98528e-01,9.90947e-01,9.99996e-01
7.882144461e-01,9.88130e-01,9.99999e-01,9.96998e-01,9.91125e-01,9.99978e-01
7.921555184e-01,9.89641e-01,9.99999e-01,9.98362e-01,9.91299e-01,9.99963e-01
7.961162960e-01,9.88532e-01,9.99999e-01,9.97069e-01,9.91470e-01,9.99965e-01
8.000968774e-01,9.88269e-01,9.99999e-01,9.96638e-01,9.91638e-01,9.99963e-01
8.040973618e-01,9.88435e-01,9.99999e-01,9.96631e-01,9.91802e-01,9.99971e-01
8.081178486e-01,9.84362e-01,9.99999e-01,9.92364e-01,9.91964e-01,9.99971e-01
8.121584379e-01,9.60819e-01,9.99999e-01,9.68551e-01,9.92122e-01,9.99893e-01
8.162192301e-01,9.55341e-01,9.99999e-01,9.63159e-01,9.92277e-01,9.99601e-01
8.203003262e-01,9.73162e-01,9.99999e-01,9.81043e-01,9.92429e-01,9.99532e-01
8.244018279e-01,9.66716e-01,9.99999e-01,9.74306e-01,9.92578e-01,9.99628e-01
8.285238370e-01,9.70326e-01,9.99999e-01,9.77722e-01,9.92724e-01,9.99707e-01
8.326664562e-01,9.70489e-01,9.99999e-01,9.77578e-01,9.92867e-01,9.99878e-01
8.368297885e-01,9.77080e-01,9.99999e-01,9.83987e-01,9.93007e-01,9.99971e-01
8.410139374e-01,9.83661e-01,9.99999e-01,9.90466e-01,9.93145e-01,9.99983e-01
8.452190071e-01,9.88626e-01,9.99999e-01,9.95323e-01,9.93280e-01,9.99989e-01
8.494451021e-01,9.90697e-01,9.99999e-01,9.97273e-01,9.93412e-01,9.99991e-01
8.536923276e-01,9.91941e-01,9.99999e-01,9.98393e-01,9.93542e-01,9.99994e-01
8.579607893e-01,9.92682e-01,9.99999e-01,9.99006e-01,9.93669e-01,9.99998e-01
8.622505932e-01,9.93169e-01,9.99999e-01,9.99370e-01,9.93794e-01,9.99999e-01
8.665618462e-01,9.93528e-01,9.99999e-01,9.99608e-01,9.93916e-01,9.99999e-01
8.708946554e-01,9.93590e-01,9.99999e-01,9.99551e-01,9.94036e-01,9.99999e-01
8.752491287e-01,9.93557e-01,9.99999e-01,9.99400e-01,9.94153e-01,9.99998e-01
8.796253743e-01,9.93438e-01,9.99999e-01,9.99166e-01,9.94268e-01,9.99997e-01
8.840235012e-01,9.93430e-01,9.99999e-01,9.99049e-01,9.94381e-01,9.99993e-01
8.884436187e-01,9.90955e-01,9.99999e-01,9.96459e-01,9.94492e-01,9.99983e-01
8.928858368e-01,9.58444e-01,9.99999e-01,9.63737e-01,9.94600e-01,9.99904e-01
8.973502660e-01,9.31901e-01,9.99999e-01,9.37314e-01,9.94707e-01,9.99514e-01
9.018370173e-01,9.62026e-01,9.99999e-01,9.67780e-01,9.94811e-01,9.99237e-01
9.063462024e-01,9.65507e-01,9.99999e-01,9.71092e-01,9.94913e-01,9.99330e-01
9.108779334e-01,9.50102e-01,9.99999e-01,9.55527e-01,9.95013e-01,9.99303e-01
9.154323231e-01,9.44588e-01,9.99999e-01,9.49773e-01,9.95112e-01,9.99424e-01
9.200094847e-01,9.55625e-01,9.99999e-01,9.60535e-01,9.95208e-01,9.99677e-01
9.246095321e-01,9.32402e-01,9.99999e-01,9.37150e-01,9.95302e-01,9.99628e-01
9.292325798e-01,6.46809e-01,9.99999e-01,6.50965e-01,9.95395e-01,9.98210e-01
9.338787427e-01,5.71250e-01,9.99999e-01,5.77567e-01,9.95486e-01,9.93547e-01
9.385481364e-01,7.92846e-01,9.99999e-01,8.02053e-01,9.95575e-01,9.92913e-01
9.432408771e-01,7.24448e-01,9.99999e-01,7.32082e-01,9.95662e-01,9.93882e-01
9.479570815e-01,6.43332e-01,9.99999e-01,6.49313e-01,9.95747e-01,9.95018e-01
9.526968669e-01,7.21541e-01,9.99999e-01,7.26771e-01,9.95831e-01,9.96958e-01
9.574603512e-01,7.42397e-01,9.99999e-01,7.46596e-01,9.95913e-01,9.98453e-01
9.622476530e-01,7.85305e-01,9.99999e-01,7.89307e-01,9.95994e-01,9.98930e-01
9.670588912e-01,8.68354e-01,9.99999e-01,8.72415e-01,9.96073e-01,9.99268e-01
9.718941857e-01,9.14248e-01,9.99999e-01,9.18275e-01,9.96150e-01,9.99461e-01
9.767536566e-01,9.27766e-01,9.99999e-01,9.31664e-01,9.96226e-01,9.99588e-01
9.816374249e-01,9.45428e-01,9.99999e-01,9.49073e-01,9.96300e-01,9.99857e-01
9.865456120e-01,9.64359e-01,9.99999e-01,9.67897e-01,9.96373e-01,9.99969e-01
9.914783401e-01,9.76540e-01,9.99999e-01,9.80031e-01,9.96445e-01,9.99991e-01
9.964357318e-01,9.85629e-01,9.99999e-01,9.89080e-01,9.96515e-01,9.99994e-01
1.001417910e+00,9.90046e-01,9.99999e-01,9.93447e-01,9.96584e-01,9.99992e-01
1.006425000e+00,9.92904e-01,9.99999e-01,9.96250e-01,9.96651e-01,9.99989e-01
1.011457125e+00,9.94394e-01,9.99999e-01,9.97678e-01,9.96717e-01,9.99989e-01
1.016514411e+00,9.95201e-01,9.99999e-01,9.98420e-01,9.96782e-01,9.99992e-01
1.021596983e+00,9.95583e-01,9.99999e-01,9.98740e-01,9.96845e-01,9.99992e-01
1.026704968e+00,9.95924e-01,9.99999e-01,9.99017e-01,9.96907e-01,9.99995e-01
1.031838492e+00,9.96257e-01,9.99999e-01,9.99287e-01,9.96968e-01,9.99998e-01
1.036997685e+00,9.96605e-01,9.99999e-01,9.99575e-01,9.97028e-01,9.99999e-01
1.042182673e+00,9.96580e-01,9.99999e-01,9.99491e-01,9.97087e-01,9.99999e-01
1.047393587e+00,9.96474e-01,9.99999e-01,9.99327e-01,9.97144e-01,9.99999e-01
1.052630555e+00,9.96279e-01,9.99999e-01,9.99075e-01,9.97200e-01,9.99999e-01
1.057893707e+00,9.95715e-01,9.99999e-01,9.98455e-01,9.97256e-01,9.99998e-01
1.063183176e+00,9.94777e-01,9.99999e-01,9.97461e-01,9.97310e-01,9.99998e-01
1.068499092e+00,9.93130e-01,9.99999e-01,9.95758e-01,9.97363e-01,9.99996e-01
1.073841587e+00,9.92447e-01,9.99999e-01,9.95025e-01,9.97415e-01,9.99993e-01
1.079210795e+00,9.91119e-01,9.99999e-01,9.93653e-01,9.97466e-01,9.99982e-01
1.084606849e+00,9.87885e-01,9.99999e-01,9.90385e-01,9.97516e-01,9.99958e-01
1.090029883e+00,9.83628e-01,9.99999e-01,9.86111e-01,9.97565e-01,9.99915e-01
1.095480033e+00,9.60248e-01,9.99999e-01,9.62691e-01,9.97613e-01,9.99846e-01
1.100957433e+00,9.05453e-01,9.99999e-01,9.07831e-01,9.97660e-01,9.99718e-01
1.106462220e+00,7.78952e-01,9.99999e-01,7.81115e-01,9.97706e-01,9.99522e-01
1.111994531e+00,5.94234e-01,9.99999e-01,5.96327e-01,9.97751e-01,9.98734e-01
1.117554504e+00,4.30380e-01,9.99999e-01,4.33307e-01,9.97796e-01,9.95438e-01
1.123142276e+00,5.33987e-01,9.99999e-01,5.40976e-01,9.97839e-01,9.89216e-01
1.128757988e+00,6.64231e-01,9.99999e-01,6.74042e-01,9.97882e-01,9.87535e-01
1.134401778e+00,4.13166e-01,9.99999e-01,4.18464e-01,9.97923e-01,9.89391e-01
1.140073787e+00,7.82293e-01,9.99999e-01,7.90595e-01,9.97964e-01,9.91514e-01
1.145774156e+00,6.07121e-01,9.99999e-01,6.13098e-01,9.98005e-01,9.92230e-01
1.151503026e+00,5.75334e-01,9.99999e-01,5.78971e-01,9.98044e-01,9.95663e-01
1.157260541e+00,6.33253e-01,9.99999e-01,6.35294e-01,9.98082e-01,9.98701e-01
1.163046844e+00,7.14277e-01,9.99999e-01,7.15885e-01,9.98120e-01,9.99631e-01
1.168862078e+00,7.91547e-01,9.99999e-01,7.93157e-01,9.98157e-01,9.99809e-01
1.174706389e+00,8.64944e-01,9.99999e-01,8.66726e-01,9.98194e-01,9.99748e-01
1.180579921e+00,9.14688e-01,9.99999e-01,9.16658e-01,9.98229e-01,9.99619e-01
1.186482820e+00,9.49986e-01,9.99999e-01,9.52009e-01,9.98264e-01,9.99609e-01
1.192415234e+00,9.69755e-01,9.99999e-01,9.71691e-01,9.98299e-01,9.99707e-01
1.198377311e+00,9.74141e-01,9.99999e-01,9.76039e-01,9.98332e-01,9.99722e-01
1.204369197e+00,9.75494e-01,9.99999e-01,9.77326e-01,9.98365e-01,9.99757e-01
1.210391043e+00,9.76602e-01,9.99999e-01,9.78317e-01,9.98397e-01,9.99847e-01
1.216442998e+00,9.79937e-01,9.99999e-01,9.81569e-01,9.98429e-01,9.99906e-01
1.222525213e+00,9.84039e-01,9.99999e-01,9.85613e-01,9.98460e-01,9.99941e-01
1.228637839e+00,9.88462e-01,9.99999e-01,9.89982e-01,9.98490e-01,9.99972e-01
1.234781029e+00,9.91087e-01,9.99999e-01,9.92562e-01,9.98520e-01,9.99991e-01
1.240954934e+00,9.93841e-01,9.99999e-01,9.95286e-01,9.98549e-01,9.99997e-01
1.247159708e+00,9.94914e-01,9.99999e-01,9.96332e-01,9.98578e-01,9.99998e-01
1.253395507e+00,9.95347e-01,9.99999e-01,9.96737e-01,9.98606e-01,9.99997e-01
1.259662485e+00,9.95529e-01,9.99999e-01,9.96893e-01,9.98633e-01,9.99996e-01
1.265960797e+00,9.93714e-01,9.99999e-01,9.95051e-01,9.98660e-01,9.99994e-01
1.272290601e+00,9.90895e-01,9.99999e-01,9.92205e-01,9.98687e-01,9.99991e-01
1.278652054e+00,9.83279e-01,9.99999e-01,9.84560e-01,9.98713e-01,9.99984e-01
1.285045314e+00,9.70866e-01,9.99999e-01,9.72119e-01,9.98738e-01,9.99971e-01
1.291470541e+00,9.50686e-01,9.99999e-01,9.51910e-01,9.98763e-01,9.99950e-01
1.297927893e+00,9.31052e-01,9.99999e-01,9.32267e-01,9.98787e-01,9.99907e-01
1.304417533e+00,9.19501e-01,9.99999e-01,9.20773e-01,9.98811e-01,9.99805e-01
1.310939621e+00,8.99462e-01,9.99999e-01,9.00870e-01,9.98835e-01,9.99600e-01
1.317494319e+00,9.01005e-01,9.99999e-01,9.02700e-01,9.98858e-01,9.99261e-01
1.324081790e+00,8.57678e-01,9.99999e-01,8.59674e-01,9.98880e-01,9.98795e-01
1.330702199e+00,5.27247e-01,9.99999e-01,5.28923e-01,9.98902e-01,9.97923e-01
1.337355710e+00,2.03685e-01,9.99999e-01,2.04722e-01,9.98924e-01,9.96005e-01
1.344042489e+00,1.76172e-02,9.99999e-01,1.78496e-02,9.98945e-01,9.88017e-01
1.350762701e+00,2.89823e-04,9.99999e-01,3.02347e-04,9.98966e-01,9.59567e-01
1.357516515e+00,1.30818e-05,9.99999e-01,1.47812e-05,9.98986e-01,8.85923e-01
1.364304097e+00,5.62193e-04,9.99999e-01,6.95839e-04,9.99006e-01,8.08738e-01
1.371125618e+00,6.11479e-03,9.99999e-01,7.47692e-03,9.99026e-01,8.18618e-01
1.377981246e+00,1.27380e-02,9.99999e-01,1.51364e-02,9.99045e-01,8.42352e-01
1.384871152e+00,5.92564e-04,9.99999e-01,6.95933e-04,9.99064e-01,8.52262e-01
1.391795508e+00,8.09375e-04,9.99999e-01,9.43466e-04,9.99082e-01,8.58660e-01
1.398754485e+00,2.52653e-03,9.99999e-01,2.86802e-03,9.99101e-01,8.81726e-01
1.405748258e+00,2.31952e-03,9.99999e-01,2.49884e-03,9.99118e-01,9.29057e-01
1.412776999e+00,2.67585e-03,9.99999e-01,2.76967e-03,9.99136e-01,9.66961e-01
1.419840884e+00,4.03272e-03,9.99999e-01,4.09603e-03,9.99153e-01,9.85376e-01
1.426940089e+00,1.33886e-02,9.99999e-01,1.35506e-02,9.99169e-01,9.88870e-01
1.434074789e+00,3.69056e-02,9.99999e-01,3.74267e-02,9.99186e-01,9.86880e-01
1.441245163e+00,7.98883e-02,9.99999e-01,8.11040e-02,9.99202e-01,9.85796e-01
1.448451389e+00,1.65003e-01,9.99999e-01,1.67213e-01,9.99218e-01,9.87552e-01
1.455693646e+00,3.06817e-01,9.99999e-01,3.10059e-01,9.99233e-01,9.90301e-01
1.462972114e+00,3.60229e-01,9.99999e-01,3.63866e-01,9.99248e-01,9.90747e-01
1.470286975e+00,3.04415e-01,9.99999e-01,3.07435e-01,9.99263e-01,9.90904e-01
