#,Wave/freq,Total,N2,H2O,Rayleigh,CIA
4.000000000e-01,4.79387e-01,9.99999e-01,9.99916e-01,4.79426e-01,9.99999e-01
4.020000000e-01,4.86421e-01,9.99999e-01,9.99948e-01,4.86446e-01,9.99999e-01
4.040100000e-01,4.93409e-01,9.99999e-01,9.99977e-01,4.93420e-01,9.99999e-01
4.060300500e-01,5.00350e-01,9.99999e-01,9.99994e-01,5.00353e-01,9.99999e-01
4.080602003e-01,5.07243e-01,9.99999e-01,9.99997e-01,5.07243e-01,9.99999e-01
4.101005013e-01,5.14090e-01,9.99999e-01,9.99999e-01,5.14090e-01,9.99999e-01
4.121510038e-01,5.20889e-01,9.99999e-01,9.99996e-01,5.20891e-01,9.99999e-01
4.142117588e-01,5.27633e-01,9.99999e-01,9.99976e-01,5.27645e-01,9.99999e-01
4.162828176e-01,5.34296e-01,9.99999e-01,9.99896e-01,5.34350e-01,9.99999e-01
4.183642317e-01,5.40973e-01,9.99999e-01,9.99938e-01,5.41006e-01,9.99999e-01
4.204560528e-01,5.47591e-01,9.99999e-01,9.99962e-01,5.47611e-01,9.99999e-01
4.225583331e-01,5.54156e-01,9.99999e-01,9.99985e-01,5.54164e-01,9.99999e-01
4.246711247e-01,5.60657e-01,9.99999e-01,9.99988e-01,5.60663e-01,9.99999e-01
4.267944804e-01,5.67098e-01,9.99999e-01,9.99983e-01,5.67108e-01,9.99999e-01
4.289284528e-01,5.73490e-01,9.99999e-01,9.99986e-01,5.73497e-01,9.99999e-01
4.310730950e-01,5.79827e-01,9.99999e-01,9.99994e-01,5.79830e-01,9.99999e-01
4.332284605e-01,5.86105e-01,9.99999e-01,9.99998e-01,5.86106e-01,9.99999e-01
4.353946028e-01,5.92324e-01,9.99999e-01,9.99998e-01,5.92324e-01,9.99999e-01
4.375715758e-01,5.98477e-01,9.99999e-01,9.99989e-01,5.98483e-01,9.99999e-01
4.397594337e-01,6.04528e-01,9.99999e-01,9.99909e-01,6.04582e-01,9.99999e-01
4.419582309e-01,6.10342e-01,9.99999e-01,9.99541e-01,6.10622e-01,9.99999e-01
4.441680220e-01,6.16380e-01,9.99999e-01,9.99642e-01,6.16601e-01,9.99999e-01
4.463888621e-01,6.22286e-01,9.99999e-01,9.99627e-01,6.22518e-01,9.99999e-01
4.486208064e-01,6.28228e-01,9.99999e-01,9.99768e-01,6.28373e-01,9.99999e-01
4.508639105e-01,6.34098e-01,9.99999e-01,9.99891e-01,6.34167e-01,9.99999e-01
4.531182300e-01,6.39870e-01,9.99999e-01,9.99956e-01,6.39898e-01,9.99999e-01
4.553838212e-01,6.45547e-01,9.99999e-01,9.99970e-01,6.45565e-01,9.99999e-01
4.576607403e-01,6.51161e-01,9.99999e-01,9.99986e-01,6.51170e-01,9.99999e-01
4.599490440e-01,6.56705e-01,9.99999e-01,9.99990e-01,6.56711e-01,9.99999e-01
4.622487892e-01,6.62188e-01,9.99999e-01,9.99997e-01,6.62189e-01,9.99999e-01
4.645600332e-01,6.67598e-01,9.99999e-01,9.99993e-01,6.67602e-01,9.99999e-01
4.668828333e-01,6.72878e-01,9.99999e-01,9.99890e-01,6.72952e-01,9.99999e-01
4.692172475e-01,6.78079e-01,9.99999e-01,9.99766e-01,6.78237e-01,9.99999e-01
4.715633337e-01,6.83355e-01,9.99999e-01,9.99847e-01,6.83459e-01,9.99999e-01
4.739211504e-01,6.88516e-01,9.99999e-01,9.99853e-01,6.88616e-01,9.99999e-01
4.762907561e-01,6.93657e-01,9.99999e-01,9.99923e-01,6.93709e-01,9.99999e-01
4.786722099e-01,6.98717e-01,9.99999e-01,9.99968e-01,6.98738e-01,9.99999e-01
4.810655710e-01,7.03697e-01,9.99999e-01,9.99990e-01,7.03704e-01,9.99999e-01
4.834708988e-01,7.08542e-01,9.99999e-01,9.99910e-01,7.08605e-01,9.99999e-01
4.858882533e-01,7.13325e-01,9.99999e-01,9.99834e-01,7.13443e-01,9.99999e-01
4.883176946e-01,7.18118e-01,9.99999e-01,9.99861e-01,7.18217e-01,9.99999e-01
4.907592831e-01,7.22837e-01,9.99999e-01,9.99874e-01,7.22928e-01,9.99999e-01
4.932130795e-01,7.27511e-01,9.99999e-01,9.99910e-01,7.27576e-01,9.99999e-01
4.956791449e-01,7.32126e-01,9.99999e-01,9.99952e-01,7.32161e-01,9.99999e-01
4.981575406e-01,7.36510e-01,9.99999e-01,9.99764e-01,7.36683e-01,9.99999e-01
5.006483283e-01,7.40690e-01,9.99999e-01,9.99391e-01,7.41143e-01,9.99995e-01
5.031515699e-01,7.43222e-01,9.99999e-01,9.96920e-01,7.45542e-01,9.99967e-01
5.056673278e-01,7.48632e-01,9.99999e-01,9.98373e-01,7.49879e-01,9.99962e-01
5.081956644e-01,7.52590e-01,9.99999e-01,9.97948e-01,7.54154e-01,9.99975e-01
5.107366428e-01,7.57315e-01,9.99999e-01,9.98614e-01,7.58369e-01,9.99995e-01
5.132903260e-01,7.61920e-01,9.99999e-01,9.99208e-01,7.62524e-01,9.99998e-01
5.158567776e-01,7.66362e-01,9.99999e-01,9.99665e-01,7.66618e-01,9.99999e-01
5.184360615e-01,7.70550e-01,9.99999e-01,9.99865e-01,7.70653e-01,9.99999e-01
5.210282418e-01,7.74590e-01,9.99999e-01,9.99949e-01,7.74629e-01,9.99999e-01
5.236333830e-01,7.78389e-01,9.99999e-01,9.99798e-01,7.78546e-01,9.99998e-01
5.262515499e-01,7.82305e-01,9.99999e-01,9.99873e-01,7.82405e-01,9.99997e-01
5.288828077e-01,7.86115e-01,9.99999e-01,9.99884e-01,7.86207e-01,9.99998e-01
5.315272217e-01,7.89871e-01,9.99999e-01,9.99898e-01,7.89951e-01,9.99999e-01
5.341848578e-01,7.93586e-01,9.99999e-01,9.99933e-01,7.93639e-01,9.99999e-01
5.368557821e-01,7.97083e-01,9.99999e-01,9.99765e-01,7.97270e-01,9.99998e-01
5.395400610e-01,8.00164e-01,9.99999e-01,9.99155e-01,8.00846e-01,9.99992e-01
5.422377613e-01,8.03474e-01,9.99999e-01,9.98908e-01,8.04367e-01,9.99979e-01
5.449489501e-01,8.06997e-01,9.99999e-01,9.98984e-01,8.07833e-01,9.99979e-01
5.476736949e-01,8.10509e-01,9.99999e-01,9.99101e-01,8.11245e-01,9.99989e-01
5.504120634e-01,8.14071e-01,9.99999e-01,9.99347e-01,8.14604e-01,9.99996e-01
5.531641237e-01,8.17642e-01,9.99999e-01,9.99671e-01,8.17910e-01,9.99999e-01
5.559299443e-01,8.21034e-01,9.99999e-01,9.99841e-01,8.21164e-01,9.99999e-01
5.587095940e-01,8.24284e-01,9.99999e-01,9.99900e-01,8.24366e-01,9.99999e-01
5.615031420e-01,8.27426e-01,9.99999e-01,9.99889e-01,8.27517e-01,9.99999e-01
5.643106577e-01,8.30513e-01,9.99999e-01,9.99874e-01,8.30618e-01,9.99998e-01
5.671322110e-01,8.32386e-01,9.99999e-01,9.98475e-01,8.33668e-01,9.99986e-01
5.699678720e-01,8.35279e-01,9.99999e-01,9.98379e-01,8.36669e-01,9.99958e-01
5.728177114e-01,8.38176e-01,9.99999e-01,9.98312e-01,8.39621e-01,9.99965e-01
5.756818000e-01,8.41203e-01,9.99999e-01,9.98450e-01,8.42525e-01,9.99978e-01
5.785602090e-01,8.44235e-01,9.99999e-01,9.98649e-01,8.45382e-01,9.99993e-01
5.814530100e-01,8.47039e-01,9.99999e-01,9.98643e-01,8.48191e-01,9.99996e-01
5.843602750e-01,8.49571e-01,9.99999e-01,9.98383e-01,8.50954e-01,9.99990e-01
5.872820764e-01,8.41781e-01,9.99999e-01,9.86167e-01,8.53671e-01,9.99901e-01
5.902184868e-01,8.41766e-01,9.99999e-01,9.83238e-01,8.56343e-01,9.99732e-01
5.931695792e-01,8.48570e-01,9.99999e-01,9.88144e-01,8.58971e-01,9.99743e-01
5.961354271e-01,8.50230e-01,9.99999e-01,9.87001e-01,8.61554e-01,9.99852e-01
5.991161043e-01,8.55847e-01,9.99999e-01,9.90501e-01,8.64093e-01,9.99953e-01
6.021116848e-01,8.61907e-01,9.99999e-01,9.94600e-01,8.66590e-01,9.99994e-01
6.051222432e-01,8.66667e-01,9.99999e-01,9.97264e-01,8.69045e-01,9.99999e-01
6.081478544e-01,8.70429e-01,9.99999e-01,9.98819e-01,8.71457e-01,9.99999e-01
6.111885937e-01,8.73393e-01,9.99999e-01,9.99500e-01,8.73829e-01,9.99999e-01
6.142445367e-01,8.75965e-01,9.99999e-01,9.99776e-01,8.76160e-01,9.99999e-01
6.173157594e-01,8.78343e-01,9.99999e-01,9.99876e-01,8.78451e-01,9.99999e-01
6.204023382e-01,8.80611e-01,9.99999e-01,9.99895e-01,8.80702e-01,9.99999e-01
6.235043498e-01,8.82509e-01,9.99999e-01,9.99540e-01,8.82915e-01,9.99998e-01
6.266218716e-01,8.82927e-01,9.99999e-01,9.97572e-01,8.85089e-01,9.99982e-01
6.297549810e-01,8.86406e-01,9.99999e-01,9.99109e-01,8.87226e-01,9.99965e-01
6.329037559e-01,8.87737e-01,9.99999e-01,9.98239e-01,8.89326e-01,9.99972e-01
6.360682746e-01,8.90038e-01,9.99999e-01,9.98500e-01,8.91388e-01,9.99983e-01
6.392486160e-01,8.91674e-01,9.99999e-01,9.98057e-01,8.93415e-01,9.99992e-01
6.424448591e-01,8.93069e-01,9.99999e-01,9.97401e-01,8.95406e-01,9.99988e-01
6.456570834e-01,8.86528e-01,9.99999e-01,9.87992e-01,8.97362e-01,9.99932e-01
6.488853688e-01,8.91205e-01,9.99999e-01,9.91201e-01,8.99284e-01,9.99812e-01
6.521297956e-01,8.92955e-01,9.99999e-01,9.91035e-01,9.01171e-01,9.99845e-01
6.553904446e-01,8.94854e-01,9.99999e-01,9.91064e-01,9.03026e-01,9.99884e-01
6.586673968e-01,8.97888e-01,9.99999e-01,9.92346e-01,9.04847e-01,9.99961e-01
6.619607338e-01,9.02755e-01,9.99999e-01,9.95727e-01,9.06636e-01,9.99991e-01
6.652705375e-01,9.06058e-01,9.99999e-01,9.97433e-01,9.08393e-01,9.99995e-01
6.685968902e-01,9.09032e-01,9.99999e-01,9.98806e-01,9.10118e-01,9.99998e-01
6.719398746e-01,9.11309e-01,9.99999e-01,9.99447e-01,9.11813e-01,9.99999e-01
6.752995740e-01,9.13203e-01,9.99999e-01,9.99700e-01,9.13477e-01,9.99999e-01
6.786760719e-01,9.14715e-01,9.99999e-01,9.99566e-01,9.15111e-01,9.99998e-01
6.820694522e-01,9.16034e-01,9.99999e-01,9.99258e-01,9.16716e-01,9.99995e-01
6.854797995e-01,9.17408e-01,9.99999e-01,9.99044e-01,9.18292e-01,9.99991e-01
6.889071985e-01,9.17694e-01,9.99999e-01,9.97688e-01,9.19840e-01,9.99978e-01
6.923517345e-01,8.87066e-01,9.99999e-01,9.62953e-01,9.21359e-01,9.99818e-01
6.958134932e-01,9.04581e-01,9.99999e-01,9.80594e-01,9.22851e-01,9.99598e-01
6.992925606e-01,9.06891e-01,9.99999e-01,9.81502e-01,9.24315e-01,9.99638e-01
7.027890234e-01,9.04408e-01,9.99999e-01,9.77211e-01,9.25753e-01,9.99723e-01
7.063029686e-01,9.09233e-01,9.99999e-01,9.80793e-01,9.27165e-01,9.99862e-01
7.098344834e-01,9.11355e-01,9.99999e-01,9.81560e-01,9.28551e-01,9.99918e-01
7.133836558e-01,9.07026e-01,9.99999e-01,9.75546e-01,9.29912e-01,9.99838e-01
7.169505741e-01,7.64484e-01,9.99999e-01,8.21966e-01,9.31247e-01,9.98731e-01
7.205353270e-01,8.44952e-01,9.99999e-01,9.08088e-01,9.32559e-01,9.97763e-01
7.241380036e-01,8.24313e-01,9.99999e-01,8.84416e-01,9.33846e-01,9.98068e-01
7.277586936e-01,8.35722e-01,9.99999e-01,8.95129e-01,9.35109e-01,9.98420e-01
7.313974871e-01,8.31269e-01,9.99999e-01,8.88434e-01,9.36349e-01,9.99259e-01
7.350544745e-01,8.78542e-01,9.99999e-01,9.37285e-01,9.37566e-01,9.99742e-01
7.387297469e-01,8.94876e-01,9.99999e-01,9.53364e-01,9.38761e-01,9.99881e-01
7.424233956e-01,9.18188e-01,9.99999e-01,9.76886e-01,9.39933e-01,9.99976e-01
7.461355126e-01,9.27836e-01,9.99999e-01,9.85926e-01,9.41084e-01,9.99995e-01
7.498661902e-01,9.36016e-01,9.99999e-01,9.93423e-01,9.42214e-01,9.99998e-01
7.536155211e-01,9.40274e-01,9.99999e-01,9.96768e-01,9.43322e-01,9.99998e-01
7.573835987e-01,9.42838e-01,9.99999e-01,9.98335e-01,9.44410e-01,9.99999e-01
7.611705167e-01,9.44500e-01,9.99999e-01,9.98965e-01,9.45477e-01,9.99999e-01
7.649763693e-01,9.45911e-01,9.99999e-01,9.99351e-01,9.46525e-01,9.99999e-01
7.688012511e-01,9.47125e-01,9.99999e-01,9.99548e-01,9.47553e-01,9.99999e-01
7.726452574e-01,9.48209e-01,9.99999e-01,9.99628e-01,9.48562e-01,9.99999e-01
7.765084837e-01,9.49050e-01,9.99999e-01,9.99471e-01,9.49552e-01,9.99998e-01
7.803910261e-01,9.48354e-01,9.99999e-01,9.97719e-01,9.50523e-01,9.99997e-01
7.842929812e-01,9.43909e-01,9.99999e-01,9.92061e-01,9.51476e-01,9.99984e-01
7.882144461e-01,9.36801e-01,9.99999e-01,9.83708e-01,9.52412e-01,9.99899e-01
7.921555184e-01,9.44604e-01,9.99999e-01,9.91039e-01,9.53329e-01,9.99805e-01
7.961162960e-01,9.38993e-01,9.99999e-01,9.84214e-01,9.54230e-01,9.99813e-01
8.000968774e-01,9.37516e-01,9.99999e-01,9.81769e-01,9.55113e-01,9.99801e-01
8.040973618e-01,9.38406e-01,9.99999e-01,9.81770e-01,9.55980e-01,9.99842e-01
8.081178486e-01,9.17920e-01,9.99999e-01,9.59475e-01,9.56830e-01,9.99852e-01
8.121584379e-01,8.06619e-01,9.99999e-01,8.42765e-01,9.57665e-01,9.99420e-01
8.162192301e-01,7.81095e-01,9.99999e-01,8.16705e-01,9.58483e-01,9.97823e-01
8.203003262e-01,8.66893e-01,9.99999e-01,9.05992e-01,9.59286e-01,9.97452e-01
8.244018279e-01,8.35989e-01,9.99999e-01,8.72523e-01,9.60074e-01,9.97971e-01
8.285238370e-01,8.49489e-01,9.99999e-01,8.85513e-01,9.60847e-01,9.98406e-01
8.326664562e-01,8.50057e-01,9.99999e-01,8.84579e-01,9.61606e-01,9.99340e-01
8.368297885e-01,8.81022e-01,9.99999e-01,9.15628e-01,9.62349e-01,9.99848e-01
8.410139374e-01,9.13790e-01,9.99999e-01,9.48903e-01,9.63079e-01,9.99911e-01
8.452190071e-01,9.39252e-01,9.99999e-01,9.74585e-01,9.63795e-01,9.99946e-01
8.494451021e-01,9.50153e-01,9.99999e-01,9.85168e-01,9.64497e-01,9.99957e-01
8.536923276e-01,9.56674e-01,9.99999e-01,9.91205e-01,9.65186e-01,9.99973e-01
8.579607893e-01,9.60617e-01,9.99999e-01,9.94574e-01,9.65862e-01,9.99993e-01
8.622505932e-01,9.63190e-01,9.99999e-01,9.96550e-01,9.66525e-01,9.99998e-01
8.665618462e-01,9.65110e-01,9.99999e-01,9.97865e-01,9.67175e-01,9.99998e-01
8.708946554e-01,9.65446e-01,9.99999e-01,9.97555e-01,9.67813e-01,9.99998e-01
8.752491287e-01,9.65270e-01,9.99999e-01,9.96730e-01,9.68439e-01,9.99996e-01
8.796253743e-01,9.64658e-01,9.99999e-01,9.95475e-01,9.69052e-01,9.99989e-01
8.840235012e-01,9.64614e-01,9.99999e-01,9.94833e-01,9.69654e-01,9.99968e-01
8.884436187e-01,9.52077e-01,9.99999e-01,9.81362e-01,9.70245e-01,9.99909e-01
8.928858368e-01,7.97828e-01,9.99999e-01,8.22229e-01,9.70824e-01,9.99482e-01
8.973502660e-01,6.86709e-01,9.99999e-01,7.08809e-01,9.71392e-01,9.97353e-01
9.018370173e-01,8.12048e-01,9.99999e-01,8.38972e-01,9.71949e-01,9.95841e-01
9.063462024e-01,8.29517e-01,9.99999e-01,8.56105e-01,9.72495e-01,9.96346e-01
9.108779334e-01,7.61029e-01,9.99999e-01,7.85102e-01,9.73031e-01,9.96203e-01
9.154323231e-01,7.36371e-01,9.99999e-01,7.58753e-01,9.73556e-01,9.96860e-01
9.200094847e-01,7.84019e-01,9.99999e-01,8.06305e-01,9.74072e-01,9.98241e-01
9.246095321e-01,7.04132e-01,9.99999e-01,7.23965e-01,9.74577e-01,9.97974e-01
9.292325798e-01,1.34044e-01,9.99999e-01,1.38561e-01,9.75073e-01,9.92124e-01
9.338787427e-01,7.14570e-02,9.99999e-01,7.56808e-02,9.75560e-01,9.67842e-01
9.385481364e-01,3.27384e-01,9.99999e-01,3.48717e-01,9.76036e-01,9.61871e-01
9.432408771e-01,2.33023e-01,9.99999e-01,2.46768e-01,9.76504e-01,9.67018e-01
9.479570815e-01,1.34675e-01,9.99999e-01,1.41665e-01,9.76963e-01,9.73073e-01
9.526968669e-01,2.10074e-01,9.99999e-01,2.18536e-01,9.77413e-01,9.83489e-01
9.574603512e-01,2.26307e-01,9.99999e-01,2.33397e-01,9.77854e-01,9.91578e-01
9.622476530e-01,2.90166e-01,9.99999e-01,2.98346e-01,9.78287e-01,9.94169e-01
9.670588912e-01,4.81094e-01,9.99999e-01,4.93528e-01,9.78711e-01,9.96008e-01
9.718941857e-01,6.18152e-01,9.99999e-01,6.33191e-01,9.79127e-01,9.97060e-01
9.767536566e-01,6.68243e-01,9.99999e-01,6.83741e-01,9.79535e-01,9.97752e-01
9.816374249e-01,7.37360e-01,9.99999e-01,7.53043e-01,9.79935e-01,9.99221e-01
9.865456120e-01,8.20394e-01,9.99999e-01,8.36992e-01,9.80327e-01,9.99837e-01
9.914783401e-01,8.78234e-01,9.99999e-01,8.95546e-01,9.80712e-01,9.99954e-01
9.964357318e-01,9.23844e-01,9.99999e-01,9.41675e-01,9.81090e-01,9.99973e-01
1.001417910e+00,9.46678e-01,9.99999e-01,9.64599e-01,9.81460e-01,9.99959e-01
1.006425000e+00,9.61794e-01,9.99999e-01,9.79655e-01,9.81822e-01,9.99942e-01
1.011457125e+00,9.69681e-01,9.99999e-01,9.87327e-01,9.82178e-01,9.99946e-01
1.016514411e+00,9.74020e-01,9.99999e-01,9.91378e-01,9.82527e-01,9.99962e-01
1.021596983e+00,9.76075e-01,9.99999e-01,9.93124e-01,9.82869e-01,9.99961e-01
1.026704968e+00,9.77904e-01,9.99999e-01,9.94633e-01,9.83205e-01,9.99974e-01
1.031838492e+00,9.79689e-01,9.99999e-01,9.96097e-01,9.83534e-01,9.99992e-01
1.036997685e+00,9.81574e-01,9.99999e-01,9.97680e-01,9.83856e-01,9.99998e-01
1.042182673e+00,9.81451e-01,9.99999e-01,9.97234e-01,9.84173e-01,9.99999e-01
1.047393587e+00,9.80874e-01,9.99999e-01,9.96334e-01,9.84483e-01,9.99998e-01
1.052630555e+00,9.79835e-01,9.99999e-01,9.94972e-01,9.84787e-01,9.99998e-01
1.057893707e+00,9.76829e-01,9.99999e-01,9.91620e-01,9.85085e-01,9.99996e-01
1.063183176e+00,9.71824e-01,9.99999e-01,9.86251e-01,9.85378e-01,9.99992e-01
1.068499092e+00,9.63068e-01,9.99999e-01,9.77090e-01,9.85664e-01,9.99983e-01
1.073841587e+00,9.59563e-01,9.99999e-01,9.73274e-01,9.85946e-01,9.99965e-01
1.079210795e+00,9.52457e-01,9.99999e-01,9.65852e-01,9.86221e-01,9.99907e-01
1.084606849e+00,9.35794e-01,9.99999e-01,9.48818e-01,9.86491e-01,9.99776e-01
1.090029883e+00,9.14777e-01,9.99999e-01,9.27482e-01,9.86757e-01,9.99538e-01
1.095480033e+00,8.03530e-01,9.99999e-01,8.14779e-01,9.87016e-01,9.99164e-01
1.100957433e+00,5.90080e-01,9.99999e-01,5.98606e-01,9.87271e-01,9.98463e-01
1.106462220e+00,2.84069e-01,9.99999e-01,2.88409e-01,9.87521e-01,9.97395e-01
1.111994531e+00,7.74905e-02,9.99999e-01,7.89951e-02,9.87766e-01,9.93101e-01
1.117554504e+00,1.87772e-02,9.99999e-01,1.94860e-02,9.88006e-01,9.75318e-01
1.123142276e+00,6.43779e-02,9.99999e-01,6.91211e-02,9.88242e-01,9.42458e-01
1.128757988e+00,1.39154e-01,9.99999e-01,1.50767e-01,9.88473e-01,9.33739e-01
1.134401778e+00,6.27241e-02,9.99999e-01,6.72492e-02,9.88699e-01,9.43371e-01
1.140073787e+00,2.87183e-01,9.99999e-01,3.04246e-01,9.88921e-01,9.54490e-01
1.145774156e+00,9.65656e-02,9.99999e-01,1.01878e-01,9.89139e-01,9.58261e-01
1.151503026e+00,7.69632e-02,9.99999e-01,7.96612e-02,9.89352e-01,9.76528e-01
1.157260541e+00,9.92065e-02,9.99999e-01,1.00967e-01,9.89561e-01,9.92923e-01
1.163046844e+00,1.78125e-01,9.99999e-01,1.80329e-01,9.89766e-01,9.97988e-01
1.168862078e+00,2.88140e-01,9.99999e-01,2.91362e-01,9.89967e-01,9.98963e-01
1.174706389e+00,4.60316e-01,9.99999e-01,4.65528e-01,9.90164e-01,9.98626e-01
1.180579921e+00,6.18191e-01,9.99999e-01,6.25508e-01,9.90358e-01,9.97923e-01
1.186482820e+00,7.56314e-01,9.99999e-01,7.65161e-01,9.90547e-01,9.97868e-01
1.192415234e+00,8.45613e-01,9.99999e-01,8.54886e-01,9.90733e-01,9.98403e-01
1.198377311e+00,8.67014e-01,9.99999e-01,8.76283e-01,9.90915e-01,9.98491e-01
1.204369197e+00,8.73914e-01,9.99999e-01,8.82970e-01,9.91094e-01,9.98635e-01
1.210391043e+00,8.79039e-01,9.99999e-01,8.87517e-01,9.91269e-01,9.99169e-01
1.216442998e+00,8.95294e-01,9.99999e-01,9.03482e-01,9.91441e-01,9.99491e-01
1.222525213e+00,9.15818e-01,9.99999e-01,9.23858e-01,9.91609e-01,9.99683e-01
1.228637839e+00,9.38541e-01,9.99999e-01,9.46464e-01,9.91774e-01,9.99852e-01
1.234781029e+00,9.52196e-01,9.99999e-01,9.59976e-01,9.91936e-01,9.99957e-01
1.240954934e+00,9.66786e-01,9.99999e-01,9.74500e-01,9.92095e-01,9.99987e-01
1.247159708e+00,9.72479e-01,9.99999e-01,9.80081e-01,9.92250e-01,9.99991e-01
1.253395507e+00,9.74824e-01,9.99999e-01,9.82296e-01,9.92403e-01,9.99989e-01
1.259662485e+00,9.75837e-01,9.99999e-01,9.83174e-01,9.92552e-01,9.99983e-01
1.265960797e+00,9.66128e-01,9.99999e-01,9.73258e-01,9.92699e-01,9.99973e-01
1.272290601e+00,9.51433e-01,9.99999e-01,9.58336e-01,9.92842e-01,9.99953e-01
1.278652054e+00,9.12559e-01,9.99999e-01,9.19082e-01,9.92983e-01,9.99917e-01
1.285045314e+00,8.52554e-01,9.99999e-01,8.58589e-01,9.93121e-01,9.99846e-01
1.291470541e+00,7.61659e-01,9.99999e-01,7.67035e-01,9.93257e-01,9.99731e-01
1.297927893e+00,7.04286e-01,9.99999e-01,7.09328e-01,9.93389e-01,9.99498e-01
1.304417533e+00,6.39562e-01,9.99999e-01,6.44417e-01,9.93520e-01,9.98937e-01
1.310939621e+00,5.99645e-01,9.99999e-01,6.04796e-01,9.93647e-01,9.97820e-01
1.317494319e+00,5.74734e-01,9.99999e-01,5.80673e-01,9.93772e-01,9.95972e-01
1.324081790e+00,4.44858e-01,9.99999e-01,4.50549e-01,9.93895e-01,9.93433e-01
1.330702199e+00,1.04141e-01,9.99999e-01,1.05964e-01,9.94015e-01,9.88704e-01
1.337355710e+00,9.56580e-04,9.99999e-01,9.83506e-04,9.94133e-01,9.78360e-01
1.344042489e+00,1.18636e-05,9.99999e-01,1.27450e-05,9.94248e-01,9.36230e-01
1.350762701e+00,5.00468e-16,9.99999e-01,6.30680e-16,9.94362e-01,7.98035e-01
1.357516515e+00,7.01497e-24,9.99999e-01,1.36765e-23,9.94473e-01,5.15770e-01
1.364304097e+00,4.43557e-15,9.99999e-01,1.42315e-14,9.94582e-01,3.13370e-01
1.371125618e+00,1.36199e-09,9.99999e-01,4.08888e-09,9.94688e-01,3.34875e-01
1.377981246e+00,5.04133e-09,9.99999e-01,1.29443e-08,9.94793e-01,3.91501e-01
1.384871152e+00,1.20788e-12,9.99999e-01,2.90901e-12,9.94896e-01,4.17349e-01
1.391795508e+00,4.22734e-15,9.99999e-01,9.77218e-15,9.94996e-01,4.34764e-01
1.398754485e+00,8.13528e-12,9.99999e-01,1.62676e-11,9.95095e-01,5.02554e-01
1.405748258e+00,1.21765e-11,9.99999e-01,1.82937e-11,9.95191e-01,6.68826e-01
1.412776999e+00,2.35632e-11,9.99999e-01,2.84474e-11,9.95286e-01,8.32229e-01
1.419840884e+00,4.47080e-11,9.99998e-01,4.86819e-11,9.95379e-01,9.22632e-01
1.426940089e+00,9.19029e-08,9.99998e-01,9.81452e-08,9.95470e-01,9.40657e-01
1.434074789e+00,1.02615e-06,9.99998e-01,1.10788e-06,9.95559e-01,9.30354e-01
1.441245163e+00,1.20729e-05,9.99999e-01,1.31118e-05,9.95647e-01,9.24786e-01
1.448451389e+00,4.52099e-04,9.99998e-01,4.86210e-04,9.95733e-01,9.33826e-01
1.455693646e+00,5.20282e-03,9.99999e-01,5.51055e-03,9.95817e-01,9.48121e-01
1.462972114e+00,7.75138e-03,9.99999e-01,8.18896e-03,9.95899e-01,9.50461e-01
1.470286975e+00,3.80126e-03,9.99999e-01,4.01204e-03,9.95980e-01,9.51284e-01
