#,Wave/freq,Total,N2,H2O,Rayleigh,CIA
4.000000000e-01,5.92062e-01,9.99999e-01,9.99940e-01,5.92097e-01,9.99999e-01
4.020000000e-01,5.98243e-01,9.99999e-01,9.99962e-01,5.98265e-01,9.99999e-01
4.040100000e-01,6.04357e-01,9.99999e-01,9.99983e-01,6.04367e-01,9.99999e-01
4.060300500e-01,6.10406e-01,9.99999e-01,9.99995e-01,6.10408e-01,9.99999e-01
4.080602003e-01,6.16388e-01,9.99999e-01,9.99998e-01,6.16389e-01,9.99999e-01
4.101005013e-01,6.22309e-01,9.99999e-01,9.99999e-01,6.22309e-01,9.99999e-01
4.121510038e-01,6.28165e-01,9.99999e-01,9.99997e-01,6.28166e-01,9.99999e-01
4.142117588e-01,6.33952e-01,9.99999e-01,9.99983e-01,6.33962e-01,9.99999e-01
4.162828176e-01,6.39648e-01,9.99999e-01,9.99926e-01,6.39695e-01,9.99999e-01
4.183642317e-01,6.45337e-01,9.99999e-01,9.99955e-01,6.45365e-01,9.99999e-01
4.204560528e-01,6.50954e-01,9.99999e-01,9.99972e-01,6.50972e-01,9.99999e-01
4.225583331e-01,6.56509e-01,9.99999e-01,9.99989e-01,6.56515e-01,9.99999e-01
4.246711247e-01,6.61990e-01,9.99999e-01,9.99991e-01,6.61995e-01,9.99999e-01
4.267944804e-01,6.67403e-01,9.99999e-01,9.99987e-01,6.67411e-01,9.99999e-01
4.289284528e-01,6.72757e-01,9.99999e-01,9.99990e-01,6.72763e-01,9.99999e-01
4.310730950e-01,6.78048e-01,9.99999e-01,9.99995e-01,6.78051e-01,9.99999e-01
4.332284605e-01,6.83274e-01,9.99999e-01,9.99998e-01,6.83274e-01,9.99999e-01
4.353946028e-01,6.88434e-01,9.99999e-01,9.99999e-01,6.88434e-01,9.99999e-01
4.375715758e-01,6.93524e-01,9.99999e-01,9.99992e-01,6.93529e-01,9.99999e-01
4.397594337e-01,6.98516e-01,9.99999e-01,9.99935e-01,6.98561e-01,9.99999e-01
4.419582309e-01,7.03300e-01,9.99999e-01,9.99675e-01,7.03528e-01,9.99999e-01
4.441680220e-01,7.08251e-01,9.99999e-01,9.99743e-01,7.08432e-01,9.99999e-01
4.463888621e-01,7.13083e-01,9.99999e-01,9.99734e-01,7.13272e-01,9.99999e-01
4.486208064e-01,7.17930e-01,9.99999e-01,9.99834e-01,7.18048e-01,9.99999e-01
4.508639105e-01,7.22705e-01,9.99999e-01,9.99922e-01,7.22761e-01,9.99999e-01
4.531182300e-01,7.27389e-01,9.99999e-01,9.99968e-01,7.27411e-01,9.99999e-01
4.553838212e-01,7.31984e-01,9.99999e-01,9.99978e-01,7.31999e-01,9.99999e-01
4.576607403e-01,7.36516e-01,9.99999e-01,9.99989e-01,7.36523e-01,9.99999e-01
4.599490440e-01,7.40981e-01,9.99999e-01,9.99992e-01,7.40986e-01,9.99999e-01
4.622487892e-01,7.45386e-01,9.99999e-01,9.99998e-01,7.45386e-01,9.99999e-01
4.645600332e-01,7.49722e-01,9.99999e-01,9.99994e-01,7.49725e-01,9.99999e-01
4.668828333e-01,7.53945e-01,9.99999e-01,9.99921e-01,7.54003e-01,9.99999e-01
4.692172475e-01,7.58094e-01,9.99999e-01,9.99833e-01,7.58220e-01,9.99999e-01
4.715633337e-01,7.62294e-01,9.99999e-01,9.99890e-01,7.62377e-01,9.99999e-01
4.739211504e-01,7.66394e-01,9.99999e-01,9.99895e-01,7.66474e-01,9.99999e-01
4.762907561e-01,7.70469e-01,9.99999e-01,9.99945e-01,7.70511e-01,9.99999e-01
4.786722099e-01,7.74471e-01,9.99999e-01,9.99977e-01,7.74489e-01,9.99999e-01
4.810655710e-01,7.78403e-01,9.99999e-01,9.99992e-01,7.78408e-01,9.99999e-01
4.834708988e-01,7.82220e-01,9.99999e-01,9.99936e-01,7.82269e-01,9.99999e-01
4.858882533e-01,7.85980e-01,9.99999e-01,9.99881e-01,7.86073e-01,9.99999e-01
4.883176946e-01,7.89741e-01,9.99999e-01,9.99901e-01,7.89819e-01,9.99999e-01
4.907592831e-01,7.93438e-01,9.99999e-01,9.99910e-01,7.93508e-01,9.99999e-01
4.932130795e-01,7.97092e-01,9.99999e-01,9.99936e-01,7.97142e-01,9.99999e-01
4.956791449e-01,8.00693e-01,9.99999e-01,9.99966e-01,8.00720e-01,9.99999e-01
4.981575406e-01,8.04108e-01,9.99999e-01,9.99832e-01,8.04243e-01,9.99999e-01
5.006483283e-01,8.07360e-01,9.99999e-01,9.99568e-01,8.07711e-01,9.99996e-01
5.031515699e-01,8.09327e-01,9.99999e-01,9.97806e-01,8.11125e-01,9.99976e-01
5.056673278e-01,8.13519e-01,9.99999e-01,9.98839e-01,8.14486e-01,9.99973e-01
5.081956644e-01,8.16583e-01,9.99999e-01,9.98535e-01,8.17794e-01,9.99982e-01
5.107366428e-01,8.20235e-01,9.99999e-01,9.99010e-01,8.21049e-01,9.99996e-01
5.132903260e-01,8.23787e-01,9.99999e-01,9.99433e-01,8.24253e-01,9.99999e-01
5.158567776e-01,8.27208e-01,9.99999e-01,9.99760e-01,8.27406e-01,9.99999e-01
5.184360615e-01,8.30429e-01,9.99999e-01,9.99903e-01,8.30508e-01,9.99999e-01
5.210282418e-01,8.33531e-01,9.99999e-01,9.99963e-01,8.33560e-01,9.99999e-01
5.236333830e-01,8.36443e-01,9.99999e-01,9.99856e-01,8.36563e-01,9.99998e-01
5.262515499e-01,8.39441e-01,9.99999e-01,9.99909e-01,8.39517e-01,9.99998e-01
5.288828077e-01,8.42353e-01,9.99999e-01,9.99917e-01,8.42423e-01,9.99998e-01
5.315272217e-01,8.45220e-01,9.99999e-01,9.99927e-01,8.45281e-01,9.99999e-01
5.341848578e-01,8.48052e-01,9.99999e-01,9.99952e-01,8.48092e-01,9.99999e-01
5.368557821e-01,8.50715e-01,9.99999e-01,9.99833e-01,8.50857e-01,9.99999e-01
5.395400610e-01,8.53061e-01,9.99999e-01,9.99401e-01,8.53576e-01,9.99994e-01
5.422377613e-01,8.55570e-01,9.99999e-01,9.99220e-01,8.56249e-01,9.99985e-01
5.449489501e-01,8.58246e-01,9.99999e-01,9.99278e-01,8.58878e-01,9.99984e-01
5.476736949e-01,8.60903e-01,9.99999e-01,9.99357e-01,8.61463e-01,9.99992e-01
5.504120634e-01,8.63600e-01,9.99999e-01,9.99533e-01,8.64004e-01,9.99997e-01
5.531641237e-01,8.66299e-01,9.99999e-01,9.99765e-01,8.66502e-01,9.99999e-01
5.559299443e-01,8.68860e-01,9.99999e-01,9.99886e-01,8.68958e-01,9.99999e-01
5.587095940e-01,8.71311e-01,9.99999e-01,9.99928e-01,8.71372e-01,9.99999e-01
5.615031420e-01,8.73676e-01,9.99999e-01,9.99920e-01,8.73745e-01,9.99999e-01
5.643106577e-01,8.75999e-01,9.99999e-01,9.99910e-01,8.76078e-01,9.99998e-01
5.671322110e-01,8.77418e-01,9.99999e-01,9.98924e-01,8.78370e-01,9.99989e-01
5.699678720e-01,8.79575e-01,9.99999e-01,9.98838e-01,8.80623e-01,9.99969e-01
5.728177114e-01,8.81755e-01,9.99999e-01,9.98797e-01,8.82837e-01,9.99974e-01
5.756818000e-01,8.84022e-01,9.99999e-01,9.98895e-01,8.85013e-01,9.99984e-01
5.785602090e-01,8.86292e-01,9.99999e-01,9.99035e-01,8.87151e-01,9.99994e-01
5.814530100e-01,8.88390e-01,9.99999e-01,9.99033e-01,8.89252e-01,9.99997e-01
5.843602750e-01,8.90288e-01,9.99999e-01,9.98852e-01,8.91316e-01,9.99993e-01
5.872820764e-01,8.84484e-01,9.99999e-01,9.90150e-01,8.93344e-01,9.99929e-01
5.902184868e-01,8.84429e-01,9.99999e-01,9.88005e-01,8.95336e-01,9.99809e-01
5.931695792e-01,8.89532e-01,9.99999e-01,9.91532e-01,8.97293e-01,9.99814e-01
5.961354271e-01,8.90760e-01,9.99999e-01,9.90706e-01,8.99216e-01,9.99887e-01
5.991161043e-01,8.94957e-01,9.99999e-01,9.93209e-01,9.01105e-01,9.99967e-01
6.021116848e-01,8.99471e-01,9.99999e-01,9.96138e-01,9.02960e-01,9.99995e-01
6.051222432e-01,9.03013e-01,9.99999e-01,9.98044e-01,9.04783e-01,9.99999e-01
6.081478544e-01,9.05808e-01,9.99999e-01,9.99156e-01,9.06573e-01,9.99999e-01
6.111885937e-01,9.08006e-01,9.99999e-01,9.99642e-01,9.08331e-01,9.99999e-01
6.142445367e-01,9.09912e-01,9.99999e-01,9.99840e-01,9.10057e-01,9.99999e-01
6.173157594e-01,9.11673e-01,9.99999e-01,9.99911e-01,9.11753e-01,9.99999e-01
6.204023382e-01,9.13351e-01,9.99999e-01,9.99925e-01,9.13418e-01,9.99999e-01
6.235043498e-01,9.14757e-01,9.99999e-01,9.99675e-01,9.15054e-01,9.99998e-01
6.266218716e-01,9.15063e-01,9.99999e-01,9.98269e-01,9.16660e-01,9.99987e-01
6.297549810e-01,9.17632e-01,9.99999e-01,9.99365e-01,9.18237e-01,9.99975e-01
6.329037559e-01,9.18612e-01,9.99999e-01,9.98743e-01,9.19785e-01,9.99980e-01
6.360682746e-01,9.20312e-01,9.99999e-01,9.98932e-01,9.21305e-01,9.99987e-01
6.392486160e-01,9.21516e-01,9.99999e-01,9.98614e-01,9.22798e-01,9.99994e-01
6.424448591e-01,9.22552e-01,9.99999e-01,9.98155e-01,9.24264e-01,9.99991e-01
6.456570834e-01,9.17755e-01,9.99999e-01,9.91460e-01,9.25703e-01,9.99951e-01
6.488853688e-01,9.21158e-01,9.99999e-01,9.93705e-01,9.27115e-01,9.99866e-01
6.521297956e-01,9.22443e-01,9.99999e-01,9.93585e-01,9.28502e-01,9.99887e-01
6.553904446e-01,9.23887e-01,9.99999e-01,9.93654e-01,9.29864e-01,9.99915e-01
6.586673968e-01,9.26079e-01,9.99999e-01,9.94526e-01,9.31200e-01,9.99972e-01
6.619607338e-01,9.29554e-01,9.99999e-01,9.96832e-01,9.32512e-01,9.99993e-01
6.652705375e-01,9.32082e-01,9.99999e-01,9.98162e-01,9.33800e-01,9.99996e-01
6.685968902e-01,9.34266e-01,9.99999e-01,9.99146e-01,9.35064e-01,9.99999e-01
6.719398746e-01,9.35935e-01,9.99999e-01,9.99603e-01,9.36305e-01,9.99999e-01
6.752995740e-01,9.37323e-01,9.99999e-01,9.99785e-01,9.37523e-01,9.99999e-01
6.786760719e-01,9.38430e-01,9.99999e-01,9.99691e-01,9.38719e-01,9.99999e-01
6.820694522e-01,9.39394e-01,9.99999e-01,9.99472e-01,9.39892e-01,9.99996e-01
6.854797995e-01,9.40398e-01,9.99999e-01,9.99319e-01,9.41044e-01,9.99993e-01
6.889071985e-01,9.40622e-01,9.99999e-01,9.98367e-01,9.42174e-01,9.99984e-01
6.923517345e-01,9.18181e-01,9.99999e-01,9.73513e-01,9.43283e-01,9.99870e-01
6.958134932e-01,9.30875e-01,9.99999e-01,9.85995e-01,9.44371e-01,9.99708e-01
6.992925606e-01,9.32738e-01,9.99999e-01,9.86817e-01,9.45440e-01,9.99743e-01
7.027890234e-01,9.30854e-01,9.99999e-01,9.83674e-01,9.46488e-01,9.99803e-01
7.063029686e-01,9.34407e-01,9.99999e-01,9.86259e-01,9.47517e-01,9.99901e-01
7.098344834e-01,9.35963e-01,9.99999e-01,9.86811e-01,9.48526e-01,9.99941e-01
7.133836558e-01,9.32890e-01,9.99999e-01,9.82601e-01,9.49517e-01,9.99884e-01
7.169505741e-01,8.25212e-01,9.99999e-01,8.68983e-01,9.50489e-01,9.99095e-01
7.205353270e-01,8.86053e-01,9.99999e-01,9.32760e-01,9.51443e-01,9.98404e-01
7.241380036e-01,8.71103e-01,9.99999e-01,9.15921e-01,9.52379e-01,9.98622e-01
7.277586936e-01,8.79652e-01,9.99999e-01,9.23787e-01,9.53297e-01,9.98873e-01
7.313974871e-01,8.76146e-01,9.99999e-01,9.18685e-01,9.54198e-01,9.99471e-01
7.350544745e-01,9.11672e-01,9.99999e-01,9.54723e-01,9.55082e-01,9.99816e-01
7.387297469e-01,9.23780e-01,9.99999e-01,9.66428e-01,9.55949e-01,9.99915e-01
7.424233956e-01,9.40908e-01,9.99999e-01,9.83405e-01,9.56800e-01,9.99983e-01
7.461355126e-01,9.47980e-01,9.99999e-01,9.89919e-01,9.57635e-01,9.99996e-01
7.498661902e-01,9.53938e-01,9.99999e-01,9.95287e-01,9.58454e-01,9.99998e-01
7.536155211e-01,9.57042e-01,9.99999e-01,9.97689e-01,9.59258e-01,9.99998e-01
7.573835987e-01,9.58904e-01,9.99999e-01,9.98809e-01,9.60047e-01,9.99999e-01
7.611705167e-01,9.60110e-01,9.99999e-01,9.99260e-01,9.60820e-01,9.99999e-01
7.649763693e-01,9.61134e-01,9.99999e-01,9.99536e-01,9.61579e-01,9.99999e-01
7.688012511e-01,9.62013e-01,9.99999e-01,9.99677e-01,9.62323e-01,9.99999e-01
7.726452574e-01,9.62798e-01,9.99999e-01,9.99734e-01,9.63054e-01,9.99999e-01
7.765084837e-01,9.63408e-01,9.99999e-01,9.99624e-01,9.63770e-01,9.99999e-01
7.803910261e-01,9.62910e-01,9.99999e-01,9.98381e-01,9.64473e-01,9.99997e-01
7.842929812e-01,9.59709e-01,9.99999e-01,9.94359e-01,9.65162e-01,9.99989e-01
7.882144461e-01,9.54523e-01,9.99999e-01,9.88354e-01,9.65838e-01,9.99928e-01
7.921555184e-01,9.60167e-01,9.99999e-01,9.93582e-01,9.66502e-01,9.99861e-01
7.961162960e-01,9.56149e-01,9.99999e-01,9.88753e-01,9.67152e-01,9.99866e-01
8.000968774e-01,9.55047e-01,9.99999e-01,9.86970e-01,9.67790e-01,9.99858e-01
8.040973618e-01,9.55701e-01,9.99999e-01,9.86979e-01,9.68417e-01,9.99887e-01
8.081178486e-01,9.40861e-01,9.99999e-01,9.71031e-01,9.69031e-01,9.99894e-01
8.121584379e-01,8.57792e-01,9.99999e-01,8.85021e-01,9.69633e-01,9.99586e-01
8.162192301e-01,8.37476e-01,9.99999e-01,8.64519e-01,9.70224e-01,9.98447e-01
8.203003262e-01,9.02742e-01,9.99999e-01,9.31584e-01,9.70803e-01,9.98182e-01
8.244018279e-01,8.77938e-01,9.99999e-01,9.05120e-01,9.71372e-01,9.98553e-01
8.285238370e-01,8.90047e-01,9.99999e-01,9.16794e-01,9.71929e-01,9.98863e-01
8.326664562e-01,8.90220e-01,9.99999e-01,9.15845e-01,9.72476e-01,9.99529e-01
8.368297885e-01,9.13434e-01,9.99999e-01,9.38869e-01,9.73012e-01,9.99892e-01
8.410139374e-01,9.37634e-01,9.99999e-01,9.63180e-01,9.73538e-01,9.99936e-01
8.452190071e-01,9.56246e-01,9.99999e-01,9.81753e-01,9.74054e-01,9.99962e-01
8.494451021e-01,9.64194e-01,9.99999e-01,9.89393e-01,9.74560e-01,9.99969e-01
8.536923276e-01,9.68898e-01,9.99999e-01,9.93703e-01,9.75056e-01,9.99979e-01
8.579607893e-01,9.71757e-01,9.99999e-01,9.96124e-01,9.75542e-01,9.99994e-01
8.622505932e-01,9.73612e-01,9.99999e-01,9.97533e-01,9.76020e-01,9.99998e-01
8.665618462e-01,9.75000e-01,9.99999e-01,9.98476e-01,9.76488e-01,9.99999e-01
8.708946554e-01,9.75245e-01,9.99999e-01,9.98258e-01,9.76947e-01,9.99998e-01
8.752491287e-01,9.75117e-01,9.99999e-01,9.97669e-01,9.77397e-01,9.99997e-01
8.796253743e-01,9.74683e-01,9.99999e-01,9.96779e-01,9.77838e-01,9.99992e-01
8.840235012e-01,9.74650e-01,9.99999e-01,9.96319e-01,9.78271e-01,9.99977e-01
8.884436187e-01,9.65711e-01,9.99999e-01,9.86794e-01,9.78696e-01,9.99935e-01
8.928858368e-01,8.50910e-01,9.99999e-01,8.69382e-01,9.79112e-01,9.99631e-01
8.973502660e-01,7.62912e-01,9.99999e-01,7.80335e-01,9.79521e-01,9.98112e-01
9.018370173e-01,8.60427e-01,9.99999e-01,8.80669e-01,9.79921e-01,9.97033e-01
9.063462024e-01,8.74853e-01,9.99999e-01,8.94752e-01,9.80314e-01,9.97393e-01
9.108779334e-01,8.22014e-01,9.99999e-01,8.40467e-01,9.80699e-01,9.97291e-01
9.154323231e-01,8.02889e-01,9.99999e-01,8.20211e-01,9.81076e-01,9.97760e-01
9.200094847e-01,8.39453e-01,9.99999e-01,8.56395e-01,9.81447e-01,9.98745e-01
9.246095321e-01,7.76328e-01,9.99999e-01,7.91855e-01,9.81810e-01,9.98555e-01
9.292325798e-01,2.20587e-01,9.99999e-01,2.25861e-01,9.82166e-01,9.94378e-01
9.338787427e-01,1.39257e-01,9.99999e-01,1.45076e-01,9.82515e-01,9.76967e-01
9.385481364e-01,4.35535e-01,9.99999e-01,4.55584e-01,9.82857e-01,9.72666e-01
9.432408771e-01,3.35975e-01,9.99999e-01,3.49987e-01,9.83193e-01,9.76374e-01
9.479570815e-01,2.26217e-01,9.99999e-01,2.34526e-01,9.83522e-01,9.80728e-01
9.526968669e-01,3.16149e-01,9.99999e-01,3.25176e-01,9.83845e-01,9.88201e-01
9.574603512e-01,3.35881e-01,9.99999e-01,3.43350e-01,9.84162e-01,9.93988e-01
9.622476530e-01,4.04668e-01,9.99999e-01,4.12767e-01,9.84472e-01,9.95839e-01
9.670588912e-01,5.87330e-01,9.99999e-01,5.98111e-01,9.84776e-01,9.97152e-01
9.718941857e-01,7.07957e-01,9.99999e-01,7.20193e-01,9.85075e-01,9.97903e-01
9.767536566e-01,7.48890e-01,9.99999e-01,7.61230e-01,9.85367e-01,9.98397e-01
9.816374249e-01,8.03884e-01,9.99999e-01,8.16036e-01,9.85654e-01,9.99444e-01
9.865456120e-01,8.67933e-01,9.99999e-01,8.80415e-01,9.85936e-01,9.99883e-01
9.914783401e-01,9.11416e-01,9.99999e-01,9.24188e-01,9.86211e-01,9.99967e-01
9.964357318e-01,9.44997e-01,9.99999e-01,9.57963e-01,9.86482e-01,9.99980e-01
1.001417910e+00,9.61634e-01,9.99999e-01,9.74576e-01,9.86747e-01,9.99970e-01
1.006425000e+00,9.72599e-01,9.99999e-01,9.85441e-01,9.87007e-01,9.99958e-01
1.011457125e+00,9.78269e-01,9.99999e-01,9.90928e-01,9.87262e-01,9.99961e-01
1.016514411e+00,9.81401e-01,9.99999e-01,9.93837e-01,9.87512e-01,9.99972e-01
1.021596983e+00,9.82880e-01,9.99999e-01,9.95088e-01,9.87757e-01,9.99972e-01
1.026704968e+00,9.84195e-01,9.99999e-01,9.96168e-01,9.87998e-01,9.99981e-01
1.031838492e+00,9.85473e-01,9.99999e-01,9.97211e-01,9.88233e-01,9.99994e-01
1.036997685e+00,9.86828e-01,9.99999e-01,9.98344e-01,9.88464e-01,9.99998e-01
1.042182673e+00,9.86744e-01,9.99999e-01,9.98030e-01,9.88691e-01,9.99999e-01
1.047393587e+00,9.86328e-01,9.99999e-01,9.97386e-01,9.88913e-01,9.99999e-01
1.052630555e+00,9.85587e-01,9.99999e-01,9.96417e-01,9.89131e-01,9.99998e-01
1.057893707e+00,9.83437e-01,9.99999e-01,9.94030e-01,9.89344e-01,9.99997e-01
1.063183176e+00,9.79841e-01,9.99999e-01,9.90189e-01,9.89554e-01,9.99994e-01
1.068499092e+00,9.73531e-01,9.99999e-01,9.83614e-01,9.89759e-01,9.99988e-01
1.073841587e+00,9.71013e-01,9.99999e-01,9.80884e-01,9.89960e-01,9.99975e-01
1.079210795e+00,9.65847e-01,9.99999e-01,9.75511e-01,9.90158e-01,9.99933e-01
1.084606849e+00,9.53774e-01,9.99999e-01,9.63219e-01,9.90351e-01,9.99840e-01
1.090029883e+00,9.38547e-01,9.99999e-01,9.47821e-01,9.90541e-01,9.99670e-01
1.095480033e+00,8.55581e-01,9.99999e-01,8.64103e-01,9.90727e-01,9.99404e-01
1.100957433e+00,6.85197e-01,9.99999e-01,6.92240e-01,9.90909e-01,9.98904e-01
1.106462220e+00,4.00208e-01,9.99999e-01,4.04558e-01,9.91088e-01,9.98142e-01
1.111994531e+00,1.52773e-01,9.99999e-01,1.54882e-01,9.91263e-01,9.95077e-01
1.117554504e+00,5.18837e-02,9.99999e-01,5.32725e-02,9.91435e-01,9.82341e-01
1.123142276e+00,1.24968e-01,9.99999e-01,1.31464e-01,9.91603e-01,9.58631e-01
1.128757988e+00,2.34390e-01,9.99999e-01,2.48172e-01,9.91768e-01,9.52299e-01
1.134401778e+00,1.04336e-01,9.99999e-01,1.09648e-01,9.91930e-01,9.59292e-01
1.140073787e+00,4.04208e-01,9.99999e-01,4.21186e-01,9.92089e-01,9.67340e-01
1.145774156e+00,1.74645e-01,9.99999e-01,1.81442e-01,9.92245e-01,9.70062e-01
1.151503026e+00,1.48544e-01,9.99999e-01,1.52238e-01,9.92397e-01,9.83210e-01
1.157260541e+00,1.85578e-01,9.99999e-01,1.87920e-01,9.92547e-01,9.94949e-01
1.163046844e+00,2.84473e-01,9.99999e-01,2.86978e-01,9.92693e-01,9.98565e-01
1.168862078e+00,4.07444e-01,9.99999e-01,4.10686e-01,9.92837e-01,9.99260e-01
1.174706389e+00,5.72064e-01,9.99999e-01,5.76673e-01,9.92978e-01,9.99020e-01
1.180579921e+00,7.07937e-01,9.99999e-01,7.13901e-01,9.93116e-01,9.98519e-01
1.186482820e+00,8.18921e-01,9.99999e-01,8.25739e-01,9.93252e-01,9.98479e-01
1.192415234e+00,8.87172e-01,9.99999e-01,8.94097e-01,9.93385e-01,9.98861e-01
1.198377311e+00,9.03211e-01,9.99999e-01,9.10085e-01,9.93515e-01,9.98924e-01
1.204369197e+00,9.08173e-01,9.99999e-01,9.14872e-01,9.93643e-01,9.99026e-01
1.210391043e+00,9.12039e-01,9.99999e-01,9.18301e-01,9.93768e-01,9.99407e-01
1.216442998e+00,9.23973e-01,9.99999e-01,9.29989e-01,9.93891e-01,9.99637e-01
1.222525213e+00,9.39143e-01,9.99999e-01,9.45013e-01,9.94011e-01,9.99774e-01
1.228637839e+00,9.55750e-01,9.99999e-01,9.61494e-01,9.94129e-01,9.99894e-01
1.234781029e+00,9.65632e-01,9.99999e-01,9.71250e-01,9.94244e-01,9.99969e-01
1.240954934e+00,9.76187e-01,9.99999e-01,9.81734e-01,9.94358e-01,9.99991e-01
1.247159708e+00,9.80282e-01,9.99999e-01,9.85739e-01,9.94469e-01,9.99994e-01
1.253395507e+00,9.81980e-01,9.99999e-01,9.87339e-01,9.94578e-01,9.99992e-01
1.259662485e+00,9.82723e-01,9.99999e-01,9.87985e-01,9.94685e-01,9.99988e-01
1.265960797e+00,9.75719e-01,9.99999e-01,9.80847e-01,9.94789e-01,9.99980e-01
1.272290601e+00,9.66988e-01,9.99999e-01,9.71984e-01,9.94892e-01,9.99966e-01
1.278652054e+00,9.37007e-01,9.99999e-01,9.41777e-01,9.94993e-01,9.99941e-01
1.285045314e+00,9.05524e-01,9.99999e-01,9.10090e-01,9.95091e-01,9.99890e-01
1.291470541e+00,8.23445e-01,9.99999e-01,8.27584e-01,9.95188e-01,9.99808e-01
1.297927893e+00,7.77912e-01,9.99999e-01,7.81878e-01,9.95283e-01,9.99642e-01
1.304417533e+00,7.25139e-01,9.99999e-01,7.29059e-01,9.95376e-01,9.99242e-01
1.310939621e+00,6.92910e-01,9.99999e-01,6.97148e-01,9.95467e-01,9.98445e-01
1.317494319e+00,6.70801e-01,9.99999e-01,6.75736e-01,9.95556e-01,9.97127e-01
1.324081790e+00,5.56194e-01,9.99999e-01,5.61257e-01,9.95644e-01,9.95314e-01
1.330702199e+00,1.67568e-01,9.99999e-01,1.69655e-01,9.95729e-01,9.91934e-01
1.337355710e+00,5.45966e-03,9.99999e-01,5.56879e-03,9.95814e-01,9.84524e-01
1.344042489e+00,1.13278e-04,9.99999e-01,1.19215e-04,9.95896e-01,9.54110e-01
1.350762701e+00,5.53504e-12,9.99999e-01,6.52709e-12,9.95977e-01,8.51434e-01
1.357516515e+00,1.27142e-17,9.99999e-01,2.04643e-17,9.96056e-01,6.23747e-01
1.364304097e+00,2.70368e-11,9.99999e-01,6.20725e-11,9.96134e-01,4.37257e-01
1.371125618e+00,1.96749e-07,9.99999e-01,4.30799e-07,9.96210e-01,4.58444e-01
1.377981246e+00,7.36650e-07,9.99999e-01,1.44285e-06,9.96285e-01,5.12457e-01
1.384871152e+00,1.15898e-09,9.99999e-01,2.18337e-09,9.96358e-01,5.32761e-01
1.391795508e+00,3.02222e-11,9.99999e-01,5.50482e-11,9.96430e-01,5.50979e-01
1.398754485e+00,5.56295e-09,9.99999e-01,9.11706e-09,9.96500e-01,6.12311e-01
1.405748258e+00,7.87086e-09,9.99999e-01,1.05208e-08,9.96569e-01,7.50697e-01
1.412776999e+00,1.04414e-08,9.99999e-01,1.19421e-08,9.96637e-01,8.77285e-01
1.419840884e+00,2.21700e-08,9.99999e-01,2.35576e-08,9.96703e-01,9.44210e-01
1.426940089e+00,3.71321e-06,9.99999e-01,3.89131e-06,9.96768e-01,9.57324e-01
1.434074789e+00,3.31331e-05,9.99999e-01,3.49937e-05,9.96832e-01,9.49837e-01
1.441245163e+00,2.14333e-04,9.99999e-01,2.27326e-04,9.96894e-01,9.45781e-01
1.448451389e+00,2.97844e-03,9.99998e-01,3.13697e-03,9.96956e-01,9.52363e-01
1.455693646e+00,1.85472e-02,9.99999e-01,1.93228e-02,9.97016e-01,9.62733e-01
1.462972114e+00,2.74217e-02,9.99999e-01,2.85165e-02,9.97075e-01,9.64427e-01
1.470286975e+00,1.58188e-02,9.99999e-01,1.64392e-02,9.97132e-01,9.65022e-01
