#,Wave/freq,Total,N2,H2O,Rayleigh,CIA
4.000000000e-01,1.70631e-01,9.99999e-01,9.99800e-01,1.70665e-01,9.99999e-01
4.020000000e-01,1.76715e-01,9.99999e-01,9.99876e-01,1.76736e-01,9.99999e-01
4.040100000e-01,1.82882e-01,9.99999e-01,9.99947e-01,1.82891e-01,9.99999e-01
4.060300500e-01,1.89130e-01,9.99999e-01,9.99987e-01,1.89133e-01,9.99999e-01
4.080602003e-01,1.95457e-01,9.99999e-01,9.99995e-01,1.95458e-01,9.99999e-01
4.101005013e-01,2.01863e-01,9.99999e-01,9.99999e-01,2.01863e-01,9.99999e-01
4.121510038e-01,2.08343e-01,9.99999e-01,9.99992e-01,2.08345e-01,9.99999e-01
4.142117588e-01,2.14889e-01,9.99999e-01,9.99944e-01,2.14901e-01,9.99999e-01
4.162828176e-01,2.21473e-01,9.99999e-01,9.99752e-01,2.21528e-01,9.99999e-01
4.183642317e-01,2.28189e-01,9.99999e-01,9.99852e-01,2.28222e-01,9.99999e-01
4.204560528e-01,2.34959e-01,9.99999e-01,9.99909e-01,2.34980e-01,9.99999e-01
4.225583331e-01,2.41791e-01,9.99999e-01,9.99966e-01,2.41800e-01,9.99999e-01
4.246711247e-01,2.48669e-01,9.99999e-01,9.99972e-01,2.48676e-01,9.99999e-01
4.267944804e-01,2.55596e-01,9.99999e-01,9.99960e-01,2.55606e-01,9.99999e-01
4.289284528e-01,2.62579e-01,9.99999e-01,9.99968e-01,2.62587e-01,9.99999e-01
4.310730950e-01,2.69612e-01,9.99999e-01,9.99986e-01,2.69615e-01,9.99999e-01
4.332284605e-01,2.76686e-01,9.99999e-01,9.99996e-01,2.76687e-01,9.99999e-01
4.353946028e-01,2.83798e-01,9.99999e-01,9.99998e-01,2.83799e-01,9.99999e-01
4.375715758e-01,2.90941e-01,9.99999e-01,9.99974e-01,2.90948e-01,9.99999e-01
4.397594337e-01,2.98065e-01,9.99999e-01,9.99781e-01,2.98130e-01,9.99999e-01
4.419582309e-01,3.05005e-01,9.99999e-01,9.98892e-01,3.05343e-01,9.99999e-01
4.441680220e-01,3.12314e-01,9.99999e-01,9.99142e-01,3.12582e-01,9.99999e-01
4.463888621e-01,3.19559e-01,9.99999e-01,9.99105e-01,3.19845e-01,9.99999e-01
4.486208064e-01,3.26947e-01,9.99999e-01,9.99445e-01,3.27129e-01,9.99999e-01
4.508639105e-01,3.34342e-01,9.99999e-01,9.99739e-01,3.34429e-01,9.99999e-01
4.531182300e-01,3.41709e-01,9.99999e-01,9.99897e-01,3.41744e-01,9.99999e-01
4.553838212e-01,3.49044e-01,9.99999e-01,9.99929e-01,3.49069e-01,9.99999e-01
4.576607403e-01,3.56390e-01,9.99999e-01,9.99967e-01,3.56402e-01,9.99999e-01
4.599490440e-01,3.63731e-01,9.99999e-01,9.99976e-01,3.63739e-01,9.99999e-01
4.622487892e-01,3.71077e-01,9.99999e-01,9.99995e-01,3.71078e-01,9.99999e-01
4.645600332e-01,3.78410e-01,9.99999e-01,9.99983e-01,3.78416e-01,9.99999e-01
4.668828333e-01,3.85648e-01,9.99999e-01,9.99736e-01,3.85750e-01,9.99999e-01
4.692172475e-01,3.92856e-01,9.99999e-01,9.99438e-01,3.93076e-01,9.99999e-01
4.715633337e-01,4.00247e-01,9.99999e-01,9.99632e-01,4.00394e-01,9.99999e-01
4.739211504e-01,4.07556e-01,9.99999e-01,9.99649e-01,4.07698e-01,9.99999e-01
4.762907561e-01,4.14913e-01,9.99999e-01,9.99818e-01,4.14988e-01,9.99999e-01
4.786722099e-01,4.22229e-01,9.99999e-01,9.99925e-01,4.22261e-01,9.99999e-01
4.810655710e-01,4.29503e-01,9.99999e-01,9.99977e-01,4.29513e-01,9.99999e-01
4.834708988e-01,4.36648e-01,9.99999e-01,9.99782e-01,4.36743e-01,9.99999e-01
4.858882533e-01,4.43772e-01,9.99999e-01,9.99602e-01,4.43948e-01,9.99999e-01
4.883176946e-01,4.50976e-01,9.99999e-01,9.99666e-01,4.51126e-01,9.99999e-01
4.907592831e-01,4.58138e-01,9.99999e-01,9.99699e-01,4.58276e-01,9.99999e-01
4.932130795e-01,4.65294e-01,9.99999e-01,9.99786e-01,4.65394e-01,9.99999e-01
4.956791449e-01,4.72425e-01,9.99999e-01,9.99886e-01,4.72478e-01,9.99999e-01
4.981575406e-01,4.79257e-01,9.99999e-01,9.99434e-01,4.79527e-01,9.99999e-01
5.006483283e-01,4.85821e-01,9.99999e-01,9.98533e-01,4.86540e-01,9.99989e-01
5.031515699e-01,4.89829e-01,9.99999e-01,9.92612e-01,4.93513e-01,9.99921e-01
5.056673278e-01,4.98447e-01,9.99999e-01,9.96096e-01,5.00445e-01,9.99910e-01
5.081956644e-01,5.04811e-01,9.99999e-01,9.95077e-01,5.07335e-01,9.99945e-01
5.107366428e-01,5.12467e-01,9.99999e-01,9.96675e-01,5.14181e-01,9.99990e-01
5.132903260e-01,5.19991e-01,9.99999e-01,9.98100e-01,5.20981e-01,9.99998e-01
5.158567776e-01,5.27312e-01,9.99999e-01,9.99197e-01,5.27735e-01,9.99999e-01
5.184360615e-01,5.34268e-01,9.99999e-01,9.99678e-01,5.34440e-01,9.99999e-01
5.210282418e-01,5.41030e-01,9.99999e-01,9.99879e-01,5.41095e-01,9.99999e-01
5.236333830e-01,5.47433e-01,9.99999e-01,9.99516e-01,5.47699e-01,9.99996e-01
5.262515499e-01,5.54081e-01,9.99999e-01,9.99697e-01,5.54251e-01,9.99994e-01
5.288828077e-01,5.60592e-01,9.99999e-01,9.99721e-01,5.60749e-01,9.99996e-01
5.315272217e-01,5.67055e-01,9.99999e-01,9.99756e-01,5.67193e-01,9.99998e-01
5.341848578e-01,5.73490e-01,9.99999e-01,9.99839e-01,5.73582e-01,9.99999e-01
5.368557821e-01,5.79587e-01,9.99999e-01,9.99436e-01,5.79914e-01,9.99998e-01
5.395400610e-01,5.84986e-01,9.99999e-01,9.97963e-01,5.86189e-01,9.99982e-01
5.422377613e-01,5.90827e-01,9.99999e-01,9.97380e-01,5.92406e-01,9.99952e-01
5.449489501e-01,5.97074e-01,9.99999e-01,9.97557e-01,5.98565e-01,9.99950e-01
5.476736949e-01,6.03345e-01,9.99999e-01,9.97843e-01,6.04663e-01,9.99975e-01
5.504120634e-01,6.09742e-01,9.99999e-01,9.98434e-01,6.10702e-01,9.99992e-01
5.531641237e-01,6.16194e-01,9.99999e-01,9.99212e-01,6.16680e-01,9.99998e-01
5.559299443e-01,6.22360e-01,9.99999e-01,9.99619e-01,6.22596e-01,9.99999e-01
5.587095940e-01,6.28301e-01,9.99999e-01,9.99760e-01,6.28451e-01,9.99999e-01
5.615031420e-01,6.34075e-01,9.99999e-01,9.99733e-01,6.34244e-01,9.99999e-01
5.643106577e-01,6.39778e-01,9.99999e-01,9.99696e-01,6.39974e-01,9.99996e-01
5.671322110e-01,6.43244e-01,9.99999e-01,9.96319e-01,6.45641e-01,9.99967e-01
5.699678720e-01,6.48655e-01,9.99999e-01,9.96122e-01,6.51244e-01,9.99900e-01
5.728177114e-01,6.54066e-01,9.99999e-01,9.95942e-01,6.56785e-01,9.99916e-01
5.756818000e-01,6.59766e-01,9.99999e-01,9.96279e-01,6.62261e-01,9.99951e-01
5.785602090e-01,6.65502e-01,9.99999e-01,9.96759e-01,6.67674e-01,9.99985e-01
5.814530100e-01,6.70826e-01,9.99999e-01,9.96743e-01,6.73023e-01,9.99992e-01
5.843602750e-01,6.75654e-01,9.99999e-01,9.96109e-01,6.78307e-01,9.99977e-01
5.872820764e-01,6.60908e-01,9.99999e-01,9.67133e-01,6.83528e-01,9.99764e-01
5.902184868e-01,6.60878e-01,9.99999e-01,9.60238e-01,6.88684e-01,9.99359e-01
5.931695792e-01,6.73802e-01,9.99999e-01,9.71807e-01,6.93777e-01,9.99383e-01
5.961354271e-01,6.76968e-01,9.99999e-01,9.69093e-01,6.98805e-01,9.99645e-01
5.991161043e-01,6.87752e-01,9.99999e-01,9.77347e-01,7.03769e-01,9.99889e-01
6.021116848e-01,6.99513e-01,9.99999e-01,9.87090e-01,7.08670e-01,9.99987e-01
6.051222432e-01,7.08832e-01,9.99999e-01,9.93448e-01,7.13507e-01,9.99998e-01
6.081478544e-01,7.16247e-01,9.99999e-01,9.97168e-01,7.18280e-01,9.99999e-01
6.111885937e-01,7.22125e-01,9.99999e-01,9.98802e-01,7.22990e-01,9.99999e-01
6.142445367e-01,7.27248e-01,9.99999e-01,9.99464e-01,7.27637e-01,9.99999e-01
6.173157594e-01,7.32005e-01,9.99999e-01,9.99704e-01,7.32221e-01,9.99999e-01
6.204023382e-01,7.36558e-01,9.99999e-01,9.99749e-01,7.36743e-01,9.99999e-01
6.235043498e-01,7.40379e-01,9.99999e-01,9.98891e-01,7.41202e-01,9.99996e-01
6.266218716e-01,7.41226e-01,9.99999e-01,9.94174e-01,7.45600e-01,9.99958e-01
6.297549810e-01,7.48270e-01,9.99999e-01,9.97859e-01,7.49936e-01,9.99917e-01
6.329037559e-01,7.50977e-01,9.99999e-01,9.95776e-01,7.54211e-01,9.99933e-01
6.360682746e-01,7.55664e-01,9.99999e-01,9.96397e-01,7.58425e-01,9.99960e-01
6.392486160e-01,7.59010e-01,9.99999e-01,9.95336e-01,7.62579e-01,9.99982e-01
6.424448591e-01,7.61858e-01,9.99999e-01,9.93747e-01,7.66672e-01,9.99972e-01
6.456570834e-01,7.48507e-01,9.99999e-01,9.71351e-01,7.70706e-01,9.99839e-01
6.488853688e-01,7.58108e-01,9.99999e-01,9.79045e-01,7.74682e-01,9.99550e-01
6.521297956e-01,7.61712e-01,9.99999e-01,9.78675e-01,7.78598e-01,9.99628e-01
6.553904446e-01,7.65541e-01,9.99999e-01,9.78651e-01,7.82456e-01,9.99723e-01
6.586673968e-01,7.71831e-01,9.99999e-01,9.81742e-01,7.86257e-01,9.99907e-01
6.619607338e-01,7.81907e-01,9.99999e-01,9.89774e-01,7.90001e-01,9.99979e-01
6.652705375e-01,7.88798e-01,9.99999e-01,9.93849e-01,7.93687e-01,9.99989e-01
6.685968902e-01,7.95230e-01,9.99999e-01,9.97382e-01,7.97318e-01,9.99997e-01
6.719398746e-01,7.99832e-01,9.99999e-01,9.98674e-01,8.00893e-01,9.99999e-01
6.752995740e-01,8.03835e-01,9.99999e-01,9.99280e-01,8.04413e-01,9.99999e-01
6.786760719e-01,8.07037e-01,9.99999e-01,9.98958e-01,8.07879e-01,9.99998e-01
6.820694522e-01,8.09839e-01,9.99999e-01,9.98219e-01,8.11291e-01,9.99990e-01
6.854797995e-01,8.12761e-01,9.99999e-01,9.97702e-01,8.14649e-01,9.99979e-01
6.889071985e-01,8.13357e-01,9.99999e-01,9.94428e-01,8.17954e-01,9.99949e-01
6.923517345e-01,7.49916e-01,9.99999e-01,9.13583e-01,8.21207e-01,9.99565e-01
6.958134932e-01,7.86147e-01,9.99999e-01,9.54506e-01,8.24409e-01,9.99037e-01
6.992925606e-01,7.90585e-01,9.99999e-01,9.56149e-01,8.27559e-01,9.99132e-01
7.027890234e-01,7.85506e-01,9.99999e-01,9.46268e-01,8.30659e-01,9.99337e-01
7.063029686e-01,7.95526e-01,9.99999e-01,9.54515e-01,8.33708e-01,9.99670e-01
7.098344834e-01,7.99978e-01,9.99999e-01,9.56287e-01,8.36709e-01,9.99804e-01
7.133836558e-01,7.90943e-01,9.99999e-01,9.42343e-01,8.39660e-01,9.99612e-01
7.169505741e-01,5.33410e-01,9.99999e-01,6.35012e-01,8.42564e-01,9.96955e-01
7.205353270e-01,6.71353e-01,9.99999e-01,7.98388e-01,8.45420e-01,9.94635e-01
7.241380036e-01,6.32234e-01,9.99999e-01,7.48827e-01,8.48228e-01,9.95365e-01
7.277586936e-01,6.53299e-01,9.99999e-01,7.70612e-01,8.50991e-01,9.96210e-01
7.313974871e-01,6.44144e-01,9.99999e-01,7.55868e-01,8.53707e-01,9.98222e-01
7.350544745e-01,7.33581e-01,9.99999e-01,8.57136e-01,8.56379e-01,9.99381e-01
7.387297469e-01,7.66121e-01,9.99999e-01,8.92122e-01,8.59005e-01,9.99716e-01
7.424233956e-01,8.14627e-01,9.99999e-01,9.45546e-01,8.61588e-01,9.99944e-01
7.461355126e-01,8.35249e-01,9.99999e-01,9.66590e-01,8.64127e-01,9.99989e-01
7.498661902e-01,8.53027e-01,9.99999e-01,9.84313e-01,8.66623e-01,9.99996e-01
7.536155211e-01,8.62354e-01,9.99999e-01,9.92265e-01,8.69077e-01,9.99997e-01
7.573835987e-01,8.68014e-01,9.99999e-01,9.96012e-01,8.71489e-01,9.99998e-01
7.611705167e-01,8.71694e-01,9.99999e-01,9.97520e-01,8.73860e-01,9.99999e-01
7.649763693e-01,8.74828e-01,9.99999e-01,9.98444e-01,8.76191e-01,9.99999e-01
7.688012511e-01,8.77529e-01,9.99999e-01,9.98916e-01,8.78481e-01,9.99999e-01
7.726452574e-01,8.79946e-01,9.99999e-01,9.99107e-01,8.80732e-01,9.99999e-01
7.765084837e-01,8.81821e-01,9.99999e-01,9.98729e-01,8.82944e-01,9.99998e-01
7.803910261e-01,8.80259e-01,9.99999e-01,9.94515e-01,8.85118e-01,9.99994e-01
7.842929812e-01,8.70365e-01,9.99999e-01,9.80998e-01,8.87254e-01,9.99964e-01
7.882144461e-01,8.54726e-01,9.99999e-01,9.61323e-01,8.89353e-01,9.99729e-01
7.921555184e-01,8.71984e-01,9.99999e-01,9.78660e-01,8.91416e-01,9.99530e-01
7.961162960e-01,8.59542e-01,9.99999e-01,9.62485e-01,8.93442e-01,9.99553e-01
8.000968774e-01,8.56292e-01,9.99999e-01,9.56743e-01,8.95432e-01,9.99524e-01
8.040973618e-01,8.58272e-01,9.99999e-01,9.56757e-01,8.97388e-01,9.99637e-01
8.081178486e-01,8.14288e-01,9.99999e-01,9.05791e-01,8.99309e-01,9.99632e-01
8.121584379e-01,6.01944e-01,9.99999e-01,6.68868e-01,9.01196e-01,9.98609e-01
8.162192301e-01,5.60296e-01,9.99999e-01,6.23704e-01,9.03050e-01,9.94780e-01
8.203003262e-01,7.18109e-01,9.99999e-01,7.98481e-01,9.04871e-01,9.93890e-01
8.244018279e-01,6.66922e-01,9.99999e-01,7.39177e-01,9.06659e-01,9.95134e-01
8.285238370e-01,6.78732e-01,9.99999e-01,7.50026e-01,9.08416e-01,9.96176e-01
8.326664562e-01,6.80830e-01,9.99999e-01,7.49234e-01,9.10141e-01,9.98417e-01
8.368297885e-01,7.39001e-01,9.99999e-01,8.10747e-01,9.11835e-01,9.99637e-01
8.410139374e-01,8.05782e-01,9.99999e-01,8.82269e-01,9.13499e-01,9.99788e-01
8.452190071e-01,8.60324e-01,9.99999e-01,9.40226e-01,9.15133e-01,9.99873e-01
8.494451021e-01,8.84345e-01,9.99999e-01,9.64762e-01,9.16737e-01,9.99898e-01
8.536923276e-01,8.99007e-01,9.99999e-01,9.79036e-01,9.18313e-01,9.99937e-01
8.579607893e-01,9.07910e-01,9.99999e-01,9.87022e-01,9.19860e-01,9.99984e-01
8.622505932e-01,9.13770e-01,9.99999e-01,9.91743e-01,9.21379e-01,9.99996e-01
8.665618462e-01,9.18144e-01,9.99999e-01,9.94879e-01,9.22870e-01,9.99998e-01
8.708946554e-01,9.18910e-01,9.99999e-01,9.94133e-01,9.24335e-01,9.99996e-01
8.752491287e-01,9.18508e-01,9.99999e-01,9.92160e-01,9.25772e-01,9.99991e-01
8.796253743e-01,9.17101e-01,9.99999e-01,9.89148e-01,9.27184e-01,9.99975e-01
8.840235012e-01,9.17006e-01,9.99999e-01,9.87621e-01,9.28569e-01,9.99923e-01
8.884436187e-01,8.88825e-01,9.99999e-01,9.56003e-01,9.29930e-01,9.99784e-01
8.928858368e-01,5.90662e-01,9.99999e-01,6.35045e-01,9.31265e-01,9.98758e-01
8.973502660e-01,4.20656e-01,9.99999e-01,4.53949e-01,9.32576e-01,9.93653e-01
9.018370173e-01,6.18323e-01,9.99999e-01,6.68774e-01,9.33863e-01,9.90039e-01
9.063462024e-01,6.46345e-01,9.99999e-01,6.97289e-01,9.35126e-01,9.91245e-01
9.108779334e-01,5.30324e-01,9.99999e-01,5.71562e-01,9.36365e-01,9.90904e-01
9.154323231e-01,4.89047e-01,9.99999e-01,5.25558e-01,9.37582e-01,9.92475e-01
9.200094847e-01,5.68273e-01,9.99999e-01,6.07897e-01,9.38777e-01,9.95781e-01
9.246095321e-01,4.53362e-01,9.99999e-01,4.84680e-01,9.39949e-01,9.95141e-01
9.292325798e-01,2.48427e-02,9.99999e-01,2.69037e-02,9.41099e-01,9.81184e-01
9.338787427e-01,4.28385e-03,9.99999e-01,4.91789e-03,9.42228e-01,9.24481e-01
9.385481364e-01,9.78401e-02,9.99999e-01,1.13870e-01,9.43337e-01,9.10838e-01
9.432408771e-01,5.11890e-02,9.99999e-01,5.87488e-02,9.44424e-01,9.22591e-01
9.479570815e-01,1.34176e-02,9.99999e-01,1.51529e-02,9.45491e-01,9.36531e-01
9.526968669e-01,3.38960e-02,9.99999e-01,3.72717e-02,9.46539e-01,9.60794e-01
9.574603512e-01,4.01702e-02,9.99999e-01,4.32630e-02,9.47567e-01,9.79889e-01
9.622476530e-01,6.71321e-02,9.99999e-01,7.17727e-02,9.48575e-01,9.86050e-01
9.670588912e-01,1.97646e-01,9.99999e-01,2.10153e-01,9.49565e-01,9.90438e-01
9.718941857e-01,3.25702e-01,9.99999e-01,3.45083e-01,9.50536e-01,9.92952e-01
9.767536566e-01,3.89809e-01,9.99999e-01,4.11902e-01,9.51489e-01,9.94609e-01
9.816374249e-01,4.86776e-01,9.99999e-01,5.12048e-01,9.52424e-01,9.98131e-01
9.865456120e-01,6.24296e-01,9.99999e-01,6.55105e-01,9.53341e-01,9.99610e-01
9.914783401e-01,7.32957e-01,9.99999e-01,7.68187e-01,9.54242e-01,9.99891e-01
9.964357318e-01,8.27163e-01,9.99999e-01,8.66080e-01,9.55125e-01,9.99936e-01
1.001417910e+00,8.76799e-01,9.99999e-01,9.17250e-01,9.55991e-01,9.99903e-01
1.006425000e+00,9.10650e-01,9.99999e-01,9.51855e-01,9.56842e-01,9.99862e-01
1.011457125e+00,9.28704e-01,9.99999e-01,9.69870e-01,9.57676e-01,9.99872e-01
1.016514411e+00,9.38693e-01,9.99999e-01,9.79428e-01,9.58494e-01,9.99909e-01
1.021596983e+00,9.43451e-01,9.99999e-01,9.83568e-01,9.59297e-01,9.99911e-01
1.026704968e+00,9.47704e-01,9.99999e-01,9.87158e-01,9.60085e-01,9.99944e-01
1.031838492e+00,9.51867e-01,9.99999e-01,9.90659e-01,9.60857e-01,9.99982e-01
1.036997685e+00,9.56265e-01,9.99999e-01,9.94438e-01,9.61616e-01,9.99996e-01
1.042182673e+00,9.55972e-01,9.99999e-01,9.93363e-01,9.62359e-01,9.99998e-01
1.047393587e+00,9.54625e-01,9.99999e-01,9.91213e-01,9.63089e-01,9.99997e-01
1.052630555e+00,9.52195e-01,9.99999e-01,9.87957e-01,9.63805e-01,9.99996e-01
1.057893707e+00,9.45185e-01,9.99999e-01,9.79973e-01,9.64507e-01,9.99992e-01
1.063183176e+00,9.33621e-01,9.99999e-01,9.67302e-01,9.65195e-01,9.99982e-01
1.068499092e+00,9.13619e-01,9.99999e-01,9.45936e-01,9.65871e-01,9.99962e-01
1.073841587e+00,9.05797e-01,9.99999e-01,9.37236e-01,9.66534e-01,9.99917e-01
1.079210795e+00,8.89789e-01,9.99999e-01,9.20183e-01,9.67184e-01,9.99777e-01
1.084606849e+00,8.53191e-01,9.99999e-01,8.82029e-01,9.67821e-01,9.99464e-01
1.090029883e+00,8.08635e-01,9.99999e-01,8.35907e-01,9.68447e-01,9.98891e-01
1.095480033e+00,5.94937e-01,9.99999e-01,6.15164e-01,9.69060e-01,9.97995e-01
1.100957433e+00,2.95046e-01,9.99999e-01,3.05403e-01,9.69662e-01,9.96314e-01
1.106462220e+00,6.41612e-02,9.99999e-01,6.65438e-02,9.70252e-01,9.93755e-01
1.111994531e+00,3.95749e-03,9.99999e-01,4.14474e-03,9.70831e-01,9.83508e-01
1.117554504e+00,2.78763e-04,9.99999e-01,3.04726e-04,9.71399e-01,9.41730e-01
1.123142276e+00,4.06393e-03,9.99999e-01,4.82091e-03,9.71956e-01,8.67300e-01
1.128757988e+00,1.35498e-02,9.99999e-01,1.64274e-02,9.72502e-01,8.48149e-01
1.134401778e+00,8.37047e-03,9.99999e-01,9.89555e-03,9.73038e-01,8.69319e-01
1.140073787e+00,5.98096e-02,9.99999e-01,6.87070e-02,9.73563e-01,8.94139e-01
1.145774156e+00,8.51737e-03,9.99999e-01,9.68706e-03,9.74079e-01,9.02648e-01
1.151503026e+00,4.46198e-03,9.99999e-01,4.84716e-03,9.74584e-01,9.44539e-01
1.157260541e+00,5.64440e-03,9.99999e-01,5.88824e-03,9.75080e-01,9.83084e-01
1.163046844e+00,2.11852e-02,9.99999e-01,2.18210e-02,9.75566e-01,9.95176e-01
1.168862078e+00,5.86966e-02,9.99999e-01,6.02872e-02,9.76043e-01,9.97512e-01
1.174706389e+00,1.66218e-01,9.99999e-01,1.70779e-01,9.76510e-01,9.96703e-01
1.180579921e+00,3.24752e-01,9.99999e-01,3.34071e-01,9.76969e-01,9.95019e-01
1.186482820e+00,5.14809e-01,9.99999e-01,5.29408e-01,9.77419e-01,9.94888e-01
1.192415234e+00,6.69450e-01,9.99999e-01,6.87239e-01,9.77860e-01,9.96169e-01
1.198377311e+00,7.10809e-01,9.99999e-01,7.29219e-01,9.78292e-01,9.96381e-01
1.204369197e+00,7.25950e-01,9.99999e-01,7.44172e-01,9.78716e-01,9.96725e-01
1.210391043e+00,7.35218e-01,9.99999e-01,7.52386e-01,9.79132e-01,9.98006e-01
1.216442998e+00,7.68175e-01,9.99999e-01,7.85178e-01,9.79540e-01,9.98778e-01
1.222525213e+00,8.10124e-01,9.99999e-01,8.27335e-01,9.79940e-01,9.99241e-01
1.228637839e+00,8.58904e-01,9.99999e-01,8.76444e-01,9.80333e-01,9.99646e-01
1.234781029e+00,8.89214e-01,9.99999e-01,9.06788e-01,9.80717e-01,9.99898e-01
1.240954934e+00,9.22153e-01,9.99999e-01,9.39949e-01,9.81095e-01,9.99971e-01
1.247159708e+00,9.35206e-01,9.99999e-01,9.52884e-01,9.81464e-01,9.99981e-01
1.253395507e+00,9.40603e-01,9.99999e-01,9.58034e-01,9.81827e-01,9.99975e-01
1.259662485e+00,9.42919e-01,9.99999e-01,9.60059e-01,9.82183e-01,9.99962e-01
1.265960797e+00,9.20653e-01,9.99999e-01,9.37079e-01,9.82532e-01,9.99936e-01
1.272290601e+00,8.87479e-01,9.99999e-01,9.03043e-01,9.82874e-01,9.99888e-01
1.278652054e+00,8.04049e-01,9.99999e-01,8.17940e-01,9.83209e-01,9.99802e-01
1.285045314e+00,6.85699e-01,9.99999e-01,6.97432e-01,9.83538e-01,9.99631e-01
1.291470541e+00,5.26461e-01,9.99999e-01,5.35442e-01,9.83861e-01,9.99354e-01
1.297927893e+00,4.10136e-01,9.99999e-01,4.17232e-01,9.84177e-01,9.98795e-01
1.304417533e+00,3.55767e-01,9.99999e-01,3.62296e-01,9.84487e-01,9.97450e-01
1.310939621e+00,3.06739e-01,9.99999e-01,3.13112e-01,9.84791e-01,9.94773e-01
1.317494319e+00,2.80695e-01,9.99999e-01,2.87719e-01,9.85089e-01,9.90353e-01
1.324081790e+00,1.62413e-01,9.99999e-01,1.67451e-01,9.85381e-01,9.84298e-01
1.330702199e+00,1.95428e-02,9.99999e-01,2.03755e-02,9.85668e-01,9.73079e-01
1.337355710e+00,3.80268e-07,9.99999e-01,4.06499e-07,9.85949e-01,9.48801e-01
1.344042489e+00,1.99678e-10,9.99999e-01,2.37193e-10,9.86225e-01,8.53595e-01
1.350762701e+00,1.62217e-35,9.99999e-01,2.82732e-35,9.86495e-01,5.81599e-01
1.357516515e+00,2.83177e-54,9.99999e-01,1.40807e-53,9.86760e-01,2.03808e-01
1.364304097e+00,2.68814e-33,9.99999e-01,4.42353e-32,9.87020e-01,6.15681e-02
1.371125618e+00,5.93154e-20,9.99999e-01,8.32003e-19,9.87275e-01,7.22112e-02
1.377981246e+00,2.83317e-19,9.99999e-01,2.72973e-18,9.87524e-01,1.05100e-01
1.384871152e+00,3.12310e-27,9.99999e-01,2.58000e-26,9.87769e-01,1.22549e-01
1.391795508e+00,1.58951e-33,9.99999e-01,1.18998e-32,9.88009e-01,1.35195e-01
1.398754485e+00,2.23338e-25,9.99999e-01,1.18021e-24,9.88245e-01,1.91487e-01
1.405748258e+00,4.49096e-25,9.99999e-01,1.19407e-24,9.88476e-01,3.80489e-01
1.412776999e+00,3.77440e-24,9.99998e-01,5.93451e-24,9.88702e-01,6.43275e-01
1.419840884e+00,7.05945e-24,9.99998e-01,8.66204e-24,9.88924e-01,8.24114e-01
1.426940089e+00,1.64402e-15,9.99997e-01,1.92519e-15,9.89141e-01,8.63324e-01
1.434074789e+00,7.87678e-14,9.99998e-01,9.46919e-14,9.89355e-01,8.40781e-01
1.441245163e+00,2.15424e-11,9.99998e-01,2.62682e-11,9.89564e-01,8.28744e-01
1.448451389e+00,1.35695e-07,9.99997e-01,1.61607e-07,9.89769e-01,8.48339e-01
1.455693646e+00,2.13836e-05,9.99998e-01,2.45493e-05,9.89970e-01,8.79871e-01
1.462972114e+00,2.79543e-05,9.99998e-01,3.18968e-05,9.90167e-01,8.85098e-01
1.470286975e+00,8.24593e-06,9.99999e-01,9.38753e-06,9.90360e-01,8.86940e-01
