#,Wave/freq,Total,N2,H2O,Rayleigh,CIA
4.000000000e-01,1.50696e-01,9.99999e-01,9.99786e-01,1.50728e-01,9.99999e-01
4.020000000e-01,1.56454e-01,9.99999e-01,9.99868e-01,1.56474e-01,9.99999e-01
4.040100000e-01,1.62305e-01,9.99999e-01,9.99943e-01,1.62314e-01,9.99999e-01
4.060300500e-01,1.68247e-01,9.99999e-01,9.99986e-01,1.68249e-01,9.99999e-01
4.080602003e-01,1.74277e-01,9.99999e-01,9.99995e-01,1.74278e-01,9.99999e-01
4.101005013e-01,1.80397e-01,9.99999e-01,9.99999e-01,1.80397e-01,9.99999e-01
4.121510038e-01,1.86602e-01,9.99999e-01,9.99991e-01,1.86604e-01,9.99999e-01
4.142117588e-01,1.92884e-01,9.99999e-01,9.99939e-01,1.92895e-01,9.99999e-01
4.162828176e-01,1.99216e-01,9.99999e-01,9.99735e-01,1.99268e-01,9.99999e-01
4.183642317e-01,2.05687e-01,9.99999e-01,9.99842e-01,2.05720e-01,9.99999e-01
4.204560528e-01,2.12226e-01,9.99999e-01,9.99903e-01,2.12246e-01,9.99999e-01
4.225583331e-01,2.18837e-01,9.99999e-01,9.99964e-01,2.18845e-01,9.99999e-01
4.246711247e-01,2.25506e-01,9.99999e-01,9.99970e-01,2.25513e-01,9.99999e-01
4.267944804e-01,2.32236e-01,9.99999e-01,9.99957e-01,2.32246e-01,9.99999e-01
4.289284528e-01,2.39033e-01,9.99999e-01,9.99966e-01,2.39040e-01,9.99999e-01
4.310730950e-01,2.45891e-01,9.99999e-01,9.99985e-01,2.45894e-01,9.99999e-01
4.332284605e-01,2.52802e-01,9.99999e-01,9.99995e-01,2.52803e-01,9.99999e-01
4.353946028e-01,2.59764e-01,9.99999e-01,9.99997e-01,2.59764e-01,9.99999e-01
4.375715758e-01,2.66766e-01,9.99999e-01,9.99972e-01,2.66773e-01,9.99999e-01
4.397594337e-01,2.73763e-01,9.99999e-01,9.99764e-01,2.73828e-01,9.99999e-01
4.419582309e-01,2.80587e-01,9.99999e-01,9.98801e-01,2.80924e-01,9.99999e-01
4.441680220e-01,2.87795e-01,9.99999e-01,9.99086e-01,2.88058e-01,9.99999e-01
4.463888621e-01,2.94945e-01,9.99999e-01,9.99042e-01,2.95228e-01,9.99999e-01
4.486208064e-01,3.02250e-01,9.99999e-01,9.99408e-01,3.02429e-01,9.99999e-01
4.508639105e-01,3.09572e-01,9.99999e-01,9.99722e-01,3.09658e-01,9.99999e-01
4.531182300e-01,3.16877e-01,9.99999e-01,9.99890e-01,3.16912e-01,9.99999e-01
4.553838212e-01,3.24163e-01,9.99999e-01,9.99925e-01,3.24187e-01,9.99999e-01
4.576607403e-01,3.31470e-01,9.99999e-01,9.99965e-01,3.31481e-01,9.99999e-01
4.599490440e-01,3.38782e-01,9.99999e-01,9.99975e-01,3.38790e-01,9.99999e-01
4.622487892e-01,3.46110e-01,9.99999e-01,9.99995e-01,3.46111e-01,9.99999e-01
4.645600332e-01,3.53435e-01,9.99999e-01,9.99982e-01,3.53441e-01,9.99999e-01
4.668828333e-01,3.60675e-01,9.99999e-01,9.99716e-01,3.60777e-01,9.99999e-01
4.692172475e-01,3.67895e-01,9.99999e-01,9.99399e-01,3.68116e-01,9.99999e-01
4.715633337e-01,3.75307e-01,9.99999e-01,9.99606e-01,3.75455e-01,9.99999e-01
4.739211504e-01,3.82648e-01,9.99999e-01,9.99625e-01,3.82791e-01,9.99999e-01
4.762907561e-01,3.90045e-01,9.99999e-01,9.99806e-01,3.90121e-01,9.99999e-01
4.786722099e-01,3.97411e-01,9.99999e-01,9.99920e-01,3.97442e-01,9.99999e-01
4.810655710e-01,4.04742e-01,9.99999e-01,9.99975e-01,4.04752e-01,9.99999e-01
4.834708988e-01,4.11951e-01,9.99999e-01,9.99763e-01,4.12048e-01,9.99999e-01
4.858882533e-01,4.19150e-01,9.99999e-01,9.99576e-01,4.19328e-01,9.99999e-01
4.883176946e-01,4.26436e-01,9.99999e-01,9.99642e-01,4.26589e-01,9.99999e-01
4.907592831e-01,4.33689e-01,9.99999e-01,9.99679e-01,4.33828e-01,9.99999e-01
4.932130795e-01,4.40943e-01,9.99999e-01,9.99771e-01,4.41043e-01,9.99999e-01
4.956791449e-01,4.48179e-01,9.99999e-01,9.99879e-01,4.48233e-01,9.99999e-01
4.981575406e-01,4.55118e-01,9.99999e-01,9.99393e-01,4.55394e-01,9.99999e-01
5.006483283e-01,4.61788e-01,9.99999e-01,9.98417e-01,4.62525e-01,9.99988e-01
5.031515699e-01,4.65866e-01,9.99999e-01,9.92082e-01,4.69623e-01,9.99916e-01
5.056673278e-01,4.74653e-01,9.99999e-01,9.95826e-01,4.76687e-01,9.99904e-01
5.081956644e-01,4.81142e-01,9.99999e-01,9.94740e-01,4.83714e-01,9.99941e-01
5.107366428e-01,4.88957e-01,9.99999e-01,9.96449e-01,4.90703e-01,9.99989e-01
5.132903260e-01,4.96644e-01,9.99999e-01,9.97974e-01,4.97652e-01,9.99998e-01
5.158567776e-01,5.04129e-01,9.99999e-01,9.99145e-01,5.04560e-01,9.99999e-01
5.184360615e-01,5.11249e-01,9.99999e-01,9.99657e-01,5.11424e-01,9.99999e-01
5.210282418e-01,5.18176e-01,9.99999e-01,9.99870e-01,5.18243e-01,9.99999e-01
5.236333830e-01,5.24742e-01,9.99999e-01,9.99482e-01,5.25015e-01,9.99995e-01
5.262515499e-01,5.31565e-01,9.99999e-01,9.99676e-01,5.31740e-01,9.99994e-01
5.288828077e-01,5.38253e-01,9.99999e-01,9.99701e-01,5.38415e-01,9.99996e-01
5.315272217e-01,5.44898e-01,9.99999e-01,9.99740e-01,5.45040e-01,9.99998e-01
5.341848578e-01,5.51518e-01,9.99999e-01,9.99827e-01,5.51613e-01,9.99999e-01
5.368557821e-01,5.57794e-01,9.99999e-01,9.99393e-01,5.58133e-01,9.99998e-01
5.395400610e-01,5.63345e-01,9.99999e-01,9.97798e-01,5.64599e-01,9.99978e-01
5.422377613e-01,5.69385e-01,9.99999e-01,9.97203e-01,5.71010e-01,9.99948e-01
5.449489501e-01,5.75821e-01,9.99999e-01,9.97376e-01,5.77366e-01,9.99946e-01
5.476736949e-01,5.82306e-01,9.99999e-01,9.97699e-01,5.83664e-01,9.99973e-01
5.504120634e-01,5.88915e-01,9.99999e-01,9.98328e-01,5.89904e-01,9.99992e-01
5.531641237e-01,5.95585e-01,9.99999e-01,9.99159e-01,5.96087e-01,9.99998e-01
5.559299443e-01,6.01966e-01,9.99999e-01,9.99594e-01,6.02209e-01,9.99999e-01
5.587095940e-01,6.08117e-01,9.99999e-01,9.99744e-01,6.08272e-01,9.99999e-01
5.615031420e-01,6.14100e-01,9.99999e-01,9.99715e-01,6.14275e-01,9.99999e-01
5.643106577e-01,6.20011e-01,9.99999e-01,9.99672e-01,6.20216e-01,9.99996e-01
5.671322110e-01,6.23574e-01,9.99999e-01,9.96006e-01,6.26096e-01,9.99964e-01
5.699678720e-01,6.29243e-01,9.99999e-01,9.95879e-01,6.31913e-01,9.99893e-01
5.728177114e-01,6.34839e-01,9.99999e-01,9.95650e-01,6.37669e-01,9.99910e-01
5.756818000e-01,6.40767e-01,9.99999e-01,9.96018e-01,6.43361e-01,9.99948e-01
5.785602090e-01,6.46734e-01,9.99999e-01,9.96537e-01,6.48990e-01,9.99984e-01
5.814530100e-01,6.52270e-01,9.99999e-01,9.96513e-01,6.54556e-01,9.99992e-01
5.843602750e-01,6.57279e-01,9.99999e-01,9.95811e-01,6.60059e-01,9.99976e-01
5.872820764e-01,6.41840e-01,9.99999e-01,9.64693e-01,6.65497e-01,9.99747e-01
5.902184868e-01,6.41971e-01,9.99999e-01,9.57576e-01,6.70872e-01,9.99314e-01
5.931695792e-01,6.55359e-01,9.99999e-01,9.69843e-01,6.76182e-01,9.99340e-01
5.961354271e-01,6.58689e-01,9.99999e-01,9.66995e-01,6.81429e-01,9.99620e-01
5.991161043e-01,6.69932e-01,9.99999e-01,9.75821e-01,6.86611e-01,9.99882e-01
6.021116848e-01,6.82195e-01,9.99999e-01,9.86228e-01,6.91729e-01,9.99986e-01
6.051222432e-01,6.91914e-01,9.99999e-01,9.93012e-01,6.96783e-01,9.99998e-01
6.081478544e-01,6.99653e-01,9.99999e-01,9.96977e-01,7.01774e-01,9.99999e-01
6.111885937e-01,7.05799e-01,9.99999e-01,9.98724e-01,7.06700e-01,9.99999e-01
6.142445367e-01,7.11156e-01,9.99999e-01,9.99428e-01,7.11562e-01,9.99999e-01
6.173157594e-01,7.16136e-01,9.99999e-01,9.99684e-01,7.16361e-01,9.99999e-01
6.204023382e-01,7.20903e-01,9.99999e-01,9.99730e-01,7.21097e-01,9.99999e-01
6.235043498e-01,7.24895e-01,9.99999e-01,9.98797e-01,7.25769e-01,9.99996e-01
6.266218716e-01,7.25792e-01,9.99999e-01,9.93762e-01,7.30379e-01,9.99955e-01
6.297549810e-01,7.33177e-01,9.99999e-01,9.97707e-01,7.34926e-01,9.99911e-01
6.329037559e-01,7.36023e-01,9.99999e-01,9.95488e-01,7.39410e-01,9.99929e-01
6.360682746e-01,7.40929e-01,9.99999e-01,9.96137e-01,7.43833e-01,9.99958e-01
6.392486160e-01,7.44446e-01,9.99999e-01,9.95009e-01,7.48193e-01,9.99981e-01
6.424448591e-01,7.47403e-01,9.99999e-01,9.93268e-01,7.52493e-01,9.99966e-01
6.456570834e-01,7.33273e-01,9.99999e-01,9.69181e-01,7.56732e-01,9.99811e-01
6.488853688e-01,7.43542e-01,9.99999e-01,9.77645e-01,7.60910e-01,9.99518e-01
6.521297956e-01,7.47331e-01,9.99999e-01,9.77256e-01,7.65027e-01,9.99602e-01
6.553904446e-01,7.51282e-01,9.99999e-01,9.77139e-01,7.69086e-01,9.99704e-01
6.586673968e-01,7.57946e-01,9.99999e-01,9.80514e-01,7.73084e-01,9.99900e-01
6.619607338e-01,7.68528e-01,9.99999e-01,9.89085e-01,7.77024e-01,9.99978e-01
6.652705375e-01,7.75771e-01,9.99999e-01,9.93434e-01,7.80906e-01,9.99988e-01
6.685968902e-01,7.82538e-01,9.99999e-01,9.97208e-01,7.84730e-01,9.99997e-01
6.719398746e-01,7.87381e-01,9.99999e-01,9.98585e-01,7.88497e-01,9.99999e-01
6.752995740e-01,7.91614e-01,9.99999e-01,9.99251e-01,7.92206e-01,9.99999e-01
6.786760719e-01,7.94966e-01,9.99999e-01,9.98878e-01,7.95860e-01,9.99997e-01
6.820694522e-01,7.97909e-01,9.99999e-01,9.98073e-01,7.99457e-01,9.99989e-01
6.854797995e-01,8.01005e-01,9.99999e-01,9.97536e-01,8.02999e-01,9.99978e-01
6.889071985e-01,8.01577e-01,9.99999e-01,9.93964e-01,8.06487e-01,9.99946e-01
6.923517345e-01,7.34572e-01,9.99999e-01,9.07389e-01,8.09920e-01,9.99534e-01
6.958134932e-01,7.73417e-01,9.99999e-01,9.51940e-01,8.13300e-01,9.98969e-01
6.992925606e-01,7.77467e-01,9.99999e-01,9.52930e-01,8.16627e-01,9.99071e-01
7.027890234e-01,7.72370e-01,9.99999e-01,9.42696e-01,8.19901e-01,9.99291e-01
7.063029686e-01,7.82872e-01,9.99999e-01,9.51434e-01,8.23123e-01,9.99646e-01
7.098344834e-01,7.87558e-01,9.99999e-01,9.53320e-01,8.26294e-01,9.99791e-01
7.133836558e-01,7.77620e-01,9.99999e-01,9.37941e-01,8.29414e-01,9.99585e-01
7.169505741e-01,5.10372e-01,9.99999e-01,6.15074e-01,8.32484e-01,9.96741e-01
7.205353270e-01,6.54707e-01,9.99999e-01,7.88131e-01,8.35504e-01,9.94258e-01
7.241380036e-01,6.12210e-01,9.99999e-01,7.33785e-01,8.38475e-01,9.95040e-01
7.277586936e-01,6.34270e-01,9.99999e-01,7.56898e-01,8.41398e-01,9.95944e-01
7.313974871e-01,6.25531e-01,9.99999e-01,7.42322e-01,8.44273e-01,9.98098e-01
7.350544745e-01,7.18161e-01,9.99999e-01,8.48347e-01,8.47101e-01,9.99338e-01
7.387297469e-01,7.52212e-01,9.99999e-01,8.85346e-01,8.49882e-01,9.99696e-01
7.424233956e-01,8.03205e-01,9.99999e-01,9.42096e-01,8.52617e-01,9.99946e-01
7.461355126e-01,8.24854e-01,9.99999e-01,9.64404e-01,8.55306e-01,9.99990e-01
7.498661902e-01,8.43632e-01,9.99999e-01,9.83314e-01,8.57951e-01,9.99995e-01
7.536155211e-01,8.53451e-01,9.99999e-01,9.91751e-01,8.60551e-01,9.99997e-01
7.573835987e-01,8.59438e-01,9.99999e-01,9.95748e-01,8.63107e-01,9.99998e-01
7.611705167e-01,8.63332e-01,9.99999e-01,9.97354e-01,8.65621e-01,9.99999e-01
7.649763693e-01,8.66651e-01,9.99999e-01,9.98339e-01,8.68092e-01,9.99999e-01
7.688012511e-01,8.69513e-01,9.99999e-01,9.98841e-01,8.70521e-01,9.99999e-01
7.726452574e-01,8.72075e-01,9.99999e-01,9.99045e-01,8.72908e-01,9.99998e-01
7.765084837e-01,8.74058e-01,9.99999e-01,9.98632e-01,8.75255e-01,9.99997e-01
7.803910261e-01,8.72374e-01,9.99999e-01,9.94093e-01,8.77562e-01,9.99993e-01
7.842929812e-01,8.61802e-01,9.99999e-01,9.79548e-01,8.79828e-01,9.99961e-01
7.882144461e-01,8.45357e-01,9.99999e-01,9.58670e-01,8.82056e-01,9.99710e-01
7.921555184e-01,8.63716e-01,9.99999e-01,9.77273e-01,8.84245e-01,9.99497e-01
7.961162960e-01,8.50286e-01,9.99999e-01,9.59719e-01,8.86397e-01,9.99521e-01
8.000968774e-01,8.47000e-01,9.99999e-01,9.53765e-01,8.88511e-01,9.99490e-01
8.040973618e-01,8.49052e-01,9.99999e-01,9.53731e-01,8.90588e-01,9.99611e-01
8.081178486e-01,8.02185e-01,9.99999e-01,8.99030e-01,8.92628e-01,9.99606e-01
8.121584379e-01,5.80334e-01,9.99999e-01,6.49650e-01,8.94633e-01,9.98511e-01
8.162192301e-01,5.39811e-01,9.99999e-01,6.05443e-01,8.96603e-01,9.94414e-01
8.203003262e-01,7.01303e-01,9.99999e-01,7.85628e-01,8.98538e-01,9.93462e-01
8.244018279e-01,6.51614e-01,9.99999e-01,7.27449e-01,9.00439e-01,9.94793e-01
8.285238370e-01,6.60493e-01,9.99999e-01,7.35012e-01,9.02306e-01,9.95908e-01
8.326664562e-01,6.63431e-01,9.99999e-01,7.35014e-01,9.04140e-01,9.98305e-01
8.368297885e-01,7.24067e-01,9.99999e-01,7.99551e-01,9.05941e-01,9.99612e-01
8.410139374e-01,7.94042e-01,9.99999e-01,8.74971e-01,9.07711e-01,9.99773e-01
8.452190071e-01,8.51520e-01,9.99999e-01,9.36429e-01,9.09449e-01,9.99864e-01
8.494451021e-01,8.76783e-01,9.99999e-01,9.62379e-01,9.11155e-01,9.99891e-01
8.536923276e-01,8.92381e-01,9.99999e-01,9.77660e-01,9.12831e-01,9.99933e-01
8.579607893e-01,9.01786e-01,9.99999e-01,9.86137e-01,9.14477e-01,9.99983e-01
8.622505932e-01,9.08025e-01,9.99999e-01,9.91194e-01,9.16093e-01,9.99996e-01
8.665618462e-01,9.12653e-01,9.99999e-01,9.94522e-01,9.17681e-01,9.99997e-01
8.708946554e-01,9.13459e-01,9.99999e-01,9.93714e-01,9.19239e-01,9.99996e-01
8.752491287e-01,9.13034e-01,9.99999e-01,9.91606e-01,9.20769e-01,9.99990e-01
8.796253743e-01,9.11509e-01,9.99999e-01,9.88354e-01,9.22272e-01,9.99973e-01
8.840235012e-01,9.11413e-01,9.99999e-01,9.86726e-01,9.23747e-01,9.99918e-01
8.884436187e-01,8.80861e-01,9.99999e-01,9.52299e-01,9.25195e-01,9.99769e-01
8.928858368e-01,5.68729e-01,9.99999e-01,6.14585e-01,9.26617e-01,9.98671e-01
8.973502660e-01,3.97956e-01,9.99999e-01,4.31758e-01,9.28013e-01,9.93208e-01
9.018370173e-01,6.01123e-01,9.99999e-01,6.53763e-01,9.29384e-01,9.89342e-01
9.063462024e-01,6.26542e-01,9.99999e-01,6.79538e-01,9.30729e-01,9.90632e-01
9.108779334e-01,5.08118e-01,9.99999e-01,5.50519e-01,9.32050e-01,9.90267e-01
9.154323231e-01,4.66170e-01,9.99999e-01,5.03514e-01,9.33346e-01,9.91948e-01
9.200094847e-01,5.47877e-01,9.99999e-01,5.88861e-01,9.34619e-01,9.95485e-01
9.246095321e-01,4.28432e-01,9.99999e-01,4.60183e-01,9.35868e-01,9.94800e-01
9.292325798e-01,2.10574e-02,9.99999e-01,2.30437e-02,9.37094e-01,9.75144e-01
9.338787427e-01,3.20431e-03,9.99999e-01,3.74029e-03,9.38297e-01,9.13035e-01
9.385481364e-01,8.63111e-02,9.99999e-01,1.01529e-01,9.39478e-01,9.04874e-01
9.432408771e-01,4.29130e-02,9.99999e-01,4.97299e-02,9.40638e-01,9.17377e-01
9.479570815e-01,1.02871e-02,9.99999e-01,1.17173e-02,9.41775e-01,9.32221e-01
9.526968669e-01,2.75585e-02,9.99999e-01,3.05060e-02,9.42892e-01,9.58095e-01
9.574603512e-01,3.31936e-02,9.99999e-01,3.59361e-02,9.43988e-01,9.78489e-01
9.622476530e-01,5.75616e-02,9.99999e-01,6.18303e-02,9.45063e-01,9.85076e-01
9.670588912e-01,1.79437e-01,9.99999e-01,1.91616e-01,9.46118e-01,9.89769e-01
9.718941857e-01,3.02326e-01,9.99999e-01,3.21619e-01,9.47154e-01,9.92458e-01
9.767536566e-01,3.66086e-01,9.99999e-01,3.88336e-01,9.48170e-01,9.94231e-01
9.816374249e-01,4.64120e-01,9.99999e-01,4.89954e-01,9.49168e-01,9.97999e-01
9.865456120e-01,6.04945e-01,9.99999e-01,6.36951e-01,9.50146e-01,9.99582e-01
9.914783401e-01,7.17664e-01,9.99999e-01,7.54643e-01,9.51106e-01,9.99884e-01
9.964357318e-01,8.16536e-01,9.99999e-01,8.57719e-01,9.52049e-01,9.99931e-01
1.001417910e+00,8.68971e-01,9.99999e-01,9.11945e-01,9.52973e-01,9.99896e-01
1.006425000e+00,9.04728e-01,9.99999e-01,9.48610e-01,9.53880e-01,9.99852e-01
1.011457125e+00,9.23978e-01,9.99999e-01,9.67880e-01,9.54770e-01,9.99863e-01
1.016514411e+00,9.34567e-01,9.99999e-01,9.78038e-01,9.55644e-01,9.99903e-01
1.021596983e+00,9.39622e-01,9.99999e-01,9.82446e-01,9.56500e-01,9.99904e-01
1.026704968e+00,9.44145e-01,9.99999e-01,9.86273e-01,9.57341e-01,9.99940e-01
1.031838492e+00,9.48596e-01,9.99999e-01,9.90030e-01,9.58166e-01,9.99981e-01
1.036997685e+00,9.53270e-01,9.99999e-01,9.94053e-01,9.58975e-01,9.99996e-01
1.042182673e+00,9.52938e-01,9.99999e-01,9.92884e-01,9.59769e-01,9.99998e-01
1.047393587e+00,9.51511e-01,9.99999e-01,9.90593e-01,9.60547e-01,9.99997e-01
1.052630555e+00,9.48904e-01,9.99999e-01,9.87096e-01,9.61311e-01,9.99996e-01
1.057893707e+00,9.41392e-01,9.99999e-01,9.78522e-01,9.62061e-01,9.99992e-01
1.063183176e+00,9.29064e-01,9.99999e-01,9.64981e-01,9.62796e-01,9.99981e-01
1.068499092e+00,9.07809e-01,9.99999e-01,9.42219e-01,9.63517e-01,9.99959e-01
1.073841587e+00,8.99417e-01,9.99999e-01,9.32869e-01,9.64225e-01,9.99911e-01
1.079210795e+00,8.82571e-01,9.99999e-01,9.14875e-01,9.64919e-01,9.99761e-01
1.084606849e+00,8.43681e-01,9.99999e-01,8.74237e-01,9.65600e-01,9.99427e-01
1.090029883e+00,7.95943e-01,9.99999e-01,8.24706e-01,9.66268e-01,9.98813e-01
1.095480033e+00,5.72919e-01,9.99999e-01,5.93791e-01,9.66923e-01,9.97854e-01
1.100957433e+00,2.71104e-01,9.99999e-01,2.81301e-01,9.67566e-01,9.96055e-01
1.106462220e+00,5.39211e-02,9.99999e-01,5.60669e-02,9.68196e-01,9.93317e-01
1.111994531e+00,2.82062e-03,9.99999e-01,2.96369e-03,9.68814e-01,9.82359e-01
1.117554504e+00,1.77326e-04,9.99999e-01,1.95059e-04,9.69421e-01,9.37762e-01
1.123142276e+00,3.06628e-03,9.99999e-01,3.68139e-03,9.70015e-01,8.58658e-01
1.128757988e+00,1.03940e-02,9.99999e-01,1.27732e-02,9.70599e-01,8.38380e-01
1.134401778e+00,6.93839e-03,9.99999e-01,8.29967e-03,9.71171e-01,8.60798e-01
1.140073787e+00,4.97903e-02,9.99999e-01,5.77577e-02,9.71732e-01,8.87129e-01
1.145774156e+00,6.60306e-03,9.99999e-01,7.57813e-03,9.72283e-01,8.96168e-01
1.151503026e+00,3.24020e-03,9.99999e-01,3.54046e-03,9.72823e-01,9.40756e-01
1.157260541e+00,4.05258e-03,9.99999e-01,4.24025e-03,9.73353e-01,9.81905e-01
1.163046844e+00,1.66864e-02,9.99999e-01,1.72229e-02,9.73872e-01,9.94837e-01
1.168862078e+00,4.93856e-02,9.99999e-01,5.08193e-02,9.74381e-01,9.97337e-01
1.174706389e+00,1.48182e-01,9.99999e-01,1.52538e-01,9.74881e-01,9.96471e-01
1.180579921e+00,3.02009e-01,9.99999e-01,3.11294e-01,9.75371e-01,9.94670e-01
1.186482820e+00,4.92261e-01,9.99999e-01,5.07216e-01,9.75851e-01,9.94529e-01
1.192415234e+00,6.51171e-01,9.99999e-01,6.69708e-01,9.76323e-01,9.95900e-01
1.198377311e+00,6.93987e-01,9.99999e-01,7.13254e-01,9.76785e-01,9.96109e-01
1.204369197e+00,7.10197e-01,9.99999e-01,7.29210e-01,9.77238e-01,9.96610e-01
1.210391043e+00,7.19767e-01,9.99999e-01,7.37770e-01,9.77683e-01,9.97866e-01
1.216442998e+00,7.54617e-01,9.99999e-01,7.72507e-01,9.78119e-01,9.98692e-01
1.222525213e+00,7.98506e-01,9.99999e-01,8.16675e-01,9.78546e-01,9.99187e-01
1.228637839e+00,8.49895e-01,9.99999e-01,8.68484e-01,9.78965e-01,9.99621e-01
1.234781029e+00,8.82089e-01,9.99999e-01,9.00760e-01,9.79377e-01,9.99891e-01
1.240954934e+00,9.16984e-01,9.99999e-01,9.35936e-01,9.79780e-01,9.99969e-01
1.247159708e+00,9.30896e-01,9.99999e-01,9.49742e-01,9.80175e-01,9.99980e-01
1.253395507e+00,9.36588e-01,9.99999e-01,9.55176e-01,9.80563e-01,9.99974e-01
1.259662485e+00,9.38984e-01,9.99999e-01,9.57263e-01,9.80943e-01,9.99959e-01
1.265960797e+00,9.15363e-01,9.99999e-01,9.32853e-01,9.81316e-01,9.99932e-01
1.272290601e+00,8.79894e-01,9.99999e-01,8.96418e-01,9.81682e-01,9.99880e-01
1.278652054e+00,7.91707e-01,9.99999e-01,8.06355e-01,9.82040e-01,9.99788e-01
1.285045314e+00,6.67639e-01,9.99999e-01,6.79872e-01,9.82392e-01,9.99606e-01
1.291470541e+00,5.03275e-01,9.99999e-01,5.12469e-01,9.82737e-01,9.99309e-01
1.297927893e+00,3.86027e-01,9.99999e-01,3.93179e-01,9.83075e-01,9.98711e-01
1.304417533e+00,3.32301e-01,9.99999e-01,3.38832e-01,9.83406e-01,9.97271e-01
1.310939621e+00,2.51058e-01,9.99999e-01,2.56645e-01,9.83731e-01,9.94406e-01
1.317494319e+00,2.58621e-01,9.99999e-01,2.65553e-01,9.84050e-01,9.89678e-01
1.324081790e+00,1.41414e-01,9.99999e-01,1.46115e-01,9.84363e-01,9.83202e-01
1.330702199e+00,1.41160e-02,9.99999e-01,1.47607e-02,9.84669e-01,9.71213e-01
1.337355710e+00,1.51454e-07,9.99999e-01,1.62663e-07,9.84970e-01,9.45300e-01
1.344042489e+00,5.31019e-11,9.99999e-01,6.38469e-11,9.85264e-01,8.44143e-01
1.350762701e+00,7.39393e-38,9.99999e-01,1.34007e-37,9.85553e-01,5.59845e-01
1.357516515e+00,6.18436e-58,9.99999e-01,3.44236e-57,9.85836e-01,1.82235e-01
1.364304097e+00,1.75220e-35,9.99999e-01,3.51118e-34,9.86114e-01,5.06060e-02
1.371125618e+00,3.36792e-21,9.99999e-01,5.68844e-20,9.86387e-01,6.00235e-02
1.377981246e+00,1.69785e-20,9.99999e-01,1.91844e-19,9.86654e-01,8.96986e-02
1.384871152e+00,5.45407e-29,9.99999e-01,5.22705e-28,9.86916e-01,1.05726e-01
1.391795508e+00,9.93101e-36,9.99999e-01,8.56573e-35,9.87172e-01,1.17445e-01
1.398754485e+00,5.26792e-27,9.99999e-01,3.12960e-26,9.87424e-01,1.70469e-01
1.405748258e+00,1.10486e-26,9.99999e-01,3.14681e-26,9.87671e-01,3.55488e-01
1.412776999e+00,1.08674e-25,9.99998e-01,1.76396e-25,9.87913e-01,6.23619e-01
1.419840884e+00,2.09637e-25,9.99998e-01,2.60956e-25,9.88150e-01,8.12977e-01
1.426940089e+00,1.91904e-16,9.99997e-01,2.27235e-16,9.88383e-01,8.54445e-01
1.434074789e+00,1.13581e-14,9.99998e-01,1.38323e-14,9.88611e-01,8.30588e-01
1.441245163e+00,4.53425e-12,9.99998e-01,5.60659e-12,9.88835e-01,8.17866e-01
1.448451389e+00,5.46665e-08,9.99997e-01,6.59106e-08,9.89054e-01,8.38581e-01
1.455693646e+00,1.16185e-05,9.99998e-01,1.34686e-05,9.89269e-01,8.71987e-01
1.462972114e+00,1.45607e-05,9.99998e-01,1.67692e-05,9.89480e-01,8.77532e-01
1.470286975e+00,4.22418e-06,9.99998e-01,4.85305e-06,9.89687e-01,8.79486e-01
