#,Wave/freq,Total,N2,H2O,Rayleigh,CIA
4.000000000e-01,2.41406e-01,9.99999e-01,9.99839e-01,2.41445e-01,9.99999e-01
4.020000000e-01,2.48301e-01,9.99999e-01,9.99899e-01,2.48325e-01,9.99999e-01
4.040100000e-01,2.55242e-01,9.99999e-01,9.99957e-01,2.55253e-01,9.99999e-01
4.060300500e-01,2.62229e-01,9.99999e-01,9.99989e-01,2.62232e-01,9.99999e-01
4.080602003e-01,2.69256e-01,9.99999e-01,9.99996e-01,2.69257e-01,9.99999e-01
4.101005013e-01,2.76327e-01,9.99999e-01,9.99999e-01,2.76327e-01,9.99999e-01
4.121510038e-01,2.83435e-01,9.99999e-01,9.99993e-01,2.83437e-01,9.99999e-01
4.142117588e-01,2.90571e-01,9.99999e-01,9.99956e-01,2.90584e-01,9.99999e-01
4.162828176e-01,2.97706e-01,9.99999e-01,9.99800e-01,2.97765e-01,9.99999e-01
4.183642317e-01,3.04940e-01,9.99999e-01,9.99881e-01,3.04976e-01,9.99999e-01
4.204560528e-01,3.12191e-01,9.99999e-01,9.99926e-01,3.12214e-01,9.99999e-01
4.225583331e-01,3.19467e-01,9.99999e-01,9.99972e-01,3.19476e-01,9.99999e-01
4.246711247e-01,3.26752e-01,9.99999e-01,9.99978e-01,3.26758e-01,9.99999e-01
4.267944804e-01,3.34048e-01,9.99999e-01,9.99967e-01,3.34058e-01,9.99999e-01
4.289284528e-01,3.41364e-01,9.99999e-01,9.99974e-01,3.41372e-01,9.99999e-01
4.310730950e-01,3.48693e-01,9.99999e-01,9.99989e-01,3.48697e-01,9.99999e-01
4.332284605e-01,3.56028e-01,9.99999e-01,9.99996e-01,3.56029e-01,9.99999e-01
4.353946028e-01,3.63366e-01,9.99999e-01,9.99998e-01,3.63366e-01,9.99999e-01
4.375715758e-01,3.70698e-01,9.99999e-01,9.99980e-01,3.70705e-01,9.99999e-01
4.397594337e-01,3.77979e-01,9.99999e-01,9.99827e-01,3.78043e-01,9.99999e-01
4.419582309e-01,3.85043e-01,9.99999e-01,9.99130e-01,3.85377e-01,9.99999e-01
4.441680220e-01,3.92431e-01,9.99999e-01,9.99302e-01,3.92705e-01,9.99999e-01
4.463888621e-01,3.99735e-01,9.99999e-01,9.99280e-01,4.00022e-01,9.99999e-01
4.486208064e-01,4.07145e-01,9.99999e-01,9.99549e-01,4.07328e-01,9.99999e-01
4.508639105e-01,4.14531e-01,9.99999e-01,9.99789e-01,4.14618e-01,9.99999e-01
4.531182300e-01,4.21857e-01,9.99999e-01,9.99916e-01,4.21892e-01,9.99999e-01
4.553838212e-01,4.29121e-01,9.99999e-01,9.99943e-01,4.29145e-01,9.99999e-01
4.576607403e-01,4.36365e-01,9.99999e-01,9.99973e-01,4.36376e-01,9.99999e-01
4.599490440e-01,4.43575e-01,9.99999e-01,9.99981e-01,4.43583e-01,9.99999e-01
4.622487892e-01,4.50761e-01,9.99999e-01,9.99996e-01,4.50763e-01,9.99999e-01
4.645600332e-01,4.57908e-01,9.99999e-01,9.99987e-01,4.57913e-01,9.99999e-01
4.668828333e-01,4.64935e-01,9.99999e-01,9.99789e-01,4.65033e-01,9.99999e-01
4.692172475e-01,4.71906e-01,9.99999e-01,9.99548e-01,4.72119e-01,9.99999e-01
4.715633337e-01,4.79029e-01,9.99999e-01,9.99705e-01,4.79170e-01,9.99999e-01
4.739211504e-01,4.86047e-01,9.99999e-01,9.99716e-01,4.86184e-01,9.99999e-01
4.762907561e-01,4.93087e-01,9.99999e-01,9.99852e-01,4.93160e-01,9.99999e-01
4.786722099e-01,5.00064e-01,9.99999e-01,9.99939e-01,5.00094e-01,9.99999e-01
4.810655710e-01,5.06977e-01,9.99999e-01,9.99981e-01,5.06986e-01,9.99999e-01
4.834708988e-01,5.13748e-01,9.99999e-01,9.99831e-01,5.13835e-01,9.99999e-01
4.858882533e-01,5.20470e-01,9.99999e-01,9.99678e-01,5.20637e-01,9.99999e-01
4.883176946e-01,5.27253e-01,9.99999e-01,9.99733e-01,5.27393e-01,9.99999e-01
4.907592831e-01,5.33971e-01,9.99999e-01,9.99757e-01,5.34100e-01,9.99999e-01
4.932130795e-01,5.40665e-01,9.99999e-01,9.99827e-01,5.40758e-01,9.99999e-01
4.956791449e-01,5.47315e-01,9.99999e-01,9.99908e-01,5.47365e-01,9.99999e-01
4.981575406e-01,5.53670e-01,9.99999e-01,9.99548e-01,5.53919e-01,9.99999e-01
5.006483283e-01,5.59766e-01,9.99999e-01,9.98839e-01,5.60421e-01,9.99991e-01
5.031515699e-01,5.63475e-01,9.99999e-01,9.94076e-01,5.66867e-01,9.99937e-01
5.056673278e-01,5.71416e-01,9.99999e-01,9.96855e-01,5.73259e-01,9.99928e-01
5.081956644e-01,5.77267e-01,9.99999e-01,9.96030e-01,5.79594e-01,9.99953e-01
5.107366428e-01,5.84295e-01,9.99999e-01,9.97316e-01,5.85872e-01,9.99990e-01
5.132903260e-01,5.91182e-01,9.99999e-01,9.98462e-01,5.92092e-01,9.99998e-01
5.158567776e-01,5.97864e-01,9.99999e-01,9.99349e-01,5.98253e-01,9.99999e-01
5.184360615e-01,6.04198e-01,9.99999e-01,9.99739e-01,6.04355e-01,9.99999e-01
5.210282418e-01,6.10338e-01,9.99999e-01,9.99903e-01,6.10397e-01,9.99999e-01
5.236333830e-01,6.16137e-01,9.99999e-01,9.99611e-01,6.16378e-01,9.99996e-01
5.262515499e-01,6.22144e-01,9.99999e-01,9.99756e-01,6.22297e-01,9.99995e-01
5.288828077e-01,6.28015e-01,9.99999e-01,9.99778e-01,6.28155e-01,9.99997e-01
5.315272217e-01,6.33826e-01,9.99999e-01,9.99802e-01,6.33951e-01,9.99998e-01
5.341848578e-01,6.39603e-01,9.99999e-01,9.99872e-01,6.39684e-01,9.99999e-01
5.368557821e-01,6.45064e-01,9.99999e-01,9.99550e-01,6.45354e-01,9.99998e-01
5.395400610e-01,6.49906e-01,9.99999e-01,9.98391e-01,6.50961e-01,9.99986e-01
5.422377613e-01,6.55092e-01,9.99999e-01,9.97884e-01,6.56505e-01,9.99961e-01
5.449489501e-01,6.60668e-01,9.99999e-01,9.98050e-01,6.61985e-01,9.99959e-01
5.476736949e-01,6.66224e-01,9.99999e-01,9.98255e-01,6.67401e-01,9.99980e-01
5.504120634e-01,6.71898e-01,9.99999e-01,9.98734e-01,6.72753e-01,9.99994e-01
5.531641237e-01,6.77608e-01,9.99999e-01,9.99362e-01,6.78041e-01,9.99998e-01
5.559299443e-01,6.83054e-01,9.99999e-01,9.99692e-01,6.83264e-01,9.99999e-01
5.587095940e-01,6.88292e-01,9.99999e-01,9.99807e-01,6.88424e-01,9.99999e-01
5.615031420e-01,6.93371e-01,9.99999e-01,9.99786e-01,6.93520e-01,9.99999e-01
5.643106577e-01,6.98384e-01,9.99999e-01,9.99761e-01,6.98551e-01,9.99997e-01
5.671322110e-01,7.01483e-01,9.99999e-01,9.97129e-01,7.03519e-01,9.99975e-01
5.699678720e-01,7.06128e-01,9.99999e-01,9.96839e-01,7.08423e-01,9.99919e-01
5.728177114e-01,7.10898e-01,9.99999e-01,9.96749e-01,7.13263e-01,9.99932e-01
5.756818000e-01,7.15863e-01,9.99999e-01,9.97008e-01,7.18039e-01,9.99958e-01
5.785602090e-01,7.20855e-01,9.99999e-01,9.97386e-01,7.22753e-01,9.99987e-01
5.814530100e-01,7.25495e-01,9.99999e-01,9.97382e-01,7.27403e-01,9.99993e-01
5.843602750e-01,7.29718e-01,9.99999e-01,9.96912e-01,7.31990e-01,9.99982e-01
5.872820764e-01,7.17043e-01,9.99999e-01,9.73745e-01,7.36515e-01,9.99810e-01
5.902184868e-01,7.16753e-01,9.99999e-01,9.67805e-01,7.40978e-01,9.99484e-01
5.931695792e-01,7.28085e-01,9.99999e-01,9.77289e-01,7.45378e-01,9.99498e-01
5.961354271e-01,7.30771e-01,9.99999e-01,9.75023e-01,7.49717e-01,9.99696e-01
5.991161043e-01,7.40119e-01,9.99999e-01,9.81681e-01,7.53995e-01,9.99911e-01
6.021116848e-01,7.50281e-01,9.99999e-01,9.89549e-01,7.58212e-01,9.99988e-01
6.051222432e-01,7.58325e-01,9.99999e-01,9.94695e-01,7.62369e-01,9.99998e-01
6.081478544e-01,7.64713e-01,9.99999e-01,9.97711e-01,7.66466e-01,9.99999e-01
6.111885937e-01,7.69755e-01,9.99999e-01,9.99028e-01,7.70503e-01,9.99999e-01
6.142445367e-01,7.74146e-01,9.99999e-01,9.99566e-01,7.74481e-01,9.99999e-01
6.173157594e-01,7.78215e-01,9.99999e-01,9.99761e-01,7.78401e-01,9.99999e-01
6.204023382e-01,7.82105e-01,9.99999e-01,9.99799e-01,7.82262e-01,9.99999e-01
6.235043498e-01,7.85382e-01,9.99999e-01,9.99131e-01,7.86065e-01,9.99997e-01
6.266218716e-01,7.86090e-01,9.99999e-01,9.95319e-01,7.89812e-01,9.99966e-01
6.297549810e-01,7.92086e-01,9.99999e-01,9.98281e-01,7.93502e-01,9.99933e-01
6.329037559e-01,7.94378e-01,9.99999e-01,9.96592e-01,7.97135e-01,9.99946e-01
6.360682746e-01,7.98378e-01,9.99999e-01,9.97113e-01,8.00713e-01,9.99968e-01
6.392486160e-01,8.01210e-01,9.99999e-01,9.96250e-01,8.04236e-01,9.99985e-01
6.424448591e-01,8.04063e-01,9.99999e-01,9.95512e-01,8.07704e-01,9.99977e-01
6.456570834e-01,7.92659e-01,9.99999e-01,9.77367e-01,8.11119e-01,9.99870e-01
6.488853688e-01,7.97976e-01,9.99999e-01,9.80090e-01,8.14480e-01,9.99638e-01
6.521297956e-01,8.03434e-01,9.99999e-01,9.82745e-01,8.17788e-01,9.99696e-01
6.553904446e-01,8.06836e-01,9.99999e-01,9.82919e-01,8.21043e-01,9.99772e-01
6.586673968e-01,8.12002e-01,9.99999e-01,9.85216e-01,8.24247e-01,9.99925e-01
6.619607338e-01,8.20292e-01,9.99999e-01,9.91424e-01,8.27400e-01,9.99983e-01
6.652705375e-01,8.26351e-01,9.99999e-01,9.95008e-01,8.30502e-01,9.99991e-01
6.685968902e-01,8.31621e-01,9.99999e-01,9.97681e-01,8.33555e-01,9.99998e-01
6.719398746e-01,8.35657e-01,9.99999e-01,9.98923e-01,8.36558e-01,9.99999e-01
6.752995740e-01,8.39025e-01,9.99999e-01,9.99419e-01,8.39512e-01,9.99999e-01
6.786760719e-01,8.41717e-01,9.99999e-01,9.99168e-01,8.42418e-01,9.99998e-01
6.820694522e-01,8.44063e-01,9.99999e-01,9.98571e-01,8.45276e-01,9.99992e-01
6.854797995e-01,8.46513e-01,9.99999e-01,9.98160e-01,8.48087e-01,9.99983e-01
6.889071985e-01,8.47106e-01,9.99999e-01,9.95636e-01,8.50852e-01,9.99959e-01
6.923517345e-01,7.93945e-01,9.99999e-01,9.30470e-01,8.53571e-01,9.99650e-01
6.958134932e-01,8.23432e-01,9.99999e-01,9.62437e-01,8.56244e-01,9.99211e-01
6.992925606e-01,8.28152e-01,9.99999e-01,9.64899e-01,8.58873e-01,9.99305e-01
7.027890234e-01,8.23485e-01,9.99999e-01,9.56429e-01,8.61458e-01,9.99467e-01
7.063029686e-01,8.31998e-01,9.99999e-01,9.63216e-01,8.63999e-01,9.99734e-01
7.098344834e-01,8.35743e-01,9.99999e-01,9.64658e-01,8.66497e-01,9.99842e-01
7.133836558e-01,8.28828e-01,9.99999e-01,9.54119e-01,8.68954e-01,9.99688e-01
7.169505741e-01,6.02658e-01,9.99999e-01,6.93320e-01,8.71368e-01,9.97551e-01
7.205353270e-01,7.22476e-01,9.99999e-01,8.30460e-01,8.73741e-01,9.95684e-01
7.241380036e-01,6.91309e-01,9.99999e-01,7.92074e-01,8.76073e-01,9.96244e-01
7.277586936e-01,7.09466e-01,9.99999e-01,8.10240e-01,8.78366e-01,9.96878e-01
7.313974871e-01,7.00329e-01,9.99999e-01,7.96406e-01,8.80619e-01,9.98570e-01
7.350544745e-01,7.78863e-01,9.99999e-01,8.82669e-01,8.82833e-01,9.99502e-01
7.387297469e-01,8.06722e-01,9.99999e-01,9.11748e-01,8.85009e-01,9.99771e-01
7.424233956e-01,8.47691e-01,9.99999e-01,9.55566e-01,8.87147e-01,9.99955e-01
7.461355126e-01,8.65115e-01,9.99999e-01,9.72868e-01,8.89248e-01,9.99991e-01
7.498661902e-01,8.79931e-01,9.99999e-01,9.87233e-01,8.91312e-01,9.99996e-01
7.536155211e-01,8.87745e-01,9.99999e-01,9.93738e-01,8.93340e-01,9.99997e-01
7.573835987e-01,8.92439e-01,9.99999e-01,9.96768e-01,8.95332e-01,9.99999e-01
7.611705167e-01,8.95488e-01,9.99999e-01,9.97992e-01,8.97290e-01,9.99999e-01
7.649763693e-01,8.98083e-01,9.99999e-01,9.98743e-01,8.99212e-01,9.99999e-01
7.688012511e-01,9.00314e-01,9.99999e-01,9.99126e-01,9.01101e-01,9.99999e-01
7.726452574e-01,9.02308e-01,9.99999e-01,9.99281e-01,9.02957e-01,9.99999e-01
7.765084837e-01,9.03863e-01,9.99999e-01,9.98988e-01,9.04779e-01,9.99998e-01
7.803910261e-01,9.02616e-01,9.99999e-01,9.95643e-01,9.06569e-01,9.99995e-01
7.842929812e-01,8.94576e-01,9.99999e-01,9.84887e-01,9.08327e-01,9.99971e-01
7.882144461e-01,8.81472e-01,9.99999e-01,9.68780e-01,9.10054e-01,9.99805e-01
7.921555184e-01,8.95613e-01,9.99999e-01,9.82668e-01,9.11750e-01,9.99624e-01
7.961162960e-01,8.85682e-01,9.99999e-01,9.69985e-01,9.13415e-01,9.99640e-01
8.000968774e-01,8.82774e-01,9.99999e-01,9.65095e-01,9.15051e-01,9.99617e-01
8.040973618e-01,8.84461e-01,9.99999e-01,9.65169e-01,9.16657e-01,9.99696e-01
8.081178486e-01,8.48457e-01,9.99999e-01,9.24272e-01,9.18234e-01,9.99715e-01
8.121584379e-01,6.65295e-01,9.99999e-01,7.24127e-01,9.19782e-01,9.98881e-01
8.162192301e-01,6.23861e-01,9.99999e-01,6.80006e-01,9.21303e-01,9.95800e-01
8.203003262e-01,7.66091e-01,9.99999e-01,8.34285e-01,9.22795e-01,9.95084e-01
8.244018279e-01,7.14912e-01,9.99999e-01,7.76534e-01,9.24261e-01,9.96086e-01
8.285238370e-01,7.32067e-01,9.99999e-01,7.93263e-01,9.25700e-01,9.96924e-01
8.326664562e-01,7.32585e-01,9.99999e-01,7.91185e-01,9.27113e-01,9.98726e-01
8.368297885e-01,7.83091e-01,9.99999e-01,8.43638e-01,9.28500e-01,9.99708e-01
8.410139374e-01,8.39985e-01,9.99999e-01,9.03497e-01,9.29861e-01,9.99829e-01
8.452190071e-01,8.85719e-01,9.99999e-01,9.51257e-01,9.31198e-01,9.99897e-01
8.494451021e-01,9.05863e-01,9.99999e-01,9.71503e-01,9.32510e-01,9.99918e-01
8.536923276e-01,9.17857e-01,9.99999e-01,9.82981e-01,9.33798e-01,9.99945e-01
8.579607893e-01,9.25253e-01,9.99999e-01,9.89523e-01,9.35062e-01,9.99985e-01
8.622505932e-01,9.30042e-01,9.99999e-01,9.93314e-01,9.36303e-01,9.99997e-01
8.665618462e-01,9.33655e-01,9.99999e-01,9.95877e-01,9.37521e-01,9.99998e-01
8.708946554e-01,9.34296e-01,9.99999e-01,9.95293e-01,9.38716e-01,9.99996e-01
8.752491287e-01,9.33963e-01,9.99999e-01,9.93699e-01,9.39890e-01,9.99992e-01
8.796253743e-01,9.32855e-01,9.99999e-01,9.91319e-01,9.41041e-01,9.99980e-01
8.840235012e-01,9.32771e-01,9.99999e-01,9.90082e-01,9.42172e-01,9.99938e-01
8.884436187e-01,9.10521e-01,9.99999e-01,9.65436e-01,9.43281e-01,9.99826e-01
8.928858368e-01,6.54863e-01,9.99999e-01,6.94132e-01,9.44369e-01,9.99001e-01
8.973502660e-01,4.93125e-01,9.99999e-01,5.24260e-01,9.45438e-01,9.94893e-01
9.018370173e-01,6.73286e-01,9.99999e-01,7.17101e-01,9.46486e-01,9.91983e-01
9.063462024e-01,7.03868e-01,9.99999e-01,7.48126e-01,9.47515e-01,9.92954e-01
9.108779334e-01,5.97937e-01,9.99999e-01,6.35034e-01,9.48524e-01,9.92679e-01
9.154323231e-01,5.59809e-01,9.99999e-01,5.93164e-01,9.49515e-01,9.93945e-01
9.200094847e-01,6.30874e-01,9.99999e-01,6.65996e-01,9.50487e-01,9.96606e-01
9.246095321e-01,5.28259e-01,9.99999e-01,5.57398e-01,9.51441e-01,9.96091e-01
9.292325798e-01,4.02235e-02,9.99999e-01,4.28848e-02,9.52377e-01,9.84843e-01
9.338787427e-01,9.88640e-03,9.99999e-01,1.10466e-02,9.53295e-01,9.38817e-01
9.385481364e-01,1.41603e-01,9.99999e-01,1.59973e-01,9.54196e-01,9.27661e-01
9.432408771e-01,8.38399e-02,9.99999e-01,9.36578e-02,9.55080e-01,9.37273e-01
9.479570815e-01,2.84591e-02,9.99999e-01,3.13823e-02,9.55948e-01,9.48643e-01
9.526968669e-01,6.10616e-02,9.99999e-01,6.59041e-02,9.56799e-01,9.68354e-01
9.574603512e-01,6.95289e-02,9.99999e-01,7.38005e-02,9.57634e-01,9.83797e-01
9.622476530e-01,1.05675e-01,9.99999e-01,1.11509e-01,9.58453e-01,9.88768e-01
9.670588912e-01,2.61679e-01,9.99999e-01,2.74909e-01,9.59257e-01,9.92304e-01
9.718941857e-01,4.02049e-01,9.99999e-01,4.21168e-01,9.60045e-01,9.94329e-01
9.767536566e-01,4.65511e-01,9.99999e-01,4.86603e-01,9.60819e-01,9.95663e-01
9.816374249e-01,5.57628e-01,9.99999e-01,5.80782e-01,9.61577e-01,9.98497e-01
9.865456120e-01,6.82824e-01,9.99999e-01,7.09780e-01,9.62322e-01,9.99686e-01
9.914783401e-01,7.78087e-01,9.99999e-01,8.08008e-01,9.63052e-01,9.99912e-01
9.964357318e-01,8.57957e-01,9.99999e-01,8.90255e-01,9.63769e-01,9.99948e-01
1.001417910e+00,8.99356e-01,9.99999e-01,9.32557e-01,9.64471e-01,9.99922e-01
1.006425000e+00,9.27447e-01,9.99999e-01,9.61030e-01,9.65161e-01,9.99889e-01
1.011457125e+00,9.42133e-01,9.99999e-01,9.75556e-01,9.65837e-01,9.99897e-01
1.016514411e+00,9.50357e-01,9.99999e-01,9.83368e-01,9.66500e-01,9.99927e-01
1.021596983e+00,9.54254e-01,9.99999e-01,9.86735e-01,9.67151e-01,9.99926e-01
1.026704968e+00,9.57724e-01,9.99999e-01,9.89646e-01,9.67789e-01,9.99950e-01
1.031838492e+00,9.61089e-01,9.99999e-01,9.92446e-01,9.68415e-01,9.99986e-01
1.036997685e+00,9.64685e-01,9.99999e-01,9.95518e-01,9.69029e-01,9.99997e-01
1.042182673e+00,9.64473e-01,9.99999e-01,9.94680e-01,9.69632e-01,9.99998e-01
1.047393587e+00,9.63369e-01,9.99999e-01,9.92937e-01,9.70223e-01,9.99998e-01
1.052630555e+00,9.61418e-01,9.99999e-01,9.90335e-01,9.70802e-01,9.99997e-01
1.057893707e+00,9.55775e-01,9.99999e-01,9.83950e-01,9.71370e-01,9.99993e-01
1.063183176e+00,9.46364e-01,9.99999e-01,9.73710e-01,9.71928e-01,9.99985e-01
1.068499092e+00,9.29989e-01,9.99999e-01,9.56340e-01,9.72475e-01,9.99969e-01
1.073841587e+00,9.23681e-01,9.99999e-01,9.49363e-01,9.73011e-01,9.99933e-01
1.079210795e+00,9.10300e-01,9.99999e-01,9.35211e-01,9.73537e-01,9.99820e-01
1.084606849e+00,8.80190e-01,9.99999e-01,9.04025e-01,9.74053e-01,9.99569e-01
1.090029883e+00,8.43860e-01,9.99999e-01,8.66661e-01,9.74559e-01,9.99108e-01
1.095480033e+00,6.59394e-01,9.99999e-01,6.77354e-01,9.75055e-01,9.98387e-01
1.100957433e+00,3.72904e-01,9.99999e-01,3.83389e-01,9.75542e-01,9.97035e-01
1.106462220e+00,1.04521e-01,9.99999e-01,1.07629e-01,9.76019e-01,9.94976e-01
1.111994531e+00,1.03462e-02,9.99999e-01,1.07380e-02,9.76487e-01,9.86718e-01
1.117554504e+00,1.03585e-03,9.99999e-01,1.11273e-03,9.76946e-01,9.52875e-01
1.123142276e+00,9.37900e-03,9.99999e-01,1.07597e-02,9.77396e-01,8.91838e-01
1.128757988e+00,2.87991e-02,9.99999e-01,3.36220e-02,9.77838e-01,8.75969e-01
1.134401778e+00,1.49098e-02,9.99999e-01,1.71030e-02,9.78270e-01,8.91130e-01
1.140073787e+00,1.00024e-01,9.99999e-01,1.12090e-01,9.78695e-01,9.11775e-01
1.145774156e+00,1.79467e-02,9.99999e-01,1.99029e-02,9.79111e-01,9.20948e-01
1.151503026e+00,1.11249e-02,9.99999e-01,1.18907e-02,9.79520e-01,9.55160e-01
1.157260541e+00,1.44015e-02,9.99999e-01,1.48996e-02,9.79920e-01,9.86376e-01
1.163046844e+00,4.19534e-02,9.99999e-01,4.29626e-02,9.80313e-01,9.96119e-01
1.168862078e+00,9.71910e-02,9.99999e-01,9.93025e-02,9.80698e-01,9.97999e-01
1.174706389e+00,2.31075e-01,9.99999e-01,2.36158e-01,9.81076e-01,9.97348e-01
1.180579921e+00,4.00003e-01,9.99999e-01,4.09204e-01,9.81446e-01,9.95993e-01
1.186482820e+00,5.84480e-01,9.99999e-01,5.97767e-01,9.81809e-01,9.95887e-01
1.192415234e+00,7.23597e-01,9.99999e-01,7.39013e-01,9.82165e-01,9.96918e-01
1.198377311e+00,7.59891e-01,9.99999e-01,7.75671e-01,9.82514e-01,9.97089e-01
1.204369197e+00,7.72261e-01,9.99999e-01,7.87805e-01,9.82857e-01,9.97366e-01
1.210391043e+00,7.80370e-01,9.99999e-01,7.94984e-01,9.83192e-01,9.98396e-01
1.216442998e+00,8.07946e-01,9.99999e-01,8.22289e-01,9.83522e-01,9.99017e-01
1.222525213e+00,8.43792e-01,9.99999e-01,8.58170e-01,9.83844e-01,9.99389e-01
1.228637839e+00,8.84701e-01,9.99999e-01,8.99193e-01,9.84161e-01,9.99715e-01
1.234781029e+00,9.09631e-01,9.99999e-01,9.24053e-01,9.84471e-01,9.99918e-01
1.240954934e+00,9.36812e-01,9.99999e-01,9.51315e-01,9.84776e-01,9.99976e-01
1.247159708e+00,9.47439e-01,9.99999e-01,9.61808e-01,9.85074e-01,9.99985e-01
1.253395507e+00,9.51921e-01,9.99999e-01,9.66075e-01,9.85367e-01,9.99980e-01
1.259662485e+00,9.54157e-01,9.99999e-01,9.68073e-01,9.85654e-01,9.99969e-01
1.265960797e+00,9.35843e-01,9.99999e-01,9.49241e-01,9.85935e-01,9.99949e-01
1.272290601e+00,9.13485e-01,9.99999e-01,9.26339e-01,9.86211e-01,9.99910e-01
1.278652054e+00,8.39963e-01,9.99999e-01,8.51608e-01,9.86481e-01,9.99841e-01
1.285045314e+00,7.68025e-01,9.99999e-01,7.78570e-01,9.86747e-01,9.99703e-01
1.291470541e+00,5.97321e-01,9.99999e-01,6.05498e-01,9.87007e-01,9.99480e-01
1.297927893e+00,5.17207e-01,9.99999e-01,5.24387e-01,9.87262e-01,9.99031e-01
1.304417533e+00,4.31370e-01,9.99999e-01,4.37722e-01,9.87512e-01,9.97949e-01
1.310939621e+00,3.84982e-01,9.99999e-01,3.91399e-01,9.87757e-01,9.95795e-01
1.317494319e+00,3.53744e-01,9.99999e-01,3.60843e-01,9.87997e-01,9.92236e-01
1.324081790e+00,2.26137e-01,9.99999e-01,2.31760e-01,9.88233e-01,9.87355e-01
1.330702199e+00,3.36226e-02,9.99999e-01,3.47696e-02,9.88464e-01,9.78297e-01
1.337355710e+00,5.03965e-06,9.99999e-01,5.31730e-06,9.88691e-01,9.58623e-01
1.344042489e+00,8.00292e-09,9.99999e-01,9.19106e-09,9.88913e-01,8.80489e-01
1.350762701e+00,5.46463e-29,9.99999e-01,8.54195e-29,9.89130e-01,6.46769e-01
1.357516515e+00,4.53568e-44,9.99999e-01,1.64704e-43,9.89344e-01,2.78349e-01
1.364304097e+00,3.35586e-27,9.99999e-01,3.18979e-26,9.89553e-01,1.06317e-01
1.371125618e+00,1.76282e-16,9.99999e-01,1.47366e-15,9.89759e-01,1.20859e-01
1.377981246e+00,7.41187e-16,9.99999e-01,4.58114e-15,9.89960e-01,1.63432e-01
1.384871152e+00,2.43559e-22,9.99999e-01,1.35469e-21,9.90157e-01,1.81576e-01
1.391795508e+00,2.23559e-27,9.99999e-01,1.13495e-26,9.90351e-01,1.98895e-01
1.398754485e+00,7.67866e-21,9.99999e-01,2.92817e-20,9.90540e-01,2.64737e-01
1.405748258e+00,1.39690e-20,9.99999e-01,3.06641e-20,9.90726e-01,4.59813e-01
1.412776999e+00,7.42270e-20,9.99998e-01,1.06803e-19,9.90909e-01,7.01365e-01
1.419840884e+00,1.30036e-19,9.99998e-01,1.53285e-19,9.91087e-01,8.55955e-01
1.426940089e+00,6.53185e-13,9.99998e-01,7.41593e-13,9.91263e-01,8.88549e-01
1.434074789e+00,1.78462e-11,9.99998e-01,2.06937e-11,9.91434e-01,8.69846e-01
1.441245163e+00,1.69805e-09,9.99998e-01,1.99161e-09,9.91603e-01,8.59819e-01
1.448451389e+00,1.79383e-06,9.99997e-01,2.06445e-06,9.91768e-01,8.76128e-01
1.455693646e+00,1.21734e-04,9.99998e-01,1.36025e-04,9.91930e-01,9.02217e-01
1.462972114e+00,1.75200e-04,9.99999e-01,1.94806e-04,9.92089e-01,9.06524e-01
1.470286975e+00,5.69385e-05,9.99999e-01,6.31948e-05,9.92244e-01,9.08040e-01
