#,Wave/freq,Total,N2,H2O,Rayleigh,CIA
4.000000000e-01,6.40701e-01,9.99999e-01,9.99949e-01,6.40733e-01,9.99999e-01
4.020000000e-01,6.46377e-01,9.99999e-01,9.99968e-01,6.46398e-01,9.99999e-01
4.040100000e-01,6.51984e-01,9.99999e-01,9.99986e-01,6.51993e-01,9.99999e-01
4.060300500e-01,6.57523e-01,9.99999e-01,9.99996e-01,6.57525e-01,9.99999e-01
4.080602003e-01,6.62992e-01,9.99999e-01,9.99998e-01,6.62993e-01,9.99999e-01
4.101005013e-01,6.68397e-01,9.99999e-01,9.99999e-01,6.68397e-01,9.99999e-01
4.121510038e-01,6.73736e-01,9.99999e-01,9.99997e-01,6.73737e-01,9.99999e-01
4.142117588e-01,6.79004e-01,9.99999e-01,9.99985e-01,6.79013e-01,9.99999e-01
4.162828176e-01,6.84182e-01,9.99999e-01,9.99937e-01,6.84225e-01,9.99999e-01
4.183642317e-01,6.89347e-01,9.99999e-01,9.99962e-01,6.89373e-01,9.99999e-01
4.204560528e-01,6.94441e-01,9.99999e-01,9.99976e-01,6.94456e-01,9.99999e-01
4.225583331e-01,6.99470e-01,9.99999e-01,9.99990e-01,6.99476e-01,9.99999e-01
4.246711247e-01,7.04427e-01,9.99999e-01,9.99992e-01,7.04432e-01,9.99999e-01
4.267944804e-01,7.09317e-01,9.99999e-01,9.99989e-01,7.09324e-01,9.99999e-01
4.289284528e-01,7.14147e-01,9.99999e-01,9.99991e-01,7.14152e-01,9.99999e-01
4.310730950e-01,7.18915e-01,9.99999e-01,9.99996e-01,7.18917e-01,9.99999e-01
4.332284605e-01,7.23618e-01,9.99999e-01,9.99998e-01,7.23619e-01,9.99999e-01
4.353946028e-01,7.28257e-01,9.99999e-01,9.99999e-01,7.28257e-01,9.99999e-01
4.375715758e-01,7.32828e-01,9.99999e-01,9.99993e-01,7.32833e-01,9.99999e-01
4.397594337e-01,7.37306e-01,9.99999e-01,9.99945e-01,7.37346e-01,9.99999e-01
4.419582309e-01,7.41594e-01,9.99999e-01,9.99725e-01,7.41797e-01,9.99999e-01
4.441680220e-01,7.46024e-01,9.99999e-01,9.99781e-01,7.46186e-01,9.99999e-01
4.463888621e-01,7.50345e-01,9.99999e-01,9.99774e-01,7.50514e-01,9.99999e-01
4.486208064e-01,7.54675e-01,9.99999e-01,9.99858e-01,7.54781e-01,9.99999e-01
4.508639105e-01,7.58937e-01,9.99999e-01,9.99933e-01,7.58987e-01,9.99999e-01
4.531182300e-01,7.63113e-01,9.99999e-01,9.99973e-01,7.63132e-01,9.99999e-01
4.553838212e-01,7.67205e-01,9.99999e-01,9.99981e-01,7.67218e-01,9.99999e-01
4.576607403e-01,7.71238e-01,9.99999e-01,9.99991e-01,7.71244e-01,9.99999e-01
4.599490440e-01,7.75207e-01,9.99999e-01,9.99993e-01,7.75211e-01,9.99999e-01
4.622487892e-01,7.79119e-01,9.99999e-01,9.99998e-01,7.79120e-01,9.99999e-01
4.645600332e-01,7.82968e-01,9.99999e-01,9.99995e-01,7.82971e-01,9.99999e-01
4.668828333e-01,7.86712e-01,9.99999e-01,9.99933e-01,7.86764e-01,9.99999e-01
4.692172475e-01,7.90388e-01,9.99999e-01,9.99858e-01,7.90499e-01,9.99999e-01
4.715633337e-01,7.94106e-01,9.99999e-01,9.99907e-01,7.94179e-01,9.99999e-01
4.739211504e-01,7.97731e-01,9.99999e-01,9.99910e-01,7.97802e-01,9.99999e-01
4.762907561e-01,8.01333e-01,9.99999e-01,9.99953e-01,8.01370e-01,9.99999e-01
4.786722099e-01,8.04867e-01,9.99999e-01,9.99980e-01,8.04882e-01,9.99999e-01
4.810655710e-01,8.08336e-01,9.99999e-01,9.99993e-01,8.08341e-01,9.99999e-01
4.834708988e-01,8.11702e-01,9.99999e-01,9.99946e-01,8.11745e-01,9.99999e-01
4.858882533e-01,8.15014e-01,9.99999e-01,9.99899e-01,8.15096e-01,9.99999e-01
4.883176946e-01,8.18326e-01,9.99999e-01,9.99916e-01,8.18395e-01,9.99999e-01
4.907592831e-01,8.21578e-01,9.99999e-01,9.99923e-01,8.21641e-01,9.99999e-01
4.932130795e-01,8.24791e-01,9.99999e-01,9.99945e-01,8.24835e-01,9.99999e-01
4.956791449e-01,8.27955e-01,9.99999e-01,9.99971e-01,8.27979e-01,9.99999e-01
4.981575406e-01,8.30954e-01,9.99999e-01,9.99858e-01,8.31072e-01,9.99999e-01
5.006483283e-01,8.33808e-01,9.99999e-01,9.99634e-01,8.34115e-01,9.99997e-01
5.031515699e-01,8.35533e-01,9.99999e-01,9.98137e-01,8.37108e-01,9.99979e-01
5.056673278e-01,8.39207e-01,9.99999e-01,9.99013e-01,8.40054e-01,9.99977e-01
5.081956644e-01,8.41890e-01,9.99999e-01,9.98755e-01,8.42951e-01,9.99985e-01
5.107366428e-01,8.45087e-01,9.99999e-01,9.99158e-01,8.45800e-01,9.99996e-01
5.132903260e-01,8.48194e-01,9.99999e-01,9.99518e-01,8.48602e-01,9.99999e-01
5.158567776e-01,8.51185e-01,9.99999e-01,9.99796e-01,8.51359e-01,9.99999e-01
5.184360615e-01,8.54000e-01,9.99999e-01,9.99918e-01,8.54069e-01,9.99999e-01
5.210282418e-01,8.56708e-01,9.99999e-01,9.99969e-01,8.56734e-01,9.99999e-01
5.236333830e-01,8.59250e-01,9.99999e-01,9.99878e-01,8.59355e-01,9.99998e-01
5.262515499e-01,8.61865e-01,9.99999e-01,9.99923e-01,8.61932e-01,9.99998e-01
5.288828077e-01,8.64404e-01,9.99999e-01,9.99930e-01,8.64465e-01,9.99998e-01
5.315272217e-01,8.66902e-01,9.99999e-01,9.99937e-01,8.66956e-01,9.99999e-01
5.341848578e-01,8.69369e-01,9.99999e-01,9.99959e-01,8.69404e-01,9.99999e-01
5.368557821e-01,8.71687e-01,9.99999e-01,9.99858e-01,8.71810e-01,9.99999e-01
5.395400610e-01,8.73730e-01,9.99999e-01,9.99493e-01,8.74176e-01,9.99995e-01
5.422377613e-01,8.75910e-01,9.99999e-01,9.99337e-01,8.76501e-01,9.99987e-01
5.449489501e-01,8.78237e-01,9.99999e-01,9.99387e-01,8.78786e-01,9.99987e-01
5.476736949e-01,8.80546e-01,9.99999e-01,9.99453e-01,8.81032e-01,9.99993e-01
5.504120634e-01,8.82888e-01,9.99999e-01,9.99603e-01,8.83239e-01,9.99997e-01
5.531641237e-01,8.85231e-01,9.99999e-01,9.99800e-01,8.85408e-01,9.99999e-01
5.559299443e-01,8.87453e-01,9.99999e-01,9.99903e-01,8.87539e-01,9.99999e-01
5.587095940e-01,8.89579e-01,9.99999e-01,9.99939e-01,8.89633e-01,9.99999e-01
5.615031420e-01,8.91630e-01,9.99999e-01,9.99932e-01,8.91690e-01,9.99999e-01
5.643106577e-01,8.93644e-01,9.99999e-01,9.99924e-01,8.93711e-01,9.99998e-01
5.671322110e-01,8.94878e-01,9.99999e-01,9.99092e-01,8.95697e-01,9.99991e-01
5.699678720e-01,8.96738e-01,9.99999e-01,9.99010e-01,8.97648e-01,9.99974e-01
5.728177114e-01,8.98629e-01,9.99999e-01,9.98979e-01,8.99565e-01,9.99978e-01
5.756818000e-01,9.00591e-01,9.99999e-01,9.99061e-01,9.01447e-01,9.99986e-01
5.785602090e-01,9.02554e-01,9.99999e-01,9.99180e-01,9.03297e-01,9.99995e-01
5.814530100e-01,9.04369e-01,9.99999e-01,9.99178e-01,9.05113e-01,9.99997e-01
5.843602750e-01,9.06012e-01,9.99999e-01,9.99028e-01,9.06897e-01,9.99994e-01
5.872820764e-01,9.01004e-01,9.99999e-01,9.91644e-01,9.08650e-01,9.99940e-01
5.902184868e-01,9.00936e-01,9.99999e-01,9.89795e-01,9.10371e-01,9.99838e-01
5.931695792e-01,9.05356e-01,9.99999e-01,9.92804e-01,9.12061e-01,9.99842e-01
5.961354271e-01,9.06413e-01,9.99999e-01,9.92096e-01,9.13720e-01,9.99904e-01
5.991161043e-01,9.10039e-01,9.99999e-01,9.94224e-01,9.15350e-01,9.99971e-01
6.021116848e-01,9.13937e-01,9.99999e-01,9.96715e-01,9.16951e-01,9.99996e-01
6.051222432e-01,9.16995e-01,9.99999e-01,9.98336e-01,9.18523e-01,9.99999e-01
6.081478544e-01,9.19406e-01,9.99999e-01,9.99282e-01,9.20066e-01,9.99999e-01
6.111885937e-01,9.21301e-01,9.99999e-01,9.99695e-01,9.21581e-01,9.99999e-01
6.142445367e-01,9.22944e-01,9.99999e-01,9.99863e-01,9.23069e-01,9.99999e-01
6.173157594e-01,9.24461e-01,9.99999e-01,9.99924e-01,9.24530e-01,9.99999e-01
6.204023382e-01,9.25905e-01,9.99999e-01,9.99936e-01,9.25964e-01,9.99999e-01
6.235043498e-01,9.27117e-01,9.99999e-01,9.99726e-01,9.27372e-01,9.99998e-01
6.266218716e-01,9.27380e-01,9.99999e-01,9.98530e-01,9.28754e-01,9.99989e-01
6.297549810e-01,9.29590e-01,9.99999e-01,9.99460e-01,9.30111e-01,9.99978e-01
6.329037559e-01,9.30433e-01,9.99999e-01,9.98931e-01,9.31443e-01,9.99982e-01
6.360682746e-01,9.31896e-01,9.99999e-01,9.99093e-01,9.32750e-01,9.99989e-01
6.392486160e-01,9.32931e-01,9.99999e-01,9.98823e-01,9.34034e-01,9.99995e-01
6.424448591e-01,9.33826e-01,9.99999e-01,9.98437e-01,9.35294e-01,9.99992e-01
6.456570834e-01,9.29712e-01,9.99999e-01,9.92759e-01,9.36530e-01,9.99959e-01
6.488853688e-01,9.31754e-01,9.99999e-01,9.93724e-01,9.37744e-01,9.99886e-01
6.521297956e-01,9.33725e-01,9.99999e-01,9.94544e-01,9.38935e-01,9.99904e-01
6.553904446e-01,9.34971e-01,9.99999e-01,9.94610e-01,9.40105e-01,9.99928e-01
6.586673968e-01,9.36847e-01,9.99999e-01,9.95342e-01,9.41252e-01,9.99976e-01
6.619607338e-01,9.39836e-01,9.99999e-01,9.97305e-01,9.42379e-01,9.99994e-01
6.652705375e-01,9.42006e-01,9.99999e-01,9.98435e-01,9.43484e-01,9.99996e-01
6.685968902e-01,9.43883e-01,9.99999e-01,9.99273e-01,9.44569e-01,9.99999e-01
6.719398746e-01,9.45315e-01,9.99999e-01,9.99662e-01,9.45633e-01,9.99999e-01
6.752995740e-01,9.46506e-01,9.99999e-01,9.99817e-01,9.46678e-01,9.99999e-01
6.786760719e-01,9.47456e-01,9.99999e-01,9.99738e-01,9.47703e-01,9.99999e-01
6.820694522e-01,9.48282e-01,9.99999e-01,9.99551e-01,9.48709e-01,9.99997e-01
6.854797995e-01,9.49144e-01,9.99999e-01,9.99422e-01,9.49696e-01,9.99994e-01
6.889071985e-01,9.49343e-01,9.99999e-01,9.98620e-01,9.50665e-01,9.99987e-01
6.923517345e-01,9.30095e-01,9.99999e-01,9.77491e-01,9.51616e-01,9.99890e-01
6.958134932e-01,9.40917e-01,9.99999e-01,9.88033e-01,9.52548e-01,9.99752e-01
6.992925606e-01,9.42591e-01,9.99999e-01,9.88811e-01,9.53463e-01,9.99782e-01
7.027890234e-01,9.40945e-01,9.99999e-01,9.86106e-01,9.54361e-01,9.99832e-01
7.063029686e-01,9.44000e-01,9.99999e-01,9.88313e-01,9.55242e-01,9.99916e-01
7.098344834e-01,9.45336e-01,9.99999e-01,9.88782e-01,9.56107e-01,9.99950e-01
7.133836558e-01,9.42753e-01,9.99999e-01,9.85255e-01,9.56955e-01,9.99901e-01
7.169505741e-01,8.49327e-01,9.99999e-01,8.87441e-01,9.57787e-01,9.99231e-01
7.205353270e-01,9.02021e-01,9.99999e-01,9.42250e-01,9.58603e-01,9.98644e-01
7.241380036e-01,8.89344e-01,9.99999e-01,9.28061e-01,9.59404e-01,9.98829e-01
7.277586936e-01,8.96736e-01,9.99999e-01,9.34809e-01,9.60189e-01,9.99042e-01
7.313974871e-01,8.93605e-01,9.99999e-01,9.30324e-01,9.60960e-01,9.99551e-01
7.350544745e-01,9.24401e-01,9.99999e-01,9.61348e-01,9.61716e-01,9.99843e-01
7.387297469e-01,9.34837e-01,9.99999e-01,9.71370e-01,9.62458e-01,9.99928e-01
7.424233956e-01,9.49551e-01,9.99999e-01,9.85856e-01,9.63186e-01,9.99985e-01
7.461355126e-01,9.55626e-01,9.99999e-01,9.91418e-01,9.63900e-01,9.99997e-01
7.498661902e-01,9.60729e-01,9.99999e-01,9.95986e-01,9.64600e-01,9.99998e-01
7.536155211e-01,9.63390e-01,9.99999e-01,9.98034e-01,9.65287e-01,9.99998e-01
7.573835987e-01,9.64983e-01,9.99999e-01,9.98987e-01,9.65961e-01,9.99999e-01
7.611705167e-01,9.66014e-01,9.99999e-01,9.99370e-01,9.66622e-01,9.99999e-01
7.649763693e-01,9.66890e-01,9.99999e-01,9.99605e-01,9.67270e-01,9.99999e-01
7.688012511e-01,9.67641e-01,9.99999e-01,9.99725e-01,9.67906e-01,9.99999e-01
7.726452574e-01,9.68312e-01,9.99999e-01,9.99774e-01,9.68530e-01,9.99999e-01
7.765084837e-01,9.68834e-01,9.99999e-01,9.99681e-01,9.69142e-01,9.99999e-01
7.803910261e-01,9.68411e-01,9.99999e-01,9.98628e-01,9.69742e-01,9.99998e-01
7.842929812e-01,9.65684e-01,9.99999e-01,9.95219e-01,9.70331e-01,9.99990e-01
7.882144461e-01,9.61238e-01,9.99999e-01,9.90099e-01,9.70908e-01,9.99938e-01
7.921555184e-01,9.66054e-01,9.99999e-01,9.94536e-01,9.71475e-01,9.99882e-01
7.961162960e-01,9.62644e-01,9.99999e-01,9.90455e-01,9.72030e-01,9.99886e-01
8.000968774e-01,9.61687e-01,9.99999e-01,9.88923e-01,9.72575e-01,9.99879e-01
8.040973618e-01,9.62251e-01,9.99999e-01,9.88934e-01,9.73109e-01,9.99904e-01
8.081178486e-01,9.49588e-01,9.99999e-01,9.75390e-01,9.73633e-01,9.99910e-01
8.121584379e-01,8.77842e-01,9.99999e-01,9.01454e-01,9.74147e-01,9.99648e-01
8.162192301e-01,8.59766e-01,9.99999e-01,8.83290e-01,9.74651e-01,9.98681e-01
8.203003262e-01,9.16686e-01,9.99999e-01,9.41503e-01,9.75146e-01,9.98456e-01
8.244018279e-01,8.94496e-01,9.99999e-01,9.17965e-01,9.75631e-01,9.98770e-01
8.285238370e-01,9.05761e-01,9.99999e-01,9.28829e-01,9.76106e-01,9.99034e-01
8.326664562e-01,9.05799e-01,9.99999e-01,9.27898e-01,9.76573e-01,9.99600e-01
8.368297885e-01,9.25887e-01,9.99999e-01,9.47740e-01,9.77030e-01,9.99908e-01
8.410139374e-01,9.46722e-01,9.99999e-01,9.68586e-01,9.77478e-01,9.99946e-01
8.452190071e-01,9.62684e-01,9.99999e-01,9.84452e-01,9.77918e-01,9.99967e-01
8.494451021e-01,9.69499e-01,9.99999e-01,9.90978e-01,9.78350e-01,9.99973e-01
8.536923276e-01,9.73511e-01,9.99999e-01,9.94640e-01,9.78773e-01,9.99982e-01
8.579607893e-01,9.75958e-01,9.99999e-01,9.96705e-01,9.79188e-01,9.99994e-01
8.622505932e-01,9.77539e-01,9.99999e-01,9.97901e-01,9.79595e-01,9.99998e-01
8.665618462e-01,9.78725e-01,9.99999e-01,9.98705e-01,9.79994e-01,9.99999e-01
8.708946554e-01,9.78935e-01,9.99999e-01,9.98521e-01,9.80385e-01,9.99998e-01
8.752491287e-01,9.78825e-01,9.99999e-01,9.98020e-01,9.80768e-01,9.99997e-01
8.796253743e-01,9.78458e-01,9.99999e-01,9.97266e-01,9.81145e-01,9.99993e-01
8.840235012e-01,9.78429e-01,9.99999e-01,9.96876e-01,9.81514e-01,9.99980e-01
8.884436187e-01,9.70864e-01,9.99999e-01,9.88838e-01,9.81875e-01,9.99945e-01
8.928858368e-01,8.71822e-01,9.99999e-01,8.87872e-01,9.82230e-01,9.99686e-01
8.973502660e-01,7.93946e-01,9.99999e-01,8.09320e-01,9.82578e-01,9.98395e-01
9.018370173e-01,8.79509e-01,9.99999e-01,8.97053e-01,9.82919e-01,9.97479e-01
9.063462024e-01,8.92583e-01,9.99999e-01,9.09798e-01,9.83254e-01,9.97785e-01
9.108779334e-01,8.46308e-01,9.99999e-01,8.62418e-01,9.83582e-01,9.97698e-01
9.154323231e-01,8.29510e-01,9.99999e-01,8.44686e-01,9.83903e-01,9.98097e-01
9.200094847e-01,8.61412e-01,9.99999e-01,8.76156e-01,9.84219e-01,9.98934e-01
9.246095321e-01,8.05897e-01,9.99999e-01,8.19566e-01,9.84528e-01,9.98772e-01
9.292325798e-01,2.70085e-01,9.99999e-01,2.75561e-01,9.84831e-01,9.95222e-01
9.338787427e-01,1.81126e-01,9.99999e-01,1.87536e-01,9.85129e-01,9.80400e-01
9.385481364e-01,4.87289e-01,9.99999e-01,5.06278e-01,9.85420e-01,9.76732e-01
9.432408771e-01,3.88286e-01,9.99999e-01,4.01998e-01,9.85706e-01,9.79894e-01
9.479570815e-01,2.76593e-01,9.99999e-01,2.85199e-01,9.85987e-01,9.83605e-01
9.526968669e-01,3.70216e-01,9.99999e-01,3.79176e-01,9.86261e-01,9.89968e-01
9.574603512e-01,3.91430e-01,9.99999e-01,3.98811e-01,9.86531e-01,9.94891e-01
9.622476530e-01,4.60091e-01,9.99999e-01,4.67901e-01,9.86795e-01,9.96464e-01
9.670588912e-01,6.34047e-01,9.99999e-01,6.43920e-01,9.87054e-01,9.97580e-01
9.718941857e-01,7.45138e-01,9.99999e-01,7.56063e-01,9.87308e-01,9.98218e-01
9.767536566e-01,7.81763e-01,9.99999e-01,7.92691e-01,9.87558e-01,9.98638e-01
9.816374249e-01,8.30417e-01,9.99999e-01,8.41067e-01,9.87802e-01,9.99528e-01
9.865456120e-01,8.86468e-01,9.99999e-01,8.97285e-01,9.88041e-01,9.99901e-01
9.914783401e-01,9.24163e-01,9.99999e-01,9.35151e-01,9.88276e-01,9.99972e-01
9.964357318e-01,9.53039e-01,9.99999e-01,9.64135e-01,9.88506e-01,9.99983e-01
1.001417910e+00,9.67291e-01,9.99999e-01,9.78338e-01,9.88732e-01,9.99975e-01
1.006425000e+00,9.76672e-01,9.99999e-01,9.87614e-01,9.88953e-01,9.99964e-01
1.011457125e+00,9.81502e-01,9.99999e-01,9.92278e-01,9.89170e-01,9.99967e-01
1.016514411e+00,9.84176e-01,9.99999e-01,9.94758e-01,9.89383e-01,9.99976e-01
1.021596983e+00,9.85437e-01,9.99999e-01,9.95824e-01,9.89592e-01,9.99976e-01
1.026704968e+00,9.86559e-01,9.99999e-01,9.96743e-01,9.89796e-01,9.99984e-01
1.031838492e+00,9.87645e-01,9.99999e-01,9.97628e-01,9.89997e-01,9.99995e-01
1.036997685e+00,9.88800e-01,9.99999e-01,9.98593e-01,9.90193e-01,9.99998e-01
1.042182673e+00,9.88730e-01,9.99999e-01,9.98327e-01,9.90386e-01,9.99999e-01
1.047393587e+00,9.88376e-01,9.99999e-01,9.97779e-01,9.90575e-01,9.99999e-01
1.052630555e+00,9.87746e-01,9.99999e-01,9.96957e-01,9.90760e-01,9.99998e-01
1.057893707e+00,9.85919e-01,9.99999e-01,9.94932e-01,9.90942e-01,9.99997e-01
1.063183176e+00,9.82856e-01,9.99999e-01,9.91665e-01,9.91120e-01,9.99995e-01
1.068499092e+00,9.77474e-01,9.99999e-01,9.86067e-01,9.91295e-01,9.99990e-01
1.073841587e+00,9.75333e-01,9.99999e-01,9.83748e-01,9.91466e-01,9.99978e-01
1.079210795e+00,9.70907e-01,9.99999e-01,9.79152e-01,9.91634e-01,9.99943e-01
1.084606849e+00,9.60596e-01,9.99999e-01,9.68669e-01,9.91798e-01,9.99864e-01
1.090029883e+00,9.47614e-01,9.99999e-01,9.55561e-01,9.91960e-01,9.99720e-01
1.095480033e+00,8.75971e-01,9.99999e-01,8.83376e-01,9.92118e-01,9.99493e-01
1.100957433e+00,7.25023e-01,9.99999e-01,7.31349e-01,9.92273e-01,9.99069e-01
1.106462220e+00,4.56761e-01,9.99999e-01,4.60974e-01,9.92425e-01,9.98421e-01
1.111994531e+00,1.98774e-01,9.99999e-01,2.01102e-01,9.92574e-01,9.95816e-01
1.117554504e+00,7.74324e-02,9.99999e-01,7.91896e-02,9.92720e-01,9.84979e-01
1.123142276e+00,1.62717e-01,9.99999e-01,1.69875e-01,9.92863e-01,9.64747e-01
1.128757988e+00,2.86679e-01,9.99999e-01,3.00936e-01,9.93004e-01,9.59331e-01
1.134401778e+00,1.29143e-01,9.99999e-01,1.34707e-01,9.93141e-01,9.65312e-01
1.140073787e+00,4.60569e-01,9.99999e-01,4.76951e-01,9.93276e-01,9.72187e-01
1.145774156e+00,2.20708e-01,9.99999e-01,2.27983e-01,9.93409e-01,9.74511e-01
1.151503026e+00,1.92016e-01,9.99999e-01,1.96065e-01,9.93539e-01,9.85719e-01
1.157260541e+00,2.35887e-01,9.99999e-01,2.38413e-01,9.93666e-01,9.95708e-01
1.163046844e+00,3.40396e-01,9.99999e-01,3.42940e-01,9.93790e-01,9.98781e-01
1.168862078e+00,4.64736e-01,9.99999e-01,4.67876e-01,9.93913e-01,9.99371e-01
1.174706389e+00,6.21091e-01,9.99999e-01,6.25339e-01,9.94033e-01,9.99167e-01
1.180579921e+00,7.45057e-01,9.99999e-01,7.50384e-01,9.94150e-01,9.98741e-01
1.186482820e+00,8.43728e-01,9.99999e-01,8.49690e-01,9.94265e-01,9.98708e-01
1.192415234e+00,9.03253e-01,9.99999e-01,9.09238e-01,9.94378e-01,9.99032e-01
1.198377311e+00,9.17153e-01,9.99999e-01,9.23078e-01,9.94489e-01,9.99086e-01
1.204369197e+00,9.21371e-01,9.99999e-01,9.27141e-01,9.94598e-01,9.99173e-01
1.210391043e+00,9.24724e-01,9.99999e-01,9.30115e-01,9.94704e-01,9.99496e-01
1.216442998e+00,9.34960e-01,9.99999e-01,9.40128e-01,9.94808e-01,9.99691e-01
1.222525213e+00,9.48027e-01,9.99999e-01,9.53058e-01,9.94911e-01,9.99808e-01
1.228637839e+00,9.62270e-01,9.99999e-01,9.67181e-01,9.95011e-01,9.99910e-01
1.234781029e+00,9.70710e-01,9.99999e-01,9.75505e-01,9.95109e-01,9.99974e-01
1.240954934e+00,9.79728e-01,9.99999e-01,9.84454e-01,9.95205e-01,9.99992e-01
1.247159708e+00,9.83217e-01,9.99999e-01,9.87864e-01,9.95300e-01,9.99994e-01
1.253395507e+00,9.84669e-01,9.99999e-01,9.89232e-01,9.95392e-01,9.99993e-01
1.259662485e+00,9.85390e-01,9.99999e-01,9.89869e-01,9.95483e-01,9.99990e-01
1.265960797e+00,9.79392e-01,9.99999e-01,9.83763e-01,9.95572e-01,9.99983e-01
1.272290601e+00,9.71921e-01,9.99999e-01,9.76184e-01,9.95660e-01,9.99971e-01
1.278652054e+00,9.46273e-01,9.99999e-01,9.50362e-01,9.95745e-01,9.99949e-01
1.285045314e+00,9.19265e-01,9.99999e-01,9.23200e-01,9.95829e-01,9.99906e-01
1.291470541e+00,8.47882e-01,9.99999e-01,8.51501e-01,9.95911e-01,9.99836e-01
1.297927893e+00,8.07645e-01,9.99999e-01,8.11141e-01,9.95992e-01,9.99695e-01
1.304417533e+00,7.60428e-01,9.99999e-01,7.63918e-01,9.96071e-01,9.99356e-01
1.310939621e+00,7.31964e-01,9.99999e-01,7.35764e-01,9.96148e-01,9.98679e-01
1.317494319e+00,7.11306e-01,9.99999e-01,7.15748e-01,9.96224e-01,9.97559e-01
1.324081790e+00,6.05723e-01,9.99999e-01,6.10403e-01,9.96298e-01,9.96017e-01
1.330702199e+00,2.04922e-01,9.99999e-01,2.07087e-01,9.96371e-01,9.93143e-01
1.337355710e+00,1.07785e-02,9.99999e-01,1.09612e-02,9.96443e-01,9.86838e-01
1.344042489e+00,2.66021e-04,9.99999e-01,2.77820e-04,9.96513e-01,9.60881e-01
1.350762701e+00,1.85553e-10,9.99999e-01,2.13447e-10,9.96582e-01,8.72299e-01
1.357516515e+00,2.91949e-15,9.99999e-01,4.37418e-15,9.96649e-01,6.69678e-01
1.364304097e+00,7.28136e-10,9.99999e-01,1.47510e-09,9.96715e-01,4.95242e-01
1.371125618e+00,1.31672e-06,9.99999e-01,2.56223e-06,9.96780e-01,5.15554e-01
1.377981246e+00,4.92223e-06,9.99999e-01,8.71306e-06,9.96843e-01,5.66713e-01
1.384871152e+00,1.51697e-08,9.99999e-01,2.59790e-08,9.96906e-01,5.85731e-01
1.391795508e+00,8.72484e-10,9.99999e-01,1.45202e-09,9.96967e-01,6.02702e-01
1.398754485e+00,6.69626e-08,9.99999e-01,1.01879e-07,9.97027e-01,6.59234e-01
1.405748258e+00,9.12347e-08,9.99999e-01,1.16739e-07,9.97085e-01,7.83811e-01
1.412776999e+00,1.06070e-07,9.99999e-01,1.18888e-07,9.97143e-01,8.94746e-01
1.419840884e+00,2.34093e-07,9.99999e-01,2.46482e-07,9.97199e-01,9.52405e-01
1.426940089e+00,1.53393e-05,9.99999e-01,1.59620e-05,9.97254e-01,9.63630e-01
1.434074789e+00,1.24928e-04,9.99999e-01,1.30863e-04,9.97308e-01,9.57224e-01
1.441245163e+00,6.54235e-04,9.99999e-01,6.87774e-04,9.97361e-01,9.53751e-01
1.448451389e+00,6.26733e-03,9.99998e-01,6.54957e-03,9.97413e-01,9.59386e-01
1.455693646e+00,3.07683e-02,9.99999e-01,3.18579e-02,9.97464e-01,9.68253e-01
1.462972114e+00,4.47787e-02,9.99999e-01,4.62928e-02,9.97514e-01,9.69699e-01
1.470286975e+00,2.76421e-02,9.99999e-01,2.85604e-02,9.97563e-01,9.70208e-01
