#,Wave/freq,Total,N2,H2O,Rayleigh,CIA
4.000000000e-01,5.89020e-01,9.99999e-01,9.99939e-01,5.89055e-01,9.99999e-01
4.020000000e-01,5.95229e-01,9.99999e-01,9.99962e-01,5.95251e-01,9.99999e-01
4.040100000e-01,6.01373e-01,9.99999e-01,9.99983e-01,6.01382e-01,9.99999e-01
4.060300500e-01,6.07451e-01,9.99999e-01,9.99995e-01,6.07453e-01,9.99999e-01
4.080602003e-01,6.13463e-01,9.99999e-01,9.99998e-01,6.13464e-01,9.99999e-01
4.101005013e-01,6.19413e-01,9.99999e-01,9.99999e-01,6.19413e-01,9.99999e-01
4.121510038e-01,6.25300e-01,9.99999e-01,9.99997e-01,6.25302e-01,9.99999e-01
4.142117588e-01,6.31117e-01,9.99999e-01,9.99982e-01,6.31128e-01,9.99999e-01
4.162828176e-01,6.36844e-01,9.99999e-01,9.99925e-01,6.36891e-01,9.99999e-01
4.183642317e-01,6.42564e-01,9.99999e-01,9.99955e-01,6.42592e-01,9.99999e-01
4.204560528e-01,6.48213e-01,9.99999e-01,9.99972e-01,6.48230e-01,9.99999e-01
4.225583331e-01,6.53798e-01,9.99999e-01,9.99989e-01,6.53805e-01,9.99999e-01
4.246711247e-01,6.59310e-01,9.99999e-01,9.99991e-01,6.59316e-01,9.99999e-01
4.267944804e-01,6.64755e-01,9.99999e-01,9.99987e-01,6.64763e-01,9.99999e-01
4.289284528e-01,6.70140e-01,9.99999e-01,9.99990e-01,6.70146e-01,9.99999e-01
4.310730950e-01,6.75463e-01,9.99999e-01,9.99995e-01,6.75465e-01,9.99999e-01
4.332284605e-01,6.80720e-01,9.99999e-01,9.99998e-01,6.80721e-01,9.99999e-01
4.353946028e-01,6.85911e-01,9.99999e-01,9.99999e-01,6.85912e-01,9.99999e-01
4.375715758e-01,6.91033e-01,9.99999e-01,9.99992e-01,6.91039e-01,9.99999e-01
4.397594337e-01,6.96056e-01,9.99999e-01,9.99933e-01,6.96101e-01,9.99999e-01
4.419582309e-01,7.00866e-01,9.99999e-01,9.99665e-01,7.01100e-01,9.99999e-01
4.441680220e-01,7.05855e-01,9.99999e-01,9.99743e-01,7.06035e-01,9.99999e-01
4.463888621e-01,7.10716e-01,9.99999e-01,9.99731e-01,7.10906e-01,9.99999e-01
4.486208064e-01,7.15595e-01,9.99999e-01,9.99833e-01,7.15714e-01,9.99999e-01
4.508639105e-01,7.20402e-01,9.99999e-01,9.99921e-01,7.20458e-01,9.99999e-01
4.531182300e-01,7.25117e-01,9.99999e-01,9.99968e-01,7.25139e-01,9.99999e-01
4.553838212e-01,7.29742e-01,9.99999e-01,9.99978e-01,7.29757e-01,9.99999e-01
4.576607403e-01,7.34305e-01,9.99999e-01,9.99989e-01,7.34312e-01,9.99999e-01
4.599490440e-01,7.38800e-01,9.99999e-01,9.99992e-01,7.38805e-01,9.99999e-01
4.622487892e-01,7.43235e-01,9.99999e-01,9.99998e-01,7.43236e-01,9.99999e-01
4.645600332e-01,7.47602e-01,9.99999e-01,9.99994e-01,7.47605e-01,9.99999e-01
4.668828333e-01,7.51854e-01,9.99999e-01,9.99920e-01,7.51913e-01,9.99999e-01
4.692172475e-01,7.56033e-01,9.99999e-01,9.99831e-01,7.56160e-01,9.99999e-01
4.715633337e-01,7.60263e-01,9.99999e-01,9.99889e-01,7.60346e-01,9.99999e-01
4.739211504e-01,7.64392e-01,9.99999e-01,9.99894e-01,7.64472e-01,9.99999e-01
4.762907561e-01,7.68497e-01,9.99999e-01,9.99945e-01,7.68538e-01,9.99999e-01
4.786722099e-01,7.72528e-01,9.99999e-01,9.99977e-01,7.72545e-01,9.99999e-01
4.810655710e-01,7.76488e-01,9.99999e-01,9.99992e-01,7.76493e-01,9.99999e-01
4.834708988e-01,7.80332e-01,9.99999e-01,9.99933e-01,7.80383e-01,9.99999e-01
4.858882533e-01,7.84122e-01,9.99999e-01,9.99880e-01,7.84215e-01,9.99999e-01
4.883176946e-01,7.87910e-01,9.99999e-01,9.99899e-01,7.87989e-01,9.99999e-01
4.907592831e-01,7.91635e-01,9.99999e-01,9.99909e-01,7.91706e-01,9.99999e-01
4.932130795e-01,7.95317e-01,9.99999e-01,9.99935e-01,7.95367e-01,9.99999e-01
4.956791449e-01,7.98945e-01,9.99999e-01,9.99965e-01,7.98972e-01,9.99999e-01
4.981575406e-01,8.02386e-01,9.99999e-01,9.99830e-01,8.02522e-01,9.99999e-01
5.006483283e-01,8.05659e-01,9.99999e-01,9.99558e-01,8.06017e-01,9.99996e-01
5.031515699e-01,8.07640e-01,9.99999e-01,9.97777e-01,8.09458e-01,9.99976e-01
5.056673278e-01,8.11872e-01,9.99999e-01,9.98829e-01,8.12844e-01,9.99972e-01
5.081956644e-01,8.14961e-01,9.99999e-01,9.98524e-01,8.16178e-01,9.99983e-01
5.107366428e-01,8.18642e-01,9.99999e-01,9.99004e-01,8.19459e-01,9.99996e-01
5.132903260e-01,8.22221e-01,9.99999e-01,9.99431e-01,8.22689e-01,9.99999e-01
5.158567776e-01,8.25668e-01,9.99999e-01,9.99759e-01,8.25866e-01,9.99999e-01
5.184360615e-01,8.28914e-01,9.99999e-01,9.99903e-01,8.28993e-01,9.99999e-01
5.210282418e-01,8.32040e-01,9.99999e-01,9.99963e-01,8.32070e-01,9.99999e-01
5.236333830e-01,8.34975e-01,9.99999e-01,9.99854e-01,8.35097e-01,9.99998e-01
5.262515499e-01,8.37998e-01,9.99999e-01,9.99909e-01,8.38075e-01,9.99998e-01
5.288828077e-01,8.40933e-01,9.99999e-01,9.99916e-01,8.41004e-01,9.99998e-01
5.315272217e-01,8.43824e-01,9.99999e-01,9.99926e-01,8.43885e-01,9.99999e-01
5.341848578e-01,8.46679e-01,9.99999e-01,9.99951e-01,8.46720e-01,9.99999e-01
5.368557821e-01,8.49363e-01,9.99999e-01,9.99830e-01,8.49507e-01,9.99999e-01
5.395400610e-01,8.51720e-01,9.99999e-01,9.99385e-01,8.52248e-01,9.99993e-01
5.422377613e-01,8.54262e-01,9.99999e-01,9.99216e-01,8.54944e-01,9.99985e-01
5.449489501e-01,8.56953e-01,9.99999e-01,9.99266e-01,8.57594e-01,9.99984e-01
5.476736949e-01,8.59640e-01,9.99999e-01,9.99354e-01,8.60201e-01,9.99992e-01
5.504120634e-01,8.62357e-01,9.99999e-01,9.99531e-01,8.62763e-01,9.99997e-01
5.531641237e-01,8.65078e-01,9.99999e-01,9.99764e-01,8.65282e-01,9.99999e-01
5.559299443e-01,8.67660e-01,9.99999e-01,9.99885e-01,8.67759e-01,9.99999e-01
5.587095940e-01,8.70131e-01,9.99999e-01,9.99928e-01,8.70194e-01,9.99999e-01
5.615031420e-01,8.72517e-01,9.99999e-01,9.99919e-01,8.72587e-01,9.99999e-01
5.643106577e-01,8.74859e-01,9.99999e-01,9.99908e-01,8.74939e-01,9.99998e-01
5.671322110e-01,8.76265e-01,9.99999e-01,9.98885e-01,8.77251e-01,9.99989e-01
5.699678720e-01,8.78478e-01,9.99999e-01,9.98841e-01,8.79523e-01,9.99969e-01
5.728177114e-01,8.80661e-01,9.99999e-01,9.98782e-01,8.81756e-01,9.99974e-01
5.756818000e-01,8.82952e-01,9.99999e-01,9.98884e-01,8.83951e-01,9.99985e-01
5.785602090e-01,8.85243e-01,9.99999e-01,9.99029e-01,8.86107e-01,9.99995e-01
5.814530100e-01,8.87357e-01,9.99999e-01,9.99022e-01,8.88226e-01,9.99997e-01
5.843602750e-01,8.89260e-01,9.99999e-01,9.98828e-01,8.90308e-01,9.99993e-01
5.872820764e-01,8.83331e-01,9.99999e-01,9.89958e-01,8.92354e-01,9.99929e-01
5.902184868e-01,8.83391e-01,9.99999e-01,9.87920e-01,8.94363e-01,9.99807e-01
5.931695792e-01,8.88500e-01,9.99999e-01,9.91438e-01,8.96338e-01,9.99814e-01
5.961354271e-01,8.89767e-01,9.99999e-01,9.90630e-01,8.98277e-01,9.99893e-01
5.991161043e-01,8.94000e-01,9.99999e-01,9.93163e-01,9.00183e-01,9.99966e-01
6.021116848e-01,8.98551e-01,9.99999e-01,9.96119e-01,9.02055e-01,9.99995e-01
6.051222432e-01,9.02118e-01,9.99999e-01,9.98035e-01,9.03893e-01,9.99999e-01
6.081478544e-01,9.04931e-01,9.99999e-01,9.99151e-01,9.05699e-01,9.99999e-01
6.111885937e-01,9.07148e-01,9.99999e-01,9.99641e-01,9.07473e-01,9.99999e-01
6.142445367e-01,9.09069e-01,9.99999e-01,9.99839e-01,9.09215e-01,9.99999e-01
6.173157594e-01,9.10845e-01,9.99999e-01,9.99911e-01,9.10925e-01,9.99999e-01
6.204023382e-01,9.12537e-01,9.99999e-01,9.99924e-01,9.12606e-01,9.99999e-01
6.235043498e-01,9.13949e-01,9.99999e-01,9.99664e-01,9.14256e-01,9.99998e-01
6.266218716e-01,9.14263e-01,9.99999e-01,9.98250e-01,9.15876e-01,9.99987e-01
6.297549810e-01,9.16856e-01,9.99999e-01,9.99357e-01,9.17467e-01,9.99974e-01
6.329037559e-01,9.17849e-01,9.99999e-01,9.98734e-01,9.19029e-01,9.99979e-01
6.360682746e-01,9.19557e-01,9.99999e-01,9.98918e-01,9.20563e-01,9.99987e-01
6.392486160e-01,9.20775e-01,9.99999e-01,9.98600e-01,9.22070e-01,9.99994e-01
6.424448591e-01,9.21800e-01,9.99999e-01,9.98115e-01,9.23548e-01,9.99990e-01
6.456570834e-01,9.16888e-01,9.99999e-01,9.91281e-01,9.25000e-01,9.99946e-01
6.488853688e-01,9.20436e-01,9.99999e-01,9.93668e-01,9.26426e-01,9.99864e-01
6.521297956e-01,9.21737e-01,9.99999e-01,9.93548e-01,9.27825e-01,9.99888e-01
6.553904446e-01,9.23129e-01,9.99999e-01,9.93548e-01,9.29199e-01,9.99916e-01
6.586673968e-01,9.25399e-01,9.99999e-01,9.94493e-01,9.30548e-01,9.99971e-01
6.619607338e-01,9.29005e-01,9.99999e-01,9.96928e-01,9.31872e-01,9.99993e-01
6.652705375e-01,9.31448e-01,9.99999e-01,9.98155e-01,9.33172e-01,9.99996e-01
6.685968902e-01,9.33715e-01,9.99999e-01,9.99216e-01,9.34447e-01,9.99999e-01
6.719398746e-01,9.35329e-01,9.99999e-01,9.99602e-01,9.35700e-01,9.99999e-01
6.752995740e-01,9.36733e-01,9.99999e-01,9.99790e-01,9.36929e-01,9.99999e-01
6.786760719e-01,9.37841e-01,9.99999e-01,9.99685e-01,9.38135e-01,9.99999e-01
6.820694522e-01,9.38815e-01,9.99999e-01,9.99465e-01,9.39319e-01,9.99996e-01
6.854797995e-01,9.39828e-01,9.99999e-01,9.99310e-01,9.40482e-01,9.99993e-01
6.889071985e-01,9.40020e-01,9.99999e-01,9.98312e-01,9.41622e-01,9.99984e-01
6.923517345e-01,9.17182e-01,9.99999e-01,9.73013e-01,9.42742e-01,9.99869e-01
6.958134932e-01,9.30471e-01,9.99999e-01,9.86119e-01,9.43840e-01,9.99711e-01
6.992925606e-01,9.31991e-01,9.99999e-01,9.86574e-01,9.44918e-01,9.99739e-01
7.027890234e-01,9.30232e-01,9.99999e-01,9.83551e-01,9.45976e-01,9.99801e-01
7.063029686e-01,9.33796e-01,9.99999e-01,9.86138e-01,9.47015e-01,9.99900e-01
7.098344834e-01,9.35366e-01,9.99999e-01,9.86694e-01,9.48034e-01,9.99941e-01
7.133836558e-01,9.31992e-01,9.99999e-01,9.82157e-01,9.49033e-01,9.99883e-01
7.169505741e-01,8.22782e-01,9.99999e-01,8.66864e-01,9.50014e-01,9.99085e-01
7.205353270e-01,8.86047e-01,9.99999e-01,9.33226e-01,9.50977e-01,9.98388e-01
7.241380036e-01,8.69628e-01,9.99999e-01,9.14822e-01,9.51922e-01,9.98607e-01
7.277586936e-01,8.78372e-01,9.99999e-01,9.22887e-01,9.52849e-01,9.98861e-01
7.313974871e-01,8.75470e-01,9.99999e-01,9.18405e-01,9.53758e-01,9.99466e-01
7.350544745e-01,9.10999e-01,9.99999e-01,9.54451e-01,9.54651e-01,9.99814e-01
7.387297469e-01,9.23207e-01,9.99999e-01,9.66257e-01,9.55526e-01,9.99914e-01
7.424233956e-01,9.40466e-01,9.99999e-01,9.83368e-01,9.56385e-01,9.99984e-01
7.461355126e-01,9.47535e-01,9.99999e-01,9.89876e-01,9.57228e-01,9.99996e-01
7.498661902e-01,9.53537e-01,9.99999e-01,9.95285e-01,9.58055e-01,9.99998e-01
7.536155211e-01,9.56641e-01,9.99999e-01,9.97679e-01,9.58866e-01,9.99998e-01
7.573835987e-01,9.58515e-01,9.99999e-01,9.98805e-01,9.59662e-01,9.99999e-01
7.611705167e-01,9.59730e-01,9.99999e-01,9.99257e-01,9.60443e-01,9.99999e-01
7.649763693e-01,9.60761e-01,9.99999e-01,9.99533e-01,9.61209e-01,9.99999e-01
7.688012511e-01,9.61648e-01,9.99999e-01,9.99674e-01,9.61960e-01,9.99999e-01
7.726452574e-01,9.62440e-01,9.99999e-01,9.99732e-01,9.62697e-01,9.99999e-01
7.765084837e-01,9.63052e-01,9.99999e-01,9.99617e-01,9.63420e-01,9.99999e-01
7.803910261e-01,9.62534e-01,9.99999e-01,9.98346e-01,9.64130e-01,9.99997e-01
7.842929812e-01,9.59257e-01,9.99999e-01,9.94237e-01,9.64826e-01,9.99988e-01
7.882144461e-01,9.54078e-01,9.99999e-01,9.88240e-01,9.65508e-01,9.99918e-01
7.921555184e-01,9.59825e-01,9.99999e-01,9.93564e-01,9.66178e-01,9.99858e-01
7.961162960e-01,9.55635e-01,9.99999e-01,9.88548e-01,9.66835e-01,9.99865e-01
8.000968774e-01,9.54608e-01,9.99999e-01,9.86836e-01,9.67479e-01,9.99857e-01
8.040973618e-01,9.55248e-01,9.99999e-01,9.86820e-01,9.68111e-01,9.99890e-01
8.081178486e-01,9.39984e-01,9.99999e-01,9.70431e-01,9.68731e-01,9.99889e-01
8.121584379e-01,8.55624e-01,9.99999e-01,8.83056e-01,9.69339e-01,9.99582e-01
8.162192301e-01,8.36685e-01,9.99999e-01,8.63973e-01,9.69935e-01,9.98431e-01
8.203003262e-01,9.00749e-01,9.99999e-01,9.29815e-01,9.70520e-01,9.98164e-01
8.244018279e-01,8.78194e-01,9.99999e-01,9.05657e-01,9.71094e-01,9.98538e-01
8.285238370e-01,8.88772e-01,9.99999e-01,9.15748e-01,9.71657e-01,9.98851e-01
8.326664562e-01,8.89385e-01,9.99999e-01,9.15242e-01,9.72209e-01,9.99524e-01
8.368297885e-01,9.12888e-01,9.99999e-01,9.38561e-01,9.72750e-01,9.99891e-01
8.410139374e-01,9.37223e-01,9.99999e-01,9.63012e-01,9.73281e-01,9.99936e-01
8.452190071e-01,9.55944e-01,9.99999e-01,9.81698e-01,9.73802e-01,9.99961e-01
8.494451021e-01,9.63867e-01,9.99999e-01,9.89308e-01,9.74313e-01,9.99969e-01
8.536923276e-01,9.68637e-01,9.99999e-01,9.93681e-01,9.74814e-01,9.99981e-01
8.579607893e-01,9.71493e-01,9.99999e-01,9.96095e-01,9.75305e-01,9.99995e-01
8.622505932e-01,9.73369e-01,9.99999e-01,9.97522e-01,9.75787e-01,9.99998e-01
8.665618462e-01,9.74759e-01,9.99999e-01,9.98462e-01,9.76259e-01,9.99999e-01
8.708946554e-01,9.75000e-01,9.99999e-01,9.98236e-01,9.76723e-01,9.99998e-01
8.752491287e-01,9.74872e-01,9.99999e-01,9.97643e-01,9.77177e-01,9.99997e-01
8.796253743e-01,9.74419e-01,9.99999e-01,9.96729e-01,9.77623e-01,9.99992e-01
8.840235012e-01,9.74388e-01,9.99999e-01,9.96267e-01,9.78060e-01,9.99976e-01
8.884436187e-01,9.65020e-01,9.99999e-01,9.86297e-01,9.78489e-01,9.99935e-01
8.928858368e-01,8.48229e-01,9.99999e-01,8.66826e-01,9.78909e-01,9.99627e-01
8.973502660e-01,7.61242e-01,9.99999e-01,7.78800e-01,9.79321e-01,9.98092e-01
9.018370173e-01,8.60505e-01,9.99999e-01,8.80951e-01,9.79726e-01,9.97002e-01
9.063462024e-01,8.72770e-01,9.99999e-01,8.92821e-01,9.80122e-01,9.97366e-01
9.108779334e-01,8.20062e-01,9.99999e-01,8.38656e-01,9.80511e-01,9.97263e-01
9.154323231e-01,8.01167e-01,9.99999e-01,8.18625e-01,9.80892e-01,9.97737e-01
9.200094847e-01,8.38455e-01,9.99999e-01,8.55545e-01,9.81266e-01,9.98733e-01
9.246095321e-01,7.70689e-01,9.99999e-01,7.86256e-01,9.81632e-01,9.98540e-01
9.292325798e-01,2.14952e-01,9.99999e-01,2.20442e-01,9.81992e-01,9.92974e-01
9.338787427e-01,1.38145e-01,9.99999e-01,1.44258e-01,9.82345e-01,9.74837e-01
9.385481364e-01,4.34483e-01,9.99999e-01,4.54690e-01,9.82690e-01,9.72388e-01
9.432408771e-01,3.30366e-01,9.99999e-01,3.44285e-01,9.83029e-01,9.76133e-01
9.479570815e-01,2.22071e-01,9.99999e-01,2.30311e-01,9.83362e-01,9.80532e-01
9.526968669e-01,3.13296e-01,9.99999e-01,3.22333e-01,9.83687e-01,9.88080e-01
9.574603512e-01,3.32977e-01,9.99999e-01,3.40456e-01,9.84007e-01,9.93927e-01
9.622476530e-01,4.03114e-01,9.99999e-01,4.11264e-01,9.84320e-01,9.95796e-01
9.670588912e-01,5.85263e-01,9.99999e-01,5.96115e-01,9.84628e-01,9.97123e-01
9.718941857e-01,7.05776e-01,9.99999e-01,7.18095e-01,9.84929e-01,9.97881e-01
9.767536566e-01,7.46869e-01,9.99999e-01,7.59299e-01,9.85225e-01,9.98380e-01
9.816374249e-01,8.02781e-01,9.99999e-01,8.15037e-01,9.85514e-01,9.99439e-01
9.865456120e-01,8.67189e-01,9.99999e-01,8.79784e-01,9.85798e-01,9.99882e-01
9.914783401e-01,9.10827e-01,9.99999e-01,9.23717e-01,9.86077e-01,9.99967e-01
9.964357318e-01,9.44622e-01,9.99999e-01,9.57712e-01,9.86350e-01,9.99980e-01
1.001417910e+00,9.61367e-01,9.99999e-01,9.74434e-01,9.86618e-01,9.99970e-01
1.006425000e+00,9.72352e-01,9.99999e-01,9.85319e-01,9.86880e-01,9.99958e-01
1.011457125e+00,9.78101e-01,9.99999e-01,9.90882e-01,9.87138e-01,9.99961e-01
1.016514411e+00,9.81237e-01,9.99999e-01,9.93794e-01,9.87390e-01,9.99972e-01
1.021596983e+00,9.82723e-01,9.99999e-01,9.95049e-01,9.87638e-01,9.99973e-01
1.026704968e+00,9.84047e-01,9.99999e-01,9.96135e-01,9.87880e-01,9.99982e-01
1.031838492e+00,9.85342e-01,9.99999e-01,9.97194e-01,9.88118e-01,9.99994e-01
1.036997685e+00,9.86701e-01,9.99999e-01,9.98330e-01,9.88352e-01,9.99998e-01
1.042182673e+00,9.86607e-01,9.99999e-01,9.98003e-01,9.88580e-01,9.99999e-01
1.047393587e+00,9.86191e-01,9.99999e-01,9.97357e-01,9.88805e-01,9.99999e-01
1.052630555e+00,9.85435e-01,9.99999e-01,9.96371e-01,9.89025e-01,9.99998e-01
1.057893707e+00,9.83245e-01,9.99999e-01,9.93941e-01,9.89240e-01,9.99997e-01
1.063183176e+00,9.79610e-01,9.99999e-01,9.90057e-01,9.89452e-01,9.99994e-01
1.068499092e+00,9.73247e-01,9.99999e-01,9.83427e-01,9.89659e-01,9.99988e-01
1.073841587e+00,9.70653e-01,9.99999e-01,9.80617e-01,9.89862e-01,9.99974e-01
1.079210795e+00,9.65523e-01,9.99999e-01,9.75280e-01,9.90061e-01,9.99932e-01
1.084606849e+00,9.53257e-01,9.99999e-01,9.62790e-01,9.90257e-01,9.99839e-01
1.090029883e+00,9.37466e-01,9.99999e-01,9.46821e-01,9.90448e-01,9.99667e-01
1.095480033e+00,8.53364e-01,9.99999e-01,8.61947e-01,9.90636e-01,9.99398e-01
1.100957433e+00,6.80862e-01,9.99999e-01,6.87931e-01,9.90820e-01,9.98893e-01
1.106462220e+00,3.93736e-01,9.99999e-01,3.98058e-01,9.91000e-01,9.98123e-01
1.111994531e+00,1.49526e-01,9.99999e-01,1.51611e-01,9.91177e-01,9.95026e-01
1.117554504e+00,5.03661e-02,9.99999e-01,5.17282e-02,9.91351e-01,9.82161e-01
1.123142276e+00,1.23973e-01,9.99999e-01,1.30485e-01,9.91521e-01,9.58214e-01
1.128757988e+00,2.31011e-01,9.99999e-01,2.44739e-01,9.91688e-01,9.51820e-01
1.134401778e+00,1.05626e-01,9.99999e-01,1.11060e-01,9.91851e-01,9.58882e-01
1.140073787e+00,3.99783e-01,9.99999e-01,4.16751e-01,9.92012e-01,9.67009e-01
1.145774156e+00,1.72258e-01,9.99999e-01,1.79031e-01,9.92169e-01,9.69759e-01
1.151503026e+00,1.45804e-01,9.99999e-01,1.49467e-01,9.92323e-01,9.83038e-01
1.157260541e+00,1.82673e-01,9.99999e-01,1.85001e-01,9.92474e-01,9.94897e-01
1.163046844e+00,2.82150e-01,9.99999e-01,2.84660e-01,9.92622e-01,9.98550e-01
1.168862078e+00,4.05220e-01,9.99999e-01,4.08477e-01,9.92767e-01,9.99253e-01
1.174706389e+00,5.69898e-01,9.99999e-01,5.74536e-01,9.92909e-01,9.99010e-01
1.180579921e+00,7.06440e-01,9.99999e-01,7.12450e-01,9.93049e-01,9.98503e-01
1.186482820e+00,8.17699e-01,9.99999e-01,8.24574e-01,9.93186e-01,9.98464e-01
1.192415234e+00,8.86246e-01,9.99999e-01,8.93232e-01,9.93320e-01,9.98849e-01
1.198377311e+00,9.02210e-01,9.99999e-01,9.09143e-01,9.93451e-01,9.98913e-01
1.204369197e+00,9.07317e-01,9.99999e-01,9.14076e-01,9.93580e-01,9.99016e-01
1.210391043e+00,9.11243e-01,9.99999e-01,9.17562e-01,9.93707e-01,9.99401e-01
1.216442998e+00,9.23469e-01,9.99999e-01,9.29542e-01,9.93831e-01,9.99633e-01
1.222525213e+00,9.38670e-01,9.99999e-01,9.44596e-01,9.93952e-01,9.99772e-01
1.228637839e+00,9.55365e-01,9.99999e-01,9.61164e-01,9.94071e-01,9.99893e-01
1.234781029e+00,9.65375e-01,9.99999e-01,9.71047e-01,9.94188e-01,9.99969e-01
1.240954934e+00,9.75980e-01,9.99999e-01,9.81580e-01,9.94302e-01,9.99991e-01
1.247159708e+00,9.80125e-01,9.99999e-01,9.85635e-01,9.94415e-01,9.99994e-01
1.253395507e+00,9.81810e-01,9.99999e-01,9.87222e-01,9.94525e-01,9.99992e-01
1.259662485e+00,9.82524e-01,9.99999e-01,9.87836e-01,9.94632e-01,9.99988e-01
1.265960797e+00,9.75493e-01,9.99999e-01,9.80670e-01,9.94738e-01,9.99980e-01
1.272290601e+00,9.64698e-01,9.99999e-01,9.69732e-01,9.94842e-01,9.99966e-01
1.278652054e+00,9.36023e-01,9.99999e-01,9.40835e-01,9.94943e-01,9.99940e-01
1.285045314e+00,8.90893e-01,9.99999e-01,8.95429e-01,9.95043e-01,9.99889e-01
1.291470541e+00,8.20924e-01,9.99999e-01,8.25091e-01,9.95141e-01,9.99806e-01
1.297927893e+00,7.57516e-01,9.99999e-01,7.61415e-01,9.95236e-01,9.99638e-01
1.304417533e+00,7.22723e-01,9.99999e-01,7.26669e-01,9.95330e-01,9.99234e-01
1.310939621e+00,6.64017e-01,9.99999e-01,6.68119e-01,9.95422e-01,9.98429e-01
1.317494319e+00,6.68706e-01,9.99999e-01,6.73674e-01,9.95512e-01,9.97097e-01
1.324081790e+00,5.52252e-01,9.99999e-01,5.57330e-01,9.95601e-01,9.95265e-01
1.330702199e+00,1.60673e-01,9.99999e-01,1.62694e-01,9.95688e-01,9.91851e-01
1.337355710e+00,5.13409e-03,9.99999e-01,5.23777e-03,9.95773e-01,9.84366e-01
1.344042489e+00,1.06792e-04,9.99999e-01,1.12448e-04,9.95856e-01,9.53649e-01
1.350762701e+00,4.30505e-12,9.99999e-01,5.08527e-12,9.95938e-01,8.50025e-01
1.357516515e+00,8.75733e-18,9.99999e-01,1.41646e-17,9.96018e-01,6.20723e-01
1.364304097e+00,2.21847e-11,9.99999e-01,5.13704e-11,9.96096e-01,4.33549e-01
1.371125618e+00,1.76132e-07,9.99999e-01,3.88779e-07,9.96173e-01,4.54778e-01
1.377981246e+00,6.38359e-07,9.99999e-01,1.25901e-06,9.96248e-01,5.08941e-01
1.384871152e+00,9.80023e-10,9.99999e-01,1.84573e-09,9.96322e-01,5.32926e-01
1.391795508e+00,2.44528e-11,9.99999e-01,4.47138e-11,9.96395e-01,5.48851e-01
1.398754485e+00,4.98531e-09,9.99999e-01,8.21203e-09,9.96466e-01,6.09226e-01
1.405748258e+00,6.43875e-09,9.99999e-01,8.63227e-09,9.96536e-01,7.48484e-01
1.412776999e+00,9.01738e-09,9.99999e-01,1.03277e-08,9.96604e-01,8.76103e-01
1.419840884e+00,1.89901e-08,9.99999e-01,2.01913e-08,9.96671e-01,9.43652e-01
1.426940089e+00,3.43366e-06,9.99999e-01,3.60008e-06,9.96737e-01,9.56894e-01
1.434074789e+00,3.09514e-05,9.99999e-01,3.27078e-05,9.96801e-01,9.49334e-01
1.441245163e+00,2.00186e-04,9.99999e-01,2.12450e-04,9.96864e-01,9.45238e-01
1.448451389e+00,2.87154e-03,9.99998e-01,3.02598e-03,9.96926e-01,9.51884e-01
1.455693646e+00,1.82979e-02,9.99999e-01,1.90711e-02,9.96986e-01,9.62357e-01
1.462972114e+00,2.64649e-02,9.99999e-01,2.75326e-02,9.97046e-01,9.64067e-01
1.470286975e+00,1.53400e-02,9.99999e-01,1.59480e-02,9.97104e-01,9.64668e-01
