#,Wave/freq,Total,N2,H2O,Rayleigh,CIA
4.000000000e-01,7.37238e-01,9.99999e-01,9.99965e-01,7.37264e-01,9.99999e-01
4.020000000e-01,7.41705e-01,9.99999e-01,9.99978e-01,7.41721e-01,9.99999e-01
4.040100000e-01,7.46104e-01,9.99999e-01,9.99990e-01,7.46111e-01,9.99999e-01
4.060300500e-01,7.50438e-01,9.99999e-01,9.99997e-01,7.50440e-01,9.99999e-01
4.080602003e-01,7.54707e-01,9.99999e-01,9.99998e-01,7.54707e-01,9.99999e-01
4.101005013e-01,7.58914e-01,9.99999e-01,9.99999e-01,7.58914e-01,9.99999e-01
4.121510038e-01,7.63060e-01,9.99999e-01,9.99998e-01,7.63061e-01,9.99999e-01
4.142117588e-01,7.67141e-01,9.99999e-01,9.99990e-01,7.67148e-01,9.99999e-01
4.162828176e-01,7.71142e-01,9.99999e-01,9.99956e-01,7.71175e-01,9.99999e-01
4.183642317e-01,7.75124e-01,9.99999e-01,9.99974e-01,7.75143e-01,9.99999e-01
4.204560528e-01,7.79041e-01,9.99999e-01,9.99983e-01,7.79053e-01,9.99999e-01
4.225583331e-01,7.82900e-01,9.99999e-01,9.99993e-01,7.82904e-01,9.99999e-01
4.246711247e-01,7.86695e-01,9.99999e-01,9.99994e-01,7.86698e-01,9.99999e-01
4.267944804e-01,7.90430e-01,9.99999e-01,9.99992e-01,7.90435e-01,9.99999e-01
4.289284528e-01,7.94111e-01,9.99999e-01,9.99994e-01,7.94116e-01,9.99999e-01
4.310730950e-01,7.97738e-01,9.99999e-01,9.99997e-01,7.97740e-01,9.99999e-01
4.332284605e-01,8.01308e-01,9.99999e-01,9.99998e-01,8.01308e-01,9.99999e-01
4.353946028e-01,8.04822e-01,9.99999e-01,9.99999e-01,8.04822e-01,9.99999e-01
4.375715758e-01,8.08278e-01,9.99999e-01,9.99995e-01,8.08281e-01,9.99999e-01
4.397594337e-01,8.11656e-01,9.99999e-01,9.99962e-01,8.11687e-01,9.99999e-01
4.419582309e-01,8.14885e-01,9.99999e-01,9.99810e-01,8.15039e-01,9.99999e-01
4.441680220e-01,8.18216e-01,9.99999e-01,9.99851e-01,8.18338e-01,9.99999e-01
4.463888621e-01,8.21458e-01,9.99999e-01,9.99845e-01,8.21585e-01,9.99999e-01
4.486208064e-01,8.24701e-01,9.99999e-01,9.99903e-01,8.24780e-01,9.99999e-01
4.508639105e-01,8.27887e-01,9.99999e-01,9.99954e-01,8.27925e-01,9.99999e-01
4.531182300e-01,8.31004e-01,9.99999e-01,9.99981e-01,8.31018e-01,9.99999e-01
4.553838212e-01,8.34052e-01,9.99999e-01,9.99987e-01,8.34062e-01,9.99999e-01
4.576607403e-01,8.37052e-01,9.99999e-01,9.99993e-01,8.37057e-01,9.99999e-01
4.599490440e-01,8.40000e-01,9.99999e-01,9.99995e-01,8.40003e-01,9.99999e-01
4.622487892e-01,8.42900e-01,9.99999e-01,9.99998e-01,8.42901e-01,9.99999e-01
4.645600332e-01,8.45749e-01,9.99999e-01,9.99996e-01,8.45751e-01,9.99999e-01
4.668828333e-01,8.48516e-01,9.99999e-01,9.99954e-01,8.48554e-01,9.99999e-01
4.692172475e-01,8.51229e-01,9.99999e-01,9.99902e-01,8.51311e-01,9.99999e-01
4.715633337e-01,8.53969e-01,9.99999e-01,9.99936e-01,8.54023e-01,9.99999e-01
4.739211504e-01,8.56637e-01,9.99999e-01,9.99938e-01,8.56689e-01,9.99999e-01
4.762907561e-01,8.59283e-01,9.99999e-01,9.99968e-01,8.59310e-01,9.99999e-01
4.786722099e-01,8.61876e-01,9.99999e-01,9.99986e-01,8.61887e-01,9.99999e-01
4.810655710e-01,8.64418e-01,9.99999e-01,9.99995e-01,8.64422e-01,9.99999e-01
4.834708988e-01,8.66881e-01,9.99999e-01,9.99962e-01,8.66913e-01,9.99999e-01
4.858882533e-01,8.69302e-01,9.99999e-01,9.99930e-01,8.69362e-01,9.99999e-01
4.883176946e-01,8.71719e-01,9.99999e-01,9.99942e-01,8.71769e-01,9.99999e-01
4.907592831e-01,8.74090e-01,9.99999e-01,9.99947e-01,8.74135e-01,9.99999e-01
4.932130795e-01,8.76429e-01,9.99999e-01,9.99962e-01,8.76461e-01,9.99999e-01
4.956791449e-01,8.78730e-01,9.99999e-01,9.99980e-01,8.78747e-01,9.99999e-01
4.981575406e-01,8.80908e-01,9.99999e-01,9.99902e-01,8.80993e-01,9.99999e-01
5.006483283e-01,8.82977e-01,9.99999e-01,9.99748e-01,8.83201e-01,9.99997e-01
5.031515699e-01,8.84228e-01,9.99999e-01,9.98722e-01,8.85370e-01,9.99986e-01
5.056673278e-01,8.86890e-01,9.99999e-01,9.99324e-01,8.87502e-01,9.99984e-01
5.081956644e-01,8.88831e-01,9.99999e-01,9.99148e-01,8.89597e-01,9.99989e-01
5.107366428e-01,8.91140e-01,9.99999e-01,9.99424e-01,8.91655e-01,9.99997e-01
5.132903260e-01,8.93383e-01,9.99999e-01,9.99670e-01,8.93677e-01,9.99999e-01
5.158567776e-01,8.95539e-01,9.99999e-01,9.99860e-01,8.95663e-01,9.99999e-01
5.184360615e-01,8.97565e-01,9.99999e-01,9.99943e-01,8.97615e-01,9.99999e-01
5.210282418e-01,8.99513e-01,9.99999e-01,9.99978e-01,8.99532e-01,9.99999e-01
5.236333830e-01,9.01340e-01,9.99999e-01,9.99916e-01,9.01415e-01,9.99998e-01
5.262515499e-01,9.03217e-01,9.99999e-01,9.99947e-01,9.03265e-01,9.99998e-01
5.288828077e-01,9.05038e-01,9.99999e-01,9.99951e-01,9.05082e-01,9.99998e-01
5.315272217e-01,9.06828e-01,9.99999e-01,9.99957e-01,9.06867e-01,9.99999e-01
5.341848578e-01,9.08595e-01,9.99999e-01,9.99972e-01,9.08619e-01,9.99999e-01
5.368557821e-01,9.10253e-01,9.99999e-01,9.99902e-01,9.10341e-01,9.99999e-01
5.395400610e-01,9.11711e-01,9.99999e-01,9.99650e-01,9.12032e-01,9.99996e-01
5.422377613e-01,9.13271e-01,9.99999e-01,9.99546e-01,9.13692e-01,9.99991e-01
5.449489501e-01,9.14930e-01,9.99999e-01,9.99579e-01,9.15322e-01,9.99991e-01
5.476736949e-01,9.16578e-01,9.99999e-01,9.99626e-01,9.16923e-01,9.99995e-01
5.504120634e-01,9.18246e-01,9.99999e-01,9.99728e-01,9.18496e-01,9.99998e-01
5.531641237e-01,9.19914e-01,9.99999e-01,9.99863e-01,9.20039e-01,9.99999e-01
5.559299443e-01,9.21495e-01,9.99999e-01,9.99933e-01,9.21555e-01,9.99999e-01
5.587095940e-01,9.23005e-01,9.99999e-01,9.99958e-01,9.23043e-01,9.99999e-01
5.615031420e-01,9.24462e-01,9.99999e-01,9.99953e-01,9.24505e-01,9.99999e-01
5.643106577e-01,9.25891e-01,9.99999e-01,9.99947e-01,9.25939e-01,9.99999e-01
5.671322110e-01,9.26759e-01,9.99999e-01,9.99370e-01,9.27347e-01,9.99993e-01
5.699678720e-01,9.28088e-01,9.99999e-01,9.99325e-01,9.28730e-01,9.99982e-01
5.728177114e-01,9.29424e-01,9.99999e-01,9.99300e-01,9.30087e-01,9.99985e-01
5.756818000e-01,9.30813e-01,9.99999e-01,9.99357e-01,9.31420e-01,9.99990e-01
5.785602090e-01,9.32203e-01,9.99999e-01,9.99439e-01,9.32728e-01,9.99996e-01
5.814530100e-01,9.33485e-01,9.99999e-01,9.99437e-01,9.34012e-01,9.99998e-01
5.843602750e-01,9.34643e-01,9.99999e-01,9.99330e-01,9.35272e-01,9.99995e-01
5.872820764e-01,9.31081e-01,9.99999e-01,9.94243e-01,9.36509e-01,9.99958e-01
5.902184868e-01,9.31064e-01,9.99999e-01,9.93007e-01,9.37723e-01,9.99888e-01
5.931695792e-01,9.34180e-01,9.99999e-01,9.95061e-01,9.38915e-01,9.99893e-01
5.961354271e-01,9.34936e-01,9.99999e-01,9.94583e-01,9.40085e-01,9.99938e-01
5.991161043e-01,9.37494e-01,9.99999e-01,9.96046e-01,9.41233e-01,9.99980e-01
6.021116848e-01,9.40241e-01,9.99999e-01,9.97753e-01,9.42359e-01,9.99997e-01
6.051222432e-01,9.42392e-01,9.99999e-01,9.98862e-01,9.43465e-01,9.99999e-01
6.081478544e-01,9.44087e-01,9.99999e-01,9.99509e-01,9.44550e-01,9.99999e-01
6.111885937e-01,9.45419e-01,9.99999e-01,9.99791e-01,9.45615e-01,9.99999e-01
6.142445367e-01,9.46572e-01,9.99999e-01,9.99906e-01,9.46660e-01,9.99999e-01
6.173157594e-01,9.47637e-01,9.99999e-01,9.99948e-01,9.47686e-01,9.99999e-01
6.204023382e-01,9.48651e-01,9.99999e-01,9.99956e-01,9.48692e-01,9.99999e-01
6.235043498e-01,9.49499e-01,9.99999e-01,9.99810e-01,9.49679e-01,9.99999e-01
6.266218716e-01,9.49685e-01,9.99999e-01,9.98992e-01,9.50648e-01,9.99992e-01
6.297549810e-01,9.51234e-01,9.99999e-01,9.99630e-01,9.51599e-01,9.99985e-01
6.329037559e-01,9.51826e-01,9.99999e-01,9.99269e-01,9.52532e-01,9.99988e-01
6.360682746e-01,9.52849e-01,9.99999e-01,9.99378e-01,9.53448e-01,9.99992e-01
6.392486160e-01,9.53574e-01,9.99999e-01,9.99193e-01,9.54346e-01,9.99996e-01
6.424448591e-01,9.54195e-01,9.99999e-01,9.98924e-01,9.55227e-01,9.99994e-01
6.456570834e-01,9.51297e-01,9.99999e-01,9.95011e-01,9.56092e-01,9.99971e-01
6.488853688e-01,9.53359e-01,9.99999e-01,9.96334e-01,9.56940e-01,9.99921e-01
6.521297956e-01,9.54132e-01,9.99999e-01,9.96263e-01,9.57772e-01,9.99934e-01
6.553904446e-01,9.54982e-01,9.99999e-01,9.96285e-01,9.58589e-01,9.99950e-01
6.586673968e-01,9.56319e-01,9.99999e-01,9.96814e-01,9.59390e-01,9.99983e-01
6.619607338e-01,9.58404e-01,9.99999e-01,9.98157e-01,9.60176e-01,9.99996e-01
6.652705375e-01,9.59920e-01,9.99999e-01,9.98932e-01,9.60947e-01,9.99997e-01
6.685968902e-01,9.61226e-01,9.99999e-01,9.99503e-01,9.61703e-01,9.99999e-01
6.719398746e-01,9.62224e-01,9.99999e-01,9.99769e-01,9.62445e-01,9.99999e-01
6.752995740e-01,9.63054e-01,9.99999e-01,9.99875e-01,9.63173e-01,9.99999e-01
6.786760719e-01,9.63715e-01,9.99999e-01,9.99820e-01,9.63888e-01,9.99999e-01
6.820694522e-01,9.64290e-01,9.99999e-01,9.99692e-01,9.64588e-01,9.99997e-01
6.854797995e-01,9.64890e-01,9.99999e-01,9.99603e-01,9.65275e-01,9.99996e-01
6.889071985e-01,9.65019e-01,9.99999e-01,9.99045e-01,9.65949e-01,9.99990e-01
6.923517345e-01,9.51519e-01,9.99999e-01,9.84460e-01,9.66610e-01,9.99924e-01
6.958134932e-01,9.59210e-01,9.99999e-01,9.91846e-01,9.67259e-01,9.99830e-01
6.992925606e-01,9.60293e-01,9.99999e-01,9.92293e-01,9.67895e-01,9.99850e-01
7.027890234e-01,9.59180e-01,9.99999e-01,9.90469e-01,9.68519e-01,9.99885e-01
7.063029686e-01,9.61308e-01,9.99999e-01,9.91983e-01,9.69131e-01,9.99942e-01
7.098344834e-01,9.62240e-01,9.99999e-01,9.92307e-01,9.69732e-01,9.99965e-01
7.133836558e-01,9.60358e-01,9.99999e-01,9.89798e-01,9.70321e-01,9.99932e-01
7.169505741e-01,8.93558e-01,9.99999e-01,9.20825e-01,9.70898e-01,9.99473e-01
7.205353270e-01,9.31953e-01,9.99999e-01,9.60217e-01,9.71465e-01,9.99071e-01
7.241380036e-01,9.22610e-01,9.99999e-01,9.49928e-01,9.72020e-01,9.99197e-01
7.277586936e-01,9.27896e-01,9.99999e-01,9.54695e-01,9.72565e-01,9.99344e-01
7.313974871e-01,9.25885e-01,9.99999e-01,9.51771e-01,9.73100e-01,9.99692e-01
7.350544745e-01,9.47601e-01,9.99999e-01,9.73374e-01,9.73624e-01,9.99892e-01
7.387297469e-01,9.54932e-01,9.99999e-01,9.80330e-01,9.74138e-01,9.99950e-01
7.424233956e-01,9.65203e-01,9.99999e-01,9.90324e-01,9.74643e-01,9.99990e-01
7.461355126e-01,9.69411e-01,9.99999e-01,9.94128e-01,9.75137e-01,9.99997e-01
7.498661902e-01,9.72949e-01,9.99999e-01,9.97260e-01,9.75622e-01,9.99998e-01
7.536155211e-01,9.74787e-01,9.99999e-01,9.98656e-01,9.76098e-01,9.99999e-01
7.573835987e-01,9.75889e-01,9.99999e-01,9.99308e-01,9.76565e-01,9.99999e-01
7.611705167e-01,9.76602e-01,9.99999e-01,9.99569e-01,9.77022e-01,9.99999e-01
7.649763693e-01,9.77208e-01,9.99999e-01,9.99730e-01,9.77471e-01,9.99999e-01
7.688012511e-01,9.77728e-01,9.99999e-01,9.99812e-01,9.77911e-01,9.99999e-01
7.726452574e-01,9.78192e-01,9.99999e-01,9.99845e-01,9.78342e-01,9.99999e-01
7.765084837e-01,9.78551e-01,9.99999e-01,9.99781e-01,9.78766e-01,9.99999e-01
7.803910261e-01,9.78255e-01,9.99999e-01,9.99055e-01,9.79181e-01,9.99998e-01
7.842929812e-01,9.76356e-01,9.99999e-01,9.96706e-01,9.79588e-01,9.99993e-01
7.882144461e-01,9.73291e-01,9.99999e-01,9.93208e-01,9.79987e-01,9.99957e-01
7.921555184e-01,9.76639e-01,9.99999e-01,9.96265e-01,9.80378e-01,9.99919e-01
7.961162960e-01,9.74243e-01,9.99999e-01,9.93429e-01,9.80762e-01,9.99922e-01
8.000968774e-01,9.73601e-01,9.99999e-01,9.92399e-01,9.81138e-01,9.99917e-01
8.040973618e-01,9.73985e-01,9.99999e-01,9.92400e-01,9.81507e-01,9.99934e-01
8.081178486e-01,9.65102e-01,9.99999e-01,9.82982e-01,9.81869e-01,9.99938e-01
8.121584379e-01,9.14193e-01,9.99999e-01,9.30961e-01,9.82224e-01,9.99759e-01
8.162192301e-01,9.01559e-01,9.99999e-01,9.18378e-01,9.82572e-01,9.99096e-01
8.203003262e-01,9.41491e-01,9.99999e-01,9.58870e-01,9.82913e-01,9.98942e-01
8.244018279e-01,9.26124e-01,9.99999e-01,9.42695e-01,9.83248e-01,9.99157e-01
8.285238370e-01,9.34283e-01,9.99999e-01,9.50511e-01,9.83576e-01,9.99338e-01
8.326664562e-01,9.34394e-01,9.99999e-01,9.49945e-01,9.83898e-01,9.99726e-01
8.368297885e-01,9.48661e-01,9.99999e-01,9.63937e-01,9.84213e-01,9.99937e-01
8.410139374e-01,9.63235e-01,9.99999e-01,9.78412e-01,9.84523e-01,9.99962e-01
8.452190071e-01,9.74321e-01,9.99999e-01,9.89354e-01,9.84826e-01,9.99977e-01
8.494451021e-01,9.79017e-01,9.99999e-01,9.93817e-01,9.85124e-01,9.99982e-01
8.536923276e-01,9.81795e-01,9.99999e-01,9.96336e-01,9.85415e-01,9.99988e-01
8.579607893e-01,9.83476e-01,9.99999e-01,9.97744e-01,9.85701e-01,9.99996e-01
8.622505932e-01,9.84568e-01,9.99999e-01,9.98565e-01,9.85982e-01,9.99999e-01
8.665618462e-01,9.85383e-01,9.99999e-01,9.99113e-01,9.86257e-01,9.99999e-01
8.708946554e-01,9.85526e-01,9.99999e-01,9.98985e-01,9.86526e-01,9.99998e-01
8.752491287e-01,9.85451e-01,9.99999e-01,9.98643e-01,9.86791e-01,9.99998e-01
8.796253743e-01,9.85194e-01,9.99999e-01,9.98123e-01,9.87050e-01,9.99995e-01
8.840235012e-01,9.85174e-01,9.99999e-01,9.97855e-01,9.87304e-01,9.99986e-01
8.884436187e-01,9.79853e-01,9.99999e-01,9.92239e-01,9.87553e-01,9.99962e-01
8.928858368e-01,9.09599e-01,9.99999e-01,9.21032e-01,9.87798e-01,9.99785e-01
8.973502660e-01,8.53071e-01,9.99999e-01,8.64348e-01,9.88037e-01,9.98901e-01
9.018370173e-01,9.15687e-01,9.99999e-01,9.28155e-01,9.88272e-01,9.98272e-01
9.063462024e-01,9.24542e-01,9.99999e-01,9.36715e-01,9.88502e-01,9.98482e-01
9.108779334e-01,8.91364e-01,9.99999e-01,9.02948e-01,9.88728e-01,9.98423e-01
9.154323231e-01,8.79360e-01,9.99999e-01,8.90345e-01,9.88950e-01,9.98696e-01
9.200094847e-01,9.02515e-01,9.99999e-01,9.13065e-01,9.89167e-01,9.99270e-01
9.246095321e-01,8.59502e-01,9.99999e-01,8.69458e-01,9.89379e-01,9.99159e-01
9.292325798e-01,3.92995e-01,9.99999e-01,3.98434e-01,9.89588e-01,9.96725e-01
9.338787427e-01,2.98171e-01,9.99999e-01,3.05357e-01,9.89793e-01,9.86534e-01
9.385481364e-01,6.02212e-01,9.99999e-01,6.18185e-01,9.89993e-01,9.84005e-01
9.432408771e-01,5.06850e-01,9.99999e-01,5.19040e-01,9.90190e-01,9.86186e-01
9.479570815e-01,3.98765e-01,9.99999e-01,4.07220e-01,9.90383e-01,9.88742e-01
9.526968669e-01,4.95294e-01,9.99999e-01,5.03472e-01,9.90572e-01,9.93118e-01
9.574603512e-01,5.18682e-01,9.99999e-01,5.25360e-01,9.90757e-01,9.96498e-01
9.622476530e-01,5.83080e-01,9.99999e-01,5.89840e-01,9.90939e-01,9.97577e-01
9.670588912e-01,7.29221e-01,9.99999e-01,7.36977e-01,9.91117e-01,9.98342e-01
9.718941857e-01,8.16831e-01,9.99999e-01,8.25012e-01,9.91292e-01,9.98779e-01
9.767536566e-01,8.44294e-01,9.99999e-01,8.52358e-01,9.91463e-01,9.99066e-01
9.816374249e-01,8.80409e-01,9.99999e-01,8.88125e-01,9.91631e-01,9.99676e-01
9.865456120e-01,9.20813e-01,9.99999e-01,9.28492e-01,9.91795e-01,9.99932e-01
9.914783401e-01,9.47461e-01,9.99999e-01,9.55160e-01,9.91957e-01,9.99980e-01
9.964357318e-01,9.67626e-01,9.99999e-01,9.75326e-01,9.92115e-01,9.99988e-01
1.001417910e+00,9.77507e-01,9.99999e-01,9.85137e-01,9.92270e-01,9.99982e-01
1.006425000e+00,9.83970e-01,9.99999e-01,9.91506e-01,9.92422e-01,9.99975e-01
1.011457125e+00,9.87306e-01,9.99999e-01,9.94717e-01,9.92571e-01,9.99977e-01
1.016514411e+00,9.89141e-01,9.99999e-01,9.96412e-01,9.92718e-01,9.99983e-01
1.021596983e+00,9.90007e-01,9.99999e-01,9.97140e-01,9.92861e-01,9.99983e-01
1.026704968e+00,9.90777e-01,9.99999e-01,9.97769e-01,9.93001e-01,9.99989e-01
1.031838492e+00,9.91526e-01,9.99999e-01,9.98377e-01,9.93139e-01,9.99996e-01
1.036997685e+00,9.92317e-01,9.99999e-01,9.99036e-01,9.93274e-01,9.99999e-01
1.042182673e+00,9.92267e-01,9.99999e-01,9.98852e-01,9.93407e-01,9.99999e-01
1.047393587e+00,9.92025e-01,9.99999e-01,9.98478e-01,9.93536e-01,9.99999e-01
1.052630555e+00,9.91590e-01,9.99999e-01,9.97912e-01,9.93664e-01,9.99998e-01
1.057893707e+00,9.90328e-01,9.99999e-01,9.96519e-01,9.93788e-01,9.99998e-01
1.063183176e+00,9.88219e-01,9.99999e-01,9.94275e-01,9.93911e-01,9.99996e-01
1.068499092e+00,9.84509e-01,9.99999e-01,9.90427e-01,9.94031e-01,9.99993e-01
1.073841587e+00,9.83014e-01,9.99999e-01,9.88814e-01,9.94148e-01,9.99985e-01
1.079210795e+00,9.79979e-01,9.99999e-01,9.85670e-01,9.94263e-01,9.99961e-01
1.084606849e+00,9.72808e-01,9.99999e-01,9.78399e-01,9.94376e-01,9.99907e-01
1.090029883e+00,9.63650e-01,9.99999e-01,9.69177e-01,9.94487e-01,9.99808e-01
1.095480033e+00,9.12921e-01,9.99999e-01,9.18198e-01,9.94596e-01,9.99653e-01
1.100957433e+00,8.00835e-01,9.99999e-01,8.05613e-01,9.94702e-01,9.99362e-01
1.106462220e+00,5.78133e-01,9.99999e-01,5.81779e-01,9.94806e-01,9.98918e-01
1.111994531e+00,3.21259e-01,9.99999e-01,3.23831e-01,9.94909e-01,9.97132e-01
1.117554504e+00,1.62696e-01,9.99999e-01,1.65216e-01,9.95009e-01,9.89688e-01
1.123142276e+00,2.69537e-01,9.99999e-01,2.77602e-01,9.95107e-01,9.75719e-01
1.128757988e+00,4.14156e-01,9.99999e-01,4.28154e-01,9.95204e-01,9.71965e-01
1.134401778e+00,2.02274e-01,9.99999e-01,2.08203e-01,9.95298e-01,9.76111e-01
1.140073787e+00,5.82434e-01,9.99999e-01,5.96544e-01,9.95391e-01,9.80867e-01
1.145774156e+00,3.41790e-01,9.99999e-01,3.49466e-01,9.95482e-01,9.82472e-01
1.151503026e+00,3.08530e-01,9.99999e-01,3.12970e-01,9.95571e-01,9.90197e-01
1.157260541e+00,3.64905e-01,9.99999e-01,3.67577e-01,9.95658e-01,9.97058e-01
1.163046844e+00,4.72818e-01,9.99999e-01,4.75235e-01,9.95744e-01,9.99165e-01
1.168862078e+00,5.90028e-01,9.99999e-01,5.92754e-01,9.95827e-01,9.99569e-01
1.174706389e+00,7.20610e-01,9.99999e-01,7.23982e-01,9.95910e-01,9.99429e-01
1.180579921e+00,8.17101e-01,9.99999e-01,8.21097e-01,9.95990e-01,9.99137e-01
1.186482820e+00,8.90095e-01,9.99999e-01,8.94398e-01,9.96069e-01,9.99115e-01
1.192415234e+00,9.32689e-01,9.99999e-01,9.36917e-01,9.96147e-01,9.99337e-01
1.198377311e+00,9.42433e-01,9.99999e-01,9.46597e-01,9.96223e-01,9.99373e-01
1.204369197e+00,9.45377e-01,9.99999e-01,9.49427e-01,9.96297e-01,9.99433e-01
1.210391043e+00,9.47773e-01,9.99999e-01,9.51553e-01,9.96370e-01,9.99655e-01
1.216442998e+00,9.55001e-01,9.99999e-01,9.58613e-01,9.96442e-01,9.99788e-01
1.222525213e+00,9.64124e-01,9.99999e-01,9.67625e-01,9.96512e-01,9.99868e-01
1.228637839e+00,9.74010e-01,9.99999e-01,9.77410e-01,9.96581e-01,9.99938e-01
1.234781029e+00,9.79862e-01,9.99999e-01,9.83173e-01,9.96648e-01,9.99982e-01
1.240954934e+00,9.86077e-01,9.99999e-01,9.89331e-01,9.96714e-01,9.99994e-01
1.247159708e+00,9.88484e-01,9.99999e-01,9.91681e-01,9.96779e-01,9.99996e-01
1.253395507e+00,9.89477e-01,9.99999e-01,9.92614e-01,9.96842e-01,9.99995e-01
1.259662485e+00,9.89909e-01,9.99999e-01,9.92988e-01,9.96905e-01,9.99993e-01
1.265960797e+00,9.85799e-01,9.99999e-01,9.88809e-01,9.96966e-01,9.99988e-01
1.272290601e+00,9.79554e-01,9.99999e-01,9.82494e-01,9.97026e-01,9.99980e-01
1.278652054e+00,9.62651e-01,9.99999e-01,9.65498e-01,9.97084e-01,9.99965e-01
1.285045314e+00,9.43587e-01,9.99999e-01,9.46351e-01,9.97142e-01,9.99936e-01
1.291470541e+00,8.92568e-01,9.99999e-01,8.95175e-01,9.97198e-01,9.99888e-01
1.297927893e+00,8.63045e-01,9.99999e-01,8.65601e-01,9.97253e-01,9.99791e-01
1.304417533e+00,8.28007e-01,9.99999e-01,8.30607e-01,9.97307e-01,9.99559e-01
1.310939621e+00,8.05884e-01,9.99999e-01,8.08747e-01,9.97361e-01,9.99095e-01
1.317494319e+00,7.90813e-01,9.99999e-01,7.94192e-01,9.97413e-01,9.98327e-01
1.324081790e+00,7.06175e-01,9.99999e-01,7.09907e-01,9.97464e-01,9.97270e-01
1.330702199e+00,2.99066e-01,9.99999e-01,3.01227e-01,9.97514e-01,9.95299e-01
1.337355710e+00,3.78179e-02,9.99999e-01,3.82558e-02,9.97563e-01,9.90967e-01
1.344042489e+00,1.29702e-03,9.99999e-01,1.33615e-03,9.97611e-01,9.73040e-01
1.350762701e+00,1.01173e-07,9.99999e-01,1.11357e-07,9.97658e-01,9.10675e-01
1.357516515e+00,5.27971e-11,9.99999e-01,6.96414e-11,9.97704e-01,7.59872e-01
1.364304097e+00,2.83605e-07,9.99999e-01,4.59941e-07,9.97749e-01,6.18000e-01
1.371125618e+00,4.53639e-05,9.99999e-01,7.15689e-05,9.97794e-01,6.35249e-01
1.377981246e+00,1.53416e-04,9.99999e-01,2.26844e-04,9.97837e-01,6.77774e-01
1.384871152e+00,1.49844e-06,9.99999e-01,2.15754e-06,9.97880e-01,6.95987e-01
1.391795508e+00,3.81614e-07,9.99999e-01,5.40209e-07,9.97922e-01,7.07888e-01
1.398754485e+00,6.65367e-06,9.99999e-01,8.86913e-06,9.97963e-01,7.51735e-01
1.405748258e+00,7.48923e-06,9.99999e-01,8.86659e-06,9.98003e-01,8.46346e-01
1.412776999e+00,7.73915e-06,9.99999e-01,8.36803e-06,9.98042e-01,9.26660e-01
1.419840884e+00,1.68197e-05,9.99999e-01,1.74243e-05,9.98081e-01,9.67153e-01
1.426940089e+00,2.33069e-04,9.99999e-01,2.39508e-04,9.98119e-01,9.74946e-01
1.434074789e+00,1.44700e-03,9.99999e-01,1.49373e-03,9.98156e-01,9.70502e-01
1.441245163e+00,5.19308e-03,9.99999e-01,5.37396e-03,9.98192e-01,9.68089e-01
1.448451389e+00,2.53766e-02,9.99999e-01,2.61538e-02,9.98228e-01,9.72003e-01
1.455693646e+00,8.16103e-02,9.99999e-01,8.35787e-02,9.98263e-01,9.78147e-01
1.462972114e+00,1.10672e-01,9.99999e-01,1.13221e-01,9.98297e-01,9.79147e-01
1.470286975e+00,7.80897e-02,9.99999e-01,7.98573e-02,9.98331e-01,9.79499e-01
