#,Wave/freq,Total,N2,H2O,Rayleigh,CIA
4.000000000e-01,6.88820e-01,9.99999e-01,9.99957e-01,6.88849e-01,9.99999e-01
4.020000000e-01,6.93926e-01,9.99999e-01,9.99973e-01,6.93944e-01,9.99999e-01
4.040100000e-01,6.98963e-01,9.99999e-01,9.99988e-01,6.98970e-01,9.99999e-01
4.060300500e-01,7.03931e-01,9.99999e-01,9.99996e-01,7.03933e-01,9.99999e-01
4.080602003e-01,7.08831e-01,9.99999e-01,9.99998e-01,7.08831e-01,9.99999e-01
4.101005013e-01,7.13666e-01,9.99999e-01,9.99999e-01,7.13666e-01,9.99999e-01
4.121510038e-01,7.18436e-01,9.99999e-01,9.99997e-01,7.18437e-01,9.99999e-01
4.142117588e-01,7.23137e-01,9.99999e-01,9.99988e-01,7.23145e-01,9.99999e-01
4.162828176e-01,7.27752e-01,9.99999e-01,9.99947e-01,7.27790e-01,9.99999e-01
4.183642317e-01,7.32349e-01,9.99999e-01,9.99968e-01,7.32372e-01,9.99999e-01
4.204560528e-01,7.36878e-01,9.99999e-01,9.99980e-01,7.36892e-01,9.99999e-01
4.225583331e-01,7.41344e-01,9.99999e-01,9.99992e-01,7.41349e-01,9.99999e-01
4.246711247e-01,7.45740e-01,9.99999e-01,9.99993e-01,7.45745e-01,9.99999e-01
4.267944804e-01,7.50072e-01,9.99999e-01,9.99991e-01,7.50079e-01,9.99999e-01
4.289284528e-01,7.54347e-01,9.99999e-01,9.99993e-01,7.54351e-01,9.99999e-01
4.310730950e-01,7.58561e-01,9.99999e-01,9.99996e-01,7.58563e-01,9.99999e-01
4.332284605e-01,7.62715e-01,9.99999e-01,9.99998e-01,7.62715e-01,9.99999e-01
4.353946028e-01,7.66807e-01,9.99999e-01,9.99999e-01,7.66807e-01,9.99999e-01
4.375715758e-01,7.70835e-01,9.99999e-01,9.99994e-01,7.70839e-01,9.99999e-01
4.397594337e-01,7.74777e-01,9.99999e-01,9.99954e-01,7.74812e-01,9.99999e-01
4.419582309e-01,7.78549e-01,9.99999e-01,9.99771e-01,7.78727e-01,9.99999e-01
4.441680220e-01,7.82440e-01,9.99999e-01,9.99816e-01,7.82583e-01,9.99999e-01
4.463888621e-01,7.86234e-01,9.99999e-01,9.99810e-01,7.86382e-01,9.99999e-01
4.486208064e-01,7.90030e-01,9.99999e-01,9.99881e-01,7.90124e-01,9.99999e-01
4.508639105e-01,7.93765e-01,9.99999e-01,9.99944e-01,7.93809e-01,9.99999e-01
4.531182300e-01,7.97420e-01,9.99999e-01,9.99977e-01,7.97437e-01,9.99999e-01
4.553838212e-01,8.00999e-01,9.99999e-01,9.99984e-01,8.01011e-01,9.99999e-01
4.576607403e-01,8.04524e-01,9.99999e-01,9.99992e-01,8.04529e-01,9.99999e-01
4.599490440e-01,8.07989e-01,9.99999e-01,9.99994e-01,8.07993e-01,9.99999e-01
4.622487892e-01,8.11402e-01,9.99999e-01,9.99998e-01,8.11403e-01,9.99999e-01
4.645600332e-01,8.14757e-01,9.99999e-01,9.99996e-01,8.14759e-01,9.99999e-01
4.668828333e-01,8.18018e-01,9.99999e-01,9.99944e-01,8.18063e-01,9.99999e-01
4.692172475e-01,8.21217e-01,9.99999e-01,9.99881e-01,8.21314e-01,9.99999e-01
4.715633337e-01,8.24450e-01,9.99999e-01,9.99922e-01,8.24514e-01,9.99999e-01
4.739211504e-01,8.27601e-01,9.99999e-01,9.99925e-01,8.27662e-01,9.99999e-01
4.762907561e-01,8.30728e-01,9.99999e-01,9.99960e-01,8.30760e-01,9.99999e-01
4.786722099e-01,8.33795e-01,9.99999e-01,9.99983e-01,8.33809e-01,9.99999e-01
4.810655710e-01,8.36803e-01,9.99999e-01,9.99994e-01,8.36807e-01,9.99999e-01
4.834708988e-01,8.39720e-01,9.99999e-01,9.99955e-01,8.39757e-01,9.99999e-01
4.858882533e-01,8.42588e-01,9.99999e-01,9.99915e-01,8.42659e-01,9.99999e-01
4.883176946e-01,8.45454e-01,9.99999e-01,9.99929e-01,8.45513e-01,9.99999e-01
4.907592831e-01,8.48267e-01,9.99999e-01,9.99935e-01,8.48321e-01,9.99999e-01
4.932130795e-01,8.51043e-01,9.99999e-01,9.99954e-01,8.51082e-01,9.99999e-01
4.956791449e-01,8.53776e-01,9.99999e-01,9.99975e-01,8.53797e-01,9.99999e-01
4.981575406e-01,8.56365e-01,9.99999e-01,9.99881e-01,8.56466e-01,9.99999e-01
5.006483283e-01,8.58828e-01,9.99999e-01,9.99694e-01,8.59092e-01,9.99997e-01
5.031515699e-01,8.60315e-01,9.99999e-01,9.98440e-01,8.61673e-01,9.99983e-01
5.056673278e-01,8.63480e-01,9.99999e-01,9.99173e-01,8.64210e-01,9.99980e-01
5.081956644e-01,8.65791e-01,9.99999e-01,9.98957e-01,8.66705e-01,9.99987e-01
5.107366428e-01,8.68543e-01,9.99999e-01,9.99295e-01,8.69158e-01,9.99997e-01
5.132903260e-01,8.71217e-01,9.99999e-01,9.99596e-01,8.71568e-01,9.99999e-01
5.158567776e-01,8.73789e-01,9.99999e-01,9.99828e-01,8.73938e-01,9.99999e-01
5.184360615e-01,8.76207e-01,9.99999e-01,9.99931e-01,8.76267e-01,9.99999e-01
5.210282418e-01,8.78534e-01,9.99999e-01,9.99974e-01,8.78556e-01,9.99999e-01
5.236333830e-01,8.80716e-01,9.99999e-01,9.99897e-01,8.80806e-01,9.99998e-01
5.262515499e-01,8.82960e-01,9.99999e-01,9.99935e-01,8.83017e-01,9.99998e-01
5.288828077e-01,8.85138e-01,9.99999e-01,9.99941e-01,8.85190e-01,9.99998e-01
5.315272217e-01,8.87279e-01,9.99999e-01,9.99947e-01,8.87324e-01,9.99999e-01
5.341848578e-01,8.89392e-01,9.99999e-01,9.99966e-01,8.89422e-01,9.99999e-01
5.368557821e-01,8.91378e-01,9.99999e-01,9.99881e-01,8.91483e-01,9.99999e-01
5.395400610e-01,8.93127e-01,9.99999e-01,9.99576e-01,8.93508e-01,9.99995e-01
5.422377613e-01,8.94992e-01,9.99999e-01,9.99444e-01,8.95498e-01,9.99989e-01
5.449489501e-01,8.96983e-01,9.99999e-01,9.99487e-01,8.97452e-01,9.99989e-01
5.476736949e-01,8.98956e-01,9.99999e-01,9.99541e-01,8.99372e-01,9.99994e-01
5.504120634e-01,9.00958e-01,9.99999e-01,9.99667e-01,9.01258e-01,9.99998e-01
5.531641237e-01,9.02960e-01,9.99999e-01,9.99832e-01,9.03111e-01,9.99999e-01
5.559299443e-01,9.04858e-01,9.99999e-01,9.99918e-01,9.04931e-01,9.99999e-01
5.587095940e-01,9.06672e-01,9.99999e-01,9.99949e-01,9.06718e-01,9.99999e-01
5.615031420e-01,9.08423e-01,9.99999e-01,9.99943e-01,9.08473e-01,9.99999e-01
5.643106577e-01,9.10140e-01,9.99999e-01,9.99936e-01,9.10198e-01,9.99999e-01
5.671322110e-01,9.11195e-01,9.99999e-01,9.99242e-01,9.11891e-01,9.99993e-01
5.699678720e-01,9.12777e-01,9.99999e-01,9.99170e-01,9.13554e-01,9.99978e-01
5.728177114e-01,9.14389e-01,9.99999e-01,9.99145e-01,9.15187e-01,9.99982e-01
5.756818000e-01,9.16060e-01,9.99999e-01,9.99214e-01,9.16790e-01,9.99988e-01
5.785602090e-01,9.17732e-01,9.99999e-01,9.99313e-01,9.18365e-01,9.99996e-01
5.814530100e-01,9.19277e-01,9.99999e-01,9.99312e-01,9.19911e-01,9.99998e-01
5.843602750e-01,9.20677e-01,9.99999e-01,9.99187e-01,9.21429e-01,9.99994e-01
5.872820764e-01,9.16419e-01,9.99999e-01,9.93005e-01,9.22919e-01,9.99949e-01
5.902184868e-01,9.16351e-01,9.99999e-01,9.91444e-01,9.24383e-01,9.99864e-01
5.931695792e-01,9.20117e-01,9.99999e-01,9.93970e-01,9.25820e-01,9.99867e-01
5.961354271e-01,9.21015e-01,9.99999e-01,9.93375e-01,9.27230e-01,9.99920e-01
5.991161043e-01,9.24099e-01,9.99999e-01,9.95159e-01,9.28615e-01,9.99976e-01
6.021116848e-01,9.27412e-01,9.99999e-01,9.97246e-01,9.29974e-01,9.99996e-01
6.051222432e-01,9.30010e-01,9.99999e-01,9.98605e-01,9.31309e-01,9.99999e-01
6.081478544e-01,9.32059e-01,9.99999e-01,9.99398e-01,9.32619e-01,9.99999e-01
6.111885937e-01,9.33667e-01,9.99999e-01,9.99744e-01,9.33905e-01,9.99999e-01
6.142445367e-01,9.35061e-01,9.99999e-01,9.99885e-01,9.35167e-01,9.99999e-01
6.173157594e-01,9.36348e-01,9.99999e-01,9.99936e-01,9.36406e-01,9.99999e-01
6.204023382e-01,9.37573e-01,9.99999e-01,9.99946e-01,9.37622e-01,9.99999e-01
6.235043498e-01,9.38601e-01,9.99999e-01,9.99771e-01,9.38816e-01,9.99998e-01
6.266218716e-01,9.38823e-01,9.99999e-01,9.98769e-01,9.39987e-01,9.99990e-01
6.297549810e-01,9.40696e-01,9.99999e-01,9.99548e-01,9.41137e-01,9.99982e-01
6.329037559e-01,9.41410e-01,9.99999e-01,9.99104e-01,9.42265e-01,9.99985e-01
6.360682746e-01,9.42650e-01,9.99999e-01,9.99241e-01,9.43373e-01,9.99991e-01
6.392486160e-01,9.43526e-01,9.99999e-01,9.99014e-01,9.44460e-01,9.99995e-01
6.424448591e-01,9.44405e-01,9.99999e-01,9.98819e-01,9.45526e-01,9.99993e-01
6.456570834e-01,9.40852e-01,9.99999e-01,9.93988e-01,9.46573e-01,9.99965e-01
6.488853688e-01,9.42519e-01,9.99999e-01,9.94731e-01,9.47600e-01,9.99904e-01
6.521297956e-01,9.44196e-01,9.99999e-01,9.95427e-01,9.48608e-01,9.99919e-01
6.553904446e-01,9.45255e-01,9.99999e-01,9.95485e-01,9.49597e-01,9.99939e-01
6.586673968e-01,9.46838e-01,9.99999e-01,9.96095e-01,9.50568e-01,9.99980e-01
6.619607338e-01,9.49368e-01,9.99999e-01,9.97742e-01,9.51520e-01,9.99995e-01
6.652705375e-01,9.51204e-01,9.99999e-01,9.98688e-01,9.52455e-01,9.99997e-01
6.685968902e-01,9.52791e-01,9.99999e-01,9.99390e-01,9.53371e-01,9.99999e-01
6.719398746e-01,9.54002e-01,9.99999e-01,9.99717e-01,9.54271e-01,9.99999e-01
6.752995740e-01,9.55008e-01,9.99999e-01,9.99847e-01,9.55154e-01,9.99999e-01
6.786760719e-01,9.55811e-01,9.99999e-01,9.99781e-01,9.56020e-01,9.99999e-01
6.820694522e-01,9.56509e-01,9.99999e-01,9.99624e-01,9.56869e-01,9.99997e-01
6.854797995e-01,9.57237e-01,9.99999e-01,9.99516e-01,9.57703e-01,9.99995e-01
6.889071985e-01,9.57408e-01,9.99999e-01,9.98848e-01,9.58521e-01,9.99989e-01
6.923517345e-01,9.41137e-01,9.99999e-01,9.81131e-01,9.59323e-01,9.99907e-01
6.958134932e-01,9.50258e-01,9.99999e-01,9.89942e-01,9.60111e-01,9.99792e-01
6.992925606e-01,9.51708e-01,9.99999e-01,9.90631e-01,9.60883e-01,9.99817e-01
7.027890234e-01,9.50302e-01,9.99999e-01,9.88346e-01,9.61640e-01,9.99859e-01
7.063029686e-01,9.52889e-01,9.99999e-01,9.90202e-01,9.62384e-01,9.99929e-01
7.098344834e-01,9.54018e-01,9.99999e-01,9.90596e-01,9.63113e-01,9.99958e-01
7.133836558e-01,9.51861e-01,9.99999e-01,9.87663e-01,9.63828e-01,9.99917e-01
7.169505741e-01,8.72056e-01,9.99999e-01,9.04707e-01,9.64530e-01,9.99356e-01
7.205353270e-01,9.17078e-01,9.99999e-01,9.51203e-01,9.65218e-01,9.98864e-01
7.241380036e-01,9.06403e-01,9.99999e-01,9.39335e-01,9.65893e-01,9.99012e-01
7.277586936e-01,9.12690e-01,9.99999e-01,9.45045e-01,9.66555e-01,9.99179e-01
7.313974871e-01,9.10001e-01,9.99999e-01,9.41209e-01,9.67205e-01,9.99624e-01
7.350544745e-01,9.36261e-01,9.99999e-01,9.67495e-01,9.67842e-01,9.99869e-01
7.387297469e-01,9.45117e-01,9.99999e-01,9.75947e-01,9.68467e-01,9.99939e-01
7.424233956e-01,9.57565e-01,9.99999e-01,9.88128e-01,9.69080e-01,9.99987e-01
7.461355126e-01,9.62702e-01,9.99999e-01,9.92803e-01,9.69682e-01,9.99997e-01
7.498661902e-01,9.67006e-01,9.99999e-01,9.96634e-01,9.70272e-01,9.99998e-01
7.536155211e-01,9.69251e-01,9.99999e-01,9.98352e-01,9.70850e-01,9.99999e-01
7.573835987e-01,9.70593e-01,9.99999e-01,9.99151e-01,9.71418e-01,9.99999e-01
7.611705167e-01,9.71462e-01,9.99999e-01,9.99472e-01,9.71974e-01,9.99999e-01
7.649763693e-01,9.72199e-01,9.99999e-01,9.99669e-01,9.72520e-01,9.99999e-01
7.688012511e-01,9.72832e-01,9.99999e-01,9.99770e-01,9.73055e-01,9.99999e-01
7.726452574e-01,9.73397e-01,9.99999e-01,9.99811e-01,9.73581e-01,9.99999e-01
7.765084837e-01,9.73836e-01,9.99999e-01,9.99733e-01,9.74096e-01,9.99999e-01
7.803910261e-01,9.73482e-01,9.99999e-01,9.98852e-01,9.74601e-01,9.99998e-01
7.842929812e-01,9.71191e-01,9.99999e-01,9.96001e-01,9.75096e-01,9.99992e-01
7.882144461e-01,9.67438e-01,9.99999e-01,9.91702e-01,9.75582e-01,9.99948e-01
7.921555184e-01,9.71491e-01,9.99999e-01,9.95418e-01,9.76058e-01,9.99901e-01
7.961162960e-01,9.68631e-01,9.99999e-01,9.92008e-01,9.76526e-01,9.99905e-01
8.000968774e-01,9.67818e-01,9.99999e-01,9.90716e-01,9.76984e-01,9.99899e-01
8.040973618e-01,9.68295e-01,9.99999e-01,9.90728e-01,9.77433e-01,9.99919e-01
8.081178486e-01,9.57633e-01,9.99999e-01,9.79373e-01,9.77874e-01,9.99924e-01
8.121584379e-01,8.96597e-01,9.99999e-01,9.16747e-01,9.78306e-01,9.99705e-01
8.162192301e-01,8.80888e-01,9.99999e-01,9.01025e-01,9.78730e-01,9.98895e-01
8.203003262e-01,9.29632e-01,9.99999e-01,9.50659e-01,9.79146e-01,9.98706e-01
8.244018279e-01,9.10283e-01,9.99999e-01,9.30239e-01,9.79554e-01,9.98970e-01
8.285238370e-01,9.20416e-01,9.99999e-01,9.40003e-01,9.79953e-01,9.99191e-01
8.326664562e-01,9.20385e-01,9.99999e-01,9.39151e-01,9.80345e-01,9.99665e-01
8.368297885e-01,9.37504e-01,9.99999e-01,9.55996e-01,9.80730e-01,9.99923e-01
8.410139374e-01,9.55163e-01,9.99999e-01,9.73599e-01,9.81107e-01,9.99954e-01
8.452190071e-01,9.68644e-01,9.99999e-01,9.86950e-01,9.81477e-01,9.99972e-01
8.494451021e-01,9.74394e-01,9.99999e-01,9.92438e-01,9.81839e-01,9.99978e-01
8.536923276e-01,9.77767e-01,9.99999e-01,9.95505e-01,9.82195e-01,9.99985e-01
8.579607893e-01,9.79828e-01,9.99999e-01,9.97239e-01,9.82543e-01,9.99995e-01
8.622505932e-01,9.81156e-01,9.99999e-01,9.98241e-01,9.82885e-01,9.99998e-01
8.665618462e-01,9.82155e-01,9.99999e-01,9.98915e-01,9.83220e-01,9.99999e-01
8.708946554e-01,9.82331e-01,9.99999e-01,9.98761e-01,9.83549e-01,9.99998e-01
8.752491287e-01,9.82239e-01,9.99999e-01,9.98342e-01,9.83871e-01,9.99997e-01
8.796253743e-01,9.81931e-01,9.99999e-01,9.97712e-01,9.84187e-01,9.99994e-01
8.840235012e-01,9.81907e-01,9.99999e-01,9.97384e-01,9.84497e-01,9.99983e-01
8.884436187e-01,9.75579e-01,9.99999e-01,9.90680e-01,9.84801e-01,9.99954e-01
8.928858368e-01,8.91396e-01,9.99999e-01,9.05116e-01,9.85099e-01,9.99737e-01
8.973502660e-01,8.23758e-01,9.99999e-01,8.37094e-01,9.85391e-01,9.98656e-01
9.018370173e-01,8.97645e-01,9.99999e-01,9.12614e-01,9.85678e-01,9.97888e-01
9.063462024e-01,9.09124e-01,9.99999e-01,9.23783e-01,9.85958e-01,9.98145e-01
9.108779334e-01,8.69302e-01,9.99999e-01,8.83136e-01,9.86234e-01,9.98072e-01
9.154323231e-01,8.54819e-01,9.99999e-01,8.67895e-01,9.86504e-01,9.98406e-01
9.200094847e-01,8.82226e-01,9.99999e-01,8.94852e-01,9.86769e-01,9.99107e-01
9.246095321e-01,8.33971e-01,9.99999e-01,8.45799e-01,9.87028e-01,9.98972e-01
9.292325798e-01,3.27439e-01,9.99999e-01,3.32989e-01,9.87283e-01,9.95998e-01
9.338787427e-01,2.32624e-01,9.99999e-01,2.39497e-01,9.87532e-01,9.83562e-01
9.385481364e-01,5.42100e-01,9.99999e-01,5.59732e-01,9.87777e-01,9.80481e-01
9.432408771e-01,4.45165e-01,9.99999e-01,4.58292e-01,9.88017e-01,9.83137e-01
9.479570815e-01,3.33875e-01,9.99999e-01,3.42552e-01,9.88252e-01,9.86254e-01
9.526968669e-01,4.29268e-01,9.99999e-01,4.37951e-01,9.88483e-01,9.91593e-01
9.574603512e-01,4.51832e-01,9.99999e-01,4.58955e-01,9.88709e-01,9.95720e-01
9.622476530e-01,5.18894e-01,9.99999e-01,5.26260e-01,9.88931e-01,9.97038e-01
9.670588912e-01,6.80951e-01,9.99999e-01,6.89819e-01,9.89149e-01,9.97973e-01
9.718941857e-01,7.81175e-01,9.99999e-01,7.90753e-01,9.89362e-01,9.98507e-01
9.767536566e-01,8.13343e-01,9.99999e-01,8.22852e-01,9.89571e-01,9.98859e-01
9.816374249e-01,8.55671e-01,9.99999e-01,8.64851e-01,9.89776e-01,9.99604e-01
9.865456120e-01,9.03907e-01,9.99999e-01,9.13133e-01,9.89977e-01,9.99917e-01
9.914783401e-01,9.36054e-01,9.99999e-01,9.45364e-01,9.90174e-01,9.99976e-01
9.964357318e-01,9.60502e-01,9.99999e-01,9.69856e-01,9.90367e-01,9.99986e-01
1.001417910e+00,9.72525e-01,9.99999e-01,9.81816e-01,9.90556e-01,9.99979e-01
1.006425000e+00,9.80427e-01,9.99999e-01,9.89616e-01,9.90742e-01,9.99970e-01
1.011457125e+00,9.84482e-01,9.99999e-01,9.93525e-01,9.90924e-01,9.99972e-01
1.016514411e+00,9.86731e-01,9.99999e-01,9.95607e-01,9.91102e-01,9.99980e-01
1.021596983e+00,9.87790e-01,9.99999e-01,9.96501e-01,9.91277e-01,9.99980e-01
1.026704968e+00,9.88732e-01,9.99999e-01,9.97272e-01,9.91449e-01,9.99986e-01
1.031838492e+00,9.89643e-01,9.99999e-01,9.98012e-01,9.91617e-01,9.99995e-01
1.036997685e+00,9.90613e-01,9.99999e-01,9.98821e-01,9.91782e-01,9.99998e-01
1.042182673e+00,9.90555e-01,9.99999e-01,9.98600e-01,9.91943e-01,9.99999e-01
1.047393587e+00,9.90258e-01,9.99999e-01,9.98140e-01,9.92102e-01,9.99999e-01
1.052630555e+00,9.89730e-01,9.99999e-01,9.97452e-01,9.92257e-01,9.99998e-01
1.057893707e+00,9.88198e-01,9.99999e-01,9.95757e-01,9.92410e-01,9.99998e-01
1.063183176e+00,9.85627e-01,9.99999e-01,9.93019e-01,9.92559e-01,9.99995e-01
1.068499092e+00,9.81104e-01,9.99999e-01,9.88320e-01,9.92705e-01,9.99991e-01
1.073841587e+00,9.79306e-01,9.99999e-01,9.86376e-01,9.92849e-01,9.99982e-01
1.079210795e+00,9.75575e-01,9.99999e-01,9.82507e-01,9.92990e-01,9.99952e-01
1.084606849e+00,9.66893e-01,9.99999e-01,9.73693e-01,9.93128e-01,9.99886e-01
1.090029883e+00,9.55966e-01,9.99999e-01,9.62675e-01,9.93263e-01,9.99765e-01
1.095480033e+00,8.95047e-01,9.99999e-01,9.01378e-01,9.93396e-01,9.99576e-01
1.100957433e+00,7.63591e-01,9.99999e-01,7.69166e-01,9.93526e-01,9.99220e-01
1.106462220e+00,5.16292e-01,9.99999e-01,5.20277e-01,9.93653e-01,9.98678e-01
1.111994531e+00,2.54286e-01,9.99999e-01,2.56777e-01,9.93778e-01,9.96495e-01
1.117554504e+00,1.13046e-01,9.99999e-01,1.15190e-01,9.93900e-01,9.87407e-01
1.123142276e+00,2.09566e-01,9.99999e-01,2.17258e-01,9.94021e-01,9.70396e-01
1.128757988e+00,3.46094e-01,9.99999e-01,3.60449e-01,9.94138e-01,9.65834e-01
1.134401778e+00,1.60017e-01,9.99999e-01,1.65886e-01,9.94254e-01,9.70194e-01
1.140073787e+00,5.19500e-01,9.99999e-01,5.35264e-01,9.94367e-01,9.76045e-01
1.145774156e+00,2.75535e-01,9.99999e-01,2.83119e-01,9.94478e-01,9.78613e-01
1.151503026e+00,2.44531e-01,9.99999e-01,2.48841e-01,9.94587e-01,9.88028e-01
1.157260541e+00,2.94940e-01,9.99999e-01,2.97583e-01,9.94693e-01,9.96405e-01
1.163046844e+00,4.02474e-01,9.99999e-01,4.04991e-01,9.94798e-01,9.98979e-01
1.168862078e+00,5.25062e-01,9.99999e-01,5.28030e-01,9.94900e-01,9.99473e-01
1.174706389e+00,6.70211e-01,9.99999e-01,6.74047e-01,9.95001e-01,9.99302e-01
1.180579921e+00,7.81103e-01,9.99999e-01,7.85777e-01,9.95099e-01,9.98946e-01
1.186482820e+00,8.67237e-01,9.99999e-01,8.72366e-01,9.95196e-01,9.98918e-01
1.192415234e+00,9.18292e-01,9.99999e-01,9.23384e-01,9.95290e-01,9.99189e-01
1.198377311e+00,9.30134e-01,9.99999e-01,9.35162e-01,9.95383e-01,9.99234e-01
1.204369197e+00,9.33671e-01,9.99999e-01,9.38564e-01,9.95474e-01,9.99307e-01
1.210391043e+00,9.36534e-01,9.99999e-01,9.41103e-01,9.95563e-01,9.99578e-01
1.216442998e+00,9.45191e-01,9.99999e-01,9.49563e-01,9.95651e-01,9.99741e-01
1.222525213e+00,9.56271e-01,9.99999e-01,9.60519e-01,9.95736e-01,9.99839e-01
1.228637839e+00,9.68300e-01,9.99999e-01,9.72435e-01,9.95820e-01,9.99925e-01
1.234781029e+00,9.75404e-01,9.99999e-01,9.79436e-01,9.95903e-01,9.99978e-01
1.240954934e+00,9.82993e-01,9.99999e-01,9.86962e-01,9.95984e-01,9.99993e-01
1.247159708e+00,9.85924e-01,9.99999e-01,9.89824e-01,9.96063e-01,9.99995e-01
1.253395507e+00,9.87145e-01,9.99999e-01,9.90974e-01,9.96140e-01,9.99994e-01
1.259662485e+00,9.87753e-01,9.99999e-01,9.91511e-01,9.96216e-01,9.99991e-01
1.265960797e+00,9.82718e-01,9.99999e-01,9.86388e-01,9.96291e-01,9.99986e-01
1.272290601e+00,9.76449e-01,9.99999e-01,9.80034e-01,9.96364e-01,9.99976e-01
1.278652054e+00,9.54822e-01,9.99999e-01,9.58276e-01,9.96436e-01,9.99957e-01
1.285045314e+00,9.31969e-01,9.99999e-01,9.35309e-01,9.96506e-01,9.99921e-01
1.291470541e+00,8.70885e-01,9.99999e-01,8.73997e-01,9.96575e-01,9.99863e-01
1.297927893e+00,8.35952e-01,9.99999e-01,8.38980e-01,9.96642e-01,9.99745e-01
1.304417533e+00,7.94519e-01,9.99999e-01,7.97571e-01,9.96709e-01,9.99461e-01
1.310939621e+00,7.69638e-01,9.99999e-01,7.72983e-01,9.96774e-01,9.98894e-01
1.317494319e+00,7.50990e-01,9.99999e-01,7.54915e-01,9.96837e-01,9.97955e-01
1.324081790e+00,6.55543e-01,9.99999e-01,6.59782e-01,9.96899e-01,9.96664e-01
1.330702199e+00,2.49258e-01,9.99999e-01,2.51462e-01,9.96961e-01,9.94256e-01
1.337355710e+00,2.04808e-02,9.99999e-01,2.07712e-02,9.97021e-01,9.88968e-01
1.344042489e+00,5.93383e-04,9.99999e-01,6.15341e-04,9.97079e-01,9.67139e-01
1.350762701e+00,4.76191e-09,9.99999e-01,5.35434e-09,9.97137e-01,8.91906e-01
1.357516515e+00,4.48422e-13,9.99999e-01,6.29084e-13,9.97193e-01,7.14823e-01
1.364304097e+00,1.54037e-08,9.99999e-01,2.78194e-08,9.97249e-01,5.55228e-01
1.371125618e+00,7.86429e-06,9.99999e-01,1.37323e-05,9.97303e-01,5.74232e-01
1.377981246e+00,2.88015e-05,9.99999e-01,4.64593e-05,9.97356e-01,6.21572e-01
1.384871152e+00,1.61221e-07,9.99999e-01,2.52961e-07,9.97408e-01,6.38990e-01
1.391795508e+00,1.97080e-08,9.99999e-01,3.01901e-08,9.97459e-01,6.54456e-01
1.398754485e+00,6.88776e-07,9.99999e-01,9.78763e-07,9.97509e-01,7.05476e-01
1.405748258e+00,8.82388e-07,9.99999e-01,1.08467e-06,9.97559e-01,8.15499e-01
1.412776999e+00,9.32434e-07,9.99999e-01,1.02589e-06,9.97607e-01,9.11084e-01
1.419840884e+00,2.09029e-06,9.99999e-01,2.18252e-06,9.97654e-01,9.59991e-01
1.426940089e+00,5.92502e-05,9.99999e-01,6.12577e-05,9.97700e-01,9.69456e-01
1.434074789e+00,4.32811e-04,9.99999e-01,4.49961e-04,9.97746e-01,9.64057e-01
1.441245163e+00,1.87447e-03,9.99999e-01,1.95460e-03,9.97790e-01,9.61127e-01
1.448451389e+00,1.27114e-02,9.99999e-01,1.31890e-02,9.97834e-01,9.65880e-01
1.455693646e+00,5.00777e-02,9.99999e-01,5.15583e-02,9.97876e-01,9.73348e-01
1.462972114e+00,7.10175e-02,9.99999e-01,7.30228e-02,9.97918e-01,9.74566e-01
1.470286975e+00,4.68368e-02,9.99999e-01,4.81362e-02,9.97959e-01,9.74994e-01
