#,Wave/freq,Total,N2,H2O,Rayleigh,CIA
4.000000000e-01,5.35671e-01,9.99999e-01,9.99929e-01,5.35709e-01,9.99999e-01
4.020000000e-01,5.42337e-01,9.99999e-01,9.99956e-01,5.42361e-01,9.99999e-01
4.040100000e-01,5.48945e-01,9.99999e-01,9.99981e-01,5.48955e-01,9.99999e-01
4.060300500e-01,5.55494e-01,9.99999e-01,9.99995e-01,5.55497e-01,9.99999e-01
4.080602003e-01,5.61984e-01,9.99999e-01,9.99998e-01,5.61985e-01,9.99999e-01
4.101005013e-01,5.68419e-01,9.99999e-01,9.99999e-01,5.68419e-01,9.99999e-01
4.121510038e-01,5.74795e-01,9.99999e-01,9.99996e-01,5.74797e-01,9.99999e-01
4.142117588e-01,5.81107e-01,9.99999e-01,9.99979e-01,5.81118e-01,9.99999e-01
4.162828176e-01,5.87331e-01,9.99999e-01,9.99912e-01,5.87382e-01,9.99999e-01
4.183642317e-01,5.93557e-01,9.99999e-01,9.99947e-01,5.93588e-01,9.99999e-01
4.204560528e-01,5.99716e-01,9.99999e-01,9.99967e-01,5.99735e-01,9.99999e-01
4.225583331e-01,6.05815e-01,9.99999e-01,9.99987e-01,6.05822e-01,9.99999e-01
4.246711247e-01,6.11843e-01,9.99999e-01,9.99989e-01,6.11849e-01,9.99999e-01
4.267944804e-01,6.17807e-01,9.99999e-01,9.99985e-01,6.17815e-01,9.99999e-01
4.289284528e-01,6.23713e-01,9.99999e-01,9.99988e-01,6.23720e-01,9.99999e-01
4.310730950e-01,6.29560e-01,9.99999e-01,9.99994e-01,6.29563e-01,9.99999e-01
4.332284605e-01,6.35343e-01,9.99999e-01,9.99998e-01,6.35344e-01,9.99999e-01
4.353946028e-01,6.41061e-01,9.99999e-01,9.99998e-01,6.41061e-01,9.99999e-01
4.375715758e-01,6.46711e-01,9.99999e-01,9.99990e-01,6.46716e-01,9.99999e-01
4.397594337e-01,6.52258e-01,9.99999e-01,9.99922e-01,6.52308e-01,9.99999e-01
4.419582309e-01,6.57577e-01,9.99999e-01,9.99605e-01,6.57836e-01,9.99999e-01
4.441680220e-01,6.63101e-01,9.99999e-01,9.99697e-01,6.63301e-01,9.99999e-01
4.463888621e-01,6.68490e-01,9.99999e-01,9.99683e-01,6.68701e-01,9.99999e-01
4.486208064e-01,6.73906e-01,9.99999e-01,9.99804e-01,6.74038e-01,9.99999e-01
4.508639105e-01,6.79248e-01,9.99999e-01,9.99908e-01,6.79310e-01,9.99999e-01
4.531182300e-01,6.84494e-01,9.99999e-01,9.99963e-01,6.84518e-01,9.99999e-01
4.553838212e-01,6.89646e-01,9.99999e-01,9.99974e-01,6.89663e-01,9.99999e-01
4.576607403e-01,6.94735e-01,9.99999e-01,9.99988e-01,6.94743e-01,9.99999e-01
4.599490440e-01,6.99753e-01,9.99999e-01,9.99991e-01,6.99759e-01,9.99999e-01
4.622487892e-01,7.04710e-01,9.99999e-01,9.99998e-01,7.04711e-01,9.99999e-01
4.645600332e-01,7.09595e-01,9.99999e-01,9.99993e-01,7.09599e-01,9.99999e-01
4.668828333e-01,7.14357e-01,9.99999e-01,9.99906e-01,7.14424e-01,9.99999e-01
4.692172475e-01,7.19043e-01,9.99999e-01,9.99801e-01,7.19185e-01,9.99999e-01
4.715633337e-01,7.23789e-01,9.99999e-01,9.99869e-01,7.23883e-01,9.99999e-01
4.739211504e-01,7.28428e-01,9.99999e-01,9.99876e-01,7.28518e-01,9.99999e-01
4.762907561e-01,7.33043e-01,9.99999e-01,9.99935e-01,7.33090e-01,9.99999e-01
4.786722099e-01,7.37581e-01,9.99999e-01,9.99973e-01,7.37600e-01,9.99999e-01
4.810655710e-01,7.42042e-01,9.99999e-01,9.99991e-01,7.42048e-01,9.99999e-01
4.834708988e-01,7.46376e-01,9.99999e-01,9.99922e-01,7.46433e-01,9.99999e-01
4.858882533e-01,7.50653e-01,9.99999e-01,9.99859e-01,7.50758e-01,9.99999e-01
4.883176946e-01,7.54932e-01,9.99999e-01,9.99881e-01,7.55021e-01,9.99999e-01
4.907592831e-01,7.59143e-01,9.99999e-01,9.99893e-01,7.59223e-01,9.99999e-01
4.932130795e-01,7.63308e-01,9.99999e-01,9.99924e-01,7.63366e-01,9.99999e-01
4.956791449e-01,7.67417e-01,9.99999e-01,9.99959e-01,7.67448e-01,9.99999e-01
4.981575406e-01,7.71316e-01,9.99999e-01,9.99799e-01,7.71471e-01,9.99999e-01
5.006483283e-01,7.75028e-01,9.99999e-01,9.99478e-01,7.75435e-01,9.99996e-01
5.031515699e-01,7.77277e-01,9.99999e-01,9.97379e-01,7.79340e-01,9.99972e-01
5.056673278e-01,7.82083e-01,9.99999e-01,9.98620e-01,7.83187e-01,9.99968e-01
5.081956644e-01,7.85593e-01,9.99999e-01,9.98260e-01,7.86977e-01,9.99980e-01
5.107366428e-01,7.89779e-01,9.99999e-01,9.98825e-01,7.90710e-01,9.99996e-01
5.132903260e-01,7.93853e-01,9.99999e-01,9.99329e-01,7.94386e-01,9.99999e-01
5.158567776e-01,7.97780e-01,9.99999e-01,9.99716e-01,7.98006e-01,9.99999e-01
5.184360615e-01,8.01480e-01,9.99999e-01,9.99886e-01,8.01570e-01,9.99999e-01
5.210282418e-01,8.05046e-01,9.99999e-01,9.99956e-01,8.05080e-01,9.99999e-01
5.236333830e-01,8.08396e-01,9.99999e-01,9.99828e-01,8.08535e-01,9.99998e-01
5.262515499e-01,8.11849e-01,9.99999e-01,9.99892e-01,8.11936e-01,9.99997e-01
5.288828077e-01,8.15204e-01,9.99999e-01,9.99901e-01,8.15285e-01,9.99998e-01
5.315272217e-01,8.18510e-01,9.99999e-01,9.99913e-01,8.18580e-01,9.99999e-01
5.341848578e-01,8.21777e-01,9.99999e-01,9.99942e-01,8.21823e-01,9.99999e-01
5.368557821e-01,8.24850e-01,9.99999e-01,9.99799e-01,8.25015e-01,9.99999e-01
5.395400610e-01,8.27550e-01,9.99999e-01,9.99275e-01,8.28155e-01,9.99992e-01
5.422377613e-01,8.30463e-01,9.99999e-01,9.99075e-01,8.31245e-01,9.99982e-01
5.449489501e-01,8.33550e-01,9.99999e-01,9.99134e-01,8.34286e-01,9.99982e-01
5.476736949e-01,8.36633e-01,9.99999e-01,9.99239e-01,8.37277e-01,9.99991e-01
5.504120634e-01,8.39753e-01,9.99999e-01,9.99447e-01,8.40219e-01,9.99997e-01
5.531641237e-01,8.42879e-01,9.99999e-01,9.99721e-01,8.43113e-01,9.99999e-01
5.559299443e-01,8.45847e-01,9.99999e-01,9.99865e-01,8.45960e-01,9.99999e-01
5.587095940e-01,8.48688e-01,9.99999e-01,9.99915e-01,8.48760e-01,9.99999e-01
5.615031420e-01,8.51433e-01,9.99999e-01,9.99905e-01,8.51513e-01,9.99999e-01
5.643106577e-01,8.54129e-01,9.99999e-01,9.99891e-01,8.54221e-01,9.99998e-01
5.671322110e-01,8.55748e-01,9.99999e-01,9.98684e-01,8.56884e-01,9.99988e-01
5.699678720e-01,8.58299e-01,9.99999e-01,9.98634e-01,8.59502e-01,9.99964e-01
5.728177114e-01,8.60814e-01,9.99999e-01,9.98563e-01,8.62076e-01,9.99970e-01
5.756818000e-01,8.63456e-01,9.99999e-01,9.98684e-01,8.64607e-01,9.99982e-01
5.785602090e-01,8.66099e-01,9.99999e-01,9.98855e-01,8.67095e-01,9.99994e-01
5.814530100e-01,8.68538e-01,9.99999e-01,9.98847e-01,8.69541e-01,9.99997e-01
5.843602750e-01,8.70734e-01,9.99999e-01,9.98618e-01,8.71946e-01,9.99991e-01
5.872820764e-01,8.63893e-01,9.99999e-01,9.88168e-01,8.74309e-01,9.99916e-01
5.902184868e-01,8.63965e-01,9.99999e-01,9.85773e-01,8.76632e-01,9.99773e-01
5.931695792e-01,8.69860e-01,9.99999e-01,9.89912e-01,8.78914e-01,9.99781e-01
5.961354271e-01,8.71323e-01,9.99999e-01,9.88962e-01,8.81158e-01,9.99874e-01
5.991161043e-01,8.76213e-01,9.99999e-01,9.91944e-01,8.83363e-01,9.99960e-01
6.021116848e-01,8.81476e-01,9.99999e-01,9.95426e-01,8.85529e-01,9.99995e-01
6.051222432e-01,8.85603e-01,9.99999e-01,9.97684e-01,8.87658e-01,9.99999e-01
6.081478544e-01,8.88861e-01,9.99999e-01,9.98999e-01,8.89750e-01,9.99999e-01
6.111885937e-01,8.91429e-01,9.99999e-01,9.99577e-01,8.91806e-01,9.99999e-01
6.142445367e-01,8.93656e-01,9.99999e-01,9.99810e-01,8.93825e-01,9.99999e-01
6.173157594e-01,8.95715e-01,9.99999e-01,9.99895e-01,8.95809e-01,9.99999e-01
6.204023382e-01,8.97678e-01,9.99999e-01,9.99910e-01,8.97758e-01,9.99999e-01
6.235043498e-01,8.99316e-01,9.99999e-01,9.99604e-01,8.99672e-01,9.99998e-01
6.266218716e-01,8.99681e-01,9.99999e-01,9.97937e-01,9.01553e-01,9.99985e-01
6.297549810e-01,9.02691e-01,9.99999e-01,9.99242e-01,9.03401e-01,9.99970e-01
6.329037559e-01,9.03844e-01,9.99999e-01,9.98508e-01,9.05215e-01,9.99976e-01
6.360682746e-01,9.05829e-01,9.99999e-01,9.98724e-01,9.06997e-01,9.99985e-01
6.392486160e-01,9.07244e-01,9.99999e-01,9.98350e-01,9.08748e-01,9.99993e-01
6.424448591e-01,9.08434e-01,9.99999e-01,9.97776e-01,9.10467e-01,9.99988e-01
6.456570834e-01,9.02725e-01,9.99999e-01,9.89722e-01,9.12156e-01,9.99937e-01
6.488853688e-01,9.06853e-01,9.99999e-01,9.92540e-01,9.13814e-01,9.99840e-01
6.521297956e-01,9.08366e-01,9.99999e-01,9.92399e-01,9.15442e-01,9.99868e-01
6.553904446e-01,9.09979e-01,9.99999e-01,9.92396e-01,9.17041e-01,9.99901e-01
6.586673968e-01,9.12621e-01,9.99999e-01,9.93511e-01,9.18611e-01,9.99966e-01
6.619607338e-01,9.16815e-01,9.99999e-01,9.96379e-01,9.20152e-01,9.99992e-01
6.652705375e-01,9.19659e-01,9.99999e-01,9.97825e-01,9.21666e-01,9.99995e-01
6.685968902e-01,9.22299e-01,9.99999e-01,9.99075e-01,9.23152e-01,9.99998e-01
6.719398746e-01,9.24179e-01,9.99999e-01,9.99531e-01,9.24612e-01,9.99999e-01
6.752995740e-01,9.25815e-01,9.99999e-01,9.99752e-01,9.26044e-01,9.99999e-01
6.786760719e-01,9.27107e-01,9.99999e-01,9.99629e-01,9.27451e-01,9.99998e-01
6.820694522e-01,9.28243e-01,9.99999e-01,9.99369e-01,9.28831e-01,9.99996e-01
6.854797995e-01,9.29424e-01,9.99999e-01,9.99186e-01,9.30187e-01,9.99992e-01
6.889071985e-01,9.29646e-01,9.99999e-01,9.98008e-01,9.31517e-01,9.99981e-01
6.923517345e-01,9.03074e-01,9.99999e-01,9.68256e-01,9.32824e-01,9.99845e-01
6.958134932e-01,9.18546e-01,9.99999e-01,9.83676e-01,9.34106e-01,9.99659e-01
6.992925606e-01,9.20289e-01,9.99999e-01,9.84184e-01,9.35364e-01,9.99692e-01
7.027890234e-01,9.18251e-01,9.99999e-01,9.80638e-01,9.36600e-01,9.99765e-01
7.063029686e-01,9.22396e-01,9.99999e-01,9.83675e-01,9.37812e-01,9.99883e-01
7.098344834e-01,9.24224e-01,9.99999e-01,9.84329e-01,9.39002e-01,9.99930e-01
7.133836558e-01,9.20289e-01,9.99999e-01,9.78986e-01,9.40170e-01,9.99862e-01
7.169505741e-01,7.94923e-01,9.99999e-01,8.45390e-01,9.41317e-01,9.98922e-01
7.205353270e-01,8.67258e-01,9.99999e-01,9.21975e-01,9.42442e-01,9.98099e-01
7.241380036e-01,8.48279e-01,9.99999e-01,9.00510e-01,9.43546e-01,9.98358e-01
7.277586936e-01,8.58344e-01,9.99999e-01,9.09877e-01,9.44630e-01,9.98657e-01
7.313974871e-01,8.54978e-01,9.99999e-01,9.04643e-01,9.45693e-01,9.99370e-01
7.350544745e-01,8.95946e-01,9.99999e-01,9.46558e-01,9.46737e-01,9.99781e-01
7.387297469e-01,9.10094e-01,9.99999e-01,9.60352e-01,9.47761e-01,9.99899e-01
7.424233956e-01,9.30179e-01,9.99999e-01,9.80426e-01,9.48766e-01,9.99982e-01
7.461355126e-01,9.38424e-01,9.99999e-01,9.88075e-01,9.49752e-01,9.99996e-01
7.498661902e-01,9.45437e-01,9.99999e-01,9.94444e-01,9.50719e-01,9.99998e-01
7.536155211e-01,9.49065e-01,9.99999e-01,9.97264e-01,9.51669e-01,9.99998e-01
7.573835987e-01,9.51259e-01,9.99999e-01,9.98591e-01,9.52601e-01,9.99999e-01
7.611705167e-01,9.52680e-01,9.99999e-01,9.99124e-01,9.53515e-01,9.99999e-01
7.649763693e-01,9.53887e-01,9.99999e-01,9.99450e-01,9.54412e-01,9.99999e-01
7.688012511e-01,9.54926e-01,9.99999e-01,9.99616e-01,9.55292e-01,9.99999e-01
7.726452574e-01,9.55854e-01,9.99999e-01,9.99684e-01,9.56155e-01,9.99999e-01
7.765084837e-01,9.56570e-01,9.99999e-01,9.99548e-01,9.57002e-01,9.99998e-01
7.803910261e-01,9.55963e-01,9.99999e-01,9.98049e-01,9.57833e-01,9.99997e-01
7.842929812e-01,9.52124e-01,9.99999e-01,9.93205e-01,9.58649e-01,9.99987e-01
7.882144461e-01,9.46069e-01,9.99999e-01,9.86148e-01,9.59449e-01,9.99904e-01
7.921555184e-01,9.52795e-01,9.99999e-01,9.92418e-01,9.60234e-01,9.99833e-01
7.961162960e-01,9.47887e-01,9.99999e-01,9.86506e-01,9.61003e-01,9.99841e-01
8.000968774e-01,9.46687e-01,9.99999e-01,9.84494e-01,9.61759e-01,9.99831e-01
8.040973618e-01,9.47436e-01,9.99999e-01,9.84474e-01,9.62500e-01,9.99871e-01
8.081178486e-01,9.29613e-01,9.99999e-01,9.65228e-01,9.63227e-01,9.99869e-01
8.121584379e-01,8.32257e-01,9.99999e-01,8.63815e-01,9.63940e-01,9.99507e-01
8.162192301e-01,8.10788e-01,9.99999e-01,8.42064e-01,9.64639e-01,9.98150e-01
8.203003262e-01,8.84462e-01,9.99999e-01,9.18218e-01,9.65326e-01,9.97835e-01
8.244018279e-01,8.58888e-01,9.99999e-01,8.90653e-01,9.65999e-01,9.98276e-01
8.285238370e-01,8.70308e-01,9.99999e-01,9.01545e-01,9.66659e-01,9.98646e-01
8.326664562e-01,8.71074e-01,9.99999e-01,9.01019e-01,9.67307e-01,9.99439e-01
8.368297885e-01,8.98156e-01,9.99999e-01,9.28021e-01,9.67942e-01,9.99871e-01
8.410139374e-01,9.26418e-01,9.99999e-01,9.56556e-01,9.68565e-01,9.99924e-01
8.452190071e-01,9.48261e-01,9.99999e-01,9.78463e-01,9.69176e-01,9.99954e-01
8.494451021e-01,9.57528e-01,9.99999e-01,9.87405e-01,9.69776e-01,9.99963e-01
8.536923276e-01,9.63119e-01,9.99999e-01,9.92555e-01,9.70364e-01,9.99977e-01
8.579607893e-01,9.66468e-01,9.99999e-01,9.95397e-01,9.70941e-01,9.99994e-01
8.622505932e-01,9.68669e-01,9.99999e-01,9.97079e-01,9.71506e-01,9.99998e-01
8.665618462e-01,9.70299e-01,9.99999e-01,9.98187e-01,9.72061e-01,9.99998e-01
8.708946554e-01,9.70582e-01,9.99999e-01,9.97920e-01,9.72605e-01,9.99998e-01
8.752491287e-01,9.70433e-01,9.99999e-01,9.97221e-01,9.73139e-01,9.99996e-01
8.796253743e-01,9.69900e-01,9.99999e-01,9.96143e-01,9.73663e-01,9.99990e-01
8.840235012e-01,9.69864e-01,9.99999e-01,9.95599e-01,9.74176e-01,9.99972e-01
8.884436187e-01,9.58872e-01,9.99999e-01,9.83856e-01,9.74680e-01,9.99923e-01
8.928858368e-01,8.23969e-01,9.99999e-01,8.45316e-01,9.75173e-01,9.99560e-01
8.973502660e-01,7.25893e-01,9.99999e-01,7.45680e-01,9.75658e-01,9.97751e-01
9.018370173e-01,8.38307e-01,9.99999e-01,8.61848e-01,9.76133e-01,9.96466e-01
9.063462024e-01,8.52101e-01,9.99999e-01,8.75235e-01,9.76599e-01,9.96895e-01
9.108779334e-01,7.92030e-01,9.99999e-01,8.13252e-01,9.77056e-01,9.96773e-01
9.154323231e-01,7.70512e-01,9.99999e-01,7.90352e-01,9.77504e-01,9.97332e-01
9.200094847e-01,8.12976e-01,9.99999e-01,8.32554e-01,9.77943e-01,9.98506e-01
9.246095321e-01,7.37522e-01,9.99999e-01,7.55123e-01,9.78374e-01,9.98278e-01
9.292325798e-01,1.70651e-01,9.99999e-01,1.75803e-01,9.78797e-01,9.91719e-01
9.338787427e-01,1.01702e-01,9.99999e-01,1.07030e-01,9.79211e-01,9.70391e-01
9.385481364e-01,3.81203e-01,9.99999e-01,4.02199e-01,9.79617e-01,9.67517e-01
9.432408771e-01,2.79424e-01,9.99999e-01,2.93361e-01,9.80016e-01,9.71913e-01
9.479570815e-01,1.75512e-01,9.99999e-01,1.83219e-01,9.80407e-01,9.77080e-01
9.526968669e-01,2.60067e-01,9.99999e-01,2.68937e-01,9.80790e-01,9.85957e-01
9.574603512e-01,2.78154e-01,9.99999e-01,2.85537e-01,9.81166e-01,9.92841e-01
9.622476530e-01,3.46474e-01,9.99999e-01,3.54750e-01,9.81534e-01,9.95044e-01
9.670588912e-01,5.34554e-01,9.99999e-01,5.46262e-01,9.81896e-01,9.96608e-01
9.718941857e-01,6.63853e-01,9.99999e-01,6.77541e-01,9.82250e-01,9.97502e-01
9.767536566e-01,7.09443e-01,9.99999e-01,7.23387e-01,9.82598e-01,9.98090e-01
9.816374249e-01,7.72116e-01,9.99999e-01,7.86037e-01,9.82938e-01,9.99338e-01
9.865456120e-01,8.45456e-01,9.99999e-01,8.59956e-01,9.83273e-01,9.99861e-01
9.914783401e-01,8.95745e-01,9.99999e-01,9.10713e-01,9.83600e-01,9.99961e-01
9.964357318e-01,9.35043e-01,9.99999e-01,9.50343e-01,9.83922e-01,9.99977e-01
1.001417910e+00,9.54609e-01,9.99999e-01,9.69930e-01,9.84237e-01,9.99965e-01
1.006425000e+00,9.67477e-01,9.99999e-01,9.82711e-01,9.84546e-01,9.99950e-01
1.011457125e+00,9.74227e-01,9.99999e-01,9.89259e-01,9.84848e-01,9.99954e-01
1.016514411e+00,9.77910e-01,9.99999e-01,9.92686e-01,9.85145e-01,9.99967e-01
1.021596983e+00,9.79657e-01,9.99999e-01,9.94165e-01,9.85437e-01,9.99968e-01
1.026704968e+00,9.81214e-01,9.99999e-01,9.95444e-01,9.85722e-01,9.99979e-01
1.031838492e+00,9.82737e-01,9.99999e-01,9.96693e-01,9.86002e-01,9.99993e-01
1.036997685e+00,9.84335e-01,9.99999e-01,9.98031e-01,9.86277e-01,9.99998e-01
1.042182673e+00,9.84223e-01,9.99999e-01,9.97645e-01,9.86546e-01,9.99999e-01
1.047393587e+00,9.83735e-01,9.99999e-01,9.96883e-01,9.86810e-01,9.99998e-01
1.052630555e+00,9.82845e-01,9.99999e-01,9.95721e-01,9.87069e-01,9.99998e-01
1.057893707e+00,9.80269e-01,9.99999e-01,9.92857e-01,9.87323e-01,9.99997e-01
1.063183176e+00,9.75997e-01,9.99999e-01,9.88285e-01,9.87571e-01,9.99993e-01
1.068499092e+00,9.68529e-01,9.99999e-01,9.80487e-01,9.87815e-01,9.99986e-01
1.073841587e+00,9.65488e-01,9.99999e-01,9.77188e-01,9.88055e-01,9.99970e-01
1.079210795e+00,9.59478e-01,9.99999e-01,9.70923e-01,9.88289e-01,9.99920e-01
1.084606849e+00,9.45130e-01,9.99999e-01,9.56287e-01,9.88519e-01,9.99810e-01
1.090029883e+00,9.26705e-01,9.99999e-01,9.37621e-01,9.88745e-01,9.99607e-01
1.095480033e+00,8.29582e-01,9.99999e-01,8.39432e-01,9.88966e-01,9.99290e-01
1.100957433e+00,6.36476e-01,9.99999e-01,6.44276e-01,9.89182e-01,9.98694e-01
1.106462220e+00,3.37066e-01,9.99999e-01,3.41434e-01,9.89395e-01,9.97787e-01
1.111994531e+00,1.09795e-01,9.99999e-01,1.11603e-01,9.89603e-01,9.94137e-01
1.117554504e+00,3.16304e-02,9.99999e-01,3.26417e-02,9.89808e-01,9.78995e-01
1.123142276e+00,9.13963e-02,9.99999e-01,9.70850e-02,9.90008e-01,9.50905e-01
1.128757988e+00,1.82287e-01,9.99999e-01,1.95128e-01,9.90204e-01,9.43427e-01
1.134401778e+00,8.32198e-02,9.99999e-01,8.82921e-02,9.90397e-01,9.51687e-01
1.140073787e+00,3.42510e-01,9.99999e-01,3.59719e-01,9.90586e-01,9.61208e-01
1.145774156e+00,1.31279e-01,9.99999e-01,1.37388e-01,9.90771e-01,9.64432e-01
1.151503026e+00,1.08008e-01,9.99999e-01,1.11215e-01,9.90952e-01,9.80027e-01
1.157260541e+00,1.37502e-01,9.99999e-01,1.39572e-01,9.91130e-01,9.93985e-01
1.163046844e+00,2.28112e-01,9.99999e-01,2.30507e-01,9.91304e-01,9.98291e-01
1.168862078e+00,3.46419e-01,9.99999e-01,3.49705e-01,9.91475e-01,9.99119e-01
1.174706389e+00,5.16580e-01,9.99999e-01,5.21541e-01,9.91643e-01,9.98832e-01
1.180579921e+00,6.64507e-01,9.99999e-01,6.71179e-01,9.91808e-01,9.98235e-01
1.186482820e+00,7.88921e-01,9.99999e-01,7.96750e-01,9.91969e-01,9.98189e-01
1.192415234e+00,8.67311e-01,9.99999e-01,8.75380e-01,9.92127e-01,9.98643e-01
1.198377311e+00,8.85758e-01,9.99999e-01,8.93792e-01,9.92282e-01,9.98718e-01
1.204369197e+00,8.91740e-01,9.99999e-01,8.99580e-01,9.92433e-01,9.98840e-01
1.210391043e+00,8.96251e-01,9.99999e-01,9.03584e-01,9.92582e-01,9.99294e-01
1.216442998e+00,9.10448e-01,9.99999e-01,9.17513e-01,9.92728e-01,9.99567e-01
1.222525213e+00,9.28104e-01,9.99999e-01,9.35018e-01,9.92871e-01,9.99731e-01
1.228637839e+00,9.47586e-01,9.99999e-01,9.54373e-01,9.93012e-01,9.99874e-01
1.234781029e+00,9.59305e-01,9.99999e-01,9.65956e-01,9.93149e-01,9.99963e-01
1.240954934e+00,9.71738e-01,9.99999e-01,9.78318e-01,9.93284e-01,9.99989e-01
1.247159708e+00,9.76606e-01,9.99999e-01,9.83084e-01,9.93416e-01,9.99993e-01
1.253395507e+00,9.78585e-01,9.99999e-01,9.84949e-01,9.93546e-01,9.99991e-01
1.259662485e+00,9.79422e-01,9.99999e-01,9.85670e-01,9.93673e-01,9.99986e-01
1.265960797e+00,9.71166e-01,9.99999e-01,9.77248e-01,9.93797e-01,9.99977e-01
1.272290601e+00,9.58505e-01,9.99999e-01,9.64406e-01,9.93920e-01,9.99960e-01
1.278652054e+00,9.25038e-01,9.99999e-01,9.30649e-01,9.94039e-01,9.99929e-01
1.285045314e+00,8.72786e-01,9.99999e-01,8.78029e-01,9.94157e-01,9.99869e-01
1.291470541e+00,7.92696e-01,9.99999e-01,7.97444e-01,9.94272e-01,9.99771e-01
1.297927893e+00,7.21359e-01,9.99999e-01,7.25740e-01,9.94385e-01,9.99573e-01
1.304417533e+00,6.82866e-01,9.99999e-01,6.87265e-01,9.94495e-01,9.99097e-01
1.310939621e+00,6.18260e-01,9.99999e-01,6.22767e-01,9.94604e-01,9.98148e-01
1.317494319e+00,6.23510e-01,9.99999e-01,6.28977e-01,9.94710e-01,9.96578e-01
1.324081790e+00,5.01894e-01,9.99999e-01,5.07341e-01,9.94814e-01,9.94419e-01
1.330702199e+00,1.26781e-01,9.99999e-01,1.28664e-01,9.94916e-01,9.90396e-01
1.337355710e+00,2.32438e-03,9.99999e-01,2.37984e-03,9.95016e-01,9.81588e-01
1.344042489e+00,3.86583e-05,9.99999e-01,4.10845e-05,9.95115e-01,9.45565e-01
1.350762701e+00,6.47251e-14,9.99999e-01,7.87740e-14,9.95211e-01,8.25608e-01
1.357516515e+00,1.32383e-20,9.99999e-01,2.33413e-20,9.95305e-01,5.69835e-01
1.364304097e+00,4.31916e-13,9.99999e-01,1.16270e-12,9.95398e-01,3.73192e-01
1.371125618e+00,1.84569e-08,9.99999e-01,4.69575e-08,9.95488e-01,3.94837e-01
1.377981246e+00,6.71525e-08,9.99999e-01,1.49601e-07,9.95577e-01,4.50871e-01
1.384871152e+00,4.44865e-11,9.99999e-01,9.38590e-11,9.95664e-01,4.76034e-01
1.391795508e+00,4.42436e-13,9.99999e-01,9.01530e-13,9.95750e-01,4.92855e-01
1.398754485e+00,2.56264e-10,9.99999e-01,4.61664e-10,9.95834e-01,5.57409e-01
1.405748258e+00,3.48693e-10,9.99999e-01,4.92726e-10,9.95916e-01,7.10582e-01
1.412776999e+00,5.72419e-10,9.99999e-01,6.71744e-10,9.95996e-01,8.55562e-01
1.419840884e+00,1.14649e-09,9.99999e-01,1.23248e-09,9.96075e-01,9.33886e-01
1.426940089e+00,6.39135e-07,9.99998e-01,6.75825e-07,9.96152e-01,9.49361e-01
1.434074789e+00,6.39210e-06,9.99999e-01,6.82205e-06,9.96228e-01,9.40521e-01
1.441245163e+00,5.40513e-05,9.99999e-01,5.79776e-05,9.96303e-01,9.35738e-01
1.448451389e+00,1.21057e-03,9.99998e-01,1.28772e-03,9.96376e-01,9.43502e-01
1.455693646e+00,1.01907e-02,9.99999e-01,1.07005e-02,9.96447e-01,9.55756e-01
1.462972114e+00,1.48791e-02,9.99999e-01,1.55896e-02,9.96517e-01,9.57760e-01
1.470286975e+00,7.99912e-03,9.99999e-01,8.37435e-03,9.96586e-01,9.58464e-01
