#,Wave/freq,Total,N2,H2O,Rayleigh,CIA
4.000000000e-01,9.88767e-02,9.99999e-01,9.99738e-01,9.89025e-02,9.99999e-01
4.020000000e-01,1.03515e-01,9.99999e-01,9.99837e-01,1.03532e-01,9.99999e-01
4.040100000e-01,1.08268e-01,9.99999e-01,9.99930e-01,1.08275e-01,9.99999e-01
4.060300500e-01,1.13134e-01,9.99999e-01,9.99983e-01,1.13136e-01,9.99999e-01
4.080602003e-01,1.18111e-01,9.99999e-01,9.99994e-01,1.18112e-01,9.99999e-01
4.101005013e-01,1.23202e-01,9.99999e-01,9.99999e-01,1.23202e-01,9.99999e-01
4.121510038e-01,1.28403e-01,9.99999e-01,9.99989e-01,1.28405e-01,9.99999e-01
4.142117588e-01,1.33708e-01,9.99999e-01,9.99927e-01,1.33718e-01,9.99999e-01
4.162828176e-01,1.39094e-01,9.99999e-01,9.99676e-01,1.39139e-01,9.99999e-01
4.183642317e-01,1.44639e-01,9.99999e-01,9.99807e-01,1.44666e-01,9.99999e-01
4.204560528e-01,1.50280e-01,9.99999e-01,9.99881e-01,1.50298e-01,9.99999e-01
4.225583331e-01,1.56024e-01,9.99999e-01,9.99955e-01,1.56031e-01,9.99999e-01
4.246711247e-01,1.61857e-01,9.99999e-01,9.99964e-01,1.61862e-01,9.99999e-01
4.267944804e-01,1.67782e-01,9.99999e-01,9.99947e-01,1.67790e-01,9.99999e-01
4.289284528e-01,1.73805e-01,9.99999e-01,9.99959e-01,1.73812e-01,9.99999e-01
4.310730950e-01,1.79921e-01,9.99999e-01,9.99982e-01,1.79924e-01,9.99999e-01
4.332284605e-01,1.86124e-01,9.99999e-01,9.99995e-01,1.86125e-01,9.99999e-01
4.353946028e-01,1.92409e-01,9.99999e-01,9.99997e-01,1.92410e-01,9.99999e-01
4.375715758e-01,1.98770e-01,9.99999e-01,9.99967e-01,1.98777e-01,9.99999e-01
4.397594337e-01,2.05164e-01,9.99999e-01,9.99716e-01,2.05222e-01,9.99999e-01
4.419582309e-01,2.11439e-01,9.99999e-01,9.98562e-01,2.11743e-01,9.99999e-01
4.441680220e-01,2.18091e-01,9.99999e-01,9.98873e-01,2.18337e-01,9.99999e-01
4.463888621e-01,2.24736e-01,9.99999e-01,9.98829e-01,2.24999e-01,9.99999e-01
4.486208064e-01,2.31558e-01,9.99999e-01,9.99271e-01,2.31727e-01,9.99999e-01
4.508639105e-01,2.38436e-01,9.99999e-01,9.99659e-01,2.38517e-01,9.99999e-01
4.531182300e-01,2.45333e-01,9.99999e-01,9.99865e-01,2.45366e-01,9.99999e-01
4.553838212e-01,2.52248e-01,9.99999e-01,9.99908e-01,2.52271e-01,9.99999e-01
4.576607403e-01,2.59217e-01,9.99999e-01,9.99957e-01,2.59228e-01,9.99999e-01
4.599490440e-01,2.66226e-01,9.99999e-01,9.99969e-01,2.66234e-01,9.99999e-01
4.622487892e-01,2.73284e-01,9.99999e-01,9.99994e-01,2.73285e-01,9.99999e-01
4.645600332e-01,2.80373e-01,9.99999e-01,9.99979e-01,2.80378e-01,9.99999e-01
4.668828333e-01,2.87411e-01,9.99999e-01,9.99656e-01,2.87510e-01,9.99999e-01
4.692172475e-01,2.94460e-01,9.99999e-01,9.99265e-01,2.94677e-01,9.99999e-01
4.715633337e-01,3.01730e-01,9.99999e-01,9.99519e-01,3.01875e-01,9.99999e-01
4.739211504e-01,3.08960e-01,9.99999e-01,9.99540e-01,3.09102e-01,9.99999e-01
4.762907561e-01,3.16279e-01,9.99999e-01,9.99761e-01,3.16354e-01,9.99999e-01
4.786722099e-01,3.23597e-01,9.99999e-01,9.99902e-01,3.23628e-01,9.99999e-01
4.810655710e-01,3.30911e-01,9.99999e-01,9.99970e-01,3.30921e-01,9.99999e-01
4.834708988e-01,3.38134e-01,9.99999e-01,9.99719e-01,3.38229e-01,9.99999e-01
4.858882533e-01,3.45370e-01,9.99999e-01,9.99479e-01,3.45550e-01,9.99999e-01
4.883176946e-01,3.52726e-01,9.99999e-01,9.99565e-01,3.52879e-01,9.99999e-01
4.907592831e-01,3.60073e-01,9.99999e-01,9.99606e-01,3.60215e-01,9.99999e-01
4.932130795e-01,3.67451e-01,9.99999e-01,9.99720e-01,3.67553e-01,9.99999e-01
4.956791449e-01,3.74837e-01,9.99999e-01,9.99852e-01,3.74892e-01,9.99999e-01
4.981575406e-01,3.81946e-01,9.99999e-01,9.99262e-01,3.82228e-01,9.99999e-01
5.006483283e-01,3.88811e-01,9.99999e-01,9.98091e-01,3.89559e-01,9.99986e-01
5.031515699e-01,3.93016e-01,9.99999e-01,9.90361e-01,3.96881e-01,9.99897e-01
5.056673278e-01,4.02081e-01,9.99999e-01,9.94893e-01,4.04192e-01,9.99883e-01
5.081956644e-01,4.08808e-01,9.99999e-01,9.93559e-01,4.11489e-01,9.99924e-01
5.107366428e-01,4.16942e-01,9.99999e-01,9.95647e-01,4.18770e-01,9.99985e-01
5.132903260e-01,4.24971e-01,9.99999e-01,9.97509e-01,4.26032e-01,9.99997e-01
5.158567776e-01,4.32818e-01,9.99999e-01,9.98947e-01,4.33273e-01,9.99999e-01
5.184360615e-01,4.40305e-01,9.99999e-01,9.99578e-01,4.40491e-01,9.99999e-01
5.210282418e-01,4.47612e-01,9.99999e-01,9.99842e-01,4.47682e-01,9.99999e-01
5.236333830e-01,4.54557e-01,9.99999e-01,9.99367e-01,4.54846e-01,9.99995e-01
5.262515499e-01,4.61794e-01,9.99999e-01,9.99604e-01,4.61979e-01,9.99993e-01
5.288828077e-01,4.68908e-01,9.99999e-01,9.99637e-01,4.69080e-01,9.99995e-01
5.315272217e-01,4.75994e-01,9.99999e-01,9.99680e-01,4.76146e-01,9.99998e-01
5.341848578e-01,4.83076e-01,9.99999e-01,9.99791e-01,4.83177e-01,9.99999e-01
5.368557821e-01,4.89808e-01,9.99999e-01,9.99264e-01,4.90169e-01,9.99997e-01
5.395400610e-01,4.95794e-01,9.99999e-01,9.97352e-01,4.97121e-01,9.99977e-01
5.422377613e-01,5.02272e-01,9.99999e-01,9.96569e-01,5.04031e-01,9.99937e-01
5.449489501e-01,5.09238e-01,9.99999e-01,9.96812e-01,5.10899e-01,9.99935e-01
5.476736949e-01,5.16242e-01,9.99999e-01,9.97173e-01,5.17721e-01,9.99968e-01
5.504120634e-01,5.23417e-01,9.99999e-01,9.97948e-01,5.24497e-01,9.99990e-01
5.531641237e-01,5.30677e-01,9.99999e-01,9.98967e-01,5.31226e-01,9.99998e-01
5.559299443e-01,5.37637e-01,9.99999e-01,9.99501e-01,5.37905e-01,9.99999e-01
5.587095940e-01,5.44364e-01,9.99999e-01,9.99687e-01,5.44534e-01,9.99999e-01
5.615031420e-01,5.50919e-01,9.99999e-01,9.99651e-01,5.51111e-01,9.99998e-01
5.643106577e-01,5.57414e-01,9.99999e-01,9.99606e-01,5.57635e-01,9.99996e-01
5.671322110e-01,5.61395e-01,9.99999e-01,9.95238e-01,5.64105e-01,9.99957e-01
5.699678720e-01,5.67542e-01,9.99999e-01,9.94908e-01,5.70521e-01,9.99869e-01
5.728177114e-01,5.73762e-01,9.99999e-01,9.94702e-01,5.76880e-01,9.99891e-01
5.756818000e-01,5.80308e-01,9.99999e-01,9.95135e-01,5.83183e-01,9.99933e-01
5.785602090e-01,5.86916e-01,9.99999e-01,9.95758e-01,5.89428e-01,9.99979e-01
5.814530100e-01,5.93073e-01,9.99999e-01,9.95741e-01,5.95615e-01,9.99990e-01
5.843602750e-01,5.98677e-01,9.99999e-01,9.94934e-01,6.01742e-01,9.99971e-01
5.872820764e-01,5.81783e-01,9.99999e-01,9.57474e-01,6.07809e-01,9.99691e-01
5.902184868e-01,5.81583e-01,9.99999e-01,9.48280e-01,6.13816e-01,9.99161e-01
5.931695792e-01,5.96573e-01,9.99999e-01,9.63359e-01,6.19763e-01,9.99193e-01
5.961354271e-01,6.00200e-01,9.99999e-01,9.59770e-01,6.25647e-01,9.99536e-01
5.991161043e-01,6.12716e-01,9.99999e-01,9.70441e-01,6.31469e-01,9.99856e-01
6.021116848e-01,6.26459e-01,9.99999e-01,9.83113e-01,6.37230e-01,9.99982e-01
6.051222432e-01,6.37409e-01,9.99999e-01,9.91418e-01,6.42927e-01,9.99998e-01
6.081478544e-01,6.46155e-01,9.99999e-01,9.96290e-01,6.48561e-01,9.99999e-01
6.111885937e-01,6.53104e-01,9.99999e-01,9.98428e-01,6.54132e-01,9.99999e-01
6.142445367e-01,6.59176e-01,9.99999e-01,9.99298e-01,6.59639e-01,9.99999e-01
6.173157594e-01,6.64825e-01,9.99999e-01,9.99612e-01,6.65082e-01,9.99999e-01
6.204023382e-01,6.70242e-01,9.99999e-01,9.99672e-01,6.70462e-01,9.99999e-01
6.235043498e-01,6.74803e-01,9.99999e-01,9.98561e-01,6.75777e-01,9.99996e-01
6.266218716e-01,6.75809e-01,9.99999e-01,9.92388e-01,6.81029e-01,9.99946e-01
6.297549810e-01,6.84223e-01,9.99999e-01,9.97202e-01,6.86216e-01,9.99892e-01
6.329037559e-01,6.87458e-01,9.99999e-01,9.94471e-01,6.91339e-01,9.99913e-01
6.360682746e-01,6.93087e-01,9.99999e-01,9.95295e-01,6.96398e-01,9.99948e-01
6.392486160e-01,6.97101e-01,9.99999e-01,9.93902e-01,7.01393e-01,9.99977e-01
6.424448591e-01,7.00555e-01,9.99999e-01,9.91867e-01,7.06324e-01,9.99963e-01
6.456570834e-01,6.84644e-01,9.99999e-01,9.62873e-01,7.11192e-01,9.99789e-01
6.488853688e-01,6.96020e-01,9.99999e-01,9.72672e-01,7.15996e-01,9.99411e-01
6.521297956e-01,7.00361e-01,9.99999e-01,9.72202e-01,7.20736e-01,9.99514e-01
6.553904446e-01,7.04990e-01,9.99999e-01,9.72196e-01,7.25413e-01,9.99638e-01
6.586673968e-01,7.12544e-01,9.99999e-01,9.76167e-01,7.30027e-01,9.99878e-01
6.619607338e-01,7.24372e-01,9.99999e-01,9.86130e-01,7.34579e-01,9.99973e-01
6.652705375e-01,7.33105e-01,9.99999e-01,9.91943e-01,7.39068e-01,9.99986e-01
6.685968902e-01,7.40706e-01,9.99999e-01,9.96249e-01,7.43496e-01,9.99997e-01
6.719398746e-01,7.46561e-01,9.99999e-01,9.98260e-01,7.47861e-01,9.99999e-01
6.752995740e-01,7.51457e-01,9.99999e-01,9.99057e-01,7.52165e-01,9.99999e-01
6.786760719e-01,7.55380e-01,9.99999e-01,9.98640e-01,7.56409e-01,9.99997e-01
6.820694522e-01,7.58812e-01,9.99999e-01,9.97672e-01,7.60591e-01,9.99987e-01
6.854797995e-01,7.62399e-01,9.99999e-01,9.96998e-01,7.64714e-01,9.99973e-01
6.889071985e-01,7.63180e-01,9.99999e-01,9.92784e-01,7.68776e-01,9.99934e-01
6.923517345e-01,6.86771e-01,9.99999e-01,8.89207e-01,7.72780e-01,9.99431e-01
6.958134932e-01,7.29763e-01,9.99999e-01,9.40722e-01,7.76724e-01,9.98740e-01
6.992925606e-01,7.35519e-01,9.99999e-01,9.43304e-01,7.80611e-01,9.98865e-01
7.027890234e-01,7.29167e-01,9.99999e-01,9.30344e-01,7.84439e-01,9.99133e-01
7.063029686e-01,7.41334e-01,9.99999e-01,9.40933e-01,7.88210e-01,9.99568e-01
7.098344834e-01,7.46750e-01,9.99999e-01,9.43196e-01,7.91924e-01,9.99744e-01
7.133836558e-01,7.36225e-01,9.99999e-01,9.25861e-01,7.95581e-01,9.99492e-01
7.169505741e-01,4.45683e-01,9.99999e-01,5.59902e-01,7.99183e-01,9.96018e-01
7.205353270e-01,5.94916e-01,9.99999e-01,7.46350e-01,8.02730e-01,9.92985e-01
7.241380036e-01,5.51475e-01,9.99999e-01,6.88193e-01,8.06221e-01,9.93939e-01
7.277586936e-01,5.75335e-01,9.99999e-01,7.14128e-01,8.09659e-01,9.95043e-01
7.313974871e-01,5.63478e-01,9.99999e-01,6.94663e-01,8.13043e-01,9.97675e-01
7.350544745e-01,6.67144e-01,9.99999e-01,8.17865e-01,8.16373e-01,9.99191e-01
7.387297469e-01,7.05731e-01,9.99999e-01,8.61332e-01,8.19651e-01,9.99629e-01
7.424233956e-01,7.64587e-01,9.99999e-01,9.29228e-01,8.22878e-01,9.99928e-01
7.461355126e-01,7.90061e-01,9.99999e-01,9.56441e-01,8.26052e-01,9.99986e-01
7.498661902e-01,8.12138e-01,9.99999e-01,9.79455e-01,8.29176e-01,9.99995e-01
7.536155211e-01,8.23818e-01,9.99999e-01,9.89870e-01,8.32250e-01,9.99996e-01
7.573835987e-01,8.30908e-01,9.99999e-01,9.94773e-01,8.35274e-01,9.99998e-01
7.611705167e-01,8.35525e-01,9.99999e-01,9.96749e-01,8.38249e-01,9.99999e-01
7.649763693e-01,8.39461e-01,9.99999e-01,9.97962e-01,8.41175e-01,9.99999e-01
7.688012511e-01,8.42856e-01,9.99999e-01,9.98580e-01,8.44054e-01,9.99999e-01
7.726452574e-01,8.45896e-01,9.99999e-01,9.98832e-01,8.46885e-01,9.99998e-01
7.765084837e-01,8.48261e-01,9.99999e-01,9.98342e-01,8.49670e-01,9.99997e-01
7.803910261e-01,8.46317e-01,9.99999e-01,9.92860e-01,8.52408e-01,9.99992e-01
7.842929812e-01,8.33973e-01,9.99999e-01,9.75336e-01,8.55101e-01,9.99953e-01
7.882144461e-01,8.14383e-01,9.99999e-01,9.49740e-01,8.57749e-01,9.99684e-01
7.921555184e-01,8.35864e-01,9.99999e-01,9.72128e-01,8.60353e-01,9.99389e-01
7.961162960e-01,8.20520e-01,9.99999e-01,9.51428e-01,8.62913e-01,9.99415e-01
8.000968774e-01,8.16296e-01,9.99999e-01,9.43812e-01,8.65430e-01,9.99377e-01
8.040973618e-01,8.18798e-01,9.99999e-01,9.43885e-01,8.67904e-01,9.99505e-01
8.081178486e-01,7.65082e-01,9.99999e-01,8.79471e-01,8.70336e-01,9.99536e-01
8.121584379e-01,5.18966e-01,9.99999e-01,5.95732e-01,8.72727e-01,9.98180e-01
8.162192301e-01,4.72292e-01,9.99999e-01,5.43423e-01,8.75077e-01,9.93174e-01
8.203003262e-01,6.53708e-01,9.99999e-01,7.51060e-01,8.77386e-01,9.92012e-01
8.244018279e-01,5.95255e-01,9.99999e-01,6.81023e-01,8.79656e-01,9.93638e-01
8.285238370e-01,6.04494e-01,9.99999e-01,6.88899e-01,8.81887e-01,9.95000e-01
8.326664562e-01,6.06811e-01,9.99999e-01,6.87800e-01,8.84079e-01,9.97929e-01
8.368297885e-01,6.73687e-01,9.99999e-01,7.60528e-01,8.86233e-01,9.99526e-01
8.410139374e-01,7.53930e-01,9.99999e-01,8.48920e-01,8.88350e-01,9.99722e-01
8.452190071e-01,8.21201e-01,9.99999e-01,9.22404e-01,8.90430e-01,9.99834e-01
8.494451021e-01,8.51416e-01,9.99999e-01,9.54122e-01,8.92473e-01,9.99866e-01
8.536923276e-01,8.69901e-01,9.99999e-01,9.72598e-01,8.94481e-01,9.99919e-01
8.579607893e-01,8.81233e-01,9.99999e-01,9.83040e-01,8.96453e-01,9.99980e-01
8.622505932e-01,8.88674e-01,9.99999e-01,9.89187e-01,8.98391e-01,9.99996e-01
8.665618462e-01,8.94263e-01,9.99999e-01,9.93302e-01,9.00294e-01,9.99997e-01
8.708946554e-01,8.95248e-01,9.99999e-01,9.92337e-01,9.02164e-01,9.99995e-01
8.752491287e-01,8.94733e-01,9.99999e-01,9.89758e-01,9.04000e-01,9.99988e-01
8.796253743e-01,8.92966e-01,9.99999e-01,9.85857e-01,9.05804e-01,9.99967e-01
8.840235012e-01,8.92846e-01,9.99999e-01,9.83866e-01,9.07576e-01,9.99900e-01
8.884436187e-01,8.57870e-01,9.99999e-01,9.43687e-01,9.09316e-01,9.99718e-01
8.928858368e-01,5.09284e-01,9.99999e-01,5.59932e-01,9.11025e-01,9.98375e-01
8.973502660e-01,3.29187e-01,9.99999e-01,3.63689e-01,9.12704e-01,9.91703e-01
9.018370173e-01,5.37860e-01,9.99999e-01,5.95998e-01,9.14352e-01,9.86985e-01
9.063462024e-01,5.70787e-01,9.99999e-01,6.30362e-01,9.15971e-01,9.88558e-01
9.108779334e-01,4.42492e-01,9.99999e-01,4.88049e-01,9.17560e-01,9.88113e-01
9.154323231e-01,3.97125e-01,9.99999e-01,4.36362e-01,9.19121e-01,9.90165e-01
9.200094847e-01,4.82618e-01,9.99999e-01,5.27120e-01,9.20653e-01,9.94483e-01
9.246095321e-01,3.65573e-01,9.99999e-01,3.98966e-01,9.22158e-01,9.93646e-01
9.292325798e-01,1.36863e-02,9.99999e-01,1.51908e-02,9.23635e-01,9.75449e-01
9.338787427e-01,1.14973e-03,9.99999e-01,1.37733e-03,9.25085e-01,9.02346e-01
9.385481364e-01,5.52758e-02,9.99999e-01,6.74157e-02,9.26509e-01,8.84959e-01
9.432408771e-01,2.57912e-02,9.99999e-01,3.08856e-02,9.27907e-01,8.99932e-01
9.479570815e-01,4.34250e-03,9.99999e-01,5.09167e-03,9.29280e-01,9.17768e-01
9.526968669e-01,1.38454e-02,9.99999e-01,1.56769e-02,9.30627e-01,9.49007e-01
9.574603512e-01,1.75064e-02,9.99999e-01,1.92908e-02,9.31949e-01,9.73764e-01
9.622476530e-01,3.33779e-02,9.99999e-01,3.64289e-02,9.33248e-01,9.81784e-01
9.670588912e-01,1.29064e-01,9.99999e-01,1.39855e-01,9.34522e-01,9.87506e-01
9.718941857e-01,2.35180e-01,9.99999e-01,2.53658e-01,9.35773e-01,9.90787e-01
9.767536566e-01,2.96481e-01,9.99999e-01,3.18661e-01,9.37001e-01,9.92952e-01
9.816374249e-01,3.92343e-01,9.99999e-01,4.19209e-01,9.38206e-01,9.97555e-01
9.865456120e-01,5.40867e-01,9.99999e-01,5.76058e-01,9.39389e-01,9.99490e-01
9.914783401e-01,6.66188e-01,9.99999e-01,7.08396e-01,9.40549e-01,9.99858e-01
9.964357318e-01,7.80162e-01,9.99999e-01,8.28539e-01,9.41689e-01,9.99916e-01
1.001417910e+00,8.41868e-01,9.99999e-01,8.93050e-01,9.42807e-01,9.99873e-01
1.006425000e+00,8.84708e-01,9.99999e-01,9.37453e-01,9.43904e-01,9.99819e-01
1.011457125e+00,9.07690e-01,9.99999e-01,9.60697e-01,9.44981e-01,9.99832e-01
1.016514411e+00,9.20518e-01,9.99999e-01,9.73138e-01,9.46038e-01,9.99881e-01
1.021596983e+00,9.26642e-01,9.99999e-01,9.78540e-01,9.47075e-01,9.99881e-01
1.026704968e+00,9.32112e-01,9.99999e-01,9.83221e-01,9.48093e-01,9.99920e-01
1.031838492e+00,9.37471e-01,9.99999e-01,9.87776e-01,9.49092e-01,9.99977e-01
1.036997685e+00,9.43157e-01,9.99999e-01,9.92724e-01,9.50072e-01,9.99996e-01
1.042182673e+00,9.42793e-01,9.99999e-01,9.91335e-01,9.51033e-01,9.99998e-01
1.047393587e+00,9.41048e-01,9.99999e-01,9.88521e-01,9.51977e-01,9.99997e-01
1.052630555e+00,9.37928e-01,9.99999e-01,9.84288e-01,9.52903e-01,9.99995e-01
1.057893707e+00,9.28938e-01,9.99999e-01,9.73931e-01,9.53811e-01,9.99990e-01
1.063183176e+00,9.14127e-01,9.99999e-01,9.57520e-01,9.54703e-01,9.99976e-01
1.068499092e+00,8.88634e-01,9.99999e-01,9.29989e-01,9.55577e-01,9.99950e-01
1.073841587e+00,8.78897e-01,9.99999e-01,9.19028e-01,9.56435e-01,9.99892e-01
1.079210795e+00,8.58491e-01,9.99999e-01,8.97065e-01,9.57277e-01,9.99708e-01
1.084606849e+00,8.12980e-01,9.99999e-01,8.49124e-01,9.58103e-01,9.99299e-01
1.090029883e+00,7.59029e-01,9.99999e-01,7.92700e-01,9.58913e-01,9.98549e-01
1.095480033e+00,5.10165e-01,9.99999e-01,5.32980e-01,9.59708e-01,9.97377e-01
1.100957433e+00,2.09872e-01,9.99999e-01,2.19563e-01,9.60488e-01,9.95179e-01
1.106462220e+00,3.22064e-02,9.99999e-01,3.37804e-02,9.61253e-01,9.91836e-01
1.111994531e+00,9.43529e-04,9.99999e-01,1.00237e-03,9.62004e-01,9.78474e-01
1.117554504e+00,4.11474e-05,9.99999e-01,4.62331e-05,9.62740e-01,9.24442e-01
1.123142276e+00,1.11860e-03,9.99999e-01,1.39879e-03,9.63463e-01,8.30016e-01
1.128757988e+00,4.32662e-03,9.99999e-01,5.56671e-03,9.64171e-01,8.06113e-01
1.134401778e+00,3.24321e-03,9.99999e-01,4.03738e-03,9.64866e-01,8.32545e-01
1.140073787e+00,2.72948e-02,9.99999e-01,3.27263e-02,9.65548e-01,8.63788e-01
1.145774156e+00,2.90829e-03,9.99999e-01,3.44169e-03,9.66217e-01,8.74560e-01
1.151503026e+00,1.15396e-03,9.99999e-01,1.28602e-03,9.66873e-01,9.28051e-01
1.157260541e+00,1.34303e-03,9.99999e-01,1.41946e-03,9.67517e-01,9.77922e-01
1.163046844e+00,7.33670e-03,9.99999e-01,7.62617e-03,9.68148e-01,9.93692e-01
1.168862078e+00,2.68848e-02,9.99999e-01,2.78422e-02,9.68767e-01,9.96745e-01
1.174706389e+00,9.93382e-02,9.99999e-01,1.02920e-01,9.69375e-01,9.95688e-01
1.180579921e+00,2.33428e-01,9.99999e-01,2.42232e-01,9.69970e-01,9.93487e-01
1.186482820e+00,4.21007e-01,9.99999e-01,4.36698e-01,9.70555e-01,9.93315e-01
1.192415234e+00,5.91987e-01,9.99999e-01,6.12655e-01,9.71128e-01,9.94990e-01
1.198377311e+00,6.40604e-01,9.99999e-01,6.62402e-01,9.71690e-01,9.95267e-01
1.204369197e+00,6.59268e-01,9.99999e-01,6.81006e-01,9.72241e-01,9.95717e-01
1.210391043e+00,6.69661e-01,9.99999e-01,6.90197e-01,9.72782e-01,9.97392e-01
1.216442998e+00,7.08813e-01,9.99999e-01,7.29413e-01,9.73312e-01,9.98402e-01
1.222525213e+00,7.59399e-01,9.99999e-01,7.80579e-01,9.73832e-01,9.99007e-01
1.228637839e+00,8.19656e-01,9.99999e-01,8.41628e-01,9.74343e-01,9.99537e-01
1.234781029e+00,8.57609e-01,9.99999e-01,8.79856e-01,9.74843e-01,9.99867e-01
1.240954934e+00,8.99408e-01,9.99999e-01,9.22187e-01,9.75334e-01,9.99962e-01
1.247159708e+00,9.16046e-01,9.99999e-01,9.38771e-01,9.75815e-01,9.99975e-01
1.253395507e+00,9.23008e-01,9.99999e-01,9.45455e-01,9.76287e-01,9.99968e-01
1.259662485e+00,9.26038e-01,9.99999e-01,9.48127e-01,9.76750e-01,9.99950e-01
1.265960797e+00,8.97523e-01,9.99999e-01,9.18535e-01,9.77204e-01,9.99917e-01
1.272290601e+00,8.55765e-01,9.99999e-01,8.75456e-01,9.77649e-01,9.99854e-01
1.278652054e+00,7.52971e-01,9.99999e-01,7.70039e-01,9.78086e-01,9.99742e-01
1.285045314e+00,6.52025e-01,9.99999e-01,6.66662e-01,9.78514e-01,9.99518e-01
1.291470541e+00,4.36872e-01,9.99999e-01,4.46650e-01,9.78934e-01,9.99155e-01
1.297927893e+00,3.51331e-01,9.99999e-01,3.59306e-01,9.79345e-01,9.98424e-01
1.304417533e+00,2.65095e-01,9.99999e-01,2.71479e-01,9.79749e-01,9.96665e-01
1.310939621e+00,2.20278e-01,9.99999e-01,2.26286e-01,9.80145e-01,9.93166e-01
1.317494319e+00,1.96469e-01,9.99999e-01,2.02927e-01,9.80533e-01,9.87395e-01
1.324081790e+00,1.00014e-01,9.99999e-01,1.04094e-01,9.80914e-01,9.79501e-01
1.330702199e+00,9.87817e-03,9.99999e-01,1.04325e-02,9.81288e-01,9.64918e-01
1.337355710e+00,7.19869e-09,9.99999e-01,7.85532e-09,9.81654e-01,9.33535e-01
1.344042489e+00,5.98238e-13,9.99999e-01,7.49415e-13,9.82013e-01,8.12894e-01
1.350762701e+00,8.73789e-46,9.99999e-01,1.80782e-45,9.82365e-01,4.92015e-01
1.357516515e+00,2.50464e-70,9.99999e-01,2.04314e-69,9.82710e-01,1.24744e-01
1.364304097e+00,6.99821e-43,9.99999e-01,2.73340e-41,9.83049e-01,2.60439e-02
1.371125618e+00,2.04255e-25,9.99999e-01,6.47326e-24,9.83381e-01,3.20869e-02
1.377981246e+00,1.29670e-24,9.99999e-01,2.51385e-23,9.83707e-01,5.24366e-02
1.384871152e+00,6.10513e-35,9.99999e-01,9.67743e-34,9.84026e-01,6.41103e-02
1.391795508e+00,3.43738e-43,9.99999e-01,4.79003e-42,9.84339e-01,7.29028e-02
1.398754485e+00,1.62412e-32,9.99999e-01,1.43468e-31,9.84646e-01,1.14969e-01
1.405748258e+00,4.00360e-32,9.99999e-01,1.43952e-31,9.84947e-01,2.82371e-01
1.412776999e+00,6.58192e-31,9.99998e-01,1.19000e-30,9.85242e-01,5.61385e-01
1.419840884e+00,1.43079e-30,9.99997e-01,1.87003e-30,9.85531e-01,7.76351e-01
1.426940089e+00,1.32781e-19,9.99997e-01,1.63254e-19,9.85815e-01,8.25039e-01
1.434074789e+00,1.60314e-17,9.99997e-01,2.03993e-17,9.86093e-01,7.96962e-01
1.441245163e+00,2.33326e-14,9.99998e-01,3.02470e-14,9.86366e-01,7.82063e-01
1.448451389e+00,2.43996e-09,9.99996e-01,3.06692e-09,9.86633e-01,8.06350e-01
1.455693646e+00,1.39770e-06,9.99998e-01,1.67447e-06,9.86896e-01,8.45795e-01
1.462972114e+00,1.75284e-06,9.99998e-01,2.08317e-06,9.87153e-01,8.52376e-01
1.470286975e+00,4.41281e-07,9.99998e-01,5.22885e-07,9.87405e-01,8.54697e-01
