#,Wave/freq,Total,N2,H2O,Rayleigh,CIA
4.000000000e-01,7.74780e-01,9.99999e-01,9.99970e-01,7.74802e-01,9.99999e-01
4.020000000e-01,7.78707e-01,9.99999e-01,9.99981e-01,7.78721e-01,9.99999e-01
4.040100000e-01,7.82571e-01,9.99999e-01,9.99991e-01,7.82577e-01,9.99999e-01
4.060300500e-01,7.86375e-01,9.99999e-01,9.99997e-01,7.86376e-01,9.99999e-01
4.080602003e-01,7.90118e-01,9.99999e-01,9.99998e-01,7.90118e-01,9.99999e-01
4.101005013e-01,7.93803e-01,9.99999e-01,9.99999e-01,7.93803e-01,9.99999e-01
4.121510038e-01,7.97431e-01,9.99999e-01,9.99998e-01,7.97432e-01,9.99999e-01
4.142117588e-01,8.00999e-01,9.99999e-01,9.99991e-01,8.01005e-01,9.99999e-01
4.162828176e-01,8.04495e-01,9.99999e-01,9.99963e-01,8.04524e-01,9.99999e-01
4.183642317e-01,8.07971e-01,9.99999e-01,9.99978e-01,8.07988e-01,9.99999e-01
4.204560528e-01,8.11387e-01,9.99999e-01,9.99986e-01,8.11398e-01,9.99999e-01
4.225583331e-01,8.14750e-01,9.99999e-01,9.99994e-01,8.14754e-01,9.99999e-01
4.246711247e-01,8.18055e-01,9.99999e-01,9.99995e-01,8.18058e-01,9.99999e-01
4.267944804e-01,8.21305e-01,9.99999e-01,9.99993e-01,8.21309e-01,9.99999e-01
4.289284528e-01,8.24505e-01,9.99999e-01,9.99995e-01,8.24509e-01,9.99999e-01
4.310730950e-01,8.27656e-01,9.99999e-01,9.99997e-01,8.27658e-01,9.99999e-01
4.332284605e-01,8.30755e-01,9.99999e-01,9.99999e-01,8.30756e-01,9.99999e-01
4.353946028e-01,8.33804e-01,9.99999e-01,9.99999e-01,8.33804e-01,9.99999e-01
4.375715758e-01,8.36800e-01,9.99999e-01,9.99995e-01,8.36803e-01,9.99999e-01
4.397594337e-01,8.39727e-01,9.99999e-01,9.99968e-01,8.39753e-01,9.99999e-01
4.419582309e-01,8.42521e-01,9.99999e-01,9.99840e-01,8.42655e-01,9.99999e-01
4.441680220e-01,8.45404e-01,9.99999e-01,9.99875e-01,8.45509e-01,9.99999e-01
4.463888621e-01,8.48207e-01,9.99999e-01,9.99870e-01,8.48316e-01,9.99999e-01
4.486208064e-01,8.51009e-01,9.99999e-01,9.99919e-01,8.51077e-01,9.99999e-01
4.508639105e-01,8.53760e-01,9.99999e-01,9.99961e-01,8.53792e-01,9.99999e-01
4.531182300e-01,8.56450e-01,9.99999e-01,9.99984e-01,8.56462e-01,9.99999e-01
4.553838212e-01,8.59079e-01,9.99999e-01,9.99989e-01,8.59088e-01,9.99999e-01
4.576607403e-01,8.61665e-01,9.99999e-01,9.99994e-01,8.61669e-01,9.99999e-01
4.599490440e-01,8.64204e-01,9.99999e-01,9.99996e-01,8.64207e-01,9.99999e-01
4.622487892e-01,8.66701e-01,9.99999e-01,9.99998e-01,8.66701e-01,9.99999e-01
4.645600332e-01,8.69152e-01,9.99999e-01,9.99997e-01,8.69154e-01,9.99999e-01
4.668828333e-01,8.71532e-01,9.99999e-01,9.99961e-01,8.71565e-01,9.99999e-01
4.692172475e-01,8.73864e-01,9.99999e-01,9.99918e-01,8.73935e-01,9.99999e-01
4.715633337e-01,8.76217e-01,9.99999e-01,9.99946e-01,8.76264e-01,9.99999e-01
4.739211504e-01,8.78509e-01,9.99999e-01,9.99948e-01,8.78553e-01,9.99999e-01
4.762907561e-01,8.80780e-01,9.99999e-01,9.99973e-01,8.80803e-01,9.99999e-01
4.786722099e-01,8.83004e-01,9.99999e-01,9.99988e-01,8.83014e-01,9.99999e-01
4.810655710e-01,8.85183e-01,9.99999e-01,9.99996e-01,8.85186e-01,9.99999e-01
4.834708988e-01,8.87294e-01,9.99999e-01,9.99968e-01,8.87321e-01,9.99999e-01
4.858882533e-01,8.89368e-01,9.99999e-01,9.99942e-01,8.89419e-01,9.99999e-01
4.883176946e-01,8.91437e-01,9.99999e-01,9.99951e-01,8.91480e-01,9.99999e-01
4.907592831e-01,8.93466e-01,9.99999e-01,9.99956e-01,8.93505e-01,9.99999e-01
4.932130795e-01,8.95467e-01,9.99999e-01,9.99968e-01,8.95495e-01,9.99999e-01
4.956791449e-01,8.97435e-01,9.99999e-01,9.99983e-01,8.97449e-01,9.99999e-01
4.981575406e-01,8.99296e-01,9.99999e-01,9.99918e-01,8.99369e-01,9.99999e-01
5.006483283e-01,9.01064e-01,9.99999e-01,9.99788e-01,9.01255e-01,9.99998e-01
5.031515699e-01,9.02131e-01,9.99999e-01,9.98929e-01,9.03108e-01,9.99988e-01
5.056673278e-01,9.04405e-01,9.99999e-01,9.99434e-01,9.04928e-01,9.99986e-01
5.081956644e-01,9.06062e-01,9.99999e-01,9.99287e-01,9.06715e-01,9.99991e-01
5.107366428e-01,9.08033e-01,9.99999e-01,9.99518e-01,9.08471e-01,9.99997e-01
5.132903260e-01,9.09945e-01,9.99999e-01,9.99724e-01,9.10195e-01,9.99999e-01
5.158567776e-01,9.11783e-01,9.99999e-01,9.99883e-01,9.11888e-01,9.99999e-01
5.184360615e-01,9.13509e-01,9.99999e-01,9.99953e-01,9.13551e-01,9.99999e-01
5.210282418e-01,9.15168e-01,9.99999e-01,9.99982e-01,9.15184e-01,9.99999e-01
5.236333830e-01,9.16723e-01,9.99999e-01,9.99929e-01,9.16788e-01,9.99999e-01
5.262515499e-01,9.18322e-01,9.99999e-01,9.99955e-01,9.18362e-01,9.99998e-01
5.288828077e-01,9.19871e-01,9.99999e-01,9.99959e-01,9.19908e-01,9.99999e-01
5.315272217e-01,9.21394e-01,9.99999e-01,9.99964e-01,9.21427e-01,9.99999e-01
5.341848578e-01,9.22896e-01,9.99999e-01,9.99976e-01,9.22917e-01,9.99999e-01
5.368557821e-01,9.24305e-01,9.99999e-01,9.99918e-01,9.24381e-01,9.99999e-01
5.395400610e-01,9.25544e-01,9.99999e-01,9.99706e-01,9.25817e-01,9.99997e-01
5.422377613e-01,9.26871e-01,9.99999e-01,9.99620e-01,9.27228e-01,9.99992e-01
5.449489501e-01,9.28279e-01,9.99999e-01,9.99647e-01,9.28613e-01,9.99992e-01
5.476736949e-01,9.29679e-01,9.99999e-01,9.99687e-01,9.29972e-01,9.99996e-01
5.504120634e-01,9.31095e-01,9.99999e-01,9.99773e-01,9.31307e-01,9.99998e-01
5.531641237e-01,9.32511e-01,9.99999e-01,9.99885e-01,9.32617e-01,9.99999e-01
5.559299443e-01,9.33852e-01,9.99999e-01,9.99944e-01,9.33903e-01,9.99999e-01
5.587095940e-01,9.35133e-01,9.99999e-01,9.99965e-01,9.35165e-01,9.99999e-01
5.615031420e-01,9.36368e-01,9.99999e-01,9.99961e-01,9.36404e-01,9.99999e-01
5.643106577e-01,9.37579e-01,9.99999e-01,9.99955e-01,9.37620e-01,9.99999e-01
5.671322110e-01,9.38312e-01,9.99999e-01,9.99469e-01,9.38814e-01,9.99994e-01
5.699678720e-01,9.39443e-01,9.99999e-01,9.99437e-01,9.39986e-01,9.99985e-01
5.728177114e-01,9.40572e-01,9.99999e-01,9.99413e-01,9.41135e-01,9.99987e-01
5.756818000e-01,9.41750e-01,9.99999e-01,9.99461e-01,9.42264e-01,9.99992e-01
5.785602090e-01,9.42927e-01,9.99999e-01,9.99530e-01,9.43371e-01,9.99997e-01
5.814530100e-01,9.44013e-01,9.99999e-01,9.99528e-01,9.44458e-01,9.99998e-01
5.843602750e-01,9.44991e-01,9.99999e-01,9.99437e-01,9.45525e-01,9.99996e-01
5.872820764e-01,9.41963e-01,9.99999e-01,9.95164e-01,9.46572e-01,9.99965e-01
5.902184868e-01,9.41966e-01,9.99999e-01,9.94147e-01,9.47599e-01,9.99906e-01
5.931695792e-01,9.44598e-01,9.99999e-01,9.95862e-01,9.48607e-01,9.99910e-01
5.961354271e-01,9.45242e-01,9.99999e-01,9.95465e-01,9.49596e-01,9.99948e-01
5.991161043e-01,9.47407e-01,9.99999e-01,9.96691e-01,9.50566e-01,9.99983e-01
6.021116848e-01,9.49731e-01,9.99999e-01,9.98122e-01,9.51519e-01,9.99997e-01
6.051222432e-01,9.51548e-01,9.99999e-01,9.99049e-01,9.52453e-01,9.99999e-01
6.081478544e-01,9.52979e-01,9.99999e-01,9.99589e-01,9.53370e-01,9.99999e-01
6.111885937e-01,9.54104e-01,9.99999e-01,9.99826e-01,9.54270e-01,9.99999e-01
6.142445367e-01,9.55078e-01,9.99999e-01,9.99922e-01,9.55152e-01,9.99999e-01
6.173157594e-01,9.55978e-01,9.99999e-01,9.99956e-01,9.56018e-01,9.99999e-01
6.204023382e-01,9.56834e-01,9.99999e-01,9.99963e-01,9.56868e-01,9.99999e-01
6.235043498e-01,9.57549e-01,9.99999e-01,9.99840e-01,9.57702e-01,9.99999e-01
6.266218716e-01,9.57706e-01,9.99999e-01,9.99156e-01,9.58520e-01,9.99993e-01
6.297549810e-01,9.59014e-01,9.99999e-01,9.99690e-01,9.59322e-01,9.99987e-01
6.329037559e-01,9.59514e-01,9.99999e-01,9.99388e-01,9.60109e-01,9.99990e-01
6.360682746e-01,9.60376e-01,9.99999e-01,9.99479e-01,9.60882e-01,9.99993e-01
6.392486160e-01,9.60988e-01,9.99999e-01,9.99325e-01,9.61639e-01,9.99997e-01
6.424448591e-01,9.61509e-01,9.99999e-01,9.99096e-01,9.62383e-01,9.99995e-01
6.456570834e-01,9.59054e-01,9.99999e-01,9.95809e-01,9.63112e-01,9.99976e-01
6.488853688e-01,9.60810e-01,9.99999e-01,9.96933e-01,9.63827e-01,9.99934e-01
6.521297956e-01,9.61463e-01,9.99999e-01,9.96874e-01,9.64529e-01,9.99945e-01
6.553904446e-01,9.62175e-01,9.99999e-01,9.96887e-01,9.65217e-01,9.99959e-01
6.586673968e-01,9.63306e-01,9.99999e-01,9.97335e-01,9.65892e-01,9.99986e-01
6.619607338e-01,9.65116e-01,9.99999e-01,9.98514e-01,9.66554e-01,9.99996e-01
6.652705375e-01,9.66341e-01,9.99999e-01,9.99108e-01,9.67204e-01,9.99998e-01
6.685968902e-01,9.67440e-01,9.99999e-01,9.99585e-01,9.67841e-01,9.99999e-01
6.719398746e-01,9.68281e-01,9.99999e-01,9.99807e-01,9.68466e-01,9.99999e-01
6.752995740e-01,9.68979e-01,9.99999e-01,9.99895e-01,9.69080e-01,9.99999e-01
6.786760719e-01,9.69535e-01,9.99999e-01,9.99849e-01,9.69681e-01,9.99999e-01
6.820694522e-01,9.70020e-01,9.99999e-01,9.99742e-01,9.70271e-01,9.99998e-01
6.854797995e-01,9.70525e-01,9.99999e-01,9.99667e-01,9.70849e-01,9.99996e-01
6.889071985e-01,9.70629e-01,9.99999e-01,9.99195e-01,9.71417e-01,9.99992e-01
6.923517345e-01,9.59218e-01,9.99999e-01,9.86937e-01,9.71973e-01,9.99936e-01
6.958134932e-01,9.65775e-01,9.99999e-01,9.93203e-01,9.72519e-01,9.99860e-01
6.992925606e-01,9.66636e-01,9.99999e-01,9.93527e-01,9.73055e-01,9.99874e-01
7.027890234e-01,9.65718e-01,9.99999e-01,9.92019e-01,9.73580e-01,9.99903e-01
7.063029686e-01,9.67510e-01,9.99999e-01,9.93286e-01,9.74095e-01,9.99951e-01
7.098344834e-01,9.68295e-01,9.99999e-01,9.93557e-01,9.74600e-01,9.99971e-01
7.133836558e-01,9.66668e-01,9.99999e-01,9.91412e-01,9.75095e-01,9.99943e-01
7.169505741e-01,9.09839e-01,9.99999e-01,9.33022e-01,9.75581e-01,9.99559e-01
7.205353270e-01,9.42823e-01,9.99999e-01,9.66700e-01,9.76058e-01,9.99222e-01
7.241380036e-01,9.34707e-01,9.99999e-01,9.57818e-01,9.76525e-01,9.99328e-01
7.277586936e-01,9.39209e-01,9.99999e-01,9.61863e-01,9.76983e-01,9.99450e-01
7.313974871e-01,9.37613e-01,9.99999e-01,9.59507e-01,9.77433e-01,9.99742e-01
7.350544745e-01,9.55959e-01,9.99999e-01,9.77676e-01,9.77874e-01,9.99910e-01
7.387297469e-01,9.62151e-01,9.99999e-01,9.83526e-01,9.78306e-01,9.99958e-01
7.424233956e-01,9.70805e-01,9.99999e-01,9.91910e-01,9.78730e-01,9.99991e-01
7.461355126e-01,9.74337e-01,9.99999e-01,9.95090e-01,9.79145e-01,9.99998e-01
7.498661902e-01,9.77312e-01,9.99999e-01,9.97712e-01,9.79553e-01,9.99999e-01
7.536155211e-01,9.78853e-01,9.99999e-01,9.98876e-01,9.79953e-01,9.99999e-01
7.573835987e-01,9.79778e-01,9.99999e-01,9.99421e-01,9.80345e-01,9.99999e-01
7.611705167e-01,9.80377e-01,9.99999e-01,9.99640e-01,9.80729e-01,9.99999e-01
7.649763693e-01,9.80886e-01,9.99999e-01,9.99774e-01,9.81106e-01,9.99999e-01
7.688012511e-01,9.81322e-01,9.99999e-01,9.99842e-01,9.81476e-01,9.99999e-01
7.726452574e-01,9.81712e-01,9.99999e-01,9.99870e-01,9.81839e-01,9.99999e-01
7.765084837e-01,9.82014e-01,9.99999e-01,9.99816e-01,9.82194e-01,9.99999e-01
7.803910261e-01,9.81763e-01,9.99999e-01,9.99206e-01,9.82543e-01,9.99998e-01
7.842929812e-01,9.80161e-01,9.99999e-01,9.97233e-01,9.82885e-01,9.99994e-01
7.882144461e-01,9.77588e-01,9.99999e-01,9.94310e-01,9.83220e-01,9.99960e-01
7.921555184e-01,9.80412e-01,9.99999e-01,9.96878e-01,9.83548e-01,9.99931e-01
7.961162960e-01,9.78380e-01,9.99999e-01,9.94483e-01,9.83871e-01,9.99934e-01
8.000968774e-01,9.77853e-01,9.99999e-01,9.93632e-01,9.84187e-01,9.99930e-01
8.040973618e-01,9.78173e-01,9.99999e-01,9.93629e-01,9.84497e-01,9.99944e-01
8.081178486e-01,9.70654e-01,9.99999e-01,9.85684e-01,9.84801e-01,9.99948e-01
8.121584379e-01,9.27455e-01,9.99999e-01,9.41673e-01,9.85098e-01,9.99798e-01
8.162192301e-01,9.16906e-01,9.99999e-01,9.31203e-01,9.85391e-01,9.99243e-01
8.203003262e-01,9.50488e-01,9.99999e-01,9.65153e-01,9.85677e-01,9.99114e-01
8.244018279e-01,9.37758e-01,9.99999e-01,9.51783e-01,9.85958e-01,9.99294e-01
8.285238370e-01,9.44613e-01,9.99999e-01,9.58328e-01,9.86233e-01,9.99446e-01
8.326664562e-01,9.44763e-01,9.99999e-01,9.57906e-01,9.86504e-01,9.99770e-01
8.368297885e-01,9.56868e-01,9.99999e-01,9.69748e-01,9.86768e-01,9.99947e-01
8.410139374e-01,9.69153e-01,9.99999e-01,9.81919e-01,9.87028e-01,9.99968e-01
8.452190071e-01,9.78475e-01,9.99999e-01,9.91096e-01,9.87283e-01,9.99981e-01
8.494451021e-01,9.82408e-01,9.99999e-01,9.94824e-01,9.87532e-01,9.99984e-01
8.536923276e-01,9.84744e-01,9.99999e-01,9.96937e-01,9.87777e-01,9.99990e-01
8.579607893e-01,9.86151e-01,9.99999e-01,9.98112e-01,9.88017e-01,9.99997e-01
8.622505932e-01,9.87067e-01,9.99999e-01,9.98801e-01,9.88252e-01,9.99999e-01
8.665618462e-01,9.87750e-01,9.99999e-01,9.99257e-01,9.88483e-01,9.99999e-01
8.708946554e-01,9.87869e-01,9.99999e-01,9.99150e-01,9.88709e-01,9.99999e-01
8.752491287e-01,9.87806e-01,9.99999e-01,9.98863e-01,9.88931e-01,9.99998e-01
8.796253743e-01,9.87588e-01,9.99999e-01,9.98426e-01,9.89148e-01,9.99996e-01
8.840235012e-01,9.87573e-01,9.99999e-01,9.98202e-01,9.89361e-01,9.99988e-01
8.884436187e-01,9.83055e-01,9.99999e-01,9.93446e-01,9.89570e-01,9.99968e-01
8.928858368e-01,9.23429e-01,9.99999e-01,9.33135e-01,9.89775e-01,9.99820e-01
8.973502660e-01,8.75226e-01,9.99999e-01,8.84901e-01,9.89976e-01,9.99079e-01
9.018370173e-01,9.28962e-01,9.99999e-01,9.39539e-01,9.90173e-01,9.98553e-01
9.063462024e-01,9.36187e-01,9.99999e-01,9.46495e-01,9.90366e-01,9.98729e-01
9.108779334e-01,9.07992e-01,9.99999e-01,9.17859e-01,9.90556e-01,9.98679e-01
9.154323231e-01,8.97819e-01,9.99999e-01,9.07198e-01,9.90741e-01,9.98908e-01
9.200094847e-01,9.17640e-01,9.99999e-01,9.26610e-01,9.90923e-01,9.99388e-01
9.246095321e-01,8.79619e-01,9.99999e-01,8.88140e-01,9.91102e-01,9.99295e-01
9.292325798e-01,4.51945e-01,9.99999e-01,4.57174e-01,9.91277e-01,9.97258e-01
9.338787427e-01,3.58450e-01,9.99999e-01,3.65668e-01,9.91448e-01,9.88715e-01
9.385481364e-01,6.51150e-01,9.99999e-01,6.65577e-01,9.91617e-01,9.86593e-01
9.432408771e-01,5.59818e-01,9.99999e-01,5.71067e-01,9.91782e-01,9.88423e-01
9.479570815e-01,4.56015e-01,9.99999e-01,4.64096e-01,9.91943e-01,9.90567e-01
9.526968669e-01,5.51043e-01,9.99999e-01,5.58649e-01,9.92102e-01,9.94236e-01
9.574603512e-01,5.74681e-01,9.99999e-01,5.80868e-01,9.92257e-01,9.97067e-01
9.622476530e-01,6.35303e-01,9.99999e-01,6.41463e-01,9.92409e-01,9.97971e-01
9.670588912e-01,7.66914e-01,9.99999e-01,7.73736e-01,9.92559e-01,9.98612e-01
9.718941857e-01,8.44002e-01,9.99999e-01,8.51073e-01,9.92705e-01,9.98977e-01
9.767536566e-01,8.67737e-01,9.99999e-01,8.74669e-01,9.92849e-01,9.99218e-01
9.816374249e-01,8.98884e-01,9.99999e-01,9.05474e-01,9.92989e-01,9.99729e-01
9.865456120e-01,9.33314e-01,9.99999e-01,9.39825e-01,9.93127e-01,9.99943e-01
9.914783401e-01,9.55857e-01,9.99999e-01,9.62354e-01,9.93263e-01,9.99983e-01
9.964357318e-01,9.72847e-01,9.99999e-01,9.79323e-01,9.93395e-01,9.99990e-01
1.001417910e+00,9.81151e-01,9.99999e-01,9.87557e-01,9.93525e-01,9.99985e-01
1.006425000e+00,9.86567e-01,9.99999e-01,9.92888e-01,9.93653e-01,9.99979e-01
1.011457125e+00,9.89369e-01,9.99999e-01,9.95581e-01,9.93778e-01,9.99981e-01
1.016514411e+00,9.90904e-01,9.99999e-01,9.96998e-01,9.93900e-01,9.99986e-01
1.021596983e+00,9.91630e-01,9.99999e-01,9.97607e-01,9.94020e-01,9.99986e-01
1.026704968e+00,9.92274e-01,9.99999e-01,9.98133e-01,9.94138e-01,9.99990e-01
1.031838492e+00,9.92903e-01,9.99999e-01,9.98643e-01,9.94254e-01,9.99997e-01
1.036997685e+00,9.93565e-01,9.99999e-01,9.99193e-01,9.94367e-01,9.99999e-01
1.042182673e+00,9.93522e-01,9.99999e-01,9.99038e-01,9.94478e-01,9.99999e-01
1.047393587e+00,9.93319e-01,9.99999e-01,9.98725e-01,9.94586e-01,9.99999e-01
1.052630555e+00,9.92954e-01,9.99999e-01,9.98251e-01,9.94693e-01,9.99999e-01
1.057893707e+00,9.91894e-01,9.99999e-01,9.97081e-01,9.94798e-01,9.99998e-01
1.063183176e+00,9.90124e-01,9.99999e-01,9.95201e-01,9.94900e-01,9.99997e-01
1.068499092e+00,9.87012e-01,9.99999e-01,9.91976e-01,9.95001e-01,9.99994e-01
1.073841587e+00,9.85748e-01,9.99999e-01,9.90614e-01,9.95099e-01,9.99987e-01
1.079210795e+00,9.83212e-01,9.99999e-01,9.87989e-01,9.95196e-01,9.99967e-01
1.084606849e+00,9.77171e-01,9.99999e-01,9.81870e-01,9.95290e-01,9.99922e-01
1.090029883e+00,9.69398e-01,9.99999e-01,9.74049e-01,9.95383e-01,9.99839e-01
1.095480033e+00,9.26400e-01,9.99999e-01,9.30881e-01,9.95474e-01,9.99709e-01
1.100957433e+00,8.29738e-01,9.99999e-01,8.33880e-01,9.95563e-01,9.99466e-01
1.106462220e+00,6.29468e-01,9.99999e-01,6.32790e-01,9.95651e-01,9.99094e-01
1.111994531e+00,3.82707e-01,9.99999e-01,3.85270e-01,9.95736e-01,9.97599e-01
1.117554504e+00,2.14055e-01,9.99999e-01,2.16827e-01,9.95820e-01,9.91360e-01
1.123142276e+00,3.25934e-01,9.99999e-01,3.34078e-01,9.95903e-01,9.79634e-01
1.128757988e+00,4.73620e-01,9.99999e-01,4.86984e-01,9.95983e-01,9.76477e-01
1.134401778e+00,2.42939e-01,9.99999e-01,2.48886e-01,9.96063e-01,9.79963e-01
1.140073787e+00,6.33829e-01,9.99999e-01,6.46657e-01,9.96140e-01,9.83958e-01
1.145774156e+00,4.01893e-01,9.99999e-01,4.09434e-01,9.96216e-01,9.85306e-01
1.151503026e+00,3.67600e-01,9.99999e-01,3.72023e-01,9.96291e-01,9.91787e-01
1.157260541e+00,4.27338e-01,9.99999e-01,4.29956e-01,9.96364e-01,9.97537e-01
1.163046844e+00,5.32437e-01,9.99999e-01,5.34715e-01,9.96436e-01,9.99300e-01
1.168862078e+00,6.42573e-01,9.99999e-01,6.45058e-01,9.96506e-01,9.99639e-01
1.174706389e+00,7.59862e-01,9.99999e-01,7.62837e-01,9.96575e-01,9.99522e-01
1.180579921e+00,8.44387e-01,9.99999e-01,8.47842e-01,9.96642e-01,9.99278e-01
1.186482820e+00,9.07151e-01,9.99999e-01,9.10820e-01,9.96709e-01,9.99259e-01
1.192415234e+00,9.43346e-01,9.99999e-01,9.46924e-01,9.96773e-01,9.99445e-01
1.198377311e+00,9.51554e-01,9.99999e-01,9.55073e-01,9.96837e-01,9.99475e-01
1.204369197e+00,9.54043e-01,9.99999e-01,9.57463e-01,9.96899e-01,9.99525e-01
1.210391043e+00,9.56080e-01,9.99999e-01,9.59271e-01,9.96961e-01,9.99711e-01
1.216442998e+00,9.62209e-01,9.99999e-01,9.65254e-01,9.97020e-01,9.99822e-01
1.222525213e+00,9.69890e-01,9.99999e-01,9.72837e-01,9.97079e-01,9.99889e-01
1.228637839e+00,9.78201e-01,9.99999e-01,9.81059e-01,9.97137e-01,9.99948e-01
1.234781029e+00,9.83124e-01,9.99999e-01,9.85904e-01,9.97193e-01,9.99984e-01
1.240954934e+00,9.88335e-01,9.99999e-01,9.91065e-01,9.97249e-01,9.99995e-01
1.247159708e+00,9.90356e-01,9.99999e-01,9.93036e-01,9.97303e-01,9.99996e-01
1.253395507e+00,9.91185e-01,9.99999e-01,9.93815e-01,9.97356e-01,9.99996e-01
1.259662485e+00,9.91542e-01,9.99999e-01,9.94123e-01,9.97408e-01,9.99994e-01
1.265960797e+00,9.88100e-01,9.99999e-01,9.90625e-01,9.97459e-01,9.99990e-01
1.272290601e+00,9.82838e-01,9.99999e-01,9.85307e-01,9.97509e-01,9.99983e-01
1.278652054e+00,9.68601e-01,9.99999e-01,9.70998e-01,9.97558e-01,9.99971e-01
1.285045314e+00,9.45698e-01,9.99999e-01,9.48016e-01,9.97607e-01,9.99946e-01
1.291470541e+00,9.08960e-01,9.99999e-01,9.11182e-01,9.97654e-01,9.99906e-01
1.297927893e+00,8.83665e-01,9.99999e-01,8.85856e-01,9.97700e-01,9.99825e-01
1.304417533e+00,8.53542e-01,9.99999e-01,8.55786e-01,9.97745e-01,9.99630e-01
1.310939621e+00,8.34058e-01,9.99999e-01,8.36538e-01,9.97790e-01,9.99242e-01
1.317494319e+00,8.21333e-01,9.99999e-01,8.24269e-01,9.97834e-01,9.98599e-01
1.324081790e+00,7.46249e-01,9.99999e-01,7.49549e-01,9.97876e-01,9.97714e-01
1.330702199e+00,3.47101e-01,9.99999e-01,3.49199e-01,9.97918e-01,9.96063e-01
1.337355710e+00,6.03417e-02,9.99999e-01,6.09260e-02,9.97959e-01,9.92432e-01
1.344042489e+00,2.41957e-03,9.99999e-01,2.48052e-03,9.97999e-01,9.77381e-01
1.350762701e+00,9.72162e-07,9.99999e-01,1.05344e-06,9.98039e-01,9.24661e-01
1.357516515e+00,1.81979e-09,9.99999e-01,2.29451e-09,9.98078e-01,7.94633e-01
1.364304097e+00,2.45220e-06,9.99999e-01,3.67570e-06,9.98115e-01,6.68397e-01
1.371125618e+00,1.72310e-04,9.99999e-01,2.52390e-04,9.98153e-01,6.83978e-01
1.377981246e+00,5.35171e-04,9.99999e-01,7.42470e-04,9.98189e-01,7.22103e-01
1.384871152e+00,7.78387e-06,9.99999e-01,1.05615e-05,9.98225e-01,7.38312e-01
1.391795508e+00,3.41272e-06,9.99999e-01,4.56512e-06,9.98260e-01,7.48866e-01
1.398754485e+00,3.58958e-05,9.99999e-01,4.56596e-05,9.98294e-01,7.87504e-01
1.405748258e+00,3.71782e-05,9.99999e-01,4.28217e-05,9.98328e-01,8.69660e-01
1.412776999e+00,3.86316e-05,9.99999e-01,4.12425e-05,9.98361e-01,9.38228e-01
1.419840884e+00,7.92696e-05,9.99999e-01,8.16481e-05,9.98393e-01,9.72429e-01
1.426940089e+00,6.81696e-04,9.99999e-01,6.97428e-04,9.98425e-01,9.78983e-01
1.434074789e+00,3.57011e-03,9.99999e-01,3.66638e-03,9.98456e-01,9.75247e-01
1.441245163e+00,1.11783e-02,9.99999e-01,1.15034e-02,9.98486e-01,9.73217e-01
1.448451389e+00,4.27384e-02,9.99999e-01,4.38314e-02,9.98516e-01,9.76509e-01
1.455693646e+00,1.18003e-01,9.99999e-01,1.20381e-01,9.98545e-01,9.81673e-01
1.462972114e+00,1.54440e-01,9.99999e-01,1.57413e-01,9.98574e-01,9.82514e-01
1.470286975e+00,1.14600e-01,9.99999e-01,1.16767e-01,9.98602e-01,9.82809e-01
