#,Wave/freq,Total,N2,H2O,Rayleigh,CIA
4.000000000e-01,6.45815e-01,9.99999e-01,9.99950e-01,6.45847e-01,9.99999e-01
4.020000000e-01,6.51434e-01,9.99999e-01,9.99968e-01,6.51454e-01,9.99999e-01
4.040100000e-01,6.56984e-01,9.99999e-01,9.99986e-01,6.56992e-01,9.99999e-01
4.060300500e-01,6.62464e-01,9.99999e-01,9.99996e-01,6.62466e-01,9.99999e-01
4.080602003e-01,6.67876e-01,9.99999e-01,9.99998e-01,6.67877e-01,9.99999e-01
4.101005013e-01,6.73223e-01,9.99999e-01,9.99999e-01,6.73223e-01,9.99999e-01
4.121510038e-01,6.78504e-01,9.99999e-01,9.99997e-01,6.78505e-01,9.99999e-01
4.142117588e-01,6.83714e-01,9.99999e-01,9.99986e-01,6.83723e-01,9.99999e-01
4.162828176e-01,6.88835e-01,9.99999e-01,9.99938e-01,6.88877e-01,9.99999e-01
4.183642317e-01,6.93942e-01,9.99999e-01,9.99963e-01,6.93967e-01,9.99999e-01
4.204560528e-01,6.98978e-01,9.99999e-01,9.99977e-01,6.98993e-01,9.99999e-01
4.225583331e-01,7.03949e-01,9.99999e-01,9.99991e-01,7.03955e-01,9.99999e-01
4.246711247e-01,7.08849e-01,9.99999e-01,9.99992e-01,7.08853e-01,9.99999e-01
4.267944804e-01,7.13681e-01,9.99999e-01,9.99989e-01,7.13688e-01,9.99999e-01
4.289284528e-01,7.18453e-01,9.99999e-01,9.99991e-01,7.18459e-01,9.99999e-01
4.310730950e-01,7.23164e-01,9.99999e-01,9.99996e-01,7.23166e-01,9.99999e-01
4.332284605e-01,7.27810e-01,9.99999e-01,9.99998e-01,7.27811e-01,9.99999e-01
4.353946028e-01,7.32393e-01,9.99999e-01,9.99999e-01,7.32393e-01,9.99999e-01
4.375715758e-01,7.36908e-01,9.99999e-01,9.99993e-01,7.36912e-01,9.99999e-01
4.397594337e-01,7.41330e-01,9.99999e-01,9.99946e-01,7.41369e-01,9.99999e-01
4.419582309e-01,7.45565e-01,9.99999e-01,9.99731e-01,7.45765e-01,9.99999e-01
4.441680220e-01,7.49938e-01,9.99999e-01,9.99785e-01,7.50098e-01,9.99999e-01
4.463888621e-01,7.54204e-01,9.99999e-01,9.99778e-01,7.54371e-01,9.99999e-01
4.486208064e-01,7.58478e-01,9.99999e-01,9.99861e-01,7.58583e-01,9.99999e-01
4.508639105e-01,7.62685e-01,9.99999e-01,9.99934e-01,7.62734e-01,9.99999e-01
4.531182300e-01,7.66806e-01,9.99999e-01,9.99973e-01,7.66825e-01,9.99999e-01
4.553838212e-01,7.70844e-01,9.99999e-01,9.99982e-01,7.70857e-01,9.99999e-01
4.576607403e-01,7.74824e-01,9.99999e-01,9.99991e-01,7.74830e-01,9.99999e-01
4.599490440e-01,7.78740e-01,9.99999e-01,9.99993e-01,7.78745e-01,9.99999e-01
4.622487892e-01,7.82600e-01,9.99999e-01,9.99998e-01,7.82601e-01,9.99999e-01
4.645600332e-01,7.86396e-01,9.99999e-01,9.99995e-01,7.86399e-01,9.99999e-01
4.668828333e-01,7.90090e-01,9.99999e-01,9.99934e-01,7.90141e-01,9.99999e-01
4.692172475e-01,7.93715e-01,9.99999e-01,9.99860e-01,7.93825e-01,9.99999e-01
4.715633337e-01,7.97382e-01,9.99999e-01,9.99908e-01,7.97454e-01,9.99999e-01
4.739211504e-01,8.00957e-01,9.99999e-01,9.99912e-01,8.01027e-01,9.99999e-01
4.762907561e-01,8.04509e-01,9.99999e-01,9.99954e-01,8.04545e-01,9.99999e-01
4.786722099e-01,8.07994e-01,9.99999e-01,9.99981e-01,8.08009e-01,9.99999e-01
4.810655710e-01,8.11414e-01,9.99999e-01,9.99993e-01,8.11418e-01,9.99999e-01
4.834708988e-01,8.14732e-01,9.99999e-01,9.99947e-01,8.14774e-01,9.99999e-01
4.858882533e-01,8.17997e-01,9.99999e-01,9.99900e-01,8.18078e-01,9.99999e-01
4.883176946e-01,8.21262e-01,9.99999e-01,9.99917e-01,8.21329e-01,9.99999e-01
4.907592831e-01,8.24467e-01,9.99999e-01,9.99924e-01,8.24528e-01,9.99999e-01
4.932130795e-01,8.27633e-01,9.99999e-01,9.99946e-01,8.27677e-01,9.99999e-01
4.956791449e-01,8.30751e-01,9.99999e-01,9.99971e-01,8.30775e-01,9.99999e-01
4.981575406e-01,8.33707e-01,9.99999e-01,9.99860e-01,8.33822e-01,9.99999e-01
5.006483283e-01,8.36520e-01,9.99999e-01,9.99642e-01,8.36821e-01,9.99997e-01
5.031515699e-01,8.38219e-01,9.99999e-01,9.98171e-01,8.39771e-01,9.99980e-01
5.056673278e-01,8.41838e-01,9.99999e-01,9.99031e-01,8.42672e-01,9.99977e-01
5.081956644e-01,8.44481e-01,9.99999e-01,9.98777e-01,8.45526e-01,9.99985e-01
5.107366428e-01,8.47630e-01,9.99999e-01,9.99173e-01,8.48333e-01,9.99996e-01
5.132903260e-01,8.50691e-01,9.99999e-01,9.99526e-01,8.51094e-01,9.99999e-01
5.158567776e-01,8.53638e-01,9.99999e-01,9.99799e-01,8.53809e-01,9.99999e-01
5.184360615e-01,8.56410e-01,9.99999e-01,9.99919e-01,8.56478e-01,9.99999e-01
5.210282418e-01,8.59078e-01,9.99999e-01,9.99969e-01,8.59103e-01,9.99999e-01
5.236333830e-01,8.61581e-01,9.99999e-01,9.99880e-01,8.61684e-01,9.99998e-01
5.262515499e-01,8.64156e-01,9.99999e-01,9.99924e-01,8.64222e-01,9.99998e-01
5.288828077e-01,8.66657e-01,9.99999e-01,9.99931e-01,8.66716e-01,9.99998e-01
5.315272217e-01,8.69116e-01,9.99999e-01,9.99938e-01,8.69169e-01,9.99999e-01
5.341848578e-01,8.71545e-01,9.99999e-01,9.99960e-01,8.71579e-01,9.99999e-01
5.368557821e-01,8.73828e-01,9.99999e-01,9.99861e-01,8.73949e-01,9.99999e-01
5.395400610e-01,8.75840e-01,9.99999e-01,9.99503e-01,8.76278e-01,9.99995e-01
5.422377613e-01,8.77985e-01,9.99999e-01,9.99348e-01,8.78567e-01,9.99987e-01
5.449489501e-01,8.80277e-01,9.99999e-01,9.99399e-01,8.80816e-01,9.99987e-01
5.476736949e-01,8.82548e-01,9.99999e-01,9.99462e-01,8.83027e-01,9.99993e-01
5.504120634e-01,8.84853e-01,9.99999e-01,9.99610e-01,8.85199e-01,9.99997e-01
5.531641237e-01,8.87160e-01,9.99999e-01,9.99803e-01,8.87334e-01,9.99999e-01
5.559299443e-01,8.89348e-01,9.99999e-01,9.99904e-01,8.89432e-01,9.99999e-01
5.587095940e-01,8.91440e-01,9.99999e-01,9.99940e-01,8.91493e-01,9.99999e-01
5.615031420e-01,8.93459e-01,9.99999e-01,9.99933e-01,8.93517e-01,9.99999e-01
5.643106577e-01,8.95440e-01,9.99999e-01,9.99926e-01,8.95507e-01,9.99998e-01
5.671322110e-01,8.96658e-01,9.99999e-01,9.99112e-01,8.97461e-01,9.99992e-01
5.699678720e-01,8.98484e-01,9.99999e-01,9.99026e-01,8.99381e-01,9.99974e-01
5.728177114e-01,9.00346e-01,9.99999e-01,9.98998e-01,9.01267e-01,9.99978e-01
5.756818000e-01,9.02276e-01,9.99999e-01,9.99078e-01,9.03119e-01,9.99986e-01
5.785602090e-01,9.04207e-01,9.99999e-01,9.99194e-01,9.04939e-01,9.99995e-01
5.814530100e-01,9.05994e-01,9.99999e-01,9.99193e-01,9.06726e-01,9.99997e-01
5.843602750e-01,9.07612e-01,9.99999e-01,9.99047e-01,9.08481e-01,9.99994e-01
5.872820764e-01,9.02693e-01,9.99999e-01,9.91803e-01,9.10205e-01,9.99941e-01
5.902184868e-01,9.02612e-01,9.99999e-01,9.89972e-01,9.11899e-01,9.99840e-01
5.931695792e-01,9.06966e-01,9.99999e-01,9.92933e-01,9.13561e-01,9.99845e-01
5.961354271e-01,9.08004e-01,9.99999e-01,9.92235e-01,9.15194e-01,9.99906e-01
5.991161043e-01,9.11570e-01,9.99999e-01,9.94324e-01,9.16797e-01,9.99972e-01
6.021116848e-01,9.15405e-01,9.99999e-01,9.96771e-01,9.18372e-01,9.99996e-01
6.051222432e-01,9.18414e-01,9.99999e-01,9.98364e-01,9.19918e-01,9.99999e-01
6.081478544e-01,9.20787e-01,9.99999e-01,9.99294e-01,9.21436e-01,9.99999e-01
6.111885937e-01,9.22650e-01,9.99999e-01,9.99700e-01,9.22926e-01,9.99999e-01
6.142445367e-01,9.24266e-01,9.99999e-01,9.99866e-01,9.24389e-01,9.99999e-01
6.173157594e-01,9.25758e-01,9.99999e-01,9.99926e-01,9.25826e-01,9.99999e-01
6.204023382e-01,9.27179e-01,9.99999e-01,9.99937e-01,9.27237e-01,9.99999e-01
6.235043498e-01,9.28372e-01,9.99999e-01,9.99731e-01,9.28621e-01,9.99998e-01
6.266218716e-01,9.28629e-01,9.99999e-01,9.98556e-01,9.29981e-01,9.99989e-01
6.297549810e-01,9.30803e-01,9.99999e-01,9.99470e-01,9.31315e-01,9.99979e-01
6.329037559e-01,9.31631e-01,9.99999e-01,9.98950e-01,9.32625e-01,9.99983e-01
6.360682746e-01,9.33071e-01,9.99999e-01,9.99110e-01,9.33911e-01,9.99989e-01
6.392486160e-01,9.34089e-01,9.99999e-01,9.98844e-01,9.35173e-01,9.99995e-01
6.424448591e-01,9.35109e-01,9.99999e-01,9.98615e-01,9.36412e-01,9.99992e-01
6.456570834e-01,9.30985e-01,9.99999e-01,9.92954e-01,9.37628e-01,9.99959e-01
6.488853688e-01,9.32920e-01,9.99999e-01,9.93824e-01,9.38821e-01,9.99888e-01
6.521297956e-01,9.34868e-01,9.99999e-01,9.94640e-01,9.39993e-01,9.99906e-01
6.553904446e-01,9.36096e-01,9.99999e-01,9.94707e-01,9.41142e-01,9.99929e-01
6.586673968e-01,9.37936e-01,9.99999e-01,9.95422e-01,9.42271e-01,9.99976e-01
6.619607338e-01,9.40876e-01,9.99999e-01,9.97352e-01,9.43378e-01,9.99994e-01
6.652705375e-01,9.43010e-01,9.99999e-01,9.98461e-01,9.44465e-01,9.99997e-01
6.685968902e-01,9.44856e-01,9.99999e-01,9.99285e-01,9.45531e-01,9.99999e-01
6.719398746e-01,9.46264e-01,9.99999e-01,9.99668e-01,9.46578e-01,9.99999e-01
6.752995740e-01,9.47436e-01,9.99999e-01,9.99821e-01,9.47605e-01,9.99999e-01
6.786760719e-01,9.48370e-01,9.99999e-01,9.99743e-01,9.48613e-01,9.99999e-01
6.820694522e-01,9.49182e-01,9.99999e-01,9.99559e-01,9.49602e-01,9.99997e-01
6.854797995e-01,9.50029e-01,9.99999e-01,9.99433e-01,9.50572e-01,9.99994e-01
6.889071985e-01,9.50229e-01,9.99999e-01,9.98650e-01,9.51524e-01,9.99987e-01
6.923517345e-01,9.31323e-01,9.99999e-01,9.77914e-01,9.52459e-01,9.99891e-01
6.958134932e-01,9.41916e-01,9.99999e-01,9.88219e-01,9.53376e-01,9.99756e-01
6.992925606e-01,9.43598e-01,9.99999e-01,9.89022e-01,9.54275e-01,9.99785e-01
7.027890234e-01,9.41964e-01,9.99999e-01,9.86348e-01,9.55158e-01,9.99835e-01
7.063029686e-01,9.44971e-01,9.99999e-01,9.88518e-01,9.56024e-01,9.99917e-01
7.098344834e-01,9.46284e-01,9.99999e-01,9.88980e-01,9.56873e-01,9.99951e-01
7.133836558e-01,9.43779e-01,9.99999e-01,9.85551e-01,9.57707e-01,9.99903e-01
7.169505741e-01,8.51902e-01,9.99999e-01,8.89433e-01,9.58525e-01,9.99245e-01
7.205353270e-01,9.03547e-01,9.99999e-01,9.43109e-01,9.59327e-01,9.98668e-01
7.241380036e-01,8.91224e-01,9.99999e-01,9.29324e-01,9.60114e-01,9.98841e-01
7.277586936e-01,8.98473e-01,9.99999e-01,9.35945e-01,9.60886e-01,9.99037e-01
7.313974871e-01,8.95341e-01,9.99999e-01,9.31461e-01,9.61644e-01,9.99559e-01
7.350544745e-01,9.25680e-01,9.99999e-01,9.62004e-01,9.62387e-01,9.99846e-01
7.387297469e-01,9.35945e-01,9.99999e-01,9.71855e-01,9.63116e-01,9.99929e-01
7.424233956e-01,9.50414e-01,9.99999e-01,9.86091e-01,9.63831e-01,9.99985e-01
7.461355126e-01,9.56395e-01,9.99999e-01,9.91564e-01,9.64533e-01,9.99997e-01
7.498661902e-01,9.61412e-01,9.99999e-01,9.96053e-01,9.65221e-01,9.99998e-01
7.536155211e-01,9.64031e-01,9.99999e-01,9.98068e-01,9.65896e-01,9.99999e-01
7.573835987e-01,9.65596e-01,9.99999e-01,9.99004e-01,9.66558e-01,9.99999e-01
7.611705167e-01,9.66610e-01,9.99999e-01,9.99381e-01,9.67208e-01,9.99999e-01
7.649763693e-01,9.67471e-01,9.99999e-01,9.99612e-01,9.67845e-01,9.99999e-01
7.688012511e-01,9.68210e-01,9.99999e-01,9.99730e-01,9.68470e-01,9.99999e-01
7.726452574e-01,9.68869e-01,9.99999e-01,9.99778e-01,9.69083e-01,9.99999e-01
7.765084837e-01,9.69382e-01,9.99999e-01,9.99687e-01,9.69685e-01,9.99999e-01
7.803910261e-01,9.68968e-01,9.99999e-01,9.98654e-01,9.70274e-01,9.99998e-01
7.842929812e-01,9.66294e-01,9.99999e-01,9.95312e-01,9.70853e-01,9.99990e-01
7.882144461e-01,9.61916e-01,9.99999e-01,9.90275e-01,9.71420e-01,9.99939e-01
7.921555184e-01,9.66645e-01,9.99999e-01,9.94628e-01,9.71977e-01,9.99884e-01
7.961162960e-01,9.63309e-01,9.99999e-01,9.90635e-01,9.72523e-01,9.99888e-01
8.000968774e-01,9.62359e-01,9.99999e-01,9.89120e-01,9.73058e-01,9.99881e-01
8.040973618e-01,9.62916e-01,9.99999e-01,9.89135e-01,9.73583e-01,9.99906e-01
8.081178486e-01,9.50501e-01,9.99999e-01,9.75860e-01,9.74098e-01,9.99911e-01
8.121584379e-01,8.79974e-01,9.99999e-01,9.03216e-01,9.74603e-01,9.99655e-01
8.162192301e-01,8.61982e-01,9.99999e-01,8.85140e-01,9.75098e-01,9.98704e-01
8.203003262e-01,9.18217e-01,9.99999e-01,9.42625e-01,9.75584e-01,9.98483e-01
8.244018279e-01,8.96066e-01,9.99999e-01,9.19152e-01,9.76061e-01,9.98792e-01
8.285238370e-01,9.07386e-01,9.99999e-01,9.30076e-01,9.76528e-01,9.99051e-01
8.326664562e-01,9.07369e-01,9.99999e-01,9.29106e-01,9.76986e-01,9.99607e-01
8.368297885e-01,9.27128e-01,9.99999e-01,9.48615e-01,9.77435e-01,9.99909e-01
8.410139374e-01,9.47625e-01,9.99999e-01,9.69115e-01,9.77876e-01,9.99947e-01
8.452190071e-01,9.63324e-01,9.99999e-01,9.84714e-01,9.78308e-01,9.99968e-01
8.494451021e-01,9.70034e-01,9.99999e-01,9.91136e-01,9.78732e-01,9.99974e-01
8.536923276e-01,9.73973e-01,9.99999e-01,9.94731e-01,9.79148e-01,9.99982e-01
8.579607893e-01,9.76381e-01,9.99999e-01,9.96763e-01,9.79556e-01,9.99995e-01
8.622505932e-01,9.77934e-01,9.99999e-01,9.97937e-01,9.79955e-01,9.99998e-01
8.665618462e-01,9.79101e-01,9.99999e-01,9.98728e-01,9.80347e-01,9.99999e-01
8.708946554e-01,9.79307e-01,9.99999e-01,9.98548e-01,9.80732e-01,9.99998e-01
8.752491287e-01,9.79200e-01,9.99999e-01,9.98055e-01,9.81109e-01,9.99997e-01
8.796253743e-01,9.78840e-01,9.99999e-01,9.97317e-01,9.81478e-01,9.99993e-01
8.840235012e-01,9.78812e-01,9.99999e-01,9.96933e-01,9.81841e-01,9.99980e-01
8.884436187e-01,9.71425e-01,9.99999e-01,9.89085e-01,9.82196e-01,9.99946e-01
8.928858368e-01,8.74095e-01,9.99999e-01,8.89896e-01,9.82545e-01,9.99692e-01
8.973502660e-01,7.97123e-01,9.99999e-01,8.12280e-01,9.82887e-01,9.98424e-01
9.018370173e-01,8.81342e-01,9.99999e-01,8.98605e-01,9.83222e-01,9.97524e-01
9.063462024e-01,8.94484e-01,9.99999e-01,9.11425e-01,9.83550e-01,9.97825e-01
9.108779334e-01,8.48840e-01,9.99999e-01,8.64707e-01,9.83873e-01,9.97740e-01
9.154323231e-01,8.32248e-01,9.99999e-01,8.47200e-01,9.84189e-01,9.98131e-01
9.200094847e-01,8.63621e-01,9.99999e-01,8.78137e-01,9.84499e-01,9.98953e-01
9.246095321e-01,8.09362e-01,9.99999e-01,8.22843e-01,9.84802e-01,9.98794e-01
9.292325798e-01,2.76094e-01,9.99999e-01,2.81590e-01,9.85100e-01,9.95308e-01
9.338787427e-01,1.85778e-01,9.99999e-01,1.92233e-01,9.85392e-01,9.80748e-01
9.385481364e-01,4.92699e-01,9.99999e-01,5.11548e-01,9.85679e-01,9.77144e-01
9.432408771e-01,3.94371e-01,9.99999e-01,4.08045e-01,9.85960e-01,9.80251e-01
9.479570815e-01,2.82502e-01,9.99999e-01,2.91132e-01,9.86235e-01,9.83897e-01
9.526968669e-01,3.76158e-01,9.99999e-01,3.85098e-01,9.86505e-01,9.90147e-01
9.574603512e-01,3.97536e-01,9.99999e-01,4.04897e-01,9.86770e-01,9.94982e-01
9.622476530e-01,4.65948e-01,9.99999e-01,4.73715e-01,9.87030e-01,9.96527e-01
9.670588912e-01,6.38906e-01,9.99999e-01,6.48675e-01,9.87284e-01,9.97624e-01
9.718941857e-01,7.48983e-01,9.99999e-01,7.59766e-01,9.87534e-01,9.98250e-01
9.767536566e-01,7.85155e-01,9.99999e-01,7.95933e-01,9.87778e-01,9.98662e-01
9.816374249e-01,8.33085e-01,9.99999e-01,8.43578e-01,9.88018e-01,9.99536e-01
9.865456120e-01,8.88317e-01,9.99999e-01,8.98961e-01,9.88254e-01,9.99903e-01
9.914783401e-01,9.25436e-01,9.99999e-01,9.36241e-01,9.88484e-01,9.99972e-01
9.964357318e-01,9.53839e-01,9.99999e-01,9.64745e-01,9.88710e-01,9.99983e-01
1.001417910e+00,9.67854e-01,9.99999e-01,9.78708e-01,9.88932e-01,9.99975e-01
1.006425000e+00,9.77081e-01,9.99999e-01,9.87832e-01,9.89149e-01,9.99965e-01
1.011457125e+00,9.81823e-01,9.99999e-01,9.92410e-01,9.89363e-01,9.99967e-01
1.016514411e+00,9.84454e-01,9.99999e-01,9.94850e-01,9.89572e-01,9.99977e-01
1.021596983e+00,9.85695e-01,9.99999e-01,9.95897e-01,9.89777e-01,9.99977e-01
1.026704968e+00,9.86797e-01,9.99999e-01,9.96801e-01,9.89977e-01,9.99984e-01
1.031838492e+00,9.87863e-01,9.99999e-01,9.97669e-01,9.90174e-01,9.99995e-01
1.036997685e+00,9.88999e-01,9.99999e-01,9.98618e-01,9.90368e-01,9.99998e-01
1.042182673e+00,9.88931e-01,9.99999e-01,9.98358e-01,9.90557e-01,9.99999e-01
1.047393587e+00,9.88583e-01,9.99999e-01,9.97819e-01,9.90743e-01,9.99999e-01
1.052630555e+00,9.87965e-01,9.99999e-01,9.97013e-01,9.90925e-01,9.99998e-01
1.057893707e+00,9.86172e-01,9.99999e-01,9.95026e-01,9.91103e-01,9.99997e-01
1.063183176e+00,9.83163e-01,9.99999e-01,9.91817e-01,9.91278e-01,9.99995e-01
1.068499092e+00,9.77875e-01,9.99999e-01,9.86317e-01,9.91449e-01,9.99990e-01
1.073841587e+00,9.75777e-01,9.99999e-01,9.84044e-01,9.91618e-01,9.99979e-01
1.079210795e+00,9.71417e-01,9.99999e-01,9.79519e-01,9.91783e-01,9.99944e-01
1.084606849e+00,9.61293e-01,9.99999e-01,9.69227e-01,9.91944e-01,9.99867e-01
1.090029883e+00,9.48583e-01,9.99999e-01,9.56396e-01,9.92103e-01,9.99725e-01
1.095480033e+00,8.78148e-01,9.99999e-01,8.85438e-01,9.92258e-01,9.99503e-01
1.100957433e+00,7.29376e-01,9.99999e-01,7.35626e-01,9.92410e-01,9.99085e-01
1.106462220e+00,4.63282e-01,9.99999e-01,4.67479e-01,9.92560e-01,9.98450e-01
1.111994531e+00,2.04272e-01,9.99999e-01,2.06622e-01,9.92706e-01,9.95891e-01
1.117554504e+00,8.07079e-02,9.99999e-01,8.25063e-02,9.92850e-01,9.85246e-01
1.123142276e+00,1.67053e-01,9.99999e-01,1.74267e-01,9.92990e-01,9.65368e-01
1.128757988e+00,2.92668e-01,9.99999e-01,3.06956e-01,9.93128e-01,9.60046e-01
1.134401778e+00,1.31648e-01,9.99999e-01,1.37329e-01,9.93264e-01,9.65131e-01
1.140073787e+00,4.66483e-01,9.99999e-01,4.83129e-01,9.93396e-01,9.71961e-01
1.145774156e+00,2.26043e-01,9.99999e-01,2.33359e-01,9.93526e-01,9.74962e-01
1.151503026e+00,1.97172e-01,9.99999e-01,2.01253e-01,9.93654e-01,9.85973e-01
1.157260541e+00,2.41710e-01,9.99999e-01,2.44252e-01,9.93779e-01,9.95785e-01
1.163046844e+00,3.46544e-01,9.99999e-01,3.49088e-01,9.93901e-01,9.98803e-01
1.168862078e+00,4.70828e-01,9.99999e-01,4.73952e-01,9.94021e-01,9.99383e-01
1.174706389e+00,6.26188e-01,9.99999e-01,6.30394e-01,9.94139e-01,9.99182e-01
1.180579921e+00,7.48822e-01,9.99999e-01,7.54080e-01,9.94254e-01,9.98764e-01
1.186482820e+00,8.46237e-01,9.99999e-01,8.52110e-01,9.94367e-01,9.98731e-01
1.192415234e+00,9.04880e-01,9.99999e-01,9.10768e-01,9.94478e-01,9.99049e-01
1.198377311e+00,9.18583e-01,9.99999e-01,9.24410e-01,9.94587e-01,9.99102e-01
1.204369197e+00,9.22713e-01,9.99999e-01,9.28388e-01,9.94694e-01,9.99187e-01
1.210391043e+00,9.26011e-01,9.99999e-01,9.31312e-01,9.94798e-01,9.99505e-01
1.216442998e+00,9.36052e-01,9.99999e-01,9.41134e-01,9.94901e-01,9.99697e-01
1.222525213e+00,9.48917e-01,9.99999e-01,9.53863e-01,9.95001e-01,9.99811e-01
1.228637839e+00,9.62926e-01,9.99999e-01,9.67752e-01,9.95100e-01,9.99912e-01
1.234781029e+00,9.71216e-01,9.99999e-01,9.75928e-01,9.95196e-01,9.99974e-01
1.240954934e+00,9.80084e-01,9.99999e-01,9.84727e-01,9.95291e-01,9.99992e-01
1.247159708e+00,9.83511e-01,9.99999e-01,9.88076e-01,9.95384e-01,9.99995e-01
1.253395507e+00,9.84940e-01,9.99999e-01,9.89423e-01,9.95475e-01,9.99993e-01
1.259662485e+00,9.85651e-01,9.99999e-01,9.90051e-01,9.95564e-01,9.99990e-01
1.265960797e+00,9.79762e-01,9.99999e-01,9.84056e-01,9.95651e-01,9.99983e-01
1.272290601e+00,9.72439e-01,9.99999e-01,9.76628e-01,9.95737e-01,9.99972e-01
1.278652054e+00,9.47250e-01,9.99999e-01,9.51271e-01,9.95821e-01,9.99950e-01
1.285045314e+00,9.20761e-01,9.99999e-01,9.24632e-01,9.95903e-01,9.99908e-01
1.291470541e+00,8.50497e-01,9.99999e-01,8.54062e-01,9.95984e-01,9.99839e-01
1.297927893e+00,8.10811e-01,9.99999e-01,8.14258e-01,9.96063e-01,9.99701e-01
1.304417533e+00,7.64107e-01,9.99999e-01,7.67551e-01,9.96141e-01,9.99367e-01
1.310939621e+00,7.36228e-01,9.99999e-01,7.39983e-01,9.96217e-01,9.98703e-01
1.317494319e+00,7.15480e-01,9.99999e-01,7.19868e-01,9.96291e-01,9.97602e-01
1.324081790e+00,6.11072e-01,9.99999e-01,6.15708e-01,9.96364e-01,9.96089e-01
1.330702199e+00,2.09972e-01,9.99999e-01,2.12151e-01,9.96436e-01,9.93266e-01
1.337355710e+00,1.15792e-02,9.99999e-01,1.17720e-02,9.96506e-01,9.87073e-01
1.344042489e+00,2.90449e-04,9.99999e-01,3.03095e-04,9.96575e-01,9.61568e-01
1.350762701e+00,2.65444e-10,9.99999e-01,3.04582e-10,9.96643e-01,8.74438e-01
1.357516515e+00,5.07443e-15,9.99999e-01,7.54796e-15,9.96709e-01,6.74510e-01
1.364304097e+00,1.01404e-09,9.99999e-01,2.02847e-09,9.96774e-01,5.01521e-01
1.371125618e+00,1.59520e-06,9.99999e-01,3.06730e-06,9.96837e-01,5.21714e-01
1.377981246e+00,5.98334e-06,9.99999e-01,1.04835e-05,9.96900e-01,5.72512e-01
1.384871152e+00,1.96740e-08,9.99999e-01,3.33696e-08,9.96961e-01,5.91375e-01
1.391795508e+00,1.22592e-09,9.99999e-01,2.02168e-09,9.97021e-01,6.08198e-01
1.398754485e+00,8.58963e-08,9.99999e-01,1.29706e-07,9.97080e-01,6.64177e-01
1.405748258e+00,1.17429e-07,9.99999e-01,1.49593e-07,9.97137e-01,7.87241e-01
1.412776999e+00,1.34191e-07,9.99999e-01,1.50098e-07,9.97194e-01,8.96532e-01
1.419840884e+00,2.97334e-07,9.99999e-01,3.12780e-07,9.97249e-01,9.53238e-01
1.426940089e+00,1.76970e-05,9.99999e-01,1.84023e-05,9.97303e-01,9.64270e-01
1.434074789e+00,1.42673e-04,9.99999e-01,1.49326e-04,9.97356e-01,9.57975e-01
1.441245163e+00,7.33084e-04,9.99999e-01,7.69975e-04,9.97408e-01,9.54561e-01
1.448451389e+00,6.75830e-03,9.99998e-01,7.05709e-03,9.97460e-01,9.60099e-01
1.455693646e+00,3.23518e-02,9.99999e-01,3.34765e-02,9.97510e-01,9.68813e-01
1.462972114e+00,4.70919e-02,9.99999e-01,4.86553e-02,9.97559e-01,9.70234e-01
1.470286975e+00,2.92563e-02,9.99999e-01,3.02106e-02,9.97607e-01,9.70734e-01
