#,Wave/freq,Total,N2,H2O,Rayleigh,CIA
4.000000000e-01,9.26853e-01,9.99999e-01,9.99990e-01,9.26861e-01,9.99999e-01
4.020000000e-01,9.28249e-01,9.99999e-01,9.99994e-01,9.28254e-01,9.99999e-01
4.040100000e-01,9.29618e-01,9.99999e-01,9.99997e-01,9.29620e-01,9.99999e-01
4.060300500e-01,9.30961e-01,9.99999e-01,9.99998e-01,9.30961e-01,9.99999e-01
4.080602003e-01,9.32277e-01,9.99999e-01,9.99999e-01,9.32278e-01,9.99999e-01
4.101005013e-01,9.33570e-01,9.99999e-01,9.99999e-01,9.33570e-01,9.99999e-01
4.121510038e-01,9.34838e-01,9.99999e-01,9.99999e-01,9.34838e-01,9.99999e-01
4.142117588e-01,9.36081e-01,9.99999e-01,9.99997e-01,9.36083e-01,9.99999e-01
4.162828176e-01,9.37295e-01,9.99999e-01,9.99988e-01,9.37305e-01,9.99999e-01
4.183642317e-01,9.38499e-01,9.99999e-01,9.99993e-01,9.38505e-01,9.99999e-01
4.204560528e-01,9.39678e-01,9.99999e-01,9.99995e-01,9.39682e-01,9.99999e-01
4.225583331e-01,9.40836e-01,9.99999e-01,9.99998e-01,9.40838e-01,9.99999e-01
4.246711247e-01,9.41970e-01,9.99999e-01,9.99998e-01,9.41972e-01,9.99999e-01
4.267944804e-01,9.43083e-01,9.99999e-01,9.99997e-01,9.43084e-01,9.99999e-01
4.289284528e-01,9.44175e-01,9.99999e-01,9.99998e-01,9.44177e-01,9.99999e-01
4.310730950e-01,9.45248e-01,9.99999e-01,9.99998e-01,9.45249e-01,9.99999e-01
4.332284605e-01,9.46300e-01,9.99999e-01,9.99999e-01,9.46300e-01,9.99999e-01
4.353946028e-01,9.47333e-01,9.99999e-01,9.99999e-01,9.47333e-01,9.99999e-01
4.375715758e-01,9.48345e-01,9.99999e-01,9.99998e-01,9.48346e-01,9.99999e-01
4.397594337e-01,9.49331e-01,9.99999e-01,9.99990e-01,9.49340e-01,9.99999e-01
4.419582309e-01,9.50271e-01,9.99999e-01,9.99952e-01,9.50315e-01,9.99999e-01
4.441680220e-01,9.51237e-01,9.99999e-01,9.99962e-01,9.51272e-01,9.99999e-01
4.463888621e-01,9.52175e-01,9.99999e-01,9.99961e-01,9.52211e-01,9.99999e-01
4.486208064e-01,9.53110e-01,9.99999e-01,9.99975e-01,9.53133e-01,9.99999e-01
4.508639105e-01,9.54026e-01,9.99999e-01,9.99988e-01,9.54037e-01,9.99999e-01
4.531182300e-01,9.54920e-01,9.99999e-01,9.99995e-01,9.54924e-01,9.99999e-01
4.553838212e-01,9.55791e-01,9.99999e-01,9.99996e-01,9.55794e-01,9.99999e-01
4.576607403e-01,9.56647e-01,9.99999e-01,9.99998e-01,9.56648e-01,9.99999e-01
4.599490440e-01,9.57485e-01,9.99999e-01,9.99998e-01,9.57486e-01,9.99999e-01
4.622487892e-01,9.58308e-01,9.99999e-01,9.99999e-01,9.58308e-01,9.99999e-01
4.645600332e-01,9.59114e-01,9.99999e-01,9.99998e-01,9.59114e-01,9.99999e-01
4.668828333e-01,9.59895e-01,9.99999e-01,9.99988e-01,9.59905e-01,9.99999e-01
4.692172475e-01,9.60658e-01,9.99999e-01,9.99975e-01,9.60682e-01,9.99999e-01
4.715633337e-01,9.61428e-01,9.99999e-01,9.99983e-01,9.61443e-01,9.99999e-01
4.739211504e-01,9.62176e-01,9.99999e-01,9.99984e-01,9.62190e-01,9.99999e-01
4.762907561e-01,9.62915e-01,9.99999e-01,9.99991e-01,9.62923e-01,9.99999e-01
4.786722099e-01,9.63639e-01,9.99999e-01,9.99996e-01,9.63642e-01,9.99999e-01
4.810655710e-01,9.64346e-01,9.99999e-01,9.99998e-01,9.64347e-01,9.99999e-01
4.834708988e-01,9.65030e-01,9.99999e-01,9.99990e-01,9.65039e-01,9.99999e-01
4.858882533e-01,9.65701e-01,9.99999e-01,9.99982e-01,9.65717e-01,9.99999e-01
4.883176946e-01,9.66369e-01,9.99999e-01,9.99985e-01,9.66383e-01,9.99999e-01
4.907592831e-01,9.67023e-01,9.99999e-01,9.99986e-01,9.67036e-01,9.99999e-01
4.932130795e-01,9.67667e-01,9.99999e-01,9.99990e-01,9.67676e-01,9.99999e-01
4.956791449e-01,9.68300e-01,9.99999e-01,9.99994e-01,9.68305e-01,9.99999e-01
4.981575406e-01,9.68897e-01,9.99999e-01,9.99975e-01,9.68921e-01,9.99999e-01
5.006483283e-01,9.69464e-01,9.99999e-01,9.99937e-01,9.69525e-01,9.99999e-01
5.031515699e-01,9.69806e-01,9.99999e-01,9.99681e-01,9.70118e-01,9.99996e-01
5.056673278e-01,9.70532e-01,9.99999e-01,9.99831e-01,9.70700e-01,9.99995e-01
5.081956644e-01,9.71061e-01,9.99999e-01,9.99787e-01,9.71270e-01,9.99997e-01
5.107366428e-01,9.71689e-01,9.99999e-01,9.99855e-01,9.71829e-01,9.99999e-01
5.132903260e-01,9.72298e-01,9.99999e-01,9.99917e-01,9.72378e-01,9.99999e-01
5.158567776e-01,9.72882e-01,9.99999e-01,9.99964e-01,9.72916e-01,9.99999e-01
5.184360615e-01,9.73430e-01,9.99999e-01,9.99985e-01,9.73444e-01,9.99999e-01
5.210282418e-01,9.73956e-01,9.99999e-01,9.99994e-01,9.73961e-01,9.99999e-01
5.236333830e-01,9.74449e-01,9.99999e-01,9.99978e-01,9.74469e-01,9.99999e-01
5.262515499e-01,9.74954e-01,9.99999e-01,9.99986e-01,9.74967e-01,9.99999e-01
5.288828077e-01,9.75444e-01,9.99999e-01,9.99987e-01,9.75455e-01,9.99999e-01
5.315272217e-01,9.75924e-01,9.99999e-01,9.99988e-01,9.75934e-01,9.99999e-01
5.341848578e-01,9.76397e-01,9.99999e-01,9.99992e-01,9.76404e-01,9.99999e-01
5.368557821e-01,9.76841e-01,9.99999e-01,9.99975e-01,9.76865e-01,9.99999e-01
5.395400610e-01,9.77231e-01,9.99999e-01,9.99913e-01,9.77316e-01,9.99998e-01
5.422377613e-01,9.77647e-01,9.99999e-01,9.99886e-01,9.77759e-01,9.99997e-01
5.449489501e-01,9.78090e-01,9.99999e-01,9.99895e-01,9.78194e-01,9.99997e-01
5.476736949e-01,9.78528e-01,9.99999e-01,9.99906e-01,9.78620e-01,9.99998e-01
5.504120634e-01,9.78971e-01,9.99999e-01,9.99931e-01,9.79038e-01,9.99999e-01
5.531641237e-01,9.79414e-01,9.99999e-01,9.99965e-01,9.79447e-01,9.99999e-01
5.559299443e-01,9.79833e-01,9.99999e-01,9.99983e-01,9.79849e-01,9.99999e-01
5.587095940e-01,9.80233e-01,9.99999e-01,9.99989e-01,9.80243e-01,9.99999e-01
5.615031420e-01,9.80619e-01,9.99999e-01,9.99988e-01,9.80630e-01,9.99999e-01
5.643106577e-01,9.80996e-01,9.99999e-01,9.99986e-01,9.81009e-01,9.99999e-01
5.671322110e-01,9.81227e-01,9.99999e-01,9.99844e-01,9.81380e-01,9.99998e-01
5.699678720e-01,9.81575e-01,9.99999e-01,9.99830e-01,9.81745e-01,9.99995e-01
5.728177114e-01,9.81928e-01,9.99999e-01,9.99825e-01,9.82102e-01,9.99995e-01
5.756818000e-01,9.82293e-01,9.99999e-01,9.99839e-01,9.82452e-01,9.99997e-01
5.785602090e-01,9.82658e-01,9.99999e-01,9.99859e-01,9.82796e-01,9.99998e-01
5.814530100e-01,9.82995e-01,9.99999e-01,9.99859e-01,9.83133e-01,9.99999e-01
5.843602750e-01,9.83299e-01,9.99999e-01,9.99833e-01,9.83463e-01,9.99998e-01
5.872820764e-01,9.82367e-01,9.99999e-01,9.98565e-01,9.83787e-01,9.99989e-01
5.902184868e-01,9.82357e-01,9.99999e-01,9.98250e-01,9.84105e-01,9.99971e-01
5.931695792e-01,9.83176e-01,9.99999e-01,9.98766e-01,9.84416e-01,9.99972e-01
5.961354271e-01,9.83373e-01,9.99999e-01,9.98645e-01,9.84722e-01,9.99983e-01
5.991161043e-01,9.84044e-01,9.99999e-01,9.99011e-01,9.85021e-01,9.99994e-01
6.021116848e-01,9.84762e-01,9.99999e-01,9.99438e-01,9.85315e-01,9.99998e-01
6.051222432e-01,9.85323e-01,9.99999e-01,9.99715e-01,9.85603e-01,9.99999e-01
6.081478544e-01,9.85765e-01,9.99999e-01,9.99877e-01,9.85885e-01,9.99999e-01
6.111885937e-01,9.86111e-01,9.99999e-01,9.99947e-01,9.86162e-01,9.99999e-01
6.142445367e-01,9.86411e-01,9.99999e-01,9.99976e-01,9.86434e-01,9.99999e-01
6.173157594e-01,9.86687e-01,9.99999e-01,9.99986e-01,9.86700e-01,9.99999e-01
6.204023382e-01,9.86950e-01,9.99999e-01,9.99988e-01,9.86961e-01,9.99999e-01
6.235043498e-01,9.87170e-01,9.99999e-01,9.99952e-01,9.87217e-01,9.99999e-01
6.266218716e-01,9.87218e-01,9.99999e-01,9.99748e-01,9.87467e-01,9.99997e-01
6.297549810e-01,9.87619e-01,9.99999e-01,9.99907e-01,9.87713e-01,9.99995e-01
6.329037559e-01,9.87772e-01,9.99999e-01,9.99817e-01,9.87955e-01,9.99996e-01
6.360682746e-01,9.88037e-01,9.99999e-01,9.99844e-01,9.88191e-01,9.99997e-01
6.392486160e-01,9.88224e-01,9.99999e-01,9.99798e-01,9.88423e-01,9.99998e-01
6.424448591e-01,9.88385e-01,9.99999e-01,9.99732e-01,9.88650e-01,9.99998e-01
6.456570834e-01,9.87640e-01,9.99999e-01,9.98758e-01,9.88873e-01,9.99992e-01
6.488853688e-01,9.88011e-01,9.99999e-01,9.98925e-01,9.89092e-01,9.99980e-01
6.521297956e-01,9.88366e-01,9.99999e-01,9.99065e-01,9.89306e-01,9.99983e-01
6.553904446e-01,9.88592e-01,9.99999e-01,9.99077e-01,9.89516e-01,9.99987e-01
6.586673968e-01,9.88930e-01,9.99999e-01,9.99203e-01,9.89722e-01,9.99995e-01
6.619607338e-01,9.89468e-01,9.99999e-01,9.99539e-01,9.89924e-01,9.99998e-01
6.652705375e-01,9.89858e-01,9.99999e-01,9.99732e-01,9.90122e-01,9.99999e-01
6.685968902e-01,9.90194e-01,9.99999e-01,9.99875e-01,9.90316e-01,9.99999e-01
6.719398746e-01,9.90450e-01,9.99999e-01,9.99942e-01,9.90507e-01,9.99999e-01
6.752995740e-01,9.90663e-01,9.99999e-01,9.99968e-01,9.90693e-01,9.99999e-01
6.786760719e-01,9.90832e-01,9.99999e-01,9.99954e-01,9.90876e-01,9.99999e-01
6.820694522e-01,9.90980e-01,9.99999e-01,9.99923e-01,9.91056e-01,9.99999e-01
6.854797995e-01,9.91133e-01,9.99999e-01,9.99901e-01,9.91232e-01,9.99998e-01
6.889071985e-01,9.91168e-01,9.99999e-01,9.99763e-01,9.91404e-01,9.99997e-01
6.923517345e-01,9.87700e-01,9.99999e-01,9.96111e-01,9.91573e-01,9.99980e-01
6.958134932e-01,9.89658e-01,9.99999e-01,9.97943e-01,9.91739e-01,9.99957e-01
6.992925606e-01,9.89959e-01,9.99999e-01,9.98078e-01,9.91901e-01,9.99962e-01
7.027890234e-01,9.89664e-01,9.99999e-01,9.97612e-01,9.92061e-01,9.99971e-01
7.063029686e-01,9.90214e-01,9.99999e-01,9.97994e-01,9.92217e-01,9.99985e-01
7.098344834e-01,9.90453e-01,9.99999e-01,9.98076e-01,9.92370e-01,9.99991e-01
7.133836558e-01,9.89984e-01,9.99999e-01,9.97460e-01,9.92520e-01,9.99982e-01
7.169505741e-01,9.72228e-01,9.99999e-01,9.79538e-01,9.92667e-01,9.99868e-01
7.205353270e-01,9.82463e-01,9.99999e-01,9.89805e-01,9.92812e-01,9.99768e-01
7.241380036e-01,9.80081e-01,9.99999e-01,9.87233e-01,9.92953e-01,9.99799e-01
7.277586936e-01,9.81475e-01,9.99999e-01,9.88463e-01,9.93092e-01,9.99836e-01
7.313974871e-01,9.80926e-01,9.99999e-01,9.87689e-01,9.93228e-01,9.99923e-01
7.350544745e-01,9.86654e-01,9.99999e-01,9.93274e-01,9.93361e-01,9.99972e-01
7.387297469e-01,9.88560e-01,9.99999e-01,9.95047e-01,9.93492e-01,9.99987e-01
7.424233956e-01,9.91205e-01,9.99999e-01,9.97571e-01,9.93620e-01,9.99997e-01
7.461355126e-01,9.92285e-01,9.99999e-01,9.98529e-01,9.93745e-01,9.99999e-01
7.498661902e-01,9.93187e-01,9.99999e-01,9.99313e-01,9.93869e-01,9.99999e-01
7.536155211e-01,9.93656e-01,9.99999e-01,9.99664e-01,9.93989e-01,9.99999e-01
7.573835987e-01,9.93936e-01,9.99999e-01,9.99826e-01,9.94108e-01,9.99999e-01
7.611705167e-01,9.94117e-01,9.99999e-01,9.99892e-01,9.94224e-01,9.99999e-01
7.649763693e-01,9.94271e-01,9.99999e-01,9.99932e-01,9.94337e-01,9.99999e-01
7.688012511e-01,9.94402e-01,9.99999e-01,9.99952e-01,9.94449e-01,9.99999e-01
7.726452574e-01,9.94520e-01,9.99999e-01,9.99961e-01,9.94558e-01,9.99999e-01
7.765084837e-01,9.94611e-01,9.99999e-01,9.99945e-01,9.94665e-01,9.99999e-01
7.803910261e-01,9.94537e-01,9.99999e-01,9.99765e-01,9.94771e-01,9.99999e-01
7.842929812e-01,9.94058e-01,9.99999e-01,9.99181e-01,9.94874e-01,9.99997e-01
7.882144461e-01,9.93276e-01,9.99999e-01,9.98302e-01,9.94975e-01,9.99989e-01
7.921555184e-01,9.94124e-01,9.99999e-01,9.99064e-01,9.95074e-01,9.99979e-01
7.961162960e-01,9.93522e-01,9.99999e-01,9.98362e-01,9.95171e-01,9.99980e-01
8.000968774e-01,9.93355e-01,9.99999e-01,9.98100e-01,9.95266e-01,9.99979e-01
8.040973618e-01,9.93454e-01,9.99999e-01,9.98101e-01,9.95359e-01,9.99983e-01
8.081178486e-01,9.91198e-01,9.99999e-01,9.95743e-01,9.95450e-01,9.99984e-01
8.121584379e-01,9.77849e-01,9.99999e-01,9.82287e-01,9.95540e-01,9.99939e-01
8.162192301e-01,9.74321e-01,9.99999e-01,9.78819e-01,9.95628e-01,9.99774e-01
8.203003262e-01,9.84978e-01,9.99999e-01,9.89478e-01,9.95714e-01,9.99735e-01
8.244018279e-01,9.80638e-01,9.99999e-01,9.84981e-01,9.95799e-01,9.99789e-01
8.285238370e-01,9.83168e-01,9.99999e-01,9.87396e-01,9.95881e-01,9.99834e-01
8.326664562e-01,9.83158e-01,9.99999e-01,9.87210e-01,9.95963e-01,9.99931e-01
8.368297885e-01,9.86919e-01,9.99999e-01,9.90855e-01,9.96042e-01,9.99983e-01
8.410139374e-01,9.90692e-01,9.99999e-01,9.94559e-01,9.96120e-01,9.99990e-01
8.452190071e-01,9.93530e-01,9.99999e-01,9.97328e-01,9.96197e-01,9.99994e-01
8.494451021e-01,9.94728e-01,9.99999e-01,9.98454e-01,9.96272e-01,9.99995e-01
8.536923276e-01,9.95429e-01,9.99999e-01,9.99083e-01,9.96345e-01,9.99996e-01
8.579607893e-01,9.95855e-01,9.99999e-01,9.99436e-01,9.96417e-01,9.99998e-01
8.622505932e-01,9.96131e-01,9.99999e-01,9.99641e-01,9.96488e-01,9.99999e-01
8.665618462e-01,9.96337e-01,9.99999e-01,9.99778e-01,9.96557e-01,9.99999e-01
8.708946554e-01,9.96373e-01,9.99999e-01,9.99747e-01,9.96625e-01,9.99999e-01
8.752491287e-01,9.96354e-01,9.99999e-01,9.99661e-01,9.96691e-01,9.99999e-01
8.796253743e-01,9.96290e-01,9.99999e-01,9.99532e-01,9.96757e-01,9.99998e-01
8.840235012e-01,9.96285e-01,9.99999e-01,9.99465e-01,9.96821e-01,9.99996e-01
8.884436187e-01,9.94956e-01,9.99999e-01,9.98075e-01,9.96883e-01,9.99990e-01
8.928858368e-01,9.76580e-01,9.99999e-01,9.79624e-01,9.96945e-01,9.99946e-01
8.973502660e-01,9.60750e-01,9.99999e-01,9.63900e-01,9.97005e-01,9.99725e-01
9.018370173e-01,9.77995e-01,9.99999e-01,9.81296e-01,9.97064e-01,9.99569e-01
9.063462024e-01,9.80547e-01,9.99999e-01,9.83749e-01,9.97122e-01,9.99621e-01
9.108779334e-01,9.71526e-01,9.99999e-01,9.74656e-01,9.97179e-01,9.99606e-01
9.154323231e-01,9.68245e-01,9.99999e-01,9.71245e-01,9.97234e-01,9.99674e-01
9.200094847e-01,9.74515e-01,9.99999e-01,9.77341e-01,9.97289e-01,9.99817e-01
9.246095321e-01,9.62180e-01,9.99999e-01,9.64945e-01,9.97342e-01,9.99790e-01
9.292325798e-01,7.80822e-01,9.99999e-01,7.83501e-01,9.97395e-01,9.99182e-01
9.338787427e-01,7.22905e-01,9.99999e-01,7.27208e-01,9.97446e-01,9.96627e-01
9.385481364e-01,8.74068e-01,9.99999e-01,8.79789e-01,9.97496e-01,9.95990e-01
9.432408771e-01,8.30725e-01,9.99999e-01,8.35659e-01,9.97546e-01,9.96539e-01
9.479570815e-01,7.73895e-01,9.99999e-01,7.77952e-01,9.97594e-01,9.97182e-01
9.526968669e-01,8.26337e-01,9.99999e-01,8.29716e-01,9.97642e-01,9.98280e-01
9.574603512e-01,8.43232e-01,9.99999e-01,8.45924e-01,9.97688e-01,9.99125e-01
9.622476530e-01,8.70569e-01,9.99999e-01,8.73073e-01,9.97734e-01,9.99395e-01
9.670588912e-01,9.22598e-01,9.99999e-01,9.25034e-01,9.97778e-01,9.99586e-01
9.718941857e-01,9.50439e-01,9.99999e-01,9.52802e-01,9.97822e-01,9.99695e-01
9.767536566e-01,9.58420e-01,9.99999e-01,9.60693e-01,9.97865e-01,9.99767e-01
9.816374249e-01,9.68596e-01,9.99999e-01,9.70704e-01,9.97907e-01,9.99919e-01
9.865456120e-01,9.79579e-01,9.99999e-01,9.81609e-01,9.97949e-01,9.99982e-01
9.914783401e-01,9.86615e-01,9.99999e-01,9.88607e-01,9.97989e-01,9.99994e-01
9.964357318e-01,9.91819e-01,9.99999e-01,9.93779e-01,9.98029e-01,9.99996e-01
1.001417910e+00,9.94339e-01,9.99999e-01,9.96268e-01,9.98068e-01,9.99995e-01
1.006425000e+00,9.95979e-01,9.99999e-01,9.97874e-01,9.98106e-01,9.99993e-01
1.011457125e+00,9.96818e-01,9.99999e-01,9.98677e-01,9.98143e-01,9.99994e-01
1.016514411e+00,9.97281e-01,9.99999e-01,9.99103e-01,9.98180e-01,9.99995e-01
1.021596983e+00,9.97499e-01,9.99999e-01,9.99285e-01,9.98216e-01,9.99995e-01
1.026704968e+00,9.97693e-01,9.99999e-01,9.99443e-01,9.98251e-01,9.99996e-01
1.031838492e+00,9.97880e-01,9.99999e-01,9.99594e-01,9.98285e-01,9.99998e-01
1.036997685e+00,9.98079e-01,9.99999e-01,9.99759e-01,9.98319e-01,9.99999e-01
1.042182673e+00,9.98067e-01,9.99999e-01,9.99714e-01,9.98352e-01,9.99999e-01
1.047393587e+00,9.98006e-01,9.99999e-01,9.99620e-01,9.98385e-01,9.99999e-01
1.052630555e+00,9.97897e-01,9.99999e-01,9.99479e-01,9.98417e-01,9.99999e-01
1.057893707e+00,9.97582e-01,9.99999e-01,9.99132e-01,9.98448e-01,9.99999e-01
1.063183176e+00,9.97052e-01,9.99999e-01,9.98571e-01,9.98478e-01,9.99998e-01
1.068499092e+00,9.96117e-01,9.99999e-01,9.97605e-01,9.98508e-01,9.99997e-01
1.073841587e+00,9.95740e-01,9.99999e-01,9.97201e-01,9.98538e-01,9.99995e-01
1.079210795e+00,9.94969e-01,9.99999e-01,9.96405e-01,9.98567e-01,9.99989e-01
1.084606849e+00,9.93149e-01,9.99999e-01,9.94568e-01,9.98595e-01,9.99976e-01
1.090029883e+00,9.90822e-01,9.99999e-01,9.92235e-01,9.98623e-01,9.99951e-01
1.095480033e+00,9.77540e-01,9.99999e-01,9.78945e-01,9.98650e-01,9.99913e-01
1.100957433e+00,9.45832e-01,9.99999e-01,9.47235e-01,9.98677e-01,9.99840e-01
1.106462220e+00,8.69159e-01,9.99999e-01,8.70522e-01,9.98703e-01,9.99730e-01
1.111994531e+00,7.43131e-01,9.99999e-01,7.44609e-01,9.98728e-01,9.99284e-01
1.117554504e+00,6.15879e-01,9.99999e-01,6.18242e-01,9.98753e-01,9.97420e-01
1.123142276e+00,6.90983e-01,9.99999e-01,6.96077e-01,9.98778e-01,9.93893e-01
1.128757988e+00,7.90113e-01,9.99999e-01,7.96685e-01,9.98802e-01,9.92939e-01
1.134401778e+00,5.69336e-01,9.99999e-01,5.73449e-01,9.98826e-01,9.93993e-01
1.140073787e+00,8.69895e-01,9.99999e-01,8.75098e-01,9.98849e-01,9.95197e-01
1.145774156e+00,7.49512e-01,9.99999e-01,7.53671e-01,9.98871e-01,9.95603e-01
1.151503026e+00,7.25603e-01,9.99999e-01,7.28191e-01,9.98894e-01,9.97548e-01
1.157260541e+00,7.70230e-01,9.99999e-01,7.71632e-01,9.98916e-01,9.99265e-01
1.163046844e+00,8.24855e-01,9.99999e-01,8.25904e-01,9.98937e-01,9.99791e-01
1.168862078e+00,8.75375e-01,9.99999e-01,8.76381e-01,9.98958e-01,9.99892e-01
1.174706389e+00,9.20772e-01,9.99999e-01,9.21844e-01,9.98978e-01,9.99857e-01
1.180579921e+00,9.50535e-01,9.99999e-01,9.51692e-01,9.98999e-01,9.99784e-01
1.186482820e+00,9.71308e-01,9.99999e-01,9.72476e-01,9.99018e-01,9.99779e-01
1.192415234e+00,9.82762e-01,9.99999e-01,9.83870e-01,9.99038e-01,9.99834e-01
1.198377311e+00,9.85323e-01,9.99999e-01,9.86406e-01,9.99057e-01,9.99843e-01
1.204369197e+00,9.86061e-01,9.99999e-01,9.87112e-01,9.99075e-01,9.99858e-01
1.210391043e+00,9.86697e-01,9.99999e-01,9.87676e-01,9.99094e-01,9.99913e-01
1.216442998e+00,9.88560e-01,9.99999e-01,9.89490e-01,9.99111e-01,9.99946e-01
1.222525213e+00,9.90923e-01,9.99999e-01,9.91818e-01,9.99129e-01,9.99966e-01
1.228637839e+00,9.93453e-01,9.99999e-01,9.94316e-01,9.99146e-01,9.99984e-01
1.234781029e+00,9.94936e-01,9.99999e-01,9.95773e-01,9.99163e-01,9.99995e-01
1.240954934e+00,9.96509e-01,9.99999e-01,9.97327e-01,9.99179e-01,9.99998e-01
1.247159708e+00,9.97115e-01,9.99999e-01,9.97917e-01,9.99196e-01,9.99998e-01
1.253395507e+00,9.97366e-01,9.99999e-01,9.98153e-01,9.99212e-01,9.99998e-01
1.259662485e+00,9.97490e-01,9.99999e-01,9.98262e-01,9.99227e-01,9.99997e-01
1.265960797e+00,9.96450e-01,9.99999e-01,9.97207e-01,9.99242e-01,9.99996e-01
1.272290601e+00,9.95144e-01,9.99999e-01,9.95888e-01,9.99257e-01,9.99994e-01
1.278652054e+00,9.90586e-01,9.99999e-01,9.91315e-01,9.99272e-01,9.99991e-01
1.285045314e+00,9.85647e-01,9.99999e-01,9.86366e-01,9.99286e-01,9.99983e-01
1.291470541e+00,9.72017e-01,9.99999e-01,9.72723e-01,9.99300e-01,9.99971e-01
1.297927893e+00,9.63762e-01,9.99999e-01,9.64472e-01,9.99314e-01,9.99947e-01
1.304417533e+00,9.53612e-01,9.99999e-01,9.54357e-01,9.99328e-01,9.99889e-01
1.310939621e+00,9.47252e-01,9.99999e-01,9.48089e-01,9.99341e-01,9.99774e-01
1.317494319e+00,9.42498e-01,9.99999e-01,9.43499e-01,9.99354e-01,9.99582e-01
1.324081790e+00,9.15315e-01,9.99999e-01,9.16518e-01,9.99367e-01,9.99318e-01
1.330702199e+00,6.84174e-01,9.99999e-01,6.85403e-01,9.99379e-01,9.98826e-01
1.337355710e+00,3.92498e-01,9.99999e-01,3.93626e-01,9.99391e-01,9.97741e-01
1.344042489e+00,7.62770e-02,9.99999e-01,7.68439e-02,9.99403e-01,9.93213e-01
1.350762701e+00,6.35365e-03,9.99999e-01,6.50732e-03,9.99415e-01,9.76955e-01
1.357516515e+00,1.24983e-03,9.99999e-01,1.33911e-03,9.99427e-01,9.33866e-01
1.364304097e+00,9.35753e-03,9.99999e-01,1.05556e-02,9.99438e-01,8.86996e-01
1.371125618e+00,4.32692e-02,9.99999e-01,4.84749e-02,9.99449e-01,8.93101e-01
1.377981246e+00,6.91377e-02,9.99999e-01,7.62143e-02,9.99460e-01,9.07637e-01
1.384871152e+00,8.04960e-03,9.99999e-01,8.82359e-03,9.99471e-01,9.12764e-01
1.391795508e+00,1.32294e-02,9.99999e-01,1.44307e-02,9.99481e-01,9.17223e-01
1.398754485e+00,2.25709e-02,9.99999e-01,2.42465e-02,9.99491e-01,9.31364e-01
1.405748258e+00,2.26395e-02,9.99999e-01,2.36121e-02,9.99501e-01,9.59284e-01
1.412776999e+00,2.61265e-02,9.99999e-01,2.66401e-02,9.99511e-01,9.81200e-01
1.419840884e+00,3.25234e-02,9.99999e-01,3.28108e-02,9.99521e-01,9.91712e-01
1.426940089e+00,6.99796e-02,9.99999e-01,7.04565e-02,9.99530e-01,9.93697e-01
1.434074789e+00,1.28941e-01,9.99999e-01,1.29966e-01,9.99539e-01,9.92567e-01
1.441245163e+00,2.23743e-01,9.99999e-01,2.25660e-01,9.99548e-01,9.91951e-01
1.448451389e+00,3.39310e-01,9.99999e-01,3.41870e-01,9.99557e-01,9.92949e-01
1.455693646e+00,4.99952e-01,9.99999e-01,5.02930e-01,9.99566e-01,9.94509e-01
1.462972114e+00,5.55207e-01,9.99999e-01,5.58367e-01,9.99575e-01,9.94762e-01
1.470286975e+00,5.02011e-01,9.99999e-01,5.04819e-01,9.99583e-01,9.94851e-01
