#,Wave/freq,Total,N2,H2O,Rayleigh,CIA
4.000000000e-01,4.05615e-01,9.99999e-01,9.99897e-01,4.05657e-01,9.99999e-01
4.020000000e-01,4.12932e-01,9.99999e-01,9.99936e-01,4.12959e-01,9.99999e-01
4.040100000e-01,4.20225e-01,9.99999e-01,9.99972e-01,4.20236e-01,9.99999e-01
4.060300500e-01,4.27492e-01,9.99999e-01,9.99993e-01,4.27494e-01,9.99999e-01
4.080602003e-01,4.34730e-01,9.99999e-01,9.99997e-01,4.34731e-01,9.99999e-01
4.101005013e-01,4.41943e-01,9.99999e-01,9.99999e-01,4.41943e-01,9.99999e-01
4.121510038e-01,4.49128e-01,9.99999e-01,9.99995e-01,4.49129e-01,9.99999e-01
4.142117588e-01,4.56274e-01,9.99999e-01,9.99972e-01,4.56287e-01,9.99999e-01
4.162828176e-01,4.63355e-01,9.99999e-01,9.99873e-01,4.63414e-01,9.99999e-01
4.183642317e-01,4.70472e-01,9.99999e-01,9.99924e-01,4.70508e-01,9.99999e-01
4.204560528e-01,4.77545e-01,9.99999e-01,9.99953e-01,4.77567e-01,9.99999e-01
4.225583331e-01,4.84581e-01,9.99999e-01,9.99982e-01,4.84590e-01,9.99999e-01
4.246711247e-01,4.91567e-01,9.99999e-01,9.99986e-01,4.91574e-01,9.99999e-01
4.267944804e-01,4.98508e-01,9.99999e-01,9.99979e-01,4.98518e-01,9.99999e-01
4.289284528e-01,5.05412e-01,9.99999e-01,9.99983e-01,5.05420e-01,9.99999e-01
4.310730950e-01,5.12275e-01,9.99999e-01,9.99992e-01,5.12278e-01,9.99999e-01
4.332284605e-01,5.19090e-01,9.99999e-01,9.99997e-01,5.19091e-01,9.99999e-01
4.353946028e-01,5.25857e-01,9.99999e-01,9.99998e-01,5.25858e-01,9.99999e-01
4.375715758e-01,5.32570e-01,9.99999e-01,9.99987e-01,5.32576e-01,9.99999e-01
4.397594337e-01,5.39187e-01,9.99999e-01,9.99890e-01,5.39245e-01,9.99999e-01
4.419582309e-01,5.45563e-01,9.99999e-01,9.99447e-01,5.45864e-01,9.99999e-01
4.441680220e-01,5.52186e-01,9.99999e-01,9.99557e-01,5.52430e-01,9.99999e-01
4.463888621e-01,5.58689e-01,9.99999e-01,9.99542e-01,5.58944e-01,9.99999e-01
4.486208064e-01,5.65242e-01,9.99999e-01,9.99714e-01,5.65403e-01,9.99999e-01
4.508639105e-01,5.71731e-01,9.99999e-01,9.99865e-01,5.71808e-01,9.99999e-01
4.531182300e-01,5.78125e-01,9.99999e-01,9.99946e-01,5.78156e-01,9.99999e-01
4.553838212e-01,5.84426e-01,9.99999e-01,9.99963e-01,5.84447e-01,9.99999e-01
4.576607403e-01,5.90670e-01,9.99999e-01,9.99983e-01,5.90680e-01,9.99999e-01
4.599490440e-01,5.96848e-01,9.99999e-01,9.99987e-01,5.96855e-01,9.99999e-01
4.622487892e-01,6.02969e-01,9.99999e-01,9.99997e-01,6.02970e-01,9.99999e-01
4.645600332e-01,6.09021e-01,9.99999e-01,9.99991e-01,6.09026e-01,9.99999e-01
4.668828333e-01,6.14939e-01,9.99999e-01,9.99866e-01,6.15020e-01,9.99999e-01
4.692172475e-01,6.20776e-01,9.99999e-01,9.99712e-01,6.20954e-01,9.99999e-01
4.715633337e-01,6.26709e-01,9.99999e-01,9.99812e-01,6.26826e-01,9.99999e-01
4.739211504e-01,6.32522e-01,9.99999e-01,9.99819e-01,6.32636e-01,9.99999e-01
4.762907561e-01,6.38324e-01,9.99999e-01,9.99906e-01,6.38383e-01,9.99999e-01
4.786722099e-01,6.44043e-01,9.99999e-01,9.99961e-01,6.44068e-01,9.99999e-01
4.810655710e-01,6.49682e-01,9.99999e-01,9.99988e-01,6.49689e-01,9.99999e-01
4.834708988e-01,6.55177e-01,9.99999e-01,9.99892e-01,6.55247e-01,9.99999e-01
4.858882533e-01,6.60607e-01,9.99999e-01,9.99796e-01,6.60742e-01,9.99999e-01
4.883176946e-01,6.66060e-01,9.99999e-01,9.99830e-01,6.66172e-01,9.99999e-01
4.907592831e-01,6.71436e-01,9.99999e-01,9.99845e-01,6.71539e-01,9.99999e-01
4.932130795e-01,6.76768e-01,9.99999e-01,9.99890e-01,6.76841e-01,9.99999e-01
4.956791449e-01,6.82040e-01,9.99999e-01,9.99941e-01,6.82080e-01,9.99999e-01
4.981575406e-01,6.87057e-01,9.99999e-01,9.99713e-01,6.87254e-01,9.99999e-01
5.006483283e-01,6.91851e-01,9.99999e-01,9.99262e-01,6.92364e-01,9.99994e-01
5.031515699e-01,6.94756e-01,9.99999e-01,9.96232e-01,6.97410e-01,9.99959e-01
5.056673278e-01,7.00958e-01,9.99999e-01,9.98002e-01,7.02393e-01,9.99954e-01
5.081956644e-01,7.05507e-01,9.99999e-01,9.97478e-01,7.07311e-01,9.99970e-01
5.107366428e-01,7.10948e-01,9.99999e-01,9.98295e-01,7.12165e-01,9.99994e-01
5.132903260e-01,7.16256e-01,9.99999e-01,9.99023e-01,7.16956e-01,9.99998e-01
5.158567776e-01,7.21386e-01,9.99999e-01,9.99586e-01,7.21684e-01,9.99999e-01
5.184360615e-01,7.26229e-01,9.99999e-01,9.99834e-01,7.26349e-01,9.99999e-01
5.210282418e-01,7.30905e-01,9.99999e-01,9.99938e-01,7.30950e-01,9.99999e-01
5.236333830e-01,7.35307e-01,9.99999e-01,9.99753e-01,7.35489e-01,9.99997e-01
5.262515499e-01,7.39850e-01,9.99999e-01,9.99845e-01,7.39966e-01,9.99997e-01
5.288828077e-01,7.44275e-01,9.99999e-01,9.99858e-01,7.44381e-01,9.99997e-01
5.315272217e-01,7.48640e-01,9.99999e-01,9.99874e-01,7.48734e-01,9.99999e-01
5.341848578e-01,7.52965e-01,9.99999e-01,9.99918e-01,7.53026e-01,9.99999e-01
5.368557821e-01,7.57040e-01,9.99999e-01,9.99714e-01,7.57257e-01,9.99998e-01
5.395400610e-01,7.60642e-01,9.99999e-01,9.98977e-01,7.61427e-01,9.99990e-01
5.422377613e-01,7.64491e-01,9.99999e-01,9.98656e-01,7.65538e-01,9.99975e-01
5.449489501e-01,7.68616e-01,9.99999e-01,9.98761e-01,7.69588e-01,9.99974e-01
5.476736949e-01,7.72714e-01,9.99999e-01,9.98892e-01,7.73580e-01,9.99987e-01
5.504120634e-01,7.76886e-01,9.99999e-01,9.99196e-01,7.77513e-01,9.99996e-01
5.531641237e-01,7.81071e-01,9.99999e-01,9.99595e-01,7.81387e-01,9.99999e-01
5.559299443e-01,7.85050e-01,9.99999e-01,9.99804e-01,7.85204e-01,9.99999e-01
5.587095940e-01,7.88867e-01,9.99999e-01,9.99877e-01,7.88963e-01,9.99999e-01
5.615031420e-01,7.92558e-01,9.99999e-01,9.99863e-01,7.92666e-01,9.99999e-01
5.643106577e-01,7.96191e-01,9.99999e-01,9.99848e-01,7.96312e-01,9.99998e-01
5.671322110e-01,7.98429e-01,9.99999e-01,9.98172e-01,7.99903e-01,9.99984e-01
5.699678720e-01,8.01785e-01,9.99999e-01,9.97992e-01,8.03438e-01,9.99948e-01
5.728177114e-01,8.05219e-01,9.99999e-01,9.97934e-01,8.06919e-01,9.99957e-01
5.756818000e-01,8.08785e-01,9.99999e-01,9.98099e-01,8.10345e-01,9.99973e-01
5.785602090e-01,8.12361e-01,9.99999e-01,9.98339e-01,8.13718e-01,9.99991e-01
5.814530100e-01,8.15677e-01,9.99999e-01,9.98336e-01,8.17038e-01,9.99995e-01
5.843602750e-01,8.18687e-01,9.99999e-01,9.98037e-01,8.20306e-01,9.99988e-01
5.872820764e-01,8.09592e-01,9.99999e-01,9.83203e-01,8.23522e-01,9.99879e-01
5.902184868e-01,8.09415e-01,9.99999e-01,9.79427e-01,8.26686e-01,9.99672e-01
5.931695792e-01,8.17505e-01,9.99999e-01,9.85495e-01,8.29800e-01,9.99681e-01
5.961354271e-01,8.19427e-01,9.99999e-01,9.84055e-01,8.32864e-01,9.99807e-01
5.991161043e-01,8.26074e-01,9.99999e-01,9.88326e-01,8.35878e-01,9.99943e-01
6.021116848e-01,8.33260e-01,9.99999e-01,9.93350e-01,8.38843e-01,9.99992e-01
6.051222432e-01,8.38922e-01,9.99999e-01,9.96628e-01,8.41760e-01,9.99999e-01
6.081478544e-01,8.43401e-01,9.99999e-01,9.98546e-01,8.44629e-01,9.99999e-01
6.111885937e-01,8.46928e-01,9.99999e-01,9.99382e-01,8.47451e-01,9.99999e-01
6.142445367e-01,8.49992e-01,9.99999e-01,9.99724e-01,8.50226e-01,9.99999e-01
6.173157594e-01,8.52826e-01,9.99999e-01,9.99848e-01,8.52955e-01,9.99999e-01
6.204023382e-01,8.55530e-01,9.99999e-01,9.99872e-01,8.55639e-01,9.99999e-01
6.235043498e-01,8.57803e-01,9.99999e-01,9.99447e-01,8.58278e-01,9.99998e-01
6.266218716e-01,8.58294e-01,9.99999e-01,9.97025e-01,8.60873e-01,9.99978e-01
6.297549810e-01,8.62446e-01,9.99999e-01,9.98908e-01,8.63424e-01,9.99957e-01
6.329037559e-01,8.64029e-01,9.99999e-01,9.97835e-01,8.65932e-01,9.99966e-01
6.360682746e-01,8.66788e-01,9.99999e-01,9.98166e-01,8.68398e-01,9.99979e-01
6.392486160e-01,8.68739e-01,9.99999e-01,9.97617e-01,8.70821e-01,9.99990e-01
6.424448591e-01,8.70701e-01,9.99999e-01,9.97146e-01,8.73204e-01,9.99985e-01
6.456570834e-01,8.62816e-01,9.99999e-01,9.85541e-01,8.75545e-01,9.99917e-01
6.488853688e-01,8.66504e-01,9.99999e-01,9.87304e-01,8.77847e-01,9.99770e-01
6.521297956e-01,8.70252e-01,9.99999e-01,9.88990e-01,8.80109e-01,9.99806e-01
6.553904446e-01,8.72602e-01,9.99999e-01,9.89115e-01,8.82332e-01,9.99855e-01
6.586673968e-01,8.76145e-01,9.99999e-01,9.90581e-01,8.84516e-01,9.99952e-01
6.619607338e-01,8.81818e-01,9.99999e-01,9.94545e-01,8.86663e-01,9.99989e-01
6.652705375e-01,8.85949e-01,9.99999e-01,9.96828e-01,8.88772e-01,9.99994e-01
6.685968902e-01,8.89532e-01,9.99999e-01,9.98526e-01,8.90845e-01,9.99998e-01
6.719398746e-01,8.92270e-01,9.99999e-01,9.99315e-01,8.92881e-01,9.99999e-01
6.752995740e-01,8.94552e-01,9.99999e-01,9.99631e-01,8.94881e-01,9.99999e-01
6.786760719e-01,8.96373e-01,9.99999e-01,9.99471e-01,8.96847e-01,9.99998e-01
6.820694522e-01,8.97958e-01,9.99999e-01,9.99092e-01,8.98777e-01,9.99994e-01
6.854797995e-01,8.99612e-01,9.99999e-01,9.98831e-01,9.00674e-01,9.99989e-01
6.889071985e-01,9.00007e-01,9.99999e-01,9.97221e-01,9.02537e-01,9.99974e-01
6.923517345e-01,8.63578e-01,9.99999e-01,9.55109e-01,9.04367e-01,9.99777e-01
6.958134932e-01,8.83892e-01,9.99999e-01,9.75909e-01,9.06164e-01,9.99498e-01
6.992925606e-01,8.87132e-01,9.99999e-01,9.77523e-01,9.07930e-01,9.99558e-01
7.027890234e-01,8.83958e-01,9.99999e-01,9.72070e-01,9.09663e-01,9.99661e-01
7.063029686e-01,8.89771e-01,9.99999e-01,9.76468e-01,9.11366e-01,9.99831e-01
7.098344834e-01,8.92318e-01,9.99999e-01,9.77402e-01,9.13039e-01,9.99900e-01
7.133836558e-01,8.87533e-01,9.99999e-01,9.70511e-01,9.14681e-01,9.99801e-01
7.169505741e-01,7.21542e-01,9.99999e-01,7.88683e-01,9.16293e-01,9.98443e-01
7.205353270e-01,8.12294e-01,9.99999e-01,8.87405e-01,9.17877e-01,9.97255e-01
7.241380036e-01,7.89725e-01,9.99999e-01,8.60982e-01,9.19432e-01,9.97612e-01
7.277586936e-01,8.02936e-01,9.99999e-01,8.73580e-01,9.20959e-01,9.98015e-01
7.313974871e-01,7.96766e-01,9.99999e-01,8.64526e-01,9.22458e-01,9.99091e-01
7.350544745e-01,8.52961e-01,9.99999e-01,9.23479e-01,9.23929e-01,9.99684e-01
7.387297469e-01,8.72409e-01,9.99999e-01,9.42898e-01,9.25375e-01,9.99854e-01
7.424233956e-01,9.00382e-01,9.99999e-01,9.71529e-01,9.26793e-01,9.99971e-01
7.461355126e-01,9.12103e-01,9.99999e-01,9.82676e-01,9.28186e-01,9.99994e-01
7.498661902e-01,9.21998e-01,9.99999e-01,9.91873e-01,9.29553e-01,9.99997e-01
7.536155211e-01,9.27189e-01,9.99999e-01,9.96018e-01,9.30896e-01,9.99998e-01
7.573835987e-01,9.30299e-01,9.99999e-01,9.97946e-01,9.32213e-01,9.99999e-01
7.611705167e-01,9.32316e-01,9.99999e-01,9.98724e-01,9.33507e-01,9.99999e-01
7.649763693e-01,9.34030e-01,9.99999e-01,9.99201e-01,9.34776e-01,9.99999e-01
7.688012511e-01,9.35503e-01,9.99999e-01,9.99444e-01,9.36022e-01,9.99999e-01
7.726452574e-01,9.36818e-01,9.99999e-01,9.99543e-01,9.37245e-01,9.99999e-01
7.765084837e-01,9.37842e-01,9.99999e-01,9.99356e-01,9.38446e-01,9.99998e-01
7.803910261e-01,9.37018e-01,9.99999e-01,9.97228e-01,9.39624e-01,9.99996e-01
7.842929812e-01,9.31699e-01,9.99999e-01,9.90363e-01,9.40781e-01,9.99981e-01
7.882144461e-01,9.23011e-01,9.99999e-01,9.80049e-01,9.41916e-01,9.99876e-01
7.921555184e-01,9.32392e-01,9.99999e-01,9.88954e-01,9.43030e-01,9.99761e-01
7.961162960e-01,9.25788e-01,9.99999e-01,9.80802e-01,9.44123e-01,9.99771e-01
8.000968774e-01,9.23882e-01,9.99999e-01,9.77686e-01,9.45196e-01,9.99756e-01
8.040973618e-01,9.24993e-01,9.99999e-01,9.77724e-01,9.46249e-01,9.99806e-01
8.081178486e-01,9.00719e-01,9.99999e-01,9.51016e-01,9.47282e-01,9.99818e-01
8.121584379e-01,7.69966e-01,9.99999e-01,8.12523e-01,9.48296e-01,9.99289e-01
8.162192301e-01,7.38494e-01,9.99999e-01,7.80025e-01,9.49291e-01,9.97330e-01
8.203003262e-01,8.41581e-01,9.99999e-01,8.88401e-01,9.50267e-01,9.96874e-01
8.244018279e-01,8.02843e-01,9.99999e-01,8.46114e-01,9.51225e-01,9.97511e-01
8.285238370e-01,8.19280e-01,9.99999e-01,8.62123e-01,9.52165e-01,9.98045e-01
8.326664562e-01,8.19446e-01,9.99999e-01,8.60475e-01,9.53087e-01,9.99190e-01
8.368297885e-01,8.55799e-01,9.99999e-01,8.97236e-01,9.53992e-01,9.99814e-01
8.410139374e-01,8.95050e-01,9.99999e-01,9.37442e-01,9.54880e-01,9.99891e-01
8.452190071e-01,9.25812e-01,9.99999e-01,9.68736e-01,9.55752e-01,9.99934e-01
8.494451021e-01,9.39150e-01,9.99999e-01,9.81801e-01,9.56606e-01,9.99947e-01
8.536923276e-01,9.47032e-01,9.99999e-01,9.89158e-01,9.57445e-01,9.99965e-01
8.579607893e-01,9.51871e-01,9.99999e-01,9.93333e-01,9.58268e-01,9.99990e-01
8.622505932e-01,9.54997e-01,9.99999e-01,9.95749e-01,9.59075e-01,9.99998e-01
8.665618462e-01,9.57351e-01,9.99999e-01,9.97379e-01,9.59867e-01,9.99998e-01
8.708946554e-01,9.57768e-01,9.99999e-01,9.97007e-01,9.60644e-01,9.99997e-01
8.752491287e-01,9.57550e-01,9.99999e-01,9.95993e-01,9.61406e-01,9.99995e-01
8.796253743e-01,9.56827e-01,9.99999e-01,9.94476e-01,9.62154e-01,9.99987e-01
8.840235012e-01,9.56772e-01,9.99999e-01,9.93686e-01,9.62887e-01,9.99960e-01
8.884436187e-01,9.42068e-01,9.99999e-01,9.77755e-01,9.63607e-01,9.99889e-01
8.928858368e-01,7.60761e-01,9.99999e-01,7.89416e-01,9.64312e-01,9.99365e-01
8.973502660e-01,6.32201e-01,9.99999e-01,6.57260e-01,9.65005e-01,9.96753e-01
9.018370173e-01,7.74189e-01,9.99999e-01,8.05809e-01,9.65684e-01,9.94899e-01
9.063462024e-01,7.97246e-01,9.99999e-01,8.28720e-01,9.66350e-01,9.95518e-01
9.108779334e-01,7.17174e-01,9.99999e-01,7.45114e-01,9.67004e-01,9.95343e-01
9.154323231e-01,6.88174e-01,9.99999e-01,7.13932e-01,9.67645e-01,9.96149e-01
9.200094847e-01,7.42616e-01,9.99999e-01,7.68605e-01,9.68274e-01,9.97842e-01
9.246095321e-01,6.57774e-01,9.99999e-01,6.80584e-01,9.68891e-01,9.97514e-01
9.292325798e-01,9.60626e-02,9.99999e-01,1.00051e-01,9.69496e-01,9.90344e-01
9.338787427e-01,4.22927e-02,9.99999e-01,4.53808e-02,9.70089e-01,9.60685e-01
9.385481364e-01,2.62538e-01,9.99999e-01,2.83685e-01,9.70671e-01,9.53417e-01
9.432408771e-01,1.79779e-01,9.99999e-01,1.92878e-01,9.71242e-01,9.59681e-01
9.479570815e-01,9.12762e-02,9.99999e-01,9.71237e-02,9.71802e-01,9.67061e-01
9.526968669e-01,1.53617e-01,9.99999e-01,1.61246e-01,9.72351e-01,9.79778e-01
9.574603512e-01,1.67321e-01,9.99999e-01,1.73778e-01,9.72890e-01,9.89676e-01
9.622476530e-01,2.23467e-01,9.99999e-01,2.31222e-01,9.73418e-01,9.92849e-01
9.670588912e-01,4.11774e-01,9.99999e-01,4.24873e-01,9.73936e-01,9.95104e-01
9.718941857e-01,5.55638e-01,9.99999e-01,5.72273e-01,9.74444e-01,9.96393e-01
9.767536566e-01,6.11075e-01,9.99999e-01,6.28512e-01,9.74943e-01,9.97242e-01
9.816374249e-01,6.88003e-01,9.99999e-01,7.06005e-01,9.75431e-01,9.99044e-01
9.865456120e-01,7.83980e-01,9.99999e-01,8.03491e-01,9.75911e-01,9.99800e-01
9.914783401e-01,8.52449e-01,9.99999e-01,8.73118e-01,9.76381e-01,9.99944e-01
9.964357318e-01,9.07180e-01,9.99999e-01,9.28716e-01,9.76842e-01,9.99967e-01
1.001417910e+00,9.34825e-01,9.99999e-01,9.56590e-01,9.77294e-01,9.99950e-01
1.006425000e+00,9.53289e-01,9.99999e-01,9.75062e-01,9.77738e-01,9.99929e-01
1.011457125e+00,9.62854e-01,9.99999e-01,9.84403e-01,9.78173e-01,9.99934e-01
1.016514411e+00,9.68185e-01,9.99999e-01,9.89403e-01,9.78599e-01,9.99953e-01
1.021596983e+00,9.70705e-01,9.99999e-01,9.91554e-01,9.79017e-01,9.99953e-01
1.026704968e+00,9.72945e-01,9.99999e-01,9.93411e-01,9.79427e-01,9.99968e-01
1.031838492e+00,9.75115e-01,9.99999e-01,9.95196e-01,9.79830e-01,9.99991e-01
1.036997685e+00,9.77431e-01,9.99999e-01,9.97151e-01,9.80224e-01,9.99998e-01
1.042182673e+00,9.77293e-01,9.99999e-01,9.96616e-01,9.80611e-01,9.99998e-01
1.047393587e+00,9.76583e-01,9.99999e-01,9.95507e-01,9.80990e-01,9.99998e-01
1.052630555e+00,9.75325e-01,9.99999e-01,9.93848e-01,9.81362e-01,9.99997e-01
1.057893707e+00,9.71681e-01,9.99999e-01,9.89770e-01,9.81727e-01,9.99995e-01
1.063183176e+00,9.65583e-01,9.99999e-01,9.83205e-01,9.82085e-01,9.99990e-01
1.068499092e+00,9.54917e-01,9.99999e-01,9.72008e-01,9.82435e-01,9.99980e-01
1.073841587e+00,9.50744e-01,9.99999e-01,9.67444e-01,9.82779e-01,9.99957e-01
1.079210795e+00,9.41988e-01,9.99999e-01,9.58274e-01,9.83116e-01,9.99886e-01
1.084606849e+00,9.21957e-01,9.99999e-01,9.37730e-01,9.83447e-01,9.99726e-01
1.090029883e+00,8.97281e-01,9.99999e-01,9.12599e-01,9.83771e-01,9.99433e-01
1.095480033e+00,7.66147e-01,9.99999e-01,7.79331e-01,9.84089e-01,9.98975e-01
1.100957433e+00,5.27678e-01,9.99999e-01,5.37051e-01,9.84401e-01,9.98115e-01
1.106462220e+00,2.21391e-01,9.99999e-01,2.25550e-01,9.84707e-01,9.96805e-01
1.111994531e+00,4.65726e-02,9.99999e-01,4.76847e-02,9.85007e-01,9.91542e-01
1.117554504e+00,8.85261e-03,9.99999e-01,9.26446e-03,9.85301e-01,9.69800e-01
1.123142276e+00,3.87127e-02,9.99999e-01,4.22415e-02,9.85589e-01,9.29861e-01
1.128757988e+00,9.35775e-02,9.99999e-01,1.03249e-01,9.85871e-01,9.19315e-01
1.134401778e+00,4.20369e-02,9.99999e-01,4.58658e-02,9.86149e-01,9.29391e-01
1.140073787e+00,2.20893e-01,9.99999e-01,2.37467e-01,9.86420e-01,9.43012e-01
1.145774156e+00,6.20710e-02,9.99999e-01,6.62871e-02,9.86687e-01,9.49029e-01
1.151503026e+00,4.70269e-02,9.99999e-01,4.90579e-02,9.86948e-01,9.71276e-01
1.157260541e+00,6.12244e-02,9.99999e-01,6.25607e-02,9.87204e-01,9.91323e-01
1.163046844e+00,1.23507e-01,9.99999e-01,1.25385e-01,9.87455e-01,9.97532e-01
1.168862078e+00,2.18878e-01,9.99999e-01,2.21885e-01,9.87701e-01,9.98728e-01
1.174706389e+00,3.87388e-01,9.99999e-01,3.92777e-01,9.87943e-01,9.98314e-01
1.180579921e+00,5.54558e-01,9.99999e-01,5.62624e-01,9.88180e-01,9.97452e-01
1.186482820e+00,7.09754e-01,9.99999e-01,7.19957e-01,9.88412e-01,9.97385e-01
1.192415234e+00,8.13934e-01,9.99999e-01,8.24902e-01,9.88639e-01,9.98041e-01
1.198377311e+00,8.39607e-01,9.99999e-01,8.50636e-01,9.88862e-01,9.98149e-01
1.204369197e+00,8.47827e-01,9.99999e-01,8.58623e-01,9.89081e-01,9.98325e-01
1.210391043e+00,8.53789e-01,9.99999e-01,8.63906e-01,9.89296e-01,9.98981e-01
1.216442998e+00,8.72917e-01,9.99999e-01,8.82724e-01,9.89506e-01,9.99375e-01
1.222525213e+00,8.97595e-01,9.99999e-01,9.07275e-01,9.89712e-01,9.99612e-01
1.228637839e+00,9.25076e-01,9.99999e-01,9.34668e-01,9.89914e-01,9.99819e-01
1.234781029e+00,9.41565e-01,9.99999e-01,9.51016e-01,9.90113e-01,9.99948e-01
1.240954934e+00,9.59365e-01,9.99999e-01,9.68768e-01,9.90307e-01,9.99985e-01
1.247159708e+00,9.66280e-01,9.99999e-01,9.75559e-01,9.90497e-01,9.99990e-01
1.253395507e+00,9.69183e-01,9.99999e-01,9.78307e-01,9.90684e-01,9.99987e-01
1.259662485e+00,9.70627e-01,9.99999e-01,9.79591e-01,9.90867e-01,9.99980e-01
1.265960797e+00,9.58724e-01,9.99999e-01,9.67415e-01,9.91047e-01,9.99967e-01
1.272290601e+00,9.44052e-01,9.99999e-01,9.52465e-01,9.91223e-01,9.99942e-01
1.278652054e+00,8.94655e-01,9.99999e-01,9.02510e-01,9.91396e-01,9.99899e-01
1.285045314e+00,8.44481e-01,9.99999e-01,8.51824e-01,9.91565e-01,9.99811e-01
1.291470541e+00,7.18309e-01,9.99999e-01,7.24537e-01,9.91731e-01,9.99670e-01
1.297927893e+00,6.53092e-01,9.99999e-01,6.58834e-01,9.91893e-01,9.99384e-01
1.304417533e+00,5.80060e-01,9.99999e-01,5.85468e-01,9.92053e-01,9.98696e-01
1.310939621e+00,5.38450e-01,9.99999e-01,5.44132e-01,9.92209e-01,9.97326e-01
1.317494319e+00,5.08856e-01,9.99999e-01,5.15317e-01,9.92362e-01,9.95060e-01
1.324081790e+00,3.75670e-01,9.99999e-01,3.81575e-01,9.92513e-01,9.91948e-01
1.330702199e+00,7.79649e-02,9.99999e-01,7.96437e-02,9.92660e-01,9.86157e-01
1.337355710e+00,2.59570e-04,9.99999e-01,2.68565e-04,9.92804e-01,9.73512e-01
1.344042489e+00,2.00123e-06,9.99999e-01,2.18518e-06,9.92946e-01,9.22326e-01
1.350762701e+00,3.37960e-19,9.99999e-01,4.48854e-19,9.93085e-01,7.58182e-01
1.357516515e+00,8.34418e-29,9.99999e-01,1.89311e-28,9.93221e-01,4.43774e-01
1.364304097e+00,4.70816e-18,9.99999e-01,1.96844e-17,9.93354e-01,2.40782e-01
1.371125618e+00,2.79727e-11,9.99999e-01,1.07790e-10,9.93485e-01,2.61213e-01
1.377981246e+00,1.05663e-10,9.99999e-01,3.36088e-10,9.93614e-01,3.16411e-01
1.384871152e+00,5.20893e-15,9.99999e-01,1.54945e-14,9.93739e-01,3.38297e-01
1.391795508e+00,4.03435e-18,9.99999e-01,1.13244e-17,9.93863e-01,3.58454e-01
1.398754485e+00,4.86955e-14,9.99999e-01,1.13967e-13,9.93983e-01,4.29862e-01
1.405748258e+00,7.94100e-14,9.99999e-01,1.30857e-13,9.94102e-01,6.10444e-01
1.412776999e+00,1.97623e-13,9.99999e-01,2.49014e-13,9.94218e-01,7.98237e-01
1.419840884e+00,3.53101e-13,9.99998e-01,3.91994e-13,9.94332e-01,9.05915e-01
1.426940089e+00,5.07038e-09,9.99998e-01,5.49619e-09,9.94443e-01,9.27681e-01
1.434074789e+00,6.75864e-08,9.99998e-01,7.42509e-08,9.94553e-01,9.15228e-01
1.441245163e+00,1.32151e-06,9.99999e-01,1.46240e-06,9.94660e-01,9.08511e-01
1.448451389e+00,1.08274e-04,9.99998e-01,1.18383e-04,9.94765e-01,9.19421e-01
1.455693646e+00,1.96133e-03,9.99999e-01,2.10463e-03,9.94869e-01,9.36721e-01
1.462972114e+00,2.98501e-03,9.99999e-01,3.19309e-03,9.94970e-01,9.39559e-01
1.470286975e+00,1.28702e-03,9.99999e-01,1.37513e-03,9.95069e-01,9.40557e-01
