#,Wave/freq,Total,N2,H2O,Rayleigh,CIA
4.000000000e-01,8.39045e-01,9.99999e-01,9.99979e-01,8.39062e-01,9.99999e-01
4.020000000e-01,8.41967e-01,9.99999e-01,9.99987e-01,8.41978e-01,9.99999e-01
4.040100000e-01,8.44839e-01,9.99999e-01,9.99994e-01,8.44843e-01,9.99999e-01
4.060300500e-01,8.47660e-01,9.99999e-01,9.99998e-01,8.47661e-01,9.99999e-01
4.080602003e-01,8.50433e-01,9.99999e-01,9.99999e-01,8.50433e-01,9.99999e-01
4.101005013e-01,8.53159e-01,9.99999e-01,9.99999e-01,8.53159e-01,9.99999e-01
4.121510038e-01,8.55839e-01,9.99999e-01,9.99998e-01,8.55839e-01,9.99999e-01
4.142117588e-01,8.58471e-01,9.99999e-01,9.99994e-01,8.58475e-01,9.99999e-01
4.162828176e-01,8.61046e-01,9.99999e-01,9.99974e-01,8.61067e-01,9.99999e-01
4.183642317e-01,8.63602e-01,9.99999e-01,9.99984e-01,8.63615e-01,9.99999e-01
4.204560528e-01,8.66112e-01,9.99999e-01,9.99990e-01,8.66119e-01,9.99999e-01
4.225583331e-01,8.68579e-01,9.99999e-01,9.99996e-01,8.68582e-01,9.99999e-01
4.246711247e-01,8.71000e-01,9.99999e-01,9.99996e-01,8.71002e-01,9.99999e-01
4.267944804e-01,8.73378e-01,9.99999e-01,9.99995e-01,8.73382e-01,9.99999e-01
4.289284528e-01,8.75718e-01,9.99999e-01,9.99996e-01,8.75720e-01,9.99999e-01
4.310730950e-01,8.78018e-01,9.99999e-01,9.99998e-01,8.78019e-01,9.99999e-01
4.332284605e-01,8.80278e-01,9.99999e-01,9.99999e-01,8.80278e-01,9.99999e-01
4.353946028e-01,8.82498e-01,9.99999e-01,9.99999e-01,8.82498e-01,9.99999e-01
4.375715758e-01,8.84677e-01,9.99999e-01,9.99997e-01,8.84680e-01,9.99999e-01
4.397594337e-01,8.86804e-01,9.99999e-01,9.99978e-01,8.86823e-01,9.99999e-01
4.419582309e-01,8.88833e-01,9.99999e-01,9.99891e-01,8.88930e-01,9.99999e-01
4.441680220e-01,8.90923e-01,9.99999e-01,9.99913e-01,8.90999e-01,9.99999e-01
4.463888621e-01,8.92954e-01,9.99999e-01,9.99910e-01,8.93033e-01,9.99999e-01
4.486208064e-01,8.94981e-01,9.99999e-01,9.99944e-01,8.95031e-01,9.99999e-01
4.508639105e-01,8.96970e-01,9.99999e-01,9.99973e-01,8.96993e-01,9.99999e-01
4.531182300e-01,8.98912e-01,9.99999e-01,9.99989e-01,8.98922e-01,9.99999e-01
4.553838212e-01,9.00809e-01,9.99999e-01,9.99992e-01,9.00816e-01,9.99999e-01
4.576607403e-01,9.02673e-01,9.99999e-01,9.99996e-01,9.02676e-01,9.99999e-01
4.599490440e-01,9.04502e-01,9.99999e-01,9.99997e-01,9.04504e-01,9.99999e-01
4.622487892e-01,9.06298e-01,9.99999e-01,9.99999e-01,9.06299e-01,9.99999e-01
4.645600332e-01,9.08060e-01,9.99999e-01,9.99997e-01,9.08061e-01,9.99999e-01
4.668828333e-01,9.09769e-01,9.99999e-01,9.99973e-01,9.09793e-01,9.99999e-01
4.692172475e-01,9.11443e-01,9.99999e-01,9.99943e-01,9.11493e-01,9.99999e-01
4.715633337e-01,9.13130e-01,9.99999e-01,9.99963e-01,9.13163e-01,9.99999e-01
4.739211504e-01,9.14771e-01,9.99999e-01,9.99964e-01,9.14803e-01,9.99999e-01
4.762907561e-01,9.16397e-01,9.99999e-01,9.99981e-01,9.16414e-01,9.99999e-01
4.786722099e-01,9.17988e-01,9.99999e-01,9.99992e-01,9.17995e-01,9.99999e-01
4.810655710e-01,9.19546e-01,9.99999e-01,9.99997e-01,9.19548e-01,9.99999e-01
4.834708988e-01,9.21053e-01,9.99999e-01,9.99978e-01,9.21073e-01,9.99999e-01
4.858882533e-01,9.22533e-01,9.99999e-01,9.99960e-01,9.22570e-01,9.99999e-01
4.883176946e-01,9.24009e-01,9.99999e-01,9.99966e-01,9.24039e-01,9.99999e-01
4.907592831e-01,9.25455e-01,9.99999e-01,9.99969e-01,9.25482e-01,9.99999e-01
4.932130795e-01,9.26880e-01,9.99999e-01,9.99978e-01,9.26899e-01,9.99999e-01
4.956791449e-01,9.28280e-01,9.99999e-01,9.99988e-01,9.28290e-01,9.99999e-01
4.981575406e-01,9.29603e-01,9.99999e-01,9.99943e-01,9.29655e-01,9.99999e-01
5.006483283e-01,9.30861e-01,9.99999e-01,9.99855e-01,9.30996e-01,9.99998e-01
5.031515699e-01,9.31619e-01,9.99999e-01,9.99264e-01,9.32312e-01,9.99991e-01
5.056673278e-01,9.33232e-01,9.99999e-01,9.99610e-01,9.33603e-01,9.99990e-01
5.081956644e-01,9.34407e-01,9.99999e-01,9.99509e-01,9.34871e-01,9.99993e-01
5.107366428e-01,9.35804e-01,9.99999e-01,9.99668e-01,9.36115e-01,9.99998e-01
5.132903260e-01,9.37159e-01,9.99999e-01,9.99809e-01,9.37337e-01,9.99999e-01
5.158567776e-01,9.38461e-01,9.99999e-01,9.99919e-01,9.38536e-01,9.99999e-01
5.184360615e-01,9.39682e-01,9.99999e-01,9.99967e-01,9.39712e-01,9.99999e-01
5.210282418e-01,9.40856e-01,9.99999e-01,9.99987e-01,9.40867e-01,9.99999e-01
5.236333830e-01,9.41955e-01,9.99999e-01,9.99951e-01,9.42001e-01,9.99999e-01
5.262515499e-01,9.43084e-01,9.99999e-01,9.99969e-01,9.43113e-01,9.99999e-01
5.288828077e-01,9.44179e-01,9.99999e-01,9.99972e-01,9.44205e-01,9.99999e-01
5.315272217e-01,9.45253e-01,9.99999e-01,9.99975e-01,9.45276e-01,9.99999e-01
5.341848578e-01,9.46313e-01,9.99999e-01,9.99983e-01,9.46328e-01,9.99999e-01
5.368557821e-01,9.47306e-01,9.99999e-01,9.99943e-01,9.47359e-01,9.99999e-01
5.395400610e-01,9.48180e-01,9.99999e-01,9.99799e-01,9.48372e-01,9.99997e-01
5.422377613e-01,9.49113e-01,9.99999e-01,9.99738e-01,9.49365e-01,9.99994e-01
5.449489501e-01,9.50106e-01,9.99999e-01,9.99757e-01,9.50340e-01,9.99994e-01
5.476736949e-01,9.51090e-01,9.99999e-01,9.99784e-01,9.51297e-01,9.99997e-01
5.504120634e-01,9.52086e-01,9.99999e-01,9.99843e-01,9.52235e-01,9.99998e-01
5.531641237e-01,9.53081e-01,9.99999e-01,9.99920e-01,9.53156e-01,9.99999e-01
5.559299443e-01,9.54024e-01,9.99999e-01,9.99961e-01,9.54060e-01,9.99999e-01
5.587095940e-01,9.54924e-01,9.99999e-01,9.99975e-01,9.54947e-01,9.99999e-01
5.615031420e-01,9.55791e-01,9.99999e-01,9.99973e-01,9.55817e-01,9.99999e-01
5.643106577e-01,9.56641e-01,9.99999e-01,9.99969e-01,9.56670e-01,9.99999e-01
5.671322110e-01,9.57160e-01,9.99999e-01,9.99639e-01,9.57507e-01,9.99996e-01
5.699678720e-01,9.57947e-01,9.99999e-01,9.99610e-01,9.58329e-01,9.99989e-01
5.728177114e-01,9.58741e-01,9.99999e-01,9.99597e-01,9.59135e-01,9.99991e-01
5.756818000e-01,9.59566e-01,9.99999e-01,9.99629e-01,9.59926e-01,9.99994e-01
5.785602090e-01,9.60390e-01,9.99999e-01,9.99676e-01,9.60702e-01,9.99997e-01
5.814530100e-01,9.61151e-01,9.99999e-01,9.99675e-01,9.61463e-01,9.99998e-01
5.843602750e-01,9.61838e-01,9.99999e-01,9.99615e-01,9.62209e-01,9.99997e-01
5.872820764e-01,9.59730e-01,9.99999e-01,9.96687e-01,9.62942e-01,9.99976e-01
5.902184868e-01,9.59712e-01,9.99999e-01,9.95965e-01,9.63660e-01,9.99935e-01
5.931695792e-01,9.61561e-01,9.99999e-01,9.97153e-01,9.64365e-01,9.99937e-01
5.961354271e-01,9.62006e-01,9.99999e-01,9.96876e-01,9.65057e-01,9.99962e-01
5.991161043e-01,9.63523e-01,9.99999e-01,9.97719e-01,9.65735e-01,9.99988e-01
6.021116848e-01,9.65147e-01,9.99999e-01,9.98704e-01,9.66400e-01,9.99998e-01
6.051222432e-01,9.66419e-01,9.99999e-01,9.99344e-01,9.67053e-01,9.99999e-01
6.081478544e-01,9.67419e-01,9.99999e-01,9.99717e-01,9.67693e-01,9.99999e-01
6.111885937e-01,9.68205e-01,9.99999e-01,9.99879e-01,9.68321e-01,9.99999e-01
6.142445367e-01,9.68885e-01,9.99999e-01,9.99946e-01,9.68937e-01,9.99999e-01
6.173157594e-01,9.69512e-01,9.99999e-01,9.99970e-01,9.69541e-01,9.99999e-01
6.204023382e-01,9.70109e-01,9.99999e-01,9.99974e-01,9.70133e-01,9.99999e-01
6.235043498e-01,9.70609e-01,9.99999e-01,9.99891e-01,9.70714e-01,9.99999e-01
6.266218716e-01,9.70718e-01,9.99999e-01,9.99419e-01,9.71285e-01,9.99995e-01
6.297549810e-01,9.71629e-01,9.99999e-01,9.99787e-01,9.71844e-01,9.99991e-01
6.329037559e-01,9.71976e-01,9.99999e-01,9.99578e-01,9.72392e-01,9.99992e-01
6.360682746e-01,9.72578e-01,9.99999e-01,9.99642e-01,9.72930e-01,9.99995e-01
6.392486160e-01,9.73004e-01,9.99999e-01,9.99535e-01,9.73457e-01,9.99997e-01
6.424448591e-01,9.73371e-01,9.99999e-01,9.99381e-01,9.73975e-01,9.99996e-01
6.456570834e-01,9.71672e-01,9.99999e-01,9.97131e-01,9.74482e-01,9.99983e-01
6.488853688e-01,9.72875e-01,9.99999e-01,9.97885e-01,9.74980e-01,9.99954e-01
6.521297956e-01,9.73329e-01,9.99999e-01,9.97844e-01,9.75468e-01,9.99962e-01
6.553904446e-01,9.73841e-01,9.99999e-01,9.97870e-01,9.75947e-01,9.99971e-01
6.586673968e-01,9.74613e-01,9.99999e-01,9.98162e-01,9.76416e-01,9.99990e-01
6.619607338e-01,9.75837e-01,9.99999e-01,9.98937e-01,9.76876e-01,9.99997e-01
6.652705375e-01,9.76725e-01,9.99999e-01,9.99383e-01,9.77328e-01,9.99998e-01
6.685968902e-01,9.77491e-01,9.99999e-01,9.99713e-01,9.77771e-01,9.99999e-01
6.719398746e-01,9.78075e-01,9.99999e-01,9.99866e-01,9.78205e-01,9.99999e-01
6.752995740e-01,9.78561e-01,9.99999e-01,9.99927e-01,9.78631e-01,9.99999e-01
6.786760719e-01,9.78948e-01,9.99999e-01,9.99896e-01,9.79049e-01,9.99999e-01
6.820694522e-01,9.79284e-01,9.99999e-01,9.99822e-01,9.79458e-01,9.99998e-01
6.854797995e-01,9.79635e-01,9.99999e-01,9.99771e-01,9.79860e-01,9.99997e-01
6.889071985e-01,9.79713e-01,9.99999e-01,9.99453e-01,9.80254e-01,9.99994e-01
6.923517345e-01,9.71808e-01,9.99999e-01,9.91035e-01,9.80640e-01,9.99956e-01
6.958134932e-01,9.76286e-01,9.99999e-01,9.95272e-01,9.81018e-01,9.99902e-01
6.992925606e-01,9.76952e-01,9.99999e-01,9.95562e-01,9.81390e-01,9.99913e-01
7.027890234e-01,9.76288e-01,9.99999e-01,9.94497e-01,9.81754e-01,9.99933e-01
7.063029686e-01,9.77538e-01,9.99999e-01,9.95375e-01,9.82111e-01,9.99966e-01
7.098344834e-01,9.78083e-01,9.99999e-01,9.95562e-01,9.82461e-01,9.99980e-01
7.133836558e-01,9.77001e-01,9.99999e-01,9.94132e-01,9.82805e-01,9.99961e-01
7.169505741e-01,9.37125e-01,9.99999e-01,9.53482e-01,9.83142e-01,9.99696e-01
7.205353270e-01,9.60069e-01,9.99999e-01,9.76725e-01,9.83472e-01,9.99465e-01
7.241380036e-01,9.54631e-01,9.99999e-01,9.70802e-01,9.83796e-01,9.99538e-01
7.277586936e-01,9.57772e-01,9.99999e-01,9.73600e-01,9.84113e-01,9.99622e-01
7.313974871e-01,9.56547e-01,9.99999e-01,9.71852e-01,9.84424e-01,9.99822e-01
7.350544745e-01,9.69459e-01,9.99999e-01,9.84552e-01,9.84730e-01,9.99938e-01
7.387297469e-01,9.73782e-01,9.99999e-01,9.88609e-01,9.85029e-01,9.99971e-01
7.424233956e-01,9.79806e-01,9.99999e-01,9.94405e-01,9.85323e-01,9.99994e-01
7.461355126e-01,9.82269e-01,9.99999e-01,9.96610e-01,9.85610e-01,9.99998e-01
7.498661902e-01,9.84333e-01,9.99999e-01,9.98418e-01,9.85893e-01,9.99999e-01
7.536155211e-01,9.85406e-01,9.99999e-01,9.99225e-01,9.86169e-01,9.99999e-01
7.573835987e-01,9.86047e-01,9.99999e-01,9.99600e-01,9.86441e-01,9.99999e-01
7.611705167e-01,9.86462e-01,9.99999e-01,9.99751e-01,9.86707e-01,9.99999e-01
7.649763693e-01,9.86814e-01,9.99999e-01,9.99844e-01,9.86967e-01,9.99999e-01
7.688012511e-01,9.87117e-01,9.99999e-01,9.99891e-01,9.87223e-01,9.99999e-01
7.726452574e-01,9.87386e-01,9.99999e-01,9.99910e-01,9.87474e-01,9.99999e-01
7.765084837e-01,9.87596e-01,9.99999e-01,9.99874e-01,9.87720e-01,9.99999e-01
7.803910261e-01,9.87425e-01,9.99999e-01,9.99457e-01,9.87961e-01,9.99998e-01
7.842929812e-01,9.86324e-01,9.99999e-01,9.98107e-01,9.88197e-01,9.99996e-01
7.882144461e-01,9.84535e-01,9.99999e-01,9.96083e-01,9.88429e-01,9.99975e-01
7.921555184e-01,9.86480e-01,9.99999e-01,9.97844e-01,9.88656e-01,9.99953e-01
7.961162960e-01,9.85095e-01,9.99999e-01,9.96217e-01,9.88879e-01,9.99955e-01
8.000968774e-01,9.84717e-01,9.99999e-01,9.95617e-01,9.89098e-01,9.99952e-01
8.040973618e-01,9.84942e-01,9.99999e-01,9.95619e-01,9.89312e-01,9.99961e-01
8.081178486e-01,9.79775e-01,9.99999e-01,9.90184e-01,9.89522e-01,9.99964e-01
8.121584379e-01,9.49616e-01,9.99999e-01,9.59604e-01,9.89728e-01,9.99861e-01
8.162192301e-01,9.41847e-01,9.99999e-01,9.51923e-01,9.89929e-01,9.99479e-01
8.203003262e-01,9.65759e-01,9.99999e-01,9.75981e-01,9.90127e-01,9.99390e-01
8.244018279e-01,9.56244e-01,9.99999e-01,9.66056e-01,9.90321e-01,9.99514e-01
8.285238370e-01,9.61580e-01,9.99999e-01,9.71160e-01,9.90512e-01,9.99618e-01
8.326664562e-01,9.61593e-01,9.99999e-01,9.70773e-01,9.90698e-01,9.99842e-01
8.368297885e-01,9.70069e-01,9.99999e-01,9.79031e-01,9.90881e-01,9.99963e-01
8.410139374e-01,9.78643e-01,9.99999e-01,9.87491e-01,9.91060e-01,9.99978e-01
8.452190071e-01,9.85124e-01,9.99999e-01,9.93845e-01,9.91236e-01,9.99986e-01
8.494451021e-01,9.87864e-01,9.99999e-01,9.96434e-01,9.91408e-01,9.99989e-01
8.536923276e-01,9.89475e-01,9.99999e-01,9.97885e-01,9.91577e-01,9.99992e-01
8.579607893e-01,9.90453e-01,9.99999e-01,9.98700e-01,9.91743e-01,9.99997e-01
8.622505932e-01,9.91085e-01,9.99999e-01,9.99172e-01,9.91905e-01,9.99999e-01
8.665618462e-01,9.91558e-01,9.99999e-01,9.99489e-01,9.92065e-01,9.99999e-01
8.708946554e-01,9.91642e-01,9.99999e-01,9.99416e-01,9.92221e-01,9.99999e-01
8.752491287e-01,9.91598e-01,9.99999e-01,9.99218e-01,9.92374e-01,9.99998e-01
8.796253743e-01,9.91450e-01,9.99999e-01,9.98920e-01,9.92524e-01,9.99997e-01
8.840235012e-01,9.91439e-01,9.99999e-01,9.98765e-01,9.92671e-01,9.99991e-01
8.884436187e-01,9.88373e-01,9.99999e-01,9.95546e-01,9.92815e-01,9.99978e-01
8.928858368e-01,9.46817e-01,9.99999e-01,9.53650e-01,9.92957e-01,9.99876e-01
8.973502660e-01,9.12051e-01,9.99999e-01,9.18972e-01,9.93095e-01,9.99367e-01
9.018370173e-01,9.50174e-01,9.99999e-01,9.57601e-01,9.93231e-01,9.99005e-01
9.063462024e-01,9.55731e-01,9.99999e-01,9.62955e-01,9.93364e-01,9.99125e-01
9.108779334e-01,9.35663e-01,9.99999e-01,9.42644e-01,9.93495e-01,9.99091e-01
9.154323231e-01,9.28380e-01,9.99999e-01,9.35039e-01,9.93623e-01,9.99249e-01
9.200094847e-01,9.42346e-01,9.99999e-01,9.48671e-01,9.93749e-01,9.99579e-01
9.246095321e-01,9.15623e-01,9.99999e-01,9.21714e-01,9.93872e-01,9.99515e-01
9.292325798e-01,5.73398e-01,9.99999e-01,5.77953e-01,9.93992e-01,9.98113e-01
9.338787427e-01,4.84472e-01,9.99999e-01,4.91160e-01,9.94111e-01,9.92226e-01
9.385481364e-01,7.39237e-01,9.99999e-01,7.50462e-01,9.94227e-01,9.90761e-01
9.432408771e-01,6.63484e-01,9.99999e-01,6.72624e-01,9.94340e-01,9.92024e-01
9.479570815e-01,5.72376e-01,9.99999e-01,5.79332e-01,9.94452e-01,9.93503e-01
9.526968669e-01,6.56104e-01,9.99999e-01,6.62318e-01,9.94561e-01,9.96032e-01
9.574603512e-01,6.79363e-01,9.99999e-01,6.84384e-01,9.94668e-01,9.97982e-01
9.622476530e-01,7.29109e-01,9.99999e-01,7.33963e-01,9.94773e-01,9.98604e-01
9.670588912e-01,8.31761e-01,9.99999e-01,8.36843e-01,9.94876e-01,9.99045e-01
9.718941857e-01,8.89573e-01,9.99999e-01,8.94691e-01,9.94977e-01,9.99296e-01
9.767536566e-01,9.06813e-01,9.99999e-01,9.11789e-01,9.95076e-01,9.99462e-01
9.816374249e-01,9.29089e-01,9.99999e-01,9.33768e-01,9.95173e-01,9.99813e-01
9.865456120e-01,9.53521e-01,9.99999e-01,9.58090e-01,9.95268e-01,9.99960e-01
9.914783401e-01,9.69373e-01,9.99999e-01,9.73900e-01,9.95361e-01,9.99988e-01
9.964357318e-01,9.81214e-01,9.99999e-01,9.85701e-01,9.95453e-01,9.99993e-01
1.001417910e+00,9.86978e-01,9.99999e-01,9.91406e-01,9.95542e-01,9.99989e-01
1.006425000e+00,9.90738e-01,9.99999e-01,9.95099e-01,9.95630e-01,9.99985e-01
1.011457125e+00,9.92668e-01,9.99999e-01,9.96951e-01,9.95716e-01,9.99986e-01
1.016514411e+00,9.93732e-01,9.99999e-01,9.97931e-01,9.95801e-01,9.99990e-01
1.021596983e+00,9.94234e-01,9.99999e-01,9.98351e-01,9.95884e-01,9.99990e-01
1.026704968e+00,9.94679e-01,9.99999e-01,9.98714e-01,9.95965e-01,9.99993e-01
1.031838492e+00,9.95111e-01,9.99999e-01,9.99064e-01,9.96044e-01,9.99997e-01
1.036997685e+00,9.95570e-01,9.99999e-01,9.99444e-01,9.96122e-01,9.99999e-01
1.042182673e+00,9.95541e-01,9.99999e-01,9.99339e-01,9.96199e-01,9.99999e-01
1.047393587e+00,9.95401e-01,9.99999e-01,9.99123e-01,9.96274e-01,9.99999e-01
1.052630555e+00,9.95150e-01,9.99999e-01,9.98798e-01,9.96347e-01,9.99999e-01
1.057893707e+00,9.94423e-01,9.99999e-01,9.97996e-01,9.96419e-01,9.99998e-01
1.063183176e+00,9.93202e-01,9.99999e-01,9.96702e-01,9.96490e-01,9.99997e-01
1.068499092e+00,9.91053e-01,9.99999e-01,9.94478e-01,9.96559e-01,9.99995e-01
1.073841587e+00,9.90187e-01,9.99999e-01,9.93546e-01,9.96627e-01,9.99991e-01
1.079210795e+00,9.88420e-01,9.99999e-01,9.91720e-01,9.96693e-01,9.99977e-01
1.084606849e+00,9.84250e-01,9.99999e-01,9.87502e-01,9.96758e-01,9.99946e-01
1.090029883e+00,9.78922e-01,9.99999e-01,9.82150e-01,9.96822e-01,9.99889e-01
1.095480033e+00,9.48892e-01,9.99999e-01,9.52046e-01,9.96885e-01,9.99800e-01
1.100957433e+00,8.79596e-01,9.99999e-01,8.82613e-01,9.96946e-01,9.99632e-01
1.106462220e+00,7.26083e-01,9.99999e-01,7.28716e-01,9.97006e-01,9.99377e-01
1.111994531e+00,5.11394e-01,9.99999e-01,5.13747e-01,9.97066e-01,9.98348e-01
1.117554504e+00,3.38092e-01,9.99999e-01,3.41096e-01,9.97123e-01,9.94050e-01
1.123142276e+00,4.47380e-01,9.99999e-01,4.55038e-01,9.97180e-01,9.85949e-01
1.128757988e+00,5.91387e-01,9.99999e-01,6.02812e-01,9.97236e-01,9.83764e-01
1.134401778e+00,3.35391e-01,9.99999e-01,3.41015e-01,9.97290e-01,9.86177e-01
1.140073787e+00,7.28525e-01,9.99999e-01,7.38633e-01,9.97344e-01,9.88940e-01
1.145774156e+00,5.25684e-01,9.99999e-01,5.32448e-01,9.97396e-01,9.89872e-01
1.151503026e+00,4.92313e-01,9.99999e-01,4.96379e-01,9.97447e-01,9.94344e-01
1.157260541e+00,5.53027e-01,9.99999e-01,5.55355e-01,9.97498e-01,9.98305e-01
1.163046844e+00,6.44921e-01,9.99999e-01,6.46817e-01,9.97547e-01,9.99519e-01
1.168862078e+00,7.36469e-01,9.99999e-01,7.38427e-01,9.97595e-01,9.99752e-01
1.174706389e+00,8.27127e-01,9.99999e-01,8.29352e-01,9.97643e-01,9.99671e-01
1.180579921e+00,8.89756e-01,9.99999e-01,8.92259e-01,9.97689e-01,9.99503e-01
1.186482820e+00,9.35047e-01,9.99999e-01,9.37646e-01,9.97735e-01,9.99490e-01
1.192415234e+00,9.60647e-01,9.99999e-01,9.63151e-01,9.97780e-01,9.99618e-01
1.198377311e+00,9.66429e-01,9.99999e-01,9.68886e-01,9.97823e-01,9.99639e-01
1.204369197e+00,9.68131e-01,9.99999e-01,9.70516e-01,9.97866e-01,9.99673e-01
1.210391043e+00,9.69560e-01,9.99999e-01,9.71784e-01,9.97908e-01,9.99801e-01
1.216442998e+00,9.73799e-01,9.99999e-01,9.75917e-01,9.97950e-01,9.99878e-01
1.222525213e+00,9.79168e-01,9.99999e-01,9.81213e-01,9.97990e-01,9.99924e-01
1.228637839e+00,9.84946e-01,9.99999e-01,9.86924e-01,9.98030e-01,9.99964e-01
1.234781029e+00,9.88347e-01,9.99999e-01,9.90268e-01,9.98069e-01,9.99989e-01
1.240954934e+00,9.91957e-01,9.99999e-01,9.93840e-01,9.98107e-01,9.99996e-01
1.247159708e+00,9.93350e-01,9.99999e-01,9.95198e-01,9.98144e-01,9.99997e-01
1.253395507e+00,9.93927e-01,9.99999e-01,9.95740e-01,9.98181e-01,9.99997e-01
1.259662485e+00,9.94180e-01,9.99999e-01,9.95959e-01,9.98216e-01,9.99995e-01
1.265960797e+00,9.91797e-01,9.99999e-01,9.93539e-01,9.98252e-01,9.99993e-01
1.272290601e+00,9.88813e-01,9.99999e-01,9.90520e-01,9.98286e-01,9.99988e-01
1.278652054e+00,9.78386e-01,9.99999e-01,9.80051e-01,9.98320e-01,9.99979e-01
1.285045314e+00,9.67153e-01,9.99999e-01,9.68783e-01,9.98353e-01,9.99962e-01
1.291470541e+00,9.36601e-01,9.99999e-01,9.38174e-01,9.98386e-01,9.99935e-01
1.297927893e+00,9.18462e-01,9.99999e-01,9.20027e-01,9.98417e-01,9.99879e-01
1.304417533e+00,8.96500e-01,9.99999e-01,8.98120e-01,9.98449e-01,9.99745e-01
1.310939621e+00,8.82698e-01,9.99999e-01,8.84502e-01,9.98479e-01,9.99478e-01
1.317494319e+00,8.72778e-01,9.99999e-01,8.74923e-01,9.98509e-01,9.99036e-01
1.324081790e+00,8.16644e-01,9.99999e-01,8.19125e-01,9.98539e-01,9.98427e-01
1.330702199e+00,4.59900e-01,9.99999e-01,4.61810e-01,9.98567e-01,9.97291e-01
1.337355710e+00,1.33732e-01,9.99999e-01,1.34621e-01,9.98596e-01,9.94790e-01
1.344042489e+00,8.25605e-03,9.99999e-01,8.39852e-03,9.98623e-01,9.84390e-01
1.350762701e+00,4.04926e-05,9.99999e-01,4.27912e-05,9.98651e-01,9.47561e-01
1.357516515e+00,6.13823e-07,9.99999e-01,7.19897e-07,9.98677e-01,8.53783e-01
1.364304097e+00,8.27361e-05,9.99999e-01,1.09289e-04,9.98703e-01,7.58021e-01
1.371125618e+00,1.65229e-03,9.99999e-01,2.14820e-03,9.98729e-01,7.70129e-01
1.377981246e+00,4.29010e-03,9.99999e-01,5.37335e-03,9.98754e-01,7.99398e-01
1.384871152e+00,1.22547e-04,9.99999e-01,1.51502e-04,9.98779e-01,8.09868e-01
1.391795508e+00,1.21454e-04,9.99999e-01,1.48466e-04,9.98803e-01,8.19040e-01
1.398754485e+00,5.53472e-04,9.99999e-01,6.53054e-04,9.98826e-01,8.48508e-01
1.405748258e+00,5.53158e-04,9.99999e-01,6.09615e-04,9.98849e-01,9.08432e-01
1.412776999e+00,5.82733e-04,9.99999e-01,6.09539e-04,9.98872e-01,9.57100e-01
1.419840884e+00,1.01776e-03,9.99999e-01,1.03866e-03,9.98894e-01,9.80957e-01
1.426940089e+00,4.41013e-03,9.99999e-01,4.47987e-03,9.98916e-01,9.85499e-01
1.434074789e+00,1.58963e-02,9.99999e-01,1.61898e-02,9.98938e-01,9.82911e-01
1.441245163e+00,4.00924e-02,9.99999e-01,4.08904e-02,9.98958e-01,9.81504e-01
1.448451389e+00,1.02109e-01,9.99999e-01,1.03898e-01,9.98979e-01,9.83786e-01
1.455693646e+00,2.17460e-01,9.99999e-01,2.20464e-01,9.98999e-01,9.87361e-01
1.462972114e+00,2.68426e-01,9.99999e-01,2.71968e-01,9.99019e-01,9.87942e-01
1.470286975e+00,2.16298e-01,9.99999e-01,2.19103e-01,9.99038e-01,9.88146e-01
