#,Wave/freq,Total,N2,H2O,Rayleigh,CIA
4.000000000e-01,9.59131e-02,9.99999e-01,9.99735e-01,9.59384e-02,9.99999e-01
4.020000000e-01,1.00473e-01,9.99999e-01,9.99836e-01,1.00490e-01,9.99999e-01
4.040100000e-01,1.05148e-01,9.99999e-01,9.99930e-01,1.05155e-01,9.99999e-01
4.060300500e-01,1.09937e-01,9.99999e-01,9.99983e-01,1.09939e-01,9.99999e-01
4.080602003e-01,1.14839e-01,9.99999e-01,9.99994e-01,1.14840e-01,9.99999e-01
4.101005013e-01,1.19855e-01,9.99999e-01,9.99999e-01,1.19855e-01,9.99999e-01
4.121510038e-01,1.24983e-01,9.99999e-01,9.99989e-01,1.24985e-01,9.99999e-01
4.142117588e-01,1.30216e-01,9.99999e-01,9.99925e-01,1.30225e-01,9.99999e-01
4.162828176e-01,1.35532e-01,9.99999e-01,9.99672e-01,1.35576e-01,9.99999e-01
4.183642317e-01,1.41007e-01,9.99999e-01,9.99805e-01,1.41034e-01,9.99999e-01
4.204560528e-01,1.46580e-01,9.99999e-01,9.99880e-01,1.46598e-01,9.99999e-01
4.225583331e-01,1.52258e-01,9.99999e-01,9.99955e-01,1.52264e-01,9.99999e-01
4.246711247e-01,1.58026e-01,9.99999e-01,9.99963e-01,1.58032e-01,9.99999e-01
4.267944804e-01,1.63888e-01,9.99999e-01,9.99947e-01,1.63897e-01,9.99999e-01
4.289284528e-01,1.69851e-01,9.99999e-01,9.99959e-01,1.69858e-01,9.99999e-01
4.310730950e-01,1.75908e-01,9.99999e-01,9.99982e-01,1.75911e-01,9.99999e-01
4.332284605e-01,1.82053e-01,9.99999e-01,9.99995e-01,1.82054e-01,9.99999e-01
4.353946028e-01,1.88283e-01,9.99999e-01,9.99997e-01,1.88284e-01,9.99999e-01
4.375715758e-01,1.94591e-01,9.99999e-01,9.99966e-01,1.94597e-01,9.99999e-01
4.397594337e-01,2.00933e-01,9.99999e-01,9.99708e-01,2.00992e-01,9.99999e-01
4.419582309e-01,2.07156e-01,9.99999e-01,9.98518e-01,2.07464e-01,9.99999e-01
4.441680220e-01,2.13768e-01,9.99999e-01,9.98868e-01,2.14010e-01,9.99999e-01
4.463888621e-01,2.20366e-01,9.99999e-01,9.98813e-01,2.20628e-01,9.99999e-01
4.486208064e-01,2.27147e-01,9.99999e-01,9.99267e-01,2.27313e-01,9.99999e-01
4.508639105e-01,2.33983e-01,9.99999e-01,9.99656e-01,2.34063e-01,9.99999e-01
4.531182300e-01,2.40841e-01,9.99999e-01,9.99864e-01,2.40874e-01,9.99999e-01
4.553838212e-01,2.47720e-01,9.99999e-01,9.99907e-01,2.47743e-01,9.99999e-01
4.576607403e-01,2.54655e-01,9.99999e-01,9.99957e-01,2.54666e-01,9.99999e-01
4.599490440e-01,2.61632e-01,9.99999e-01,9.99969e-01,2.61640e-01,9.99999e-01
4.622487892e-01,2.68661e-01,9.99999e-01,9.99994e-01,2.68662e-01,9.99999e-01
4.645600332e-01,2.75722e-01,9.99999e-01,9.99978e-01,2.75728e-01,9.99999e-01
4.668828333e-01,2.82736e-01,9.99999e-01,9.99648e-01,2.82835e-01,9.99999e-01
4.692172475e-01,2.89763e-01,9.99999e-01,9.99256e-01,2.89979e-01,9.99999e-01
4.715633337e-01,2.97012e-01,9.99999e-01,9.99512e-01,2.97157e-01,9.99999e-01
4.739211504e-01,3.04225e-01,9.99999e-01,9.99536e-01,3.04366e-01,9.99999e-01
4.762907561e-01,3.11527e-01,9.99999e-01,9.99759e-01,3.11602e-01,9.99999e-01
4.786722099e-01,3.18831e-01,9.99999e-01,9.99901e-01,3.18862e-01,9.99999e-01
4.810655710e-01,3.26133e-01,9.99999e-01,9.99970e-01,3.26143e-01,9.99999e-01
4.834708988e-01,3.33344e-01,9.99999e-01,9.99708e-01,3.33441e-01,9.99999e-01
4.858882533e-01,3.40575e-01,9.99999e-01,9.99474e-01,3.40754e-01,9.99999e-01
4.883176946e-01,3.47924e-01,9.99999e-01,9.99557e-01,3.48078e-01,9.99999e-01
4.907592831e-01,3.55268e-01,9.99999e-01,9.99602e-01,3.55410e-01,9.99999e-01
4.932130795e-01,3.62644e-01,9.99999e-01,9.99717e-01,3.62747e-01,9.99999e-01
4.956791449e-01,3.70030e-01,9.99999e-01,9.99850e-01,3.70086e-01,9.99999e-01
4.981575406e-01,3.77140e-01,9.99999e-01,9.99248e-01,3.77424e-01,9.99999e-01
5.006483283e-01,3.84000e-01,9.99999e-01,9.98042e-01,3.84758e-01,9.99986e-01
5.031515699e-01,3.88207e-01,9.99999e-01,9.90208e-01,3.92086e-01,9.99896e-01
5.056673278e-01,3.97294e-01,9.99999e-01,9.94832e-01,3.99405e-01,9.99881e-01
5.081956644e-01,4.04034e-01,9.99999e-01,9.93487e-01,4.06711e-01,9.99927e-01
5.107366428e-01,4.12178e-01,9.99999e-01,9.95603e-01,4.14003e-01,9.99987e-01
5.132903260e-01,4.20220e-01,9.99999e-01,9.97490e-01,4.21278e-01,9.99997e-01
5.158567776e-01,4.28080e-01,9.99999e-01,9.98940e-01,4.28533e-01,9.99999e-01
5.184360615e-01,4.35582e-01,9.99999e-01,9.99575e-01,4.35766e-01,9.99999e-01
5.210282418e-01,4.42905e-01,9.99999e-01,9.99840e-01,4.42975e-01,9.99999e-01
5.236333830e-01,4.49867e-01,9.99999e-01,9.99359e-01,4.50157e-01,9.99994e-01
5.262515499e-01,4.57125e-01,9.99999e-01,9.99599e-01,4.57311e-01,9.99993e-01
5.288828077e-01,4.64259e-01,9.99999e-01,9.99630e-01,4.64433e-01,9.99995e-01
5.315272217e-01,4.71370e-01,9.99999e-01,9.99678e-01,4.71522e-01,9.99998e-01
5.341848578e-01,4.78475e-01,9.99999e-01,9.99787e-01,4.78576e-01,9.99999e-01
5.368557821e-01,4.85229e-01,9.99999e-01,9.99249e-01,4.85594e-01,9.99997e-01
5.395400610e-01,4.91219e-01,9.99999e-01,9.97278e-01,4.92572e-01,9.99974e-01
5.422377613e-01,4.97748e-01,9.99999e-01,9.96535e-01,4.99510e-01,9.99935e-01
5.449489501e-01,5.04729e-01,9.99999e-01,9.96753e-01,5.06406e-01,9.99934e-01
5.476736949e-01,5.11779e-01,9.99999e-01,9.97149e-01,5.13258e-01,9.99967e-01
5.504120634e-01,5.18984e-01,9.99999e-01,9.97929e-01,5.20064e-01,9.99990e-01
5.531641237e-01,5.26275e-01,9.99999e-01,9.98958e-01,5.26824e-01,9.99998e-01
5.559299443e-01,5.33268e-01,9.99999e-01,9.99497e-01,5.33536e-01,9.99999e-01
5.587095940e-01,5.40027e-01,9.99999e-01,9.99683e-01,5.40198e-01,9.99999e-01
5.615031420e-01,5.46616e-01,9.99999e-01,9.99647e-01,5.46809e-01,9.99998e-01
5.643106577e-01,5.53142e-01,9.99999e-01,9.99594e-01,5.53368e-01,9.99996e-01
5.671322110e-01,5.57090e-01,9.99999e-01,9.95069e-01,5.59874e-01,9.99956e-01
5.699678720e-01,5.63359e-01,9.99999e-01,9.94893e-01,5.66325e-01,9.99867e-01
5.728177114e-01,5.69576e-01,9.99999e-01,9.94616e-01,5.72721e-01,9.99889e-01
5.756818000e-01,5.76170e-01,9.99999e-01,9.95070e-01,5.79061e-01,9.99935e-01
5.785602090e-01,5.82824e-01,9.99999e-01,9.95712e-01,5.85344e-01,9.99981e-01
5.814530100e-01,5.89011e-01,9.99999e-01,9.95683e-01,5.91569e-01,9.99990e-01
5.843602750e-01,5.94623e-01,9.99999e-01,9.94821e-01,5.97735e-01,9.99970e-01
5.872820764e-01,5.77442e-01,9.99999e-01,9.56576e-01,6.03842e-01,9.99688e-01
5.902184868e-01,5.77522e-01,9.99999e-01,9.47733e-01,6.09889e-01,9.99151e-01
5.931695792e-01,5.92505e-01,9.99999e-01,9.62838e-01,6.15875e-01,9.99183e-01
5.961354271e-01,5.96216e-01,9.99999e-01,9.59305e-01,6.21800e-01,9.99530e-01
5.991161043e-01,6.08833e-01,9.99999e-01,9.70139e-01,6.27663e-01,9.99854e-01
6.021116848e-01,6.22665e-01,9.99999e-01,9.82967e-01,6.33464e-01,9.99983e-01
6.051222432e-01,6.33673e-01,9.99999e-01,9.91349e-01,6.39202e-01,9.99998e-01
6.081478544e-01,6.42464e-01,9.99999e-01,9.96256e-01,6.44878e-01,9.99999e-01
6.111885937e-01,6.49463e-01,9.99999e-01,9.98419e-01,6.50490e-01,9.99999e-01
6.142445367e-01,6.55575e-01,9.99999e-01,9.99292e-01,6.56039e-01,9.99999e-01
6.173157594e-01,6.61266e-01,9.99999e-01,9.99609e-01,6.61524e-01,9.99999e-01
6.204023382e-01,6.66724e-01,9.99999e-01,9.99667e-01,6.66946e-01,9.99999e-01
6.235043498e-01,6.71302e-01,9.99999e-01,9.98514e-01,6.72303e-01,9.99995e-01
6.266218716e-01,6.72331e-01,9.99999e-01,9.92281e-01,6.77596e-01,9.99945e-01
6.297549810e-01,6.80815e-01,9.99999e-01,9.97162e-01,6.82826e-01,9.99891e-01
6.329037559e-01,6.84088e-01,9.99999e-01,9.94412e-01,6.87991e-01,9.99912e-01
6.360682746e-01,6.89743e-01,9.99999e-01,9.95219e-01,6.93092e-01,9.99948e-01
6.392486160e-01,6.93800e-01,9.99999e-01,9.93821e-01,6.98129e-01,9.99976e-01
6.424448591e-01,6.97223e-01,9.99999e-01,9.91678e-01,7.03102e-01,9.99958e-01
6.456570834e-01,6.80977e-01,9.99999e-01,9.62040e-01,7.08011e-01,9.99766e-01
6.488853688e-01,6.92773e-01,9.99999e-01,9.72405e-01,7.12856e-01,9.99404e-01
6.521297956e-01,6.97157e-01,9.99999e-01,9.71937e-01,7.17638e-01,9.99508e-01
6.553904446e-01,7.01714e-01,9.99999e-01,9.71777e-01,7.22357e-01,9.99633e-01
6.586673968e-01,7.09427e-01,9.99999e-01,9.75930e-01,7.27012e-01,9.99877e-01
6.619607338e-01,7.21708e-01,9.99999e-01,9.86497e-01,7.31605e-01,9.99973e-01
6.652705375e-01,7.30143e-01,9.99999e-01,9.91872e-01,7.36135e-01,9.99986e-01
6.685968902e-01,7.38041e-01,9.99999e-01,9.96542e-01,7.40603e-01,9.99997e-01
6.719398746e-01,7.43704e-01,9.99999e-01,9.98247e-01,7.45009e-01,9.99999e-01
6.752995740e-01,7.48659e-01,9.99999e-01,9.99073e-01,7.49353e-01,9.99999e-01
6.786760719e-01,7.52589e-01,9.99999e-01,9.98611e-01,7.53636e-01,9.99997e-01
6.820694522e-01,7.56042e-01,9.99999e-01,9.97614e-01,7.57859e-01,9.99987e-01
6.854797995e-01,7.59677e-01,9.99999e-01,9.96950e-01,7.62020e-01,9.99973e-01
6.889071985e-01,7.60364e-01,9.99999e-01,9.92549e-01,7.66122e-01,9.99933e-01
6.923517345e-01,6.82731e-01,9.99999e-01,8.86984e-01,7.70164e-01,9.99424e-01
6.958134932e-01,7.27468e-01,9.99999e-01,9.40900e-01,7.74147e-01,9.98724e-01
6.992925606e-01,7.32224e-01,9.99999e-01,9.42156e-01,7.78072e-01,9.98850e-01
7.027890234e-01,7.26246e-01,9.99999e-01,9.29591e-01,7.81938e-01,9.99122e-01
7.063029686e-01,7.38461e-01,9.99999e-01,9.40230e-01,7.85746e-01,9.99563e-01
7.098344834e-01,7.43929e-01,9.99999e-01,9.42524e-01,7.89498e-01,9.99741e-01
7.133836558e-01,7.32545e-01,9.99999e-01,9.24014e-01,7.93192e-01,9.99486e-01
7.169505741e-01,4.39351e-01,9.99999e-01,5.53605e-01,7.96830e-01,9.95967e-01
7.205353270e-01,5.93250e-01,9.99999e-01,7.46482e-01,8.00413e-01,9.92896e-01
7.241380036e-01,5.46529e-01,9.99999e-01,6.84009e-01,8.03941e-01,9.93863e-01
7.277586936e-01,5.70876e-01,9.99999e-01,7.10608e-01,8.07413e-01,9.94980e-01
7.313974871e-01,5.60431e-01,9.99999e-01,6.92809e-01,8.10832e-01,9.97645e-01
7.350544745e-01,6.64074e-01,9.99999e-01,8.16285e-01,8.14198e-01,9.99181e-01
7.387297469e-01,7.02956e-01,9.99999e-01,8.60196e-01,8.17510e-01,9.99624e-01
7.424233956e-01,7.62283e-01,9.99999e-01,9.28800e-01,8.20770e-01,9.99934e-01
7.461355126e-01,7.87801e-01,9.99999e-01,9.56104e-01,8.23979e-01,9.99988e-01
7.498661902e-01,8.10064e-01,9.99999e-01,9.79364e-01,8.27136e-01,9.99994e-01
7.536155211e-01,8.21764e-01,9.99999e-01,9.89790e-01,8.30242e-01,9.99996e-01
7.573835987e-01,8.28911e-01,9.99999e-01,9.94734e-01,8.33299e-01,9.99998e-01
7.611705167e-01,8.33567e-01,9.99999e-01,9.96724e-01,8.36306e-01,9.99999e-01
7.649763693e-01,8.37539e-01,9.99999e-01,9.97943e-01,8.39264e-01,9.99999e-01
7.688012511e-01,8.40966e-01,9.99999e-01,9.98565e-01,8.42174e-01,9.99999e-01
7.726452574e-01,8.44038e-01,9.99999e-01,9.98818e-01,8.45036e-01,9.99998e-01
7.765084837e-01,8.46416e-01,9.99999e-01,9.98309e-01,8.47851e-01,9.99997e-01
7.803910261e-01,8.44404e-01,9.99999e-01,9.92699e-01,8.50620e-01,9.99992e-01
7.842929812e-01,8.31779e-01,9.99999e-01,9.74775e-01,8.53343e-01,9.99952e-01
7.882144461e-01,8.12152e-01,9.99999e-01,9.49092e-01,8.56020e-01,9.99641e-01
7.921555184e-01,8.34031e-01,9.99999e-01,9.71929e-01,8.58653e-01,9.99377e-01
7.961162960e-01,8.18079e-01,9.99999e-01,9.50445e-01,8.61241e-01,9.99407e-01
8.000968774e-01,8.14097e-01,9.99999e-01,9.43068e-01,8.63786e-01,9.99369e-01
8.040973618e-01,8.16565e-01,9.99999e-01,9.43054e-01,8.66288e-01,9.99519e-01
8.081178486e-01,7.61513e-01,9.99999e-01,8.76990e-01,8.68748e-01,9.99513e-01
8.121584379e-01,5.12697e-01,9.99999e-01,5.89605e-01,8.71165e-01,9.98157e-01
8.162192301e-01,4.69352e-01,9.99999e-01,5.41037e-01,8.73542e-01,9.93088e-01
8.203003262e-01,6.48407e-01,9.99999e-01,7.46330e-01,8.75878e-01,9.91911e-01
8.244018279e-01,5.94358e-01,9.99999e-01,6.81200e-01,8.78174e-01,9.93557e-01
8.285238370e-01,5.99920e-01,9.99999e-01,6.84861e-01,8.80430e-01,9.94936e-01
8.326664562e-01,6.03410e-01,9.99999e-01,6.85072e-01,8.82647e-01,9.97902e-01
8.368297885e-01,6.71003e-01,9.99999e-01,7.58706e-01,8.84826e-01,9.99520e-01
8.410139374e-01,7.51749e-01,9.99999e-01,8.47786e-01,8.86968e-01,9.99719e-01
8.452190071e-01,8.19498e-01,9.99999e-01,9.21899e-01,8.89072e-01,9.99832e-01
8.494451021e-01,8.49699e-01,9.99999e-01,9.53625e-01,8.91139e-01,9.99865e-01
8.536923276e-01,8.68447e-01,9.99999e-01,9.72398e-01,8.93170e-01,9.99917e-01
8.579607893e-01,8.79804e-01,9.99999e-01,9.82858e-01,8.95165e-01,9.99979e-01
8.622505932e-01,8.87346e-01,9.99999e-01,9.89101e-01,8.97126e-01,9.99996e-01
8.665618462e-01,8.92956e-01,9.99999e-01,9.93221e-01,8.99051e-01,9.99997e-01
8.708946554e-01,8.93934e-01,9.99999e-01,9.92224e-01,9.00943e-01,9.99995e-01
8.752491287e-01,8.93419e-01,9.99999e-01,9.89617e-01,9.02801e-01,9.99988e-01
8.796253743e-01,8.91579e-01,9.99999e-01,9.85607e-01,9.04627e-01,9.99967e-01
8.840235012e-01,8.91464e-01,9.99999e-01,9.83598e-01,9.06419e-01,9.99899e-01
8.884436187e-01,8.55009e-01,9.99999e-01,9.41720e-01,9.08180e-01,9.99714e-01
8.928858368e-01,5.02382e-01,9.99999e-01,5.53032e-01,9.09910e-01,9.98355e-01
8.973502660e-01,3.25437e-01,9.99999e-01,3.60017e-01,9.11608e-01,9.91597e-01
9.018370173e-01,5.37019e-01,9.99999e-01,5.95865e-01,9.13276e-01,9.86821e-01
9.063462024e-01,5.64699e-01,9.99999e-01,6.24449e-01,9.14914e-01,9.88413e-01
9.108779334e-01,4.37420e-01,9.99999e-01,4.83074e-01,9.16522e-01,9.87963e-01
9.154323231e-01,3.92589e-01,9.99999e-01,4.31911e-01,9.18102e-01,9.90040e-01
9.200094847e-01,4.79118e-01,9.99999e-01,5.23903e-01,9.19652e-01,9.94413e-01
9.246095321e-01,3.57823e-01,9.99999e-01,3.90957e-01,9.21175e-01,9.93565e-01
9.292325798e-01,1.29511e-02,9.99999e-01,1.44808e-02,9.22670e-01,9.69316e-01
9.338787427e-01,1.10458e-03,9.99999e-01,1.33778e-03,9.24138e-01,8.93462e-01
9.385481364e-01,5.41683e-02,9.99999e-01,6.62342e-02,9.25580e-01,8.83585e-01
9.432408771e-01,2.42763e-02,9.99999e-01,2.91391e-02,9.26995e-01,8.98726e-01
9.479570815e-01,4.06079e-03,9.99999e-01,4.77115e-03,9.28384e-01,9.16767e-01
9.526968669e-01,1.31882e-02,9.99999e-01,1.49568e-02,9.29747e-01,9.48375e-01
9.574603512e-01,1.67986e-02,9.99999e-01,1.85343e-02,9.31086e-01,9.73435e-01
9.622476530e-01,3.26101e-02,9.99999e-01,3.56316e-02,9.32400e-01,9.81554e-01
9.670588912e-01,1.26695e-01,9.99999e-01,1.37432e-01,9.33690e-01,9.87348e-01
9.718941857e-01,2.31203e-01,9.99999e-01,2.49616e-01,9.34956e-01,9.90671e-01
9.767536566e-01,2.92177e-01,9.99999e-01,3.14332e-01,9.36199e-01,9.92862e-01
9.816374249e-01,3.88792e-01,9.99999e-01,4.15776e-01,9.37419e-01,9.97524e-01
9.865456120e-01,5.37738e-01,9.99999e-01,5.73200e-01,9.38616e-01,9.99483e-01
9.914783401e-01,6.63445e-01,9.99999e-01,7.06049e-01,9.39792e-01,9.99856e-01
9.964357318e-01,7.78178e-01,9.99999e-01,8.27085e-01,9.40945e-01,9.99915e-01
1.001417910e+00,8.40373e-01,9.99999e-01,8.92155e-01,9.42077e-01,9.99871e-01
1.006425000e+00,8.83384e-01,9.99999e-01,9.36764e-01,9.43188e-01,9.99817e-01
1.011457125e+00,9.06704e-01,9.99999e-01,9.60369e-01,9.44278e-01,9.99830e-01
1.016514411e+00,9.19593e-01,9.99999e-01,9.72871e-01,9.45348e-01,9.99880e-01
1.021596983e+00,9.25759e-01,9.99999e-01,9.78305e-01,9.46398e-01,9.99882e-01
1.026704968e+00,9.31282e-01,9.99999e-01,9.83028e-01,9.47429e-01,9.99926e-01
1.031838492e+00,9.36720e-01,9.99999e-01,9.87664e-01,9.48440e-01,9.99977e-01
1.036997685e+00,9.42442e-01,9.99999e-01,9.92640e-01,9.49432e-01,9.99996e-01
1.042182673e+00,9.42040e-01,9.99999e-01,9.91199e-01,9.50406e-01,9.99997e-01
1.047393587e+00,9.40291e-01,9.99999e-01,9.88365e-01,9.51361e-01,9.99997e-01
1.052630555e+00,9.37107e-01,9.99999e-01,9.84051e-01,9.52298e-01,9.99995e-01
1.057893707e+00,9.27943e-01,9.99999e-01,9.73492e-01,9.53218e-01,9.99990e-01
1.063183176e+00,9.12939e-01,9.99999e-01,9.56859e-01,9.54121e-01,9.99976e-01
1.068499092e+00,8.87186e-01,9.99999e-01,9.29030e-01,9.55006e-01,9.99949e-01
1.073841587e+00,8.77167e-01,9.99999e-01,9.17757e-01,9.55875e-01,9.99890e-01
1.079210795e+00,8.56816e-01,9.99999e-01,8.95832e-01,9.56728e-01,9.99705e-01
1.084606849e+00,8.10562e-01,9.99999e-01,8.47083e-01,9.57564e-01,9.99290e-01
1.090029883e+00,7.54877e-01,9.99999e-01,7.88814e-01,9.58384e-01,9.98531e-01
1.095480033e+00,5.03992e-01,9.99999e-01,5.26833e-01,9.59189e-01,9.97344e-01
1.100957433e+00,2.04226e-01,9.99999e-01,2.13784e-01,9.59979e-01,9.95118e-01
1.106462220e+00,3.04852e-02,9.99999e-01,3.19950e-02,9.60754e-01,9.91733e-01
1.111994531e+00,8.66183e-04,9.99999e-01,9.20924e-04,9.61514e-01,9.78203e-01
1.117554504e+00,3.70881e-05,9.99999e-01,4.17346e-05,9.62260e-01,9.23519e-01
1.123142276e+00,1.07784e-03,9.99999e-01,1.35168e-03,9.62991e-01,8.28052e-01
1.128757988e+00,4.06306e-03,9.99999e-01,5.24447e-03,9.63709e-01,8.03907e-01
1.134401778e+00,3.22592e-03,9.99999e-01,4.02711e-03,9.64413e-01,8.30608e-01
1.140073787e+00,2.60660e-02,9.99999e-01,3.13258e-02,9.65103e-01,8.62181e-01
1.145774156e+00,2.74695e-03,9.99999e-01,3.25779e-03,9.65780e-01,8.73071e-01
1.151503026e+00,1.06609e-03,9.99999e-01,1.18975e-03,9.66445e-01,9.27171e-01
1.157260541e+00,1.24168e-03,9.99999e-01,1.31328e-03,9.67097e-01,9.77644e-01
1.163046844e+00,6.99230e-03,9.99999e-01,7.27186e-03,9.67736e-01,9.93612e-01
1.168862078e+00,2.61645e-02,9.99999e-01,2.71086e-02,9.68363e-01,9.96704e-01
1.174706389e+00,9.72115e-02,9.99999e-01,1.00764e-01,9.68978e-01,9.95633e-01
1.180579921e+00,2.30539e-01,9.99999e-01,2.39350e-01,9.69581e-01,9.93404e-01
1.186482820e+00,4.17181e-01,9.99999e-01,4.32937e-01,9.70173e-01,9.93231e-01
1.192415234e+00,5.88366e-01,9.99999e-01,6.09181e-01,9.70754e-01,9.94926e-01
1.198377311e+00,6.36734e-01,9.99999e-01,6.58704e-01,9.71323e-01,9.95184e-01
1.204369197e+00,6.55853e-01,9.99999e-01,6.77671e-01,9.71881e-01,9.95804e-01
1.210391043e+00,6.66319e-01,9.99999e-01,6.87025e-01,9.72429e-01,9.97359e-01
1.216442998e+00,7.06305e-01,9.99999e-01,7.27105e-01,9.72966e-01,9.98381e-01
1.222525213e+00,7.57060e-01,9.99999e-01,7.78456e-01,9.73493e-01,9.98994e-01
1.228637839e+00,8.17700e-01,9.99999e-01,8.39911e-01,9.74010e-01,9.99531e-01
1.234781029e+00,8.56186e-01,9.99999e-01,8.78691e-01,9.74516e-01,9.99866e-01
1.240954934e+00,8.98281e-01,9.99999e-01,9.21335e-01,9.75013e-01,9.99962e-01
1.247159708e+00,9.15150e-01,9.99999e-01,9.38155e-01,9.75501e-01,9.99975e-01
1.253395507e+00,9.22090e-01,9.99999e-01,9.44813e-01,9.75979e-01,9.99968e-01
1.259662485e+00,9.25023e-01,9.99999e-01,9.47381e-01,9.76448e-01,9.99949e-01
1.265960797e+00,8.96329e-01,9.99999e-01,9.17592e-01,9.76907e-01,9.99916e-01
1.272290601e+00,8.53685e-01,9.99999e-01,8.73589e-01,9.77358e-01,9.99852e-01
1.278652054e+00,7.49731e-01,9.99999e-01,7.66952e-01,9.77801e-01,9.99738e-01
1.285045314e+00,6.08652e-01,9.99999e-01,6.22497e-01,9.78234e-01,9.99512e-01
1.291470541e+00,4.30652e-01,9.99999e-01,4.40419e-01,9.78660e-01,9.99145e-01
1.297927893e+00,3.12914e-01,9.99999e-01,3.20111e-01,9.79077e-01,9.98404e-01
1.304417533e+00,2.60740e-01,9.99999e-01,2.67102e-01,9.79486e-01,9.96623e-01
1.310939621e+00,1.85968e-01,9.99999e-01,1.91108e-01,9.79887e-01,9.93079e-01
1.317494319e+00,1.93040e-01,9.99999e-01,1.99469e-01,9.80280e-01,9.87236e-01
1.324081790e+00,9.31636e-02,9.99999e-01,9.70138e-02,9.80666e-01,9.79244e-01
1.330702199e+00,7.45713e-03,9.99999e-01,7.88115e-03,9.81044e-01,9.64479e-01
1.337355710e+00,5.75449e-09,9.99999e-01,6.28641e-09,9.81415e-01,9.32719e-01
1.344042489e+00,4.36406e-13,9.99999e-01,5.48260e-13,9.81779e-01,8.10755e-01
1.350762701e+00,2.41906e-46,9.99999e-01,5.05142e-46,9.82135e-01,4.87597e-01
1.357516515e+00,3.29086e-71,9.99999e-01,2.75712e-70,9.82485e-01,1.21486e-01
1.364304097e+00,2.07934e-43,9.99999e-01,8.50915e-42,9.82828e-01,2.48635e-02
1.371125618e+00,1.02334e-25,9.99999e-01,3.38890e-24,9.83164e-01,3.07139e-02
1.377981246e+00,6.58236e-25,9.99999e-01,1.32512e-23,9.83494e-01,5.05073e-02
1.384871152e+00,2.30548e-35,9.99999e-01,3.78520e-34,9.83817e-01,6.19095e-02
1.391795508e+00,1.02029e-43,9.99999e-01,1.47023e-42,9.84134e-01,7.05153e-02
1.398754485e+00,6.61854e-33,9.99999e-01,6.01082e-32,9.84445e-01,1.11850e-01
1.405748258e+00,1.64758e-32,9.99999e-01,6.02119e-32,9.84750e-01,2.77867e-01
1.412776999e+00,2.82235e-31,9.99998e-01,5.14139e-31,9.85049e-01,5.57279e-01
1.419840884e+00,6.18858e-31,9.99997e-01,8.11602e-31,9.85342e-01,7.73856e-01
1.426940089e+00,7.97722e-20,9.99997e-01,9.83388e-20,9.85630e-01,8.23024e-01
1.434074789e+00,1.01925e-17,9.99997e-01,1.30094e-17,9.85912e-01,7.94666e-01
1.441245163e+00,1.61829e-14,9.99998e-01,2.10480e-14,9.86188e-01,7.79622e-01
1.448451389e+00,1.99645e-09,9.99996e-01,2.51677e-09,9.86459e-01,8.04146e-01
1.455693646e+00,1.23648e-06,9.99998e-01,1.48474e-06,9.86724e-01,8.43996e-01
1.462972114e+00,1.48359e-06,9.99998e-01,1.76707e-06,9.86985e-01,8.50646e-01
1.470286975e+00,3.82364e-07,9.99998e-01,4.54054e-07,9.87240e-01,8.52993e-01
