#,Wave/freq,Total,N2,H2O,Rayleigh,CIA
4.000000000e-01,5.87166e-01,9.99999e-01,9.99939e-01,5.87201e-01,9.99999e-01
4.020000000e-01,5.93393e-01,9.99999e-01,9.99962e-01,5.93415e-01,9.99999e-01
4.040100000e-01,5.99554e-01,9.99999e-01,9.99983e-01,5.99563e-01,9.99999e-01
4.060300500e-01,6.05650e-01,9.99999e-01,9.99995e-01,6.05652e-01,9.99999e-01
4.080602003e-01,6.11680e-01,9.99999e-01,9.99998e-01,6.11681e-01,9.99999e-01
4.101005013e-01,6.17649e-01,9.99999e-01,9.99999e-01,6.17649e-01,9.99999e-01
4.121510038e-01,6.23554e-01,9.99999e-01,9.99997e-01,6.23555e-01,9.99999e-01
4.142117588e-01,6.29389e-01,9.99999e-01,9.99982e-01,6.29400e-01,9.99999e-01
4.162828176e-01,6.35135e-01,9.99999e-01,9.99925e-01,6.35182e-01,9.99999e-01
4.183642317e-01,6.40874e-01,9.99999e-01,9.99955e-01,6.40902e-01,9.99999e-01
4.204560528e-01,6.46541e-01,9.99999e-01,9.99972e-01,6.46559e-01,9.99999e-01
4.225583331e-01,6.52146e-01,9.99999e-01,9.99989e-01,6.52152e-01,9.99999e-01
4.246711247e-01,6.57677e-01,9.99999e-01,9.99991e-01,6.57682e-01,9.99999e-01
4.267944804e-01,6.63140e-01,9.99999e-01,9.99987e-01,6.63148e-01,9.99999e-01
4.289284528e-01,6.68544e-01,9.99999e-01,9.99990e-01,6.68550e-01,9.99999e-01
4.310730950e-01,6.73886e-01,9.99999e-01,9.99995e-01,6.73889e-01,9.99999e-01
4.332284605e-01,6.79162e-01,9.99999e-01,9.99998e-01,6.79163e-01,9.99999e-01
4.353946028e-01,6.84373e-01,9.99999e-01,9.99999e-01,6.84373e-01,9.99999e-01
4.375715758e-01,6.89514e-01,9.99999e-01,9.99991e-01,6.89519e-01,9.99999e-01
4.397594337e-01,6.94555e-01,9.99999e-01,9.99933e-01,6.94601e-01,9.99999e-01
4.419582309e-01,6.99383e-01,9.99999e-01,9.99661e-01,6.99619e-01,9.99999e-01
4.441680220e-01,7.04392e-01,9.99999e-01,9.99742e-01,7.04573e-01,9.99999e-01
4.463888621e-01,7.09272e-01,9.99999e-01,9.99730e-01,7.09463e-01,9.99999e-01
4.486208064e-01,7.14171e-01,9.99999e-01,9.99833e-01,7.14289e-01,9.99999e-01
4.508639105e-01,7.18996e-01,9.99999e-01,9.99921e-01,7.19052e-01,9.99999e-01
4.531182300e-01,7.23730e-01,9.99999e-01,9.99968e-01,7.23752e-01,9.99999e-01
4.553838212e-01,7.28374e-01,9.99999e-01,9.99978e-01,7.28389e-01,9.99999e-01
4.576607403e-01,7.32956e-01,9.99999e-01,9.99989e-01,7.32963e-01,9.99999e-01
4.599490440e-01,7.37469e-01,9.99999e-01,9.99992e-01,7.37474e-01,9.99999e-01
4.622487892e-01,7.41923e-01,9.99999e-01,9.99998e-01,7.41924e-01,9.99999e-01
4.645600332e-01,7.46308e-01,9.99999e-01,9.99994e-01,7.46311e-01,9.99999e-01
4.668828333e-01,7.50577e-01,9.99999e-01,9.99919e-01,7.50637e-01,9.99999e-01
4.692172475e-01,7.54775e-01,9.99999e-01,9.99830e-01,7.54902e-01,9.99999e-01
4.715633337e-01,7.59022e-01,9.99999e-01,9.99888e-01,7.59106e-01,9.99999e-01
4.739211504e-01,7.63170e-01,9.99999e-01,9.99894e-01,7.63250e-01,9.99999e-01
4.762907561e-01,7.67292e-01,9.99999e-01,9.99945e-01,7.67334e-01,9.99999e-01
4.786722099e-01,7.71341e-01,9.99999e-01,9.99977e-01,7.71359e-01,9.99999e-01
4.810655710e-01,7.75319e-01,9.99999e-01,9.99992e-01,7.75324e-01,9.99999e-01
4.834708988e-01,7.79179e-01,9.99999e-01,9.99932e-01,7.79231e-01,9.99999e-01
4.858882533e-01,7.82987e-01,9.99999e-01,9.99880e-01,7.83080e-01,9.99999e-01
4.883176946e-01,7.86792e-01,9.99999e-01,9.99899e-01,7.86871e-01,9.99999e-01
4.907592831e-01,7.90534e-01,9.99999e-01,9.99909e-01,7.90606e-01,9.99999e-01
4.932130795e-01,7.94232e-01,9.99999e-01,9.99935e-01,7.94283e-01,9.99999e-01
4.956791449e-01,7.97878e-01,9.99999e-01,9.99965e-01,7.97905e-01,9.99999e-01
4.981575406e-01,8.01334e-01,9.99999e-01,9.99828e-01,8.01471e-01,9.99999e-01
5.006483283e-01,8.04621e-01,9.99999e-01,9.99553e-01,8.04982e-01,9.99996e-01
5.031515699e-01,8.06612e-01,9.99999e-01,9.97762e-01,8.08439e-01,9.99976e-01
5.056673278e-01,8.10865e-01,9.99999e-01,9.98823e-01,8.11842e-01,9.99972e-01
5.081956644e-01,8.13970e-01,9.99999e-01,9.98516e-01,8.15191e-01,9.99983e-01
5.107366428e-01,8.17667e-01,9.99999e-01,9.98999e-01,8.18488e-01,9.99996e-01
5.132903260e-01,8.21264e-01,9.99999e-01,9.99429e-01,8.21733e-01,9.99999e-01
5.158567776e-01,8.24727e-01,9.99999e-01,9.99759e-01,8.24926e-01,9.99999e-01
5.184360615e-01,8.27988e-01,9.99999e-01,9.99903e-01,8.28068e-01,9.99999e-01
5.210282418e-01,8.31129e-01,9.99999e-01,9.99963e-01,8.31159e-01,9.99999e-01
5.236333830e-01,8.34079e-01,9.99999e-01,9.99854e-01,8.34201e-01,9.99998e-01
5.262515499e-01,8.37116e-01,9.99999e-01,9.99908e-01,8.37193e-01,9.99998e-01
5.288828077e-01,8.40066e-01,9.99999e-01,9.99915e-01,8.40137e-01,9.99998e-01
5.315272217e-01,8.42971e-01,9.99999e-01,9.99926e-01,8.43033e-01,9.99999e-01
5.341848578e-01,8.45840e-01,9.99999e-01,9.99951e-01,8.45881e-01,9.99999e-01
5.368557821e-01,8.48537e-01,9.99999e-01,9.99828e-01,8.48682e-01,9.99999e-01
5.395400610e-01,8.50904e-01,9.99999e-01,9.99379e-01,8.51437e-01,9.99993e-01
5.422377613e-01,8.53461e-01,9.99999e-01,9.99212e-01,8.54146e-01,9.99985e-01
5.449489501e-01,8.56164e-01,9.99999e-01,9.99260e-01,8.56810e-01,9.99984e-01
5.476736949e-01,8.58867e-01,9.99999e-01,9.99351e-01,8.59429e-01,9.99992e-01
5.504120634e-01,8.61598e-01,9.99999e-01,9.99529e-01,8.62005e-01,9.99997e-01
5.531641237e-01,8.64332e-01,9.99999e-01,9.99763e-01,8.64537e-01,9.99999e-01
5.559299443e-01,8.66927e-01,9.99999e-01,9.99885e-01,8.67026e-01,9.99999e-01
5.587095940e-01,8.69411e-01,9.99999e-01,9.99927e-01,8.69473e-01,9.99999e-01
5.615031420e-01,8.71809e-01,9.99999e-01,9.99919e-01,8.71879e-01,9.99999e-01
5.643106577e-01,8.74162e-01,9.99999e-01,9.99907e-01,8.74243e-01,9.99998e-01
5.671322110e-01,8.75569e-01,9.99999e-01,9.98871e-01,8.76567e-01,9.99989e-01
5.699678720e-01,8.77804e-01,9.99999e-01,9.98838e-01,8.78851e-01,9.99969e-01
5.728177114e-01,8.79994e-01,9.99999e-01,9.98773e-01,8.81096e-01,9.99974e-01
5.756818000e-01,8.82298e-01,9.99999e-01,9.98877e-01,8.83301e-01,9.99985e-01
5.785602090e-01,8.84602e-01,9.99999e-01,9.99024e-01,8.85469e-01,9.99995e-01
5.814530100e-01,8.86725e-01,9.99999e-01,9.99017e-01,8.87599e-01,9.99997e-01
5.843602750e-01,8.88635e-01,9.99999e-01,9.98817e-01,8.89692e-01,9.99992e-01
5.872820764e-01,8.82654e-01,9.99999e-01,9.89871e-01,8.91748e-01,9.99928e-01
5.902184868e-01,8.82747e-01,9.99999e-01,9.87858e-01,8.93769e-01,9.99806e-01
5.931695792e-01,8.87871e-01,9.99999e-01,9.91383e-01,8.95754e-01,9.99813e-01
5.961354271e-01,8.89152e-01,9.99999e-01,9.90579e-01,8.97704e-01,9.99892e-01
5.991161043e-01,8.93409e-01,9.99999e-01,9.93129e-01,8.99619e-01,9.99966e-01
6.021116848e-01,8.97984e-01,9.99999e-01,9.96102e-01,9.01501e-01,9.99995e-01
6.051222432e-01,9.01567e-01,9.99999e-01,9.98027e-01,9.03349e-01,9.99999e-01
6.081478544e-01,9.04393e-01,9.99999e-01,9.99147e-01,9.05165e-01,9.99999e-01
6.111885937e-01,9.06622e-01,9.99999e-01,9.99640e-01,9.06948e-01,9.99999e-01
6.142445367e-01,9.08553e-01,9.99999e-01,9.99838e-01,9.08699e-01,9.99999e-01
6.173157594e-01,9.10339e-01,9.99999e-01,9.99910e-01,9.10419e-01,9.99999e-01
6.204023382e-01,9.12040e-01,9.99999e-01,9.99923e-01,9.12109e-01,9.99999e-01
6.235043498e-01,9.13457e-01,9.99999e-01,9.99660e-01,9.13768e-01,9.99998e-01
6.266218716e-01,9.13774e-01,9.99999e-01,9.98239e-01,9.15397e-01,9.99987e-01
6.297549810e-01,9.16382e-01,9.99999e-01,9.99353e-01,9.16996e-01,9.99974e-01
6.329037559e-01,9.17381e-01,9.99999e-01,9.98728e-01,9.18567e-01,9.99979e-01
6.360682746e-01,9.19097e-01,9.99999e-01,9.98910e-01,9.20110e-01,9.99987e-01
6.392486160e-01,9.20323e-01,9.99999e-01,9.98592e-01,9.21624e-01,9.99994e-01
6.424448591e-01,9.21348e-01,9.99999e-01,9.98098e-01,9.23111e-01,9.99990e-01
6.456570834e-01,9.16388e-01,9.99999e-01,9.91201e-01,9.24571e-01,9.99946e-01
6.488853688e-01,9.19988e-01,9.99999e-01,9.93637e-01,9.26004e-01,9.99863e-01
6.521297956e-01,9.21297e-01,9.99999e-01,9.93517e-01,9.27412e-01,9.99887e-01
6.553904446e-01,9.22685e-01,9.99999e-01,9.93506e-01,9.28793e-01,9.99916e-01
6.586673968e-01,9.24977e-01,9.99999e-01,9.94466e-01,9.30149e-01,9.99971e-01
6.619607338e-01,9.28601e-01,9.99999e-01,9.96913e-01,9.31480e-01,9.99993e-01
6.652705375e-01,9.31056e-01,9.99999e-01,9.98146e-01,9.32787e-01,9.99996e-01
6.685968902e-01,9.33335e-01,9.99999e-01,9.99212e-01,9.34070e-01,9.99999e-01
6.719398746e-01,9.34957e-01,9.99999e-01,9.99601e-01,9.35329e-01,9.99999e-01
6.752995740e-01,9.36368e-01,9.99999e-01,9.99788e-01,9.36565e-01,9.99999e-01
6.786760719e-01,9.37482e-01,9.99999e-01,9.99683e-01,9.37779e-01,9.99999e-01
6.820694522e-01,9.38457e-01,9.99999e-01,9.99456e-01,9.38969e-01,9.99996e-01
6.854797995e-01,9.39480e-01,9.99999e-01,9.99305e-01,9.40138e-01,9.99993e-01
6.889071985e-01,9.39664e-01,9.99999e-01,9.98292e-01,9.41285e-01,9.99984e-01
6.923517345e-01,9.16642e-01,9.99999e-01,9.72784e-01,9.42411e-01,9.99868e-01
6.958134932e-01,9.30142e-01,9.99999e-01,9.86111e-01,9.43515e-01,9.99709e-01
6.992925606e-01,9.31567e-01,9.99999e-01,9.86460e-01,9.44600e-01,9.99738e-01
7.027890234e-01,9.29842e-01,9.99999e-01,9.83464e-01,9.45664e-01,9.99799e-01
7.063029686e-01,9.33419e-01,9.99999e-01,9.86060e-01,9.46708e-01,9.99900e-01
7.098344834e-01,9.34997e-01,9.99999e-01,9.86620e-01,9.47732e-01,9.99940e-01
7.133836558e-01,9.31524e-01,9.99999e-01,9.81969e-01,9.48738e-01,9.99882e-01
7.169505741e-01,8.21588e-01,9.99999e-01,8.65875e-01,9.49724e-01,9.99080e-01
7.205353270e-01,8.85722e-01,9.99999e-01,9.33171e-01,9.50693e-01,9.98378e-01
7.241380036e-01,8.68812e-01,9.99999e-01,9.14239e-01,9.51643e-01,9.98599e-01
7.277586936e-01,8.77644e-01,9.99999e-01,9.22393e-01,9.52575e-01,9.98855e-01
7.313974871e-01,8.74913e-01,9.99999e-01,9.18082e-01,9.53489e-01,9.99463e-01
7.350544745e-01,9.10542e-01,9.99999e-01,9.54237e-01,9.54387e-01,9.99813e-01
7.387297469e-01,9.22812e-01,9.99999e-01,9.66107e-01,9.55267e-01,9.99914e-01
7.424233956e-01,9.40159e-01,9.99999e-01,9.83308e-01,9.56131e-01,9.99984e-01
7.461355126e-01,9.47248e-01,9.99999e-01,9.89833e-01,9.56979e-01,9.99996e-01
7.498661902e-01,9.53280e-01,9.99999e-01,9.95270e-01,9.57810e-01,9.99998e-01
7.536155211e-01,9.56392e-01,9.99999e-01,9.97669e-01,9.58626e-01,9.99998e-01
7.573835987e-01,9.58276e-01,9.99999e-01,9.98800e-01,9.59426e-01,9.99999e-01
7.611705167e-01,9.59496e-01,9.99999e-01,9.99254e-01,9.60212e-01,9.99999e-01
7.649763693e-01,9.60532e-01,9.99999e-01,9.99531e-01,9.60982e-01,9.99999e-01
7.688012511e-01,9.61424e-01,9.99999e-01,9.99673e-01,9.61738e-01,9.99999e-01
7.726452574e-01,9.62220e-01,9.99999e-01,9.99730e-01,9.62479e-01,9.99999e-01
7.765084837e-01,9.62835e-01,9.99999e-01,9.99614e-01,9.63207e-01,9.99999e-01
7.803910261e-01,9.62310e-01,9.99999e-01,9.98331e-01,9.63920e-01,9.99997e-01
7.842929812e-01,9.59001e-01,9.99999e-01,9.94184e-01,9.64620e-01,9.99988e-01
7.882144461e-01,9.53811e-01,9.99999e-01,9.88170e-01,9.65306e-01,9.99918e-01
7.921555184e-01,9.59603e-01,9.99999e-01,9.93538e-01,9.65980e-01,9.99857e-01
7.961162960e-01,9.55349e-01,9.99999e-01,9.88451e-01,9.66641e-01,9.99864e-01
8.000968774e-01,9.54342e-01,9.99999e-01,9.86756e-01,9.67289e-01,9.99856e-01
8.040973618e-01,9.54978e-01,9.99999e-01,9.86732e-01,9.67924e-01,9.99890e-01
8.081178486e-01,9.39553e-01,9.99999e-01,9.70171e-01,9.68548e-01,9.99888e-01
8.121584379e-01,8.54582e-01,9.99999e-01,8.82146e-01,9.69159e-01,9.99579e-01
8.162192301e-01,8.36008e-01,9.99999e-01,8.63439e-01,9.69759e-01,9.98422e-01
8.203003262e-01,8.99866e-01,9.99999e-01,9.29079e-01,9.70347e-01,9.98153e-01
8.244018279e-01,8.77931e-01,9.99999e-01,9.05552e-01,9.70925e-01,9.98529e-01
8.285238370e-01,8.88074e-01,9.99999e-01,9.15190e-01,9.71491e-01,9.98845e-01
8.326664562e-01,8.88820e-01,9.99999e-01,9.14817e-01,9.72046e-01,9.99522e-01
8.368297885e-01,9.12474e-01,9.99999e-01,9.38291e-01,9.72590e-01,9.99890e-01
8.410139374e-01,9.36918e-01,9.99999e-01,9.62854e-01,9.73124e-01,9.99935e-01
8.452190071e-01,9.55726e-01,9.99999e-01,9.81629e-01,9.73648e-01,9.99961e-01
8.494451021e-01,9.63663e-01,9.99999e-01,9.89252e-01,9.74162e-01,9.99968e-01
8.536923276e-01,9.68465e-01,9.99999e-01,9.93655e-01,9.74666e-01,9.99980e-01
8.579607893e-01,9.71329e-01,9.99999e-01,9.96075e-01,9.75160e-01,9.99995e-01
8.622505932e-01,9.73217e-01,9.99999e-01,9.97512e-01,9.75644e-01,9.99998e-01
8.665618462e-01,9.74611e-01,9.99999e-01,9.98453e-01,9.76120e-01,9.99999e-01
8.708946554e-01,9.74852e-01,9.99999e-01,9.98225e-01,9.76586e-01,9.99998e-01
8.752491287e-01,9.74724e-01,9.99999e-01,9.97628e-01,9.77043e-01,9.99997e-01
8.796253743e-01,9.74264e-01,9.99999e-01,9.96705e-01,9.77491e-01,9.99992e-01
8.840235012e-01,9.74233e-01,9.99999e-01,9.96241e-01,9.77931e-01,9.99976e-01
8.884436187e-01,9.64698e-01,9.99999e-01,9.86097e-01,9.78362e-01,9.99934e-01
8.928858368e-01,8.47025e-01,9.99999e-01,8.65707e-01,9.78785e-01,9.99625e-01
8.973502660e-01,7.60121e-01,9.99999e-01,7.77759e-01,9.79199e-01,9.98081e-01
9.018370173e-01,8.60151e-01,9.99999e-01,8.80712e-01,9.79606e-01,9.96985e-01
9.063462024e-01,8.71790e-01,9.99999e-01,8.91938e-01,9.80005e-01,9.97351e-01
9.108779334e-01,8.18993e-01,9.99999e-01,8.37674e-01,9.80396e-01,9.97247e-01
9.154323231e-01,8.00121e-01,9.99999e-01,8.17660e-01,9.80779e-01,9.97724e-01
9.200094847e-01,8.37714e-01,9.99999e-01,8.54892e-01,9.81155e-01,9.98725e-01
9.246095321e-01,7.68387e-01,9.99999e-01,7.84001e-01,9.81524e-01,9.98531e-01
9.292325798e-01,2.12543e-01,9.99999e-01,2.18004e-01,9.81886e-01,9.92933e-01
9.338787427e-01,1.37149e-01,9.99999e-01,1.43254e-01,9.82240e-01,9.74691e-01
9.385481364e-01,4.33265e-01,9.99999e-01,4.53537e-01,9.82588e-01,9.72229e-01
9.432408771e-01,3.27795e-01,9.99999e-01,3.41689e-01,9.82929e-01,9.75995e-01
9.479570815e-01,2.19993e-01,9.99999e-01,2.28206e-01,9.83263e-01,9.80419e-01
9.526968669e-01,3.11466e-01,9.99999e-01,3.20504e-01,9.83591e-01,9.88010e-01
9.574603512e-01,3.31108e-01,9.99999e-01,3.38589e-01,9.83913e-01,9.93891e-01
9.622476530e-01,4.01630e-01,9.99999e-01,4.09799e-01,9.84228e-01,9.95772e-01
9.670588912e-01,5.83828e-01,9.99999e-01,5.94645e-01,9.84537e-01,9.97227e-01
9.718941857e-01,7.04411e-01,9.99999e-01,7.16776e-01,9.84840e-01,9.97876e-01
9.767536566e-01,7.45627e-01,9.99999e-01,7.58110e-01,9.85137e-01,9.98371e-01
9.816374249e-01,8.01936e-01,9.99999e-01,8.14252e-01,9.85429e-01,9.99435e-01
9.865456120e-01,8.66602e-01,9.99999e-01,8.79264e-01,9.85714e-01,9.99882e-01
9.914783401e-01,9.10406e-01,9.99999e-01,9.23366e-01,9.85995e-01,9.99966e-01
9.964357318e-01,9.44350e-01,9.99999e-01,9.57515e-01,9.86269e-01,9.99980e-01
1.001417910e+00,9.61180e-01,9.99999e-01,9.74323e-01,9.86539e-01,9.99970e-01
1.006425000e+00,9.72198e-01,9.99999e-01,9.85240e-01,9.86803e-01,9.99958e-01
1.011457125e+00,9.77986e-01,9.99999e-01,9.90842e-01,9.87062e-01,9.99961e-01
1.016514411e+00,9.81132e-01,9.99999e-01,9.93763e-01,9.87316e-01,9.99972e-01
1.021596983e+00,9.82624e-01,9.99999e-01,9.95023e-01,9.87565e-01,9.99972e-01
1.026704968e+00,9.83955e-01,9.99999e-01,9.96114e-01,9.87809e-01,9.99982e-01
1.031838492e+00,9.85259e-01,9.99999e-01,9.97181e-01,9.88048e-01,9.99994e-01
1.036997685e+00,9.86623e-01,9.99999e-01,9.98321e-01,9.88283e-01,9.99998e-01
1.042182673e+00,9.86526e-01,9.99999e-01,9.97989e-01,9.88513e-01,9.99999e-01
1.047393587e+00,9.86109e-01,9.99999e-01,9.97340e-01,9.88738e-01,9.99999e-01
1.052630555e+00,9.85346e-01,9.99999e-01,9.96346e-01,9.88960e-01,9.99998e-01
1.057893707e+00,9.83138e-01,9.99999e-01,9.93897e-01,9.89176e-01,9.99997e-01
1.063183176e+00,9.79480e-01,9.99999e-01,9.89989e-01,9.89389e-01,9.99994e-01
1.068499092e+00,9.73084e-01,9.99999e-01,9.83323e-01,9.89598e-01,9.99988e-01
1.073841587e+00,9.70459e-01,9.99999e-01,9.80481e-01,9.89802e-01,9.99974e-01
1.079210795e+00,9.65325e-01,9.99999e-01,9.75138e-01,9.90002e-01,9.99932e-01
1.084606849e+00,9.52964e-01,9.99999e-01,9.62551e-01,9.90199e-01,9.99838e-01
1.090029883e+00,9.36932e-01,9.99999e-01,9.46337e-01,9.90392e-01,9.99665e-01
1.095480033e+00,8.52292e-01,9.99999e-01,8.60916e-01,9.90580e-01,9.99394e-01
1.100957433e+00,6.78844e-01,9.99999e-01,6.85934e-01,9.90766e-01,9.98886e-01
1.106462220e+00,3.90858e-01,9.99999e-01,3.95174e-01,9.90947e-01,9.98112e-01
1.111994531e+00,1.47817e-01,9.99999e-01,1.49890e-01,9.91125e-01,9.94997e-01
1.117554504e+00,4.95332e-02,9.99999e-01,5.08807e-02,9.91300e-01,9.82057e-01
1.123142276e+00,1.23029e-01,9.99999e-01,1.29531e-01,9.91471e-01,9.57974e-01
1.128757988e+00,2.29096e-01,9.99999e-01,2.42792e-01,9.91638e-01,9.51545e-01
1.134401778e+00,1.05610e-01,9.99999e-01,1.11076e-01,9.91803e-01,9.58646e-01
1.140073787e+00,3.97441e-01,9.99999e-01,4.14411e-01,9.91964e-01,9.66819e-01
1.145774156e+00,1.70759e-01,9.99999e-01,1.77513e-01,9.92122e-01,9.69584e-01
1.151503026e+00,1.44271e-01,9.99999e-01,1.47917e-01,9.92277e-01,9.82940e-01
1.157260541e+00,1.80956e-01,9.99999e-01,1.83277e-01,9.92429e-01,9.94868e-01
1.163046844e+00,2.80467e-01,9.99999e-01,2.82976e-01,9.92578e-01,9.98542e-01
1.168862078e+00,4.03519e-01,9.99999e-01,4.06785e-01,9.92724e-01,9.99240e-01
1.174706389e+00,5.68309e-01,9.99999e-01,5.72990e-01,9.92867e-01,9.98953e-01
1.180579921e+00,7.05274e-01,9.99999e-01,7.11310e-01,9.93008e-01,9.98495e-01
1.186482820e+00,8.16855e-01,9.99999e-01,8.23764e-01,9.93145e-01,9.98455e-01
1.192415234e+00,8.85654e-01,9.99999e-01,8.92677e-01,9.93280e-01,9.98842e-01
1.198377311e+00,9.01632e-01,9.99999e-01,9.08607e-01,9.93413e-01,9.98901e-01
1.204369197e+00,9.06826e-01,9.99999e-01,9.13593e-01,9.93542e-01,9.99043e-01
1.210391043e+00,9.10752e-01,9.99999e-01,9.17105e-01,9.93669e-01,9.99398e-01
1.216442998e+00,9.23099e-01,9.99999e-01,9.29204e-01,9.93794e-01,9.99631e-01
1.222525213e+00,9.38352e-01,9.99999e-01,9.44311e-01,9.93916e-01,9.99770e-01
1.228637839e+00,9.55120e-01,9.99999e-01,9.60952e-01,9.94036e-01,9.99893e-01
1.234781029e+00,9.65198e-01,9.99999e-01,9.70902e-01,9.94153e-01,9.99969e-01
1.240954934e+00,9.75848e-01,9.99999e-01,9.81481e-01,9.94269e-01,9.99990e-01
1.247159708e+00,9.80020e-01,9.99999e-01,9.85562e-01,9.94381e-01,9.99994e-01
1.253395507e+00,9.81707e-01,9.99999e-01,9.87150e-01,9.94492e-01,9.99992e-01
1.259662485e+00,9.82414e-01,9.99999e-01,9.87757e-01,9.94601e-01,9.99988e-01
1.265960797e+00,9.75354e-01,9.99999e-01,9.80562e-01,9.94707e-01,9.99980e-01
1.272290601e+00,9.64461e-01,9.99999e-01,9.69523e-01,9.94811e-01,9.99966e-01
1.278652054e+00,9.35608e-01,9.99999e-01,9.40447e-01,9.94913e-01,9.99940e-01
1.285045314e+00,8.90168e-01,9.99999e-01,8.94727e-01,9.95014e-01,9.99888e-01
1.291470541e+00,8.19786e-01,9.99999e-01,8.23972e-01,9.95112e-01,9.99804e-01
1.297927893e+00,7.56099e-01,9.99999e-01,7.60015e-01,9.95208e-01,9.99636e-01
1.304417533e+00,7.21324e-01,9.99999e-01,7.25285e-01,9.95303e-01,9.99230e-01
1.310939621e+00,6.62345e-01,9.99999e-01,6.66460e-01,9.95395e-01,9.98420e-01
1.317494319e+00,6.67174e-01,9.99999e-01,6.72160e-01,9.95486e-01,9.97080e-01
1.324081790e+00,5.53174e-01,9.99999e-01,5.58290e-01,9.95575e-01,9.95238e-01
1.330702199e+00,1.56725e-01,9.99999e-01,1.58708e-01,9.95662e-01,9.91803e-01
1.337355710e+00,3.66580e-03,9.99999e-01,3.74026e-03,9.95747e-01,9.84275e-01
1.344042489e+00,2.18246e-06,9.99999e-01,2.29875e-06,9.95831e-01,9.53383e-01
1.350762701e+00,3.73523e-12,9.99999e-01,4.41649e-12,9.95913e-01,8.49215e-01
1.357516515e+00,7.05080e-18,9.99999e-01,1.14366e-17,9.95994e-01,6.18989e-01
1.364304097e+00,1.95963e-11,9.99999e-01,4.56010e-11,9.96073e-01,4.31428e-01
1.371125618e+00,1.64269e-07,9.99999e-01,3.64282e-07,9.96150e-01,4.52680e-01
1.377981246e+00,5.89633e-07,9.99999e-01,1.16755e-06,9.96226e-01,5.06929e-01
1.384871152e+00,8.84894e-10,9.99999e-01,1.67277e-09,9.96301e-01,5.30962e-01
1.391795508e+00,2.14900e-11,9.99999e-01,3.94356e-11,9.96373e-01,5.46922e-01
1.398754485e+00,4.58448e-09,9.99999e-01,7.57390e-09,9.96445e-01,6.07458e-01
1.405748258e+00,5.78532e-09,9.99999e-01,7.76959e-09,9.96515e-01,7.47213e-01
1.412776999e+00,8.26160e-09,9.99999e-01,9.46960e-09,9.96584e-01,8.75424e-01
1.419840884e+00,1.73269e-08,9.99999e-01,1.84294e-08,9.96651e-01,9.43331e-01
1.426940089e+00,3.26579e-06,9.99999e-01,3.42503e-06,9.96717e-01,9.56647e-01
1.434074789e+00,2.95555e-05,9.99999e-01,3.12429e-05,9.96782e-01,9.49044e-01
1.441245163e+00,1.92012e-04,9.99999e-01,2.03846e-04,9.96845e-01,9.44926e-01
1.448451389e+00,2.80025e-03,9.99998e-01,2.95177e-03,9.96907e-01,9.51609e-01
1.455693646e+00,1.80458e-02,9.99999e-01,1.88129e-02,9.96968e-01,9.62140e-01
1.462972114e+00,2.59379e-02,9.99999e-01,2.69906e-02,9.97028e-01,9.63860e-01
1.470286975e+00,1.50412e-02,9.99999e-01,1.56410e-02,9.97087e-01,9.64464e-01
