#,Wave/freq,Total,N2,H2O,Rayleigh,CIA
4.000000000e-01,6.65959e-01,9.99999e-01,9.99953e-01,6.65990e-01,9.99999e-01
4.020000000e-01,6.71345e-01,9.99999e-01,9.99971e-01,6.71364e-01,9.99999e-01
4.040100000e-01,6.76660e-01,9.99999e-01,9.99987e-01,6.76669e-01,9.99999e-01
4.060300500e-01,6.81907e-01,9.99999e-01,9.99996e-01,6.81909e-01,9.99999e-01
4.080602003e-01,6.87085e-01,9.99999e-01,9.99998e-01,6.87086e-01,9.99999e-01
4.101005013e-01,6.92198e-01,9.99999e-01,9.99999e-01,6.92198e-01,9.99999e-01
4.121510038e-01,6.97245e-01,9.99999e-01,9.99997e-01,6.97246e-01,9.99999e-01
4.142117588e-01,7.02221e-01,9.99999e-01,9.99986e-01,7.02230e-01,9.99999e-01
4.162828176e-01,7.07111e-01,9.99999e-01,9.99942e-01,7.07151e-01,9.99999e-01
4.183642317e-01,7.11983e-01,9.99999e-01,9.99965e-01,7.12007e-01,9.99999e-01
4.204560528e-01,7.16786e-01,9.99999e-01,9.99978e-01,7.16800e-01,9.99999e-01
4.225583331e-01,7.21525e-01,9.99999e-01,9.99991e-01,7.21530e-01,9.99999e-01
4.246711247e-01,7.26192e-01,9.99999e-01,9.99993e-01,7.26197e-01,9.99999e-01
4.267944804e-01,7.30794e-01,9.99999e-01,9.99990e-01,7.30800e-01,9.99999e-01
4.289284528e-01,7.35336e-01,9.99999e-01,9.99992e-01,7.35342e-01,9.99999e-01
4.310730950e-01,7.39818e-01,9.99999e-01,9.99996e-01,7.39820e-01,9.99999e-01
4.332284605e-01,7.44237e-01,9.99999e-01,9.99998e-01,7.44237e-01,9.99999e-01
4.353946028e-01,7.48592e-01,9.99999e-01,9.99999e-01,7.48592e-01,9.99999e-01
4.375715758e-01,7.52882e-01,9.99999e-01,9.99993e-01,7.52886e-01,9.99999e-01
4.397594337e-01,7.57081e-01,9.99999e-01,9.99948e-01,7.57119e-01,9.99999e-01
4.419582309e-01,7.61095e-01,9.99999e-01,9.99741e-01,7.61292e-01,9.99999e-01
4.441680220e-01,7.65254e-01,9.99999e-01,9.99803e-01,7.65404e-01,9.99999e-01
4.463888621e-01,7.69298e-01,9.99999e-01,9.99793e-01,7.69457e-01,9.99999e-01
4.486208064e-01,7.73352e-01,9.99999e-01,9.99872e-01,7.73450e-01,9.99999e-01
4.508639105e-01,7.77338e-01,9.99999e-01,9.99940e-01,7.77385e-01,9.99999e-01
4.531182300e-01,7.81243e-01,9.99999e-01,9.99976e-01,7.81261e-01,9.99999e-01
4.553838212e-01,7.85067e-01,9.99999e-01,9.99983e-01,7.85080e-01,9.99999e-01
4.576607403e-01,7.88835e-01,9.99999e-01,9.99992e-01,7.88841e-01,9.99999e-01
4.599490440e-01,7.92541e-01,9.99999e-01,9.99994e-01,7.92545e-01,9.99999e-01
4.622487892e-01,7.96193e-01,9.99999e-01,9.99998e-01,7.96194e-01,9.99999e-01
4.645600332e-01,7.99783e-01,9.99999e-01,9.99995e-01,7.99786e-01,9.99999e-01
4.668828333e-01,8.03274e-01,9.99999e-01,9.99938e-01,8.03323e-01,9.99999e-01
4.692172475e-01,8.06702e-01,9.99999e-01,9.99870e-01,8.06806e-01,9.99999e-01
4.715633337e-01,8.10166e-01,9.99999e-01,9.99915e-01,8.10234e-01,9.99999e-01
4.739211504e-01,8.13543e-01,9.99999e-01,9.99919e-01,8.13609e-01,9.99999e-01
4.762907561e-01,8.16897e-01,9.99999e-01,9.99958e-01,8.16930e-01,9.99999e-01
4.786722099e-01,8.20186e-01,9.99999e-01,9.99982e-01,8.20200e-01,9.99999e-01
4.810655710e-01,8.23413e-01,9.99999e-01,9.99994e-01,8.23417e-01,9.99999e-01
4.834708988e-01,8.26541e-01,9.99999e-01,9.99948e-01,8.26583e-01,9.99999e-01
4.858882533e-01,8.29623e-01,9.99999e-01,9.99908e-01,8.29699e-01,9.99999e-01
4.883176946e-01,8.32700e-01,9.99999e-01,9.99922e-01,8.32764e-01,9.99999e-01
4.907592831e-01,8.35722e-01,9.99999e-01,9.99930e-01,8.35780e-01,9.99999e-01
4.932130795e-01,8.38705e-01,9.99999e-01,9.99950e-01,8.38746e-01,9.99999e-01
4.956791449e-01,8.41643e-01,9.99999e-01,9.99973e-01,8.41665e-01,9.99999e-01
4.981575406e-01,8.44425e-01,9.99999e-01,9.99869e-01,8.44535e-01,9.99999e-01
5.006483283e-01,8.47068e-01,9.99999e-01,9.99658e-01,8.47359e-01,9.99997e-01
5.031515699e-01,8.48667e-01,9.99999e-01,9.98290e-01,8.50136e-01,9.99981e-01
5.056673278e-01,8.52083e-01,9.99999e-01,9.99101e-01,8.52866e-01,9.99979e-01
5.081956644e-01,8.54573e-01,9.99999e-01,9.98867e-01,8.55552e-01,9.99987e-01
5.107366428e-01,8.57535e-01,9.99999e-01,9.99235e-01,8.58192e-01,9.99997e-01
5.132903260e-01,8.60413e-01,9.99999e-01,9.99564e-01,8.60788e-01,9.99999e-01
5.158567776e-01,8.63182e-01,9.99999e-01,9.99815e-01,8.63341e-01,9.99999e-01
5.184360615e-01,8.65787e-01,9.99999e-01,9.99925e-01,8.65850e-01,9.99999e-01
5.210282418e-01,8.68293e-01,9.99999e-01,9.99971e-01,8.68317e-01,9.99999e-01
5.236333830e-01,8.70645e-01,9.99999e-01,9.99888e-01,8.70743e-01,9.99998e-01
5.262515499e-01,8.73065e-01,9.99999e-01,9.99930e-01,8.73126e-01,9.99998e-01
5.288828077e-01,8.75413e-01,9.99999e-01,9.99935e-01,8.75469e-01,9.99998e-01
5.315272217e-01,8.77723e-01,9.99999e-01,9.99943e-01,8.77772e-01,9.99999e-01
5.341848578e-01,8.80003e-01,9.99999e-01,9.99962e-01,8.80035e-01,9.99999e-01
5.368557821e-01,8.82144e-01,9.99999e-01,9.99869e-01,8.82260e-01,9.99999e-01
5.395400610e-01,8.84022e-01,9.99999e-01,9.99524e-01,8.84445e-01,9.99995e-01
5.422377613e-01,8.86051e-01,9.99999e-01,9.99398e-01,8.86593e-01,9.99988e-01
5.449489501e-01,8.88192e-01,9.99999e-01,9.99435e-01,8.88704e-01,9.99988e-01
5.476736949e-01,8.90332e-01,9.99999e-01,9.99505e-01,8.90777e-01,9.99993e-01
5.504120634e-01,8.92493e-01,9.99999e-01,9.99640e-01,8.92815e-01,9.99997e-01
5.531641237e-01,8.94655e-01,9.99999e-01,9.99819e-01,8.94816e-01,9.99999e-01
5.559299443e-01,8.96705e-01,9.99999e-01,9.99912e-01,8.96783e-01,9.99999e-01
5.587095940e-01,8.98665e-01,9.99999e-01,9.99944e-01,8.98715e-01,9.99999e-01
5.615031420e-01,9.00557e-01,9.99999e-01,9.99938e-01,9.00612e-01,9.99999e-01
5.643106577e-01,9.02412e-01,9.99999e-01,9.99929e-01,9.02476e-01,9.99998e-01
5.671322110e-01,9.03520e-01,9.99999e-01,9.99135e-01,9.04307e-01,9.99992e-01
5.699678720e-01,9.05283e-01,9.99999e-01,9.99113e-01,9.06106e-01,9.99976e-01
5.728177114e-01,9.07005e-01,9.99999e-01,9.99063e-01,9.07872e-01,9.99980e-01
5.756818000e-01,9.08818e-01,9.99999e-01,9.99142e-01,9.09607e-01,9.99988e-01
5.785602090e-01,9.10629e-01,9.99999e-01,9.99254e-01,9.11311e-01,9.99996e-01
5.814530100e-01,9.12298e-01,9.99999e-01,9.99249e-01,9.12984e-01,9.99997e-01
5.843602750e-01,9.13797e-01,9.99999e-01,9.99096e-01,9.14627e-01,9.99994e-01
5.872820764e-01,9.09088e-01,9.99999e-01,9.92245e-01,9.16241e-01,9.99945e-01
5.902184868e-01,9.09172e-01,9.99999e-01,9.90717e-01,9.17825e-01,9.99852e-01
5.931695792e-01,9.13194e-01,9.99999e-01,9.93410e-01,9.19381e-01,9.99857e-01
5.961354271e-01,9.14203e-01,9.99999e-01,9.92798e-01,9.20909e-01,9.99917e-01
5.991161043e-01,9.17544e-01,9.99999e-01,9.94750e-01,9.22409e-01,9.99974e-01
6.021116848e-01,9.21130e-01,9.99999e-01,9.97023e-01,9.23882e-01,9.99996e-01
6.051222432e-01,9.23934e-01,9.99999e-01,9.98493e-01,9.25328e-01,9.99999e-01
6.081478544e-01,9.26144e-01,9.99999e-01,9.99349e-01,9.26747e-01,9.99999e-01
6.111885937e-01,9.27886e-01,9.99999e-01,9.99725e-01,9.28141e-01,9.99999e-01
6.142445367e-01,9.29395e-01,9.99999e-01,9.99876e-01,9.29509e-01,9.99999e-01
6.173157594e-01,9.30789e-01,9.99999e-01,9.99931e-01,9.30852e-01,9.99999e-01
6.204023382e-01,9.32116e-01,9.99999e-01,9.99941e-01,9.32170e-01,9.99999e-01
6.235043498e-01,9.33222e-01,9.99999e-01,9.99739e-01,9.33465e-01,9.99998e-01
6.266218716e-01,9.33470e-01,9.99999e-01,9.98655e-01,9.34735e-01,9.99990e-01
6.297549810e-01,9.35503e-01,9.99999e-01,9.99506e-01,9.35982e-01,9.99980e-01
6.329037559e-01,9.36282e-01,9.99999e-01,9.99029e-01,9.37206e-01,9.99984e-01
6.360682746e-01,9.37618e-01,9.99999e-01,9.99167e-01,9.38407e-01,9.99990e-01
6.392486160e-01,9.38573e-01,9.99999e-01,9.98925e-01,9.39586e-01,9.99995e-01
6.424448591e-01,9.39369e-01,9.99999e-01,9.98546e-01,9.40743e-01,9.99992e-01
6.456570834e-01,9.35499e-01,9.99999e-01,9.93266e-01,9.41879e-01,9.99959e-01
6.488853688e-01,9.38313e-01,9.99999e-01,9.95138e-01,9.42994e-01,9.99896e-01
6.521297956e-01,9.39331e-01,9.99999e-01,9.95046e-01,9.44088e-01,9.99914e-01
6.553904446e-01,9.40410e-01,9.99999e-01,9.95036e-01,9.45161e-01,9.99935e-01
6.586673968e-01,9.42195e-01,9.99999e-01,9.95772e-01,9.46215e-01,9.99978e-01
6.619607338e-01,9.45012e-01,9.99999e-01,9.97643e-01,9.47249e-01,9.99994e-01
6.652705375e-01,9.46920e-01,9.99999e-01,9.98585e-01,9.48263e-01,9.99997e-01
6.685968902e-01,9.48688e-01,9.99999e-01,9.99399e-01,9.49259e-01,9.99999e-01
6.719398746e-01,9.49946e-01,9.99999e-01,9.99695e-01,9.50235e-01,9.99999e-01
6.752995740e-01,9.51041e-01,9.99999e-01,9.99838e-01,9.51194e-01,9.99999e-01
6.786760719e-01,9.51905e-01,9.99999e-01,9.99758e-01,9.52135e-01,9.99999e-01
6.820694522e-01,9.52660e-01,9.99999e-01,9.99585e-01,9.53057e-01,9.99997e-01
6.854797995e-01,9.53453e-01,9.99999e-01,9.99469e-01,9.53963e-01,9.99994e-01
6.889071985e-01,9.53201e-01,9.99999e-01,9.98282e-01,9.54851e-01,9.99988e-01
6.923517345e-01,9.35593e-01,9.99999e-01,9.79034e-01,9.55723e-01,9.99899e-01
6.958134932e-01,9.46218e-01,9.99999e-01,9.89388e-01,9.56579e-01,9.99777e-01
6.992925606e-01,9.47303e-01,9.99999e-01,9.89632e-01,9.57418e-01,9.99799e-01
7.027890234e-01,9.45973e-01,9.99999e-01,9.87347e-01,9.58241e-01,9.99847e-01
7.063029686e-01,9.48752e-01,9.99999e-01,9.89338e-01,9.59049e-01,9.99923e-01
7.098344834e-01,9.49977e-01,9.99999e-01,9.89767e-01,9.59841e-01,9.99954e-01
7.133836558e-01,9.47251e-01,9.99999e-01,9.86171e-01,9.60618e-01,9.99910e-01
7.169505741e-01,8.60156e-01,9.99999e-01,8.95336e-01,9.61381e-01,9.99297e-01
7.205353270e-01,9.11436e-01,9.99999e-01,9.48485e-01,9.62129e-01,9.98761e-01
7.241380036e-01,8.97996e-01,9.99999e-01,9.33628e-01,9.62863e-01,9.98930e-01
7.277586936e-01,9.04979e-01,9.99999e-01,9.40002e-01,9.63583e-01,9.99125e-01
7.313974871e-01,9.02930e-01,9.99999e-01,9.36750e-01,9.64289e-01,9.99590e-01
7.350544745e-01,9.30920e-01,9.99999e-01,9.64838e-01,9.64982e-01,9.99857e-01
7.387297469e-01,9.40506e-01,9.99999e-01,9.74012e-01,9.65662e-01,9.99934e-01
7.424233956e-01,9.53984e-01,9.99999e-01,9.87236e-01,9.66329e-01,9.99988e-01
7.461355126e-01,9.59469e-01,9.99999e-01,9.92230e-01,9.66983e-01,9.99997e-01
7.498661902e-01,9.64130e-01,9.99999e-01,9.96389e-01,9.67624e-01,9.99998e-01
7.536155211e-01,9.66531e-01,9.99999e-01,9.98220e-01,9.68253e-01,9.99999e-01
7.573835987e-01,9.67984e-01,9.99999e-01,9.99084e-01,9.68871e-01,9.99999e-01
7.611705167e-01,9.68924e-01,9.99999e-01,9.99430e-01,9.69476e-01,9.99999e-01
7.649763693e-01,9.69723e-01,9.99999e-01,9.99642e-01,9.70070e-01,9.99999e-01
7.688012511e-01,9.70410e-01,9.99999e-01,9.99750e-01,9.70652e-01,9.99999e-01
7.726452574e-01,9.71024e-01,9.99999e-01,9.99794e-01,9.71223e-01,9.99999e-01
7.765084837e-01,9.71497e-01,9.99999e-01,9.99705e-01,9.71784e-01,9.99999e-01
7.803910261e-01,9.71092e-01,9.99999e-01,9.98723e-01,9.72333e-01,9.99998e-01
7.842929812e-01,9.68537e-01,9.99999e-01,9.95551e-01,9.72872e-01,9.99991e-01
7.882144461e-01,9.64536e-01,9.99999e-01,9.90954e-01,9.73401e-01,9.99937e-01
7.921555184e-01,9.69009e-01,9.99999e-01,9.95064e-01,9.73919e-01,9.99891e-01
7.961162960e-01,9.65716e-01,9.99999e-01,9.91160e-01,9.74428e-01,9.99896e-01
8.000968774e-01,9.64946e-01,9.99999e-01,9.89870e-01,9.74927e-01,9.99890e-01
8.040973618e-01,9.65435e-01,9.99999e-01,9.89849e-01,9.75416e-01,9.99916e-01
8.081178486e-01,9.53465e-01,9.99999e-01,9.77098e-01,9.75895e-01,9.99914e-01
8.121584379e-01,8.86609e-01,9.99999e-01,9.08361e-01,9.76366e-01,9.99679e-01
8.162192301e-01,8.71862e-01,9.99999e-01,8.93620e-01,9.76827e-01,9.98795e-01
8.203003262e-01,9.22024e-01,9.99999e-01,9.44791e-01,9.77280e-01,9.98589e-01
8.244018279e-01,9.04694e-01,9.99999e-01,9.26345e-01,9.77723e-01,9.98877e-01
8.285238370e-01,9.13200e-01,9.99999e-01,9.34414e-01,9.78158e-01,9.99117e-01
8.326664562e-01,9.13786e-01,9.99999e-01,9.34123e-01,9.78585e-01,9.99634e-01
8.368297885e-01,9.32424e-01,9.99999e-01,9.52500e-01,9.79004e-01,9.99916e-01
8.410139374e-01,9.51462e-01,9.99999e-01,9.71507e-01,9.79414e-01,9.99950e-01
8.452190071e-01,9.66020e-01,9.99999e-01,9.85947e-01,9.79817e-01,9.99970e-01
8.494451021e-01,9.72135e-01,9.99999e-01,9.91783e-01,9.80211e-01,9.99976e-01
8.536923276e-01,9.75833e-01,9.99999e-01,9.95154e-01,9.80598e-01,9.99985e-01
8.579607893e-01,9.78034e-01,9.99999e-01,9.97002e-01,9.80978e-01,9.99996e-01
8.622505932e-01,9.79486e-01,9.99999e-01,9.98100e-01,9.81350e-01,9.99998e-01
8.665618462e-01,9.80556e-01,9.99999e-01,9.98819e-01,9.81715e-01,9.99999e-01
8.708946554e-01,9.80741e-01,9.99999e-01,9.98644e-01,9.82073e-01,9.99998e-01
8.752491287e-01,9.80643e-01,9.99999e-01,9.98188e-01,9.82424e-01,9.99997e-01
8.796253743e-01,9.80288e-01,9.99999e-01,9.97481e-01,9.82768e-01,9.99993e-01
8.840235012e-01,9.80265e-01,9.99999e-01,9.97127e-01,9.83105e-01,9.99982e-01
8.884436187e-01,9.72884e-01,9.99999e-01,9.89317e-01,9.83436e-01,9.99949e-01
8.928858368e-01,8.80376e-01,9.99999e-01,8.95163e-01,9.83761e-01,9.99713e-01
8.973502660e-01,8.10116e-01,9.99999e-01,8.24430e-01,9.84079e-01,9.98534e-01
9.018370173e-01,8.90903e-01,9.99999e-01,9.07117e-01,9.84391e-01,9.97696e-01
9.063462024e-01,9.00070e-01,9.99999e-01,9.15909e-01,9.84697e-01,9.97976e-01
9.108779334e-01,8.57940e-01,9.99999e-01,8.72842e-01,9.84997e-01,9.97897e-01
9.154323231e-01,8.42888e-01,9.99999e-01,8.56959e-01,9.85291e-01,9.98261e-01
9.200094847e-01,8.73022e-01,9.99999e-01,8.86657e-01,9.85579e-01,9.99026e-01
9.246095321e-01,8.15020e-01,9.99999e-01,8.27634e-01,9.85862e-01,9.98878e-01
9.292325798e-01,2.94044e-01,9.99999e-01,2.99796e-01,9.86140e-01,9.94598e-01
9.338787427e-01,2.09549e-01,9.99999e-01,2.16635e-01,9.86411e-01,9.80614e-01
9.385481364e-01,5.19150e-01,9.99999e-01,5.37598e-01,9.86678e-01,9.78721e-01
9.432408771e-01,4.13302e-01,9.99999e-01,4.26614e-01,9.86939e-01,9.81615e-01
9.479570815e-01,3.03002e-01,9.99999e-01,3.11602e-01,9.87196e-01,9.85011e-01
9.526968669e-01,4.01459e-01,9.99999e-01,4.10324e-01,9.87447e-01,9.90831e-01
9.574603512e-01,4.23174e-01,9.99999e-01,4.30455e-01,9.87693e-01,9.95331e-01
9.622476530e-01,4.93441e-01,9.99999e-01,5.01085e-01,9.87935e-01,9.96769e-01
9.670588912e-01,6.59955e-01,9.99999e-01,6.69271e-01,9.88172e-01,9.97882e-01
9.718941857e-01,7.64431e-01,9.99999e-01,7.74655e-01,9.88404e-01,9.98377e-01
9.767536566e-01,7.98574e-01,9.99999e-01,8.08761e-01,9.88632e-01,9.98755e-01
9.816374249e-01,8.44654e-01,9.99999e-01,8.54540e-01,9.88855e-01,9.99568e-01
9.865456120e-01,8.96362e-01,9.99999e-01,9.06344e-01,9.89074e-01,9.99909e-01
9.914783401e-01,9.30824e-01,9.99999e-01,9.40924e-01,9.89289e-01,9.99974e-01
9.964357318e-01,9.57218e-01,9.99999e-01,9.67389e-01,9.89499e-01,9.99984e-01
1.001417910e+00,9.70225e-01,9.99999e-01,9.80338e-01,9.89705e-01,9.99977e-01
1.006425000e+00,9.78702e-01,9.99999e-01,9.88710e-01,9.89908e-01,9.99967e-01
1.011457125e+00,9.83149e-01,9.99999e-01,9.93002e-01,9.90106e-01,9.99970e-01
1.016514411e+00,9.85562e-01,9.99999e-01,9.95235e-01,9.90301e-01,9.99978e-01
1.021596983e+00,9.86706e-01,9.99999e-01,9.96198e-01,9.90491e-01,9.99979e-01
1.026704968e+00,9.87726e-01,9.99999e-01,9.97032e-01,9.90678e-01,9.99986e-01
1.031838492e+00,9.88726e-01,9.99999e-01,9.97847e-01,9.90861e-01,9.99995e-01
1.036997685e+00,9.89770e-01,9.99999e-01,9.98717e-01,9.91041e-01,9.99998e-01
1.042182673e+00,9.89695e-01,9.99999e-01,9.98463e-01,9.91217e-01,9.99999e-01
1.047393587e+00,9.89376e-01,9.99999e-01,9.97968e-01,9.91390e-01,9.99999e-01
1.052630555e+00,9.88791e-01,9.99999e-01,9.97208e-01,9.91559e-01,9.99998e-01
1.057893707e+00,9.87097e-01,9.99999e-01,9.95333e-01,9.91725e-01,9.99997e-01
1.063183176e+00,9.84289e-01,9.99999e-01,9.92342e-01,9.91888e-01,9.99995e-01
1.068499092e+00,9.79376e-01,9.99999e-01,9.87234e-01,9.92048e-01,9.99990e-01
1.073841587e+00,9.77348e-01,9.99999e-01,9.85045e-01,9.92204e-01,9.99980e-01
1.079210795e+00,9.73405e-01,9.99999e-01,9.80951e-01,9.92357e-01,9.99948e-01
1.084606849e+00,9.63853e-01,9.99999e-01,9.71248e-01,9.92508e-01,9.99876e-01
1.090029883e+00,9.51368e-01,9.99999e-01,9.58651e-01,9.92655e-01,9.99744e-01
1.095480033e+00,8.84852e-01,9.99999e-01,8.91681e-01,9.92800e-01,9.99537e-01
1.100957433e+00,7.42716e-01,9.99999e-01,7.48632e-01,9.92942e-01,9.99149e-01
1.106462220e+00,4.82316e-01,9.99999e-01,4.86378e-01,9.93080e-01,9.98558e-01
1.111994531e+00,2.25152e-01,9.99999e-01,2.27559e-01,9.93217e-01,9.96177e-01
1.117554504e+00,9.41233e-02,9.99999e-01,9.60724e-02,9.93350e-01,9.86268e-01
1.123142276e+00,1.88254e-01,9.99999e-01,1.95805e-01,9.93481e-01,9.67743e-01
1.128757988e+00,3.16120e-01,9.99999e-01,3.30452e-01,9.93609e-01,9.62780e-01
1.134401778e+00,1.49869e-01,9.99999e-01,1.55757e-01,9.93735e-01,9.68262e-01
1.140073787e+00,4.89416e-01,9.99999e-01,5.05294e-01,9.93859e-01,9.74559e-01
1.145774156e+00,2.48687e-01,9.99999e-01,2.56165e-01,9.93979e-01,9.76687e-01
1.151503026e+00,2.17732e-01,9.99999e-01,2.21921e-01,9.94098e-01,9.86945e-01
1.157260541e+00,2.65648e-01,9.99999e-01,2.68246e-01,9.94214e-01,9.96078e-01
1.163046844e+00,3.73938e-01,9.99999e-01,3.76490e-01,9.94328e-01,9.98886e-01
1.168862078e+00,4.98026e-01,9.99999e-01,5.01101e-01,9.94440e-01,9.99419e-01
1.174706389e+00,6.48171e-01,9.99999e-01,6.52244e-01,9.94549e-01,9.99200e-01
1.180579921e+00,7.65319e-01,9.99999e-01,7.70315e-01,9.94657e-01,9.98850e-01
1.186482820e+00,8.56725e-01,9.99999e-01,8.62252e-01,9.94762e-01,9.98820e-01
1.192415234e+00,9.11414e-01,9.99999e-01,9.16928e-01,9.94865e-01,9.99116e-01
1.198377311e+00,9.23925e-01,9.99999e-01,9.29377e-01,9.94966e-01,9.99161e-01
1.204369197e+00,9.27940e-01,9.99999e-01,9.33222e-01,9.95065e-01,9.99269e-01
1.210391043e+00,9.31047e-01,9.99999e-01,9.36001e-01,9.95163e-01,9.99540e-01
1.216442998e+00,9.40693e-01,9.99999e-01,9.45440e-01,9.95258e-01,9.99718e-01
1.222525213e+00,9.52564e-01,9.99999e-01,9.57179e-01,9.95351e-01,9.99824e-01
1.228637839e+00,9.65540e-01,9.99999e-01,9.70038e-01,9.95443e-01,9.99918e-01
1.234781029e+00,9.73313e-01,9.99999e-01,9.77703e-01,9.95533e-01,9.99976e-01
1.240954934e+00,9.81503e-01,9.99999e-01,9.85826e-01,9.95621e-01,9.99992e-01
1.247159708e+00,9.84709e-01,9.99999e-01,9.88957e-01,9.95707e-01,9.99995e-01
1.253395507e+00,9.86000e-01,9.99999e-01,9.90172e-01,9.95792e-01,9.99994e-01
1.259662485e+00,9.86540e-01,9.99999e-01,9.90634e-01,9.95875e-01,9.99990e-01
1.265960797e+00,9.81122e-01,9.99999e-01,9.85119e-01,9.95956e-01,9.99985e-01
1.272290601e+00,9.72728e-01,9.99999e-01,9.76623e-01,9.96036e-01,9.99973e-01
1.278652054e+00,9.50380e-01,9.99999e-01,9.54130e-01,9.96114e-01,9.99954e-01
1.285045314e+00,9.14789e-01,9.99999e-01,9.18364e-01,9.96190e-01,9.99914e-01
1.291470541e+00,8.58833e-01,9.99999e-01,8.62179e-01,9.96265e-01,9.99850e-01
1.297927893e+00,8.07046e-01,9.99999e-01,8.10236e-01,9.96339e-01,9.99722e-01
1.304417533e+00,7.78185e-01,9.99999e-01,7.81446e-01,9.96411e-01,9.99411e-01
1.310939621e+00,7.28758e-01,9.99999e-01,7.32213e-01,9.96482e-01,9.98793e-01
1.317494319e+00,7.32768e-01,9.99999e-01,7.36947e-01,9.96551e-01,9.97769e-01
1.324081790e+00,6.33596e-01,9.99999e-01,6.38273e-01,9.96619e-01,9.96037e-01
1.330702199e+00,2.16462e-01,9.99999e-01,2.18648e-01,9.96686e-01,9.93290e-01
1.337355710e+00,1.11637e-02,9.99999e-01,1.13364e-02,9.96751e-01,9.87969e-01
1.344042489e+00,2.68904e-05,9.99999e-01,2.79779e-05,9.96815e-01,9.64200e-01
1.350762701e+00,1.01140e-09,9.99999e-01,1.14944e-09,9.96878e-01,8.82659e-01
1.357516515e+00,4.14536e-14,9.99999e-01,5.99760e-14,9.96940e-01,6.93289e-01
1.364304097e+00,3.84040e-09,9.99999e-01,7.31964e-09,9.97000e-01,5.26248e-01
1.371125618e+00,3.52431e-06,9.99999e-01,6.47461e-06,9.97059e-01,5.45931e-01
1.377981246e+00,1.22005e-05,9.99999e-01,2.05568e-05,9.97117e-01,5.95219e-01
1.384871152e+00,5.35128e-08,9.99999e-01,8.70256e-08,9.97174e-01,6.16650e-01
1.391795508e+00,4.65899e-09,9.99999e-01,7.40685e-09,9.97230e-01,6.30756e-01
1.398754485e+00,2.54117e-07,9.99999e-01,3.72853e-07,9.97284e-01,6.83404e-01
1.405748258e+00,2.86439e-07,9.99999e-01,3.58786e-07,9.97338e-01,8.00485e-01
1.412776999e+00,3.44188e-07,9.99999e-01,3.81993e-07,9.97390e-01,9.03387e-01
1.419840884e+00,7.53393e-07,9.99999e-01,7.89735e-07,9.97442e-01,9.56427e-01
1.426940089e+00,3.28246e-05,9.99999e-01,3.40400e-05,9.97492e-01,9.66720e-01
1.434074789e+00,2.50133e-04,9.99999e-01,2.60967e-04,9.97542e-01,9.60847e-01
1.441245163e+00,1.15060e-03,9.99999e-01,1.20437e-03,9.97590e-01,9.57661e-01
1.448451389e+00,9.25238e-03,9.99999e-01,9.63231e-03,9.97638e-01,9.62829e-01
1.455693646e+00,4.09331e-02,9.99999e-01,4.22553e-02,9.97684e-01,9.70956e-01
1.462972114e+00,5.69920e-02,9.99999e-01,5.87500e-02,9.97730e-01,9.72281e-01
1.470286975e+00,3.68211e-02,9.99999e-01,3.79370e-02,9.97775e-01,9.72747e-01
