#,Wave/freq,Total,N2,H2O,Rayleigh,CIA
4.000000000e-01,8.93008e-01,9.99999e-01,9.99986e-01,8.93019e-01,9.99999e-01
4.020000000e-01,8.95012e-01,9.99999e-01,9.99991e-01,8.95019e-01,9.99999e-01
4.040100000e-01,8.96979e-01,9.99999e-01,9.99996e-01,8.96982e-01,9.99999e-01
4.060300500e-01,8.98910e-01,9.99999e-01,9.99998e-01,8.98911e-01,9.99999e-01
4.080602003e-01,9.00805e-01,9.99999e-01,9.99999e-01,9.00805e-01,9.99999e-01
4.101005013e-01,9.02666e-01,9.99999e-01,9.99999e-01,9.02666e-01,9.99999e-01
4.121510038e-01,9.04493e-01,9.99999e-01,9.99999e-01,9.04493e-01,9.99999e-01
4.142117588e-01,9.06285e-01,9.99999e-01,9.99996e-01,9.06288e-01,9.99999e-01
4.162828176e-01,9.08037e-01,9.99999e-01,9.99983e-01,9.08052e-01,9.99999e-01
4.183642317e-01,9.09775e-01,9.99999e-01,9.99990e-01,9.09783e-01,9.99999e-01
4.204560528e-01,9.11479e-01,9.99999e-01,9.99993e-01,9.11484e-01,9.99999e-01
4.225583331e-01,9.13152e-01,9.99999e-01,9.99997e-01,9.13154e-01,9.99999e-01
4.246711247e-01,9.14793e-01,9.99999e-01,9.99997e-01,9.14794e-01,9.99999e-01
4.267944804e-01,9.16402e-01,9.99999e-01,9.99996e-01,9.16405e-01,9.99999e-01
4.289284528e-01,9.17984e-01,9.99999e-01,9.99997e-01,9.17986e-01,9.99999e-01
4.310730950e-01,9.19538e-01,9.99999e-01,9.99998e-01,9.19539e-01,9.99999e-01
4.332284605e-01,9.21064e-01,9.99999e-01,9.99999e-01,9.21064e-01,9.99999e-01
4.353946028e-01,9.22561e-01,9.99999e-01,9.99999e-01,9.22561e-01,9.99999e-01
4.375715758e-01,9.24030e-01,9.99999e-01,9.99997e-01,9.24031e-01,9.99999e-01
4.397594337e-01,9.25462e-01,9.99999e-01,9.99985e-01,9.25474e-01,9.99999e-01
4.419582309e-01,9.26827e-01,9.99999e-01,9.99929e-01,9.26891e-01,9.99999e-01
4.441680220e-01,9.28231e-01,9.99999e-01,9.99944e-01,9.28282e-01,9.99999e-01
4.463888621e-01,9.29594e-01,9.99999e-01,9.99942e-01,9.29648e-01,9.99999e-01
4.486208064e-01,9.30955e-01,9.99999e-01,9.99963e-01,9.30988e-01,9.99999e-01
4.508639105e-01,9.32289e-01,9.99999e-01,9.99982e-01,9.32304e-01,9.99999e-01
4.531182300e-01,9.33590e-01,9.99999e-01,9.99992e-01,9.33596e-01,9.99999e-01
4.553838212e-01,9.34860e-01,9.99999e-01,9.99995e-01,9.34864e-01,9.99999e-01
4.576607403e-01,9.36106e-01,9.99999e-01,9.99997e-01,9.36108e-01,9.99999e-01
4.599490440e-01,9.37329e-01,9.99999e-01,9.99998e-01,9.37330e-01,9.99999e-01
4.622487892e-01,9.38529e-01,9.99999e-01,9.99999e-01,9.38529e-01,9.99999e-01
4.645600332e-01,9.39705e-01,9.99999e-01,9.99998e-01,9.39706e-01,9.99999e-01
4.668828333e-01,9.40845e-01,9.99999e-01,9.99982e-01,9.40861e-01,9.99999e-01
4.692172475e-01,9.41960e-01,9.99999e-01,9.99963e-01,9.41994e-01,9.99999e-01
4.715633337e-01,9.43085e-01,9.99999e-01,9.99976e-01,9.43107e-01,9.99999e-01
4.739211504e-01,9.44177e-01,9.99999e-01,9.99976e-01,9.44199e-01,9.99999e-01
4.762907561e-01,9.45259e-01,9.99999e-01,9.99987e-01,9.45270e-01,9.99999e-01
4.786722099e-01,9.46317e-01,9.99999e-01,9.99994e-01,9.46322e-01,9.99999e-01
4.810655710e-01,9.47352e-01,9.99999e-01,9.99998e-01,9.47353e-01,9.99999e-01
4.834708988e-01,9.48353e-01,9.99999e-01,9.99986e-01,9.48366e-01,9.99999e-01
4.858882533e-01,9.49335e-01,9.99999e-01,9.99974e-01,9.49360e-01,9.99999e-01
4.883176946e-01,9.50314e-01,9.99999e-01,9.99978e-01,9.50335e-01,9.99999e-01
4.907592831e-01,9.51273e-01,9.99999e-01,9.99980e-01,9.51291e-01,9.99999e-01
4.932130795e-01,9.52217e-01,9.99999e-01,9.99985e-01,9.52230e-01,9.99999e-01
4.956791449e-01,9.53144e-01,9.99999e-01,9.99992e-01,9.53151e-01,9.99999e-01
4.981575406e-01,9.54021e-01,9.99999e-01,9.99963e-01,9.54055e-01,9.99999e-01
5.006483283e-01,9.54852e-01,9.99999e-01,9.99906e-01,9.54942e-01,9.99998e-01
5.031515699e-01,9.55354e-01,9.99999e-01,9.99525e-01,9.55812e-01,9.99994e-01
5.056673278e-01,9.56420e-01,9.99999e-01,9.99748e-01,9.56665e-01,9.99993e-01
5.081956644e-01,9.57196e-01,9.99999e-01,9.99683e-01,9.57503e-01,9.99995e-01
5.107366428e-01,9.58119e-01,9.99999e-01,9.99785e-01,9.58324e-01,9.99998e-01
5.132903260e-01,9.59013e-01,9.99999e-01,9.99877e-01,9.59131e-01,9.99999e-01
5.158567776e-01,9.59872e-01,9.99999e-01,9.99947e-01,9.59921e-01,9.99999e-01
5.184360615e-01,9.60677e-01,9.99999e-01,9.99978e-01,9.60697e-01,9.99999e-01
5.210282418e-01,9.61451e-01,9.99999e-01,9.99991e-01,9.61458e-01,9.99999e-01
5.236333830e-01,9.62175e-01,9.99999e-01,9.99968e-01,9.62205e-01,9.99999e-01
5.262515499e-01,9.62919e-01,9.99999e-01,9.99980e-01,9.62938e-01,9.99999e-01
5.288828077e-01,9.63639e-01,9.99999e-01,9.99981e-01,9.63656e-01,9.99999e-01
5.315272217e-01,9.64346e-01,9.99999e-01,9.99983e-01,9.64361e-01,9.99999e-01
5.341848578e-01,9.65043e-01,9.99999e-01,9.99989e-01,9.65053e-01,9.99999e-01
5.368557821e-01,9.65696e-01,9.99999e-01,9.99963e-01,9.65731e-01,9.99999e-01
5.395400610e-01,9.66271e-01,9.99999e-01,9.99870e-01,9.66396e-01,9.99998e-01
5.422377613e-01,9.66883e-01,9.99999e-01,9.99831e-01,9.67049e-01,9.99996e-01
5.449489501e-01,9.67536e-01,9.99999e-01,9.99843e-01,9.67689e-01,9.99996e-01
5.476736949e-01,9.68181e-01,9.99999e-01,9.99860e-01,9.68317e-01,9.99997e-01
5.504120634e-01,9.68835e-01,9.99999e-01,9.99898e-01,9.68933e-01,9.99999e-01
5.531641237e-01,9.69488e-01,9.99999e-01,9.99948e-01,9.69537e-01,9.99999e-01
5.559299443e-01,9.70106e-01,9.99999e-01,9.99975e-01,9.70130e-01,9.99999e-01
5.587095940e-01,9.70696e-01,9.99999e-01,9.99984e-01,9.70711e-01,9.99999e-01
5.615031420e-01,9.71265e-01,9.99999e-01,9.99982e-01,9.71281e-01,9.99999e-01
5.643106577e-01,9.71822e-01,9.99999e-01,9.99980e-01,9.71841e-01,9.99999e-01
5.671322110e-01,9.72162e-01,9.99999e-01,9.99768e-01,9.72389e-01,9.99997e-01
5.699678720e-01,9.72676e-01,9.99999e-01,9.99748e-01,9.72927e-01,9.99993e-01
5.728177114e-01,9.73197e-01,9.99999e-01,9.99740e-01,9.73454e-01,9.99994e-01
5.756818000e-01,9.73736e-01,9.99999e-01,9.99761e-01,9.73972e-01,9.99996e-01
5.785602090e-01,9.74276e-01,9.99999e-01,9.99791e-01,9.74479e-01,9.99998e-01
5.814530100e-01,9.74773e-01,9.99999e-01,9.99790e-01,9.74977e-01,9.99999e-01
5.843602750e-01,9.75223e-01,9.99999e-01,9.99752e-01,9.75465e-01,9.99998e-01
5.872820764e-01,9.73846e-01,9.99999e-01,9.97864e-01,9.75944e-01,9.99984e-01
5.902184868e-01,9.73830e-01,9.99999e-01,9.97395e-01,9.76413e-01,9.99958e-01
5.931695792e-01,9.75041e-01,9.99999e-01,9.98163e-01,9.76874e-01,9.99959e-01
5.961354271e-01,9.75332e-01,9.99999e-01,9.97983e-01,9.77325e-01,9.99975e-01
5.991161043e-01,9.76323e-01,9.99999e-01,9.98528e-01,9.77768e-01,9.99992e-01
6.021116848e-01,9.77384e-01,9.99999e-01,9.99163e-01,9.78203e-01,9.99998e-01
6.051222432e-01,9.78214e-01,9.99999e-01,9.99576e-01,9.78628e-01,9.99999e-01
6.081478544e-01,9.78868e-01,9.99999e-01,9.99817e-01,9.79046e-01,9.99999e-01
6.111885937e-01,9.79380e-01,9.99999e-01,9.99922e-01,9.79456e-01,9.99999e-01
6.142445367e-01,9.79824e-01,9.99999e-01,9.99965e-01,9.79857e-01,9.99999e-01
6.173157594e-01,9.80233e-01,9.99999e-01,9.99980e-01,9.80251e-01,9.99999e-01
6.204023382e-01,9.80622e-01,9.99999e-01,9.99983e-01,9.80638e-01,9.99999e-01
6.235043498e-01,9.80948e-01,9.99999e-01,9.99929e-01,9.81016e-01,9.99999e-01
6.266218716e-01,9.81018e-01,9.99999e-01,9.99625e-01,9.81388e-01,9.99996e-01
6.297549810e-01,9.81612e-01,9.99999e-01,9.99862e-01,9.81752e-01,9.99994e-01
6.329037559e-01,9.81838e-01,9.99999e-01,9.99727e-01,9.82109e-01,9.99995e-01
6.360682746e-01,9.82231e-01,9.99999e-01,9.99769e-01,9.82459e-01,9.99997e-01
6.392486160e-01,9.82508e-01,9.99999e-01,9.99700e-01,9.82803e-01,9.99998e-01
6.424448591e-01,9.82747e-01,9.99999e-01,9.99601e-01,9.83140e-01,9.99997e-01
6.456570834e-01,9.81643e-01,9.99999e-01,9.98152e-01,9.83470e-01,9.99989e-01
6.488853688e-01,9.82192e-01,9.99999e-01,9.98400e-01,9.83794e-01,9.99970e-01
6.521297956e-01,9.82719e-01,9.99999e-01,9.98608e-01,9.84111e-01,9.99975e-01
6.553904446e-01,9.83053e-01,9.99999e-01,9.98626e-01,9.84423e-01,9.99981e-01
6.586673968e-01,9.83554e-01,9.99999e-01,9.98813e-01,9.84728e-01,9.99993e-01
6.619607338e-01,9.84351e-01,9.99999e-01,9.99314e-01,9.85027e-01,9.99998e-01
6.652705375e-01,9.84929e-01,9.99999e-01,9.99601e-01,9.85321e-01,9.99998e-01
6.685968902e-01,9.85427e-01,9.99999e-01,9.99814e-01,9.85609e-01,9.99999e-01
6.719398746e-01,9.85807e-01,9.99999e-01,9.99913e-01,9.85891e-01,9.99999e-01
6.752995740e-01,9.86122e-01,9.99999e-01,9.99953e-01,9.86168e-01,9.99999e-01
6.786760719e-01,9.86374e-01,9.99999e-01,9.99933e-01,9.86439e-01,9.99999e-01
6.820694522e-01,9.86592e-01,9.99999e-01,9.99885e-01,9.86705e-01,9.99998e-01
6.854797995e-01,9.86820e-01,9.99999e-01,9.99852e-01,9.86966e-01,9.99998e-01
6.889071985e-01,9.86872e-01,9.99999e-01,9.99648e-01,9.87222e-01,9.99996e-01
6.923517345e-01,9.81733e-01,9.99999e-01,9.94214e-01,9.87473e-01,9.99971e-01
6.958134932e-01,9.84634e-01,9.99999e-01,9.96939e-01,9.87718e-01,9.99936e-01
6.992925606e-01,9.85079e-01,9.99999e-01,9.97139e-01,9.87960e-01,9.99944e-01
7.027890234e-01,9.84643e-01,9.99999e-01,9.96446e-01,9.88196e-01,9.99957e-01
7.063029686e-01,9.85456e-01,9.99999e-01,9.97014e-01,9.88428e-01,9.99978e-01
7.098344834e-01,9.85811e-01,9.99999e-01,9.97135e-01,9.88655e-01,9.99987e-01
7.133836558e-01,9.85116e-01,9.99999e-01,9.96220e-01,9.88878e-01,9.99974e-01
7.169505741e-01,9.58953e-01,9.99999e-01,9.69713e-01,9.89096e-01,9.99804e-01
7.205353270e-01,9.74003e-01,9.99999e-01,9.84866e-01,9.89310e-01,9.99654e-01
7.241380036e-01,9.70488e-01,9.99999e-01,9.81057e-01,9.89521e-01,9.99701e-01
7.277586936e-01,9.72544e-01,9.99999e-01,9.82877e-01,9.89726e-01,9.99756e-01
7.313974871e-01,9.71728e-01,9.99999e-01,9.81725e-01,9.89928e-01,9.99885e-01
7.350544745e-01,9.80188e-01,9.99999e-01,9.90000e-01,9.90126e-01,9.99959e-01
7.387297469e-01,9.83008e-01,9.99999e-01,9.92633e-01,9.90320e-01,9.99981e-01
7.424233956e-01,9.86926e-01,9.99999e-01,9.96384e-01,9.90511e-01,9.99996e-01
7.461355126e-01,9.88528e-01,9.99999e-01,9.97810e-01,9.90697e-01,9.99998e-01
7.498661902e-01,9.89868e-01,9.99999e-01,9.98978e-01,9.90880e-01,9.99999e-01
7.536155211e-01,9.90564e-01,9.99999e-01,9.99499e-01,9.91059e-01,9.99999e-01
7.573835987e-01,9.90980e-01,9.99999e-01,9.99742e-01,9.91235e-01,9.99999e-01
7.611705167e-01,9.91249e-01,9.99999e-01,9.99839e-01,9.91407e-01,9.99999e-01
7.649763693e-01,9.91477e-01,9.99999e-01,9.99899e-01,9.91576e-01,9.99999e-01
7.688012511e-01,9.91673e-01,9.99999e-01,9.99929e-01,9.91742e-01,9.99999e-01
7.726452574e-01,9.91848e-01,9.99999e-01,9.99942e-01,9.91905e-01,9.99999e-01
7.765084837e-01,9.91984e-01,9.99999e-01,9.99918e-01,9.92064e-01,9.99999e-01
7.803910261e-01,9.91873e-01,9.99999e-01,9.99650e-01,9.92220e-01,9.99999e-01
7.842929812e-01,9.91162e-01,9.99999e-01,9.98781e-01,9.92373e-01,9.99997e-01
7.882144461e-01,9.90000e-01,9.99999e-01,9.97472e-01,9.92523e-01,9.99984e-01
7.921555184e-01,9.91259e-01,9.99999e-01,9.98607e-01,9.92670e-01,9.99969e-01
7.961162960e-01,9.90366e-01,9.99999e-01,9.97561e-01,9.92814e-01,9.99970e-01
8.000968774e-01,9.90118e-01,9.99999e-01,9.97171e-01,9.92956e-01,9.99969e-01
8.040973618e-01,9.90264e-01,9.99999e-01,9.97173e-01,9.93095e-01,9.99975e-01
8.081178486e-01,9.86918e-01,9.99999e-01,9.93666e-01,9.93230e-01,9.99976e-01
8.121584379e-01,9.67204e-01,9.99999e-01,9.73752e-01,9.93364e-01,9.99910e-01
8.162192301e-01,9.62023e-01,9.99999e-01,9.68646e-01,9.93494e-01,9.99664e-01
8.203003262e-01,9.77750e-01,9.99999e-01,9.84411e-01,9.93622e-01,9.99606e-01
8.244018279e-01,9.71377e-01,9.99999e-01,9.77793e-01,9.93748e-01,9.99687e-01
8.285238370e-01,9.75042e-01,9.99999e-01,9.81294e-01,9.93871e-01,9.99754e-01
8.326664562e-01,9.75030e-01,9.99999e-01,9.81022e-01,9.93992e-01,9.99898e-01
8.368297885e-01,9.80580e-01,9.99999e-01,9.86411e-01,9.94110e-01,9.99976e-01
8.410139374e-01,9.86167e-01,9.99999e-01,9.91907e-01,9.94226e-01,9.99985e-01
8.452190071e-01,9.90377e-01,9.99999e-01,9.96022e-01,9.94340e-01,9.99991e-01
8.494451021e-01,9.92156e-01,9.99999e-01,9.97698e-01,9.94451e-01,9.99993e-01
8.536923276e-01,9.93199e-01,9.99999e-01,9.98634e-01,9.94560e-01,9.99995e-01
8.579607893e-01,9.93833e-01,9.99999e-01,9.99161e-01,9.94668e-01,9.99998e-01
8.622505932e-01,9.94242e-01,9.99999e-01,9.99465e-01,9.94773e-01,9.99999e-01
8.665618462e-01,9.94548e-01,9.99999e-01,9.99670e-01,9.94876e-01,9.99999e-01
8.708946554e-01,9.94602e-01,9.99999e-01,9.99623e-01,9.94977e-01,9.99999e-01
8.752491287e-01,9.94574e-01,9.99999e-01,9.99495e-01,9.95076e-01,9.99998e-01
8.796253743e-01,9.94479e-01,9.99999e-01,9.99303e-01,9.95173e-01,9.99997e-01
8.840235012e-01,9.94471e-01,9.99999e-01,9.99204e-01,9.95268e-01,9.99994e-01
8.884436187e-01,9.92497e-01,9.99999e-01,9.97135e-01,9.95361e-01,9.99985e-01
8.928858368e-01,9.65353e-01,9.99999e-01,9.69840e-01,9.95452e-01,9.99919e-01
8.973502660e-01,9.42193e-01,9.99999e-01,9.46797e-01,9.95542e-01,9.99591e-01
9.018370173e-01,9.67449e-01,9.99999e-01,9.72318e-01,9.95630e-01,9.99358e-01
9.063462024e-01,9.71197e-01,9.99999e-01,9.75924e-01,9.95716e-01,9.99436e-01
9.108779334e-01,9.57939e-01,9.99999e-01,9.62542e-01,9.95800e-01,9.99414e-01
9.154323231e-01,9.53119e-01,9.99999e-01,9.57522e-01,9.95883e-01,9.99515e-01
9.200094847e-01,9.62327e-01,9.99999e-01,9.66487e-01,9.95964e-01,9.99728e-01
9.246095321e-01,9.44466e-01,9.99999e-01,9.48512e-01,9.96044e-01,9.99687e-01
9.292325798e-01,6.94456e-01,9.99999e-01,6.98008e-01,9.96122e-01,9.98783e-01
9.338787427e-01,6.20496e-01,9.99999e-01,6.26005e-01,9.96198e-01,9.94980e-01
9.385481364e-01,8.20067e-01,9.99999e-01,8.28075e-01,9.96273e-01,9.94032e-01
9.432408771e-01,7.62208e-01,9.99999e-01,7.68962e-01,9.96347e-01,9.94849e-01
9.479570815e-01,6.89156e-01,9.99999e-01,6.94545e-01,9.96419e-01,9.95806e-01
9.526968669e-01,7.56543e-01,9.99999e-01,7.61156e-01,9.96489e-01,9.97439e-01
9.574603512e-01,7.77074e-01,9.99999e-01,7.80773e-01,9.96558e-01,9.98698e-01
9.622476530e-01,8.14246e-01,9.99999e-01,8.17738e-01,9.96626e-01,9.99099e-01
9.670588912e-01,8.87304e-01,9.99999e-01,8.90796e-01,9.96693e-01,9.99384e-01
9.718941857e-01,9.27162e-01,9.99999e-01,9.30599e-01,9.96758e-01,9.99546e-01
9.767536566e-01,9.38759e-01,9.99999e-01,9.42077e-01,9.96822e-01,9.99653e-01
9.816374249e-01,9.53608e-01,9.99999e-01,9.56702e-01,9.96885e-01,9.99879e-01
9.865456120e-01,9.69743e-01,9.99999e-01,9.72737e-01,9.96946e-01,9.99974e-01
9.914783401e-01,9.80129e-01,9.99999e-01,9.83078e-01,9.97006e-01,9.99992e-01
9.964357318e-01,9.87838e-01,9.99999e-01,9.90749e-01,9.97065e-01,9.99995e-01
1.001417910e+00,9.91579e-01,9.99999e-01,9.94446e-01,9.97123e-01,9.99993e-01
1.006425000e+00,9.94017e-01,9.99999e-01,9.96836e-01,9.97180e-01,9.99990e-01
1.011457125e+00,9.95264e-01,9.99999e-01,9.98031e-01,9.97235e-01,9.99991e-01
1.016514411e+00,9.95953e-01,9.99999e-01,9.98664e-01,9.97290e-01,9.99993e-01
1.021596983e+00,9.96277e-01,9.99999e-01,9.98936e-01,9.97343e-01,9.99993e-01
1.026704968e+00,9.96565e-01,9.99999e-01,9.99170e-01,9.97396e-01,9.99995e-01
1.031838492e+00,9.96844e-01,9.99999e-01,9.99396e-01,9.97447e-01,9.99998e-01
1.036997685e+00,9.97140e-01,9.99999e-01,9.99641e-01,9.97497e-01,9.99999e-01
1.042182673e+00,9.97122e-01,9.99999e-01,9.99574e-01,9.97547e-01,9.99999e-01
1.047393587e+00,9.97032e-01,9.99999e-01,9.99434e-01,9.97595e-01,9.99999e-01
1.052630555e+00,9.96870e-01,9.99999e-01,9.99225e-01,9.97643e-01,9.99999e-01
1.057893707e+00,9.96400e-01,9.99999e-01,9.98708e-01,9.97689e-01,9.99999e-01
1.063183176e+00,9.95612e-01,9.99999e-01,9.97872e-01,9.97735e-01,9.99998e-01
1.068499092e+00,9.94221e-01,9.99999e-01,9.96435e-01,9.97779e-01,9.99997e-01
1.073841587e+00,9.93662e-01,9.99999e-01,9.95834e-01,9.97823e-01,9.99994e-01
1.079210795e+00,9.92515e-01,9.99999e-01,9.94651e-01,9.97866e-01,9.99985e-01
1.084606849e+00,9.89814e-01,9.99999e-01,9.91922e-01,9.97908e-01,9.99965e-01
1.090029883e+00,9.86364e-01,9.99999e-01,9.88460e-01,9.97949e-01,9.99928e-01
1.095480033e+00,9.66742e-01,9.99999e-01,9.68813e-01,9.97990e-01,9.99870e-01
1.100957433e+00,9.20498e-01,9.99999e-01,9.22533e-01,9.98029e-01,9.99762e-01
1.106462220e+00,8.12336e-01,9.99999e-01,8.14235e-01,9.98068e-01,9.99598e-01
1.111994531e+00,6.45102e-01,9.99999e-01,6.47014e-01,9.98106e-01,9.98934e-01
1.117554504e+00,4.90127e-01,9.99999e-01,4.92931e-01,9.98144e-01,9.96159e-01
1.123142276e+00,5.83993e-01,9.99999e-01,5.90419e-01,9.98180e-01,9.90917e-01
1.128757988e+00,7.07625e-01,9.99999e-01,7.16411e-01,9.98216e-01,9.89500e-01
1.134401778e+00,4.57343e-01,9.99999e-01,4.62274e-01,9.98251e-01,9.91065e-01
1.140073787e+00,8.13631e-01,9.99999e-01,8.20892e-01,9.98286e-01,9.92854e-01
1.145774156e+00,6.54631e-01,9.99999e-01,6.60051e-01,9.98320e-01,9.93457e-01
1.151503026e+00,6.25417e-01,9.99999e-01,6.28743e-01,9.98353e-01,9.96349e-01
1.157260541e+00,6.79632e-01,9.99999e-01,6.81475e-01,9.98385e-01,9.98906e-01
1.163046844e+00,7.51749e-01,9.99999e-01,7.53173e-01,9.98417e-01,9.99689e-01
1.168862078e+00,8.20426e-01,9.99999e-01,8.21831e-01,9.98448e-01,9.99839e-01
1.174706389e+00,8.84470e-01,9.99999e-01,8.86004e-01,9.98479e-01,9.99787e-01
1.180579921e+00,9.27286e-01,9.99999e-01,9.28967e-01,9.98509e-01,9.99679e-01
1.186482820e+00,9.57576e-01,9.99999e-01,9.59292e-01,9.98538e-01,9.99671e-01
1.192415234e+00,9.74433e-01,9.99999e-01,9.76070e-01,9.98567e-01,9.99753e-01
1.198377311e+00,9.78218e-01,9.99999e-01,9.79821e-01,9.98596e-01,9.99767e-01
1.204369197e+00,9.79316e-01,9.99999e-01,9.80871e-01,9.98623e-01,9.99789e-01
1.210391043e+00,9.80253e-01,9.99999e-01,9.81703e-01,9.98650e-01,9.99871e-01
1.216442998e+00,9.83010e-01,9.99999e-01,9.84388e-01,9.98677e-01,9.99921e-01
1.222525213e+00,9.86510e-01,9.99999e-01,9.87838e-01,9.98703e-01,9.99950e-01
1.228637839e+00,9.90264e-01,9.99999e-01,9.91546e-01,9.98729e-01,9.99976e-01
1.234781029e+00,9.92466e-01,9.99999e-01,9.93710e-01,9.98754e-01,9.99993e-01
1.240954934e+00,9.94804e-01,9.99999e-01,9.96022e-01,9.98778e-01,9.99997e-01
1.247159708e+00,9.95705e-01,9.99999e-01,9.96899e-01,9.98802e-01,9.99998e-01
1.253395507e+00,9.96079e-01,9.99999e-01,9.97250e-01,9.98826e-01,9.99997e-01
1.259662485e+00,9.96264e-01,9.99999e-01,9.97413e-01,9.98849e-01,9.99997e-01
1.265960797e+00,9.94717e-01,9.99999e-01,9.95843e-01,9.98872e-01,9.99995e-01
1.272290601e+00,9.92777e-01,9.99999e-01,9.93882e-01,9.98894e-01,9.99992e-01
1.278652054e+00,9.86013e-01,9.99999e-01,9.87095e-01,9.98916e-01,9.99986e-01
1.285045314e+00,9.78707e-01,9.99999e-01,9.79770e-01,9.98937e-01,9.99975e-01
1.291470541e+00,9.58631e-01,9.99999e-01,9.59670e-01,9.98958e-01,9.99958e-01
1.297927893e+00,9.46561e-01,9.99999e-01,9.47601e-01,9.98979e-01,9.99922e-01
1.304417533e+00,9.31796e-01,9.99999e-01,9.32881e-01,9.98999e-01,9.99835e-01
1.310939621e+00,9.22577e-01,9.99999e-01,9.23792e-01,9.99019e-01,9.99663e-01
1.317494319e+00,9.15712e-01,9.99999e-01,9.17162e-01,9.99038e-01,9.99378e-01
1.324081790e+00,8.76913e-01,9.99999e-01,8.78631e-01,9.99057e-01,9.98985e-01
1.330702199e+00,5.84744e-01,9.99999e-01,5.86308e-01,9.99076e-01,9.98252e-01
1.337355710e+00,2.58718e-01,9.99999e-01,2.59826e-01,9.99094e-01,9.96637e-01
1.344042489e+00,2.96163e-02,9.99999e-01,2.99448e-02,9.99112e-01,9.89906e-01
1.350762701e+00,8.70662e-04,9.99999e-01,9.02217e-04,9.99129e-01,9.65864e-01
1.357516515e+00,6.78718e-05,9.99999e-01,7.52189e-05,9.99146e-01,9.03093e-01
1.364304097e+00,1.48819e-03,9.99999e-01,1.78075e-03,9.99163e-01,8.36407e-01
1.371125618e+00,1.18338e-02,9.99999e-01,1.40159e-02,9.99180e-01,8.44998e-01
1.377981246e+00,2.35813e-02,9.99999e-01,2.72657e-02,9.99196e-01,8.65568e-01
1.384871152e+00,1.42508e-03,9.99999e-01,1.63393e-03,9.99212e-01,8.72861e-01
1.391795508e+00,2.18391e-03,9.99999e-01,2.48583e-03,9.99227e-01,8.79222e-01
1.398754485e+00,5.32421e-03,9.99999e-01,5.92361e-03,9.99243e-01,8.99491e-01
1.405748258e+00,5.27295e-03,9.99999e-01,5.61395e-03,9.99258e-01,9.39954e-01
1.412776999e+00,5.88705e-03,9.99999e-01,6.06027e-03,9.99272e-01,9.72123e-01
1.419840884e+00,8.38366e-03,9.99999e-01,8.49429e-03,9.99287e-01,9.87679e-01
1.426940089e+00,2.33619e-02,9.99999e-01,2.35994e-02,9.99301e-01,9.90625e-01
1.434074789e+00,5.63919e-02,9.99999e-01,5.70611e-02,9.99314e-01,9.88947e-01
1.441245163e+00,1.15227e-01,9.99999e-01,1.16700e-01,9.99328e-01,9.88034e-01
1.448451389e+00,2.12346e-01,9.99999e-01,2.14737e-01,9.99341e-01,9.89514e-01
1.455693646e+00,3.62846e-01,9.99999e-01,3.66070e-01,9.99354e-01,9.91831e-01
1.462972114e+00,4.20886e-01,9.99999e-01,4.24459e-01,9.99367e-01,9.92208e-01
1.470286975e+00,3.63869e-01,9.99999e-01,3.66905e-01,9.99379e-01,9.92340e-01
