#,Wave/freq,Total,N2,H2O,Rayleigh,CIA
4.000000000e-01,7.52860e-01,9.99999e-01,9.99967e-01,7.52884e-01,9.99999e-01
4.020000000e-01,7.57106e-01,9.99999e-01,9.99979e-01,7.57121e-01,9.99999e-01
4.040100000e-01,7.61287e-01,9.99999e-01,9.99991e-01,7.61293e-01,9.99999e-01
4.060300500e-01,7.65404e-01,9.99999e-01,9.99997e-01,7.65406e-01,9.99999e-01
4.080602003e-01,7.69458e-01,9.99999e-01,9.99998e-01,7.69458e-01,9.99999e-01
4.101005013e-01,7.73452e-01,9.99999e-01,9.99999e-01,7.73452e-01,9.99999e-01
4.121510038e-01,7.77385e-01,9.99999e-01,9.99998e-01,7.77386e-01,9.99999e-01
4.142117588e-01,7.81256e-01,9.99999e-01,9.99990e-01,7.81263e-01,9.99999e-01
4.162828176e-01,7.85050e-01,9.99999e-01,9.99959e-01,7.85081e-01,9.99999e-01
4.183642317e-01,7.88824e-01,9.99999e-01,9.99975e-01,7.88842e-01,9.99999e-01
4.204560528e-01,7.92535e-01,9.99999e-01,9.99985e-01,7.92547e-01,9.99999e-01
4.225583331e-01,7.96191e-01,9.99999e-01,9.99994e-01,7.96195e-01,9.99999e-01
4.246711247e-01,7.99784e-01,9.99999e-01,9.99995e-01,7.99787e-01,9.99999e-01
4.267944804e-01,8.03319e-01,9.99999e-01,9.99993e-01,8.03325e-01,9.99999e-01
4.289284528e-01,8.06803e-01,9.99999e-01,9.99994e-01,8.06807e-01,9.99999e-01
4.310730950e-01,8.10234e-01,9.99999e-01,9.99997e-01,8.10235e-01,9.99999e-01
4.332284605e-01,8.13610e-01,9.99999e-01,9.99998e-01,8.13610e-01,9.99999e-01
4.353946028e-01,8.16932e-01,9.99999e-01,9.99999e-01,8.16932e-01,9.99999e-01
4.375715758e-01,8.20198e-01,9.99999e-01,9.99995e-01,8.20201e-01,9.99999e-01
4.397594337e-01,8.23390e-01,9.99999e-01,9.99964e-01,8.23419e-01,9.99999e-01
4.419582309e-01,8.26436e-01,9.99999e-01,9.99819e-01,8.26585e-01,9.99999e-01
4.441680220e-01,8.29586e-01,9.99999e-01,9.99862e-01,8.29700e-01,9.99999e-01
4.463888621e-01,8.32646e-01,9.99999e-01,9.99855e-01,8.32765e-01,9.99999e-01
4.486208064e-01,8.35707e-01,9.99999e-01,9.99910e-01,8.35781e-01,9.99999e-01
4.508639105e-01,8.38713e-01,9.99999e-01,9.99957e-01,8.38748e-01,9.99999e-01
4.531182300e-01,8.41652e-01,9.99999e-01,9.99983e-01,8.41666e-01,9.99999e-01
4.553838212e-01,8.44527e-01,9.99999e-01,9.99988e-01,8.44537e-01,9.99999e-01
4.576607403e-01,8.47356e-01,9.99999e-01,9.99994e-01,8.47360e-01,9.99999e-01
4.599490440e-01,8.50134e-01,9.99999e-01,9.99995e-01,8.50137e-01,9.99999e-01
4.622487892e-01,8.52867e-01,9.99999e-01,9.99998e-01,8.52867e-01,9.99999e-01
4.645600332e-01,8.55551e-01,9.99999e-01,9.99996e-01,8.55553e-01,9.99999e-01
4.668828333e-01,8.58157e-01,9.99999e-01,9.99957e-01,8.58193e-01,9.99999e-01
4.692172475e-01,8.60712e-01,9.99999e-01,9.99909e-01,8.60789e-01,9.99999e-01
4.715633337e-01,8.63291e-01,9.99999e-01,9.99940e-01,8.63342e-01,9.99999e-01
4.739211504e-01,8.65803e-01,9.99999e-01,9.99943e-01,8.65851e-01,9.99999e-01
4.762907561e-01,8.68293e-01,9.99999e-01,9.99970e-01,8.68318e-01,9.99999e-01
4.786722099e-01,8.70733e-01,9.99999e-01,9.99987e-01,8.70744e-01,9.99999e-01
4.810655710e-01,8.73124e-01,9.99999e-01,9.99995e-01,8.73127e-01,9.99999e-01
4.834708988e-01,8.75439e-01,9.99999e-01,9.99964e-01,8.75470e-01,9.99999e-01
4.858882533e-01,8.77717e-01,9.99999e-01,9.99935e-01,8.77773e-01,9.99999e-01
4.883176946e-01,8.79989e-01,9.99999e-01,9.99945e-01,8.80036e-01,9.99999e-01
4.907592831e-01,8.82218e-01,9.99999e-01,9.99951e-01,8.82261e-01,9.99999e-01
4.932130795e-01,8.84416e-01,9.99999e-01,9.99965e-01,8.84446e-01,9.99999e-01
4.956791449e-01,8.86578e-01,9.99999e-01,9.99981e-01,8.86594e-01,9.99999e-01
4.981575406e-01,8.88624e-01,9.99999e-01,9.99908e-01,8.88704e-01,9.99999e-01
5.006483283e-01,8.90565e-01,9.99999e-01,9.99762e-01,8.90778e-01,9.99997e-01
5.031515699e-01,8.91739e-01,9.99999e-01,9.98806e-01,8.92815e-01,9.99987e-01
5.056673278e-01,8.94243e-01,9.99999e-01,9.99372e-01,8.94817e-01,9.99985e-01
5.081956644e-01,8.96066e-01,9.99999e-01,9.99208e-01,8.96784e-01,9.99990e-01
5.107366428e-01,8.98234e-01,9.99999e-01,9.99465e-01,8.98715e-01,9.99998e-01
5.132903260e-01,9.00339e-01,9.99999e-01,9.99695e-01,9.00613e-01,9.99999e-01
5.158567776e-01,9.02361e-01,9.99999e-01,9.99871e-01,9.02477e-01,9.99999e-01
5.184360615e-01,9.04262e-01,9.99999e-01,9.99948e-01,9.04308e-01,9.99999e-01
5.210282418e-01,9.06089e-01,9.99999e-01,9.99980e-01,9.06107e-01,9.99999e-01
5.236333830e-01,9.07802e-01,9.99999e-01,9.99921e-01,9.07873e-01,9.99998e-01
5.262515499e-01,9.09563e-01,9.99999e-01,9.99951e-01,9.09608e-01,9.99998e-01
5.288828077e-01,9.11270e-01,9.99999e-01,9.99954e-01,9.11312e-01,9.99999e-01
5.315272217e-01,9.12949e-01,9.99999e-01,9.99960e-01,9.12985e-01,9.99999e-01
5.341848578e-01,9.14604e-01,9.99999e-01,9.99973e-01,9.14628e-01,9.99999e-01
5.368557821e-01,9.16158e-01,9.99999e-01,9.99908e-01,9.16242e-01,9.99999e-01
5.395400610e-01,9.17520e-01,9.99999e-01,9.99669e-01,9.17826e-01,9.99996e-01
5.422377613e-01,9.18989e-01,9.99999e-01,9.99579e-01,9.19382e-01,9.99991e-01
5.449489501e-01,9.20540e-01,9.99999e-01,9.99605e-01,9.20910e-01,9.99991e-01
5.476736949e-01,9.22087e-01,9.99999e-01,9.99654e-01,9.22410e-01,9.99995e-01
5.504120634e-01,9.23650e-01,9.99999e-01,9.99748e-01,9.23882e-01,9.99998e-01
5.531641237e-01,9.25211e-01,9.99999e-01,9.99873e-01,9.25328e-01,9.99999e-01
5.559299443e-01,9.26691e-01,9.99999e-01,9.99938e-01,9.26748e-01,9.99999e-01
5.587095940e-01,9.28106e-01,9.99999e-01,9.99961e-01,9.28141e-01,9.99999e-01
5.615031420e-01,9.29470e-01,9.99999e-01,9.99956e-01,9.29509e-01,9.99999e-01
5.643106577e-01,9.30806e-01,9.99999e-01,9.99950e-01,9.30852e-01,9.99999e-01
5.671322110e-01,9.31606e-01,9.99999e-01,9.99399e-01,9.32171e-01,9.99994e-01
5.699678720e-01,9.32871e-01,9.99999e-01,9.99379e-01,9.33465e-01,9.99983e-01
5.728177114e-01,9.34112e-01,9.99999e-01,9.99345e-01,9.34735e-01,9.99986e-01
5.756818000e-01,9.35415e-01,9.99999e-01,9.99401e-01,9.35982e-01,9.99991e-01
5.785602090e-01,9.36716e-01,9.99999e-01,9.99479e-01,9.37206e-01,9.99997e-01
5.814530100e-01,9.37915e-01,9.99999e-01,9.99475e-01,9.38408e-01,9.99998e-01
5.843602750e-01,9.38992e-01,9.99999e-01,9.99369e-01,9.39587e-01,9.99996e-01
5.872820764e-01,9.35616e-01,9.99999e-01,9.94585e-01,9.40744e-01,9.99961e-01
5.902184868e-01,9.35665e-01,9.99999e-01,9.93504e-01,9.41880e-01,9.99896e-01
5.931695792e-01,9.38558e-01,9.99999e-01,9.95393e-01,9.42994e-01,9.99900e-01
5.961354271e-01,9.39279e-01,9.99999e-01,9.94962e-01,9.44088e-01,9.99942e-01
5.991161043e-01,9.41676e-01,9.99999e-01,9.96328e-01,9.45162e-01,9.99981e-01
6.021116848e-01,9.44244e-01,9.99999e-01,9.97918e-01,9.46215e-01,9.99997e-01
6.051222432e-01,9.46252e-01,9.99999e-01,9.98946e-01,9.47249e-01,9.99999e-01
6.081478544e-01,9.47832e-01,9.99999e-01,9.99544e-01,9.48263e-01,9.99999e-01
6.111885937e-01,9.49077e-01,9.99999e-01,9.99807e-01,9.49259e-01,9.99999e-01
6.142445367e-01,9.50154e-01,9.99999e-01,9.99913e-01,9.50236e-01,9.99999e-01
6.173157594e-01,9.51149e-01,9.99999e-01,9.99952e-01,9.51194e-01,9.99999e-01
6.204023382e-01,9.52097e-01,9.99999e-01,9.99959e-01,9.52135e-01,9.99999e-01
6.235043498e-01,9.52886e-01,9.99999e-01,9.99819e-01,9.53058e-01,9.99999e-01
6.266218716e-01,9.53062e-01,9.99999e-01,9.99060e-01,9.53963e-01,9.99992e-01
6.297549810e-01,9.54511e-01,9.99999e-01,9.99655e-01,9.54852e-01,9.99986e-01
6.329037559e-01,9.55065e-01,9.99999e-01,9.99321e-01,9.55724e-01,9.99988e-01
6.360682746e-01,9.56018e-01,9.99999e-01,9.99419e-01,9.56579e-01,9.99993e-01
6.392486160e-01,9.56697e-01,9.99999e-01,9.99249e-01,9.57418e-01,9.99996e-01
6.424448591e-01,9.57266e-01,9.99999e-01,9.98986e-01,9.58241e-01,9.99994e-01
6.456570834e-01,9.54517e-01,9.99999e-01,9.95301e-01,9.59049e-01,9.99971e-01
6.488853688e-01,9.56508e-01,9.99999e-01,9.96598e-01,9.59841e-01,9.99927e-01
6.521297956e-01,9.57232e-01,9.99999e-01,9.96533e-01,9.60619e-01,9.99939e-01
6.553904446e-01,9.58006e-01,9.99999e-01,9.96532e-01,9.61381e-01,9.99955e-01
6.586673968e-01,9.59271e-01,9.99999e-01,9.97043e-01,9.62130e-01,9.99984e-01
6.619607338e-01,9.61274e-01,9.99999e-01,9.98352e-01,9.62863e-01,9.99996e-01
6.652705375e-01,9.62629e-01,9.99999e-01,9.99010e-01,9.63583e-01,9.99997e-01
6.685968902e-01,9.63885e-01,9.99999e-01,9.99579e-01,9.64290e-01,9.99999e-01
6.719398746e-01,9.64777e-01,9.99999e-01,9.99786e-01,9.64983e-01,9.99999e-01
6.752995740e-01,9.65554e-01,9.99999e-01,9.99887e-01,9.65662e-01,9.99999e-01
6.786760719e-01,9.66166e-01,9.99999e-01,9.99831e-01,9.66329e-01,9.99999e-01
6.820694522e-01,9.66702e-01,9.99999e-01,9.99710e-01,9.66983e-01,9.99998e-01
6.854797995e-01,9.67263e-01,9.99999e-01,9.99629e-01,9.67624e-01,9.99996e-01
6.889071985e-01,9.67366e-01,9.99999e-01,9.99090e-01,9.68254e-01,9.99991e-01
6.923517345e-01,9.54646e-01,9.99999e-01,9.85386e-01,9.68871e-01,9.99929e-01
6.958134932e-01,9.62099e-01,9.99999e-01,9.92543e-01,9.69476e-01,9.99844e-01
6.992925606e-01,9.62911e-01,9.99999e-01,9.92758e-01,9.70070e-01,9.99860e-01
7.027890234e-01,9.61951e-01,9.99999e-01,9.91140e-01,9.70652e-01,9.99893e-01
7.063029686e-01,9.63927e-01,9.99999e-01,9.92539e-01,9.71224e-01,9.99946e-01
7.098344834e-01,9.64797e-01,9.99999e-01,9.92841e-01,9.71784e-01,9.99968e-01
7.133836558e-01,9.62887e-01,9.99999e-01,9.90346e-01,9.72333e-01,9.99937e-01
7.169505741e-01,8.99928e-01,9.99999e-01,9.25474e-01,9.72872e-01,9.99509e-01
7.205353270e-01,9.37067e-01,9.99999e-01,9.63505e-01,9.73401e-01,9.99134e-01
7.241380036e-01,9.27536e-01,9.99999e-01,9.53085e-01,9.73920e-01,9.99252e-01
7.277586936e-01,9.32558e-01,9.99999e-01,9.57615e-01,9.74428e-01,9.99389e-01
7.313974871e-01,9.31051e-01,9.99999e-01,9.55268e-01,9.74927e-01,9.99713e-01
7.350544745e-01,9.51199e-01,9.99999e-01,9.75268e-01,9.75416e-01,9.99900e-01
7.387297469e-01,9.58047e-01,9.99999e-01,9.81754e-01,9.75895e-01,9.99953e-01
7.424233956e-01,9.67624e-01,9.99999e-01,9.91054e-01,9.76366e-01,9.99991e-01
7.461355126e-01,9.71514e-01,9.99999e-01,9.94561e-01,9.76827e-01,9.99998e-01
7.498661902e-01,9.74810e-01,9.99999e-01,9.97472e-01,9.77280e-01,9.99998e-01
7.536155211e-01,9.76507e-01,9.99999e-01,9.98755e-01,9.77723e-01,9.99999e-01
7.573835987e-01,9.77533e-01,9.99999e-01,9.99359e-01,9.78159e-01,9.99999e-01
7.611705167e-01,9.78196e-01,9.99999e-01,9.99601e-01,9.78585e-01,9.99999e-01
7.649763693e-01,9.78759e-01,9.99999e-01,9.99749e-01,9.79004e-01,9.99999e-01
7.688012511e-01,9.79244e-01,9.99999e-01,9.99825e-01,9.79414e-01,9.99999e-01
7.726452574e-01,9.79676e-01,9.99999e-01,9.99856e-01,9.79817e-01,9.99999e-01
7.765084837e-01,9.80010e-01,9.99999e-01,9.99794e-01,9.80211e-01,9.99999e-01
7.803910261e-01,9.79726e-01,9.99999e-01,9.99110e-01,9.80598e-01,9.99998e-01
7.842929812e-01,9.77929e-01,9.99999e-01,9.96897e-01,9.80978e-01,9.99993e-01
7.882144461e-01,9.75100e-01,9.99999e-01,9.93673e-01,9.81350e-01,9.99956e-01
7.921555184e-01,9.78251e-01,9.99999e-01,9.96545e-01,9.81715e-01,9.99924e-01
7.961162960e-01,9.75941e-01,9.99999e-01,9.93826e-01,9.82073e-01,9.99927e-01
8.000968774e-01,9.75390e-01,9.99999e-01,9.92915e-01,9.82424e-01,9.99923e-01
8.040973618e-01,9.75737e-01,9.99999e-01,9.92903e-01,9.82768e-01,9.99941e-01
8.081178486e-01,9.67289e-01,9.99999e-01,9.83969e-01,9.83106e-01,9.99940e-01
8.121584379e-01,9.19309e-01,9.99999e-01,9.35000e-01,9.83437e-01,9.99775e-01
8.162192301e-01,9.08339e-01,9.99999e-01,9.24109e-01,9.83761e-01,9.99158e-01
8.203003262e-01,9.44663e-01,9.99999e-01,9.60892e-01,9.84079e-01,9.99014e-01
8.244018279e-01,9.31716e-01,9.99999e-01,9.47231e-01,9.84391e-01,9.99215e-01
8.285238370e-01,9.38494e-01,9.99999e-01,9.53665e-01,9.84697e-01,9.99383e-01
8.326664562e-01,9.38844e-01,9.99999e-01,9.53386e-01,9.84997e-01,9.99744e-01
8.368297885e-01,9.52251e-01,9.99999e-01,9.66522e-01,9.85291e-01,9.99941e-01
8.410139374e-01,9.65820e-01,9.99999e-01,9.79984e-01,9.85580e-01,9.99965e-01
8.452190071e-01,9.76133e-01,9.99999e-01,9.90150e-01,9.85862e-01,9.99979e-01
8.494451021e-01,9.80456e-01,9.99999e-01,9.94252e-01,9.86140e-01,9.99983e-01
8.536923276e-01,9.83058e-01,9.99999e-01,9.96609e-01,9.86412e-01,9.99989e-01
8.579607893e-01,9.84609e-01,9.99999e-01,9.97904e-01,9.86678e-01,9.99997e-01
8.622505932e-01,9.85629e-01,9.99999e-01,9.98671e-01,9.86940e-01,9.99999e-01
8.665618462e-01,9.86382e-01,9.99999e-01,9.99174e-01,9.87196e-01,9.99999e-01
8.708946554e-01,9.86512e-01,9.99999e-01,9.99053e-01,9.87447e-01,9.99998e-01
8.752491287e-01,9.86443e-01,9.99999e-01,9.98734e-01,9.87694e-01,9.99998e-01
8.796253743e-01,9.86195e-01,9.99999e-01,9.98242e-01,9.87935e-01,9.99995e-01
8.840235012e-01,9.86179e-01,9.99999e-01,9.97994e-01,9.88172e-01,9.99987e-01
8.884436187e-01,9.81021e-01,9.99999e-01,9.92563e-01,9.88404e-01,9.99964e-01
8.928858368e-01,9.14703e-01,9.99999e-01,9.25405e-01,9.88632e-01,9.99799e-01
8.973502660e-01,8.62502e-01,9.99999e-01,8.73115e-01,9.88855e-01,9.98976e-01
9.018370173e-01,9.21958e-01,9.99999e-01,9.33643e-01,9.89074e-01,9.98391e-01
9.063462024e-01,9.28938e-01,9.99999e-01,9.40323e-01,9.89289e-01,9.98586e-01
9.108779334e-01,8.98121e-01,9.99999e-01,9.08986e-01,9.89499e-01,9.98531e-01
9.154323231e-01,8.87088e-01,9.99999e-01,8.97404e-01,9.89706e-01,9.98785e-01
9.200094847e-01,9.09085e-01,9.99999e-01,9.18977e-01,9.89908e-01,9.99320e-01
9.246095321e-01,8.65457e-01,9.99999e-01,8.74789e-01,9.90106e-01,9.99216e-01
9.292325798e-01,4.13851e-01,9.99999e-01,4.19488e-01,9.90301e-01,9.96225e-01
9.338787427e-01,3.23269e-01,9.99999e-01,3.30864e-01,9.90491e-01,9.86423e-01
9.385481364e-01,6.23949e-01,9.99999e-01,6.39349e-01,9.90678e-01,9.85094e-01
9.432408771e-01,5.26402e-01,9.99999e-01,5.38184e-01,9.90861e-01,9.87127e-01
9.479570815e-01,4.20135e-01,9.99999e-01,4.28426e-01,9.91041e-01,9.89510e-01
9.526968669e-01,5.18661e-01,9.99999e-01,5.26632e-01,9.91217e-01,9.93588e-01
9.574603512e-01,5.41885e-01,9.99999e-01,5.48379e-01,9.91390e-01,9.96738e-01
9.622476530e-01,6.05896e-01,9.99999e-01,6.12435e-01,9.91559e-01,9.97743e-01
9.670588912e-01,7.45416e-01,9.99999e-01,7.52796e-01,9.91725e-01,9.98455e-01
9.718941857e-01,8.28303e-01,9.99999e-01,8.36026e-01,9.91888e-01,9.98862e-01
9.767536566e-01,8.54157e-01,9.99999e-01,8.61751e-01,9.92048e-01,9.99130e-01
9.816374249e-01,8.88496e-01,9.99999e-01,8.95745e-01,9.92204e-01,9.99698e-01
9.865456120e-01,9.26312e-01,9.99999e-01,9.33503e-01,9.92358e-01,9.99936e-01
9.914783401e-01,9.51124e-01,9.99999e-01,9.58319e-01,9.92508e-01,9.99982e-01
9.964357318e-01,9.69904e-01,9.99999e-01,9.77089e-01,9.92655e-01,9.99989e-01
1.001417910e+00,9.79098e-01,9.99999e-01,9.86213e-01,9.92800e-01,9.99984e-01
1.006425000e+00,9.85076e-01,9.99999e-01,9.92100e-01,9.92942e-01,9.99977e-01
1.011457125e+00,9.88198e-01,9.99999e-01,9.95103e-01,9.93080e-01,9.99979e-01
1.016514411e+00,9.89894e-01,9.99999e-01,9.96668e-01,9.93217e-01,9.99985e-01
1.021596983e+00,9.90697e-01,9.99999e-01,9.97342e-01,9.93350e-01,9.99985e-01
1.026704968e+00,9.91412e-01,9.99999e-01,9.97925e-01,9.93481e-01,9.99990e-01
1.031838492e+00,9.92112e-01,9.99999e-01,9.98495e-01,9.93609e-01,9.99996e-01
1.036997685e+00,9.92845e-01,9.99999e-01,9.99104e-01,9.93735e-01,9.99999e-01
1.042182673e+00,9.92793e-01,9.99999e-01,9.98927e-01,9.93859e-01,9.99999e-01
1.047393587e+00,9.92569e-01,9.99999e-01,9.98581e-01,9.93980e-01,9.99999e-01
1.052630555e+00,9.92160e-01,9.99999e-01,9.98050e-01,9.94098e-01,9.99998e-01
1.057893707e+00,9.90975e-01,9.99999e-01,9.96741e-01,9.94214e-01,9.99998e-01
1.063183176e+00,9.89006e-01,9.99999e-01,9.94649e-01,9.94328e-01,9.99996e-01
1.068499092e+00,9.85553e-01,9.99999e-01,9.91068e-01,9.94440e-01,9.99993e-01
1.073841587e+00,9.84128e-01,9.99999e-01,9.89534e-01,9.94549e-01,9.99986e-01
1.079210795e+00,9.81346e-01,9.99999e-01,9.86652e-01,9.94657e-01,9.99963e-01
1.084606849e+00,9.74611e-01,9.99999e-01,9.79826e-01,9.94762e-01,9.99913e-01
1.090029883e+00,9.65809e-01,9.99999e-01,9.70966e-01,9.94865e-01,9.99821e-01
1.095480033e+00,9.18096e-01,9.99999e-01,9.23037e-01,9.94966e-01,9.99676e-01
1.100957433e+00,8.11853e-01,9.99999e-01,8.16363e-01,9.95066e-01,9.99405e-01
1.106462220e+00,5.96615e-01,9.99999e-01,6.00118e-01,9.95163e-01,9.98992e-01
1.111994531e+00,3.44890e-01,9.99999e-01,3.47460e-01,9.95258e-01,9.97329e-01
1.117554504e+00,1.82134e-01,9.99999e-01,1.84760e-01,9.95351e-01,9.90392e-01
1.123142276e+00,2.93110e-01,9.99999e-01,3.01270e-01,9.95443e-01,9.77365e-01
1.128757988e+00,4.37671e-01,9.99999e-01,4.51433e-01,9.95533e-01,9.73862e-01
1.134401778e+00,2.21292e-01,9.99999e-01,2.27327e-01,9.95621e-01,9.77731e-01
1.140073787e+00,6.02597e-01,9.99999e-01,6.16183e-01,9.95707e-01,9.82167e-01
1.145774156e+00,3.66045e-01,9.99999e-01,3.73696e-01,9.95792e-01,9.83664e-01
1.151503026e+00,3.31752e-01,9.99999e-01,3.36196e-01,9.95875e-01,9.90866e-01
1.157260541e+00,3.89992e-01,9.99999e-01,3.92650e-01,9.95956e-01,9.97259e-01
1.163046844e+00,4.97984e-01,9.99999e-01,5.00355e-01,9.96036e-01,9.99222e-01
1.168862078e+00,6.12558e-01,9.99999e-01,6.15193e-01,9.96114e-01,9.99599e-01
1.174706389e+00,7.37503e-01,9.99999e-01,7.40715e-01,9.96190e-01,9.99468e-01
1.180579921e+00,8.28996e-01,9.99999e-01,8.32771e-01,9.96265e-01,9.99196e-01
1.186482820e+00,8.97465e-01,9.99999e-01,9.01504e-01,9.96339e-01,9.99175e-01
1.192415234e+00,9.37237e-01,9.99999e-01,9.41192e-01,9.96411e-01,9.99382e-01
1.198377311e+00,9.46222e-01,9.99999e-01,9.50118e-01,9.96482e-01,9.99414e-01
1.204369197e+00,9.49043e-01,9.99999e-01,9.52812e-01,9.96551e-01,9.99489e-01
1.210391043e+00,9.51285e-01,9.99999e-01,9.54817e-01,9.96619e-01,9.99678e-01
1.216442998e+00,9.58145e-01,9.99999e-01,9.61518e-01,9.96686e-01,9.99803e-01
1.222525213e+00,9.66608e-01,9.99999e-01,9.69875e-01,9.96751e-01,9.99877e-01
1.228637839e+00,9.75798e-01,9.99999e-01,9.78970e-01,9.96815e-01,9.99942e-01
1.234781029e+00,9.81275e-01,9.99999e-01,9.84363e-01,9.96878e-01,9.99983e-01
1.240954934e+00,9.87042e-01,9.99999e-01,9.90076e-01,9.96940e-01,9.99994e-01
1.247159708e+00,9.89292e-01,9.99999e-01,9.92271e-01,9.97000e-01,9.99996e-01
1.253395507e+00,9.90202e-01,9.99999e-01,9.93125e-01,9.97059e-01,9.99995e-01
1.259662485e+00,9.90584e-01,9.99999e-01,9.93453e-01,9.97117e-01,9.99993e-01
1.265960797e+00,9.86776e-01,9.99999e-01,9.89581e-01,9.97174e-01,9.99989e-01
1.272290601e+00,9.80882e-01,9.99999e-01,9.83623e-01,9.97230e-01,9.99981e-01
1.278652054e+00,9.65068e-01,9.99999e-01,9.67726e-01,9.97284e-01,9.99967e-01
1.285045314e+00,9.39631e-01,9.99999e-01,9.42194e-01,9.97338e-01,9.99940e-01
1.291470541e+00,8.99023e-01,9.99999e-01,9.01468e-01,9.97390e-01,9.99895e-01
1.297927893e+00,8.60573e-01,9.99999e-01,8.62946e-01,9.97442e-01,9.99805e-01
1.304417533e+00,8.38580e-01,9.99999e-01,8.41032e-01,9.97492e-01,9.99589e-01
1.310939621e+00,8.00783e-01,9.99999e-01,8.03433e-01,9.97542e-01,9.99157e-01
1.317494319e+00,8.03746e-01,9.99999e-01,8.06944e-01,9.97590e-01,9.98442e-01
1.324081790e+00,7.25657e-01,9.99999e-01,7.29227e-01,9.97638e-01,9.97457e-01
1.330702199e+00,3.11307e-01,9.99999e-01,3.13402e-01,9.97684e-01,9.95620e-01
1.337355710e+00,4.54833e-02,9.99999e-01,4.59737e-02,9.97730e-01,9.91584e-01
1.344042489e+00,1.65515e-03,9.99999e-01,1.70161e-03,9.97775e-01,9.74865e-01
1.350762701e+00,2.57611e-07,9.99999e-01,2.81684e-07,9.97819e-01,9.16537e-01
1.357516515e+00,2.30406e-10,9.99999e-01,2.98197e-10,9.97862e-01,7.74317e-01
1.364304097e+00,7.17769e-07,9.99999e-01,1.12609e-06,9.97904e-01,6.38737e-01
1.371125618e+00,8.12442e-05,9.99999e-01,1.24230e-04,9.97945e-01,6.55326e-01
1.377981246e+00,2.55098e-04,9.99999e-01,3.67208e-04,9.97986e-01,6.96095e-01
1.384871152e+00,2.99183e-06,9.99999e-01,4.20145e-06,9.98025e-01,7.13502e-01
1.391795508e+00,9.65744e-07,9.99999e-01,1.33490e-06,9.98064e-01,7.24860e-01
1.398754485e+00,1.41378e-05,9.99999e-01,1.84774e-05,9.98103e-01,7.66591e-01
1.405748258e+00,1.42399e-05,9.99999e-01,1.66648e-05,9.98140e-01,8.56084e-01
1.412776999e+00,1.54323e-05,9.99999e-01,1.65971e-05,9.98177e-01,9.31513e-01
1.419840884e+00,3.23746e-05,9.99999e-01,3.34573e-05,9.98213e-01,9.69371e-01
1.426940089e+00,3.75723e-04,9.99999e-01,3.85383e-04,9.98248e-01,9.76643e-01
1.434074789e+00,2.14992e-03,9.99999e-01,2.21452e-03,9.98282e-01,9.72497e-01
1.441245163e+00,7.17562e-03,9.99999e-01,7.40814e-03,9.98316e-01,9.70245e-01
1.448451389e+00,3.17360e-02,9.99999e-01,3.26404e-02,9.98350e-01,9.73897e-01
1.455693646e+00,9.62893e-02,9.99999e-01,9.84506e-02,9.98382e-01,9.79630e-01
1.462972114e+00,1.27151e-01,9.99999e-01,1.29877e-01,9.98414e-01,9.80563e-01
1.470286975e+00,9.19444e-02,9.99999e-01,9.38813e-02,9.98445e-01,9.80891e-01
