#,Wave/freq,Total,N2,H2O,Rayleigh,CIA
4.000000000e-01,5.67643e-01,9.99999e-01,9.99935e-01,5.67679e-01,9.99999e-01
4.020000000e-01,5.74047e-01,9.99999e-01,9.99959e-01,5.74070e-01,9.99999e-01
4.040100000e-01,5.80388e-01,9.99999e-01,9.99982e-01,5.80398e-01,9.99999e-01
4.060300500e-01,5.86666e-01,9.99999e-01,9.99995e-01,5.86669e-01,9.99999e-01
4.080602003e-01,5.92880e-01,9.99999e-01,9.99998e-01,5.92881e-01,9.99999e-01
4.101005013e-01,5.99035e-01,9.99999e-01,9.99999e-01,5.99035e-01,9.99999e-01
4.121510038e-01,6.05128e-01,9.99999e-01,9.99997e-01,6.05129e-01,9.99999e-01
4.142117588e-01,6.11152e-01,9.99999e-01,9.99981e-01,6.11163e-01,9.99999e-01
4.162828176e-01,6.17087e-01,9.99999e-01,9.99920e-01,6.17136e-01,9.99999e-01
4.183642317e-01,6.23019e-01,9.99999e-01,9.99952e-01,6.23048e-01,9.99999e-01
4.204560528e-01,6.28880e-01,9.99999e-01,9.99970e-01,6.28898e-01,9.99999e-01
4.225583331e-01,6.34679e-01,9.99999e-01,9.99988e-01,6.34686e-01,9.99999e-01
4.246711247e-01,6.40405e-01,9.99999e-01,9.99990e-01,6.40411e-01,9.99999e-01
4.267944804e-01,6.46065e-01,9.99999e-01,9.99986e-01,6.46073e-01,9.99999e-01
4.289284528e-01,6.51665e-01,9.99999e-01,9.99989e-01,6.51672e-01,9.99999e-01
4.310730950e-01,6.57204e-01,9.99999e-01,9.99995e-01,6.57207e-01,9.99999e-01
4.332284605e-01,6.62678e-01,9.99999e-01,9.99998e-01,6.62679e-01,9.99999e-01
4.353946028e-01,6.68086e-01,9.99999e-01,9.99999e-01,6.68087e-01,9.99999e-01
4.375715758e-01,6.73425e-01,9.99999e-01,9.99991e-01,6.73430e-01,9.99999e-01
4.397594337e-01,6.78663e-01,9.99999e-01,9.99929e-01,6.78710e-01,9.99999e-01
4.419582309e-01,6.83683e-01,9.99999e-01,9.99644e-01,6.83926e-01,9.99999e-01
4.441680220e-01,6.88888e-01,9.99999e-01,9.99724e-01,6.89077e-01,9.99999e-01
4.463888621e-01,6.93966e-01,9.99999e-01,9.99712e-01,6.94165e-01,9.99999e-01
4.486208064e-01,6.99064e-01,9.99999e-01,9.99821e-01,6.99188e-01,9.99999e-01
4.508639105e-01,7.04089e-01,9.99999e-01,9.99916e-01,7.04148e-01,9.99999e-01
4.531182300e-01,7.09020e-01,9.99999e-01,9.99966e-01,7.09043e-01,9.99999e-01
4.553838212e-01,7.13859e-01,9.99999e-01,9.99977e-01,7.13875e-01,9.99999e-01
4.576607403e-01,7.18636e-01,9.99999e-01,9.99989e-01,7.18644e-01,9.99999e-01
4.599490440e-01,7.23344e-01,9.99999e-01,9.99992e-01,7.23349e-01,9.99999e-01
4.622487892e-01,7.27990e-01,9.99999e-01,9.99998e-01,7.27991e-01,9.99999e-01
4.645600332e-01,7.32567e-01,9.99999e-01,9.99994e-01,7.32570e-01,9.99999e-01
4.668828333e-01,7.37025e-01,9.99999e-01,9.99915e-01,7.37087e-01,9.99999e-01
4.692172475e-01,7.41409e-01,9.99999e-01,9.99819e-01,7.41542e-01,9.99999e-01
4.715633337e-01,7.45847e-01,9.99999e-01,9.99882e-01,7.45935e-01,9.99999e-01
4.739211504e-01,7.50182e-01,9.99999e-01,9.99887e-01,7.50266e-01,9.99999e-01
4.762907561e-01,7.54493e-01,9.99999e-01,9.99941e-01,7.54536e-01,9.99999e-01
4.786722099e-01,7.58728e-01,9.99999e-01,9.99975e-01,7.58746e-01,9.99999e-01
4.810655710e-01,7.62889e-01,9.99999e-01,9.99992e-01,7.62895e-01,9.99999e-01
4.834708988e-01,7.66931e-01,9.99999e-01,9.99930e-01,7.66984e-01,9.99999e-01
4.858882533e-01,7.70916e-01,9.99999e-01,9.99872e-01,7.71014e-01,9.99999e-01
4.883176946e-01,7.74902e-01,9.99999e-01,9.99893e-01,7.74984e-01,9.99999e-01
4.907592831e-01,7.78821e-01,9.99999e-01,9.99903e-01,7.78896e-01,9.99999e-01
4.932130795e-01,7.82697e-01,9.99999e-01,9.99931e-01,7.82750e-01,9.99999e-01
4.956791449e-01,7.86518e-01,9.99999e-01,9.99963e-01,7.86546e-01,9.99999e-01
4.981575406e-01,7.90142e-01,9.99999e-01,9.99818e-01,7.90285e-01,9.99999e-01
5.006483283e-01,7.93592e-01,9.99999e-01,9.99529e-01,7.93968e-01,9.99996e-01
5.031515699e-01,7.95681e-01,9.99999e-01,9.97625e-01,7.97594e-01,9.99974e-01
5.056673278e-01,8.00140e-01,9.99999e-01,9.98747e-01,8.01165e-01,9.99970e-01
5.081956644e-01,8.03397e-01,9.99999e-01,9.98420e-01,8.04681e-01,9.99982e-01
5.107366428e-01,8.07279e-01,9.99999e-01,9.98933e-01,8.08143e-01,9.99996e-01
5.132903260e-01,8.11056e-01,9.99999e-01,9.99390e-01,8.11550e-01,9.99999e-01
5.158567776e-01,8.14695e-01,9.99999e-01,9.99742e-01,8.14904e-01,9.99999e-01
5.184360615e-01,8.18121e-01,9.99999e-01,9.99896e-01,8.18206e-01,9.99999e-01
5.210282418e-01,8.21423e-01,9.99999e-01,9.99960e-01,8.21455e-01,9.99999e-01
5.236333830e-01,8.24524e-01,9.99999e-01,9.99844e-01,8.24652e-01,9.99998e-01
5.262515499e-01,8.27717e-01,9.99999e-01,9.99902e-01,8.27799e-01,9.99997e-01
5.288828077e-01,8.30820e-01,9.99999e-01,9.99910e-01,8.30894e-01,9.99998e-01
5.315272217e-01,8.33875e-01,9.99999e-01,9.99921e-01,8.33940e-01,9.99999e-01
5.341848578e-01,8.36894e-01,9.99999e-01,9.99948e-01,8.36937e-01,9.99999e-01
5.368557821e-01,8.39733e-01,9.99999e-01,9.99819e-01,8.39885e-01,9.99999e-01
5.395400610e-01,8.42230e-01,9.99999e-01,9.99346e-01,8.42785e-01,9.99994e-01
5.422377613e-01,8.44914e-01,9.99999e-01,9.99160e-01,8.45637e-01,9.99984e-01
5.449489501e-01,8.47765e-01,9.99999e-01,9.99216e-01,8.48442e-01,9.99983e-01
5.476736949e-01,8.50606e-01,9.99999e-01,9.99308e-01,8.51201e-01,9.99991e-01
5.504120634e-01,8.53484e-01,9.99999e-01,9.99497e-01,8.53914e-01,9.99997e-01
5.531641237e-01,8.56365e-01,9.99999e-01,9.99747e-01,8.56582e-01,9.99999e-01
5.559299443e-01,8.59100e-01,9.99999e-01,9.99877e-01,8.59205e-01,9.99999e-01
5.587095940e-01,8.61718e-01,9.99999e-01,9.99923e-01,8.61784e-01,9.99999e-01
5.615031420e-01,8.64246e-01,9.99999e-01,9.99914e-01,8.64320e-01,9.99999e-01
5.643106577e-01,8.66728e-01,9.99999e-01,9.99902e-01,8.66813e-01,9.99998e-01
5.671322110e-01,8.68228e-01,9.99999e-01,9.98817e-01,8.69264e-01,9.99989e-01
5.699678720e-01,8.70560e-01,9.99999e-01,9.98755e-01,8.71673e-01,9.99967e-01
5.728177114e-01,8.72880e-01,9.99999e-01,9.98698e-01,8.74041e-01,9.99972e-01
5.756818000e-01,8.75309e-01,9.99999e-01,9.98806e-01,8.76368e-01,9.99984e-01
5.785602090e-01,8.77738e-01,9.99999e-01,9.98960e-01,8.78655e-01,9.99995e-01
5.814530100e-01,8.79981e-01,9.99999e-01,9.98955e-01,8.80903e-01,9.99997e-01
5.843602750e-01,8.82004e-01,9.99999e-01,9.98751e-01,8.83113e-01,9.99992e-01
5.872820764e-01,8.75743e-01,9.99999e-01,9.89297e-01,8.85283e-01,9.99924e-01
5.902184868e-01,8.75764e-01,9.99999e-01,9.87071e-01,8.87417e-01,9.99794e-01
5.931695792e-01,8.81198e-01,9.99999e-01,9.90848e-01,8.89513e-01,9.99801e-01
5.961354271e-01,8.82534e-01,9.99999e-01,9.89974e-01,8.91572e-01,9.99885e-01
5.991161043e-01,8.87025e-01,9.99999e-01,9.92680e-01,8.93596e-01,9.99964e-01
6.021116848e-01,8.91857e-01,9.99999e-01,9.95842e-01,8.95584e-01,9.99995e-01
6.051222432e-01,8.95647e-01,9.99999e-01,9.97894e-01,8.97537e-01,9.99999e-01
6.081478544e-01,8.98638e-01,9.99999e-01,9.99091e-01,8.99455e-01,9.99999e-01
6.111885937e-01,9.00994e-01,9.99999e-01,9.99615e-01,9.01340e-01,9.99999e-01
6.142445367e-01,9.03036e-01,9.99999e-01,9.99827e-01,9.03191e-01,9.99999e-01
6.173157594e-01,9.04924e-01,9.99999e-01,9.99904e-01,9.05009e-01,9.99999e-01
6.204023382e-01,9.06722e-01,9.99999e-01,9.99919e-01,9.06795e-01,9.99999e-01
6.235043498e-01,9.08226e-01,9.99999e-01,9.99644e-01,9.08549e-01,9.99998e-01
6.266218716e-01,9.08558e-01,9.99999e-01,9.98129e-01,9.10272e-01,9.99986e-01
6.297549810e-01,9.11314e-01,9.99999e-01,9.99313e-01,9.11964e-01,9.99973e-01
6.329037559e-01,9.12369e-01,9.99999e-01,9.98645e-01,9.13626e-01,9.99978e-01
6.360682746e-01,9.14188e-01,9.99999e-01,9.98844e-01,9.15257e-01,9.99987e-01
6.392486160e-01,9.15483e-01,9.99999e-01,9.98503e-01,9.16859e-01,9.99993e-01
6.424448591e-01,9.16581e-01,9.99999e-01,9.97991e-01,9.18433e-01,9.99990e-01
6.456570834e-01,9.11386e-01,9.99999e-01,9.90711e-01,9.19978e-01,9.99948e-01
6.488853688e-01,9.15115e-01,9.99999e-01,9.93219e-01,9.21494e-01,9.99855e-01
6.521297956e-01,9.16498e-01,9.99999e-01,9.93090e-01,9.22984e-01,9.99880e-01
6.553904446e-01,9.17992e-01,9.99999e-01,9.93105e-01,9.24446e-01,9.99910e-01
6.586673968e-01,9.20396e-01,9.99999e-01,9.94103e-01,9.25882e-01,9.99969e-01
6.619607338e-01,9.24235e-01,9.99999e-01,9.96710e-01,9.27291e-01,9.99993e-01
6.652705375e-01,9.26837e-01,9.99999e-01,9.98024e-01,9.28675e-01,9.99996e-01
6.685968902e-01,9.29252e-01,9.99999e-01,9.99159e-01,9.30033e-01,9.99998e-01
6.719398746e-01,9.30971e-01,9.99999e-01,9.99574e-01,9.31367e-01,9.99999e-01
6.752995740e-01,9.32460e-01,9.99999e-01,9.99768e-01,9.32676e-01,9.99999e-01
6.786760719e-01,9.33648e-01,9.99999e-01,9.99665e-01,9.33960e-01,9.99999e-01
6.820694522e-01,9.34685e-01,9.99999e-01,9.99428e-01,9.35222e-01,9.99996e-01
6.854797995e-01,9.35764e-01,9.99999e-01,9.99263e-01,9.36460e-01,9.99993e-01
6.889071985e-01,9.35980e-01,9.99999e-01,9.98208e-01,9.37675e-01,9.99983e-01
6.923517345e-01,9.11750e-01,9.99999e-01,9.71251e-01,9.38867e-01,9.99860e-01
6.958134932e-01,9.25716e-01,9.99999e-01,9.85068e-01,9.40038e-01,9.99690e-01
6.992925606e-01,9.27457e-01,9.99999e-01,9.85686e-01,9.41187e-01,9.99721e-01
7.027890234e-01,9.25535e-01,9.99999e-01,9.82402e-01,9.42314e-01,9.99787e-01
7.063029686e-01,9.29336e-01,9.99999e-01,9.85173e-01,9.43421e-01,9.99893e-01
7.098344834e-01,9.31007e-01,9.99999e-01,9.85768e-01,9.44507e-01,9.99937e-01
7.133836558e-01,9.27515e-01,9.99999e-01,9.81024e-01,9.45572e-01,9.99875e-01
7.169505741e-01,8.12133e-01,9.99999e-01,8.58769e-01,9.46618e-01,9.99022e-01
7.205353270e-01,8.78277e-01,9.99999e-01,9.28398e-01,9.47645e-01,9.98276e-01
7.241380036e-01,8.61359e-01,9.99999e-01,9.09335e-01,9.48652e-01,9.98511e-01
7.277586936e-01,8.70579e-01,9.99999e-01,9.17862e-01,9.49640e-01,9.98782e-01
7.313974871e-01,8.67256e-01,9.99999e-01,9.12835e-01,9.50610e-01,9.99429e-01
7.350544745e-01,9.05049e-01,9.99999e-01,9.51308e-01,9.51561e-01,9.99801e-01
7.387297469e-01,9.18024e-01,9.99999e-01,9.63896e-01,9.52495e-01,9.99908e-01
7.424233956e-01,9.36401e-01,9.99999e-01,9.82175e-01,9.53411e-01,9.99982e-01
7.461355126e-01,9.43957e-01,9.99999e-01,9.89154e-01,9.54310e-01,9.99996e-01
7.498661902e-01,9.50359e-01,9.99999e-01,9.94941e-01,9.55192e-01,9.99998e-01
7.536155211e-01,9.53680e-01,9.99999e-01,9.97513e-01,9.56057e-01,9.99998e-01
7.573835987e-01,9.55681e-01,9.99999e-01,9.98719e-01,9.56906e-01,9.99999e-01
7.611705167e-01,9.56977e-01,9.99999e-01,9.99204e-01,9.57739e-01,9.99999e-01
7.649763693e-01,9.58078e-01,9.99999e-01,9.99500e-01,9.58556e-01,9.99999e-01
7.688012511e-01,9.59025e-01,9.99999e-01,9.99651e-01,9.59358e-01,9.99999e-01
7.726452574e-01,9.59870e-01,9.99999e-01,9.99713e-01,9.60145e-01,9.99999e-01
7.765084837e-01,9.60524e-01,9.99999e-01,9.99592e-01,9.60916e-01,9.99999e-01
7.803910261e-01,9.59977e-01,9.99999e-01,9.98237e-01,9.61673e-01,9.99997e-01
7.842929812e-01,9.56497e-01,9.99999e-01,9.93861e-01,9.62416e-01,9.99988e-01
7.882144461e-01,9.50951e-01,9.99999e-01,9.87425e-01,9.63144e-01,9.99912e-01
7.921555184e-01,9.57065e-01,9.99999e-01,9.93100e-01,9.63859e-01,9.99848e-01
7.961162960e-01,9.52646e-01,9.99999e-01,9.87789e-01,9.64560e-01,9.99856e-01
8.000968774e-01,9.51519e-01,9.99999e-01,9.85926e-01,9.65248e-01,9.99847e-01
8.040973618e-01,9.52211e-01,9.99999e-01,9.85919e-01,9.65922e-01,9.99883e-01
8.081178486e-01,9.36047e-01,9.99999e-01,9.68520e-01,9.66584e-01,9.99881e-01
8.121584379e-01,8.46776e-01,9.99999e-01,8.75852e-01,9.67233e-01,9.99553e-01
8.162192301e-01,8.26243e-01,9.99999e-01,8.55104e-01,9.67870e-01,9.98322e-01
8.203003262e-01,8.94779e-01,9.99999e-01,9.25703e-01,9.68494e-01,9.98036e-01
8.244018279e-01,8.70097e-01,9.99999e-01,8.99238e-01,9.69107e-01,9.98436e-01
8.285238370e-01,8.81630e-01,9.99999e-01,9.10287e-01,9.69708e-01,9.98772e-01
8.326664562e-01,8.82138e-01,9.99999e-01,9.09603e-01,9.70297e-01,9.99491e-01
8.368297885e-01,9.07022e-01,9.99999e-01,9.34339e-01,9.70875e-01,9.99883e-01
8.410139374e-01,9.32933e-01,9.99999e-01,9.60423e-01,9.71442e-01,9.99931e-01
8.452190071e-01,9.52901e-01,9.99999e-01,9.80391e-01,9.71998e-01,9.99958e-01
8.494451021e-01,9.61387e-01,9.99999e-01,9.88560e-01,9.72544e-01,9.99967e-01
8.536923276e-01,9.66471e-01,9.99999e-01,9.93228e-01,9.73079e-01,9.99979e-01
8.579607893e-01,9.69530e-01,9.99999e-01,9.95820e-01,9.73603e-01,9.99994e-01
8.622505932e-01,9.71532e-01,9.99999e-01,9.97345e-01,9.74118e-01,9.99998e-01
8.665618462e-01,9.73020e-01,9.99999e-01,9.98355e-01,9.74623e-01,9.99999e-01
8.708946554e-01,9.73279e-01,9.99999e-01,9.98115e-01,9.75117e-01,9.99998e-01
8.752491287e-01,9.73143e-01,9.99999e-01,9.97480e-01,9.75603e-01,9.99996e-01
8.796253743e-01,9.72664e-01,9.99999e-01,9.96508e-01,9.76079e-01,9.99991e-01
8.840235012e-01,9.72630e-01,9.99999e-01,9.96013e-01,9.76546e-01,9.99975e-01
8.884436187e-01,9.62764e-01,9.99999e-01,9.85492e-01,9.77004e-01,9.99930e-01
8.928858368e-01,8.39194e-01,9.99999e-01,8.58893e-01,9.77453e-01,9.99601e-01
8.973502660e-01,7.47125e-01,9.99999e-01,7.65575e-01,9.77893e-01,9.97960e-01
9.018370173e-01,8.51225e-01,9.99999e-01,8.72880e-01,9.78325e-01,9.96794e-01
9.063462024e-01,8.65005e-01,9.99999e-01,8.86281e-01,9.78749e-01,9.97183e-01
9.108779334e-01,8.09156e-01,9.99999e-01,8.28799e-01,9.79164e-01,9.97073e-01
9.154323231e-01,7.89077e-01,9.99999e-01,8.07486e-01,9.79571e-01,9.97580e-01
9.200094847e-01,8.28267e-01,9.99999e-01,8.46341e-01,9.79971e-01,9.98645e-01
9.246095321e-01,7.59035e-01,9.99999e-01,7.75448e-01,9.80362e-01,9.98439e-01
9.292325798e-01,1.97360e-01,9.99999e-01,2.02463e-01,9.80747e-01,9.93927e-01
9.338787427e-01,1.22243e-01,9.99999e-01,1.27772e-01,9.81123e-01,9.75135e-01
9.385481364e-01,4.11910e-01,9.99999e-01,4.32435e-01,9.81493e-01,9.70497e-01
9.432408771e-01,3.10175e-01,9.99999e-01,3.24174e-01,9.81855e-01,9.74495e-01
9.479570815e-01,2.02925e-01,9.99999e-01,2.10990e-01,9.82210e-01,9.79193e-01
9.526968669e-01,2.91146e-01,9.99999e-01,3.00139e-01,9.82558e-01,9.87256e-01
9.574603512e-01,3.10167e-01,9.99999e-01,3.17626e-01,9.82900e-01,9.93506e-01
9.622476530e-01,3.79248e-01,9.99999e-01,3.87455e-01,9.83235e-01,9.95505e-01
9.670588912e-01,5.64574e-01,9.99999e-01,5.75779e-01,9.83563e-01,9.96923e-01
9.718941857e-01,6.89066e-01,9.99999e-01,7.01942e-01,9.83885e-01,9.97734e-01
9.767536566e-01,7.32024e-01,9.99999e-01,7.45064e-01,9.84201e-01,9.98268e-01
9.816374249e-01,7.90465e-01,9.99999e-01,8.03383e-01,9.84510e-01,9.99400e-01
9.865456120e-01,8.58491e-01,9.99999e-01,8.71837e-01,9.84814e-01,9.99874e-01
9.914783401e-01,9.04837e-01,9.99999e-01,9.18542e-01,9.85112e-01,9.99964e-01
9.964357318e-01,9.40827e-01,9.99999e-01,9.54781e-01,9.85404e-01,9.99979e-01
1.001417910e+00,9.58692e-01,9.99999e-01,9.72639e-01,9.85690e-01,9.99968e-01
1.006425000e+00,9.70445e-01,9.99999e-01,9.84296e-01,9.85971e-01,9.99955e-01
1.011457125e+00,9.76576e-01,9.99999e-01,9.90234e-01,9.86246e-01,9.99958e-01
1.016514411e+00,9.79934e-01,9.99999e-01,9.93356e-01,9.86516e-01,9.99970e-01
1.021596983e+00,9.81525e-01,9.99999e-01,9.94701e-01,9.86780e-01,9.99971e-01
1.026704968e+00,9.82941e-01,9.99999e-01,9.95865e-01,9.87040e-01,9.99981e-01
1.031838492e+00,9.84323e-01,9.99999e-01,9.96995e-01,9.87294e-01,9.99994e-01
1.036997685e+00,9.85778e-01,9.99999e-01,9.98213e-01,9.87543e-01,9.99998e-01
1.042182673e+00,9.85681e-01,9.99999e-01,9.97867e-01,9.87788e-01,9.99999e-01
1.047393587e+00,9.85236e-01,9.99999e-01,9.97174e-01,9.88028e-01,9.99998e-01
1.052630555e+00,9.84430e-01,9.99999e-01,9.96122e-01,9.88263e-01,9.99998e-01
1.057893707e+00,9.82097e-01,9.99999e-01,9.93531e-01,9.88493e-01,9.99997e-01
1.063183176e+00,9.78216e-01,9.99999e-01,9.89382e-01,9.88719e-01,9.99993e-01
1.068499092e+00,9.71418e-01,9.99999e-01,9.82292e-01,9.88941e-01,9.99987e-01
1.073841587e+00,9.68670e-01,9.99999e-01,9.79312e-01,9.89158e-01,9.99973e-01
1.079210795e+00,9.63163e-01,9.99999e-01,9.73579e-01,9.89371e-01,9.99928e-01
1.084606849e+00,9.50112e-01,9.99999e-01,9.60281e-01,9.89580e-01,9.99828e-01
1.090029883e+00,9.33460e-01,9.99999e-01,9.43429e-01,9.89784e-01,9.99643e-01
1.095480033e+00,8.44394e-01,9.99999e-01,8.53484e-01,9.89985e-01,9.99356e-01
1.100957433e+00,6.63881e-01,9.99999e-01,6.71257e-01,9.90182e-01,9.98816e-01
1.106462220e+00,3.71582e-01,9.99999e-01,3.75947e-01,9.90375e-01,9.97993e-01
1.111994531e+00,1.32706e-01,9.99999e-01,1.34686e-01,9.90564e-01,9.94681e-01
1.117554504e+00,4.20110e-02,9.99999e-01,4.32274e-02,9.90750e-01,9.80933e-01
1.123142276e+00,1.09580e-01,9.99999e-01,1.15748e-01,9.90932e-01,9.55374e-01
1.128757988e+00,2.10661e-01,9.99999e-01,2.24077e-01,9.91110e-01,9.48558e-01
1.134401778e+00,9.51047e-02,9.99999e-01,1.00347e-01,9.91285e-01,9.56087e-01
1.140073787e+00,3.76704e-01,9.99999e-01,3.93830e-01,9.91456e-01,9.64756e-01
1.145774156e+00,1.54721e-01,9.99999e-01,1.61237e-01,9.91624e-01,9.67690e-01
1.151503026e+00,1.29714e-01,9.99999e-01,1.33203e-01,9.91789e-01,9.81870e-01
1.157260541e+00,1.63490e-01,9.99999e-01,1.65720e-01,9.91950e-01,9.94544e-01
1.163046844e+00,2.59311e-01,9.99999e-01,2.61779e-01,9.92109e-01,9.98450e-01
1.168862078e+00,3.80720e-01,9.99999e-01,3.83995e-01,9.92264e-01,9.99201e-01
1.174706389e+00,5.48155e-01,9.99999e-01,5.52928e-01,9.92416e-01,9.98941e-01
1.180579921e+00,6.89476e-01,9.99999e-01,6.95752e-01,9.92565e-01,9.98399e-01
1.186482820e+00,8.06228e-01,9.99999e-01,8.13482e-01,9.92712e-01,9.98357e-01
1.192415234e+00,8.78786e-01,9.99999e-01,8.86199e-01,9.92855e-01,9.98769e-01
1.198377311e+00,8.95806e-01,9.99999e-01,9.03173e-01,9.92996e-01,9.98837e-01
1.204369197e+00,9.01218e-01,9.99999e-01,9.08403e-01,9.93134e-01,9.98948e-01
1.210391043e+00,9.05365e-01,9.99999e-01,9.12083e-01,9.93269e-01,9.99360e-01
1.216442998e+00,9.18297e-01,9.99999e-01,9.24758e-01,9.93401e-01,9.99607e-01
1.222525213e+00,9.34503e-01,9.99999e-01,9.40815e-01,9.93531e-01,9.99756e-01
1.228637839e+00,9.52314e-01,9.99999e-01,9.58499e-01,9.93659e-01,9.99886e-01
1.234781029e+00,9.62980e-01,9.99999e-01,9.69034e-01,9.93783e-01,9.99967e-01
1.240954934e+00,9.74319e-01,9.99999e-01,9.80301e-01,9.93906e-01,9.99990e-01
1.247159708e+00,9.78741e-01,9.99999e-01,9.84629e-01,9.94026e-01,9.99993e-01
1.253395507e+00,9.80552e-01,9.99999e-01,9.86335e-01,9.94143e-01,9.99991e-01
1.259662485e+00,9.81328e-01,9.99999e-01,9.87005e-01,9.94259e-01,9.99987e-01
1.265960797e+00,9.73804e-01,9.99999e-01,9.79334e-01,9.94372e-01,9.99979e-01
1.272290601e+00,9.62331e-01,9.99999e-01,9.67703e-01,9.94483e-01,9.99963e-01
1.278652054e+00,9.31804e-01,9.99999e-01,9.36930e-01,9.94591e-01,9.99936e-01
1.285045314e+00,8.83966e-01,9.99999e-01,8.88782e-01,9.94698e-01,9.99881e-01
1.291470541e+00,8.10073e-01,9.99999e-01,8.14473e-01,9.94802e-01,9.99792e-01
1.297927893e+00,7.43461e-01,9.99999e-01,7.47556e-01,9.94905e-01,9.99613e-01
1.304417533e+00,7.06968e-01,9.99999e-01,7.11098e-01,9.95005e-01,9.99181e-01
1.310939621e+00,6.71991e-01,9.99999e-01,6.76432e-01,9.95103e-01,9.98320e-01
1.317494319e+00,6.50607e-01,9.99999e-01,6.55779e-01,9.95200e-01,9.96896e-01
1.324081790e+00,5.31157e-01,9.99999e-01,5.36382e-01,9.95294e-01,9.94937e-01
1.330702199e+00,1.48821e-01,9.99999e-01,1.50825e-01,9.95387e-01,9.91287e-01
1.337355710e+00,3.78819e-03,9.99999e-01,3.87007e-03,9.95478e-01,9.83288e-01
1.344042489e+00,7.19906e-05,9.99999e-01,7.60763e-05,9.95567e-01,9.50507e-01
1.350762701e+00,8.46697e-13,9.99999e-01,1.01180e-12,9.95655e-01,8.40476e-01
1.357516515e+00,7.02641e-19,9.99999e-01,1.17514e-18,9.95740e-01,6.00479e-01
1.364304097e+00,4.75190e-12,9.99999e-01,1.16650e-11,9.95824e-01,4.09073e-01
1.371125618e+00,7.26474e-08,9.99999e-01,1.69432e-07,9.95906e-01,4.30532e-01
1.377981246e+00,2.66985e-07,9.99999e-01,5.52026e-07,9.95987e-01,4.85593e-01
1.384871152e+00,2.95150e-10,9.99999e-01,5.80887e-10,9.96066e-01,5.10107e-01
1.391795508e+00,5.10991e-12,9.99999e-01,9.74433e-12,9.96144e-01,5.26427e-01
1.398754485e+00,1.53770e-09,9.99999e-01,2.62242e-09,9.96220e-01,5.88592e-01
1.405748258e+00,2.09783e-09,9.99999e-01,2.87044e-09,9.96294e-01,7.33558e-01
1.412776999e+00,3.07308e-09,9.99999e-01,3.55298e-09,9.96367e-01,8.68083e-01
1.419840884e+00,6.35904e-09,9.99999e-01,6.79015e-09,9.96439e-01,9.39855e-01
1.426940089e+00,1.77310e-06,9.99998e-01,1.86517e-06,9.96509e-01,9.53967e-01
1.434074789e+00,1.66142e-05,9.99999e-01,1.76246e-05,9.96578e-01,9.45908e-01
1.441245163e+00,1.19719e-04,9.99999e-01,1.27579e-04,9.96645e-01,9.41544e-01
1.448451389e+00,2.03620e-03,9.99998e-01,2.15355e-03,9.96711e-01,9.48626e-01
1.455693646e+00,1.44322e-02,9.99999e-01,1.50854e-02,9.96776e-01,9.59793e-01
1.462972114e+00,2.11535e-02,9.99999e-01,2.20676e-02,9.96840e-01,9.61617e-01
1.470286975e+00,1.18537e-02,9.99999e-01,1.23569e-02,9.96902e-01,9.62258e-01
