#,Wave/freq,Total,N2,H2O,Rayleigh,CIA
4.000000000e-01,7.71443e-01,9.99999e-01,9.99970e-01,7.71465e-01,9.99999e-01
4.020000000e-01,7.75419e-01,9.99999e-01,9.99981e-01,7.75433e-01,9.99999e-01
4.040100000e-01,7.79333e-01,9.99999e-01,9.99991e-01,7.79339e-01,9.99999e-01
4.060300500e-01,7.83184e-01,9.99999e-01,9.99997e-01,7.83186e-01,9.99999e-01
4.080602003e-01,7.86975e-01,9.99999e-01,9.99998e-01,7.86976e-01,9.99999e-01
4.101005013e-01,7.90708e-01,9.99999e-01,9.99999e-01,7.90708e-01,9.99999e-01
4.121510038e-01,7.94384e-01,9.99999e-01,9.99998e-01,7.94384e-01,9.99999e-01
4.142117588e-01,7.97998e-01,9.99999e-01,9.99991e-01,7.98004e-01,9.99999e-01
4.162828176e-01,8.01540e-01,9.99999e-01,9.99963e-01,8.01569e-01,9.99999e-01
4.183642317e-01,8.05061e-01,9.99999e-01,9.99977e-01,8.05079e-01,9.99999e-01
4.204560528e-01,8.08523e-01,9.99999e-01,9.99986e-01,8.08534e-01,9.99999e-01
4.225583331e-01,8.11931e-01,9.99999e-01,9.99994e-01,8.11935e-01,9.99999e-01
4.246711247e-01,8.15280e-01,9.99999e-01,9.99995e-01,8.15283e-01,9.99999e-01
4.267944804e-01,8.18574e-01,9.99999e-01,9.99993e-01,8.18579e-01,9.99999e-01
4.289284528e-01,8.21818e-01,9.99999e-01,9.99995e-01,8.21822e-01,9.99999e-01
4.310730950e-01,8.25012e-01,9.99999e-01,9.99997e-01,8.25014e-01,9.99999e-01
4.332284605e-01,8.28154e-01,9.99999e-01,9.99999e-01,8.28154e-01,9.99999e-01
4.353946028e-01,8.31244e-01,9.99999e-01,9.99999e-01,8.31244e-01,9.99999e-01
4.375715758e-01,8.34282e-01,9.99999e-01,9.99995e-01,8.34285e-01,9.99999e-01
4.397594337e-01,8.37249e-01,9.99999e-01,9.99967e-01,8.37276e-01,9.99999e-01
4.419582309e-01,8.40082e-01,9.99999e-01,9.99837e-01,8.40218e-01,9.99999e-01
4.441680220e-01,8.43006e-01,9.99999e-01,9.99873e-01,8.43112e-01,9.99999e-01
4.463888621e-01,8.45848e-01,9.99999e-01,9.99868e-01,8.45959e-01,9.99999e-01
4.486208064e-01,8.48690e-01,9.99999e-01,9.99917e-01,8.48759e-01,9.99999e-01
4.508639105e-01,8.51480e-01,9.99999e-01,9.99961e-01,8.51513e-01,9.99999e-01
4.531182300e-01,8.54208e-01,9.99999e-01,9.99984e-01,8.54220e-01,9.99999e-01
4.553838212e-01,8.56874e-01,9.99999e-01,9.99989e-01,8.56883e-01,9.99999e-01
4.576607403e-01,8.59497e-01,9.99999e-01,9.99994e-01,8.59501e-01,9.99999e-01
4.599490440e-01,8.62073e-01,9.99999e-01,9.99996e-01,8.62076e-01,9.99999e-01
4.622487892e-01,8.64606e-01,9.99999e-01,9.99998e-01,8.64606e-01,9.99999e-01
4.645600332e-01,8.67093e-01,9.99999e-01,9.99997e-01,8.67095e-01,9.99999e-01
4.668828333e-01,8.69507e-01,9.99999e-01,9.99960e-01,8.69540e-01,9.99999e-01
4.692172475e-01,8.71873e-01,9.99999e-01,9.99917e-01,8.71945e-01,9.99999e-01
4.715633337e-01,8.74261e-01,9.99999e-01,9.99945e-01,8.74308e-01,9.99999e-01
4.739211504e-01,8.76586e-01,9.99999e-01,9.99948e-01,8.76631e-01,9.99999e-01
4.762907561e-01,8.78890e-01,9.99999e-01,9.99972e-01,8.78914e-01,9.99999e-01
4.786722099e-01,8.81148e-01,9.99999e-01,9.99988e-01,8.81157e-01,9.99999e-01
4.810655710e-01,8.83359e-01,9.99999e-01,9.99996e-01,8.83362e-01,9.99999e-01
4.834708988e-01,8.85501e-01,9.99999e-01,9.99967e-01,8.85529e-01,9.99999e-01
4.858882533e-01,8.87606e-01,9.99999e-01,9.99941e-01,8.87658e-01,9.99999e-01
4.883176946e-01,8.89706e-01,9.99999e-01,9.99950e-01,8.89750e-01,9.99999e-01
4.907592831e-01,8.91766e-01,9.99999e-01,9.99955e-01,8.91805e-01,9.99999e-01
4.932130795e-01,8.93796e-01,9.99999e-01,9.99968e-01,8.93824e-01,9.99999e-01
4.956791449e-01,8.95793e-01,9.99999e-01,9.99982e-01,8.95808e-01,9.99999e-01
4.981575406e-01,8.97683e-01,9.99999e-01,9.99916e-01,8.97757e-01,9.99999e-01
5.006483283e-01,8.99477e-01,9.99999e-01,9.99784e-01,8.99672e-01,9.99998e-01
5.031515699e-01,9.00561e-01,9.99999e-01,9.98911e-01,9.01553e-01,9.99988e-01
5.056673278e-01,9.02869e-01,9.99999e-01,9.99425e-01,9.03400e-01,9.99986e-01
5.081956644e-01,9.04551e-01,9.99999e-01,9.99275e-01,9.05215e-01,9.99991e-01
5.107366428e-01,9.06552e-01,9.99999e-01,9.99510e-01,9.06997e-01,9.99997e-01
5.132903260e-01,9.08493e-01,9.99999e-01,9.99720e-01,9.08747e-01,9.99999e-01
5.158567776e-01,9.10359e-01,9.99999e-01,9.99881e-01,9.10467e-01,9.99999e-01
5.184360615e-01,9.12112e-01,9.99999e-01,9.99952e-01,9.12155e-01,9.99999e-01
5.210282418e-01,9.13797e-01,9.99999e-01,9.99981e-01,9.13813e-01,9.99999e-01
5.236333830e-01,9.15376e-01,9.99999e-01,9.99928e-01,9.15441e-01,9.99998e-01
5.262515499e-01,9.16999e-01,9.99999e-01,9.99955e-01,9.17040e-01,9.99998e-01
5.288828077e-01,9.18573e-01,9.99999e-01,9.99958e-01,9.18610e-01,9.99999e-01
5.315272217e-01,9.20119e-01,9.99999e-01,9.99963e-01,9.20152e-01,9.99999e-01
5.341848578e-01,9.21644e-01,9.99999e-01,9.99976e-01,9.21666e-01,9.99999e-01
5.368557821e-01,9.23076e-01,9.99999e-01,9.99916e-01,9.23152e-01,9.99999e-01
5.395400610e-01,9.24333e-01,9.99999e-01,9.99701e-01,9.24611e-01,9.99997e-01
5.422377613e-01,9.25681e-01,9.99999e-01,9.99614e-01,9.26044e-01,9.99992e-01
5.449489501e-01,9.27111e-01,9.99999e-01,9.99641e-01,9.27450e-01,9.99992e-01
5.476736949e-01,9.28533e-01,9.99999e-01,9.99682e-01,9.28831e-01,9.99995e-01
5.504120634e-01,9.29971e-01,9.99999e-01,9.99769e-01,9.30186e-01,9.99998e-01
5.531641237e-01,9.31409e-01,9.99999e-01,9.99883e-01,9.31517e-01,9.99999e-01
5.559299443e-01,9.32771e-01,9.99999e-01,9.99943e-01,9.32823e-01,9.99999e-01
5.587095940e-01,9.34073e-01,9.99999e-01,9.99964e-01,9.34105e-01,9.99999e-01
5.615031420e-01,9.35327e-01,9.99999e-01,9.99960e-01,9.35364e-01,9.99999e-01
5.643106577e-01,9.36558e-01,9.99999e-01,9.99955e-01,9.36599e-01,9.99999e-01
5.671322110e-01,9.37302e-01,9.99999e-01,9.99460e-01,9.37812e-01,9.99994e-01
5.699678720e-01,9.38451e-01,9.99999e-01,9.99427e-01,9.39002e-01,9.99984e-01
5.728177114e-01,9.39598e-01,9.99999e-01,9.99403e-01,9.40170e-01,9.99987e-01
5.756818000e-01,9.40795e-01,9.99999e-01,9.99452e-01,9.41316e-01,9.99992e-01
5.785602090e-01,9.41990e-01,9.99999e-01,9.99522e-01,9.42441e-01,9.99997e-01
5.814530100e-01,9.43093e-01,9.99999e-01,9.99520e-01,9.43546e-01,9.99998e-01
5.843602750e-01,9.44087e-01,9.99999e-01,9.99428e-01,9.44629e-01,9.99996e-01
5.872820764e-01,9.41011e-01,9.99999e-01,9.95082e-01,9.45693e-01,9.99964e-01
5.902184868e-01,9.41014e-01,9.99999e-01,9.94048e-01,9.46736e-01,9.99905e-01
5.931695792e-01,9.43688e-01,9.99999e-01,9.95792e-01,9.47760e-01,9.99908e-01
5.961354271e-01,9.44342e-01,9.99999e-01,9.95388e-01,9.48765e-01,9.99947e-01
5.991161043e-01,9.46542e-01,9.99999e-01,9.96636e-01,9.49751e-01,9.99983e-01
6.021116848e-01,9.48902e-01,9.99999e-01,9.98090e-01,9.50719e-01,9.99997e-01
6.051222432e-01,9.50749e-01,9.99999e-01,9.99033e-01,9.51669e-01,9.99999e-01
6.081478544e-01,9.52203e-01,9.99999e-01,9.99582e-01,9.52600e-01,9.99999e-01
6.111885937e-01,9.53346e-01,9.99999e-01,9.99823e-01,9.53514e-01,9.99999e-01
6.142445367e-01,9.54336e-01,9.99999e-01,9.99920e-01,9.54411e-01,9.99999e-01
6.173157594e-01,9.55250e-01,9.99999e-01,9.99956e-01,9.55291e-01,9.99999e-01
6.204023382e-01,9.56120e-01,9.99999e-01,9.99962e-01,9.56155e-01,9.99999e-01
6.235043498e-01,9.56846e-01,9.99999e-01,9.99837e-01,9.57002e-01,9.99999e-01
6.266218716e-01,9.57006e-01,9.99999e-01,9.99142e-01,9.57833e-01,9.99993e-01
6.297549810e-01,9.58336e-01,9.99999e-01,9.99685e-01,9.58648e-01,9.99987e-01
6.329037559e-01,9.58843e-01,9.99999e-01,9.99378e-01,9.59448e-01,9.99989e-01
6.360682746e-01,9.59720e-01,9.99999e-01,9.99470e-01,9.60233e-01,9.99993e-01
6.392486160e-01,9.60342e-01,9.99999e-01,9.99313e-01,9.61003e-01,9.99996e-01
6.424448591e-01,9.60871e-01,9.99999e-01,9.99080e-01,9.61759e-01,9.99995e-01
6.456570834e-01,9.58376e-01,9.99999e-01,9.95738e-01,9.62500e-01,9.99975e-01
6.488853688e-01,9.60160e-01,9.99999e-01,9.96881e-01,9.63226e-01,9.99933e-01
6.521297956e-01,9.60824e-01,9.99999e-01,9.96821e-01,9.63940e-01,9.99944e-01
6.553904446e-01,9.61548e-01,9.99999e-01,9.96835e-01,9.64639e-01,9.99958e-01
6.586673968e-01,9.62697e-01,9.99999e-01,9.97290e-01,9.65325e-01,9.99985e-01
6.619607338e-01,9.64537e-01,9.99999e-01,9.98489e-01,9.65998e-01,9.99996e-01
6.652705375e-01,9.65781e-01,9.99999e-01,9.99093e-01,9.66659e-01,9.99998e-01
6.685968902e-01,9.66899e-01,9.99999e-01,9.99578e-01,9.67306e-01,9.99999e-01
6.719398746e-01,9.67753e-01,9.99999e-01,9.99804e-01,9.67942e-01,9.99999e-01
6.752995740e-01,9.68462e-01,9.99999e-01,9.99893e-01,9.68565e-01,9.99999e-01
6.786760719e-01,9.69028e-01,9.99999e-01,9.99846e-01,9.69176e-01,9.99999e-01
6.820694522e-01,9.69521e-01,9.99999e-01,9.99738e-01,9.69776e-01,9.99998e-01
6.854797995e-01,9.70034e-01,9.99999e-01,9.99662e-01,9.70364e-01,9.99996e-01
6.889071985e-01,9.70139e-01,9.99999e-01,9.99181e-01,9.70940e-01,9.99992e-01
6.923517345e-01,9.58542e-01,9.99999e-01,9.86718e-01,9.71506e-01,9.99935e-01
6.958134932e-01,9.65207e-01,9.99999e-01,9.93088e-01,9.72061e-01,9.99858e-01
6.992925606e-01,9.66082e-01,9.99999e-01,9.93418e-01,9.72605e-01,9.99872e-01
7.027890234e-01,9.65149e-01,9.99999e-01,9.91885e-01,9.73139e-01,9.99902e-01
7.063029686e-01,9.66969e-01,9.99999e-01,9.93173e-01,9.73662e-01,9.99951e-01
7.098344834e-01,9.67767e-01,9.99999e-01,9.93449e-01,9.74176e-01,9.99970e-01
7.133836558e-01,9.66114e-01,9.99999e-01,9.91268e-01,9.74679e-01,9.99942e-01
7.169505741e-01,9.08396e-01,9.99999e-01,9.31940e-01,9.75173e-01,9.99551e-01
7.205353270e-01,9.41888e-01,9.99999e-01,9.66150e-01,9.75658e-01,9.99209e-01
7.241380036e-01,9.33644e-01,9.99999e-01,9.57125e-01,9.76133e-01,9.99317e-01
7.277586936e-01,9.38217e-01,9.99999e-01,9.61234e-01,9.76599e-01,9.99441e-01
7.313974871e-01,9.36595e-01,9.99999e-01,9.58839e-01,9.77055e-01,9.99738e-01
7.350544745e-01,9.55232e-01,9.99999e-01,9.77304e-01,9.77503e-01,9.99908e-01
7.387297469e-01,9.61523e-01,9.99999e-01,9.83250e-01,9.77943e-01,9.99957e-01
7.424233956e-01,9.70318e-01,9.99999e-01,9.91774e-01,9.78374e-01,9.99991e-01
7.461355126e-01,9.73909e-01,9.99999e-01,9.95007e-01,9.78796e-01,9.99998e-01
7.498661902e-01,9.76933e-01,9.99999e-01,9.97673e-01,9.79211e-01,9.99999e-01
7.536155211e-01,9.78499e-01,9.99999e-01,9.98857e-01,9.79617e-01,9.99999e-01
7.573835987e-01,9.79440e-01,9.99999e-01,9.99411e-01,9.80016e-01,9.99999e-01
7.611705167e-01,9.80049e-01,9.99999e-01,9.99634e-01,9.80407e-01,9.99999e-01
7.649763693e-01,9.80565e-01,9.99999e-01,9.99770e-01,9.80790e-01,9.99999e-01
7.688012511e-01,9.81009e-01,9.99999e-01,9.99840e-01,9.81166e-01,9.99999e-01
7.726452574e-01,9.81405e-01,9.99999e-01,9.99868e-01,9.81534e-01,9.99999e-01
7.765084837e-01,9.81712e-01,9.99999e-01,9.99813e-01,9.81896e-01,9.99999e-01
7.803910261e-01,9.81457e-01,9.99999e-01,9.99193e-01,9.82250e-01,9.99998e-01
7.842929812e-01,9.79829e-01,9.99999e-01,9.97186e-01,9.82598e-01,9.99994e-01
7.882144461e-01,9.77214e-01,9.99999e-01,9.94214e-01,9.82938e-01,9.99959e-01
7.921555184e-01,9.80084e-01,9.99999e-01,9.96826e-01,9.83272e-01,9.99930e-01
7.961162960e-01,9.78019e-01,9.99999e-01,9.94390e-01,9.83600e-01,9.99933e-01
8.000968774e-01,9.77483e-01,9.99999e-01,9.93524e-01,9.83921e-01,9.99929e-01
8.040973618e-01,9.77807e-01,9.99999e-01,9.93522e-01,9.84236e-01,9.99944e-01
8.081178486e-01,9.70165e-01,9.99999e-01,9.85444e-01,9.84545e-01,9.99947e-01
8.121584379e-01,9.26280e-01,9.99999e-01,9.40722e-01,9.84848e-01,9.99795e-01
8.162192301e-01,9.15571e-01,9.99999e-01,9.30091e-01,9.85145e-01,9.99230e-01
8.203003262e-01,9.49683e-01,9.99999e-01,9.64586e-01,9.85437e-01,9.99099e-01
8.244018279e-01,9.36759e-01,9.99999e-01,9.51008e-01,9.85722e-01,9.99283e-01
8.285238370e-01,9.43707e-01,9.99999e-01,9.57642e-01,9.86002e-01,9.99436e-01
8.326664562e-01,9.43859e-01,9.99999e-01,9.57214e-01,9.86277e-01,9.99766e-01
8.368297885e-01,9.56155e-01,9.99999e-01,9.69245e-01,9.86546e-01,9.99946e-01
8.410139374e-01,9.68640e-01,9.99999e-01,9.81616e-01,9.86810e-01,9.99968e-01
8.452190071e-01,9.78115e-01,9.99999e-01,9.90946e-01,9.87069e-01,9.99980e-01
8.494451021e-01,9.82113e-01,9.99999e-01,9.94737e-01,9.87323e-01,9.99984e-01
8.536923276e-01,9.84488e-01,9.99999e-01,9.96886e-01,9.87571e-01,9.99990e-01
8.579607893e-01,9.85918e-01,9.99999e-01,9.98081e-01,9.87815e-01,9.99997e-01
8.622505932e-01,9.86850e-01,9.99999e-01,9.98780e-01,9.88055e-01,9.99999e-01
8.665618462e-01,9.87544e-01,9.99999e-01,9.99245e-01,9.88289e-01,9.99999e-01
8.708946554e-01,9.87665e-01,9.99999e-01,9.99135e-01,9.88519e-01,9.99999e-01
8.752491287e-01,9.87601e-01,9.99999e-01,9.98844e-01,9.88745e-01,9.99998e-01
8.796253743e-01,9.87380e-01,9.99999e-01,9.98399e-01,9.88966e-01,9.99995e-01
8.840235012e-01,9.87364e-01,9.99999e-01,9.98171e-01,9.89182e-01,9.99988e-01
8.884436187e-01,9.82771e-01,9.99999e-01,9.93336e-01,9.89395e-01,9.99967e-01
8.928858368e-01,9.22195e-01,9.99999e-01,9.32053e-01,9.89603e-01,9.99816e-01
8.973502660e-01,8.73279e-01,9.99999e-01,8.83097e-01,9.89808e-01,9.99064e-01
9.018370173e-01,9.27818e-01,9.99999e-01,9.38562e-01,9.90008e-01,9.98529e-01
9.063462024e-01,9.35153e-01,9.99999e-01,9.45625e-01,9.90204e-01,9.98708e-01
9.108779334e-01,9.06526e-01,9.99999e-01,9.16545e-01,9.90397e-01,9.98657e-01
9.154323231e-01,8.96197e-01,9.99999e-01,9.05718e-01,9.90586e-01,9.98890e-01
9.200094847e-01,9.16320e-01,9.99999e-01,9.25429e-01,9.90771e-01,9.99378e-01
9.246095321e-01,8.77775e-01,9.99999e-01,8.86423e-01,9.90952e-01,9.99283e-01
9.292325798e-01,4.46338e-01,9.99999e-01,4.51591e-01,9.91130e-01,9.97211e-01
9.338787427e-01,3.52746e-01,9.99999e-01,3.59970e-01,9.91304e-01,9.88525e-01
9.385481364e-01,6.46746e-01,9.99999e-01,6.61321e-01,9.91475e-01,9.86367e-01
9.432408771e-01,5.54871e-01,9.99999e-01,5.66212e-01,9.91643e-01,9.88228e-01
9.479570815e-01,4.50615e-01,9.99999e-01,4.58736e-01,9.91807e-01,9.90408e-01
9.526968669e-01,5.45932e-01,9.99999e-01,5.53596e-01,9.91969e-01,9.94138e-01
9.574603512e-01,5.69557e-01,9.99999e-01,5.75793e-01,9.92127e-01,9.97018e-01
9.622476530e-01,6.30600e-01,9.99999e-01,6.36818e-01,9.92281e-01,9.97937e-01
9.670588912e-01,7.63563e-01,9.99999e-01,7.70471e-01,9.92433e-01,9.98588e-01
9.718941857e-01,8.41604e-01,9.99999e-01,8.48774e-01,9.92582e-01,9.98960e-01
9.767536566e-01,8.65672e-01,9.99999e-01,8.72705e-01,9.92728e-01,9.99205e-01
9.816374249e-01,8.97271e-01,9.99999e-01,9.03961e-01,9.92871e-01,9.99724e-01
9.865456120e-01,9.32227e-01,9.99999e-01,9.38840e-01,9.93012e-01,9.99942e-01
9.914783401e-01,9.55127e-01,9.99999e-01,9.61730e-01,9.93149e-01,9.99983e-01
9.964357318e-01,9.72394e-01,9.99999e-01,9.78977e-01,9.93284e-01,9.99990e-01
1.001417910e+00,9.80835e-01,9.99999e-01,9.87348e-01,9.93416e-01,9.99985e-01
1.006425000e+00,9.86341e-01,9.99999e-01,9.92768e-01,9.93546e-01,9.99979e-01
1.011457125e+00,9.89190e-01,9.99999e-01,9.95507e-01,9.93673e-01,9.99980e-01
1.016514411e+00,9.90751e-01,9.99999e-01,9.96947e-01,9.93797e-01,9.99986e-01
1.021596983e+00,9.91489e-01,9.99999e-01,9.97566e-01,9.93920e-01,9.99986e-01
1.026704968e+00,9.92144e-01,9.99999e-01,9.98101e-01,9.94039e-01,9.99990e-01
1.031838492e+00,9.92783e-01,9.99999e-01,9.98620e-01,9.94157e-01,9.99997e-01
1.036997685e+00,9.93457e-01,9.99999e-01,9.99180e-01,9.94272e-01,9.99999e-01
1.042182673e+00,9.93413e-01,9.99999e-01,9.99022e-01,9.94385e-01,9.99999e-01
1.047393587e+00,9.93206e-01,9.99999e-01,9.98703e-01,9.94495e-01,9.99999e-01
1.052630555e+00,9.92835e-01,9.99999e-01,9.98221e-01,9.94604e-01,9.99999e-01
1.057893707e+00,9.91757e-01,9.99999e-01,9.97031e-01,9.94710e-01,9.99998e-01
1.063183176e+00,9.89958e-01,9.99999e-01,9.95120e-01,9.94814e-01,9.99996e-01
1.068499092e+00,9.86794e-01,9.99999e-01,9.91841e-01,9.94916e-01,9.99994e-01
1.073841587e+00,9.85509e-01,9.99999e-01,9.90456e-01,9.95016e-01,9.99987e-01
1.079210795e+00,9.82930e-01,9.99999e-01,9.87787e-01,9.95115e-01,9.99966e-01
1.084606849e+00,9.76790e-01,9.99999e-01,9.81567e-01,9.95211e-01,9.99920e-01
1.090029883e+00,9.68889e-01,9.99999e-01,9.73617e-01,9.95305e-01,9.99836e-01
1.095480033e+00,9.25206e-01,9.99999e-01,9.29757e-01,9.95398e-01,9.99704e-01
1.100957433e+00,8.27147e-01,9.99999e-01,8.31346e-01,9.95488e-01,9.99456e-01
1.106462220e+00,6.24722e-01,9.99999e-01,6.28075e-01,9.95577e-01,9.99079e-01
1.111994531e+00,3.76853e-01,9.99999e-01,3.79419e-01,9.95664e-01,9.97558e-01
1.117554504e+00,2.08941e-01,9.99999e-01,2.11693e-01,9.95750e-01,9.91214e-01
1.123142276e+00,3.20548e-01,9.99999e-01,3.28695e-01,9.95834e-01,9.79292e-01
1.128757988e+00,4.68068e-01,9.99999e-01,4.81502e-01,9.95916e-01,9.76084e-01
1.134401778e+00,2.39038e-01,9.99999e-01,2.44989e-01,9.95996e-01,9.79627e-01
1.140073787e+00,6.29135e-01,9.99999e-01,6.42086e-01,9.96075e-01,9.83688e-01
1.145774156e+00,3.96216e-01,9.99999e-01,4.03779e-01,9.96152e-01,9.85059e-01
1.151503026e+00,3.61970e-01,9.99999e-01,3.66399e-01,9.96228e-01,9.91648e-01
1.157260541e+00,4.21476e-01,9.99999e-01,4.24102e-01,9.96303e-01,9.97495e-01
1.163046844e+00,5.26968e-01,9.99999e-01,5.29261e-01,9.96375e-01,9.99289e-01
1.168862078e+00,6.37841e-01,9.99999e-01,6.40349e-01,9.96447e-01,9.99633e-01
1.174706389e+00,7.56376e-01,9.99999e-01,7.59388e-01,9.96517e-01,9.99514e-01
1.180579921e+00,8.41990e-01,9.99999e-01,8.45494e-01,9.96586e-01,9.99266e-01
1.186482820e+00,9.05660e-01,9.99999e-01,9.09386e-01,9.96653e-01,9.99246e-01
1.192415234e+00,9.42417e-01,9.99999e-01,9.46051e-01,9.96719e-01,9.99435e-01
1.198377311e+00,9.50756e-01,9.99999e-01,9.54331e-01,9.96784e-01,9.99466e-01
1.204369197e+00,9.53286e-01,9.99999e-01,9.56761e-01,9.96847e-01,9.99517e-01
1.210391043e+00,9.55355e-01,9.99999e-01,9.58597e-01,9.96909e-01,9.99706e-01
1.216442998e+00,9.61583e-01,9.99999e-01,9.64678e-01,9.96970e-01,9.99819e-01
1.222525213e+00,9.69389e-01,9.99999e-01,9.72384e-01,9.97030e-01,9.99887e-01
1.228637839e+00,9.77837e-01,9.99999e-01,9.80742e-01,9.97088e-01,9.99947e-01
1.234781029e+00,9.82841e-01,9.99999e-01,9.85668e-01,9.97146e-01,9.99984e-01
1.240954934e+00,9.88139e-01,9.99999e-01,9.90914e-01,9.97202e-01,9.99995e-01
1.247159708e+00,9.90194e-01,9.99999e-01,9.92919e-01,9.97257e-01,9.99996e-01
1.253395507e+00,9.91036e-01,9.99999e-01,9.93710e-01,9.97311e-01,9.99996e-01
1.259662485e+00,9.91399e-01,9.99999e-01,9.94023e-01,9.97364e-01,9.99993e-01
1.265960797e+00,9.87900e-01,9.99999e-01,9.90467e-01,9.97416e-01,9.99990e-01
1.272290601e+00,9.82550e-01,9.99999e-01,9.85060e-01,9.97467e-01,9.99983e-01
1.278652054e+00,9.68079e-01,9.99999e-01,9.70515e-01,9.97517e-01,9.99970e-01
1.285045314e+00,9.44808e-01,9.99999e-01,9.47164e-01,9.97566e-01,9.99945e-01
1.291470541e+00,9.07500e-01,9.99999e-01,9.09756e-01,9.97614e-01,9.99904e-01
1.297927893e+00,8.81834e-01,9.99999e-01,8.84056e-01,9.97661e-01,9.99822e-01
1.304417533e+00,8.51284e-01,9.99999e-01,8.53560e-01,9.97707e-01,9.99624e-01
1.310939621e+00,8.31533e-01,9.99999e-01,8.34047e-01,9.97753e-01,9.99229e-01
1.317494319e+00,8.18638e-01,9.99999e-01,8.21614e-01,9.97797e-01,9.98575e-01
1.324081790e+00,7.42648e-01,9.99999e-01,7.45988e-01,9.97840e-01,9.97676e-01
1.330702199e+00,3.42303e-01,9.99999e-01,3.44407e-01,9.97883e-01,9.95996e-01
1.337355710e+00,5.78838e-02,9.99999e-01,5.84539e-02,9.97925e-01,9.92305e-01
1.344042489e+00,2.28488e-03,9.99999e-01,2.34342e-03,9.97966e-01,9.77002e-01
1.350762701e+00,7.97154e-07,9.99999e-01,8.64972e-07,9.98006e-01,9.23435e-01
1.357516515e+00,1.33421e-09,9.99999e-01,1.68888e-09,9.98045e-01,7.91544e-01
1.364304097e+00,2.03144e-06,9.99999e-01,3.06596e-06,9.98084e-01,6.63850e-01
1.371125618e+00,1.53175e-04,9.99999e-01,2.25817e-04,9.98121e-01,6.79591e-01
1.377981246e+00,4.79388e-04,9.99999e-01,6.68780e-04,9.98159e-01,7.18131e-01
1.384871152e+00,6.73605e-06,9.99999e-01,9.18717e-06,9.98195e-01,7.34526e-01
1.391795508e+00,2.81819e-06,9.99999e-01,3.78846e-06,9.98230e-01,7.45206e-01
1.398754485e+00,3.10037e-05,9.99999e-01,3.95979e-05,9.98265e-01,7.84323e-01
1.405748258e+00,3.22664e-05,9.99999e-01,3.72534e-05,9.98300e-01,8.67605e-01
1.412776999e+00,3.35208e-05,9.99999e-01,3.58260e-05,9.98333e-01,9.37215e-01
1.419840884e+00,6.92024e-05,9.99999e-01,7.13146e-05,9.98366e-01,9.71969e-01
1.426940089e+00,6.19632e-04,9.99999e-01,6.34177e-04,9.98398e-01,9.78631e-01
1.434074789e+00,3.29878e-03,9.99999e-01,3.38926e-03,9.98430e-01,9.74833e-01
1.441245163e+00,1.04491e-02,9.99999e-01,1.07582e-02,9.98461e-01,9.72769e-01
1.448451389e+00,4.08235e-02,9.99999e-01,4.18855e-02,9.98491e-01,9.76116e-01
1.455693646e+00,1.14254e-01,9.99999e-01,1.16595e-01,9.98521e-01,9.81366e-01
1.462972114e+00,1.49978e-01,9.99999e-01,1.52914e-01,9.98550e-01,9.82220e-01
1.470286975e+00,1.10805e-01,9.99999e-01,1.12937e-01,9.98579e-01,9.82520e-01
