#,Wave/freq,Total,N2,H2O,Rayleigh,CIA
4.000000000e-01,6.85116e-01,9.99999e-01,9.99956e-01,6.85145e-01,9.99999e-01
4.020000000e-01,6.90268e-01,9.99999e-01,9.99973e-01,6.90287e-01,9.99999e-01
4.040100000e-01,6.95351e-01,9.99999e-01,9.99988e-01,6.95359e-01,9.99999e-01
4.060300500e-01,7.00365e-01,9.99999e-01,9.99996e-01,7.00367e-01,9.99999e-01
4.080602003e-01,7.05311e-01,9.99999e-01,9.99998e-01,7.05311e-01,9.99999e-01
4.101005013e-01,7.10192e-01,9.99999e-01,9.99999e-01,7.10192e-01,9.99999e-01
4.121510038e-01,7.15008e-01,9.99999e-01,9.99997e-01,7.15009e-01,9.99999e-01
4.142117588e-01,7.19754e-01,9.99999e-01,9.99987e-01,7.19762e-01,9.99999e-01
4.162828176e-01,7.24414e-01,9.99999e-01,9.99946e-01,7.24453e-01,9.99999e-01
4.183642317e-01,7.29057e-01,9.99999e-01,9.99968e-01,7.29080e-01,9.99999e-01
4.204560528e-01,7.33630e-01,9.99999e-01,9.99980e-01,7.33645e-01,9.99999e-01
4.225583331e-01,7.38141e-01,9.99999e-01,9.99992e-01,7.38147e-01,9.99999e-01
4.246711247e-01,7.42582e-01,9.99999e-01,9.99993e-01,7.42587e-01,9.99999e-01
4.267944804e-01,7.46959e-01,9.99999e-01,9.99991e-01,7.46965e-01,9.99999e-01
4.289284528e-01,7.51277e-01,9.99999e-01,9.99992e-01,7.51282e-01,9.99999e-01
4.310730950e-01,7.55535e-01,9.99999e-01,9.99996e-01,7.55538e-01,9.99999e-01
4.332284605e-01,7.59732e-01,9.99999e-01,9.99998e-01,7.59733e-01,9.99999e-01
4.353946028e-01,7.63867e-01,9.99999e-01,9.99999e-01,7.63867e-01,9.99999e-01
4.375715758e-01,7.67938e-01,9.99999e-01,9.99994e-01,7.67942e-01,9.99999e-01
4.397594337e-01,7.71922e-01,9.99999e-01,9.99953e-01,7.71958e-01,9.99999e-01
4.419582309e-01,7.75732e-01,9.99999e-01,9.99764e-01,7.75915e-01,9.99999e-01
4.441680220e-01,7.79669e-01,9.99999e-01,9.99815e-01,7.79813e-01,9.99999e-01
4.463888621e-01,7.83503e-01,9.99999e-01,9.99808e-01,7.83653e-01,9.99999e-01
4.486208064e-01,7.87342e-01,9.99999e-01,9.99880e-01,7.87436e-01,9.99999e-01
4.508639105e-01,7.91118e-01,9.99999e-01,9.99943e-01,7.91162e-01,9.99999e-01
4.531182300e-01,7.94813e-01,9.99999e-01,9.99977e-01,7.94831e-01,9.99999e-01
4.553838212e-01,7.98432e-01,9.99999e-01,9.99984e-01,7.98444e-01,9.99999e-01
4.576607403e-01,8.01996e-01,9.99999e-01,9.99992e-01,8.02002e-01,9.99999e-01
4.599490440e-01,8.05501e-01,9.99999e-01,9.99994e-01,8.05505e-01,9.99999e-01
4.622487892e-01,8.08953e-01,9.99999e-01,9.99998e-01,8.08954e-01,9.99999e-01
4.645600332e-01,8.12346e-01,9.99999e-01,9.99996e-01,8.12348e-01,9.99999e-01
4.668828333e-01,8.15644e-01,9.99999e-01,9.99943e-01,8.15690e-01,9.99999e-01
4.692172475e-01,8.18881e-01,9.99999e-01,9.99879e-01,8.18979e-01,9.99999e-01
4.715633337e-01,8.22151e-01,9.99999e-01,9.99921e-01,8.22216e-01,9.99999e-01
4.739211504e-01,8.25339e-01,9.99999e-01,9.99924e-01,8.25401e-01,9.99999e-01
4.762907561e-01,8.28503e-01,9.99999e-01,9.99960e-01,8.28535e-01,9.99999e-01
4.786722099e-01,8.31606e-01,9.99999e-01,9.99983e-01,8.31619e-01,9.99999e-01
4.810655710e-01,8.34650e-01,9.99999e-01,9.99994e-01,8.34654e-01,9.99999e-01
4.834708988e-01,8.37600e-01,9.99999e-01,9.99953e-01,8.37639e-01,9.99999e-01
4.858882533e-01,8.40504e-01,9.99999e-01,9.99914e-01,8.40575e-01,9.99999e-01
4.883176946e-01,8.43404e-01,9.99999e-01,9.99928e-01,8.43464e-01,9.99999e-01
4.907592831e-01,8.46250e-01,9.99999e-01,9.99935e-01,8.46305e-01,9.99999e-01
4.932130795e-01,8.49060e-01,9.99999e-01,9.99953e-01,8.49099e-01,9.99999e-01
4.956791449e-01,8.51826e-01,9.99999e-01,9.99975e-01,8.51847e-01,9.99999e-01
4.981575406e-01,8.54446e-01,9.99999e-01,9.99878e-01,8.54549e-01,9.99999e-01
5.006483283e-01,8.56937e-01,9.99999e-01,9.99687e-01,8.57206e-01,9.99997e-01
5.031515699e-01,8.58442e-01,9.99999e-01,9.98414e-01,8.59819e-01,9.99982e-01
5.056673278e-01,8.61650e-01,9.99999e-01,9.99162e-01,8.62388e-01,9.99980e-01
5.081956644e-01,8.63990e-01,9.99999e-01,9.98943e-01,8.64914e-01,9.99987e-01
5.107366428e-01,8.66776e-01,9.99999e-01,9.99286e-01,8.67396e-01,9.99997e-01
5.132903260e-01,8.69482e-01,9.99999e-01,9.99591e-01,8.69837e-01,9.99999e-01
5.158567776e-01,8.72086e-01,9.99999e-01,9.99827e-01,8.72236e-01,9.99999e-01
5.184360615e-01,8.74534e-01,9.99999e-01,9.99930e-01,8.74595e-01,9.99999e-01
5.210282418e-01,8.76890e-01,9.99999e-01,9.99973e-01,8.76913e-01,9.99999e-01
5.236333830e-01,8.79099e-01,9.99999e-01,9.99896e-01,8.79191e-01,9.99998e-01
5.262515499e-01,8.81372e-01,9.99999e-01,9.99934e-01,8.81429e-01,9.99998e-01
5.288828077e-01,8.83577e-01,9.99999e-01,9.99940e-01,8.83629e-01,9.99998e-01
5.315272217e-01,8.85745e-01,9.99999e-01,9.99947e-01,8.85791e-01,9.99999e-01
5.341848578e-01,8.87886e-01,9.99999e-01,9.99965e-01,8.87916e-01,9.99999e-01
5.368557821e-01,8.89896e-01,9.99999e-01,9.99879e-01,8.90003e-01,9.99999e-01
5.395400610e-01,8.91664e-01,9.99999e-01,9.99566e-01,8.92054e-01,9.99995e-01
5.422377613e-01,8.93558e-01,9.99999e-01,9.99438e-01,8.94069e-01,9.99989e-01
5.449489501e-01,8.95572e-01,9.99999e-01,9.99477e-01,8.96049e-01,9.99988e-01
5.476736949e-01,8.97574e-01,9.99999e-01,9.99536e-01,8.97994e-01,9.99994e-01
5.504120634e-01,8.99601e-01,9.99999e-01,9.99663e-01,8.99904e-01,9.99998e-01
5.531641237e-01,9.01628e-01,9.99999e-01,9.99830e-01,9.01781e-01,9.99999e-01
5.559299443e-01,9.03550e-01,9.99999e-01,9.99918e-01,9.03624e-01,9.99999e-01
5.587095940e-01,9.05388e-01,9.99999e-01,9.99948e-01,9.05435e-01,9.99999e-01
5.615031420e-01,9.07161e-01,9.99999e-01,9.99942e-01,9.07213e-01,9.99999e-01
5.643106577e-01,9.08901e-01,9.99999e-01,9.99935e-01,9.08960e-01,9.99998e-01
5.671322110e-01,9.09957e-01,9.99999e-01,9.99217e-01,9.10675e-01,9.99992e-01
5.699678720e-01,9.11578e-01,9.99999e-01,9.99164e-01,9.12360e-01,9.99978e-01
5.728177114e-01,9.13205e-01,9.99999e-01,9.99131e-01,9.14014e-01,9.99981e-01
5.756818000e-01,9.14899e-01,9.99999e-01,9.99202e-01,9.15639e-01,9.99988e-01
5.785602090e-01,9.16594e-01,9.99999e-01,9.99304e-01,9.17234e-01,9.99996e-01
5.814530100e-01,9.18158e-01,9.99999e-01,9.99301e-01,9.18801e-01,9.99998e-01
5.843602750e-01,9.19570e-01,9.99999e-01,9.99169e-01,9.20339e-01,9.99994e-01
5.872820764e-01,9.15221e-01,9.99999e-01,9.92859e-01,9.21849e-01,9.99949e-01
5.902184868e-01,9.15207e-01,9.99999e-01,9.91336e-01,9.23332e-01,9.99862e-01
5.931695792e-01,9.19006e-01,9.99999e-01,9.93878e-01,9.24788e-01,9.99867e-01
5.961354271e-01,9.19930e-01,9.99999e-01,9.93286e-01,9.26217e-01,9.99923e-01
5.991161043e-01,9.23053e-01,9.99999e-01,9.95099e-01,9.27621e-01,9.99976e-01
6.021116848e-01,9.26410e-01,9.99999e-01,9.97215e-01,9.28998e-01,9.99996e-01
6.051222432e-01,9.29040e-01,9.99999e-01,9.98590e-01,9.30351e-01,9.99999e-01
6.081478544e-01,9.31112e-01,9.99999e-01,9.99391e-01,9.31678e-01,9.99999e-01
6.111885937e-01,9.32742e-01,9.99999e-01,9.99742e-01,9.32982e-01,9.99999e-01
6.142445367e-01,9.34154e-01,9.99999e-01,9.99884e-01,9.34261e-01,9.99999e-01
6.173157594e-01,9.35457e-01,9.99999e-01,9.99936e-01,9.35517e-01,9.99999e-01
6.204023382e-01,9.36699e-01,9.99999e-01,9.99946e-01,9.36749e-01,9.99999e-01
6.235043498e-01,9.37738e-01,9.99999e-01,9.99764e-01,9.37959e-01,9.99998e-01
6.266218716e-01,9.37965e-01,9.99999e-01,9.98750e-01,9.39146e-01,9.99990e-01
6.297549810e-01,9.39864e-01,9.99999e-01,9.99541e-01,9.40312e-01,9.99981e-01
6.329037559e-01,9.40589e-01,9.99999e-01,9.99093e-01,9.41455e-01,9.99985e-01
6.360682746e-01,9.41844e-01,9.99999e-01,9.99228e-01,9.42578e-01,9.99991e-01
6.392486160e-01,9.42733e-01,9.99999e-01,9.99000e-01,9.43679e-01,9.99995e-01
6.424448591e-01,9.43494e-01,9.99999e-01,9.98664e-01,9.44761e-01,9.99993e-01
6.456570834e-01,9.39936e-01,9.99999e-01,9.93810e-01,9.45822e-01,9.99965e-01
6.488853688e-01,9.42472e-01,9.99999e-01,9.95457e-01,9.46863e-01,9.99903e-01
6.521297956e-01,9.43422e-01,9.99999e-01,9.95370e-01,9.47885e-01,9.99920e-01
6.553904446e-01,9.44461e-01,9.99999e-01,9.95394e-01,9.48887e-01,9.99940e-01
6.586673968e-01,9.46102e-01,9.99999e-01,9.96051e-01,9.49871e-01,9.99979e-01
6.619607338e-01,9.48661e-01,9.99999e-01,9.97715e-01,9.50836e-01,9.99995e-01
6.652705375e-01,9.50523e-01,9.99999e-01,9.98677e-01,9.51784e-01,9.99997e-01
6.685968902e-01,9.52127e-01,9.99999e-01,9.99385e-01,9.52713e-01,9.99999e-01
6.719398746e-01,9.53354e-01,9.99999e-01,9.99714e-01,9.53625e-01,9.99999e-01
6.752995740e-01,9.54373e-01,9.99999e-01,9.99845e-01,9.54520e-01,9.99999e-01
6.786760719e-01,9.55185e-01,9.99999e-01,9.99777e-01,9.55398e-01,9.99999e-01
6.820694522e-01,9.55893e-01,9.99999e-01,9.99618e-01,9.56259e-01,9.99997e-01
6.854797995e-01,9.56631e-01,9.99999e-01,9.99508e-01,9.57105e-01,9.99995e-01
6.889071985e-01,9.56787e-01,9.99999e-01,9.98813e-01,9.57934e-01,9.99988e-01
6.923517345e-01,9.40206e-01,9.99999e-01,9.80751e-01,9.58747e-01,9.99906e-01
6.958134932e-01,9.49676e-01,9.99999e-01,9.89918e-01,9.59545e-01,9.99793e-01
6.992925606e-01,9.50975e-01,9.99999e-01,9.90443e-01,9.60328e-01,9.99813e-01
7.027890234e-01,9.49618e-01,9.99999e-01,9.88196e-01,9.61097e-01,9.99857e-01
7.063029686e-01,9.52230e-01,9.99999e-01,9.90067e-01,9.61850e-01,9.99928e-01
7.098344834e-01,9.53374e-01,9.99999e-01,9.90467e-01,9.62589e-01,9.99957e-01
7.133836558e-01,9.51048e-01,9.99999e-01,9.87347e-01,9.63315e-01,9.99916e-01
7.169505741e-01,8.69879e-01,9.99999e-01,9.02928e-01,9.64026e-01,9.99346e-01
7.205353270e-01,9.16455e-01,9.99999e-01,9.51060e-01,9.64724e-01,9.98848e-01
7.241380036e-01,9.04981e-01,9.99999e-01,9.38340e-01,9.65408e-01,9.99005e-01
7.277586936e-01,9.11420e-01,9.99999e-01,9.44187e-01,9.66080e-01,9.99186e-01
7.313974871e-01,9.08987e-01,9.99999e-01,9.40618e-01,9.66739e-01,9.99618e-01
7.350544745e-01,9.35445e-01,9.99999e-01,9.67110e-01,9.67385e-01,9.99867e-01
7.387297469e-01,9.44417e-01,9.99999e-01,9.75677e-01,9.68019e-01,9.99938e-01
7.424233956e-01,9.57027e-01,9.99999e-01,9.88021e-01,9.68640e-01,9.99987e-01
7.461355126e-01,9.62198e-01,9.99999e-01,9.92726e-01,9.69250e-01,9.99997e-01
7.498661902e-01,9.66556e-01,9.99999e-01,9.96605e-01,9.69848e-01,9.99998e-01
7.536155211e-01,9.68819e-01,9.99999e-01,9.98334e-01,9.70435e-01,9.99999e-01
7.573835987e-01,9.70178e-01,9.99999e-01,9.99142e-01,9.71010e-01,9.99999e-01
7.611705167e-01,9.71057e-01,9.99999e-01,9.99467e-01,9.71575e-01,9.99999e-01
7.649763693e-01,9.71804e-01,9.99999e-01,9.99665e-01,9.72128e-01,9.99999e-01
7.688012511e-01,9.72445e-01,9.99999e-01,9.99767e-01,9.72671e-01,9.99999e-01
7.726452574e-01,9.73018e-01,9.99999e-01,9.99808e-01,9.73204e-01,9.99999e-01
7.765084837e-01,9.73461e-01,9.99999e-01,9.99728e-01,9.73726e-01,9.99999e-01
7.803910261e-01,9.73095e-01,9.99999e-01,9.98827e-01,9.74238e-01,9.99998e-01
7.842929812e-01,9.70750e-01,9.99999e-01,9.95912e-01,9.74740e-01,9.99991e-01
7.882144461e-01,9.66975e-01,9.99999e-01,9.91582e-01,9.75233e-01,9.99947e-01
7.921555184e-01,9.71105e-01,9.99999e-01,9.95373e-01,9.75716e-01,9.99899e-01
7.961162960e-01,9.68143e-01,9.99999e-01,9.91850e-01,9.76190e-01,9.99903e-01
8.000968774e-01,9.67357e-01,9.99999e-01,9.90579e-01,9.76655e-01,9.99897e-01
8.040973618e-01,9.67829e-01,9.99999e-01,9.90580e-01,9.77111e-01,9.99918e-01
8.081178486e-01,9.56881e-01,9.99999e-01,9.78922e-01,9.77558e-01,9.99923e-01
8.121584379e-01,8.94759e-01,9.99999e-01,9.15161e-01,9.77996e-01,9.99701e-01
8.162192301e-01,8.79616e-01,9.99999e-01,9.00019e-01,9.78426e-01,9.98879e-01
8.203003262e-01,9.28115e-01,9.99999e-01,9.49416e-01,9.78848e-01,9.98688e-01
8.244018279e-01,9.09745e-01,9.99999e-01,9.29982e-01,9.79261e-01,9.98955e-01
8.285238370e-01,9.19189e-01,9.99999e-01,9.39037e-01,9.79666e-01,9.99179e-01
8.326664562e-01,9.19374e-01,9.99999e-01,9.38392e-01,9.80064e-01,9.99660e-01
8.368297885e-01,9.36758e-01,9.99999e-01,9.55507e-01,9.80454e-01,9.99922e-01
8.410139374e-01,9.54618e-01,9.99999e-01,9.73313e-01,9.80836e-01,9.99954e-01
8.452190071e-01,9.68254e-01,9.99999e-01,9.86821e-01,9.81211e-01,9.99972e-01
8.494451021e-01,9.74038e-01,9.99999e-01,9.92338e-01,9.81579e-01,9.99977e-01
8.536923276e-01,9.77470e-01,9.99999e-01,9.95460e-01,9.81939e-01,9.99986e-01
8.579607893e-01,9.79544e-01,9.99999e-01,9.97203e-01,9.82293e-01,9.99996e-01
8.622505932e-01,9.80893e-01,9.99999e-01,9.98222e-01,9.82640e-01,9.99998e-01
8.665618462e-01,9.81899e-01,9.99999e-01,9.98900e-01,9.82980e-01,9.99999e-01
8.708946554e-01,9.82076e-01,9.99999e-01,9.98741e-01,9.83313e-01,9.99998e-01
8.752491287e-01,9.81983e-01,9.99999e-01,9.98316e-01,9.83640e-01,9.99997e-01
8.796253743e-01,9.81664e-01,9.99999e-01,9.97671e-01,9.83960e-01,9.99994e-01
8.840235012e-01,9.81641e-01,9.99999e-01,9.97339e-01,9.84275e-01,9.99983e-01
8.884436187e-01,9.75053e-01,9.99999e-01,9.90366e-01,9.84583e-01,9.99953e-01
8.928858368e-01,8.89257e-01,9.99999e-01,9.03144e-01,9.84885e-01,9.99733e-01
8.973502660e-01,8.21641e-01,9.99999e-01,8.35137e-01,9.85181e-01,9.98637e-01
9.018370173e-01,8.96887e-01,9.99999e-01,9.12062e-01,9.85472e-01,9.97858e-01
9.063462024e-01,9.07408e-01,9.99999e-01,9.22253e-01,9.85757e-01,9.98118e-01
9.108779334e-01,8.67365e-01,9.99999e-01,8.81370e-01,9.86036e-01,9.98044e-01
9.154323231e-01,8.52896e-01,9.99999e-01,8.66133e-01,9.86310e-01,9.98383e-01
9.200094847e-01,8.80864e-01,9.99999e-01,8.93654e-01,9.86579e-01,9.99094e-01
9.246095321e-01,8.29816e-01,9.99999e-01,8.41757e-01,9.86842e-01,9.98957e-01
9.292325798e-01,3.20901e-01,9.99999e-01,3.26419e-01,9.87100e-01,9.95940e-01
9.338787427e-01,2.29651e-01,9.99999e-01,2.36537e-01,9.87353e-01,9.83323e-01
9.385481364e-01,5.38994e-01,9.99999e-01,5.56786e-01,9.87602e-01,9.80197e-01
9.432408771e-01,4.39050e-01,9.99999e-01,4.52187e-01,9.87845e-01,9.82892e-01
9.479570815e-01,3.28084e-01,9.99999e-01,3.36736e-01,9.88084e-01,9.86054e-01
9.526968669e-01,4.24936e-01,9.99999e-01,4.33657e-01,9.88318e-01,9.91470e-01
9.574603512e-01,4.47263e-01,9.99999e-01,4.54418e-01,9.88547e-01,9.95658e-01
9.622476530e-01,5.15309e-01,9.99999e-01,5.22730e-01,9.88772e-01,9.96995e-01
9.670588912e-01,6.77799e-01,9.99999e-01,6.86754e-01,9.88992e-01,9.97944e-01
9.718941857e-01,7.78532e-01,9.99999e-01,7.88217e-01,9.89209e-01,9.98486e-01
9.767536566e-01,8.10987e-01,9.99999e-01,8.20607e-01,9.89421e-01,9.98842e-01
9.816374249e-01,8.54063e-01,9.99999e-01,8.63358e-01,9.89629e-01,9.99599e-01
9.865456120e-01,9.02821e-01,9.99999e-01,9.12170e-01,9.89832e-01,9.99916e-01
9.914783401e-01,9.35278e-01,9.99999e-01,9.44715e-01,9.90032e-01,9.99976e-01
9.964357318e-01,9.60017e-01,9.99999e-01,9.69503e-01,9.90228e-01,9.99985e-01
1.001417910e+00,9.72183e-01,9.99999e-01,9.81606e-01,9.90420e-01,9.99978e-01
1.006425000e+00,9.80156e-01,9.99999e-01,9.89476e-01,9.90608e-01,9.99970e-01
1.011457125e+00,9.84281e-01,9.99999e-01,9.93454e-01,9.90793e-01,9.99972e-01
1.016514411e+00,9.86548e-01,9.99999e-01,9.95552e-01,9.90974e-01,9.99980e-01
1.021596983e+00,9.87619e-01,9.99999e-01,9.96455e-01,9.91152e-01,9.99980e-01
1.026704968e+00,9.88572e-01,9.99999e-01,9.97234e-01,9.91326e-01,9.99986e-01
1.031838492e+00,9.89499e-01,9.99999e-01,9.97989e-01,9.91496e-01,9.99995e-01
1.036997685e+00,9.90479e-01,9.99999e-01,9.98805e-01,9.91663e-01,9.99998e-01
1.042182673e+00,9.90416e-01,9.99999e-01,9.98576e-01,9.91827e-01,9.99999e-01
1.047393587e+00,9.90116e-01,9.99999e-01,9.98112e-01,9.91988e-01,9.99999e-01
1.052630555e+00,9.89577e-01,9.99999e-01,9.97411e-01,9.92146e-01,9.99998e-01
1.057893707e+00,9.88015e-01,9.99999e-01,9.95682e-01,9.92300e-01,9.99998e-01
1.063183176e+00,9.85405e-01,9.99999e-01,9.92902e-01,9.92452e-01,9.99995e-01
1.068499092e+00,9.80820e-01,9.99999e-01,9.88139e-01,9.92600e-01,9.99991e-01
1.073841587e+00,9.78972e-01,9.99999e-01,9.86142e-01,9.92746e-01,9.99981e-01
1.079210795e+00,9.75230e-01,9.99999e-01,9.82260e-01,9.92889e-01,9.99951e-01
1.084606849e+00,9.66387e-01,9.99999e-01,9.73282e-01,9.93029e-01,9.99884e-01
1.090029883e+00,9.55107e-01,9.99999e-01,9.61906e-01,9.93166e-01,9.99762e-01
1.095480033e+00,8.93177e-01,9.99999e-01,8.99586e-01,9.93300e-01,9.99569e-01
1.100957433e+00,7.59646e-01,9.99999e-01,7.65273e-01,9.93432e-01,9.99209e-01
1.106462220e+00,5.09630e-01,9.99999e-01,5.13621e-01,9.93562e-01,9.98659e-01
1.111994531e+00,2.49052e-01,9.99999e-01,2.51528e-01,9.93688e-01,9.96444e-01
1.117554504e+00,1.09648e-01,9.99999e-01,1.11758e-01,9.93813e-01,9.87224e-01
1.123142276e+00,2.06484e-01,9.99999e-01,2.14175e-01,9.93934e-01,9.69969e-01
1.128757988e+00,3.40934e-01,9.99999e-01,3.55286e-01,9.94054e-01,9.65342e-01
1.134401778e+00,1.59460e-01,9.99999e-01,1.65279e-01,9.94171e-01,9.70452e-01
1.140073787e+00,5.14457e-01,9.99999e-01,5.29962e-01,9.94286e-01,9.76321e-01
1.145774156e+00,2.71118e-01,9.99999e-01,2.78692e-01,9.94398e-01,9.78303e-01
1.151503026e+00,2.39879e-01,9.99999e-01,2.44168e-01,9.94509e-01,9.87854e-01
1.157260541e+00,2.90039e-01,9.99999e-01,2.92676e-01,9.94617e-01,9.96352e-01
1.163046844e+00,3.98143e-01,9.99999e-01,4.00670e-01,9.94723e-01,9.98964e-01
1.168862078e+00,5.21055e-01,9.99999e-01,5.24043e-01,9.94827e-01,9.99466e-01
1.174706389e+00,6.66912e-01,9.99999e-01,6.70785e-01,9.94929e-01,9.99292e-01
1.180579921e+00,7.78822e-01,9.99999e-01,7.83550e-01,9.95028e-01,9.98930e-01
1.186482820e+00,8.65647e-01,9.99999e-01,8.70840e-01,9.95126e-01,9.98902e-01
1.192415234e+00,9.17222e-01,9.99999e-01,9.22382e-01,9.95222e-01,9.99178e-01
1.198377311e+00,9.29108e-01,9.99999e-01,9.34204e-01,9.95317e-01,9.99223e-01
1.204369197e+00,9.32749e-01,9.99999e-01,9.37709e-01,9.95409e-01,9.99297e-01
1.210391043e+00,9.35662e-01,9.99999e-01,9.40293e-01,9.95499e-01,9.99572e-01
1.216442998e+00,9.44529e-01,9.99999e-01,9.48962e-01,9.95588e-01,9.99737e-01
1.222525213e+00,9.55708e-01,9.99999e-01,9.60015e-01,9.95675e-01,9.99837e-01
1.228637839e+00,9.67869e-01,9.99999e-01,9.72063e-01,9.95760e-01,9.99923e-01
1.234781029e+00,9.75089e-01,9.99999e-01,9.79179e-01,9.95844e-01,9.99977e-01
1.240954934e+00,9.82761e-01,9.99999e-01,9.86787e-01,9.95926e-01,9.99993e-01
1.247159708e+00,9.85738e-01,9.99999e-01,9.89694e-01,9.96006e-01,9.99995e-01
1.253395507e+00,9.86964e-01,9.99999e-01,9.90848e-01,9.96085e-01,9.99994e-01
1.259662485e+00,9.87496e-01,9.99999e-01,9.91308e-01,9.96162e-01,9.99991e-01
1.265960797e+00,9.82418e-01,9.99999e-01,9.86140e-01,9.96237e-01,9.99986e-01
1.272290601e+00,9.74697e-01,9.99999e-01,9.78328e-01,9.96312e-01,9.99975e-01
1.278652054e+00,9.53896e-01,9.99999e-01,9.57396e-01,9.96384e-01,9.99957e-01
1.285045314e+00,9.30497e-01,9.99999e-01,9.33879e-01,9.96456e-01,9.99920e-01
1.291470541e+00,8.68611e-01,9.99999e-01,8.71759e-01,9.96525e-01,9.99861e-01
1.297927893e+00,8.33306e-01,9.99999e-01,8.36369e-01,9.96594e-01,9.99741e-01
1.304417533e+00,7.91842e-01,9.99999e-01,7.94929e-01,9.96661e-01,9.99453e-01
1.310939621e+00,7.65671e-01,9.99999e-01,7.69047e-01,9.96727e-01,9.98877e-01
1.317494319e+00,7.48258e-01,9.99999e-01,7.52226e-01,9.96791e-01,9.97925e-01
1.324081790e+00,6.51240e-01,9.99999e-01,6.55512e-01,9.96855e-01,9.96615e-01
1.330702199e+00,2.41546e-01,9.99999e-01,2.43712e-01,9.96917e-01,9.94172e-01
1.337355710e+00,1.93267e-02,9.99999e-01,1.96047e-02,9.96978e-01,9.88807e-01
1.344042489e+00,5.55177e-04,9.99999e-01,5.76027e-04,9.97037e-01,9.66666e-01
1.350762701e+00,3.68865e-09,9.99999e-01,4.15470e-09,9.97096e-01,8.90412e-01
1.357516515e+00,3.04298e-13,9.99999e-01,4.29019e-13,9.97153e-01,7.11313e-01
1.364304097e+00,1.24419e-08,9.99999e-01,2.26659e-08,9.97209e-01,5.50460e-01
1.371125618e+00,6.96794e-06,9.99999e-01,1.22670e-05,9.97264e-01,5.69582e-01
1.377981246e+00,2.49208e-05,9.99999e-01,4.04821e-05,9.97318e-01,6.17255e-01
1.384871152e+00,1.35571e-07,9.99999e-01,2.13088e-07,9.97371e-01,6.37896e-01
1.391795508e+00,1.57123e-08,9.99999e-01,2.41811e-08,9.97423e-01,6.51455e-01
1.398754485e+00,5.99279e-07,9.99999e-01,8.55985e-07,9.97473e-01,7.01877e-01
1.405748258e+00,7.27860e-07,9.99999e-01,8.97426e-07,9.97523e-01,8.13064e-01
1.412776999e+00,7.98625e-07,9.99999e-01,8.79897e-07,9.97572e-01,9.09841e-01
1.419840884e+00,1.77677e-06,9.99999e-01,1.85635e-06,9.97620e-01,9.59417e-01
1.426940089e+00,5.44950e-05,9.99999e-01,5.63689e-05,9.97667e-01,9.69015e-01
1.434074789e+00,3.99454e-04,9.99999e-01,4.15518e-04,9.97713e-01,9.63540e-01
1.441245163e+00,1.73512e-03,9.99999e-01,1.81040e-03,9.97758e-01,9.60569e-01
1.448451389e+00,1.21109e-02,9.99999e-01,1.25728e-02,9.97802e-01,9.65388e-01
1.455693646e+00,4.87693e-02,9.99999e-01,5.02327e-02,9.97846e-01,9.72963e-01
1.462972114e+00,6.85225e-02,9.99999e-01,7.04860e-02,9.97888e-01,9.74198e-01
1.470286975e+00,4.51033e-02,9.99999e-01,4.63732e-02,9.97930e-01,9.74632e-01
