#,Wave/freq,Total,N2,H2O,Rayleigh,CIA
4.000000000e-01,8.33545e-01,9.99999e-01,9.99979e-01,8.33562e-01,9.99999e-01
4.020000000e-01,8.36557e-01,9.99999e-01,9.99986e-01,8.36568e-01,9.99999e-01
4.040100000e-01,8.39517e-01,9.99999e-01,9.99994e-01,8.39521e-01,9.99999e-01
4.060300500e-01,8.42426e-01,9.99999e-01,9.99998e-01,8.42427e-01,9.99999e-01
4.080602003e-01,8.45285e-01,9.99999e-01,9.99999e-01,8.45285e-01,9.99999e-01
4.101005013e-01,8.48096e-01,9.99999e-01,9.99999e-01,8.48096e-01,9.99999e-01
4.121510038e-01,8.50860e-01,9.99999e-01,9.99998e-01,8.50861e-01,9.99999e-01
4.142117588e-01,8.53575e-01,9.99999e-01,9.99993e-01,8.53579e-01,9.99999e-01
4.162828176e-01,8.56231e-01,9.99999e-01,9.99974e-01,8.56253e-01,9.99999e-01
4.183642317e-01,8.58869e-01,9.99999e-01,9.99984e-01,8.58882e-01,9.99999e-01
4.204560528e-01,8.61458e-01,9.99999e-01,9.99990e-01,8.61466e-01,9.99999e-01
4.225583331e-01,8.64005e-01,9.99999e-01,9.99996e-01,8.64007e-01,9.99999e-01
4.246711247e-01,8.66503e-01,9.99999e-01,9.99996e-01,8.66506e-01,9.99999e-01
4.267944804e-01,8.68958e-01,9.99999e-01,9.99995e-01,8.68962e-01,9.99999e-01
4.289284528e-01,8.71373e-01,9.99999e-01,9.99996e-01,8.71376e-01,9.99999e-01
4.310730950e-01,8.73748e-01,9.99999e-01,9.99998e-01,8.73749e-01,9.99999e-01
4.332284605e-01,8.76081e-01,9.99999e-01,9.99999e-01,8.76081e-01,9.99999e-01
4.353946028e-01,8.78373e-01,9.99999e-01,9.99999e-01,8.78373e-01,9.99999e-01
4.375715758e-01,8.80624e-01,9.99999e-01,9.99996e-01,8.80626e-01,9.99999e-01
4.397594337e-01,8.82820e-01,9.99999e-01,9.99976e-01,8.82840e-01,9.99999e-01
4.419582309e-01,8.84914e-01,9.99999e-01,9.99884e-01,8.85016e-01,9.99999e-01
4.441680220e-01,8.87076e-01,9.99999e-01,9.99911e-01,8.87154e-01,9.99999e-01
4.463888621e-01,8.89173e-01,9.99999e-01,9.99907e-01,8.89255e-01,9.99999e-01
4.486208064e-01,8.91268e-01,9.99999e-01,9.99942e-01,8.91319e-01,9.99999e-01
4.508639105e-01,8.93323e-01,9.99999e-01,9.99972e-01,8.93346e-01,9.99999e-01
4.531182300e-01,8.95329e-01,9.99999e-01,9.99988e-01,8.95339e-01,9.99999e-01
4.553838212e-01,8.97290e-01,9.99999e-01,9.99992e-01,8.97296e-01,9.99999e-01
4.576607403e-01,8.99216e-01,9.99999e-01,9.99996e-01,8.99219e-01,9.99999e-01
4.599490440e-01,9.01105e-01,9.99999e-01,9.99997e-01,9.01108e-01,9.99999e-01
4.622487892e-01,9.02962e-01,9.99999e-01,9.99999e-01,9.02963e-01,9.99999e-01
4.645600332e-01,9.04784e-01,9.99999e-01,9.99997e-01,9.04785e-01,9.99999e-01
4.668828333e-01,9.06551e-01,9.99999e-01,9.99972e-01,9.06575e-01,9.99999e-01
4.692172475e-01,9.08281e-01,9.99999e-01,9.99941e-01,9.08333e-01,9.99999e-01
4.715633337e-01,9.10025e-01,9.99999e-01,9.99961e-01,9.10060e-01,9.99999e-01
4.739211504e-01,9.11723e-01,9.99999e-01,9.99963e-01,9.11756e-01,9.99999e-01
4.762907561e-01,9.13404e-01,9.99999e-01,9.99980e-01,9.13421e-01,9.99999e-01
4.786722099e-01,9.15049e-01,9.99999e-01,9.99991e-01,9.15056e-01,9.99999e-01
4.810655710e-01,9.16660e-01,9.99999e-01,9.99997e-01,9.16662e-01,9.99999e-01
4.834708988e-01,9.18218e-01,9.99999e-01,9.99976e-01,9.18239e-01,9.99999e-01
4.858882533e-01,9.19750e-01,9.99999e-01,9.99958e-01,9.19787e-01,9.99999e-01
4.883176946e-01,9.21276e-01,9.99999e-01,9.99965e-01,9.21308e-01,9.99999e-01
4.907592831e-01,9.22772e-01,9.99999e-01,9.99968e-01,9.22800e-01,9.99999e-01
4.932130795e-01,9.24246e-01,9.99999e-01,9.99977e-01,9.24266e-01,9.99999e-01
4.956791449e-01,9.25694e-01,9.99999e-01,9.99987e-01,9.25705e-01,9.99999e-01
4.981575406e-01,9.27063e-01,9.99999e-01,9.99941e-01,9.27117e-01,9.99999e-01
5.006483283e-01,9.28362e-01,9.99999e-01,9.99847e-01,9.28504e-01,9.99998e-01
5.031515699e-01,9.29147e-01,9.99999e-01,9.99234e-01,9.29866e-01,9.99991e-01
5.056673278e-01,9.30819e-01,9.99999e-01,9.99596e-01,9.31202e-01,9.99990e-01
5.081956644e-01,9.32036e-01,9.99999e-01,9.99491e-01,9.32514e-01,9.99993e-01
5.107366428e-01,9.33481e-01,9.99999e-01,9.99656e-01,9.33802e-01,9.99998e-01
5.132903260e-01,9.34883e-01,9.99999e-01,9.99804e-01,9.35066e-01,9.99999e-01
5.158567776e-01,9.36230e-01,9.99999e-01,9.99917e-01,9.36307e-01,9.99999e-01
5.184360615e-01,9.37494e-01,9.99999e-01,9.99966e-01,9.37525e-01,9.99999e-01
5.210282418e-01,9.38709e-01,9.99999e-01,9.99987e-01,9.38720e-01,9.99999e-01
5.236333830e-01,9.39847e-01,9.99999e-01,9.99949e-01,9.39894e-01,9.99999e-01
5.262515499e-01,9.41015e-01,9.99999e-01,9.99968e-01,9.41045e-01,9.99999e-01
5.288828077e-01,9.42148e-01,9.99999e-01,9.99970e-01,9.42175e-01,9.99999e-01
5.315272217e-01,9.43261e-01,9.99999e-01,9.99974e-01,9.43284e-01,9.99999e-01
5.341848578e-01,9.44357e-01,9.99999e-01,9.99983e-01,9.44373e-01,9.99999e-01
5.368557821e-01,9.45386e-01,9.99999e-01,9.99941e-01,9.45441e-01,9.99999e-01
5.395400610e-01,9.46288e-01,9.99999e-01,9.99788e-01,9.46489e-01,9.99997e-01
5.422377613e-01,9.47258e-01,9.99999e-01,9.99729e-01,9.47518e-01,9.99994e-01
5.449489501e-01,9.48284e-01,9.99999e-01,9.99747e-01,9.48528e-01,9.99994e-01
5.476736949e-01,9.49305e-01,9.99999e-01,9.99777e-01,9.49518e-01,9.99997e-01
5.504120634e-01,9.50336e-01,9.99999e-01,9.99838e-01,9.50490e-01,9.99998e-01
5.531641237e-01,9.51367e-01,9.99999e-01,9.99918e-01,9.51444e-01,9.99999e-01
5.559299443e-01,9.52343e-01,9.99999e-01,9.99960e-01,9.52380e-01,9.99999e-01
5.587095940e-01,9.53275e-01,9.99999e-01,9.99974e-01,9.53298e-01,9.99999e-01
5.615031420e-01,9.54173e-01,9.99999e-01,9.99972e-01,9.54199e-01,9.99999e-01
5.643106577e-01,9.55053e-01,9.99999e-01,9.99968e-01,9.55083e-01,9.99999e-01
5.671322110e-01,9.55581e-01,9.99999e-01,9.99616e-01,9.55951e-01,9.99996e-01
5.699678720e-01,9.56410e-01,9.99999e-01,9.99600e-01,9.56802e-01,9.99989e-01
5.728177114e-01,9.57227e-01,9.99999e-01,9.99580e-01,9.57636e-01,9.99990e-01
5.756818000e-01,9.58083e-01,9.99999e-01,9.99615e-01,9.58456e-01,9.99994e-01
5.785602090e-01,9.58938e-01,9.99999e-01,9.99665e-01,9.59259e-01,9.99998e-01
5.814530100e-01,9.59724e-01,9.99999e-01,9.99663e-01,9.60048e-01,9.99998e-01
5.843602750e-01,9.60432e-01,9.99999e-01,9.99596e-01,9.60821e-01,9.99997e-01
5.872820764e-01,9.58221e-01,9.99999e-01,9.96530e-01,9.61580e-01,9.99975e-01
5.902184868e-01,9.58244e-01,9.99999e-01,9.95825e-01,9.62324e-01,9.99933e-01
5.931695792e-01,9.60146e-01,9.99999e-01,9.97042e-01,9.63055e-01,9.99935e-01
5.961354271e-01,9.60618e-01,9.99999e-01,9.96764e-01,9.63771e-01,9.99962e-01
5.991161043e-01,9.62189e-01,9.99999e-01,9.97641e-01,9.64474e-01,9.99988e-01
6.021116848e-01,9.63871e-01,9.99999e-01,9.98662e-01,9.65163e-01,9.99998e-01
6.051222432e-01,9.65186e-01,9.99999e-01,9.99323e-01,9.65839e-01,9.99999e-01
6.081478544e-01,9.66220e-01,9.99999e-01,9.99707e-01,9.66503e-01,9.99999e-01
6.111885937e-01,9.67034e-01,9.99999e-01,9.99876e-01,9.67153e-01,9.99999e-01
6.142445367e-01,9.67738e-01,9.99999e-01,9.99944e-01,9.67791e-01,9.99999e-01
6.173157594e-01,9.68388e-01,9.99999e-01,9.99969e-01,9.68417e-01,9.99999e-01
6.204023382e-01,9.69006e-01,9.99999e-01,9.99973e-01,9.69031e-01,9.99999e-01
6.235043498e-01,9.69522e-01,9.99999e-01,9.99884e-01,9.69634e-01,9.99999e-01
6.266218716e-01,9.69636e-01,9.99999e-01,9.99397e-01,9.70225e-01,9.99995e-01
6.297549810e-01,9.70581e-01,9.99999e-01,9.99778e-01,9.70804e-01,9.99991e-01
6.329037559e-01,9.70943e-01,9.99999e-01,9.99564e-01,9.71372e-01,9.99992e-01
6.360682746e-01,9.71564e-01,9.99999e-01,9.99627e-01,9.71930e-01,9.99995e-01
6.392486160e-01,9.72007e-01,9.99999e-01,9.99518e-01,9.72477e-01,9.99997e-01
6.424448591e-01,9.72379e-01,9.99999e-01,9.99351e-01,9.73013e-01,9.99996e-01
6.456570834e-01,9.70593e-01,9.99999e-01,9.96991e-01,9.73539e-01,9.99981e-01
6.488853688e-01,9.71881e-01,9.99999e-01,9.97814e-01,9.74054e-01,9.99953e-01
6.521297956e-01,9.72353e-01,9.99999e-01,9.97772e-01,9.74560e-01,9.99961e-01
6.553904446e-01,9.72860e-01,9.99999e-01,9.97775e-01,9.75057e-01,9.99971e-01
6.586673968e-01,9.73681e-01,9.99999e-01,9.98100e-01,9.75543e-01,9.99989e-01
6.619607338e-01,9.74986e-01,9.99999e-01,9.98941e-01,9.76020e-01,9.99997e-01
6.652705375e-01,9.75867e-01,9.99999e-01,9.99364e-01,9.76488e-01,9.99998e-01
6.685968902e-01,9.76684e-01,9.99999e-01,9.99729e-01,9.76947e-01,9.99999e-01
6.719398746e-01,9.77264e-01,9.99999e-01,9.99863e-01,9.77398e-01,9.99999e-01
6.752995740e-01,9.77769e-01,9.99999e-01,9.99927e-01,9.77839e-01,9.99999e-01
6.786760719e-01,9.78166e-01,9.99999e-01,9.99891e-01,9.78272e-01,9.99999e-01
6.820694522e-01,9.78516e-01,9.99999e-01,9.99815e-01,9.78696e-01,9.99998e-01
6.854797995e-01,9.78879e-01,9.99999e-01,9.99762e-01,9.79113e-01,9.99997e-01
6.889071985e-01,9.78948e-01,9.99999e-01,9.99419e-01,9.79521e-01,9.99994e-01
6.923517345e-01,9.70684e-01,9.99999e-01,9.90617e-01,9.79922e-01,9.99954e-01
6.958134932e-01,9.75499e-01,9.99999e-01,9.95185e-01,9.80314e-01,9.99900e-01
6.992925606e-01,9.76059e-01,9.99999e-01,9.95357e-01,9.80699e-01,9.99910e-01
7.027890234e-01,9.75422e-01,9.99999e-01,9.94303e-01,9.81077e-01,9.99931e-01
7.063029686e-01,9.76710e-01,9.99999e-01,9.95206e-01,9.81447e-01,9.99965e-01
7.098344834e-01,9.77276e-01,9.99999e-01,9.95401e-01,9.81810e-01,9.99979e-01
7.133836558e-01,9.76055e-01,9.99999e-01,9.93817e-01,9.82166e-01,9.99959e-01
7.169505741e-01,9.34513e-01,9.99999e-01,9.51441e-01,9.82515e-01,9.99685e-01
7.205353270e-01,9.59007e-01,9.99999e-01,9.76274e-01,9.82858e-01,9.99444e-01
7.241380036e-01,9.52861e-01,9.99999e-01,9.69612e-01,9.83193e-01,9.99520e-01
7.277586936e-01,9.56159e-01,9.99999e-01,9.72557e-01,9.83523e-01,9.99608e-01
7.313974871e-01,9.55130e-01,9.99999e-01,9.70990e-01,9.83845e-01,9.99816e-01
7.350544745e-01,9.68391e-01,9.99999e-01,9.84037e-01,9.84162e-01,9.99935e-01
7.387297469e-01,9.72867e-01,9.99999e-01,9.88240e-01,9.84472e-01,9.99970e-01
7.424233956e-01,9.79101e-01,9.99999e-01,9.94241e-01,9.84777e-01,9.99994e-01
7.461355126e-01,9.81630e-01,9.99999e-01,9.96503e-01,9.85075e-01,9.99998e-01
7.498661902e-01,9.83766e-01,9.99999e-01,9.98374e-01,9.85368e-01,9.99999e-01
7.536155211e-01,9.84867e-01,9.99999e-01,9.99200e-01,9.85655e-01,9.99999e-01
7.573835987e-01,9.85531e-01,9.99999e-01,9.99588e-01,9.85936e-01,9.99999e-01
7.611705167e-01,9.85960e-01,9.99999e-01,9.99743e-01,9.86212e-01,9.99999e-01
7.649763693e-01,9.86324e-01,9.99999e-01,9.99839e-01,9.86482e-01,9.99999e-01
7.688012511e-01,9.86637e-01,9.99999e-01,9.99887e-01,9.86748e-01,9.99999e-01
7.726452574e-01,9.86917e-01,9.99999e-01,9.99907e-01,9.87008e-01,9.99999e-01
7.765084837e-01,9.87133e-01,9.99999e-01,9.99868e-01,9.87263e-01,9.99999e-01
7.803910261e-01,9.86950e-01,9.99999e-01,9.99430e-01,9.87513e-01,9.99998e-01
7.842929812e-01,9.85793e-01,9.99999e-01,9.98013e-01,9.87758e-01,9.99995e-01
7.882144461e-01,9.83957e-01,9.99999e-01,9.95936e-01,9.87998e-01,9.99971e-01
7.921555184e-01,9.85991e-01,9.99999e-01,9.97778e-01,9.88234e-01,9.99951e-01
7.961162960e-01,9.84509e-01,9.99999e-01,9.96043e-01,9.88465e-01,9.99953e-01
8.000968774e-01,9.84146e-01,9.99999e-01,9.95450e-01,9.88691e-01,9.99950e-01
8.040973618e-01,9.84372e-01,9.99999e-01,9.95444e-01,9.88913e-01,9.99962e-01
8.081178486e-01,9.78913e-01,9.99999e-01,9.89706e-01,9.89131e-01,9.99961e-01
8.121584379e-01,9.47449e-01,9.99999e-01,9.57790e-01,9.89345e-01,9.99856e-01
8.162192301e-01,9.39990e-01,9.99999e-01,9.50425e-01,9.89554e-01,9.99459e-01
8.203003262e-01,9.64058e-01,9.99999e-01,9.74648e-01,9.89759e-01,9.99367e-01
8.244018279e-01,9.55193e-01,9.99999e-01,9.65364e-01,9.89961e-01,9.99496e-01
8.285238370e-01,9.60075e-01,9.99999e-01,9.70000e-01,9.90158e-01,9.99604e-01
8.326664562e-01,9.60252e-01,9.99999e-01,9.69765e-01,9.90351e-01,9.99836e-01
8.368297885e-01,9.69064e-01,9.99999e-01,9.78354e-01,9.90541e-01,9.99962e-01
8.410139374e-01,9.77919e-01,9.99999e-01,9.87092e-01,9.90727e-01,9.99977e-01
8.452190071e-01,9.84614e-01,9.99999e-01,9.93659e-01,9.90909e-01,9.99986e-01
8.494451021e-01,9.87419e-01,9.99999e-01,9.96307e-01,9.91088e-01,9.99989e-01
8.536923276e-01,9.89097e-01,9.99999e-01,9.97820e-01,9.91263e-01,9.99993e-01
8.579607893e-01,9.90100e-01,9.99999e-01,9.98654e-01,9.91435e-01,9.99997e-01
8.622505932e-01,9.90757e-01,9.99999e-01,9.99146e-01,9.91603e-01,9.99999e-01
8.665618462e-01,9.91244e-01,9.99999e-01,9.99470e-01,9.91769e-01,9.99999e-01
8.708946554e-01,9.91328e-01,9.99999e-01,9.99392e-01,9.91931e-01,9.99999e-01
8.752491287e-01,9.91284e-01,9.99999e-01,9.99188e-01,9.92089e-01,9.99998e-01
8.796253743e-01,9.91125e-01,9.99999e-01,9.98873e-01,9.92245e-01,9.99997e-01
8.840235012e-01,9.91114e-01,9.99999e-01,9.98714e-01,9.92397e-01,9.99991e-01
8.884436187e-01,9.87813e-01,9.99999e-01,9.95252e-01,9.92547e-01,9.99977e-01
8.928858368e-01,9.44369e-01,9.99999e-01,9.51440e-01,9.92694e-01,9.99871e-01
8.973502660e-01,9.09054e-01,9.99999e-01,9.16213e-01,9.92837e-01,9.99343e-01
9.018370173e-01,9.48855e-01,9.99999e-01,9.56551e-01,9.92978e-01,9.98967e-01
9.063462024e-01,9.53753e-01,9.99999e-01,9.61234e-01,9.93117e-01,9.99093e-01
9.108779334e-01,9.33188e-01,9.99999e-01,9.40413e-01,9.93252e-01,9.99057e-01
9.154323231e-01,9.25807e-01,9.99999e-01,9.32697e-01,9.93385e-01,9.99220e-01
9.200094847e-01,9.40433e-01,9.99999e-01,9.46983e-01,9.93515e-01,9.99563e-01
9.246095321e-01,9.10773e-01,9.99999e-01,9.17059e-01,9.93643e-01,9.99497e-01
9.292325798e-01,5.59393e-01,9.99999e-01,5.64267e-01,9.93768e-01,9.97577e-01
9.338787427e-01,4.73499e-01,9.99999e-01,4.80604e-01,9.93891e-01,9.91271e-01
9.385481364e-01,7.32722e-01,9.99999e-01,7.44270e-01,9.94011e-01,9.90414e-01
9.432408771e-01,6.52354e-01,9.99999e-01,6.61682e-01,9.94129e-01,9.91724e-01
9.479570815e-01,5.59493e-01,9.99999e-01,5.66549e-01,9.94245e-01,9.93259e-01
9.526968669e-01,6.47470e-01,9.99999e-01,6.53835e-01,9.94358e-01,9.95883e-01
9.574603512e-01,6.70250e-01,9.99999e-01,6.75391e-01,9.94469e-01,9.97906e-01
9.622476530e-01,7.21910e-01,9.99999e-01,7.26898e-01,9.94578e-01,9.98551e-01
9.670588912e-01,8.26590e-01,9.99999e-01,8.31830e-01,9.94685e-01,9.99009e-01
9.718941857e-01,8.85802e-01,9.99999e-01,8.91090e-01,9.94789e-01,9.99270e-01
9.767536566e-01,9.03553e-01,9.99999e-01,9.08698e-01,9.94892e-01,9.99442e-01
9.816374249e-01,9.26791e-01,9.99999e-01,9.31634e-01,9.94993e-01,9.99806e-01
9.865456120e-01,9.52004e-01,9.99999e-01,9.56737e-01,9.95091e-01,9.99959e-01
9.914783401e-01,9.68335e-01,9.99999e-01,9.73027e-01,9.95188e-01,9.99988e-01
9.964357318e-01,9.80573e-01,9.99999e-01,9.85226e-01,9.95283e-01,9.99992e-01
1.001417910e+00,9.86531e-01,9.99999e-01,9.91123e-01,9.95376e-01,9.99989e-01
1.006425000e+00,9.90400e-01,9.99999e-01,9.94923e-01,9.95467e-01,9.99985e-01
1.011457125e+00,9.92410e-01,9.99999e-01,9.96852e-01,9.95556e-01,9.99986e-01
1.016514411e+00,9.93505e-01,9.99999e-01,9.97860e-01,9.95644e-01,9.99990e-01
1.021596983e+00,9.94022e-01,9.99999e-01,9.98293e-01,9.95730e-01,9.99990e-01
1.026704968e+00,9.94483e-01,9.99999e-01,9.98668e-01,9.95814e-01,9.99993e-01
1.031838492e+00,9.94933e-01,9.99999e-01,9.99033e-01,9.95896e-01,9.99997e-01
1.036997685e+00,9.95405e-01,9.99999e-01,9.99424e-01,9.95977e-01,9.99999e-01
1.042182673e+00,9.95372e-01,9.99999e-01,9.99312e-01,9.96056e-01,9.99999e-01
1.047393587e+00,9.95228e-01,9.99999e-01,9.99089e-01,9.96134e-01,9.99999e-01
1.052630555e+00,9.94965e-01,9.99999e-01,9.98749e-01,9.96210e-01,9.99999e-01
1.057893707e+00,9.94204e-01,9.99999e-01,9.97911e-01,9.96285e-01,9.99998e-01
1.063183176e+00,9.92937e-01,9.99999e-01,9.96567e-01,9.96358e-01,9.99997e-01
1.068499092e+00,9.90710e-01,9.99999e-01,9.94262e-01,9.96430e-01,9.99995e-01
1.073841587e+00,9.89794e-01,9.99999e-01,9.93277e-01,9.96500e-01,9.99991e-01
1.079210795e+00,9.87991e-01,9.99999e-01,9.91414e-01,9.96569e-01,9.99976e-01
1.084606849e+00,9.83638e-01,9.99999e-01,9.87011e-01,9.96637e-01,9.99944e-01
1.090029883e+00,9.77963e-01,9.99999e-01,9.81309e-01,9.96703e-01,9.99885e-01
1.095480033e+00,9.46686e-01,9.99999e-01,9.49951e-01,9.96768e-01,9.99792e-01
1.100957433e+00,8.74586e-01,9.99999e-01,8.77699e-01,9.96832e-01,9.99618e-01
1.106462220e+00,7.15251e-01,9.99999e-01,7.17942e-01,9.96895e-01,9.99353e-01
1.111994531e+00,4.98163e-01,9.99999e-01,5.00541e-01,9.96956e-01,9.98286e-01
1.117554504e+00,3.24818e-01,9.99999e-01,3.27814e-01,9.97016e-01,9.93826e-01
1.123142276e+00,4.36810e-01,9.99999e-01,4.44571e-01,9.97075e-01,9.85423e-01
1.128757988e+00,5.79861e-01,9.99999e-01,5.91490e-01,9.97132e-01,9.83156e-01
1.134401778e+00,3.29085e-01,9.99999e-01,3.34813e-01,9.97189e-01,9.85660e-01
1.140073787e+00,7.19268e-01,9.99999e-01,7.29626e-01,9.97244e-01,9.88525e-01
1.145774156e+00,5.14150e-01,9.99999e-01,5.21017e-01,9.97299e-01,9.89491e-01
1.151503026e+00,4.80060e-01,9.99999e-01,4.84175e-01,9.97352e-01,9.94132e-01
1.157260541e+00,5.41304e-01,9.99999e-01,5.43668e-01,9.97404e-01,9.98241e-01
1.163046844e+00,6.35543e-01,9.99999e-01,6.37481e-01,9.97455e-01,9.99500e-01
1.168862078e+00,7.28921e-01,9.99999e-01,7.30930e-01,9.97505e-01,9.99742e-01
1.174706389e+00,8.21781e-01,9.99999e-01,8.24075e-01,9.97555e-01,9.99659e-01
1.180579921e+00,8.86269e-01,9.99999e-01,8.88855e-01,9.97603e-01,9.99484e-01
1.186482820e+00,9.32855e-01,9.99999e-01,9.35545e-01,9.97650e-01,9.99471e-01
1.192415234e+00,9.59251e-01,9.99999e-01,9.61845e-01,9.97696e-01,9.99603e-01
1.198377311e+00,9.65158e-01,9.99999e-01,9.67703e-01,9.97742e-01,9.99625e-01
1.204369197e+00,9.66961e-01,9.99999e-01,9.69433e-01,9.97786e-01,9.99661e-01
1.210391043e+00,9.68449e-01,9.99999e-01,9.70754e-01,9.97830e-01,9.99793e-01
1.216442998e+00,9.72910e-01,9.99999e-01,9.75106e-01,9.97873e-01,9.99873e-01
1.222525213e+00,9.78435e-01,9.99999e-01,9.80555e-01,9.97915e-01,9.99921e-01
1.228637839e+00,9.84402e-01,9.99999e-01,9.86453e-01,9.97956e-01,9.99963e-01
1.234781029e+00,9.87940e-01,9.99999e-01,9.89933e-01,9.97996e-01,9.99989e-01
1.240954934e+00,9.91666e-01,9.99999e-01,9.93619e-01,9.98036e-01,9.99996e-01
1.247159708e+00,9.93115e-01,9.99999e-01,9.95032e-01,9.98075e-01,9.99997e-01
1.253395507e+00,9.93703e-01,9.99999e-01,9.95583e-01,9.98113e-01,9.99997e-01
1.259662485e+00,9.93952e-01,9.99999e-01,9.95797e-01,9.98150e-01,9.99995e-01
1.265960797e+00,9.91495e-01,9.99999e-01,9.93302e-01,9.98186e-01,9.99993e-01
1.272290601e+00,9.87701e-01,9.99999e-01,9.89471e-01,9.98222e-01,9.99988e-01
1.278652054e+00,9.77448e-01,9.99999e-01,9.79174e-01,9.98257e-01,9.99979e-01
1.285045314e+00,9.60822e-01,9.99999e-01,9.62502e-01,9.98291e-01,9.99961e-01
1.291470541e+00,9.33937e-01,9.99999e-01,9.35565e-01,9.98325e-01,9.99932e-01
1.297927893e+00,9.07980e-01,9.99999e-01,9.09585e-01,9.98358e-01,9.99875e-01
1.304417533e+00,8.92789e-01,9.99999e-01,8.94463e-01,9.98391e-01,9.99736e-01
1.310939621e+00,8.66638e-01,9.99999e-01,8.68476e-01,9.98422e-01,9.99459e-01
1.317494319e+00,8.68611e-01,9.99999e-01,8.70825e-01,9.98453e-01,9.99000e-01
1.324081790e+00,8.10215e-01,9.99999e-01,8.12770e-01,9.98484e-01,9.98368e-01
1.330702199e+00,4.41931e-01,9.99999e-01,4.43836e-01,9.98514e-01,9.97189e-01
1.337355710e+00,1.23958e-01,9.99999e-01,1.24814e-01,9.98543e-01,9.94593e-01
1.344042489e+00,7.15742e-03,9.99999e-01,7.28563e-03,9.98572e-01,9.83806e-01
1.350762701e+00,2.90169e-05,9.99999e-01,3.07280e-05,9.98600e-01,9.45637e-01
1.357516515e+00,3.70936e-07,9.99999e-01,4.37661e-07,9.98628e-01,8.48705e-01
1.364304097e+00,6.29847e-05,9.99999e-01,8.40772e-05,9.98655e-01,7.50137e-01
1.371125618e+00,1.39734e-03,9.99999e-01,1.83481e-03,9.98681e-01,7.62575e-01
1.377981246e+00,3.54010e-03,9.99999e-01,4.47181e-03,9.98707e-01,7.92672e-01
1.384871152e+00,9.70652e-05,9.99999e-01,1.20681e-04,9.98733e-01,8.05328e-01
1.391795508e+00,9.06082e-05,9.99999e-01,1.11515e-04,9.98758e-01,8.13527e-01
1.398754485e+00,4.56593e-04,9.99999e-01,5.42119e-04,9.98782e-01,8.43264e-01
1.405748258e+00,4.28888e-04,9.99999e-01,4.74398e-04,9.98806e-01,9.05146e-01
1.412776999e+00,4.70226e-04,9.99999e-01,4.92692e-04,9.98830e-01,9.55518e-01
1.419840884e+00,8.23611e-04,9.99999e-01,8.41172e-04,9.98853e-01,9.80246e-01
1.426940089e+00,3.85880e-03,9.99999e-01,3.92214e-03,9.98876e-01,9.84956e-01
1.434074789e+00,1.42317e-02,9.99999e-01,1.45045e-02,9.98898e-01,9.82272e-01
1.441245163e+00,3.60175e-02,9.99999e-01,3.67617e-02,9.98919e-01,9.80812e-01
1.448451389e+00,9.51442e-02,9.99999e-01,9.68744e-02,9.98941e-01,9.83179e-01
1.455693646e+00,2.08210e-01,9.99999e-01,2.11196e-01,9.98962e-01,9.86887e-01
1.462972114e+00,2.56132e-01,9.99999e-01,2.59641e-01,9.98982e-01,9.87490e-01
1.470286975e+00,2.05316e-01,9.99999e-01,2.08080e-01,9.99002e-01,9.87701e-01
