#,Wave/freq,Total,N2,H2O,Rayleigh,CIA
4.000000000e-01,1.16023e-01,9.99999e-01,9.99756e-01,1.16051e-01,9.99999e-01
4.020000000e-01,1.21082e-01,9.99999e-01,9.99849e-01,1.21100e-01,9.99999e-01
4.040100000e-01,1.26249e-01,9.99999e-01,9.99935e-01,1.26257e-01,9.99999e-01
4.060300500e-01,1.31523e-01,9.99999e-01,9.99984e-01,1.31525e-01,9.99999e-01
4.080602003e-01,1.36901e-01,9.99999e-01,9.99994e-01,1.36902e-01,9.99999e-01
4.101005013e-01,1.42386e-01,9.99999e-01,9.99999e-01,1.42386e-01,9.99999e-01
4.121510038e-01,1.47973e-01,9.99999e-01,9.99990e-01,1.47975e-01,9.99999e-01
4.142117588e-01,1.53656e-01,9.99999e-01,9.99932e-01,1.53666e-01,9.99999e-01
4.162828176e-01,1.59410e-01,9.99999e-01,9.99698e-01,1.59458e-01,9.99999e-01
4.183642317e-01,1.65317e-01,9.99999e-01,9.99820e-01,1.65347e-01,9.99999e-01
4.204560528e-01,1.71311e-01,9.99999e-01,9.99890e-01,1.71330e-01,9.99999e-01
4.225583331e-01,1.77399e-01,9.99999e-01,9.99958e-01,1.77406e-01,9.99999e-01
4.246711247e-01,1.83564e-01,9.99999e-01,9.99966e-01,1.83570e-01,9.99999e-01
4.267944804e-01,1.89812e-01,9.99999e-01,9.99951e-01,1.89821e-01,9.99999e-01
4.289284528e-01,1.96147e-01,9.99999e-01,9.99962e-01,1.96155e-01,9.99999e-01
4.310730950e-01,2.02565e-01,9.99999e-01,9.99983e-01,2.02568e-01,9.99999e-01
4.332284605e-01,2.09058e-01,9.99999e-01,9.99995e-01,2.09059e-01,9.99999e-01
4.353946028e-01,2.15622e-01,9.99999e-01,9.99997e-01,2.15623e-01,9.99999e-01
4.375715758e-01,2.22251e-01,9.99999e-01,9.99969e-01,2.22257e-01,9.99999e-01
4.397594337e-01,2.28898e-01,9.99999e-01,9.99734e-01,2.28959e-01,9.99999e-01
4.419582309e-01,2.35407e-01,9.99999e-01,9.98653e-01,2.35724e-01,9.99999e-01
4.441680220e-01,2.42296e-01,9.99999e-01,9.98954e-01,2.42549e-01,9.99999e-01
4.463888621e-01,2.49160e-01,9.99999e-01,9.98909e-01,2.49432e-01,9.99999e-01
4.486208064e-01,2.56195e-01,9.99999e-01,9.99323e-01,2.56368e-01,9.99999e-01
4.508639105e-01,2.63271e-01,9.99999e-01,9.99683e-01,2.63354e-01,9.99999e-01
4.531182300e-01,2.70353e-01,9.99999e-01,9.99874e-01,2.70387e-01,9.99999e-01
4.553838212e-01,2.77440e-01,9.99999e-01,9.99914e-01,2.77463e-01,9.99999e-01
4.576607403e-01,2.84568e-01,9.99999e-01,9.99960e-01,2.84579e-01,9.99999e-01
4.599490440e-01,2.91724e-01,9.99999e-01,9.99971e-01,2.91732e-01,9.99999e-01
4.622487892e-01,2.98917e-01,9.99999e-01,9.99994e-01,2.98918e-01,9.99999e-01
4.645600332e-01,3.06128e-01,9.99999e-01,9.99980e-01,3.06134e-01,9.99999e-01
4.668828333e-01,3.13276e-01,9.99999e-01,9.99678e-01,3.13376e-01,9.99999e-01
4.692172475e-01,3.20422e-01,9.99999e-01,9.99316e-01,3.20642e-01,9.99999e-01
4.715633337e-01,3.27780e-01,9.99999e-01,9.99552e-01,3.27927e-01,9.99999e-01
4.739211504e-01,3.35086e-01,9.99999e-01,9.99572e-01,3.35229e-01,9.99999e-01
4.762907561e-01,3.42469e-01,9.99999e-01,9.99778e-01,3.42545e-01,9.99999e-01
4.786722099e-01,3.49839e-01,9.99999e-01,9.99909e-01,3.49871e-01,9.99999e-01
4.810655710e-01,3.57195e-01,9.99999e-01,9.99972e-01,3.57204e-01,9.99999e-01
4.834708988e-01,3.64446e-01,9.99999e-01,9.99736e-01,3.64542e-01,9.99999e-01
4.858882533e-01,3.71701e-01,9.99999e-01,9.99515e-01,3.71881e-01,9.99999e-01
4.883176946e-01,3.79065e-01,9.99999e-01,9.99594e-01,3.79219e-01,9.99999e-01
4.907592831e-01,3.86411e-01,9.99999e-01,9.99633e-01,3.86552e-01,9.99999e-01
4.932130795e-01,3.93776e-01,9.99999e-01,9.99740e-01,3.93878e-01,9.99999e-01
4.956791449e-01,4.01139e-01,9.99999e-01,9.99862e-01,4.01194e-01,9.99999e-01
4.981575406e-01,4.08216e-01,9.99999e-01,9.99312e-01,4.08497e-01,9.99999e-01
5.006483283e-01,4.15039e-01,9.99999e-01,9.98216e-01,4.15785e-01,9.99987e-01
5.031515699e-01,4.19214e-01,9.99999e-01,9.91013e-01,4.23055e-01,9.99904e-01
5.056673278e-01,4.28214e-01,9.99999e-01,9.95246e-01,4.30305e-01,9.99891e-01
5.081956644e-01,4.34880e-01,9.99999e-01,9.94005e-01,4.37533e-01,9.99929e-01
5.107366428e-01,4.42929e-01,9.99999e-01,9.95951e-01,4.44735e-01,9.99986e-01
5.132903260e-01,4.50864e-01,9.99999e-01,9.97685e-01,4.51910e-01,9.99998e-01
5.158567776e-01,4.58608e-01,9.99999e-01,9.99022e-01,4.59056e-01,9.99999e-01
5.184360615e-01,4.65988e-01,9.99999e-01,9.99608e-01,4.66171e-01,9.99999e-01
5.210282418e-01,4.73182e-01,9.99999e-01,9.99853e-01,4.73251e-01,9.99999e-01
5.236333830e-01,4.80012e-01,9.99999e-01,9.99411e-01,4.80297e-01,9.99995e-01
5.262515499e-01,4.87123e-01,9.99999e-01,9.99631e-01,4.87305e-01,9.99993e-01
5.288828077e-01,4.94105e-01,9.99999e-01,9.99661e-01,4.94273e-01,9.99995e-01
5.315272217e-01,5.01052e-01,9.99999e-01,9.99703e-01,5.01201e-01,9.99998e-01
5.341848578e-01,5.07988e-01,9.99999e-01,9.99805e-01,5.08087e-01,9.99999e-01
5.368557821e-01,5.14574e-01,9.99999e-01,9.99314e-01,5.14928e-01,9.99997e-01
5.395400610e-01,5.20420e-01,9.99999e-01,9.97523e-01,5.21723e-01,9.99979e-01
5.422377613e-01,5.26755e-01,9.99999e-01,9.96809e-01,5.28471e-01,9.99941e-01
5.449489501e-01,5.33548e-01,9.99999e-01,9.97026e-01,5.35170e-01,9.99939e-01
5.476736949e-01,5.40381e-01,9.99999e-01,9.97372e-01,5.41820e-01,9.99970e-01
5.504120634e-01,5.47368e-01,9.99999e-01,9.98092e-01,5.48418e-01,9.99991e-01
5.531641237e-01,5.54432e-01,9.99999e-01,9.99040e-01,5.54965e-01,9.99998e-01
5.559299443e-01,5.61197e-01,9.99999e-01,9.99536e-01,5.61457e-01,9.99999e-01
5.587095940e-01,5.67730e-01,9.99999e-01,9.99709e-01,5.67895e-01,9.99999e-01
5.615031420e-01,5.74092e-01,9.99999e-01,9.99675e-01,5.74278e-01,9.99998e-01
5.643106577e-01,5.80389e-01,9.99999e-01,9.99631e-01,5.80604e-01,9.99996e-01
5.671322110e-01,5.84228e-01,9.99999e-01,9.95532e-01,5.86873e-01,9.99960e-01
5.699678720e-01,5.90209e-01,9.99999e-01,9.95274e-01,5.93083e-01,9.99878e-01
5.728177114e-01,5.96216e-01,9.99999e-01,9.95061e-01,5.99235e-01,9.99898e-01
5.756818000e-01,6.02548e-01,9.99999e-01,9.95470e-01,6.05327e-01,9.99937e-01
5.785602090e-01,6.08936e-01,9.99999e-01,9.96053e-01,6.11359e-01,9.99981e-01
5.814530100e-01,6.14878e-01,9.99999e-01,9.96034e-01,6.17330e-01,9.99991e-01
5.843602750e-01,6.20276e-01,9.99999e-01,9.95268e-01,6.23240e-01,9.99973e-01
5.872820764e-01,6.03887e-01,9.99999e-01,9.60213e-01,6.29088e-01,9.99713e-01
5.902184868e-01,6.03794e-01,9.99999e-01,9.51787e-01,6.34874e-01,9.99220e-01
5.931695792e-01,6.18231e-01,9.99999e-01,9.65809e-01,6.40597e-01,9.99249e-01
5.961354271e-01,6.21754e-01,9.99999e-01,9.62499e-01,6.46257e-01,9.99568e-01
5.991161043e-01,6.33829e-01,9.99999e-01,9.72477e-01,6.51854e-01,9.99866e-01
6.021116848e-01,6.47054e-01,9.99999e-01,9.84294e-01,6.57387e-01,9.99984e-01
6.051222432e-01,6.57569e-01,9.99999e-01,9.92023e-01,6.62857e-01,9.99998e-01
6.081478544e-01,6.65958e-01,9.99999e-01,9.96551e-01,6.68262e-01,9.99999e-01
6.111885937e-01,6.72622e-01,9.99999e-01,9.98541e-01,6.73604e-01,9.99999e-01
6.142445367e-01,6.78439e-01,9.99999e-01,9.99347e-01,6.78882e-01,9.99999e-01
6.173157594e-01,6.83850e-01,9.99999e-01,9.99640e-01,6.84095e-01,9.99999e-01
6.204023382e-01,6.89035e-01,9.99999e-01,9.99694e-01,6.89245e-01,9.99999e-01
6.235043498e-01,6.93393e-01,9.99999e-01,9.98653e-01,6.94330e-01,9.99996e-01
6.266218716e-01,6.94359e-01,9.99999e-01,9.92910e-01,6.99351e-01,9.99949e-01
6.297549810e-01,7.02404e-01,9.99999e-01,9.97394e-01,7.04309e-01,9.99899e-01
6.329037559e-01,7.05499e-01,9.99999e-01,9.94856e-01,7.09202e-01,9.99919e-01
6.360682746e-01,7.10868e-01,9.99999e-01,9.95615e-01,7.14032e-01,9.99952e-01
6.392486160e-01,7.14703e-01,9.99999e-01,9.94323e-01,7.18799e-01,9.99978e-01
6.424448591e-01,7.17980e-01,9.99999e-01,9.92400e-01,7.23502e-01,9.99966e-01
6.456570834e-01,7.02721e-01,9.99999e-01,9.65275e-01,7.28142e-01,9.99804e-01
6.488853688e-01,7.13680e-01,9.99999e-01,9.74548e-01,7.32719e-01,9.99452e-01
6.521297956e-01,7.17823e-01,9.99999e-01,9.74109e-01,7.37234e-01,9.99548e-01
6.553904446e-01,7.22212e-01,9.99999e-01,9.74070e-01,7.41687e-01,9.99663e-01
6.586673968e-01,7.29443e-01,9.99999e-01,9.77812e-01,7.46078e-01,9.99887e-01
6.619607338e-01,7.41053e-01,9.99999e-01,9.87557e-01,7.50407e-01,9.99975e-01
6.652705375e-01,7.49016e-01,9.99999e-01,9.92512e-01,7.54675e-01,9.99987e-01
6.685968902e-01,7.56238e-01,9.99999e-01,9.96516e-01,7.58882e-01,9.99997e-01
6.719398746e-01,7.61798e-01,9.99999e-01,9.98385e-01,7.63030e-01,9.99999e-01
6.752995740e-01,7.66445e-01,9.99999e-01,9.99123e-01,7.67117e-01,9.99999e-01
6.786760719e-01,7.70166e-01,9.99999e-01,9.98732e-01,7.71144e-01,9.99997e-01
6.820694522e-01,7.73424e-01,9.99999e-01,9.97831e-01,7.75113e-01,9.99988e-01
6.854797995e-01,7.76826e-01,9.99999e-01,9.97203e-01,7.79023e-01,9.99975e-01
6.889071985e-01,7.77534e-01,9.99999e-01,9.93236e-01,7.82875e-01,9.99939e-01
6.923517345e-01,7.04550e-01,9.99999e-01,8.96084e-01,7.86670e-01,9.99470e-01
6.958134932e-01,7.45994e-01,9.99999e-01,9.44916e-01,7.90407e-01,9.98828e-01
6.992925606e-01,7.51168e-01,9.99999e-01,9.46950e-01,7.94088e-01,9.98944e-01
7.027890234e-01,7.45261e-01,9.99999e-01,9.35000e-01,7.97712e-01,9.99193e-01
7.063029686e-01,7.56829e-01,9.99999e-01,9.44901e-01,8.01281e-01,9.99598e-01
7.098344834e-01,7.61983e-01,9.99999e-01,9.47027e-01,8.04795e-01,9.99762e-01
7.133836558e-01,7.51701e-01,9.99999e-01,9.30467e-01,8.08255e-01,9.99528e-01
7.169505741e-01,4.69090e-01,9.99999e-01,5.80087e-01,8.11661e-01,9.96294e-01
7.205353270e-01,6.16738e-01,9.99999e-01,7.61693e-01,8.15013e-01,9.93472e-01
7.241380036e-01,5.73730e-01,9.99999e-01,7.05089e-01,8.18313e-01,9.94360e-01
7.277586936e-01,5.96965e-01,9.99999e-01,7.29989e-01,8.21560e-01,9.95387e-01
7.313974871e-01,5.86181e-01,9.99999e-01,7.12273e-01,8.24756e-01,9.97836e-01
7.350544745e-01,6.86044e-01,9.99999e-01,8.29278e-01,8.27901e-01,9.99247e-01
7.387297469e-01,7.23013e-01,9.99999e-01,8.70356e-01,8.30995e-01,9.99654e-01
7.424233956e-01,7.79013e-01,9.99999e-01,9.34085e-01,8.34039e-01,9.99933e-01
7.461355126e-01,8.03092e-01,9.99999e-01,9.59459e-01,8.37034e-01,9.99987e-01
7.498661902e-01,8.23950e-01,9.99999e-01,9.80918e-01,8.39981e-01,9.99995e-01
7.536155211e-01,8.34942e-01,9.99999e-01,9.90586e-01,8.42879e-01,9.99997e-01
7.573835987e-01,8.41622e-01,9.99999e-01,9.95144e-01,8.45729e-01,9.99998e-01
7.611705167e-01,8.45971e-01,9.99999e-01,9.96980e-01,8.48533e-01,9.99999e-01
7.649763693e-01,8.49678e-01,9.99999e-01,9.98105e-01,8.51290e-01,9.99999e-01
7.688012511e-01,8.52875e-01,9.99999e-01,9.98680e-01,8.54002e-01,9.99999e-01
7.726452574e-01,8.55738e-01,9.99999e-01,9.98913e-01,8.56668e-01,9.99998e-01
7.765084837e-01,8.57960e-01,9.99999e-01,9.98453e-01,8.59290e-01,9.99997e-01
7.803910261e-01,8.56117e-01,9.99999e-01,9.93332e-01,8.61868e-01,9.99993e-01
7.842929812e-01,8.44437e-01,9.99999e-01,9.76944e-01,8.64402e-01,9.99956e-01
7.882144461e-01,8.25978e-01,9.99999e-01,9.53114e-01,8.66894e-01,9.99670e-01
7.921555184e-01,8.46316e-01,9.99999e-01,9.74067e-01,8.69343e-01,9.99428e-01
7.961162960e-01,8.31701e-01,9.99999e-01,9.54576e-01,8.71751e-01,9.99455e-01
8.000968774e-01,8.27814e-01,9.99999e-01,9.47576e-01,8.74117e-01,9.99421e-01
8.040973618e-01,8.30152e-01,9.99999e-01,9.47617e-01,8.76443e-01,9.99540e-01
8.081178486e-01,7.78993e-01,9.99999e-01,8.86881e-01,8.78729e-01,9.99568e-01
8.121584379e-01,5.41450e-01,9.99999e-01,6.15644e-01,8.80976e-01,9.98306e-01
8.162192301e-01,4.96655e-01,9.99999e-01,5.65940e-01,8.83184e-01,9.93648e-01
8.203003262e-01,6.71433e-01,9.99999e-01,7.64057e-01,8.85354e-01,9.92566e-01
8.244018279e-01,6.15744e-01,9.99999e-01,6.97939e-01,8.87486e-01,9.94079e-01
8.285238370e-01,6.25131e-01,9.99999e-01,7.06009e-01,8.89581e-01,9.95347e-01
8.326664562e-01,6.27633e-01,9.99999e-01,7.05267e-01,8.91639e-01,9.98073e-01
8.368297885e-01,6.92348e-01,9.99999e-01,7.75072e-01,8.93661e-01,9.99559e-01
8.410139374e-01,7.68901e-01,9.99999e-01,8.58706e-01,8.95648e-01,9.99742e-01
8.452190071e-01,8.32578e-01,9.99999e-01,9.27702e-01,8.97600e-01,9.99845e-01
8.494451021e-01,8.60964e-01,9.99999e-01,9.57257e-01,8.99517e-01,9.99876e-01
8.536923276e-01,8.78367e-01,9.99999e-01,9.74518e-01,9.01401e-01,9.99924e-01
8.579607893e-01,8.88979e-01,9.99999e-01,9.84217e-01,9.03251e-01,9.99981e-01
8.622505932e-01,8.95970e-01,9.99999e-01,9.89949e-01,9.05068e-01,9.99996e-01
8.665618462e-01,9.01200e-01,9.99999e-01,9.93768e-01,9.06853e-01,9.99997e-01
8.708946554e-01,9.02118e-01,9.99999e-01,9.92863e-01,9.08606e-01,9.99995e-01
8.752491287e-01,9.01637e-01,9.99999e-01,9.90462e-01,9.10328e-01,9.99989e-01
8.796253743e-01,8.99962e-01,9.99999e-01,9.86808e-01,9.12019e-01,9.99970e-01
8.840235012e-01,8.99850e-01,9.99999e-01,9.84954e-01,9.13679e-01,9.99907e-01
8.884436187e-01,8.66596e-01,9.99999e-01,9.47026e-01,9.15310e-01,9.99737e-01
8.928858368e-01,5.31063e-01,9.99999e-01,5.80062e-01,9.16911e-01,9.98488e-01
8.973502660e-01,3.53547e-01,9.99999e-01,3.87919e-01,9.18484e-01,9.92278e-01
9.018370173e-01,5.60676e-01,9.99999e-01,6.16884e-01,9.20028e-01,9.87886e-01
9.063462024e-01,5.91281e-01,9.99999e-01,6.48526e-01,9.21544e-01,9.89351e-01
9.108779334e-01,4.66201e-01,9.99999e-01,5.10725e-01,9.23032e-01,9.88936e-01
9.154323231e-01,4.21924e-01,9.99999e-01,4.60600e-01,9.24493e-01,9.90846e-01
9.200094847e-01,5.06258e-01,9.99999e-01,5.49578e-01,9.25928e-01,9.94866e-01
9.246095321e-01,3.88450e-01,9.99999e-01,4.21378e-01,9.27337e-01,9.94087e-01
9.292325798e-01,1.60859e-02,9.99999e-01,1.77257e-02,9.28720e-01,9.77139e-01
9.338787427e-01,1.68953e-03,9.99999e-01,1.99878e-03,9.30077e-01,9.08826e-01
9.385481364e-01,6.52960e-02,9.99999e-01,7.85462e-02,9.31410e-01,8.92523e-01
9.432408771e-01,3.12259e-02,9.99999e-01,3.69289e-02,9.32718e-01,9.06564e-01
9.479570815e-01,6.01774e-03,9.99999e-01,6.97841e-03,9.34002e-01,9.23269e-01
9.526968669e-01,1.79551e-02,9.99999e-01,2.01558e-02,9.35262e-01,9.52472e-01
9.574603512e-01,2.22726e-02,9.99999e-01,2.43783e-02,9.36500e-01,9.75568e-01
9.622476530e-01,4.09233e-02,9.99999e-01,4.43943e-02,9.37714e-01,9.83041e-01
9.670588912e-01,1.46032e-01,9.99999e-01,1.57364e-01,9.38906e-01,9.88371e-01
9.718941857e-01,2.58627e-01,9.99999e-01,2.77491e-01,9.40076e-01,9.91426e-01
9.767536566e-01,3.21088e-01,9.99999e-01,3.43390e-01,9.41224e-01,9.93441e-01
9.816374249e-01,4.18100e-01,9.99999e-01,4.44688e-01,9.42351e-01,9.97725e-01
9.865456120e-01,5.64334e-01,9.99999e-01,5.98439e-01,9.43457e-01,9.99525e-01
9.914783401e-01,6.85295e-01,9.99999e-01,7.25626e-01,9.44542e-01,9.99868e-01
9.964357318e-01,7.93801e-01,9.99999e-01,8.39525e-01,9.45607e-01,9.99922e-01
1.001417910e+00,8.52063e-01,9.99999e-01,9.00185e-01,9.46652e-01,9.99882e-01
1.006425000e+00,8.92271e-01,9.99999e-01,9.41690e-01,9.47678e-01,9.99832e-01
1.011457125e+00,9.13845e-01,9.99999e-01,9.63424e-01,9.48684e-01,9.99844e-01
1.016514411e+00,9.25831e-01,9.99999e-01,9.75001e-01,9.49672e-01,9.99890e-01
1.021596983e+00,9.31549e-01,9.99999e-01,9.80024e-01,9.50641e-01,9.99889e-01
1.026704968e+00,9.36663e-01,9.99999e-01,9.84383e-01,9.51592e-01,9.99925e-01
1.031838492e+00,9.41679e-01,9.99999e-01,9.88633e-01,9.52525e-01,9.99979e-01
1.036997685e+00,9.46984e-01,9.99999e-01,9.93230e-01,9.53441e-01,9.99996e-01
1.042182673e+00,9.46634e-01,9.99999e-01,9.91927e-01,9.54339e-01,9.99998e-01
1.047393587e+00,9.45010e-01,9.99999e-01,9.89312e-01,9.55220e-01,9.99997e-01
1.052630555e+00,9.42085e-01,9.99999e-01,9.85360e-01,9.56085e-01,9.99995e-01
1.057893707e+00,9.33658e-01,9.99999e-01,9.75684e-01,9.56934e-01,9.99991e-01
1.063183176e+00,9.19784e-01,9.99999e-01,9.60362e-01,9.57766e-01,9.99978e-01
1.068499092e+00,8.95875e-01,9.99999e-01,9.34625e-01,9.58583e-01,9.99953e-01
1.073841587e+00,8.86643e-01,9.99999e-01,9.24271e-01,9.59384e-01,9.99899e-01
1.079210795e+00,8.67554e-01,9.99999e-01,9.03786e-01,9.60170e-01,9.99729e-01
1.084606849e+00,8.24500e-01,9.99999e-01,8.58571e-01,9.60941e-01,9.99348e-01
1.090029883e+00,7.72941e-01,9.99999e-01,8.04811e-01,9.61698e-01,9.98650e-01
1.095480033e+00,5.33257e-01,9.99999e-01,5.55422e-01,9.62440e-01,9.97560e-01
1.100957433e+00,2.31248e-01,9.99999e-01,2.41173e-01,9.63168e-01,9.95514e-01
1.106462220e+00,3.91091e-02,9.99999e-01,4.08851e-02,9.63882e-01,9.92402e-01
1.111994531e+00,1.42715e-03,9.99999e-01,1.50981e-03,9.64583e-01,9.79958e-01
1.117554504e+00,7.12131e-05,9.99999e-01,7.93697e-05,9.65270e-01,9.29513e-01
1.123142276e+00,1.63099e-03,9.99999e-01,2.00807e-03,9.65944e-01,8.40855e-01
1.128757988e+00,6.02446e-03,9.99999e-01,7.61647e-03,9.66605e-01,8.18303e-01
1.134401778e+00,4.29759e-03,9.99999e-01,5.26906e-03,9.67254e-01,8.43239e-01
1.140073787e+00,3.42754e-02,9.99999e-01,4.05808e-02,9.67890e-01,8.72641e-01
1.145774156e+00,3.94513e-03,9.99999e-01,4.61435e-03,9.68515e-01,8.82762e-01
1.151503026e+00,1.70225e-03,9.99999e-01,1.88283e-03,9.69127e-01,9.32890e-01
1.157260541e+00,2.04065e-03,9.99999e-01,2.14852e-03,9.69727e-01,9.79443e-01
1.163046844e+00,1.00078e-02,9.99999e-01,1.03749e-02,9.70316e-01,9.94130e-01
1.168862078e+00,3.37830e-02,9.99999e-01,3.49015e-02,9.70894e-01,9.96971e-01
1.174706389e+00,1.15541e-01,9.99999e-01,1.19414e-01,9.71461e-01,9.95987e-01
1.180579921e+00,2.57319e-01,9.99999e-01,2.66340e-01,9.72016e-01,9.93939e-01
1.186482820e+00,4.46733e-01,9.99999e-01,4.62211e-01,9.72561e-01,9.93779e-01
1.192415234e+00,6.13835e-01,9.99999e-01,6.33759e-01,9.73096e-01,9.95338e-01
1.198377311e+00,6.60395e-01,9.99999e-01,6.81288e-01,9.73620e-01,9.95596e-01
1.204369197e+00,6.78103e-01,9.99999e-01,6.98892e-01,9.74135e-01,9.96014e-01
1.210391043e+00,6.88245e-01,9.99999e-01,7.07870e-01,9.74639e-01,9.97573e-01
1.216442998e+00,7.25835e-01,9.99999e-01,7.45451e-01,9.75134e-01,9.98513e-01
1.222525213e+00,7.74014e-01,9.99999e-01,7.94090e-01,9.75619e-01,9.99076e-01
1.228637839e+00,8.31018e-01,9.99999e-01,8.51735e-01,9.76094e-01,9.99569e-01
1.234781029e+00,8.66832e-01,9.99999e-01,8.87746e-01,9.76561e-01,9.99876e-01
1.240954934e+00,9.06058e-01,9.99999e-01,9.27401e-01,9.77019e-01,9.99965e-01
1.247159708e+00,9.21669e-01,9.99999e-01,9.42935e-01,9.77467e-01,9.99977e-01
1.253395507e+00,9.28155e-01,9.99999e-01,9.49150e-01,9.77907e-01,9.99970e-01
1.259662485e+00,9.30950e-01,9.99999e-01,9.51604e-01,9.78339e-01,9.99953e-01
1.265960797e+00,9.04276e-01,9.99999e-01,9.23967e-01,9.78762e-01,9.99923e-01
1.272290601e+00,8.64895e-01,9.99999e-01,8.83405e-01,9.79177e-01,9.99864e-01
1.278652054e+00,7.67492e-01,9.99999e-01,7.83675e-01,9.79584e-01,9.99760e-01
1.285045314e+00,6.33533e-01,9.99999e-01,6.46762e-01,9.79984e-01,9.99551e-01
1.291470541e+00,4.60680e-01,9.99999e-01,4.70271e-01,9.80375e-01,9.99214e-01
1.297927893e+00,3.42315e-01,9.99999e-01,3.49543e-01,9.80759e-01,9.98534e-01
1.304417533e+00,2.88727e-01,9.99999e-01,2.95194e-01,9.81135e-01,9.96897e-01
1.310939621e+00,2.42074e-01,9.99999e-01,2.48214e-01,9.81505e-01,9.93640e-01
1.317494319e+00,2.17991e-01,9.99999e-01,2.24652e-01,9.81866e-01,9.88267e-01
1.324081790e+00,1.14824e-01,9.99999e-01,1.19176e-01,9.82221e-01,9.80915e-01
1.330702199e+00,1.18813e-02,9.99999e-01,1.25005e-02,9.82570e-01,9.67320e-01
1.337355710e+00,2.30219e-08,9.99999e-01,2.49698e-08,9.82911e-01,9.38017e-01
1.344042489e+00,3.32040e-12,9.99999e-01,4.09477e-12,9.83246e-01,8.24705e-01
1.350762701e+00,9.32585e-43,9.99999e-01,1.83422e-42,9.83574e-01,5.16926e-01
1.357516515e+00,1.33458e-65,9.99999e-01,9.40635e-65,9.83896e-01,1.44202e-01
1.364304097e+00,4.62996e-40,9.99999e-01,1.40105e-38,9.84211e-01,3.35765e-02
1.371125618e+00,8.28804e-24,9.99999e-01,2.06481e-22,9.84521e-01,4.07704e-02
1.377981246e+00,4.80856e-23,9.99999e-01,7.58329e-22,9.84824e-01,6.43869e-02
1.384871152e+00,1.13690e-32,9.99999e-01,1.48669e-31,9.85121e-01,7.76269e-02
1.391795508e+00,2.41505e-40,9.99999e-01,2.80134e-39,9.85413e-01,8.74865e-02
1.398754485e+00,2.05994e-30,9.99999e-01,1.56354e-29,9.85699e-01,1.33660e-01
1.405748258e+00,4.77475e-30,9.99999e-01,1.57043e-29,9.85980e-01,3.08365e-01
1.412776999e+00,6.47294e-29,9.99998e-01,1.12303e-28,9.86255e-01,5.84416e-01
1.419840884e+00,1.34106e-28,9.99997e-01,1.72038e-28,9.86524e-01,7.90159e-01
1.426940089e+00,2.14333e-18,9.99997e-01,2.59760e-18,9.86789e-01,8.36164e-01
1.434074789e+00,1.95564e-16,9.99997e-01,2.44709e-16,9.87048e-01,8.09658e-01
1.441245163e+00,1.73884e-13,9.99998e-01,2.21377e-13,9.87302e-01,7.95566e-01
1.448451389e+00,7.93628e-09,9.99996e-01,9.81801e-09,9.87551e-01,8.18527e-01
1.455693646e+00,3.11721e-06,9.99998e-01,3.68780e-06,9.87796e-01,8.55717e-01
1.462972114e+00,3.91564e-06,9.99998e-01,4.59799e-06,9.88035e-01,8.61910e-01
1.470286975e+00,1.03331e-06,9.99998e-01,1.21003e-06,9.88270e-01,8.64094e-01
