#,Wave/freq,Total,N2,H2O,Rayleigh,CIA
4.000000000e-01,8.33596e-01,9.99999e-01,9.99978e-01,8.33613e-01,9.99999e-01
4.020000000e-01,8.36608e-01,9.99999e-01,9.99986e-01,8.36618e-01,9.99999e-01
4.040100000e-01,8.39567e-01,9.99999e-01,9.99994e-01,8.39571e-01,9.99999e-01
4.060300500e-01,8.42475e-01,9.99999e-01,9.99998e-01,8.42476e-01,9.99999e-01
4.080602003e-01,8.45333e-01,9.99999e-01,9.99999e-01,8.45334e-01,9.99999e-01
4.101005013e-01,8.48144e-01,9.99999e-01,9.99999e-01,8.48144e-01,9.99999e-01
4.121510038e-01,8.50907e-01,9.99999e-01,9.99998e-01,8.50908e-01,9.99999e-01
4.142117588e-01,8.53621e-01,9.99999e-01,9.99993e-01,8.53625e-01,9.99999e-01
4.162828176e-01,8.56276e-01,9.99999e-01,9.99974e-01,8.56298e-01,9.99999e-01
4.183642317e-01,8.58913e-01,9.99999e-01,9.99984e-01,8.58926e-01,9.99999e-01
4.204560528e-01,8.61502e-01,9.99999e-01,9.99990e-01,8.61510e-01,9.99999e-01
4.225583331e-01,8.64047e-01,9.99999e-01,9.99996e-01,8.64050e-01,9.99999e-01
4.246711247e-01,8.66546e-01,9.99999e-01,9.99996e-01,8.66548e-01,9.99999e-01
4.267944804e-01,8.69000e-01,9.99999e-01,9.99995e-01,8.69003e-01,9.99999e-01
4.289284528e-01,8.71414e-01,9.99999e-01,9.99996e-01,8.71417e-01,9.99999e-01
4.310730950e-01,8.73788e-01,9.99999e-01,9.99998e-01,8.73789e-01,9.99999e-01
4.332284605e-01,8.76120e-01,9.99999e-01,9.99999e-01,8.76121e-01,9.99999e-01
4.353946028e-01,8.78412e-01,9.99999e-01,9.99999e-01,8.78412e-01,9.99999e-01
4.375715758e-01,8.80662e-01,9.99999e-01,9.99997e-01,8.80664e-01,9.99999e-01
4.397594337e-01,8.82858e-01,9.99999e-01,9.99977e-01,8.82878e-01,9.99999e-01
4.419582309e-01,8.84954e-01,9.99999e-01,9.99887e-01,8.85053e-01,9.99999e-01
4.441680220e-01,8.87111e-01,9.99999e-01,9.99910e-01,8.87190e-01,9.99999e-01
4.463888621e-01,8.89208e-01,9.99999e-01,9.99907e-01,8.89290e-01,9.99999e-01
4.486208064e-01,8.91302e-01,9.99999e-01,9.99941e-01,8.91353e-01,9.99999e-01
4.508639105e-01,8.93357e-01,9.99999e-01,9.99972e-01,8.93381e-01,9.99999e-01
4.531182300e-01,8.95363e-01,9.99999e-01,9.99988e-01,8.95372e-01,9.99999e-01
4.553838212e-01,8.97323e-01,9.99999e-01,9.99992e-01,8.97329e-01,9.99999e-01
4.576607403e-01,8.99248e-01,9.99999e-01,9.99996e-01,8.99251e-01,9.99999e-01
4.599490440e-01,9.01137e-01,9.99999e-01,9.99997e-01,9.01139e-01,9.99999e-01
4.622487892e-01,9.02994e-01,9.99999e-01,9.99999e-01,9.02994e-01,9.99999e-01
4.645600332e-01,9.04815e-01,9.99999e-01,9.99997e-01,9.04816e-01,9.99999e-01
4.668828333e-01,9.06581e-01,9.99999e-01,9.99972e-01,9.06605e-01,9.99999e-01
4.692172475e-01,9.08310e-01,9.99999e-01,9.99941e-01,9.08363e-01,9.99999e-01
4.715633337e-01,9.10055e-01,9.99999e-01,9.99961e-01,9.10089e-01,9.99999e-01
4.739211504e-01,9.11751e-01,9.99999e-01,9.99963e-01,9.11784e-01,9.99999e-01
4.762907561e-01,9.13432e-01,9.99999e-01,9.99980e-01,9.13449e-01,9.99999e-01
4.786722099e-01,9.15077e-01,9.99999e-01,9.99991e-01,9.15084e-01,9.99999e-01
4.810655710e-01,9.16687e-01,9.99999e-01,9.99997e-01,9.16689e-01,9.99999e-01
4.834708988e-01,9.18246e-01,9.99999e-01,9.99977e-01,9.18266e-01,9.99999e-01
4.858882533e-01,9.19776e-01,9.99999e-01,9.99958e-01,9.19813e-01,9.99999e-01
4.883176946e-01,9.21302e-01,9.99999e-01,9.99965e-01,9.21333e-01,9.99999e-01
4.907592831e-01,9.22797e-01,9.99999e-01,9.99968e-01,9.22826e-01,9.99999e-01
4.932130795e-01,9.24270e-01,9.99999e-01,9.99977e-01,9.24291e-01,9.99999e-01
4.956791449e-01,9.25718e-01,9.99999e-01,9.99987e-01,9.25729e-01,9.99999e-01
4.981575406e-01,9.27088e-01,9.99999e-01,9.99941e-01,9.27141e-01,9.99999e-01
5.006483283e-01,9.28388e-01,9.99999e-01,9.99850e-01,9.28528e-01,9.99998e-01
5.031515699e-01,9.29173e-01,9.99999e-01,9.99237e-01,9.29889e-01,9.99991e-01
5.056673278e-01,9.30841e-01,9.99999e-01,9.99596e-01,9.31225e-01,9.99990e-01
5.081956644e-01,9.32056e-01,9.99999e-01,9.99490e-01,9.32536e-01,9.99993e-01
5.107366428e-01,9.33502e-01,9.99999e-01,9.99655e-01,9.33824e-01,9.99998e-01
5.132903260e-01,9.34903e-01,9.99999e-01,9.99802e-01,9.35088e-01,9.99999e-01
5.158567776e-01,9.36250e-01,9.99999e-01,9.99916e-01,9.36328e-01,9.99999e-01
5.184360615e-01,9.37514e-01,9.99999e-01,9.99966e-01,9.37546e-01,9.99999e-01
5.210282418e-01,9.38729e-01,9.99999e-01,9.99987e-01,9.38741e-01,9.99999e-01
5.236333830e-01,9.39867e-01,9.99999e-01,9.99949e-01,9.39914e-01,9.99999e-01
5.262515499e-01,9.41035e-01,9.99999e-01,9.99968e-01,9.41065e-01,9.99999e-01
5.288828077e-01,9.42167e-01,9.99999e-01,9.99971e-01,9.42194e-01,9.99999e-01
5.315272217e-01,9.43279e-01,9.99999e-01,9.99974e-01,9.43303e-01,9.99999e-01
5.341848578e-01,9.44376e-01,9.99999e-01,9.99983e-01,9.44391e-01,9.99999e-01
5.368557821e-01,9.45405e-01,9.99999e-01,9.99941e-01,9.45459e-01,9.99999e-01
5.395400610e-01,9.46310e-01,9.99999e-01,9.99792e-01,9.46507e-01,9.99997e-01
5.422377613e-01,9.47274e-01,9.99999e-01,9.99728e-01,9.47536e-01,9.99994e-01
5.449489501e-01,9.48303e-01,9.99999e-01,9.99749e-01,9.48545e-01,9.99994e-01
5.476736949e-01,9.49321e-01,9.99999e-01,9.99776e-01,9.49535e-01,9.99997e-01
5.504120634e-01,9.50352e-01,9.99999e-01,9.99837e-01,9.50507e-01,9.99998e-01
5.531641237e-01,9.51383e-01,9.99999e-01,9.99917e-01,9.51460e-01,9.99999e-01
5.559299443e-01,9.52358e-01,9.99999e-01,9.99960e-01,9.52396e-01,9.99999e-01
5.587095940e-01,9.53290e-01,9.99999e-01,9.99974e-01,9.53314e-01,9.99999e-01
5.615031420e-01,9.54188e-01,9.99999e-01,9.99972e-01,9.54214e-01,9.99999e-01
5.643106577e-01,9.55069e-01,9.99999e-01,9.99968e-01,9.55098e-01,9.99999e-01
5.671322110e-01,9.55608e-01,9.99999e-01,9.99628e-01,9.55965e-01,9.99996e-01
5.699678720e-01,9.56419e-01,9.99999e-01,9.99594e-01,9.56816e-01,9.99989e-01
5.728177114e-01,9.57243e-01,9.99999e-01,9.99582e-01,9.57651e-01,9.99990e-01
5.756818000e-01,9.58097e-01,9.99999e-01,9.99615e-01,9.58469e-01,9.99994e-01
5.785602090e-01,9.58950e-01,9.99999e-01,9.99664e-01,9.59273e-01,9.99997e-01
5.814530100e-01,9.59738e-01,9.99999e-01,9.99663e-01,9.60061e-01,9.99998e-01
5.843602750e-01,9.60451e-01,9.99999e-01,9.99602e-01,9.60834e-01,9.99997e-01
5.872820764e-01,9.58274e-01,9.99999e-01,9.96572e-01,9.61593e-01,9.99975e-01
5.902184868e-01,9.58245e-01,9.99999e-01,9.95813e-01,9.62337e-01,9.99933e-01
5.931695792e-01,9.60164e-01,9.99999e-01,9.97049e-01,9.63067e-01,9.99935e-01
5.961354271e-01,9.60623e-01,9.99999e-01,9.96759e-01,9.63783e-01,9.99960e-01
5.991161043e-01,9.62193e-01,9.99999e-01,9.97633e-01,9.64486e-01,9.99988e-01
6.021116848e-01,9.63876e-01,9.99999e-01,9.98655e-01,9.65175e-01,9.99998e-01
6.051222432e-01,9.65193e-01,9.99999e-01,9.99318e-01,9.65851e-01,9.99999e-01
6.081478544e-01,9.66230e-01,9.99999e-01,9.99706e-01,9.66514e-01,9.99999e-01
6.111885937e-01,9.67044e-01,9.99999e-01,9.99875e-01,9.67164e-01,9.99999e-01
6.142445367e-01,9.67749e-01,9.99999e-01,9.99944e-01,9.67802e-01,9.99999e-01
6.173157594e-01,9.68398e-01,9.99999e-01,9.99968e-01,9.68428e-01,9.99999e-01
6.204023382e-01,9.69017e-01,9.99999e-01,9.99973e-01,9.69042e-01,9.99999e-01
6.235043498e-01,9.69535e-01,9.99999e-01,9.99887e-01,9.69644e-01,9.99999e-01
6.266218716e-01,9.69647e-01,9.99999e-01,9.99398e-01,9.70235e-01,9.99995e-01
6.297549810e-01,9.70592e-01,9.99999e-01,9.99779e-01,9.70814e-01,9.99991e-01
6.329037559e-01,9.70951e-01,9.99999e-01,9.99562e-01,9.71382e-01,9.99992e-01
6.360682746e-01,9.71575e-01,9.99999e-01,9.99629e-01,9.71939e-01,9.99995e-01
6.392486160e-01,9.72016e-01,9.99999e-01,9.99518e-01,9.72486e-01,9.99997e-01
6.424448591e-01,9.72397e-01,9.99999e-01,9.99360e-01,9.73022e-01,9.99996e-01
6.456570834e-01,9.70644e-01,9.99999e-01,9.97033e-01,9.73548e-01,9.99982e-01
6.488853688e-01,9.71511e-01,9.99999e-01,9.97425e-01,9.74063e-01,9.99953e-01
6.521297956e-01,9.72352e-01,9.99999e-01,9.97763e-01,9.74569e-01,9.99960e-01
6.553904446e-01,9.72884e-01,9.99999e-01,9.97792e-01,9.75065e-01,9.99970e-01
6.586673968e-01,9.73681e-01,9.99999e-01,9.98091e-01,9.75551e-01,9.99989e-01
6.619607338e-01,9.74950e-01,9.99999e-01,9.98896e-01,9.76028e-01,9.99997e-01
6.652705375e-01,9.75870e-01,9.99999e-01,9.99359e-01,9.76496e-01,9.99998e-01
6.685968902e-01,9.76665e-01,9.99999e-01,9.99702e-01,9.76955e-01,9.99999e-01
6.719398746e-01,9.77270e-01,9.99999e-01,9.99861e-01,9.77405e-01,9.99999e-01
6.752995740e-01,9.77774e-01,9.99999e-01,9.99925e-01,9.77846e-01,9.99999e-01
6.786760719e-01,9.78175e-01,9.99999e-01,9.99892e-01,9.78279e-01,9.99999e-01
6.820694522e-01,9.78524e-01,9.99999e-01,9.99816e-01,9.78704e-01,9.99998e-01
6.854797995e-01,9.78887e-01,9.99999e-01,9.99763e-01,9.79120e-01,9.99997e-01
6.889071985e-01,9.78971e-01,9.99999e-01,9.99436e-01,9.79528e-01,9.99994e-01
6.923517345e-01,9.70795e-01,9.99999e-01,9.90723e-01,9.79928e-01,9.99954e-01
6.958134932e-01,9.75396e-01,9.99999e-01,9.95076e-01,9.80321e-01,9.99898e-01
6.992925606e-01,9.76116e-01,9.99999e-01,9.95407e-01,9.80706e-01,9.99910e-01
7.027890234e-01,9.75416e-01,9.99999e-01,9.94290e-01,9.81083e-01,9.99931e-01
7.063029686e-01,9.76713e-01,9.99999e-01,9.95202e-01,9.81453e-01,9.99965e-01
7.098344834e-01,9.77278e-01,9.99999e-01,9.95397e-01,9.81816e-01,9.99979e-01
7.133836558e-01,9.76183e-01,9.99999e-01,9.93941e-01,9.82172e-01,9.99959e-01
7.169505741e-01,9.34968e-01,9.99999e-01,9.51899e-01,9.82521e-01,9.99685e-01
7.205353270e-01,9.58527e-01,9.99999e-01,9.75779e-01,9.82864e-01,9.99445e-01
7.241380036e-01,9.53018e-01,9.99999e-01,9.69766e-01,9.83199e-01,9.99520e-01
7.277586936e-01,9.56259e-01,9.99999e-01,9.72654e-01,9.83528e-01,9.99608e-01
7.313974871e-01,9.54933e-01,9.99999e-01,9.70785e-01,9.83851e-01,9.99816e-01
7.350544745e-01,9.68332e-01,9.99999e-01,9.83971e-01,9.84167e-01,9.99935e-01
7.387297469e-01,9.72810e-01,9.99999e-01,9.88177e-01,9.84478e-01,9.99970e-01
7.424233956e-01,9.79053e-01,9.99999e-01,9.94187e-01,9.84782e-01,9.99993e-01
7.461355126e-01,9.81612e-01,9.99999e-01,9.96480e-01,9.85080e-01,9.99998e-01
7.498661902e-01,9.83753e-01,9.99999e-01,9.98356e-01,9.85373e-01,9.99999e-01
7.536155211e-01,9.84867e-01,9.99999e-01,9.99195e-01,9.85660e-01,9.99999e-01
7.573835987e-01,9.85532e-01,9.99999e-01,9.99585e-01,9.85941e-01,9.99999e-01
7.611705167e-01,9.85963e-01,9.99999e-01,9.99742e-01,9.86217e-01,9.99999e-01
7.649763693e-01,9.86328e-01,9.99999e-01,9.99838e-01,9.86487e-01,9.99999e-01
7.688012511e-01,9.86642e-01,9.99999e-01,9.99887e-01,9.86752e-01,9.99999e-01
7.726452574e-01,9.86921e-01,9.99999e-01,9.99907e-01,9.87012e-01,9.99999e-01
7.765084837e-01,9.87139e-01,9.99999e-01,9.99869e-01,9.87267e-01,9.99999e-01
7.803910261e-01,9.86963e-01,9.99999e-01,9.99438e-01,9.87517e-01,9.99998e-01
7.842929812e-01,9.85826e-01,9.99999e-01,9.98042e-01,9.87762e-01,9.99995e-01
7.882144461e-01,9.83965e-01,9.99999e-01,9.95938e-01,9.88002e-01,9.99974e-01
7.921555184e-01,9.85978e-01,9.99999e-01,9.97760e-01,9.88238e-01,9.99951e-01
7.961162960e-01,9.84554e-01,9.99999e-01,9.96084e-01,9.88469e-01,9.99953e-01
8.000968774e-01,9.84154e-01,9.99999e-01,9.95455e-01,9.88695e-01,9.99950e-01
8.040973618e-01,9.84390e-01,9.99999e-01,9.95460e-01,9.88917e-01,9.99960e-01
8.081178486e-01,9.79060e-01,9.99999e-01,9.89849e-01,9.89135e-01,9.99963e-01
8.121584379e-01,9.47881e-01,9.99999e-01,9.58223e-01,9.89348e-01,9.99856e-01
8.162192301e-01,9.39704e-01,9.99999e-01,9.50132e-01,9.89558e-01,9.99460e-01
8.203003262e-01,9.64627e-01,9.99999e-01,9.75219e-01,9.89763e-01,9.99368e-01
8.244018279e-01,9.54554e-01,9.99999e-01,9.64715e-01,9.89964e-01,9.99497e-01
8.285238370e-01,9.60209e-01,9.99999e-01,9.70132e-01,9.90161e-01,9.99604e-01
8.326664562e-01,9.60184e-01,9.99999e-01,9.69693e-01,9.90355e-01,9.99836e-01
8.368297885e-01,9.68954e-01,9.99999e-01,9.78239e-01,9.90544e-01,9.99962e-01
8.410139374e-01,9.77844e-01,9.99999e-01,9.87014e-01,9.90730e-01,9.99977e-01
8.452190071e-01,9.84566e-01,9.99999e-01,9.93608e-01,9.90912e-01,9.99986e-01
8.494451021e-01,9.87415e-01,9.99999e-01,9.96300e-01,9.91091e-01,9.99989e-01
8.536923276e-01,9.89083e-01,9.99999e-01,9.97803e-01,9.91266e-01,9.99992e-01
8.579607893e-01,9.90099e-01,9.99999e-01,9.98651e-01,9.91438e-01,9.99997e-01
8.622505932e-01,9.90755e-01,9.99999e-01,9.99141e-01,9.91606e-01,9.99999e-01
8.665618462e-01,9.91246e-01,9.99999e-01,9.99470e-01,9.91771e-01,9.99999e-01
8.708946554e-01,9.91333e-01,9.99999e-01,9.99394e-01,9.91933e-01,9.99999e-01
8.752491287e-01,9.91288e-01,9.99999e-01,9.99189e-01,9.92092e-01,9.99998e-01
8.796253743e-01,9.91136e-01,9.99999e-01,9.98881e-01,9.92248e-01,9.99997e-01
8.840235012e-01,9.91124e-01,9.99999e-01,9.98721e-01,9.92400e-01,9.99991e-01
8.884436187e-01,9.87977e-01,9.99999e-01,9.95415e-01,9.92550e-01,9.99977e-01
8.928858368e-01,9.45034e-01,9.99999e-01,9.52108e-01,9.92696e-01,9.99871e-01
8.973502660e-01,9.08938e-01,9.99999e-01,9.16093e-01,9.92840e-01,9.99343e-01
9.018370173e-01,9.48275e-01,9.99999e-01,9.55963e-01,9.92981e-01,9.98968e-01
9.063462024e-01,9.54224e-01,9.99999e-01,9.61705e-01,9.93119e-01,9.99093e-01
9.108779334e-01,9.33411e-01,9.99999e-01,9.40634e-01,9.93254e-01,9.99058e-01
9.154323231e-01,9.25839e-01,9.99999e-01,9.32727e-01,9.93387e-01,9.99221e-01
9.200094847e-01,9.40245e-01,9.99999e-01,9.46792e-01,9.93517e-01,9.99563e-01
9.246095321e-01,9.13149e-01,9.99999e-01,9.19450e-01,9.93645e-01,9.99497e-01
9.292325798e-01,5.62857e-01,9.99999e-01,5.67495e-01,9.93770e-01,9.98043e-01
9.338787427e-01,4.71869e-01,9.99999e-01,4.78626e-01,9.93893e-01,9.91939e-01
9.385481364e-01,7.31072e-01,9.99999e-01,7.42588e-01,9.94013e-01,9.90420e-01
9.432408771e-01,6.54602e-01,9.99999e-01,6.63956e-01,9.94131e-01,9.91729e-01
9.479570815e-01,5.62204e-01,9.99999e-01,5.69291e-01,9.94246e-01,9.93263e-01
9.526968669e-01,6.46351e-01,9.99999e-01,6.52702e-01,9.94360e-01,9.95885e-01
9.574603512e-01,6.69917e-01,9.99999e-01,6.75053e-01,9.94471e-01,9.97907e-01
9.622476530e-01,7.20533e-01,9.99999e-01,7.25508e-01,9.94580e-01,9.98552e-01
9.670588912e-01,8.26088e-01,9.99999e-01,8.31323e-01,9.94687e-01,9.99009e-01
9.718941857e-01,8.85718e-01,9.99999e-01,8.91004e-01,9.94791e-01,9.99270e-01
9.767536566e-01,9.03534e-01,9.99999e-01,9.08677e-01,9.94894e-01,9.99442e-01
9.816374249e-01,9.26506e-01,9.99999e-01,9.31346e-01,9.94994e-01,9.99806e-01
9.865456120e-01,9.51799e-01,9.99999e-01,9.56530e-01,9.95093e-01,9.99959e-01
9.914783401e-01,9.68234e-01,9.99999e-01,9.72924e-01,9.95190e-01,9.99988e-01
9.964357318e-01,9.80510e-01,9.99999e-01,9.85161e-01,9.95284e-01,9.99992e-01
1.001417910e+00,9.86489e-01,9.99999e-01,9.91080e-01,9.95377e-01,9.99989e-01
1.006425000e+00,9.90394e-01,9.99999e-01,9.94916e-01,9.95468e-01,9.99985e-01
1.011457125e+00,9.92394e-01,9.99999e-01,9.96834e-01,9.95558e-01,9.99986e-01
1.016514411e+00,9.93499e-01,9.99999e-01,9.97853e-01,9.95645e-01,9.99990e-01
1.021596983e+00,9.94020e-01,9.99999e-01,9.98289e-01,9.95731e-01,9.99990e-01
1.026704968e+00,9.94482e-01,9.99999e-01,9.98666e-01,9.95815e-01,9.99993e-01
1.031838492e+00,9.94929e-01,9.99999e-01,9.99029e-01,9.95898e-01,9.99997e-01
1.036997685e+00,9.95405e-01,9.99999e-01,9.99424e-01,9.95979e-01,9.99999e-01
1.042182673e+00,9.95377e-01,9.99999e-01,9.99315e-01,9.96058e-01,9.99999e-01
1.047393587e+00,9.95231e-01,9.99999e-01,9.99091e-01,9.96135e-01,9.99999e-01
1.052630555e+00,9.94971e-01,9.99999e-01,9.98754e-01,9.96212e-01,9.99999e-01
1.057893707e+00,9.94219e-01,9.99999e-01,9.97924e-01,9.96286e-01,9.99998e-01
1.063183176e+00,9.92954e-01,9.99999e-01,9.96582e-01,9.96360e-01,9.99997e-01
1.068499092e+00,9.90724e-01,9.99999e-01,9.94276e-01,9.96431e-01,9.99995e-01
1.073841587e+00,9.89832e-01,9.99999e-01,9.93314e-01,9.96502e-01,9.99991e-01
1.079210795e+00,9.87992e-01,9.99999e-01,9.91414e-01,9.96571e-01,9.99976e-01
1.084606849e+00,9.83676e-01,9.99999e-01,9.87048e-01,9.96638e-01,9.99944e-01
1.090029883e+00,9.78193e-01,9.99999e-01,9.81539e-01,9.96704e-01,9.99885e-01
1.095480033e+00,9.47134e-01,9.99999e-01,9.50399e-01,9.96769e-01,9.99792e-01
1.100957433e+00,8.75654e-01,9.99999e-01,8.78770e-01,9.96833e-01,9.99619e-01
1.106462220e+00,7.18263e-01,9.99999e-01,7.20964e-01,9.96896e-01,9.99354e-01
1.111994531e+00,4.99550e-01,9.99999e-01,5.01933e-01,9.96957e-01,9.98287e-01
1.117554504e+00,3.25604e-01,9.99999e-01,3.28605e-01,9.97017e-01,9.93830e-01
1.123142276e+00,4.35146e-01,9.99999e-01,4.42873e-01,9.97076e-01,9.85433e-01
1.128757988e+00,5.80752e-01,9.99999e-01,5.92392e-01,9.97133e-01,9.83167e-01
1.134401778e+00,3.24884e-01,9.99999e-01,3.30536e-01,9.97190e-01,9.85669e-01
1.140073787e+00,7.20455e-01,9.99999e-01,7.30824e-01,9.97245e-01,9.88533e-01
1.145774156e+00,5.13961e-01,9.99999e-01,5.20821e-01,9.97300e-01,9.89498e-01
1.151503026e+00,4.80526e-01,9.99999e-01,4.84643e-01,9.97353e-01,9.94136e-01
1.157260541e+00,5.41355e-01,9.99999e-01,5.43718e-01,9.97405e-01,9.98242e-01
1.163046844e+00,6.34544e-01,9.99999e-01,6.36479e-01,9.97456e-01,9.99501e-01
1.168862078e+00,7.28045e-01,9.99999e-01,7.30051e-01,9.97506e-01,9.99742e-01
1.174706389e+00,8.21255e-01,9.99999e-01,8.23547e-01,9.97555e-01,9.99659e-01
1.180579921e+00,8.85832e-01,9.99999e-01,8.88416e-01,9.97604e-01,9.99485e-01
1.186482820e+00,9.32689e-01,9.99999e-01,9.35378e-01,9.97651e-01,9.99471e-01
1.192415234e+00,9.59206e-01,9.99999e-01,9.61800e-01,9.97697e-01,9.99604e-01
1.198377311e+00,9.65216e-01,9.99999e-01,9.67760e-01,9.97743e-01,9.99625e-01
1.204369197e+00,9.66970e-01,9.99999e-01,9.69441e-01,9.97787e-01,9.99661e-01
1.210391043e+00,9.68447e-01,9.99999e-01,9.70751e-01,9.97831e-01,9.99793e-01
1.216442998e+00,9.72822e-01,9.99999e-01,9.75016e-01,9.97874e-01,9.99873e-01
1.222525213e+00,9.78394e-01,9.99999e-01,9.80513e-01,9.97916e-01,9.99921e-01
1.228637839e+00,9.84389e-01,9.99999e-01,9.86439e-01,9.97957e-01,9.99963e-01
1.234781029e+00,9.87911e-01,9.99999e-01,9.89903e-01,9.97997e-01,9.99989e-01
1.240954934e+00,9.91658e-01,9.99999e-01,9.93610e-01,9.98036e-01,9.99996e-01
1.247159708e+00,9.93102e-01,9.99999e-01,9.95018e-01,9.98075e-01,9.99997e-01
1.253395507e+00,9.93702e-01,9.99999e-01,9.95582e-01,9.98113e-01,9.99997e-01
1.259662485e+00,9.93999e-01,9.99999e-01,9.95844e-01,9.98150e-01,9.99995e-01
1.265960797e+00,9.91519e-01,9.99999e-01,9.93326e-01,9.98187e-01,9.99993e-01
1.272290601e+00,9.88417e-01,9.99999e-01,9.90187e-01,9.98223e-01,9.99988e-01
1.278652054e+00,9.77628e-01,9.99999e-01,9.79353e-01,9.98258e-01,9.99979e-01
1.285045314e+00,9.66047e-01,9.99999e-01,9.67736e-01,9.98292e-01,9.99961e-01
1.291470541e+00,9.34436e-01,9.99999e-01,9.36064e-01,9.98326e-01,9.99933e-01
1.297927893e+00,9.15680e-01,9.99999e-01,9.17299e-01,9.98359e-01,9.99875e-01
1.304417533e+00,8.92918e-01,9.99999e-01,8.94591e-01,9.98391e-01,9.99736e-01
1.310939621e+00,8.78911e-01,9.99999e-01,8.80774e-01,9.98423e-01,9.99459e-01
1.317494319e+00,8.68358e-01,9.99999e-01,8.70571e-01,9.98454e-01,9.99000e-01
1.324081790e+00,8.10714e-01,9.99999e-01,8.13269e-01,9.98484e-01,9.98369e-01
1.330702199e+00,4.50994e-01,9.99999e-01,4.52937e-01,9.98514e-01,9.97190e-01
1.337355710e+00,1.25375e-01,9.99999e-01,1.26240e-01,9.98544e-01,9.94597e-01
1.344042489e+00,7.42982e-03,9.99999e-01,7.56283e-03,9.98572e-01,9.83816e-01
1.350762701e+00,2.98462e-05,9.99999e-01,3.16051e-05,9.98601e-01,9.45671e-01
1.357516515e+00,3.80376e-07,9.99999e-01,4.48752e-07,9.98628e-01,8.48795e-01
1.364304097e+00,6.13120e-05,9.99999e-01,8.18290e-05,9.98655e-01,7.50277e-01
1.371125618e+00,1.35063e-03,9.99999e-01,1.77317e-03,9.98682e-01,7.62709e-01
1.377981246e+00,3.62342e-03,9.99999e-01,4.57636e-03,9.98708e-01,7.92791e-01
1.384871152e+00,9.66795e-05,9.99999e-01,1.20466e-04,9.98733e-01,8.03563e-01
1.391795508e+00,9.01855e-05,9.99999e-01,1.11067e-04,9.98758e-01,8.13002e-01
1.398754485e+00,4.35529e-04,9.99999e-01,5.17051e-04,9.98783e-01,8.43357e-01
1.405748258e+00,4.43804e-04,9.99999e-01,4.90865e-04,9.98807e-01,9.05204e-01
1.412776999e+00,4.60282e-04,9.99999e-01,4.82259e-04,9.98830e-01,9.55546e-01
1.419840884e+00,8.21493e-04,9.99999e-01,8.38997e-04,9.98853e-01,9.80259e-01
1.426940089e+00,3.71372e-03,9.99999e-01,3.77464e-03,9.98876e-01,9.84966e-01
1.434074789e+00,1.39443e-02,9.99999e-01,1.42114e-02,9.98898e-01,9.82284e-01
1.441245163e+00,3.60091e-02,9.99999e-01,3.67527e-02,9.98920e-01,9.80825e-01
1.448451389e+00,9.47733e-02,9.99999e-01,9.64957e-02,9.98941e-01,9.83190e-01
1.455693646e+00,2.05959e-01,9.99999e-01,2.08911e-01,9.98962e-01,9.86895e-01
1.462972114e+00,2.56352e-01,9.99999e-01,2.59861e-01,9.98983e-01,9.87498e-01
1.470286975e+00,2.05035e-01,9.99999e-01,2.07793e-01,9.99003e-01,9.87709e-01
