#,Wave/freq,Total,N2,H2O,Rayleigh,CIA
4.000000000e-01,9.00456e-01,9.99999e-01,9.99987e-01,9.00467e-01,9.99999e-01
4.020000000e-01,9.02329e-01,9.99999e-01,9.99992e-01,9.02336e-01,9.99999e-01
4.040100000e-01,9.04166e-01,9.99999e-01,9.99996e-01,9.04169e-01,9.99999e-01
4.060300500e-01,9.05970e-01,9.99999e-01,9.99998e-01,9.05970e-01,9.99999e-01
4.080602003e-01,9.07739e-01,9.99999e-01,9.99999e-01,9.07739e-01,9.99999e-01
4.101005013e-01,9.09476e-01,9.99999e-01,9.99999e-01,9.09476e-01,9.99999e-01
4.121510038e-01,9.11182e-01,9.99999e-01,9.99999e-01,9.11182e-01,9.99999e-01
4.142117588e-01,9.12855e-01,9.99999e-01,9.99996e-01,9.12858e-01,9.99999e-01
4.162828176e-01,9.14490e-01,9.99999e-01,9.99984e-01,9.14503e-01,9.99999e-01
4.183642317e-01,9.16111e-01,9.99999e-01,9.99990e-01,9.16119e-01,9.99999e-01
4.204560528e-01,9.17701e-01,9.99999e-01,9.99994e-01,9.17706e-01,9.99999e-01
4.225583331e-01,9.19262e-01,9.99999e-01,9.99997e-01,9.19264e-01,9.99999e-01
4.246711247e-01,9.20792e-01,9.99999e-01,9.99997e-01,9.20794e-01,9.99999e-01
4.267944804e-01,9.22294e-01,9.99999e-01,9.99997e-01,9.22296e-01,9.99999e-01
4.289284528e-01,9.23769e-01,9.99999e-01,9.99997e-01,9.23771e-01,9.99999e-01
4.310730950e-01,9.25218e-01,9.99999e-01,9.99998e-01,9.25219e-01,9.99999e-01
4.332284605e-01,9.26640e-01,9.99999e-01,9.99999e-01,9.26640e-01,9.99999e-01
4.353946028e-01,9.28036e-01,9.99999e-01,9.99999e-01,9.28036e-01,9.99999e-01
4.375715758e-01,9.29404e-01,9.99999e-01,9.99998e-01,9.29406e-01,9.99999e-01
4.397594337e-01,9.30739e-01,9.99999e-01,9.99986e-01,9.30751e-01,9.99999e-01
4.419582309e-01,9.32011e-01,9.99999e-01,9.99935e-01,9.32071e-01,9.99999e-01
4.441680220e-01,9.33319e-01,9.99999e-01,9.99948e-01,9.33367e-01,9.99999e-01
4.463888621e-01,9.34589e-01,9.99999e-01,9.99946e-01,9.34639e-01,9.99999e-01
4.486208064e-01,9.35857e-01,9.99999e-01,9.99966e-01,9.35888e-01,9.99999e-01
4.508639105e-01,9.37099e-01,9.99999e-01,9.99983e-01,9.37113e-01,9.99999e-01
4.531182300e-01,9.38311e-01,9.99999e-01,9.99993e-01,9.38316e-01,9.99999e-01
4.553838212e-01,9.39493e-01,9.99999e-01,9.99995e-01,9.39497e-01,9.99999e-01
4.576607403e-01,9.40654e-01,9.99999e-01,9.99997e-01,9.40656e-01,9.99999e-01
4.599490440e-01,9.41792e-01,9.99999e-01,9.99998e-01,9.41793e-01,9.99999e-01
4.622487892e-01,9.42909e-01,9.99999e-01,9.99999e-01,9.42910e-01,9.99999e-01
4.645600332e-01,9.44004e-01,9.99999e-01,9.99998e-01,9.44005e-01,9.99999e-01
4.668828333e-01,9.45066e-01,9.99999e-01,9.99984e-01,9.45080e-01,9.99999e-01
4.692172475e-01,9.46104e-01,9.99999e-01,9.99966e-01,9.46135e-01,9.99999e-01
4.715633337e-01,9.47150e-01,9.99999e-01,9.99977e-01,9.47171e-01,9.99999e-01
4.739211504e-01,9.48167e-01,9.99999e-01,9.99978e-01,9.48187e-01,9.99999e-01
4.762907561e-01,9.49173e-01,9.99999e-01,9.99988e-01,9.49184e-01,9.99999e-01
4.786722099e-01,9.50158e-01,9.99999e-01,9.99995e-01,9.50162e-01,9.99999e-01
4.810655710e-01,9.51121e-01,9.99999e-01,9.99998e-01,9.51122e-01,9.99999e-01
4.834708988e-01,9.52052e-01,9.99999e-01,9.99987e-01,9.52064e-01,9.99999e-01
4.858882533e-01,9.52965e-01,9.99999e-01,9.99975e-01,9.52988e-01,9.99999e-01
4.883176946e-01,9.53876e-01,9.99999e-01,9.99979e-01,9.53895e-01,9.99999e-01
4.907592831e-01,9.54767e-01,9.99999e-01,9.99981e-01,9.54785e-01,9.99999e-01
4.932130795e-01,9.55645e-01,9.99999e-01,9.99986e-01,9.55658e-01,9.99999e-01
4.956791449e-01,9.56508e-01,9.99999e-01,9.99992e-01,9.56514e-01,9.99999e-01
4.981575406e-01,9.57322e-01,9.99999e-01,9.99966e-01,9.57354e-01,9.99999e-01
5.006483283e-01,9.58096e-01,9.99999e-01,9.99913e-01,9.58179e-01,9.99998e-01
5.031515699e-01,9.58562e-01,9.99999e-01,9.99560e-01,9.58988e-01,9.99994e-01
5.056673278e-01,9.59553e-01,9.99999e-01,9.99767e-01,9.59781e-01,9.99994e-01
5.081956644e-01,9.60275e-01,9.99999e-01,9.99706e-01,9.60560e-01,9.99996e-01
5.107366428e-01,9.61132e-01,9.99999e-01,9.99801e-01,9.61324e-01,9.99998e-01
5.132903260e-01,9.61964e-01,9.99999e-01,9.99886e-01,9.62073e-01,9.99999e-01
5.158567776e-01,9.62762e-01,9.99999e-01,9.99951e-01,9.62808e-01,9.99999e-01
5.184360615e-01,9.63510e-01,9.99999e-01,9.99980e-01,9.63529e-01,9.99999e-01
5.210282418e-01,9.64229e-01,9.99999e-01,9.99992e-01,9.64236e-01,9.99999e-01
5.236333830e-01,9.64902e-01,9.99999e-01,9.99970e-01,9.64930e-01,9.99999e-01
5.262515499e-01,9.65593e-01,9.99999e-01,9.99981e-01,9.65611e-01,9.99999e-01
5.288828077e-01,9.66262e-01,9.99999e-01,9.99983e-01,9.66278e-01,9.99999e-01
5.315272217e-01,9.66919e-01,9.99999e-01,9.99984e-01,9.66933e-01,9.99999e-01
5.341848578e-01,9.67567e-01,9.99999e-01,9.99990e-01,9.67576e-01,9.99999e-01
5.368557821e-01,9.68174e-01,9.99999e-01,9.99966e-01,9.68206e-01,9.99999e-01
5.395400610e-01,9.68708e-01,9.99999e-01,9.99880e-01,9.68824e-01,9.99998e-01
5.422377613e-01,9.69276e-01,9.99999e-01,9.99843e-01,9.69430e-01,9.99996e-01
5.449489501e-01,9.69882e-01,9.99999e-01,9.99855e-01,9.70025e-01,9.99996e-01
5.476736949e-01,9.70482e-01,9.99999e-01,9.99870e-01,9.70608e-01,9.99998e-01
5.504120634e-01,9.71089e-01,9.99999e-01,9.99906e-01,9.71180e-01,9.99999e-01
5.531641237e-01,9.71696e-01,9.99999e-01,9.99952e-01,9.71741e-01,9.99999e-01
5.559299443e-01,9.72270e-01,9.99999e-01,9.99976e-01,9.72292e-01,9.99999e-01
5.587095940e-01,9.72818e-01,9.99999e-01,9.99985e-01,9.72832e-01,9.99999e-01
5.615031420e-01,9.73346e-01,9.99999e-01,9.99983e-01,9.73361e-01,9.99999e-01
5.643106577e-01,9.73863e-01,9.99999e-01,9.99981e-01,9.73880e-01,9.99999e-01
5.671322110e-01,9.74180e-01,9.99999e-01,9.99785e-01,9.74389e-01,9.99997e-01
5.699678720e-01,9.74656e-01,9.99999e-01,9.99766e-01,9.74889e-01,9.99993e-01
5.728177114e-01,9.75140e-01,9.99999e-01,9.99759e-01,9.75379e-01,9.99994e-01
5.756818000e-01,9.75641e-01,9.99999e-01,9.99778e-01,9.75859e-01,9.99996e-01
5.785602090e-01,9.76141e-01,9.99999e-01,9.99806e-01,9.76330e-01,9.99998e-01
5.814530100e-01,9.76603e-01,9.99999e-01,9.99806e-01,9.76792e-01,9.99999e-01
5.843602750e-01,9.77021e-01,9.99999e-01,9.99770e-01,9.77245e-01,9.99998e-01
5.872820764e-01,9.75744e-01,9.99999e-01,9.98023e-01,9.77690e-01,9.99985e-01
5.902184868e-01,9.75727e-01,9.99999e-01,9.97585e-01,9.78126e-01,9.99961e-01
5.931695792e-01,9.76852e-01,9.99999e-01,9.98298e-01,9.78553e-01,9.99962e-01
5.961354271e-01,9.77121e-01,9.99999e-01,9.98131e-01,9.78972e-01,9.99977e-01
5.991161043e-01,9.78041e-01,9.99999e-01,9.98635e-01,9.79383e-01,9.99992e-01
6.021116848e-01,9.79026e-01,9.99999e-01,9.99224e-01,9.79786e-01,9.99998e-01
6.051222432e-01,9.79797e-01,9.99999e-01,9.99607e-01,9.80182e-01,9.99999e-01
6.081478544e-01,9.80403e-01,9.99999e-01,9.99830e-01,9.80569e-01,9.99999e-01
6.111885937e-01,9.80879e-01,9.99999e-01,9.99927e-01,9.80949e-01,9.99999e-01
6.142445367e-01,9.81291e-01,9.99999e-01,9.99967e-01,9.81322e-01,9.99999e-01
6.173157594e-01,9.81670e-01,9.99999e-01,9.99981e-01,9.81688e-01,9.99999e-01
6.204023382e-01,9.82031e-01,9.99999e-01,9.99984e-01,9.82046e-01,9.99999e-01
6.235043498e-01,9.82334e-01,9.99999e-01,9.99935e-01,9.82397e-01,9.99999e-01
6.266218716e-01,9.82399e-01,9.99999e-01,9.99653e-01,9.82742e-01,9.99997e-01
6.297549810e-01,9.82950e-01,9.99999e-01,9.99872e-01,9.83080e-01,9.99994e-01
6.329037559e-01,9.83160e-01,9.99999e-01,9.99747e-01,9.83411e-01,9.99995e-01
6.360682746e-01,9.83524e-01,9.99999e-01,9.99786e-01,9.83736e-01,9.99997e-01
6.392486160e-01,9.83781e-01,9.99999e-01,9.99722e-01,9.84055e-01,9.99998e-01
6.424448591e-01,9.84004e-01,9.99999e-01,9.99631e-01,9.84368e-01,9.99997e-01
6.456570834e-01,9.82980e-01,9.99999e-01,9.98289e-01,9.84674e-01,9.99989e-01
6.488853688e-01,9.83487e-01,9.99999e-01,9.98515e-01,9.84974e-01,9.99972e-01
6.521297956e-01,9.83977e-01,9.99999e-01,9.98710e-01,9.85269e-01,9.99977e-01
6.553904446e-01,9.84287e-01,9.99999e-01,9.98727e-01,9.85558e-01,9.99982e-01
6.586673968e-01,9.84751e-01,9.99999e-01,9.98899e-01,9.85841e-01,9.99994e-01
6.619607338e-01,9.85491e-01,9.99999e-01,9.99364e-01,9.86119e-01,9.99998e-01
6.652705375e-01,9.86027e-01,9.99999e-01,9.99630e-01,9.86391e-01,9.99998e-01
6.685968902e-01,9.86489e-01,9.99999e-01,9.99828e-01,9.86658e-01,9.99999e-01
6.719398746e-01,9.86841e-01,9.99999e-01,9.99920e-01,9.86920e-01,9.99999e-01
6.752995740e-01,9.87134e-01,9.99999e-01,9.99956e-01,9.87176e-01,9.99999e-01
6.786760719e-01,9.87367e-01,9.99999e-01,9.99938e-01,9.87428e-01,9.99999e-01
6.820694522e-01,9.87570e-01,9.99999e-01,9.99894e-01,9.87675e-01,9.99998e-01
6.854797995e-01,9.87781e-01,9.99999e-01,9.99863e-01,9.87917e-01,9.99998e-01
6.889071985e-01,9.87830e-01,9.99999e-01,9.99674e-01,9.88154e-01,9.99996e-01
6.923517345e-01,9.83066e-01,9.99999e-01,9.94642e-01,9.88387e-01,9.99973e-01
6.958134932e-01,9.85749e-01,9.99999e-01,9.97158e-01,9.88615e-01,9.99941e-01
6.992925606e-01,9.86169e-01,9.99999e-01,9.97350e-01,9.88838e-01,9.99948e-01
7.027890234e-01,9.85761e-01,9.99999e-01,9.96705e-01,9.89058e-01,9.99960e-01
7.063029686e-01,9.86516e-01,9.99999e-01,9.97233e-01,9.89273e-01,9.99979e-01
7.098344834e-01,9.86846e-01,9.99999e-01,9.97345e-01,9.89483e-01,9.99987e-01
7.133836558e-01,9.86207e-01,9.99999e-01,9.96503e-01,9.89690e-01,9.99976e-01
7.169505741e-01,9.61921e-01,9.99999e-01,9.71917e-01,9.89893e-01,9.99818e-01
7.205353270e-01,9.75863e-01,9.99999e-01,9.85943e-01,9.90091e-01,9.99680e-01
7.241380036e-01,9.72627e-01,9.99999e-01,9.82438e-01,9.90286e-01,9.99723e-01
7.277586936e-01,9.74534e-01,9.99999e-01,9.84125e-01,9.90477e-01,9.99774e-01
7.313974871e-01,9.73764e-01,9.99999e-01,9.83044e-01,9.90664e-01,9.99893e-01
7.350544745e-01,9.81625e-01,9.99999e-01,9.90727e-01,9.90848e-01,9.99962e-01
7.387297469e-01,9.84242e-01,9.99999e-01,9.93168e-01,9.91028e-01,9.99982e-01
7.424233956e-01,9.87877e-01,9.99999e-01,9.96646e-01,9.91204e-01,9.99996e-01
7.461355126e-01,9.89365e-01,9.99999e-01,9.97970e-01,9.91377e-01,9.99998e-01
7.498661902e-01,9.90607e-01,9.99999e-01,9.99052e-01,9.91547e-01,9.99999e-01
7.536155211e-01,9.91253e-01,9.99999e-01,9.99536e-01,9.91713e-01,9.99999e-01
7.573835987e-01,9.91639e-01,9.99999e-01,9.99760e-01,9.91876e-01,9.99999e-01
7.611705167e-01,9.91889e-01,9.99999e-01,9.99851e-01,9.92036e-01,9.99999e-01
7.649763693e-01,9.92100e-01,9.99999e-01,9.99906e-01,9.92192e-01,9.99999e-01
7.688012511e-01,9.92282e-01,9.99999e-01,9.99934e-01,9.92346e-01,9.99999e-01
7.726452574e-01,9.92444e-01,9.99999e-01,9.99946e-01,9.92497e-01,9.99999e-01
7.765084837e-01,9.92570e-01,9.99999e-01,9.99924e-01,9.92644e-01,9.99999e-01
7.803910261e-01,9.92468e-01,9.99999e-01,9.99676e-01,9.92789e-01,9.99999e-01
7.842929812e-01,9.91809e-01,9.99999e-01,9.98871e-01,9.92931e-01,9.99997e-01
7.882144461e-01,9.90730e-01,9.99999e-01,9.97657e-01,9.93070e-01,9.99985e-01
7.921555184e-01,9.91897e-01,9.99999e-01,9.98708e-01,9.93206e-01,9.99971e-01
7.961162960e-01,9.91071e-01,9.99999e-01,9.97741e-01,9.93340e-01,9.99972e-01
8.000968774e-01,9.90840e-01,9.99999e-01,9.97379e-01,9.93471e-01,9.99971e-01
8.040973618e-01,9.90976e-01,9.99999e-01,9.97381e-01,9.93600e-01,9.99977e-01
8.081178486e-01,9.87878e-01,9.99999e-01,9.94136e-01,9.93726e-01,9.99978e-01
8.121584379e-01,9.69588e-01,9.99999e-01,9.75668e-01,9.93849e-01,9.99916e-01
8.162192301e-01,9.64739e-01,9.99999e-01,9.70892e-01,9.93970e-01,9.99688e-01
8.203003262e-01,9.79382e-01,9.99999e-01,9.85563e-01,9.94089e-01,9.99635e-01
8.244018279e-01,9.73403e-01,9.99999e-01,9.79359e-01,9.94205e-01,9.99709e-01
8.285238370e-01,9.76855e-01,9.99999e-01,9.82658e-01,9.94320e-01,9.99772e-01
8.326664562e-01,9.76835e-01,9.99999e-01,9.82396e-01,9.94431e-01,9.99905e-01
8.368297885e-01,9.81986e-01,9.99999e-01,9.87396e-01,9.94541e-01,9.99978e-01
8.410139374e-01,9.87172e-01,9.99999e-01,9.92495e-01,9.94649e-01,9.99986e-01
8.452190071e-01,9.91078e-01,9.99999e-01,9.96311e-01,9.94754e-01,9.99991e-01
8.494451021e-01,9.92730e-01,9.99999e-01,9.97866e-01,9.94857e-01,9.99993e-01
8.536923276e-01,9.93696e-01,9.99999e-01,9.98733e-01,9.94959e-01,9.99995e-01
8.579607893e-01,9.94284e-01,9.99999e-01,9.99222e-01,9.95058e-01,9.99998e-01
8.622505932e-01,9.94663e-01,9.99999e-01,9.99504e-01,9.95155e-01,9.99999e-01
8.665618462e-01,9.94947e-01,9.99999e-01,9.99694e-01,9.95251e-01,9.99999e-01
8.708946554e-01,9.94997e-01,9.99999e-01,9.99651e-01,9.95344e-01,9.99999e-01
8.752491287e-01,9.94971e-01,9.99999e-01,9.99532e-01,9.95436e-01,9.99999e-01
8.796253743e-01,9.94883e-01,9.99999e-01,9.99355e-01,9.95526e-01,9.99998e-01
8.840235012e-01,9.94876e-01,9.99999e-01,9.99262e-01,9.95614e-01,9.99995e-01
8.884436187e-01,9.93053e-01,9.99999e-01,9.97353e-01,9.95701e-01,9.99986e-01
8.928858368e-01,9.67876e-01,9.99999e-01,9.72043e-01,9.95785e-01,9.99925e-01
8.973502660e-01,9.46293e-01,9.99999e-01,9.50577e-01,9.95868e-01,9.99621e-01
9.018370173e-01,9.69764e-01,9.99999e-01,9.74286e-01,9.95950e-01,9.99405e-01
9.063462024e-01,9.73296e-01,9.99999e-01,9.77685e-01,9.96030e-01,9.99477e-01
9.108779334e-01,9.60962e-01,9.99999e-01,9.65239e-01,9.96108e-01,9.99457e-01
9.154323231e-01,9.56473e-01,9.99999e-01,9.60566e-01,9.96185e-01,9.99551e-01
9.200094847e-01,9.65023e-01,9.99999e-01,9.68888e-01,9.96260e-01,9.99748e-01
9.246095321e-01,9.48491e-01,9.99999e-01,9.52256e-01,9.96334e-01,9.99710e-01
9.292325798e-01,7.12895e-01,9.99999e-01,7.16273e-01,9.96406e-01,9.98872e-01
9.338787427e-01,6.41670e-01,9.99999e-01,6.46947e-01,9.96477e-01,9.95347e-01
9.385481364e-01,8.31647e-01,9.99999e-01,8.39169e-01,9.96546e-01,9.94469e-01
9.432408771e-01,7.76921e-01,9.99999e-01,7.83298e-01,9.96614e-01,9.95226e-01
9.479570815e-01,7.07126e-01,9.99999e-01,7.12248e-01,9.96681e-01,9.96113e-01
9.526968669e-01,7.71328e-01,9.99999e-01,7.75685e-01,9.96746e-01,9.97627e-01
9.574603512e-01,7.91281e-01,9.99999e-01,7.94770e-01,9.96811e-01,9.98793e-01
9.622476530e-01,8.26380e-01,9.99999e-01,8.29663e-01,9.96873e-01,9.99165e-01
9.670588912e-01,8.95017e-01,9.99999e-01,8.98280e-01,9.96935e-01,9.99429e-01
9.718941857e-01,9.32299e-01,9.99999e-01,9.35500e-01,9.96995e-01,9.99579e-01
9.767536566e-01,9.43108e-01,9.99999e-01,9.46196e-01,9.97055e-01,9.99678e-01
9.816374249e-01,9.56919e-01,9.99999e-01,9.59795e-01,9.97113e-01,9.99888e-01
9.865456120e-01,9.71920e-01,9.99999e-01,9.74700e-01,9.97170e-01,9.99976e-01
9.914783401e-01,9.81569e-01,9.99999e-01,9.84305e-01,9.97226e-01,9.99993e-01
9.964357318e-01,9.88722e-01,9.99999e-01,9.91421e-01,9.97280e-01,9.99995e-01
1.001417910e+00,9.92193e-01,9.99999e-01,9.94850e-01,9.97334e-01,9.99993e-01
1.006425000e+00,9.94454e-01,9.99999e-01,9.97067e-01,9.97386e-01,9.99991e-01
1.011457125e+00,9.95610e-01,9.99999e-01,9.98174e-01,9.97438e-01,9.99991e-01
1.016514411e+00,9.96249e-01,9.99999e-01,9.98762e-01,9.97489e-01,9.99994e-01
1.021596983e+00,9.96550e-01,9.99999e-01,9.99014e-01,9.97538e-01,9.99994e-01
1.026704968e+00,9.96817e-01,9.99999e-01,9.99231e-01,9.97587e-01,9.99995e-01
1.031838492e+00,9.97075e-01,9.99999e-01,9.99440e-01,9.97634e-01,9.99998e-01
1.036997685e+00,9.97350e-01,9.99999e-01,9.99668e-01,9.97681e-01,9.99999e-01
1.042182673e+00,9.97333e-01,9.99999e-01,9.99605e-01,9.97727e-01,9.99999e-01
1.047393587e+00,9.97249e-01,9.99999e-01,9.99476e-01,9.97771e-01,9.99999e-01
1.052630555e+00,9.97099e-01,9.99999e-01,9.99282e-01,9.97815e-01,9.99999e-01
1.057893707e+00,9.96665e-01,9.99999e-01,9.98803e-01,9.97858e-01,9.99999e-01
1.063183176e+00,9.95934e-01,9.99999e-01,9.98029e-01,9.97901e-01,9.99998e-01
1.068499092e+00,9.94645e-01,9.99999e-01,9.96697e-01,9.97942e-01,9.99997e-01
1.073841587e+00,9.94127e-01,9.99999e-01,9.96141e-01,9.97983e-01,9.99994e-01
1.079210795e+00,9.93062e-01,9.99999e-01,9.95042e-01,9.98022e-01,9.99986e-01
1.084606849e+00,9.90559e-01,9.99999e-01,9.92513e-01,9.98061e-01,9.99967e-01
1.090029883e+00,9.87368e-01,9.99999e-01,9.89312e-01,9.98100e-01,9.99933e-01
1.095480033e+00,9.69162e-01,9.99999e-01,9.71085e-01,9.98137e-01,9.99880e-01
1.100957433e+00,9.26140e-01,9.99999e-01,9.28036e-01,9.98174e-01,9.99780e-01
1.106462220e+00,8.24799e-01,9.99999e-01,8.26584e-01,9.98210e-01,9.99627e-01
1.111994531e+00,6.65748e-01,9.99999e-01,6.67576e-01,9.98245e-01,9.99012e-01
1.117554504e+00,5.15577e-01,9.99999e-01,5.18309e-01,9.98280e-01,9.96441e-01
1.123142276e+00,6.05853e-01,9.99999e-01,6.12028e-01,9.98314e-01,9.91581e-01
1.128757988e+00,7.25154e-01,9.99999e-01,7.33492e-01,9.98347e-01,9.90267e-01
1.134401778e+00,4.78786e-01,9.99999e-01,4.83567e-01,9.98380e-01,9.91718e-01
1.140073787e+00,8.25872e-01,9.99999e-01,8.32699e-01,9.98412e-01,9.93377e-01
1.145774156e+00,6.74498e-01,9.99999e-01,6.79670e-01,9.98443e-01,9.93936e-01
1.151503026e+00,6.46270e-01,9.99999e-01,6.49454e-01,9.98474e-01,9.96617e-01
1.157260541e+00,6.98785e-01,9.99999e-01,7.00541e-01,9.98504e-01,9.98987e-01
1.163046844e+00,7.67368e-01,9.99999e-01,7.68715e-01,9.98533e-01,9.99712e-01
1.168862078e+00,8.32324e-01,9.99999e-01,8.33645e-01,9.98562e-01,9.99851e-01
1.174706389e+00,8.92413e-01,9.99999e-01,8.93847e-01,9.98591e-01,9.99803e-01
1.180579921e+00,9.32401e-01,9.99999e-01,9.33967e-01,9.98618e-01,9.99703e-01
1.186482820e+00,9.60616e-01,9.99999e-01,9.62211e-01,9.98646e-01,9.99695e-01
1.192415234e+00,9.76284e-01,9.99999e-01,9.77803e-01,9.98672e-01,9.99771e-01
1.198377311e+00,9.79802e-01,9.99999e-01,9.81289e-01,9.98699e-01,9.99784e-01
1.204369197e+00,9.80818e-01,9.99999e-01,9.82261e-01,9.98724e-01,9.99804e-01
1.210391043e+00,9.81688e-01,9.99999e-01,9.83032e-01,9.98749e-01,9.99881e-01
1.216442998e+00,9.84241e-01,9.99999e-01,9.85520e-01,9.98774e-01,9.99926e-01
1.222525213e+00,9.87491e-01,9.99999e-01,9.88723e-01,9.98798e-01,9.99954e-01
1.228637839e+00,9.90974e-01,9.99999e-01,9.92163e-01,9.98822e-01,9.99978e-01
1.234781029e+00,9.93016e-01,9.99999e-01,9.94169e-01,9.98845e-01,9.99993e-01
1.240954934e+00,9.95184e-01,9.99999e-01,9.96313e-01,9.98868e-01,9.99997e-01
1.247159708e+00,9.96019e-01,9.99999e-01,9.97126e-01,9.98890e-01,9.99998e-01
1.253395507e+00,9.96366e-01,9.99999e-01,9.97451e-01,9.98912e-01,9.99998e-01
1.259662485e+00,9.96538e-01,9.99999e-01,9.97603e-01,9.98934e-01,9.99997e-01
1.265960797e+00,9.95104e-01,9.99999e-01,9.96148e-01,9.98955e-01,9.99995e-01
1.272290601e+00,9.93309e-01,9.99999e-01,9.94333e-01,9.98975e-01,9.99992e-01
1.278652054e+00,9.87040e-01,9.99999e-01,9.88043e-01,9.98995e-01,9.99987e-01
1.285045314e+00,9.80272e-01,9.99999e-01,9.81259e-01,9.99015e-01,9.99977e-01
1.291470541e+00,9.61626e-01,9.99999e-01,9.62591e-01,9.99035e-01,9.99961e-01
1.297927893e+00,9.50395e-01,9.99999e-01,9.51362e-01,9.99054e-01,9.99927e-01
1.304417533e+00,9.36622e-01,9.99999e-01,9.37632e-01,9.99072e-01,9.99847e-01
1.310939621e+00,9.28084e-01,9.99999e-01,9.29217e-01,9.99091e-01,9.99688e-01
1.317494319e+00,9.21602e-01,9.99999e-01,9.22954e-01,9.99109e-01,9.99424e-01
1.324081790e+00,8.85343e-01,9.99999e-01,8.86949e-01,9.99126e-01,9.99060e-01
1.330702199e+00,6.05574e-01,9.99999e-01,6.07075e-01,9.99143e-01,9.98380e-01
1.337355710e+00,2.83590e-01,9.99999e-01,2.84715e-01,9.99160e-01,9.96883e-01
1.344042489e+00,3.62151e-02,9.99999e-01,3.65871e-02,9.99177e-01,9.90644e-01
1.350762701e+00,1.33985e-03,9.99999e-01,1.38478e-03,9.99193e-01,9.68330e-01
1.357516515e+00,1.29109e-04,9.99999e-01,1.42009e-04,9.99209e-01,9.09877e-01
1.364304097e+00,2.21691e-03,9.99999e-01,2.61800e-03,9.99225e-01,8.47450e-01
1.371125618e+00,1.56320e-02,9.99999e-01,1.82860e-02,9.99240e-01,8.55512e-01
1.377981246e+00,2.98779e-02,9.99999e-01,3.41797e-02,9.99255e-01,8.74792e-01
1.384871152e+00,2.05045e-03,9.99999e-01,2.32747e-03,9.99270e-01,8.81620e-01
1.391795508e+00,3.24193e-03,9.99999e-01,3.65519e-03,9.99284e-01,8.87571e-01
1.398754485e+00,7.27506e-03,9.99999e-01,8.03093e-03,9.99298e-01,9.06514e-01
1.405748258e+00,7.24419e-03,9.99999e-01,7.67726e-03,9.99312e-01,9.44238e-01
1.412776999e+00,8.13322e-03,9.99999e-01,8.35472e-03,9.99326e-01,9.74143e-01
1.419840884e+00,1.12477e-02,9.99999e-01,1.13851e-02,9.99339e-01,9.88578e-01
1.426940089e+00,2.95756e-02,9.99999e-01,2.98542e-02,9.99352e-01,9.91311e-01
1.434074789e+00,6.73508e-02,9.99999e-01,6.80912e-02,9.99365e-01,9.89754e-01
1.441245163e+00,1.33283e-01,9.99999e-01,1.34862e-01,9.99377e-01,9.88907e-01
1.448451389e+00,2.35148e-01,9.99999e-01,2.37601e-01,9.99389e-01,9.90280e-01
1.455693646e+00,3.89145e-01,9.99999e-01,3.92348e-01,9.99401e-01,9.92429e-01
1.462972114e+00,4.47476e-01,9.99999e-01,4.50995e-01,9.99413e-01,9.92778e-01
1.470286975e+00,3.90645e-01,9.99999e-01,3.93664e-01,9.99425e-01,9.92900e-01
