#,Wave/freq,Total,N2,H2O,Rayleigh,CIA
4.000000000e-01,5.76709e-01,9.99999e-01,9.99937e-01,5.76745e-01,9.99999e-01
4.020000000e-01,5.83033e-01,9.99999e-01,9.99961e-01,5.83055e-01,9.99999e-01
4.040100000e-01,5.89292e-01,9.99999e-01,9.99983e-01,5.89302e-01,9.99999e-01
4.060300500e-01,5.95487e-01,9.99999e-01,9.99995e-01,5.95489e-01,9.99999e-01
4.080602003e-01,6.01617e-01,9.99999e-01,9.99998e-01,6.01618e-01,9.99999e-01
4.101005013e-01,6.07687e-01,9.99999e-01,9.99999e-01,6.07687e-01,9.99999e-01
4.121510038e-01,6.13694e-01,9.99999e-01,9.99997e-01,6.13695e-01,9.99999e-01
4.142117588e-01,6.19632e-01,9.99999e-01,9.99982e-01,6.19642e-01,9.99999e-01
4.162828176e-01,6.25480e-01,9.99999e-01,9.99922e-01,6.25528e-01,9.99999e-01
4.183642317e-01,6.31323e-01,9.99999e-01,9.99953e-01,6.31352e-01,9.99999e-01
4.204560528e-01,6.37095e-01,9.99999e-01,9.99971e-01,6.37113e-01,9.99999e-01
4.225583331e-01,6.42805e-01,9.99999e-01,9.99989e-01,6.42812e-01,9.99999e-01
4.246711247e-01,6.48442e-01,9.99999e-01,9.99991e-01,6.48447e-01,9.99999e-01
4.267944804e-01,6.54011e-01,9.99999e-01,9.99987e-01,6.54019e-01,9.99999e-01
4.289284528e-01,6.59521e-01,9.99999e-01,9.99990e-01,6.59528e-01,9.99999e-01
4.310730950e-01,6.64970e-01,9.99999e-01,9.99995e-01,6.64972e-01,9.99999e-01
4.332284605e-01,6.70352e-01,9.99999e-01,9.99998e-01,6.70353e-01,9.99999e-01
4.353946028e-01,6.75670e-01,9.99999e-01,9.99999e-01,6.75670e-01,9.99999e-01
4.375715758e-01,6.80917e-01,9.99999e-01,9.99991e-01,6.80923e-01,9.99999e-01
4.397594337e-01,6.86064e-01,9.99999e-01,9.99930e-01,6.86111e-01,9.99999e-01
4.419582309e-01,6.90994e-01,9.99999e-01,9.99650e-01,6.91236e-01,9.99999e-01
4.441680220e-01,6.96111e-01,9.99999e-01,9.99734e-01,6.96296e-01,9.99999e-01
4.463888621e-01,7.01097e-01,9.99999e-01,9.99721e-01,7.01292e-01,9.99999e-01
4.486208064e-01,7.06103e-01,9.99999e-01,9.99827e-01,7.06225e-01,9.99999e-01
4.508639105e-01,7.11036e-01,9.99999e-01,9.99919e-01,7.11093e-01,9.99999e-01
4.531182300e-01,7.15876e-01,9.99999e-01,9.99967e-01,7.15899e-01,9.99999e-01
4.553838212e-01,7.20625e-01,9.99999e-01,9.99977e-01,7.20640e-01,9.99999e-01
4.576607403e-01,7.25312e-01,9.99999e-01,9.99989e-01,7.25319e-01,9.99999e-01
4.599490440e-01,7.29929e-01,9.99999e-01,9.99992e-01,7.29934e-01,9.99999e-01
4.622487892e-01,7.34486e-01,9.99999e-01,9.99998e-01,7.34487e-01,9.99999e-01
4.645600332e-01,7.38974e-01,9.99999e-01,9.99994e-01,7.38978e-01,9.99999e-01
4.668828333e-01,7.43345e-01,9.99999e-01,9.99917e-01,7.43406e-01,9.99999e-01
4.692172475e-01,7.47643e-01,9.99999e-01,9.99825e-01,7.47773e-01,9.99999e-01
4.715633337e-01,7.51993e-01,9.99999e-01,9.99885e-01,7.52079e-01,9.99999e-01
4.739211504e-01,7.56241e-01,9.99999e-01,9.99890e-01,7.56323e-01,9.99999e-01
4.762907561e-01,7.60464e-01,9.99999e-01,9.99943e-01,7.60507e-01,9.99999e-01
4.786722099e-01,7.64613e-01,9.99999e-01,9.99976e-01,7.64630e-01,9.99999e-01
4.810655710e-01,7.68689e-01,9.99999e-01,9.99992e-01,7.68694e-01,9.99999e-01
4.834708988e-01,7.72646e-01,9.99999e-01,9.99930e-01,7.72699e-01,9.99999e-01
4.858882533e-01,7.76549e-01,9.99999e-01,9.99876e-01,7.76645e-01,9.99999e-01
4.883176946e-01,7.80451e-01,9.99999e-01,9.99895e-01,7.80532e-01,9.99999e-01
4.907592831e-01,7.84289e-01,9.99999e-01,9.99906e-01,7.84362e-01,9.99999e-01
4.932130795e-01,7.88082e-01,9.99999e-01,9.99933e-01,7.88134e-01,9.99999e-01
4.956791449e-01,7.91821e-01,9.99999e-01,9.99964e-01,7.91849e-01,9.99999e-01
4.981575406e-01,7.95367e-01,9.99999e-01,9.99822e-01,7.95508e-01,9.99999e-01
5.006483283e-01,7.98740e-01,9.99999e-01,9.99538e-01,7.99111e-01,9.99996e-01
5.031515699e-01,8.00783e-01,9.99999e-01,9.97686e-01,8.02658e-01,9.99975e-01
5.056673278e-01,8.05149e-01,9.99999e-01,9.98784e-01,8.06151e-01,9.99971e-01
5.081956644e-01,8.08335e-01,9.99999e-01,9.98467e-01,8.09589e-01,9.99982e-01
5.107366428e-01,8.12132e-01,9.99999e-01,9.98965e-01,8.12974e-01,9.99996e-01
5.132903260e-01,8.15825e-01,9.99999e-01,9.99410e-01,8.16306e-01,9.99999e-01
5.158567776e-01,8.19382e-01,9.99999e-01,9.99750e-01,8.19585e-01,9.99999e-01
5.184360615e-01,8.22731e-01,9.99999e-01,9.99899e-01,8.22812e-01,9.99999e-01
5.210282418e-01,8.25957e-01,9.99999e-01,9.99962e-01,8.25988e-01,9.99999e-01
5.236333830e-01,8.28988e-01,9.99999e-01,9.99849e-01,8.29113e-01,9.99998e-01
5.262515499e-01,8.32109e-01,9.99999e-01,9.99905e-01,8.32188e-01,9.99998e-01
5.288828077e-01,8.35140e-01,9.99999e-01,9.99912e-01,8.35213e-01,9.99998e-01
5.315272217e-01,8.38126e-01,9.99999e-01,9.99924e-01,8.38189e-01,9.99999e-01
5.341848578e-01,8.41074e-01,9.99999e-01,9.99949e-01,8.41116e-01,9.99999e-01
5.368557821e-01,8.43847e-01,9.99999e-01,9.99823e-01,8.43996e-01,9.99999e-01
5.395400610e-01,8.46279e-01,9.99999e-01,9.99357e-01,8.46828e-01,9.99993e-01
5.422377613e-01,8.48910e-01,9.99999e-01,9.99185e-01,8.49614e-01,9.99984e-01
5.449489501e-01,8.51689e-01,9.99999e-01,9.99235e-01,8.52353e-01,9.99984e-01
5.476736949e-01,8.54468e-01,9.99999e-01,9.99330e-01,8.55047e-01,9.99992e-01
5.504120634e-01,8.57277e-01,9.99999e-01,9.99513e-01,8.57696e-01,9.99997e-01
5.531641237e-01,8.60090e-01,9.99999e-01,9.99755e-01,8.60301e-01,9.99999e-01
5.559299443e-01,8.62760e-01,9.99999e-01,9.99881e-01,8.62861e-01,9.99999e-01
5.587095940e-01,8.65315e-01,9.99999e-01,9.99925e-01,8.65379e-01,9.99999e-01
5.615031420e-01,8.67782e-01,9.99999e-01,9.99916e-01,8.67854e-01,9.99999e-01
5.643106577e-01,8.70203e-01,9.99999e-01,9.99904e-01,8.70287e-01,9.99998e-01
5.671322110e-01,8.71651e-01,9.99999e-01,9.98831e-01,8.72678e-01,9.99989e-01
5.699678720e-01,8.73952e-01,9.99999e-01,9.98799e-01,8.75029e-01,9.99968e-01
5.728177114e-01,8.76205e-01,9.99999e-01,9.98732e-01,8.77340e-01,9.99973e-01
5.756818000e-01,8.78577e-01,9.99999e-01,9.98839e-01,8.79610e-01,9.99984e-01
5.785602090e-01,8.80949e-01,9.99999e-01,9.98991e-01,8.81842e-01,9.99995e-01
5.814530100e-01,8.83135e-01,9.99999e-01,9.98983e-01,8.84035e-01,9.99997e-01
5.843602750e-01,8.85101e-01,9.99999e-01,9.98777e-01,8.86190e-01,9.99992e-01
5.872820764e-01,8.78941e-01,9.99999e-01,9.89527e-01,8.88307e-01,9.99926e-01
5.902184868e-01,8.79041e-01,9.99999e-01,9.87453e-01,8.90388e-01,9.99799e-01
5.931695792e-01,8.84315e-01,9.99999e-01,9.91094e-01,8.92432e-01,9.99807e-01
5.961354271e-01,8.85635e-01,9.99999e-01,9.90263e-01,8.94440e-01,9.99889e-01
5.991161043e-01,8.90018e-01,9.99999e-01,9.92899e-01,8.96413e-01,9.99965e-01
6.021116848e-01,8.94730e-01,9.99999e-01,9.95971e-01,8.98352e-01,9.99995e-01
6.051222432e-01,8.98420e-01,9.99999e-01,9.97961e-01,9.00256e-01,9.99999e-01
6.081478544e-01,9.01332e-01,9.99999e-01,9.99118e-01,9.02126e-01,9.99999e-01
6.111885937e-01,9.03628e-01,9.99999e-01,9.99628e-01,9.03963e-01,9.99999e-01
6.142445367e-01,9.05618e-01,9.99999e-01,9.99833e-01,9.05768e-01,9.99999e-01
6.173157594e-01,9.07457e-01,9.99999e-01,9.99907e-01,9.07541e-01,9.99999e-01
6.204023382e-01,9.09210e-01,9.99999e-01,9.99921e-01,9.09281e-01,9.99999e-01
6.235043498e-01,9.10670e-01,9.99999e-01,9.99648e-01,9.10991e-01,9.99998e-01
6.266218716e-01,9.10998e-01,9.99999e-01,9.98180e-01,9.12670e-01,9.99986e-01
6.297549810e-01,9.13685e-01,9.99999e-01,9.99332e-01,9.14319e-01,9.99973e-01
6.329037559e-01,9.14716e-01,9.99999e-01,9.98685e-01,9.15938e-01,9.99979e-01
6.360682746e-01,9.16484e-01,9.99999e-01,9.98873e-01,9.17528e-01,9.99987e-01
6.392486160e-01,9.17747e-01,9.99999e-01,9.98545e-01,9.19089e-01,9.99994e-01
6.424448591e-01,9.18803e-01,9.99999e-01,9.98033e-01,9.20622e-01,9.99989e-01
6.456570834e-01,9.13688e-01,9.99999e-01,9.90901e-01,9.22127e-01,9.99944e-01
6.488853688e-01,9.17404e-01,9.99999e-01,9.93425e-01,9.23605e-01,9.99859e-01
6.521297956e-01,9.18754e-01,9.99999e-01,9.93301e-01,9.25056e-01,9.99883e-01
6.553904446e-01,9.20182e-01,9.99999e-01,9.93287e-01,9.26481e-01,9.99913e-01
6.586673968e-01,9.22547e-01,9.99999e-01,9.94281e-01,9.27879e-01,9.99970e-01
6.619607338e-01,9.26283e-01,9.99999e-01,9.96810e-01,9.29252e-01,9.99993e-01
6.652705375e-01,9.28815e-01,9.99999e-01,9.98084e-01,9.30600e-01,9.99996e-01
6.685968902e-01,9.31165e-01,9.99999e-01,9.99186e-01,9.31923e-01,9.99998e-01
6.719398746e-01,9.32837e-01,9.99999e-01,9.99587e-01,9.33222e-01,9.99999e-01
6.752995740e-01,9.34293e-01,9.99999e-01,9.99781e-01,9.34496e-01,9.99999e-01
6.786760719e-01,9.35442e-01,9.99999e-01,9.99672e-01,9.35748e-01,9.99999e-01
6.820694522e-01,9.36448e-01,9.99999e-01,9.99438e-01,9.36976e-01,9.99996e-01
6.854797995e-01,9.37503e-01,9.99999e-01,9.99282e-01,9.38181e-01,9.99993e-01
6.889071985e-01,9.37691e-01,9.99999e-01,9.98233e-01,9.39365e-01,9.99984e-01
6.923517345e-01,9.13945e-01,9.99999e-01,9.71869e-01,9.40526e-01,9.99864e-01
6.958134932e-01,9.27886e-01,9.99999e-01,9.85662e-01,9.41666e-01,9.99699e-01
6.992925606e-01,9.29337e-01,9.99999e-01,9.86002e-01,9.42784e-01,9.99729e-01
7.027890234e-01,9.27565e-01,9.99999e-01,9.82914e-01,9.43882e-01,9.99793e-01
7.063029686e-01,9.31252e-01,9.99999e-01,9.85594e-01,9.44960e-01,9.99896e-01
7.098344834e-01,9.32880e-01,9.99999e-01,9.86172e-01,9.46017e-01,9.99938e-01
7.133836558e-01,9.29284e-01,9.99999e-01,9.81354e-01,9.47054e-01,9.99878e-01
7.169505741e-01,8.16196e-01,9.99999e-01,8.61718e-01,9.48073e-01,9.99049e-01
7.205353270e-01,8.82185e-01,9.99999e-01,9.31083e-01,9.49072e-01,9.98323e-01
7.241380036e-01,8.64717e-01,9.99999e-01,9.11497e-01,9.50052e-01,9.98552e-01
7.277586936e-01,8.73810e-01,9.99999e-01,9.19907e-01,9.51014e-01,9.98816e-01
7.313974871e-01,8.71020e-01,9.99999e-01,9.15483e-01,9.51958e-01,9.99445e-01
7.350544745e-01,9.07681e-01,9.99999e-01,9.52744e-01,9.52884e-01,9.99806e-01
7.387297469e-01,9.20323e-01,9.99999e-01,9.64993e-01,9.53793e-01,9.99911e-01
7.424233956e-01,9.38209e-01,9.99999e-01,9.82756e-01,9.54685e-01,9.99984e-01
7.461355126e-01,9.45519e-01,9.99999e-01,9.89494e-01,9.55560e-01,9.99996e-01
7.498661902e-01,9.51744e-01,9.99999e-01,9.95113e-01,9.56418e-01,9.99998e-01
7.536155211e-01,9.54954e-01,9.99999e-01,9.97591e-01,9.57260e-01,9.99998e-01
7.573835987e-01,9.56899e-01,9.99999e-01,9.98760e-01,9.58086e-01,9.99999e-01
7.611705167e-01,9.58158e-01,9.99999e-01,9.99228e-01,9.58897e-01,9.99999e-01
7.649763693e-01,9.59228e-01,9.99999e-01,9.99515e-01,9.59692e-01,9.99999e-01
7.688012511e-01,9.60148e-01,9.99999e-01,9.99662e-01,9.60472e-01,9.99999e-01
7.726452574e-01,9.60971e-01,9.99999e-01,9.99721e-01,9.61238e-01,9.99999e-01
7.765084837e-01,9.61605e-01,9.99999e-01,9.99601e-01,9.61989e-01,9.99998e-01
7.803910261e-01,9.61062e-01,9.99999e-01,9.98273e-01,9.62725e-01,9.99997e-01
7.842929812e-01,9.57644e-01,9.99999e-01,9.93985e-01,9.63448e-01,9.99988e-01
7.882144461e-01,9.52290e-01,9.99999e-01,9.87774e-01,9.64157e-01,9.99915e-01
7.921555184e-01,9.58271e-01,9.99999e-01,9.93323e-01,9.64852e-01,9.99853e-01
7.961162960e-01,9.53874e-01,9.99999e-01,9.88060e-01,9.65534e-01,9.99860e-01
8.000968774e-01,9.52838e-01,9.99999e-01,9.86312e-01,9.66204e-01,9.99851e-01
8.040973618e-01,9.53494e-01,9.99999e-01,9.86286e-01,9.66860e-01,9.99886e-01
8.081178486e-01,9.37566e-01,9.99999e-01,9.69167e-01,9.67504e-01,9.99885e-01
8.121584379e-01,8.50064e-01,9.99999e-01,8.78423e-01,9.68135e-01,9.99565e-01
8.162192301e-01,8.31077e-01,9.99999e-01,8.59282e-01,9.68755e-01,9.98369e-01
8.203003262e-01,8.96698e-01,9.99999e-01,9.26807e-01,9.69362e-01,9.98090e-01
8.244018279e-01,8.74293e-01,9.99999e-01,9.02743e-01,9.69958e-01,9.98480e-01
8.285238370e-01,8.84537e-01,9.99999e-01,9.12472e-01,9.70543e-01,9.98806e-01
8.326664562e-01,8.85332e-01,9.99999e-01,9.12114e-01,9.71116e-01,9.99505e-01
8.368297885e-01,9.09679e-01,9.99999e-01,9.36298e-01,9.71679e-01,9.99886e-01
8.410139374e-01,9.34871e-01,9.99999e-01,9.61636e-01,9.72230e-01,9.99933e-01
8.452190071e-01,9.54272e-01,9.99999e-01,9.81021e-01,9.72771e-01,9.99960e-01
8.494451021e-01,9.62460e-01,9.99999e-01,9.88891e-01,9.73302e-01,9.99967e-01
8.536923276e-01,9.67419e-01,9.99999e-01,9.93443e-01,9.73822e-01,9.99980e-01
8.579607893e-01,9.70376e-01,9.99999e-01,9.95943e-01,9.74332e-01,9.99994e-01
8.622505932e-01,9.72326e-01,9.99999e-01,9.97428e-01,9.74833e-01,9.99998e-01
8.665618462e-01,9.73765e-01,9.99999e-01,9.98401e-01,9.75324e-01,9.99999e-01
8.708946554e-01,9.74014e-01,9.99999e-01,9.98165e-01,9.75805e-01,9.99998e-01
8.752491287e-01,9.73882e-01,9.99999e-01,9.97548e-01,9.76277e-01,9.99996e-01
8.796253743e-01,9.73406e-01,9.99999e-01,9.96593e-01,9.76741e-01,9.99991e-01
8.840235012e-01,9.73375e-01,9.99999e-01,9.96113e-01,9.77195e-01,9.99975e-01
8.884436187e-01,9.63509e-01,9.99999e-01,9.85611e-01,9.77640e-01,9.99932e-01
8.928858368e-01,8.42303e-01,9.99999e-01,8.61516e-01,9.78077e-01,9.99612e-01
8.973502660e-01,7.53309e-01,9.99999e-01,7.71386e-01,9.78505e-01,9.98016e-01
9.018370173e-01,8.55957e-01,9.99999e-01,8.77117e-01,9.78925e-01,9.96883e-01
9.063462024e-01,8.67792e-01,9.99999e-01,8.88533e-01,9.79337e-01,9.97261e-01
9.108779334e-01,8.13589e-01,9.99999e-01,8.32781e-01,9.79741e-01,9.97154e-01
9.154323231e-01,7.94220e-01,9.99999e-01,8.12224e-01,9.80137e-01,9.97647e-01
9.200094847e-01,8.32842e-01,9.99999e-01,8.50503e-01,9.80526e-01,9.98682e-01
9.246095321e-01,7.61788e-01,9.99999e-01,7.77796e-01,9.80907e-01,9.98482e-01
9.292325798e-01,2.03140e-01,9.99999e-01,2.08539e-01,9.81280e-01,9.92694e-01
9.338787427e-01,1.29408e-01,9.99999e-01,1.35368e-01,9.81647e-01,9.73844e-01
9.385481364e-01,4.22644e-01,9.99999e-01,4.43104e-01,9.82006e-01,9.71300e-01
9.432408771e-01,3.17297e-01,9.99999e-01,3.31212e-01,9.82358e-01,9.75191e-01
9.479570815e-01,2.10269e-01,9.99999e-01,2.18389e-01,9.82703e-01,9.79761e-01
9.526968669e-01,3.00594e-01,9.99999e-01,3.09616e-01,9.83042e-01,9.87606e-01
9.574603512e-01,3.19934e-01,9.99999e-01,3.27410e-01,9.83374e-01,9.93685e-01
9.622476530e-01,3.90275e-01,9.99999e-01,3.98483e-01,9.83700e-01,9.95629e-01
9.670588912e-01,5.73867e-01,9.99999e-01,5.84862e-01,9.84019e-01,9.97133e-01
9.718941857e-01,6.96272e-01,9.99999e-01,7.08910e-01,9.84332e-01,9.97804e-01
9.767536566e-01,7.38388e-01,9.99999e-01,7.51171e-01,9.84640e-01,9.98315e-01
9.816374249e-01,7.96064e-01,9.99999e-01,8.08706e-01,9.84941e-01,9.99416e-01
9.865456120e-01,8.62461e-01,9.99999e-01,8.75491e-01,9.85236e-01,9.99878e-01
9.914783401e-01,9.07539e-01,9.99999e-01,9.20898e-01,9.85525e-01,9.99965e-01
9.964357318e-01,9.42533e-01,9.99999e-01,9.56118e-01,9.85809e-01,9.99979e-01
1.001417910e+00,9.59901e-01,9.99999e-01,9.73472e-01,9.86088e-01,9.99969e-01
1.006425000e+00,9.71273e-01,9.99999e-01,9.84745e-01,9.86360e-01,9.99956e-01
1.011457125e+00,9.77253e-01,9.99999e-01,9.90536e-01,9.86628e-01,9.99959e-01
1.016514411e+00,9.80502e-01,9.99999e-01,9.93554e-01,9.86890e-01,9.99971e-01
1.021596983e+00,9.82044e-01,9.99999e-01,9.94856e-01,9.87148e-01,9.99971e-01
1.026704968e+00,9.83418e-01,9.99999e-01,9.95983e-01,9.87400e-01,9.99982e-01
1.031838492e+00,9.84766e-01,9.99999e-01,9.97087e-01,9.87647e-01,9.99994e-01
1.036997685e+00,9.86175e-01,9.99999e-01,9.98264e-01,9.87890e-01,9.99998e-01
1.042182673e+00,9.86074e-01,9.99999e-01,9.97921e-01,9.88127e-01,9.99999e-01
1.047393587e+00,9.85643e-01,9.99999e-01,9.97250e-01,9.88361e-01,9.99998e-01
1.052630555e+00,9.84855e-01,9.99999e-01,9.96222e-01,9.88589e-01,9.99998e-01
1.057893707e+00,9.82572e-01,9.99999e-01,9.93689e-01,9.88813e-01,9.99997e-01
1.063183176e+00,9.78793e-01,9.99999e-01,9.89650e-01,9.89033e-01,9.99994e-01
1.068499092e+00,9.72187e-01,9.99999e-01,9.82764e-01,9.89248e-01,9.99987e-01
1.073841587e+00,9.69474e-01,9.99999e-01,9.79826e-01,9.89460e-01,9.99973e-01
1.079210795e+00,9.64177e-01,9.99999e-01,9.74311e-01,9.89667e-01,9.99930e-01
1.084606849e+00,9.51416e-01,9.99999e-01,9.61312e-01,9.89870e-01,9.99832e-01
1.090029883e+00,9.34852e-01,9.99999e-01,9.44555e-01,9.90069e-01,9.99653e-01
1.095480033e+00,8.47685e-01,9.99999e-01,8.56554e-01,9.90264e-01,9.99374e-01
1.100957433e+00,6.70110e-01,9.99999e-01,6.77347e-01,9.90455e-01,9.98848e-01
1.106462220e+00,3.79282e-01,9.99999e-01,3.83612e-01,9.90643e-01,9.98048e-01
1.111994531e+00,1.39307e-01,9.99999e-01,1.41328e-01,9.90827e-01,9.94828e-01
1.117554504e+00,4.52931e-02,9.99999e-01,4.65676e-02,9.91007e-01,9.81454e-01
1.123142276e+00,1.16068e-01,9.99999e-01,1.22415e-01,9.91184e-01,9.56580e-01
1.128757988e+00,2.18951e-01,9.99999e-01,2.32498e-01,9.91358e-01,9.49943e-01
1.134401778e+00,1.00956e-01,9.99999e-01,1.06363e-01,9.91528e-01,9.57273e-01
1.140073787e+00,3.85864e-01,9.99999e-01,4.02909e-01,9.91694e-01,9.65713e-01
1.145774156e+00,1.62093e-01,9.99999e-01,1.68726e-01,9.91858e-01,9.68569e-01
1.151503026e+00,1.36198e-01,9.99999e-01,1.39758e-01,9.92018e-01,9.82366e-01
1.157260541e+00,1.71413e-01,9.99999e-01,1.73686e-01,9.92175e-01,9.94694e-01
1.163046844e+00,2.69363e-01,9.99999e-01,2.71854e-01,9.92329e-01,9.98493e-01
1.168862078e+00,3.91720e-01,9.99999e-01,3.94997e-01,9.92480e-01,9.99214e-01
1.174706389e+00,5.57832e-01,9.99999e-01,5.62583e-01,9.92628e-01,9.98918e-01
1.180579921e+00,6.97162e-01,9.99999e-01,7.03331e-01,9.92773e-01,9.98444e-01
1.186482820e+00,8.11341e-01,9.99999e-01,8.18436e-01,9.92915e-01,9.98402e-01
1.192415234e+00,8.82038e-01,9.99999e-01,8.89270e-01,9.93054e-01,9.98803e-01
1.198377311e+00,8.98488e-01,9.99999e-01,9.05674e-01,9.93191e-01,9.98864e-01
1.204369197e+00,9.03856e-01,9.99999e-01,9.10829e-01,9.93325e-01,9.99010e-01
1.210391043e+00,9.07894e-01,9.99999e-01,9.14442e-01,9.93456e-01,9.99377e-01
1.216442998e+00,9.20628e-01,9.99999e-01,9.26924e-01,9.93585e-01,9.99618e-01
1.222525213e+00,9.36346e-01,9.99999e-01,9.42493e-01,9.93712e-01,9.99762e-01
1.228637839e+00,9.53643e-01,9.99999e-01,9.59663e-01,9.93835e-01,9.99889e-01
1.234781029e+00,9.64048e-01,9.99999e-01,9.69938e-01,9.93957e-01,9.99968e-01
1.240954934e+00,9.75043e-01,9.99999e-01,9.80862e-01,9.94076e-01,9.99990e-01
1.247159708e+00,9.79354e-01,9.99999e-01,9.85079e-01,9.94192e-01,9.99993e-01
1.253395507e+00,9.81095e-01,9.99999e-01,9.86719e-01,9.94307e-01,9.99992e-01
1.259662485e+00,9.81823e-01,9.99999e-01,9.87344e-01,9.94419e-01,9.99987e-01
1.265960797e+00,9.74532e-01,9.99999e-01,9.79912e-01,9.94529e-01,9.99979e-01
1.272290601e+00,9.63277e-01,9.99999e-01,9.68504e-01,9.94637e-01,9.99964e-01
1.278652054e+00,9.33505e-01,9.99999e-01,9.38496e-01,9.94742e-01,9.99938e-01
1.285045314e+00,8.86681e-01,9.99999e-01,8.91377e-01,9.94846e-01,9.99884e-01
1.291470541e+00,8.14323e-01,9.99999e-01,8.18622e-01,9.94947e-01,9.99798e-01
1.297927893e+00,7.49071e-01,9.99999e-01,7.53081e-01,9.95047e-01,9.99624e-01
1.304417533e+00,7.13582e-01,9.99999e-01,7.17633e-01,9.95144e-01,9.99204e-01
1.310939621e+00,6.53404e-01,9.99999e-01,6.57602e-01,9.95240e-01,9.98367e-01
1.317494319e+00,6.58362e-01,9.99999e-01,6.63450e-01,9.95334e-01,9.96981e-01
1.324081790e+00,5.42511e-01,9.99999e-01,5.47699e-01,9.95426e-01,9.95077e-01
1.330702199e+00,1.49945e-01,9.99999e-01,1.51908e-01,9.95516e-01,9.91526e-01
1.337355710e+00,3.13793e-03,9.99999e-01,3.20386e-03,9.95604e-01,9.83746e-01
1.344042489e+00,1.53411e-06,9.99999e-01,1.61870e-06,9.95691e-01,9.51841e-01
1.350762701e+00,1.67864e-12,9.99999e-01,1.99611e-12,9.95776e-01,8.44520e-01
1.357516515e+00,2.04922e-18,9.99999e-01,3.37888e-18,9.95859e-01,6.08999e-01
1.364304097e+00,9.26680e-12,9.99999e-01,2.21907e-11,9.95941e-01,4.19300e-01
1.371125618e+00,1.06839e-07,9.99999e-01,2.43414e-07,9.96021e-01,4.40673e-01
1.377981246e+00,3.83570e-07,9.99999e-01,7.77325e-07,9.96099e-01,4.95380e-01
1.384871152e+00,4.91844e-10,9.99999e-01,9.50065e-10,9.96176e-01,5.19682e-01
1.391795508e+00,1.00110e-11,9.99999e-01,1.87530e-11,9.96251e-01,5.35841e-01
1.398754485e+00,2.60611e-09,9.99999e-01,4.37942e-09,9.96325e-01,5.97273e-01
1.405748258e+00,3.31518e-09,9.99999e-01,4.49699e-09,9.96398e-01,7.39864e-01
1.412776999e+00,4.88245e-09,9.99999e-01,5.62231e-09,9.96469e-01,8.71482e-01
1.419840884e+00,1.01460e-08,9.99999e-01,1.08142e-08,9.96538e-01,9.41466e-01
1.426940089e+00,2.36788e-06,9.99998e-01,2.48734e-06,9.96607e-01,9.55210e-01
1.434074789e+00,2.18855e-05,9.99999e-01,2.31785e-05,9.96673e-01,9.47362e-01
1.441245163e+00,1.49448e-04,9.99999e-01,1.58980e-04,9.96739e-01,9.43112e-01
1.448451389e+00,2.37297e-03,9.99998e-01,2.50585e-03,9.96803e-01,9.50009e-01
1.455693646e+00,1.61338e-02,9.99999e-01,1.68433e-02,9.96866e-01,9.60881e-01
1.462972114e+00,2.32237e-02,9.99999e-01,2.41988e-02,9.96928e-01,9.62657e-01
1.470286975e+00,1.32814e-02,9.99999e-01,1.38292e-02,9.96989e-01,9.63282e-01
