#,Wave/freq,Total,N2,H2O,Rayleigh,CIA
4.000000000e-01,7.52550e-01,9.99999e-01,9.99967e-01,7.52574e-01,9.99999e-01
4.020000000e-01,7.56801e-01,9.99999e-01,9.99979e-01,7.56816e-01,9.99999e-01
4.040100000e-01,7.60987e-01,9.99999e-01,9.99991e-01,7.60993e-01,9.99999e-01
4.060300500e-01,7.65108e-01,9.99999e-01,9.99997e-01,7.65110e-01,9.99999e-01
4.080602003e-01,7.69166e-01,9.99999e-01,9.99998e-01,7.69167e-01,9.99999e-01
4.101005013e-01,7.73164e-01,9.99999e-01,9.99999e-01,7.73164e-01,9.99999e-01
4.121510038e-01,7.77102e-01,9.99999e-01,9.99998e-01,7.77103e-01,9.99999e-01
4.142117588e-01,7.80977e-01,9.99999e-01,9.99990e-01,7.80984e-01,9.99999e-01
4.162828176e-01,7.84775e-01,9.99999e-01,9.99959e-01,7.84806e-01,9.99999e-01
4.183642317e-01,7.88553e-01,9.99999e-01,9.99975e-01,7.88572e-01,9.99999e-01
4.204560528e-01,7.92269e-01,9.99999e-01,9.99985e-01,7.92280e-01,9.99999e-01
4.225583331e-01,7.95928e-01,9.99999e-01,9.99994e-01,7.95933e-01,9.99999e-01
4.246711247e-01,7.99526e-01,9.99999e-01,9.99995e-01,7.99529e-01,9.99999e-01
4.267944804e-01,8.03065e-01,9.99999e-01,9.99993e-01,8.03070e-01,9.99999e-01
4.289284528e-01,8.06553e-01,9.99999e-01,9.99994e-01,8.06557e-01,9.99999e-01
4.310730950e-01,8.09987e-01,9.99999e-01,9.99997e-01,8.09989e-01,9.99999e-01
4.332284605e-01,8.13367e-01,9.99999e-01,9.99998e-01,8.13367e-01,9.99999e-01
4.353946028e-01,8.16693e-01,9.99999e-01,9.99999e-01,8.16693e-01,9.99999e-01
4.375715758e-01,8.19963e-01,9.99999e-01,9.99995e-01,8.19966e-01,9.99999e-01
4.397594337e-01,8.23158e-01,9.99999e-01,9.99964e-01,8.23187e-01,9.99999e-01
4.419582309e-01,8.26210e-01,9.99999e-01,9.99821e-01,8.26357e-01,9.99999e-01
4.441680220e-01,8.29362e-01,9.99999e-01,9.99861e-01,8.29476e-01,9.99999e-01
4.463888621e-01,8.32425e-01,9.99999e-01,9.99855e-01,8.32545e-01,9.99999e-01
4.486208064e-01,8.35490e-01,9.99999e-01,9.99910e-01,8.35564e-01,9.99999e-01
4.508639105e-01,8.38499e-01,9.99999e-01,9.99957e-01,8.38534e-01,9.99999e-01
4.531182300e-01,8.41442e-01,9.99999e-01,9.99983e-01,8.41456e-01,9.99999e-01
4.553838212e-01,8.44321e-01,9.99999e-01,9.99988e-01,8.44330e-01,9.99999e-01
4.576607403e-01,8.47153e-01,9.99999e-01,9.99994e-01,8.47157e-01,9.99999e-01
4.599490440e-01,8.49934e-01,9.99999e-01,9.99995e-01,8.49937e-01,9.99999e-01
4.622487892e-01,8.52671e-01,9.99999e-01,9.99998e-01,8.52671e-01,9.99999e-01
4.645600332e-01,8.55358e-01,9.99999e-01,9.99996e-01,8.55360e-01,9.99999e-01
4.668828333e-01,8.57967e-01,9.99999e-01,9.99957e-01,8.58003e-01,9.99999e-01
4.692172475e-01,8.60525e-01,9.99999e-01,9.99909e-01,8.60603e-01,9.99999e-01
4.715633337e-01,8.63108e-01,9.99999e-01,9.99940e-01,8.63158e-01,9.99999e-01
4.739211504e-01,8.65622e-01,9.99999e-01,9.99943e-01,8.65671e-01,9.99999e-01
4.762907561e-01,8.68116e-01,9.99999e-01,9.99970e-01,8.68141e-01,9.99999e-01
4.786722099e-01,8.70559e-01,9.99999e-01,9.99987e-01,8.70569e-01,9.99999e-01
4.810655710e-01,8.72953e-01,9.99999e-01,9.99995e-01,8.72956e-01,9.99999e-01
4.834708988e-01,8.75271e-01,9.99999e-01,9.99964e-01,8.75302e-01,9.99999e-01
4.858882533e-01,8.77552e-01,9.99999e-01,9.99935e-01,8.77608e-01,9.99999e-01
4.883176946e-01,8.79827e-01,9.99999e-01,9.99946e-01,8.79874e-01,9.99999e-01
4.907592831e-01,8.82058e-01,9.99999e-01,9.99951e-01,8.82101e-01,9.99999e-01
4.932130795e-01,8.84259e-01,9.99999e-01,9.99965e-01,8.84289e-01,9.99999e-01
4.956791449e-01,8.86424e-01,9.99999e-01,9.99981e-01,8.86440e-01,9.99999e-01
4.981575406e-01,8.88472e-01,9.99999e-01,9.99908e-01,8.88553e-01,9.99999e-01
5.006483283e-01,8.90418e-01,9.99999e-01,9.99763e-01,8.90629e-01,9.99997e-01
5.031515699e-01,8.91593e-01,9.99999e-01,9.98806e-01,8.92669e-01,9.99986e-01
5.056673278e-01,8.94098e-01,9.99999e-01,9.99370e-01,8.94673e-01,9.99985e-01
5.081956644e-01,8.95923e-01,9.99999e-01,9.99206e-01,8.96642e-01,9.99990e-01
5.107366428e-01,8.98094e-01,9.99999e-01,9.99464e-01,8.98577e-01,9.99998e-01
5.132903260e-01,9.00201e-01,9.99999e-01,9.99693e-01,9.00477e-01,9.99999e-01
5.158567776e-01,9.02227e-01,9.99999e-01,9.99870e-01,9.02343e-01,9.99999e-01
5.184360615e-01,9.04130e-01,9.99999e-01,9.99947e-01,9.04177e-01,9.99999e-01
5.210282418e-01,9.05960e-01,9.99999e-01,9.99980e-01,9.05977e-01,9.99999e-01
5.236333830e-01,9.07675e-01,9.99999e-01,9.99921e-01,9.07746e-01,9.99998e-01
5.262515499e-01,9.09438e-01,9.99999e-01,9.99950e-01,9.09483e-01,9.99998e-01
5.288828077e-01,9.11148e-01,9.99999e-01,9.99954e-01,9.11189e-01,9.99999e-01
5.315272217e-01,9.12829e-01,9.99999e-01,9.99960e-01,9.12865e-01,9.99999e-01
5.341848578e-01,9.14487e-01,9.99999e-01,9.99973e-01,9.14510e-01,9.99999e-01
5.368557821e-01,9.16043e-01,9.99999e-01,9.99908e-01,9.16126e-01,9.99999e-01
5.395400610e-01,9.17409e-01,9.99999e-01,9.99671e-01,9.17712e-01,9.99996e-01
5.422377613e-01,9.18876e-01,9.99999e-01,9.99577e-01,9.19270e-01,9.99991e-01
5.449489501e-01,9.20431e-01,9.99999e-01,9.99606e-01,9.20800e-01,9.99991e-01
5.476736949e-01,9.21978e-01,9.99999e-01,9.99652e-01,9.22302e-01,9.99995e-01
5.504120634e-01,9.23543e-01,9.99999e-01,9.99747e-01,9.23776e-01,9.99998e-01
5.531641237e-01,9.25107e-01,9.99999e-01,9.99872e-01,9.25224e-01,9.99999e-01
5.559299443e-01,9.26589e-01,9.99999e-01,9.99938e-01,9.26646e-01,9.99999e-01
5.587095940e-01,9.28006e-01,9.99999e-01,9.99961e-01,9.28041e-01,9.99999e-01
5.615031420e-01,9.29371e-01,9.99999e-01,9.99956e-01,9.29411e-01,9.99999e-01
5.643106577e-01,9.30710e-01,9.99999e-01,9.99950e-01,9.30756e-01,9.99999e-01
5.671322110e-01,9.31519e-01,9.99999e-01,9.99406e-01,9.32076e-01,9.99994e-01
5.699678720e-01,9.32773e-01,9.99999e-01,9.99374e-01,9.33372e-01,9.99983e-01
5.728177114e-01,9.34021e-01,9.99999e-01,9.99346e-01,9.34644e-01,9.99986e-01
5.756818000e-01,9.35325e-01,9.99999e-01,9.99400e-01,9.35893e-01,9.99991e-01
5.785602090e-01,9.36627e-01,9.99999e-01,9.99477e-01,9.37118e-01,9.99997e-01
5.814530100e-01,9.37828e-01,9.99999e-01,9.99474e-01,9.38321e-01,9.99998e-01
5.843602750e-01,9.38910e-01,9.99999e-01,9.99372e-01,9.39502e-01,9.99996e-01
5.872820764e-01,9.35553e-01,9.99999e-01,9.94607e-01,9.40661e-01,9.99961e-01
5.902184868e-01,9.35566e-01,9.99999e-01,9.93484e-01,9.41798e-01,9.99896e-01
5.931695792e-01,9.38475e-01,9.99999e-01,9.95390e-01,9.42914e-01,9.99900e-01
5.961354271e-01,9.39190e-01,9.99999e-01,9.94950e-01,9.44010e-01,9.99942e-01
5.991161043e-01,9.41588e-01,9.99999e-01,9.96316e-01,9.45085e-01,9.99981e-01
6.021116848e-01,9.44160e-01,9.99999e-01,9.97909e-01,9.46139e-01,9.99997e-01
6.051222432e-01,9.46173e-01,9.99999e-01,9.98941e-01,9.47175e-01,9.99999e-01
6.081478544e-01,9.47758e-01,9.99999e-01,9.99543e-01,9.48191e-01,9.99999e-01
6.111885937e-01,9.49004e-01,9.99999e-01,9.99806e-01,9.49187e-01,9.99999e-01
6.142445367e-01,9.50084e-01,9.99999e-01,9.99913e-01,9.50166e-01,9.99999e-01
6.173157594e-01,9.51080e-01,9.99999e-01,9.99951e-01,9.51126e-01,9.99999e-01
6.204023382e-01,9.52029e-01,9.99999e-01,9.99959e-01,9.52067e-01,9.99999e-01
6.235043498e-01,9.52821e-01,9.99999e-01,9.99821e-01,9.52992e-01,9.99999e-01
6.266218716e-01,9.52996e-01,9.99999e-01,9.99060e-01,9.53898e-01,9.99992e-01
6.297549810e-01,9.54447e-01,9.99999e-01,9.99654e-01,9.54788e-01,9.99986e-01
6.329037559e-01,9.55001e-01,9.99999e-01,9.99319e-01,9.55661e-01,9.99988e-01
6.360682746e-01,9.55957e-01,9.99999e-01,9.99419e-01,9.56517e-01,9.99993e-01
6.392486160e-01,9.56636e-01,9.99999e-01,9.99248e-01,9.57358e-01,9.99996e-01
6.424448591e-01,9.57212e-01,9.99999e-01,9.98991e-01,9.58182e-01,9.99995e-01
6.456570834e-01,9.54484e-01,9.99999e-01,9.95325e-01,9.58991e-01,9.99973e-01
6.488853688e-01,9.56440e-01,9.99999e-01,9.96586e-01,9.59784e-01,9.99927e-01
6.521297956e-01,9.57164e-01,9.99999e-01,9.96520e-01,9.60563e-01,9.99939e-01
6.553904446e-01,9.57951e-01,9.99999e-01,9.96532e-01,9.61327e-01,9.99955e-01
6.586673968e-01,9.59208e-01,9.99999e-01,9.97033e-01,9.62076e-01,9.99984e-01
6.619607338e-01,9.61216e-01,9.99999e-01,9.98345e-01,9.62811e-01,9.99996e-01
6.652705375e-01,9.62574e-01,9.99999e-01,9.99007e-01,9.63532e-01,9.99997e-01
6.685968902e-01,9.63794e-01,9.99999e-01,9.99538e-01,9.64239e-01,9.99999e-01
6.719398746e-01,9.64727e-01,9.99999e-01,9.99786e-01,9.64933e-01,9.99999e-01
6.752995740e-01,9.65502e-01,9.99999e-01,9.99883e-01,9.65613e-01,9.99999e-01
6.786760719e-01,9.66119e-01,9.99999e-01,9.99831e-01,9.66281e-01,9.99999e-01
6.820694522e-01,9.66657e-01,9.99999e-01,9.99712e-01,9.66936e-01,9.99998e-01
6.854797995e-01,9.67218e-01,9.99999e-01,9.99629e-01,9.67578e-01,9.99996e-01
6.889071985e-01,9.67330e-01,9.99999e-01,9.99100e-01,9.68208e-01,9.99991e-01
6.923517345e-01,9.54656e-01,9.99999e-01,9.85442e-01,9.68826e-01,9.99929e-01
6.958134932e-01,9.61967e-01,9.99999e-01,9.92452e-01,9.69433e-01,9.99844e-01
6.992925606e-01,9.62894e-01,9.99999e-01,9.92783e-01,9.70027e-01,9.99859e-01
7.027890234e-01,9.61886e-01,9.99999e-01,9.91116e-01,9.70611e-01,9.99892e-01
7.063029686e-01,9.63872e-01,9.99999e-01,9.92524e-01,9.71183e-01,9.99946e-01
7.098344834e-01,9.64744e-01,9.99999e-01,9.92826e-01,9.71744e-01,9.99968e-01
7.133836558e-01,9.62918e-01,9.99999e-01,9.90418e-01,9.72294e-01,9.99937e-01
7.169505741e-01,9.00086e-01,9.99999e-01,9.25674e-01,9.72834e-01,9.99508e-01
7.205353270e-01,9.36624e-01,9.99999e-01,9.63088e-01,9.73363e-01,9.99133e-01
7.241380036e-01,9.27539e-01,9.99999e-01,9.53126e-01,9.73882e-01,9.99251e-01
7.277586936e-01,9.32526e-01,9.99999e-01,9.57619e-01,9.74392e-01,9.99388e-01
7.313974871e-01,9.30804e-01,9.99999e-01,9.55050e-01,9.74891e-01,9.99713e-01
7.350544745e-01,9.51079e-01,9.99999e-01,9.75181e-01,9.75381e-01,9.99900e-01
7.387297469e-01,9.57939e-01,9.99999e-01,9.81679e-01,9.75861e-01,9.99953e-01
7.424233956e-01,9.67539e-01,9.99999e-01,9.91001e-01,9.76332e-01,9.99990e-01
7.461355126e-01,9.71456e-01,9.99999e-01,9.94536e-01,9.76794e-01,9.99997e-01
7.498661902e-01,9.74760e-01,9.99999e-01,9.97455e-01,9.77247e-01,9.99998e-01
7.536155211e-01,9.76470e-01,9.99999e-01,9.98749e-01,9.77692e-01,9.99999e-01
7.573835987e-01,9.77498e-01,9.99999e-01,9.99356e-01,9.78127e-01,9.99999e-01
7.611705167e-01,9.78164e-01,9.99999e-01,9.99599e-01,9.78555e-01,9.99999e-01
7.649763693e-01,9.78729e-01,9.99999e-01,9.99748e-01,9.78974e-01,9.99999e-01
7.688012511e-01,9.79214e-01,9.99999e-01,9.99824e-01,9.79385e-01,9.99999e-01
7.726452574e-01,9.79647e-01,9.99999e-01,9.99855e-01,9.79788e-01,9.99999e-01
7.765084837e-01,9.79982e-01,9.99999e-01,9.99794e-01,9.80183e-01,9.99999e-01
7.803910261e-01,9.79703e-01,9.99999e-01,9.99114e-01,9.80571e-01,9.99998e-01
7.842929812e-01,9.77918e-01,9.99999e-01,9.96913e-01,9.80951e-01,9.99993e-01
7.882144461e-01,9.75064e-01,9.99999e-01,9.93664e-01,9.81323e-01,9.99956e-01
7.921555184e-01,9.78206e-01,9.99999e-01,9.96526e-01,9.81689e-01,9.99923e-01
7.961162960e-01,9.75937e-01,9.99999e-01,9.93848e-01,9.82047e-01,9.99927e-01
8.000968774e-01,9.75358e-01,9.99999e-01,9.92908e-01,9.82399e-01,9.99922e-01
8.040973618e-01,9.75713e-01,9.99999e-01,9.92903e-01,9.82743e-01,9.99941e-01
8.081178486e-01,9.67338e-01,9.99999e-01,9.84043e-01,9.83081e-01,9.99940e-01
8.121584379e-01,9.19492e-01,9.99999e-01,9.35209e-01,9.83413e-01,9.99775e-01
8.162192301e-01,9.07995e-01,9.99999e-01,9.23782e-01,9.83738e-01,9.99157e-01
8.203003262e-01,9.44985e-01,9.99999e-01,9.61243e-01,9.84056e-01,9.99013e-01
8.244018279e-01,9.31166e-01,9.99999e-01,9.46695e-01,9.84369e-01,9.99214e-01
8.285238370e-01,9.38495e-01,9.99999e-01,9.53688e-01,9.84675e-01,9.99382e-01
8.326664562e-01,9.38702e-01,9.99999e-01,9.53262e-01,9.84976e-01,9.99744e-01
8.368297885e-01,9.52097e-01,9.99999e-01,9.66386e-01,9.85270e-01,9.99941e-01
8.410139374e-01,9.65712e-01,9.99999e-01,9.79895e-01,9.85559e-01,9.99965e-01
8.452190071e-01,9.76059e-01,9.99999e-01,9.90096e-01,9.85842e-01,9.99979e-01
8.494451021e-01,9.80422e-01,9.99999e-01,9.94237e-01,9.86120e-01,9.99983e-01
8.536923276e-01,9.83022e-01,9.99999e-01,9.96592e-01,9.86392e-01,9.99989e-01
8.579607893e-01,9.84584e-01,9.99999e-01,9.97898e-01,9.86659e-01,9.99997e-01
8.622505932e-01,9.85604e-01,9.99999e-01,9.98665e-01,9.86921e-01,9.99999e-01
8.665618462e-01,9.86362e-01,9.99999e-01,9.99173e-01,9.87177e-01,9.99999e-01
8.708946554e-01,9.86494e-01,9.99999e-01,9.99053e-01,9.87429e-01,9.99998e-01
8.752491287e-01,9.86424e-01,9.99999e-01,9.98733e-01,9.87676e-01,9.99998e-01
8.796253743e-01,9.86181e-01,9.99999e-01,9.98245e-01,9.87918e-01,9.99995e-01
8.840235012e-01,9.86164e-01,9.99999e-01,9.97996e-01,9.88155e-01,9.99987e-01
8.884436187e-01,9.81115e-01,9.99999e-01,9.92675e-01,9.88388e-01,9.99964e-01
8.928858368e-01,9.15039e-01,9.99999e-01,9.25761e-01,9.88616e-01,9.99799e-01
8.973502660e-01,8.62218e-01,9.99999e-01,8.72843e-01,9.88839e-01,9.98974e-01
9.018370173e-01,9.21385e-01,9.99999e-01,9.33080e-01,9.89058e-01,9.98389e-01
9.063462024e-01,9.29163e-01,9.99999e-01,9.40567e-01,9.89273e-01,9.98584e-01
9.108779334e-01,8.98123e-01,9.99999e-01,9.09004e-01,9.89484e-01,9.98529e-01
9.154323231e-01,8.86943e-01,9.99999e-01,8.97272e-01,9.89691e-01,9.98784e-01
9.200094847e-01,9.08818e-01,9.99999e-01,9.18721e-01,9.89893e-01,9.99319e-01
9.246095321e-01,8.66917e-01,9.99999e-01,8.76279e-01,9.90092e-01,9.99215e-01
9.292325798e-01,4.15305e-01,9.99999e-01,4.20662e-01,9.90287e-01,9.96945e-01
9.338787427e-01,3.22162e-01,9.99999e-01,3.29398e-01,9.90478e-01,9.87435e-01
9.385481364e-01,6.22439e-01,9.99999e-01,6.37823e-01,9.90665e-01,9.85074e-01
9.432408771e-01,5.27220e-01,9.99999e-01,5.39037e-01,9.90848e-01,9.87110e-01
9.479570815e-01,4.20761e-01,9.99999e-01,4.29077e-01,9.91028e-01,9.89496e-01
9.526968669e-01,5.17762e-01,9.99999e-01,5.25730e-01,9.91205e-01,9.93580e-01
9.574603512e-01,5.41191e-01,9.99999e-01,5.47686e-01,9.91378e-01,9.96733e-01
9.622476530e-01,6.04566e-01,9.99999e-01,6.11100e-01,9.91547e-01,9.97740e-01
9.670588912e-01,7.44748e-01,9.99999e-01,7.52133e-01,9.91713e-01,9.98453e-01
9.718941857e-01,8.28002e-01,9.99999e-01,8.35734e-01,9.91876e-01,9.98861e-01
9.767536566e-01,8.53929e-01,9.99999e-01,8.61532e-01,9.92036e-01,9.99129e-01
9.816374249e-01,8.88125e-01,9.99999e-01,8.95382e-01,9.92193e-01,9.99698e-01
9.865456120e-01,9.26052e-01,9.99999e-01,9.33252e-01,9.92347e-01,9.99936e-01
9.914783401e-01,9.50971e-01,9.99999e-01,9.58176e-01,9.92497e-01,9.99982e-01
9.964357318e-01,9.69811e-01,9.99999e-01,9.77006e-01,9.92645e-01,9.99989e-01
1.001417910e+00,9.79032e-01,9.99999e-01,9.86157e-01,9.92789e-01,9.99983e-01
1.006425000e+00,9.85048e-01,9.99999e-01,9.92081e-01,9.92931e-01,9.99977e-01
1.011457125e+00,9.88167e-01,9.99999e-01,9.95082e-01,9.93071e-01,9.99978e-01
1.016514411e+00,9.89874e-01,9.99999e-01,9.96657e-01,9.93207e-01,9.99985e-01
1.021596983e+00,9.90680e-01,9.99999e-01,9.97335e-01,9.93341e-01,9.99984e-01
1.026704968e+00,9.91397e-01,9.99999e-01,9.97921e-01,9.93472e-01,9.99989e-01
1.031838492e+00,9.92097e-01,9.99999e-01,9.98489e-01,9.93600e-01,9.99996e-01
1.036997685e+00,9.92834e-01,9.99999e-01,9.99102e-01,9.93726e-01,9.99999e-01
1.042182673e+00,9.92785e-01,9.99999e-01,9.98928e-01,9.93850e-01,9.99999e-01
1.047393587e+00,9.92560e-01,9.99999e-01,9.98579e-01,9.93971e-01,9.99999e-01
1.052630555e+00,9.92152e-01,9.99999e-01,9.98051e-01,9.94090e-01,9.99998e-01
1.057893707e+00,9.90971e-01,9.99999e-01,9.96746e-01,9.94206e-01,9.99998e-01
1.063183176e+00,9.89001e-01,9.99999e-01,9.94652e-01,9.94320e-01,9.99996e-01
1.068499092e+00,9.85540e-01,9.99999e-01,9.91063e-01,9.94432e-01,9.99993e-01
1.073841587e+00,9.84131e-01,9.99999e-01,9.89544e-01,9.94542e-01,9.99986e-01
1.079210795e+00,9.81317e-01,9.99999e-01,9.86630e-01,9.94649e-01,9.99963e-01
1.084606849e+00,9.74598e-01,9.99999e-01,9.79821e-01,9.94754e-01,9.99913e-01
1.090029883e+00,9.65937e-01,9.99999e-01,9.71102e-01,9.94858e-01,9.99820e-01
1.095480033e+00,9.18309e-01,9.99999e-01,9.23259e-01,9.94959e-01,9.99676e-01
1.100957433e+00,8.12282e-01,9.99999e-01,8.16800e-01,9.95058e-01,9.99405e-01
1.106462220e+00,5.97835e-01,9.99999e-01,6.01351e-01,9.95156e-01,9.98991e-01
1.111994531e+00,3.44952e-01,9.99999e-01,3.47526e-01,9.95251e-01,9.97325e-01
1.117554504e+00,1.81973e-01,9.99999e-01,1.84599e-01,9.95345e-01,9.90379e-01
1.123142276e+00,2.91819e-01,9.99999e-01,2.99954e-01,9.95436e-01,9.77336e-01
1.128757988e+00,4.37505e-01,9.99999e-01,4.51281e-01,9.95526e-01,9.73828e-01
1.134401778e+00,2.18894e-01,9.99999e-01,2.24872e-01,9.95615e-01,9.77702e-01
1.140073787e+00,6.02781e-01,9.99999e-01,6.16389e-01,9.95701e-01,9.82143e-01
1.145774156e+00,3.65398e-01,9.99999e-01,3.73046e-01,9.95786e-01,9.83642e-01
1.151503026e+00,3.31450e-01,9.99999e-01,3.35896e-01,9.95869e-01,9.90854e-01
1.157260541e+00,3.89466e-01,9.99999e-01,3.92125e-01,9.95950e-01,9.97256e-01
1.163046844e+00,4.96892e-01,9.99999e-01,4.99261e-01,9.96030e-01,9.99221e-01
1.168862078e+00,6.11531e-01,9.99999e-01,6.14166e-01,9.96108e-01,9.99598e-01
1.174706389e+00,7.36795e-01,9.99999e-01,7.40009e-01,9.96185e-01,9.99468e-01
1.180579921e+00,8.28455e-01,9.99999e-01,8.32232e-01,9.96260e-01,9.99195e-01
1.186482820e+00,8.97186e-01,9.99999e-01,9.01230e-01,9.96334e-01,9.99174e-01
1.192415234e+00,9.37108e-01,9.99999e-01,9.41068e-01,9.96406e-01,9.99381e-01
1.198377311e+00,9.46179e-01,9.99999e-01,9.50077e-01,9.96477e-01,9.99416e-01
1.204369197e+00,9.48953e-01,9.99999e-01,9.52744e-01,9.96546e-01,9.99471e-01
1.210391043e+00,9.51207e-01,9.99999e-01,9.54744e-01,9.96614e-01,9.99678e-01
1.216442998e+00,9.58016e-01,9.99999e-01,9.61394e-01,9.96681e-01,9.99802e-01
1.222525213e+00,9.66525e-01,9.99999e-01,9.69797e-01,9.96747e-01,9.99877e-01
1.228637839e+00,9.75750e-01,9.99999e-01,9.78926e-01,9.96811e-01,9.99942e-01
1.234781029e+00,9.81224e-01,9.99999e-01,9.84316e-01,9.96874e-01,9.99983e-01
1.240954934e+00,9.87015e-01,9.99999e-01,9.90053e-01,9.96935e-01,9.99994e-01
1.247159708e+00,9.89265e-01,9.99999e-01,9.92248e-01,9.96996e-01,9.99996e-01
1.253395507e+00,9.90185e-01,9.99999e-01,9.93112e-01,9.97055e-01,9.99995e-01
1.259662485e+00,9.90579e-01,9.99999e-01,9.93452e-01,9.97113e-01,9.99993e-01
1.265960797e+00,9.86753e-01,9.99999e-01,9.89562e-01,9.97170e-01,9.99989e-01
1.272290601e+00,9.80891e-01,9.99999e-01,9.83637e-01,9.97226e-01,9.99981e-01
1.278652054e+00,9.65076e-01,9.99999e-01,9.67737e-01,9.97280e-01,9.99967e-01
1.285045314e+00,9.39687e-01,9.99999e-01,9.42253e-01,9.97334e-01,9.99940e-01
1.291470541e+00,8.99114e-01,9.99999e-01,9.01563e-01,9.97387e-01,9.99895e-01
1.297927893e+00,8.60620e-01,9.99999e-01,8.62996e-01,9.97438e-01,9.99805e-01
1.304417533e+00,8.38425e-01,9.99999e-01,8.40880e-01,9.97489e-01,9.99588e-01
1.310939621e+00,8.17021e-01,9.99999e-01,8.19728e-01,9.97538e-01,9.99156e-01
1.317494319e+00,8.03411e-01,9.99999e-01,8.06612e-01,9.97587e-01,9.98439e-01
1.324081790e+00,7.22282e-01,9.99999e-01,7.25841e-01,9.97634e-01,9.97454e-01
1.330702199e+00,3.15552e-01,9.99999e-01,3.17678e-01,9.97681e-01,9.95615e-01
1.337355710e+00,4.56252e-02,9.99999e-01,4.61177e-02,9.97727e-01,9.91572e-01
1.344042489e+00,1.65971e-03,9.99999e-01,1.70636e-03,9.97772e-01,9.74832e-01
1.350762701e+00,2.55683e-07,9.99999e-01,2.79609e-07,9.97816e-01,9.16430e-01
1.357516515e+00,2.25925e-10,9.99999e-01,2.92499e-10,9.97859e-01,7.74053e-01
1.364304097e+00,6.95296e-07,9.99999e-01,1.09149e-06,9.97901e-01,6.38355e-01
1.371125618e+00,7.89511e-05,9.99999e-01,1.20792e-04,9.97942e-01,6.54957e-01
1.377981246e+00,2.55129e-04,9.99999e-01,3.67432e-04,9.97983e-01,6.95759e-01
1.384871152e+00,2.95268e-06,9.99999e-01,4.14836e-06,9.98023e-01,7.13181e-01
1.391795508e+00,9.44268e-07,9.99999e-01,1.30578e-06,9.98062e-01,7.24549e-01
1.398754485e+00,1.35457e-05,9.99999e-01,1.77099e-05,9.98100e-01,7.66320e-01
1.405748258e+00,1.43250e-05,9.99999e-01,1.67678e-05,9.98137e-01,8.55907e-01
1.412776999e+00,1.50330e-05,9.99999e-01,1.61693e-05,9.98174e-01,9.31425e-01
1.419840884e+00,3.18887e-05,9.99999e-01,3.29566e-05,9.98210e-01,9.69331e-01
1.426940089e+00,3.64396e-04,9.99999e-01,3.73778e-04,9.98245e-01,9.76613e-01
1.434074789e+00,2.10975e-03,9.99999e-01,2.17323e-03,9.98280e-01,9.72461e-01
1.441245163e+00,7.11997e-03,9.99999e-01,7.35100e-03,9.98314e-01,9.70205e-01
1.448451389e+00,3.14883e-02,9.99999e-01,3.23868e-02,9.98347e-01,9.73863e-01
1.455693646e+00,9.52943e-02,9.99999e-01,9.74362e-02,9.98380e-01,9.79603e-01
1.462972114e+00,1.26875e-01,9.99999e-01,1.29599e-01,9.98412e-01,9.80537e-01
1.470286975e+00,9.14969e-02,9.99999e-01,9.34270e-02,9.98443e-01,9.80866e-01
