#,Wave/freq,Total,N2,H2O,Rayleigh,CIA
4.000000000e-01,9.39631e-01,9.99999e-01,9.99992e-01,9.39637e-01,9.99999e-01
4.020000000e-01,9.40791e-01,9.99999e-01,9.99995e-01,9.40795e-01,9.99999e-01
4.040100000e-01,9.41928e-01,9.99999e-01,9.99997e-01,9.41930e-01,9.99999e-01
4.060300500e-01,9.43043e-01,9.99999e-01,9.99999e-01,9.43043e-01,9.99999e-01
4.080602003e-01,9.44136e-01,9.99999e-01,9.99999e-01,9.44136e-01,9.99999e-01
4.101005013e-01,9.45209e-01,9.99999e-01,9.99999e-01,9.45209e-01,9.99999e-01
4.121510038e-01,9.46261e-01,9.99999e-01,9.99999e-01,9.46262e-01,9.99999e-01
4.142117588e-01,9.47293e-01,9.99999e-01,9.99997e-01,9.47295e-01,9.99999e-01
4.162828176e-01,9.48300e-01,9.99999e-01,9.99990e-01,9.48308e-01,9.99999e-01
4.183642317e-01,9.49298e-01,9.99999e-01,9.99994e-01,9.49303e-01,9.99999e-01
4.204560528e-01,9.50276e-01,9.99999e-01,9.99996e-01,9.50279e-01,9.99999e-01
4.225583331e-01,9.51236e-01,9.99999e-01,9.99998e-01,9.51237e-01,9.99999e-01
4.246711247e-01,9.52176e-01,9.99999e-01,9.99998e-01,9.52176e-01,9.99999e-01
4.267944804e-01,9.53097e-01,9.99999e-01,9.99998e-01,9.53099e-01,9.99999e-01
4.289284528e-01,9.54002e-01,9.99999e-01,9.99998e-01,9.54003e-01,9.99999e-01
4.310730950e-01,9.54891e-01,9.99999e-01,9.99999e-01,9.54891e-01,9.99999e-01
4.332284605e-01,9.55762e-01,9.99999e-01,9.99999e-01,9.55762e-01,9.99999e-01
4.353946028e-01,9.56617e-01,9.99999e-01,9.99999e-01,9.56617e-01,9.99999e-01
4.375715758e-01,9.57454e-01,9.99999e-01,9.99998e-01,9.57455e-01,9.99999e-01
4.397594337e-01,9.58270e-01,9.99999e-01,9.99991e-01,9.58278e-01,9.99999e-01
4.419582309e-01,9.59048e-01,9.99999e-01,9.99961e-01,9.59085e-01,9.99999e-01
4.441680220e-01,9.59847e-01,9.99999e-01,9.99969e-01,9.59876e-01,9.99999e-01
4.463888621e-01,9.60623e-01,9.99999e-01,9.99967e-01,9.60653e-01,9.99999e-01
4.486208064e-01,9.61396e-01,9.99999e-01,9.99979e-01,9.61415e-01,9.99999e-01
4.508639105e-01,9.62154e-01,9.99999e-01,9.99990e-01,9.62163e-01,9.99999e-01
4.531182300e-01,9.62892e-01,9.99999e-01,9.99995e-01,9.62896e-01,9.99999e-01
4.553838212e-01,9.63613e-01,9.99999e-01,9.99997e-01,9.63615e-01,9.99999e-01
4.576607403e-01,9.64320e-01,9.99999e-01,9.99998e-01,9.64321e-01,9.99999e-01
4.599490440e-01,9.65012e-01,9.99999e-01,9.99998e-01,9.65013e-01,9.99999e-01
4.622487892e-01,9.65692e-01,9.99999e-01,9.99999e-01,9.65692e-01,9.99999e-01
4.645600332e-01,9.66358e-01,9.99999e-01,9.99998e-01,9.66358e-01,9.99999e-01
4.668828333e-01,9.67003e-01,9.99999e-01,9.99990e-01,9.67012e-01,9.99999e-01
4.692172475e-01,9.67634e-01,9.99999e-01,9.99979e-01,9.67653e-01,9.99999e-01
4.715633337e-01,9.68269e-01,9.99999e-01,9.99986e-01,9.68281e-01,9.99999e-01
4.739211504e-01,9.68886e-01,9.99999e-01,9.99987e-01,9.68898e-01,9.99999e-01
4.762907561e-01,9.69497e-01,9.99999e-01,9.99993e-01,9.69503e-01,9.99999e-01
4.786722099e-01,9.70094e-01,9.99999e-01,9.99996e-01,9.70096e-01,9.99999e-01
4.810655710e-01,9.70677e-01,9.99999e-01,9.99998e-01,9.70678e-01,9.99999e-01
4.834708988e-01,9.71242e-01,9.99999e-01,9.99992e-01,9.71249e-01,9.99999e-01
4.858882533e-01,9.71795e-01,9.99999e-01,9.99985e-01,9.71809e-01,9.99999e-01
4.883176946e-01,9.72346e-01,9.99999e-01,9.99987e-01,9.72358e-01,9.99999e-01
4.907592831e-01,9.72886e-01,9.99999e-01,9.99988e-01,9.72896e-01,9.99999e-01
4.932130795e-01,9.73417e-01,9.99999e-01,9.99991e-01,9.73424e-01,9.99999e-01
4.956791449e-01,9.73939e-01,9.99999e-01,9.99995e-01,9.73942e-01,9.99999e-01
4.981575406e-01,9.74431e-01,9.99999e-01,9.99979e-01,9.74450e-01,9.99999e-01
5.006483283e-01,9.74898e-01,9.99999e-01,9.99948e-01,9.74949e-01,9.99999e-01
5.031515699e-01,9.75180e-01,9.99999e-01,9.99738e-01,9.75437e-01,9.99996e-01
5.056673278e-01,9.75779e-01,9.99999e-01,9.99861e-01,9.75917e-01,9.99996e-01
5.081956644e-01,9.76215e-01,9.99999e-01,9.99825e-01,9.76387e-01,9.99997e-01
5.107366428e-01,9.76732e-01,9.99999e-01,9.99881e-01,9.76848e-01,9.99999e-01
5.132903260e-01,9.77234e-01,9.99999e-01,9.99932e-01,9.77300e-01,9.99999e-01
5.158567776e-01,9.77715e-01,9.99999e-01,9.99971e-01,9.77743e-01,9.99999e-01
5.184360615e-01,9.78167e-01,9.99999e-01,9.99988e-01,9.78178e-01,9.99999e-01
5.210282418e-01,9.78600e-01,9.99999e-01,9.99995e-01,9.78604e-01,9.99999e-01
5.236333830e-01,9.79006e-01,9.99999e-01,9.99982e-01,9.79022e-01,9.99999e-01
5.262515499e-01,9.79422e-01,9.99999e-01,9.99988e-01,9.79432e-01,9.99999e-01
5.288828077e-01,9.79825e-01,9.99999e-01,9.99989e-01,9.79834e-01,9.99999e-01
5.315272217e-01,9.80220e-01,9.99999e-01,9.99990e-01,9.80229e-01,9.99999e-01
5.341848578e-01,9.80610e-01,9.99999e-01,9.99993e-01,9.80616e-01,9.99999e-01
5.368557821e-01,9.80975e-01,9.99999e-01,9.99979e-01,9.80995e-01,9.99999e-01
5.395400610e-01,9.81296e-01,9.99999e-01,9.99928e-01,9.81367e-01,9.99998e-01
5.422377613e-01,9.81639e-01,9.99999e-01,9.99906e-01,9.81731e-01,9.99997e-01
5.449489501e-01,9.82003e-01,9.99999e-01,9.99913e-01,9.82089e-01,9.99997e-01
5.476736949e-01,9.82364e-01,9.99999e-01,9.99923e-01,9.82439e-01,9.99998e-01
5.504120634e-01,9.82729e-01,9.99999e-01,9.99944e-01,9.82783e-01,9.99999e-01
5.531641237e-01,9.83093e-01,9.99999e-01,9.99971e-01,9.83120e-01,9.99999e-01
5.559299443e-01,9.83438e-01,9.99999e-01,9.99986e-01,9.83451e-01,9.99999e-01
5.587095940e-01,9.83767e-01,9.99999e-01,9.99991e-01,9.83775e-01,9.99999e-01
5.615031420e-01,9.84084e-01,9.99999e-01,9.99990e-01,9.84093e-01,9.99999e-01
5.643106577e-01,9.84394e-01,9.99999e-01,9.99988e-01,9.84405e-01,9.99999e-01
5.671322110e-01,9.84584e-01,9.99999e-01,9.99871e-01,9.84711e-01,9.99998e-01
5.699678720e-01,9.84871e-01,9.99999e-01,9.99861e-01,9.85010e-01,9.99995e-01
5.728177114e-01,9.85161e-01,9.99999e-01,9.99856e-01,9.85304e-01,9.99996e-01
5.756818000e-01,9.85461e-01,9.99999e-01,9.99868e-01,9.85592e-01,9.99997e-01
5.785602090e-01,9.85761e-01,9.99999e-01,9.99884e-01,9.85875e-01,9.99998e-01
5.814530100e-01,9.86038e-01,9.99999e-01,9.99884e-01,9.86152e-01,9.99999e-01
5.843602750e-01,9.86288e-01,9.99999e-01,9.99863e-01,9.86424e-01,9.99998e-01
5.872820764e-01,9.85520e-01,9.99999e-01,9.98821e-01,9.86690e-01,9.99991e-01
5.902184868e-01,9.85514e-01,9.99999e-01,9.98566e-01,9.86951e-01,9.99976e-01
5.931695792e-01,9.86187e-01,9.99999e-01,9.98988e-01,9.87207e-01,9.99977e-01
5.961354271e-01,9.86350e-01,9.99999e-01,9.98889e-01,9.87458e-01,9.99986e-01
5.991161043e-01,9.86901e-01,9.99999e-01,9.99190e-01,9.87704e-01,9.99995e-01
6.021116848e-01,9.87491e-01,9.99999e-01,9.99539e-01,9.87946e-01,9.99999e-01
6.051222432e-01,9.87953e-01,9.99999e-01,9.99766e-01,9.88182e-01,9.99999e-01
6.081478544e-01,9.88315e-01,9.99999e-01,9.99899e-01,9.88415e-01,9.99999e-01
6.111885937e-01,9.88600e-01,9.99999e-01,9.99957e-01,9.88642e-01,9.99999e-01
6.142445367e-01,9.88846e-01,9.99999e-01,9.99980e-01,9.88865e-01,9.99999e-01
6.173157594e-01,9.89074e-01,9.99999e-01,9.99989e-01,9.89084e-01,9.99999e-01
6.204023382e-01,9.89290e-01,9.99999e-01,9.99990e-01,9.89298e-01,9.99999e-01
6.235043498e-01,9.89470e-01,9.99999e-01,9.99961e-01,9.89509e-01,9.99999e-01
6.266218716e-01,9.89510e-01,9.99999e-01,9.99793e-01,9.89715e-01,9.99998e-01
6.297549810e-01,9.89839e-01,9.99999e-01,9.99924e-01,9.89917e-01,9.99996e-01
6.329037559e-01,9.89965e-01,9.99999e-01,9.99850e-01,9.90115e-01,9.99997e-01
6.360682746e-01,9.90182e-01,9.99999e-01,9.99872e-01,9.90309e-01,9.99998e-01
6.392486160e-01,9.90336e-01,9.99999e-01,9.99834e-01,9.90500e-01,9.99998e-01
6.424448591e-01,9.90468e-01,9.99999e-01,9.99780e-01,9.90686e-01,9.99998e-01
6.456570834e-01,9.89854e-01,9.99999e-01,9.98980e-01,9.90870e-01,9.99993e-01
6.488853688e-01,9.90289e-01,9.99999e-01,9.99248e-01,9.91049e-01,9.99983e-01
6.521297956e-01,9.90453e-01,9.99999e-01,9.99234e-01,9.91225e-01,9.99986e-01
6.553904446e-01,9.90638e-01,9.99999e-01,9.99243e-01,9.91398e-01,9.99989e-01
6.586673968e-01,9.90917e-01,9.99999e-01,9.99347e-01,9.91567e-01,9.99996e-01
6.619607338e-01,9.91358e-01,9.99999e-01,9.99622e-01,9.91733e-01,9.99998e-01
6.652705375e-01,9.91678e-01,9.99999e-01,9.99781e-01,9.91895e-01,9.99999e-01
6.685968902e-01,9.91954e-01,9.99999e-01,9.99898e-01,9.92055e-01,9.99999e-01
6.719398746e-01,9.92164e-01,9.99999e-01,9.99952e-01,9.92211e-01,9.99999e-01
6.752995740e-01,9.92339e-01,9.99999e-01,9.99974e-01,9.92364e-01,9.99999e-01
6.786760719e-01,9.92478e-01,9.99999e-01,9.99962e-01,9.92515e-01,9.99999e-01
6.820694522e-01,9.92599e-01,9.99999e-01,9.99936e-01,9.92662e-01,9.99999e-01
6.854797995e-01,9.92725e-01,9.99999e-01,9.99918e-01,9.92806e-01,9.99998e-01
6.889071985e-01,9.92753e-01,9.99999e-01,9.99805e-01,9.92948e-01,9.99997e-01
6.923517345e-01,9.89900e-01,9.99999e-01,9.96806e-01,9.93087e-01,9.99984e-01
6.958134932e-01,9.91520e-01,9.99999e-01,9.98319e-01,9.93223e-01,9.99964e-01
6.992925606e-01,9.91759e-01,9.99999e-01,9.98421e-01,9.93356e-01,9.99969e-01
7.027890234e-01,9.91520e-01,9.99999e-01,9.98043e-01,9.93487e-01,9.99976e-01
7.063029686e-01,9.91971e-01,9.99999e-01,9.98356e-01,9.93615e-01,9.99987e-01
7.098344834e-01,9.92167e-01,9.99999e-01,9.98422e-01,9.93741e-01,9.99992e-01
7.133836558e-01,9.91775e-01,9.99999e-01,9.97910e-01,9.93864e-01,9.99985e-01
7.169505741e-01,9.77143e-01,9.99999e-01,9.83161e-01,9.93985e-01,9.99892e-01
7.205353270e-01,9.85625e-01,9.99999e-01,9.91658e-01,9.94103e-01,9.99809e-01
7.241380036e-01,9.83631e-01,9.99999e-01,9.89511e-01,9.94219e-01,9.99835e-01
7.277586936e-01,9.84781e-01,9.99999e-01,9.90525e-01,9.94333e-01,9.99865e-01
7.313974871e-01,9.84346e-01,9.99999e-01,9.89906e-01,9.94445e-01,9.99936e-01
7.350544745e-01,9.89049e-01,9.99999e-01,9.94486e-01,9.94554e-01,9.99977e-01
7.387297469e-01,9.90616e-01,9.99999e-01,9.95941e-01,9.94662e-01,9.99989e-01
7.424233956e-01,9.92787e-01,9.99999e-01,9.98011e-01,9.94767e-01,9.99997e-01
7.461355126e-01,9.93672e-01,9.99999e-01,9.98795e-01,9.94870e-01,9.99999e-01
7.498661902e-01,9.94412e-01,9.99999e-01,9.99438e-01,9.94971e-01,9.99999e-01
7.536155211e-01,9.94796e-01,9.99999e-01,9.99724e-01,9.95070e-01,9.99999e-01
7.573835987e-01,9.95026e-01,9.99999e-01,9.99858e-01,9.95167e-01,9.99999e-01
7.611705167e-01,9.95175e-01,9.99999e-01,9.99911e-01,9.95262e-01,9.99999e-01
7.649763693e-01,9.95301e-01,9.99999e-01,9.99944e-01,9.95356e-01,9.99999e-01
7.688012511e-01,9.95409e-01,9.99999e-01,9.99961e-01,9.95447e-01,9.99999e-01
7.726452574e-01,9.95505e-01,9.99999e-01,9.99968e-01,9.95537e-01,9.99999e-01
7.765084837e-01,9.95580e-01,9.99999e-01,9.99954e-01,9.95625e-01,9.99999e-01
7.803910261e-01,9.95519e-01,9.99999e-01,9.99807e-01,9.95711e-01,9.99999e-01
7.842929812e-01,9.95125e-01,9.99999e-01,9.99327e-01,9.95795e-01,9.99998e-01
7.882144461e-01,9.94484e-01,9.99999e-01,9.98607e-01,9.95878e-01,9.99991e-01
7.921555184e-01,9.95181e-01,9.99999e-01,9.99234e-01,9.95960e-01,9.99983e-01
7.961162960e-01,9.94684e-01,9.99999e-01,9.98655e-01,9.96039e-01,9.99983e-01
8.000968774e-01,9.94549e-01,9.99999e-01,9.98442e-01,9.96117e-01,9.99982e-01
8.040973618e-01,9.94630e-01,9.99999e-01,9.98442e-01,9.96194e-01,9.99986e-01
8.081178486e-01,9.92771e-01,9.99999e-01,9.96501e-01,9.96269e-01,9.99987e-01
8.121584379e-01,9.81777e-01,9.99999e-01,9.85429e-01,9.96342e-01,9.99950e-01
8.162192301e-01,9.78910e-01,9.99999e-01,9.82613e-01,9.96414e-01,9.99814e-01
8.203003262e-01,9.87630e-01,9.99999e-01,9.91327e-01,9.96485e-01,9.99783e-01
8.244018279e-01,9.84118e-01,9.99999e-01,9.87690e-01,9.96554e-01,9.99827e-01
8.285238370e-01,9.86172e-01,9.99999e-01,9.89647e-01,9.96622e-01,9.99864e-01
8.326664562e-01,9.86174e-01,9.99999e-01,9.89504e-01,9.96689e-01,9.99943e-01
8.368297885e-01,9.89269e-01,9.99999e-01,9.92502e-01,9.96754e-01,9.99986e-01
8.410139374e-01,9.92367e-01,9.99999e-01,9.95541e-01,9.96818e-01,9.99992e-01
8.452190071e-01,9.94696e-01,9.99999e-01,9.97811e-01,9.96881e-01,9.99995e-01
8.494451021e-01,9.95676e-01,9.99999e-01,9.98732e-01,9.96942e-01,9.99995e-01
8.536923276e-01,9.96252e-01,9.99999e-01,9.99249e-01,9.97003e-01,9.99997e-01
8.579607893e-01,9.96601e-01,9.99999e-01,9.99538e-01,9.97062e-01,9.99998e-01
8.622505932e-01,9.96827e-01,9.99999e-01,9.99706e-01,9.97120e-01,9.99999e-01
8.665618462e-01,9.96996e-01,9.99999e-01,9.99818e-01,9.97177e-01,9.99999e-01
8.708946554e-01,9.97026e-01,9.99999e-01,9.99792e-01,9.97232e-01,9.99999e-01
8.752491287e-01,9.97010e-01,9.99999e-01,9.99722e-01,9.97287e-01,9.99999e-01
8.796253743e-01,9.96957e-01,9.99999e-01,9.99616e-01,9.97340e-01,9.99998e-01
8.840235012e-01,9.96953e-01,9.99999e-01,9.99561e-01,9.97393e-01,9.99996e-01
8.884436187e-01,9.95854e-01,9.99999e-01,9.98413e-01,9.97444e-01,9.99991e-01
8.928858368e-01,9.80717e-01,9.99999e-01,9.83222e-01,9.97495e-01,9.99955e-01
8.973502660e-01,9.67697e-01,9.99999e-01,9.70296e-01,9.97544e-01,9.99775e-01
9.018370173e-01,9.81946e-01,9.99999e-01,9.84662e-01,9.97592e-01,9.99646e-01
9.063462024e-01,9.83993e-01,9.99999e-01,9.86626e-01,9.97640e-01,9.99689e-01
9.108779334e-01,9.76574e-01,9.99999e-01,9.79153e-01,9.97686e-01,9.99677e-01
9.154323231e-01,9.73881e-01,9.99999e-01,9.76354e-01,9.97732e-01,9.99733e-01
9.200094847e-01,9.79060e-01,9.99999e-01,9.81387e-01,9.97777e-01,9.99850e-01
9.246095321e-01,9.68690e-01,9.99999e-01,9.70971e-01,9.97821e-01,9.99827e-01
9.292325798e-01,8.15521e-01,9.99999e-01,8.17813e-01,9.97864e-01,9.99329e-01
9.338787427e-01,7.65635e-01,9.99999e-01,7.69368e-01,9.97906e-01,9.97234e-01
9.385481364e-01,8.95245e-01,9.99999e-01,9.00045e-01,9.97947e-01,9.96711e-01
9.432408771e-01,8.57952e-01,9.99999e-01,8.62127e-01,9.97988e-01,9.97162e-01
9.479570815e-01,8.08429e-01,9.99999e-01,8.11901e-01,9.98027e-01,9.97689e-01
9.526968669e-01,8.54393e-01,9.99999e-01,8.57255e-01,9.98066e-01,9.98590e-01
9.574603512e-01,8.69258e-01,9.99999e-01,8.71532e-01,9.98104e-01,9.99283e-01
9.622476530e-01,8.92504e-01,9.99999e-01,8.94608e-01,9.98142e-01,9.99504e-01
9.670588912e-01,9.36041e-01,9.99999e-01,9.38066e-01,9.98178e-01,9.99660e-01
9.718941857e-01,9.59175e-01,9.99999e-01,9.61129e-01,9.98214e-01,9.99750e-01
9.767536566e-01,9.65774e-01,9.99999e-01,9.67651e-01,9.98249e-01,9.99808e-01
9.816374249e-01,9.74193e-01,9.99999e-01,9.75931e-01,9.98284e-01,9.99933e-01
9.865456120e-01,9.83239e-01,9.99999e-01,9.84908e-01,9.98318e-01,9.99985e-01
9.914783401e-01,9.89020e-01,9.99999e-01,9.90656e-01,9.98351e-01,9.99995e-01
9.964357318e-01,9.93292e-01,9.99999e-01,9.94901e-01,9.98384e-01,9.99997e-01
1.001417910e+00,9.95359e-01,9.99999e-01,9.96941e-01,9.98415e-01,9.99996e-01
1.006425000e+00,9.96703e-01,9.99999e-01,9.98258e-01,9.98447e-01,9.99994e-01
1.011457125e+00,9.97392e-01,9.99999e-01,9.98916e-01,9.98477e-01,9.99995e-01
1.016514411e+00,9.97771e-01,9.99999e-01,9.99265e-01,9.98507e-01,9.99996e-01
1.021596983e+00,9.97950e-01,9.99999e-01,9.99414e-01,9.98537e-01,9.99996e-01
1.026704968e+00,9.98108e-01,9.99999e-01,9.99543e-01,9.98566e-01,9.99997e-01
1.031838492e+00,9.98262e-01,9.99999e-01,9.99667e-01,9.98594e-01,9.99998e-01
1.036997685e+00,9.98425e-01,9.99999e-01,9.99802e-01,9.98622e-01,9.99999e-01
1.042182673e+00,9.98415e-01,9.99999e-01,9.99765e-01,9.98649e-01,9.99999e-01
1.047393587e+00,9.98365e-01,9.99999e-01,9.99688e-01,9.98676e-01,9.99999e-01
1.052630555e+00,9.98276e-01,9.99999e-01,9.99573e-01,9.98702e-01,9.99999e-01
1.057893707e+00,9.98017e-01,9.99999e-01,9.99288e-01,9.98727e-01,9.99999e-01
1.063183176e+00,9.97582e-01,9.99999e-01,9.98827e-01,9.98752e-01,9.99998e-01
1.068499092e+00,9.96815e-01,9.99999e-01,9.98036e-01,9.98777e-01,9.99998e-01
1.073841587e+00,9.96505e-01,9.99999e-01,9.97703e-01,9.98801e-01,9.99996e-01
1.079210795e+00,9.95874e-01,9.99999e-01,9.97052e-01,9.98825e-01,9.99991e-01
1.084606849e+00,9.94378e-01,9.99999e-01,9.95543e-01,9.98848e-01,9.99980e-01
1.090029883e+00,9.92457e-01,9.99999e-01,9.93617e-01,9.98871e-01,9.99960e-01
1.095480033e+00,9.81524e-01,9.99999e-01,9.82680e-01,9.98893e-01,9.99928e-01
1.100957433e+00,9.55288e-01,9.99999e-01,9.56450e-01,9.98915e-01,9.99869e-01
1.106462220e+00,8.91007e-01,9.99999e-01,8.92152e-01,9.98936e-01,9.99778e-01
1.111994531e+00,7.83207e-01,9.99999e-01,7.84483e-01,9.98957e-01,9.99413e-01
1.117554504e+00,6.70755e-01,9.99999e-01,6.72864e-01,9.98978e-01,9.97884e-01
1.123142276e+00,7.36707e-01,9.99999e-01,7.41157e-01,9.98998e-01,9.94991e-01
1.128757988e+00,8.23346e-01,9.99999e-01,8.28956e-01,9.99018e-01,9.94208e-01
1.134401778e+00,6.22565e-01,9.99999e-01,6.26249e-01,9.99037e-01,9.95073e-01
1.140073787e+00,8.91677e-01,9.99999e-01,8.96048e-01,9.99056e-01,9.96061e-01
1.145774156e+00,7.88537e-01,9.99999e-01,7.92123e-01,9.99075e-01,9.96394e-01
1.151503026e+00,7.67341e-01,9.99999e-01,7.69583e-01,9.99093e-01,9.97989e-01
1.157260541e+00,8.06890e-01,9.99999e-01,8.08093e-01,9.99111e-01,9.99398e-01
1.163046844e+00,8.53802e-01,9.99999e-01,8.54692e-01,9.99128e-01,9.99829e-01
1.168862078e+00,8.96626e-01,9.99999e-01,8.97471e-01,9.99146e-01,9.99911e-01
1.174706389e+00,9.34570e-01,9.99999e-01,9.35462e-01,9.99162e-01,9.99883e-01
1.180579921e+00,9.59279e-01,9.99999e-01,9.60235e-01,9.99179e-01,9.99823e-01
1.186482820e+00,9.76424e-01,9.99999e-01,9.77387e-01,9.99195e-01,9.99818e-01
1.192415234e+00,9.85849e-01,9.99999e-01,9.86760e-01,9.99211e-01,9.99864e-01
1.198377311e+00,9.87949e-01,9.99999e-01,9.88839e-01,9.99226e-01,9.99871e-01
1.204369197e+00,9.88557e-01,9.99999e-01,9.89421e-01,9.99242e-01,9.99883e-01
1.210391043e+00,9.89081e-01,9.99999e-01,9.89886e-01,9.99257e-01,9.99929e-01
1.216442998e+00,9.90616e-01,9.99999e-01,9.91380e-01,9.99271e-01,9.99956e-01
1.222525213e+00,9.92555e-01,9.99999e-01,9.93290e-01,9.99286e-01,9.99972e-01
1.228637839e+00,9.94631e-01,9.99999e-01,9.95339e-01,9.99300e-01,9.99987e-01
1.234781029e+00,9.95848e-01,9.99999e-01,9.96535e-01,9.99314e-01,9.99995e-01
1.240954934e+00,9.97138e-01,9.99999e-01,9.97809e-01,9.99327e-01,9.99998e-01
1.247159708e+00,9.97635e-01,9.99999e-01,9.98293e-01,9.99340e-01,9.99998e-01
1.253395507e+00,9.97840e-01,9.99999e-01,9.98486e-01,9.99353e-01,9.99998e-01
1.259662485e+00,9.97930e-01,9.99999e-01,9.98563e-01,9.99366e-01,9.99998e-01
1.265960797e+00,9.97081e-01,9.99999e-01,9.97702e-01,9.99379e-01,9.99997e-01
1.272290601e+00,9.96013e-01,9.99999e-01,9.96623e-01,9.99391e-01,9.99995e-01
1.278652054e+00,9.92266e-01,9.99999e-01,9.92865e-01,9.99403e-01,9.99992e-01
1.285045314e+00,9.88191e-01,9.99999e-01,9.88782e-01,9.99415e-01,9.99986e-01
1.291470541e+00,9.76966e-01,9.99999e-01,9.77549e-01,9.99426e-01,9.99976e-01
1.297927893e+00,9.70154e-01,9.99999e-01,9.70740e-01,9.99438e-01,9.99957e-01
1.304417533e+00,9.61783e-01,9.99999e-01,9.62399e-01,9.99449e-01,9.99909e-01
1.310939621e+00,9.56445e-01,9.99999e-01,9.57138e-01,9.99459e-01,9.99814e-01
1.317494319e+00,9.52599e-01,9.99999e-01,9.53428e-01,9.99470e-01,9.99657e-01
1.324081790e+00,9.29917e-01,9.99999e-01,9.30918e-01,9.99481e-01,9.99441e-01
1.330702199e+00,7.26529e-01,9.99999e-01,7.27598e-01,9.99491e-01,9.99037e-01
1.337355710e+00,4.59917e-01,9.99999e-01,4.61000e-01,9.99501e-01,9.98147e-01
1.344042489e+00,1.12119e-01,9.99999e-01,1.12802e-01,9.99511e-01,9.94432e-01
1.350762701e+00,1.38941e-02,9.99999e-01,1.41690e-02,9.99520e-01,9.81068e-01
1.357516515e+00,3.76069e-03,9.99999e-01,3.97953e-03,9.99530e-01,9.45452e-01
1.364304097e+00,1.91811e-02,9.99999e-01,2.11722e-02,9.99539e-01,9.06372e-01
1.371125618e+00,7.20185e-02,9.99999e-01,7.90480e-02,9.99548e-01,9.11483e-01
1.377981246e+00,1.04356e-01,9.99999e-01,1.13035e-01,9.99557e-01,9.23627e-01
1.384871152e+00,1.63852e-02,9.99999e-01,1.76659e-02,9.99566e-01,9.27902e-01
1.391795508e+00,2.63740e-02,9.99999e-01,2.83219e-02,9.99574e-01,9.31617e-01
1.398754485e+00,3.98191e-02,9.99999e-01,4.22267e-02,9.99583e-01,9.43375e-01
1.405748258e+00,3.99540e-02,9.99999e-01,4.13558e-02,9.99591e-01,9.66497e-01
1.412776999e+00,4.65914e-02,9.99999e-01,4.73408e-02,9.99599e-01,9.84561e-01
1.419840884e+00,5.53226e-02,9.99999e-01,5.57232e-02,9.99607e-01,9.93200e-01
1.426940089e+00,1.07568e-01,9.99999e-01,1.08168e-01,9.99615e-01,9.94830e-01
1.434074789e+00,1.78757e-01,9.99999e-01,1.79922e-01,9.99622e-01,9.93902e-01
1.441245163e+00,2.88122e-01,9.99999e-01,2.90144e-01,9.99630e-01,9.93397e-01
1.448451389e+00,4.06585e-01,9.99999e-01,4.09098e-01,9.99637e-01,9.94216e-01
1.455693646e+00,5.64638e-01,9.99999e-01,5.67394e-01,9.99644e-01,9.95496e-01
1.462972114e+00,6.15880e-01,9.99999e-01,6.18752e-01,9.99651e-01,9.95704e-01
1.470286975e+00,5.66545e-01,9.99999e-01,5.69141e-01,9.99658e-01,9.95777e-01
