#,Wave/freq,Total,N2,H2O,Rayleigh,CIA
4.000000000e-01,3.69065e-01,9.99999e-01,9.99887e-01,3.69107e-01,9.99999e-01
4.020000000e-01,3.76427e-01,9.99999e-01,9.99930e-01,3.76453e-01,9.99999e-01
4.040100000e-01,3.83776e-01,9.99999e-01,9.99970e-01,3.83788e-01,9.99999e-01
4.060300500e-01,3.91114e-01,9.99999e-01,9.99992e-01,3.91117e-01,9.99999e-01
4.080602003e-01,3.98436e-01,9.99999e-01,9.99997e-01,3.98437e-01,9.99999e-01
4.101005013e-01,4.05745e-01,9.99999e-01,9.99999e-01,4.05745e-01,9.99999e-01
4.121510038e-01,4.13037e-01,9.99999e-01,9.99995e-01,4.13039e-01,9.99999e-01
4.142117588e-01,4.20303e-01,9.99999e-01,9.99968e-01,4.20316e-01,9.99999e-01
4.162828176e-01,4.27515e-01,9.99999e-01,9.99860e-01,4.27574e-01,9.99999e-01
4.183642317e-01,4.34775e-01,9.99999e-01,9.99916e-01,4.34810e-01,9.99999e-01
4.204560528e-01,4.42000e-01,9.99999e-01,9.99948e-01,4.42023e-01,9.99999e-01
4.225583331e-01,4.49200e-01,9.99999e-01,9.99980e-01,4.49208e-01,9.99999e-01
4.246711247e-01,4.56359e-01,9.99999e-01,9.99984e-01,4.56366e-01,9.99999e-01
4.267944804e-01,4.63482e-01,9.99999e-01,9.99977e-01,4.63492e-01,9.99999e-01
4.289284528e-01,4.70578e-01,9.99999e-01,9.99982e-01,4.70586e-01,9.99999e-01
4.310730950e-01,4.77641e-01,9.99999e-01,9.99992e-01,4.77645e-01,9.99999e-01
4.332284605e-01,4.84666e-01,9.99999e-01,9.99997e-01,4.84667e-01,9.99999e-01
4.353946028e-01,4.91650e-01,9.99999e-01,9.99998e-01,4.91651e-01,9.99999e-01
4.375715758e-01,4.98587e-01,9.99999e-01,9.99985e-01,4.98594e-01,9.99999e-01
4.397594337e-01,5.05433e-01,9.99999e-01,9.99876e-01,5.05496e-01,9.99999e-01
4.419582309e-01,5.12033e-01,9.99999e-01,9.99373e-01,5.12354e-01,9.99999e-01
4.441680220e-01,5.18916e-01,9.99999e-01,9.99516e-01,5.19166e-01,9.99999e-01
4.463888621e-01,5.25667e-01,9.99999e-01,9.99495e-01,5.25932e-01,9.99999e-01
4.486208064e-01,5.32484e-01,9.99999e-01,9.99687e-01,5.32650e-01,9.99999e-01
4.508639105e-01,5.39240e-01,9.99999e-01,9.99853e-01,5.39319e-01,9.99999e-01
4.531182300e-01,5.45905e-01,9.99999e-01,9.99941e-01,5.45937e-01,9.99999e-01
4.553838212e-01,5.52481e-01,9.99999e-01,9.99960e-01,5.52503e-01,9.99999e-01
4.576607403e-01,5.59005e-01,9.99999e-01,9.99981e-01,5.59016e-01,9.99999e-01
4.599490440e-01,5.65467e-01,9.99999e-01,9.99986e-01,5.65474e-01,9.99999e-01
4.622487892e-01,5.71877e-01,9.99999e-01,9.99997e-01,5.71878e-01,9.99999e-01
4.645600332e-01,5.78220e-01,9.99999e-01,9.99990e-01,5.78225e-01,9.99999e-01
4.668828333e-01,5.84429e-01,9.99999e-01,9.99850e-01,5.84516e-01,9.99999e-01
4.692172475e-01,5.90562e-01,9.99999e-01,9.99683e-01,5.90749e-01,9.99999e-01
4.715633337e-01,5.96799e-01,9.99999e-01,9.99792e-01,5.96923e-01,9.99999e-01
4.739211504e-01,6.02918e-01,9.99999e-01,9.99802e-01,6.03037e-01,9.99999e-01
4.762907561e-01,6.09030e-01,9.99999e-01,9.99897e-01,6.09092e-01,9.99999e-01
4.786722099e-01,6.15061e-01,9.99999e-01,9.99957e-01,6.15086e-01,9.99999e-01
4.810655710e-01,6.21011e-01,9.99999e-01,9.99986e-01,6.21019e-01,9.99999e-01
4.834708988e-01,6.26814e-01,9.99999e-01,9.99876e-01,6.26891e-01,9.99999e-01
4.858882533e-01,6.32558e-01,9.99999e-01,9.99776e-01,6.32700e-01,9.99999e-01
4.883176946e-01,6.38327e-01,9.99999e-01,9.99811e-01,6.38446e-01,9.99999e-01
4.907592831e-01,6.44021e-01,9.99999e-01,9.99830e-01,6.44130e-01,9.99999e-01
4.932130795e-01,6.49673e-01,9.99999e-01,9.99879e-01,6.49751e-01,9.99999e-01
4.956791449e-01,6.55267e-01,9.99999e-01,9.99936e-01,6.55308e-01,9.99999e-01
4.981575406e-01,6.60591e-01,9.99999e-01,9.99680e-01,6.60802e-01,9.99999e-01
5.006483283e-01,6.65676e-01,9.99999e-01,9.99170e-01,6.66232e-01,9.99993e-01
5.031515699e-01,6.68764e-01,9.99999e-01,9.95823e-01,6.71598e-01,9.99955e-01
5.056673278e-01,6.75375e-01,9.99999e-01,9.97797e-01,6.76900e-01,9.99949e-01
5.081956644e-01,6.80222e-01,9.99999e-01,9.97222e-01,6.82137e-01,9.99969e-01
5.107366428e-01,6.86019e-01,9.99999e-01,9.98124e-01,6.87311e-01,9.99994e-01
5.132903260e-01,6.91679e-01,9.99999e-01,9.98929e-01,6.92420e-01,9.99998e-01
5.158567776e-01,6.97151e-01,9.99999e-01,9.99547e-01,6.97466e-01,9.99999e-01
5.184360615e-01,7.02320e-01,9.99999e-01,9.99818e-01,7.02447e-01,9.99999e-01
5.210282418e-01,7.07317e-01,9.99999e-01,9.99931e-01,7.07365e-01,9.99999e-01
5.236333830e-01,7.12023e-01,9.99999e-01,9.99727e-01,7.12219e-01,9.99997e-01
5.262515499e-01,7.16885e-01,9.99999e-01,9.99829e-01,7.17009e-01,9.99996e-01
5.288828077e-01,7.21622e-01,9.99999e-01,9.99842e-01,7.21736e-01,9.99997e-01
5.315272217e-01,7.26300e-01,9.99999e-01,9.99862e-01,7.26400e-01,9.99999e-01
5.341848578e-01,7.30935e-01,9.99999e-01,9.99909e-01,7.31001e-01,9.99999e-01
5.368557821e-01,7.35305e-01,9.99999e-01,9.99681e-01,7.35539e-01,9.99998e-01
5.395400610e-01,7.39155e-01,9.99999e-01,9.98848e-01,7.40015e-01,9.99988e-01
5.422377613e-01,7.43310e-01,9.99999e-01,9.98523e-01,7.44429e-01,9.99972e-01
5.449489501e-01,7.47729e-01,9.99999e-01,9.98620e-01,7.48782e-01,9.99971e-01
5.476736949e-01,7.52148e-01,9.99999e-01,9.98784e-01,7.53073e-01,9.99985e-01
5.504120634e-01,7.56632e-01,9.99999e-01,9.99117e-01,7.57303e-01,9.99995e-01
5.531641237e-01,7.61135e-01,9.99999e-01,9.99555e-01,7.61473e-01,9.99998e-01
5.559299443e-01,7.65419e-01,9.99999e-01,9.99785e-01,7.65583e-01,9.99999e-01
5.587095940e-01,7.69529e-01,9.99999e-01,9.99864e-01,7.69633e-01,9.99999e-01
5.615031420e-01,7.73508e-01,9.99999e-01,9.99849e-01,7.73624e-01,9.99999e-01
5.643106577e-01,7.77422e-01,9.99999e-01,9.99828e-01,7.77556e-01,9.99998e-01
5.671322110e-01,7.79786e-01,9.99999e-01,9.97914e-01,7.81430e-01,9.99981e-01
5.699678720e-01,7.83486e-01,9.99999e-01,9.97814e-01,7.85246e-01,9.99943e-01
5.728177114e-01,7.87161e-01,9.99999e-01,9.97709e-01,7.89004e-01,9.99952e-01
5.756818000e-01,7.91021e-01,9.99999e-01,9.97900e-01,7.92706e-01,9.99972e-01
5.785602090e-01,7.94891e-01,9.99999e-01,9.98172e-01,7.96352e-01,9.99991e-01
5.814530100e-01,7.98469e-01,9.99999e-01,9.98161e-01,7.99942e-01,9.99995e-01
5.843602750e-01,8.01700e-01,9.99999e-01,9.97800e-01,8.03477e-01,9.99987e-01
5.872820764e-01,7.91720e-01,9.99999e-01,9.81247e-01,8.06957e-01,9.99866e-01
5.902184868e-01,7.91763e-01,9.99999e-01,9.77375e-01,8.10383e-01,9.99638e-01
5.931695792e-01,8.00430e-01,9.99999e-01,9.83966e-01,8.13755e-01,9.99651e-01
5.961354271e-01,8.02565e-01,9.99999e-01,9.82437e-01,8.17075e-01,9.99799e-01
5.991161043e-01,8.09761e-01,9.99999e-01,9.87162e-01,8.20342e-01,9.99937e-01
6.021116848e-01,8.17541e-01,9.99999e-01,9.92701e-01,8.23557e-01,9.99992e-01
6.051222432e-01,8.23663e-01,9.99999e-01,9.96301e-01,8.26721e-01,9.99999e-01
6.081478544e-01,8.28509e-01,9.99999e-01,9.98402e-01,8.29834e-01,9.99999e-01
6.111885937e-01,8.32335e-01,9.99999e-01,9.99324e-01,8.32897e-01,9.99999e-01
6.142445367e-01,8.35659e-01,9.99999e-01,9.99697e-01,8.35911e-01,9.99999e-01
6.173157594e-01,8.38736e-01,9.99999e-01,9.99833e-01,8.38875e-01,9.99999e-01
6.204023382e-01,8.41673e-01,9.99999e-01,9.99858e-01,8.41792e-01,9.99999e-01
6.235043498e-01,8.44129e-01,9.99999e-01,9.99372e-01,8.44660e-01,9.99997e-01
6.266218716e-01,8.44674e-01,9.99999e-01,9.96709e-01,8.47481e-01,9.99976e-01
6.297549810e-01,8.49190e-01,9.99999e-01,9.98792e-01,8.50256e-01,9.99953e-01
6.329037559e-01,8.50922e-01,9.99999e-01,9.97617e-01,8.52985e-01,9.99962e-01
6.360682746e-01,8.53910e-01,9.99999e-01,9.97965e-01,8.55668e-01,9.99977e-01
6.392486160e-01,8.56040e-01,9.99999e-01,9.97367e-01,8.58307e-01,9.99989e-01
6.424448591e-01,8.57841e-01,9.99999e-01,9.96462e-01,8.60901e-01,9.99982e-01
6.456570834e-01,8.49290e-01,9.99999e-01,9.83695e-01,8.63452e-01,9.99900e-01
6.488853688e-01,8.55451e-01,9.99999e-01,9.88115e-01,8.65959e-01,9.99745e-01
6.521297956e-01,8.57734e-01,9.99999e-01,9.87896e-01,8.68425e-01,9.99790e-01
6.553904446e-01,8.60174e-01,9.99999e-01,9.87896e-01,8.70848e-01,9.99843e-01
6.586673968e-01,8.64154e-01,9.99999e-01,9.89657e-01,8.73230e-01,9.99947e-01
6.619607338e-01,8.70502e-01,9.99999e-01,9.94221e-01,8.75571e-01,9.99988e-01
6.652705375e-01,8.74820e-01,9.99999e-01,9.96527e-01,8.77872e-01,9.99993e-01
6.685968902e-01,8.78834e-01,9.99999e-01,9.98523e-01,8.80134e-01,9.99998e-01
6.719398746e-01,8.81697e-01,9.99999e-01,9.99252e-01,8.82356e-01,9.99999e-01
6.752995740e-01,8.84181e-01,9.99999e-01,9.99593e-01,8.84540e-01,9.99999e-01
6.786760719e-01,8.86164e-01,9.99999e-01,9.99411e-01,8.86686e-01,9.99998e-01
6.820694522e-01,8.87898e-01,9.99999e-01,9.98994e-01,8.88795e-01,9.99994e-01
6.854797995e-01,8.89703e-01,9.99999e-01,9.98703e-01,8.90867e-01,9.99988e-01
6.889071985e-01,8.90058e-01,9.99999e-01,9.96840e-01,8.92903e-01,9.99971e-01
6.923517345e-01,8.49967e-01,9.99999e-01,9.50019e-01,8.94903e-01,9.99754e-01
6.958134932e-01,8.73092e-01,9.99999e-01,9.74018e-01,8.96868e-01,9.99456e-01
6.992925606e-01,8.75853e-01,9.99999e-01,9.74946e-01,8.98798e-01,9.99510e-01
7.027890234e-01,8.72702e-01,9.99999e-01,9.69282e-01,9.00695e-01,9.99625e-01
7.063029686e-01,8.78992e-01,9.99999e-01,9.74070e-01,9.02557e-01,9.99813e-01
7.098344834e-01,8.81771e-01,9.99999e-01,9.75099e-01,9.04387e-01,9.99889e-01
7.133836558e-01,8.75957e-01,9.99999e-01,9.66853e-01,9.06184e-01,9.99781e-01
7.169505741e-01,6.96116e-01,9.99999e-01,7.68009e-01,9.07949e-01,9.98280e-01
7.205353270e-01,7.97144e-01,9.99999e-01,8.78951e-01,9.09682e-01,9.96968e-01
7.241380036e-01,7.70102e-01,9.99999e-01,8.47197e-01,9.11385e-01,9.97382e-01
7.277586936e-01,7.84623e-01,9.99999e-01,8.61178e-01,9.13057e-01,9.97859e-01
7.313974871e-01,7.79149e-01,9.99999e-01,8.52664e-01,9.14699e-01,9.98996e-01
7.350544745e-01,8.39272e-01,9.99999e-01,9.16244e-01,9.16311e-01,9.99650e-01
7.387297469e-01,8.60378e-01,9.99999e-01,9.37488e-01,9.17894e-01,9.99839e-01
7.424233956e-01,8.90831e-01,9.99999e-01,9.68900e-01,9.19449e-01,9.99971e-01
7.461355126e-01,9.03487e-01,9.99999e-01,9.81014e-01,9.20975e-01,9.99994e-01
7.498661902e-01,9.14289e-01,9.99999e-01,9.91128e-01,9.22474e-01,9.99997e-01
7.536155211e-01,9.19909e-01,9.99999e-01,9.95631e-01,9.23946e-01,9.99998e-01
7.573835987e-01,9.23308e-01,9.99999e-01,9.97749e-01,9.25390e-01,9.99999e-01
7.611705167e-01,9.25513e-01,9.99999e-01,9.98601e-01,9.26809e-01,9.99999e-01
7.649763693e-01,9.27387e-01,9.99999e-01,9.99122e-01,9.28201e-01,9.99999e-01
7.688012511e-01,9.29000e-01,9.99999e-01,9.99388e-01,9.29568e-01,9.99999e-01
7.726452574e-01,9.30442e-01,9.99999e-01,9.99496e-01,9.30910e-01,9.99999e-01
7.765084837e-01,9.31558e-01,9.99999e-01,9.99281e-01,9.32228e-01,9.99998e-01
7.803910261e-01,9.30621e-01,9.99999e-01,9.96896e-01,9.33521e-01,9.99996e-01
7.842929812e-01,9.24686e-01,9.99999e-01,9.89209e-01,9.34790e-01,9.99979e-01
7.882144461e-01,9.15291e-01,9.99999e-01,9.77985e-01,9.36036e-01,9.99847e-01
7.921555184e-01,9.25682e-01,9.99999e-01,9.87909e-01,9.37259e-01,9.99734e-01
7.961162960e-01,9.18151e-01,9.99999e-01,9.78605e-01,9.38459e-01,9.99747e-01
8.000968774e-01,9.16244e-01,9.99999e-01,9.75365e-01,9.39637e-01,9.99731e-01
8.040973618e-01,9.17418e-01,9.99999e-01,9.75352e-01,9.40794e-01,9.99794e-01
8.081178486e-01,8.90266e-01,9.99999e-01,9.45347e-01,9.41928e-01,9.99792e-01
8.121584379e-01,7.47794e-01,9.99999e-01,7.93581e-01,9.43042e-01,9.99214e-01
8.162192301e-01,7.17293e-01,9.99999e-01,7.61981e-01,9.44135e-01,9.97050e-01
8.203003262e-01,8.25073e-01,9.99999e-01,8.75924e-01,9.45208e-01,9.96547e-01
8.244018279e-01,7.88309e-01,9.99999e-01,8.35374e-01,9.46260e-01,9.97251e-01
8.285238370e-01,8.02022e-01,9.99999e-01,8.48477e-01,9.47293e-01,9.97840e-01
8.326664562e-01,8.03167e-01,9.99999e-01,8.47705e-01,9.48307e-01,9.99106e-01
8.368297885e-01,8.42617e-01,9.99999e-01,8.87797e-01,9.49302e-01,9.99795e-01
8.410139374e-01,8.85164e-01,9.99999e-01,9.31589e-01,9.50278e-01,9.99880e-01
8.452190071e-01,9.18649e-01,9.99999e-01,9.65810e-01,9.51236e-01,9.99928e-01
8.494451021e-01,9.33046e-01,9.99999e-01,9.79965e-01,9.52175e-01,9.99942e-01
8.536923276e-01,9.41749e-01,9.99999e-01,9.88126e-01,9.53098e-01,9.99964e-01
8.579607893e-01,9.46993e-01,9.99999e-01,9.92660e-01,9.54002e-01,9.99991e-01
8.622505932e-01,9.50437e-01,9.99999e-01,9.95337e-01,9.54890e-01,9.99998e-01
8.665618462e-01,9.52997e-01,9.99999e-01,9.97107e-01,9.55761e-01,9.99998e-01
8.708946554e-01,9.53443e-01,9.99999e-01,9.96685e-01,9.56616e-01,9.99997e-01
8.752491287e-01,9.53208e-01,9.99999e-01,9.95569e-01,9.57454e-01,9.99994e-01
8.796253743e-01,9.52379e-01,9.99999e-01,9.93859e-01,9.58277e-01,9.99985e-01
8.840235012e-01,9.52323e-01,9.99999e-01,9.92992e-01,9.59084e-01,9.99956e-01
8.884436187e-01,9.35411e-01,9.99999e-01,9.74630e-01,9.59875e-01,9.99878e-01
8.928858368e-01,7.37318e-01,9.99999e-01,7.68055e-01,9.60652e-01,9.99298e-01
8.973502660e-01,6.04395e-01,9.99999e-01,6.30914e-01,9.61414e-01,9.96413e-01
9.018370173e-01,7.57047e-01,9.99999e-01,7.91275e-01,9.62162e-01,9.94366e-01
9.063462024e-01,7.77202e-01,9.99999e-01,8.11166e-01,9.62895e-01,9.95049e-01
9.108779334e-01,6.92741e-01,9.99999e-01,7.22614e-01,9.63614e-01,9.94856e-01
9.154323231e-01,6.62492e-01,9.99999e-01,6.89937e-01,9.64320e-01,9.95746e-01
9.200094847e-01,7.21423e-01,9.99999e-01,7.49363e-01,9.65012e-01,9.97617e-01
9.246095321e-01,6.25958e-01,9.99999e-01,6.49979e-01,9.65691e-01,9.97255e-01
9.292325798e-01,7.84460e-02,9.99999e-01,8.20516e-02,9.66358e-01,9.89338e-01
9.338787427e-01,3.31431e-02,9.99999e-01,3.58265e-02,9.67011e-01,9.56657e-01
9.385481364e-01,2.35573e-01,9.99999e-01,2.56621e-01,9.67652e-01,9.48664e-01
9.432408771e-01,1.52836e-01,9.99999e-01,1.65185e-01,9.68281e-01,9.55552e-01
9.479570815e-01,7.28356e-02,9.99999e-01,7.80073e-02,9.68897e-01,9.63673e-01
9.526968669e-01,1.29343e-01,9.99999e-01,1.36457e-01,9.69502e-01,9.77683e-01
9.574603512e-01,1.42172e-01,9.99999e-01,1.48244e-01,9.70095e-01,9.88600e-01
9.622476530e-01,1.95947e-01,9.99999e-01,2.03473e-01,9.70677e-01,9.92103e-01
9.670588912e-01,3.79385e-01,9.99999e-01,3.92738e-01,9.71248e-01,9.94592e-01
9.718941857e-01,5.23784e-01,9.99999e-01,5.41133e-01,9.71808e-01,9.96016e-01
9.767536566e-01,5.81351e-01,9.99999e-01,5.99704e-01,9.72357e-01,9.96954e-01
9.816374249e-01,6.63164e-01,9.99999e-01,6.82359e-01,9.72896e-01,9.98944e-01
9.865456120e-01,7.65402e-01,9.99999e-01,7.86471e-01,9.73424e-01,9.99779e-01
9.914783401e-01,8.38915e-01,9.99999e-01,8.61412e-01,9.73942e-01,9.99938e-01
9.964357318e-01,8.98356e-01,9.99999e-01,9.21942e-01,9.74450e-01,9.99963e-01
1.001417910e+00,9.28502e-01,9.99999e-01,9.52411e-01,9.74948e-01,9.99945e-01
1.006425000e+00,9.48580e-01,9.99999e-01,9.72541e-01,9.75437e-01,9.99921e-01
1.011457125e+00,9.59154e-01,9.99999e-01,9.82894e-01,9.75916e-01,9.99927e-01
1.016514411e+00,9.64958e-01,9.99999e-01,9.88345e-01,9.76386e-01,9.99948e-01
1.021596983e+00,9.67713e-01,9.99999e-01,9.90698e-01,9.76847e-01,9.99949e-01
1.026704968e+00,9.70171e-01,9.99999e-01,9.92736e-01,9.77299e-01,9.99968e-01
1.031838492e+00,9.72574e-01,9.99999e-01,9.94722e-01,9.77743e-01,9.99990e-01
1.036997685e+00,9.75104e-01,9.99999e-01,9.96858e-01,9.78177e-01,9.99998e-01
1.042182673e+00,9.74932e-01,9.99999e-01,9.96248e-01,9.78604e-01,9.99998e-01
1.047393587e+00,9.74158e-01,9.99999e-01,9.95032e-01,9.79022e-01,9.99998e-01
1.052630555e+00,9.72755e-01,9.99999e-01,9.93184e-01,9.79432e-01,9.99997e-01
1.057893707e+00,9.68699e-01,9.99999e-01,9.88639e-01,9.79834e-01,9.99995e-01
1.063183176e+00,9.61979e-01,9.99999e-01,9.81391e-01,9.80228e-01,9.99989e-01
1.068499092e+00,9.50268e-01,9.99999e-01,9.69072e-01,9.80615e-01,9.99978e-01
1.073841587e+00,9.45574e-01,9.99999e-01,9.63938e-01,9.80994e-01,9.99953e-01
1.079210795e+00,9.36149e-01,9.99999e-01,9.54043e-01,9.81366e-01,9.99874e-01
1.084606849e+00,9.14027e-01,9.99999e-01,9.31317e-01,9.81731e-01,9.99697e-01
1.090029883e+00,8.86191e-01,9.99999e-01,9.02918e-01,9.82088e-01,9.99373e-01
1.095480033e+00,7.43608e-01,9.99999e-01,7.57757e-01,9.82439e-01,9.98868e-01
1.100957433e+00,4.91781e-01,9.99999e-01,5.01439e-01,9.82783e-01,9.97918e-01
1.106462220e+00,1.89311e-01,9.99999e-01,1.93243e-01,9.83120e-01,9.96471e-01
1.111994531e+00,3.48129e-02,9.99999e-01,3.57324e-02,9.83451e-01,9.90660e-01
1.117554504e+00,5.82852e-03,9.99999e-01,6.12880e-03,9.83775e-01,9.66688e-01
1.123142276e+00,3.01745e-02,9.99999e-01,3.32273e-02,9.84093e-01,9.22802e-01
1.128757988e+00,7.49112e-02,9.99999e-01,8.35095e-02,9.84405e-01,9.11247e-01
1.134401778e+00,3.60682e-02,9.99999e-01,3.96402e-02,9.84710e-01,9.24014e-01
1.140073787e+00,1.90255e-01,9.99999e-01,2.05739e-01,9.85010e-01,9.38810e-01
1.145774156e+00,4.89788e-02,9.99999e-01,5.26669e-02,9.85304e-01,9.43841e-01
1.151503026e+00,3.56211e-02,9.99999e-01,3.73244e-02,9.85592e-01,9.68314e-01
1.157260541e+00,4.67696e-02,9.99999e-01,4.78986e-02,9.85875e-01,9.90418e-01
1.163046844e+00,1.01746e-01,9.99999e-01,1.03457e-01,9.86152e-01,9.97274e-01
1.168862078e+00,1.89707e-01,9.99999e-01,1.92588e-01,9.86423e-01,9.98595e-01
1.174706389e+00,3.53447e-01,9.99999e-01,3.58882e-01,9.86690e-01,9.98138e-01
1.180579921e+00,5.23847e-01,9.99999e-01,5.32270e-01,9.86951e-01,9.97186e-01
1.186482820e+00,6.85751e-01,9.99999e-01,6.96648e-01,9.87207e-01,9.97111e-01
1.192415234e+00,7.96932e-01,9.99999e-01,8.08803e-01,9.87458e-01,9.97836e-01
1.198377311e+00,8.24265e-01,9.99999e-01,8.36234e-01,9.87704e-01,9.97956e-01
1.204369197e+00,8.33472e-01,9.99999e-01,8.45204e-01,9.87946e-01,9.98150e-01
1.210391043e+00,8.39951e-01,9.99999e-01,8.50953e-01,9.88182e-01,9.98874e-01
1.216442998e+00,8.61153e-01,9.99999e-01,8.71847e-01,9.88414e-01,9.99310e-01
1.222525213e+00,8.87789e-01,9.99999e-01,8.98373e-01,9.88642e-01,9.99571e-01
1.228637839e+00,9.17683e-01,9.99999e-01,9.28200e-01,9.88865e-01,9.99800e-01
1.234781029e+00,9.35842e-01,9.99999e-01,9.46223e-01,9.89084e-01,9.99942e-01
1.240954934e+00,9.55277e-01,9.99999e-01,9.65626e-01,9.89298e-01,9.99983e-01
1.247159708e+00,9.62910e-01,9.99999e-01,9.73129e-01,9.89508e-01,9.99989e-01
1.253395507e+00,9.66037e-01,9.99999e-01,9.76089e-01,9.89714e-01,9.99986e-01
1.259662485e+00,9.67371e-01,9.99999e-01,9.77245e-01,9.89917e-01,9.99978e-01
1.265960797e+00,9.54389e-01,9.99999e-01,9.63951e-01,9.90115e-01,9.99964e-01
1.272290601e+00,9.34707e-01,9.99999e-01,9.43912e-01,9.90309e-01,9.99936e-01
1.278652054e+00,8.83471e-01,9.99999e-01,8.92043e-01,9.90499e-01,9.99888e-01
1.285045314e+00,8.06012e-01,9.99999e-01,8.13757e-01,9.90686e-01,9.99792e-01
1.291470541e+00,6.92312e-01,9.99999e-01,6.98945e-01,9.90869e-01,9.99635e-01
1.297927893e+00,5.97437e-01,9.99999e-01,6.03242e-01,9.91049e-01,9.99320e-01
1.304417533e+00,5.48933e-01,9.99999e-01,5.54590e-01,9.91225e-01,9.98560e-01
1.310939621e+00,4.69996e-01,9.99999e-01,4.75477e-01,9.91397e-01,9.97047e-01
1.317494319e+00,4.76604e-01,9.99999e-01,4.83293e-01,9.91567e-01,9.94544e-01
1.324081790e+00,3.40197e-01,9.99999e-01,3.46110e-01,9.91733e-01,9.91108e-01
1.330702199e+00,6.27837e-02,9.99999e-01,6.42789e-02,9.91895e-01,9.84718e-01
1.337355710e+00,1.21914e-04,9.99999e-01,1.26589e-04,9.92055e-01,9.70778e-01
1.344042489e+00,7.30449e-07,9.99999e-01,8.04970e-07,9.92211e-01,9.14545e-01
1.350762701e+00,5.41803e-21,9.99999e-01,7.41299e-21,9.92364e-01,7.36506e-01
1.357516515e+00,1.35878e-31,9.99999e-01,3.35908e-31,9.92514e-01,4.07560e-01
1.364304097e+00,1.00951e-19,9.99999e-01,4.90317e-19,9.92662e-01,2.07410e-01
1.371125618e+00,3.14098e-12,9.99999e-01,1.39409e-11,9.92806e-01,2.26938e-01
1.377981246e+00,1.17449e-11,9.99999e-01,4.21730e-11,9.92948e-01,2.80471e-01
1.384871152e+00,2.42278e-16,9.99999e-01,7.97617e-16,9.93086e-01,3.05866e-01
1.391795508e+00,8.21444e-20,9.99999e-01,2.55818e-19,9.93223e-01,3.23295e-01
1.398754485e+00,2.83143e-15,9.99999e-01,7.24420e-15,9.93356e-01,3.93468e-01
1.405748258e+00,4.45196e-15,9.99999e-01,7.73040e-15,9.93487e-01,5.79677e-01
1.412776999e+00,1.32666e-14,9.99999e-01,1.71262e-14,9.93615e-01,7.79610e-01
1.419840884e+00,2.32457e-14,9.99998e-01,2.60902e-14,9.93741e-01,8.96585e-01
1.426940089e+00,9.89211e-10,9.99998e-01,1.08138e-09,9.93864e-01,9.20412e-01
1.434074789e+00,1.51525e-08,9.99998e-01,1.68114e-08,9.93985e-01,9.06772e-01
1.441245163e+00,3.89315e-07,9.99999e-01,4.35416e-07,9.94103e-01,8.99423e-01
1.448451389e+00,5.12024e-05,9.99998e-01,5.65087e-05,9.94219e-01,9.11363e-01
1.455693646e+00,1.20135e-03,9.99998e-01,1.29868e-03,9.94333e-01,9.30327e-01
1.462972114e+00,1.73634e-03,9.99999e-01,1.87053e-03,9.94445e-01,9.33441e-01
1.470286975e+00,7.21867e-04,9.99999e-01,7.76661e-04,9.94554e-01,9.34537e-01
