#,Wave/freq,Total,N2,H2O,Rayleigh,CIA
4.000000000e-01,1.14574e-01,9.99999e-01,9.99755e-01,1.14601e-01,9.99999e-01
4.020000000e-01,1.19599e-01,9.99999e-01,9.99848e-01,1.19617e-01,9.99999e-01
4.040100000e-01,1.24733e-01,9.99999e-01,9.99935e-01,1.24741e-01,9.99999e-01
4.060300500e-01,1.29975e-01,9.99999e-01,9.99984e-01,1.29976e-01,9.99999e-01
4.080602003e-01,1.35321e-01,9.99999e-01,9.99994e-01,1.35322e-01,9.99999e-01
4.101005013e-01,1.40775e-01,9.99999e-01,9.99999e-01,1.40775e-01,9.99999e-01
4.121510038e-01,1.46332e-01,9.99999e-01,9.99990e-01,1.46334e-01,9.99999e-01
4.142117588e-01,1.51985e-01,9.99999e-01,9.99932e-01,1.51996e-01,9.99999e-01
4.162828176e-01,1.57710e-01,9.99999e-01,9.99697e-01,1.57758e-01,9.99999e-01
4.183642317e-01,1.63589e-01,9.99999e-01,9.99819e-01,1.63619e-01,9.99999e-01
4.204560528e-01,1.69556e-01,9.99999e-01,9.99889e-01,1.69575e-01,9.99999e-01
4.225583331e-01,1.75617e-01,9.99999e-01,9.99958e-01,1.75624e-01,9.99999e-01
4.246711247e-01,1.81757e-01,9.99999e-01,9.99966e-01,1.81763e-01,9.99999e-01
4.267944804e-01,1.87980e-01,9.99999e-01,9.99951e-01,1.87989e-01,9.99999e-01
4.289284528e-01,1.94291e-01,9.99999e-01,9.99962e-01,1.94299e-01,9.99999e-01
4.310730950e-01,2.00686e-01,9.99999e-01,9.99983e-01,2.00689e-01,9.99999e-01
4.332284605e-01,2.07157e-01,9.99999e-01,9.99995e-01,2.07158e-01,9.99999e-01
4.353946028e-01,2.13700e-01,9.99999e-01,9.99997e-01,2.13701e-01,9.99999e-01
4.375715758e-01,2.20308e-01,9.99999e-01,9.99969e-01,2.20315e-01,9.99999e-01
4.397594337e-01,2.26937e-01,9.99999e-01,9.99734e-01,2.26997e-01,9.99999e-01
4.419582309e-01,2.33429e-01,9.99999e-01,9.98650e-01,2.33744e-01,9.99999e-01
4.441680220e-01,2.40299e-01,9.99999e-01,9.98946e-01,2.40552e-01,9.99999e-01
4.463888621e-01,2.47147e-01,9.99999e-01,9.98903e-01,2.47418e-01,9.99999e-01
4.486208064e-01,2.54166e-01,9.99999e-01,9.99318e-01,2.54339e-01,9.99999e-01
4.508639105e-01,2.61228e-01,9.99999e-01,9.99681e-01,2.61311e-01,9.99999e-01
4.531182300e-01,2.68297e-01,9.99999e-01,9.99873e-01,2.68331e-01,9.99999e-01
4.553838212e-01,2.75371e-01,9.99999e-01,9.99914e-01,2.75395e-01,9.99999e-01
4.576607403e-01,2.82488e-01,9.99999e-01,9.99960e-01,2.82500e-01,9.99999e-01
4.599490440e-01,2.89634e-01,9.99999e-01,9.99971e-01,2.89642e-01,9.99999e-01
4.622487892e-01,2.96817e-01,9.99999e-01,9.99994e-01,2.96819e-01,9.99999e-01
4.645600332e-01,3.04020e-01,9.99999e-01,9.99980e-01,3.04026e-01,9.99999e-01
4.668828333e-01,3.11161e-01,9.99999e-01,9.99677e-01,3.11261e-01,9.99999e-01
4.692172475e-01,3.18301e-01,9.99999e-01,9.99312e-01,3.18520e-01,9.99999e-01
4.715633337e-01,3.25653e-01,9.99999e-01,9.99550e-01,3.25800e-01,9.99999e-01
4.739211504e-01,3.32954e-01,9.99999e-01,9.99569e-01,3.33097e-01,9.99999e-01
4.762907561e-01,3.40334e-01,9.99999e-01,9.99776e-01,3.40409e-01,9.99999e-01
4.786722099e-01,3.47701e-01,9.99999e-01,9.99908e-01,3.47733e-01,9.99999e-01
4.810655710e-01,3.55055e-01,9.99999e-01,9.99972e-01,3.55064e-01,9.99999e-01
4.834708988e-01,3.62306e-01,9.99999e-01,9.99736e-01,3.62401e-01,9.99999e-01
4.858882533e-01,3.69560e-01,9.99999e-01,9.99512e-01,3.69740e-01,9.99999e-01
4.883176946e-01,3.76925e-01,9.99999e-01,9.99592e-01,3.77079e-01,9.99999e-01
4.907592831e-01,3.84272e-01,9.99999e-01,9.99631e-01,3.84413e-01,9.99999e-01
4.932130795e-01,3.91639e-01,9.99999e-01,9.99738e-01,3.91742e-01,9.99999e-01
4.956791449e-01,3.99006e-01,9.99999e-01,9.99861e-01,3.99061e-01,9.99999e-01
4.981575406e-01,4.06087e-01,9.99999e-01,9.99308e-01,4.06368e-01,9.99999e-01
5.006483283e-01,4.12915e-01,9.99999e-01,9.98209e-01,4.13661e-01,9.99987e-01
5.031515699e-01,4.17094e-01,9.99999e-01,9.90966e-01,4.20936e-01,9.99904e-01
5.056673278e-01,4.26099e-01,9.99999e-01,9.95217e-01,4.28193e-01,9.99890e-01
5.081956644e-01,4.32771e-01,9.99999e-01,9.93969e-01,4.35427e-01,9.99929e-01
5.107366428e-01,4.40828e-01,9.99999e-01,9.95925e-01,4.42637e-01,9.99986e-01
5.132903260e-01,4.48772e-01,9.99999e-01,9.97670e-01,4.49820e-01,9.99998e-01
5.158567776e-01,4.56525e-01,9.99999e-01,9.99015e-01,4.56975e-01,9.99999e-01
5.184360615e-01,4.63916e-01,9.99999e-01,9.99605e-01,4.64099e-01,9.99999e-01
5.210282418e-01,4.71120e-01,9.99999e-01,9.99852e-01,4.71189e-01,9.99999e-01
5.236333830e-01,4.77960e-01,9.99999e-01,9.99408e-01,4.78245e-01,9.99995e-01
5.262515499e-01,4.85082e-01,9.99999e-01,9.99629e-01,4.85264e-01,9.99993e-01
5.288828077e-01,4.92076e-01,9.99999e-01,9.99659e-01,4.92245e-01,9.99995e-01
5.315272217e-01,4.99035e-01,9.99999e-01,9.99701e-01,4.99185e-01,9.99998e-01
5.341848578e-01,5.05984e-01,9.99999e-01,9.99804e-01,5.06082e-01,9.99999e-01
5.368557821e-01,5.12583e-01,9.99999e-01,9.99310e-01,5.12937e-01,9.99997e-01
5.395400610e-01,5.18443e-01,9.99999e-01,9.97514e-01,5.19745e-01,9.99979e-01
5.422377613e-01,5.24787e-01,9.99999e-01,9.96789e-01,5.26507e-01,9.99941e-01
5.449489501e-01,5.31596e-01,9.99999e-01,9.97012e-01,5.33221e-01,9.99939e-01
5.476736949e-01,5.38442e-01,9.99999e-01,9.97355e-01,5.39885e-01,9.99970e-01
5.504120634e-01,5.45446e-01,9.99999e-01,9.98080e-01,5.46499e-01,9.99991e-01
5.531641237e-01,5.52526e-01,9.99999e-01,9.99033e-01,5.53060e-01,9.99998e-01
5.559299443e-01,5.59308e-01,9.99999e-01,9.99533e-01,5.59569e-01,9.99999e-01
5.587095940e-01,5.65857e-01,9.99999e-01,9.99707e-01,5.66023e-01,9.99999e-01
5.615031420e-01,5.72235e-01,9.99999e-01,9.99674e-01,5.72422e-01,9.99998e-01
5.643106577e-01,5.78549e-01,9.99999e-01,9.99630e-01,5.78764e-01,9.99996e-01
5.671322110e-01,5.82408e-01,9.99999e-01,9.95522e-01,5.85050e-01,9.99959e-01
5.699678720e-01,5.88391e-01,9.99999e-01,9.95238e-01,5.91278e-01,9.99877e-01
5.728177114e-01,5.94421e-01,9.99999e-01,9.95035e-01,5.97447e-01,9.99898e-01
5.756818000e-01,6.00769e-01,9.99999e-01,9.95443e-01,6.03556e-01,9.99937e-01
5.785602090e-01,6.07174e-01,9.99999e-01,9.96029e-01,6.09606e-01,9.99980e-01
5.814530100e-01,6.13135e-01,9.99999e-01,9.96011e-01,6.15595e-01,9.99991e-01
5.843602750e-01,6.18553e-01,9.99999e-01,9.95248e-01,6.21523e-01,9.99973e-01
5.872820764e-01,6.02148e-01,9.99999e-01,9.60044e-01,6.27389e-01,9.99711e-01
5.902184868e-01,6.02009e-01,9.99999e-01,9.51498e-01,6.33192e-01,9.99215e-01
5.931695792e-01,6.16505e-01,9.99999e-01,9.65624e-01,6.38934e-01,9.99245e-01
5.961354271e-01,6.20028e-01,9.99999e-01,9.62278e-01,6.44612e-01,9.99565e-01
5.991161043e-01,6.32136e-01,9.99999e-01,9.72306e-01,6.50228e-01,9.99865e-01
6.021116848e-01,6.45404e-01,9.99999e-01,9.84191e-01,6.55780e-01,9.99984e-01
6.051222432e-01,6.55958e-01,9.99999e-01,9.91970e-01,6.61268e-01,9.99998e-01
6.081478544e-01,6.64378e-01,9.99999e-01,9.96529e-01,6.66692e-01,9.99999e-01
6.111885937e-01,6.71065e-01,9.99999e-01,9.98530e-01,6.72053e-01,9.99999e-01
6.142445367e-01,6.76904e-01,9.99999e-01,9.99343e-01,6.77349e-01,9.99999e-01
6.173157594e-01,6.82334e-01,9.99999e-01,9.99637e-01,6.82581e-01,9.99999e-01
6.204023382e-01,6.87538e-01,9.99999e-01,9.99693e-01,6.87749e-01,9.99999e-01
6.235043498e-01,6.91916e-01,9.99999e-01,9.98649e-01,6.92853e-01,9.99996e-01
6.266218716e-01,6.92883e-01,9.99999e-01,9.92870e-01,6.97893e-01,9.99949e-01
6.297549810e-01,7.00958e-01,9.99999e-01,9.97379e-01,7.02869e-01,9.99899e-01
6.329037559e-01,7.04062e-01,9.99999e-01,9.94824e-01,7.07781e-01,9.99919e-01
6.360682746e-01,7.09455e-01,9.99999e-01,9.95591e-01,7.12630e-01,9.99952e-01
6.392486160e-01,7.13304e-01,9.99999e-01,9.94290e-01,7.17415e-01,9.99978e-01
6.424448591e-01,7.16602e-01,9.99999e-01,9.92369e-01,7.22136e-01,9.99965e-01
6.456570834e-01,7.01315e-01,9.99999e-01,9.65131e-01,7.26795e-01,9.99803e-01
6.488853688e-01,7.12268e-01,9.99999e-01,9.74390e-01,7.31390e-01,9.99449e-01
6.521297956e-01,7.16426e-01,9.99999e-01,9.73948e-01,7.35923e-01,9.99545e-01
6.553904446e-01,7.20850e-01,9.99999e-01,9.73931e-01,7.40394e-01,9.99661e-01
6.586673968e-01,7.28093e-01,9.99999e-01,9.77673e-01,7.44803e-01,9.99886e-01
6.619607338e-01,7.39752e-01,9.99999e-01,9.87477e-01,7.49150e-01,9.99975e-01
6.652705375e-01,7.47749e-01,9.99999e-01,9.92463e-01,7.53436e-01,9.99987e-01
6.685968902e-01,7.55002e-01,9.99999e-01,9.96492e-01,7.57661e-01,9.99997e-01
6.719398746e-01,7.60588e-01,9.99999e-01,9.98374e-01,7.61826e-01,9.99999e-01
6.752995740e-01,7.65255e-01,9.99999e-01,9.99118e-01,7.65931e-01,9.99999e-01
6.786760719e-01,7.68994e-01,9.99999e-01,9.98726e-01,7.69976e-01,9.99997e-01
6.820694522e-01,7.72266e-01,9.99999e-01,9.97819e-01,7.73961e-01,9.99988e-01
6.854797995e-01,7.75683e-01,9.99999e-01,9.97188e-01,7.77889e-01,9.99975e-01
6.889071985e-01,7.76410e-01,9.99999e-01,9.93219e-01,7.81757e-01,9.99938e-01
6.923517345e-01,7.03222e-01,9.99999e-01,8.95652e-01,7.85569e-01,9.99467e-01
6.958134932e-01,7.44613e-01,9.99999e-01,9.44469e-01,7.89322e-01,9.98821e-01
6.992925606e-01,7.49971e-01,9.99999e-01,9.46719e-01,7.93020e-01,9.98937e-01
7.027890234e-01,7.43971e-01,9.99999e-01,9.34618e-01,7.96661e-01,9.99188e-01
7.063029686e-01,7.55594e-01,9.99999e-01,9.44582e-01,8.00246e-01,9.99596e-01
7.098344834e-01,7.60768e-01,9.99999e-01,9.46717e-01,8.03776e-01,9.99760e-01
7.133836558e-01,7.50566e-01,9.99999e-01,9.30220e-01,8.07251e-01,9.99525e-01
7.169505741e-01,4.67459e-01,9.99999e-01,5.78788e-01,8.10673e-01,9.96272e-01
7.205353270e-01,6.14695e-01,9.99999e-01,7.60107e-01,8.14041e-01,9.93432e-01
7.241380036e-01,5.72049e-01,9.99999e-01,7.03870e-01,8.17356e-01,9.94326e-01
7.277586936e-01,5.95291e-01,9.99999e-01,7.28798e-01,8.20618e-01,9.95359e-01
7.313974871e-01,5.84213e-01,9.99999e-01,7.10689e-01,8.23829e-01,9.97823e-01
7.350544745e-01,6.84476e-01,9.99999e-01,8.28299e-01,8.26988e-01,9.99243e-01
7.387297469e-01,7.21577e-01,9.99999e-01,8.69569e-01,8.30097e-01,9.99652e-01
7.424233956e-01,7.77816e-01,9.99999e-01,9.33639e-01,8.33156e-01,9.99932e-01
7.461355126e-01,8.02033e-01,9.99999e-01,9.59190e-01,8.36166e-01,9.99987e-01
7.498661902e-01,8.22994e-01,9.99999e-01,9.80779e-01,8.39126e-01,9.99995e-01
7.536155211e-01,8.34056e-01,9.99999e-01,9.90522e-01,8.42038e-01,9.99997e-01
7.573835987e-01,8.40772e-01,9.99999e-01,9.95110e-01,8.44903e-01,9.99998e-01
7.611705167e-01,8.45143e-01,9.99999e-01,9.96959e-01,8.47720e-01,9.99999e-01
7.649763693e-01,8.48869e-01,9.99999e-01,9.98093e-01,8.50491e-01,9.99999e-01
7.688012511e-01,8.52083e-01,9.99999e-01,9.98671e-01,8.53216e-01,9.99999e-01
7.726452574e-01,8.54960e-01,9.99999e-01,9.98907e-01,8.55895e-01,9.99998e-01
7.765084837e-01,8.57195e-01,9.99999e-01,9.98446e-01,8.58530e-01,9.99997e-01
7.803910261e-01,8.55349e-01,9.99999e-01,9.93304e-01,8.61120e-01,9.99993e-01
7.842929812e-01,8.43636e-01,9.99999e-01,9.76847e-01,8.63667e-01,9.99956e-01
7.882144461e-01,8.25089e-01,9.99999e-01,9.52850e-01,8.66171e-01,9.99704e-01
7.921555184e-01,8.45475e-01,9.99999e-01,9.73895e-01,8.68633e-01,9.99428e-01
7.961162960e-01,8.30858e-01,9.99999e-01,9.54376e-01,8.71053e-01,9.99452e-01
8.000968774e-01,8.26906e-01,9.99999e-01,9.47283e-01,8.73431e-01,9.99417e-01
8.040973618e-01,8.29265e-01,9.99999e-01,9.47336e-01,8.75769e-01,9.99537e-01
8.081178486e-01,7.78004e-01,9.99999e-01,8.86425e-01,8.78067e-01,9.99566e-01
8.121584379e-01,5.39903e-01,9.99999e-01,6.14345e-01,8.80325e-01,9.98296e-01
8.162192301e-01,4.94496e-01,9.99999e-01,5.63910e-01,8.82544e-01,9.93609e-01
8.203003262e-01,6.70270e-01,9.99999e-01,7.63310e-01,8.84725e-01,9.92521e-01
8.244018279e-01,6.13724e-01,9.99999e-01,6.96158e-01,8.86868e-01,9.94043e-01
8.285238370e-01,6.23572e-01,9.99999e-01,7.04750e-01,8.88973e-01,9.95319e-01
8.326664562e-01,6.25904e-01,9.99999e-01,7.03804e-01,8.91042e-01,9.98061e-01
8.368297885e-01,6.90755e-01,9.99999e-01,7.73799e-01,8.93075e-01,9.99556e-01
8.410139374e-01,7.67629e-01,9.99999e-01,8.57838e-01,8.95072e-01,9.99740e-01
8.452190071e-01,8.31619e-01,9.99999e-01,9.27219e-01,8.97034e-01,9.99844e-01
8.494451021e-01,8.60196e-01,9.99999e-01,9.56995e-01,8.98961e-01,9.99875e-01
8.536923276e-01,8.77678e-01,9.99999e-01,9.74345e-01,9.00855e-01,9.99924e-01
8.579607893e-01,8.88363e-01,9.99999e-01,9.84118e-01,9.02715e-01,9.99981e-01
8.622505932e-01,8.95387e-01,9.99999e-01,9.89881e-01,9.04541e-01,9.99996e-01
8.665618462e-01,9.00652e-01,9.99999e-01,9.93729e-01,9.06336e-01,9.99997e-01
8.708946554e-01,9.01577e-01,9.99999e-01,9.92822e-01,9.08098e-01,9.99995e-01
8.752491287e-01,9.01093e-01,9.99999e-01,9.90407e-01,9.09829e-01,9.99989e-01
8.796253743e-01,8.99417e-01,9.99999e-01,9.86741e-01,9.11529e-01,9.99969e-01
8.840235012e-01,8.99304e-01,9.99999e-01,9.84875e-01,9.13198e-01,9.99906e-01
8.884436187e-01,8.66050e-01,9.99999e-01,9.46919e-01,9.14837e-01,9.99736e-01
8.928858368e-01,5.29662e-01,9.99999e-01,5.78831e-01,9.16447e-01,9.98479e-01
8.973502660e-01,3.51468e-01,9.99999e-01,3.85848e-01,9.18028e-01,9.92231e-01
9.018370173e-01,5.58448e-01,9.99999e-01,6.14777e-01,9.19580e-01,9.87813e-01
9.063462024e-01,5.89919e-01,9.99999e-01,6.47382e-01,9.21104e-01,9.89286e-01
9.108779334e-01,4.64377e-01,9.99999e-01,5.08999e-01,9.22601e-01,9.88869e-01
9.154323231e-01,4.19906e-01,9.99999e-01,4.58632e-01,9.24070e-01,9.90791e-01
9.200094847e-01,5.04233e-01,9.99999e-01,5.47642e-01,9.25512e-01,9.94835e-01
9.246095321e-01,3.87061e-01,9.99999e-01,4.20072e-01,9.26929e-01,9.94051e-01
9.292325798e-01,1.59166e-02,9.99999e-01,1.75492e-02,9.28319e-01,9.77002e-01
9.338787427e-01,1.62968e-03,9.99999e-01,1.92991e-03,9.29684e-01,9.08298e-01
9.385481364e-01,6.43453e-02,9.99999e-01,7.74883e-02,9.31024e-01,8.91906e-01
9.432408771e-01,3.08492e-02,9.99999e-01,3.65199e-02,9.32339e-01,9.06023e-01
9.479570815e-01,5.86682e-03,9.99999e-01,6.80942e-03,9.33630e-01,9.22820e-01
9.526968669e-01,1.75856e-02,9.99999e-01,1.97546e-02,9.34897e-01,9.52190e-01
9.574603512e-01,2.18361e-02,9.99999e-01,2.39134e-02,9.36141e-01,9.75421e-01
9.622476530e-01,4.01863e-02,9.99999e-01,4.36157e-02,9.37362e-01,9.82939e-01
9.670588912e-01,1.44507e-01,9.99999e-01,1.55789e-01,9.38561e-01,9.88300e-01
9.718941857e-01,2.56645e-01,9.99999e-01,2.75478e-01,9.39737e-01,9.91374e-01
9.767536566e-01,3.19039e-01,9.99999e-01,3.41333e-01,9.40891e-01,9.93401e-01
9.816374249e-01,4.15844e-01,9.99999e-01,4.42448e-01,9.42024e-01,9.97711e-01
9.865456120e-01,5.62277e-01,9.99999e-01,5.96462e-01,9.43136e-01,9.99522e-01
9.914783401e-01,6.83653e-01,9.99999e-01,7.24130e-01,9.44227e-01,9.99867e-01
9.964357318e-01,7.92635e-01,9.99999e-01,8.38566e-01,9.45298e-01,9.99922e-01
1.001417910e+00,8.51199e-01,9.99999e-01,8.99561e-01,9.46349e-01,9.99881e-01
1.006425000e+00,8.91656e-01,9.99999e-01,9.41338e-01,9.47381e-01,9.99831e-01
1.011457125e+00,9.13334e-01,9.99999e-01,9.63183e-01,9.48393e-01,9.99843e-01
1.016514411e+00,9.25400e-01,9.99999e-01,9.74842e-01,9.49386e-01,9.99889e-01
1.021596983e+00,9.31156e-01,9.99999e-01,9.79900e-01,9.50360e-01,9.99888e-01
1.026704968e+00,9.36300e-01,9.99999e-01,9.84287e-01,9.51316e-01,9.99925e-01
1.031838492e+00,9.41341e-01,9.99999e-01,9.88558e-01,9.52255e-01,9.99979e-01
1.036997685e+00,9.46681e-01,9.99999e-01,9.93188e-01,9.53175e-01,9.99996e-01
1.042182673e+00,9.46334e-01,9.99999e-01,9.91883e-01,9.54079e-01,9.99998e-01
1.047393587e+00,9.44698e-01,9.99999e-01,9.89249e-01,9.54965e-01,9.99997e-01
1.052630555e+00,9.41760e-01,9.99999e-01,9.85278e-01,9.55835e-01,9.99995e-01
1.057893707e+00,9.33296e-01,9.99999e-01,9.75556e-01,9.56688e-01,9.99991e-01
1.063183176e+00,9.19348e-01,9.99999e-01,9.60149e-01,9.57525e-01,9.99978e-01
1.068499092e+00,8.95310e-01,9.99999e-01,9.34266e-01,9.58346e-01,9.99953e-01
1.073841587e+00,8.86061e-01,9.99999e-01,9.23889e-01,9.59152e-01,9.99899e-01
1.079210795e+00,8.66831e-01,9.99999e-01,9.03248e-01,9.59942e-01,9.99727e-01
1.084606849e+00,8.23615e-01,9.99999e-01,8.57853e-01,9.60718e-01,9.99344e-01
1.090029883e+00,7.72006e-01,9.99999e-01,8.04027e-01,9.61478e-01,9.98642e-01
1.095480033e+00,5.31614e-01,9.99999e-01,5.53842e-01,9.62225e-01,9.97545e-01
1.100957433e+00,2.29710e-01,9.99999e-01,2.39628e-01,9.62957e-01,9.95487e-01
1.106462220e+00,3.85911e-02,9.99999e-01,4.03541e-02,9.63675e-01,9.92356e-01
1.111994531e+00,1.38188e-03,9.99999e-01,1.46240e-03,9.64380e-01,9.79837e-01
1.117554504e+00,6.81441e-05,9.99999e-01,7.59987e-05,9.65071e-01,9.29100e-01
1.123142276e+00,1.57561e-03,9.99999e-01,1.94231e-03,9.65749e-01,8.39969e-01
1.128757988e+00,5.86757e-03,9.99999e-01,7.42865e-03,9.66414e-01,8.17306e-01
1.134401778e+00,4.17540e-03,9.99999e-01,5.12556e-03,9.67066e-01,8.42365e-01
1.140073787e+00,3.36716e-02,9.99999e-01,3.99065e-02,9.67706e-01,8.71918e-01
1.145774156e+00,3.84905e-03,9.99999e-01,4.50623e-03,9.68334e-01,8.82092e-01
1.151503026e+00,1.65122e-03,9.99999e-01,1.82749e-03,9.68949e-01,9.32495e-01
1.157260541e+00,1.97338e-03,9.99999e-01,2.07833e-03,9.69553e-01,9.79319e-01
1.163046844e+00,9.74902e-03,9.99999e-01,1.01087e-02,9.70146e-01,9.94094e-01
1.168862078e+00,3.31047e-02,9.99999e-01,3.42072e-02,9.70727e-01,9.96953e-01
1.174706389e+00,1.14056e-01,9.99999e-01,1.17902e-01,9.71296e-01,9.95963e-01
1.180579921e+00,2.55140e-01,9.99999e-01,2.64139e-01,9.71855e-01,9.93902e-01
1.186482820e+00,4.44519e-01,9.99999e-01,4.60013e-01,9.72403e-01,9.93742e-01
1.192415234e+00,6.12012e-01,9.99999e-01,6.31996e-01,9.72941e-01,9.95309e-01
1.198377311e+00,6.58827e-01,9.99999e-01,6.79794e-01,9.73468e-01,9.95569e-01
1.204369197e+00,6.76591e-01,9.99999e-01,6.97458e-01,9.73986e-01,9.95990e-01
1.210391043e+00,6.86741e-01,9.99999e-01,7.06439e-01,9.74493e-01,9.97559e-01
1.216442998e+00,7.24389e-01,9.99999e-01,7.44082e-01,9.74990e-01,9.98504e-01
1.222525213e+00,7.72798e-01,9.99999e-01,7.92961e-01,9.75478e-01,9.99070e-01
1.228637839e+00,8.30090e-01,9.99999e-01,8.50907e-01,9.75957e-01,9.99567e-01
1.234781029e+00,8.66058e-01,9.99999e-01,8.87076e-01,9.76426e-01,9.99876e-01
1.240954934e+00,9.05511e-01,9.99999e-01,9.26968e-01,9.76886e-01,9.99964e-01
1.247159708e+00,9.21200e-01,9.99999e-01,9.42581e-01,9.77337e-01,9.99977e-01
1.253395507e+00,9.27738e-01,9.99999e-01,9.48847e-01,9.77780e-01,9.99970e-01
1.259662485e+00,9.30569e-01,9.99999e-01,9.51337e-01,9.78214e-01,9.99953e-01
1.265960797e+00,9.03726e-01,9.99999e-01,9.23521e-01,9.78640e-01,9.99922e-01
1.272290601e+00,8.64207e-01,9.99999e-01,8.82812e-01,9.79057e-01,9.99863e-01
1.278652054e+00,7.66388e-01,9.99999e-01,7.82642e-01,9.79467e-01,9.99758e-01
1.285045314e+00,6.32043e-01,9.99999e-01,6.45319e-01,9.79868e-01,9.99549e-01
1.291470541e+00,4.58859e-01,9.99999e-01,4.68468e-01,9.80262e-01,9.99209e-01
1.297927893e+00,3.73554e-01,9.99999e-01,3.81488e-01,9.80648e-01,9.98525e-01
1.304417533e+00,2.86813e-01,9.99999e-01,2.93275e-01,9.81026e-01,9.96878e-01
1.310939621e+00,2.40523e-01,9.99999e-01,2.46660e-01,9.81398e-01,9.93601e-01
1.317494319e+00,2.16106e-01,9.99999e-01,2.22750e-01,9.81762e-01,9.88196e-01
1.324081790e+00,1.13685e-01,9.99999e-01,1.18021e-01,9.82119e-01,9.80800e-01
1.330702199e+00,1.17769e-02,9.99999e-01,1.23945e-02,9.82469e-01,9.67125e-01
1.337355710e+00,2.09750e-08,9.99999e-01,2.27609e-08,9.82812e-01,9.37652e-01
1.344042489e+00,2.89066e-12,9.99999e-01,3.56934e-12,9.83149e-01,8.23739e-01
1.350762701e+00,5.30768e-43,9.99999e-01,1.04822e-42,9.83479e-01,5.14855e-01
1.357516515e+00,5.57547e-66,9.99999e-01,3.97664e-65,9.83802e-01,1.42514e-01
1.364304097e+00,2.75219e-40,9.99999e-01,8.50279e-39,9.84120e-01,3.28904e-02
1.371125618e+00,6.15938e-24,9.99999e-01,1.56480e-22,9.84431e-01,3.99845e-02
1.377981246e+00,3.60034e-23,9.99999e-01,5.77393e-22,9.84736e-01,6.33216e-02
1.384871152e+00,7.47422e-33,9.99999e-01,9.92781e-32,9.85035e-01,7.64293e-02
1.391795508e+00,1.42473e-40,9.99999e-01,1.67743e-39,9.85329e-01,8.61996e-02
1.398754485e+00,1.39488e-30,9.99999e-01,1.07187e-29,9.85616e-01,1.32034e-01
1.405748258e+00,3.25042e-30,9.99999e-01,1.07684e-29,9.85898e-01,3.06166e-01
1.412776999e+00,4.46911e-29,9.99998e-01,7.77972e-29,9.86175e-01,5.82509e-01
1.419840884e+00,9.29562e-29,9.99997e-01,1.19430e-28,9.86446e-01,7.89027e-01
1.426940089e+00,1.71048e-18,9.99997e-01,2.07543e-18,9.86712e-01,8.35254e-01
1.434074789e+00,1.59585e-16,9.99997e-01,1.99960e-16,9.86973e-01,8.08618e-01
1.441245163e+00,1.47735e-13,9.99998e-01,1.88362e-13,9.87228e-01,7.94460e-01
1.448451389e+00,7.19705e-09,9.99996e-01,8.91501e-09,9.87479e-01,8.17531e-01
1.455693646e+00,2.91113e-06,9.99998e-01,3.44752e-06,9.87725e-01,8.54906e-01
1.462972114e+00,3.67739e-06,9.99998e-01,4.32243e-06,9.87966e-01,8.61131e-01
1.470286975e+00,9.62936e-07,9.99998e-01,1.12869e-06,9.88202e-01,8.63326e-01
