#,Wave/freq,Total,N2,H2O,Rayleigh,CIA
4.000000000e-01,8.44608e-01,9.99999e-01,9.99980e-01,8.44624e-01,9.99999e-01
4.020000000e-01,8.47439e-01,9.99999e-01,9.99987e-01,8.47449e-01,9.99999e-01
4.040100000e-01,8.50220e-01,9.99999e-01,9.99994e-01,8.50224e-01,9.99999e-01
4.060300500e-01,8.52952e-01,9.99999e-01,9.99998e-01,8.52953e-01,9.99999e-01
4.080602003e-01,8.55637e-01,9.99999e-01,9.99999e-01,8.55637e-01,9.99999e-01
4.101005013e-01,8.58276e-01,9.99999e-01,9.99999e-01,8.58276e-01,9.99999e-01
4.121510038e-01,8.60870e-01,9.99999e-01,9.99998e-01,8.60871e-01,9.99999e-01
4.142117588e-01,8.63418e-01,9.99999e-01,9.99994e-01,8.63422e-01,9.99999e-01
4.162828176e-01,8.65910e-01,9.99999e-01,9.99975e-01,8.65930e-01,9.99999e-01
4.183642317e-01,8.68384e-01,9.99999e-01,9.99985e-01,8.68396e-01,9.99999e-01
4.204560528e-01,8.70812e-01,9.99999e-01,9.99990e-01,8.70820e-01,9.99999e-01
4.225583331e-01,8.73199e-01,9.99999e-01,9.99996e-01,8.73202e-01,9.99999e-01
4.246711247e-01,8.75542e-01,9.99999e-01,9.99996e-01,8.75544e-01,9.99999e-01
4.267944804e-01,8.77842e-01,9.99999e-01,9.99995e-01,8.77845e-01,9.99999e-01
4.289284528e-01,8.80105e-01,9.99999e-01,9.99996e-01,8.80107e-01,9.99999e-01
4.310730950e-01,8.82329e-01,9.99999e-01,9.99998e-01,8.82330e-01,9.99999e-01
4.332284605e-01,8.84515e-01,9.99999e-01,9.99999e-01,8.84515e-01,9.99999e-01
4.353946028e-01,8.86661e-01,9.99999e-01,9.99999e-01,8.86662e-01,9.99999e-01
4.375715758e-01,8.88769e-01,9.99999e-01,9.99997e-01,8.88771e-01,9.99999e-01
4.397594337e-01,8.90824e-01,9.99999e-01,9.99978e-01,8.90843e-01,9.99999e-01
4.419582309e-01,8.92784e-01,9.99999e-01,9.99892e-01,8.92879e-01,9.99999e-01
4.441680220e-01,8.94807e-01,9.99999e-01,9.99918e-01,8.94880e-01,9.99999e-01
4.463888621e-01,8.96769e-01,9.99999e-01,9.99914e-01,8.96845e-01,9.99999e-01
4.486208064e-01,8.98729e-01,9.99999e-01,9.99946e-01,8.98776e-01,9.99999e-01
4.508639105e-01,9.00650e-01,9.99999e-01,9.99974e-01,9.00673e-01,9.99999e-01
4.531182300e-01,9.02527e-01,9.99999e-01,9.99989e-01,9.02536e-01,9.99999e-01
4.553838212e-01,9.04360e-01,9.99999e-01,9.99992e-01,9.04366e-01,9.99999e-01
4.576607403e-01,9.06160e-01,9.99999e-01,9.99996e-01,9.06163e-01,9.99999e-01
4.599490440e-01,9.07926e-01,9.99999e-01,9.99997e-01,9.07928e-01,9.99999e-01
4.622487892e-01,9.09662e-01,9.99999e-01,9.99999e-01,9.09662e-01,9.99999e-01
4.645600332e-01,9.11364e-01,9.99999e-01,9.99997e-01,9.11365e-01,9.99999e-01
4.668828333e-01,9.13014e-01,9.99999e-01,9.99974e-01,9.13037e-01,9.99999e-01
4.692172475e-01,9.14631e-01,9.99999e-01,9.99945e-01,9.14680e-01,9.99999e-01
4.715633337e-01,9.16260e-01,9.99999e-01,9.99964e-01,9.16292e-01,9.99999e-01
4.739211504e-01,9.17845e-01,9.99999e-01,9.99966e-01,9.17876e-01,9.99999e-01
4.762907561e-01,9.19415e-01,9.99999e-01,9.99982e-01,9.19431e-01,9.99999e-01
4.786722099e-01,9.20951e-01,9.99999e-01,9.99992e-01,9.20958e-01,9.99999e-01
4.810655710e-01,9.22455e-01,9.99999e-01,9.99997e-01,9.22457e-01,9.99999e-01
4.834708988e-01,9.23909e-01,9.99999e-01,9.99978e-01,9.23929e-01,9.99999e-01
4.858882533e-01,9.25339e-01,9.99999e-01,9.99961e-01,9.25374e-01,9.99999e-01
4.883176946e-01,9.26763e-01,9.99999e-01,9.99967e-01,9.26792e-01,9.99999e-01
4.907592831e-01,9.28159e-01,9.99999e-01,9.99970e-01,9.28185e-01,9.99999e-01
4.932130795e-01,9.29534e-01,9.99999e-01,9.99979e-01,9.29552e-01,9.99999e-01
4.956791449e-01,9.30885e-01,9.99999e-01,9.99988e-01,9.30895e-01,9.99999e-01
4.981575406e-01,9.32162e-01,9.99999e-01,9.99945e-01,9.32212e-01,9.99999e-01
5.006483283e-01,9.33373e-01,9.99999e-01,9.99857e-01,9.33506e-01,9.99998e-01
5.031515699e-01,9.34104e-01,9.99999e-01,9.99288e-01,9.34775e-01,9.99992e-01
5.056673278e-01,9.35664e-01,9.99999e-01,9.99626e-01,9.36021e-01,9.99990e-01
5.081956644e-01,9.36799e-01,9.99999e-01,9.99529e-01,9.37245e-01,9.99994e-01
5.107366428e-01,9.38147e-01,9.99999e-01,9.99682e-01,9.38445e-01,9.99998e-01
5.132903260e-01,9.39454e-01,9.99999e-01,9.99818e-01,9.39624e-01,9.99999e-01
5.158567776e-01,9.40708e-01,9.99999e-01,9.99923e-01,9.40780e-01,9.99999e-01
5.184360615e-01,9.41886e-01,9.99999e-01,9.99968e-01,9.41915e-01,9.99999e-01
5.210282418e-01,9.43018e-01,9.99999e-01,9.99987e-01,9.43029e-01,9.99999e-01
5.236333830e-01,9.44079e-01,9.99999e-01,9.99953e-01,9.44122e-01,9.99999e-01
5.262515499e-01,9.45168e-01,9.99999e-01,9.99970e-01,9.45195e-01,9.99999e-01
5.288828077e-01,9.46223e-01,9.99999e-01,9.99972e-01,9.46248e-01,9.99999e-01
5.315272217e-01,9.47259e-01,9.99999e-01,9.99976e-01,9.47281e-01,9.99999e-01
5.341848578e-01,9.48281e-01,9.99999e-01,9.99984e-01,9.48295e-01,9.99999e-01
5.368557821e-01,9.49239e-01,9.99999e-01,9.99945e-01,9.49290e-01,9.99999e-01
5.395400610e-01,9.50077e-01,9.99999e-01,9.99802e-01,9.50267e-01,9.99997e-01
5.422377613e-01,9.50983e-01,9.99999e-01,9.99749e-01,9.51225e-01,9.99994e-01
5.449489501e-01,9.51937e-01,9.99999e-01,9.99764e-01,9.52165e-01,9.99994e-01
5.476736949e-01,9.52889e-01,9.99999e-01,9.99794e-01,9.53087e-01,9.99997e-01
5.504120634e-01,9.53849e-01,9.99999e-01,9.99850e-01,9.53992e-01,9.99998e-01
5.531641237e-01,9.54808e-01,9.99999e-01,9.99924e-01,9.54880e-01,9.99999e-01
5.559299443e-01,9.55716e-01,9.99999e-01,9.99963e-01,9.55751e-01,9.99999e-01
5.587095940e-01,9.56584e-01,9.99999e-01,9.99976e-01,9.56606e-01,9.99999e-01
5.615031420e-01,9.57420e-01,9.99999e-01,9.99974e-01,9.57444e-01,9.99999e-01
5.643106577e-01,9.58239e-01,9.99999e-01,9.99970e-01,9.58267e-01,9.99999e-01
5.671322110e-01,9.58727e-01,9.99999e-01,9.99640e-01,9.59074e-01,9.99996e-01
5.699678720e-01,9.59504e-01,9.99999e-01,9.99631e-01,9.59866e-01,9.99989e-01
5.728177114e-01,9.60262e-01,9.99999e-01,9.99610e-01,9.60643e-01,9.99991e-01
5.756818000e-01,9.61059e-01,9.99999e-01,9.99643e-01,9.61405e-01,9.99994e-01
5.785602090e-01,9.61854e-01,9.99999e-01,9.99690e-01,9.62153e-01,9.99998e-01
5.814530100e-01,9.62586e-01,9.99999e-01,9.99687e-01,9.62887e-01,9.99998e-01
5.843602750e-01,9.63242e-01,9.99999e-01,9.99624e-01,9.63606e-01,9.99997e-01
5.872820764e-01,9.61174e-01,9.99999e-01,9.96767e-01,9.64312e-01,9.99977e-01
5.902184868e-01,9.61213e-01,9.99999e-01,9.96131e-01,9.65004e-01,9.99938e-01
5.931695792e-01,9.62976e-01,9.99999e-01,9.97254e-01,9.65684e-01,9.99940e-01
5.961354271e-01,9.63419e-01,9.99999e-01,9.97000e-01,9.66350e-01,9.99965e-01
5.991161043e-01,9.64881e-01,9.99999e-01,9.97815e-01,9.67003e-01,9.99989e-01
6.021116848e-01,9.66446e-01,9.99999e-01,9.98761e-01,9.67645e-01,9.99998e-01
6.051222432e-01,9.67667e-01,9.99999e-01,9.99373e-01,9.68273e-01,9.99999e-01
6.081478544e-01,9.68628e-01,9.99999e-01,9.99729e-01,9.68890e-01,9.99999e-01
6.111885937e-01,9.69385e-01,9.99999e-01,9.99885e-01,9.69495e-01,9.99999e-01
6.142445367e-01,9.70039e-01,9.99999e-01,9.99948e-01,9.70089e-01,9.99999e-01
6.173157594e-01,9.70643e-01,9.99999e-01,9.99971e-01,9.70671e-01,9.99999e-01
6.204023382e-01,9.71218e-01,9.99999e-01,9.99975e-01,9.71242e-01,9.99999e-01
6.235043498e-01,9.71696e-01,9.99999e-01,9.99891e-01,9.71801e-01,9.99999e-01
6.266218716e-01,9.71804e-01,9.99999e-01,9.99440e-01,9.72351e-01,9.99995e-01
6.297549810e-01,9.72682e-01,9.99999e-01,9.99794e-01,9.72889e-01,9.99991e-01
6.329037559e-01,9.73019e-01,9.99999e-01,9.99596e-01,9.73418e-01,9.99993e-01
6.360682746e-01,9.73596e-01,9.99999e-01,9.99653e-01,9.73936e-01,9.99995e-01
6.392486160e-01,9.74007e-01,9.99999e-01,9.99552e-01,9.74444e-01,9.99997e-01
6.424448591e-01,9.74351e-01,9.99999e-01,9.99395e-01,9.74942e-01,9.99996e-01
6.456570834e-01,9.72680e-01,9.99999e-01,9.97195e-01,9.75431e-01,9.99982e-01
6.488853688e-01,9.73894e-01,9.99999e-01,9.97975e-01,9.75911e-01,9.99956e-01
6.521297956e-01,9.74332e-01,9.99999e-01,9.97937e-01,9.76381e-01,9.99964e-01
6.553904446e-01,9.74799e-01,9.99999e-01,9.97934e-01,9.76842e-01,9.99973e-01
6.586673968e-01,9.75566e-01,9.99999e-01,9.98240e-01,9.77294e-01,9.99990e-01
6.619607338e-01,9.76778e-01,9.99999e-01,9.99019e-01,9.77737e-01,9.99997e-01
6.652705375e-01,9.77596e-01,9.99999e-01,9.99411e-01,9.78172e-01,9.99998e-01
6.685968902e-01,9.78354e-01,9.99999e-01,9.99750e-01,9.78599e-01,9.99999e-01
6.719398746e-01,9.78893e-01,9.99999e-01,9.99873e-01,9.79017e-01,9.99999e-01
6.752995740e-01,9.79362e-01,9.99999e-01,9.99932e-01,9.79427e-01,9.99999e-01
6.786760719e-01,9.79731e-01,9.99999e-01,9.99899e-01,9.79829e-01,9.99999e-01
6.820694522e-01,9.80054e-01,9.99999e-01,9.99827e-01,9.80224e-01,9.99998e-01
6.854797995e-01,9.80393e-01,9.99999e-01,9.99779e-01,9.80611e-01,9.99997e-01
6.889071985e-01,9.80285e-01,9.99999e-01,9.99285e-01,9.80990e-01,9.99994e-01
6.923517345e-01,9.72709e-01,9.99999e-01,9.91223e-01,9.81362e-01,9.99957e-01
6.958134932e-01,9.77287e-01,9.99999e-01,9.95569e-01,9.81727e-01,9.99907e-01
6.992925606e-01,9.77757e-01,9.99999e-01,9.95676e-01,9.82084e-01,9.99916e-01
7.027890234e-01,9.77186e-01,9.99999e-01,9.94720e-01,9.82435e-01,9.99936e-01
7.063029686e-01,9.78380e-01,9.99999e-01,9.95554e-01,9.82779e-01,9.99967e-01
7.098344834e-01,9.78906e-01,9.99999e-01,9.95735e-01,9.83116e-01,9.99980e-01
7.133836558e-01,9.77730e-01,9.99999e-01,9.94223e-01,9.83447e-01,9.99962e-01
7.169505741e-01,9.38950e-01,9.99999e-01,9.54717e-01,9.83771e-01,9.99707e-01
7.205353270e-01,9.62077e-01,9.99999e-01,9.78134e-01,9.84089e-01,9.99485e-01
7.241380036e-01,9.56141e-01,9.99999e-01,9.71723e-01,9.84401e-01,9.99555e-01
7.277586936e-01,9.59232e-01,9.99999e-01,9.74483e-01,9.84707e-01,9.99636e-01
7.313974871e-01,9.58375e-01,9.99999e-01,9.73128e-01,9.85006e-01,9.99829e-01
7.350544745e-01,9.70668e-01,9.99999e-01,9.85207e-01,9.85300e-01,9.99940e-01
7.387297469e-01,9.74828e-01,9.99999e-01,9.89108e-01,9.85589e-01,9.99972e-01
7.424233956e-01,9.80617e-01,9.99999e-01,9.94674e-01,9.85871e-01,9.99994e-01
7.461355126e-01,9.82957e-01,9.99999e-01,9.96763e-01,9.86148e-01,9.99998e-01
7.498661902e-01,9.84939e-01,9.99999e-01,9.98498e-01,9.86420e-01,9.99999e-01
7.536155211e-01,9.85957e-01,9.99999e-01,9.99260e-01,9.86687e-01,9.99999e-01
7.573835987e-01,9.86572e-01,9.99999e-01,9.99619e-01,9.86948e-01,9.99999e-01
7.611705167e-01,9.86970e-01,9.99999e-01,9.99763e-01,9.87204e-01,9.99999e-01
7.649763693e-01,9.87309e-01,9.99999e-01,9.99851e-01,9.87455e-01,9.99999e-01
7.688012511e-01,9.87599e-01,9.99999e-01,9.99895e-01,9.87701e-01,9.99999e-01
7.726452574e-01,9.87858e-01,9.99999e-01,9.99914e-01,9.87943e-01,9.99999e-01
7.765084837e-01,9.88058e-01,9.99999e-01,9.99877e-01,9.88179e-01,9.99999e-01
7.803910261e-01,9.87887e-01,9.99999e-01,9.99469e-01,9.88412e-01,9.99998e-01
7.842929812e-01,9.86806e-01,9.99999e-01,9.98148e-01,9.88639e-01,9.99996e-01
7.882144461e-01,9.85110e-01,9.99999e-01,9.96230e-01,9.88862e-01,9.99973e-01
7.921555184e-01,9.87005e-01,9.99999e-01,9.97945e-01,9.89081e-01,9.99954e-01
7.961162960e-01,9.85609e-01,9.99999e-01,9.96315e-01,9.89296e-01,9.99956e-01
8.000968774e-01,9.85284e-01,9.99999e-01,9.95778e-01,9.89506e-01,9.99954e-01
8.040973618e-01,9.85491e-01,9.99999e-01,9.95769e-01,9.89712e-01,9.99964e-01
8.081178486e-01,9.80381e-01,9.99999e-01,9.90404e-01,9.89914e-01,9.99964e-01
8.121584379e-01,9.51011e-01,9.99999e-01,9.60635e-01,9.90112e-01,9.99866e-01
8.162192301e-01,9.44300e-01,9.99999e-01,9.54020e-01,9.90307e-01,9.99498e-01
8.203003262e-01,9.66400e-01,9.99999e-01,9.76243e-01,9.90497e-01,9.99413e-01
8.244018279e-01,9.58543e-01,9.99999e-01,9.68007e-01,9.90684e-01,9.99533e-01
8.285238370e-01,9.62865e-01,9.99999e-01,9.72095e-01,9.90867e-01,9.99633e-01
8.326664562e-01,9.63095e-01,9.99999e-01,9.71942e-01,9.91047e-01,9.99847e-01
8.368297885e-01,9.71310e-01,9.99999e-01,9.79944e-01,9.91223e-01,9.99964e-01
8.410139374e-01,9.79527e-01,9.99999e-01,9.88048e-01,9.91395e-01,9.99979e-01
8.452190071e-01,9.85737e-01,9.99999e-01,9.94134e-01,9.91565e-01,9.99987e-01
8.494451021e-01,9.88327e-01,9.99999e-01,9.96577e-01,9.91731e-01,9.99989e-01
8.536923276e-01,9.89888e-01,9.99999e-01,9.97983e-01,9.91893e-01,9.99993e-01
8.579607893e-01,9.90815e-01,9.99999e-01,9.98753e-01,9.92053e-01,9.99998e-01
8.622505932e-01,9.91426e-01,9.99999e-01,9.99210e-01,9.92209e-01,9.99999e-01
8.665618462e-01,9.91875e-01,9.99999e-01,9.99508e-01,9.92362e-01,9.99999e-01
8.708946554e-01,9.91953e-01,9.99999e-01,9.99436e-01,9.92513e-01,9.99999e-01
8.752491287e-01,9.91912e-01,9.99999e-01,9.99246e-01,9.92660e-01,9.99998e-01
8.796253743e-01,9.91763e-01,9.99999e-01,9.98952e-01,9.92804e-01,9.99997e-01
8.840235012e-01,9.91753e-01,9.99999e-01,9.98804e-01,9.92946e-01,9.99992e-01
8.884436187e-01,9.88631e-01,9.99999e-01,9.95535e-01,9.93085e-01,9.99978e-01
8.928858368e-01,9.48057e-01,9.99999e-01,9.54641e-01,9.93221e-01,9.99880e-01
8.973502660e-01,9.15351e-01,9.99999e-01,9.22035e-01,9.93354e-01,9.99390e-01
9.018370173e-01,9.52664e-01,9.99999e-01,9.59829e-01,9.93485e-01,9.99042e-01
9.063462024e-01,9.56859e-01,9.99999e-01,9.63819e-01,9.93613e-01,9.99158e-01
9.108779334e-01,9.37776e-01,9.99999e-01,9.44509e-01,9.93739e-01,9.99125e-01
9.154323231e-01,9.30957e-01,9.99999e-01,9.37382e-01,9.93862e-01,9.99277e-01
9.200094847e-01,9.44665e-01,9.99999e-01,9.50766e-01,9.93983e-01,9.99595e-01
9.246095321e-01,9.15967e-01,9.99999e-01,9.21830e-01,9.94102e-01,9.99533e-01
9.292325798e-01,5.81175e-01,9.99999e-01,5.85871e-01,9.94218e-01,9.97752e-01
9.338787427e-01,4.99047e-01,9.99999e-01,5.05989e-01,9.94332e-01,9.91899e-01
9.385481364e-01,7.49307e-01,9.99999e-01,7.60256e-01,9.94443e-01,9.91104e-01
9.432408771e-01,6.70680e-01,9.99999e-01,6.79571e-01,9.94553e-01,9.92320e-01
9.479570815e-01,5.80476e-01,9.99999e-01,5.87264e-01,9.94660e-01,9.93745e-01
9.526968669e-01,6.67316e-01,9.99999e-01,6.73399e-01,9.94765e-01,9.96180e-01
9.574603512e-01,6.89485e-01,9.99999e-01,6.94390e-01,9.94868e-01,9.98057e-01
9.622476530e-01,7.39280e-01,9.99999e-01,7.44016e-01,9.94970e-01,9.98656e-01
9.670588912e-01,8.38092e-01,9.99999e-01,8.42987e-01,9.95069e-01,9.99119e-01
9.718941857e-01,8.93609e-01,9.99999e-01,8.98555e-01,9.95166e-01,9.99325e-01
9.767536566e-01,9.10198e-01,9.99999e-01,9.15004e-01,9.95261e-01,9.99482e-01
9.816374249e-01,9.32001e-01,9.99999e-01,9.36517e-01,9.95354e-01,9.99820e-01
9.865456120e-01,9.55468e-01,9.99999e-01,9.59874e-01,9.95446e-01,9.99962e-01
9.914783401e-01,9.70632e-01,9.99999e-01,9.74994e-01,9.95536e-01,9.99989e-01
9.964357318e-01,9.81988e-01,9.99999e-01,9.86309e-01,9.95624e-01,9.99993e-01
1.001417910e+00,9.87517e-01,9.99999e-01,9.91780e-01,9.95710e-01,9.99990e-01
1.006425000e+00,9.91095e-01,9.99999e-01,9.95293e-01,9.95794e-01,9.99986e-01
1.011457125e+00,9.92964e-01,9.99999e-01,9.97086e-01,9.95877e-01,9.99987e-01
1.016514411e+00,9.93976e-01,9.99999e-01,9.98017e-01,9.95959e-01,9.99990e-01
1.021596983e+00,9.94455e-01,9.99999e-01,9.98418e-01,9.96038e-01,9.99991e-01
1.026704968e+00,9.94882e-01,9.99999e-01,9.98765e-01,9.96116e-01,9.99994e-01
1.031838492e+00,9.95300e-01,9.99999e-01,9.99105e-01,9.96193e-01,9.99997e-01
1.036997685e+00,9.95737e-01,9.99999e-01,9.99466e-01,9.96268e-01,9.99999e-01
1.042182673e+00,9.95705e-01,9.99999e-01,9.99361e-01,9.96341e-01,9.99999e-01
1.047393587e+00,9.95572e-01,9.99999e-01,9.99155e-01,9.96414e-01,9.99999e-01
1.052630555e+00,9.95327e-01,9.99999e-01,9.98838e-01,9.96484e-01,9.99999e-01
1.057893707e+00,9.94618e-01,9.99999e-01,9.98058e-01,9.96554e-01,9.99998e-01
1.063183176e+00,9.93441e-01,9.99999e-01,9.96810e-01,9.96621e-01,9.99997e-01
1.068499092e+00,9.91376e-01,9.99999e-01,9.94673e-01,9.96688e-01,9.99995e-01
1.073841587e+00,9.90518e-01,9.99999e-01,9.93751e-01,9.96753e-01,9.99991e-01
1.079210795e+00,9.88856e-01,9.99999e-01,9.92034e-01,9.96817e-01,9.99978e-01
1.084606849e+00,9.84802e-01,9.99999e-01,9.87934e-01,9.96880e-01,9.99948e-01
1.090029883e+00,9.79451e-01,9.99999e-01,9.82559e-01,9.96942e-01,9.99893e-01
1.095480033e+00,9.50287e-01,9.99999e-01,9.53327e-01,9.97002e-01,9.99807e-01
1.100957433e+00,8.82733e-01,9.99999e-01,8.85647e-01,9.97061e-01,9.99646e-01
1.106462220e+00,7.31439e-01,9.99999e-01,7.33991e-01,9.97119e-01,9.99400e-01
1.111994531e+00,5.22529e-01,9.99999e-01,5.24843e-01,9.97176e-01,9.98409e-01
1.117554504e+00,3.50647e-01,9.99999e-01,3.53646e-01,9.97231e-01,9.94272e-01
1.123142276e+00,4.61855e-01,9.99999e-01,4.69463e-01,9.97286e-01,9.86470e-01
1.128757988e+00,6.01630e-01,9.99999e-01,6.12816e-01,9.97340e-01,9.84365e-01
1.134401778e+00,3.50755e-01,9.99999e-01,3.56416e-01,9.97392e-01,9.86690e-01
1.140073787e+00,7.35773e-01,9.99999e-01,7.45597e-01,9.97443e-01,9.89351e-01
1.145774156e+00,5.38179e-01,9.99999e-01,5.44843e-01,9.97494e-01,9.90248e-01
1.151503026e+00,5.04319e-01,9.99999e-01,5.08328e-01,9.97543e-01,9.94555e-01
1.157260541e+00,5.65208e-01,9.99999e-01,5.67497e-01,9.97592e-01,9.98368e-01
1.163046844e+00,6.56645e-01,9.99999e-01,6.58502e-01,9.97639e-01,9.99537e-01
1.168862078e+00,7.45990e-01,9.99999e-01,7.47900e-01,9.97686e-01,9.99758e-01
1.174706389e+00,8.33643e-01,9.99999e-01,8.35815e-01,9.97731e-01,9.99667e-01
1.180579921e+00,8.94164e-01,9.99999e-01,8.96585e-01,9.97776e-01,9.99521e-01
1.186482820e+00,9.37619e-01,9.99999e-01,9.40127e-01,9.97820e-01,9.99509e-01
1.192415234e+00,9.62162e-01,9.99999e-01,9.64575e-01,9.97863e-01,9.99632e-01
1.198377311e+00,9.67622e-01,9.99999e-01,9.69991e-01,9.97905e-01,9.99651e-01
1.204369197e+00,9.69322e-01,9.99999e-01,9.71610e-01,9.97947e-01,9.99696e-01
1.210391043e+00,9.70702e-01,9.99999e-01,9.72844e-01,9.97987e-01,9.99808e-01
1.216442998e+00,9.74876e-01,9.99999e-01,9.76917e-01,9.98027e-01,9.99882e-01
1.222525213e+00,9.79996e-01,9.99999e-01,9.81966e-01,9.98066e-01,9.99926e-01
1.228637839e+00,9.85529e-01,9.99999e-01,9.87434e-01,9.98104e-01,9.99965e-01
1.234781029e+00,9.88819e-01,9.99999e-01,9.90669e-01,9.98141e-01,9.99989e-01
1.240954934e+00,9.92271e-01,9.99999e-01,9.94084e-01,9.98178e-01,9.99996e-01
1.247159708e+00,9.93617e-01,9.99999e-01,9.95396e-01,9.98214e-01,9.99997e-01
1.253395507e+00,9.94159e-01,9.99999e-01,9.95904e-01,9.98249e-01,9.99997e-01
1.259662485e+00,9.94385e-01,9.99999e-01,9.96097e-01,9.98284e-01,9.99995e-01
1.265960797e+00,9.92110e-01,9.99999e-01,9.93787e-01,9.98317e-01,9.99993e-01
1.272290601e+00,9.88570e-01,9.99999e-01,9.90213e-01,9.98351e-01,9.99988e-01
1.278652054e+00,9.79035e-01,9.99999e-01,9.80638e-01,9.98383e-01,9.99980e-01
1.285045314e+00,9.63535e-01,9.99999e-01,9.65097e-01,9.98415e-01,9.99964e-01
1.291470541e+00,9.38448e-01,9.99999e-01,9.39965e-01,9.98446e-01,9.99937e-01
1.297927893e+00,9.14200e-01,9.99999e-01,9.15699e-01,9.98477e-01,9.99884e-01
1.304417533e+00,9.00068e-01,9.99999e-01,9.01633e-01,9.98507e-01,9.99755e-01
1.310939621e+00,8.75529e-01,9.99999e-01,8.77251e-01,9.98536e-01,9.99498e-01
1.317494319e+00,8.77454e-01,9.99999e-01,8.79529e-01,9.98565e-01,9.99072e-01
1.324081790e+00,8.24697e-01,9.99999e-01,8.27221e-01,9.98594e-01,9.98351e-01
1.330702199e+00,4.60856e-01,9.99999e-01,4.62784e-01,9.98621e-01,9.97206e-01
1.337355710e+00,1.19990e-01,9.99999e-01,1.20758e-01,9.98649e-01,9.94983e-01
1.344042489e+00,5.33109e-03,9.99999e-01,5.41962e-03,9.98675e-01,9.84968e-01
1.350762701e+00,5.39272e-05,9.99999e-01,5.68711e-05,9.98701e-01,9.49467e-01
1.357516515e+00,9.79504e-07,9.99999e-01,1.14196e-06,9.98727e-01,8.58833e-01
1.364304097e+00,1.15487e-04,9.99999e-01,1.50974e-04,9.98752e-01,7.65897e-01
1.371125618e+00,2.10213e-03,9.99999e-01,2.70642e-03,9.98777e-01,7.77671e-01
1.377981246e+00,4.99074e-03,9.99999e-01,6.19861e-03,9.98801e-01,8.06104e-01
1.384871152e+00,1.57264e-04,9.99999e-01,1.92472e-04,9.98824e-01,8.18037e-01
1.391795508e+00,1.65503e-04,9.99999e-01,2.00656e-04,9.98848e-01,8.25760e-01
1.398754485e+00,7.37359e-04,9.99999e-01,8.64672e-04,9.98870e-01,8.53725e-01
1.405748258e+00,6.71541e-04,9.99999e-01,7.37402e-04,9.98893e-01,9.11693e-01
1.412776999e+00,7.58987e-04,9.99999e-01,7.92570e-04,9.98914e-01,9.58667e-01
1.419840884e+00,1.27155e-03,9.99999e-01,1.29668e-03,9.98936e-01,9.81661e-01
1.426940089e+00,5.44740e-03,9.99999e-01,5.53030e-03,9.98957e-01,9.86036e-01
1.434074789e+00,1.85421e-02,9.99999e-01,1.88716e-02,9.98977e-01,9.83544e-01
1.441245163e+00,4.47762e-02,9.99999e-01,4.56339e-02,9.98998e-01,9.82188e-01
1.448451389e+00,1.10634e-01,9.99999e-01,1.12499e-01,9.99017e-01,9.84386e-01
1.455693646e+00,2.32208e-01,9.99999e-01,2.35295e-01,9.99037e-01,9.87829e-01
1.462972114e+00,2.81177e-01,9.99999e-01,2.84749e-01,9.99056e-01,9.88389e-01
1.470286975e+00,2.28828e-01,9.99999e-01,2.31684e-01,9.99074e-01,9.88586e-01
