#,Wave/freq,Total,N2,H2O,Rayleigh,CIA
4.000000000e-01,7.56416e-01,9.99999e-01,9.99968e-01,7.56439e-01,9.99999e-01
4.020000000e-01,7.60611e-01,9.99999e-01,9.99980e-01,7.60626e-01,9.99999e-01
4.040100000e-01,7.64741e-01,9.99999e-01,9.99991e-01,7.64748e-01,9.99999e-01
4.060300500e-01,7.68808e-01,9.99999e-01,9.99997e-01,7.68810e-01,9.99999e-01
4.080602003e-01,7.72812e-01,9.99999e-01,9.99998e-01,7.72813e-01,9.99999e-01
4.101005013e-01,7.76757e-01,9.99999e-01,9.99999e-01,7.76757e-01,9.99999e-01
4.121510038e-01,7.80642e-01,9.99999e-01,9.99998e-01,7.80643e-01,9.99999e-01
4.142117588e-01,7.84464e-01,9.99999e-01,9.99990e-01,7.84470e-01,9.99999e-01
4.162828176e-01,7.88210e-01,9.99999e-01,9.99960e-01,7.88241e-01,9.99999e-01
4.183642317e-01,7.91936e-01,9.99999e-01,9.99976e-01,7.91954e-01,9.99999e-01
4.204560528e-01,7.95600e-01,9.99999e-01,9.99985e-01,7.95612e-01,9.99999e-01
4.225583331e-01,7.99209e-01,9.99999e-01,9.99994e-01,7.99213e-01,9.99999e-01
4.246711247e-01,8.02756e-01,9.99999e-01,9.99995e-01,8.02759e-01,9.99999e-01
4.267944804e-01,8.06245e-01,9.99999e-01,9.99993e-01,8.06250e-01,9.99999e-01
4.289284528e-01,8.09683e-01,9.99999e-01,9.99994e-01,8.09687e-01,9.99999e-01
4.310730950e-01,8.13069e-01,9.99999e-01,9.99997e-01,8.13071e-01,9.99999e-01
4.332284605e-01,8.16400e-01,9.99999e-01,9.99998e-01,8.16401e-01,9.99999e-01
4.353946028e-01,8.19678e-01,9.99999e-01,9.99999e-01,8.19678e-01,9.99999e-01
4.375715758e-01,8.22901e-01,9.99999e-01,9.99995e-01,8.22904e-01,9.99999e-01
4.397594337e-01,8.26050e-01,9.99999e-01,9.99965e-01,8.26078e-01,9.99999e-01
4.419582309e-01,8.29057e-01,9.99999e-01,9.99824e-01,8.29202e-01,9.99999e-01
4.441680220e-01,8.32163e-01,9.99999e-01,9.99864e-01,8.32275e-01,9.99999e-01
4.463888621e-01,8.35181e-01,9.99999e-01,9.99858e-01,8.35299e-01,9.99999e-01
4.486208064e-01,8.38200e-01,9.99999e-01,9.99911e-01,8.38273e-01,9.99999e-01
4.508639105e-01,8.41165e-01,9.99999e-01,9.99958e-01,8.41200e-01,9.99999e-01
4.531182300e-01,8.44064e-01,9.99999e-01,9.99983e-01,8.44078e-01,9.99999e-01
4.553838212e-01,8.46899e-01,9.99999e-01,9.99988e-01,8.46909e-01,9.99999e-01
4.576607403e-01,8.49689e-01,9.99999e-01,9.99994e-01,8.49693e-01,9.99999e-01
4.599490440e-01,8.52428e-01,9.99999e-01,9.99995e-01,8.52431e-01,9.99999e-01
4.622487892e-01,8.55123e-01,9.99999e-01,9.99998e-01,8.55124e-01,9.99999e-01
4.645600332e-01,8.57769e-01,9.99999e-01,9.99997e-01,8.57771e-01,9.99999e-01
4.668828333e-01,8.60339e-01,9.99999e-01,9.99957e-01,8.60374e-01,9.99999e-01
4.692172475e-01,8.62858e-01,9.99999e-01,9.99910e-01,8.62934e-01,9.99999e-01
4.715633337e-01,8.65400e-01,9.99999e-01,9.99941e-01,8.65450e-01,9.99999e-01
4.739211504e-01,8.67876e-01,9.99999e-01,9.99944e-01,8.67924e-01,9.99999e-01
4.762907561e-01,8.70331e-01,9.99999e-01,9.99970e-01,8.70356e-01,9.99999e-01
4.786722099e-01,8.72736e-01,9.99999e-01,9.99987e-01,8.72746e-01,9.99999e-01
4.810655710e-01,8.75093e-01,9.99999e-01,9.99995e-01,8.75096e-01,9.99999e-01
4.834708988e-01,8.77375e-01,9.99999e-01,9.99965e-01,8.77405e-01,9.99999e-01
4.858882533e-01,8.79620e-01,9.99999e-01,9.99936e-01,8.79675e-01,9.99999e-01
4.883176946e-01,8.81859e-01,9.99999e-01,9.99946e-01,8.81905e-01,9.99999e-01
4.907592831e-01,8.84055e-01,9.99999e-01,9.99952e-01,8.84097e-01,9.99999e-01
4.932130795e-01,8.86221e-01,9.99999e-01,9.99965e-01,8.86251e-01,9.99999e-01
4.956791449e-01,8.88351e-01,9.99999e-01,9.99981e-01,8.88367e-01,9.99999e-01
4.981575406e-01,8.90367e-01,9.99999e-01,9.99910e-01,8.90447e-01,9.99999e-01
5.006483283e-01,8.92282e-01,9.99999e-01,9.99767e-01,8.92490e-01,9.99997e-01
5.031515699e-01,8.93438e-01,9.99999e-01,9.98827e-01,8.94497e-01,9.99987e-01
5.056673278e-01,8.95903e-01,9.99999e-01,9.99382e-01,8.96469e-01,9.99985e-01
5.081956644e-01,8.97699e-01,9.99999e-01,9.99220e-01,8.98407e-01,9.99990e-01
5.107366428e-01,8.99835e-01,9.99999e-01,9.99473e-01,9.00310e-01,9.99998e-01
5.132903260e-01,9.01908e-01,9.99999e-01,9.99699e-01,9.02179e-01,9.99999e-01
5.158567776e-01,9.03901e-01,9.99999e-01,9.99872e-01,9.04016e-01,9.99999e-01
5.184360615e-01,9.05773e-01,9.99999e-01,9.99948e-01,9.05819e-01,9.99999e-01
5.210282418e-01,9.07574e-01,9.99999e-01,9.99980e-01,9.07591e-01,9.99999e-01
5.236333830e-01,9.09261e-01,9.99999e-01,9.99923e-01,9.09331e-01,9.99998e-01
5.262515499e-01,9.10995e-01,9.99999e-01,9.99951e-01,9.11039e-01,9.99998e-01
5.288828077e-01,9.12677e-01,9.99999e-01,9.99955e-01,9.12718e-01,9.99999e-01
5.315272217e-01,9.14330e-01,9.99999e-01,9.99961e-01,9.14366e-01,9.99999e-01
5.341848578e-01,9.15961e-01,9.99999e-01,9.99974e-01,9.15984e-01,9.99999e-01
5.368557821e-01,9.17491e-01,9.99999e-01,9.99910e-01,9.17573e-01,9.99999e-01
5.395400610e-01,9.18835e-01,9.99999e-01,9.99677e-01,9.19133e-01,9.99996e-01
5.422377613e-01,9.20278e-01,9.99999e-01,9.99585e-01,9.20666e-01,9.99992e-01
5.449489501e-01,9.21807e-01,9.99999e-01,9.99613e-01,9.22170e-01,9.99991e-01
5.476736949e-01,9.23329e-01,9.99999e-01,9.99658e-01,9.23647e-01,9.99995e-01
5.504120634e-01,9.24868e-01,9.99999e-01,9.99752e-01,9.25097e-01,9.99998e-01
5.531641237e-01,9.26406e-01,9.99999e-01,9.99875e-01,9.26521e-01,9.99999e-01
5.559299443e-01,9.27863e-01,9.99999e-01,9.99939e-01,9.27919e-01,9.99999e-01
5.587095940e-01,9.29256e-01,9.99999e-01,9.99961e-01,9.29291e-01,9.99999e-01
5.615031420e-01,9.30599e-01,9.99999e-01,9.99957e-01,9.30638e-01,9.99999e-01
5.643106577e-01,9.31915e-01,9.99999e-01,9.99951e-01,9.31960e-01,9.99999e-01
5.671322110e-01,9.32709e-01,9.99999e-01,9.99415e-01,9.33258e-01,9.99994e-01
5.699678720e-01,9.33945e-01,9.99999e-01,9.99386e-01,9.34533e-01,9.99983e-01
5.728177114e-01,9.35170e-01,9.99999e-01,9.99357e-01,9.35783e-01,9.99986e-01
5.756818000e-01,9.36452e-01,9.99999e-01,9.99411e-01,9.37011e-01,9.99991e-01
5.785602090e-01,9.37733e-01,9.99999e-01,9.99487e-01,9.38216e-01,9.99997e-01
5.814530100e-01,9.38913e-01,9.99999e-01,9.99484e-01,9.39398e-01,9.99998e-01
5.843602750e-01,9.39976e-01,9.99999e-01,9.99383e-01,9.40559e-01,9.99996e-01
5.872820764e-01,9.36672e-01,9.99999e-01,9.94699e-01,9.41698e-01,9.99962e-01
5.902184868e-01,9.36691e-01,9.99999e-01,9.93603e-01,9.42816e-01,9.99898e-01
5.931695792e-01,9.39549e-01,9.99999e-01,9.95472e-01,9.43913e-01,9.99902e-01
5.961354271e-01,9.40253e-01,9.99999e-01,9.95042e-01,9.44990e-01,9.99943e-01
5.991161043e-01,9.42610e-01,9.99999e-01,9.96384e-01,9.46047e-01,9.99982e-01
6.021116848e-01,9.45139e-01,9.99999e-01,9.97948e-01,9.47084e-01,9.99997e-01
6.051222432e-01,9.47117e-01,9.99999e-01,9.98961e-01,9.48101e-01,9.99999e-01
6.081478544e-01,9.48675e-01,9.99999e-01,9.99551e-01,9.49100e-01,9.99999e-01
6.111885937e-01,9.49900e-01,9.99999e-01,9.99810e-01,9.50080e-01,9.99999e-01
6.142445367e-01,9.50961e-01,9.99999e-01,9.99914e-01,9.51041e-01,9.99999e-01
6.173157594e-01,9.51940e-01,9.99999e-01,9.99952e-01,9.51985e-01,9.99999e-01
6.204023382e-01,9.52873e-01,9.99999e-01,9.99959e-01,9.52911e-01,9.99999e-01
6.235043498e-01,9.53651e-01,9.99999e-01,9.99824e-01,9.53819e-01,9.99999e-01
6.266218716e-01,9.53823e-01,9.99999e-01,9.99076e-01,9.54710e-01,9.99993e-01
6.297549810e-01,9.55249e-01,9.99999e-01,9.99661e-01,9.55584e-01,9.99986e-01
6.329037559e-01,9.55794e-01,9.99999e-01,9.99331e-01,9.56442e-01,9.99989e-01
6.360682746e-01,9.56733e-01,9.99999e-01,9.99429e-01,9.57284e-01,9.99993e-01
6.392486160e-01,9.57400e-01,9.99999e-01,9.99261e-01,9.58110e-01,9.99996e-01
6.424448591e-01,9.57965e-01,9.99999e-01,9.99008e-01,9.58920e-01,9.99994e-01
6.456570834e-01,9.55278e-01,9.99999e-01,9.95404e-01,9.59715e-01,9.99971e-01
6.488853688e-01,9.57209e-01,9.99999e-01,9.96649e-01,9.60495e-01,9.99928e-01
6.521297956e-01,9.57921e-01,9.99999e-01,9.96584e-01,9.61260e-01,9.99940e-01
6.553904446e-01,9.58692e-01,9.99999e-01,9.96593e-01,9.62010e-01,9.99955e-01
6.586673968e-01,9.59929e-01,9.99999e-01,9.97087e-01,9.62746e-01,9.99984e-01
6.619607338e-01,9.61902e-01,9.99999e-01,9.98376e-01,9.63469e-01,9.99996e-01
6.652705375e-01,9.63236e-01,9.99999e-01,9.99025e-01,9.64177e-01,9.99997e-01
6.685968902e-01,9.64472e-01,9.99999e-01,9.99585e-01,9.64872e-01,9.99999e-01
6.719398746e-01,9.65352e-01,9.99999e-01,9.99790e-01,9.65554e-01,9.99999e-01
6.752995740e-01,9.66113e-01,9.99999e-01,9.99885e-01,9.66223e-01,9.99999e-01
6.786760719e-01,9.66719e-01,9.99999e-01,9.99834e-01,9.66879e-01,9.99999e-01
6.820694522e-01,9.67248e-01,9.99999e-01,9.99718e-01,9.67522e-01,9.99998e-01
6.854797995e-01,9.67799e-01,9.99999e-01,9.99636e-01,9.68153e-01,9.99996e-01
6.889071985e-01,9.67908e-01,9.99999e-01,9.99114e-01,9.68772e-01,9.99991e-01
6.923517345e-01,9.55442e-01,9.99999e-01,9.85689e-01,9.69380e-01,9.99930e-01
6.958134932e-01,9.62652e-01,9.99999e-01,9.92600e-01,9.69975e-01,9.99847e-01
6.992925606e-01,9.63544e-01,9.99999e-01,9.92907e-01,9.70559e-01,9.99862e-01
7.027890234e-01,9.62562e-01,9.99999e-01,9.91277e-01,9.71132e-01,9.99894e-01
7.063029686e-01,9.64512e-01,9.99999e-01,9.92659e-01,9.71694e-01,9.99947e-01
7.098344834e-01,9.65368e-01,9.99999e-01,9.92956e-01,9.72246e-01,9.99968e-01
7.133836558e-01,9.63560e-01,9.99999e-01,9.90575e-01,9.72786e-01,9.99938e-01
7.169505741e-01,9.01732e-01,9.99999e-01,9.26899e-01,9.73317e-01,9.99517e-01
7.205353270e-01,9.37781e-01,9.99999e-01,9.63794e-01,9.73837e-01,9.99149e-01
7.241380036e-01,9.28776e-01,9.99999e-01,9.53928e-01,9.74347e-01,9.99265e-01
7.277586936e-01,9.33686e-01,9.99999e-01,9.58351e-01,9.74847e-01,9.99399e-01
7.313974871e-01,9.32029e-01,9.99999e-01,9.55864e-01,9.75338e-01,9.99718e-01
7.350544745e-01,9.51946e-01,9.99999e-01,9.75630e-01,9.75819e-01,9.99901e-01
7.387297469e-01,9.58689e-01,9.99999e-01,9.82014e-01,9.76291e-01,9.99954e-01
7.424233956e-01,9.68122e-01,9.99999e-01,9.91169e-01,9.76754e-01,9.99991e-01
7.461355126e-01,9.71966e-01,9.99999e-01,9.94637e-01,9.77208e-01,9.99998e-01
7.498661902e-01,9.75212e-01,9.99999e-01,9.97503e-01,9.77653e-01,9.99998e-01
7.536155211e-01,9.76889e-01,9.99999e-01,9.98773e-01,9.78089e-01,9.99999e-01
7.573835987e-01,9.77900e-01,9.99999e-01,9.99368e-01,9.78517e-01,9.99999e-01
7.611705167e-01,9.78553e-01,9.99999e-01,9.99607e-01,9.78937e-01,9.99999e-01
7.649763693e-01,9.79108e-01,9.99999e-01,9.99753e-01,9.79349e-01,9.99999e-01
7.688012511e-01,9.79585e-01,9.99999e-01,9.99828e-01,9.79753e-01,9.99999e-01
7.726452574e-01,9.80010e-01,9.99999e-01,9.99858e-01,9.80148e-01,9.99999e-01
7.765084837e-01,9.80339e-01,9.99999e-01,9.99798e-01,9.80537e-01,9.99999e-01
7.803910261e-01,9.80064e-01,9.99999e-01,9.99129e-01,9.80917e-01,9.99998e-01
7.842929812e-01,9.78308e-01,9.99999e-01,9.96965e-01,9.81291e-01,9.99993e-01
7.882144461e-01,9.75508e-01,9.99999e-01,9.93777e-01,9.81657e-01,9.99956e-01
7.921555184e-01,9.78597e-01,9.99999e-01,9.96591e-01,9.82016e-01,9.99925e-01
7.961162960e-01,9.76360e-01,9.99999e-01,9.93954e-01,9.82368e-01,9.99928e-01
8.000968774e-01,9.75796e-01,9.99999e-01,9.93034e-01,9.82713e-01,9.99924e-01
8.040973618e-01,9.76144e-01,9.99999e-01,9.93029e-01,9.83052e-01,9.99942e-01
8.081178486e-01,9.67901e-01,9.99999e-01,9.84312e-01,9.83384e-01,9.99941e-01
8.121584379e-01,9.20828e-01,9.99999e-01,9.36283e-01,9.83709e-01,9.99779e-01
8.162192301e-01,9.09598e-01,9.99999e-01,9.25126e-01,9.84028e-01,9.99172e-01
8.203003262e-01,9.45870e-01,9.99999e-01,9.61848e-01,9.84341e-01,9.99031e-01
8.244018279e-01,9.32413e-01,9.99999e-01,9.47680e-01,9.84648e-01,9.99228e-01
8.285238370e-01,9.39551e-01,9.99999e-01,9.54485e-01,9.84949e-01,9.99394e-01
8.326664562e-01,9.39776e-01,9.99999e-01,9.54089e-01,9.85244e-01,9.99749e-01
8.368297885e-01,9.52952e-01,9.99999e-01,9.66995e-01,9.85534e-01,9.99942e-01
8.410139374e-01,9.66329e-01,9.99999e-01,9.80263e-01,9.85817e-01,9.99966e-01
8.452190071e-01,9.76492e-01,9.99999e-01,9.90280e-01,9.86095e-01,9.99979e-01
8.494451021e-01,9.80772e-01,9.99999e-01,9.94342e-01,9.86368e-01,9.99983e-01
8.536923276e-01,9.83327e-01,9.99999e-01,9.96655e-01,9.86636e-01,9.99989e-01
8.579607893e-01,9.84860e-01,9.99999e-01,9.97936e-01,9.86898e-01,9.99997e-01
8.622505932e-01,9.85862e-01,9.99999e-01,9.98690e-01,9.87155e-01,9.99999e-01
8.665618462e-01,9.86606e-01,9.99999e-01,9.99188e-01,9.87407e-01,9.99999e-01
8.708946554e-01,9.86736e-01,9.99999e-01,9.99069e-01,9.87654e-01,9.99998e-01
8.752491287e-01,9.86667e-01,9.99999e-01,9.98756e-01,9.87897e-01,9.99998e-01
8.796253743e-01,9.86427e-01,9.99999e-01,9.98276e-01,9.88134e-01,9.99995e-01
8.840235012e-01,9.86410e-01,9.99999e-01,9.98031e-01,9.88367e-01,9.99987e-01
8.884436187e-01,9.81432e-01,9.99999e-01,9.92787e-01,9.88596e-01,9.99965e-01
8.928858368e-01,9.16418e-01,9.99999e-01,9.26961e-01,9.88820e-01,9.99803e-01
8.973502660e-01,8.64511e-01,9.99999e-01,8.74971e-01,9.89039e-01,9.98993e-01
9.018370173e-01,9.22797e-01,9.99999e-01,9.34297e-01,9.89255e-01,9.98418e-01
9.063462024e-01,9.30329e-01,9.99999e-01,9.41541e-01,9.89466e-01,9.98610e-01
9.108779334e-01,8.99822e-01,9.99999e-01,9.10525e-01,9.89673e-01,9.98555e-01
9.154323231e-01,8.88845e-01,9.99999e-01,8.99008e-01,9.89876e-01,9.98806e-01
9.200094847e-01,9.10392e-01,9.99999e-01,9.20133e-01,9.90075e-01,9.99331e-01
9.246095321e-01,8.68823e-01,9.99999e-01,8.78035e-01,9.90270e-01,9.99229e-01
9.292325798e-01,4.21158e-01,9.99999e-01,4.26492e-01,9.90461e-01,9.97000e-01
9.338787427e-01,3.28433e-01,9.99999e-01,3.35674e-01,9.90648e-01,9.87660e-01
9.385481364e-01,6.27589e-01,9.99999e-01,6.42817e-01,9.90832e-01,9.85341e-01
9.432408771e-01,5.32508e-01,9.99999e-01,5.44226e-01,9.91012e-01,9.87341e-01
9.479570815e-01,4.26498e-01,9.99999e-01,4.34773e-01,9.91189e-01,9.89685e-01
9.526968669e-01,5.23539e-01,9.99999e-01,5.31450e-01,9.91362e-01,9.93695e-01
9.574603512e-01,5.46968e-01,9.99999e-01,5.53413e-01,9.91532e-01,9.96792e-01
9.622476530e-01,6.10034e-01,9.99999e-01,6.16508e-01,9.91699e-01,9.97780e-01
9.670588912e-01,7.48668e-01,9.99999e-01,7.55957e-01,9.91862e-01,9.98481e-01
9.718941857e-01,8.30811e-01,9.99999e-01,8.38429e-01,9.92022e-01,9.98881e-01
9.767536566e-01,8.56349e-01,9.99999e-01,8.63836e-01,9.92179e-01,9.99145e-01
9.816374249e-01,8.90053e-01,9.99999e-01,8.97194e-01,9.92333e-01,9.99703e-01
9.865456120e-01,9.27358e-01,9.99999e-01,9.34438e-01,9.92484e-01,9.99937e-01
9.914783401e-01,9.51846e-01,9.99999e-01,9.58927e-01,9.92632e-01,9.99982e-01
9.964357318e-01,9.70355e-01,9.99999e-01,9.77424e-01,9.92777e-01,9.99989e-01
1.001417910e+00,9.79411e-01,9.99999e-01,9.86410e-01,9.92919e-01,9.99984e-01
1.006425000e+00,9.85316e-01,9.99999e-01,9.92225e-01,9.93058e-01,9.99977e-01
1.011457125e+00,9.88382e-01,9.99999e-01,9.95173e-01,9.93195e-01,9.99979e-01
1.016514411e+00,9.90056e-01,9.99999e-01,9.96718e-01,9.93329e-01,9.99985e-01
1.021596983e+00,9.90848e-01,9.99999e-01,9.97383e-01,9.93460e-01,9.99985e-01
1.026704968e+00,9.91553e-01,9.99999e-01,9.97959e-01,9.93589e-01,9.99990e-01
1.031838492e+00,9.92240e-01,9.99999e-01,9.98517e-01,9.93715e-01,9.99996e-01
1.036997685e+00,9.92963e-01,9.99999e-01,9.99118e-01,9.93839e-01,9.99999e-01
1.042182673e+00,9.92914e-01,9.99999e-01,9.98947e-01,9.93960e-01,9.99999e-01
1.047393587e+00,9.92693e-01,9.99999e-01,9.98605e-01,9.94079e-01,9.99999e-01
1.052630555e+00,9.92292e-01,9.99999e-01,9.98085e-01,9.94196e-01,9.99998e-01
1.057893707e+00,9.91131e-01,9.99999e-01,9.96803e-01,9.94310e-01,9.99998e-01
1.063183176e+00,9.89196e-01,9.99999e-01,9.94747e-01,9.94422e-01,9.99996e-01
1.068499092e+00,9.85797e-01,9.99999e-01,9.91222e-01,9.94532e-01,9.99993e-01
1.073841587e+00,9.84410e-01,9.99999e-01,9.89727e-01,9.94640e-01,9.99986e-01
1.079210795e+00,9.81651e-01,9.99999e-01,9.86870e-01,9.94745e-01,9.99964e-01
1.084606849e+00,9.75046e-01,9.99999e-01,9.80176e-01,9.94849e-01,9.99914e-01
1.090029883e+00,9.66512e-01,9.99999e-01,9.71587e-01,9.94950e-01,9.99824e-01
1.095480033e+00,9.19663e-01,9.99999e-01,9.24531e-01,9.95050e-01,9.99682e-01
1.100957433e+00,8.15189e-01,9.99999e-01,8.19642e-01,9.95147e-01,9.99415e-01
1.106462220e+00,6.02925e-01,9.99999e-01,6.06406e-01,9.95243e-01,9.99009e-01
1.111994531e+00,3.51173e-01,9.99999e-01,3.53747e-01,9.95337e-01,9.97373e-01
1.117554504e+00,1.87165e-01,9.99999e-01,1.89817e-01,9.95428e-01,9.90551e-01
1.123142276e+00,2.97677e-01,9.99999e-01,3.05824e-01,9.95519e-01,9.77740e-01
1.128757988e+00,4.43560e-01,9.99999e-01,4.57272e-01,9.95607e-01,9.74294e-01
1.134401778e+00,2.23291e-01,9.99999e-01,2.29278e-01,9.95693e-01,9.78099e-01
1.140073787e+00,6.07995e-01,9.99999e-01,6.21471e-01,9.95778e-01,9.82462e-01
1.145774156e+00,3.71566e-01,9.99999e-01,3.79201e-01,9.95861e-01,9.83935e-01
1.151503026e+00,3.37470e-01,9.99999e-01,3.41915e-01,9.95943e-01,9.91018e-01
1.157260541e+00,3.95864e-01,9.99999e-01,3.98518e-01,9.96023e-01,9.97305e-01
1.163046844e+00,5.03082e-01,9.99999e-01,5.05437e-01,9.96101e-01,9.99235e-01
1.168862078e+00,6.17003e-01,9.99999e-01,6.19613e-01,9.96178e-01,9.99605e-01
1.174706389e+00,7.40879e-01,9.99999e-01,7.44053e-01,9.96254e-01,9.99477e-01
1.180579921e+00,8.31301e-01,9.99999e-01,8.35023e-01,9.96327e-01,9.99210e-01
1.186482820e+00,8.98960e-01,9.99999e-01,9.02938e-01,9.96400e-01,9.99189e-01
1.192415234e+00,9.38212e-01,9.99999e-01,9.42105e-01,9.96471e-01,9.99392e-01
1.198377311e+00,9.47116e-01,9.99999e-01,9.50949e-01,9.96540e-01,9.99426e-01
1.204369197e+00,9.49847e-01,9.99999e-01,9.53573e-01,9.96608e-01,9.99481e-01
1.210391043e+00,9.52065e-01,9.99999e-01,9.55541e-01,9.96675e-01,9.99684e-01
1.216442998e+00,9.58766e-01,9.99999e-01,9.62086e-01,9.96741e-01,9.99806e-01
1.222525213e+00,9.67123e-01,9.99999e-01,9.70339e-01,9.96805e-01,9.99879e-01
1.228637839e+00,9.76184e-01,9.99999e-01,9.79304e-01,9.96868e-01,9.99943e-01
1.234781029e+00,9.81563e-01,9.99999e-01,9.84601e-01,9.96930e-01,9.99983e-01
1.240954934e+00,9.87249e-01,9.99999e-01,9.90233e-01,9.96990e-01,9.99995e-01
1.247159708e+00,9.89459e-01,9.99999e-01,9.92389e-01,9.97050e-01,9.99996e-01
1.253395507e+00,9.90361e-01,9.99999e-01,9.93237e-01,9.97108e-01,9.99995e-01
1.259662485e+00,9.90747e-01,9.99999e-01,9.93568e-01,9.97165e-01,9.99993e-01
1.265960797e+00,9.86991e-01,9.99999e-01,9.89750e-01,9.97221e-01,9.99989e-01
1.272290601e+00,9.81226e-01,9.99999e-01,9.83923e-01,9.97276e-01,9.99981e-01
1.278652054e+00,9.65684e-01,9.99999e-01,9.68299e-01,9.97329e-01,9.99968e-01
1.285045314e+00,9.40714e-01,9.99999e-01,9.43237e-01,9.97382e-01,9.99941e-01
1.291470541e+00,9.00792e-01,9.99999e-01,9.03201e-01,9.97434e-01,9.99897e-01
1.297927893e+00,8.62894e-01,9.99999e-01,8.65234e-01,9.97484e-01,9.99809e-01
1.304417533e+00,8.41051e-01,9.99999e-01,8.43469e-01,9.97534e-01,9.99596e-01
1.310939621e+00,8.19849e-01,9.99999e-01,8.22516e-01,9.97583e-01,9.99171e-01
1.317494319e+00,8.06579e-01,9.99999e-01,8.09734e-01,9.97630e-01,9.98468e-01
1.324081790e+00,7.26374e-01,9.99999e-01,7.29889e-01,9.97677e-01,9.97500e-01
1.330702199e+00,3.19995e-01,9.99999e-01,3.22112e-01,9.97723e-01,9.95693e-01
1.337355710e+00,4.78416e-02,9.99999e-01,4.83487e-02,9.97768e-01,9.91724e-01
1.344042489e+00,1.76744e-03,9.99999e-01,1.81621e-03,9.97812e-01,9.75280e-01
1.350762701e+00,3.22517e-07,9.99999e-01,3.52129e-07,9.97855e-01,9.17873e-01
1.357516515e+00,3.25149e-10,9.99999e-01,4.19005e-10,9.97897e-01,7.77635e-01
1.364304097e+00,8.69997e-07,9.99999e-01,1.35468e-06,9.97939e-01,6.43542e-01
1.371125618e+00,9.07911e-05,9.99999e-01,1.37846e-04,9.97979e-01,6.59973e-01
1.377981246e+00,2.89872e-04,9.99999e-01,4.14732e-04,9.98019e-01,7.00324e-01
1.384871152e+00,3.49948e-06,9.99999e-01,4.88653e-06,9.98058e-01,7.17540e-01
1.391795508e+00,1.18437e-06,9.99999e-01,1.62825e-06,9.98096e-01,7.28770e-01
1.398754485e+00,1.61727e-05,9.99999e-01,2.10426e-05,9.98134e-01,7.70006e-01
1.405748258e+00,1.68631e-05,9.99999e-01,1.96828e-05,9.98171e-01,8.58311e-01
1.412776999e+00,1.77670e-05,9.99999e-01,1.90848e-05,9.98207e-01,9.32618e-01
1.419840884e+00,3.74300e-05,9.99999e-01,3.86605e-05,9.98242e-01,9.69875e-01
1.426940089e+00,4.08018e-04,9.99999e-01,4.18331e-04,9.98277e-01,9.77029e-01
1.434074789e+00,2.31871e-03,9.99999e-01,2.38720e-03,9.98311e-01,9.72951e-01
1.441245163e+00,7.70684e-03,9.99999e-01,7.95233e-03,9.98344e-01,9.70735e-01
1.448451389e+00,3.32392e-02,9.99999e-01,3.41704e-02,9.98377e-01,9.74328e-01
1.455693646e+00,9.90639e-02,9.99999e-01,1.01250e-01,9.98409e-01,9.79967e-01
1.462972114e+00,1.31304e-01,9.99999e-01,1.34072e-01,9.98440e-01,9.80885e-01
1.470286975e+00,9.52053e-02,9.99999e-01,9.71771e-02,9.98471e-01,9.81207e-01
