#,Wave/freq,Total,N2,H2O,Rayleigh,CIA
4.000000000e-01,5.11134e-01,9.99999e-01,9.99923e-01,5.11173e-01,9.99999e-01
4.020000000e-01,5.17976e-01,9.99999e-01,9.99952e-01,5.18000e-01,9.99999e-01
4.040100000e-01,5.24764e-01,9.99999e-01,9.99979e-01,5.24775e-01,9.99999e-01
4.060300500e-01,5.31498e-01,9.99999e-01,9.99994e-01,5.31501e-01,9.99999e-01
4.080602003e-01,5.38177e-01,9.99999e-01,9.99998e-01,5.38178e-01,9.99999e-01
4.101005013e-01,5.44805e-01,9.99999e-01,9.99999e-01,5.44805e-01,9.99999e-01
4.121510038e-01,5.51378e-01,9.99999e-01,9.99996e-01,5.51380e-01,9.99999e-01
4.142117588e-01,5.57890e-01,9.99999e-01,9.99978e-01,5.57902e-01,9.99999e-01
4.162828176e-01,5.64317e-01,9.99999e-01,9.99905e-01,5.64370e-01,9.99999e-01
4.183642317e-01,5.70751e-01,9.99999e-01,9.99943e-01,5.70783e-01,9.99999e-01
4.204560528e-01,5.77121e-01,9.99999e-01,9.99965e-01,5.77140e-01,9.99999e-01
4.225583331e-01,5.83433e-01,9.99999e-01,9.99986e-01,5.83441e-01,9.99999e-01
4.246711247e-01,5.89677e-01,9.99999e-01,9.99989e-01,5.89683e-01,9.99999e-01
4.267944804e-01,5.95858e-01,9.99999e-01,9.99984e-01,5.95867e-01,9.99999e-01
4.289284528e-01,6.01985e-01,9.99999e-01,9.99987e-01,6.01992e-01,9.99999e-01
4.310730950e-01,6.08054e-01,9.99999e-01,9.99994e-01,6.08057e-01,9.99999e-01
4.332284605e-01,6.14061e-01,9.99999e-01,9.99998e-01,6.14062e-01,9.99999e-01
4.353946028e-01,6.20005e-01,9.99999e-01,9.99998e-01,6.20005e-01,9.99999e-01
4.375715758e-01,6.25882e-01,9.99999e-01,9.99990e-01,6.25887e-01,9.99999e-01
4.397594337e-01,6.31655e-01,9.99999e-01,9.99916e-01,6.31707e-01,9.99999e-01
4.419582309e-01,6.37197e-01,9.99999e-01,9.99579e-01,6.37465e-01,9.99999e-01
4.441680220e-01,6.42950e-01,9.99999e-01,9.99674e-01,6.43159e-01,9.99999e-01
4.463888621e-01,6.48571e-01,9.99999e-01,9.99659e-01,6.48791e-01,9.99999e-01
4.486208064e-01,6.54221e-01,9.99999e-01,9.99788e-01,6.54359e-01,9.99999e-01
4.508639105e-01,6.59799e-01,9.99999e-01,9.99900e-01,6.59864e-01,9.99999e-01
4.531182300e-01,6.65279e-01,9.99999e-01,9.99960e-01,6.65305e-01,9.99999e-01
4.553838212e-01,6.70664e-01,9.99999e-01,9.99973e-01,6.70681e-01,9.99999e-01
4.576607403e-01,6.75986e-01,9.99999e-01,9.99987e-01,6.75994e-01,9.99999e-01
4.599490440e-01,6.81237e-01,9.99999e-01,9.99990e-01,6.81243e-01,9.99999e-01
4.622487892e-01,6.86427e-01,9.99999e-01,9.99998e-01,6.86428e-01,9.99999e-01
4.645600332e-01,6.91544e-01,9.99999e-01,9.99993e-01,6.91548e-01,9.99999e-01
4.668828333e-01,6.96535e-01,9.99999e-01,9.99899e-01,6.96605e-01,9.99999e-01
4.692172475e-01,7.01448e-01,9.99999e-01,9.99786e-01,7.01597e-01,9.99999e-01
4.715633337e-01,7.06427e-01,9.99999e-01,9.99860e-01,7.06525e-01,9.99999e-01
4.739211504e-01,7.11296e-01,9.99999e-01,9.99866e-01,7.11390e-01,9.99999e-01
4.762907561e-01,7.16142e-01,9.99999e-01,9.99930e-01,7.16191e-01,9.99999e-01
4.786722099e-01,7.20909e-01,9.99999e-01,9.99971e-01,7.20929e-01,9.99999e-01
4.810655710e-01,7.25598e-01,9.99999e-01,9.99991e-01,7.25604e-01,9.99999e-01
4.834708988e-01,7.30156e-01,9.99999e-01,9.99917e-01,7.30216e-01,9.99999e-01
4.858882533e-01,7.34654e-01,9.99999e-01,9.99848e-01,7.34765e-01,9.99999e-01
4.883176946e-01,7.39158e-01,9.99999e-01,9.99873e-01,7.39251e-01,9.99999e-01
4.907592831e-01,7.43592e-01,9.99999e-01,9.99885e-01,7.43676e-01,9.99999e-01
4.932130795e-01,7.47979e-01,9.99999e-01,9.99918e-01,7.48039e-01,9.99999e-01
4.956791449e-01,7.52309e-01,9.99999e-01,9.99956e-01,7.52341e-01,9.99999e-01
4.981575406e-01,7.56419e-01,9.99999e-01,9.99785e-01,7.56582e-01,9.99999e-01
5.006483283e-01,7.60335e-01,9.99999e-01,9.99442e-01,7.60762e-01,9.99995e-01
5.031515699e-01,7.62708e-01,9.99999e-01,9.97186e-01,7.64882e-01,9.99969e-01
5.056673278e-01,7.67775e-01,9.99999e-01,9.98516e-01,7.68942e-01,9.99965e-01
5.081956644e-01,7.71481e-01,9.99999e-01,9.98128e-01,7.72943e-01,9.99978e-01
5.107366428e-01,7.75901e-01,9.99999e-01,9.98736e-01,7.76885e-01,9.99995e-01
5.132903260e-01,7.80205e-01,9.99999e-01,9.99277e-01,7.80769e-01,9.99999e-01
5.158567776e-01,7.84356e-01,9.99999e-01,9.99694e-01,7.84595e-01,9.99999e-01
5.184360615e-01,7.88267e-01,9.99999e-01,9.99877e-01,7.88363e-01,9.99999e-01
5.210282418e-01,7.92039e-01,9.99999e-01,9.99953e-01,7.92075e-01,9.99999e-01
5.236333830e-01,7.95584e-01,9.99999e-01,9.99816e-01,7.95730e-01,9.99998e-01
5.262515499e-01,7.99237e-01,9.99999e-01,9.99884e-01,7.99330e-01,9.99997e-01
5.288828077e-01,8.02789e-01,9.99999e-01,9.99894e-01,8.02874e-01,9.99998e-01
5.315272217e-01,8.06289e-01,9.99999e-01,9.99907e-01,8.06364e-01,9.99999e-01
5.341848578e-01,8.09750e-01,9.99999e-01,9.99938e-01,8.09799e-01,9.99999e-01
5.368557821e-01,8.13006e-01,9.99999e-01,9.99785e-01,8.13180e-01,9.99999e-01
5.395400610e-01,8.15872e-01,9.99999e-01,9.99225e-01,8.16509e-01,9.99993e-01
5.422377613e-01,8.18955e-01,9.99999e-01,9.99004e-01,8.19785e-01,9.99981e-01
5.449489501e-01,8.22230e-01,9.99999e-01,9.99071e-01,8.23009e-01,9.99980e-01
5.476736949e-01,8.25497e-01,9.99999e-01,9.99180e-01,8.26182e-01,9.99990e-01
5.504120634e-01,8.28808e-01,9.99999e-01,9.99405e-01,8.29303e-01,9.99996e-01
5.531641237e-01,8.32126e-01,9.99999e-01,9.99700e-01,8.32375e-01,9.99999e-01
5.559299443e-01,8.35277e-01,9.99999e-01,9.99855e-01,8.35397e-01,9.99999e-01
5.587095940e-01,8.38294e-01,9.99999e-01,9.99908e-01,8.38370e-01,9.99999e-01
5.615031420e-01,8.41210e-01,9.99999e-01,9.99898e-01,8.41295e-01,9.99999e-01
5.643106577e-01,8.44073e-01,9.99999e-01,9.99884e-01,8.44171e-01,9.99998e-01
5.671322110e-01,8.45804e-01,9.99999e-01,9.98599e-01,8.47001e-01,9.99987e-01
5.699678720e-01,8.48498e-01,9.99999e-01,9.98525e-01,8.49783e-01,9.99961e-01
5.728177114e-01,8.51179e-01,9.99999e-01,9.98457e-01,8.52520e-01,9.99968e-01
5.756818000e-01,8.53986e-01,9.99999e-01,9.98585e-01,8.55211e-01,9.99981e-01
5.785602090e-01,8.56796e-01,9.99999e-01,9.98768e-01,8.57857e-01,9.99994e-01
5.814530100e-01,8.59392e-01,9.99999e-01,9.98761e-01,8.60459e-01,9.99996e-01
5.843602750e-01,8.61734e-01,9.99999e-01,9.98520e-01,8.63017e-01,9.99991e-01
5.872820764e-01,8.54493e-01,9.99999e-01,9.87333e-01,8.65532e-01,9.99910e-01
5.902184868e-01,8.54515e-01,9.99999e-01,9.84698e-01,8.68005e-01,9.99756e-01
5.931695792e-01,8.60804e-01,9.99999e-01,9.89167e-01,8.70435e-01,9.99765e-01
5.961354271e-01,8.62349e-01,9.99999e-01,9.88131e-01,8.72824e-01,9.99864e-01
5.991161043e-01,8.67550e-01,9.99999e-01,9.91331e-01,8.75172e-01,9.99957e-01
6.021116848e-01,8.73155e-01,9.99999e-01,9.95075e-01,8.77480e-01,9.99994e-01
6.051222432e-01,8.77554e-01,9.99999e-01,9.97505e-01,8.79748e-01,9.99999e-01
6.081478544e-01,8.81028e-01,9.99999e-01,9.98922e-01,8.81978e-01,9.99999e-01
6.111885937e-01,8.83766e-01,9.99999e-01,9.99544e-01,8.84168e-01,9.99999e-01
6.142445367e-01,8.86141e-01,9.99999e-01,9.99796e-01,8.86321e-01,9.99999e-01
6.173157594e-01,8.88336e-01,9.99999e-01,9.99887e-01,8.88436e-01,9.99999e-01
6.204023382e-01,8.90430e-01,9.99999e-01,9.99904e-01,8.90514e-01,9.99999e-01
6.235043498e-01,8.92180e-01,9.99999e-01,9.99578e-01,8.92556e-01,9.99998e-01
6.266218716e-01,8.92566e-01,9.99999e-01,9.97783e-01,8.94562e-01,9.99983e-01
6.297549810e-01,8.95777e-01,9.99999e-01,9.99186e-01,8.96533e-01,9.99968e-01
6.329037559e-01,8.97005e-01,9.99999e-01,9.98394e-01,8.98470e-01,9.99974e-01
6.360682746e-01,8.99126e-01,9.99999e-01,9.98630e-01,9.00372e-01,9.99984e-01
6.392486160e-01,9.00635e-01,9.99999e-01,9.98226e-01,9.02240e-01,9.99992e-01
6.424448591e-01,9.01915e-01,9.99999e-01,9.97620e-01,9.04075e-01,9.99989e-01
6.456570834e-01,8.95862e-01,9.99999e-01,9.89003e-01,9.05878e-01,9.99938e-01
6.488853688e-01,9.00208e-01,9.99999e-01,9.91971e-01,9.07648e-01,9.99828e-01
6.521297956e-01,9.01822e-01,9.99999e-01,9.91820e-01,9.09387e-01,9.99858e-01
6.553904446e-01,9.03562e-01,9.99999e-01,9.91835e-01,9.11095e-01,9.99894e-01
6.586673968e-01,9.06367e-01,9.99999e-01,9.93016e-01,9.12772e-01,9.99964e-01
6.619607338e-01,9.10848e-01,9.99999e-01,9.96102e-01,9.14419e-01,9.99992e-01
6.652705375e-01,9.13889e-01,9.99999e-01,9.97658e-01,9.16036e-01,9.99995e-01
6.685968902e-01,9.16711e-01,9.99999e-01,9.99004e-01,9.17625e-01,9.99998e-01
6.719398746e-01,9.18721e-01,9.99999e-01,9.99496e-01,9.19184e-01,9.99999e-01
6.752995740e-01,9.20464e-01,9.99999e-01,9.99726e-01,9.20715e-01,9.99999e-01
6.786760719e-01,9.21854e-01,9.99999e-01,9.99603e-01,9.22219e-01,9.99998e-01
6.820694522e-01,9.23067e-01,9.99999e-01,9.99323e-01,9.23695e-01,9.99996e-01
6.854797995e-01,9.24330e-01,9.99999e-01,9.99127e-01,9.25144e-01,9.99991e-01
6.889071985e-01,9.24583e-01,9.99999e-01,9.97877e-01,9.26567e-01,9.99980e-01
6.923517345e-01,8.96305e-01,9.99999e-01,9.66042e-01,9.27964e-01,9.99834e-01
6.958134932e-01,9.12592e-01,9.99999e-01,9.82342e-01,9.29335e-01,9.99633e-01
6.992925606e-01,9.14620e-01,9.99999e-01,9.83065e-01,9.30682e-01,9.99669e-01
7.027890234e-01,9.12374e-01,9.99999e-01,9.79184e-01,9.32003e-01,9.99747e-01
7.063029686e-01,9.16812e-01,9.99999e-01,9.82455e-01,9.33300e-01,9.99874e-01
7.098344834e-01,9.18765e-01,9.99999e-01,9.83157e-01,9.34574e-01,9.99925e-01
7.133836558e-01,9.14693e-01,9.99999e-01,9.77563e-01,9.35824e-01,9.99852e-01
7.169505741e-01,7.81995e-01,9.99999e-01,8.35494e-01,9.37051e-01,9.98841e-01
7.205353270e-01,8.57627e-01,9.99999e-01,9.15936e-01,9.38255e-01,9.97957e-01
7.241380036e-01,8.38102e-01,9.99999e-01,8.93708e-01,9.39437e-01,9.98235e-01
7.277586936e-01,8.48729e-01,9.99999e-01,9.03633e-01,9.40597e-01,9.98557e-01
7.313974871e-01,8.44823e-01,9.99999e-01,8.97698e-01,9.41735e-01,9.99323e-01
7.350544745e-01,8.88532e-01,9.99999e-01,9.42607e-01,9.42852e-01,9.99764e-01
7.387297469e-01,9.03616e-01,9.99999e-01,9.57374e-01,9.43949e-01,9.99891e-01
7.424233956e-01,9.25079e-01,9.99999e-01,9.78913e-01,9.45025e-01,9.99978e-01
7.461355126e-01,9.33930e-01,9.99999e-01,9.87159e-01,9.46081e-01,9.99995e-01
7.498661902e-01,9.41441e-01,9.99999e-01,9.94007e-01,9.47118e-01,9.99998e-01
7.536155211e-01,9.45340e-01,9.99999e-01,9.97053e-01,9.48134e-01,9.99998e-01
7.573835987e-01,9.47692e-01,9.99999e-01,9.98482e-01,9.49132e-01,9.99999e-01
7.611705167e-01,9.49216e-01,9.99999e-01,9.99056e-01,9.50112e-01,9.99999e-01
7.649763693e-01,9.50510e-01,9.99999e-01,9.99408e-01,9.51073e-01,9.99999e-01
7.688012511e-01,9.51623e-01,9.99999e-01,9.99587e-01,9.52015e-01,9.99999e-01
7.726452574e-01,9.52617e-01,9.99999e-01,9.99660e-01,9.52941e-01,9.99999e-01
7.765084837e-01,9.53387e-01,9.99999e-01,9.99516e-01,9.53848e-01,9.99998e-01
7.803910261e-01,9.52744e-01,9.99999e-01,9.97911e-01,9.54739e-01,9.99997e-01
7.842929812e-01,9.48653e-01,9.99999e-01,9.92729e-01,9.55613e-01,9.99986e-01
7.882144461e-01,9.42139e-01,9.99999e-01,9.85117e-01,9.56470e-01,9.99896e-01
7.921555184e-01,9.49321e-01,9.99999e-01,9.91830e-01,9.57311e-01,9.99821e-01
7.961162960e-01,9.44131e-01,9.99999e-01,9.85549e-01,9.58137e-01,9.99829e-01
8.000968774e-01,9.42804e-01,9.99999e-01,9.83343e-01,9.58946e-01,9.99818e-01
8.040973618e-01,9.43618e-01,9.99999e-01,9.83336e-01,9.59741e-01,9.99861e-01
8.081178486e-01,9.24687e-01,9.99999e-01,9.62828e-01,9.60520e-01,9.99859e-01
8.121584379e-01,8.21420e-01,9.99999e-01,8.54954e-01,9.61284e-01,9.99470e-01
8.162192301e-01,7.98018e-01,9.99999e-01,8.31162e-01,9.62034e-01,9.98012e-01
8.203003262e-01,8.77116e-01,9.99999e-01,9.13157e-01,9.62770e-01,9.97673e-01
8.244018279e-01,8.48946e-01,9.99999e-01,8.82748e-01,9.63492e-01,9.98147e-01
8.285238370e-01,8.61477e-01,9.99999e-01,8.94764e-01,9.64200e-01,9.98544e-01
8.326664562e-01,8.62105e-01,9.99999e-01,8.94008e-01,9.64895e-01,9.99397e-01
8.368297885e-01,8.90844e-01,9.99999e-01,9.22729e-01,9.65576e-01,9.99862e-01
8.410139374e-01,9.21039e-01,9.99999e-01,9.53292e-01,9.66244e-01,9.99919e-01
8.452190071e-01,9.44429e-01,9.99999e-01,9.76806e-01,9.66900e-01,9.99951e-01
8.494451021e-01,9.54403e-01,9.99999e-01,9.86456e-01,9.67543e-01,9.99960e-01
8.536923276e-01,9.60387e-01,9.99999e-01,9.91980e-01,9.68174e-01,9.99976e-01
8.579607893e-01,9.63991e-01,9.99999e-01,9.95048e-01,9.68792e-01,9.99993e-01
8.622505932e-01,9.66350e-01,9.99999e-01,9.96854e-01,9.69399e-01,9.99998e-01
8.665618462e-01,9.68104e-01,9.99999e-01,9.98050e-01,9.69994e-01,9.99998e-01
8.708946554e-01,9.68410e-01,9.99999e-01,9.97766e-01,9.70578e-01,9.99998e-01
8.752491287e-01,9.68249e-01,9.99999e-01,9.97014e-01,9.71151e-01,9.99996e-01
8.796253743e-01,9.67685e-01,9.99999e-01,9.95863e-01,9.71713e-01,9.99990e-01
8.840235012e-01,9.67645e-01,9.99999e-01,9.95277e-01,9.72264e-01,9.99970e-01
8.884436187e-01,9.56042e-01,9.99999e-01,9.82849e-01,9.72804e-01,9.99917e-01
8.928858368e-01,8.12955e-01,9.99999e-01,8.35621e-01,9.73334e-01,9.99527e-01
8.973502660e-01,7.08999e-01,9.99999e-01,7.29797e-01,9.73854e-01,9.97582e-01
9.018370173e-01,8.26889e-01,9.99999e-01,8.51879e-01,9.74363e-01,9.96202e-01
9.063462024e-01,8.42586e-01,9.99999e-01,8.67204e-01,9.74863e-01,9.96663e-01
9.108779334e-01,7.78803e-01,9.99999e-01,8.01259e-01,9.75354e-01,9.96532e-01
9.154323231e-01,7.55879e-01,9.99999e-01,7.76823e-01,9.75835e-01,9.97133e-01
9.200094847e-01,8.00542e-01,9.99999e-01,8.21288e-01,9.76306e-01,9.98394e-01
9.246095321e-01,7.23655e-01,9.99999e-01,7.42239e-01,9.76769e-01,9.98150e-01
9.292325798e-01,1.54151e-01,9.99999e-01,1.58887e-01,9.77222e-01,9.92806e-01
9.338787427e-01,8.74936e-02,9.99999e-01,9.22031e-02,9.77667e-01,9.70596e-01
9.385481364e-01,3.57000e-01,9.99999e-01,3.78180e-01,9.78103e-01,9.65127e-01
9.432408771e-01,2.58782e-01,9.99999e-01,2.72682e-01,9.78531e-01,9.69842e-01
9.479570815e-01,1.56923e-01,9.99999e-01,1.64342e-01,9.78951e-01,9.75385e-01
9.526968669e-01,2.37468e-01,9.99999e-01,2.46186e-01,9.79362e-01,9.84913e-01
9.574603512e-01,2.54740e-01,9.99999e-01,2.62016e-01,9.79766e-01,9.92307e-01
9.622476530e-01,3.21122e-01,9.99999e-01,3.29375e-01,9.80161e-01,9.94674e-01
9.670588912e-01,5.11065e-01,9.99999e-01,5.23109e-01,9.80549e-01,9.96354e-01
9.718941857e-01,6.44090e-01,9.99999e-01,6.58378e-01,9.80930e-01,9.97315e-01
9.767536566e-01,6.91695e-01,9.99999e-01,7.06323e-01,9.81303e-01,9.97947e-01
9.816374249e-01,7.57150e-01,9.99999e-01,7.71836e-01,9.81669e-01,9.99289e-01
9.865456120e-01,8.34715e-01,9.99999e-01,8.50116e-01,9.82028e-01,9.99851e-01
9.914783401e-01,8.88272e-01,9.99999e-01,9.04241e-01,9.82379e-01,9.99958e-01
9.964357318e-01,9.30275e-01,9.99999e-01,9.46651e-01,9.82724e-01,9.99975e-01
1.001417910e+00,9.51236e-01,9.99999e-01,9.67659e-01,9.83063e-01,9.99962e-01
1.006425000e+00,9.65069e-01,9.99999e-01,9.81416e-01,9.83394e-01,9.99947e-01
1.011457125e+00,9.72299e-01,9.99999e-01,9.88437e-01,9.83720e-01,9.99951e-01
1.016514411e+00,9.76263e-01,9.99999e-01,9.92131e-01,9.84039e-01,9.99965e-01
1.021596983e+00,9.78141e-01,9.99999e-01,9.93724e-01,9.84352e-01,9.99965e-01
1.026704968e+00,9.79815e-01,9.99999e-01,9.95101e-01,9.84658e-01,9.99978e-01
1.031838492e+00,9.81447e-01,9.99999e-01,9.96440e-01,9.84959e-01,9.99993e-01
1.036997685e+00,9.83167e-01,9.99999e-01,9.97882e-01,9.85254e-01,9.99998e-01
1.042182673e+00,9.83052e-01,9.99999e-01,9.97472e-01,9.85543e-01,9.99999e-01
1.047393587e+00,9.82526e-01,9.99999e-01,9.96651e-01,9.85826e-01,9.99998e-01
1.052630555e+00,9.81574e-01,9.99999e-01,9.95406e-01,9.86104e-01,9.99998e-01
1.057893707e+00,9.78818e-01,9.99999e-01,9.92338e-01,9.86377e-01,9.99996e-01
1.063183176e+00,9.74236e-01,9.99999e-01,9.87430e-01,9.86644e-01,9.99992e-01
1.068499092e+00,9.66221e-01,9.99999e-01,9.79053e-01,9.86906e-01,9.99985e-01
1.073841587e+00,9.62990e-01,9.99999e-01,9.75542e-01,9.87163e-01,9.99968e-01
1.079210795e+00,9.56504e-01,9.99999e-01,9.68776e-01,9.87415e-01,9.99915e-01
1.084606849e+00,9.41183e-01,9.99999e-01,9.53133e-01,9.87662e-01,9.99796e-01
1.090029883e+00,9.21711e-01,9.99999e-01,9.33388e-01,9.87904e-01,9.99578e-01
1.095480033e+00,8.18585e-01,9.99999e-01,8.29040e-01,9.88142e-01,9.99237e-01
1.100957433e+00,6.16592e-01,9.99999e-01,6.24720e-01,9.88375e-01,9.98597e-01
1.106462220e+00,3.13698e-01,9.99999e-01,3.18070e-01,9.88603e-01,9.97621e-01
1.111994531e+00,9.47120e-02,9.99999e-01,9.63893e-02,9.88827e-01,9.93699e-01
1.117554504e+00,2.53284e-02,9.99999e-01,2.62000e-02,9.89046e-01,9.77440e-01
1.123142276e+00,7.86018e-02,9.99999e-01,8.38727e-02,9.89262e-01,9.47327e-01
1.128757988e+00,1.62551e-01,9.99999e-01,1.74893e-01,9.89472e-01,9.39321e-01
1.134401778e+00,7.34449e-02,9.99999e-01,7.82677e-02,9.89679e-01,9.48165e-01
1.140073787e+00,3.17947e-01,9.99999e-01,3.35150e-01,9.89882e-01,9.58364e-01
1.145774156e+00,1.15121e-01,9.99999e-01,1.20890e-01,9.90081e-01,9.61820e-01
1.151503026e+00,9.35103e-02,9.99999e-01,9.64985e-02,9.90276e-01,9.78547e-01
1.157260541e+00,1.19713e-01,9.99999e-01,1.21651e-01,9.90467e-01,9.93536e-01
1.163046844e+00,2.05281e-01,9.99999e-01,2.07598e-01,9.90654e-01,9.98163e-01
1.168862078e+00,3.20274e-01,9.99999e-01,3.23542e-01,9.90838e-01,9.99053e-01
1.174706389e+00,4.91855e-01,9.99999e-01,4.96936e-01,9.91018e-01,9.98745e-01
1.180579921e+00,6.44399e-01,9.99999e-01,6.51358e-01,9.91195e-01,9.98103e-01
1.186482820e+00,7.74920e-01,9.99999e-01,7.83191e-01,9.91368e-01,9.98053e-01
1.192415234e+00,8.58059e-01,9.99999e-01,8.66644e-01,9.91538e-01,9.98542e-01
1.198377311e+00,8.77799e-01,9.99999e-01,8.86361e-01,9.91704e-01,9.98622e-01
1.204369197e+00,8.84160e-01,9.99999e-01,8.92520e-01,9.91867e-01,9.98753e-01
1.210391043e+00,8.88932e-01,9.99999e-01,8.96755e-01,9.92027e-01,9.99241e-01
1.216442998e+00,9.03987e-01,9.99999e-01,9.11530e-01,9.92184e-01,9.99535e-01
1.222525213e+00,9.22879e-01,9.99999e-01,9.30272e-01,9.92338e-01,9.99711e-01
1.228637839e+00,9.43748e-01,9.99999e-01,9.51017e-01,9.92489e-01,9.99865e-01
1.234781029e+00,9.56285e-01,9.99999e-01,9.63415e-01,9.92637e-01,9.99961e-01
1.240954934e+00,9.69639e-01,9.99999e-01,9.76699e-01,9.92781e-01,9.99988e-01
1.247159708e+00,9.74856e-01,9.99999e-01,9.81809e-01,9.92924e-01,9.99992e-01
1.253395507e+00,9.76993e-01,9.99999e-01,9.83826e-01,9.93063e-01,9.99990e-01
1.259662485e+00,9.77909e-01,9.99999e-01,9.84618e-01,9.93199e-01,9.99985e-01
1.265960797e+00,9.69032e-01,9.99999e-01,9.75558e-01,9.93333e-01,9.99975e-01
1.272290601e+00,9.55524e-01,9.99999e-01,9.61850e-01,9.93464e-01,9.99957e-01
1.278652054e+00,9.19763e-01,9.99999e-01,9.25762e-01,9.93593e-01,9.99924e-01
1.285045314e+00,8.64221e-01,9.99999e-01,8.69804e-01,9.93719e-01,9.99859e-01
1.291470541e+00,7.79492e-01,9.99999e-01,7.84512e-01,9.93843e-01,9.99754e-01
1.297927893e+00,7.04538e-01,9.99999e-01,7.09141e-01,9.93964e-01,9.99541e-01
1.304417533e+00,6.64185e-01,9.99999e-01,6.68786e-01,9.94083e-01,9.99030e-01
1.310939621e+00,6.25659e-01,9.99999e-01,6.30563e-01,9.94200e-01,9.98010e-01
1.317494319e+00,6.02381e-01,9.99999e-01,6.08061e-01,9.94314e-01,9.96322e-01
1.324081790e+00,4.75387e-01,9.99999e-01,4.80936e-01,9.94426e-01,9.94002e-01
1.330702199e+00,1.17976e-01,9.99999e-01,1.19861e-01,9.94536e-01,9.89681e-01
1.337355710e+00,1.59611e-03,9.99999e-01,1.63708e-03,9.94643e-01,9.80223e-01
1.344042489e+00,2.34656e-05,9.99999e-01,2.50522e-05,9.94749e-01,9.41609e-01
1.350762701e+00,8.28667e-15,9.99999e-01,1.02348e-14,9.94852e-01,8.13843e-01
1.357516515e+00,5.45813e-22,9.99999e-01,1.00412e-21,9.94953e-01,5.46332e-01
1.364304097e+00,6.20390e-14,9.99999e-01,1.79865e-13,9.95053e-01,3.46635e-01
1.371125618e+00,6.10441e-09,9.99999e-01,1.66557e-08,9.95150e-01,3.68291e-01
1.377981246e+00,2.24647e-08,9.99999e-01,5.31406e-08,9.95246e-01,4.24759e-01
1.384871152e+00,9.69649e-12,9.99999e-01,2.16345e-11,9.95340e-01,4.50293e-01
1.391795508e+00,6.16616e-14,9.99999e-01,1.32525e-13,9.95431e-01,4.67418e-01
1.398754485e+00,5.89715e-11,9.99999e-01,1.11027e-10,9.95521e-01,5.33536e-01
1.405748258e+00,8.46774e-11,9.99999e-01,1.22794e-10,9.95610e-01,6.92630e-01
1.412776999e+00,1.48170e-10,9.99999e-01,1.75976e-10,9.95696e-01,8.45624e-01
1.419840884e+00,2.89936e-10,9.99998e-01,3.13378e-10,9.95781e-01,9.29114e-01
1.426940089e+00,2.80514e-07,9.99998e-01,2.97860e-07,9.95864e-01,9.45674e-01
1.434074789e+00,2.93579e-06,9.99998e-01,3.14857e-06,9.95946e-01,9.36212e-01
1.441245163e+00,2.85614e-05,9.99999e-01,3.07974e-05,9.96026e-01,9.31095e-01
1.448451389e+00,7.93880e-04,9.99998e-01,8.48395e-04,9.96104e-01,9.39401e-01
1.455693646e+00,7.62879e-03,9.99999e-01,8.03973e-03,9.96181e-01,9.52523e-01
1.462972114e+00,1.12785e-02,9.99999e-01,1.18584e-02,9.96256e-01,9.54669e-01
1.470286975e+00,5.82043e-03,9.99999e-01,6.11442e-03,9.96330e-01,9.55424e-01
