#,Wave/freq,Total,N2,H2O,Rayleigh,CIA
4.000000000e-01,5.95973e-01,9.99999e-01,9.99941e-01,5.96007e-01,9.99999e-01
4.020000000e-01,6.02116e-01,9.99999e-01,9.99963e-01,6.02137e-01,9.99999e-01
4.040100000e-01,6.08192e-01,9.99999e-01,9.99984e-01,6.08201e-01,9.99999e-01
4.060300500e-01,6.14202e-01,9.99999e-01,9.99995e-01,6.14204e-01,9.99999e-01
4.080602003e-01,6.20146e-01,9.99999e-01,9.99998e-01,6.20146e-01,9.99999e-01
4.101005013e-01,6.26027e-01,9.99999e-01,9.99999e-01,6.26027e-01,9.99999e-01
4.121510038e-01,6.31844e-01,9.99999e-01,9.99997e-01,6.31845e-01,9.99999e-01
4.142117588e-01,6.37591e-01,9.99999e-01,9.99983e-01,6.37601e-01,9.99999e-01
4.162828176e-01,6.43248e-01,9.99999e-01,9.99927e-01,6.43294e-01,9.99999e-01
4.183642317e-01,6.48896e-01,9.99999e-01,9.99956e-01,6.48924e-01,9.99999e-01
4.204560528e-01,6.54474e-01,9.99999e-01,9.99973e-01,6.54491e-01,9.99999e-01
4.225583331e-01,6.59988e-01,9.99999e-01,9.99989e-01,6.59994e-01,9.99999e-01
4.246711247e-01,6.65428e-01,9.99999e-01,9.99991e-01,6.65433e-01,9.99999e-01
4.267944804e-01,6.70801e-01,9.99999e-01,9.99987e-01,6.70809e-01,9.99999e-01
4.289284528e-01,6.76114e-01,9.99999e-01,9.99990e-01,6.76120e-01,9.99999e-01
4.310730950e-01,6.81365e-01,9.99999e-01,9.99995e-01,6.81367e-01,9.99999e-01
4.332284605e-01,6.86550e-01,9.99999e-01,9.99998e-01,6.86550e-01,9.99999e-01
4.353946028e-01,6.91669e-01,9.99999e-01,9.99999e-01,6.91669e-01,9.99999e-01
4.375715758e-01,6.96719e-01,9.99999e-01,9.99992e-01,6.96724e-01,9.99999e-01
4.397594337e-01,7.01671e-01,9.99999e-01,9.99936e-01,7.01715e-01,9.99999e-01
4.419582309e-01,7.06415e-01,9.99999e-01,9.99678e-01,7.06642e-01,9.99999e-01
4.441680220e-01,7.11326e-01,9.99999e-01,9.99747e-01,7.11505e-01,9.99999e-01
4.463888621e-01,7.16117e-01,9.99999e-01,9.99737e-01,7.16305e-01,9.99999e-01
4.486208064e-01,7.20924e-01,9.99999e-01,9.99836e-01,7.21041e-01,9.99999e-01
4.508639105e-01,7.25659e-01,9.99999e-01,9.99923e-01,7.25714e-01,9.99999e-01
4.531182300e-01,7.30303e-01,9.99999e-01,9.99969e-01,7.30325e-01,9.99999e-01
4.553838212e-01,7.34857e-01,9.99999e-01,9.99979e-01,7.34872e-01,9.99999e-01
4.576607403e-01,7.39351e-01,9.99999e-01,9.99990e-01,7.39358e-01,9.99999e-01
4.599490440e-01,7.43776e-01,9.99999e-01,9.99992e-01,7.43781e-01,9.99999e-01
4.622487892e-01,7.48142e-01,9.99999e-01,9.99998e-01,7.48142e-01,9.99999e-01
4.645600332e-01,7.52439e-01,9.99999e-01,9.99994e-01,7.52443e-01,9.99999e-01
4.668828333e-01,7.56624e-01,9.99999e-01,9.99922e-01,7.56682e-01,9.99999e-01
4.692172475e-01,7.60736e-01,9.99999e-01,9.99835e-01,7.60861e-01,9.99999e-01
4.715633337e-01,7.64897e-01,9.99999e-01,9.99892e-01,7.64979e-01,9.99999e-01
4.739211504e-01,7.68959e-01,9.99999e-01,9.99896e-01,7.69038e-01,9.99999e-01
4.762907561e-01,7.72996e-01,9.99999e-01,9.99946e-01,7.73038e-01,9.99999e-01
4.786722099e-01,7.76961e-01,9.99999e-01,9.99977e-01,7.76978e-01,9.99999e-01
4.810655710e-01,7.80856e-01,9.99999e-01,9.99992e-01,7.80861e-01,9.99999e-01
4.834708988e-01,7.84636e-01,9.99999e-01,9.99937e-01,7.84685e-01,9.99999e-01
4.858882533e-01,7.88361e-01,9.99999e-01,9.99883e-01,7.88452e-01,9.99999e-01
4.883176946e-01,7.92086e-01,9.99999e-01,9.99902e-01,7.92163e-01,9.99999e-01
4.907592831e-01,7.95747e-01,9.99999e-01,9.99911e-01,7.95817e-01,9.99999e-01
4.932130795e-01,7.99365e-01,9.99999e-01,9.99937e-01,7.99415e-01,9.99999e-01
4.956791449e-01,8.02931e-01,9.99999e-01,9.99966e-01,8.02958e-01,9.99999e-01
4.981575406e-01,8.06313e-01,9.99999e-01,9.99834e-01,8.06446e-01,9.99999e-01
5.006483283e-01,8.09532e-01,9.99999e-01,9.99573e-01,8.09880e-01,9.99996e-01
5.031515699e-01,8.11480e-01,9.99999e-01,9.97832e-01,8.13260e-01,9.99976e-01
5.056673278e-01,8.15631e-01,9.99999e-01,9.98854e-01,8.16588e-01,9.99973e-01
5.081956644e-01,8.18664e-01,9.99999e-01,9.98554e-01,8.19862e-01,9.99982e-01
5.107366428e-01,8.22279e-01,9.99999e-01,9.99023e-01,8.23085e-01,9.99996e-01
5.132903260e-01,8.25795e-01,9.99999e-01,9.99441e-01,8.26257e-01,9.99999e-01
5.158567776e-01,8.29182e-01,9.99999e-01,9.99763e-01,8.29377e-01,9.99999e-01
5.184360615e-01,8.32369e-01,9.99999e-01,9.99905e-01,8.32448e-01,9.99999e-01
5.210282418e-01,8.35439e-01,9.99999e-01,9.99964e-01,8.35468e-01,9.99999e-01
5.236333830e-01,8.38321e-01,9.99999e-01,9.99858e-01,8.38440e-01,9.99998e-01
5.262515499e-01,8.41288e-01,9.99999e-01,9.99911e-01,8.41364e-01,9.99998e-01
5.288828077e-01,8.44170e-01,9.99999e-01,9.99918e-01,8.44239e-01,9.99998e-01
5.315272217e-01,8.47007e-01,9.99999e-01,9.99928e-01,8.47067e-01,9.99999e-01
5.341848578e-01,8.49809e-01,9.99999e-01,9.99952e-01,8.49849e-01,9.99999e-01
5.368557821e-01,8.52444e-01,9.99999e-01,9.99835e-01,8.52584e-01,9.99999e-01
5.395400610e-01,8.54764e-01,9.99999e-01,9.99407e-01,8.55274e-01,9.99994e-01
5.422377613e-01,8.57248e-01,9.99999e-01,9.99230e-01,8.57920e-01,9.99985e-01
5.449489501e-01,8.59894e-01,9.99999e-01,9.99286e-01,8.60520e-01,9.99985e-01
5.476736949e-01,8.62525e-01,9.99999e-01,9.99366e-01,8.63078e-01,9.99992e-01
5.504120634e-01,8.65192e-01,9.99999e-01,9.99539e-01,8.65591e-01,9.99997e-01
5.531641237e-01,8.67862e-01,9.99999e-01,9.99768e-01,8.68063e-01,9.99999e-01
5.559299443e-01,8.70395e-01,9.99999e-01,9.99887e-01,8.70492e-01,9.99999e-01
5.587095940e-01,8.72819e-01,9.99999e-01,9.99929e-01,8.72880e-01,9.99999e-01
5.615031420e-01,8.75159e-01,9.99999e-01,9.99921e-01,8.75228e-01,9.99999e-01
5.643106577e-01,8.77457e-01,9.99999e-01,9.99911e-01,8.77535e-01,9.99998e-01
5.671322110e-01,8.78856e-01,9.99999e-01,9.98934e-01,8.79802e-01,9.99989e-01
5.699678720e-01,8.80995e-01,9.99999e-01,9.98855e-01,8.82030e-01,9.99970e-01
5.728177114e-01,8.83149e-01,9.99999e-01,9.98812e-01,8.84220e-01,9.99975e-01
5.756818000e-01,8.85392e-01,9.99999e-01,9.98909e-01,8.86372e-01,9.99984e-01
5.785602090e-01,8.87637e-01,9.99999e-01,9.99048e-01,8.88486e-01,9.99995e-01
5.814530100e-01,8.89712e-01,9.99999e-01,9.99045e-01,8.90563e-01,9.99997e-01
5.843602750e-01,8.91586e-01,9.99999e-01,9.98865e-01,8.92604e-01,9.99993e-01
5.872820764e-01,8.85836e-01,9.99999e-01,9.90260e-01,8.94610e-01,9.99930e-01
5.902184868e-01,8.85798e-01,9.99999e-01,9.88159e-01,8.96580e-01,9.99811e-01
5.931695792e-01,8.90841e-01,9.99999e-01,9.91637e-01,8.98515e-01,9.99818e-01
5.961354271e-01,8.92063e-01,9.99999e-01,9.90824e-01,9.00416e-01,9.99895e-01
5.991161043e-01,8.96208e-01,9.99999e-01,9.93296e-01,9.02284e-01,9.99967e-01
6.021116848e-01,9.00670e-01,9.99999e-01,9.96189e-01,9.04119e-01,9.99995e-01
6.051222432e-01,9.04172e-01,9.99999e-01,9.98070e-01,9.05920e-01,9.99999e-01
6.081478544e-01,9.06935e-01,9.99999e-01,9.99167e-01,9.07690e-01,9.99999e-01
6.111885937e-01,9.09108e-01,9.99999e-01,9.99647e-01,9.09428e-01,9.99999e-01
6.142445367e-01,9.10992e-01,9.99999e-01,9.99842e-01,9.11135e-01,9.99999e-01
6.173157594e-01,9.12732e-01,9.99999e-01,9.99912e-01,9.12812e-01,9.99999e-01
6.204023382e-01,9.14391e-01,9.99999e-01,9.99926e-01,9.14458e-01,9.99999e-01
6.235043498e-01,9.15780e-01,9.99999e-01,9.99678e-01,9.16075e-01,9.99998e-01
6.266218716e-01,9.16083e-01,9.99999e-01,9.98290e-01,9.17662e-01,9.99987e-01
6.297549810e-01,9.18623e-01,9.99999e-01,9.99372e-01,9.19221e-01,9.99975e-01
6.329037559e-01,9.19592e-01,9.99999e-01,9.98759e-01,9.20751e-01,9.99980e-01
6.360682746e-01,9.21272e-01,9.99999e-01,9.98945e-01,9.22254e-01,9.99988e-01
6.392486160e-01,9.22462e-01,9.99999e-01,9.98632e-01,9.23730e-01,9.99994e-01
6.424448591e-01,9.23484e-01,9.99999e-01,9.98175e-01,9.25178e-01,9.99991e-01
6.456570834e-01,9.18732e-01,9.99999e-01,9.91554e-01,9.26601e-01,9.99952e-01
6.488853688e-01,9.22111e-01,9.99999e-01,9.93787e-01,9.27997e-01,9.99867e-01
6.521297956e-01,9.23382e-01,9.99999e-01,9.93668e-01,9.29368e-01,9.99889e-01
6.553904446e-01,9.24804e-01,9.99999e-01,9.93732e-01,9.30713e-01,9.99916e-01
6.586673968e-01,9.26976e-01,9.99999e-01,9.94599e-01,9.32034e-01,9.99972e-01
6.619607338e-01,9.30408e-01,9.99999e-01,9.96873e-01,9.33331e-01,9.99993e-01
6.652705375e-01,9.32908e-01,9.99999e-01,9.98188e-01,9.34604e-01,9.99996e-01
6.685968902e-01,9.35065e-01,9.99999e-01,9.99157e-01,9.35853e-01,9.99999e-01
6.719398746e-01,9.36714e-01,9.99999e-01,9.99609e-01,9.37080e-01,9.99999e-01
6.752995740e-01,9.38085e-01,9.99999e-01,9.99788e-01,9.38283e-01,9.99999e-01
6.786760719e-01,9.39179e-01,9.99999e-01,9.99695e-01,9.39465e-01,9.99999e-01
6.820694522e-01,9.40131e-01,9.99999e-01,9.99478e-01,9.40624e-01,9.99996e-01
6.854797995e-01,9.41124e-01,9.99999e-01,9.99327e-01,9.41762e-01,9.99993e-01
6.889071985e-01,9.41340e-01,9.99999e-01,9.98382e-01,9.42879e-01,9.99984e-01
6.923517345e-01,9.19134e-01,9.99999e-01,9.73807e-01,9.43975e-01,9.99872e-01
6.958134932e-01,9.31747e-01,9.99999e-01,9.86206e-01,9.45050e-01,9.99712e-01
6.992925606e-01,9.33539e-01,9.99999e-01,9.86966e-01,9.46106e-01,9.99746e-01
7.027890234e-01,9.31696e-01,9.99999e-01,9.83882e-01,9.47142e-01,9.99805e-01
7.063029686e-01,9.35205e-01,9.99999e-01,9.86432e-01,9.48158e-01,9.99902e-01
7.098344834e-01,9.36742e-01,9.99999e-01,9.86977e-01,9.49156e-01,9.99942e-01
7.133836558e-01,9.33665e-01,9.99999e-01,9.82777e-01,9.50135e-01,9.99886e-01
7.169505741e-01,8.27051e-01,9.99999e-01,8.70353e-01,9.51095e-01,9.99106e-01
7.205353270e-01,8.87536e-01,9.99999e-01,9.33719e-01,9.52038e-01,9.98424e-01
7.241380036e-01,8.72563e-01,9.99999e-01,9.16878e-01,9.52962e-01,9.98639e-01
7.277586936e-01,8.81036e-01,9.99999e-01,9.24671e-01,9.53870e-01,9.98887e-01
7.313974871e-01,8.77658e-01,9.99999e-01,9.19723e-01,9.54760e-01,9.99478e-01
7.350544745e-01,9.12749e-01,9.99999e-01,9.55297e-01,9.55633e-01,9.99818e-01
7.387297469e-01,9.24718e-01,9.99999e-01,9.66862e-01,9.56490e-01,9.99916e-01
7.424233956e-01,9.41645e-01,9.99999e-01,9.83629e-01,9.57331e-01,9.99983e-01
7.461355126e-01,9.48623e-01,9.99999e-01,9.90052e-01,9.58156e-01,9.99996e-01
7.498661902e-01,9.54508e-01,9.99999e-01,9.95352e-01,9.58965e-01,9.99998e-01
7.536155211e-01,9.57571e-01,9.99999e-01,9.97720e-01,9.59759e-01,9.99998e-01
7.573835987e-01,9.59411e-01,9.99999e-01,9.98825e-01,9.60538e-01,9.99999e-01
7.611705167e-01,9.60601e-01,9.99999e-01,9.99270e-01,9.61302e-01,9.99999e-01
7.649763693e-01,9.61613e-01,9.99999e-01,9.99542e-01,9.62052e-01,9.99999e-01
7.688012511e-01,9.62481e-01,9.99999e-01,9.99681e-01,9.62788e-01,9.99999e-01
7.726452574e-01,9.63257e-01,9.99999e-01,9.99737e-01,9.63509e-01,9.99999e-01
7.765084837e-01,9.63859e-01,9.99999e-01,9.99628e-01,9.64217e-01,9.99999e-01
7.803910261e-01,9.63365e-01,9.99999e-01,9.98398e-01,9.64911e-01,9.99997e-01
7.842929812e-01,9.60195e-01,9.99999e-01,9.94420e-01,9.65592e-01,9.99989e-01
7.882144461e-01,9.55081e-01,9.99999e-01,9.88500e-01,9.66260e-01,9.99928e-01
7.921555184e-01,9.60663e-01,9.99999e-01,9.93668e-01,9.66915e-01,9.99862e-01
7.961162960e-01,9.56675e-01,9.99999e-01,9.88880e-01,9.67558e-01,9.99868e-01
8.000968774e-01,9.55598e-01,9.99999e-01,9.87132e-01,9.68188e-01,9.99860e-01
8.040973618e-01,9.56240e-01,9.99999e-01,9.87137e-01,9.68807e-01,9.99888e-01
8.081178486e-01,9.41534e-01,9.99999e-01,9.71341e-01,9.69414e-01,9.99895e-01
8.121584379e-01,8.59304e-01,9.99999e-01,8.86234e-01,9.70009e-01,9.99591e-01
8.162192301e-01,8.39413e-01,9.99999e-01,8.66173e-01,9.70592e-01,9.98466e-01
8.203003262e-01,9.03725e-01,9.99999e-01,9.32229e-01,9.71165e-01,9.98205e-01
8.244018279e-01,8.79508e-01,9.99999e-01,9.06393e-01,9.71726e-01,9.98571e-01
8.285238370e-01,8.91305e-01,9.99999e-01,9.17749e-01,9.72277e-01,9.98877e-01
8.326664562e-01,8.91534e-01,9.99999e-01,9.16870e-01,9.72817e-01,9.99535e-01
8.368297885e-01,9.14505e-01,9.99999e-01,9.39646e-01,9.73346e-01,9.99893e-01
8.410139374e-01,9.38415e-01,9.99999e-01,9.63657e-01,9.73866e-01,9.99937e-01
8.452190071e-01,9.56798e-01,9.99999e-01,9.81996e-01,9.74375e-01,9.99962e-01
8.494451021e-01,9.64638e-01,9.99999e-01,9.89527e-01,9.74875e-01,9.99969e-01
8.536923276e-01,9.69289e-01,9.99999e-01,9.93787e-01,9.75365e-01,9.99981e-01
8.579607893e-01,9.72109e-01,9.99999e-01,9.96174e-01,9.75846e-01,9.99995e-01
8.622505932e-01,9.73941e-01,9.99999e-01,9.97566e-01,9.76317e-01,9.99998e-01
8.665618462e-01,9.75310e-01,9.99999e-01,9.98495e-01,9.76780e-01,9.99999e-01
8.708946554e-01,9.75551e-01,9.99999e-01,9.98279e-01,9.77233e-01,9.99998e-01
8.752491287e-01,9.75425e-01,9.99999e-01,9.97697e-01,9.77678e-01,9.99997e-01
8.796253743e-01,9.74994e-01,9.99999e-01,9.96817e-01,9.78114e-01,9.99992e-01
8.840235012e-01,9.74962e-01,9.99999e-01,9.96363e-01,9.78541e-01,9.99977e-01
8.884436187e-01,9.66084e-01,9.99999e-01,9.86908e-01,9.78961e-01,9.99936e-01
8.928858368e-01,8.52414e-01,9.99999e-01,8.70684e-01,9.79372e-01,9.99635e-01
8.973502660e-01,7.65494e-01,9.99999e-01,7.82754e-01,9.79775e-01,9.98135e-01
9.018370173e-01,8.62197e-01,9.99999e-01,8.82224e-01,9.80171e-01,9.97070e-01
9.063462024e-01,8.76165e-01,9.99999e-01,8.95841e-01,9.80558e-01,9.97425e-01
9.108779334e-01,8.23947e-01,9.99999e-01,8.42209e-01,9.80939e-01,9.97325e-01
9.154323231e-01,8.05067e-01,9.99999e-01,8.22216e-01,9.81312e-01,9.97788e-01
9.200094847e-01,8.41322e-01,9.99999e-01,8.58087e-01,9.81677e-01,9.98761e-01
9.246095321e-01,7.78152e-01,9.99999e-01,7.93518e-01,9.82036e-01,9.98573e-01
9.292325798e-01,2.23850e-01,9.99999e-01,2.29135e-01,9.82388e-01,9.94448e-01
9.338787427e-01,1.42579e-01,9.99999e-01,1.48462e-01,9.82733e-01,9.77249e-01
9.385481364e-01,4.39892e-01,9.99999e-01,4.59884e-01,9.83071e-01,9.73000e-01
9.432408771e-01,3.39584e-01,9.99999e-01,3.53566e-01,9.83402e-01,9.76663e-01
9.479570815e-01,2.29786e-01,9.99999e-01,2.38119e-01,9.83727e-01,9.80965e-01
9.526968669e-01,3.20359e-01,9.99999e-01,3.29391e-01,9.84046e-01,9.88346e-01
9.574603512e-01,3.40209e-01,9.99999e-01,3.47679e-01,9.84359e-01,9.94063e-01
9.622476530e-01,4.09260e-01,9.99999e-01,4.17348e-01,9.84665e-01,9.95890e-01
9.670588912e-01,5.91190e-01,9.99999e-01,6.01906e-01,9.84966e-01,9.97187e-01
9.718941857e-01,7.10998e-01,9.99999e-01,7.23131e-01,9.85261e-01,9.97929e-01
9.767536566e-01,7.51577e-01,9.99999e-01,7.63805e-01,9.85550e-01,9.98416e-01
9.816374249e-01,8.06149e-01,9.99999e-01,8.18181e-01,9.85833e-01,9.99451e-01
9.865456120e-01,8.69529e-01,9.99999e-01,8.81875e-01,9.86111e-01,9.99885e-01
9.914783401e-01,9.12505e-01,9.99999e-01,9.25130e-01,9.86383e-01,9.99967e-01
9.964357318e-01,9.45685e-01,9.99999e-01,9.58497e-01,9.86651e-01,9.99981e-01
1.001417910e+00,9.62119e-01,9.99999e-01,9.74904e-01,9.86913e-01,9.99971e-01
1.006425000e+00,9.72940e-01,9.99999e-01,9.85624e-01,9.87169e-01,9.99959e-01
1.011457125e+00,9.78545e-01,9.99999e-01,9.91047e-01,9.87421e-01,9.99962e-01
1.016514411e+00,9.81634e-01,9.99999e-01,9.93916e-01,9.87668e-01,9.99973e-01
1.021596983e+00,9.83094e-01,9.99999e-01,9.95150e-01,9.87910e-01,9.99973e-01
1.026704968e+00,9.84392e-01,9.99999e-01,9.96217e-01,9.88148e-01,9.99981e-01
1.031838492e+00,9.85656e-01,9.99999e-01,9.97247e-01,9.88380e-01,9.99994e-01
1.036997685e+00,9.86992e-01,9.99999e-01,9.98365e-01,9.88608e-01,9.99998e-01
1.042182673e+00,9.86908e-01,9.99999e-01,9.98053e-01,9.88832e-01,9.99999e-01
1.047393587e+00,9.86498e-01,9.99999e-01,9.97418e-01,9.89052e-01,9.99999e-01
1.052630555e+00,9.85765e-01,9.99999e-01,9.96460e-01,9.89267e-01,9.99998e-01
1.057893707e+00,9.83639e-01,9.99999e-01,9.94100e-01,9.89477e-01,9.99997e-01
1.063183176e+00,9.80087e-01,9.99999e-01,9.90306e-01,9.89684e-01,9.99994e-01
1.068499092e+00,9.73854e-01,9.99999e-01,9.83813e-01,9.89887e-01,9.99988e-01
1.073841587e+00,9.71360e-01,9.99999e-01,9.81109e-01,9.90086e-01,9.99975e-01
1.079210795e+00,9.66268e-01,9.99999e-01,9.75814e-01,9.90281e-01,9.99934e-01
1.084606849e+00,9.54329e-01,9.99999e-01,9.63660e-01,9.90472e-01,9.99842e-01
1.090029883e+00,9.39222e-01,9.99999e-01,9.48386e-01,9.90659e-01,9.99674e-01
1.095480033e+00,8.57119e-01,9.99999e-01,8.65548e-01,9.90843e-01,9.99411e-01
1.100957433e+00,6.88113e-01,9.99999e-01,6.95098e-01,9.91023e-01,9.98917e-01
1.106462220e+00,4.04107e-01,9.99999e-01,4.08444e-01,9.91199e-01,9.98165e-01
1.111994531e+00,1.56007e-01,9.99999e-01,1.58133e-01,9.91372e-01,9.95138e-01
1.117554504e+00,5.35822e-02,9.99999e-01,5.49984e-02,9.91542e-01,9.82558e-01
1.123142276e+00,1.27875e-01,9.99999e-01,1.34438e-01,9.91708e-01,9.59132e-01
1.128757988e+00,2.38259e-01,9.99999e-01,2.52090e-01,9.91871e-01,9.52876e-01
1.134401778e+00,1.06552e-01,9.99999e-01,1.11908e-01,9.92031e-01,9.59786e-01
1.140073787e+00,4.08433e-01,9.99999e-01,4.25372e-01,9.92188e-01,9.67737e-01
1.145774156e+00,1.78065e-01,9.99999e-01,1.84907e-01,9.92342e-01,9.70427e-01
1.151503026e+00,1.51660e-01,9.99999e-01,1.55384e-01,9.92492e-01,9.83416e-01
1.157260541e+00,1.89284e-01,9.99999e-01,1.91644e-01,9.92640e-01,9.95012e-01
1.163046844e+00,2.88875e-01,9.99999e-01,2.91386e-01,9.92785e-01,9.98583e-01
1.168862078e+00,4.12102e-01,9.99999e-01,4.15341e-01,9.92927e-01,9.99269e-01
1.174706389e+00,5.76111e-01,9.99999e-01,5.80695e-01,9.93066e-01,9.99032e-01
1.180579921e+00,7.11082e-01,9.99999e-01,7.16997e-01,9.93203e-01,9.98537e-01
1.186482820e+00,8.21011e-01,9.99999e-01,8.27760e-01,9.93336e-01,9.98498e-01
1.192415234e+00,8.88515e-01,9.99999e-01,8.95363e-01,9.93468e-01,9.98875e-01
1.198377311e+00,9.04346e-01,9.99999e-01,9.11142e-01,9.93596e-01,9.98937e-01
1.204369197e+00,9.09263e-01,9.99999e-01,9.15886e-01,9.93722e-01,9.99038e-01
1.210391043e+00,9.13092e-01,9.99999e-01,9.19282e-01,9.93846e-01,9.99415e-01
1.216442998e+00,9.24915e-01,9.99999e-01,9.30861e-01,9.93967e-01,9.99641e-01
1.222525213e+00,9.39896e-01,9.99999e-01,9.45697e-01,9.94086e-01,9.99777e-01
1.228637839e+00,9.56296e-01,9.99999e-01,9.61972e-01,9.94202e-01,9.99896e-01
1.234781029e+00,9.66065e-01,9.99999e-01,9.71614e-01,9.94316e-01,9.99969e-01
1.240954934e+00,9.76484e-01,9.99999e-01,9.81963e-01,9.94428e-01,9.99991e-01
1.247159708e+00,9.80531e-01,9.99999e-01,9.85920e-01,9.94538e-01,9.99994e-01
1.253395507e+00,9.82204e-01,9.99999e-01,9.87497e-01,9.94646e-01,9.99992e-01
1.259662485e+00,9.82933e-01,9.99999e-01,9.88130e-01,9.94751e-01,9.99988e-01
1.265960797e+00,9.76019e-01,9.99999e-01,9.81085e-01,9.94855e-01,9.99981e-01
1.272290601e+00,9.65565e-01,9.99999e-01,9.70490e-01,9.94956e-01,9.99966e-01
1.278652054e+00,9.37544e-01,9.99999e-01,9.42257e-01,9.95055e-01,9.99941e-01
1.285045314e+00,9.06479e-01,9.99999e-01,9.10991e-01,9.95153e-01,9.99891e-01
1.291470541e+00,8.25272e-01,9.99999e-01,8.29368e-01,9.95248e-01,9.99810e-01
1.297927893e+00,7.80179e-01,9.99999e-01,7.84107e-01,9.95342e-01,9.99646e-01
1.304417533e+00,7.27979e-01,9.99999e-01,7.31865e-01,9.95434e-01,9.99251e-01
1.310939621e+00,6.95769e-01,9.99999e-01,6.99971e-01,9.95524e-01,9.98465e-01
1.317494319e+00,6.74164e-01,9.99999e-01,6.79061e-01,9.95612e-01,9.97162e-01
1.324081790e+00,5.59995e-01,9.99999e-01,5.65029e-01,9.95698e-01,9.95371e-01
1.330702199e+00,1.69507e-01,9.99999e-01,1.71592e-01,9.95783e-01,9.92033e-01
1.337355710e+00,5.75574e-03,9.99999e-01,5.86934e-03,9.95866e-01,9.84714e-01
1.344042489e+00,1.21449e-04,9.99999e-01,1.27734e-04,9.95948e-01,9.54665e-01
1.350762701e+00,7.37192e-12,9.99999e-01,8.67546e-12,9.96027e-01,8.53132e-01
1.357516515e+00,1.98724e-17,9.99999e-01,3.17977e-17,9.96106e-01,6.27404e-01
1.364304097e+00,3.56027e-11,9.99999e-01,8.09016e-11,9.96182e-01,4.41760e-01
1.371125618e+00,2.30514e-07,9.99999e-01,4.99855e-07,9.96258e-01,4.62894e-01
1.377981246e+00,8.58882e-07,9.99999e-01,1.66831e-06,9.96331e-01,5.16717e-01
1.384871152e+00,1.43309e-09,9.99999e-01,2.67866e-09,9.96404e-01,5.36932e-01
1.391795508e+00,3.99339e-11,9.99999e-01,7.21994e-11,9.96475e-01,5.55062e-01
1.398754485e+00,6.88602e-09,9.99999e-01,1.12166e-08,9.96544e-01,6.16042e-01
1.405748258e+00,9.57456e-09,9.99999e-01,1.27522e-08,9.96612e-01,7.53368e-01
1.412776999e+00,1.26440e-08,9.99999e-01,1.44373e-08,9.96679e-01,8.78709e-01
1.419840884e+00,2.69239e-08,9.99999e-01,2.85875e-08,9.96745e-01,9.44882e-01
1.426940089e+00,4.17977e-06,9.99999e-01,4.37770e-06,9.96809e-01,9.57841e-01
1.434074789e+00,3.70708e-05,9.99999e-01,3.91260e-05,9.96872e-01,9.50443e-01
1.441245163e+00,2.35009e-04,9.99999e-01,2.49073e-04,9.96933e-01,9.46434e-01
1.448451389e+00,3.17021e-03,9.99998e-01,3.33679e-03,9.96994e-01,9.52939e-01
1.455693646e+00,1.93873e-02,9.99999e-01,2.01877e-02,9.97053e-01,9.63186e-01
1.462972114e+00,2.85335e-02,9.99999e-01,2.96584e-02,9.97111e-01,9.64859e-01
1.470286975e+00,1.65718e-02,9.99999e-01,1.72136e-02,9.97168e-01,9.65447e-01
