#,Wave/freq,Total,N2,H2O,Rayleigh,CIA
4.000000000e-01,3.63918e-01,9.99999e-01,9.99885e-01,3.63960e-01,9.99999e-01
4.020000000e-01,3.71280e-01,9.99999e-01,9.99928e-01,3.71306e-01,9.99999e-01
4.040100000e-01,3.78633e-01,9.99999e-01,9.99969e-01,3.78644e-01,9.99999e-01
4.060300500e-01,3.85975e-01,9.99999e-01,9.99992e-01,3.85978e-01,9.99999e-01
4.080602003e-01,3.93303e-01,9.99999e-01,9.99997e-01,3.93304e-01,9.99999e-01
4.101005013e-01,4.00621e-01,9.99999e-01,9.99999e-01,4.00621e-01,9.99999e-01
4.121510038e-01,4.07924e-01,9.99999e-01,9.99995e-01,4.07925e-01,9.99999e-01
4.142117588e-01,4.15202e-01,9.99999e-01,9.99968e-01,4.15215e-01,9.99999e-01
4.162828176e-01,4.22427e-01,9.99999e-01,9.99858e-01,4.22487e-01,9.99999e-01
4.183642317e-01,4.29702e-01,9.99999e-01,9.99915e-01,4.29738e-01,9.99999e-01
4.204560528e-01,4.36945e-01,9.99999e-01,9.99947e-01,4.36967e-01,9.99999e-01
4.225583331e-01,4.44163e-01,9.99999e-01,9.99980e-01,4.44172e-01,9.99999e-01
4.246711247e-01,4.51343e-01,9.99999e-01,9.99984e-01,4.51349e-01,9.99999e-01
4.267944804e-01,4.58487e-01,9.99999e-01,9.99976e-01,4.58498e-01,9.99999e-01
4.289284528e-01,4.65606e-01,9.99999e-01,9.99982e-01,4.65614e-01,9.99999e-01
4.310730950e-01,4.72694e-01,9.99999e-01,9.99992e-01,4.72698e-01,9.99999e-01
4.332284605e-01,4.79745e-01,9.99999e-01,9.99997e-01,4.79746e-01,9.99999e-01
4.353946028e-01,4.86757e-01,9.99999e-01,9.99998e-01,4.86757e-01,9.99999e-01
4.375715758e-01,4.93722e-01,9.99999e-01,9.99985e-01,4.93729e-01,9.99999e-01
4.397594337e-01,5.00599e-01,9.99999e-01,9.99876e-01,5.00660e-01,9.99999e-01
4.419582309e-01,5.07232e-01,9.99999e-01,9.99375e-01,5.07549e-01,9.99999e-01
4.441680220e-01,5.14140e-01,9.99999e-01,9.99506e-01,5.14393e-01,9.99999e-01
4.463888621e-01,5.20926e-01,9.99999e-01,9.99488e-01,5.21192e-01,9.99999e-01
4.486208064e-01,5.27776e-01,9.99999e-01,9.99680e-01,5.27944e-01,9.99999e-01
4.508639105e-01,5.34568e-01,9.99999e-01,9.99850e-01,5.34647e-01,9.99999e-01
4.531182300e-01,5.41269e-01,9.99999e-01,9.99940e-01,5.41301e-01,9.99999e-01
4.553838212e-01,5.47882e-01,9.99999e-01,9.99959e-01,5.47903e-01,9.99999e-01
4.576607403e-01,5.54444e-01,9.99999e-01,9.99981e-01,5.54454e-01,9.99999e-01
4.599490440e-01,5.60943e-01,9.99999e-01,9.99986e-01,5.60951e-01,9.99999e-01
4.622487892e-01,5.67392e-01,9.99999e-01,9.99997e-01,5.67393e-01,9.99999e-01
4.645600332e-01,5.73775e-01,9.99999e-01,9.99990e-01,5.73780e-01,9.99999e-01
4.668828333e-01,5.80024e-01,9.99999e-01,9.99849e-01,5.80110e-01,9.99999e-01
4.692172475e-01,5.86196e-01,9.99999e-01,9.99678e-01,5.86384e-01,9.99999e-01
4.715633337e-01,5.92475e-01,9.99999e-01,9.99790e-01,5.92599e-01,9.99999e-01
4.739211504e-01,5.98635e-01,9.99999e-01,9.99798e-01,5.98755e-01,9.99999e-01
4.762907561e-01,6.04789e-01,9.99999e-01,9.99895e-01,6.04852e-01,9.99999e-01
4.786722099e-01,6.10863e-01,9.99999e-01,9.99956e-01,6.10889e-01,9.99999e-01
4.810655710e-01,6.16857e-01,9.99999e-01,9.99986e-01,6.16865e-01,9.99999e-01
4.834708988e-01,6.22704e-01,9.99999e-01,9.99878e-01,6.22779e-01,9.99999e-01
4.858882533e-01,6.28489e-01,9.99999e-01,9.99772e-01,6.28632e-01,9.99999e-01
4.883176946e-01,6.34303e-01,9.99999e-01,9.99810e-01,6.34423e-01,9.99999e-01
4.907592831e-01,6.40041e-01,9.99999e-01,9.99827e-01,6.40151e-01,9.99999e-01
4.932130795e-01,6.45737e-01,9.99999e-01,9.99877e-01,6.45816e-01,9.99999e-01
4.956791449e-01,6.51376e-01,9.99999e-01,9.99934e-01,6.51418e-01,9.99999e-01
4.981575406e-01,6.56745e-01,9.99999e-01,9.99677e-01,6.56956e-01,9.99999e-01
5.006483283e-01,6.61877e-01,9.99999e-01,9.99169e-01,6.62431e-01,9.99993e-01
5.031515699e-01,6.64992e-01,9.99999e-01,9.95776e-01,6.67841e-01,9.99955e-01
5.056673278e-01,6.71649e-01,9.99999e-01,9.97763e-01,6.73188e-01,9.99948e-01
5.081956644e-01,6.76534e-01,9.99999e-01,9.97178e-01,6.78471e-01,9.99966e-01
5.107366428e-01,6.82382e-01,9.99999e-01,9.98092e-01,6.83689e-01,9.99993e-01
5.132903260e-01,6.88092e-01,9.99999e-01,9.98908e-01,6.88844e-01,9.99998e-01
5.158567776e-01,6.93614e-01,9.99999e-01,9.99538e-01,6.93934e-01,9.99999e-01
5.184360615e-01,6.98832e-01,9.99999e-01,9.99815e-01,6.98960e-01,9.99999e-01
5.210282418e-01,7.03874e-01,9.99999e-01,9.99930e-01,7.03923e-01,9.99999e-01
5.236333830e-01,7.08624e-01,9.99999e-01,9.99723e-01,7.08821e-01,9.99997e-01
5.262515499e-01,7.13531e-01,9.99999e-01,9.99826e-01,7.13656e-01,9.99996e-01
5.288828077e-01,7.18313e-01,9.99999e-01,9.99841e-01,7.18428e-01,9.99997e-01
5.315272217e-01,7.23034e-01,9.99999e-01,9.99859e-01,7.23136e-01,9.99999e-01
5.341848578e-01,7.27715e-01,9.99999e-01,9.99908e-01,7.27781e-01,9.99999e-01
5.368557821e-01,7.32128e-01,9.99999e-01,9.99679e-01,7.32363e-01,9.99998e-01
5.395400610e-01,7.36027e-01,9.99999e-01,9.98847e-01,7.36883e-01,9.99989e-01
5.422377613e-01,7.40207e-01,9.99999e-01,9.98497e-01,7.41340e-01,9.99972e-01
5.449489501e-01,7.44678e-01,9.99999e-01,9.98609e-01,7.45736e-01,9.99971e-01
5.476736949e-01,7.49131e-01,9.99999e-01,9.98761e-01,7.50070e-01,9.99985e-01
5.504120634e-01,7.53663e-01,9.99999e-01,9.99101e-01,7.54343e-01,9.99995e-01
5.531641237e-01,7.58212e-01,9.99999e-01,9.99547e-01,7.58555e-01,9.99998e-01
5.559299443e-01,7.62540e-01,9.99999e-01,9.99781e-01,7.62707e-01,9.99999e-01
5.587095940e-01,7.66694e-01,9.99999e-01,9.99863e-01,7.66799e-01,9.99999e-01
5.615031420e-01,7.70714e-01,9.99999e-01,9.99847e-01,7.70831e-01,9.99999e-01
5.643106577e-01,7.74671e-01,9.99999e-01,9.99828e-01,7.74804e-01,9.99998e-01
5.671322110e-01,7.77095e-01,9.99999e-01,9.97931e-01,7.78719e-01,9.99980e-01
5.699678720e-01,7.80780e-01,9.99999e-01,9.97761e-01,7.82575e-01,9.99942e-01
5.728177114e-01,7.84516e-01,9.99999e-01,9.97684e-01,7.86374e-01,9.99952e-01
5.756818000e-01,7.88412e-01,9.99999e-01,9.97871e-01,7.90116e-01,9.99970e-01
5.785602090e-01,7.92320e-01,9.99999e-01,9.98142e-01,7.93801e-01,9.99990e-01
5.814530100e-01,7.95942e-01,9.99999e-01,9.98136e-01,7.97430e-01,9.99995e-01
5.843602750e-01,7.99225e-01,9.99999e-01,9.97791e-01,8.01004e-01,9.99987e-01
5.872820764e-01,7.89246e-01,9.99999e-01,9.81144e-01,8.04522e-01,9.99864e-01
5.902184868e-01,7.89122e-01,9.99999e-01,9.77010e-01,8.07986e-01,9.99633e-01
5.931695792e-01,7.97938e-01,9.99999e-01,9.83764e-01,8.11396e-01,9.99642e-01
5.961354271e-01,8.00054e-01,9.99999e-01,9.82170e-01,8.14752e-01,9.99784e-01
5.991161043e-01,8.07329e-01,9.99999e-01,9.86948e-01,8.18056e-01,9.99936e-01
6.021116848e-01,8.15198e-01,9.99999e-01,9.92567e-01,8.21308e-01,9.99991e-01
6.051222432e-01,8.21400e-01,9.99999e-01,9.96231e-01,8.24507e-01,9.99998e-01
6.081478544e-01,8.26311e-01,9.99999e-01,9.98373e-01,8.27656e-01,9.99999e-01
6.111885937e-01,8.30182e-01,9.99999e-01,9.99310e-01,8.30754e-01,9.99999e-01
6.142445367e-01,8.33546e-01,9.99999e-01,9.99692e-01,8.33803e-01,9.99999e-01
6.173157594e-01,8.36660e-01,9.99999e-01,9.99830e-01,8.36801e-01,9.99999e-01
6.204023382e-01,8.39631e-01,9.99999e-01,9.99856e-01,8.39751e-01,9.99999e-01
6.235043498e-01,8.42127e-01,9.99999e-01,9.99375e-01,8.42653e-01,9.99997e-01
6.266218716e-01,8.42670e-01,9.99999e-01,9.96666e-01,8.45508e-01,9.99976e-01
6.297549810e-01,8.47238e-01,9.99999e-01,9.98776e-01,8.48315e-01,9.99952e-01
6.329037559e-01,8.48983e-01,9.99999e-01,9.97578e-01,8.51076e-01,9.99961e-01
6.360682746e-01,8.52017e-01,9.99999e-01,9.97943e-01,8.53791e-01,9.99977e-01
6.392486160e-01,8.54167e-01,9.99999e-01,9.97331e-01,8.56461e-01,9.99989e-01
6.424448591e-01,8.56023e-01,9.99999e-01,9.96449e-01,8.59086e-01,9.99983e-01
6.456570834e-01,8.47478e-01,9.99999e-01,9.83622e-01,8.61668e-01,9.99907e-01
6.488853688e-01,8.53540e-01,9.99999e-01,9.87911e-01,8.64205e-01,9.99742e-01
6.521297956e-01,8.55844e-01,9.99999e-01,9.87686e-01,8.66700e-01,9.99783e-01
6.553904446e-01,8.58417e-01,9.99999e-01,9.87806e-01,8.69153e-01,9.99837e-01
6.586673968e-01,8.62348e-01,9.99999e-01,9.89478e-01,8.71564e-01,9.99946e-01
6.619607338e-01,8.68594e-01,9.99999e-01,9.93901e-01,8.73933e-01,9.99988e-01
6.652705375e-01,8.73155e-01,9.99999e-01,9.96459e-01,8.76263e-01,9.99993e-01
6.685968902e-01,8.77106e-01,9.99999e-01,9.98354e-01,8.78552e-01,9.99998e-01
6.719398746e-01,8.80129e-01,9.99999e-01,9.99236e-01,8.80802e-01,9.99999e-01
6.752995740e-01,8.82648e-01,9.99999e-01,9.99587e-01,8.83013e-01,9.99999e-01
6.786760719e-01,8.84660e-01,9.99999e-01,9.99406e-01,8.85185e-01,9.99998e-01
6.820694522e-01,8.86413e-01,9.99999e-01,9.98982e-01,8.87320e-01,9.99994e-01
6.854797995e-01,8.88242e-01,9.99999e-01,9.98688e-01,8.89418e-01,9.99988e-01
6.889071985e-01,8.88655e-01,9.99999e-01,9.96860e-01,8.91479e-01,9.99971e-01
6.923517345e-01,8.48374e-01,9.99999e-01,9.49725e-01,8.93504e-01,9.99750e-01
6.958134932e-01,8.71045e-01,9.99999e-01,9.73244e-01,8.95494e-01,9.99438e-01
6.992925606e-01,8.74389e-01,9.99999e-01,9.74786e-01,8.97448e-01,9.99505e-01
7.027890234e-01,8.70980e-01,9.99999e-01,9.68801e-01,8.99368e-01,9.99620e-01
7.063029686e-01,8.77378e-01,9.99999e-01,9.73690e-01,9.01254e-01,9.99810e-01
7.098344834e-01,8.80190e-01,9.99999e-01,9.74731e-01,9.03107e-01,9.99888e-01
7.133836558e-01,8.74721e-01,9.99999e-01,9.66833e-01,9.04927e-01,9.99777e-01
7.169505741e-01,6.93938e-01,9.99999e-01,7.66669e-01,9.06714e-01,9.98256e-01
7.205353270e-01,7.93196e-01,9.99999e-01,8.75802e-01,9.08470e-01,9.96925e-01
7.241380036e-01,7.67761e-01,9.99999e-01,8.45758e-01,9.10194e-01,9.97344e-01
7.277586936e-01,7.82247e-01,9.99999e-01,8.59698e-01,9.11887e-01,9.97829e-01
7.313974871e-01,7.75782e-01,9.99999e-01,8.50058e-01,9.13550e-01,9.98982e-01
7.350544745e-01,8.36978e-01,9.99999e-01,9.14869e-01,9.15183e-01,9.99646e-01
7.387297469e-01,8.58334e-01,9.99999e-01,9.36392e-01,9.16787e-01,9.99837e-01
7.424233956e-01,8.89188e-01,9.99999e-01,9.68262e-01,9.18362e-01,9.99968e-01
7.461355126e-01,9.02109e-01,9.99999e-01,9.80656e-01,9.19908e-01,9.99993e-01
7.498661902e-01,9.13068e-01,9.99999e-01,9.90931e-01,9.21426e-01,9.99997e-01
7.536155211e-01,9.18808e-01,9.99999e-01,9.95549e-01,9.22916e-01,9.99998e-01
7.573835987e-01,9.22259e-01,9.99999e-01,9.97705e-01,9.24380e-01,9.99999e-01
7.611705167e-01,9.24497e-01,9.99999e-01,9.98574e-01,9.25817e-01,9.99999e-01
7.649763693e-01,9.26400e-01,9.99999e-01,9.99106e-01,9.27227e-01,9.99999e-01
7.688012511e-01,9.28035e-01,9.99999e-01,9.99378e-01,9.28612e-01,9.99999e-01
7.726452574e-01,9.29497e-01,9.99999e-01,9.99488e-01,9.29972e-01,9.99999e-01
7.765084837e-01,9.30633e-01,9.99999e-01,9.99277e-01,9.31306e-01,9.99998e-01
7.803910261e-01,9.29707e-01,9.99999e-01,9.96882e-01,9.32616e-01,9.99996e-01
7.842929812e-01,9.23766e-01,9.99999e-01,9.89165e-01,9.33902e-01,9.99979e-01
7.882144461e-01,9.14168e-01,9.99999e-01,9.77681e-01,9.35165e-01,9.99861e-01
7.921555184e-01,9.24611e-01,9.99999e-01,9.87669e-01,9.36404e-01,9.99732e-01
7.961162960e-01,9.17192e-01,9.99999e-01,9.78462e-01,9.37620e-01,9.99743e-01
8.000968774e-01,9.15128e-01,9.99999e-01,9.75035e-01,9.38813e-01,9.99727e-01
8.040973618e-01,9.16345e-01,9.99999e-01,9.75061e-01,9.39985e-01,9.99783e-01
8.081178486e-01,8.89293e-01,9.99999e-01,9.45106e-01,9.41135e-01,9.99797e-01
8.121584379e-01,7.46048e-01,9.99999e-01,7.92392e-01,9.42263e-01,9.99203e-01
8.162192301e-01,7.13116e-01,9.99999e-01,7.58190e-01,9.43371e-01,9.97009e-01
8.203003262e-01,8.24358e-01,9.99999e-01,8.75903e-01,9.44458e-01,9.96498e-01
8.244018279e-01,7.84005e-01,9.99999e-01,8.31492e-01,9.45524e-01,9.97212e-01
8.285238370e-01,7.99958e-01,9.99999e-01,8.46965e-01,9.46571e-01,9.97810e-01
8.326664562e-01,8.00475e-01,9.99999e-01,8.45506e-01,9.47598e-01,9.99093e-01
8.368297885e-01,8.40195e-01,9.99999e-01,8.85897e-01,9.48606e-01,9.99792e-01
8.410139374e-01,8.83357e-01,9.99999e-01,9.30357e-01,9.49595e-01,9.99878e-01
8.452190071e-01,9.17359e-01,9.99999e-01,9.65135e-01,9.50566e-01,9.99927e-01
8.494451021e-01,9.32102e-01,9.99999e-01,9.79650e-01,9.51518e-01,9.99941e-01
8.536923276e-01,9.40886e-01,9.99999e-01,9.87893e-01,9.52453e-01,9.99961e-01
8.579607893e-01,9.46249e-01,9.99999e-01,9.92541e-01,9.53370e-01,9.99989e-01
8.622505932e-01,9.49734e-01,9.99999e-01,9.95248e-01,9.54269e-01,9.99998e-01
8.665618462e-01,9.52348e-01,9.99999e-01,9.97065e-01,9.55152e-01,9.99998e-01
8.708946554e-01,9.52809e-01,9.99999e-01,9.96644e-01,9.56018e-01,9.99997e-01
8.752491287e-01,9.52568e-01,9.99999e-01,9.95510e-01,9.56868e-01,9.99994e-01
8.796253743e-01,9.51753e-01,9.99999e-01,9.93801e-01,9.57701e-01,9.99985e-01
8.840235012e-01,9.51692e-01,9.99999e-01,9.92919e-01,9.58519e-01,9.99956e-01
8.884436187e-01,9.35085e-01,9.99999e-01,9.74854e-01,9.59322e-01,9.99876e-01
8.928858368e-01,7.36110e-01,9.99999e-01,7.67238e-01,9.60109e-01,9.99289e-01
8.973502660e-01,5.99886e-01,9.99999e-01,6.26586e-01,9.60881e-01,9.96362e-01
9.018370173e-01,7.52412e-01,9.99999e-01,7.86921e-01,9.61639e-01,9.94287e-01
9.063462024e-01,7.75896e-01,9.99999e-01,8.10290e-01,9.62382e-01,9.94979e-01
9.108779334e-01,6.89832e-01,9.99999e-01,7.20008e-01,9.63111e-01,9.94784e-01
9.154323231e-01,6.58784e-01,9.99999e-01,6.86469e-01,9.63827e-01,9.95686e-01
9.200094847e-01,7.17658e-01,9.99999e-01,7.45852e-01,9.64528e-01,9.97583e-01
9.246095321e-01,6.25961e-01,9.99999e-01,6.50328e-01,9.65217e-01,9.97216e-01
9.292325798e-01,7.76427e-02,9.99999e-01,8.12630e-02,9.65892e-01,9.89188e-01
9.338787427e-01,3.11960e-02,9.99999e-01,3.37590e-02,9.66554e-01,9.56056e-01
9.385481364e-01,2.30042e-01,9.99999e-01,2.50900e-01,9.67204e-01,9.47955e-01
9.432408771e-01,1.51333e-01,9.99999e-01,1.63740e-01,9.67841e-01,9.54936e-01
9.479570815e-01,7.08870e-02,9.99999e-01,7.59941e-02,9.68466e-01,9.63167e-01
9.526968669e-01,1.26012e-01,9.99999e-01,1.33043e-01,9.69079e-01,9.77370e-01
9.574603512e-01,1.38475e-01,9.99999e-01,1.44475e-01,9.69681e-01,9.88440e-01
9.622476530e-01,1.90583e-01,9.99999e-01,1.98007e-01,9.70270e-01,9.91992e-01
9.670588912e-01,3.73790e-01,9.99999e-01,3.87135e-01,9.70849e-01,9.94516e-01
9.718941857e-01,5.18946e-01,9.99999e-01,5.36382e-01,9.71417e-01,9.95960e-01
9.767536566e-01,5.76936e-01,9.99999e-01,5.95410e-01,9.71973e-01,9.96911e-01
9.816374249e-01,6.58583e-01,9.99999e-01,6.77917e-01,9.72519e-01,9.98929e-01
9.865456120e-01,7.61860e-01,9.99999e-01,7.83131e-01,9.73054e-01,9.99776e-01
9.914783401e-01,8.36458e-01,9.99999e-01,8.59210e-01,9.73580e-01,9.99937e-01
9.964357318e-01,8.96747e-01,9.99999e-01,9.20628e-01,9.74095e-01,9.99963e-01
1.001417910e+00,9.27359e-01,9.99999e-01,9.51579e-01,9.74600e-01,9.99944e-01
1.006425000e+00,9.47836e-01,9.99999e-01,9.72120e-01,9.75095e-01,9.99920e-01
1.011457125e+00,9.58516e-01,9.99999e-01,9.82579e-01,9.75581e-01,9.99926e-01
1.016514411e+00,9.64442e-01,9.99999e-01,9.88149e-01,9.76057e-01,9.99948e-01
1.021596983e+00,9.67248e-01,9.99999e-01,9.90550e-01,9.76525e-01,9.99947e-01
1.026704968e+00,9.69745e-01,9.99999e-01,9.92625e-01,9.76983e-01,9.99964e-01
1.031838492e+00,9.72174e-01,9.99999e-01,9.94628e-01,9.77433e-01,9.99989e-01
1.036997685e+00,9.74753e-01,9.99999e-01,9.96810e-01,9.77873e-01,9.99998e-01
1.042182673e+00,9.74594e-01,9.99999e-01,9.96206e-01,9.78306e-01,9.99998e-01
1.047393587e+00,9.73802e-01,9.99999e-01,9.94966e-01,9.78729e-01,9.99998e-01
1.052630555e+00,9.72392e-01,9.99999e-01,9.93104e-01,9.79145e-01,9.99997e-01
1.057893707e+00,9.68310e-01,9.99999e-01,9.88526e-01,9.79553e-01,9.99995e-01
1.063183176e+00,9.61506e-01,9.99999e-01,9.81184e-01,9.79953e-01,9.99989e-01
1.068499092e+00,9.49625e-01,9.99999e-01,9.68684e-01,9.80345e-01,9.99978e-01
1.073841587e+00,9.44954e-01,9.99999e-01,9.63566e-01,9.80729e-01,9.99952e-01
1.079210795e+00,9.35269e-01,9.99999e-01,9.53400e-01,9.81106e-01,9.99872e-01
1.084606849e+00,9.12991e-01,9.99999e-01,9.30506e-01,9.81476e-01,9.99693e-01
1.090029883e+00,8.85432e-01,9.99999e-01,9.02382e-01,9.81838e-01,9.99365e-01
1.095480033e+00,7.41749e-01,9.99999e-01,7.56063e-01,9.82194e-01,9.98852e-01
1.100957433e+00,4.89100e-01,9.99999e-01,4.98843e-01,9.82543e-01,9.97888e-01
1.106462220e+00,1.87268e-01,9.99999e-01,1.91213e-01,9.82884e-01,9.96421e-01
1.111994531e+00,3.35624e-02,9.99999e-01,3.44615e-02,9.83220e-01,9.90528e-01
1.117554504e+00,5.50949e-03,9.99999e-01,5.79744e-03,9.83548e-01,9.66224e-01
1.123142276e+00,2.85668e-02,9.99999e-01,3.14998e-02,9.83871e-01,9.21752e-01
1.128757988e+00,7.26044e-02,9.99999e-01,8.10627e-02,9.84187e-01,9.10047e-01
1.134401778e+00,3.39148e-02,9.99999e-01,3.73235e-02,9.84497e-01,9.22979e-01
1.140073787e+00,1.86670e-01,9.99999e-01,2.02087e-01,9.84800e-01,9.37970e-01
1.145774156e+00,4.72088e-02,9.99999e-01,5.08159e-02,9.85098e-01,9.43068e-01
1.151503026e+00,3.43297e-02,9.99999e-01,3.59951e-02,9.85391e-01,9.67872e-01
1.157260541e+00,4.49518e-02,9.99999e-01,4.60523e-02,9.85677e-01,9.90283e-01
1.163046844e+00,9.82424e-02,9.99999e-01,9.99175e-02,9.85958e-01,9.97236e-01
1.168862078e+00,1.84468e-01,9.99999e-01,1.87310e-01,9.86233e-01,9.98575e-01
1.174706389e+00,3.47536e-01,9.99999e-01,3.52957e-01,9.86503e-01,9.98111e-01
1.180579921e+00,5.18074e-01,9.99999e-01,5.26523e-01,9.86768e-01,9.97146e-01
1.186482820e+00,6.81604e-01,9.99999e-01,6.92590e-01,9.87028e-01,9.97071e-01
1.192415234e+00,7.94188e-01,9.99999e-01,8.06186e-01,9.87282e-01,9.97805e-01
1.198377311e+00,8.22159e-01,9.99999e-01,8.34267e-01,9.87532e-01,9.97927e-01
1.204369197e+00,8.31357e-01,9.99999e-01,8.43225e-01,9.87777e-01,9.98124e-01
1.210391043e+00,8.37854e-01,9.99999e-01,8.48984e-01,9.88017e-01,9.98858e-01
1.216442998e+00,8.59024e-01,9.99999e-01,8.69843e-01,9.88252e-01,9.99300e-01
1.222525213e+00,8.86128e-01,9.99999e-01,8.96841e-01,9.88483e-01,9.99565e-01
1.228637839e+00,9.16502e-01,9.99999e-01,9.27155e-01,9.88709e-01,9.99797e-01
1.234781029e+00,9.34840e-01,9.99999e-01,9.45358e-01,9.88931e-01,9.99941e-01
1.240954934e+00,9.54614e-01,9.99999e-01,9.65102e-01,9.89148e-01,9.99983e-01
1.247159708e+00,9.62334e-01,9.99999e-01,9.72691e-01,9.89361e-01,9.99989e-01
1.253395507e+00,9.65550e-01,9.99999e-01,9.75739e-01,9.89570e-01,9.99986e-01
1.259662485e+00,9.66962e-01,9.99999e-01,9.76971e-01,9.89775e-01,9.99978e-01
1.265960797e+00,9.53736e-01,9.99999e-01,9.63426e-01,9.89976e-01,9.99963e-01
1.272290601e+00,9.37416e-01,9.99999e-01,9.46779e-01,9.90173e-01,9.99935e-01
1.278652054e+00,8.82596e-01,9.99999e-01,8.91281e-01,9.90366e-01,9.99886e-01
1.285045314e+00,8.27085e-01,9.99999e-01,8.35145e-01,9.90556e-01,9.99789e-01
1.291470541e+00,6.90190e-01,9.99999e-01,6.96897e-01,9.90741e-01,9.99630e-01
1.297927893e+00,6.20981e-01,9.99999e-01,6.27101e-01,9.90923e-01,9.99310e-01
1.304417533e+00,5.44646e-01,9.99999e-01,5.50339e-01,9.91102e-01,9.98540e-01
1.310939621e+00,5.00276e-01,9.99999e-01,5.06193e-01,9.91277e-01,9.97005e-01
1.317494319e+00,4.71236e-01,9.99999e-01,4.77945e-01,9.91448e-01,9.94467e-01
1.324081790e+00,3.36428e-01,9.99999e-01,3.42359e-01,9.91617e-01,9.90983e-01
1.330702199e+00,6.33525e-02,9.99999e-01,6.48829e-02,9.91781e-01,9.84503e-01
1.337355710e+00,1.10990e-04,9.99999e-01,1.15308e-04,9.91943e-01,9.70369e-01
1.344042489e+00,6.28594e-07,9.99999e-01,6.93678e-07,9.92102e-01,9.13387e-01
1.350762701e+00,2.94630e-21,9.99999e-01,4.04910e-21,9.92257e-01,7.33319e-01
1.357516515e+00,5.25148e-32,9.99999e-01,1.31500e-31,9.92409e-01,4.02406e-01
1.364304097e+00,5.64762e-20,9.99999e-01,2.80520e-19,9.92559e-01,2.02835e-01
1.371125618e+00,2.26541e-12,9.99999e-01,1.02696e-11,9.92705e-01,2.22216e-01
1.377981246e+00,8.59593e-12,9.99999e-01,3.14303e-11,9.92849e-01,2.75461e-01
1.384871152e+00,1.51482e-16,9.99999e-01,5.13821e-16,9.92989e-01,2.96896e-01
1.391795508e+00,4.54236e-20,9.99999e-01,1.44381e-19,9.93127e-01,3.16787e-01
1.398754485e+00,1.81701e-15,9.99999e-01,4.71114e-15,9.93263e-01,3.88298e-01
1.405748258e+00,2.97618e-15,9.99999e-01,5.20845e-15,9.93395e-01,5.75212e-01
1.412776999e+00,8.86783e-15,9.99999e-01,1.14893e-14,9.93525e-01,7.76863e-01
1.419840884e+00,1.54996e-14,9.99998e-01,1.74247e-14,9.93653e-01,8.95198e-01
1.426940089e+00,7.74138e-10,9.99998e-01,8.47338e-10,9.93778e-01,9.19331e-01
1.434074789e+00,1.19132e-08,9.99998e-01,1.32369e-08,9.93900e-01,9.05515e-01
1.441245163e+00,3.22246e-07,9.99999e-01,3.60977e-07,9.94020e-01,8.98073e-01
1.448451389e+00,4.48125e-05,9.99998e-01,4.95258e-05,9.94138e-01,9.10164e-01
1.455693646e+00,1.08644e-03,9.99998e-01,1.17576e-03,9.94254e-01,9.29374e-01
1.462972114e+00,1.61721e-03,9.99999e-01,1.74403e-03,9.94367e-01,9.32530e-01
1.470286975e+00,6.55233e-04,9.99999e-01,7.05700e-04,9.94478e-01,9.33640e-01
