#,Wave/freq,Total,N2,H2O,Rayleigh,CIA
4.000000000e-01,6.73927e-01,9.99999e-01,9.99955e-01,6.73957e-01,9.99999e-01
4.020000000e-01,6.79217e-01,9.99999e-01,9.99972e-01,6.79235e-01,9.99999e-01
4.040100000e-01,6.84437e-01,9.99999e-01,9.99987e-01,6.84445e-01,9.99999e-01
4.060300500e-01,6.89588e-01,9.99999e-01,9.99996e-01,6.89590e-01,9.99999e-01
4.080602003e-01,6.94670e-01,9.99999e-01,9.99998e-01,6.94671e-01,9.99999e-01
4.101005013e-01,6.99688e-01,9.99999e-01,9.99999e-01,6.99688e-01,9.99999e-01
4.121510038e-01,7.04640e-01,9.99999e-01,9.99997e-01,7.04641e-01,9.99999e-01
4.142117588e-01,7.09521e-01,9.99999e-01,9.99987e-01,7.09530e-01,9.99999e-01
4.162828176e-01,7.14316e-01,9.99999e-01,9.99944e-01,7.14356e-01,9.99999e-01
4.183642317e-01,7.19094e-01,9.99999e-01,9.99966e-01,7.19118e-01,9.99999e-01
4.204560528e-01,7.23802e-01,9.99999e-01,9.99979e-01,7.23817e-01,9.99999e-01
4.225583331e-01,7.28447e-01,9.99999e-01,9.99992e-01,7.28453e-01,9.99999e-01
4.246711247e-01,7.33021e-01,9.99999e-01,9.99993e-01,7.33026e-01,9.99999e-01
4.267944804e-01,7.37530e-01,9.99999e-01,9.99990e-01,7.37536e-01,9.99999e-01
4.289284528e-01,7.41980e-01,9.99999e-01,9.99992e-01,7.41985e-01,9.99999e-01
4.310730950e-01,7.46369e-01,9.99999e-01,9.99996e-01,7.46371e-01,9.99999e-01
4.332284605e-01,7.50696e-01,9.99999e-01,9.99998e-01,7.50697e-01,9.99999e-01
4.353946028e-01,7.54960e-01,9.99999e-01,9.99999e-01,7.54961e-01,9.99999e-01
4.375715758e-01,7.59160e-01,9.99999e-01,9.99993e-01,7.59164e-01,9.99999e-01
4.397594337e-01,7.63270e-01,9.99999e-01,9.99950e-01,7.63307e-01,9.99999e-01
4.419582309e-01,7.67199e-01,9.99999e-01,9.99750e-01,7.67390e-01,9.99999e-01
4.441680220e-01,7.71267e-01,9.99999e-01,9.99808e-01,7.71414e-01,9.99999e-01
4.463888621e-01,7.75224e-01,9.99999e-01,9.99799e-01,7.75379e-01,9.99999e-01
4.486208064e-01,7.79188e-01,9.99999e-01,9.99875e-01,7.79285e-01,9.99999e-01
4.508639105e-01,7.83088e-01,9.99999e-01,9.99941e-01,7.83133e-01,9.99999e-01
4.531182300e-01,7.86905e-01,9.99999e-01,9.99976e-01,7.86923e-01,9.99999e-01
4.553838212e-01,7.90645e-01,9.99999e-01,9.99983e-01,7.90657e-01,9.99999e-01
4.576607403e-01,7.94328e-01,9.99999e-01,9.99992e-01,7.94334e-01,9.99999e-01
4.599490440e-01,7.97951e-01,9.99999e-01,9.99994e-01,7.97955e-01,9.99999e-01
4.622487892e-01,8.01519e-01,9.99999e-01,9.99998e-01,8.01520e-01,9.99999e-01
4.645600332e-01,8.05028e-01,9.99999e-01,9.99995e-01,8.05030e-01,9.99999e-01
4.668828333e-01,8.08439e-01,9.99999e-01,9.99940e-01,8.08486e-01,9.99999e-01
4.692172475e-01,8.11787e-01,9.99999e-01,9.99874e-01,8.11888e-01,9.99999e-01
4.715633337e-01,8.15171e-01,9.99999e-01,9.99917e-01,8.15237e-01,9.99999e-01
4.739211504e-01,8.18469e-01,9.99999e-01,9.99921e-01,8.18533e-01,9.99999e-01
4.762907561e-01,8.21744e-01,9.99999e-01,9.99959e-01,8.21777e-01,9.99999e-01
4.786722099e-01,8.24956e-01,9.99999e-01,9.99982e-01,8.24970e-01,9.99999e-01
4.810655710e-01,8.28107e-01,9.99999e-01,9.99994e-01,8.28111e-01,9.99999e-01
4.834708988e-01,8.31161e-01,9.99999e-01,9.99950e-01,8.31202e-01,9.99999e-01
4.858882533e-01,8.34169e-01,9.99999e-01,9.99911e-01,8.34243e-01,9.99999e-01
4.883176946e-01,8.37172e-01,9.99999e-01,9.99925e-01,8.37234e-01,9.99999e-01
4.907592831e-01,8.40121e-01,9.99999e-01,9.99932e-01,8.40177e-01,9.99999e-01
4.932130795e-01,8.43032e-01,9.99999e-01,9.99951e-01,8.43072e-01,9.99999e-01
4.956791449e-01,8.45899e-01,9.99999e-01,9.99974e-01,8.45920e-01,9.99999e-01
4.981575406e-01,8.48613e-01,9.99999e-01,9.99873e-01,8.48720e-01,9.99999e-01
5.006483283e-01,8.51193e-01,9.99999e-01,9.99670e-01,8.51475e-01,9.99997e-01
5.031515699e-01,8.52753e-01,9.99999e-01,9.98342e-01,8.54183e-01,9.99982e-01
5.056673278e-01,8.56082e-01,9.99999e-01,9.99127e-01,8.56846e-01,9.99979e-01
5.081956644e-01,8.58510e-01,9.99999e-01,9.98899e-01,8.59465e-01,9.99987e-01
5.107366428e-01,8.61398e-01,9.99999e-01,9.99257e-01,8.62040e-01,9.99997e-01
5.132903260e-01,8.64205e-01,9.99999e-01,9.99575e-01,8.64572e-01,9.99999e-01
5.158567776e-01,8.66905e-01,9.99999e-01,9.99820e-01,8.67060e-01,9.99999e-01
5.184360615e-01,8.69445e-01,9.99999e-01,9.99927e-01,8.69507e-01,9.99999e-01
5.210282418e-01,8.71888e-01,9.99999e-01,9.99972e-01,8.71912e-01,9.99999e-01
5.236333830e-01,8.74181e-01,9.99999e-01,9.99891e-01,8.74275e-01,9.99998e-01
5.262515499e-01,8.76539e-01,9.99999e-01,9.99932e-01,8.76599e-01,9.99998e-01
5.288828077e-01,8.78827e-01,9.99999e-01,9.99937e-01,8.78882e-01,9.99998e-01
5.315272217e-01,8.81079e-01,9.99999e-01,9.99945e-01,8.81126e-01,9.99999e-01
5.341848578e-01,8.83300e-01,9.99999e-01,9.99963e-01,8.83332e-01,9.99999e-01
5.368557821e-01,8.85387e-01,9.99999e-01,9.99873e-01,8.85499e-01,9.99999e-01
5.395400610e-01,8.87219e-01,9.99999e-01,9.99542e-01,8.87628e-01,9.99995e-01
5.422377613e-01,8.89191e-01,9.99999e-01,9.99415e-01,8.89721e-01,9.99988e-01
5.449489501e-01,8.91279e-01,9.99999e-01,9.99453e-01,8.91777e-01,9.99988e-01
5.476736949e-01,8.93362e-01,9.99999e-01,9.99518e-01,8.93796e-01,9.99994e-01
5.504120634e-01,8.95467e-01,9.99999e-01,9.99650e-01,8.95781e-01,9.99998e-01
5.531641237e-01,8.97572e-01,9.99999e-01,9.99823e-01,8.97730e-01,9.99999e-01
5.559299443e-01,8.99569e-01,9.99999e-01,9.99914e-01,8.99645e-01,9.99999e-01
5.587095940e-01,9.01479e-01,9.99999e-01,9.99946e-01,9.01527e-01,9.99999e-01
5.615031420e-01,9.03321e-01,9.99999e-01,9.99940e-01,9.03375e-01,9.99999e-01
5.643106577e-01,9.05128e-01,9.99999e-01,9.99931e-01,9.05190e-01,9.99998e-01
5.671322110e-01,9.06213e-01,9.99999e-01,9.99169e-01,9.06972e-01,9.99992e-01
5.699678720e-01,9.07918e-01,9.99999e-01,9.99135e-01,9.08723e-01,9.99977e-01
5.728177114e-01,9.09600e-01,9.99999e-01,9.99091e-01,9.10443e-01,9.99980e-01
5.756818000e-01,9.11363e-01,9.99999e-01,9.99167e-01,9.12132e-01,9.99988e-01
5.785602090e-01,9.13126e-01,9.99999e-01,9.99275e-01,9.13790e-01,9.99996e-01
5.814530100e-01,9.14751e-01,9.99999e-01,9.99271e-01,9.15419e-01,9.99997e-01
5.843602750e-01,9.16214e-01,9.99999e-01,9.99126e-01,9.17018e-01,9.99994e-01
5.872820764e-01,9.11654e-01,9.99999e-01,9.92502e-01,9.18589e-01,9.99946e-01
5.902184868e-01,9.11698e-01,9.99999e-01,9.90976e-01,9.20131e-01,9.99856e-01
5.931695792e-01,9.15627e-01,9.99999e-01,9.93606e-01,9.21645e-01,9.99861e-01
5.961354271e-01,9.16600e-01,9.99999e-01,9.93003e-01,9.23131e-01,9.99920e-01
5.991161043e-01,9.19851e-01,9.99999e-01,9.94897e-01,9.24591e-01,9.99975e-01
6.021116848e-01,9.23341e-01,9.99999e-01,9.97104e-01,9.26024e-01,9.99996e-01
6.051222432e-01,9.26072e-01,9.99999e-01,9.98534e-01,9.27431e-01,9.99999e-01
6.081478544e-01,9.28224e-01,9.99999e-01,9.99367e-01,9.28812e-01,9.99999e-01
6.111885937e-01,9.29919e-01,9.99999e-01,9.99732e-01,9.30168e-01,9.99999e-01
6.142445367e-01,9.31388e-01,9.99999e-01,9.99880e-01,9.31499e-01,9.99999e-01
6.173157594e-01,9.32744e-01,9.99999e-01,9.99933e-01,9.32805e-01,9.99999e-01
6.204023382e-01,9.34035e-01,9.99999e-01,9.99943e-01,9.34088e-01,9.99999e-01
6.235043498e-01,9.35113e-01,9.99999e-01,9.99750e-01,9.35347e-01,9.99998e-01
6.266218716e-01,9.35352e-01,9.99999e-01,9.98695e-01,9.36582e-01,9.99990e-01
6.297549810e-01,9.37329e-01,9.99999e-01,9.99521e-01,9.37795e-01,9.99981e-01
6.329037559e-01,9.38086e-01,9.99999e-01,9.99056e-01,9.38986e-01,9.99984e-01
6.360682746e-01,9.39388e-01,9.99999e-01,9.99193e-01,9.40154e-01,9.99990e-01
6.392486160e-01,9.40315e-01,9.99999e-01,9.98956e-01,9.41301e-01,9.99995e-01
6.424448591e-01,9.41096e-01,9.99999e-01,9.98595e-01,9.42426e-01,9.99992e-01
6.456570834e-01,9.37356e-01,9.99999e-01,9.93494e-01,9.43530e-01,9.99960e-01
6.488853688e-01,9.40055e-01,9.99999e-01,9.95272e-01,9.44614e-01,9.99899e-01
6.521297956e-01,9.41045e-01,9.99999e-01,9.95182e-01,9.45678e-01,9.99916e-01
6.553904446e-01,9.42107e-01,9.99999e-01,9.95186e-01,9.46722e-01,9.99937e-01
6.586673968e-01,9.43832e-01,9.99999e-01,9.95889e-01,9.47746e-01,9.99978e-01
6.619607338e-01,9.46573e-01,9.99999e-01,9.97708e-01,9.48752e-01,9.99995e-01
6.652705375e-01,9.48429e-01,9.99999e-01,9.98624e-01,9.49738e-01,9.99997e-01
6.685968902e-01,9.50150e-01,9.99999e-01,9.99415e-01,9.50706e-01,9.99999e-01
6.719398746e-01,9.51374e-01,9.99999e-01,9.99703e-01,9.51656e-01,9.99999e-01
6.752995740e-01,9.52439e-01,9.99999e-01,9.99843e-01,9.52587e-01,9.99999e-01
6.786760719e-01,9.53279e-01,9.99999e-01,9.99765e-01,9.53502e-01,9.99999e-01
6.820694522e-01,9.54017e-01,9.99999e-01,9.99601e-01,9.54399e-01,9.99997e-01
6.854797995e-01,9.54784e-01,9.99999e-01,9.99485e-01,9.55279e-01,9.99995e-01
6.889071985e-01,9.54930e-01,9.99999e-01,9.98742e-01,9.56143e-01,9.99988e-01
6.923517345e-01,9.37570e-01,9.99999e-01,9.79801e-01,9.56990e-01,9.99902e-01
6.958134932e-01,9.47669e-01,9.99999e-01,9.89612e-01,9.57822e-01,9.99784e-01
6.992925606e-01,9.48841e-01,9.99999e-01,9.89972e-01,9.58637e-01,9.99805e-01
7.027890234e-01,9.47500e-01,9.99999e-01,9.87703e-01,9.59437e-01,9.99851e-01
7.063029686e-01,9.50209e-01,9.99999e-01,9.89643e-01,9.60222e-01,9.99925e-01
7.098344834e-01,9.51401e-01,9.99999e-01,9.90061e-01,9.60993e-01,9.99955e-01
7.133836558e-01,9.48842e-01,9.99999e-01,9.86665e-01,9.61748e-01,9.99912e-01
7.169505741e-01,8.64207e-01,9.99999e-01,8.98499e-01,9.62489e-01,9.99318e-01
7.205353270e-01,9.13538e-01,9.99999e-01,9.49564e-01,9.63216e-01,9.98797e-01
7.241380036e-01,9.00919e-01,9.99999e-01,9.35601e-01,9.63930e-01,9.98961e-01
7.277586936e-01,9.07672e-01,9.99999e-01,9.41752e-01,9.64629e-01,9.99151e-01
7.313974871e-01,9.05468e-01,9.99999e-01,9.38374e-01,9.65316e-01,9.99602e-01
7.350544745e-01,9.32816e-01,9.99999e-01,9.65791e-01,9.65989e-01,9.99861e-01
7.387297469e-01,9.42146e-01,9.99999e-01,9.74711e-01,9.66650e-01,9.99936e-01
7.424233956e-01,9.55260e-01,9.99999e-01,9.87565e-01,9.67297e-01,9.99988e-01
7.461355126e-01,9.60613e-01,9.99999e-01,9.92438e-01,9.67933e-01,9.99997e-01
7.498661902e-01,9.65147e-01,9.99999e-01,9.96480e-01,9.68556e-01,9.99998e-01
7.536155211e-01,9.67490e-01,9.99999e-01,9.98268e-01,9.69168e-01,9.99999e-01
7.573835987e-01,9.68903e-01,9.99999e-01,9.99108e-01,9.69767e-01,9.99999e-01
7.611705167e-01,9.69818e-01,9.99999e-01,9.99445e-01,9.70356e-01,9.99999e-01
7.649763693e-01,9.70595e-01,9.99999e-01,9.99652e-01,9.70932e-01,9.99999e-01
7.688012511e-01,9.71263e-01,9.99999e-01,9.99757e-01,9.71498e-01,9.99999e-01
7.726452574e-01,9.71860e-01,9.99999e-01,9.99800e-01,9.72053e-01,9.99999e-01
7.765084837e-01,9.72320e-01,9.99999e-01,9.99714e-01,9.72598e-01,9.99999e-01
7.803910261e-01,9.71931e-01,9.99999e-01,9.98767e-01,9.73132e-01,9.99998e-01
7.842929812e-01,9.69464e-01,9.99999e-01,9.95702e-01,9.73655e-01,9.99991e-01
7.882144461e-01,9.65555e-01,9.99999e-01,9.91217e-01,9.74169e-01,9.99939e-01
7.921555184e-01,9.69887e-01,9.99999e-01,9.95194e-01,9.74673e-01,9.99894e-01
7.961162960e-01,9.66732e-01,9.99999e-01,9.91449e-01,9.75167e-01,9.99899e-01
8.000968774e-01,9.65956e-01,9.99999e-01,9.90167e-01,9.75651e-01,9.99893e-01
8.040973618e-01,9.66439e-01,9.99999e-01,9.90155e-01,9.76126e-01,9.99918e-01
8.081178486e-01,9.54892e-01,9.99999e-01,9.77859e-01,9.76592e-01,9.99917e-01
8.121584379e-01,8.90012e-01,9.99999e-01,9.11201e-01,9.77049e-01,9.99688e-01
8.162192301e-01,8.75097e-01,9.99999e-01,8.96289e-01,9.77497e-01,9.98830e-01
8.203003262e-01,9.24571e-01,9.99999e-01,9.46725e-01,9.77937e-01,9.98630e-01
8.244018279e-01,9.06816e-01,9.99999e-01,9.27876e-01,9.78368e-01,9.98910e-01
8.285238370e-01,9.15705e-01,9.99999e-01,9.36347e-01,9.78791e-01,9.99143e-01
8.326664562e-01,9.16126e-01,9.99999e-01,9.35912e-01,9.79205e-01,9.99645e-01
8.368297885e-01,9.34241e-01,9.99999e-01,9.53761e-01,9.79612e-01,9.99918e-01
8.410139374e-01,9.52786e-01,9.99999e-01,9.72265e-01,9.80010e-01,9.99952e-01
8.452190071e-01,9.66957e-01,9.99999e-01,9.86314e-01,9.80401e-01,9.99971e-01
8.494451021e-01,9.72933e-01,9.99999e-01,9.92016e-01,9.80785e-01,9.99976e-01
8.536923276e-01,9.76520e-01,9.99999e-01,9.95283e-01,9.81161e-01,9.99985e-01
8.579607893e-01,9.78667e-01,9.99999e-01,9.97087e-01,9.81529e-01,9.99996e-01
8.622505932e-01,9.80076e-01,9.99999e-01,9.98151e-01,9.81891e-01,9.99998e-01
8.665618462e-01,9.81119e-01,9.99999e-01,9.98853e-01,9.82245e-01,9.99999e-01
8.708946554e-01,9.81301e-01,9.99999e-01,9.98685e-01,9.82593e-01,9.99998e-01
8.752491287e-01,9.81205e-01,9.99999e-01,9.98242e-01,9.82934e-01,9.99997e-01
8.796253743e-01,9.80865e-01,9.99999e-01,9.97560e-01,9.83268e-01,9.99994e-01
8.840235012e-01,9.80841e-01,9.99999e-01,9.97216e-01,9.83596e-01,9.99982e-01
8.884436187e-01,9.73799e-01,9.99999e-01,9.89764e-01,9.83917e-01,9.99951e-01
8.928858368e-01,8.84082e-01,9.99999e-01,8.98494e-01,9.84232e-01,9.99721e-01
8.973502660e-01,8.14927e-01,9.99999e-01,8.28900e-01,9.84541e-01,9.98577e-01
9.018370173e-01,8.93380e-01,9.99999e-01,9.09159e-01,9.84844e-01,9.97764e-01
9.063462024e-01,9.03134e-01,9.99999e-01,9.18559e-01,9.85141e-01,9.98036e-01
9.108779334e-01,8.61873e-01,9.99999e-01,8.76401e-01,9.85433e-01,9.97959e-01
9.154323231e-01,8.47071e-01,9.99999e-01,8.60795e-01,9.85718e-01,9.98312e-01
9.200094847e-01,8.76304e-01,9.99999e-01,8.89587e-01,9.85998e-01,9.99055e-01
9.246095321e-01,8.21195e-01,9.99999e-01,8.33531e-01,9.86273e-01,9.98911e-01
9.292325798e-01,3.04848e-01,9.99999e-01,3.10635e-01,9.86542e-01,9.94757e-01
9.338787427e-01,2.17594e-01,9.99999e-01,2.24733e-01,9.86806e-01,9.81179e-01
9.385481364e-01,5.27313e-01,9.99999e-01,5.45491e-01,9.87065e-01,9.79341e-01
9.432408771e-01,4.23841e-01,9.99999e-01,4.37085e-01,9.87319e-01,9.82152e-01
9.479570815e-01,3.13220e-01,9.99999e-01,3.21845e-01,9.87568e-01,9.85450e-01
9.526968669e-01,4.11141e-01,9.99999e-01,4.19951e-01,9.87812e-01,9.91099e-01
9.574603512e-01,4.33102e-01,9.99999e-01,4.40335e-01,9.88051e-01,9.95468e-01
9.622476530e-01,5.02493e-01,9.99999e-01,5.10047e-01,9.88286e-01,9.96864e-01
9.670588912e-01,6.67347e-01,9.99999e-01,6.76551e-01,9.88516e-01,9.97854e-01
9.718941857e-01,7.70316e-01,9.99999e-01,7.80319e-01,9.88741e-01,9.98420e-01
9.767536566e-01,8.03757e-01,9.99999e-01,8.13709e-01,9.88963e-01,9.98792e-01
9.816374249e-01,8.48587e-01,9.99999e-01,8.58228e-01,9.89179e-01,9.99581e-01
9.865456120e-01,8.99071e-01,9.99999e-01,9.08789e-01,9.89392e-01,9.99912e-01
9.914783401e-01,9.32690e-01,9.99999e-01,9.42513e-01,9.89600e-01,9.99975e-01
9.964357318e-01,9.58395e-01,9.99999e-01,9.68279e-01,9.89805e-01,9.99985e-01
1.001417910e+00,9.71044e-01,9.99999e-01,9.80868e-01,9.90005e-01,9.99977e-01
1.006425000e+00,9.79312e-01,9.99999e-01,9.89032e-01,9.90202e-01,9.99968e-01
1.011457125e+00,9.83624e-01,9.99999e-01,9.93192e-01,9.90394e-01,9.99971e-01
1.016514411e+00,9.85976e-01,9.99999e-01,9.95368e-01,9.90583e-01,9.99979e-01
1.021596983e+00,9.87089e-01,9.99999e-01,9.96306e-01,9.90768e-01,9.99979e-01
1.026704968e+00,9.88081e-01,9.99999e-01,9.97117e-01,9.90950e-01,9.99987e-01
1.031838492e+00,9.89050e-01,9.99999e-01,9.97907e-01,9.91128e-01,9.99995e-01
1.036997685e+00,9.90067e-01,9.99999e-01,9.98754e-01,9.91302e-01,9.99998e-01
1.042182673e+00,9.89997e-01,9.99999e-01,9.98511e-01,9.91473e-01,9.99999e-01
1.047393587e+00,9.89686e-01,9.99999e-01,9.98028e-01,9.91641e-01,9.99999e-01
1.052630555e+00,9.89121e-01,9.99999e-01,9.97293e-01,9.91805e-01,9.99998e-01
1.057893707e+00,9.87482e-01,9.99999e-01,9.95479e-01,9.91966e-01,9.99997e-01
1.063183176e+00,9.84757e-01,9.99999e-01,9.92577e-01,9.92124e-01,9.99995e-01
1.068499092e+00,9.79982e-01,9.99999e-01,9.87614e-01,9.92279e-01,9.99991e-01
1.073841587e+00,9.78029e-01,9.99999e-01,9.85505e-01,9.92431e-01,9.99981e-01
1.079210795e+00,9.74170e-01,9.99999e-01,9.81500e-01,9.92580e-01,9.99949e-01
1.084606849e+00,9.64916e-01,9.99999e-01,9.72101e-01,9.92726e-01,9.99879e-01
1.090029883e+00,9.52951e-01,9.99999e-01,9.60032e-01,9.92869e-01,9.99751e-01
1.095480033e+00,8.88342e-01,9.99999e-01,8.94996e-01,9.93010e-01,9.99551e-01
1.100957433e+00,7.49752e-01,9.99999e-01,7.55548e-01,9.93147e-01,9.99174e-01
1.106462220e+00,4.93509e-01,9.99999e-01,4.97542e-01,9.93282e-01,9.98600e-01
1.111994531e+00,2.34852e-01,9.99999e-01,2.37289e-01,9.93414e-01,9.96289e-01
1.117554504e+00,1.00325e-01,9.99999e-01,1.02341e-01,9.93544e-01,9.86670e-01
1.123142276e+00,1.95685e-01,9.99999e-01,2.03299e-01,9.93671e-01,9.68678e-01
1.128757988e+00,3.26271e-01,9.99999e-01,3.40619e-01,9.93796e-01,9.63856e-01
1.134401778e+00,1.53777e-01,9.99999e-01,1.59637e-01,9.93918e-01,9.69182e-01
1.140073787e+00,4.99742e-01,9.99999e-01,5.15471e-01,9.94038e-01,9.75299e-01
1.145774156e+00,2.57830e-01,9.99999e-01,2.65351e-01,9.94155e-01,9.77366e-01
1.151503026e+00,2.26734e-01,9.99999e-01,2.30967e-01,9.94270e-01,9.87327e-01
1.157260541e+00,2.75609e-01,9.99999e-01,2.78224e-01,9.94383e-01,9.96193e-01
1.163046844e+00,3.83911e-01,9.99999e-01,3.86454e-01,9.94494e-01,9.98919e-01
1.168862078e+00,5.07562e-01,9.99999e-01,5.10601e-01,9.94602e-01,9.99442e-01
1.174706389e+00,6.55989e-01,9.99999e-01,6.59965e-01,9.94708e-01,9.99261e-01
1.180579921e+00,7.70966e-01,9.99999e-01,7.75851e-01,9.94813e-01,9.98884e-01
1.186482820e+00,8.60457e-01,9.99999e-01,8.65845e-01,9.94915e-01,9.98854e-01
1.192415234e+00,9.13849e-01,9.99999e-01,9.19215e-01,9.95015e-01,9.99142e-01
1.198377311e+00,9.26097e-01,9.99999e-01,9.31398e-01,9.95113e-01,9.99189e-01
1.204369197e+00,9.29941e-01,9.99999e-01,9.35102e-01,9.95209e-01,9.99266e-01
1.210391043e+00,9.32980e-01,9.99999e-01,9.37799e-01,9.95304e-01,9.99553e-01
1.216442998e+00,9.42302e-01,9.99999e-01,9.46918e-01,9.95396e-01,9.99726e-01
1.222525213e+00,9.53883e-01,9.99999e-01,9.58368e-01,9.95487e-01,9.99829e-01
1.228637839e+00,9.66517e-01,9.99999e-01,9.70887e-01,9.95576e-01,9.99920e-01
1.234781029e+00,9.74059e-01,9.99999e-01,9.78322e-01,9.95663e-01,9.99976e-01
1.240954934e+00,9.82032e-01,9.99999e-01,9.86230e-01,9.95749e-01,9.99993e-01
1.247159708e+00,9.85141e-01,9.99999e-01,9.89267e-01,9.95832e-01,9.99995e-01
1.253395507e+00,9.86405e-01,9.99999e-01,9.90456e-01,9.95915e-01,9.99994e-01
1.259662485e+00,9.86941e-01,9.99999e-01,9.90917e-01,9.95995e-01,9.99991e-01
1.265960797e+00,9.81666e-01,9.99999e-01,9.85548e-01,9.96074e-01,9.99985e-01
1.272290601e+00,9.73554e-01,9.99999e-01,9.77339e-01,9.96151e-01,9.99974e-01
1.278652054e+00,9.51853e-01,9.99999e-01,9.55499e-01,9.96227e-01,9.99955e-01
1.285045314e+00,9.17308e-01,9.99999e-01,9.20788e-01,9.96302e-01,9.99917e-01
1.291470541e+00,8.62869e-01,9.99999e-01,8.66133e-01,9.96374e-01,9.99855e-01
1.297927893e+00,8.12307e-01,9.99999e-01,8.15423e-01,9.96446e-01,9.99730e-01
1.304417533e+00,7.83876e-01,9.99999e-01,7.87065e-01,9.96516e-01,9.99429e-01
1.310939621e+00,7.35539e-01,9.99999e-01,7.38924e-01,9.96585e-01,9.98829e-01
1.317494319e+00,7.39308e-01,9.99999e-01,7.43400e-01,9.96652e-01,9.97835e-01
1.324081790e+00,6.39138e-01,9.99999e-01,6.43515e-01,9.96718e-01,9.96468e-01
1.330702199e+00,2.26987e-01,9.99999e-01,2.29112e-01,9.96783e-01,9.93918e-01
1.337355710e+00,1.65191e-02,9.99999e-01,1.67671e-02,9.96846e-01,9.88321e-01
1.344042489e+00,4.60478e-04,9.99999e-01,4.78541e-04,9.96908e-01,9.65236e-01
1.350762701e+00,1.74021e-09,9.99999e-01,1.97029e-09,9.96969e-01,8.85910e-01
1.357516515e+00,9.55967e-14,9.99999e-01,1.36815e-13,9.97029e-01,7.00809e-01
1.364304097e+00,6.29449e-09,9.99999e-01,1.17713e-08,9.97088e-01,5.36293e-01
1.371125618e+00,4.69102e-06,9.99999e-01,8.46501e-06,9.97145e-01,5.55751e-01
1.377981246e+00,1.64508e-05,9.99999e-01,2.72954e-05,9.97201e-01,6.04384e-01
1.384871152e+00,7.90625e-08,9.99999e-01,1.26748e-07,9.97257e-01,6.25493e-01
1.391795508e+00,7.76082e-09,9.99999e-01,1.21708e-08,9.97311e-01,6.39376e-01
1.398754485e+00,3.65488e-07,9.99999e-01,5.30240e-07,9.97364e-01,6.91109e-01
1.405748258e+00,4.23280e-07,9.99999e-01,5.26685e-07,9.97416e-01,8.05749e-01
1.412776999e+00,4.89652e-07,9.99999e-01,5.41770e-07,9.97467e-01,9.06094e-01
1.419840884e+00,1.07993e-06,9.99999e-01,1.13046e-06,9.97517e-01,9.57682e-01
1.426940089e+00,4.06202e-05,9.99999e-01,4.20791e-05,9.97566e-01,9.67684e-01
1.434074789e+00,3.04522e-04,9.99999e-01,3.17314e-04,9.97614e-01,9.61978e-01
1.441245163e+00,1.36654e-03,9.99999e-01,1.42848e-03,9.97661e-01,9.58882e-01
1.448451389e+00,1.03569e-02,9.99999e-01,1.07694e-02,9.97707e-01,9.63904e-01
1.455693646e+00,4.40521e-02,9.99999e-01,4.54325e-02,9.97752e-01,9.71799e-01
1.462972114e+00,6.15654e-02,9.99999e-01,6.34078e-02,9.97796e-01,9.73086e-01
1.470286975e+00,4.00751e-02,9.99999e-01,4.12534e-02,9.97840e-01,9.73539e-01
