#,Wave/freq,Total,N2,H2O,Rayleigh,CIA
4.000000000e-01,7.99029e-02,9.99999e-01,9.99714e-01,7.99256e-02,9.99999e-01
4.020000000e-01,8.40052e-02,9.99999e-01,9.99822e-01,8.40201e-02,9.99999e-01
4.040100000e-01,8.82260e-02,9.99999e-01,9.99924e-01,8.82326e-02,9.99999e-01
4.060300500e-01,9.25653e-02,9.99999e-01,9.99982e-01,9.25669e-02,9.99999e-01
4.080602003e-01,9.70215e-02,9.99999e-01,9.99993e-01,9.70221e-02,9.99999e-01
4.101005013e-01,1.01597e-01,9.99999e-01,9.99999e-01,1.01597e-01,9.99999e-01
4.121510038e-01,1.06290e-01,9.99999e-01,9.99989e-01,1.06292e-01,9.99999e-01
4.142117588e-01,1.11095e-01,9.99999e-01,9.99921e-01,1.11104e-01,9.99999e-01
4.162828176e-01,1.15991e-01,9.99999e-01,9.99646e-01,1.16032e-01,9.99999e-01
4.183642317e-01,1.21050e-01,9.99999e-01,9.99789e-01,1.21075e-01,9.99999e-01
4.204560528e-01,1.26215e-01,9.99999e-01,9.99870e-01,1.26231e-01,9.99999e-01
4.225583331e-01,1.31492e-01,9.99999e-01,9.99951e-01,1.31498e-01,9.99999e-01
4.246711247e-01,1.36870e-01,9.99999e-01,9.99961e-01,1.36875e-01,9.99999e-01
4.267944804e-01,1.42351e-01,9.99999e-01,9.99943e-01,1.42359e-01,9.99999e-01
4.289284528e-01,1.47941e-01,9.99999e-01,9.99955e-01,1.47947e-01,9.99999e-01
4.310730950e-01,1.53635e-01,9.99999e-01,9.99981e-01,1.53638e-01,9.99999e-01
4.332284605e-01,1.59428e-01,9.99999e-01,9.99994e-01,1.59429e-01,9.99999e-01
4.353946028e-01,1.65317e-01,9.99999e-01,9.99997e-01,1.65317e-01,9.99999e-01
4.375715758e-01,1.71295e-01,9.99999e-01,9.99964e-01,1.71301e-01,9.99999e-01
4.397594337e-01,1.77321e-01,9.99999e-01,9.99690e-01,1.77376e-01,9.99999e-01
4.419582309e-01,1.83251e-01,9.99999e-01,9.98427e-01,1.83540e-01,9.99999e-01
4.441680220e-01,1.89557e-01,9.99999e-01,9.98771e-01,1.89790e-01,9.99999e-01
4.463888621e-01,1.95873e-01,9.99999e-01,9.98721e-01,1.96123e-01,9.99999e-01
4.486208064e-01,2.02376e-01,9.99999e-01,9.99205e-01,2.02537e-01,9.99999e-01
4.508639105e-01,2.08949e-01,9.99999e-01,9.99627e-01,2.09027e-01,9.99999e-01
4.531182300e-01,2.15559e-01,9.99999e-01,9.99852e-01,2.15590e-01,9.99999e-01
4.553838212e-01,2.22202e-01,9.99999e-01,9.99899e-01,2.22224e-01,9.99999e-01
4.576607403e-01,2.28915e-01,9.99999e-01,9.99953e-01,2.28926e-01,9.99999e-01
4.599490440e-01,2.35683e-01,9.99999e-01,9.99967e-01,2.35690e-01,9.99999e-01
4.622487892e-01,2.42514e-01,9.99999e-01,9.99993e-01,2.42516e-01,9.99999e-01
4.645600332e-01,2.49392e-01,9.99999e-01,9.99977e-01,2.49398e-01,9.99999e-01
4.668828333e-01,2.56237e-01,9.99999e-01,9.99624e-01,2.56334e-01,9.99999e-01
4.692172475e-01,2.63108e-01,9.99999e-01,9.99197e-01,2.63320e-01,9.99999e-01
4.715633337e-01,2.70211e-01,9.99999e-01,9.99475e-01,2.70352e-01,9.99999e-01
4.739211504e-01,2.77289e-01,9.99999e-01,9.99498e-01,2.77428e-01,9.99999e-01
4.762907561e-01,2.84470e-01,9.99999e-01,9.99739e-01,2.84544e-01,9.99999e-01
4.786722099e-01,2.91666e-01,9.99999e-01,9.99893e-01,2.91697e-01,9.99999e-01
4.810655710e-01,2.98873e-01,9.99999e-01,9.99967e-01,2.98883e-01,9.99999e-01
4.834708988e-01,3.06004e-01,9.99999e-01,9.99692e-01,3.06098e-01,9.99999e-01
4.858882533e-01,3.13163e-01,9.99999e-01,9.99431e-01,3.13340e-01,9.99999e-01
4.883176946e-01,3.20454e-01,9.99999e-01,9.99524e-01,3.20606e-01,9.99999e-01
4.907592831e-01,3.27750e-01,9.99999e-01,9.99570e-01,3.27891e-01,9.99999e-01
4.932130795e-01,3.35091e-01,9.99999e-01,9.99694e-01,3.35193e-01,9.99999e-01
4.956791449e-01,3.42454e-01,9.99999e-01,9.99838e-01,3.42509e-01,9.99999e-01
4.981575406e-01,3.49553e-01,9.99999e-01,9.99194e-01,3.49835e-01,9.99999e-01
5.006483283e-01,3.56418e-01,9.99999e-01,9.97913e-01,3.57168e-01,9.99985e-01
5.031515699e-01,3.60631e-01,9.99999e-01,9.89478e-01,3.64506e-01,9.99888e-01
5.056673278e-01,3.69726e-01,9.99999e-01,9.94425e-01,3.71845e-01,9.99872e-01
5.081956644e-01,3.76486e-01,9.99999e-01,9.92970e-01,3.79183e-01,9.99917e-01
5.107366428e-01,3.84674e-01,9.99999e-01,9.95249e-01,3.86516e-01,9.99984e-01
5.132903260e-01,3.92771e-01,9.99999e-01,9.97282e-01,3.93842e-01,9.99997e-01
5.158567776e-01,4.00697e-01,9.99999e-01,9.98851e-01,4.01158e-01,9.99999e-01
5.184360615e-01,4.08273e-01,9.99999e-01,9.99539e-01,4.08461e-01,9.99999e-01
5.210282418e-01,4.15678e-01,9.99999e-01,9.99827e-01,4.15749e-01,9.99999e-01
5.236333830e-01,4.22726e-01,9.99999e-01,9.99309e-01,4.23020e-01,9.99994e-01
5.262515499e-01,4.30081e-01,9.99999e-01,9.99567e-01,4.30270e-01,9.99992e-01
5.288828077e-01,4.37322e-01,9.99999e-01,9.99603e-01,4.37497e-01,9.99995e-01
5.315272217e-01,4.44545e-01,9.99999e-01,9.99651e-01,4.44700e-01,9.99998e-01
5.341848578e-01,4.51772e-01,9.99999e-01,9.99771e-01,4.51875e-01,9.99999e-01
5.368557821e-01,4.58652e-01,9.99999e-01,9.99196e-01,4.59021e-01,9.99997e-01
5.395400610e-01,4.64775e-01,9.99999e-01,9.97104e-01,4.66136e-01,9.99975e-01
5.422377613e-01,4.71413e-01,9.99999e-01,9.96255e-01,4.73217e-01,9.99931e-01
5.449489501e-01,4.78557e-01,9.99999e-01,9.96518e-01,4.80262e-01,9.99929e-01
5.476736949e-01,4.85751e-01,9.99999e-01,9.96915e-01,4.87270e-01,9.99965e-01
5.504120634e-01,4.93128e-01,9.99999e-01,9.97760e-01,4.94239e-01,9.99990e-01
5.531641237e-01,5.00602e-01,9.99999e-01,9.98872e-01,5.01167e-01,9.99998e-01
5.559299443e-01,5.07776e-01,9.99999e-01,9.99455e-01,5.08053e-01,9.99999e-01
5.587095940e-01,5.14718e-01,9.99999e-01,9.99658e-01,5.14894e-01,9.99999e-01
5.615031420e-01,5.21491e-01,9.99999e-01,9.99619e-01,5.21689e-01,9.99998e-01
5.643106577e-01,5.28209e-01,9.99999e-01,9.99569e-01,5.28438e-01,9.99995e-01
5.671322110e-01,5.32325e-01,9.99999e-01,9.94788e-01,5.35138e-01,9.99953e-01
5.699678720e-01,5.38703e-01,9.99999e-01,9.94448e-01,5.41787e-01,9.99857e-01
5.728177114e-01,5.45149e-01,9.99999e-01,9.94214e-01,5.48386e-01,9.99881e-01
5.756818000e-01,5.51945e-01,9.99999e-01,9.94688e-01,5.54932e-01,9.99926e-01
5.785602090e-01,5.58814e-01,9.99999e-01,9.95370e-01,5.61425e-01,9.99977e-01
5.814530100e-01,5.65218e-01,9.99999e-01,9.95349e-01,5.67864e-01,9.99989e-01
5.843602750e-01,5.71050e-01,9.99999e-01,9.94464e-01,5.74247e-01,9.99968e-01
5.872820764e-01,5.53479e-01,9.99999e-01,9.53653e-01,5.80573e-01,9.99663e-01
5.902184868e-01,5.53289e-01,9.99999e-01,9.43687e-01,5.86842e-01,9.99084e-01
5.931695792e-01,5.68877e-01,9.99999e-01,9.60079e-01,5.93053e-01,9.99119e-01
5.961354271e-01,5.72654e-01,9.99999e-01,9.56173e-01,5.99205e-01,9.99493e-01
5.991161043e-01,5.85702e-01,9.99999e-01,9.67778e-01,6.05297e-01,9.99842e-01
6.021116848e-01,6.00061e-01,9.99999e-01,9.81583e-01,6.11330e-01,9.99982e-01
6.051222432e-01,6.11521e-01,9.99999e-01,9.90636e-01,6.17301e-01,9.99998e-01
6.081478544e-01,6.20688e-01,9.99999e-01,9.95951e-01,6.23211e-01,9.99999e-01
6.111885937e-01,6.27981e-01,9.99999e-01,9.98285e-01,6.29059e-01,9.99999e-01
6.142445367e-01,6.34359e-01,9.99999e-01,9.99233e-01,6.34845e-01,9.99999e-01
6.173157594e-01,6.40298e-01,9.99999e-01,9.99577e-01,6.40569e-01,9.99999e-01
6.204023382e-01,6.45998e-01,9.99999e-01,9.99642e-01,6.46229e-01,9.99999e-01
6.235043498e-01,6.50798e-01,9.99999e-01,9.98426e-01,6.51826e-01,9.99995e-01
6.266218716e-01,6.51860e-01,9.99999e-01,9.91690e-01,6.57360e-01,9.99941e-01
6.297549810e-01,6.60728e-01,9.99999e-01,9.96945e-01,6.62830e-01,9.99882e-01
6.329037559e-01,6.64142e-01,9.99999e-01,9.93966e-01,6.68236e-01,9.99905e-01
6.360682746e-01,6.70080e-01,9.99999e-01,9.94861e-01,6.73578e-01,9.99944e-01
6.392486160e-01,6.74321e-01,9.99999e-01,9.93343e-01,6.78856e-01,9.99974e-01
6.424448591e-01,6.77963e-01,9.99999e-01,9.91111e-01,6.84070e-01,9.99960e-01
6.456570834e-01,6.61155e-01,9.99999e-01,9.59500e-01,6.89220e-01,9.99770e-01
6.488853688e-01,6.73199e-01,9.99999e-01,9.70223e-01,6.94305e-01,9.99357e-01
6.521297956e-01,6.77790e-01,9.99999e-01,9.69716e-01,6.99327e-01,9.99469e-01
6.553904446e-01,6.82659e-01,9.99999e-01,9.69675e-01,7.04285e-01,9.99604e-01
6.586673968e-01,6.90663e-01,9.99999e-01,9.74019e-01,7.09178e-01,9.99867e-01
6.619607338e-01,7.03186e-01,9.99999e-01,9.84870e-01,7.14009e-01,9.99971e-01
6.652705375e-01,7.12449e-01,9.99999e-01,9.91212e-01,7.18775e-01,9.99985e-01
6.685968902e-01,7.20516e-01,9.99999e-01,9.95907e-01,7.23479e-01,9.99997e-01
6.719398746e-01,7.26738e-01,9.99999e-01,9.98102e-01,7.28119e-01,9.99999e-01
6.752995740e-01,7.31943e-01,9.99999e-01,9.98971e-01,7.32697e-01,9.99999e-01
6.786760719e-01,7.36116e-01,9.99999e-01,9.98514e-01,7.37212e-01,9.99997e-01
6.820694522e-01,7.39770e-01,9.99999e-01,9.97457e-01,7.41665e-01,9.99986e-01
6.854797995e-01,7.43590e-01,9.99999e-01,9.96722e-01,7.46056e-01,9.99971e-01
6.889071985e-01,7.44410e-01,9.99999e-01,9.92106e-01,7.50386e-01,9.99928e-01
6.923517345e-01,6.63455e-01,9.99999e-01,8.79697e-01,7.54654e-01,9.99378e-01
6.958134932e-01,7.09059e-01,9.99999e-01,9.35657e-01,7.58862e-01,9.98624e-01
6.992925606e-01,7.15005e-01,9.99999e-01,9.38246e-01,7.63009e-01,9.98760e-01
7.027890234e-01,7.08316e-01,9.99999e-01,9.24246e-01,7.67097e-01,9.99053e-01
7.063029686e-01,7.21202e-01,9.99999e-01,9.35700e-01,7.71125e-01,9.99528e-01
7.098344834e-01,7.26950e-01,9.99999e-01,9.38147e-01,7.75094e-01,9.99721e-01
7.133836558e-01,7.15736e-01,9.99999e-01,9.19292e-01,7.79004e-01,9.99446e-01
7.169505741e-01,4.15642e-01,9.99999e-01,5.33248e-01,7.82856e-01,9.95651e-01
7.205353270e-01,5.68267e-01,9.99999e-01,7.27962e-01,7.86651e-01,9.92340e-01
7.241380036e-01,5.22896e-01,9.99999e-01,6.65974e-01,7.90389e-01,9.93382e-01
7.277586936e-01,5.47636e-01,9.99999e-01,6.93410e-01,7.94070e-01,9.94587e-01
7.313974871e-01,5.35231e-01,9.99999e-01,6.72680e-01,7.97694e-01,9.97461e-01
7.350544745e-01,6.43035e-01,9.99999e-01,8.03234e-01,8.01264e-01,9.99116e-01
7.387297469e-01,6.83592e-01,9.99999e-01,8.49759e-01,8.04778e-01,9.99594e-01
7.424233956e-01,7.45984e-01,9.99999e-01,9.23047e-01,8.08238e-01,9.99921e-01
7.461355126e-01,7.73128e-01,9.99999e-01,9.52558e-01,8.11644e-01,9.99985e-01
7.498661902e-01,7.96741e-01,9.99999e-01,9.77604e-01,8.14997e-01,9.99994e-01
7.536155211e-01,8.09250e-01,9.99999e-01,9.88947e-01,8.18297e-01,9.99996e-01
7.573835987e-01,8.16858e-01,9.99999e-01,9.94295e-01,8.21544e-01,9.99998e-01
7.611705167e-01,8.21815e-01,9.99999e-01,9.96452e-01,8.24740e-01,9.99999e-01
7.649763693e-01,8.26044e-01,9.99999e-01,9.97775e-01,8.27885e-01,9.99999e-01
7.688012511e-01,8.29692e-01,9.99999e-01,9.98450e-01,8.30980e-01,9.99999e-01
7.726452574e-01,8.32961e-01,9.99999e-01,9.98724e-01,8.34024e-01,9.99998e-01
7.765084837e-01,8.35502e-01,9.99999e-01,9.98188e-01,8.37020e-01,9.99997e-01
7.803910261e-01,8.33407e-01,9.99999e-01,9.92197e-01,8.39966e-01,9.99991e-01
7.842929812e-01,8.20129e-01,9.99999e-01,9.73073e-01,8.42865e-01,9.99949e-01
7.882144461e-01,7.99147e-01,9.99999e-01,9.45261e-01,8.45715e-01,9.99655e-01
7.921555184e-01,8.22207e-01,9.99999e-01,9.69635e-01,8.48519e-01,9.99333e-01
7.961162960e-01,8.05703e-01,9.99999e-01,9.47068e-01,8.51277e-01,9.99361e-01
8.000968774e-01,8.01187e-01,9.99999e-01,9.38807e-01,8.53989e-01,9.99320e-01
8.040973618e-01,8.03866e-01,9.99999e-01,9.38883e-01,8.56655e-01,9.99460e-01
8.081178486e-01,7.46496e-01,9.99999e-01,8.69187e-01,8.59277e-01,9.99493e-01
8.121584379e-01,4.89654e-01,9.99999e-01,5.69270e-01,8.61855e-01,9.98012e-01
8.162192301e-01,4.42609e-01,9.99999e-01,5.15892e-01,8.64390e-01,9.92547e-01
8.203003262e-01,6.30024e-01,9.99999e-01,7.33163e-01,8.66882e-01,9.91278e-01
8.244018279e-01,5.70730e-01,9.99999e-01,6.61108e-01,8.69331e-01,9.93053e-01
8.285238370e-01,5.77808e-01,9.99999e-01,6.66460e-01,8.71739e-01,9.94539e-01
8.326664562e-01,5.80490e-01,9.99999e-01,6.65600e-01,8.74106e-01,9.97738e-01
8.368297885e-01,6.50050e-01,9.99999e-01,7.42083e-01,8.76432e-01,9.99482e-01
8.410139374e-01,7.34774e-01,9.99999e-01,8.36440e-01,8.78718e-01,9.99697e-01
8.452190071e-01,8.06511e-01,9.99999e-01,9.15650e-01,8.80965e-01,9.99818e-01
8.494451021e-01,8.38908e-01,9.99999e-01,9.50016e-01,8.83173e-01,9.99854e-01
8.536923276e-01,8.58826e-01,9.99999e-01,9.70133e-01,8.85343e-01,9.99911e-01
8.579607893e-01,8.71037e-01,9.99999e-01,9.81497e-01,8.87475e-01,9.99978e-01
8.622505932e-01,8.79074e-01,9.99999e-01,9.88203e-01,8.89571e-01,9.99995e-01
8.665618462e-01,8.85108e-01,9.99999e-01,9.92688e-01,8.91629e-01,9.99997e-01
8.708946554e-01,8.86170e-01,9.99999e-01,9.91632e-01,8.93651e-01,9.99994e-01
8.752491287e-01,8.85614e-01,9.99999e-01,9.88818e-01,8.95638e-01,9.99987e-01
8.796253743e-01,8.83700e-01,9.99999e-01,9.84557e-01,8.97590e-01,9.99964e-01
8.840235012e-01,8.83572e-01,9.99999e-01,9.82389e-01,8.99508e-01,9.99891e-01
8.884436187e-01,8.45830e-01,9.99999e-01,9.38648e-01,9.01392e-01,9.99692e-01
8.928858368e-01,4.80636e-01,9.99999e-01,5.33068e-01,9.03242e-01,9.98225e-01
8.973502660e-01,2.99959e-01,9.99999e-01,3.34454e-01,9.05059e-01,9.90940e-01
9.018370173e-01,5.10654e-01,9.99999e-01,5.71226e-01,9.06844e-01,9.85793e-01
9.063462024e-01,5.43725e-01,9.99999e-01,6.05991e-01,9.08598e-01,9.87509e-01
9.108779334e-01,4.12712e-01,9.99999e-01,4.59330e-01,9.10320e-01,9.87024e-01
9.154323231e-01,3.66572e-01,9.99999e-01,4.06301e-01,9.12011e-01,9.89262e-01
9.200094847e-01,4.53506e-01,9.99999e-01,4.99363e-01,9.13671e-01,9.93976e-01
9.246095321e-01,3.35823e-01,9.99999e-01,3.69461e-01,9.15302e-01,9.93062e-01
9.292325798e-01,1.10291e-02,9.99999e-01,1.23597e-02,9.16904e-01,9.73215e-01
9.338787427e-01,7.12151e-04,9.99999e-01,8.67457e-04,9.18476e-01,8.93830e-01
9.385481364e-01,4.46736e-02,9.99999e-01,5.54916e-02,9.20020e-01,8.75035e-01
9.432408771e-01,1.98611e-02,9.99999e-01,2.41828e-02,9.21536e-01,8.91218e-01
9.479570815e-01,2.81979e-03,9.99999e-01,3.35512e-03,9.23025e-01,9.10529e-01
9.526968669e-01,9.83399e-03,9.99999e-01,1.12631e-02,9.24486e-01,9.44434e-01
9.574603512e-01,1.27929e-02,9.99999e-01,1.42235e-02,9.25921e-01,9.71378e-01
9.622476530e-01,2.57718e-02,9.99999e-01,2.83551e-02,9.27330e-01,9.80120e-01
9.670588912e-01,1.10117e-01,9.99999e-01,1.20209e-01,9.28713e-01,9.86361e-01
9.718941857e-01,2.07556e-01,9.99999e-01,2.25428e-01,9.30070e-01,9.89941e-01
9.767536566e-01,2.66939e-01,9.99999e-01,2.88820e-01,9.31403e-01,9.92304e-01
9.816374249e-01,3.61187e-01,9.99999e-01,3.88280e-01,9.32712e-01,9.97330e-01
9.865456120e-01,5.11804e-01,9.99999e-01,5.48277e-01,9.33996e-01,9.99443e-01
9.914783401e-01,6.42010e-01,9.99999e-01,6.86559e-01,9.35256e-01,9.99845e-01
9.964357318e-01,7.62679e-01,9.99999e-01,8.14471e-01,9.36494e-01,9.99909e-01
1.001417910e+00,8.28697e-01,9.99999e-01,8.83868e-01,9.37708e-01,9.99861e-01
1.006425000e+00,8.74794e-01,9.99999e-01,9.31904e-01,9.38900e-01,9.99803e-01
1.011457125e+00,8.99650e-01,9.99999e-01,9.57176e-01,9.40070e-01,9.99817e-01
1.016514411e+00,9.13532e-01,9.99999e-01,9.70708e-01,9.41218e-01,9.99871e-01
1.021596983e+00,9.20169e-01,9.99999e-01,9.76592e-01,9.42345e-01,9.99870e-01
1.026704968e+00,9.26100e-01,9.99999e-01,9.81693e-01,9.43451e-01,9.99913e-01
1.031838492e+00,9.31918e-01,9.99999e-01,9.86662e-01,9.44537e-01,9.99975e-01
1.036997685e+00,9.38088e-01,9.99999e-01,9.92057e-01,9.45602e-01,9.99995e-01
1.042182673e+00,9.37689e-01,9.99999e-01,9.90537e-01,9.46647e-01,9.99997e-01
1.047393587e+00,9.35796e-01,9.99999e-01,9.87468e-01,9.47673e-01,9.99997e-01
1.052630555e+00,9.32404e-01,9.99999e-01,9.82848e-01,9.48679e-01,9.99994e-01
1.057893707e+00,9.22643e-01,9.99999e-01,9.71553e-01,9.49667e-01,9.99989e-01
1.063183176e+00,9.06599e-01,9.99999e-01,9.53699e-01,9.50636e-01,9.99974e-01
1.068499092e+00,8.79050e-01,9.99999e-01,9.23821e-01,9.51587e-01,9.99946e-01
1.073841587e+00,8.68569e-01,9.99999e-01,9.11970e-01,9.52521e-01,9.99882e-01
1.079210795e+00,8.46598e-01,9.99999e-01,8.88225e-01,9.53436e-01,9.99682e-01
1.084606849e+00,7.97794e-01,9.99999e-01,8.36607e-01,9.54335e-01,9.99235e-01
1.090029883e+00,7.40266e-01,9.99999e-01,7.76201e-01,9.55216e-01,9.98415e-01
1.095480033e+00,4.80285e-01,9.99999e-01,5.03790e-01,9.56081e-01,9.97136e-01
1.100957433e+00,1.83975e-01,9.99999e-01,1.93273e-01,9.56929e-01,9.94735e-01
1.106462220e+00,2.47889e-02,9.99999e-01,2.61149e-02,9.57762e-01,9.91086e-01
1.111994531e+00,5.46036e-04,9.99999e-01,5.83332e-04,9.58579e-01,9.76511e-01
1.117554504e+00,2.01276e-05,9.99999e-01,2.28596e-05,9.59380e-01,9.17764e-01
1.123142276e+00,6.96138e-04,9.99999e-01,8.88645e-04,9.60166e-01,8.15868e-01
1.128757988e+00,2.79855e-03,9.99999e-01,3.68535e-03,9.60937e-01,7.90238e-01
1.134401778e+00,2.29657e-03,9.99999e-01,2.91728e-03,9.61694e-01,8.18584e-01
1.140073787e+00,2.01809e-02,9.99999e-01,2.46053e-02,9.62436e-01,8.52194e-01
1.145774156e+00,1.96260e-03,9.99999e-01,2.35892e-03,9.63164e-01,8.63810e-01
1.151503026e+00,6.92129e-04,9.99999e-01,7.79084e-04,9.63879e-01,9.21679e-01
1.157260541e+00,7.73647e-04,9.99999e-01,8.21854e-04,9.64579e-01,9.75909e-01
1.163046844e+00,4.90064e-03,9.99999e-01,5.11219e-03,9.65267e-01,9.93112e-01
1.168862078e+00,2.01054e-02,9.99999e-01,2.08886e-02,9.65941e-01,9.96445e-01
1.174706389e+00,8.17023e-02,9.99999e-01,8.49250e-02,9.66602e-01,9.95291e-01
1.180579921e+00,2.05875e-01,9.99999e-01,2.14369e-01,9.67251e-01,9.92888e-01
1.186482820e+00,3.89553e-01,9.99999e-01,4.05436e-01,9.67887e-01,9.92701e-01
1.192415234e+00,5.64366e-01,9.99999e-01,5.85919e-01,9.68512e-01,9.94529e-01
1.198377311e+00,6.15136e-01,9.99999e-01,6.38031e-01,9.69124e-01,9.94831e-01
1.204369197e+00,6.35090e-01,9.99999e-01,6.57995e-01,9.69724e-01,9.95322e-01
1.210391043e+00,6.45814e-01,9.99999e-01,6.67472e-01,9.70313e-01,9.97152e-01
1.216442998e+00,6.87148e-01,9.99999e-01,7.08986e-01,9.70891e-01,9.98254e-01
1.222525213e+00,7.40587e-01,9.99999e-01,7.63173e-01,9.71458e-01,9.98915e-01
1.228637839e+00,8.04874e-01,9.99999e-01,8.28465e-01,9.72014e-01,9.99495e-01
1.234781029e+00,8.45652e-01,9.99999e-01,8.69636e-01,9.72559e-01,9.99855e-01
1.240954934e+00,8.90705e-01,9.99999e-01,9.15370e-01,9.73093e-01,9.99959e-01
1.247159708e+00,9.08704e-01,9.99999e-01,9.33350e-01,9.73618e-01,9.99973e-01
1.253395507e+00,9.16233e-01,9.99999e-01,9.40594e-01,9.74132e-01,9.99965e-01
1.259662485e+00,9.19501e-01,9.99999e-01,9.43479e-01,9.74636e-01,9.99945e-01
1.265960797e+00,8.88664e-01,9.99999e-01,9.11409e-01,9.75131e-01,9.99909e-01
1.272290601e+00,8.43613e-01,9.99999e-01,8.64834e-01,9.75616e-01,9.99840e-01
1.278652054e+00,7.33890e-01,9.99999e-01,7.52076e-01,9.76092e-01,9.99718e-01
1.285045314e+00,5.87390e-01,9.99999e-01,6.01806e-01,9.76559e-01,9.99474e-01
1.291470541e+00,4.05665e-01,9.99999e-01,4.15591e-01,9.77016e-01,9.99077e-01
1.297927893e+00,3.21397e-01,9.99999e-01,3.29372e-01,9.77465e-01,9.98279e-01
1.304417533e+00,2.36840e-01,9.99999e-01,2.43076e-01,9.77905e-01,9.96358e-01
1.310939621e+00,1.93704e-01,9.99999e-01,1.99481e-01,9.78337e-01,9.92537e-01
1.317494319e+00,1.71665e-01,9.99999e-01,1.77837e-01,9.78760e-01,9.86240e-01
1.324081790e+00,8.31114e-02,9.99999e-01,8.68208e-02,9.79175e-01,9.77631e-01
1.330702199e+00,7.59972e-03,9.99999e-01,8.06671e-03,9.79582e-01,9.61743e-01
1.337355710e+00,1.54469e-09,9.99999e-01,1.69921e-09,9.79982e-01,9.27629e-01
1.344042489e+00,6.16152e-14,9.99999e-01,7.88068e-14,9.80373e-01,7.97501e-01
1.350762701e+00,8.40982e-50,9.99999e-01,1.86068e-49,9.80757e-01,4.60843e-01
1.357516515e+00,1.32012e-76,9.99999e-01,1.30702e-75,9.81134e-01,1.02944e-01
1.364304097e+00,1.25274e-46,9.99999e-01,6.86219e-45,9.81503e-01,1.85997e-02
1.371125618e+00,1.49205e-27,9.99999e-01,6.50492e-26,9.81865e-01,2.33609e-02
1.377981246e+00,1.07237e-26,9.99999e-01,2.73309e-25,9.82220e-01,3.99467e-02
1.384871152e+00,5.89965e-38,9.99999e-01,1.20679e-36,9.82568e-01,4.97542e-02
1.391795508e+00,5.73356e-47,9.99999e-01,1.01886e-45,9.82909e-01,5.72528e-02
1.398754485e+00,2.62363e-35,9.99999e-01,2.83368e-34,9.83244e-01,9.41651e-02
1.405748258e+00,7.01575e-35,9.99999e-01,2.83874e-34,9.83572e-01,2.51271e-01
1.412776999e+00,1.49477e-33,9.99998e-01,2.85433e-33,9.83894e-01,5.32258e-01
1.419840884e+00,3.47042e-33,9.99997e-01,4.64923e-33,9.84210e-01,7.58425e-01
1.426940089e+00,3.32545e-21,9.99997e-01,4.16734e-21,9.84519e-01,8.10526e-01
1.434074789e+00,5.86892e-19,9.99997e-01,7.63585e-19,9.84822e-01,7.80445e-01
1.441245163e+00,1.63777e-15,9.99998e-01,2.17456e-15,9.85120e-01,7.64522e-01
1.448451389e+00,5.18701e-10,9.99996e-01,6.65888e-10,9.85412e-01,7.90492e-01
1.455693646e+00,4.92553e-07,9.99998e-01,6.00006e-07,9.85698e-01,8.32824e-01
1.462972114e+00,6.03578e-07,9.99998e-01,7.28846e-07,9.85978e-01,8.39904e-01
1.470286975e+00,1.45508e-07,9.99998e-01,1.75137e-07,9.86253e-01,8.42403e-01
