#,Wave/freq,Total,N2,H2O,Rayleigh,CIA
4.000000000e-01,7.33139e-01,9.99999e-01,9.99964e-01,7.33164e-01,9.99999e-01
4.020000000e-01,7.37662e-01,9.99999e-01,9.99977e-01,7.37678e-01,9.99999e-01
4.040100000e-01,7.42117e-01,9.99999e-01,9.99990e-01,7.42124e-01,9.99999e-01
4.060300500e-01,7.46507e-01,9.99999e-01,9.99997e-01,7.46509e-01,9.99999e-01
4.080602003e-01,7.50832e-01,9.99999e-01,9.99998e-01,7.50832e-01,9.99999e-01
4.101005013e-01,7.55094e-01,9.99999e-01,9.99999e-01,7.55094e-01,9.99999e-01
4.121510038e-01,7.59295e-01,9.99999e-01,9.99998e-01,7.59296e-01,9.99999e-01
4.142117588e-01,7.63430e-01,9.99999e-01,9.99989e-01,7.63437e-01,9.99999e-01
4.162828176e-01,7.67485e-01,9.99999e-01,9.99956e-01,7.67518e-01,9.99999e-01
4.183642317e-01,7.71520e-01,9.99999e-01,9.99973e-01,7.71540e-01,9.99999e-01
4.204560528e-01,7.75491e-01,9.99999e-01,9.99983e-01,7.75503e-01,9.99999e-01
4.225583331e-01,7.79403e-01,9.99999e-01,9.99993e-01,7.79407e-01,9.99999e-01
4.246711247e-01,7.83250e-01,9.99999e-01,9.99994e-01,7.83253e-01,9.99999e-01
4.267944804e-01,7.87037e-01,9.99999e-01,9.99992e-01,7.87042e-01,9.99999e-01
4.289284528e-01,7.90770e-01,9.99999e-01,9.99994e-01,7.90774e-01,9.99999e-01
4.310730950e-01,7.94447e-01,9.99999e-01,9.99997e-01,7.94449e-01,9.99999e-01
4.332284605e-01,7.98068e-01,9.99999e-01,9.99998e-01,7.98068e-01,9.99999e-01
4.353946028e-01,8.01631e-01,9.99999e-01,9.99999e-01,8.01632e-01,9.99999e-01
4.375715758e-01,8.05137e-01,9.99999e-01,9.99995e-01,8.05140e-01,9.99999e-01
4.397594337e-01,8.08564e-01,9.99999e-01,9.99961e-01,8.08595e-01,9.99999e-01
4.419582309e-01,8.11839e-01,9.99999e-01,9.99807e-01,8.11995e-01,9.99999e-01
4.441680220e-01,8.15219e-01,9.99999e-01,9.99848e-01,8.15342e-01,9.99999e-01
4.463888621e-01,8.18508e-01,9.99999e-01,9.99842e-01,8.18637e-01,9.99999e-01
4.486208064e-01,8.21798e-01,9.99999e-01,9.99901e-01,8.21879e-01,9.99999e-01
4.508639105e-01,8.25032e-01,9.99999e-01,9.99953e-01,8.25070e-01,9.99999e-01
4.531182300e-01,8.28194e-01,9.99999e-01,9.99981e-01,8.28209e-01,9.99999e-01
4.553838212e-01,8.31288e-01,9.99999e-01,9.99987e-01,8.31299e-01,9.99999e-01
4.576607403e-01,8.34333e-01,9.99999e-01,9.99993e-01,8.34338e-01,9.99999e-01
4.599490440e-01,8.37325e-01,9.99999e-01,9.99995e-01,8.37328e-01,9.99999e-01
4.622487892e-01,8.40269e-01,9.99999e-01,9.99998e-01,8.40270e-01,9.99999e-01
4.645600332e-01,8.43161e-01,9.99999e-01,9.99996e-01,8.43163e-01,9.99999e-01
4.668828333e-01,8.45970e-01,9.99999e-01,9.99953e-01,8.46009e-01,9.99999e-01
4.692172475e-01,8.48724e-01,9.99999e-01,9.99900e-01,8.48808e-01,9.99999e-01
4.715633337e-01,8.51506e-01,9.99999e-01,9.99935e-01,8.51561e-01,9.99999e-01
4.739211504e-01,8.54215e-01,9.99999e-01,9.99937e-01,8.54268e-01,9.99999e-01
4.762907561e-01,8.56902e-01,9.99999e-01,9.99967e-01,8.56930e-01,9.99999e-01
4.786722099e-01,8.59536e-01,9.99999e-01,9.99986e-01,8.59547e-01,9.99999e-01
4.810655710e-01,8.62117e-01,9.99999e-01,9.99995e-01,8.62121e-01,9.99999e-01
4.834708988e-01,8.64619e-01,9.99999e-01,9.99962e-01,8.64651e-01,9.99999e-01
4.858882533e-01,8.67078e-01,9.99999e-01,9.99929e-01,8.67138e-01,9.99999e-01
4.883176946e-01,8.69533e-01,9.99999e-01,9.99941e-01,8.69583e-01,9.99999e-01
4.907592831e-01,8.71941e-01,9.99999e-01,9.99946e-01,8.71987e-01,9.99999e-01
4.932130795e-01,8.74317e-01,9.99999e-01,9.99962e-01,8.74349e-01,9.99999e-01
4.956791449e-01,8.76654e-01,9.99999e-01,9.99979e-01,8.76672e-01,9.99999e-01
4.981575406e-01,8.78867e-01,9.99999e-01,9.99900e-01,8.78954e-01,9.99999e-01
5.006483283e-01,8.80970e-01,9.99999e-01,9.99744e-01,8.81197e-01,9.99997e-01
5.031515699e-01,8.82240e-01,9.99999e-01,9.98699e-01,8.83401e-01,9.99985e-01
5.056673278e-01,8.84944e-01,9.99999e-01,9.99312e-01,8.85567e-01,9.99983e-01
5.081956644e-01,8.86916e-01,9.99999e-01,9.99132e-01,8.87695e-01,9.99989e-01
5.107366428e-01,8.89263e-01,9.99999e-01,9.99413e-01,8.89786e-01,9.99997e-01
5.132903260e-01,8.91542e-01,9.99999e-01,9.99664e-01,8.91841e-01,9.99999e-01
5.158567776e-01,8.93733e-01,9.99999e-01,9.99857e-01,8.93860e-01,9.99999e-01
5.184360615e-01,8.95792e-01,9.99999e-01,9.99942e-01,8.95843e-01,9.99999e-01
5.210282418e-01,8.97772e-01,9.99999e-01,9.99978e-01,8.97791e-01,9.99999e-01
5.236333830e-01,8.99629e-01,9.99999e-01,9.99914e-01,8.99705e-01,9.99998e-01
5.262515499e-01,9.01537e-01,9.99999e-01,9.99946e-01,9.01585e-01,9.99998e-01
5.288828077e-01,9.03388e-01,9.99999e-01,9.99950e-01,9.03432e-01,9.99998e-01
5.315272217e-01,9.05207e-01,9.99999e-01,9.99956e-01,9.05246e-01,9.99999e-01
5.341848578e-01,9.07003e-01,9.99999e-01,9.99971e-01,9.07028e-01,9.99999e-01
5.368557821e-01,9.08688e-01,9.99999e-01,9.99901e-01,9.08778e-01,9.99999e-01
5.395400610e-01,9.10172e-01,9.99999e-01,9.99645e-01,9.10497e-01,9.99996e-01
5.422377613e-01,9.11756e-01,9.99999e-01,9.99538e-01,9.12185e-01,9.99991e-01
5.449489501e-01,9.13444e-01,9.99999e-01,9.99572e-01,9.13842e-01,9.99990e-01
5.476736949e-01,9.15118e-01,9.99999e-01,9.99619e-01,9.15470e-01,9.99995e-01
5.504120634e-01,9.16814e-01,9.99999e-01,9.99723e-01,9.17068e-01,9.99998e-01
5.531641237e-01,9.18510e-01,9.99999e-01,9.99860e-01,9.18638e-01,9.99999e-01
5.559299443e-01,9.20117e-01,9.99999e-01,9.99932e-01,9.20179e-01,9.99999e-01
5.587095940e-01,9.21654e-01,9.99999e-01,9.99957e-01,9.21692e-01,9.99999e-01
5.615031420e-01,9.23135e-01,9.99999e-01,9.99952e-01,9.23178e-01,9.99999e-01
5.643106577e-01,9.24588e-01,9.99999e-01,9.99947e-01,9.24637e-01,9.99999e-01
5.671322110e-01,9.25474e-01,9.99999e-01,9.99362e-01,9.26069e-01,9.99993e-01
5.699678720e-01,9.26821e-01,9.99999e-01,9.99311e-01,9.27475e-01,9.99982e-01
5.728177114e-01,9.28180e-01,9.99999e-01,9.99287e-01,9.28855e-01,9.99984e-01
5.756818000e-01,9.29593e-01,9.99999e-01,9.99345e-01,9.30210e-01,9.99990e-01
5.785602090e-01,9.31006e-01,9.99999e-01,9.99428e-01,9.31540e-01,9.99996e-01
5.814530100e-01,9.32311e-01,9.99999e-01,9.99427e-01,9.32846e-01,9.99998e-01
5.843602750e-01,9.33490e-01,9.99999e-01,9.99320e-01,9.34128e-01,9.99995e-01
5.872820764e-01,9.29875e-01,9.99999e-01,9.94149e-01,9.35386e-01,9.99958e-01
5.902184868e-01,9.29845e-01,9.99999e-01,9.92876e-01,9.36621e-01,9.99886e-01
5.931695792e-01,9.33017e-01,9.99999e-01,9.94973e-01,9.37833e-01,9.99889e-01
5.961354271e-01,9.33781e-01,9.99999e-01,9.94482e-01,9.39023e-01,9.99933e-01
5.991161043e-01,9.36385e-01,9.99999e-01,9.95971e-01,9.40190e-01,9.99980e-01
6.021116848e-01,9.39180e-01,9.99999e-01,9.97710e-01,9.41336e-01,9.99997e-01
6.051222432e-01,9.41369e-01,9.99999e-01,9.98840e-01,9.42461e-01,9.99999e-01
6.081478544e-01,9.43094e-01,9.99999e-01,9.99500e-01,9.43565e-01,9.99999e-01
6.111885937e-01,9.44448e-01,9.99999e-01,9.99787e-01,9.44648e-01,9.99999e-01
6.142445367e-01,9.45622e-01,9.99999e-01,9.99905e-01,9.45711e-01,9.99999e-01
6.173157594e-01,9.46705e-01,9.99999e-01,9.99947e-01,9.46755e-01,9.99999e-01
6.204023382e-01,9.47737e-01,9.99999e-01,9.99955e-01,9.47778e-01,9.99999e-01
6.235043498e-01,9.48601e-01,9.99999e-01,9.99807e-01,9.48783e-01,9.99999e-01
6.266218716e-01,9.48788e-01,9.99999e-01,9.98974e-01,9.49769e-01,9.99992e-01
6.297549810e-01,9.50365e-01,9.99999e-01,9.99623e-01,9.50736e-01,9.99985e-01
6.329037559e-01,9.50966e-01,9.99999e-01,9.99255e-01,9.51685e-01,9.99987e-01
6.360682746e-01,9.52008e-01,9.99999e-01,9.99367e-01,9.52617e-01,9.99992e-01
6.392486160e-01,9.52745e-01,9.99999e-01,9.99179e-01,9.53530e-01,9.99996e-01
6.424448591e-01,9.53380e-01,9.99999e-01,9.98907e-01,9.54427e-01,9.99994e-01
6.456570834e-01,9.50438e-01,9.99999e-01,9.94931e-01,9.55307e-01,9.99971e-01
6.488853688e-01,9.52524e-01,9.99999e-01,9.96265e-01,9.56170e-01,9.99920e-01
6.521297956e-01,9.53310e-01,9.99999e-01,9.96192e-01,9.57017e-01,9.99933e-01
6.553904446e-01,9.54196e-01,9.99999e-01,9.96236e-01,9.57848e-01,9.99949e-01
6.586673968e-01,9.55535e-01,9.99999e-01,9.96753e-01,9.58663e-01,9.99983e-01
6.619607338e-01,9.57658e-01,9.99999e-01,9.98122e-01,9.59462e-01,9.99996e-01
6.652705375e-01,9.59200e-01,9.99999e-01,9.98911e-01,9.60247e-01,9.99997e-01
6.685968902e-01,9.60531e-01,9.99999e-01,9.99494e-01,9.61017e-01,9.99999e-01
6.719398746e-01,9.61546e-01,9.99999e-01,9.99765e-01,9.61772e-01,9.99999e-01
6.752995740e-01,9.62391e-01,9.99999e-01,9.99872e-01,9.62513e-01,9.99999e-01
6.786760719e-01,9.63064e-01,9.99999e-01,9.99817e-01,9.63239e-01,9.99999e-01
6.820694522e-01,9.63649e-01,9.99999e-01,9.99687e-01,9.63952e-01,9.99997e-01
6.854797995e-01,9.64260e-01,9.99999e-01,9.99596e-01,9.64651e-01,9.99996e-01
6.889071985e-01,9.64395e-01,9.99999e-01,9.99032e-01,9.65337e-01,9.99990e-01
6.923517345e-01,9.50681e-01,9.99999e-01,9.84205e-01,9.66010e-01,9.99923e-01
6.958134932e-01,9.58452e-01,9.99999e-01,9.91668e-01,9.66670e-01,9.99827e-01
6.992925606e-01,9.59594e-01,9.99999e-01,9.92165e-01,9.67318e-01,9.99847e-01
7.027890234e-01,9.58445e-01,9.99999e-01,9.90292e-01,9.67953e-01,9.99883e-01
7.063029686e-01,9.60613e-01,9.99999e-01,9.91836e-01,9.68576e-01,9.99941e-01
7.098344834e-01,9.61561e-01,9.99999e-01,9.92165e-01,9.69187e-01,9.99965e-01
7.133836558e-01,9.59680e-01,9.99999e-01,9.89645e-01,9.69786e-01,9.99931e-01
7.169505741e-01,8.91844e-01,9.99999e-01,9.19564e-01,9.70374e-01,9.99463e-01
7.205353270e-01,9.30632e-01,9.99999e-01,9.59381e-01,9.70950e-01,9.99054e-01
7.241380036e-01,9.21293e-01,9.99999e-01,9.49078e-01,9.71516e-01,9.99183e-01
7.277586936e-01,9.26654e-01,9.99999e-01,9.53914e-01,9.72071e-01,9.99332e-01
7.313974871e-01,9.24533e-01,9.99999e-01,9.50860e-01,9.72615e-01,9.99686e-01
7.350544745e-01,9.46652e-01,9.99999e-01,9.72877e-01,9.73148e-01,9.99890e-01
7.387297469e-01,9.54111e-01,9.99999e-01,9.79958e-01,9.73672e-01,9.99949e-01
7.424233956e-01,9.64564e-01,9.99999e-01,9.90133e-01,9.74185e-01,9.99989e-01
7.461355126e-01,9.68854e-01,9.99999e-01,9.94015e-01,9.74688e-01,9.99997e-01
7.498661902e-01,9.72457e-01,9.99999e-01,9.97205e-01,9.75182e-01,9.99998e-01
7.536155211e-01,9.74330e-01,9.99999e-01,9.98630e-01,9.75666e-01,9.99999e-01
7.573835987e-01,9.75453e-01,9.99999e-01,9.99294e-01,9.76141e-01,9.99999e-01
7.611705167e-01,9.76179e-01,9.99999e-01,9.99561e-01,9.76607e-01,9.99999e-01
7.649763693e-01,9.76796e-01,9.99999e-01,9.99725e-01,9.77063e-01,9.99999e-01
7.688012511e-01,9.77325e-01,9.99999e-01,9.99808e-01,9.77511e-01,9.99999e-01
7.726452574e-01,9.77797e-01,9.99999e-01,9.99842e-01,9.77951e-01,9.99999e-01
7.765084837e-01,9.78164e-01,9.99999e-01,9.99777e-01,9.78381e-01,9.99999e-01
7.803910261e-01,9.77864e-01,9.99999e-01,9.99040e-01,9.78804e-01,9.99998e-01
7.842929812e-01,9.75936e-01,9.99999e-01,9.96654e-01,9.79218e-01,9.99993e-01
7.882144461e-01,9.72809e-01,9.99999e-01,9.93084e-01,9.79624e-01,9.99957e-01
7.921555184e-01,9.76212e-01,9.99999e-01,9.96192e-01,9.80023e-01,9.99917e-01
7.961162960e-01,9.73788e-01,9.99999e-01,9.93319e-01,9.80413e-01,9.99920e-01
8.000968774e-01,9.73126e-01,9.99999e-01,9.92261e-01,9.80797e-01,9.99915e-01
8.040973618e-01,9.73519e-01,9.99999e-01,9.92265e-01,9.81172e-01,9.99933e-01
8.081178486e-01,9.64513e-01,9.99999e-01,9.82712e-01,9.81541e-01,9.99937e-01
8.121584379e-01,9.12808e-01,9.99999e-01,9.29859e-01,9.81902e-01,9.99754e-01
8.162192301e-01,8.99786e-01,9.99999e-01,9.16882e-01,9.82256e-01,9.99080e-01
8.203003262e-01,9.40604e-01,9.99999e-01,9.58287e-01,9.82604e-01,9.98922e-01
8.244018279e-01,9.24692e-01,9.99999e-01,9.41543e-01,9.82944e-01,9.99142e-01
8.285238370e-01,9.33157e-01,9.99999e-01,9.49665e-01,9.83278e-01,9.99326e-01
8.326664562e-01,9.33221e-01,9.99999e-01,9.49038e-01,9.83606e-01,9.99721e-01
8.368297885e-01,9.47719e-01,9.99999e-01,9.63261e-01,9.83927e-01,9.99935e-01
8.410139374e-01,9.62555e-01,9.99999e-01,9.78001e-01,9.84242e-01,9.99962e-01
8.452190071e-01,9.73844e-01,9.99999e-01,9.89146e-01,9.84551e-01,9.99977e-01
8.494451021e-01,9.78635e-01,9.99999e-01,9.93702e-01,9.84854e-01,9.99981e-01
8.536923276e-01,9.81460e-01,9.99999e-01,9.96265e-01,9.85151e-01,9.99987e-01
8.579607893e-01,9.83175e-01,9.99999e-01,9.97702e-01,9.85442e-01,9.99996e-01
8.622505932e-01,9.84286e-01,9.99999e-01,9.98538e-01,9.85727e-01,9.99999e-01
8.665618462e-01,9.85117e-01,9.99999e-01,9.99097e-01,9.86007e-01,9.99999e-01
8.708946554e-01,9.85264e-01,9.99999e-01,9.98967e-01,9.86282e-01,9.99998e-01
8.752491287e-01,9.85187e-01,9.99999e-01,9.98618e-01,9.86551e-01,9.99998e-01
8.796253743e-01,9.84927e-01,9.99999e-01,9.98090e-01,9.86815e-01,9.99995e-01
8.840235012e-01,9.84907e-01,9.99999e-01,9.97818e-01,9.87073e-01,9.99986e-01
8.884436187e-01,9.79529e-01,9.99999e-01,9.92138e-01,9.87327e-01,9.99961e-01
8.928858368e-01,9.08204e-01,9.99999e-01,9.19830e-01,9.87576e-01,9.99781e-01
8.973502660e-01,8.50592e-01,9.99999e-01,8.62044e-01,9.87820e-01,9.98881e-01
9.018370173e-01,9.14081e-01,9.99999e-01,9.26756e-01,9.88059e-01,9.98241e-01
9.063462024e-01,9.23345e-01,9.99999e-01,9.35727e-01,9.88293e-01,9.98455e-01
9.108779334e-01,8.89562e-01,9.99999e-01,9.01335e-01,9.88523e-01,9.98394e-01
9.154323231e-01,8.77317e-01,9.99999e-01,8.88478e-01,9.88749e-01,9.98672e-01
9.200094847e-01,9.00792e-01,9.99999e-01,9.11515e-01,9.88970e-01,9.99256e-01
9.246095321e-01,8.57728e-01,9.99999e-01,8.67847e-01,9.89186e-01,9.99143e-01
9.292325798e-01,3.87430e-01,9.99999e-01,3.92891e-01,9.89399e-01,9.96666e-01
9.338787427e-01,2.91822e-01,9.99999e-01,2.98984e-01,9.89607e-01,9.86291e-01
9.385481364e-01,5.96727e-01,9.99999e-01,6.12847e-01,9.89811e-01,9.83717e-01
9.432408771e-01,5.01689e-01,9.99999e-01,5.13978e-01,9.90011e-01,9.85936e-01
9.479570815e-01,3.93188e-01,9.99999e-01,4.01679e-01,9.90208e-01,9.88539e-01
9.526968669e-01,4.89337e-01,9.99999e-01,4.97565e-01,9.90400e-01,9.92993e-01
9.574603512e-01,5.12733e-01,9.99999e-01,5.19456e-01,9.90589e-01,9.96434e-01
9.622476530e-01,5.77277e-01,9.99999e-01,5.84092e-01,9.90774e-01,9.97533e-01
9.670588912e-01,7.25025e-01,9.99999e-01,7.32878e-01,9.90955e-01,9.98312e-01
9.718941857e-01,8.13821e-01,9.99999e-01,8.22122e-01,9.91133e-01,9.98757e-01
9.767536566e-01,8.41699e-01,9.99999e-01,8.49886e-01,9.91307e-01,9.99049e-01
9.816374249e-01,8.78298e-01,9.99999e-01,8.86137e-01,9.91478e-01,9.99670e-01
9.865456120e-01,9.19375e-01,9.99999e-01,9.27183e-01,9.91646e-01,9.99931e-01
9.914783401e-01,9.46501e-01,9.99999e-01,9.54333e-01,9.91810e-01,9.99980e-01
9.964357318e-01,9.67028e-01,9.99999e-01,9.74864e-01,9.91971e-01,9.99988e-01
1.001417910e+00,9.77089e-01,9.99999e-01,9.84856e-01,9.92129e-01,9.99982e-01
1.006425000e+00,9.83678e-01,9.99999e-01,9.91349e-01,9.92284e-01,9.99975e-01
1.011457125e+00,9.87071e-01,9.99999e-01,9.94615e-01,9.92436e-01,9.99977e-01
1.016514411e+00,9.88942e-01,9.99999e-01,9.96344e-01,9.92585e-01,9.99983e-01
1.021596983e+00,9.89824e-01,9.99999e-01,9.97087e-01,9.92731e-01,9.99983e-01
1.026704968e+00,9.90609e-01,9.99999e-01,9.97728e-01,9.92874e-01,9.99988e-01
1.031838492e+00,9.91370e-01,9.99999e-01,9.98346e-01,9.93014e-01,9.99996e-01
1.036997685e+00,9.92177e-01,9.99999e-01,9.99018e-01,9.93152e-01,9.99999e-01
1.042182673e+00,9.92127e-01,9.99999e-01,9.98832e-01,9.93286e-01,9.99999e-01
1.047393587e+00,9.91880e-01,9.99999e-01,9.98450e-01,9.93419e-01,9.99999e-01
1.052630555e+00,9.91438e-01,9.99999e-01,9.97876e-01,9.93548e-01,9.99998e-01
1.057893707e+00,9.90156e-01,9.99999e-01,9.96459e-01,9.93675e-01,9.99998e-01
1.063183176e+00,9.88009e-01,9.99999e-01,9.94175e-01,9.93800e-01,9.99996e-01
1.068499092e+00,9.84232e-01,9.99999e-01,9.90256e-01,9.93922e-01,9.99992e-01
1.073841587e+00,9.82716e-01,9.99999e-01,9.88620e-01,9.94041e-01,9.99985e-01
1.079210795e+00,9.79616e-01,9.99999e-01,9.85410e-01,9.94159e-01,9.99960e-01
1.084606849e+00,9.72327e-01,9.99999e-01,9.78018e-01,9.94274e-01,9.99905e-01
1.090029883e+00,9.63055e-01,9.99999e-01,9.68680e-01,9.94387e-01,9.99804e-01
1.095480033e+00,9.11512e-01,9.99999e-01,9.16878e-01,9.94497e-01,9.99646e-01
1.100957433e+00,7.97877e-01,9.99999e-01,8.02724e-01,9.94605e-01,9.99350e-01
1.106462220e+00,5.73141e-01,9.99999e-01,5.76823e-01,9.94712e-01,9.98899e-01
1.111994531e+00,3.15231e-01,9.99999e-01,3.17801e-01,9.94816e-01,9.97080e-01
1.117554504e+00,1.57896e-01,9.99999e-01,1.60386e-01,9.94918e-01,9.89501e-01
1.123142276e+00,2.63725e-01,9.99999e-01,2.71761e-01,9.95018e-01,9.75284e-01
1.128757988e+00,4.08110e-01,9.99999e-01,4.22159e-01,9.95116e-01,9.71463e-01
1.134401778e+00,1.97807e-01,9.99999e-01,2.03712e-01,9.95212e-01,9.75682e-01
1.140073787e+00,5.77137e-01,9.99999e-01,5.91376e-01,9.95307e-01,9.80522e-01
1.145774156e+00,3.35675e-01,9.99999e-01,3.43352e-01,9.95399e-01,9.82156e-01
1.151503026e+00,3.02661e-01,9.99999e-01,3.07096e-01,9.95490e-01,9.90019e-01
1.157260541e+00,3.58540e-01,9.99999e-01,3.61214e-01,9.95579e-01,9.97005e-01
1.163046844e+00,4.66431e-01,9.99999e-01,4.68860e-01,9.95666e-01,9.99149e-01
1.168862078e+00,5.84254e-01,9.99999e-01,5.87004e-01,9.95751e-01,9.99561e-01
1.174706389e+00,7.16238e-01,9.99999e-01,7.19650e-01,9.95835e-01,9.99419e-01
1.180579921e+00,8.14004e-01,9.99999e-01,8.18058e-01,9.95917e-01,9.99122e-01
1.186482820e+00,8.88165e-01,9.99999e-01,8.92537e-01,9.95998e-01,9.99099e-01
1.192415234e+00,9.31490e-01,9.99999e-01,9.35789e-01,9.96076e-01,9.99325e-01
1.198377311e+00,9.41425e-01,9.99999e-01,9.45662e-01,9.96154e-01,9.99362e-01
1.204369197e+00,9.44410e-01,9.99999e-01,9.48530e-01,9.96230e-01,9.99423e-01
1.210391043e+00,9.46843e-01,9.99999e-01,9.50688e-01,9.96304e-01,9.99648e-01
1.216442998e+00,9.54175e-01,9.99999e-01,9.57849e-01,9.96377e-01,9.99784e-01
1.222525213e+00,9.63468e-01,9.99999e-01,9.67030e-01,9.96448e-01,9.99866e-01
1.228637839e+00,9.73537e-01,9.99999e-01,9.76998e-01,9.96518e-01,9.99937e-01
1.234781029e+00,9.79489e-01,9.99999e-01,9.82860e-01,9.96587e-01,9.99981e-01
1.240954934e+00,9.85822e-01,9.99999e-01,9.89135e-01,9.96654e-01,9.99994e-01
1.247159708e+00,9.88271e-01,9.99999e-01,9.91526e-01,9.96720e-01,9.99996e-01
1.253395507e+00,9.89285e-01,9.99999e-01,9.92479e-01,9.96785e-01,9.99995e-01
1.259662485e+00,9.89729e-01,9.99999e-01,9.92864e-01,9.96848e-01,9.99992e-01
1.265960797e+00,9.85541e-01,9.99999e-01,9.88605e-01,9.96910e-01,9.99988e-01
1.272290601e+00,9.80301e-01,9.99999e-01,9.83297e-01,9.96971e-01,9.99979e-01
1.278652054e+00,9.62123e-01,9.99999e-01,9.65021e-01,9.97031e-01,9.99964e-01
1.285045314e+00,9.42726e-01,9.99999e-01,9.45538e-01,9.97089e-01,9.99934e-01
1.291470541e+00,8.90861e-01,9.99999e-01,8.93510e-01,9.97147e-01,9.99886e-01
1.297927893e+00,8.60874e-01,9.99999e-01,8.63470e-01,9.97203e-01,9.99787e-01
1.304417533e+00,8.25214e-01,9.99999e-01,8.27853e-01,9.97258e-01,9.99551e-01
1.310939621e+00,8.03001e-01,9.99999e-01,8.05906e-01,9.97312e-01,9.99078e-01
1.317494319e+00,7.87402e-01,9.99999e-01,7.90827e-01,9.97365e-01,9.98297e-01
1.324081790e+00,7.01933e-01,9.99999e-01,7.05710e-01,9.97417e-01,9.97221e-01
1.330702199e+00,2.95338e-01,9.99999e-01,2.97511e-01,9.97468e-01,9.95214e-01
1.337355710e+00,3.59976e-02,9.99999e-01,3.64221e-02,9.97518e-01,9.90803e-01
1.344042489e+00,1.21600e-03,9.99999e-01,1.25336e-03,9.97567e-01,9.72557e-01
1.350762701e+00,7.88993e-08,9.99999e-01,8.69931e-08,9.97615e-01,9.09127e-01
1.357516515e+00,3.57119e-11,9.99999e-01,4.73431e-11,9.97662e-01,7.56088e-01
1.364304097e+00,2.22241e-07,9.99999e-01,3.63605e-07,9.97708e-01,6.12617e-01
1.371125618e+00,3.90335e-05,9.99999e-01,6.20942e-05,9.97753e-01,6.30031e-01
1.377981246e+00,1.33946e-04,9.99999e-01,1.99467e-04,9.97798e-01,6.72999e-01
1.384871152e+00,1.24310e-06,9.99999e-01,1.80898e-06,9.97841e-01,6.88669e-01
1.391795508e+00,2.98254e-07,9.99999e-01,4.25447e-07,9.97884e-01,7.02523e-01
1.398754485e+00,5.46872e-06,9.99999e-01,7.32781e-06,9.97925e-01,7.47846e-01
1.405748258e+00,6.30496e-06,9.99999e-01,7.48746e-06,9.97966e-01,8.43783e-01
1.412776999e+00,6.46932e-06,9.99999e-01,7.00495e-06,9.98006e-01,9.25378e-01
1.419840884e+00,1.41524e-05,9.99999e-01,1.46705e-05,9.98046e-01,9.66566e-01
1.426940089e+00,2.06402e-04,9.99999e-01,2.12210e-04,9.98084e-01,9.74496e-01
1.434074789e+00,1.30542e-03,9.99999e-01,1.34836e-03,9.98122e-01,9.69974e-01
1.441245163e+00,4.76955e-03,9.99999e-01,4.93876e-03,9.98159e-01,9.67519e-01
1.448451389e+00,2.39364e-02,9.99999e-01,2.46831e-02,9.98195e-01,9.71501e-01
1.455693646e+00,7.81986e-02,9.99999e-01,8.01194e-02,9.98231e-01,9.77754e-01
1.462972114e+00,1.06682e-01,9.99999e-01,1.09185e-01,9.98266e-01,9.78772e-01
1.470286975e+00,7.48126e-02,9.99999e-01,7.65372e-02,9.98300e-01,9.79130e-01
