#,Wave/freq,Total,N2,H2O,Rayleigh,CIA
4.000000000e-01,8.43763e-01,9.99999e-01,9.99980e-01,8.43780e-01,9.99999e-01
4.020000000e-01,8.46608e-01,9.99999e-01,9.99987e-01,8.46618e-01,9.99999e-01
4.040100000e-01,8.49403e-01,9.99999e-01,9.99994e-01,8.49407e-01,9.99999e-01
4.060300500e-01,8.52149e-01,9.99999e-01,9.99998e-01,8.52150e-01,9.99999e-01
4.080602003e-01,8.54847e-01,9.99999e-01,9.99999e-01,8.54847e-01,9.99999e-01
4.101005013e-01,8.57500e-01,9.99999e-01,9.99999e-01,8.57500e-01,9.99999e-01
4.121510038e-01,8.60107e-01,9.99999e-01,9.99998e-01,8.60107e-01,9.99999e-01
4.142117588e-01,8.62667e-01,9.99999e-01,9.99994e-01,8.62671e-01,9.99999e-01
4.162828176e-01,8.65172e-01,9.99999e-01,9.99975e-01,8.65192e-01,9.99999e-01
4.183642317e-01,8.67658e-01,9.99999e-01,9.99985e-01,8.67670e-01,9.99999e-01
4.204560528e-01,8.70099e-01,9.99999e-01,9.99990e-01,8.70107e-01,9.99999e-01
4.225583331e-01,8.72498e-01,9.99999e-01,9.99996e-01,8.72501e-01,9.99999e-01
4.246711247e-01,8.74853e-01,9.99999e-01,9.99996e-01,8.74855e-01,9.99999e-01
4.267944804e-01,8.77165e-01,9.99999e-01,9.99995e-01,8.77168e-01,9.99999e-01
4.289284528e-01,8.79439e-01,9.99999e-01,9.99996e-01,8.79442e-01,9.99999e-01
4.310730950e-01,8.81675e-01,9.99999e-01,9.99998e-01,8.81676e-01,9.99999e-01
4.332284605e-01,8.83872e-01,9.99999e-01,9.99999e-01,8.83872e-01,9.99999e-01
4.353946028e-01,8.86030e-01,9.99999e-01,9.99999e-01,8.86030e-01,9.99999e-01
4.375715758e-01,8.88148e-01,9.99999e-01,9.99997e-01,8.88150e-01,9.99999e-01
4.397594337e-01,8.90215e-01,9.99999e-01,9.99978e-01,8.90234e-01,9.99999e-01
4.419582309e-01,8.92184e-01,9.99999e-01,9.99891e-01,8.92280e-01,9.99999e-01
4.441680220e-01,8.94218e-01,9.99999e-01,9.99917e-01,8.94291e-01,9.99999e-01
4.463888621e-01,8.96190e-01,9.99999e-01,9.99913e-01,8.96267e-01,9.99999e-01
4.486208064e-01,8.98160e-01,9.99999e-01,9.99946e-01,8.98208e-01,9.99999e-01
4.508639105e-01,9.00092e-01,9.99999e-01,9.99974e-01,9.00115e-01,9.99999e-01
4.531182300e-01,9.01979e-01,9.99999e-01,9.99989e-01,9.01988e-01,9.99999e-01
4.553838212e-01,9.03821e-01,9.99999e-01,9.99992e-01,9.03827e-01,9.99999e-01
4.576607403e-01,9.05632e-01,9.99999e-01,9.99996e-01,9.05634e-01,9.99999e-01
4.599490440e-01,9.07407e-01,9.99999e-01,9.99997e-01,9.07409e-01,9.99999e-01
4.622487892e-01,9.09152e-01,9.99999e-01,9.99999e-01,9.09152e-01,9.99999e-01
4.645600332e-01,9.10863e-01,9.99999e-01,9.99997e-01,9.10864e-01,9.99999e-01
4.668828333e-01,9.12522e-01,9.99999e-01,9.99974e-01,9.12546e-01,9.99999e-01
4.692172475e-01,9.14147e-01,9.99999e-01,9.99945e-01,9.14197e-01,9.99999e-01
4.715633337e-01,9.15786e-01,9.99999e-01,9.99964e-01,9.15818e-01,9.99999e-01
4.739211504e-01,9.17379e-01,9.99999e-01,9.99965e-01,9.17410e-01,9.99999e-01
4.762907561e-01,9.18958e-01,9.99999e-01,9.99982e-01,9.18973e-01,9.99999e-01
4.786722099e-01,9.20502e-01,9.99999e-01,9.99992e-01,9.20509e-01,9.99999e-01
4.810655710e-01,9.22014e-01,9.99999e-01,9.99997e-01,9.22016e-01,9.99999e-01
4.834708988e-01,9.23476e-01,9.99999e-01,9.99978e-01,9.23496e-01,9.99999e-01
4.858882533e-01,9.24913e-01,9.99999e-01,9.99961e-01,9.24949e-01,9.99999e-01
4.883176946e-01,9.26345e-01,9.99999e-01,9.99967e-01,9.26375e-01,9.99999e-01
4.907592831e-01,9.27749e-01,9.99999e-01,9.99970e-01,9.27775e-01,9.99999e-01
4.932130795e-01,9.29131e-01,9.99999e-01,9.99979e-01,9.29150e-01,9.99999e-01
4.956791449e-01,9.30490e-01,9.99999e-01,9.99988e-01,9.30500e-01,9.99999e-01
4.981575406e-01,9.31774e-01,9.99999e-01,9.99944e-01,9.31825e-01,9.99999e-01
5.006483283e-01,9.32991e-01,9.99999e-01,9.99857e-01,9.33125e-01,9.99998e-01
5.031515699e-01,9.33727e-01,9.99999e-01,9.99284e-01,9.34402e-01,9.99992e-01
5.056673278e-01,9.35296e-01,9.99999e-01,9.99624e-01,9.35655e-01,9.99990e-01
5.081956644e-01,9.36437e-01,9.99999e-01,9.99526e-01,9.36885e-01,9.99994e-01
5.107366428e-01,9.37792e-01,9.99999e-01,9.99680e-01,9.38092e-01,9.99998e-01
5.132903260e-01,9.39106e-01,9.99999e-01,9.99817e-01,9.39277e-01,9.99999e-01
5.158567776e-01,9.40368e-01,9.99999e-01,9.99922e-01,9.40440e-01,9.99999e-01
5.184360615e-01,9.41552e-01,9.99999e-01,9.99968e-01,9.41581e-01,9.99999e-01
5.210282418e-01,9.42691e-01,9.99999e-01,9.99987e-01,9.42702e-01,9.99999e-01
5.236333830e-01,9.43757e-01,9.99999e-01,9.99953e-01,9.43801e-01,9.99999e-01
5.262515499e-01,9.44852e-01,9.99999e-01,9.99970e-01,9.44880e-01,9.99999e-01
5.288828077e-01,9.45913e-01,9.99999e-01,9.99972e-01,9.45939e-01,9.99999e-01
5.315272217e-01,9.46956e-01,9.99999e-01,9.99976e-01,9.46978e-01,9.99999e-01
5.341848578e-01,9.47983e-01,9.99999e-01,9.99984e-01,9.47997e-01,9.99999e-01
5.368557821e-01,9.48946e-01,9.99999e-01,9.99945e-01,9.48998e-01,9.99999e-01
5.395400610e-01,9.49789e-01,9.99999e-01,9.99801e-01,9.49979e-01,9.99997e-01
5.422377613e-01,9.50700e-01,9.99999e-01,9.99748e-01,9.50943e-01,9.99994e-01
5.449489501e-01,9.51659e-01,9.99999e-01,9.99763e-01,9.51888e-01,9.99994e-01
5.476736949e-01,9.52617e-01,9.99999e-01,9.99792e-01,9.52816e-01,9.99997e-01
5.504120634e-01,9.53582e-01,9.99999e-01,9.99849e-01,9.53726e-01,9.99998e-01
5.531641237e-01,9.54547e-01,9.99999e-01,9.99924e-01,9.54619e-01,9.99999e-01
5.559299443e-01,9.55460e-01,9.99999e-01,9.99963e-01,9.55495e-01,9.99999e-01
5.587095940e-01,9.56332e-01,9.99999e-01,9.99976e-01,9.56354e-01,9.99999e-01
5.615031420e-01,9.57173e-01,9.99999e-01,9.99973e-01,9.57198e-01,9.99999e-01
5.643106577e-01,9.57997e-01,9.99999e-01,9.99970e-01,9.58025e-01,9.99999e-01
5.671322110e-01,9.58488e-01,9.99999e-01,9.99638e-01,9.58837e-01,9.99996e-01
5.699678720e-01,9.59269e-01,9.99999e-01,9.99629e-01,9.59633e-01,9.99989e-01
5.728177114e-01,9.60031e-01,9.99999e-01,9.99608e-01,9.60415e-01,9.99991e-01
5.756818000e-01,9.60833e-01,9.99999e-01,9.99641e-01,9.61181e-01,9.99994e-01
5.785602090e-01,9.61632e-01,9.99999e-01,9.99688e-01,9.61933e-01,9.99998e-01
5.814530100e-01,9.62368e-01,9.99999e-01,9.99685e-01,9.62671e-01,9.99998e-01
5.843602750e-01,9.63029e-01,9.99999e-01,9.99621e-01,9.63395e-01,9.99997e-01
5.872820764e-01,9.60948e-01,9.99999e-01,9.96748e-01,9.64104e-01,9.99976e-01
5.902184868e-01,9.60988e-01,9.99999e-01,9.96108e-01,9.64801e-01,9.99937e-01
5.931695792e-01,9.62761e-01,9.99999e-01,9.97238e-01,9.65484e-01,9.99940e-01
5.961354271e-01,9.63206e-01,9.99999e-01,9.96982e-01,9.66154e-01,9.99965e-01
5.991161043e-01,9.64677e-01,9.99999e-01,9.97802e-01,9.66811e-01,9.99988e-01
6.021116848e-01,9.66251e-01,9.99999e-01,9.98754e-01,9.67456e-01,9.99998e-01
6.051222432e-01,9.67479e-01,9.99999e-01,9.99369e-01,9.68088e-01,9.99999e-01
6.081478544e-01,9.68445e-01,9.99999e-01,9.99727e-01,9.68709e-01,9.99999e-01
6.111885937e-01,9.69206e-01,9.99999e-01,9.99884e-01,9.69317e-01,9.99999e-01
6.142445367e-01,9.69864e-01,9.99999e-01,9.99948e-01,9.69914e-01,9.99999e-01
6.173157594e-01,9.70472e-01,9.99999e-01,9.99971e-01,9.70500e-01,9.99999e-01
6.204023382e-01,9.71050e-01,9.99999e-01,9.99975e-01,9.71074e-01,9.99999e-01
6.235043498e-01,9.71531e-01,9.99999e-01,9.99891e-01,9.71637e-01,9.99999e-01
6.266218716e-01,9.71639e-01,9.99999e-01,9.99437e-01,9.72189e-01,9.99995e-01
6.297549810e-01,9.72523e-01,9.99999e-01,9.99793e-01,9.72731e-01,9.99991e-01
6.329037559e-01,9.72861e-01,9.99999e-01,9.99593e-01,9.73262e-01,9.99993e-01
6.360682746e-01,9.73441e-01,9.99999e-01,9.99651e-01,9.73783e-01,9.99995e-01
6.392486160e-01,9.73855e-01,9.99999e-01,9.99550e-01,9.74295e-01,9.99997e-01
6.424448591e-01,9.74201e-01,9.99999e-01,9.99391e-01,9.74796e-01,9.99996e-01
6.456570834e-01,9.72520e-01,9.99999e-01,9.97178e-01,9.75287e-01,9.99982e-01
6.488853688e-01,9.73741e-01,9.99999e-01,9.97963e-01,9.75770e-01,9.99956e-01
6.521297956e-01,9.74182e-01,9.99999e-01,9.97924e-01,9.76242e-01,9.99963e-01
6.553904446e-01,9.74651e-01,9.99999e-01,9.97921e-01,9.76706e-01,9.99972e-01
6.586673968e-01,9.75423e-01,9.99999e-01,9.98230e-01,9.77161e-01,9.99990e-01
6.619607338e-01,9.76642e-01,9.99999e-01,9.99014e-01,9.77607e-01,9.99997e-01
6.652705375e-01,9.77465e-01,9.99999e-01,9.99408e-01,9.78044e-01,9.99998e-01
6.685968902e-01,9.78228e-01,9.99999e-01,9.99748e-01,9.78473e-01,9.99999e-01
6.719398746e-01,9.78770e-01,9.99999e-01,9.99872e-01,9.78894e-01,9.99999e-01
6.752995740e-01,9.79241e-01,9.99999e-01,9.99932e-01,9.79307e-01,9.99999e-01
6.786760719e-01,9.79612e-01,9.99999e-01,9.99898e-01,9.79711e-01,9.99999e-01
6.820694522e-01,9.79937e-01,9.99999e-01,9.99826e-01,9.80108e-01,9.99998e-01
6.854797995e-01,9.80278e-01,9.99999e-01,9.99778e-01,9.80497e-01,9.99997e-01
6.889071985e-01,9.80169e-01,9.99999e-01,9.99281e-01,9.80878e-01,9.99994e-01
6.923517345e-01,9.72550e-01,9.99999e-01,9.91171e-01,9.81253e-01,9.99957e-01
6.958134932e-01,9.77154e-01,9.99999e-01,9.95543e-01,9.81619e-01,9.99906e-01
6.992925606e-01,9.77627e-01,9.99999e-01,9.95650e-01,9.81979e-01,9.99916e-01
7.027890234e-01,9.77053e-01,9.99999e-01,9.94688e-01,9.82332e-01,9.99935e-01
7.063029686e-01,9.78253e-01,9.99999e-01,9.95528e-01,9.82678e-01,9.99967e-01
7.098344834e-01,9.78782e-01,9.99999e-01,9.95709e-01,9.83017e-01,9.99980e-01
7.133836558e-01,9.77599e-01,9.99999e-01,9.94188e-01,9.83350e-01,9.99962e-01
7.169505741e-01,9.38602e-01,9.99999e-01,9.54457e-01,9.83676e-01,9.99706e-01
7.205353270e-01,9.61857e-01,9.99999e-01,9.78006e-01,9.83996e-01,9.99481e-01
7.241380036e-01,9.55888e-01,9.99999e-01,9.71558e-01,9.84309e-01,9.99552e-01
7.277586936e-01,9.58996e-01,9.99999e-01,9.74334e-01,9.84617e-01,9.99634e-01
7.313974871e-01,9.58134e-01,9.99999e-01,9.72971e-01,9.84918e-01,9.99828e-01
7.350544745e-01,9.70497e-01,9.99999e-01,9.85120e-01,9.85214e-01,9.99940e-01
7.387297469e-01,9.74681e-01,9.99999e-01,9.89044e-01,9.85504e-01,9.99972e-01
7.424233956e-01,9.80504e-01,9.99999e-01,9.94643e-01,9.85788e-01,9.99994e-01
7.461355126e-01,9.82857e-01,9.99999e-01,9.96744e-01,9.86067e-01,9.99998e-01
7.498661902e-01,9.84850e-01,9.99999e-01,9.98489e-01,9.86340e-01,9.99999e-01
7.536155211e-01,9.85874e-01,9.99999e-01,9.99255e-01,9.86608e-01,9.99999e-01
7.573835987e-01,9.86493e-01,9.99999e-01,9.99616e-01,9.86871e-01,9.99999e-01
7.611705167e-01,9.86894e-01,9.99999e-01,9.99761e-01,9.87129e-01,9.99999e-01
7.649763693e-01,9.87234e-01,9.99999e-01,9.99850e-01,9.87381e-01,9.99999e-01
7.688012511e-01,9.87526e-01,9.99999e-01,9.99895e-01,9.87629e-01,9.99999e-01
7.726452574e-01,9.87787e-01,9.99999e-01,9.99913e-01,9.87872e-01,9.99999e-01
7.765084837e-01,9.87988e-01,9.99999e-01,9.99876e-01,9.88110e-01,9.99999e-01
7.803910261e-01,9.87816e-01,9.99999e-01,9.99466e-01,9.88343e-01,9.99998e-01
7.842929812e-01,9.86728e-01,9.99999e-01,9.98137e-01,9.88572e-01,9.99996e-01
7.882144461e-01,9.85022e-01,9.99999e-01,9.96208e-01,9.88797e-01,9.99973e-01
7.921555184e-01,9.86929e-01,9.99999e-01,9.97933e-01,9.89017e-01,9.99954e-01
7.961162960e-01,9.85524e-01,9.99999e-01,9.96293e-01,9.89232e-01,9.99956e-01
8.000968774e-01,9.85198e-01,9.99999e-01,9.95753e-01,9.89444e-01,9.99953e-01
8.040973618e-01,9.85406e-01,9.99999e-01,9.95744e-01,9.89651e-01,9.99964e-01
8.081178486e-01,9.80266e-01,9.99999e-01,9.90347e-01,9.89855e-01,9.99964e-01
8.121584379e-01,9.50729e-01,9.99999e-01,9.60408e-01,9.90054e-01,9.99865e-01
8.162192301e-01,9.43981e-01,9.99999e-01,9.53755e-01,9.90250e-01,9.99495e-01
8.203003262e-01,9.66206e-01,9.99999e-01,9.76106e-01,9.90441e-01,9.99409e-01
8.244018279e-01,9.58305e-01,9.99999e-01,9.67824e-01,9.90629e-01,9.99530e-01
8.285238370e-01,9.62650e-01,9.99999e-01,9.71933e-01,9.90813e-01,9.99630e-01
8.326664562e-01,9.62881e-01,9.99999e-01,9.71778e-01,9.90994e-01,9.99847e-01
8.368297885e-01,9.71143e-01,9.99999e-01,9.79826e-01,9.91171e-01,9.99964e-01
8.410139374e-01,9.79407e-01,9.99999e-01,9.87977e-01,9.91345e-01,9.99979e-01
8.452190071e-01,9.85654e-01,9.99999e-01,9.94100e-01,9.91515e-01,9.99987e-01
8.494451021e-01,9.88258e-01,9.99999e-01,9.96557e-01,9.91682e-01,9.99989e-01
8.536923276e-01,9.89828e-01,9.99999e-01,9.97971e-01,9.91845e-01,9.99993e-01
8.579607893e-01,9.90761e-01,9.99999e-01,9.98745e-01,9.92006e-01,9.99998e-01
8.622505932e-01,9.91375e-01,9.99999e-01,9.99205e-01,9.92163e-01,9.99999e-01
8.665618462e-01,9.91827e-01,9.99999e-01,9.99506e-01,9.92317e-01,9.99999e-01
8.708946554e-01,9.91906e-01,9.99999e-01,9.99432e-01,9.92468e-01,9.99999e-01
8.752491287e-01,9.91864e-01,9.99999e-01,9.99242e-01,9.92617e-01,9.99998e-01
8.796253743e-01,9.91714e-01,9.99999e-01,9.98946e-01,9.92762e-01,9.99997e-01
8.840235012e-01,9.91704e-01,9.99999e-01,9.98797e-01,9.92904e-01,9.99992e-01
8.884436187e-01,9.88564e-01,9.99999e-01,9.95508e-01,9.93044e-01,9.99978e-01
8.928858368e-01,9.47760e-01,9.99999e-01,9.54380e-01,9.93181e-01,9.99879e-01
8.973502660e-01,9.14875e-01,9.99999e-01,9.21596e-01,9.93315e-01,9.99386e-01
9.018370173e-01,9.52392e-01,9.99999e-01,9.59598e-01,9.93447e-01,9.99036e-01
9.063462024e-01,9.56610e-01,9.99999e-01,9.63610e-01,9.93576e-01,9.99153e-01
9.108779334e-01,9.37422e-01,9.99999e-01,9.44192e-01,9.93702e-01,9.99120e-01
9.154323231e-01,9.30565e-01,9.99999e-01,9.37025e-01,9.93826e-01,9.99272e-01
9.200094847e-01,9.44348e-01,9.99999e-01,9.50484e-01,9.93948e-01,9.99592e-01
9.246095321e-01,9.15503e-01,9.99999e-01,9.21398e-01,9.94067e-01,9.99530e-01
9.292325798e-01,5.79399e-01,9.99999e-01,5.84109e-01,9.94184e-01,9.97738e-01
9.338787427e-01,4.97108e-01,9.99999e-01,5.04065e-01,9.94298e-01,9.91852e-01
9.385481364e-01,7.48085e-01,9.99999e-01,7.59081e-01,9.94411e-01,9.91051e-01
9.432408771e-01,6.69206e-01,9.99999e-01,6.78131e-01,9.94521e-01,9.92275e-01
9.479570815e-01,5.78779e-01,9.99999e-01,5.85588e-01,9.94629e-01,9.93708e-01
9.526968669e-01,6.65817e-01,9.99999e-01,6.71922e-01,9.94734e-01,9.96157e-01
9.574603512e-01,6.88015e-01,9.99999e-01,6.92938e-01,9.94838e-01,9.98046e-01
9.622476530e-01,7.37987e-01,9.99999e-01,7.42743e-01,9.94940e-01,9.98648e-01
9.670588912e-01,8.37231e-01,9.99999e-01,8.42149e-01,9.95039e-01,9.99114e-01
9.718941857e-01,8.93018e-01,9.99999e-01,8.97990e-01,9.95137e-01,9.99321e-01
9.767536566e-01,9.09694e-01,9.99999e-01,9.14525e-01,9.95233e-01,9.99479e-01
9.816374249e-01,9.31613e-01,9.99999e-01,9.36155e-01,9.95327e-01,9.99819e-01
9.865456120e-01,9.55210e-01,9.99999e-01,9.59641e-01,9.95419e-01,9.99962e-01
9.914783401e-01,9.70461e-01,9.99999e-01,9.74848e-01,9.95509e-01,9.99989e-01
9.964357318e-01,9.81882e-01,9.99999e-01,9.86229e-01,9.95598e-01,9.99993e-01
1.001417910e+00,9.87444e-01,9.99999e-01,9.91732e-01,9.95685e-01,9.99990e-01
1.006425000e+00,9.91042e-01,9.99999e-01,9.95265e-01,9.95770e-01,9.99986e-01
1.011457125e+00,9.92922e-01,9.99999e-01,9.97069e-01,9.95853e-01,9.99987e-01
1.016514411e+00,9.93940e-01,9.99999e-01,9.98005e-01,9.95935e-01,9.99990e-01
1.021596983e+00,9.94422e-01,9.99999e-01,9.98409e-01,9.96015e-01,9.99990e-01
1.026704968e+00,9.94852e-01,9.99999e-01,9.98758e-01,9.96093e-01,9.99994e-01
1.031838492e+00,9.95272e-01,9.99999e-01,9.99099e-01,9.96170e-01,9.99997e-01
1.036997685e+00,9.95712e-01,9.99999e-01,9.99463e-01,9.96246e-01,9.99999e-01
1.042182673e+00,9.95680e-01,9.99999e-01,9.99357e-01,9.96320e-01,9.99999e-01
1.047393587e+00,9.95546e-01,9.99999e-01,9.99150e-01,9.96392e-01,9.99999e-01
1.052630555e+00,9.95300e-01,9.99999e-01,9.98832e-01,9.96463e-01,9.99999e-01
1.057893707e+00,9.94586e-01,9.99999e-01,9.98046e-01,9.96533e-01,9.99998e-01
1.063183176e+00,9.93403e-01,9.99999e-01,9.96791e-01,9.96602e-01,9.99997e-01
1.068499092e+00,9.91325e-01,9.99999e-01,9.94641e-01,9.96669e-01,9.99995e-01
1.073841587e+00,9.90462e-01,9.99999e-01,9.93714e-01,9.96734e-01,9.99991e-01
1.079210795e+00,9.88791e-01,9.99999e-01,9.91987e-01,9.96799e-01,9.99978e-01
1.084606849e+00,9.84713e-01,9.99999e-01,9.87863e-01,9.96862e-01,9.99948e-01
1.090029883e+00,9.79331e-01,9.99999e-01,9.82457e-01,9.96924e-01,9.99892e-01
1.095480033e+00,9.50001e-01,9.99999e-01,9.53058e-01,9.96984e-01,9.99806e-01
1.100957433e+00,8.82085e-01,9.99999e-01,8.85014e-01,9.97044e-01,9.99644e-01
1.106462220e+00,7.30118e-01,9.99999e-01,7.32681e-01,9.97102e-01,9.99396e-01
1.111994531e+00,5.20600e-01,9.99999e-01,5.22919e-01,9.97159e-01,9.98400e-01
1.117554504e+00,3.48591e-01,9.99999e-01,3.51590e-01,9.97215e-01,9.94238e-01
1.123142276e+00,4.59943e-01,9.99999e-01,4.67564e-01,9.97270e-01,9.86391e-01
1.128757988e+00,5.99923e-01,9.99999e-01,6.11143e-01,9.97324e-01,9.84273e-01
1.134401778e+00,3.49164e-01,9.99999e-01,3.54833e-01,9.97377e-01,9.86611e-01
1.140073787e+00,7.34475e-01,9.99999e-01,7.44340e-01,9.97428e-01,9.89288e-01
1.145774156e+00,5.36319e-01,9.99999e-01,5.43000e-01,9.97479e-01,9.90190e-01
1.151503026e+00,5.02419e-01,9.99999e-01,5.06437e-01,9.97529e-01,9.94523e-01
1.157260541e+00,5.63356e-01,9.99999e-01,5.65652e-01,9.97578e-01,9.98358e-01
1.163046844e+00,6.55047e-01,9.99999e-01,6.56912e-01,9.97625e-01,9.99534e-01
1.168862078e+00,7.44707e-01,9.99999e-01,7.46625e-01,9.97672e-01,9.99757e-01
1.174706389e+00,8.32752e-01,9.99999e-01,8.34934e-01,9.97718e-01,9.99665e-01
1.180579921e+00,8.93575e-01,9.99999e-01,8.96008e-01,9.97763e-01,9.99519e-01
1.186482820e+00,9.37262e-01,9.99999e-01,9.39784e-01,9.97807e-01,9.99506e-01
1.192415234e+00,9.61942e-01,9.99999e-01,9.64369e-01,9.97850e-01,9.99630e-01
1.198377311e+00,9.67434e-01,9.99999e-01,9.69816e-01,9.97893e-01,9.99649e-01
1.204369197e+00,9.69143e-01,9.99999e-01,9.71445e-01,9.97934e-01,9.99694e-01
1.210391043e+00,9.70531e-01,9.99999e-01,9.72686e-01,9.97975e-01,9.99807e-01
1.216442998e+00,9.74729e-01,9.99999e-01,9.76782e-01,9.98015e-01,9.99881e-01
1.222525213e+00,9.79879e-01,9.99999e-01,9.81860e-01,9.98054e-01,9.99926e-01
1.228637839e+00,9.85444e-01,9.99999e-01,9.87360e-01,9.98093e-01,9.99965e-01
1.234781029e+00,9.88754e-01,9.99999e-01,9.90614e-01,9.98130e-01,9.99989e-01
1.240954934e+00,9.92225e-01,9.99999e-01,9.94049e-01,9.98167e-01,9.99996e-01
1.247159708e+00,9.93579e-01,9.99999e-01,9.95368e-01,9.98203e-01,9.99997e-01
1.253395507e+00,9.94124e-01,9.99999e-01,9.95879e-01,9.98239e-01,9.99997e-01
1.259662485e+00,9.94352e-01,9.99999e-01,9.96074e-01,9.98273e-01,9.99995e-01
1.265960797e+00,9.92064e-01,9.99999e-01,9.93751e-01,9.98307e-01,9.99993e-01
1.272290601e+00,9.88503e-01,9.99999e-01,9.90155e-01,9.98341e-01,9.99988e-01
1.278652054e+00,9.78913e-01,9.99999e-01,9.80525e-01,9.98374e-01,9.99980e-01
1.285045314e+00,9.63323e-01,9.99999e-01,9.64895e-01,9.98406e-01,9.99964e-01
1.291470541e+00,9.38096e-01,9.99999e-01,9.39622e-01,9.98437e-01,9.99937e-01
1.297927893e+00,9.13717e-01,9.99999e-01,9.15224e-01,9.98468e-01,9.99883e-01
1.304417533e+00,8.99511e-01,9.99999e-01,9.01084e-01,9.98498e-01,9.99753e-01
1.310939621e+00,8.74845e-01,9.99999e-01,8.76576e-01,9.98528e-01,9.99495e-01
1.317494319e+00,8.76781e-01,9.99999e-01,8.78867e-01,9.98557e-01,9.99067e-01
1.324081790e+00,8.23768e-01,9.99999e-01,8.26304e-01,9.98585e-01,9.98341e-01
1.330702199e+00,4.59134e-01,9.99999e-01,4.61066e-01,9.98613e-01,9.97190e-01
1.337355710e+00,1.18663e-01,9.99999e-01,1.19427e-01,9.98641e-01,9.94954e-01
1.344042489e+00,5.19901e-03,9.99999e-01,5.28587e-03,9.98667e-01,9.84880e-01
1.350762701e+00,5.14050e-05,9.99999e-01,5.42283e-05,9.98694e-01,9.49175e-01
1.357516515e+00,9.09245e-07,9.99999e-01,1.06101e-06,9.98719e-01,8.58060e-01
1.364304097e+00,1.10361e-04,9.99999e-01,1.44502e-04,9.98745e-01,7.64689e-01
1.371125618e+00,2.03949e-03,9.99999e-01,2.62970e-03,9.98769e-01,7.76514e-01
1.377981246e+00,4.85904e-03,9.99999e-01,6.04278e-03,9.98794e-01,8.05076e-01
1.384871152e+00,1.51561e-04,9.99999e-01,1.85714e-04,9.98817e-01,8.17065e-01
1.391795508e+00,1.58118e-04,9.99999e-01,1.91921e-04,9.98841e-01,8.24824e-01
1.398754485e+00,7.11736e-04,9.99999e-01,8.35412e-04,9.98864e-01,8.52926e-01
1.405748258e+00,6.48355e-04,9.99999e-01,7.12337e-04,9.98886e-01,9.11194e-01
1.412776999e+00,7.32264e-04,9.99999e-01,7.64860e-04,9.98908e-01,9.58428e-01
1.419840884e+00,1.23031e-03,9.99999e-01,1.25477e-03,9.98930e-01,9.81554e-01
1.426940089e+00,5.31081e-03,9.99999e-01,5.39211e-03,9.98951e-01,9.85954e-01
1.434074789e+00,1.81819e-02,9.99999e-01,1.85070e-02,9.98971e-01,9.83447e-01
1.441245163e+00,4.40411e-02,9.99999e-01,4.48897e-02,9.98992e-01,9.82083e-01
1.448451389e+00,1.09382e-01,9.99999e-01,1.11237e-01,9.99012e-01,9.84294e-01
1.455693646e+00,2.30358e-01,9.99999e-01,2.33439e-01,9.99031e-01,9.87758e-01
1.462972114e+00,2.79184e-01,9.99999e-01,2.82751e-01,9.99050e-01,9.88321e-01
1.470286975e+00,2.26961e-01,9.99999e-01,2.29811e-01,9.99069e-01,9.88519e-01
