#,Wave/freq,Total,N2,H2O,Rayleigh,CIA
4.000000000e-01,9.34583e-01,9.99999e-01,9.99991e-01,9.34590e-01,9.99999e-01
4.020000000e-01,9.35837e-01,9.99999e-01,9.99994e-01,9.35841e-01,9.99999e-01
4.040100000e-01,9.37066e-01,9.99999e-01,9.99997e-01,9.37068e-01,9.99999e-01
4.060300500e-01,9.38271e-01,9.99999e-01,9.99999e-01,9.38272e-01,9.99999e-01
4.080602003e-01,9.39453e-01,9.99999e-01,9.99999e-01,9.39453e-01,9.99999e-01
4.101005013e-01,9.40613e-01,9.99999e-01,9.99999e-01,9.40613e-01,9.99999e-01
4.121510038e-01,9.41751e-01,9.99999e-01,9.99999e-01,9.41751e-01,9.99999e-01
4.142117588e-01,9.42866e-01,9.99999e-01,9.99997e-01,9.42868e-01,9.99999e-01
4.162828176e-01,9.43955e-01,9.99999e-01,9.99990e-01,9.43964e-01,9.99999e-01
4.183642317e-01,9.45035e-01,9.99999e-01,9.99993e-01,9.45040e-01,9.99999e-01
4.204560528e-01,9.46093e-01,9.99999e-01,9.99996e-01,9.46096e-01,9.99999e-01
4.225583331e-01,9.47131e-01,9.99999e-01,9.99998e-01,9.47132e-01,9.99999e-01
4.246711247e-01,9.48148e-01,9.99999e-01,9.99998e-01,9.48149e-01,9.99999e-01
4.267944804e-01,9.49145e-01,9.99999e-01,9.99997e-01,9.49146e-01,9.99999e-01
4.289284528e-01,9.50124e-01,9.99999e-01,9.99998e-01,9.50125e-01,9.99999e-01
4.310730950e-01,9.51086e-01,9.99999e-01,9.99999e-01,9.51086e-01,9.99999e-01
4.332284605e-01,9.52028e-01,9.99999e-01,9.99999e-01,9.52029e-01,9.99999e-01
4.353946028e-01,9.52953e-01,9.99999e-01,9.99999e-01,9.52953e-01,9.99999e-01
4.375715758e-01,9.53860e-01,9.99999e-01,9.99998e-01,9.53861e-01,9.99999e-01
4.397594337e-01,9.54743e-01,9.99999e-01,9.99991e-01,9.54751e-01,9.99999e-01
4.419582309e-01,9.55585e-01,9.99999e-01,9.99957e-01,9.55625e-01,9.99999e-01
4.441680220e-01,9.56451e-01,9.99999e-01,9.99966e-01,9.56482e-01,9.99999e-01
4.463888621e-01,9.57290e-01,9.99999e-01,9.99965e-01,9.57323e-01,9.99999e-01
4.486208064e-01,9.58128e-01,9.99999e-01,9.99978e-01,9.58148e-01,9.99999e-01
4.508639105e-01,9.58948e-01,9.99999e-01,9.99989e-01,9.58958e-01,9.99999e-01
4.531182300e-01,9.59748e-01,9.99999e-01,9.99995e-01,9.59752e-01,9.99999e-01
4.553838212e-01,9.60528e-01,9.99999e-01,9.99996e-01,9.60531e-01,9.99999e-01
4.576607403e-01,9.61294e-01,9.99999e-01,9.99998e-01,9.61295e-01,9.99999e-01
4.599490440e-01,9.62044e-01,9.99999e-01,9.99998e-01,9.62045e-01,9.99999e-01
4.622487892e-01,9.62780e-01,9.99999e-01,9.99999e-01,9.62780e-01,9.99999e-01
4.645600332e-01,9.63501e-01,9.99999e-01,9.99998e-01,9.63502e-01,9.99999e-01
4.668828333e-01,9.64200e-01,9.99999e-01,9.99989e-01,9.64210e-01,9.99999e-01
4.692172475e-01,9.64884e-01,9.99999e-01,9.99978e-01,9.64904e-01,9.99999e-01
4.715633337e-01,9.65572e-01,9.99999e-01,9.99985e-01,9.65585e-01,9.99999e-01
4.739211504e-01,9.66241e-01,9.99999e-01,9.99986e-01,9.66254e-01,9.99999e-01
4.762907561e-01,9.66902e-01,9.99999e-01,9.99992e-01,9.66909e-01,9.99999e-01
4.786722099e-01,9.67549e-01,9.99999e-01,9.99996e-01,9.67552e-01,9.99999e-01
4.810655710e-01,9.68182e-01,9.99999e-01,9.99998e-01,9.68182e-01,9.99999e-01
4.834708988e-01,9.68793e-01,9.99999e-01,9.99991e-01,9.68801e-01,9.99999e-01
4.858882533e-01,9.69393e-01,9.99999e-01,9.99984e-01,9.69408e-01,9.99999e-01
4.883176946e-01,9.69991e-01,9.99999e-01,9.99986e-01,9.70003e-01,9.99999e-01
4.907592831e-01,9.70575e-01,9.99999e-01,9.99988e-01,9.70587e-01,9.99999e-01
4.932130795e-01,9.71151e-01,9.99999e-01,9.99991e-01,9.71159e-01,9.99999e-01
4.956791449e-01,9.71716e-01,9.99999e-01,9.99995e-01,9.71721e-01,9.99999e-01
4.981575406e-01,9.72250e-01,9.99999e-01,9.99977e-01,9.72271e-01,9.99999e-01
5.006483283e-01,9.72757e-01,9.99999e-01,9.99943e-01,9.72811e-01,9.99999e-01
5.031515699e-01,9.73062e-01,9.99999e-01,9.99715e-01,9.73341e-01,9.99996e-01
5.056673278e-01,9.73712e-01,9.99999e-01,9.99849e-01,9.73861e-01,9.99996e-01
5.081956644e-01,9.74184e-01,9.99999e-01,9.99810e-01,9.74371e-01,9.99997e-01
5.107366428e-01,9.74746e-01,9.99999e-01,9.99871e-01,9.74870e-01,9.99999e-01
5.132903260e-01,9.75289e-01,9.99999e-01,9.99926e-01,9.75361e-01,9.99999e-01
5.158567776e-01,9.75811e-01,9.99999e-01,9.99968e-01,9.75841e-01,9.99999e-01
5.184360615e-01,9.76301e-01,9.99999e-01,9.99987e-01,9.76313e-01,9.99999e-01
5.210282418e-01,9.76771e-01,9.99999e-01,9.99994e-01,9.76775e-01,9.99999e-01
5.236333830e-01,9.77210e-01,9.99999e-01,9.99981e-01,9.77229e-01,9.99999e-01
5.262515499e-01,9.77662e-01,9.99999e-01,9.99987e-01,9.77673e-01,9.99999e-01
5.288828077e-01,9.78099e-01,9.99999e-01,9.99988e-01,9.78109e-01,9.99999e-01
5.315272217e-01,9.78528e-01,9.99999e-01,9.99990e-01,9.78537e-01,9.99999e-01
5.341848578e-01,9.78951e-01,9.99999e-01,9.99993e-01,9.78957e-01,9.99999e-01
5.368557821e-01,9.79347e-01,9.99999e-01,9.99977e-01,9.79368e-01,9.99999e-01
5.395400610e-01,9.79695e-01,9.99999e-01,9.99921e-01,9.79771e-01,9.99998e-01
5.422377613e-01,9.80067e-01,9.99999e-01,9.99899e-01,9.80167e-01,9.99997e-01
5.449489501e-01,9.80461e-01,9.99999e-01,9.99906e-01,9.80555e-01,9.99997e-01
5.476736949e-01,9.80853e-01,9.99999e-01,9.99916e-01,9.80935e-01,9.99998e-01
5.504120634e-01,9.81249e-01,9.99999e-01,9.99939e-01,9.81308e-01,9.99999e-01
5.531641237e-01,9.81644e-01,9.99999e-01,9.99969e-01,9.81674e-01,9.99999e-01
5.559299443e-01,9.82018e-01,9.99999e-01,9.99984e-01,9.82033e-01,9.99999e-01
5.587095940e-01,9.82375e-01,9.99999e-01,9.99990e-01,9.82384e-01,9.99999e-01
5.615031420e-01,9.82719e-01,9.99999e-01,9.99989e-01,9.82729e-01,9.99999e-01
5.643106577e-01,9.83056e-01,9.99999e-01,9.99987e-01,9.83067e-01,9.99999e-01
5.671322110e-01,9.83260e-01,9.99999e-01,9.99859e-01,9.83399e-01,9.99998e-01
5.699678720e-01,9.83574e-01,9.99999e-01,9.99850e-01,9.83724e-01,9.99995e-01
5.728177114e-01,9.83887e-01,9.99999e-01,9.99844e-01,9.84043e-01,9.99996e-01
5.756818000e-01,9.84214e-01,9.99999e-01,9.99856e-01,9.84356e-01,9.99997e-01
5.785602090e-01,9.84540e-01,9.99999e-01,9.99875e-01,9.84663e-01,9.99998e-01
5.814530100e-01,9.84840e-01,9.99999e-01,9.99874e-01,9.84963e-01,9.99999e-01
5.843602750e-01,9.85111e-01,9.99999e-01,9.99850e-01,9.85258e-01,9.99998e-01
5.872820764e-01,9.84273e-01,9.99999e-01,9.98715e-01,9.85547e-01,9.99990e-01
5.902184868e-01,9.84272e-01,9.99999e-01,9.98443e-01,9.85830e-01,9.99974e-01
5.931695792e-01,9.85001e-01,9.99999e-01,9.98900e-01,9.86108e-01,9.99975e-01
5.961354271e-01,9.85179e-01,9.99999e-01,9.98794e-01,9.86381e-01,9.99985e-01
5.991161043e-01,9.85777e-01,9.99999e-01,9.99120e-01,9.86648e-01,9.99995e-01
6.021116848e-01,9.86418e-01,9.99999e-01,9.99500e-01,9.86910e-01,9.99998e-01
6.051222432e-01,9.86918e-01,9.99999e-01,9.99747e-01,9.87167e-01,9.99999e-01
6.081478544e-01,9.87311e-01,9.99999e-01,9.99890e-01,9.87419e-01,9.99999e-01
6.111885937e-01,9.87620e-01,9.99999e-01,9.99953e-01,9.87666e-01,9.99999e-01
6.142445367e-01,9.87888e-01,9.99999e-01,9.99978e-01,9.87908e-01,9.99999e-01
6.173157594e-01,9.88134e-01,9.99999e-01,9.99988e-01,9.88145e-01,9.99999e-01
6.204023382e-01,9.88369e-01,9.99999e-01,9.99989e-01,9.88378e-01,9.99999e-01
6.235043498e-01,9.88564e-01,9.99999e-01,9.99957e-01,9.88606e-01,9.99999e-01
6.266218716e-01,9.88607e-01,9.99999e-01,9.99775e-01,9.88830e-01,9.99997e-01
6.297549810e-01,9.88965e-01,9.99999e-01,9.99917e-01,9.89049e-01,9.99996e-01
6.329037559e-01,9.89102e-01,9.99999e-01,9.99837e-01,9.89265e-01,9.99996e-01
6.360682746e-01,9.89337e-01,9.99999e-01,9.99861e-01,9.89475e-01,9.99998e-01
6.392486160e-01,9.89505e-01,9.99999e-01,9.99820e-01,9.89682e-01,9.99998e-01
6.424448591e-01,9.89647e-01,9.99999e-01,9.99760e-01,9.89885e-01,9.99998e-01
6.456570834e-01,9.88977e-01,9.99999e-01,9.98888e-01,9.90084e-01,9.99993e-01
6.488853688e-01,9.89455e-01,9.99999e-01,9.99184e-01,9.90279e-01,9.99982e-01
6.521297956e-01,9.89633e-01,9.99999e-01,9.99168e-01,9.90470e-01,9.99985e-01
6.553904446e-01,9.89829e-01,9.99999e-01,9.99173e-01,9.90657e-01,9.99988e-01
6.586673968e-01,9.90136e-01,9.99999e-01,9.99291e-01,9.90841e-01,9.99995e-01
6.619607338e-01,9.90615e-01,9.99999e-01,9.99590e-01,9.91021e-01,9.99998e-01
6.652705375e-01,9.90962e-01,9.99999e-01,9.99762e-01,9.91197e-01,9.99999e-01
6.685968902e-01,9.91261e-01,9.99999e-01,9.99889e-01,9.91371e-01,9.99999e-01
6.719398746e-01,9.91490e-01,9.99999e-01,9.99948e-01,9.91540e-01,9.99999e-01
6.752995740e-01,9.91679e-01,9.99999e-01,9.99971e-01,9.91707e-01,9.99999e-01
6.786760719e-01,9.91830e-01,9.99999e-01,9.99959e-01,9.91870e-01,9.99999e-01
6.820694522e-01,9.91962e-01,9.99999e-01,9.99931e-01,9.92030e-01,9.99999e-01
6.854797995e-01,9.92099e-01,9.99999e-01,9.99911e-01,9.92186e-01,9.99998e-01
6.889071985e-01,9.92127e-01,9.99999e-01,9.99786e-01,9.92340e-01,9.99997e-01
6.923517345e-01,9.89021e-01,9.99999e-01,9.96520e-01,9.92491e-01,9.99982e-01
6.958134932e-01,9.90802e-01,9.99999e-01,9.98185e-01,9.92639e-01,9.99962e-01
6.992925606e-01,9.91044e-01,9.99999e-01,9.98280e-01,9.92784e-01,9.99966e-01
7.027890234e-01,9.90792e-01,9.99999e-01,9.97875e-01,9.92926e-01,9.99974e-01
7.063029686e-01,9.91280e-01,9.99999e-01,9.98214e-01,9.93065e-01,9.99986e-01
7.098344834e-01,9.91493e-01,9.99999e-01,9.98287e-01,9.93201e-01,9.99992e-01
7.133836558e-01,9.91054e-01,9.99999e-01,9.97718e-01,9.93335e-01,9.99984e-01
7.169505741e-01,9.75150e-01,9.99999e-01,9.81677e-01,9.93466e-01,9.99882e-01
7.205353270e-01,9.84444e-01,9.99999e-01,9.90993e-01,9.93595e-01,9.99793e-01
7.241380036e-01,9.82215e-01,9.99999e-01,9.88596e-01,9.93721e-01,9.99821e-01
7.277586936e-01,9.83468e-01,9.99999e-01,9.89702e-01,9.93845e-01,9.99854e-01
7.313974871e-01,9.83026e-01,9.99999e-01,9.89060e-01,9.93966e-01,9.99931e-01
7.350544745e-01,9.88115e-01,9.99999e-01,9.94018e-01,9.94085e-01,9.99975e-01
7.387297469e-01,9.89815e-01,9.99999e-01,9.95598e-01,9.94201e-01,9.99988e-01
7.424233956e-01,9.92171e-01,9.99999e-01,9.97845e-01,9.94315e-01,9.99997e-01
7.461355126e-01,9.93129e-01,9.99999e-01,9.98694e-01,9.94427e-01,9.99999e-01
7.498661902e-01,9.93932e-01,9.99999e-01,9.99391e-01,9.94537e-01,9.99999e-01
7.536155211e-01,9.94348e-01,9.99999e-01,9.99701e-01,9.94645e-01,9.99999e-01
7.573835987e-01,9.94598e-01,9.99999e-01,9.99846e-01,9.94750e-01,9.99999e-01
7.611705167e-01,9.94759e-01,9.99999e-01,9.99904e-01,9.94854e-01,9.99999e-01
7.649763693e-01,9.94896e-01,9.99999e-01,9.99939e-01,9.94955e-01,9.99999e-01
7.688012511e-01,9.95013e-01,9.99999e-01,9.99957e-01,9.95054e-01,9.99999e-01
7.726452574e-01,9.95118e-01,9.99999e-01,9.99965e-01,9.95152e-01,9.99999e-01
7.765084837e-01,9.95199e-01,9.99999e-01,9.99950e-01,9.95247e-01,9.99999e-01
7.803910261e-01,9.95132e-01,9.99999e-01,9.99789e-01,9.95341e-01,9.99999e-01
7.842929812e-01,9.94702e-01,9.99999e-01,9.99266e-01,9.95433e-01,9.99998e-01
7.882144461e-01,9.94008e-01,9.99999e-01,9.98487e-01,9.95523e-01,9.99990e-01
7.921555184e-01,9.94767e-01,9.99999e-01,9.99170e-01,9.95611e-01,9.99981e-01
7.961162960e-01,9.94222e-01,9.99999e-01,9.98534e-01,9.95697e-01,9.99982e-01
8.000968774e-01,9.94079e-01,9.99999e-01,9.98307e-01,9.95782e-01,9.99981e-01
8.040973618e-01,9.94165e-01,9.99999e-01,9.98306e-01,9.95865e-01,9.99985e-01
8.081178486e-01,9.92134e-01,9.99999e-01,9.96184e-01,9.95947e-01,9.99985e-01
8.121584379e-01,9.80176e-01,9.99999e-01,9.84138e-01,9.96027e-01,9.99946e-01
8.162192301e-01,9.77142e-01,9.99999e-01,9.81158e-01,9.96105e-01,9.99798e-01
8.203003262e-01,9.86513e-01,9.99999e-01,9.90525e-01,9.96182e-01,9.99764e-01
8.244018279e-01,9.82832e-01,9.99999e-01,9.86708e-01,9.96257e-01,9.99812e-01
8.285238370e-01,9.84974e-01,9.99999e-01,9.88745e-01,9.96331e-01,9.99852e-01
8.326664562e-01,9.84997e-01,9.99999e-01,9.88611e-01,9.96403e-01,9.99938e-01
8.368297885e-01,9.88359e-01,9.99999e-01,9.91869e-01,9.96474e-01,9.99985e-01
8.410139374e-01,9.91718e-01,9.99999e-01,9.95165e-01,9.96544e-01,9.99991e-01
8.452190071e-01,9.94243e-01,9.99999e-01,9.97628e-01,9.96612e-01,9.99994e-01
8.494451021e-01,9.95304e-01,9.99999e-01,9.98624e-01,9.96678e-01,9.99995e-01
8.536923276e-01,9.95931e-01,9.99999e-01,9.99186e-01,9.96744e-01,9.99997e-01
8.579607893e-01,9.96308e-01,9.99999e-01,9.99498e-01,9.96808e-01,9.99998e-01
8.622505932e-01,9.96554e-01,9.99999e-01,9.99681e-01,9.96871e-01,9.99999e-01
8.665618462e-01,9.96737e-01,9.99999e-01,9.99802e-01,9.96933e-01,9.99999e-01
8.708946554e-01,9.96769e-01,9.99999e-01,9.99774e-01,9.96993e-01,9.99999e-01
8.752491287e-01,9.96752e-01,9.99999e-01,9.99698e-01,9.97053e-01,9.99999e-01
8.796253743e-01,9.96694e-01,9.99999e-01,9.99582e-01,9.97111e-01,9.99998e-01
8.840235012e-01,9.96689e-01,9.99999e-01,9.99522e-01,9.97168e-01,9.99996e-01
8.884436187e-01,9.95481e-01,9.99999e-01,9.98260e-01,9.97223e-01,9.99991e-01
8.928858368e-01,9.79002e-01,9.99999e-01,9.81720e-01,9.97278e-01,9.99951e-01
8.973502660e-01,9.64976e-01,9.99999e-01,9.67793e-01,9.97332e-01,9.99755e-01
9.018370173e-01,9.80466e-01,9.99999e-01,9.83413e-01,9.97384e-01,9.99616e-01
9.063462024e-01,9.82576e-01,9.99999e-01,9.85432e-01,9.97436e-01,9.99662e-01
9.108779334e-01,9.74558e-01,9.99999e-01,9.77355e-01,9.97487e-01,9.99649e-01
9.154323231e-01,9.71658e-01,9.99999e-01,9.74339e-01,9.97536e-01,9.99710e-01
9.200094847e-01,9.77296e-01,9.99999e-01,9.79820e-01,9.97585e-01,9.99837e-01
9.246095321e-01,9.65797e-01,9.99999e-01,9.68269e-01,9.97632e-01,9.99812e-01
9.292325798e-01,8.01082e-01,9.99999e-01,8.03529e-01,9.97679e-01,9.99271e-01
9.338787427e-01,7.48874e-01,9.99999e-01,7.52843e-01,9.97725e-01,9.96995e-01
9.385481364e-01,8.87099e-01,9.99999e-01,8.92269e-01,9.97770e-01,9.96427e-01
9.432408771e-01,8.46747e-01,9.99999e-01,8.51225e-01,9.97814e-01,9.96917e-01
9.479570815e-01,7.93937e-01,9.99999e-01,7.97643e-01,9.97857e-01,9.97490e-01
9.526968669e-01,8.43541e-01,9.99999e-01,8.46613e-01,9.97899e-01,9.98468e-01
9.574603512e-01,8.58980e-01,9.99999e-01,8.61422e-01,9.97941e-01,9.99221e-01
9.622476530e-01,8.84024e-01,9.99999e-01,8.86289e-01,9.97981e-01,9.99461e-01
9.670588912e-01,9.30804e-01,9.99999e-01,9.32992e-01,9.98021e-01,9.99631e-01
9.718941857e-01,9.55744e-01,9.99999e-01,9.57861e-01,9.98060e-01,9.99728e-01
9.767536566e-01,9.62881e-01,9.99999e-01,9.64914e-01,9.98098e-01,9.99792e-01
9.816374249e-01,9.72027e-01,9.99999e-01,9.73912e-01,9.98136e-01,9.99927e-01
9.865456120e-01,9.81826e-01,9.99999e-01,9.83637e-01,9.98173e-01,9.99984e-01
9.914783401e-01,9.88087e-01,9.99999e-01,9.89863e-01,9.98209e-01,9.99995e-01
9.964357318e-01,9.92721e-01,9.99999e-01,9.94468e-01,9.98244e-01,9.99997e-01
1.001417910e+00,9.94964e-01,9.99999e-01,9.96682e-01,9.98279e-01,9.99995e-01
1.006425000e+00,9.96419e-01,9.99999e-01,9.98108e-01,9.98313e-01,9.99994e-01
1.011457125e+00,9.97169e-01,9.99999e-01,9.98825e-01,9.98346e-01,9.99994e-01
1.016514411e+00,9.97579e-01,9.99999e-01,9.99202e-01,9.98378e-01,9.99996e-01
1.021596983e+00,9.97773e-01,9.99999e-01,9.99364e-01,9.98410e-01,9.99996e-01
1.026704968e+00,9.97945e-01,9.99999e-01,9.99504e-01,9.98442e-01,9.99997e-01
1.031838492e+00,9.98112e-01,9.99999e-01,9.99639e-01,9.98473e-01,9.99998e-01
1.036997685e+00,9.98289e-01,9.99999e-01,9.99785e-01,9.98503e-01,9.99999e-01
1.042182673e+00,9.98278e-01,9.99999e-01,9.99744e-01,9.98532e-01,9.99999e-01
1.047393587e+00,9.98224e-01,9.99999e-01,9.99661e-01,9.98561e-01,9.99999e-01
1.052630555e+00,9.98126e-01,9.99999e-01,9.99535e-01,9.98590e-01,9.99999e-01
1.057893707e+00,9.97844e-01,9.99999e-01,9.99225e-01,9.98617e-01,9.99999e-01
1.063183176e+00,9.97371e-01,9.99999e-01,9.98725e-01,9.98645e-01,9.99998e-01
1.068499092e+00,9.96539e-01,9.99999e-01,9.97865e-01,9.98671e-01,9.99998e-01
1.073841587e+00,9.96200e-01,9.99999e-01,9.97501e-01,9.98698e-01,9.99996e-01
1.079210795e+00,9.95518e-01,9.99999e-01,9.96798e-01,9.98723e-01,9.99990e-01
1.084606849e+00,9.93890e-01,9.99999e-01,9.95155e-01,9.98748e-01,9.99979e-01
1.090029883e+00,9.91786e-01,9.99999e-01,9.93046e-01,9.98773e-01,9.99957e-01
1.095480033e+00,9.79901e-01,9.99999e-01,9.81155e-01,9.98797e-01,9.99922e-01
1.100957433e+00,9.51415e-01,9.99999e-01,9.52671e-01,9.98821e-01,9.99858e-01
1.106462220e+00,8.81859e-01,9.99999e-01,8.83090e-01,9.98844e-01,9.99759e-01
1.111994531e+00,7.66870e-01,9.99999e-01,7.68228e-01,9.98867e-01,9.99362e-01
1.117554504e+00,6.48361e-01,9.99999e-01,6.50576e-01,9.98889e-01,9.97701e-01
1.123142276e+00,7.18648e-01,9.99999e-01,7.23366e-01,9.98911e-01,9.94559e-01
1.128757988e+00,8.09845e-01,9.99999e-01,8.15842e-01,9.98933e-01,9.93708e-01
1.134401778e+00,6.01701e-01,9.99999e-01,6.05572e-01,9.98954e-01,9.94647e-01
1.140073787e+00,8.82830e-01,9.99999e-01,8.87532e-01,9.98974e-01,9.95721e-01
1.145774156e+00,7.72955e-01,9.99999e-01,7.76775e-01,9.98995e-01,9.96082e-01
1.151503026e+00,7.50512e-01,9.99999e-01,7.52896e-01,9.99015e-01,9.97815e-01
1.157260541e+00,7.92261e-01,9.99999e-01,7.93545e-01,9.99034e-01,9.99346e-01
1.163046844e+00,8.42470e-01,9.99999e-01,8.43424e-01,9.99053e-01,9.99814e-01
1.168862078e+00,8.88343e-01,9.99999e-01,8.89252e-01,9.99072e-01,9.99904e-01
1.174706389e+00,9.29197e-01,9.99999e-01,9.30161e-01,9.99090e-01,9.99872e-01
1.180579921e+00,9.55892e-01,9.99999e-01,9.56928e-01,9.99108e-01,9.99808e-01
1.186482820e+00,9.74432e-01,9.99999e-01,9.75476e-01,9.99126e-01,9.99803e-01
1.192415234e+00,9.84641e-01,9.99999e-01,9.85629e-01,9.99143e-01,9.99852e-01
1.198377311e+00,9.86909e-01,9.99999e-01,9.87875e-01,9.99160e-01,9.99860e-01
1.204369197e+00,9.87575e-01,9.99999e-01,9.88512e-01,9.99176e-01,9.99873e-01
1.210391043e+00,9.88144e-01,9.99999e-01,9.89017e-01,9.99193e-01,9.99923e-01
1.216442998e+00,9.89819e-01,9.99999e-01,9.90648e-01,9.99208e-01,9.99952e-01
1.222525213e+00,9.91919e-01,9.99999e-01,9.92717e-01,9.99224e-01,9.99970e-01
1.228637839e+00,9.94170e-01,9.99999e-01,9.94939e-01,9.99239e-01,9.99985e-01
1.234781029e+00,9.95493e-01,9.99999e-01,9.96239e-01,9.99254e-01,9.99995e-01
1.240954934e+00,9.96892e-01,9.99999e-01,9.97621e-01,9.99269e-01,9.99998e-01
1.247159708e+00,9.97432e-01,9.99999e-01,9.98147e-01,9.99283e-01,9.99998e-01
1.253395507e+00,9.97654e-01,9.99999e-01,9.98355e-01,9.99298e-01,9.99998e-01
1.259662485e+00,9.97750e-01,9.99999e-01,9.98438e-01,9.99311e-01,9.99998e-01
1.265960797e+00,9.96829e-01,9.99999e-01,9.97504e-01,9.99325e-01,9.99997e-01
1.272290601e+00,9.95419e-01,9.99999e-01,9.96082e-01,9.99338e-01,9.99995e-01
1.278652054e+00,9.91566e-01,9.99999e-01,9.92216e-01,9.99351e-01,9.99991e-01
1.285045314e+00,9.85268e-01,9.99999e-01,9.85907e-01,9.99364e-01,9.99985e-01
1.291470541e+00,9.74928e-01,9.99999e-01,9.75560e-01,9.99377e-01,9.99974e-01
1.297927893e+00,9.67566e-01,9.99999e-01,9.68201e-01,9.99389e-01,9.99953e-01
1.304417533e+00,9.58546e-01,9.99999e-01,9.59213e-01,9.99401e-01,9.99901e-01
1.310939621e+00,9.52667e-01,9.99999e-01,9.53417e-01,9.99413e-01,9.99798e-01
1.317494319e+00,9.48656e-01,9.99999e-01,9.49554e-01,9.99424e-01,9.99628e-01
1.324081790e+00,9.24082e-01,9.99999e-01,9.25164e-01,9.99436e-01,9.99393e-01
1.330702199e+00,7.06984e-01,9.99999e-01,7.08115e-01,9.99447e-01,9.98954e-01
1.337355710e+00,4.31333e-01,9.99999e-01,4.32437e-01,9.99458e-01,9.97987e-01
1.344042489e+00,9.51227e-02,9.99999e-01,9.57522e-02,9.99468e-01,9.93952e-01
1.350762701e+00,1.01065e-02,9.99999e-01,1.03240e-02,9.99479e-01,9.79446e-01
1.357516515e+00,2.42109e-03,9.99999e-01,2.57455e-03,9.99489e-01,9.40871e-01
1.364304097e+00,1.45331e-02,9.99999e-01,1.61795e-02,9.99499e-01,8.98689e-01
1.371125618e+00,5.92016e-02,9.99999e-01,6.55063e-02,9.99509e-01,9.04197e-01
1.377981246e+00,8.80393e-02,9.99999e-01,9.60231e-02,9.99519e-01,9.17295e-01
1.384871152e+00,1.23603e-02,9.99999e-01,1.34019e-02,9.99528e-01,9.22710e-01
1.391795508e+00,2.00812e-02,9.99999e-01,2.16916e-02,9.99538e-01,9.26189e-01
1.398754485e+00,3.19848e-02,9.99999e-01,3.40916e-02,9.99547e-01,9.38625e-01
1.405748258e+00,3.16710e-02,9.99999e-01,3.28803e-02,9.99556e-01,9.63649e-01
1.412776999e+00,3.71756e-02,9.99999e-01,3.78259e-02,9.99564e-01,9.83236e-01
1.419840884e+00,4.47945e-02,9.99999e-01,4.51470e-02,9.99573e-01,9.92614e-01
1.426940089e+00,9.11399e-02,9.99999e-01,9.16929e-02,9.99581e-01,9.94383e-01
1.434074789e+00,1.57566e-01,9.99999e-01,1.58681e-01,9.99590e-01,9.93376e-01
1.441245163e+00,2.60673e-01,9.99999e-01,2.62661e-01,9.99598e-01,9.92827e-01
1.448451389e+00,3.78667e-01,9.99999e-01,3.81211e-01,9.99606e-01,9.93716e-01
1.455693646e+00,5.39029e-01,9.99999e-01,5.41887e-01,9.99613e-01,9.95107e-01
1.462972114e+00,5.91185e-01,9.99999e-01,5.94181e-01,9.99621e-01,9.95333e-01
1.470286975e+00,5.40241e-01,9.99999e-01,5.42932e-01,9.99629e-01,9.95412e-01
