#,Wave/freq,Total,N2,H2O,Rayleigh,CIA
4.000000000e-01,9.07618e-01,9.99999e-01,9.99988e-01,9.07628e-01,9.99999e-01
4.020000000e-01,9.09363e-01,9.99999e-01,9.99992e-01,9.09369e-01,9.99999e-01
4.040100000e-01,9.11074e-01,9.99999e-01,9.99996e-01,9.11077e-01,9.99999e-01
4.060300500e-01,9.12754e-01,9.99999e-01,9.99998e-01,9.12754e-01,9.99999e-01
4.080602003e-01,9.14402e-01,9.99999e-01,9.99999e-01,9.14402e-01,9.99999e-01
4.101005013e-01,9.16019e-01,9.99999e-01,9.99999e-01,9.16019e-01,9.99999e-01
4.121510038e-01,9.17608e-01,9.99999e-01,9.99999e-01,9.17608e-01,9.99999e-01
4.142117588e-01,9.19165e-01,9.99999e-01,9.99996e-01,9.19168e-01,9.99999e-01
4.162828176e-01,9.20687e-01,9.99999e-01,9.99985e-01,9.20699e-01,9.99999e-01
4.183642317e-01,9.22196e-01,9.99999e-01,9.99991e-01,9.22203e-01,9.99999e-01
4.204560528e-01,9.23675e-01,9.99999e-01,9.99994e-01,9.23679e-01,9.99999e-01
4.225583331e-01,9.25127e-01,9.99999e-01,9.99997e-01,9.25129e-01,9.99999e-01
4.246711247e-01,9.26551e-01,9.99999e-01,9.99998e-01,9.26552e-01,9.99999e-01
4.267944804e-01,9.27947e-01,9.99999e-01,9.99997e-01,9.27949e-01,9.99999e-01
4.289284528e-01,9.29319e-01,9.99999e-01,9.99997e-01,9.29321e-01,9.99999e-01
4.310730950e-01,9.30667e-01,9.99999e-01,9.99998e-01,9.30668e-01,9.99999e-01
4.332284605e-01,9.31989e-01,9.99999e-01,9.99999e-01,9.31989e-01,9.99999e-01
4.353946028e-01,9.33287e-01,9.99999e-01,9.99999e-01,9.33287e-01,9.99999e-01
4.375715758e-01,9.34559e-01,9.99999e-01,9.99998e-01,9.34560e-01,9.99999e-01
4.397594337e-01,9.35799e-01,9.99999e-01,9.99987e-01,9.35811e-01,9.99999e-01
4.419582309e-01,9.36981e-01,9.99999e-01,9.99938e-01,9.37038e-01,9.99999e-01
4.441680220e-01,9.38198e-01,9.99999e-01,9.99952e-01,9.38242e-01,9.99999e-01
4.463888621e-01,9.39378e-01,9.99999e-01,9.99950e-01,9.39424e-01,9.99999e-01
4.486208064e-01,9.40556e-01,9.99999e-01,9.99969e-01,9.40584e-01,9.99999e-01
4.508639105e-01,9.41710e-01,9.99999e-01,9.99985e-01,9.41723e-01,9.99999e-01
4.531182300e-01,9.42835e-01,9.99999e-01,9.99993e-01,9.42841e-01,9.99999e-01
4.553838212e-01,9.43934e-01,9.99999e-01,9.99995e-01,9.43937e-01,9.99999e-01
4.576607403e-01,9.45012e-01,9.99999e-01,9.99997e-01,9.45014e-01,9.99999e-01
4.599490440e-01,9.46069e-01,9.99999e-01,9.99998e-01,9.46070e-01,9.99999e-01
4.622487892e-01,9.47106e-01,9.99999e-01,9.99999e-01,9.47107e-01,9.99999e-01
4.645600332e-01,9.48123e-01,9.99999e-01,9.99998e-01,9.48124e-01,9.99999e-01
4.668828333e-01,9.49108e-01,9.99999e-01,9.99985e-01,9.49122e-01,9.99999e-01
4.692172475e-01,9.50072e-01,9.99999e-01,9.99968e-01,9.50101e-01,9.99999e-01
4.715633337e-01,9.51043e-01,9.99999e-01,9.99979e-01,9.51062e-01,9.99999e-01
4.739211504e-01,9.51987e-01,9.99999e-01,9.99980e-01,9.52005e-01,9.99999e-01
4.762907561e-01,9.52921e-01,9.99999e-01,9.99989e-01,9.52931e-01,9.99999e-01
4.786722099e-01,9.53835e-01,9.99999e-01,9.99995e-01,9.53839e-01,9.99999e-01
4.810655710e-01,9.54728e-01,9.99999e-01,9.99998e-01,9.54730e-01,9.99999e-01
4.834708988e-01,9.55592e-01,9.99999e-01,9.99987e-01,9.55604e-01,9.99999e-01
4.858882533e-01,9.56440e-01,9.99999e-01,9.99977e-01,9.56461e-01,9.99999e-01
4.883176946e-01,9.57285e-01,9.99999e-01,9.99981e-01,9.57302e-01,9.99999e-01
4.907592831e-01,9.58112e-01,9.99999e-01,9.99983e-01,9.58128e-01,9.99999e-01
4.932130795e-01,9.58927e-01,9.99999e-01,9.99987e-01,9.58938e-01,9.99999e-01
4.956791449e-01,9.59726e-01,9.99999e-01,9.99993e-01,9.59732e-01,9.99999e-01
4.981575406e-01,9.60482e-01,9.99999e-01,9.99968e-01,9.60512e-01,9.99999e-01
5.006483283e-01,9.61198e-01,9.99999e-01,9.99918e-01,9.61276e-01,9.99998e-01
5.031515699e-01,9.61631e-01,9.99999e-01,9.99592e-01,9.62027e-01,9.99995e-01
5.056673278e-01,9.62551e-01,9.99999e-01,9.99785e-01,9.62762e-01,9.99994e-01
5.081956644e-01,9.63221e-01,9.99999e-01,9.99729e-01,9.63484e-01,9.99996e-01
5.107366428e-01,9.64016e-01,9.99999e-01,9.99817e-01,9.64193e-01,9.99998e-01
5.132903260e-01,9.64787e-01,9.99999e-01,9.99895e-01,9.64887e-01,9.99999e-01
5.158567776e-01,9.65526e-01,9.99999e-01,9.99955e-01,9.65569e-01,9.99999e-01
5.184360615e-01,9.66220e-01,9.99999e-01,9.99981e-01,9.66237e-01,9.99999e-01
5.210282418e-01,9.66887e-01,9.99999e-01,9.99992e-01,9.66893e-01,9.99999e-01
5.236333830e-01,9.67510e-01,9.99999e-01,9.99973e-01,9.67536e-01,9.99999e-01
5.262515499e-01,9.68151e-01,9.99999e-01,9.99982e-01,9.68167e-01,9.99999e-01
5.288828077e-01,9.68771e-01,9.99999e-01,9.99984e-01,9.68786e-01,9.99999e-01
5.315272217e-01,9.69380e-01,9.99999e-01,9.99986e-01,9.69393e-01,9.99999e-01
5.341848578e-01,9.69980e-01,9.99999e-01,9.99990e-01,9.69988e-01,9.99999e-01
5.368557821e-01,9.70542e-01,9.99999e-01,9.99968e-01,9.70572e-01,9.99999e-01
5.395400610e-01,9.71035e-01,9.99999e-01,9.99887e-01,9.71145e-01,9.99998e-01
5.422377613e-01,9.71565e-01,9.99999e-01,9.99855e-01,9.71707e-01,9.99996e-01
5.449489501e-01,9.72125e-01,9.99999e-01,9.99865e-01,9.72258e-01,9.99996e-01
5.476736949e-01,9.72682e-01,9.99999e-01,9.99881e-01,9.72798e-01,9.99998e-01
5.504120634e-01,9.73244e-01,9.99999e-01,9.99913e-01,9.73328e-01,9.99999e-01
5.531641237e-01,9.73806e-01,9.99999e-01,9.99956e-01,9.73848e-01,9.99999e-01
5.559299443e-01,9.74338e-01,9.99999e-01,9.99978e-01,9.74358e-01,9.99999e-01
5.587095940e-01,9.74845e-01,9.99999e-01,9.99986e-01,9.74858e-01,9.99999e-01
5.615031420e-01,9.75334e-01,9.99999e-01,9.99984e-01,9.75348e-01,9.99999e-01
5.643106577e-01,9.75813e-01,9.99999e-01,9.99982e-01,9.75829e-01,9.99999e-01
5.671322110e-01,9.76101e-01,9.99999e-01,9.99796e-01,9.76301e-01,9.99997e-01
5.699678720e-01,9.76551e-01,9.99999e-01,9.99786e-01,9.76764e-01,9.99994e-01
5.728177114e-01,9.76995e-01,9.99999e-01,9.99776e-01,9.77217e-01,9.99994e-01
5.756818000e-01,9.77460e-01,9.99999e-01,9.99795e-01,9.77662e-01,9.99996e-01
5.785602090e-01,9.77924e-01,9.99999e-01,9.99821e-01,9.78099e-01,9.99998e-01
5.814530100e-01,9.78351e-01,9.99999e-01,9.99820e-01,9.78527e-01,9.99999e-01
5.843602750e-01,9.78735e-01,9.99999e-01,9.99785e-01,9.78946e-01,9.99998e-01
5.872820764e-01,9.77536e-01,9.99999e-01,9.98151e-01,9.79358e-01,9.99986e-01
5.902184868e-01,9.77547e-01,9.99999e-01,9.97774e-01,9.79761e-01,9.99964e-01
5.931695792e-01,9.78580e-01,9.99999e-01,9.98424e-01,9.80157e-01,9.99965e-01
5.961354271e-01,9.78835e-01,9.99999e-01,9.98275e-01,9.80545e-01,9.99980e-01
5.991161043e-01,9.79687e-01,9.99999e-01,9.98743e-01,9.80926e-01,9.99993e-01
6.021116848e-01,9.80599e-01,9.99999e-01,9.99287e-01,9.81299e-01,9.99998e-01
6.051222432e-01,9.81311e-01,9.99999e-01,9.99639e-01,9.81665e-01,9.99999e-01
6.081478544e-01,9.81871e-01,9.99999e-01,9.99844e-01,9.82024e-01,9.99999e-01
6.111885937e-01,9.82311e-01,9.99999e-01,9.99933e-01,9.82376e-01,9.99999e-01
6.142445367e-01,9.82692e-01,9.99999e-01,9.99970e-01,9.82721e-01,9.99999e-01
6.173157594e-01,9.83043e-01,9.99999e-01,9.99983e-01,9.83059e-01,9.99999e-01
6.204023382e-01,9.83377e-01,9.99999e-01,9.99985e-01,9.83391e-01,9.99999e-01
6.235043498e-01,9.83656e-01,9.99999e-01,9.99938e-01,9.83716e-01,9.99999e-01
6.266218716e-01,9.83718e-01,9.99999e-01,9.99678e-01,9.84035e-01,9.99997e-01
6.297549810e-01,9.84228e-01,9.99999e-01,9.99881e-01,9.84348e-01,9.99995e-01
6.329037559e-01,9.84423e-01,9.99999e-01,9.99767e-01,9.84655e-01,9.99995e-01
6.360682746e-01,9.84759e-01,9.99999e-01,9.99801e-01,9.84956e-01,9.99997e-01
6.392486160e-01,9.84997e-01,9.99999e-01,9.99743e-01,9.85251e-01,9.99998e-01
6.424448591e-01,9.85198e-01,9.99999e-01,9.99654e-01,9.85540e-01,9.99997e-01
6.456570834e-01,9.84236e-01,9.99999e-01,9.98398e-01,9.85823e-01,9.99989e-01
6.488853688e-01,9.84929e-01,9.99999e-01,9.98834e-01,9.86102e-01,9.99974e-01
6.521297956e-01,9.85183e-01,9.99999e-01,9.98812e-01,9.86374e-01,9.99979e-01
6.553904446e-01,9.85458e-01,9.99999e-01,9.98815e-01,9.86641e-01,9.99984e-01
6.586673968e-01,9.85900e-01,9.99999e-01,9.98987e-01,9.86904e-01,9.99994e-01
6.619607338e-01,9.86603e-01,9.99999e-01,9.99435e-01,9.87161e-01,9.99998e-01
6.652705375e-01,9.87078e-01,9.99999e-01,9.99661e-01,9.87413e-01,9.99998e-01
6.685968902e-01,9.87518e-01,9.99999e-01,9.99855e-01,9.87660e-01,9.99999e-01
6.719398746e-01,9.87830e-01,9.99999e-01,9.99926e-01,9.87902e-01,9.99999e-01
6.752995740e-01,9.88100e-01,9.99999e-01,9.99960e-01,9.88139e-01,9.99999e-01
6.786760719e-01,9.88316e-01,9.99999e-01,9.99942e-01,9.88372e-01,9.99999e-01
6.820694522e-01,9.88503e-01,9.99999e-01,9.99901e-01,9.88601e-01,9.99998e-01
6.854797995e-01,9.88699e-01,9.99999e-01,9.99873e-01,9.88825e-01,9.99998e-01
6.889071985e-01,9.88736e-01,9.99999e-01,9.99691e-01,9.89044e-01,9.99996e-01
6.923517345e-01,9.84285e-01,9.99999e-01,9.94995e-01,9.89259e-01,9.99975e-01
6.958134932e-01,9.86873e-01,9.99999e-01,9.97427e-01,9.89470e-01,9.99946e-01
6.992925606e-01,9.87183e-01,9.99999e-01,9.97526e-01,9.89677e-01,9.99951e-01
7.027890234e-01,9.86837e-01,9.99999e-01,9.96961e-01,9.89880e-01,9.99963e-01
7.063029686e-01,9.87531e-01,9.99999e-01,9.97444e-01,9.90079e-01,9.99981e-01
7.098344834e-01,9.87836e-01,9.99999e-01,9.97548e-01,9.90274e-01,9.99988e-01
7.133836558e-01,9.87182e-01,9.99999e-01,9.96706e-01,9.90465e-01,9.99978e-01
7.169505741e-01,9.64518e-01,9.99999e-01,9.73781e-01,9.90653e-01,9.99832e-01
7.205353270e-01,9.77912e-01,9.99999e-01,9.87247e-01,9.90836e-01,9.99704e-01
7.241380036e-01,9.74595e-01,9.99999e-01,9.83679e-01,9.91016e-01,9.99744e-01
7.277586936e-01,9.76389e-01,9.99999e-01,9.85269e-01,9.91193e-01,9.99791e-01
7.313974871e-01,9.75827e-01,9.99999e-01,9.84420e-01,9.91366e-01,9.99901e-01
7.350544745e-01,9.83035e-01,9.99999e-01,9.91459e-01,9.91536e-01,9.99965e-01
7.387297469e-01,9.85456e-01,9.99999e-01,9.93716e-01,9.91703e-01,9.99983e-01
7.424233956e-01,9.88815e-01,9.99999e-01,9.96926e-01,9.91866e-01,9.99996e-01
7.461355126e-01,9.90176e-01,9.99999e-01,9.98135e-01,9.92026e-01,9.99999e-01
7.498661902e-01,9.91323e-01,9.99999e-01,9.99133e-01,9.92183e-01,9.99999e-01
7.536155211e-01,9.91914e-01,9.99999e-01,9.99573e-01,9.92336e-01,9.99999e-01
7.573835987e-01,9.92270e-01,9.99999e-01,9.99780e-01,9.92487e-01,9.99999e-01
7.611705167e-01,9.92500e-01,9.99999e-01,9.99863e-01,9.92635e-01,9.99999e-01
7.649763693e-01,9.92695e-01,9.99999e-01,9.99914e-01,9.92780e-01,9.99999e-01
7.688012511e-01,9.92863e-01,9.99999e-01,9.99940e-01,9.92922e-01,9.99999e-01
7.726452574e-01,9.93013e-01,9.99999e-01,9.99950e-01,9.93061e-01,9.99999e-01
7.765084837e-01,9.93128e-01,9.99999e-01,9.99929e-01,9.93198e-01,9.99999e-01
7.803910261e-01,9.93031e-01,9.99999e-01,9.99696e-01,9.93332e-01,9.99999e-01
7.842929812e-01,9.92411e-01,9.99999e-01,9.98942e-01,9.93463e-01,9.99997e-01
7.882144461e-01,9.91426e-01,9.99999e-01,9.97834e-01,9.93592e-01,9.99984e-01
7.921555184e-01,9.92516e-01,9.99999e-01,9.98815e-01,9.93718e-01,9.99973e-01
7.961162960e-01,9.91723e-01,9.99999e-01,9.97892e-01,9.93842e-01,9.99974e-01
8.000968774e-01,9.91527e-01,9.99999e-01,9.97575e-01,9.93963e-01,9.99973e-01
8.040973618e-01,9.91649e-01,9.99999e-01,9.97572e-01,9.94082e-01,9.99979e-01
8.081178486e-01,9.88719e-01,9.99999e-01,9.94508e-01,9.94198e-01,9.99979e-01
8.121584379e-01,9.71640e-01,9.99999e-01,9.77271e-01,9.94313e-01,9.99923e-01
8.162192301e-01,9.67507e-01,9.99999e-01,9.73210e-01,9.94425e-01,9.99712e-01
8.203003262e-01,9.80632e-01,9.99999e-01,9.86352e-01,9.94534e-01,9.99663e-01
8.244018279e-01,9.75704e-01,9.99999e-01,9.81222e-01,9.94642e-01,9.99731e-01
8.285238370e-01,9.78522e-01,9.99999e-01,9.83895e-01,9.94748e-01,9.99789e-01
8.326664562e-01,9.78603e-01,9.99999e-01,9.83753e-01,9.94851e-01,9.99912e-01
8.368297885e-01,9.83395e-01,9.99999e-01,9.88402e-01,9.94952e-01,9.99979e-01
8.410139374e-01,9.88176e-01,9.99999e-01,9.93100e-01,9.95052e-01,9.99987e-01
8.452190071e-01,9.91775e-01,9.99999e-01,9.96615e-01,9.95149e-01,9.99992e-01
8.494451021e-01,9.93281e-01,9.99999e-01,9.98031e-01,9.95245e-01,9.99993e-01
8.536923276e-01,9.94179e-01,9.99999e-01,9.98838e-01,9.95339e-01,9.99996e-01
8.579607893e-01,9.94716e-01,9.99999e-01,9.99283e-01,9.95430e-01,9.99998e-01
8.622505932e-01,9.95068e-01,9.99999e-01,9.99545e-01,9.95520e-01,9.99999e-01
8.665618462e-01,9.95328e-01,9.99999e-01,9.99717e-01,9.95609e-01,9.99999e-01
8.708946554e-01,9.95374e-01,9.99999e-01,9.99676e-01,9.95695e-01,9.99999e-01
8.752491287e-01,9.95350e-01,9.99999e-01,9.99567e-01,9.95780e-01,9.99999e-01
8.796253743e-01,9.95265e-01,9.99999e-01,9.99400e-01,9.95863e-01,9.99998e-01
8.840235012e-01,9.95259e-01,9.99999e-01,9.99315e-01,9.95945e-01,9.99995e-01
8.884436187e-01,9.93497e-01,9.99999e-01,9.97473e-01,9.96025e-01,9.99987e-01
8.928858368e-01,9.69931e-01,9.99999e-01,9.73791e-01,9.96103e-01,9.99931e-01
8.973502660e-01,9.50303e-01,9.99999e-01,9.54280e-01,9.96180e-01,9.99650e-01
9.018370173e-01,9.72304e-01,9.99999e-01,9.76494e-01,9.96255e-01,9.99450e-01
9.063462024e-01,9.75051e-01,9.99999e-01,9.79115e-01,9.96329e-01,9.99516e-01
9.108779334e-01,9.63744e-01,9.99999e-01,9.67709e-01,9.96401e-01,9.99497e-01
9.154323231e-01,9.59680e-01,9.99999e-01,9.63476e-01,9.96472e-01,9.99584e-01
9.200094847e-01,9.67718e-01,9.99999e-01,9.71300e-01,9.96542e-01,9.99767e-01
9.246095321e-01,9.50973e-01,9.99999e-01,9.54462e-01,9.96610e-01,9.99732e-01
9.292325798e-01,7.28606e-01,9.99999e-01,7.31979e-01,9.96677e-01,9.98709e-01
9.338787427e-01,6.63928e-01,9.99999e-01,6.69213e-01,9.96742e-01,9.95343e-01
9.385481364e-01,8.43988e-01,9.99999e-01,8.51044e-01,9.96807e-01,9.94884e-01
9.432408771e-01,7.89916e-01,9.99999e-01,7.95909e-01,9.96870e-01,9.95585e-01
9.479570815e-01,7.22546e-01,9.99999e-01,7.27384e-01,9.96931e-01,9.96405e-01
9.526968669e-01,7.86954e-01,9.99999e-01,7.91063e-01,9.96992e-01,9.97805e-01
9.574603512e-01,8.05398e-01,9.99999e-01,8.08680e-01,9.97051e-01,9.98884e-01
9.622476530e-01,8.39060e-01,9.99999e-01,8.42142e-01,9.97109e-01,9.99228e-01
9.670588912e-01,9.02776e-01,9.99999e-01,9.05818e-01,9.97166e-01,9.99472e-01
9.718941857e-01,9.37297e-01,9.99999e-01,9.40272e-01,9.97222e-01,9.99611e-01
9.767536566e-01,9.47305e-01,9.99999e-01,9.50172e-01,9.97277e-01,9.99702e-01
9.816374249e-01,9.60260e-01,9.99999e-01,9.62929e-01,9.97331e-01,9.99896e-01
9.865456120e-01,9.74123e-01,9.99999e-01,9.76698e-01,9.97383e-01,9.99978e-01
9.914783401e-01,9.83004e-01,9.99999e-01,9.85537e-01,9.97435e-01,9.99993e-01
9.964357318e-01,9.89604e-01,9.99999e-01,9.92101e-01,9.97485e-01,9.99996e-01
1.001417910e+00,9.92803e-01,9.99999e-01,9.95261e-01,9.97535e-01,9.99994e-01
1.006425000e+00,9.94876e-01,9.99999e-01,9.97293e-01,9.97584e-01,9.99991e-01
1.011457125e+00,9.95951e-01,9.99999e-01,9.98321e-01,9.97631e-01,9.99992e-01
1.016514411e+00,9.96536e-01,9.99999e-01,9.98859e-01,9.97678e-01,9.99994e-01
1.021596983e+00,9.96812e-01,9.99999e-01,9.99090e-01,9.97724e-01,9.99994e-01
1.026704968e+00,9.97058e-01,9.99999e-01,9.99290e-01,9.97769e-01,9.99996e-01
1.031838492e+00,9.97298e-01,9.99999e-01,9.99484e-01,9.97813e-01,9.99998e-01
1.036997685e+00,9.97550e-01,9.99999e-01,9.99693e-01,9.97856e-01,9.99999e-01
1.042182673e+00,9.97533e-01,9.99999e-01,9.99633e-01,9.97898e-01,9.99999e-01
1.047393587e+00,9.97456e-01,9.99999e-01,9.99515e-01,9.97940e-01,9.99999e-01
1.052630555e+00,9.97316e-01,9.99999e-01,9.99334e-01,9.97980e-01,9.99999e-01
1.057893707e+00,9.96910e-01,9.99999e-01,9.98887e-01,9.98020e-01,9.99999e-01
1.063183176e+00,9.96233e-01,9.99999e-01,9.98171e-01,9.98059e-01,9.99998e-01
1.068499092e+00,9.95043e-01,9.99999e-01,9.96940e-01,9.98097e-01,9.99997e-01
1.073841587e+00,9.94553e-01,9.99999e-01,9.96414e-01,9.98135e-01,9.99995e-01
1.079210795e+00,9.93586e-01,9.99999e-01,9.95417e-01,9.98172e-01,9.99987e-01
1.084606849e+00,9.91253e-01,9.99999e-01,9.93061e-01,9.98208e-01,9.99970e-01
1.090029883e+00,9.88205e-01,9.99999e-01,9.90004e-01,9.98243e-01,9.99938e-01
1.095480033e+00,9.71239e-01,9.99999e-01,9.73020e-01,9.98278e-01,9.99889e-01
1.100957433e+00,9.30962e-01,9.99999e-01,9.32725e-01,9.98312e-01,9.99796e-01
1.106462220e+00,8.34932e-01,9.99999e-01,8.36603e-01,9.98345e-01,9.99655e-01
1.111994531e+00,6.85077e-01,9.99999e-01,6.86817e-01,9.98378e-01,9.99086e-01
1.117554504e+00,5.40568e-01,9.99999e-01,5.43216e-01,9.98410e-01,9.96708e-01
1.123142276e+00,6.29065e-01,9.99999e-01,6.34991e-01,9.98441e-01,9.92212e-01
1.128757988e+00,7.41587e-01,9.99999e-01,7.49469e-01,9.98472e-01,9.90997e-01
1.134401778e+00,5.04407e-01,9.99999e-01,5.09063e-01,9.98502e-01,9.92339e-01
1.140073787e+00,8.36969e-01,9.99999e-01,8.43365e-01,9.98531e-01,9.93874e-01
1.145774156e+00,6.94328e-01,9.99999e-01,6.99250e-01,9.98560e-01,9.94391e-01
1.151503026e+00,6.66694e-01,9.99999e-01,6.69731e-01,9.98589e-01,9.96871e-01
1.157260541e+00,7.17672e-01,9.99999e-01,7.19339e-01,9.98617e-01,9.99063e-01
1.163046844e+00,7.83344e-01,9.99999e-01,7.84615e-01,9.98644e-01,9.99734e-01
1.168862078e+00,8.44427e-01,9.99999e-01,8.45666e-01,9.98671e-01,9.99862e-01
1.174706389e+00,9.00400e-01,9.99999e-01,9.01738e-01,9.98697e-01,9.99818e-01
1.180579921e+00,9.37575e-01,9.99999e-01,9.39031e-01,9.98723e-01,9.99725e-01
1.186482820e+00,9.63629e-01,9.99999e-01,9.65107e-01,9.98748e-01,9.99718e-01
1.192415234e+00,9.78084e-01,9.99999e-01,9.79491e-01,9.98773e-01,9.99788e-01
1.198377311e+00,9.81290e-01,9.99999e-01,9.82666e-01,9.98797e-01,9.99800e-01
1.204369197e+00,9.82253e-01,9.99999e-01,9.83589e-01,9.98820e-01,9.99819e-01
1.210391043e+00,9.83065e-01,9.99999e-01,9.84309e-01,9.98844e-01,9.99889e-01
1.216442998e+00,9.85471e-01,9.99999e-01,9.86654e-01,9.98867e-01,9.99932e-01
1.222525213e+00,9.88455e-01,9.99999e-01,9.89594e-01,9.98889e-01,9.99957e-01
1.228637839e+00,9.91662e-01,9.99999e-01,9.92762e-01,9.98911e-01,9.99980e-01
1.234781029e+00,9.93558e-01,9.99999e-01,9.94625e-01,9.98932e-01,9.99993e-01
1.240954934e+00,9.95553e-01,9.99999e-01,9.96596e-01,9.98953e-01,9.99997e-01
1.247159708e+00,9.96327e-01,9.99999e-01,9.97350e-01,9.98974e-01,9.99998e-01
1.253395507e+00,9.96642e-01,9.99999e-01,9.97645e-01,9.98994e-01,9.99998e-01
1.259662485e+00,9.96775e-01,9.99999e-01,9.97760e-01,9.99014e-01,9.99997e-01
1.265960797e+00,9.95462e-01,9.99999e-01,9.96427e-01,9.99033e-01,9.99996e-01
1.272290601e+00,9.93433e-01,9.99999e-01,9.94380e-01,9.99053e-01,9.99993e-01
1.278652054e+00,9.87923e-01,9.99999e-01,9.88851e-01,9.99071e-01,9.99988e-01
1.285045314e+00,9.78925e-01,9.99999e-01,9.79836e-01,9.99090e-01,9.99979e-01
1.291470541e+00,9.64219e-01,9.99999e-01,9.65114e-01,9.99108e-01,9.99964e-01
1.297927893e+00,9.49793e-01,9.99999e-01,9.50687e-01,9.99125e-01,9.99933e-01
1.304417533e+00,9.41195e-01,9.99999e-01,9.42134e-01,9.99142e-01,9.99859e-01
1.310939621e+00,9.26347e-01,9.99999e-01,9.27392e-01,9.99159e-01,9.99711e-01
1.317494319e+00,9.27441e-01,9.99999e-01,9.28699e-01,9.99176e-01,9.99467e-01
1.324081790e+00,8.93224e-01,9.99999e-01,8.94722e-01,9.99192e-01,9.99130e-01
1.330702199e+00,6.18241e-01,9.99999e-01,6.19658e-01,9.99208e-01,9.98502e-01
1.337355710e+00,3.07948e-01,9.99999e-01,3.09077e-01,9.99224e-01,9.97117e-01
1.344042489e+00,4.25765e-02,9.99999e-01,4.29809e-02,9.99239e-01,9.91345e-01
1.350762701e+00,1.99062e-03,9.99999e-01,2.05228e-03,9.99254e-01,9.70679e-01
1.357516515e+00,2.35556e-04,9.99999e-01,2.57241e-04,9.99269e-01,9.16369e-01
1.364304097e+00,3.34535e-03,9.99999e-01,3.90145e-03,9.99283e-01,8.58077e-01
1.371125618e+00,2.10206e-02,9.99999e-01,2.43009e-02,9.99297e-01,8.65622e-01
1.377981246e+00,3.67769e-02,9.99999e-01,4.16481e-02,9.99311e-01,8.83646e-01
1.384871152e+00,2.96024e-03,9.99999e-01,3.32413e-03,9.99325e-01,8.91130e-01
1.391795508e+00,4.76004e-03,9.99999e-01,5.31636e-03,9.99338e-01,8.95948e-01
1.398754485e+00,1.01238e-02,9.99999e-01,1.10928e-02,9.99351e-01,9.13237e-01
1.405748258e+00,9.63166e-03,9.99999e-01,1.01629e-02,9.99364e-01,9.48325e-01
1.412776999e+00,1.12909e-02,9.99999e-01,1.15750e-02,9.99376e-01,9.76066e-01
1.419840884e+00,1.49879e-02,9.99999e-01,1.51572e-02,9.99389e-01,9.89434e-01
1.426940089e+00,3.80109e-02,9.99999e-01,3.83418e-02,9.99401e-01,9.91962e-01
1.434074789e+00,8.12564e-02,9.99999e-01,8.20820e-02,9.99413e-01,9.90522e-01
1.441245163e+00,1.53365e-01,9.99999e-01,1.55044e-01,9.99424e-01,9.89738e-01
1.448451389e+00,2.60153e-01,9.99999e-01,2.62661e-01,9.99435e-01,9.91009e-01
1.455693646e+00,4.19188e-01,9.99999e-01,4.22377e-01,9.99447e-01,9.92997e-01
1.462972114e+00,4.74503e-01,9.99999e-01,4.77953e-01,9.99458e-01,9.93320e-01
1.470286975e+00,4.18565e-01,9.99999e-01,4.21555e-01,9.99468e-01,9.93433e-01
