#,Wave/freq,Total,N2,H2O,Rayleigh,CIA
4.000000000e-01,5.37925e-01,9.99999e-01,9.99929e-01,5.37963e-01,9.99999e-01
4.020000000e-01,5.44574e-01,9.99999e-01,9.99956e-01,5.44598e-01,9.99999e-01
4.040100000e-01,5.51164e-01,9.99999e-01,9.99981e-01,5.51175e-01,9.99999e-01
4.060300500e-01,5.57696e-01,9.99999e-01,9.99995e-01,5.57698e-01,9.99999e-01
4.080602003e-01,5.64167e-01,9.99999e-01,9.99998e-01,5.64168e-01,9.99999e-01
4.101005013e-01,5.70583e-01,9.99999e-01,9.99999e-01,5.70583e-01,9.99999e-01
4.121510038e-01,5.76940e-01,9.99999e-01,9.99996e-01,5.76942e-01,9.99999e-01
4.142117588e-01,5.83233e-01,9.99999e-01,9.99979e-01,5.83244e-01,9.99999e-01
4.162828176e-01,5.89438e-01,9.99999e-01,9.99913e-01,5.89489e-01,9.99999e-01
4.183642317e-01,5.95644e-01,9.99999e-01,9.99948e-01,5.95675e-01,9.99999e-01
4.204560528e-01,6.01782e-01,9.99999e-01,9.99968e-01,6.01801e-01,9.99999e-01
4.225583331e-01,6.07861e-01,9.99999e-01,9.99987e-01,6.07868e-01,9.99999e-01
4.246711247e-01,6.13869e-01,9.99999e-01,9.99990e-01,6.13875e-01,9.99999e-01
4.267944804e-01,6.19812e-01,9.99999e-01,9.99985e-01,6.19820e-01,9.99999e-01
4.289284528e-01,6.25697e-01,9.99999e-01,9.99988e-01,6.25704e-01,9.99999e-01
4.310730950e-01,6.31523e-01,9.99999e-01,9.99995e-01,6.31526e-01,9.99999e-01
4.332284605e-01,6.37285e-01,9.99999e-01,9.99998e-01,6.37285e-01,9.99999e-01
4.353946028e-01,6.42982e-01,9.99999e-01,9.99998e-01,6.42982e-01,9.99999e-01
4.375715758e-01,6.48610e-01,9.99999e-01,9.99990e-01,6.48616e-01,9.99999e-01
4.397594337e-01,6.54135e-01,9.99999e-01,9.99922e-01,6.54186e-01,9.99999e-01
4.419582309e-01,6.59433e-01,9.99999e-01,9.99606e-01,6.59692e-01,9.99999e-01
4.441680220e-01,6.64936e-01,9.99999e-01,9.99700e-01,6.65135e-01,9.99999e-01
4.463888621e-01,6.70304e-01,9.99999e-01,9.99685e-01,6.70514e-01,9.99999e-01
4.486208064e-01,6.75698e-01,9.99999e-01,9.99805e-01,6.75829e-01,9.99999e-01
4.508639105e-01,6.81018e-01,9.99999e-01,9.99908e-01,6.81080e-01,9.99999e-01
4.531182300e-01,6.86242e-01,9.99999e-01,9.99963e-01,6.86266e-01,9.99999e-01
4.553838212e-01,6.91372e-01,9.99999e-01,9.99975e-01,6.91389e-01,9.99999e-01
4.576607403e-01,6.96439e-01,9.99999e-01,9.99988e-01,6.96447e-01,9.99999e-01
4.599490440e-01,7.01436e-01,9.99999e-01,9.99991e-01,7.01442e-01,9.99999e-01
4.622487892e-01,7.06371e-01,9.99999e-01,9.99998e-01,7.06372e-01,9.99999e-01
4.645600332e-01,7.11235e-01,9.99999e-01,9.99993e-01,7.11239e-01,9.99999e-01
4.668828333e-01,7.15976e-01,9.99999e-01,9.99906e-01,7.16042e-01,9.99999e-01
4.692172475e-01,7.20640e-01,9.99999e-01,9.99803e-01,7.20782e-01,9.99999e-01
4.715633337e-01,7.25365e-01,9.99999e-01,9.99870e-01,7.25458e-01,9.99999e-01
4.739211504e-01,7.29983e-01,9.99999e-01,9.99877e-01,7.30072e-01,9.99999e-01
4.762907561e-01,7.34577e-01,9.99999e-01,9.99936e-01,7.34623e-01,9.99999e-01
4.786722099e-01,7.39093e-01,9.99999e-01,9.99973e-01,7.39112e-01,9.99999e-01
4.810655710e-01,7.43533e-01,9.99999e-01,9.99991e-01,7.43539e-01,9.99999e-01
4.834708988e-01,7.47846e-01,9.99999e-01,9.99922e-01,7.47903e-01,9.99999e-01
4.858882533e-01,7.52103e-01,9.99999e-01,9.99860e-01,7.52207e-01,9.99999e-01
4.883176946e-01,7.56361e-01,9.99999e-01,9.99882e-01,7.56450e-01,9.99999e-01
4.907592831e-01,7.60552e-01,9.99999e-01,9.99894e-01,7.60632e-01,9.99999e-01
4.932130795e-01,7.64697e-01,9.99999e-01,9.99924e-01,7.64754e-01,9.99999e-01
4.956791449e-01,7.68785e-01,9.99999e-01,9.99960e-01,7.68816e-01,9.99999e-01
4.981575406e-01,7.72665e-01,9.99999e-01,9.99800e-01,7.72819e-01,9.99999e-01
5.006483283e-01,7.76357e-01,9.99999e-01,9.99480e-01,7.76763e-01,9.99996e-01
5.031515699e-01,7.78594e-01,9.99999e-01,9.97395e-01,7.80648e-01,9.99972e-01
5.056673278e-01,7.83377e-01,9.99999e-01,9.98630e-01,7.84476e-01,9.99968e-01
5.081956644e-01,7.86871e-01,9.99999e-01,9.98273e-01,7.88246e-01,9.99980e-01
5.107366428e-01,7.91035e-01,9.99999e-01,9.98834e-01,7.91960e-01,9.99996e-01
5.132903260e-01,7.95088e-01,9.99999e-01,9.99335e-01,7.95617e-01,9.99999e-01
5.158567776e-01,7.98994e-01,9.99999e-01,9.99719e-01,7.99218e-01,9.99999e-01
5.184360615e-01,8.02674e-01,9.99999e-01,9.99887e-01,8.02764e-01,9.99999e-01
5.210282418e-01,8.06221e-01,9.99999e-01,9.99957e-01,8.06255e-01,9.99999e-01
5.236333830e-01,8.09554e-01,9.99999e-01,9.99830e-01,8.09692e-01,9.99998e-01
5.262515499e-01,8.12988e-01,9.99999e-01,9.99893e-01,8.13075e-01,9.99997e-01
5.288828077e-01,8.16325e-01,9.99999e-01,9.99901e-01,8.16405e-01,9.99998e-01
5.315272217e-01,8.19613e-01,9.99999e-01,9.99914e-01,8.19683e-01,9.99999e-01
5.341848578e-01,8.22862e-01,9.99999e-01,9.99943e-01,8.22909e-01,9.99999e-01
5.368557821e-01,8.25919e-01,9.99999e-01,9.99800e-01,8.26083e-01,9.99999e-01
5.395400610e-01,8.28602e-01,9.99999e-01,9.99277e-01,8.29206e-01,9.99992e-01
5.422377613e-01,8.31503e-01,9.99999e-01,9.99082e-01,8.32280e-01,9.99982e-01
5.449489501e-01,8.34570e-01,9.99999e-01,9.99139e-01,8.35303e-01,9.99982e-01
5.476736949e-01,8.37639e-01,9.99999e-01,9.99245e-01,8.38278e-01,9.99991e-01
5.504120634e-01,8.40741e-01,9.99999e-01,9.99451e-01,8.41204e-01,9.99997e-01
5.531641237e-01,8.43849e-01,9.99999e-01,9.99724e-01,8.44082e-01,9.99999e-01
5.559299443e-01,8.46800e-01,9.99999e-01,9.99866e-01,8.46913e-01,9.99999e-01
5.587095940e-01,8.49626e-01,9.99999e-01,9.99915e-01,8.49697e-01,9.99999e-01
5.615031420e-01,8.52355e-01,9.99999e-01,9.99906e-01,8.52435e-01,9.99999e-01
5.643106577e-01,8.55035e-01,9.99999e-01,9.99892e-01,8.55127e-01,9.99998e-01
5.671322110e-01,8.56638e-01,9.99999e-01,9.98685e-01,8.57775e-01,9.99988e-01
5.699678720e-01,8.59185e-01,9.99999e-01,9.98647e-01,8.60378e-01,9.99964e-01
5.728177114e-01,8.61681e-01,9.99999e-01,9.98572e-01,8.62938e-01,9.99970e-01
5.756818000e-01,8.64309e-01,9.99999e-01,9.98693e-01,8.65454e-01,9.99982e-01
5.785602090e-01,8.66938e-01,9.99999e-01,9.98863e-01,8.67928e-01,9.99994e-01
5.814530100e-01,8.69362e-01,9.99999e-01,9.98855e-01,8.70359e-01,9.99997e-01
5.843602750e-01,8.71542e-01,9.99999e-01,9.98623e-01,8.72750e-01,9.99991e-01
5.872820764e-01,8.64720e-01,9.99999e-01,9.88220e-01,8.75099e-01,9.99916e-01
5.902184868e-01,8.64823e-01,9.99999e-01,9.85877e-01,8.77408e-01,9.99774e-01
5.931695792e-01,8.70673e-01,9.99999e-01,9.89976e-01,8.79678e-01,9.99783e-01
5.961354271e-01,8.72135e-01,9.99999e-01,9.89039e-01,8.81908e-01,9.99875e-01
5.991161043e-01,8.76998e-01,9.99999e-01,9.92004e-01,8.84100e-01,9.99961e-01
6.021116848e-01,8.82229e-01,9.99999e-01,9.95462e-01,8.86254e-01,9.99995e-01
6.051222432e-01,8.86330e-01,9.99999e-01,9.97702e-01,8.88370e-01,9.99999e-01
6.081478544e-01,8.89566e-01,9.99999e-01,9.99007e-01,8.90450e-01,9.99999e-01
6.111885937e-01,8.92120e-01,9.99999e-01,9.99581e-01,8.92493e-01,9.99999e-01
6.142445367e-01,8.94333e-01,9.99999e-01,9.99812e-01,8.94500e-01,9.99999e-01
6.173157594e-01,8.96379e-01,9.99999e-01,9.99896e-01,8.96472e-01,9.99999e-01
6.204023382e-01,8.98330e-01,9.99999e-01,9.99911e-01,8.98409e-01,9.99999e-01
6.235043498e-01,8.99956e-01,9.99999e-01,9.99604e-01,9.00313e-01,9.99998e-01
6.266218716e-01,9.00321e-01,9.99999e-01,9.97950e-01,9.02182e-01,9.99985e-01
6.297549810e-01,9.03313e-01,9.99999e-01,9.99247e-01,9.04018e-01,9.99970e-01
6.329037559e-01,9.04460e-01,9.99999e-01,9.98519e-01,9.05822e-01,9.99976e-01
6.360682746e-01,9.06431e-01,9.99999e-01,9.98731e-01,9.07593e-01,9.99985e-01
6.392486160e-01,9.07838e-01,9.99999e-01,9.98361e-01,9.09333e-01,9.99993e-01
6.424448591e-01,9.09016e-01,9.99999e-01,9.97786e-01,9.11042e-01,9.99988e-01
6.456570834e-01,9.03322e-01,9.99999e-01,9.89763e-01,9.12720e-01,9.99937e-01
6.488853688e-01,9.07456e-01,9.99999e-01,9.92596e-01,9.14368e-01,9.99841e-01
6.521297956e-01,9.08960e-01,9.99999e-01,9.92457e-01,9.15986e-01,9.99869e-01
6.553904446e-01,9.10553e-01,9.99999e-01,9.92442e-01,9.17575e-01,9.99902e-01
6.586673968e-01,9.13187e-01,9.99999e-01,9.93559e-01,9.19136e-01,9.99967e-01
6.619607338e-01,9.17354e-01,9.99999e-01,9.96407e-01,9.20668e-01,9.99992e-01
6.652705375e-01,9.20180e-01,9.99999e-01,9.97842e-01,9.22172e-01,9.99995e-01
6.685968902e-01,9.22803e-01,9.99999e-01,9.99083e-01,9.23649e-01,9.99998e-01
6.719398746e-01,9.24670e-01,9.99999e-01,9.99535e-01,9.25099e-01,9.99999e-01
6.752995740e-01,9.26296e-01,9.99999e-01,9.99754e-01,9.26523e-01,9.99999e-01
6.786760719e-01,9.27579e-01,9.99999e-01,9.99631e-01,9.27921e-01,9.99998e-01
6.820694522e-01,9.28703e-01,9.99999e-01,9.99367e-01,9.29293e-01,9.99996e-01
6.854797995e-01,9.29882e-01,9.99999e-01,9.99191e-01,9.30640e-01,9.99992e-01
6.889071985e-01,9.30094e-01,9.99999e-01,9.98012e-01,9.31962e-01,9.99982e-01
6.923517345e-01,9.03628e-01,9.99999e-01,9.68395e-01,9.33260e-01,9.99846e-01
6.958134932e-01,9.19138e-01,9.99999e-01,9.83857e-01,9.34534e-01,9.99661e-01
6.992925606e-01,9.20772e-01,9.99999e-01,9.84256e-01,9.35785e-01,9.99695e-01
7.027890234e-01,9.18787e-01,9.99999e-01,9.80776e-01,9.37013e-01,9.99766e-01
7.063029686e-01,9.22901e-01,9.99999e-01,9.83788e-01,9.38217e-01,9.99883e-01
7.098344834e-01,9.24718e-01,9.99999e-01,9.84437e-01,9.39400e-01,9.99931e-01
7.133836558e-01,9.20728e-01,9.99999e-01,9.79046e-01,9.40561e-01,9.99863e-01
7.169505741e-01,7.95892e-01,9.99999e-01,8.46070e-01,9.41700e-01,9.98929e-01
7.205353270e-01,8.68374e-01,9.99999e-01,9.22781e-01,9.42818e-01,9.98112e-01
7.241380036e-01,8.49119e-01,9.99999e-01,9.01039e-01,9.43915e-01,9.98369e-01
7.277586936e-01,8.59167e-01,9.99999e-01,9.10392e-01,9.44992e-01,9.98666e-01
7.313974871e-01,8.56000e-01,9.99999e-01,9.05381e-01,9.46048e-01,9.99375e-01
7.350544745e-01,8.96651e-01,9.99999e-01,9.46952e-01,9.47085e-01,9.99782e-01
7.387297469e-01,9.10712e-01,9.99999e-01,9.60657e-01,9.48103e-01,9.99900e-01
7.424233956e-01,9.30666e-01,9.99999e-01,9.80592e-01,9.49101e-01,9.99982e-01
7.461355126e-01,9.38841e-01,9.99999e-01,9.88171e-01,9.50081e-01,9.99996e-01
7.498661902e-01,9.45807e-01,9.99999e-01,9.94495e-01,9.51043e-01,9.99998e-01
7.536155211e-01,9.49403e-01,9.99999e-01,9.97286e-01,9.51986e-01,9.99998e-01
7.573835987e-01,9.51581e-01,9.99999e-01,9.98603e-01,9.52912e-01,9.99999e-01
7.611705167e-01,9.52992e-01,9.99999e-01,9.99131e-01,9.53820e-01,9.99999e-01
7.649763693e-01,9.54191e-01,9.99999e-01,9.99454e-01,9.54711e-01,9.99999e-01
7.688012511e-01,9.55222e-01,9.99999e-01,9.99619e-01,9.55586e-01,9.99999e-01
7.726452574e-01,9.56144e-01,9.99999e-01,9.99686e-01,9.56444e-01,9.99999e-01
7.765084837e-01,9.56855e-01,9.99999e-01,9.99550e-01,9.57285e-01,9.99998e-01
7.803910261e-01,9.56248e-01,9.99999e-01,9.98056e-01,9.58111e-01,9.99997e-01
7.842929812e-01,9.52420e-01,9.99999e-01,9.93232e-01,9.58921e-01,9.99987e-01
7.882144461e-01,9.46422e-01,9.99999e-01,9.86240e-01,9.59716e-01,9.99904e-01
7.921555184e-01,9.53117e-01,9.99999e-01,9.92481e-01,9.60496e-01,9.99834e-01
7.961162960e-01,9.48201e-01,9.99999e-01,9.86568e-01,9.61261e-01,9.99842e-01
8.000968774e-01,9.47034e-01,9.99999e-01,9.84595e-01,9.62011e-01,9.99832e-01
8.040973618e-01,9.47771e-01,9.99999e-01,9.84568e-01,9.62747e-01,9.99872e-01
8.081178486e-01,9.29987e-01,9.99999e-01,9.65371e-01,9.63470e-01,9.99870e-01
8.121584379e-01,8.33030e-01,9.99999e-01,8.64401e-01,9.64178e-01,9.99510e-01
8.162192301e-01,8.12106e-01,9.99999e-01,8.43219e-01,9.64873e-01,9.98163e-01
8.203003262e-01,8.84855e-01,9.99999e-01,9.18395e-01,9.65555e-01,9.97849e-01
8.244018279e-01,8.60098e-01,9.99999e-01,8.91690e-01,9.66223e-01,9.98288e-01
8.285238370e-01,8.71040e-01,9.99999e-01,9.02089e-01,9.66879e-01,9.98655e-01
8.326664562e-01,8.71923e-01,9.99999e-01,9.01692e-01,9.67523e-01,9.99443e-01
8.368297885e-01,8.98879e-01,9.99999e-01,9.28564e-01,9.68154e-01,9.99872e-01
8.410139374e-01,9.26947e-01,9.99999e-01,9.56895e-01,9.68773e-01,9.99925e-01
8.452190071e-01,9.48636e-01,9.99999e-01,9.78643e-01,9.69380e-01,9.99955e-01
8.494451021e-01,9.57813e-01,9.99999e-01,9.87495e-01,9.69976e-01,9.99963e-01
8.536923276e-01,9.63373e-01,9.99999e-01,9.92616e-01,9.70560e-01,9.99977e-01
8.579607893e-01,9.66692e-01,9.99999e-01,9.95431e-01,9.71133e-01,9.99994e-01
8.622505932e-01,9.68880e-01,9.99999e-01,9.97103e-01,9.71695e-01,9.99998e-01
8.665618462e-01,9.70496e-01,9.99999e-01,9.98199e-01,9.72246e-01,9.99998e-01
8.708946554e-01,9.70776e-01,9.99999e-01,9.97933e-01,9.72787e-01,9.99998e-01
8.752491287e-01,9.70628e-01,9.99999e-01,9.97239e-01,9.73317e-01,9.99996e-01
8.796253743e-01,9.70094e-01,9.99999e-01,9.96164e-01,9.73837e-01,9.99991e-01
8.840235012e-01,9.70059e-01,9.99999e-01,9.95624e-01,9.74348e-01,9.99972e-01
8.884436187e-01,9.59027e-01,9.99999e-01,9.83844e-01,9.74848e-01,9.99923e-01
8.928858368e-01,8.24653e-01,9.99999e-01,8.45873e-01,9.75338e-01,9.99563e-01
8.973502660e-01,7.27499e-01,9.99999e-01,7.47194e-01,9.75820e-01,9.97766e-01
9.018370173e-01,8.39635e-01,9.99999e-01,8.63053e-01,9.76291e-01,9.96490e-01
9.063462024e-01,8.52732e-01,9.99999e-01,8.75725e-01,9.76754e-01,9.96916e-01
9.108779334e-01,7.93134e-01,9.99999e-01,8.14241e-01,9.77208e-01,9.96795e-01
9.154323231e-01,7.71833e-01,9.99999e-01,7.91571e-01,9.77653e-01,9.97350e-01
9.200094847e-01,8.14197e-01,9.99999e-01,8.33671e-01,9.78090e-01,9.98516e-01
9.246095321e-01,7.37894e-01,9.99999e-01,7.55384e-01,9.78518e-01,9.98290e-01
9.292325798e-01,1.71786e-01,9.99999e-01,1.76938e-01,9.78938e-01,9.91774e-01
9.338787427e-01,1.03388e-01,9.99999e-01,1.08767e-01,9.79349e-01,9.70587e-01
9.385481364e-01,3.83966e-01,9.99999e-01,4.04968e-01,9.79753e-01,9.67732e-01
9.432408771e-01,2.80869e-01,9.99999e-01,2.94781e-01,9.80149e-01,9.72099e-01
9.479570815e-01,1.77091e-01,9.99999e-01,1.84813e-01,9.80537e-01,9.77233e-01
9.526968669e-01,2.62271e-01,9.99999e-01,2.71154e-01,9.80918e-01,9.86051e-01
9.574603512e-01,2.80456e-01,9.99999e-01,2.87849e-01,9.81291e-01,9.92889e-01
9.622476530e-01,3.49246e-01,9.99999e-01,3.57531e-01,9.81657e-01,9.95078e-01
9.670588912e-01,5.36991e-01,9.99999e-01,5.48595e-01,9.82016e-01,9.96772e-01
9.718941857e-01,6.65710e-01,9.99999e-01,6.79337e-01,9.82368e-01,9.97526e-01
9.767536566e-01,7.11081e-01,9.99999e-01,7.24963e-01,9.82714e-01,9.98103e-01
9.816374249e-01,7.73625e-01,9.99999e-01,7.87479e-01,9.83052e-01,9.99342e-01
9.865456120e-01,8.46539e-01,9.99999e-01,8.60959e-01,9.83384e-01,9.99862e-01
9.914783401e-01,8.96485e-01,9.99999e-01,9.11364e-01,9.83710e-01,9.99961e-01
9.964357318e-01,9.35509e-01,9.99999e-01,9.50713e-01,9.84029e-01,9.99977e-01
1.001417910e+00,9.54943e-01,9.99999e-01,9.70166e-01,9.84342e-01,9.99965e-01
1.006425000e+00,9.67699e-01,9.99999e-01,9.82833e-01,9.84649e-01,9.99951e-01
1.011457125e+00,9.74411e-01,9.99999e-01,9.89344e-01,9.84950e-01,9.99954e-01
1.016514411e+00,9.78063e-01,9.99999e-01,9.92741e-01,9.85245e-01,9.99967e-01
1.021596983e+00,9.79795e-01,9.99999e-01,9.94207e-01,9.85534e-01,9.99968e-01
1.026704968e+00,9.81340e-01,9.99999e-01,9.95477e-01,9.85818e-01,9.99980e-01
1.031838492e+00,9.82855e-01,9.99999e-01,9.96718e-01,9.86096e-01,9.99993e-01
1.036997685e+00,9.84440e-01,9.99999e-01,9.98045e-01,9.86369e-01,9.99998e-01
1.042182673e+00,9.84327e-01,9.99999e-01,9.97659e-01,9.86636e-01,9.99999e-01
1.047393587e+00,9.83843e-01,9.99999e-01,9.96903e-01,9.86898e-01,9.99998e-01
1.052630555e+00,9.82956e-01,9.99999e-01,9.95747e-01,9.87155e-01,9.99998e-01
1.057893707e+00,9.80392e-01,9.99999e-01,9.92896e-01,9.87407e-01,9.99997e-01
1.063183176e+00,9.76146e-01,9.99999e-01,9.88353e-01,9.87655e-01,9.99993e-01
1.068499092e+00,9.68730e-01,9.99999e-01,9.80610e-01,9.87897e-01,9.99986e-01
1.073841587e+00,9.65694e-01,9.99999e-01,9.77317e-01,9.88135e-01,9.99970e-01
1.079210795e+00,9.59747e-01,9.99999e-01,9.71117e-01,9.88368e-01,9.99921e-01
1.084606849e+00,9.45466e-01,9.99999e-01,9.56551e-01,9.88596e-01,9.99811e-01
1.090029883e+00,9.27006e-01,9.99999e-01,9.37852e-01,9.88820e-01,9.99610e-01
1.095480033e+00,8.30358e-01,9.99999e-01,8.40150e-01,9.89040e-01,9.99295e-01
1.100957433e+00,6.37910e-01,9.99999e-01,6.45675e-01,9.89255e-01,9.98703e-01
1.106462220e+00,3.38678e-01,9.99999e-01,3.43037e-01,9.89466e-01,9.97802e-01
1.111994531e+00,1.11166e-01,9.99999e-01,1.12984e-01,9.89673e-01,9.94176e-01
1.117554504e+00,3.22461e-02,9.99999e-01,3.32700e-02,9.89876e-01,9.79135e-01
1.123142276e+00,9.28522e-02,9.99999e-01,9.85914e-02,9.90075e-01,9.51228e-01
1.128757988e+00,1.84123e-01,9.99999e-01,1.97004e-01,9.90270e-01,9.43797e-01
1.134401778e+00,8.47146e-02,9.99999e-01,8.98423e-02,9.90461e-01,9.52005e-01
1.140073787e+00,3.44618e-01,9.99999e-01,3.61813e-01,9.90649e-01,9.61464e-01
1.145774156e+00,1.32892e-01,9.99999e-01,1.39034e-01,9.90833e-01,9.64667e-01
1.151503026e+00,1.09374e-01,9.99999e-01,1.12600e-01,9.91013e-01,9.80160e-01
1.157260541e+00,1.39228e-01,9.99999e-01,1.41310e-01,9.91189e-01,9.94025e-01
1.163046844e+00,2.30491e-01,9.99999e-01,2.32894e-01,9.91363e-01,9.98302e-01
1.168862078e+00,3.49163e-01,9.99999e-01,3.52456e-01,9.91533e-01,9.99115e-01
1.174706389e+00,5.19049e-01,9.99999e-01,5.24031e-01,9.91699e-01,9.98781e-01
1.180579921e+00,6.66548e-01,9.99999e-01,6.73196e-01,9.91862e-01,9.98247e-01
1.186482820e+00,7.90289e-01,9.99999e-01,7.98079e-01,9.92022e-01,9.98201e-01
1.192415234e+00,8.68178e-01,9.99999e-01,8.76200e-01,9.92179e-01,9.98652e-01
1.198377311e+00,8.86451e-01,9.99999e-01,8.94442e-01,9.92333e-01,9.98721e-01
1.204369197e+00,8.92457e-01,9.99999e-01,9.00217e-01,9.92484e-01,9.98886e-01
1.210391043e+00,8.96918e-01,9.99999e-01,9.04207e-01,9.92632e-01,9.99299e-01
1.216442998e+00,9.11082e-01,9.99999e-01,9.18103e-01,9.92777e-01,9.99570e-01
1.222525213e+00,9.28601e-01,9.99999e-01,9.35472e-01,9.92919e-01,9.99733e-01
1.228637839e+00,9.47942e-01,9.99999e-01,9.54685e-01,9.93059e-01,9.99875e-01
1.234781029e+00,9.59596e-01,9.99999e-01,9.66204e-01,9.93195e-01,9.99964e-01
1.240954934e+00,9.71934e-01,9.99999e-01,9.78470e-01,9.93329e-01,9.99989e-01
1.247159708e+00,9.76773e-01,9.99999e-01,9.83208e-01,9.93460e-01,9.99993e-01
1.253395507e+00,9.78730e-01,9.99999e-01,9.85053e-01,9.93589e-01,9.99991e-01
1.259662485e+00,9.79551e-01,9.99999e-01,9.85758e-01,9.93715e-01,9.99986e-01
1.265960797e+00,9.71361e-01,9.99999e-01,9.77404e-01,9.93839e-01,9.99977e-01
1.272290601e+00,9.58746e-01,9.99999e-01,9.64608e-01,9.93960e-01,9.99960e-01
1.278652054e+00,9.25472e-01,9.99999e-01,9.31048e-01,9.94079e-01,9.99930e-01
1.285045314e+00,8.73460e-01,9.99999e-01,8.78672e-01,9.94196e-01,9.99870e-01
1.291470541e+00,7.93741e-01,9.99999e-01,7.98463e-01,9.94310e-01,9.99772e-01
1.297927893e+00,7.22738e-01,9.99999e-01,7.27099e-01,9.94422e-01,9.99576e-01
1.304417533e+00,6.84539e-01,9.99999e-01,6.88919e-01,9.94532e-01,9.99103e-01
1.310939621e+00,6.20120e-01,9.99999e-01,6.24610e-01,9.94640e-01,9.98160e-01
1.317494319e+00,6.25455e-01,9.99999e-01,6.30903e-01,9.94745e-01,9.96601e-01
1.324081790e+00,5.03719e-01,9.99999e-01,5.09149e-01,9.94849e-01,9.94456e-01
1.330702199e+00,1.27561e-01,9.99999e-01,1.29443e-01,9.94950e-01,9.90461e-01
1.337355710e+00,1.74594e-03,9.99999e-01,1.78731e-03,9.95050e-01,9.81711e-01
1.344042489e+00,3.99890e-07,9.99999e-01,4.24812e-07,9.95147e-01,9.45921e-01
1.350762701e+00,7.76678e-14,9.99999e-01,9.44011e-14,9.95243e-01,8.26674e-01
1.357516515e+00,1.76031e-20,9.99999e-01,3.09189e-20,9.95337e-01,5.71997e-01
1.364304097e+00,5.16226e-13,9.99999e-01,1.38043e-12,9.95429e-01,3.75677e-01
1.371125618e+00,2.04472e-08,9.99999e-01,5.16949e-08,9.95519e-01,3.97315e-01
1.377981246e+00,7.38557e-08,9.99999e-01,1.63649e-07,9.95607e-01,4.53295e-01
1.384871152e+00,5.09897e-11,9.99999e-01,1.07040e-10,9.95694e-01,4.78419e-01
1.391795508e+00,5.29484e-13,9.99999e-01,1.07374e-12,9.95778e-01,4.95209e-01
1.398754485e+00,2.95232e-10,9.99999e-01,5.29761e-10,9.95862e-01,5.59607e-01
1.405748258e+00,3.93050e-10,9.99999e-01,5.54114e-10,9.95943e-01,7.12219e-01
1.412776999e+00,6.47572e-10,9.99999e-01,7.59120e-10,9.96023e-01,8.56461e-01
1.419840884e+00,1.29828e-09,9.99999e-01,1.39499e-09,9.96101e-01,9.34316e-01
1.426940089e+00,6.90252e-07,9.99998e-01,7.29602e-07,9.96178e-01,9.49694e-01
1.434074789e+00,6.88529e-06,9.99999e-01,7.34520e-06,9.96254e-01,9.40910e-01
1.441245163e+00,5.73378e-05,9.99999e-01,6.14738e-05,9.96327e-01,9.36156e-01
1.448451389e+00,1.26159e-03,9.99998e-01,1.34144e-03,9.96400e-01,9.43872e-01
1.455693646e+00,1.05085e-02,9.99999e-01,1.10305e-02,9.96471e-01,9.56047e-01
1.462972114e+00,1.52426e-02,9.99999e-01,1.59654e-02,9.96540e-01,9.58038e-01
1.470286975e+00,8.24757e-03,9.99999e-01,8.63179e-03,9.96609e-01,9.58738e-01
