#,Wave/freq,Total,N2,H2O,Rayleigh,CIA
4.000000000e-01,1.40618e-01,9.99999e-01,9.99778e-01,1.40649e-01,9.99999e-01
4.020000000e-01,1.46191e-01,9.99999e-01,9.99862e-01,1.46211e-01,9.99999e-01
4.040100000e-01,1.51862e-01,9.99999e-01,9.99941e-01,1.51871e-01,9.99999e-01
4.060300500e-01,1.57629e-01,9.99999e-01,9.99986e-01,1.57631e-01,9.99999e-01
4.080602003e-01,1.63489e-01,9.99999e-01,9.99995e-01,1.63490e-01,9.99999e-01
4.101005013e-01,1.69444e-01,9.99999e-01,9.99999e-01,1.69444e-01,9.99999e-01
4.121510038e-01,1.75490e-01,9.99999e-01,9.99991e-01,1.75491e-01,9.99999e-01
4.142117588e-01,1.81617e-01,9.99999e-01,9.99938e-01,1.81628e-01,9.99999e-01
4.162828176e-01,1.87800e-01,9.99999e-01,9.99725e-01,1.87852e-01,9.99999e-01
4.183642317e-01,1.94128e-01,9.99999e-01,9.99836e-01,1.94160e-01,9.99999e-01
4.204560528e-01,2.00529e-01,9.99999e-01,9.99899e-01,2.00549e-01,9.99999e-01
4.225583331e-01,2.07008e-01,9.99999e-01,9.99962e-01,2.07016e-01,9.99999e-01
4.246711247e-01,2.13551e-01,9.99999e-01,9.99969e-01,2.13557e-01,9.99999e-01
4.267944804e-01,2.20160e-01,9.99999e-01,9.99955e-01,2.20170e-01,9.99999e-01
4.289284528e-01,2.26843e-01,9.99999e-01,9.99965e-01,2.26850e-01,9.99999e-01
4.310730950e-01,2.33593e-01,9.99999e-01,9.99985e-01,2.33596e-01,9.99999e-01
4.332284605e-01,2.40402e-01,9.99999e-01,9.99995e-01,2.40403e-01,9.99999e-01
4.353946028e-01,2.47267e-01,9.99999e-01,9.99997e-01,2.47268e-01,9.99999e-01
4.375715758e-01,2.54180e-01,9.99999e-01,9.99972e-01,2.54187e-01,9.99999e-01
4.397594337e-01,2.61095e-01,9.99999e-01,9.99757e-01,2.61158e-01,9.99999e-01
4.419582309e-01,2.67846e-01,9.99999e-01,9.98766e-01,2.68177e-01,9.99999e-01
4.441680220e-01,2.74979e-01,9.99999e-01,9.99050e-01,2.75240e-01,9.99999e-01
4.463888621e-01,2.82064e-01,9.99999e-01,9.99007e-01,2.82344e-01,9.99999e-01
4.486208064e-01,2.89308e-01,9.99999e-01,9.99385e-01,2.89486e-01,9.99999e-01
4.508639105e-01,2.96576e-01,9.99999e-01,9.99712e-01,2.96661e-01,9.99999e-01
4.531182300e-01,3.03834e-01,9.99999e-01,9.99886e-01,3.03868e-01,9.99999e-01
4.553838212e-01,3.11079e-01,9.99999e-01,9.99922e-01,3.11103e-01,9.99999e-01
4.576607403e-01,3.18350e-01,9.99999e-01,9.99964e-01,3.18361e-01,9.99999e-01
4.599490440e-01,3.25632e-01,9.99999e-01,9.99974e-01,3.25641e-01,9.99999e-01
4.622487892e-01,3.32936e-01,9.99999e-01,9.99995e-01,3.32938e-01,9.99999e-01
4.645600332e-01,3.40244e-01,9.99999e-01,9.99982e-01,3.40250e-01,9.99999e-01
4.668828333e-01,3.47471e-01,9.99999e-01,9.99706e-01,3.47573e-01,9.99999e-01
4.692172475e-01,3.54683e-01,9.99999e-01,9.99377e-01,3.54904e-01,9.99999e-01
4.715633337e-01,3.62094e-01,9.99999e-01,9.99592e-01,3.62241e-01,9.99999e-01
4.739211504e-01,3.69437e-01,9.99999e-01,9.99611e-01,3.69580e-01,9.99999e-01
4.762907561e-01,3.76843e-01,9.99999e-01,9.99798e-01,3.76918e-01,9.99999e-01
4.786722099e-01,3.84222e-01,9.99999e-01,9.99917e-01,3.84253e-01,9.99999e-01
4.810655710e-01,3.91572e-01,9.99999e-01,9.99974e-01,3.91582e-01,9.99999e-01
4.834708988e-01,3.98805e-01,9.99999e-01,9.99757e-01,3.98901e-01,9.99999e-01
4.858882533e-01,4.06030e-01,9.99999e-01,9.99559e-01,4.06208e-01,9.99999e-01
4.883176946e-01,4.13349e-01,9.99999e-01,9.99630e-01,4.13502e-01,9.99999e-01
4.907592831e-01,4.20638e-01,9.99999e-01,9.99666e-01,4.20778e-01,9.99999e-01
4.932130795e-01,4.27933e-01,9.99999e-01,9.99763e-01,4.28034e-01,9.99999e-01
4.956791449e-01,4.35215e-01,9.99999e-01,9.99874e-01,4.35269e-01,9.99999e-01
4.981575406e-01,4.42202e-01,9.99999e-01,9.99372e-01,4.42480e-01,9.99999e-01
5.006483283e-01,4.48925e-01,9.99999e-01,9.98368e-01,4.49664e-01,9.99988e-01
5.031515699e-01,4.53036e-01,9.99999e-01,9.91803e-01,4.56819e-01,9.99913e-01
5.056673278e-01,4.61890e-01,9.99999e-01,9.95671e-01,4.63943e-01,9.99900e-01
5.081956644e-01,4.68437e-01,9.99999e-01,9.94543e-01,4.71035e-01,9.99939e-01
5.107366428e-01,4.76325e-01,9.99999e-01,9.96315e-01,4.78091e-01,9.99989e-01
5.132903260e-01,4.84090e-01,9.99999e-01,9.97895e-01,4.85111e-01,9.99998e-01
5.158567776e-01,4.91656e-01,9.99999e-01,9.99111e-01,4.92093e-01,9.99999e-01
5.184360615e-01,4.98856e-01,9.99999e-01,9.99643e-01,4.99033e-01,9.99999e-01
5.210282418e-01,5.05865e-01,9.99999e-01,9.99866e-01,5.05932e-01,9.99999e-01
5.236333830e-01,5.12511e-01,9.99999e-01,9.99463e-01,5.12787e-01,9.99995e-01
5.262515499e-01,5.19420e-01,9.99999e-01,9.99664e-01,5.19597e-01,9.99994e-01
5.288828077e-01,5.26196e-01,9.99999e-01,9.99691e-01,5.26360e-01,9.99996e-01
5.315272217e-01,5.32931e-01,9.99999e-01,9.99730e-01,5.33075e-01,9.99998e-01
5.341848578e-01,5.39645e-01,9.99999e-01,9.99822e-01,5.39740e-01,9.99999e-01
5.368557821e-01,5.46012e-01,9.99999e-01,9.99373e-01,5.46355e-01,9.99998e-01
5.395400610e-01,5.51653e-01,9.99999e-01,9.97733e-01,5.52918e-01,9.99978e-01
5.422377613e-01,5.57774e-01,9.99999e-01,9.97096e-01,5.59427e-01,9.99946e-01
5.449489501e-01,5.64317e-01,9.99999e-01,9.97287e-01,5.65882e-01,9.99945e-01
5.476736949e-01,5.70900e-01,9.99999e-01,9.97610e-01,5.72283e-01,9.99972e-01
5.504120634e-01,5.77619e-01,9.99999e-01,9.98264e-01,5.78626e-01,9.99992e-01
5.531641237e-01,5.84402e-01,9.99999e-01,9.99127e-01,5.84913e-01,9.99998e-01
5.559299443e-01,5.90894e-01,9.99999e-01,9.99578e-01,5.91142e-01,9.99999e-01
5.587095940e-01,5.97154e-01,9.99999e-01,9.99734e-01,5.97313e-01,9.99999e-01
5.615031420e-01,6.03245e-01,9.99999e-01,9.99704e-01,6.03423e-01,9.99999e-01
5.643106577e-01,6.09267e-01,9.99999e-01,9.99662e-01,6.09474e-01,9.99996e-01
5.671322110e-01,6.12919e-01,9.99999e-01,9.95899e-01,6.15465e-01,9.99963e-01
5.699678720e-01,6.18660e-01,9.99999e-01,9.95709e-01,6.21394e-01,9.99889e-01
5.728177114e-01,6.24380e-01,9.99999e-01,9.95497e-01,6.27261e-01,9.99907e-01
5.756818000e-01,6.30421e-01,9.99999e-01,9.95873e-01,6.33066e-01,9.99946e-01
5.785602090e-01,6.36505e-01,9.99999e-01,9.96407e-01,6.38809e-01,9.99984e-01
5.814530100e-01,6.42156e-01,9.99999e-01,9.96387e-01,6.44489e-01,9.99991e-01
5.843602750e-01,6.47280e-01,9.99999e-01,9.95676e-01,6.50106e-01,9.99975e-01
5.872820764e-01,6.31608e-01,9.99999e-01,9.63569e-01,6.55659e-01,9.99738e-01
5.902184868e-01,6.31621e-01,9.99999e-01,9.56017e-01,6.61149e-01,9.99289e-01
5.931695792e-01,6.45324e-01,9.99999e-01,9.68781e-01,6.66574e-01,9.99316e-01
5.961354271e-01,6.48696e-01,9.99999e-01,9.65792e-01,6.71936e-01,9.99606e-01
5.991161043e-01,6.60169e-01,9.99999e-01,9.74920e-01,6.77234e-01,9.99878e-01
6.021116848e-01,6.72702e-01,9.99999e-01,9.85703e-01,6.82468e-01,9.99986e-01
6.051222432e-01,6.82647e-01,9.99999e-01,9.92743e-01,6.87637e-01,9.99998e-01
6.081478544e-01,6.90569e-01,9.99999e-01,9.96862e-01,6.92742e-01,9.99999e-01
6.111885937e-01,6.96859e-01,9.99999e-01,9.98673e-01,6.97784e-01,9.99999e-01
6.142445367e-01,7.02345e-01,9.99999e-01,9.99406e-01,7.02761e-01,9.99999e-01
6.173157594e-01,7.07443e-01,9.99999e-01,9.99672e-01,7.07675e-01,9.99999e-01
6.204023382e-01,7.12326e-01,9.99999e-01,9.99721e-01,7.12525e-01,9.99999e-01
6.235043498e-01,7.16423e-01,9.99999e-01,9.98765e-01,7.17311e-01,9.99996e-01
6.266218716e-01,7.17336e-01,9.99999e-01,9.93538e-01,7.22034e-01,9.99954e-01
6.297549810e-01,7.24903e-01,9.99999e-01,9.97625e-01,7.26694e-01,9.99908e-01
6.329037559e-01,7.27814e-01,9.99999e-01,9.95318e-01,7.31291e-01,9.99926e-01
6.360682746e-01,7.32852e-01,9.99999e-01,9.96001e-01,7.35825e-01,9.99956e-01
6.392486160e-01,7.36454e-01,9.99999e-01,9.94827e-01,7.40297e-01,9.99980e-01
6.424448591e-01,7.39508e-01,9.99999e-01,9.93051e-01,7.44707e-01,9.99965e-01
6.456570834e-01,7.25105e-01,9.99999e-01,9.68212e-01,7.49056e-01,9.99804e-01
6.488853688e-01,7.35505e-01,9.99999e-01,9.76807e-01,7.53343e-01,9.99501e-01
6.521297956e-01,7.39390e-01,9.99999e-01,9.76403e-01,7.57570e-01,9.99588e-01
6.553904446e-01,7.43483e-01,9.99999e-01,9.76336e-01,7.61736e-01,9.99693e-01
6.586673968e-01,7.50284e-01,9.99999e-01,9.79785e-01,7.65842e-01,9.99897e-01
6.619607338e-01,7.61151e-01,9.99999e-01,9.88672e-01,7.69888e-01,9.99977e-01
6.652705375e-01,7.68593e-01,9.99999e-01,9.93185e-01,7.73875e-01,9.99988e-01
6.685968902e-01,7.75547e-01,9.99999e-01,9.97100e-01,7.77803e-01,9.99997e-01
6.719398746e-01,7.80526e-01,9.99999e-01,9.98531e-01,7.81674e-01,9.99999e-01
6.752995740e-01,7.84860e-01,9.99999e-01,9.99202e-01,7.85486e-01,9.99999e-01
6.786760719e-01,7.88327e-01,9.99999e-01,9.98843e-01,7.89241e-01,9.99997e-01
6.820694522e-01,7.91365e-01,9.99999e-01,9.98023e-01,7.92939e-01,9.99989e-01
6.854797995e-01,7.94533e-01,9.99999e-01,9.97449e-01,7.96582e-01,9.99977e-01
6.889071985e-01,7.95160e-01,9.99999e-01,9.93795e-01,8.00168e-01,9.99944e-01
6.923517345e-01,7.26631e-01,9.99999e-01,9.04542e-01,8.03699e-01,9.99517e-01
6.958134932e-01,7.65920e-01,9.99999e-01,9.49900e-01,8.07176e-01,9.98932e-01
6.992925606e-01,7.70479e-01,9.99999e-01,9.51421e-01,8.10599e-01,9.99038e-01
7.027890234e-01,7.65079e-01,9.99999e-01,9.40627e-01,8.13968e-01,9.99265e-01
7.063029686e-01,7.75884e-01,9.99999e-01,9.49691e-01,8.17284e-01,9.99634e-01
7.098344834e-01,7.80699e-01,9.99999e-01,9.51641e-01,8.20547e-01,9.99783e-01
7.133836558e-01,7.70823e-01,9.99999e-01,9.36139e-01,8.23759e-01,9.99570e-01
7.169505741e-01,4.99424e-01,9.99999e-01,6.06002e-01,8.26920e-01,9.96623e-01
7.205353270e-01,6.43925e-01,9.99999e-01,7.80427e-01,8.30030e-01,9.94051e-01
7.241380036e-01,6.01916e-01,9.99999e-01,7.26241e-01,8.33090e-01,9.94861e-01
7.277586936e-01,6.24234e-01,9.99999e-01,7.49751e-01,8.36100e-01,9.95797e-01
7.313974871e-01,6.14627e-01,9.99999e-01,7.33963e-01,8.39062e-01,9.98029e-01
7.350544745e-01,7.09427e-01,9.99999e-01,8.43152e-01,8.41975e-01,9.99314e-01
7.387297469e-01,7.44286e-01,9.99999e-01,8.81254e-01,8.44841e-01,9.99685e-01
7.424233956e-01,7.96659e-01,9.99999e-01,9.39885e-01,8.47659e-01,9.99944e-01
7.461355126e-01,8.19005e-01,9.99999e-01,9.63055e-01,8.50431e-01,9.99990e-01
7.498661902e-01,8.38351e-01,9.99999e-01,9.82649e-01,8.53157e-01,9.99995e-01
7.536155211e-01,8.48504e-01,9.99999e-01,9.91434e-01,8.55837e-01,9.99997e-01
7.573835987e-01,8.54681e-01,9.99999e-01,9.95583e-01,8.58473e-01,9.99998e-01
7.611705167e-01,8.58699e-01,9.99999e-01,9.97253e-01,8.61064e-01,9.99999e-01
7.649763693e-01,8.62124e-01,9.99999e-01,9.98276e-01,8.63612e-01,9.99999e-01
7.688012511e-01,8.65077e-01,9.99999e-01,9.98798e-01,8.66117e-01,9.99999e-01
7.726452574e-01,8.67720e-01,9.99999e-01,9.99010e-01,8.68580e-01,9.99998e-01
7.765084837e-01,8.69769e-01,9.99999e-01,9.98588e-01,8.71000e-01,9.99997e-01
7.803910261e-01,8.68052e-01,9.99999e-01,9.93905e-01,8.73380e-01,9.99993e-01
7.842929812e-01,8.57211e-01,9.99999e-01,9.78903e-01,8.75718e-01,9.99960e-01
7.882144461e-01,8.40183e-01,9.99999e-01,9.57195e-01,8.78017e-01,9.99700e-01
7.921555184e-01,8.59048e-01,9.99999e-01,9.76392e-01,8.80276e-01,9.99478e-01
7.961162960e-01,8.45385e-01,9.99999e-01,9.58421e-01,8.82496e-01,9.99504e-01
8.000968774e-01,8.41882e-01,9.99999e-01,9.52127e-01,8.84678e-01,9.99472e-01
8.040973618e-01,8.44031e-01,9.99999e-01,9.52131e-01,8.86821e-01,9.99597e-01
8.081178486e-01,7.96147e-01,9.99999e-01,8.95990e-01,8.88928e-01,9.99592e-01
8.121584379e-01,5.70161e-01,9.99999e-01,6.40901e-01,8.90998e-01,9.98457e-01
8.162192301e-01,5.27666e-01,9.99999e-01,5.94309e-01,8.93031e-01,9.94211e-01
8.203003262e-01,6.93679e-01,9.99999e-01,7.80320e-01,8.95029e-01,9.93225e-01
8.244018279e-01,6.41277e-01,9.99999e-01,7.18797e-01,8.96992e-01,9.94605e-01
8.285238370e-01,6.51061e-01,9.99999e-01,7.27353e-01,8.98920e-01,9.95760e-01
8.326664562e-01,6.53651e-01,9.99999e-01,7.26898e-01,9.00814e-01,9.98244e-01
8.368297885e-01,7.15380e-01,9.99999e-01,7.92829e-01,9.02674e-01,9.99598e-01
8.410139374e-01,7.87198e-01,9.99999e-01,8.70514e-01,9.04502e-01,9.99764e-01
8.452190071e-01,8.46387e-01,9.99999e-01,9.34026e-01,9.06297e-01,9.99859e-01
8.494451021e-01,8.72556e-01,9.99999e-01,9.61008e-01,9.08060e-01,9.99887e-01
8.536923276e-01,8.88626e-01,9.99999e-01,9.76802e-01,9.09791e-01,9.99931e-01
8.579607893e-01,8.98373e-01,9.99999e-01,9.85622e-01,9.11492e-01,9.99983e-01
8.622505932e-01,9.04809e-01,9.99999e-01,9.90855e-01,9.13162e-01,9.99996e-01
8.665618462e-01,9.09607e-01,9.99999e-01,9.94322e-01,9.14802e-01,9.99997e-01
8.708946554e-01,9.10446e-01,9.99999e-01,9.93492e-01,9.16412e-01,9.99995e-01
8.752491287e-01,9.10005e-01,9.99999e-01,9.91305e-01,9.17994e-01,9.99990e-01
8.796253743e-01,9.08449e-01,9.99999e-01,9.87957e-01,9.19547e-01,9.99972e-01
8.840235012e-01,9.08348e-01,9.99999e-01,9.86268e-01,9.21071e-01,9.99915e-01
8.884436187e-01,8.77307e-01,9.99999e-01,9.51166e-01,9.22568e-01,9.99760e-01
8.928858368e-01,5.59039e-01,9.99999e-01,6.05829e-01,9.24038e-01,9.98622e-01
8.973502660e-01,3.85482e-01,9.99999e-01,4.19472e-01,9.25481e-01,9.92963e-01
9.018370173e-01,5.89288e-01,9.99999e-01,6.42861e-01,9.26898e-01,9.88958e-01
9.063462024e-01,6.17410e-01,9.99999e-01,6.71623e-01,9.28289e-01,9.90293e-01
9.108779334e-01,4.96759e-01,9.99999e-01,5.39791e-01,9.29654e-01,9.89916e-01
9.154323231e-01,4.53990e-01,9.99999e-01,4.91742e-01,9.30995e-01,9.91657e-01
9.200094847e-01,5.36323e-01,9.99999e-01,5.77965e-01,9.32310e-01,9.95322e-01
9.246095321e-01,4.18321e-01,9.99999e-01,4.50499e-01,9.33602e-01,9.94612e-01
9.292325798e-01,1.96273e-02,9.99999e-01,2.15494e-02,9.34870e-01,9.74254e-01
9.338787427e-01,2.67466e-03,9.99999e-01,3.13968e-03,9.36114e-01,9.10026e-01
9.385481364e-01,7.99160e-02,9.99999e-01,9.45637e-02,9.37336e-01,9.01599e-01
9.432408771e-01,3.95762e-02,9.99999e-01,4.61098e-02,9.38535e-01,9.14511e-01
9.479570815e-01,8.93216e-03,9.99999e-01,1.02223e-02,9.39711e-01,9.29851e-01
9.526968669e-01,2.45895e-02,9.99999e-01,2.73204e-02,9.40866e-01,9.56608e-01
9.574603512e-01,2.98235e-02,9.99999e-01,3.23812e-02,9.42000e-01,9.77718e-01
9.622476530e-01,5.23995e-02,9.99999e-01,5.64327e-02,9.43112e-01,9.84539e-01
9.670588912e-01,1.69686e-01,9.99999e-01,1.81638e-01,9.44204e-01,9.89400e-01
9.718941857e-01,2.90012e-01,9.99999e-01,3.09217e-01,9.45275e-01,9.92186e-01
9.767536566e-01,3.53529e-01,9.99999e-01,3.75826e-01,9.46327e-01,9.94023e-01
9.816374249e-01,4.51213e-01,9.99999e-01,4.77274e-01,9.47358e-01,9.97927e-01
9.865456120e-01,5.93694e-01,9.99999e-01,6.26285e-01,9.48371e-01,9.99567e-01
9.914783401e-01,7.08808e-01,9.99999e-01,7.46702e-01,9.49364e-01,9.99879e-01
9.964357318e-01,8.10369e-01,9.99999e-01,8.52774e-01,9.50339e-01,9.99929e-01
1.001417910e+00,8.64386e-01,9.99999e-01,9.08736e-01,9.51296e-01,9.99892e-01
1.006425000e+00,9.01402e-01,9.99999e-01,9.46761e-01,9.52234e-01,9.99847e-01
1.011457125e+00,9.21257e-01,9.99999e-01,9.66670e-01,9.53155e-01,9.99858e-01
1.016514411e+00,9.32235e-01,9.99999e-01,9.77222e-01,9.54059e-01,9.99899e-01
1.021596983e+00,9.37472e-01,9.99999e-01,9.81797e-01,9.54946e-01,9.99901e-01
1.026704968e+00,9.42157e-01,9.99999e-01,9.85770e-01,9.55816e-01,9.99938e-01
1.031838492e+00,9.46753e-01,9.99999e-01,9.89652e-01,9.56669e-01,9.99981e-01
1.036997685e+00,9.51601e-01,9.99999e-01,9.93834e-01,9.57507e-01,9.99996e-01
1.042182673e+00,9.51271e-01,9.99999e-01,9.92636e-01,9.58328e-01,9.99998e-01
1.047393587e+00,9.49788e-01,9.99999e-01,9.90256e-01,9.59134e-01,9.99997e-01
1.052630555e+00,9.47102e-01,9.99999e-01,9.86644e-01,9.59925e-01,9.99995e-01
1.057893707e+00,9.39359e-01,9.99999e-01,9.77792e-01,9.60701e-01,9.99991e-01
1.063183176e+00,9.26623e-01,9.99999e-01,9.63782e-01,9.61462e-01,9.99980e-01
1.068499092e+00,9.04651e-01,9.99999e-01,9.40220e-01,9.62209e-01,9.99957e-01
1.073841587e+00,8.96068e-01,9.99999e-01,9.30637e-01,9.62941e-01,9.99908e-01
1.079210795e+00,8.78566e-01,9.99999e-01,9.11921e-01,9.63660e-01,9.99753e-01
1.084606849e+00,8.38604e-01,9.99999e-01,8.70108e-01,9.64364e-01,9.99406e-01
1.090029883e+00,7.90124e-01,9.99999e-01,8.19741e-01,9.65056e-01,9.98770e-01
1.095480033e+00,5.62549e-01,9.99999e-01,5.83807e-01,9.65734e-01,9.97777e-01
1.100957433e+00,2.60304e-01,9.99999e-01,2.70459e-01,9.66399e-01,9.95912e-01
1.106462220e+00,4.96640e-02,9.99999e-01,5.17141e-02,9.67052e-01,9.93076e-01
1.111994531e+00,2.35687e-03,9.99999e-01,2.48090e-03,9.67692e-01,9.81725e-01
1.117554504e+00,1.39038e-04,9.99999e-01,1.53473e-04,9.68320e-01,9.35579e-01
1.123142276e+00,2.57484e-03,9.99999e-01,3.11196e-03,9.68936e-01,8.53925e-01
1.128757988e+00,8.99262e-03,9.99999e-01,1.11341e-02,9.69540e-01,8.33035e-01
1.134401778e+00,6.04298e-03,9.99999e-01,7.27578e-03,9.70133e-01,8.56130e-01
1.140073787e+00,4.51244e-02,9.99999e-01,5.26284e-02,9.70714e-01,8.83283e-01
1.145774156e+00,5.74790e-03,9.99999e-01,6.62979e-03,9.71284e-01,8.92611e-01
1.151503026e+00,2.73259e-03,9.99999e-01,2.99545e-03,9.71843e-01,9.38674e-01
1.157260541e+00,3.37817e-03,9.99999e-01,3.54045e-03,9.72392e-01,9.81255e-01
1.163046844e+00,1.45405e-02,9.99999e-01,1.50254e-02,9.72929e-01,9.94651e-01
1.168862078e+00,4.45134e-02,9.99999e-01,4.58535e-02,9.73457e-01,9.97240e-01
1.174706389e+00,1.38544e-01,9.99999e-01,1.42768e-01,9.73974e-01,9.96344e-01
1.180579921e+00,2.89167e-01,9.99999e-01,2.98387e-01,9.74482e-01,9.94477e-01
1.186482820e+00,4.79600e-01,9.99999e-01,4.94711e-01,9.74979e-01,9.94331e-01
1.192415234e+00,6.41012e-01,9.99999e-01,6.59935e-01,9.75468e-01,9.95752e-01
1.198377311e+00,6.84980e-01,9.99999e-01,7.04689e-01,9.75946e-01,9.95987e-01
1.204369197e+00,7.01488e-01,9.99999e-01,7.21050e-01,9.76416e-01,9.96368e-01
1.210391043e+00,7.11260e-01,9.99999e-01,7.29708e-01,9.76876e-01,9.97789e-01
1.216442998e+00,7.46762e-01,9.99999e-01,7.65121e-01,9.77328e-01,9.98645e-01
1.222525213e+00,7.91881e-01,9.99999e-01,8.10565e-01,9.77770e-01,9.99158e-01
1.228637839e+00,8.44831e-01,9.99999e-01,8.63992e-01,9.78205e-01,9.99608e-01
1.234781029e+00,8.77975e-01,9.99999e-01,8.97246e-01,9.78630e-01,9.99887e-01
1.240954934e+00,9.14064e-01,9.99999e-01,9.33654e-01,9.79048e-01,9.99968e-01
1.247159708e+00,9.28422e-01,9.99999e-01,9.47912e-01,9.79458e-01,9.99979e-01
1.253395507e+00,9.34345e-01,9.99999e-01,9.53574e-01,9.79859e-01,9.99973e-01
1.259662485e+00,9.36871e-01,9.99999e-01,9.55783e-01,9.80253e-01,9.99957e-01
1.265960797e+00,9.12409e-01,9.99999e-01,9.30487e-01,9.80639e-01,9.99929e-01
1.272290601e+00,8.75975e-01,9.99999e-01,8.93034e-01,9.81018e-01,9.99876e-01
1.278652054e+00,7.85329e-01,9.99999e-01,8.00395e-01,9.81390e-01,9.99781e-01
1.285045314e+00,6.58645e-01,9.99999e-01,6.71159e-01,9.81754e-01,9.99591e-01
1.291470541e+00,4.91879e-01,9.99999e-01,5.01197e-01,9.82111e-01,9.99284e-01
1.297927893e+00,3.74093e-01,9.99999e-01,3.81280e-01,9.82461e-01,9.98664e-01
1.304417533e+00,3.20149e-01,9.99999e-01,3.26673e-01,9.82805e-01,9.97172e-01
1.310939621e+00,2.39779e-01,9.99999e-01,2.45312e-01,9.83141e-01,9.94204e-01
1.317494319e+00,2.47146e-01,9.99999e-01,2.54016e-01,9.83472e-01,9.89306e-01
1.324081790e+00,1.35968e-01,9.99999e-01,1.40655e-01,9.83795e-01,9.82598e-01
1.330702199e+00,1.49690e-02,9.99999e-01,1.56781e-02,9.84113e-01,9.70184e-01
1.337355710e+00,9.23063e-08,9.99999e-01,9.93950e-08,9.84424e-01,9.43373e-01
1.344042489e+00,2.55482e-11,9.99999e-01,3.09240e-11,9.84729e-01,8.38970e-01
1.350762701e+00,3.76519e-39,9.99999e-01,6.97283e-39,9.85029e-01,5.48186e-01
1.357516515e+00,5.85024e-60,9.99999e-01,3.46566e-59,9.85322e-01,1.71320e-01
1.364304097e+00,1.08247e-36,9.99999e-01,2.41834e-35,9.85610e-01,4.54141e-02
1.371125618e+00,6.89398e-22,9.99999e-01,1.29015e-20,9.85892e-01,5.41999e-02
1.377981246e+00,3.60833e-21,9.99999e-01,4.45207e-20,9.86169e-01,8.21850e-02
1.384871152e+00,5.81860e-30,9.99999e-01,6.05294e-29,9.86440e-01,9.74496e-02
1.391795508e+00,6.00300e-37,9.99999e-01,5.59875e-36,9.86706e-01,1.08665e-01
1.398754485e+00,6.63408e-28,9.99999e-01,4.20443e-27,9.86967e-01,1.59871e-01
1.405748258e+00,1.42996e-27,9.99999e-01,4.23037e-27,9.87223e-01,3.42396e-01
1.412776999e+00,1.53064e-26,9.99998e-01,2.52852e-26,9.87474e-01,6.13026e-01
1.419840884e+00,3.00603e-26,9.99997e-01,3.77175e-26,9.87720e-01,8.06893e-01
1.426940089e+00,5.86097e-17,9.99997e-01,6.98270e-17,9.87961e-01,8.49583e-01
1.434074789e+00,3.87286e-15,9.99997e-01,4.75037e-15,9.88197e-01,8.25013e-01
1.441245163e+00,1.91264e-12,9.99998e-01,2.38326e-12,9.88429e-01,8.11922e-01
1.448451389e+00,3.26238e-08,9.99997e-01,3.96020e-08,9.88656e-01,8.33242e-01
1.455693646e+00,8.14916e-06,9.99998e-01,9.49767e-06,9.88879e-01,8.67664e-01
1.462972114e+00,1.03133e-05,9.99998e-01,1.19386e-05,9.89097e-01,8.73382e-01
1.470286975e+00,2.89176e-06,9.99998e-01,3.33905e-06,9.89311e-01,8.75398e-01
