#,Wave/freq,Total,N2,H2O,Rayleigh,CIA
4.000000000e-01,6.18113e-01,9.99999e-01,9.99945e-01,6.18146e-01,9.99999e-01
4.020000000e-01,6.24033e-01,9.99999e-01,9.99965e-01,6.24054e-01,9.99999e-01
4.040100000e-01,6.29884e-01,9.99999e-01,9.99985e-01,6.29893e-01,9.99999e-01
4.060300500e-01,6.35668e-01,9.99999e-01,9.99996e-01,6.35670e-01,9.99999e-01
4.080602003e-01,6.41384e-01,9.99999e-01,9.99998e-01,6.41385e-01,9.99999e-01
4.101005013e-01,6.47036e-01,9.99999e-01,9.99999e-01,6.47036e-01,9.99999e-01
4.121510038e-01,6.52623e-01,9.99999e-01,9.99997e-01,6.52624e-01,9.99999e-01
4.142117588e-01,6.58139e-01,9.99999e-01,9.99984e-01,6.58148e-01,9.99999e-01
4.162828176e-01,6.63565e-01,9.99999e-01,9.99932e-01,6.63609e-01,9.99999e-01
4.183642317e-01,6.68979e-01,9.99999e-01,9.99959e-01,6.69006e-01,9.99999e-01
4.204560528e-01,6.74322e-01,9.99999e-01,9.99974e-01,6.74339e-01,9.99999e-01
4.225583331e-01,6.79601e-01,9.99999e-01,9.99990e-01,6.79608e-01,9.99999e-01
4.246711247e-01,6.84807e-01,9.99999e-01,9.99992e-01,6.84812e-01,9.99999e-01
4.267944804e-01,6.89946e-01,9.99999e-01,9.99988e-01,6.89953e-01,9.99999e-01
4.289284528e-01,6.95024e-01,9.99999e-01,9.99991e-01,6.95029e-01,9.99999e-01
4.310730950e-01,7.00039e-01,9.99999e-01,9.99995e-01,7.00042e-01,9.99999e-01
4.332284605e-01,7.04990e-01,9.99999e-01,9.99998e-01,7.04990e-01,9.99999e-01
4.353946028e-01,7.09875e-01,9.99999e-01,9.99999e-01,7.09875e-01,9.99999e-01
4.375715758e-01,7.14691e-01,9.99999e-01,9.99992e-01,7.14696e-01,9.99999e-01
4.397594337e-01,7.19412e-01,9.99999e-01,9.99940e-01,7.19454e-01,9.99999e-01
4.419582309e-01,7.23932e-01,9.99999e-01,9.99701e-01,7.24148e-01,9.99999e-01
4.441680220e-01,7.28609e-01,9.99999e-01,9.99765e-01,7.28780e-01,9.99999e-01
4.463888621e-01,7.33170e-01,9.99999e-01,9.99756e-01,7.33348e-01,9.99999e-01
4.486208064e-01,7.37743e-01,9.99999e-01,9.99847e-01,7.37854e-01,9.99999e-01
4.508639105e-01,7.42246e-01,9.99999e-01,9.99928e-01,7.42298e-01,9.99999e-01
4.531182300e-01,7.46660e-01,9.99999e-01,9.99971e-01,7.46681e-01,9.99999e-01
4.553838212e-01,7.50987e-01,9.99999e-01,9.99980e-01,7.51002e-01,9.99999e-01
4.576607403e-01,7.55255e-01,9.99999e-01,9.99990e-01,7.55261e-01,9.99999e-01
4.599490440e-01,7.59456e-01,9.99999e-01,9.99993e-01,7.59460e-01,9.99999e-01
4.622487892e-01,7.63598e-01,9.99999e-01,9.99998e-01,7.63599e-01,9.99999e-01
4.645600332e-01,7.67675e-01,9.99999e-01,9.99995e-01,7.67678e-01,9.99999e-01
4.668828333e-01,7.71642e-01,9.99999e-01,9.99928e-01,7.71698e-01,9.99999e-01
4.692172475e-01,7.75540e-01,9.99999e-01,9.99846e-01,7.75658e-01,9.99999e-01
4.715633337e-01,7.79482e-01,9.99999e-01,9.99899e-01,7.79560e-01,9.99999e-01
4.739211504e-01,7.83329e-01,9.99999e-01,9.99903e-01,7.83404e-01,9.99999e-01
4.762907561e-01,7.87151e-01,9.99999e-01,9.99949e-01,7.87190e-01,9.99999e-01
4.786722099e-01,7.90904e-01,9.99999e-01,9.99979e-01,7.90920e-01,9.99999e-01
4.810655710e-01,7.94588e-01,9.99999e-01,9.99993e-01,7.94593e-01,9.99999e-01
4.834708988e-01,7.98163e-01,9.99999e-01,9.99941e-01,7.98210e-01,9.99999e-01
4.858882533e-01,8.01684e-01,9.99999e-01,9.99891e-01,8.01771e-01,9.99999e-01
4.883176946e-01,8.05205e-01,9.99999e-01,9.99909e-01,8.05278e-01,9.99999e-01
4.907592831e-01,8.08664e-01,9.99999e-01,9.99917e-01,8.08730e-01,9.99999e-01
4.932130795e-01,8.12081e-01,9.99999e-01,9.99941e-01,8.12128e-01,9.99999e-01
4.956791449e-01,8.15448e-01,9.99999e-01,9.99968e-01,8.15473e-01,9.99999e-01
4.981575406e-01,8.18640e-01,9.99999e-01,9.99846e-01,8.18766e-01,9.99999e-01
5.006483283e-01,8.21678e-01,9.99999e-01,9.99603e-01,8.22006e-01,9.99996e-01
5.031515699e-01,8.23515e-01,9.99999e-01,9.97985e-01,8.25194e-01,9.99978e-01
5.056673278e-01,8.27430e-01,9.99999e-01,9.98934e-01,8.28332e-01,9.99975e-01
5.081956644e-01,8.30290e-01,9.99999e-01,9.98656e-01,8.31419e-01,9.99983e-01
5.107366428e-01,8.33697e-01,9.99999e-01,9.99092e-01,8.34457e-01,9.99996e-01
5.132903260e-01,8.37010e-01,9.99999e-01,9.99480e-01,8.37445e-01,9.99999e-01
5.158567776e-01,8.40200e-01,9.99999e-01,9.99780e-01,8.40385e-01,9.99999e-01
5.184360615e-01,8.43202e-01,9.99999e-01,9.99911e-01,8.43276e-01,9.99999e-01
5.210282418e-01,8.46093e-01,9.99999e-01,9.99966e-01,8.46120e-01,9.99999e-01
5.236333830e-01,8.48805e-01,9.99999e-01,9.99868e-01,8.48918e-01,9.99998e-01
5.262515499e-01,8.51597e-01,9.99999e-01,9.99917e-01,8.51669e-01,9.99998e-01
5.288828077e-01,8.54309e-01,9.99999e-01,9.99924e-01,8.54374e-01,9.99998e-01
5.315272217e-01,8.56977e-01,9.99999e-01,9.99933e-01,8.57034e-01,9.99999e-01
5.341848578e-01,8.59612e-01,9.99999e-01,9.99956e-01,8.59650e-01,9.99999e-01
5.368557821e-01,8.62090e-01,9.99999e-01,9.99846e-01,8.62221e-01,9.99999e-01
5.395400610e-01,8.64270e-01,9.99999e-01,9.99449e-01,8.64750e-01,9.99994e-01
5.422377613e-01,8.66605e-01,9.99999e-01,9.99284e-01,8.67236e-01,9.99986e-01
5.449489501e-01,8.69091e-01,9.99999e-01,9.99336e-01,8.69679e-01,9.99986e-01
5.476736949e-01,8.71562e-01,9.99999e-01,9.99410e-01,8.72081e-01,9.99992e-01
5.504120634e-01,8.74067e-01,9.99999e-01,9.99572e-01,8.74442e-01,9.99997e-01
5.531641237e-01,8.76574e-01,9.99999e-01,9.99784e-01,8.76762e-01,9.99999e-01
5.559299443e-01,8.78952e-01,9.99999e-01,9.99895e-01,8.79043e-01,9.99999e-01
5.587095940e-01,8.81227e-01,9.99999e-01,9.99934e-01,8.81284e-01,9.99999e-01
5.615031420e-01,8.83423e-01,9.99999e-01,9.99927e-01,8.83487e-01,9.99999e-01
5.643106577e-01,8.85579e-01,9.99999e-01,9.99918e-01,8.85651e-01,9.99998e-01
5.671322110e-01,8.86891e-01,9.99999e-01,9.99009e-01,8.87778e-01,9.99990e-01
5.699678720e-01,8.88897e-01,9.99999e-01,9.98935e-01,8.89868e-01,9.99972e-01
5.728177114e-01,8.90917e-01,9.99999e-01,9.98896e-01,8.91921e-01,9.99976e-01
5.756818000e-01,8.93020e-01,9.99999e-01,9.98986e-01,8.93939e-01,9.99985e-01
5.785602090e-01,8.95125e-01,9.99999e-01,9.99115e-01,8.95920e-01,9.99995e-01
5.814530100e-01,8.97069e-01,9.99999e-01,9.99112e-01,8.97867e-01,9.99997e-01
5.843602750e-01,8.98826e-01,9.99999e-01,9.98945e-01,8.99780e-01,9.99993e-01
5.872820764e-01,8.93435e-01,9.99999e-01,9.90942e-01,9.01659e-01,9.99935e-01
5.902184868e-01,8.93400e-01,9.99999e-01,9.88988e-01,9.03505e-01,9.99825e-01
5.931695792e-01,8.98126e-01,9.99999e-01,9.92223e-01,9.05317e-01,9.99831e-01
5.961354271e-01,8.99272e-01,9.99999e-01,9.91467e-01,9.07098e-01,9.99903e-01
5.991161043e-01,9.03156e-01,9.99999e-01,9.93767e-01,9.08846e-01,9.99969e-01
6.021116848e-01,9.07336e-01,9.99999e-01,9.96457e-01,9.10564e-01,9.99995e-01
6.051222432e-01,9.10614e-01,9.99999e-01,9.98205e-01,9.12251e-01,9.99999e-01
6.081478544e-01,9.13200e-01,9.99999e-01,9.99226e-01,9.13907e-01,9.99999e-01
6.111885937e-01,9.15234e-01,9.99999e-01,9.99671e-01,9.15534e-01,9.99999e-01
6.142445367e-01,9.16997e-01,9.99999e-01,9.99853e-01,9.17131e-01,9.99999e-01
6.173157594e-01,9.18625e-01,9.99999e-01,9.99918e-01,9.18699e-01,9.99999e-01
6.204023382e-01,9.20177e-01,9.99999e-01,9.99931e-01,9.20239e-01,9.99999e-01
6.235043498e-01,9.21476e-01,9.99999e-01,9.99701e-01,9.21751e-01,9.99998e-01
6.266218716e-01,9.21759e-01,9.99999e-01,9.98411e-01,9.23236e-01,9.99988e-01
6.297549810e-01,9.24134e-01,9.99999e-01,9.99417e-01,9.24694e-01,9.99977e-01
6.329037559e-01,9.25041e-01,9.99999e-01,9.98846e-01,9.26125e-01,9.99981e-01
6.360682746e-01,9.26611e-01,9.99999e-01,9.99019e-01,9.27530e-01,9.99988e-01
6.392486160e-01,9.27724e-01,9.99999e-01,9.98728e-01,9.28909e-01,9.99994e-01
6.424448591e-01,9.28679e-01,9.99999e-01,9.98304e-01,9.30263e-01,9.99992e-01
6.456570834e-01,9.24236e-01,9.99999e-01,9.92146e-01,9.31592e-01,9.99955e-01
6.488853688e-01,9.27395e-01,9.99999e-01,9.94223e-01,9.32897e-01,9.99877e-01
6.521297956e-01,9.28584e-01,9.99999e-01,9.94112e-01,9.34178e-01,9.99896e-01
6.553904446e-01,9.29913e-01,9.99999e-01,9.94172e-01,9.35435e-01,9.99922e-01
6.586673968e-01,9.31943e-01,9.99999e-01,9.94978e-01,9.36669e-01,9.99974e-01
6.619607338e-01,9.35150e-01,9.99999e-01,9.97093e-01,9.37880e-01,9.99994e-01
6.652705375e-01,9.37485e-01,9.99999e-01,9.98315e-01,9.39069e-01,9.99996e-01
6.685968902e-01,9.39500e-01,9.99999e-01,9.99217e-01,9.40236e-01,9.99999e-01
6.719398746e-01,9.41040e-01,9.99999e-01,9.99636e-01,9.41381e-01,9.99999e-01
6.752995740e-01,9.42320e-01,9.99999e-01,9.99803e-01,9.42505e-01,9.99999e-01
6.786760719e-01,9.43341e-01,9.99999e-01,9.99716e-01,9.43608e-01,9.99999e-01
6.820694522e-01,9.44231e-01,9.99999e-01,9.99515e-01,9.44691e-01,9.99996e-01
6.854797995e-01,9.45157e-01,9.99999e-01,9.99375e-01,9.45753e-01,9.99994e-01
6.889071985e-01,9.45359e-01,9.99999e-01,9.98496e-01,9.46795e-01,9.99986e-01
6.923517345e-01,9.24607e-01,9.99999e-01,9.75625e-01,9.47818e-01,9.99881e-01
6.958134932e-01,9.36397e-01,9.99999e-01,9.87168e-01,9.48822e-01,9.99732e-01
6.992925606e-01,9.38073e-01,9.99999e-01,9.87877e-01,9.49807e-01,9.99764e-01
7.027890234e-01,9.36352e-01,9.99999e-01,9.85008e-01,9.50774e-01,9.99819e-01
7.063029686e-01,9.39630e-01,9.99999e-01,9.87381e-01,9.51722e-01,9.99909e-01
7.098344834e-01,9.41066e-01,9.99999e-01,9.87888e-01,9.52653e-01,9.99946e-01
7.133836558e-01,9.38190e-01,9.99999e-01,9.83978e-01,9.53566e-01,9.99894e-01
7.169505741e-01,8.38042e-01,9.99999e-01,8.78754e-01,9.54462e-01,9.99169e-01
7.205353270e-01,8.94973e-01,9.99999e-01,9.38183e-01,9.55341e-01,9.98535e-01
7.241380036e-01,8.80927e-01,9.99999e-01,9.22441e-01,9.56204e-01,9.98735e-01
7.277586936e-01,8.88880e-01,9.99999e-01,9.29731e-01,9.57050e-01,9.98965e-01
7.313974871e-01,8.85730e-01,9.99999e-01,9.25124e-01,9.57880e-01,9.99515e-01
7.350544745e-01,9.18628e-01,9.99999e-01,9.58367e-01,9.58695e-01,9.99831e-01
7.387297469e-01,9.29828e-01,9.99999e-01,9.69156e-01,9.59494e-01,9.99922e-01
7.424233956e-01,9.45643e-01,9.99999e-01,9.84774e-01,9.60278e-01,9.99984e-01
7.461355126e-01,9.52155e-01,9.99999e-01,9.90750e-01,9.61047e-01,9.99996e-01
7.498661902e-01,9.57645e-01,9.99999e-01,9.95679e-01,9.61801e-01,9.99998e-01
7.536155211e-01,9.60502e-01,9.99999e-01,9.97880e-01,9.62541e-01,9.99998e-01
7.573835987e-01,9.62217e-01,9.99999e-01,9.98908e-01,9.63268e-01,9.99999e-01
7.611705167e-01,9.63326e-01,9.99999e-01,9.99321e-01,9.63980e-01,9.99999e-01
7.649763693e-01,9.64269e-01,9.99999e-01,9.99574e-01,9.64679e-01,9.99999e-01
7.688012511e-01,9.65079e-01,9.99999e-01,9.99703e-01,9.65364e-01,9.99999e-01
7.726452574e-01,9.65802e-01,9.99999e-01,9.99756e-01,9.66036e-01,9.99999e-01
7.765084837e-01,9.66363e-01,9.99999e-01,9.99654e-01,9.66696e-01,9.99999e-01
7.803910261e-01,9.65902e-01,9.99999e-01,9.98511e-01,9.67343e-01,9.99998e-01
7.842929812e-01,9.62948e-01,9.99999e-01,9.94812e-01,9.67978e-01,9.99989e-01
7.882144461e-01,9.58179e-01,9.99999e-01,9.89305e-01,9.68600e-01,9.99933e-01
7.921555184e-01,9.63383e-01,9.99999e-01,9.94113e-01,9.69211e-01,9.99872e-01
7.961162960e-01,9.59665e-01,9.99999e-01,9.89659e-01,9.69809e-01,9.99877e-01
8.000968774e-01,9.58661e-01,9.99999e-01,9.88033e-01,9.70397e-01,9.99870e-01
8.040973618e-01,9.59260e-01,9.99999e-01,9.88038e-01,9.70973e-01,9.99896e-01
8.081178486e-01,9.45534e-01,9.99999e-01,9.73327e-01,9.71538e-01,9.99903e-01
8.121584379e-01,8.68450e-01,9.99999e-01,8.93720e-01,9.72092e-01,9.99620e-01
8.162192301e-01,8.49707e-01,9.99999e-01,8.74858e-01,9.72636e-01,9.98575e-01
8.203003262e-01,9.10046e-01,9.99999e-01,9.36698e-01,9.73169e-01,9.98331e-01
8.244018279e-01,8.87231e-01,9.99999e-01,9.12414e-01,9.73692e-01,9.98671e-01
8.285238370e-01,8.98516e-01,9.99999e-01,9.23269e-01,9.74205e-01,9.98956e-01
8.326664562e-01,8.98720e-01,9.99999e-01,9.22437e-01,9.74708e-01,9.99568e-01
8.368297885e-01,9.20267e-01,9.99999e-01,9.43761e-01,9.75201e-01,9.99900e-01
8.410139374e-01,9.42623e-01,9.99999e-01,9.66169e-01,9.75685e-01,9.99941e-01
8.452190071e-01,9.59780e-01,9.99999e-01,9.83253e-01,9.76160e-01,9.99965e-01
8.494451021e-01,9.67089e-01,9.99999e-01,9.90262e-01,9.76625e-01,9.99971e-01
8.536923276e-01,9.71422e-01,9.99999e-01,9.94224e-01,9.77081e-01,9.99982e-01
8.579607893e-01,9.74049e-01,9.99999e-01,9.96443e-01,9.77529e-01,9.99995e-01
8.622505932e-01,9.75755e-01,9.99999e-01,9.97737e-01,9.77968e-01,9.99998e-01
8.665618462e-01,9.77030e-01,9.99999e-01,9.98601e-01,9.78398e-01,9.99999e-01
8.708946554e-01,9.77254e-01,9.99999e-01,9.98400e-01,9.78820e-01,9.99998e-01
8.752491287e-01,9.77137e-01,9.99999e-01,9.97860e-01,9.79234e-01,9.99997e-01
8.796253743e-01,9.76736e-01,9.99999e-01,9.97041e-01,9.79640e-01,9.99992e-01
8.840235012e-01,9.76706e-01,9.99999e-01,9.96619e-01,9.80038e-01,9.99978e-01
8.884436187e-01,9.68431e-01,9.99999e-01,9.87820e-01,9.80429e-01,9.99940e-01
8.928858368e-01,8.61912e-01,9.99999e-01,8.79071e-01,9.80812e-01,9.99661e-01
8.973502660e-01,7.79729e-01,9.99999e-01,7.96058e-01,9.81187e-01,9.98266e-01
9.018370173e-01,8.71070e-01,9.99999e-01,8.89861e-01,9.81555e-01,9.97276e-01
9.063462024e-01,8.84232e-01,9.99999e-01,9.02676e-01,9.81916e-01,9.97607e-01
9.108779334e-01,8.35061e-01,9.99999e-01,8.52251e-01,9.82270e-01,9.97513e-01
9.154323231e-01,8.17281e-01,9.99999e-01,8.33451e-01,9.82617e-01,9.97944e-01
9.200094847e-01,8.51446e-01,9.99999e-01,8.67205e-01,9.82958e-01,9.98848e-01
9.246095321e-01,7.91343e-01,9.99999e-01,8.05857e-01,9.83291e-01,9.98673e-01
9.292325798e-01,2.45382e-01,9.99999e-01,2.50763e-01,9.83619e-01,9.94838e-01
9.338787427e-01,1.61062e-01,9.99999e-01,1.67230e-01,9.83940e-01,9.78837e-01
9.385481364e-01,4.63374e-01,9.99999e-01,4.82917e-01,9.84254e-01,9.74880e-01
9.432408771e-01,3.62695e-01,9.99999e-01,3.76555e-01,9.84563e-01,9.78291e-01
9.479570815e-01,2.51930e-01,9.99999e-01,2.60412e-01,9.84865e-01,9.82296e-01
9.526968669e-01,3.44572e-01,9.99999e-01,3.53593e-01,9.85162e-01,9.89163e-01
9.574603512e-01,3.65091e-01,9.99999e-01,3.72535e-01,9.85453e-01,9.94480e-01
9.622476530e-01,4.34354e-01,9.99999e-01,4.42327e-01,9.85738e-01,9.96180e-01
9.670588912e-01,6.12504e-01,9.99999e-01,6.22816e-01,9.86018e-01,9.97385e-01
9.718941857e-01,7.28026e-01,9.99999e-01,7.39567e-01,9.86292e-01,9.98074e-01
9.767536566e-01,7.66646e-01,9.99999e-01,7.78234e-01,9.86561e-01,9.98528e-01
9.816374249e-01,8.18387e-01,9.99999e-01,8.29735e-01,9.86825e-01,9.99490e-01
9.865456120e-01,8.78103e-01,9.99999e-01,8.89687e-01,9.87083e-01,9.99893e-01
9.914783401e-01,9.18404e-01,9.99999e-01,9.30209e-01,9.87337e-01,9.99970e-01
9.964357318e-01,9.49412e-01,9.99999e-01,9.61362e-01,9.87585e-01,9.99982e-01
1.001417910e+00,9.64740e-01,9.99999e-01,9.76651e-01,9.87829e-01,9.99973e-01
1.006425000e+00,9.74823e-01,9.99999e-01,9.86631e-01,9.88068e-01,9.99962e-01
1.011457125e+00,9.80042e-01,9.99999e-01,9.91675e-01,9.88302e-01,9.99964e-01
1.016514411e+00,9.82918e-01,9.99999e-01,9.94344e-01,9.88532e-01,9.99975e-01
1.021596983e+00,9.84276e-01,9.99999e-01,9.95491e-01,9.88757e-01,9.99974e-01
1.026704968e+00,9.85484e-01,9.99999e-01,9.96483e-01,9.88978e-01,9.99983e-01
1.031838492e+00,9.86660e-01,9.99999e-01,9.97441e-01,9.89195e-01,9.99994e-01
1.036997685e+00,9.87904e-01,9.99999e-01,9.98480e-01,9.89407e-01,9.99998e-01
1.042182673e+00,9.87825e-01,9.99999e-01,9.98191e-01,9.89615e-01,9.99999e-01
1.047393587e+00,9.87444e-01,9.99999e-01,9.97600e-01,9.89819e-01,9.99999e-01
1.052630555e+00,9.86761e-01,9.99999e-01,9.96709e-01,9.90019e-01,9.99998e-01
1.057893707e+00,9.84783e-01,9.99999e-01,9.94515e-01,9.90215e-01,9.99997e-01
1.063183176e+00,9.81477e-01,9.99999e-01,9.90986e-01,9.90408e-01,9.99994e-01
1.068499092e+00,9.75673e-01,9.99999e-01,9.84944e-01,9.90596e-01,9.99989e-01
1.073841587e+00,9.73348e-01,9.99999e-01,9.82426e-01,9.90781e-01,9.99977e-01
1.079210795e+00,9.68605e-01,9.99999e-01,9.77496e-01,9.90962e-01,9.99939e-01
1.084606849e+00,9.57470e-01,9.99999e-01,9.66169e-01,9.91140e-01,9.99853e-01
1.090029883e+00,9.43363e-01,9.99999e-01,9.51915e-01,9.91314e-01,9.99697e-01
1.095480033e+00,8.66426e-01,9.99999e-01,8.74343e-01,9.91485e-01,9.99453e-01
1.100957433e+00,7.06141e-01,9.99999e-01,7.12800e-01,9.91653e-01,9.98994e-01
1.106462220e+00,4.29205e-01,9.99999e-01,4.33485e-01,9.91817e-01,9.98294e-01
1.111994531e+00,1.76044e-01,9.99999e-01,1.78273e-01,9.91978e-01,9.95480e-01
1.117554504e+00,6.43882e-02,9.99999e-01,6.59686e-02,9.92136e-01,9.83778e-01
1.123142276e+00,1.44460e-01,9.99999e-01,1.51339e-01,9.92290e-01,9.61960e-01
1.128757988e+00,2.61374e-01,9.99999e-01,2.75449e-01,9.92442e-01,9.56126e-01
1.134401778e+00,1.17682e-01,9.99999e-01,1.23170e-01,9.92591e-01,9.62569e-01
1.140073787e+00,4.33678e-01,9.99999e-01,4.50371e-01,9.92736e-01,9.69979e-01
1.145774156e+00,1.98302e-01,9.99999e-01,2.05375e-01,9.92879e-01,9.72485e-01
1.151503026e+00,1.70639e-01,9.99999e-01,1.74530e-01,9.93020e-01,9.84577e-01
1.157260541e+00,2.11422e-01,9.99999e-01,2.13870e-01,9.93157e-01,9.95363e-01
1.163046844e+00,3.13899e-01,9.99999e-01,3.16435e-01,9.93292e-01,9.98683e-01
1.168862078e+00,4.38031e-01,9.99999e-01,4.41229e-01,9.93424e-01,9.99321e-01
1.174706389e+00,5.98496e-01,9.99999e-01,6.02921e-01,9.93553e-01,9.99100e-01
1.180579921e+00,7.28153e-01,9.99999e-01,7.33781e-01,9.93680e-01,9.98640e-01
1.186482820e+00,8.32445e-01,9.99999e-01,8.38804e-01,9.93804e-01,9.98604e-01
1.192415234e+00,8.95936e-01,9.99999e-01,9.02353e-01,9.93926e-01,9.98954e-01
1.198377311e+00,9.10763e-01,9.99999e-01,9.17122e-01,9.94046e-01,9.99012e-01
1.204369197e+00,9.15345e-01,9.99999e-01,9.21541e-01,9.94163e-01,9.99106e-01
1.210391043e+00,9.18940e-01,9.99999e-01,9.24730e-01,9.94278e-01,9.99456e-01
1.216442998e+00,9.29999e-01,9.99999e-01,9.35556e-01,9.94391e-01,9.99666e-01
1.222525213e+00,9.44005e-01,9.99999e-01,9.49420e-01,9.94501e-01,9.99792e-01
1.228637839e+00,9.59310e-01,9.99999e-01,9.64601e-01,9.94610e-01,9.99903e-01
1.234781029e+00,9.68416e-01,9.99999e-01,9.73587e-01,9.94716e-01,9.99972e-01
1.240954934e+00,9.78123e-01,9.99999e-01,9.83223e-01,9.94820e-01,9.99991e-01
1.247159708e+00,9.81891e-01,9.99999e-01,9.86906e-01,9.94922e-01,9.99994e-01
1.253395507e+00,9.83448e-01,9.99999e-01,9.88373e-01,9.95022e-01,9.99993e-01
1.259662485e+00,9.84127e-01,9.99999e-01,9.88962e-01,9.95120e-01,9.99989e-01
1.265960797e+00,9.77690e-01,9.99999e-01,9.82405e-01,9.95216e-01,9.99982e-01
1.272290601e+00,9.67950e-01,9.99999e-01,9.72539e-01,9.95310e-01,9.99969e-01
1.278652054e+00,9.41799e-01,9.99999e-01,9.46199e-01,9.95403e-01,9.99945e-01
1.285045314e+00,9.12729e-01,9.99999e-01,9.16952e-01,9.95493e-01,9.99899e-01
1.291470541e+00,8.36410e-01,9.99999e-01,8.40268e-01,9.95582e-01,9.99823e-01
1.297927893e+00,7.93730e-01,9.99999e-01,7.97444e-01,9.95669e-01,9.99671e-01
1.304417533e+00,7.44114e-01,9.99999e-01,7.47805e-01,9.95755e-01,9.99304e-01
1.310939621e+00,7.13394e-01,9.99999e-01,7.17398e-01,9.95838e-01,9.98573e-01
1.317494319e+00,6.92705e-01,9.99999e-01,6.97380e-01,9.95920e-01,9.97362e-01
1.324081790e+00,5.82398e-01,9.99999e-01,5.87262e-01,9.96001e-01,9.95697e-01
1.330702199e+00,1.85271e-01,9.99999e-01,1.87388e-01,9.96080e-01,9.92593e-01
1.337355710e+00,7.85939e-03,9.99999e-01,8.00347e-03,9.96157e-01,9.85785e-01
1.344042489e+00,1.79982e-04,9.99999e-01,1.88623e-04,9.96233e-01,9.57795e-01
1.350762701e+00,3.73096e-11,9.99999e-01,4.34055e-11,9.96307e-01,8.62745e-01
1.357516515e+00,2.44422e-16,9.99999e-01,3.78343e-16,9.96380e-01,6.48379e-01
1.364304097e+00,1.63332e-10,9.99999e-01,3.50266e-10,9.96451e-01,4.67968e-01
1.371125618e+00,5.54677e-07,9.99999e-01,1.13887e-06,9.96521e-01,4.88742e-01
1.377981246e+00,2.05920e-06,9.99999e-01,3.81681e-06,9.96590e-01,5.41354e-01
1.384871152e+00,4.70727e-09,9.99999e-01,8.41882e-09,9.96657e-01,5.61011e-01
1.391795508e+00,1.88918e-10,9.99999e-01,3.27583e-10,9.96723e-01,5.78597e-01
1.398754485e+00,2.18350e-08,9.99999e-01,3.43635e-08,9.96787e-01,6.37459e-01
1.405748258e+00,2.95791e-08,9.99999e-01,3.86074e-08,9.96851e-01,7.68570e-01
1.412776999e+00,3.68875e-08,9.99999e-01,4.17268e-08,9.96913e-01,8.86760e-01
1.419840884e+00,7.99660e-08,9.99999e-01,8.45487e-08,9.96974e-01,9.48668e-01
1.426940089e+00,8.05332e-06,9.99999e-01,8.40720e-06,9.97033e-01,9.60756e-01
1.434074789e+00,6.85315e-05,9.99999e-01,7.20561e-05,9.97092e-01,9.53857e-01
1.441245163e+00,3.93046e-04,9.99999e-01,4.14864e-04,9.97149e-01,9.50117e-01
1.448451389e+00,4.46748e-03,9.99998e-01,4.68528e-03,9.97205e-01,9.56185e-01
1.455693646e+00,2.45051e-02,9.99999e-01,2.54441e-02,9.97260e-01,9.65738e-01
1.462972114e+00,3.57566e-02,9.99999e-01,3.70650e-02,9.97314e-01,9.67297e-01
1.470286975e+00,2.14310e-02,9.99999e-01,2.22014e-02,9.97367e-01,9.67845e-01
