#,Wave/freq,Total,N2,H2O,Rayleigh,CIA
4.000000000e-01,5.19520e-01,9.99999e-01,9.99925e-01,5.19558e-01,9.99999e-01
4.020000000e-01,5.26305e-01,9.99999e-01,9.99954e-01,5.26328e-01,9.99999e-01
4.040100000e-01,5.33033e-01,9.99999e-01,9.99980e-01,5.33044e-01,9.99999e-01
4.060300500e-01,5.39707e-01,9.99999e-01,9.99995e-01,5.39709e-01,9.99999e-01
4.080602003e-01,5.46323e-01,9.99999e-01,9.99998e-01,5.46324e-01,9.99999e-01
4.101005013e-01,5.52887e-01,9.99999e-01,9.99999e-01,5.52887e-01,9.99999e-01
4.121510038e-01,5.59395e-01,9.99999e-01,9.99996e-01,5.59397e-01,9.99999e-01
4.142117588e-01,5.65840e-01,9.99999e-01,9.99978e-01,5.65852e-01,9.99999e-01
4.162828176e-01,5.72200e-01,9.99999e-01,9.99908e-01,5.72253e-01,9.99999e-01
4.183642317e-01,5.78565e-01,9.99999e-01,9.99945e-01,5.78597e-01,9.99999e-01
4.204560528e-01,5.84864e-01,9.99999e-01,9.99966e-01,5.84884e-01,9.99999e-01
4.225583331e-01,5.91106e-01,9.99999e-01,9.99987e-01,5.91113e-01,9.99999e-01
4.246711247e-01,5.97278e-01,9.99999e-01,9.99989e-01,5.97284e-01,9.99999e-01
4.267944804e-01,6.03386e-01,9.99999e-01,9.99985e-01,6.03395e-01,9.99999e-01
4.289284528e-01,6.09439e-01,9.99999e-01,9.99988e-01,6.09446e-01,9.99999e-01
4.310730950e-01,6.15434e-01,9.99999e-01,9.99994e-01,6.15437e-01,9.99999e-01
4.332284605e-01,6.21365e-01,9.99999e-01,9.99998e-01,6.21366e-01,9.99999e-01
4.353946028e-01,6.27233e-01,9.99999e-01,9.99998e-01,6.27234e-01,9.99999e-01
4.375715758e-01,6.33033e-01,9.99999e-01,9.99990e-01,6.33039e-01,9.99999e-01
4.397594337e-01,6.38730e-01,9.99999e-01,9.99917e-01,6.38782e-01,9.99999e-01
4.419582309e-01,6.44195e-01,9.99999e-01,9.99583e-01,6.44462e-01,9.99999e-01
4.441680220e-01,6.49874e-01,9.99999e-01,9.99683e-01,6.50079e-01,9.99999e-01
4.463888621e-01,6.55416e-01,9.99999e-01,9.99668e-01,6.55633e-01,9.99999e-01
4.486208064e-01,6.60988e-01,9.99999e-01,9.99795e-01,6.61123e-01,9.99999e-01
4.508639105e-01,6.66485e-01,9.99999e-01,9.99903e-01,6.66549e-01,9.99999e-01
4.531182300e-01,6.71886e-01,9.99999e-01,9.99961e-01,6.71911e-01,9.99999e-01
4.553838212e-01,6.77192e-01,9.99999e-01,9.99973e-01,6.77209e-01,9.99999e-01
4.576607403e-01,6.82435e-01,9.99999e-01,9.99987e-01,6.82443e-01,9.99999e-01
4.599490440e-01,6.87607e-01,9.99999e-01,9.99991e-01,6.87613e-01,9.99999e-01
4.622487892e-01,6.92718e-01,9.99999e-01,9.99998e-01,6.92719e-01,9.99999e-01
4.645600332e-01,6.97756e-01,9.99999e-01,9.99993e-01,6.97760e-01,9.99999e-01
4.668828333e-01,7.02669e-01,9.99999e-01,9.99901e-01,7.02738e-01,9.99999e-01
4.692172475e-01,7.07505e-01,9.99999e-01,9.99791e-01,7.07652e-01,9.99999e-01
4.715633337e-01,7.12405e-01,9.99999e-01,9.99863e-01,7.12502e-01,9.99999e-01
4.739211504e-01,7.17196e-01,9.99999e-01,9.99870e-01,7.17289e-01,9.99999e-01
4.762907561e-01,7.21964e-01,9.99999e-01,9.99932e-01,7.22012e-01,9.99999e-01
4.786722099e-01,7.26652e-01,9.99999e-01,9.99972e-01,7.26672e-01,9.99999e-01
4.810655710e-01,7.31263e-01,9.99999e-01,9.99991e-01,7.31269e-01,9.99999e-01
4.834708988e-01,7.35744e-01,9.99999e-01,9.99917e-01,7.35804e-01,9.99999e-01
4.858882533e-01,7.40168e-01,9.99999e-01,9.99853e-01,7.40276e-01,9.99999e-01
4.883176946e-01,7.44595e-01,9.99999e-01,9.99875e-01,7.44687e-01,9.99999e-01
4.907592831e-01,7.48953e-01,9.99999e-01,9.99888e-01,7.49036e-01,9.99999e-01
4.932130795e-01,7.53264e-01,9.99999e-01,9.99920e-01,7.53323e-01,9.99999e-01
4.956791449e-01,7.57518e-01,9.99999e-01,9.99957e-01,7.57550e-01,9.99999e-01
4.981575406e-01,7.61556e-01,9.99999e-01,9.99789e-01,7.61716e-01,9.99999e-01
5.006483283e-01,7.65399e-01,9.99999e-01,9.99450e-01,7.65822e-01,9.99995e-01
5.031515699e-01,7.67729e-01,9.99999e-01,9.97249e-01,7.69869e-01,9.99970e-01
5.056673278e-01,7.72712e-01,9.99999e-01,9.98553e-01,7.73856e-01,9.99966e-01
5.081956644e-01,7.76352e-01,9.99999e-01,9.98176e-01,7.77785e-01,9.99979e-01
5.107366428e-01,7.80692e-01,9.99999e-01,9.98769e-01,7.81655e-01,9.99996e-01
5.132903260e-01,7.84917e-01,9.99999e-01,9.99298e-01,7.85468e-01,9.99999e-01
5.158567776e-01,7.88990e-01,9.99999e-01,9.99703e-01,7.89224e-01,9.99999e-01
5.184360615e-01,7.92828e-01,9.99999e-01,9.99881e-01,7.92922e-01,9.99999e-01
5.210282418e-01,7.96529e-01,9.99999e-01,9.99954e-01,7.96565e-01,9.99999e-01
5.236333830e-01,8.00007e-01,9.99999e-01,9.99820e-01,8.00151e-01,9.99998e-01
5.262515499e-01,8.03592e-01,9.99999e-01,9.99887e-01,8.03683e-01,9.99997e-01
5.288828077e-01,8.07075e-01,9.99999e-01,9.99896e-01,8.07160e-01,9.99998e-01
5.315272217e-01,8.10510e-01,9.99999e-01,9.99909e-01,8.10583e-01,9.99999e-01
5.341848578e-01,8.13903e-01,9.99999e-01,9.99940e-01,8.13952e-01,9.99999e-01
5.368557821e-01,8.17096e-01,9.99999e-01,9.99789e-01,8.17268e-01,9.99999e-01
5.395400610e-01,8.19900e-01,9.99999e-01,9.99235e-01,8.20532e-01,9.99992e-01
5.422377613e-01,8.22932e-01,9.99999e-01,9.99031e-01,8.23744e-01,9.99981e-01
5.449489501e-01,8.26139e-01,9.99999e-01,9.99090e-01,8.26905e-01,9.99981e-01
5.476736949e-01,8.29347e-01,9.99999e-01,9.99203e-01,8.30016e-01,9.99990e-01
5.504120634e-01,8.32592e-01,9.99999e-01,9.99421e-01,8.33076e-01,9.99997e-01
5.531641237e-01,8.35843e-01,9.99999e-01,9.99708e-01,8.36086e-01,9.99999e-01
5.559299443e-01,8.38930e-01,9.99999e-01,9.99859e-01,8.39048e-01,9.99999e-01
5.587095940e-01,8.41887e-01,9.99999e-01,9.99911e-01,8.41961e-01,9.99999e-01
5.615031420e-01,8.44744e-01,9.99999e-01,9.99901e-01,8.44827e-01,9.99999e-01
5.643106577e-01,8.47549e-01,9.99999e-01,9.99886e-01,8.47646e-01,9.99998e-01
5.671322110e-01,8.49227e-01,9.99999e-01,9.98610e-01,8.50418e-01,9.99987e-01
5.699678720e-01,8.51895e-01,9.99999e-01,9.98572e-01,8.53144e-01,9.99962e-01
5.728177114e-01,8.54508e-01,9.99999e-01,9.98492e-01,8.55825e-01,9.99968e-01
5.756818000e-01,8.57261e-01,9.99999e-01,9.98620e-01,8.58460e-01,9.99981e-01
5.785602090e-01,8.60015e-01,9.99999e-01,9.98800e-01,8.61052e-01,9.99994e-01
5.814530100e-01,8.62555e-01,9.99999e-01,9.98791e-01,8.63600e-01,9.99996e-01
5.843602750e-01,8.64839e-01,9.99999e-01,9.98545e-01,8.66105e-01,9.99991e-01
5.872820764e-01,8.57688e-01,9.99999e-01,9.87559e-01,8.68568e-01,9.99912e-01
5.902184868e-01,8.57802e-01,9.99999e-01,9.85093e-01,8.70989e-01,9.99761e-01
5.931695792e-01,8.63929e-01,9.99999e-01,9.89417e-01,8.73369e-01,9.99771e-01
5.961354271e-01,8.65462e-01,9.99999e-01,9.88429e-01,8.75707e-01,9.99868e-01
5.991161043e-01,8.70560e-01,9.99999e-01,9.91558e-01,8.78006e-01,9.99958e-01
6.021116848e-01,8.76045e-01,9.99999e-01,9.95209e-01,8.80265e-01,9.99995e-01
6.051222432e-01,8.80346e-01,9.99999e-01,9.97574e-01,8.82486e-01,9.99999e-01
6.081478544e-01,8.83741e-01,9.99999e-01,9.98951e-01,8.84667e-01,9.99999e-01
6.111885937e-01,8.86420e-01,9.99999e-01,9.99557e-01,8.86811e-01,9.99999e-01
6.142445367e-01,8.88742e-01,9.99999e-01,9.99801e-01,8.88918e-01,9.99999e-01
6.173157594e-01,8.90891e-01,9.99999e-01,9.99890e-01,8.90988e-01,9.99999e-01
6.204023382e-01,8.92938e-01,9.99999e-01,9.99906e-01,8.93022e-01,9.99999e-01
6.235043498e-01,8.94645e-01,9.99999e-01,9.99582e-01,8.95020e-01,9.99998e-01
6.266218716e-01,8.95028e-01,9.99999e-01,9.97835e-01,8.96982e-01,9.99984e-01
6.297549810e-01,8.98170e-01,9.99999e-01,9.99205e-01,8.98911e-01,9.99969e-01
6.329037559e-01,8.99375e-01,9.99999e-01,9.98436e-01,9.00805e-01,9.99975e-01
6.360682746e-01,9.01444e-01,9.99999e-01,9.98660e-01,9.02666e-01,9.99985e-01
6.392486160e-01,9.02923e-01,9.99999e-01,9.98269e-01,9.04493e-01,9.99993e-01
6.424448591e-01,9.04159e-01,9.99999e-01,9.97660e-01,9.06289e-01,9.99988e-01
6.456570834e-01,8.98175e-01,9.99999e-01,9.89187e-01,9.08052e-01,9.99934e-01
6.488853688e-01,9.02523e-01,9.99999e-01,9.92184e-01,9.09783e-01,9.99832e-01
6.521297956e-01,9.04103e-01,9.99999e-01,9.92038e-01,9.11484e-01,9.99861e-01
6.553904446e-01,9.05774e-01,9.99999e-01,9.92019e-01,9.13154e-01,9.99897e-01
6.586673968e-01,9.08544e-01,9.99999e-01,9.93201e-01,9.14794e-01,9.99965e-01
6.619607338e-01,9.12922e-01,9.99999e-01,9.96206e-01,9.16405e-01,9.99992e-01
6.652705375e-01,9.15892e-01,9.99999e-01,9.97721e-01,9.17986e-01,9.99995e-01
6.685968902e-01,9.18649e-01,9.99999e-01,9.99032e-01,9.19539e-01,9.99998e-01
6.719398746e-01,9.20613e-01,9.99999e-01,9.99509e-01,9.21064e-01,9.99999e-01
6.752995740e-01,9.22322e-01,9.99999e-01,9.99740e-01,9.22561e-01,9.99999e-01
6.786760719e-01,9.23672e-01,9.99999e-01,9.99610e-01,9.24031e-01,9.99998e-01
6.820694522e-01,9.24854e-01,9.99999e-01,9.99332e-01,9.25474e-01,9.99996e-01
6.854797995e-01,9.26094e-01,9.99999e-01,9.99146e-01,9.26891e-01,9.99992e-01
6.889071985e-01,9.26315e-01,9.99999e-01,9.97898e-01,9.28282e-01,9.99981e-01
6.923517345e-01,8.98494e-01,9.99999e-01,9.66643e-01,9.29648e-01,9.99838e-01
6.958134932e-01,9.14815e-01,9.99999e-01,9.82978e-01,9.30988e-01,9.99642e-01
6.992925606e-01,9.16510e-01,9.99999e-01,9.83374e-01,9.32304e-01,9.99677e-01
7.027890234e-01,9.14432e-01,9.99999e-01,9.79712e-01,9.33596e-01,9.99753e-01
7.063029686e-01,9.18754e-01,9.99999e-01,9.82887e-01,9.34864e-01,9.99877e-01
7.098344834e-01,9.20664e-01,9.99999e-01,9.83572e-01,9.36108e-01,9.99927e-01
7.133836558e-01,9.16456e-01,9.99999e-01,9.77870e-01,9.37330e-01,9.99855e-01
7.169505741e-01,7.85887e-01,9.99999e-01,8.38307e-01,9.38529e-01,9.98869e-01
7.205353270e-01,8.61644e-01,9.99999e-01,9.18759e-01,9.39706e-01,9.98006e-01
7.241380036e-01,8.41409e-01,9.99999e-01,8.95838e-01,9.40861e-01,9.98278e-01
7.277586936e-01,8.51933e-01,9.99999e-01,9.05666e-01,9.41994e-01,9.98592e-01
7.313974871e-01,8.48631e-01,9.99999e-01,9.00418e-01,9.43107e-01,9.99340e-01
7.350544745e-01,8.91202e-01,9.99999e-01,9.44086e-01,9.44199e-01,9.99770e-01
7.387297469e-01,9.05958e-01,9.99999e-01,9.58511e-01,9.45270e-01,9.99894e-01
7.424233956e-01,9.26928e-01,9.99999e-01,9.79523e-01,9.46322e-01,9.99981e-01
7.461355126e-01,9.35524e-01,9.99999e-01,9.87515e-01,9.47353e-01,9.99996e-01
7.498661902e-01,9.42855e-01,9.99999e-01,9.94189e-01,9.48366e-01,9.99998e-01
7.536155211e-01,9.46640e-01,9.99999e-01,9.97135e-01,9.49360e-01,9.99998e-01
7.573835987e-01,9.48934e-01,9.99999e-01,9.98525e-01,9.50335e-01,9.99999e-01
7.611705167e-01,9.50419e-01,9.99999e-01,9.99082e-01,9.51291e-01,9.99999e-01
7.649763693e-01,9.51682e-01,9.99999e-01,9.99424e-01,9.52230e-01,9.99999e-01
7.688012511e-01,9.52769e-01,9.99999e-01,9.99598e-01,9.53151e-01,9.99999e-01
7.726452574e-01,9.53739e-01,9.99999e-01,9.99669e-01,9.54055e-01,9.99999e-01
7.765084837e-01,9.54488e-01,9.99999e-01,9.99525e-01,9.54942e-01,9.99998e-01
7.803910261e-01,9.53848e-01,9.99999e-01,9.97946e-01,9.55812e-01,9.99997e-01
7.842929812e-01,9.49814e-01,9.99999e-01,9.92850e-01,9.56665e-01,9.99986e-01
7.882144461e-01,9.43501e-01,9.99999e-01,9.85474e-01,9.57503e-01,9.99899e-01
7.921555184e-01,9.50554e-01,9.99999e-01,9.92063e-01,9.58324e-01,9.99825e-01
7.961162960e-01,9.45369e-01,9.99999e-01,9.85815e-01,9.59131e-01,9.99833e-01
8.000968774e-01,9.44145e-01,9.99999e-01,9.83737e-01,9.59921e-01,9.99823e-01
8.040973618e-01,9.44919e-01,9.99999e-01,9.83708e-01,9.60697e-01,9.99865e-01
8.081178486e-01,9.26196e-01,9.99999e-01,9.63454e-01,9.61458e-01,9.99863e-01
8.121584379e-01,8.24585e-01,9.99999e-01,8.57415e-01,9.62205e-01,9.99483e-01
8.162192301e-01,8.02862e-01,9.99999e-01,8.35383e-01,9.62938e-01,9.98060e-01
8.203003262e-01,8.78925e-01,9.99999e-01,9.14147e-01,9.63656e-01,9.97729e-01
8.244018279e-01,8.53240e-01,9.99999e-01,8.86373e-01,9.64361e-01,9.98192e-01
8.285238370e-01,8.64355e-01,9.99999e-01,8.96928e-01,9.65053e-01,9.98579e-01
8.326664562e-01,8.65319e-01,9.99999e-01,8.96551e-01,9.65731e-01,9.99412e-01
8.368297885e-01,8.93553e-01,9.99999e-01,9.24746e-01,9.66396e-01,9.99865e-01
8.410139374e-01,9.23026e-01,9.99999e-01,9.54551e-01,9.67049e-01,9.99921e-01
8.452190071e-01,9.45841e-01,9.99999e-01,9.77467e-01,9.67689e-01,9.99952e-01
8.494451021e-01,9.55500e-01,9.99999e-01,9.86799e-01,9.68317e-01,9.99961e-01
8.536923276e-01,9.61360e-01,9.99999e-01,9.92205e-01,9.68933e-01,9.99976e-01
8.579607893e-01,9.64856e-01,9.99999e-01,9.95176e-01,9.69537e-01,9.99994e-01
8.622505932e-01,9.67163e-01,9.99999e-01,9.96941e-01,9.70130e-01,9.99998e-01
8.665618462e-01,9.68866e-01,9.99999e-01,9.98098e-01,9.70711e-01,9.99998e-01
8.708946554e-01,9.69161e-01,9.99999e-01,9.97817e-01,9.71281e-01,9.99998e-01
8.752491287e-01,9.69005e-01,9.99999e-01,9.97084e-01,9.71841e-01,9.99996e-01
8.796253743e-01,9.68441e-01,9.99999e-01,9.95948e-01,9.72389e-01,9.99990e-01
8.840235012e-01,9.68404e-01,9.99999e-01,9.95378e-01,9.72927e-01,9.99971e-01
8.884436187e-01,9.56759e-01,9.99999e-01,9.82926e-01,9.73454e-01,9.99919e-01
8.928858368e-01,8.15885e-01,9.99999e-01,8.38074e-01,9.73972e-01,9.99538e-01
8.973502660e-01,7.15006e-01,9.99999e-01,7.35466e-01,9.74479e-01,9.97640e-01
9.018370173e-01,8.31730e-01,9.99999e-01,8.56248e-01,9.74977e-01,9.96293e-01
9.063462024e-01,8.45246e-01,9.99999e-01,8.69335e-01,9.75465e-01,9.96743e-01
9.108779334e-01,7.83105e-01,9.99999e-01,8.05131e-01,9.75944e-01,9.96616e-01
9.154323231e-01,7.60906e-01,9.99999e-01,7.81472e-01,9.76413e-01,9.97202e-01
9.200094847e-01,8.05096e-01,9.99999e-01,8.25448e-01,9.76874e-01,9.98432e-01
9.246095321e-01,7.26024e-01,9.99999e-01,7.44211e-01,9.77325e-01,9.98194e-01
9.292325798e-01,1.58222e-01,9.99999e-01,1.63237e-01,9.77768e-01,9.91315e-01
9.338787427e-01,9.26971e-02,9.99999e-01,9.77979e-02,9.78203e-01,9.68962e-01
9.385481364e-01,3.66437e-01,9.99999e-01,3.87637e-01,9.78629e-01,9.65952e-01
9.432408771e-01,2.64398e-01,9.99999e-01,2.78249e-01,9.79046e-01,9.70557e-01
9.479570815e-01,1.62613e-01,9.99999e-01,1.70112e-01,9.79456e-01,9.75970e-01
9.526968669e-01,2.45188e-01,9.99999e-01,2.53968e-01,9.79857e-01,9.85274e-01
9.574603512e-01,2.62822e-01,9.99999e-01,2.70145e-01,9.80251e-01,9.92492e-01
9.622476530e-01,3.30701e-01,9.99999e-01,3.38992e-01,9.80638e-01,9.94802e-01
9.670588912e-01,5.19666e-01,9.99999e-01,5.31533e-01,9.81016e-01,9.96591e-01
9.718941857e-01,6.50994e-01,9.99999e-01,6.65076e-01,9.81388e-01,9.97388e-01
9.767536566e-01,6.97852e-01,9.99999e-01,7.12249e-01,9.81752e-01,9.97996e-01
9.816374249e-01,7.62714e-01,9.99999e-01,7.77146e-01,9.82109e-01,9.99306e-01
9.865456120e-01,8.38732e-01,9.99999e-01,8.53829e-01,9.82459e-01,9.99855e-01
9.914783401e-01,8.91031e-01,9.99999e-01,9.06658e-01,9.82803e-01,9.99959e-01
9.964357318e-01,9.32029e-01,9.99999e-01,9.48034e-01,9.83140e-01,9.99976e-01
1.001417910e+00,9.52484e-01,9.99999e-01,9.68527e-01,9.83470e-01,9.99963e-01
1.006425000e+00,9.65919e-01,9.99999e-01,9.81880e-01,9.83794e-01,9.99948e-01
1.011457125e+00,9.72997e-01,9.99999e-01,9.88752e-01,9.84111e-01,9.99952e-01
1.016514411e+00,9.76847e-01,9.99999e-01,9.92336e-01,9.84423e-01,9.99966e-01
1.021596983e+00,9.78674e-01,9.99999e-01,9.93884e-01,9.84728e-01,9.99966e-01
1.026704968e+00,9.80303e-01,9.99999e-01,9.95224e-01,9.85027e-01,9.99978e-01
1.031838492e+00,9.81902e-01,9.99999e-01,9.96535e-01,9.85321e-01,9.99993e-01
1.036997685e+00,9.83574e-01,9.99999e-01,9.97935e-01,9.85609e-01,9.99998e-01
1.042182673e+00,9.83454e-01,9.99999e-01,9.97527e-01,9.85891e-01,9.99999e-01
1.047393587e+00,9.82943e-01,9.99999e-01,9.96730e-01,9.86168e-01,9.99998e-01
1.052630555e+00,9.82008e-01,9.99999e-01,9.95508e-01,9.86439e-01,9.99998e-01
1.057893707e+00,9.79301e-01,9.99999e-01,9.92498e-01,9.86705e-01,9.99996e-01
1.063183176e+00,9.74823e-01,9.99999e-01,9.87702e-01,9.86966e-01,9.99993e-01
1.068499092e+00,9.67004e-01,9.99999e-01,9.79533e-01,9.87222e-01,9.99985e-01
1.073841587e+00,9.63803e-01,9.99999e-01,9.76059e-01,9.87473e-01,9.99969e-01
1.079210795e+00,9.57540e-01,9.99999e-01,9.69525e-01,9.87718e-01,9.99917e-01
1.084606849e+00,9.42499e-01,9.99999e-01,9.54174e-01,9.87960e-01,9.99801e-01
1.090029883e+00,9.23060e-01,9.99999e-01,9.34470e-01,9.88196e-01,9.99588e-01
1.095480033e+00,8.21761e-01,9.99999e-01,8.32000e-01,9.88428e-01,9.99255e-01
1.100957433e+00,6.22321e-01,9.99999e-01,6.30324e-01,9.88655e-01,9.98630e-01
1.106462220e+00,3.20034e-01,9.99999e-01,3.24386e-01,9.88878e-01,9.97678e-01
1.111994531e+00,9.94091e-02,9.99999e-01,1.01127e-01,9.89096e-01,9.93850e-01
1.117554504e+00,2.72825e-02,9.99999e-01,2.81982e-02,9.89310e-01,9.77977e-01
1.123142276e+00,8.32993e-02,9.99999e-01,8.87463e-02,9.89521e-01,9.48561e-01
1.128757988e+00,1.68983e-01,9.99999e-01,1.81492e-01,9.89726e-01,9.40737e-01
1.134401778e+00,7.80262e-02,9.99999e-01,8.30224e-02,9.89928e-01,9.49380e-01
1.140073787e+00,3.25744e-01,9.99999e-01,3.42933e-01,9.90126e-01,9.59345e-01
1.145774156e+00,1.20566e-01,9.99999e-01,1.26458e-01,9.90320e-01,9.62721e-01
1.151503026e+00,9.81515e-02,9.99999e-01,1.01211e-01,9.90511e-01,9.79058e-01
1.157260541e+00,1.25581e-01,9.99999e-01,1.27565e-01,9.90697e-01,9.93691e-01
1.163046844e+00,2.13412e-01,9.99999e-01,2.15763e-01,9.90880e-01,9.98207e-01
1.168862078e+00,3.29848e-01,9.99999e-01,3.33134e-01,9.91059e-01,9.99065e-01
1.174706389e+00,5.00821e-01,9.99999e-01,5.05899e-01,9.91235e-01,9.98713e-01
1.180579921e+00,6.51855e-01,9.99999e-01,6.58723e-01,9.91407e-01,9.98149e-01
1.186482820e+00,7.80012e-01,9.99999e-01,7.88134e-01,9.91576e-01,9.98100e-01
1.192415234e+00,8.61341e-01,9.99999e-01,8.69749e-01,9.91742e-01,9.98577e-01
1.198377311e+00,8.80489e-01,9.99999e-01,8.88874e-01,9.91905e-01,9.98649e-01
1.204369197e+00,8.86818e-01,9.99999e-01,8.94964e-01,9.92064e-01,9.98823e-01
1.210391043e+00,8.91485e-01,9.99999e-01,8.99139e-01,9.92220e-01,9.99259e-01
1.216442998e+00,9.06367e-01,9.99999e-01,9.13746e-01,9.92373e-01,9.99546e-01
1.222525213e+00,9.24763e-01,9.99999e-01,9.31991e-01,9.92523e-01,9.99718e-01
1.228637839e+00,9.45108e-01,9.99999e-01,9.52210e-01,9.92670e-01,9.99868e-01
1.234781029e+00,9.57385e-01,9.99999e-01,9.64349e-01,9.92814e-01,9.99962e-01
1.240954934e+00,9.70385e-01,9.99999e-01,9.77278e-01,9.92956e-01,9.99989e-01
1.247159708e+00,9.75488e-01,9.99999e-01,9.82277e-01,9.93095e-01,9.99992e-01
1.253395507e+00,9.77551e-01,9.99999e-01,9.84221e-01,9.93230e-01,9.99990e-01
1.259662485e+00,9.78415e-01,9.99999e-01,9.84964e-01,9.93364e-01,9.99985e-01
1.265960797e+00,9.69781e-01,9.99999e-01,9.76153e-01,9.93494e-01,9.99976e-01
1.272290601e+00,9.56479e-01,9.99999e-01,9.62657e-01,9.93622e-01,9.99958e-01
1.278652054e+00,9.21469e-01,9.99999e-01,9.27333e-01,9.93748e-01,9.99926e-01
1.285045314e+00,8.66898e-01,9.99999e-01,8.72362e-01,9.93871e-01,9.99863e-01
1.291470541e+00,7.83611e-01,9.99999e-01,7.88536e-01,9.93992e-01,9.99760e-01
1.297927893e+00,7.09902e-01,9.99999e-01,7.14426e-01,9.94110e-01,9.99552e-01
1.304417533e+00,6.70509e-01,9.99999e-01,6.75041e-01,9.94226e-01,9.99053e-01
1.310939621e+00,6.04163e-01,9.99999e-01,6.08784e-01,9.94340e-01,9.98057e-01
1.317494319e+00,6.09703e-01,9.99999e-01,6.15313e-01,9.94451e-01,9.96410e-01
1.324081790e+00,4.85363e-01,9.99999e-01,4.90890e-01,9.94560e-01,9.94146e-01
1.330702199e+00,1.17900e-01,9.99999e-01,1.19737e-01,9.94668e-01,9.89928e-01
1.337355710e+00,1.30744e-03,9.99999e-01,1.34018e-03,9.94773e-01,9.80694e-01
1.344042489e+00,2.05366e-07,9.99999e-01,2.18907e-07,9.94876e-01,9.42974e-01
1.350762701e+00,1.67476e-14,9.99999e-01,2.05800e-14,9.94977e-01,8.17888e-01
1.357516515e+00,1.63788e-21,9.99999e-01,2.96927e-21,9.95076e-01,5.54339e-01
1.364304097e+00,1.22555e-13,9.99999e-01,3.46328e-13,9.95173e-01,3.55587e-01
1.371125618e+00,9.00119e-09,9.99999e-01,2.39732e-08,9.95268e-01,3.77252e-01
1.377981246e+00,3.25115e-08,9.99999e-01,7.53292e-08,9.95361e-01,4.33603e-01
1.384871152e+00,1.64091e-11,9.99999e-01,3.59112e-11,9.95452e-01,4.59023e-01
1.391795508e+00,1.22545e-13,9.99999e-01,2.58570e-13,9.95542e-01,4.76053e-01
1.398754485e+00,1.00334e-10,9.99999e-01,1.86046e-10,9.95630e-01,5.41664e-01
1.405748258e+00,1.35473e-10,9.99999e-01,1.94705e-10,9.95716e-01,6.98779e-01
1.412776999e+00,2.37045e-10,9.99999e-01,2.80368e-10,9.95800e-01,8.49044e-01
1.419840884e+00,4.66738e-10,9.99998e-01,5.03531e-10,9.95883e-01,9.30760e-01
1.426940089e+00,3.74664e-07,9.99998e-01,3.97258e-07,9.95964e-01,9.46946e-01
1.434074789e+00,3.88222e-06,9.99998e-01,4.15659e-06,9.96044e-01,9.37698e-01
1.441245163e+00,3.57237e-05,9.99999e-01,3.84506e-05,9.96122e-01,9.32696e-01
1.448451389e+00,9.25996e-04,9.99998e-01,9.88002e-04,9.96198e-01,9.40816e-01
1.455693646e+00,8.53057e-03,9.99999e-01,8.97873e-03,9.96273e-01,9.53638e-01
1.462972114e+00,1.23766e-02,9.99999e-01,1.29972e-02,9.96347e-01,9.55735e-01
1.470286975e+00,6.52766e-03,9.99999e-01,6.84924e-03,9.96419e-01,9.56473e-01
