#,Wave/freq,Total,N2,H2O,Rayleigh,CIA
4.000000000e-01,3.71030e-01,9.99999e-01,9.99887e-01,3.71072e-01,9.99999e-01
4.020000000e-01,3.78391e-01,9.99999e-01,9.99930e-01,3.78417e-01,9.99999e-01
4.040100000e-01,3.85740e-01,9.99999e-01,9.99970e-01,3.85751e-01,9.99999e-01
4.060300500e-01,3.93075e-01,9.99999e-01,9.99992e-01,3.93078e-01,9.99999e-01
4.080602003e-01,4.00394e-01,9.99999e-01,9.99997e-01,4.00395e-01,9.99999e-01
4.101005013e-01,4.07700e-01,9.99999e-01,9.99999e-01,4.07700e-01,9.99999e-01
4.121510038e-01,4.14988e-01,9.99999e-01,9.99995e-01,4.14990e-01,9.99999e-01
4.142117588e-01,4.22249e-01,9.99999e-01,9.99968e-01,4.22262e-01,9.99999e-01
4.162828176e-01,4.29455e-01,9.99999e-01,9.99861e-01,4.29514e-01,9.99999e-01
4.183642317e-01,4.36708e-01,9.99999e-01,9.99917e-01,4.36744e-01,9.99999e-01
4.204560528e-01,4.43927e-01,9.99999e-01,9.99948e-01,4.43949e-01,9.99999e-01
4.225583331e-01,4.51119e-01,9.99999e-01,9.99980e-01,4.51128e-01,9.99999e-01
4.246711247e-01,4.58270e-01,9.99999e-01,9.99984e-01,4.58277e-01,9.99999e-01
4.267944804e-01,4.65384e-01,9.99999e-01,9.99977e-01,4.65395e-01,9.99999e-01
4.289284528e-01,4.72471e-01,9.99999e-01,9.99982e-01,4.72479e-01,9.99999e-01
4.310730950e-01,4.79525e-01,9.99999e-01,9.99992e-01,4.79529e-01,9.99999e-01
4.332284605e-01,4.86540e-01,9.99999e-01,9.99997e-01,4.86541e-01,9.99999e-01
4.353946028e-01,4.93514e-01,9.99999e-01,9.99998e-01,4.93514e-01,9.99999e-01
4.375715758e-01,5.00440e-01,9.99999e-01,9.99985e-01,5.00446e-01,9.99999e-01
4.397594337e-01,5.07275e-01,9.99999e-01,9.99878e-01,5.07336e-01,9.99999e-01
4.419582309e-01,5.13866e-01,9.99999e-01,9.99384e-01,5.14182e-01,9.99999e-01
4.441680220e-01,5.20731e-01,9.99999e-01,9.99516e-01,5.20983e-01,9.99999e-01
4.463888621e-01,5.27471e-01,9.99999e-01,9.99497e-01,5.27736e-01,9.99999e-01
4.486208064e-01,5.34274e-01,9.99999e-01,9.99687e-01,5.34441e-01,9.99999e-01
4.508639105e-01,5.41017e-01,9.99999e-01,9.99853e-01,5.41096e-01,9.99999e-01
4.531182300e-01,5.47668e-01,9.99999e-01,9.99941e-01,5.47700e-01,9.99999e-01
4.553838212e-01,5.54230e-01,9.99999e-01,9.99960e-01,5.54252e-01,9.99999e-01
4.576607403e-01,5.60740e-01,9.99999e-01,9.99981e-01,5.60750e-01,9.99999e-01
4.599490440e-01,5.67187e-01,9.99999e-01,9.99986e-01,5.67194e-01,9.99999e-01
4.622487892e-01,5.73582e-01,9.99999e-01,9.99997e-01,5.73583e-01,9.99999e-01
4.645600332e-01,5.79910e-01,9.99999e-01,9.99990e-01,5.79915e-01,9.99999e-01
4.668828333e-01,5.86104e-01,9.99999e-01,9.99852e-01,5.86191e-01,9.99999e-01
4.692172475e-01,5.92221e-01,9.99999e-01,9.99684e-01,5.92408e-01,9.99999e-01
4.715633337e-01,5.98443e-01,9.99999e-01,9.99794e-01,5.98566e-01,9.99999e-01
4.739211504e-01,6.04545e-01,9.99999e-01,9.99802e-01,6.04665e-01,9.99999e-01
4.762907561e-01,6.10641e-01,9.99999e-01,9.99897e-01,6.10703e-01,9.99999e-01
4.786722099e-01,6.16655e-01,9.99999e-01,9.99957e-01,6.16681e-01,9.99999e-01
4.810655710e-01,6.22590e-01,9.99999e-01,9.99987e-01,6.22597e-01,9.99999e-01
4.834708988e-01,6.28377e-01,9.99999e-01,9.99879e-01,6.28452e-01,9.99999e-01
4.858882533e-01,6.34103e-01,9.99999e-01,9.99776e-01,6.34245e-01,9.99999e-01
4.883176946e-01,6.39856e-01,9.99999e-01,9.99813e-01,6.39975e-01,9.99999e-01
4.907592831e-01,6.45533e-01,9.99999e-01,9.99830e-01,6.45642e-01,9.99999e-01
4.932130795e-01,6.51167e-01,9.99999e-01,9.99879e-01,6.51245e-01,9.99999e-01
4.956791449e-01,6.56744e-01,9.99999e-01,9.99936e-01,6.56786e-01,9.99999e-01
4.981575406e-01,6.62053e-01,9.99999e-01,9.99683e-01,6.62262e-01,9.99999e-01
5.006483283e-01,6.67126e-01,9.99999e-01,9.99182e-01,6.67675e-01,9.99993e-01
5.031515699e-01,6.70204e-01,9.99999e-01,9.95854e-01,6.73024e-01,9.99955e-01
5.056673278e-01,6.76787e-01,9.99999e-01,9.97806e-01,6.78308e-01,9.99949e-01
5.081956644e-01,6.81616e-01,9.99999e-01,9.97233e-01,6.83529e-01,9.99967e-01
5.107366428e-01,6.87394e-01,9.99999e-01,9.98130e-01,6.88685e-01,9.99993e-01
5.132903260e-01,6.93036e-01,9.99999e-01,9.98930e-01,6.93778e-01,9.99998e-01
5.158567776e-01,6.98490e-01,9.99999e-01,9.99548e-01,6.98806e-01,9.99999e-01
5.184360615e-01,7.03643e-01,9.99999e-01,9.99818e-01,7.03770e-01,9.99999e-01
5.210282418e-01,7.08623e-01,9.99999e-01,9.99932e-01,7.08671e-01,9.99999e-01
5.236333830e-01,7.13313e-01,9.99999e-01,9.99728e-01,7.13508e-01,9.99997e-01
5.262515499e-01,7.18157e-01,9.99999e-01,9.99830e-01,7.18281e-01,9.99996e-01
5.288828077e-01,7.22878e-01,9.99999e-01,9.99844e-01,7.22991e-01,9.99997e-01
5.315272217e-01,7.27538e-01,9.99999e-01,9.99862e-01,7.27638e-01,9.99999e-01
5.341848578e-01,7.32157e-01,9.99999e-01,9.99910e-01,7.32222e-01,9.99999e-01
5.368557821e-01,7.36511e-01,9.99999e-01,9.99684e-01,7.36744e-01,9.99998e-01
5.395400610e-01,7.40356e-01,9.99999e-01,9.98865e-01,7.41203e-01,9.99990e-01
5.422377613e-01,7.44484e-01,9.99999e-01,9.98527e-01,7.45601e-01,9.99972e-01
5.449489501e-01,7.48892e-01,9.99999e-01,9.98633e-01,7.49937e-01,9.99971e-01
5.476736949e-01,7.53287e-01,9.99999e-01,9.98786e-01,7.54212e-01,9.99986e-01
5.504120634e-01,7.57756e-01,9.99999e-01,9.99119e-01,7.58426e-01,9.99995e-01
5.531641237e-01,7.62241e-01,9.99999e-01,9.99556e-01,7.62579e-01,9.99998e-01
5.559299443e-01,7.66509e-01,9.99999e-01,9.99785e-01,7.66673e-01,9.99999e-01
5.587095940e-01,7.70604e-01,9.99999e-01,9.99865e-01,7.70707e-01,9.99999e-01
5.615031420e-01,7.74567e-01,9.99999e-01,9.99850e-01,7.74682e-01,9.99999e-01
5.643106577e-01,7.78467e-01,9.99999e-01,9.99831e-01,7.78599e-01,9.99998e-01
5.671322110e-01,7.80846e-01,9.99999e-01,9.97958e-01,7.82457e-01,9.99981e-01
5.699678720e-01,7.84493e-01,9.99999e-01,9.97810e-01,7.86258e-01,9.99943e-01
5.728177114e-01,7.88169e-01,9.99999e-01,9.97726e-01,7.90001e-01,9.99953e-01
5.756818000e-01,7.92009e-01,9.99999e-01,9.97912e-01,7.93688e-01,9.99971e-01
5.785602090e-01,7.95860e-01,9.99999e-01,9.98178e-01,7.97319e-01,9.99990e-01
5.814530100e-01,7.99427e-01,9.99999e-01,9.98172e-01,8.00894e-01,9.99995e-01
5.843602750e-01,8.02657e-01,9.99999e-01,9.97827e-01,8.04414e-01,9.99987e-01
5.872820764e-01,7.92795e-01,9.99999e-01,9.81456e-01,8.07880e-01,9.99867e-01
5.902184868e-01,7.92718e-01,9.99999e-01,9.77457e-01,8.11291e-01,9.99640e-01
5.931695792e-01,8.01391e-01,9.99999e-01,9.84064e-01,8.14649e-01,9.99653e-01
5.961354271e-01,8.03492e-01,9.99999e-01,9.82513e-01,8.17955e-01,9.99800e-01
5.991161043e-01,8.10652e-01,9.99999e-01,9.87206e-01,8.21208e-01,9.99938e-01
6.021116848e-01,8.18401e-01,9.99999e-01,9.92718e-01,8.24409e-01,9.99992e-01
6.051222432e-01,8.24505e-01,9.99999e-01,9.96309e-01,8.27559e-01,9.99998e-01
6.081478544e-01,8.29336e-01,9.99999e-01,9.98407e-01,8.30659e-01,9.99999e-01
6.111885937e-01,8.33147e-01,9.99999e-01,9.99325e-01,8.33709e-01,9.99999e-01
6.142445367e-01,8.36458e-01,9.99999e-01,9.99698e-01,8.36709e-01,9.99999e-01
6.173157594e-01,8.39522e-01,9.99999e-01,9.99833e-01,8.39661e-01,9.99999e-01
6.204023382e-01,8.42446e-01,9.99999e-01,9.99859e-01,8.42564e-01,9.99999e-01
6.235043498e-01,8.44899e-01,9.99999e-01,9.99384e-01,8.45420e-01,9.99998e-01
6.266218716e-01,8.45436e-01,9.99999e-01,9.96729e-01,8.48229e-01,9.99976e-01
6.297549810e-01,8.49931e-01,9.99999e-01,9.98799e-01,8.50991e-01,9.99953e-01
6.329037559e-01,8.51650e-01,9.99999e-01,9.97625e-01,8.53708e-01,9.99962e-01
6.360682746e-01,8.54632e-01,9.99999e-01,9.97980e-01,8.56379e-01,9.99977e-01
6.392486160e-01,8.56749e-01,9.99999e-01,9.97382e-01,8.59006e-01,9.99989e-01
6.424448591e-01,8.58567e-01,9.99999e-01,9.96508e-01,8.61588e-01,9.99984e-01
6.456570834e-01,8.50132e-01,9.99999e-01,9.83891e-01,8.64127e-01,9.99909e-01
6.488853688e-01,8.56139e-01,9.99999e-01,9.88150e-01,8.66624e-01,9.99747e-01
6.521297956e-01,8.58407e-01,9.99999e-01,9.87930e-01,8.69078e-01,9.99787e-01
6.553904446e-01,8.60877e-01,9.99999e-01,9.87978e-01,8.71490e-01,9.99840e-01
6.586673968e-01,8.64807e-01,9.99999e-01,9.89690e-01,8.73861e-01,9.99947e-01
6.619607338e-01,8.70946e-01,9.99999e-01,9.94024e-01,8.76191e-01,9.99988e-01
6.652705375e-01,8.75433e-01,9.99999e-01,9.96534e-01,8.78482e-01,9.99993e-01
6.685968902e-01,8.79313e-01,9.99999e-01,9.98388e-01,8.80733e-01,9.99998e-01
6.719398746e-01,8.82286e-01,9.99999e-01,9.99253e-01,8.82945e-01,9.99999e-01
6.752995740e-01,8.84761e-01,9.99999e-01,9.99595e-01,8.85119e-01,9.99999e-01
6.786760719e-01,8.86737e-01,9.99999e-01,9.99417e-01,8.87255e-01,9.99998e-01
6.820694522e-01,8.88462e-01,9.99999e-01,9.99001e-01,8.89354e-01,9.99994e-01
6.854797995e-01,8.90259e-01,9.99999e-01,9.98712e-01,8.91416e-01,9.99988e-01
6.889071985e-01,8.90650e-01,9.99999e-01,9.96902e-01,8.93442e-01,9.99971e-01
6.923517345e-01,8.50952e-01,9.99999e-01,9.50556e-01,8.95433e-01,9.99755e-01
6.958134932e-01,8.73447e-01,9.99999e-01,9.73856e-01,8.97388e-01,9.99449e-01
6.992925606e-01,8.76590e-01,9.99999e-01,9.75208e-01,8.99309e-01,9.99515e-01
7.027890234e-01,8.73298e-01,9.99999e-01,9.69401e-01,9.01197e-01,9.99628e-01
7.063029686e-01,8.79583e-01,9.99999e-01,9.74192e-01,9.03050e-01,9.99814e-01
7.098344834e-01,8.82349e-01,9.99999e-01,9.75216e-01,9.04871e-01,9.99890e-01
7.133836558e-01,8.76854e-01,9.99999e-01,9.67335e-01,9.06660e-01,9.99782e-01
7.169505741e-01,6.98328e-01,9.99999e-01,7.70047e-01,9.08416e-01,9.98290e-01
7.205353270e-01,7.97064e-01,9.99999e-01,8.78404e-01,9.10141e-01,9.96985e-01
7.241380036e-01,7.71472e-01,9.99999e-01,8.48272e-01,9.11836e-01,9.97396e-01
7.277586936e-01,7.85805e-01,9.99999e-01,8.62048e-01,9.13499e-01,9.97871e-01
7.313974871e-01,7.79707e-01,9.99999e-01,8.52864e-01,9.15133e-01,9.99002e-01
7.350544745e-01,8.39891e-01,9.99999e-01,9.16490e-01,9.16738e-01,9.99652e-01
7.387297469e-01,8.60910e-01,9.99999e-01,9.37639e-01,9.18313e-01,9.99840e-01
7.424233956e-01,8.91248e-01,9.99999e-01,9.68924e-01,9.19860e-01,9.99968e-01
7.461355126e-01,9.03917e-01,9.99999e-01,9.81052e-01,9.21379e-01,9.99994e-01
7.498661902e-01,9.14680e-01,9.99999e-01,9.91126e-01,9.22871e-01,9.99997e-01
7.536155211e-01,9.20306e-01,9.99999e-01,9.95641e-01,9.24335e-01,9.99998e-01
7.573835987e-01,9.23694e-01,9.99999e-01,9.97754e-01,9.25773e-01,9.99999e-01
7.611705167e-01,9.25890e-01,9.99999e-01,9.98604e-01,9.27184e-01,9.99999e-01
7.649763693e-01,9.27758e-01,9.99999e-01,9.99125e-01,9.28570e-01,9.99999e-01
7.688012511e-01,9.29364e-01,9.99999e-01,9.99390e-01,9.29930e-01,9.99999e-01
7.726452574e-01,9.30799e-01,9.99999e-01,9.99498e-01,9.31265e-01,9.99999e-01
7.765084837e-01,9.31913e-01,9.99999e-01,9.99289e-01,9.32576e-01,9.99998e-01
7.803910261e-01,9.30998e-01,9.99999e-01,9.96934e-01,9.33863e-01,9.99996e-01
7.842929812e-01,9.25143e-01,9.99999e-01,9.89343e-01,9.35126e-01,9.99979e-01
7.882144461e-01,9.15738e-01,9.99999e-01,9.78101e-01,9.36366e-01,9.99864e-01
7.921555184e-01,9.26017e-01,9.99999e-01,9.87921e-01,9.37582e-01,9.99738e-01
7.961162960e-01,9.18671e-01,9.99999e-01,9.78828e-01,9.38777e-01,9.99748e-01
8.000968774e-01,9.16679e-01,9.99999e-01,9.75503e-01,9.39949e-01,9.99732e-01
8.040973618e-01,9.17867e-01,9.99999e-01,9.75519e-01,9.41100e-01,9.99787e-01
8.081178486e-01,8.91160e-01,9.99999e-01,9.45987e-01,9.42229e-01,9.99800e-01
8.121584379e-01,7.49834e-01,9.99999e-01,7.95494e-01,9.43337e-01,9.99219e-01
8.162192301e-01,7.17879e-01,9.99999e-01,7.62358e-01,9.44424e-01,9.97067e-01
8.203003262e-01,8.26912e-01,9.99999e-01,8.77596e-01,9.45492e-01,9.96566e-01
8.244018279e-01,7.87948e-01,9.99999e-01,8.34732e-01,9.46539e-01,9.97266e-01
8.285238370e-01,8.03230e-01,9.99999e-01,8.49500e-01,9.47567e-01,9.97852e-01
8.326664562e-01,8.03912e-01,9.99999e-01,8.48247e-01,9.48575e-01,9.99111e-01
8.368297885e-01,8.43101e-01,9.99999e-01,8.88061e-01,9.49565e-01,9.99796e-01
8.410139374e-01,8.85539e-01,9.99999e-01,9.31730e-01,9.50536e-01,9.99880e-01
8.452190071e-01,9.18933e-01,9.99999e-01,9.65852e-01,9.51489e-01,9.99928e-01
8.494451021e-01,9.33370e-01,9.99999e-01,9.80049e-01,9.52424e-01,9.99942e-01
8.536923276e-01,9.42007e-01,9.99999e-01,9.88144e-01,9.53341e-01,9.99964e-01
8.579607893e-01,9.47258e-01,9.99999e-01,9.92689e-01,9.54242e-01,9.99991e-01
8.622505932e-01,9.50679e-01,9.99999e-01,9.95346e-01,9.55125e-01,9.99998e-01
8.665618462e-01,9.53240e-01,9.99999e-01,9.97122e-01,9.55991e-01,9.99998e-01
8.708946554e-01,9.53691e-01,9.99999e-01,9.96708e-01,9.56842e-01,9.99997e-01
8.752491287e-01,9.53455e-01,9.99999e-01,9.95596e-01,9.57676e-01,9.99994e-01
8.796253743e-01,9.52647e-01,9.99999e-01,9.93912e-01,9.58494e-01,9.99985e-01
8.840235012e-01,9.52589e-01,9.99999e-01,9.93048e-01,9.59297e-01,9.99957e-01
8.884436187e-01,9.36139e-01,9.99999e-01,9.75176e-01,9.60085e-01,9.99878e-01
8.928858368e-01,7.39817e-01,9.99999e-01,7.70491e-01,9.60858e-01,9.99302e-01
8.973502660e-01,6.05647e-01,9.99999e-01,6.32076e-01,9.61616e-01,9.96433e-01
9.018370173e-01,7.56850e-01,9.99999e-01,7.90882e-01,9.62359e-01,9.94398e-01
9.063462024e-01,7.79168e-01,9.99999e-01,8.13031e-01,9.63089e-01,9.95077e-01
9.108779334e-01,6.94429e-01,9.99999e-01,7.24211e-01,9.63805e-01,9.94885e-01
9.154323231e-01,6.63924e-01,9.99999e-01,6.91278e-01,9.64507e-01,9.95770e-01
9.200094847e-01,7.22240e-01,9.99999e-01,7.50060e-01,9.65196e-01,9.97630e-01
9.246095321e-01,6.30201e-01,9.99999e-01,6.54254e-01,9.65871e-01,9.97270e-01
9.292325798e-01,8.01556e-02,9.99999e-01,8.38195e-02,9.66534e-01,9.89398e-01
9.338787427e-01,3.32101e-02,9.99999e-01,3.58836e-02,9.67184e-01,9.56895e-01
9.385481364e-01,2.36017e-01,9.99999e-01,2.56984e-01,9.67821e-01,9.48945e-01
9.432408771e-01,1.55430e-01,9.99999e-01,1.67916e-01,9.68447e-01,9.55797e-01
9.479570815e-01,7.40276e-02,9.99999e-01,7.92542e-02,9.69060e-01,9.63874e-01
9.526968669e-01,1.30570e-01,9.99999e-01,1.37711e-01,9.69662e-01,9.77807e-01
9.574603512e-01,1.43320e-01,9.99999e-01,1.49408e-01,9.70252e-01,9.88664e-01
9.622476530e-01,1.96530e-01,9.99999e-01,2.04036e-01,9.70831e-01,9.92148e-01
9.670588912e-01,3.80605e-01,9.99999e-01,3.93929e-01,9.71399e-01,9.94623e-01
9.718941857e-01,5.25416e-01,9.99999e-01,5.42725e-01,9.71956e-01,9.96039e-01
9.767536566e-01,5.82939e-01,9.99999e-01,6.01241e-01,9.72502e-01,9.96971e-01
9.816374249e-01,6.64036e-01,9.99999e-01,6.83152e-01,9.73038e-01,9.98950e-01
9.865456120e-01,7.66022e-01,9.99999e-01,7.86994e-01,9.73563e-01,9.99781e-01
9.914783401e-01,8.39444e-01,9.99999e-01,8.61834e-01,9.74079e-01,9.99938e-01
9.964357318e-01,8.98703e-01,9.99999e-01,9.22172e-01,9.74584e-01,9.99964e-01
1.001417910e+00,9.28756e-01,9.99999e-01,9.52542e-01,9.75080e-01,9.99945e-01
1.006425000e+00,9.48826e-01,9.99999e-01,9.72664e-01,9.75566e-01,9.99922e-01
1.011457125e+00,9.59319e-01,9.99999e-01,9.82935e-01,9.76043e-01,9.99928e-01
1.016514411e+00,9.65122e-01,9.99999e-01,9.88386e-01,9.76510e-01,9.99949e-01
1.021596983e+00,9.67871e-01,9.99999e-01,9.90737e-01,9.76969e-01,9.99948e-01
1.026704968e+00,9.70319e-01,9.99999e-01,9.92769e-01,9.77419e-01,9.99965e-01
1.031838492e+00,9.72705e-01,9.99999e-01,9.94737e-01,9.77860e-01,9.99990e-01
1.036997685e+00,9.75233e-01,9.99999e-01,9.96873e-01,9.78292e-01,9.99998e-01
1.042182673e+00,9.75072e-01,9.99999e-01,9.96276e-01,9.78716e-01,9.99998e-01
1.047393587e+00,9.74298e-01,9.99999e-01,9.95062e-01,9.79132e-01,9.99998e-01
1.052630555e+00,9.72911e-01,9.99999e-01,9.93233e-01,9.79540e-01,9.99997e-01
1.057893707e+00,9.68898e-01,9.99999e-01,9.88734e-01,9.79940e-01,9.99995e-01
1.063183176e+00,9.62218e-01,9.99999e-01,9.81530e-01,9.80333e-01,9.99989e-01
1.068499092e+00,9.50557e-01,9.99999e-01,9.69266e-01,9.80717e-01,9.99978e-01
1.073841587e+00,9.45946e-01,9.99999e-01,9.64217e-01,9.81095e-01,9.99953e-01
1.079210795e+00,9.36471e-01,9.99999e-01,9.54275e-01,9.81465e-01,9.99874e-01
1.084606849e+00,9.14546e-01,9.99999e-01,9.31752e-01,9.81827e-01,9.99699e-01
1.090029883e+00,8.87294e-01,9.99999e-01,9.03951e-01,9.82183e-01,9.99377e-01
1.095480033e+00,7.45665e-01,9.99999e-01,7.59776e-01,9.82532e-01,9.98874e-01
1.100957433e+00,4.95076e-01,9.99999e-01,5.04747e-01,9.82874e-01,9.97929e-01
1.106462220e+00,1.92286e-01,9.99999e-01,1.96258e-01,9.83209e-01,9.96491e-01
1.111994531e+00,3.55210e-02,9.99999e-01,3.64540e-02,9.83538e-01,9.90712e-01
1.117554504e+00,5.98585e-03,9.99999e-01,6.29248e-03,9.83861e-01,9.66873e-01
1.123142276e+00,3.03162e-02,9.99999e-01,3.33654e-02,9.84177e-01,9.23220e-01
1.128757988e+00,7.59320e-02,9.99999e-01,8.45961e-02,9.84487e-01,9.11724e-01
1.134401778e+00,3.56178e-02,9.99999e-01,3.91247e-02,9.84791e-01,9.24425e-01
1.140073787e+00,1.92243e-01,9.99999e-01,2.07798e-01,9.85089e-01,9.39143e-01
1.145774156e+00,4.95829e-02,9.99999e-01,5.32951e-02,9.85382e-01,9.44148e-01
1.151503026e+00,3.62687e-02,9.99999e-01,3.79932e-02,9.85668e-01,9.68490e-01
1.157260541e+00,4.75062e-02,9.99999e-01,4.86466e-02,9.85949e-01,9.90472e-01
1.163046844e+00,1.02543e-01,9.99999e-01,1.04258e-01,9.86225e-01,9.97290e-01
1.168862078e+00,1.90588e-01,9.99999e-01,1.93467e-01,9.86495e-01,9.98602e-01
1.174706389e+00,3.54708e-01,9.99999e-01,3.60134e-01,9.86760e-01,9.98148e-01
1.180579921e+00,5.24848e-01,9.99999e-01,5.33241e-01,9.87020e-01,9.97201e-01
1.186482820e+00,6.86758e-01,9.99999e-01,6.97613e-01,9.87275e-01,9.97128e-01
1.192415234e+00,7.97774e-01,9.99999e-01,8.09593e-01,9.87524e-01,9.97848e-01
1.198377311e+00,8.25213e-01,9.99999e-01,8.37131e-01,9.87769e-01,9.97967e-01
1.204369197e+00,8.34279e-01,9.99999e-01,8.45958e-01,9.88009e-01,9.98160e-01
1.210391043e+00,8.40699e-01,9.99999e-01,8.51651e-01,9.88245e-01,9.98880e-01
1.216442998e+00,8.61608e-01,9.99999e-01,8.72250e-01,9.88476e-01,9.99314e-01
1.222525213e+00,8.88236e-01,9.99999e-01,8.98768e-01,9.88702e-01,9.99573e-01
1.228637839e+00,9.18058e-01,9.99999e-01,9.28524e-01,9.88924e-01,9.99801e-01
1.234781029e+00,9.36089e-01,9.99999e-01,9.46418e-01,9.89141e-01,9.99942e-01
1.240954934e+00,9.55484e-01,9.99999e-01,9.65779e-01,9.89355e-01,9.99983e-01
1.247159708e+00,9.63065e-01,9.99999e-01,9.73230e-01,9.89564e-01,9.99989e-01
1.253395507e+00,9.66208e-01,9.99999e-01,9.76208e-01,9.89769e-01,9.99986e-01
1.259662485e+00,9.67578e-01,9.99999e-01,9.77401e-01,9.89970e-01,9.99978e-01
1.265960797e+00,9.54616e-01,9.99999e-01,9.64128e-01,9.90167e-01,9.99964e-01
1.272290601e+00,9.35177e-01,9.99999e-01,9.44338e-01,9.90360e-01,9.99937e-01
1.278652054e+00,8.84257e-01,9.99999e-01,8.92791e-01,9.90550e-01,9.99889e-01
1.285045314e+00,8.29638e-01,9.99999e-01,8.37568e-01,9.90736e-01,9.99793e-01
1.291470541e+00,6.94651e-01,9.99999e-01,7.01271e-01,9.90918e-01,9.99637e-01
1.297927893e+00,6.26187e-01,9.99999e-01,6.32239e-01,9.91096e-01,9.99323e-01
1.304417533e+00,5.50779e-01,9.99999e-01,5.56424e-01,9.91271e-01,9.98568e-01
1.310939621e+00,5.06113e-01,9.99999e-01,5.11984e-01,9.91443e-01,9.97063e-01
1.317494319e+00,4.77970e-01,9.99999e-01,4.84642e-01,9.91611e-01,9.94575e-01
1.324081790e+00,3.42778e-01,9.99999e-01,3.48703e-01,9.91776e-01,9.91158e-01
1.330702199e+00,6.49507e-02,9.99999e-01,6.64889e-02,9.91938e-01,9.84803e-01
1.337355710e+00,1.28716e-04,9.99999e-01,1.33624e-04,9.92097e-01,9.70940e-01
1.344042489e+00,7.75299e-07,9.99999e-01,8.53931e-07,9.92252e-01,9.15005e-01
1.350762701e+00,6.93653e-21,9.99999e-01,9.47390e-21,9.92405e-01,7.37775e-01
1.357516515e+00,1.98188e-31,9.99999e-01,4.87456e-31,9.92554e-01,4.09624e-01
1.364304097e+00,1.25616e-19,9.99999e-01,6.04712e-19,9.92701e-01,2.09255e-01
1.371125618e+00,3.56509e-12,9.99999e-01,1.56912e-11,9.92844e-01,2.28841e-01
1.377981246e+00,1.34494e-11,9.99999e-01,4.79472e-11,9.92985e-01,2.82486e-01
1.384871152e+00,2.90358e-16,9.99999e-01,9.49518e-16,9.93123e-01,3.07912e-01
1.391795508e+00,1.02749e-19,9.99999e-01,3.17947e-19,9.93259e-01,3.25357e-01
1.398754485e+00,3.30767e-15,9.99999e-01,8.41806e-15,9.93391e-01,3.95539e-01
1.405748258e+00,5.34146e-15,9.99999e-01,9.24619e-15,9.93521e-01,5.81459e-01
1.412776999e+00,1.55529e-14,9.99999e-01,2.00489e-14,9.93649e-01,7.80703e-01
1.419840884e+00,2.72602e-14,9.99998e-01,3.05761e-14,9.93774e-01,8.97136e-01
1.426940089e+00,1.08904e-09,9.99998e-01,1.18991e-09,9.93896e-01,9.20842e-01
1.434074789e+00,1.63870e-08,9.99998e-01,1.81705e-08,9.94017e-01,9.07272e-01
1.441245163e+00,4.16544e-07,9.99999e-01,4.65577e-07,9.94134e-01,8.99960e-01
1.448451389e+00,5.28049e-05,9.99998e-01,5.82451e-05,9.94250e-01,9.11839e-01
1.455693646e+00,1.21815e-03,9.99998e-01,1.31626e-03,9.94363e-01,9.30705e-01
1.462972114e+00,1.80095e-03,9.99999e-01,1.93933e-03,9.94474e-01,9.33803e-01
1.470286975e+00,7.41460e-04,9.99999e-01,7.97414e-04,9.94583e-01,9.34893e-01
