#,Wave/freq,Total,N2,H2O,Rayleigh,CIA
4.000000000e-01,6.72489e-01,9.99999e-01,9.99954e-01,6.72519e-01,9.99999e-01
4.020000000e-01,6.77796e-01,9.99999e-01,9.99971e-01,6.77815e-01,9.99999e-01
4.040100000e-01,6.83034e-01,9.99999e-01,9.99987e-01,6.83042e-01,9.99999e-01
4.060300500e-01,6.88202e-01,9.99999e-01,9.99996e-01,6.88204e-01,9.99999e-01
4.080602003e-01,6.93302e-01,9.99999e-01,9.99998e-01,6.93302e-01,9.99999e-01
4.101005013e-01,6.98337e-01,9.99999e-01,9.99999e-01,6.98337e-01,9.99999e-01
4.121510038e-01,7.03306e-01,9.99999e-01,9.99997e-01,7.03307e-01,9.99999e-01
4.142117588e-01,7.08205e-01,9.99999e-01,9.99987e-01,7.08214e-01,9.99999e-01
4.162828176e-01,7.13017e-01,9.99999e-01,9.99944e-01,7.13056e-01,9.99999e-01
4.183642317e-01,7.17812e-01,9.99999e-01,9.99966e-01,7.17836e-01,9.99999e-01
4.204560528e-01,7.22537e-01,9.99999e-01,9.99979e-01,7.22552e-01,9.99999e-01
4.225583331e-01,7.27199e-01,9.99999e-01,9.99991e-01,7.27205e-01,9.99999e-01
4.246711247e-01,7.31790e-01,9.99999e-01,9.99993e-01,7.31795e-01,9.99999e-01
4.267944804e-01,7.36316e-01,9.99999e-01,9.99990e-01,7.36322e-01,9.99999e-01
4.289284528e-01,7.40782e-01,9.99999e-01,9.99992e-01,7.40787e-01,9.99999e-01
4.310730950e-01,7.45189e-01,9.99999e-01,9.99996e-01,7.45191e-01,9.99999e-01
4.332284605e-01,7.49532e-01,9.99999e-01,9.99998e-01,7.49532e-01,9.99999e-01
4.353946028e-01,7.53813e-01,9.99999e-01,9.99999e-01,7.53813e-01,9.99999e-01
4.375715758e-01,7.58029e-01,9.99999e-01,9.99994e-01,7.58033e-01,9.99999e-01
4.397594337e-01,7.62156e-01,9.99999e-01,9.99951e-01,7.62192e-01,9.99999e-01
4.419582309e-01,7.66105e-01,9.99999e-01,9.99756e-01,7.66291e-01,9.99999e-01
4.441680220e-01,7.70181e-01,9.99999e-01,9.99804e-01,7.70331e-01,9.99999e-01
4.463888621e-01,7.74156e-01,9.99999e-01,9.99798e-01,7.74312e-01,9.99999e-01
4.486208064e-01,7.78136e-01,9.99999e-01,9.99873e-01,7.78234e-01,9.99999e-01
4.508639105e-01,7.82051e-01,9.99999e-01,9.99940e-01,7.82097e-01,9.99999e-01
4.531182300e-01,7.85885e-01,9.99999e-01,9.99976e-01,7.85903e-01,9.99999e-01
4.553838212e-01,7.89640e-01,9.99999e-01,9.99983e-01,7.89652e-01,9.99999e-01
4.576607403e-01,7.93339e-01,9.99999e-01,9.99992e-01,7.93344e-01,9.99999e-01
4.599490440e-01,7.96976e-01,9.99999e-01,9.99994e-01,7.96980e-01,9.99999e-01
4.622487892e-01,8.00560e-01,9.99999e-01,9.99998e-01,8.00561e-01,9.99999e-01
4.645600332e-01,8.04083e-01,9.99999e-01,9.99996e-01,8.04086e-01,9.99999e-01
4.668828333e-01,8.07509e-01,9.99999e-01,9.99940e-01,8.07557e-01,9.99999e-01
4.692172475e-01,8.10871e-01,9.99999e-01,9.99873e-01,8.10973e-01,9.99999e-01
4.715633337e-01,8.14270e-01,9.99999e-01,9.99917e-01,8.14336e-01,9.99999e-01
4.739211504e-01,8.17582e-01,9.99999e-01,9.99920e-01,8.17647e-01,9.99999e-01
4.762907561e-01,8.20871e-01,9.99999e-01,9.99958e-01,8.20905e-01,9.99999e-01
4.786722099e-01,8.24097e-01,9.99999e-01,9.99982e-01,8.24111e-01,9.99999e-01
4.810655710e-01,8.27262e-01,9.99999e-01,9.99994e-01,8.27266e-01,9.99999e-01
4.834708988e-01,8.30331e-01,9.99999e-01,9.99952e-01,8.30370e-01,9.99999e-01
4.858882533e-01,8.33350e-01,9.99999e-01,9.99910e-01,8.33425e-01,9.99999e-01
4.883176946e-01,8.36368e-01,9.99999e-01,9.99925e-01,8.36430e-01,9.99999e-01
4.907592831e-01,8.39329e-01,9.99999e-01,9.99931e-01,8.39386e-01,9.99999e-01
4.932130795e-01,8.42254e-01,9.99999e-01,9.99951e-01,8.42294e-01,9.99999e-01
4.956791449e-01,8.45133e-01,9.99999e-01,9.99974e-01,8.45154e-01,9.99999e-01
4.981575406e-01,8.47861e-01,9.99999e-01,9.99873e-01,8.47967e-01,9.99999e-01
5.006483283e-01,8.50457e-01,9.99999e-01,9.99675e-01,8.50734e-01,9.99997e-01
5.031515699e-01,8.52024e-01,9.99999e-01,9.98340e-01,8.53455e-01,9.99982e-01
5.056673278e-01,8.55361e-01,9.99999e-01,9.99120e-01,8.56130e-01,9.99979e-01
5.081956644e-01,8.57797e-01,9.99999e-01,9.98889e-01,8.58761e-01,9.99986e-01
5.107366428e-01,8.60700e-01,9.99999e-01,9.99249e-01,8.61348e-01,9.99997e-01
5.132903260e-01,8.63520e-01,9.99999e-01,9.99569e-01,8.63891e-01,9.99999e-01
5.158567776e-01,8.66234e-01,9.99999e-01,9.99817e-01,8.66391e-01,9.99999e-01
5.184360615e-01,8.68786e-01,9.99999e-01,9.99926e-01,8.68849e-01,9.99999e-01
5.210282418e-01,8.71242e-01,9.99999e-01,9.99972e-01,8.71265e-01,9.99999e-01
5.236333830e-01,8.73545e-01,9.99999e-01,9.99891e-01,8.73640e-01,9.99998e-01
5.262515499e-01,8.75914e-01,9.99999e-01,9.99931e-01,8.75974e-01,9.99998e-01
5.288828077e-01,8.78213e-01,9.99999e-01,9.99937e-01,8.78268e-01,9.99998e-01
5.315272217e-01,8.80474e-01,9.99999e-01,9.99944e-01,8.80523e-01,9.99999e-01
5.341848578e-01,8.82707e-01,9.99999e-01,9.99963e-01,8.82739e-01,9.99999e-01
5.368557821e-01,8.84805e-01,9.99999e-01,9.99874e-01,8.84916e-01,9.99999e-01
5.395400610e-01,8.86654e-01,9.99999e-01,9.99550e-01,8.87056e-01,9.99995e-01
5.422377613e-01,8.88623e-01,9.99999e-01,9.99408e-01,8.89158e-01,9.99988e-01
5.449489501e-01,8.90729e-01,9.99999e-01,9.99454e-01,8.91224e-01,9.99988e-01
5.476736949e-01,8.92813e-01,9.99999e-01,9.99512e-01,8.93253e-01,9.99994e-01
5.504120634e-01,8.94930e-01,9.99999e-01,9.99646e-01,8.95247e-01,9.99998e-01
5.531641237e-01,8.97047e-01,9.99999e-01,9.99821e-01,8.97206e-01,9.99999e-01
5.559299443e-01,8.99053e-01,9.99999e-01,9.99913e-01,8.99131e-01,9.99999e-01
5.587095940e-01,9.00973e-01,9.99999e-01,9.99945e-01,9.01021e-01,9.99999e-01
5.615031420e-01,9.02824e-01,9.99999e-01,9.99939e-01,9.02878e-01,9.99999e-01
5.643106577e-01,9.04641e-01,9.99999e-01,9.99932e-01,9.04702e-01,9.99999e-01
5.671322110e-01,9.05759e-01,9.99999e-01,9.99196e-01,9.06493e-01,9.99992e-01
5.699678720e-01,9.07430e-01,9.99999e-01,9.99115e-01,9.08253e-01,9.99977e-01
5.728177114e-01,9.09137e-01,9.99999e-01,9.99091e-01,9.09981e-01,9.99980e-01
5.756818000e-01,9.10905e-01,9.99999e-01,9.99163e-01,9.11678e-01,9.99988e-01
5.785602090e-01,9.12674e-01,9.99999e-01,9.99269e-01,9.13345e-01,9.99996e-01
5.814530100e-01,9.14310e-01,9.99999e-01,9.99268e-01,9.14981e-01,9.99997e-01
5.843602750e-01,9.15793e-01,9.99999e-01,9.99136e-01,9.16588e-01,9.99994e-01
5.872820764e-01,9.11292e-01,9.99999e-01,9.92564e-01,9.18167e-01,9.99946e-01
5.902184868e-01,9.11211e-01,9.99999e-01,9.90894e-01,9.19716e-01,9.99855e-01
5.931695792e-01,9.15201e-01,9.99999e-01,9.93585e-01,9.21238e-01,9.99859e-01
5.961354271e-01,9.16150e-01,9.99999e-01,9.92949e-01,9.22732e-01,9.99914e-01
5.991161043e-01,9.19414e-01,9.99999e-01,9.94846e-01,9.24199e-01,9.99974e-01
6.021116848e-01,9.22923e-01,9.99999e-01,9.97068e-01,9.25639e-01,9.99996e-01
6.051222432e-01,9.25676e-01,9.99999e-01,9.98515e-01,9.27053e-01,9.99999e-01
6.081478544e-01,9.27847e-01,9.99999e-01,9.99359e-01,9.28441e-01,9.99999e-01
6.111885937e-01,9.29551e-01,9.99999e-01,9.99728e-01,9.29803e-01,9.99999e-01
6.142445367e-01,9.31028e-01,9.99999e-01,9.99878e-01,9.31141e-01,9.99999e-01
6.173157594e-01,9.32392e-01,9.99999e-01,9.99932e-01,9.32454e-01,9.99999e-01
6.204023382e-01,9.33691e-01,9.99999e-01,9.99943e-01,9.33743e-01,9.99999e-01
6.235043498e-01,9.34781e-01,9.99999e-01,9.99757e-01,9.35008e-01,9.99998e-01
6.266218716e-01,9.35016e-01,9.99999e-01,9.98690e-01,9.36250e-01,9.99990e-01
6.297549810e-01,9.37002e-01,9.99999e-01,9.99519e-01,9.37469e-01,9.99981e-01
6.329037559e-01,9.37758e-01,9.99999e-01,9.99047e-01,9.38666e-01,9.99984e-01
6.360682746e-01,9.39074e-01,9.99999e-01,9.99192e-01,9.39840e-01,9.99990e-01
6.392486160e-01,9.40003e-01,9.99999e-01,9.98951e-01,9.40992e-01,9.99995e-01
6.424448591e-01,9.40935e-01,9.99999e-01,9.98744e-01,9.42124e-01,9.99993e-01
6.456570834e-01,9.37178e-01,9.99999e-01,9.93614e-01,9.43234e-01,9.99963e-01
6.488853688e-01,9.38928e-01,9.99999e-01,9.94386e-01,9.44323e-01,9.99898e-01
6.521297956e-01,9.40713e-01,9.99999e-01,9.95134e-01,9.45392e-01,9.99914e-01
6.553904446e-01,9.41836e-01,9.99999e-01,9.95196e-01,9.46441e-01,9.99936e-01
6.586673968e-01,9.43513e-01,9.99999e-01,9.95842e-01,9.47471e-01,9.99978e-01
6.619607338e-01,9.46198e-01,9.99999e-01,9.97596e-01,9.48481e-01,9.99995e-01
6.652705375e-01,9.48145e-01,9.99999e-01,9.98602e-01,9.49473e-01,9.99997e-01
6.685968902e-01,9.49829e-01,9.99999e-01,9.99351e-01,9.50446e-01,9.99999e-01
6.719398746e-01,9.51114e-01,9.99999e-01,9.99698e-01,9.51400e-01,9.99999e-01
6.752995740e-01,9.52183e-01,9.99999e-01,9.99837e-01,9.52337e-01,9.99999e-01
6.786760719e-01,9.53035e-01,9.99999e-01,9.99767e-01,9.53256e-01,9.99999e-01
6.820694522e-01,9.53775e-01,9.99999e-01,9.99600e-01,9.54158e-01,9.99997e-01
6.854797995e-01,9.54548e-01,9.99999e-01,9.99485e-01,9.55043e-01,9.99995e-01
6.889071985e-01,9.54732e-01,9.99999e-01,9.98777e-01,9.55911e-01,9.99988e-01
6.923517345e-01,9.37487e-01,9.99999e-01,9.79948e-01,9.56763e-01,9.99901e-01
6.958134932e-01,9.47131e-01,9.99999e-01,9.89287e-01,9.57598e-01,9.99779e-01
6.992925606e-01,9.48689e-01,9.99999e-01,9.90040e-01,9.58418e-01,9.99805e-01
7.027890234e-01,9.47187e-01,9.99999e-01,9.87599e-01,9.59222e-01,9.99850e-01
7.063029686e-01,9.49933e-01,9.99999e-01,9.89574e-01,9.60012e-01,9.99925e-01
7.098344834e-01,9.51131e-01,9.99999e-01,9.89993e-01,9.60786e-01,9.99955e-01
7.133836558e-01,9.48864e-01,9.99999e-01,9.86897e-01,9.61545e-01,9.99912e-01
7.169505741e-01,8.64568e-01,9.99999e-01,8.99063e-01,9.62290e-01,9.99314e-01
7.205353270e-01,9.11938e-01,9.99999e-01,9.48100e-01,9.63021e-01,9.98791e-01
7.241380036e-01,9.00743e-01,9.99999e-01,9.35617e-01,9.63738e-01,9.98948e-01
7.277586936e-01,9.07384e-01,9.99999e-01,9.41660e-01,9.64441e-01,9.99126e-01
7.313974871e-01,9.04482e-01,9.99999e-01,9.37533e-01,9.65131e-01,9.99600e-01
7.350544745e-01,9.32297e-01,9.99999e-01,9.65435e-01,9.65808e-01,9.99860e-01
7.387297469e-01,9.41681e-01,9.99999e-01,9.74410e-01,9.66472e-01,9.99935e-01
7.424233956e-01,9.54888e-01,9.99999e-01,9.87359e-01,9.67123e-01,9.99987e-01
7.461355126e-01,9.60345e-01,9.99999e-01,9.92337e-01,9.67762e-01,9.99997e-01
7.498661902e-01,9.64917e-01,9.99999e-01,9.96414e-01,9.68389e-01,9.99998e-01
7.536155211e-01,9.67304e-01,9.99999e-01,9.98246e-01,9.69003e-01,9.99999e-01
7.573835987e-01,9.68730e-01,9.99999e-01,9.99095e-01,9.69606e-01,9.99999e-01
7.611705167e-01,9.69653e-01,9.99999e-01,9.99438e-01,9.70197e-01,9.99999e-01
7.649763693e-01,9.70437e-01,9.99999e-01,9.99648e-01,9.70777e-01,9.99999e-01
7.688012511e-01,9.71109e-01,9.99999e-01,9.99755e-01,9.71346e-01,9.99999e-01
7.726452574e-01,9.71709e-01,9.99999e-01,9.99798e-01,9.71904e-01,9.99999e-01
7.765084837e-01,9.72176e-01,9.99999e-01,9.99716e-01,9.72451e-01,9.99999e-01
7.803910261e-01,9.71801e-01,9.99999e-01,9.98780e-01,9.72988e-01,9.99998e-01
7.842929812e-01,9.69370e-01,9.99999e-01,9.95749e-01,9.73515e-01,9.99991e-01
7.882144461e-01,9.65379e-01,9.99999e-01,9.91170e-01,9.74031e-01,9.99945e-01
7.921555184e-01,9.69682e-01,9.99999e-01,9.95121e-01,9.74537e-01,9.99894e-01
7.961162960e-01,9.66653e-01,9.99999e-01,9.91503e-01,9.75034e-01,9.99899e-01
8.000968774e-01,9.65783e-01,9.99999e-01,9.90123e-01,9.75521e-01,9.99892e-01
8.040973618e-01,9.66291e-01,9.99999e-01,9.90137e-01,9.75999e-01,9.99914e-01
8.081178486e-01,9.54993e-01,9.99999e-01,9.78086e-01,9.76467e-01,9.99920e-01
8.121584379e-01,8.90432e-01,9.99999e-01,9.11747e-01,9.76926e-01,9.99686e-01
8.162192301e-01,8.73747e-01,9.99999e-01,8.95022e-01,9.77377e-01,9.98824e-01
8.203003262e-01,9.25442e-01,9.99999e-01,9.47738e-01,9.77819e-01,9.98623e-01
8.244018279e-01,9.04856e-01,9.99999e-01,9.25986e-01,9.78252e-01,9.98904e-01
8.285238370e-01,9.15561e-01,9.99999e-01,9.36314e-01,9.78677e-01,9.99139e-01
8.326664562e-01,9.15503e-01,9.99999e-01,9.35383e-01,9.79094e-01,9.99643e-01
8.368297885e-01,9.33608e-01,9.99999e-01,9.53221e-01,9.79502e-01,9.99918e-01
8.410139374e-01,9.52336e-01,9.99999e-01,9.71913e-01,9.79903e-01,9.99951e-01
8.452190071e-01,9.66651e-01,9.99999e-01,9.86108e-01,9.80296e-01,9.99971e-01
8.494451021e-01,9.72767e-01,9.99999e-01,9.91951e-01,9.80682e-01,9.99976e-01
8.536923276e-01,9.76350e-01,9.99999e-01,9.95214e-01,9.81060e-01,9.99984e-01
8.579607893e-01,9.78543e-01,9.99999e-01,9.97061e-01,9.81430e-01,9.99995e-01
8.622505932e-01,9.79955e-01,9.99999e-01,9.98127e-01,9.81794e-01,9.99998e-01
8.665618462e-01,9.81017e-01,9.99999e-01,9.98846e-01,9.82150e-01,9.99999e-01
8.708946554e-01,9.81205e-01,9.99999e-01,9.98682e-01,9.82499e-01,9.99998e-01
8.752491287e-01,9.81107e-01,9.99999e-01,9.98235e-01,9.82842e-01,9.99997e-01
8.796253743e-01,9.80781e-01,9.99999e-01,9.97566e-01,9.83178e-01,9.99994e-01
8.840235012e-01,9.80755e-01,9.99999e-01,9.97218e-01,9.83508e-01,9.99982e-01
8.884436187e-01,9.74062e-01,9.99999e-01,9.90117e-01,9.83831e-01,9.99951e-01
8.928858368e-01,8.85005e-01,9.99999e-01,8.99511e-01,9.84148e-01,9.99720e-01
8.973502660e-01,8.13704e-01,9.99999e-01,8.27732e-01,9.84458e-01,9.98570e-01
9.018370173e-01,8.91442e-01,9.99999e-01,9.07273e-01,9.84763e-01,9.97753e-01
9.063462024e-01,9.03711e-01,9.99999e-01,9.19229e-01,9.85061e-01,9.98025e-01
9.108779334e-01,8.61649e-01,9.99999e-01,8.76252e-01,9.85354e-01,9.97948e-01
9.154323231e-01,8.46338e-01,9.99999e-01,8.60124e-01,9.85642e-01,9.98304e-01
9.200094847e-01,8.75213e-01,9.99999e-01,8.88551e-01,9.85923e-01,9.99050e-01
9.246095321e-01,8.25001e-01,9.99999e-01,8.37461e-01,9.86199e-01,9.98905e-01
9.292325798e-01,3.07322e-01,9.99999e-01,3.12869e-01,9.86470e-01,9.95741e-01
9.338787427e-01,2.13585e-01,9.99999e-01,2.20308e-01,9.86735e-01,9.82513e-01
9.385481364e-01,5.22820e-01,9.99999e-01,5.40940e-01,9.86996e-01,9.79236e-01
9.432408771e-01,4.25556e-01,9.99999e-01,4.38924e-01,9.87251e-01,9.82061e-01
9.479570815e-01,3.13759e-01,9.99999e-01,3.22445e-01,9.87501e-01,9.85375e-01
9.526968669e-01,4.08492e-01,9.99999e-01,4.17292e-01,9.87746e-01,9.91054e-01
9.574603512e-01,4.30640e-01,9.99999e-01,4.37870e-01,9.87987e-01,9.95445e-01
9.622476530e-01,4.98266e-01,9.99999e-01,5.05798e-01,9.88223e-01,9.96848e-01
9.670588912e-01,6.64851e-01,9.99999e-01,6.74070e-01,9.88454e-01,9.97843e-01
9.718941857e-01,7.68996e-01,9.99999e-01,7.79036e-01,9.88681e-01,9.98411e-01
9.767536566e-01,8.02712e-01,9.99999e-01,8.12705e-01,9.88903e-01,9.98786e-01
9.816374249e-01,8.47140e-01,9.99999e-01,8.56816e-01,9.89121e-01,9.99579e-01
9.865456120e-01,8.98033e-01,9.99999e-01,9.07792e-01,9.89335e-01,9.99912e-01
9.914783401e-01,9.32067e-01,9.99999e-01,9.41937e-01,9.89544e-01,9.99975e-01
9.964357318e-01,9.58003e-01,9.99999e-01,9.67937e-01,9.89750e-01,9.99985e-01
1.001417910e+00,9.70775e-01,9.99999e-01,9.80650e-01,9.89951e-01,9.99977e-01
1.006425000e+00,9.79178e-01,9.99999e-01,9.88950e-01,9.90149e-01,9.99968e-01
1.011457125e+00,9.83488e-01,9.99999e-01,9.93106e-01,9.90342e-01,9.99970e-01
1.016514411e+00,9.85881e-01,9.99999e-01,9.95324e-01,9.90532e-01,9.99979e-01
1.021596983e+00,9.87009e-01,9.99999e-01,9.96275e-01,9.90718e-01,9.99979e-01
1.026704968e+00,9.88011e-01,9.99999e-01,9.97096e-01,9.90901e-01,9.99985e-01
1.031838492e+00,9.88979e-01,9.99999e-01,9.97883e-01,9.91080e-01,9.99995e-01
1.036997685e+00,9.90012e-01,9.99999e-01,9.98745e-01,9.91255e-01,9.99998e-01
1.042182673e+00,9.89951e-01,9.99999e-01,9.98510e-01,9.91427e-01,9.99999e-01
1.047393587e+00,9.89634e-01,9.99999e-01,9.98021e-01,9.91596e-01,9.99999e-01
1.052630555e+00,9.89073e-01,9.99999e-01,9.97289e-01,9.91761e-01,9.99998e-01
1.057893707e+00,9.87446e-01,9.99999e-01,9.95487e-01,9.91923e-01,9.99997e-01
1.063183176e+00,9.84711e-01,9.99999e-01,9.92573e-01,9.92082e-01,9.99995e-01
1.068499092e+00,9.79902e-01,9.99999e-01,9.87575e-01,9.92238e-01,9.99991e-01
1.073841587e+00,9.77996e-01,9.99999e-01,9.85512e-01,9.92390e-01,9.99981e-01
1.079210795e+00,9.74024e-01,9.99999e-01,9.81393e-01,9.92540e-01,9.99949e-01
1.084606849e+00,9.64809e-01,9.99999e-01,9.72033e-01,9.92687e-01,9.99879e-01
1.090029883e+00,9.53247e-01,9.99999e-01,9.60369e-01,9.92831e-01,9.99750e-01
1.095480033e+00,8.88782e-01,9.99999e-01,8.95475e-01,9.92972e-01,9.99548e-01
1.100957433e+00,7.50797e-01,9.99999e-01,7.56632e-01,9.93110e-01,9.99170e-01
1.106462220e+00,4.96044e-01,9.99999e-01,5.00120e-01,9.93246e-01,9.98593e-01
1.111994531e+00,2.34332e-01,9.99999e-01,2.36776e-01,9.93379e-01,9.96270e-01
1.117554504e+00,9.96378e-02,9.99999e-01,1.01651e-01,9.93509e-01,9.86602e-01
1.123142276e+00,1.92283e-01,9.99999e-01,1.99803e-01,9.93637e-01,9.68520e-01
1.128757988e+00,3.25073e-01,9.99999e-01,3.39443e-01,9.93762e-01,9.63673e-01
1.134401778e+00,1.48254e-01,9.99999e-01,1.54049e-01,9.93885e-01,9.68305e-01
1.140073787e+00,4.99115e-01,9.99999e-01,5.15252e-01,9.94005e-01,9.74521e-01
1.145774156e+00,2.55764e-01,9.99999e-01,2.63265e-01,9.94124e-01,9.77251e-01
1.151503026e+00,2.25589e-01,9.99999e-01,2.29823e-01,9.94239e-01,9.87262e-01
1.157260541e+00,2.73784e-01,9.99999e-01,2.76395e-01,9.94353e-01,9.96174e-01
1.163046844e+00,3.80475e-01,9.99999e-01,3.83008e-01,9.94464e-01,9.98913e-01
1.168862078e+00,5.04005e-01,9.99999e-01,5.07038e-01,9.94573e-01,9.99440e-01
1.174706389e+00,6.53361e-01,9.99999e-01,6.57343e-01,9.94680e-01,9.99258e-01
1.180579921e+00,7.68835e-01,9.99999e-01,7.73732e-01,9.94785e-01,9.98878e-01
1.186482820e+00,8.59325e-01,9.99999e-01,8.64735e-01,9.94887e-01,9.98848e-01
1.192415234e+00,9.13263e-01,9.99999e-01,9.18654e-01,9.94988e-01,9.99137e-01
1.198377311e+00,9.25824e-01,9.99999e-01,9.31152e-01,9.95087e-01,9.99185e-01
1.204369197e+00,9.29574e-01,9.99999e-01,9.34761e-01,9.95184e-01,9.99262e-01
1.210391043e+00,9.32600e-01,9.99999e-01,9.37443e-01,9.95278e-01,9.99551e-01
1.216442998e+00,9.41760e-01,9.99999e-01,9.46398e-01,9.95372e-01,9.99725e-01
1.222525213e+00,9.53518e-01,9.99999e-01,9.58026e-01,9.95463e-01,9.99829e-01
1.228637839e+00,9.66292e-01,9.99999e-01,9.70685e-01,9.95552e-01,9.99920e-01
1.234781029e+00,9.73836e-01,9.99999e-01,9.78122e-01,9.95640e-01,9.99976e-01
1.240954934e+00,9.81907e-01,9.99999e-01,9.86127e-01,9.95726e-01,9.99993e-01
1.247159708e+00,9.85022e-01,9.99999e-01,9.89170e-01,9.95810e-01,9.99995e-01
1.253395507e+00,9.86322e-01,9.99999e-01,9.90394e-01,9.95892e-01,9.99994e-01
1.259662485e+00,9.86971e-01,9.99999e-01,9.90968e-01,9.95973e-01,9.99991e-01
1.265960797e+00,9.81619e-01,9.99999e-01,9.85521e-01,9.96053e-01,9.99985e-01
1.272290601e+00,9.74967e-01,9.99999e-01,9.78778e-01,9.96131e-01,9.99974e-01
1.278652054e+00,9.52022e-01,9.99999e-01,9.55688e-01,9.96207e-01,9.99955e-01
1.285045314e+00,9.27848e-01,9.99999e-01,9.31387e-01,9.96282e-01,9.99916e-01
1.291470541e+00,8.63310e-01,9.99999e-01,8.66593e-01,9.96355e-01,9.99854e-01
1.297927893e+00,8.26562e-01,9.99999e-01,8.29750e-01,9.96427e-01,9.99728e-01
1.304417533e+00,7.83048e-01,9.99999e-01,7.86250e-01,9.96497e-01,9.99426e-01
1.310939621e+00,7.57149e-01,9.99999e-01,7.60652e-01,9.96566e-01,9.98823e-01
1.317494319e+00,7.37497e-01,9.99999e-01,7.41600e-01,9.96634e-01,9.97824e-01
1.324081790e+00,6.38625e-01,9.99999e-01,6.43021e-01,9.96700e-01,9.96450e-01
1.330702199e+00,2.34075e-01,9.99999e-01,2.36278e-01,9.96765e-01,9.93887e-01
1.337355710e+00,1.65510e-02,9.99999e-01,1.68008e-02,9.96829e-01,9.88261e-01
1.344042489e+00,4.53862e-04,9.99999e-01,4.71759e-04,9.96892e-01,9.65060e-01
1.350762701e+00,1.62297e-09,9.99999e-01,1.83872e-09,9.96953e-01,8.85357e-01
1.357516515e+00,8.41521e-14,9.99999e-01,1.20659e-13,9.97013e-01,6.99528e-01
1.364304097e+00,5.56221e-09,9.99999e-01,1.04355e-08,9.97072e-01,5.34575e-01
1.371125618e+00,4.31102e-06,9.99999e-01,7.80299e-06,9.97130e-01,5.54073e-01
1.377981246e+00,1.60258e-05,9.99999e-01,2.66597e-05,9.97186e-01,6.02819e-01
1.384871152e+00,7.36115e-08,9.99999e-01,1.18900e-07,9.97242e-01,6.20816e-01
1.391795508e+00,6.97593e-09,9.99999e-01,1.09840e-08,9.97296e-01,6.36823e-01
1.398754485e+00,3.14500e-07,9.99999e-01,4.57143e-07,9.97349e-01,6.89796e-01
1.405748258e+00,4.16375e-07,9.99999e-01,5.18677e-07,9.97402e-01,8.04853e-01
1.412776999e+00,4.49766e-07,9.99999e-01,4.97898e-07,9.97453e-01,9.05634e-01
1.419840884e+00,1.00781e-06,9.99999e-01,1.05521e-06,9.97503e-01,9.57469e-01
1.426940089e+00,3.74347e-05,9.99999e-01,3.87862e-05,9.97552e-01,9.67520e-01
1.434074789e+00,2.84982e-04,9.99999e-01,2.97017e-04,9.97601e-01,9.61786e-01
1.441245163e+00,1.31708e-03,9.99999e-01,1.37709e-03,9.97648e-01,9.58675e-01
1.448451389e+00,1.00154e-02,9.99999e-01,1.04164e-02,9.97694e-01,9.63722e-01
1.455693646e+00,4.24002e-02,9.99999e-01,4.37358e-02,9.97740e-01,9.71656e-01
1.462972114e+00,6.08798e-02,9.99999e-01,6.27112e-02,9.97784e-01,9.72950e-01
1.470286975e+00,3.92400e-02,9.99999e-01,4.03998e-02,9.97828e-01,9.73404e-01
