#,Wave/freq,Total,N2,H2O,Rayleigh,CIA
4.000000000e-01,9.17550e-01,9.99999e-01,9.99989e-01,9.17558e-01,9.99999e-01
4.020000000e-01,9.19115e-01,9.99999e-01,9.99993e-01,9.19121e-01,9.99999e-01
4.040100000e-01,9.20651e-01,9.99999e-01,9.99996e-01,9.20653e-01,9.99999e-01
4.060300500e-01,9.22157e-01,9.99999e-01,9.99998e-01,9.22158e-01,9.99999e-01
4.080602003e-01,9.23635e-01,9.99999e-01,9.99999e-01,9.23635e-01,9.99999e-01
4.101005013e-01,9.25085e-01,9.99999e-01,9.99999e-01,9.25085e-01,9.99999e-01
4.121510038e-01,9.26509e-01,9.99999e-01,9.99999e-01,9.26509e-01,9.99999e-01
4.142117588e-01,9.27905e-01,9.99999e-01,9.99996e-01,9.27907e-01,9.99999e-01
4.162828176e-01,9.29269e-01,9.99999e-01,9.99987e-01,9.29280e-01,9.99999e-01
4.183642317e-01,9.30620e-01,9.99999e-01,9.99992e-01,9.30627e-01,9.99999e-01
4.204560528e-01,9.31945e-01,9.99999e-01,9.99995e-01,9.31950e-01,9.99999e-01
4.225583331e-01,9.33246e-01,9.99999e-01,9.99997e-01,9.33248e-01,9.99999e-01
4.246711247e-01,9.34521e-01,9.99999e-01,9.99998e-01,9.34522e-01,9.99999e-01
4.267944804e-01,9.35771e-01,9.99999e-01,9.99997e-01,9.35773e-01,9.99999e-01
4.289284528e-01,9.36999e-01,9.99999e-01,9.99998e-01,9.37001e-01,9.99999e-01
4.310730950e-01,9.38205e-01,9.99999e-01,9.99998e-01,9.38206e-01,9.99999e-01
4.332284605e-01,9.39389e-01,9.99999e-01,9.99999e-01,9.39389e-01,9.99999e-01
4.353946028e-01,9.40549e-01,9.99999e-01,9.99999e-01,9.40550e-01,9.99999e-01
4.375715758e-01,9.41688e-01,9.99999e-01,9.99998e-01,9.41689e-01,9.99999e-01
4.397594337e-01,9.42797e-01,9.99999e-01,9.99988e-01,9.42807e-01,9.99999e-01
4.419582309e-01,9.43854e-01,9.99999e-01,9.99945e-01,9.43904e-01,9.99999e-01
4.441680220e-01,9.44942e-01,9.99999e-01,9.99957e-01,9.44981e-01,9.99999e-01
4.463888621e-01,9.45997e-01,9.99999e-01,9.99955e-01,9.46038e-01,9.99999e-01
4.486208064e-01,9.47050e-01,9.99999e-01,9.99972e-01,9.47075e-01,9.99999e-01
4.508639105e-01,9.48081e-01,9.99999e-01,9.99986e-01,9.48093e-01,9.99999e-01
4.531182300e-01,9.49087e-01,9.99999e-01,9.99994e-01,9.49092e-01,9.99999e-01
4.553838212e-01,9.50069e-01,9.99999e-01,9.99996e-01,9.50072e-01,9.99999e-01
4.576607403e-01,9.51032e-01,9.99999e-01,9.99997e-01,9.51034e-01,9.99999e-01
4.599490440e-01,9.51976e-01,9.99999e-01,9.99998e-01,9.51977e-01,9.99999e-01
4.622487892e-01,9.52903e-01,9.99999e-01,9.99999e-01,9.52903e-01,9.99999e-01
4.645600332e-01,9.53811e-01,9.99999e-01,9.99998e-01,9.53811e-01,9.99999e-01
4.668828333e-01,9.54691e-01,9.99999e-01,9.99986e-01,9.54703e-01,9.99999e-01
4.692172475e-01,9.55551e-01,9.99999e-01,9.99972e-01,9.55577e-01,9.99999e-01
4.715633337e-01,9.56418e-01,9.99999e-01,9.99981e-01,9.56435e-01,9.99999e-01
4.739211504e-01,9.57261e-01,9.99999e-01,9.99982e-01,9.57277e-01,9.99999e-01
4.762907561e-01,9.58095e-01,9.99999e-01,9.99990e-01,9.58103e-01,9.99999e-01
4.786722099e-01,9.58910e-01,9.99999e-01,9.99995e-01,9.58913e-01,9.99999e-01
4.810655710e-01,9.59707e-01,9.99999e-01,9.99998e-01,9.59708e-01,9.99999e-01
4.834708988e-01,9.60478e-01,9.99999e-01,9.99989e-01,9.60488e-01,9.99999e-01
4.858882533e-01,9.61235e-01,9.99999e-01,9.99980e-01,9.61253e-01,9.99999e-01
4.883176946e-01,9.61988e-01,9.99999e-01,9.99983e-01,9.62004e-01,9.99999e-01
4.907592831e-01,9.62726e-01,9.99999e-01,9.99984e-01,9.62740e-01,9.99999e-01
4.932130795e-01,9.63453e-01,9.99999e-01,9.99989e-01,9.63463e-01,9.99999e-01
4.956791449e-01,9.64166e-01,9.99999e-01,9.99994e-01,9.64171e-01,9.99999e-01
4.981575406e-01,9.64840e-01,9.99999e-01,9.99972e-01,9.64866e-01,9.99999e-01
5.006483283e-01,9.65479e-01,9.99999e-01,9.99928e-01,9.65548e-01,9.99999e-01
5.031515699e-01,9.65865e-01,9.99999e-01,9.99638e-01,9.66217e-01,9.99995e-01
5.056673278e-01,9.66685e-01,9.99999e-01,9.99809e-01,9.66873e-01,9.99995e-01
5.081956644e-01,9.67282e-01,9.99999e-01,9.99759e-01,9.67517e-01,9.99996e-01
5.107366428e-01,9.67990e-01,9.99999e-01,9.99837e-01,9.68148e-01,9.99998e-01
5.132903260e-01,9.68677e-01,9.99999e-01,9.99906e-01,9.68767e-01,9.99999e-01
5.158567776e-01,9.69337e-01,9.99999e-01,9.99960e-01,9.69375e-01,9.99999e-01
5.184360615e-01,9.69955e-01,9.99999e-01,9.99983e-01,9.69970e-01,9.99999e-01
5.210282418e-01,9.70549e-01,9.99999e-01,9.99993e-01,9.70555e-01,9.99999e-01
5.236333830e-01,9.71105e-01,9.99999e-01,9.99976e-01,9.71128e-01,9.99999e-01
5.262515499e-01,9.71675e-01,9.99999e-01,9.99984e-01,9.71690e-01,9.99999e-01
5.288828077e-01,9.72228e-01,9.99999e-01,9.99986e-01,9.72241e-01,9.99999e-01
5.315272217e-01,9.72770e-01,9.99999e-01,9.99987e-01,9.72782e-01,9.99999e-01
5.341848578e-01,9.73305e-01,9.99999e-01,9.99991e-01,9.73312e-01,9.99999e-01
5.368557821e-01,9.73806e-01,9.99999e-01,9.99972e-01,9.73833e-01,9.99999e-01
5.395400610e-01,9.74246e-01,9.99999e-01,9.99900e-01,9.74343e-01,9.99998e-01
5.422377613e-01,9.74716e-01,9.99999e-01,9.99871e-01,9.74843e-01,9.99997e-01
5.449489501e-01,9.75216e-01,9.99999e-01,9.99880e-01,9.75334e-01,9.99997e-01
5.476736949e-01,9.75711e-01,9.99999e-01,9.99894e-01,9.75815e-01,9.99998e-01
5.504120634e-01,9.76212e-01,9.99999e-01,9.99923e-01,9.76287e-01,9.99999e-01
5.531641237e-01,9.76712e-01,9.99999e-01,9.99961e-01,9.76750e-01,9.99999e-01
5.559299443e-01,9.77186e-01,9.99999e-01,9.99980e-01,9.77204e-01,9.99999e-01
5.587095940e-01,9.77638e-01,9.99999e-01,9.99987e-01,9.77649e-01,9.99999e-01
5.615031420e-01,9.78073e-01,9.99999e-01,9.99986e-01,9.78086e-01,9.99999e-01
5.643106577e-01,9.78499e-01,9.99999e-01,9.99984e-01,9.78514e-01,9.99999e-01
5.671322110e-01,9.78758e-01,9.99999e-01,9.99821e-01,9.78934e-01,9.99997e-01
5.699678720e-01,9.79155e-01,9.99999e-01,9.99809e-01,9.79345e-01,9.99994e-01
5.728177114e-01,9.79552e-01,9.99999e-01,9.99801e-01,9.79749e-01,9.99995e-01
5.756818000e-01,9.79965e-01,9.99999e-01,9.99818e-01,9.80145e-01,9.99997e-01
5.785602090e-01,9.80378e-01,9.99999e-01,9.99841e-01,9.80534e-01,9.99998e-01
5.814530100e-01,9.80758e-01,9.99999e-01,9.99840e-01,9.80914e-01,9.99999e-01
5.843602750e-01,9.81101e-01,9.99999e-01,9.99810e-01,9.81288e-01,9.99998e-01
5.872820764e-01,9.80041e-01,9.99999e-01,9.98367e-01,9.81654e-01,9.99988e-01
5.902184868e-01,9.80040e-01,9.99999e-01,9.98021e-01,9.82013e-01,9.99968e-01
5.931695792e-01,9.80963e-01,9.99999e-01,9.98601e-01,9.82365e-01,9.99969e-01
5.961354271e-01,9.81188e-01,9.99999e-01,9.98467e-01,9.82710e-01,9.99982e-01
5.991161043e-01,9.81945e-01,9.99999e-01,9.98882e-01,9.83049e-01,9.99994e-01
6.021116848e-01,9.82757e-01,9.99999e-01,9.99365e-01,9.83381e-01,9.99998e-01
6.051222432e-01,9.83391e-01,9.99999e-01,9.99678e-01,9.83707e-01,9.99999e-01
6.081478544e-01,9.83890e-01,9.99999e-01,9.99861e-01,9.84026e-01,9.99999e-01
6.111885937e-01,9.84281e-01,9.99999e-01,9.99940e-01,9.84339e-01,9.99999e-01
6.142445367e-01,9.84620e-01,9.99999e-01,9.99973e-01,9.84646e-01,9.99999e-01
6.173157594e-01,9.84933e-01,9.99999e-01,9.99985e-01,9.84947e-01,9.99999e-01
6.204023382e-01,9.85230e-01,9.99999e-01,9.99987e-01,9.85242e-01,9.99999e-01
6.235043498e-01,9.85478e-01,9.99999e-01,9.99945e-01,9.85531e-01,9.99999e-01
6.266218716e-01,9.85533e-01,9.99999e-01,9.99715e-01,9.85815e-01,9.99997e-01
6.297549810e-01,9.85986e-01,9.99999e-01,9.99895e-01,9.86093e-01,9.99995e-01
6.329037559e-01,9.86159e-01,9.99999e-01,9.99793e-01,9.86366e-01,9.99996e-01
6.360682746e-01,9.86458e-01,9.99999e-01,9.99824e-01,9.86633e-01,9.99997e-01
6.392486160e-01,9.86670e-01,9.99999e-01,9.99772e-01,9.86896e-01,9.99998e-01
6.424448591e-01,9.86851e-01,9.99999e-01,9.99695e-01,9.87153e-01,9.99998e-01
6.456570834e-01,9.86002e-01,9.99999e-01,9.98586e-01,9.87405e-01,9.99991e-01
6.488853688e-01,9.86607e-01,9.99999e-01,9.98963e-01,9.87652e-01,9.99977e-01
6.521297956e-01,9.86833e-01,9.99999e-01,9.98943e-01,9.87895e-01,9.99981e-01
6.553904446e-01,9.87081e-01,9.99999e-01,9.98949e-01,9.88132e-01,9.99986e-01
6.586673968e-01,9.87471e-01,9.99999e-01,9.99099e-01,9.88365e-01,9.99995e-01
6.619607338e-01,9.88079e-01,9.99999e-01,9.99479e-01,9.88594e-01,9.99998e-01
6.652705375e-01,9.88520e-01,9.99999e-01,9.99698e-01,9.88818e-01,9.99999e-01
6.685968902e-01,9.88899e-01,9.99999e-01,9.99859e-01,9.89037e-01,9.99999e-01
6.719398746e-01,9.89189e-01,9.99999e-01,9.99934e-01,9.89253e-01,9.99999e-01
6.752995740e-01,9.89429e-01,9.99999e-01,9.99964e-01,9.89464e-01,9.99999e-01
6.786760719e-01,9.89621e-01,9.99999e-01,9.99948e-01,9.89671e-01,9.99999e-01
6.820694522e-01,9.89788e-01,9.99999e-01,9.99912e-01,9.89874e-01,9.99999e-01
6.854797995e-01,9.89961e-01,9.99999e-01,9.99887e-01,9.90073e-01,9.99998e-01
6.889071985e-01,9.89998e-01,9.99999e-01,9.99729e-01,9.90268e-01,9.99997e-01
6.923517345e-01,9.86058e-01,9.99999e-01,9.95576e-01,9.90459e-01,9.99978e-01
6.958134932e-01,9.88316e-01,9.99999e-01,9.97693e-01,9.90647e-01,9.99952e-01
6.992925606e-01,9.88623e-01,9.99999e-01,9.97813e-01,9.90831e-01,9.99957e-01
7.027890234e-01,9.88303e-01,9.99999e-01,9.97299e-01,9.91011e-01,9.99967e-01
7.063029686e-01,9.88922e-01,9.99999e-01,9.97729e-01,9.91188e-01,9.99983e-01
7.098344834e-01,9.89193e-01,9.99999e-01,9.97822e-01,9.91361e-01,9.99990e-01
7.133836558e-01,9.88637e-01,9.99999e-01,9.97099e-01,9.91531e-01,9.99980e-01
7.169505741e-01,9.68518e-01,9.99999e-01,9.76770e-01,9.91698e-01,9.99850e-01
7.205353270e-01,9.80262e-01,9.99999e-01,9.88564e-01,9.91861e-01,9.99737e-01
7.241380036e-01,9.77440e-01,9.99999e-01,9.85524e-01,9.92021e-01,9.99773e-01
7.277586936e-01,9.79026e-01,9.99999e-01,9.86926e-01,9.92178e-01,9.99814e-01
7.313974871e-01,9.78465e-01,9.99999e-01,9.86110e-01,9.92332e-01,9.99912e-01
7.350544745e-01,9.84910e-01,9.99999e-01,9.92399e-01,9.92483e-01,9.99969e-01
7.387297469e-01,9.87065e-01,9.99999e-01,9.94405e-01,9.92631e-01,9.99985e-01
7.424233956e-01,9.90054e-01,9.99999e-01,9.97260e-01,9.92776e-01,9.99996e-01
7.461355126e-01,9.91269e-01,9.99999e-01,9.98339e-01,9.92918e-01,9.99999e-01
7.498661902e-01,9.92289e-01,9.99999e-01,9.99226e-01,9.93057e-01,9.99999e-01
7.536155211e-01,9.92817e-01,9.99999e-01,9.99620e-01,9.93194e-01,9.99999e-01
7.573835987e-01,9.93134e-01,9.99999e-01,9.99804e-01,9.93328e-01,9.99999e-01
7.611705167e-01,9.93339e-01,9.99999e-01,9.99878e-01,9.93459e-01,9.99999e-01
7.649763693e-01,9.93512e-01,9.99999e-01,9.99923e-01,9.93588e-01,9.99999e-01
7.688012511e-01,9.93662e-01,9.99999e-01,9.99946e-01,9.93714e-01,9.99999e-01
7.726452574e-01,9.93795e-01,9.99999e-01,9.99956e-01,9.93838e-01,9.99999e-01
7.765084837e-01,9.93898e-01,9.99999e-01,9.99937e-01,9.93959e-01,9.99999e-01
7.803910261e-01,9.93813e-01,9.99999e-01,9.99732e-01,9.94078e-01,9.99999e-01
7.842929812e-01,9.93266e-01,9.99999e-01,9.99067e-01,9.94195e-01,9.99997e-01
7.882144461e-01,9.92386e-01,9.99999e-01,9.98077e-01,9.94309e-01,9.99987e-01
7.921555184e-01,9.93350e-01,9.99999e-01,9.98944e-01,9.94421e-01,9.99976e-01
7.961162960e-01,9.92657e-01,9.99999e-01,9.98137e-01,9.94531e-01,9.99977e-01
8.000968774e-01,9.92476e-01,9.99999e-01,9.97847e-01,9.94639e-01,9.99976e-01
8.040973618e-01,9.92585e-01,9.99999e-01,9.97847e-01,9.94744e-01,9.99981e-01
8.081178486e-01,9.90007e-01,9.99999e-01,9.95150e-01,9.94848e-01,9.99982e-01
8.121584379e-01,9.74864e-01,9.99999e-01,9.79878e-01,9.94949e-01,9.99931e-01
8.162192301e-01,9.71031e-01,9.99999e-01,9.76111e-01,9.95049e-01,9.99744e-01
8.203003262e-01,9.82895e-01,9.99999e-01,9.87983e-01,9.95146e-01,9.99700e-01
8.244018279e-01,9.78247e-01,9.99999e-01,9.83157e-01,9.95242e-01,9.99761e-01
8.285238370e-01,9.80932e-01,9.99999e-01,9.85712e-01,9.95336e-01,9.99812e-01
8.326664562e-01,9.80963e-01,9.99999e-01,9.85544e-01,9.95428e-01,9.99922e-01
8.368297885e-01,9.85219e-01,9.99999e-01,9.89672e-01,9.95518e-01,9.99981e-01
8.410139374e-01,9.89479e-01,9.99999e-01,9.93855e-01,9.95606e-01,9.99989e-01
8.452190071e-01,9.92684e-01,9.99999e-01,9.96984e-01,9.95693e-01,9.99993e-01
8.494451021e-01,9.94031e-01,9.99999e-01,9.98250e-01,9.95778e-01,9.99994e-01
8.536923276e-01,9.94828e-01,9.99999e-01,9.98964e-01,9.95861e-01,9.99996e-01
8.579607893e-01,9.95307e-01,9.99999e-01,9.99362e-01,9.95942e-01,9.99998e-01
8.622505932e-01,9.95619e-01,9.99999e-01,9.99594e-01,9.96022e-01,9.99999e-01
8.665618462e-01,9.95851e-01,9.99999e-01,9.99749e-01,9.96101e-01,9.99999e-01
8.708946554e-01,9.95892e-01,9.99999e-01,9.99713e-01,9.96178e-01,9.99999e-01
8.752491287e-01,9.95871e-01,9.99999e-01,9.99616e-01,9.96253e-01,9.99999e-01
8.796253743e-01,9.95797e-01,9.99999e-01,9.99468e-01,9.96327e-01,9.99998e-01
8.840235012e-01,9.95792e-01,9.99999e-01,9.99393e-01,9.96399e-01,9.99995e-01
8.884436187e-01,9.94257e-01,9.99999e-01,9.97789e-01,9.96470e-01,9.99989e-01
8.928858368e-01,9.73386e-01,9.99999e-01,9.76824e-01,9.96540e-01,9.99938e-01
8.973502660e-01,9.55705e-01,9.99999e-01,9.59255e-01,9.96608e-01,9.99689e-01
9.018370173e-01,9.75242e-01,9.99999e-01,9.78972e-01,9.96675e-01,9.99511e-01
9.063462024e-01,9.77906e-01,9.99999e-01,9.81523e-01,9.96740e-01,9.99571e-01
9.108779334e-01,9.67777e-01,9.99999e-01,9.71310e-01,9.96805e-01,9.99554e-01
9.154323231e-01,9.64114e-01,9.99999e-01,9.67498e-01,9.96868e-01,9.99631e-01
9.200094847e-01,9.71234e-01,9.99999e-01,9.74425e-01,9.96929e-01,9.99793e-01
9.246095321e-01,9.56818e-01,9.99999e-01,9.59934e-01,9.96990e-01,9.99762e-01
9.292325798e-01,7.55345e-01,9.99999e-01,7.58281e-01,9.97049e-01,9.99074e-01
9.338787427e-01,6.93902e-01,9.99999e-01,6.98582e-01,9.97107e-01,9.96179e-01
9.385481364e-01,8.59375e-01,9.99999e-01,8.65749e-01,9.97164e-01,9.95458e-01
9.432408771e-01,8.10799e-01,9.99999e-01,8.16257e-01,9.97220e-01,9.96080e-01
9.479570815e-01,7.48639e-01,9.99999e-01,7.53086e-01,9.97275e-01,9.96808e-01
9.526968669e-01,8.07058e-01,9.99999e-01,8.10798e-01,9.97329e-01,9.98052e-01
9.574603512e-01,8.24768e-01,9.99999e-01,8.27751e-01,9.97382e-01,9.99009e-01
9.622476530e-01,8.55209e-01,9.99999e-01,8.57996e-01,9.97433e-01,9.99315e-01
9.670588912e-01,9.12987e-01,9.99999e-01,9.15718e-01,9.97484e-01,9.99531e-01
9.718941857e-01,9.44089e-01,9.99999e-01,9.46749e-01,9.97533e-01,9.99654e-01
9.767536566e-01,9.53054e-01,9.99999e-01,9.55615e-01,9.97582e-01,9.99736e-01
9.816374249e-01,9.64570e-01,9.99999e-01,9.66949e-01,9.97630e-01,9.99908e-01
9.865456120e-01,9.76946e-01,9.99999e-01,9.79239e-01,9.97677e-01,9.99980e-01
9.914783401e-01,9.84874e-01,9.99999e-01,9.87127e-01,9.97722e-01,9.99994e-01
9.964357318e-01,9.90751e-01,9.99999e-01,9.92970e-01,9.97767e-01,9.99996e-01
1.001417910e+00,9.93599e-01,9.99999e-01,9.95782e-01,9.97811e-01,9.99994e-01
1.006425000e+00,9.95448e-01,9.99999e-01,9.97594e-01,9.97854e-01,9.99992e-01
1.011457125e+00,9.96401e-01,9.99999e-01,9.98506e-01,9.97897e-01,9.99993e-01
1.016514411e+00,9.96922e-01,9.99999e-01,9.98985e-01,9.97938e-01,9.99995e-01
1.021596983e+00,9.97169e-01,9.99999e-01,9.99191e-01,9.97979e-01,9.99995e-01
1.026704968e+00,9.97387e-01,9.99999e-01,9.99369e-01,9.98019e-01,9.99996e-01
1.031838492e+00,9.97600e-01,9.99999e-01,9.99541e-01,9.98058e-01,9.99998e-01
1.036997685e+00,9.97825e-01,9.99999e-01,9.99727e-01,9.98096e-01,9.99999e-01
1.042182673e+00,9.97810e-01,9.99999e-01,9.99675e-01,9.98134e-01,9.99999e-01
1.047393587e+00,9.97741e-01,9.99999e-01,9.99569e-01,9.98171e-01,9.99999e-01
1.052630555e+00,9.97618e-01,9.99999e-01,9.99409e-01,9.98207e-01,9.99999e-01
1.057893707e+00,9.97259e-01,9.99999e-01,9.99015e-01,9.98242e-01,9.99999e-01
1.063183176e+00,9.96658e-01,9.99999e-01,9.98379e-01,9.98277e-01,9.99998e-01
1.068499092e+00,9.95600e-01,9.99999e-01,9.97286e-01,9.98311e-01,9.99997e-01
1.073841587e+00,9.95169e-01,9.99999e-01,9.96823e-01,9.98344e-01,9.99995e-01
1.079210795e+00,9.94303e-01,9.99999e-01,9.95930e-01,9.98377e-01,9.99988e-01
1.084606849e+00,9.92237e-01,9.99999e-01,9.93843e-01,9.98409e-01,9.99973e-01
1.090029883e+00,9.89567e-01,9.99999e-01,9.91166e-01,9.98440e-01,9.99945e-01
1.095480033e+00,9.74513e-01,9.99999e-01,9.76100e-01,9.98471e-01,9.99901e-01
1.100957433e+00,9.38662e-01,9.99999e-01,9.40239e-01,9.98501e-01,9.99819e-01
1.106462220e+00,8.52579e-01,9.99999e-01,8.54094e-01,9.98531e-01,9.99694e-01
1.111994531e+00,7.14572e-01,9.99999e-01,7.16183e-01,9.98560e-01,9.99189e-01
1.117554504e+00,5.78316e-01,9.99999e-01,5.80830e-01,9.98588e-01,9.97077e-01
1.123142276e+00,6.60226e-01,9.99999e-01,6.65744e-01,9.98616e-01,9.93084e-01
1.128757988e+00,7.66316e-01,9.99999e-01,7.73540e-01,9.98643e-01,9.92004e-01
1.134401778e+00,5.36305e-01,9.99999e-01,5.40696e-01,9.98670e-01,9.93197e-01
1.140073787e+00,8.53892e-01,9.99999e-01,8.59681e-01,9.98696e-01,9.94561e-01
1.145774156e+00,7.22326e-01,9.99999e-01,7.26869e-01,9.98722e-01,9.95020e-01
1.151503026e+00,6.96510e-01,9.99999e-01,6.99325e-01,9.98747e-01,9.97222e-01
1.157260541e+00,7.44432e-01,9.99999e-01,7.45966e-01,9.98772e-01,9.99168e-01
1.163046844e+00,8.04563e-01,9.99999e-01,8.05721e-01,9.98796e-01,9.99763e-01
1.168862078e+00,8.60318e-01,9.99999e-01,8.61438e-01,9.98820e-01,9.99878e-01
1.174706389e+00,9.10898e-01,9.99999e-01,9.12099e-01,9.98843e-01,9.99838e-01
1.180579921e+00,9.44269e-01,9.99999e-01,9.45570e-01,9.98866e-01,9.99756e-01
1.186482820e+00,9.67602e-01,9.99999e-01,9.68919e-01,9.98888e-01,9.99749e-01
1.192415234e+00,9.80507e-01,9.99999e-01,9.81760e-01,9.98910e-01,9.99812e-01
1.198377311e+00,9.83381e-01,9.99999e-01,9.84605e-01,9.98932e-01,9.99822e-01
1.204369197e+00,9.84227e-01,9.99999e-01,9.85416e-01,9.98953e-01,9.99839e-01
1.210391043e+00,9.84948e-01,9.99999e-01,9.86055e-01,9.98973e-01,9.99902e-01
1.216442998e+00,9.87071e-01,9.99999e-01,9.88123e-01,9.98994e-01,9.99939e-01
1.222525213e+00,9.89734e-01,9.99999e-01,9.90747e-01,9.99013e-01,9.99962e-01
1.228637839e+00,9.92591e-01,9.99999e-01,9.93568e-01,9.99033e-01,9.99982e-01
1.234781029e+00,9.94272e-01,9.99999e-01,9.95220e-01,9.99052e-01,9.99994e-01
1.240954934e+00,9.96049e-01,9.99999e-01,9.96976e-01,9.99071e-01,9.99998e-01
1.247159708e+00,9.96735e-01,9.99999e-01,9.97644e-01,9.99089e-01,9.99998e-01
1.253395507e+00,9.97017e-01,9.99999e-01,9.97909e-01,9.99107e-01,9.99998e-01
1.259662485e+00,9.97139e-01,9.99999e-01,9.98014e-01,9.99125e-01,9.99997e-01
1.265960797e+00,9.95969e-01,9.99999e-01,9.96826e-01,9.99142e-01,9.99996e-01
1.272290601e+00,9.94178e-01,9.99999e-01,9.95020e-01,9.99159e-01,9.99994e-01
1.278652054e+00,9.89287e-01,9.99999e-01,9.90112e-01,9.99175e-01,9.99989e-01
1.285045314e+00,9.81306e-01,9.99999e-01,9.82116e-01,9.99192e-01,9.99981e-01
1.291470541e+00,9.68233e-01,9.99999e-01,9.69031e-01,9.99208e-01,9.99968e-01
1.297927893e+00,9.58955e-01,9.99999e-01,9.59756e-01,9.99223e-01,9.99940e-01
1.304417533e+00,9.47618e-01,9.99999e-01,9.48458e-01,9.99239e-01,9.99875e-01
1.310939621e+00,9.40241e-01,9.99999e-01,9.41183e-01,9.99254e-01,9.99744e-01
1.317494319e+00,9.35218e-01,9.99999e-01,9.36345e-01,9.99268e-01,9.99527e-01
1.324081790e+00,9.04618e-01,9.99999e-01,9.05965e-01,9.99283e-01,9.99228e-01
1.330702199e+00,6.51436e-01,9.99999e-01,6.52762e-01,9.99297e-01,9.98670e-01
1.337355710e+00,3.49032e-01,9.99999e-01,3.50168e-01,9.99311e-01,9.97441e-01
1.344042489e+00,5.72548e-02,9.99999e-01,5.77372e-02,9.99324e-01,9.92314e-01
1.350762701e+00,3.60679e-03,9.99999e-01,3.70578e-03,9.99338e-01,9.73931e-01
1.357516515e+00,5.57518e-04,9.99999e-01,6.02847e-04,9.99351e-01,9.25408e-01
1.364304097e+00,5.67389e-03,9.99999e-01,6.50369e-03,9.99363e-01,8.72965e-01
1.371125618e+00,3.04171e-02,9.99999e-01,3.45952e-02,9.99376e-01,8.79776e-01
1.377981246e+00,5.08799e-02,9.99999e-01,5.68192e-02,9.99388e-01,8.96016e-01
1.384871152e+00,4.92299e-03,9.99999e-01,5.45659e-03,9.99400e-01,9.02749e-01
1.391795508e+00,8.05959e-03,9.99999e-01,8.89041e-03,9.99412e-01,9.07080e-01
1.398754485e+00,1.52646e-02,9.99999e-01,1.65547e-02,9.99424e-01,9.22600e-01
1.405748258e+00,1.49380e-02,9.99999e-01,1.56672e-02,9.99435e-01,9.53997e-01
1.412776999e+00,1.73698e-02,9.99999e-01,1.77571e-02,9.99446e-01,9.78727e-01
1.419840884e+00,2.22953e-02,9.99999e-01,2.25187e-02,9.99457e-01,9.90615e-01
1.426940089e+00,5.19523e-02,9.99999e-01,5.23536e-02,9.99468e-01,9.92862e-01
1.434074789e+00,1.02904e-01,9.99999e-01,1.03831e-01,9.99478e-01,9.91583e-01
1.441245163e+00,1.86319e-01,9.99999e-01,1.88129e-01,9.99489e-01,9.90886e-01
1.448451389e+00,2.98213e-01,9.99999e-01,3.00764e-01,9.99499e-01,9.92015e-01
1.455693646e+00,4.58996e-01,9.99999e-01,4.62094e-01,9.99509e-01,9.93781e-01
1.462972114e+00,5.14672e-01,9.99999e-01,5.17992e-01,9.99518e-01,9.94068e-01
1.470286975e+00,4.59777e-01,9.99999e-01,4.62691e-01,9.99528e-01,9.94169e-01
