#,Wave/freq,Total,N2,H2O,Rayleigh,CIA
4.000000000e-01,5.86802e-01,9.99999e-01,9.99939e-01,5.86837e-01,9.99999e-01
4.020000000e-01,5.93032e-01,9.99999e-01,9.99962e-01,5.93055e-01,9.99999e-01
4.040100000e-01,5.99197e-01,9.99999e-01,9.99983e-01,5.99207e-01,9.99999e-01
4.060300500e-01,6.05297e-01,9.99999e-01,9.99995e-01,6.05299e-01,9.99999e-01
4.080602003e-01,6.11331e-01,9.99999e-01,9.99998e-01,6.11331e-01,9.99999e-01
4.101005013e-01,6.17303e-01,9.99999e-01,9.99999e-01,6.17303e-01,9.99999e-01
4.121510038e-01,6.23211e-01,9.99999e-01,9.99997e-01,6.23213e-01,9.99999e-01
4.142117588e-01,6.29051e-01,9.99999e-01,9.99983e-01,6.29061e-01,9.99999e-01
4.162828176e-01,6.34800e-01,9.99999e-01,9.99924e-01,6.34847e-01,9.99999e-01
4.183642317e-01,6.40542e-01,9.99999e-01,9.99955e-01,6.40570e-01,9.99999e-01
4.204560528e-01,6.46213e-01,9.99999e-01,9.99972e-01,6.46231e-01,9.99999e-01
4.225583331e-01,6.51821e-01,9.99999e-01,9.99989e-01,6.51828e-01,9.99999e-01
4.246711247e-01,6.57356e-01,9.99999e-01,9.99991e-01,6.57362e-01,9.99999e-01
4.267944804e-01,6.62824e-01,9.99999e-01,9.99987e-01,6.62831e-01,9.99999e-01
4.289284528e-01,6.68231e-01,9.99999e-01,9.99990e-01,6.68237e-01,9.99999e-01
4.310730950e-01,6.73577e-01,9.99999e-01,9.99995e-01,6.73580e-01,9.99999e-01
4.332284605e-01,6.78857e-01,9.99999e-01,9.99998e-01,6.78857e-01,9.99999e-01
4.353946028e-01,6.84071e-01,9.99999e-01,9.99999e-01,6.84071e-01,9.99999e-01
4.375715758e-01,6.89216e-01,9.99999e-01,9.99992e-01,6.89221e-01,9.99999e-01
4.397594337e-01,6.94262e-01,9.99999e-01,9.99935e-01,6.94307e-01,9.99999e-01
4.419582309e-01,6.99100e-01,9.99999e-01,9.99673e-01,6.99328e-01,9.99999e-01
4.441680220e-01,7.04102e-01,9.99999e-01,9.99738e-01,7.04286e-01,9.99999e-01
4.463888621e-01,7.08988e-01,9.99999e-01,9.99729e-01,7.09180e-01,9.99999e-01
4.486208064e-01,7.13890e-01,9.99999e-01,9.99830e-01,7.14010e-01,9.99999e-01
4.508639105e-01,7.18720e-01,9.99999e-01,9.99920e-01,7.18777e-01,9.99999e-01
4.531182300e-01,7.23457e-01,9.99999e-01,9.99968e-01,7.23480e-01,9.99999e-01
4.553838212e-01,7.28105e-01,9.99999e-01,9.99978e-01,7.28120e-01,9.99999e-01
4.576607403e-01,7.32691e-01,9.99999e-01,9.99989e-01,7.32698e-01,9.99999e-01
4.599490440e-01,7.37208e-01,9.99999e-01,9.99992e-01,7.37213e-01,9.99999e-01
4.622487892e-01,7.41665e-01,9.99999e-01,9.99998e-01,7.41666e-01,9.99999e-01
4.645600332e-01,7.46054e-01,9.99999e-01,9.99994e-01,7.46057e-01,9.99999e-01
4.668828333e-01,7.50328e-01,9.99999e-01,9.99920e-01,7.50387e-01,9.99999e-01
4.692172475e-01,7.54528e-01,9.99999e-01,9.99830e-01,7.54655e-01,9.99999e-01
4.715633337e-01,7.58779e-01,9.99999e-01,9.99889e-01,7.58863e-01,9.99999e-01
4.739211504e-01,7.62929e-01,9.99999e-01,9.99893e-01,7.63010e-01,9.99999e-01
4.762907561e-01,7.67055e-01,9.99999e-01,9.99944e-01,7.67098e-01,9.99999e-01
4.786722099e-01,7.71108e-01,9.99999e-01,9.99976e-01,7.71126e-01,9.99999e-01
4.810655710e-01,7.75090e-01,9.99999e-01,9.99992e-01,7.75095e-01,9.99999e-01
4.834708988e-01,7.78956e-01,9.99999e-01,9.99936e-01,7.79005e-01,9.99999e-01
4.858882533e-01,7.82763e-01,9.99999e-01,9.99879e-01,7.82857e-01,9.99999e-01
4.883176946e-01,7.86574e-01,9.99999e-01,9.99899e-01,7.86652e-01,9.99999e-01
4.907592831e-01,7.90318e-01,9.99999e-01,9.99908e-01,7.90390e-01,9.99999e-01
4.932130795e-01,7.94019e-01,9.99999e-01,9.99935e-01,7.94071e-01,9.99999e-01
4.956791449e-01,7.97668e-01,9.99999e-01,9.99965e-01,7.97695e-01,9.99999e-01
4.981575406e-01,8.01129e-01,9.99999e-01,9.99830e-01,8.01265e-01,9.99999e-01
5.006483283e-01,8.04426e-01,9.99999e-01,9.99564e-01,8.04779e-01,9.99996e-01
5.031515699e-01,8.06420e-01,9.99999e-01,9.97771e-01,8.08239e-01,9.99976e-01
5.056673278e-01,8.10665e-01,9.99999e-01,9.98818e-01,8.11645e-01,9.99972e-01
5.081956644e-01,8.13769e-01,9.99999e-01,9.98509e-01,8.14998e-01,9.99982e-01
5.107366428e-01,8.17471e-01,9.99999e-01,9.98992e-01,8.18298e-01,9.99996e-01
5.132903260e-01,8.21071e-01,9.99999e-01,9.99422e-01,8.21545e-01,9.99999e-01
5.158567776e-01,8.24540e-01,9.99999e-01,9.99755e-01,8.24741e-01,9.99999e-01
5.184360615e-01,8.27805e-01,9.99999e-01,9.99901e-01,8.27886e-01,9.99999e-01
5.210282418e-01,8.30950e-01,9.99999e-01,9.99963e-01,8.30981e-01,9.99999e-01
5.236333830e-01,8.33903e-01,9.99999e-01,9.99854e-01,8.34025e-01,9.99998e-01
5.262515499e-01,8.36943e-01,9.99999e-01,9.99908e-01,8.37020e-01,9.99998e-01
5.288828077e-01,8.39896e-01,9.99999e-01,9.99916e-01,8.39967e-01,9.99998e-01
5.315272217e-01,8.42803e-01,9.99999e-01,9.99925e-01,8.42865e-01,9.99999e-01
5.341848578e-01,8.45676e-01,9.99999e-01,9.99951e-01,8.45716e-01,9.99999e-01
5.368557821e-01,8.48377e-01,9.99999e-01,9.99831e-01,8.48520e-01,9.99999e-01
5.395400610e-01,8.50759e-01,9.99999e-01,9.99395e-01,8.51278e-01,9.99994e-01
5.422377613e-01,8.53300e-01,9.99999e-01,9.99206e-01,8.53989e-01,9.99985e-01
5.449489501e-01,8.56016e-01,9.99999e-01,9.99267e-01,8.56656e-01,9.99984e-01
5.476736949e-01,8.58710e-01,9.99999e-01,9.99345e-01,8.59278e-01,9.99992e-01
5.504120634e-01,8.61445e-01,9.99999e-01,9.99524e-01,8.61856e-01,9.99997e-01
5.531641237e-01,8.64184e-01,9.99999e-01,9.99760e-01,8.64391e-01,9.99999e-01
5.559299443e-01,8.66782e-01,9.99999e-01,9.99884e-01,8.66882e-01,9.99999e-01
5.587095940e-01,8.69269e-01,9.99999e-01,9.99927e-01,8.69332e-01,9.99999e-01
5.615031420e-01,8.71670e-01,9.99999e-01,9.99919e-01,8.71740e-01,9.99999e-01
5.643106577e-01,8.74028e-01,9.99999e-01,9.99910e-01,8.74106e-01,9.99998e-01
5.671322110e-01,8.75478e-01,9.99999e-01,9.98919e-01,8.76433e-01,9.99990e-01
5.699678720e-01,8.77650e-01,9.99999e-01,9.98813e-01,8.78719e-01,9.99969e-01
5.728177114e-01,8.79869e-01,9.99999e-01,9.98779e-01,8.80966e-01,9.99974e-01
5.756818000e-01,8.82169e-01,9.99999e-01,9.98876e-01,8.83174e-01,9.99984e-01
5.785602090e-01,8.84471e-01,9.99999e-01,9.99018e-01,8.85344e-01,9.99994e-01
5.814530100e-01,8.86602e-01,9.99999e-01,9.99016e-01,8.87476e-01,9.99997e-01
5.843602750e-01,8.88533e-01,9.99999e-01,9.98839e-01,8.89571e-01,9.99992e-01
5.872820764e-01,8.82674e-01,9.99999e-01,9.90025e-01,8.91630e-01,9.99928e-01
5.902184868e-01,8.82570e-01,9.99999e-01,9.87789e-01,8.93652e-01,9.99806e-01
5.931695792e-01,8.87766e-01,9.99999e-01,9.91395e-01,8.95639e-01,9.99811e-01
5.961354271e-01,8.89002e-01,9.99999e-01,9.90542e-01,8.97591e-01,9.99885e-01
5.991161043e-01,8.93259e-01,9.99999e-01,9.93084e-01,8.99508e-01,9.99966e-01
6.021116848e-01,8.97842e-01,9.99999e-01,9.96065e-01,9.01392e-01,9.99995e-01
6.051222432e-01,9.01442e-01,9.99999e-01,9.98006e-01,9.03242e-01,9.99999e-01
6.081478544e-01,9.04282e-01,9.99999e-01,9.99140e-01,9.05060e-01,9.99999e-01
6.111885937e-01,9.06514e-01,9.99999e-01,9.99635e-01,9.06845e-01,9.99999e-01
6.142445367e-01,9.08451e-01,9.99999e-01,9.99837e-01,9.08598e-01,9.99999e-01
6.173157594e-01,9.10239e-01,9.99999e-01,9.99910e-01,9.10320e-01,9.99999e-01
6.204023382e-01,9.11942e-01,9.99999e-01,9.99924e-01,9.12011e-01,9.99999e-01
6.235043498e-01,9.13373e-01,9.99999e-01,9.99673e-01,9.13672e-01,9.99998e-01
6.266218716e-01,9.13682e-01,9.99999e-01,9.98240e-01,9.15303e-01,9.99987e-01
6.297549810e-01,9.16290e-01,9.99999e-01,9.99354e-01,9.16904e-01,9.99974e-01
6.329037559e-01,9.17283e-01,9.99999e-01,9.98720e-01,9.18476e-01,9.99979e-01
6.360682746e-01,9.19013e-01,9.99999e-01,9.98915e-01,9.20021e-01,9.99987e-01
6.392486160e-01,9.20234e-01,9.99999e-01,9.98591e-01,9.21537e-01,9.99994e-01
6.424448591e-01,9.21461e-01,9.99999e-01,9.98313e-01,9.23025e-01,9.99991e-01
6.456570834e-01,9.16516e-01,9.99999e-01,9.91426e-01,9.24487e-01,9.99951e-01
6.488853688e-01,9.18828e-01,9.99999e-01,9.92473e-01,9.25922e-01,9.99863e-01
6.521297956e-01,9.21173e-01,9.99999e-01,9.93472e-01,9.27330e-01,9.99885e-01
6.553904446e-01,9.22647e-01,9.99999e-01,9.93552e-01,9.28713e-01,9.99914e-01
6.586673968e-01,9.24857e-01,9.99999e-01,9.94421e-01,9.30071e-01,9.99971e-01
6.619607338e-01,9.28393e-01,9.99999e-01,9.96772e-01,9.31404e-01,9.99993e-01
6.652705375e-01,9.30960e-01,9.99999e-01,9.98124e-01,9.32712e-01,9.99996e-01
6.685968902e-01,9.33183e-01,9.99999e-01,9.99129e-01,9.33996e-01,9.99999e-01
6.719398746e-01,9.34879e-01,9.99999e-01,9.99595e-01,9.35257e-01,9.99999e-01
6.752995740e-01,9.36290e-01,9.99999e-01,9.99781e-01,9.36494e-01,9.99999e-01
6.786760719e-01,9.37416e-01,9.99999e-01,9.99687e-01,9.37708e-01,9.99999e-01
6.820694522e-01,9.38395e-01,9.99999e-01,9.99463e-01,9.38900e-01,9.99996e-01
6.854797995e-01,9.39416e-01,9.99999e-01,9.99309e-01,9.40070e-01,9.99993e-01
6.889071985e-01,9.39658e-01,9.99999e-01,9.98356e-01,9.41219e-01,9.99984e-01
6.923517345e-01,9.16940e-01,9.99999e-01,9.73166e-01,9.42346e-01,9.99868e-01
6.958134932e-01,9.29646e-01,9.99999e-01,9.85657e-01,9.43452e-01,9.99703e-01
6.992925606e-01,9.31678e-01,9.99999e-01,9.86642e-01,9.44537e-01,9.99739e-01
7.027890234e-01,9.29705e-01,9.99999e-01,9.83384e-01,9.45602e-01,9.99799e-01
7.063029686e-01,9.33323e-01,9.99999e-01,9.86022e-01,9.46647e-01,9.99900e-01
7.098344834e-01,9.34903e-01,9.99999e-01,9.86582e-01,9.47673e-01,9.99940e-01
7.133836558e-01,9.31909e-01,9.99999e-01,9.82436e-01,9.48680e-01,9.99882e-01
7.169505741e-01,8.22979e-01,9.99999e-01,8.67394e-01,9.49667e-01,9.99079e-01
7.205353270e-01,8.83801e-01,9.99999e-01,9.31204e-01,9.50637e-01,9.98377e-01
7.241380036e-01,8.69196e-01,9.99999e-01,9.14707e-01,9.51588e-01,9.98588e-01
7.277586936e-01,8.77803e-01,9.99999e-01,9.22639e-01,9.52521e-01,9.98826e-01
7.313974871e-01,8.73994e-01,9.99999e-01,9.17169e-01,9.53436e-01,9.99462e-01
7.350544745e-01,9.10176e-01,9.99999e-01,9.53905e-01,9.54335e-01,9.99813e-01
7.387297469e-01,9.22471e-01,9.99999e-01,9.65801e-01,9.55216e-01,9.99914e-01
7.424233956e-01,9.39876e-01,9.99999e-01,9.83066e-01,9.56081e-01,9.99983e-01
7.461355126e-01,9.47094e-01,9.99999e-01,9.89723e-01,9.56930e-01,9.99996e-01
7.498661902e-01,9.53154e-01,9.99999e-01,9.95189e-01,9.57762e-01,9.99998e-01
7.536155211e-01,9.56322e-01,9.99999e-01,9.97645e-01,9.58579e-01,9.99998e-01
7.573835987e-01,9.58216e-01,9.99999e-01,9.98786e-01,9.59380e-01,9.99999e-01
7.611705167e-01,9.59443e-01,9.99999e-01,9.99245e-01,9.60166e-01,9.99999e-01
7.649763693e-01,9.60485e-01,9.99999e-01,9.99528e-01,9.60938e-01,9.99999e-01
7.688012511e-01,9.61379e-01,9.99999e-01,9.99671e-01,9.61694e-01,9.99999e-01
7.726452574e-01,9.62177e-01,9.99999e-01,9.99730e-01,9.62436e-01,9.99999e-01
7.765084837e-01,9.62798e-01,9.99999e-01,9.99619e-01,9.63165e-01,9.99999e-01
7.803910261e-01,9.62298e-01,9.99999e-01,9.98361e-01,9.63879e-01,9.99997e-01
7.842929812e-01,9.59064e-01,9.99999e-01,9.94292e-01,9.64579e-01,9.99988e-01
7.882144461e-01,9.53768e-01,9.99999e-01,9.88158e-01,9.65267e-01,9.99926e-01
7.921555184e-01,9.59485e-01,9.99999e-01,9.93455e-01,9.65941e-01,9.99858e-01
7.961162960e-01,9.55457e-01,9.99999e-01,9.88601e-01,9.66602e-01,9.99864e-01
8.000968774e-01,9.54302e-01,9.99999e-01,9.86753e-01,9.67251e-01,9.99856e-01
8.040973618e-01,9.54977e-01,9.99999e-01,9.86773e-01,9.67887e-01,9.99885e-01
8.081178486e-01,9.40019e-01,9.99999e-01,9.70684e-01,9.68512e-01,9.99892e-01
8.121584379e-01,8.55949e-01,9.99999e-01,8.83590e-01,9.69124e-01,9.99579e-01
8.162192301e-01,8.34699e-01,9.99999e-01,8.62119e-01,9.69724e-01,9.98421e-01
8.203003262e-01,9.01676e-01,9.99999e-01,9.30981e-01,9.70313e-01,9.98151e-01
8.244018279e-01,8.75505e-01,9.99999e-01,9.03082e-01,9.70891e-01,9.98528e-01
8.285238370e-01,8.88410e-01,9.99999e-01,9.15569e-01,9.71458e-01,9.98844e-01
8.326664562e-01,8.88400e-01,9.99999e-01,9.14415e-01,9.72014e-01,9.99521e-01
8.368297885e-01,9.11918e-01,9.99999e-01,9.37749e-01,9.72559e-01,9.99890e-01
8.410139374e-01,9.36527e-01,9.99999e-01,9.62483e-01,9.73093e-01,9.99935e-01
8.452190071e-01,9.55466e-01,9.99999e-01,9.81393e-01,9.73618e-01,9.99961e-01
8.494451021e-01,9.63587e-01,9.99999e-01,9.89204e-01,9.74132e-01,9.99968e-01
8.536923276e-01,9.68359e-01,9.99999e-01,9.93578e-01,9.74637e-01,9.99979e-01
8.579607893e-01,9.71279e-01,9.99999e-01,9.96054e-01,9.75131e-01,9.99994e-01
8.622505932e-01,9.73163e-01,9.99999e-01,9.97485e-01,9.75616e-01,9.99998e-01
8.665618462e-01,9.74580e-01,9.99999e-01,9.98450e-01,9.76092e-01,9.99999e-01
8.708946554e-01,9.74830e-01,9.99999e-01,9.98230e-01,9.76559e-01,9.99998e-01
8.752491287e-01,9.74700e-01,9.99999e-01,9.97630e-01,9.77016e-01,9.99997e-01
8.796253743e-01,9.74264e-01,9.99999e-01,9.96731e-01,9.77465e-01,9.99992e-01
8.840235012e-01,9.74230e-01,9.99999e-01,9.96264e-01,9.77905e-01,9.99976e-01
8.884436187e-01,9.65307e-01,9.99999e-01,9.86744e-01,9.78337e-01,9.99934e-01
8.928858368e-01,8.49187e-01,9.99999e-01,8.67939e-01,9.78760e-01,9.99624e-01
8.973502660e-01,7.59363e-01,9.99999e-01,7.77003e-01,9.79175e-01,9.98079e-01
9.018370173e-01,8.57747e-01,9.99999e-01,8.78273e-01,9.79583e-01,9.96982e-01
9.063462024e-01,8.73313e-01,9.99999e-01,8.93520e-01,9.79982e-01,9.97349e-01
9.108779334e-01,8.19504e-01,9.99999e-01,8.38218e-01,9.80373e-01,9.97245e-01
9.154323231e-01,7.99948e-01,9.99999e-01,8.17503e-01,9.80757e-01,9.97722e-01
9.200094847e-01,8.36823e-01,9.99999e-01,8.54002e-01,9.81134e-01,9.98724e-01
9.246095321e-01,7.74767e-01,9.99999e-01,7.90528e-01,9.81503e-01,9.98530e-01
9.292325798e-01,2.16807e-01,9.99999e-01,2.22081e-01,9.81865e-01,9.94283e-01
9.338787427e-01,1.34299e-01,9.99999e-01,1.40009e-01,9.82220e-01,9.76578e-01
9.385481364e-01,4.29217e-01,9.99999e-01,4.49320e-01,9.82568e-01,9.72206e-01
9.432408771e-01,3.31694e-01,9.99999e-01,3.45768e-01,9.82909e-01,9.75975e-01
9.479570815e-01,2.21730e-01,9.99999e-01,2.30016e-01,9.83244e-01,9.80403e-01
9.526968669e-01,3.10424e-01,9.99999e-01,3.19441e-01,9.83572e-01,9.88000e-01
9.574603512e-01,3.29978e-01,9.99999e-01,3.37442e-01,9.83894e-01,9.93886e-01
9.622476530e-01,3.98097e-01,9.99999e-01,4.06202e-01,9.84210e-01,9.95768e-01
9.670588912e-01,5.81901e-01,9.99999e-01,5.92767e-01,9.84519e-01,9.97104e-01
9.718941857e-01,7.03781e-01,9.99999e-01,7.16154e-01,9.84823e-01,9.97867e-01
9.767536566e-01,7.45224e-01,9.99999e-01,7.57714e-01,9.85120e-01,9.98369e-01
9.816374249e-01,8.00665e-01,9.99999e-01,8.12976e-01,9.85412e-01,9.99435e-01
9.865456120e-01,8.65647e-01,9.99999e-01,8.78309e-01,9.85698e-01,9.99881e-01
9.914783401e-01,9.09871e-01,9.99999e-01,9.22840e-01,9.85978e-01,9.99966e-01
9.964357318e-01,9.44017e-01,9.99999e-01,9.57192e-01,9.86253e-01,9.99980e-01
1.001417910e+00,9.60947e-01,9.99999e-01,9.74102e-01,9.86523e-01,9.99970e-01
1.006425000e+00,9.72129e-01,9.99999e-01,9.85185e-01,9.86787e-01,9.99958e-01
1.011457125e+00,9.77882e-01,9.99999e-01,9.90752e-01,9.87047e-01,9.99961e-01
1.016514411e+00,9.81079e-01,9.99999e-01,9.93724e-01,9.87301e-01,9.99972e-01
1.021596983e+00,9.82587e-01,9.99999e-01,9.95000e-01,9.87550e-01,9.99972e-01
1.026704968e+00,9.83926e-01,9.99999e-01,9.96101e-01,9.87795e-01,9.99981e-01
1.031838492e+00,9.85222e-01,9.99999e-01,9.97158e-01,9.88034e-01,9.99994e-01
1.036997685e+00,9.86604e-01,9.99999e-01,9.98315e-01,9.88269e-01,9.99998e-01
1.042182673e+00,9.86522e-01,9.99999e-01,9.97999e-01,9.88500e-01,9.99999e-01
1.047393587e+00,9.86098e-01,9.99999e-01,9.97342e-01,9.88725e-01,9.99999e-01
1.052630555e+00,9.85347e-01,9.99999e-01,9.96360e-01,9.88947e-01,9.99998e-01
1.057893707e+00,9.83169e-01,9.99999e-01,9.93941e-01,9.89164e-01,9.99997e-01
1.063183176e+00,9.79515e-01,9.99999e-01,9.90036e-01,9.89377e-01,9.99994e-01
1.068499092e+00,9.73098e-01,9.99999e-01,9.83349e-01,9.89586e-01,9.99988e-01
1.073841587e+00,9.70561e-01,9.99999e-01,9.80596e-01,9.89790e-01,9.99974e-01
1.079210795e+00,9.65273e-01,9.99999e-01,9.75096e-01,9.89991e-01,9.99932e-01
1.084606849e+00,9.53039e-01,9.99999e-01,9.62638e-01,9.90188e-01,9.99838e-01
1.090029883e+00,9.37755e-01,9.99999e-01,9.47179e-01,9.90380e-01,9.99664e-01
1.095480033e+00,8.53711e-01,9.99999e-01,8.62360e-01,9.90569e-01,9.99394e-01
1.100957433e+00,6.81709e-01,9.99999e-01,6.88837e-01,9.90755e-01,9.98885e-01
1.106462220e+00,3.95631e-01,9.99999e-01,4.00005e-01,9.90937e-01,9.98110e-01
1.111994531e+00,1.48615e-01,9.99999e-01,1.50702e-01,9.91115e-01,9.94993e-01
1.117554504e+00,4.97020e-02,9.99999e-01,5.10554e-02,9.91290e-01,9.82042e-01
1.123142276e+00,1.20836e-01,9.99999e-01,1.27228e-01,9.91461e-01,9.57939e-01
1.128757988e+00,2.29306e-01,9.99999e-01,2.43027e-01,9.91629e-01,9.51505e-01
1.134401778e+00,1.00737e-01,9.99999e-01,1.06061e-01,9.91793e-01,9.57654e-01
1.140073787e+00,3.98388e-01,9.99999e-01,4.15787e-01,9.91955e-01,9.65922e-01
1.145774156e+00,1.70059e-01,9.99999e-01,1.76792e-01,9.92113e-01,9.69559e-01
1.151503026e+00,1.44498e-01,9.99999e-01,1.48153e-01,9.92268e-01,9.82925e-01
1.157260541e+00,1.80643e-01,9.99999e-01,1.82962e-01,9.92420e-01,9.94863e-01
1.163046844e+00,2.78330e-01,9.99999e-01,2.80823e-01,9.92570e-01,9.98541e-01
1.168862078e+00,4.00836e-01,9.99999e-01,4.04080e-01,9.92716e-01,9.99248e-01
1.174706389e+00,5.66352e-01,9.99999e-01,5.70994e-01,9.92859e-01,9.99003e-01
1.180579921e+00,7.03427e-01,9.99999e-01,7.09454e-01,9.93000e-01,9.98493e-01
1.186482820e+00,8.15988e-01,9.99999e-01,8.22897e-01,9.93137e-01,9.98454e-01
1.192415234e+00,8.85309e-01,9.99999e-01,8.92337e-01,9.93273e-01,9.98841e-01
1.198377311e+00,9.01696e-01,9.99999e-01,9.08675e-01,9.93405e-01,9.98906e-01
1.204369197e+00,9.06692e-01,9.99999e-01,9.13495e-01,9.93535e-01,9.99010e-01
1.210391043e+00,9.10603e-01,9.99999e-01,9.16962e-01,9.93662e-01,9.99397e-01
1.216442998e+00,9.22636e-01,9.99999e-01,9.28746e-01,9.93787e-01,9.99630e-01
1.222525213e+00,9.38090e-01,9.99999e-01,9.44054e-01,9.93909e-01,9.99770e-01
1.228637839e+00,9.54994e-01,9.99999e-01,9.60832e-01,9.94029e-01,9.99892e-01
1.234781029e+00,9.65023e-01,9.99999e-01,9.70734e-01,9.94147e-01,9.99969e-01
1.240954934e+00,9.75775e-01,9.99999e-01,9.81414e-01,9.94262e-01,9.99990e-01
1.247159708e+00,9.79932e-01,9.99999e-01,9.85480e-01,9.94375e-01,9.99994e-01
1.253395507e+00,9.81671e-01,9.99999e-01,9.87120e-01,9.94486e-01,9.99992e-01
1.259662485e+00,9.82536e-01,9.99999e-01,9.87886e-01,9.94594e-01,9.99988e-01
1.265960797e+00,9.75387e-01,9.99999e-01,9.80601e-01,9.94701e-01,9.99980e-01
1.272290601e+00,9.66519e-01,9.99999e-01,9.71598e-01,9.94805e-01,9.99965e-01
1.278652054e+00,9.36139e-01,9.99999e-01,9.40985e-01,9.94907e-01,9.99940e-01
1.285045314e+00,9.04436e-01,9.99999e-01,9.09074e-01,9.95008e-01,9.99888e-01
1.291470541e+00,8.21215e-01,9.99999e-01,8.25413e-01,9.95106e-01,9.99804e-01
1.297927893e+00,7.75064e-01,9.99999e-01,7.79082e-01,9.95203e-01,9.99636e-01
1.304417533e+00,7.21321e-01,9.99999e-01,7.25287e-01,9.95297e-01,9.99229e-01
1.310939621e+00,6.89632e-01,9.99999e-01,6.93922e-01,9.95390e-01,9.98419e-01
1.317494319e+00,6.66119e-01,9.99999e-01,6.71103e-01,9.95481e-01,9.97078e-01
1.324081790e+00,5.51258e-01,9.99999e-01,5.56361e-01,9.95570e-01,9.95234e-01
1.330702199e+00,1.66194e-01,9.99999e-01,1.68299e-01,9.95657e-01,9.91796e-01
1.337355710e+00,5.09726e-03,9.99999e-01,5.20090e-03,9.95743e-01,9.84262e-01
1.344042489e+00,1.03001e-04,9.99999e-01,1.08494e-04,9.95826e-01,9.53345e-01
1.350762701e+00,3.74478e-12,9.99999e-01,4.42841e-12,9.95909e-01,8.49099e-01
1.357516515e+00,6.91217e-18,9.99999e-01,1.12163e-17,9.95989e-01,6.18741e-01
1.364304097e+00,1.84663e-11,9.99999e-01,4.30018e-11,9.96068e-01,4.31125e-01
1.371125618e+00,1.57973e-07,9.99999e-01,3.50554e-07,9.96146e-01,4.52380e-01
1.377981246e+00,5.99411e-07,9.99999e-01,1.18759e-06,9.96222e-01,5.06641e-01
1.384871152e+00,8.66694e-10,9.99999e-01,1.65049e-09,9.96296e-01,5.27064e-01
1.391795508e+00,2.05758e-11,9.99999e-01,3.78635e-11,9.96369e-01,5.45400e-01
1.398754485e+00,4.11868e-09,9.99999e-01,6.80723e-09,9.96441e-01,6.07204e-01
1.405748258e+00,6.05968e-09,9.99999e-01,8.14007e-09,9.96511e-01,7.47031e-01
1.412776999e+00,8.01578e-09,9.99999e-01,9.18888e-09,9.96580e-01,8.75326e-01
1.419840884e+00,1.69741e-08,9.99999e-01,1.80551e-08,9.96647e-01,9.43285e-01
1.426940089e+00,3.14644e-06,9.99999e-01,3.29999e-06,9.96713e-01,9.56612e-01
1.434074789e+00,2.82641e-05,9.99999e-01,2.98791e-05,9.96778e-01,9.49003e-01
1.441245163e+00,1.88676e-04,9.99999e-01,2.00314e-04,9.96842e-01,9.44881e-01
1.448451389e+00,2.72680e-03,9.99998e-01,2.87448e-03,9.96904e-01,9.51569e-01
1.455693646e+00,1.73689e-02,9.99999e-01,1.81079e-02,9.96965e-01,9.62109e-01
1.462972114e+00,2.59871e-02,9.99999e-01,2.70427e-02,9.97025e-01,9.63830e-01
1.470286975e+00,1.48308e-02,9.99999e-01,1.54226e-02,9.97083e-01,9.64435e-01
