#,Wave/freq,Total,N2,H2O,Rayleigh,CIA
4.000000000e-01,3.11999e-01,9.99999e-01,9.99868e-01,3.12039e-01,9.99999e-01
4.020000000e-01,3.19282e-01,9.99999e-01,9.99918e-01,3.19308e-01,9.99999e-01
4.040100000e-01,3.26579e-01,9.99999e-01,9.99965e-01,3.26590e-01,9.99999e-01
4.060300500e-01,3.33887e-01,9.99999e-01,9.99991e-01,3.33889e-01,9.99999e-01
4.080602003e-01,3.41202e-01,9.99999e-01,9.99996e-01,3.41203e-01,9.99999e-01
4.101005013e-01,3.48527e-01,9.99999e-01,9.99999e-01,3.48527e-01,9.99999e-01
4.121510038e-01,3.55858e-01,9.99999e-01,9.99994e-01,3.55860e-01,9.99999e-01
4.142117588e-01,3.63184e-01,9.99999e-01,9.99962e-01,3.63197e-01,9.99999e-01
4.162828176e-01,3.70476e-01,9.99999e-01,9.99837e-01,3.70536e-01,9.99999e-01
4.183642317e-01,3.77838e-01,9.99999e-01,9.99903e-01,3.77874e-01,9.99999e-01
4.204560528e-01,3.85186e-01,9.99999e-01,9.99940e-01,3.85208e-01,9.99999e-01
4.225583331e-01,3.92527e-01,9.99999e-01,9.99977e-01,3.92536e-01,9.99999e-01
4.246711247e-01,3.99846e-01,9.99999e-01,9.99981e-01,3.99854e-01,9.99999e-01
4.267944804e-01,4.07149e-01,9.99999e-01,9.99973e-01,4.07159e-01,9.99999e-01
4.289284528e-01,4.14442e-01,9.99999e-01,9.99979e-01,4.14450e-01,9.99999e-01
4.310730950e-01,4.21721e-01,9.99999e-01,9.99991e-01,4.21724e-01,9.99999e-01
4.332284605e-01,4.28977e-01,9.99999e-01,9.99997e-01,4.28978e-01,9.99999e-01
4.353946028e-01,4.36209e-01,9.99999e-01,9.99998e-01,4.36210e-01,9.99999e-01
4.375715758e-01,4.43410e-01,9.99999e-01,9.99983e-01,4.43417e-01,9.99999e-01
4.397594337e-01,4.50532e-01,9.99999e-01,9.99854e-01,4.50597e-01,9.99999e-01
4.419582309e-01,4.57411e-01,9.99999e-01,9.99262e-01,4.57749e-01,9.99999e-01
4.441680220e-01,4.64608e-01,9.99999e-01,9.99437e-01,4.64869e-01,9.99999e-01
4.463888621e-01,4.71678e-01,9.99999e-01,9.99410e-01,4.71956e-01,9.99999e-01
4.486208064e-01,4.78834e-01,9.99999e-01,9.99635e-01,4.79008e-01,9.99999e-01
4.508639105e-01,4.85940e-01,9.99999e-01,9.99829e-01,4.86023e-01,9.99999e-01
4.531182300e-01,4.92966e-01,9.99999e-01,9.99932e-01,4.92999e-01,9.99999e-01
4.553838212e-01,4.99912e-01,9.99999e-01,9.99953e-01,4.99935e-01,9.99999e-01
4.576607403e-01,5.06817e-01,9.99999e-01,9.99978e-01,5.06828e-01,9.99999e-01
4.599490440e-01,5.13669e-01,9.99999e-01,9.99984e-01,5.13677e-01,9.99999e-01
4.622487892e-01,5.20479e-01,9.99999e-01,9.99996e-01,5.20481e-01,9.99999e-01
4.645600332e-01,5.27232e-01,9.99999e-01,9.99989e-01,5.27238e-01,9.99999e-01
4.668828333e-01,5.33853e-01,9.99999e-01,9.99825e-01,5.33946e-01,9.99999e-01
4.692172475e-01,5.40405e-01,9.99999e-01,9.99630e-01,5.40605e-01,9.99999e-01
4.715633337e-01,5.47081e-01,9.99999e-01,9.99757e-01,5.47213e-01,9.99999e-01
4.739211504e-01,5.53641e-01,9.99999e-01,9.99769e-01,5.53769e-01,9.99999e-01
4.762907561e-01,5.60204e-01,9.99999e-01,9.99880e-01,5.60271e-01,9.99999e-01
4.786722099e-01,5.66692e-01,9.99999e-01,9.99950e-01,5.66719e-01,9.99999e-01
4.810655710e-01,5.73104e-01,9.99999e-01,9.99984e-01,5.73112e-01,9.99999e-01
4.834708988e-01,5.79365e-01,9.99999e-01,9.99854e-01,5.79449e-01,9.99999e-01
4.858882533e-01,5.85575e-01,9.99999e-01,9.99738e-01,5.85728e-01,9.99999e-01
4.883176946e-01,5.91819e-01,9.99999e-01,9.99779e-01,5.91949e-01,9.99999e-01
4.907592831e-01,5.97994e-01,9.99999e-01,9.99802e-01,5.98112e-01,9.99999e-01
4.932130795e-01,6.04130e-01,9.99999e-01,9.99859e-01,6.04215e-01,9.99999e-01
4.956791449e-01,6.10213e-01,9.99999e-01,9.99925e-01,6.10258e-01,9.99999e-01
4.981575406e-01,6.16010e-01,9.99999e-01,9.99626e-01,6.16240e-01,9.99999e-01
5.006483283e-01,6.21552e-01,9.99999e-01,9.99025e-01,6.22162e-01,9.99993e-01
5.031515699e-01,6.24922e-01,9.99999e-01,9.95116e-01,6.28021e-01,9.99948e-01
5.056673278e-01,6.32152e-01,9.99999e-01,9.97428e-01,6.33818e-01,9.99940e-01
5.081956644e-01,6.37457e-01,9.99999e-01,9.96758e-01,6.39553e-01,9.99963e-01
5.107366428e-01,6.43809e-01,9.99999e-01,9.97812e-01,6.45224e-01,9.99993e-01
5.132903260e-01,6.50020e-01,9.99999e-01,9.98751e-01,6.50833e-01,9.99998e-01
5.158567776e-01,6.56032e-01,9.99999e-01,9.99473e-01,6.56378e-01,9.99999e-01
5.184360615e-01,6.61719e-01,9.99999e-01,9.99788e-01,6.61859e-01,9.99999e-01
5.210282418e-01,6.67223e-01,9.99999e-01,9.99920e-01,6.67276e-01,9.99999e-01
5.236333830e-01,6.72414e-01,9.99999e-01,9.99681e-01,6.72630e-01,9.99997e-01
5.262515499e-01,6.77782e-01,9.99999e-01,9.99800e-01,6.77919e-01,9.99996e-01
5.288828077e-01,6.83018e-01,9.99999e-01,9.99815e-01,6.83145e-01,9.99997e-01
5.315272217e-01,6.88196e-01,9.99999e-01,9.99840e-01,6.88306e-01,9.99999e-01
5.341848578e-01,6.93330e-01,9.99999e-01,9.99893e-01,6.93403e-01,9.99999e-01
5.368557821e-01,6.98175e-01,9.99999e-01,9.99626e-01,6.98436e-01,9.99998e-01
5.395400610e-01,7.02443e-01,9.99999e-01,9.98645e-01,7.03405e-01,9.99986e-01
5.422377613e-01,7.07068e-01,9.99999e-01,9.98277e-01,7.08310e-01,9.99967e-01
5.449489501e-01,7.11977e-01,9.99999e-01,9.98384e-01,7.13152e-01,9.99967e-01
5.476736949e-01,7.16901e-01,9.99999e-01,9.98582e-01,7.17930e-01,9.99983e-01
5.504120634e-01,7.21898e-01,9.99999e-01,9.98970e-01,7.22644e-01,9.99995e-01
5.531641237e-01,7.26919e-01,9.99999e-01,9.99482e-01,7.27296e-01,9.99998e-01
5.559299443e-01,7.31702e-01,9.99999e-01,9.99750e-01,7.31885e-01,9.99999e-01
5.587095940e-01,7.36295e-01,9.99999e-01,9.99842e-01,7.36411e-01,9.99999e-01
5.615031420e-01,7.40745e-01,9.99999e-01,9.99824e-01,7.40875e-01,9.99999e-01
5.643106577e-01,7.45126e-01,9.99999e-01,9.99798e-01,7.45277e-01,9.99997e-01
5.671322110e-01,7.47759e-01,9.99999e-01,9.97540e-01,7.49618e-01,9.99978e-01
5.699678720e-01,7.51933e-01,9.99999e-01,9.97459e-01,7.53897e-01,9.99933e-01
5.728177114e-01,7.56044e-01,9.99999e-01,9.97321e-01,7.58116e-01,9.99944e-01
5.756818000e-01,7.60381e-01,9.99999e-01,9.97547e-01,7.62274e-01,9.99967e-01
5.785602090e-01,7.64731e-01,9.99999e-01,9.97866e-01,7.66372e-01,9.99990e-01
5.814530100e-01,7.68753e-01,9.99999e-01,9.97852e-01,7.70411e-01,9.99994e-01
5.843602750e-01,7.72382e-01,9.99999e-01,9.97420e-01,7.74390e-01,9.99985e-01
5.872820764e-01,7.61117e-01,9.99999e-01,9.78059e-01,7.78311e-01,9.99844e-01
5.902184868e-01,7.61239e-01,9.99999e-01,9.73646e-01,7.82173e-01,9.99577e-01
5.931695792e-01,7.70959e-01,9.99999e-01,9.81289e-01,7.85978e-01,9.99593e-01
5.961354271e-01,7.73378e-01,9.99999e-01,9.79527e-01,7.89726e-01,9.99766e-01
5.991161043e-01,7.81489e-01,9.99999e-01,9.85036e-01,7.93417e-01,9.99927e-01
6.021116848e-01,7.90266e-01,9.99999e-01,9.91493e-01,7.97052e-01,9.99991e-01
6.051222432e-01,7.97180e-01,9.99999e-01,9.95689e-01,8.00631e-01,9.99999e-01
6.081478544e-01,8.02657e-01,9.99999e-01,9.98136e-01,8.04155e-01,9.99999e-01
6.111885937e-01,8.06990e-01,9.99999e-01,9.99213e-01,8.07625e-01,9.99999e-01
6.142445367e-01,8.10755e-01,9.99999e-01,9.99647e-01,8.11040e-01,9.99999e-01
6.173157594e-01,8.14244e-01,9.99999e-01,9.99805e-01,8.14403e-01,9.99999e-01
6.204023382e-01,8.17576e-01,9.99999e-01,9.99834e-01,8.17712e-01,9.99999e-01
6.235043498e-01,8.20360e-01,9.99999e-01,9.99259e-01,8.20969e-01,9.99997e-01
6.266218716e-01,8.20984e-01,9.99999e-01,9.96155e-01,8.24174e-01,9.99972e-01
6.297549810e-01,8.26116e-01,9.99999e-01,9.98588e-01,8.27328e-01,9.99945e-01
6.329037559e-01,8.28087e-01,9.99999e-01,9.97219e-01,8.30431e-01,9.99956e-01
6.360682746e-01,8.31481e-01,9.99999e-01,9.97620e-01,8.33485e-01,9.99973e-01
6.392486160e-01,8.33907e-01,9.99999e-01,9.96924e-01,8.36489e-01,9.99988e-01
6.424448591e-01,8.35945e-01,9.99999e-01,9.95851e-01,8.39444e-01,9.99979e-01
6.456570834e-01,8.26167e-01,9.99999e-01,9.80899e-01,8.42351e-01,9.99883e-01
6.488853688e-01,8.33260e-01,9.99999e-01,9.86152e-01,8.45210e-01,9.99703e-01
6.521297956e-01,8.35862e-01,9.99999e-01,9.85900e-01,8.48023e-01,9.99754e-01
6.553904446e-01,8.38607e-01,9.99999e-01,9.85860e-01,8.50788e-01,9.99817e-01
6.586673968e-01,8.43168e-01,9.99999e-01,9.87944e-01,8.53508e-01,9.99938e-01
6.619607338e-01,8.50404e-01,9.99999e-01,9.93262e-01,8.56183e-01,9.99986e-01
6.652705375e-01,8.55330e-01,9.99999e-01,9.95950e-01,8.58813e-01,9.99992e-01
6.685968902e-01,8.59916e-01,9.99999e-01,9.98279e-01,8.61399e-01,9.99998e-01
6.719398746e-01,8.63188e-01,9.99999e-01,9.99128e-01,8.63941e-01,9.99999e-01
6.752995740e-01,8.66041e-01,9.99999e-01,9.99538e-01,8.66440e-01,9.99999e-01
6.786760719e-01,8.68297e-01,9.99999e-01,9.99309e-01,8.68897e-01,9.99998e-01
6.820694522e-01,8.70274e-01,9.99999e-01,9.98813e-01,8.71313e-01,9.99993e-01
6.854797995e-01,8.72350e-01,9.99999e-01,9.98482e-01,8.73687e-01,9.99986e-01
6.889071985e-01,8.72733e-01,9.99999e-01,9.96279e-01,8.76020e-01,9.99966e-01
6.923517345e-01,8.26875e-01,9.99999e-01,9.41703e-01,8.78313e-01,9.99713e-01
6.958134932e-01,8.53571e-01,9.99999e-01,9.69957e-01,8.80567e-01,9.99365e-01
6.992925606e-01,8.56433e-01,9.99999e-01,9.70706e-01,8.82782e-01,9.99427e-01
7.027890234e-01,8.52948e-01,9.99999e-01,9.64247e-01,8.84959e-01,9.99563e-01
7.063029686e-01,8.60110e-01,9.99999e-01,9.69787e-01,8.87098e-01,9.99782e-01
7.098344834e-01,8.63285e-01,9.99999e-01,9.70981e-01,8.89200e-01,9.99871e-01
7.133836558e-01,8.56458e-01,9.99999e-01,9.61192e-01,8.91264e-01,9.99744e-01
7.169505741e-01,6.55581e-01,9.99999e-01,7.35369e-01,8.93293e-01,9.97991e-01
7.205353270e-01,7.68478e-01,9.99999e-01,8.61409e-01,8.95287e-01,9.96459e-01
7.241380036e-01,7.37219e-01,9.99999e-01,8.24167e-01,8.97245e-01,9.96941e-01
7.277586936e-01,7.53563e-01,9.99999e-01,8.40167e-01,8.99168e-01,9.97499e-01
7.313974871e-01,7.47727e-01,9.99999e-01,8.30805e-01,9.01058e-01,9.98827e-01
7.350544745e-01,8.15099e-01,9.99999e-01,9.03109e-01,9.02914e-01,9.99592e-01
7.387297469e-01,8.39014e-01,9.99999e-01,9.27528e-01,9.04738e-01,9.99812e-01
7.424233956e-01,8.73753e-01,9.99999e-01,9.63875e-01,9.06528e-01,9.99967e-01
7.461355126e-01,8.88214e-01,9.99999e-01,9.77905e-01,9.08287e-01,9.99993e-01
7.498661902e-01,9.00624e-01,9.99999e-01,9.89681e-01,9.10015e-01,9.99997e-01
7.536155211e-01,9.07069e-01,9.99999e-01,9.94909e-01,9.11711e-01,9.99998e-01
7.573835987e-01,9.10982e-01,9.99999e-01,9.97377e-01,9.13377e-01,9.99999e-01
7.611705167e-01,9.13522e-01,9.99999e-01,9.98369e-01,9.15013e-01,9.99999e-01
7.649763693e-01,9.15682e-01,9.99999e-01,9.98976e-01,9.16620e-01,9.99999e-01
7.688012511e-01,9.17542e-01,9.99999e-01,9.99285e-01,9.18198e-01,9.99999e-01
7.726452574e-01,9.19206e-01,9.99999e-01,9.99411e-01,9.19747e-01,9.99999e-01
7.765084837e-01,9.20492e-01,9.99999e-01,9.99158e-01,9.21268e-01,9.99998e-01
7.803910261e-01,9.19399e-01,9.99999e-01,9.96359e-01,9.22761e-01,9.99996e-01
7.842929812e-01,9.12517e-01,9.99999e-01,9.87351e-01,9.24228e-01,9.99976e-01
7.882144461e-01,9.01745e-01,9.99999e-01,9.74330e-01,9.25667e-01,9.99821e-01
7.921555184e-01,9.13752e-01,9.99999e-01,9.85927e-01,9.27081e-01,9.99690e-01
7.961162960e-01,9.04967e-01,9.99999e-01,9.74974e-01,9.28468e-01,9.99705e-01
8.000968774e-01,9.02835e-01,9.99999e-01,9.71271e-01,9.29830e-01,9.99686e-01
8.040973618e-01,9.04169e-01,9.99999e-01,9.71238e-01,9.31167e-01,9.99760e-01
8.081178486e-01,8.72841e-01,9.99999e-01,9.36268e-01,9.32480e-01,9.99757e-01
8.121584379e-01,7.12201e-01,9.99999e-01,7.63416e-01,9.33768e-01,9.99082e-01
8.162192301e-01,6.79755e-01,9.99999e-01,7.29497e-01,9.35033e-01,9.96555e-01
8.203003262e-01,7.99266e-01,9.99999e-01,8.57121e-01,9.36275e-01,9.95967e-01
8.244018279e-01,7.60317e-01,9.99999e-01,8.13622e-01,9.37493e-01,9.96789e-01
8.285238370e-01,7.72974e-01,9.99999e-01,8.25543e-01,9.38689e-01,9.97477e-01
8.326664562e-01,7.74680e-01,9.99999e-01,8.25109e-01,9.39863e-01,9.98955e-01
8.368297885e-01,8.19022e-01,9.99999e-01,8.70567e-01,9.41015e-01,9.99761e-01
8.410139374e-01,8.67365e-01,9.99999e-01,9.20755e-01,9.42146e-01,9.99860e-01
8.452190071e-01,9.05723e-01,9.99999e-01,9.60289e-01,9.43255e-01,9.99916e-01
8.494451021e-01,9.22234e-01,9.99999e-01,9.76650e-01,9.44344e-01,9.99932e-01
8.536923276e-01,9.32306e-01,9.99999e-01,9.86175e-01,9.45413e-01,9.99958e-01
8.579607893e-01,9.38350e-01,9.99999e-01,9.91437e-01,9.46462e-01,9.99989e-01
8.622505932e-01,9.42341e-01,9.99999e-01,9.94565e-01,9.47491e-01,9.99997e-01
8.665618462e-01,9.45298e-01,9.99999e-01,9.96622e-01,9.48501e-01,9.99998e-01
8.708946554e-01,9.45811e-01,9.99999e-01,9.96124e-01,9.49492e-01,9.99997e-01
8.752491287e-01,9.45540e-01,9.99999e-01,9.94823e-01,9.50465e-01,9.99994e-01
8.796253743e-01,9.44568e-01,9.99999e-01,9.92813e-01,9.51419e-01,9.99983e-01
8.840235012e-01,9.44504e-01,9.99999e-01,9.91804e-01,9.52355e-01,9.99949e-01
8.884436187e-01,9.24694e-01,9.99999e-01,9.70155e-01,9.53274e-01,9.99857e-01
8.928858368e-01,7.00852e-01,9.99999e-01,7.35111e-01,9.54176e-01,9.99181e-01
8.973502660e-01,5.57733e-01,9.99999e-01,5.86432e-01,9.55060e-01,9.95810e-01
9.018370173e-01,7.24921e-01,9.99999e-01,7.63364e-01,9.55928e-01,9.93421e-01
9.063462024e-01,7.45348e-01,9.99999e-01,7.83547e-01,9.56779e-01,9.94218e-01
9.108779334e-01,6.52567e-01,9.99999e-01,6.85568e-01,9.57615e-01,9.93993e-01
9.154323231e-01,6.19474e-01,9.99999e-01,6.49566e-01,9.58434e-01,9.95032e-01
9.200094847e-01,6.84543e-01,9.99999e-01,7.15622e-01,9.59238e-01,9.97216e-01
9.246095321e-01,5.80359e-01,9.99999e-01,6.06467e-01,9.60027e-01,9.96793e-01
9.292325798e-01,5.76603e-02,9.99999e-01,6.09504e-02,9.60801e-01,9.84614e-01
9.338787427e-01,2.07884e-02,9.99999e-01,2.28657e-02,9.61560e-01,9.45496e-01
9.385481364e-01,1.93187e-01,9.99999e-01,2.13504e-01,9.62305e-01,9.40282e-01
9.432408771e-01,1.17917e-01,9.99999e-01,1.29123e-01,9.63035e-01,9.48264e-01
9.479570815e-01,4.96285e-02,9.99999e-01,5.37702e-02,9.63752e-01,9.57686e-01
9.526968669e-01,9.56665e-02,9.99999e-01,1.01843e-01,9.64455e-01,9.73974e-01
9.574603512e-01,1.06756e-01,9.99999e-01,1.12103e-01,9.65145e-01,9.86694e-01
9.622476530e-01,1.54074e-01,9.99999e-01,1.61011e-01,9.65822e-01,9.90780e-01
9.670588912e-01,3.27561e-01,9.99999e-01,3.41074e-01,9.66485e-01,9.93685e-01
9.718941857e-01,4.71587e-01,9.99999e-01,4.89891e-01,9.67136e-01,9.95347e-01
9.767536566e-01,5.32185e-01,9.99999e-01,5.51868e-01,9.67775e-01,9.96442e-01
9.816374249e-01,6.20024e-01,9.99999e-01,6.41045e-01,9.68401e-01,9.98767e-01
9.865456120e-01,7.32371e-01,9.99999e-01,7.55982e-01,9.69015e-01,9.99742e-01
9.914783401e-01,8.14763e-01,9.99999e-01,8.40352e-01,9.69618e-01,9.99928e-01
9.964357318e-01,8.82453e-01,9.99999e-01,9.09586e-01,9.70209e-01,9.99957e-01
1.001417910e+00,9.17083e-01,9.99999e-01,9.44737e-01,9.70789e-01,9.99935e-01
1.006425000e+00,9.40204e-01,9.99999e-01,9.68015e-01,9.71357e-01,9.99908e-01
1.011457125e+00,9.52477e-01,9.99999e-01,9.80082e-01,9.71915e-01,9.99915e-01
1.016514411e+00,9.59192e-01,9.99999e-01,9.86412e-01,9.72462e-01,9.99940e-01
1.021596983e+00,9.62386e-01,9.99999e-01,9.89150e-01,9.72999e-01,9.99941e-01
1.026704968e+00,9.65238e-01,9.99999e-01,9.91523e-01,9.73525e-01,9.99962e-01
1.031838492e+00,9.68037e-01,9.99999e-01,9.93846e-01,9.74041e-01,9.99988e-01
1.036997685e+00,9.70972e-01,9.99999e-01,9.96332e-01,9.74547e-01,9.99997e-01
1.042182673e+00,9.70765e-01,9.99999e-01,9.95611e-01,9.75044e-01,9.99998e-01
1.047393587e+00,9.69868e-01,9.99999e-01,9.94195e-01,9.75530e-01,9.99998e-01
1.052630555e+00,9.68230e-01,9.99999e-01,9.92032e-01,9.76008e-01,9.99997e-01
1.057893707e+00,9.63500e-01,9.99999e-01,9.86715e-01,9.76476e-01,9.99994e-01
1.063183176e+00,9.55694e-01,9.99999e-01,9.78267e-01,9.76935e-01,9.99988e-01
1.068499092e+00,9.42131e-01,9.99999e-01,9.63953e-01,9.77386e-01,9.99974e-01
1.073841587e+00,9.36674e-01,9.99999e-01,9.57965e-01,9.77827e-01,9.99945e-01
1.079210795e+00,9.25841e-01,9.99999e-01,9.46553e-01,9.78261e-01,9.99853e-01
1.084606849e+00,9.00310e-01,9.99999e-01,9.20241e-01,9.78685e-01,9.99646e-01
1.090029883e+00,8.68107e-01,9.99999e-01,8.87283e-01,9.79102e-01,9.99268e-01
1.095480033e+00,7.07316e-01,9.99999e-01,7.23067e-01,9.79510e-01,9.98677e-01
1.100957433e+00,4.37781e-01,9.99999e-01,4.47845e-01,9.79911e-01,9.97568e-01
1.106462220e+00,1.46964e-01,9.99999e-01,1.50537e-01,9.80304e-01,9.95878e-01
1.111994531e+00,2.11959e-02,9.99999e-01,2.18515e-02,9.80689e-01,9.89095e-01
1.117554504e+00,2.86609e-03,9.99999e-01,3.03936e-03,9.81067e-01,9.61189e-01
1.123142276e+00,1.91393e-02,9.99999e-01,2.14205e-02,9.81437e-01,9.10401e-01
1.128757988e+00,5.09314e-02,9.99999e-01,5.78259e-02,9.81801e-01,8.97096e-01
1.134401778e+00,2.61570e-02,9.99999e-01,2.92084e-02,9.82157e-01,9.11798e-01
1.140073787e+00,1.46765e-01,9.99999e-01,1.60815e-01,9.82506e-01,9.28880e-01
1.145774156e+00,3.25284e-02,9.99999e-01,3.54082e-02,9.82849e-01,9.34698e-01
1.151503026e+00,2.21393e-02,9.99999e-01,2.33812e-02,9.83185e-01,9.63078e-01
1.157260541e+00,2.91684e-02,9.99999e-01,2.99927e-02,9.83514e-01,9.88814e-01
1.163046844e+00,7.17755e-02,9.99999e-01,7.31875e-02,9.83837e-01,9.96816e-01
1.168862078e+00,1.46198e-01,9.99999e-01,1.48796e-01,9.84154e-01,9.98358e-01
1.174706389e+00,2.99331e-01,9.99999e-01,3.04717e-01,9.84464e-01,9.97824e-01
1.180579921e+00,4.71874e-01,9.99999e-01,4.80752e-01,9.84769e-01,9.96713e-01
1.186482820e+00,6.44294e-01,9.99999e-01,6.56274e-01,9.85067e-01,9.96626e-01
1.192415234e+00,7.67270e-01,9.99999e-01,7.80641e-01,9.85360e-01,9.97472e-01
1.198377311e+00,7.97945e-01,9.99999e-01,8.11510e-01,9.85647e-01,9.97601e-01
1.204369197e+00,8.08667e-01,9.99999e-01,8.21925e-01,9.85929e-01,9.97910e-01
1.210391043e+00,8.15861e-01,9.99999e-01,8.28362e-01,9.86205e-01,9.98685e-01
1.216442998e+00,8.40082e-01,9.99999e-01,8.52285e-01,9.86475e-01,9.99194e-01
1.222525213e+00,8.70326e-01,9.99999e-01,8.82461e-01,9.86741e-01,9.99499e-01
1.228637839e+00,9.04569e-01,9.99999e-01,9.16695e-01,9.87001e-01,9.99766e-01
1.234781029e+00,9.25539e-01,9.99999e-01,9.37547e-01,9.87256e-01,9.99933e-01
1.240954934e+00,9.47979e-01,9.99999e-01,9.59990e-01,9.87506e-01,9.99980e-01
1.247159708e+00,9.56837e-01,9.99999e-01,9.68713e-01,9.87751e-01,9.99987e-01
1.253395507e+00,9.60444e-01,9.99999e-01,9.72131e-01,9.87992e-01,9.99983e-01
1.259662485e+00,9.61963e-01,9.99999e-01,9.73445e-01,9.88228e-01,9.99974e-01
1.265960797e+00,9.46940e-01,9.99999e-01,9.58035e-01,9.88459e-01,9.99958e-01
1.272290601e+00,9.24082e-01,9.99999e-01,9.34725e-01,9.88685e-01,9.99926e-01
1.278652054e+00,8.65270e-01,9.99999e-01,8.75088e-01,9.88908e-01,9.99869e-01
1.285045314e+00,7.77486e-01,9.99999e-01,7.86223e-01,9.89125e-01,9.99757e-01
1.291470541e+00,6.51233e-01,9.99999e-01,6.58530e-01,9.89339e-01,9.99574e-01
1.297927893e+00,5.49108e-01,9.99999e-01,5.55348e-01,9.89549e-01,9.99205e-01
1.304417533e+00,4.98371e-01,9.99999e-01,5.04378e-01,9.89754e-01,9.98318e-01
1.310939621e+00,4.16303e-01,9.99999e-01,4.21982e-01,9.89955e-01,9.96550e-01
1.317494319e+00,4.23492e-01,9.99999e-01,4.30446e-01,9.90153e-01,9.93629e-01
1.324081790e+00,2.87086e-01,9.99999e-01,2.92924e-01,9.90346e-01,9.89619e-01
1.330702199e+00,4.41937e-02,9.99999e-01,4.54259e-02,9.90536e-01,9.82167e-01
1.337355710e+00,3.35108e-05,9.99999e-01,3.50172e-05,9.90722e-01,9.65941e-01
1.344042489e+00,1.22034e-07,9.99999e-01,1.36703e-07,9.90904e-01,9.00890e-01
1.350762701e+00,3.62454e-24,9.99999e-01,5.22798e-24,9.91083e-01,6.99533e-01
1.357516515e+00,1.53605e-36,9.99999e-01,4.42254e-36,9.91259e-01,3.50384e-01
1.364304097e+00,1.08998e-22,9.99999e-01,6.90838e-22,9.91431e-01,1.59140e-01
1.371125618e+00,6.47035e-14,9.99999e-01,3.69108e-13,9.91599e-01,1.76782e-01
1.377981246e+00,2.48252e-13,9.99999e-01,1.10554e-12,9.91764e-01,2.26417e-01
1.384871152e+00,1.02304e-18,9.99999e-01,4.11643e-18,9.91926e-01,2.50547e-01
1.391795508e+00,8.15951e-23,9.99999e-01,3.07682e-22,9.92085e-01,2.67308e-01
1.398754485e+00,1.75795e-17,9.99999e-01,5.26866e-17,9.92241e-01,3.36270e-01
1.405748258e+00,2.86247e-17,9.99999e-01,5.45446e-17,9.92393e-01,5.28816e-01
1.412776999e+00,1.09724e-16,9.99999e-01,1.47870e-16,9.92543e-01,7.47599e-01
1.419840884e+00,1.89446e-16,9.99998e-01,2.16802e-16,9.92690e-01,8.80253e-01
1.426940089e+00,5.42460e-11,9.99998e-01,6.01969e-11,9.92834e-01,9.07647e-01
1.434074789e+00,1.04644e-09,9.99998e-01,1.18150e-09,9.92975e-01,8.91951e-01
1.441245163e+00,4.47805e-08,9.99999e-01,5.10361e-08,9.93113e-01,8.83510e-01
1.448451389e+00,1.35225e-05,9.99998e-01,1.51739e-05,9.93249e-01,8.97229e-01
1.455693646e+00,4.89793e-04,9.99998e-01,5.36466e-04,9.93381e-01,9.19080e-01
1.462972114e+00,6.82434e-04,9.99999e-01,7.44454e-04,9.93512e-01,9.22676e-01
1.470286975e+00,2.61340e-04,9.99999e-01,2.84663e-04,9.93639e-01,9.23942e-01
