#,Wave/freq,Total,N2,H2O,Rayleigh,CIA
4.000000000e-01,5.85207e-01,9.99999e-01,9.99939e-01,5.85243e-01,9.99999e-01
4.020000000e-01,5.91453e-01,9.99999e-01,9.99962e-01,5.91475e-01,9.99999e-01
4.040100000e-01,5.97632e-01,9.99999e-01,9.99983e-01,5.97642e-01,9.99999e-01
4.060300500e-01,6.03747e-01,9.99999e-01,9.99995e-01,6.03750e-01,9.99999e-01
4.080602003e-01,6.09797e-01,9.99999e-01,9.99998e-01,6.09797e-01,9.99999e-01
4.101005013e-01,6.15784e-01,9.99999e-01,9.99999e-01,6.15784e-01,9.99999e-01
4.121510038e-01,6.21709e-01,9.99999e-01,9.99997e-01,6.21710e-01,9.99999e-01
4.142117588e-01,6.27564e-01,9.99999e-01,9.99982e-01,6.27574e-01,9.99999e-01
4.162828176e-01,6.33329e-01,9.99999e-01,9.99924e-01,6.33376e-01,9.99999e-01
4.183642317e-01,6.39087e-01,9.99999e-01,9.99955e-01,6.39115e-01,9.99999e-01
4.204560528e-01,6.44774e-01,9.99999e-01,9.99972e-01,6.44792e-01,9.99999e-01
4.225583331e-01,6.50399e-01,9.99999e-01,9.99989e-01,6.50405e-01,9.99999e-01
4.246711247e-01,6.55950e-01,9.99999e-01,9.99991e-01,6.55955e-01,9.99999e-01
4.267944804e-01,6.61433e-01,9.99999e-01,9.99987e-01,6.61441e-01,9.99999e-01
4.289284528e-01,6.66857e-01,9.99999e-01,9.99990e-01,6.66864e-01,9.99999e-01
4.310730950e-01,6.72219e-01,9.99999e-01,9.99995e-01,6.72222e-01,9.99999e-01
4.332284605e-01,6.77516e-01,9.99999e-01,9.99998e-01,6.77516e-01,9.99999e-01
4.353946028e-01,6.82746e-01,9.99999e-01,9.99999e-01,6.82746e-01,9.99999e-01
4.375715758e-01,6.87907e-01,9.99999e-01,9.99991e-01,6.87913e-01,9.99999e-01
4.397594337e-01,6.92969e-01,9.99999e-01,9.99933e-01,6.93015e-01,9.99999e-01
4.419582309e-01,6.97816e-01,9.99999e-01,9.99661e-01,6.98053e-01,9.99999e-01
4.441680220e-01,7.02845e-01,9.99999e-01,9.99740e-01,7.03026e-01,9.99999e-01
4.463888621e-01,7.07745e-01,9.99999e-01,9.99728e-01,7.07937e-01,9.99999e-01
4.486208064e-01,7.12664e-01,9.99999e-01,9.99831e-01,7.12783e-01,9.99999e-01
4.508639105e-01,7.17510e-01,9.99999e-01,9.99921e-01,7.17566e-01,9.99999e-01
4.531182300e-01,7.22263e-01,9.99999e-01,9.99968e-01,7.22285e-01,9.99999e-01
4.553838212e-01,7.26927e-01,9.99999e-01,9.99978e-01,7.26942e-01,9.99999e-01
4.576607403e-01,7.31528e-01,9.99999e-01,9.99989e-01,7.31536e-01,9.99999e-01
4.599490440e-01,7.36062e-01,9.99999e-01,9.99992e-01,7.36067e-01,9.99999e-01
4.622487892e-01,7.40534e-01,9.99999e-01,9.99998e-01,7.40535e-01,9.99999e-01
4.645600332e-01,7.44939e-01,9.99999e-01,9.99994e-01,7.44942e-01,9.99999e-01
4.668828333e-01,7.49227e-01,9.99999e-01,9.99919e-01,7.49287e-01,9.99999e-01
4.692172475e-01,7.53444e-01,9.99999e-01,9.99829e-01,7.53572e-01,9.99999e-01
4.715633337e-01,7.57710e-01,9.99999e-01,9.99888e-01,7.57795e-01,9.99999e-01
4.739211504e-01,7.61877e-01,9.99999e-01,9.99893e-01,7.61957e-01,9.99999e-01
4.762907561e-01,7.66018e-01,9.99999e-01,9.99944e-01,7.66060e-01,9.99999e-01
4.786722099e-01,7.70086e-01,9.99999e-01,9.99977e-01,7.70103e-01,9.99999e-01
4.810655710e-01,7.74082e-01,9.99999e-01,9.99992e-01,7.74087e-01,9.99999e-01
4.834708988e-01,7.77961e-01,9.99999e-01,9.99932e-01,7.78012e-01,9.99999e-01
4.858882533e-01,7.81786e-01,9.99999e-01,9.99879e-01,7.81879e-01,9.99999e-01
4.883176946e-01,7.85609e-01,9.99999e-01,9.99898e-01,7.85689e-01,9.99999e-01
4.907592831e-01,7.89369e-01,9.99999e-01,9.99908e-01,7.89441e-01,9.99999e-01
4.932130795e-01,7.93085e-01,9.99999e-01,9.99935e-01,7.93136e-01,9.99999e-01
4.956791449e-01,7.96748e-01,9.99999e-01,9.99965e-01,7.96775e-01,9.99999e-01
4.981575406e-01,8.00222e-01,9.99999e-01,9.99827e-01,8.00359e-01,9.99999e-01
5.006483283e-01,8.03525e-01,9.99999e-01,9.99552e-01,8.03887e-01,9.99996e-01
5.031515699e-01,8.05526e-01,9.99999e-01,9.97749e-01,8.07361e-01,9.99975e-01
5.056673278e-01,8.09799e-01,9.99999e-01,9.98815e-01,8.10781e-01,9.99972e-01
5.081956644e-01,8.12918e-01,9.99999e-01,9.98506e-01,8.14147e-01,9.99983e-01
5.107366428e-01,8.16635e-01,9.99999e-01,9.98992e-01,8.17460e-01,9.99996e-01
5.132903260e-01,8.20249e-01,9.99999e-01,9.99424e-01,8.20721e-01,9.99999e-01
5.158567776e-01,8.23731e-01,9.99999e-01,9.99757e-01,8.23930e-01,9.99999e-01
5.184360615e-01,8.27008e-01,9.99999e-01,9.99902e-01,8.27088e-01,9.99999e-01
5.210282418e-01,8.30165e-01,9.99999e-01,9.99963e-01,8.30195e-01,9.99999e-01
5.236333830e-01,8.33130e-01,9.99999e-01,9.99853e-01,8.33253e-01,9.99998e-01
5.262515499e-01,8.36183e-01,9.99999e-01,9.99908e-01,8.36260e-01,9.99998e-01
5.288828077e-01,8.39148e-01,9.99999e-01,9.99915e-01,8.39219e-01,9.99998e-01
5.315272217e-01,8.42068e-01,9.99999e-01,9.99926e-01,8.42130e-01,9.99999e-01
5.341848578e-01,8.44952e-01,9.99999e-01,9.99950e-01,8.44993e-01,9.99999e-01
5.368557821e-01,8.47663e-01,9.99999e-01,9.99828e-01,8.47809e-01,9.99999e-01
5.395400610e-01,8.50044e-01,9.99999e-01,9.99377e-01,8.50578e-01,9.99993e-01
5.422377613e-01,8.52613e-01,9.99999e-01,9.99206e-01,8.53301e-01,9.99984e-01
5.449489501e-01,8.55331e-01,9.99999e-01,9.99256e-01,8.55980e-01,9.99984e-01
5.476736949e-01,8.58047e-01,9.99999e-01,9.99347e-01,8.58613e-01,9.99992e-01
5.504120634e-01,8.60792e-01,9.99999e-01,9.99525e-01,8.61202e-01,9.99997e-01
5.531641237e-01,8.63542e-01,9.99999e-01,9.99761e-01,8.63748e-01,9.99999e-01
5.559299443e-01,8.66151e-01,9.99999e-01,9.99884e-01,8.66250e-01,9.99999e-01
5.587095940e-01,8.68648e-01,9.99999e-01,9.99927e-01,8.68711e-01,9.99999e-01
5.615031420e-01,8.71059e-01,9.99999e-01,9.99918e-01,8.71129e-01,9.99999e-01
5.643106577e-01,8.73425e-01,9.99999e-01,9.99907e-01,8.73506e-01,9.99998e-01
5.671322110e-01,8.74844e-01,9.99999e-01,9.98869e-01,8.75843e-01,9.99989e-01
5.699678720e-01,8.77084e-01,9.99999e-01,9.98828e-01,8.78139e-01,9.99969e-01
5.728177114e-01,8.79289e-01,9.99999e-01,9.98766e-01,8.80396e-01,9.99974e-01
5.756818000e-01,8.81605e-01,9.99999e-01,9.98870e-01,8.82614e-01,9.99984e-01
5.785602090e-01,8.83921e-01,9.99999e-01,9.99017e-01,8.84794e-01,9.99995e-01
5.814530100e-01,8.86057e-01,9.99999e-01,9.99010e-01,8.86935e-01,9.99997e-01
5.843602750e-01,8.87979e-01,9.99999e-01,9.98812e-01,8.89040e-01,9.99992e-01
5.872820764e-01,8.81980e-01,9.99999e-01,9.89827e-01,8.91108e-01,9.99928e-01
5.902184868e-01,8.82051e-01,9.99999e-01,9.87776e-01,8.93139e-01,9.99805e-01
5.931695792e-01,8.87211e-01,9.99999e-01,9.91332e-01,8.95135e-01,9.99812e-01
5.961354271e-01,8.88494e-01,9.99999e-01,9.90517e-01,8.97096e-01,9.99892e-01
5.991161043e-01,8.92774e-01,9.99999e-01,9.93082e-01,8.99022e-01,9.99966e-01
6.021116848e-01,8.97375e-01,9.99999e-01,9.96074e-01,9.00914e-01,9.99995e-01
6.051222432e-01,9.00979e-01,9.99999e-01,9.98012e-01,9.02773e-01,9.99999e-01
6.081478544e-01,9.03823e-01,9.99999e-01,9.99141e-01,9.04599e-01,9.99999e-01
6.111885937e-01,9.06064e-01,9.99999e-01,9.99637e-01,9.06392e-01,9.99999e-01
6.142445367e-01,9.08006e-01,9.99999e-01,9.99837e-01,9.08154e-01,9.99999e-01
6.173157594e-01,9.09802e-01,9.99999e-01,9.99910e-01,9.09883e-01,9.99999e-01
6.204023382e-01,9.11513e-01,9.99999e-01,9.99923e-01,9.11582e-01,9.99999e-01
6.235043498e-01,9.12940e-01,9.99999e-01,9.99659e-01,9.13251e-01,9.99998e-01
6.266218716e-01,9.13258e-01,9.99999e-01,9.98229e-01,9.14889e-01,9.99987e-01
6.297549810e-01,9.15880e-01,9.99999e-01,9.99349e-01,9.16498e-01,9.99974e-01
6.329037559e-01,9.16884e-01,9.99999e-01,9.98719e-01,9.18078e-01,9.99979e-01
6.360682746e-01,9.18611e-01,9.99999e-01,9.98904e-01,9.19629e-01,9.99987e-01
6.392486160e-01,9.19843e-01,9.99999e-01,9.98583e-01,9.21152e-01,9.99994e-01
6.424448591e-01,9.20878e-01,9.99999e-01,9.98090e-01,9.22648e-01,9.99990e-01
6.456570834e-01,9.15904e-01,9.99999e-01,9.91166e-01,9.24116e-01,9.99946e-01
6.488853688e-01,9.19503e-01,9.99999e-01,9.93592e-01,9.25558e-01,9.99863e-01
6.521297956e-01,9.20819e-01,9.99999e-01,9.93471e-01,9.26973e-01,9.99886e-01
6.553904446e-01,9.22222e-01,9.99999e-01,9.93468e-01,9.28363e-01,9.99915e-01
6.586673968e-01,9.24521e-01,9.99999e-01,9.94427e-01,9.29727e-01,9.99971e-01
6.619607338e-01,9.28167e-01,9.99999e-01,9.96892e-01,9.31066e-01,9.99993e-01
6.652705375e-01,9.30638e-01,9.99999e-01,9.98133e-01,9.32380e-01,9.99996e-01
6.685968902e-01,9.32930e-01,9.99999e-01,9.99207e-01,9.33671e-01,9.99998e-01
6.719398746e-01,9.34562e-01,9.99999e-01,9.99598e-01,9.34937e-01,9.99999e-01
6.752995740e-01,9.35982e-01,9.99999e-01,9.99787e-01,9.36180e-01,9.99999e-01
6.786760719e-01,9.37103e-01,9.99999e-01,9.99681e-01,9.37401e-01,9.99999e-01
6.820694522e-01,9.38088e-01,9.99999e-01,9.99458e-01,9.38598e-01,9.99996e-01
6.854797995e-01,9.39112e-01,9.99999e-01,9.99301e-01,9.39774e-01,9.99993e-01
6.889071985e-01,9.39303e-01,9.99999e-01,9.98288e-01,9.40928e-01,9.99984e-01
6.923517345e-01,9.16188e-01,9.99999e-01,9.72664e-01,9.42060e-01,9.99867e-01
6.958134932e-01,9.29672e-01,9.99999e-01,9.85975e-01,9.43171e-01,9.99707e-01
6.992925606e-01,9.31174e-01,9.99999e-01,9.86399e-01,9.44262e-01,9.99736e-01
7.027890234e-01,9.29411e-01,9.99999e-01,9.83354e-01,9.45332e-01,9.99798e-01
7.063029686e-01,9.33013e-01,9.99999e-01,9.85971e-01,9.46382e-01,9.99899e-01
7.098344834e-01,9.34601e-01,9.99999e-01,9.86534e-01,9.47413e-01,9.99940e-01
7.133836558e-01,9.31163e-01,9.99999e-01,9.81914e-01,9.48425e-01,9.99882e-01
7.169505741e-01,8.20760e-01,9.99999e-01,8.65287e-01,9.49417e-01,9.99074e-01
7.205353270e-01,8.84844e-01,9.99999e-01,9.32552e-01,9.50391e-01,9.98368e-01
7.241380036e-01,8.68115e-01,9.99999e-01,9.13798e-01,9.51347e-01,9.98591e-01
7.277586936e-01,8.76966e-01,9.99999e-01,9.21968e-01,9.52284e-01,9.98848e-01
7.313974871e-01,8.74095e-01,9.99999e-01,9.17501e-01,9.53204e-01,9.99460e-01
7.350544745e-01,9.09978e-01,9.99999e-01,9.53926e-01,9.54107e-01,9.99812e-01
7.387297469e-01,9.22319e-01,9.99999e-01,9.65868e-01,9.54993e-01,9.99913e-01
7.424233956e-01,9.39771e-01,9.99999e-01,9.83180e-01,9.55862e-01,9.99984e-01
7.461355126e-01,9.46915e-01,9.99999e-01,9.89759e-01,9.56715e-01,9.99996e-01
7.498661902e-01,9.52986e-01,9.99999e-01,9.95232e-01,9.57551e-01,9.99998e-01
7.536155211e-01,9.56122e-01,9.99999e-01,9.97652e-01,9.58372e-01,9.99998e-01
7.573835987e-01,9.58018e-01,9.99999e-01,9.98791e-01,9.59177e-01,9.99999e-01
7.611705167e-01,9.59246e-01,9.99999e-01,9.99248e-01,9.59967e-01,9.99999e-01
7.649763693e-01,9.60289e-01,9.99999e-01,9.99528e-01,9.60742e-01,9.99999e-01
7.688012511e-01,9.61187e-01,9.99999e-01,9.99671e-01,9.61502e-01,9.99999e-01
7.726452574e-01,9.61988e-01,9.99999e-01,9.99729e-01,9.62248e-01,9.99999e-01
7.765084837e-01,9.62607e-01,9.99999e-01,9.99612e-01,9.62980e-01,9.99999e-01
7.803910261e-01,9.62082e-01,9.99999e-01,9.98324e-01,9.63698e-01,9.99997e-01
7.842929812e-01,9.58762e-01,9.99999e-01,9.94161e-01,9.64402e-01,9.99988e-01
7.882144461e-01,9.53528e-01,9.99999e-01,9.88097e-01,9.65093e-01,9.99917e-01
7.921555184e-01,9.59346e-01,9.99999e-01,9.93489e-01,9.65770e-01,9.99857e-01
7.961162960e-01,9.55094e-01,9.99999e-01,9.88398e-01,9.66435e-01,9.99864e-01
8.000968774e-01,9.54063e-01,9.99999e-01,9.86675e-01,9.67087e-01,9.99855e-01
8.040973618e-01,9.54709e-01,9.99999e-01,9.86656e-01,9.67726e-01,9.99889e-01
8.081178486e-01,9.39245e-01,9.99999e-01,9.70047e-01,9.68353e-01,9.99888e-01
8.121584379e-01,8.53923e-01,9.99999e-01,8.81641e-01,9.68969e-01,9.99577e-01
8.162192301e-01,8.34944e-01,9.99999e-01,8.62514e-01,9.69572e-01,9.98412e-01
8.203003262e-01,8.99514e-01,9.99999e-01,9.28902e-01,9.70164e-01,9.98141e-01
8.244018279e-01,8.76979e-01,9.99999e-01,9.04745e-01,9.70745e-01,9.98520e-01
8.285238370e-01,8.87469e-01,9.99999e-01,9.14740e-01,9.71314e-01,9.98838e-01
8.326664562e-01,8.88135e-01,9.99999e-01,9.14277e-01,9.71873e-01,9.99519e-01
8.368297885e-01,9.11900e-01,9.99999e-01,9.37865e-01,9.72421e-01,9.99889e-01
8.410139374e-01,9.36500e-01,9.99999e-01,9.62590e-01,9.72958e-01,9.99935e-01
8.452190071e-01,9.55430e-01,9.99999e-01,9.81490e-01,9.73485e-01,9.99961e-01
8.494451021e-01,9.63435e-01,9.99999e-01,9.89181e-01,9.74002e-01,9.99968e-01
8.536923276e-01,9.68263e-01,9.99999e-01,9.93608e-01,9.74509e-01,9.99980e-01
8.579607893e-01,9.71150e-01,9.99999e-01,9.96049e-01,9.75006e-01,9.99995e-01
8.622505932e-01,9.73049e-01,9.99999e-01,9.97494e-01,9.75493e-01,9.99998e-01
8.665618462e-01,9.74453e-01,9.99999e-01,9.98444e-01,9.75972e-01,9.99999e-01
8.708946554e-01,9.74697e-01,9.99999e-01,9.98214e-01,9.76441e-01,9.99998e-01
8.752491287e-01,9.74568e-01,9.99999e-01,9.97614e-01,9.76901e-01,9.99997e-01
8.796253743e-01,9.74108e-01,9.99999e-01,9.96687e-01,9.77352e-01,9.99992e-01
8.840235012e-01,9.74077e-01,9.99999e-01,9.96220e-01,9.77794e-01,9.99976e-01
8.884436187e-01,9.64564e-01,9.99999e-01,9.86096e-01,9.78228e-01,9.99934e-01
8.928858368e-01,8.46425e-01,9.99999e-01,8.65213e-01,9.78653e-01,9.99622e-01
8.973502660e-01,7.58785e-01,9.99999e-01,7.76504e-01,9.79070e-01,9.98069e-01
9.018370173e-01,8.59099e-01,9.99999e-01,8.79765e-01,9.79479e-01,9.96966e-01
9.063462024e-01,8.71242e-01,9.99999e-01,8.91505e-01,9.79881e-01,9.97334e-01
9.108779334e-01,8.18066e-01,9.99999e-01,8.36844e-01,9.80274e-01,9.97230e-01
9.154323231e-01,7.99026e-01,9.99999e-01,8.16652e-01,9.80660e-01,9.97710e-01
9.200094847e-01,8.36722e-01,9.99999e-01,8.53988e-01,9.81038e-01,9.98717e-01
9.246095321e-01,7.67986e-01,9.99999e-01,7.83690e-01,9.81409e-01,9.98522e-01
9.292325798e-01,2.11285e-01,9.99999e-01,2.16748e-01,9.81773e-01,9.92889e-01
9.338787427e-01,1.35375e-01,9.99999e-01,1.41439e-01,9.82130e-01,9.74537e-01
9.385481364e-01,4.30784e-01,9.99999e-01,4.51068e-01,9.82480e-01,9.72060e-01
9.432408771e-01,3.26326e-01,9.99999e-01,3.40246e-01,9.82823e-01,9.75849e-01
9.479570815e-01,2.18399e-01,9.99999e-01,2.26604e-01,9.83159e-01,9.80299e-01
9.526968669e-01,3.09343e-01,9.99999e-01,3.18376e-01,9.83489e-01,9.87937e-01
9.574603512e-01,3.28920e-01,9.99999e-01,3.36399e-01,9.83812e-01,9.93854e-01
9.622476530e-01,3.99117e-01,9.99999e-01,4.07285e-01,9.84130e-01,9.95746e-01
9.670588912e-01,5.81721e-01,9.99999e-01,5.92640e-01,9.84441e-01,9.97088e-01
9.718941857e-01,7.02854e-01,9.99999e-01,7.15274e-01,9.84746e-01,9.97855e-01
9.767536566e-01,7.44261e-01,9.99999e-01,7.56800e-01,9.85045e-01,9.98361e-01
9.816374249e-01,8.00712e-01,9.99999e-01,8.13087e-01,9.85338e-01,9.99432e-01
9.865456120e-01,8.65739e-01,9.99999e-01,8.78468e-01,9.85625e-01,9.99881e-01
9.914783401e-01,9.09820e-01,9.99999e-01,9.22855e-01,9.85907e-01,9.99966e-01
9.964357318e-01,9.43984e-01,9.99999e-01,9.57226e-01,9.86184e-01,9.99980e-01
1.001417910e+00,9.60919e-01,9.99999e-01,9.74141e-01,9.86455e-01,9.99970e-01
1.006425000e+00,9.72022e-01,9.99999e-01,9.85144e-01,9.86720e-01,9.99957e-01
1.011457125e+00,9.77841e-01,9.99999e-01,9.90776e-01,9.86981e-01,9.99960e-01
1.016514411e+00,9.81012e-01,9.99999e-01,9.93721e-01,9.87237e-01,9.99972e-01
1.021596983e+00,9.82515e-01,9.99999e-01,9.94990e-01,9.87487e-01,9.99972e-01
1.026704968e+00,9.83854e-01,9.99999e-01,9.96089e-01,9.87733e-01,9.99982e-01
1.031838492e+00,9.85165e-01,9.99999e-01,9.97162e-01,9.87973e-01,9.99994e-01
1.036997685e+00,9.86539e-01,9.99999e-01,9.98310e-01,9.88210e-01,9.99998e-01
1.042182673e+00,9.86443e-01,9.99999e-01,9.97978e-01,9.88441e-01,9.99999e-01
1.047393587e+00,9.86023e-01,9.99999e-01,9.97324e-01,9.88668e-01,9.99998e-01
1.052630555e+00,9.85257e-01,9.99999e-01,9.96326e-01,9.88891e-01,9.99998e-01
1.057893707e+00,9.83039e-01,9.99999e-01,9.93865e-01,9.89109e-01,9.99997e-01
1.063183176e+00,9.79360e-01,9.99999e-01,9.89934e-01,9.89323e-01,9.99994e-01
1.068499092e+00,9.72923e-01,9.99999e-01,9.83225e-01,9.89533e-01,9.99988e-01
1.073841587e+00,9.70292e-01,9.99999e-01,9.80376e-01,9.89738e-01,9.99974e-01
1.079210795e+00,9.65110e-01,9.99999e-01,9.74983e-01,9.89940e-01,9.99932e-01
1.084606849e+00,9.52692e-01,9.99999e-01,9.62337e-01,9.90138e-01,9.99837e-01
1.090029883e+00,9.36673e-01,9.99999e-01,9.46135e-01,9.90332e-01,9.99663e-01
1.095480033e+00,8.51635e-01,9.99999e-01,8.60307e-01,9.90522e-01,9.99391e-01
1.100957433e+00,6.77581e-01,9.99999e-01,6.84703e-01,9.90708e-01,9.98879e-01
1.106462220e+00,3.89289e-01,9.99999e-01,3.93615e-01,9.90891e-01,9.98100e-01
1.111994531e+00,1.46332e-01,9.99999e-01,1.48397e-01,9.91070e-01,9.94966e-01
1.117554504e+00,4.87560e-02,9.99999e-01,5.00908e-02,9.91245e-01,9.81948e-01
1.123142276e+00,1.21487e-01,9.99999e-01,1.27948e-01,9.91417e-01,9.57720e-01
1.128757988e+00,2.27247e-01,9.99999e-01,2.40919e-01,9.91586e-01,9.51253e-01
1.134401778e+00,1.04130e-01,9.99999e-01,1.09554e-01,9.91752e-01,9.58396e-01
1.140073787e+00,3.95476e-01,9.99999e-01,4.12468e-01,9.91914e-01,9.66617e-01
1.145774156e+00,1.69066e-01,9.99999e-01,1.75796e-01,9.92073e-01,9.69399e-01
1.151503026e+00,1.42797e-01,9.99999e-01,1.46428e-01,9.92229e-01,9.82835e-01
1.157260541e+00,1.79154e-01,9.99999e-01,1.81466e-01,9.92382e-01,9.94836e-01
1.163046844e+00,2.78174e-01,9.99999e-01,2.80678e-01,9.92532e-01,9.98533e-01
1.168862078e+00,4.01038e-01,9.99999e-01,4.04300e-01,9.92679e-01,9.99244e-01
1.174706389e+00,5.66193e-01,9.99999e-01,5.70857e-01,9.92823e-01,9.98998e-01
1.180579921e+00,7.03589e-01,9.99999e-01,7.09648e-01,9.92964e-01,9.98485e-01
1.186482820e+00,8.15748e-01,9.99999e-01,8.22691e-01,9.93103e-01,9.98445e-01
1.192415234e+00,8.84959e-01,9.99999e-01,8.92021e-01,9.93238e-01,9.98835e-01
1.198377311e+00,9.01067e-01,9.99999e-01,9.08081e-01,9.93371e-01,9.98895e-01
1.204369197e+00,9.06274e-01,9.99999e-01,9.13079e-01,9.93502e-01,9.99037e-01
1.210391043e+00,9.10215e-01,9.99999e-01,9.16604e-01,9.93630e-01,9.99394e-01
1.216442998e+00,9.22596e-01,9.99999e-01,9.28737e-01,9.93755e-01,9.99628e-01
1.222525213e+00,9.37957e-01,9.99999e-01,9.43951e-01,9.93878e-01,9.99769e-01
1.228637839e+00,9.54838e-01,9.99999e-01,9.60704e-01,9.93999e-01,9.99892e-01
1.234781029e+00,9.64969e-01,9.99999e-01,9.70708e-01,9.94117e-01,9.99968e-01
1.240954934e+00,9.75694e-01,9.99999e-01,9.81361e-01,9.94233e-01,9.99990e-01
1.247159708e+00,9.79890e-01,9.99999e-01,9.85465e-01,9.94346e-01,9.99994e-01
1.253395507e+00,9.81592e-01,9.99999e-01,9.87069e-01,9.94458e-01,9.99992e-01
1.259662485e+00,9.82311e-01,9.99999e-01,9.87687e-01,9.94567e-01,9.99988e-01
1.265960797e+00,9.75200e-01,9.99999e-01,9.80440e-01,9.94674e-01,9.99980e-01
1.272290601e+00,9.64267e-01,9.99999e-01,9.69360e-01,9.94779e-01,9.99965e-01
1.278652054e+00,9.35257e-01,9.99999e-01,9.40124e-01,9.94882e-01,9.99939e-01
1.285045314e+00,8.89612e-01,9.99999e-01,8.94197e-01,9.94982e-01,9.99887e-01
1.291470541e+00,8.18911e-01,9.99999e-01,8.23119e-01,9.95081e-01,9.99803e-01
1.297927893e+00,7.54932e-01,9.99999e-01,7.58866e-01,9.95178e-01,9.99634e-01
1.304417533e+00,7.19914e-01,9.99999e-01,7.23892e-01,9.95273e-01,9.99225e-01
1.310939621e+00,6.60746e-01,9.99999e-01,6.64877e-01,9.95366e-01,9.98410e-01
1.317494319e+00,6.65516e-01,9.99999e-01,6.70521e-01,9.95458e-01,9.97062e-01
1.324081790e+00,5.51551e-01,9.99999e-01,5.56684e-01,9.95547e-01,9.95208e-01
1.330702199e+00,1.55887e-01,9.99999e-01,1.57872e-01,9.95635e-01,9.91753e-01
1.337355710e+00,4.85636e-03,9.99999e-01,4.95562e-03,9.95721e-01,9.84179e-01
1.344042489e+00,9.96887e-05,9.99999e-01,1.05034e-04,9.95805e-01,9.53102e-01
1.350762701e+00,3.23652e-12,9.99999e-01,3.83078e-12,9.95888e-01,8.48359e-01
1.357516515e+00,5.63007e-18,9.99999e-01,9.15945e-18,9.95969e-01,6.17159e-01
1.364304097e+00,1.70044e-11,9.99999e-01,3.97764e-11,9.96048e-01,4.29196e-01
1.371125618e+00,1.51239e-07,9.99999e-01,3.37040e-07,9.96126e-01,4.50471e-01
1.377981246e+00,5.46709e-07,9.99999e-01,1.08713e-06,9.96203e-01,5.04808e-01
1.384871152e+00,7.94805e-10,9.99999e-01,1.50839e-09,9.96277e-01,5.28891e-01
1.391795508e+00,1.86387e-11,9.99999e-01,3.43317e-11,9.96351e-01,5.44889e-01
1.398754485e+00,4.09227e-09,9.99999e-01,6.78173e-09,9.96423e-01,6.05592e-01
1.405748258e+00,5.26383e-09,9.99999e-01,7.08211e-09,9.96493e-01,7.45870e-01
1.412776999e+00,7.48587e-09,9.99999e-01,8.58767e-09,9.96562e-01,8.74705e-01
1.419840884e+00,1.56979e-08,9.99999e-01,1.67032e-08,9.96630e-01,9.42992e-01
1.426940089e+00,3.06792e-06,9.99999e-01,3.21845e-06,9.96697e-01,9.56385e-01
1.434074789e+00,2.78547e-05,9.99999e-01,2.94551e-05,9.96762e-01,9.48738e-01
1.441245163e+00,1.83151e-04,9.99999e-01,1.94511e-04,9.96826e-01,9.44596e-01
1.448451389e+00,2.70931e-03,9.99998e-01,2.85684e-03,9.96888e-01,9.51318e-01
1.455693646e+00,1.76071e-02,9.99999e-01,1.83603e-02,9.96949e-01,9.61911e-01
1.462972114e+00,2.54334e-02,9.99999e-01,2.64722e-02,9.97010e-01,9.63641e-01
1.470286975e+00,1.46772e-02,9.99999e-01,1.52661e-02,9.97069e-01,9.64249e-01
