#,Wave/freq,Total,N2,H2O,Rayleigh,CIA
4.000000000e-01,5.15505e-01,9.99999e-01,9.99924e-01,5.15544e-01,9.99999e-01
4.020000000e-01,5.22318e-01,9.99999e-01,9.99953e-01,5.22342e-01,9.99999e-01
4.040100000e-01,5.29075e-01,9.99999e-01,9.99979e-01,5.29086e-01,9.99999e-01
4.060300500e-01,5.35778e-01,9.99999e-01,9.99994e-01,5.35781e-01,9.99999e-01
4.080602003e-01,5.42425e-01,9.99999e-01,9.99998e-01,5.42426e-01,9.99999e-01
4.101005013e-01,5.49019e-01,9.99999e-01,9.99999e-01,5.49019e-01,9.99999e-01
4.121510038e-01,5.55559e-01,9.99999e-01,9.99996e-01,5.55561e-01,9.99999e-01
4.142117588e-01,5.62037e-01,9.99999e-01,9.99979e-01,5.62048e-01,9.99999e-01
4.162828176e-01,5.68429e-01,9.99999e-01,9.99906e-01,5.68481e-01,9.99999e-01
4.183642317e-01,5.74827e-01,9.99999e-01,9.99944e-01,5.74859e-01,9.99999e-01
4.204560528e-01,5.81160e-01,9.99999e-01,9.99965e-01,5.81180e-01,9.99999e-01
4.225583331e-01,5.87436e-01,9.99999e-01,9.99986e-01,5.87443e-01,9.99999e-01
4.246711247e-01,5.93643e-01,9.99999e-01,9.99989e-01,5.93649e-01,9.99999e-01
4.267944804e-01,5.99786e-01,9.99999e-01,9.99984e-01,5.99795e-01,9.99999e-01
4.289284528e-01,6.05875e-01,9.99999e-01,9.99988e-01,6.05882e-01,9.99999e-01
4.310730950e-01,6.11905e-01,9.99999e-01,9.99994e-01,6.11908e-01,9.99999e-01
4.332284605e-01,6.17873e-01,9.99999e-01,9.99998e-01,6.17874e-01,9.99999e-01
4.353946028e-01,6.23777e-01,9.99999e-01,9.99998e-01,6.23778e-01,9.99999e-01
4.375715758e-01,6.29614e-01,9.99999e-01,9.99990e-01,6.29620e-01,9.99999e-01
4.397594337e-01,6.35349e-01,9.99999e-01,9.99918e-01,6.35400e-01,9.99999e-01
4.419582309e-01,6.40853e-01,9.99999e-01,9.99587e-01,6.41117e-01,9.99999e-01
4.441680220e-01,6.46563e-01,9.99999e-01,9.99677e-01,6.46772e-01,9.99999e-01
4.463888621e-01,6.52144e-01,9.99999e-01,9.99664e-01,6.52363e-01,9.99999e-01
4.486208064e-01,6.57753e-01,9.99999e-01,9.99791e-01,6.57890e-01,9.99999e-01
4.508639105e-01,6.63289e-01,9.99999e-01,9.99901e-01,6.63354e-01,9.99999e-01
4.531182300e-01,6.68728e-01,9.99999e-01,9.99960e-01,6.68754e-01,9.99999e-01
4.553838212e-01,6.74072e-01,9.99999e-01,9.99973e-01,6.74090e-01,9.99999e-01
4.576607403e-01,6.79353e-01,9.99999e-01,9.99987e-01,6.79361e-01,9.99999e-01
4.599490440e-01,6.84563e-01,9.99999e-01,9.99990e-01,6.84569e-01,9.99999e-01
4.622487892e-01,6.89712e-01,9.99999e-01,9.99998e-01,6.89713e-01,9.99999e-01
4.645600332e-01,6.94788e-01,9.99999e-01,9.99993e-01,6.94792e-01,9.99999e-01
4.668828333e-01,6.99739e-01,9.99999e-01,9.99901e-01,6.99808e-01,9.99999e-01
4.692172475e-01,7.04611e-01,9.99999e-01,9.99789e-01,7.04759e-01,9.99999e-01
4.715633337e-01,7.09549e-01,9.99999e-01,9.99862e-01,7.09647e-01,9.99999e-01
4.739211504e-01,7.14377e-01,9.99999e-01,9.99867e-01,7.14471e-01,9.99999e-01
4.762907561e-01,7.19182e-01,9.99999e-01,9.99931e-01,7.19232e-01,9.99999e-01
4.786722099e-01,7.23909e-01,9.99999e-01,9.99971e-01,7.23929e-01,9.99999e-01
4.810655710e-01,7.28557e-01,9.99999e-01,9.99991e-01,7.28563e-01,9.99999e-01
4.834708988e-01,7.33076e-01,9.99999e-01,9.99919e-01,7.33135e-01,9.99999e-01
4.858882533e-01,7.37534e-01,9.99999e-01,9.99850e-01,7.37644e-01,9.99999e-01
4.883176946e-01,7.41999e-01,9.99999e-01,9.99875e-01,7.42091e-01,9.99999e-01
4.907592831e-01,7.46392e-01,9.99999e-01,9.99886e-01,7.46476e-01,9.99999e-01
4.932130795e-01,7.50740e-01,9.99999e-01,9.99919e-01,7.50800e-01,9.99999e-01
4.956791449e-01,7.55031e-01,9.99999e-01,9.99957e-01,7.55062e-01,9.99999e-01
4.981575406e-01,7.59104e-01,9.99999e-01,9.99788e-01,7.59264e-01,9.99999e-01
5.006483283e-01,7.62986e-01,9.99999e-01,9.99452e-01,7.63406e-01,9.99995e-01
5.031515699e-01,7.65336e-01,9.99999e-01,9.97225e-01,7.67488e-01,9.99970e-01
5.056673278e-01,7.70353e-01,9.99999e-01,9.98533e-01,7.71510e-01,9.99966e-01
5.081956644e-01,7.74023e-01,9.99999e-01,9.98150e-01,7.75473e-01,9.99977e-01
5.107366428e-01,7.78401e-01,9.99999e-01,9.98750e-01,7.79378e-01,9.99995e-01
5.132903260e-01,7.82665e-01,9.99999e-01,9.99285e-01,7.83225e-01,9.99999e-01
5.158567776e-01,7.86776e-01,9.99999e-01,9.99697e-01,7.87014e-01,9.99999e-01
5.184360615e-01,7.90650e-01,9.99999e-01,9.99878e-01,7.90746e-01,9.99999e-01
5.210282418e-01,7.94386e-01,9.99999e-01,9.99954e-01,7.94421e-01,9.99999e-01
5.236333830e-01,7.97896e-01,9.99999e-01,9.99818e-01,7.98041e-01,9.99998e-01
5.262515499e-01,8.01513e-01,9.99999e-01,9.99886e-01,8.01605e-01,9.99997e-01
5.288828077e-01,8.05030e-01,9.99999e-01,9.99895e-01,8.05114e-01,9.99998e-01
5.315272217e-01,8.08495e-01,9.99999e-01,9.99908e-01,8.08569e-01,9.99999e-01
5.341848578e-01,8.11921e-01,9.99999e-01,9.99939e-01,8.11970e-01,9.99999e-01
5.368557821e-01,8.15145e-01,9.99999e-01,9.99789e-01,8.15317e-01,9.99999e-01
5.395400610e-01,8.17985e-01,9.99999e-01,9.99240e-01,8.18612e-01,9.99993e-01
5.422377613e-01,8.21032e-01,9.99999e-01,9.99016e-01,8.21855e-01,9.99981e-01
5.449489501e-01,8.24277e-01,9.99999e-01,9.99085e-01,8.25046e-01,9.99981e-01
5.476736949e-01,8.27507e-01,9.99999e-01,9.99189e-01,8.28186e-01,9.99990e-01
5.504120634e-01,8.30785e-01,9.99999e-01,9.99411e-01,8.31275e-01,9.99997e-01
5.531641237e-01,8.34068e-01,9.99999e-01,9.99703e-01,8.34315e-01,9.99999e-01
5.559299443e-01,8.37186e-01,9.99999e-01,9.99856e-01,8.37306e-01,9.99999e-01
5.587095940e-01,8.40172e-01,9.99999e-01,9.99910e-01,8.40248e-01,9.99999e-01
5.615031420e-01,8.43057e-01,9.99999e-01,9.99899e-01,8.43141e-01,9.99999e-01
5.643106577e-01,8.45892e-01,9.99999e-01,9.99886e-01,8.45988e-01,9.99998e-01
5.671322110e-01,8.47615e-01,9.99999e-01,9.98630e-01,8.48787e-01,9.99987e-01
5.699678720e-01,8.50263e-01,9.99999e-01,9.98537e-01,8.51540e-01,9.99962e-01
5.728177114e-01,8.52923e-01,9.99999e-01,9.98479e-01,8.54248e-01,9.99968e-01
5.756818000e-01,8.55698e-01,9.99999e-01,9.98603e-01,8.56910e-01,9.99980e-01
5.785602090e-01,8.58477e-01,9.99999e-01,9.98782e-01,8.59528e-01,9.99993e-01
5.814530100e-01,8.61046e-01,9.99999e-01,9.98777e-01,8.62101e-01,9.99996e-01
5.843602750e-01,8.63368e-01,9.99999e-01,9.98545e-01,8.64632e-01,9.99991e-01
5.872820764e-01,8.56239e-01,9.99999e-01,9.87538e-01,8.67120e-01,9.99911e-01
5.902184868e-01,8.56207e-01,9.99999e-01,9.84874e-01,8.69565e-01,9.99759e-01
5.931695792e-01,8.62447e-01,9.99999e-01,9.89308e-01,8.71969e-01,9.99768e-01
5.961354271e-01,8.63965e-01,9.99999e-01,9.88273e-01,8.74332e-01,9.99866e-01
5.991161043e-01,8.69107e-01,9.99999e-01,9.91431e-01,8.76654e-01,9.99958e-01
6.021116848e-01,8.74651e-01,9.99999e-01,9.95128e-01,8.78937e-01,9.99994e-01
6.051222432e-01,8.79006e-01,9.99999e-01,9.97532e-01,8.81180e-01,9.99999e-01
6.081478544e-01,8.82444e-01,9.99999e-01,9.98935e-01,8.83384e-01,9.99999e-01
6.111885937e-01,8.85151e-01,9.99999e-01,9.99548e-01,8.85550e-01,9.99999e-01
6.142445367e-01,8.87501e-01,9.99999e-01,9.99798e-01,8.87679e-01,9.99999e-01
6.173157594e-01,8.89672e-01,9.99999e-01,9.99888e-01,8.89771e-01,9.99999e-01
6.204023382e-01,8.91742e-01,9.99999e-01,9.99905e-01,8.91826e-01,9.99999e-01
6.235043498e-01,8.93475e-01,9.99999e-01,9.99587e-01,8.93845e-01,9.99998e-01
6.266218716e-01,8.93855e-01,9.99999e-01,9.97812e-01,8.95828e-01,9.99984e-01
6.297549810e-01,8.97029e-01,9.99999e-01,9.99197e-01,8.97777e-01,9.99968e-01
6.329037559e-01,8.98242e-01,9.99999e-01,9.98412e-01,8.99691e-01,9.99974e-01
6.360682746e-01,9.00341e-01,9.99999e-01,9.98649e-01,9.01571e-01,9.99984e-01
6.392486160e-01,9.01832e-01,9.99999e-01,9.98249e-01,9.03419e-01,9.99993e-01
6.424448591e-01,9.03107e-01,9.99999e-01,9.97661e-01,9.05233e-01,9.99989e-01
6.456570834e-01,8.97154e-01,9.99999e-01,9.89187e-01,9.07015e-01,9.99939e-01
6.488853688e-01,9.01399e-01,9.99999e-01,9.92060e-01,9.08765e-01,9.99830e-01
6.521297956e-01,9.02993e-01,9.99999e-01,9.91910e-01,9.10484e-01,9.99860e-01
6.553904446e-01,9.04732e-01,9.99999e-01,9.91945e-01,9.12172e-01,9.99895e-01
6.586673968e-01,9.07490e-01,9.99999e-01,9.93096e-01,9.13830e-01,9.99964e-01
6.619607338e-01,9.11792e-01,9.99999e-01,9.96002e-01,9.15458e-01,9.99992e-01
6.652705375e-01,9.14930e-01,9.99999e-01,9.97684e-01,9.17056e-01,9.99995e-01
6.685968902e-01,9.17637e-01,9.99999e-01,9.98923e-01,9.18626e-01,9.99998e-01
6.719398746e-01,9.19709e-01,9.99999e-01,9.99500e-01,9.20167e-01,9.99999e-01
6.752995740e-01,9.21432e-01,9.99999e-01,9.99729e-01,9.21681e-01,9.99999e-01
6.786760719e-01,9.22807e-01,9.99999e-01,9.99610e-01,9.23167e-01,9.99998e-01
6.820694522e-01,9.24006e-01,9.99999e-01,9.99332e-01,9.24626e-01,9.99996e-01
6.854797995e-01,9.25255e-01,9.99999e-01,9.99139e-01,9.26058e-01,9.99992e-01
6.889071985e-01,9.25521e-01,9.99999e-01,9.97922e-01,9.27464e-01,9.99980e-01
6.923517345e-01,8.97657e-01,9.99999e-01,9.66580e-01,9.28845e-01,9.99836e-01
6.958134932e-01,9.13536e-01,9.99999e-01,9.82439e-01,9.30200e-01,9.99638e-01
6.992925606e-01,9.15705e-01,9.99999e-01,9.83331e-01,9.31530e-01,9.99674e-01
7.027890234e-01,9.13420e-01,9.99999e-01,9.79428e-01,9.32836e-01,9.99751e-01
7.063029686e-01,9.17817e-01,9.99999e-01,9.82669e-01,9.34118e-01,9.99875e-01
7.098344834e-01,9.19748e-01,9.99999e-01,9.83363e-01,9.35377e-01,9.99926e-01
7.133836558e-01,9.15850e-01,9.99999e-01,9.77974e-01,9.36612e-01,9.99854e-01
7.169505741e-01,7.84808e-01,9.99999e-01,8.37796e-01,9.37824e-01,9.98856e-01
7.205353270e-01,8.58820e-01,9.99999e-01,9.16444e-01,9.39014e-01,9.97983e-01
7.241380036e-01,8.40101e-01,9.99999e-01,8.95109e-01,9.40182e-01,9.98258e-01
7.277586936e-01,8.50561e-01,9.99999e-01,9.04863e-01,9.41328e-01,9.98576e-01
7.313974871e-01,8.46411e-01,9.99999e-01,8.98693e-01,9.42453e-01,9.99332e-01
7.350544745e-01,8.89792e-01,9.99999e-01,9.43237e-01,9.43557e-01,9.99767e-01
7.387297469e-01,9.04711e-01,9.99999e-01,9.57832e-01,9.44640e-01,9.99893e-01
7.424233956e-01,9.25940e-01,9.99999e-01,9.79121e-01,9.45703e-01,9.99979e-01
7.461355126e-01,9.34717e-01,9.99999e-01,9.87296e-01,9.46747e-01,9.99995e-01
7.498661902e-01,9.42143e-01,9.99999e-01,9.94063e-01,9.47771e-01,9.99998e-01
7.536155211e-01,9.46010e-01,9.99999e-01,9.97085e-01,9.48775e-01,9.99998e-01
7.573835987e-01,9.48336e-01,9.99999e-01,9.98498e-01,9.49761e-01,9.99999e-01
7.611705167e-01,9.49842e-01,9.99999e-01,9.99066e-01,9.50729e-01,9.99999e-01
7.649763693e-01,9.51122e-01,9.99999e-01,9.99415e-01,9.51678e-01,9.99999e-01
7.688012511e-01,9.52222e-01,9.99999e-01,9.99592e-01,9.52610e-01,9.99999e-01
7.726452574e-01,9.53204e-01,9.99999e-01,9.99664e-01,9.53524e-01,9.99999e-01
7.765084837e-01,9.53966e-01,9.99999e-01,9.99524e-01,9.54420e-01,9.99998e-01
7.803910261e-01,9.53338e-01,9.99999e-01,9.97947e-01,9.55300e-01,9.99997e-01
7.842929812e-01,9.49318e-01,9.99999e-01,9.92853e-01,9.56163e-01,9.99986e-01
7.882144461e-01,9.42862e-01,9.99999e-01,9.85304e-01,9.57010e-01,9.99909e-01
7.921555184e-01,9.49929e-01,9.99999e-01,9.91911e-01,9.57841e-01,9.99824e-01
7.961162960e-01,9.44863e-01,9.99999e-01,9.85776e-01,9.58657e-01,9.99831e-01
8.000968774e-01,9.43512e-01,9.99999e-01,9.83556e-01,9.59456e-01,9.99821e-01
8.040973618e-01,9.44322e-01,9.99999e-01,9.83560e-01,9.60241e-01,9.99857e-01
8.081178486e-01,9.25756e-01,9.99999e-01,9.63442e-01,9.61011e-01,9.99866e-01
8.121584379e-01,8.23856e-01,9.99999e-01,8.57054e-01,9.61766e-01,9.99477e-01
8.162192301e-01,7.99969e-01,9.99999e-01,8.32763e-01,9.62507e-01,9.98038e-01
8.203003262e-01,8.79024e-01,9.99999e-01,9.14675e-01,9.63234e-01,9.97703e-01
8.244018279e-01,8.50029e-01,9.99999e-01,8.83436e-01,9.63947e-01,9.98171e-01
8.285238370e-01,8.63215e-01,9.99999e-01,8.96138e-01,9.64646e-01,9.98563e-01
8.326664562e-01,8.63633e-01,9.99999e-01,8.95179e-01,9.65332e-01,9.99405e-01
8.368297885e-01,8.92026e-01,9.99999e-01,9.23542e-01,9.66005e-01,9.99863e-01
8.410139374e-01,9.21917e-01,9.99999e-01,9.53783e-01,9.66665e-01,9.99920e-01
8.452190071e-01,9.45061e-01,9.99999e-01,9.77041e-01,9.67313e-01,9.99952e-01
8.494451021e-01,9.54961e-01,9.99999e-01,9.86619e-01,9.67948e-01,9.99961e-01
8.536923276e-01,9.60862e-01,9.99999e-01,9.92062e-01,9.68571e-01,9.99976e-01
8.579607893e-01,9.64436e-01,9.99999e-01,9.95107e-01,9.69182e-01,9.99993e-01
8.622505932e-01,9.66763e-01,9.99999e-01,9.96888e-01,9.69782e-01,9.99998e-01
8.665618462e-01,9.68502e-01,9.99999e-01,9.98075e-01,9.70370e-01,9.99998e-01
8.708946554e-01,9.68807e-01,9.99999e-01,9.97797e-01,9.70946e-01,9.99998e-01
8.752491287e-01,9.68647e-01,9.99999e-01,9.97053e-01,9.71512e-01,9.99996e-01
8.796253743e-01,9.68097e-01,9.99999e-01,9.95924e-01,9.72067e-01,9.99990e-01
8.840235012e-01,9.68056e-01,9.99999e-01,9.95345e-01,9.72611e-01,9.99971e-01
8.884436187e-01,9.56755e-01,9.99999e-01,9.83237e-01,9.73144e-01,9.99918e-01
8.928858368e-01,8.15670e-01,9.99999e-01,8.38119e-01,9.73668e-01,9.99533e-01
8.973502660e-01,7.11865e-01,9.99999e-01,7.32478e-01,9.74181e-01,9.97614e-01
9.018370173e-01,8.28250e-01,9.99999e-01,8.52958e-01,9.74685e-01,9.96251e-01
9.063462024e-01,8.44805e-01,9.99999e-01,8.69169e-01,9.75178e-01,9.96706e-01
9.108779334e-01,7.81394e-01,9.99999e-01,8.03634e-01,9.75663e-01,9.96577e-01
9.154323231e-01,7.58524e-01,9.99999e-01,7.79271e-01,9.76137e-01,9.97170e-01
9.200094847e-01,8.02565e-01,9.99999e-01,8.23096e-01,9.76603e-01,9.98415e-01
9.246095321e-01,7.28005e-01,9.99999e-01,7.46459e-01,9.77060e-01,9.98174e-01
9.292325798e-01,1.58047e-01,9.99999e-01,1.62839e-01,9.77508e-01,9.92899e-01
9.338787427e-01,8.94024e-02,9.99999e-01,9.41511e-02,9.77947e-01,9.70974e-01
9.385481364e-01,3.60335e-01,9.99999e-01,3.81429e-01,9.78378e-01,9.65573e-01
9.432408771e-01,2.63534e-01,9.99999e-01,2.77503e-01,9.78801e-01,9.70228e-01
9.479570815e-01,1.60573e-01,9.99999e-01,1.68065e-01,9.79215e-01,9.75702e-01
9.526968669e-01,2.41319e-01,9.99999e-01,2.50062e-01,9.79621e-01,9.85108e-01
9.574603512e-01,2.58671e-01,9.99999e-01,2.65963e-01,9.80020e-01,9.92407e-01
9.622476530e-01,3.24782e-01,9.99999e-01,3.33022e-01,9.80411e-01,9.94743e-01
9.670588912e-01,5.14849e-01,9.99999e-01,5.26826e-01,9.80794e-01,9.96402e-01
9.718941857e-01,6.47560e-01,9.99999e-01,6.61741e-01,9.81169e-01,9.97350e-01
9.767536566e-01,6.94857e-01,9.99999e-01,7.09363e-01,9.81538e-01,9.97974e-01
9.816374249e-01,7.59537e-01,9.99999e-01,7.74081e-01,9.81899e-01,9.99298e-01
9.865456120e-01,8.36418e-01,9.99999e-01,8.51653e-01,9.82254e-01,9.99853e-01
9.914783401e-01,8.89501e-01,9.99999e-01,9.05288e-01,9.82601e-01,9.99959e-01
9.964357318e-01,9.31062e-01,9.99999e-01,9.47242e-01,9.82942e-01,9.99975e-01
1.001417910e+00,9.51794e-01,9.99999e-01,9.68017e-01,9.83276e-01,9.99963e-01
1.006425000e+00,9.65498e-01,9.99999e-01,9.81642e-01,9.83603e-01,9.99947e-01
1.011457125e+00,9.72627e-01,9.99999e-01,9.88564e-01,9.83925e-01,9.99951e-01
1.016514411e+00,9.76553e-01,9.99999e-01,9.92223e-01,9.84240e-01,9.99965e-01
1.021596983e+00,9.78411e-01,9.99999e-01,9.93799e-01,9.84549e-01,9.99965e-01
1.026704968e+00,9.80064e-01,9.99999e-01,9.95161e-01,9.84851e-01,9.99976e-01
1.031838492e+00,9.81675e-01,9.99999e-01,9.96480e-01,9.85148e-01,9.99993e-01
1.036997685e+00,9.83378e-01,9.99999e-01,9.97908e-01,9.85440e-01,9.99998e-01
1.042182673e+00,9.83269e-01,9.99999e-01,9.97508e-01,9.85725e-01,9.99999e-01
1.047393587e+00,9.82748e-01,9.99999e-01,9.96696e-01,9.86005e-01,9.99998e-01
1.052630555e+00,9.81811e-01,9.99999e-01,9.95470e-01,9.86280e-01,9.99998e-01
1.057893707e+00,9.79099e-01,9.99999e-01,9.92450e-01,9.86549e-01,9.99996e-01
1.063183176e+00,9.74576e-01,9.99999e-01,9.87606e-01,9.86813e-01,9.99993e-01
1.068499092e+00,9.66656e-01,9.99999e-01,9.79330e-01,9.87071e-01,9.99985e-01
1.073841587e+00,9.63489e-01,9.99999e-01,9.75887e-01,9.87325e-01,9.99968e-01
1.079210795e+00,9.57041e-01,9.99999e-01,9.69163e-01,9.87574e-01,9.99916e-01
1.084606849e+00,9.41940e-01,9.99999e-01,9.53747e-01,9.87818e-01,9.99798e-01
1.090029883e+00,9.22893e-01,9.99999e-01,9.34436e-01,9.88057e-01,9.99583e-01
1.095480033e+00,8.21067e-01,9.99999e-01,8.31419e-01,9.88291e-01,9.99247e-01
1.100957433e+00,6.21100e-01,9.99999e-01,6.29182e-01,9.88521e-01,9.98615e-01
1.106462220e+00,3.19165e-01,9.99999e-01,3.23557e-01,9.88747e-01,9.97652e-01
1.111994531e+00,9.75226e-02,9.99999e-01,9.92274e-02,9.88968e-01,9.93781e-01
1.117554504e+00,2.64256e-02,9.99999e-01,2.73229e-02,9.89185e-01,9.77730e-01
1.123142276e+00,8.03785e-02,9.99999e-01,8.56964e-02,9.89397e-01,9.47994e-01
1.128757988e+00,1.66092e-01,9.99999e-01,1.78532e-01,9.89605e-01,9.40087e-01
1.134401778e+00,7.41105e-02,9.99999e-01,7.89119e-02,9.89810e-01,9.48822e-01
1.140073787e+00,3.22697e-01,9.99999e-01,3.39925e-01,9.90010e-01,9.58894e-01
1.145774156e+00,1.17810e-01,9.99999e-01,1.23635e-01,9.90206e-01,9.62307e-01
1.151503026e+00,9.61098e-02,9.99999e-01,9.91408e-02,9.90399e-01,9.78823e-01
1.157260541e+00,1.22793e-01,9.99999e-01,1.24755e-01,9.90587e-01,9.93620e-01
1.163046844e+00,2.08874e-01,9.99999e-01,2.11202e-01,9.90772e-01,9.98187e-01
1.168862078e+00,3.24317e-01,9.99999e-01,3.27583e-01,9.90954e-01,9.99065e-01
1.174706389e+00,4.95843e-01,9.99999e-01,5.00899e-01,9.91132e-01,9.98761e-01
1.180579921e+00,6.47576e-01,9.99999e-01,6.54479e-01,9.91306e-01,9.98128e-01
1.186482820e+00,7.77257e-01,9.99999e-01,7.85446e-01,9.91477e-01,9.98079e-01
1.192415234e+00,8.59679e-01,9.99999e-01,8.68170e-01,9.91645e-01,9.98561e-01
1.198377311e+00,8.79297e-01,9.99999e-01,8.87764e-01,9.91809e-01,9.98640e-01
1.204369197e+00,8.85536e-01,9.99999e-01,8.93802e-01,9.91970e-01,9.98770e-01
1.210391043e+00,8.90245e-01,9.99999e-01,8.97979e-01,9.92128e-01,9.99251e-01
1.216442998e+00,9.05044e-01,9.99999e-01,9.12500e-01,9.92283e-01,9.99541e-01
1.222525213e+00,9.23772e-01,9.99999e-01,9.31078e-01,9.92435e-01,9.99714e-01
1.228637839e+00,9.44425e-01,9.99999e-01,9.51606e-01,9.92584e-01,9.99867e-01
1.234781029e+00,9.56795e-01,9.99999e-01,9.63837e-01,9.92730e-01,9.99961e-01
1.240954934e+00,9.70009e-01,9.99999e-01,9.76982e-01,9.92873e-01,9.99988e-01
1.247159708e+00,9.75156e-01,9.99999e-01,9.82023e-01,9.93013e-01,9.99992e-01
1.253395507e+00,9.77281e-01,9.99999e-01,9.84028e-01,9.93151e-01,9.99990e-01
1.259662485e+00,9.78203e-01,9.99999e-01,9.84828e-01,9.93285e-01,9.99985e-01
1.265960797e+00,9.69417e-01,9.99999e-01,9.75862e-01,9.93418e-01,9.99975e-01
1.272290601e+00,9.56135e-01,9.99999e-01,9.62384e-01,9.93547e-01,9.99957e-01
1.278652054e+00,9.20829e-01,9.99999e-01,9.26758e-01,9.93674e-01,9.99925e-01
1.285045314e+00,8.81940e-01,9.99999e-01,8.87565e-01,9.93799e-01,9.99861e-01
1.291470541e+00,7.82446e-01,9.99999e-01,7.87421e-01,9.93921e-01,9.99757e-01
1.297927893e+00,7.28721e-01,9.99999e-01,7.33420e-01,9.94040e-01,9.99547e-01
1.304417533e+00,6.67650e-01,9.99999e-01,6.72216e-01,9.94158e-01,9.99042e-01
1.310939621e+00,6.30101e-01,9.99999e-01,6.34977e-01,9.94273e-01,9.98035e-01
1.317494319e+00,6.05903e-01,9.99999e-01,6.11543e-01,9.94386e-01,9.96370e-01
1.324081790e+00,4.80058e-01,9.99999e-01,4.85589e-01,9.94496e-01,9.94080e-01
1.330702199e+00,1.21695e-01,9.99999e-01,1.23614e-01,9.94605e-01,9.89814e-01
1.337355710e+00,1.72478e-03,9.99999e-01,1.76847e-03,9.94711e-01,9.80478e-01
1.344042489e+00,2.57552e-05,9.99999e-01,2.74733e-05,9.94815e-01,9.42347e-01
1.350762701e+00,1.22067e-14,9.99999e-01,1.50351e-14,9.94917e-01,8.16028e-01
1.357516515e+00,9.87018e-22,9.99999e-01,1.80144e-21,9.95017e-01,5.50647e-01
1.364304097e+00,8.79819e-14,9.99999e-01,2.51570e-13,9.95116e-01,3.51448e-01
1.371125618e+00,7.45281e-09,9.99999e-01,2.00709e-08,9.95212e-01,3.73110e-01
1.377981246e+00,2.76933e-08,9.99999e-01,6.47792e-08,9.95306e-01,4.29518e-01
1.384871152e+00,1.28639e-11,9.99999e-01,2.84034e-11,9.95399e-01,4.54993e-01
1.391795508e+00,8.83297e-14,9.99999e-01,1.87960e-13,9.95489e-01,4.72068e-01
1.398754485e+00,7.57309e-11,9.99999e-01,1.41411e-10,9.95578e-01,5.37916e-01
1.405748258e+00,1.11808e-10,9.99999e-01,1.61355e-10,9.95665e-01,6.95948e-01
1.412776999e+00,1.90014e-10,9.99999e-01,2.25169e-10,9.95751e-01,8.47471e-01
1.419840884e+00,3.73580e-10,9.99998e-01,4.03377e-10,9.95834e-01,9.30004e-01
1.426940089e+00,3.25641e-07,9.99998e-01,3.45508e-07,9.95917e-01,9.46362e-01
1.434074789e+00,3.35990e-06,9.99998e-01,3.60015e-06,9.95997e-01,9.37015e-01
1.441245163e+00,3.20337e-05,9.99999e-01,3.45078e-05,9.96076e-01,9.31960e-01
1.448451389e+00,8.51699e-04,9.99998e-01,9.09399e-04,9.96153e-01,9.40166e-01
1.455693646e+00,7.96464e-03,9.99999e-01,8.38795e-03,9.96229e-01,9.53126e-01
1.462972114e+00,1.18939e-02,9.99999e-01,1.24973e-02,9.96303e-01,9.55246e-01
1.470286975e+00,6.14831e-03,9.99999e-01,6.45473e-03,9.96376e-01,9.55991e-01
