#,Wave/freq,Total,N2,H2O,Rayleigh,CIA
4.000000000e-01,8.07679e-01,9.99999e-01,9.99975e-01,8.07698e-01,9.99999e-01
4.020000000e-01,8.11104e-01,9.99999e-01,9.99984e-01,8.11116e-01,9.99999e-01
4.040100000e-01,8.14472e-01,9.99999e-01,9.99993e-01,8.14477e-01,9.99999e-01
4.060300500e-01,8.17784e-01,9.99999e-01,9.99998e-01,8.17785e-01,9.99999e-01
4.080602003e-01,8.21041e-01,9.99999e-01,9.99999e-01,8.21041e-01,9.99999e-01
4.101005013e-01,8.24245e-01,9.99999e-01,9.99999e-01,8.24245e-01,9.99999e-01
4.121510038e-01,8.27397e-01,9.99999e-01,9.99998e-01,8.27398e-01,9.99999e-01
4.142117588e-01,8.30495e-01,9.99999e-01,9.99992e-01,8.30500e-01,9.99999e-01
4.162828176e-01,8.33528e-01,9.99999e-01,9.99969e-01,8.33553e-01,9.99999e-01
4.183642317e-01,8.36541e-01,9.99999e-01,9.99981e-01,8.36556e-01,9.99999e-01
4.204560528e-01,8.39501e-01,9.99999e-01,9.99988e-01,8.39510e-01,9.99999e-01
4.225583331e-01,8.42412e-01,9.99999e-01,9.99995e-01,8.42416e-01,9.99999e-01
4.246711247e-01,8.45271e-01,9.99999e-01,9.99996e-01,8.45274e-01,9.99999e-01
4.267944804e-01,8.48081e-01,9.99999e-01,9.99994e-01,8.48085e-01,9.99999e-01
4.289284528e-01,8.50847e-01,9.99999e-01,9.99995e-01,8.50850e-01,9.99999e-01
4.310730950e-01,8.53567e-01,9.99999e-01,9.99997e-01,8.53569e-01,9.99999e-01
4.332284605e-01,8.56242e-01,9.99999e-01,9.99999e-01,8.56242e-01,9.99999e-01
4.353946028e-01,8.58871e-01,9.99999e-01,9.99999e-01,8.58871e-01,9.99999e-01
4.375715758e-01,8.61454e-01,9.99999e-01,9.99996e-01,8.61456e-01,9.99999e-01
4.397594337e-01,8.63975e-01,9.99999e-01,9.99973e-01,8.63997e-01,9.99999e-01
4.419582309e-01,8.66381e-01,9.99999e-01,9.99867e-01,8.66496e-01,9.99999e-01
4.441680220e-01,8.68861e-01,9.99999e-01,9.99895e-01,8.68952e-01,9.99999e-01
4.463888621e-01,8.71272e-01,9.99999e-01,9.99891e-01,8.71366e-01,9.99999e-01
4.486208064e-01,8.73680e-01,9.99999e-01,9.99932e-01,8.73739e-01,9.99999e-01
4.508639105e-01,8.76044e-01,9.99999e-01,9.99967e-01,8.76072e-01,9.99999e-01
4.531182300e-01,8.78353e-01,9.99999e-01,9.99987e-01,8.78364e-01,9.99999e-01
4.553838212e-01,8.80610e-01,9.99999e-01,9.99991e-01,8.80617e-01,9.99999e-01
4.576607403e-01,8.82828e-01,9.99999e-01,9.99995e-01,8.82832e-01,9.99999e-01
4.599490440e-01,8.85005e-01,9.99999e-01,9.99996e-01,8.85007e-01,9.99999e-01
4.622487892e-01,8.87145e-01,9.99999e-01,9.99999e-01,8.87145e-01,9.99999e-01
4.645600332e-01,8.89245e-01,9.99999e-01,9.99997e-01,8.89246e-01,9.99999e-01
4.668828333e-01,8.91282e-01,9.99999e-01,9.99967e-01,8.91310e-01,9.99999e-01
4.692172475e-01,8.93278e-01,9.99999e-01,9.99931e-01,8.93338e-01,9.99999e-01
4.715633337e-01,8.95291e-01,9.99999e-01,9.99955e-01,8.95331e-01,9.99999e-01
4.739211504e-01,8.97250e-01,9.99999e-01,9.99957e-01,8.97288e-01,9.99999e-01
4.762907561e-01,8.99191e-01,9.99999e-01,9.99977e-01,8.99211e-01,9.99999e-01
4.786722099e-01,9.01092e-01,9.99999e-01,9.99990e-01,9.01100e-01,9.99999e-01
4.810655710e-01,9.02953e-01,9.99999e-01,9.99996e-01,9.02956e-01,9.99999e-01
4.834708988e-01,9.04755e-01,9.99999e-01,9.99973e-01,9.04778e-01,9.99999e-01
4.858882533e-01,9.06525e-01,9.99999e-01,9.99951e-01,9.06568e-01,9.99999e-01
4.883176946e-01,9.08290e-01,9.99999e-01,9.99959e-01,9.08326e-01,9.99999e-01
4.907592831e-01,9.10020e-01,9.99999e-01,9.99963e-01,9.10053e-01,9.99999e-01
4.932130795e-01,9.11725e-01,9.99999e-01,9.99973e-01,9.11749e-01,9.99999e-01
4.956791449e-01,9.13402e-01,9.99999e-01,9.99985e-01,9.13414e-01,9.99999e-01
4.981575406e-01,9.14987e-01,9.99999e-01,9.99931e-01,9.15050e-01,9.99999e-01
5.006483283e-01,9.16494e-01,9.99999e-01,9.99823e-01,9.16656e-01,9.99998e-01
5.031515699e-01,9.17403e-01,9.99999e-01,9.99104e-01,9.18233e-01,9.99990e-01
5.056673278e-01,9.19336e-01,9.99999e-01,9.99526e-01,9.19781e-01,9.99988e-01
5.081956644e-01,9.20745e-01,9.99999e-01,9.99402e-01,9.21302e-01,9.99992e-01
5.107366428e-01,9.22421e-01,9.99999e-01,9.99596e-01,9.22794e-01,9.99998e-01
5.132903260e-01,9.24047e-01,9.99999e-01,9.99768e-01,9.24260e-01,9.99999e-01
5.158567776e-01,9.25609e-01,9.99999e-01,9.99902e-01,9.25699e-01,9.99999e-01
5.184360615e-01,9.27076e-01,9.99999e-01,9.99960e-01,9.27112e-01,9.99999e-01
5.210282418e-01,9.28485e-01,9.99999e-01,9.99984e-01,9.28499e-01,9.99999e-01
5.236333830e-01,9.29806e-01,9.99999e-01,9.99941e-01,9.29860e-01,9.99999e-01
5.262515499e-01,9.31162e-01,9.99999e-01,9.99962e-01,9.31197e-01,9.99998e-01
5.288828077e-01,9.32478e-01,9.99999e-01,9.99966e-01,9.32509e-01,9.99999e-01
5.315272217e-01,9.33769e-01,9.99999e-01,9.99970e-01,9.33797e-01,9.99999e-01
5.341848578e-01,9.35043e-01,9.99999e-01,9.99980e-01,9.35061e-01,9.99999e-01
5.368557821e-01,9.36239e-01,9.99999e-01,9.99931e-01,9.36302e-01,9.99999e-01
5.395400610e-01,9.37290e-01,9.99999e-01,9.99755e-01,9.37520e-01,9.99997e-01
5.422377613e-01,9.38412e-01,9.99999e-01,9.99682e-01,9.38716e-01,9.99993e-01
5.449489501e-01,9.39607e-01,9.99999e-01,9.99705e-01,9.39889e-01,9.99993e-01
5.476736949e-01,9.40792e-01,9.99999e-01,9.99737e-01,9.41041e-01,9.99996e-01
5.504120634e-01,9.41991e-01,9.99999e-01,9.99809e-01,9.42171e-01,9.99998e-01
5.531641237e-01,9.43190e-01,9.99999e-01,9.99903e-01,9.43280e-01,9.99999e-01
5.559299443e-01,9.44325e-01,9.99999e-01,9.99953e-01,9.44369e-01,9.99999e-01
5.587095940e-01,9.45410e-01,9.99999e-01,9.99970e-01,9.45437e-01,9.99999e-01
5.615031420e-01,9.46455e-01,9.99999e-01,9.99967e-01,9.46485e-01,9.99999e-01
5.643106577e-01,9.47480e-01,9.99999e-01,9.99963e-01,9.47514e-01,9.99999e-01
5.671322110e-01,9.48104e-01,9.99999e-01,9.99561e-01,9.48524e-01,9.99995e-01
5.699678720e-01,9.49053e-01,9.99999e-01,9.99526e-01,9.49514e-01,9.99987e-01
5.728177114e-01,9.50011e-01,9.99999e-01,9.99509e-01,9.50486e-01,9.99989e-01
5.756818000e-01,9.51006e-01,9.99999e-01,9.99549e-01,9.51440e-01,9.99993e-01
5.785602090e-01,9.52000e-01,9.99999e-01,9.99606e-01,9.52376e-01,9.99997e-01
5.814530100e-01,9.52918e-01,9.99999e-01,9.99605e-01,9.53295e-01,9.99998e-01
5.843602750e-01,9.53747e-01,9.99999e-01,9.99532e-01,9.54196e-01,9.99996e-01
5.872820764e-01,9.51203e-01,9.99999e-01,9.95968e-01,9.55080e-01,9.99971e-01
5.902184868e-01,9.51183e-01,9.99999e-01,9.95092e-01,9.55947e-01,9.99922e-01
5.931695792e-01,9.53413e-01,9.99999e-01,9.96537e-01,9.56798e-01,9.99924e-01
5.961354271e-01,9.53951e-01,9.99999e-01,9.96199e-01,9.57633e-01,9.99953e-01
5.991161043e-01,9.55781e-01,9.99999e-01,9.97225e-01,9.58452e-01,9.99986e-01
6.021116848e-01,9.57743e-01,9.99999e-01,9.98424e-01,9.59256e-01,9.99997e-01
6.051222432e-01,9.59279e-01,9.99999e-01,9.99202e-01,9.60045e-01,9.99999e-01
6.081478544e-01,9.60488e-01,9.99999e-01,9.99655e-01,9.60818e-01,9.99999e-01
6.111885937e-01,9.61437e-01,9.99999e-01,9.99853e-01,9.61577e-01,9.99999e-01
6.142445367e-01,9.62259e-01,9.99999e-01,9.99934e-01,9.62321e-01,9.99999e-01
6.173157594e-01,9.63017e-01,9.99999e-01,9.99963e-01,9.63052e-01,9.99999e-01
6.204023382e-01,9.63739e-01,9.99999e-01,9.99969e-01,9.63768e-01,9.99999e-01
6.235043498e-01,9.64343e-01,9.99999e-01,9.99867e-01,9.64471e-01,9.99999e-01
6.266218716e-01,9.64475e-01,9.99999e-01,9.99294e-01,9.65160e-01,9.99994e-01
6.297549810e-01,9.65577e-01,9.99999e-01,9.99740e-01,9.65837e-01,9.99989e-01
6.329037559e-01,9.65997e-01,9.99999e-01,9.99487e-01,9.66500e-01,9.99991e-01
6.360682746e-01,9.66725e-01,9.99999e-01,9.99564e-01,9.67151e-01,9.99994e-01
6.392486160e-01,9.67241e-01,9.99999e-01,9.99435e-01,9.67789e-01,9.99997e-01
6.424448591e-01,9.67684e-01,9.99999e-01,9.99247e-01,9.68415e-01,9.99996e-01
6.456570834e-01,9.65628e-01,9.99999e-01,9.96508e-01,9.69029e-01,9.99980e-01
6.488853688e-01,9.67085e-01,9.99999e-01,9.97427e-01,9.69631e-01,9.99945e-01
6.521297956e-01,9.67634e-01,9.99999e-01,9.97377e-01,9.70222e-01,9.99953e-01
6.553904446e-01,9.68253e-01,9.99999e-01,9.97408e-01,9.70802e-01,9.99965e-01
6.586673968e-01,9.69188e-01,9.99999e-01,9.97764e-01,9.71370e-01,9.99988e-01
6.619607338e-01,9.70669e-01,9.99999e-01,9.98707e-01,9.71928e-01,9.99997e-01
6.652705375e-01,9.71745e-01,9.99999e-01,9.99250e-01,9.72474e-01,9.99998e-01
6.685968902e-01,9.72672e-01,9.99999e-01,9.99651e-01,9.73011e-01,9.99999e-01
6.719398746e-01,9.73380e-01,9.99999e-01,9.99838e-01,9.73537e-01,9.99999e-01
6.752995740e-01,9.73968e-01,9.99999e-01,9.99912e-01,9.74052e-01,9.99999e-01
6.786760719e-01,9.74436e-01,9.99999e-01,9.99874e-01,9.74558e-01,9.99999e-01
6.820694522e-01,9.74844e-01,9.99999e-01,9.99784e-01,9.75055e-01,9.99998e-01
6.854797995e-01,9.75269e-01,9.99999e-01,9.99722e-01,9.75541e-01,9.99997e-01
6.889071985e-01,9.75363e-01,9.99999e-01,9.99333e-01,9.76018e-01,9.99993e-01
6.923517345e-01,9.65791e-01,9.99999e-01,9.89098e-01,9.76487e-01,9.99946e-01
6.958134932e-01,9.71219e-01,9.99999e-01,9.94255e-01,9.76946e-01,9.99880e-01
6.992925606e-01,9.72018e-01,9.99999e-01,9.94600e-01,9.77396e-01,9.99895e-01
7.027890234e-01,9.71216e-01,9.99999e-01,9.93307e-01,9.77837e-01,9.99919e-01
7.063029686e-01,9.72729e-01,9.99999e-01,9.94374e-01,9.78270e-01,9.99959e-01
7.098344834e-01,9.73390e-01,9.99999e-01,9.94602e-01,9.78695e-01,9.99975e-01
7.133836558e-01,9.72075e-01,9.99999e-01,9.92859e-01,9.79111e-01,9.99952e-01
7.169505741e-01,9.24064e-01,9.99999e-01,9.43732e-01,9.79520e-01,9.99630e-01
7.205353270e-01,9.51664e-01,9.99999e-01,9.71796e-01,9.79920e-01,9.99349e-01
7.241380036e-01,9.45080e-01,9.99999e-01,9.64601e-01,9.80313e-01,9.99437e-01
7.277586936e-01,9.48866e-01,9.99999e-01,9.67985e-01,9.80698e-01,9.99540e-01
7.313974871e-01,9.47393e-01,9.99999e-01,9.65875e-01,9.81075e-01,9.99784e-01
7.350544745e-01,9.62963e-01,9.99999e-01,9.81240e-01,9.81446e-01,9.99924e-01
7.387297469e-01,9.68188e-01,9.99999e-01,9.86159e-01,9.81809e-01,9.99965e-01
7.424233956e-01,9.75479e-01,9.99999e-01,9.93198e-01,9.82165e-01,9.99992e-01
7.461355126e-01,9.78463e-01,9.99999e-01,9.95877e-01,9.82514e-01,9.99998e-01
7.498661902e-01,9.80966e-01,9.99999e-01,9.98076e-01,9.82856e-01,9.99999e-01
7.536155211e-01,9.82266e-01,9.99999e-01,9.99057e-01,9.83192e-01,9.99999e-01
7.573835987e-01,9.83044e-01,9.99999e-01,9.99514e-01,9.83521e-01,9.99999e-01
7.611705167e-01,9.83548e-01,9.99999e-01,9.99698e-01,9.83844e-01,9.99999e-01
7.649763693e-01,9.83975e-01,9.99999e-01,9.99810e-01,9.84161e-01,9.99999e-01
7.688012511e-01,9.84342e-01,9.99999e-01,9.99868e-01,9.84471e-01,9.99999e-01
7.726452574e-01,9.84669e-01,9.99999e-01,9.99891e-01,9.84776e-01,9.99999e-01
7.765084837e-01,9.84923e-01,9.99999e-01,9.99846e-01,9.85074e-01,9.99999e-01
7.803910261e-01,9.84716e-01,9.99999e-01,9.99339e-01,9.85367e-01,9.99998e-01
7.842929812e-01,9.83379e-01,9.99999e-01,9.97696e-01,9.85654e-01,9.99995e-01
7.882144461e-01,9.81209e-01,9.99999e-01,9.95235e-01,9.85935e-01,9.99970e-01
7.921555184e-01,9.83570e-01,9.99999e-01,9.97377e-01,9.86211e-01,9.99943e-01
7.961162960e-01,9.81888e-01,9.99999e-01,9.95397e-01,9.86481e-01,9.99945e-01
8.000968774e-01,9.81430e-01,9.99999e-01,9.94668e-01,9.86747e-01,9.99942e-01
8.040973618e-01,9.81702e-01,9.99999e-01,9.94670e-01,9.87007e-01,9.99953e-01
8.081178486e-01,9.75436e-01,9.99999e-01,9.88063e-01,9.87262e-01,9.99956e-01
8.121584379e-01,9.39044e-01,9.99999e-01,9.51079e-01,9.87512e-01,9.99831e-01
8.162192301e-01,9.29754e-01,9.99999e-01,9.41874e-01,9.87757e-01,9.99366e-01
8.203003262e-01,9.58539e-01,9.99999e-01,9.70903e-01,9.87997e-01,9.99258e-01
8.244018279e-01,9.47180e-01,9.99999e-01,9.59023e-01,9.88233e-01,9.99409e-01
8.285238370e-01,9.53454e-01,9.99999e-01,9.65028e-01,9.88464e-01,9.99536e-01
8.326664562e-01,9.53484e-01,9.99999e-01,9.64575e-01,9.88690e-01,9.99807e-01
8.368297885e-01,9.63705e-01,9.99999e-01,9.74551e-01,9.88912e-01,9.99955e-01
8.410139374e-01,9.74074e-01,9.99999e-01,9.84803e-01,9.89130e-01,9.99973e-01
8.452190071e-01,9.81927e-01,9.99999e-01,9.92517e-01,9.89344e-01,9.99984e-01
8.494451021e-01,9.85249e-01,9.99999e-01,9.95662e-01,9.89553e-01,9.99987e-01
8.536923276e-01,9.87206e-01,9.99999e-01,9.97428e-01,9.89758e-01,9.99991e-01
8.579607893e-01,9.88392e-01,9.99999e-01,9.98418e-01,9.89960e-01,9.99997e-01
8.622505932e-01,9.89161e-01,9.99999e-01,9.98993e-01,9.90157e-01,9.99999e-01
8.665618462e-01,9.89735e-01,9.99999e-01,9.99378e-01,9.90351e-01,9.99999e-01
8.708946554e-01,9.89836e-01,9.99999e-01,9.99289e-01,9.90540e-01,9.99999e-01
8.752491287e-01,9.89784e-01,9.99999e-01,9.99049e-01,9.90726e-01,9.99998e-01
8.796253743e-01,9.89604e-01,9.99999e-01,9.98685e-01,9.90908e-01,9.99996e-01
8.840235012e-01,9.89590e-01,9.99999e-01,9.98497e-01,9.91087e-01,9.99990e-01
8.884436187e-01,9.85863e-01,9.99999e-01,9.94578e-01,9.91262e-01,9.99973e-01
8.928858368e-01,9.35699e-01,9.99999e-01,9.43924e-01,9.91434e-01,9.99849e-01
8.973502660e-01,8.94186e-01,9.99999e-01,9.02452e-01,9.91603e-01,9.99229e-01
9.018370173e-01,9.39813e-01,9.99999e-01,9.48761e-01,9.91768e-01,9.98789e-01
9.063462024e-01,9.46431e-01,9.99999e-01,9.55145e-01,9.91930e-01,9.98936e-01
9.108779334e-01,9.22355e-01,9.99999e-01,9.30737e-01,9.92089e-01,9.98894e-01
9.154323231e-01,9.13623e-01,9.99999e-01,9.21605e-01,9.92244e-01,9.99086e-01
9.200094847e-01,9.30383e-01,9.99999e-01,9.37990e-01,9.92397e-01,9.99488e-01
9.246095321e-01,8.98645e-01,9.99999e-01,9.05926e-01,9.92546e-01,9.99410e-01
9.292325798e-01,5.11704e-01,9.99999e-01,5.16656e-01,9.92693e-01,9.97704e-01
9.338787427e-01,4.18331e-01,9.99999e-01,4.25370e-01,9.92837e-01,9.90546e-01
9.385481364e-01,6.94926e-01,9.99999e-01,7.07790e-01,9.92978e-01,9.88766e-01
9.432408771e-01,6.11490e-01,9.99999e-01,6.21758e-01,9.93116e-01,9.90301e-01
9.479570815e-01,5.13197e-01,9.99999e-01,5.20797e-01,9.93252e-01,9.92099e-01
9.526968669e-01,6.02882e-01,9.99999e-01,6.09840e-01,9.93384e-01,9.95173e-01
9.574603512e-01,6.26685e-01,9.99999e-01,6.32327e-01,9.93515e-01,9.97545e-01
9.622476530e-01,6.82091e-01,9.99999e-01,6.87622e-01,9.93642e-01,9.98301e-01
9.670588912e-01,7.99848e-01,9.99999e-01,8.05799e-01,9.93767e-01,9.98838e-01
9.718941857e-01,8.67427e-01,9.99999e-01,8.73505e-01,9.93890e-01,9.99144e-01
9.767536566e-01,8.87881e-01,9.99999e-01,8.93814e-01,9.94011e-01,9.99346e-01
9.816374249e-01,9.14440e-01,9.99999e-01,9.20048e-01,9.94128e-01,9.99773e-01
9.865456120e-01,9.43749e-01,9.99999e-01,9.49257e-01,9.94244e-01,9.99952e-01
9.914783401e-01,9.62859e-01,9.99999e-01,9.68335e-01,9.94357e-01,9.99986e-01
9.964357318e-01,9.77188e-01,9.99999e-01,9.82630e-01,9.94469e-01,9.99991e-01
1.001417910e+00,9.84176e-01,9.99999e-01,9.89553e-01,9.94577e-01,9.99987e-01
1.006425000e+00,9.88739e-01,9.99999e-01,9.94039e-01,9.94684e-01,9.99982e-01
1.011457125e+00,9.91085e-01,9.99999e-01,9.96291e-01,9.94789e-01,9.99984e-01
1.016514411e+00,9.92377e-01,9.99999e-01,9.97483e-01,9.94892e-01,9.99988e-01
1.021596983e+00,9.92987e-01,9.99999e-01,9.97994e-01,9.94992e-01,9.99988e-01
1.026704968e+00,9.93528e-01,9.99999e-01,9.98436e-01,9.95091e-01,9.99992e-01
1.031838492e+00,9.94054e-01,9.99999e-01,9.98862e-01,9.95188e-01,9.99997e-01
1.036997685e+00,9.94611e-01,9.99999e-01,9.99324e-01,9.95282e-01,9.99999e-01
1.042182673e+00,9.94576e-01,9.99999e-01,9.99196e-01,9.95375e-01,9.99999e-01
1.047393587e+00,9.94405e-01,9.99999e-01,9.98933e-01,9.95467e-01,9.99999e-01
1.052630555e+00,9.94100e-01,9.99999e-01,9.98537e-01,9.95556e-01,9.99999e-01
1.057893707e+00,9.93216e-01,9.99999e-01,9.97561e-01,9.95643e-01,9.99998e-01
1.063183176e+00,9.91732e-01,9.99999e-01,9.95987e-01,9.95729e-01,9.99997e-01
1.068499092e+00,9.89121e-01,9.99999e-01,9.93283e-01,9.95813e-01,9.99994e-01
1.073841587e+00,9.88070e-01,9.99999e-01,9.92151e-01,9.95896e-01,9.99989e-01
1.079210795e+00,9.85925e-01,9.99999e-01,9.89933e-01,9.95977e-01,9.99972e-01
1.084606849e+00,9.80866e-01,9.99999e-01,9.84812e-01,9.96056e-01,9.99934e-01
1.090029883e+00,9.74405e-01,9.99999e-01,9.78317e-01,9.96134e-01,9.99865e-01
1.095480033e+00,9.38159e-01,9.99999e-01,9.41956e-01,9.96210e-01,9.99756e-01
1.100957433e+00,8.55589e-01,9.99999e-01,8.59163e-01,9.96285e-01,9.99552e-01
1.106462220e+00,6.78546e-01,9.99999e-01,6.81542e-01,9.96358e-01,9.99242e-01
1.111994531e+00,4.44977e-01,9.99999e-01,4.47470e-01,9.96430e-01,9.97990e-01
1.117554504e+00,2.71185e-01,9.99999e-01,2.74121e-01,9.96500e-01,9.92764e-01
1.123142276e+00,3.83101e-01,9.99999e-01,3.91096e-01,9.96569e-01,9.82926e-01
1.128757988e+00,5.31432e-01,9.99999e-01,5.43955e-01,9.96637e-01,9.80274e-01
1.134401778e+00,2.84469e-01,9.99999e-01,2.90286e-01,9.96703e-01,9.83202e-01
1.140073787e+00,6.81594e-01,9.99999e-01,6.93121e-01,9.96768e-01,9.86556e-01
1.145774156e+00,4.61585e-01,9.99999e-01,4.68824e-01,9.96832e-01,9.87687e-01
1.151503026e+00,4.27464e-01,9.99999e-01,4.31765e-01,9.96894e-01,9.93121e-01
1.157260541e+00,4.88518e-01,9.99999e-01,4.91021e-01,9.96955e-01,9.97938e-01
1.163046844e+00,5.87941e-01,9.99999e-01,5.90045e-01,9.97016e-01,9.99414e-01
1.168862078e+00,6.89668e-01,9.99999e-01,6.91899e-01,9.97074e-01,9.99698e-01
1.174706389e+00,7.94063e-01,9.99999e-01,7.96664e-01,9.97132e-01,9.99600e-01
1.180579921e+00,8.67632e-01,9.99999e-01,8.70603e-01,9.97189e-01,9.99395e-01
1.186482820e+00,9.21554e-01,9.99999e-01,9.24673e-01,9.97244e-01,9.99379e-01
1.192415234e+00,9.52321e-01,9.99999e-01,9.55343e-01,9.97298e-01,9.99535e-01
1.198377311e+00,9.59298e-01,9.99999e-01,9.62266e-01,9.97352e-01,9.99561e-01
1.204369197e+00,9.61365e-01,9.99999e-01,9.64249e-01,9.97404e-01,9.99602e-01
1.210391043e+00,9.63086e-01,9.99999e-01,9.65775e-01,9.97455e-01,9.99758e-01
1.216442998e+00,9.68215e-01,9.99999e-01,9.70779e-01,9.97505e-01,9.99851e-01
1.222525213e+00,9.74709e-01,9.99999e-01,9.77187e-01,9.97554e-01,9.99907e-01
1.228637839e+00,9.81711e-01,9.99999e-01,9.84111e-01,9.97603e-01,9.99956e-01
1.234781029e+00,9.85838e-01,9.99999e-01,9.88171e-01,9.97650e-01,9.99987e-01
1.240954934e+00,9.90221e-01,9.99999e-01,9.92509e-01,9.97696e-01,9.99996e-01
1.247159708e+00,9.91914e-01,9.99999e-01,9.94160e-01,9.97742e-01,9.99997e-01
1.253395507e+00,9.92614e-01,9.99999e-01,9.94818e-01,9.97786e-01,9.99996e-01
1.259662485e+00,9.92920e-01,9.99999e-01,9.95083e-01,9.97830e-01,9.99994e-01
1.265960797e+00,9.90026e-01,9.99999e-01,9.92143e-01,9.97873e-01,9.99991e-01
1.272290601e+00,9.86399e-01,9.99999e-01,9.88472e-01,9.97915e-01,9.99986e-01
1.278652054e+00,9.73758e-01,9.99999e-01,9.75774e-01,9.97956e-01,9.99975e-01
1.285045314e+00,9.60168e-01,9.99999e-01,9.62138e-01,9.97996e-01,9.99955e-01
1.291470541e+00,9.23412e-01,9.99999e-01,9.25300e-01,9.98036e-01,9.99921e-01
1.297927893e+00,9.01755e-01,9.99999e-01,9.03625e-01,9.98074e-01,9.99853e-01
1.304417533e+00,8.75680e-01,9.99999e-01,8.77606e-01,9.98112e-01,9.99690e-01
1.310939621e+00,8.59290e-01,9.99999e-01,8.61428e-01,9.98150e-01,9.99365e-01
1.317494319e+00,8.47661e-01,9.99999e-01,8.50197e-01,9.98186e-01,9.98827e-01
1.324081790e+00,7.82175e-01,9.99999e-01,7.85069e-01,9.98222e-01,9.98087e-01
1.330702199e+00,4.02011e-01,9.99999e-01,4.04044e-01,9.98257e-01,9.96704e-01
1.337355710e+00,9.10526e-02,9.99999e-01,9.17900e-02,9.98291e-01,9.93662e-01
1.344042489e+00,4.41174e-03,9.99999e-01,4.50457e-03,9.98325e-01,9.81034e-01
1.350762701e+00,6.72161e-06,9.99999e-01,7.18881e-06,9.98358e-01,9.36545e-01
1.357516515e+00,3.72441e-08,9.99999e-01,4.52181e-08,9.98390e-01,8.24980e-01
1.364304097e+00,1.50631e-05,9.99999e-01,2.11367e-05,9.98422e-01,7.13775e-01
1.371125618e+00,5.42436e-04,9.99999e-01,7.46590e-04,9.98453e-01,7.27675e-01
1.377981246e+00,1.57430e-03,9.99999e-01,2.07058e-03,9.98484e-01,7.61471e-01
1.384871152e+00,3.18330e-05,9.99999e-01,4.12089e-05,9.98514e-01,7.73628e-01
1.391795508e+00,2.17077e-05,9.99999e-01,2.77180e-05,9.98543e-01,7.84304e-01
1.398754485e+00,1.45920e-04,9.99999e-01,1.78470e-04,9.98572e-01,8.18781e-01
1.405748258e+00,1.50102e-04,9.99999e-01,1.68949e-04,9.98600e-01,8.89689e-01
1.412776999e+00,1.54254e-04,9.99999e-01,1.62933e-04,9.98628e-01,9.48033e-01
1.419840884e+00,2.96089e-04,9.99999e-01,3.03507e-04,9.98655e-01,9.76872e-01
1.426940089e+00,1.73655e-03,9.99999e-01,1.77003e-03,9.98681e-01,9.82379e-01
1.434074789e+00,7.66030e-03,9.99999e-01,7.83280e-03,9.98707e-01,9.79240e-01
1.441245163e+00,2.15770e-02,9.99999e-01,2.21009e-02,9.98733e-01,9.77534e-01
1.448451389e+00,6.67827e-02,9.99999e-01,6.82093e-02,9.98758e-01,9.80301e-01
1.455693646e+00,1.61147e-01,9.99999e-01,1.63860e-01,9.98782e-01,9.84638e-01
1.462972114e+00,2.05519e-01,9.99999e-01,2.08825e-01,9.98806e-01,9.85344e-01
1.470286975e+00,1.58990e-01,9.99999e-01,1.61503e-01,9.98830e-01,9.85591e-01
