#,Wave/freq,Total,N2,H2O,Rayleigh,CIA
4.000000000e-01,3.20084e-01,9.99999e-01,9.99871e-01,3.20125e-01,9.99999e-01
4.020000000e-01,3.27391e-01,9.99999e-01,9.99920e-01,3.27417e-01,9.99999e-01
4.040100000e-01,3.34707e-01,9.99999e-01,9.99965e-01,3.34718e-01,9.99999e-01
4.060300500e-01,3.42030e-01,9.99999e-01,9.99991e-01,3.42033e-01,9.99999e-01
4.080602003e-01,3.49357e-01,9.99999e-01,9.99997e-01,3.49358e-01,9.99999e-01
4.101005013e-01,3.56691e-01,9.99999e-01,9.99999e-01,3.56691e-01,9.99999e-01
4.121510038e-01,3.64027e-01,9.99999e-01,9.99994e-01,3.64029e-01,9.99999e-01
4.142117588e-01,3.71355e-01,9.99999e-01,9.99963e-01,3.71368e-01,9.99999e-01
4.162828176e-01,3.78646e-01,9.99999e-01,9.99840e-01,3.78706e-01,9.99999e-01
4.183642317e-01,3.86003e-01,9.99999e-01,9.99905e-01,3.86039e-01,9.99999e-01
4.204560528e-01,3.93343e-01,9.99999e-01,9.99941e-01,3.93366e-01,9.99999e-01
4.225583331e-01,4.00674e-01,9.99999e-01,9.99978e-01,4.00682e-01,9.99999e-01
4.246711247e-01,4.07980e-01,9.99999e-01,9.99982e-01,4.07987e-01,9.99999e-01
4.267944804e-01,4.15265e-01,9.99999e-01,9.99974e-01,4.15276e-01,9.99999e-01
4.289284528e-01,4.22539e-01,9.99999e-01,9.99979e-01,4.22547e-01,9.99999e-01
4.310730950e-01,4.29795e-01,9.99999e-01,9.99991e-01,4.29799e-01,9.99999e-01
4.332284605e-01,4.37027e-01,9.99999e-01,9.99997e-01,4.37028e-01,9.99999e-01
4.353946028e-01,4.44232e-01,9.99999e-01,9.99998e-01,4.44232e-01,9.99999e-01
4.375715758e-01,4.51402e-01,9.99999e-01,9.99983e-01,4.51409e-01,9.99999e-01
4.397594337e-01,4.58493e-01,9.99999e-01,9.99858e-01,4.58557e-01,9.99999e-01
4.419582309e-01,4.65340e-01,9.99999e-01,9.99282e-01,4.65674e-01,9.99999e-01
4.441680220e-01,4.72497e-01,9.99999e-01,9.99448e-01,4.72757e-01,9.99999e-01
4.463888621e-01,4.79529e-01,9.99999e-01,9.99423e-01,4.79805e-01,9.99999e-01
4.486208064e-01,4.86642e-01,9.99999e-01,9.99643e-01,4.86816e-01,9.99999e-01
4.508639105e-01,4.93705e-01,9.99999e-01,9.99832e-01,4.93787e-01,9.99999e-01
4.531182300e-01,5.00685e-01,9.99999e-01,9.99933e-01,5.00718e-01,9.99999e-01
4.553838212e-01,5.07584e-01,9.99999e-01,9.99954e-01,5.07606e-01,9.99999e-01
4.576607403e-01,5.14440e-01,9.99999e-01,9.99978e-01,5.14450e-01,9.99999e-01
4.599490440e-01,5.21241e-01,9.99999e-01,9.99984e-01,5.21249e-01,9.99999e-01
4.622487892e-01,5.27999e-01,9.99999e-01,9.99996e-01,5.28000e-01,9.99999e-01
4.645600332e-01,5.34698e-01,9.99999e-01,9.99989e-01,5.34703e-01,9.99999e-01
4.668828333e-01,5.41264e-01,9.99999e-01,9.99829e-01,5.41357e-01,9.99999e-01
4.692172475e-01,5.47761e-01,9.99999e-01,9.99638e-01,5.47959e-01,9.99999e-01
4.715633337e-01,5.54377e-01,9.99999e-01,9.99763e-01,5.54508e-01,9.99999e-01
4.739211504e-01,5.60878e-01,9.99999e-01,9.99774e-01,5.61005e-01,9.99999e-01
4.762907561e-01,5.67381e-01,9.99999e-01,9.99882e-01,5.67447e-01,9.99999e-01
4.786722099e-01,5.73806e-01,9.99999e-01,9.99951e-01,5.73833e-01,9.99999e-01
4.810655710e-01,5.80155e-01,9.99999e-01,9.99985e-01,5.80163e-01,9.99999e-01
4.834708988e-01,5.86354e-01,9.99999e-01,9.99858e-01,5.86436e-01,9.99999e-01
4.858882533e-01,5.92500e-01,9.99999e-01,9.99744e-01,5.92651e-01,9.99999e-01
4.883176946e-01,5.98678e-01,9.99999e-01,9.99784e-01,5.98807e-01,9.99999e-01
4.907592831e-01,6.04786e-01,9.99999e-01,9.99806e-01,6.04903e-01,9.99999e-01
4.932130795e-01,6.10856e-01,9.99999e-01,9.99862e-01,6.10939e-01,9.99999e-01
4.956791449e-01,6.16870e-01,9.99999e-01,9.99927e-01,6.16915e-01,9.99999e-01
4.981575406e-01,6.22602e-01,9.99999e-01,9.99634e-01,6.22829e-01,9.99999e-01
5.006483283e-01,6.28081e-01,9.99999e-01,9.99050e-01,6.28681e-01,9.99993e-01
5.031515699e-01,6.31412e-01,9.99999e-01,9.95227e-01,6.34471e-01,9.99949e-01
5.056673278e-01,6.38552e-01,9.99999e-01,9.97484e-01,6.40199e-01,9.99942e-01
5.081956644e-01,6.43792e-01,9.99999e-01,9.96828e-01,6.45863e-01,9.99964e-01
5.107366428e-01,6.50066e-01,9.99999e-01,9.97858e-01,6.51464e-01,9.99993e-01
5.132903260e-01,6.56199e-01,9.99999e-01,9.98777e-01,6.57002e-01,9.99998e-01
5.158567776e-01,6.62135e-01,9.99999e-01,9.99483e-01,6.62476e-01,9.99999e-01
5.184360615e-01,6.67748e-01,9.99999e-01,9.99793e-01,6.67886e-01,9.99999e-01
5.210282418e-01,6.73180e-01,9.99999e-01,9.99921e-01,6.73233e-01,9.99999e-01
5.236333830e-01,6.78302e-01,9.99999e-01,9.99688e-01,6.78515e-01,9.99997e-01
5.262515499e-01,6.83598e-01,9.99999e-01,9.99804e-01,6.83733e-01,9.99996e-01
5.288828077e-01,6.88762e-01,9.99999e-01,9.99820e-01,6.88887e-01,9.99997e-01
5.315272217e-01,6.93868e-01,9.99999e-01,9.99843e-01,6.93977e-01,9.99999e-01
5.341848578e-01,6.98930e-01,9.99999e-01,9.99896e-01,6.99002e-01,9.99999e-01
5.368557821e-01,7.03707e-01,9.99999e-01,9.99635e-01,7.03964e-01,9.99998e-01
5.395400610e-01,7.07919e-01,9.99999e-01,9.98680e-01,7.08862e-01,9.99987e-01
5.422377613e-01,7.12471e-01,9.99999e-01,9.98313e-01,7.13696e-01,9.99968e-01
5.449489501e-01,7.17312e-01,9.99999e-01,9.98422e-01,7.18467e-01,9.99967e-01
5.476736949e-01,7.22160e-01,9.99999e-01,9.98612e-01,7.23175e-01,9.99984e-01
5.504120634e-01,7.27083e-01,9.99999e-01,9.98992e-01,7.27819e-01,9.99995e-01
5.531641237e-01,7.32030e-01,9.99999e-01,9.99492e-01,7.32401e-01,9.99998e-01
5.559299443e-01,7.36740e-01,9.99999e-01,9.99755e-01,7.36920e-01,9.99999e-01
5.587095940e-01,7.41263e-01,9.99999e-01,9.99845e-01,7.41377e-01,9.99999e-01
5.615031420e-01,7.45645e-01,9.99999e-01,9.99828e-01,7.45772e-01,9.99999e-01
5.643106577e-01,7.49958e-01,9.99999e-01,9.99803e-01,7.50106e-01,9.99997e-01
5.671322110e-01,7.52559e-01,9.99999e-01,9.97608e-01,7.54378e-01,9.99978e-01
5.699678720e-01,7.56651e-01,9.99999e-01,9.97507e-01,7.58590e-01,9.99935e-01
5.728177114e-01,7.60704e-01,9.99999e-01,9.97381e-01,7.62741e-01,9.99946e-01
5.756818000e-01,7.64970e-01,9.99999e-01,9.97601e-01,7.66833e-01,9.99968e-01
5.785602090e-01,7.69249e-01,9.99999e-01,9.97912e-01,7.70865e-01,9.99990e-01
5.814530100e-01,7.73207e-01,9.99999e-01,9.97899e-01,7.74837e-01,9.99995e-01
5.843602750e-01,7.76781e-01,9.99999e-01,9.97483e-01,7.78752e-01,9.99985e-01
5.872820764e-01,7.65730e-01,9.99999e-01,9.78582e-01,7.82608e-01,9.99847e-01
5.902184868e-01,7.65801e-01,9.99999e-01,9.74200e-01,7.86406e-01,9.99586e-01
5.931695792e-01,7.75381e-01,9.99999e-01,9.81701e-01,7.90147e-01,9.99602e-01
5.961354271e-01,7.77750e-01,9.99999e-01,9.79964e-01,7.93832e-01,9.99771e-01
5.991161043e-01,7.85724e-01,9.99999e-01,9.85351e-01,7.97460e-01,9.99928e-01
6.021116848e-01,7.94355e-01,9.99999e-01,9.91670e-01,8.01033e-01,9.99991e-01
6.051222432e-01,8.01155e-01,9.99999e-01,9.95778e-01,8.04551e-01,9.99999e-01
6.081478544e-01,8.06541e-01,9.99999e-01,9.98175e-01,8.08015e-01,9.99999e-01
6.111885937e-01,8.10799e-01,9.99999e-01,9.99229e-01,8.11424e-01,9.99999e-01
6.142445367e-01,8.14500e-01,9.99999e-01,9.99655e-01,8.14780e-01,9.99999e-01
6.173157594e-01,8.17928e-01,9.99999e-01,9.99809e-01,8.18084e-01,9.99999e-01
6.204023382e-01,8.21202e-01,9.99999e-01,9.99837e-01,8.21335e-01,9.99999e-01
6.235043498e-01,8.23940e-01,9.99999e-01,9.99280e-01,8.24534e-01,9.99997e-01
6.266218716e-01,8.24549e-01,9.99999e-01,9.96240e-01,8.27682e-01,9.99973e-01
6.297549810e-01,8.29590e-01,9.99999e-01,9.98619e-01,8.30780e-01,9.99946e-01
6.329037559e-01,8.31524e-01,9.99999e-01,9.97278e-01,8.33828e-01,9.99957e-01
6.360682746e-01,8.34860e-01,9.99999e-01,9.97674e-01,8.36826e-01,9.99974e-01
6.392486160e-01,8.37241e-01,9.99999e-01,9.96992e-01,8.39776e-01,9.99988e-01
6.424448591e-01,8.39251e-01,9.99999e-01,9.95952e-01,8.42678e-01,9.99979e-01
6.456570834e-01,8.29681e-01,9.99999e-01,9.81364e-01,8.45531e-01,9.99886e-01
6.488853688e-01,8.36595e-01,9.99999e-01,9.86441e-01,8.48338e-01,9.99709e-01
6.521297956e-01,8.39148e-01,9.99999e-01,9.86194e-01,8.51099e-01,9.99760e-01
6.553904446e-01,8.41862e-01,9.99999e-01,9.86176e-01,8.53814e-01,9.99821e-01
6.586673968e-01,8.46325e-01,9.99999e-01,9.88197e-01,8.56483e-01,9.99940e-01
6.619607338e-01,8.53431e-01,9.99999e-01,9.93403e-01,8.59108e-01,9.99986e-01
6.652705375e-01,8.58268e-01,9.99999e-01,9.96035e-01,8.61689e-01,9.99993e-01
6.685968902e-01,8.62769e-01,9.99999e-01,9.98314e-01,8.64226e-01,9.99998e-01
6.719398746e-01,8.65981e-01,9.99999e-01,9.99146e-01,8.66721e-01,9.99999e-01
6.752995740e-01,8.68782e-01,9.99999e-01,9.99549e-01,8.69173e-01,9.99999e-01
6.786760719e-01,8.70995e-01,9.99999e-01,9.99324e-01,8.71584e-01,9.99998e-01
6.820694522e-01,8.72944e-01,9.99999e-01,9.98851e-01,8.73953e-01,9.99993e-01
6.854797995e-01,8.74972e-01,9.99999e-01,9.98517e-01,8.76282e-01,9.99986e-01
6.889071985e-01,8.75362e-01,9.99999e-01,9.96379e-01,8.78571e-01,9.99967e-01
6.923517345e-01,8.30436e-01,9.99999e-01,9.43062e-01,8.80820e-01,9.99719e-01
6.958134932e-01,8.56425e-01,9.99999e-01,9.70471e-01,8.83031e-01,9.99379e-01
6.992925606e-01,8.59404e-01,9.99999e-01,9.71397e-01,8.85203e-01,9.99440e-01
7.027890234e-01,8.55915e-01,9.99999e-01,9.64998e-01,8.87338e-01,9.99572e-01
7.063029686e-01,8.62955e-01,9.99999e-01,9.70433e-01,8.89435e-01,9.99787e-01
7.098344834e-01,8.66071e-01,9.99999e-01,9.71601e-01,8.91496e-01,9.99873e-01
7.133836558e-01,8.59498e-01,9.99999e-01,9.62162e-01,8.93521e-01,9.99749e-01
7.169505741e-01,6.61868e-01,9.99999e-01,7.40549e-01,8.95510e-01,9.98035e-01
7.205353270e-01,7.72413e-01,9.99999e-01,8.63650e-01,8.97465e-01,9.96537e-01
7.241380036e-01,7.42241e-01,9.99999e-01,8.27751e-01,8.99384e-01,9.97009e-01
7.277586936e-01,7.58267e-01,9.99999e-01,8.43393e-01,9.01270e-01,9.97554e-01
7.313974871e-01,7.52266e-01,9.99999e-01,8.33916e-01,9.03123e-01,9.98853e-01
7.350544745e-01,8.18677e-01,9.99999e-01,9.05032e-01,9.04942e-01,9.99601e-01
7.387297469e-01,8.42178e-01,9.99999e-01,9.28977e-01,9.06729e-01,9.99816e-01
7.424233956e-01,8.76286e-01,9.99999e-01,9.64588e-01,9.08485e-01,9.99967e-01
7.461355126e-01,8.90503e-01,9.99999e-01,9.78354e-01,9.10208e-01,9.99994e-01
7.498661902e-01,9.02675e-01,9.99999e-01,9.89884e-01,9.11902e-01,9.99997e-01
7.536155211e-01,9.09008e-01,9.99999e-01,9.95014e-01,9.13564e-01,9.99998e-01
7.573835987e-01,9.12846e-01,9.99999e-01,9.97431e-01,9.15197e-01,9.99999e-01
7.611705167e-01,9.15337e-01,9.99999e-01,9.98402e-01,9.16800e-01,9.99999e-01
7.649763693e-01,9.17455e-01,9.99999e-01,9.98997e-01,9.18375e-01,9.99999e-01
7.688012511e-01,9.19278e-01,9.99999e-01,9.99301e-01,9.19921e-01,9.99999e-01
7.726452574e-01,9.20909e-01,9.99999e-01,9.99424e-01,9.21438e-01,9.99999e-01
7.765084837e-01,9.22170e-01,9.99999e-01,9.99178e-01,9.22929e-01,9.99998e-01
7.803910261e-01,9.21107e-01,9.99999e-01,9.96448e-01,9.24392e-01,9.99996e-01
7.842929812e-01,9.14385e-01,9.99999e-01,9.87661e-01,9.25829e-01,9.99976e-01
7.882144461e-01,9.03796e-01,9.99999e-01,9.74886e-01,9.27239e-01,9.99825e-01
7.921555184e-01,9.15542e-01,9.99999e-01,9.86211e-01,9.28624e-01,9.99696e-01
7.961162960e-01,9.07000e-01,9.99999e-01,9.75566e-01,9.29983e-01,9.99711e-01
8.000968774e-01,9.04867e-01,9.99999e-01,9.71896e-01,9.31317e-01,9.99693e-01
8.040973618e-01,9.06187e-01,9.99999e-01,9.71876e-01,9.32627e-01,9.99765e-01
8.081178486e-01,8.75583e-01,9.99999e-01,9.37764e-01,9.33913e-01,9.99762e-01
8.121584379e-01,7.17801e-01,9.99999e-01,7.68246e-01,9.35175e-01,9.99102e-01
8.162192301e-01,6.85088e-01,9.99999e-01,7.34081e-01,9.36414e-01,9.96630e-01
8.203003262e-01,8.03473e-01,9.99999e-01,8.60311e-01,9.37630e-01,9.96055e-01
8.244018279e-01,7.64050e-01,9.99999e-01,8.16401e-01,9.38823e-01,9.96859e-01
8.285238370e-01,7.77418e-01,9.99999e-01,8.29090e-01,9.39995e-01,9.97532e-01
8.326664562e-01,7.78884e-01,9.99999e-01,8.28437e-01,9.41144e-01,9.98978e-01
8.368297885e-01,8.22472e-01,9.99999e-01,8.73062e-01,9.42273e-01,9.99766e-01
8.410139374e-01,8.69982e-01,9.99999e-01,9.22321e-01,9.43380e-01,9.99863e-01
8.452190071e-01,9.07631e-01,9.99999e-01,9.61076e-01,9.44467e-01,9.99918e-01
8.494451021e-01,9.23865e-01,9.99999e-01,9.77146e-01,9.45533e-01,9.99934e-01
8.536923276e-01,9.33723e-01,9.99999e-01,9.86456e-01,9.46580e-01,9.99959e-01
8.579607893e-01,9.39657e-01,9.99999e-01,9.91620e-01,9.47607e-01,9.99989e-01
8.622505932e-01,9.43565e-01,9.99999e-01,9.94677e-01,9.48615e-01,9.99997e-01
8.665618462e-01,9.46466e-01,9.99999e-01,9.96696e-01,9.49603e-01,9.99998e-01
8.708946554e-01,9.46971e-01,9.99999e-01,9.96211e-01,9.50574e-01,9.99997e-01
8.752491287e-01,9.46705e-01,9.99999e-01,9.94937e-01,9.51526e-01,9.99994e-01
8.796253743e-01,9.45760e-01,9.99999e-01,9.92980e-01,9.52460e-01,9.99983e-01
8.840235012e-01,9.45697e-01,9.99999e-01,9.91991e-01,9.53377e-01,9.99950e-01
8.884436187e-01,9.26468e-01,9.99999e-01,9.70992e-01,9.54277e-01,9.99860e-01
8.928858368e-01,7.06707e-01,9.99999e-01,7.40476e-01,9.55159e-01,9.99199e-01
8.973502660e-01,5.64460e-01,9.99999e-01,5.92852e-01,9.56025e-01,9.95902e-01
9.018370173e-01,7.29150e-01,9.99999e-01,7.66945e-01,9.56875e-01,9.93565e-01
9.063462024e-01,7.50423e-01,9.99999e-01,7.88016e-01,9.57708e-01,9.94345e-01
9.108779334e-01,6.58630e-01,9.99999e-01,6.91187e-01,9.58526e-01,9.94124e-01
9.154323231e-01,6.25827e-01,9.99999e-01,6.55543e-01,9.59328e-01,9.95141e-01
9.200094847e-01,6.89882e-01,9.99999e-01,7.20501e-01,9.60116e-01,9.97277e-01
9.246095321e-01,5.87959e-01,9.99999e-01,6.13815e-01,9.60888e-01,9.96863e-01
9.292325798e-01,6.05145e-02,9.99999e-01,6.38895e-02,9.61645e-01,9.84950e-01
9.338787427e-01,2.21844e-02,9.99999e-01,2.43501e-02,9.62388e-01,9.46662e-01
9.385481364e-01,1.98667e-01,9.99999e-01,2.19078e-01,9.63117e-01,9.41555e-01
9.432408771e-01,1.22935e-01,9.99999e-01,1.34350e-01,9.63833e-01,9.49372e-01
9.479570815e-01,5.26500e-02,9.99999e-01,5.69435e-02,9.64534e-01,9.58597e-01
9.526968669e-01,1.00115e-01,9.99999e-01,1.06432e-01,9.65222e-01,9.74539e-01
9.574603512e-01,1.11413e-01,9.99999e-01,1.16867e-01,9.65897e-01,9.86984e-01
9.622476530e-01,1.59471e-01,9.99999e-01,1.66490e-01,9.66560e-01,9.90981e-01
9.670588912e-01,3.34713e-01,9.99999e-01,3.48211e-01,9.67209e-01,9.93823e-01
9.718941857e-01,4.79117e-01,9.99999e-01,4.97296e-01,9.67846e-01,9.95449e-01
9.767536566e-01,5.39348e-01,9.99999e-01,5.58851e-01,9.68471e-01,9.96520e-01
9.816374249e-01,6.26203e-01,9.99999e-01,6.46959e-01,9.69084e-01,9.98794e-01
9.865456120e-01,7.37142e-01,9.99999e-01,7.60377e-01,9.69686e-01,9.99748e-01
9.914783401e-01,8.18298e-01,9.99999e-01,8.43424e-01,9.70275e-01,9.99929e-01
9.964357318e-01,8.84798e-01,9.99999e-01,9.11397e-01,9.70854e-01,9.99958e-01
1.001417910e+00,9.18764e-01,9.99999e-01,9.45851e-01,9.71421e-01,9.99937e-01
1.006425000e+00,9.41466e-01,9.99999e-01,9.68694e-01,9.71978e-01,9.99910e-01
1.011457125e+00,9.53474e-01,9.99999e-01,9.80491e-01,9.72524e-01,9.99917e-01
1.016514411e+00,9.60061e-01,9.99999e-01,9.86699e-01,9.73059e-01,9.99941e-01
1.021596983e+00,9.63192e-01,9.99999e-01,9.89381e-01,9.73584e-01,9.99942e-01
1.026704968e+00,9.65986e-01,9.99999e-01,9.91706e-01,9.74099e-01,9.99963e-01
1.031838492e+00,9.68722e-01,9.99999e-01,9.93975e-01,9.74604e-01,9.99988e-01
1.036997685e+00,9.71599e-01,9.99999e-01,9.96411e-01,9.75099e-01,9.99997e-01
1.042182673e+00,9.71401e-01,9.99999e-01,9.95711e-01,9.75585e-01,9.99998e-01
1.047393587e+00,9.70521e-01,9.99999e-01,9.94324e-01,9.76061e-01,9.99998e-01
1.052630555e+00,9.68922e-01,9.99999e-01,9.92212e-01,9.76529e-01,9.99997e-01
1.057893707e+00,9.64302e-01,9.99999e-01,9.87020e-01,9.76987e-01,9.99995e-01
1.063183176e+00,9.56663e-01,9.99999e-01,9.78757e-01,9.77436e-01,9.99988e-01
1.068499092e+00,9.43376e-01,9.99999e-01,9.64741e-01,9.77877e-01,9.99975e-01
1.073841587e+00,9.38055e-01,9.99999e-01,9.58903e-01,9.78309e-01,9.99946e-01
1.079210795e+00,9.27400e-01,9.99999e-01,9.47686e-01,9.78733e-01,9.99856e-01
1.084606849e+00,9.02414e-01,9.99999e-01,9.21948e-01,9.79149e-01,9.99654e-01
1.090029883e+00,8.71056e-01,9.99999e-01,8.89871e-01,9.79556e-01,9.99284e-01
1.095480033e+00,7.13041e-01,9.99999e-01,7.28567e-01,9.79956e-01,9.98706e-01
1.100957433e+00,4.46019e-01,9.99999e-01,4.56044e-01,9.80348e-01,9.97621e-01
1.106462220e+00,1.53046e-01,9.99999e-01,1.56684e-01,9.80732e-01,9.95968e-01
1.111994531e+00,2.28710e-02,9.99999e-01,2.35626e-02,9.81109e-01,9.89334e-01
1.117554504e+00,3.19065e-03,9.99999e-01,3.37918e-03,9.81479e-01,9.62026e-01
1.123142276e+00,2.04177e-02,9.99999e-01,2.27947e-02,9.81841e-01,9.12282e-01
1.128757988e+00,5.40031e-02,9.99999e-01,6.11426e-02,9.82197e-01,8.99240e-01
1.134401778e+00,2.72323e-02,9.99999e-01,3.03355e-02,9.82545e-01,9.13651e-01
1.140073787e+00,1.52746e-01,9.99999e-01,1.67032e-01,9.82887e-01,9.30388e-01
1.145774156e+00,3.45688e-02,9.99999e-01,3.75591e-02,9.83222e-01,9.36087e-01
1.151503026e+00,2.38029e-02,9.99999e-01,2.51079e-02,9.83551e-01,9.63875e-01
1.157260541e+00,3.13325e-02,9.99999e-01,3.21983e-02,9.83873e-01,9.89059e-01
1.163046844e+00,7.55718e-02,9.99999e-01,7.70256e-02,9.84189e-01,9.96886e-01
1.168862078e+00,1.51856e-01,9.99999e-01,1.54495e-01,9.84499e-01,9.98394e-01
1.174706389e+00,3.06762e-01,9.99999e-01,3.12159e-01,9.84803e-01,9.97872e-01
1.180579921e+00,4.79164e-01,9.99999e-01,4.87979e-01,9.85101e-01,9.96785e-01
1.186482820e+00,6.50302e-01,9.99999e-01,6.62126e-01,9.85393e-01,9.96700e-01
1.192415234e+00,7.71668e-01,9.99999e-01,7.84818e-01,9.85679e-01,9.97528e-01
1.198377311e+00,8.01934e-01,9.99999e-01,8.15256e-01,9.85960e-01,9.97664e-01
1.204369197e+00,8.12344e-01,9.99999e-01,8.25424e-01,9.86236e-01,9.97887e-01
1.210391043e+00,8.19470e-01,9.99999e-01,8.31748e-01,9.86506e-01,9.98714e-01
1.216442998e+00,8.43175e-01,9.99999e-01,8.55152e-01,9.86770e-01,9.99212e-01
1.222525213e+00,8.72919e-01,9.99999e-01,8.84822e-01,9.87030e-01,9.99510e-01
1.228637839e+00,9.06536e-01,9.99999e-01,9.18420e-01,9.87285e-01,9.99771e-01
1.234781029e+00,9.27069e-01,9.99999e-01,9.38831e-01,9.87534e-01,9.99934e-01
1.240954934e+00,9.49076e-01,9.99999e-01,9.60835e-01,9.87779e-01,9.99981e-01
1.247159708e+00,9.57745e-01,9.99999e-01,9.69369e-01,9.88019e-01,9.99987e-01
1.253395507e+00,9.61290e-01,9.99999e-01,9.72730e-01,9.88254e-01,9.99984e-01
1.259662485e+00,9.62795e-01,9.99999e-01,9.74034e-01,9.88485e-01,9.99975e-01
1.265960797e+00,9.48065e-01,9.99999e-01,9.58928e-01,9.88711e-01,9.99959e-01
1.272290601e+00,9.25737e-01,9.99999e-01,9.36164e-01,9.88932e-01,9.99927e-01
1.278652054e+00,8.68083e-01,9.99999e-01,8.77715e-01,9.89150e-01,9.99872e-01
1.285045314e+00,7.81909e-01,9.99999e-01,7.90503e-01,9.89363e-01,9.99762e-01
1.291470541e+00,6.57529e-01,9.99999e-01,6.64734e-01,9.89572e-01,9.99583e-01
1.297927893e+00,5.56369e-01,9.99999e-01,5.62551e-01,9.89777e-01,9.99223e-01
1.304417533e+00,5.05762e-01,9.99999e-01,5.11723e-01,9.89978e-01,9.98355e-01
1.310939621e+00,4.24104e-01,9.99999e-01,4.29761e-01,9.90175e-01,9.96626e-01
1.317494319e+00,4.31124e-01,9.99999e-01,4.38046e-01,9.90368e-01,9.93768e-01
1.324081790e+00,2.95053e-01,9.99999e-01,3.00920e-01,9.90557e-01,9.89846e-01
1.330702199e+00,4.90079e-02,9.99999e-01,5.03439e-02,9.90743e-01,9.82556e-01
1.337355710e+00,4.08889e-05,9.99999e-01,4.26857e-05,9.90925e-01,9.66677e-01
1.344042489e+00,1.60337e-07,9.99999e-01,1.79161e-07,9.91103e-01,9.02960e-01
1.350762701e+00,1.10513e-23,9.99999e-01,1.58123e-23,9.91278e-01,7.05050e-01
1.357516515e+00,8.73109e-36,9.99999e-01,2.45606e-35,9.91450e-01,3.58557e-01
1.364304097e+00,3.08249e-22,9.99999e-01,1.87598e-21,9.91618e-01,1.65703e-01
1.371125618e+00,1.16915e-13,9.99999e-01,6.41905e-13,9.91783e-01,1.83647e-01
1.377981246e+00,4.47453e-13,9.99999e-01,1.92827e-12,9.91944e-01,2.33933e-01
1.384871152e+00,2.35597e-18,9.99999e-01,9.19404e-18,9.92103e-01,2.58289e-01
1.391795508e+00,2.33572e-22,9.99999e-01,8.55431e-22,9.92258e-01,2.75176e-01
1.398754485e+00,3.80402e-17,9.99999e-01,1.11290e-16,9.92411e-01,3.44425e-01
1.405748258e+00,6.19269e-17,9.99999e-01,1.16341e-16,9.92560e-01,5.36276e-01
1.412776999e+00,2.27978e-16,9.99999e-01,3.05228e-16,9.92706e-01,7.52396e-01
1.419840884e+00,3.93872e-16,9.99998e-01,4.49413e-16,9.92850e-01,8.82725e-01
1.426940089e+00,8.44555e-11,9.99998e-01,9.35061e-11,9.92991e-01,9.09583e-01
1.434074789e+00,1.56676e-09,9.99998e-01,1.76426e-09,9.93129e-01,8.94196e-01
1.441245163e+00,6.21082e-08,9.99999e-01,7.05812e-08,9.93264e-01,8.85919e-01
1.448451389e+00,1.64546e-05,9.99998e-01,1.84173e-05,9.93396e-01,8.99371e-01
1.455693646e+00,5.58003e-04,9.99998e-01,6.09954e-04,9.93526e-01,9.20787e-01
1.462972114e+00,7.87609e-04,9.99999e-01,8.57545e-04,9.93654e-01,9.24310e-01
1.470286975e+00,3.03613e-04,9.99999e-01,3.30088e-04,9.93779e-01,9.25550e-01
