#,Wave/freq,Total,N2,H2O,Rayleigh,CIA
4.000000000e-01,8.15266e-01,9.99999e-01,9.99976e-01,8.15285e-01,9.99999e-01
4.020000000e-01,8.18572e-01,9.99999e-01,9.99985e-01,8.18584e-01,9.99999e-01
4.040100000e-01,8.21822e-01,9.99999e-01,9.99993e-01,8.21827e-01,9.99999e-01
4.060300500e-01,8.25017e-01,9.99999e-01,9.99998e-01,8.25018e-01,9.99999e-01
4.080602003e-01,8.28158e-01,9.99999e-01,9.99999e-01,8.28159e-01,9.99999e-01
4.101005013e-01,8.31249e-01,9.99999e-01,9.99999e-01,8.31249e-01,9.99999e-01
4.121510038e-01,8.34288e-01,9.99999e-01,9.99998e-01,8.34289e-01,9.99999e-01
4.142117588e-01,8.37275e-01,9.99999e-01,9.99993e-01,8.37280e-01,9.99999e-01
4.162828176e-01,8.40198e-01,9.99999e-01,9.99970e-01,8.40222e-01,9.99999e-01
4.183642317e-01,8.43102e-01,9.99999e-01,9.99982e-01,8.43116e-01,9.99999e-01
4.204560528e-01,8.45954e-01,9.99999e-01,9.99989e-01,8.45963e-01,9.99999e-01
4.225583331e-01,8.48760e-01,9.99999e-01,9.99995e-01,8.48763e-01,9.99999e-01
4.246711247e-01,8.51514e-01,9.99999e-01,9.99996e-01,8.51517e-01,9.99999e-01
4.267944804e-01,8.54220e-01,9.99999e-01,9.99994e-01,8.54224e-01,9.99999e-01
4.289284528e-01,8.56884e-01,9.99999e-01,9.99995e-01,8.56887e-01,9.99999e-01
4.310730950e-01,8.59504e-01,9.99999e-01,9.99997e-01,8.59505e-01,9.99999e-01
4.332284605e-01,8.62079e-01,9.99999e-01,9.99999e-01,8.62079e-01,9.99999e-01
4.353946028e-01,8.64610e-01,9.99999e-01,9.99999e-01,8.64610e-01,9.99999e-01
4.375715758e-01,8.67096e-01,9.99999e-01,9.99996e-01,8.67098e-01,9.99999e-01
4.397594337e-01,8.69522e-01,9.99999e-01,9.99974e-01,8.69544e-01,9.99999e-01
4.419582309e-01,8.71839e-01,9.99999e-01,9.99873e-01,8.71948e-01,9.99999e-01
4.441680220e-01,8.74224e-01,9.99999e-01,9.99899e-01,8.74311e-01,9.99999e-01
4.463888621e-01,8.76543e-01,9.99999e-01,9.99896e-01,8.76634e-01,9.99999e-01
4.486208064e-01,8.78860e-01,9.99999e-01,9.99934e-01,8.78917e-01,9.99999e-01
4.508639105e-01,8.81134e-01,9.99999e-01,9.99969e-01,8.81160e-01,9.99999e-01
4.531182300e-01,8.83355e-01,9.99999e-01,9.99987e-01,8.83365e-01,9.99999e-01
4.553838212e-01,8.85525e-01,9.99999e-01,9.99991e-01,8.85532e-01,9.99999e-01
4.576607403e-01,8.87657e-01,9.99999e-01,9.99995e-01,8.87661e-01,9.99999e-01
4.599490440e-01,8.89750e-01,9.99999e-01,9.99996e-01,8.89753e-01,9.99999e-01
4.622487892e-01,8.91807e-01,9.99999e-01,9.99999e-01,8.91808e-01,9.99999e-01
4.645600332e-01,8.93826e-01,9.99999e-01,9.99997e-01,8.93827e-01,9.99999e-01
4.668828333e-01,8.95784e-01,9.99999e-01,9.99969e-01,8.95811e-01,9.99999e-01
4.692172475e-01,8.97702e-01,9.99999e-01,9.99934e-01,8.97760e-01,9.99999e-01
4.715633337e-01,8.99636e-01,9.99999e-01,9.99957e-01,8.99675e-01,9.99999e-01
4.739211504e-01,9.01519e-01,9.99999e-01,9.99958e-01,9.01555e-01,9.99999e-01
4.762907561e-01,9.03384e-01,9.99999e-01,9.99978e-01,9.03403e-01,9.99999e-01
4.786722099e-01,9.05209e-01,9.99999e-01,9.99990e-01,9.05217e-01,9.99999e-01
4.810655710e-01,9.06997e-01,9.99999e-01,9.99996e-01,9.06999e-01,9.99999e-01
4.834708988e-01,9.08728e-01,9.99999e-01,9.99975e-01,9.08750e-01,9.99999e-01
4.858882533e-01,9.10427e-01,9.99999e-01,9.99953e-01,9.10469e-01,9.99999e-01
4.883176946e-01,9.12123e-01,9.99999e-01,9.99961e-01,9.12157e-01,9.99999e-01
4.907592831e-01,9.13784e-01,9.99999e-01,9.99964e-01,9.13815e-01,9.99999e-01
4.932130795e-01,9.15421e-01,9.99999e-01,9.99974e-01,9.15444e-01,9.99999e-01
4.956791449e-01,9.17031e-01,9.99999e-01,9.99986e-01,9.17043e-01,9.99999e-01
4.981575406e-01,9.18553e-01,9.99999e-01,9.99934e-01,9.18613e-01,9.99999e-01
5.006483283e-01,9.19999e-01,9.99999e-01,9.99832e-01,9.20154e-01,9.99998e-01
5.031515699e-01,9.20872e-01,9.99999e-01,9.99144e-01,9.21668e-01,9.99990e-01
5.056673278e-01,9.22727e-01,9.99999e-01,9.99547e-01,9.23154e-01,9.99989e-01
5.081956644e-01,9.24079e-01,9.99999e-01,9.99428e-01,9.24613e-01,9.99992e-01
5.107366428e-01,9.25687e-01,9.99999e-01,9.99613e-01,9.26046e-01,9.99998e-01
5.132903260e-01,9.27247e-01,9.99999e-01,9.99778e-01,9.27452e-01,9.99999e-01
5.158567776e-01,9.28746e-01,9.99999e-01,9.99906e-01,9.28833e-01,9.99999e-01
5.184360615e-01,9.30154e-01,9.99999e-01,9.99962e-01,9.30188e-01,9.99999e-01
5.210282418e-01,9.31506e-01,9.99999e-01,9.99985e-01,9.31519e-01,9.99999e-01
5.236333830e-01,9.32773e-01,9.99999e-01,9.99943e-01,9.32825e-01,9.99999e-01
5.262515499e-01,9.34074e-01,9.99999e-01,9.99964e-01,9.34107e-01,9.99998e-01
5.288828077e-01,9.35336e-01,9.99999e-01,9.99967e-01,9.35366e-01,9.99999e-01
5.315272217e-01,9.36575e-01,9.99999e-01,9.99971e-01,9.36601e-01,9.99999e-01
5.341848578e-01,9.37796e-01,9.99999e-01,9.99981e-01,9.37814e-01,9.99999e-01
5.368557821e-01,9.38943e-01,9.99999e-01,9.99934e-01,9.39004e-01,9.99999e-01
5.395400610e-01,9.39952e-01,9.99999e-01,9.99767e-01,9.40172e-01,9.99997e-01
5.422377613e-01,9.41027e-01,9.99999e-01,9.99695e-01,9.41318e-01,9.99994e-01
5.449489501e-01,9.42173e-01,9.99999e-01,9.99718e-01,9.42443e-01,9.99993e-01
5.476736949e-01,9.43308e-01,9.99999e-01,9.99748e-01,9.43547e-01,9.99996e-01
5.504120634e-01,9.44458e-01,9.99999e-01,9.99817e-01,9.44631e-01,9.99998e-01
5.531641237e-01,9.45608e-01,9.99999e-01,9.99908e-01,9.45694e-01,9.99999e-01
5.559299443e-01,9.46696e-01,9.99999e-01,9.99955e-01,9.46738e-01,9.99999e-01
5.587095940e-01,9.47736e-01,9.99999e-01,9.99971e-01,9.47762e-01,9.99999e-01
5.615031420e-01,9.48738e-01,9.99999e-01,9.99968e-01,9.48767e-01,9.99999e-01
5.643106577e-01,9.49720e-01,9.99999e-01,9.99965e-01,9.49753e-01,9.99999e-01
5.671322110e-01,9.50321e-01,9.99999e-01,9.99583e-01,9.50720e-01,9.99995e-01
5.699678720e-01,9.51227e-01,9.99999e-01,9.99545e-01,9.51670e-01,9.99987e-01
5.728177114e-01,9.52147e-01,9.99999e-01,9.99531e-01,9.52602e-01,9.99989e-01
5.756818000e-01,9.53100e-01,9.99999e-01,9.99569e-01,9.53516e-01,9.99993e-01
5.785602090e-01,9.54052e-01,9.99999e-01,9.99623e-01,9.54413e-01,9.99997e-01
5.814530100e-01,9.54932e-01,9.99999e-01,9.99622e-01,9.55293e-01,9.99998e-01
5.843602750e-01,9.55727e-01,9.99999e-01,9.99553e-01,9.56156e-01,9.99997e-01
5.872820764e-01,9.53297e-01,9.99999e-01,9.96153e-01,9.57003e-01,9.99972e-01
5.902184868e-01,9.53266e-01,9.99999e-01,9.95303e-01,9.57834e-01,9.99925e-01
5.931695792e-01,9.55408e-01,9.99999e-01,9.96689e-01,9.58650e-01,9.99927e-01
5.961354271e-01,9.55920e-01,9.99999e-01,9.96364e-01,9.59450e-01,9.99955e-01
5.991161043e-01,9.57674e-01,9.99999e-01,9.97345e-01,9.60234e-01,9.99986e-01
6.021116848e-01,9.59553e-01,9.99999e-01,9.98491e-01,9.61004e-01,9.99997e-01
6.051222432e-01,9.61025e-01,9.99999e-01,9.99236e-01,9.61760e-01,9.99999e-01
6.081478544e-01,9.62184e-01,9.99999e-01,9.99670e-01,9.62501e-01,9.99999e-01
6.111885937e-01,9.63093e-01,9.99999e-01,9.99860e-01,9.63228e-01,9.99999e-01
6.142445367e-01,9.63881e-01,9.99999e-01,9.99937e-01,9.63941e-01,9.99999e-01
6.173157594e-01,9.64607e-01,9.99999e-01,9.99965e-01,9.64640e-01,9.99999e-01
6.204023382e-01,9.65298e-01,9.99999e-01,9.99970e-01,9.65326e-01,9.99999e-01
6.235043498e-01,9.65878e-01,9.99999e-01,9.99874e-01,9.65999e-01,9.99999e-01
6.266218716e-01,9.66003e-01,9.99999e-01,9.99325e-01,9.66660e-01,9.99994e-01
6.297549810e-01,9.67059e-01,9.99999e-01,9.99752e-01,9.67307e-01,9.99990e-01
6.329037559e-01,9.67461e-01,9.99999e-01,9.99509e-01,9.67943e-01,9.99991e-01
6.360682746e-01,9.68159e-01,9.99999e-01,9.99583e-01,9.68566e-01,9.99995e-01
6.392486160e-01,9.68652e-01,9.99999e-01,9.99459e-01,9.69177e-01,9.99997e-01
6.424448591e-01,9.69078e-01,9.99999e-01,9.99282e-01,9.69776e-01,9.99996e-01
6.456570834e-01,9.67115e-01,9.99999e-01,9.96669e-01,9.70364e-01,9.99980e-01
6.488853688e-01,9.68089e-01,9.99999e-01,9.97113e-01,9.70941e-01,9.99947e-01
6.521297956e-01,9.69028e-01,9.99999e-01,9.97491e-01,9.71507e-01,9.99955e-01
6.553904446e-01,9.69623e-01,9.99999e-01,9.97522e-01,9.72062e-01,9.99966e-01
6.586673968e-01,9.70514e-01,9.99999e-01,9.97859e-01,9.72606e-01,9.99988e-01
6.619607338e-01,9.71934e-01,9.99999e-01,9.98762e-01,9.73140e-01,9.99997e-01
6.652705375e-01,9.72963e-01,9.99999e-01,9.99281e-01,9.73663e-01,9.99998e-01
6.685968902e-01,9.73852e-01,9.99999e-01,9.99666e-01,9.74177e-01,9.99999e-01
6.719398746e-01,9.74530e-01,9.99999e-01,9.99844e-01,9.74680e-01,9.99999e-01
6.752995740e-01,9.75093e-01,9.99999e-01,9.99916e-01,9.75174e-01,9.99999e-01
6.786760719e-01,9.75541e-01,9.99999e-01,9.99879e-01,9.75658e-01,9.99999e-01
6.820694522e-01,9.75932e-01,9.99999e-01,9.99794e-01,9.76133e-01,9.99998e-01
6.854797995e-01,9.76338e-01,9.99999e-01,9.99734e-01,9.76599e-01,9.99997e-01
6.889071985e-01,9.76432e-01,9.99999e-01,9.99366e-01,9.77056e-01,9.99993e-01
6.923517345e-01,9.67284e-01,9.99999e-01,9.89593e-01,9.77504e-01,9.99949e-01
6.958134932e-01,9.72437e-01,9.99999e-01,9.94481e-01,9.77944e-01,9.99886e-01
6.992925606e-01,9.73236e-01,9.99999e-01,9.94846e-01,9.78374e-01,9.99899e-01
7.027890234e-01,9.72455e-01,9.99999e-01,9.93596e-01,9.78797e-01,9.99922e-01
7.063029686e-01,9.73906e-01,9.99999e-01,9.94618e-01,9.79211e-01,9.99961e-01
7.098344834e-01,9.74538e-01,9.99999e-01,9.94836e-01,9.79618e-01,9.99976e-01
7.133836558e-01,9.73308e-01,9.99999e-01,9.93198e-01,9.80016e-01,9.99954e-01
7.169505741e-01,9.27342e-01,9.99999e-01,9.46207e-01,9.80407e-01,9.99646e-01
7.205353270e-01,9.53618e-01,9.99999e-01,9.72899e-01,9.80790e-01,9.99377e-01
7.241380036e-01,9.47442e-01,9.99999e-01,9.66147e-01,9.81166e-01,9.99462e-01
7.277586936e-01,9.51060e-01,9.99999e-01,9.69377e-01,9.81535e-01,9.99560e-01
7.313974871e-01,9.49588e-01,9.99999e-01,9.67294e-01,9.81896e-01,9.99793e-01
7.350544745e-01,9.64539e-01,9.99999e-01,9.82038e-01,9.82251e-01,9.99928e-01
7.387297469e-01,9.69544e-01,9.99999e-01,9.86746e-01,9.82598e-01,9.99966e-01
7.424233956e-01,9.76527e-01,9.99999e-01,9.93482e-01,9.82939e-01,9.99993e-01
7.461355126e-01,9.79391e-01,9.99999e-01,9.96052e-01,9.83273e-01,9.99998e-01
7.498661902e-01,9.81787e-01,9.99999e-01,9.98156e-01,9.83601e-01,9.99999e-01
7.536155211e-01,9.83034e-01,9.99999e-01,9.99097e-01,9.83922e-01,9.99999e-01
7.573835987e-01,9.83780e-01,9.99999e-01,9.99534e-01,9.84237e-01,9.99999e-01
7.611705167e-01,9.84262e-01,9.99999e-01,9.99710e-01,9.84546e-01,9.99999e-01
7.649763693e-01,9.84671e-01,9.99999e-01,9.99818e-01,9.84849e-01,9.99999e-01
7.688012511e-01,9.85022e-01,9.99999e-01,9.99873e-01,9.85146e-01,9.99999e-01
7.726452574e-01,9.85335e-01,9.99999e-01,9.99896e-01,9.85437e-01,9.99999e-01
7.765084837e-01,9.85579e-01,9.99999e-01,9.99853e-01,9.85723e-01,9.99999e-01
7.803910261e-01,9.85381e-01,9.99999e-01,9.99370e-01,9.86003e-01,9.99998e-01
7.842929812e-01,9.84107e-01,9.99999e-01,9.97802e-01,9.86277e-01,9.99995e-01
7.882144461e-01,9.82024e-01,9.99999e-01,9.95443e-01,9.86546e-01,9.99971e-01
7.921555184e-01,9.84279e-01,9.99999e-01,9.97488e-01,9.86810e-01,9.99945e-01
7.961162960e-01,9.82682e-01,9.99999e-01,9.95606e-01,9.87069e-01,9.99947e-01
8.000968774e-01,9.82236e-01,9.99999e-01,9.94901e-01,9.87323e-01,9.99944e-01
8.040973618e-01,9.82499e-01,9.99999e-01,9.94906e-01,9.87572e-01,9.99955e-01
8.081178486e-01,9.76528e-01,9.99999e-01,9.88612e-01,9.87816e-01,9.99958e-01
8.121584379e-01,9.41710e-01,9.99999e-01,9.53248e-01,9.88055e-01,9.99838e-01
8.162192301e-01,9.32641e-01,9.99999e-01,9.44263e-01,9.88289e-01,9.99394e-01
8.203003262e-01,9.60414e-01,9.99999e-01,9.72256e-01,9.88519e-01,9.99291e-01
8.244018279e-01,9.49259e-01,9.99999e-01,9.60605e-01,9.88745e-01,9.99435e-01
8.285238370e-01,9.55466e-01,9.99999e-01,9.66553e-01,9.88966e-01,9.99556e-01
8.326664562e-01,9.55450e-01,9.99999e-01,9.66075e-01,9.89183e-01,9.99816e-01
8.368297885e-01,9.65238e-01,9.99999e-01,9.75624e-01,9.89395e-01,9.99957e-01
8.410139374e-01,9.75177e-01,9.99999e-01,9.85445e-01,9.89604e-01,9.99975e-01
8.452190071e-01,9.82700e-01,9.99999e-01,9.92832e-01,9.89808e-01,9.99984e-01
8.494451021e-01,9.85889e-01,9.99999e-01,9.95850e-01,9.90008e-01,9.99987e-01
8.536923276e-01,9.87758e-01,9.99999e-01,9.97536e-01,9.90205e-01,9.99991e-01
8.579607893e-01,9.88897e-01,9.99999e-01,9.98486e-01,9.90397e-01,9.99997e-01
8.622505932e-01,9.89632e-01,9.99999e-01,9.99036e-01,9.90586e-01,9.99999e-01
8.665618462e-01,9.90182e-01,9.99999e-01,9.99405e-01,9.90771e-01,9.99999e-01
8.708946554e-01,9.90280e-01,9.99999e-01,9.99320e-01,9.90952e-01,9.99999e-01
8.752491287e-01,9.90229e-01,9.99999e-01,9.99090e-01,9.91130e-01,9.99998e-01
8.796253743e-01,9.90058e-01,9.99999e-01,9.98744e-01,9.91305e-01,9.99996e-01
8.840235012e-01,9.90045e-01,9.99999e-01,9.98565e-01,9.91476e-01,9.99990e-01
8.884436187e-01,9.86512e-01,9.99999e-01,9.94850e-01,9.91643e-01,9.99974e-01
8.928858368e-01,9.38545e-01,9.99999e-01,9.46433e-01,9.91808e-01,9.99855e-01
8.973502660e-01,8.98502e-01,9.99999e-01,9.06443e-01,9.91969e-01,9.99263e-01
9.018370173e-01,9.42222e-01,9.99999e-01,9.50798e-01,9.92127e-01,9.98842e-01
9.063462024e-01,9.48796e-01,9.99999e-01,9.57148e-01,9.92282e-01,9.98983e-01
9.108779334e-01,9.25640e-01,9.99999e-01,9.33682e-01,9.92434e-01,9.98943e-01
9.154323231e-01,9.17221e-01,9.99999e-01,9.24882e-01,9.92582e-01,9.99126e-01
9.200094847e-01,9.33259e-01,9.99999e-01,9.40554e-01,9.92728e-01,9.99510e-01
9.246095321e-01,9.03232e-01,9.99999e-01,9.10228e-01,9.92872e-01,9.99436e-01
9.292325798e-01,5.26668e-01,9.99999e-01,5.31540e-01,9.93012e-01,9.97805e-01
9.338787427e-01,4.33095e-01,9.99999e-01,4.40060e-01,9.93149e-01,9.90959e-01
9.385481364e-01,7.05145e-01,9.99999e-01,7.17621e-01,9.93284e-01,9.89256e-01
9.432408771e-01,6.24142e-01,9.99999e-01,6.34160e-01,9.93416e-01,9.90724e-01
9.479570815e-01,5.27473e-01,9.99999e-01,5.34941e-01,9.93546e-01,9.92444e-01
9.526968669e-01,6.15210e-01,9.99999e-01,6.21997e-01,9.93673e-01,9.95384e-01
9.574603512e-01,6.39080e-01,9.99999e-01,6.44580e-01,9.93798e-01,9.97652e-01
9.622476530e-01,6.93024e-01,9.99999e-01,6.98397e-01,9.93920e-01,9.98376e-01
9.670588912e-01,8.07433e-01,9.99999e-01,8.13177e-01,9.94039e-01,9.98889e-01
9.718941857e-01,8.72781e-01,9.99999e-01,8.78628e-01,9.94157e-01,9.99181e-01
9.767536566e-01,8.92476e-01,9.99999e-01,8.98178e-01,9.94272e-01,9.99374e-01
9.816374249e-01,9.17951e-01,9.99999e-01,9.23333e-01,9.94385e-01,9.99783e-01
9.865456120e-01,9.46093e-01,9.99999e-01,9.51372e-01,9.94495e-01,9.99954e-01
9.914783401e-01,9.64431e-01,9.99999e-01,9.69675e-01,9.94604e-01,9.99987e-01
9.964357318e-01,9.78160e-01,9.99999e-01,9.83368e-01,9.94710e-01,9.99992e-01
1.001417910e+00,9.84854e-01,9.99999e-01,9.89998e-01,9.94814e-01,9.99988e-01
1.006425000e+00,9.89228e-01,9.99999e-01,9.94297e-01,9.94916e-01,9.99983e-01
1.011457125e+00,9.91469e-01,9.99999e-01,9.96449e-01,9.95016e-01,9.99984e-01
1.016514411e+00,9.92708e-01,9.99999e-01,9.97591e-01,9.95115e-01,9.99989e-01
1.021596983e+00,9.93292e-01,9.99999e-01,9.98081e-01,9.95211e-01,9.99989e-01
1.026704968e+00,9.93810e-01,9.99999e-01,9.98504e-01,9.95305e-01,9.99992e-01
1.031838492e+00,9.94312e-01,9.99999e-01,9.98910e-01,9.95398e-01,9.99997e-01
1.036997685e+00,9.94846e-01,9.99999e-01,9.99354e-01,9.95488e-01,9.99999e-01
1.042182673e+00,9.94813e-01,9.99999e-01,9.99232e-01,9.95577e-01,9.99999e-01
1.047393587e+00,9.94650e-01,9.99999e-01,9.98980e-01,9.95664e-01,9.99999e-01
1.052630555e+00,9.94359e-01,9.99999e-01,9.98602e-01,9.95750e-01,9.99999e-01
1.057893707e+00,9.93514e-01,9.99999e-01,9.97671e-01,9.95834e-01,9.99998e-01
1.063183176e+00,9.92096e-01,9.99999e-01,9.96165e-01,9.95916e-01,9.99997e-01
1.068499092e+00,9.89597e-01,9.99999e-01,9.93579e-01,9.95996e-01,9.99995e-01
1.073841587e+00,9.88596e-01,9.99999e-01,9.92500e-01,9.96075e-01,9.99990e-01
1.079210795e+00,9.86536e-01,9.99999e-01,9.90371e-01,9.96153e-01,9.99973e-01
1.084606849e+00,9.81702e-01,9.99999e-01,9.85478e-01,9.96228e-01,9.99937e-01
1.090029883e+00,9.75558e-01,9.99999e-01,9.79302e-01,9.96303e-01,9.99871e-01
1.095480033e+00,9.40869e-01,9.99999e-01,9.44510e-01,9.96376e-01,9.99767e-01
1.100957433e+00,8.61633e-01,9.99999e-01,8.65074e-01,9.96447e-01,9.99572e-01
1.106462220e+00,6.90434e-01,9.99999e-01,6.93349e-01,9.96517e-01,9.99275e-01
1.111994531e+00,4.60580e-01,9.99999e-01,4.63048e-01,9.96586e-01,9.98078e-01
1.117554504e+00,2.86261e-01,9.99999e-01,2.89223e-01,9.96653e-01,9.93080e-01
1.123142276e+00,3.97436e-01,9.99999e-01,4.05364e-01,9.96719e-01,9.83668e-01
1.128757988e+00,5.45602e-01,9.99999e-01,5.57889e-01,9.96784e-01,9.81131e-01
1.134401778e+00,2.95021e-01,9.99999e-01,3.00786e-01,9.96847e-01,9.83933e-01
1.140073787e+00,6.92987e-01,9.99999e-01,7.04189e-01,9.96909e-01,9.87141e-01
1.145774156e+00,4.76371e-01,9.99999e-01,4.83512e-01,9.96970e-01,9.88223e-01
1.151503026e+00,4.42478e-01,9.99999e-01,4.46734e-01,9.97030e-01,9.93422e-01
1.157260541e+00,5.03542e-01,9.99999e-01,5.06009e-01,9.97089e-01,9.98028e-01
1.163046844e+00,6.01184e-01,9.99999e-01,6.03242e-01,9.97146e-01,9.99440e-01
1.168862078e+00,7.00668e-01,9.99999e-01,7.02835e-01,9.97202e-01,9.99711e-01
1.174706389e+00,8.01930e-01,9.99999e-01,8.04442e-01,9.97257e-01,9.99617e-01
1.180579921e+00,8.72907e-01,9.99999e-01,8.75765e-01,9.97311e-01,9.99422e-01
1.186482820e+00,9.24809e-01,9.99999e-01,9.27802e-01,9.97364e-01,9.99406e-01
1.192415234e+00,9.54346e-01,9.99999e-01,9.57242e-01,9.97416e-01,9.99555e-01
1.198377311e+00,9.61053e-01,9.99999e-01,9.63896e-01,9.97467e-01,9.99580e-01
1.204369197e+00,9.63020e-01,9.99999e-01,9.65783e-01,9.97517e-01,9.99620e-01
1.210391043e+00,9.64668e-01,9.99999e-01,9.67244e-01,9.97566e-01,9.99768e-01
1.216442998e+00,9.69562e-01,9.99999e-01,9.72017e-01,9.97614e-01,9.99858e-01
1.222525213e+00,9.75791e-01,9.99999e-01,9.78163e-01,9.97661e-01,9.99911e-01
1.228637839e+00,9.82500e-01,9.99999e-01,9.84797e-01,9.97707e-01,9.99958e-01
1.234781029e+00,9.86446e-01,9.99999e-01,9.88679e-01,9.97753e-01,9.99987e-01
1.240954934e+00,9.90644e-01,9.99999e-01,9.92834e-01,9.97797e-01,9.99996e-01
1.247159708e+00,9.92263e-01,9.99999e-01,9.94412e-01,9.97840e-01,9.99997e-01
1.253395507e+00,9.92935e-01,9.99999e-01,9.95044e-01,9.97883e-01,9.99996e-01
1.259662485e+00,9.93269e-01,9.99999e-01,9.95338e-01,9.97925e-01,9.99995e-01
1.265960797e+00,9.90488e-01,9.99999e-01,9.92513e-01,9.97966e-01,9.99992e-01
1.272290601e+00,9.87009e-01,9.99999e-01,9.88992e-01,9.98006e-01,9.99986e-01
1.278652054e+00,9.74927e-01,9.99999e-01,9.76858e-01,9.98045e-01,9.99976e-01
1.285045314e+00,9.61973e-01,9.99999e-01,9.63860e-01,9.98084e-01,9.99956e-01
1.291470541e+00,9.26738e-01,9.99999e-01,9.28551e-01,9.98122e-01,9.99924e-01
1.297927893e+00,9.05925e-01,9.99999e-01,9.07722e-01,9.98159e-01,9.99860e-01
1.304417533e+00,8.80756e-01,9.99999e-01,8.82608e-01,9.98195e-01,9.99704e-01
1.310939621e+00,8.65237e-01,9.99999e-01,8.67296e-01,9.98230e-01,9.99393e-01
1.317494319e+00,8.53681e-01,9.99999e-01,8.56123e-01,9.98265e-01,9.98879e-01
1.324081790e+00,7.90565e-01,9.99999e-01,7.93361e-01,9.98300e-01,9.98170e-01
1.330702199e+00,4.16858e-01,9.99999e-01,4.18874e-01,9.98333e-01,9.96848e-01
1.337355710e+00,1.00162e-01,9.99999e-01,1.00938e-01,9.98366e-01,9.93939e-01
1.344042489e+00,5.13912e-03,9.99999e-01,5.24246e-03,9.98398e-01,9.81858e-01
1.350762701e+00,1.04569e-05,9.99999e-01,1.11508e-05,9.98430e-01,9.39241e-01
1.357516515e+00,7.40616e-08,9.99999e-01,8.91568e-08,9.98461e-01,8.31968e-01
1.364304097e+00,2.26879e-05,9.99999e-01,3.13666e-05,9.98491e-01,7.24405e-01
1.371125618e+00,7.04723e-04,9.99999e-01,9.56467e-04,9.98521e-01,7.37888e-01
1.377981246e+00,2.01722e-03,9.99999e-01,2.62145e-03,9.98550e-01,7.70623e-01
1.384871152e+00,4.40123e-05,9.99999e-01,5.63342e-05,9.98579e-01,7.82382e-01
1.391795508e+00,3.30056e-05,9.99999e-01,4.16948e-05,9.98607e-01,7.92703e-01
1.398754485e+00,1.99873e-04,9.99999e-01,2.42311e-04,9.98634e-01,8.25990e-01
1.405748258e+00,2.07148e-04,9.99999e-01,2.31952e-04,9.98661e-01,8.94260e-01
1.412776999e+00,2.11754e-04,9.99999e-01,2.23132e-04,9.98688e-01,9.50254e-01
1.419840884e+00,3.99507e-04,9.99999e-01,4.09071e-04,9.98713e-01,9.77874e-01
1.426940089e+00,2.15343e-03,9.99999e-01,2.19311e-03,9.98739e-01,9.83145e-01
1.434074789e+00,9.10503e-03,9.99999e-01,9.30098e-03,9.98764e-01,9.80141e-01
1.441245163e+00,2.50751e-02,9.99999e-01,2.56569e-02,9.98788e-01,9.78508e-01
1.448451389e+00,7.39535e-02,9.99999e-01,7.54634e-02,9.98812e-01,9.81156e-01
1.455693646e+00,1.72884e-01,9.99999e-01,1.75666e-01,9.98835e-01,9.85307e-01
1.462972114e+00,2.19341e-01,9.99999e-01,2.22713e-01,9.98858e-01,9.85982e-01
1.470286975e+00,1.71296e-01,9.99999e-01,1.73884e-01,9.98881e-01,9.86219e-01
