#,Wave/freq,Total,N2,H2O,Rayleigh,CIA
4.000000000e-01,8.69907e-01,9.99999e-01,9.99983e-01,8.69920e-01,9.99999e-01
4.020000000e-01,8.72312e-01,9.99999e-01,9.99989e-01,8.72321e-01,9.99999e-01
4.040100000e-01,8.74674e-01,9.99999e-01,9.99995e-01,8.74678e-01,9.99999e-01
4.060300500e-01,8.76993e-01,9.99999e-01,9.99998e-01,8.76994e-01,9.99999e-01
4.080602003e-01,8.79270e-01,9.99999e-01,9.99999e-01,8.79271e-01,9.99999e-01
4.101005013e-01,8.81508e-01,9.99999e-01,9.99999e-01,8.81508e-01,9.99999e-01
4.121510038e-01,8.83706e-01,9.99999e-01,9.99998e-01,8.83707e-01,9.99999e-01
4.142117588e-01,8.85864e-01,9.99999e-01,9.99995e-01,8.85867e-01,9.99999e-01
4.162828176e-01,8.87973e-01,9.99999e-01,9.99980e-01,8.87990e-01,9.99999e-01
4.183642317e-01,8.90066e-01,9.99999e-01,9.99987e-01,8.90077e-01,9.99999e-01
4.204560528e-01,8.92120e-01,9.99999e-01,9.99992e-01,8.92126e-01,9.99999e-01
4.225583331e-01,8.94138e-01,9.99999e-01,9.99996e-01,8.94140e-01,9.99999e-01
4.246711247e-01,8.96116e-01,9.99999e-01,9.99997e-01,8.96118e-01,9.99999e-01
4.267944804e-01,8.98059e-01,9.99999e-01,9.99996e-01,8.98062e-01,9.99999e-01
4.289284528e-01,8.99969e-01,9.99999e-01,9.99997e-01,8.99971e-01,9.99999e-01
4.310730950e-01,9.01846e-01,9.99999e-01,9.99998e-01,9.01847e-01,9.99999e-01
4.332284605e-01,9.03688e-01,9.99999e-01,9.99999e-01,9.03689e-01,9.99999e-01
4.353946028e-01,9.05498e-01,9.99999e-01,9.99999e-01,9.05498e-01,9.99999e-01
4.375715758e-01,9.07274e-01,9.99999e-01,9.99997e-01,9.07275e-01,9.99999e-01
4.397594337e-01,9.09006e-01,9.99999e-01,9.99982e-01,9.09021e-01,9.99999e-01
4.419582309e-01,9.10658e-01,9.99999e-01,9.99914e-01,9.10735e-01,9.99999e-01
4.441680220e-01,9.12357e-01,9.99999e-01,9.99931e-01,9.12419e-01,9.99999e-01
4.463888621e-01,9.14008e-01,9.99999e-01,9.99928e-01,9.14072e-01,9.99999e-01
4.486208064e-01,9.15655e-01,9.99999e-01,9.99955e-01,9.15696e-01,9.99999e-01
4.508639105e-01,9.17271e-01,9.99999e-01,9.99978e-01,9.17290e-01,9.99999e-01
4.531182300e-01,9.18848e-01,9.99999e-01,9.99991e-01,9.18856e-01,9.99999e-01
4.553838212e-01,9.20388e-01,9.99999e-01,9.99993e-01,9.20393e-01,9.99999e-01
4.576607403e-01,9.21900e-01,9.99999e-01,9.99996e-01,9.21902e-01,9.99999e-01
4.599490440e-01,9.23383e-01,9.99999e-01,9.99997e-01,9.23384e-01,9.99999e-01
4.622487892e-01,9.24839e-01,9.99999e-01,9.99999e-01,9.24839e-01,9.99999e-01
4.645600332e-01,9.26266e-01,9.99999e-01,9.99998e-01,9.26268e-01,9.99999e-01
4.668828333e-01,9.27651e-01,9.99999e-01,9.99978e-01,9.27670e-01,9.99999e-01
4.692172475e-01,9.29006e-01,9.99999e-01,9.99955e-01,9.29047e-01,9.99999e-01
4.715633337e-01,9.30371e-01,9.99999e-01,9.99970e-01,9.30398e-01,9.99999e-01
4.739211504e-01,9.31699e-01,9.99999e-01,9.99971e-01,9.31725e-01,9.99999e-01
4.762907561e-01,9.33014e-01,9.99999e-01,9.99985e-01,9.33027e-01,9.99999e-01
4.786722099e-01,9.34300e-01,9.99999e-01,9.99993e-01,9.34306e-01,9.99999e-01
4.810655710e-01,9.35559e-01,9.99999e-01,9.99997e-01,9.35561e-01,9.99999e-01
4.834708988e-01,9.36777e-01,9.99999e-01,9.99982e-01,9.36792e-01,9.99999e-01
4.858882533e-01,9.37972e-01,9.99999e-01,9.99968e-01,9.38001e-01,9.99999e-01
4.883176946e-01,9.39163e-01,9.99999e-01,9.99973e-01,9.39188e-01,9.99999e-01
4.907592831e-01,9.40330e-01,9.99999e-01,9.99975e-01,9.40352e-01,9.99999e-01
4.932130795e-01,9.41480e-01,9.99999e-01,9.99982e-01,9.41495e-01,9.99999e-01
4.956791449e-01,9.42609e-01,9.99999e-01,9.99990e-01,9.42617e-01,9.99999e-01
4.981575406e-01,9.43676e-01,9.99999e-01,9.99955e-01,9.43718e-01,9.99999e-01
5.006483283e-01,9.44690e-01,9.99999e-01,9.99885e-01,9.44799e-01,9.99998e-01
5.031515699e-01,9.45301e-01,9.99999e-01,9.99416e-01,9.45859e-01,9.99993e-01
5.056673278e-01,9.46600e-01,9.99999e-01,9.99690e-01,9.46899e-01,9.99992e-01
5.081956644e-01,9.47547e-01,9.99999e-01,9.99609e-01,9.47920e-01,9.99994e-01
5.107366428e-01,9.48672e-01,9.99999e-01,9.99736e-01,9.48922e-01,9.99998e-01
5.132903260e-01,9.49762e-01,9.99999e-01,9.99848e-01,9.49906e-01,9.99999e-01
5.158567776e-01,9.50810e-01,9.99999e-01,9.99935e-01,9.50870e-01,9.99999e-01
5.184360615e-01,9.51793e-01,9.99999e-01,9.99974e-01,9.51817e-01,9.99999e-01
5.210282418e-01,9.52737e-01,9.99999e-01,9.99990e-01,9.52746e-01,9.99999e-01
5.236333830e-01,9.53621e-01,9.99999e-01,9.99961e-01,9.53657e-01,9.99999e-01
5.262515499e-01,9.54528e-01,9.99999e-01,9.99975e-01,9.54551e-01,9.99999e-01
5.288828077e-01,9.55408e-01,9.99999e-01,9.99977e-01,9.55429e-01,9.99999e-01
5.315272217e-01,9.56271e-01,9.99999e-01,9.99980e-01,9.56290e-01,9.99999e-01
5.341848578e-01,9.57122e-01,9.99999e-01,9.99987e-01,9.57134e-01,9.99999e-01
5.368557821e-01,9.57921e-01,9.99999e-01,9.99955e-01,9.57963e-01,9.99999e-01
5.395400610e-01,9.58623e-01,9.99999e-01,9.99841e-01,9.58776e-01,9.99998e-01
5.422377613e-01,9.59371e-01,9.99999e-01,9.99792e-01,9.59573e-01,9.99995e-01
5.449489501e-01,9.60168e-01,9.99999e-01,9.99808e-01,9.60356e-01,9.99995e-01
5.476736949e-01,9.60957e-01,9.99999e-01,9.99828e-01,9.61123e-01,9.99997e-01
5.504120634e-01,9.61757e-01,9.99999e-01,9.99875e-01,9.61877e-01,9.99998e-01
5.531641237e-01,9.62555e-01,9.99999e-01,9.99937e-01,9.62615e-01,9.99999e-01
5.559299443e-01,9.63311e-01,9.99999e-01,9.99969e-01,9.63340e-01,9.99999e-01
5.587095940e-01,9.64033e-01,9.99999e-01,9.99980e-01,9.64051e-01,9.99999e-01
5.615031420e-01,9.64728e-01,9.99999e-01,9.99978e-01,9.64748e-01,9.99999e-01
5.643106577e-01,9.65410e-01,9.99999e-01,9.99976e-01,9.65432e-01,9.99999e-01
5.671322110e-01,9.65828e-01,9.99999e-01,9.99716e-01,9.66104e-01,9.99997e-01
5.699678720e-01,9.66454e-01,9.99999e-01,9.99689e-01,9.66762e-01,9.99991e-01
5.728177114e-01,9.67092e-01,9.99999e-01,9.99680e-01,9.67408e-01,9.99992e-01
5.756818000e-01,9.67753e-01,9.99999e-01,9.99705e-01,9.68041e-01,9.99995e-01
5.785602090e-01,9.68412e-01,9.99999e-01,9.99742e-01,9.68662e-01,9.99998e-01
5.814530100e-01,9.69022e-01,9.99999e-01,9.99742e-01,9.69271e-01,9.99998e-01
5.843602750e-01,9.69573e-01,9.99999e-01,9.99695e-01,9.69869e-01,9.99997e-01
5.872820764e-01,9.67892e-01,9.99999e-01,9.97376e-01,9.70455e-01,9.99980e-01
5.902184868e-01,9.67866e-01,9.99999e-01,9.96791e-01,9.71030e-01,9.99948e-01
5.931695792e-01,9.69351e-01,9.99999e-01,9.97739e-01,9.71594e-01,9.99950e-01
5.961354271e-01,9.69705e-01,9.99999e-01,9.97516e-01,9.72148e-01,9.99969e-01
5.991161043e-01,9.70918e-01,9.99999e-01,9.98186e-01,9.72690e-01,9.99990e-01
6.021116848e-01,9.72219e-01,9.99999e-01,9.98969e-01,9.73222e-01,9.99998e-01
6.051222432e-01,9.73236e-01,9.99999e-01,9.99478e-01,9.73744e-01,9.99999e-01
6.081478544e-01,9.74037e-01,9.99999e-01,9.99774e-01,9.74256e-01,9.99999e-01
6.111885937e-01,9.74665e-01,9.99999e-01,9.99904e-01,9.74758e-01,9.99999e-01
6.142445367e-01,9.75209e-01,9.99999e-01,9.99957e-01,9.75250e-01,9.99999e-01
6.173157594e-01,9.75710e-01,9.99999e-01,9.99976e-01,9.75733e-01,9.99999e-01
6.204023382e-01,9.76188e-01,9.99999e-01,9.99979e-01,9.76207e-01,9.99999e-01
6.235043498e-01,9.76588e-01,9.99999e-01,9.99914e-01,9.76671e-01,9.99999e-01
6.266218716e-01,9.76674e-01,9.99999e-01,9.99539e-01,9.77127e-01,9.99996e-01
6.297549810e-01,9.77402e-01,9.99999e-01,9.99830e-01,9.77573e-01,9.99993e-01
6.329037559e-01,9.77679e-01,9.99999e-01,9.99664e-01,9.78012e-01,9.99994e-01
6.360682746e-01,9.78161e-01,9.99999e-01,9.99716e-01,9.78441e-01,9.99996e-01
6.392486160e-01,9.78501e-01,9.99999e-01,9.99631e-01,9.78862e-01,9.99998e-01
6.424448591e-01,9.78841e-01,9.99999e-01,9.99558e-01,9.79276e-01,9.99997e-01
6.456570834e-01,9.77462e-01,9.99999e-01,9.97746e-01,9.79681e-01,9.99986e-01
6.488853688e-01,9.78109e-01,9.99999e-01,9.98025e-01,9.80078e-01,9.99964e-01
6.521297956e-01,9.78759e-01,9.99999e-01,9.98286e-01,9.80468e-01,9.99969e-01
6.553904446e-01,9.79170e-01,9.99999e-01,9.98309e-01,9.80850e-01,9.99977e-01
6.586673968e-01,9.79783e-01,9.99999e-01,9.98537e-01,9.81224e-01,9.99992e-01
6.619607338e-01,9.80761e-01,9.99999e-01,9.99154e-01,9.81592e-01,9.99997e-01
6.652705375e-01,9.81470e-01,9.99999e-01,9.99509e-01,9.81952e-01,9.99998e-01
6.685968902e-01,9.82082e-01,9.99999e-01,9.99771e-01,9.82305e-01,9.99999e-01
6.719398746e-01,9.82548e-01,9.99999e-01,9.99893e-01,9.82652e-01,9.99999e-01
6.752995740e-01,9.82936e-01,9.99999e-01,9.99942e-01,9.82992e-01,9.99999e-01
6.786760719e-01,9.83244e-01,9.99999e-01,9.99917e-01,9.83325e-01,9.99999e-01
6.820694522e-01,9.83513e-01,9.99999e-01,9.99859e-01,9.83651e-01,9.99998e-01
6.854797995e-01,9.83792e-01,9.99999e-01,9.99818e-01,9.83972e-01,9.99997e-01
6.889071985e-01,9.83858e-01,9.99999e-01,9.99569e-01,9.84286e-01,9.99995e-01
6.923517345e-01,9.77563e-01,9.99999e-01,9.92892e-01,9.84594e-01,9.99965e-01
6.958134932e-01,9.81098e-01,9.99999e-01,9.96220e-01,9.84896e-01,9.99922e-01
6.992925606e-01,9.81661e-01,9.99999e-01,9.96483e-01,9.85192e-01,9.99931e-01
7.027890234e-01,9.81118e-01,9.99999e-01,9.95623e-01,9.85482e-01,9.99947e-01
7.063029686e-01,9.82118e-01,9.99999e-01,9.96323e-01,9.85767e-01,9.99973e-01
7.098344834e-01,9.82553e-01,9.99999e-01,9.96472e-01,9.86046e-01,9.99984e-01
7.133836558e-01,9.81717e-01,9.99999e-01,9.95363e-01,9.86320e-01,9.99968e-01
7.169505741e-01,9.49782e-01,9.99999e-01,9.62925e-01,9.86588e-01,9.99758e-01
7.205353270e-01,9.68034e-01,9.99999e-01,9.81348e-01,9.86851e-01,9.99575e-01
7.241380036e-01,9.63805e-01,9.99999e-01,9.76751e-01,9.87109e-01,9.99630e-01
7.277586936e-01,9.66309e-01,9.99999e-01,9.78976e-01,9.87362e-01,9.99692e-01
7.313974871e-01,9.65279e-01,9.99999e-01,9.77524e-01,9.87610e-01,9.99859e-01
7.350544745e-01,9.75650e-01,9.99999e-01,9.87694e-01,9.87853e-01,9.99950e-01
7.387297469e-01,9.79107e-01,9.99999e-01,9.90928e-01,9.88092e-01,9.99977e-01
7.424233956e-01,9.83916e-01,9.99999e-01,9.95542e-01,9.88326e-01,9.99995e-01
7.461355126e-01,9.85888e-01,9.99999e-01,9.97301e-01,9.88555e-01,9.99998e-01
7.498661902e-01,9.87534e-01,9.99999e-01,9.98739e-01,9.88780e-01,9.99999e-01
7.536155211e-01,9.88391e-01,9.99999e-01,9.99383e-01,9.89000e-01,9.99999e-01
7.573835987e-01,9.88902e-01,9.99999e-01,9.99682e-01,9.89216e-01,9.99999e-01
7.611705167e-01,9.89233e-01,9.99999e-01,9.99802e-01,9.89428e-01,9.99999e-01
7.649763693e-01,9.89514e-01,9.99999e-01,9.99876e-01,9.89636e-01,9.99999e-01
7.688012511e-01,9.89755e-01,9.99999e-01,9.99913e-01,9.89839e-01,9.99999e-01
7.726452574e-01,9.89969e-01,9.99999e-01,9.99929e-01,9.90039e-01,9.99999e-01
7.765084837e-01,9.90136e-01,9.99999e-01,9.99900e-01,9.90235e-01,9.99999e-01
7.803910261e-01,9.90002e-01,9.99999e-01,9.99570e-01,9.90427e-01,9.99999e-01
7.842929812e-01,9.89129e-01,9.99999e-01,9.98502e-01,9.90615e-01,9.99996e-01
7.882144461e-01,9.87698e-01,9.99999e-01,9.96888e-01,9.90800e-01,9.99980e-01
7.921555184e-01,9.89244e-01,9.99999e-01,9.98283e-01,9.90980e-01,9.99962e-01
7.961162960e-01,9.88152e-01,9.99999e-01,9.97002e-01,9.91158e-01,9.99964e-01
8.000968774e-01,9.87844e-01,9.99999e-01,9.96518e-01,9.91332e-01,9.99961e-01
8.040973618e-01,9.88025e-01,9.99999e-01,9.96522e-01,9.91502e-01,9.99969e-01
8.081178486e-01,9.83931e-01,9.99999e-01,9.92223e-01,9.91669e-01,9.99971e-01
8.121584379e-01,9.59832e-01,9.99999e-01,9.67841e-01,9.91833e-01,9.99889e-01
8.162192301e-01,9.53427e-01,9.99999e-01,9.61518e-01,9.91994e-01,9.99586e-01
8.203003262e-01,9.72772e-01,9.99999e-01,9.80941e-01,9.92151e-01,9.99516e-01
8.244018279e-01,9.64861e-01,9.99999e-01,9.72715e-01,9.92306e-01,9.99614e-01
8.285238370e-01,9.69376e-01,9.99999e-01,9.77037e-01,9.92457e-01,9.99697e-01
8.326664562e-01,9.69340e-01,9.99999e-01,9.76683e-01,9.92605e-01,9.99874e-01
8.368297885e-01,9.76126e-01,9.99999e-01,9.83281e-01,9.92751e-01,9.99970e-01
8.410139374e-01,9.82983e-01,9.99999e-01,9.90034e-01,9.92894e-01,9.99982e-01
8.452190071e-01,9.88156e-01,9.99999e-01,9.95098e-01,9.93034e-01,9.99989e-01
8.494451021e-01,9.90348e-01,9.99999e-01,9.97165e-01,9.93171e-01,9.99991e-01
8.536923276e-01,9.91628e-01,9.99999e-01,9.98316e-01,9.93305e-01,9.99994e-01
8.579607893e-01,9.92409e-01,9.99999e-01,9.98966e-01,9.93437e-01,9.99998e-01
8.622505932e-01,9.92912e-01,9.99999e-01,9.99341e-01,9.93566e-01,9.99999e-01
8.665618462e-01,9.93290e-01,9.99999e-01,9.99594e-01,9.93693e-01,9.99999e-01
8.708946554e-01,9.93357e-01,9.99999e-01,9.99536e-01,9.93817e-01,9.99999e-01
8.752491287e-01,9.93322e-01,9.99999e-01,9.99379e-01,9.93939e-01,9.99998e-01
8.796253743e-01,9.93205e-01,9.99999e-01,9.99143e-01,9.94058e-01,9.99997e-01
8.840235012e-01,9.93196e-01,9.99999e-01,9.99020e-01,9.94175e-01,9.99993e-01
8.884436187e-01,9.90790e-01,9.99999e-01,9.96496e-01,9.94290e-01,9.99982e-01
8.928858368e-01,9.57614e-01,9.99999e-01,9.63098e-01,9.94402e-01,9.99901e-01
8.973502660e-01,9.29354e-01,9.99999e-01,9.34951e-01,9.94512e-01,9.99497e-01
9.018370173e-01,9.60039e-01,9.99999e-01,9.65993e-01,9.94620e-01,9.99209e-01
9.063462024e-01,9.64731e-01,9.99999e-01,9.70518e-01,9.94726e-01,9.99305e-01
9.108779334e-01,9.48529e-01,9.99999e-01,9.54144e-01,9.94830e-01,9.99278e-01
9.154323231e-01,9.42627e-01,9.99999e-01,9.47992e-01,9.94932e-01,9.99403e-01
9.200094847e-01,9.53827e-01,9.99999e-01,9.58909e-01,9.95032e-01,9.99665e-01
9.246095321e-01,9.32574e-01,9.99999e-01,9.37497e-01,9.95130e-01,9.99615e-01
9.292325798e-01,6.40768e-01,9.99999e-01,6.44807e-01,9.95226e-01,9.98501e-01
9.338787427e-01,5.58037e-01,9.99999e-01,5.64146e-01,9.95320e-01,9.93821e-01
9.385481364e-01,7.84430e-01,9.99999e-01,7.93875e-01,9.95412e-01,9.92656e-01
9.432408771e-01,7.18792e-01,9.99999e-01,7.26644e-01,9.95502e-01,9.93661e-01
9.479570815e-01,6.37161e-01,9.99999e-01,6.43302e-01,9.95591e-01,9.94837e-01
9.526968669e-01,7.11801e-01,9.99999e-01,7.17150e-01,9.95678e-01,9.96848e-01
9.574603512e-01,7.34038e-01,9.99999e-01,7.38344e-01,9.95763e-01,9.98397e-01
9.622476530e-01,7.76885e-01,9.99999e-01,7.80990e-01,9.95847e-01,9.98891e-01
9.670588912e-01,8.63333e-01,9.99999e-01,8.67519e-01,9.95928e-01,9.99241e-01
9.718941857e-01,9.11126e-01,9.99999e-01,9.15287e-01,9.96009e-01,9.99441e-01
9.767536566e-01,9.25168e-01,9.99999e-01,9.29198e-01,9.96087e-01,9.99573e-01
9.816374249e-01,9.43163e-01,9.99999e-01,9.46934e-01,9.96165e-01,9.99851e-01
9.865456120e-01,9.62850e-01,9.99999e-01,9.66512e-01,9.96240e-01,9.99968e-01
9.914783401e-01,9.75573e-01,9.99999e-01,9.79190e-01,9.96314e-01,9.99990e-01
9.964357318e-01,9.85035e-01,9.99999e-01,9.88611e-01,9.96387e-01,9.99994e-01
1.001417910e+00,9.89634e-01,9.99999e-01,9.93159e-01,9.96458e-01,9.99991e-01
1.006425000e+00,9.92635e-01,9.99999e-01,9.96104e-01,9.96528e-01,9.99988e-01
1.011457125e+00,9.94169e-01,9.99999e-01,9.97573e-01,9.96596e-01,9.99989e-01
1.016514411e+00,9.95017e-01,9.99999e-01,9.98354e-01,9.96663e-01,9.99992e-01
1.021596983e+00,9.95417e-01,9.99999e-01,9.98689e-01,9.96729e-01,9.99992e-01
1.026704968e+00,9.95772e-01,9.99999e-01,9.98978e-01,9.96794e-01,9.99994e-01
1.031838492e+00,9.96114e-01,9.99999e-01,9.99256e-01,9.96857e-01,9.99998e-01
1.036997685e+00,9.96479e-01,9.99999e-01,9.99558e-01,9.96919e-01,9.99999e-01
1.042182673e+00,9.96458e-01,9.99999e-01,9.99476e-01,9.96980e-01,9.99999e-01
1.047393587e+00,9.96346e-01,9.99999e-01,9.99304e-01,9.97039e-01,9.99999e-01
1.052630555e+00,9.96147e-01,9.99999e-01,9.99046e-01,9.97098e-01,9.99999e-01
1.057893707e+00,9.95570e-01,9.99999e-01,9.98411e-01,9.97155e-01,9.99998e-01
1.063183176e+00,9.94600e-01,9.99999e-01,9.97382e-01,9.97211e-01,9.99998e-01
1.068499092e+00,9.92890e-01,9.99999e-01,9.95614e-01,9.97266e-01,9.99996e-01
1.073841587e+00,9.92205e-01,9.99999e-01,9.94877e-01,9.97320e-01,9.99993e-01
1.079210795e+00,9.90790e-01,9.99999e-01,9.93417e-01,9.97373e-01,9.99981e-01
1.084606849e+00,9.87475e-01,9.99999e-01,9.90066e-01,9.97424e-01,9.99957e-01
1.090029883e+00,9.83265e-01,9.99999e-01,9.85839e-01,9.97475e-01,9.99911e-01
1.095480033e+00,9.59266e-01,9.99999e-01,9.61797e-01,9.97525e-01,9.99841e-01
1.100957433e+00,9.03231e-01,9.99999e-01,9.05691e-01,9.97574e-01,9.99708e-01
1.106462220e+00,7.75219e-01,9.99999e-01,7.77450e-01,9.97622e-01,9.99505e-01
1.111994531e+00,5.84894e-01,9.99999e-01,5.87030e-01,9.97669e-01,9.98688e-01
1.117554504e+00,4.18710e-01,9.99999e-01,4.21662e-01,9.97715e-01,9.95272e-01
1.123142276e+00,5.20641e-01,9.99999e-01,5.27706e-01,9.97760e-01,9.88826e-01
1.128757988e+00,6.55868e-01,9.99999e-01,6.65911e-01,9.97804e-01,9.87085e-01
1.134401778e+00,3.97581e-01,9.99999e-01,4.02972e-01,9.97847e-01,9.88749e-01
1.140073787e+00,7.76519e-01,9.99999e-01,7.85248e-01,9.97890e-01,9.90974e-01
1.145774156e+00,5.96259e-01,9.99999e-01,6.02344e-01,9.97931e-01,9.91948e-01
1.151503026e+00,5.64854e-01,9.99999e-01,5.68556e-01,9.97972e-01,9.95506e-01
1.157260541e+00,6.22869e-01,9.99999e-01,6.24950e-01,9.98012e-01,9.98654e-01
1.163046844e+00,7.04415e-01,9.99999e-01,7.06059e-01,9.98051e-01,9.99617e-01
1.168862078e+00,7.83785e-01,9.99999e-01,7.85438e-01,9.98090e-01,9.99802e-01
1.174706389e+00,8.59754e-01,9.99999e-01,8.61590e-01,9.98127e-01,9.99738e-01
1.180579921e+00,9.11217e-01,9.99999e-01,9.13252e-01,9.98164e-01,9.99605e-01
1.186482820e+00,9.48004e-01,9.99999e-01,9.50096e-01,9.98201e-01,9.99595e-01
1.192415234e+00,9.68602e-01,9.99999e-01,9.70606e-01,9.98236e-01,9.99696e-01
1.198377311e+00,9.73252e-01,9.99999e-01,9.75216e-01,9.98271e-01,9.99713e-01
1.204369197e+00,9.74595e-01,9.99999e-01,9.76501e-01,9.98305e-01,9.99740e-01
1.210391043e+00,9.75739e-01,9.99999e-01,9.77516e-01,9.98338e-01,9.99842e-01
1.216442998e+00,9.79108e-01,9.99999e-01,9.80799e-01,9.98371e-01,9.99903e-01
1.222525213e+00,9.83407e-01,9.99999e-01,9.85038e-01,9.98403e-01,9.99939e-01
1.228637839e+00,9.88021e-01,9.99999e-01,9.89597e-01,9.98435e-01,9.99971e-01
1.234781029e+00,9.90727e-01,9.99999e-01,9.92256e-01,9.98466e-01,9.99991e-01
1.240954934e+00,9.93604e-01,9.99999e-01,9.95102e-01,9.98496e-01,9.99997e-01
1.247159708e+00,9.94712e-01,9.99999e-01,9.96181e-01,9.98526e-01,9.99998e-01
1.253395507e+00,9.95173e-01,9.99999e-01,9.96614e-01,9.98555e-01,9.99997e-01
1.259662485e+00,9.95402e-01,9.99999e-01,9.96816e-01,9.98583e-01,9.99996e-01
1.265960797e+00,9.93500e-01,9.99999e-01,9.94885e-01,9.98611e-01,9.99994e-01
1.272290601e+00,9.91122e-01,9.99999e-01,9.92481e-01,9.98638e-01,9.99990e-01
1.278652054e+00,9.82827e-01,9.99999e-01,9.84154e-01,9.98665e-01,9.99983e-01
1.285045314e+00,9.73906e-01,9.99999e-01,9.75209e-01,9.98692e-01,9.99970e-01
1.291470541e+00,9.49386e-01,9.99999e-01,9.50653e-01,9.98717e-01,9.99948e-01
1.297927893e+00,9.34713e-01,9.99999e-01,9.35978e-01,9.98743e-01,9.99904e-01
1.304417533e+00,9.16780e-01,9.99999e-01,9.18095e-01,9.98768e-01,9.99798e-01
1.310939621e+00,9.05772e-01,9.99999e-01,9.07242e-01,9.98792e-01,9.99586e-01
1.317494319e+00,8.97318e-01,9.99999e-01,8.99068e-01,9.98816e-01,9.99234e-01
1.324081790e+00,8.51034e-01,9.99999e-01,8.53088e-01,9.98839e-01,9.98751e-01
1.330702199e+00,5.28679e-01,9.99999e-01,5.30422e-01,9.98862e-01,9.97848e-01
1.337355710e+00,1.95339e-01,9.99999e-01,1.96370e-01,9.98884e-01,9.95860e-01
1.344042489e+00,1.67264e-02,9.99999e-01,1.69552e-02,9.98906e-01,9.87584e-01
1.350762701e+00,2.34287e-04,9.99999e-01,2.44788e-04,9.98928e-01,9.58128e-01
1.357516515e+00,9.21727e-06,9.99999e-01,1.04611e-05,9.98949e-01,8.82028e-01
1.364304097e+00,4.30026e-04,9.99999e-01,5.36398e-04,9.98970e-01,8.02516e-01
1.371125618e+00,5.00457e-03,9.99999e-01,6.16433e-03,9.98990e-01,8.12679e-01
1.377981246e+00,1.14308e-02,9.99999e-01,1.36685e-02,9.99010e-01,8.37111e-01
1.384871152e+00,4.81039e-04,9.99999e-01,5.69285e-04,9.99030e-01,8.45806e-01
1.391795508e+00,6.38283e-04,9.99999e-01,7.48637e-04,9.99049e-01,8.53404e-01
1.398754485e+00,2.00717e-03,9.99999e-01,2.28899e-03,9.99068e-01,8.77698e-01
1.405748258e+00,2.00833e-03,9.99999e-01,2.16946e-03,9.99086e-01,9.26573e-01
1.412776999e+00,2.16472e-03,9.99999e-01,2.24343e-03,9.99104e-01,9.65779e-01
1.419840884e+00,3.39068e-03,9.99999e-01,3.44586e-03,9.99122e-01,9.84848e-01
1.426940089e+00,1.12465e-02,9.99999e-01,1.13875e-02,9.99139e-01,9.88467e-01
1.434074789e+00,3.25294e-02,9.99999e-01,3.30055e-02,9.99156e-01,9.86405e-01
1.441245163e+00,7.33736e-02,9.99999e-01,7.45311e-02,9.99173e-01,9.85283e-01
1.448451389e+00,1.54917e-01,9.99999e-01,1.57068e-01,9.99189e-01,9.87102e-01
1.455693646e+00,2.90941e-01,9.99999e-01,2.94128e-01,9.99205e-01,9.89950e-01
1.462972114e+00,3.47643e-01,9.99999e-01,3.51281e-01,9.99221e-01,9.90412e-01
1.470286975e+00,2.91525e-01,9.99999e-01,2.94523e-01,9.99236e-01,9.90575e-01
