#,Wave/freq,Total,N2,H2O,Rayleigh,CIA
4.000000000e-01,8.78022e-01,9.99999e-01,9.99984e-01,8.78035e-01,9.99999e-01
4.020000000e-01,8.80288e-01,9.99999e-01,9.99990e-01,8.80296e-01,9.99999e-01
4.040100000e-01,8.82512e-01,9.99999e-01,9.99995e-01,8.82515e-01,9.99999e-01
4.060300500e-01,8.84696e-01,9.99999e-01,9.99998e-01,8.84697e-01,9.99999e-01
4.080602003e-01,8.86840e-01,9.99999e-01,9.99999e-01,8.86840e-01,9.99999e-01
4.101005013e-01,8.88946e-01,9.99999e-01,9.99999e-01,8.88946e-01,9.99999e-01
4.121510038e-01,8.91015e-01,9.99999e-01,9.99998e-01,8.91016e-01,9.99999e-01
4.142117588e-01,8.93045e-01,9.99999e-01,9.99995e-01,8.93049e-01,9.99999e-01
4.162828176e-01,8.95030e-01,9.99999e-01,9.99981e-01,8.95046e-01,9.99999e-01
4.183642317e-01,8.96999e-01,9.99999e-01,9.99988e-01,8.97009e-01,9.99999e-01
4.204560528e-01,8.98931e-01,9.99999e-01,9.99992e-01,8.98937e-01,9.99999e-01
4.225583331e-01,9.00828e-01,9.99999e-01,9.99997e-01,9.00830e-01,9.99999e-01
4.246711247e-01,9.02689e-01,9.99999e-01,9.99997e-01,9.02691e-01,9.99999e-01
4.267944804e-01,9.04515e-01,9.99999e-01,9.99996e-01,9.04518e-01,9.99999e-01
4.289284528e-01,9.06311e-01,9.99999e-01,9.99997e-01,9.06313e-01,9.99999e-01
4.310730950e-01,9.08074e-01,9.99999e-01,9.99998e-01,9.08075e-01,9.99999e-01
4.332284605e-01,9.09806e-01,9.99999e-01,9.99999e-01,9.09807e-01,9.99999e-01
4.353946028e-01,9.11507e-01,9.99999e-01,9.99999e-01,9.11507e-01,9.99999e-01
4.375715758e-01,9.13175e-01,9.99999e-01,9.99997e-01,9.13177e-01,9.99999e-01
4.397594337e-01,9.14802e-01,9.99999e-01,9.99983e-01,9.14816e-01,9.99999e-01
4.419582309e-01,9.16351e-01,9.99999e-01,9.99917e-01,9.16426e-01,9.99999e-01
4.441680220e-01,9.17950e-01,9.99999e-01,9.99936e-01,9.18008e-01,9.99999e-01
4.463888621e-01,9.19500e-01,9.99999e-01,9.99933e-01,9.19560e-01,9.99999e-01
4.486208064e-01,9.21047e-01,9.99999e-01,9.99958e-01,9.21085e-01,9.99999e-01
4.508639105e-01,9.22564e-01,9.99999e-01,9.99980e-01,9.22581e-01,9.99999e-01
4.531182300e-01,9.24044e-01,9.99999e-01,9.99991e-01,9.24051e-01,9.99999e-01
4.553838212e-01,9.25489e-01,9.99999e-01,9.99994e-01,9.25494e-01,9.99999e-01
4.576607403e-01,9.26908e-01,9.99999e-01,9.99997e-01,9.26910e-01,9.99999e-01
4.599490440e-01,9.28299e-01,9.99999e-01,9.99997e-01,9.28301e-01,9.99999e-01
4.622487892e-01,9.29666e-01,9.99999e-01,9.99999e-01,9.29666e-01,9.99999e-01
4.645600332e-01,9.31005e-01,9.99999e-01,9.99998e-01,9.31006e-01,9.99999e-01
4.668828333e-01,9.32304e-01,9.99999e-01,9.99980e-01,9.32322e-01,9.99999e-01
4.692172475e-01,9.33575e-01,9.99999e-01,9.99958e-01,9.33613e-01,9.99999e-01
4.715633337e-01,9.34856e-01,9.99999e-01,9.99972e-01,9.34881e-01,9.99999e-01
4.739211504e-01,9.36101e-01,9.99999e-01,9.99973e-01,9.36125e-01,9.99999e-01
4.762907561e-01,9.37334e-01,9.99999e-01,9.99986e-01,9.37346e-01,9.99999e-01
4.786722099e-01,9.38540e-01,9.99999e-01,9.99994e-01,9.38545e-01,9.99999e-01
4.810655710e-01,9.39720e-01,9.99999e-01,9.99997e-01,9.39722e-01,9.99999e-01
4.834708988e-01,9.40861e-01,9.99999e-01,9.99983e-01,9.40876e-01,9.99999e-01
4.858882533e-01,9.41982e-01,9.99999e-01,9.99970e-01,9.42010e-01,9.99999e-01
4.883176946e-01,9.43099e-01,9.99999e-01,9.99975e-01,9.43122e-01,9.99999e-01
4.907592831e-01,9.44193e-01,9.99999e-01,9.99977e-01,9.44213e-01,9.99999e-01
4.932130795e-01,9.45270e-01,9.99999e-01,9.99983e-01,9.45285e-01,9.99999e-01
4.956791449e-01,9.46328e-01,9.99999e-01,9.99991e-01,9.46336e-01,9.99999e-01
4.981575406e-01,9.47328e-01,9.99999e-01,9.99957e-01,9.47367e-01,9.99999e-01
5.006483283e-01,9.48276e-01,9.99999e-01,9.99890e-01,9.48380e-01,9.99998e-01
5.031515699e-01,9.48849e-01,9.99999e-01,9.99452e-01,9.49373e-01,9.99993e-01
5.056673278e-01,9.50068e-01,9.99999e-01,9.99711e-01,9.50348e-01,9.99992e-01
5.081956644e-01,9.50955e-01,9.99999e-01,9.99636e-01,9.51304e-01,9.99995e-01
5.107366428e-01,9.52009e-01,9.99999e-01,9.99754e-01,9.52243e-01,9.99998e-01
5.132903260e-01,9.53030e-01,9.99999e-01,9.99859e-01,9.53164e-01,9.99999e-01
5.158567776e-01,9.54011e-01,9.99999e-01,9.99940e-01,9.54067e-01,9.99999e-01
5.184360615e-01,9.54931e-01,9.99999e-01,9.99975e-01,9.54954e-01,9.99999e-01
5.210282418e-01,9.55815e-01,9.99999e-01,9.99990e-01,9.55823e-01,9.99999e-01
5.236333830e-01,9.56643e-01,9.99999e-01,9.99963e-01,9.56677e-01,9.99999e-01
5.262515499e-01,9.57492e-01,9.99999e-01,9.99977e-01,9.57514e-01,9.99999e-01
5.288828077e-01,9.58316e-01,9.99999e-01,9.99979e-01,9.58336e-01,9.99999e-01
5.315272217e-01,9.59124e-01,9.99999e-01,9.99981e-01,9.59141e-01,9.99999e-01
5.341848578e-01,9.59921e-01,9.99999e-01,9.99987e-01,9.59932e-01,9.99999e-01
5.368557821e-01,9.60668e-01,9.99999e-01,9.99957e-01,9.60708e-01,9.99999e-01
5.395400610e-01,9.61322e-01,9.99999e-01,9.99848e-01,9.61469e-01,9.99998e-01
5.422377613e-01,9.62026e-01,9.99999e-01,9.99806e-01,9.62215e-01,9.99995e-01
5.449489501e-01,9.62770e-01,9.99999e-01,9.99819e-01,9.62948e-01,9.99995e-01
5.476736949e-01,9.63511e-01,9.99999e-01,9.99840e-01,9.63666e-01,9.99997e-01
5.504120634e-01,9.64259e-01,9.99999e-01,9.99884e-01,9.64371e-01,9.99999e-01
5.531641237e-01,9.65006e-01,9.99999e-01,9.99941e-01,9.65062e-01,9.99999e-01
5.559299443e-01,9.65713e-01,9.99999e-01,9.99971e-01,9.65740e-01,9.99999e-01
5.587095940e-01,9.66388e-01,9.99999e-01,9.99981e-01,9.66405e-01,9.99999e-01
5.615031420e-01,9.67039e-01,9.99999e-01,9.99979e-01,9.67058e-01,9.99999e-01
5.643106577e-01,9.67676e-01,9.99999e-01,9.99977e-01,9.67698e-01,9.99999e-01
5.671322110e-01,9.68058e-01,9.99999e-01,9.99725e-01,9.68326e-01,9.99997e-01
5.699678720e-01,9.68658e-01,9.99999e-01,9.99714e-01,9.68941e-01,9.99992e-01
5.728177114e-01,9.69249e-01,9.99999e-01,9.99700e-01,9.69545e-01,9.99993e-01
5.756818000e-01,9.69869e-01,9.99999e-01,9.99725e-01,9.70138e-01,9.99995e-01
5.785602090e-01,9.70486e-01,9.99999e-01,9.99760e-01,9.70719e-01,9.99998e-01
5.814530100e-01,9.71055e-01,9.99999e-01,9.99759e-01,9.71289e-01,9.99998e-01
5.843602750e-01,9.71567e-01,9.99999e-01,9.99711e-01,9.71848e-01,9.99997e-01
5.872820764e-01,9.69966e-01,9.99999e-01,9.97517e-01,9.72396e-01,9.99982e-01
5.902184868e-01,9.69985e-01,9.99999e-01,9.97015e-01,9.72934e-01,9.99952e-01
5.931695792e-01,9.71360e-01,9.99999e-01,9.97885e-01,9.73462e-01,9.99954e-01
5.961354271e-01,9.71701e-01,9.99999e-01,9.97686e-01,9.73979e-01,9.99973e-01
5.991161043e-01,9.72836e-01,9.99999e-01,9.98314e-01,9.74486e-01,9.99991e-01
6.021116848e-01,9.74052e-01,9.99999e-01,9.99044e-01,9.74984e-01,9.99998e-01
6.051222432e-01,9.75001e-01,9.99999e-01,9.99516e-01,9.75472e-01,9.99999e-01
6.081478544e-01,9.75747e-01,9.99999e-01,9.99790e-01,9.75950e-01,9.99999e-01
6.111885937e-01,9.76334e-01,9.99999e-01,9.99911e-01,9.76420e-01,9.99999e-01
6.142445367e-01,9.76842e-01,9.99999e-01,9.99960e-01,9.76880e-01,9.99999e-01
6.173157594e-01,9.77310e-01,9.99999e-01,9.99977e-01,9.77332e-01,9.99999e-01
6.204023382e-01,9.77756e-01,9.99999e-01,9.99981e-01,9.77774e-01,9.99999e-01
6.235043498e-01,9.78128e-01,9.99999e-01,9.99917e-01,9.78208e-01,9.99999e-01
6.266218716e-01,9.78210e-01,9.99999e-01,9.99569e-01,9.78634e-01,9.99996e-01
6.297549810e-01,9.78891e-01,9.99999e-01,9.99841e-01,9.79052e-01,9.99993e-01
6.329037559e-01,9.79152e-01,9.99999e-01,9.99688e-01,9.79461e-01,9.99994e-01
6.360682746e-01,9.79600e-01,9.99999e-01,9.99733e-01,9.79863e-01,9.99996e-01
6.392486160e-01,9.79918e-01,9.99999e-01,9.99655e-01,9.80257e-01,9.99998e-01
6.424448591e-01,9.80186e-01,9.99999e-01,9.99536e-01,9.80643e-01,9.99997e-01
6.456570834e-01,9.78898e-01,9.99999e-01,9.97848e-01,9.81021e-01,9.99986e-01
6.488853688e-01,9.79828e-01,9.99999e-01,9.98437e-01,9.81393e-01,9.99966e-01
6.521297956e-01,9.80167e-01,9.99999e-01,9.98407e-01,9.81757e-01,9.99972e-01
6.553904446e-01,9.80533e-01,9.99999e-01,9.98409e-01,9.82114e-01,9.99979e-01
6.586673968e-01,9.81124e-01,9.99999e-01,9.98642e-01,9.82464e-01,9.99992e-01
6.619607338e-01,9.82063e-01,9.99999e-01,9.99243e-01,9.82808e-01,9.99998e-01
6.652705375e-01,9.82698e-01,9.99999e-01,9.99545e-01,9.83144e-01,9.99998e-01
6.685968902e-01,9.83285e-01,9.99999e-01,9.99806e-01,9.83474e-01,9.99999e-01
6.719398746e-01,9.83702e-01,9.99999e-01,9.99902e-01,9.83798e-01,9.99999e-01
6.752995740e-01,9.84065e-01,9.99999e-01,9.99948e-01,9.84116e-01,9.99999e-01
6.786760719e-01,9.84351e-01,9.99999e-01,9.99922e-01,9.84427e-01,9.99999e-01
6.820694522e-01,9.84602e-01,9.99999e-01,9.99868e-01,9.84732e-01,9.99998e-01
6.854797995e-01,9.84863e-01,9.99999e-01,9.99830e-01,9.85031e-01,9.99998e-01
6.889071985e-01,9.84912e-01,9.99999e-01,9.99584e-01,9.85325e-01,9.99995e-01
6.923517345e-01,9.78960e-01,9.99999e-01,9.93281e-01,9.85613e-01,9.99967e-01
6.958134932e-01,9.82434e-01,9.99999e-01,9.96559e-01,9.85895e-01,9.99928e-01
6.992925606e-01,9.82834e-01,9.99999e-01,9.96678e-01,9.86171e-01,9.99935e-01
7.027890234e-01,9.82377e-01,9.99999e-01,9.95926e-01,9.86443e-01,9.99950e-01
7.063029686e-01,9.83304e-01,9.99999e-01,9.96572e-01,9.86709e-01,9.99975e-01
7.098344834e-01,9.83711e-01,9.99999e-01,9.96711e-01,9.86969e-01,9.99985e-01
7.133836558e-01,9.82828e-01,9.99999e-01,9.95573e-01,9.87225e-01,9.99970e-01
7.169505741e-01,9.52682e-01,9.99999e-01,9.64981e-01,9.87476e-01,9.99774e-01
7.205353270e-01,9.70528e-01,9.99999e-01,9.82981e-01,9.87722e-01,9.99603e-01
7.241380036e-01,9.66059e-01,9.99999e-01,9.78163e-01,9.87963e-01,9.99657e-01
7.277586936e-01,9.68450e-01,9.99999e-01,9.80288e-01,9.88199e-01,9.99719e-01
7.313974871e-01,9.67722e-01,9.99999e-01,9.79176e-01,9.88431e-01,9.99868e-01
7.350544745e-01,9.77309e-01,9.99999e-01,9.88565e-01,9.88658e-01,9.99953e-01
7.387297469e-01,9.80538e-01,9.99999e-01,9.91583e-01,9.88881e-01,9.99978e-01
7.424233956e-01,9.85024e-01,9.99999e-01,9.95882e-01,9.89099e-01,9.99995e-01
7.461355126e-01,9.86841e-01,9.99999e-01,9.97500e-01,9.89313e-01,9.99998e-01
7.498661902e-01,9.88374e-01,9.99999e-01,9.98838e-01,9.89523e-01,9.99999e-01
7.536155211e-01,9.89164e-01,9.99999e-01,9.99428e-01,9.89729e-01,9.99999e-01
7.573835987e-01,9.89640e-01,9.99999e-01,9.99705e-01,9.89931e-01,9.99999e-01
7.611705167e-01,9.89948e-01,9.99999e-01,9.99816e-01,9.90129e-01,9.99999e-01
7.649763693e-01,9.90210e-01,9.99999e-01,9.99885e-01,9.90323e-01,9.99999e-01
7.688012511e-01,9.90434e-01,9.99999e-01,9.99919e-01,9.90513e-01,9.99999e-01
7.726452574e-01,9.90635e-01,9.99999e-01,9.99933e-01,9.90700e-01,9.99999e-01
7.765084837e-01,9.90789e-01,9.99999e-01,9.99905e-01,9.90882e-01,9.99999e-01
7.803910261e-01,9.90658e-01,9.99999e-01,9.99592e-01,9.91062e-01,9.99999e-01
7.842929812e-01,9.89827e-01,9.99999e-01,9.98579e-01,9.91237e-01,9.99996e-01
7.882144461e-01,9.88510e-01,9.99999e-01,9.97094e-01,9.91410e-01,9.99979e-01
7.921555184e-01,9.89971e-01,9.99999e-01,9.98412e-01,9.91579e-01,9.99964e-01
7.961162960e-01,9.88905e-01,9.99999e-01,9.97169e-01,9.91744e-01,9.99966e-01
8.000968774e-01,9.88646e-01,9.99999e-01,9.96747e-01,9.91907e-01,9.99964e-01
8.040973618e-01,9.88808e-01,9.99999e-01,9.96742e-01,9.92066e-01,9.99972e-01
8.081178486e-01,9.84881e-01,9.99999e-01,9.92627e-01,9.92222e-01,9.99972e-01
8.121584379e-01,9.62115e-01,9.99999e-01,9.69606e-01,9.92375e-01,9.99896e-01
8.162192301e-01,9.56699e-01,9.99999e-01,9.64275e-01,9.92525e-01,9.99613e-01
8.203003262e-01,9.74094e-01,9.99999e-01,9.81727e-01,9.92672e-01,9.99548e-01
8.244018279e-01,9.67669e-01,9.99999e-01,9.75020e-01,9.92816e-01,9.99640e-01
8.285238370e-01,9.71285e-01,9.99999e-01,9.78449e-01,9.92958e-01,9.99717e-01
8.326664562e-01,9.71414e-01,9.99999e-01,9.78280e-01,9.93096e-01,9.99882e-01
8.368297885e-01,9.77794e-01,9.99999e-01,9.84482e-01,9.93232e-01,9.99972e-01
8.410139374e-01,9.84173e-01,9.99999e-01,9.90760e-01,9.93365e-01,9.99983e-01
8.452190071e-01,9.88983e-01,9.99999e-01,9.95466e-01,9.93496e-01,9.99990e-01
8.494451021e-01,9.90995e-01,9.99999e-01,9.97360e-01,9.93624e-01,9.99992e-01
8.536923276e-01,9.92198e-01,9.99999e-01,9.98442e-01,9.93750e-01,9.99994e-01
8.579607893e-01,9.92916e-01,9.99999e-01,9.99038e-01,9.93873e-01,9.99998e-01
8.622505932e-01,9.93387e-01,9.99999e-01,9.99390e-01,9.93993e-01,9.99999e-01
8.665618462e-01,9.93736e-01,9.99999e-01,9.99621e-01,9.94112e-01,9.99999e-01
8.708946554e-01,9.93796e-01,9.99999e-01,9.99565e-01,9.94228e-01,9.99999e-01
8.752491287e-01,9.93764e-01,9.99999e-01,9.99419e-01,9.94341e-01,9.99998e-01
8.796253743e-01,9.93651e-01,9.99999e-01,9.99194e-01,9.94453e-01,9.99997e-01
8.840235012e-01,9.93643e-01,9.99999e-01,9.99080e-01,9.94562e-01,9.99993e-01
8.884436187e-01,9.91270e-01,9.99999e-01,9.96598e-01,9.94669e-01,9.99983e-01
8.928858368e-01,9.59844e-01,9.99999e-01,9.64974e-01,9.94774e-01,9.99907e-01
8.973502660e-01,9.33992e-01,9.99999e-01,9.39241e-01,9.94877e-01,9.99530e-01
9.018370173e-01,9.63129e-01,9.99999e-01,9.68704e-01,9.94978e-01,9.99262e-01
9.063462024e-01,9.66662e-01,9.99999e-01,9.72073e-01,9.95077e-01,9.99351e-01
9.108779334e-01,9.51693e-01,9.99999e-01,9.56951e-01,9.95174e-01,9.99326e-01
9.154323231e-01,9.46322e-01,9.99999e-01,9.51349e-01,9.95269e-01,9.99443e-01
9.200094847e-01,9.56990e-01,9.99999e-01,9.61748e-01,9.95362e-01,9.99688e-01
9.246095321e-01,9.34848e-01,9.99999e-01,9.39454e-01,9.95454e-01,9.99640e-01
9.292325798e-01,6.56157e-01,9.99999e-01,6.60237e-01,9.95543e-01,9.98268e-01
9.338787427e-01,5.80905e-01,9.99999e-01,5.87119e-01,9.95631e-01,9.93755e-01
9.385481364e-01,7.98289e-01,9.99999e-01,8.07258e-01,9.95717e-01,9.93141e-01
9.432408771e-01,7.31929e-01,9.99999e-01,7.39391e-01,9.95801e-01,9.94080e-01
9.479570815e-01,6.52295e-01,9.99999e-01,6.58163e-01,9.95884e-01,9.95179e-01
9.526968669e-01,7.28551e-01,9.99999e-01,7.33660e-01,9.95965e-01,9.97056e-01
9.574603512e-01,7.49328e-01,9.99999e-01,7.53430e-01,9.96045e-01,9.98503e-01
9.622476530e-01,7.91121e-01,9.99999e-01,7.95022e-01,9.96123e-01,9.98964e-01
9.670588912e-01,8.72186e-01,9.99999e-01,8.76133e-01,9.96199e-01,9.99291e-01
9.718941857e-01,9.16869e-01,9.99999e-01,9.20777e-01,9.96274e-01,9.99478e-01
9.767536566e-01,9.29998e-01,9.99999e-01,9.33778e-01,9.96348e-01,9.99601e-01
9.816374249e-01,9.47092e-01,9.99999e-01,9.50625e-01,9.96420e-01,9.99861e-01
9.865456120e-01,9.65457e-01,9.99999e-01,9.68884e-01,9.96490e-01,9.99970e-01
9.914783401e-01,9.77271e-01,9.99999e-01,9.80652e-01,9.96559e-01,9.99991e-01
9.964357318e-01,9.86081e-01,9.99999e-01,9.89421e-01,9.96627e-01,9.99994e-01
1.001417910e+00,9.90358e-01,9.99999e-01,9.93650e-01,9.96694e-01,9.99992e-01
1.006425000e+00,9.93131e-01,9.99999e-01,9.96370e-01,9.96759e-01,9.99989e-01
1.011457125e+00,9.94571e-01,9.99999e-01,9.97750e-01,9.96823e-01,9.99990e-01
1.016514411e+00,9.95355e-01,9.99999e-01,9.98470e-01,9.96885e-01,9.99992e-01
1.021596983e+00,9.95725e-01,9.99999e-01,9.98780e-01,9.96947e-01,9.99992e-01
1.026704968e+00,9.96055e-01,9.99999e-01,9.99048e-01,9.97007e-01,9.99995e-01
1.031838492e+00,9.96377e-01,9.99999e-01,9.99309e-01,9.97066e-01,9.99998e-01
1.036997685e+00,9.96714e-01,9.99999e-01,9.99588e-01,9.97124e-01,9.99999e-01
1.042182673e+00,9.96691e-01,9.99999e-01,9.99508e-01,9.97181e-01,9.99999e-01
1.047393587e+00,9.96588e-01,9.99999e-01,9.99349e-01,9.97236e-01,9.99999e-01
1.052630555e+00,9.96400e-01,9.99999e-01,9.99106e-01,9.97291e-01,9.99999e-01
1.057893707e+00,9.95855e-01,9.99999e-01,9.98506e-01,9.97344e-01,9.99998e-01
1.063183176e+00,9.94947e-01,9.99999e-01,9.97545e-01,9.97396e-01,9.99998e-01
1.068499092e+00,9.93352e-01,9.99999e-01,9.95896e-01,9.97448e-01,9.99996e-01
1.073841587e+00,9.92695e-01,9.99999e-01,9.95189e-01,9.97498e-01,9.99993e-01
1.079210795e+00,9.91404e-01,9.99999e-01,9.93856e-01,9.97547e-01,9.99983e-01
1.084606849e+00,9.88278e-01,9.99999e-01,9.90698e-01,9.97596e-01,9.99960e-01
1.090029883e+00,9.84190e-01,9.99999e-01,9.86594e-01,9.97643e-01,9.99917e-01
1.095480033e+00,9.61570e-01,9.99999e-01,9.63938e-01,9.97690e-01,9.99851e-01
1.100957433e+00,9.08488e-01,9.99999e-01,9.10797e-01,9.97735e-01,9.99727e-01
1.106462220e+00,7.85595e-01,9.99999e-01,7.87706e-01,9.97780e-01,9.99538e-01
1.111994531e+00,6.04218e-01,9.99999e-01,6.06278e-01,9.97824e-01,9.98774e-01
1.117554504e+00,4.41881e-01,9.99999e-01,4.44789e-01,9.97867e-01,9.95585e-01
1.123142276e+00,5.43761e-01,9.99999e-01,5.50647e-01,9.97909e-01,9.89563e-01
1.128757988e+00,6.72803e-01,9.99999e-01,6.82417e-01,9.97950e-01,9.87936e-01
1.134401778e+00,4.21586e-01,9.99999e-01,4.26816e-01,9.97990e-01,9.89732e-01
1.140073787e+00,7.88559e-01,9.99999e-01,7.96657e-01,9.98030e-01,9.91788e-01
1.145774156e+00,6.16477e-01,9.99999e-01,6.22348e-01,9.98069e-01,9.92480e-01
1.151503026e+00,5.85147e-01,9.99999e-01,5.88727e-01,9.98107e-01,9.95803e-01
1.157260541e+00,6.42428e-01,9.99999e-01,6.44432e-01,9.98144e-01,9.98743e-01
1.163046844e+00,7.21762e-01,9.99999e-01,7.23334e-01,9.98181e-01,9.99643e-01
1.168862078e+00,7.97356e-01,9.99999e-01,7.98926e-01,9.98217e-01,9.99815e-01
1.174706389e+00,8.68893e-01,9.99999e-01,8.70626e-01,9.98252e-01,9.99756e-01
1.180579921e+00,9.17248e-01,9.99999e-01,9.19160e-01,9.98286e-01,9.99631e-01
1.186482820e+00,9.51530e-01,9.99999e-01,9.53490e-01,9.98320e-01,9.99621e-01
1.192415234e+00,9.70708e-01,9.99999e-01,9.72583e-01,9.98353e-01,9.99716e-01
1.198377311e+00,9.74972e-01,9.99999e-01,9.76808e-01,9.98386e-01,9.99732e-01
1.204369197e+00,9.76266e-01,9.99999e-01,9.78049e-01,9.98418e-01,9.99757e-01
1.210391043e+00,9.77346e-01,9.99999e-01,9.79007e-01,9.98449e-01,9.99852e-01
1.216442998e+00,9.80564e-01,9.99999e-01,9.82144e-01,9.98479e-01,9.99909e-01
1.222525213e+00,9.84543e-01,9.99999e-01,9.86067e-01,9.98509e-01,9.99943e-01
1.228637839e+00,9.88829e-01,9.99999e-01,9.90301e-01,9.98539e-01,9.99973e-01
1.234781029e+00,9.91368e-01,9.99999e-01,9.92797e-01,9.98568e-01,9.99992e-01
1.240954934e+00,9.94038e-01,9.99999e-01,9.95437e-01,9.98596e-01,9.99997e-01
1.247159708e+00,9.95076e-01,9.99999e-01,9.96448e-01,9.98624e-01,9.99998e-01
1.253395507e+00,9.95496e-01,9.99999e-01,9.96842e-01,9.98651e-01,9.99997e-01
1.259662485e+00,9.95674e-01,9.99999e-01,9.96995e-01,9.98677e-01,9.99996e-01
1.265960797e+00,9.93916e-01,9.99999e-01,9.95209e-01,9.98703e-01,9.99994e-01
1.272290601e+00,9.91194e-01,9.99999e-01,9.92463e-01,9.98729e-01,9.99991e-01
1.278652054e+00,9.83825e-01,9.99999e-01,9.85065e-01,9.98754e-01,9.99985e-01
1.285045314e+00,9.71819e-01,9.99999e-01,9.73033e-01,9.98779e-01,9.99972e-01
1.291470541e+00,9.52282e-01,9.99999e-01,9.53468e-01,9.98803e-01,9.99951e-01
1.297927893e+00,9.33243e-01,9.99999e-01,9.34421e-01,9.98826e-01,9.99910e-01
1.304417533e+00,9.21993e-01,9.99999e-01,9.23227e-01,9.98850e-01,9.99811e-01
1.310939621e+00,9.02553e-01,9.99999e-01,9.03920e-01,9.98872e-01,9.99613e-01
1.317494319e+00,9.04014e-01,9.99999e-01,9.05660e-01,9.98894e-01,9.99285e-01
1.324081790e+00,8.59754e-01,9.99999e-01,8.61690e-01,9.98916e-01,9.98833e-01
1.330702199e+00,5.38238e-01,9.99999e-01,5.39894e-01,9.98938e-01,9.97990e-01
1.337355710e+00,2.13756e-01,9.99999e-01,2.14809e-01,9.98959e-01,9.96134e-01
1.344042489e+00,1.94836e-02,9.99999e-01,1.97323e-02,9.98979e-01,9.88402e-01
1.350762701e+00,3.61454e-04,9.99999e-01,3.76558e-04,9.98999e-01,9.60849e-01
1.357516515e+00,1.82607e-05,9.99999e-01,2.05516e-05,9.99019e-01,8.89400e-01
1.364304097e+00,6.85175e-04,9.99999e-01,8.42228e-04,9.99038e-01,8.14308e-01
1.371125618e+00,6.98560e-03,9.99999e-01,8.48635e-03,9.99057e-01,8.23933e-01
1.377981246e+00,1.44165e-02,9.99999e-01,1.70356e-02,9.99076e-01,8.47038e-01
1.384871152e+00,7.05819e-04,9.99999e-01,8.24646e-04,9.99094e-01,8.56680e-01
1.391795508e+00,9.89959e-04,9.99999e-01,1.14826e-03,9.99112e-01,8.62902e-01
1.398754485e+00,2.94136e-03,9.99999e-01,3.32525e-03,9.99130e-01,8.85322e-01
1.405748258e+00,2.73578e-03,9.99999e-01,2.94019e-03,9.99147e-01,9.31270e-01
1.412776999e+00,3.13675e-03,9.99999e-01,3.24312e-03,9.99164e-01,9.68012e-01
1.419840884e+00,4.67461e-03,9.99999e-01,4.74561e-03,9.99180e-01,9.85845e-01
1.426940089e+00,1.49789e-02,9.99999e-01,1.51542e-02,9.99196e-01,9.89228e-01
1.434074789e+00,4.02080e-02,9.99999e-01,4.07572e-02,9.99212e-01,9.87301e-01
1.441245163e+00,8.60322e-02,9.99999e-01,8.72986e-02,9.99228e-01,9.86252e-01
1.448451389e+00,1.73624e-01,9.99999e-01,1.75874e-01,9.99243e-01,9.87952e-01
1.455693646e+00,3.17420e-01,9.99999e-01,3.20666e-01,9.99258e-01,9.90613e-01
1.462972114e+00,3.71797e-01,9.99999e-01,3.75428e-01,9.99272e-01,9.91045e-01
1.470286975e+00,3.15625e-01,9.99999e-01,3.18655e-01,9.99287e-01,9.91197e-01
