#,Wave/freq,Total,N2,H2O,Rayleigh,CIA
4.000000000e-01,8.48659e-01,9.99999e-01,9.99980e-01,8.48674e-01,9.99999e-01
4.020000000e-01,8.51422e-01,9.99999e-01,9.99987e-01,8.51432e-01,9.99999e-01
4.040100000e-01,8.54137e-01,9.99999e-01,9.99994e-01,8.54141e-01,9.99999e-01
4.060300500e-01,8.56804e-01,9.99999e-01,9.99998e-01,8.56805e-01,9.99999e-01
4.080602003e-01,8.59425e-01,9.99999e-01,9.99999e-01,8.59425e-01,9.99999e-01
4.101005013e-01,8.62000e-01,9.99999e-01,9.99999e-01,8.62000e-01,9.99999e-01
4.121510038e-01,8.64532e-01,9.99999e-01,9.99998e-01,8.64533e-01,9.99999e-01
4.142117588e-01,8.67018e-01,9.99999e-01,9.99994e-01,8.67022e-01,9.99999e-01
4.162828176e-01,8.69449e-01,9.99999e-01,9.99976e-01,8.69469e-01,9.99999e-01
4.183642317e-01,8.71863e-01,9.99999e-01,9.99985e-01,8.71875e-01,9.99999e-01
4.204560528e-01,8.74232e-01,9.99999e-01,9.99991e-01,8.74239e-01,9.99999e-01
4.225583331e-01,8.76560e-01,9.99999e-01,9.99996e-01,8.76563e-01,9.99999e-01
4.246711247e-01,8.78845e-01,9.99999e-01,9.99997e-01,8.78847e-01,9.99999e-01
4.267944804e-01,8.81089e-01,9.99999e-01,9.99995e-01,8.81092e-01,9.99999e-01
4.289284528e-01,8.83295e-01,9.99999e-01,9.99996e-01,8.83298e-01,9.99999e-01
4.310730950e-01,8.85464e-01,9.99999e-01,9.99998e-01,8.85465e-01,9.99999e-01
4.332284605e-01,8.87595e-01,9.99999e-01,9.99999e-01,8.87595e-01,9.99999e-01
4.353946028e-01,8.89688e-01,9.99999e-01,9.99999e-01,8.89688e-01,9.99999e-01
4.375715758e-01,8.91743e-01,9.99999e-01,9.99997e-01,8.91745e-01,9.99999e-01
4.397594337e-01,8.93748e-01,9.99999e-01,9.99979e-01,8.93765e-01,9.99999e-01
4.419582309e-01,8.95660e-01,9.99999e-01,9.99898e-01,8.95750e-01,9.99999e-01
4.441680220e-01,8.97628e-01,9.99999e-01,9.99919e-01,8.97700e-01,9.99999e-01
4.463888621e-01,8.99541e-01,9.99999e-01,9.99916e-01,8.99616e-01,9.99999e-01
4.486208064e-01,9.01451e-01,9.99999e-01,9.99947e-01,9.01498e-01,9.99999e-01
4.508639105e-01,9.03324e-01,9.99999e-01,9.99975e-01,9.03346e-01,9.99999e-01
4.531182300e-01,9.05153e-01,9.99999e-01,9.99989e-01,9.05162e-01,9.99999e-01
4.553838212e-01,9.06939e-01,9.99999e-01,9.99993e-01,9.06945e-01,9.99999e-01
4.576607403e-01,9.08694e-01,9.99999e-01,9.99996e-01,9.08696e-01,9.99999e-01
4.599490440e-01,9.10415e-01,9.99999e-01,9.99997e-01,9.10416e-01,9.99999e-01
4.622487892e-01,9.12105e-01,9.99999e-01,9.99999e-01,9.12106e-01,9.99999e-01
4.645600332e-01,9.13763e-01,9.99999e-01,9.99998e-01,9.13765e-01,9.99999e-01
4.668828333e-01,9.15372e-01,9.99999e-01,9.99975e-01,9.15394e-01,9.99999e-01
4.692172475e-01,9.16946e-01,9.99999e-01,9.99947e-01,9.16994e-01,9.99999e-01
4.715633337e-01,9.18533e-01,9.99999e-01,9.99965e-01,9.18565e-01,9.99999e-01
4.739211504e-01,9.20077e-01,9.99999e-01,9.99966e-01,9.20107e-01,9.99999e-01
4.762907561e-01,9.21606e-01,9.99999e-01,9.99982e-01,9.21622e-01,9.99999e-01
4.786722099e-01,9.23102e-01,9.99999e-01,9.99992e-01,9.23109e-01,9.99999e-01
4.810655710e-01,9.24567e-01,9.99999e-01,9.99997e-01,9.24569e-01,9.99999e-01
4.834708988e-01,9.25984e-01,9.99999e-01,9.99979e-01,9.26002e-01,9.99999e-01
4.858882533e-01,9.27375e-01,9.99999e-01,9.99962e-01,9.27409e-01,9.99999e-01
4.883176946e-01,9.28762e-01,9.99999e-01,9.99968e-01,9.28791e-01,9.99999e-01
4.907592831e-01,9.30121e-01,9.99999e-01,9.99971e-01,9.30147e-01,9.99999e-01
4.932130795e-01,9.31460e-01,9.99999e-01,9.99979e-01,9.31478e-01,9.99999e-01
4.956791449e-01,9.32775e-01,9.99999e-01,9.99989e-01,9.32785e-01,9.99999e-01
4.981575406e-01,9.34019e-01,9.99999e-01,9.99947e-01,9.34068e-01,9.99999e-01
5.006483283e-01,9.35201e-01,9.99999e-01,9.99865e-01,9.35327e-01,9.99998e-01
5.031515699e-01,9.35913e-01,9.99999e-01,9.99312e-01,9.36563e-01,9.99992e-01
5.056673278e-01,9.37428e-01,9.99999e-01,9.99635e-01,9.37776e-01,9.99991e-01
5.081956644e-01,9.38531e-01,9.99999e-01,9.99540e-01,9.38967e-01,9.99994e-01
5.107366428e-01,9.39843e-01,9.99999e-01,9.99689e-01,9.40136e-01,9.99998e-01
5.132903260e-01,9.41116e-01,9.99999e-01,9.99822e-01,9.41283e-01,9.99999e-01
5.158567776e-01,9.42338e-01,9.99999e-01,9.99924e-01,9.42409e-01,9.99999e-01
5.184360615e-01,9.43485e-01,9.99999e-01,9.99969e-01,9.43513e-01,9.99999e-01
5.210282418e-01,9.44587e-01,9.99999e-01,9.99988e-01,9.44598e-01,9.99999e-01
5.236333830e-01,9.45619e-01,9.99999e-01,9.99954e-01,9.45662e-01,9.99999e-01
5.262515499e-01,9.46679e-01,9.99999e-01,9.99971e-01,9.46706e-01,9.99999e-01
5.288828077e-01,9.47706e-01,9.99999e-01,9.99973e-01,9.47731e-01,9.99999e-01
5.315272217e-01,9.48714e-01,9.99999e-01,9.99976e-01,9.48736e-01,9.99999e-01
5.341848578e-01,9.49709e-01,9.99999e-01,9.99984e-01,9.49723e-01,9.99999e-01
5.368557821e-01,9.50641e-01,9.99999e-01,9.99947e-01,9.50691e-01,9.99999e-01
5.395400610e-01,9.51462e-01,9.99999e-01,9.99812e-01,9.51641e-01,9.99997e-01
5.422377613e-01,9.52336e-01,9.99999e-01,9.99755e-01,9.52573e-01,9.99995e-01
5.449489501e-01,9.53268e-01,9.99999e-01,9.99773e-01,9.53488e-01,9.99994e-01
5.476736949e-01,9.54191e-01,9.99999e-01,9.99798e-01,9.54385e-01,9.99997e-01
5.504120634e-01,9.55126e-01,9.99999e-01,9.99853e-01,9.55266e-01,9.99998e-01
5.531641237e-01,9.56059e-01,9.99999e-01,9.99926e-01,9.56130e-01,9.99999e-01
5.559299443e-01,9.56943e-01,9.99999e-01,9.99964e-01,9.56977e-01,9.99999e-01
5.587095940e-01,9.57788e-01,9.99999e-01,9.99977e-01,9.57809e-01,9.99999e-01
5.615031420e-01,9.58601e-01,9.99999e-01,9.99974e-01,9.58625e-01,9.99999e-01
5.643106577e-01,9.59398e-01,9.99999e-01,9.99971e-01,9.59425e-01,9.99999e-01
5.671322110e-01,9.59886e-01,9.99999e-01,9.99664e-01,9.60210e-01,9.99996e-01
5.699678720e-01,9.60621e-01,9.99999e-01,9.99634e-01,9.60981e-01,9.99990e-01
5.728177114e-01,9.61367e-01,9.99999e-01,9.99623e-01,9.61737e-01,9.99991e-01
5.756818000e-01,9.62141e-01,9.99999e-01,9.99653e-01,9.62478e-01,9.99994e-01
5.785602090e-01,9.62913e-01,9.99999e-01,9.99697e-01,9.63205e-01,9.99998e-01
5.814530100e-01,9.63626e-01,9.99999e-01,9.99696e-01,9.63919e-01,9.99998e-01
5.843602750e-01,9.64271e-01,9.99999e-01,9.99641e-01,9.64619e-01,9.99997e-01
5.872820764e-01,9.62300e-01,9.99999e-01,9.96907e-01,9.65305e-01,9.99977e-01
5.902184868e-01,9.62275e-01,9.99999e-01,9.96224e-01,9.65979e-01,9.99939e-01
5.931695792e-01,9.64012e-01,9.99999e-01,9.97338e-01,9.66639e-01,9.99941e-01
5.961354271e-01,9.64427e-01,9.99999e-01,9.97077e-01,9.67287e-01,9.99964e-01
5.991161043e-01,9.65849e-01,9.99999e-01,9.97866e-01,9.67923e-01,9.99989e-01
6.021116848e-01,9.67372e-01,9.99999e-01,9.98787e-01,9.68547e-01,9.99998e-01
6.051222432e-01,9.68564e-01,9.99999e-01,9.99386e-01,9.69158e-01,9.99999e-01
6.081478544e-01,9.69502e-01,9.99999e-01,9.99735e-01,9.69758e-01,9.99999e-01
6.111885937e-01,9.70238e-01,9.99999e-01,9.99887e-01,9.70346e-01,9.99999e-01
6.142445367e-01,9.70875e-01,9.99999e-01,9.99949e-01,9.70924e-01,9.99999e-01
6.173157594e-01,9.71463e-01,9.99999e-01,9.99971e-01,9.71490e-01,9.99999e-01
6.204023382e-01,9.72022e-01,9.99999e-01,9.99976e-01,9.72045e-01,9.99999e-01
6.235043498e-01,9.72491e-01,9.99999e-01,9.99898e-01,9.72589e-01,9.99999e-01
6.266218716e-01,9.72592e-01,9.99999e-01,9.99457e-01,9.73123e-01,9.99995e-01
6.297549810e-01,9.73446e-01,9.99999e-01,9.99800e-01,9.73647e-01,9.99991e-01
6.329037559e-01,9.73771e-01,9.99999e-01,9.99605e-01,9.74161e-01,9.99993e-01
6.360682746e-01,9.74336e-01,9.99999e-01,9.99665e-01,9.74665e-01,9.99995e-01
6.392486160e-01,9.74734e-01,9.99999e-01,9.99565e-01,9.75159e-01,9.99997e-01
6.424448591e-01,9.75079e-01,9.99999e-01,9.99423e-01,9.75644e-01,9.99996e-01
6.456570834e-01,9.73492e-01,9.99999e-01,9.97323e-01,9.76119e-01,9.99984e-01
6.488853688e-01,9.74279e-01,9.99999e-01,9.97680e-01,9.76585e-01,9.99957e-01
6.521297956e-01,9.75038e-01,9.99999e-01,9.97983e-01,9.77042e-01,9.99964e-01
6.553904446e-01,9.75519e-01,9.99999e-01,9.98008e-01,9.77490e-01,9.99973e-01
6.586673968e-01,9.76240e-01,9.99999e-01,9.98279e-01,9.77930e-01,9.99990e-01
6.619607338e-01,9.77387e-01,9.99999e-01,9.99005e-01,9.78361e-01,9.99997e-01
6.652705375e-01,9.78219e-01,9.99999e-01,9.99422e-01,9.78784e-01,9.99998e-01
6.685968902e-01,9.78936e-01,9.99999e-01,9.99731e-01,9.79199e-01,9.99999e-01
6.719398746e-01,9.79484e-01,9.99999e-01,9.99875e-01,9.79605e-01,9.99999e-01
6.752995740e-01,9.79938e-01,9.99999e-01,9.99932e-01,9.80004e-01,9.99999e-01
6.786760719e-01,9.80301e-01,9.99999e-01,9.99903e-01,9.80395e-01,9.99999e-01
6.820694522e-01,9.80616e-01,9.99999e-01,9.99834e-01,9.80779e-01,9.99998e-01
6.854797995e-01,9.80944e-01,9.99999e-01,9.99786e-01,9.81155e-01,9.99997e-01
6.889071985e-01,9.81020e-01,9.99999e-01,9.99490e-01,9.81523e-01,9.99994e-01
6.923517345e-01,9.73626e-01,9.99999e-01,9.91628e-01,9.81885e-01,9.99959e-01
6.958134932e-01,9.77792e-01,9.99999e-01,9.95562e-01,9.82240e-01,9.99908e-01
6.992925606e-01,9.78438e-01,9.99999e-01,9.95856e-01,9.82587e-01,9.99919e-01
7.027890234e-01,9.77808e-01,9.99999e-01,9.94851e-01,9.82928e-01,9.99937e-01
7.063029686e-01,9.78980e-01,9.99999e-01,9.95673e-01,9.83263e-01,9.99968e-01
7.098344834e-01,9.79491e-01,9.99999e-01,9.95849e-01,9.83591e-01,9.99981e-01
7.133836558e-01,9.78496e-01,9.99999e-01,9.94530e-01,9.83912e-01,9.99963e-01
7.169505741e-01,9.41128e-01,9.99999e-01,9.56480e-01,9.84227e-01,9.99716e-01
7.205353270e-01,9.62537e-01,9.99999e-01,9.78143e-01,9.84536e-01,9.99499e-01
7.241380036e-01,9.57525e-01,9.99999e-01,9.72684e-01,9.84840e-01,9.99567e-01
7.277586936e-01,9.60464e-01,9.99999e-01,9.75298e-01,9.85137e-01,9.99646e-01
7.313974871e-01,9.59276e-01,9.99999e-01,9.73621e-01,9.85428e-01,9.99834e-01
7.350544745e-01,9.71402e-01,9.99999e-01,9.85537e-01,9.85714e-01,9.99942e-01
7.387297469e-01,9.75454e-01,9.99999e-01,9.89335e-01,9.85994e-01,9.99973e-01
7.424233956e-01,9.81096e-01,9.99999e-01,9.94759e-01,9.86269e-01,9.99994e-01
7.461355126e-01,9.83407e-01,9.99999e-01,9.96826e-01,9.86538e-01,9.99998e-01
7.498661902e-01,9.85340e-01,9.99999e-01,9.98518e-01,9.86802e-01,9.99999e-01
7.536155211e-01,9.86346e-01,9.99999e-01,9.99274e-01,9.87061e-01,9.99999e-01
7.573835987e-01,9.86947e-01,9.99999e-01,9.99626e-01,9.87315e-01,9.99999e-01
7.611705167e-01,9.87335e-01,9.99999e-01,9.99767e-01,9.87564e-01,9.99999e-01
7.649763693e-01,9.87665e-01,9.99999e-01,9.99854e-01,9.87808e-01,9.99999e-01
7.688012511e-01,9.87948e-01,9.99999e-01,9.99898e-01,9.88048e-01,9.99999e-01
7.726452574e-01,9.88200e-01,9.99999e-01,9.99916e-01,9.88282e-01,9.99999e-01
7.765084837e-01,9.88396e-01,9.99999e-01,9.99882e-01,9.88512e-01,9.99999e-01
7.803910261e-01,9.88237e-01,9.99999e-01,9.99493e-01,9.88738e-01,9.99999e-01
7.842929812e-01,9.87210e-01,9.99999e-01,9.98234e-01,9.88959e-01,9.99996e-01
7.882144461e-01,9.85531e-01,9.99999e-01,9.96337e-01,9.89176e-01,9.99977e-01
7.921555184e-01,9.87349e-01,9.99999e-01,9.97981e-01,9.89389e-01,9.99956e-01
7.961162960e-01,9.86061e-01,9.99999e-01,9.96467e-01,9.89597e-01,9.99958e-01
8.000968774e-01,9.85702e-01,9.99999e-01,9.95901e-01,9.89802e-01,9.99955e-01
8.040973618e-01,9.85914e-01,9.99999e-01,9.95905e-01,9.90002e-01,9.99964e-01
8.081178486e-01,9.81094e-01,9.99999e-01,9.90837e-01,9.90199e-01,9.99966e-01
8.121584379e-01,9.52855e-01,9.99999e-01,9.62224e-01,9.90391e-01,9.99870e-01
8.162192301e-01,9.45459e-01,9.99999e-01,9.54913e-01,9.90580e-01,9.99513e-01
8.203003262e-01,9.68002e-01,9.99999e-01,9.77580e-01,9.90765e-01,9.99430e-01
8.244018279e-01,9.58899e-01,9.99999e-01,9.68098e-01,9.90947e-01,9.99546e-01
8.285238370e-01,9.64040e-01,9.99999e-01,9.73018e-01,9.91125e-01,9.99643e-01
8.326664562e-01,9.64023e-01,9.99999e-01,9.72626e-01,9.91299e-01,9.99852e-01
8.368297885e-01,9.71966e-01,9.99999e-01,9.80360e-01,9.91470e-01,9.99965e-01
8.410139374e-01,9.80004e-01,9.99999e-01,9.88286e-01,9.91638e-01,9.99979e-01
8.452190071e-01,9.86075e-01,9.99999e-01,9.94236e-01,9.91803e-01,9.99987e-01
8.494451021e-01,9.88646e-01,9.99999e-01,9.96664e-01,9.91964e-01,9.99990e-01
8.536923276e-01,9.90152e-01,9.99999e-01,9.98020e-01,9.92122e-01,9.99993e-01
8.579607893e-01,9.91069e-01,9.99999e-01,9.98783e-01,9.92277e-01,9.99997e-01
8.622505932e-01,9.91661e-01,9.99999e-01,9.99225e-01,9.92429e-01,9.99999e-01
8.665618462e-01,9.92104e-01,9.99999e-01,9.99522e-01,9.92578e-01,9.99999e-01
8.708946554e-01,9.92182e-01,9.99999e-01,9.99454e-01,9.92724e-01,9.99999e-01
8.752491287e-01,9.92142e-01,9.99999e-01,9.99269e-01,9.92867e-01,9.99998e-01
8.796253743e-01,9.92004e-01,9.99999e-01,9.98991e-01,9.93008e-01,9.99997e-01
8.840235012e-01,9.91993e-01,9.99999e-01,9.98846e-01,9.93145e-01,9.99992e-01
8.884436187e-01,9.89147e-01,9.99999e-01,9.95858e-01,9.93280e-01,9.99979e-01
8.928858368e-01,9.50255e-01,9.99999e-01,9.56666e-01,9.93412e-01,9.99884e-01
8.973502660e-01,9.17456e-01,9.99999e-01,9.23965e-01,9.93542e-01,9.99408e-01
9.018370173e-01,9.53228e-01,9.99999e-01,9.60192e-01,9.93669e-01,9.99069e-01
9.063462024e-01,9.58592e-01,9.99999e-01,9.65366e-01,9.93794e-01,9.99182e-01
9.108779334e-01,9.39713e-01,9.99999e-01,9.46267e-01,9.93916e-01,9.99150e-01
9.154323231e-01,9.32847e-01,9.99999e-01,9.39102e-01,9.94036e-01,9.99297e-01
9.200094847e-01,9.45933e-01,9.99999e-01,9.51869e-01,9.94153e-01,9.99606e-01
9.246095321e-01,9.21090e-01,9.99999e-01,9.26818e-01,9.94268e-01,9.99547e-01
9.292325798e-01,5.93939e-01,9.99999e-01,5.98350e-01,9.94381e-01,9.98236e-01
9.338787427e-01,5.06215e-01,9.99999e-01,5.12746e-01,9.94492e-01,9.92729e-01
9.385481364e-01,7.52987e-01,9.99999e-01,7.63673e-01,9.94600e-01,9.91358e-01
9.432408771e-01,6.80450e-01,9.99999e-01,6.89211e-01,9.94707e-01,9.92540e-01
9.479570815e-01,5.92071e-01,9.99999e-01,5.98797e-01,9.94811e-01,9.93924e-01
9.526968669e-01,6.72960e-01,9.99999e-01,6.78919e-01,9.94913e-01,9.96289e-01
9.574603512e-01,6.96048e-01,9.99999e-01,7.00857e-01,9.95013e-01,9.98113e-01
9.622476530e-01,7.43699e-01,9.99999e-01,7.48328e-01,9.95112e-01,9.98694e-01
9.670588912e-01,8.41527e-01,9.99999e-01,8.46334e-01,9.95208e-01,9.99107e-01
9.718941857e-01,8.96301e-01,9.99999e-01,9.01122e-01,9.95302e-01,9.99342e-01
9.767536566e-01,9.12555e-01,9.99999e-01,9.17237e-01,9.95395e-01,9.99497e-01
9.816374249e-01,9.33481e-01,9.99999e-01,9.37877e-01,9.95486e-01,9.99825e-01
9.865456120e-01,9.56437e-01,9.99999e-01,9.60722e-01,9.95575e-01,9.99963e-01
9.914783401e-01,9.71316e-01,9.99999e-01,9.75557e-01,9.95662e-01,9.99989e-01
9.964357318e-01,9.82412e-01,9.99999e-01,9.86613e-01,9.95747e-01,9.99993e-01
1.001417910e+00,9.87812e-01,9.99999e-01,9.91955e-01,9.95831e-01,9.99990e-01
1.006425000e+00,9.91335e-01,9.99999e-01,9.95415e-01,9.95913e-01,9.99986e-01
1.011457125e+00,9.93140e-01,9.99999e-01,9.97145e-01,9.95994e-01,9.99987e-01
1.016514411e+00,9.94137e-01,9.99999e-01,9.98064e-01,9.96073e-01,9.99991e-01
1.021596983e+00,9.94606e-01,9.99999e-01,9.98458e-01,9.96150e-01,9.99991e-01
1.026704968e+00,9.95024e-01,9.99999e-01,9.98798e-01,9.96226e-01,9.99993e-01
1.031838492e+00,9.95427e-01,9.99999e-01,9.99124e-01,9.96300e-01,9.99997e-01
1.036997685e+00,9.95856e-01,9.99999e-01,9.99480e-01,9.96373e-01,9.99999e-01
1.042182673e+00,9.95830e-01,9.99999e-01,9.99382e-01,9.96445e-01,9.99999e-01
1.047393587e+00,9.95699e-01,9.99999e-01,9.99180e-01,9.96515e-01,9.99999e-01
1.052630555e+00,9.95465e-01,9.99999e-01,9.98877e-01,9.96584e-01,9.99999e-01
1.057893707e+00,9.94785e-01,9.99999e-01,9.98128e-01,9.96651e-01,9.99998e-01
1.063183176e+00,9.93644e-01,9.99999e-01,9.96917e-01,9.96717e-01,9.99997e-01
1.068499092e+00,9.91632e-01,9.99999e-01,9.94837e-01,9.96782e-01,9.99996e-01
1.073841587e+00,9.90826e-01,9.99999e-01,9.93968e-01,9.96845e-01,9.99991e-01
1.079210795e+00,9.89166e-01,9.99999e-01,9.92255e-01,9.96907e-01,9.99978e-01
1.084606849e+00,9.85268e-01,9.99999e-01,9.88312e-01,9.96968e-01,9.99949e-01
1.090029883e+00,9.80306e-01,9.99999e-01,9.83328e-01,9.97028e-01,9.99896e-01
1.095480033e+00,9.52182e-01,9.99999e-01,9.55141e-01,9.97087e-01,9.99813e-01
1.100957433e+00,8.87057e-01,9.99999e-01,8.89902e-01,9.97144e-01,9.99656e-01
1.106462220e+00,7.41408e-01,9.99999e-01,7.43922e-01,9.97200e-01,9.99417e-01
1.111994531e+00,5.33507e-01,9.99999e-01,5.35802e-01,9.97256e-01,9.98455e-01
1.117554504e+00,3.61563e-01,9.99999e-01,3.64566e-01,9.97310e-01,9.94436e-01
1.123142276e+00,4.68883e-01,9.99999e-01,4.76384e-01,9.97363e-01,9.86856e-01
1.128757988e+00,6.10939e-01,9.99999e-01,6.21969e-01,9.97415e-01,9.84811e-01
1.134401778e+00,3.52902e-01,9.99999e-01,3.58433e-01,9.97466e-01,9.87070e-01
1.140073787e+00,7.43416e-01,9.99999e-01,7.53057e-01,9.97516e-01,9.89655e-01
1.145774156e+00,5.46803e-01,9.99999e-01,5.53379e-01,9.97565e-01,9.90526e-01
1.151503026e+00,5.13962e-01,9.99999e-01,5.17930e-01,9.97613e-01,9.94711e-01
1.157260541e+00,5.74077e-01,9.99999e-01,5.76336e-01,9.97660e-01,9.98415e-01
1.163046844e+00,6.62981e-01,9.99999e-01,6.64804e-01,9.97706e-01,9.99550e-01
1.168862078e+00,7.50988e-01,9.99999e-01,7.52854e-01,9.97751e-01,9.99768e-01
1.174706389e+00,8.37228e-01,9.99999e-01,8.39335e-01,9.97796e-01,9.99692e-01
1.180579921e+00,8.96429e-01,9.99999e-01,8.98787e-01,9.97839e-01,9.99535e-01
1.186482820e+00,9.39100e-01,9.99999e-01,9.41541e-01,9.97882e-01,9.99523e-01
1.192415234e+00,9.63145e-01,9.99999e-01,9.65492e-01,9.97924e-01,9.99642e-01
1.198377311e+00,9.68579e-01,9.99999e-01,9.70881e-01,9.97964e-01,9.99662e-01
1.204369197e+00,9.70164e-01,9.99999e-01,9.72399e-01,9.98005e-01,9.99694e-01
1.210391043e+00,9.71503e-01,9.99999e-01,9.73587e-01,9.98044e-01,9.99814e-01
1.216442998e+00,9.75463e-01,9.99999e-01,9.77447e-01,9.98083e-01,9.99885e-01
1.222525213e+00,9.80499e-01,9.99999e-01,9.82414e-01,9.98120e-01,9.99928e-01
1.228637839e+00,9.85914e-01,9.99999e-01,9.87765e-01,9.98157e-01,9.99966e-01
1.234781029e+00,9.89094e-01,9.99999e-01,9.90892e-01,9.98194e-01,9.99990e-01
1.240954934e+00,9.92475e-01,9.99999e-01,9.94237e-01,9.98229e-01,9.99996e-01
1.247159708e+00,9.93779e-01,9.99999e-01,9.95507e-01,9.98264e-01,9.99997e-01
1.253395507e+00,9.94320e-01,9.99999e-01,9.96015e-01,9.98299e-01,9.99997e-01
1.259662485e+00,9.94588e-01,9.99999e-01,9.96252e-01,9.98332e-01,9.99996e-01
1.265960797e+00,9.92349e-01,9.99999e-01,9.93979e-01,9.98365e-01,9.99993e-01
1.272290601e+00,9.89547e-01,9.99999e-01,9.91145e-01,9.98397e-01,9.99989e-01
1.278652054e+00,9.79797e-01,9.99999e-01,9.81356e-01,9.98429e-01,9.99981e-01
1.285045314e+00,9.69311e-01,9.99999e-01,9.70839e-01,9.98460e-01,9.99965e-01
1.291470541e+00,9.40652e-01,9.99999e-01,9.42130e-01,9.98490e-01,9.99939e-01
1.297927893e+00,9.23590e-01,9.99999e-01,9.25062e-01,9.98520e-01,9.99887e-01
1.304417533e+00,9.02847e-01,9.99999e-01,9.04372e-01,9.98549e-01,9.99762e-01
1.310939621e+00,8.90009e-01,9.99999e-01,8.91710e-01,9.98578e-01,9.99512e-01
1.317494319e+00,8.80410e-01,9.99999e-01,8.82433e-01,9.98606e-01,9.99099e-01
1.324081790e+00,8.27347e-01,9.99999e-01,8.29697e-01,9.98633e-01,9.98529e-01
1.330702199e+00,4.80838e-01,9.99999e-01,4.82705e-01,9.98660e-01,9.97466e-01
1.337355710e+00,1.50610e-01,9.99999e-01,1.51547e-01,9.98687e-01,9.95127e-01
1.344042489e+00,1.02254e-02,9.99999e-01,1.03903e-02,9.98713e-01,9.85397e-01
1.350762701e+00,7.01343e-05,9.99999e-01,7.38501e-05,9.98738e-01,9.50882e-01
1.357516515e+00,1.43663e-06,9.99999e-01,1.66753e-06,9.98763e-01,8.62597e-01
1.364304097e+00,1.38182e-04,9.99999e-01,1.79258e-04,9.98787e-01,7.71789e-01
1.371125618e+00,2.32161e-03,9.99999e-01,2.96737e-03,9.98811e-01,7.83310e-01
1.377981246e+00,5.83535e-03,9.99999e-01,7.20265e-03,9.98835e-01,8.11111e-01
1.384871152e+00,1.86308e-04,9.99999e-01,2.27176e-04,9.98858e-01,8.21041e-01
1.391795508e+00,2.04182e-04,9.99999e-01,2.46358e-04,9.98880e-01,8.29731e-01
1.398754485e+00,8.24545e-04,9.99999e-01,9.62497e-04,9.98902e-01,8.57613e-01
1.405748258e+00,8.27867e-04,9.99999e-01,9.06620e-04,9.98924e-01,9.14118e-01
1.412776999e+00,8.74425e-04,9.99999e-01,9.11981e-04,9.98945e-01,9.59830e-01
1.419840884e+00,1.48090e-03,9.99999e-01,1.50932e-03,9.98966e-01,9.82183e-01
1.426940089e+00,5.86899e-03,9.99999e-01,5.95573e-03,9.98986e-01,9.86435e-01
1.434074789e+00,1.98257e-02,9.99999e-01,2.01678e-02,9.99006e-01,9.84013e-01
1.441245163e+00,4.84136e-02,9.99999e-01,4.93141e-02,9.99026e-01,9.82695e-01
1.448451389e+00,1.16215e-01,9.99999e-01,1.18118e-01,9.99045e-01,9.84831e-01
1.455693646e+00,2.37935e-01,9.99999e-01,2.41007e-01,9.99064e-01,9.88177e-01
1.462972114e+00,2.91071e-01,9.99999e-01,2.94661e-01,9.99082e-01,9.88721e-01
1.470286975e+00,2.37440e-01,9.99999e-01,2.40318e-01,9.99101e-01,9.88912e-01
