#,Wave/freq,Total,N2,H2O,Rayleigh,CIA
4.000000000e-01,5.69529e-01,9.99999e-01,9.99936e-01,5.69566e-01,9.99999e-01
4.020000000e-01,5.75917e-01,9.99999e-01,9.99960e-01,5.75940e-01,9.99999e-01
4.040100000e-01,5.82242e-01,9.99999e-01,9.99982e-01,5.82251e-01,9.99999e-01
4.060300500e-01,5.88503e-01,9.99999e-01,9.99995e-01,5.88505e-01,9.99999e-01
4.080602003e-01,5.94699e-01,9.99999e-01,9.99998e-01,5.94700e-01,9.99999e-01
4.101005013e-01,6.00836e-01,9.99999e-01,9.99999e-01,6.00836e-01,9.99999e-01
4.121510038e-01,6.06911e-01,9.99999e-01,9.99997e-01,6.06913e-01,9.99999e-01
4.142117588e-01,6.12918e-01,9.99999e-01,9.99982e-01,6.12929e-01,9.99999e-01
4.162828176e-01,6.18835e-01,9.99999e-01,9.99920e-01,6.18884e-01,9.99999e-01
4.183642317e-01,6.24749e-01,9.99999e-01,9.99952e-01,6.24778e-01,9.99999e-01
4.204560528e-01,6.30591e-01,9.99999e-01,9.99970e-01,6.30609e-01,9.99999e-01
4.225583331e-01,6.36372e-01,9.99999e-01,9.99988e-01,6.36379e-01,9.99999e-01
4.246711247e-01,6.42080e-01,9.99999e-01,9.99991e-01,6.42085e-01,9.99999e-01
4.267944804e-01,6.47721e-01,9.99999e-01,9.99986e-01,6.47729e-01,9.99999e-01
4.289284528e-01,6.53303e-01,9.99999e-01,9.99989e-01,6.53309e-01,9.99999e-01
4.310730950e-01,6.58823e-01,9.99999e-01,9.99995e-01,6.58826e-01,9.99999e-01
4.332284605e-01,6.64278e-01,9.99999e-01,9.99998e-01,6.64279e-01,9.99999e-01
4.353946028e-01,6.69667e-01,9.99999e-01,9.99999e-01,6.69668e-01,9.99999e-01
4.375715758e-01,6.74987e-01,9.99999e-01,9.99991e-01,6.74993e-01,9.99999e-01
4.397594337e-01,6.80207e-01,9.99999e-01,9.99930e-01,6.80253e-01,9.99999e-01
4.419582309e-01,6.85211e-01,9.99999e-01,9.99650e-01,6.85450e-01,9.99999e-01
4.441680220e-01,6.90394e-01,9.99999e-01,9.99725e-01,6.90583e-01,9.99999e-01
4.463888621e-01,6.95453e-01,9.99999e-01,9.99714e-01,6.95651e-01,9.99999e-01
4.486208064e-01,7.00532e-01,9.99999e-01,9.99822e-01,7.00656e-01,9.99999e-01
4.508639105e-01,7.05538e-01,9.99999e-01,9.99916e-01,7.05597e-01,9.99999e-01
4.531182300e-01,7.10450e-01,9.99999e-01,9.99966e-01,7.10473e-01,9.99999e-01
4.553838212e-01,7.15271e-01,9.99999e-01,9.99977e-01,7.15287e-01,9.99999e-01
4.576607403e-01,7.20029e-01,9.99999e-01,9.99989e-01,7.20037e-01,9.99999e-01
4.599490440e-01,7.24718e-01,9.99999e-01,9.99992e-01,7.24723e-01,9.99999e-01
4.622487892e-01,7.29346e-01,9.99999e-01,9.99998e-01,7.29347e-01,9.99999e-01
4.645600332e-01,7.33904e-01,9.99999e-01,9.99994e-01,7.33908e-01,9.99999e-01
4.668828333e-01,7.38345e-01,9.99999e-01,9.99915e-01,7.38406e-01,9.99999e-01
4.692172475e-01,7.42710e-01,9.99999e-01,9.99820e-01,7.42843e-01,9.99999e-01
4.715633337e-01,7.47130e-01,9.99999e-01,9.99882e-01,7.47217e-01,9.99999e-01
4.739211504e-01,7.51447e-01,9.99999e-01,9.99887e-01,7.51531e-01,9.99999e-01
4.762907561e-01,7.55739e-01,9.99999e-01,9.99941e-01,7.55783e-01,9.99999e-01
4.786722099e-01,7.59956e-01,9.99999e-01,9.99975e-01,7.59974e-01,9.99999e-01
4.810655710e-01,7.64100e-01,9.99999e-01,9.99992e-01,7.64106e-01,9.99999e-01
4.834708988e-01,7.68125e-01,9.99999e-01,9.99931e-01,7.68177e-01,9.99999e-01
4.858882533e-01,7.72092e-01,9.99999e-01,9.99872e-01,7.72189e-01,9.99999e-01
4.883176946e-01,7.76061e-01,9.99999e-01,9.99893e-01,7.76143e-01,9.99999e-01
4.907592831e-01,7.79963e-01,9.99999e-01,9.99903e-01,7.80038e-01,9.99999e-01
4.932130795e-01,7.83821e-01,9.99999e-01,9.99931e-01,7.83874e-01,9.99999e-01
4.956791449e-01,7.87626e-01,9.99999e-01,9.99963e-01,7.87654e-01,9.99999e-01
4.981575406e-01,7.91234e-01,9.99999e-01,9.99820e-01,7.91376e-01,9.99999e-01
5.006483283e-01,7.94671e-01,9.99999e-01,9.99535e-01,7.95042e-01,9.99996e-01
5.031515699e-01,7.96750e-01,9.99999e-01,9.97642e-01,7.98652e-01,9.99974e-01
5.056673278e-01,8.01185e-01,9.99999e-01,9.98753e-01,8.02207e-01,9.99971e-01
5.081956644e-01,8.04426e-01,9.99999e-01,9.98428e-01,8.05707e-01,9.99981e-01
5.107366428e-01,8.08291e-01,9.99999e-01,9.98938e-01,8.09152e-01,9.99996e-01
5.132903260e-01,8.12050e-01,9.99999e-01,9.99392e-01,8.12544e-01,9.99999e-01
5.158567776e-01,8.15673e-01,9.99999e-01,9.99743e-01,8.15882e-01,9.99999e-01
5.184360615e-01,8.19084e-01,9.99999e-01,9.99896e-01,8.19168e-01,9.99999e-01
5.210282418e-01,8.22371e-01,9.99999e-01,9.99961e-01,8.22402e-01,9.99999e-01
5.236333830e-01,8.25457e-01,9.99999e-01,9.99845e-01,8.25584e-01,9.99998e-01
5.262515499e-01,8.28635e-01,9.99999e-01,9.99903e-01,8.28716e-01,9.99998e-01
5.288828077e-01,8.31723e-01,9.99999e-01,9.99911e-01,8.31797e-01,9.99998e-01
5.315272217e-01,8.34763e-01,9.99999e-01,9.99921e-01,8.34828e-01,9.99999e-01
5.341848578e-01,8.37768e-01,9.99999e-01,9.99948e-01,8.37811e-01,9.99999e-01
5.368557821e-01,8.40594e-01,9.99999e-01,9.99820e-01,8.40744e-01,9.99999e-01
5.395400610e-01,8.43082e-01,9.99999e-01,9.99354e-01,8.43630e-01,9.99994e-01
5.422377613e-01,8.45748e-01,9.99999e-01,9.99163e-01,8.46468e-01,9.99984e-01
5.449489501e-01,8.48587e-01,9.99999e-01,9.99223e-01,8.49260e-01,9.99983e-01
5.476736949e-01,8.51412e-01,9.99999e-01,9.99310e-01,8.52005e-01,9.99991e-01
5.504120634e-01,8.54276e-01,9.99999e-01,9.99499e-01,8.54705e-01,9.99997e-01
5.531641237e-01,8.57143e-01,9.99999e-01,9.99748e-01,8.57359e-01,9.99999e-01
5.559299443e-01,8.59865e-01,9.99999e-01,9.99878e-01,8.59969e-01,9.99999e-01
5.587095940e-01,8.62470e-01,9.99999e-01,9.99923e-01,8.62536e-01,9.99999e-01
5.615031420e-01,8.64986e-01,9.99999e-01,9.99914e-01,8.65059e-01,9.99999e-01
5.643106577e-01,8.67456e-01,9.99999e-01,9.99903e-01,8.67539e-01,9.99998e-01
5.671322110e-01,8.68958e-01,9.99999e-01,9.98837e-01,8.69978e-01,9.99989e-01
5.699678720e-01,8.71262e-01,9.99999e-01,9.98756e-01,8.72374e-01,9.99967e-01
5.728177114e-01,8.73578e-01,9.99999e-01,9.98708e-01,8.74730e-01,9.99973e-01
5.756818000e-01,8.75992e-01,9.99999e-01,9.98813e-01,8.77046e-01,9.99983e-01
5.785602090e-01,8.78408e-01,9.99999e-01,9.98965e-01,8.79322e-01,9.99994e-01
5.814530100e-01,8.80641e-01,9.99999e-01,9.98961e-01,8.81558e-01,9.99997e-01
5.843602750e-01,8.82659e-01,9.99999e-01,9.98764e-01,8.83756e-01,9.99992e-01
5.872820764e-01,8.76463e-01,9.99999e-01,9.89403e-01,8.85916e-01,9.99924e-01
5.902184868e-01,8.76432e-01,9.99999e-01,9.87132e-01,8.88038e-01,9.99795e-01
5.931695792e-01,8.81857e-01,9.99999e-01,9.90907e-01,8.90123e-01,9.99803e-01
5.961354271e-01,8.83175e-01,9.99999e-01,9.90026e-01,8.92172e-01,9.99886e-01
5.991161043e-01,8.87639e-01,9.99999e-01,9.92713e-01,8.94185e-01,9.99964e-01
6.021116848e-01,8.92448e-01,9.99999e-01,9.95858e-01,8.96163e-01,9.99995e-01
6.051222432e-01,8.96222e-01,9.99999e-01,9.97902e-01,8.98105e-01,9.99999e-01
6.081478544e-01,8.99200e-01,9.99999e-01,9.99094e-01,9.00014e-01,9.99999e-01
6.111885937e-01,9.01543e-01,9.99999e-01,9.99616e-01,9.01889e-01,9.99999e-01
6.142445367e-01,9.03576e-01,9.99999e-01,9.99828e-01,9.03730e-01,9.99999e-01
6.173157594e-01,9.05453e-01,9.99999e-01,9.99905e-01,9.05539e-01,9.99999e-01
6.204023382e-01,9.07243e-01,9.99999e-01,9.99919e-01,9.07315e-01,9.99999e-01
6.235043498e-01,9.08741e-01,9.99999e-01,9.99649e-01,9.09060e-01,9.99998e-01
6.266218716e-01,9.09069e-01,9.99999e-01,9.98141e-01,9.10774e-01,9.99986e-01
6.297549810e-01,9.11811e-01,9.99999e-01,9.99317e-01,9.12457e-01,9.99973e-01
6.329037559e-01,9.12858e-01,9.99999e-01,9.98651e-01,9.14109e-01,9.99978e-01
6.360682746e-01,9.14671e-01,9.99999e-01,9.98852e-01,9.15732e-01,9.99987e-01
6.392486160e-01,9.15957e-01,9.99999e-01,9.98512e-01,9.17326e-01,9.99994e-01
6.424448591e-01,9.17058e-01,9.99999e-01,9.98014e-01,9.18891e-01,9.99990e-01
6.456570834e-01,9.11921e-01,9.99999e-01,9.90808e-01,9.20427e-01,9.99948e-01
6.488853688e-01,9.15581e-01,9.99999e-01,9.93248e-01,9.21936e-01,9.99856e-01
6.521297956e-01,9.16956e-01,9.99999e-01,9.93119e-01,9.23417e-01,9.99881e-01
6.553904446e-01,9.18459e-01,9.99999e-01,9.93153e-01,9.24872e-01,9.99911e-01
6.586673968e-01,9.20835e-01,9.99999e-01,9.94129e-01,9.26300e-01,9.99970e-01
6.619607338e-01,9.24543e-01,9.99999e-01,9.96601e-01,9.27701e-01,9.99993e-01
6.652705375e-01,9.27246e-01,9.99999e-01,9.98031e-01,9.29078e-01,9.99996e-01
6.685968902e-01,9.29577e-01,9.99999e-01,9.99084e-01,9.30429e-01,9.99998e-01
6.719398746e-01,9.31360e-01,9.99999e-01,9.99575e-01,9.31755e-01,9.99999e-01
6.752995740e-01,9.32842e-01,9.99999e-01,9.99770e-01,9.33057e-01,9.99999e-01
6.786760719e-01,9.34025e-01,9.99999e-01,9.99668e-01,9.34334e-01,9.99999e-01
6.820694522e-01,9.35056e-01,9.99999e-01,9.99432e-01,9.35589e-01,9.99996e-01
6.854797995e-01,9.36129e-01,9.99999e-01,9.99268e-01,9.36820e-01,9.99993e-01
6.889071985e-01,9.36360e-01,9.99999e-01,9.98236e-01,9.38028e-01,9.99983e-01
6.923517345e-01,9.12348e-01,9.99999e-01,9.71528e-01,9.39214e-01,9.99861e-01
6.958134932e-01,9.26019e-01,9.99999e-01,9.85037e-01,9.40379e-01,9.99686e-01
6.992925606e-01,9.27917e-01,9.99999e-01,9.85822e-01,9.41521e-01,9.99724e-01
7.027890234e-01,9.25940e-01,9.99999e-01,9.82488e-01,9.42642e-01,9.99788e-01
7.063029686e-01,9.29729e-01,9.99999e-01,9.85254e-01,9.43743e-01,9.99894e-01
7.098344834e-01,9.31392e-01,9.99999e-01,9.85845e-01,9.44823e-01,9.99937e-01
7.133836558e-01,9.28041e-01,9.99999e-01,9.81257e-01,9.45883e-01,9.99876e-01
7.169505741e-01,8.13517e-01,9.99999e-01,8.59951e-01,9.46923e-01,9.99028e-01
7.205353270e-01,8.78484e-01,9.99999e-01,9.28316e-01,9.47943e-01,9.98286e-01
7.241380036e-01,8.62247e-01,9.99999e-01,9.09983e-01,9.48945e-01,9.98520e-01
7.277586936e-01,8.71364e-01,9.99999e-01,9.18406e-01,9.49928e-01,9.98789e-01
7.313974871e-01,8.67770e-01,9.99999e-01,9.13102e-01,9.50892e-01,9.99432e-01
7.350544745e-01,9.05506e-01,9.99999e-01,9.51510e-01,9.51838e-01,9.99802e-01
7.387297469e-01,9.18416e-01,9.99999e-01,9.64032e-01,9.52767e-01,9.99909e-01
7.424233956e-01,9.36707e-01,9.99999e-01,9.82222e-01,9.53678e-01,9.99982e-01
7.461355126e-01,9.44251e-01,9.99999e-01,9.89191e-01,9.54571e-01,9.99996e-01
7.498661902e-01,9.50623e-01,9.99999e-01,9.94950e-01,9.55448e-01,9.99998e-01
7.536155211e-01,9.53939e-01,9.99999e-01,9.97521e-01,9.56309e-01,9.99998e-01
7.573835987e-01,9.55932e-01,9.99999e-01,9.98723e-01,9.57153e-01,9.99999e-01
7.611705167e-01,9.57222e-01,9.99999e-01,9.99206e-01,9.57981e-01,9.99999e-01
7.649763693e-01,9.58318e-01,9.99999e-01,9.99502e-01,9.58794e-01,9.99999e-01
7.688012511e-01,9.59259e-01,9.99999e-01,9.99653e-01,9.59591e-01,9.99999e-01
7.726452574e-01,9.60100e-01,9.99999e-01,9.99715e-01,9.60373e-01,9.99999e-01
7.765084837e-01,9.60752e-01,9.99999e-01,9.99595e-01,9.61141e-01,9.99999e-01
7.803910261e-01,9.60215e-01,9.99999e-01,9.98256e-01,9.61893e-01,9.99997e-01
7.842929812e-01,9.56776e-01,9.99999e-01,9.93927e-01,9.62632e-01,9.99988e-01
7.882144461e-01,9.51241e-01,9.99999e-01,9.87499e-01,9.63356e-01,9.99922e-01
7.921555184e-01,9.57293e-01,9.99999e-01,9.93120e-01,9.64067e-01,9.99850e-01
7.961162960e-01,9.52959e-01,9.99999e-01,9.87904e-01,9.64764e-01,9.99857e-01
8.000968774e-01,9.51799e-01,9.99999e-01,9.86011e-01,9.65448e-01,9.99848e-01
8.040973618e-01,9.52494e-01,9.99999e-01,9.86015e-01,9.66119e-01,9.99879e-01
8.081178486e-01,9.36551e-01,9.99999e-01,9.68844e-01,9.66777e-01,9.99886e-01
8.121584379e-01,8.47990e-01,9.99999e-01,8.76934e-01,9.67422e-01,9.99556e-01
8.162192301e-01,8.26868e-01,9.99999e-01,8.55579e-01,9.68055e-01,9.98332e-01
8.203003262e-01,8.95840e-01,9.99999e-01,9.26616e-01,9.68676e-01,9.98048e-01
8.244018279e-01,8.70177e-01,9.99999e-01,8.99147e-01,9.69285e-01,9.98446e-01
8.285238370e-01,8.82397e-01,9.99999e-01,9.10908e-01,9.69883e-01,9.98779e-01
8.326664562e-01,8.82702e-01,9.99999e-01,9.10021e-01,9.70469e-01,9.99494e-01
8.368297885e-01,9.07417e-01,9.99999e-01,9.34583e-01,9.71043e-01,9.99884e-01
8.410139374e-01,9.33227e-01,9.99999e-01,9.60562e-01,9.71607e-01,9.99932e-01
8.452190071e-01,9.53114e-01,9.99999e-01,9.80447e-01,9.72160e-01,9.99959e-01
8.494451021e-01,9.61600e-01,9.99999e-01,9.88617e-01,9.72702e-01,9.99967e-01
8.536923276e-01,9.66646e-01,9.99999e-01,9.93249e-01,9.73234e-01,9.99979e-01
8.579607893e-01,9.69702e-01,9.99999e-01,9.95840e-01,9.73756e-01,9.99994e-01
8.622505932e-01,9.71690e-01,9.99999e-01,9.97354e-01,9.74268e-01,9.99998e-01
8.665618462e-01,9.73175e-01,9.99999e-01,9.98364e-01,9.74769e-01,9.99999e-01
8.708946554e-01,9.73436e-01,9.99999e-01,9.98128e-01,9.75261e-01,9.99998e-01
8.752491287e-01,9.73299e-01,9.99999e-01,9.97496e-01,9.75744e-01,9.99996e-01
8.796253743e-01,9.72830e-01,9.99999e-01,9.96536e-01,9.76217e-01,9.99991e-01
8.840235012e-01,9.72795e-01,9.99999e-01,9.96044e-01,9.76682e-01,9.99975e-01
8.884436187e-01,9.63138e-01,9.99999e-01,9.85740e-01,9.77137e-01,9.99930e-01
8.928858368e-01,8.40640e-01,9.99999e-01,8.60256e-01,9.77583e-01,9.99603e-01
8.973502660e-01,7.48234e-01,9.99999e-01,7.66603e-01,9.78021e-01,9.97972e-01
9.018370173e-01,8.51444e-01,9.99999e-01,8.72977e-01,9.78451e-01,9.96813e-01
9.063462024e-01,8.66156e-01,9.99999e-01,8.87334e-01,9.78872e-01,9.97200e-01
9.108779334e-01,8.10324e-01,9.99999e-01,8.29878e-01,9.79285e-01,9.97091e-01
9.154323231e-01,7.90161e-01,9.99999e-01,8.08485e-01,9.79690e-01,9.97594e-01
9.200094847e-01,8.28973e-01,9.99999e-01,8.46956e-01,9.80087e-01,9.98653e-01
9.246095321e-01,7.61806e-01,9.99999e-01,7.78182e-01,9.80476e-01,9.98448e-01
9.292325798e-01,1.99992e-01,9.99999e-01,2.05133e-01,9.80858e-01,9.93962e-01
9.338787427e-01,1.22951e-01,9.99999e-01,1.28479e-01,9.81233e-01,9.75279e-01
9.385481364e-01,4.12916e-01,9.99999e-01,4.33367e-01,9.81600e-01,9.70667e-01
9.432408771e-01,3.13086e-01,9.99999e-01,3.27133e-01,9.81960e-01,9.74642e-01
9.479570815e-01,2.05076e-01,9.99999e-01,2.13179e-01,9.82313e-01,9.79313e-01
9.526968669e-01,2.92899e-01,9.99999e-01,3.01891e-01,9.82660e-01,9.87330e-01
9.574603512e-01,3.11939e-01,9.99999e-01,3.19396e-01,9.82999e-01,9.93544e-01
9.622476530e-01,3.80480e-01,9.99999e-01,3.88665e-01,9.83332e-01,9.95531e-01
9.670588912e-01,5.65977e-01,9.99999e-01,5.77143e-01,9.83659e-01,9.96941e-01
9.718941857e-01,6.90446e-01,9.99999e-01,7.03271e-01,9.83979e-01,9.97747e-01
9.767536566e-01,7.33297e-01,9.99999e-01,7.46282e-01,9.84293e-01,9.98278e-01
9.816374249e-01,7.91263e-01,9.99999e-01,8.04117e-01,9.84601e-01,9.99403e-01
9.865456120e-01,8.59037e-01,9.99999e-01,8.72312e-01,9.84902e-01,9.99875e-01
9.914783401e-01,9.05248e-01,9.99999e-01,9.18879e-01,9.85198e-01,9.99965e-01
9.964357318e-01,9.41088e-01,9.99999e-01,9.54964e-01,9.85489e-01,9.99979e-01
1.001417910e+00,9.58879e-01,9.99999e-01,9.72747e-01,9.85773e-01,9.99968e-01
1.006425000e+00,9.70605e-01,9.99999e-01,9.84377e-01,9.86052e-01,9.99955e-01
1.011457125e+00,9.76691e-01,9.99999e-01,9.90271e-01,9.86326e-01,9.99958e-01
1.016514411e+00,9.80042e-01,9.99999e-01,9.93386e-01,9.86594e-01,9.99970e-01
1.021596983e+00,9.81627e-01,9.99999e-01,9.94728e-01,9.86857e-01,9.99970e-01
1.026704968e+00,9.83036e-01,9.99999e-01,9.95886e-01,9.87115e-01,9.99980e-01
1.031838492e+00,9.84409e-01,9.99999e-01,9.97007e-01,9.87368e-01,9.99994e-01
1.036997685e+00,9.85860e-01,9.99999e-01,9.98222e-01,9.87616e-01,9.99998e-01
1.042182673e+00,9.85768e-01,9.99999e-01,9.97882e-01,9.87859e-01,9.99999e-01
1.047393587e+00,9.85323e-01,9.99999e-01,9.97192e-01,9.88097e-01,9.99998e-01
1.052630555e+00,9.84525e-01,9.99999e-01,9.96149e-01,9.88331e-01,9.99998e-01
1.057893707e+00,9.82214e-01,9.99999e-01,9.93582e-01,9.88560e-01,9.99997e-01
1.063183176e+00,9.78357e-01,9.99999e-01,9.89458e-01,9.88785e-01,9.99993e-01
1.068499092e+00,9.71594e-01,9.99999e-01,9.82406e-01,9.89005e-01,9.99987e-01
1.073841587e+00,9.68885e-01,9.99999e-01,9.79467e-01,9.89221e-01,9.99973e-01
1.079210795e+00,9.63371e-01,9.99999e-01,9.73727e-01,9.89433e-01,9.99928e-01
1.084606849e+00,9.50430e-01,9.99999e-01,9.60541e-01,9.89640e-01,9.99829e-01
1.090029883e+00,9.34054e-01,9.99999e-01,9.43970e-01,9.89844e-01,9.99646e-01
1.095480033e+00,8.45612e-01,9.99999e-01,8.54662e-01,9.90044e-01,9.99360e-01
1.100957433e+00,6.66226e-01,9.99999e-01,6.73585e-01,9.90239e-01,9.98823e-01
1.106462220e+00,3.74906e-01,9.99999e-01,3.79284e-01,9.90431e-01,9.98004e-01
1.111994531e+00,1.34397e-01,9.99999e-01,1.36391e-01,9.90619e-01,9.94712e-01
1.117554504e+00,4.27695e-02,9.99999e-01,4.40006e-02,9.90804e-01,9.81043e-01
1.123142276e+00,1.10290e-01,9.99999e-01,1.16460e-01,9.90984e-01,9.55629e-01
1.128757988e+00,2.12542e-01,9.99999e-01,2.25996e-01,9.91162e-01,9.48851e-01
1.134401778e+00,9.48077e-02,9.99999e-01,1.00002e-01,9.91336e-01,9.56337e-01
1.140073787e+00,3.79155e-01,9.99999e-01,3.96289e-01,9.91506e-01,9.64958e-01
1.145774156e+00,1.56101e-01,9.99999e-01,1.62636e-01,9.91673e-01,9.67876e-01
1.151503026e+00,1.31195e-01,9.99999e-01,1.34702e-01,9.91837e-01,9.81975e-01
1.157260541e+00,1.65120e-01,9.99999e-01,1.67360e-01,9.91997e-01,9.94575e-01
1.163046844e+00,2.60809e-01,9.99999e-01,2.63277e-01,9.92155e-01,9.98459e-01
1.168862078e+00,3.82234e-01,9.99999e-01,3.85502e-01,9.92309e-01,9.99205e-01
1.174706389e+00,5.49614e-01,9.99999e-01,5.54372e-01,9.92460e-01,9.98947e-01
1.180579921e+00,6.90544e-01,9.99999e-01,6.96794e-01,9.92609e-01,9.98409e-01
1.186482820e+00,8.07058e-01,9.99999e-01,8.14277e-01,9.92754e-01,9.98367e-01
1.192415234e+00,8.79387e-01,9.99999e-01,8.86761e-01,9.92897e-01,9.98776e-01
1.198377311e+00,8.96422e-01,9.99999e-01,9.03751e-01,9.93037e-01,9.98844e-01
1.204369197e+00,9.01761e-01,9.99999e-01,9.08908e-01,9.93174e-01,9.98954e-01
1.210391043e+00,9.05875e-01,9.99999e-01,9.12557e-01,9.93308e-01,9.99363e-01
1.216442998e+00,9.18655e-01,9.99999e-01,9.25080e-01,9.93440e-01,9.99610e-01
1.222525213e+00,9.34823e-01,9.99999e-01,9.41100e-01,9.93569e-01,9.99757e-01
1.228637839e+00,9.52566e-01,9.99999e-01,9.58716e-01,9.93696e-01,9.99887e-01
1.234781029e+00,9.63156e-01,9.99999e-01,9.69176e-01,9.93820e-01,9.99967e-01
1.240954934e+00,9.74454e-01,9.99999e-01,9.80401e-01,9.93941e-01,9.99990e-01
1.247159708e+00,9.78847e-01,9.99999e-01,9.84700e-01,9.94061e-01,9.99993e-01
1.253395507e+00,9.80660e-01,9.99999e-01,9.86410e-01,9.94178e-01,9.99991e-01
1.259662485e+00,9.81448e-01,9.99999e-01,9.87093e-01,9.94292e-01,9.99987e-01
1.265960797e+00,9.73948e-01,9.99999e-01,9.79447e-01,9.94405e-01,9.99979e-01
1.272290601e+00,9.62596e-01,9.99999e-01,9.67939e-01,9.94515e-01,9.99964e-01
1.278652054e+00,9.32266e-01,9.99999e-01,9.37364e-01,9.94623e-01,9.99936e-01
1.285045314e+00,8.98659e-01,9.99999e-01,9.03526e-01,9.94729e-01,9.99882e-01
1.291470541e+00,8.11543e-01,9.99999e-01,8.15925e-01,9.94833e-01,9.99793e-01
1.297927893e+00,7.63594e-01,9.99999e-01,7.67775e-01,9.94934e-01,9.99615e-01
1.304417533e+00,7.08448e-01,9.99999e-01,7.12562e-01,9.95034e-01,9.99186e-01
1.310939621e+00,6.74342e-01,9.99999e-01,6.78773e-01,9.95132e-01,9.98330e-01
1.317494319e+00,6.51934e-01,9.99999e-01,6.57087e-01,9.95228e-01,9.96914e-01
1.324081790e+00,5.33407e-01,9.99999e-01,5.38624e-01,9.95322e-01,9.94967e-01
1.330702199e+00,1.51940e-01,9.99999e-01,1.53974e-01,9.95414e-01,9.91337e-01
1.337355710e+00,3.92180e-03,9.99999e-01,4.00606e-03,9.95505e-01,9.83385e-01
1.344042489e+00,7.46197e-05,9.99999e-01,7.88291e-05,9.95593e-01,9.50789e-01
1.350762701e+00,9.85787e-13,9.99999e-01,1.17678e-12,9.95680e-01,8.41329e-01
1.357516515e+00,8.84567e-19,9.99999e-01,1.47496e-18,9.95765e-01,6.02271e-01
1.364304097e+00,5.40312e-12,9.99999e-01,1.31942e-11,9.95849e-01,4.11215e-01
1.371125618e+00,7.81509e-08,9.99999e-01,1.81368e-07,9.95930e-01,4.32657e-01
1.377981246e+00,2.90891e-07,9.99999e-01,5.98908e-07,9.96011e-01,4.87646e-01
1.384871152e+00,3.28984e-10,9.99999e-01,6.44920e-10,9.96089e-01,5.12117e-01
1.391795508e+00,5.84907e-12,9.99999e-01,1.11119e-11,9.96166e-01,5.28404e-01
1.398754485e+00,1.66546e-09,9.99999e-01,2.83146e-09,9.96242e-01,5.90417e-01
1.405748258e+00,2.35935e-09,9.99999e-01,3.22236e-09,9.96316e-01,7.34887e-01
1.412776999e+00,3.37252e-09,9.99999e-01,3.89587e-09,9.96389e-01,8.68800e-01
1.419840884e+00,7.00409e-09,9.99999e-01,7.47606e-09,9.96460e-01,9.40195e-01
1.426940089e+00,1.86847e-06,9.99998e-01,1.96491e-06,9.96529e-01,9.54230e-01
1.434074789e+00,1.73996e-05,9.99999e-01,1.84514e-05,9.96598e-01,9.46216e-01
1.441245163e+00,1.24983e-04,9.99999e-01,1.33140e-04,9.96665e-01,9.41876e-01
1.448451389e+00,2.08610e-03,9.99998e-01,2.20561e-03,9.96731e-01,9.48919e-01
1.455693646e+00,1.46000e-02,9.99999e-01,1.52569e-02,9.96795e-01,9.60023e-01
1.462972114e+00,2.16155e-02,9.99999e-01,2.25440e-02,9.96858e-01,9.61837e-01
1.470286975e+00,1.20946e-02,9.99999e-01,1.26050e-02,9.96920e-01,9.62475e-01
