#,Wave/freq,Total,N2,H2O,Rayleigh,CIA
4.000000000e-01,3.04913e-02,9.99999e-01,9.99606e-01,3.05033e-02,9.99999e-01
4.020000000e-01,3.26746e-02,9.99999e-01,9.99755e-01,3.26825e-02,9.99999e-01
4.040100000e-01,3.49637e-02,9.99999e-01,9.99896e-01,3.49673e-02,9.99999e-01
4.060300500e-01,3.73609e-02,9.99999e-01,9.99975e-01,3.73618e-02,9.99999e-01
4.080602003e-01,3.98679e-02,9.99999e-01,9.99991e-01,3.98682e-02,9.99999e-01
4.101005013e-01,4.24881e-02,9.99999e-01,9.99998e-01,4.24881e-02,9.99999e-01
4.121510038e-01,4.52227e-02,9.99999e-01,9.99985e-01,4.52233e-02,9.99999e-01
4.142117588e-01,4.80701e-02,9.99999e-01,9.99891e-01,4.80753e-02,9.99999e-01
4.162828176e-01,5.10206e-02,9.99999e-01,9.99512e-01,5.10455e-02,9.99999e-01
4.183642317e-01,5.41194e-02,9.99999e-01,9.99709e-01,5.41351e-02,9.99999e-01
4.204560528e-01,5.73348e-02,9.99999e-01,9.99821e-01,5.73450e-02,9.99999e-01
4.225583331e-01,6.06722e-02,9.99999e-01,9.99933e-01,6.06762e-02,9.99999e-01
4.246711247e-01,6.41260e-02,9.99999e-01,9.99946e-01,6.41293e-02,9.99999e-01
4.267944804e-01,6.76997e-02,9.99999e-01,9.99921e-01,6.77049e-02,9.99999e-01
4.289284528e-01,7.13990e-02,9.99999e-01,9.99939e-01,7.14033e-02,9.99999e-01
4.310730950e-01,7.52228e-02,9.99999e-01,9.99973e-01,7.52247e-02,9.99999e-01
4.332284605e-01,7.91684e-02,9.99999e-01,9.99992e-01,7.91690e-02,9.99999e-01
4.353946028e-01,8.32358e-02,9.99999e-01,9.99996e-01,8.32360e-02,9.99999e-01
4.375715758e-01,8.74212e-02,9.99999e-01,9.99951e-01,8.74254e-02,9.99999e-01
4.397594337e-01,9.16975e-02,9.99999e-01,9.99572e-01,9.17367e-02,9.99999e-01
4.419582309e-01,9.59603e-02,9.99999e-01,9.97829e-01,9.61691e-02,9.99999e-01
4.441680220e-01,1.00551e-01,9.99999e-01,9.98303e-01,1.00722e-01,9.99999e-01
4.463888621e-01,1.05207e-01,9.99999e-01,9.98234e-01,1.05393e-01,9.99999e-01
4.486208064e-01,1.10062e-01,9.99999e-01,9.98903e-01,1.10183e-01,9.99999e-01
4.508639105e-01,1.15031e-01,9.99999e-01,9.99486e-01,1.15090e-01,9.99999e-01
4.531182300e-01,1.20087e-01,9.99999e-01,9.99796e-01,1.20111e-01,9.99999e-01
4.553838212e-01,1.25229e-01,9.99999e-01,9.99862e-01,1.25246e-01,9.99999e-01
4.576607403e-01,1.30484e-01,9.99999e-01,9.99936e-01,1.30492e-01,9.99999e-01
4.599490440e-01,1.35842e-01,9.99999e-01,9.99954e-01,1.35848e-01,9.99999e-01
4.622487892e-01,1.41311e-01,9.99999e-01,9.99991e-01,1.41312e-01,9.99999e-01
4.645600332e-01,1.46876e-01,9.99999e-01,9.99968e-01,1.46881e-01,9.99999e-01
4.668828333e-01,1.52473e-01,9.99999e-01,9.99480e-01,1.52552e-01,9.99999e-01
4.692172475e-01,1.58149e-01,9.99999e-01,9.98892e-01,1.58325e-01,9.99999e-01
4.715633337e-01,1.64076e-01,9.99999e-01,9.99275e-01,1.64195e-01,9.99999e-01
4.739211504e-01,1.70042e-01,9.99999e-01,9.99306e-01,1.70160e-01,9.99999e-01
4.762907561e-01,1.76155e-01,9.99999e-01,9.99640e-01,1.76218e-01,9.99999e-01
4.786722099e-01,1.82339e-01,9.99999e-01,9.99852e-01,1.82366e-01,9.99999e-01
4.810655710e-01,1.88591e-01,9.99999e-01,9.99955e-01,1.88600e-01,9.99999e-01
4.834708988e-01,1.94835e-01,9.99999e-01,9.99576e-01,1.94918e-01,9.99999e-01
4.858882533e-01,2.01158e-01,9.99999e-01,9.99215e-01,2.01316e-01,9.99999e-01
4.883176946e-01,2.07655e-01,9.99999e-01,9.99343e-01,2.07792e-01,9.99999e-01
4.907592831e-01,2.14215e-01,9.99999e-01,9.99406e-01,2.14342e-01,9.99999e-01
4.932130795e-01,2.20870e-01,9.99999e-01,9.99578e-01,2.20963e-01,9.99999e-01
4.956791449e-01,2.27601e-01,9.99999e-01,9.99777e-01,2.27651e-01,9.99999e-01
4.981575406e-01,2.34144e-01,9.99999e-01,9.98887e-01,2.34404e-01,9.99999e-01
5.006483283e-01,2.40519e-01,9.99999e-01,9.97120e-01,2.41219e-01,9.99980e-01
5.031515699e-01,2.44457e-01,9.99999e-01,9.85507e-01,2.48090e-01,9.99846e-01
5.056673278e-01,2.53011e-01,9.99999e-01,9.92309e-01,2.55016e-01,9.99824e-01
5.081956644e-01,2.59423e-01,9.99999e-01,9.90303e-01,2.61993e-01,9.99886e-01
5.107366428e-01,2.67248e-01,9.99999e-01,9.93446e-01,2.69017e-01,9.99978e-01
5.132903260e-01,2.75049e-01,9.99999e-01,9.96250e-01,2.76085e-01,9.99997e-01
5.158567776e-01,2.82745e-01,9.99999e-01,9.98415e-01,2.83194e-01,9.99999e-01
5.184360615e-01,2.90156e-01,9.99999e-01,9.99365e-01,2.90340e-01,9.99999e-01
5.210282418e-01,2.97449e-01,9.99999e-01,9.99762e-01,2.97519e-01,9.99999e-01
5.236333830e-01,3.04437e-01,9.99999e-01,9.99046e-01,3.04730e-01,9.99992e-01
5.262515499e-01,3.11778e-01,9.99999e-01,9.99402e-01,3.11967e-01,9.99990e-01
5.288828077e-01,3.19052e-01,9.99999e-01,9.99452e-01,3.19228e-01,9.99993e-01
5.315272217e-01,3.26353e-01,9.99999e-01,9.99519e-01,3.26510e-01,9.99998e-01
5.341848578e-01,3.33704e-01,9.99999e-01,9.99685e-01,3.33809e-01,9.99999e-01
5.368557821e-01,3.40743e-01,9.99999e-01,9.98890e-01,3.41122e-01,9.99996e-01
5.395400610e-01,3.47043e-01,9.99999e-01,9.96003e-01,3.48447e-01,9.99966e-01
5.422377613e-01,3.53907e-01,9.99999e-01,9.94831e-01,3.55779e-01,9.99906e-01
5.449489501e-01,3.61336e-01,9.99999e-01,9.95193e-01,3.63116e-01,9.99902e-01
5.476736949e-01,3.68861e-01,9.99999e-01,9.95742e-01,3.70455e-01,9.99952e-01
5.504120634e-01,3.76621e-01,9.99999e-01,9.96909e-01,3.77793e-01,9.99986e-01
5.531641237e-01,3.84528e-01,9.99999e-01,9.98444e-01,3.85128e-01,9.99997e-01
5.559299443e-01,3.92161e-01,9.99999e-01,9.99249e-01,3.92455e-01,9.99999e-01
5.587095940e-01,3.99585e-01,9.99999e-01,9.99529e-01,3.99773e-01,9.99999e-01
5.615031420e-01,4.06865e-01,9.99999e-01,9.99475e-01,4.07079e-01,9.99998e-01
5.643106577e-01,4.14122e-01,9.99999e-01,9.99405e-01,4.14370e-01,9.99994e-01
5.671322110e-01,4.18589e-01,9.99999e-01,9.92818e-01,4.21644e-01,9.99935e-01
5.699678720e-01,4.25531e-01,9.99999e-01,9.92343e-01,4.28898e-01,9.99803e-01
5.728177114e-01,4.32578e-01,9.99999e-01,9.92016e-01,4.36130e-01,9.99836e-01
5.756818000e-01,4.40045e-01,9.99999e-01,9.92671e-01,4.43338e-01,9.99899e-01
5.785602090e-01,4.47628e-01,9.99999e-01,9.93613e-01,4.50518e-01,9.99969e-01
5.814530100e-01,4.54729e-01,9.99999e-01,9.93585e-01,4.57670e-01,9.99985e-01
5.843602750e-01,4.61223e-01,9.99999e-01,9.92366e-01,4.64791e-01,9.99956e-01
5.872820764e-01,4.41861e-01,9.99999e-01,9.36821e-01,4.71878e-01,9.99536e-01
5.902184868e-01,4.41565e-01,9.99999e-01,9.23144e-01,4.78931e-01,9.98737e-01
5.931695792e-01,4.58875e-01,9.99999e-01,9.45438e-01,4.85946e-01,9.98785e-01
5.961354271e-01,4.63060e-01,9.99999e-01,9.40073e-01,4.92922e-01,9.99301e-01
5.991161043e-01,4.77667e-01,9.99999e-01,9.55811e-01,4.99858e-01,9.99783e-01
6.021116848e-01,4.93908e-01,9.99999e-01,9.74677e-01,5.06752e-01,9.99975e-01
6.051222432e-01,5.06978e-01,9.99999e-01,9.87104e-01,5.13602e-01,9.99998e-01
6.081478544e-01,5.17502e-01,9.99999e-01,9.94418e-01,5.20406e-01,9.99999e-01
6.111885937e-01,5.25917e-01,9.99999e-01,9.97635e-01,5.27163e-01,9.99999e-01
6.142445367e-01,5.33309e-01,9.99999e-01,9.98943e-01,5.33872e-01,9.99999e-01
6.173157594e-01,5.40217e-01,9.99999e-01,9.99417e-01,5.40532e-01,9.99999e-01
6.204023382e-01,5.46871e-01,9.99999e-01,9.99506e-01,5.47140e-01,9.99998e-01
6.235043498e-01,5.52492e-01,9.99999e-01,9.97828e-01,5.53697e-01,9.99994e-01
6.266218716e-01,5.53739e-01,9.99999e-01,9.88546e-01,5.60200e-01,9.99918e-01
6.297549810e-01,5.64169e-01,9.99999e-01,9.95784e-01,5.66649e-01,9.99838e-01
6.329037559e-01,5.68199e-01,9.99999e-01,9.91676e-01,5.73042e-01,9.99870e-01
6.360682746e-01,5.75228e-01,9.99999e-01,9.92911e-01,5.79379e-01,9.99923e-01
6.392486160e-01,5.80263e-01,9.99999e-01,9.90819e-01,5.85659e-01,9.99965e-01
6.424448591e-01,5.84600e-01,9.99999e-01,9.87751e-01,5.91881e-01,9.99945e-01
6.456570834e-01,5.64738e-01,9.99999e-01,9.44605e-01,5.98044e-01,9.99683e-01
6.488853688e-01,5.78987e-01,9.99999e-01,9.59201e-01,6.04148e-01,9.99114e-01
6.521297956e-01,5.84473e-01,9.99999e-01,9.58552e-01,6.10192e-01,9.99268e-01
6.553904446e-01,5.90215e-01,9.99999e-01,9.58390e-01,6.16175e-01,9.99455e-01
6.586673968e-01,5.99814e-01,9.99999e-01,9.64355e-01,6.22097e-01,9.99817e-01
6.619607338e-01,6.14862e-01,9.99999e-01,9.79185e-01,6.27957e-01,9.99960e-01
6.652705375e-01,6.26070e-01,9.99999e-01,9.87893e-01,6.33754e-01,9.99979e-01
6.685968902e-01,6.35880e-01,9.99999e-01,9.94357e-01,6.39490e-01,9.99996e-01
6.719398746e-01,6.43474e-01,9.99999e-01,9.97383e-01,6.45162e-01,9.99999e-01
6.752995740e-01,6.49848e-01,9.99999e-01,9.98581e-01,6.50771e-01,9.99999e-01
6.786760719e-01,6.54971e-01,9.99999e-01,9.97950e-01,6.56317e-01,9.99996e-01
6.820694522e-01,6.59466e-01,9.99999e-01,9.96491e-01,6.61799e-01,9.99981e-01
6.854797995e-01,6.64173e-01,9.99999e-01,9.95475e-01,6.67217e-01,9.99960e-01
6.889071985e-01,6.65198e-01,9.99999e-01,9.89133e-01,6.72571e-01,9.99901e-01
6.923517345e-01,5.68025e-01,9.99999e-01,8.38683e-01,6.77861e-01,9.99143e-01
6.958134932e-01,6.22342e-01,9.99999e-01,9.12801e-01,6.83087e-01,9.98104e-01
6.992925606e-01,6.29334e-01,9.99999e-01,9.15962e-01,6.88249e-01,9.98291e-01
7.027890234e-01,6.21254e-01,9.99999e-01,8.97192e-01,6.93347e-01,9.98695e-01
7.063029686e-01,6.36805e-01,9.99999e-01,9.12422e-01,6.98381e-01,9.99350e-01
7.098344834e-01,6.43800e-01,9.99999e-01,9.15684e-01,7.03351e-01,9.99615e-01
7.133836558e-01,6.30467e-01,9.99999e-01,8.90847e-01,7.08256e-01,9.99236e-01
7.169505741e-01,3.07036e-01,9.99999e-01,4.33160e-01,7.13099e-01,9.94008e-01
7.205353270e-01,4.62312e-01,9.99999e-01,6.50862e-01,7.17877e-01,9.89453e-01
7.241380036e-01,4.12649e-01,9.99999e-01,5.76319e-01,7.22593e-01,9.90886e-01
7.277586936e-01,4.39599e-01,9.99999e-01,6.09012e-01,7.27245e-01,9.92543e-01
7.313974871e-01,4.24777e-01,9.99999e-01,5.82465e-01,7.31835e-01,9.96500e-01
7.350544745e-01,5.44788e-01,9.99999e-01,7.40739e-01,7.36362e-01,9.98782e-01
7.387297469e-01,5.91935e-01,9.99999e-01,7.99466e-01,7.40826e-01,9.99441e-01
7.424233956e-01,6.67326e-01,9.99999e-01,8.95560e-01,7.45229e-01,9.99891e-01
7.461355126e-01,7.00983e-01,9.99999e-01,9.35196e-01,7.49570e-01,9.99980e-01
7.498661902e-01,7.30665e-01,9.99999e-01,9.69249e-01,7.53850e-01,9.99992e-01
7.536155211e-01,7.46535e-01,9.99999e-01,9.84788e-01,7.58070e-01,9.99995e-01
7.573835987e-01,7.56238e-01,9.99999e-01,9.92141e-01,7.62228e-01,9.99998e-01
7.611705167e-01,7.62581e-01,9.99999e-01,9.95110e-01,7.66327e-01,9.99999e-01
7.649763693e-01,7.68004e-01,9.99999e-01,9.96933e-01,7.70366e-01,9.99999e-01
7.688012511e-01,7.72692e-01,9.99999e-01,9.97863e-01,7.74346e-01,9.99999e-01
7.726452574e-01,7.76899e-01,9.99999e-01,9.98241e-01,7.78268e-01,9.99998e-01
7.765084837e-01,7.80176e-01,9.99999e-01,9.97502e-01,7.82131e-01,9.99996e-01
7.803910261e-01,7.77483e-01,9.99999e-01,9.89252e-01,7.85937e-01,9.99989e-01
7.842929812e-01,7.60472e-01,9.99999e-01,9.63072e-01,7.89685e-01,9.99930e-01
7.882144461e-01,7.33754e-01,9.99999e-01,9.25288e-01,7.93377e-01,9.99524e-01
7.921555184e-01,7.63133e-01,9.99999e-01,9.58371e-01,7.97012e-01,9.99081e-01
7.961162960e-01,7.42150e-01,9.99999e-01,9.27816e-01,8.00592e-01,9.99119e-01
8.000968774e-01,7.36309e-01,9.99999e-01,9.16531e-01,8.04117e-01,9.99063e-01
8.040973618e-01,7.39759e-01,9.99999e-01,9.16692e-01,8.07587e-01,9.99255e-01
8.081178486e-01,6.68738e-01,9.99999e-01,8.25156e-01,8.11003e-01,9.99302e-01
8.121584379e-01,3.79289e-01,9.99999e-01,4.67026e-01,8.14366e-01,9.97260e-01
8.162192301e-01,3.31822e-01,9.99999e-01,4.10019e-01,8.17676e-01,9.89737e-01
8.203003262e-01,5.35652e-01,9.99999e-01,6.60420e-01,8.20933e-01,9.87993e-01
8.244018279e-01,4.74001e-01,9.99999e-01,5.80702e-01,8.24139e-01,9.90433e-01
8.285238370e-01,4.72552e-01,9.99999e-01,5.75530e-01,8.27294e-01,9.92478e-01
8.326664562e-01,4.76246e-01,9.99999e-01,5.75308e-01,8.30398e-01,9.96882e-01
8.368297885e-01,5.53542e-01,9.99999e-01,6.64630e-01,8.33452e-01,9.99286e-01
8.410139374e-01,6.54210e-01,9.99999e-01,7.82446e-01,8.36456e-01,9.99582e-01
8.452190071e-01,7.43298e-01,9.99999e-01,8.85718e-01,8.39412e-01,9.99750e-01
8.494451021e-01,7.84656e-01,9.99999e-01,9.31727e-01,8.42319e-01,9.99799e-01
8.536923276e-01,8.10461e-01,9.99999e-01,9.59037e-01,8.45179e-01,9.99878e-01
8.579607893e-01,8.26399e-01,9.99999e-01,9.74563e-01,8.47992e-01,9.99970e-01
8.622505932e-01,8.36939e-01,9.99999e-01,9.83761e-01,8.50758e-01,9.99994e-01
8.665618462e-01,8.44880e-01,9.99999e-01,9.89927e-01,8.53479e-01,9.99996e-01
8.708946554e-01,8.46281e-01,9.99999e-01,9.88474e-01,8.56154e-01,9.99993e-01
8.752491287e-01,8.45549e-01,9.99999e-01,9.84604e-01,8.58784e-01,9.99983e-01
8.796253743e-01,8.43030e-01,9.99999e-01,9.78753e-01,8.61370e-01,9.99951e-01
8.840235012e-01,8.42869e-01,9.99999e-01,9.75785e-01,8.63913e-01,9.99850e-01
8.884436187e-01,7.94262e-01,9.99999e-01,9.17112e-01,8.66413e-01,9.99575e-01
8.928858368e-01,3.74783e-01,9.99999e-01,4.32402e-01,8.68870e-01,9.97554e-01
8.973502660e-01,1.99751e-01,9.99999e-01,2.32155e-01,8.71286e-01,9.87529e-01
9.018370173e-01,4.05753e-01,9.99999e-01,4.73682e-01,8.73661e-01,9.80462e-01
9.063462024e-01,4.40010e-01,9.99999e-01,5.11079e-01,8.75995e-01,9.82816e-01
9.108779334e-01,3.04183e-01,9.99999e-01,3.52630e-01,8.78288e-01,9.82150e-01
9.154323231e-01,2.57436e-01,9.99999e-01,2.96745e-01,8.80543e-01,9.85223e-01
9.200094847e-01,3.44696e-01,9.99999e-01,3.93743e-01,8.82758e-01,9.91702e-01
9.246095321e-01,2.32293e-01,9.99999e-01,2.65029e-01,8.84935e-01,9.90445e-01
9.292325798e-01,4.52426e-03,9.99999e-01,5.29476e-03,8.87075e-01,9.63252e-01
9.338787427e-01,9.19781e-05,9.99999e-01,1.20758e-04,8.89177e-01,8.56607e-01
9.385481364e-01,1.76087e-02,9.99999e-01,2.37507e-02,8.91242e-01,8.31866e-01
9.432408771e-01,6.64562e-03,9.99999e-01,8.72013e-03,8.93271e-01,8.53157e-01
9.479570815e-01,4.29973e-04,9.99999e-01,5.46540e-04,8.95265e-01,8.78753e-01
9.526968669e-01,2.18913e-03,9.99999e-01,2.64003e-03,8.97223e-01,9.24192e-01
9.574603512e-01,3.27374e-03,9.99999e-01,3.78969e-03,8.99147e-01,9.60746e-01
9.622476530e-01,8.47512e-03,9.99999e-01,9.67004e-03,9.01037e-01,9.72689e-01
9.670588912e-01,5.58815e-02,9.99999e-01,6.30747e-02,9.02894e-01,9.81241e-01
9.718941857e-01,1.19782e-01,9.99999e-01,1.34255e-01,9.04718e-01,9.86156e-01
9.767536566e-01,1.68351e-01,9.99999e-01,1.87703e-01,9.06509e-01,9.89403e-01
9.816374249e-01,2.49845e-01,9.99999e-01,2.76094e-01,9.08268e-01,9.96320e-01
9.865456120e-01,3.99528e-01,9.99999e-01,4.39381e-01,9.09996e-01,9.99232e-01
9.914783401e-01,5.43655e-01,9.99999e-01,5.96440e-01,9.11693e-01,9.99786e-01
9.964357318e-01,6.88671e-01,9.99999e-01,7.54091e-01,9.13359e-01,9.99875e-01
1.001417910e+00,7.71769e-01,9.99999e-01,8.43626e-01,9.14995e-01,9.99809e-01
1.006425000e+00,8.31443e-01,9.99999e-01,9.07337e-01,9.16602e-01,9.99728e-01
1.011457125e+00,8.64192e-01,9.99999e-01,9.41436e-01,9.18180e-01,9.99748e-01
1.016514411e+00,8.82623e-01,9.99999e-01,9.59824e-01,9.19730e-01,9.99822e-01
1.021596983e+00,8.91476e-01,9.99999e-01,9.67851e-01,9.21251e-01,9.99821e-01
1.026704968e+00,8.99412e-01,9.99999e-01,9.74829e-01,9.22745e-01,9.99880e-01
1.031838492e+00,9.07220e-01,9.99999e-01,9.81647e-01,9.24212e-01,9.99966e-01
1.036997685e+00,9.15520e-01,9.99999e-01,9.89059e-01,9.25651e-01,9.99994e-01
1.042182673e+00,9.14985e-01,9.99999e-01,9.86970e-01,9.27065e-01,9.99997e-01
1.047393587e+00,9.12440e-01,9.99999e-01,9.82755e-01,9.28453e-01,9.99996e-01
1.052630555e+00,9.07885e-01,9.99999e-01,9.76419e-01,9.29815e-01,9.99993e-01
1.057893707e+00,8.94816e-01,9.99999e-01,9.60989e-01,9.31153e-01,9.99985e-01
1.063183176e+00,8.73473e-01,9.99999e-01,9.36766e-01,9.32466e-01,9.99965e-01
1.068499092e+00,8.37187e-01,9.99999e-01,8.96647e-01,9.33754e-01,9.99925e-01
1.073841587e+00,8.23735e-01,9.99999e-01,8.81123e-01,9.35019e-01,9.99838e-01
1.079210795e+00,7.95063e-01,9.99999e-01,8.49561e-01,9.36261e-01,9.99561e-01
1.084606849e+00,7.33116e-01,9.99999e-01,7.82832e-01,9.37480e-01,9.98945e-01
1.090029883e+00,6.62590e-01,9.99999e-01,7.07421e-01,9.38676e-01,9.97816e-01
1.095480033e+00,3.68137e-01,9.99999e-01,3.93249e-01,9.39850e-01,9.96053e-01
1.100957433e+00,1.04610e-01,9.99999e-01,1.11981e-01,9.41003e-01,9.92747e-01
1.106462220e+00,8.26569e-03,9.99999e-01,8.88235e-03,9.42133e-01,9.87729e-01
1.111994531e+00,5.07851e-05,9.99999e-01,5.56348e-05,9.43243e-01,9.67754e-01
1.117554504e+00,9.33161e-07,9.99999e-01,1.11231e-06,9.44333e-01,8.88396e-01
1.123142276e+00,9.05420e-05,9.99999e-01,1.26797e-04,9.45402e-01,7.55309e-01
1.128757988e+00,4.16803e-04,9.99999e-01,6.09288e-04,9.46451e-01,7.22785e-01
1.134401778e+00,5.09083e-04,9.99999e-01,7.08113e-04,9.47480e-01,7.58779e-01
1.140073787e+00,5.35495e-03,9.99999e-01,7.03896e-03,9.48490e-01,8.02072e-01
1.145774156e+00,3.82056e-04,9.99999e-01,4.92400e-04,9.49482e-01,8.17187e-01
1.151503026e+00,7.76107e-05,9.99999e-01,9.13763e-05,9.50454e-01,8.93626e-01
1.157260541e+00,6.82963e-05,9.99999e-01,7.42392e-05,9.51409e-01,9.66931e-01
1.163046844e+00,8.32565e-04,9.99999e-01,8.82597e-04,9.52345e-01,9.90514e-01
1.168862078e+00,5.78275e-03,9.99999e-01,6.09611e-03,9.53264e-01,9.95102e-01
1.174706389e+00,3.47588e-02,9.99999e-01,3.66663e-02,9.54166e-01,9.93512e-01
1.180579921e+00,1.18296e-01,9.99999e-01,1.25088e-01,9.55050e-01,9.90206e-01
1.186482820e+00,2.75256e-01,9.99999e-01,2.90873e-01,9.55918e-01,9.89949e-01
1.192415234e+00,4.55394e-01,9.99999e-01,4.79584e-01,9.56770e-01,9.92463e-01
1.198377311e+00,5.12867e-01,9.99999e-01,5.39412e-01,9.57606e-01,9.92880e-01
1.204369197e+00,5.37581e-01,9.99999e-01,5.64538e-01,9.58425e-01,9.93556e-01
1.210391043e+00,5.48980e-01,9.99999e-01,5.74568e-01,9.59229e-01,9.96075e-01
1.216442998e+00,5.97732e-01,9.99999e-01,6.24126e-01,9.60018e-01,9.97594e-01
1.222525213e+00,6.61499e-01,9.99999e-01,6.89523e-01,9.60792e-01,9.98505e-01
1.228637839e+00,7.41537e-01,9.99999e-01,7.71724e-01,9.61552e-01,9.99304e-01
1.234781029e+00,7.93806e-01,9.99999e-01,8.25071e-01,9.62297e-01,9.99801e-01
1.240954934e+00,8.52560e-01,9.99999e-01,8.85340e-01,9.63028e-01,9.99943e-01
1.247159708e+00,8.76320e-01,9.99999e-01,9.09318e-01,9.63744e-01,9.99963e-01
1.253395507e+00,8.86337e-01,9.99999e-01,9.19052e-01,9.64448e-01,9.99953e-01
1.259662485e+00,8.90692e-01,9.99999e-01,9.22932e-01,9.65137e-01,9.99925e-01
1.265960797e+00,8.49897e-01,9.99999e-01,8.80088e-01,9.65814e-01,9.99875e-01
1.272290601e+00,7.91378e-01,9.99999e-01,8.19005e-01,9.66478e-01,9.99780e-01
1.278652054e+00,6.54812e-01,9.99999e-01,6.77330e-01,9.67129e-01,9.99611e-01
1.285045314e+00,4.85227e-01,9.99999e-01,5.01751e-01,9.67768e-01,9.99275e-01
1.291470541e+00,2.94587e-01,9.99999e-01,3.04589e-01,9.68394e-01,9.98728e-01
1.297927893e+00,2.18896e-01,9.99999e-01,2.26434e-01,9.69009e-01,9.97628e-01
1.304417533e+00,1.44597e-01,9.99999e-01,1.49881e-01,9.69611e-01,9.94981e-01
1.310939621e+00,1.10967e-01,9.99999e-01,1.15562e-01,9.70203e-01,9.89724e-01
1.317494319e+00,9.54284e-02,9.99999e-01,1.00197e-01,9.70783e-01,9.81075e-01
1.324081790e+00,3.77242e-02,9.99999e-01,4.00674e-02,9.71351e-01,9.69285e-01
1.330702199e+00,2.58252e-03,9.99999e-01,2.80400e-03,9.71909e-01,9.47630e-01
1.337355710e+00,1.71161e-12,9.99999e-01,1.95220e-12,9.72456e-01,9.01591e-01
1.344042489e+00,2.27419e-18,9.99999e-01,3.19321e-18,9.72993e-01,7.31963e-01
1.350762701e+00,7.71850e-68,9.99999e-01,2.30751e-67,9.73519e-01,3.43592e-01
1.357516515e+00,7.61162e-105,9.99999e-01,1.79687e-103,9.74035e-01,4.34897e-02
1.364304097e+00,1.73368e-63,9.99999e-01,4.33012e-61,9.74542e-01,4.10834e-03
1.371125618e+00,3.65840e-37,9.99999e-01,6.66968e-35,9.75038e-01,5.62554e-03
1.377981246e+00,4.93230e-36,9.99999e-01,4.28898e-34,9.75525e-01,1.17884e-02
1.384871152e+00,1.62743e-51,9.99999e-01,1.04498e-49,9.76003e-01,1.59566e-02
1.391795508e+00,6.05374e-64,9.99999e-01,3.20147e-62,9.76471e-01,1.93649e-02
1.398754485e+00,7.43205e-48,9.99999e-01,1.97806e-46,9.76930e-01,3.84596e-02
1.405748258e+00,2.87845e-47,9.99999e-01,1.97830e-46,9.77381e-01,1.48868e-01
1.412776999e+00,1.98992e-45,9.99998e-01,4.85568e-45,9.77823e-01,4.19107e-01
1.419840884e+00,6.28867e-45,9.99996e-01,9.41250e-45,9.78256e-01,6.82969e-01
1.426940089e+00,2.16621e-28,9.99996e-01,2.95712e-28,9.78681e-01,7.48498e-01
1.434074789e+00,2.21114e-25,9.99996e-01,3.17870e-25,9.79097e-01,7.10463e-01
1.441245163e+00,1.14355e-20,9.99998e-01,1.69064e-20,9.79506e-01,6.90552e-01
1.448451389e+00,5.22748e-13,9.99995e-01,7.37744e-13,9.79907e-01,7.23105e-01
1.455693646e+00,4.90402e-09,9.99997e-01,6.43798e-09,9.80300e-01,7.77040e-01
1.462972114e+00,5.64431e-09,9.99998e-01,7.32095e-09,9.80685e-01,7.86165e-01
1.470286975e+00,1.12317e-09,9.99998e-01,1.45029e-09,9.81063e-01,7.89393e-01
