#,Wave/freq,Total,N2,H2O,Rayleigh,CIA
4.000000000e-01,7.23997e-01,9.99999e-01,9.99963e-01,7.24023e-01,9.99999e-01
4.020000000e-01,7.28644e-01,9.99999e-01,9.99976e-01,7.28661e-01,9.99999e-01
4.040100000e-01,7.33224e-01,9.99999e-01,9.99989e-01,7.33231e-01,9.99999e-01
4.060300500e-01,7.37737e-01,9.99999e-01,9.99997e-01,7.37739e-01,9.99999e-01
4.080602003e-01,7.42184e-01,9.99999e-01,9.99998e-01,7.42185e-01,9.99999e-01
4.101005013e-01,7.46568e-01,9.99999e-01,9.99999e-01,7.46568e-01,9.99999e-01
4.121510038e-01,7.50890e-01,9.99999e-01,9.99998e-01,7.50891e-01,9.99999e-01
4.142117588e-01,7.55145e-01,9.99999e-01,9.99989e-01,7.55152e-01,9.99999e-01
4.162828176e-01,7.59319e-01,9.99999e-01,9.99954e-01,7.59353e-01,9.99999e-01
4.183642317e-01,7.63473e-01,9.99999e-01,9.99972e-01,7.63493e-01,9.99999e-01
4.204560528e-01,7.67561e-01,9.99999e-01,9.99983e-01,7.67574e-01,9.99999e-01
4.225583331e-01,7.71590e-01,9.99999e-01,9.99993e-01,7.71595e-01,9.99999e-01
4.246711247e-01,7.75553e-01,9.99999e-01,9.99994e-01,7.75557e-01,9.99999e-01
4.267944804e-01,7.79454e-01,9.99999e-01,9.99992e-01,7.79460e-01,9.99999e-01
4.289284528e-01,7.83301e-01,9.99999e-01,9.99993e-01,7.83306e-01,9.99999e-01
4.310730950e-01,7.87092e-01,9.99999e-01,9.99997e-01,7.87093e-01,9.99999e-01
4.332284605e-01,7.90824e-01,9.99999e-01,9.99998e-01,7.90824e-01,9.99999e-01
4.353946028e-01,7.94499e-01,9.99999e-01,9.99999e-01,7.94499e-01,9.99999e-01
4.375715758e-01,7.98114e-01,9.99999e-01,9.99995e-01,7.98117e-01,9.99999e-01
4.397594337e-01,8.01648e-01,9.99999e-01,9.99960e-01,8.01680e-01,9.99999e-01
4.419582309e-01,8.05027e-01,9.99999e-01,9.99799e-01,8.05188e-01,9.99999e-01
4.441680220e-01,8.08514e-01,9.99999e-01,9.99841e-01,8.08641e-01,9.99999e-01
4.463888621e-01,8.11908e-01,9.99999e-01,9.99836e-01,8.12041e-01,9.99999e-01
4.486208064e-01,8.15305e-01,9.99999e-01,9.99897e-01,8.15388e-01,9.99999e-01
4.508639105e-01,8.18642e-01,9.99999e-01,9.99951e-01,8.18681e-01,9.99999e-01
4.531182300e-01,8.21907e-01,9.99999e-01,9.99980e-01,8.21923e-01,9.99999e-01
4.553838212e-01,8.25102e-01,9.99999e-01,9.99986e-01,8.25113e-01,9.99999e-01
4.576607403e-01,8.28247e-01,9.99999e-01,9.99993e-01,8.28252e-01,9.99999e-01
4.599490440e-01,8.31337e-01,9.99999e-01,9.99995e-01,8.31340e-01,9.99999e-01
4.622487892e-01,8.34379e-01,9.99999e-01,9.99998e-01,8.34379e-01,9.99999e-01
4.645600332e-01,8.37366e-01,9.99999e-01,9.99996e-01,8.37369e-01,9.99999e-01
4.668828333e-01,8.40269e-01,9.99999e-01,9.99951e-01,8.40309e-01,9.99999e-01
4.692172475e-01,8.43116e-01,9.99999e-01,9.99896e-01,8.43202e-01,9.99999e-01
4.715633337e-01,8.45991e-01,9.99999e-01,9.99932e-01,8.46048e-01,9.99999e-01
4.739211504e-01,8.48792e-01,9.99999e-01,9.99935e-01,8.48846e-01,9.99999e-01
4.762907561e-01,8.51570e-01,9.99999e-01,9.99966e-01,8.51598e-01,9.99999e-01
4.786722099e-01,8.54293e-01,9.99999e-01,9.99985e-01,8.54305e-01,9.99999e-01
4.810655710e-01,8.56962e-01,9.99999e-01,9.99995e-01,8.56966e-01,9.99999e-01
4.834708988e-01,8.59549e-01,9.99999e-01,9.99960e-01,8.59583e-01,9.99999e-01
4.858882533e-01,8.62093e-01,9.99999e-01,9.99926e-01,8.62156e-01,9.99999e-01
4.883176946e-01,8.64633e-01,9.99999e-01,9.99938e-01,8.64685e-01,9.99999e-01
4.907592831e-01,8.67124e-01,9.99999e-01,9.99944e-01,8.67172e-01,9.99999e-01
4.932130795e-01,8.69583e-01,9.99999e-01,9.99960e-01,8.69616e-01,9.99999e-01
4.956791449e-01,8.72001e-01,9.99999e-01,9.99978e-01,8.72019e-01,9.99999e-01
4.981575406e-01,8.74292e-01,9.99999e-01,9.99896e-01,8.74381e-01,9.99999e-01
5.006483283e-01,8.76469e-01,9.99999e-01,9.99733e-01,8.76703e-01,9.99997e-01
5.031515699e-01,8.77783e-01,9.99999e-01,9.98647e-01,8.78985e-01,9.99985e-01
5.056673278e-01,8.80582e-01,9.99999e-01,9.99284e-01,8.81227e-01,9.99983e-01
5.081956644e-01,8.82624e-01,9.99999e-01,9.99097e-01,8.83431e-01,9.99989e-01
5.107366428e-01,8.85054e-01,9.99999e-01,9.99389e-01,8.85596e-01,9.99997e-01
5.132903260e-01,8.87414e-01,9.99999e-01,9.99650e-01,8.87724e-01,9.99999e-01
5.158567776e-01,8.89683e-01,9.99999e-01,9.99852e-01,8.89815e-01,9.99999e-01
5.184360615e-01,8.91816e-01,9.99999e-01,9.99940e-01,8.91869e-01,9.99999e-01
5.210282418e-01,8.93867e-01,9.99999e-01,9.99977e-01,8.93887e-01,9.99999e-01
5.236333830e-01,8.95790e-01,9.99999e-01,9.99911e-01,8.95870e-01,9.99998e-01
5.262515499e-01,8.97767e-01,9.99999e-01,9.99944e-01,8.97818e-01,9.99998e-01
5.288828077e-01,8.99685e-01,9.99999e-01,9.99949e-01,8.99731e-01,9.99998e-01
5.315272217e-01,9.01571e-01,9.99999e-01,9.99954e-01,9.01611e-01,9.99999e-01
5.341848578e-01,9.03431e-01,9.99999e-01,9.99970e-01,9.03457e-01,9.99999e-01
5.368557821e-01,9.05178e-01,9.99999e-01,9.99897e-01,9.05271e-01,9.99999e-01
5.395400610e-01,9.06715e-01,9.99999e-01,9.99630e-01,9.07052e-01,9.99996e-01
5.422377613e-01,9.08358e-01,9.99999e-01,9.99519e-01,9.08802e-01,9.99990e-01
5.449489501e-01,9.10107e-01,9.99999e-01,9.99554e-01,9.10520e-01,9.99990e-01
5.476736949e-01,9.11843e-01,9.99999e-01,9.99603e-01,9.12207e-01,9.99995e-01
5.504120634e-01,9.13601e-01,9.99999e-01,9.99712e-01,9.13865e-01,9.99998e-01
5.531641237e-01,9.15360e-01,9.99999e-01,9.99855e-01,9.15492e-01,9.99999e-01
5.559299443e-01,9.17026e-01,9.99999e-01,9.99929e-01,9.17090e-01,9.99999e-01
5.587095940e-01,9.18619e-01,9.99999e-01,9.99955e-01,9.18659e-01,9.99999e-01
5.615031420e-01,9.20155e-01,9.99999e-01,9.99950e-01,9.20200e-01,9.99999e-01
5.643106577e-01,9.21662e-01,9.99999e-01,9.99944e-01,9.21713e-01,9.99999e-01
5.671322110e-01,9.22581e-01,9.99999e-01,9.99337e-01,9.23198e-01,9.99993e-01
5.699678720e-01,9.23978e-01,9.99999e-01,9.99283e-01,9.24656e-01,9.99981e-01
5.728177114e-01,9.25388e-01,9.99999e-01,9.99258e-01,9.26088e-01,9.99984e-01
5.756818000e-01,9.26854e-01,9.99999e-01,9.99319e-01,9.27494e-01,9.99990e-01
5.785602090e-01,9.28320e-01,9.99999e-01,9.99405e-01,9.28874e-01,9.99996e-01
5.814530100e-01,9.29673e-01,9.99999e-01,9.99403e-01,9.30229e-01,9.99998e-01
5.843602750e-01,9.30896e-01,9.99999e-01,9.99292e-01,9.31558e-01,9.99995e-01
5.872820764e-01,9.27147e-01,9.99999e-01,9.93913e-01,9.32864e-01,9.99956e-01
5.902184868e-01,9.27115e-01,9.99999e-01,9.92589e-01,9.34145e-01,9.99882e-01
5.931695792e-01,9.30406e-01,9.99999e-01,9.94770e-01,9.35403e-01,9.99885e-01
5.961354271e-01,9.31198e-01,9.99999e-01,9.94260e-01,9.36638e-01,9.99930e-01
5.991161043e-01,9.33901e-01,9.99999e-01,9.95809e-01,9.37849e-01,9.99979e-01
6.021116848e-01,9.36801e-01,9.99999e-01,9.97618e-01,9.39039e-01,9.99997e-01
6.051222432e-01,9.39073e-01,9.99999e-01,9.98794e-01,9.40206e-01,9.99999e-01
6.081478544e-01,9.40863e-01,9.99999e-01,9.99479e-01,9.41352e-01,9.99999e-01
6.111885937e-01,9.42269e-01,9.99999e-01,9.99779e-01,9.42476e-01,9.99999e-01
6.142445367e-01,9.43487e-01,9.99999e-01,9.99901e-01,9.43580e-01,9.99999e-01
6.173157594e-01,9.44612e-01,9.99999e-01,9.99945e-01,9.44663e-01,9.99999e-01
6.204023382e-01,9.45683e-01,9.99999e-01,9.99953e-01,9.45726e-01,9.99999e-01
6.235043498e-01,9.46579e-01,9.99999e-01,9.99799e-01,9.46769e-01,9.99999e-01
6.266218716e-01,9.46774e-01,9.99999e-01,9.98933e-01,9.47792e-01,9.99992e-01
6.297549810e-01,9.48411e-01,9.99999e-01,9.99608e-01,9.48797e-01,9.99984e-01
6.329037559e-01,9.49035e-01,9.99999e-01,9.99225e-01,9.49782e-01,9.99987e-01
6.360682746e-01,9.50117e-01,9.99999e-01,9.99341e-01,9.50749e-01,9.99992e-01
6.392486160e-01,9.50883e-01,9.99999e-01,9.99146e-01,9.51698e-01,9.99996e-01
6.424448591e-01,9.51542e-01,9.99999e-01,9.98862e-01,9.52629e-01,9.99994e-01
6.456570834e-01,9.48488e-01,9.99999e-01,9.94727e-01,9.53543e-01,9.99970e-01
6.488853688e-01,9.50653e-01,9.99999e-01,9.96114e-01,9.54439e-01,9.99917e-01
6.521297956e-01,9.51470e-01,9.99999e-01,9.96039e-01,9.55319e-01,9.99930e-01
6.553904446e-01,9.52389e-01,9.99999e-01,9.96084e-01,9.56182e-01,9.99947e-01
6.586673968e-01,9.53780e-01,9.99999e-01,9.96622e-01,9.57028e-01,9.99982e-01
6.619607338e-01,9.55985e-01,9.99999e-01,9.98046e-01,9.57859e-01,9.99995e-01
6.652705375e-01,9.57586e-01,9.99999e-01,9.98867e-01,9.58674e-01,9.99997e-01
6.685968902e-01,9.58968e-01,9.99999e-01,9.99473e-01,9.59473e-01,9.99999e-01
6.719398746e-01,9.60023e-01,9.99999e-01,9.99755e-01,9.60258e-01,9.99999e-01
6.752995740e-01,9.60900e-01,9.99999e-01,9.99867e-01,9.61027e-01,9.99999e-01
6.786760719e-01,9.61600e-01,9.99999e-01,9.99809e-01,9.61782e-01,9.99999e-01
6.820694522e-01,9.62208e-01,9.99999e-01,9.99674e-01,9.62523e-01,9.99997e-01
6.854797995e-01,9.62842e-01,9.99999e-01,9.99580e-01,9.63249e-01,9.99995e-01
6.889071985e-01,9.62983e-01,9.99999e-01,9.98993e-01,9.63962e-01,9.99990e-01
6.923517345e-01,9.48740e-01,9.99999e-01,9.83573e-01,9.64661e-01,9.99920e-01
6.958134932e-01,9.56810e-01,9.99999e-01,9.91334e-01,9.65347e-01,9.99820e-01
6.992925606e-01,9.57996e-01,9.99999e-01,9.91850e-01,9.66019e-01,9.99841e-01
7.027890234e-01,9.56802e-01,9.99999e-01,9.89902e-01,9.66679e-01,9.99878e-01
7.063029686e-01,9.59055e-01,9.99999e-01,9.91507e-01,9.67326e-01,9.99939e-01
7.098344834e-01,9.60039e-01,9.99999e-01,9.91850e-01,9.67961e-01,9.99963e-01
7.133836558e-01,9.58085e-01,9.99999e-01,9.89230e-01,9.68584e-01,9.99928e-01
7.169505741e-01,8.87764e-01,9.99999e-01,9.16491e-01,9.69195e-01,9.99442e-01
7.205353270e-01,9.27946e-01,9.99999e-01,9.57789e-01,9.69794e-01,9.99016e-01
7.241380036e-01,9.18259e-01,9.99999e-01,9.47090e-01,9.70382e-01,9.99150e-01
7.277586936e-01,9.23818e-01,9.99999e-01,9.52110e-01,9.70958e-01,9.99305e-01
7.313974871e-01,9.21614e-01,9.99999e-01,9.48935e-01,9.71524e-01,9.99674e-01
7.350544745e-01,9.44559e-01,9.99999e-01,9.71800e-01,9.72078e-01,9.99886e-01
7.387297469e-01,9.52302e-01,9.99999e-01,9.79157e-01,9.72622e-01,9.99947e-01
7.424233956e-01,9.63158e-01,9.99999e-01,9.89736e-01,9.73156e-01,9.99989e-01
7.461355126e-01,9.67616e-01,9.99999e-01,9.93774e-01,9.73679e-01,9.99997e-01
7.498661902e-01,9.71360e-01,9.99999e-01,9.97092e-01,9.74192e-01,9.99998e-01
7.536155211e-01,9.73307e-01,9.99999e-01,9.98575e-01,9.74695e-01,9.99999e-01
7.573835987e-01,9.74473e-01,9.99999e-01,9.99266e-01,9.75189e-01,9.99999e-01
7.611705167e-01,9.75228e-01,9.99999e-01,9.99543e-01,9.75673e-01,9.99999e-01
7.649763693e-01,9.75869e-01,9.99999e-01,9.99714e-01,9.76147e-01,9.99999e-01
7.688012511e-01,9.76419e-01,9.99999e-01,9.99800e-01,9.76613e-01,9.99999e-01
7.726452574e-01,9.76910e-01,9.99999e-01,9.99836e-01,9.77070e-01,9.99999e-01
7.765084837e-01,9.77291e-01,9.99999e-01,9.99768e-01,9.77517e-01,9.99999e-01
7.803910261e-01,9.76980e-01,9.99999e-01,9.99001e-01,9.77957e-01,9.99998e-01
7.842929812e-01,9.74976e-01,9.99999e-01,9.96519e-01,9.78387e-01,9.99993e-01
7.882144461e-01,9.71726e-01,9.99999e-01,9.92805e-01,9.78810e-01,9.99955e-01
7.921555184e-01,9.75262e-01,9.99999e-01,9.96039e-01,9.79224e-01,9.99914e-01
7.961162960e-01,9.72743e-01,9.99999e-01,9.93050e-01,9.79630e-01,9.99917e-01
8.000968774e-01,9.72055e-01,9.99999e-01,9.91950e-01,9.80028e-01,9.99912e-01
8.040973618e-01,9.72464e-01,9.99999e-01,9.91954e-01,9.80419e-01,9.99930e-01
8.081178486e-01,9.63106e-01,9.99999e-01,9.82021e-01,9.80802e-01,9.99934e-01
8.121584379e-01,9.09469e-01,9.99999e-01,9.27151e-01,9.81177e-01,9.99745e-01
8.162192301e-01,8.95985e-01,9.99999e-01,9.13704e-01,9.81546e-01,9.99042e-01
8.203003262e-01,9.38317e-01,9.99999e-01,9.56677e-01,9.81907e-01,9.98879e-01
8.244018279e-01,9.21840e-01,9.99999e-01,9.39325e-01,9.82261e-01,9.99107e-01
8.285238370e-01,9.30563e-01,9.99999e-01,9.47696e-01,9.82608e-01,9.99299e-01
8.326664562e-01,9.30631e-01,9.99999e-01,9.47048e-01,9.82949e-01,9.99709e-01
8.368297885e-01,9.45668e-01,9.99999e-01,9.61808e-01,9.83283e-01,9.99933e-01
8.410139374e-01,9.61072e-01,9.99999e-01,9.77123e-01,9.83610e-01,9.99960e-01
8.452190071e-01,9.72802e-01,9.99999e-01,9.88710e-01,9.83931e-01,9.99976e-01
8.494451021e-01,9.77781e-01,9.99999e-01,9.93449e-01,9.84246e-01,9.99980e-01
8.536923276e-01,9.80718e-01,9.99999e-01,9.96114e-01,9.84555e-01,9.99987e-01
8.579607893e-01,9.82501e-01,9.99999e-01,9.97609e-01,9.84858e-01,9.99996e-01
8.622505932e-01,9.83656e-01,9.99999e-01,9.98479e-01,9.85155e-01,9.99999e-01
8.665618462e-01,9.84520e-01,9.99999e-01,9.99060e-01,9.85446e-01,9.99999e-01
8.708946554e-01,9.84672e-01,9.99999e-01,9.98926e-01,9.85731e-01,9.99998e-01
8.752491287e-01,9.84593e-01,9.99999e-01,9.98562e-01,9.86011e-01,9.99997e-01
8.796253743e-01,9.84322e-01,9.99999e-01,9.98013e-01,9.86285e-01,9.99995e-01
8.840235012e-01,9.84302e-01,9.99999e-01,9.97730e-01,9.86554e-01,9.99985e-01
8.884436187e-01,9.78711e-01,9.99999e-01,9.91823e-01,9.86818e-01,9.99960e-01
8.928858368e-01,9.04713e-01,9.99999e-01,9.16765e-01,9.87077e-01,9.99772e-01
8.973502660e-01,8.45129e-01,9.99999e-01,8.56970e-01,9.87330e-01,9.98835e-01
9.018370173e-01,9.10814e-01,9.99999e-01,9.23958e-01,9.87579e-01,9.98170e-01
9.063462024e-01,9.20406e-01,9.99999e-01,9.33251e-01,9.87823e-01,9.98392e-01
9.108779334e-01,8.85416e-01,9.99999e-01,8.97612e-01,9.88062e-01,9.98329e-01
9.154323231e-01,8.72734e-01,9.99999e-01,8.84289e-01,9.88296e-01,9.98619e-01
9.200094847e-01,8.97042e-01,9.99999e-01,9.08155e-01,9.88526e-01,9.99226e-01
9.246095321e-01,8.52624e-01,9.99999e-01,8.63091e-01,9.88752e-01,9.99109e-01
9.292325798e-01,3.74112e-01,9.99999e-01,3.79599e-01,9.88973e-01,9.96531e-01
9.338787427e-01,2.78870e-01,9.99999e-01,2.85996e-01,9.89189e-01,9.85741e-01
9.385481364e-01,5.85344e-01,9.99999e-01,6.01805e-01,9.89402e-01,9.83064e-01
9.432408771e-01,4.89402e-01,9.99999e-01,5.01881e-01,9.89610e-01,9.85372e-01
9.479570815e-01,3.80184e-01,9.99999e-01,3.88730e-01,9.89814e-01,9.88078e-01
9.526968669e-01,4.76556e-01,9.99999e-01,4.84896e-01,9.90014e-01,9.92711e-01
9.574603512e-01,4.99791e-01,9.99999e-01,5.06610e-01,9.90210e-01,9.96290e-01
9.622476530e-01,5.65086e-01,9.99999e-01,5.72029e-01,9.90403e-01,9.97433e-01
9.670588912e-01,7.15947e-01,9.99999e-01,7.24017e-01,9.90591e-01,9.98244e-01
9.718941857e-01,8.07143e-01,9.99999e-01,8.15711e-01,9.90776e-01,9.98706e-01
9.767536566e-01,8.35910e-01,9.99999e-01,8.44371e-01,9.90958e-01,9.99011e-01
9.816374249e-01,8.73727e-01,9.99999e-01,8.81842e-01,9.91136e-01,9.99657e-01
9.865456120e-01,9.16265e-01,9.99999e-01,9.24362e-01,9.91310e-01,9.99928e-01
9.914783401e-01,9.44401e-01,9.99999e-01,9.52534e-01,9.91481e-01,9.99979e-01
9.964357318e-01,9.65719e-01,9.99999e-01,9.73863e-01,9.91648e-01,9.99987e-01
1.001417910e+00,9.76174e-01,9.99999e-01,9.84249e-01,9.91813e-01,9.99981e-01
1.006425000e+00,9.83023e-01,9.99999e-01,9.91001e-01,9.91974e-01,9.99974e-01
1.011457125e+00,9.86552e-01,9.99999e-01,9.94398e-01,9.92132e-01,9.99976e-01
1.016514411e+00,9.88497e-01,9.99999e-01,9.96197e-01,9.92286e-01,9.99983e-01
1.021596983e+00,9.89415e-01,9.99999e-01,9.96969e-01,9.92438e-01,9.99982e-01
1.026704968e+00,9.90231e-01,9.99999e-01,9.97636e-01,9.92587e-01,9.99988e-01
1.031838492e+00,9.91023e-01,9.99999e-01,9.98280e-01,9.92733e-01,9.99996e-01
1.036997685e+00,9.91862e-01,9.99999e-01,9.98979e-01,9.92876e-01,9.99999e-01
1.042182673e+00,9.91810e-01,9.99999e-01,9.98785e-01,9.93016e-01,9.99999e-01
1.047393587e+00,9.91553e-01,9.99999e-01,9.98388e-01,9.93153e-01,9.99999e-01
1.052630555e+00,9.91093e-01,9.99999e-01,9.97790e-01,9.93288e-01,9.99998e-01
1.057893707e+00,9.89760e-01,9.99999e-01,9.96316e-01,9.93420e-01,9.99998e-01
1.063183176e+00,9.87527e-01,9.99999e-01,9.93940e-01,9.93550e-01,9.99996e-01
1.068499092e+00,9.83600e-01,9.99999e-01,9.89865e-01,9.93677e-01,9.99992e-01
1.073841587e+00,9.82024e-01,9.99999e-01,9.88163e-01,9.93801e-01,9.99984e-01
1.079210795e+00,9.78802e-01,9.99999e-01,9.84825e-01,9.93923e-01,9.99958e-01
1.084606849e+00,9.71227e-01,9.99999e-01,9.77142e-01,9.94043e-01,9.99901e-01
1.090029883e+00,9.61595e-01,9.99999e-01,9.67439e-01,9.94160e-01,9.99796e-01
1.095480033e+00,9.08119e-01,9.99999e-01,9.13682e-01,9.94275e-01,9.99632e-01
1.100957433e+00,7.90717e-01,9.99999e-01,7.95716e-01,9.94388e-01,9.99324e-01
1.106462220e+00,5.60898e-01,9.99999e-01,5.64647e-01,9.94499e-01,9.98854e-01
1.111994531e+00,3.01705e-01,9.99999e-01,3.04265e-01,9.94607e-01,9.96962e-01
1.117554504e+00,1.47479e-01,9.99999e-01,1.49900e-01,9.94713e-01,9.89079e-01
1.123142276e+00,2.51743e-01,9.99999e-01,2.59730e-01,9.94817e-01,9.74297e-01
1.128757988e+00,3.94648e-01,9.99999e-01,4.08793e-01,9.94919e-01,9.70326e-01
1.134401778e+00,1.89549e-01,9.99999e-01,1.95440e-01,9.95019e-01,9.74711e-01
1.140073787e+00,5.64971e-01,9.99999e-01,5.79481e-01,9.95118e-01,9.79743e-01
1.145774156e+00,3.22469e-01,9.99999e-01,3.30146e-01,9.95214e-01,9.81441e-01
1.151503026e+00,2.89770e-01,9.99999e-01,2.94190e-01,9.95308e-01,9.89618e-01
1.157260541e+00,3.44642e-01,9.99999e-01,3.47316e-01,9.95401e-01,9.96884e-01
1.163046844e+00,4.52808e-01,9.99999e-01,4.55260e-01,9.95491e-01,9.99115e-01
1.168862078e+00,5.71892e-01,9.99999e-01,5.74692e-01,9.95580e-01,9.99544e-01
1.174706389e+00,7.06767e-01,9.99999e-01,7.10270e-01,9.95667e-01,9.99395e-01
1.180579921e+00,8.07319e-01,9.99999e-01,8.11503e-01,9.95752e-01,9.99086e-01
1.186482820e+00,8.83931e-01,9.99999e-01,8.88459e-01,9.95836e-01,9.99062e-01
1.192415234e+00,9.28824e-01,9.99999e-01,9.33285e-01,9.95918e-01,9.99297e-01
1.198377311e+00,9.39135e-01,9.99999e-01,9.43532e-01,9.95999e-01,9.99336e-01
1.204369197e+00,9.42238e-01,9.99999e-01,9.46515e-01,9.96078e-01,9.99399e-01
1.210391043e+00,9.44760e-01,9.99999e-01,9.48752e-01,9.96155e-01,9.99634e-01
1.216442998e+00,9.52372e-01,9.99999e-01,9.56188e-01,9.96231e-01,9.99776e-01
1.222525213e+00,9.62021e-01,9.99999e-01,9.65722e-01,9.96305e-01,9.99860e-01
1.228637839e+00,9.72483e-01,9.99999e-01,9.76080e-01,9.96378e-01,9.99934e-01
1.234781029e+00,9.78670e-01,9.99999e-01,9.82174e-01,9.96449e-01,9.99981e-01
1.240954934e+00,9.85253e-01,9.99999e-01,9.88698e-01,9.96519e-01,9.99994e-01
1.247159708e+00,9.87800e-01,9.99999e-01,9.91185e-01,9.96588e-01,9.99996e-01
1.253395507e+00,9.88854e-01,9.99999e-01,9.92176e-01,9.96655e-01,9.99995e-01
1.259662485e+00,9.89316e-01,9.99999e-01,9.92576e-01,9.96721e-01,9.99992e-01
1.265960797e+00,9.84961e-01,9.99999e-01,9.88147e-01,9.96786e-01,9.99988e-01
1.272290601e+00,9.79513e-01,9.99999e-01,9.82628e-01,9.96849e-01,9.99979e-01
1.278652054e+00,9.60627e-01,9.99999e-01,9.63637e-01,9.96911e-01,9.99963e-01
1.285045314e+00,9.40492e-01,9.99999e-01,9.43410e-01,9.96972e-01,9.99932e-01
1.291470541e+00,8.86735e-01,9.99999e-01,8.89479e-01,9.97032e-01,9.99881e-01
1.297927893e+00,8.55731e-01,9.99999e-01,8.58416e-01,9.97090e-01,9.99779e-01
1.304417533e+00,8.18920e-01,9.99999e-01,8.21645e-01,9.97148e-01,9.99532e-01
1.310939621e+00,7.96016e-01,9.99999e-01,7.99012e-01,9.97204e-01,9.99041e-01
1.317494319e+00,7.79953e-01,9.99999e-01,7.83483e-01,9.97259e-01,9.98228e-01
1.324081790e+00,6.92246e-01,9.99999e-01,6.96122e-01,9.97313e-01,9.97109e-01
1.330702199e+00,2.84563e-01,9.99999e-01,2.86741e-01,9.97366e-01,9.95020e-01
1.337355710e+00,3.20483e-02,9.99999e-01,3.24416e-02,9.97418e-01,9.90433e-01
1.344042489e+00,1.04739e-03,9.99999e-01,1.08089e-03,9.97469e-01,9.71463e-01
1.350762701e+00,4.46650e-08,9.99999e-01,4.94418e-08,9.97519e-01,9.05630e-01
1.357516515e+00,1.47055e-11,9.99999e-01,1.97186e-11,9.97568e-01,7.47586e-01
1.364304097e+00,1.29732e-07,9.99999e-01,2.16521e-07,9.97616e-01,6.00595e-01
1.371125618e+00,2.81813e-05,9.99999e-01,4.56804e-05,9.97663e-01,6.18367e-01
1.377981246e+00,9.79426e-05,9.99999e-01,1.48221e-04,9.97709e-01,6.62305e-01
1.384871152e+00,8.22779e-07,9.99999e-01,1.21563e-06,9.97754e-01,6.78357e-01
1.391795508e+00,1.72271e-07,9.99999e-01,2.49293e-07,9.97798e-01,6.92561e-01
1.398754485e+00,3.60528e-06,9.99999e-01,4.88841e-06,9.97842e-01,7.39108e-01
1.405748258e+00,4.22106e-06,9.99999e-01,5.04769e-06,9.97884e-01,8.38006e-01
1.412776999e+00,4.36062e-06,9.99999e-01,4.73687e-06,9.97926e-01,9.22480e-01
1.419840884e+00,9.60875e-06,9.99999e-01,9.97506e-06,9.97967e-01,9.65238e-01
1.426940089e+00,1.59827e-04,9.99999e-01,1.64509e-04,9.98007e-01,9.73478e-01
1.434074789e+00,1.04461e-03,9.99999e-01,1.08038e-03,9.98046e-01,9.68779e-01
1.441245163e+00,3.94436e-03,9.99999e-01,4.09005e-03,9.98085e-01,9.66227e-01
1.448451389e+00,2.10492e-02,9.99999e-01,2.17328e-02,9.98123e-01,9.70366e-01
1.455693646e+00,7.14685e-02,9.99999e-01,7.32959e-02,9.98160e-01,9.76864e-01
1.462972114e+00,9.81973e-02,9.99999e-01,1.00595e-01,9.98196e-01,9.77923e-01
1.470286975e+00,6.80265e-02,9.99999e-01,6.96588e-02,9.98232e-01,9.78295e-01
