#,Wave/freq,Total,N2,H2O,Rayleigh,CIA
4.000000000e-01,4.40497e-01,9.99999e-01,9.99907e-01,4.40538e-01,9.99999e-01
4.020000000e-01,4.47711e-01,9.99999e-01,9.99942e-01,4.47736e-01,9.99999e-01
4.040100000e-01,4.54889e-01,9.99999e-01,9.99975e-01,4.54900e-01,9.99999e-01
4.060300500e-01,4.62030e-01,9.99999e-01,9.99993e-01,4.62033e-01,9.99999e-01
4.080602003e-01,4.69132e-01,9.99999e-01,9.99997e-01,4.69133e-01,9.99999e-01
4.101005013e-01,4.76199e-01,9.99999e-01,9.99999e-01,4.76199e-01,9.99999e-01
4.121510038e-01,4.83228e-01,9.99999e-01,9.99996e-01,4.83229e-01,9.99999e-01
4.142117588e-01,4.90209e-01,9.99999e-01,9.99974e-01,4.90221e-01,9.99999e-01
4.162828176e-01,4.97116e-01,9.99999e-01,9.99885e-01,4.97173e-01,9.99999e-01
4.183642317e-01,5.04049e-01,9.99999e-01,9.99931e-01,5.04083e-01,9.99999e-01
4.204560528e-01,5.10929e-01,9.99999e-01,9.99957e-01,5.10950e-01,9.99999e-01
4.225583331e-01,5.17764e-01,9.99999e-01,9.99983e-01,5.17772e-01,9.99999e-01
4.246711247e-01,5.24542e-01,9.99999e-01,9.99987e-01,5.24548e-01,9.99999e-01
4.267944804e-01,5.31266e-01,9.99999e-01,9.99981e-01,5.31276e-01,9.99999e-01
4.289284528e-01,5.37947e-01,9.99999e-01,9.99985e-01,5.37955e-01,9.99999e-01
4.310730950e-01,5.44580e-01,9.99999e-01,9.99993e-01,5.44583e-01,9.99999e-01
4.332284605e-01,5.51159e-01,9.99999e-01,9.99997e-01,5.51160e-01,9.99999e-01
4.353946028e-01,5.57683e-01,9.99999e-01,9.99998e-01,5.57684e-01,9.99999e-01
4.375715758e-01,5.64147e-01,9.99999e-01,9.99988e-01,5.64154e-01,9.99999e-01
4.397594337e-01,5.70512e-01,9.99999e-01,9.99899e-01,5.70569e-01,9.99999e-01
4.419582309e-01,5.76634e-01,9.99999e-01,9.99489e-01,5.76928e-01,9.99999e-01
4.441680220e-01,5.82998e-01,9.99999e-01,9.99600e-01,5.83230e-01,9.99999e-01
4.463888621e-01,5.89230e-01,9.99999e-01,9.99584e-01,5.89475e-01,9.99999e-01
4.486208064e-01,5.95507e-01,9.99999e-01,9.99741e-01,5.95661e-01,9.99999e-01
4.508639105e-01,6.01715e-01,9.99999e-01,9.99878e-01,6.01788e-01,9.99999e-01
4.531182300e-01,6.07826e-01,9.99999e-01,9.99951e-01,6.07855e-01,9.99999e-01
4.553838212e-01,6.13842e-01,9.99999e-01,9.99967e-01,6.13861e-01,9.99999e-01
4.576607403e-01,6.19798e-01,9.99999e-01,9.99984e-01,6.19807e-01,9.99999e-01
4.599490440e-01,6.25684e-01,9.99999e-01,9.99988e-01,6.25691e-01,9.99999e-01
4.622487892e-01,6.31512e-01,9.99999e-01,9.99997e-01,6.31513e-01,9.99999e-01
4.645600332e-01,6.37268e-01,9.99999e-01,9.99992e-01,6.37273e-01,9.99999e-01
4.668828333e-01,6.42891e-01,9.99999e-01,9.99877e-01,6.42969e-01,9.99999e-01
4.692172475e-01,6.48434e-01,9.99999e-01,9.99739e-01,6.48603e-01,9.99999e-01
4.715633337e-01,6.54062e-01,9.99999e-01,9.99829e-01,6.54173e-01,9.99999e-01
4.739211504e-01,6.59573e-01,9.99999e-01,9.99836e-01,6.59680e-01,9.99999e-01
4.762907561e-01,6.65067e-01,9.99999e-01,9.99915e-01,6.65123e-01,9.99999e-01
4.786722099e-01,6.70479e-01,9.99999e-01,9.99965e-01,6.70502e-01,9.99999e-01
4.810655710e-01,6.75810e-01,9.99999e-01,9.99989e-01,6.75817e-01,9.99999e-01
4.834708988e-01,6.81000e-01,9.99999e-01,9.99900e-01,6.81068e-01,9.99999e-01
4.858882533e-01,6.86128e-01,9.99999e-01,9.99815e-01,6.86255e-01,9.99999e-01
4.883176946e-01,6.91271e-01,9.99999e-01,9.99845e-01,6.91377e-01,9.99999e-01
4.907592831e-01,6.96339e-01,9.99999e-01,9.99860e-01,6.96436e-01,9.99999e-01
4.932130795e-01,7.01361e-01,9.99999e-01,9.99900e-01,7.01430e-01,9.99999e-01
4.956791449e-01,7.06324e-01,9.99999e-01,9.99947e-01,7.06361e-01,9.99999e-01
4.981575406e-01,7.11042e-01,9.99999e-01,9.99738e-01,7.11228e-01,9.99999e-01
5.006483283e-01,7.15543e-01,9.99999e-01,9.99322e-01,7.16031e-01,9.99994e-01
5.031515699e-01,7.18272e-01,9.99999e-01,9.96568e-01,7.20771e-01,9.99963e-01
5.056673278e-01,7.24103e-01,9.99999e-01,9.98186e-01,7.25448e-01,9.99958e-01
5.081956644e-01,7.28373e-01,9.99999e-01,9.97712e-01,7.30062e-01,9.99972e-01
5.107366428e-01,7.33475e-01,9.99999e-01,9.98454e-01,7.34613e-01,9.99994e-01
5.132903260e-01,7.38449e-01,9.99999e-01,9.99116e-01,7.39102e-01,9.99998e-01
5.158567776e-01,7.43251e-01,9.99999e-01,9.99626e-01,7.43529e-01,9.99999e-01
5.184360615e-01,7.47782e-01,9.99999e-01,9.99850e-01,7.47894e-01,9.99999e-01
5.210282418e-01,7.52156e-01,9.99999e-01,9.99943e-01,7.52198e-01,9.99999e-01
5.236333830e-01,7.56270e-01,9.99999e-01,9.99775e-01,7.56440e-01,9.99997e-01
5.262515499e-01,7.60514e-01,9.99999e-01,9.99859e-01,7.60622e-01,9.99997e-01
5.288828077e-01,7.64645e-01,9.99999e-01,9.99871e-01,7.64744e-01,9.99998e-01
5.315272217e-01,7.68720e-01,9.99999e-01,9.99886e-01,7.68807e-01,9.99999e-01
5.341848578e-01,7.72753e-01,9.99999e-01,9.99925e-01,7.72810e-01,9.99999e-01
5.368557821e-01,7.76551e-01,9.99999e-01,9.99738e-01,7.76754e-01,9.99998e-01
5.395400610e-01,7.79900e-01,9.99999e-01,9.99059e-01,7.80640e-01,9.99991e-01
5.422377613e-01,7.83496e-01,9.99999e-01,9.98782e-01,7.84467e-01,9.99977e-01
5.449489501e-01,7.87329e-01,9.99999e-01,9.98868e-01,7.88238e-01,9.99976e-01
5.476736949e-01,7.91149e-01,9.99999e-01,9.98997e-01,7.91951e-01,9.99988e-01
5.504120634e-01,7.95028e-01,9.99999e-01,9.99272e-01,7.95609e-01,9.99996e-01
5.531641237e-01,7.98917e-01,9.99999e-01,9.99633e-01,7.99210e-01,9.99999e-01
5.559299443e-01,8.02614e-01,9.99999e-01,9.99822e-01,8.02756e-01,9.99999e-01
5.587095940e-01,8.06158e-01,9.99999e-01,9.99888e-01,8.06247e-01,9.99999e-01
5.615031420e-01,8.09585e-01,9.99999e-01,9.99876e-01,8.09684e-01,9.99999e-01
5.643106577e-01,8.12954e-01,9.99999e-01,9.99860e-01,8.13068e-01,9.99998e-01
5.671322110e-01,8.15002e-01,9.99999e-01,9.98304e-01,8.16398e-01,9.99984e-01
5.699678720e-01,8.18156e-01,9.99999e-01,9.98191e-01,8.19676e-01,9.99953e-01
5.728177114e-01,8.21322e-01,9.99999e-01,9.98118e-01,8.22902e-01,9.99961e-01
5.756818000e-01,8.24630e-01,9.99999e-01,9.98272e-01,8.26076e-01,9.99975e-01
5.785602090e-01,8.27946e-01,9.99999e-01,9.98494e-01,8.29200e-01,9.99992e-01
5.814530100e-01,8.31012e-01,9.99999e-01,9.98488e-01,8.32273e-01,9.99996e-01
5.843602750e-01,8.33785e-01,9.99999e-01,9.98199e-01,8.35296e-01,9.99989e-01
5.872820764e-01,8.25279e-01,9.99999e-01,9.84608e-01,8.38271e-01,9.99890e-01
5.902184868e-01,8.25243e-01,9.99999e-01,9.81325e-01,8.41197e-01,9.99702e-01
5.931695792e-01,8.32691e-01,9.99999e-01,9.86794e-01,8.44075e-01,9.99713e-01
5.961354271e-01,8.34504e-01,9.99999e-01,9.85516e-01,8.46906e-01,9.99835e-01
5.991161043e-01,8.40652e-01,9.99999e-01,9.89412e-01,8.49691e-01,9.99948e-01
6.021116848e-01,8.47291e-01,9.99999e-01,9.93978e-01,8.52429e-01,9.99993e-01
6.051222432e-01,8.52512e-01,9.99999e-01,9.96948e-01,8.55121e-01,9.99999e-01
6.081478544e-01,8.56640e-01,9.99999e-01,9.98683e-01,8.57769e-01,9.99999e-01
6.111885937e-01,8.59893e-01,9.99999e-01,9.99442e-01,8.60372e-01,9.99999e-01
6.142445367e-01,8.62717e-01,9.99999e-01,9.99750e-01,8.62932e-01,9.99999e-01
6.173157594e-01,8.65330e-01,9.99999e-01,9.99862e-01,8.65448e-01,9.99999e-01
6.204023382e-01,8.67821e-01,9.99999e-01,9.99883e-01,8.67922e-01,9.99999e-01
6.235043498e-01,8.69909e-01,9.99999e-01,9.99489e-01,8.70354e-01,9.99998e-01
6.266218716e-01,8.70367e-01,9.99999e-01,9.97294e-01,8.72744e-01,9.99980e-01
6.297549810e-01,8.74192e-01,9.99999e-01,9.99006e-01,8.75094e-01,9.99961e-01
6.329037559e-01,8.75655e-01,9.99999e-01,9.98037e-01,8.77403e-01,9.99969e-01
6.360682746e-01,8.78188e-01,9.99999e-01,9.98329e-01,8.79673e-01,9.99981e-01
6.392486160e-01,8.79987e-01,9.99999e-01,9.97834e-01,8.81903e-01,9.99991e-01
6.424448591e-01,8.81526e-01,9.99999e-01,9.97106e-01,8.84095e-01,9.99986e-01
6.456570834e-01,8.74341e-01,9.99999e-01,9.86636e-01,8.86249e-01,9.99925e-01
6.488853688e-01,8.79470e-01,9.99999e-01,9.90192e-01,8.88366e-01,9.99790e-01
6.521297956e-01,8.81397e-01,9.99999e-01,9.90008e-01,8.90445e-01,9.99827e-01
6.553904446e-01,8.83490e-01,9.99999e-01,9.90044e-01,8.92488e-01,9.99871e-01
6.586673968e-01,8.86827e-01,9.99999e-01,9.91468e-01,8.94496e-01,9.99956e-01
6.619607338e-01,8.92030e-01,9.99999e-01,9.95058e-01,8.96468e-01,9.99990e-01
6.652705375e-01,8.95829e-01,9.99999e-01,9.97136e-01,8.98405e-01,9.99994e-01
6.685968902e-01,8.99110e-01,9.99999e-01,9.98668e-01,9.00308e-01,9.99998e-01
6.719398746e-01,9.01622e-01,9.99999e-01,9.99383e-01,9.02178e-01,9.99999e-01
6.752995740e-01,9.03712e-01,9.99999e-01,9.99665e-01,9.04014e-01,9.99999e-01
6.786760719e-01,9.05381e-01,9.99999e-01,9.99517e-01,9.05818e-01,9.99998e-01
6.820694522e-01,9.06836e-01,9.99999e-01,9.99174e-01,9.07589e-01,9.99995e-01
6.854797995e-01,9.08353e-01,9.99999e-01,9.98935e-01,9.09329e-01,9.99990e-01
6.889071985e-01,9.08675e-01,9.99999e-01,9.97428e-01,9.11038e-01,9.99976e-01
6.923517345e-01,8.74971e-01,9.99999e-01,9.58838e-01,9.12716e-01,9.99797e-01
6.958134932e-01,8.94180e-01,9.99999e-01,9.78361e-01,9.14364e-01,9.99552e-01
6.992925606e-01,8.96770e-01,9.99999e-01,9.79418e-01,9.15983e-01,9.99597e-01
7.027890234e-01,8.94013e-01,9.99999e-01,9.74624e-01,9.17572e-01,9.99692e-01
7.063029686e-01,8.99333e-01,9.99999e-01,9.78608e-01,9.19132e-01,9.99846e-01
7.098344834e-01,9.01673e-01,9.99999e-01,9.79460e-01,9.20664e-01,9.99909e-01
7.133836558e-01,8.96948e-01,9.99999e-01,9.72824e-01,9.22169e-01,9.99819e-01
7.169505741e-01,7.41866e-01,9.99999e-01,8.04330e-01,9.23646e-01,9.98585e-01
7.205353270e-01,8.28789e-01,9.99999e-01,8.98134e-01,9.25096e-01,9.97506e-01
7.241380036e-01,8.06435e-01,9.99999e-01,8.72269e-01,9.26520e-01,9.97846e-01
7.277586936e-01,8.18859e-01,9.99999e-01,8.84024e-01,9.27918e-01,9.98239e-01
7.313974871e-01,8.13849e-01,9.99999e-01,8.76498e-01,9.29290e-01,9.99174e-01
7.350544745e-01,8.65577e-01,9.99999e-01,9.30357e-01,9.30637e-01,9.99712e-01
7.387297469e-01,8.83512e-01,9.99999e-01,9.48139e-01,9.31959e-01,9.99868e-01
7.424233956e-01,9.09203e-01,9.99999e-01,9.74250e-01,9.33257e-01,9.99974e-01
7.461355126e-01,9.19869e-01,9.99999e-01,9.84314e-01,9.34531e-01,9.99995e-01
7.498661902e-01,9.28917e-01,9.99999e-01,9.92664e-01,9.35782e-01,9.99997e-01
7.536155211e-01,9.33633e-01,9.99999e-01,9.96396e-01,9.37010e-01,9.99998e-01
7.573835987e-01,9.36473e-01,9.99999e-01,9.98143e-01,9.38215e-01,9.99999e-01
7.611705167e-01,9.38314e-01,9.99999e-01,9.98846e-01,9.39397e-01,9.99999e-01
7.649763693e-01,9.39878e-01,9.99999e-01,9.99276e-01,9.40558e-01,9.99999e-01
7.688012511e-01,9.41223e-01,9.99999e-01,9.99496e-01,9.41697e-01,9.99999e-01
7.726452574e-01,9.42425e-01,9.99999e-01,9.99585e-01,9.42815e-01,9.99999e-01
7.765084837e-01,9.43357e-01,9.99999e-01,9.99411e-01,9.43913e-01,9.99998e-01
7.803910261e-01,9.42587e-01,9.99999e-01,9.97460e-01,9.44989e-01,9.99997e-01
7.842929812e-01,9.37671e-01,9.99999e-01,9.91162e-01,9.46046e-01,9.99983e-01
7.882144461e-01,9.29793e-01,9.99999e-01,9.81852e-01,9.47083e-01,9.99887e-01
7.921555184e-01,9.38425e-01,9.99999e-01,9.90008e-01,9.48101e-01,9.99783e-01
7.961162960e-01,9.32233e-01,9.99999e-01,9.82431e-01,9.49099e-01,9.99792e-01
8.000968774e-01,9.30584e-01,9.99999e-01,9.79695e-01,9.50079e-01,9.99778e-01
8.040973618e-01,9.31573e-01,9.99999e-01,9.79701e-01,9.51041e-01,9.99824e-01
8.081178486e-01,9.08991e-01,9.99999e-01,9.54995e-01,9.51984e-01,9.99835e-01
8.121584379e-01,7.87347e-01,9.99999e-01,8.26789e-01,9.52910e-01,9.99354e-01
8.162192301e-01,7.59542e-01,9.99999e-01,7.98253e-01,9.53818e-01,9.97573e-01
8.203003262e-01,8.53405e-01,9.99999e-01,8.96434e-01,9.54709e-01,9.97159e-01
8.244018279e-01,8.19650e-01,9.99999e-01,8.59690e-01,9.55584e-01,9.97738e-01
8.285238370e-01,8.33894e-01,9.99999e-01,8.73421e-01,9.56442e-01,9.98223e-01
8.326664562e-01,8.34494e-01,9.99999e-01,8.72371e-01,9.57283e-01,9.99264e-01
8.368297885e-01,8.68303e-01,9.99999e-01,9.06419e-01,9.58109e-01,9.99831e-01
8.410139374e-01,9.04359e-01,9.99999e-01,9.43194e-01,9.58919e-01,9.99901e-01
8.452190071e-01,9.32493e-01,9.99999e-01,9.71692e-01,9.59714e-01,9.99940e-01
8.494451021e-01,9.44578e-01,9.99999e-01,9.83475e-01,9.60494e-01,9.99952e-01
8.536923276e-01,9.51806e-01,9.99999e-01,9.90193e-01,9.61259e-01,9.99970e-01
8.579607893e-01,9.56185e-01,9.99999e-01,9.93951e-01,9.62009e-01,9.99992e-01
8.622505932e-01,9.59041e-01,9.99999e-01,9.96152e-01,9.62746e-01,9.99998e-01
8.665618462e-01,9.61175e-01,9.99999e-01,9.97619e-01,9.63468e-01,9.99998e-01
8.708946554e-01,9.61549e-01,9.99999e-01,9.97275e-01,9.64176e-01,9.99998e-01
8.752491287e-01,9.61353e-01,9.99999e-01,9.96356e-01,9.64871e-01,9.99995e-01
8.796253743e-01,9.60676e-01,9.99999e-01,9.94959e-01,9.65553e-01,9.99988e-01
8.840235012e-01,9.60627e-01,9.99999e-01,9.94243e-01,9.66222e-01,9.99964e-01
8.884436187e-01,9.46782e-01,9.99999e-01,9.79312e-01,9.66878e-01,9.99899e-01
8.928858368e-01,7.78081e-01,9.99999e-01,8.04663e-01,9.67521e-01,9.99423e-01
8.973502660e-01,6.58614e-01,9.99999e-01,6.82291e-01,9.68153e-01,9.97049e-01
9.018370173e-01,7.93271e-01,9.99999e-01,8.22654e-01,9.68772e-01,9.95364e-01
9.063462024e-01,8.12451e-01,9.99999e-01,8.41542e-01,9.69379e-01,9.95927e-01
9.108779334e-01,7.38227e-01,9.99999e-01,7.64312e-01,9.69975e-01,9.95768e-01
9.154323231e-01,7.11500e-01,9.99999e-01,7.35656e-01,9.70559e-01,9.96500e-01
9.200094847e-01,7.62938e-01,9.99999e-01,7.87159e-01,9.71132e-01,9.98039e-01
9.246095321e-01,6.78586e-01,9.99999e-01,6.99933e-01,9.71694e-01,9.97741e-01
9.292325798e-01,1.12082e-01,9.99999e-01,1.16302e-01,9.72245e-01,9.91223e-01
9.338787427e-01,5.51657e-02,9.99999e-01,5.88135e-02,9.72786e-01,9.64215e-01
9.385481364e-01,2.93105e-01,9.99999e-01,3.14479e-01,9.73316e-01,9.57585e-01
9.432408771e-01,2.03190e-01,9.99999e-01,2.16598e-01,9.73836e-01,9.63299e-01
9.479570815e-01,1.10234e-01,9.99999e-01,1.16632e-01,9.74346e-01,9.70027e-01
9.526968669e-01,1.79138e-01,9.99999e-01,1.87203e-01,9.74847e-01,9.81610e-01
9.574603512e-01,1.94122e-01,9.99999e-01,2.00916e-01,9.75337e-01,9.90615e-01
9.622476530e-01,2.54607e-01,9.99999e-01,2.62623e-01,9.75819e-01,9.93501e-01
9.670588912e-01,4.44806e-01,9.99999e-01,4.57643e-01,9.76290e-01,9.95551e-01
9.718941857e-01,5.85694e-01,9.99999e-01,6.01604e-01,9.76753e-01,9.96722e-01
9.767536566e-01,6.38644e-01,9.99999e-01,6.55180e-01,9.77207e-01,9.97494e-01
9.816374249e-01,7.12228e-01,9.99999e-01,7.29140e-01,9.77652e-01,9.99132e-01
9.865456120e-01,8.02001e-01,9.99999e-01,8.20115e-01,9.78089e-01,9.99818e-01
9.914783401e-01,8.65225e-01,9.99999e-01,8.84264e-01,9.78517e-01,9.99949e-01
9.964357318e-01,9.15464e-01,9.99999e-01,9.35188e-01,9.78937e-01,9.99970e-01
1.001417910e+00,9.40722e-01,9.99999e-01,9.60601e-01,9.79348e-01,9.99954e-01
1.006425000e+00,9.57493e-01,9.99999e-01,9.77342e-01,9.79752e-01,9.99935e-01
1.011457125e+00,9.66247e-01,9.99999e-01,9.85875e-01,9.80148e-01,9.99940e-01
1.016514411e+00,9.71073e-01,9.99999e-01,9.90389e-01,9.80536e-01,9.99957e-01
1.021596983e+00,9.73358e-01,9.99999e-01,9.92335e-01,9.80917e-01,9.99957e-01
1.026704968e+00,9.75393e-01,9.99999e-01,9.94017e-01,9.81290e-01,9.99971e-01
1.031838492e+00,9.77378e-01,9.99999e-01,9.95648e-01,9.81657e-01,9.99991e-01
1.036997685e+00,9.79475e-01,9.99999e-01,9.97413e-01,9.82016e-01,9.99998e-01
1.042182673e+00,9.79340e-01,9.99999e-01,9.96918e-01,9.82368e-01,9.99998e-01
1.047393587e+00,9.78698e-01,9.99999e-01,9.95914e-01,9.82713e-01,9.99998e-01
1.052630555e+00,9.77544e-01,9.99999e-01,9.94398e-01,9.83051e-01,9.99998e-01
1.057893707e+00,9.74203e-01,9.99999e-01,9.90667e-01,9.83383e-01,9.99996e-01
1.063183176e+00,9.68641e-01,9.99999e-01,9.84690e-01,9.83709e-01,9.99991e-01
1.068499092e+00,9.58918e-01,9.99999e-01,9.74498e-01,9.84028e-01,9.99982e-01
1.073841587e+00,9.55043e-01,9.99999e-01,9.70272e-01,9.84341e-01,9.99961e-01
1.079210795e+00,9.47146e-01,9.99999e-01,9.62012e-01,9.84648e-01,9.99896e-01
1.084606849e+00,9.28718e-01,9.99999e-01,9.43143e-01,9.84949e-01,9.99751e-01
1.090029883e+00,9.05597e-01,9.99999e-01,9.19632e-01,9.85244e-01,9.99485e-01
1.095480033e+00,7.83902e-01,9.99999e-01,7.96149e-01,9.85533e-01,9.99069e-01
1.100957433e+00,5.56640e-01,9.99999e-01,5.65616e-01,9.85817e-01,9.98287e-01
1.106462220e+00,2.49216e-01,9.99999e-01,2.53466e-01,9.86095e-01,9.97096e-01
1.111994531e+00,5.96432e-02,9.99999e-01,6.09358e-02,9.86368e-01,9.92312e-01
1.117554504e+00,1.27535e-02,9.99999e-01,1.32914e-02,9.86635e-01,9.72523e-01
1.123142276e+00,4.98927e-02,9.99999e-01,5.40080e-02,9.86898e-01,9.36064e-01
1.128757988e+00,1.13620e-01,9.99999e-01,1.24241e-01,9.87155e-01,9.26414e-01
1.134401778e+00,5.16756e-02,9.99999e-01,5.58489e-02,9.87407e-01,9.37075e-01
1.140073787e+00,2.51241e-01,9.99999e-01,2.67939e-01,9.87654e-01,9.49397e-01
1.145774156e+00,7.70338e-02,9.99999e-01,8.17734e-02,9.87896e-01,9.53579e-01
1.151503026e+00,5.97592e-02,9.99999e-01,6.20995e-02,9.88134e-01,9.73868e-01
1.157260541e+00,7.76039e-02,9.99999e-01,7.91413e-02,9.88367e-01,9.92113e-01
1.163046844e+00,1.48128e-01,9.99999e-01,1.50174e-01,9.88595e-01,9.97758e-01
1.168862078e+00,2.51082e-01,9.99999e-01,2.54214e-01,9.88819e-01,9.98844e-01
1.174706389e+00,4.22137e-01,9.99999e-01,4.27469e-01,9.89039e-01,9.98468e-01
1.180579921e+00,5.85531e-01,9.99999e-01,5.93264e-01,9.89254e-01,9.97685e-01
1.186482820e+00,7.32563e-01,9.99999e-01,7.42124e-01,9.89465e-01,9.97624e-01
1.192415234e+00,8.29499e-01,9.99999e-01,8.39648e-01,9.89672e-01,9.98220e-01
1.198377311e+00,8.52971e-01,9.99999e-01,8.63146e-01,9.89875e-01,9.98318e-01
1.204369197e+00,8.60597e-01,9.99999e-01,8.70548e-01,9.90074e-01,9.98478e-01
1.210391043e+00,8.66174e-01,9.99999e-01,8.75495e-01,9.90269e-01,9.99074e-01
1.216442998e+00,8.84014e-01,9.99999e-01,8.93034e-01,9.90461e-01,9.99432e-01
1.222525213e+00,9.06613e-01,9.99999e-01,9.15492e-01,9.90648e-01,9.99647e-01
1.228637839e+00,9.31726e-01,9.99999e-01,9.40500e-01,9.90832e-01,9.99835e-01
1.234781029e+00,9.46846e-01,9.99999e-01,9.55476e-01,9.91012e-01,9.99952e-01
1.240954934e+00,9.63039e-01,9.99999e-01,9.71611e-01,9.91189e-01,9.99986e-01
1.247159708e+00,9.69361e-01,9.99999e-01,9.77814e-01,9.91362e-01,9.99991e-01
1.253395507e+00,9.71971e-01,9.99999e-01,9.80282e-01,9.91532e-01,9.99988e-01
1.259662485e+00,9.73102e-01,9.99999e-01,9.81264e-01,9.91699e-01,9.99982e-01
1.265960797e+00,9.62311e-01,9.99999e-01,9.70234e-01,9.91862e-01,9.99970e-01
1.272290601e+00,9.46033e-01,9.99999e-01,9.53689e-01,9.92022e-01,9.99947e-01
1.278652054e+00,9.03103e-01,9.99999e-01,9.10304e-01,9.92179e-01,9.99908e-01
1.285045314e+00,8.37328e-01,9.99999e-01,8.43941e-01,9.92333e-01,9.99828e-01
1.291470541e+00,7.38658e-01,9.99999e-01,7.44474e-01,9.92484e-01,9.99700e-01
1.297927893e+00,6.77331e-01,9.99999e-01,6.82740e-01,9.92632e-01,9.99440e-01
1.304417533e+00,6.08574e-01,9.99999e-01,6.13727e-01,9.92777e-01,9.98815e-01
1.310939621e+00,5.66777e-01,9.99999e-01,5.72208e-01,9.92919e-01,9.97570e-01
1.317494319e+00,5.40534e-01,9.99999e-01,5.46765e-01,9.93058e-01,9.95511e-01
1.324081790e+00,4.07758e-01,9.99999e-01,4.13577e-01,9.93195e-01,9.92681e-01
1.330702199e+00,8.84417e-02,9.99999e-01,9.01703e-02,9.93329e-01,9.87415e-01
1.337355710e+00,4.89291e-04,9.99999e-01,5.04671e-04,9.93460e-01,9.75904e-01
1.344042489e+00,4.82027e-06,9.99999e-01,5.22118e-06,9.93589e-01,9.29170e-01
1.350762701e+00,1.23651e-17,9.99999e-01,1.60017e-17,9.93715e-01,7.77619e-01
1.357516515e+00,2.24793e-26,9.99999e-01,4.73196e-26,9.93839e-01,4.77997e-01
1.364304097e+00,1.38375e-16,9.99999e-01,5.07597e-16,9.93960e-01,2.74263e-01
1.371125618e+00,1.90108e-10,9.99999e-01,6.47551e-10,9.94079e-01,2.95328e-01
1.377981246e+00,7.06028e-10,9.99999e-01,2.02023e-09,9.94196e-01,3.51519e-01
1.384871152e+00,7.71425e-14,9.99999e-01,2.05526e-13,9.94310e-01,3.77490e-01
1.391795508e+00,1.24949e-16,9.99999e-01,3.18025e-16,9.94422e-01,3.95093e-01
1.398754485e+00,6.10388e-13,9.99999e-01,1.32169e-12,9.94532e-01,4.64363e-01
1.405748258e+00,9.41352e-13,9.99999e-01,1.48197e-12,9.94640e-01,6.38626e-01
1.412776999e+00,2.09292e-12,9.99999e-01,2.58201e-12,9.94745e-01,8.14856e-01
1.419840884e+00,3.83688e-12,9.99998e-01,4.21900e-12,9.94849e-01,9.14137e-01
1.426940089e+00,2.11963e-08,9.99998e-01,2.28075e-08,9.94950e-01,9.34070e-01
1.434074789e+00,2.59605e-07,9.99998e-01,2.82761e-07,9.95050e-01,9.22671e-01
1.441245163e+00,3.92847e-06,9.99999e-01,4.30720e-06,9.95147e-01,9.16517e-01
1.448451389e+00,2.19107e-04,9.99998e-01,2.37616e-04,9.95243e-01,9.26511e-01
1.455693646e+00,3.18854e-03,9.99999e-01,3.39951e-03,9.95336e-01,9.42337e-01
1.462972114e+00,4.75390e-03,9.99999e-01,5.05405e-03,9.95428e-01,9.44930e-01
1.470286975e+00,2.19243e-03,9.99999e-01,2.32840e-03,9.95518e-01,9.45842e-01
