#,Wave/freq,Total,N2,H2O,Rayleigh,CIA
4.000000000e-01,2.61261e-01,9.99999e-01,9.99848e-01,2.61301e-01,9.99999e-01
4.020000000e-01,2.68303e-01,9.99999e-01,9.99905e-01,2.68328e-01,9.99999e-01
4.040100000e-01,2.75381e-01,9.99999e-01,9.99959e-01,2.75392e-01,9.99999e-01
4.060300500e-01,2.82494e-01,9.99999e-01,9.99990e-01,2.82497e-01,9.99999e-01
4.080602003e-01,2.89638e-01,9.99999e-01,9.99996e-01,2.89639e-01,9.99999e-01
4.101005013e-01,2.96816e-01,9.99999e-01,9.99999e-01,2.96816e-01,9.99999e-01
4.121510038e-01,3.04021e-01,9.99999e-01,9.99993e-01,3.04023e-01,9.99999e-01
4.142117588e-01,3.11245e-01,9.99999e-01,9.99957e-01,3.11258e-01,9.99999e-01
4.162828176e-01,3.18457e-01,9.99999e-01,9.99812e-01,3.18517e-01,9.99999e-01
4.183642317e-01,3.25760e-01,9.99999e-01,9.99888e-01,3.25797e-01,9.99999e-01
4.204560528e-01,3.33072e-01,9.99999e-01,9.99931e-01,3.33094e-01,9.99999e-01
4.225583331e-01,3.40398e-01,9.99999e-01,9.99974e-01,3.40406e-01,9.99999e-01
4.246711247e-01,3.47723e-01,9.99999e-01,9.99979e-01,3.47730e-01,9.99999e-01
4.267944804e-01,3.55051e-01,9.99999e-01,9.99969e-01,3.55061e-01,9.99999e-01
4.289284528e-01,3.62390e-01,9.99999e-01,9.99976e-01,3.62398e-01,9.99999e-01
4.310730950e-01,3.69734e-01,9.99999e-01,9.99989e-01,3.69737e-01,9.99999e-01
4.332284605e-01,3.77075e-01,9.99999e-01,9.99996e-01,3.77076e-01,9.99999e-01
4.353946028e-01,3.84410e-01,9.99999e-01,9.99998e-01,3.84410e-01,9.99999e-01
4.375715758e-01,3.91731e-01,9.99999e-01,9.99980e-01,3.91739e-01,9.99999e-01
4.397594337e-01,3.98992e-01,9.99999e-01,9.99834e-01,3.99058e-01,9.99999e-01
4.419582309e-01,4.06024e-01,9.99999e-01,9.99160e-01,4.06365e-01,9.99999e-01
4.441680220e-01,4.13388e-01,9.99999e-01,9.99348e-01,4.13658e-01,9.99999e-01
4.463888621e-01,4.20648e-01,9.99999e-01,9.99320e-01,4.20933e-01,9.99999e-01
4.486208064e-01,4.28009e-01,9.99999e-01,9.99578e-01,4.28190e-01,9.99999e-01
4.508639105e-01,4.35338e-01,9.99999e-01,9.99802e-01,4.35424e-01,9.99999e-01
4.531182300e-01,4.42599e-01,9.99999e-01,9.99921e-01,4.42634e-01,9.99999e-01
4.553838212e-01,4.49793e-01,9.99999e-01,9.99946e-01,4.49817e-01,9.99999e-01
4.576607403e-01,4.56961e-01,9.99999e-01,9.99975e-01,4.56972e-01,9.99999e-01
4.599490440e-01,4.64088e-01,9.99999e-01,9.99982e-01,4.64096e-01,9.99999e-01
4.622487892e-01,4.71185e-01,9.99999e-01,9.99996e-01,4.71186e-01,9.99999e-01
4.645600332e-01,4.78237e-01,9.99999e-01,9.99987e-01,4.78242e-01,9.99999e-01
4.668828333e-01,4.85164e-01,9.99999e-01,9.99799e-01,4.85261e-01,9.99999e-01
4.692172475e-01,4.92032e-01,9.99999e-01,9.99573e-01,4.92242e-01,9.99999e-01
4.715633337e-01,4.99043e-01,9.99999e-01,9.99721e-01,4.99182e-01,9.99999e-01
4.739211504e-01,5.05945e-01,9.99999e-01,9.99733e-01,5.06080e-01,9.99999e-01
4.762907561e-01,5.12863e-01,9.99999e-01,9.99861e-01,5.12934e-01,9.99999e-01
4.786722099e-01,5.19713e-01,9.99999e-01,9.99943e-01,5.19742e-01,9.99999e-01
4.810655710e-01,5.26496e-01,9.99999e-01,9.99982e-01,5.26505e-01,9.99999e-01
4.834708988e-01,5.33131e-01,9.99999e-01,9.99835e-01,5.33218e-01,9.99999e-01
4.858882533e-01,5.39720e-01,9.99999e-01,9.99698e-01,5.39883e-01,9.99999e-01
4.883176946e-01,5.46358e-01,9.99999e-01,9.99747e-01,5.46496e-01,9.99999e-01
4.907592831e-01,5.52932e-01,9.99999e-01,9.99771e-01,5.53058e-01,9.99999e-01
4.932130795e-01,5.59476e-01,9.99999e-01,9.99837e-01,5.59566e-01,9.99999e-01
4.956791449e-01,5.65972e-01,9.99999e-01,9.99913e-01,5.66020e-01,9.99999e-01
4.981575406e-01,5.72174e-01,9.99999e-01,9.99571e-01,5.72419e-01,9.99999e-01
5.006483283e-01,5.78114e-01,9.99999e-01,9.98887e-01,5.78762e-01,9.99992e-01
5.031515699e-01,5.81730e-01,9.99999e-01,9.94387e-01,5.85047e-01,9.99940e-01
5.056673278e-01,5.89482e-01,9.99999e-01,9.97034e-01,5.91275e-01,9.99931e-01
5.081956644e-01,5.95184e-01,9.99999e-01,9.96260e-01,5.97444e-01,9.99955e-01
5.107366428e-01,6.02025e-01,9.99999e-01,9.97474e-01,6.03554e-01,9.99991e-01
5.132903260e-01,6.08723e-01,9.99999e-01,9.98556e-01,6.09603e-01,9.99998e-01
5.158567776e-01,6.15217e-01,9.99999e-01,9.99390e-01,6.15592e-01,9.99999e-01
5.184360615e-01,6.21368e-01,9.99999e-01,9.99755e-01,6.21520e-01,9.99999e-01
5.210282418e-01,6.27329e-01,9.99999e-01,9.99908e-01,6.27386e-01,9.99999e-01
5.236333830e-01,6.32956e-01,9.99999e-01,9.99633e-01,6.33190e-01,9.99996e-01
5.262515499e-01,6.38783e-01,9.99999e-01,9.99770e-01,6.38931e-01,9.99995e-01
5.288828077e-01,6.44473e-01,9.99999e-01,9.99788e-01,6.44610e-01,9.99997e-01
5.315272217e-01,6.50105e-01,9.99999e-01,9.99814e-01,6.50225e-01,9.99998e-01
5.341848578e-01,6.55698e-01,9.99999e-01,9.99878e-01,6.55777e-01,9.99999e-01
5.368557821e-01,6.60982e-01,9.99999e-01,9.99572e-01,6.61265e-01,9.99998e-01
5.395400610e-01,6.65652e-01,9.99999e-01,9.98455e-01,6.66690e-01,9.99986e-01
5.422377613e-01,6.70690e-01,9.99999e-01,9.98010e-01,6.72050e-01,9.99963e-01
5.449489501e-01,6.76066e-01,9.99999e-01,9.98146e-01,6.77347e-01,9.99962e-01
5.476736949e-01,6.81449e-01,9.99999e-01,9.98361e-01,6.82579e-01,9.99981e-01
5.504120634e-01,6.86926e-01,9.99999e-01,9.98810e-01,6.87747e-01,9.99994e-01
5.531641237e-01,6.92436e-01,9.99999e-01,9.99401e-01,6.92851e-01,9.99998e-01
5.559299443e-01,6.97690e-01,9.99999e-01,9.99710e-01,6.97891e-01,9.99999e-01
5.587095940e-01,7.02740e-01,9.99999e-01,9.99818e-01,7.02867e-01,9.99999e-01
5.615031420e-01,7.07636e-01,9.99999e-01,9.99797e-01,7.07779e-01,9.99999e-01
5.643106577e-01,7.12463e-01,9.99999e-01,9.99770e-01,7.12628e-01,9.99997e-01
5.671322110e-01,7.15394e-01,9.99999e-01,9.97210e-01,7.17413e-01,9.99974e-01
5.699678720e-01,7.19951e-01,9.99999e-01,9.97051e-01,7.22134e-01,9.99923e-01
5.728177114e-01,7.24509e-01,9.99999e-01,9.96920e-01,7.26793e-01,9.99936e-01
5.756818000e-01,7.29294e-01,9.99999e-01,9.97174e-01,7.31388e-01,9.99960e-01
5.785602090e-01,7.34102e-01,9.99999e-01,9.97538e-01,7.35922e-01,9.99987e-01
5.814530100e-01,7.38557e-01,9.99999e-01,9.97526e-01,7.40392e-01,9.99994e-01
5.843602750e-01,7.42590e-01,9.99999e-01,9.97047e-01,7.44801e-01,9.99983e-01
5.872820764e-01,7.30236e-01,9.99999e-01,9.74928e-01,7.49148e-01,9.99820e-01
5.902184868e-01,7.30213e-01,9.99999e-01,9.69650e-01,7.53434e-01,9.99512e-01
5.931695792e-01,7.41026e-01,9.99999e-01,9.78503e-01,7.57660e-01,9.99531e-01
5.961354271e-01,7.43669e-01,9.99999e-01,9.76431e-01,7.61824e-01,9.99730e-01
5.991161043e-01,7.52650e-01,9.99999e-01,9.82744e-01,7.65929e-01,9.99916e-01
6.021116848e-01,7.62402e-01,9.99999e-01,9.90175e-01,7.69974e-01,9.99990e-01
6.051222432e-01,7.70103e-01,9.99999e-01,9.95017e-01,7.73960e-01,9.99998e-01
6.081478544e-01,7.76213e-01,9.99999e-01,9.97847e-01,7.77887e-01,9.99999e-01
6.111885937e-01,7.81044e-01,9.99999e-01,9.99089e-01,7.81756e-01,9.99999e-01
6.142445367e-01,7.85247e-01,9.99999e-01,9.99592e-01,7.85567e-01,9.99999e-01
6.173157594e-01,7.89144e-01,9.99999e-01,9.99775e-01,7.89321e-01,9.99999e-01
6.204023382e-01,7.92867e-01,9.99999e-01,9.99809e-01,7.93018e-01,9.99999e-01
6.235043498e-01,7.95989e-01,9.99999e-01,9.99159e-01,7.96659e-01,9.99997e-01
6.266218716e-01,7.96678e-01,9.99999e-01,9.95574e-01,8.00244e-01,9.99968e-01
6.297549810e-01,8.02419e-01,9.99999e-01,9.98374e-01,8.03774e-01,9.99937e-01
6.329037559e-01,8.04620e-01,9.99999e-01,9.96791e-01,8.07250e-01,9.99949e-01
6.360682746e-01,8.08430e-01,9.99999e-01,9.97264e-01,8.10671e-01,9.99970e-01
6.392486160e-01,8.11145e-01,9.99999e-01,9.96457e-01,8.14039e-01,9.99986e-01
6.424448591e-01,8.13459e-01,9.99999e-01,9.95254e-01,8.17354e-01,9.99978e-01
6.456570834e-01,8.02614e-01,9.99999e-01,9.78180e-01,8.20617e-01,9.99877e-01
6.488853688e-01,8.10396e-01,9.99999e-01,9.84031e-01,8.23828e-01,9.99658e-01
6.521297956e-01,8.13312e-01,9.99999e-01,9.83741e-01,8.26987e-01,9.99717e-01
6.553904446e-01,8.16437e-01,9.99999e-01,9.83751e-01,8.30096e-01,9.99789e-01
6.586673968e-01,8.21513e-01,9.99999e-01,9.86094e-01,8.33155e-01,9.99929e-01
6.619607338e-01,8.29648e-01,9.99999e-01,9.92220e-01,8.36164e-01,9.99984e-01
6.652705375e-01,8.35195e-01,9.99999e-01,9.95323e-01,8.39125e-01,9.99991e-01
6.685968902e-01,8.40205e-01,9.99999e-01,9.97825e-01,8.42037e-01,9.99998e-01
6.719398746e-01,8.44051e-01,9.99999e-01,9.98992e-01,8.44901e-01,9.99999e-01
6.752995740e-01,8.47255e-01,9.99999e-01,9.99453e-01,8.47719e-01,9.99999e-01
6.786760719e-01,8.49817e-01,9.99999e-01,9.99209e-01,8.50490e-01,9.99998e-01
6.820694522e-01,8.52055e-01,9.99999e-01,9.98647e-01,8.53214e-01,9.99992e-01
6.854797995e-01,8.54389e-01,9.99999e-01,9.98255e-01,8.55894e-01,9.99984e-01
6.889071985e-01,8.54868e-01,9.99999e-01,9.95773e-01,8.58529e-01,9.99961e-01
6.923517345e-01,8.03654e-01,9.99999e-01,9.33574e-01,8.61119e-01,9.99669e-01
6.958134932e-01,8.32925e-01,9.99999e-01,9.65111e-01,8.63666e-01,9.99268e-01
6.992925606e-01,8.36621e-01,9.99999e-01,9.66521e-01,8.66170e-01,9.99340e-01
7.027890234e-01,8.32498e-01,9.99999e-01,9.58883e-01,8.68632e-01,9.99496e-01
7.063029686e-01,8.40576e-01,9.99999e-01,9.65254e-01,8.71052e-01,9.99749e-01
7.098344834e-01,8.44149e-01,9.99999e-01,9.66618e-01,8.73430e-01,9.99851e-01
7.133836558e-01,8.36873e-01,9.99999e-01,9.55868e-01,8.75768e-01,9.99705e-01
7.169505741e-01,6.17264e-01,9.99999e-01,7.04611e-01,8.78066e-01,9.97685e-01
7.205353270e-01,7.37510e-01,9.99999e-01,8.41201e-01,8.80324e-01,9.95920e-01
7.241380036e-01,7.04762e-01,9.99999e-01,8.01381e-01,8.82543e-01,9.96476e-01
7.277586936e-01,7.22571e-01,9.99999e-01,8.19078e-01,8.84724e-01,9.97118e-01
7.313974871e-01,7.15130e-01,9.99999e-01,8.07445e-01,8.86867e-01,9.98649e-01
7.350544745e-01,7.90030e-01,9.99999e-01,8.89117e-01,8.88973e-01,9.99530e-01
7.387297469e-01,8.16720e-01,9.99999e-01,9.16786e-01,8.91041e-01,9.99784e-01
7.424233956e-01,8.55802e-01,9.99999e-01,9.58304e-01,8.93074e-01,9.99958e-01
7.461355126e-01,8.72237e-01,9.99999e-01,9.74495e-01,8.95071e-01,9.99992e-01
7.498661902e-01,8.86310e-01,9.99999e-01,9.88048e-01,8.97033e-01,9.99996e-01
7.536155211e-01,8.93670e-01,9.99999e-01,9.94115e-01,8.98961e-01,9.99997e-01
7.573835987e-01,8.98122e-01,9.99999e-01,9.96967e-01,9.00854e-01,9.99999e-01
7.611705167e-01,9.01012e-01,9.99999e-01,9.98114e-01,9.02714e-01,9.99999e-01
7.649763693e-01,9.03471e-01,9.99999e-01,9.98817e-01,9.04541e-01,9.99999e-01
7.688012511e-01,9.05589e-01,9.99999e-01,9.99176e-01,9.06335e-01,9.99999e-01
7.726452574e-01,9.07482e-01,9.99999e-01,9.99321e-01,9.08097e-01,9.99999e-01
7.765084837e-01,9.08950e-01,9.99999e-01,9.99034e-01,9.09828e-01,9.99998e-01
7.803910261e-01,9.07729e-01,9.99999e-01,9.95835e-01,9.11528e-01,9.99995e-01
7.842929812e-01,8.99974e-01,9.99999e-01,9.85545e-01,9.13197e-01,9.99972e-01
7.882144461e-01,8.87656e-01,9.99999e-01,9.70487e-01,9.14837e-01,9.99794e-01
7.921555184e-01,9.01222e-01,9.99999e-01,9.83738e-01,9.16447e-01,9.99642e-01
7.961162960e-01,8.91456e-01,9.99999e-01,9.71385e-01,9.18027e-01,9.99660e-01
8.000968774e-01,8.88897e-01,9.99999e-01,9.66983e-01,9.19580e-01,9.99638e-01
8.040973618e-01,8.90442e-01,9.99999e-01,9.66988e-01,9.21104e-01,9.99712e-01
8.081178486e-01,8.55454e-01,9.99999e-01,9.27469e-01,9.22600e-01,9.99730e-01
8.121584379e-01,6.78294e-01,9.99999e-01,7.34805e-01,9.24069e-01,9.98942e-01
8.162192301e-01,6.41311e-01,9.99999e-01,6.95686e-01,9.25512e-01,9.96031e-01
8.203003262e-01,7.75045e-01,9.99999e-01,8.40045e-01,9.26928e-01,9.95354e-01
8.244018279e-01,7.29938e-01,9.99999e-01,7.89220e-01,9.28318e-01,9.96300e-01
8.285238370e-01,7.44075e-01,9.99999e-01,8.02685e-01,9.29683e-01,9.97093e-01
8.326664562e-01,7.45485e-01,9.99999e-01,8.01680e-01,9.31023e-01,9.98796e-01
8.368297885e-01,7.94307e-01,9.99999e-01,8.52185e-01,9.32338e-01,9.99724e-01
8.410139374e-01,8.48565e-01,9.99999e-01,9.09033e-01,9.33629e-01,9.99838e-01
8.452190071e-01,8.91990e-01,9.99999e-01,9.54197e-01,9.34897e-01,9.99903e-01
8.494451021e-01,9.10898e-01,9.99999e-01,9.73109e-01,9.36141e-01,9.99922e-01
8.536923276e-01,9.22345e-01,9.99999e-01,9.84024e-01,9.37362e-01,9.99952e-01
8.579607893e-01,9.29282e-01,9.99999e-01,9.90125e-01,9.38560e-01,9.99988e-01
8.622505932e-01,9.33832e-01,9.99999e-01,9.93718e-01,9.39736e-01,9.99997e-01
8.665618462e-01,9.37227e-01,9.99999e-01,9.96107e-01,9.40891e-01,9.99998e-01
8.708946554e-01,9.37822e-01,9.99999e-01,9.95541e-01,9.42024e-01,9.99997e-01
8.752491287e-01,9.37510e-01,9.99999e-01,9.94040e-01,9.43136e-01,9.99993e-01
8.796253743e-01,9.36422e-01,9.99999e-01,9.91752e-01,9.44227e-01,9.99981e-01
8.840235012e-01,9.36348e-01,9.99999e-01,9.90588e-01,9.45298e-01,9.99942e-01
8.884436187e-01,9.14343e-01,9.99999e-01,9.66336e-01,9.46349e-01,9.99836e-01
8.928858368e-01,6.67047e-01,9.99999e-01,7.04760e-01,9.47380e-01,9.99056e-01
8.973502660e-01,5.12405e-01,9.99999e-01,5.42908e-01,9.48392e-01,9.95173e-01
9.018370173e-01,6.90167e-01,9.99999e-01,7.32512e-01,9.49385e-01,9.92422e-01
9.063462024e-01,7.15207e-01,9.99999e-01,7.57609e-01,9.50360e-01,9.93340e-01
9.108779334e-01,6.13755e-01,9.99999e-01,6.49659e-01,9.51316e-01,9.93080e-01
9.154323231e-01,5.77446e-01,9.99999e-01,6.09888e-01,9.52254e-01,9.94277e-01
9.200094847e-01,6.47297e-01,9.99999e-01,6.81279e-01,9.53175e-01,9.96793e-01
9.246095321e-01,5.41145e-01,9.99999e-01,5.69294e-01,9.54078e-01,9.96305e-01
9.292325798e-01,4.41789e-02,9.99999e-01,4.69348e-02,9.54965e-01,9.85670e-01
9.338787427e-01,1.27098e-02,9.99999e-01,1.41145e-02,9.55834e-01,9.42080e-01
9.385481364e-01,1.56323e-01,9.99999e-01,1.75417e-01,9.56687e-01,9.31497e-01
9.432408771e-01,9.20005e-02,9.99999e-01,1.02147e-01,9.57524e-01,9.40616e-01
9.479570815e-01,3.35788e-02,9.99999e-01,3.68282e-02,9.58346e-01,9.51396e-01
9.526968669e-01,6.99989e-02,9.99999e-01,7.52319e-02,9.59151e-01,9.70066e-01
9.574603512e-01,7.93045e-02,9.99999e-01,8.38990e-02,9.59942e-01,9.84681e-01
9.622476530e-01,1.19161e-01,9.99999e-01,1.25365e-01,9.60717e-01,9.89382e-01
9.670588912e-01,2.80661e-01,9.99999e-01,2.94044e-01,9.61478e-01,9.92726e-01
9.718941857e-01,4.22272e-01,9.99999e-01,4.41214e-01,9.62224e-01,9.94640e-01
9.767536566e-01,4.85029e-01,9.99999e-01,5.05759e-01,9.62957e-01,9.95901e-01
9.816374249e-01,5.76672e-01,9.99999e-01,5.99259e-01,9.63675e-01,9.98579e-01
9.865456120e-01,6.98212e-01,9.99999e-01,7.24215e-01,9.64379e-01,9.99703e-01
9.914783401e-01,7.89480e-01,9.99999e-01,8.18120e-01,9.65071e-01,9.99917e-01
9.964357318e-01,8.65618e-01,9.99999e-01,8.96361e-01,9.65749e-01,9.99951e-01
1.001417910e+00,9.04909e-01,9.99999e-01,9.36426e-01,9.66414e-01,9.99926e-01
1.006425000e+00,9.31379e-01,9.99999e-01,9.63197e-01,9.67066e-01,9.99895e-01
1.011457125e+00,9.45370e-01,9.99999e-01,9.77013e-01,9.67706e-01,9.99902e-01
1.016514411e+00,9.53093e-01,9.99999e-01,9.84328e-01,9.68333e-01,9.99931e-01
1.021596983e+00,9.56764e-01,9.99999e-01,9.87491e-01,9.68949e-01,9.99930e-01
1.026704968e+00,9.60037e-01,9.99999e-01,9.90229e-01,9.69553e-01,9.99953e-01
1.031838492e+00,9.63239e-01,9.99999e-01,9.92893e-01,9.70145e-01,9.99986e-01
1.036997685e+00,9.66620e-01,9.99999e-01,9.95771e-01,9.70726e-01,9.99997e-01
1.042182673e+00,9.66396e-01,9.99999e-01,9.94955e-01,9.71296e-01,9.99998e-01
1.047393587e+00,9.65361e-01,9.99999e-01,9.93318e-01,9.71855e-01,9.99998e-01
1.052630555e+00,9.63494e-01,9.99999e-01,9.90840e-01,9.72403e-01,9.99997e-01
1.057893707e+00,9.58103e-01,9.99999e-01,9.84753e-01,9.72941e-01,9.99994e-01
1.063183176e+00,9.49178e-01,9.99999e-01,9.75059e-01,9.73468e-01,9.99986e-01
1.068499092e+00,9.33668e-01,9.99999e-01,9.58632e-01,9.73985e-01,9.99971e-01
1.073841587e+00,9.27545e-01,9.99999e-01,9.51882e-01,9.74493e-01,9.99937e-01
1.079210795e+00,9.15063e-01,9.99999e-01,9.38693e-01,9.74990e-01,9.99830e-01
1.084606849e+00,8.86228e-01,9.99999e-01,9.08875e-01,9.75478e-01,9.99593e-01
1.090029883e+00,8.50595e-01,9.99999e-01,8.72284e-01,9.75956e-01,9.99157e-01
1.095480033e+00,6.72742e-01,9.99999e-01,6.90035e-01,9.76426e-01,9.98476e-01
1.100957433e+00,3.90025e-01,9.99999e-01,4.00375e-01,9.76886e-01,9.97197e-01
1.106462220e+00,1.14892e-01,9.99999e-01,1.18117e-01,9.77337e-01,9.95251e-01
1.111994531e+00,1.28025e-02,9.99999e-01,1.32599e-02,9.77780e-01,9.87444e-01
1.117554504e+00,1.40243e-03,9.99999e-01,1.50058e-03,9.78214e-01,9.55407e-01
1.123142276e+00,1.17972e-02,9.99999e-01,1.34319e-02,9.78640e-01,8.97467e-01
1.128757988e+00,3.42197e-02,9.99999e-01,3.96111e-02,9.79057e-01,8.82368e-01
1.134401778e+00,1.80698e-02,9.99999e-01,2.05200e-02,9.79466e-01,8.99054e-01
1.140073787e+00,1.12399e-01,9.99999e-01,1.24888e-01,9.79868e-01,9.18492e-01
1.145774156e+00,2.14700e-02,9.99999e-01,2.36750e-02,9.80262e-01,9.25126e-01
1.151503026e+00,1.36473e-02,9.99999e-01,1.45332e-02,9.80648e-01,9.57571e-01
1.157260541e+00,1.78487e-02,9.99999e-01,1.84312e-02,9.81026e-01,9.87120e-01
1.163046844e+00,4.96059e-02,9.99999e-01,5.07322e-02,9.81397e-01,9.96332e-01
1.168862078e+00,1.10637e-01,9.99999e-01,1.12906e-01,9.81761e-01,9.98108e-01
1.174706389e+00,2.50646e-01,9.99999e-01,2.55850e-01,9.82118e-01,9.97493e-01
1.180579921e+00,4.21618e-01,9.99999e-01,4.30773e-01,9.82469e-01,9.96213e-01
1.186482820e+00,6.02618e-01,9.99999e-01,6.15548e-01,9.82812e-01,9.96113e-01
1.192415234e+00,7.36890e-01,9.99999e-01,7.51709e-01,9.83148e-01,9.97087e-01
1.198377311e+00,7.71264e-01,9.99999e-01,7.86383e-01,9.83479e-01,9.97249e-01
1.204369197e+00,7.83239e-01,9.99999e-01,7.98120e-01,9.83802e-01,9.97510e-01
1.210391043e+00,7.91148e-01,9.99999e-01,8.05133e-01,9.84120e-01,9.98484e-01
1.216442998e+00,8.17979e-01,9.99999e-01,8.31687e-01,9.84431e-01,9.99071e-01
1.222525213e+00,8.52018e-01,9.99999e-01,8.65723e-01,9.84736e-01,9.99423e-01
1.228637839e+00,8.90821e-01,9.99999e-01,9.04596e-01,9.85035e-01,9.99731e-01
1.234781029e+00,9.14599e-01,9.99999e-01,9.28287e-01,9.85329e-01,9.99922e-01
1.240954934e+00,9.40263e-01,9.99999e-01,9.54005e-01,9.85616e-01,9.99978e-01
1.247159708e+00,9.50372e-01,9.99999e-01,9.63978e-01,9.85898e-01,9.99985e-01
1.253395507e+00,9.54544e-01,9.99999e-01,9.67942e-01,9.86175e-01,9.99981e-01
1.259662485e+00,9.56340e-01,9.99999e-01,9.69506e-01,9.86446e-01,9.99971e-01
1.265960797e+00,9.39098e-01,9.99999e-01,9.51789e-01,9.86712e-01,9.99951e-01
1.272290601e+00,9.13242e-01,9.99999e-01,9.25373e-01,9.86973e-01,9.99915e-01
1.278652054e+00,8.46865e-01,9.99999e-01,8.57948e-01,9.87228e-01,9.99850e-01
1.285045314e+00,7.49420e-01,9.99999e-01,7.59133e-01,9.87479e-01,9.99720e-01
1.291470541e+00,6.11877e-01,9.99999e-01,6.19784e-01,9.87725e-01,9.99509e-01
1.297927893e+00,5.03741e-01,9.99999e-01,5.10343e-01,9.87966e-01,9.99084e-01
1.304417533e+00,4.50728e-01,9.99999e-01,4.56994e-01,9.88202e-01,9.98062e-01
1.310939621e+00,4.01953e-01,9.99999e-01,4.08279e-01,9.88434e-01,9.96026e-01
1.317494319e+00,3.74258e-01,9.99999e-01,3.81348e-01,9.88661e-01,9.92661e-01
1.324081790e+00,2.42471e-01,9.99999e-01,2.48162e-01,9.88884e-01,9.88046e-01
1.330702199e+00,3.61191e-02,9.99999e-01,3.72822e-02,9.89102e-01,9.79477e-01
1.337355710e+00,8.87235e-06,9.99999e-01,9.33353e-06,9.89316e-01,9.60852e-01
1.344042489e+00,1.84042e-08,9.99999e-01,2.09762e-08,9.89526e-01,8.86670e-01
1.350762701e+00,1.62319e-27,9.99999e-01,2.47571e-27,9.89732e-01,6.62446e-01
1.357516515e+00,9.14804e-42,9.99999e-01,3.09460e-41,9.89934e-01,2.98618e-01
1.364304097e+00,8.06860e-26,9.99999e-01,6.77648e-25,9.90131e-01,1.20254e-01
1.371125618e+00,1.07414e-15,9.99999e-01,7.99034e-15,9.90325e-01,1.35743e-01
1.377981246e+00,4.35501e-15,9.99999e-01,2.43531e-14,9.90515e-01,1.80539e-01
1.384871152e+00,3.16991e-21,9.99999e-01,1.57705e-20,9.90702e-01,2.02889e-01
1.391795508e+00,5.57352e-26,9.99999e-01,2.57299e-25,9.90885e-01,2.18608e-01
1.398754485e+00,8.17589e-20,9.99999e-01,2.89664e-19,9.91064e-01,2.84799e-01
1.405748258e+00,1.42873e-19,9.99999e-01,3.00362e-19,9.91240e-01,4.79872e-01
1.412776999e+00,6.91230e-19,9.99998e-01,9.74892e-19,9.91412e-01,7.15173e-01
1.419840884e+00,1.20152e-18,9.99998e-01,1.40358e-18,9.91581e-01,8.63303e-01
1.426940089e+00,2.51967e-12,9.99998e-01,2.84080e-12,9.91746e-01,8.94339e-01
1.434074789e+00,6.22144e-11,9.99998e-01,7.15563e-11,9.91909e-01,8.76538e-01
1.441245163e+00,4.61623e-09,9.99999e-01,5.36702e-09,9.92068e-01,8.66986e-01
1.448451389e+00,3.34672e-06,9.99997e-01,3.82194e-06,9.92224e-01,8.82519e-01
1.455693646e+00,1.88534e-04,9.99998e-01,2.09385e-04,9.92377e-01,9.07334e-01
1.462972114e+00,2.62522e-04,9.99999e-01,2.90202e-04,9.92527e-01,9.11426e-01
1.470286975e+00,9.07484e-05,9.99999e-01,1.00144e-04,9.92674e-01,9.12867e-01
