#,Wave/freq,Total,N2,H2O,Rayleigh,CIA
4.000000000e-01,9.92138e-03,9.99999e-01,9.99478e-01,9.92655e-03,9.99999e-01
4.020000000e-01,1.08709e-02,9.99999e-01,9.99675e-01,1.08745e-02,9.99999e-01
4.040100000e-01,1.18887e-02,9.99999e-01,9.99862e-01,1.18903e-02,9.99999e-01
4.060300500e-01,1.29778e-02,9.99999e-01,9.99967e-01,1.29782e-02,9.99999e-01
4.080602003e-01,1.41409e-02,9.99999e-01,9.99989e-01,1.41411e-02,9.99999e-01
4.101005013e-01,1.53821e-02,9.99999e-01,9.99998e-01,1.53821e-02,9.99999e-01
4.121510038e-01,1.67039e-02,9.99999e-01,9.99980e-01,1.67042e-02,9.99999e-01
4.142117588e-01,1.81079e-02,9.99999e-01,9.99858e-01,1.81104e-02,9.99999e-01
4.162828176e-01,1.95911e-02,9.99999e-01,9.99354e-01,1.96038e-02,9.99999e-01
4.183642317e-01,2.11789e-02,9.99999e-01,9.99616e-01,2.11870e-02,9.99999e-01
4.204560528e-01,2.28577e-02,9.99999e-01,9.99763e-01,2.28631e-02,9.99999e-01
4.225583331e-01,2.46324e-02,9.99999e-01,9.99911e-01,2.46346e-02,9.99999e-01
4.246711247e-01,2.65025e-02,9.99999e-01,9.99930e-01,2.65043e-02,9.99999e-01
4.267944804e-01,2.84718e-02,9.99999e-01,9.99896e-01,2.84747e-02,9.99999e-01
4.289284528e-01,3.05459e-02,9.99999e-01,9.99919e-01,3.05484e-02,9.99999e-01
4.310730950e-01,3.27264e-02,9.99999e-01,9.99965e-01,3.27275e-02,9.99999e-01
4.332284605e-01,3.50141e-02,9.99999e-01,9.99990e-01,3.50145e-02,9.99999e-01
4.353946028e-01,3.74111e-02,9.99999e-01,9.99995e-01,3.74112e-02,9.99999e-01
4.375715758e-01,3.99174e-02,9.99999e-01,9.99937e-01,3.99198e-02,9.99999e-01
4.397594337e-01,4.25183e-02,9.99999e-01,9.99441e-01,4.25421e-02,9.99999e-01
4.419582309e-01,4.51516e-02,9.99999e-01,9.97172e-01,4.52796e-02,9.99999e-01
4.441680220e-01,4.80255e-02,9.99999e-01,9.97743e-01,4.81340e-02,9.99999e-01
4.463888621e-01,5.09874e-02,9.99999e-01,9.97667e-01,5.11066e-02,9.99999e-01
4.486208064e-01,5.41197e-02,9.99999e-01,9.98543e-01,5.41986e-02,9.99999e-01
4.508639105e-01,5.73718e-02,9.99999e-01,9.99318e-01,5.74109e-02,9.99999e-01
4.531182300e-01,6.07282e-02,9.99999e-01,9.99730e-01,6.07446e-02,9.99999e-01
4.553838212e-01,6.41885e-02,9.99999e-01,9.99817e-01,6.42002e-02,9.99999e-01
4.576607403e-01,6.77726e-02,9.99999e-01,9.99915e-01,6.77783e-02,9.99999e-01
4.599490440e-01,7.14749e-02,9.99999e-01,9.99939e-01,7.14791e-02,9.99999e-01
4.622487892e-01,7.53022e-02,9.99999e-01,9.99989e-01,7.53030e-02,9.99999e-01
4.645600332e-01,7.92466e-02,9.99999e-01,9.99959e-01,7.92497e-02,9.99999e-01
4.668828333e-01,8.32625e-02,9.99999e-01,9.99318e-01,8.33192e-02,9.99999e-01
4.692172475e-01,8.73830e-02,9.99999e-01,9.98534e-01,8.75111e-02,9.99999e-01
4.715633337e-01,9.17371e-02,9.99999e-01,9.99044e-01,9.18248e-02,9.99999e-01
4.739211504e-01,9.61713e-02,9.99999e-01,9.99081e-01,9.62596e-02,9.99999e-01
4.762907561e-01,1.00767e-01,9.99999e-01,9.99522e-01,1.00815e-01,9.99999e-01
4.786722099e-01,1.05468e-01,9.99999e-01,9.99804e-01,1.05489e-01,9.99999e-01
4.810655710e-01,1.10275e-01,9.99999e-01,9.99941e-01,1.10281e-01,9.99999e-01
4.834708988e-01,1.15127e-01,9.99999e-01,9.99451e-01,1.15190e-01,9.99999e-01
4.858882533e-01,1.20088e-01,9.99999e-01,9.98959e-01,1.20213e-01,9.99999e-01
4.883176946e-01,1.25242e-01,9.99999e-01,9.99135e-01,1.25351e-01,9.99999e-01
4.907592831e-01,1.30497e-01,9.99999e-01,9.99213e-01,1.30599e-01,9.99999e-01
4.932130795e-01,1.35882e-01,9.99999e-01,9.99442e-01,1.35957e-01,9.99999e-01
4.956791449e-01,1.41381e-01,9.99999e-01,9.99705e-01,1.41423e-01,9.99999e-01
4.981575406e-01,1.46779e-01,9.99999e-01,9.98536e-01,1.46994e-01,9.99999e-01
5.006483283e-01,1.52089e-01,9.99999e-01,9.96233e-01,1.52668e-01,9.99973e-01
5.031515699e-01,1.55393e-01,9.99999e-01,9.80951e-01,1.58442e-01,9.99797e-01
5.056673278e-01,1.62608e-01,9.99999e-01,9.89843e-01,1.64314e-01,9.99767e-01
5.081956644e-01,1.68075e-01,9.99999e-01,9.87187e-01,1.70281e-01,9.99850e-01
5.107366428e-01,1.74808e-01,9.99999e-01,9.91331e-01,1.76341e-01,9.99971e-01
5.132903260e-01,1.81583e-01,9.99999e-01,9.95028e-01,1.82490e-01,9.99996e-01
5.158567776e-01,1.88329e-01,9.99999e-01,9.97895e-01,1.88726e-01,9.99999e-01
5.184360615e-01,1.94882e-01,9.99999e-01,9.99158e-01,1.95046e-01,9.99999e-01
5.210282418e-01,2.01383e-01,9.99999e-01,9.99686e-01,2.01446e-01,9.99999e-01
5.236333830e-01,2.07660e-01,9.99999e-01,9.98741e-01,2.07923e-01,9.99990e-01
5.262515499e-01,2.14303e-01,9.99999e-01,9.99210e-01,2.14475e-01,9.99987e-01
5.288828077e-01,2.20936e-01,9.99999e-01,9.99279e-01,2.21097e-01,9.99991e-01
5.315272217e-01,2.27641e-01,9.99999e-01,9.99361e-01,2.27787e-01,9.99997e-01
5.341848578e-01,2.34444e-01,9.99999e-01,9.99586e-01,2.34541e-01,9.99999e-01
5.368557821e-01,2.41004e-01,9.99999e-01,9.98542e-01,2.41356e-01,9.99996e-01
5.395400610e-01,2.46922e-01,9.99999e-01,9.94776e-01,2.48229e-01,9.99956e-01
5.422377613e-01,2.53379e-01,9.99999e-01,9.93158e-01,2.55156e-01,9.99876e-01
5.449489501e-01,2.60444e-01,9.99999e-01,9.93679e-01,2.62134e-01,9.99871e-01
5.476736949e-01,2.67624e-01,9.99999e-01,9.94357e-01,2.69159e-01,9.99936e-01
5.504120634e-01,2.75092e-01,9.99999e-01,9.95905e-01,2.76228e-01,9.99982e-01
5.531641237e-01,2.82753e-01,9.99999e-01,9.97937e-01,2.83337e-01,9.99997e-01
5.559299443e-01,2.90195e-01,9.99999e-01,9.99003e-01,2.90484e-01,9.99999e-01
5.587095940e-01,2.97479e-01,9.99999e-01,9.99378e-01,2.97664e-01,9.99999e-01
5.615031420e-01,3.04664e-01,9.99999e-01,9.99307e-01,3.04875e-01,9.99998e-01
5.643106577e-01,3.11869e-01,9.99999e-01,9.99224e-01,3.12113e-01,9.99992e-01
5.671322110e-01,3.16378e-01,9.99999e-01,9.90699e-01,3.19375e-01,9.99915e-01
5.699678720e-01,3.23250e-01,9.99999e-01,9.89826e-01,3.26657e-01,9.99740e-01
5.728177114e-01,3.30375e-01,9.99999e-01,9.89488e-01,3.33956e-01,9.99783e-01
5.756818000e-01,3.37925e-01,9.99999e-01,9.90329e-01,3.41270e-01,9.99867e-01
5.785602090e-01,3.45637e-01,9.99999e-01,9.91555e-01,3.48594e-01,9.99959e-01
5.814530100e-01,3.52908e-01,9.99999e-01,9.91535e-01,3.55927e-01,9.99981e-01
5.843602750e-01,3.59615e-01,9.99999e-01,9.90009e-01,3.63264e-01,9.99943e-01
5.872820764e-01,3.40113e-01,9.99999e-01,9.18290e-01,3.70603e-01,9.99387e-01
5.902184868e-01,3.39461e-01,9.99999e-01,8.99684e-01,3.77941e-01,9.98332e-01
5.931695792e-01,3.57287e-01,9.99999e-01,9.28861e-01,3.85275e-01,9.98376e-01
5.961354271e-01,3.61491e-01,9.99999e-01,9.21659e-01,3.92603e-01,9.99019e-01
5.991161043e-01,3.76600e-01,9.99999e-01,9.41955e-01,3.99920e-01,9.99714e-01
6.021116848e-01,3.93605e-01,9.99999e-01,9.66585e-01,4.07226e-01,9.99964e-01
6.051222432e-01,4.07443e-01,9.99999e-01,9.82935e-01,4.14517e-01,9.99997e-01
6.081478544e-01,4.18674e-01,9.99999e-01,9.92611e-01,4.21790e-01,9.99999e-01
6.111885937e-01,4.27697e-01,9.99999e-01,9.96860e-01,4.29044e-01,9.99999e-01
6.142445367e-01,4.35665e-01,9.99999e-01,9.98599e-01,4.36276e-01,9.99999e-01
6.173157594e-01,4.43141e-01,9.99999e-01,9.99228e-01,4.43483e-01,9.99999e-01
6.204023382e-01,4.50370e-01,9.99999e-01,9.99350e-01,4.50663e-01,9.99998e-01
6.235043498e-01,4.56519e-01,9.99999e-01,9.97178e-01,4.57814e-01,9.99992e-01
6.266218716e-01,4.57869e-01,9.99999e-01,9.84909e-01,4.64934e-01,9.99893e-01
6.297549810e-01,4.69297e-01,9.99999e-01,9.94441e-01,4.72021e-01,9.99786e-01
6.329037559e-01,4.73720e-01,9.99999e-01,9.88995e-01,4.79072e-01,9.99828e-01
6.360682746e-01,4.81501e-01,9.99999e-01,9.90665e-01,4.86087e-01,9.99898e-01
6.392486160e-01,4.87069e-01,9.99999e-01,9.87888e-01,4.93063e-01,9.99954e-01
6.424448591e-01,4.91947e-01,9.99999e-01,9.83968e-01,4.99998e-01,9.99928e-01
6.456570834e-01,4.70253e-01,9.99999e-01,9.28107e-01,5.06891e-01,9.99581e-01
6.488853688e-01,4.81058e-01,9.99999e-01,9.37480e-01,5.13739e-01,9.98829e-01
6.521297956e-01,4.91794e-01,9.99999e-01,9.45700e-01,5.20543e-01,9.99017e-01
6.553904446e-01,4.98334e-01,9.99999e-01,9.45763e-01,5.27299e-01,9.99263e-01
6.586673968e-01,5.08847e-01,9.99999e-01,9.53111e-01,5.34007e-01,9.99759e-01
6.619607338e-01,5.25785e-01,9.99999e-01,9.72526e-01,5.40666e-01,9.99948e-01
6.652705375e-01,5.38471e-01,9.99999e-01,9.83941e-01,5.47273e-01,9.99973e-01
6.685968902e-01,5.49681e-01,9.99999e-01,9.92514e-01,5.53828e-01,9.99995e-01
6.719398746e-01,5.58381e-01,9.99999e-01,9.96520e-01,5.60330e-01,9.99999e-01
6.752995740e-01,5.65714e-01,9.99999e-01,9.98122e-01,5.66778e-01,9.99998e-01
6.786760719e-01,5.71624e-01,9.99999e-01,9.97305e-01,5.73170e-01,9.99995e-01
6.820694522e-01,5.76812e-01,9.99999e-01,9.95373e-01,5.79506e-01,9.99975e-01
6.854797995e-01,5.82264e-01,9.99999e-01,9.94039e-01,5.85785e-01,9.99948e-01
6.889071985e-01,5.83590e-01,9.99999e-01,9.85910e-01,5.92006e-01,9.99870e-01
6.923517345e-01,4.75033e-01,9.99999e-01,7.95045e-01,5.98168e-01,9.98868e-01
6.958134932e-01,5.33996e-01,9.99999e-01,8.85963e-01,6.04271e-01,9.97447e-01
6.992925606e-01,5.42847e-01,9.99999e-01,8.91457e-01,6.10313e-01,9.97754e-01
7.027890234e-01,5.33217e-01,9.99999e-01,8.66691e-01,6.16295e-01,9.98276e-01
7.063029686e-01,5.50837e-01,9.99999e-01,8.86043e-01,6.22215e-01,9.99141e-01
7.098344834e-01,5.58798e-01,9.99999e-01,8.90151e-01,6.28074e-01,9.99492e-01
7.133836558e-01,5.44845e-01,9.99999e-01,8.60418e-01,6.33871e-01,9.98991e-01
7.169505741e-01,2.21699e-01,9.99999e-01,3.49381e-01,6.39605e-01,9.92090e-01
7.205353270e-01,3.63528e-01,9.99999e-01,5.71317e-01,6.45276e-01,9.86086e-01
7.241380036e-01,3.15745e-01,9.99999e-01,4.91007e-01,6.50884e-01,9.87974e-01
7.277586936e-01,3.42599e-01,9.99999e-01,5.27100e-01,6.56428e-01,9.90158e-01
7.313974871e-01,3.24955e-01,9.99999e-01,4.93215e-01,6.61909e-01,9.95378e-01
7.350544745e-01,4.49287e-01,9.99999e-01,6.74349e-01,6.67326e-01,9.98391e-01
7.387297469e-01,5.00335e-01,9.99999e-01,7.44343e-01,6.72678e-01,9.99262e-01
7.424233956e-01,5.85663e-01,9.99999e-01,8.63973e-01,6.77967e-01,9.99857e-01
7.461355126e-01,6.25146e-01,9.99999e-01,9.15059e-01,6.83192e-01,9.99974e-01
7.498661902e-01,6.60362e-01,9.99999e-01,9.59344e-01,6.88353e-01,9.99990e-01
7.536155211e-01,6.79493e-01,9.99999e-01,9.79879e-01,6.93449e-01,9.99994e-01
7.573835987e-01,6.91205e-01,9.99999e-01,9.89583e-01,6.98482e-01,9.99998e-01
7.611705167e-01,6.98890e-01,9.99999e-01,9.93517e-01,7.03450e-01,9.99999e-01
7.649763693e-01,7.05479e-01,9.99999e-01,9.95939e-01,7.08355e-01,9.99999e-01
7.688012511e-01,7.11180e-01,9.99999e-01,9.97173e-01,7.13196e-01,9.99999e-01
7.726452574e-01,7.16304e-01,9.99999e-01,9.97675e-01,7.17973e-01,9.99998e-01
7.765084837e-01,7.20315e-01,9.99999e-01,9.96721e-01,7.22687e-01,9.99995e-01
7.803910261e-01,7.17097e-01,9.99999e-01,9.85931e-01,7.27338e-01,9.99985e-01
7.842929812e-01,6.96679e-01,9.99999e-01,9.51929e-01,7.31927e-01,9.99908e-01
7.882144461e-01,6.64332e-01,9.99999e-01,9.02636e-01,7.36452e-01,9.99372e-01
7.921555184e-01,6.99490e-01,9.99999e-01,9.45234e-01,7.40916e-01,9.98786e-01
7.961162960e-01,6.74851e-01,9.99999e-01,9.06507e-01,7.45317e-01,9.98836e-01
8.000968774e-01,6.67357e-01,9.99999e-01,8.91318e-01,7.49657e-01,9.98762e-01
8.040973618e-01,6.71635e-01,9.99999e-01,8.91714e-01,7.53936e-01,9.99017e-01
8.081178486e-01,5.89828e-01,9.99999e-01,7.78695e-01,7.58154e-01,9.99078e-01
8.121584379e-01,2.86063e-01,9.99999e-01,3.76619e-01,7.62312e-01,9.96381e-01
8.162192301e-01,2.39090e-01,9.99999e-01,3.16242e-01,7.66409e-01,9.86460e-01
8.203003262e-01,4.46620e-01,9.99999e-01,5.89016e-01,7.70447e-01,9.84164e-01
8.244018279e-01,3.83636e-01,9.99999e-01,5.01713e-01,7.74426e-01,9.87377e-01
8.285238370e-01,3.76203e-01,9.99999e-01,4.88182e-01,7.78346e-01,9.90072e-01
8.326664562e-01,3.79627e-01,9.99999e-01,4.87332e-01,7.82208e-01,9.95882e-01
8.368297885e-01,4.59182e-01,9.99999e-01,5.84742e-01,7.86013e-01,9.99057e-01
8.410139374e-01,5.71131e-01,9.99999e-01,7.23568e-01,7.89760e-01,9.99448e-01
8.452190071e-01,6.75427e-01,9.99999e-01,8.51533e-01,7.93451e-01,9.99670e-01
8.494451021e-01,7.25739e-01,9.99999e-01,9.10731e-01,7.97085e-01,9.99735e-01
8.536923276e-01,7.57323e-01,9.99999e-01,9.46033e-01,8.00664e-01,9.99825e-01
8.579607893e-01,7.77199e-01,9.99999e-01,9.66485e-01,8.04187e-01,9.99952e-01
8.622505932e-01,7.90306e-01,9.99999e-01,9.78524e-01,8.07656e-01,9.99992e-01
8.665618462e-01,8.00286e-01,9.99999e-01,9.86705e-01,8.11071e-01,9.99995e-01
8.708946554e-01,8.02064e-01,9.99999e-01,9.84820e-01,8.14433e-01,9.99991e-01
8.752491287e-01,8.01142e-01,9.99999e-01,9.79721e-01,8.17742e-01,9.99978e-01
8.796253743e-01,7.98069e-01,9.99999e-01,9.72131e-01,8.20998e-01,9.99936e-01
8.840235012e-01,7.97871e-01,9.99999e-01,9.68241e-01,8.24203e-01,9.99802e-01
8.884436187e-01,7.39865e-01,9.99999e-01,8.94752e-01,8.27357e-01,9.99439e-01
8.928858368e-01,2.87788e-01,9.99999e-01,3.47663e-01,8.30460e-01,9.96769e-01
8.973502660e-01,1.27001e-01,9.99999e-01,1.54915e-01,8.33513e-01,9.83553e-01
9.018370173e-01,3.11960e-01,9.99999e-01,3.82779e-01,8.36516e-01,9.74263e-01
9.063462024e-01,3.49609e-01,9.99999e-01,4.26112e-01,8.39471e-01,9.77355e-01
9.108779334e-01,2.16870e-01,9.99999e-01,2.63650e-01,8.42377e-01,9.76480e-01
9.154323231e-01,1.72938e-01,9.99999e-01,2.08667e-01,8.45236e-01,9.80519e-01
9.200094847e-01,2.52977e-01,9.99999e-01,3.01607e-01,8.48048e-01,9.89050e-01
9.246095321e-01,1.55119e-01,9.99999e-01,1.84646e-01,8.50813e-01,9.87393e-01
9.292325798e-01,1.72294e-03,9.99999e-01,2.12098e-03,8.53533e-01,9.51728e-01
9.338787427e-01,9.79806e-06,9.99999e-01,1.40407e-05,8.56207e-01,8.15028e-01
9.385481364e-01,6.14958e-03,9.99999e-01,9.13232e-03,8.58837e-01,7.84067e-01
9.432408771e-01,2.11956e-03,9.99999e-01,3.03510e-03,8.61422e-01,8.10693e-01
9.479570815e-01,5.27786e-05,9.99999e-01,7.24670e-05,8.63964e-01,8.42988e-01
9.526968669e-01,4.00592e-04,9.99999e-01,5.13092e-04,8.66463e-01,9.01064e-01
9.574603512e-01,7.14187e-04,9.99999e-01,8.66591e-04,8.68920e-01,9.48457e-01
9.622476530e-01,2.49155e-03,9.99999e-01,2.96603e-03,8.71334e-01,9.64069e-01
9.670588912e-01,2.68050e-02,9.99999e-01,3.14570e-02,8.73708e-01,9.75285e-01
9.718941857e-01,6.45604e-02,9.99999e-01,7.50656e-02,8.76041e-01,9.81747e-01
9.767536566e-01,1.00533e-01,9.99999e-01,1.16081e-01,8.78334e-01,9.86020e-01
9.816374249e-01,1.63701e-01,9.99999e-01,1.86807e-01,8.80588e-01,9.95140e-01
9.865456120e-01,2.99601e-01,9.99999e-01,3.39718e-01,8.82802e-01,9.98985e-01
9.914783401e-01,4.47668e-01,9.99999e-01,5.05994e-01,8.84979e-01,9.99718e-01
9.964357318e-01,6.11061e-01,9.99999e-01,6.88929e-01,8.87117e-01,9.99835e-01
1.001417910e+00,7.09925e-01,9.99999e-01,7.98570e-01,8.89219e-01,9.99748e-01
1.006425000e+00,7.83483e-01,9.99999e-01,8.79365e-01,8.91283e-01,9.99641e-01
1.011457125e+00,8.24379e-01,9.99999e-01,9.23140e-01,8.93312e-01,9.99667e-01
1.016514411e+00,8.47804e-01,9.99999e-01,9.47165e-01,8.95305e-01,9.99765e-01
1.021596983e+00,8.59104e-01,9.99999e-01,9.57697e-01,8.97262e-01,9.99764e-01
1.026704968e+00,8.69243e-01,9.99999e-01,9.66852e-01,8.99186e-01,9.99842e-01
1.031838492e+00,8.79193e-01,9.99999e-01,9.75757e-01,9.01075e-01,9.99956e-01
1.036997685e+00,8.89884e-01,9.99999e-01,9.85555e-01,9.02931e-01,9.99992e-01
1.042182673e+00,8.89242e-01,9.99999e-01,9.82857e-01,9.04754e-01,9.99996e-01
1.047393587e+00,8.85954e-01,9.99999e-01,9.77290e-01,9.06545e-01,9.99995e-01
1.052630555e+00,8.80157e-01,9.99999e-01,9.69019e-01,9.08303e-01,9.99991e-01
1.057893707e+00,8.63574e-01,9.99999e-01,9.48967e-01,9.10030e-01,9.99981e-01
1.063183176e+00,8.36572e-01,9.99999e-01,9.17610e-01,9.11727e-01,9.99954e-01
1.068499092e+00,7.91142e-01,9.99999e-01,8.66241e-01,9.13392e-01,9.99902e-01
1.073841587e+00,7.75031e-01,9.99999e-01,8.47182e-01,9.15028e-01,9.99786e-01
1.079210795e+00,7.39193e-01,9.99999e-01,8.06887e-01,9.16635e-01,9.99421e-01
1.084606849e+00,6.65259e-01,9.99999e-01,7.25525e-01,9.18212e-01,9.98607e-01
1.090029883e+00,5.84981e-01,9.99999e-01,6.37854e-01,9.19761e-01,9.97115e-01
1.095480033e+00,2.73510e-01,9.99999e-01,2.98435e-01,9.21282e-01,9.94788e-01
1.100957433e+00,5.72139e-02,9.99999e-01,6.26011e-02,9.22775e-01,9.90428e-01
1.106462220e+00,2.60934e-03,9.99999e-01,2.86966e-03,9.24241e-01,9.83816e-01
1.111994531e+00,3.59101e-06,9.99999e-01,4.05103e-06,9.25680e-01,9.57611e-01
1.117554504e+00,2.96995e-08,9.99999e-01,3.74576e-08,9.27093e-01,8.55234e-01
1.123142276e+00,9.48658e-06,9.99999e-01,1.48044e-05,9.28481e-01,6.90152e-01
1.128757988e+00,4.90561e-05,9.99999e-01,8.10212e-05,9.29842e-01,6.51155e-01
1.134401778e+00,9.28600e-05,9.99999e-01,1.43621e-04,9.31179e-01,6.94345e-01
1.140073787e+00,1.20105e-03,9.99999e-01,1.72382e-03,9.32492e-01,7.47172e-01
1.145774156e+00,6.73708e-05,9.99999e-01,9.42087e-05,9.33780e-01,7.65835e-01
1.151503026e+00,7.18564e-06,9.99999e-01,8.91618e-06,9.35045e-01,8.61894e-01
1.157260541e+00,4.37320e-06,9.99999e-01,4.88302e-06,9.36286e-01,9.56535e-01
1.163046844e+00,1.11838e-04,9.99999e-01,1.20805e-04,9.37504e-01,9.87484e-01
1.168862078e+00,1.47486e-03,9.99999e-01,1.58139e-03,9.38700e-01,9.93533e-01
1.174706389e+00,1.33826e-02,9.99999e-01,1.43616e-02,9.39874e-01,9.91436e-01
1.180579921e+00,6.30200e-02,9.99999e-01,6.78461e-02,9.41026e-01,9.87079e-01
1.186482820e+00,1.84245e-01,9.99999e-01,1.98185e-01,9.42156e-01,9.86739e-01
1.192415234e+00,3.54852e-01,9.99999e-01,3.79974e-01,9.43266e-01,9.90053e-01
1.198377311e+00,4.15802e-01,9.99999e-01,4.44479e-01,9.44354e-01,9.90602e-01
1.204369197e+00,4.44251e-01,9.99999e-01,4.73927e-01,9.45423e-01,9.91493e-01
1.210391043e+00,4.55255e-01,9.99999e-01,4.83507e-01,9.46472e-01,9.94817e-01
1.216442998e+00,5.08465e-01,9.99999e-01,5.38348e-01,9.47501e-01,9.96822e-01
1.222525213e+00,5.79915e-01,9.99999e-01,6.12605e-01,9.48510e-01,9.98025e-01
1.228637839e+00,6.74015e-01,9.99999e-01,7.10514e-01,9.49501e-01,9.99080e-01
1.234781029e+00,7.37182e-01,9.99999e-01,7.75797e-01,9.50474e-01,9.99737e-01
1.240954934e+00,8.10073e-01,9.99999e-01,8.51490e-01,9.51428e-01,9.99925e-01
1.247159708e+00,8.39835e-01,9.99999e-01,8.81883e-01,9.52364e-01,9.99952e-01
1.253395507e+00,8.52662e-01,9.99999e-01,8.94502e-01,9.53282e-01,9.99938e-01
1.259662485e+00,8.59065e-01,9.99999e-01,9.00401e-01,9.54184e-01,9.99901e-01
1.265960797e+00,8.07413e-01,9.99999e-01,8.45535e-01,9.55068e-01,9.99836e-01
1.272290601e+00,7.47521e-01,9.99999e-01,7.82204e-01,9.55936e-01,9.99710e-01
1.278652054e+00,5.76886e-01,9.99999e-01,6.03250e-01,9.56787e-01,9.99487e-01
1.285045314e+00,4.40345e-01,9.99999e-01,4.60271e-01,9.57622e-01,9.99042e-01
1.291470541e+00,2.07641e-01,9.99999e-01,2.17008e-01,9.58442e-01,9.98320e-01
1.297927893e+00,1.44516e-01,9.99999e-01,1.51129e-01,9.59246e-01,9.96867e-01
1.304417533e+00,8.32252e-02,9.99999e-01,8.72680e-02,9.60034e-01,9.93374e-01
1.310939621e+00,6.04409e-02,9.99999e-01,6.37707e-02,9.60808e-01,9.86443e-01
1.317494319e+00,4.98158e-02,9.99999e-01,5.31316e-02,9.61567e-01,9.75067e-01
1.324081790e+00,1.62958e-02,9.99999e-01,1.76467e-02,9.62312e-01,9.59613e-01
1.330702199e+00,8.44239e-04,9.99999e-01,9.41219e-04,9.63042e-01,9.31384e-01
1.337355710e+00,6.80618e-16,9.99999e-01,8.09818e-16,9.63759e-01,8.72061e-01
1.344042489e+00,1.49477e-23,9.99999e-01,2.34080e-23,9.64462e-01,6.62103e-01
1.350762701e+00,6.34231e-89,9.99999e-01,2.69624e-88,9.65151e-01,2.43721e-01
1.357516515e+00,7.94791e-138,9.99999e-01,5.18433e-136,9.65828e-01,1.58730e-02
1.364304097e+00,3.57183e-83,9.99999e-01,5.26229e-80,9.66491e-01,7.02292e-04
1.371125618e+00,2.18582e-48,9.99999e-01,2.12435e-45,9.67142e-01,1.06389e-03
1.377981246e+00,6.51076e-47,9.99999e-01,2.37891e-44,9.67780e-01,2.82798e-03
1.384871152e+00,2.23114e-67,9.99999e-01,5.79253e-65,9.68407e-01,3.97740e-03
1.391795508e+00,8.71176e-84,9.99999e-01,1.68265e-81,9.69021e-01,5.34292e-03
1.398754485e+00,1.62227e-62,9.99999e-01,1.23994e-60,9.69623e-01,1.34933e-02
1.405748258e+00,9.70848e-62,9.99998e-01,1.23995e-60,9.70214e-01,8.07007e-02
1.412776999e+00,2.61948e-59,9.99997e-01,8.51482e-59,9.70794e-01,3.16893e-01
1.419840884e+00,1.19704e-58,9.99995e-01,2.03968e-58,9.71363e-01,6.04178e-01
1.426940089e+00,8.54834e-37,9.99995e-01,1.28975e-36,9.71920e-01,6.81940e-01
1.434074789e+00,7.39868e-33,9.99995e-01,1.19526e-32,9.72467e-01,6.36525e-01
1.441245163e+00,1.16501e-26,9.99997e-01,1.95305e-26,9.73004e-01,6.13058e-01
1.448451389e+00,1.74506e-16,9.99993e-01,2.75120e-16,9.73530e-01,6.51536e-01
1.455693646e+00,2.49198e-11,9.99997e-01,3.57059e-11,9.74046e-01,7.16513e-01
1.462972114e+00,2.80235e-11,9.99998e-01,3.95178e-11,9.74552e-01,7.27652e-01
1.470286975e+00,4.27524e-12,9.99998e-01,5.99320e-12,9.75048e-01,7.31603e-01
