#,Wave/freq,Total,N2,H2O,Rayleigh,CIA
4.000000000e-01,1.85430e-01,9.99999e-01,9.99810e-01,1.85465e-01,9.99999e-01
4.020000000e-01,1.91725e-01,9.99999e-01,9.99882e-01,1.91748e-01,9.99999e-01
4.040100000e-01,1.98096e-01,9.99999e-01,9.99949e-01,1.98106e-01,9.99999e-01
4.060300500e-01,2.04541e-01,9.99999e-01,9.99988e-01,2.04544e-01,9.99999e-01
4.080602003e-01,2.11056e-01,9.99999e-01,9.99995e-01,2.11057e-01,9.99999e-01
4.101005013e-01,2.17643e-01,9.99999e-01,9.99999e-01,2.17643e-01,9.99999e-01
4.121510038e-01,2.24296e-01,9.99999e-01,9.99992e-01,2.24298e-01,9.99999e-01
4.142117588e-01,2.31007e-01,9.99999e-01,9.99946e-01,2.31019e-01,9.99999e-01
4.162828176e-01,2.37747e-01,9.99999e-01,9.99764e-01,2.37803e-01,9.99999e-01
4.183642317e-01,2.44612e-01,9.99999e-01,9.99859e-01,2.44647e-01,9.99999e-01
4.204560528e-01,2.51524e-01,9.99999e-01,9.99914e-01,2.51546e-01,9.99999e-01
4.225583331e-01,2.58489e-01,9.99999e-01,9.99967e-01,2.58497e-01,9.99999e-01
4.246711247e-01,2.65491e-01,9.99999e-01,9.99973e-01,2.65498e-01,9.99999e-01
4.267944804e-01,2.72535e-01,9.99999e-01,9.99962e-01,2.72545e-01,9.99999e-01
4.289284528e-01,2.79625e-01,9.99999e-01,9.99970e-01,2.79634e-01,9.99999e-01
4.310730950e-01,2.86758e-01,9.99999e-01,9.99987e-01,2.86761e-01,9.99999e-01
4.332284605e-01,2.93924e-01,9.99999e-01,9.99996e-01,2.93925e-01,9.99999e-01
4.353946028e-01,3.01120e-01,9.99999e-01,9.99998e-01,3.01120e-01,9.99999e-01
4.375715758e-01,3.08337e-01,9.99999e-01,9.99975e-01,3.08344e-01,9.99999e-01
4.397594337e-01,3.15528e-01,9.99999e-01,9.99789e-01,3.15594e-01,9.99999e-01
4.419582309e-01,3.22520e-01,9.99999e-01,9.98929e-01,3.22866e-01,9.99999e-01
4.441680220e-01,3.29889e-01,9.99999e-01,9.99188e-01,3.30157e-01,9.99999e-01
4.463888621e-01,3.37176e-01,9.99999e-01,9.99147e-01,3.37463e-01,9.99999e-01
4.486208064e-01,3.44601e-01,9.99999e-01,9.99474e-01,3.44782e-01,9.99999e-01
4.508639105e-01,3.52024e-01,9.99999e-01,9.99753e-01,3.52111e-01,9.99999e-01
4.531182300e-01,3.59411e-01,9.99999e-01,9.99902e-01,3.59446e-01,9.99999e-01
4.553838212e-01,3.66760e-01,9.99999e-01,9.99933e-01,3.66785e-01,9.99999e-01
4.576607403e-01,3.74112e-01,9.99999e-01,9.99969e-01,3.74124e-01,9.99999e-01
4.599490440e-01,3.81452e-01,9.99999e-01,9.99978e-01,3.81460e-01,9.99999e-01
4.622487892e-01,3.88790e-01,9.99999e-01,9.99995e-01,3.88791e-01,9.99999e-01
4.645600332e-01,3.96108e-01,9.99999e-01,9.99984e-01,3.96114e-01,9.99999e-01
4.668828333e-01,4.03325e-01,9.99999e-01,9.99746e-01,4.03427e-01,9.99999e-01
4.692172475e-01,4.10506e-01,9.99999e-01,9.99465e-01,4.10726e-01,9.99999e-01
4.715633337e-01,4.17862e-01,9.99999e-01,9.99649e-01,4.18009e-01,9.99999e-01
4.739211504e-01,4.25131e-01,9.99999e-01,9.99666e-01,4.25273e-01,9.99999e-01
4.762907561e-01,4.32442e-01,9.99999e-01,9.99827e-01,4.32516e-01,9.99999e-01
4.786722099e-01,4.39705e-01,9.99999e-01,9.99929e-01,4.39736e-01,9.99999e-01
4.810655710e-01,4.46921e-01,9.99999e-01,9.99978e-01,4.46931e-01,9.99999e-01
4.834708988e-01,4.54001e-01,9.99999e-01,9.99788e-01,4.54097e-01,9.99999e-01
4.858882533e-01,4.61060e-01,9.99999e-01,9.99622e-01,4.61234e-01,9.99999e-01
4.883176946e-01,4.68189e-01,9.99999e-01,9.99681e-01,4.68338e-01,9.99999e-01
4.907592831e-01,4.75273e-01,9.99999e-01,9.99714e-01,4.75408e-01,9.99999e-01
4.932130795e-01,4.82344e-01,9.99999e-01,9.99796e-01,4.82442e-01,9.99999e-01
4.956791449e-01,4.89386e-01,9.99999e-01,9.99892e-01,4.89438e-01,9.99999e-01
4.981575406e-01,4.96126e-01,9.99999e-01,9.99458e-01,4.96395e-01,9.99999e-01
5.006483283e-01,5.02594e-01,9.99999e-01,9.98587e-01,5.03310e-01,9.99990e-01
5.031515699e-01,5.06544e-01,9.99999e-01,9.92942e-01,5.10182e-01,9.99925e-01
5.056673278e-01,5.15044e-01,9.99999e-01,9.96284e-01,5.17009e-01,9.99914e-01
5.081956644e-01,5.21310e-01,9.99999e-01,9.95317e-01,5.23790e-01,9.99947e-01
5.107366428e-01,5.28842e-01,9.99999e-01,9.96839e-01,5.30523e-01,9.99990e-01
5.132903260e-01,5.36239e-01,9.99999e-01,9.98197e-01,5.37208e-01,9.99998e-01
5.158567776e-01,5.43428e-01,9.99999e-01,9.99239e-01,5.43842e-01,9.99999e-01
5.184360615e-01,5.50257e-01,9.99999e-01,9.99695e-01,5.50424e-01,9.99999e-01
5.210282418e-01,5.56890e-01,9.99999e-01,9.99884e-01,5.56954e-01,9.99999e-01
5.236333830e-01,5.63169e-01,9.99999e-01,9.99539e-01,5.63430e-01,9.99996e-01
5.262515499e-01,5.69685e-01,9.99999e-01,9.99711e-01,5.69851e-01,9.99995e-01
5.288828077e-01,5.76062e-01,9.99999e-01,9.99733e-01,5.76217e-01,9.99996e-01
5.315272217e-01,5.82391e-01,9.99999e-01,9.99769e-01,5.82526e-01,9.99998e-01
5.341848578e-01,5.88687e-01,9.99999e-01,9.99846e-01,5.88777e-01,9.99999e-01
5.368557821e-01,5.94647e-01,9.99999e-01,9.99459e-01,5.94969e-01,9.99998e-01
5.395400610e-01,5.99911e-01,9.99999e-01,9.98033e-01,6.01103e-01,9.99981e-01
5.422377613e-01,6.05638e-01,9.99999e-01,9.97511e-01,6.07177e-01,9.99953e-01
5.449489501e-01,6.11728e-01,9.99999e-01,9.97661e-01,6.13190e-01,9.99952e-01
5.476736949e-01,6.17861e-01,9.99999e-01,9.97952e-01,6.19143e-01,9.99976e-01
5.504120634e-01,6.24100e-01,9.99999e-01,9.98512e-01,6.25034e-01,9.99993e-01
5.531641237e-01,6.30391e-01,9.99999e-01,9.99251e-01,6.30863e-01,9.99998e-01
5.559299443e-01,6.36400e-01,9.99999e-01,9.99639e-01,6.36629e-01,9.99999e-01
5.587095940e-01,6.42187e-01,9.99999e-01,9.99772e-01,6.42333e-01,9.99999e-01
5.615031420e-01,6.47810e-01,9.99999e-01,9.99746e-01,6.47974e-01,9.99999e-01
5.643106577e-01,6.53359e-01,9.99999e-01,9.99707e-01,6.53551e-01,9.99997e-01
5.671322110e-01,6.56693e-01,9.99999e-01,9.96430e-01,6.59065e-01,9.99968e-01
5.699678720e-01,6.62018e-01,9.99999e-01,9.96336e-01,6.64515e-01,9.99904e-01
5.728177114e-01,6.67253e-01,9.99999e-01,9.96124e-01,6.69901e-01,9.99920e-01
5.756818000e-01,6.72799e-01,9.99999e-01,9.96453e-01,6.75224e-01,9.99953e-01
5.785602090e-01,6.78376e-01,9.99999e-01,9.96917e-01,6.80482e-01,9.99986e-01
5.814530100e-01,6.83542e-01,9.99999e-01,9.96894e-01,6.85676e-01,9.99992e-01
5.843602750e-01,6.88210e-01,9.99999e-01,9.96263e-01,6.90806e-01,9.99978e-01
5.872820764e-01,6.73752e-01,9.99999e-01,9.68429e-01,6.95871e-01,9.99775e-01
5.902184868e-01,6.73929e-01,9.99999e-01,9.62143e-01,7.00873e-01,9.99388e-01
5.931695792e-01,6.86410e-01,9.99999e-01,9.73083e-01,7.05811e-01,9.99412e-01
5.961354271e-01,6.89527e-01,9.99999e-01,9.70555e-01,7.10685e-01,9.99661e-01
5.991161043e-01,7.00002e-01,9.99999e-01,9.78447e-01,7.15495e-01,9.99895e-01
6.021116848e-01,7.11400e-01,9.99999e-01,9.87733e-01,7.20242e-01,9.99987e-01
6.051222432e-01,7.20416e-01,9.99999e-01,9.93778e-01,7.24926e-01,9.99998e-01
6.081478544e-01,7.27584e-01,9.99999e-01,9.97308e-01,7.29547e-01,9.99999e-01
6.111885937e-01,7.33273e-01,9.99999e-01,9.98865e-01,7.34105e-01,9.99999e-01
6.142445367e-01,7.38226e-01,9.99999e-01,9.99491e-01,7.38601e-01,9.99999e-01
6.173157594e-01,7.42826e-01,9.99999e-01,9.99718e-01,7.43035e-01,9.99999e-01
6.204023382e-01,7.47228e-01,9.99999e-01,9.99760e-01,7.47407e-01,9.99999e-01
6.235043498e-01,7.50908e-01,9.99999e-01,9.98924e-01,7.51718e-01,9.99996e-01
6.266218716e-01,7.51737e-01,9.99999e-01,9.94443e-01,7.55967e-01,9.99960e-01
6.297549810e-01,7.58545e-01,9.99999e-01,9.97958e-01,7.60156e-01,9.99921e-01
6.329037559e-01,7.61168e-01,9.99999e-01,9.95983e-01,7.64285e-01,9.99937e-01
6.360682746e-01,7.65681e-01,9.99999e-01,9.96558e-01,7.68354e-01,9.99962e-01
6.392486160e-01,7.68917e-01,9.99999e-01,9.95554e-01,7.72363e-01,9.99983e-01
6.424448591e-01,7.71629e-01,9.99999e-01,9.93993e-01,7.76314e-01,9.99970e-01
6.456570834e-01,7.58590e-01,9.99999e-01,9.72455e-01,7.80206e-01,9.99832e-01
6.488853688e-01,7.68087e-01,9.99999e-01,9.80071e-01,7.84041e-01,9.99571e-01
6.521297956e-01,7.71569e-01,9.99999e-01,9.79721e-01,7.87818e-01,9.99645e-01
6.553904446e-01,7.75194e-01,9.99999e-01,9.79609e-01,7.91537e-01,9.99736e-01
6.586673968e-01,7.81323e-01,9.99999e-01,9.82633e-01,7.95201e-01,9.99911e-01
6.619607338e-01,7.91029e-01,9.99999e-01,9.90278e-01,7.98809e-01,9.99980e-01
6.652705375e-01,7.97663e-01,9.99999e-01,9.94153e-01,8.02361e-01,9.99989e-01
6.685968902e-01,8.03855e-01,9.99999e-01,9.97514e-01,8.05858e-01,9.99997e-01
6.719398746e-01,8.08282e-01,9.99999e-01,9.98740e-01,8.09301e-01,9.99999e-01
6.752995740e-01,8.12149e-01,9.99999e-01,9.99333e-01,8.12691e-01,9.99999e-01
6.786760719e-01,8.15210e-01,9.99999e-01,9.99000e-01,8.16027e-01,9.99998e-01
6.820694522e-01,8.17897e-01,9.99999e-01,9.98283e-01,8.19311e-01,9.99990e-01
6.854797995e-01,8.20722e-01,9.99999e-01,9.97805e-01,8.22542e-01,9.99980e-01
6.889071985e-01,8.19833e-01,9.99999e-01,9.92914e-01,8.25722e-01,9.99952e-01
6.923517345e-01,7.59369e-01,9.99999e-01,9.16549e-01,8.28851e-01,9.99585e-01
6.958134932e-01,7.95550e-01,9.99999e-01,9.57147e-01,8.31930e-01,9.99082e-01
6.992925606e-01,7.99149e-01,9.99999e-01,9.57902e-01,8.34960e-01,9.99172e-01
7.027890234e-01,7.94534e-01,9.99999e-01,9.48797e-01,8.37940e-01,9.99368e-01
7.063029686e-01,8.04151e-01,9.99999e-01,9.56631e-01,8.40871e-01,9.99685e-01
7.098344834e-01,8.08439e-01,9.99999e-01,9.58321e-01,8.43755e-01,9.99813e-01
7.133836558e-01,7.99186e-01,9.99999e-01,9.44353e-01,8.46591e-01,9.99630e-01
7.169505741e-01,5.47252e-01,9.99999e-01,6.46171e-01,8.49380e-01,9.97096e-01
7.205353270e-01,6.85460e-01,9.99999e-01,8.08549e-01,8.52124e-01,9.94883e-01
7.241380036e-01,6.45165e-01,9.99999e-01,7.58086e-01,8.54821e-01,9.95580e-01
7.277586936e-01,6.65924e-01,9.99999e-01,7.79427e-01,8.57474e-01,9.96385e-01
7.313974871e-01,6.58175e-01,9.99999e-01,7.66544e-01,8.60082e-01,9.98305e-01
7.350544745e-01,7.44543e-01,9.99999e-01,8.63600e-01,8.62647e-01,9.99410e-01
7.387297469e-01,7.76021e-01,9.99999e-01,8.97201e-01,8.65168e-01,9.99729e-01
7.424233956e-01,8.22750e-01,9.99999e-01,9.48299e-01,8.67647e-01,9.99952e-01
7.461355126e-01,8.42453e-01,9.99999e-01,9.68251e-01,8.70083e-01,9.99991e-01
7.498661902e-01,8.59513e-01,9.99999e-01,9.85141e-01,8.72478e-01,9.99996e-01
7.536155211e-01,8.68405e-01,9.99999e-01,9.92654e-01,8.74832e-01,9.99997e-01
7.573835987e-01,8.73826e-01,9.99999e-01,9.96215e-01,8.77146e-01,9.99999e-01
7.611705167e-01,8.77350e-01,9.99999e-01,9.97645e-01,8.79420e-01,9.99999e-01
7.649763693e-01,8.80352e-01,9.99999e-01,9.98521e-01,8.81655e-01,9.99999e-01
7.688012511e-01,8.82940e-01,9.99999e-01,9.98968e-01,8.83851e-01,9.99999e-01
7.726452574e-01,8.85256e-01,9.99999e-01,9.99149e-01,8.86009e-01,9.99999e-01
7.765084837e-01,8.87046e-01,9.99999e-01,9.98780e-01,8.88130e-01,9.99997e-01
7.803910261e-01,8.85516e-01,9.99999e-01,9.94728e-01,8.90214e-01,9.99994e-01
7.842929812e-01,8.75931e-01,9.99999e-01,9.81730e-01,8.92261e-01,9.99966e-01
7.882144461e-01,8.61058e-01,9.99999e-01,9.63105e-01,8.94272e-01,9.99742e-01
7.921555184e-01,8.77709e-01,9.99999e-01,9.79752e-01,8.96248e-01,9.99551e-01
7.961162960e-01,8.65479e-01,9.99999e-01,9.63991e-01,8.98189e-01,9.99573e-01
8.000968774e-01,8.62547e-01,9.99999e-01,9.58717e-01,9.00096e-01,9.99546e-01
8.040973618e-01,8.64392e-01,9.99999e-01,9.58668e-01,9.01970e-01,9.99653e-01
8.081178486e-01,8.21546e-01,9.99999e-01,9.09299e-01,9.03810e-01,9.99649e-01
8.121584379e-01,6.14536e-01,9.99999e-01,6.79482e-01,9.05617e-01,9.98673e-01
8.162192301e-01,5.76276e-01,9.99999e-01,6.38267e-01,9.07392e-01,9.95021e-01
8.203003262e-01,7.27199e-01,9.99999e-01,8.04566e-01,9.09136e-01,9.94173e-01
8.244018279e-01,6.80666e-01,9.99999e-01,7.50771e-01,9.10848e-01,9.95359e-01
8.285238370e-01,6.90483e-01,9.99999e-01,7.59437e-01,9.12529e-01,9.96353e-01
8.326664562e-01,6.93239e-01,9.99999e-01,7.59463e-01,9.14181e-01,9.98490e-01
8.368297885e-01,7.49961e-01,9.99999e-01,8.19194e-01,9.15802e-01,9.99654e-01
8.410139374e-01,8.14318e-01,9.99999e-01,8.87820e-01,9.17395e-01,9.99797e-01
8.452190071e-01,8.66667e-01,9.99999e-01,9.43210e-01,9.18958e-01,9.99879e-01
8.494451021e-01,8.89505e-01,9.99999e-01,9.66427e-01,9.20494e-01,9.99902e-01
8.536923276e-01,9.03595e-01,9.99999e-01,9.80093e-01,9.22001e-01,9.99940e-01
8.579607893e-01,9.12061e-01,9.99999e-01,9.87646e-01,9.23481e-01,9.99985e-01
8.622505932e-01,9.17680e-01,9.99999e-01,9.92158e-01,9.24935e-01,9.99997e-01
8.665618462e-01,9.21840e-01,9.99999e-01,9.95119e-01,9.26361e-01,9.99998e-01
8.708946554e-01,9.22562e-01,9.99999e-01,9.94397e-01,9.27762e-01,9.99996e-01
8.752491287e-01,9.22180e-01,9.99999e-01,9.92519e-01,9.29137e-01,9.99991e-01
8.796253743e-01,9.20802e-01,9.99999e-01,9.89613e-01,9.30487e-01,9.99976e-01
8.840235012e-01,9.20716e-01,9.99999e-01,9.88162e-01,9.31812e-01,9.99927e-01
8.884436187e-01,8.92915e-01,9.99999e-01,9.57116e-01,9.33113e-01,9.99794e-01
8.928858368e-01,6.02522e-01,9.99999e-01,6.45593e-01,9.34390e-01,9.98815e-01
8.973502660e-01,4.37426e-01,9.99999e-01,4.70360e-01,9.35643e-01,9.93947e-01
9.018370173e-01,6.33975e-01,9.99999e-01,6.83182e-01,9.36873e-01,9.90499e-01
9.063462024e-01,6.57531e-01,9.99999e-01,7.06834e-01,9.38081e-01,9.91649e-01
9.108779334e-01,5.44938e-01,9.99999e-01,5.85251e-01,9.39266e-01,9.91324e-01
9.154323231e-01,5.04987e-01,9.99999e-01,5.40855e-01,9.40429e-01,9.92823e-01
9.200094847e-01,5.83342e-01,9.99999e-01,6.22043e-01,9.41570e-01,9.95977e-01
9.246095321e-01,4.65635e-01,9.99999e-01,4.96242e-01,9.42691e-01,9.95366e-01
9.292325798e-01,2.69573e-02,9.99999e-01,2.92105e-02,9.43790e-01,9.77824e-01
9.338787427e-01,5.37047e-03,9.99999e-01,6.16372e-03,9.44869e-01,9.22139e-01
9.385481364e-01,1.07814e-01,9.99999e-01,1.24593e-01,9.45928e-01,9.14793e-01
9.432408771e-01,5.63139e-02,9.99999e-01,6.42166e-02,9.46968e-01,9.26046e-01
9.479570815e-01,1.59082e-02,9.99999e-01,1.78639e-02,9.47987e-01,9.39384e-01
9.526968669e-01,3.89443e-02,9.99999e-01,4.26331e-02,9.48988e-01,9.62578e-01
9.574603512e-01,4.58254e-02,9.99999e-01,4.91823e-02,9.49970e-01,9.80812e-01
9.622476530e-01,7.55592e-02,9.99999e-01,8.05294e-02,9.50934e-01,9.86692e-01
9.670588912e-01,2.11945e-01,9.99999e-01,2.24622e-01,9.51879e-01,9.91261e-01
9.718941857e-01,3.42576e-01,9.99999e-01,3.61968e-01,9.52807e-01,9.93300e-01
9.767536566e-01,4.06671e-01,9.99999e-01,4.28609e-01,9.53717e-01,9.94859e-01
9.816374249e-01,5.03881e-01,9.99999e-01,5.28781e-01,9.54610e-01,9.98217e-01
9.865456120e-01,6.38783e-01,9.99999e-01,6.68790e-01,9.55486e-01,9.99628e-01
9.914783401e-01,7.44107e-01,9.99999e-01,7.78153e-01,9.56346e-01,9.99896e-01
9.964357318e-01,8.34813e-01,9.99999e-01,8.72202e-01,9.57190e-01,9.99939e-01
1.001417910e+00,8.82448e-01,9.99999e-01,9.21203e-01,9.58017e-01,9.99907e-01
1.006425000e+00,9.14697e-01,9.99999e-01,9.54097e-01,9.58829e-01,9.99868e-01
1.011457125e+00,9.32025e-01,9.99999e-01,9.71355e-01,9.59626e-01,9.99878e-01
1.016514411e+00,9.41523e-01,9.99999e-01,9.80421e-01,9.60407e-01,9.99913e-01
1.021596983e+00,9.46056e-01,9.99999e-01,9.84353e-01,9.61174e-01,9.99915e-01
1.026704968e+00,9.50109e-01,9.99999e-01,9.87766e-01,9.61926e-01,9.99946e-01
1.031838492e+00,9.54100e-01,9.99999e-01,9.91119e-01,9.62664e-01,9.99983e-01
1.036997685e+00,9.58281e-01,9.99999e-01,9.94701e-01,9.63388e-01,9.99997e-01
1.042182673e+00,9.57980e-01,9.99999e-01,9.93655e-01,9.64098e-01,9.99998e-01
1.047393587e+00,9.56703e-01,9.99999e-01,9.91614e-01,9.64794e-01,9.99997e-01
1.052630555e+00,9.54364e-01,9.99999e-01,9.88491e-01,9.65477e-01,9.99996e-01
1.057893707e+00,9.47621e-01,9.99999e-01,9.80830e-01,9.66148e-01,9.99992e-01
1.063183176e+00,9.36551e-01,9.99999e-01,9.68722e-01,9.66805e-01,9.99983e-01
1.068499092e+00,9.17434e-01,9.99999e-01,9.48334e-01,9.67450e-01,9.99963e-01
1.073841587e+00,9.09820e-01,9.99999e-01,9.39889e-01,9.68082e-01,9.99921e-01
1.079210795e+00,8.94672e-01,9.99999e-01,9.23772e-01,9.68703e-01,9.99787e-01
1.084606849e+00,8.59365e-01,9.99999e-01,8.87024e-01,9.69311e-01,9.99489e-01
1.090029883e+00,8.15503e-01,9.99999e-01,8.41693e-01,9.69908e-01,9.98942e-01
1.095480033e+00,6.07755e-01,9.99999e-01,6.27431e-01,9.70494e-01,9.98088e-01
1.100957433e+00,3.09501e-01,9.99999e-01,3.19846e-01,9.71068e-01,9.96484e-01
1.106462220e+00,7.07380e-02,9.99999e-01,7.32394e-02,9.71631e-01,9.94044e-01
1.111994531e+00,4.91782e-03,9.99999e-01,5.13937e-03,9.72184e-01,9.84267e-01
1.117554504e+00,3.76071e-04,9.99999e-01,4.09395e-04,9.72726e-01,9.44357e-01
1.123142276e+00,5.06889e-03,9.99999e-01,5.96549e-03,9.73257e-01,8.73048e-01
1.128757988e+00,1.61568e-02,9.99999e-01,1.94135e-02,9.73778e-01,8.54654e-01
1.134401778e+00,1.00491e-02,9.99999e-01,1.17879e-02,9.74290e-01,8.74986e-01
1.140073787e+00,6.73270e-02,9.99999e-01,7.68453e-02,9.74791e-01,8.98792e-01
1.145774156e+00,1.01321e-02,9.99999e-01,1.14547e-02,9.75283e-01,9.06947e-01
1.151503026e+00,5.49046e-03,9.99999e-01,5.94146e-03,9.75765e-01,9.47043e-01
1.157260541e+00,7.03620e-03,9.99999e-01,7.32566e-03,9.76238e-01,9.83862e-01
1.163046844e+00,2.50874e-02,9.99999e-01,2.58045e-02,9.76702e-01,9.95399e-01
1.168862078e+00,6.68060e-02,9.99999e-01,6.85321e-02,9.77157e-01,9.97600e-01
1.174706389e+00,1.80504e-01,9.99999e-01,1.85251e-01,9.77603e-01,9.96696e-01
1.180579921e+00,3.42568e-01,9.99999e-01,3.51931e-01,9.78040e-01,9.95249e-01
1.186482820e+00,5.31382e-01,9.99999e-01,5.45735e-01,9.78469e-01,9.95124e-01
1.192415234e+00,6.82276e-01,9.99999e-01,6.99544e-01,9.78890e-01,9.96346e-01
1.198377311e+00,7.22020e-01,9.99999e-01,7.39844e-01,9.79303e-01,9.96532e-01
1.204369197e+00,7.36800e-01,9.99999e-01,7.54339e-01,9.79707e-01,9.96979e-01
1.210391043e+00,7.45835e-01,9.99999e-01,7.62424e-01,9.80104e-01,9.98099e-01
1.216442998e+00,7.78031e-01,9.99999e-01,7.94434e-01,9.80493e-01,9.98835e-01
1.222525213e+00,8.18343e-01,9.99999e-01,8.34902e-01,9.80875e-01,9.99276e-01
1.228637839e+00,8.65118e-01,9.99999e-01,8.81946e-01,9.81249e-01,9.99663e-01
1.234781029e+00,8.94266e-01,9.99999e-01,9.11101e-01,9.81616e-01,9.99903e-01
1.240954934e+00,9.25705e-01,9.99999e-01,9.42721e-01,9.81976e-01,9.99972e-01
1.247159708e+00,9.38220e-01,9.99999e-01,9.55113e-01,9.82329e-01,9.99982e-01
1.253395507e+00,9.43317e-01,9.99999e-01,9.59969e-01,9.82675e-01,9.99977e-01
1.259662485e+00,9.45451e-01,9.99999e-01,9.61821e-01,9.83014e-01,9.99963e-01
1.265960797e+00,9.24236e-01,9.99999e-01,9.39944e-01,9.83347e-01,9.99939e-01
1.272290601e+00,8.92171e-01,9.99999e-01,9.07074e-01,9.83673e-01,9.99893e-01
1.278652054e+00,8.11803e-01,9.99999e-01,8.25163e-01,9.83993e-01,9.99811e-01
1.285045314e+00,6.96784e-01,9.99999e-01,7.08141e-01,9.84306e-01,9.99648e-01
1.291470541e+00,5.40942e-01,9.99999e-01,5.49732e-01,9.84614e-01,9.99384e-01
1.297927893e+00,4.25845e-01,9.99999e-01,4.32863e-01,9.84915e-01,9.98851e-01
1.304417533e+00,3.72182e-01,9.99999e-01,3.78689e-01,9.85211e-01,9.97568e-01
1.310939621e+00,2.89051e-01,9.99999e-01,2.94773e-01,9.85501e-01,9.95015e-01
1.317494319e+00,2.96745e-01,9.99999e-01,3.03819e-01,9.85785e-01,9.90798e-01
1.324081790e+00,1.71787e-01,9.99999e-01,1.77102e-01,9.86064e-01,9.83696e-01
1.330702199e+00,1.91118e-02,9.99999e-01,1.99241e-02,9.86338e-01,9.72511e-01
1.337355710e+00,5.16728e-07,9.99999e-01,5.50660e-07,9.86606e-01,9.51117e-01
1.344042489e+00,1.04917e-15,9.99999e-01,1.23636e-15,9.86868e-01,8.59886e-01
1.350762701e+00,5.70395e-34,9.99999e-01,9.68855e-34,9.87126e-01,5.96408e-01
1.357516515e+00,7.48855e-52,9.99999e-01,3.45658e-51,9.87379e-01,2.19415e-01
1.364304097e+00,7.54760e-32,9.99999e-01,1.09067e-30,9.87627e-01,7.00681e-02
1.371125618e+00,3.96030e-19,9.99999e-01,4.91441e-18,9.87869e-01,8.15748e-02
1.377981246e+00,1.81082e-18,9.99999e-01,1.57064e-17,9.88108e-01,1.16679e-01
1.384871152e+00,4.54570e-26,9.99999e-01,3.40478e-25,9.88341e-01,1.35084e-01
1.391795508e+00,4.57845e-32,9.99999e-01,3.12200e-31,9.88570e-01,1.48347e-01
1.398754485e+00,2.66802e-24,9.99999e-01,1.30509e-23,9.88795e-01,2.06748e-01
1.405748258e+00,5.17909e-24,9.99999e-01,1.31595e-23,9.89015e-01,3.97934e-01
1.412776999e+00,3.93294e-23,9.99998e-01,6.05527e-23,9.89230e-01,6.56576e-01
1.419840884e+00,7.22441e-23,9.99998e-01,8.78065e-23,9.89442e-01,8.31543e-01
1.426940089e+00,6.78393e-15,9.99997e-01,7.88614e-15,9.89649e-01,8.69230e-01
1.434074789e+00,2.87458e-13,9.99998e-01,3.42630e-13,9.89853e-01,8.47573e-01
1.441245163e+00,6.08114e-11,9.99998e-01,7.34719e-11,9.90052e-01,8.35997e-01
1.448451389e+00,2.54872e-07,9.99997e-01,3.01089e-07,9.90248e-01,8.54837e-01
1.455693646e+00,3.30782e-05,9.99998e-01,3.77325e-05,9.90439e-01,8.85111e-01
1.462972114e+00,4.23158e-05,9.99998e-01,4.79889e-05,9.90627e-01,8.90124e-01
1.470286975e+00,1.31770e-05,9.99999e-01,1.49112e-05,9.90812e-01,8.91890e-01
