#,Wave/freq,Total,N2,H2O,Rayleigh,CIA
4.000000000e-01,5.80617e-01,9.99999e-01,9.99938e-01,5.80652e-01,9.99999e-01
4.020000000e-01,5.86905e-01,9.99999e-01,9.99961e-01,5.86927e-01,9.99999e-01
4.040100000e-01,5.93128e-01,9.99999e-01,9.99983e-01,5.93137e-01,9.99999e-01
4.060300500e-01,5.99286e-01,9.99999e-01,9.99995e-01,5.99288e-01,9.99999e-01
4.080602003e-01,6.05379e-01,9.99999e-01,9.99998e-01,6.05380e-01,9.99999e-01
4.101005013e-01,6.11411e-01,9.99999e-01,9.99999e-01,6.11412e-01,9.99999e-01
4.121510038e-01,6.17381e-01,9.99999e-01,9.99997e-01,6.17382e-01,9.99999e-01
4.142117588e-01,6.23281e-01,9.99999e-01,9.99982e-01,6.23291e-01,9.99999e-01
4.162828176e-01,6.29091e-01,9.99999e-01,9.99923e-01,6.29139e-01,9.99999e-01
4.183642317e-01,6.34895e-01,9.99999e-01,9.99954e-01,6.34924e-01,9.99999e-01
4.204560528e-01,6.40629e-01,9.99999e-01,9.99971e-01,6.40646e-01,9.99999e-01
4.225583331e-01,6.46299e-01,9.99999e-01,9.99989e-01,6.46306e-01,9.99999e-01
4.246711247e-01,6.51897e-01,9.99999e-01,9.99991e-01,6.51902e-01,9.99999e-01
4.267944804e-01,6.57427e-01,9.99999e-01,9.99987e-01,6.57435e-01,9.99999e-01
4.289284528e-01,6.62898e-01,9.99999e-01,9.99990e-01,6.62904e-01,9.99999e-01
4.310730950e-01,6.68307e-01,9.99999e-01,9.99995e-01,6.68309e-01,9.99999e-01
4.332284605e-01,6.73650e-01,9.99999e-01,9.99998e-01,6.73650e-01,9.99999e-01
4.353946028e-01,6.78927e-01,9.99999e-01,9.99999e-01,6.78928e-01,9.99999e-01
4.375715758e-01,6.84135e-01,9.99999e-01,9.99991e-01,6.84141e-01,9.99999e-01
4.397594337e-01,6.89243e-01,9.99999e-01,9.99932e-01,6.89289e-01,9.99999e-01
4.419582309e-01,6.94136e-01,9.99999e-01,9.99657e-01,6.94374e-01,9.99999e-01
4.441680220e-01,6.99211e-01,9.99999e-01,9.99736e-01,6.99395e-01,9.99999e-01
4.463888621e-01,7.04158e-01,9.99999e-01,9.99724e-01,7.04352e-01,9.99999e-01
4.486208064e-01,7.09124e-01,9.99999e-01,9.99829e-01,7.09245e-01,9.99999e-01
4.508639105e-01,7.14017e-01,9.99999e-01,9.99919e-01,7.14074e-01,9.99999e-01
4.531182300e-01,7.18817e-01,9.99999e-01,9.99968e-01,7.18840e-01,9.99999e-01
4.553838212e-01,7.23527e-01,9.99999e-01,9.99978e-01,7.23542e-01,9.99999e-01
4.576607403e-01,7.28175e-01,9.99999e-01,9.99989e-01,7.28182e-01,9.99999e-01
4.599490440e-01,7.32754e-01,9.99999e-01,9.99992e-01,7.32759e-01,9.99999e-01
4.622487892e-01,7.37272e-01,9.99999e-01,9.99998e-01,7.37273e-01,9.99999e-01
4.645600332e-01,7.41722e-01,9.99999e-01,9.99994e-01,7.41725e-01,9.99999e-01
4.668828333e-01,7.46055e-01,9.99999e-01,9.99918e-01,7.46116e-01,9.99999e-01
4.692172475e-01,7.50315e-01,9.99999e-01,9.99827e-01,7.50444e-01,9.99999e-01
4.715633337e-01,7.54627e-01,9.99999e-01,9.99886e-01,7.54712e-01,9.99999e-01
4.739211504e-01,7.58837e-01,9.99999e-01,9.99891e-01,7.58919e-01,9.99999e-01
4.762907561e-01,7.63023e-01,9.99999e-01,9.99943e-01,7.63065e-01,9.99999e-01
4.786722099e-01,7.67135e-01,9.99999e-01,9.99976e-01,7.67152e-01,9.99999e-01
4.810655710e-01,7.71174e-01,9.99999e-01,9.99992e-01,7.71179e-01,9.99999e-01
4.834708988e-01,7.75095e-01,9.99999e-01,9.99932e-01,7.75147e-01,9.99999e-01
4.858882533e-01,7.78962e-01,9.99999e-01,9.99877e-01,7.79057e-01,9.99999e-01
4.883176946e-01,7.82828e-01,9.99999e-01,9.99897e-01,7.82908e-01,9.99999e-01
4.907592831e-01,7.86630e-01,9.99999e-01,9.99907e-01,7.86702e-01,9.99999e-01
4.932130795e-01,7.90387e-01,9.99999e-01,9.99934e-01,7.90439e-01,9.99999e-01
4.956791449e-01,7.94092e-01,9.99999e-01,9.99964e-01,7.94119e-01,9.99999e-01
4.981575406e-01,7.97605e-01,9.99999e-01,9.99825e-01,7.97743e-01,9.99999e-01
5.006483283e-01,8.00947e-01,9.99999e-01,9.99546e-01,8.01312e-01,9.99996e-01
5.031515699e-01,8.02970e-01,9.99999e-01,9.97717e-01,8.04826e-01,9.99975e-01
5.056673278e-01,8.07292e-01,9.99999e-01,9.98798e-01,8.08285e-01,9.99972e-01
5.081956644e-01,8.10447e-01,9.99999e-01,9.98484e-01,8.11690e-01,9.99982e-01
5.107366428e-01,8.14206e-01,9.99999e-01,9.98977e-01,8.15042e-01,9.99996e-01
5.132903260e-01,8.17863e-01,9.99999e-01,9.99415e-01,8.18341e-01,9.99999e-01
5.158567776e-01,8.21386e-01,9.99999e-01,9.99753e-01,8.21588e-01,9.99999e-01
5.184360615e-01,8.24702e-01,9.99999e-01,9.99900e-01,8.24784e-01,9.99999e-01
5.210282418e-01,8.27897e-01,9.99999e-01,9.99962e-01,8.27928e-01,9.99999e-01
5.236333830e-01,8.30897e-01,9.99999e-01,9.99850e-01,8.31022e-01,9.99998e-01
5.262515499e-01,8.33987e-01,9.99999e-01,9.99906e-01,8.34065e-01,9.99998e-01
5.288828077e-01,8.36988e-01,9.99999e-01,9.99913e-01,8.37060e-01,9.99998e-01
5.315272217e-01,8.39943e-01,9.99999e-01,9.99924e-01,8.40006e-01,9.99999e-01
5.341848578e-01,8.42862e-01,9.99999e-01,9.99950e-01,8.42904e-01,9.99999e-01
5.368557821e-01,8.45607e-01,9.99999e-01,9.99825e-01,8.45754e-01,9.99999e-01
5.395400610e-01,8.48018e-01,9.99999e-01,9.99369e-01,8.48557e-01,9.99993e-01
5.422377613e-01,8.50616e-01,9.99999e-01,9.99194e-01,8.51314e-01,9.99984e-01
5.449489501e-01,8.53370e-01,9.99999e-01,9.99246e-01,8.54025e-01,9.99984e-01
5.476736949e-01,8.56117e-01,9.99999e-01,9.99337e-01,8.56691e-01,9.99992e-01
5.504120634e-01,8.58898e-01,9.99999e-01,9.99518e-01,8.59313e-01,9.99997e-01
5.531641237e-01,8.61681e-01,9.99999e-01,9.99757e-01,8.61890e-01,9.99999e-01
5.559299443e-01,8.64323e-01,9.99999e-01,9.99882e-01,8.64424e-01,9.99999e-01
5.587095940e-01,8.66852e-01,9.99999e-01,9.99926e-01,8.66915e-01,9.99999e-01
5.615031420e-01,8.69293e-01,9.99999e-01,9.99917e-01,8.69364e-01,9.99999e-01
5.643106577e-01,8.71689e-01,9.99999e-01,9.99905e-01,8.71772e-01,9.99998e-01
5.671322110e-01,8.73130e-01,9.99999e-01,9.98856e-01,8.74138e-01,9.99989e-01
5.699678720e-01,8.75393e-01,9.99999e-01,9.98809e-01,8.76463e-01,9.99968e-01
5.728177114e-01,8.77628e-01,9.99999e-01,9.98749e-01,8.78749e-01,9.99973e-01
5.756818000e-01,8.79974e-01,9.99999e-01,9.98854e-01,8.80996e-01,9.99984e-01
5.785602090e-01,8.82319e-01,9.99999e-01,9.99002e-01,8.83203e-01,9.99995e-01
5.814530100e-01,8.84483e-01,9.99999e-01,9.98996e-01,8.85373e-01,9.99997e-01
5.843602750e-01,8.86432e-01,9.99999e-01,9.98797e-01,8.87504e-01,9.99992e-01
5.872820764e-01,8.80366e-01,9.99999e-01,9.89692e-01,8.89599e-01,9.99927e-01
5.902184868e-01,8.80421e-01,9.99999e-01,9.87593e-01,8.91657e-01,9.99802e-01
5.931695792e-01,8.85654e-01,9.99999e-01,9.91207e-01,8.93679e-01,9.99809e-01
5.961354271e-01,8.86950e-01,9.99999e-01,9.90376e-01,8.95665e-01,9.99890e-01
5.991161043e-01,8.91284e-01,9.99999e-01,9.92977e-01,8.97617e-01,9.99965e-01
6.021116848e-01,8.95945e-01,9.99999e-01,9.96013e-01,8.99534e-01,9.99995e-01
6.051222432e-01,8.99598e-01,9.99999e-01,9.97981e-01,9.01417e-01,9.99999e-01
6.081478544e-01,9.02480e-01,9.99999e-01,9.99128e-01,9.03267e-01,9.99999e-01
6.111885937e-01,9.04751e-01,9.99999e-01,9.99631e-01,9.05084e-01,9.99999e-01
6.142445367e-01,9.06719e-01,9.99999e-01,9.99835e-01,9.06869e-01,9.99999e-01
6.173157594e-01,9.08539e-01,9.99999e-01,9.99908e-01,9.08621e-01,9.99999e-01
6.204023382e-01,9.10272e-01,9.99999e-01,9.99922e-01,9.10343e-01,9.99999e-01
6.235043498e-01,9.11719e-01,9.99999e-01,9.99656e-01,9.12033e-01,9.99998e-01
6.266218716e-01,9.12041e-01,9.99999e-01,9.98203e-01,9.13694e-01,9.99986e-01
6.297549810e-01,9.14698e-01,9.99999e-01,9.99340e-01,9.15324e-01,9.99974e-01
6.329037559e-01,9.15715e-01,9.99999e-01,9.98700e-01,9.16925e-01,9.99979e-01
6.360682746e-01,9.17467e-01,9.99999e-01,9.98889e-01,9.18497e-01,9.99987e-01
6.392486160e-01,9.18715e-01,9.99999e-01,9.98563e-01,9.20041e-01,9.99994e-01
6.424448591e-01,9.19766e-01,9.99999e-01,9.98065e-01,9.21557e-01,9.99990e-01
6.456570834e-01,9.14736e-01,9.99999e-01,9.91051e-01,9.23045e-01,9.99945e-01
6.488853688e-01,9.18366e-01,9.99999e-01,9.93495e-01,9.24506e-01,9.99861e-01
6.521297956e-01,9.19700e-01,9.99999e-01,9.93372e-01,9.25941e-01,9.99885e-01
6.553904446e-01,9.21128e-01,9.99999e-01,9.93375e-01,9.27349e-01,9.99914e-01
6.586673968e-01,9.23452e-01,9.99999e-01,9.94343e-01,9.28732e-01,9.99971e-01
6.619607338e-01,9.27149e-01,9.99999e-01,9.96844e-01,9.30089e-01,9.99993e-01
6.652705375e-01,9.29654e-01,9.99999e-01,9.98105e-01,9.31421e-01,9.99996e-01
6.685968902e-01,9.31978e-01,9.99999e-01,9.99194e-01,9.32729e-01,9.99998e-01
6.719398746e-01,9.33633e-01,9.99999e-01,9.99592e-01,9.34013e-01,9.99999e-01
6.752995740e-01,9.35072e-01,9.99999e-01,9.99784e-01,9.35273e-01,9.99999e-01
6.786760719e-01,9.36208e-01,9.99999e-01,9.99677e-01,9.36510e-01,9.99999e-01
6.820694522e-01,9.37208e-01,9.99999e-01,9.99451e-01,9.37725e-01,9.99996e-01
6.854797995e-01,9.38246e-01,9.99999e-01,9.99291e-01,9.38916e-01,9.99993e-01
6.889071985e-01,9.38444e-01,9.99999e-01,9.98268e-01,9.40086e-01,9.99984e-01
6.923517345e-01,9.15046e-01,9.99999e-01,9.72306e-01,9.41234e-01,9.99865e-01
6.958134932e-01,9.28642e-01,9.99999e-01,9.85733e-01,9.42360e-01,9.99703e-01
6.992925606e-01,9.30216e-01,9.99999e-01,9.86218e-01,9.43466e-01,9.99732e-01
7.027890234e-01,9.28407e-01,9.99999e-01,9.83107e-01,9.44551e-01,9.99795e-01
7.063029686e-01,9.32061e-01,9.99999e-01,9.85764e-01,9.45616e-01,9.99898e-01
7.098344834e-01,9.33670e-01,9.99999e-01,9.86335e-01,9.46661e-01,9.99939e-01
7.133836558e-01,9.30227e-01,9.99999e-01,9.81693e-01,9.47687e-01,9.99880e-01
7.169505741e-01,8.18544e-01,9.99999e-01,8.63622e-01,9.48693e-01,9.99061e-01
7.205353270e-01,8.83112e-01,9.99999e-01,9.31445e-01,9.49680e-01,9.98344e-01
7.241380036e-01,8.66375e-01,9.99999e-01,9.12654e-01,9.50649e-01,9.98570e-01
7.277586936e-01,8.75316e-01,9.99999e-01,9.20911e-01,9.51600e-01,9.98831e-01
7.313974871e-01,8.72309e-01,9.99999e-01,9.16279e-01,9.52533e-01,9.99452e-01
7.350544745e-01,9.08696e-01,9.99999e-01,9.53243e-01,9.53449e-01,9.99809e-01
7.387297469e-01,9.21202e-01,9.99999e-01,9.65353e-01,9.54347e-01,9.99912e-01
7.424233956e-01,9.38896e-01,9.99999e-01,9.82916e-01,9.55228e-01,9.99984e-01
7.461355126e-01,9.46148e-01,9.99999e-01,9.89600e-01,9.56093e-01,9.99996e-01
7.498661902e-01,9.52305e-01,9.99999e-01,9.95155e-01,9.56941e-01,9.99998e-01
7.536155211e-01,9.55490e-01,9.99999e-01,9.97615e-01,9.57773e-01,9.99998e-01
7.573835987e-01,9.57413e-01,9.99999e-01,9.98772e-01,9.58590e-01,9.99999e-01
7.611705167e-01,9.58659e-01,9.99999e-01,9.99236e-01,9.59391e-01,9.99999e-01
7.649763693e-01,9.59717e-01,9.99999e-01,9.99521e-01,9.60177e-01,9.99999e-01
7.688012511e-01,9.60627e-01,9.99999e-01,9.99666e-01,9.60948e-01,9.99999e-01
7.726452574e-01,9.61440e-01,9.99999e-01,9.99725e-01,9.61704e-01,9.99999e-01
7.765084837e-01,9.62068e-01,9.99999e-01,9.99607e-01,9.62446e-01,9.99999e-01
7.803910261e-01,9.61538e-01,9.99999e-01,9.98302e-01,9.63174e-01,9.99997e-01
7.842929812e-01,9.58178e-01,9.99999e-01,9.94085e-01,9.63888e-01,9.99988e-01
7.882144461e-01,9.52861e-01,9.99999e-01,9.87923e-01,9.64589e-01,9.99916e-01
7.921555184e-01,9.58755e-01,9.99999e-01,9.93387e-01,9.65276e-01,9.99854e-01
7.961162960e-01,9.54464e-01,9.99999e-01,9.88244e-01,9.65950e-01,9.99862e-01
8.000968774e-01,9.53405e-01,9.99999e-01,9.86481e-01,9.66611e-01,9.99853e-01
8.040973618e-01,9.54063e-01,9.99999e-01,9.86466e-01,9.67260e-01,9.99887e-01
8.081178486e-01,9.38425e-01,9.99999e-01,9.69661e-01,9.67896e-01,9.99886e-01
8.121584379e-01,8.52094e-01,9.99999e-01,8.80166e-01,9.68520e-01,9.99571e-01
8.162192301e-01,8.32664e-01,9.99999e-01,8.60570e-01,9.69132e-01,9.98389e-01
8.203003262e-01,8.98321e-01,9.99999e-01,9.28108e-01,9.69732e-01,9.98114e-01
8.244018279e-01,8.75153e-01,9.99999e-01,9.03275e-01,9.70321e-01,9.98499e-01
8.285238370e-01,8.85964e-01,9.99999e-01,9.13595e-01,9.70899e-01,9.98820e-01
8.326664562e-01,8.86576e-01,9.99999e-01,9.13061e-01,9.71465e-01,9.99512e-01
8.368297885e-01,9.10628e-01,9.99999e-01,9.36943e-01,9.72021e-01,9.99888e-01
8.410139374e-01,9.35571e-01,9.99999e-01,9.62023e-01,9.72566e-01,9.99934e-01
8.452190071e-01,9.54772e-01,9.99999e-01,9.81202e-01,9.73101e-01,9.99960e-01
8.494451021e-01,9.62905e-01,9.99999e-01,9.89019e-01,9.73625e-01,9.99968e-01
8.536923276e-01,9.67798e-01,9.99999e-01,9.93509e-01,9.74139e-01,9.99980e-01
8.579607893e-01,9.70731e-01,9.99999e-01,9.95989e-01,9.74643e-01,9.99994e-01
8.622505932e-01,9.72656e-01,9.99999e-01,9.97455e-01,9.75138e-01,9.99998e-01
8.665618462e-01,9.74082e-01,9.99999e-01,9.98421e-01,9.75623e-01,9.99999e-01
8.708946554e-01,9.74331e-01,9.99999e-01,9.98189e-01,9.76099e-01,9.99998e-01
8.752491287e-01,9.74200e-01,9.99999e-01,9.97579e-01,9.76565e-01,9.99996e-01
8.796253743e-01,9.73735e-01,9.99999e-01,9.96641e-01,9.77023e-01,9.99992e-01
8.840235012e-01,9.73703e-01,9.99999e-01,9.96167e-01,9.77471e-01,9.99976e-01
8.884436187e-01,9.64109e-01,9.99999e-01,9.85951e-01,9.77911e-01,9.99933e-01
8.928858368e-01,8.44585e-01,9.99999e-01,8.63611e-01,9.78343e-01,9.99617e-01
8.973502660e-01,7.55744e-01,9.99999e-01,7.73654e-01,9.78766e-01,9.98041e-01
9.018370173e-01,8.56974e-01,9.99999e-01,8.77895e-01,9.79181e-01,9.96922e-01
9.063462024e-01,8.69654e-01,9.99999e-01,8.90181e-01,9.79588e-01,9.97295e-01
9.108779334e-01,8.15765e-01,9.99999e-01,8.34768e-01,9.79987e-01,9.97190e-01
9.154323231e-01,7.96442e-01,9.99999e-01,8.14273e-01,9.80378e-01,9.97676e-01
9.200094847e-01,8.34515e-01,9.99999e-01,8.51991e-01,9.80762e-01,9.98698e-01
9.246095321e-01,7.65785e-01,9.99999e-01,7.81677e-01,9.81139e-01,9.98501e-01
9.292325798e-01,2.07558e-01,9.99999e-01,2.13005e-01,9.81508e-01,9.92785e-01
9.338787427e-01,1.31728e-01,9.99999e-01,1.37718e-01,9.81870e-01,9.74167e-01
9.385481364e-01,4.25720e-01,9.99999e-01,4.46067e-01,9.82225e-01,9.71654e-01
9.432408771e-01,3.22113e-01,9.99999e-01,3.36060e-01,9.82573e-01,9.75497e-01
9.479570815e-01,2.14310e-01,9.99999e-01,2.22482e-01,9.82914e-01,9.80012e-01
9.526968669e-01,3.04503e-01,9.99999e-01,3.13528e-01,9.83248e-01,9.87760e-01
9.574603512e-01,3.23937e-01,9.99999e-01,3.31412e-01,9.83577e-01,9.93763e-01
9.622476530e-01,3.93814e-01,9.99999e-01,4.01993e-01,9.83898e-01,9.95683e-01
9.670588912e-01,5.77201e-01,9.99999e-01,5.88196e-01,9.84214e-01,9.97045e-01
9.718941857e-01,6.99251e-01,9.99999e-01,7.11791e-01,9.84523e-01,9.97824e-01
9.767536566e-01,7.41071e-01,9.99999e-01,7.53742e-01,9.84827e-01,9.98336e-01
9.816374249e-01,7.98029e-01,9.99999e-01,8.10545e-01,9.85124e-01,9.99423e-01
9.865456120e-01,8.63843e-01,9.99999e-01,8.76732e-01,9.85416e-01,9.99879e-01
9.914783401e-01,9.08519e-01,9.99999e-01,9.21728e-01,9.85702e-01,9.99966e-01
9.964357318e-01,9.43161e-01,9.99999e-01,9.56588e-01,9.85982e-01,9.99980e-01
1.001417910e+00,9.60337e-01,9.99999e-01,9.73746e-01,9.86257e-01,9.99969e-01
1.006425000e+00,9.71613e-01,9.99999e-01,9.84924e-01,9.86527e-01,9.99957e-01
1.011457125e+00,9.77512e-01,9.99999e-01,9.90635e-01,9.86791e-01,9.99960e-01
1.016514411e+00,9.80732e-01,9.99999e-01,9.93626e-01,9.87050e-01,9.99971e-01
1.021596983e+00,9.82258e-01,9.99999e-01,9.94915e-01,9.87304e-01,9.99972e-01
1.026704968e+00,9.83618e-01,9.99999e-01,9.96031e-01,9.87553e-01,9.99982e-01
1.031838492e+00,9.84947e-01,9.99999e-01,9.97118e-01,9.87798e-01,9.99994e-01
1.036997685e+00,9.86343e-01,9.99999e-01,9.98285e-01,9.88037e-01,9.99998e-01
1.042182673e+00,9.86246e-01,9.99999e-01,9.97949e-01,9.88272e-01,9.99999e-01
1.047393587e+00,9.85820e-01,9.99999e-01,9.97285e-01,9.88503e-01,9.99998e-01
1.052630555e+00,9.85044e-01,9.99999e-01,9.96273e-01,9.88728e-01,9.99998e-01
1.057893707e+00,9.82796e-01,9.99999e-01,9.93779e-01,9.88950e-01,9.99997e-01
1.063183176e+00,9.79065e-01,9.99999e-01,9.89792e-01,9.89167e-01,9.99994e-01
1.068499092e+00,9.72534e-01,9.99999e-01,9.82984e-01,9.89380e-01,9.99987e-01
1.073841587e+00,9.69875e-01,9.99999e-01,9.80103e-01,9.89588e-01,9.99974e-01
1.079210795e+00,9.64606e-01,9.99999e-01,9.74619e-01,9.89793e-01,9.99931e-01
1.084606849e+00,9.52027e-01,9.99999e-01,9.61807e-01,9.89993e-01,9.99834e-01
1.090029883e+00,9.35862e-01,9.99999e-01,9.45455e-01,9.90190e-01,9.99658e-01
1.095480033e+00,8.49787e-01,9.99999e-01,8.58568e-01,9.90383e-01,9.99382e-01
1.100957433e+00,6.74053e-01,9.99999e-01,6.81242e-01,9.90572e-01,9.98863e-01
1.106462220e+00,3.84698e-01,9.99999e-01,3.89036e-01,9.90757e-01,9.98072e-01
1.111994531e+00,1.42683e-01,9.99999e-01,1.44726e-01,9.90939e-01,9.94892e-01
1.117554504e+00,4.69108e-02,9.99999e-01,4.82142e-02,9.91117e-01,9.81684e-01
1.123142276e+00,1.18241e-01,9.99999e-01,1.24625e-01,9.91292e-01,9.57111e-01
1.128757988e+00,2.22835e-01,9.99999e-01,2.36444e-01,9.91463e-01,9.50553e-01
1.134401778e+00,1.01624e-01,9.99999e-01,1.06997e-01,9.91631e-01,9.57796e-01
1.140073787e+00,3.90554e-01,9.99999e-01,4.07587e-01,9.91796e-01,9.66134e-01
1.145774156e+00,1.65210e-01,9.99999e-01,1.71886e-01,9.91957e-01,9.68956e-01
1.151503026e+00,1.39284e-01,9.99999e-01,1.42879e-01,9.92115e-01,9.82585e-01
1.157260541e+00,1.74953e-01,9.99999e-01,1.77244e-01,9.92270e-01,9.94760e-01
1.163046844e+00,2.73124e-01,9.99999e-01,2.75619e-01,9.92422e-01,9.98511e-01
1.168862078e+00,3.95634e-01,9.99999e-01,3.98900e-01,9.92572e-01,9.99232e-01
1.174706389e+00,5.61433e-01,9.99999e-01,5.66127e-01,9.92718e-01,9.98983e-01
1.180579921e+00,6.99880e-01,9.99999e-01,7.05996e-01,9.92861e-01,9.98463e-01
1.186482820e+00,8.13260e-01,9.99999e-01,8.20284e-01,9.93002e-01,9.98422e-01
1.192415234e+00,8.83353e-01,9.99999e-01,8.90506e-01,9.93139e-01,9.98818e-01
1.198377311e+00,8.99708e-01,9.99999e-01,9.06811e-01,9.93274e-01,9.98884e-01
1.204369197e+00,9.04942e-01,9.99999e-01,9.11867e-01,9.93407e-01,9.98990e-01
1.210391043e+00,9.08957e-01,9.99999e-01,9.15431e-01,9.93536e-01,9.99385e-01
1.216442998e+00,9.21476e-01,9.99999e-01,9.27700e-01,9.93664e-01,9.99623e-01
1.222525213e+00,9.37059e-01,9.99999e-01,9.43136e-01,9.93788e-01,9.99765e-01
1.228637839e+00,9.54183e-01,9.99999e-01,9.60132e-01,9.93911e-01,9.99890e-01
1.234781029e+00,9.64451e-01,9.99999e-01,9.70272e-01,9.94031e-01,9.99968e-01
1.240954934e+00,9.75337e-01,9.99999e-01,9.81086e-01,9.94148e-01,9.99990e-01
1.247159708e+00,9.79591e-01,9.99999e-01,9.85247e-01,9.94263e-01,9.99993e-01
1.253395507e+00,9.81322e-01,9.99999e-01,9.86878e-01,9.94376e-01,9.99992e-01
1.259662485e+00,9.82057e-01,9.99999e-01,9.87511e-01,9.94487e-01,9.99987e-01
1.265960797e+00,9.74838e-01,9.99999e-01,9.80153e-01,9.94596e-01,9.99980e-01
1.272290601e+00,9.63768e-01,9.99999e-01,9.68933e-01,9.94702e-01,9.99965e-01
1.278652054e+00,9.34367e-01,9.99999e-01,9.39300e-01,9.94807e-01,9.99938e-01
1.285045314e+00,8.88158e-01,9.99999e-01,8.92803e-01,9.94909e-01,9.99886e-01
1.291470541e+00,8.16631e-01,9.99999e-01,8.20890e-01,9.95009e-01,9.99800e-01
1.297927893e+00,7.51963e-01,9.99999e-01,7.55940e-01,9.95107e-01,9.99628e-01
1.304417533e+00,7.16543e-01,9.99999e-01,7.20561e-01,9.95204e-01,9.99214e-01
1.310939621e+00,6.56881e-01,9.99999e-01,6.61049e-01,9.95298e-01,9.98387e-01
1.317494319e+00,6.61637e-01,9.99999e-01,6.66687e-01,9.95391e-01,9.97019e-01
1.324081790e+00,5.43868e-01,9.99999e-01,5.49004e-01,9.95482e-01,9.95138e-01
1.330702199e+00,1.55514e-01,9.99999e-01,1.57524e-01,9.95571e-01,9.91632e-01
1.337355710e+00,4.55462e-03,9.99999e-01,4.64910e-03,9.95658e-01,9.83948e-01
1.344042489e+00,9.16204e-05,9.99999e-01,9.66077e-05,9.95744e-01,9.52428e-01
1.350762701e+00,2.28672e-12,9.99999e-01,2.71332e-12,9.95828e-01,8.46307e-01
1.357516515e+00,3.28381e-18,9.99999e-01,5.38080e-18,9.95910e-01,6.12788e-01
1.364304097e+00,1.22102e-11,9.99999e-01,2.89215e-11,9.95990e-01,4.23883e-01
1.371125618e+00,1.24948e-07,9.99999e-01,2.81756e-07,9.96069e-01,4.45212e-01
1.377981246e+00,4.54210e-07,9.99999e-01,9.12386e-07,9.96147e-01,4.99752e-01
1.384871152e+00,6.14926e-10,9.99999e-01,1.17807e-09,9.96223e-01,5.23953e-01
1.391795508e+00,1.33198e-11,9.99999e-01,2.47561e-11,9.96297e-01,5.40039e-01
1.398754485e+00,3.16967e-09,9.99999e-01,5.29201e-09,9.96370e-01,6.01135e-01
1.405748258e+00,4.15161e-09,9.99999e-01,5.61016e-09,9.96442e-01,7.42657e-01
1.412776999e+00,5.93750e-09,9.99999e-01,6.82519e-09,9.96512e-01,8.72982e-01
1.419840884e+00,1.24154e-08,9.99999e-01,1.32225e-08,9.96581e-01,9.42177e-01
1.426940089e+00,2.65824e-06,9.99998e-01,2.79064e-06,9.96648e-01,9.55758e-01
1.434074789e+00,2.43412e-05,9.99999e-01,2.57609e-05,9.96714e-01,9.48003e-01
1.441245163e+00,1.63960e-04,9.99999e-01,1.74283e-04,9.96779e-01,9.43803e-01
1.448451389e+00,2.51438e-03,9.99998e-01,2.65337e-03,9.96842e-01,9.50619e-01
1.455693646e+00,1.67088e-02,9.99999e-01,1.74343e-02,9.96905e-01,9.61361e-01
1.462972114e+00,2.42465e-02,9.99999e-01,2.52516e-02,9.96966e-01,9.63116e-01
1.470286975e+00,1.38818e-02,9.99999e-01,1.44472e-02,9.97026e-01,9.63732e-01
