#,Wave/freq,Total,N2,H2O,Rayleigh,CIA
4.000000000e-01,8.78451e-01,9.99999e-01,9.99984e-01,8.78464e-01,9.99999e-01
4.020000000e-01,8.80710e-01,9.99999e-01,9.99990e-01,8.80718e-01,9.99999e-01
4.040100000e-01,8.82927e-01,9.99999e-01,9.99995e-01,8.82930e-01,9.99999e-01
4.060300500e-01,8.85103e-01,9.99999e-01,9.99998e-01,8.85104e-01,9.99999e-01
4.080602003e-01,8.87240e-01,9.99999e-01,9.99999e-01,8.87240e-01,9.99999e-01
4.101005013e-01,8.89340e-01,9.99999e-01,9.99999e-01,8.89340e-01,9.99999e-01
4.121510038e-01,8.91402e-01,9.99999e-01,9.99998e-01,8.91402e-01,9.99999e-01
4.142117588e-01,8.93425e-01,9.99999e-01,9.99995e-01,8.93429e-01,9.99999e-01
4.162828176e-01,8.95403e-01,9.99999e-01,9.99981e-01,8.95419e-01,9.99999e-01
4.183642317e-01,8.97366e-01,9.99999e-01,9.99988e-01,8.97375e-01,9.99999e-01
4.204560528e-01,8.99291e-01,9.99999e-01,9.99992e-01,8.99297e-01,9.99999e-01
4.225583331e-01,9.01182e-01,9.99999e-01,9.99997e-01,9.01184e-01,9.99999e-01
4.246711247e-01,9.03036e-01,9.99999e-01,9.99997e-01,9.03038e-01,9.99999e-01
4.267944804e-01,9.04856e-01,9.99999e-01,9.99996e-01,9.04859e-01,9.99999e-01
4.289284528e-01,9.06646e-01,9.99999e-01,9.99997e-01,9.06648e-01,9.99999e-01
4.310730950e-01,9.08404e-01,9.99999e-01,9.99998e-01,9.08404e-01,9.99999e-01
4.332284605e-01,9.10130e-01,9.99999e-01,9.99999e-01,9.10130e-01,9.99999e-01
4.353946028e-01,9.11824e-01,9.99999e-01,9.99999e-01,9.11824e-01,9.99999e-01
4.375715758e-01,9.13487e-01,9.99999e-01,9.99997e-01,9.13488e-01,9.99999e-01
4.397594337e-01,9.15108e-01,9.99999e-01,9.99983e-01,9.15122e-01,9.99999e-01
4.419582309e-01,9.16653e-01,9.99999e-01,9.99918e-01,9.16727e-01,9.99999e-01
4.441680220e-01,9.18245e-01,9.99999e-01,9.99936e-01,9.18303e-01,9.99999e-01
4.463888621e-01,9.19790e-01,9.99999e-01,9.99933e-01,9.19850e-01,9.99999e-01
4.486208064e-01,9.21332e-01,9.99999e-01,9.99958e-01,9.21369e-01,9.99999e-01
4.508639105e-01,9.22843e-01,9.99999e-01,9.99980e-01,9.22861e-01,9.99999e-01
4.531182300e-01,9.24318e-01,9.99999e-01,9.99991e-01,9.24325e-01,9.99999e-01
4.553838212e-01,9.25758e-01,9.99999e-01,9.99994e-01,9.25763e-01,9.99999e-01
4.576607403e-01,9.27172e-01,9.99999e-01,9.99997e-01,9.27175e-01,9.99999e-01
4.599490440e-01,9.28559e-01,9.99999e-01,9.99997e-01,9.28560e-01,9.99999e-01
4.622487892e-01,9.29921e-01,9.99999e-01,9.99999e-01,9.29921e-01,9.99999e-01
4.645600332e-01,9.31255e-01,9.99999e-01,9.99998e-01,9.31256e-01,9.99999e-01
4.668828333e-01,9.32549e-01,9.99999e-01,9.99980e-01,9.32567e-01,9.99999e-01
4.692172475e-01,9.33816e-01,9.99999e-01,9.99958e-01,9.33854e-01,9.99999e-01
4.715633337e-01,9.35092e-01,9.99999e-01,9.99972e-01,9.35117e-01,9.99999e-01
4.739211504e-01,9.36333e-01,9.99999e-01,9.99973e-01,9.36357e-01,9.99999e-01
4.762907561e-01,9.37562e-01,9.99999e-01,9.99986e-01,9.37574e-01,9.99999e-01
4.786722099e-01,9.38764e-01,9.99999e-01,9.99994e-01,9.38769e-01,9.99999e-01
4.810655710e-01,9.39940e-01,9.99999e-01,9.99997e-01,9.39941e-01,9.99999e-01
4.834708988e-01,9.41077e-01,9.99999e-01,9.99983e-01,9.41092e-01,9.99999e-01
4.858882533e-01,9.42194e-01,9.99999e-01,9.99970e-01,9.42221e-01,9.99999e-01
4.883176946e-01,9.43306e-01,9.99999e-01,9.99975e-01,9.43329e-01,9.99999e-01
4.907592831e-01,9.44396e-01,9.99999e-01,9.99977e-01,9.44417e-01,9.99999e-01
4.932130795e-01,9.45470e-01,9.99999e-01,9.99983e-01,9.45484e-01,9.99999e-01
4.956791449e-01,9.46524e-01,9.99999e-01,9.99991e-01,9.46532e-01,9.99999e-01
4.981575406e-01,9.47521e-01,9.99999e-01,9.99958e-01,9.47560e-01,9.99999e-01
5.006483283e-01,9.48466e-01,9.99999e-01,9.99892e-01,9.48569e-01,9.99998e-01
5.031515699e-01,9.49037e-01,9.99999e-01,9.99455e-01,9.49558e-01,9.99993e-01
5.056673278e-01,9.50251e-01,9.99999e-01,9.99712e-01,9.50530e-01,9.99992e-01
5.081956644e-01,9.51134e-01,9.99999e-01,9.99637e-01,9.51483e-01,9.99995e-01
5.107366428e-01,9.52184e-01,9.99999e-01,9.99755e-01,9.52418e-01,9.99998e-01
5.132903260e-01,9.53202e-01,9.99999e-01,9.99860e-01,9.53335e-01,9.99999e-01
5.158567776e-01,9.54179e-01,9.99999e-01,9.99940e-01,9.54236e-01,9.99999e-01
5.184360615e-01,9.55096e-01,9.99999e-01,9.99975e-01,9.55119e-01,9.99999e-01
5.210282418e-01,9.55977e-01,9.99999e-01,9.99990e-01,9.55986e-01,9.99999e-01
5.236333830e-01,9.56802e-01,9.99999e-01,9.99964e-01,9.56836e-01,9.99999e-01
5.262515499e-01,9.57649e-01,9.99999e-01,9.99977e-01,9.57670e-01,9.99999e-01
5.288828077e-01,9.58469e-01,9.99999e-01,9.99979e-01,9.58489e-01,9.99999e-01
5.315272217e-01,9.59275e-01,9.99999e-01,9.99981e-01,9.59292e-01,9.99999e-01
5.341848578e-01,9.60068e-01,9.99999e-01,9.99987e-01,9.60080e-01,9.99999e-01
5.368557821e-01,9.60813e-01,9.99999e-01,9.99958e-01,9.60852e-01,9.99999e-01
5.395400610e-01,9.61466e-01,9.99999e-01,9.99850e-01,9.61611e-01,9.99998e-01
5.422377613e-01,9.62166e-01,9.99999e-01,9.99807e-01,9.62354e-01,9.99996e-01
5.449489501e-01,9.62908e-01,9.99999e-01,9.99820e-01,9.63084e-01,9.99995e-01
5.476736949e-01,9.63646e-01,9.99999e-01,9.99841e-01,9.63800e-01,9.99997e-01
5.504120634e-01,9.64391e-01,9.99999e-01,9.99884e-01,9.64502e-01,9.99999e-01
5.531641237e-01,9.65135e-01,9.99999e-01,9.99941e-01,9.65191e-01,9.99999e-01
5.559299443e-01,9.65840e-01,9.99999e-01,9.99971e-01,9.65867e-01,9.99999e-01
5.587095940e-01,9.66512e-01,9.99999e-01,9.99982e-01,9.66529e-01,9.99999e-01
5.615031420e-01,9.67161e-01,9.99999e-01,9.99980e-01,9.67180e-01,9.99999e-01
5.643106577e-01,9.67796e-01,9.99999e-01,9.99977e-01,9.67817e-01,9.99999e-01
5.671322110e-01,9.68179e-01,9.99999e-01,9.99729e-01,9.68443e-01,9.99997e-01
5.699678720e-01,9.68773e-01,9.99999e-01,9.99714e-01,9.69056e-01,9.99992e-01
5.728177114e-01,9.69364e-01,9.99999e-01,9.99701e-01,9.69658e-01,9.99993e-01
5.756818000e-01,9.69980e-01,9.99999e-01,9.99726e-01,9.70248e-01,9.99995e-01
5.785602090e-01,9.70595e-01,9.99999e-01,9.99761e-01,9.70827e-01,9.99998e-01
5.814530100e-01,9.71163e-01,9.99999e-01,9.99760e-01,9.71395e-01,9.99998e-01
5.843602750e-01,9.71673e-01,9.99999e-01,9.99714e-01,9.71952e-01,9.99997e-01
5.872820764e-01,9.70088e-01,9.99999e-01,9.97538e-01,9.72499e-01,9.99982e-01
5.902184868e-01,9.70093e-01,9.99999e-01,9.97023e-01,9.73034e-01,9.99952e-01
5.931695792e-01,9.71467e-01,9.99999e-01,9.97895e-01,9.73560e-01,9.99954e-01
5.961354271e-01,9.71804e-01,9.99999e-01,9.97693e-01,9.74075e-01,9.99973e-01
5.991161043e-01,9.72935e-01,9.99999e-01,9.98318e-01,9.74581e-01,9.99991e-01
6.021116848e-01,9.74146e-01,9.99999e-01,9.99045e-01,9.75077e-01,9.99998e-01
6.051222432e-01,9.75092e-01,9.99999e-01,9.99516e-01,9.75563e-01,9.99999e-01
6.081478544e-01,9.75837e-01,9.99999e-01,9.99791e-01,9.76040e-01,9.99999e-01
6.111885937e-01,9.76421e-01,9.99999e-01,9.99911e-01,9.76507e-01,9.99999e-01
6.142445367e-01,9.76928e-01,9.99999e-01,9.99960e-01,9.76966e-01,9.99999e-01
6.173157594e-01,9.77395e-01,9.99999e-01,9.99977e-01,9.77416e-01,9.99999e-01
6.204023382e-01,9.77839e-01,9.99999e-01,9.99981e-01,9.77857e-01,9.99999e-01
6.235043498e-01,9.78210e-01,9.99999e-01,9.99918e-01,9.78289e-01,9.99999e-01
6.266218716e-01,9.78291e-01,9.99999e-01,9.99571e-01,9.78714e-01,9.99996e-01
6.297549810e-01,9.78970e-01,9.99999e-01,9.99842e-01,9.79130e-01,9.99993e-01
6.329037559e-01,9.79229e-01,9.99999e-01,9.99689e-01,9.79538e-01,9.99994e-01
6.360682746e-01,9.79676e-01,9.99999e-01,9.99735e-01,9.79938e-01,9.99996e-01
6.392486160e-01,9.79993e-01,9.99999e-01,9.99656e-01,9.80330e-01,9.99998e-01
6.424448591e-01,9.80263e-01,9.99999e-01,9.99540e-01,9.80715e-01,9.99997e-01
6.456570834e-01,9.78989e-01,9.99999e-01,9.97867e-01,9.81092e-01,9.99987e-01
6.488853688e-01,9.79900e-01,9.99999e-01,9.98441e-01,9.81462e-01,9.99966e-01
6.521297956e-01,9.80238e-01,9.99999e-01,9.98410e-01,9.81825e-01,9.99972e-01
6.553904446e-01,9.80607e-01,9.99999e-01,9.98417e-01,9.82181e-01,9.99979e-01
6.586673968e-01,9.81192e-01,9.99999e-01,9.98645e-01,9.82529e-01,9.99992e-01
6.619607338e-01,9.82129e-01,9.99999e-01,9.99245e-01,9.82872e-01,9.99998e-01
6.652705375e-01,9.82761e-01,9.99999e-01,9.99546e-01,9.83207e-01,9.99998e-01
6.685968902e-01,9.83329e-01,9.99999e-01,9.99789e-01,9.83536e-01,9.99999e-01
6.719398746e-01,9.83763e-01,9.99999e-01,9.99902e-01,9.83859e-01,9.99999e-01
6.752995740e-01,9.84123e-01,9.99999e-01,9.99946e-01,9.84175e-01,9.99999e-01
6.786760719e-01,9.84410e-01,9.99999e-01,9.99923e-01,9.84485e-01,9.99999e-01
6.820694522e-01,9.84660e-01,9.99999e-01,9.99868e-01,9.84789e-01,9.99998e-01
6.854797995e-01,9.84920e-01,9.99999e-01,9.99831e-01,9.85087e-01,9.99998e-01
6.889071985e-01,9.84973e-01,9.99999e-01,9.99590e-01,9.85380e-01,9.99995e-01
6.923517345e-01,9.79067e-01,9.99999e-01,9.93336e-01,9.85666e-01,9.99967e-01
6.958134932e-01,9.82469e-01,9.99999e-01,9.96541e-01,9.85947e-01,9.99928e-01
6.992925606e-01,9.82911e-01,9.99999e-01,9.96704e-01,9.86223e-01,9.99935e-01
7.027890234e-01,9.82438e-01,9.99999e-01,9.95937e-01,9.86493e-01,9.99950e-01
7.063029686e-01,9.83364e-01,9.99999e-01,9.96584e-01,9.86758e-01,9.99975e-01
7.098344834e-01,9.83770e-01,9.99999e-01,9.96722e-01,9.87018e-01,9.99985e-01
7.133836558e-01,9.82924e-01,9.99999e-01,9.95622e-01,9.87273e-01,9.99971e-01
7.169505741e-01,9.52973e-01,9.99999e-01,9.65229e-01,9.87523e-01,9.99775e-01
7.205353270e-01,9.70496e-01,9.99999e-01,9.82902e-01,9.87768e-01,9.99604e-01
7.241380036e-01,9.66224e-01,9.99999e-01,9.78284e-01,9.88008e-01,9.99658e-01
7.277586936e-01,9.68591e-01,9.99999e-01,9.80386e-01,9.88243e-01,9.99720e-01
7.313974871e-01,9.67781e-01,9.99999e-01,9.79193e-01,9.88474e-01,9.99868e-01
7.350544745e-01,9.77374e-01,9.99999e-01,9.88588e-01,9.88700e-01,9.99954e-01
7.387297469e-01,9.80592e-01,9.99999e-01,9.91596e-01,9.88922e-01,9.99978e-01
7.424233956e-01,9.85065e-01,9.99999e-01,9.95883e-01,9.89140e-01,9.99995e-01
7.461355126e-01,9.86883e-01,9.99999e-01,9.97503e-01,9.89353e-01,9.99998e-01
7.498661902e-01,9.88412e-01,9.99999e-01,9.98837e-01,9.89562e-01,9.99999e-01
7.536155211e-01,9.89203e-01,9.99999e-01,9.99429e-01,9.89768e-01,9.99999e-01
7.573835987e-01,9.89678e-01,9.99999e-01,9.99706e-01,9.89969e-01,9.99999e-01
7.611705167e-01,9.89985e-01,9.99999e-01,9.99817e-01,9.90166e-01,9.99999e-01
7.649763693e-01,9.90246e-01,9.99999e-01,9.99885e-01,9.90359e-01,9.99999e-01
7.688012511e-01,9.90470e-01,9.99999e-01,9.99919e-01,9.90549e-01,9.99999e-01
7.726452574e-01,9.90670e-01,9.99999e-01,9.99934e-01,9.90734e-01,9.99999e-01
7.765084837e-01,9.90824e-01,9.99999e-01,9.99906e-01,9.90917e-01,9.99999e-01
7.803910261e-01,9.90695e-01,9.99999e-01,9.99596e-01,9.91095e-01,9.99999e-01
7.842929812e-01,9.89873e-01,9.99999e-01,9.98592e-01,9.91270e-01,9.99996e-01
7.882144461e-01,9.88553e-01,9.99999e-01,9.97105e-01,9.91442e-01,9.99979e-01
7.921555184e-01,9.90003e-01,9.99999e-01,9.98413e-01,9.91610e-01,9.99965e-01
7.961162960e-01,9.88958e-01,9.99999e-01,9.97191e-01,9.91775e-01,9.99966e-01
8.000968774e-01,9.88690e-01,9.99999e-01,9.96760e-01,9.91937e-01,9.99964e-01
8.040973618e-01,9.88853e-01,9.99999e-01,9.96758e-01,9.92096e-01,9.99971e-01
8.081178486e-01,9.84976e-01,9.99999e-01,9.92692e-01,9.92251e-01,9.99973e-01
8.121584379e-01,9.62371e-01,9.99999e-01,9.69836e-01,9.92404e-01,9.99897e-01
8.162192301e-01,9.56773e-01,9.99999e-01,9.64321e-01,9.92553e-01,9.99615e-01
8.203003262e-01,9.74351e-01,9.99999e-01,9.81957e-01,9.92700e-01,9.99549e-01
8.244018279e-01,9.67603e-01,9.99999e-01,9.74926e-01,9.92843e-01,9.99641e-01
8.285238370e-01,9.71425e-01,9.99999e-01,9.78563e-01,9.92984e-01,9.99718e-01
8.326664562e-01,9.71497e-01,9.99999e-01,9.78338e-01,9.93122e-01,9.99883e-01
8.368297885e-01,9.77843e-01,9.99999e-01,9.84506e-01,9.93258e-01,9.99972e-01
8.410139374e-01,9.84209e-01,9.99999e-01,9.90772e-01,9.93390e-01,9.99983e-01
8.452190071e-01,9.89009e-01,9.99999e-01,9.95468e-01,9.93520e-01,9.99990e-01
8.494451021e-01,9.91026e-01,9.99999e-01,9.97368e-01,9.93648e-01,9.99992e-01
8.536923276e-01,9.92223e-01,9.99999e-01,9.98443e-01,9.93773e-01,9.99994e-01
8.579607893e-01,9.92942e-01,9.99999e-01,9.99040e-01,9.93896e-01,9.99998e-01
8.622505932e-01,9.93411e-01,9.99999e-01,9.99390e-01,9.94016e-01,9.99999e-01
8.665618462e-01,9.93759e-01,9.99999e-01,9.99622e-01,9.94134e-01,9.99999e-01
8.708946554e-01,9.93820e-01,9.99999e-01,9.99568e-01,9.94249e-01,9.99999e-01
8.752491287e-01,9.93788e-01,9.99999e-01,9.99422e-01,9.94362e-01,9.99998e-01
8.796253743e-01,9.93676e-01,9.99999e-01,9.99199e-01,9.94473e-01,9.99997e-01
8.840235012e-01,9.93668e-01,9.99999e-01,9.99086e-01,9.94582e-01,9.99993e-01
8.884436187e-01,9.91348e-01,9.99999e-01,9.96656e-01,9.94689e-01,9.99983e-01
8.928858368e-01,9.60172e-01,9.99999e-01,9.65284e-01,9.94794e-01,9.99908e-01
8.973502660e-01,9.34189e-01,9.99999e-01,9.39419e-01,9.94896e-01,9.99532e-01
9.018370173e-01,9.63084e-01,9.99999e-01,9.68638e-01,9.94997e-01,9.99265e-01
9.063462024e-01,9.66912e-01,9.99999e-01,9.72304e-01,9.95095e-01,9.99354e-01
9.108779334e-01,9.51926e-01,9.99999e-01,9.57166e-01,9.95192e-01,9.99329e-01
9.154323231e-01,9.46520e-01,9.99999e-01,9.51529e-01,9.95287e-01,9.99445e-01
9.200094847e-01,9.57089e-01,9.99999e-01,9.61830e-01,9.95380e-01,9.99689e-01
9.246095321e-01,9.35808e-01,9.99999e-01,9.40401e-01,9.95471e-01,9.99642e-01
9.292325798e-01,6.58414e-01,9.99999e-01,6.62272e-01,9.95560e-01,9.98606e-01
9.338787427e-01,5.81700e-01,9.99999e-01,5.87619e-01,9.95647e-01,9.94252e-01
9.385481364e-01,7.98383e-01,9.99999e-01,8.07319e-01,9.95733e-01,9.93167e-01
9.432408771e-01,7.33410e-01,9.99999e-01,7.40859e-01,9.95817e-01,9.94103e-01
9.479570815e-01,6.54220e-01,9.99999e-01,6.60082e-01,9.95900e-01,9.95197e-01
9.526968669e-01,7.28919e-01,9.99999e-01,7.34012e-01,9.95980e-01,9.97068e-01
9.574603512e-01,7.49988e-01,9.99999e-01,7.54078e-01,9.96060e-01,9.98509e-01
9.622476530e-01,7.91350e-01,9.99999e-01,7.95238e-01,9.96137e-01,9.98968e-01
9.670588912e-01,8.72466e-01,9.99999e-01,8.76399e-01,9.96213e-01,9.99294e-01
9.718941857e-01,9.17132e-01,9.99999e-01,9.21027e-01,9.96288e-01,9.99480e-01
9.767536566e-01,9.30236e-01,9.99999e-01,9.34003e-01,9.96361e-01,9.99602e-01
9.816374249e-01,9.47196e-01,9.99999e-01,9.50716e-01,9.96433e-01,9.99862e-01
9.865456120e-01,9.65522e-01,9.99999e-01,9.68937e-01,9.96503e-01,9.99970e-01
9.914783401e-01,9.77324e-01,9.99999e-01,9.80692e-01,9.96572e-01,9.99991e-01
9.964357318e-01,9.86113e-01,9.99999e-01,9.89442e-01,9.96640e-01,9.99994e-01
1.001417910e+00,9.90381e-01,9.99999e-01,9.93661e-01,9.96706e-01,9.99992e-01
1.006425000e+00,9.93155e-01,9.99999e-01,9.96381e-01,9.96771e-01,9.99989e-01
1.011457125e+00,9.94587e-01,9.99999e-01,9.97753e-01,9.96835e-01,9.99990e-01
1.016514411e+00,9.95370e-01,9.99999e-01,9.98474e-01,9.96897e-01,9.99992e-01
1.021596983e+00,9.95740e-01,9.99999e-01,9.98783e-01,9.96958e-01,9.99992e-01
1.026704968e+00,9.96068e-01,9.99999e-01,9.99051e-01,9.97018e-01,9.99995e-01
1.031838492e+00,9.96389e-01,9.99999e-01,9.99310e-01,9.97077e-01,9.99998e-01
1.036997685e+00,9.96726e-01,9.99999e-01,9.99590e-01,9.97135e-01,9.99999e-01
1.042182673e+00,9.96704e-01,9.99999e-01,9.99511e-01,9.97191e-01,9.99999e-01
1.047393587e+00,9.96601e-01,9.99999e-01,9.99352e-01,9.97246e-01,9.99999e-01
1.052630555e+00,9.96414e-01,9.99999e-01,9.99111e-01,9.97301e-01,9.99999e-01
1.057893707e+00,9.95874e-01,9.99999e-01,9.98515e-01,9.97354e-01,9.99998e-01
1.063183176e+00,9.94971e-01,9.99999e-01,9.97558e-01,9.97406e-01,9.99998e-01
1.068499092e+00,9.93380e-01,9.99999e-01,9.95914e-01,9.97457e-01,9.99996e-01
1.073841587e+00,9.92732e-01,9.99999e-01,9.95217e-01,9.97507e-01,9.99993e-01
1.079210795e+00,9.91435e-01,9.99999e-01,9.93878e-01,9.97557e-01,9.99983e-01
1.084606849e+00,9.88331e-01,9.99999e-01,9.90742e-01,9.97605e-01,9.99960e-01
1.090029883e+00,9.84313e-01,9.99999e-01,9.86709e-01,9.97652e-01,9.99918e-01
1.095480033e+00,9.61841e-01,9.99999e-01,9.64201e-01,9.97698e-01,9.99852e-01
1.100957433e+00,9.09104e-01,9.99999e-01,9.11406e-01,9.97744e-01,9.99728e-01
1.106462220e+00,7.87233e-01,9.99999e-01,7.89340e-01,9.97788e-01,9.99539e-01
1.111994531e+00,6.05785e-01,9.99999e-01,6.07842e-01,9.97832e-01,9.98779e-01
1.117554504e+00,4.43447e-01,9.99999e-01,4.46354e-01,9.97875e-01,9.95602e-01
1.123142276e+00,5.44300e-01,9.99999e-01,5.51166e-01,9.97917e-01,9.89603e-01
1.128757988e+00,6.74087e-01,9.99999e-01,6.83681e-01,9.97958e-01,9.87982e-01
1.134401778e+00,4.21046e-01,9.99999e-01,4.26250e-01,9.97998e-01,9.89772e-01
1.140073787e+00,7.89613e-01,9.99999e-01,7.97690e-01,9.98037e-01,9.91819e-01
1.145774156e+00,6.17447e-01,9.99999e-01,6.23305e-01,9.98076e-01,9.92509e-01
1.151503026e+00,5.86370e-01,9.99999e-01,5.89943e-01,9.98114e-01,9.95820e-01
1.157260541e+00,6.43447e-01,9.99999e-01,6.45446e-01,9.98151e-01,9.98748e-01
1.163046844e+00,7.22280e-01,9.99999e-01,7.23848e-01,9.98188e-01,9.99644e-01
1.168862078e+00,7.97743e-01,9.99999e-01,7.99308e-01,9.98223e-01,9.99816e-01
1.174706389e+00,8.69178e-01,9.99999e-01,8.70905e-01,9.98259e-01,9.99757e-01
1.180579921e+00,9.17413e-01,9.99999e-01,9.19318e-01,9.98293e-01,9.99633e-01
1.186482820e+00,9.51653e-01,9.99999e-01,9.53606e-01,9.98327e-01,9.99623e-01
1.192415234e+00,9.70800e-01,9.99999e-01,9.72669e-01,9.98360e-01,9.99717e-01
1.198377311e+00,9.75077e-01,9.99999e-01,9.76907e-01,9.98392e-01,9.99733e-01
1.204369197e+00,9.76353e-01,9.99999e-01,9.78129e-01,9.98424e-01,9.99758e-01
1.210391043e+00,9.77426e-01,9.99999e-01,9.79081e-01,9.98455e-01,9.99853e-01
1.216442998e+00,9.80609e-01,9.99999e-01,9.82184e-01,9.98485e-01,9.99909e-01
1.222525213e+00,9.84587e-01,9.99999e-01,9.86105e-01,9.98515e-01,9.99943e-01
1.228637839e+00,9.88866e-01,9.99999e-01,9.90332e-01,9.98544e-01,9.99973e-01
1.234781029e+00,9.91391e-01,9.99999e-01,9.92814e-01,9.98573e-01,9.99992e-01
1.240954934e+00,9.94057e-01,9.99999e-01,9.95451e-01,9.98601e-01,9.99997e-01
1.247159708e+00,9.95090e-01,9.99999e-01,9.96457e-01,9.98629e-01,9.99998e-01
1.253395507e+00,9.95512e-01,9.99999e-01,9.96853e-01,9.98656e-01,9.99997e-01
1.259662485e+00,9.95694e-01,9.99999e-01,9.97009e-01,9.98682e-01,9.99996e-01
1.265960797e+00,9.93937e-01,9.99999e-01,9.95226e-01,9.98708e-01,9.99994e-01
1.272290601e+00,9.91241e-01,9.99999e-01,9.92505e-01,9.98734e-01,9.99991e-01
1.278652054e+00,9.83907e-01,9.99999e-01,9.85143e-01,9.98759e-01,9.99985e-01
1.285045314e+00,9.71978e-01,9.99999e-01,9.73187e-01,9.98783e-01,9.99972e-01
1.291470541e+00,9.52549e-01,9.99999e-01,9.53731e-01,9.98807e-01,9.99952e-01
1.297927893e+00,9.38858e-01,9.99999e-01,9.40039e-01,9.98831e-01,9.99911e-01
1.304417533e+00,9.22302e-01,9.99999e-01,9.23532e-01,9.98854e-01,9.99812e-01
1.310939621e+00,9.11432e-01,9.99999e-01,9.12807e-01,9.98876e-01,9.99614e-01
1.317494319e+00,9.04296e-01,9.99999e-01,9.05937e-01,9.98899e-01,9.99288e-01
1.324081790e+00,8.60362e-01,9.99999e-01,8.62292e-01,9.98920e-01,9.98838e-01
1.330702199e+00,5.42661e-01,9.99999e-01,5.44324e-01,9.98942e-01,9.97998e-01
1.337355710e+00,2.15552e-01,9.99999e-01,2.16609e-01,9.98963e-01,9.96149e-01
1.344042489e+00,1.99833e-02,9.99999e-01,2.02374e-02,9.98983e-01,9.88447e-01
1.350762701e+00,3.73845e-04,9.99999e-01,3.89405e-04,9.99003e-01,9.60998e-01
1.357516515e+00,1.90900e-05,9.99999e-01,2.14751e-05,9.99023e-01,8.89804e-01
1.364304097e+00,6.93443e-04,9.99999e-01,8.51709e-04,9.99042e-01,8.14958e-01
1.371125618e+00,7.00844e-03,9.99999e-01,8.50767e-03,9.99061e-01,8.24552e-01
1.377981246e+00,1.47318e-02,9.99999e-01,1.73969e-02,9.99079e-01,8.47584e-01
1.384871152e+00,7.18311e-04,9.99999e-01,8.38734e-04,9.99098e-01,8.57194e-01
1.391795508e+00,1.01090e-03,9.99999e-01,1.17188e-03,9.99115e-01,8.63396e-01
1.398754485e+00,2.95246e-03,9.99999e-01,3.33621e-03,9.99133e-01,8.85741e-01
1.405748258e+00,2.81547e-03,9.99999e-01,3.02499e-03,9.99150e-01,9.31527e-01
1.412776999e+00,3.17032e-03,9.99999e-01,3.27740e-03,9.99167e-01,9.68134e-01
1.419840884e+00,4.74677e-03,9.99999e-01,4.81858e-03,9.99183e-01,9.85900e-01
1.426940089e+00,1.50113e-02,9.99999e-01,1.51863e-02,9.99199e-01,9.89269e-01
1.434074789e+00,4.03256e-02,9.99999e-01,4.08743e-02,9.99215e-01,9.87350e-01
1.441245163e+00,8.67384e-02,9.99999e-01,8.80103e-02,9.99230e-01,9.86305e-01
1.448451389e+00,1.74416e-01,9.99999e-01,1.76667e-01,9.99246e-01,9.87999e-01
1.455693646e+00,3.17605e-01,9.99999e-01,3.20840e-01,9.99261e-01,9.90649e-01
1.462972114e+00,3.73160e-01,9.99999e-01,3.76791e-01,9.99275e-01,9.91080e-01
1.470286975e+00,3.16754e-01,9.99999e-01,3.19783e-01,9.99289e-01,9.91231e-01
