#,Wave/freq,Total,N2,H2O,Rayleigh,CIA
4.000000000e-01,8.56148e-01,9.99999e-01,9.99981e-01,8.56163e-01,9.99999e-01
4.020000000e-01,8.58787e-01,9.99999e-01,9.99988e-01,8.58796e-01,9.99999e-01
4.040100000e-01,8.61378e-01,9.99999e-01,9.99994e-01,8.61382e-01,9.99999e-01
4.060300500e-01,8.63924e-01,9.99999e-01,9.99998e-01,8.63925e-01,9.99999e-01
4.080602003e-01,8.66424e-01,9.99999e-01,9.99999e-01,8.66424e-01,9.99999e-01
4.101005013e-01,8.68882e-01,9.99999e-01,9.99999e-01,8.68882e-01,9.99999e-01
4.121510038e-01,8.71297e-01,9.99999e-01,9.99998e-01,8.71297e-01,9.99999e-01
4.142117588e-01,8.73667e-01,9.99999e-01,9.99994e-01,8.73671e-01,9.99999e-01
4.162828176e-01,8.75986e-01,9.99999e-01,9.99977e-01,8.76005e-01,9.99999e-01
4.183642317e-01,8.78287e-01,9.99999e-01,9.99986e-01,8.78299e-01,9.99999e-01
4.204560528e-01,8.80546e-01,9.99999e-01,9.99991e-01,8.80553e-01,9.99999e-01
4.225583331e-01,8.82766e-01,9.99999e-01,9.99996e-01,8.82768e-01,9.99999e-01
4.246711247e-01,8.84943e-01,9.99999e-01,9.99997e-01,8.84945e-01,9.99999e-01
4.267944804e-01,8.87081e-01,9.99999e-01,9.99996e-01,8.87084e-01,9.99999e-01
4.289284528e-01,8.89184e-01,9.99999e-01,9.99996e-01,8.89186e-01,9.99999e-01
4.310730950e-01,8.91250e-01,9.99999e-01,9.99998e-01,8.91251e-01,9.99999e-01
4.332284605e-01,8.93280e-01,9.99999e-01,9.99999e-01,8.93280e-01,9.99999e-01
4.353946028e-01,8.95274e-01,9.99999e-01,9.99999e-01,8.95274e-01,9.99999e-01
4.375715758e-01,8.97230e-01,9.99999e-01,9.99997e-01,8.97232e-01,9.99999e-01
4.397594337e-01,8.99139e-01,9.99999e-01,9.99980e-01,8.99156e-01,9.99999e-01
4.419582309e-01,9.00960e-01,9.99999e-01,9.99904e-01,9.01046e-01,9.99999e-01
4.441680220e-01,9.02834e-01,9.99999e-01,9.99923e-01,9.02902e-01,9.99999e-01
4.463888621e-01,9.04655e-01,9.99999e-01,9.99920e-01,9.04726e-01,9.99999e-01
4.486208064e-01,9.06472e-01,9.99999e-01,9.99950e-01,9.06517e-01,9.99999e-01
4.508639105e-01,9.08255e-01,9.99999e-01,9.99976e-01,9.08276e-01,9.99999e-01
4.531182300e-01,9.09995e-01,9.99999e-01,9.99990e-01,9.10004e-01,9.99999e-01
4.553838212e-01,9.11695e-01,9.99999e-01,9.99993e-01,9.11700e-01,9.99999e-01
4.576607403e-01,9.13364e-01,9.99999e-01,9.99996e-01,9.13367e-01,9.99999e-01
4.599490440e-01,9.15001e-01,9.99999e-01,9.99997e-01,9.15003e-01,9.99999e-01
4.622487892e-01,9.16609e-01,9.99999e-01,9.99999e-01,9.16610e-01,9.99999e-01
4.645600332e-01,9.18186e-01,9.99999e-01,9.99998e-01,9.18188e-01,9.99999e-01
4.668828333e-01,9.19716e-01,9.99999e-01,9.99976e-01,9.19737e-01,9.99999e-01
4.692172475e-01,9.21213e-01,9.99999e-01,9.99950e-01,9.21258e-01,9.99999e-01
4.715633337e-01,9.22722e-01,9.99999e-01,9.99967e-01,9.22752e-01,9.99999e-01
4.739211504e-01,9.24190e-01,9.99999e-01,9.99968e-01,9.24218e-01,9.99999e-01
4.762907561e-01,9.25643e-01,9.99999e-01,9.99983e-01,9.25658e-01,9.99999e-01
4.786722099e-01,9.27065e-01,9.99999e-01,9.99992e-01,9.27071e-01,9.99999e-01
4.810655710e-01,9.28457e-01,9.99999e-01,9.99997e-01,9.28459e-01,9.99999e-01
4.834708988e-01,9.29804e-01,9.99999e-01,9.99981e-01,9.29821e-01,9.99999e-01
4.858882533e-01,9.31126e-01,9.99999e-01,9.99964e-01,9.31159e-01,9.99999e-01
4.883176946e-01,9.32444e-01,9.99999e-01,9.99970e-01,9.32472e-01,9.99999e-01
4.907592831e-01,9.33735e-01,9.99999e-01,9.99973e-01,9.33760e-01,9.99999e-01
4.932130795e-01,9.35008e-01,9.99999e-01,9.99980e-01,9.35025e-01,9.99999e-01
4.956791449e-01,9.36257e-01,9.99999e-01,9.99989e-01,9.36267e-01,9.99999e-01
4.981575406e-01,9.37439e-01,9.99999e-01,9.99950e-01,9.37485e-01,9.99999e-01
5.006483283e-01,9.38561e-01,9.99999e-01,9.99872e-01,9.38682e-01,9.99998e-01
5.031515699e-01,9.39238e-01,9.99999e-01,9.99349e-01,9.39856e-01,9.99992e-01
5.056673278e-01,9.40677e-01,9.99999e-01,9.99655e-01,9.41008e-01,9.99991e-01
5.081956644e-01,9.41725e-01,9.99999e-01,9.99565e-01,9.42139e-01,9.99994e-01
5.107366428e-01,9.42971e-01,9.99999e-01,9.99705e-01,9.43248e-01,9.99998e-01
5.132903260e-01,9.44179e-01,9.99999e-01,9.99831e-01,9.44338e-01,9.99999e-01
5.158567776e-01,9.45339e-01,9.99999e-01,9.99928e-01,9.45406e-01,9.99999e-01
5.184360615e-01,9.46428e-01,9.99999e-01,9.99971e-01,9.46455e-01,9.99999e-01
5.210282418e-01,9.47475e-01,9.99999e-01,9.99988e-01,9.47485e-01,9.99999e-01
5.236333830e-01,9.48454e-01,9.99999e-01,9.99957e-01,9.48495e-01,9.99999e-01
5.262515499e-01,9.49460e-01,9.99999e-01,9.99972e-01,9.49486e-01,9.99999e-01
5.288828077e-01,9.50435e-01,9.99999e-01,9.99975e-01,9.50459e-01,9.99999e-01
5.315272217e-01,9.51392e-01,9.99999e-01,9.99978e-01,9.51413e-01,9.99999e-01
5.341848578e-01,9.52336e-01,9.99999e-01,9.99985e-01,9.52349e-01,9.99999e-01
5.368557821e-01,9.53221e-01,9.99999e-01,9.99950e-01,9.53268e-01,9.99999e-01
5.395400610e-01,9.54000e-01,9.99999e-01,9.99823e-01,9.54170e-01,9.99998e-01
5.422377613e-01,9.54830e-01,9.99999e-01,9.99768e-01,9.55054e-01,9.99995e-01
5.449489501e-01,9.55714e-01,9.99999e-01,9.99786e-01,9.55922e-01,9.99995e-01
5.476736949e-01,9.56589e-01,9.99999e-01,9.99808e-01,9.56774e-01,9.99997e-01
5.504120634e-01,9.57476e-01,9.99999e-01,9.99861e-01,9.57609e-01,9.99998e-01
5.531641237e-01,9.58362e-01,9.99999e-01,9.99929e-01,9.58429e-01,9.99999e-01
5.559299443e-01,9.59201e-01,9.99999e-01,9.99965e-01,9.59233e-01,9.99999e-01
5.587095940e-01,9.60002e-01,9.99999e-01,9.99978e-01,9.60022e-01,9.99999e-01
5.615031420e-01,9.60774e-01,9.99999e-01,9.99976e-01,9.60796e-01,9.99999e-01
5.643106577e-01,9.61530e-01,9.99999e-01,9.99973e-01,9.61555e-01,9.99999e-01
5.671322110e-01,9.61994e-01,9.99999e-01,9.99683e-01,9.62300e-01,9.99996e-01
5.699678720e-01,9.62690e-01,9.99999e-01,9.99653e-01,9.63031e-01,9.99990e-01
5.728177114e-01,9.63398e-01,9.99999e-01,9.99643e-01,9.63748e-01,9.99992e-01
5.756818000e-01,9.64131e-01,9.99999e-01,9.99672e-01,9.64451e-01,9.99995e-01
5.785602090e-01,9.64863e-01,9.99999e-01,9.99713e-01,9.65141e-01,9.99998e-01
5.814530100e-01,9.65540e-01,9.99999e-01,9.99713e-01,9.65817e-01,9.99998e-01
5.843602750e-01,9.66152e-01,9.99999e-01,9.99660e-01,9.66481e-01,9.99997e-01
5.872820764e-01,9.64284e-01,9.99999e-01,9.97075e-01,9.67132e-01,9.99978e-01
5.902184868e-01,9.64257e-01,9.99999e-01,9.96425e-01,9.67771e-01,9.99943e-01
5.931695792e-01,9.65906e-01,9.99999e-01,9.97481e-01,9.68397e-01,9.99944e-01
5.961354271e-01,9.66299e-01,9.99999e-01,9.97233e-01,9.69012e-01,9.99966e-01
5.991161043e-01,9.67647e-01,9.99999e-01,9.97979e-01,9.69614e-01,9.99989e-01
6.021116848e-01,9.69091e-01,9.99999e-01,9.98851e-01,9.70205e-01,9.99998e-01
6.051222432e-01,9.70221e-01,9.99999e-01,9.99418e-01,9.70785e-01,9.99999e-01
6.081478544e-01,9.71111e-01,9.99999e-01,9.99749e-01,9.71354e-01,9.99999e-01
6.111885937e-01,9.71808e-01,9.99999e-01,9.99893e-01,9.71912e-01,9.99999e-01
6.142445367e-01,9.72413e-01,9.99999e-01,9.99952e-01,9.72459e-01,9.99999e-01
6.173157594e-01,9.72970e-01,9.99999e-01,9.99973e-01,9.72995e-01,9.99999e-01
6.204023382e-01,9.73500e-01,9.99999e-01,9.99977e-01,9.73522e-01,9.99999e-01
6.235043498e-01,9.73945e-01,9.99999e-01,9.99904e-01,9.74038e-01,9.99999e-01
6.266218716e-01,9.74041e-01,9.99999e-01,9.99486e-01,9.74544e-01,9.99995e-01
6.297549810e-01,9.74850e-01,9.99999e-01,9.99811e-01,9.75040e-01,9.99992e-01
6.329037559e-01,9.75158e-01,9.99999e-01,9.99626e-01,9.75527e-01,9.99993e-01
6.360682746e-01,9.75693e-01,9.99999e-01,9.99683e-01,9.76005e-01,9.99996e-01
6.392486160e-01,9.76071e-01,9.99999e-01,9.99589e-01,9.76473e-01,9.99997e-01
6.424448591e-01,9.76449e-01,9.99999e-01,9.99507e-01,9.76932e-01,9.99997e-01
6.456570834e-01,9.74914e-01,9.99999e-01,9.97487e-01,9.77383e-01,9.99985e-01
6.488853688e-01,9.75637e-01,9.99999e-01,9.97801e-01,9.77825e-01,9.99959e-01
6.521297956e-01,9.76358e-01,9.99999e-01,9.98090e-01,9.78258e-01,9.99966e-01
6.553904446e-01,9.76815e-01,9.99999e-01,9.98115e-01,9.78683e-01,9.99974e-01
6.586673968e-01,9.77497e-01,9.99999e-01,9.98370e-01,9.79099e-01,9.99991e-01
6.619607338e-01,9.78584e-01,9.99999e-01,9.99058e-01,9.79508e-01,9.99997e-01
6.652705375e-01,9.79372e-01,9.99999e-01,9.99453e-01,9.79908e-01,9.99998e-01
6.685968902e-01,9.80053e-01,9.99999e-01,9.99745e-01,9.80301e-01,9.99999e-01
6.719398746e-01,9.80571e-01,9.99999e-01,9.99881e-01,9.80687e-01,9.99999e-01
6.752995740e-01,9.81002e-01,9.99999e-01,9.99936e-01,9.81065e-01,9.99999e-01
6.786760719e-01,9.81346e-01,9.99999e-01,9.99908e-01,9.81435e-01,9.99999e-01
6.820694522e-01,9.81644e-01,9.99999e-01,9.99843e-01,9.81798e-01,9.99998e-01
6.854797995e-01,9.81955e-01,9.99999e-01,9.99798e-01,9.82155e-01,9.99997e-01
6.889071985e-01,9.82028e-01,9.99999e-01,9.99519e-01,9.82504e-01,9.99995e-01
6.923517345e-01,9.75026e-01,9.99999e-01,9.92080e-01,9.82847e-01,9.99961e-01
6.958134932e-01,9.78962e-01,9.99999e-01,9.95792e-01,9.83183e-01,9.99913e-01
6.992925606e-01,9.79584e-01,9.99999e-01,9.96081e-01,9.83512e-01,9.99923e-01
7.027890234e-01,9.78982e-01,9.99999e-01,9.95124e-01,9.83835e-01,9.99941e-01
7.063029686e-01,9.80093e-01,9.99999e-01,9.95904e-01,9.84152e-01,9.99970e-01
7.098344834e-01,9.80577e-01,9.99999e-01,9.96070e-01,9.84462e-01,9.99982e-01
7.133836558e-01,9.79643e-01,9.99999e-01,9.94830e-01,9.84767e-01,9.99965e-01
7.169505741e-01,9.44210e-01,9.99999e-01,9.58781e-01,9.85065e-01,9.99731e-01
7.205353270e-01,9.64469e-01,9.99999e-01,9.79262e-01,9.85358e-01,9.99526e-01
7.241380036e-01,9.59754e-01,9.99999e-01,9.74131e-01,9.85645e-01,9.99588e-01
7.277586936e-01,9.62533e-01,9.99999e-01,9.76605e-01,9.85927e-01,9.99657e-01
7.313974871e-01,9.61397e-01,9.99999e-01,9.74999e-01,9.86203e-01,9.99843e-01
7.350544745e-01,9.72907e-01,9.99999e-01,9.86300e-01,9.86474e-01,9.99945e-01
7.387297469e-01,9.76748e-01,9.99999e-01,9.89898e-01,9.86739e-01,9.99974e-01
7.424233956e-01,9.82095e-01,9.99999e-01,9.95035e-01,9.86999e-01,9.99994e-01
7.461355126e-01,9.84287e-01,9.99999e-01,9.96994e-01,9.87254e-01,9.99998e-01
7.498661902e-01,9.86119e-01,9.99999e-01,9.98596e-01,9.87504e-01,9.99999e-01
7.536155211e-01,9.87072e-01,9.99999e-01,9.99313e-01,9.87750e-01,9.99999e-01
7.573835987e-01,9.87641e-01,9.99999e-01,9.99645e-01,9.87990e-01,9.99999e-01
7.611705167e-01,9.88009e-01,9.99999e-01,9.99779e-01,9.88226e-01,9.99999e-01
7.649763693e-01,9.88321e-01,9.99999e-01,9.99862e-01,9.88457e-01,9.99999e-01
7.688012511e-01,9.88589e-01,9.99999e-01,9.99903e-01,9.88684e-01,9.99999e-01
7.726452574e-01,9.88828e-01,9.99999e-01,9.99920e-01,9.88906e-01,9.99999e-01
7.765084837e-01,9.89014e-01,9.99999e-01,9.99888e-01,9.89124e-01,9.99999e-01
7.803910261e-01,9.88864e-01,9.99999e-01,9.99521e-01,9.89338e-01,9.99999e-01
7.842929812e-01,9.87893e-01,9.99999e-01,9.98330e-01,9.89547e-01,9.99996e-01
7.882144461e-01,9.86301e-01,9.99999e-01,9.96532e-01,9.89753e-01,9.99978e-01
7.921555184e-01,9.88021e-01,9.99999e-01,9.98088e-01,9.89954e-01,9.99958e-01
7.961162960e-01,9.86805e-01,9.99999e-01,9.96659e-01,9.90151e-01,9.99960e-01
8.000968774e-01,9.86462e-01,9.99999e-01,9.96120e-01,9.90345e-01,9.99957e-01
8.040973618e-01,9.86664e-01,9.99999e-01,9.96124e-01,9.90535e-01,9.99966e-01
8.081178486e-01,9.82106e-01,9.99999e-01,9.91334e-01,9.90721e-01,9.99968e-01
8.121584379e-01,9.55342e-01,9.99999e-01,9.64229e-01,9.90903e-01,9.99877e-01
8.162192301e-01,9.48270e-01,9.99999e-01,9.57242e-01,9.91082e-01,9.99539e-01
8.203003262e-01,9.69712e-01,9.99999e-01,9.78791e-01,9.91257e-01,9.99460e-01
8.244018279e-01,9.60989e-01,9.99999e-01,9.69711e-01,9.91429e-01,9.99570e-01
8.285238370e-01,9.65936e-01,9.99999e-01,9.74448e-01,9.91598e-01,9.99662e-01
8.326664562e-01,9.65905e-01,9.99999e-01,9.74062e-01,9.91763e-01,9.99860e-01
8.368297885e-01,9.73438e-01,9.99999e-01,9.81393e-01,9.91925e-01,9.99967e-01
8.410139374e-01,9.81058e-01,9.99999e-01,9.88904e-01,9.92084e-01,9.99980e-01
8.452190071e-01,9.86813e-01,9.99999e-01,9.94540e-01,9.92240e-01,9.99988e-01
8.494451021e-01,9.89250e-01,9.99999e-01,9.96841e-01,9.92392e-01,9.99990e-01
8.536923276e-01,9.90676e-01,9.99999e-01,9.98125e-01,9.92542e-01,9.99993e-01
8.579607893e-01,9.91545e-01,9.99999e-01,9.98848e-01,9.92689e-01,9.99997e-01
8.622505932e-01,9.92105e-01,9.99999e-01,9.99266e-01,9.92833e-01,9.99999e-01
8.665618462e-01,9.92525e-01,9.99999e-01,9.99547e-01,9.92974e-01,9.99999e-01
8.708946554e-01,9.92599e-01,9.99999e-01,9.99483e-01,9.93112e-01,9.99999e-01
8.752491287e-01,9.92561e-01,9.99999e-01,9.99308e-01,9.93248e-01,9.99998e-01
8.796253743e-01,9.92431e-01,9.99999e-01,9.99045e-01,9.93381e-01,9.99997e-01
8.840235012e-01,9.92421e-01,9.99999e-01,9.98908e-01,9.93511e-01,9.99992e-01
8.884436187e-01,9.89736e-01,9.99999e-01,9.96090e-01,9.93639e-01,9.99980e-01
8.928858368e-01,9.52884e-01,9.99999e-01,9.58967e-01,9.93764e-01,9.99890e-01
8.973502660e-01,9.21658e-01,9.99999e-01,9.27845e-01,9.93887e-01,9.99439e-01
9.018370173e-01,9.55620e-01,9.99999e-01,9.62228e-01,9.94007e-01,9.99119e-01
9.063462024e-01,9.60783e-01,9.99999e-01,9.67208e-01,9.94125e-01,9.99226e-01
9.108779334e-01,9.42840e-01,9.99999e-01,9.49063e-01,9.94241e-01,9.99196e-01
9.154323231e-01,9.36309e-01,9.99999e-01,9.42250e-01,9.94354e-01,9.99335e-01
9.200094847e-01,9.48722e-01,9.99999e-01,9.54355e-01,9.94465e-01,9.99627e-01
9.246095321e-01,9.25228e-01,9.99999e-01,9.30673e-01,9.94574e-01,9.99571e-01
9.292325798e-01,6.10213e-01,9.99999e-01,6.14501e-01,9.94681e-01,9.98330e-01
9.338787427e-01,5.23863e-01,9.99999e-01,5.30257e-01,9.94786e-01,9.93117e-01
9.385481364e-01,7.63906e-01,9.99999e-01,7.74162e-01,9.94889e-01,9.91819e-01
9.432408771e-01,6.93824e-01,9.99999e-01,7.02276e-01,9.94989e-01,9.92938e-01
9.479570815e-01,6.07713e-01,9.99999e-01,6.14244e-01,9.95088e-01,9.94249e-01
9.526968669e-01,6.86396e-01,9.99999e-01,6.92147e-01,9.95185e-01,9.96488e-01
9.574603512e-01,7.09262e-01,9.99999e-01,7.13900e-01,9.95280e-01,9.98214e-01
9.622476530e-01,7.55251e-01,9.99999e-01,7.59699e-01,9.95373e-01,9.98764e-01
9.670588912e-01,8.49180e-01,9.99999e-01,8.53769e-01,9.95464e-01,9.99154e-01
9.718941857e-01,9.01534e-01,9.99999e-01,9.06123e-01,9.95553e-01,9.99377e-01
9.767536566e-01,9.17013e-01,9.99999e-01,9.21465e-01,9.95641e-01,9.99524e-01
9.816374249e-01,9.36899e-01,9.99999e-01,9.41073e-01,9.95727e-01,9.99835e-01
9.865456120e-01,9.58703e-01,9.99999e-01,9.62768e-01,9.95811e-01,9.99965e-01
9.914783401e-01,9.72823e-01,9.99999e-01,9.76842e-01,9.95894e-01,9.99990e-01
9.964357318e-01,9.83341e-01,9.99999e-01,9.87320e-01,9.95975e-01,9.99993e-01
1.001417910e+00,9.88457e-01,9.99999e-01,9.92381e-01,9.96054e-01,9.99991e-01
1.006425000e+00,9.91797e-01,9.99999e-01,9.95659e-01,9.96132e-01,9.99987e-01
1.011457125e+00,9.93505e-01,9.99999e-01,9.97297e-01,9.96208e-01,9.99988e-01
1.016514411e+00,9.94449e-01,9.99999e-01,9.98167e-01,9.96283e-01,9.99991e-01
1.021596983e+00,9.94894e-01,9.99999e-01,9.98540e-01,9.96356e-01,9.99991e-01
1.026704968e+00,9.95289e-01,9.99999e-01,9.98862e-01,9.96428e-01,9.99994e-01
1.031838492e+00,9.95671e-01,9.99999e-01,9.99171e-01,9.96498e-01,9.99998e-01
1.036997685e+00,9.96078e-01,9.99999e-01,9.99508e-01,9.96567e-01,9.99999e-01
1.042182673e+00,9.96053e-01,9.99999e-01,9.99416e-01,9.96635e-01,9.99999e-01
1.047393587e+00,9.95929e-01,9.99999e-01,9.99224e-01,9.96701e-01,9.99999e-01
1.052630555e+00,9.95707e-01,9.99999e-01,9.98937e-01,9.96766e-01,9.99999e-01
1.057893707e+00,9.95065e-01,9.99999e-01,9.98229e-01,9.96830e-01,9.99998e-01
1.063183176e+00,9.93984e-01,9.99999e-01,9.97083e-01,9.96892e-01,9.99997e-01
1.068499092e+00,9.92079e-01,9.99999e-01,9.95113e-01,9.96954e-01,9.99996e-01
1.073841587e+00,9.91317e-01,9.99999e-01,9.94292e-01,9.97014e-01,9.99992e-01
1.079210795e+00,9.89743e-01,9.99999e-01,9.92667e-01,9.97073e-01,9.99979e-01
1.084606849e+00,9.86053e-01,9.99999e-01,9.88936e-01,9.97130e-01,9.99952e-01
1.090029883e+00,9.81364e-01,9.99999e-01,9.84227e-01,9.97187e-01,9.99901e-01
1.095480033e+00,9.54708e-01,9.99999e-01,9.57516e-01,9.97242e-01,9.99823e-01
1.100957433e+00,8.92805e-01,9.99999e-01,8.95515e-01,9.97297e-01,9.99674e-01
1.106462220e+00,7.53330e-01,9.99999e-01,7.55747e-01,9.97350e-01,9.99448e-01
1.111994531e+00,5.51216e-01,9.99999e-01,5.53460e-01,9.97402e-01,9.98538e-01
1.117554504e+00,3.80848e-01,9.99999e-01,3.83842e-01,9.97454e-01,9.94733e-01
1.123142276e+00,4.86442e-01,9.99999e-01,4.93803e-01,9.97504e-01,9.87556e-01
1.128757988e+00,6.26504e-01,9.99999e-01,6.37203e-01,9.97553e-01,9.85618e-01
1.134401778e+00,3.67570e-01,9.99999e-01,3.73128e-01,9.97601e-01,9.87470e-01
1.140073787e+00,7.54891e-01,9.99999e-01,7.64352e-01,9.97649e-01,9.89947e-01
1.145774156e+00,5.63789e-01,9.99999e-01,5.70204e-01,9.97695e-01,9.91032e-01
1.151503026e+00,5.31410e-01,9.99999e-01,5.35292e-01,9.97740e-01,9.94993e-01
1.157260541e+00,5.90913e-01,9.99999e-01,5.93114e-01,9.97785e-01,9.98500e-01
1.163046844e+00,6.77347e-01,9.99999e-01,6.79109e-01,9.97829e-01,9.99574e-01
1.168862078e+00,7.62439e-01,9.99999e-01,7.64232e-01,9.97872e-01,9.99780e-01
1.174706389e+00,8.45138e-01,9.99999e-01,8.47151e-01,9.97913e-01,9.99709e-01
1.180579921e+00,9.01637e-01,9.99999e-01,9.03881e-01,9.97955e-01,9.99560e-01
1.186482820e+00,9.42247e-01,9.99999e-01,9.44565e-01,9.97995e-01,9.99548e-01
1.192415234e+00,9.65078e-01,9.99999e-01,9.67304e-01,9.98035e-01,9.99662e-01
1.198377311e+00,9.70239e-01,9.99999e-01,9.72421e-01,9.98073e-01,9.99680e-01
1.204369197e+00,9.71736e-01,9.99999e-01,9.73855e-01,9.98111e-01,9.99711e-01
1.210391043e+00,9.73006e-01,9.99999e-01,9.74981e-01,9.98149e-01,9.99824e-01
1.216442998e+00,9.76753e-01,9.99999e-01,9.78633e-01,9.98185e-01,9.99892e-01
1.222525213e+00,9.81530e-01,9.99999e-01,9.83344e-01,9.98221e-01,9.99932e-01
1.228637839e+00,9.86661e-01,9.99999e-01,9.88415e-01,9.98256e-01,9.99968e-01
1.234781029e+00,9.89673e-01,9.99999e-01,9.91376e-01,9.98290e-01,9.99990e-01
1.240954934e+00,9.92876e-01,9.99999e-01,9.94544e-01,9.98324e-01,9.99997e-01
1.247159708e+00,9.94110e-01,9.99999e-01,9.95746e-01,9.98357e-01,9.99997e-01
1.253395507e+00,9.94623e-01,9.99999e-01,9.96228e-01,9.98390e-01,9.99997e-01
1.259662485e+00,9.94877e-01,9.99999e-01,9.96453e-01,9.98421e-01,9.99996e-01
1.265960797e+00,9.92759e-01,9.99999e-01,9.94302e-01,9.98452e-01,9.99993e-01
1.272290601e+00,9.90109e-01,9.99999e-01,9.91622e-01,9.98483e-01,9.99989e-01
1.278652054e+00,9.80878e-01,9.99999e-01,9.82355e-01,9.98513e-01,9.99982e-01
1.285045314e+00,9.70957e-01,9.99999e-01,9.72405e-01,9.98542e-01,9.99967e-01
1.291470541e+00,9.43763e-01,9.99999e-01,9.45167e-01,9.98571e-01,9.99942e-01
1.297927893e+00,9.27542e-01,9.99999e-01,9.28941e-01,9.98599e-01,9.99893e-01
1.304417533e+00,9.07773e-01,9.99999e-01,9.09224e-01,9.98627e-01,9.99775e-01
1.310939621e+00,8.95617e-01,9.99999e-01,8.97236e-01,9.98654e-01,9.99538e-01
1.317494319e+00,8.86364e-01,9.99999e-01,8.88291e-01,9.98680e-01,9.99147e-01
1.324081790e+00,8.35690e-01,9.99999e-01,8.37937e-01,9.98706e-01,9.98608e-01
1.330702199e+00,4.97440e-01,9.99999e-01,4.99268e-01,9.98732e-01,9.97602e-01
1.337355710e+00,1.65130e-01,9.99999e-01,1.66101e-01,9.98757e-01,9.95388e-01
1.344042489e+00,1.21257e-02,9.99999e-01,1.23107e-02,9.98782e-01,9.86173e-01
1.350762701e+00,1.07395e-04,9.99999e-01,1.12773e-04,9.98806e-01,9.53451e-01
1.357516515e+00,2.77478e-06,9.99999e-01,3.19514e-06,9.98829e-01,8.69453e-01
1.364304097e+00,2.06079e-04,9.99999e-01,2.63637e-04,9.98852e-01,7.82573e-01
1.371125618e+00,3.03527e-03,9.99999e-01,3.82886e-03,9.98875e-01,7.93625e-01
1.377981246e+00,7.40418e-03,9.99999e-01,9.03659e-03,9.98897e-01,8.20259e-01
1.384871152e+00,2.59161e-04,9.99999e-01,3.12670e-04,9.98919e-01,8.29759e-01
1.391795508e+00,3.05504e-04,9.99999e-01,3.64919e-04,9.98940e-01,8.38069e-01
1.398754485e+00,1.12720e-03,9.99999e-01,1.30493e-03,9.98961e-01,8.64698e-01
1.405748258e+00,1.13205e-03,9.99999e-01,1.23371e-03,9.98982e-01,9.18525e-01
1.412776999e+00,1.20175e-03,9.99999e-01,1.25055e-03,9.99002e-01,9.61941e-01
1.419840884e+00,1.98292e-03,9.99999e-01,2.01892e-03,9.99021e-01,9.83130e-01
1.426940089e+00,7.35985e-03,9.99999e-01,7.46275e-03,9.99041e-01,9.87157e-01
1.434074789e+00,2.35787e-02,9.99999e-01,2.39636e-02,9.99060e-01,9.84862e-01
1.441245163e+00,5.60632e-02,9.99999e-01,5.70496e-02,9.99078e-01,9.83614e-01
1.448451389e+00,1.28575e-01,9.99999e-01,1.30567e-01,9.99096e-01,9.85638e-01
1.455693646e+00,2.55322e-01,9.99999e-01,2.58440e-01,9.99114e-01,9.88807e-01
1.462972114e+00,3.09941e-01,9.99999e-01,3.13558e-01,9.99132e-01,9.89322e-01
1.470286975e+00,2.55287e-01,9.99999e-01,2.58214e-01,9.99149e-01,9.89503e-01
