#,Wave/freq,Total,N2,H2O,Rayleigh,CIA
4.000000000e-01,9.10038e-01,9.99999e-01,9.99988e-01,9.10047e-01,9.99999e-01
4.020000000e-01,9.11739e-01,9.99999e-01,9.99992e-01,9.11745e-01,9.99999e-01
4.040100000e-01,9.13408e-01,9.99999e-01,9.99996e-01,9.13410e-01,9.99999e-01
4.060300500e-01,9.15045e-01,9.99999e-01,9.99998e-01,9.15046e-01,9.99999e-01
4.080602003e-01,9.16652e-01,9.99999e-01,9.99999e-01,9.16652e-01,9.99999e-01
4.101005013e-01,9.18229e-01,9.99999e-01,9.99999e-01,9.18229e-01,9.99999e-01
4.121510038e-01,9.19777e-01,9.99999e-01,9.99999e-01,9.19777e-01,9.99999e-01
4.142117588e-01,9.21295e-01,9.99999e-01,9.99996e-01,9.21298e-01,9.99999e-01
4.162828176e-01,9.22779e-01,9.99999e-01,9.99986e-01,9.22791e-01,9.99999e-01
4.183642317e-01,9.24249e-01,9.99999e-01,9.99991e-01,9.24257e-01,9.99999e-01
4.204560528e-01,9.25691e-01,9.99999e-01,9.99994e-01,9.25696e-01,9.99999e-01
4.225583331e-01,9.27107e-01,9.99999e-01,9.99997e-01,9.27109e-01,9.99999e-01
4.246711247e-01,9.28494e-01,9.99999e-01,9.99998e-01,9.28496e-01,9.99999e-01
4.267944804e-01,9.29855e-01,9.99999e-01,9.99997e-01,9.29857e-01,9.99999e-01
4.289284528e-01,9.31192e-01,9.99999e-01,9.99997e-01,9.31194e-01,9.99999e-01
4.310730950e-01,9.32505e-01,9.99999e-01,9.99998e-01,9.32506e-01,9.99999e-01
4.332284605e-01,9.33794e-01,9.99999e-01,9.99999e-01,9.33794e-01,9.99999e-01
4.353946028e-01,9.35058e-01,9.99999e-01,9.99999e-01,9.35058e-01,9.99999e-01
4.375715758e-01,9.36298e-01,9.99999e-01,9.99998e-01,9.36299e-01,9.99999e-01
4.397594337e-01,9.37506e-01,9.99999e-01,9.99987e-01,9.37517e-01,9.99999e-01
4.419582309e-01,9.38657e-01,9.99999e-01,9.99939e-01,9.38713e-01,9.99999e-01
4.441680220e-01,9.39844e-01,9.99999e-01,9.99954e-01,9.39886e-01,9.99999e-01
4.463888621e-01,9.40993e-01,9.99999e-01,9.99951e-01,9.41038e-01,9.99999e-01
4.486208064e-01,9.42141e-01,9.99999e-01,9.99970e-01,9.42168e-01,9.99999e-01
4.508639105e-01,9.43264e-01,9.99999e-01,9.99985e-01,9.43277e-01,9.99999e-01
4.531182300e-01,9.44361e-01,9.99999e-01,9.99994e-01,9.44366e-01,9.99999e-01
4.553838212e-01,9.45431e-01,9.99999e-01,9.99995e-01,9.45434e-01,9.99999e-01
4.576607403e-01,9.46481e-01,9.99999e-01,9.99997e-01,9.46483e-01,9.99999e-01
4.599490440e-01,9.47511e-01,9.99999e-01,9.99998e-01,9.47512e-01,9.99999e-01
4.622487892e-01,9.48521e-01,9.99999e-01,9.99999e-01,9.48521e-01,9.99999e-01
4.645600332e-01,9.49511e-01,9.99999e-01,9.99998e-01,9.49512e-01,9.99999e-01
4.668828333e-01,9.50471e-01,9.99999e-01,9.99985e-01,9.50484e-01,9.99999e-01
4.692172475e-01,9.51410e-01,9.99999e-01,9.99969e-01,9.51438e-01,9.99999e-01
4.715633337e-01,9.52355e-01,9.99999e-01,9.99979e-01,9.52374e-01,9.99999e-01
4.739211504e-01,9.53275e-01,9.99999e-01,9.99980e-01,9.53292e-01,9.99999e-01
4.762907561e-01,9.54184e-01,9.99999e-01,9.99989e-01,9.54193e-01,9.99999e-01
4.786722099e-01,9.55074e-01,9.99999e-01,9.99995e-01,9.55078e-01,9.99999e-01
4.810655710e-01,9.55944e-01,9.99999e-01,9.99998e-01,9.55945e-01,9.99999e-01
4.834708988e-01,9.56785e-01,9.99999e-01,9.99987e-01,9.56796e-01,9.99999e-01
4.858882533e-01,9.57611e-01,9.99999e-01,9.99978e-01,9.57631e-01,9.99999e-01
4.883176946e-01,9.58433e-01,9.99999e-01,9.99981e-01,9.58450e-01,9.99999e-01
4.907592831e-01,9.59239e-01,9.99999e-01,9.99983e-01,9.59254e-01,9.99999e-01
4.932130795e-01,9.60032e-01,9.99999e-01,9.99988e-01,9.60043e-01,9.99999e-01
4.956791449e-01,9.60810e-01,9.99999e-01,9.99993e-01,9.60816e-01,9.99999e-01
4.981575406e-01,9.61546e-01,9.99999e-01,9.99969e-01,9.61575e-01,9.99999e-01
5.006483283e-01,9.62243e-01,9.99999e-01,9.99920e-01,9.62320e-01,9.99998e-01
5.031515699e-01,9.62664e-01,9.99999e-01,9.99602e-01,9.63050e-01,9.99995e-01
5.056673278e-01,9.63561e-01,9.99999e-01,9.99791e-01,9.63766e-01,9.99994e-01
5.081956644e-01,9.64213e-01,9.99999e-01,9.99736e-01,9.64469e-01,9.99996e-01
5.107366428e-01,9.64987e-01,9.99999e-01,9.99822e-01,9.65159e-01,9.99999e-01
5.132903260e-01,9.65737e-01,9.99999e-01,9.99898e-01,9.65835e-01,9.99999e-01
5.158567776e-01,9.66457e-01,9.99999e-01,9.99956e-01,9.66498e-01,9.99999e-01
5.184360615e-01,9.67133e-01,9.99999e-01,9.99982e-01,9.67149e-01,9.99999e-01
5.210282418e-01,9.67781e-01,9.99999e-01,9.99993e-01,9.67787e-01,9.99999e-01
5.236333830e-01,9.68388e-01,9.99999e-01,9.99973e-01,9.68413e-01,9.99999e-01
5.262515499e-01,9.69012e-01,9.99999e-01,9.99983e-01,9.69028e-01,9.99999e-01
5.288828077e-01,9.69615e-01,9.99999e-01,9.99984e-01,9.69630e-01,9.99999e-01
5.315272217e-01,9.70208e-01,9.99999e-01,9.99986e-01,9.70221e-01,9.99999e-01
5.341848578e-01,9.70792e-01,9.99999e-01,9.99990e-01,9.70800e-01,9.99999e-01
5.368557821e-01,9.71339e-01,9.99999e-01,9.99969e-01,9.71369e-01,9.99999e-01
5.395400610e-01,9.71818e-01,9.99999e-01,9.99889e-01,9.71926e-01,9.99998e-01
5.422377613e-01,9.72335e-01,9.99999e-01,9.99860e-01,9.72473e-01,9.99996e-01
5.449489501e-01,9.72879e-01,9.99999e-01,9.99868e-01,9.73009e-01,9.99996e-01
5.476736949e-01,9.73423e-01,9.99999e-01,9.99884e-01,9.73535e-01,9.99998e-01
5.504120634e-01,9.73970e-01,9.99999e-01,9.99916e-01,9.74051e-01,9.99999e-01
5.531641237e-01,9.74516e-01,9.99999e-01,9.99957e-01,9.74557e-01,9.99999e-01
5.559299443e-01,9.75034e-01,9.99999e-01,9.99979e-01,9.75053e-01,9.99999e-01
5.587095940e-01,9.75528e-01,9.99999e-01,9.99986e-01,9.75540e-01,9.99999e-01
5.615031420e-01,9.76003e-01,9.99999e-01,9.99985e-01,9.76017e-01,9.99999e-01
5.643106577e-01,9.76469e-01,9.99999e-01,9.99983e-01,9.76485e-01,9.99999e-01
5.671322110e-01,9.76747e-01,9.99999e-01,9.99798e-01,9.76944e-01,9.99997e-01
5.699678720e-01,9.77189e-01,9.99999e-01,9.99794e-01,9.77395e-01,9.99994e-01
5.728177114e-01,9.77619e-01,9.99999e-01,9.99782e-01,9.77836e-01,9.99995e-01
5.756818000e-01,9.78072e-01,9.99999e-01,9.99800e-01,9.78269e-01,9.99996e-01
5.785602090e-01,9.78524e-01,9.99999e-01,9.99826e-01,9.78694e-01,9.99998e-01
5.814530100e-01,9.78939e-01,9.99999e-01,9.99825e-01,9.79110e-01,9.99999e-01
5.843602750e-01,9.79312e-01,9.99999e-01,9.99789e-01,9.79519e-01,9.99998e-01
5.872820764e-01,9.78136e-01,9.99999e-01,9.98192e-01,9.79919e-01,9.99986e-01
5.902184868e-01,9.78160e-01,9.99999e-01,9.97838e-01,9.80312e-01,9.99965e-01
5.931695792e-01,9.79161e-01,9.99999e-01,9.98466e-01,9.80697e-01,9.99966e-01
5.961354271e-01,9.79412e-01,9.99999e-01,9.98324e-01,9.81074e-01,9.99980e-01
5.991161043e-01,9.80242e-01,9.99999e-01,9.98779e-01,9.81445e-01,9.99993e-01
6.021116848e-01,9.81129e-01,9.99999e-01,9.99308e-01,9.81808e-01,9.99998e-01
6.051222432e-01,9.81821e-01,9.99999e-01,9.99650e-01,9.82164e-01,9.99999e-01
6.081478544e-01,9.82365e-01,9.99999e-01,9.99848e-01,9.82513e-01,9.99999e-01
6.111885937e-01,9.82793e-01,9.99999e-01,9.99935e-01,9.82856e-01,9.99999e-01
6.142445367e-01,9.83163e-01,9.99999e-01,9.99971e-01,9.83191e-01,9.99999e-01
6.173157594e-01,9.83505e-01,9.99999e-01,9.99983e-01,9.83521e-01,9.99999e-01
6.204023382e-01,9.83830e-01,9.99999e-01,9.99986e-01,9.83843e-01,9.99999e-01
6.235043498e-01,9.84101e-01,9.99999e-01,9.99939e-01,9.84160e-01,9.99999e-01
6.266218716e-01,9.84161e-01,9.99999e-01,9.99687e-01,9.84470e-01,9.99997e-01
6.297549810e-01,9.84658e-01,9.99999e-01,9.99885e-01,9.84775e-01,9.99995e-01
6.329037559e-01,9.84848e-01,9.99999e-01,9.99774e-01,9.85073e-01,9.99996e-01
6.360682746e-01,9.85174e-01,9.99999e-01,9.99806e-01,9.85366e-01,9.99997e-01
6.392486160e-01,9.85406e-01,9.99999e-01,9.99750e-01,9.85653e-01,9.99998e-01
6.424448591e-01,9.85600e-01,9.99999e-01,9.99662e-01,9.85934e-01,9.99997e-01
6.456570834e-01,9.84655e-01,9.99999e-01,9.98432e-01,9.86210e-01,9.99990e-01
6.488853688e-01,9.85342e-01,9.99999e-01,9.98869e-01,9.86481e-01,9.99975e-01
6.521297956e-01,9.85590e-01,9.99999e-01,9.98847e-01,9.86746e-01,9.99979e-01
6.553904446e-01,9.85853e-01,9.99999e-01,9.98845e-01,9.87006e-01,9.99984e-01
6.586673968e-01,9.86286e-01,9.99999e-01,9.99017e-01,9.87261e-01,9.99994e-01
6.619607338e-01,9.86970e-01,9.99999e-01,9.99452e-01,9.87511e-01,9.99998e-01
6.652705375e-01,9.87431e-01,9.99999e-01,9.99671e-01,9.87756e-01,9.99998e-01
6.685968902e-01,9.87859e-01,9.99999e-01,9.99860e-01,9.87997e-01,9.99999e-01
6.719398746e-01,9.88162e-01,9.99999e-01,9.99928e-01,9.88232e-01,9.99999e-01
6.752995740e-01,9.88426e-01,9.99999e-01,9.99962e-01,9.88463e-01,9.99999e-01
6.786760719e-01,9.88634e-01,9.99999e-01,9.99943e-01,9.88690e-01,9.99999e-01
6.820694522e-01,9.88816e-01,9.99999e-01,9.99903e-01,9.88912e-01,9.99999e-01
6.854797995e-01,9.89007e-01,9.99999e-01,9.99876e-01,9.89130e-01,9.99998e-01
6.889071985e-01,9.88946e-01,9.99999e-01,9.99600e-01,9.89343e-01,9.99996e-01
6.923517345e-01,9.84670e-01,9.99999e-01,9.95088e-01,9.89553e-01,9.99976e-01
6.958134932e-01,9.87258e-01,9.99999e-01,9.97524e-01,9.89758e-01,9.99948e-01
6.992925606e-01,9.87521e-01,9.99999e-01,9.97582e-01,9.89959e-01,9.99953e-01
7.027890234e-01,9.87200e-01,9.99999e-01,9.97048e-01,9.90157e-01,9.99964e-01
7.063029686e-01,9.87873e-01,9.99999e-01,9.97515e-01,9.90350e-01,9.99981e-01
7.098344834e-01,9.88169e-01,9.99999e-01,9.97616e-01,9.90540e-01,9.99989e-01
7.133836558e-01,9.87503e-01,9.99999e-01,9.96766e-01,9.90726e-01,9.99978e-01
7.169505741e-01,9.65370e-01,9.99999e-01,9.74385e-01,9.90908e-01,9.99836e-01
7.205353270e-01,9.78637e-01,9.99999e-01,9.87721e-01,9.91087e-01,9.99712e-01
7.241380036e-01,9.75246e-01,9.99999e-01,9.84085e-01,9.91262e-01,9.99751e-01
7.277586936e-01,9.77015e-01,9.99999e-01,9.85648e-01,9.91434e-01,9.99804e-01
7.313974871e-01,9.76543e-01,9.99999e-01,9.84897e-01,9.91602e-01,9.99913e-01
7.350544745e-01,9.83515e-01,9.99999e-01,9.91711e-01,9.91768e-01,9.99966e-01
7.387297469e-01,9.85869e-01,9.99999e-01,9.93904e-01,9.91929e-01,9.99984e-01
7.424233956e-01,9.89134e-01,9.99999e-01,9.97024e-01,9.92088e-01,9.99996e-01
7.461355126e-01,9.90450e-01,9.99999e-01,9.98192e-01,9.92244e-01,9.99999e-01
7.498661902e-01,9.91565e-01,9.99999e-01,9.99161e-01,9.92396e-01,9.99999e-01
7.536155211e-01,9.92136e-01,9.99999e-01,9.99586e-01,9.92546e-01,9.99999e-01
7.573835987e-01,9.92482e-01,9.99999e-01,9.99787e-01,9.92693e-01,9.99999e-01
7.611705167e-01,9.92706e-01,9.99999e-01,9.99867e-01,9.92837e-01,9.99999e-01
7.649763693e-01,9.92895e-01,9.99999e-01,9.99916e-01,9.92978e-01,9.99999e-01
7.688012511e-01,9.93058e-01,9.99999e-01,9.99941e-01,9.93116e-01,9.99999e-01
7.726452574e-01,9.93204e-01,9.99999e-01,9.99951e-01,9.93251e-01,9.99999e-01
7.765084837e-01,9.93316e-01,9.99999e-01,9.99931e-01,9.93384e-01,9.99999e-01
7.803910261e-01,9.93220e-01,9.99999e-01,9.99703e-01,9.93514e-01,9.99999e-01
7.842929812e-01,9.92612e-01,9.99999e-01,9.98965e-01,9.93642e-01,9.99997e-01
7.882144461e-01,9.91660e-01,9.99999e-01,9.97893e-01,9.93767e-01,9.99985e-01
7.921555184e-01,9.92725e-01,9.99999e-01,9.98852e-01,9.93890e-01,9.99974e-01
7.961162960e-01,9.91940e-01,9.99999e-01,9.97940e-01,9.94010e-01,9.99975e-01
8.000968774e-01,9.91758e-01,9.99999e-01,9.97640e-01,9.94128e-01,9.99974e-01
8.040973618e-01,9.91874e-01,9.99999e-01,9.97635e-01,9.94244e-01,9.99980e-01
8.081178486e-01,9.88995e-01,9.99999e-01,9.94626e-01,9.94357e-01,9.99979e-01
8.121584379e-01,9.72302e-01,9.99999e-01,9.77783e-01,9.94468e-01,9.99925e-01
8.162192301e-01,9.68463e-01,9.99999e-01,9.74014e-01,9.94577e-01,9.99720e-01
8.203003262e-01,9.81007e-01,9.99999e-01,9.86572e-01,9.94684e-01,9.99672e-01
8.244018279e-01,9.76523e-01,9.99999e-01,9.81893e-01,9.94789e-01,9.99739e-01
8.285238370e-01,9.79075e-01,9.99999e-01,9.84303e-01,9.94891e-01,9.99794e-01
8.326664562e-01,9.79204e-01,9.99999e-01,9.84215e-01,9.94992e-01,9.99914e-01
8.368297885e-01,9.83877e-01,9.99999e-01,9.88749e-01,9.95091e-01,9.99980e-01
8.410139374e-01,9.88519e-01,9.99999e-01,9.93309e-01,9.95187e-01,9.99988e-01
8.452190071e-01,9.92014e-01,9.99999e-01,9.96722e-01,9.95282e-01,9.99992e-01
8.494451021e-01,9.93467e-01,9.99999e-01,9.98087e-01,9.95375e-01,9.99994e-01
8.536923276e-01,9.94343e-01,9.99999e-01,9.98873e-01,9.95466e-01,9.99996e-01
8.579607893e-01,9.94862e-01,9.99999e-01,9.99303e-01,9.95556e-01,9.99998e-01
8.622505932e-01,9.95204e-01,9.99999e-01,9.99558e-01,9.95643e-01,9.99999e-01
8.665618462e-01,9.95456e-01,9.99999e-01,9.99725e-01,9.95729e-01,9.99999e-01
8.708946554e-01,9.95500e-01,9.99999e-01,9.99684e-01,9.95813e-01,9.99999e-01
8.752491287e-01,9.95477e-01,9.99999e-01,9.99579e-01,9.95896e-01,9.99999e-01
8.796253743e-01,9.95393e-01,9.99999e-01,9.99414e-01,9.95977e-01,9.99998e-01
8.840235012e-01,9.95387e-01,9.99999e-01,9.99332e-01,9.96056e-01,9.99995e-01
8.884436187e-01,9.93631e-01,9.99999e-01,9.97498e-01,9.96134e-01,9.99988e-01
8.928858368e-01,9.70580e-01,9.99999e-01,9.74336e-01,9.96210e-01,9.99933e-01
8.973502660e-01,9.51665e-01,9.99999e-01,9.55538e-01,9.96285e-01,9.99659e-01
9.018370173e-01,9.73218e-01,9.99999e-01,9.77297e-01,9.96358e-01,9.99465e-01
9.063462024e-01,9.75611e-01,9.99999e-01,9.79566e-01,9.96430e-01,9.99529e-01
9.108779334e-01,9.64668e-01,9.99999e-01,9.68527e-01,9.96500e-01,9.99511e-01
9.154323231e-01,9.60759e-01,9.99999e-01,9.64454e-01,9.96569e-01,9.99596e-01
9.200094847e-01,9.68639e-01,9.99999e-01,9.72126e-01,9.96637e-01,9.99773e-01
9.246095321e-01,9.51583e-01,9.99999e-01,9.54978e-01,9.96703e-01,9.99739e-01
9.292325798e-01,7.33745e-01,9.99999e-01,7.37048e-01,9.96768e-01,9.98744e-01
9.338787427e-01,6.71831e-01,9.99999e-01,6.77032e-01,9.96832e-01,9.95470e-01
9.385481364e-01,8.48393e-01,9.99999e-01,8.55291e-01,9.96894e-01,9.95024e-01
9.432408771e-01,7.94189e-01,9.99999e-01,8.00049e-01,9.96955e-01,9.95705e-01
9.479570815e-01,7.27562e-01,9.99999e-01,7.32300e-01,9.97015e-01,9.96503e-01
9.526968669e-01,7.92431e-01,9.99999e-01,7.96455e-01,9.97074e-01,9.97865e-01
9.574603512e-01,8.10241e-01,9.99999e-01,8.13453e-01,9.97132e-01,9.98915e-01
9.622476530e-01,8.43498e-01,9.99999e-01,8.46510e-01,9.97188e-01,9.99249e-01
9.670588912e-01,9.05460e-01,9.99999e-01,9.08408e-01,9.97244e-01,9.99508e-01
9.718941857e-01,9.38992e-01,9.99999e-01,9.41890e-01,9.97298e-01,9.99623e-01
9.767536566e-01,9.48724e-01,9.99999e-01,9.51517e-01,9.97352e-01,9.99710e-01
9.816374249e-01,9.61412e-01,9.99999e-01,9.64010e-01,9.97404e-01,9.99899e-01
9.865456120e-01,9.74879e-01,9.99999e-01,9.77386e-01,9.97455e-01,9.99978e-01
9.914783401e-01,9.83496e-01,9.99999e-01,9.85961e-01,9.97505e-01,9.99993e-01
9.964357318e-01,9.89904e-01,9.99999e-01,9.92334e-01,9.97554e-01,9.99996e-01
1.001417910e+00,9.93013e-01,9.99999e-01,9.95403e-01,9.97603e-01,9.99994e-01
1.006425000e+00,9.95019e-01,9.99999e-01,9.97369e-01,9.97650e-01,9.99992e-01
1.011457125e+00,9.96066e-01,9.99999e-01,9.98372e-01,9.97696e-01,9.99992e-01
1.016514411e+00,9.96633e-01,9.99999e-01,9.98892e-01,9.97742e-01,9.99994e-01
1.021596983e+00,9.96901e-01,9.99999e-01,9.99116e-01,9.97786e-01,9.99994e-01
1.026704968e+00,9.97139e-01,9.99999e-01,9.99310e-01,9.97830e-01,9.99996e-01
1.031838492e+00,9.97374e-01,9.99999e-01,9.99500e-01,9.97873e-01,9.99998e-01
1.036997685e+00,9.97618e-01,9.99999e-01,9.99702e-01,9.97915e-01,9.99999e-01
1.042182673e+00,9.97600e-01,9.99999e-01,9.99643e-01,9.97956e-01,9.99999e-01
1.047393587e+00,9.97525e-01,9.99999e-01,9.99528e-01,9.97996e-01,9.99999e-01
1.052630555e+00,9.97389e-01,9.99999e-01,9.99351e-01,9.98036e-01,9.99999e-01
1.057893707e+00,9.96992e-01,9.99999e-01,9.98915e-01,9.98074e-01,9.99999e-01
1.063183176e+00,9.96333e-01,9.99999e-01,9.98217e-01,9.98112e-01,9.99998e-01
1.068499092e+00,9.95176e-01,9.99999e-01,9.97022e-01,9.98150e-01,9.99997e-01
1.073841587e+00,9.94693e-01,9.99999e-01,9.96504e-01,9.98186e-01,9.99995e-01
1.079210795e+00,9.93763e-01,9.99999e-01,9.95544e-01,9.98222e-01,9.99987e-01
1.084606849e+00,9.91483e-01,9.99999e-01,9.93242e-01,9.98257e-01,9.99970e-01
1.090029883e+00,9.88462e-01,9.99999e-01,9.90212e-01,9.98291e-01,9.99940e-01
1.095480033e+00,9.71900e-01,9.99999e-01,9.73634e-01,9.98325e-01,9.99892e-01
1.100957433e+00,9.32529e-01,9.99999e-01,9.34246e-01,9.98358e-01,9.99802e-01
1.106462220e+00,8.38147e-01,9.99999e-01,8.39778e-01,9.98390e-01,9.99665e-01
1.111994531e+00,6.91590e-01,9.99999e-01,6.93298e-01,9.98422e-01,9.99111e-01
1.117554504e+00,5.49183e-01,9.99999e-01,5.51800e-01,9.98453e-01,9.96798e-01
1.123142276e+00,6.37266e-01,9.99999e-01,6.43105e-01,9.98484e-01,9.92424e-01
1.128757988e+00,7.47092e-01,9.99999e-01,7.54813e-01,9.98514e-01,9.91242e-01
1.134401778e+00,5.13977e-01,9.99999e-01,5.18591e-01,9.98543e-01,9.92548e-01
1.140073787e+00,8.40636e-01,9.99999e-01,8.46883e-01,9.98572e-01,9.94041e-01
1.145774156e+00,7.01176e-01,9.99999e-01,7.06010e-01,9.98600e-01,9.94544e-01
1.151503026e+00,6.73711e-01,9.99999e-01,6.76695e-01,9.98628e-01,9.96956e-01
1.157260541e+00,7.24155e-01,9.99999e-01,7.25791e-01,9.98655e-01,9.99088e-01
1.163046844e+00,7.88889e-01,9.99999e-01,7.90134e-01,9.98681e-01,9.99741e-01
1.168862078e+00,8.48614e-01,9.99999e-01,8.49826e-01,9.98707e-01,9.99865e-01
1.174706389e+00,9.03139e-01,9.99999e-01,9.04452e-01,9.98733e-01,9.99814e-01
1.180579921e+00,9.39349e-01,9.99999e-01,9.40768e-01,9.98758e-01,9.99732e-01
1.186482820e+00,9.64659e-01,9.99999e-01,9.66099e-01,9.98782e-01,9.99725e-01
1.192415234e+00,9.78693e-01,9.99999e-01,9.80063e-01,9.98806e-01,9.99794e-01
1.198377311e+00,9.81787e-01,9.99999e-01,9.83128e-01,9.98830e-01,9.99805e-01
1.204369197e+00,9.82742e-01,9.99999e-01,9.84036e-01,9.98853e-01,9.99830e-01
1.210391043e+00,9.83529e-01,9.99999e-01,9.84740e-01,9.98875e-01,9.99892e-01
1.216442998e+00,9.85891e-01,9.99999e-01,9.87042e-01,9.98898e-01,9.99934e-01
1.222525213e+00,9.88782e-01,9.99999e-01,9.89890e-01,9.98919e-01,9.99958e-01
1.228637839e+00,9.91895e-01,9.99999e-01,9.92965e-01,9.98941e-01,9.99980e-01
1.234781029e+00,9.93743e-01,9.99999e-01,9.94780e-01,9.98962e-01,9.99994e-01
1.240954934e+00,9.95677e-01,9.99999e-01,9.96692e-01,9.98982e-01,9.99997e-01
1.247159708e+00,9.96432e-01,9.99999e-01,9.97427e-01,9.99002e-01,9.99998e-01
1.253395507e+00,9.96735e-01,9.99999e-01,9.97711e-01,9.99022e-01,9.99998e-01
1.259662485e+00,9.96861e-01,9.99999e-01,9.97819e-01,9.99041e-01,9.99997e-01
1.265960797e+00,9.95587e-01,9.99999e-01,9.96526e-01,9.99060e-01,9.99996e-01
1.272290601e+00,9.93601e-01,9.99999e-01,9.94522e-01,9.99079e-01,9.99993e-01
1.278652054e+00,9.88233e-01,9.99999e-01,9.89136e-01,9.99097e-01,9.99988e-01
1.285045314e+00,9.79448e-01,9.99999e-01,9.80335e-01,9.99115e-01,9.99979e-01
1.291470541e+00,9.65101e-01,9.99999e-01,9.65971e-01,9.99132e-01,9.99965e-01
1.297927893e+00,9.51043e-01,9.99999e-01,9.51913e-01,9.99149e-01,9.99935e-01
1.304417533e+00,9.42735e-01,9.99999e-01,9.43649e-01,9.99166e-01,9.99863e-01
1.310939621e+00,9.28234e-01,9.99999e-01,9.29253e-01,9.99182e-01,9.99719e-01
1.317494319e+00,9.29365e-01,9.99999e-01,9.30591e-01,9.99198e-01,9.99481e-01
1.324081790e+00,8.97436e-01,9.99999e-01,8.98968e-01,9.99214e-01,9.99079e-01
1.330702199e+00,6.21946e-01,9.99999e-01,6.23397e-01,9.99230e-01,9.98439e-01
1.337355710e+00,2.86159e-01,9.99999e-01,2.87180e-01,9.99245e-01,9.97196e-01
1.344042489e+00,3.92806e-02,9.99999e-01,3.96434e-02,9.99260e-01,9.91580e-01
1.350762701e+00,2.27096e-03,9.99999e-01,2.33935e-03,9.99274e-01,9.71469e-01
1.357516515e+00,2.87910e-04,9.99999e-01,3.13660e-04,9.99289e-01,9.18559e-01
1.364304097e+00,3.86047e-03,9.99999e-01,4.48332e-03,9.99303e-01,8.61673e-01
1.371125618e+00,2.33312e-02,9.99999e-01,2.68654e-02,9.99317e-01,8.69042e-01
1.377981246e+00,3.93406e-02,9.99999e-01,4.44002e-02,9.99330e-01,8.86638e-01
1.384871152e+00,3.35886e-03,9.99999e-01,3.75982e-03,9.99343e-01,8.93941e-01
1.391795508e+00,5.42155e-03,9.99999e-01,6.03692e-03,9.99356e-01,8.98642e-01
1.398754485e+00,1.13481e-02,9.99999e-01,1.24032e-02,9.99369e-01,9.15505e-01
1.405748258e+00,1.05725e-02,9.99999e-01,1.11393e-02,9.99381e-01,9.49701e-01
1.412776999e+00,1.26547e-02,9.99999e-01,1.29643e-02,9.99393e-01,9.76712e-01
1.419840884e+00,1.65274e-02,9.99999e-01,1.67089e-02,9.99405e-01,9.89721e-01
1.426940089e+00,4.14810e-02,9.99999e-01,4.18322e-02,9.99417e-01,9.92181e-01
1.434074789e+00,8.67900e-02,9.99999e-01,8.76476e-02,9.99429e-01,9.90780e-01
1.441245163e+00,1.60820e-01,9.99999e-01,1.62533e-01,9.99440e-01,9.90017e-01
1.448451389e+00,2.69300e-01,9.99999e-01,2.71825e-01,9.99451e-01,9.91253e-01
1.455693646e+00,4.30381e-01,9.99999e-01,4.33566e-01,9.99462e-01,9.93187e-01
1.462972114e+00,4.83966e-01,9.99999e-01,4.87387e-01,9.99472e-01,9.93502e-01
1.470286975e+00,4.28515e-01,9.99999e-01,4.31493e-01,9.99483e-01,9.93612e-01
