#,Wave/freq,Total,N2,H2O,Rayleigh,CIA
4.000000000e-01,4.99403e-01,9.99999e-01,9.99921e-01,4.99443e-01,9.99999e-01
4.020000000e-01,5.06321e-01,9.99999e-01,9.99951e-01,5.06346e-01,9.99999e-01
4.040100000e-01,5.13188e-01,9.99999e-01,9.99978e-01,5.13198e-01,9.99999e-01
4.060300500e-01,5.20003e-01,9.99999e-01,9.99994e-01,5.20005e-01,9.99999e-01
4.080602003e-01,5.26765e-01,9.99999e-01,9.99997e-01,5.26765e-01,9.99999e-01
4.101005013e-01,5.33477e-01,9.99999e-01,9.99999e-01,5.33477e-01,9.99999e-01
4.121510038e-01,5.40138e-01,9.99999e-01,9.99996e-01,5.40140e-01,9.99999e-01
4.142117588e-01,5.46739e-01,9.99999e-01,9.99977e-01,5.46751e-01,9.99999e-01
4.162828176e-01,5.53257e-01,9.99999e-01,9.99902e-01,5.53311e-01,9.99999e-01
4.183642317e-01,5.59785e-01,9.99999e-01,9.99941e-01,5.59817e-01,9.99999e-01
4.204560528e-01,5.66249e-01,9.99999e-01,9.99964e-01,5.66269e-01,9.99999e-01
4.225583331e-01,5.72658e-01,9.99999e-01,9.99986e-01,5.72666e-01,9.99999e-01
4.246711247e-01,5.79000e-01,9.99999e-01,9.99988e-01,5.79006e-01,9.99999e-01
4.267944804e-01,5.85281e-01,9.99999e-01,9.99984e-01,5.85290e-01,9.99999e-01
4.289284528e-01,5.91508e-01,9.99999e-01,9.99987e-01,5.91515e-01,9.99999e-01
4.310730950e-01,5.97679e-01,9.99999e-01,9.99994e-01,5.97682e-01,9.99999e-01
4.332284605e-01,6.03788e-01,9.99999e-01,9.99998e-01,6.03789e-01,9.99999e-01
4.353946028e-01,6.09836e-01,9.99999e-01,9.99998e-01,6.09836e-01,9.99999e-01
4.375715758e-01,6.15817e-01,9.99999e-01,9.99989e-01,6.15823e-01,9.99999e-01
4.397594337e-01,6.21695e-01,9.99999e-01,9.99914e-01,6.21748e-01,9.99999e-01
4.419582309e-01,6.27339e-01,9.99999e-01,9.99564e-01,6.27612e-01,9.99999e-01
4.441680220e-01,6.33200e-01,9.99999e-01,9.99662e-01,6.33414e-01,9.99999e-01
4.463888621e-01,6.38928e-01,9.99999e-01,9.99648e-01,6.39153e-01,9.99999e-01
4.486208064e-01,6.44688e-01,9.99999e-01,9.99781e-01,6.44829e-01,9.99999e-01
4.508639105e-01,6.50375e-01,9.99999e-01,9.99897e-01,6.50442e-01,9.99999e-01
4.531182300e-01,6.55965e-01,9.99999e-01,9.99959e-01,6.55991e-01,9.99999e-01
4.553838212e-01,6.61459e-01,9.99999e-01,9.99972e-01,6.61477e-01,9.99999e-01
4.576607403e-01,6.66890e-01,9.99999e-01,9.99986e-01,6.66899e-01,9.99999e-01
4.599490440e-01,6.72251e-01,9.99999e-01,9.99990e-01,6.72257e-01,9.99999e-01
4.622487892e-01,6.77549e-01,9.99999e-01,9.99997e-01,6.77551e-01,9.99999e-01
4.645600332e-01,6.82776e-01,9.99999e-01,9.99993e-01,6.82780e-01,9.99999e-01
4.668828333e-01,6.87875e-01,9.99999e-01,9.99896e-01,6.87946e-01,9.99999e-01
4.692172475e-01,6.92895e-01,9.99999e-01,9.99779e-01,6.93048e-01,9.99999e-01
4.715633337e-01,6.97985e-01,9.99999e-01,9.99855e-01,6.98085e-01,9.99999e-01
4.739211504e-01,7.02962e-01,9.99999e-01,9.99861e-01,7.03059e-01,9.99999e-01
4.762907561e-01,7.07918e-01,9.99999e-01,9.99928e-01,7.07968e-01,9.99999e-01
4.786722099e-01,7.12794e-01,9.99999e-01,9.99970e-01,7.12814e-01,9.99999e-01
4.810655710e-01,7.17591e-01,9.99999e-01,9.99990e-01,7.17597e-01,9.99999e-01
4.834708988e-01,7.22255e-01,9.99999e-01,9.99914e-01,7.22316e-01,9.99999e-01
4.858882533e-01,7.26859e-01,9.99999e-01,9.99843e-01,7.26972e-01,9.99999e-01
4.883176946e-01,7.31470e-01,9.99999e-01,9.99868e-01,7.31565e-01,9.99999e-01
4.907592831e-01,7.36009e-01,9.99999e-01,9.99881e-01,7.36096e-01,9.99999e-01
4.932130795e-01,7.40502e-01,9.99999e-01,9.99915e-01,7.40564e-01,9.99999e-01
4.956791449e-01,7.44938e-01,9.99999e-01,9.99955e-01,7.44971e-01,9.99999e-01
4.981575406e-01,7.49149e-01,9.99999e-01,9.99777e-01,7.49316e-01,9.99999e-01
5.006483283e-01,7.53162e-01,9.99999e-01,9.99423e-01,7.53599e-01,9.99995e-01
5.031515699e-01,7.55594e-01,9.99999e-01,9.97089e-01,7.57822e-01,9.99968e-01
5.056673278e-01,7.60788e-01,9.99999e-01,9.98464e-01,7.61984e-01,9.99964e-01
5.081956644e-01,7.64587e-01,9.99999e-01,9.98063e-01,7.66087e-01,9.99978e-01
5.107366428e-01,7.69120e-01,9.99999e-01,9.98692e-01,7.70129e-01,9.99995e-01
5.132903260e-01,7.73535e-01,9.99999e-01,9.99253e-01,7.74113e-01,9.99999e-01
5.158567776e-01,7.77793e-01,9.99999e-01,9.99684e-01,7.78038e-01,9.99999e-01
5.184360615e-01,7.81806e-01,9.99999e-01,9.99873e-01,7.81904e-01,9.99999e-01
5.210282418e-01,7.85676e-01,9.99999e-01,9.99952e-01,7.85713e-01,9.99999e-01
5.236333830e-01,7.89314e-01,9.99999e-01,9.99809e-01,7.89465e-01,9.99998e-01
5.262515499e-01,7.93065e-01,9.99999e-01,9.99880e-01,7.93160e-01,9.99997e-01
5.288828077e-01,7.96711e-01,9.99999e-01,9.99890e-01,7.96799e-01,9.99998e-01
5.315272217e-01,8.00305e-01,9.99999e-01,9.99904e-01,8.00382e-01,9.99999e-01
5.341848578e-01,8.03860e-01,9.99999e-01,9.99936e-01,8.03910e-01,9.99999e-01
5.368557821e-01,8.07204e-01,9.99999e-01,9.99778e-01,8.07383e-01,9.99999e-01
5.395400610e-01,8.10149e-01,9.99999e-01,9.99199e-01,8.10803e-01,9.99992e-01
5.422377613e-01,8.13316e-01,9.99999e-01,9.98970e-01,8.14169e-01,9.99980e-01
5.449489501e-01,8.16681e-01,9.99999e-01,9.99039e-01,8.17482e-01,9.99980e-01
5.476736949e-01,8.20039e-01,9.99999e-01,9.99152e-01,8.20742e-01,9.99990e-01
5.504120634e-01,8.23442e-01,9.99999e-01,9.99384e-01,8.23951e-01,9.99996e-01
5.531641237e-01,8.26852e-01,9.99999e-01,9.99690e-01,8.27109e-01,9.99999e-01
5.559299443e-01,8.30092e-01,9.99999e-01,9.99850e-01,8.30215e-01,9.99999e-01
5.587095940e-01,8.33194e-01,9.99999e-01,9.99905e-01,8.33272e-01,9.99999e-01
5.615031420e-01,8.36192e-01,9.99999e-01,9.99895e-01,8.36280e-01,9.99999e-01
5.643106577e-01,8.39138e-01,9.99999e-01,9.99880e-01,8.39238e-01,9.99998e-01
5.671322110e-01,8.40918e-01,9.99999e-01,9.98551e-01,8.42149e-01,9.99986e-01
5.699678720e-01,8.43689e-01,9.99999e-01,9.98474e-01,8.45011e-01,9.99960e-01
5.728177114e-01,8.46447e-01,9.99999e-01,9.98404e-01,8.47827e-01,9.99966e-01
5.756818000e-01,8.49336e-01,9.99999e-01,9.98537e-01,8.50596e-01,9.99980e-01
5.785602090e-01,8.52227e-01,9.99999e-01,9.98725e-01,8.53319e-01,9.99994e-01
5.814530100e-01,8.54898e-01,9.99999e-01,9.98719e-01,8.55997e-01,9.99996e-01
5.843602750e-01,8.57309e-01,9.99999e-01,9.98469e-01,8.58630e-01,9.99991e-01
5.872820764e-01,8.49859e-01,9.99999e-01,9.86899e-01,8.61219e-01,9.99907e-01
5.902184868e-01,8.49880e-01,9.99999e-01,9.84173e-01,8.63764e-01,9.99747e-01
5.931695792e-01,8.56353e-01,9.99999e-01,9.88794e-01,8.66266e-01,9.99757e-01
5.961354271e-01,8.57943e-01,9.99999e-01,9.87723e-01,8.68726e-01,9.99860e-01
5.991161043e-01,8.63297e-01,9.99999e-01,9.91033e-01,8.71145e-01,9.99956e-01
6.021116848e-01,8.69068e-01,9.99999e-01,9.94905e-01,8.73521e-01,9.99994e-01
6.051222432e-01,8.73598e-01,9.99999e-01,9.97419e-01,8.75858e-01,9.99999e-01
6.081478544e-01,8.77176e-01,9.99999e-01,9.98885e-01,8.78154e-01,9.99999e-01
6.111885937e-01,8.79996e-01,9.99999e-01,9.99528e-01,8.80411e-01,9.99999e-01
6.142445367e-01,8.82443e-01,9.99999e-01,9.99789e-01,8.82628e-01,9.99999e-01
6.173157594e-01,8.84705e-01,9.99999e-01,9.99883e-01,8.84808e-01,9.99999e-01
6.204023382e-01,8.86862e-01,9.99999e-01,9.99901e-01,8.86949e-01,9.99999e-01
6.235043498e-01,8.88665e-01,9.99999e-01,9.99564e-01,8.89053e-01,9.99998e-01
6.266218716e-01,8.89064e-01,9.99999e-01,9.97706e-01,8.91121e-01,9.99983e-01
6.297549810e-01,8.92372e-01,9.99999e-01,9.99158e-01,8.93152e-01,9.99967e-01
6.329037559e-01,8.93638e-01,9.99999e-01,9.98338e-01,8.95148e-01,9.99973e-01
6.360682746e-01,8.95824e-01,9.99999e-01,9.98583e-01,8.97109e-01,9.99984e-01
6.392486160e-01,8.97380e-01,9.99999e-01,9.98165e-01,8.99035e-01,9.99992e-01
6.424448591e-01,8.98700e-01,9.99999e-01,9.97538e-01,9.00927e-01,9.99988e-01
6.456570834e-01,8.92461e-01,9.99999e-01,9.88625e-01,9.02785e-01,9.99936e-01
6.488853688e-01,8.96940e-01,9.99999e-01,9.91695e-01,9.04611e-01,9.99822e-01
6.521297956e-01,8.98604e-01,9.99999e-01,9.91538e-01,9.06404e-01,9.99853e-01
6.553904446e-01,9.00397e-01,9.99999e-01,9.91554e-01,9.08165e-01,9.99890e-01
6.586673968e-01,9.03290e-01,9.99999e-01,9.92776e-01,9.09895e-01,9.99963e-01
6.619607338e-01,9.07911e-01,9.99999e-01,9.95967e-01,9.11593e-01,9.99991e-01
6.652705375e-01,9.11047e-01,9.99999e-01,9.97578e-01,9.13261e-01,9.99995e-01
6.685968902e-01,9.13957e-01,9.99999e-01,9.98970e-01,9.14900e-01,9.99998e-01
6.719398746e-01,9.16031e-01,9.99999e-01,9.99478e-01,9.16508e-01,9.99999e-01
6.752995740e-01,9.17828e-01,9.99999e-01,9.99716e-01,9.18088e-01,9.99999e-01
6.786760719e-01,9.19262e-01,9.99999e-01,9.99590e-01,9.19639e-01,9.99998e-01
6.820694522e-01,9.20514e-01,9.99999e-01,9.99299e-01,9.21162e-01,9.99995e-01
6.854797995e-01,9.21817e-01,9.99999e-01,9.99096e-01,9.22657e-01,9.99991e-01
6.889071985e-01,9.22079e-01,9.99999e-01,9.97804e-01,9.24126e-01,9.99980e-01
6.923517345e-01,8.92921e-01,9.99999e-01,9.64893e-01,9.25567e-01,9.99828e-01
6.958134932e-01,9.09712e-01,9.99999e-01,9.81739e-01,9.26982e-01,9.99621e-01
6.992925606e-01,9.11801e-01,9.99999e-01,9.82484e-01,9.28372e-01,9.99658e-01
7.027890234e-01,9.09486e-01,9.99999e-01,9.78473e-01,9.29735e-01,9.99739e-01
7.063029686e-01,9.14062e-01,9.99999e-01,9.81854e-01,9.31074e-01,9.99869e-01
7.098344834e-01,9.16077e-01,9.99999e-01,9.82580e-01,9.32389e-01,9.99922e-01
7.133836558e-01,9.11880e-01,9.99999e-01,9.76800e-01,9.33679e-01,9.99847e-01
7.169505741e-01,7.75498e-01,9.99999e-01,8.30452e-01,9.34945e-01,9.98801e-01
7.205353270e-01,8.53128e-01,9.99999e-01,9.13206e-01,9.36188e-01,9.97887e-01
7.241380036e-01,8.33044e-01,9.99999e-01,8.90290e-01,9.37408e-01,9.98175e-01
7.277586936e-01,8.43972e-01,9.99999e-01,9.00518e-01,9.38606e-01,9.98507e-01
7.313974871e-01,8.39941e-01,9.99999e-01,8.94386e-01,9.39781e-01,9.99300e-01
7.350544745e-01,8.84920e-01,9.99999e-01,9.40696e-01,9.40935e-01,9.99756e-01
7.387297469e-01,9.00460e-01,9.99999e-01,9.55939e-01,9.42067e-01,9.99888e-01
7.424233956e-01,9.22593e-01,9.99999e-01,9.78194e-01,9.43178e-01,9.99978e-01
7.461355126e-01,9.31726e-01,9.99999e-01,9.86720e-01,9.44269e-01,9.99995e-01
7.498661902e-01,9.39479e-01,9.99999e-01,9.93801e-01,9.45339e-01,9.99998e-01
7.536155211e-01,9.43504e-01,9.99999e-01,9.96952e-01,9.46389e-01,9.99998e-01
7.573835987e-01,9.45933e-01,9.99999e-01,9.98430e-01,9.47420e-01,9.99999e-01
7.611705167e-01,9.47506e-01,9.99999e-01,9.99024e-01,9.48431e-01,9.99999e-01
7.649763693e-01,9.48843e-01,9.99999e-01,9.99387e-01,9.49423e-01,9.99999e-01
7.688012511e-01,9.49992e-01,9.99999e-01,9.99573e-01,9.50397e-01,9.99999e-01
7.726452574e-01,9.51019e-01,9.99999e-01,9.99648e-01,9.51353e-01,9.99999e-01
7.765084837e-01,9.51814e-01,9.99999e-01,9.99499e-01,9.52290e-01,9.99998e-01
7.803910261e-01,9.51150e-01,9.99999e-01,9.97840e-01,9.53210e-01,9.99997e-01
7.842929812e-01,9.46925e-01,9.99999e-01,9.92479e-01,9.54113e-01,9.99985e-01
7.882144461e-01,9.40198e-01,9.99999e-01,9.84606e-01,9.54999e-01,9.99893e-01
7.921555184e-01,9.47615e-01,9.99999e-01,9.91548e-01,9.55868e-01,9.99814e-01
7.961162960e-01,9.42256e-01,9.99999e-01,9.85054e-01,9.56720e-01,9.99823e-01
8.000968774e-01,9.40885e-01,9.99999e-01,9.82772e-01,9.57557e-01,9.99812e-01
8.040973618e-01,9.41726e-01,9.99999e-01,9.82765e-01,9.58377e-01,9.99856e-01
8.081178486e-01,9.22194e-01,9.99999e-01,9.61576e-01,9.59182e-01,9.99855e-01
8.121584379e-01,8.15926e-01,9.99999e-01,8.50412e-01,9.59972e-01,9.99452e-01
8.162192301e-01,7.91915e-01,9.99999e-01,8.25967e-01,9.60747e-01,9.97944e-01
8.203003262e-01,8.73274e-01,9.99999e-01,9.10424e-01,9.61507e-01,9.97593e-01
8.244018279e-01,8.44371e-01,9.99999e-01,8.79176e-01,9.62253e-01,9.98084e-01
8.285238370e-01,8.57084e-01,9.99999e-01,8.91369e-01,9.62985e-01,9.98494e-01
8.326664562e-01,8.57741e-01,9.99999e-01,8.90601e-01,9.63702e-01,9.99377e-01
8.368297885e-01,8.87306e-01,9.99999e-01,9.20184e-01,9.64406e-01,9.99857e-01
8.410139374e-01,9.18430e-01,9.99999e-01,9.51724e-01,9.65097e-01,9.99916e-01
8.452190071e-01,9.42566e-01,9.99999e-01,9.76017e-01,9.65775e-01,9.99949e-01
8.494451021e-01,9.52865e-01,9.99999e-01,9.85992e-01,9.66439e-01,9.99959e-01
8.536923276e-01,9.59046e-01,9.99999e-01,9.91704e-01,9.67091e-01,9.99975e-01
8.579607893e-01,9.62769e-01,9.99999e-01,9.94878e-01,9.67730e-01,9.99993e-01
8.622505932e-01,9.65206e-01,9.99999e-01,9.96746e-01,9.68358e-01,9.99998e-01
8.665618462e-01,9.67019e-01,9.99999e-01,9.97983e-01,9.68973e-01,9.99998e-01
8.708946554e-01,9.67336e-01,9.99999e-01,9.97689e-01,9.69576e-01,9.99998e-01
8.752491287e-01,9.67169e-01,9.99999e-01,9.96911e-01,9.70168e-01,9.99996e-01
8.796253743e-01,9.66586e-01,9.99999e-01,9.95720e-01,9.70749e-01,9.99989e-01
8.840235012e-01,9.66545e-01,9.99999e-01,9.95114e-01,9.71318e-01,9.99969e-01
8.884436187e-01,9.54562e-01,9.99999e-01,9.82267e-01,9.71876e-01,9.99914e-01
8.928858368e-01,8.07289e-01,9.99999e-01,8.30587e-01,9.72424e-01,9.99511e-01
8.973502660e-01,7.00866e-01,9.99999e-01,7.22147e-01,9.72961e-01,9.97499e-01
9.018370173e-01,8.21618e-01,9.99999e-01,8.47321e-01,9.73488e-01,9.96071e-01
9.063462024e-01,8.37716e-01,9.99999e-01,8.63051e-01,9.74005e-01,9.96548e-01
9.108779334e-01,7.72264e-01,9.99999e-01,7.95313e-01,9.74512e-01,9.96413e-01
9.154323231e-01,7.48747e-01,9.99999e-01,7.70222e-01,9.75009e-01,9.97034e-01
9.200094847e-01,7.94559e-01,9.99999e-01,8.15871e-01,9.75497e-01,9.98339e-01
9.246095321e-01,7.16133e-01,9.99999e-01,7.35167e-01,9.75975e-01,9.98086e-01
9.292325798e-01,1.46263e-01,9.99999e-01,1.50914e-01,9.76444e-01,9.92559e-01
9.338787427e-01,8.13818e-02,9.99999e-01,8.59177e-02,9.76903e-01,9.69600e-01
9.385481364e-01,3.46103e-01,9.99999e-01,3.67366e-01,9.77354e-01,9.63949e-01
9.432408771e-01,2.48851e-01,9.99999e-01,2.62692e-01,9.77797e-01,9.68820e-01
9.479570815e-01,1.48371e-01,9.99999e-01,1.55634e-01,9.78230e-01,9.74549e-01
9.526968669e-01,2.27142e-01,9.99999e-01,2.35774e-01,9.78656e-01,9.84398e-01
9.574603512e-01,2.44048e-01,9.99999e-01,2.51263e-01,9.79073e-01,9.92044e-01
9.622476530e-01,3.09675e-01,9.99999e-01,3.17912e-01,9.79482e-01,9.94491e-01
9.670588912e-01,5.00061e-01,9.99999e-01,5.12258e-01,9.79883e-01,9.96229e-01
9.718941857e-01,6.34591e-01,9.99999e-01,6.49160e-01,9.80277e-01,9.97223e-01
9.767536566e-01,6.83114e-01,9.99999e-01,6.98065e-01,9.80662e-01,9.97877e-01
9.816374249e-01,7.49992e-01,9.99999e-01,7.65047e-01,9.81041e-01,9.99264e-01
9.865456120e-01,8.29557e-01,9.99999e-01,8.45398e-01,9.81412e-01,9.99846e-01
9.914783401e-01,8.84657e-01,9.99999e-01,9.01116e-01,9.81775e-01,9.99957e-01
9.964357318e-01,9.27962e-01,9.99999e-01,9.44867e-01,9.82132e-01,9.99974e-01
1.001417910e+00,9.49597e-01,9.99999e-01,9.66564e-01,9.82482e-01,9.99961e-01
1.006425000e+00,9.63885e-01,9.99999e-01,9.80781e-01,9.82825e-01,9.99945e-01
1.011457125e+00,9.71356e-01,9.99999e-01,9.88041e-01,9.83161e-01,9.99949e-01
1.016514411e+00,9.75453e-01,9.99999e-01,9.91861e-01,9.83491e-01,9.99964e-01
1.021596983e+00,9.77394e-01,9.99999e-01,9.93508e-01,9.83815e-01,9.99964e-01
1.026704968e+00,9.79124e-01,9.99999e-01,9.94932e-01,9.84132e-01,9.99977e-01
1.031838492e+00,9.80812e-01,9.99999e-01,9.96317e-01,9.84443e-01,9.99992e-01
1.036997685e+00,9.82590e-01,9.99999e-01,9.97809e-01,9.84748e-01,9.99998e-01
1.042182673e+00,9.82471e-01,9.99999e-01,9.97385e-01,9.85047e-01,9.99999e-01
1.047393587e+00,9.81927e-01,9.99999e-01,9.96536e-01,9.85340e-01,9.99998e-01
1.052630555e+00,9.80943e-01,9.99999e-01,9.95248e-01,9.85627e-01,9.99998e-01
1.057893707e+00,9.78094e-01,9.99999e-01,9.92075e-01,9.85909e-01,9.99996e-01
1.063183176e+00,9.73359e-01,9.99999e-01,9.86999e-01,9.86185e-01,9.99992e-01
1.068499092e+00,9.65076e-01,9.99999e-01,9.78339e-01,9.86456e-01,9.99984e-01
1.073841587e+00,9.61739e-01,9.99999e-01,9.74711e-01,9.86722e-01,9.99967e-01
1.079210795e+00,9.55038e-01,9.99999e-01,9.67718e-01,9.86983e-01,9.99912e-01
1.084606849e+00,9.39219e-01,9.99999e-01,9.51559e-01,9.87238e-01,9.99789e-01
1.090029883e+00,9.19137e-01,9.99999e-01,9.31187e-01,9.87489e-01,9.99563e-01
1.095480033e+00,8.13001e-01,9.99999e-01,8.23746e-01,9.87734e-01,9.99211e-01
1.100957433e+00,6.06662e-01,9.99999e-01,6.14937e-01,9.87975e-01,9.98548e-01
1.106462220e+00,3.02335e-01,9.99999e-01,3.06695e-01,9.88211e-01,9.97540e-01
1.111994531e+00,8.80101e-02,9.99999e-01,8.96230e-02,9.88443e-01,9.93483e-01
1.117554504e+00,2.27037e-02,9.99999e-01,2.35124e-02,9.88670e-01,9.76672e-01
1.123142276e+00,7.31685e-02,9.99999e-01,7.82499e-02,9.88892e-01,9.45564e-01
1.128757988e+00,1.53608e-01,9.99999e-01,1.65687e-01,9.89110e-01,9.37299e-01
1.134401778e+00,6.95304e-02,9.99999e-01,7.42587e-02,9.89324e-01,9.46429e-01
1.140073787e+00,3.06345e-01,9.99999e-01,3.23508e-01,9.89534e-01,9.56961e-01
1.145774156e+00,1.07995e-01,9.99999e-01,1.13598e-01,9.89740e-01,9.60531e-01
1.151503026e+00,8.70952e-02,9.99999e-01,8.99760e-02,9.89941e-01,9.77816e-01
1.157260541e+00,1.11821e-01,9.99999e-01,1.13695e-01,9.90139e-01,9.93314e-01
1.163046844e+00,1.95059e-01,9.99999e-01,1.97338e-01,9.90333e-01,9.98100e-01
1.168862078e+00,3.08357e-01,9.99999e-01,3.11612e-01,9.90523e-01,9.99020e-01
1.174706389e+00,4.80282e-01,9.99999e-01,4.85416e-01,9.90709e-01,9.98702e-01
1.180579921e+00,6.34880e-01,9.99999e-01,6.41974e-01,9.90892e-01,9.98038e-01
1.186482820e+00,7.68178e-01,9.99999e-01,7.76661e-01,9.91071e-01,9.97986e-01
1.192415234e+00,8.53550e-01,9.99999e-01,8.62387e-01,9.91246e-01,9.98491e-01
1.198377311e+00,8.73869e-01,9.99999e-01,8.82689e-01,9.91419e-01,9.98575e-01
1.204369197e+00,8.80436e-01,9.99999e-01,8.89050e-01,9.91587e-01,9.98710e-01
1.210391043e+00,8.85341e-01,9.99999e-01,8.93403e-01,9.91753e-01,9.99215e-01
1.216442998e+00,9.00855e-01,9.99999e-01,9.08633e-01,9.91915e-01,9.99519e-01
1.222525213e+00,9.20330e-01,9.99999e-01,9.27958e-01,9.92074e-01,9.99701e-01
1.228637839e+00,9.41866e-01,9.99999e-01,9.49372e-01,9.92230e-01,9.99860e-01
1.234781029e+00,9.54813e-01,9.99999e-01,9.62179e-01,9.92383e-01,9.99959e-01
1.240954934e+00,9.68609e-01,9.99999e-01,9.75906e-01,9.92533e-01,9.99988e-01
1.247159708e+00,9.74000e-01,9.99999e-01,9.81189e-01,9.92680e-01,9.99992e-01
1.253395507e+00,9.76209e-01,9.99999e-01,9.83274e-01,9.92824e-01,9.99990e-01
1.259662485e+00,9.77156e-01,9.99999e-01,9.84092e-01,9.92965e-01,9.99984e-01
1.265960797e+00,9.67982e-01,9.99999e-01,9.74728e-01,9.93103e-01,9.99974e-01
1.272290601e+00,9.54029e-01,9.99999e-01,9.60564e-01,9.93239e-01,9.99955e-01
1.278652054e+00,9.17129e-01,9.99999e-01,9.23318e-01,9.93372e-01,9.99922e-01
1.285045314e+00,8.59930e-01,9.99999e-01,8.65678e-01,9.93503e-01,9.99854e-01
1.291470541e+00,7.72911e-01,9.99999e-01,7.78062e-01,9.93631e-01,9.99745e-01
1.297927893e+00,6.96247e-01,9.99999e-01,7.00953e-01,9.93756e-01,9.99526e-01
1.304417533e+00,6.55129e-01,9.99999e-01,6.59824e-01,9.93879e-01,9.98996e-01
1.310939621e+00,6.15903e-01,9.99999e-01,6.20898e-01,9.93999e-01,9.97941e-01
1.317494319e+00,5.92267e-01,9.99999e-01,5.98045e-01,9.94118e-01,9.96196e-01
1.324081790e+00,4.63979e-01,9.99999e-01,4.69582e-01,9.94233e-01,9.93796e-01
1.330702199e+00,1.12355e-01,9.99999e-01,1.14213e-01,9.94347e-01,9.89328e-01
1.337355710e+00,1.32331e-03,9.99999e-01,1.35846e-03,9.94458e-01,9.79549e-01
1.344042489e+00,1.83346e-05,9.99999e-01,1.96185e-05,9.94568e-01,9.39661e-01
1.350762701e+00,2.99758e-15,9.99999e-01,3.72931e-15,9.94675e-01,8.08092e-01
1.357516515e+00,1.12814e-22,9.99999e-01,2.11942e-22,9.94779e-01,5.35078e-01
1.364304097e+00,2.38962e-14,9.99999e-01,7.18665e-14,9.94882e-01,3.34218e-01
1.371125618e+00,3.54691e-09,9.99999e-01,1.00179e-08,9.94983e-01,3.55841e-01
1.377981246e+00,1.30540e-08,9.99999e-01,3.18087e-08,9.95082e-01,4.12420e-01
1.384871152e+00,4.56359e-12,9.99999e-01,1.04674e-11,9.95179e-01,4.38092e-01
1.391795508e+00,2.33787e-14,9.99999e-01,5.15873e-14,9.95274e-01,4.55338e-01
1.398754485e+00,2.88699e-11,9.99999e-01,5.55510e-11,9.95367e-01,5.22120e-01
1.405748258e+00,4.18313e-11,9.99999e-01,6.14423e-11,9.95458e-01,6.83927e-01
1.412776999e+00,7.61691e-11,9.99999e-01,9.10009e-11,9.95548e-01,8.40756e-01
1.419840884e+00,1.47309e-10,9.99998e-01,1.59646e-10,9.95635e-01,9.26765e-01
1.426940089e+00,1.87368e-07,9.99998e-01,1.99365e-07,9.95721e-01,9.43857e-01
1.434074789e+00,2.00907e-06,9.99998e-01,2.15989e-06,9.95806e-01,9.34090e-01
1.441245163e+00,2.09078e-05,9.99999e-01,2.26033e-05,9.95888e-01,9.28809e-01
1.448451389e+00,6.47803e-04,9.99998e-01,6.93873e-04,9.95969e-01,9.37382e-01
1.455693646e+00,6.65022e-03,9.99999e-01,7.02112e-03,9.96049e-01,9.50929e-01
1.462972114e+00,9.83718e-03,9.99999e-01,1.03609e-02,9.96127e-01,9.53145e-01
1.470286975e+00,4.98861e-03,9.99999e-01,5.24949e-03,9.96203e-01,9.53925e-01
