#,Wave/freq,Total,N2,H2O,Rayleigh,CIA
4.000000000e-01,5.02117e-01,9.99999e-01,9.99922e-01,5.02155e-01,9.99999e-01
4.020000000e-01,5.09017e-01,9.99999e-01,9.99951e-01,5.09042e-01,9.99999e-01
4.040100000e-01,5.15866e-01,9.99999e-01,9.99979e-01,5.15876e-01,9.99999e-01
4.060300500e-01,5.22663e-01,9.99999e-01,9.99994e-01,5.22665e-01,9.99999e-01
4.080602003e-01,5.29406e-01,9.99999e-01,9.99997e-01,5.29407e-01,9.99999e-01
4.101005013e-01,5.36099e-01,9.99999e-01,9.99999e-01,5.36099e-01,9.99999e-01
4.121510038e-01,5.42740e-01,9.99999e-01,9.99996e-01,5.42742e-01,9.99999e-01
4.142117588e-01,5.49321e-01,9.99999e-01,9.99977e-01,5.49333e-01,9.99999e-01
4.162828176e-01,5.55818e-01,9.99999e-01,9.99903e-01,5.55872e-01,9.99999e-01
4.183642317e-01,5.62325e-01,9.99999e-01,9.99942e-01,5.62357e-01,9.99999e-01
4.204560528e-01,5.68767e-01,9.99999e-01,9.99964e-01,5.68787e-01,9.99999e-01
4.225583331e-01,5.75155e-01,9.99999e-01,9.99986e-01,5.75162e-01,9.99999e-01
4.246711247e-01,5.81474e-01,9.99999e-01,9.99988e-01,5.81480e-01,9.99999e-01
4.267944804e-01,5.87732e-01,9.99999e-01,9.99984e-01,5.87741e-01,9.99999e-01
4.289284528e-01,5.93936e-01,9.99999e-01,9.99987e-01,5.93943e-01,9.99999e-01
4.310730950e-01,6.00084e-01,9.99999e-01,9.99994e-01,6.00087e-01,9.99999e-01
4.332284605e-01,6.06170e-01,9.99999e-01,9.99998e-01,6.06171e-01,9.99999e-01
4.353946028e-01,6.12194e-01,9.99999e-01,9.99998e-01,6.12194e-01,9.99999e-01
4.375715758e-01,6.18151e-01,9.99999e-01,9.99989e-01,6.18157e-01,9.99999e-01
4.397594337e-01,6.24005e-01,9.99999e-01,9.99914e-01,6.24058e-01,9.99999e-01
4.419582309e-01,6.29623e-01,9.99999e-01,9.99563e-01,6.29897e-01,9.99999e-01
4.441680220e-01,6.35463e-01,9.99999e-01,9.99666e-01,6.35674e-01,9.99999e-01
4.463888621e-01,6.41165e-01,9.99999e-01,9.99651e-01,6.41389e-01,9.99999e-01
4.486208064e-01,6.46901e-01,9.99999e-01,9.99784e-01,6.47040e-01,9.99999e-01
4.508639105e-01,6.52562e-01,9.99999e-01,9.99898e-01,6.52628e-01,9.99999e-01
4.531182300e-01,6.58126e-01,9.99999e-01,9.99959e-01,6.58152e-01,9.99999e-01
4.553838212e-01,6.63595e-01,9.99999e-01,9.99972e-01,6.63613e-01,9.99999e-01
4.576607403e-01,6.69002e-01,9.99999e-01,9.99987e-01,6.69010e-01,9.99999e-01
4.599490440e-01,6.74337e-01,9.99999e-01,9.99990e-01,6.74343e-01,9.99999e-01
4.622487892e-01,6.79611e-01,9.99999e-01,9.99997e-01,6.79612e-01,9.99999e-01
4.645600332e-01,6.84812e-01,9.99999e-01,9.99993e-01,6.84816e-01,9.99999e-01
4.668828333e-01,6.89886e-01,9.99999e-01,9.99896e-01,6.89957e-01,9.99999e-01
4.692172475e-01,6.94881e-01,9.99999e-01,9.99781e-01,6.95033e-01,9.99999e-01
4.715633337e-01,6.99945e-01,9.99999e-01,9.99856e-01,7.00045e-01,9.99999e-01
4.739211504e-01,7.04898e-01,9.99999e-01,9.99863e-01,7.04994e-01,9.99999e-01
4.762907561e-01,7.09829e-01,9.99999e-01,9.99929e-01,7.09879e-01,9.99999e-01
4.786722099e-01,7.14679e-01,9.99999e-01,9.99970e-01,7.14700e-01,9.99999e-01
4.810655710e-01,7.19451e-01,9.99999e-01,9.99990e-01,7.19457e-01,9.99999e-01
4.834708988e-01,7.24090e-01,9.99999e-01,9.99913e-01,7.24152e-01,9.99999e-01
4.858882533e-01,7.28671e-01,9.99999e-01,9.99845e-01,7.28783e-01,9.99999e-01
4.883176946e-01,7.33256e-01,9.99999e-01,9.99869e-01,7.33352e-01,9.99999e-01
4.907592831e-01,7.37772e-01,9.99999e-01,9.99882e-01,7.37858e-01,9.99999e-01
4.932130795e-01,7.42240e-01,9.99999e-01,9.99916e-01,7.42302e-01,9.99999e-01
4.956791449e-01,7.46651e-01,9.99999e-01,9.99955e-01,7.46684e-01,9.99999e-01
4.981575406e-01,7.50839e-01,9.99999e-01,9.99778e-01,7.51005e-01,9.99999e-01
5.006483283e-01,7.54827e-01,9.99999e-01,9.99423e-01,7.55264e-01,9.99995e-01
5.031515699e-01,7.57244e-01,9.99999e-01,9.97107e-01,7.59463e-01,9.99969e-01
5.056673278e-01,7.62414e-01,9.99999e-01,9.98477e-01,7.63602e-01,9.99964e-01
5.081956644e-01,7.66192e-01,9.99999e-01,9.98081e-01,7.67681e-01,9.99978e-01
5.107366428e-01,7.70699e-01,9.99999e-01,9.98704e-01,7.71700e-01,9.99995e-01
5.132903260e-01,7.75088e-01,9.99999e-01,9.99260e-01,7.75661e-01,9.99999e-01
5.158567776e-01,7.79320e-01,9.99999e-01,9.99687e-01,7.79563e-01,9.99999e-01
5.184360615e-01,7.83309e-01,9.99999e-01,9.99874e-01,7.83407e-01,9.99999e-01
5.210282418e-01,7.87156e-01,9.99999e-01,9.99952e-01,7.87193e-01,9.99999e-01
5.236333830e-01,7.90773e-01,9.99999e-01,9.99811e-01,7.90923e-01,9.99998e-01
5.262515499e-01,7.94501e-01,9.99999e-01,9.99881e-01,7.94596e-01,9.99997e-01
5.288828077e-01,7.98125e-01,9.99999e-01,9.99890e-01,7.98212e-01,9.99998e-01
5.315272217e-01,8.01698e-01,9.99999e-01,9.99905e-01,8.01774e-01,9.99999e-01
5.341848578e-01,8.05230e-01,9.99999e-01,9.99937e-01,8.05280e-01,9.99999e-01
5.368557821e-01,8.08554e-01,9.99999e-01,9.99779e-01,8.08732e-01,9.99999e-01
5.395400610e-01,8.11474e-01,9.99999e-01,9.99198e-01,8.12131e-01,9.99992e-01
5.422377613e-01,8.14629e-01,9.99999e-01,9.98980e-01,8.15476e-01,9.99980e-01
5.449489501e-01,8.17970e-01,9.99999e-01,9.99044e-01,8.18768e-01,9.99980e-01
5.476736949e-01,8.21311e-01,9.99999e-01,9.99161e-01,8.22008e-01,9.99990e-01
5.504120634e-01,8.24692e-01,9.99999e-01,9.99390e-01,8.25197e-01,9.99996e-01
5.531641237e-01,8.28081e-01,9.99999e-01,9.99693e-01,8.28334e-01,9.99999e-01
5.559299443e-01,8.31299e-01,9.99999e-01,9.99851e-01,8.31422e-01,9.99999e-01
5.587095940e-01,8.34381e-01,9.99999e-01,9.99906e-01,8.34459e-01,9.99999e-01
5.615031420e-01,8.37360e-01,9.99999e-01,9.99895e-01,8.37447e-01,9.99999e-01
5.643106577e-01,8.40286e-01,9.99999e-01,9.99880e-01,8.40387e-01,9.99998e-01
5.671322110e-01,8.42041e-01,9.99999e-01,9.98545e-01,8.43278e-01,9.99986e-01
5.699678720e-01,8.44817e-01,9.99999e-01,9.98494e-01,8.46122e-01,9.99960e-01
5.728177114e-01,8.47547e-01,9.99999e-01,9.98414e-01,8.48920e-01,9.99967e-01
5.756818000e-01,8.50419e-01,9.99999e-01,9.98548e-01,8.51671e-01,9.99980e-01
5.785602090e-01,8.53293e-01,9.99999e-01,9.98737e-01,8.54376e-01,9.99994e-01
5.814530100e-01,8.55944e-01,9.99999e-01,9.98728e-01,8.57036e-01,9.99996e-01
5.843602750e-01,8.58332e-01,9.99999e-01,9.98473e-01,8.59652e-01,9.99991e-01
5.872820764e-01,8.50887e-01,9.99999e-01,9.86942e-01,8.62223e-01,9.99907e-01
5.902184868e-01,8.50977e-01,9.99999e-01,9.84316e-01,8.64752e-01,9.99749e-01
5.931695792e-01,8.57383e-01,9.99999e-01,9.88874e-01,8.67237e-01,9.99759e-01
5.961354271e-01,8.58977e-01,9.99999e-01,9.87828e-01,8.69681e-01,9.99861e-01
5.991161043e-01,8.64299e-01,9.99999e-01,9.91116e-01,8.72083e-01,9.99956e-01
6.021116848e-01,8.70030e-01,9.99999e-01,9.94956e-01,8.74444e-01,9.99994e-01
6.051222432e-01,8.74525e-01,9.99999e-01,9.97446e-01,8.76764e-01,9.99999e-01
6.081478544e-01,8.78075e-01,9.99999e-01,9.98896e-01,8.79045e-01,9.99999e-01
6.111885937e-01,8.80876e-01,9.99999e-01,9.99534e-01,8.81286e-01,9.99999e-01
6.142445367e-01,8.83305e-01,9.99999e-01,9.99791e-01,8.83489e-01,9.99999e-01
6.173157594e-01,8.85551e-01,9.99999e-01,9.99884e-01,8.85653e-01,9.99999e-01
6.204023382e-01,8.87693e-01,9.99999e-01,9.99901e-01,8.87780e-01,9.99999e-01
6.235043498e-01,8.89480e-01,9.99999e-01,9.99562e-01,8.89869e-01,9.99998e-01
6.266218716e-01,8.89879e-01,9.99999e-01,9.97723e-01,8.91923e-01,9.99983e-01
6.297549810e-01,8.93165e-01,9.99999e-01,9.99164e-01,8.93940e-01,9.99967e-01
6.329037559e-01,8.94425e-01,9.99999e-01,9.98354e-01,8.95922e-01,9.99973e-01
6.360682746e-01,8.96592e-01,9.99999e-01,9.98591e-01,8.97869e-01,9.99984e-01
6.392486160e-01,8.98138e-01,9.99999e-01,9.98179e-01,8.99782e-01,9.99992e-01
6.424448591e-01,8.99436e-01,9.99999e-01,9.97544e-01,9.01660e-01,9.99987e-01
6.456570834e-01,8.93193e-01,9.99999e-01,9.88653e-01,9.03506e-01,9.99930e-01
6.488853688e-01,8.97715e-01,9.99999e-01,9.91774e-01,9.05319e-01,9.99824e-01
6.521297956e-01,8.99368e-01,9.99999e-01,9.91620e-01,9.07099e-01,9.99854e-01
6.553904446e-01,9.01126e-01,9.99999e-01,9.91610e-01,9.08848e-01,9.99891e-01
6.586673968e-01,9.04017e-01,9.99999e-01,9.92844e-01,9.10565e-01,9.99963e-01
6.619607338e-01,9.08602e-01,9.99999e-01,9.96006e-01,9.12252e-01,9.99991e-01
6.652705375e-01,9.11713e-01,9.99999e-01,9.97601e-01,9.13908e-01,9.99995e-01
6.685968902e-01,9.14602e-01,9.99999e-01,9.98980e-01,9.15535e-01,9.99998e-01
6.719398746e-01,9.16659e-01,9.99999e-01,9.99483e-01,9.17132e-01,9.99999e-01
6.752995740e-01,9.18450e-01,9.99999e-01,9.99726e-01,9.18700e-01,9.99999e-01
6.786760719e-01,9.19864e-01,9.99999e-01,9.99591e-01,9.20240e-01,9.99998e-01
6.820694522e-01,9.21102e-01,9.99999e-01,9.99297e-01,9.21752e-01,9.99995e-01
6.854797995e-01,9.22402e-01,9.99999e-01,9.99102e-01,9.23237e-01,9.99991e-01
6.889071985e-01,9.22641e-01,9.99999e-01,9.97798e-01,9.24695e-01,9.99980e-01
6.923517345e-01,8.93568e-01,9.99999e-01,9.65008e-01,9.26126e-01,9.99830e-01
6.958134932e-01,9.10532e-01,9.99999e-01,9.82041e-01,9.27531e-01,9.99624e-01
6.992925606e-01,9.12392e-01,9.99999e-01,9.82549e-01,9.28910e-01,9.99661e-01
7.027890234e-01,9.10180e-01,9.99999e-01,9.78662e-01,9.30264e-01,9.99741e-01
7.063029686e-01,9.14710e-01,9.99999e-01,9.82003e-01,9.31593e-01,9.99870e-01
7.098344834e-01,9.16711e-01,9.99999e-01,9.82722e-01,9.32898e-01,9.99923e-01
7.133836558e-01,9.12377e-01,9.99999e-01,9.76808e-01,9.34179e-01,9.99848e-01
7.169505741e-01,7.76488e-01,9.99999e-01,8.31068e-01,9.35436e-01,9.98810e-01
7.205353270e-01,8.54806e-01,9.99999e-01,9.14518e-01,9.36670e-01,9.97902e-01
7.241380036e-01,8.34035e-01,9.99999e-01,8.90888e-01,9.37881e-01,9.98188e-01
7.277586936e-01,8.44973e-01,9.99999e-01,9.01130e-01,9.39070e-01,9.98519e-01
7.313974871e-01,8.41352e-01,9.99999e-01,8.95450e-01,9.40237e-01,9.99305e-01
7.350544745e-01,8.85854e-01,9.99999e-01,9.41240e-01,9.41382e-01,9.99758e-01
7.387297469e-01,9.01284e-01,9.99999e-01,9.56368e-01,9.42506e-01,9.99889e-01
7.424233956e-01,9.23247e-01,9.99999e-01,9.78439e-01,9.43609e-01,9.99980e-01
7.461355126e-01,9.32272e-01,9.99999e-01,9.86856e-01,9.44691e-01,9.99996e-01
7.498661902e-01,9.39962e-01,9.99999e-01,9.93877e-01,9.45754e-01,9.99998e-01
7.536155211e-01,9.43940e-01,9.99999e-01,9.96983e-01,9.46796e-01,9.99998e-01
7.573835987e-01,9.46347e-01,9.99999e-01,9.98446e-01,9.47819e-01,9.99999e-01
7.611705167e-01,9.47907e-01,9.99999e-01,9.99034e-01,9.48823e-01,9.99999e-01
7.649763693e-01,9.49233e-01,9.99999e-01,9.99393e-01,9.49808e-01,9.99999e-01
7.688012511e-01,9.50373e-01,9.99999e-01,9.99577e-01,9.50775e-01,9.99999e-01
7.726452574e-01,9.51392e-01,9.99999e-01,9.99651e-01,9.51723e-01,9.99999e-01
7.765084837e-01,9.52179e-01,9.99999e-01,9.99501e-01,9.52654e-01,9.99998e-01
7.803910261e-01,9.51510e-01,9.99999e-01,9.97845e-01,9.53567e-01,9.99997e-01
7.842929812e-01,9.47288e-01,9.99999e-01,9.92496e-01,9.54463e-01,9.99985e-01
7.882144461e-01,9.40651e-01,9.99999e-01,9.84725e-01,9.55342e-01,9.99894e-01
7.921555184e-01,9.48039e-01,9.99999e-01,9.91642e-01,9.56204e-01,9.99816e-01
7.961162960e-01,9.42635e-01,9.99999e-01,9.85108e-01,9.57050e-01,9.99825e-01
8.000968774e-01,9.41328e-01,9.99999e-01,9.82901e-01,9.57881e-01,9.99814e-01
8.040973618e-01,9.42147e-01,9.99999e-01,9.82876e-01,9.58695e-01,9.99858e-01
8.081178486e-01,9.22591e-01,9.99999e-01,9.61675e-01,9.59494e-01,9.99856e-01
8.121584379e-01,8.16672e-01,9.99999e-01,8.50914e-01,9.60278e-01,9.99456e-01
8.162192301e-01,7.93730e-01,9.99999e-01,8.27589e-01,9.61047e-01,9.97959e-01
8.203003262e-01,8.73510e-01,9.99999e-01,9.10375e-01,9.61802e-01,9.97611e-01
8.244018279e-01,8.46221e-01,9.99999e-01,8.80826e-01,9.62542e-01,9.98098e-01
8.285238370e-01,8.57947e-01,9.99999e-01,8.91994e-01,9.63268e-01,9.98506e-01
8.326664562e-01,8.58860e-01,9.99999e-01,8.91502e-01,9.63980e-01,9.99381e-01
8.368297885e-01,8.88290e-01,9.99999e-01,9.20943e-01,9.64679e-01,9.99858e-01
8.410139374e-01,9.19148e-01,9.99999e-01,9.52203e-01,9.65365e-01,9.99916e-01
8.452190071e-01,9.43075e-01,9.99999e-01,9.76278e-01,9.66037e-01,9.99950e-01
8.494451021e-01,9.53234e-01,9.99999e-01,9.86112e-01,9.66697e-01,9.99959e-01
8.536923276e-01,9.59381e-01,9.99999e-01,9.91792e-01,9.67343e-01,9.99975e-01
8.579607893e-01,9.63059e-01,9.99999e-01,9.94923e-01,9.67978e-01,9.99993e-01
8.622505932e-01,9.65481e-01,9.99999e-01,9.96779e-01,9.68600e-01,9.99998e-01
8.665618462e-01,9.67272e-01,9.99999e-01,9.97999e-01,9.69211e-01,9.99998e-01
8.708946554e-01,9.67584e-01,9.99999e-01,9.97705e-01,9.69810e-01,9.99998e-01
8.752491287e-01,9.67419e-01,9.99999e-01,9.96933e-01,9.70397e-01,9.99996e-01
8.796253743e-01,9.66831e-01,9.99999e-01,9.95742e-01,9.70973e-01,9.99990e-01
8.840235012e-01,9.66792e-01,9.99999e-01,9.95142e-01,9.71539e-01,9.99970e-01
8.884436187e-01,9.54674e-01,9.99999e-01,9.82163e-01,9.72093e-01,9.99915e-01
8.928858368e-01,8.07804e-01,9.99999e-01,8.30932e-01,9.72636e-01,9.99515e-01
8.973502660e-01,7.02936e-01,9.99999e-01,7.24112e-01,9.73170e-01,9.97518e-01
9.018370173e-01,8.23703e-01,9.99999e-01,8.49268e-01,9.73692e-01,9.96101e-01
9.063462024e-01,8.38282e-01,9.99999e-01,8.63435e-01,9.74205e-01,9.96574e-01
9.108779334e-01,7.73551e-01,9.99999e-01,7.96457e-01,9.74708e-01,9.96440e-01
9.154323231e-01,7.50390e-01,9.99999e-01,7.71742e-01,9.75202e-01,9.97056e-01
9.200094847e-01,7.96189e-01,9.99999e-01,8.17377e-01,9.75685e-01,9.98351e-01
9.246095321e-01,7.15703e-01,9.99999e-01,7.34576e-01,9.76160e-01,9.98100e-01
9.292325798e-01,1.46739e-01,9.99999e-01,1.51636e-01,9.76625e-01,9.90865e-01
9.338787427e-01,8.30953e-02,9.99999e-01,8.79124e-02,9.77082e-01,9.67374e-01
9.385481364e-01,3.49672e-01,9.99999e-01,3.70986e-01,9.77529e-01,9.64213e-01
9.432408771e-01,2.49961e-01,9.99999e-01,2.63756e-01,9.77968e-01,9.69049e-01
9.479570815e-01,1.49883e-01,9.99999e-01,1.57162e-01,9.78398e-01,9.74736e-01
9.526968669e-01,2.29595e-01,9.99999e-01,2.38252e-01,9.78821e-01,9.84514e-01
9.574603512e-01,2.46665e-01,9.99999e-01,2.53901e-01,9.79235e-01,9.92103e-01
9.622476530e-01,3.13177e-01,9.99999e-01,3.21443e-01,9.79641e-01,9.94532e-01
9.670588912e-01,5.03037e-01,9.99999e-01,5.15210e-01,9.80039e-01,9.96257e-01
9.718941857e-01,6.36875e-01,9.99999e-01,6.51382e-01,9.80429e-01,9.97243e-01
9.767536566e-01,6.85140e-01,9.99999e-01,7.00017e-01,9.80812e-01,9.97892e-01
9.816374249e-01,7.52005e-01,9.99999e-01,7.66982e-01,9.81187e-01,9.99270e-01
9.865456120e-01,8.31025e-01,9.99999e-01,8.46769e-01,9.81555e-01,9.99847e-01
9.914783401e-01,8.85645e-01,9.99999e-01,9.01993e-01,9.81916e-01,9.99957e-01
9.964357318e-01,9.28590e-01,9.99999e-01,9.45373e-01,9.82270e-01,9.99974e-01
1.001417910e+00,9.50045e-01,9.99999e-01,9.66887e-01,9.82617e-01,9.99961e-01
1.006425000e+00,9.64172e-01,9.99999e-01,9.80941e-01,9.82958e-01,9.99945e-01
1.011457125e+00,9.71601e-01,9.99999e-01,9.88159e-01,9.83292e-01,9.99949e-01
1.016514411e+00,9.75652e-01,9.99999e-01,9.91935e-01,9.83619e-01,9.99964e-01
1.021596983e+00,9.77574e-01,9.99999e-01,9.93564e-01,9.83940e-01,9.99965e-01
1.026704968e+00,9.79288e-01,9.99999e-01,9.94975e-01,9.84255e-01,9.99977e-01
1.031838492e+00,9.80967e-01,9.99999e-01,9.96353e-01,9.84563e-01,9.99993e-01
1.036997685e+00,9.82726e-01,9.99999e-01,9.97827e-01,9.84866e-01,9.99998e-01
1.042182673e+00,9.82602e-01,9.99999e-01,9.97401e-01,9.85162e-01,9.99999e-01
1.047393587e+00,9.82064e-01,9.99999e-01,9.96561e-01,9.85453e-01,9.99998e-01
1.052630555e+00,9.81083e-01,9.99999e-01,9.95277e-01,9.85739e-01,9.99998e-01
1.057893707e+00,9.78243e-01,9.99999e-01,9.92116e-01,9.86018e-01,9.99996e-01
1.063183176e+00,9.73540e-01,9.99999e-01,9.87076e-01,9.86293e-01,9.99992e-01
1.068499092e+00,9.65326e-01,9.99999e-01,9.78488e-01,9.86561e-01,9.99984e-01
1.073841587e+00,9.61980e-01,9.99999e-01,9.74854e-01,9.86825e-01,9.99967e-01
1.079210795e+00,9.55383e-01,9.99999e-01,9.67968e-01,9.87084e-01,9.99912e-01
1.084606849e+00,9.39630e-01,9.99999e-01,9.51879e-01,9.87337e-01,9.99790e-01
1.090029883e+00,9.19400e-01,9.99999e-01,9.31359e-01,9.87586e-01,9.99566e-01
1.095480033e+00,8.13714e-01,9.99999e-01,8.24383e-01,9.87829e-01,9.99217e-01
1.100957433e+00,6.07940e-01,9.99999e-01,6.16168e-01,9.88068e-01,9.98559e-01
1.106462220e+00,3.03554e-01,9.99999e-01,3.07898e-01,9.88303e-01,9.97558e-01
1.111994531e+00,8.92881e-02,9.99999e-01,9.09118e-02,9.88532e-01,9.93531e-01
1.117554504e+00,2.32324e-02,9.99999e-01,2.40535e-02,9.88757e-01,9.76845e-01
1.123142276e+00,7.47995e-02,9.99999e-01,7.99537e-02,9.88978e-01,9.45959e-01
1.128757988e+00,1.55514e-01,9.99999e-01,1.67648e-01,9.89195e-01,9.37753e-01
1.134401778e+00,7.15176e-02,9.99999e-01,7.63432e-02,9.89407e-01,9.46818e-01
1.140073787e+00,3.08558e-01,9.99999e-01,3.25711e-01,9.89615e-01,9.57276e-01
1.145774156e+00,1.09688e-01,9.99999e-01,1.15335e-01,9.89819e-01,9.60821e-01
1.151503026e+00,8.84198e-02,9.99999e-01,9.13219e-02,9.90019e-01,9.77980e-01
1.157260541e+00,1.13581e-01,9.99999e-01,1.15469e-01,9.90216e-01,9.93364e-01
1.163046844e+00,1.97788e-01,9.99999e-01,2.00081e-01,9.90408e-01,9.98114e-01
1.168862078e+00,3.11699e-01,9.99999e-01,3.14964e-01,9.90596e-01,9.99028e-01
1.174706389e+00,4.83421e-01,9.99999e-01,4.88547e-01,9.90781e-01,9.98711e-01
1.180579921e+00,6.37565e-01,9.99999e-01,6.44634e-01,9.90962e-01,9.98053e-01
1.186482820e+00,7.69967e-01,9.99999e-01,7.78404e-01,9.91140e-01,9.98001e-01
1.192415234e+00,8.54664e-01,9.99999e-01,8.63443e-01,9.91314e-01,9.98503e-01
1.198377311e+00,8.74718e-01,9.99999e-01,8.83484e-01,9.91485e-01,9.98579e-01
1.204369197e+00,8.81337e-01,9.99999e-01,8.89855e-01,9.91653e-01,9.98762e-01
1.210391043e+00,8.86193e-01,9.99999e-01,8.94199e-01,9.91817e-01,9.99221e-01
1.216442998e+00,9.01712e-01,9.99999e-01,9.09437e-01,9.91978e-01,9.99522e-01
1.222525213e+00,9.20988e-01,9.99999e-01,9.28563e-01,9.92136e-01,9.99703e-01
1.228637839e+00,9.42329e-01,9.99999e-01,9.49780e-01,9.92290e-01,9.99861e-01
1.234781029e+00,9.55201e-01,9.99999e-01,9.62512e-01,9.92442e-01,9.99960e-01
1.240954934e+00,9.68863e-01,9.99999e-01,9.76105e-01,9.92591e-01,9.99988e-01
1.247159708e+00,9.74220e-01,9.99999e-01,9.81354e-01,9.92737e-01,9.99992e-01
1.253395507e+00,9.76395e-01,9.99999e-01,9.83405e-01,9.92880e-01,9.99990e-01
1.259662485e+00,9.77312e-01,9.99999e-01,9.84195e-01,9.93020e-01,9.99984e-01
1.265960797e+00,9.68232e-01,9.99999e-01,9.74926e-01,9.93157e-01,9.99975e-01
1.272290601e+00,9.54300e-01,9.99999e-01,9.60786e-01,9.93292e-01,9.99956e-01
1.278652054e+00,9.17624e-01,9.99999e-01,9.23768e-01,9.93424e-01,9.99922e-01
1.285045314e+00,8.60656e-01,9.99999e-01,8.66364e-01,9.93553e-01,9.99856e-01
1.291470541e+00,7.74025e-01,9.99999e-01,7.79143e-01,9.93680e-01,9.99747e-01
1.297927893e+00,6.97780e-01,9.99999e-01,7.02460e-01,9.93805e-01,9.99529e-01
1.304417533e+00,6.57130e-01,9.99999e-01,6.61803e-01,9.93927e-01,9.99004e-01
1.310939621e+00,5.89078e-01,9.99999e-01,5.93819e-01,9.94046e-01,9.97956e-01
1.317494319e+00,5.94699e-01,9.99999e-01,6.00457e-01,9.94163e-01,9.96224e-01
1.324081790e+00,4.68536e-01,9.99999e-01,4.74151e-01,9.94278e-01,9.93842e-01
1.330702199e+00,1.09726e-01,9.99999e-01,1.11526e-01,9.94391e-01,9.89407e-01
1.337355710e+00,1.36869e-03,9.99999e-01,1.40477e-03,9.94501e-01,9.79700e-01
1.344042489e+00,1.93809e-05,9.99999e-01,2.07275e-05,9.94610e-01,9.40098e-01
1.350762701e+00,3.75086e-15,9.99999e-01,4.65885e-15,9.94716e-01,8.09380e-01
1.357516515e+00,1.61009e-22,9.99999e-01,3.01063e-22,9.94820e-01,5.37585e-01
1.364304097e+00,2.99638e-14,9.99999e-01,8.93755e-14,9.94922e-01,3.36968e-01
1.371125618e+00,4.03346e-09,9.99999e-01,1.13040e-08,9.95022e-01,3.58600e-01
1.377981246e+00,1.46595e-08,9.99999e-01,3.54837e-08,9.95120e-01,4.15160e-01
1.384871152e+00,5.41261e-12,9.99999e-01,1.23380e-11,9.95216e-01,4.40803e-01
1.391795508e+00,2.92911e-14,9.99999e-01,6.42521e-14,9.95311e-01,4.58024e-01
1.398754485e+00,3.46773e-11,9.99999e-01,6.63996e-11,9.95403e-01,5.24662e-01
1.405748258e+00,4.82827e-11,9.99999e-01,7.07147e-11,9.95494e-01,6.85872e-01
1.412776999e+00,8.87354e-11,9.99999e-01,1.05873e-10,9.95582e-01,8.41847e-01
1.419840884e+00,1.71924e-10,9.99998e-01,1.86210e-10,9.95669e-01,9.27293e-01
1.426940089e+00,2.05994e-07,9.99998e-01,2.19082e-07,9.95755e-01,9.44265e-01
1.434074789e+00,2.21024e-06,9.99998e-01,2.37487e-06,9.95838e-01,9.34566e-01
1.441245163e+00,2.25146e-05,9.99999e-01,2.43261e-05,9.95920e-01,9.29322e-01
1.448451389e+00,6.83823e-04,9.99998e-01,7.32077e-04,9.96001e-01,9.37835e-01
1.455693646e+00,6.93561e-03,9.99999e-01,7.31945e-03,9.96080e-01,9.51286e-01
1.462972114e+00,1.01225e-02,9.99999e-01,1.06573e-02,9.96157e-01,9.53487e-01
1.470286975e+00,5.19008e-03,9.99999e-01,5.45940e-03,9.96233e-01,9.54261e-01
