#,Wave/freq,Total,N2,H2O,Rayleigh,CIA
4.000000000e-01,2.18809e-01,9.99999e-01,9.99828e-01,2.18846e-01,9.99999e-01
4.020000000e-01,2.25497e-01,9.99999e-01,9.99893e-01,2.25520e-01,9.99999e-01
4.040100000e-01,2.32243e-01,9.99999e-01,9.99954e-01,2.32253e-01,9.99999e-01
4.060300500e-01,2.39046e-01,9.99999e-01,9.99989e-01,2.39048e-01,9.99999e-01
4.080602003e-01,2.45901e-01,9.99999e-01,9.99996e-01,2.45902e-01,9.99999e-01
4.101005013e-01,2.52811e-01,9.99999e-01,9.99999e-01,2.52811e-01,9.99999e-01
4.121510038e-01,2.59770e-01,9.99999e-01,9.99993e-01,2.59772e-01,9.99999e-01
4.142117588e-01,2.66769e-01,9.99999e-01,9.99951e-01,2.66782e-01,9.99999e-01
4.162828176e-01,2.73778e-01,9.99999e-01,9.99787e-01,2.73836e-01,9.99999e-01
4.183642317e-01,2.80897e-01,9.99999e-01,9.99873e-01,2.80932e-01,9.99999e-01
4.204560528e-01,2.88045e-01,9.99999e-01,9.99922e-01,2.88067e-01,9.99999e-01
4.225583331e-01,2.95228e-01,9.99999e-01,9.99970e-01,2.95236e-01,9.99999e-01
4.246711247e-01,3.02430e-01,9.99999e-01,9.99976e-01,3.02437e-01,9.99999e-01
4.267944804e-01,3.09656e-01,9.99999e-01,9.99965e-01,3.09666e-01,9.99999e-01
4.289284528e-01,3.16912e-01,9.99999e-01,9.99973e-01,3.16920e-01,9.99999e-01
4.310730950e-01,3.24192e-01,9.99999e-01,9.99988e-01,3.24196e-01,9.99999e-01
4.332284605e-01,3.31489e-01,9.99999e-01,9.99996e-01,3.31490e-01,9.99999e-01
4.353946028e-01,3.38798e-01,9.99999e-01,9.99998e-01,3.38799e-01,9.99999e-01
4.375715758e-01,3.46113e-01,9.99999e-01,9.99978e-01,3.46120e-01,9.99999e-01
4.397594337e-01,3.53384e-01,9.99999e-01,9.99811e-01,3.53450e-01,9.99999e-01
4.419582309e-01,3.60441e-01,9.99999e-01,9.99042e-01,3.60786e-01,9.99999e-01
4.441680220e-01,3.67854e-01,9.99999e-01,9.99264e-01,3.68125e-01,9.99999e-01
4.463888621e-01,3.75175e-01,9.99999e-01,9.99230e-01,3.75464e-01,9.99999e-01
4.486208064e-01,3.82617e-01,9.99999e-01,9.99524e-01,3.82799e-01,9.99999e-01
4.508639105e-01,3.90042e-01,9.99999e-01,9.99776e-01,3.90129e-01,9.99999e-01
4.531182300e-01,3.97416e-01,9.99999e-01,9.99911e-01,3.97451e-01,9.99999e-01
4.553838212e-01,4.04736e-01,9.99999e-01,9.99939e-01,4.04761e-01,9.99999e-01
4.576607403e-01,4.12045e-01,9.99999e-01,9.99972e-01,4.12057e-01,9.99999e-01
4.599490440e-01,4.19328e-01,9.99999e-01,9.99980e-01,4.19336e-01,9.99999e-01
4.622487892e-01,4.26596e-01,9.99999e-01,9.99996e-01,4.26597e-01,9.99999e-01
4.645600332e-01,4.33830e-01,9.99999e-01,9.99985e-01,4.33836e-01,9.99999e-01
4.668828333e-01,4.40952e-01,9.99999e-01,9.99772e-01,4.41052e-01,9.99999e-01
4.692172475e-01,4.48025e-01,9.99999e-01,9.99517e-01,4.48241e-01,9.99999e-01
4.715633337e-01,4.55259e-01,9.99999e-01,9.99684e-01,4.55402e-01,9.99999e-01
4.739211504e-01,4.62394e-01,9.99999e-01,9.99698e-01,4.62533e-01,9.99999e-01
4.762907561e-01,4.69558e-01,9.99999e-01,9.99843e-01,4.69631e-01,9.99999e-01
4.786722099e-01,4.76665e-01,9.99999e-01,9.99935e-01,4.76695e-01,9.99999e-01
4.810655710e-01,4.83713e-01,9.99999e-01,9.99980e-01,4.83722e-01,9.99999e-01
4.834708988e-01,4.90619e-01,9.99999e-01,9.99811e-01,4.90712e-01,9.99999e-01
4.858882533e-01,4.97491e-01,9.99999e-01,9.99659e-01,4.97661e-01,9.99999e-01
4.883176946e-01,5.04423e-01,9.99999e-01,9.99713e-01,5.04568e-01,9.99999e-01
4.907592831e-01,5.11300e-01,9.99999e-01,9.99741e-01,5.11432e-01,9.99999e-01
4.932130795e-01,5.18156e-01,9.99999e-01,9.99816e-01,5.18250e-01,9.99999e-01
4.956791449e-01,5.24972e-01,9.99999e-01,9.99902e-01,5.25023e-01,9.99999e-01
4.981575406e-01,5.31489e-01,9.99999e-01,9.99513e-01,5.31747e-01,9.99999e-01
5.006483283e-01,5.37737e-01,9.99999e-01,9.98734e-01,5.38423e-01,9.99991e-01
5.031515699e-01,5.41546e-01,9.99999e-01,9.93641e-01,5.45048e-01,9.99932e-01
5.056673278e-01,5.49729e-01,9.99999e-01,9.96646e-01,5.51621e-01,9.99923e-01
5.081956644e-01,5.55755e-01,9.99999e-01,9.95771e-01,5.58141e-01,9.99953e-01
5.107366428e-01,5.62991e-01,9.99999e-01,9.97145e-01,5.64607e-01,9.99991e-01
5.132903260e-01,5.70087e-01,9.99999e-01,9.98369e-01,5.71018e-01,9.99998e-01
5.158567776e-01,5.76976e-01,9.99999e-01,9.99311e-01,5.77373e-01,9.99999e-01
5.184360615e-01,5.83511e-01,9.99999e-01,9.99724e-01,5.83671e-01,9.99999e-01
5.210282418e-01,5.89851e-01,9.99999e-01,9.99896e-01,5.89912e-01,9.99999e-01
5.236333830e-01,5.95845e-01,9.99999e-01,9.99584e-01,5.96094e-01,9.99996e-01
5.262515499e-01,6.02058e-01,9.99999e-01,9.99739e-01,6.02217e-01,9.99995e-01
5.288828077e-01,6.08132e-01,9.99999e-01,9.99760e-01,6.08279e-01,9.99996e-01
5.315272217e-01,6.14153e-01,9.99999e-01,9.99791e-01,6.14282e-01,9.99998e-01
5.341848578e-01,6.20138e-01,9.99999e-01,9.99862e-01,6.20223e-01,9.99999e-01
5.368557821e-01,6.25798e-01,9.99999e-01,9.99514e-01,6.26103e-01,9.99998e-01
5.395400610e-01,6.30798e-01,9.99999e-01,9.98240e-01,6.31920e-01,9.99982e-01
5.422377613e-01,6.36216e-01,9.99999e-01,9.97751e-01,6.37675e-01,9.99958e-01
5.449489501e-01,6.41988e-01,9.99999e-01,9.97896e-01,6.43368e-01,9.99957e-01
5.476736949e-01,6.47783e-01,9.99999e-01,9.98149e-01,6.48997e-01,9.99978e-01
5.504120634e-01,6.53680e-01,9.99999e-01,9.98656e-01,6.54563e-01,9.99993e-01
5.531641237e-01,6.59619e-01,9.99999e-01,9.99323e-01,6.60065e-01,9.99998e-01
5.559299443e-01,6.65287e-01,9.99999e-01,9.99673e-01,6.65504e-01,9.99999e-01
5.587095940e-01,6.70740e-01,9.99999e-01,9.99794e-01,6.70878e-01,9.99999e-01
5.615031420e-01,6.76034e-01,9.99999e-01,9.99771e-01,6.76189e-01,9.99999e-01
5.643106577e-01,6.81255e-01,9.99999e-01,9.99737e-01,6.81435e-01,9.99997e-01
5.671322110e-01,6.84410e-01,9.99999e-01,9.96812e-01,6.86617e-01,9.99971e-01
5.699678720e-01,6.89379e-01,9.99999e-01,9.96677e-01,6.91735e-01,9.99913e-01
5.728177114e-01,6.94308e-01,9.99999e-01,9.96509e-01,6.96789e-01,9.99928e-01
5.756818000e-01,6.99506e-01,9.99999e-01,9.96801e-01,7.01779e-01,9.99958e-01
5.785602090e-01,7.04730e-01,9.99999e-01,9.97216e-01,7.06706e-01,9.99987e-01
5.814530100e-01,7.09571e-01,9.99999e-01,9.97199e-01,7.11568e-01,9.99993e-01
5.843602750e-01,7.13951e-01,9.99999e-01,9.96645e-01,7.16367e-01,9.99980e-01
5.872820764e-01,7.00469e-01,9.99999e-01,9.71582e-01,7.21102e-01,9.99797e-01
5.902184868e-01,7.00533e-01,9.99999e-01,9.65751e-01,7.25775e-01,9.99448e-01
5.931695792e-01,7.12256e-01,9.99999e-01,9.75696e-01,7.30384e-01,9.99469e-01
5.961354271e-01,7.15152e-01,9.99999e-01,9.73382e-01,7.34931e-01,9.99695e-01
5.991161043e-01,7.24940e-01,9.99999e-01,9.80514e-01,7.39415e-01,9.99905e-01
6.021116848e-01,7.35579e-01,9.99999e-01,9.88907e-01,7.43838e-01,9.99989e-01
6.051222432e-01,7.43989e-01,9.99999e-01,9.94373e-01,7.48199e-01,9.99998e-01
6.081478544e-01,7.50668e-01,9.99999e-01,9.97567e-01,7.52498e-01,9.99999e-01
6.111885937e-01,7.55959e-01,9.99999e-01,9.98972e-01,7.56736e-01,9.99999e-01
6.142445367e-01,7.60565e-01,9.99999e-01,9.99540e-01,7.60914e-01,9.99999e-01
6.173157594e-01,7.64838e-01,9.99999e-01,9.99746e-01,7.65032e-01,9.99999e-01
6.204023382e-01,7.68924e-01,9.99999e-01,9.99784e-01,7.69090e-01,9.99999e-01
6.235043498e-01,7.72346e-01,9.99999e-01,9.99040e-01,7.73089e-01,9.99997e-01
6.266218716e-01,7.73109e-01,9.99999e-01,9.94989e-01,7.77029e-01,9.99964e-01
6.297549810e-01,7.79419e-01,9.99999e-01,9.98159e-01,7.80911e-01,9.99929e-01
6.329037559e-01,7.81844e-01,9.99999e-01,9.96372e-01,7.84735e-01,9.99943e-01
6.360682746e-01,7.86031e-01,9.99999e-01,9.96899e-01,7.88501e-01,9.99966e-01
6.392486160e-01,7.89023e-01,9.99999e-01,9.95990e-01,7.92211e-01,9.99984e-01
6.424448591e-01,7.91550e-01,9.99999e-01,9.94605e-01,7.95864e-01,9.99973e-01
6.456570834e-01,7.79548e-01,9.99999e-01,9.75238e-01,7.99461e-01,9.99848e-01
6.488853688e-01,7.88225e-01,9.99999e-01,9.81974e-01,8.03004e-01,9.99613e-01
6.521297956e-01,7.91441e-01,9.99999e-01,9.81651e-01,8.06491e-01,9.99680e-01
6.553904446e-01,7.94841e-01,9.99999e-01,9.81609e-01,8.09924e-01,9.99762e-01
6.586673968e-01,8.00470e-01,9.99999e-01,9.84298e-01,8.13304e-01,9.99920e-01
6.619607338e-01,8.09441e-01,9.99999e-01,9.91213e-01,8.16630e-01,9.99982e-01
6.652705375e-01,8.15566e-01,9.99999e-01,9.94716e-01,8.19904e-01,9.99990e-01
6.685968902e-01,8.21276e-01,9.99999e-01,9.97752e-01,8.23127e-01,9.99998e-01
6.719398746e-01,8.25357e-01,9.99999e-01,9.98861e-01,8.26297e-01,9.99999e-01
6.752995740e-01,8.28919e-01,9.99999e-01,9.99398e-01,8.29417e-01,9.99999e-01
6.786760719e-01,8.31737e-01,9.99999e-01,9.99099e-01,8.32487e-01,9.99998e-01
6.820694522e-01,8.34221e-01,9.99999e-01,9.98467e-01,8.35507e-01,9.99991e-01
6.854797995e-01,8.36807e-01,9.99999e-01,9.98023e-01,8.38479e-01,9.99982e-01
6.889071985e-01,8.37307e-01,9.99999e-01,9.95175e-01,8.41401e-01,9.99956e-01
6.923517345e-01,7.80629e-01,9.99999e-01,9.24958e-01,8.44276e-01,9.99626e-01
6.958134932e-01,8.13324e-01,9.99999e-01,9.60917e-01,8.47104e-01,9.99172e-01
6.992925606e-01,8.17047e-01,9.99999e-01,9.62079e-01,8.49885e-01,9.99254e-01
7.027890234e-01,8.12631e-01,9.99999e-01,9.53641e-01,8.52620e-01,9.99430e-01
7.063029686e-01,8.21532e-01,9.99999e-01,9.60780e-01,8.55309e-01,9.99716e-01
7.098344834e-01,8.25484e-01,9.99999e-01,9.62315e-01,8.57954e-01,9.99831e-01
7.133836558e-01,8.17222e-01,9.99999e-01,9.49961e-01,8.60554e-01,9.99666e-01
7.169505741e-01,5.79993e-01,9.99999e-01,6.73743e-01,8.63110e-01,9.97381e-01
7.205353270e-01,7.09874e-01,9.99999e-01,8.23873e-01,8.65624e-01,9.95384e-01
7.241380036e-01,6.73285e-01,9.99999e-01,7.78693e-01,8.68095e-01,9.96013e-01
7.277586936e-01,6.92663e-01,9.99999e-01,7.98286e-01,8.70524e-01,9.96739e-01
7.313974871e-01,6.84955e-01,9.99999e-01,7.85879e-01,8.72911e-01,9.98471e-01
7.350544745e-01,7.66121e-01,9.99999e-01,8.75773e-01,8.75258e-01,9.99468e-01
7.387297469e-01,7.95374e-01,9.99999e-01,9.06563e-01,8.77564e-01,9.99756e-01
7.424233956e-01,8.38519e-01,9.99999e-01,9.53085e-01,8.79831e-01,9.99957e-01
7.461355126e-01,8.56692e-01,9.99999e-01,9.71248e-01,8.82059e-01,9.99992e-01
7.498661902e-01,8.72339e-01,9.99999e-01,9.86533e-01,8.84248e-01,9.99996e-01
7.536155211e-01,8.80509e-01,9.99999e-01,9.93356e-01,8.86399e-01,9.99997e-01
7.573835987e-01,8.85471e-01,9.99999e-01,9.96576e-01,8.88513e-01,9.99999e-01
7.611705167e-01,8.88694e-01,9.99999e-01,9.97870e-01,8.90590e-01,9.99999e-01
7.649763693e-01,8.91438e-01,9.99999e-01,9.98663e-01,8.92631e-01,9.99999e-01
7.688012511e-01,8.93802e-01,9.99999e-01,9.99068e-01,8.94636e-01,9.99999e-01
7.726452574e-01,8.95918e-01,9.99999e-01,9.99232e-01,8.96605e-01,9.99999e-01
7.765084837e-01,8.97555e-01,9.99999e-01,9.98904e-01,8.98540e-01,9.99998e-01
7.803910261e-01,8.96176e-01,9.99999e-01,9.95267e-01,9.00441e-01,9.99994e-01
7.842929812e-01,8.87471e-01,9.99999e-01,9.83585e-01,9.02308e-01,9.99969e-01
7.882144461e-01,8.73796e-01,9.99999e-01,9.66661e-01,9.04142e-01,9.99767e-01
7.921555184e-01,8.88973e-01,9.99999e-01,9.81662e-01,9.05944e-01,9.99595e-01
7.961162960e-01,8.77944e-01,9.99999e-01,9.67575e-01,9.07713e-01,9.99615e-01
8.000968774e-01,8.75171e-01,9.99999e-01,9.62700e-01,9.09451e-01,9.99590e-01
8.040973618e-01,8.76883e-01,9.99999e-01,9.62683e-01,9.11157e-01,9.99687e-01
8.081178486e-01,8.37795e-01,9.99999e-01,9.18086e-01,9.12833e-01,9.99683e-01
8.121584379e-01,6.44605e-01,9.99999e-01,7.05730e-01,9.14479e-01,9.98803e-01
8.162192301e-01,6.06528e-01,9.99999e-01,6.65066e-01,9.16095e-01,9.95509e-01
8.203003262e-01,7.49962e-01,9.99999e-01,8.21552e-01,9.17682e-01,9.94743e-01
8.244018279e-01,7.03626e-01,9.99999e-01,7.68658e-01,9.19241e-01,9.95814e-01
8.285238370e-01,7.15857e-01,9.99999e-01,7.80018e-01,9.20771e-01,9.96711e-01
8.326664562e-01,7.17896e-01,9.99999e-01,7.79458e-01,9.22274e-01,9.98638e-01
8.368297885e-01,7.70978e-01,9.99999e-01,8.34878e-01,9.23749e-01,9.99688e-01
8.410139374e-01,8.30629e-01,9.99999e-01,8.97948e-01,9.25197e-01,9.99817e-01
8.452190071e-01,8.78773e-01,9.99999e-01,9.48467e-01,9.26619e-01,9.99890e-01
8.494451021e-01,8.99766e-01,9.99999e-01,9.69643e-01,9.28015e-01,9.99912e-01
8.536923276e-01,9.12592e-01,9.99999e-01,9.81981e-01,9.29385e-01,9.99946e-01
8.579607893e-01,9.20333e-01,9.99999e-01,9.88840e-01,9.30731e-01,9.99986e-01
8.622505932e-01,9.25440e-01,9.99999e-01,9.92908e-01,9.32051e-01,9.99997e-01
8.665618462e-01,9.29237e-01,9.99999e-01,9.95596e-01,9.33348e-01,9.99998e-01
8.708946554e-01,9.29899e-01,9.99999e-01,9.94950e-01,9.34620e-01,9.99996e-01
8.752491287e-01,9.29550e-01,9.99999e-01,9.93254e-01,9.35869e-01,9.99992e-01
8.796253743e-01,9.28315e-01,9.99999e-01,9.90649e-01,9.37095e-01,9.99978e-01
8.840235012e-01,9.28233e-01,9.99999e-01,9.89336e-01,9.38299e-01,9.99934e-01
8.884436187e-01,9.03295e-01,9.99999e-01,9.61661e-01,9.39480e-01,9.99814e-01
8.928858368e-01,6.32923e-01,9.99999e-01,6.73583e-01,9.40639e-01,9.98932e-01
8.973502660e-01,4.71851e-01,9.99999e-01,5.03772e-01,9.41777e-01,9.94539e-01
9.018370173e-01,6.60008e-01,9.99999e-01,7.06032e-01,9.42893e-01,9.91428e-01
9.063462024e-01,6.84810e-01,9.99999e-01,7.30949e-01,9.43989e-01,9.92466e-01
9.108779334e-01,5.77019e-01,9.99999e-01,6.15377e-01,9.45064e-01,9.92172e-01
9.154323231e-01,5.38620e-01,9.99999e-01,5.73002e-01,9.46120e-01,9.93525e-01
9.200094847e-01,6.13173e-01,9.99999e-01,6.49741e-01,9.47155e-01,9.96371e-01
9.246095321e-01,5.00774e-01,9.99999e-01,5.30363e-01,9.48172e-01,9.95820e-01
9.292325798e-01,3.38466e-02,9.99999e-01,3.63876e-02,9.49169e-01,9.79980e-01
9.338787427e-01,8.04224e-03,9.99999e-01,9.10609e-03,9.50147e-01,9.29509e-01
9.385481364e-01,1.28569e-01,9.99999e-01,1.46483e-01,9.51108e-01,9.22828e-01
9.432408771e-01,7.12285e-02,9.99999e-01,8.01834e-02,9.52050e-01,9.33059e-01
9.479570815e-01,2.27606e-02,9.99999e-01,2.52693e-02,9.52974e-01,9.45170e-01
9.526968669e-01,5.15722e-02,9.99999e-01,5.59575e-02,9.53881e-01,9.66190e-01
9.574603512e-01,5.95375e-02,9.99999e-01,6.34568e-02,9.54771e-01,9.82680e-01
9.622476530e-01,9.38042e-02,9.99999e-01,9.93509e-02,9.55645e-01,9.87991e-01
9.670588912e-01,2.42237e-01,9.99999e-01,2.55354e-01,9.56501e-01,9.91771e-01
9.718941857e-01,3.78800e-01,9.99999e-01,3.98092e-01,9.57342e-01,9.93936e-01
9.767536566e-01,4.42614e-01,9.99999e-01,4.64089e-01,9.58167e-01,9.95362e-01
9.816374249e-01,5.37616e-01,9.99999e-01,5.61517e-01,9.58976e-01,9.98392e-01
9.865456120e-01,6.66699e-01,9.99999e-01,6.94877e-01,9.59770e-01,9.99664e-01
9.914783401e-01,7.65612e-01,9.99999e-01,7.97131e-01,9.60548e-01,9.99906e-01
9.964357318e-01,8.49516e-01,9.99999e-01,8.83752e-01,9.61312e-01,9.99945e-01
1.001417910e+00,8.93188e-01,9.99999e-01,9.28487e-01,9.62062e-01,9.99916e-01
1.006425000e+00,9.22710e-01,9.99999e-01,9.58476e-01,9.62797e-01,9.99881e-01
1.011457125e+00,9.38435e-01,9.99999e-01,9.74072e-01,9.63518e-01,9.99889e-01
1.016514411e+00,9.47088e-01,9.99999e-01,9.82302e-01,9.64226e-01,9.99922e-01
1.021596983e+00,9.51209e-01,9.99999e-01,9.85865e-01,9.64920e-01,9.99923e-01
1.026704968e+00,9.54890e-01,9.99999e-01,9.88954e-01,9.65601e-01,9.99951e-01
1.031838492e+00,9.58499e-01,9.99999e-01,9.91973e-01,9.66269e-01,9.99985e-01
1.036997685e+00,9.62298e-01,9.99999e-01,9.95217e-01,9.66924e-01,9.99997e-01
1.042182673e+00,9.62036e-01,9.99999e-01,9.94285e-01,9.67566e-01,9.99998e-01
1.047393587e+00,9.60874e-01,9.99999e-01,9.92438e-01,9.68197e-01,9.99998e-01
1.052630555e+00,9.58764e-01,9.99999e-01,9.89628e-01,9.68815e-01,9.99996e-01
1.057893707e+00,9.52675e-01,9.99999e-01,9.82730e-01,9.69421e-01,9.99993e-01
1.063183176e+00,9.42635e-01,9.99999e-01,9.71785e-01,9.70016e-01,9.99984e-01
1.068499092e+00,9.25241e-01,9.99999e-01,9.53297e-01,9.70600e-01,9.99967e-01
1.073841587e+00,9.18349e-01,9.99999e-01,9.45675e-01,9.71172e-01,9.99929e-01
1.079210795e+00,9.04454e-01,9.99999e-01,9.30941e-01,9.71733e-01,9.99808e-01
1.084606849e+00,8.72239e-01,9.99999e-01,8.97515e-01,9.72284e-01,9.99539e-01
1.090029883e+00,8.32396e-01,9.99999e-01,8.56465e-01,9.72824e-01,9.99046e-01
1.095480033e+00,6.38411e-01,9.99999e-01,6.57020e-01,9.73353e-01,9.98275e-01
1.100957433e+00,3.46009e-01,9.99999e-01,3.56421e-01,9.73873e-01,9.96829e-01
1.106462220e+00,8.92438e-02,9.99999e-01,9.20848e-02,9.74382e-01,9.94627e-01
1.111994531e+00,7.77520e-03,9.99999e-01,8.09039e-03,9.74882e-01,9.85801e-01
1.117554504e+00,7.02609e-04,9.99999e-01,7.58516e-04,9.75372e-01,9.49681e-01
1.123142276e+00,7.56089e-03,9.99999e-01,8.75710e-03,9.75852e-01,8.84765e-01
1.128757988e+00,2.31457e-02,9.99999e-01,2.73142e-02,9.76323e-01,8.67937e-01
1.134401778e+00,1.32455e-02,9.99999e-01,1.52958e-02,9.76785e-01,8.86536e-01
1.140073787e+00,8.61256e-02,9.99999e-01,9.70333e-02,9.77239e-01,9.08259e-01
1.145774156e+00,1.44583e-02,9.99999e-01,1.61500e-02,9.77683e-01,9.15687e-01
1.151503026e+00,8.48418e-03,9.99999e-01,9.11019e-03,9.78119e-01,9.52116e-01
1.157260541e+00,1.10020e-02,9.99999e-01,1.14094e-02,9.78547e-01,9.85435e-01
1.163046844e+00,3.47710e-02,9.99999e-01,3.56661e-02,9.78966e-01,9.95850e-01
1.168862078e+00,8.49606e-02,9.99999e-01,8.69355e-02,9.79377e-01,9.97859e-01
1.174706389e+00,2.11266e-01,9.99999e-01,2.16239e-01,9.79780e-01,9.97164e-01
1.180579921e+00,3.78420e-01,9.99999e-01,3.87735e-01,9.80176e-01,9.95715e-01
1.186482820e+00,5.64539e-01,9.99999e-01,5.78272e-01,9.80563e-01,9.95602e-01
1.192415234e+00,7.08087e-01,9.99999e-01,7.24228e-01,9.80944e-01,9.96704e-01
1.198377311e+00,7.45394e-01,9.99999e-01,7.61957e-01,9.81316e-01,9.96887e-01
1.204369197e+00,7.58789e-01,9.99999e-01,7.75130e-01,9.81682e-01,9.97183e-01
1.210391043e+00,7.67347e-01,9.99999e-01,7.82721e-01,9.82041e-01,9.98285e-01
1.216442998e+00,7.97003e-01,9.99999e-01,8.12140e-01,9.82392e-01,9.98949e-01
1.222525213e+00,8.34400e-01,9.99999e-01,8.49611e-01,9.82737e-01,9.99347e-01
1.228637839e+00,8.77421e-01,9.99999e-01,8.92797e-01,9.83075e-01,9.99696e-01
1.234781029e+00,9.04006e-01,9.99999e-01,9.19338e-01,9.83407e-01,9.99912e-01
1.240954934e+00,9.32700e-01,9.99999e-01,9.48147e-01,9.83732e-01,9.99975e-01
1.247159708e+00,9.44060e-01,9.99999e-01,9.59375e-01,9.84050e-01,9.99983e-01
1.253395507e+00,9.48720e-01,9.99999e-01,9.63810e-01,9.84363e-01,9.99979e-01
1.259662485e+00,9.50700e-01,9.99999e-01,9.65532e-01,9.84669e-01,9.99967e-01
1.265960797e+00,9.31380e-01,9.99999e-01,9.45643e-01,9.84970e-01,9.99945e-01
1.272290601e+00,9.02309e-01,9.99999e-01,9.15890e-01,9.85265e-01,9.99903e-01
1.278652054e+00,8.28568e-01,9.99999e-01,8.40854e-01,9.85553e-01,9.99830e-01
1.285045314e+00,7.21745e-01,9.99999e-01,7.32345e-01,9.85837e-01,9.99683e-01
1.291470541e+00,5.74104e-01,9.99999e-01,5.82511e-01,9.86115e-01,9.99444e-01
1.297927893e+00,4.61719e-01,9.99999e-01,4.68576e-01,9.86387e-01,9.98964e-01
1.304417533e+00,4.08040e-01,9.99999e-01,4.14467e-01,9.86654e-01,9.97807e-01
1.310939621e+00,3.24262e-01,9.99999e-01,3.30045e-01,9.86916e-01,9.95503e-01
1.317494319e+00,3.31733e-01,9.99999e-01,3.38856e-01,9.87173e-01,9.91698e-01
1.324081790e+00,2.04314e-01,9.99999e-01,2.09751e-01,9.87424e-01,9.86481e-01
1.330702199e+00,2.72849e-02,9.99999e-01,2.82814e-02,9.87671e-01,9.76804e-01
1.337355710e+00,2.35404e-06,9.99999e-01,2.49301e-06,9.87913e-01,9.55810e-01
1.344042489e+00,2.79230e-09,9.99999e-01,3.23787e-09,9.88151e-01,8.72728e-01
1.350762701e+00,7.48185e-31,9.99999e-01,1.20642e-30,9.88383e-01,6.27457e-01
1.357516515e+00,5.59281e-47,9.99999e-01,2.22152e-46,9.88611e-01,2.54655e-01
1.364304097e+00,6.15857e-29,9.99999e-01,6.84649e-28,9.88835e-01,9.09677e-02
1.371125618e+00,1.80432e-17,9.99999e-01,1.74845e-16,9.89054e-01,1.04337e-01
1.377981246e+00,7.74446e-17,9.99999e-01,5.43330e-16,9.89269e-01,1.44083e-01
1.384871152e+00,9.94624e-24,9.99999e-01,6.11328e-23,9.89480e-01,1.64428e-01
1.391795508e+00,3.97082e-29,9.99999e-01,2.24246e-28,9.89687e-01,1.78919e-01
1.398754485e+00,3.92186e-22,9.99999e-01,1.64150e-21,9.89890e-01,2.41359e-01
1.405748258e+00,7.21065e-22,9.99999e-01,1.67183e-21,9.90088e-01,4.35621e-01
1.412776999e+00,4.42421e-21,9.99998e-01,6.52902e-21,9.90283e-01,6.84270e-01
1.419840884e+00,7.87026e-21,9.99998e-01,9.38411e-21,9.90474e-01,8.46744e-01
1.426940089e+00,1.18402e-13,9.99998e-01,1.35620e-13,9.90661e-01,8.81275e-01
1.434074789e+00,3.84228e-12,9.99998e-01,4.50145e-12,9.90845e-01,8.61450e-01
1.441245163e+00,4.90002e-10,9.99998e-01,5.81124e-10,9.91025e-01,8.50832e-01
1.448451389e+00,8.75807e-07,9.99997e-01,1.01783e-06,9.91201e-01,8.68105e-01
1.455693646e+00,7.61448e-05,9.99998e-01,8.57431e-05,9.91374e-01,8.95782e-01
1.462972114e+00,1.01674e-04,9.99999e-01,1.13889e-04,9.91544e-01,9.00356e-01
1.470286975e+00,3.30422e-05,9.99999e-01,3.69396e-05,9.91710e-01,9.01967e-01
