#,Wave/freq,Total,N2,H2O,Rayleigh,CIA
4.000000000e-01,7.81956e-01,9.99999e-01,9.99971e-01,7.81977e-01,9.99999e-01
4.020000000e-01,7.85776e-01,9.99999e-01,9.99982e-01,7.85789e-01,9.99999e-01
4.040100000e-01,7.89534e-01,9.99999e-01,9.99992e-01,7.89540e-01,9.99999e-01
4.060300500e-01,7.93232e-01,9.99999e-01,9.99997e-01,7.93233e-01,9.99999e-01
4.080602003e-01,7.96871e-01,9.99999e-01,9.99998e-01,7.96871e-01,9.99999e-01
4.101005013e-01,8.00453e-01,9.99999e-01,9.99999e-01,8.00453e-01,9.99999e-01
4.121510038e-01,8.03979e-01,9.99999e-01,9.99998e-01,8.03980e-01,9.99999e-01
4.142117588e-01,8.07446e-01,9.99999e-01,9.99991e-01,8.07452e-01,9.99999e-01
4.162828176e-01,8.10843e-01,9.99999e-01,9.99965e-01,8.10871e-01,9.99999e-01
4.183642317e-01,8.14219e-01,9.99999e-01,9.99979e-01,8.14235e-01,9.99999e-01
4.204560528e-01,8.17537e-01,9.99999e-01,9.99987e-01,8.17547e-01,9.99999e-01
4.225583331e-01,8.20803e-01,9.99999e-01,9.99994e-01,8.20807e-01,9.99999e-01
4.246711247e-01,8.24011e-01,9.99999e-01,9.99995e-01,8.24015e-01,9.99999e-01
4.267944804e-01,8.27167e-01,9.99999e-01,9.99994e-01,8.27171e-01,9.99999e-01
4.289284528e-01,8.30274e-01,9.99999e-01,9.99995e-01,8.30277e-01,9.99999e-01
4.310730950e-01,8.33332e-01,9.99999e-01,9.99997e-01,8.33333e-01,9.99999e-01
4.332284605e-01,8.36339e-01,9.99999e-01,9.99999e-01,8.36339e-01,9.99999e-01
4.353946028e-01,8.39297e-01,9.99999e-01,9.99999e-01,8.39297e-01,9.99999e-01
4.375715758e-01,8.42204e-01,9.99999e-01,9.99996e-01,8.42206e-01,9.99999e-01
4.397594337e-01,8.45042e-01,9.99999e-01,9.99969e-01,8.45068e-01,9.99999e-01
4.419582309e-01,8.47751e-01,9.99999e-01,9.99844e-01,8.47883e-01,9.99999e-01
4.441680220e-01,8.50550e-01,9.99999e-01,9.99880e-01,8.50651e-01,9.99999e-01
4.463888621e-01,8.53267e-01,9.99999e-01,9.99875e-01,8.53373e-01,9.99999e-01
4.486208064e-01,8.55984e-01,9.99999e-01,9.99922e-01,8.56050e-01,9.99999e-01
4.508639105e-01,8.58651e-01,9.99999e-01,9.99963e-01,8.58682e-01,9.99999e-01
4.531182300e-01,8.61258e-01,9.99999e-01,9.99985e-01,8.61270e-01,9.99999e-01
4.553838212e-01,8.63806e-01,9.99999e-01,9.99989e-01,8.63815e-01,9.99999e-01
4.576607403e-01,8.66312e-01,9.99999e-01,9.99995e-01,8.66316e-01,9.99999e-01
4.599490440e-01,8.68772e-01,9.99999e-01,9.99996e-01,8.68775e-01,9.99999e-01
4.622487892e-01,8.71192e-01,9.99999e-01,9.99998e-01,8.71192e-01,9.99999e-01
4.645600332e-01,8.73567e-01,9.99999e-01,9.99997e-01,8.73569e-01,9.99999e-01
4.668828333e-01,8.75872e-01,9.99999e-01,9.99962e-01,8.75904e-01,9.99999e-01
4.692172475e-01,8.78131e-01,9.99999e-01,9.99921e-01,8.78199e-01,9.99999e-01
4.715633337e-01,8.80410e-01,9.99999e-01,9.99948e-01,8.80455e-01,9.99999e-01
4.739211504e-01,8.82629e-01,9.99999e-01,9.99950e-01,8.82672e-01,9.99999e-01
4.762907561e-01,8.84829e-01,9.99999e-01,9.99974e-01,8.84851e-01,9.99999e-01
4.786722099e-01,8.86982e-01,9.99999e-01,9.99989e-01,8.86992e-01,9.99999e-01
4.810655710e-01,8.89092e-01,9.99999e-01,9.99996e-01,8.89095e-01,9.99999e-01
4.834708988e-01,8.91135e-01,9.99999e-01,9.99968e-01,8.91162e-01,9.99999e-01
4.858882533e-01,8.93143e-01,9.99999e-01,9.99944e-01,8.93192e-01,9.99999e-01
4.883176946e-01,8.95146e-01,9.99999e-01,9.99953e-01,8.95187e-01,9.99999e-01
4.907592831e-01,8.97110e-01,9.99999e-01,9.99957e-01,8.97147e-01,9.99999e-01
4.932130795e-01,8.99046e-01,9.99999e-01,9.99969e-01,8.99073e-01,9.99999e-01
4.956791449e-01,9.00950e-01,9.99999e-01,9.99983e-01,9.00964e-01,9.99999e-01
4.981575406e-01,9.02751e-01,9.99999e-01,9.99920e-01,9.02822e-01,9.99999e-01
5.006483283e-01,9.04460e-01,9.99999e-01,9.99794e-01,9.04647e-01,9.99998e-01
5.031515699e-01,9.05493e-01,9.99999e-01,9.98965e-01,9.06439e-01,9.99988e-01
5.056673278e-01,9.07695e-01,9.99999e-01,9.99455e-01,9.08200e-01,9.99987e-01
5.081956644e-01,9.09298e-01,9.99999e-01,9.99314e-01,9.09929e-01,9.99991e-01
5.107366428e-01,9.11204e-01,9.99999e-01,9.99536e-01,9.11627e-01,9.99998e-01
5.132903260e-01,9.13053e-01,9.99999e-01,9.99735e-01,9.13294e-01,9.99999e-01
5.158567776e-01,9.14830e-01,9.99999e-01,9.99888e-01,9.14932e-01,9.99999e-01
5.184360615e-01,9.16499e-01,9.99999e-01,9.99954e-01,9.16540e-01,9.99999e-01
5.210282418e-01,9.18104e-01,9.99999e-01,9.99982e-01,9.18119e-01,9.99999e-01
5.236333830e-01,9.19608e-01,9.99999e-01,9.99932e-01,9.19670e-01,9.99999e-01
5.262515499e-01,9.21153e-01,9.99999e-01,9.99957e-01,9.21192e-01,9.99998e-01
5.288828077e-01,9.22651e-01,9.99999e-01,9.99960e-01,9.22687e-01,9.99999e-01
5.315272217e-01,9.24123e-01,9.99999e-01,9.99965e-01,9.24155e-01,9.99999e-01
5.341848578e-01,9.25575e-01,9.99999e-01,9.99977e-01,9.25596e-01,9.99999e-01
5.368557821e-01,9.26937e-01,9.99999e-01,9.99920e-01,9.27010e-01,9.99999e-01
5.395400610e-01,9.28131e-01,9.99999e-01,9.99713e-01,9.28399e-01,9.99996e-01
5.422377613e-01,9.29418e-01,9.99999e-01,9.99635e-01,9.29762e-01,9.99992e-01
5.449489501e-01,9.30777e-01,9.99999e-01,9.99658e-01,9.31101e-01,9.99992e-01
5.476736949e-01,9.32132e-01,9.99999e-01,9.99699e-01,9.32415e-01,9.99996e-01
5.504120634e-01,9.33500e-01,9.99999e-01,9.99782e-01,9.33704e-01,9.99998e-01
5.531641237e-01,9.34868e-01,9.99999e-01,9.99890e-01,9.34970e-01,9.99999e-01
5.559299443e-01,9.36164e-01,9.99999e-01,9.99946e-01,9.36213e-01,9.99999e-01
5.587095940e-01,9.37401e-01,9.99999e-01,9.99966e-01,9.37433e-01,9.99999e-01
5.615031420e-01,9.38595e-01,9.99999e-01,9.99962e-01,9.38630e-01,9.99999e-01
5.643106577e-01,9.39764e-01,9.99999e-01,9.99957e-01,9.39805e-01,9.99999e-01
5.671322110e-01,9.40465e-01,9.99999e-01,9.99480e-01,9.40958e-01,9.99994e-01
5.699678720e-01,9.41570e-01,9.99999e-01,9.99461e-01,9.42090e-01,9.99985e-01
5.728177114e-01,9.42656e-01,9.99999e-01,9.99433e-01,9.43200e-01,9.99987e-01
5.756818000e-01,9.43795e-01,9.99999e-01,9.99481e-01,9.44290e-01,9.99992e-01
5.785602090e-01,9.44932e-01,9.99999e-01,9.99548e-01,9.45360e-01,9.99997e-01
5.814530100e-01,9.45979e-01,9.99999e-01,9.99545e-01,9.46410e-01,9.99998e-01
5.843602750e-01,9.46921e-01,9.99999e-01,9.99454e-01,9.47440e-01,9.99996e-01
5.872820764e-01,9.43973e-01,9.99999e-01,9.95310e-01,9.48451e-01,9.99966e-01
5.902184868e-01,9.44012e-01,9.99999e-01,9.94367e-01,9.49443e-01,9.99910e-01
5.931695792e-01,9.46541e-01,9.99999e-01,9.96007e-01,9.50417e-01,9.99913e-01
5.961354271e-01,9.47171e-01,9.99999e-01,9.95633e-01,9.51372e-01,9.99950e-01
5.991161043e-01,9.49264e-01,9.99999e-01,9.96817e-01,9.52309e-01,9.99984e-01
6.021116848e-01,9.51507e-01,9.99999e-01,9.98195e-01,9.53229e-01,9.99997e-01
6.051222432e-01,9.53260e-01,9.99999e-01,9.99086e-01,9.54131e-01,9.99999e-01
6.081478544e-01,9.54640e-01,9.99999e-01,9.99605e-01,9.55016e-01,9.99999e-01
6.111885937e-01,9.55726e-01,9.99999e-01,9.99833e-01,9.55885e-01,9.99999e-01
6.142445367e-01,9.56666e-01,9.99999e-01,9.99925e-01,9.56737e-01,9.99999e-01
6.173157594e-01,9.57534e-01,9.99999e-01,9.99958e-01,9.57573e-01,9.99999e-01
6.204023382e-01,9.58360e-01,9.99999e-01,9.99964e-01,9.58393e-01,9.99999e-01
6.235043498e-01,9.59048e-01,9.99999e-01,9.99843e-01,9.59198e-01,9.99999e-01
6.266218716e-01,9.59202e-01,9.99999e-01,9.99186e-01,9.59988e-01,9.99993e-01
6.297549810e-01,9.60465e-01,9.99999e-01,9.99701e-01,9.60762e-01,9.99988e-01
6.329037559e-01,9.60948e-01,9.99999e-01,9.99411e-01,9.61522e-01,9.99990e-01
6.360682746e-01,9.61779e-01,9.99999e-01,9.99496e-01,9.62268e-01,9.99994e-01
6.392486160e-01,9.62371e-01,9.99999e-01,9.99349e-01,9.62999e-01,9.99997e-01
6.424448591e-01,9.62867e-01,9.99999e-01,9.99122e-01,9.63717e-01,9.99995e-01
6.456570834e-01,9.60474e-01,9.99999e-01,9.95932e-01,9.64420e-01,9.99975e-01
6.488853688e-01,9.62205e-01,9.99999e-01,9.97051e-01,9.65111e-01,9.99936e-01
6.521297956e-01,9.62836e-01,9.99999e-01,9.96994e-01,9.65788e-01,9.99947e-01
6.553904446e-01,9.63512e-01,9.99999e-01,9.96995e-01,9.66452e-01,9.99961e-01
6.586673968e-01,9.64613e-01,9.99999e-01,9.97436e-01,9.67104e-01,9.99986e-01
6.619607338e-01,9.66358e-01,9.99999e-01,9.98571e-01,9.67743e-01,9.99996e-01
6.652705375e-01,9.67539e-01,9.99999e-01,9.99142e-01,9.68370e-01,9.99998e-01
6.685968902e-01,9.68632e-01,9.99999e-01,9.99635e-01,9.68985e-01,9.99999e-01
6.719398746e-01,9.69409e-01,9.99999e-01,9.99815e-01,9.69588e-01,9.99999e-01
6.752995740e-01,9.70085e-01,9.99999e-01,9.99902e-01,9.70180e-01,9.99999e-01
6.786760719e-01,9.70618e-01,9.99999e-01,9.99853e-01,9.70760e-01,9.99999e-01
6.820694522e-01,9.71087e-01,9.99999e-01,9.99751e-01,9.71329e-01,9.99998e-01
6.854797995e-01,9.71573e-01,9.99999e-01,9.99679e-01,9.71887e-01,9.99996e-01
6.889071985e-01,9.71664e-01,9.99999e-01,9.99213e-01,9.72435e-01,9.99992e-01
6.923517345e-01,9.60591e-01,9.99999e-01,9.87333e-01,9.72972e-01,9.99938e-01
6.958134932e-01,9.67064e-01,9.99999e-01,9.93522e-01,9.73499e-01,9.99865e-01
6.992925606e-01,9.67789e-01,9.99999e-01,9.93726e-01,9.74015e-01,9.99878e-01
7.027890234e-01,9.66946e-01,9.99999e-01,9.92316e-01,9.74522e-01,9.99907e-01
7.063029686e-01,9.68668e-01,9.99999e-01,9.93531e-01,9.75019e-01,9.99953e-01
7.098344834e-01,9.69426e-01,9.99999e-01,9.93793e-01,9.75506e-01,9.99972e-01
7.133836558e-01,9.67774e-01,9.99999e-01,9.91641e-01,9.75984e-01,9.99945e-01
7.169505741e-01,9.12648e-01,9.99999e-01,9.35052e-01,9.76453e-01,9.99574e-01
7.205353270e-01,9.45156e-01,9.99999e-01,9.68217e-01,9.76913e-01,9.99250e-01
7.241380036e-01,9.36885e-01,9.99999e-01,9.59204e-01,9.77363e-01,9.99352e-01
7.277586936e-01,9.41274e-01,9.99999e-01,9.63148e-01,9.77806e-01,9.99470e-01
7.313974871e-01,9.39936e-01,9.99999e-01,9.61082e-01,9.78239e-01,9.99751e-01
7.350544745e-01,9.57562e-01,9.99999e-01,9.78521e-01,9.78664e-01,9.99913e-01
7.387297469e-01,9.63537e-01,9.99999e-01,9.84162e-01,9.79081e-01,9.99960e-01
7.424233956e-01,9.71881e-01,9.99999e-01,9.92237e-01,9.79490e-01,9.99992e-01
7.461355126e-01,9.75269e-01,9.99999e-01,9.95283e-01,9.79891e-01,9.99998e-01
7.498661902e-01,9.78135e-01,9.99999e-01,9.97807e-01,9.80284e-01,9.99999e-01
7.536155211e-01,9.79612e-01,9.99999e-01,9.98921e-01,9.80670e-01,9.99999e-01
7.573835987e-01,9.80504e-01,9.99999e-01,9.99444e-01,9.81048e-01,9.99999e-01
7.611705167e-01,9.81081e-01,9.99999e-01,9.99654e-01,9.81419e-01,9.99999e-01
7.649763693e-01,9.81570e-01,9.99999e-01,9.99783e-01,9.81783e-01,9.99999e-01
7.688012511e-01,9.81991e-01,9.99999e-01,9.99848e-01,9.82139e-01,9.99999e-01
7.726452574e-01,9.82367e-01,9.99999e-01,9.99875e-01,9.82489e-01,9.99999e-01
7.765084837e-01,9.82657e-01,9.99999e-01,9.99821e-01,9.82832e-01,9.99999e-01
7.803910261e-01,9.82411e-01,9.99999e-01,9.99230e-01,9.83168e-01,9.99998e-01
7.842929812e-01,9.80852e-01,9.99999e-01,9.97313e-01,9.83498e-01,9.99994e-01
7.882144461e-01,9.78389e-01,9.99999e-01,9.94515e-01,9.83821e-01,9.99961e-01
7.921555184e-01,9.81126e-01,9.99999e-01,9.97004e-01,9.84138e-01,9.99934e-01
7.961162960e-01,9.79125e-01,9.99999e-01,9.94653e-01,9.84449e-01,9.99937e-01
8.000968774e-01,9.78642e-01,9.99999e-01,9.93859e-01,9.84754e-01,9.99933e-01
8.040973618e-01,9.78945e-01,9.99999e-01,9.93849e-01,9.85053e-01,9.99948e-01
8.081178486e-01,9.71606e-01,9.99999e-01,9.86105e-01,9.85346e-01,9.99948e-01
8.121584379e-01,9.29691e-01,9.99999e-01,9.43425e-01,9.85633e-01,9.99805e-01
8.162192301e-01,9.19971e-01,9.99999e-01,9.33794e-01,9.85915e-01,9.99270e-01
8.203003262e-01,9.51834e-01,9.99999e-01,9.65986e-01,9.86191e-01,9.99146e-01
8.244018279e-01,9.40331e-01,9.99999e-01,9.53883e-01,9.86462e-01,9.99320e-01
8.285238370e-01,9.46472e-01,9.99999e-01,9.59714e-01,9.86727e-01,9.99466e-01
8.326664562e-01,9.46750e-01,9.99999e-01,9.59442e-01,9.86988e-01,9.99778e-01
8.368297885e-01,9.58472e-01,9.99999e-01,9.70905e-01,9.87243e-01,9.99949e-01
8.410139374e-01,9.70305e-01,9.99999e-01,9.82622e-01,9.87494e-01,9.99970e-01
8.452190071e-01,9.79281e-01,9.99999e-01,9.91453e-01,9.87739e-01,9.99981e-01
8.494451021e-01,9.83043e-01,9.99999e-01,9.95017e-01,9.87980e-01,9.99985e-01
8.536923276e-01,9.85302e-01,9.99999e-01,9.97059e-01,9.88216e-01,9.99990e-01
8.579607893e-01,9.86650e-01,9.99999e-01,9.98183e-01,9.88447e-01,9.99997e-01
8.622505932e-01,9.87536e-01,9.99999e-01,9.98848e-01,9.88674e-01,9.99999e-01
8.665618462e-01,9.88190e-01,9.99999e-01,9.99285e-01,9.88897e-01,9.99999e-01
8.708946554e-01,9.88303e-01,9.99999e-01,9.99179e-01,9.89115e-01,9.99999e-01
8.752491287e-01,9.88243e-01,9.99999e-01,9.98903e-01,9.89328e-01,9.99998e-01
8.796253743e-01,9.88029e-01,9.99999e-01,9.98477e-01,9.89538e-01,9.99996e-01
8.840235012e-01,9.88014e-01,9.99999e-01,9.98262e-01,9.89744e-01,9.99988e-01
8.884436187e-01,9.83551e-01,9.99999e-01,9.93570e-01,9.89945e-01,9.99969e-01
8.928858368e-01,9.25639e-01,9.99999e-01,9.35015e-01,9.90143e-01,9.99826e-01
8.973502660e-01,8.79500e-01,9.99999e-01,8.88869e-01,9.90337e-01,9.99112e-01
9.018370173e-01,9.31846e-01,9.99999e-01,9.42071e-01,9.90527e-01,9.98605e-01
9.063462024e-01,9.38099e-01,9.99999e-01,9.48053e-01,9.90713e-01,9.98775e-01
9.108779334e-01,9.11000e-01,9.99999e-01,9.20541e-01,9.90895e-01,9.98727e-01
9.154323231e-01,9.01288e-01,9.99999e-01,9.10361e-01,9.91074e-01,9.98947e-01
9.200094847e-01,9.20602e-01,9.99999e-01,9.29275e-01,9.91250e-01,9.99410e-01
9.246095321e-01,8.81998e-01,9.99999e-01,8.90232e-01,9.91422e-01,9.99321e-01
9.292325798e-01,4.62173e-01,9.99999e-01,4.67622e-01,9.91591e-01,9.96728e-01
9.338787427e-01,3.71679e-01,9.99999e-01,3.79233e-01,9.91756e-01,9.88226e-01
9.385481364e-01,6.61783e-01,9.99999e-01,6.75913e-01,9.91918e-01,9.87072e-01
9.432408771e-01,5.69290e-01,9.99999e-01,5.80313e-01,9.92077e-01,9.88836e-01
9.479570815e-01,4.66553e-01,9.99999e-01,4.74520e-01,9.92233e-01,9.90905e-01
9.526968669e-01,5.62672e-01,9.99999e-01,5.70157e-01,9.92386e-01,9.94442e-01
9.574603512e-01,5.86042e-01,9.99999e-01,5.92122e-01,9.92536e-01,9.97173e-01
9.622476530e-01,6.46379e-01,9.99999e-01,6.52419e-01,9.92683e-01,9.98044e-01
9.670588912e-01,7.74474e-01,9.99999e-01,7.81113e-01,9.92827e-01,9.98661e-01
9.718941857e-01,8.49219e-01,9.99999e-01,8.56076e-01,9.92968e-01,9.99014e-01
9.767536566e-01,8.72195e-01,9.99999e-01,8.78910e-01,9.93106e-01,9.99246e-01
9.816374249e-01,9.02544e-01,9.99999e-01,9.08921e-01,9.93242e-01,9.99738e-01
9.865456120e-01,9.35785e-01,9.99999e-01,9.42077e-01,9.93375e-01,9.99945e-01
9.914783401e-01,9.57492e-01,9.99999e-01,9.63765e-01,9.93505e-01,9.99984e-01
9.964357318e-01,9.73861e-01,9.99999e-01,9.80109e-01,9.93633e-01,9.99990e-01
1.001417910e+00,9.81858e-01,9.99999e-01,9.88037e-01,9.93758e-01,9.99986e-01
1.006425000e+00,9.87055e-01,9.99999e-01,9.93150e-01,9.93881e-01,9.99980e-01
1.011457125e+00,9.89764e-01,9.99999e-01,9.95753e-01,9.94002e-01,9.99981e-01
1.016514411e+00,9.91237e-01,9.99999e-01,9.97111e-01,9.94120e-01,9.99986e-01
1.021596983e+00,9.91934e-01,9.99999e-01,9.97696e-01,9.94236e-01,9.99987e-01
1.026704968e+00,9.92555e-01,9.99999e-01,9.98202e-01,9.94349e-01,9.99991e-01
1.031838492e+00,9.93162e-01,9.99999e-01,9.98695e-01,9.94461e-01,9.99997e-01
1.036997685e+00,9.93798e-01,9.99999e-01,9.99223e-01,9.94570e-01,9.99999e-01
1.042182673e+00,9.93753e-01,9.99999e-01,9.99071e-01,9.94677e-01,9.99999e-01
1.047393587e+00,9.93559e-01,9.99999e-01,9.98770e-01,9.94781e-01,9.99999e-01
1.052630555e+00,9.93204e-01,9.99999e-01,9.98311e-01,9.94884e-01,9.99999e-01
1.057893707e+00,9.92176e-01,9.99999e-01,9.97177e-01,9.94985e-01,9.99998e-01
1.063183176e+00,9.90468e-01,9.99999e-01,9.95363e-01,9.95084e-01,9.99997e-01
1.068499092e+00,9.87470e-01,9.99999e-01,9.92257e-01,9.95181e-01,9.99994e-01
1.073841587e+00,9.86235e-01,9.99999e-01,9.90927e-01,9.95276e-01,9.99988e-01
1.079210795e+00,9.83815e-01,9.99999e-01,9.88422e-01,9.95369e-01,9.99968e-01
1.084606849e+00,9.77963e-01,9.99999e-01,9.82496e-01,9.95460e-01,9.99924e-01
1.090029883e+00,9.70325e-01,9.99999e-01,9.74812e-01,9.95549e-01,9.99845e-01
1.095480033e+00,9.28646e-01,9.99999e-01,9.32975e-01,9.95637e-01,9.99720e-01
1.100957433e+00,8.34644e-01,9.99999e-01,8.38659e-01,9.95723e-01,9.99485e-01
1.106462220e+00,6.38013e-01,9.99999e-01,6.41258e-01,9.95807e-01,9.99127e-01
1.111994531e+00,3.94899e-01,9.99999e-01,3.97448e-01,9.95890e-01,9.97685e-01
1.117554504e+00,2.25134e-01,9.99999e-01,2.27943e-01,9.95971e-01,9.91669e-01
1.123142276e+00,3.38712e-01,9.99999e-01,3.46867e-01,9.96050e-01,9.80359e-01
1.128757988e+00,4.85356e-01,9.99999e-01,4.98552e-01,9.96128e-01,9.77313e-01
1.134401778e+00,2.53881e-01,9.99999e-01,2.59869e-01,9.96205e-01,9.80676e-01
1.140073787e+00,6.43351e-01,9.99999e-01,6.55899e-01,9.96279e-01,9.84530e-01
1.145774156e+00,4.14502e-01,9.99999e-01,4.21998e-01,9.96353e-01,9.85830e-01
1.151503026e+00,3.79767e-01,9.99999e-01,3.84171e-01,9.96425e-01,9.92081e-01
1.157260541e+00,4.40167e-01,9.99999e-01,4.42766e-01,9.96495e-01,9.97625e-01
1.163046844e+00,5.44941e-01,9.99999e-01,5.47187e-01,9.96564e-01,9.99326e-01
1.168862078e+00,6.53383e-01,9.99999e-01,6.55818e-01,9.96632e-01,9.99652e-01
1.174706389e+00,7.67728e-01,9.99999e-01,7.70625e-01,9.96698e-01,9.99539e-01
1.180579921e+00,8.49828e-01,9.99999e-01,8.53180e-01,9.96763e-01,9.99304e-01
1.186482820e+00,9.10470e-01,9.99999e-01,9.14019e-01,9.96827e-01,9.99285e-01
1.192415234e+00,9.45372e-01,9.99999e-01,9.48828e-01,9.96890e-01,9.99464e-01
1.198377311e+00,9.53229e-01,9.99999e-01,9.56628e-01,9.96951e-01,9.99492e-01
1.204369197e+00,9.55676e-01,9.99999e-01,9.58964e-01,9.97011e-01,9.99557e-01
1.210391043e+00,9.57638e-01,9.99999e-01,9.60718e-01,9.97070e-01,9.99721e-01
1.216442998e+00,9.63612e-01,9.99999e-01,9.66551e-01,9.97128e-01,9.99829e-01
1.222525213e+00,9.70993e-01,9.99999e-01,9.73837e-01,9.97185e-01,9.99893e-01
1.228637839e+00,9.78993e-01,9.99999e-01,9.81750e-01,9.97240e-01,9.99950e-01
1.234781029e+00,9.83751e-01,9.99999e-01,9.86432e-01,9.97294e-01,9.99985e-01
1.240954934e+00,9.88761e-01,9.99999e-01,9.91393e-01,9.97348e-01,9.99995e-01
1.247159708e+00,9.90714e-01,9.99999e-01,9.93297e-01,9.97400e-01,9.99996e-01
1.253395507e+00,9.91504e-01,9.99999e-01,9.94040e-01,9.97451e-01,9.99996e-01
1.259662485e+00,9.91837e-01,9.99999e-01,9.94326e-01,9.97502e-01,9.99994e-01
1.265960797e+00,9.88531e-01,9.99999e-01,9.90965e-01,9.97551e-01,9.99990e-01
1.272290601e+00,9.83417e-01,9.99999e-01,9.85798e-01,9.97599e-01,9.99984e-01
1.278652054e+00,9.69660e-01,9.99999e-01,9.71973e-01,9.97647e-01,9.99972e-01
1.285045314e+00,9.47466e-01,9.99999e-01,9.49705e-01,9.97693e-01,9.99948e-01
1.291470541e+00,9.11864e-01,9.99999e-01,9.14012e-01,9.97738e-01,9.99909e-01
1.297927893e+00,8.77909e-01,9.99999e-01,8.80006e-01,9.97783e-01,9.99831e-01
1.304417533e+00,8.58321e-01,9.99999e-01,8.60495e-01,9.97827e-01,9.99644e-01
1.310939621e+00,8.24638e-01,9.99999e-01,8.27001e-01,9.97870e-01,9.99269e-01
1.317494319e+00,8.27240e-01,9.99999e-01,8.30091e-01,9.97912e-01,9.98649e-01
1.324081790e+00,7.56971e-01,9.99999e-01,7.60198e-01,9.97953e-01,9.97796e-01
1.330702199e+00,3.52392e-01,9.99999e-01,3.54445e-01,9.97993e-01,9.96204e-01
1.337355710e+00,6.55075e-02,9.99999e-01,6.61190e-02,9.98033e-01,9.92703e-01
1.344042489e+00,2.70814e-03,9.99999e-01,2.77388e-03,9.98072e-01,9.78185e-01
1.350762701e+00,1.46670e-06,9.99999e-01,1.58474e-06,9.98110e-01,9.27268e-01
1.357516515e+00,3.49476e-09,9.99999e-01,4.36986e-09,9.98147e-01,8.01226e-01
1.364304097e+00,3.72318e-06,9.99999e-01,5.50021e-06,9.98183e-01,6.78147e-01
1.371125618e+00,2.26216e-04,9.99999e-01,3.26832e-04,9.98219e-01,6.93381e-01
1.377981246e+00,6.69648e-04,9.99999e-01,9.18168e-04,9.98254e-01,7.30604e-01
1.384871152e+00,1.06062e-05,9.99999e-01,1.42340e-05,9.98289e-01,7.46408e-01
1.391795508e+00,5.15824e-06,9.99999e-01,6.82828e-06,9.98323e-01,7.56691e-01
1.398754485e+00,5.05834e-05,9.99999e-01,6.37881e-05,9.98356e-01,7.94295e-01
1.405748258e+00,4.93750e-05,9.99999e-01,5.65818e-05,9.98388e-01,8.74037e-01
1.412776999e+00,5.30894e-05,9.99999e-01,5.65444e-05,9.98420e-01,9.40381e-01
1.419840884e+00,1.06235e-04,9.99999e-01,1.09306e-04,9.98451e-01,9.73407e-01
1.426940089e+00,8.57000e-04,9.99999e-01,8.76058e-04,9.98482e-01,9.79731e-01
1.434074789e+00,4.27937e-03,9.99999e-01,4.39056e-03,9.98512e-01,9.76126e-01
1.441245163e+00,1.29303e-02,9.99999e-01,1.32926e-02,9.98541e-01,9.74167e-01
1.448451389e+00,4.73011e-02,9.99999e-01,4.84668e-02,9.98570e-01,9.77344e-01
1.455693646e+00,1.27364e-01,9.99999e-01,1.29837e-01,9.98598e-01,9.82326e-01
1.462972114e+00,1.64362e-01,9.99999e-01,1.67411e-01,9.98626e-01,9.83137e-01
1.470286975e+00,1.23354e-01,9.99999e-01,1.25602e-01,9.98653e-01,9.83422e-01
