#,Wave/freq,Total,N2,H2O,Rayleigh,CIA
4.000000000e-01,8.62770e-01,9.99999e-01,9.99982e-01,8.62784e-01,9.99999e-01
4.020000000e-01,8.65297e-01,9.99999e-01,9.99989e-01,8.65306e-01,9.99999e-01
4.040100000e-01,8.67778e-01,9.99999e-01,9.99995e-01,8.67782e-01,9.99999e-01
4.060300500e-01,8.70215e-01,9.99999e-01,9.99998e-01,8.70216e-01,9.99999e-01
4.080602003e-01,8.72608e-01,9.99999e-01,9.99999e-01,8.72609e-01,9.99999e-01
4.101005013e-01,8.74961e-01,9.99999e-01,9.99999e-01,8.74961e-01,9.99999e-01
4.121510038e-01,8.77272e-01,9.99999e-01,9.99998e-01,8.77272e-01,9.99999e-01
4.142117588e-01,8.79540e-01,9.99999e-01,9.99994e-01,8.79544e-01,9.99999e-01
4.162828176e-01,8.81759e-01,9.99999e-01,9.99978e-01,8.81777e-01,9.99999e-01
4.183642317e-01,8.83960e-01,9.99999e-01,9.99987e-01,8.83971e-01,9.99999e-01
4.204560528e-01,8.86120e-01,9.99999e-01,9.99991e-01,8.86127e-01,9.99999e-01
4.225583331e-01,8.88243e-01,9.99999e-01,9.99996e-01,8.88245e-01,9.99999e-01
4.246711247e-01,8.90325e-01,9.99999e-01,9.99997e-01,8.90327e-01,9.99999e-01
4.267944804e-01,8.92369e-01,9.99999e-01,9.99996e-01,8.92372e-01,9.99999e-01
4.289284528e-01,8.94379e-01,9.99999e-01,9.99996e-01,8.94382e-01,9.99999e-01
4.310730950e-01,8.96355e-01,9.99999e-01,9.99998e-01,8.96356e-01,9.99999e-01
4.332284605e-01,8.98295e-01,9.99999e-01,9.99999e-01,8.98295e-01,9.99999e-01
4.353946028e-01,9.00200e-01,9.99999e-01,9.99999e-01,9.00200e-01,9.99999e-01
4.375715758e-01,9.02070e-01,9.99999e-01,9.99997e-01,9.02072e-01,9.99999e-01
4.397594337e-01,9.03894e-01,9.99999e-01,9.99981e-01,9.03910e-01,9.99999e-01
4.419582309e-01,9.05632e-01,9.99999e-01,9.99907e-01,9.05715e-01,9.99999e-01
4.441680220e-01,9.07424e-01,9.99999e-01,9.99927e-01,9.07489e-01,9.99999e-01
4.463888621e-01,9.09163e-01,9.99999e-01,9.99924e-01,9.09231e-01,9.99999e-01
4.486208064e-01,9.10899e-01,9.99999e-01,9.99953e-01,9.10941e-01,9.99999e-01
4.508639105e-01,9.12601e-01,9.99999e-01,9.99977e-01,9.12621e-01,9.99999e-01
4.531182300e-01,9.14263e-01,9.99999e-01,9.99990e-01,9.14271e-01,9.99999e-01
4.553838212e-01,9.15885e-01,9.99999e-01,9.99993e-01,9.15891e-01,9.99999e-01
4.576607403e-01,9.17479e-01,9.99999e-01,9.99996e-01,9.17482e-01,9.99999e-01
4.599490440e-01,9.19042e-01,9.99999e-01,9.99997e-01,9.19044e-01,9.99999e-01
4.622487892e-01,9.20577e-01,9.99999e-01,9.99999e-01,9.20577e-01,9.99999e-01
4.645600332e-01,9.22082e-01,9.99999e-01,9.99998e-01,9.22083e-01,9.99999e-01
4.668828333e-01,9.23542e-01,9.99999e-01,9.99977e-01,9.23562e-01,9.99999e-01
4.692172475e-01,9.24970e-01,9.99999e-01,9.99952e-01,9.25014e-01,9.99999e-01
4.715633337e-01,9.26411e-01,9.99999e-01,9.99968e-01,9.26439e-01,9.99999e-01
4.739211504e-01,9.27811e-01,9.99999e-01,9.99970e-01,9.27838e-01,9.99999e-01
4.762907561e-01,9.29198e-01,9.99999e-01,9.99984e-01,9.29212e-01,9.99999e-01
4.786722099e-01,9.30555e-01,9.99999e-01,9.99993e-01,9.30560e-01,9.99999e-01
4.810655710e-01,9.31882e-01,9.99999e-01,9.99997e-01,9.31884e-01,9.99999e-01
4.834708988e-01,9.33167e-01,9.99999e-01,9.99981e-01,9.33184e-01,9.99999e-01
4.858882533e-01,9.34428e-01,9.99999e-01,9.99966e-01,9.34459e-01,9.99999e-01
4.883176946e-01,9.35685e-01,9.99999e-01,9.99971e-01,9.35711e-01,9.99999e-01
4.907592831e-01,9.36917e-01,9.99999e-01,9.99974e-01,9.36940e-01,9.99999e-01
4.932130795e-01,9.38130e-01,9.99999e-01,9.99981e-01,9.38146e-01,9.99999e-01
4.956791449e-01,9.39321e-01,9.99999e-01,9.99990e-01,9.39330e-01,9.99999e-01
4.981575406e-01,9.40448e-01,9.99999e-01,9.99952e-01,9.40492e-01,9.99999e-01
5.006483283e-01,9.41517e-01,9.99999e-01,9.99877e-01,9.41633e-01,9.99998e-01
5.031515699e-01,9.42162e-01,9.99999e-01,9.99380e-01,9.42752e-01,9.99993e-01
5.056673278e-01,9.43535e-01,9.99999e-01,9.99672e-01,9.43850e-01,9.99992e-01
5.081956644e-01,9.44534e-01,9.99999e-01,9.99587e-01,9.44928e-01,9.99994e-01
5.107366428e-01,9.45722e-01,9.99999e-01,9.99721e-01,9.45986e-01,9.99998e-01
5.132903260e-01,9.46874e-01,9.99999e-01,9.99840e-01,9.47024e-01,9.99999e-01
5.158567776e-01,9.47979e-01,9.99999e-01,9.99932e-01,9.48043e-01,9.99999e-01
5.184360615e-01,9.49017e-01,9.99999e-01,9.99972e-01,9.49043e-01,9.99999e-01
5.210282418e-01,9.50014e-01,9.99999e-01,9.99989e-01,9.50024e-01,9.99999e-01
5.236333830e-01,9.50947e-01,9.99999e-01,9.99959e-01,9.50986e-01,9.99999e-01
5.262515499e-01,9.51906e-01,9.99999e-01,9.99974e-01,9.51931e-01,9.99999e-01
5.288828077e-01,9.52835e-01,9.99999e-01,9.99976e-01,9.52857e-01,9.99999e-01
5.315272217e-01,9.53747e-01,9.99999e-01,9.99979e-01,9.53767e-01,9.99999e-01
5.341848578e-01,9.54646e-01,9.99999e-01,9.99986e-01,9.54659e-01,9.99999e-01
5.368557821e-01,9.55489e-01,9.99999e-01,9.99952e-01,9.55534e-01,9.99999e-01
5.395400610e-01,9.56230e-01,9.99999e-01,9.99830e-01,9.56393e-01,9.99998e-01
5.422377613e-01,9.57022e-01,9.99999e-01,9.99780e-01,9.57236e-01,9.99995e-01
5.449489501e-01,9.57863e-01,9.99999e-01,9.99795e-01,9.58062e-01,9.99995e-01
5.476736949e-01,9.58698e-01,9.99999e-01,9.99819e-01,9.58873e-01,9.99997e-01
5.504120634e-01,9.59543e-01,9.99999e-01,9.99868e-01,9.59669e-01,9.99998e-01
5.531641237e-01,9.60386e-01,9.99999e-01,9.99933e-01,9.60450e-01,9.99999e-01
5.559299443e-01,9.61185e-01,9.99999e-01,9.99967e-01,9.61216e-01,9.99999e-01
5.587095940e-01,9.61948e-01,9.99999e-01,9.99979e-01,9.61967e-01,9.99999e-01
5.615031420e-01,9.62683e-01,9.99999e-01,9.99977e-01,9.62704e-01,9.99999e-01
5.643106577e-01,9.63403e-01,9.99999e-01,9.99974e-01,9.63427e-01,9.99999e-01
5.671322110e-01,9.63839e-01,9.99999e-01,9.99693e-01,9.64136e-01,9.99996e-01
5.699678720e-01,9.64510e-01,9.99999e-01,9.99673e-01,9.64832e-01,9.99991e-01
5.728177114e-01,9.65181e-01,9.99999e-01,9.99660e-01,9.65515e-01,9.99992e-01
5.756818000e-01,9.65879e-01,9.99999e-01,9.99688e-01,9.66184e-01,9.99995e-01
5.785602090e-01,9.66577e-01,9.99999e-01,9.99728e-01,9.66841e-01,9.99998e-01
5.814530100e-01,9.67221e-01,9.99999e-01,9.99727e-01,9.67485e-01,9.99998e-01
5.843602750e-01,9.67801e-01,9.99999e-01,9.99674e-01,9.68117e-01,9.99997e-01
5.872820764e-01,9.66007e-01,9.99999e-01,9.97200e-01,9.68737e-01,9.99979e-01
5.902184868e-01,9.66006e-01,9.99999e-01,9.96608e-01,9.69345e-01,9.99945e-01
5.931695792e-01,9.67567e-01,9.99999e-01,9.97603e-01,9.69941e-01,9.99948e-01
5.961354271e-01,9.67948e-01,9.99999e-01,9.97373e-01,9.70526e-01,9.99969e-01
5.991161043e-01,9.69231e-01,9.99999e-01,9.98084e-01,9.71099e-01,9.99990e-01
6.021116848e-01,9.70605e-01,9.99999e-01,9.98912e-01,9.71662e-01,9.99998e-01
6.051222432e-01,9.71679e-01,9.99999e-01,9.99449e-01,9.72214e-01,9.99999e-01
6.081478544e-01,9.72525e-01,9.99999e-01,9.99762e-01,9.72755e-01,9.99999e-01
6.111885937e-01,9.73189e-01,9.99999e-01,9.99899e-01,9.73286e-01,9.99999e-01
6.142445367e-01,9.73763e-01,9.99999e-01,9.99954e-01,9.73807e-01,9.99999e-01
6.173157594e-01,9.74293e-01,9.99999e-01,9.99974e-01,9.74317e-01,9.99999e-01
6.204023382e-01,9.74798e-01,9.99999e-01,9.99978e-01,9.74818e-01,9.99999e-01
6.235043498e-01,9.75220e-01,9.99999e-01,9.99907e-01,9.75310e-01,9.99999e-01
6.266218716e-01,9.75312e-01,9.99999e-01,9.99511e-01,9.75791e-01,9.99996e-01
6.297549810e-01,9.76082e-01,9.99999e-01,9.99820e-01,9.76264e-01,9.99992e-01
6.329037559e-01,9.76376e-01,9.99999e-01,9.99645e-01,9.76727e-01,9.99994e-01
6.360682746e-01,9.76884e-01,9.99999e-01,9.99698e-01,9.77181e-01,9.99996e-01
6.392486160e-01,9.77244e-01,9.99999e-01,9.99609e-01,9.77627e-01,9.99998e-01
6.424448591e-01,9.77551e-01,9.99999e-01,9.99477e-01,9.78064e-01,9.99997e-01
6.456570834e-01,9.76108e-01,9.99999e-01,9.97575e-01,9.78493e-01,9.99986e-01
6.488853688e-01,9.77138e-01,9.99999e-01,9.98223e-01,9.78913e-01,9.99961e-01
6.521297956e-01,9.77522e-01,9.99999e-01,9.98189e-01,9.79325e-01,9.99968e-01
6.553904446e-01,9.77942e-01,9.99999e-01,9.98198e-01,9.79729e-01,9.99976e-01
6.586673968e-01,9.78606e-01,9.99999e-01,9.98456e-01,9.80126e-01,9.99991e-01
6.619607338e-01,9.79638e-01,9.99999e-01,9.99107e-01,9.80514e-01,9.99997e-01
6.652705375e-01,9.80389e-01,9.99999e-01,9.99483e-01,9.80896e-01,9.99998e-01
6.685968902e-01,9.81034e-01,9.99999e-01,9.99759e-01,9.81269e-01,9.99999e-01
6.719398746e-01,9.81527e-01,9.99999e-01,9.99888e-01,9.81636e-01,9.99999e-01
6.752995740e-01,9.81936e-01,9.99999e-01,9.99939e-01,9.81995e-01,9.99999e-01
6.786760719e-01,9.82262e-01,9.99999e-01,9.99912e-01,9.82348e-01,9.99999e-01
6.820694522e-01,9.82546e-01,9.99999e-01,9.99850e-01,9.82693e-01,9.99998e-01
6.854797995e-01,9.82842e-01,9.99999e-01,9.99807e-01,9.83032e-01,9.99997e-01
6.889071985e-01,9.82904e-01,9.99999e-01,9.99535e-01,9.83365e-01,9.99995e-01
6.923517345e-01,9.76203e-01,9.99999e-01,9.92424e-01,9.83690e-01,9.99963e-01
6.958134932e-01,9.80047e-01,9.99999e-01,9.96052e-01,9.84010e-01,9.99919e-01
6.992925606e-01,9.80564e-01,9.99999e-01,9.96252e-01,9.84323e-01,9.99927e-01
7.027890234e-01,9.80021e-01,9.99999e-01,9.95373e-01,9.84631e-01,9.99944e-01
7.063029686e-01,9.81074e-01,9.99999e-01,9.96109e-01,9.84932e-01,9.99971e-01
7.098344834e-01,9.81534e-01,9.99999e-01,9.96267e-01,9.85227e-01,9.99983e-01
7.133836558e-01,9.80585e-01,9.99999e-01,9.95027e-01,9.85517e-01,9.99967e-01
7.169505741e-01,9.46681e-01,9.99999e-01,9.60561e-01,9.85801e-01,9.99744e-01
7.205353270e-01,9.66430e-01,9.99999e-01,9.80513e-01,9.86079e-01,9.99549e-01
7.241380036e-01,9.61644e-01,9.99999e-01,9.75328e-01,9.86352e-01,9.99611e-01
7.277586936e-01,9.64322e-01,9.99999e-01,9.77708e-01,9.86620e-01,9.99682e-01
7.313974871e-01,9.63373e-01,9.99999e-01,9.76321e-01,9.86883e-01,9.99850e-01
7.350544745e-01,9.74265e-01,9.99999e-01,9.87007e-01,9.87140e-01,9.99947e-01
7.387297469e-01,9.77919e-01,9.99999e-01,9.90428e-01,9.87393e-01,9.99975e-01
7.424233956e-01,9.83002e-01,9.99999e-01,9.95307e-01,9.87640e-01,9.99994e-01
7.461355126e-01,9.85072e-01,9.99999e-01,9.97154e-01,9.87883e-01,9.99998e-01
7.498661902e-01,9.86811e-01,9.99999e-01,9.98674e-01,9.88121e-01,9.99999e-01
7.536155211e-01,9.87711e-01,9.99999e-01,9.99349e-01,9.88354e-01,9.99999e-01
7.573835987e-01,9.88252e-01,9.99999e-01,9.99665e-01,9.88583e-01,9.99999e-01
7.611705167e-01,9.88601e-01,9.99999e-01,9.99791e-01,9.88807e-01,9.99999e-01
7.649763693e-01,9.88898e-01,9.99999e-01,9.99869e-01,9.89027e-01,9.99999e-01
7.688012511e-01,9.89152e-01,9.99999e-01,9.99908e-01,9.89242e-01,9.99999e-01
7.726452574e-01,9.89380e-01,9.99999e-01,9.99924e-01,9.89454e-01,9.99999e-01
7.765084837e-01,9.89556e-01,9.99999e-01,9.99893e-01,9.89661e-01,9.99999e-01
7.803910261e-01,9.89410e-01,9.99999e-01,9.99541e-01,9.89864e-01,9.99999e-01
7.842929812e-01,9.88477e-01,9.99999e-01,9.98399e-01,9.90063e-01,9.99996e-01
7.882144461e-01,9.86976e-01,9.99999e-01,9.96704e-01,9.90258e-01,9.99979e-01
7.921555184e-01,9.88621e-01,9.99999e-01,9.98191e-01,9.90450e-01,9.99960e-01
7.961162960e-01,9.87437e-01,9.99999e-01,9.96806e-01,9.90638e-01,9.99962e-01
8.000968774e-01,9.87128e-01,9.99999e-01,9.96311e-01,9.90822e-01,9.99959e-01
8.040973618e-01,9.87315e-01,9.99999e-01,9.96310e-01,9.91002e-01,9.99967e-01
8.081178486e-01,9.82919e-01,9.99999e-01,9.91695e-01,9.91179e-01,9.99969e-01
8.121584379e-01,9.57309e-01,9.99999e-01,9.65770e-01,9.91353e-01,9.99883e-01
8.162192301e-01,9.50908e-01,9.99999e-01,9.59457e-01,9.91523e-01,9.99562e-01
8.203003262e-01,9.70920e-01,9.99999e-01,9.79558e-01,9.91689e-01,9.99487e-01
8.244018279e-01,9.63173e-01,9.99999e-01,9.71479e-01,9.91853e-01,9.99591e-01
8.285238370e-01,9.67538e-01,9.99999e-01,9.75639e-01,9.92013e-01,9.99679e-01
8.326664562e-01,9.67603e-01,9.99999e-01,9.75367e-01,9.92170e-01,9.99867e-01
8.368297885e-01,9.74794e-01,9.99999e-01,9.82363e-01,9.92324e-01,9.99969e-01
8.410139374e-01,9.82027e-01,9.99999e-01,9.89489e-01,9.92475e-01,9.99981e-01
8.452190071e-01,9.87487e-01,9.99999e-01,9.94835e-01,9.92623e-01,9.99988e-01
8.494451021e-01,9.89784e-01,9.99999e-01,9.97002e-01,9.92768e-01,9.99991e-01
8.536923276e-01,9.91145e-01,9.99999e-01,9.98226e-01,9.92911e-01,9.99994e-01
8.579607893e-01,9.91965e-01,9.99999e-01,9.98907e-01,9.93050e-01,9.99998e-01
8.622505932e-01,9.92498e-01,9.99999e-01,9.99305e-01,9.93187e-01,9.99999e-01
8.665618462e-01,9.92895e-01,9.99999e-01,9.99570e-01,9.93321e-01,9.99999e-01
8.708946554e-01,9.92964e-01,9.99999e-01,9.99508e-01,9.93453e-01,9.99999e-01
8.752491287e-01,9.92928e-01,9.99999e-01,9.99342e-01,9.93582e-01,9.99998e-01
8.796253743e-01,9.92802e-01,9.99999e-01,9.99089e-01,9.93708e-01,9.99997e-01
8.840235012e-01,9.92792e-01,9.99999e-01,9.98959e-01,9.93832e-01,9.99993e-01
8.884436187e-01,9.90167e-01,9.99999e-01,9.96208e-01,9.93953e-01,9.99981e-01
8.928858368e-01,9.54850e-01,9.99999e-01,9.60643e-01,9.94072e-01,9.99895e-01
8.973502660e-01,9.25438e-01,9.99999e-01,9.31342e-01,9.94189e-01,9.99467e-01
9.018370173e-01,9.58039e-01,9.99999e-01,9.64334e-01,9.94303e-01,9.99163e-01
9.063462024e-01,9.62465e-01,9.99999e-01,9.68581e-01,9.94416e-01,9.99264e-01
9.108779334e-01,9.45487e-01,9.99999e-01,9.51417e-01,9.94526e-01,9.99235e-01
9.154323231e-01,9.39352e-01,9.99999e-01,9.45016e-01,9.94633e-01,9.99368e-01
9.200094847e-01,9.51286e-01,9.99999e-01,9.56655e-01,9.94739e-01,9.99646e-01
9.246095321e-01,9.27623e-01,9.99999e-01,9.32811e-01,9.94843e-01,9.99592e-01
9.292325798e-01,6.23099e-01,9.99999e-01,6.27260e-01,9.94944e-01,9.98412e-01
9.338787427e-01,5.41285e-01,9.99999e-01,5.47564e-01,9.95044e-01,9.93456e-01
9.385481364e-01,7.74596e-01,9.99999e-01,7.84478e-01,9.95142e-01,9.92222e-01
9.432408771e-01,7.04636e-01,9.99999e-01,7.12792e-01,9.95237e-01,9.93286e-01
9.479570815e-01,6.20182e-01,9.99999e-01,6.26515e-01,9.95331e-01,9.94532e-01
9.526968669e-01,6.99277e-01,9.99999e-01,7.04845e-01,9.95423e-01,9.96661e-01
9.574603512e-01,7.21333e-01,9.99999e-01,7.25815e-01,9.95513e-01,9.98302e-01
9.622476530e-01,7.66350e-01,9.99999e-01,7.70640e-01,9.95602e-01,9.98825e-01
9.670588912e-01,8.56261e-01,9.99999e-01,8.60659e-01,9.95688e-01,9.99196e-01
9.718941857e-01,9.06215e-01,9.99999e-01,9.10599e-01,9.95773e-01,9.99408e-01
9.767536566e-01,9.20969e-01,9.99999e-01,9.25217e-01,9.95857e-01,9.99547e-01
9.816374249e-01,9.40069e-01,9.99999e-01,9.44050e-01,9.95938e-01,9.99843e-01
9.865456120e-01,9.60811e-01,9.99999e-01,9.64682e-01,9.96018e-01,9.99966e-01
9.914783401e-01,9.74204e-01,9.99999e-01,9.78029e-01,9.96097e-01,9.99990e-01
9.964357318e-01,9.84193e-01,9.99999e-01,9.87977e-01,9.96174e-01,9.99994e-01
1.001417910e+00,9.89048e-01,9.99999e-01,9.92779e-01,9.96249e-01,9.99991e-01
1.006425000e+00,9.92206e-01,9.99999e-01,9.95878e-01,9.96323e-01,9.99988e-01
1.011457125e+00,9.93835e-01,9.99999e-01,9.97440e-01,9.96396e-01,9.99988e-01
1.016514411e+00,9.94727e-01,9.99999e-01,9.98261e-01,9.96467e-01,9.99991e-01
1.021596983e+00,9.95149e-01,9.99999e-01,9.98614e-01,9.96536e-01,9.99991e-01
1.026704968e+00,9.95523e-01,9.99999e-01,9.98919e-01,9.96605e-01,9.99994e-01
1.031838492e+00,9.95888e-01,9.99999e-01,9.99214e-01,9.96672e-01,9.99998e-01
1.036997685e+00,9.96272e-01,9.99999e-01,9.99533e-01,9.96737e-01,9.99999e-01
1.042182673e+00,9.96247e-01,9.99999e-01,9.99443e-01,9.96801e-01,9.99999e-01
1.047393587e+00,9.96130e-01,9.99999e-01,9.99262e-01,9.96865e-01,9.99999e-01
1.052630555e+00,9.95918e-01,9.99999e-01,9.98987e-01,9.96926e-01,9.99999e-01
1.057893707e+00,9.95303e-01,9.99999e-01,9.98310e-01,9.96987e-01,9.99998e-01
1.063183176e+00,9.94275e-01,9.99999e-01,9.97221e-01,9.97046e-01,9.99998e-01
1.068499092e+00,9.92465e-01,9.99999e-01,9.95349e-01,9.97105e-01,9.99996e-01
1.073841587e+00,9.91729e-01,9.99999e-01,9.94558e-01,9.97162e-01,9.99992e-01
1.079210795e+00,9.90250e-01,9.99999e-01,9.93031e-01,9.97218e-01,9.99980e-01
1.084606849e+00,9.86724e-01,9.99999e-01,9.89466e-01,9.97273e-01,9.99954e-01
1.090029883e+00,9.82176e-01,9.99999e-01,9.84899e-01,9.97326e-01,9.99906e-01
1.095480033e+00,9.56703e-01,9.99999e-01,9.59377e-01,9.97379e-01,9.99831e-01
1.100957433e+00,8.97308e-01,9.99999e-01,8.99896e-01,9.97431e-01,9.99690e-01
1.106462220e+00,7.62317e-01,9.99999e-01,7.64641e-01,9.97481e-01,9.99475e-01
1.111994531e+00,5.66489e-01,9.99999e-01,5.68681e-01,9.97531e-01,9.98610e-01
1.117554504e+00,3.98249e-01,9.99999e-01,4.01224e-01,9.97580e-01,9.94992e-01
1.123142276e+00,5.03605e-01,9.99999e-01,5.10846e-01,9.97627e-01,9.88167e-01
1.128757988e+00,6.40024e-01,9.99999e-01,6.50410e-01,9.97674e-01,9.86324e-01
1.134401778e+00,3.84096e-01,9.99999e-01,3.89507e-01,9.97720e-01,9.88359e-01
1.140073787e+00,7.64858e-01,9.99999e-01,7.73775e-01,9.97765e-01,9.90688e-01
1.145774156e+00,5.79370e-01,9.99999e-01,5.85635e-01,9.97809e-01,9.91473e-01
1.151503026e+00,5.47069e-01,9.99999e-01,5.50868e-01,9.97852e-01,9.95240e-01
1.157260541e+00,6.06162e-01,9.99999e-01,6.08307e-01,9.97895e-01,9.98574e-01
1.163046844e+00,6.90856e-01,9.99999e-01,6.92564e-01,9.97936e-01,9.99595e-01
1.168862078e+00,7.73156e-01,9.99999e-01,7.74884e-01,9.97977e-01,9.99791e-01
1.174706389e+00,8.52453e-01,9.99999e-01,8.54382e-01,9.98017e-01,9.99723e-01
1.180579921e+00,9.06488e-01,9.99999e-01,9.08632e-01,9.98056e-01,9.99582e-01
1.186482820e+00,9.45114e-01,9.99999e-01,9.47323e-01,9.98094e-01,9.99571e-01
1.192415234e+00,9.66807e-01,9.99999e-01,9.68926e-01,9.98132e-01,9.99678e-01
1.198377311e+00,9.71670e-01,9.99999e-01,9.73746e-01,9.98169e-01,9.99696e-01
1.204369197e+00,9.73117e-01,9.99999e-01,9.75133e-01,9.98205e-01,9.99725e-01
1.210391043e+00,9.74332e-01,9.99999e-01,9.76211e-01,9.98240e-01,9.99832e-01
1.216442998e+00,9.77938e-01,9.99999e-01,9.79727e-01,9.98275e-01,9.99897e-01
1.222525213e+00,9.82461e-01,9.99999e-01,9.84186e-01,9.98309e-01,9.99936e-01
1.228637839e+00,9.87327e-01,9.99999e-01,9.88995e-01,9.98342e-01,9.99969e-01
1.234781029e+00,9.90198e-01,9.99999e-01,9.91817e-01,9.98375e-01,9.99991e-01
1.240954934e+00,9.93233e-01,9.99999e-01,9.94819e-01,9.98407e-01,9.99997e-01
1.247159708e+00,9.94408e-01,9.99999e-01,9.95964e-01,9.98439e-01,9.99997e-01
1.253395507e+00,9.94890e-01,9.99999e-01,9.96416e-01,9.98469e-01,9.99997e-01
1.259662485e+00,9.95098e-01,9.99999e-01,9.96596e-01,9.98500e-01,9.99996e-01
1.265960797e+00,9.93097e-01,9.99999e-01,9.94564e-01,9.98529e-01,9.99994e-01
1.272290601e+00,9.90035e-01,9.99999e-01,9.91473e-01,9.98558e-01,9.99990e-01
1.278652054e+00,9.81702e-01,9.99999e-01,9.83106e-01,9.98587e-01,9.99983e-01
1.285045314e+00,9.68174e-01,9.99999e-01,9.69546e-01,9.98614e-01,9.99968e-01
1.291470541e+00,9.46185e-01,9.99999e-01,9.47522e-01,9.98642e-01,9.99945e-01
1.297927893e+00,9.30751e-01,9.99999e-01,9.32085e-01,9.98669e-01,9.99898e-01
1.304417533e+00,9.12068e-01,9.99999e-01,9.13454e-01,9.98695e-01,9.99786e-01
1.310939621e+00,8.99942e-01,9.99999e-01,9.01488e-01,9.98721e-01,9.99561e-01
1.317494319e+00,8.91803e-01,9.99999e-01,8.93646e-01,9.98746e-01,9.99189e-01
1.324081790e+00,8.42849e-01,9.99999e-01,8.45003e-01,9.98771e-01,9.98677e-01
1.330702199e+00,5.06901e-01,9.99999e-01,5.08671e-01,9.98795e-01,9.97720e-01
1.337355710e+00,1.78092e-01,9.99999e-01,1.79088e-01,9.98819e-01,9.95615e-01
1.344042489e+00,1.37800e-02,9.99999e-01,1.39797e-02,9.98842e-01,9.86852e-01
1.350762701e+00,1.54007e-04,9.99999e-01,1.61329e-04,9.98865e-01,9.55700e-01
1.357516515e+00,4.89356e-06,9.99999e-01,5.59576e-06,9.98887e-01,8.75485e-01
1.364304097e+00,2.98729e-04,9.99999e-01,3.77541e-04,9.98909e-01,7.92112e-01
1.371125618e+00,3.93394e-03,9.99999e-01,4.90587e-03,9.98931e-01,8.02742e-01
1.377981246e+00,9.01274e-03,9.99999e-01,1.08920e-02,9.98952e-01,8.28330e-01
1.384871152e+00,3.50397e-04,9.99999e-01,4.18047e-04,9.98972e-01,8.39035e-01
1.391795508e+00,4.37495e-04,9.99999e-01,5.17684e-04,9.98993e-01,8.45952e-01
1.398754485e+00,1.52512e-03,9.99999e-01,1.75286e-03,9.99012e-01,8.70933e-01
1.405748258e+00,1.46679e-03,9.99999e-01,1.59174e-03,9.99032e-01,9.22391e-01
1.412776999e+00,1.61413e-03,9.99999e-01,1.67637e-03,9.99051e-01,9.63787e-01
1.419840884e+00,2.57301e-03,9.99999e-01,2.61740e-03,9.99070e-01,9.83957e-01
1.426940089e+00,9.20243e-03,9.99999e-01,9.32469e-03,9.99088e-01,9.87788e-01
1.434074789e+00,2.78428e-02,9.99999e-01,2.82746e-02,9.99106e-01,9.85605e-01
1.441245163e+00,6.38459e-02,9.99999e-01,6.49133e-02,9.99124e-01,9.84417e-01
1.448451389e+00,1.40939e-01,9.99999e-01,1.43013e-01,9.99141e-01,9.86343e-01
1.455693646e+00,2.73467e-01,9.99999e-01,2.76642e-01,9.99158e-01,9.89357e-01
1.462972114e+00,3.27539e-01,9.99999e-01,3.31172e-01,9.99175e-01,9.89847e-01
1.470286975e+00,2.72370e-01,9.99999e-01,2.75338e-01,9.99191e-01,9.90019e-01
