#,Wave/freq,Total,N2,H2O,Rayleigh,CIA
4.000000000e-01,6.71591e-01,9.99999e-01,9.99954e-01,6.71621e-01,9.99999e-01
4.020000000e-01,6.76910e-01,9.99999e-01,9.99971e-01,6.76928e-01,9.99999e-01
4.040100000e-01,6.82158e-01,9.99999e-01,9.99987e-01,6.82166e-01,9.99999e-01
4.060300500e-01,6.87337e-01,9.99999e-01,9.99996e-01,6.87339e-01,9.99999e-01
4.080602003e-01,6.92448e-01,9.99999e-01,9.99998e-01,6.92448e-01,9.99999e-01
4.101005013e-01,6.97493e-01,9.99999e-01,9.99999e-01,6.97493e-01,9.99999e-01
4.121510038e-01,7.02473e-01,9.99999e-01,9.99997e-01,7.02474e-01,9.99999e-01
4.142117588e-01,7.07383e-01,9.99999e-01,9.99987e-01,7.07392e-01,9.99999e-01
4.162828176e-01,7.12206e-01,9.99999e-01,9.99943e-01,7.12245e-01,9.99999e-01
4.183642317e-01,7.17011e-01,9.99999e-01,9.99966e-01,7.17035e-01,9.99999e-01
4.204560528e-01,7.21747e-01,9.99999e-01,9.99979e-01,7.21762e-01,9.99999e-01
4.225583331e-01,7.26420e-01,9.99999e-01,9.99991e-01,7.26425e-01,9.99999e-01
4.246711247e-01,7.31021e-01,9.99999e-01,9.99993e-01,7.31026e-01,9.99999e-01
4.267944804e-01,7.35557e-01,9.99999e-01,9.99990e-01,7.35564e-01,9.99999e-01
4.289284528e-01,7.40034e-01,9.99999e-01,9.99992e-01,7.40040e-01,9.99999e-01
4.310730950e-01,7.44451e-01,9.99999e-01,9.99996e-01,7.44453e-01,9.99999e-01
4.332284605e-01,7.48805e-01,9.99999e-01,9.99998e-01,7.48805e-01,9.99999e-01
4.353946028e-01,7.53096e-01,9.99999e-01,9.99999e-01,7.53096e-01,9.99999e-01
4.375715758e-01,7.57322e-01,9.99999e-01,9.99993e-01,7.57326e-01,9.99999e-01
4.397594337e-01,7.61458e-01,9.99999e-01,9.99950e-01,7.61496e-01,9.99999e-01
4.419582309e-01,7.65414e-01,9.99999e-01,9.99750e-01,7.65605e-01,9.99999e-01
4.441680220e-01,7.69506e-01,9.99999e-01,9.99806e-01,7.69655e-01,9.99999e-01
4.463888621e-01,7.73489e-01,9.99999e-01,9.99798e-01,7.73645e-01,9.99999e-01
4.486208064e-01,7.77480e-01,9.99999e-01,9.99874e-01,7.77577e-01,9.99999e-01
4.508639105e-01,7.81405e-01,9.99999e-01,9.99941e-01,7.81451e-01,9.99999e-01
4.531182300e-01,7.85248e-01,9.99999e-01,9.99976e-01,7.85266e-01,9.99999e-01
4.553838212e-01,7.89012e-01,9.99999e-01,9.99983e-01,7.89025e-01,9.99999e-01
4.576607403e-01,7.92721e-01,9.99999e-01,9.99992e-01,7.92726e-01,9.99999e-01
4.599490440e-01,7.96368e-01,9.99999e-01,9.99994e-01,7.96372e-01,9.99999e-01
4.622487892e-01,7.99961e-01,9.99999e-01,9.99998e-01,7.99962e-01,9.99999e-01
4.645600332e-01,8.03493e-01,9.99999e-01,9.99995e-01,8.03496e-01,9.99999e-01
4.668828333e-01,8.06928e-01,9.99999e-01,9.99940e-01,8.06976e-01,9.99999e-01
4.692172475e-01,8.10299e-01,9.99999e-01,9.99873e-01,8.10402e-01,9.99999e-01
4.715633337e-01,8.13707e-01,9.99999e-01,9.99916e-01,8.13774e-01,9.99999e-01
4.739211504e-01,8.17028e-01,9.99999e-01,9.99920e-01,8.17093e-01,9.99999e-01
4.762907561e-01,8.20326e-01,9.99999e-01,9.99958e-01,8.20360e-01,9.99999e-01
4.786722099e-01,8.23561e-01,9.99999e-01,9.99982e-01,8.23574e-01,9.99999e-01
4.810655710e-01,8.26734e-01,9.99999e-01,9.99994e-01,8.26738e-01,9.99999e-01
4.834708988e-01,8.29811e-01,9.99999e-01,9.99950e-01,8.29851e-01,9.99999e-01
4.858882533e-01,8.32839e-01,9.99999e-01,9.99910e-01,8.32914e-01,9.99999e-01
4.883176946e-01,8.35865e-01,9.99999e-01,9.99924e-01,8.35927e-01,9.99999e-01
4.907592831e-01,8.38835e-01,9.99999e-01,9.99931e-01,8.38891e-01,9.99999e-01
4.932130795e-01,8.41767e-01,9.99999e-01,9.99951e-01,8.41807e-01,9.99999e-01
4.956791449e-01,8.44654e-01,9.99999e-01,9.99974e-01,8.44676e-01,9.99999e-01
4.981575406e-01,8.47389e-01,9.99999e-01,9.99872e-01,8.47497e-01,9.99999e-01
5.006483283e-01,8.49988e-01,9.99999e-01,9.99669e-01,8.50271e-01,9.99997e-01
5.031515699e-01,8.51560e-01,9.99999e-01,9.98329e-01,8.53000e-01,9.99981e-01
5.056673278e-01,8.54912e-01,9.99999e-01,9.99119e-01,8.55683e-01,9.99979e-01
5.081956644e-01,8.57358e-01,9.99999e-01,9.98889e-01,8.58321e-01,9.99987e-01
5.107366428e-01,8.60268e-01,9.99999e-01,9.99249e-01,8.60915e-01,9.99997e-01
5.132903260e-01,8.63096e-01,9.99999e-01,9.99571e-01,8.63466e-01,9.99999e-01
5.158567776e-01,8.65816e-01,9.99999e-01,9.99818e-01,8.65973e-01,9.99999e-01
5.184360615e-01,8.68375e-01,9.99999e-01,9.99927e-01,8.68438e-01,9.99999e-01
5.210282418e-01,8.70837e-01,9.99999e-01,9.99972e-01,8.70861e-01,9.99999e-01
5.236333830e-01,8.73147e-01,9.99999e-01,9.99890e-01,8.73243e-01,9.99998e-01
5.262515499e-01,8.75523e-01,9.99999e-01,9.99931e-01,8.75584e-01,9.99998e-01
5.288828077e-01,8.77829e-01,9.99999e-01,9.99936e-01,8.77885e-01,9.99998e-01
5.315272217e-01,8.80098e-01,9.99999e-01,9.99944e-01,8.80146e-01,9.99999e-01
5.341848578e-01,8.82337e-01,9.99999e-01,9.99963e-01,8.82368e-01,9.99999e-01
5.368557821e-01,8.84440e-01,9.99999e-01,9.99872e-01,8.84552e-01,9.99999e-01
5.395400610e-01,8.86288e-01,9.99999e-01,9.99540e-01,8.86698e-01,9.99995e-01
5.422377613e-01,8.88273e-01,9.99999e-01,9.99409e-01,8.88807e-01,9.99988e-01
5.449489501e-01,8.90378e-01,9.99999e-01,9.99449e-01,8.90878e-01,9.99988e-01
5.476736949e-01,8.92475e-01,9.99999e-01,9.99513e-01,8.92914e-01,9.99994e-01
5.504120634e-01,8.94597e-01,9.99999e-01,9.99646e-01,8.94914e-01,9.99998e-01
5.531641237e-01,8.96719e-01,9.99999e-01,9.99822e-01,8.96879e-01,9.99999e-01
5.559299443e-01,8.98732e-01,9.99999e-01,9.99913e-01,8.98809e-01,9.99999e-01
5.587095940e-01,9.00656e-01,9.99999e-01,9.99945e-01,9.00705e-01,9.99999e-01
5.615031420e-01,9.02513e-01,9.99999e-01,9.99939e-01,9.02567e-01,9.99999e-01
5.643106577e-01,9.04335e-01,9.99999e-01,9.99931e-01,9.04397e-01,9.99998e-01
5.671322110e-01,9.05434e-01,9.99999e-01,9.99168e-01,9.06194e-01,9.99992e-01
5.699678720e-01,9.07144e-01,9.99999e-01,9.99124e-01,9.07958e-01,9.99977e-01
5.728177114e-01,9.08843e-01,9.99999e-01,9.99084e-01,9.09692e-01,9.99980e-01
5.756818000e-01,9.10620e-01,9.99999e-01,9.99160e-01,9.11394e-01,9.99988e-01
5.785602090e-01,9.12396e-01,9.99999e-01,9.99268e-01,9.13066e-01,9.99996e-01
5.814530100e-01,9.14034e-01,9.99999e-01,9.99265e-01,9.14708e-01,9.99997e-01
5.843602750e-01,9.15511e-01,9.99999e-01,9.99121e-01,9.16320e-01,9.99994e-01
5.872820764e-01,9.10932e-01,9.99999e-01,9.92457e-01,9.17903e-01,9.99946e-01
5.902184868e-01,9.10951e-01,9.99999e-01,9.90891e-01,9.19457e-01,9.99855e-01
5.931695792e-01,9.14920e-01,9.99999e-01,9.93553e-01,9.20984e-01,9.99860e-01
5.961354271e-01,9.15896e-01,9.99999e-01,9.92938e-01,9.22482e-01,9.99919e-01
5.991161043e-01,9.19171e-01,9.99999e-01,9.94847e-01,9.23954e-01,9.99974e-01
6.021116848e-01,9.22689e-01,9.99999e-01,9.97074e-01,9.25398e-01,9.99996e-01
6.051222432e-01,9.25444e-01,9.99999e-01,9.98519e-01,9.26816e-01,9.99999e-01
6.081478544e-01,9.27616e-01,9.99999e-01,9.99360e-01,9.28209e-01,9.99999e-01
6.111885937e-01,9.29325e-01,9.99999e-01,9.99729e-01,9.29576e-01,9.99999e-01
6.142445367e-01,9.30805e-01,9.99999e-01,9.99878e-01,9.30917e-01,9.99999e-01
6.173157594e-01,9.32173e-01,9.99999e-01,9.99932e-01,9.32235e-01,9.99999e-01
6.204023382e-01,9.33475e-01,9.99999e-01,9.99943e-01,9.33528e-01,9.99999e-01
6.235043498e-01,9.34563e-01,9.99999e-01,9.99749e-01,9.34797e-01,9.99998e-01
6.266218716e-01,9.34803e-01,9.99999e-01,9.98684e-01,9.36043e-01,9.99990e-01
6.297549810e-01,9.36796e-01,9.99999e-01,9.99517e-01,9.37265e-01,9.99981e-01
6.329037559e-01,9.37558e-01,9.99999e-01,9.99047e-01,9.38466e-01,9.99984e-01
6.360682746e-01,9.38872e-01,9.99999e-01,9.99187e-01,9.39644e-01,9.99990e-01
6.392486160e-01,9.39806e-01,9.99999e-01,9.98947e-01,9.40800e-01,9.99995e-01
6.424448591e-01,9.40599e-01,9.99999e-01,9.98587e-01,9.41935e-01,9.99993e-01
6.456570834e-01,9.36845e-01,9.99999e-01,9.93458e-01,9.43048e-01,9.99963e-01
6.488853688e-01,9.39539e-01,9.99999e-01,9.95225e-01,9.44141e-01,9.99898e-01
6.521297956e-01,9.40536e-01,9.99999e-01,9.95134e-01,9.45214e-01,9.99915e-01
6.553904446e-01,9.41616e-01,9.99999e-01,9.95147e-01,9.46266e-01,9.99937e-01
6.586673968e-01,9.43348e-01,9.99999e-01,9.95849e-01,9.47299e-01,9.99978e-01
6.619607338e-01,9.46114e-01,9.99999e-01,9.97685e-01,9.48313e-01,9.99995e-01
6.652705375e-01,9.47986e-01,9.99999e-01,9.98610e-01,9.49307e-01,9.99997e-01
6.685968902e-01,9.49722e-01,9.99999e-01,9.99409e-01,9.50283e-01,9.99999e-01
6.719398746e-01,9.50957e-01,9.99999e-01,9.99700e-01,9.51241e-01,9.99999e-01
6.752995740e-01,9.52026e-01,9.99999e-01,9.99837e-01,9.52180e-01,9.99999e-01
6.786760719e-01,9.52879e-01,9.99999e-01,9.99764e-01,9.53103e-01,9.99999e-01
6.820694522e-01,9.53622e-01,9.99999e-01,9.99598e-01,9.54007e-01,9.99997e-01
6.854797995e-01,9.54396e-01,9.99999e-01,9.99481e-01,9.54895e-01,9.99995e-01
6.889071985e-01,9.54551e-01,9.99999e-01,9.98739e-01,9.55766e-01,9.99988e-01
6.923517345e-01,9.37090e-01,9.99999e-01,9.79679e-01,9.56620e-01,9.99901e-01
6.958134932e-01,9.47167e-01,9.99999e-01,9.89465e-01,9.57459e-01,9.99782e-01
6.992925606e-01,9.48427e-01,9.99999e-01,9.89909e-01,9.58281e-01,9.99804e-01
7.027890234e-01,9.47043e-01,9.99999e-01,9.87588e-01,9.59088e-01,9.99850e-01
7.063029686e-01,9.49779e-01,9.99999e-01,9.89550e-01,9.59880e-01,9.99925e-01
7.098344834e-01,9.50981e-01,9.99999e-01,9.89971e-01,9.60656e-01,9.99955e-01
7.133836558e-01,9.48460e-01,9.99999e-01,9.86607e-01,9.61418e-01,9.99912e-01
7.169505741e-01,8.63309e-01,9.99999e-01,8.97873e-01,9.62166e-01,9.99312e-01
7.205353270e-01,9.12577e-01,9.99999e-01,9.48888e-01,9.62899e-01,9.98787e-01
7.241380036e-01,9.00167e-01,9.99999e-01,9.35131e-01,9.63618e-01,9.98952e-01
7.277586936e-01,9.06945e-01,9.99999e-01,9.41303e-01,9.64324e-01,9.99143e-01
7.313974871e-01,9.04578e-01,9.99999e-01,9.37746e-01,9.65016e-01,9.99598e-01
7.350544745e-01,9.32211e-01,9.99999e-01,9.65460e-01,9.65695e-01,9.99860e-01
7.387297469e-01,9.41619e-01,9.99999e-01,9.74458e-01,9.66361e-01,9.99935e-01
7.424233956e-01,9.54848e-01,9.99999e-01,9.87429e-01,9.67015e-01,9.99987e-01
7.461355126e-01,9.60261e-01,9.99999e-01,9.92360e-01,9.67655e-01,9.99997e-01
7.498661902e-01,9.64837e-01,9.99999e-01,9.96440e-01,9.68284e-01,9.99998e-01
7.536155211e-01,9.67206e-01,9.99999e-01,9.98250e-01,9.68901e-01,9.99999e-01
7.573835987e-01,9.68633e-01,9.99999e-01,9.99099e-01,9.69505e-01,9.99999e-01
7.611705167e-01,9.69556e-01,9.99999e-01,9.99440e-01,9.70099e-01,9.99999e-01
7.649763693e-01,9.70340e-01,9.99999e-01,9.99648e-01,9.70681e-01,9.99999e-01
7.688012511e-01,9.71014e-01,9.99999e-01,9.99755e-01,9.71251e-01,9.99999e-01
7.726452574e-01,9.71616e-01,9.99999e-01,9.99798e-01,9.71811e-01,9.99999e-01
7.765084837e-01,9.72081e-01,9.99999e-01,9.99712e-01,9.72360e-01,9.99999e-01
7.803910261e-01,9.71692e-01,9.99999e-01,9.98760e-01,9.72899e-01,9.99998e-01
7.842929812e-01,9.69213e-01,9.99999e-01,9.95678e-01,9.73427e-01,9.99991e-01
7.882144461e-01,9.65258e-01,9.99999e-01,9.91140e-01,9.73945e-01,9.99938e-01
7.921555184e-01,9.69617e-01,9.99999e-01,9.95142e-01,9.74453e-01,9.99893e-01
7.961162960e-01,9.66465e-01,9.99999e-01,9.91395e-01,9.74951e-01,9.99898e-01
8.000968774e-01,9.65664e-01,9.99999e-01,9.90083e-01,9.75439e-01,9.99892e-01
8.040973618e-01,9.66157e-01,9.99999e-01,9.90077e-01,9.75919e-01,9.99917e-01
8.081178486e-01,9.54571e-01,9.99999e-01,9.77734e-01,9.76389e-01,9.99916e-01
8.121584379e-01,8.89306e-01,9.99999e-01,9.10666e-01,9.76850e-01,9.99685e-01
8.162192301e-01,8.73938e-01,9.99999e-01,8.95290e-01,9.77302e-01,9.98820e-01
8.203003262e-01,9.24208e-01,9.99999e-01,9.46550e-01,9.77745e-01,9.98618e-01
8.244018279e-01,9.05754e-01,9.99999e-01,9.26976e-01,9.78180e-01,9.98900e-01
8.285238370e-01,9.15059e-01,9.99999e-01,9.35870e-01,9.78606e-01,9.99136e-01
8.326664562e-01,9.15386e-01,9.99999e-01,9.35332e-01,9.79024e-01,9.99642e-01
8.368297885e-01,9.33624e-01,9.99999e-01,9.53304e-01,9.79434e-01,9.99917e-01
8.410139374e-01,9.52340e-01,9.99999e-01,9.71984e-01,9.79836e-01,9.99951e-01
8.452190071e-01,9.66644e-01,9.99999e-01,9.86167e-01,9.80231e-01,9.99971e-01
8.494451021e-01,9.72694e-01,9.99999e-01,9.91941e-01,9.80617e-01,9.99976e-01
8.536923276e-01,9.76308e-01,9.99999e-01,9.95233e-01,9.80996e-01,9.99985e-01
8.579607893e-01,9.78480e-01,9.99999e-01,9.97059e-01,9.81368e-01,9.99996e-01
8.622505932e-01,9.79899e-01,9.99999e-01,9.98132e-01,9.81733e-01,9.99998e-01
8.665618462e-01,9.80954e-01,9.99999e-01,9.98843e-01,9.82090e-01,9.99999e-01
8.708946554e-01,9.81138e-01,9.99999e-01,9.98674e-01,9.82441e-01,9.99998e-01
8.752491287e-01,9.81042e-01,9.99999e-01,9.98227e-01,9.82785e-01,9.99997e-01
8.796253743e-01,9.80702e-01,9.99999e-01,9.97543e-01,9.83122e-01,9.99994e-01
8.840235012e-01,9.80678e-01,9.99999e-01,9.97195e-01,9.83453e-01,9.99982e-01
8.884436187e-01,9.73654e-01,9.99999e-01,9.89758e-01,9.83777e-01,9.99951e-01
8.928858368e-01,8.83440e-01,9.99999e-01,8.97969e-01,9.84095e-01,9.99719e-01
8.973502660e-01,8.13420e-01,9.99999e-01,8.27491e-01,9.84406e-01,9.98565e-01
9.018370173e-01,8.92218e-01,9.99999e-01,9.08116e-01,9.84712e-01,9.97745e-01
9.063462024e-01,9.02553e-01,9.99999e-01,9.18104e-01,9.85012e-01,9.98018e-01
9.108779334e-01,8.60858e-01,9.99999e-01,8.75497e-01,9.85305e-01,9.97941e-01
9.154323231e-01,8.45854e-01,9.99999e-01,8.59680e-01,9.85594e-01,9.98298e-01
9.200094847e-01,8.75207e-01,9.99999e-01,8.88591e-01,9.85876e-01,9.99046e-01
9.246095321e-01,8.20842e-01,9.99999e-01,8.33281e-01,9.86153e-01,9.98901e-01
9.292325798e-01,3.03126e-01,9.99999e-01,3.08617e-01,9.86425e-01,9.95726e-01
9.338787427e-01,2.14836e-01,9.99999e-01,2.21622e-01,9.86691e-01,9.82450e-01
9.385481364e-01,5.24011e-01,9.99999e-01,5.42237e-01,9.86952e-01,9.79162e-01
9.432408771e-01,4.21740e-01,9.99999e-01,4.35036e-01,9.87208e-01,9.81997e-01
9.479570815e-01,3.10852e-01,9.99999e-01,3.19489e-01,9.87459e-01,9.85323e-01
9.526968669e-01,4.08055e-01,9.99999e-01,4.16876e-01,9.87705e-01,9.91022e-01
9.574603512e-01,4.29996e-01,9.99999e-01,4.37240e-01,9.87947e-01,9.95429e-01
9.622476530e-01,4.99086e-01,9.99999e-01,5.06656e-01,9.88183e-01,9.96837e-01
9.670588912e-01,6.64843e-01,9.99999e-01,6.74093e-01,9.88416e-01,9.97835e-01
9.718941857e-01,7.68524e-01,9.99999e-01,7.78592e-01,9.88643e-01,9.98406e-01
9.767536566e-01,8.02209e-01,9.99999e-01,8.12230e-01,9.88866e-01,9.98781e-01
9.816374249e-01,8.47226e-01,9.99999e-01,8.56936e-01,9.89085e-01,9.99577e-01
9.865456120e-01,8.98126e-01,9.99999e-01,9.07920e-01,9.89299e-01,9.99911e-01
9.914783401e-01,9.32062e-01,9.99999e-01,9.41966e-01,9.89509e-01,9.99975e-01
9.964357318e-01,9.58002e-01,9.99999e-01,9.67969e-01,9.89716e-01,9.99985e-01
1.001417910e+00,9.70769e-01,9.99999e-01,9.80677e-01,9.89918e-01,9.99977e-01
1.006425000e+00,9.79127e-01,9.99999e-01,9.88931e-01,9.90116e-01,9.99968e-01
1.011457125e+00,9.83472e-01,9.99999e-01,9.93123e-01,9.90310e-01,9.99970e-01
1.016514411e+00,9.85850e-01,9.99999e-01,9.95324e-01,9.90501e-01,9.99979e-01
1.021596983e+00,9.86974e-01,9.99999e-01,9.96271e-01,9.90687e-01,9.99979e-01
1.026704968e+00,9.87976e-01,9.99999e-01,9.97090e-01,9.90870e-01,9.99987e-01
1.031838492e+00,9.88952e-01,9.99999e-01,9.97886e-01,9.91050e-01,9.99995e-01
1.036997685e+00,9.89980e-01,9.99999e-01,9.98743e-01,9.91226e-01,9.99998e-01
1.042182673e+00,9.89911e-01,9.99999e-01,9.98499e-01,9.91398e-01,9.99999e-01
1.047393587e+00,9.89597e-01,9.99999e-01,9.98012e-01,9.91568e-01,9.99999e-01
1.052630555e+00,9.89028e-01,9.99999e-01,9.97271e-01,9.91733e-01,9.99998e-01
1.057893707e+00,9.87379e-01,9.99999e-01,9.95446e-01,9.91896e-01,9.99997e-01
1.063183176e+00,9.84632e-01,9.99999e-01,9.92520e-01,9.92055e-01,9.99995e-01
1.068499092e+00,9.79813e-01,9.99999e-01,9.87511e-01,9.92212e-01,9.99991e-01
1.073841587e+00,9.77855e-01,9.99999e-01,9.85396e-01,9.92365e-01,9.99981e-01
1.079210795e+00,9.73944e-01,9.99999e-01,9.81337e-01,9.92515e-01,9.99949e-01
1.084606849e+00,9.64629e-01,9.99999e-01,9.71876e-01,9.92662e-01,9.99878e-01
1.090029883e+00,9.52662e-01,9.99999e-01,9.59804e-01,9.92807e-01,9.99749e-01
1.095480033e+00,8.87637e-01,9.99999e-01,8.94344e-01,9.92948e-01,9.99547e-01
1.100957433e+00,7.48313e-01,9.99999e-01,7.54149e-01,9.93087e-01,9.99167e-01
1.106462220e+00,4.91486e-01,9.99999e-01,4.95538e-01,9.93223e-01,9.98588e-01
1.111994531e+00,2.32322e-01,9.99999e-01,2.34754e-01,9.93357e-01,9.96257e-01
1.117554504e+00,9.85984e-02,9.99999e-01,1.00597e-01,9.93487e-01,9.86554e-01
1.123142276e+00,1.92930e-01,9.99999e-01,2.00503e-01,9.93616e-01,9.68408e-01
1.128757988e+00,3.23454e-01,9.99999e-01,3.37806e-01,9.93741e-01,9.63545e-01
1.134401778e+00,1.51220e-01,9.99999e-01,1.57034e-01,9.93865e-01,9.68916e-01
1.140073787e+00,4.97152e-01,9.99999e-01,5.12939e-01,9.93985e-01,9.75086e-01
1.145774156e+00,2.55009e-01,9.99999e-01,2.62515e-01,9.94104e-01,9.77170e-01
1.151503026e+00,2.24195e-01,9.99999e-01,2.28417e-01,9.94220e-01,9.87216e-01
1.157260541e+00,2.72660e-01,9.99999e-01,2.75270e-01,9.94334e-01,9.96160e-01
1.163046844e+00,3.80520e-01,9.99999e-01,3.83062e-01,9.94445e-01,9.98909e-01
1.168862078e+00,5.04249e-01,9.99999e-01,5.07294e-01,9.94555e-01,9.99438e-01
1.174706389e+00,6.53360e-01,9.99999e-01,6.57355e-01,9.94662e-01,9.99255e-01
1.180579921e+00,7.69013e-01,9.99999e-01,7.73929e-01,9.94767e-01,9.98874e-01
1.186482820e+00,8.59232e-01,9.99999e-01,8.64660e-01,9.94870e-01,9.98844e-01
1.192415234e+00,9.13097e-01,9.99999e-01,9.18506e-01,9.94971e-01,9.99134e-01
1.198377311e+00,9.25493e-01,9.99999e-01,9.30837e-01,9.95070e-01,9.99182e-01
1.204369197e+00,9.29349e-01,9.99999e-01,9.34552e-01,9.95167e-01,9.99260e-01
1.210391043e+00,9.32406e-01,9.99999e-01,9.37264e-01,9.95263e-01,9.99549e-01
1.216442998e+00,9.41763e-01,9.99999e-01,9.46416e-01,9.95356e-01,9.99724e-01
1.222525213e+00,9.53462e-01,9.99999e-01,9.57986e-01,9.95447e-01,9.99828e-01
1.228637839e+00,9.66218e-01,9.99999e-01,9.70626e-01,9.95537e-01,9.99919e-01
1.234781029e+00,9.73816e-01,9.99999e-01,9.78117e-01,9.95625e-01,9.99976e-01
1.240954934e+00,9.81869e-01,9.99999e-01,9.86103e-01,9.95711e-01,9.99993e-01
1.247159708e+00,9.85003e-01,9.99999e-01,9.89165e-01,9.95796e-01,9.99995e-01
1.253395507e+00,9.86284e-01,9.99999e-01,9.90370e-01,9.95879e-01,9.99994e-01
1.259662485e+00,9.86833e-01,9.99999e-01,9.90843e-01,9.95960e-01,9.99991e-01
1.265960797e+00,9.81503e-01,9.99999e-01,9.85419e-01,9.96040e-01,9.99985e-01
1.272290601e+00,9.73350e-01,9.99999e-01,9.77167e-01,9.96118e-01,9.99974e-01
1.278652054e+00,9.51481e-01,9.99999e-01,9.55157e-01,9.96194e-01,9.99955e-01
1.285045314e+00,9.16711e-01,9.99999e-01,9.20219e-01,9.96269e-01,9.99916e-01
1.291470541e+00,8.61912e-01,9.99999e-01,8.65201e-01,9.96343e-01,9.99854e-01
1.297927893e+00,8.10992e-01,9.99999e-01,8.14130e-01,9.96415e-01,9.99727e-01
1.304417533e+00,7.82262e-01,9.99999e-01,7.85472e-01,9.96485e-01,9.99424e-01
1.310939621e+00,7.54569e-01,9.99999e-01,7.58072e-01,9.96555e-01,9.98818e-01
1.317494319e+00,7.37318e-01,9.99999e-01,7.41435e-01,9.96623e-01,9.97816e-01
1.324081790e+00,6.36913e-01,9.99999e-01,6.41312e-01,9.96689e-01,9.96437e-01
1.330702199e+00,2.26501e-01,9.99999e-01,2.28641e-01,9.96754e-01,9.93865e-01
1.337355710e+00,1.60836e-02,9.99999e-01,1.63272e-02,9.96818e-01,9.88219e-01
1.344042489e+00,4.43765e-04,9.99999e-01,4.61328e-04,9.96881e-01,9.64936e-01
1.350762701e+00,1.49690e-09,9.99999e-01,1.69665e-09,9.96943e-01,8.84970e-01
1.357516515e+00,7.53759e-14,9.99999e-01,1.08215e-13,9.97003e-01,6.98629e-01
1.364304097e+00,5.39734e-09,9.99999e-01,1.01491e-08,9.97062e-01,5.33372e-01
1.371125618e+00,4.27115e-06,9.99999e-01,7.74734e-06,9.97120e-01,5.52897e-01
1.377981246e+00,1.51916e-05,9.99999e-01,2.53183e-05,9.97177e-01,6.01723e-01
1.384871152e+00,7.06291e-08,9.99999e-01,1.13697e-07,9.97232e-01,6.22927e-01
1.391795508e+00,6.66304e-09,9.99999e-01,1.04905e-08,9.97287e-01,6.36874e-01
1.398754485e+00,3.21071e-07,9.99999e-01,4.67322e-07,9.97341e-01,6.88875e-01
1.405748258e+00,3.83669e-07,9.99999e-01,4.78312e-07,9.97393e-01,8.04225e-01
1.412776999e+00,4.38718e-07,9.99999e-01,4.85845e-07,9.97444e-01,9.05311e-01
1.419840884e+00,9.70982e-07,9.99999e-01,1.01682e-06,9.97495e-01,9.57320e-01
1.426940089e+00,3.76962e-05,9.99999e-01,3.90622e-05,9.97544e-01,9.67405e-01
1.434074789e+00,2.85103e-04,9.99999e-01,2.97187e-04,9.97593e-01,9.61651e-01
1.441245163e+00,1.29740e-03,9.99999e-01,1.35673e-03,9.97640e-01,9.58530e-01
1.448451389e+00,9.98357e-03,9.99999e-01,1.03848e-02,9.97687e-01,9.63594e-01
1.455693646e+00,4.28268e-02,9.99999e-01,4.41808e-02,9.97732e-01,9.71556e-01
1.462972114e+00,6.02439e-02,9.99999e-01,6.20628e-02,9.97777e-01,9.72854e-01
1.470286975e+00,3.90198e-02,9.99999e-01,4.01773e-02,9.97821e-01,9.73310e-01
