#,Wave/freq,Total,N2,H2O,Rayleigh,CIA
4.000000000e-01,7.14256e-01,9.99999e-01,9.99961e-01,7.14283e-01,9.99999e-01
4.020000000e-01,7.19034e-01,9.99999e-01,9.99975e-01,7.19051e-01,9.99999e-01
4.040100000e-01,7.23744e-01,9.99999e-01,9.99989e-01,7.23751e-01,9.99999e-01
4.060300500e-01,7.28386e-01,9.99999e-01,9.99997e-01,7.28388e-01,9.99999e-01
4.080602003e-01,7.32961e-01,9.99999e-01,9.99998e-01,7.32962e-01,9.99999e-01
4.101005013e-01,7.37473e-01,9.99999e-01,9.99999e-01,7.37473e-01,9.99999e-01
4.121510038e-01,7.41922e-01,9.99999e-01,9.99998e-01,7.41923e-01,9.99999e-01
4.142117588e-01,7.46302e-01,9.99999e-01,9.99989e-01,7.46310e-01,9.99999e-01
4.162828176e-01,7.50601e-01,9.99999e-01,9.99952e-01,7.50636e-01,9.99999e-01
4.183642317e-01,7.54880e-01,9.99999e-01,9.99971e-01,7.54901e-01,9.99999e-01
4.204560528e-01,7.59092e-01,9.99999e-01,9.99982e-01,7.59105e-01,9.99999e-01
4.225583331e-01,7.63244e-01,9.99999e-01,9.99993e-01,7.63249e-01,9.99999e-01
4.246711247e-01,7.67329e-01,9.99999e-01,9.99994e-01,7.67333e-01,9.99999e-01
4.267944804e-01,7.71352e-01,9.99999e-01,9.99991e-01,7.71358e-01,9.99999e-01
4.289284528e-01,7.75319e-01,9.99999e-01,9.99993e-01,7.75323e-01,9.99999e-01
4.310730950e-01,7.79228e-01,9.99999e-01,9.99997e-01,7.79230e-01,9.99999e-01
4.332284605e-01,7.83079e-01,9.99999e-01,9.99998e-01,7.83079e-01,9.99999e-01
4.353946028e-01,7.86870e-01,9.99999e-01,9.99999e-01,7.86870e-01,9.99999e-01
4.375715758e-01,7.90601e-01,9.99999e-01,9.99994e-01,7.90605e-01,9.99999e-01
4.397594337e-01,7.94250e-01,9.99999e-01,9.99958e-01,7.94282e-01,9.99999e-01
4.419582309e-01,7.97739e-01,9.99999e-01,9.99792e-01,7.97904e-01,9.99999e-01
4.441680220e-01,8.01338e-01,9.99999e-01,9.99835e-01,8.01470e-01,9.99999e-01
4.463888621e-01,8.04844e-01,9.99999e-01,9.99829e-01,8.04981e-01,9.99999e-01
4.486208064e-01,8.08352e-01,9.99999e-01,9.99893e-01,8.08438e-01,9.99999e-01
4.508639105e-01,8.11801e-01,9.99999e-01,9.99949e-01,8.11841e-01,9.99999e-01
4.531182300e-01,8.15175e-01,9.99999e-01,9.99979e-01,8.15191e-01,9.99999e-01
4.553838212e-01,8.18477e-01,9.99999e-01,9.99986e-01,8.18487e-01,9.99999e-01
4.576607403e-01,8.21727e-01,9.99999e-01,9.99993e-01,8.21732e-01,9.99999e-01
4.599490440e-01,8.24921e-01,9.99999e-01,9.99995e-01,8.24925e-01,9.99999e-01
4.622487892e-01,8.28066e-01,9.99999e-01,9.99998e-01,8.28067e-01,9.99999e-01
4.645600332e-01,8.31156e-01,9.99999e-01,9.99996e-01,8.31159e-01,9.99999e-01
4.668828333e-01,8.34159e-01,9.99999e-01,9.99949e-01,8.34200e-01,9.99999e-01
4.692172475e-01,8.37103e-01,9.99999e-01,9.99892e-01,8.37193e-01,9.99999e-01
4.715633337e-01,8.40078e-01,9.99999e-01,9.99929e-01,8.40136e-01,9.99999e-01
4.739211504e-01,8.42976e-01,9.99999e-01,9.99932e-01,8.43032e-01,9.99999e-01
4.762907561e-01,8.45851e-01,9.99999e-01,9.99964e-01,8.45880e-01,9.99999e-01
4.786722099e-01,8.48669e-01,9.99999e-01,9.99985e-01,8.48681e-01,9.99999e-01
4.810655710e-01,8.51433e-01,9.99999e-01,9.99995e-01,8.51436e-01,9.99999e-01
4.834708988e-01,8.54111e-01,9.99999e-01,9.99959e-01,8.54145e-01,9.99999e-01
4.858882533e-01,8.56744e-01,9.99999e-01,9.99923e-01,8.56809e-01,9.99999e-01
4.883176946e-01,8.59375e-01,9.99999e-01,9.99936e-01,8.59429e-01,9.99999e-01
4.907592831e-01,8.61955e-01,9.99999e-01,9.99942e-01,8.62004e-01,9.99999e-01
4.932130795e-01,8.64501e-01,9.99999e-01,9.99958e-01,8.64536e-01,9.99999e-01
4.956791449e-01,8.67007e-01,9.99999e-01,9.99978e-01,8.67026e-01,9.99999e-01
4.981575406e-01,8.69380e-01,9.99999e-01,9.99892e-01,8.69473e-01,9.99999e-01
5.006483283e-01,8.71636e-01,9.99999e-01,9.99723e-01,8.71878e-01,9.99997e-01
5.031515699e-01,8.72998e-01,9.99999e-01,9.98591e-01,8.74242e-01,9.99984e-01
5.056673278e-01,8.75898e-01,9.99999e-01,9.99254e-01,8.76566e-01,9.99982e-01
5.081956644e-01,8.78014e-01,9.99999e-01,9.99059e-01,8.78850e-01,9.99988e-01
5.107366428e-01,8.80533e-01,9.99999e-01,9.99364e-01,8.81095e-01,9.99997e-01
5.132903260e-01,8.82980e-01,9.99999e-01,9.99635e-01,8.83301e-01,9.99999e-01
5.158567776e-01,8.85332e-01,9.99999e-01,9.99845e-01,8.85469e-01,9.99999e-01
5.184360615e-01,8.87544e-01,9.99999e-01,9.99938e-01,8.87599e-01,9.99999e-01
5.210282418e-01,8.89671e-01,9.99999e-01,9.99976e-01,8.89692e-01,9.99999e-01
5.236333830e-01,8.91665e-01,9.99999e-01,9.99907e-01,8.91748e-01,9.99998e-01
5.262515499e-01,8.93716e-01,9.99999e-01,9.99941e-01,8.93768e-01,9.99998e-01
5.288828077e-01,8.95706e-01,9.99999e-01,9.99946e-01,8.95753e-01,9.99998e-01
5.315272217e-01,8.97661e-01,9.99999e-01,9.99952e-01,8.97703e-01,9.99999e-01
5.341848578e-01,8.99592e-01,9.99999e-01,9.99969e-01,8.99619e-01,9.99999e-01
5.368557821e-01,9.01404e-01,9.99999e-01,9.99892e-01,9.01500e-01,9.99999e-01
5.395400610e-01,9.03000e-01,9.99999e-01,9.99616e-01,9.03349e-01,9.99996e-01
5.422377613e-01,9.04703e-01,9.99999e-01,9.99499e-01,9.05164e-01,9.99990e-01
5.449489501e-01,9.06519e-01,9.99999e-01,9.99536e-01,9.06947e-01,9.99990e-01
5.476736949e-01,9.08320e-01,9.99999e-01,9.99586e-01,9.08699e-01,9.99994e-01
5.504120634e-01,9.10145e-01,9.99999e-01,9.99700e-01,9.10419e-01,9.99998e-01
5.531641237e-01,9.11971e-01,9.99999e-01,9.99848e-01,9.12108e-01,9.99999e-01
5.559299443e-01,9.13701e-01,9.99999e-01,9.99926e-01,9.13767e-01,9.99999e-01
5.587095940e-01,9.15355e-01,9.99999e-01,9.99954e-01,9.15396e-01,9.99999e-01
5.615031420e-01,9.16950e-01,9.99999e-01,9.99948e-01,9.16996e-01,9.99999e-01
5.643106577e-01,9.18514e-01,9.99999e-01,9.99942e-01,9.18567e-01,9.99999e-01
5.671322110e-01,9.19471e-01,9.99999e-01,9.99311e-01,9.20109e-01,9.99993e-01
5.699678720e-01,9.20918e-01,9.99999e-01,9.99252e-01,9.21624e-01,9.99980e-01
5.728177114e-01,9.22384e-01,9.99999e-01,9.99228e-01,9.23111e-01,9.99983e-01
5.756818000e-01,9.23906e-01,9.99999e-01,9.99290e-01,9.24571e-01,9.99989e-01
5.785602090e-01,9.25428e-01,9.99999e-01,9.99380e-01,9.26004e-01,9.99996e-01
5.814530100e-01,9.26834e-01,9.99999e-01,9.99378e-01,9.27411e-01,9.99998e-01
5.843602750e-01,9.28106e-01,9.99999e-01,9.99264e-01,9.28793e-01,9.99995e-01
5.872820764e-01,9.24219e-01,9.99999e-01,9.93668e-01,9.30149e-01,9.99954e-01
5.902184868e-01,9.24175e-01,9.99999e-01,9.92277e-01,9.31480e-01,9.99877e-01
5.931695792e-01,9.27597e-01,9.99999e-01,9.94553e-01,9.32787e-01,9.99880e-01
5.961354271e-01,9.28418e-01,9.99999e-01,9.94019e-01,9.34070e-01,9.99927e-01
5.991161043e-01,9.31224e-01,9.99999e-01,9.95631e-01,9.35329e-01,9.99978e-01
6.021116848e-01,9.34238e-01,9.99999e-01,9.97517e-01,9.36565e-01,9.99996e-01
6.051222432e-01,9.36599e-01,9.99999e-01,9.98742e-01,9.37778e-01,9.99999e-01
6.081478544e-01,9.38460e-01,9.99999e-01,9.99457e-01,9.38969e-01,9.99999e-01
6.111885937e-01,9.39922e-01,9.99999e-01,9.99769e-01,9.40138e-01,9.99999e-01
6.142445367e-01,9.41188e-01,9.99999e-01,9.99897e-01,9.41285e-01,9.99999e-01
6.173157594e-01,9.42357e-01,9.99999e-01,9.99943e-01,9.42410e-01,9.99999e-01
6.204023382e-01,9.43470e-01,9.99999e-01,9.99951e-01,9.43515e-01,9.99999e-01
6.235043498e-01,9.44403e-01,9.99999e-01,9.99792e-01,9.44599e-01,9.99998e-01
6.266218716e-01,9.44605e-01,9.99999e-01,9.98888e-01,9.45663e-01,9.99991e-01
6.297549810e-01,9.46307e-01,9.99999e-01,9.99592e-01,9.46707e-01,9.99983e-01
6.329037559e-01,9.46955e-01,9.99999e-01,9.99192e-01,9.47732e-01,9.99987e-01
6.360682746e-01,9.48081e-01,9.99999e-01,9.99314e-01,9.48738e-01,9.99992e-01
6.392486160e-01,9.48877e-01,9.99999e-01,9.99110e-01,9.49724e-01,9.99996e-01
6.424448591e-01,9.49563e-01,9.99999e-01,9.98817e-01,9.50692e-01,9.99994e-01
6.456570834e-01,9.46394e-01,9.99999e-01,9.94515e-01,9.51642e-01,9.99968e-01
6.488853688e-01,9.47976e-01,9.99999e-01,9.95257e-01,9.52574e-01,9.99913e-01
6.521297956e-01,9.49486e-01,9.99999e-01,9.95872e-01,9.53489e-01,9.99927e-01
6.553904446e-01,9.50444e-01,9.99999e-01,9.95921e-01,9.54386e-01,9.99945e-01
6.586673968e-01,9.51887e-01,9.99999e-01,9.96478e-01,9.55267e-01,9.99981e-01
6.619607338e-01,9.54181e-01,9.99999e-01,9.97963e-01,9.56131e-01,9.99995e-01
6.652705375e-01,9.55846e-01,9.99999e-01,9.98818e-01,9.56978e-01,9.99997e-01
6.685968902e-01,9.57284e-01,9.99999e-01,9.99451e-01,9.57810e-01,9.99999e-01
6.719398746e-01,9.58382e-01,9.99999e-01,9.99745e-01,9.58626e-01,9.99999e-01
6.752995740e-01,9.59295e-01,9.99999e-01,9.99862e-01,9.59426e-01,9.99999e-01
6.786760719e-01,9.60022e-01,9.99999e-01,9.99802e-01,9.60212e-01,9.99999e-01
6.820694522e-01,9.60655e-01,9.99999e-01,9.99660e-01,9.60982e-01,9.99997e-01
6.854797995e-01,9.61314e-01,9.99999e-01,9.99563e-01,9.61738e-01,9.99995e-01
6.889071985e-01,9.61464e-01,9.99999e-01,9.98954e-01,9.62479e-01,9.99990e-01
6.923517345e-01,9.46670e-01,9.99999e-01,9.82913e-01,9.63206e-01,9.99916e-01
6.958134932e-01,9.55018e-01,9.99999e-01,9.90949e-01,9.63920e-01,9.99812e-01
6.992925606e-01,9.56284e-01,9.99999e-01,9.91520e-01,9.64620e-01,9.99835e-01
7.027890234e-01,9.55030e-01,9.99999e-01,9.89478e-01,9.65306e-01,9.99873e-01
7.063029686e-01,9.57374e-01,9.99999e-01,9.91152e-01,9.65980e-01,9.99936e-01
7.098344834e-01,9.58398e-01,9.99999e-01,9.91509e-01,9.66640e-01,9.99962e-01
7.133836558e-01,9.56393e-01,9.99999e-01,9.88808e-01,9.67288e-01,9.99925e-01
7.169505741e-01,8.83475e-01,9.99999e-01,9.13282e-01,9.67924e-01,9.99418e-01
7.205353270e-01,9.24956e-01,9.99999e-01,9.55971e-01,9.68548e-01,9.98975e-01
7.241380036e-01,9.15025e-01,9.99999e-01,9.44979e-01,9.69159e-01,9.99114e-01
7.277586936e-01,9.20785e-01,9.99999e-01,9.50186e-01,9.69759e-01,9.99276e-01
7.313974871e-01,9.18431e-01,9.99999e-01,9.46817e-01,9.70347e-01,9.99660e-01
7.350544745e-01,9.42292e-01,9.99999e-01,9.70624e-01,9.70924e-01,9.99881e-01
7.387297469e-01,9.50339e-01,9.99999e-01,9.78280e-01,9.71490e-01,9.99945e-01
7.424233956e-01,9.61632e-01,9.99999e-01,9.89296e-01,9.72046e-01,9.99989e-01
7.461355126e-01,9.66276e-01,9.99999e-01,9.93509e-01,9.72590e-01,9.99997e-01
7.498661902e-01,9.70173e-01,9.99999e-01,9.96967e-01,9.73124e-01,9.99998e-01
7.536155211e-01,9.72202e-01,9.99999e-01,9.98514e-01,9.73648e-01,9.99999e-01
7.573835987e-01,9.73417e-01,9.99999e-01,9.99234e-01,9.74162e-01,9.99999e-01
7.611705167e-01,9.74202e-01,9.99999e-01,9.99524e-01,9.74666e-01,9.99999e-01
7.649763693e-01,9.74870e-01,9.99999e-01,9.99702e-01,9.75160e-01,9.99999e-01
7.688012511e-01,9.75442e-01,9.99999e-01,9.99792e-01,9.75644e-01,9.99999e-01
7.726452574e-01,9.75953e-01,9.99999e-01,9.99829e-01,9.76120e-01,9.99999e-01
7.765084837e-01,9.76351e-01,9.99999e-01,9.99759e-01,9.76586e-01,9.99999e-01
7.803910261e-01,9.76028e-01,9.99999e-01,9.98961e-01,9.77043e-01,9.99998e-01
7.842929812e-01,9.73946e-01,9.99999e-01,9.96379e-01,9.77491e-01,9.99992e-01
7.882144461e-01,9.70558e-01,9.99999e-01,9.92505e-01,9.77931e-01,9.99953e-01
7.921555184e-01,9.74235e-01,9.99999e-01,9.95869e-01,9.78362e-01,9.99910e-01
7.961162960e-01,9.71625e-01,9.99999e-01,9.92768e-01,9.78785e-01,9.99914e-01
8.000968774e-01,9.70901e-01,9.99999e-01,9.91614e-01,9.79199e-01,9.99908e-01
8.040973618e-01,9.71329e-01,9.99999e-01,9.91621e-01,9.79606e-01,9.99927e-01
8.081178486e-01,9.61620e-01,9.99999e-01,9.81306e-01,9.80005e-01,9.99932e-01
8.121584379e-01,9.05965e-01,9.99999e-01,9.24325e-01,9.80396e-01,9.99734e-01
8.162192301e-01,8.91838e-01,9.99999e-01,9.10222e-01,9.80779e-01,9.99002e-01
8.203003262e-01,9.35963e-01,9.99999e-01,9.55054e-01,9.81155e-01,9.98832e-01
8.244018279e-01,9.18647e-01,9.99999e-01,9.36809e-01,9.81524e-01,9.99070e-01
8.285238370e-01,9.27796e-01,9.99999e-01,9.45601e-01,9.81886e-01,9.99269e-01
8.326664562e-01,9.27828e-01,9.99999e-01,9.44889e-01,9.82240e-01,9.99697e-01
8.368297885e-01,9.43435e-01,9.99999e-01,9.60219e-01,9.82588e-01,9.99930e-01
8.410139374e-01,9.59458e-01,9.99999e-01,9.76160e-01,9.82929e-01,9.99959e-01
8.452190071e-01,9.71667e-01,9.99999e-01,9.88229e-01,9.83263e-01,9.99975e-01
8.494451021e-01,9.76859e-01,9.99999e-01,9.93173e-01,9.83591e-01,9.99980e-01
8.536923276e-01,9.79914e-01,9.99999e-01,9.95948e-01,9.83913e-01,9.99986e-01
8.579607893e-01,9.81773e-01,9.99999e-01,9.97508e-01,9.84228e-01,9.99996e-01
8.622505932e-01,9.82976e-01,9.99999e-01,9.98414e-01,9.84537e-01,9.99999e-01
8.665618462e-01,9.83876e-01,9.99999e-01,9.99021e-01,9.84840e-01,9.99999e-01
8.708946554e-01,9.84035e-01,9.99999e-01,9.98881e-01,9.85137e-01,9.99998e-01
8.752491287e-01,9.83952e-01,9.99999e-01,9.98502e-01,9.85429e-01,9.99997e-01
8.796253743e-01,9.83672e-01,9.99999e-01,9.97932e-01,9.85714e-01,9.99994e-01
8.840235012e-01,9.83650e-01,9.99999e-01,9.97636e-01,9.85994e-01,9.99985e-01
8.884436187e-01,9.77864e-01,9.99999e-01,9.91517e-01,9.86269e-01,9.99958e-01
8.928858368e-01,9.01093e-01,9.99999e-01,9.13604e-01,9.86539e-01,9.99762e-01
8.973502660e-01,8.39247e-01,9.99999e-01,8.51503e-01,9.86803e-01,9.98787e-01
9.018370173e-01,9.07183e-01,9.99999e-01,9.20828e-01,9.87062e-01,9.98093e-01
9.063462024e-01,9.17339e-01,9.99999e-01,9.30682e-01,9.87316e-01,9.98325e-01
9.108779334e-01,8.81007e-01,9.99999e-01,8.93654e-01,9.87565e-01,9.98259e-01
9.154323231e-01,8.67820e-01,9.99999e-01,8.79795e-01,9.87809e-01,9.98561e-01
9.200094847e-01,8.92975e-01,9.99999e-01,9.04504e-01,9.88048e-01,9.99194e-01
9.246095321e-01,8.47574e-01,9.99999e-01,8.58418e-01,9.88283e-01,9.99071e-01
9.292325798e-01,3.60745e-01,9.99999e-01,3.66260e-01,9.88513e-01,9.96386e-01
9.338787427e-01,2.65324e-01,9.99999e-01,2.72392e-01,9.88738e-01,9.85148e-01
9.385481364e-01,5.73108e-01,9.99999e-01,5.89911e-01,9.88960e-01,9.82361e-01
9.432408771e-01,4.76895e-01,9.99999e-01,4.89572e-01,9.89176e-01,9.84764e-01
9.479570815e-01,3.66960e-01,9.99999e-01,3.75559e-01,9.89389e-01,9.87582e-01
9.526968669e-01,4.63090e-01,9.99999e-01,4.71537e-01,9.89598e-01,9.92407e-01
9.574603512e-01,4.86181e-01,9.99999e-01,4.93095e-01,9.89802e-01,9.96135e-01
9.622476530e-01,5.52032e-01,9.99999e-01,5.59101e-01,9.90002e-01,9.97326e-01
9.670588912e-01,7.06203e-01,9.99999e-01,7.14499e-01,9.90199e-01,9.98170e-01
9.718941857e-01,7.99984e-01,9.99999e-01,8.08834e-01,9.90391e-01,9.98652e-01
9.767536566e-01,8.29703e-01,9.99999e-01,8.38455e-01,9.90580e-01,9.98970e-01
9.816374249e-01,8.68764e-01,9.99999e-01,8.77173e-01,9.90766e-01,9.99643e-01
9.865456120e-01,9.12878e-01,9.99999e-01,9.21285e-01,9.90947e-01,9.99925e-01
9.914783401e-01,9.42119e-01,9.99999e-01,9.50573e-01,9.91125e-01,9.99978e-01
9.964357318e-01,9.64294e-01,9.99999e-01,9.72768e-01,9.91300e-01,9.99987e-01
1.001417910e+00,9.75179e-01,9.99999e-01,9.83585e-01,9.91471e-01,9.99981e-01
1.006425000e+00,9.82316e-01,9.99999e-01,9.90624e-01,9.91638e-01,9.99973e-01
1.011457125e+00,9.85988e-01,9.99999e-01,9.94160e-01,9.91803e-01,9.99975e-01
1.016514411e+00,9.88016e-01,9.99999e-01,9.96036e-01,9.91964e-01,9.99982e-01
1.021596983e+00,9.88973e-01,9.99999e-01,9.96842e-01,9.92122e-01,9.99982e-01
1.026704968e+00,9.89823e-01,9.99999e-01,9.97537e-01,9.92277e-01,9.99987e-01
1.031838492e+00,9.90647e-01,9.99999e-01,9.98207e-01,9.92429e-01,9.99996e-01
1.036997685e+00,9.91522e-01,9.99999e-01,9.98936e-01,9.92578e-01,9.99999e-01
1.042182673e+00,9.91469e-01,9.99999e-01,9.98735e-01,9.92724e-01,9.99999e-01
1.047393587e+00,9.91200e-01,9.99999e-01,9.98320e-01,9.92867e-01,9.99999e-01
1.052630555e+00,9.90722e-01,9.99999e-01,9.97698e-01,9.93008e-01,9.99998e-01
1.057893707e+00,9.89336e-01,9.99999e-01,9.96164e-01,9.93145e-01,9.99998e-01
1.063183176e+00,9.87010e-01,9.99999e-01,9.93690e-01,9.93280e-01,9.99996e-01
1.068499092e+00,9.82921e-01,9.99999e-01,9.89445e-01,9.93413e-01,9.99992e-01
1.073841587e+00,9.81285e-01,9.99999e-01,9.87678e-01,9.93542e-01,9.99983e-01
1.079210795e+00,9.77923e-01,9.99999e-01,9.84194e-01,9.93669e-01,9.99957e-01
1.084606849e+00,9.70047e-01,9.99999e-01,9.76204e-01,9.93794e-01,9.99897e-01
1.090029883e+00,9.60069e-01,9.99999e-01,9.66149e-01,9.93916e-01,9.99788e-01
1.095480033e+00,9.04559e-01,9.99999e-01,9.10333e-01,9.94036e-01,9.99617e-01
1.100957433e+00,7.83276e-01,9.99999e-01,7.88436e-01,9.94153e-01,9.99296e-01
1.106462220e+00,5.48441e-01,9.99999e-01,5.52261e-01,9.94269e-01,9.98806e-01
1.111994531e+00,2.87950e-01,9.99999e-01,2.90496e-01,9.94381e-01,9.96835e-01
1.117554504e+00,1.37121e-01,9.99999e-01,1.39467e-01,9.94492e-01,9.88624e-01
1.123142276e+00,2.39321e-01,9.99999e-01,2.47237e-01,9.94601e-01,9.73235e-01
1.128757988e+00,3.80746e-01,9.99999e-01,3.94975e-01,9.94707e-01,9.69102e-01
1.134401778e+00,1.80747e-01,9.99999e-01,1.86603e-01,9.94811e-01,9.73666e-01
1.140073787e+00,5.52309e-01,9.99999e-01,5.67095e-01,9.94913e-01,9.78903e-01
1.145774156e+00,3.08846e-01,9.99999e-01,3.16510e-01,9.95014e-01,9.80671e-01
1.151503026e+00,2.76601e-01,9.99999e-01,2.80998e-01,9.95112e-01,9.89185e-01
1.157260541e+00,3.30290e-01,9.99999e-01,3.32961e-01,9.95208e-01,9.96754e-01
1.163046844e+00,4.38441e-01,9.99999e-01,4.40916e-01,9.95303e-01,9.99078e-01
1.168862078e+00,5.58705e-01,9.99999e-01,5.61555e-01,9.95395e-01,9.99525e-01
1.174706389e+00,6.96597e-01,9.99999e-01,7.00195e-01,9.95486e-01,9.99370e-01
1.180579921e+00,8.00078e-01,9.99999e-01,8.04399e-01,9.95575e-01,9.99048e-01
1.186482820e+00,8.79350e-01,9.99999e-01,8.84044e-01,9.95662e-01,9.99023e-01
1.192415234e+00,9.25945e-01,9.99999e-01,9.30579e-01,9.95747e-01,9.99268e-01
1.198377311e+00,9.36679e-01,9.99999e-01,9.41249e-01,9.95831e-01,9.99309e-01
1.204369197e+00,9.39899e-01,9.99999e-01,9.44345e-01,9.95913e-01,9.99374e-01
1.210391043e+00,9.42515e-01,9.99999e-01,9.46665e-01,9.95994e-01,9.99619e-01
1.216442998e+00,9.50410e-01,9.99999e-01,9.54378e-01,9.96073e-01,9.99766e-01
1.222525213e+00,9.60452e-01,9.99999e-01,9.64302e-01,9.96150e-01,9.99854e-01
1.228637839e+00,9.71343e-01,9.99999e-01,9.75087e-01,9.96226e-01,9.99932e-01
1.234781029e+00,9.77779e-01,9.99999e-01,9.81427e-01,9.96301e-01,9.99980e-01
1.240954934e+00,9.84637e-01,9.99999e-01,9.88225e-01,9.96373e-01,9.99994e-01
1.247159708e+00,9.87289e-01,9.99999e-01,9.90814e-01,9.96445e-01,9.99996e-01
1.253395507e+00,9.88389e-01,9.99999e-01,9.91849e-01,9.96515e-01,9.99995e-01
1.259662485e+00,9.88873e-01,9.99999e-01,9.92269e-01,9.96584e-01,9.99992e-01
1.265960797e+00,9.84334e-01,9.99999e-01,9.87653e-01,9.96651e-01,9.99987e-01
1.272290601e+00,9.78682e-01,9.99999e-01,9.81926e-01,9.96717e-01,9.99978e-01
1.278652054e+00,9.59051e-01,9.99999e-01,9.62183e-01,9.96782e-01,9.99962e-01
1.285045314e+00,9.38185e-01,9.99999e-01,9.41219e-01,9.96845e-01,9.99929e-01
1.291470541e+00,8.82415e-01,9.99999e-01,8.85260e-01,9.96907e-01,9.99876e-01
1.297927893e+00,8.50319e-01,9.99999e-01,8.53099e-01,9.96968e-01,9.99770e-01
1.304417533e+00,8.12203e-01,9.99999e-01,8.15020e-01,9.97028e-01,9.99513e-01
1.310939621e+00,7.88796e-01,9.99999e-01,7.91890e-01,9.97087e-01,9.99001e-01
1.317494319e+00,7.71941e-01,9.99999e-01,7.75582e-01,9.97144e-01,9.98154e-01
1.324081790e+00,6.82051e-01,9.99999e-01,6.86031e-01,9.97201e-01,9.96988e-01
1.330702199e+00,2.74475e-01,9.99999e-01,2.76665e-01,9.97256e-01,9.94812e-01
1.337355710e+00,2.83524e-02,9.99999e-01,2.87150e-02,9.97310e-01,9.90034e-01
1.344042489e+00,8.95653e-04,9.99999e-01,9.25521e-04,9.97363e-01,9.70285e-01
1.350762701e+00,2.42773e-08,9.99999e-01,2.69883e-08,9.97415e-01,9.01878e-01
1.357516515e+00,5.67553e-12,9.99999e-01,7.70440e-12,9.97466e-01,7.38531e-01
1.364304097e+00,7.24546e-08,9.99999e-01,1.23549e-07,9.97516e-01,5.87904e-01
1.371125618e+00,1.98210e-05,9.99999e-01,3.27854e-05,9.97565e-01,6.06041e-01
1.377981246e+00,7.01441e-05,9.99999e-01,1.08011e-04,9.97613e-01,6.50972e-01
1.384871152e+00,5.27755e-07,9.99999e-01,7.92595e-07,9.97660e-01,6.67418e-01
1.391795508e+00,9.53227e-08,9.99999e-01,1.40093e-07,9.97706e-01,6.81985e-01
1.398754485e+00,2.28526e-06,9.99999e-01,3.13838e-06,9.97751e-01,7.29807e-01
1.405748258e+00,2.75535e-06,9.99999e-01,3.31972e-06,9.97796e-01,8.31825e-01
1.412776999e+00,2.85226e-06,9.99999e-01,3.10913e-06,9.97839e-01,9.19367e-01
1.419840884e+00,6.33385e-06,9.99999e-01,6.58563e-06,9.97882e-01,9.63808e-01
1.426940089e+00,1.21208e-04,9.99999e-01,1.24910e-04,9.97924e-01,9.72383e-01
1.434074789e+00,8.20048e-04,9.99999e-01,8.49329e-04,9.97965e-01,9.67493e-01
1.441245163e+00,3.21620e-03,9.99999e-01,3.34007e-03,9.98005e-01,9.64838e-01
1.448451389e+00,1.83240e-02,9.99999e-01,1.89444e-02,9.98044e-01,9.69144e-01
1.455693646e+00,6.47730e-02,9.99999e-01,6.64995e-02,9.98083e-01,9.75907e-01
1.462972114e+00,8.98557e-02,9.99999e-01,9.21432e-02,9.98120e-01,9.77009e-01
1.470286975e+00,6.14063e-02,9.99999e-01,6.29423e-02,9.98157e-01,9.77396e-01
