#,Wave/freq,Total,N2,H2O,Rayleigh,CIA
4.000000000e-01,8.36597e-01,9.99999e-01,9.99979e-01,8.36614e-01,9.99999e-01
4.020000000e-01,8.39560e-01,9.99999e-01,9.99987e-01,8.39570e-01,9.99999e-01
4.040100000e-01,8.42471e-01,9.99999e-01,9.99994e-01,8.42475e-01,9.99999e-01
4.060300500e-01,8.45331e-01,9.99999e-01,9.99998e-01,8.45332e-01,9.99999e-01
4.080602003e-01,8.48142e-01,9.99999e-01,9.99999e-01,8.48143e-01,9.99999e-01
4.101005013e-01,8.50906e-01,9.99999e-01,9.99999e-01,8.50906e-01,9.99999e-01
4.121510038e-01,8.53624e-01,9.99999e-01,9.99998e-01,8.53624e-01,9.99999e-01
4.142117588e-01,8.56292e-01,9.99999e-01,9.99993e-01,8.56297e-01,9.99999e-01
4.162828176e-01,8.58904e-01,9.99999e-01,9.99974e-01,8.58925e-01,9.99999e-01
4.183642317e-01,8.61496e-01,9.99999e-01,9.99984e-01,8.61509e-01,9.99999e-01
4.204560528e-01,8.64041e-01,9.99999e-01,9.99990e-01,8.64049e-01,9.99999e-01
4.225583331e-01,8.66544e-01,9.99999e-01,9.99996e-01,8.66547e-01,9.99999e-01
4.246711247e-01,8.69000e-01,9.99999e-01,9.99996e-01,8.69002e-01,9.99999e-01
4.267944804e-01,8.71412e-01,9.99999e-01,9.99995e-01,8.71415e-01,9.99999e-01
4.289284528e-01,8.73785e-01,9.99999e-01,9.99996e-01,8.73788e-01,9.99999e-01
4.310730950e-01,8.76118e-01,9.99999e-01,9.99998e-01,8.76119e-01,9.99999e-01
4.332284605e-01,8.78411e-01,9.99999e-01,9.99999e-01,8.78411e-01,9.99999e-01
4.353946028e-01,8.80663e-01,9.99999e-01,9.99999e-01,8.80663e-01,9.99999e-01
4.375715758e-01,8.82875e-01,9.99999e-01,9.99997e-01,8.82877e-01,9.99999e-01
4.397594337e-01,8.85032e-01,9.99999e-01,9.99977e-01,8.85052e-01,9.99999e-01
4.419582309e-01,8.87090e-01,9.99999e-01,9.99888e-01,8.87189e-01,9.99999e-01
4.441680220e-01,8.89212e-01,9.99999e-01,9.99912e-01,8.89289e-01,9.99999e-01
4.463888621e-01,8.91272e-01,9.99999e-01,9.99909e-01,8.91352e-01,9.99999e-01
4.486208064e-01,8.93330e-01,9.99999e-01,9.99943e-01,8.93380e-01,9.99999e-01
4.508639105e-01,8.95348e-01,9.99999e-01,9.99973e-01,8.95372e-01,9.99999e-01
4.531182300e-01,8.97319e-01,9.99999e-01,9.99989e-01,8.97328e-01,9.99999e-01
4.553838212e-01,8.99244e-01,9.99999e-01,9.99992e-01,8.99250e-01,9.99999e-01
4.576607403e-01,9.01136e-01,9.99999e-01,9.99996e-01,9.01139e-01,9.99999e-01
4.599490440e-01,9.02991e-01,9.99999e-01,9.99997e-01,9.02993e-01,9.99999e-01
4.622487892e-01,9.04815e-01,9.99999e-01,9.99999e-01,9.04815e-01,9.99999e-01
4.645600332e-01,9.06603e-01,9.99999e-01,9.99997e-01,9.06605e-01,9.99999e-01
4.668828333e-01,9.08338e-01,9.99999e-01,9.99972e-01,9.08362e-01,9.99999e-01
4.692172475e-01,9.10037e-01,9.99999e-01,9.99942e-01,9.10088e-01,9.99999e-01
4.715633337e-01,9.11750e-01,9.99999e-01,9.99962e-01,9.11783e-01,9.99999e-01
4.739211504e-01,9.13416e-01,9.99999e-01,9.99964e-01,9.13448e-01,9.99999e-01
4.762907561e-01,9.15066e-01,9.99999e-01,9.99981e-01,9.15083e-01,9.99999e-01
4.786722099e-01,9.16682e-01,9.99999e-01,9.99992e-01,9.16688e-01,9.99999e-01
4.810655710e-01,9.18263e-01,9.99999e-01,9.99997e-01,9.18265e-01,9.99999e-01
4.834708988e-01,9.19793e-01,9.99999e-01,9.99977e-01,9.19813e-01,9.99999e-01
4.858882533e-01,9.21296e-01,9.99999e-01,9.99959e-01,9.21333e-01,9.99999e-01
4.883176946e-01,9.22794e-01,9.99999e-01,9.99965e-01,9.22825e-01,9.99999e-01
4.907592831e-01,9.24262e-01,9.99999e-01,9.99969e-01,9.24290e-01,9.99999e-01
4.932130795e-01,9.25709e-01,9.99999e-01,9.99977e-01,9.25729e-01,9.99999e-01
4.956791449e-01,9.27130e-01,9.99999e-01,9.99988e-01,9.27141e-01,9.99999e-01
4.981575406e-01,9.28474e-01,9.99999e-01,9.99942e-01,9.28527e-01,9.99999e-01
5.006483283e-01,9.29750e-01,9.99999e-01,9.99851e-01,9.29888e-01,9.99998e-01
5.031515699e-01,9.30520e-01,9.99999e-01,9.99250e-01,9.31224e-01,9.99991e-01
5.056673278e-01,9.32159e-01,9.99999e-01,9.99604e-01,9.32536e-01,9.99990e-01
5.081956644e-01,9.33353e-01,9.99999e-01,9.99501e-01,9.33823e-01,9.99993e-01
5.107366428e-01,9.34772e-01,9.99999e-01,9.99663e-01,9.35087e-01,9.99998e-01
5.132903260e-01,9.36148e-01,9.99999e-01,9.99807e-01,9.36328e-01,9.99999e-01
5.158567776e-01,9.37469e-01,9.99999e-01,9.99918e-01,9.37545e-01,9.99999e-01
5.184360615e-01,9.38710e-01,9.99999e-01,9.99967e-01,9.38740e-01,9.99999e-01
5.210282418e-01,9.39902e-01,9.99999e-01,9.99987e-01,9.39913e-01,9.99999e-01
5.236333830e-01,9.41018e-01,9.99999e-01,9.99950e-01,9.41064e-01,9.99999e-01
5.262515499e-01,9.42165e-01,9.99999e-01,9.99969e-01,9.42194e-01,9.99999e-01
5.288828077e-01,9.43276e-01,9.99999e-01,9.99971e-01,9.43303e-01,9.99999e-01
5.315272217e-01,9.44368e-01,9.99999e-01,9.99974e-01,9.44391e-01,9.99999e-01
5.341848578e-01,9.45444e-01,9.99999e-01,9.99983e-01,9.45459e-01,9.99999e-01
5.368557821e-01,9.46453e-01,9.99999e-01,9.99942e-01,9.46507e-01,9.99999e-01
5.395400610e-01,9.47339e-01,9.99999e-01,9.99794e-01,9.47535e-01,9.99997e-01
5.422377613e-01,9.48289e-01,9.99999e-01,9.99734e-01,9.48544e-01,9.99994e-01
5.449489501e-01,9.49296e-01,9.99999e-01,9.99753e-01,9.49535e-01,9.99994e-01
5.476736949e-01,9.50297e-01,9.99999e-01,9.99781e-01,9.50506e-01,9.99997e-01
5.504120634e-01,9.51309e-01,9.99999e-01,9.99841e-01,9.51460e-01,9.99998e-01
5.531641237e-01,9.52319e-01,9.99999e-01,9.99919e-01,9.52395e-01,9.99999e-01
5.559299443e-01,9.53277e-01,9.99999e-01,9.99961e-01,9.53313e-01,9.99999e-01
5.587095940e-01,9.54191e-01,9.99999e-01,9.99975e-01,9.54214e-01,9.99999e-01
5.615031420e-01,9.55072e-01,9.99999e-01,9.99972e-01,9.55098e-01,9.99999e-01
5.643106577e-01,9.55935e-01,9.99999e-01,9.99969e-01,9.55965e-01,9.99999e-01
5.671322110e-01,9.56457e-01,9.99999e-01,9.99628e-01,9.56816e-01,9.99996e-01
5.699678720e-01,9.57264e-01,9.99999e-01,9.99606e-01,9.57650e-01,9.99989e-01
5.728177114e-01,9.58068e-01,9.99999e-01,9.99589e-01,9.58469e-01,9.99991e-01
5.756818000e-01,9.58907e-01,9.99999e-01,9.99623e-01,9.59272e-01,9.99994e-01
5.785602090e-01,9.59745e-01,9.99999e-01,9.99671e-01,9.60061e-01,9.99997e-01
5.814530100e-01,9.60517e-01,9.99999e-01,9.99670e-01,9.60834e-01,9.99998e-01
5.843602750e-01,9.61212e-01,9.99999e-01,9.99606e-01,9.61592e-01,9.99997e-01
5.872820764e-01,9.59055e-01,9.99999e-01,9.96613e-01,9.62337e-01,9.99975e-01
5.902184868e-01,9.59061e-01,9.99999e-01,9.95904e-01,9.63067e-01,9.99934e-01
5.931695792e-01,9.60932e-01,9.99999e-01,9.97103e-01,9.63783e-01,9.99937e-01
5.961354271e-01,9.61391e-01,9.99999e-01,9.96827e-01,9.64485e-01,9.99963e-01
5.991161043e-01,9.62931e-01,9.99999e-01,9.97685e-01,9.65174e-01,9.99988e-01
6.021116848e-01,9.64581e-01,9.99999e-01,9.98686e-01,9.65850e-01,9.99998e-01
6.051222432e-01,9.65871e-01,9.99999e-01,9.99335e-01,9.66513e-01,9.99999e-01
6.081478544e-01,9.66887e-01,9.99999e-01,9.99712e-01,9.67164e-01,9.99999e-01
6.111885937e-01,9.67685e-01,9.99999e-01,9.99878e-01,9.67802e-01,9.99999e-01
6.142445367e-01,9.68375e-01,9.99999e-01,9.99945e-01,9.68428e-01,9.99999e-01
6.173157594e-01,9.69013e-01,9.99999e-01,9.99969e-01,9.69042e-01,9.99999e-01
6.204023382e-01,9.69619e-01,9.99999e-01,9.99974e-01,9.69644e-01,9.99999e-01
6.235043498e-01,9.70126e-01,9.99999e-01,9.99887e-01,9.70234e-01,9.99999e-01
6.266218716e-01,9.70237e-01,9.99999e-01,9.99409e-01,9.70814e-01,9.99995e-01
6.297549810e-01,9.71164e-01,9.99999e-01,9.99783e-01,9.71382e-01,9.99991e-01
6.329037559e-01,9.71517e-01,9.99999e-01,9.99572e-01,9.71939e-01,9.99992e-01
6.360682746e-01,9.72128e-01,9.99999e-01,9.99635e-01,9.72486e-01,9.99995e-01
6.392486160e-01,9.72561e-01,9.99999e-01,9.99527e-01,9.73022e-01,9.99997e-01
6.424448591e-01,9.72929e-01,9.99999e-01,9.99367e-01,9.73547e-01,9.99996e-01
6.456570834e-01,9.71190e-01,9.99999e-01,9.97066e-01,9.74063e-01,9.99983e-01
6.488853688e-01,9.72434e-01,9.99999e-01,9.97854e-01,9.74569e-01,9.99954e-01
6.521297956e-01,9.72897e-01,9.99999e-01,9.97813e-01,9.75065e-01,9.99962e-01
6.553904446e-01,9.73400e-01,9.99999e-01,9.97822e-01,9.75551e-01,9.99971e-01
6.586673968e-01,9.74200e-01,9.99999e-01,9.98135e-01,9.76028e-01,9.99990e-01
6.619607338e-01,9.75480e-01,9.99999e-01,9.98961e-01,9.76496e-01,9.99997e-01
6.652705375e-01,9.76345e-01,9.99999e-01,9.99376e-01,9.76955e-01,9.99998e-01
6.685968902e-01,9.77122e-01,9.99999e-01,9.99710e-01,9.77405e-01,9.99999e-01
6.719398746e-01,9.77715e-01,9.99999e-01,9.99865e-01,9.77846e-01,9.99999e-01
6.752995740e-01,9.78208e-01,9.99999e-01,9.99926e-01,9.78279e-01,9.99999e-01
6.786760719e-01,9.78600e-01,9.99999e-01,9.99894e-01,9.78703e-01,9.99999e-01
6.820694522e-01,9.78943e-01,9.99999e-01,9.99819e-01,9.79120e-01,9.99998e-01
6.854797995e-01,9.79299e-01,9.99999e-01,9.99767e-01,9.79528e-01,9.99997e-01
6.889071985e-01,9.79371e-01,9.99999e-01,9.99436e-01,9.79928e-01,9.99994e-01
6.923517345e-01,9.71299e-01,9.99999e-01,9.90840e-01,9.80321e-01,9.99955e-01
6.958134932e-01,9.75947e-01,9.99999e-01,9.95244e-01,9.80706e-01,9.99902e-01
6.992925606e-01,9.76551e-01,9.99999e-01,9.95467e-01,9.81083e-01,9.99911e-01
7.027890234e-01,9.75905e-01,9.99999e-01,9.94412e-01,9.81453e-01,9.99932e-01
7.063029686e-01,9.77170e-01,9.99999e-01,9.95300e-01,9.81816e-01,9.99966e-01
7.098344834e-01,9.77725e-01,9.99999e-01,9.95491e-01,9.82172e-01,9.99979e-01
7.133836558e-01,9.76569e-01,9.99999e-01,9.93980e-01,9.82521e-01,9.99960e-01
7.169505741e-01,9.35922e-01,9.99999e-01,9.52533e-01,9.82863e-01,9.99691e-01
7.205353270e-01,9.59641e-01,9.99999e-01,9.76569e-01,9.83199e-01,9.99456e-01
7.241380036e-01,9.53831e-01,9.99999e-01,9.70260e-01,9.83528e-01,9.99530e-01
7.277586936e-01,9.57047e-01,9.99999e-01,9.73128e-01,9.83851e-01,9.99615e-01
7.313974871e-01,9.55936e-01,9.99999e-01,9.71489e-01,9.84167e-01,9.99819e-01
7.350544745e-01,9.68991e-01,9.99999e-01,9.84330e-01,9.84477e-01,9.99937e-01
7.387297469e-01,9.73382e-01,9.99999e-01,9.88451e-01,9.84782e-01,9.99970e-01
7.424233956e-01,9.79498e-01,9.99999e-01,9.94337e-01,9.85080e-01,9.99993e-01
7.461355126e-01,9.81987e-01,9.99999e-01,9.96565e-01,9.85373e-01,9.99998e-01
7.498661902e-01,9.84083e-01,9.99999e-01,9.98400e-01,9.85659e-01,9.99999e-01
7.536155211e-01,9.85167e-01,9.99999e-01,9.99214e-01,9.85941e-01,9.99999e-01
7.573835987e-01,9.85818e-01,9.99999e-01,9.99595e-01,9.86216e-01,9.99999e-01
7.611705167e-01,9.86239e-01,9.99999e-01,9.99748e-01,9.86487e-01,9.99999e-01
7.649763693e-01,9.86597e-01,9.99999e-01,9.99842e-01,9.86752e-01,9.99999e-01
7.688012511e-01,9.86904e-01,9.99999e-01,9.99889e-01,9.87012e-01,9.99999e-01
7.726452574e-01,9.87178e-01,9.99999e-01,9.99909e-01,9.87267e-01,9.99999e-01
7.765084837e-01,9.87390e-01,9.99999e-01,9.99871e-01,9.87517e-01,9.99999e-01
7.803910261e-01,9.87213e-01,9.99999e-01,9.99444e-01,9.87762e-01,9.99998e-01
7.842929812e-01,9.86086e-01,9.99999e-01,9.98063e-01,9.88002e-01,9.99995e-01
7.882144461e-01,9.84276e-01,9.99999e-01,9.96018e-01,9.88238e-01,9.99972e-01
7.921555184e-01,9.86264e-01,9.99999e-01,9.97816e-01,9.88469e-01,9.99952e-01
7.961162960e-01,9.84832e-01,9.99999e-01,9.96136e-01,9.88695e-01,9.99954e-01
8.000968774e-01,9.84463e-01,9.99999e-01,9.95543e-01,9.88917e-01,9.99951e-01
8.040973618e-01,9.84687e-01,9.99999e-01,9.95540e-01,9.89135e-01,9.99961e-01
8.081178486e-01,9.79379e-01,9.99999e-01,9.89958e-01,9.89348e-01,9.99963e-01
8.121584379e-01,9.48615e-01,9.99999e-01,9.58759e-01,9.89557e-01,9.99858e-01
8.162192301e-01,9.41050e-01,9.99999e-01,9.51286e-01,9.89763e-01,9.99470e-01
8.203003262e-01,9.64954e-01,9.99999e-01,9.75340e-01,9.89964e-01,9.99380e-01
8.244018279e-01,9.55837e-01,9.99999e-01,9.65810e-01,9.90161e-01,9.99506e-01
8.285238370e-01,9.60900e-01,9.99999e-01,9.70633e-01,9.90354e-01,9.99612e-01
8.326664562e-01,9.61004e-01,9.99999e-01,9.70332e-01,9.90544e-01,9.99839e-01
8.368297885e-01,9.69634e-01,9.99999e-01,9.78741e-01,9.90730e-01,9.99962e-01
8.410139374e-01,9.78329e-01,9.99999e-01,9.87321e-01,9.90912e-01,9.99978e-01
8.452190071e-01,9.84902e-01,9.99999e-01,9.93767e-01,9.91091e-01,9.99986e-01
8.494451021e-01,9.87667e-01,9.99999e-01,9.96378e-01,9.91266e-01,9.99989e-01
8.536923276e-01,9.89309e-01,9.99999e-01,9.97858e-01,9.91438e-01,9.99993e-01
8.579607893e-01,9.90297e-01,9.99999e-01,9.98680e-01,9.91606e-01,9.99998e-01
8.622505932e-01,9.90940e-01,9.99999e-01,9.99161e-01,9.91771e-01,9.99999e-01
8.665618462e-01,9.91419e-01,9.99999e-01,9.99481e-01,9.91933e-01,9.99999e-01
8.708946554e-01,9.91502e-01,9.99999e-01,9.99405e-01,9.92092e-01,9.99999e-01
8.752491287e-01,9.91458e-01,9.99999e-01,9.99205e-01,9.92247e-01,9.99998e-01
8.796253743e-01,9.91305e-01,9.99999e-01,9.98898e-01,9.92400e-01,9.99997e-01
8.840235012e-01,9.91294e-01,9.99999e-01,9.98742e-01,9.92550e-01,9.99991e-01
8.884436187e-01,9.88112e-01,9.99999e-01,9.95403e-01,9.92696e-01,9.99977e-01
8.928858368e-01,9.45669e-01,9.99999e-01,9.52607e-01,9.92840e-01,9.99874e-01
8.973502660e-01,9.10731e-01,9.99999e-01,9.17759e-01,9.92981e-01,9.99356e-01
9.018370173e-01,9.49642e-01,9.99999e-01,9.57188e-01,9.93119e-01,9.98988e-01
9.063462024e-01,9.54809e-01,9.99999e-01,9.62147e-01,9.93254e-01,9.99111e-01
9.108779334e-01,9.34545e-01,9.99999e-01,9.41634e-01,9.93387e-01,9.99076e-01
9.154323231e-01,9.27235e-01,9.99999e-01,9.33997e-01,9.93517e-01,9.99236e-01
9.200094847e-01,9.41515e-01,9.99999e-01,9.47941e-01,9.93645e-01,9.99572e-01
9.246095321e-01,9.13286e-01,9.99999e-01,9.19462e-01,9.93770e-01,9.99507e-01
9.292325798e-01,5.66968e-01,9.99999e-01,5.71548e-01,9.93893e-01,9.98081e-01
9.338787427e-01,4.79919e-01,9.99999e-01,4.86655e-01,9.94013e-01,9.92096e-01
9.385481364e-01,7.36473e-01,9.99999e-01,7.47845e-01,9.94131e-01,9.90606e-01
9.432408771e-01,6.58311e-01,9.99999e-01,6.67533e-01,9.94246e-01,9.91891e-01
9.479570815e-01,5.66351e-01,9.99999e-01,5.73349e-01,9.94360e-01,9.93395e-01
9.526968669e-01,6.52384e-01,9.99999e-01,6.58668e-01,9.94471e-01,9.95966e-01
9.574603512e-01,6.75337e-01,9.99999e-01,6.80412e-01,9.94580e-01,9.97948e-01
9.622476530e-01,7.26029e-01,9.99999e-01,7.30943e-01,9.94686e-01,9.98580e-01
9.670588912e-01,8.29511e-01,9.99999e-01,8.34664e-01,9.94791e-01,9.99029e-01
9.718941857e-01,8.87908e-01,9.99999e-01,8.93102e-01,9.94894e-01,9.99285e-01
9.767536566e-01,9.05368e-01,9.99999e-01,9.10419e-01,9.94994e-01,9.99453e-01
9.816374249e-01,9.28096e-01,9.99999e-01,9.32848e-01,9.95093e-01,9.99810e-01
9.865456120e-01,9.52867e-01,9.99999e-01,9.57510e-01,9.95190e-01,9.99960e-01
9.914783401e-01,9.68922e-01,9.99999e-01,9.73522e-01,9.95284e-01,9.99988e-01
9.964357318e-01,9.80935e-01,9.99999e-01,9.85496e-01,9.95377e-01,9.99993e-01
1.001417910e+00,9.86783e-01,9.99999e-01,9.91284e-01,9.95468e-01,9.99989e-01
1.006425000e+00,9.90589e-01,9.99999e-01,9.95022e-01,9.95558e-01,9.99985e-01
1.011457125e+00,9.92556e-01,9.99999e-01,9.96909e-01,9.95645e-01,9.99986e-01
1.016514411e+00,9.93632e-01,9.99999e-01,9.97900e-01,9.95731e-01,9.99990e-01
1.021596983e+00,9.94140e-01,9.99999e-01,9.98326e-01,9.95815e-01,9.99990e-01
1.026704968e+00,9.94592e-01,9.99999e-01,9.98694e-01,9.95898e-01,9.99993e-01
1.031838492e+00,9.95032e-01,9.99999e-01,9.99051e-01,9.95978e-01,9.99997e-01
1.036997685e+00,9.95496e-01,9.99999e-01,9.99436e-01,9.96058e-01,9.99999e-01
1.042182673e+00,9.95466e-01,9.99999e-01,9.99327e-01,9.96135e-01,9.99999e-01
1.047393587e+00,9.95324e-01,9.99999e-01,9.99108e-01,9.96212e-01,9.99999e-01
1.052630555e+00,9.95068e-01,9.99999e-01,9.98776e-01,9.96286e-01,9.99999e-01
1.057893707e+00,9.94324e-01,9.99999e-01,9.97957e-01,9.96359e-01,9.99998e-01
1.063183176e+00,9.93083e-01,9.99999e-01,9.96641e-01,9.96431e-01,9.99997e-01
1.068499092e+00,9.90899e-01,9.99999e-01,9.94381e-01,9.96502e-01,9.99995e-01
1.073841587e+00,9.90009e-01,9.99999e-01,9.93424e-01,9.96571e-01,9.99991e-01
1.079210795e+00,9.88229e-01,9.99999e-01,9.91584e-01,9.96638e-01,9.99977e-01
1.084606849e+00,9.83975e-01,9.99999e-01,9.87281e-01,9.96704e-01,9.99945e-01
1.090029883e+00,9.78478e-01,9.99999e-01,9.81759e-01,9.96769e-01,9.99887e-01
1.095480033e+00,9.47883e-01,9.99999e-01,9.51086e-01,9.96833e-01,9.99796e-01
1.100957433e+00,8.77271e-01,9.99999e-01,8.80331e-01,9.96896e-01,9.99626e-01
1.106462220e+00,7.20986e-01,9.99999e-01,7.23644e-01,9.96957e-01,9.99366e-01
1.111994531e+00,5.05349e-01,9.99999e-01,5.07713e-01,9.97017e-01,9.98320e-01
1.117554504e+00,3.32062e-01,9.99999e-01,3.35062e-01,9.97076e-01,9.93951e-01
1.123142276e+00,4.42816e-01,9.99999e-01,4.50523e-01,9.97133e-01,9.85715e-01
1.128757988e+00,5.86166e-01,9.99999e-01,5.97682e-01,9.97190e-01,9.83494e-01
1.134401778e+00,3.32913e-01,9.99999e-01,3.38591e-01,9.97245e-01,9.85947e-01
1.140073787e+00,7.24293e-01,9.99999e-01,7.34512e-01,9.97299e-01,9.88756e-01
1.145774156e+00,5.20549e-01,9.99999e-01,5.27360e-01,9.97353e-01,9.89703e-01
1.151503026e+00,4.86794e-01,9.99999e-01,4.90882e-01,9.97405e-01,9.94250e-01
1.157260541e+00,5.47793e-01,9.99999e-01,5.50137e-01,9.97456e-01,9.98277e-01
1.163046844e+00,6.40839e-01,9.99999e-01,6.42754e-01,9.97506e-01,9.99511e-01
1.168862078e+00,7.33193e-01,9.99999e-01,7.35174e-01,9.97555e-01,9.99747e-01
1.174706389e+00,8.24801e-01,9.99999e-01,8.27057e-01,9.97604e-01,9.99665e-01
1.180579921e+00,8.88251e-01,9.99999e-01,8.90791e-01,9.97651e-01,9.99495e-01
1.186482820e+00,9.34089e-01,9.99999e-01,9.36729e-01,9.97697e-01,9.99481e-01
1.192415234e+00,9.60032e-01,9.99999e-01,9.62576e-01,9.97743e-01,9.99611e-01
1.198377311e+00,9.65860e-01,9.99999e-01,9.68356e-01,9.97787e-01,9.99633e-01
1.204369197e+00,9.67611e-01,9.99999e-01,9.70035e-01,9.97831e-01,9.99668e-01
1.210391043e+00,9.69067e-01,9.99999e-01,9.71327e-01,9.97874e-01,9.99797e-01
1.216442998e+00,9.73413e-01,9.99999e-01,9.75565e-01,9.97916e-01,9.99876e-01
1.222525213e+00,9.78847e-01,9.99999e-01,9.80925e-01,9.97957e-01,9.99922e-01
1.228637839e+00,9.84706e-01,9.99999e-01,9.86717e-01,9.97997e-01,9.99963e-01
1.234781029e+00,9.88169e-01,9.99999e-01,9.90123e-01,9.98036e-01,9.99989e-01
1.240954934e+00,9.91829e-01,9.99999e-01,9.93743e-01,9.98075e-01,9.99996e-01
1.247159708e+00,9.93247e-01,9.99999e-01,9.95126e-01,9.98113e-01,9.99997e-01
1.253395507e+00,9.93828e-01,9.99999e-01,9.95671e-01,9.98150e-01,9.99997e-01
1.259662485e+00,9.94077e-01,9.99999e-01,9.95886e-01,9.98187e-01,9.99995e-01
1.265960797e+00,9.91664e-01,9.99999e-01,9.93435e-01,9.98223e-01,9.99993e-01
1.272290601e+00,9.87964e-01,9.99999e-01,9.89699e-01,9.98258e-01,9.99988e-01
1.278652054e+00,9.77923e-01,9.99999e-01,9.79614e-01,9.98292e-01,9.99979e-01
1.285045314e+00,9.61659e-01,9.99999e-01,9.63307e-01,9.98326e-01,9.99962e-01
1.291470541e+00,9.35327e-01,9.99999e-01,9.36925e-01,9.98359e-01,9.99934e-01
1.297927893e+00,9.16938e-01,9.99999e-01,9.18526e-01,9.98391e-01,9.99877e-01
1.304417533e+00,8.94844e-01,9.99999e-01,8.96488e-01,9.98423e-01,9.99741e-01
1.310939621e+00,8.80404e-01,9.99999e-01,8.82234e-01,9.98454e-01,9.99470e-01
1.317494319e+00,8.70973e-01,9.99999e-01,8.73149e-01,9.98484e-01,9.99020e-01
1.324081790e+00,8.13742e-01,9.99999e-01,8.16256e-01,9.98514e-01,9.98401e-01
1.330702199e+00,4.50969e-01,9.99999e-01,4.52873e-01,9.98544e-01,9.97245e-01
1.337355710e+00,1.29168e-01,9.99999e-01,1.30041e-01,9.98572e-01,9.94702e-01
1.344042489e+00,7.71557e-03,9.99999e-01,7.85096e-03,9.98601e-01,9.84130e-01
1.350762701e+00,3.48283e-05,9.99999e-01,3.68394e-05,9.98628e-01,9.46705e-01
1.357516515e+00,4.89747e-07,9.99999e-01,5.75917e-07,9.98655e-01,8.51522e-01
1.364304097e+00,7.35116e-05,9.99999e-01,9.75585e-05,9.98682e-01,7.54506e-01
1.371125618e+00,1.53803e-03,9.99999e-01,2.00847e-03,9.98708e-01,7.66762e-01
1.377981246e+00,3.93036e-03,9.99999e-01,4.94141e-03,9.98733e-01,7.96401e-01
1.384871152e+00,1.10656e-04,9.99999e-01,1.36975e-04,9.98758e-01,8.08858e-01
1.391795508e+00,1.06741e-04,9.99999e-01,1.30821e-04,9.98783e-01,8.16925e-01
1.398754485e+00,5.10717e-04,9.99999e-01,6.04281e-04,9.98807e-01,8.46173e-01
1.405748258e+00,4.92542e-04,9.99999e-01,5.43698e-04,9.98830e-01,9.06970e-01
1.412776999e+00,5.30755e-04,9.99999e-01,5.55589e-04,9.98853e-01,9.56396e-01
1.419840884e+00,9.26760e-04,9.99999e-01,9.46117e-04,9.98876e-01,9.80641e-01
1.426940089e+00,4.17142e-03,9.99999e-01,4.23850e-03,9.98898e-01,9.85258e-01
1.434074789e+00,1.51643e-02,9.99999e-01,1.54491e-02,9.98920e-01,9.82627e-01
1.441245163e+00,3.82306e-02,9.99999e-01,3.90045e-02,9.98941e-01,9.81196e-01
1.448451389e+00,9.89914e-02,9.99999e-01,1.00755e-01,9.98962e-01,9.83516e-01
1.455693646e+00,2.13509e-01,9.99999e-01,2.16508e-01,9.98983e-01,9.87150e-01
1.462972114e+00,2.62885e-01,9.99999e-01,2.66413e-01,9.99003e-01,9.87741e-01
1.470286975e+00,2.11370e-01,9.99999e-01,2.14157e-01,9.99022e-01,9.87948e-01
