#,Wave/freq,Total,N2,H2O,Rayleigh,CIA
4.000000000e-01,7.73680e-01,9.99999e-01,9.99970e-01,7.73702e-01,9.99999e-01
4.020000000e-01,7.77623e-01,9.99999e-01,9.99981e-01,7.77637e-01,9.99999e-01
4.040100000e-01,7.81504e-01,9.99999e-01,9.99991e-01,7.81510e-01,9.99999e-01
4.060300500e-01,7.85323e-01,9.99999e-01,9.99997e-01,7.85325e-01,9.99999e-01
4.080602003e-01,7.89082e-01,9.99999e-01,9.99998e-01,7.89082e-01,9.99999e-01
4.101005013e-01,7.92783e-01,9.99999e-01,9.99999e-01,7.92783e-01,9.99999e-01
4.121510038e-01,7.96427e-01,9.99999e-01,9.99998e-01,7.96428e-01,9.99999e-01
4.142117588e-01,8.00010e-01,9.99999e-01,9.99991e-01,8.00016e-01,9.99999e-01
4.162828176e-01,8.03521e-01,9.99999e-01,9.99963e-01,8.03550e-01,9.99999e-01
4.183642317e-01,8.07012e-01,9.99999e-01,9.99978e-01,8.07029e-01,9.99999e-01
4.204560528e-01,8.10443e-01,9.99999e-01,9.99986e-01,8.10454e-01,9.99999e-01
4.225583331e-01,8.13821e-01,9.99999e-01,9.99994e-01,8.13825e-01,9.99999e-01
4.246711247e-01,8.17140e-01,9.99999e-01,9.99995e-01,8.17144e-01,9.99999e-01
4.267944804e-01,8.20405e-01,9.99999e-01,9.99993e-01,8.20409e-01,9.99999e-01
4.289284528e-01,8.23620e-01,9.99999e-01,9.99995e-01,8.23624e-01,9.99999e-01
4.310730950e-01,8.26785e-01,9.99999e-01,9.99997e-01,8.26786e-01,9.99999e-01
4.332284605e-01,8.29898e-01,9.99999e-01,9.99999e-01,8.29899e-01,9.99999e-01
4.353946028e-01,8.32960e-01,9.99999e-01,9.99999e-01,8.32961e-01,9.99999e-01
4.375715758e-01,8.35970e-01,9.99999e-01,9.99995e-01,8.35973e-01,9.99999e-01
4.397594337e-01,8.38910e-01,9.99999e-01,9.99967e-01,8.38937e-01,9.99999e-01
4.419582309e-01,8.41715e-01,9.99999e-01,9.99837e-01,8.41852e-01,9.99999e-01
4.441680220e-01,8.44615e-01,9.99999e-01,9.99875e-01,8.44719e-01,9.99999e-01
4.463888621e-01,8.47430e-01,9.99999e-01,9.99869e-01,8.47540e-01,9.99999e-01
4.486208064e-01,8.50245e-01,9.99999e-01,9.99919e-01,8.50314e-01,9.99999e-01
4.508639105e-01,8.53009e-01,9.99999e-01,9.99961e-01,8.53041e-01,9.99999e-01
4.531182300e-01,8.55711e-01,9.99999e-01,9.99984e-01,8.55724e-01,9.99999e-01
4.553838212e-01,8.58353e-01,9.99999e-01,9.99989e-01,8.58361e-01,9.99999e-01
4.576607403e-01,8.60951e-01,9.99999e-01,9.99994e-01,8.60955e-01,9.99999e-01
4.599490440e-01,8.63502e-01,9.99999e-01,9.99996e-01,8.63505e-01,9.99999e-01
4.622487892e-01,8.66011e-01,9.99999e-01,9.99998e-01,8.66011e-01,9.99999e-01
4.645600332e-01,8.68474e-01,9.99999e-01,9.99997e-01,8.68476e-01,9.99999e-01
4.668828333e-01,8.70865e-01,9.99999e-01,9.99961e-01,8.70898e-01,9.99999e-01
4.692172475e-01,8.73208e-01,9.99999e-01,9.99918e-01,8.73279e-01,9.99999e-01
4.715633337e-01,8.75573e-01,9.99999e-01,9.99946e-01,8.75620e-01,9.99999e-01
4.739211504e-01,8.77875e-01,9.99999e-01,9.99948e-01,8.77920e-01,9.99999e-01
4.762907561e-01,8.80157e-01,9.99999e-01,9.99973e-01,8.80180e-01,9.99999e-01
4.786722099e-01,8.82393e-01,9.99999e-01,9.99988e-01,8.82402e-01,9.99999e-01
4.810655710e-01,8.84583e-01,9.99999e-01,9.99996e-01,8.84585e-01,9.99999e-01
4.834708988e-01,8.86702e-01,9.99999e-01,9.99967e-01,8.86731e-01,9.99999e-01
4.858882533e-01,8.88788e-01,9.99999e-01,9.99942e-01,8.88839e-01,9.99999e-01
4.883176946e-01,8.90867e-01,9.99999e-01,9.99951e-01,8.90910e-01,9.99999e-01
4.907592831e-01,8.92906e-01,9.99999e-01,9.99956e-01,8.92945e-01,9.99999e-01
4.932130795e-01,8.94917e-01,9.99999e-01,9.99968e-01,8.94945e-01,9.99999e-01
4.956791449e-01,8.96894e-01,9.99999e-01,9.99983e-01,8.96909e-01,9.99999e-01
4.981575406e-01,8.98764e-01,9.99999e-01,9.99917e-01,8.98838e-01,9.99999e-01
5.006483283e-01,9.00539e-01,9.99999e-01,9.99784e-01,9.00734e-01,9.99998e-01
5.031515699e-01,9.01612e-01,9.99999e-01,9.98920e-01,9.02596e-01,9.99988e-01
5.056673278e-01,9.03900e-01,9.99999e-01,9.99432e-01,9.04425e-01,9.99986e-01
5.081956644e-01,9.05566e-01,9.99999e-01,9.99284e-01,9.06221e-01,9.99991e-01
5.107366428e-01,9.07546e-01,9.99999e-01,9.99517e-01,9.07985e-01,9.99998e-01
5.132903260e-01,9.09468e-01,9.99999e-01,9.99724e-01,9.09718e-01,9.99999e-01
5.158567776e-01,9.11314e-01,9.99999e-01,9.99883e-01,9.11420e-01,9.99999e-01
5.184360615e-01,9.13049e-01,9.99999e-01,9.99953e-01,9.13091e-01,9.99999e-01
5.210282418e-01,9.14717e-01,9.99999e-01,9.99982e-01,9.14733e-01,9.99999e-01
5.236333830e-01,9.16280e-01,9.99999e-01,9.99929e-01,9.16344e-01,9.99999e-01
5.262515499e-01,9.17886e-01,9.99999e-01,9.99955e-01,9.17927e-01,9.99998e-01
5.288828077e-01,9.19443e-01,9.99999e-01,9.99959e-01,9.19481e-01,9.99999e-01
5.315272217e-01,9.20974e-01,9.99999e-01,9.99964e-01,9.21007e-01,9.99999e-01
5.341848578e-01,9.22484e-01,9.99999e-01,9.99976e-01,9.22505e-01,9.99999e-01
5.368557821e-01,9.23900e-01,9.99999e-01,9.99917e-01,9.23976e-01,9.99999e-01
5.395400610e-01,9.25141e-01,9.99999e-01,9.99700e-01,9.25420e-01,9.99996e-01
5.422377613e-01,9.26480e-01,9.99999e-01,9.99619e-01,9.26838e-01,9.99992e-01
5.449489501e-01,9.27893e-01,9.99999e-01,9.99643e-01,9.28230e-01,9.99992e-01
5.476736949e-01,9.29303e-01,9.99999e-01,9.99687e-01,9.29596e-01,9.99996e-01
5.504120634e-01,9.30726e-01,9.99999e-01,9.99772e-01,9.30938e-01,9.99998e-01
5.531641237e-01,9.32148e-01,9.99999e-01,9.99885e-01,9.32255e-01,9.99999e-01
5.559299443e-01,9.33496e-01,9.99999e-01,9.99944e-01,9.33547e-01,9.99999e-01
5.587095940e-01,9.34784e-01,9.99999e-01,9.99964e-01,9.34816e-01,9.99999e-01
5.615031420e-01,9.36026e-01,9.99999e-01,9.99960e-01,9.36062e-01,9.99999e-01
5.643106577e-01,9.37242e-01,9.99999e-01,9.99955e-01,9.37284e-01,9.99999e-01
5.671322110e-01,9.37970e-01,9.99999e-01,9.99456e-01,9.38484e-01,9.99994e-01
5.699678720e-01,9.39121e-01,9.99999e-01,9.99438e-01,9.39662e-01,9.99985e-01
5.728177114e-01,9.40250e-01,9.99999e-01,9.99408e-01,9.40817e-01,9.99987e-01
5.756818000e-01,9.41436e-01,9.99999e-01,9.99458e-01,9.41952e-01,9.99992e-01
5.785602090e-01,9.42620e-01,9.99999e-01,9.99529e-01,9.43065e-01,9.99997e-01
5.814530100e-01,9.43710e-01,9.99999e-01,9.99525e-01,9.44158e-01,9.99998e-01
5.843602750e-01,9.44689e-01,9.99999e-01,9.99430e-01,9.45230e-01,9.99996e-01
5.872820764e-01,9.41618e-01,9.99999e-01,9.95104e-01,9.46282e-01,9.99965e-01
5.902184868e-01,9.41663e-01,9.99999e-01,9.94126e-01,9.47315e-01,9.99906e-01
5.931695792e-01,9.44294e-01,9.99999e-01,9.95834e-01,9.48328e-01,9.99909e-01
5.961354271e-01,9.44950e-01,9.99999e-01,9.95445e-01,9.49322e-01,9.99948e-01
5.991161043e-01,9.47129e-01,9.99999e-01,9.96680e-01,9.50298e-01,9.99983e-01
6.021116848e-01,9.49464e-01,9.99999e-01,9.98118e-01,9.51255e-01,9.99997e-01
6.051222432e-01,9.51289e-01,9.99999e-01,9.99047e-01,9.52195e-01,9.99999e-01
6.081478544e-01,9.52725e-01,9.99999e-01,9.99588e-01,9.53117e-01,9.99999e-01
6.111885937e-01,9.53856e-01,9.99999e-01,9.99826e-01,9.54021e-01,9.99999e-01
6.142445367e-01,9.54834e-01,9.99999e-01,9.99921e-01,9.54908e-01,9.99999e-01
6.173157594e-01,9.55738e-01,9.99999e-01,9.99956e-01,9.55779e-01,9.99999e-01
6.204023382e-01,9.56598e-01,9.99999e-01,9.99963e-01,9.56633e-01,9.99999e-01
6.235043498e-01,9.57315e-01,9.99999e-01,9.99836e-01,9.57471e-01,9.99999e-01
6.266218716e-01,9.57475e-01,9.99999e-01,9.99151e-01,9.58294e-01,9.99993e-01
6.297549810e-01,9.58790e-01,9.99999e-01,9.99688e-01,9.59100e-01,9.99987e-01
6.329037559e-01,9.59294e-01,9.99999e-01,9.99386e-01,9.59892e-01,9.99989e-01
6.360682746e-01,9.60159e-01,9.99999e-01,9.99474e-01,9.60668e-01,9.99993e-01
6.392486160e-01,9.60775e-01,9.99999e-01,9.99321e-01,9.61430e-01,9.99997e-01
6.424448591e-01,9.61292e-01,9.99999e-01,9.99083e-01,9.62177e-01,9.99995e-01
6.456570834e-01,9.58796e-01,9.99999e-01,9.95752e-01,9.62910e-01,9.99973e-01
6.488853688e-01,9.60604e-01,9.99999e-01,9.96924e-01,9.63629e-01,9.99934e-01
6.521297956e-01,9.61261e-01,9.99999e-01,9.96866e-01,9.64335e-01,9.99945e-01
6.553904446e-01,9.61963e-01,9.99999e-01,9.96864e-01,9.65027e-01,9.99959e-01
6.586673968e-01,9.63112e-01,9.99999e-01,9.97326e-01,9.65706e-01,9.99986e-01
6.619607338e-01,9.64929e-01,9.99999e-01,9.98510e-01,9.66371e-01,9.99996e-01
6.652705375e-01,9.66159e-01,9.99999e-01,9.99105e-01,9.67025e-01,9.99998e-01
6.685968902e-01,9.67298e-01,9.99999e-01,9.99620e-01,9.67665e-01,9.99999e-01
6.719398746e-01,9.68108e-01,9.99999e-01,9.99807e-01,9.68294e-01,9.99999e-01
6.752995740e-01,9.68812e-01,9.99999e-01,9.99897e-01,9.68910e-01,9.99999e-01
6.786760719e-01,9.69367e-01,9.99999e-01,9.99847e-01,9.69515e-01,9.99999e-01
6.820694522e-01,9.69853e-01,9.99999e-01,9.99738e-01,9.70108e-01,9.99998e-01
6.854797995e-01,9.70362e-01,9.99999e-01,9.99665e-01,9.70689e-01,9.99996e-01
6.889071985e-01,9.70455e-01,9.99999e-01,9.99177e-01,9.71260e-01,9.99992e-01
6.923517345e-01,9.58911e-01,9.99999e-01,9.86778e-01,9.71820e-01,9.99936e-01
6.958134932e-01,9.65676e-01,9.99999e-01,9.93256e-01,9.72368e-01,9.99859e-01
6.992925606e-01,9.66414e-01,9.99999e-01,9.93451e-01,9.72907e-01,9.99873e-01
7.027890234e-01,9.65543e-01,9.99999e-01,9.91987e-01,9.73435e-01,9.99903e-01
7.063029686e-01,9.67336e-01,9.99999e-01,9.93253e-01,9.73953e-01,9.99951e-01
7.098344834e-01,9.68125e-01,9.99999e-01,9.93526e-01,9.74460e-01,9.99971e-01
7.133836558e-01,9.66391e-01,9.99999e-01,9.91268e-01,9.74958e-01,9.99943e-01
7.169505741e-01,9.09027e-01,9.99999e-01,9.32321e-01,9.75447e-01,9.99556e-01
7.205353270e-01,9.42916e-01,9.99999e-01,9.66931e-01,9.75926e-01,9.99217e-01
7.241380036e-01,9.34240e-01,9.99999e-01,9.57471e-01,9.76396e-01,9.99324e-01
7.277586936e-01,9.38813e-01,9.99999e-01,9.61585e-01,9.76857e-01,9.99447e-01
7.313974871e-01,9.37449e-01,9.99999e-01,9.59462e-01,9.77309e-01,9.99741e-01
7.350544745e-01,9.55777e-01,9.99999e-01,9.77612e-01,9.77752e-01,9.99909e-01
7.387297469e-01,9.61998e-01,9.99999e-01,9.83490e-01,9.78186e-01,9.99958e-01
7.424233956e-01,9.70689e-01,9.99999e-01,9.91909e-01,9.78613e-01,9.99992e-01
7.461355126e-01,9.74215e-01,9.99999e-01,9.95082e-01,9.79030e-01,9.99998e-01
7.498661902e-01,9.77202e-01,9.99999e-01,9.97715e-01,9.79440e-01,9.99999e-01
7.536155211e-01,9.78740e-01,9.99999e-01,9.98875e-01,9.79842e-01,9.99999e-01
7.573835987e-01,9.79669e-01,9.99999e-01,9.99420e-01,9.80237e-01,9.99999e-01
7.611705167e-01,9.80270e-01,9.99999e-01,9.99639e-01,9.80623e-01,9.99999e-01
7.649763693e-01,9.80781e-01,9.99999e-01,9.99773e-01,9.81002e-01,9.99999e-01
7.688012511e-01,9.81219e-01,9.99999e-01,9.99842e-01,9.81374e-01,9.99999e-01
7.726452574e-01,9.81611e-01,9.99999e-01,9.99869e-01,9.81738e-01,9.99999e-01
7.765084837e-01,9.81913e-01,9.99999e-01,9.99813e-01,9.82096e-01,9.99999e-01
7.803910261e-01,9.81656e-01,9.99999e-01,9.99195e-01,9.82446e-01,9.99998e-01
7.842929812e-01,9.80029e-01,9.99999e-01,9.97194e-01,9.82790e-01,9.99994e-01
7.882144461e-01,9.77465e-01,9.99999e-01,9.94279e-01,9.83127e-01,9.99960e-01
7.921555184e-01,9.80320e-01,9.99999e-01,9.96876e-01,9.83458e-01,9.99931e-01
7.961162960e-01,9.78227e-01,9.99999e-01,9.94418e-01,9.83782e-01,9.99934e-01
8.000968774e-01,9.77729e-01,9.99999e-01,9.93594e-01,9.84099e-01,9.99930e-01
8.040973618e-01,9.78043e-01,9.99999e-01,9.93582e-01,9.84411e-01,9.99946e-01
8.081178486e-01,9.70382e-01,9.99999e-01,9.85495e-01,9.84717e-01,9.99946e-01
8.121584379e-01,9.26734e-01,9.99999e-01,9.41020e-01,9.85016e-01,9.99797e-01
8.162192301e-01,9.16715e-01,9.99999e-01,9.31089e-01,9.85310e-01,9.99239e-01
8.203003262e-01,9.49771e-01,9.99999e-01,9.64508e-01,9.85598e-01,9.99109e-01
8.244018279e-01,9.37949e-01,9.99999e-01,9.52056e-01,9.85880e-01,9.99290e-01
8.285238370e-01,9.44217e-01,9.99999e-01,9.58003e-01,9.86157e-01,9.99442e-01
8.326664562e-01,9.44530e-01,9.99999e-01,9.57744e-01,9.86429e-01,9.99769e-01
8.368297885e-01,9.56731e-01,9.99999e-01,9.69682e-01,9.86695e-01,9.99946e-01
8.410139374e-01,9.69050e-01,9.99999e-01,9.81887e-01,9.86956e-01,9.99968e-01
8.452190071e-01,9.78400e-01,9.99999e-01,9.91091e-01,9.87212e-01,9.99981e-01
8.494451021e-01,9.82317e-01,9.99999e-01,9.94803e-01,9.87463e-01,9.99984e-01
8.536923276e-01,9.84673e-01,9.99999e-01,9.96934e-01,9.87709e-01,9.99990e-01
8.579607893e-01,9.86077e-01,9.99999e-01,9.98105e-01,9.87951e-01,9.99997e-01
8.622505932e-01,9.87001e-01,9.99999e-01,9.98799e-01,9.88187e-01,9.99999e-01
8.665618462e-01,9.87682e-01,9.99999e-01,9.99254e-01,9.88419e-01,9.99999e-01
8.708946554e-01,9.87800e-01,9.99999e-01,9.99144e-01,9.88646e-01,9.99999e-01
8.752491287e-01,9.87738e-01,9.99999e-01,9.98856e-01,9.88869e-01,9.99998e-01
8.796253743e-01,9.87513e-01,9.99999e-01,9.98410e-01,9.89088e-01,9.99995e-01
8.840235012e-01,9.87498e-01,9.99999e-01,9.98186e-01,9.89302e-01,9.99988e-01
8.884436187e-01,9.82826e-01,9.99999e-01,9.93273e-01,9.89513e-01,9.99968e-01
8.928858368e-01,9.22507e-01,9.99999e-01,9.32257e-01,9.89719e-01,9.99818e-01
8.973502660e-01,8.74702e-01,9.99999e-01,8.84425e-01,9.89921e-01,9.99074e-01
9.018370173e-01,9.29104e-01,9.99999e-01,9.39742e-01,9.90119e-01,9.98545e-01
9.063462024e-01,9.35483e-01,9.99999e-01,9.45841e-01,9.90313e-01,9.98722e-01
9.108779334e-01,9.07349e-01,9.99999e-01,9.17265e-01,9.90503e-01,9.98672e-01
9.154323231e-01,8.97276e-01,9.99999e-01,9.06702e-01,9.90690e-01,9.98902e-01
9.200094847e-01,9.17368e-01,9.99999e-01,9.26386e-01,9.90873e-01,9.99385e-01
9.246095321e-01,8.77130e-01,9.99999e-01,8.85675e-01,9.91053e-01,9.99291e-01
9.292325798e-01,4.47776e-01,9.99999e-01,4.53284e-01,9.91229e-01,9.96587e-01
9.338787427e-01,3.57413e-01,9.99999e-01,3.64995e-01,9.91401e-01,9.87719e-01
9.385481364e-01,6.51002e-01,9.99999e-01,6.65510e-01,9.91570e-01,9.86516e-01
9.432408771e-01,5.56669e-01,9.99999e-01,5.67920e-01,9.91736e-01,9.88356e-01
9.479570815e-01,4.52804e-01,9.99999e-01,4.60873e-01,9.91898e-01,9.90513e-01
9.526968669e-01,5.49945e-01,9.99999e-01,5.57579e-01,9.92058e-01,9.94202e-01
9.574603512e-01,5.73270e-01,9.99999e-01,5.79477e-01,9.92214e-01,9.97050e-01
9.622476530e-01,6.34814e-01,9.99999e-01,6.41004e-01,9.92367e-01,9.97959e-01
9.670588912e-01,7.66223e-01,9.99999e-01,7.73078e-01,9.92517e-01,9.98604e-01
9.718941857e-01,8.43299e-01,9.99999e-01,8.50404e-01,9.92665e-01,9.98972e-01
9.767536566e-01,8.67094e-01,9.99999e-01,8.74060e-01,9.92809e-01,9.99214e-01
9.816374249e-01,8.98601e-01,9.99999e-01,9.05226e-01,9.92951e-01,9.99727e-01
9.865456120e-01,9.33132e-01,9.99999e-01,9.39678e-01,9.93089e-01,9.99942e-01
9.914783401e-01,9.55709e-01,9.99999e-01,9.62242e-01,9.93225e-01,9.99983e-01
9.964357318e-01,9.72753e-01,9.99999e-01,9.79265e-01,9.93359e-01,9.99990e-01
1.001417910e+00,9.81086e-01,9.99999e-01,9.87528e-01,9.93489e-01,9.99985e-01
1.006425000e+00,9.86500e-01,9.99999e-01,9.92856e-01,9.93618e-01,9.99979e-01
1.011457125e+00,9.89326e-01,9.99999e-01,9.95572e-01,9.93743e-01,9.99980e-01
1.016514411e+00,9.90860e-01,9.99999e-01,9.96987e-01,9.93866e-01,9.99986e-01
1.021596983e+00,9.91587e-01,9.99999e-01,9.97597e-01,9.93987e-01,9.99986e-01
1.026704968e+00,9.92234e-01,9.99999e-01,9.98124e-01,9.94106e-01,9.99991e-01
1.031838492e+00,9.92867e-01,9.99999e-01,9.98639e-01,9.94222e-01,9.99997e-01
1.036997685e+00,9.93530e-01,9.99999e-01,9.99190e-01,9.94335e-01,9.99999e-01
1.042182673e+00,9.93483e-01,9.99999e-01,9.99030e-01,9.94447e-01,9.99999e-01
1.047393587e+00,9.93281e-01,9.99999e-01,9.98717e-01,9.94556e-01,9.99999e-01
1.052630555e+00,9.92911e-01,9.99999e-01,9.98237e-01,9.94664e-01,9.99999e-01
1.057893707e+00,9.91838e-01,9.99999e-01,9.97054e-01,9.94769e-01,9.99998e-01
1.063183176e+00,9.90056e-01,9.99999e-01,9.95161e-01,9.94872e-01,9.99996e-01
1.068499092e+00,9.86931e-01,9.99999e-01,9.91922e-01,9.94973e-01,9.99994e-01
1.073841587e+00,9.85641e-01,9.99999e-01,9.90533e-01,9.95072e-01,9.99987e-01
1.079210795e+00,9.83122e-01,9.99999e-01,9.87925e-01,9.95169e-01,9.99967e-01
1.084606849e+00,9.77019e-01,9.99999e-01,9.81743e-01,9.95264e-01,9.99921e-01
1.090029883e+00,9.69034e-01,9.99999e-01,9.73710e-01,9.95357e-01,9.99838e-01
1.095480033e+00,9.25637e-01,9.99999e-01,9.30139e-01,9.95449e-01,9.99707e-01
1.100957433e+00,8.28106e-01,9.99999e-01,8.32263e-01,9.95539e-01,9.99462e-01
1.106462220e+00,6.25892e-01,9.99999e-01,6.29214e-01,9.95626e-01,9.99089e-01
1.111994531e+00,3.80037e-01,9.99999e-01,3.82597e-01,9.95713e-01,9.97585e-01
1.117554504e+00,2.12016e-01,9.99999e-01,2.14777e-01,9.95797e-01,9.91310e-01
1.123142276e+00,3.25199e-01,9.99999e-01,3.33372e-01,9.95880e-01,9.79517e-01
1.128757988e+00,4.71362e-01,9.99999e-01,4.84740e-01,9.95961e-01,9.76343e-01
1.134401778e+00,2.44266e-01,9.99999e-01,2.50280e-01,9.96041e-01,9.79848e-01
1.140073787e+00,6.31537e-01,9.99999e-01,6.44393e-01,9.96119e-01,9.83866e-01
1.145774156e+00,4.00209e-01,9.99999e-01,4.07763e-01,9.96195e-01,9.85221e-01
1.151503026e+00,3.65510e-01,9.99999e-01,3.69934e-01,9.96270e-01,9.91739e-01
1.157260541e+00,4.25418e-01,9.99999e-01,4.28039e-01,9.96344e-01,9.97522e-01
1.163046844e+00,5.31358e-01,9.99999e-01,5.33644e-01,9.96416e-01,9.99296e-01
1.168862078e+00,6.41706e-01,9.99999e-01,6.44201e-01,9.96487e-01,9.99637e-01
1.174706389e+00,7.59153e-01,9.99999e-01,7.62142e-01,9.96556e-01,9.99519e-01
1.180579921e+00,8.43958e-01,9.99999e-01,8.47431e-01,9.96624e-01,9.99274e-01
1.186482820e+00,9.06814e-01,9.99999e-01,9.10503e-01,9.96690e-01,9.99254e-01
1.192415234e+00,9.43086e-01,9.99999e-01,9.46682e-01,9.96755e-01,9.99441e-01
1.198377311e+00,9.51254e-01,9.99999e-01,9.54793e-01,9.96819e-01,9.99470e-01
1.204369197e+00,9.53809e-01,9.99999e-01,9.57233e-01,9.96882e-01,9.99538e-01
1.210391043e+00,9.55852e-01,9.99999e-01,9.59059e-01,9.96944e-01,9.99709e-01
1.216442998e+00,9.62081e-01,9.99999e-01,9.65143e-01,9.97004e-01,9.99821e-01
1.222525213e+00,9.69764e-01,9.99999e-01,9.72727e-01,9.97063e-01,9.99889e-01
1.228637839e+00,9.78097e-01,9.99999e-01,9.80970e-01,9.97121e-01,9.99948e-01
1.234781029e+00,9.83058e-01,9.99999e-01,9.85854e-01,9.97178e-01,9.99984e-01
1.240954934e+00,9.88279e-01,9.99999e-01,9.91024e-01,9.97233e-01,9.99995e-01
1.247159708e+00,9.90316e-01,9.99999e-01,9.93010e-01,9.97288e-01,9.99996e-01
1.253395507e+00,9.91138e-01,9.99999e-01,9.93783e-01,9.97341e-01,9.99996e-01
1.259662485e+00,9.91484e-01,9.99999e-01,9.94080e-01,9.97394e-01,9.99994e-01
1.265960797e+00,9.88038e-01,9.99999e-01,9.90577e-01,9.97445e-01,9.99990e-01
1.272290601e+00,9.82701e-01,9.99999e-01,9.85183e-01,9.97496e-01,9.99983e-01
1.278652054e+00,9.68363e-01,9.99999e-01,9.70773e-01,9.97545e-01,9.99970e-01
1.285045314e+00,9.45245e-01,9.99999e-01,9.47575e-01,9.97593e-01,9.99946e-01
1.291470541e+00,9.08215e-01,9.99999e-01,9.10448e-01,9.97641e-01,9.99905e-01
1.297927893e+00,8.72980e-01,9.99999e-01,8.75156e-01,9.97687e-01,9.99824e-01
1.304417533e+00,8.52722e-01,9.99999e-01,8.54975e-01,9.97733e-01,9.99628e-01
1.310939621e+00,8.17851e-01,9.99999e-01,8.20296e-01,9.97778e-01,9.99238e-01
1.317494319e+00,8.20573e-01,9.99999e-01,8.23523e-01,9.97821e-01,9.98591e-01
1.324081790e+00,7.47956e-01,9.99999e-01,7.51282e-01,9.97864e-01,9.97701e-01
1.330702199e+00,3.39856e-01,9.99999e-01,3.41923e-01,9.97907e-01,9.96040e-01
1.337355710e+00,5.90286e-02,9.99999e-01,5.96035e-02,9.97948e-01,9.92389e-01
1.344042489e+00,2.34477e-03,9.99999e-01,2.40418e-03,9.97988e-01,9.77252e-01
1.350762701e+00,8.97180e-07,9.99999e-01,9.72636e-07,9.98028e-01,9.24241e-01
1.357516515e+00,1.62185e-09,9.99999e-01,2.04768e-09,9.98067e-01,7.93575e-01
1.364304097e+00,2.34474e-06,9.99999e-01,3.52287e-06,9.98105e-01,6.66838e-01
1.371125618e+00,1.69466e-04,9.99999e-01,2.48773e-04,9.98142e-01,6.82474e-01
1.377981246e+00,5.09332e-04,9.99999e-01,7.07965e-04,9.98179e-01,7.20742e-01
1.384871152e+00,7.41856e-06,9.99999e-01,1.00837e-05,9.98215e-01,7.37015e-01
1.391795508e+00,3.21922e-06,9.99999e-01,4.31355e-06,9.98250e-01,7.47612e-01
1.398754485e+00,3.53997e-05,9.99999e-01,4.50913e-05,9.98285e-01,7.86414e-01
1.405748258e+00,3.46663e-05,9.99999e-01,3.99613e-05,9.98319e-01,8.68957e-01
1.412776999e+00,3.74488e-05,9.99999e-01,3.99950e-05,9.98352e-01,9.37882e-01
1.419840884e+00,7.59972e-05,9.99999e-01,7.82910e-05,9.98384e-01,9.72271e-01
1.426940089e+00,6.78562e-04,9.99999e-01,6.94313e-04,9.98416e-01,9.78863e-01
1.434074789e+00,3.52674e-03,9.99999e-01,3.62239e-03,9.98447e-01,9.75105e-01
1.441245163e+00,1.09475e-02,9.99999e-01,1.12677e-02,9.98478e-01,9.73063e-01
1.448451389e+00,4.22599e-02,9.99999e-01,4.33470e-02,9.98508e-01,9.76375e-01
1.455693646e+00,1.17746e-01,9.99999e-01,1.20133e-01,9.98537e-01,9.81568e-01
1.462972114e+00,1.52855e-01,9.99999e-01,1.55815e-01,9.98566e-01,9.82413e-01
1.470286975e+00,1.13542e-01,9.99999e-01,1.15702e-01,9.98595e-01,9.82710e-01
