#,Wave/freq,Total,N2,H2O,Rayleigh,CIA
4.000000000e-01,7.69600e-01,9.99999e-01,9.99970e-01,7.69622e-01,9.99999e-01
4.020000000e-01,7.73603e-01,9.99999e-01,9.99981e-01,7.73617e-01,9.99999e-01
4.040100000e-01,7.77543e-01,9.99999e-01,9.99991e-01,7.77549e-01,9.99999e-01
4.060300500e-01,7.81422e-01,9.99999e-01,9.99997e-01,7.81423e-01,9.99999e-01
4.080602003e-01,7.85239e-01,9.99999e-01,9.99998e-01,7.85240e-01,9.99999e-01
4.101005013e-01,7.88998e-01,9.99999e-01,9.99999e-01,7.88998e-01,9.99999e-01
4.121510038e-01,7.92700e-01,9.99999e-01,9.99998e-01,7.92700e-01,9.99999e-01
4.142117588e-01,7.96340e-01,9.99999e-01,9.99991e-01,7.96346e-01,9.99999e-01
4.162828176e-01,7.99907e-01,9.99999e-01,9.99963e-01,7.99936e-01,9.99999e-01
4.183642317e-01,8.03454e-01,9.99999e-01,9.99977e-01,8.03471e-01,9.99999e-01
4.204560528e-01,8.06941e-01,9.99999e-01,9.99986e-01,8.06951e-01,9.99999e-01
4.225583331e-01,8.10373e-01,9.99999e-01,9.99994e-01,8.10377e-01,9.99999e-01
4.246711247e-01,8.13747e-01,9.99999e-01,9.99995e-01,8.13750e-01,9.99999e-01
4.267944804e-01,8.17065e-01,9.99999e-01,9.99993e-01,8.17070e-01,9.99999e-01
4.289284528e-01,8.20333e-01,9.99999e-01,9.99994e-01,8.20337e-01,9.99999e-01
4.310730950e-01,8.23550e-01,9.99999e-01,9.99997e-01,8.23552e-01,9.99999e-01
4.332284605e-01,8.26715e-01,9.99999e-01,9.99999e-01,8.26716e-01,9.99999e-01
4.353946028e-01,8.29829e-01,9.99999e-01,9.99999e-01,8.29829e-01,9.99999e-01
4.375715758e-01,8.32889e-01,9.99999e-01,9.99995e-01,8.32892e-01,9.99999e-01
4.397594337e-01,8.35879e-01,9.99999e-01,9.99966e-01,8.35906e-01,9.99999e-01
4.419582309e-01,8.38731e-01,9.99999e-01,9.99833e-01,8.38871e-01,9.99999e-01
4.441680220e-01,8.41681e-01,9.99999e-01,9.99873e-01,8.41787e-01,9.99999e-01
4.463888621e-01,8.44544e-01,9.99999e-01,9.99867e-01,8.44655e-01,9.99999e-01
4.486208064e-01,8.47408e-01,9.99999e-01,9.99917e-01,8.47477e-01,9.99999e-01
4.508639105e-01,8.50219e-01,9.99999e-01,9.99961e-01,8.50252e-01,9.99999e-01
4.531182300e-01,8.52968e-01,9.99999e-01,9.99984e-01,8.52981e-01,9.99999e-01
4.553838212e-01,8.55655e-01,9.99999e-01,9.99989e-01,8.55664e-01,9.99999e-01
4.576607403e-01,8.58298e-01,9.99999e-01,9.99994e-01,8.58303e-01,9.99999e-01
4.599490440e-01,8.60894e-01,9.99999e-01,9.99996e-01,8.60897e-01,9.99999e-01
4.622487892e-01,8.63447e-01,9.99999e-01,9.99998e-01,8.63448e-01,9.99999e-01
4.645600332e-01,8.65953e-01,9.99999e-01,9.99997e-01,8.65955e-01,9.99999e-01
4.668828333e-01,8.68387e-01,9.99999e-01,9.99960e-01,8.68421e-01,9.99999e-01
4.692172475e-01,8.70772e-01,9.99999e-01,9.99916e-01,8.70844e-01,9.99999e-01
4.715633337e-01,8.73179e-01,9.99999e-01,9.99945e-01,8.73226e-01,9.99999e-01
4.739211504e-01,8.75522e-01,9.99999e-01,9.99947e-01,8.75567e-01,9.99999e-01
4.762907561e-01,8.77845e-01,9.99999e-01,9.99972e-01,8.77868e-01,9.99999e-01
4.786722099e-01,8.80120e-01,9.99999e-01,9.99988e-01,8.80130e-01,9.99999e-01
4.810655710e-01,8.82350e-01,9.99999e-01,9.99996e-01,8.82353e-01,9.99999e-01
4.834708988e-01,8.84508e-01,9.99999e-01,9.99966e-01,8.84537e-01,9.99999e-01
4.858882533e-01,8.86631e-01,9.99999e-01,9.99940e-01,8.86683e-01,9.99999e-01
4.883176946e-01,8.88748e-01,9.99999e-01,9.99950e-01,8.88792e-01,9.99999e-01
4.907592831e-01,8.90824e-01,9.99999e-01,9.99955e-01,8.90864e-01,9.99999e-01
4.932130795e-01,8.92872e-01,9.99999e-01,9.99968e-01,8.92900e-01,9.99999e-01
4.956791449e-01,8.94885e-01,9.99999e-01,9.99982e-01,8.94900e-01,9.99999e-01
4.981575406e-01,8.96790e-01,9.99999e-01,9.99915e-01,8.96865e-01,9.99999e-01
5.006483283e-01,8.98597e-01,9.99999e-01,9.99780e-01,8.98795e-01,9.99998e-01
5.031515699e-01,8.99689e-01,9.99999e-01,9.98898e-01,9.00692e-01,9.99987e-01
5.056673278e-01,9.02020e-01,9.99999e-01,9.99420e-01,9.02554e-01,9.99986e-01
5.081956644e-01,9.03717e-01,9.99999e-01,9.99270e-01,9.04384e-01,9.99991e-01
5.107366428e-01,9.05734e-01,9.99999e-01,9.99507e-01,9.06181e-01,9.99998e-01
5.132903260e-01,9.07691e-01,9.99999e-01,9.99718e-01,9.07946e-01,9.99999e-01
5.158567776e-01,9.09572e-01,9.99999e-01,9.99881e-01,9.09680e-01,9.99999e-01
5.184360615e-01,9.11339e-01,9.99999e-01,9.99952e-01,9.11382e-01,9.99999e-01
5.210282418e-01,9.13038e-01,9.99999e-01,9.99981e-01,9.13054e-01,9.99999e-01
5.236333830e-01,9.14630e-01,9.99999e-01,9.99927e-01,9.14696e-01,9.99998e-01
5.262515499e-01,9.16267e-01,9.99999e-01,9.99954e-01,9.16308e-01,9.99998e-01
5.288828077e-01,9.17853e-01,9.99999e-01,9.99958e-01,9.17892e-01,9.99999e-01
5.315272217e-01,9.19413e-01,9.99999e-01,9.99963e-01,9.19446e-01,9.99999e-01
5.341848578e-01,9.20951e-01,9.99999e-01,9.99975e-01,9.20973e-01,9.99999e-01
5.368557821e-01,9.22394e-01,9.99999e-01,9.99915e-01,9.22472e-01,9.99999e-01
5.395400610e-01,9.23659e-01,9.99999e-01,9.99694e-01,9.23943e-01,9.99996e-01
5.422377613e-01,9.25023e-01,9.99999e-01,9.99612e-01,9.25388e-01,9.99992e-01
5.449489501e-01,9.26463e-01,9.99999e-01,9.99636e-01,9.26806e-01,9.99992e-01
5.476736949e-01,9.27900e-01,9.99999e-01,9.99680e-01,9.28199e-01,9.99995e-01
5.504120634e-01,9.29350e-01,9.99999e-01,9.99768e-01,9.29566e-01,9.99998e-01
5.531641237e-01,9.30800e-01,9.99999e-01,9.99883e-01,9.30908e-01,9.99999e-01
5.559299443e-01,9.32173e-01,9.99999e-01,9.99943e-01,9.32225e-01,9.99999e-01
5.587095940e-01,9.33486e-01,9.99999e-01,9.99964e-01,9.33519e-01,9.99999e-01
5.615031420e-01,9.34751e-01,9.99999e-01,9.99960e-01,9.34788e-01,9.99999e-01
5.643106577e-01,9.35991e-01,9.99999e-01,9.99954e-01,9.36034e-01,9.99999e-01
5.671322110e-01,9.36732e-01,9.99999e-01,9.99444e-01,9.37257e-01,9.99994e-01
5.699678720e-01,9.37907e-01,9.99999e-01,9.99428e-01,9.38457e-01,9.99984e-01
5.728177114e-01,9.39057e-01,9.99999e-01,9.99396e-01,9.39635e-01,9.99987e-01
5.756818000e-01,9.40266e-01,9.99999e-01,9.99447e-01,9.40792e-01,9.99992e-01
5.785602090e-01,9.41473e-01,9.99999e-01,9.99519e-01,9.41927e-01,9.99997e-01
5.814530100e-01,9.42583e-01,9.99999e-01,9.99516e-01,9.43040e-01,9.99998e-01
5.843602750e-01,9.43581e-01,9.99999e-01,9.99418e-01,9.44133e-01,9.99996e-01
5.872820764e-01,9.40447e-01,9.99999e-01,9.94999e-01,9.45206e-01,9.99964e-01
5.902184868e-01,9.40499e-01,9.99999e-01,9.94007e-01,9.46259e-01,9.99904e-01
5.931695792e-01,9.43179e-01,9.99999e-01,9.95748e-01,9.47292e-01,9.99908e-01
5.961354271e-01,9.43849e-01,9.99999e-01,9.95352e-01,9.48305e-01,9.99946e-01
5.991161043e-01,9.46071e-01,9.99999e-01,9.96613e-01,9.49300e-01,9.99983e-01
6.021116848e-01,9.48451e-01,9.99999e-01,9.98080e-01,9.50276e-01,9.99997e-01
6.051222432e-01,9.50311e-01,9.99999e-01,9.99028e-01,9.51234e-01,9.99999e-01
6.081478544e-01,9.51775e-01,9.99999e-01,9.99580e-01,9.52174e-01,9.99999e-01
6.111885937e-01,9.52928e-01,9.99999e-01,9.99822e-01,9.53096e-01,9.99999e-01
6.142445367e-01,9.53925e-01,9.99999e-01,9.99920e-01,9.54001e-01,9.99999e-01
6.173157594e-01,9.54847e-01,9.99999e-01,9.99955e-01,9.54889e-01,9.99999e-01
6.204023382e-01,9.55724e-01,9.99999e-01,9.99962e-01,9.55760e-01,9.99999e-01
6.235043498e-01,9.56454e-01,9.99999e-01,9.99832e-01,9.56614e-01,9.99999e-01
6.266218716e-01,9.56618e-01,9.99999e-01,9.99133e-01,9.57453e-01,9.99993e-01
6.297549810e-01,9.57959e-01,9.99999e-01,9.99681e-01,9.58275e-01,9.99987e-01
6.329037559e-01,9.58473e-01,9.99999e-01,9.99373e-01,9.59082e-01,9.99989e-01
6.360682746e-01,9.59354e-01,9.99999e-01,9.99463e-01,9.59874e-01,9.99993e-01
6.392486160e-01,9.59983e-01,9.99999e-01,9.99307e-01,9.60651e-01,9.99996e-01
6.424448591e-01,9.60509e-01,9.99999e-01,9.99063e-01,9.61413e-01,9.99994e-01
6.456570834e-01,9.57960e-01,9.99999e-01,9.95660e-01,9.62160e-01,9.99973e-01
6.488853688e-01,9.59810e-01,9.99999e-01,9.96862e-01,9.62894e-01,9.99932e-01
6.521297956e-01,9.60480e-01,9.99999e-01,9.96802e-01,9.63613e-01,9.99944e-01
6.553904446e-01,9.61194e-01,9.99999e-01,9.96799e-01,9.64319e-01,9.99958e-01
6.586673968e-01,9.62367e-01,9.99999e-01,9.97272e-01,9.65011e-01,9.99985e-01
6.619607338e-01,9.64220e-01,9.99999e-01,9.98480e-01,9.65690e-01,9.99996e-01
6.652705375e-01,9.65474e-01,9.99999e-01,9.99087e-01,9.66357e-01,9.99998e-01
6.685968902e-01,9.66635e-01,9.99999e-01,9.99612e-01,9.67010e-01,9.99999e-01
6.719398746e-01,9.67461e-01,9.99999e-01,9.99803e-01,9.67651e-01,9.99999e-01
6.752995740e-01,9.68179e-01,9.99999e-01,9.99895e-01,9.68280e-01,9.99999e-01
6.786760719e-01,9.68746e-01,9.99999e-01,9.99844e-01,9.68896e-01,9.99999e-01
6.820694522e-01,9.69241e-01,9.99999e-01,9.99732e-01,9.69501e-01,9.99998e-01
6.854797995e-01,9.69761e-01,9.99999e-01,9.99658e-01,9.70095e-01,9.99996e-01
6.889071985e-01,9.69854e-01,9.99999e-01,9.99159e-01,9.70676e-01,9.99992e-01
6.923517345e-01,9.58071e-01,9.99999e-01,9.86496e-01,9.71247e-01,9.99935e-01
6.958134932e-01,9.64994e-01,9.99999e-01,9.93130e-01,9.71807e-01,9.99856e-01
6.992925606e-01,9.65728e-01,9.99999e-01,9.93311e-01,9.72356e-01,9.99870e-01
7.027890234e-01,9.64847e-01,9.99999e-01,9.91825e-01,9.72895e-01,9.99901e-01
7.063029686e-01,9.66675e-01,9.99999e-01,9.93116e-01,9.73423e-01,9.99950e-01
7.098344834e-01,9.67480e-01,9.99999e-01,9.93394e-01,9.73941e-01,9.99970e-01
7.133836558e-01,9.65697e-01,9.99999e-01,9.91075e-01,9.74449e-01,9.99942e-01
7.169505741e-01,9.07210e-01,9.99999e-01,9.30942e-01,9.74947e-01,9.99547e-01
7.205353270e-01,9.41834e-01,9.99999e-01,9.66322e-01,9.75436e-01,9.99201e-01
7.241380036e-01,9.32919e-01,9.99999e-01,9.56601e-01,9.75915e-01,9.99310e-01
7.277586936e-01,9.37587e-01,9.99999e-01,9.60804e-01,9.76385e-01,9.99436e-01
7.313974871e-01,9.36229e-01,9.99999e-01,9.58672e-01,9.76846e-01,9.99735e-01
7.350544745e-01,9.54896e-01,9.99999e-01,9.77166e-01,9.77298e-01,9.99907e-01
7.387297469e-01,9.61239e-01,9.99999e-01,9.83161e-01,9.77742e-01,9.99957e-01
7.424233956e-01,9.70100e-01,9.99999e-01,9.91750e-01,9.78177e-01,9.99992e-01
7.461355126e-01,9.73694e-01,9.99999e-01,9.94984e-01,9.78603e-01,9.99998e-01
7.498661902e-01,9.76740e-01,9.99999e-01,9.97670e-01,9.79021e-01,9.99998e-01
7.536155211e-01,9.78308e-01,9.99999e-01,9.98852e-01,9.79431e-01,9.99999e-01
7.573835987e-01,9.79255e-01,9.99999e-01,9.99409e-01,9.79833e-01,9.99999e-01
7.611705167e-01,9.79868e-01,9.99999e-01,9.99632e-01,9.80228e-01,9.99999e-01
7.649763693e-01,9.80389e-01,9.99999e-01,9.99769e-01,9.80614e-01,9.99999e-01
7.688012511e-01,9.80836e-01,9.99999e-01,9.99838e-01,9.80994e-01,9.99999e-01
7.726452574e-01,9.81236e-01,9.99999e-01,9.99867e-01,9.81366e-01,9.99999e-01
7.765084837e-01,9.81544e-01,9.99999e-01,9.99809e-01,9.81730e-01,9.99999e-01
7.803910261e-01,9.81281e-01,9.99999e-01,9.99178e-01,9.82088e-01,9.99998e-01
7.842929812e-01,9.79618e-01,9.99999e-01,9.97134e-01,9.82439e-01,9.99994e-01
7.882144461e-01,9.77006e-01,9.99999e-01,9.94161e-01,9.82782e-01,9.99959e-01
7.921555184e-01,9.79920e-01,9.99999e-01,9.96814e-01,9.83120e-01,9.99929e-01
7.961162960e-01,9.77779e-01,9.99999e-01,9.94298e-01,9.83450e-01,9.99933e-01
8.000968774e-01,9.77274e-01,9.99999e-01,9.93462e-01,9.83774e-01,9.99928e-01
8.040973618e-01,9.77594e-01,9.99999e-01,9.93449e-01,9.84092e-01,9.99945e-01
8.081178486e-01,9.69767e-01,9.99999e-01,9.85184e-01,9.84404e-01,9.99945e-01
8.121584379e-01,9.25243e-01,9.99999e-01,9.39803e-01,9.84710e-01,9.99793e-01
8.162192301e-01,9.15120e-01,9.99999e-01,9.29768e-01,9.85009e-01,9.99223e-01
8.203003262e-01,9.48713e-01,9.99999e-01,9.63739e-01,9.85303e-01,9.99090e-01
8.244018279e-01,9.36807e-01,9.99999e-01,9.51190e-01,9.85592e-01,9.99276e-01
8.285238370e-01,9.43091e-01,9.99999e-01,9.57146e-01,9.85874e-01,9.99431e-01
8.326664562e-01,9.43433e-01,9.99999e-01,9.56906e-01,9.86151e-01,9.99764e-01
8.368297885e-01,9.55875e-01,9.99999e-01,9.69083e-01,9.86423e-01,9.99945e-01
8.410139374e-01,9.68433e-01,9.99999e-01,9.81527e-01,9.86689e-01,9.99968e-01
8.452190071e-01,9.77967e-01,9.99999e-01,9.90915e-01,9.86950e-01,9.99980e-01
8.494451021e-01,9.81957e-01,9.99999e-01,9.94697e-01,9.87206e-01,9.99984e-01
8.536923276e-01,9.84362e-01,9.99999e-01,9.96873e-01,9.87458e-01,9.99990e-01
8.579607893e-01,9.85793e-01,9.99999e-01,9.98067e-01,9.87704e-01,9.99997e-01
8.622505932e-01,9.86735e-01,9.99999e-01,9.98775e-01,9.87945e-01,9.99999e-01
8.665618462e-01,9.87430e-01,9.99999e-01,9.99238e-01,9.88182e-01,9.99999e-01
8.708946554e-01,9.87550e-01,9.99999e-01,9.99126e-01,9.88414e-01,9.99999e-01
8.752491287e-01,9.87487e-01,9.99999e-01,9.98832e-01,9.88641e-01,9.99998e-01
8.796253743e-01,9.87257e-01,9.99999e-01,9.98377e-01,9.88864e-01,9.99995e-01
8.840235012e-01,9.87242e-01,9.99999e-01,9.98148e-01,9.89083e-01,9.99988e-01
8.884436187e-01,9.82455e-01,9.99999e-01,9.93114e-01,9.89298e-01,9.99967e-01
8.928858368e-01,9.20917e-01,9.99999e-01,9.30853e-01,9.89508e-01,9.99815e-01
8.973502660e-01,8.72337e-01,9.99999e-01,8.82235e-01,9.89714e-01,9.99055e-01
9.018370173e-01,9.27780e-01,9.99999e-01,9.38623e-01,9.89916e-01,9.98515e-01
9.063462024e-01,9.34159e-01,9.99999e-01,9.44716e-01,9.90114e-01,9.98695e-01
9.108779334e-01,9.05529e-01,9.99999e-01,9.15630e-01,9.90309e-01,9.98644e-01
9.154323231e-01,8.95290e-01,9.99999e-01,9.04889e-01,9.90499e-01,9.98879e-01
9.200094847e-01,9.15777e-01,9.99999e-01,9.24966e-01,9.90686e-01,9.99372e-01
9.246095321e-01,8.74593e-01,9.99999e-01,8.83289e-01,9.90869e-01,9.99277e-01
9.292325798e-01,4.40675e-01,9.99999e-01,4.46209e-01,9.91049e-01,9.96517e-01
9.338787427e-01,3.50658e-01,9.99999e-01,3.58251e-01,9.91225e-01,9.87468e-01
9.385481364e-01,6.45830e-01,9.99999e-01,6.60521e-01,9.91397e-01,9.86240e-01
9.432408771e-01,5.50423e-01,9.99999e-01,5.61779e-01,9.91566e-01,9.88118e-01
9.479570815e-01,4.46058e-01,9.99999e-01,4.54173e-01,9.91732e-01,9.90318e-01
9.526968669e-01,5.43791e-01,9.99999e-01,5.51496e-01,9.91895e-01,9.94083e-01
9.574603512e-01,5.67067e-01,9.99999e-01,5.73333e-01,9.92054e-01,9.96990e-01
9.622476530e-01,6.29237e-01,9.99999e-01,6.35499e-01,9.92211e-01,9.97917e-01
9.670588912e-01,7.62241e-01,9.99999e-01,7.69155e-01,9.92364e-01,9.98635e-01
9.718941857e-01,8.40386e-01,9.99999e-01,8.47609e-01,9.92514e-01,9.98954e-01
9.767536566e-01,8.64576e-01,9.99999e-01,8.71666e-01,9.92661e-01,9.99198e-01
9.816374249e-01,8.96670e-01,9.99999e-01,9.03417e-01,9.92806e-01,9.99722e-01
9.865456120e-01,9.31831e-01,9.99999e-01,9.38503e-01,9.92947e-01,9.99941e-01
9.914783401e-01,9.54833e-01,9.99999e-01,9.61495e-01,9.93086e-01,9.99983e-01
9.964357318e-01,9.72208e-01,9.99999e-01,9.78851e-01,9.93222e-01,9.99990e-01
1.001417910e+00,9.80707e-01,9.99999e-01,9.87280e-01,9.93356e-01,9.99985e-01
1.006425000e+00,9.86225e-01,9.99999e-01,9.92710e-01,9.93487e-01,9.99979e-01
1.011457125e+00,9.89109e-01,9.99999e-01,9.95483e-01,9.93615e-01,9.99980e-01
1.016514411e+00,9.90674e-01,9.99999e-01,9.96926e-01,9.93740e-01,9.99986e-01
1.021596983e+00,9.91415e-01,9.99999e-01,9.97548e-01,9.93864e-01,9.99986e-01
1.026704968e+00,9.92075e-01,9.99999e-01,9.98086e-01,9.93985e-01,9.99991e-01
1.031838492e+00,9.92722e-01,9.99999e-01,9.98612e-01,9.94103e-01,9.99997e-01
1.036997685e+00,9.93397e-01,9.99999e-01,9.99173e-01,9.94219e-01,9.99999e-01
1.042182673e+00,9.93349e-01,9.99999e-01,9.99010e-01,9.94333e-01,9.99999e-01
1.047393587e+00,9.93143e-01,9.99999e-01,9.98690e-01,9.94445e-01,9.99999e-01
1.052630555e+00,9.92765e-01,9.99999e-01,9.98200e-01,9.94554e-01,9.99999e-01
1.057893707e+00,9.91669e-01,9.99999e-01,9.96992e-01,9.94661e-01,9.99998e-01
1.063183176e+00,9.89851e-01,9.99999e-01,9.95060e-01,9.94766e-01,9.99996e-01
1.068499092e+00,9.86663e-01,9.99999e-01,9.91755e-01,9.94869e-01,9.99993e-01
1.073841587e+00,9.85344e-01,9.99999e-01,9.90336e-01,9.94971e-01,9.99987e-01
1.079210795e+00,9.82778e-01,9.99999e-01,9.87679e-01,9.95070e-01,9.99966e-01
1.084606849e+00,9.76548e-01,9.99999e-01,9.81367e-01,9.95167e-01,9.99920e-01
1.090029883e+00,9.68378e-01,9.99999e-01,9.73147e-01,9.95262e-01,9.99835e-01
1.095480033e+00,9.24121e-01,9.99999e-01,9.28708e-01,9.95355e-01,9.99701e-01
1.100957433e+00,8.24827e-01,9.99999e-01,8.29053e-01,9.95447e-01,9.99451e-01
1.106462220e+00,6.19839e-01,9.99999e-01,6.23196e-01,9.95537e-01,9.99070e-01
1.111994531e+00,3.72837e-01,9.99999e-01,3.75400e-01,9.95624e-01,9.97535e-01
1.117554504e+00,2.05787e-01,9.99999e-01,2.08522e-01,9.95711e-01,9.91132e-01
1.123142276e+00,3.18805e-01,9.99999e-01,3.26984e-01,9.95795e-01,9.79100e-01
1.128757988e+00,4.64552e-01,9.99999e-01,4.78012e-01,9.95878e-01,9.75862e-01
1.134401778e+00,2.39919e-01,9.99999e-01,2.45949e-01,9.95959e-01,9.79438e-01
1.140073787e+00,6.25708e-01,9.99999e-01,6.38711e-01,9.96039e-01,9.83536e-01
1.145774156e+00,3.93335e-01,9.99999e-01,4.00913e-01,9.96117e-01,9.84919e-01
1.151503026e+00,3.58643e-01,9.99999e-01,3.63073e-01,9.96194e-01,9.91570e-01
1.157260541e+00,4.18294e-01,9.99999e-01,4.20924e-01,9.96269e-01,9.97471e-01
1.163046844e+00,5.24807e-01,9.99999e-01,5.27111e-01,9.96342e-01,9.99282e-01
1.168862078e+00,6.36049e-01,9.99999e-01,6.38576e-01,9.96414e-01,9.99625e-01
1.174706389e+00,7.54950e-01,9.99999e-01,7.58003e-01,9.96485e-01,9.99484e-01
1.180579921e+00,8.41086e-01,9.99999e-01,8.44619e-01,9.96554e-01,9.99259e-01
1.186482820e+00,9.05017e-01,9.99999e-01,9.08775e-01,9.96622e-01,9.99239e-01
1.192415234e+00,9.41956e-01,9.99999e-01,9.45623e-01,9.96689e-01,9.99430e-01
1.198377311e+00,9.50272e-01,9.99999e-01,9.53881e-01,9.96754e-01,9.99459e-01
1.204369197e+00,9.52884e-01,9.99999e-01,9.56374e-01,9.96818e-01,9.99529e-01
1.210391043e+00,9.54967e-01,9.99999e-01,9.58237e-01,9.96881e-01,9.99703e-01
1.216442998e+00,9.61328e-01,9.99999e-01,9.64450e-01,9.96942e-01,9.99818e-01
1.222525213e+00,9.69157e-01,9.99999e-01,9.72179e-01,9.97003e-01,9.99886e-01
1.228637839e+00,9.77653e-01,9.99999e-01,9.80585e-01,9.97062e-01,9.99947e-01
1.234781029e+00,9.82716e-01,9.99999e-01,9.85569e-01,9.97120e-01,9.99984e-01
1.240954934e+00,9.88041e-01,9.99999e-01,9.90842e-01,9.97176e-01,9.99995e-01
1.247159708e+00,9.90119e-01,9.99999e-01,9.92869e-01,9.97232e-01,9.99996e-01
1.253395507e+00,9.90957e-01,9.99999e-01,9.93656e-01,9.97287e-01,9.99996e-01
1.259662485e+00,9.91309e-01,9.99999e-01,9.93957e-01,9.97340e-01,9.99993e-01
1.265960797e+00,9.87794e-01,9.99999e-01,9.90385e-01,9.97393e-01,9.99990e-01
1.272290601e+00,9.82343e-01,9.99999e-01,9.84875e-01,9.97444e-01,9.99983e-01
1.278652054e+00,9.67715e-01,9.99999e-01,9.70173e-01,9.97494e-01,9.99970e-01
1.285045314e+00,9.44133e-01,9.99999e-01,9.46508e-01,9.97544e-01,9.99944e-01
1.291470541e+00,9.06391e-01,9.99999e-01,9.08665e-01,9.97592e-01,9.99903e-01
1.297927893e+00,8.70522e-01,9.99999e-01,8.72736e-01,9.97640e-01,9.99820e-01
1.304417533e+00,8.49952e-01,9.99999e-01,8.52244e-01,9.97686e-01,9.99620e-01
1.310939621e+00,8.14490e-01,9.99999e-01,8.16976e-01,9.97732e-01,9.99222e-01
1.317494319e+00,8.17286e-01,9.99999e-01,8.20285e-01,9.97777e-01,9.98562e-01
1.324081790e+00,7.43401e-01,9.99999e-01,7.46775e-01,9.97820e-01,9.97654e-01
1.330702199e+00,3.33672e-01,9.99999e-01,3.35743e-01,9.97863e-01,9.95959e-01
1.337355710e+00,4.48279e-02,9.99999e-01,4.52735e-02,9.97906e-01,9.92233e-01
1.344042489e+00,5.90233e-04,9.99999e-01,6.05501e-04,9.97947e-01,9.76789e-01
1.350762701e+00,7.02825e-07,9.99999e-01,7.63204e-07,9.97987e-01,9.22744e-01
1.357516515e+00,1.10821e-09,9.99999e-01,1.40591e-09,9.98027e-01,7.89808e-01
1.364304097e+00,1.86717e-06,9.99999e-01,2.82895e-06,9.98066e-01,6.61300e-01
1.371125618e+00,1.47209e-04,9.99999e-01,2.17814e-04,9.98104e-01,6.77129e-01
1.377981246e+00,4.44451e-04,9.99999e-01,6.21982e-04,9.98142e-01,7.15901e-01
1.384871152e+00,6.21728e-06,9.99999e-01,8.50438e-06,9.98178e-01,7.32401e-01
1.391795508e+00,2.54990e-06,9.99999e-01,3.43734e-06,9.98214e-01,7.43149e-01
1.398754485e+00,2.97365e-05,9.99999e-01,3.80668e-05,9.98249e-01,7.82535e-01
1.405748258e+00,2.90605e-05,9.99999e-01,3.35974e-05,9.98284e-01,8.66448e-01
1.412776999e+00,3.15706e-05,9.99999e-01,3.37628e-05,9.98318e-01,9.36645e-01
1.419840884e+00,6.44070e-05,9.99999e-01,6.63915e-05,9.98351e-01,9.71709e-01
1.426940089e+00,6.06313e-04,9.99999e-01,6.20680e-04,9.98383e-01,9.78433e-01
1.434074789e+00,3.20866e-03,9.99999e-01,3.29750e-03,9.98415e-01,9.74600e-01
1.441245163e+00,1.00848e-02,9.99999e-01,1.03859e-02,9.98447e-01,9.72517e-01
1.448451389e+00,3.99858e-02,9.99999e-01,4.10359e-02,9.98477e-01,9.75894e-01
1.455693646e+00,1.13347e-01,9.99999e-01,1.15692e-01,9.98507e-01,9.81192e-01
1.462972114e+00,1.47461e-01,9.99999e-01,1.50375e-01,9.98537e-01,9.82055e-01
1.470286975e+00,1.09002e-01,9.99999e-01,1.11119e-01,9.98566e-01,9.82358e-01
