#,Wave/freq,Total,N2,H2O,Rayleigh,CIA
4.000000000e-01,2.50222e-01,9.99999e-01,9.99843e-01,2.50261e-01,9.99999e-01
4.020000000e-01,2.57186e-01,9.99999e-01,9.99902e-01,2.57211e-01,9.99999e-01
4.040100000e-01,2.64192e-01,9.99999e-01,9.99958e-01,2.64203e-01,9.99999e-01
4.060300500e-01,2.71239e-01,9.99999e-01,9.99990e-01,2.71241e-01,9.99999e-01
4.080602003e-01,2.78322e-01,9.99999e-01,9.99996e-01,2.78322e-01,9.99999e-01
4.101005013e-01,2.85443e-01,9.99999e-01,9.99999e-01,2.85443e-01,9.99999e-01
4.121510038e-01,2.92599e-01,9.99999e-01,9.99993e-01,2.92600e-01,9.99999e-01
4.142117588e-01,2.99777e-01,9.99999e-01,9.99956e-01,2.99790e-01,9.99999e-01
4.162828176e-01,3.06950e-01,9.99999e-01,9.99806e-01,3.07009e-01,9.99999e-01
4.183642317e-01,3.14218e-01,9.99999e-01,9.99884e-01,3.14254e-01,9.99999e-01
4.204560528e-01,3.21500e-01,9.99999e-01,9.99928e-01,3.21522e-01,9.99999e-01
4.225583331e-01,3.28801e-01,9.99999e-01,9.99973e-01,3.28810e-01,9.99999e-01
4.246711247e-01,3.36107e-01,9.99999e-01,9.99978e-01,3.36114e-01,9.99999e-01
4.267944804e-01,3.43420e-01,9.99999e-01,9.99968e-01,3.43431e-01,9.99999e-01
4.289284528e-01,3.50750e-01,9.99999e-01,9.99975e-01,3.50758e-01,9.99999e-01
4.310730950e-01,3.58089e-01,9.99999e-01,9.99989e-01,3.58092e-01,9.99999e-01
4.332284605e-01,3.65429e-01,9.99999e-01,9.99996e-01,3.65430e-01,9.99999e-01
4.353946028e-01,3.72769e-01,9.99999e-01,9.99998e-01,3.72770e-01,9.99999e-01
4.375715758e-01,3.80099e-01,9.99999e-01,9.99980e-01,3.80107e-01,9.99999e-01
4.397594337e-01,3.87373e-01,9.99999e-01,9.99830e-01,3.87439e-01,9.99999e-01
4.419582309e-01,3.94424e-01,9.99999e-01,9.99138e-01,3.94764e-01,9.99999e-01
4.441680220e-01,4.01807e-01,9.99999e-01,9.99325e-01,4.02078e-01,9.99999e-01
4.463888621e-01,4.09093e-01,9.99999e-01,9.99298e-01,4.09380e-01,9.99999e-01
4.486208064e-01,4.16484e-01,9.99999e-01,9.99563e-01,4.16666e-01,9.99999e-01
4.508639105e-01,4.23847e-01,9.99999e-01,9.99795e-01,4.23934e-01,9.99999e-01
4.531182300e-01,4.31147e-01,9.99999e-01,9.99919e-01,4.31181e-01,9.99999e-01
4.553838212e-01,4.38382e-01,9.99999e-01,9.99944e-01,4.38406e-01,9.99999e-01
4.576607403e-01,4.45594e-01,9.99999e-01,9.99974e-01,4.45605e-01,9.99999e-01
4.599490440e-01,4.52769e-01,9.99999e-01,9.99981e-01,4.52777e-01,9.99999e-01
4.622487892e-01,4.59918e-01,9.99999e-01,9.99996e-01,4.59919e-01,9.99999e-01
4.645600332e-01,4.67024e-01,9.99999e-01,9.99987e-01,4.67029e-01,9.99999e-01
4.668828333e-01,4.74008e-01,9.99999e-01,9.99793e-01,4.74106e-01,9.99999e-01
4.692172475e-01,4.80935e-01,9.99999e-01,9.99559e-01,4.81147e-01,9.99999e-01
4.715633337e-01,4.88010e-01,9.99999e-01,9.99712e-01,4.88150e-01,9.99999e-01
4.739211504e-01,4.94978e-01,9.99999e-01,9.99724e-01,4.95114e-01,9.99999e-01
4.762907561e-01,5.01965e-01,9.99999e-01,9.99856e-01,5.02037e-01,9.99999e-01
4.786722099e-01,5.08887e-01,9.99999e-01,9.99941e-01,5.08917e-01,9.99999e-01
4.810655710e-01,5.15743e-01,9.99999e-01,9.99982e-01,5.15752e-01,9.99999e-01
4.834708988e-01,5.22454e-01,9.99999e-01,9.99831e-01,5.22542e-01,9.99999e-01
4.858882533e-01,5.29120e-01,9.99999e-01,9.99688e-01,5.29284e-01,9.99999e-01
4.883176946e-01,5.35838e-01,9.99999e-01,9.99739e-01,5.35978e-01,9.99999e-01
4.907592831e-01,5.42494e-01,9.99999e-01,9.99764e-01,5.42621e-01,9.99999e-01
4.932130795e-01,5.49122e-01,9.99999e-01,9.99832e-01,5.49214e-01,9.99999e-01
4.956791449e-01,5.55704e-01,9.99999e-01,9.99911e-01,5.55753e-01,9.99999e-01
4.981575406e-01,5.61991e-01,9.99999e-01,9.99557e-01,5.62239e-01,9.99999e-01
5.006483283e-01,5.68016e-01,9.99999e-01,9.98855e-01,5.68671e-01,9.99991e-01
5.031515699e-01,5.71683e-01,9.99999e-01,9.94211e-01,5.75046e-01,9.99938e-01
5.056673278e-01,5.79545e-01,9.99999e-01,9.96937e-01,5.81366e-01,9.99929e-01
5.081956644e-01,5.85332e-01,9.99999e-01,9.96137e-01,5.87628e-01,9.99954e-01
5.107366428e-01,5.92277e-01,9.99999e-01,9.97391e-01,5.93831e-01,9.99991e-01
5.132903260e-01,5.99080e-01,9.99999e-01,9.98508e-01,5.99976e-01,9.99998e-01
5.158567776e-01,6.05679e-01,9.99999e-01,9.99369e-01,6.06061e-01,9.99999e-01
5.184360615e-01,6.11931e-01,9.99999e-01,9.99747e-01,6.12085e-01,9.99999e-01
5.210282418e-01,6.17991e-01,9.99999e-01,9.99905e-01,6.18049e-01,9.99999e-01
5.236333830e-01,6.23714e-01,9.99999e-01,9.99621e-01,6.23951e-01,9.99996e-01
5.262515499e-01,6.29640e-01,9.99999e-01,9.99762e-01,6.29792e-01,9.99995e-01
5.288828077e-01,6.35430e-01,9.99999e-01,9.99782e-01,6.35570e-01,9.99997e-01
5.315272217e-01,6.41163e-01,9.99999e-01,9.99808e-01,6.41285e-01,9.99998e-01
5.341848578e-01,6.46857e-01,9.99999e-01,9.99874e-01,6.46938e-01,9.99999e-01
5.368557821e-01,6.52239e-01,9.99999e-01,9.99559e-01,6.52527e-01,9.99998e-01
5.395400610e-01,6.56999e-01,9.99999e-01,9.98411e-01,6.58053e-01,9.99986e-01
5.422377613e-01,6.62126e-01,9.99999e-01,9.97944e-01,6.63514e-01,9.99962e-01
5.449489501e-01,6.67609e-01,9.99999e-01,9.98089e-01,6.68912e-01,9.99960e-01
5.476736949e-01,6.73092e-01,9.99999e-01,9.98306e-01,6.74246e-01,9.99980e-01
5.504120634e-01,6.78678e-01,9.99999e-01,9.98771e-01,6.79516e-01,9.99994e-01
5.531641237e-01,6.84298e-01,9.99999e-01,9.99381e-01,6.84722e-01,9.99998e-01
5.559299443e-01,6.89658e-01,9.99999e-01,9.99701e-01,6.89864e-01,9.99999e-01
5.587095940e-01,6.94811e-01,9.99999e-01,9.99812e-01,6.94941e-01,9.99999e-01
5.615031420e-01,6.99809e-01,9.99999e-01,9.99791e-01,6.99955e-01,9.99999e-01
5.643106577e-01,7.04737e-01,9.99999e-01,9.99763e-01,7.04904e-01,9.99997e-01
5.671322110e-01,7.07742e-01,9.99999e-01,9.97139e-01,7.09790e-01,9.99974e-01
5.699678720e-01,7.12376e-01,9.99999e-01,9.96947e-01,7.14613e-01,9.99921e-01
5.728177114e-01,7.17040e-01,9.99999e-01,9.96823e-01,7.19371e-01,9.99934e-01
5.756818000e-01,7.21927e-01,9.99999e-01,9.97083e-01,7.24067e-01,9.99959e-01
5.785602090e-01,7.26838e-01,9.99999e-01,9.97457e-01,7.28699e-01,9.99987e-01
5.814530100e-01,7.31394e-01,9.99999e-01,9.97447e-01,7.33269e-01,9.99994e-01
5.843602750e-01,7.35522e-01,9.99999e-01,9.96961e-01,7.37776e-01,9.99982e-01
5.872820764e-01,7.22936e-01,9.99999e-01,9.74195e-01,7.42221e-01,9.99815e-01
5.902184868e-01,7.22850e-01,9.99999e-01,9.68668e-01,7.46605e-01,9.99497e-01
5.931695792e-01,7.33921e-01,9.99999e-01,9.77825e-01,7.50927e-01,9.99516e-01
5.961354271e-01,7.36612e-01,9.99999e-01,9.75673e-01,7.55187e-01,9.99722e-01
5.991161043e-01,7.45794e-01,9.99999e-01,9.82183e-01,7.59388e-01,9.99913e-01
6.021116848e-01,7.55771e-01,9.99999e-01,9.89851e-01,7.63527e-01,9.99989e-01
6.051222432e-01,7.63656e-01,9.99999e-01,9.94852e-01,7.67607e-01,9.99998e-01
6.081478544e-01,7.69913e-01,9.99999e-01,9.97777e-01,7.71628e-01,9.99999e-01
6.111885937e-01,7.74860e-01,9.99999e-01,9.99058e-01,7.75589e-01,9.99999e-01
6.142445367e-01,7.79165e-01,9.99999e-01,9.99579e-01,7.79492e-01,9.99999e-01
6.173157594e-01,7.83156e-01,9.99999e-01,9.99767e-01,7.83337e-01,9.99999e-01
6.204023382e-01,7.86971e-01,9.99999e-01,9.99803e-01,7.87125e-01,9.99999e-01
6.235043498e-01,7.90172e-01,9.99999e-01,9.99137e-01,7.90855e-01,9.99997e-01
6.266218716e-01,7.90876e-01,9.99999e-01,9.95433e-01,7.94529e-01,9.99967e-01
6.297549810e-01,7.96758e-01,9.99999e-01,9.98323e-01,7.98147e-01,9.99935e-01
6.329037559e-01,7.99012e-01,9.99999e-01,9.96685e-01,8.01709e-01,9.99948e-01
6.360682746e-01,8.02921e-01,9.99999e-01,9.97179e-01,8.05217e-01,9.99969e-01
6.392486160e-01,8.05703e-01,9.99999e-01,9.96344e-01,8.08670e-01,9.99986e-01
6.424448591e-01,8.08087e-01,9.99999e-01,9.95117e-01,8.12069e-01,9.99978e-01
6.456570834e-01,7.97008e-01,9.99999e-01,9.77548e-01,8.15415e-01,9.99873e-01
6.488853688e-01,8.04922e-01,9.99999e-01,9.83506e-01,8.18709e-01,9.99647e-01
6.521297956e-01,8.07913e-01,9.99999e-01,9.83208e-01,8.21950e-01,9.99708e-01
6.553904446e-01,8.11137e-01,9.99999e-01,9.83242e-01,8.25139e-01,9.99783e-01
6.586673968e-01,8.16326e-01,9.99999e-01,9.85640e-01,8.28278e-01,9.99927e-01
6.619607338e-01,8.24427e-01,9.99999e-01,9.91668e-01,8.31366e-01,9.99984e-01
6.652705375e-01,8.30367e-01,9.99999e-01,9.95169e-01,8.34404e-01,9.99991e-01
6.685968902e-01,8.35511e-01,9.99999e-01,9.97752e-01,8.37393e-01,9.99998e-01
6.719398746e-01,8.39459e-01,9.99999e-01,9.98958e-01,8.40334e-01,9.99999e-01
6.752995740e-01,8.42751e-01,9.99999e-01,9.99435e-01,8.43226e-01,9.99999e-01
6.786760719e-01,8.45381e-01,9.99999e-01,9.99185e-01,8.46071e-01,9.99998e-01
6.820694522e-01,8.47680e-01,9.99999e-01,9.98605e-01,8.48869e-01,9.99992e-01
6.854797995e-01,8.50077e-01,9.99999e-01,9.98201e-01,8.51621e-01,9.99984e-01
6.889071985e-01,8.50589e-01,9.99999e-01,9.95663e-01,8.54327e-01,9.99960e-01
6.923517345e-01,7.98167e-01,9.99999e-01,9.31679e-01,8.56988e-01,9.99659e-01
6.958134932e-01,8.27911e-01,9.99999e-01,9.63856e-01,8.59604e-01,9.99245e-01
6.992925606e-01,8.31894e-01,9.99999e-01,9.65531e-01,8.62177e-01,9.99320e-01
7.027890234e-01,8.27588e-01,9.99999e-01,9.57570e-01,8.64706e-01,9.99480e-01
7.063029686e-01,8.35890e-01,9.99999e-01,9.64151e-01,8.67192e-01,9.99741e-01
7.098344834e-01,8.39560e-01,9.99999e-01,9.65561e-01,8.69637e-01,9.99846e-01
7.133836558e-01,8.32252e-01,9.99999e-01,9.54663e-01,8.72039e-01,9.99696e-01
7.169505741e-01,6.08565e-01,9.99999e-01,6.97643e-01,8.74401e-01,9.97613e-01
7.205353270e-01,7.29972e-01,9.99999e-01,8.36131e-01,8.76722e-01,9.95793e-01
7.241380036e-01,6.97157e-01,9.99999e-01,7.96014e-01,8.79003e-01,9.96366e-01
7.277586936e-01,7.15273e-01,9.99999e-01,8.14079e-01,8.81245e-01,9.97028e-01
7.313974871e-01,7.07333e-01,9.99999e-01,8.01765e-01,8.83449e-01,9.98607e-01
7.350544745e-01,7.84036e-01,9.99999e-01,8.85730e-01,8.85614e-01,9.99515e-01
7.387297469e-01,8.11368e-01,9.99999e-01,9.14170e-01,8.87741e-01,9.99777e-01
7.424233956e-01,8.51477e-01,9.99999e-01,9.56936e-01,8.89832e-01,9.99956e-01
7.461355126e-01,8.68392e-01,9.99999e-01,9.73664e-01,8.91886e-01,9.99991e-01
7.498661902e-01,8.82858e-01,9.99999e-01,9.87645e-01,8.93904e-01,9.99996e-01
7.536155211e-01,8.90441e-01,9.99999e-01,9.93922e-01,8.95886e-01,9.99997e-01
7.573835987e-01,8.95021e-01,9.99999e-01,9.96867e-01,8.97834e-01,9.99999e-01
7.611705167e-01,8.97995e-01,9.99999e-01,9.98052e-01,8.99747e-01,9.99999e-01
7.649763693e-01,9.00526e-01,9.99999e-01,9.98779e-01,9.01626e-01,9.99999e-01
7.688012511e-01,9.02705e-01,9.99999e-01,9.99149e-01,9.03473e-01,9.99999e-01
7.726452574e-01,9.04653e-01,9.99999e-01,9.99300e-01,9.05286e-01,9.99999e-01
7.765084837e-01,9.06165e-01,9.99999e-01,9.99006e-01,9.07067e-01,9.99998e-01
7.803910261e-01,9.04919e-01,9.99999e-01,9.95715e-01,9.08816e-01,9.99995e-01
7.842929812e-01,8.96969e-01,9.99999e-01,9.85128e-01,9.10534e-01,9.99971e-01
7.882144461e-01,8.84279e-01,9.99999e-01,9.69551e-01,9.12221e-01,9.99810e-01
7.921555184e-01,8.98190e-01,9.99999e-01,9.83191e-01,9.13878e-01,9.99634e-01
7.961162960e-01,8.88223e-01,9.99999e-01,9.70538e-01,9.15505e-01,9.99649e-01
8.000968774e-01,8.85541e-01,9.99999e-01,9.65944e-01,9.17103e-01,9.99627e-01
8.040973618e-01,8.87145e-01,9.99999e-01,9.65967e-01,9.18672e-01,9.99703e-01
8.081178486e-01,8.51380e-01,9.99999e-01,9.25455e-01,9.20213e-01,9.99722e-01
8.121584379e-01,6.70553e-01,9.99999e-01,7.28291e-01,9.21725e-01,9.98909e-01
8.162192301e-01,6.32176e-01,9.99999e-01,6.87571e-01,9.23210e-01,9.95907e-01
8.203003262e-01,7.69498e-01,9.99999e-01,8.36193e-01,9.24668e-01,9.95209e-01
8.244018279e-01,7.22551e-01,9.99999e-01,7.83195e-01,9.26100e-01,9.96185e-01
8.285238370e-01,7.37286e-01,9.99999e-01,7.97302e-01,9.27505e-01,9.97002e-01
8.326664562e-01,7.38541e-01,9.99999e-01,7.96069e-01,9.28885e-01,9.98759e-01
8.368297885e-01,7.88377e-01,9.99999e-01,8.47738e-01,9.30240e-01,9.99716e-01
8.410139374e-01,8.44033e-01,9.99999e-01,9.06183e-01,9.31569e-01,9.99833e-01
8.452190071e-01,8.88670e-01,9.99999e-01,9.52708e-01,9.32875e-01,9.99900e-01
8.494451021e-01,9.08167e-01,9.99999e-01,9.72256e-01,9.34156e-01,9.99920e-01
8.536923276e-01,9.19932e-01,9.99999e-01,9.83496e-01,9.35413e-01,9.99951e-01
8.579607893e-01,9.27090e-01,9.99999e-01,9.89807e-01,9.36648e-01,9.99987e-01
8.622505932e-01,9.31773e-01,9.99999e-01,9.93511e-01,9.37859e-01,9.99997e-01
8.665618462e-01,9.35277e-01,9.99999e-01,9.95983e-01,9.39049e-01,9.99998e-01
8.708946554e-01,9.35892e-01,9.99999e-01,9.95403e-01,9.40216e-01,9.99997e-01
8.752491287e-01,9.35570e-01,9.99999e-01,9.93853e-01,9.41361e-01,9.99993e-01
8.796253743e-01,9.34458e-01,9.99999e-01,9.91500e-01,9.42486e-01,9.99980e-01
8.840235012e-01,9.34380e-01,9.99999e-01,9.90298e-01,9.43589e-01,9.99940e-01
8.884436187e-01,9.11943e-01,9.99999e-01,9.65516e-01,9.44672e-01,9.99830e-01
8.928858368e-01,6.59482e-01,9.99999e-01,6.98001e-01,9.45735e-01,9.99026e-01
8.973502660e-01,5.01973e-01,9.99999e-01,5.32843e-01,9.46777e-01,9.95023e-01
9.018370173e-01,6.81769e-01,9.99999e-01,7.24981e-01,9.47801e-01,9.92186e-01
9.063462024e-01,7.08287e-01,9.99999e-01,7.51665e-01,9.48805e-01,9.93132e-01
9.108779334e-01,6.04804e-01,9.99999e-01,6.41352e-01,9.49790e-01,9.92864e-01
9.154323231e-01,5.67743e-01,9.99999e-01,6.00692e-01,9.50757e-01,9.94098e-01
9.200094847e-01,6.38549e-01,9.99999e-01,6.73177e-01,9.51706e-01,9.96692e-01
9.246095321e-01,5.32581e-01,9.99999e-01,5.61197e-01,9.52637e-01,9.96190e-01
9.292325798e-01,4.16753e-02,9.99999e-01,4.43608e-02,9.53550e-01,9.85225e-01
9.338787427e-01,1.12666e-02,9.99999e-01,1.25535e-02,9.54447e-01,9.40321e-01
9.385481364e-01,1.48565e-01,9.99999e-01,1.67320e-01,9.55326e-01,9.29429e-01
9.432408771e-01,8.69718e-02,9.99999e-01,9.68845e-02,9.56189e-01,9.38814e-01
9.479570815e-01,3.06261e-02,9.99999e-01,3.36884e-02,9.57035e-01,9.49912e-01
9.526968669e-01,6.49862e-02,9.99999e-01,7.00048e-02,9.57866e-01,9.69143e-01
9.574603512e-01,7.38954e-02,9.99999e-01,7.83171e-02,9.58681e-01,9.84205e-01
9.622476530e-01,1.12009e-01,9.99999e-01,1.18031e-01,9.59480e-01,9.89051e-01
9.670588912e-01,2.70481e-01,9.99999e-01,2.83802e-01,9.60264e-01,9.92499e-01
9.718941857e-01,4.11235e-01,9.99999e-01,4.30287e-01,9.61033e-01,9.94472e-01
9.767536566e-01,4.74345e-01,9.99999e-01,4.95284e-01,9.61788e-01,9.95773e-01
9.816374249e-01,5.66596e-01,9.99999e-01,5.89516e-01,9.62529e-01,9.98535e-01
9.865456120e-01,6.90143e-01,9.99999e-01,7.16687e-01,9.63255e-01,9.99694e-01
9.914783401e-01,7.83469e-01,9.99999e-01,8.12823e-01,9.63968e-01,9.99914e-01
9.964357318e-01,8.61587e-01,9.99999e-01,8.93188e-01,9.64667e-01,9.99950e-01
1.001417910e+00,9.01980e-01,9.99999e-01,9.34423e-01,9.65352e-01,9.99923e-01
1.006425000e+00,9.29259e-01,9.99999e-01,9.62044e-01,9.66025e-01,9.99891e-01
1.011457125e+00,9.43650e-01,9.99999e-01,9.76268e-01,9.66685e-01,9.99899e-01
1.016514411e+00,9.51619e-01,9.99999e-01,9.83825e-01,9.67332e-01,9.99929e-01
1.021596983e+00,9.55403e-01,9.99999e-01,9.87090e-01,9.67967e-01,9.99928e-01
1.026704968e+00,9.58779e-01,9.99999e-01,9.89917e-01,9.68589e-01,9.99952e-01
1.031838492e+00,9.62076e-01,9.99999e-01,9.92662e-01,9.69200e-01,9.99986e-01
1.036997685e+00,9.65566e-01,9.99999e-01,9.95636e-01,9.69799e-01,9.99997e-01
1.042182673e+00,9.65342e-01,9.99999e-01,9.94801e-01,9.70387e-01,9.99998e-01
1.047393587e+00,9.64272e-01,9.99999e-01,9.93110e-01,9.70963e-01,9.99998e-01
1.052630555e+00,9.62354e-01,9.99999e-01,9.90558e-01,9.71528e-01,9.99997e-01
1.057893707e+00,9.56810e-01,9.99999e-01,9.84293e-01,9.72083e-01,9.99994e-01
1.063183176e+00,9.47617e-01,9.99999e-01,9.74299e-01,9.72627e-01,9.99985e-01
1.068499092e+00,9.31641e-01,9.99999e-01,9.57363e-01,9.73160e-01,9.99970e-01
1.073841587e+00,9.25372e-01,9.99999e-01,9.50443e-01,9.73683e-01,9.99935e-01
1.079210795e+00,9.12470e-01,9.99999e-01,9.36801e-01,9.74196e-01,9.99825e-01
1.084606849e+00,8.82866e-01,9.99999e-01,9.06162e-01,9.74699e-01,9.99580e-01
1.090029883e+00,8.46536e-01,9.99999e-01,8.68824e-01,9.75193e-01,9.99130e-01
1.095480033e+00,6.64874e-01,9.99999e-01,6.82520e-01,9.75677e-01,9.98428e-01
1.100957433e+00,3.79732e-01,9.99999e-01,3.90136e-01,9.76151e-01,9.97110e-01
1.106462220e+00,1.08609e-01,9.99999e-01,1.11756e-01,9.76617e-01,9.95103e-01
1.111994531e+00,1.13751e-02,9.99999e-01,1.17947e-02,9.77073e-01,9.87053e-01
1.117554504e+00,1.18741e-03,9.99999e-01,1.27323e-03,9.77521e-01,9.54042e-01
1.123142276e+00,1.05026e-02,9.99999e-01,1.20068e-02,9.77960e-01,8.94430e-01
1.128757988e+00,3.11380e-02,9.99999e-01,3.62101e-02,9.78391e-01,8.78915e-01
1.134401778e+00,1.65082e-02,9.99999e-01,1.88218e-02,9.78813e-01,8.96062e-01
1.140073787e+00,1.05503e-01,9.99999e-01,1.17615e-01,9.79227e-01,9.16049e-01
1.145774156e+00,1.94785e-02,9.99999e-01,2.15451e-02,9.79633e-01,9.22873e-01
1.151503026e+00,1.21833e-02,9.99999e-01,1.30000e-02,9.80031e-01,9.56271e-01
1.157260541e+00,1.58822e-02,9.99999e-01,1.64174e-02,9.80422e-01,9.86719e-01
1.163046844e+00,4.54104e-02,9.99999e-01,4.64748e-02,9.80805e-01,9.96217e-01
1.168862078e+00,1.03461e-01,9.99999e-01,1.05651e-01,9.81180e-01,9.98049e-01
1.174706389e+00,2.40175e-01,9.99999e-01,2.45323e-01,9.81549e-01,9.97415e-01
1.180579921e+00,4.10270e-01,9.99999e-01,4.19466e-01,9.81910e-01,9.96094e-01
1.186482820e+00,5.92942e-01,9.99999e-01,6.06077e-01,9.82264e-01,9.95991e-01
1.192415234e+00,7.29746e-01,9.99999e-01,7.44896e-01,9.82611e-01,9.96996e-01
1.198377311e+00,7.64984e-01,9.99999e-01,7.80465e-01,9.82952e-01,9.97162e-01
1.204369197e+00,7.77235e-01,9.99999e-01,7.92480e-01,9.83286e-01,9.97432e-01
1.210391043e+00,7.85280e-01,9.99999e-01,7.99611e-01,9.83613e-01,9.98437e-01
1.216442998e+00,8.12676e-01,9.99999e-01,8.26736e-01,9.83934e-01,9.99042e-01
1.222525213e+00,8.47630e-01,9.99999e-01,8.61707e-01,9.84249e-01,9.99405e-01
1.228637839e+00,8.87524e-01,9.99999e-01,9.01693e-01,9.84558e-01,9.99722e-01
1.234781029e+00,9.11965e-01,9.99999e-01,9.26056e-01,9.84860e-01,9.99920e-01
1.240954934e+00,9.38413e-01,9.99999e-01,9.52572e-01,9.85157e-01,9.99977e-01
1.247159708e+00,9.48815e-01,9.99999e-01,9.62839e-01,9.85448e-01,9.99985e-01
1.253395507e+00,9.53130e-01,9.99999e-01,9.66942e-01,9.85733e-01,9.99981e-01
1.259662485e+00,9.55002e-01,9.99999e-01,9.68577e-01,9.86013e-01,9.99970e-01
1.265960797e+00,9.37223e-01,9.99999e-01,9.50299e-01,9.86288e-01,9.99950e-01
1.272290601e+00,9.10697e-01,9.99999e-01,9.23186e-01,9.86557e-01,9.99912e-01
1.278652054e+00,8.42565e-01,9.99999e-01,8.53949e-01,9.86820e-01,9.99845e-01
1.285045314e+00,7.42969e-01,9.99999e-01,7.52911e-01,9.87079e-01,9.99711e-01
1.291470541e+00,6.02969e-01,9.99999e-01,6.11013e-01,9.87333e-01,9.99494e-01
1.297927893e+00,5.24184e-01,9.99999e-01,5.31276e-01,9.87581e-01,9.99056e-01
1.304417533e+00,4.40071e-01,9.99999e-01,4.46386e-01,9.87825e-01,9.98001e-01
1.310939621e+00,3.91642e-01,9.99999e-01,3.98003e-01,9.88064e-01,9.95901e-01
1.317494319e+00,3.63204e-01,9.99999e-01,3.70306e-01,9.88298e-01,9.92432e-01
1.324081790e+00,2.33020e-01,9.99999e-01,2.38666e-01,9.88528e-01,9.87674e-01
1.330702199e+00,3.42249e-02,9.99999e-01,3.53623e-02,9.88753e-01,9.78841e-01
1.337355710e+00,6.50190e-06,9.99999e-01,6.85079e-06,9.88974e-01,9.59651e-01
1.344042489e+00,1.17395e-08,9.99999e-01,1.34352e-08,9.89191e-01,8.83335e-01
1.350762701e+00,2.59832e-28,9.99999e-01,4.01579e-28,9.89403e-01,6.53955e-01
1.357516515e+00,5.15597e-43,9.99999e-01,1.81206e-42,9.89611e-01,2.87523e-01
1.364304097e+00,1.43985e-26,9.99999e-01,1.29264e-25,9.89816e-01,1.12533e-01
1.371125618e+00,4.03319e-16,9.99999e-01,3.19491e-15,9.90016e-01,1.27511e-01
1.377981246e+00,1.66254e-15,9.99999e-01,9.81207e-15,9.90212e-01,1.71113e-01
1.384871152e+00,7.97148e-22,9.99999e-01,4.17032e-21,9.90404e-01,1.92999e-01
1.391795508e+00,9.82323e-27,9.99999e-01,4.75750e-26,9.90593e-01,2.08439e-01
1.398754485e+00,2.27540e-20,9.99999e-01,8.38748e-20,9.90778e-01,2.73810e-01
1.405748258e+00,4.04476e-20,9.99999e-01,8.70362e-20,9.90959e-01,4.68960e-01
1.412776999e+00,2.07026e-19,9.99998e-01,2.95147e-19,9.91137e-01,7.07702e-01
1.419840884e+00,3.61127e-19,9.99998e-01,4.23922e-19,9.91311e-01,8.59337e-01
1.426940089e+00,1.21679e-12,9.99998e-01,1.37704e-12,9.91482e-01,8.91215e-01
1.434074789e+00,3.18167e-11,9.99998e-01,3.67552e-11,9.91650e-01,8.72927e-01
1.441245163e+00,2.69377e-09,9.99998e-01,3.14673e-09,9.91814e-01,8.63118e-01
1.448451389e+00,2.40423e-06,9.99997e-01,2.75709e-06,9.91975e-01,8.79070e-01
1.455693646e+00,1.50248e-04,9.99998e-01,1.67415e-04,9.92133e-01,9.04574e-01
1.462972114e+00,2.09954e-04,9.99999e-01,2.32824e-04,9.92288e-01,9.08782e-01
1.470286975e+00,7.07281e-05,9.99999e-01,7.82924e-05,9.92439e-01,9.10264e-01
