#,Wave/freq,Total,N2,H2O,Rayleigh,CIA
4.000000000e-01,4.92169e-01,9.99999e-01,9.99919e-01,4.92208e-01,9.99999e-01
4.020000000e-01,4.99131e-01,9.99999e-01,9.99949e-01,4.99155e-01,9.99999e-01
4.040100000e-01,5.06043e-01,9.99999e-01,9.99978e-01,5.06053e-01,9.99999e-01
4.060300500e-01,5.12905e-01,9.99999e-01,9.99994e-01,5.12908e-01,9.99999e-01
4.080602003e-01,5.19716e-01,9.99999e-01,9.99997e-01,5.19717e-01,9.99999e-01
4.101005013e-01,5.26479e-01,9.99999e-01,9.99999e-01,5.26479e-01,9.99999e-01
4.121510038e-01,5.33191e-01,9.99999e-01,9.99996e-01,5.33193e-01,9.99999e-01
4.142117588e-01,5.39846e-01,9.99999e-01,9.99977e-01,5.39857e-01,9.99999e-01
4.162828176e-01,5.46417e-01,9.99999e-01,9.99900e-01,5.46471e-01,9.99999e-01
4.183642317e-01,5.53000e-01,9.99999e-01,9.99940e-01,5.53033e-01,9.99999e-01
4.204560528e-01,5.59521e-01,9.99999e-01,9.99963e-01,5.59541e-01,9.99999e-01
4.225583331e-01,5.65988e-01,9.99999e-01,9.99986e-01,5.65996e-01,9.99999e-01
4.246711247e-01,5.72389e-01,9.99999e-01,9.99988e-01,5.72395e-01,9.99999e-01
4.267944804e-01,5.78729e-01,9.99999e-01,9.99983e-01,5.78738e-01,9.99999e-01
4.289284528e-01,5.85016e-01,9.99999e-01,9.99987e-01,5.85024e-01,9.99999e-01
4.310730950e-01,5.91248e-01,9.99999e-01,9.99994e-01,5.91251e-01,9.99999e-01
4.332284605e-01,5.97420e-01,9.99999e-01,9.99998e-01,5.97421e-01,9.99999e-01
4.353946028e-01,6.03530e-01,9.99999e-01,9.99998e-01,6.03531e-01,9.99999e-01
4.375715758e-01,6.09574e-01,9.99999e-01,9.99989e-01,6.09580e-01,9.99999e-01
4.397594337e-01,6.15516e-01,9.99999e-01,9.99912e-01,6.15570e-01,9.99999e-01
4.419582309e-01,6.21223e-01,9.99999e-01,9.99557e-01,6.21498e-01,9.99999e-01
4.441680220e-01,6.27148e-01,9.99999e-01,9.99655e-01,6.27364e-01,9.99999e-01
4.463888621e-01,6.32941e-01,9.99999e-01,9.99640e-01,6.33168e-01,9.99999e-01
4.486208064e-01,6.38767e-01,9.99999e-01,9.99776e-01,6.38910e-01,9.99999e-01
4.508639105e-01,6.44521e-01,9.99999e-01,9.99895e-01,6.44588e-01,9.99999e-01
4.531182300e-01,6.50177e-01,9.99999e-01,9.99958e-01,6.50204e-01,9.99999e-01
4.553838212e-01,6.55738e-01,9.99999e-01,9.99971e-01,6.55756e-01,9.99999e-01
4.576607403e-01,6.61236e-01,9.99999e-01,9.99986e-01,6.61245e-01,9.99999e-01
4.599490440e-01,6.66663e-01,9.99999e-01,9.99990e-01,6.66669e-01,9.99999e-01
4.622487892e-01,6.72029e-01,9.99999e-01,9.99997e-01,6.72030e-01,9.99999e-01
4.645600332e-01,6.77322e-01,9.99999e-01,9.99993e-01,6.77327e-01,9.99999e-01
4.668828333e-01,6.82487e-01,9.99999e-01,9.99894e-01,6.82559e-01,9.99999e-01
4.692172475e-01,6.87573e-01,9.99999e-01,9.99774e-01,6.87728e-01,9.99999e-01
4.715633337e-01,6.92730e-01,9.99999e-01,9.99852e-01,6.92832e-01,9.99999e-01
4.739211504e-01,6.97774e-01,9.99999e-01,9.99858e-01,6.97872e-01,9.99999e-01
4.762907561e-01,7.02797e-01,9.99999e-01,9.99926e-01,7.02848e-01,9.99999e-01
4.786722099e-01,7.07740e-01,9.99999e-01,9.99969e-01,7.07761e-01,9.99999e-01
4.810655710e-01,7.12603e-01,9.99999e-01,9.99990e-01,7.12609e-01,9.99999e-01
4.834708988e-01,7.17333e-01,9.99999e-01,9.99913e-01,7.17395e-01,9.99999e-01
4.858882533e-01,7.22002e-01,9.99999e-01,9.99840e-01,7.22116e-01,9.99999e-01
4.883176946e-01,7.26678e-01,9.99999e-01,9.99866e-01,7.26775e-01,9.99999e-01
4.907592831e-01,7.31283e-01,9.99999e-01,9.99879e-01,7.31371e-01,9.99999e-01
4.932130795e-01,7.35842e-01,9.99999e-01,9.99914e-01,7.35904e-01,9.99999e-01
4.956791449e-01,7.40342e-01,9.99999e-01,9.99954e-01,7.40375e-01,9.99999e-01
4.981575406e-01,7.44616e-01,9.99999e-01,9.99773e-01,7.44785e-01,9.99999e-01
5.006483283e-01,7.48689e-01,9.99999e-01,9.99412e-01,7.49132e-01,9.99995e-01
5.031515699e-01,7.51158e-01,9.99999e-01,9.97030e-01,7.53418e-01,9.99968e-01
5.056673278e-01,7.56429e-01,9.99999e-01,9.98432e-01,7.57644e-01,9.99963e-01
5.081956644e-01,7.60285e-01,9.99999e-01,9.98022e-01,7.61808e-01,9.99976e-01
5.107366428e-01,7.64887e-01,9.99999e-01,9.98664e-01,7.65913e-01,9.99995e-01
5.132903260e-01,7.69371e-01,9.99999e-01,9.99236e-01,7.69959e-01,9.99999e-01
5.158567776e-01,7.73695e-01,9.99999e-01,9.99677e-01,7.73945e-01,9.99999e-01
5.184360615e-01,7.77772e-01,9.99999e-01,9.99870e-01,7.77872e-01,9.99999e-01
5.210282418e-01,7.81703e-01,9.99999e-01,9.99951e-01,7.81741e-01,9.99999e-01
5.236333830e-01,7.85399e-01,9.99999e-01,9.99805e-01,7.85553e-01,9.99998e-01
5.262515499e-01,7.89210e-01,9.99999e-01,9.99878e-01,7.89307e-01,9.99997e-01
5.288828077e-01,7.92915e-01,9.99999e-01,9.99888e-01,7.93004e-01,9.99998e-01
5.315272217e-01,7.96567e-01,9.99999e-01,9.99901e-01,7.96645e-01,9.99999e-01
5.341848578e-01,8.00180e-01,9.99999e-01,9.99935e-01,8.00231e-01,9.99999e-01
5.368557821e-01,8.03579e-01,9.99999e-01,9.99773e-01,8.03761e-01,9.99998e-01
5.395400610e-01,8.06574e-01,9.99999e-01,9.99184e-01,8.07237e-01,9.99992e-01
5.422377613e-01,8.09791e-01,9.99999e-01,9.98948e-01,8.10658e-01,9.99980e-01
5.449489501e-01,8.13214e-01,9.99999e-01,9.99020e-01,8.14027e-01,9.99979e-01
5.476736949e-01,8.16626e-01,9.99999e-01,9.99133e-01,8.17342e-01,9.99989e-01
5.504120634e-01,8.20087e-01,9.99999e-01,9.99371e-01,8.20604e-01,9.99996e-01
5.531641237e-01,8.23555e-01,9.99999e-01,9.99683e-01,8.23815e-01,9.99999e-01
5.559299443e-01,8.26849e-01,9.99999e-01,9.99846e-01,8.26975e-01,9.99999e-01
5.587095940e-01,8.30005e-01,9.99999e-01,9.99903e-01,8.30084e-01,9.99999e-01
5.615031420e-01,8.33054e-01,9.99999e-01,9.99892e-01,8.33143e-01,9.99999e-01
5.643106577e-01,8.36051e-01,9.99999e-01,9.99878e-01,8.36153e-01,9.99998e-01
5.671322110e-01,8.37868e-01,9.99999e-01,9.98527e-01,8.39114e-01,9.99986e-01
5.699678720e-01,8.40678e-01,9.99999e-01,9.98438e-01,8.42026e-01,9.99959e-01
5.728177114e-01,8.43488e-01,9.99999e-01,9.98372e-01,8.44891e-01,9.99966e-01
5.756818000e-01,8.46425e-01,9.99999e-01,9.98506e-01,8.47708e-01,9.99979e-01
5.785602090e-01,8.49367e-01,9.99999e-01,9.98698e-01,8.50479e-01,9.99993e-01
5.814530100e-01,8.52086e-01,9.99999e-01,9.98692e-01,8.53204e-01,9.99996e-01
5.843602750e-01,8.54542e-01,9.99999e-01,9.98440e-01,8.55884e-01,9.99990e-01
5.872820764e-01,8.46980e-01,9.99999e-01,9.86652e-01,8.58519e-01,9.99905e-01
5.902184868e-01,8.46973e-01,9.99999e-01,9.83836e-01,8.61110e-01,9.99742e-01
5.931695792e-01,8.53570e-01,9.99999e-01,9.88565e-01,8.63657e-01,9.99752e-01
5.961354271e-01,8.55182e-01,9.99999e-01,9.87464e-01,8.66161e-01,9.99857e-01
5.991161043e-01,8.60629e-01,9.99999e-01,9.90840e-01,8.68623e-01,9.99955e-01
6.021116848e-01,8.66504e-01,9.99999e-01,9.94793e-01,8.71043e-01,9.99994e-01
6.051222432e-01,8.71118e-01,9.99999e-01,9.97362e-01,8.73421e-01,9.99999e-01
6.081478544e-01,8.74762e-01,9.99999e-01,9.98861e-01,8.75759e-01,9.99999e-01
6.111885937e-01,8.77634e-01,9.99999e-01,9.99518e-01,8.78057e-01,9.99999e-01
6.142445367e-01,8.80126e-01,9.99999e-01,9.99784e-01,8.80315e-01,9.99999e-01
6.173157594e-01,8.82430e-01,9.99999e-01,9.99880e-01,8.82535e-01,9.99999e-01
6.204023382e-01,8.84627e-01,9.99999e-01,9.99899e-01,8.84716e-01,9.99999e-01
6.235043498e-01,8.86465e-01,9.99999e-01,9.99556e-01,8.86859e-01,9.99998e-01
6.266218716e-01,8.86870e-01,9.99999e-01,9.97659e-01,8.88965e-01,9.99983e-01
6.297549810e-01,8.90239e-01,9.99999e-01,9.99140e-01,8.91034e-01,9.99966e-01
6.329037559e-01,8.91528e-01,9.99999e-01,9.98303e-01,8.93067e-01,9.99973e-01
6.360682746e-01,8.93756e-01,9.99999e-01,9.98554e-01,8.95064e-01,9.99983e-01
6.392486160e-01,8.95340e-01,9.99999e-01,9.98127e-01,8.97026e-01,9.99992e-01
6.424448591e-01,8.96690e-01,9.99999e-01,9.97492e-01,8.98953e-01,9.99988e-01
6.456570834e-01,8.90352e-01,9.99999e-01,9.88412e-01,9.00847e-01,9.99935e-01
6.488853688e-01,8.94887e-01,9.99999e-01,9.91516e-01,9.02707e-01,9.99819e-01
6.521297956e-01,8.96582e-01,9.99999e-01,9.91355e-01,9.04534e-01,9.99850e-01
6.553904446e-01,8.98418e-01,9.99999e-01,9.91382e-01,9.06328e-01,9.99888e-01
6.586673968e-01,9.01356e-01,9.99999e-01,9.92620e-01,9.08091e-01,9.99962e-01
6.619607338e-01,9.06066e-01,9.99999e-01,9.95879e-01,9.09822e-01,9.99991e-01
6.652705375e-01,9.09263e-01,9.99999e-01,9.97525e-01,9.11522e-01,9.99995e-01
6.685968902e-01,9.12140e-01,9.99999e-01,9.98849e-01,9.13191e-01,9.99998e-01
6.719398746e-01,9.14343e-01,9.99999e-01,9.99466e-01,9.14831e-01,9.99999e-01
6.752995740e-01,9.16176e-01,9.99999e-01,9.99710e-01,9.16440e-01,9.99999e-01
6.786760719e-01,9.17638e-01,9.99999e-01,9.99582e-01,9.18021e-01,9.99998e-01
6.820694522e-01,9.18914e-01,9.99999e-01,9.99285e-01,9.19574e-01,9.99995e-01
6.854797995e-01,9.20242e-01,9.99999e-01,9.99078e-01,9.21098e-01,9.99991e-01
6.889071985e-01,9.20517e-01,9.99999e-01,9.97767e-01,9.22594e-01,9.99979e-01
6.923517345e-01,8.90859e-01,9.99999e-01,9.64234e-01,9.24064e-01,9.99825e-01
6.958134932e-01,9.07846e-01,9.99999e-01,9.81297e-01,9.25506e-01,9.99613e-01
6.992925606e-01,9.10062e-01,9.99999e-01,9.82151e-01,9.26923e-01,9.99651e-01
7.027890234e-01,9.07667e-01,9.99999e-01,9.78019e-01,9.28313e-01,9.99733e-01
7.063029686e-01,9.12335e-01,9.99999e-01,9.81474e-01,9.29678e-01,9.99867e-01
7.098344834e-01,9.14388e-01,9.99999e-01,9.82213e-01,9.31018e-01,9.99921e-01
7.133836558e-01,9.10178e-01,9.99999e-01,9.76388e-01,9.32333e-01,9.99844e-01
7.169505741e-01,7.71664e-01,9.99999e-01,8.27537e-01,9.33624e-01,9.98776e-01
7.205353270e-01,8.50071e-01,9.99999e-01,9.11237e-01,9.34892e-01,9.97842e-01
7.241380036e-01,8.29963e-01,9.99999e-01,8.88238e-01,9.36136e-01,9.98136e-01
7.277586936e-01,8.41047e-01,9.99999e-01,8.98621e-01,9.37357e-01,9.98476e-01
7.313974871e-01,8.36776e-01,9.99999e-01,8.92193e-01,9.38556e-01,9.99285e-01
7.350544745e-01,8.82615e-01,9.99999e-01,9.39452e-01,9.39732e-01,9.99751e-01
7.387297469e-01,8.98441e-01,9.99999e-01,9.54996e-01,9.40886e-01,9.99885e-01
7.424233956e-01,9.21000e-01,9.99999e-01,9.77708e-01,9.42019e-01,9.99977e-01
7.461355126e-01,9.30327e-01,9.99999e-01,9.86427e-01,9.43132e-01,9.99995e-01
7.498661902e-01,9.38235e-01,9.99999e-01,9.93659e-01,9.44223e-01,9.99998e-01
7.536155211e-01,9.42348e-01,9.99999e-01,9.96884e-01,9.45294e-01,9.99998e-01
7.573835987e-01,9.44826e-01,9.99999e-01,9.98395e-01,9.46345e-01,9.99999e-01
7.611705167e-01,9.46432e-01,9.99999e-01,9.99002e-01,9.47376e-01,9.99999e-01
7.649763693e-01,9.47796e-01,9.99999e-01,9.99374e-01,9.48388e-01,9.99999e-01
7.688012511e-01,9.48968e-01,9.99999e-01,9.99564e-01,9.49382e-01,9.99999e-01
7.726452574e-01,9.50016e-01,9.99999e-01,9.99641e-01,9.50356e-01,9.99999e-01
7.765084837e-01,9.50827e-01,9.99999e-01,9.99490e-01,9.51312e-01,9.99998e-01
7.803910261e-01,9.50154e-01,9.99999e-01,9.97799e-01,9.52251e-01,9.99997e-01
7.842929812e-01,9.45856e-01,9.99999e-01,9.92338e-01,9.53172e-01,9.99985e-01
7.882144461e-01,9.38982e-01,9.99999e-01,9.84286e-01,9.54075e-01,9.99891e-01
7.921555184e-01,9.46534e-01,9.99999e-01,9.91361e-01,9.54961e-01,9.99811e-01
7.961162960e-01,9.41104e-01,9.99999e-01,9.84768e-01,9.55831e-01,9.99820e-01
8.000968774e-01,9.39683e-01,9.99999e-01,9.82415e-01,9.56684e-01,9.99808e-01
8.040973618e-01,9.40541e-01,9.99999e-01,9.82414e-01,9.57521e-01,9.99848e-01
8.081178486e-01,9.20708e-01,9.99999e-01,9.60865e-01,9.58343e-01,9.99857e-01
8.121584379e-01,8.12703e-01,9.99999e-01,8.47789e-01,9.59148e-01,9.99441e-01
8.162192301e-01,7.87959e-01,9.99999e-01,8.22568e-01,9.59939e-01,9.97900e-01
8.203003262e-01,8.71130e-01,9.99999e-01,9.08985e-01,9.60714e-01,9.97542e-01
8.244018279e-01,8.41192e-01,9.99999e-01,8.76611e-01,9.61475e-01,9.98043e-01
8.285238370e-01,8.54403e-01,9.99999e-01,8.89314e-01,9.62222e-01,9.98462e-01
8.326664562e-01,8.54967e-01,9.99999e-01,8.88423e-01,9.62954e-01,9.99363e-01
8.368297885e-01,8.85019e-01,9.99999e-01,9.18514e-01,9.63672e-01,9.99854e-01
8.410139374e-01,9.16743e-01,9.99999e-01,9.50686e-01,9.64377e-01,9.99914e-01
8.452190071e-01,9.41363e-01,9.99999e-01,9.75485e-01,9.65068e-01,9.99948e-01
8.494451021e-01,9.51892e-01,9.99999e-01,9.85693e-01,9.65746e-01,9.99958e-01
8.536923276e-01,9.58192e-01,9.99999e-01,9.91519e-01,9.66411e-01,9.99974e-01
8.579607893e-01,9.61999e-01,9.99999e-01,9.94768e-01,9.67063e-01,9.99993e-01
8.622505932e-01,9.64484e-01,9.99999e-01,9.96674e-01,9.67703e-01,9.99998e-01
8.665618462e-01,9.66337e-01,9.99999e-01,9.97940e-01,9.68331e-01,9.99998e-01
8.708946554e-01,9.66661e-01,9.99999e-01,9.97642e-01,9.68947e-01,9.99998e-01
8.752491287e-01,9.66491e-01,9.99999e-01,9.96847e-01,9.69551e-01,9.99996e-01
8.796253743e-01,9.65900e-01,9.99999e-01,9.95635e-01,9.70143e-01,9.99989e-01
8.840235012e-01,9.65858e-01,9.99999e-01,9.95016e-01,9.70724e-01,9.99969e-01
8.884436187e-01,9.53722e-01,9.99999e-01,9.81992e-01,9.71294e-01,9.99913e-01
8.928858368e-01,8.04059e-01,9.99999e-01,8.27758e-01,9.71853e-01,9.99501e-01
8.973502660e-01,6.95742e-01,9.99999e-01,7.17319e-01,9.72401e-01,9.97446e-01
9.018370173e-01,8.18029e-01,9.99999e-01,8.44167e-01,9.72939e-01,9.95988e-01
9.063462024e-01,8.34909e-01,9.99999e-01,8.60698e-01,9.73466e-01,9.96475e-01
9.108779334e-01,7.68290e-01,9.99999e-01,7.91711e-01,9.73983e-01,9.96337e-01
9.154323231e-01,7.44304e-01,9.99999e-01,7.66107e-01,9.74491e-01,9.96971e-01
9.200094847e-01,7.90723e-01,9.99999e-01,8.12384e-01,9.74988e-01,9.98303e-01
9.246095321e-01,7.12246e-01,9.99999e-01,7.31581e-01,9.75476e-01,9.98046e-01
9.292325798e-01,1.41937e-01,9.99999e-01,1.46548e-01,9.75955e-01,9.92402e-01
9.338787427e-01,7.75506e-02,9.99999e-01,8.19668e-02,9.76424e-01,9.68965e-01
9.385481364e-01,3.39049e-01,9.99999e-01,3.60332e-01,9.76884e-01,9.63198e-01
9.432408771e-01,2.43295e-01,9.99999e-01,2.57121e-01,9.77335e-01,9.68169e-01
9.479570815e-01,1.43381e-01,9.99999e-01,1.50551e-01,9.77778e-01,9.74016e-01
9.526968669e-01,2.20839e-01,9.99999e-01,2.29412e-01,9.78212e-01,9.84070e-01
9.574603512e-01,2.37481e-01,9.99999e-01,2.44651e-01,9.78638e-01,9.91876e-01
9.622476530e-01,3.02339e-01,9.99999e-01,3.10553e-01,9.79055e-01,9.94375e-01
9.670588912e-01,4.93066e-01,9.99999e-01,5.05348e-01,9.79465e-01,9.96149e-01
9.718941857e-01,6.28621e-01,9.99999e-01,6.43361e-01,9.79866e-01,9.97164e-01
9.767536566e-01,6.77739e-01,9.99999e-01,6.92888e-01,9.80260e-01,9.97832e-01
9.816374249e-01,7.45364e-01,9.99999e-01,7.60644e-01,9.80646e-01,9.99248e-01
9.865456120e-01,8.26197e-01,9.99999e-01,8.42308e-01,9.81025e-01,9.99843e-01
9.914783401e-01,8.82312e-01,9.99999e-01,8.99076e-01,9.81396e-01,9.99956e-01
9.964357318e-01,9.26460e-01,9.99999e-01,9.43695e-01,9.81760e-01,9.99974e-01
1.001417910e+00,9.48534e-01,9.99999e-01,9.65842e-01,9.82117e-01,9.99960e-01
1.006425000e+00,9.63132e-01,9.99999e-01,9.80373e-01,9.82467e-01,9.99944e-01
1.011457125e+00,9.70750e-01,9.99999e-01,9.87778e-01,9.82811e-01,9.99948e-01
1.016514411e+00,9.74938e-01,9.99999e-01,9.91685e-01,9.83147e-01,9.99963e-01
1.021596983e+00,9.76921e-01,9.99999e-01,9.93368e-01,9.83477e-01,9.99963e-01
1.026704968e+00,9.78686e-01,9.99999e-01,9.94824e-01,9.83801e-01,9.99975e-01
1.031838492e+00,9.80409e-01,9.99999e-01,9.96237e-01,9.84118e-01,9.99992e-01
1.036997685e+00,9.82227e-01,9.99999e-01,9.97762e-01,9.84430e-01,9.99998e-01
1.042182673e+00,9.82108e-01,9.99999e-01,9.97332e-01,9.84735e-01,9.99999e-01
1.047393587e+00,9.81551e-01,9.99999e-01,9.96464e-01,9.85034e-01,9.99998e-01
1.052630555e+00,9.80548e-01,9.99999e-01,9.95150e-01,9.85327e-01,9.99998e-01
1.057893707e+00,9.77645e-01,9.99999e-01,9.91915e-01,9.85615e-01,9.99996e-01
1.063183176e+00,9.72814e-01,9.99999e-01,9.86735e-01,9.85897e-01,9.99992e-01
1.068499092e+00,9.64361e-01,9.99999e-01,9.77895e-01,9.86174e-01,9.99984e-01
1.073841587e+00,9.60971e-01,9.99999e-01,9.74207e-01,9.86445e-01,9.99966e-01
1.079210795e+00,9.54114e-01,9.99999e-01,9.67049e-01,9.86711e-01,9.99910e-01
1.084606849e+00,9.38004e-01,9.99999e-01,9.50590e-01,9.86972e-01,9.99784e-01
1.090029883e+00,9.17640e-01,9.99999e-01,9.29925e-01,9.87227e-01,9.99554e-01
1.095480033e+00,8.09710e-01,9.99999e-01,8.20638e-01,9.87478e-01,9.99194e-01
1.100957433e+00,6.00864e-01,9.99999e-01,6.09234e-01,9.87724e-01,9.98518e-01
1.106462220e+00,2.95920e-01,9.99999e-01,3.00279e-01,9.87965e-01,9.97487e-01
1.111994531e+00,8.41136e-02,9.99999e-01,8.56880e-02,9.88201e-01,9.93345e-01
1.117554504e+00,2.12128e-02,9.99999e-01,2.19846e-02,9.88433e-01,9.76183e-01
1.123142276e+00,6.97819e-02,9.99999e-01,7.47343e-02,9.88660e-01,9.44442e-01
1.128757988e+00,1.48279e-01,9.99999e-01,1.60197e-01,9.88883e-01,9.36012e-01
1.134401778e+00,6.67458e-02,9.99999e-01,7.13841e-02,9.89101e-01,9.45324e-01
1.140073787e+00,2.99419e-01,9.99999e-01,3.16559e-01,9.89315e-01,9.56069e-01
1.145774156e+00,1.03720e-01,9.99999e-01,1.09218e-01,9.89525e-01,9.59711e-01
1.151503026e+00,8.33279e-02,9.99999e-01,8.61433e-02,9.89731e-01,9.77351e-01
1.157260541e+00,1.07116e-01,9.99999e-01,1.08949e-01,9.89933e-01,9.93173e-01
1.163046844e+00,1.88700e-01,9.99999e-01,1.90951e-01,9.90131e-01,9.98060e-01
1.168862078e+00,3.00790e-01,9.99999e-01,3.04032e-01,9.90325e-01,9.99000e-01
1.174706389e+00,4.72900e-01,9.99999e-01,4.78061e-01,9.90515e-01,9.98674e-01
1.180579921e+00,6.28726e-01,9.99999e-01,6.35900e-01,9.90701e-01,9.97997e-01
1.186482820e+00,7.63851e-01,9.99999e-01,7.72465e-01,9.90884e-01,9.97944e-01
1.192415234e+00,8.50676e-01,9.99999e-01,8.59669e-01,9.91063e-01,9.98459e-01
1.198377311e+00,8.71420e-01,9.99999e-01,8.80402e-01,9.91239e-01,9.98545e-01
1.204369197e+00,8.78098e-01,9.99999e-01,8.86871e-01,9.91411e-01,9.98683e-01
1.210391043e+00,8.83079e-01,9.99999e-01,8.91290e-01,9.91580e-01,9.99198e-01
1.216442998e+00,8.98833e-01,9.99999e-01,9.06758e-01,9.91746e-01,9.99509e-01
1.222525213e+00,9.18698e-01,9.99999e-01,9.26474e-01,9.91908e-01,9.99694e-01
1.228637839e+00,9.40668e-01,9.99999e-01,9.48323e-01,9.92067e-01,9.99857e-01
1.234781029e+00,9.53863e-01,9.99999e-01,9.61377e-01,9.92223e-01,9.99959e-01
1.240954934e+00,9.67950e-01,9.99999e-01,9.75396e-01,9.92376e-01,9.99988e-01
1.247159708e+00,9.73449e-01,9.99999e-01,9.80785e-01,9.92526e-01,9.99992e-01
1.253395507e+00,9.75711e-01,9.99999e-01,9.82920e-01,9.92673e-01,9.99990e-01
1.259662485e+00,9.76686e-01,9.99999e-01,9.83766e-01,9.92818e-01,9.99984e-01
1.265960797e+00,9.67314e-01,9.99999e-01,9.74197e-01,9.92959e-01,9.99974e-01
1.272290601e+00,9.53111e-01,9.99999e-01,9.59777e-01,9.93098e-01,9.99954e-01
1.278652054e+00,9.15508e-01,9.99999e-01,9.21817e-01,9.93233e-01,9.99920e-01
1.285045314e+00,8.57329e-01,9.99999e-01,8.63180e-01,9.93367e-01,9.99851e-01
1.291470541e+00,7.68939e-01,9.99999e-01,7.74172e-01,9.93497e-01,9.99740e-01
1.297927893e+00,7.12881e-01,9.99999e-01,7.17801e-01,9.93625e-01,9.99516e-01
1.304417533e+00,6.49538e-01,9.99999e-01,6.54293e-01,9.93751e-01,9.98975e-01
1.310939621e+00,6.10256e-01,9.99999e-01,6.15310e-01,9.93874e-01,9.97898e-01
1.317494319e+00,5.85858e-01,9.99999e-01,5.91695e-01,9.93994e-01,9.96115e-01
1.324081790e+00,4.57128e-01,9.99999e-01,4.62766e-01,9.94113e-01,9.93665e-01
1.330702199e+00,1.09694e-01,9.99999e-01,1.11546e-01,9.94229e-01,9.89102e-01
1.337355710e+00,1.17884e-03,9.99999e-01,1.21083e-03,9.94342e-01,9.79120e-01
1.344042489e+00,1.56731e-05,9.99999e-01,1.67947e-05,9.94454e-01,9.38421e-01
1.350762701e+00,1.57422e-15,9.99999e-01,1.96759e-15,9.94563e-01,8.04447e-01
1.357516515e+00,4.15909e-23,9.99999e-01,7.91886e-23,9.94670e-01,5.28027e-01
1.364304097e+00,1.30225e-14,9.99999e-01,4.00898e-14,9.94775e-01,3.26538e-01
1.371125618e+00,2.51155e-09,9.99999e-01,7.25161e-09,9.94878e-01,3.48126e-01
1.377981246e+00,9.28612e-09,9.99999e-01,2.30590e-08,9.94979e-01,4.04743e-01
1.384871152e+00,2.83053e-12,9.99999e-01,6.60767e-12,9.95078e-01,4.30488e-01
1.391795508e+00,1.26170e-14,9.99999e-01,2.83119e-14,9.95175e-01,4.47802e-01
1.398754485e+00,1.82073e-11,9.99999e-01,3.55240e-11,9.95270e-01,5.14971e-01
1.405748258e+00,2.69267e-11,9.99999e-01,3.98741e-11,9.95363e-01,6.78437e-01
1.412776999e+00,4.98875e-11,9.99999e-01,5.98271e-11,9.95454e-01,8.37668e-01
1.419840884e+00,9.58457e-11,9.99998e-01,1.04050e-10,9.95544e-01,9.25271e-01
1.426940089e+00,1.44772e-07,9.99998e-01,1.54245e-07,9.95632e-01,9.42701e-01
1.434074789e+00,1.57370e-06,9.99998e-01,1.69444e-06,9.95718e-01,9.32740e-01
1.441245163e+00,1.71374e-05,9.99999e-01,1.85577e-05,9.95802e-01,9.27355e-01
1.448451389e+00,5.67830e-04,9.99998e-01,6.09098e-04,9.95885e-01,9.36097e-01
1.455693646e+00,6.07078e-03,9.99999e-01,6.41674e-03,9.95966e-01,9.49914e-01
1.462972114e+00,9.03204e-03,9.99999e-01,9.52333e-03,9.96045e-01,9.52176e-01
1.470286975e+00,4.51920e-03,9.99999e-01,4.76067e-03,9.96123e-01,9.52971e-01
