#,Wave/freq,Total,O2,CO2,H2O,Rayleigh,CIA
4.000000000e-01,5.24427e-25,9.99999e-01,9.99999e-01,9.99890e-01,5.24484e-25,9.99999e-01
4.020000000e-01,1.58414e-24,9.99999e-01,9.99999e-01,9.99931e-01,1.58424e-24,9.99999e-01
4.040100000e-01,4.67651e-24,9.99999e-01,9.99999e-01,9.99970e-01,4.67664e-24,9.99999e-01
4.060300500e-01,1.35132e-23,9.99999e-01,9.99999e-01,9.99992e-01,1.35133e-23,9.99999e-01
4.080602003e-01,3.82370e-23,9.99999e-01,9.99999e-01,9.99997e-01,3.82371e-23,9.99999e-01
4.101005013e-01,1.05995e-22,9.99999e-01,9.99999e-01,9.99999e-01,1.05995e-22,9.99999e-01
4.121510038e-01,2.87965e-22,9.99999e-01,9.99999e-01,9.99995e-01,2.87966e-22,9.99999e-01
4.142117588e-01,7.67025e-22,9.99999e-01,9.99999e-01,9.99969e-01,7.67049e-22,9.99999e-01
4.162828176e-01,2.00374e-21,9.99999e-01,9.99999e-01,9.99864e-01,2.00401e-21,9.99999e-01
4.183642317e-01,5.13693e-21,9.99999e-01,9.99999e-01,9.99919e-01,5.13734e-21,9.99999e-01
4.204560528e-01,1.29265e-20,9.99999e-01,9.99999e-01,9.99950e-01,1.29271e-20,9.99999e-01
4.225583331e-01,3.19404e-20,9.99999e-01,9.99999e-01,9.99981e-01,3.19410e-20,9.99999e-01
4.246711247e-01,7.75229e-20,9.99999e-01,9.99999e-01,9.99984e-01,7.75240e-20,9.99999e-01
4.267944804e-01,1.84888e-19,9.99999e-01,9.99999e-01,9.99977e-01,1.84892e-19,9.99999e-01
4.289284528e-01,4.33446e-19,9.99999e-01,9.99999e-01,9.99982e-01,4.33453e-19,9.99999e-01
4.310730950e-01,9.99206e-19,9.99999e-01,9.99999e-01,9.99992e-01,9.99213e-19,9.99999e-01
4.332284605e-01,2.26573e-18,9.99999e-01,9.99999e-01,9.99997e-01,2.26574e-18,9.99999e-01
4.353946028e-01,5.05519e-18,9.99999e-01,9.99999e-01,9.99998e-01,5.05519e-18,9.99999e-01
4.375715758e-01,1.11014e-17,9.99999e-01,9.99999e-01,9.99986e-01,1.11015e-17,9.99999e-01
4.397594337e-01,2.40008e-17,9.99999e-01,9.99999e-01,9.99880e-01,2.40037e-17,9.99999e-01
4.419582309e-01,5.10853e-17,9.99999e-01,9.99999e-01,9.99395e-01,5.11162e-17,9.99999e-01
4.441680220e-01,1.07189e-16,9.99999e-01,9.99999e-01,9.99527e-01,1.07239e-16,9.99999e-01
4.463888621e-01,2.21606e-16,9.99999e-01,9.99999e-01,9.99508e-01,2.21715e-16,9.99999e-01
4.486208064e-01,4.51722e-16,9.99999e-01,9.99999e-01,9.99694e-01,4.51860e-16,9.99999e-01
4.508639105e-01,9.07912e-16,9.99999e-01,9.99999e-01,9.99856e-01,9.08041e-16,9.99999e-01
4.531182300e-01,1.79968e-15,9.99999e-01,9.99999e-01,9.99943e-01,1.79978e-15,9.99999e-01
4.553838212e-01,3.51925e-15,9.99999e-01,9.99999e-01,9.99961e-01,3.51938e-15,9.99999e-01
4.576607403e-01,6.79128e-15,9.99999e-01,9.99999e-01,9.99981e-01,6.79140e-15,9.99999e-01
4.599490440e-01,1.29362e-14,9.99999e-01,9.99999e-01,9.99987e-01,1.29364e-14,9.99999e-01
4.622487892e-01,2.43298e-14,9.99999e-01,9.99999e-01,9.99997e-01,2.43298e-14,9.99999e-01
4.645600332e-01,4.51901e-14,9.99999e-01,9.99999e-01,9.99990e-01,4.51905e-14,9.99999e-01
4.668828333e-01,8.29049e-14,9.99999e-01,9.99999e-01,9.99855e-01,8.29168e-14,9.99999e-01
4.692172475e-01,1.50279e-13,9.99999e-01,9.99999e-01,9.99691e-01,1.50325e-13,9.99999e-01
4.715633337e-01,2.69296e-13,9.99999e-01,9.99999e-01,9.99798e-01,2.69350e-13,9.99999e-01
4.739211504e-01,4.76998e-13,9.99999e-01,9.99999e-01,9.99807e-01,4.77089e-13,9.99999e-01
4.762907561e-01,8.35477e-13,9.99999e-01,9.99999e-01,9.99899e-01,8.35561e-13,9.99999e-01
4.786722099e-01,1.44721e-12,9.99999e-01,9.99999e-01,9.99958e-01,1.44727e-12,9.99999e-01
4.810655710e-01,2.47972e-12,9.99999e-01,9.99999e-01,9.99987e-01,2.47975e-12,9.99999e-01
4.834708988e-01,4.20335e-12,9.99999e-01,9.99999e-01,9.99881e-01,4.20384e-12,9.99999e-01
4.858882533e-01,7.05120e-12,9.99999e-01,9.99999e-01,9.99781e-01,7.05274e-12,9.99999e-01
4.883176946e-01,1.17098e-11,9.99999e-01,9.99999e-01,9.99817e-01,1.17120e-11,9.99999e-01
4.907592831e-01,1.92522e-11,9.99999e-01,9.99999e-01,9.99834e-01,1.92554e-11,9.99999e-01
4.932130795e-01,3.13442e-11,9.99999e-01,9.99999e-01,9.99882e-01,3.13479e-11,9.99999e-01
4.956791449e-01,5.05426e-11,9.99999e-01,9.99999e-01,9.99937e-01,5.05457e-11,9.99999e-01
4.981575406e-01,8.07101e-11,9.99999e-01,9.99999e-01,9.99690e-01,8.07351e-11,9.99999e-01
5.006483283e-01,1.27666e-10,9.99999e-01,9.99999e-01,9.99197e-01,1.27768e-10,9.99999e-01
5.031515699e-01,1.99563e-10,9.99999e-01,9.99999e-01,9.95940e-01,2.00376e-10,9.99999e-01
5.056673278e-01,3.10796e-10,9.99999e-01,9.99999e-01,9.97854e-01,3.11464e-10,9.99999e-01
5.081956644e-01,4.78641e-10,9.99999e-01,9.99999e-01,9.97294e-01,4.79940e-10,9.99999e-01
5.107366428e-01,7.31917e-10,9.99999e-01,9.99999e-01,9.98172e-01,7.33257e-10,9.99999e-01
5.132903260e-01,1.10978e-09,9.99999e-01,9.99999e-01,9.98954e-01,1.11094e-09,9.99999e-01
5.158567776e-01,1.66866e-09,9.99999e-01,9.99999e-01,9.99558e-01,1.66940e-09,9.99999e-01
5.184360615e-01,2.48805e-09,9.99999e-01,9.99999e-01,9.99822e-01,2.48849e-09,9.99999e-01
5.210282418e-01,3.68010e-09,9.99999e-01,9.99999e-01,9.99933e-01,3.68034e-09,9.99999e-01
5.236333830e-01,5.39967e-09,9.99999e-01,9.99999e-01,9.99734e-01,5.40110e-09,9.99999e-01
5.262515499e-01,7.86528e-09,9.99999e-01,9.99999e-01,9.99833e-01,7.86659e-09,9.99999e-01
5.288828077e-01,1.13710e-08,9.99999e-01,9.99999e-01,9.99847e-01,1.13727e-08,9.99999e-01
5.315272217e-01,1.63201e-08,9.99999e-01,9.99999e-01,9.99865e-01,1.63223e-08,9.99999e-01
5.341848578e-01,2.32573e-08,9.99999e-01,9.99999e-01,9.99912e-01,2.32594e-08,9.99999e-01
5.368557821e-01,3.29035e-08,9.99999e-01,9.99999e-01,9.99691e-01,3.29137e-08,9.99999e-01
5.395400610e-01,4.62054e-08,9.99999e-01,9.99999e-01,9.98886e-01,4.62569e-08,9.99999e-01
5.422377613e-01,6.44811e-08,9.99999e-01,9.99999e-01,9.98560e-01,6.45740e-08,9.99999e-01
5.449489501e-01,8.94325e-08,9.99999e-01,9.99999e-01,9.98661e-01,8.95523e-08,9.99999e-01
5.476736949e-01,1.23247e-07,9.99999e-01,9.99999e-01,9.98814e-01,1.23393e-07,9.99999e-01
5.504120634e-01,1.68803e-07,9.99999e-01,9.99999e-01,9.99139e-01,1.68949e-07,9.99999e-01
5.531641237e-01,2.29792e-07,9.99999e-01,9.99999e-01,9.99566e-01,2.29892e-07,9.99999e-01
5.559299443e-01,3.10856e-07,9.99999e-01,9.99999e-01,9.99790e-01,3.10921e-07,9.99999e-01
5.587095940e-01,4.17955e-07,9.99999e-01,9.99999e-01,9.99868e-01,4.18009e-07,9.99999e-01
5.615031420e-01,5.58625e-07,9.99999e-01,9.99999e-01,9.99853e-01,5.58706e-07,9.99999e-01
5.643106577e-01,7.42370e-07,9.99999e-01,9.99999e-01,9.99834e-01,7.42493e-07,9.99999e-01
5.671322110e-01,9.79238e-07,9.99999e-01,9.99999e-01,9.97992e-01,9.81208e-07,9.99999e-01
5.699678720e-01,1.28680e-06,9.99999e-01,9.99999e-01,9.97862e-01,1.28955e-06,9.99999e-01
5.728177114e-01,1.68192e-06,9.99999e-01,9.99999e-01,9.97774e-01,1.68567e-06,9.99999e-01
5.756818000e-01,2.18736e-06,9.99999e-01,9.99999e-01,9.97956e-01,2.19183e-06,9.99999e-01
5.785602090e-01,2.83020e-06,9.99999e-01,9.99999e-01,9.98218e-01,2.83525e-06,9.99999e-01
5.814530100e-01,3.64241e-06,9.99999e-01,9.99999e-01,9.98211e-01,3.64893e-06,9.99999e-01
5.843602750e-01,4.66284e-06,9.99999e-01,9.99999e-01,9.97868e-01,4.67279e-06,9.99999e-01
5.872820764e-01,5.84651e-06,9.99999e-01,9.99999e-01,9.81818e-01,5.95478e-06,9.99999e-01
5.902184868e-01,7.38569e-06,9.99999e-01,9.99999e-01,9.77949e-01,7.55223e-06,9.99999e-01
5.931695792e-01,9.38465e-06,9.99999e-01,9.99999e-01,9.84401e-01,9.53335e-06,9.99999e-01
5.961354271e-01,1.17740e-05,9.99999e-01,9.99999e-01,9.82892e-01,1.19789e-05,9.99999e-01
5.991161043e-01,1.47966e-05,9.99999e-01,9.99999e-01,9.87486e-01,1.49841e-05,9.99999e-01
6.021116848e-01,1.85277e-05,9.99999e-01,9.99999e-01,9.92880e-01,1.86606e-05,9.99999e-01
6.051222432e-01,2.30550e-05,9.99999e-01,9.99999e-01,9.96391e-01,2.31385e-05,9.99999e-01
6.081478544e-01,2.85249e-05,9.99999e-01,9.99999e-01,9.98441e-01,2.85694e-05,9.99999e-01
6.111885937e-01,3.51053e-05,9.99999e-01,9.99999e-01,9.99340e-01,3.51284e-05,9.99999e-01
6.142445367e-01,4.30046e-05,9.99999e-01,9.99999e-01,9.99705e-01,4.30173e-05,9.99999e-01
6.173157594e-01,5.24589e-05,9.99999e-01,9.99999e-01,9.99837e-01,5.24674e-05,9.99999e-01
6.204023382e-01,6.37342e-05,9.99999e-01,9.99999e-01,9.99862e-01,6.37429e-05,9.99999e-01
6.235043498e-01,7.70978e-05,9.99999e-01,9.99999e-01,9.99394e-01,7.71445e-05,9.99999e-01
6.266218716e-01,9.27147e-05,9.99999e-01,9.99999e-01,9.96799e-01,9.30124e-05,9.99999e-01
6.297549810e-01,1.11599e-04,9.99999e-01,9.99999e-01,9.98825e-01,1.11731e-04,9.99999e-01
6.329037559e-01,1.33420e-04,9.99999e-01,9.99999e-01,9.97678e-01,1.33731e-04,9.99999e-01
6.360682746e-01,1.59180e-04,9.99999e-01,9.99999e-01,9.98023e-01,1.59495e-04,9.99999e-01
6.392486160e-01,1.89077e-04,9.99999e-01,9.99999e-01,9.97438e-01,1.89562e-04,9.99999e-01
6.424448591e-01,2.23762e-04,9.99999e-01,9.99999e-01,9.96575e-01,2.24531e-04,9.99999e-01
6.456570834e-01,2.60875e-04,9.99999e-01,9.99999e-01,9.84202e-01,2.65062e-04,9.99999e-01
6.488853688e-01,3.08272e-04,9.99999e-01,9.99999e-01,9.88412e-01,3.11885e-04,9.99999e-01
6.521297956e-01,3.61485e-04,9.99999e-01,9.99999e-01,9.88197e-01,3.65803e-04,9.99999e-01
6.553904446e-01,4.22659e-04,9.99999e-01,9.99999e-01,9.88231e-01,4.27692e-04,9.99999e-01
6.586673968e-01,4.93485e-04,9.99999e-01,9.99999e-01,9.89917e-01,4.98511e-04,9.99999e-01
6.619607338e-01,5.75916e-04,9.99999e-01,9.99999e-01,9.94156e-01,5.79301e-04,9.99999e-01
6.652705375e-01,6.68917e-04,9.99999e-01,9.99999e-01,9.96614e-01,6.71189e-04,9.99999e-01
6.685968902e-01,7.74173e-04,9.99999e-01,9.99999e-01,9.98425e-01,7.75394e-04,9.99999e-01
6.719398746e-01,8.92576e-04,9.99999e-01,9.99999e-01,9.99270e-01,8.93228e-04,9.99999e-01
6.752995740e-01,1.02569e-03,9.99999e-01,9.99999e-01,9.99604e-01,1.02610e-03,9.99999e-01
6.786760719e-01,1.17483e-03,9.99999e-01,9.99999e-01,9.99428e-01,1.17551e-03,9.99999e-01
6.820694522e-01,1.34175e-03,9.99999e-01,9.99999e-01,9.99022e-01,1.34306e-03,9.99999e-01
6.854797995e-01,1.52853e-03,9.99999e-01,9.99999e-01,9.98739e-01,1.53046e-03,9.99999e-01
6.889071985e-01,1.73422e-03,9.99999e-01,9.99999e-01,9.96954e-01,1.73952e-03,9.99999e-01
6.923517345e-01,1.87650e-03,9.99999e-01,9.99999e-01,9.51504e-01,1.97214e-03,9.99999e-01
6.958134932e-01,2.17346e-03,9.99999e-01,9.99999e-01,9.74500e-01,2.23033e-03,9.99998e-01
6.992925606e-01,2.45505e-03,9.99999e-01,9.99999e-01,9.75698e-01,2.51620e-03,9.99998e-01
7.027890234e-01,2.74718e-03,9.99999e-01,9.99999e-01,9.70062e-01,2.83196e-03,9.99998e-01
7.063029686e-01,3.09960e-03,9.99999e-01,9.99999e-01,9.74744e-01,3.17991e-03,9.99998e-01
7.098344834e-01,3.47604e-03,9.99999e-01,9.99999e-01,9.75745e-01,3.56244e-03,9.99998e-01
7.133836558e-01,3.85433e-03,9.99999e-01,9.99999e-01,9.67926e-01,3.98205e-03,9.99998e-01
7.169505741e-01,3.43724e-03,9.99999e-01,9.99999e-01,7.73926e-01,4.44131e-03,9.99996e-01
7.205353270e-01,4.35537e-03,9.99999e-01,9.99999e-01,8.81146e-01,4.94286e-03,9.99996e-01
7.241380036e-01,4.67220e-03,9.99999e-01,9.99999e-01,8.51128e-01,5.48944e-03,9.99995e-01
7.277586936e-01,5.26066e-03,9.99999e-01,9.99999e-01,8.64696e-01,6.08384e-03,9.99996e-01
7.313974871e-01,5.75931e-03,9.99999e-01,9.99999e-01,8.55904e-01,6.72893e-03,9.99997e-01
7.350544745e-01,6.82036e-03,9.99999e-01,9.99999e-01,9.18244e-01,7.42761e-03,9.99998e-01
7.387297469e-01,7.68354e-03,9.99999e-01,9.99999e-01,9.38979e-01,8.18286e-03,9.99998e-01
7.424233956e-01,8.72432e-03,9.99999e-01,9.99999e-01,9.69618e-01,8.99768e-03,9.99999e-01
7.461355126e-01,9.69213e-03,9.99999e-01,9.99999e-01,9.81470e-01,9.87510e-03,9.99999e-01
7.498661902e-01,1.07244e-02,9.99999e-01,9.99999e-01,9.91328e-01,1.08182e-02,9.99999e-01
7.536155211e-01,1.17796e-02,9.99999e-01,9.99999e-01,9.95737e-01,1.18300e-02,9.99999e-01
7.573835987e-01,1.28853e-02,9.99999e-01,9.99999e-01,9.97803e-01,1.29136e-02,9.99999e-01
7.611705167e-01,1.40529e-02,9.99999e-01,9.99999e-01,9.98634e-01,1.40721e-02,9.99999e-01
7.649763693e-01,1.52954e-02,9.99999e-01,9.99999e-01,9.99144e-01,1.53085e-02,9.99999e-01
7.688012511e-01,1.66160e-02,9.99999e-01,9.99999e-01,9.99403e-01,1.66259e-02,9.99999e-01
7.726452574e-01,1.80184e-02,9.99999e-01,9.99999e-01,9.99509e-01,1.80273e-02,9.99999e-01
7.765084837e-01,1.95019e-02,9.99999e-01,9.99999e-01,9.99303e-01,1.95155e-02,9.99999e-01
7.803910261e-01,1.83577e-02,9.99999e-01,8.72625e-01,9.96993e-01,2.10935e-02,9.99999e-01
7.842929812e-01,1.08072e-02,9.99999e-01,4.78880e-01,9.89547e-01,2.27641e-02,9.99999e-01
7.882144461e-01,1.11804e-02,9.99999e-01,4.64300e-01,9.78568e-01,2.45301e-02,9.99999e-01
7.921555184e-01,1.59684e-02,9.99999e-01,6.11479e-01,9.88196e-01,2.63941e-02,9.99999e-01
7.961162960e-01,1.98478e-02,9.99999e-01,7.14041e-01,9.79247e-01,2.83587e-02,9.99999e-01
8.000968774e-01,2.47361e-02,9.99999e-01,8.32662e-01,9.76021e-01,3.04263e-02,9.99999e-01
8.040973618e-01,2.89343e-02,9.99999e-01,9.09146e-01,9.76028e-01,3.25993e-02,9.99998e-01
8.081178486e-01,3.16277e-02,9.99999e-01,9.57128e-01,9.46993e-01,3.48800e-02,9.99998e-01
8.121584379e-01,2.94000e-02,9.99999e-01,9.86557e-01,7.99032e-01,3.72704e-02,9.99996e-01
8.162192301e-01,3.04197e-02,9.99999e-01,9.97014e-01,7.66921e-01,3.97725e-02,9.99995e-01
8.203003262e-01,3.72837e-02,9.99999e-01,9.99954e-01,8.79602e-01,4.23882e-02,9.99995e-01
8.244018279e-01,3.78161e-02,9.99999e-01,9.99999e-01,8.38142e-01,4.51191e-02,9.99995e-01
8.285238370e-01,4.08846e-02,9.99999e-01,9.99999e-01,8.52356e-01,4.79667e-02,9.99996e-01
8.326664562e-01,4.33564e-02,9.99999e-01,9.99999e-01,8.51253e-01,5.09325e-02,9.99997e-01
8.368297885e-01,4.80969e-02,9.99999e-01,9.99999e-01,8.90394e-01,5.40175e-02,9.99998e-01
8.410139374e-01,5.34003e-02,9.99999e-01,9.99999e-01,9.33196e-01,5.72230e-02,9.99999e-01
8.452190071e-01,5.85277e-02,9.99999e-01,9.99999e-01,9.66607e-01,6.05496e-02,9.99999e-01
8.494451021e-01,6.27487e-02,9.99999e-01,9.99999e-01,9.80476e-01,6.39982e-02,9.99999e-01
8.536923276e-01,6.67861e-02,9.99999e-01,9.99999e-01,9.88409e-01,6.75692e-02,9.99999e-01
8.579607893e-01,7.07533e-02,9.99999e-01,9.99999e-01,9.92847e-01,7.12630e-02,9.99999e-01
8.622505932e-01,7.47382e-02,9.99999e-01,9.99999e-01,9.95449e-01,7.50798e-02,9.99999e-01
8.665618462e-01,6.60052e-02,9.99999e-01,8.37477e-01,9.97183e-01,7.90195e-02,9.99999e-01
8.708946554e-01,1.41864e-02,9.99999e-01,1.71234e-01,9.96776e-01,8.30819e-02,9.99999e-01
8.752491287e-01,1.89797e-02,9.99999e-01,2.18338e-01,9.95689e-01,8.72668e-02,9.99999e-01
8.796253743e-01,3.83710e-02,9.99999e-01,4.21227e-01,9.94036e-01,9.15735e-02,9.99999e-01
8.840235012e-01,5.99902e-02,9.99999e-01,6.28854e-01,9.93191e-01,9.60014e-02,9.99999e-01
8.884436187e-01,8.15888e-02,9.99999e-01,8.30733e-01,9.75574e-01,1.00550e-01,9.99998e-01
8.928858368e-01,7.57930e-02,9.99999e-01,9.27236e-01,7.74224e-01,1.05217e-01,9.99996e-01
8.973502660e-01,6.90476e-02,9.99999e-01,9.81801e-01,6.38168e-01,1.10002e-01,9.99993e-01
9.018370173e-01,9.12049e-02,9.99999e-01,9.97977e-01,7.95124e-01,1.14904e-01,9.99993e-01
9.063462024e-01,9.38298e-02,9.99999e-01,9.51255e-01,8.16234e-01,1.19922e-01,9.99991e-01
9.108779334e-01,8.15033e-02,9.99999e-01,8.88092e-01,7.28954e-01,1.25052e-01,9.99991e-01
9.154323231e-01,8.85169e-02,9.99999e-01,9.72476e-01,6.96614e-01,1.30294e-01,9.99990e-01
9.200094847e-01,7.88373e-02,9.99999e-01,7.31948e-01,7.54660e-01,1.35646e-01,9.99987e-01
9.246095321e-01,5.41346e-02,9.99999e-01,5.63328e-01,6.58905e-01,1.41106e-01,9.99979e-01
9.292325798e-01,9.25953e-03,9.99999e-01,6.47222e-01,8.68287e-02,1.46671e-01,9.99956e-01
9.338787427e-01,4.21949e-03,9.99999e-01,6.50580e-01,3.82476e-02,1.52339e-01,9.99943e-01
9.385481364e-01,3.20576e-02,9.99999e-01,7.25617e-01,2.63691e-01,1.58107e-01,9.99942e-01
9.432408771e-01,2.40387e-02,9.99999e-01,8.19880e-01,1.72769e-01,1.63974e-01,9.99935e-01
9.479570815e-01,1.29601e-02,9.99999e-01,9.02927e-01,8.29860e-02,1.69936e-01,9.99943e-01
9.526968669e-01,2.42448e-02,9.99999e-01,9.52041e-01,1.42986e-01,1.75990e-01,9.99957e-01
9.574603512e-01,2.77762e-02,9.99999e-01,9.79160e-01,1.54947e-01,1.82134e-01,9.99968e-01
9.622476530e-01,3.94894e-02,9.99999e-01,9.93449e-01,2.10693e-01,1.88365e-01,9.99978e-01
9.670588912e-01,7.80187e-02,9.99999e-01,9.98032e-01,4.01371e-01,1.94680e-01,9.99986e-01
9.718941857e-01,1.10515e-01,9.99999e-01,9.99860e-01,5.49677e-01,2.01076e-01,9.99991e-01
9.767536566e-01,1.26117e-01,9.99999e-01,9.99999e-01,6.07652e-01,2.07549e-01,9.99993e-01
9.816374249e-01,1.47474e-01,9.99999e-01,9.99999e-01,6.88823e-01,2.14096e-01,9.99995e-01
9.865456120e-01,1.74614e-01,9.99999e-01,9.99999e-01,7.91132e-01,2.20714e-01,9.99997e-01
9.914783401e-01,1.96618e-01,9.99999e-01,9.99999e-01,8.64634e-01,2.27401e-01,9.99998e-01
9.964357318e-01,2.16311e-01,9.99999e-01,9.99999e-01,9.23807e-01,2.34151e-01,9.99999e-01
1.001417910e+00,2.29773e-01,9.99999e-01,9.99999e-01,9.53561e-01,2.40963e-01,9.99999e-01
1.006425000e+00,2.41202e-01,9.99999e-01,9.99999e-01,9.73243e-01,2.47833e-01,9.99999e-01
1.011457125e+00,2.50505e-01,9.99999e-01,9.99999e-01,9.83310e-01,2.54757e-01,9.99999e-01
1.016514411e+00,2.58758e-01,9.99999e-01,9.99999e-01,9.88638e-01,2.61731e-01,9.99999e-01
1.021596983e+00,2.66246e-01,9.99999e-01,9.99726e-01,9.90937e-01,2.68754e-01,9.99999e-01
1.026704968e+00,2.68453e-01,9.99999e-01,9.80180e-01,9.92924e-01,2.75820e-01,9.99999e-01
1.031838492e+00,2.43990e-01,9.99999e-01,8.66521e-01,9.94853e-01,2.82928e-01,9.99999e-01
1.036997685e+00,7.31242e-03,9.99999e-01,2.52667e-02,9.96940e-01,2.90072e-01,9.99999e-01
1.042182673e+00,6.97486e-05,9.99999e-01,2.35257e-04,9.96353e-01,2.97251e-01,9.99999e-01
1.047393587e+00,2.00149e-04,9.99999e-01,6.59940e-04,9.95166e-01,3.04460e-01,9.99999e-01
1.052630555e+00,1.42811e-10,9.99999e-01,4.60041e-10,9.93372e-01,3.11696e-01,9.99999e-01
1.057893707e+00,5.32430e-10,9.99999e-01,1.67786e-09,9.88962e-01,3.18957e-01,9.99999e-01
1.063183176e+00,1.64370e-07,9.99999e-01,5.08663e-07,9.81908e-01,3.26238e-01,9.99999e-01
1.068499092e+00,4.09082e-06,9.99999e-01,1.24639e-05,9.69902e-01,3.33536e-01,9.99999e-01
1.073841587e+00,1.93102e-04,9.99999e-01,5.79457e-04,9.64939e-01,3.40849e-01,9.99998e-01
1.079210795e+00,3.30699e-03,9.99999e-01,9.81230e-03,9.55232e-01,3.48173e-01,9.99998e-01
1.084606849e+00,2.28617e-02,9.99999e-01,6.80504e-02,9.33135e-01,3.55505e-01,9.99997e-01
1.090029883e+00,8.06294e-02,9.99999e-01,2.42299e-01,9.05725e-01,3.62842e-01,9.99995e-01
1.095480033e+00,1.41835e-01,9.99999e-01,4.94408e-01,7.63920e-01,3.70181e-01,9.99993e-01
1.100957433e+00,1.39452e-01,9.99999e-01,7.09605e-01,5.11405e-01,3.77519e-01,9.99987e-01
1.106462220e+00,6.88069e-02,9.99999e-01,8.67289e-01,2.02022e-01,3.84854e-01,9.99973e-01
1.111994531e+00,1.46065e-02,9.99999e-01,9.48454e-01,3.87569e-02,3.92182e-01,9.99947e-01
1.117554504e+00,2.73192e-03,9.99999e-01,9.87162e-01,6.87973e-03,3.99500e-01,9.99926e-01
1.123142276e+00,1.44253e-02,9.99999e-01,9.99152e-01,3.54646e-02,4.06806e-01,9.99913e-01
1.128757988e+00,3.67009e-02,9.99999e-01,9.99999e-01,8.86368e-02,4.14098e-01,9.99905e-01
1.134401778e+00,1.73046e-02,9.99999e-01,9.99999e-01,4.10715e-02,4.21373e-01,9.99894e-01
1.140073787e+00,9.18276e-02,9.99999e-01,9.99999e-01,2.14254e-01,4.28628e-01,9.99914e-01
1.145774156e+00,2.44682e-02,9.99999e-01,9.99999e-01,5.61417e-02,4.35861e-01,9.99927e-01
1.151503026e+00,1.78541e-02,9.99999e-01,9.99999e-01,4.02989e-02,4.43069e-01,9.99937e-01
1.157260541e+00,2.32421e-02,9.99999e-01,9.99999e-01,5.16228e-02,4.50251e-01,9.99952e-01
1.163046844e+00,4.99055e-02,9.99999e-01,9.99999e-01,1.09109e-01,4.57404e-01,9.99969e-01
1.168862078e+00,9.30132e-02,9.99999e-01,9.99999e-01,2.00236e-01,4.64525e-01,9.99984e-01
1.174706389e+00,1.73531e-01,9.99999e-01,9.99999e-01,3.67954e-01,4.71614e-01,9.99991e-01
1.180579921e+00,2.58715e-01,9.99999e-01,9.99999e-01,5.40491e-01,4.78668e-01,9.99994e-01
1.186482820e+00,3.41452e-01,9.99999e-01,9.99963e-01,7.03052e-01,4.85685e-01,9.99995e-01
1.192415234e+00,3.76201e-01,9.99999e-01,9.35391e-01,8.13271e-01,4.92663e-01,9.99996e-01
1.198377311e+00,2.06356e-01,9.99999e-01,4.77145e-01,8.40275e-01,4.99600e-01,9.99996e-01
1.204369197e+00,9.45242e-51,9.99999e-01,2.05318e-50,8.48962e-01,5.06495e-01,9.99996e-01
1.210391043e+00,1.66951e-210,9.99999e-01,3.55052e-210,8.54576e-01,5.13347e-01,9.99997e-01
1.216442998e+00,6.21142e-182,9.99999e-01,1.29771e-181,8.74859e-01,5.20153e-01,9.99998e-01
1.222525213e+00,3.63288e-179,9.99999e-01,7.27630e-179,9.00852e-01,5.26912e-01,9.99998e-01
1.228637839e+00,7.38498e-138,9.99999e-01,1.45310e-137,9.30008e-01,5.33623e-01,9.99999e-01
