#,Wave/freq,Total,O2,CO2,H2O,Rayleigh,CIA
4.000000000e-01,2.98652e-06,9.99999e-01,9.99999e-01,9.99974e-01,2.98659e-06,9.99999e-01
4.020000000e-01,3.84069e-06,9.99999e-01,9.99999e-01,9.99984e-01,3.84075e-06,9.99999e-01
4.040100000e-01,4.91342e-06,9.99999e-01,9.99999e-01,9.99992e-01,4.91346e-06,9.99999e-01
4.060300500e-01,6.25525e-06,9.99999e-01,9.99999e-01,9.99998e-01,6.25526e-06,9.99999e-01
4.080602003e-01,7.92560e-06,9.99999e-01,9.99999e-01,9.99999e-01,7.92560e-06,9.99999e-01
4.101005013e-01,9.99514e-06,9.99999e-01,9.99999e-01,9.99999e-01,9.99514e-06,9.99999e-01
4.121510038e-01,1.25474e-05,9.99999e-01,9.99999e-01,9.99998e-01,1.25475e-05,9.99999e-01
4.142117588e-01,1.56808e-05,9.99999e-01,9.99999e-01,9.99992e-01,1.56809e-05,9.99999e-01
4.162828176e-01,1.95102e-05,9.99999e-01,9.99999e-01,9.99968e-01,1.95108e-05,9.99999e-01
4.183642317e-01,2.41710e-05,9.99999e-01,9.99999e-01,9.99981e-01,2.41715e-05,9.99999e-01
4.204560528e-01,2.98188e-05,9.99999e-01,9.99999e-01,9.99988e-01,2.98191e-05,9.99999e-01
4.225583331e-01,3.66339e-05,9.99999e-01,9.99999e-01,9.99995e-01,3.66340e-05,9.99999e-01
4.246711247e-01,4.48237e-05,9.99999e-01,9.99999e-01,9.99996e-01,4.48238e-05,9.99999e-01
4.267944804e-01,5.46261e-05,9.99999e-01,9.99999e-01,9.99994e-01,5.46264e-05,9.99999e-01
4.289284528e-01,6.63128e-05,9.99999e-01,9.99999e-01,9.99995e-01,6.63131e-05,9.99999e-01
4.310730950e-01,8.01922e-05,9.99999e-01,9.99999e-01,9.99997e-01,8.01923e-05,9.99999e-01
4.332284605e-01,9.66131e-05,9.99999e-01,9.99999e-01,9.99999e-01,9.66132e-05,9.99999e-01
4.353946028e-01,1.15969e-04,9.99999e-01,9.99999e-01,9.99999e-01,1.15969e-04,9.99999e-01
4.375715758e-01,1.38701e-04,9.99999e-01,9.99999e-01,9.99996e-01,1.38701e-04,9.99999e-01
4.397594337e-01,1.65300e-04,9.99999e-01,9.99999e-01,9.99972e-01,1.65304e-04,9.99999e-01
4.419582309e-01,1.96301e-04,9.99999e-01,9.99999e-01,9.99860e-01,1.96328e-04,9.99999e-01
4.441680220e-01,2.32359e-04,9.99999e-01,9.99999e-01,9.99892e-01,2.32383e-04,9.99999e-01
4.463888621e-01,2.74115e-04,9.99999e-01,9.99999e-01,9.99887e-01,2.74146e-04,9.99999e-01
4.486208064e-01,3.22337e-04,9.99999e-01,9.99999e-01,9.99930e-01,3.22359e-04,9.99999e-01
4.508639105e-01,3.77829e-04,9.99999e-01,9.99999e-01,9.99967e-01,3.77841e-04,9.99999e-01
4.531182300e-01,4.41479e-04,9.99999e-01,9.99999e-01,9.99986e-01,4.41485e-04,9.99999e-01
4.553838212e-01,5.14261e-04,9.99999e-01,9.99999e-01,9.99990e-01,5.14265e-04,9.99999e-01
4.576607403e-01,5.97238e-04,9.99999e-01,9.99999e-01,9.99995e-01,5.97241e-04,9.99999e-01
4.599490440e-01,6.91556e-04,9.99999e-01,9.99999e-01,9.99996e-01,6.91558e-04,9.99999e-01
4.622487892e-01,7.98453e-04,9.99999e-01,9.99999e-01,9.99999e-01,7.98453e-04,9.99999e-01
4.645600332e-01,9.19257e-04,9.99999e-01,9.99999e-01,9.99997e-01,9.19259e-04,9.99999e-01
4.668828333e-01,1.05537e-03,9.99999e-01,9.99999e-01,9.99966e-01,1.05540e-03,9.99999e-01
4.692172475e-01,1.20832e-03,9.99999e-01,9.99999e-01,9.99929e-01,1.20840e-03,9.99999e-01
4.715633337e-01,1.37983e-03,9.99999e-01,9.99999e-01,9.99953e-01,1.37989e-03,9.99999e-01
4.739211504e-01,1.57153e-03,9.99999e-01,9.99999e-01,9.99955e-01,1.57160e-03,9.99999e-01
4.762907561e-01,1.78530e-03,9.99999e-01,9.99999e-01,9.99976e-01,1.78534e-03,9.99999e-01
4.786722099e-01,2.02303e-03,9.99999e-01,9.99999e-01,9.99990e-01,2.02304e-03,9.99999e-01
4.810655710e-01,2.28674e-03,9.99999e-01,9.99999e-01,9.99996e-01,2.28675e-03,9.99999e-01
4.834708988e-01,2.57851e-03,9.99999e-01,9.99999e-01,9.99972e-01,2.57858e-03,9.99999e-01
4.858882533e-01,2.90062e-03,9.99999e-01,9.99999e-01,9.99950e-01,2.90076e-03,9.99999e-01
4.883176946e-01,3.25549e-03,9.99999e-01,9.99999e-01,9.99957e-01,3.25562e-03,9.99999e-01
4.907592831e-01,3.64543e-03,9.99999e-01,9.99999e-01,9.99962e-01,3.64557e-03,9.99999e-01
4.932130795e-01,4.07301e-03,9.99999e-01,9.99999e-01,9.99972e-01,4.07311e-03,9.99999e-01
4.956791449e-01,4.54078e-03,9.99999e-01,9.99999e-01,9.99985e-01,4.54084e-03,9.99999e-01
4.981575406e-01,5.05107e-03,9.99999e-01,9.99999e-01,9.99928e-01,5.05142e-03,9.99999e-01
5.006483283e-01,5.60657e-03,9.99999e-01,9.99999e-01,9.99815e-01,5.60760e-03,9.99999e-01
5.031515699e-01,6.20643e-03,9.99999e-01,9.99999e-01,9.99072e-01,6.21218e-03,9.99999e-01
5.056673278e-01,6.86469e-03,9.99999e-01,9.99999e-01,9.99511e-01,6.86805e-03,9.99999e-01
5.081956644e-01,7.57345e-03,9.99999e-01,9.99999e-01,9.99383e-01,7.57811e-03,9.99999e-01
5.107366428e-01,8.34189e-03,9.99999e-01,9.99999e-01,9.99584e-01,8.34536e-03,9.99999e-01
5.132903260e-01,9.17062e-03,9.99999e-01,9.99999e-01,9.99762e-01,9.17279e-03,9.99999e-01
5.158567776e-01,1.00625e-02,9.99999e-01,9.99999e-01,9.99899e-01,1.00635e-02,9.99999e-01
5.184360615e-01,1.10200e-02,9.99999e-01,9.99999e-01,9.99959e-01,1.10204e-02,9.99999e-01
5.210282418e-01,1.20466e-02,9.99999e-01,9.99999e-01,9.99984e-01,1.20467e-02,9.99999e-01
5.236333830e-01,1.31447e-02,9.99999e-01,9.99999e-01,9.99939e-01,1.31455e-02,9.99999e-01
5.262515499e-01,1.43192e-02,9.99999e-01,9.99999e-01,9.99961e-01,1.43198e-02,9.99999e-01
5.288828077e-01,1.55720e-02,9.99999e-01,9.99999e-01,9.99964e-01,1.55726e-02,9.99999e-01
5.315272217e-01,1.69065e-02,9.99999e-01,9.99999e-01,9.99969e-01,1.69070e-02,9.99999e-01
5.341848578e-01,1.83256e-02,9.99999e-01,9.99999e-01,9.99979e-01,1.83259e-02,9.99999e-01
5.368557821e-01,1.98310e-02,9.99999e-01,9.99999e-01,9.99929e-01,1.98324e-02,9.99999e-01
5.395400610e-01,2.14237e-02,9.99999e-01,9.99999e-01,9.99744e-01,2.14292e-02,9.99999e-01
5.422377613e-01,2.31116e-02,9.99999e-01,9.99999e-01,9.99672e-01,2.31192e-02,9.99999e-01
5.449489501e-01,2.48975e-02,9.99999e-01,9.99999e-01,9.99693e-01,2.49051e-02,9.99999e-01
5.476736949e-01,2.67823e-02,9.99999e-01,9.99999e-01,9.99730e-01,2.67896e-02,9.99999e-01
5.504120634e-01,2.87695e-02,9.99999e-01,9.99999e-01,9.99804e-01,2.87751e-02,9.99999e-01
5.531641237e-01,3.08612e-02,9.99999e-01,9.99999e-01,9.99901e-01,3.08642e-02,9.99999e-01
5.559299443e-01,3.30576e-02,9.99999e-01,9.99999e-01,9.99952e-01,3.30592e-02,9.99999e-01
5.587095940e-01,3.53612e-02,9.99999e-01,9.99999e-01,9.99969e-01,3.53623e-02,9.99999e-01
5.615031420e-01,3.77742e-02,9.99999e-01,9.99999e-01,9.99966e-01,3.77755e-02,9.99999e-01
5.643106577e-01,4.02993e-02,9.99999e-01,9.99999e-01,9.99961e-01,4.03008e-02,9.99999e-01
5.671322110e-01,4.29201e-02,9.99999e-01,9.99999e-01,9.99536e-01,4.29400e-02,9.99999e-01
5.699678720e-01,4.56726e-02,9.99999e-01,9.99999e-01,9.99515e-01,4.56948e-02,9.99999e-01
5.728177114e-01,4.85419e-02,9.99999e-01,9.99999e-01,9.99491e-01,4.85666e-02,9.99999e-01
5.756818000e-01,5.15327e-02,9.99999e-01,9.99999e-01,9.99534e-01,5.15567e-02,9.99999e-01
5.785602090e-01,5.46443e-02,9.99999e-01,9.99999e-01,9.99594e-01,5.46665e-02,9.99999e-01
5.814530100e-01,5.78731e-02,9.99999e-01,9.99999e-01,9.99592e-01,5.78967e-02,9.99999e-01
5.843602750e-01,6.12185e-02,9.99999e-01,9.99999e-01,9.99511e-01,6.12484e-02,9.99999e-01
5.872820764e-01,6.44503e-02,9.99999e-01,9.99999e-01,9.95799e-01,6.47221e-02,9.99999e-01
5.902184868e-01,6.79727e-02,9.99999e-01,9.99999e-01,9.94940e-01,6.83183e-02,9.99999e-01
5.931695792e-01,7.17793e-02,9.99999e-01,9.99999e-01,9.96417e-01,7.20374e-02,9.99999e-01
5.961354271e-01,7.55819e-02,9.99999e-01,9.99999e-01,9.96078e-01,7.58794e-02,9.99999e-01
5.991161043e-01,7.96161e-02,9.99999e-01,9.99999e-01,9.97140e-01,7.98444e-02,9.99999e-01
6.021116848e-01,8.37959e-02,9.99999e-01,9.99999e-01,9.98378e-01,8.39320e-02,9.99999e-01
6.051222432e-01,8.80697e-02,9.99999e-01,9.99999e-01,9.99179e-01,8.81420e-02,9.99999e-01
6.081478544e-01,9.24409e-02,9.99999e-01,9.99999e-01,9.99645e-01,9.24737e-02,9.99999e-01
6.111885937e-01,9.69118e-02,9.99999e-01,9.99999e-01,9.99850e-01,9.69263e-02,9.99999e-01
6.142445367e-01,1.01492e-01,9.99999e-01,9.99999e-01,9.99932e-01,1.01499e-01,9.99999e-01
6.173157594e-01,1.06187e-01,9.99999e-01,9.99999e-01,9.99962e-01,1.06191e-01,9.99999e-01
6.204023382e-01,1.10997e-01,9.99999e-01,9.99999e-01,9.99968e-01,1.11000e-01,9.99999e-01
6.235043498e-01,1.15910e-01,9.99999e-01,9.99999e-01,9.99860e-01,1.15926e-01,9.99999e-01
6.266218716e-01,1.20878e-01,9.99999e-01,9.99999e-01,9.99269e-01,1.20967e-01,9.99999e-01
6.297549810e-01,1.26087e-01,9.99999e-01,9.99999e-01,9.99731e-01,1.26120e-01,9.99999e-01
6.329037559e-01,1.31316e-01,9.99999e-01,9.99999e-01,9.99471e-01,1.31385e-01,9.99999e-01
6.360682746e-01,1.36698e-01,9.99999e-01,9.99999e-01,9.99548e-01,1.36760e-01,9.99999e-01
6.392486160e-01,1.42158e-01,9.99999e-01,9.99999e-01,9.99415e-01,1.42241e-01,9.99999e-01
6.424448591e-01,1.47711e-01,9.99999e-01,9.99999e-01,9.99214e-01,1.47827e-01,9.99999e-01
6.456570834e-01,1.52957e-01,9.99999e-01,9.99999e-01,9.96358e-01,1.53516e-01,9.99999e-01
6.488853688e-01,1.58883e-01,9.99999e-01,9.99999e-01,9.97350e-01,1.59305e-01,9.99999e-01
6.521297956e-01,1.64745e-01,9.99999e-01,9.99999e-01,9.97299e-01,1.65192e-01,9.99999e-01
6.553904446e-01,1.70711e-01,9.99999e-01,9.99999e-01,9.97304e-01,1.71173e-01,9.99999e-01
6.586673968e-01,1.76838e-01,9.99999e-01,9.99999e-01,9.97697e-01,1.77246e-01,9.99999e-01
6.619607338e-01,1.83173e-01,9.99999e-01,9.99999e-01,9.98716e-01,1.83408e-01,9.99999e-01
6.652705375e-01,1.89510e-01,9.99999e-01,9.99999e-01,9.99229e-01,1.89657e-01,9.99999e-01
6.685968902e-01,1.95924e-01,9.99999e-01,9.99999e-01,9.99672e-01,1.95988e-01,9.99999e-01
6.719398746e-01,2.02366e-01,9.99999e-01,9.99999e-01,9.99833e-01,2.02400e-01,9.99999e-01
6.752995740e-01,2.08869e-01,9.99999e-01,9.99999e-01,9.99909e-01,2.08888e-01,9.99999e-01
6.786760719e-01,2.15422e-01,9.99999e-01,9.99999e-01,9.99869e-01,2.15450e-01,9.99999e-01
6.820694522e-01,2.22034e-01,9.99999e-01,9.99999e-01,9.99776e-01,2.22083e-01,9.99999e-01
6.854797995e-01,2.28717e-01,9.99999e-01,9.99999e-01,9.99712e-01,2.28783e-01,9.99999e-01
6.889071985e-01,2.35381e-01,9.99999e-01,9.99999e-01,9.99297e-01,2.35546e-01,9.99999e-01
6.923517345e-01,2.39619e-01,9.99999e-01,9.99999e-01,9.88648e-01,2.42370e-01,9.99999e-01
6.958134932e-01,2.47795e-01,9.99999e-01,9.99999e-01,9.94158e-01,2.49251e-01,9.99999e-01
6.992925606e-01,2.54746e-01,9.99999e-01,9.99999e-01,9.94379e-01,2.56186e-01,9.99999e-01
7.027890234e-01,2.61354e-01,9.99999e-01,9.99999e-01,9.93097e-01,2.63171e-01,9.99999e-01
7.063029686e-01,2.68633e-01,9.99999e-01,9.99999e-01,9.94191e-01,2.70203e-01,9.99999e-01
7.098344834e-01,2.75732e-01,9.99999e-01,9.99999e-01,9.94426e-01,2.77278e-01,9.99999e-01
7.133836558e-01,2.82266e-01,9.99999e-01,9.99999e-01,9.92521e-01,2.84393e-01,9.99999e-01
7.169505741e-01,2.74506e-01,9.99999e-01,9.99999e-01,9.41558e-01,2.91545e-01,9.99998e-01
7.205353270e-01,2.90154e-01,9.99999e-01,9.99999e-01,9.71291e-01,2.98730e-01,9.99998e-01
7.241380036e-01,2.94725e-01,9.99999e-01,9.99999e-01,9.63326e-01,3.05945e-01,9.99998e-01
7.277586936e-01,3.02809e-01,9.99999e-01,9.99999e-01,9.66866e-01,3.13186e-01,9.99998e-01
7.313974871e-01,3.09216e-01,9.99999e-01,9.99999e-01,9.64938e-01,3.20451e-01,9.99999e-01
7.350544745e-01,3.21404e-01,9.99999e-01,9.99999e-01,9.80679e-01,3.27736e-01,9.99999e-01
7.387297469e-01,3.30266e-01,9.99999e-01,9.99999e-01,9.85756e-01,3.35038e-01,9.99999e-01
7.424233956e-01,3.39963e-01,9.99999e-01,9.99999e-01,9.93017e-01,3.42353e-01,9.99999e-01
7.461355126e-01,3.48197e-01,9.99999e-01,9.99999e-01,9.95759e-01,3.49679e-01,9.99999e-01
7.498661902e-01,3.56309e-01,9.99999e-01,9.99999e-01,9.98027e-01,3.57013e-01,9.99999e-01
7.536155211e-01,3.63997e-01,9.99999e-01,9.99999e-01,9.99030e-01,3.64350e-01,9.99999e-01
7.573835987e-01,3.71504e-01,9.99999e-01,9.99999e-01,9.99500e-01,3.71689e-01,9.99999e-01
7.611705167e-01,3.78910e-01,9.99999e-01,9.99999e-01,9.99689e-01,3.79027e-01,9.99999e-01
7.649763693e-01,3.86285e-01,9.99999e-01,9.99999e-01,9.99805e-01,3.86360e-01,9.99999e-01
7.688012511e-01,3.93633e-01,9.99999e-01,9.99999e-01,9.99864e-01,3.93686e-01,9.99999e-01
7.726452574e-01,4.00958e-01,9.99999e-01,9.99999e-01,9.99887e-01,4.01003e-01,9.99999e-01
7.765084837e-01,4.08241e-01,9.99999e-01,9.99999e-01,9.99840e-01,4.08306e-01,9.99999e-01
7.803910261e-01,3.98118e-01,9.99999e-01,9.58581e-01,9.99310e-01,4.15595e-01,9.99999e-01
7.842929812e-01,3.51122e-01,9.99999e-01,8.32226e-01,9.97595e-01,4.22865e-01,9.99999e-01
7.882144461e-01,3.51480e-01,9.99999e-01,8.21024e-01,9.95076e-01,4.30116e-01,9.99999e-01
7.921555184e-01,3.88508e-01,9.99999e-01,8.90666e-01,9.97306e-01,4.37344e-01,9.99999e-01
7.961162960e-01,4.09556e-01,9.99999e-01,9.25674e-01,9.95209e-01,4.44547e-01,9.99999e-01
8.000968774e-01,4.30799e-01,9.99999e-01,9.58945e-01,9.94487e-01,4.51723e-01,9.99999e-01
8.040973618e-01,4.46566e-01,9.99999e-01,9.78572e-01,9.94481e-01,4.58870e-01,9.99999e-01
8.081178486e-01,4.55629e-01,9.99999e-01,9.90080e-01,9.87549e-01,4.65985e-01,9.99999e-01
8.121584379e-01,4.47653e-01,9.99999e-01,9.96945e-01,9.49142e-01,4.73067e-01,9.99998e-01
8.162192301e-01,4.51133e-01,9.99999e-01,9.99324e-01,9.40259e-01,4.80113e-01,9.99998e-01
8.203003262e-01,4.72258e-01,9.99999e-01,9.99990e-01,9.69494e-01,4.87122e-01,9.99998e-01
8.244018279e-01,4.73467e-01,9.99999e-01,9.99999e-01,9.58258e-01,4.94092e-01,9.99998e-01
8.285238370e-01,4.82875e-01,9.99999e-01,9.99999e-01,9.63783e-01,5.01021e-01,9.99998e-01
8.326664562e-01,4.89361e-01,9.99999e-01,9.99999e-01,9.63485e-01,5.07907e-01,9.99998e-01
8.368297885e-01,5.01270e-01,9.99999e-01,9.99999e-01,9.73813e-01,5.14749e-01,9.99999e-01
8.410139374e-01,5.13393e-01,9.99999e-01,9.99999e-01,9.84367e-01,5.21546e-01,9.99999e-01
8.452190071e-01,5.24234e-01,9.99999e-01,9.99999e-01,9.92312e-01,5.28295e-01,9.99999e-01
8.494451021e-01,5.32602e-01,9.99999e-01,9.99999e-01,9.95524e-01,5.34996e-01,9.99999e-01
8.536923276e-01,5.40215e-01,9.99999e-01,9.99999e-01,9.97356e-01,5.41647e-01,9.99999e-01
8.579607893e-01,5.47353e-01,9.99999e-01,9.99999e-01,9.98368e-01,5.48247e-01,9.99999e-01
8.622505932e-01,5.54220e-01,9.99999e-01,9.99999e-01,9.98964e-01,5.54794e-01,9.99999e-01
8.665618462e-01,5.12853e-01,9.99999e-01,9.14267e-01,9.99358e-01,5.61288e-01,9.99999e-01
8.708946554e-01,3.56073e-01,9.99999e-01,6.27631e-01,9.99264e-01,5.67728e-01,9.99999e-01
8.752491287e-01,3.93807e-01,9.99999e-01,6.86592e-01,9.99016e-01,5.74112e-01,9.99999e-01
8.796253743e-01,4.71200e-01,9.99999e-01,8.12868e-01,9.98635e-01,5.80439e-01,9.99999e-01
8.840235012e-01,5.26013e-01,9.99999e-01,8.97921e-01,9.98441e-01,5.86710e-01,9.99999e-01
8.884436187e-01,5.65109e-01,9.99999e-01,9.58525e-01,9.94264e-01,5.92922e-01,9.99999e-01
8.928858368e-01,5.54569e-01,9.99999e-01,9.82970e-01,9.41573e-01,5.99075e-01,9.99998e-01
8.973502660e-01,5.42159e-01,9.99999e-01,9.95853e-01,8.99518e-01,6.05169e-01,9.99998e-01
9.018370173e-01,5.78927e-01,9.99999e-01,9.99542e-01,9.47610e-01,6.11202e-01,9.99998e-01
9.063462024e-01,5.81622e-01,9.99999e-01,9.88096e-01,9.53315e-01,6.17175e-01,9.99997e-01
9.108779334e-01,5.63189e-01,9.99999e-01,9.73226e-01,9.28362e-01,6.23086e-01,9.99997e-01
9.154323231e-01,5.74505e-01,9.99999e-01,9.93692e-01,9.19103e-01,6.28936e-01,9.99997e-01
9.200094847e-01,5.44098e-01,9.99999e-01,9.11891e-01,9.36175e-01,6.34723e-01,9.99996e-01
9.246095321e-01,5.06783e-01,9.99999e-01,8.75598e-01,9.01135e-01,6.40448e-01,9.99994e-01
9.292325798e-01,2.96968e-01,9.99999e-01,9.00706e-01,5.03724e-01,6.46110e-01,9.99989e-01
9.338787427e-01,2.47981e-01,9.99999e-01,9.04306e-01,4.15661e-01,6.51708e-01,9.99986e-01
9.385481364e-01,4.30335e-01,9.99999e-01,9.28663e-01,7.01508e-01,6.57243e-01,9.99986e-01
9.432408771e-01,3.88205e-01,9.99999e-01,9.55754e-01,6.11099e-01,6.62715e-01,9.99984e-01
9.479570815e-01,3.32652e-01,9.99999e-01,9.77019e-01,5.08845e-01,6.68122e-01,9.99986e-01
9.526968669e-01,4.00937e-01,9.99999e-01,9.88870e-01,6.01352e-01,6.73465e-01,9.99989e-01
9.574603512e-01,4.21263e-01,9.99999e-01,9.95228e-01,6.23392e-01,6.78745e-01,9.99992e-01
9.622476530e-01,4.64748e-01,9.99999e-01,9.98510e-01,6.80440e-01,6.83960e-01,9.99994e-01
9.670588912e-01,5.51445e-01,9.99999e-01,9.99553e-01,8.00564e-01,6.89111e-01,9.99996e-01
9.718941857e-01,6.03713e-01,9.99999e-01,9.99968e-01,8.69681e-01,6.94198e-01,9.99997e-01
9.767536566e-01,6.22670e-01,9.99999e-01,9.99999e-01,8.90520e-01,6.99221e-01,9.99998e-01
9.816374249e-01,6.46261e-01,9.99999e-01,9.99999e-01,9.17749e-01,7.04180e-01,9.99998e-01
9.865456120e-01,6.72053e-01,9.99999e-01,9.99999e-01,9.47787e-01,7.09075e-01,9.99999e-01
9.914783401e-01,6.90622e-01,9.99999e-01,9.99999e-01,9.67384e-01,7.13907e-01,9.99999e-01
9.964357318e-01,7.05818e-01,9.99999e-01,9.99999e-01,9.82109e-01,7.18675e-01,9.99999e-01
1.001417910e+00,7.15598e-01,9.99999e-01,9.99999e-01,9.89242e-01,7.23380e-01,9.99999e-01
1.006425000e+00,7.23542e-01,9.99999e-01,9.99999e-01,9.93847e-01,7.28021e-01,9.99999e-01
1.011457125e+00,7.29804e-01,9.99999e-01,9.99999e-01,9.96183e-01,7.32600e-01,9.99999e-01
1.016514411e+00,7.35205e-01,9.99999e-01,9.99999e-01,9.97405e-01,7.37117e-01,9.99999e-01
1.021596983e+00,7.39987e-01,9.99999e-01,9.99930e-01,9.97931e-01,7.41571e-01,9.99999e-01
1.026704968e+00,7.41281e-01,9.99999e-01,9.95326e-01,9.98385e-01,7.45964e-01,9.99999e-01
1.031838492e+00,7.09607e-01,9.99999e-01,9.46840e-01,9.98827e-01,7.50294e-01,9.99999e-01
1.036997685e+00,9.44774e-02,9.99999e-01,1.25276e-01,9.99302e-01,7.54564e-01,9.99999e-01
1.042182673e+00,5.91138e-02,9.99999e-01,7.79634e-02,9.99166e-01,7.58773e-01,9.99999e-01
1.047393587e+00,7.74036e-02,9.99999e-01,1.01555e-01,9.98896e-01,7.62922e-01,9.99999e-01
1.052630555e+00,1.10219e-03,9.99999e-01,1.43855e-03,9.98484e-01,7.67011e-01,9.99999e-01
1.057893707e+00,3.14589e-03,9.99999e-01,4.08673e-03,9.97469e-01,7.71040e-01,9.99999e-01
1.063183176e+00,1.31045e-02,9.99999e-01,1.69574e-02,9.95840e-01,7.75010e-01,9.99999e-01
1.068499092e+00,4.35884e-02,9.99999e-01,5.62787e-02,9.93049e-01,7.78922e-01,9.99999e-01
1.073841587e+00,1.26087e-01,9.99999e-01,1.62177e-01,9.91860e-01,7.82775e-01,9.99999e-01
1.079210795e+00,2.46180e-01,9.99999e-01,3.15918e-01,9.89601e-01,7.86571e-01,9.99999e-01
1.084606849e+00,4.12119e-01,9.99999e-01,5.29331e-01,9.84281e-01,7.90310e-01,9.99999e-01
1.090029883e+00,5.57860e-01,9.99999e-01,7.18289e-01,9.77415e-01,7.93992e-01,9.99998e-01
1.095480033e+00,6.37348e-01,9.99999e-01,8.49630e-01,9.39719e-01,7.97618e-01,9.99998e-01
1.100957433e+00,6.33147e-01,9.99999e-01,9.24433e-01,8.54005e-01,8.01189e-01,9.99996e-01
1.106462220e+00,5.23307e-01,9.99999e-01,9.68056e-01,6.70822e-01,8.04704e-01,9.99993e-01
1.111994531e+00,3.47868e-01,9.99999e-01,9.88037e-01,4.35208e-01,8.08165e-01,9.99987e-01
1.117554504e+00,2.12785e-01,9.99999e-01,9.97076e-01,2.62794e-01,8.11572e-01,9.99982e-01
1.123142276e+00,3.10969e-01,9.99999e-01,9.99808e-01,3.81629e-01,8.14926e-01,9.99979e-01
1.128757988e+00,4.36231e-01,9.99999e-01,9.99999e-01,5.33153e-01,8.18227e-01,9.99978e-01
1.134401778e+00,2.34252e-01,9.99999e-01,9.99999e-01,2.85166e-01,8.21476e-01,9.99975e-01
1.140073787e+00,5.64150e-01,9.99999e-01,9.99999e-01,6.84102e-01,8.24673e-01,9.99980e-01
1.145774156e+00,3.79249e-01,9.99999e-01,9.99999e-01,4.58137e-01,8.27819e-01,9.99983e-01
1.151503026e+00,3.49395e-01,9.99999e-01,9.99999e-01,4.20500e-01,8.30915e-01,9.99985e-01
1.157260541e+00,4.00211e-01,9.99999e-01,9.99999e-01,4.79897e-01,8.33960e-01,9.99988e-01
1.163046844e+00,4.86113e-01,9.99999e-01,9.99999e-01,5.80814e-01,8.36957e-01,9.99992e-01
1.168862078e+00,5.74696e-01,9.99999e-01,9.99999e-01,6.84242e-01,8.39904e-01,9.99996e-01
1.174706389e+00,6.66769e-01,9.99999e-01,9.99999e-01,7.91133e-01,8.42804e-01,9.99997e-01
1.180579921e+00,7.33160e-01,9.99999e-01,9.99999e-01,8.66973e-01,8.45655e-01,9.99998e-01
1.186482820e+00,7.82620e-01,9.99999e-01,9.99989e-01,9.22409e-01,8.48460e-01,9.99998e-01
1.192415234e+00,7.98731e-01,9.99999e-01,9.83431e-01,9.53928e-01,8.51219e-01,9.99998e-01
1.198377311e+00,4.58617e-01,9.99999e-01,5.55205e-01,9.60989e-01,8.53932e-01,9.99998e-01
1.204369197e+00,2.72278e-13,9.99999e-01,3.24843e-13,9.63079e-01,8.56599e-01,9.99998e-01
1.210391043e+00,1.17733e-49,9.99999e-01,1.39788e-49,9.64662e-01,8.59222e-01,9.99999e-01
1.216442998e+00,3.74674e-43,9.99999e-01,4.43066e-43,9.69898e-01,8.61801e-01,9.99999e-01
1.222525213e+00,1.60014e-42,9.99999e-01,1.87414e-42,9.76472e-01,8.64337e-01,9.99999e-01
1.228637839e+00,6.13232e-33,9.99999e-01,7.15527e-33,9.83598e-01,8.66829e-01,9.99999e-01
