#,Wave/freq,Total,O2,CO2,H2O,Rayleigh,CIA
4.000000000e-01,1.21544e-05,9.99999e-01,9.99999e-01,9.99977e-01,1.21547e-05,9.99999e-01
4.020000000e-01,1.52028e-05,9.99999e-01,9.99999e-01,9.99985e-01,1.52030e-05,9.99999e-01
4.040100000e-01,1.89276e-05,9.99999e-01,9.99999e-01,9.99993e-01,1.89277e-05,9.99999e-01
4.060300500e-01,2.34632e-05,9.99999e-01,9.99999e-01,9.99998e-01,2.34632e-05,9.99999e-01
4.080602003e-01,2.89623e-05,9.99999e-01,9.99999e-01,9.99999e-01,2.89624e-05,9.99999e-01
4.101005013e-01,3.56020e-05,9.99999e-01,9.99999e-01,9.99999e-01,3.56020e-05,9.99999e-01
4.121510038e-01,4.35856e-05,9.99999e-01,9.99999e-01,9.99998e-01,4.35856e-05,9.99999e-01
4.142117588e-01,5.31465e-05,9.99999e-01,9.99999e-01,9.99993e-01,5.31468e-05,9.99999e-01
4.162828176e-01,6.45502e-05,9.99999e-01,9.99999e-01,9.99972e-01,6.45520e-05,9.99999e-01
4.183642317e-01,7.81029e-05,9.99999e-01,9.99999e-01,9.99983e-01,7.81041e-05,9.99999e-01
4.204560528e-01,9.41455e-05,9.99999e-01,9.99999e-01,9.99989e-01,9.41464e-05,9.99999e-01
4.225583331e-01,1.13065e-04,9.99999e-01,9.99999e-01,9.99995e-01,1.13066e-04,9.99999e-01
4.246711247e-01,1.35296e-04,9.99999e-01,9.99999e-01,9.99996e-01,1.35297e-04,9.99999e-01
4.267944804e-01,1.61325e-04,9.99999e-01,9.99999e-01,9.99995e-01,1.61326e-04,9.99999e-01
4.289284528e-01,1.91695e-04,9.99999e-01,9.99999e-01,9.99996e-01,1.91695e-04,9.99999e-01
4.310730950e-01,2.27007e-04,9.99999e-01,9.99999e-01,9.99998e-01,2.27007e-04,9.99999e-01
4.332284605e-01,2.67927e-04,9.99999e-01,9.99999e-01,9.99999e-01,2.67927e-04,9.99999e-01
4.353946028e-01,3.15190e-04,9.99999e-01,9.99999e-01,9.99999e-01,3.15190e-04,9.99999e-01
4.375715758e-01,3.69601e-04,9.99999e-01,9.99999e-01,9.99996e-01,3.69602e-04,9.99999e-01
4.397594337e-01,4.32035e-04,9.99999e-01,9.99999e-01,9.99975e-01,4.32046e-04,9.99999e-01
4.419582309e-01,5.03422e-04,9.99999e-01,9.99999e-01,9.99875e-01,5.03485e-04,9.99999e-01
4.441680220e-01,5.84910e-04,9.99999e-01,9.99999e-01,9.99904e-01,5.84965e-04,9.99999e-01
4.463888621e-01,6.77554e-04,9.99999e-01,9.99999e-01,9.99900e-01,6.77622e-04,9.99999e-01
4.486208064e-01,7.82630e-04,9.99999e-01,9.99999e-01,9.99938e-01,7.82678e-04,9.99999e-01
4.508639105e-01,9.01426e-04,9.99999e-01,9.99999e-01,9.99970e-01,9.01452e-04,9.99999e-01
4.531182300e-01,1.03535e-03,9.99999e-01,9.99999e-01,9.99988e-01,1.03536e-03,9.99999e-01
4.553838212e-01,1.18589e-03,9.99999e-01,9.99999e-01,9.99991e-01,1.18590e-03,9.99999e-01
4.576607403e-01,1.35470e-03,9.99999e-01,9.99999e-01,9.99995e-01,1.35470e-03,9.99999e-01
4.599490440e-01,1.54346e-03,9.99999e-01,9.99999e-01,9.99996e-01,1.54347e-03,9.99999e-01
4.622487892e-01,1.75401e-03,9.99999e-01,9.99999e-01,9.99999e-01,1.75401e-03,9.99999e-01
4.645600332e-01,1.98824e-03,9.99999e-01,9.99999e-01,9.99997e-01,1.98824e-03,9.99999e-01
4.668828333e-01,2.24811e-03,9.99999e-01,9.99999e-01,9.99970e-01,2.24818e-03,9.99999e-01
4.692172475e-01,2.53578e-03,9.99999e-01,9.99999e-01,9.99937e-01,2.53594e-03,9.99999e-01
4.715633337e-01,2.85362e-03,9.99999e-01,9.99999e-01,9.99958e-01,2.85373e-03,9.99999e-01
4.739211504e-01,3.20375e-03,9.99999e-01,9.99999e-01,9.99960e-01,3.20387e-03,9.99999e-01
4.762907561e-01,3.58869e-03,9.99999e-01,9.99999e-01,9.99979e-01,3.58876e-03,9.99999e-01
4.786722099e-01,4.01085e-03,9.99999e-01,9.99999e-01,9.99991e-01,4.01088e-03,9.99999e-01
4.810655710e-01,4.47282e-03,9.99999e-01,9.99999e-01,9.99997e-01,4.47283e-03,9.99999e-01
4.834708988e-01,4.97712e-03,9.99999e-01,9.99999e-01,9.99975e-01,4.97724e-03,9.99999e-01
4.858882533e-01,5.52662e-03,9.99999e-01,9.99999e-01,9.99955e-01,5.52687e-03,9.99999e-01
4.883176946e-01,6.12427e-03,9.99999e-01,9.99999e-01,9.99962e-01,6.12450e-03,9.99999e-01
4.907592831e-01,6.77278e-03,9.99999e-01,9.99999e-01,9.99966e-01,6.77301e-03,9.99999e-01
4.932130795e-01,7.47513e-03,9.99999e-01,9.99999e-01,9.99975e-01,7.47531e-03,9.99999e-01
4.956791449e-01,8.23426e-03,9.99999e-01,9.99999e-01,9.99986e-01,8.23436e-03,9.99999e-01
4.981575406e-01,9.05262e-03,9.99999e-01,9.99999e-01,9.99936e-01,9.05319e-03,9.99999e-01
5.006483283e-01,9.93319e-03,9.99999e-01,9.99999e-01,9.99835e-01,9.93481e-03,9.99999e-01
5.031515699e-01,1.08733e-02,9.99999e-01,9.99999e-01,9.99174e-01,1.08823e-02,9.99999e-01
5.056673278e-01,1.18936e-02,9.99999e-01,9.99999e-01,9.99565e-01,1.18987e-02,9.99999e-01
5.081956644e-01,1.29800e-02,9.99999e-01,9.99999e-01,9.99451e-01,1.29872e-02,9.99999e-01
5.107366428e-01,1.41454e-02,9.99999e-01,9.99999e-01,9.99629e-01,1.41507e-02,9.99999e-01
5.132903260e-01,1.53891e-02,9.99999e-01,9.99999e-01,9.99788e-01,1.53923e-02,9.99999e-01
5.158567776e-01,1.67136e-02,9.99999e-01,9.99999e-01,9.99910e-01,1.67151e-02,9.99999e-01
5.184360615e-01,1.81214e-02,9.99999e-01,9.99999e-01,9.99963e-01,1.81220e-02,9.99999e-01
5.210282418e-01,1.96158e-02,9.99999e-01,9.99999e-01,9.99986e-01,1.96160e-02,9.99999e-01
5.236333830e-01,2.11989e-02,9.99999e-01,9.99999e-01,9.99945e-01,2.12000e-02,9.99999e-01
5.262515499e-01,2.28760e-02,9.99999e-01,9.99999e-01,9.99965e-01,2.28768e-02,9.99999e-01
5.288828077e-01,2.46484e-02,9.99999e-01,9.99999e-01,9.99968e-01,2.46491e-02,9.99999e-01
5.315272217e-01,2.65189e-02,9.99999e-01,9.99999e-01,9.99972e-01,2.65196e-02,9.99999e-01
5.341848578e-01,2.84904e-02,9.99999e-01,9.99999e-01,9.99981e-01,2.84909e-02,9.99999e-01
5.368557821e-01,3.05634e-02,9.99999e-01,9.99999e-01,9.99936e-01,3.05653e-02,9.99999e-01
5.395400610e-01,3.27379e-02,9.99999e-01,9.99999e-01,9.99772e-01,3.27454e-02,9.99999e-01
5.422377613e-01,3.50230e-02,9.99999e-01,9.99999e-01,9.99708e-01,3.50332e-02,9.99999e-01
5.449489501e-01,3.74206e-02,9.99999e-01,9.99999e-01,9.99727e-01,3.74308e-02,9.99999e-01
5.476736949e-01,3.99308e-02,9.99999e-01,9.99999e-01,9.99760e-01,3.99403e-02,9.99999e-01
5.504120634e-01,4.25561e-02,9.99999e-01,9.99999e-01,9.99825e-01,4.25635e-02,9.99999e-01
5.531641237e-01,4.52980e-02,9.99999e-01,9.99999e-01,9.99912e-01,4.53020e-02,9.99999e-01
5.559299443e-01,4.81553e-02,9.99999e-01,9.99999e-01,9.99957e-01,4.81573e-02,9.99999e-01
5.587095940e-01,5.11295e-02,9.99999e-01,9.99999e-01,9.99972e-01,5.11308e-02,9.99999e-01
5.615031420e-01,5.42221e-02,9.99999e-01,9.99999e-01,9.99969e-01,5.42237e-02,9.99999e-01
5.643106577e-01,5.74351e-02,9.99999e-01,9.99999e-01,9.99965e-01,5.74371e-02,9.99999e-01
5.671322110e-01,6.07466e-02,9.99999e-01,9.99999e-01,9.99586e-01,6.07717e-02,9.99999e-01
5.699678720e-01,6.42006e-02,9.99999e-01,9.99999e-01,9.99568e-01,6.42283e-02,9.99999e-01
5.728177114e-01,6.77767e-02,9.99999e-01,9.99999e-01,9.99547e-01,6.78073e-02,9.99999e-01
5.756818000e-01,7.14796e-02,9.99999e-01,9.99999e-01,9.99585e-01,7.15092e-02,9.99999e-01
5.785602090e-01,7.53069e-02,9.99999e-01,9.99999e-01,9.99639e-01,7.53340e-02,9.99999e-01
5.814530100e-01,7.92530e-02,9.99999e-01,9.99999e-01,9.99637e-01,7.92817e-02,9.99999e-01
5.843602750e-01,8.33160e-02,9.99999e-01,9.99999e-01,9.99565e-01,8.33522e-02,9.99999e-01
5.872820764e-01,8.72177e-02,9.99999e-01,9.99999e-01,9.96260e-01,8.75451e-02,9.99999e-01
5.902184868e-01,9.14462e-02,9.99999e-01,9.99999e-01,9.95497e-01,9.18598e-02,9.99999e-01
5.931695792e-01,9.59885e-02,9.99999e-01,9.99999e-01,9.96811e-01,9.62955e-02,9.99999e-01
5.961354271e-01,1.00500e-01,9.99999e-01,9.99999e-01,9.96510e-01,1.00852e-01,9.99999e-01
5.991161043e-01,1.05258e-01,9.99999e-01,9.99999e-01,9.97456e-01,1.05527e-01,9.99999e-01
6.021116848e-01,1.10161e-01,9.99999e-01,9.99999e-01,9.98557e-01,1.10320e-01,9.99999e-01
6.051222432e-01,1.15145e-01,9.99999e-01,9.99999e-01,9.99269e-01,1.15229e-01,9.99999e-01
6.081478544e-01,1.20216e-01,9.99999e-01,9.99999e-01,9.99684e-01,1.20254e-01,9.99999e-01
6.111885937e-01,1.25375e-01,9.99999e-01,9.99999e-01,9.99866e-01,1.25392e-01,9.99999e-01
6.142445367e-01,1.30634e-01,9.99999e-01,9.99999e-01,9.99940e-01,1.30642e-01,9.99999e-01
6.173157594e-01,1.35996e-01,9.99999e-01,9.99999e-01,9.99966e-01,1.36001e-01,9.99999e-01
6.204023382e-01,1.41463e-01,9.99999e-01,9.99999e-01,9.99971e-01,1.41467e-01,9.99999e-01
6.235043498e-01,1.47021e-01,9.99999e-01,9.99999e-01,9.99875e-01,1.47039e-01,9.99999e-01
6.266218716e-01,1.52614e-01,9.99999e-01,9.99999e-01,9.99350e-01,1.52714e-01,9.99999e-01
6.297549810e-01,1.58451e-01,9.99999e-01,9.99999e-01,9.99761e-01,1.58489e-01,9.99999e-01
6.329037559e-01,1.64284e-01,9.99999e-01,9.99999e-01,9.99529e-01,1.64361e-01,9.99999e-01
6.360682746e-01,1.70261e-01,9.99999e-01,9.99999e-01,9.99598e-01,1.70329e-01,9.99999e-01
6.392486160e-01,1.76298e-01,9.99999e-01,9.99999e-01,9.99480e-01,1.76390e-01,9.99999e-01
6.424448591e-01,1.82412e-01,9.99999e-01,9.99999e-01,9.99300e-01,1.82540e-01,9.99999e-01
6.456570834e-01,1.88164e-01,9.99999e-01,9.99999e-01,9.96757e-01,1.88776e-01,9.99999e-01
6.488853688e-01,1.94637e-01,9.99999e-01,9.99999e-01,9.97642e-01,1.95097e-01,9.99999e-01
6.521297956e-01,2.01013e-01,9.99999e-01,9.99999e-01,9.97597e-01,2.01497e-01,9.99999e-01
6.553904446e-01,2.07476e-01,9.99999e-01,9.99999e-01,9.97601e-01,2.07975e-01,9.99999e-01
6.586673968e-01,2.14088e-01,9.99999e-01,9.99999e-01,9.97951e-01,2.14527e-01,9.99999e-01
6.619607338e-01,2.20898e-01,9.99999e-01,9.99999e-01,9.98858e-01,2.21150e-01,9.99999e-01
6.652705375e-01,2.27685e-01,9.99999e-01,9.99999e-01,9.99314e-01,2.27841e-01,9.99999e-01
6.685968902e-01,2.34527e-01,9.99999e-01,9.99999e-01,9.99708e-01,2.34595e-01,9.99999e-01
6.719398746e-01,2.41376e-01,9.99999e-01,9.99999e-01,9.99852e-01,2.41411e-01,9.99999e-01
6.752995740e-01,2.48265e-01,9.99999e-01,9.99999e-01,9.99921e-01,2.48284e-01,9.99999e-01
6.786760719e-01,2.55182e-01,9.99999e-01,9.99999e-01,9.99883e-01,2.55212e-01,9.99999e-01
6.820694522e-01,2.62138e-01,9.99999e-01,9.99999e-01,9.99801e-01,2.62190e-01,9.99999e-01
6.854797995e-01,2.69146e-01,9.99999e-01,9.99999e-01,9.99743e-01,2.69215e-01,9.99999e-01
6.889071985e-01,2.76112e-01,9.99999e-01,9.99999e-01,9.99374e-01,2.76284e-01,9.99999e-01
6.923517345e-01,2.80529e-01,9.99999e-01,9.99999e-01,9.89888e-01,2.83394e-01,9.99999e-01
6.958134932e-01,2.89032e-01,9.99999e-01,9.99999e-01,9.94804e-01,2.90541e-01,9.99999e-01
6.992925606e-01,2.96232e-01,9.99999e-01,9.99999e-01,9.94995e-01,2.97722e-01,9.99999e-01
7.027890234e-01,3.03060e-01,9.99999e-01,9.99999e-01,9.93857e-01,3.04933e-01,9.99999e-01
7.063029686e-01,3.10557e-01,9.99999e-01,9.99999e-01,9.94830e-01,3.12171e-01,9.99999e-01
7.098344834e-01,3.17848e-01,9.99999e-01,9.99999e-01,9.95040e-01,3.19433e-01,9.99999e-01
7.133836558e-01,3.24539e-01,9.99999e-01,9.99999e-01,9.93337e-01,3.26715e-01,9.99999e-01
7.169505741e-01,3.16569e-01,9.99999e-01,9.99999e-01,9.47770e-01,3.34015e-01,9.99998e-01
7.205353270e-01,3.32598e-01,9.99999e-01,9.99999e-01,9.74422e-01,3.41328e-01,9.99998e-01
7.241380036e-01,3.37245e-01,9.99999e-01,9.99999e-01,9.67281e-01,3.48653e-01,9.99998e-01
7.277586936e-01,3.45465e-01,9.99999e-01,9.99999e-01,9.70447e-01,3.55985e-01,9.99998e-01
7.313974871e-01,3.51966e-01,9.99999e-01,9.99999e-01,9.68743e-01,3.63323e-01,9.99999e-01
7.350544745e-01,3.64283e-01,9.99999e-01,9.99999e-01,9.82791e-01,3.70662e-01,9.99999e-01
7.387297469e-01,3.73206e-01,9.99999e-01,9.99999e-01,9.87318e-01,3.78000e-01,9.99999e-01
7.424233956e-01,3.82940e-01,9.99999e-01,9.99999e-01,9.93786e-01,3.85334e-01,9.99999e-01
7.461355126e-01,3.91180e-01,9.99999e-01,9.99999e-01,9.96227e-01,3.92661e-01,9.99999e-01
7.498661902e-01,3.99277e-01,9.99999e-01,9.99999e-01,9.98245e-01,3.99979e-01,9.99999e-01
7.536155211e-01,4.06933e-01,9.99999e-01,9.99999e-01,9.99137e-01,4.07284e-01,9.99999e-01
7.573835987e-01,4.14391e-01,9.99999e-01,9.99999e-01,9.99555e-01,4.14575e-01,9.99999e-01
7.611705167e-01,4.21732e-01,9.99999e-01,9.99999e-01,9.99723e-01,4.21848e-01,9.99999e-01
7.649763693e-01,4.29028e-01,9.99999e-01,9.99999e-01,9.99826e-01,4.29102e-01,9.99999e-01
7.688012511e-01,4.36281e-01,9.99999e-01,9.99999e-01,9.99878e-01,4.36333e-01,9.99999e-01
7.726452574e-01,4.43496e-01,9.99999e-01,9.99999e-01,9.99900e-01,4.43540e-01,9.99999e-01
7.765084837e-01,4.50656e-01,9.99999e-01,9.99999e-01,9.99857e-01,4.50720e-01,9.99999e-01
7.803910261e-01,4.40452e-01,9.99999e-01,9.62525e-01,9.99386e-01,4.57871e-01,9.99999e-01
7.842929812e-01,3.93857e-01,9.99999e-01,8.48743e-01,9.97859e-01,4.64991e-01,9.99999e-01
7.882144461e-01,3.94095e-01,9.99999e-01,8.38327e-01,9.95618e-01,4.72077e-01,9.99999e-01
7.921555184e-01,4.31163e-01,9.99999e-01,9.01995e-01,9.97603e-01,4.79129e-01,9.99999e-01
7.961162960e-01,4.51943e-01,9.99999e-01,9.33594e-01,9.95735e-01,4.86143e-01,9.99999e-01
8.000968774e-01,4.72742e-01,9.99999e-01,9.63389e-01,9.95094e-01,4.93118e-01,9.99999e-01
8.040973618e-01,4.88108e-01,9.99999e-01,9.80920e-01,9.95088e-01,5.00053e-01,9.99999e-01
8.081178486e-01,4.96905e-01,9.99999e-01,9.91171e-01,9.88907e-01,5.06945e-01,9.99999e-01
8.121584379e-01,4.89140e-01,9.99999e-01,9.97284e-01,9.54580e-01,5.13794e-01,9.99998e-01
8.162192301e-01,4.92531e-01,9.99999e-01,9.99399e-01,9.46645e-01,5.20597e-01,9.99998e-01
8.203003262e-01,5.12972e-01,9.99999e-01,9.99991e-01,9.72738e-01,5.27353e-01,9.99998e-01
8.244018279e-01,5.14149e-01,9.99999e-01,9.99999e-01,9.62716e-01,5.34061e-01,9.99998e-01
8.285238370e-01,5.23250e-01,9.99999e-01,9.99999e-01,9.67694e-01,5.40719e-01,9.99998e-01
8.326664562e-01,5.29501e-01,9.99999e-01,9.99999e-01,9.67434e-01,5.47326e-01,9.99999e-01
8.368297885e-01,5.40958e-01,9.99999e-01,9.99999e-01,9.76668e-01,5.53880e-01,9.99999e-01
8.410139374e-01,5.52583e-01,9.99999e-01,9.99999e-01,9.86081e-01,5.60382e-01,9.99999e-01
8.452190071e-01,5.62952e-01,9.99999e-01,9.99999e-01,9.93159e-01,5.66829e-01,9.99999e-01
8.494451021e-01,5.70938e-01,9.99999e-01,9.99999e-01,9.96017e-01,5.73221e-01,9.99999e-01
8.536923276e-01,5.78194e-01,9.99999e-01,9.99999e-01,9.97648e-01,5.79557e-01,9.99999e-01
8.579607893e-01,5.84985e-01,9.99999e-01,9.99999e-01,9.98548e-01,5.85835e-01,9.99999e-01
8.622505932e-01,5.91510e-01,9.99999e-01,9.99999e-01,9.99079e-01,5.92055e-01,9.99999e-01
8.665618462e-01,5.49818e-01,9.99999e-01,9.19597e-01,9.99428e-01,5.98217e-01,9.99999e-01
8.708946554e-01,3.97872e-01,9.99999e-01,6.58795e-01,9.99345e-01,6.04319e-01,9.99999e-01
8.752491287e-01,4.35853e-01,9.99999e-01,7.14695e-01,9.99124e-01,6.10361e-01,9.99999e-01
8.796253743e-01,5.11824e-01,9.99999e-01,8.31399e-01,9.98785e-01,6.16342e-01,9.99999e-01
8.840235012e-01,5.64625e-01,9.99999e-01,9.08614e-01,9.98613e-01,6.22262e-01,9.99999e-01
8.884436187e-01,6.01854e-01,9.99999e-01,9.63053e-01,9.94887e-01,6.28121e-01,9.99999e-01
8.928858368e-01,5.91788e-01,9.99999e-01,9.84840e-01,9.47775e-01,6.33917e-01,9.99998e-01
8.973502660e-01,5.79976e-01,9.99999e-01,9.96312e-01,9.09990e-01,6.39650e-01,9.99998e-01
9.018370173e-01,6.14891e-01,9.99999e-01,9.99593e-01,9.53219e-01,6.45321e-01,9.99998e-01
9.063462024e-01,6.17378e-01,9.99999e-01,9.89376e-01,9.58297e-01,6.50928e-01,9.99997e-01
9.108779334e-01,5.99949e-01,9.99999e-01,9.76145e-01,9.35932e-01,6.56472e-01,9.99997e-01
9.154323231e-01,6.10686e-01,9.99999e-01,9.94391e-01,9.27637e-01,6.61952e-01,9.99997e-01
9.200094847e-01,5.81173e-01,9.99999e-01,9.20457e-01,9.42962e-01,6.67369e-01,9.99997e-01
9.246095321e-01,5.45843e-01,9.99999e-01,8.88478e-01,9.11127e-01,6.72721e-01,9.99995e-01
9.292325798e-01,3.37651e-01,9.99999e-01,9.10952e-01,5.40904e-01,6.78009e-01,9.99990e-01
9.338787427e-01,2.87277e-01,9.99999e-01,9.14324e-01,4.55273e-01,6.83234e-01,9.99988e-01
9.385481364e-01,4.71137e-01,9.99999e-01,9.36255e-01,7.28028e-01,6.88394e-01,9.99987e-01
9.432408771e-01,4.28895e-01,9.99999e-01,9.60545e-01,6.42330e-01,6.93490e-01,9.99986e-01
9.479570815e-01,3.72870e-01,9.99999e-01,9.79531e-01,5.44292e-01,6.98522e-01,9.99988e-01
9.526968669e-01,4.41834e-01,9.99999e-01,9.90094e-01,6.33756e-01,7.03489e-01,9.99990e-01
9.574603512e-01,4.62564e-01,9.99999e-01,9.95755e-01,6.55563e-01,7.08394e-01,9.99993e-01
9.622476530e-01,5.05247e-01,9.99999e-01,9.98675e-01,7.09270e-01,7.13234e-01,9.99995e-01
9.670588912e-01,5.88603e-01,9.99999e-01,9.99603e-01,8.20077e-01,7.18011e-01,9.99996e-01
9.718941857e-01,6.38215e-01,9.99999e-01,9.99972e-01,8.83091e-01,7.22725e-01,9.99997e-01
9.767536566e-01,6.56032e-01,9.99999e-01,9.99999e-01,9.01917e-01,7.27375e-01,9.99998e-01
9.816374249e-01,6.78136e-01,9.99999e-01,9.99999e-01,9.26462e-01,7.31963e-01,9.99998e-01
9.865456120e-01,7.02175e-01,9.99999e-01,9.99999e-01,9.53409e-01,7.36488e-01,9.99999e-01
9.914783401e-01,7.19413e-01,9.99999e-01,9.99999e-01,9.70931e-01,7.40951e-01,9.99999e-01
9.964357318e-01,7.33478e-01,9.99999e-01,9.99999e-01,9.84069e-01,7.45352e-01,9.99999e-01
1.001417910e+00,7.42514e-01,9.99999e-01,9.99999e-01,9.90425e-01,7.49692e-01,9.99999e-01
1.006425000e+00,7.49842e-01,9.99999e-01,9.99999e-01,9.94524e-01,7.53970e-01,9.99999e-01
1.011457125e+00,7.55613e-01,9.99999e-01,9.99999e-01,9.96604e-01,7.58187e-01,9.99999e-01
1.016514411e+00,7.60585e-01,9.99999e-01,9.99999e-01,9.97691e-01,7.62345e-01,9.99999e-01
1.021596983e+00,7.64984e-01,9.99999e-01,9.99937e-01,9.98159e-01,7.66442e-01,9.99999e-01
1.026704968e+00,7.66169e-01,9.99999e-01,9.95832e-01,9.98563e-01,7.70479e-01,9.99999e-01
1.031838492e+00,7.35462e-01,9.99999e-01,9.50604e-01,9.98957e-01,7.74458e-01,9.99999e-01
1.036997685e+00,1.08489e-01,9.99999e-01,1.39446e-01,9.99379e-01,7.78377e-01,9.99999e-01
1.042182673e+00,7.87942e-02,9.99999e-01,1.00795e-01,9.99258e-01,7.82239e-01,9.99999e-01
1.047393587e+00,9.65717e-02,9.99999e-01,1.22964e-01,9.99018e-01,7.86043e-01,9.99999e-01
1.052630555e+00,2.04667e-03,9.99999e-01,2.59394e-03,9.98651e-01,7.89790e-01,9.99999e-01
1.057893707e+00,5.51938e-03,9.99999e-01,6.96631e-03,9.97747e-01,7.93480e-01,9.99999e-01
1.063183176e+00,2.01981e-02,9.99999e-01,2.54053e-02,9.96298e-01,7.97114e-01,9.99999e-01
1.068499092e+00,6.07854e-02,9.99999e-01,7.63077e-02,9.93813e-01,8.00692e-01,9.99999e-01
1.073841587e+00,1.57479e-01,9.99999e-01,1.97024e-01,9.92752e-01,8.04215e-01,9.99999e-01
1.079210795e+00,2.86237e-01,9.99999e-01,3.57386e-01,9.90742e-01,8.07684e-01,9.99999e-01
1.084606849e+00,4.54071e-01,9.99999e-01,5.67375e-01,9.86000e-01,8.11098e-01,9.99999e-01
1.090029883e+00,5.94781e-01,9.99999e-01,7.44830e-01,9.79866e-01,8.14460e-01,9.99998e-01
1.095480033e+00,6.69708e-01,9.99999e-01,8.64996e-01,9.46149e-01,8.17768e-01,9.99998e-01
1.100957433e+00,6.65702e-01,9.99999e-01,9.32478e-01,8.68842e-01,8.21024e-01,9.99997e-01
1.106462220e+00,5.61231e-01,9.99999e-01,9.71534e-01,7.00075e-01,8.24228e-01,9.99994e-01
1.111994531e+00,3.89274e-01,9.99999e-01,9.89353e-01,4.75162e-01,8.27382e-01,9.99989e-01
1.117554504e+00,2.50187e-01,9.99999e-01,9.97400e-01,3.01887e-01,8.30484e-01,9.99984e-01
1.123142276e+00,3.49936e-01,9.99999e-01,9.99829e-01,4.19860e-01,8.33537e-01,9.99982e-01
1.128757988e+00,4.76037e-01,9.99999e-01,9.99999e-01,5.69064e-01,8.36540e-01,9.99980e-01
1.134401778e+00,2.64342e-01,9.99999e-01,9.99999e-01,3.14888e-01,8.39494e-01,9.99978e-01
1.140073787e+00,6.00098e-01,9.99999e-01,9.99999e-01,7.12379e-01,8.42400e-01,9.99982e-01
1.145774156e+00,4.19768e-01,9.99999e-01,9.99999e-01,4.96622e-01,8.45259e-01,9.99984e-01
1.151503026e+00,3.89564e-01,9.99999e-01,9.99999e-01,4.59359e-01,8.48070e-01,9.99986e-01
1.157260541e+00,4.41605e-01,9.99999e-01,9.99999e-01,5.19030e-01,8.50835e-01,9.99990e-01
1.163046844e+00,5.25616e-01,9.99999e-01,9.99999e-01,6.15799e-01,8.53554e-01,9.99993e-01
1.168862078e+00,6.10697e-01,9.99999e-01,9.99999e-01,7.13242e-01,8.56228e-01,9.99996e-01
1.174706389e+00,6.97129e-01,9.99999e-01,9.99999e-01,8.11694e-01,8.58857e-01,9.99997e-01
1.180579921e+00,7.58651e-01,9.99999e-01,9.99999e-01,8.80675e-01,8.61443e-01,9.99998e-01
1.186482820e+00,8.04064e-01,9.99999e-01,9.99990e-01,9.30654e-01,8.63984e-01,9.99998e-01
1.192415234e+00,8.18709e-01,9.99999e-01,9.85180e-01,9.58903e-01,8.66483e-01,9.99998e-01
1.198377311e+00,4.71061e-01,9.99999e-01,5.58379e-01,9.65211e-01,8.68939e-01,9.99998e-01
1.204369197e+00,4.49866e-12,9.99999e-01,5.26363e-12,9.67074e-01,8.71354e-01,9.99998e-01
1.210391043e+00,1.99751e-44,9.99999e-01,2.32719e-44,9.68493e-01,8.73727e-01,9.99999e-01
1.216442998e+00,1.21864e-38,9.99999e-01,1.41467e-38,9.73173e-01,8.76060e-01,9.99999e-01
1.222525213e+00,4.43530e-38,9.99999e-01,5.10497e-38,9.79041e-01,8.78352e-01,9.99999e-01
1.228637839e+00,1.68818e-29,9.99999e-01,1.93662e-29,9.85395e-01,8.80606e-01,9.99999e-01
