#,Wave/freq,Total,O2,CO2,H2O,Rayleigh,CIA
4.000000000e-01,3.15660e-11,9.99999e-01,9.99999e-01,9.99952e-01,3.15675e-11,9.99999e-01
4.020000000e-01,5.09160e-11,9.99999e-01,9.99999e-01,9.99970e-01,5.09175e-11,9.99999e-01
4.040100000e-01,8.13161e-11,9.99999e-01,9.99999e-01,9.99987e-01,8.13171e-11,9.99999e-01
4.060300500e-01,1.28671e-10,9.99999e-01,9.99999e-01,9.99996e-01,1.28671e-10,9.99999e-01
4.080602003e-01,2.01764e-10,9.99999e-01,9.99999e-01,9.99998e-01,2.01764e-10,9.99999e-01
4.101005013e-01,3.13579e-10,9.99999e-01,9.99999e-01,9.99999e-01,3.13579e-10,9.99999e-01
4.121510038e-01,4.83133e-10,9.99999e-01,9.99999e-01,9.99997e-01,4.83134e-10,9.99999e-01
4.142117588e-01,7.38031e-10,9.99999e-01,9.99999e-01,9.99986e-01,7.38040e-10,9.99999e-01
4.162828176e-01,1.11798e-09,9.99999e-01,9.99999e-01,9.99940e-01,1.11804e-09,9.99999e-01
4.183642317e-01,1.67980e-09,9.99999e-01,9.99999e-01,9.99964e-01,1.67986e-09,9.99999e-01
4.204560528e-01,2.50372e-09,9.99999e-01,9.99999e-01,9.99978e-01,2.50378e-09,9.99999e-01
4.225583331e-01,3.70247e-09,9.99999e-01,9.99999e-01,9.99991e-01,3.70250e-09,9.99999e-01
4.246711247e-01,5.43294e-09,9.99999e-01,9.99999e-01,9.99993e-01,5.43298e-09,9.99999e-01
4.267944804e-01,7.91202e-09,9.99999e-01,9.99999e-01,9.99990e-01,7.91209e-09,9.99999e-01
4.289284528e-01,1.14371e-08,9.99999e-01,9.99999e-01,9.99992e-01,1.14372e-08,9.99999e-01
4.310730950e-01,1.64130e-08,9.99999e-01,9.99999e-01,9.99996e-01,1.64130e-08,9.99999e-01
4.332284605e-01,2.33861e-08,9.99999e-01,9.99999e-01,9.99998e-01,2.33861e-08,9.99999e-01
4.353946028e-01,3.30894e-08,9.99999e-01,9.99999e-01,9.99999e-01,3.30894e-08,9.99999e-01
4.375715758e-01,4.64988e-08,9.99999e-01,9.99999e-01,9.99993e-01,4.64990e-08,9.99999e-01
4.397594337e-01,6.49020e-08,9.99999e-01,9.99999e-01,9.99947e-01,6.49053e-08,9.99999e-01
4.419582309e-01,8.99790e-08,9.99999e-01,9.99999e-01,9.99736e-01,9.00027e-08,9.99999e-01
4.441680220e-01,1.23976e-07,9.99999e-01,9.99999e-01,9.99796e-01,1.24001e-07,9.99999e-01
4.463888621e-01,1.69729e-07,9.99999e-01,9.99999e-01,9.99787e-01,1.69765e-07,9.99999e-01
4.486208064e-01,2.30950e-07,9.99999e-01,9.99999e-01,9.99867e-01,2.30981e-07,9.99999e-01
4.508639105e-01,3.12345e-07,9.99999e-01,9.99999e-01,9.99937e-01,3.12364e-07,9.99999e-01
4.531182300e-01,4.19901e-07,9.99999e-01,9.99999e-01,9.99975e-01,4.19912e-07,9.99999e-01
4.553838212e-01,5.61189e-07,9.99999e-01,9.99999e-01,9.99982e-01,5.61198e-07,9.99999e-01
4.576607403e-01,7.45733e-07,9.99999e-01,9.99999e-01,9.99991e-01,7.45739e-07,9.99999e-01
4.599490440e-01,9.85408e-07,9.99999e-01,9.99999e-01,9.99994e-01,9.85413e-07,9.99999e-01
4.622487892e-01,1.29497e-06,9.99999e-01,9.99999e-01,9.99998e-01,1.29497e-06,9.99999e-01
4.645600332e-01,1.69260e-06,9.99999e-01,9.99999e-01,9.99995e-01,1.69261e-06,9.99999e-01
4.668828333e-01,2.20054e-06,9.99999e-01,9.99999e-01,9.99936e-01,2.20068e-06,9.99999e-01
4.692172475e-01,2.84608e-06,9.99999e-01,9.99999e-01,9.99866e-01,2.84646e-06,9.99999e-01
4.715633337e-01,3.66276e-06,9.99999e-01,9.99999e-01,9.99912e-01,3.66308e-06,9.99999e-01
4.739211504e-01,4.69017e-06,9.99999e-01,9.99999e-01,9.99916e-01,4.69056e-06,9.99999e-01
4.762907561e-01,5.97671e-06,9.99999e-01,9.99999e-01,9.99956e-01,5.97697e-06,9.99999e-01
4.786722099e-01,7.57968e-06,9.99999e-01,9.99999e-01,9.99981e-01,7.57981e-06,9.99999e-01
4.810655710e-01,9.56743e-06,9.99999e-01,9.99999e-01,9.99994e-01,9.56748e-06,9.99999e-01
4.834708988e-01,1.20203e-05,9.99999e-01,9.99999e-01,9.99947e-01,1.20210e-05,9.99999e-01
4.858882533e-01,1.50343e-05,9.99999e-01,9.99999e-01,9.99905e-01,1.50357e-05,9.99999e-01
4.883176946e-01,1.87220e-05,9.99999e-01,9.99999e-01,9.99920e-01,1.87235e-05,9.99999e-01
4.907592831e-01,2.32133e-05,9.99999e-01,9.99999e-01,9.99928e-01,2.32150e-05,9.99999e-01
4.932130795e-01,2.86605e-05,9.99999e-01,9.99999e-01,9.99948e-01,2.86620e-05,9.99999e-01
4.956791449e-01,3.52390e-05,9.99999e-01,9.99999e-01,9.99972e-01,3.52400e-05,9.99999e-01
4.981575406e-01,4.31454e-05,9.99999e-01,9.99999e-01,9.99865e-01,4.31512e-05,9.99999e-01
5.006483283e-01,5.26091e-05,9.99999e-01,9.99999e-01,9.99650e-01,5.26275e-05,9.99999e-01
5.031515699e-01,6.38210e-05,9.99999e-01,9.99999e-01,9.98239e-01,6.39336e-05,9.99999e-01
5.056673278e-01,7.72989e-05,9.99999e-01,9.99999e-01,9.99071e-01,7.73707e-05,9.99999e-01
5.081956644e-01,9.31706e-05,9.99999e-01,9.99999e-01,9.98829e-01,9.32797e-05,9.99999e-01
5.107366428e-01,1.11957e-04,9.99999e-01,9.99999e-01,9.99209e-01,1.12045e-04,9.99999e-01
5.132903260e-01,1.34039e-04,9.99999e-01,9.99999e-01,9.99548e-01,1.34100e-04,9.99999e-01
5.158567776e-01,1.59896e-04,9.99999e-01,9.99999e-01,9.99809e-01,1.59927e-04,9.99999e-01
5.184360615e-01,1.90051e-04,9.99999e-01,9.99999e-01,9.99923e-01,1.90065e-04,9.99999e-01
5.210282418e-01,2.25108e-04,9.99999e-01,9.99999e-01,9.99970e-01,2.25115e-04,9.99999e-01
5.236333830e-01,2.65707e-04,9.99999e-01,9.99999e-01,9.99884e-01,2.65737e-04,9.99999e-01
5.262515499e-01,3.12642e-04,9.99999e-01,9.99999e-01,9.99927e-01,3.12665e-04,9.99999e-01
5.288828077e-01,3.66675e-04,9.99999e-01,9.99999e-01,9.99933e-01,3.66699e-04,9.99999e-01
5.315272217e-01,4.28695e-04,9.99999e-01,9.99999e-01,9.99941e-01,4.28719e-04,9.99999e-01
5.341848578e-01,4.99666e-04,9.99999e-01,9.99999e-01,9.99961e-01,4.99684e-04,9.99999e-01
5.368557821e-01,5.80559e-04,9.99999e-01,9.99999e-01,9.99865e-01,5.80637e-04,9.99999e-01
5.395400610e-01,6.72381e-04,9.99999e-01,9.99999e-01,9.99515e-01,6.72707e-04,9.99999e-01
5.422377613e-01,7.76630e-04,9.99999e-01,9.99999e-01,9.99377e-01,7.77113e-04,9.99999e-01
5.449489501e-01,8.94649e-04,9.99999e-01,9.99999e-01,9.99419e-01,8.95168e-04,9.99999e-01
5.476736949e-01,1.02776e-03,9.99999e-01,9.99999e-01,9.99487e-01,1.02828e-03,9.99999e-01
5.504120634e-01,1.17752e-03,9.99999e-01,9.99999e-01,9.99627e-01,1.17796e-03,9.99999e-01
5.531641237e-01,1.34556e-03,9.99999e-01,9.99999e-01,9.99812e-01,1.34581e-03,9.99999e-01
5.559299443e-01,1.53339e-03,9.99999e-01,9.99999e-01,9.99909e-01,1.53353e-03,9.99999e-01
5.587095940e-01,1.74284e-03,9.99999e-01,9.99999e-01,9.99942e-01,1.74294e-03,9.99999e-01
5.615031420e-01,1.97581e-03,9.99999e-01,9.99999e-01,9.99936e-01,1.97594e-03,9.99999e-01
5.643106577e-01,2.23438e-03,9.99999e-01,9.99999e-01,9.99927e-01,2.23454e-03,9.99999e-01
5.671322110e-01,2.51865e-03,9.99999e-01,9.99999e-01,9.99121e-01,2.52086e-03,9.99999e-01
5.699678720e-01,2.83449e-03,9.99999e-01,9.99999e-01,9.99078e-01,2.83710e-03,9.99999e-01
5.728177114e-01,3.18249e-03,9.99999e-01,9.99999e-01,9.99035e-01,3.18557e-03,9.99999e-01
5.756818000e-01,3.56550e-03,9.99999e-01,9.99999e-01,9.99115e-01,3.56866e-03,9.99999e-01
5.785602090e-01,3.98579e-03,9.99999e-01,9.99999e-01,9.99229e-01,3.98886e-03,9.99999e-01
5.814530100e-01,4.44531e-03,9.99999e-01,9.99999e-01,9.99225e-01,4.44875e-03,9.99999e-01
5.843602750e-01,4.94640e-03,9.99999e-01,9.99999e-01,9.99073e-01,4.95098e-03,9.99999e-01
5.872820764e-01,5.45455e-03,9.99999e-01,9.99999e-01,9.92046e-01,5.49828e-03,9.99999e-01
5.902184868e-01,6.03499e-03,9.99999e-01,9.99999e-01,9.90405e-01,6.09344e-03,9.99999e-01
5.931695792e-01,6.69356e-03,9.99999e-01,9.99999e-01,9.93207e-01,6.73934e-03,9.99999e-01
5.961354271e-01,7.38355e-03,9.99999e-01,9.99999e-01,9.92561e-01,7.43888e-03,9.99999e-01
5.991161043e-01,8.15055e-03,9.99999e-01,9.99999e-01,9.94572e-01,8.19503e-03,9.99999e-01
6.021116848e-01,8.98303e-03,9.99999e-01,9.99999e-01,9.96918e-01,9.01079e-03,9.99999e-01
6.051222432e-01,9.87379e-03,9.99999e-01,9.99999e-01,9.98440e-01,9.88921e-03,9.99999e-01
6.081478544e-01,1.08260e-02,9.99999e-01,9.99999e-01,9.99326e-01,1.08333e-02,9.99999e-01
6.111885937e-01,1.18429e-02,9.99999e-01,9.99999e-01,9.99715e-01,1.18462e-02,9.99999e-01
6.142445367e-01,1.29293e-02,9.99999e-01,9.99999e-01,9.99872e-01,1.29310e-02,9.99999e-01
6.173157594e-01,1.40897e-02,9.99999e-01,9.99999e-01,9.99929e-01,1.40907e-02,9.99999e-01
6.204023382e-01,1.53274e-02,9.99999e-01,9.99999e-01,9.99940e-01,1.53283e-02,9.99999e-01
6.235043498e-01,1.66426e-02,9.99999e-01,9.99999e-01,9.99735e-01,1.66470e-02,9.99999e-01
6.266218716e-01,1.80246e-02,9.99999e-01,9.99999e-01,9.98613e-01,1.80497e-02,9.99999e-01
6.297549810e-01,1.95293e-02,9.99999e-01,9.99999e-01,9.99491e-01,1.95393e-02,9.99999e-01
6.329037559e-01,2.10975e-02,9.99999e-01,9.99999e-01,9.98996e-01,2.11187e-02,9.99999e-01
6.360682746e-01,2.27712e-02,9.99999e-01,9.99999e-01,9.99143e-01,2.27908e-02,9.99999e-01
6.392486160e-01,2.45310e-02,9.99999e-01,9.99999e-01,9.98890e-01,2.45582e-02,9.99999e-01
6.424448591e-01,2.63844e-02,9.99999e-01,9.99999e-01,9.98509e-01,2.64238e-02,9.99999e-01
6.456570834e-01,2.81940e-02,9.99999e-01,9.99999e-01,9.93100e-01,2.83899e-02,9.99999e-01
6.488853688e-01,3.03060e-02,9.99999e-01,9.99999e-01,9.94971e-01,3.04592e-02,9.99999e-01
6.521297956e-01,3.24666e-02,9.99999e-01,9.99999e-01,9.94875e-01,3.26339e-02,9.99999e-01
6.553904446e-01,3.47376e-02,9.99999e-01,9.99999e-01,9.94885e-01,3.49162e-02,9.99999e-01
6.586673968e-01,3.71452e-02,9.99999e-01,9.99999e-01,9.95628e-01,3.73083e-02,9.99999e-01
6.619607338e-01,3.97152e-02,9.99999e-01,9.99999e-01,9.97561e-01,3.98122e-02,9.99999e-01
6.652705375e-01,4.23675e-02,9.99999e-01,9.99999e-01,9.98535e-01,4.24296e-02,9.99999e-01
6.685968902e-01,4.51342e-02,9.99999e-01,9.99999e-01,9.99377e-01,4.51623e-02,9.99999e-01
6.719398746e-01,4.79967e-02,9.99999e-01,9.99999e-01,9.99684e-01,4.80118e-02,9.99999e-01
6.752995740e-01,5.09707e-02,9.99999e-01,9.99999e-01,9.99828e-01,5.09794e-02,9.99999e-01
6.786760719e-01,5.40529e-02,9.99999e-01,9.99999e-01,9.99752e-01,5.40663e-02,9.99999e-01
6.820694522e-01,5.72494e-02,9.99999e-01,9.99999e-01,9.99576e-01,5.72736e-02,9.99999e-01
6.854797995e-01,6.05691e-02,9.99999e-01,9.99999e-01,9.99453e-01,6.06021e-02,9.99999e-01
6.889071985e-01,6.39674e-02,9.99999e-01,9.99999e-01,9.98668e-01,6.40526e-02,9.99999e-01
6.923517345e-01,6.61771e-02,9.99999e-01,9.99999e-01,9.78581e-01,6.76255e-02,9.99999e-01
6.958134932e-01,7.05313e-02,9.99999e-01,9.99999e-01,9.88923e-01,7.13212e-02,9.99999e-01
6.992925606e-01,7.43406e-02,9.99999e-01,9.99999e-01,9.89361e-01,7.51399e-02,9.99999e-01
7.027890234e-01,7.80478e-02,9.99999e-01,9.99999e-01,9.86928e-01,7.90815e-02,9.99999e-01
7.063029686e-01,8.22306e-02,9.99999e-01,9.99999e-01,9.88992e-01,8.31459e-02,9.99999e-01
7.098344834e-01,8.64100e-02,9.99999e-01,9.99999e-01,9.89435e-01,8.73326e-02,9.99999e-01
7.133836558e-01,9.03465e-02,9.99999e-01,9.99999e-01,9.85871e-01,9.16412e-02,9.99998e-01
7.169505741e-01,8.57613e-02,9.99999e-01,9.99999e-01,8.92688e-01,9.60710e-02,9.99998e-01
7.205353270e-01,9.52205e-02,9.99999e-01,9.99999e-01,9.46329e-01,1.00621e-01,9.99998e-01
7.241380036e-01,9.81061e-02,9.99999e-01,9.99999e-01,9.31769e-01,1.05290e-01,9.99997e-01
7.277586936e-01,1.03281e-01,9.99999e-01,9.99999e-01,9.38259e-01,1.10077e-01,9.99998e-01
7.313974871e-01,1.07457e-01,9.99999e-01,9.99999e-01,9.34562e-01,1.14981e-01,9.99998e-01
7.350544745e-01,1.15638e-01,9.99999e-01,9.99999e-01,9.63652e-01,1.20000e-01,9.99998e-01
7.387297469e-01,1.21768e-01,9.99999e-01,9.99999e-01,9.73114e-01,1.25133e-01,9.99999e-01
7.424233956e-01,1.28651e-01,9.99999e-01,9.99999e-01,9.86766e-01,1.30377e-01,9.99999e-01
7.461355126e-01,1.34638e-01,9.99999e-01,9.99999e-01,9.91954e-01,1.35730e-01,9.99999e-01
7.498661902e-01,1.40662e-01,9.99999e-01,9.99999e-01,9.96251e-01,1.41191e-01,9.99999e-01
7.536155211e-01,1.46488e-01,9.99999e-01,9.99999e-01,9.98157e-01,1.46758e-01,9.99999e-01
7.573835987e-01,1.52283e-01,9.99999e-01,9.99999e-01,9.99051e-01,1.52427e-01,9.99999e-01
7.611705167e-01,1.58104e-01,9.99999e-01,9.99999e-01,9.99410e-01,1.58198e-01,9.99999e-01
7.649763693e-01,1.64005e-01,9.99999e-01,9.99999e-01,9.99629e-01,1.64066e-01,9.99999e-01
7.688012511e-01,1.69985e-01,9.99999e-01,9.99999e-01,9.99741e-01,1.70029e-01,9.99999e-01
7.726452574e-01,1.76048e-01,9.99999e-01,9.99999e-01,9.99787e-01,1.76085e-01,9.99999e-01
7.765084837e-01,1.82175e-01,9.99999e-01,9.99999e-01,9.99697e-01,1.82230e-01,9.99999e-01
7.803910261e-01,1.74974e-01,9.99999e-01,9.29562e-01,9.98692e-01,1.88463e-01,9.99999e-01
7.842929812e-01,1.38226e-01,9.99999e-01,7.12589e-01,9.95441e-01,1.94779e-01,9.99999e-01
7.882144461e-01,1.39050e-01,9.99999e-01,6.97171e-01,9.90666e-01,2.01175e-01,9.99999e-01
7.921555184e-01,1.66172e-01,9.99999e-01,8.04157e-01,9.94885e-01,2.07650e-01,9.99999e-01
7.961162960e-01,1.83374e-01,9.99999e-01,8.63772e-01,9.90927e-01,2.14198e-01,9.99999e-01
8.000968774e-01,2.01818e-01,9.99999e-01,9.23543e-01,9.89551e-01,2.20817e-01,9.99999e-01
8.040973618e-01,2.16058e-01,9.99999e-01,9.59675e-01,9.89543e-01,2.27505e-01,9.99999e-01
8.081178486e-01,2.24482e-01,9.99999e-01,9.81233e-01,9.76528e-01,2.34256e-01,9.99998e-01
8.121584379e-01,2.17184e-01,9.99999e-01,9.94195e-01,9.06062e-01,2.41069e-01,9.99998e-01
8.162192301e-01,2.20418e-01,9.99999e-01,9.98715e-01,8.90096e-01,2.47939e-01,9.99997e-01
8.203003262e-01,2.40524e-01,9.99999e-01,9.99981e-01,9.43748e-01,2.54864e-01,9.99997e-01
8.244018279e-01,2.41797e-01,9.99999e-01,9.99999e-01,9.23453e-01,2.61840e-01,9.99997e-01
8.285238370e-01,2.50726e-01,9.99999e-01,9.99999e-01,9.32541e-01,2.68863e-01,9.99998e-01
8.326664562e-01,2.57171e-01,9.99999e-01,9.99999e-01,9.32014e-01,2.75930e-01,9.99998e-01
8.368297885e-01,2.69135e-01,9.99999e-01,9.99999e-01,9.50880e-01,2.83038e-01,9.99998e-01
8.410139374e-01,2.81627e-01,9.99999e-01,9.99999e-01,9.70513e-01,2.90183e-01,9.99999e-01
8.452190071e-01,2.93032e-01,9.99999e-01,9.99999e-01,9.85436e-01,2.97362e-01,9.99999e-01
8.494451021e-01,3.01986e-01,9.99999e-01,9.99999e-01,9.91510e-01,3.04572e-01,9.99999e-01
8.536923276e-01,3.10243e-01,9.99999e-01,9.99999e-01,9.94980e-01,3.11809e-01,9.99999e-01
8.579607893e-01,3.18081e-01,9.99999e-01,9.99999e-01,9.96901e-01,3.19069e-01,9.99999e-01
8.622505932e-01,3.25709e-01,9.99999e-01,9.99999e-01,9.98032e-01,3.26351e-01,9.99999e-01
8.665618462e-01,2.94069e-01,9.99999e-01,8.82382e-01,9.98780e-01,3.33649e-01,9.99999e-01
8.708946554e-01,1.46541e-01,9.99999e-01,4.30346e-01,9.98602e-01,3.40962e-01,9.99999e-01
8.752491287e-01,1.73749e-01,9.99999e-01,4.99746e-01,9.98131e-01,3.48287e-01,9.99999e-01
8.796253743e-01,2.40732e-01,9.99999e-01,6.78586e-01,9.97409e-01,3.55619e-01,9.99999e-01
8.840235012e-01,2.95275e-01,9.99999e-01,8.15859e-01,9.97043e-01,3.62956e-01,9.99999e-01
8.884436187e-01,3.38073e-01,9.99999e-01,9.22745e-01,9.89181e-01,3.70295e-01,9.99998e-01
8.928858368e-01,3.26516e-01,9.99999e-01,9.67882e-01,8.92746e-01,3.77633e-01,9.99997e-01
8.973502660e-01,3.13032e-01,9.99999e-01,9.92126e-01,8.19296e-01,3.84967e-01,9.99997e-01
9.018370173e-01,3.54196e-01,9.99999e-01,9.99130e-01,9.03616e-01,3.92295e-01,9.99996e-01
9.063462024e-01,3.57652e-01,9.99999e-01,9.77783e-01,9.13888e-01,3.99613e-01,9.99996e-01
9.108779334e-01,3.36461e-01,9.99999e-01,9.49802e-01,8.69333e-01,4.06920e-01,9.99995e-01
9.154323231e-01,3.49216e-01,9.99999e-01,9.88041e-01,8.52806e-01,4.14211e-01,9.99995e-01
9.200094847e-01,3.20489e-01,9.99999e-01,8.49806e-01,8.83088e-01,4.21485e-01,9.99994e-01
9.246095321e-01,2.77629e-01,9.99999e-01,7.77831e-01,8.25218e-01,4.28740e-01,9.99990e-01
9.292325798e-01,1.08378e-01,9.99999e-01,8.22367e-01,2.91495e-01,4.35972e-01,9.99980e-01
9.338787427e-01,7.82308e-02,9.99999e-01,8.27274e-01,2.06299e-01,4.43180e-01,9.99975e-01
9.385481364e-01,2.09366e-01,9.99999e-01,8.69257e-01,5.26566e-01,4.50362e-01,9.99974e-01
9.432408771e-01,1.77145e-01,9.99999e-01,9.17633e-01,4.18196e-01,4.57514e-01,9.99971e-01
9.479570815e-01,1.35073e-01,9.99999e-01,9.56786e-01,3.02493e-01,4.64635e-01,9.99975e-01
9.526968669e-01,1.85084e-01,9.99999e-01,9.78961e-01,3.99465e-01,4.71724e-01,9.99981e-01
9.574603512e-01,1.99251e-01,9.99999e-01,9.90948e-01,4.19453e-01,4.78777e-01,9.99985e-01
9.622476530e-01,2.37204e-01,9.99999e-01,9.97169e-01,4.89496e-01,4.85793e-01,9.99990e-01
9.670588912e-01,3.25253e-01,9.99999e-01,9.99152e-01,6.60551e-01,4.92771e-01,9.99993e-01
9.718941857e-01,3.83915e-01,9.99999e-01,9.99940e-01,7.68319e-01,4.99707e-01,9.99996e-01
9.767536566e-01,4.06950e-01,9.99999e-01,9.99999e-01,8.03295e-01,5.06602e-01,9.99997e-01
9.816374249e-01,4.36401e-01,9.99999e-01,9.99999e-01,8.49935e-01,5.13453e-01,9.99997e-01
9.865456120e-01,4.69926e-01,9.99999e-01,9.99999e-01,9.03257e-01,5.20258e-01,9.99998e-01
9.914783401e-01,4.94845e-01,9.99999e-01,9.99999e-01,9.38955e-01,5.27016e-01,9.99999e-01
9.964357318e-01,5.15731e-01,9.99999e-01,9.99999e-01,9.66283e-01,5.33726e-01,9.99999e-01
1.001417910e+00,5.29392e-01,9.99999e-01,9.99999e-01,9.79653e-01,5.40387e-01,9.99999e-01
1.006425000e+00,5.40618e-01,9.99999e-01,9.99999e-01,9.88338e-01,5.46997e-01,9.99999e-01
1.011457125e+00,5.49545e-01,9.99999e-01,9.99999e-01,9.92756e-01,5.53554e-01,9.99999e-01
1.016514411e+00,5.57300e-01,9.99999e-01,9.99999e-01,9.95073e-01,5.60058e-01,9.99999e-01
1.021596983e+00,5.64211e-01,9.99999e-01,9.99871e-01,9.96071e-01,5.66508e-01,9.99999e-01
1.026704968e+00,5.66122e-01,9.99999e-01,9.91193e-01,9.96934e-01,5.72903e-01,9.99999e-01
1.031838492e+00,5.31551e-01,9.99999e-01,9.19615e-01,9.97773e-01,5.79241e-01,9.99999e-01
1.036997685e+00,4.01232e-02,9.99999e-01,6.85945e-02,9.98675e-01,5.85523e-01,9.99999e-01
1.042182673e+00,6.79713e-03,9.99999e-01,1.15011e-02,9.98418e-01,5.91746e-01,9.99999e-01
1.047393587e+00,1.40843e-02,9.99999e-01,2.35977e-02,9.97904e-01,5.97910e-01,9.99999e-01
1.052630555e+00,1.09867e-05,9.99999e-01,1.82236e-05,9.97123e-01,6.04016e-01,9.99999e-01
1.057893707e+00,4.03200e-05,9.99999e-01,6.62686e-05,9.95199e-01,6.10061e-01,9.99999e-01
1.063183176e+00,4.73655e-04,9.99999e-01,7.72588e-04,9.92115e-01,6.16045e-01,9.99999e-01
1.068499092e+00,3.13974e-03,9.99999e-01,5.09636e-03,9.86841e-01,6.21968e-01,9.99999e-01
1.073841587e+00,2.12703e-02,9.99999e-01,3.42804e-02,9.84610e-01,6.27829e-01,9.99999e-01
1.079210795e+00,7.42561e-02,9.99999e-01,1.19125e-01,9.80344e-01,6.33629e-01,9.99998e-01
1.084606849e+00,1.88393e-01,9.99999e-01,3.02781e-01,9.70382e-01,6.39365e-01,9.99998e-01
1.090029883e+00,3.31708e-01,9.99999e-01,5.35571e-01,9.57653e-01,6.45039e-01,9.99997e-01
1.095480033e+00,4.26169e-01,9.99999e-01,7.34720e-01,8.88928e-01,6.50649e-01,9.99996e-01
1.100957433e+00,4.21405e-01,9.99999e-01,8.61520e-01,7.42792e-01,6.56196e-01,9.99994e-01
1.106462220e+00,2.98609e-01,9.99999e-01,9.40202e-01,4.77766e-01,6.61680e-01,9.99988e-01
1.111994531e+00,1.42775e-01,9.99999e-01,9.77386e-01,2.18267e-01,6.67099e-01,9.99977e-01
1.117554504e+00,6.02927e-02,9.99999e-01,9.94446e-01,8.99945e-02,6.72455e-01,9.99968e-01
1.123142276e+00,1.26411e-01,9.99999e-01,9.99635e-01,1.86537e-01,6.77746e-01,9.99962e-01
1.128757988e+00,2.18673e-01,9.99999e-01,9.99999e-01,3.20190e-01,6.82974e-01,9.99958e-01
1.134401778e+00,1.01808e-01,9.99999e-01,9.99999e-01,1.47954e-01,6.88137e-01,9.99954e-01
1.140073787e+00,3.43561e-01,9.99999e-01,9.99999e-01,4.95607e-01,6.93236e-01,9.99962e-01
1.145774156e+00,1.71929e-01,9.99999e-01,9.99999e-01,2.46228e-01,6.98272e-01,9.99968e-01
1.151503026e+00,1.49646e-01,9.99999e-01,9.99999e-01,2.12799e-01,7.03243e-01,9.99972e-01
1.157260541e+00,1.82525e-01,9.99999e-01,9.99999e-01,2.57754e-01,7.08150e-01,9.99979e-01
1.163046844e+00,2.60046e-01,9.99999e-01,9.99999e-01,3.64728e-01,7.12994e-01,9.99986e-01
1.168862078e+00,3.51378e-01,9.99999e-01,9.99999e-01,4.89542e-01,7.17774e-01,9.99993e-01
1.174706389e+00,4.64541e-01,9.99999e-01,9.99999e-01,6.42973e-01,7.22491e-01,9.99996e-01
1.180579921e+00,5.55172e-01,9.99999e-01,9.99999e-01,7.63497e-01,7.27144e-01,9.99997e-01
1.186482820e+00,6.27794e-01,9.99999e-01,9.99981e-01,8.57967e-01,7.31735e-01,9.99997e-01
1.192415234e+00,6.53166e-01,9.99999e-01,9.69501e-01,9.14319e-01,7.36263e-01,9.99997e-01
1.198377311e+00,3.69932e-01,9.99999e-01,5.31848e-01,9.27248e-01,7.40730e-01,9.99998e-01
1.204369197e+00,3.10536e-23,9.99999e-01,4.34324e-23,9.31167e-01,7.45134e-01,9.99998e-01
1.210391043e+00,2.40781e-92,9.99999e-01,3.33698e-92,9.34011e-01,7.49476e-01,9.99998e-01
1.216442998e+00,5.50111e-80,9.99999e-01,7.56562e-80,9.43637e-01,7.53758e-01,9.99998e-01
1.222525213e+00,8.67823e-79,9.99999e-01,1.17192e-78,9.55783e-01,7.57978e-01,9.99999e-01
1.228637839e+00,7.13276e-61,9.99999e-01,9.55965e-61,9.69071e-01,7.62138e-01,9.99999e-01
