#,Wave/freq,Total,O2,CO2,H2O,Rayleigh,CIA
4.000000000e-01,7.52358e-06,9.99999e-01,9.99999e-01,9.99976e-01,7.52376e-06,9.99999e-01
4.020000000e-01,9.50032e-06,9.99999e-01,9.99999e-01,9.99985e-01,9.50046e-06,9.99999e-01
4.040100000e-01,1.19383e-05,9.99999e-01,9.99999e-01,9.99993e-01,1.19384e-05,9.99999e-01
4.060300500e-01,1.49344e-05,9.99999e-01,9.99999e-01,9.99998e-01,1.49344e-05,9.99999e-01
4.080602003e-01,1.85999e-05,9.99999e-01,9.99999e-01,9.99999e-01,1.85999e-05,9.99999e-01
4.101005013e-01,2.30648e-05,9.99999e-01,9.99999e-01,9.99999e-01,2.30648e-05,9.99999e-01
4.121510038e-01,2.84802e-05,9.99999e-01,9.99999e-01,9.99998e-01,2.84802e-05,9.99999e-01
4.142117588e-01,3.50207e-05,9.99999e-01,9.99999e-01,9.99993e-01,3.50209e-05,9.99999e-01
4.162828176e-01,4.28869e-05,9.99999e-01,9.99999e-01,9.99970e-01,4.28882e-05,9.99999e-01
4.183642317e-01,5.23121e-05,9.99999e-01,9.99999e-01,9.99982e-01,5.23130e-05,9.99999e-01
4.204560528e-01,6.35584e-05,9.99999e-01,9.99999e-01,9.99989e-01,6.35591e-05,9.99999e-01
4.225583331e-01,7.69261e-05,9.99999e-01,9.99999e-01,9.99995e-01,7.69264e-05,9.99999e-01
4.246711247e-01,9.27543e-05,9.99999e-01,9.99999e-01,9.99996e-01,9.27546e-05,9.99999e-01
4.267944804e-01,1.11427e-04,9.99999e-01,9.99999e-01,9.99994e-01,1.11427e-04,9.99999e-01
4.289284528e-01,1.33374e-04,9.99999e-01,9.99999e-01,9.99995e-01,1.33374e-04,9.99999e-01
4.310730950e-01,1.59078e-04,9.99999e-01,9.99999e-01,9.99997e-01,1.59079e-04,9.99999e-01
4.332284605e-01,1.89077e-04,9.99999e-01,9.99999e-01,9.99999e-01,1.89077e-04,9.99999e-01
4.353946028e-01,2.23967e-04,9.99999e-01,9.99999e-01,9.99999e-01,2.23967e-04,9.99999e-01
4.375715758e-01,2.64409e-04,9.99999e-01,9.99999e-01,9.99996e-01,2.64410e-04,9.99999e-01
4.397594337e-01,3.11126e-04,9.99999e-01,9.99999e-01,9.99974e-01,3.11133e-04,9.99999e-01
4.419582309e-01,3.64893e-04,9.99999e-01,9.99999e-01,9.99874e-01,3.64939e-04,9.99999e-01
4.441680220e-01,4.26659e-04,9.99999e-01,9.99999e-01,9.99899e-01,4.26702e-04,9.99999e-01
4.463888621e-01,4.97328e-04,9.99999e-01,9.99999e-01,9.99895e-01,4.97379e-04,9.99999e-01
4.486208064e-01,5.77974e-04,9.99999e-01,9.99999e-01,9.99934e-01,5.78011e-04,9.99999e-01
4.508639105e-01,6.69704e-04,9.99999e-01,9.99999e-01,9.99969e-01,6.69724e-04,9.99999e-01
4.531182300e-01,7.73726e-04,9.99999e-01,9.99999e-01,9.99987e-01,7.73736e-04,9.99999e-01
4.553838212e-01,8.91347e-04,9.99999e-01,9.99999e-01,9.99991e-01,8.91355e-04,9.99999e-01
4.576607403e-01,1.02398e-03,9.99999e-01,9.99999e-01,9.99995e-01,1.02399e-03,9.99999e-01
4.599490440e-01,1.17313e-03,9.99999e-01,9.99999e-01,9.99996e-01,1.17314e-03,9.99999e-01
4.622487892e-01,1.34041e-03,9.99999e-01,9.99999e-01,9.99999e-01,1.34041e-03,9.99999e-01
4.645600332e-01,1.52749e-03,9.99999e-01,9.99999e-01,9.99997e-01,1.52750e-03,9.99999e-01
4.668828333e-01,1.73616e-03,9.99999e-01,9.99999e-01,9.99969e-01,1.73622e-03,9.99999e-01
4.692172475e-01,1.96834e-03,9.99999e-01,9.99999e-01,9.99934e-01,1.96847e-03,9.99999e-01
4.715633337e-01,2.22617e-03,9.99999e-01,9.99999e-01,9.99957e-01,2.22626e-03,9.99999e-01
4.739211504e-01,2.51160e-03,9.99999e-01,9.99999e-01,9.99958e-01,2.51170e-03,9.99999e-01
4.762907561e-01,2.82694e-03,9.99999e-01,9.99999e-01,9.99978e-01,2.82700e-03,9.99999e-01
4.786722099e-01,3.17442e-03,9.99999e-01,9.99999e-01,9.99990e-01,3.17444e-03,9.99999e-01
4.810655710e-01,3.55644e-03,9.99999e-01,9.99999e-01,9.99996e-01,3.55644e-03,9.99999e-01
4.834708988e-01,3.97538e-03,9.99999e-01,9.99999e-01,9.99975e-01,3.97548e-03,9.99999e-01
4.858882533e-01,4.43392e-03,9.99999e-01,9.99999e-01,9.99953e-01,4.43412e-03,9.99999e-01
4.883176946e-01,4.93483e-03,9.99999e-01,9.99999e-01,9.99961e-01,4.93502e-03,9.99999e-01
4.907592831e-01,5.48071e-03,9.99999e-01,9.99999e-01,9.99964e-01,5.48090e-03,9.99999e-01
4.932130795e-01,6.07442e-03,9.99999e-01,9.99999e-01,9.99974e-01,6.07457e-03,9.99999e-01
4.956791449e-01,6.71879e-03,9.99999e-01,9.99999e-01,9.99986e-01,6.71887e-03,9.99999e-01
4.981575406e-01,7.41625e-03,9.99999e-01,9.99999e-01,9.99934e-01,7.41673e-03,9.99999e-01
5.006483283e-01,8.16975e-03,9.99999e-01,9.99999e-01,9.99832e-01,8.17111e-03,9.99999e-01
5.031515699e-01,8.97732e-03,9.99999e-01,9.99999e-01,9.99143e-01,8.98502e-03,9.99999e-01
5.056673278e-01,9.85700e-03,9.99999e-01,9.99999e-01,9.99545e-01,9.86148e-03,9.99999e-01
5.081956644e-01,1.07974e-02,9.99999e-01,9.99999e-01,9.99427e-01,1.08036e-02,9.99999e-01
5.107366428e-01,1.18097e-02,9.99999e-01,9.99999e-01,9.99612e-01,1.18143e-02,9.99999e-01
5.132903260e-01,1.28940e-02,9.99999e-01,9.99999e-01,9.99777e-01,1.28968e-02,9.99999e-01
5.158567776e-01,1.40529e-02,9.99999e-01,9.99999e-01,9.99905e-01,1.40542e-02,9.99999e-01
5.184360615e-01,1.52889e-02,9.99999e-01,9.99999e-01,9.99962e-01,1.52894e-02,9.99999e-01
5.210282418e-01,1.66053e-02,9.99999e-01,9.99999e-01,9.99985e-01,1.66056e-02,9.99999e-01
5.236333830e-01,1.80046e-02,9.99999e-01,9.99999e-01,9.99943e-01,1.80056e-02,9.99999e-01
5.262515499e-01,1.94919e-02,9.99999e-01,9.99999e-01,9.99964e-01,1.94925e-02,9.99999e-01
5.288828077e-01,2.10685e-02,9.99999e-01,9.99999e-01,9.99967e-01,2.10692e-02,9.99999e-01
5.315272217e-01,2.27378e-02,9.99999e-01,9.99999e-01,9.99971e-01,2.27384e-02,9.99999e-01
5.341848578e-01,2.45025e-02,9.99999e-01,9.99999e-01,9.99981e-01,2.45029e-02,9.99999e-01
5.368557821e-01,2.63637e-02,9.99999e-01,9.99999e-01,9.99934e-01,2.63654e-02,9.99999e-01
5.395400610e-01,2.83219e-02,9.99999e-01,9.99999e-01,9.99767e-01,2.83285e-02,9.99999e-01
5.422377613e-01,3.03853e-02,9.99999e-01,9.99999e-01,9.99694e-01,3.03945e-02,9.99999e-01
5.449489501e-01,3.25568e-02,9.99999e-01,9.99999e-01,9.99718e-01,3.25660e-02,9.99999e-01
5.476736949e-01,3.48363e-02,9.99999e-01,9.99999e-01,9.99748e-01,3.48450e-02,9.99999e-01
5.504120634e-01,3.72270e-02,9.99999e-01,9.99999e-01,9.99817e-01,3.72338e-02,9.99999e-01
5.531641237e-01,3.97306e-02,9.99999e-01,9.99999e-01,9.99907e-01,3.97342e-02,9.99999e-01
5.559299443e-01,4.23463e-02,9.99999e-01,9.99999e-01,9.99955e-01,4.23482e-02,9.99999e-01
5.587095940e-01,4.50761e-02,9.99999e-01,9.99999e-01,9.99971e-01,4.50773e-02,9.99999e-01
5.615031420e-01,4.79217e-02,9.99999e-01,9.99999e-01,9.99968e-01,4.79232e-02,9.99999e-01
5.643106577e-01,5.08854e-02,9.99999e-01,9.99999e-01,9.99965e-01,5.08872e-02,9.99999e-01
5.671322110e-01,5.39480e-02,9.99999e-01,9.99999e-01,9.99583e-01,5.39704e-02,9.99999e-01
5.699678720e-01,5.71480e-02,9.99999e-01,9.99999e-01,9.99543e-01,5.71740e-02,9.99999e-01
5.728177114e-01,6.04705e-02,9.99999e-01,9.99999e-01,9.99530e-01,6.04989e-02,9.99999e-01
5.756818000e-01,6.39180e-02,9.99999e-01,9.99999e-01,9.99568e-01,6.39456e-02,9.99999e-01
5.785602090e-01,6.74894e-02,9.99999e-01,9.99999e-01,9.99622e-01,6.75148e-02,9.99999e-01
5.814530100e-01,7.11799e-02,9.99999e-01,9.99999e-01,9.99621e-01,7.12068e-02,9.99999e-01
5.843602750e-01,7.49882e-02,9.99999e-01,9.99999e-01,9.99553e-01,7.50217e-02,9.99999e-01
5.872820764e-01,7.86556e-02,9.99999e-01,9.99999e-01,9.96150e-01,7.89595e-02,9.99999e-01
5.902184868e-01,8.26293e-02,9.99999e-01,9.99999e-01,9.95291e-01,8.30202e-02,9.99999e-01
5.931695792e-01,8.69140e-02,9.99999e-01,9.99999e-01,9.96682e-01,8.72032e-02,9.99999e-01
5.961354271e-01,9.11746e-02,9.99999e-01,9.99999e-01,9.96355e-01,9.15081e-02,9.99999e-01
5.991161043e-01,9.56788e-02,9.99999e-01,9.99999e-01,9.97338e-01,9.59342e-02,9.99999e-01
6.021116848e-01,1.00328e-01,9.99999e-01,9.99999e-01,9.98486e-01,1.00481e-01,9.99999e-01
6.051222432e-01,1.05066e-01,9.99999e-01,9.99999e-01,9.99233e-01,1.05146e-01,9.99999e-01
6.081478544e-01,1.09893e-01,9.99999e-01,9.99999e-01,9.99669e-01,1.09930e-01,9.99999e-01
6.111885937e-01,1.14814e-01,9.99999e-01,9.99999e-01,9.99859e-01,1.14830e-01,9.99999e-01
6.142445367e-01,1.19838e-01,9.99999e-01,9.99999e-01,9.99937e-01,1.19845e-01,9.99999e-01
6.173157594e-01,1.24970e-01,9.99999e-01,9.99999e-01,9.99965e-01,1.24974e-01,9.99999e-01
6.204023382e-01,1.30211e-01,9.99999e-01,9.99999e-01,9.99970e-01,1.30215e-01,9.99999e-01
6.235043498e-01,1.35548e-01,9.99999e-01,9.99999e-01,9.99874e-01,1.35565e-01,9.99999e-01
6.266218716e-01,1.40928e-01,9.99999e-01,9.99999e-01,9.99323e-01,1.41023e-01,9.99999e-01
6.297549810e-01,1.46550e-01,9.99999e-01,9.99999e-01,9.99751e-01,1.46587e-01,9.99999e-01
6.329037559e-01,1.52178e-01,9.99999e-01,9.99999e-01,9.99508e-01,1.52253e-01,9.99999e-01
6.360682746e-01,1.57954e-01,9.99999e-01,9.99999e-01,9.99583e-01,1.58020e-01,9.99999e-01
6.392486160e-01,1.63797e-01,9.99999e-01,9.99999e-01,9.99458e-01,1.63885e-01,9.99999e-01
6.424448591e-01,1.69736e-01,9.99999e-01,9.99999e-01,9.99351e-01,1.69846e-01,9.99999e-01
6.456570834e-01,1.75317e-01,9.99999e-01,9.99999e-01,9.96693e-01,1.75899e-01,9.99999e-01
6.488853688e-01,1.81514e-01,9.99999e-01,9.99999e-01,9.97101e-01,1.82042e-01,9.99999e-01
6.521297956e-01,1.87798e-01,9.99999e-01,9.99999e-01,9.97485e-01,1.88271e-01,9.99999e-01
6.553904446e-01,1.94102e-01,9.99999e-01,9.99999e-01,9.97517e-01,1.94585e-01,9.99999e-01
6.586673968e-01,2.00548e-01,9.99999e-01,9.99999e-01,9.97853e-01,2.00979e-01,9.99999e-01
6.619607338e-01,2.07194e-01,9.99999e-01,9.99999e-01,9.98759e-01,2.07451e-01,9.99999e-01
6.652705375e-01,2.13843e-01,9.99999e-01,9.99999e-01,9.99279e-01,2.13997e-01,9.99999e-01
6.685968902e-01,2.20541e-01,9.99999e-01,9.99999e-01,9.99665e-01,2.20615e-01,9.99999e-01
6.719398746e-01,2.27265e-01,9.99999e-01,9.99999e-01,9.99844e-01,2.27300e-01,9.99999e-01
6.752995740e-01,2.34030e-01,9.99999e-01,9.99999e-01,9.99915e-01,2.34050e-01,9.99999e-01
6.786760719e-01,2.40832e-01,9.99999e-01,9.99999e-01,9.99879e-01,2.40861e-01,9.99999e-01
6.820694522e-01,2.47678e-01,9.99999e-01,9.99999e-01,9.99793e-01,2.47729e-01,9.99999e-01
6.854797995e-01,2.54585e-01,9.99999e-01,9.99999e-01,9.99734e-01,2.54652e-01,9.99999e-01
6.889071985e-01,2.61461e-01,9.99999e-01,9.99999e-01,9.99367e-01,2.61627e-01,9.99999e-01
6.923517345e-01,2.65850e-01,9.99999e-01,9.99999e-01,9.89582e-01,2.68648e-01,9.99999e-01
6.958134932e-01,2.74186e-01,9.99999e-01,9.99999e-01,9.94457e-01,2.75714e-01,9.99999e-01
6.992925606e-01,2.81362e-01,9.99999e-01,9.99999e-01,9.94841e-01,2.82821e-01,9.99999e-01
7.027890234e-01,2.88103e-01,9.99999e-01,9.99999e-01,9.93580e-01,2.89965e-01,9.99999e-01
7.063029686e-01,2.95540e-01,9.99999e-01,9.99999e-01,9.94606e-01,2.97143e-01,9.99999e-01
7.098344834e-01,3.02776e-01,9.99999e-01,9.99999e-01,9.94824e-01,3.04352e-01,9.99999e-01
7.133836558e-01,3.09469e-01,9.99999e-01,9.99999e-01,9.93199e-01,3.11588e-01,9.99999e-01
7.169505741e-01,3.01679e-01,9.99999e-01,9.99999e-01,9.46153e-01,3.18848e-01,9.99998e-01
7.205353270e-01,3.17250e-01,9.99999e-01,9.99999e-01,9.72776e-01,3.26128e-01,9.99998e-01
7.241380036e-01,3.22121e-01,9.99999e-01,9.99999e-01,9.66091e-01,3.33427e-01,9.99998e-01
7.277586936e-01,3.30286e-01,9.99999e-01,9.99999e-01,9.69321e-01,3.40739e-01,9.99998e-01
7.313974871e-01,3.36645e-01,9.99999e-01,9.99999e-01,9.67194e-01,3.48063e-01,9.99999e-01
7.350544745e-01,3.48994e-01,9.99999e-01,9.99999e-01,9.81987e-01,3.55395e-01,9.99999e-01
7.387297469e-01,3.57911e-01,9.99999e-01,9.99999e-01,9.86707e-01,3.62732e-01,9.99999e-01
7.424233956e-01,3.67651e-01,9.99999e-01,9.99999e-01,9.93459e-01,3.70071e-01,9.99999e-01
7.461355126e-01,3.75915e-01,9.99999e-01,9.99999e-01,9.96039e-01,3.77409e-01,9.99999e-01
7.498661902e-01,3.84032e-01,9.99999e-01,9.99999e-01,9.98149e-01,3.84744e-01,9.99999e-01
7.536155211e-01,3.91717e-01,9.99999e-01,9.99999e-01,9.99094e-01,3.92072e-01,9.99999e-01
7.573835987e-01,3.99204e-01,9.99999e-01,9.99999e-01,9.99533e-01,3.99390e-01,9.99999e-01
7.611705167e-01,4.06579e-01,9.99999e-01,9.99999e-01,9.99709e-01,4.06697e-01,9.99999e-01
7.649763693e-01,4.13914e-01,9.99999e-01,9.99999e-01,9.99818e-01,4.13989e-01,9.99999e-01
7.688012511e-01,4.21211e-01,9.99999e-01,9.99999e-01,9.99873e-01,4.21264e-01,9.99999e-01
7.726452574e-01,4.28475e-01,9.99999e-01,9.99999e-01,9.99895e-01,4.28519e-01,9.99999e-01
7.765084837e-01,4.35689e-01,9.99999e-01,9.99999e-01,9.99853e-01,4.35752e-01,9.99999e-01
7.803910261e-01,4.26654e-01,9.99999e-01,9.63772e-01,9.99369e-01,4.42961e-01,9.99999e-01
7.842929812e-01,3.78112e-01,9.99999e-01,8.41731e-01,9.97801e-01,4.50143e-01,9.99999e-01
7.882144461e-01,3.79131e-01,9.99999e-01,8.32705e-01,9.95433e-01,4.57297e-01,9.99999e-01
7.921555184e-01,4.16218e-01,9.99999e-01,8.98417e-01,9.97480e-01,4.64419e-01,9.99999e-01
7.961162960e-01,4.36701e-01,9.99999e-01,9.30226e-01,9.95601e-01,4.71508e-01,9.99999e-01
8.000968774e-01,4.57850e-01,9.99999e-01,9.61615e-01,9.94890e-01,4.78562e-01,9.99999e-01
8.040973618e-01,4.73369e-01,9.99999e-01,9.79842e-01,9.94896e-01,4.85580e-01,9.99999e-01
8.081178486e-01,4.82444e-01,9.99999e-01,9.90738e-01,9.88604e-01,4.92558e-01,9.99999e-01
8.121584379e-01,4.74756e-01,9.99999e-01,9.97105e-01,9.53196e-01,4.99497e-01,9.99998e-01
8.162192301e-01,4.77787e-01,9.99999e-01,9.99359e-01,9.44102e-01,5.06392e-01,9.99998e-01
8.203003262e-01,4.99006e-01,9.99999e-01,9.99988e-01,9.72267e-01,5.13244e-01,9.99998e-01
8.244018279e-01,4.99477e-01,9.99999e-01,9.99999e-01,9.60438e-01,5.20051e-01,9.99998e-01
8.285238370e-01,5.09161e-01,9.99999e-01,9.99999e-01,9.66495e-01,5.26811e-01,9.99998e-01
8.326664562e-01,5.15377e-01,9.99999e-01,9.99999e-01,9.65989e-01,5.33523e-01,9.99999e-01
8.368297885e-01,5.26979e-01,9.99999e-01,9.99999e-01,9.75553e-01,5.40185e-01,9.99999e-01
8.410139374e-01,5.38813e-01,9.99999e-01,9.99999e-01,9.85400e-01,5.46796e-01,9.99999e-01
8.452190071e-01,5.49376e-01,9.99999e-01,9.99999e-01,9.92808e-01,5.53355e-01,9.99999e-01
8.494451021e-01,5.57532e-01,9.99999e-01,9.99999e-01,9.95838e-01,5.59861e-01,9.99999e-01
8.536923276e-01,5.64913e-01,9.99999e-01,9.99999e-01,9.97528e-01,5.66312e-01,9.99999e-01
8.579607893e-01,5.71840e-01,9.99999e-01,9.99999e-01,9.98482e-01,5.72709e-01,9.99999e-01
8.622505932e-01,5.78490e-01,9.99999e-01,9.99999e-01,9.99033e-01,5.79049e-01,9.99999e-01
8.665618462e-01,5.39619e-01,9.99999e-01,9.22429e-01,9.99404e-01,5.85332e-01,9.99999e-01
8.708946554e-01,3.83088e-01,9.99999e-01,6.48015e-01,9.99319e-01,5.91557e-01,9.99999e-01
8.752491287e-01,4.19983e-01,9.99999e-01,7.03256e-01,9.99088e-01,5.97723e-01,9.99999e-01
8.796253743e-01,4.96687e-01,9.99999e-01,8.23561e-01,9.98742e-01,6.03830e-01,9.99999e-01
8.840235012e-01,5.50662e-01,9.99999e-01,9.04183e-01,9.98562e-01,6.09877e-01,9.99999e-01
8.884436187e-01,5.88771e-01,9.99999e-01,9.60894e-01,9.94861e-01,6.15863e-01,9.99999e-01
8.928858368e-01,5.79144e-01,9.99999e-01,9.84021e-01,9.46395e-01,6.21788e-01,9.99998e-01
8.973502660e-01,5.66610e-01,9.99999e-01,9.96069e-01,9.06227e-01,6.27652e-01,9.99998e-01
9.018370173e-01,6.01918e-01,9.99999e-01,9.99564e-01,9.50618e-01,6.33453e-01,9.99998e-01
9.063462024e-01,6.05461e-01,9.99999e-01,9.89296e-01,9.57114e-01,6.39191e-01,9.99997e-01
9.108779334e-01,5.87153e-01,9.99999e-01,9.74953e-01,9.33566e-01,6.44867e-01,9.99997e-01
9.154323231e-01,5.97991e-01,9.99999e-01,9.94004e-01,9.24720e-01,6.50479e-01,9.99997e-01
9.200094847e-01,5.69091e-01,9.99999e-01,9.19154e-01,9.40397e-01,6.56028e-01,9.99996e-01
9.246095321e-01,5.33269e-01,9.99999e-01,8.83401e-01,9.10331e-01,6.61514e-01,9.99995e-01
9.292325798e-01,3.25375e-01,9.99999e-01,9.08475e-01,5.31165e-01,6.66935e-01,9.99990e-01
9.338787427e-01,2.71640e-01,9.99999e-01,9.10440e-01,4.38956e-01,6.72293e-01,9.99987e-01
9.385481364e-01,4.55421e-01,9.99999e-01,9.33356e-01,7.16903e-01,6.77586e-01,9.99987e-01
9.432408771e-01,4.15878e-01,9.99999e-01,9.58495e-01,6.33816e-01,6.82816e-01,9.99985e-01
9.479570815e-01,3.60320e-01,9.99999e-01,9.78556e-01,5.34540e-01,6.87981e-01,9.99987e-01
9.526968669e-01,4.26511e-01,9.99999e-01,9.89584e-01,6.21225e-01,6.93082e-01,9.99990e-01
9.574603512e-01,4.47653e-01,9.99999e-01,9.95530e-01,6.43896e-01,6.98119e-01,9.99992e-01
9.622476530e-01,4.89874e-01,9.99999e-01,9.98602e-01,6.97655e-01,7.03092e-01,9.99995e-01
9.670588912e-01,5.75178e-01,9.99999e-01,9.99579e-01,8.12720e-01,7.08001e-01,9.99996e-01
9.718941857e-01,6.26108e-01,9.99999e-01,9.99969e-01,8.78346e-01,7.12847e-01,9.99997e-01
9.767536566e-01,6.44393e-01,9.99999e-01,9.99999e-01,8.97948e-01,7.17629e-01,9.99998e-01
9.816374249e-01,6.66815e-01,9.99999e-01,9.99999e-01,9.23122e-01,7.22348e-01,9.99998e-01
9.865456120e-01,6.91548e-01,9.99999e-01,9.99999e-01,9.51231e-01,7.27003e-01,9.99999e-01
9.914783401e-01,7.09348e-01,9.99999e-01,9.99999e-01,9.69589e-01,7.31596e-01,9.99999e-01
9.964357318e-01,7.23848e-01,9.99999e-01,9.99999e-01,9.83319e-01,7.36126e-01,9.99999e-01
1.001417910e+00,7.33165e-01,9.99999e-01,9.99999e-01,9.89968e-01,7.40594e-01,9.99999e-01
1.006425000e+00,7.40741e-01,9.99999e-01,9.99999e-01,9.94282e-01,7.45000e-01,9.99999e-01
1.011457125e+00,7.46676e-01,9.99999e-01,9.99999e-01,9.96437e-01,7.49345e-01,9.99999e-01
1.016514411e+00,7.51808e-01,9.99999e-01,9.99999e-01,9.97584e-01,7.53628e-01,9.99999e-01
1.021596983e+00,7.56354e-01,9.99999e-01,9.99948e-01,9.98076e-01,7.57850e-01,9.99999e-01
1.026704968e+00,7.57695e-01,9.99999e-01,9.95824e-01,9.98500e-01,7.62012e-01,9.99999e-01
1.031838492e+00,7.30951e-01,9.99999e-01,9.55113e-01,9.98907e-01,7.66114e-01,9.99999e-01
1.036997685e+00,1.05889e-01,9.99999e-01,1.37560e-01,9.99352e-01,7.70157e-01,9.99999e-01
1.042182673e+00,7.05079e-02,9.99999e-01,9.11403e-02,9.99230e-01,7.74140e-01,9.99999e-01
1.047393587e+00,9.13170e-02,9.99999e-01,1.17470e-01,9.98978e-01,7.78064e-01,9.99999e-01
1.052630555e+00,1.66994e-03,9.99999e-01,2.13783e-03,9.98599e-01,7.81930e-01,9.99999e-01
1.057893707e+00,4.44360e-03,9.99999e-01,5.66391e-03,9.97667e-01,7.85739e-01,9.99999e-01
1.063183176e+00,1.71814e-02,9.99999e-01,2.18212e-02,9.96158e-01,7.89490e-01,9.99999e-01
1.068499092e+00,5.43371e-02,9.99999e-01,6.88705e-02,9.93565e-01,7.93185e-01,9.99999e-01
1.073841587e+00,1.44979e-01,9.99999e-01,1.83098e-01,9.92487e-01,7.96823e-01,9.99999e-01
1.079210795e+00,2.70777e-01,9.99999e-01,3.41265e-01,9.90348e-01,8.00406e-01,9.99999e-01
1.084606849e+00,4.37631e-01,9.99999e-01,5.51974e-01,9.85449e-01,8.03934e-01,9.99999e-01
1.090029883e+00,5.81209e-01,9.99999e-01,7.34601e-01,9.79284e-01,8.07407e-01,9.99998e-01
1.095480033e+00,6.58100e-01,9.99999e-01,8.58786e-01,9.44439e-01,8.10826e-01,9.99998e-01
1.100957433e+00,6.54956e-01,9.99999e-01,9.29271e-01,8.64913e-01,8.14191e-01,9.99996e-01
1.106462220e+00,5.50318e-01,9.99999e-01,9.70083e-01,6.93095e-01,8.17504e-01,9.99994e-01
1.111994531e+00,3.75591e-01,9.99999e-01,9.88806e-01,4.62385e-01,8.20764e-01,9.99988e-01
1.117554504e+00,2.37209e-01,9.99999e-01,9.97242e-01,2.88521e-01,8.23972e-01,9.99984e-01
1.123142276e+00,3.34450e-01,9.99999e-01,9.99817e-01,4.04390e-01,8.27130e-01,9.99981e-01
1.128757988e+00,4.62665e-01,9.99999e-01,9.99999e-01,5.57280e-01,8.30236e-01,9.99979e-01
1.134401778e+00,2.49731e-01,9.99999e-01,9.99999e-01,2.99699e-01,8.33293e-01,9.99977e-01
1.140073787e+00,5.88550e-01,9.99999e-01,9.99999e-01,7.03767e-01,8.36300e-01,9.99980e-01
1.145774156e+00,4.05132e-01,9.99999e-01,9.99999e-01,4.82733e-01,8.39258e-01,9.99984e-01
1.151503026e+00,3.75615e-01,9.99999e-01,9.99999e-01,4.46014e-01,8.42168e-01,9.99986e-01
1.157260541e+00,4.26926e-01,9.99999e-01,9.99999e-01,5.05224e-01,8.45031e-01,9.99989e-01
1.163046844e+00,5.10745e-01,9.99999e-01,9.99999e-01,6.02406e-01,8.47846e-01,9.99993e-01
1.168862078e+00,5.97236e-01,9.99999e-01,9.99999e-01,7.02125e-01,8.50615e-01,9.99996e-01
1.174706389e+00,6.86043e-01,9.99999e-01,9.99999e-01,8.03953e-01,8.53337e-01,9.99997e-01
1.180579921e+00,7.49377e-01,9.99999e-01,9.99999e-01,8.75426e-01,8.56015e-01,9.99998e-01
1.186482820e+00,7.96489e-01,9.99999e-01,9.99994e-01,9.27614e-01,8.58648e-01,9.99998e-01
1.192415234e+00,8.12356e-01,9.99999e-01,9.85300e-01,9.57134e-01,8.61236e-01,9.99998e-01
1.198377311e+00,4.68158e-01,9.99999e-01,5.58948e-01,9.63820e-01,8.63781e-01,9.99998e-01
1.204369197e+00,1.73807e-12,9.99999e-01,2.04718e-12,9.65705e-01,8.66283e-01,9.99998e-01
1.210391043e+00,3.36801e-46,9.99999e-01,3.94935e-46,9.67168e-01,8.68743e-01,9.99999e-01
1.216442998e+00,3.59730e-40,9.99999e-01,4.20243e-40,9.71939e-01,8.71161e-01,9.99999e-01
1.222525213e+00,1.38221e-39,9.99999e-01,1.60041e-39,9.78106e-01,8.73537e-01,9.99999e-01
1.228637839e+00,1.15541e-30,9.99999e-01,1.33317e-30,9.84759e-01,8.75873e-01,9.99999e-01
