#,Wave/freq,Total,O2,CO2,H2O,Rayleigh,CIA
4.000000000e-01,6.05956e-06,9.99999e-01,9.99999e-01,9.99976e-01,6.05971e-06,9.99999e-01
4.020000000e-01,7.68443e-06,9.99999e-01,9.99999e-01,9.99984e-01,7.68454e-06,9.99999e-01
4.040100000e-01,9.69699e-06,9.99999e-01,9.99999e-01,9.99993e-01,9.69705e-06,9.99999e-01
4.060300500e-01,1.21805e-05,9.99999e-01,9.99999e-01,9.99998e-01,1.21805e-05,9.99999e-01
4.080602003e-01,1.52313e-05,9.99999e-01,9.99999e-01,9.99999e-01,1.52313e-05,9.99999e-01
4.101005013e-01,1.89622e-05,9.99999e-01,9.99999e-01,9.99999e-01,1.89622e-05,9.99999e-01
4.121510038e-01,2.35051e-05,9.99999e-01,9.99999e-01,9.99998e-01,2.35051e-05,9.99999e-01
4.142117588e-01,2.90129e-05,9.99999e-01,9.99999e-01,9.99993e-01,2.90131e-05,9.99999e-01
4.162828176e-01,3.56620e-05,9.99999e-01,9.99999e-01,9.99970e-01,3.56630e-05,9.99999e-01
4.183642317e-01,4.36582e-05,9.99999e-01,9.99999e-01,9.99982e-01,4.36589e-05,9.99999e-01
4.204560528e-01,5.32338e-05,9.99999e-01,9.99999e-01,9.99988e-01,5.32344e-05,9.99999e-01
4.225583331e-01,6.46560e-05,9.99999e-01,9.99999e-01,9.99995e-01,6.46563e-05,9.99999e-01
4.246711247e-01,7.82276e-05,9.99999e-01,9.99999e-01,9.99996e-01,7.82279e-05,9.99999e-01
4.267944804e-01,9.42922e-05,9.99999e-01,9.99999e-01,9.99994e-01,9.42927e-05,9.99999e-01
4.289284528e-01,1.13238e-04,9.99999e-01,9.99999e-01,9.99995e-01,1.13238e-04,9.99999e-01
4.310730950e-01,1.35499e-04,9.99999e-01,9.99999e-01,9.99997e-01,1.35499e-04,9.99999e-01
4.332284605e-01,1.61562e-04,9.99999e-01,9.99999e-01,9.99999e-01,1.61562e-04,9.99999e-01
4.353946028e-01,1.91970e-04,9.99999e-01,9.99999e-01,9.99999e-01,1.91970e-04,9.99999e-01
4.375715758e-01,2.27325e-04,9.99999e-01,9.99999e-01,9.99996e-01,2.27326e-04,9.99999e-01
4.397594337e-01,2.68289e-04,9.99999e-01,9.99999e-01,9.99974e-01,2.68296e-04,9.99999e-01
4.419582309e-01,3.15575e-04,9.99999e-01,9.99999e-01,9.99870e-01,3.15615e-04,9.99999e-01
4.441680220e-01,3.70053e-04,9.99999e-01,9.99999e-01,9.99897e-01,3.70091e-04,9.99999e-01
4.463888621e-01,4.32561e-04,9.99999e-01,9.99999e-01,9.99894e-01,4.32606e-04,9.99999e-01
4.486208064e-01,5.04092e-04,9.99999e-01,9.99999e-01,9.99933e-01,5.04125e-04,9.99999e-01
4.508639105e-01,5.85677e-04,9.99999e-01,9.99999e-01,9.99968e-01,5.85695e-04,9.99999e-01
4.531182300e-01,6.78442e-04,9.99999e-01,9.99999e-01,9.99987e-01,6.78450e-04,9.99999e-01
4.553838212e-01,7.83609e-04,9.99999e-01,9.99999e-01,9.99991e-01,7.83616e-04,9.99999e-01
4.576607403e-01,9.02507e-04,9.99999e-01,9.99999e-01,9.99995e-01,9.02511e-04,9.99999e-01
4.599490440e-01,1.03655e-03,9.99999e-01,9.99999e-01,9.99996e-01,1.03655e-03,9.99999e-01
4.622487892e-01,1.18724e-03,9.99999e-01,9.99999e-01,9.99999e-01,1.18724e-03,9.99999e-01
4.645600332e-01,1.35620e-03,9.99999e-01,9.99999e-01,9.99997e-01,1.35620e-03,9.99999e-01
4.668828333e-01,1.54509e-03,9.99999e-01,9.99999e-01,9.99968e-01,1.54514e-03,9.99999e-01
4.692172475e-01,1.75576e-03,9.99999e-01,9.99999e-01,9.99933e-01,1.75587e-03,9.99999e-01
4.715633337e-01,1.99022e-03,9.99999e-01,9.99999e-01,9.99956e-01,1.99031e-03,9.99999e-01
4.739211504e-01,2.25038e-03,9.99999e-01,9.99999e-01,9.99958e-01,2.25047e-03,9.99999e-01
4.762907561e-01,2.53842e-03,9.99999e-01,9.99999e-01,9.99978e-01,2.53848e-03,9.99999e-01
4.786722099e-01,2.85651e-03,9.99999e-01,9.99999e-01,9.99990e-01,2.85653e-03,9.99999e-01
4.810655710e-01,3.20694e-03,9.99999e-01,9.99999e-01,9.99996e-01,3.20695e-03,9.99999e-01
4.834708988e-01,3.59205e-03,9.99999e-01,9.99999e-01,9.99974e-01,3.59214e-03,9.99999e-01
4.858882533e-01,4.01440e-03,9.99999e-01,9.99999e-01,9.99952e-01,4.01459e-03,9.99999e-01
4.883176946e-01,4.47670e-03,9.99999e-01,9.99999e-01,9.99960e-01,4.47688e-03,9.99999e-01
4.907592831e-01,4.98149e-03,9.99999e-01,9.99999e-01,9.99964e-01,4.98166e-03,9.99999e-01
4.932130795e-01,5.53154e-03,9.99999e-01,9.99999e-01,9.99974e-01,5.53168e-03,9.99999e-01
4.956791449e-01,6.12964e-03,9.99999e-01,9.99999e-01,9.99986e-01,6.12973e-03,9.99999e-01
4.981575406e-01,6.77822e-03,9.99999e-01,9.99999e-01,9.99933e-01,6.77867e-03,9.99999e-01
5.006483283e-01,7.48015e-03,9.99999e-01,9.99999e-01,9.99827e-01,7.48143e-03,9.99999e-01
5.031515699e-01,8.23378e-03,9.99999e-01,9.99999e-01,9.99125e-01,8.24098e-03,9.99999e-01
5.056673278e-01,9.05614e-03,9.99999e-01,9.99999e-01,9.99538e-01,9.06032e-03,9.99999e-01
5.081956644e-01,9.93670e-03,9.99999e-01,9.99999e-01,9.99417e-01,9.94249e-03,9.99999e-01
5.107366428e-01,1.08863e-02,9.99999e-01,9.99999e-01,9.99606e-01,1.08905e-02,9.99999e-01
5.132903260e-01,1.19049e-02,9.99999e-01,9.99999e-01,9.99774e-01,1.19076e-02,9.99999e-01
5.158567776e-01,1.29954e-02,9.99999e-01,9.99999e-01,9.99904e-01,1.29966e-02,9.99999e-01
5.184360615e-01,1.41602e-02,9.99999e-01,9.99999e-01,9.99961e-01,1.41608e-02,9.99999e-01
5.210282418e-01,1.54028e-02,9.99999e-01,9.99999e-01,9.99985e-01,1.54031e-02,9.99999e-01
5.236333830e-01,1.67256e-02,9.99999e-01,9.99999e-01,9.99942e-01,1.67265e-02,9.99999e-01
5.262515499e-01,1.81335e-02,9.99999e-01,9.99999e-01,9.99963e-01,1.81342e-02,9.99999e-01
5.288828077e-01,1.96283e-02,9.99999e-01,9.99999e-01,9.99966e-01,1.96290e-02,9.99999e-01
5.315272217e-01,2.12131e-02,9.99999e-01,9.99999e-01,9.99970e-01,2.12137e-02,9.99999e-01
5.341848578e-01,2.28909e-02,9.99999e-01,9.99999e-01,9.99980e-01,2.28913e-02,9.99999e-01
5.368557821e-01,2.46628e-02,9.99999e-01,9.99999e-01,9.99933e-01,2.46644e-02,9.99999e-01
5.395400610e-01,2.65294e-02,9.99999e-01,9.99999e-01,9.99760e-01,2.65357e-02,9.99999e-01
5.422377613e-01,2.84990e-02,9.99999e-01,9.99999e-01,9.99689e-01,2.85079e-02,9.99999e-01
5.449489501e-01,3.05744e-02,9.99999e-01,9.99999e-01,9.99712e-01,3.05832e-02,9.99999e-01
5.476736949e-01,3.27557e-02,9.99999e-01,9.99999e-01,9.99744e-01,3.27641e-02,9.99999e-01
5.504120634e-01,3.50463e-02,9.99999e-01,9.99999e-01,9.99814e-01,3.50528e-02,9.99999e-01
5.531641237e-01,3.74479e-02,9.99999e-01,9.99999e-01,9.99906e-01,3.74514e-02,9.99999e-01
5.559299443e-01,3.99601e-02,9.99999e-01,9.99999e-01,9.99954e-01,3.99619e-02,9.99999e-01
5.587095940e-01,4.25848e-02,9.99999e-01,9.99999e-01,9.99971e-01,4.25860e-02,9.99999e-01
5.615031420e-01,4.53240e-02,9.99999e-01,9.99999e-01,9.99968e-01,4.53254e-02,9.99999e-01
5.643106577e-01,4.81801e-02,9.99999e-01,9.99999e-01,9.99964e-01,4.81818e-02,9.99999e-01
5.671322110e-01,5.11343e-02,9.99999e-01,9.99999e-01,9.99569e-01,5.11563e-02,9.99999e-01
5.699678720e-01,5.42252e-02,9.99999e-01,9.99999e-01,9.99538e-01,5.42502e-02,9.99999e-01
5.728177114e-01,5.74371e-02,9.99999e-01,9.99999e-01,9.99521e-01,5.74646e-02,9.99999e-01
5.756818000e-01,6.07735e-02,9.99999e-01,9.99999e-01,9.99560e-01,6.08002e-02,9.99999e-01
5.785602090e-01,6.42332e-02,9.99999e-01,9.99999e-01,9.99616e-01,6.42578e-02,9.99999e-01
5.814530100e-01,6.78118e-02,9.99999e-01,9.99999e-01,9.99614e-01,6.78379e-02,9.99999e-01
5.843602750e-01,7.15080e-02,9.99999e-01,9.99999e-01,9.99542e-01,7.15408e-02,9.99999e-01
5.872820764e-01,7.50695e-02,9.99999e-01,9.99999e-01,9.96057e-01,7.53666e-02,9.99999e-01
5.902184868e-01,7.89357e-02,9.99999e-01,9.99999e-01,9.95212e-01,7.93154e-02,9.99999e-01
5.931695792e-01,8.31050e-02,9.99999e-01,9.99999e-01,9.96619e-01,8.33869e-02,9.99999e-01
5.961354271e-01,8.72561e-02,9.99999e-01,9.99999e-01,9.96292e-01,8.75808e-02,9.99999e-01
5.991161043e-01,9.16479e-02,9.99999e-01,9.99999e-01,9.97294e-01,9.18965e-02,9.99999e-01
6.021116848e-01,9.61853e-02,9.99999e-01,9.99999e-01,9.98463e-01,9.63333e-02,9.99999e-01
6.051222432e-01,1.00812e-01,9.99999e-01,9.99999e-01,9.99221e-01,1.00890e-01,9.99999e-01
6.081478544e-01,1.05531e-01,9.99999e-01,9.99999e-01,9.99664e-01,1.05566e-01,9.99999e-01
6.111885937e-01,1.10345e-01,9.99999e-01,9.99999e-01,9.99857e-01,1.10360e-01,9.99999e-01
6.142445367e-01,1.15264e-01,9.99999e-01,9.99999e-01,9.99936e-01,1.15271e-01,9.99999e-01
6.173157594e-01,1.20292e-01,9.99999e-01,9.99999e-01,9.99964e-01,1.20297e-01,9.99999e-01
6.204023382e-01,1.25432e-01,9.99999e-01,9.99999e-01,9.99970e-01,1.25436e-01,9.99999e-01
6.235043498e-01,1.30669e-01,9.99999e-01,9.99999e-01,9.99870e-01,1.30686e-01,9.99999e-01
6.266218716e-01,1.35952e-01,9.99999e-01,9.99999e-01,9.99310e-01,1.36046e-01,9.99999e-01
6.297549810e-01,1.41478e-01,9.99999e-01,9.99999e-01,9.99747e-01,1.41513e-01,9.99999e-01
6.329037559e-01,1.47013e-01,9.99999e-01,9.99999e-01,9.99499e-01,1.47086e-01,9.99999e-01
6.360682746e-01,1.52697e-01,9.99999e-01,9.99999e-01,9.99574e-01,1.52762e-01,9.99999e-01
6.392486160e-01,1.58450e-01,9.99999e-01,9.99999e-01,9.99448e-01,1.58537e-01,9.99999e-01
6.424448591e-01,1.64290e-01,9.99999e-01,9.99999e-01,9.99264e-01,1.64411e-01,9.99999e-01
6.456570834e-01,1.69798e-01,9.99999e-01,9.99999e-01,9.96585e-01,1.70380e-01,9.99999e-01
6.488853688e-01,1.75999e-01,9.99999e-01,9.99999e-01,9.97491e-01,1.76441e-01,9.99999e-01
6.521297956e-01,1.82125e-01,9.99999e-01,9.99999e-01,9.97442e-01,1.82592e-01,9.99999e-01
6.553904446e-01,1.88349e-01,9.99999e-01,9.99999e-01,9.97458e-01,1.88829e-01,9.99999e-01
6.586673968e-01,1.94725e-01,9.99999e-01,9.99999e-01,9.97819e-01,1.95150e-01,9.99999e-01
6.619607338e-01,2.01297e-01,9.99999e-01,9.99999e-01,9.98739e-01,2.01551e-01,9.99999e-01
6.652705375e-01,2.07878e-01,9.99999e-01,9.99999e-01,9.99269e-01,2.08030e-01,9.99999e-01
6.685968902e-01,2.14510e-01,9.99999e-01,9.99999e-01,9.99660e-01,2.14582e-01,9.99999e-01
6.719398746e-01,2.21171e-01,9.99999e-01,9.99999e-01,9.99842e-01,2.21206e-01,9.99999e-01
6.752995740e-01,2.27878e-01,9.99999e-01,9.99999e-01,9.99914e-01,2.27897e-01,9.99999e-01
6.786760719e-01,2.34624e-01,9.99999e-01,9.99999e-01,9.99877e-01,2.34652e-01,9.99999e-01
6.820694522e-01,2.41418e-01,9.99999e-01,9.99999e-01,9.99789e-01,2.41469e-01,9.99999e-01
6.854797995e-01,2.48275e-01,9.99999e-01,9.99999e-01,9.99728e-01,2.48342e-01,9.99999e-01
6.889071985e-01,2.55103e-01,9.99999e-01,9.99999e-01,9.99346e-01,2.55270e-01,9.99999e-01
6.923517345e-01,2.59453e-01,9.99999e-01,9.99999e-01,9.89340e-01,2.62249e-01,9.99999e-01
6.958134932e-01,2.67770e-01,9.99999e-01,9.99999e-01,9.94412e-01,2.69274e-01,9.99999e-01
6.992925606e-01,2.74885e-01,9.99999e-01,9.99999e-01,9.94721e-01,2.76344e-01,9.99999e-01
7.027890234e-01,2.81603e-01,9.99999e-01,9.99999e-01,9.93470e-01,2.83454e-01,9.99999e-01
7.063029686e-01,2.89006e-01,9.99999e-01,9.99999e-01,9.94510e-01,2.90601e-01,9.99999e-01
7.098344834e-01,2.96214e-01,9.99999e-01,9.99999e-01,9.94732e-01,2.97782e-01,9.99999e-01
7.133836558e-01,3.02861e-01,9.99999e-01,9.99999e-01,9.93008e-01,3.04993e-01,9.99999e-01
7.169505741e-01,2.95046e-01,9.99999e-01,9.99999e-01,9.44959e-01,3.12232e-01,9.99998e-01
7.205353270e-01,3.10724e-01,9.99999e-01,9.99999e-01,9.72550e-01,3.19494e-01,9.99998e-01
7.241380036e-01,3.15473e-01,9.99999e-01,9.99999e-01,9.65409e-01,3.26776e-01,9.99998e-01
7.277586936e-01,3.23628e-01,9.99999e-01,9.99999e-01,9.68725e-01,3.34076e-01,9.99998e-01
7.313974871e-01,3.30027e-01,9.99999e-01,9.99999e-01,9.66716e-01,3.41390e-01,9.99999e-01
7.350544745e-01,3.42332e-01,9.99999e-01,9.99999e-01,9.81697e-01,3.48714e-01,9.99999e-01
7.387297469e-01,3.51241e-01,9.99999e-01,9.99999e-01,9.86500e-01,3.56047e-01,9.99999e-01
7.424233956e-01,3.60976e-01,9.99999e-01,9.99999e-01,9.93371e-01,3.63384e-01,9.99999e-01
7.461355126e-01,3.69233e-01,9.99999e-01,9.99999e-01,9.95980e-01,3.70723e-01,9.99999e-01
7.498661902e-01,3.77353e-01,9.99999e-01,9.99999e-01,9.98125e-01,3.78061e-01,9.99999e-01
7.536155211e-01,3.85041e-01,9.99999e-01,9.99999e-01,9.99080e-01,3.85395e-01,9.99999e-01
7.573835987e-01,3.92537e-01,9.99999e-01,9.99999e-01,9.99526e-01,3.92723e-01,9.99999e-01
7.611705167e-01,3.99923e-01,9.99999e-01,9.99999e-01,9.99705e-01,4.00040e-01,9.99999e-01
7.649763693e-01,4.07271e-01,9.99999e-01,9.99999e-01,9.99815e-01,4.07346e-01,9.99999e-01
7.688012511e-01,4.14583e-01,9.99999e-01,9.99999e-01,9.99871e-01,4.14636e-01,9.99999e-01
7.726452574e-01,4.21865e-01,9.99999e-01,9.99999e-01,9.99894e-01,4.21909e-01,9.99999e-01
7.765084837e-01,4.29099e-01,9.99999e-01,9.99999e-01,9.99850e-01,4.29163e-01,9.99999e-01
7.803910261e-01,4.19552e-01,9.99999e-01,9.62004e-01,9.99353e-01,4.36394e-01,9.99999e-01
7.842929812e-01,3.71728e-01,9.99999e-01,8.39767e-01,9.97746e-01,4.43600e-01,9.99999e-01
7.882144461e-01,3.72430e-01,9.99999e-01,8.29876e-01,9.95349e-01,4.50780e-01,9.99999e-01
7.921555184e-01,4.09527e-01,9.99999e-01,8.96527e-01,9.97444e-01,4.57931e-01,9.99999e-01
7.961162960e-01,4.30243e-01,9.99999e-01,9.29289e-01,9.95500e-01,4.65050e-01,9.99999e-01
8.000968774e-01,4.51392e-01,9.99999e-01,9.61047e-01,9.94795e-01,4.72136e-01,9.99999e-01
8.040973618e-01,4.66978e-01,9.99999e-01,9.79606e-01,9.94796e-01,4.79188e-01,9.99999e-01
8.081178486e-01,4.76015e-01,9.99999e-01,9.90597e-01,9.88321e-01,4.86202e-01,9.99999e-01
8.121584379e-01,4.68221e-01,9.99999e-01,9.97080e-01,9.52145e-01,4.93177e-01,9.99998e-01
8.162192301e-01,4.71446e-01,9.99999e-01,9.99354e-01,9.43277e-01,5.00111e-01,9.99998e-01
8.203003262e-01,4.92542e-01,9.99999e-01,9.99989e-01,9.71485e-01,5.07003e-01,9.99998e-01
8.244018279e-01,4.93339e-01,9.99999e-01,9.99999e-01,9.60082e-01,5.13851e-01,9.99998e-01
8.285238370e-01,5.02863e-01,9.99999e-01,9.99999e-01,9.65830e-01,5.20654e-01,9.99998e-01
8.326664562e-01,5.09172e-01,9.99999e-01,9.99999e-01,9.65421e-01,5.27409e-01,9.99999e-01
8.368297885e-01,5.20857e-01,9.99999e-01,9.99999e-01,9.75174e-01,5.34117e-01,9.99999e-01
8.410139374e-01,5.32759e-01,9.99999e-01,9.99999e-01,9.85178e-01,5.40774e-01,9.99999e-01
8.452190071e-01,5.43388e-01,9.99999e-01,9.99999e-01,9.92705e-01,5.47381e-01,9.99999e-01
8.494451021e-01,5.51591e-01,9.99999e-01,9.99999e-01,9.95767e-01,5.53935e-01,9.99999e-01
8.536923276e-01,5.59032e-01,9.99999e-01,9.99999e-01,9.97492e-01,5.60436e-01,9.99999e-01
8.579607893e-01,5.66009e-01,9.99999e-01,9.99999e-01,9.98456e-01,5.66883e-01,9.99999e-01
8.622505932e-01,5.72712e-01,9.99999e-01,9.99999e-01,9.99018e-01,5.73274e-01,9.99999e-01
8.665618462e-01,5.32648e-01,9.99999e-01,9.19510e-01,9.99393e-01,5.79610e-01,9.99999e-01
8.708946554e-01,3.76559e-01,9.99999e-01,6.43143e-01,9.99306e-01,5.85887e-01,9.99999e-01
8.752491287e-01,4.13901e-01,9.99999e-01,6.99657e-01,9.99071e-01,5.92107e-01,9.99999e-01
8.796253743e-01,4.90776e-01,9.99999e-01,8.21346e-01,9.98715e-01,5.98268e-01,9.99999e-01
8.840235012e-01,5.44874e-01,9.99999e-01,9.02858e-01,9.98532e-01,6.04370e-01,9.99999e-01
8.884436187e-01,5.83200e-01,9.99999e-01,9.60474e-01,9.94679e-01,6.10412e-01,9.99999e-01
8.928858368e-01,5.73216e-01,9.99999e-01,9.83808e-01,9.45105e-01,6.16392e-01,9.99998e-01
8.973502660e-01,5.60817e-01,9.99999e-01,9.96037e-01,9.04685e-01,6.22312e-01,9.99998e-01
9.018370173e-01,5.96544e-01,9.99999e-01,9.99562e-01,9.50055e-01,6.28170e-01,9.99998e-01
9.063462024e-01,5.99673e-01,9.99999e-01,9.88934e-01,9.56110e-01,6.33965e-01,9.99997e-01
9.108779334e-01,5.81443e-01,9.99999e-01,9.74589e-01,9.32296e-01,6.39698e-01,9.99997e-01
9.154323231e-01,5.92422e-01,9.99999e-01,9.93962e-01,9.23399e-01,6.45368e-01,9.99997e-01
9.200094847e-01,5.62962e-01,9.99999e-01,9.17119e-01,9.39456e-01,6.50975e-01,9.99996e-01
9.246095321e-01,5.26716e-01,9.99999e-01,8.81705e-01,9.07620e-01,6.56518e-01,9.99995e-01
9.292325798e-01,3.18014e-01,9.99999e-01,9.06429e-01,5.23908e-01,6.61998e-01,9.99990e-01
9.338787427e-01,2.66281e-01,9.99999e-01,9.09085e-01,4.33975e-01,6.67414e-01,9.99987e-01
9.385481364e-01,4.49673e-01,9.99999e-01,9.32321e-01,7.13636e-01,6.72766e-01,9.99987e-01
9.432408771e-01,4.08948e-01,9.99999e-01,9.57960e-01,6.27920e-01,6.78053e-01,9.99985e-01
9.479570815e-01,3.53246e-01,9.99999e-01,9.78222e-01,5.27800e-01,6.83277e-01,9.99987e-01
9.526968669e-01,4.20570e-01,9.99999e-01,9.89436e-01,6.16785e-01,6.88437e-01,9.99990e-01
9.574603512e-01,4.41391e-01,9.99999e-01,9.95469e-01,6.39120e-01,6.93532e-01,9.99992e-01
9.622476530e-01,4.84092e-01,9.99999e-01,9.98584e-01,6.93900e-01,6.98563e-01,9.99995e-01
9.670588912e-01,5.69620e-01,9.99999e-01,9.99575e-01,8.09984e-01,7.03531e-01,9.99996e-01
9.718941857e-01,6.20810e-01,9.99999e-01,9.99969e-01,8.76337e-01,7.08434e-01,9.99997e-01
9.767536566e-01,6.39246e-01,9.99999e-01,9.99999e-01,8.96214e-01,7.13274e-01,9.99998e-01
9.816374249e-01,6.61995e-01,9.99999e-01,9.99999e-01,9.21932e-01,7.18051e-01,9.99998e-01
9.865456120e-01,6.86970e-01,9.99999e-01,9.99999e-01,9.50476e-01,7.22764e-01,9.99999e-01
9.914783401e-01,7.04936e-01,9.99999e-01,9.99999e-01,9.69098e-01,7.27414e-01,9.99999e-01
9.964357318e-01,7.19596e-01,9.99999e-01,9.99999e-01,9.83052e-01,7.32001e-01,9.99999e-01
1.001417910e+00,7.29021e-01,9.99999e-01,9.99999e-01,9.89809e-01,7.36526e-01,9.99999e-01
1.006425000e+00,7.36678e-01,9.99999e-01,9.99999e-01,9.94182e-01,7.40988e-01,9.99999e-01
1.011457125e+00,7.42693e-01,9.99999e-01,9.99999e-01,9.96383e-01,7.45389e-01,9.99999e-01
1.016514411e+00,7.47887e-01,9.99999e-01,9.99999e-01,9.97544e-01,7.49728e-01,9.99999e-01
1.021596983e+00,7.52488e-01,9.99999e-01,9.99942e-01,9.98043e-01,7.54006e-01,9.99999e-01
1.026704968e+00,7.53794e-01,9.99999e-01,9.95675e-01,9.98474e-01,7.58223e-01,9.99999e-01
1.031838492e+00,7.24966e-01,9.99999e-01,9.51946e-01,9.98890e-01,7.62379e-01,9.99999e-01
1.036997685e+00,1.02547e-01,9.99999e-01,1.33860e-01,9.99340e-01,7.66476e-01,9.99999e-01
1.042182673e+00,6.78231e-02,9.99999e-01,8.80837e-02,9.99215e-01,7.70513e-01,9.99999e-01
1.047393587e+00,8.74584e-02,9.99999e-01,1.13027e-01,9.98958e-01,7.74491e-01,9.99999e-01
1.052630555e+00,1.51114e-03,9.99999e-01,1.94331e-03,9.98571e-01,7.78410e-01,9.99999e-01
1.057893707e+00,4.11831e-03,9.99999e-01,5.27272e-03,9.97617e-01,7.82271e-01,9.99999e-01
1.063183176e+00,1.61646e-02,9.99999e-01,2.06199e-02,9.96080e-01,7.86075e-01,9.99999e-01
1.068499092e+00,5.15785e-02,9.99999e-01,6.56581e-02,9.93441e-01,7.89821e-01,9.99999e-01
1.073841587e+00,1.40512e-01,9.99999e-01,1.78220e-01,9.92332e-01,7.93511e-01,9.99999e-01
1.079210795e+00,2.65004e-01,9.99999e-01,3.35406e-01,9.90174e-01,7.97144e-01,9.99999e-01
1.084606849e+00,4.31850e-01,9.99999e-01,5.47013e-01,9.85168e-01,8.00722e-01,9.99999e-01
1.090029883e+00,5.75791e-01,9.99999e-01,7.30960e-01,9.78792e-01,8.04245e-01,9.99998e-01
1.095480033e+00,6.53251e-01,9.99999e-01,8.56821e-01,9.43228e-01,8.07713e-01,9.99998e-01
1.100957433e+00,6.49654e-01,9.99999e-01,9.28237e-01,8.62082e-01,8.11127e-01,9.99996e-01
1.106462220e+00,5.43402e-01,9.99999e-01,9.69662e-01,6.87183e-01,8.14488e-01,9.99994e-01
1.111994531e+00,3.68681e-01,9.99999e-01,9.88645e-01,4.55584e-01,8.17796e-01,9.99988e-01
1.117554504e+00,2.31122e-01,9.99999e-01,9.97213e-01,2.82121e-01,8.21051e-01,9.99983e-01
1.123142276e+00,3.29102e-01,9.99999e-01,9.99816e-01,3.99310e-01,8.24255e-01,9.99980e-01
1.128757988e+00,4.56181e-01,9.99999e-01,9.99999e-01,5.51348e-01,8.27408e-01,9.99979e-01
1.134401778e+00,2.46707e-01,9.99999e-01,9.99999e-01,2.97061e-01,8.30510e-01,9.99976e-01
1.140073787e+00,5.82533e-01,9.99999e-01,9.99999e-01,6.98860e-01,8.33562e-01,9.99981e-01
1.145774156e+00,3.98949e-01,9.99999e-01,9.99999e-01,4.76897e-01,8.36565e-01,9.99984e-01
1.151503026e+00,3.69207e-01,9.99999e-01,9.99999e-01,4.39789e-01,8.39519e-01,9.99986e-01
1.157260541e+00,4.20515e-01,9.99999e-01,9.99999e-01,4.99177e-01,8.42425e-01,9.99989e-01
1.163046844e+00,5.05067e-01,9.99999e-01,9.99999e-01,5.97516e-01,8.45283e-01,9.99993e-01
1.168862078e+00,5.92066e-01,9.99999e-01,9.99999e-01,6.98116e-01,8.48094e-01,9.99996e-01
1.174706389e+00,6.81592e-01,9.99999e-01,9.99999e-01,8.01064e-01,8.50858e-01,9.99997e-01
1.180579921e+00,7.45648e-01,9.99999e-01,9.99999e-01,8.73557e-01,8.53577e-01,9.99998e-01
1.186482820e+00,7.93255e-01,9.99999e-01,9.99992e-01,9.26435e-01,8.56251e-01,9.99998e-01
1.192415234e+00,8.09023e-01,9.99999e-01,9.84699e-01,9.56396e-01,8.58879e-01,9.99998e-01
1.198377311e+00,4.65625e-01,9.99999e-01,5.57733e-01,9.63143e-01,8.61464e-01,9.99998e-01
1.204369197e+00,1.12452e-12,9.99999e-01,1.32850e-12,9.65089e-01,8.64005e-01,9.99998e-01
1.210391043e+00,5.19108e-47,9.99999e-01,6.10492e-47,9.66583e-01,8.66503e-01,9.99999e-01
1.216442998e+00,7.16634e-41,9.99999e-01,8.39578e-41,9.71485e-01,8.68959e-01,9.99999e-01
1.222525213e+00,2.82265e-40,9.99999e-01,3.27704e-40,9.77736e-01,8.71374e-01,9.99999e-01
1.228637839e+00,3.36833e-31,9.99999e-01,3.89673e-31,9.84492e-01,8.73747e-01,9.99999e-01
