#,Wave/freq,Total,O2,CO2,H2O,Rayleigh,CIA
4.000000000e-01,2.39309e-22,9.99999e-01,9.99999e-01,9.99902e-01,2.39333e-22,9.99999e-01
4.020000000e-01,6.40432e-22,9.99999e-01,9.99999e-01,9.99939e-01,6.40471e-22,9.99999e-01
4.040100000e-01,1.67924e-21,9.99999e-01,9.99999e-01,9.99974e-01,1.67928e-21,9.99999e-01
4.060300500e-01,4.31993e-21,9.99999e-01,9.99999e-01,9.99993e-01,4.31995e-21,9.99999e-01
4.080602003e-01,1.09076e-20,9.99999e-01,9.99999e-01,9.99997e-01,1.09076e-20,9.99999e-01
4.101005013e-01,2.70416e-20,9.99999e-01,9.99999e-01,9.99999e-01,2.70416e-20,9.99999e-01
4.121510038e-01,6.58487e-20,9.99999e-01,9.99999e-01,9.99995e-01,6.58489e-20,9.99999e-01
4.142117588e-01,1.57550e-19,9.99999e-01,9.99999e-01,9.99972e-01,1.57554e-19,9.99999e-01
4.162828176e-01,3.70489e-19,9.99999e-01,9.99999e-01,9.99879e-01,3.70533e-19,9.99999e-01
4.183642317e-01,8.56757e-19,9.99999e-01,9.99999e-01,9.99927e-01,8.56818e-19,9.99999e-01
4.204560528e-01,1.94868e-18,9.99999e-01,9.99999e-01,9.99955e-01,1.94876e-18,9.99999e-01
4.225583331e-01,4.36087e-18,9.99999e-01,9.99999e-01,9.99983e-01,4.36094e-18,9.99999e-01
4.246711247e-01,9.60474e-18,9.99999e-01,9.99999e-01,9.99986e-01,9.60486e-18,9.99999e-01
4.267944804e-01,2.08267e-17,9.99999e-01,9.99999e-01,9.99980e-01,2.08271e-17,9.99999e-01
4.289284528e-01,4.44755e-17,9.99999e-01,9.99999e-01,9.99984e-01,4.44762e-17,9.99999e-01
4.310730950e-01,9.35653e-17,9.99999e-01,9.99999e-01,9.99993e-01,9.35659e-17,9.99999e-01
4.332284605e-01,1.93967e-16,9.99999e-01,9.99999e-01,9.99997e-01,1.93967e-16,9.99999e-01
4.353946028e-01,3.96354e-16,9.99999e-01,9.99999e-01,9.99998e-01,3.96355e-16,9.99999e-01
4.375715758e-01,7.98555e-16,9.99999e-01,9.99999e-01,9.99987e-01,7.98565e-16,9.99999e-01
4.397594337e-01,1.58665e-15,9.99999e-01,9.99999e-01,9.99892e-01,1.58682e-15,9.99999e-01
4.419582309e-01,3.10896e-15,9.99999e-01,9.99999e-01,9.99452e-01,3.11066e-15,9.99999e-01
4.441680220e-01,6.01484e-15,9.99999e-01,9.99999e-01,9.99582e-01,6.01735e-15,9.99999e-01
4.463888621e-01,1.14844e-14,9.99999e-01,9.99999e-01,9.99562e-01,1.14894e-14,9.99999e-01
4.486208064e-01,2.16533e-14,9.99999e-01,9.99999e-01,9.99729e-01,2.16591e-14,9.99999e-01
4.508639105e-01,4.03172e-14,9.99999e-01,9.99999e-01,9.99873e-01,4.03223e-14,9.99999e-01
4.531182300e-01,7.41477e-14,9.99999e-01,9.99999e-01,9.99949e-01,7.41514e-14,9.99999e-01
4.553838212e-01,1.34726e-13,9.99999e-01,9.99999e-01,9.99965e-01,1.34731e-13,9.99999e-01
4.576607403e-01,2.41928e-13,9.99999e-01,9.99999e-01,9.99983e-01,2.41931e-13,9.99999e-01
4.599490440e-01,4.29428e-13,9.99999e-01,9.99999e-01,9.99988e-01,4.29433e-13,9.99999e-01
4.622487892e-01,7.53660e-13,9.99999e-01,9.99999e-01,9.99997e-01,7.53661e-13,9.99999e-01
4.645600332e-01,1.30806e-12,9.99999e-01,9.99999e-01,9.99991e-01,1.30807e-12,9.99999e-01
4.668828333e-01,2.24544e-12,9.99999e-01,9.99999e-01,9.99870e-01,2.24573e-12,9.99999e-01
4.692172475e-01,3.81354e-12,9.99999e-01,9.99999e-01,9.99725e-01,3.81459e-12,9.99999e-01
4.715633337e-01,6.41083e-12,9.99999e-01,9.99999e-01,9.99820e-01,6.41198e-12,9.99999e-01
4.739211504e-01,1.06662e-11,9.99999e-01,9.99999e-01,9.99828e-01,1.06680e-11,9.99999e-01
4.762907561e-01,1.75698e-11,9.99999e-01,9.99999e-01,9.99911e-01,1.75713e-11,9.99999e-01
4.786722099e-01,2.86570e-11,9.99999e-01,9.99999e-01,9.99963e-01,2.86580e-11,9.99999e-01
4.810655710e-01,4.62900e-11,9.99999e-01,9.99999e-01,9.99988e-01,4.62905e-11,9.99999e-01
4.834708988e-01,7.40589e-11,9.99999e-01,9.99999e-01,9.99891e-01,7.40669e-11,9.99999e-01
4.858882533e-01,1.17392e-10,9.99999e-01,9.99999e-01,9.99806e-01,1.17415e-10,9.99999e-01
4.883176946e-01,1.84417e-10,9.99999e-01,9.99999e-01,9.99836e-01,1.84447e-10,9.99999e-01
4.907592831e-01,2.87132e-10,9.99999e-01,9.99999e-01,9.99853e-01,2.87174e-10,9.99999e-01
4.932130795e-01,4.43175e-10,9.99999e-01,9.99999e-01,9.99895e-01,4.43221e-10,9.99999e-01
4.956791449e-01,6.78186e-10,9.99999e-01,9.99999e-01,9.99944e-01,6.78223e-10,9.99999e-01
4.981575406e-01,1.02886e-09,9.99999e-01,9.99999e-01,9.99722e-01,1.02914e-09,9.99999e-01
5.006483283e-01,1.54770e-09,9.99999e-01,9.99999e-01,9.99277e-01,1.54882e-09,9.99999e-01
5.031515699e-01,2.30379e-09,9.99999e-01,9.99999e-01,9.96375e-01,2.31217e-09,9.99999e-01
5.056673278e-01,3.41801e-09,9.99999e-01,9.99999e-01,9.98092e-01,3.42454e-09,9.99999e-01
5.081956644e-01,5.02076e-09,9.99999e-01,9.99999e-01,9.97595e-01,5.03286e-09,9.99999e-01
5.107366428e-01,7.32858e-09,9.99999e-01,9.99999e-01,9.98376e-01,7.34049e-09,9.99999e-01
5.132903260e-01,1.06168e-08,9.99999e-01,9.99999e-01,9.99073e-01,1.06267e-08,9.99999e-01
5.158567776e-01,1.52660e-08,9.99999e-01,9.99999e-01,9.99609e-01,1.52720e-08,9.99999e-01
5.184360615e-01,2.17879e-08,9.99999e-01,9.99999e-01,9.99843e-01,2.17913e-08,9.99999e-01
5.210282418e-01,3.08742e-08,9.99999e-01,9.99999e-01,9.99940e-01,3.08760e-08,9.99999e-01
5.236333830e-01,4.34377e-08,9.99999e-01,9.99999e-01,9.99763e-01,4.34480e-08,9.99999e-01
5.262515499e-01,6.07189e-08,9.99999e-01,9.99999e-01,9.99852e-01,6.07278e-08,9.99999e-01
5.288828077e-01,8.43091e-08,9.99999e-01,9.99999e-01,9.99863e-01,8.43206e-08,9.99999e-01
5.315272217e-01,1.16309e-07,9.99999e-01,9.99999e-01,9.99881e-01,1.16323e-07,9.99999e-01
5.341848578e-01,1.59441e-07,9.99999e-01,9.99999e-01,9.99921e-01,1.59454e-07,9.99999e-01
5.368557821e-01,2.17160e-07,9.99999e-01,9.99999e-01,9.99722e-01,2.17220e-07,9.99999e-01
5.395400610e-01,2.93816e-07,9.99999e-01,9.99999e-01,9.98994e-01,2.94111e-07,9.99999e-01
5.422377613e-01,3.95339e-07,9.99999e-01,9.99999e-01,9.98722e-01,3.95845e-07,9.99999e-01
5.449489501e-01,5.29017e-07,9.99999e-01,9.99999e-01,9.98801e-01,5.29651e-07,9.99999e-01
5.476736949e-01,7.03882e-07,9.99999e-01,9.99999e-01,9.98948e-01,7.04622e-07,9.99999e-01
5.504120634e-01,9.31414e-07,9.99999e-01,9.99999e-01,9.99236e-01,9.32126e-07,9.99999e-01
5.531641237e-01,1.22582e-06,9.99999e-01,9.99999e-01,9.99615e-01,1.22629e-06,9.99999e-01
5.559299443e-01,1.60427e-06,9.99999e-01,9.99999e-01,9.99814e-01,1.60456e-06,9.99999e-01
5.587095940e-01,2.08817e-06,9.99999e-01,9.99999e-01,9.99882e-01,2.08841e-06,9.99999e-01
5.615031420e-01,2.70369e-06,9.99999e-01,9.99999e-01,9.99869e-01,2.70404e-06,9.99999e-01
5.643106577e-01,3.48281e-06,9.99999e-01,9.99999e-01,9.99850e-01,3.48333e-06,9.99999e-01
5.671322110e-01,4.45667e-06,9.99999e-01,9.99999e-01,9.98174e-01,4.46482e-06,9.99999e-01
5.699678720e-01,5.68413e-06,9.99999e-01,9.99999e-01,9.98114e-01,5.69487e-06,9.99999e-01
5.728177114e-01,7.21460e-06,9.99999e-01,9.99999e-01,9.98012e-01,7.22896e-06,9.99999e-01
5.756818000e-01,9.11656e-06,9.99999e-01,9.99999e-01,9.98180e-01,9.13318e-06,9.99999e-01
5.785602090e-01,1.14676e-05,9.99999e-01,9.99999e-01,9.98417e-01,1.14858e-05,9.99999e-01
5.814530100e-01,1.43563e-05,9.99999e-01,9.99999e-01,9.98406e-01,1.43792e-05,9.99999e-01
5.843602750e-01,1.78875e-05,9.99999e-01,9.99999e-01,9.98085e-01,1.79219e-05,9.99999e-01
5.872820764e-01,2.18769e-05,9.99999e-01,9.99999e-01,9.83659e-01,2.22403e-05,9.99999e-01
5.902184868e-01,2.69427e-05,9.99999e-01,9.99999e-01,9.80380e-01,2.74818e-05,9.99999e-01
5.931695792e-01,3.33462e-05,9.99999e-01,9.99999e-01,9.86076e-01,3.38171e-05,9.99999e-01
5.961354271e-01,4.08113e-05,9.99999e-01,9.99999e-01,9.84767e-01,4.14426e-05,9.99999e-01
5.991161043e-01,5.00213e-05,9.99999e-01,9.99999e-01,9.88876e-01,5.05840e-05,9.99999e-01
6.021116848e-01,6.11106e-05,9.99999e-01,9.99999e-01,9.93681e-01,6.14992e-05,9.99999e-01
6.051222432e-01,7.42434e-05,9.99999e-01,9.99999e-01,9.96799e-01,7.44817e-05,9.99999e-01
6.081478544e-01,8.97400e-05,9.99999e-01,9.99999e-01,9.98616e-01,8.98642e-05,9.99999e-01
6.111885937e-01,1.07959e-04,9.99999e-01,9.99999e-01,9.99416e-01,1.08022e-04,9.99999e-01
6.142445367e-01,1.29345e-04,9.99999e-01,9.99999e-01,9.99738e-01,1.29378e-04,9.99999e-01
6.173157594e-01,1.54383e-04,9.99999e-01,9.99999e-01,9.99855e-01,1.54405e-04,9.99999e-01
6.204023382e-01,1.83608e-04,9.99999e-01,9.99999e-01,9.99876e-01,1.83631e-04,9.99999e-01
6.235043498e-01,2.17522e-04,9.99999e-01,9.99999e-01,9.99450e-01,2.17641e-04,9.99999e-01
6.266218716e-01,2.56354e-04,9.99999e-01,9.99999e-01,9.97146e-01,2.57087e-04,9.99999e-01
6.297549810e-01,3.02367e-04,9.99999e-01,9.99999e-01,9.98952e-01,3.02684e-04,9.99999e-01
6.329037559e-01,3.54489e-04,9.99999e-01,9.99999e-01,9.97937e-01,3.55221e-04,9.99999e-01
6.360682746e-01,4.14828e-04,9.99999e-01,9.99999e-01,9.98234e-01,4.15561e-04,9.99999e-01
6.392486160e-01,4.83541e-04,9.99999e-01,9.99999e-01,9.97717e-01,4.84647e-04,9.99999e-01
6.424448591e-01,5.61769e-04,9.99999e-01,9.99999e-01,9.96920e-01,5.63504e-04,9.99999e-01
6.456570834e-01,6.43960e-04,9.99999e-01,9.99999e-01,9.85789e-01,6.53243e-04,9.99999e-01
6.488853688e-01,7.47292e-04,9.99999e-01,9.99999e-01,9.89703e-01,7.55066e-04,9.99999e-01
6.521297956e-01,8.61140e-04,9.99999e-01,9.99999e-01,9.89512e-01,8.70266e-04,9.99999e-01
6.553904446e-01,9.89723e-04,9.99999e-01,9.99999e-01,9.89491e-01,1.00023e-03,9.99999e-01
6.586673968e-01,1.13618e-03,9.99999e-01,9.99999e-01,9.91039e-01,1.14646e-03,9.99999e-01
6.619607338e-01,1.30396e-03,9.99999e-01,9.99999e-01,9.94996e-01,1.31052e-03,9.99999e-01
6.652705375e-01,1.48961e-03,9.99999e-01,9.99999e-01,9.96994e-01,1.49410e-03,9.99999e-01
6.685968902e-01,1.69683e-03,9.99999e-01,9.99999e-01,9.98722e-01,1.69900e-03,9.99999e-01
6.719398746e-01,1.92585e-03,9.99999e-01,9.99999e-01,9.99352e-01,1.92710e-03,9.99999e-01
6.752995740e-01,2.17964e-03,9.99999e-01,9.99999e-01,9.99657e-01,2.18038e-03,9.99999e-01
6.786760719e-01,2.45969e-03,9.99999e-01,9.99999e-01,9.99487e-01,2.46095e-03,9.99999e-01
6.820694522e-01,2.76856e-03,9.99999e-01,9.99999e-01,9.99119e-01,2.77100e-03,9.99999e-01
6.854797995e-01,3.10929e-03,9.99999e-01,9.99999e-01,9.98874e-01,3.11279e-03,9.99999e-01
6.889071985e-01,3.47909e-03,9.99999e-01,9.99999e-01,9.97237e-01,3.48872e-03,9.99999e-01
6.923517345e-01,3.73096e-03,9.99999e-01,9.99999e-01,9.56347e-01,3.90126e-03,9.99999e-01
6.958134932e-01,4.25538e-03,9.99999e-01,9.99999e-01,9.77582e-01,4.35296e-03,9.99998e-01
6.992925606e-01,4.74066e-03,9.99999e-01,9.99999e-01,9.78170e-01,4.84646e-03,9.99998e-01
7.027890234e-01,5.24089e-03,9.99999e-01,9.99999e-01,9.73334e-01,5.38447e-03,9.99998e-01
7.063029686e-01,5.83542e-03,9.99999e-01,9.99999e-01,9.77492e-01,5.96978e-03,9.99999e-01
7.098344834e-01,6.46249e-03,9.99999e-01,9.99999e-01,9.78387e-01,6.60525e-03,9.99998e-01
7.133836558e-01,7.08234e-03,9.99999e-01,9.99999e-01,9.71014e-01,7.29376e-03,9.99998e-01
7.169505741e-01,6.38293e-03,9.99999e-01,9.99999e-01,7.94067e-01,8.03829e-03,9.99996e-01
7.205353270e-01,7.90921e-03,9.99999e-01,9.99999e-01,8.94525e-01,8.84182e-03,9.99996e-01
7.241380036e-01,8.40256e-03,9.99999e-01,9.99999e-01,8.65586e-01,9.70739e-03,9.99996e-01
7.277586936e-01,9.34088e-03,9.99999e-01,9.99999e-01,8.78064e-01,1.06381e-02,9.99996e-01
7.313974871e-01,1.01361e-02,9.99999e-01,9.99999e-01,8.71032e-01,1.16369e-02,9.99997e-01
7.350544745e-01,1.17794e-02,9.99999e-01,9.99999e-01,9.27002e-01,1.27069e-02,9.99998e-01
7.387297469e-01,1.30985e-02,9.99999e-01,9.99999e-01,9.45650e-01,1.38513e-02,9.99998e-01
7.424233956e-01,1.46670e-02,9.99999e-01,9.99999e-01,9.73058e-01,1.50731e-02,9.99999e-01
7.461355126e-01,1.61059e-02,9.99999e-01,9.99999e-01,9.83554e-01,1.63752e-02,9.99999e-01
7.498661902e-01,1.76245e-02,9.99999e-01,9.99999e-01,9.92332e-01,1.77607e-02,9.99999e-01
7.536155211e-01,1.91599e-02,9.99999e-01,9.99999e-01,9.96219e-01,1.92326e-02,9.99999e-01
7.573835987e-01,2.07533e-02,9.99999e-01,9.99999e-01,9.98053e-01,2.07937e-02,9.99999e-01
7.611705167e-01,2.24198e-02,9.99999e-01,9.99999e-01,9.98789e-01,2.24470e-02,9.99999e-01
7.649763693e-01,2.41767e-02,9.99999e-01,9.99999e-01,9.99240e-01,2.41950e-02,9.99999e-01
7.688012511e-01,2.60268e-02,9.99999e-01,9.99999e-01,9.99469e-01,2.60406e-02,9.99999e-01
7.726452574e-01,2.79742e-02,9.99999e-01,9.99999e-01,9.99563e-01,2.79864e-02,9.99999e-01
7.765084837e-01,3.00159e-02,9.99999e-01,9.99999e-01,9.99375e-01,3.00347e-02,9.99999e-01
7.803910261e-01,2.81804e-02,9.99999e-01,8.77608e-01,9.97297e-01,3.21880e-02,9.99999e-01
7.842929812e-01,1.76732e-02,9.99999e-01,5.17114e-01,9.90597e-01,3.44485e-02,9.99999e-01
7.882144461e-01,1.80922e-02,9.99999e-01,4.99657e-01,9.80889e-01,3.68184e-02,9.99999e-01
7.921555184e-01,2.50552e-02,9.99999e-01,6.43644e-01,9.89538e-01,3.92997e-02,9.99999e-01
7.961162960e-01,3.05191e-02,9.99999e-01,7.41774e-01,9.81364e-01,4.18941e-02,9.99999e-01
8.000968774e-01,3.71090e-02,9.99999e-01,8.49923e-01,9.78608e-01,4.46035e-02,9.99999e-01
8.040973618e-01,4.26753e-02,9.99999e-01,9.19281e-01,9.78578e-01,4.74294e-02,9.99998e-01
8.081178486e-01,4.61523e-02,9.99999e-01,9.61875e-01,9.52218e-01,5.03731e-02,9.99998e-01
8.121584379e-01,4.31839e-02,9.99999e-01,9.88196e-01,8.17363e-01,5.34359e-02,9.99997e-01
8.162192301e-01,4.46096e-02,9.99999e-01,9.97378e-01,7.89790e-01,5.66189e-02,9.99996e-01
8.203003262e-01,5.33332e-02,9.99999e-01,9.99964e-01,8.90048e-01,5.99230e-02,9.99995e-01
8.244018279e-01,5.41620e-02,9.99999e-01,9.99999e-01,8.54981e-01,6.33489e-02,9.99995e-01
8.285238370e-01,5.79885e-02,9.99999e-01,9.99999e-01,8.66831e-01,6.68972e-02,9.99996e-01
8.326664562e-01,6.11367e-02,9.99999e-01,9.99999e-01,8.66349e-01,7.05682e-02,9.99997e-01
8.368297885e-01,6.70782e-02,9.99999e-01,9.99999e-01,9.02048e-01,7.43621e-02,9.99998e-01
8.410139374e-01,7.36216e-02,9.99999e-01,9.99999e-01,9.40502e-01,7.82790e-02,9.99999e-01
8.452190071e-01,7.98793e-02,9.99999e-01,9.99999e-01,9.70365e-01,8.23187e-02,9.99999e-01
8.494451021e-01,8.49780e-02,9.99999e-01,9.99999e-01,9.82620e-01,8.64809e-02,9.99999e-01
8.536923276e-01,8.98324e-02,9.99999e-01,9.99999e-01,9.89723e-01,9.07651e-02,9.99999e-01
8.579607893e-01,9.45653e-02,9.99999e-01,9.99999e-01,9.93639e-01,9.51705e-02,9.99999e-01
8.622505932e-01,9.92942e-02,9.99999e-01,9.99999e-01,9.95965e-01,9.96964e-02,9.99999e-01
8.665618462e-01,8.73135e-02,9.99999e-01,8.38744e-01,9.97492e-01,1.04342e-01,9.99999e-01
8.708946554e-01,2.19533e-02,9.99999e-01,2.01725e-01,9.97123e-01,1.09105e-01,9.99999e-01
8.752491287e-01,2.90917e-02,9.99999e-01,2.56116e-01,9.96156e-01,1.13986e-01,9.99999e-01
8.796253743e-01,5.47694e-02,9.99999e-01,4.62512e-01,9.94663e-01,1.18982e-01,9.99999e-01
8.840235012e-01,8.17186e-02,9.99999e-01,6.62300e-01,9.93913e-01,1.24091e-01,9.99999e-01
8.884436187e-01,1.07446e-01,9.99999e-01,8.48996e-01,9.77695e-01,1.29313e-01,9.99998e-01
8.928858368e-01,1.00260e-01,9.99999e-01,9.35411e-01,7.93859e-01,1.34645e-01,9.99996e-01
8.973502660e-01,9.24037e-02,9.99999e-01,9.83992e-01,6.69392e-01,1.40085e-01,9.99994e-01
9.018370173e-01,1.18686e-01,9.99999e-01,9.98228e-01,8.16240e-01,1.45630e-01,9.99993e-01
9.063462024e-01,1.21118e-01,9.99999e-01,9.55342e-01,8.32799e-01,1.51279e-01,9.99992e-01
9.108779334e-01,1.07042e-01,9.99999e-01,9.00084e-01,7.53247e-01,1.57029e-01,9.99991e-01
9.154323231e-01,1.15320e-01,9.99999e-01,9.75832e-01,7.23934e-01,1.62878e-01,9.99991e-01
9.200094847e-01,1.02412e-01,9.99999e-01,7.47038e-01,7.77970e-01,1.68822e-01,9.99988e-01
9.246095321e-01,7.37847e-02,9.99999e-01,6.00142e-01,6.83505e-01,1.74860e-01,9.99981e-01
9.292325798e-01,1.42042e-02,9.99999e-01,6.75532e-01,1.04880e-01,1.80988e-01,9.99960e-01
9.338787427e-01,7.34532e-03,9.99999e-01,6.81644e-01,5.25310e-02,1.87203e-01,9.99948e-01
9.385481364e-01,4.58423e-02,9.99999e-01,7.51687e-01,3.00271e-01,1.93502e-01,9.99948e-01
9.432408771e-01,3.45848e-02,9.99999e-01,8.38638e-01,2.00445e-01,1.99883e-01,9.99942e-01
9.479570815e-01,2.00655e-02,9.99999e-01,9.13338e-01,1.04906e-01,2.06342e-01,9.99949e-01
9.526968669e-01,3.56020e-02,9.99999e-01,9.57394e-01,1.72953e-01,2.12875e-01,9.99961e-01
9.574603512e-01,4.03075e-02,9.99999e-01,9.81538e-01,1.86310e-01,2.19481e-01,9.99971e-01
9.622476530e-01,5.57246e-02,9.99999e-01,9.94209e-01,2.47519e-01,2.26155e-01,9.99980e-01
9.670588912e-01,1.02576e-01,9.99999e-01,9.98265e-01,4.41054e-01,2.32894e-01,9.99987e-01
9.718941857e-01,1.40451e-01,9.99999e-01,9.99880e-01,5.86013e-01,2.39694e-01,9.99992e-01
9.767536566e-01,1.58017e-01,9.99999e-01,9.99999e-01,6.40907e-01,2.46553e-01,9.99994e-01
9.816374249e-01,1.81938e-01,9.99999e-01,9.99999e-01,7.17797e-01,2.53468e-01,9.99996e-01
9.865456120e-01,2.11494e-01,9.99999e-01,9.99999e-01,8.12085e-01,2.60433e-01,9.99997e-01
9.914783401e-01,2.35028e-01,9.99999e-01,9.99999e-01,8.78784e-01,2.67447e-01,9.99998e-01
9.964357318e-01,2.55849e-01,9.99999e-01,9.99999e-01,9.32035e-01,2.74506e-01,9.99999e-01
1.001417910e+00,2.69969e-01,9.99999e-01,9.99999e-01,9.58677e-01,2.81606e-01,9.99999e-01
1.006425000e+00,2.81861e-01,9.99999e-01,9.99999e-01,9.76164e-01,2.88744e-01,9.99999e-01
1.011457125e+00,2.91531e-01,9.99999e-01,9.99999e-01,9.85180e-01,2.95916e-01,9.99999e-01
1.016514411e+00,3.00058e-01,9.99999e-01,9.99999e-01,9.89899e-01,3.03120e-01,9.99999e-01
1.021596983e+00,3.07763e-01,9.99999e-01,9.99715e-01,9.91938e-01,3.10351e-01,9.99999e-01
1.026704968e+00,3.09891e-01,9.99999e-01,9.81849e-01,9.93703e-01,3.17607e-01,9.99999e-01
1.031838492e+00,2.81676e-01,9.99999e-01,8.70701e-01,9.95430e-01,3.24885e-01,9.99999e-01
1.036997685e+00,9.70829e-03,9.99999e-01,2.92857e-02,9.97277e-01,3.32181e-01,9.99999e-01
1.042182673e+00,1.50306e-04,9.99999e-01,4.43780e-04,9.96741e-01,3.39491e-01,9.99999e-01
1.047393587e+00,4.32906e-04,9.99999e-01,1.25259e-03,9.95689e-01,3.46813e-01,9.99999e-01
1.052630555e+00,1.18152e-09,9.99999e-01,3.34844e-09,9.94081e-01,3.54144e-01,9.99999e-01
1.057893707e+00,4.48673e-09,9.99999e-01,1.24705e-08,9.90124e-01,3.61480e-01,9.99999e-01
1.063183176e+00,6.95220e-07,9.99999e-01,1.90138e-06,9.83823e-01,3.68819e-01,9.99999e-01
1.068499092e+00,1.37617e-05,9.99999e-01,3.71461e-05,9.73111e-01,3.76158e-01,9.99999e-01
1.073841587e+00,4.71256e-04,9.99999e-01,1.25470e-03,9.68594e-01,3.83493e-01,9.99998e-01
1.079210795e+00,5.95548e-03,9.99999e-01,1.56977e-02,9.60027e-01,3.90822e-01,9.99998e-01
1.084606849e+00,3.43897e-02,9.99999e-01,9.09427e-02,9.40095e-01,3.98143e-01,9.99997e-01
1.090029883e+00,1.05939e-01,9.99999e-01,2.82700e-01,9.14817e-01,4.05451e-01,9.99996e-01
1.095480033e+00,1.75306e-01,9.99999e-01,5.34614e-01,7.85354e-01,4.12746e-01,9.99993e-01
1.100957433e+00,1.71888e-01,9.99999e-01,7.37411e-01,5.47087e-01,4.20024e-01,9.99988e-01
1.106462220e+00,8.99008e-02,9.99999e-01,8.81474e-01,2.34772e-01,4.27283e-01,9.99976e-01
1.111994531e+00,2.22197e-02,9.99999e-01,9.54207e-01,5.30092e-02,4.34520e-01,9.99953e-01
1.117554504e+00,4.77623e-03,9.99999e-01,9.88683e-01,1.08740e-02,4.41733e-01,9.99934e-01
1.123142276e+00,2.16489e-02,9.99999e-01,9.99258e-01,4.82305e-02,4.48920e-01,9.99922e-01
1.128757988e+00,5.11981e-02,9.99999e-01,9.99999e-01,1.12266e-01,4.56078e-01,9.99915e-01
1.134401778e+00,2.43328e-02,9.99999e-01,9.99999e-01,5.25362e-02,4.63206e-01,9.99905e-01
1.140073787e+00,1.17637e-01,9.99999e-01,9.99999e-01,2.50150e-01,4.70301e-01,9.99923e-01
1.145774156e+00,3.49453e-02,9.99999e-01,9.99999e-01,7.32098e-02,4.77362e-01,9.99935e-01
1.151503026e+00,2.63747e-02,9.99999e-01,9.99999e-01,5.44528e-02,4.84385e-01,9.99944e-01
1.157260541e+00,3.42611e-02,9.99999e-01,9.99999e-01,6.97285e-02,4.91371e-01,9.99957e-01
1.163046844e+00,6.83873e-02,9.99999e-01,9.99999e-01,1.37240e-01,4.98316e-01,9.99973e-01
1.168862078e+00,1.20240e-01,9.99999e-01,9.99999e-01,2.37999e-01,5.05219e-01,9.99986e-01
1.174706389e+00,2.09896e-01,9.99999e-01,9.99999e-01,4.09892e-01,5.12079e-01,9.99992e-01
1.180579921e+00,3.00033e-01,9.99999e-01,9.99999e-01,5.78220e-01,5.18893e-01,9.99995e-01
1.186482820e+00,3.84196e-01,9.99999e-01,9.99956e-01,7.30906e-01,5.25661e-01,9.99995e-01
1.192415234e+00,4.17642e-01,9.99999e-01,9.39972e-01,8.31971e-01,5.32381e-01,9.99996e-01
1.198377311e+00,2.29381e-01,9.99999e-01,4.83920e-01,8.56251e-01,5.39052e-01,9.99996e-01
1.204369197e+00,1.88587e-45,9.99999e-01,3.76279e-45,8.64152e-01,5.45672e-01,9.99997e-01
1.210391043e+00,9.63096e-188,9.99999e-01,1.88578e-187,8.69343e-01,5.52240e-01,9.99997e-01
1.216442998e+00,2.69763e-162,9.99999e-01,5.19914e-162,8.87944e-01,5.58755e-01,9.99998e-01
1.222525213e+00,7.87116e-160,9.99999e-01,1.46105e-159,9.11317e-01,5.65216e-01,9.99998e-01
1.228637839e+00,4.90507e-123,9.99999e-01,8.96201e-123,9.37466e-01,5.71622e-01,9.99999e-01
