#,Wave/freq,Total,O2,CO2,H2O,Rayleigh,CIA
4.000000000e-01,4.75112e-06,9.99999e-01,9.99999e-01,9.99975e-01,4.75124e-06,9.99999e-01
4.020000000e-01,6.05415e-06,9.99999e-01,9.99999e-01,9.99984e-01,6.05424e-06,9.99999e-01
4.040100000e-01,7.67580e-06,9.99999e-01,9.99999e-01,9.99993e-01,7.67585e-06,9.99999e-01
4.060300500e-01,9.68629e-06,9.99999e-01,9.99999e-01,9.99998e-01,9.68630e-06,9.99999e-01
4.080602003e-01,1.21673e-05,9.99999e-01,9.99999e-01,9.99999e-01,1.21673e-05,9.99999e-01
4.101005013e-01,1.52150e-05,9.99999e-01,9.99999e-01,9.99999e-01,1.52150e-05,9.99999e-01
4.121510038e-01,1.89424e-05,9.99999e-01,9.99999e-01,9.99998e-01,1.89424e-05,9.99999e-01
4.142117588e-01,2.34809e-05,9.99999e-01,9.99999e-01,9.99992e-01,2.34811e-05,9.99999e-01
4.162828176e-01,2.89831e-05,9.99999e-01,9.99999e-01,9.99969e-01,2.89839e-05,9.99999e-01
4.183642317e-01,3.56273e-05,9.99999e-01,9.99999e-01,9.99981e-01,3.56280e-05,9.99999e-01
4.204560528e-01,4.36164e-05,9.99999e-01,9.99999e-01,9.99988e-01,4.36169e-05,9.99999e-01
4.225583331e-01,5.31839e-05,9.99999e-01,9.99999e-01,9.99995e-01,5.31841e-05,9.99999e-01
4.246711247e-01,6.45962e-05,9.99999e-01,9.99999e-01,9.99996e-01,6.45964e-05,9.99999e-01
4.267944804e-01,7.81565e-05,9.99999e-01,9.99999e-01,9.99994e-01,7.81569e-05,9.99999e-01
4.289284528e-01,9.42084e-05,9.99999e-01,9.99999e-01,9.99995e-01,9.42087e-05,9.99999e-01
4.310730950e-01,1.13139e-04,9.99999e-01,9.99999e-01,9.99997e-01,1.13139e-04,9.99999e-01
4.332284605e-01,1.35383e-04,9.99999e-01,9.99999e-01,9.99999e-01,1.35383e-04,9.99999e-01
4.353946028e-01,1.61427e-04,9.99999e-01,9.99999e-01,9.99999e-01,1.61427e-04,9.99999e-01
4.375715758e-01,1.91812e-04,9.99999e-01,9.99999e-01,9.99996e-01,1.91812e-04,9.99999e-01
4.397594337e-01,2.27137e-04,9.99999e-01,9.99999e-01,9.99973e-01,2.27143e-04,9.99999e-01
4.419582309e-01,2.68048e-04,9.99999e-01,9.99999e-01,9.99865e-01,2.68084e-04,9.99999e-01
4.441680220e-01,3.15339e-04,9.99999e-01,9.99999e-01,9.99896e-01,3.15371e-04,9.99999e-01
4.463888621e-01,3.69770e-04,9.99999e-01,9.99999e-01,9.99891e-01,3.69810e-04,9.99999e-01
4.486208064e-01,4.32256e-04,9.99999e-01,9.99999e-01,9.99932e-01,4.32284e-04,9.99999e-01
4.508639105e-01,5.03742e-04,9.99999e-01,9.99999e-01,9.99968e-01,5.03758e-04,9.99999e-01
4.531182300e-01,5.85269e-04,9.99999e-01,9.99999e-01,9.99987e-01,5.85276e-04,9.99999e-01
4.553838212e-01,6.77969e-04,9.99999e-01,9.99999e-01,9.99991e-01,6.77975e-04,9.99999e-01
4.576607403e-01,7.83075e-04,9.99999e-01,9.99999e-01,9.99995e-01,7.83078e-04,9.99999e-01
4.599490440e-01,9.01901e-04,9.99999e-01,9.99999e-01,9.99996e-01,9.01903e-04,9.99999e-01
4.622487892e-01,1.03586e-03,9.99999e-01,9.99999e-01,9.99999e-01,1.03586e-03,9.99999e-01
4.645600332e-01,1.18647e-03,9.99999e-01,9.99999e-01,9.99997e-01,1.18647e-03,9.99999e-01
4.668828333e-01,1.35530e-03,9.99999e-01,9.99999e-01,9.99967e-01,1.35534e-03,9.99999e-01
4.692172475e-01,1.54408e-03,9.99999e-01,9.99999e-01,9.99932e-01,1.54418e-03,9.99999e-01
4.715633337e-01,1.75472e-03,9.99999e-01,9.99999e-01,9.99955e-01,1.75480e-03,9.99999e-01
4.739211504e-01,1.98904e-03,9.99999e-01,9.99999e-01,9.99957e-01,1.98912e-03,9.99999e-01
4.762907561e-01,2.24911e-03,9.99999e-01,9.99999e-01,9.99977e-01,2.24916e-03,9.99999e-01
4.786722099e-01,2.53700e-03,9.99999e-01,9.99999e-01,9.99990e-01,2.53702e-03,9.99999e-01
4.810655710e-01,2.85492e-03,9.99999e-01,9.99999e-01,9.99996e-01,2.85493e-03,9.99999e-01
4.834708988e-01,3.20510e-03,9.99999e-01,9.99999e-01,9.99973e-01,3.20518e-03,9.99999e-01
4.858882533e-01,3.59003e-03,9.99999e-01,9.99999e-01,9.99951e-01,3.59020e-03,9.99999e-01
4.883176946e-01,4.01230e-03,9.99999e-01,9.99999e-01,9.99959e-01,4.01246e-03,9.99999e-01
4.907592831e-01,4.47439e-03,9.99999e-01,9.99999e-01,9.99963e-01,4.47455e-03,9.99999e-01
4.932130795e-01,4.97900e-03,9.99999e-01,9.99999e-01,9.99973e-01,4.97913e-03,9.99999e-01
4.956791449e-01,5.52884e-03,9.99999e-01,9.99999e-01,9.99985e-01,5.52892e-03,9.99999e-01
4.981575406e-01,6.12631e-03,9.99999e-01,9.99999e-01,9.99931e-01,6.12673e-03,9.99999e-01
5.006483283e-01,6.77422e-03,9.99999e-01,9.99999e-01,9.99822e-01,6.77542e-03,9.99999e-01
5.031515699e-01,7.47124e-03,9.99999e-01,9.99999e-01,9.99106e-01,7.47792e-03,9.99999e-01
5.056673278e-01,8.23331e-03,9.99999e-01,9.99999e-01,9.99529e-01,8.23718e-03,9.99999e-01
5.081956644e-01,9.05086e-03,9.99999e-01,9.99999e-01,9.99406e-01,9.05623e-03,9.99999e-01
5.107366428e-01,9.93410e-03,9.99999e-01,9.99999e-01,9.99599e-01,9.93808e-03,9.99999e-01
5.132903260e-01,1.08833e-02,9.99999e-01,9.99999e-01,9.99771e-01,1.08858e-02,9.99999e-01
5.158567776e-01,1.19013e-02,9.99999e-01,9.99999e-01,9.99903e-01,1.19025e-02,9.99999e-01
5.184360615e-01,1.29907e-02,9.99999e-01,9.99999e-01,9.99960e-01,1.29912e-02,9.99999e-01
5.210282418e-01,1.41548e-02,9.99999e-01,9.99999e-01,9.99985e-01,1.41550e-02,9.99999e-01
5.236333830e-01,1.53960e-02,9.99999e-01,9.99999e-01,9.99941e-01,1.53969e-02,9.99999e-01
5.262515499e-01,1.67194e-02,9.99999e-01,9.99999e-01,9.99963e-01,1.67200e-02,9.99999e-01
5.288828077e-01,1.81266e-02,9.99999e-01,9.99999e-01,9.99966e-01,1.81272e-02,9.99999e-01
5.315272217e-01,1.96210e-02,9.99999e-01,9.99999e-01,9.99970e-01,1.96215e-02,9.99999e-01
5.341848578e-01,2.12055e-02,9.99999e-01,9.99999e-01,9.99980e-01,2.12059e-02,9.99999e-01
5.368557821e-01,2.28814e-02,9.99999e-01,9.99999e-01,9.99931e-01,2.28830e-02,9.99999e-01
5.395400610e-01,2.46496e-02,9.99999e-01,9.99999e-01,9.99753e-01,2.46556e-02,9.99999e-01
5.422377613e-01,2.65181e-02,9.99999e-01,9.99999e-01,9.99684e-01,2.65265e-02,9.99999e-01
5.449489501e-01,2.84897e-02,9.99999e-01,9.99999e-01,9.99705e-01,2.84981e-02,9.99999e-01
5.476736949e-01,3.05650e-02,9.99999e-01,9.99999e-01,9.99740e-01,3.05730e-02,9.99999e-01
5.504120634e-01,3.27472e-02,9.99999e-01,9.99999e-01,9.99811e-01,3.27533e-02,9.99999e-01
5.531641237e-01,3.50382e-02,9.99999e-01,9.99999e-01,9.99904e-01,3.50415e-02,9.99999e-01
5.559299443e-01,3.74379e-02,9.99999e-01,9.99999e-01,9.99953e-01,3.74396e-02,9.99999e-01
5.587095940e-01,3.99484e-02,9.99999e-01,9.99999e-01,9.99970e-01,3.99495e-02,9.99999e-01
5.615031420e-01,4.25717e-02,9.99999e-01,9.99999e-01,9.99967e-01,4.25731e-02,9.99999e-01
5.643106577e-01,4.53103e-02,9.99999e-01,9.99999e-01,9.99962e-01,4.53120e-02,9.99999e-01
5.671322110e-01,4.81462e-02,9.99999e-01,9.99999e-01,9.99552e-01,4.81677e-02,9.99999e-01
5.699678720e-01,5.11178e-02,9.99999e-01,9.99999e-01,9.99533e-01,5.11417e-02,9.99999e-01
5.728177114e-01,5.42085e-02,9.99999e-01,9.99999e-01,9.99510e-01,5.42350e-02,9.99999e-01
5.756818000e-01,5.74230e-02,9.99999e-01,9.99999e-01,9.99551e-01,5.74488e-02,9.99999e-01
5.785602090e-01,6.07601e-02,9.99999e-01,9.99999e-01,9.99609e-01,6.07838e-02,9.99999e-01
5.814530100e-01,6.42156e-02,9.99999e-01,9.99999e-01,9.99606e-01,6.42409e-02,9.99999e-01
5.843602750e-01,6.77885e-02,9.99999e-01,9.99999e-01,9.99529e-01,6.78204e-02,9.99999e-01
5.872820764e-01,7.12331e-02,9.99999e-01,9.99999e-01,9.95950e-01,7.15226e-02,9.99999e-01
5.902184868e-01,7.49806e-02,9.99999e-01,9.99999e-01,9.95125e-01,7.53479e-02,9.99999e-01
5.931695792e-01,7.90223e-02,9.99999e-01,9.99999e-01,9.96547e-01,7.92961e-02,9.99999e-01
5.961354271e-01,8.30520e-02,9.99999e-01,9.99999e-01,9.96221e-01,8.33670e-02,9.99999e-01
5.991161043e-01,8.73192e-02,9.99999e-01,9.99999e-01,9.97245e-01,8.75603e-02,9.99999e-01
6.021116848e-01,9.17319e-02,9.99999e-01,9.99999e-01,9.98437e-01,9.18754e-02,9.99999e-01
6.051222432e-01,9.62355e-02,9.99999e-01,9.99999e-01,9.99209e-01,9.63116e-02,9.99999e-01
6.081478544e-01,1.00834e-01,9.99999e-01,9.99999e-01,9.99658e-01,1.00868e-01,9.99999e-01
6.111885937e-01,1.05528e-01,9.99999e-01,9.99999e-01,9.99855e-01,1.05544e-01,9.99999e-01
6.142445367e-01,1.10330e-01,9.99999e-01,9.99999e-01,9.99935e-01,1.10337e-01,9.99999e-01
6.173157594e-01,1.15243e-01,9.99999e-01,9.99999e-01,9.99963e-01,1.15247e-01,9.99999e-01
6.204023382e-01,1.20269e-01,9.99999e-01,9.99999e-01,9.99969e-01,1.20272e-01,9.99999e-01
6.235043498e-01,1.25394e-01,9.99999e-01,9.99999e-01,9.99865e-01,1.25411e-01,9.99999e-01
6.266218716e-01,1.30569e-01,9.99999e-01,9.99999e-01,9.99296e-01,1.30661e-01,9.99999e-01
6.297549810e-01,1.35985e-01,9.99999e-01,9.99999e-01,9.99741e-01,1.36020e-01,9.99999e-01
6.329037559e-01,1.41415e-01,9.99999e-01,9.99999e-01,9.99490e-01,1.41487e-01,9.99999e-01
6.360682746e-01,1.46995e-01,9.99999e-01,9.99999e-01,9.99565e-01,1.47059e-01,9.99999e-01
6.392486160e-01,1.52648e-01,9.99999e-01,9.99999e-01,9.99437e-01,1.52734e-01,9.99999e-01
6.424448591e-01,1.58389e-01,9.99999e-01,9.99999e-01,9.99242e-01,1.58509e-01,9.99999e-01
6.456570834e-01,1.63806e-01,9.99999e-01,9.99999e-01,9.96488e-01,1.64383e-01,9.99999e-01
6.488853688e-01,1.69916e-01,9.99999e-01,9.99999e-01,9.97447e-01,1.70351e-01,9.99999e-01
6.521297956e-01,1.75953e-01,9.99999e-01,9.99999e-01,9.97398e-01,1.76412e-01,9.99999e-01
6.553904446e-01,1.82088e-01,9.99999e-01,9.99999e-01,9.97402e-01,1.82562e-01,9.99999e-01
6.586673968e-01,1.88380e-01,9.99999e-01,9.99999e-01,9.97781e-01,1.88799e-01,9.99999e-01
6.619607338e-01,1.94878e-01,9.99999e-01,9.99999e-01,9.98763e-01,1.95119e-01,9.99999e-01
6.652705375e-01,2.01371e-01,9.99999e-01,9.99999e-01,9.99257e-01,2.01520e-01,9.99999e-01
6.685968902e-01,2.07933e-01,9.99999e-01,9.99999e-01,9.99684e-01,2.07998e-01,9.99999e-01
6.719398746e-01,2.14517e-01,9.99999e-01,9.99999e-01,9.99840e-01,2.14551e-01,9.99999e-01
6.752995740e-01,2.21155e-01,9.99999e-01,9.99999e-01,9.99915e-01,2.21174e-01,9.99999e-01
6.786760719e-01,2.27836e-01,9.99999e-01,9.99999e-01,9.99873e-01,2.27865e-01,9.99999e-01
6.820694522e-01,2.34569e-01,9.99999e-01,9.99999e-01,9.99784e-01,2.34620e-01,9.99999e-01
6.854797995e-01,2.41369e-01,9.99999e-01,9.99999e-01,9.99722e-01,2.41436e-01,9.99999e-01
6.889071985e-01,2.48141e-01,9.99999e-01,9.99999e-01,9.99322e-01,2.48309e-01,9.99999e-01
6.923517345e-01,2.52443e-01,9.99999e-01,9.99999e-01,9.89055e-01,2.55237e-01,9.99999e-01
6.958134932e-01,2.60740e-01,9.99999e-01,9.99999e-01,9.94375e-01,2.62215e-01,9.99999e-01
6.992925606e-01,2.67782e-01,9.99999e-01,9.99999e-01,9.94582e-01,2.69240e-01,9.99999e-01
7.027890234e-01,2.74472e-01,9.99999e-01,9.99999e-01,9.93349e-01,2.76310e-01,9.99999e-01
7.063029686e-01,2.81834e-01,9.99999e-01,9.99999e-01,9.94403e-01,2.83420e-01,9.99999e-01
7.098344834e-01,2.89006e-01,9.99999e-01,9.99999e-01,9.94629e-01,2.90567e-01,9.99999e-01
7.133836558e-01,2.95600e-01,9.99999e-01,9.99999e-01,9.92787e-01,2.97748e-01,9.99999e-01
7.169505741e-01,2.87757e-01,9.99999e-01,9.99999e-01,9.43594e-01,3.04959e-01,9.99998e-01
7.205353270e-01,3.03562e-01,9.99999e-01,9.99999e-01,9.72341e-01,3.12197e-01,9.99998e-01
7.241380036e-01,3.08159e-01,9.99999e-01,9.99999e-01,9.64627e-01,3.19459e-01,9.99998e-01
7.277586936e-01,3.16301e-01,9.99999e-01,9.99999e-01,9.68046e-01,3.26741e-01,9.99998e-01
7.313974871e-01,3.22751e-01,9.99999e-01,9.99999e-01,9.66201e-01,3.34041e-01,9.99999e-01
7.350544745e-01,3.34999e-01,9.99999e-01,9.99999e-01,9.81380e-01,3.41354e-01,9.99999e-01
7.387297469e-01,3.43894e-01,9.99999e-01,9.99999e-01,9.86274e-01,3.48679e-01,9.99999e-01
7.424233956e-01,3.53617e-01,9.99999e-01,9.99999e-01,9.93273e-01,3.56012e-01,9.99999e-01
7.461355126e-01,3.61865e-01,9.99999e-01,9.99999e-01,9.95915e-01,3.63349e-01,9.99999e-01
7.498661902e-01,3.69984e-01,9.99999e-01,9.99999e-01,9.98100e-01,3.70688e-01,9.99999e-01
7.536155211e-01,3.77673e-01,9.99999e-01,9.99999e-01,9.99065e-01,3.78026e-01,9.99999e-01
7.573835987e-01,3.85175e-01,9.99999e-01,9.99999e-01,9.99519e-01,3.85360e-01,9.99999e-01
7.611705167e-01,3.92570e-01,9.99999e-01,9.99999e-01,9.99700e-01,3.92687e-01,9.99999e-01
7.649763693e-01,3.99930e-01,9.99999e-01,9.99999e-01,9.99812e-01,4.00005e-01,9.99999e-01
7.688012511e-01,4.07257e-01,9.99999e-01,9.99999e-01,9.99868e-01,4.07310e-01,9.99999e-01
7.726452574e-01,4.14557e-01,9.99999e-01,9.99999e-01,9.99892e-01,4.14601e-01,9.99999e-01
7.765084837e-01,4.21810e-01,9.99999e-01,9.99999e-01,9.99846e-01,4.21874e-01,9.99999e-01
7.803910261e-01,4.11615e-01,9.99999e-01,9.59802e-01,9.99335e-01,4.29128e-01,9.99999e-01
7.842929812e-01,3.64727e-01,9.99999e-01,8.37675e-01,9.97681e-01,4.36359e-01,9.99999e-01
7.882144461e-01,3.65027e-01,9.99999e-01,8.26680e-01,9.95255e-01,4.43566e-01,9.99999e-01
7.921555184e-01,4.02124e-01,9.99999e-01,8.94386e-01,9.97405e-01,4.50746e-01,9.99999e-01
7.961162960e-01,4.23125e-01,9.99999e-01,9.28303e-01,9.95382e-01,4.57896e-01,9.99999e-01
8.000968774e-01,4.44246e-01,9.99999e-01,9.60419e-01,9.94688e-01,4.65016e-01,9.99999e-01
8.040973618e-01,4.59903e-01,9.99999e-01,9.79355e-01,9.94681e-01,4.72102e-01,9.99999e-01
8.081178486e-01,4.68886e-01,9.99999e-01,9.90443e-01,9.87994e-01,4.79154e-01,9.99999e-01
8.121584379e-01,4.60965e-01,9.99999e-01,9.97059e-01,9.50923e-01,4.86168e-01,9.99998e-01
8.162192301e-01,4.64431e-01,9.99999e-01,9.99349e-01,9.42375e-01,4.93143e-01,9.99998e-01
8.203003262e-01,4.85345e-01,9.99999e-01,9.99990e-01,9.70547e-01,5.00078e-01,9.99998e-01
8.244018279e-01,4.86564e-01,9.99999e-01,9.99999e-01,9.59748e-01,5.06970e-01,9.99998e-01
8.285238370e-01,4.95871e-01,9.99999e-01,9.99999e-01,9.65070e-01,5.13818e-01,9.99998e-01
8.326664562e-01,5.02291e-01,9.99999e-01,9.99999e-01,9.64791e-01,5.20621e-01,9.99999e-01
8.368297885e-01,5.14067e-01,9.99999e-01,9.99999e-01,9.74760e-01,5.27377e-01,9.99999e-01
8.410139374e-01,5.26039e-01,9.99999e-01,9.99999e-01,9.84936e-01,5.34084e-01,9.99999e-01
8.452190071e-01,5.36738e-01,9.99999e-01,9.99999e-01,9.92593e-01,5.40742e-01,9.99999e-01
8.494451021e-01,5.44989e-01,9.99999e-01,9.99999e-01,9.95687e-01,5.47349e-01,9.99999e-01
8.536923276e-01,5.52494e-01,9.99999e-01,9.99999e-01,9.97453e-01,5.53904e-01,9.99999e-01
8.579607893e-01,5.59525e-01,9.99999e-01,9.99999e-01,9.98428e-01,5.60405e-01,9.99999e-01
8.622505932e-01,5.66287e-01,9.99999e-01,9.99999e-01,9.99002e-01,5.66852e-01,9.99999e-01
8.665618462e-01,5.24695e-01,9.99999e-01,9.15849e-01,9.99381e-01,5.73244e-01,9.99999e-01
8.708946554e-01,3.69364e-01,9.99999e-01,6.37729e-01,9.99290e-01,5.79579e-01,9.99999e-01
8.752491287e-01,4.07258e-01,9.99999e-01,6.95786e-01,9.99052e-01,5.85857e-01,9.99999e-01
8.796253743e-01,4.84285e-01,9.99999e-01,8.18982e-01,9.98684e-01,5.92078e-01,9.99999e-01
8.840235012e-01,5.38496e-01,9.99999e-01,9.01464e-01,9.98498e-01,5.98239e-01,9.99999e-01
8.884436187e-01,5.77027e-01,9.99999e-01,9.60057e-01,9.94465e-01,6.04341e-01,9.99999e-01
8.928858368e-01,5.66603e-01,9.99999e-01,9.83593e-01,9.43599e-01,6.10383e-01,9.99998e-01
8.973502660e-01,5.54389e-01,9.99999e-01,9.96007e-01,9.02970e-01,6.16364e-01,9.99998e-01
9.018370173e-01,5.90594e-01,9.99999e-01,9.99559e-01,9.49478e-01,6.22283e-01,9.99998e-01
9.063462024e-01,5.93198e-01,9.99999e-01,9.88509e-01,9.54945e-01,6.28141e-01,9.99997e-01
9.108779334e-01,5.75089e-01,9.99999e-01,9.74196e-01,9.30851e-01,6.33937e-01,9.99997e-01
9.154323231e-01,5.86230e-01,9.99999e-01,9.93927e-01,9.21916e-01,6.39671e-01,9.99997e-01
9.200094847e-01,5.56051e-01,9.99999e-01,9.14650e-01,9.38419e-01,6.45341e-01,9.99996e-01
9.246095321e-01,5.19341e-01,9.99999e-01,8.79853e-01,9.04342e-01,6.50948e-01,9.99995e-01
9.292325798e-01,3.09752e-01,9.99999e-01,9.04050e-01,5.15585e-01,6.56492e-01,9.99989e-01
9.338787427e-01,2.60338e-01,9.99999e-01,9.07617e-01,4.28360e-01,6.61972e-01,9.99987e-01
9.385481364e-01,4.43433e-01,9.99999e-01,9.31174e-01,7.10189e-01,6.67388e-01,9.99986e-01
9.432408771e-01,4.01140e-01,9.99999e-01,9.57345e-01,6.21135e-01,6.72740e-01,9.99985e-01
9.479570815e-01,3.45365e-01,9.99999e-01,9.77852e-01,5.20177e-01,6.78028e-01,9.99987e-01
9.526968669e-01,4.14018e-01,9.99999e-01,9.89277e-01,6.11869e-01,6.83252e-01,9.99990e-01
9.574603512e-01,4.34488e-01,9.99999e-01,9.95404e-01,6.33838e-01,6.88412e-01,9.99992e-01
9.622476530e-01,4.77790e-01,9.99999e-01,9.98565e-01,6.89870e-01,6.93508e-01,9.99994e-01
9.670588912e-01,5.63474e-01,9.99999e-01,9.99570e-01,8.06973e-01,6.98539e-01,9.99996e-01
9.718941857e-01,6.14915e-01,9.99999e-01,9.99969e-01,8.74095e-01,7.03507e-01,9.99997e-01
9.767536566e-01,6.33513e-01,9.99999e-01,9.99999e-01,8.94274e-01,7.08411e-01,9.99998e-01
9.816374249e-01,6.56641e-01,9.99999e-01,9.99999e-01,9.20631e-01,7.13251e-01,9.99998e-01
9.865456120e-01,6.81876e-01,9.99999e-01,9.99999e-01,9.49650e-01,7.18028e-01,9.99999e-01
9.914783401e-01,7.00018e-01,9.99999e-01,9.99999e-01,9.68559e-01,7.22741e-01,9.99999e-01
9.964357318e-01,7.14852e-01,9.99999e-01,9.99999e-01,9.82759e-01,7.27392e-01,9.99999e-01
1.001417910e+00,7.24393e-01,9.99999e-01,9.99999e-01,9.89635e-01,7.31979e-01,9.99999e-01
1.006425000e+00,7.32138e-01,9.99999e-01,9.99999e-01,9.94071e-01,7.36504e-01,9.99999e-01
1.011457125e+00,7.38243e-01,9.99999e-01,9.99999e-01,9.96322e-01,7.40967e-01,9.99999e-01
1.016514411e+00,7.43505e-01,9.99999e-01,9.99999e-01,9.97500e-01,7.45368e-01,9.99999e-01
1.021596983e+00,7.48163e-01,9.99999e-01,9.99932e-01,9.98006e-01,7.49707e-01,9.99999e-01
1.026704968e+00,7.49419e-01,9.99999e-01,9.95489e-01,9.98444e-01,7.53985e-01,9.99999e-01
1.031838492e+00,7.17933e-01,9.99999e-01,9.47920e-01,9.98870e-01,7.58202e-01,9.99999e-01
1.036997685e+00,9.86968e-02,9.99999e-01,1.29531e-01,9.99328e-01,7.62359e-01,9.99999e-01
1.042182673e+00,6.49926e-02,9.99999e-01,8.48556e-02,9.99197e-01,7.66456e-01,9.99999e-01
1.047393587e+00,8.32001e-02,9.99999e-01,1.08083e-01,9.98936e-01,7.70494e-01,9.99999e-01
1.052630555e+00,1.34986e-03,9.99999e-01,1.74476e-03,9.98539e-01,7.74472e-01,9.99999e-01
1.057893707e+00,3.78738e-03,9.99999e-01,4.87337e-03,9.97560e-01,7.78391e-01,9.99999e-01
1.063183176e+00,1.51144e-02,9.99999e-01,1.93755e-02,9.95991e-01,7.82253e-01,9.99999e-01
1.068499092e+00,4.86413e-02,9.99999e-01,6.22217e-02,9.93301e-01,7.86056e-01,9.99999e-01
1.073841587e+00,1.35718e-01,9.99999e-01,1.72974e-01,9.92154e-01,7.89803e-01,9.99999e-01
1.079210795e+00,2.58771e-01,9.99999e-01,3.29078e-01,9.89978e-01,7.93493e-01,9.99999e-01
1.084606849e+00,4.25582e-01,9.99999e-01,5.41669e-01,9.84848e-01,7.97127e-01,9.99999e-01
1.090029883e+00,5.69826e-01,9.99999e-01,7.26987e-01,9.78218e-01,8.00705e-01,9.99998e-01
1.095480033e+00,6.47882e-01,9.99999e-01,8.54706e-01,9.41826e-01,8.04228e-01,9.99998e-01
1.100957433e+00,6.43716e-01,9.99999e-01,9.27098e-01,8.58850e-01,8.07696e-01,9.99996e-01
1.106462220e+00,5.35479e-01,9.99999e-01,9.69212e-01,6.80255e-01,8.11111e-01,9.99993e-01
1.111994531e+00,3.60992e-01,9.99999e-01,9.88475e-01,4.47963e-01,8.14472e-01,9.99988e-01
1.117554504e+00,2.24433e-01,9.99999e-01,9.97184e-01,2.75057e-01,8.17780e-01,9.99983e-01
1.123142276e+00,3.23320e-01,9.99999e-01,9.99815e-01,3.93832e-01,8.21036e-01,9.99980e-01
1.128757988e+00,4.48961e-01,9.99999e-01,9.99999e-01,5.44708e-01,8.24240e-01,9.99978e-01
1.134401778e+00,2.43753e-01,9.99999e-01,9.99999e-01,2.94610e-01,8.27393e-01,9.99976e-01
1.140073787e+00,5.75752e-01,9.99999e-01,9.99999e-01,6.93276e-01,8.30495e-01,9.99980e-01
1.145774156e+00,3.92157e-01,9.99999e-01,9.99999e-01,4.70474e-01,8.33548e-01,9.99983e-01
1.151503026e+00,3.62140e-01,9.99999e-01,9.99999e-01,4.32902e-01,8.36551e-01,9.99985e-01
1.157260541e+00,4.13431e-01,9.99999e-01,9.99999e-01,4.92475e-01,8.39505e-01,9.99989e-01
1.163046844e+00,4.98848e-01,9.99999e-01,9.99999e-01,5.92170e-01,8.42411e-01,9.99992e-01
1.168862078e+00,5.86382e-01,9.99999e-01,9.99999e-01,6.93723e-01,8.45269e-01,9.99996e-01
1.174706389e+00,6.76674e-01,9.99999e-01,9.99999e-01,7.97889e-01,8.48080e-01,9.99997e-01
1.180579921e+00,7.41506e-01,9.99999e-01,9.99999e-01,8.71494e-01,8.50845e-01,9.99998e-01
1.186482820e+00,7.89654e-01,9.99999e-01,9.99989e-01,9.25134e-01,8.53564e-01,9.99998e-01
1.192415234e+00,8.05269e-01,9.99999e-01,9.83988e-01,9.55573e-01,8.56238e-01,9.99998e-01
1.198377311e+00,4.62640e-01,9.99999e-01,5.56185e-01,9.62382e-01,8.58867e-01,9.99998e-01
1.204369197e+00,6.88504e-13,9.99999e-01,8.16147e-13,9.64398e-01,8.61452e-01,9.99998e-01
1.210391043e+00,6.31768e-48,9.99999e-01,7.45430e-48,9.65928e-01,8.63993e-01,9.99999e-01
1.216442998e+00,1.16429e-41,9.99999e-01,1.36842e-41,9.70983e-01,8.66492e-01,9.99999e-01
1.222525213e+00,4.71600e-41,9.99999e-01,5.49177e-41,9.77323e-01,8.68948e-01,9.99999e-01
1.228637839e+00,8.40548e-32,9.99999e-01,9.75269e-32,9.84193e-01,8.71362e-01,9.99999e-01
