#,Wave/freq,Total,O2,CO2,H2O,Rayleigh,CIA
4.000000000e-01,2.08270e-05,9.99999e-01,9.99999e-01,9.99978e-01,2.08275e-05,9.99999e-01
4.020000000e-01,2.57746e-05,9.99999e-01,9.99999e-01,9.99986e-01,2.57750e-05,9.99999e-01
4.040100000e-01,3.17567e-05,9.99999e-01,9.99999e-01,9.99993e-01,3.17569e-05,9.99999e-01
4.060300500e-01,3.89662e-05,9.99999e-01,9.99999e-01,9.99998e-01,3.89662e-05,9.99999e-01
4.080602003e-01,4.76193e-05,9.99999e-01,9.99999e-01,9.99999e-01,4.76193e-05,9.99999e-01
4.101005013e-01,5.79639e-05,9.99999e-01,9.99999e-01,9.99999e-01,5.79639e-05,9.99999e-01
4.121510038e-01,7.02822e-05,9.99999e-01,9.99999e-01,9.99998e-01,7.02823e-05,9.99999e-01
4.142117588e-01,8.48942e-05,9.99999e-01,9.99999e-01,9.99993e-01,8.48947e-05,9.99999e-01
4.162828176e-01,1.02161e-04,9.99999e-01,9.99999e-01,9.99973e-01,1.02163e-04,9.99999e-01
4.183642317e-01,1.22494e-04,9.99999e-01,9.99999e-01,9.99984e-01,1.22496e-04,9.99999e-01
4.204560528e-01,1.46348e-04,9.99999e-01,9.99999e-01,9.99990e-01,1.46349e-04,9.99999e-01
4.225583331e-01,1.74234e-04,9.99999e-01,9.99999e-01,9.99995e-01,1.74234e-04,9.99999e-01
4.246711247e-01,2.06719e-04,9.99999e-01,9.99999e-01,9.99996e-01,2.06719e-04,9.99999e-01
4.267944804e-01,2.44433e-04,9.99999e-01,9.99999e-01,9.99995e-01,2.44434e-04,9.99999e-01
4.289284528e-01,2.88073e-04,9.99999e-01,9.99999e-01,9.99996e-01,2.88074e-04,9.99999e-01
4.310730950e-01,3.38405e-04,9.99999e-01,9.99999e-01,9.99998e-01,3.38406e-04,9.99999e-01
4.332284605e-01,3.96269e-04,9.99999e-01,9.99999e-01,9.99999e-01,3.96269e-04,9.99999e-01
4.353946028e-01,4.62581e-04,9.99999e-01,9.99999e-01,9.99999e-01,4.62581e-04,9.99999e-01
4.375715758e-01,5.38341e-04,9.99999e-01,9.99999e-01,9.99996e-01,5.38343e-04,9.99999e-01
4.397594337e-01,6.24624e-04,9.99999e-01,9.99999e-01,9.99976e-01,6.24638e-04,9.99999e-01
4.419582309e-01,7.22556e-04,9.99999e-01,9.99999e-01,9.99881e-01,7.22641e-04,9.99999e-01
4.441680220e-01,8.33542e-04,9.99999e-01,9.99999e-01,9.99909e-01,8.33617e-04,9.99999e-01
4.463888621e-01,9.58836e-04,9.99999e-01,9.99999e-01,9.99904e-01,9.58926e-04,9.99999e-01
4.486208064e-01,1.09996e-03,9.99999e-01,9.99999e-01,9.99941e-01,1.10002e-03,9.99999e-01
4.508639105e-01,1.25843e-03,9.99999e-01,9.99999e-01,9.99972e-01,1.25847e-03,9.99999e-01
4.531182300e-01,1.43590e-03,9.99999e-01,9.99999e-01,9.99988e-01,1.43591e-03,9.99999e-01
4.553838212e-01,1.63410e-03,9.99999e-01,9.99999e-01,9.99992e-01,1.63411e-03,9.99999e-01
4.576607403e-01,1.85492e-03,9.99999e-01,9.99999e-01,9.99996e-01,1.85492e-03,9.99999e-01
4.599490440e-01,2.10030e-03,9.99999e-01,9.99999e-01,9.99997e-01,2.10031e-03,9.99999e-01
4.622487892e-01,2.37233e-03,9.99999e-01,9.99999e-01,9.99999e-01,2.37233e-03,9.99999e-01
4.645600332e-01,2.67313e-03,9.99999e-01,9.99999e-01,9.99997e-01,2.67314e-03,9.99999e-01
4.668828333e-01,3.00491e-03,9.99999e-01,9.99999e-01,9.99971e-01,3.00500e-03,9.99999e-01
4.692172475e-01,3.37006e-03,9.99999e-01,9.99999e-01,9.99940e-01,3.37026e-03,9.99999e-01
4.715633337e-01,3.77121e-03,9.99999e-01,9.99999e-01,9.99960e-01,3.77136e-03,9.99999e-01
4.739211504e-01,4.21068e-03,9.99999e-01,9.99999e-01,9.99962e-01,4.21083e-03,9.99999e-01
4.762907561e-01,4.69120e-03,9.99999e-01,9.99999e-01,9.99980e-01,4.69129e-03,9.99999e-01
4.786722099e-01,5.21539e-03,9.99999e-01,9.99999e-01,9.99991e-01,5.21543e-03,9.99999e-01
4.810655710e-01,5.78600e-03,9.99999e-01,9.99999e-01,9.99997e-01,5.78601e-03,9.99999e-01
4.834708988e-01,6.40572e-03,9.99999e-01,9.99999e-01,9.99976e-01,6.40587e-03,9.99999e-01
4.858882533e-01,7.07759e-03,9.99999e-01,9.99999e-01,9.99957e-01,7.07788e-03,9.99999e-01
4.883176946e-01,7.80473e-03,9.99999e-01,9.99999e-01,9.99964e-01,7.80501e-03,9.99999e-01
4.907592831e-01,8.58994e-03,9.99999e-01,9.99999e-01,9.99967e-01,8.59022e-03,9.99999e-01
4.932130795e-01,9.43632e-03,9.99999e-01,9.99999e-01,9.99976e-01,9.43654e-03,9.99999e-01
4.956791449e-01,1.03469e-02,9.99999e-01,9.99999e-01,9.99987e-01,1.03470e-02,9.99999e-01
4.981575406e-01,1.13240e-02,9.99999e-01,9.99999e-01,9.99939e-01,1.13247e-02,9.99999e-01
5.006483283e-01,1.23708e-02,9.99999e-01,9.99999e-01,9.99843e-01,1.23727e-02,9.99999e-01
5.031515699e-01,1.34835e-02,9.99999e-01,9.99999e-01,9.99213e-01,1.34941e-02,9.99999e-01
5.056673278e-01,1.46858e-02,9.99999e-01,9.99999e-01,9.99586e-01,1.46919e-02,9.99999e-01
5.081956644e-01,1.59609e-02,9.99999e-01,9.99999e-01,9.99478e-01,1.59692e-02,9.99999e-01
5.107366428e-01,1.73229e-02,9.99999e-01,9.99999e-01,9.99647e-01,1.73290e-02,9.99999e-01
5.132903260e-01,1.87704e-02,9.99999e-01,9.99999e-01,9.99798e-01,1.87742e-02,9.99999e-01
5.158567776e-01,2.03061e-02,9.99999e-01,9.99999e-01,9.99914e-01,2.03078e-02,9.99999e-01
5.184360615e-01,2.19319e-02,9.99999e-01,9.99999e-01,9.99965e-01,2.19326e-02,9.99999e-01
5.210282418e-01,2.36511e-02,9.99999e-01,9.99999e-01,9.99986e-01,2.36515e-02,9.99999e-01
5.236333830e-01,2.54657e-02,9.99999e-01,9.99999e-01,9.99948e-01,2.54670e-02,9.99999e-01
5.262515499e-01,2.73811e-02,9.99999e-01,9.99999e-01,9.99967e-01,2.73819e-02,9.99999e-01
5.288828077e-01,2.93978e-02,9.99999e-01,9.99999e-01,9.99970e-01,2.93987e-02,9.99999e-01
5.315272217e-01,3.15189e-02,9.99999e-01,9.99999e-01,9.99973e-01,3.15197e-02,9.99999e-01
5.341848578e-01,3.37467e-02,9.99999e-01,9.99999e-01,9.99982e-01,3.37473e-02,9.99999e-01
5.368557821e-01,3.60814e-02,9.99999e-01,9.99999e-01,9.99939e-01,3.60836e-02,9.99999e-01
5.395400610e-01,3.85223e-02,9.99999e-01,9.99999e-01,9.99782e-01,3.85307e-02,9.99999e-01
5.422377613e-01,4.10790e-02,9.99999e-01,9.99999e-01,9.99722e-01,4.10904e-02,9.99999e-01
5.449489501e-01,4.37532e-02,9.99999e-01,9.99999e-01,9.99740e-01,4.37645e-02,9.99999e-01
5.476736949e-01,4.65441e-02,9.99999e-01,9.99999e-01,9.99771e-01,4.65547e-02,9.99999e-01
5.504120634e-01,4.94542e-02,9.99999e-01,9.99999e-01,9.99834e-01,4.94623e-02,9.99999e-01
5.531641237e-01,5.24844e-02,9.99999e-01,9.99999e-01,9.99916e-01,5.24887e-02,9.99999e-01
5.559299443e-01,5.56327e-02,9.99999e-01,9.99999e-01,9.99959e-01,5.56350e-02,9.99999e-01
5.587095940e-01,5.89005e-02,9.99999e-01,9.99999e-01,9.99974e-01,5.89020e-02,9.99999e-01
5.615031420e-01,6.22890e-02,9.99999e-01,9.99999e-01,9.99971e-01,6.22907e-02,9.99999e-01
5.643106577e-01,6.57995e-02,9.99999e-01,9.99999e-01,9.99967e-01,6.58016e-02,9.99999e-01
5.671322110e-01,6.94077e-02,9.99999e-01,9.99999e-01,9.99604e-01,6.94351e-02,9.99999e-01
5.699678720e-01,7.31616e-02,9.99999e-01,9.99999e-01,9.99590e-01,7.31915e-02,9.99999e-01
5.728177114e-01,7.70377e-02,9.99999e-01,9.99999e-01,9.99569e-01,7.70709e-02,9.99999e-01
5.756818000e-01,8.10412e-02,9.99999e-01,9.99999e-01,9.99605e-01,8.10732e-02,9.99999e-01
5.785602090e-01,8.51688e-02,9.99999e-01,9.99999e-01,9.99656e-01,8.51980e-02,9.99999e-01
5.814530100e-01,8.94141e-02,9.99999e-01,9.99999e-01,9.99654e-01,8.94450e-02,9.99999e-01
5.843602750e-01,9.37747e-02,9.99999e-01,9.99999e-01,9.99585e-01,9.38135e-02,9.99999e-01
5.872820764e-01,9.79520e-02,9.99999e-01,9.99999e-01,9.96431e-01,9.83028e-02,9.99999e-01
5.902184868e-01,1.02471e-01,9.99999e-01,9.99999e-01,9.95713e-01,1.02912e-01,9.99999e-01
5.931695792e-01,1.07312e-01,9.99999e-01,9.99999e-01,9.96961e-01,1.07639e-01,9.99999e-01
5.961354271e-01,1.12111e-01,9.99999e-01,9.99999e-01,9.96677e-01,1.12484e-01,9.99999e-01
5.991161043e-01,1.17161e-01,9.99999e-01,9.99999e-01,9.97578e-01,1.17445e-01,9.99999e-01
6.021116848e-01,1.22352e-01,9.99999e-01,9.99999e-01,9.98626e-01,1.22520e-01,9.99999e-01
6.051222432e-01,1.27620e-01,9.99999e-01,9.99999e-01,9.99305e-01,1.27708e-01,9.99999e-01
6.081478544e-01,1.32967e-01,9.99999e-01,9.99999e-01,9.99699e-01,1.33007e-01,9.99999e-01
6.111885937e-01,1.38396e-01,9.99999e-01,9.99999e-01,9.99873e-01,1.38414e-01,9.99999e-01
6.142445367e-01,1.43919e-01,9.99999e-01,9.99999e-01,9.99942e-01,1.43927e-01,9.99999e-01
6.173157594e-01,1.49540e-01,9.99999e-01,9.99999e-01,9.99968e-01,1.49545e-01,9.99999e-01
6.204023382e-01,1.55260e-01,9.99999e-01,9.99999e-01,9.99972e-01,1.55264e-01,9.99999e-01
6.235043498e-01,1.61064e-01,9.99999e-01,9.99999e-01,9.99880e-01,1.61083e-01,9.99999e-01
6.266218716e-01,1.66895e-01,9.99999e-01,9.99999e-01,9.99380e-01,1.66999e-01,9.99999e-01
6.297549810e-01,1.72969e-01,9.99999e-01,9.99999e-01,9.99772e-01,1.73008e-01,9.99999e-01
6.329037559e-01,1.79028e-01,9.99999e-01,9.99999e-01,9.99552e-01,1.79109e-01,9.99999e-01
6.360682746e-01,1.85226e-01,9.99999e-01,9.99999e-01,9.99617e-01,1.85297e-01,9.99999e-01
6.392486160e-01,1.91477e-01,9.99999e-01,9.99999e-01,9.99505e-01,1.91571e-01,9.99999e-01
6.424448591e-01,1.97795e-01,9.99999e-01,9.99999e-01,9.99332e-01,1.97928e-01,9.99999e-01
6.456570834e-01,2.03730e-01,9.99999e-01,9.99999e-01,9.96904e-01,2.04363e-01,9.99999e-01
6.488853688e-01,2.10401e-01,9.99999e-01,9.99999e-01,9.97756e-01,2.10874e-01,9.99999e-01
6.521297956e-01,2.16961e-01,9.99999e-01,9.99999e-01,9.97713e-01,2.17458e-01,9.99999e-01
6.553904446e-01,2.23599e-01,9.99999e-01,9.99999e-01,9.97714e-01,2.24111e-01,9.99999e-01
6.586673968e-01,2.30381e-01,9.99999e-01,9.99999e-01,9.98049e-01,2.30831e-01,9.99999e-01
6.619607338e-01,2.37355e-01,9.99999e-01,9.99999e-01,9.98913e-01,2.37613e-01,9.99999e-01
6.652705375e-01,2.44295e-01,9.99999e-01,9.99999e-01,9.99347e-01,2.44455e-01,9.99999e-01
6.685968902e-01,2.51283e-01,9.99999e-01,9.99999e-01,9.99722e-01,2.51352e-01,9.99999e-01
6.719398746e-01,2.58266e-01,9.99999e-01,9.99999e-01,9.99859e-01,2.58303e-01,9.99999e-01
6.752995740e-01,2.65283e-01,9.99999e-01,9.99999e-01,9.99925e-01,2.65302e-01,9.99999e-01
6.786760719e-01,2.72317e-01,9.99999e-01,9.99999e-01,9.99888e-01,2.72347e-01,9.99999e-01
6.820694522e-01,2.79382e-01,9.99999e-01,9.99999e-01,9.99810e-01,2.79435e-01,9.99999e-01
6.854797995e-01,2.86492e-01,9.99999e-01,9.99999e-01,9.99755e-01,2.86562e-01,9.99999e-01
6.889071985e-01,2.93548e-01,9.99999e-01,9.99999e-01,9.99401e-01,2.93724e-01,9.99999e-01
6.923517345e-01,2.98015e-01,9.99999e-01,9.99999e-01,9.90349e-01,3.00919e-01,9.99999e-01
6.958134932e-01,3.06623e-01,9.99999e-01,9.99999e-01,9.95068e-01,3.08142e-01,9.99999e-01
6.992925606e-01,3.13885e-01,9.99999e-01,9.99999e-01,9.95225e-01,3.15391e-01,9.99999e-01
7.027890234e-01,3.20775e-01,9.99999e-01,9.99999e-01,9.94150e-01,3.22662e-01,9.99999e-01
7.063029686e-01,3.28329e-01,9.99999e-01,9.99999e-01,9.95076e-01,3.29953e-01,9.99999e-01
7.098344834e-01,3.35666e-01,9.99999e-01,9.99999e-01,9.95276e-01,3.37259e-01,9.99999e-01
7.133836558e-01,3.42385e-01,9.99999e-01,9.99999e-01,9.93634e-01,3.44578e-01,9.99999e-01
7.169505741e-01,3.34349e-01,9.99999e-01,9.99999e-01,9.50108e-01,3.51906e-01,9.99998e-01
7.205353270e-01,3.50512e-01,9.99999e-01,9.99999e-01,9.75700e-01,3.59241e-01,9.99998e-01
7.241380036e-01,3.55136e-01,9.99999e-01,9.99999e-01,9.68783e-01,3.66580e-01,9.99998e-01
7.277586936e-01,3.63379e-01,9.99999e-01,9.99999e-01,9.71813e-01,3.73919e-01,9.99998e-01
7.313974871e-01,3.69909e-01,9.99999e-01,9.99999e-01,9.70239e-01,3.81255e-01,9.99999e-01
7.350544745e-01,3.82220e-01,9.99999e-01,9.99999e-01,9.83614e-01,3.88587e-01,9.99999e-01
7.387297469e-01,3.91131e-01,9.99999e-01,9.99999e-01,9.87928e-01,3.95910e-01,9.99999e-01
7.424233956e-01,4.00840e-01,9.99999e-01,9.99999e-01,9.94090e-01,4.03223e-01,9.99999e-01
7.461355126e-01,4.09049e-01,9.99999e-01,9.99999e-01,9.96410e-01,4.10522e-01,9.99999e-01
7.498661902e-01,4.17109e-01,9.99999e-01,9.99999e-01,9.98331e-01,4.17805e-01,9.99999e-01
7.536155211e-01,4.24722e-01,9.99999e-01,9.99999e-01,9.99179e-01,4.25070e-01,9.99999e-01
7.573835987e-01,4.32132e-01,9.99999e-01,9.99999e-01,9.99577e-01,4.32314e-01,9.99999e-01
7.611705167e-01,4.39420e-01,9.99999e-01,9.99999e-01,9.99737e-01,4.39535e-01,9.99999e-01
7.649763693e-01,4.46657e-01,9.99999e-01,9.99999e-01,9.99834e-01,4.46730e-01,9.99999e-01
7.688012511e-01,4.53845e-01,9.99999e-01,9.99999e-01,9.99884e-01,4.53897e-01,9.99999e-01
7.726452574e-01,4.60991e-01,9.99999e-01,9.99999e-01,9.99905e-01,4.61035e-01,9.99999e-01
7.765084837e-01,4.68077e-01,9.99999e-01,9.99999e-01,9.99864e-01,4.68140e-01,9.99999e-01
7.803910261e-01,4.57719e-01,9.99999e-01,9.63734e-01,9.99414e-01,4.75211e-01,9.99999e-01
7.842929812e-01,4.11697e-01,9.99999e-01,8.55369e-01,9.97956e-01,4.82246e-01,9.99999e-01
7.882144461e-01,4.11787e-01,9.99999e-01,8.45063e-01,9.95826e-01,4.89244e-01,9.99999e-01
7.921555184e-01,4.48732e-01,9.99999e-01,9.06349e-01,9.97720e-01,4.96201e-01,9.99999e-01
7.961162960e-01,4.69388e-01,9.99999e-01,9.36735e-01,9.95930e-01,5.03117e-01,9.99999e-01
8.000968774e-01,4.89914e-01,9.99999e-01,9.65130e-01,9.95326e-01,5.09990e-01,9.99999e-01
8.040973618e-01,5.05070e-01,9.99999e-01,9.81853e-01,9.95318e-01,5.16819e-01,9.99999e-01
8.081178486e-01,5.13712e-01,9.99999e-01,9.91598e-01,9.89410e-01,5.23601e-01,9.99999e-01
8.121584379e-01,5.06034e-01,9.99999e-01,9.97422e-01,9.56616e-01,5.30336e-01,9.99998e-01
8.162192301e-01,5.09433e-01,9.99999e-01,9.99430e-01,9.49155e-01,5.37022e-01,9.99998e-01
8.203003262e-01,5.29467e-01,9.99999e-01,9.99991e-01,9.73906e-01,5.43657e-01,9.99998e-01
8.244018279e-01,5.30726e-01,9.99999e-01,9.99999e-01,9.64532e-01,5.50241e-01,9.99998e-01
8.285238370e-01,5.39615e-01,9.99999e-01,9.99999e-01,9.69183e-01,5.56773e-01,9.99998e-01
8.326664562e-01,5.45770e-01,9.99999e-01,9.99999e-01,9.68966e-01,5.63250e-01,9.99999e-01
8.368297885e-01,5.57018e-01,9.99999e-01,9.99999e-01,9.77784e-01,5.69673e-01,9.99999e-01
8.410139374e-01,5.68409e-01,9.99999e-01,9.99999e-01,9.86751e-01,5.76040e-01,9.99999e-01
8.452190071e-01,5.78561e-01,9.99999e-01,9.99999e-01,9.93492e-01,5.82350e-01,9.99999e-01
8.494451021e-01,5.86371e-01,9.99999e-01,9.99999e-01,9.96207e-01,5.88603e-01,9.99999e-01
8.536923276e-01,5.93467e-01,9.99999e-01,9.99999e-01,9.97762e-01,5.94797e-01,9.99999e-01
8.579607893e-01,6.00102e-01,9.99999e-01,9.99999e-01,9.98618e-01,6.00933e-01,9.99999e-01
8.622505932e-01,6.06477e-01,9.99999e-01,9.99999e-01,9.99123e-01,6.07008e-01,9.99999e-01
8.665618462e-01,5.64393e-01,9.99999e-01,9.21151e-01,9.99456e-01,6.13023e-01,9.99999e-01
8.708946554e-01,4.15246e-01,9.99999e-01,6.71261e-01,9.99375e-01,6.18977e-01,9.99999e-01
8.752491287e-01,4.53325e-01,9.99999e-01,7.26058e-01,9.99166e-01,6.24870e-01,9.99999e-01
8.796253743e-01,5.28451e-01,9.99999e-01,8.38820e-01,9.98841e-01,6.30701e-01,9.99999e-01
8.840235012e-01,5.80249e-01,9.99999e-01,9.12856e-01,9.98678e-01,6.36469e-01,9.99999e-01
8.884436187e-01,6.16598e-01,9.99999e-01,9.64849e-01,9.95102e-01,6.42175e-01,9.99999e-01
8.928858368e-01,6.06682e-01,9.99999e-01,9.85582e-01,9.50076e-01,6.47817e-01,9.99998e-01
8.973502660e-01,5.95202e-01,9.99999e-01,9.96499e-01,9.14068e-01,6.53396e-01,9.99998e-01
9.018370173e-01,6.29357e-01,9.99999e-01,9.99614e-01,9.55503e-01,6.58912e-01,9.99998e-01
9.063462024e-01,6.31607e-01,9.99999e-01,9.89824e-01,9.60152e-01,6.64364e-01,9.99998e-01
9.108779334e-01,6.14683e-01,9.99999e-01,9.77292e-01,9.38829e-01,6.69752e-01,9.99997e-01
9.154323231e-01,6.25180e-01,9.99999e-01,9.94678e-01,9.30935e-01,6.75076e-01,9.99997e-01
9.200094847e-01,5.95979e-01,9.99999e-01,9.23590e-01,9.45612e-01,6.80336e-01,9.99997e-01
9.246095321e-01,5.61468e-01,9.99999e-01,8.93558e-01,9.14639e-01,6.85532e-01,9.99995e-01
9.292325798e-01,3.54496e-01,9.99999e-01,9.14796e-01,5.55587e-01,6.90663e-01,9.99990e-01
9.338787427e-01,3.04256e-01,9.99999e-01,9.18260e-01,4.71881e-01,6.95731e-01,9.99988e-01
9.385481364e-01,4.88076e-01,9.99999e-01,9.39222e-01,7.38843e-01,7.00734e-01,9.99988e-01
9.432408771e-01,4.45542e-01,9.99999e-01,9.62430e-01,6.54588e-01,7.05674e-01,9.99987e-01
9.479570815e-01,3.89436e-01,9.99999e-01,9.80510e-01,5.58344e-01,7.10550e-01,9.99988e-01
9.526968669e-01,4.58811e-01,9.99999e-01,9.90575e-01,6.46922e-01,7.15362e-01,9.99991e-01
9.574603512e-01,4.79566e-01,9.99999e-01,9.95963e-01,6.68478e-01,7.20111e-01,9.99993e-01
9.622476530e-01,5.21899e-01,9.99999e-01,9.98740e-01,7.20917e-01,7.24796e-01,9.99995e-01
9.670588912e-01,6.03593e-01,9.99999e-01,9.99623e-01,8.27794e-01,7.29419e-01,9.99996e-01
9.718941857e-01,6.51988e-01,9.99999e-01,9.99973e-01,8.88314e-01,7.33979e-01,9.99997e-01
9.767536566e-01,6.69311e-01,9.99999e-01,9.99999e-01,9.06341e-01,7.38477e-01,9.99998e-01
9.816374249e-01,6.90815e-01,9.99999e-01,9.99999e-01,9.29875e-01,7.42912e-01,9.99998e-01
9.865456120e-01,7.14112e-01,9.99999e-01,9.99999e-01,9.55607e-01,7.47286e-01,9.99999e-01
9.914783401e-01,7.30789e-01,9.99999e-01,9.99999e-01,9.72312e-01,7.51598e-01,9.99999e-01
9.964357318e-01,7.44385e-01,9.99999e-01,9.99999e-01,9.84831e-01,7.55849e-01,9.99999e-01
1.001417910e+00,7.53114e-01,9.99999e-01,9.99999e-01,9.90887e-01,7.60040e-01,9.99999e-01
1.006425000e+00,7.60186e-01,9.99999e-01,9.99999e-01,9.94785e-01,7.64170e-01,9.99999e-01
1.011457125e+00,7.65759e-01,9.99999e-01,9.99999e-01,9.96768e-01,7.68241e-01,9.99999e-01
1.016514411e+00,7.70555e-01,9.99999e-01,9.99999e-01,9.97802e-01,7.72252e-01,9.99999e-01
1.021596983e+00,7.74798e-01,9.99999e-01,9.99938e-01,9.98247e-01,7.76205e-01,9.99999e-01
1.026704968e+00,7.75922e-01,9.99999e-01,9.96005e-01,9.98632e-01,7.80098e-01,9.99999e-01
1.031838492e+00,7.45084e-01,9.99999e-01,9.51353e-01,9.99007e-01,7.83934e-01,9.99999e-01
1.036997685e+00,1.14436e-01,9.99999e-01,1.45344e-01,9.99409e-01,7.87713e-01,9.99999e-01
1.042182673e+00,8.82401e-02,9.99999e-01,1.11563e-01,9.99293e-01,7.91434e-01,9.99999e-01
1.047393587e+00,1.04968e-01,9.99999e-01,1.32128e-01,9.99064e-01,7.95099e-01,9.99999e-01
1.052630555e+00,2.60353e-03,9.99999e-01,3.26273e-03,9.98715e-01,7.98709e-01,9.99999e-01
1.057893707e+00,6.88707e-03,9.99999e-01,8.59693e-03,9.97852e-01,8.02262e-01,9.99999e-01
1.063183176e+00,2.39334e-02,9.99999e-01,2.97775e-02,9.96471e-01,8.05761e-01,9.99999e-01
1.068499092e+00,6.90903e-02,9.99999e-01,8.58029e-02,9.94104e-01,8.09206e-01,9.99999e-01
1.073841587e+00,1.71711e-01,9.99999e-01,2.12560e-01,9.93090e-01,8.12597e-01,9.99999e-01
1.079210795e+00,3.03515e-01,9.99999e-01,3.74990e-01,9.91181e-01,8.15935e-01,9.99999e-01
1.084606849e+00,4.71536e-01,9.99999e-01,5.83007e-01,9.86655e-01,8.19220e-01,9.99999e-01
1.090029883e+00,6.09689e-01,9.99999e-01,7.55421e-01,9.80772e-01,8.22453e-01,9.99998e-01
1.095480033e+00,6.82608e-01,9.99999e-01,8.71090e-01,9.48560e-01,8.25634e-01,9.99998e-01
1.100957433e+00,6.78573e-01,9.99999e-01,9.35639e-01,8.74469e-01,8.28765e-01,9.99997e-01
1.106462220e+00,5.76233e-01,9.99999e-01,9.72906e-01,7.11273e-01,8.31845e-01,9.99994e-01
1.111994531e+00,4.06391e-01,9.99999e-01,9.89870e-01,4.91380e-01,8.34876e-01,9.99989e-01
1.117554504e+00,2.66280e-01,9.99999e-01,9.97530e-01,3.18451e-01,8.37857e-01,9.99985e-01
1.123142276e+00,3.66567e-01,9.99999e-01,9.99838e-01,4.36019e-01,8.40790e-01,9.99982e-01
1.128757988e+00,4.92257e-01,9.99999e-01,9.99999e-01,5.83478e-01,8.43675e-01,9.99981e-01
1.134401778e+00,2.77864e-01,9.99999e-01,9.99999e-01,3.28252e-01,8.46512e-01,9.99979e-01
1.140073787e+00,6.14399e-01,9.99999e-01,9.99999e-01,7.23427e-01,8.49303e-01,9.99983e-01
1.145774156e+00,4.36612e-01,9.99999e-01,9.99999e-01,5.12433e-01,8.52048e-01,9.99985e-01
1.151503026e+00,4.06282e-01,9.99999e-01,9.99999e-01,4.75330e-01,8.54747e-01,9.99987e-01
1.157260541e+00,4.58678e-01,9.99999e-01,9.99999e-01,5.34967e-01,8.57401e-01,9.99990e-01
1.163046844e+00,5.41795e-01,9.99999e-01,9.99999e-01,6.29989e-01,8.60010e-01,9.99993e-01
1.168862078e+00,6.25234e-01,9.99999e-01,9.99999e-01,7.24847e-01,8.62576e-01,9.99996e-01
1.174706389e+00,7.09225e-01,9.99999e-01,9.99999e-01,8.19821e-01,8.65098e-01,9.99998e-01
1.180579921e+00,7.68727e-01,9.99999e-01,9.99999e-01,8.86060e-01,8.67578e-01,9.99998e-01
1.186482820e+00,8.12472e-01,9.99999e-01,9.99990e-01,9.33867e-01,8.70016e-01,9.99998e-01
1.192415234e+00,8.26438e-01,9.99999e-01,9.85759e-01,9.60827e-01,8.72412e-01,9.99998e-01
1.198377311e+00,4.75769e-01,9.99999e-01,5.59418e-01,9.66830e-01,8.74767e-01,9.99998e-01
1.204369197e+00,1.31844e-11,9.99999e-01,1.53115e-11,9.68613e-01,8.77082e-01,9.99999e-01
1.210391043e+00,2.02014e-42,9.99999e-01,2.33651e-42,9.69969e-01,8.79357e-01,9.99999e-01
1.216442998e+00,6.54254e-37,9.99999e-01,7.54128e-37,9.74446e-01,8.81593e-01,9.99999e-01
1.222525213e+00,2.23975e-36,9.99999e-01,2.56073e-36,9.80035e-01,8.83790e-01,9.99999e-01
1.228637839e+00,3.52861e-28,9.99999e-01,4.02161e-28,9.86087e-01,8.85950e-01,9.99999e-01
