#,Wave/freq,Total,O2,CO2,H2O,Rayleigh,CIA
4.000000000e-01,2.27220e-09,9.99999e-01,9.99999e-01,9.99960e-01,2.27229e-09,9.99999e-01
4.020000000e-01,3.36794e-09,9.99999e-01,9.99999e-01,9.99975e-01,3.36802e-09,9.99999e-01
4.040100000e-01,4.95138e-09,9.99999e-01,9.99999e-01,9.99989e-01,4.95143e-09,9.99999e-01
4.060300500e-01,7.22402e-09,9.99999e-01,9.99999e-01,9.99997e-01,7.22404e-09,9.99999e-01
4.080602003e-01,1.04614e-08,9.99999e-01,9.99999e-01,9.99998e-01,1.04614e-08,9.99999e-01
4.101005013e-01,1.50391e-08,9.99999e-01,9.99999e-01,9.99999e-01,1.50391e-08,9.99999e-01
4.121510038e-01,2.14655e-08,9.99999e-01,9.99999e-01,9.99998e-01,2.14655e-08,9.99999e-01
4.142117588e-01,3.04231e-08,9.99999e-01,9.99999e-01,9.99988e-01,3.04235e-08,9.99999e-01
4.162828176e-01,4.28216e-08,9.99999e-01,9.99999e-01,9.99951e-01,4.28237e-08,9.99999e-01
4.183642317e-01,5.98706e-08,9.99999e-01,9.99999e-01,9.99970e-01,5.98723e-08,9.99999e-01
4.204560528e-01,8.31546e-08,9.99999e-01,9.99999e-01,9.99981e-01,8.31561e-08,9.99999e-01
4.225583331e-01,1.14747e-07,9.99999e-01,9.99999e-01,9.99992e-01,1.14748e-07,9.99999e-01
4.246711247e-01,1.57336e-07,9.99999e-01,9.99999e-01,9.99994e-01,1.57337e-07,9.99999e-01
4.267944804e-01,2.14391e-07,9.99999e-01,9.99999e-01,9.99991e-01,2.14393e-07,9.99999e-01
4.289284528e-01,2.90357e-07,9.99999e-01,9.99999e-01,9.99993e-01,2.90359e-07,9.99999e-01
4.310730950e-01,3.90893e-07,9.99999e-01,9.99999e-01,9.99996e-01,3.90894e-07,9.99999e-01
4.332284605e-01,5.23156e-07,9.99999e-01,9.99999e-01,9.99998e-01,5.23156e-07,9.99999e-01
4.353946028e-01,6.96152e-07,9.99999e-01,9.99999e-01,9.99999e-01,6.96152e-07,9.99999e-01
4.375715758e-01,9.21136e-07,9.99999e-01,9.99999e-01,9.99994e-01,9.21140e-07,9.99999e-01
4.397594337e-01,1.21207e-06,9.99999e-01,9.99999e-01,9.99957e-01,1.21212e-06,9.99999e-01
4.419582309e-01,1.58605e-06,9.99999e-01,9.99999e-01,9.99788e-01,1.58639e-06,9.99999e-01
4.441680220e-01,2.06487e-06,9.99999e-01,9.99999e-01,9.99830e-01,2.06522e-06,9.99999e-01
4.463888621e-01,2.67414e-06,9.99999e-01,9.99999e-01,9.99824e-01,2.67461e-06,9.99999e-01
4.486208064e-01,3.44578e-06,9.99999e-01,9.99999e-01,9.99890e-01,3.44616e-06,9.99999e-01
4.508639105e-01,4.41788e-06,9.99999e-01,9.99999e-01,9.99948e-01,4.41811e-06,9.99999e-01
4.531182300e-01,5.63634e-06,9.99999e-01,9.99999e-01,9.99979e-01,5.63646e-06,9.99999e-01
4.553838212e-01,7.15617e-06,9.99999e-01,9.99999e-01,9.99985e-01,7.15627e-06,9.99999e-01
4.576607403e-01,9.04309e-06,9.99999e-01,9.99999e-01,9.99993e-01,9.04314e-06,9.99999e-01
4.599490440e-01,1.13748e-05,9.99999e-01,9.99999e-01,9.99995e-01,1.13748e-05,9.99999e-01
4.622487892e-01,1.42430e-05,9.99999e-01,9.99999e-01,9.99998e-01,1.42430e-05,9.99999e-01
4.645600332e-01,1.77553e-05,9.99999e-01,9.99999e-01,9.99996e-01,1.77554e-05,9.99999e-01
4.668828333e-01,2.20367e-05,9.99999e-01,9.99999e-01,9.99948e-01,2.20378e-05,9.99999e-01
4.692172475e-01,2.72335e-05,9.99999e-01,9.99999e-01,9.99889e-01,2.72365e-05,9.99999e-01
4.715633337e-01,3.35187e-05,9.99999e-01,9.99999e-01,9.99928e-01,3.35211e-05,9.99999e-01
4.739211504e-01,4.10842e-05,9.99999e-01,9.99999e-01,9.99930e-01,4.10870e-05,9.99999e-01
4.762907561e-01,5.01568e-05,9.99999e-01,9.99999e-01,9.99963e-01,5.01586e-05,9.99999e-01
4.786722099e-01,6.09912e-05,9.99999e-01,9.99999e-01,9.99984e-01,6.09921e-05,9.99999e-01
4.810655710e-01,7.38794e-05,9.99999e-01,9.99999e-01,9.99995e-01,7.38797e-05,9.99999e-01
4.834708988e-01,8.91485e-05,9.99999e-01,9.99999e-01,9.99958e-01,8.91522e-05,9.99999e-01
4.858882533e-01,1.07175e-04,9.99999e-01,9.99999e-01,9.99921e-01,1.07183e-04,9.99999e-01
4.883176946e-01,1.28385e-04,9.99999e-01,9.99999e-01,9.99934e-01,1.28393e-04,9.99999e-01
4.907592831e-01,1.53244e-04,9.99999e-01,9.99999e-01,9.99940e-01,1.53253e-04,9.99999e-01
4.932130795e-01,1.82279e-04,9.99999e-01,9.99999e-01,9.99957e-01,1.82287e-04,9.99999e-01
4.956791449e-01,2.16075e-04,9.99999e-01,9.99999e-01,9.99977e-01,2.16080e-04,9.99999e-01
4.981575406e-01,2.55251e-04,9.99999e-01,9.99999e-01,9.99889e-01,2.55279e-04,9.99999e-01
5.006483283e-01,3.00513e-04,9.99999e-01,9.99999e-01,9.99717e-01,3.00598e-04,9.99999e-01
5.031515699e-01,3.52311e-04,9.99999e-01,9.99999e-01,9.98555e-01,3.52821e-04,9.99999e-01
5.056673278e-01,4.12492e-04,9.99999e-01,9.99999e-01,9.99234e-01,4.12808e-04,9.99999e-01
5.081956644e-01,4.81034e-04,9.99999e-01,9.99999e-01,9.99033e-01,4.81499e-04,9.99999e-01
5.107366428e-01,5.59550e-04,9.99999e-01,9.99999e-01,9.99346e-01,5.59916e-04,9.99999e-01
5.132903260e-01,6.48923e-04,9.99999e-01,9.99999e-01,9.99625e-01,6.49165e-04,9.99999e-01
5.158567776e-01,7.50327e-04,9.99999e-01,9.99999e-01,9.99841e-01,7.50445e-04,9.99999e-01
5.184360615e-01,8.64992e-04,9.99999e-01,9.99999e-01,9.99936e-01,8.65046e-04,9.99999e-01
5.210282418e-01,9.94329e-04,9.99999e-01,9.99999e-01,9.99976e-01,9.94352e-04,9.99999e-01
5.236333830e-01,1.13974e-03,9.99999e-01,9.99999e-01,9.99905e-01,1.13985e-03,9.99999e-01
5.262515499e-01,1.30303e-03,9.99999e-01,9.99999e-01,9.99940e-01,1.30311e-03,9.99999e-01
5.288828077e-01,1.48574e-03,9.99999e-01,9.99999e-01,9.99945e-01,1.48582e-03,9.99999e-01
5.315272217e-01,1.68969e-03,9.99999e-01,9.99999e-01,9.99951e-01,1.68977e-03,9.99999e-01
5.341848578e-01,1.91678e-03,9.99999e-01,9.99999e-01,9.99968e-01,1.91684e-03,9.99999e-01
5.368557821e-01,2.16877e-03,9.99999e-01,9.99999e-01,9.99890e-01,2.16901e-03,9.99999e-01
5.395400610e-01,2.44741e-03,9.99999e-01,9.99999e-01,9.99608e-01,2.44837e-03,9.99999e-01
5.422377613e-01,2.75568e-03,9.99999e-01,9.99999e-01,9.99485e-01,2.75710e-03,9.99999e-01
5.449489501e-01,3.09602e-03,9.99999e-01,9.99999e-01,9.99525e-01,3.09749e-03,9.99999e-01
5.476736949e-01,3.47044e-03,9.99999e-01,9.99999e-01,9.99575e-01,3.47191e-03,9.99999e-01
5.504120634e-01,3.88164e-03,9.99999e-01,9.99999e-01,9.99691e-01,3.88283e-03,9.99999e-01
5.531641237e-01,4.33213e-03,9.99999e-01,9.99999e-01,9.99844e-01,4.33280e-03,9.99999e-01
5.559299443e-01,4.82410e-03,9.99999e-01,9.99999e-01,9.99924e-01,4.82446e-03,9.99999e-01
5.587095940e-01,5.36026e-03,9.99999e-01,9.99999e-01,9.99952e-01,5.36051e-03,9.99999e-01
5.615031420e-01,5.94343e-03,9.99999e-01,9.99999e-01,9.99947e-01,5.94374e-03,9.99999e-01
5.643106577e-01,6.57662e-03,9.99999e-01,9.99999e-01,9.99941e-01,6.57700e-03,9.99999e-01
5.671322110e-01,7.25810e-03,9.99999e-01,9.99999e-01,9.99299e-01,7.26318e-03,9.99999e-01
5.699678720e-01,7.99910e-03,9.99999e-01,9.99999e-01,9.99230e-01,8.00525e-03,9.99999e-01
5.728177114e-01,8.79924e-03,9.99999e-01,9.99999e-01,9.99208e-01,8.80620e-03,9.99999e-01
5.756818000e-01,9.66202e-03,9.99999e-01,9.99999e-01,9.99271e-01,9.66906e-03,9.99999e-01
5.785602090e-01,1.05901e-02,9.99999e-01,9.99999e-01,9.99363e-01,1.05969e-02,9.99999e-01
5.814530100e-01,1.15853e-02,9.99999e-01,9.99999e-01,9.99362e-01,1.15927e-02,9.99999e-01
5.843602750e-01,1.26502e-02,9.99999e-01,9.99999e-01,9.99247e-01,1.26597e-02,9.99999e-01
5.872820764e-01,1.37114e-02,9.99999e-01,9.99999e-01,9.93521e-01,1.38008e-02,9.99999e-01
5.902184868e-01,1.49001e-02,9.99999e-01,9.99999e-01,9.92070e-01,1.50192e-02,9.99999e-01
5.931695792e-01,1.62266e-02,9.99999e-01,9.99999e-01,9.94413e-01,1.63178e-02,9.99999e-01
5.961354271e-01,1.75910e-02,9.99999e-01,9.99999e-01,9.93860e-01,1.76997e-02,9.99999e-01
5.991161043e-01,1.90818e-02,9.99999e-01,9.99999e-01,9.95513e-01,1.91678e-02,9.99999e-01
6.021116848e-01,2.06722e-02,9.99999e-01,9.99999e-01,9.97448e-01,2.07251e-02,9.99999e-01
6.051222432e-01,2.23454e-02,9.99999e-01,9.99999e-01,9.98707e-01,2.23743e-02,9.99999e-01
6.081478544e-01,2.41048e-02,9.99999e-01,9.99999e-01,9.99442e-01,2.41183e-02,9.99999e-01
6.111885937e-01,2.59535e-02,9.99999e-01,9.99999e-01,9.99763e-01,2.59597e-02,9.99999e-01
6.142445367e-01,2.78981e-02,9.99999e-01,9.99999e-01,9.99894e-01,2.79010e-02,9.99999e-01
6.173157594e-01,2.99432e-02,9.99999e-01,9.99999e-01,9.99941e-01,2.99449e-02,9.99999e-01
6.204023382e-01,3.20921e-02,9.99999e-01,9.99999e-01,9.99950e-01,3.20937e-02,9.99999e-01
6.235043498e-01,3.43423e-02,9.99999e-01,9.99999e-01,9.99788e-01,3.43496e-02,9.99999e-01
6.266218716e-01,3.66729e-02,9.99999e-01,9.99999e-01,9.98859e-01,3.67148e-02,9.99999e-01
6.297549810e-01,3.91748e-02,9.99999e-01,9.99999e-01,9.99581e-01,3.91912e-02,9.99999e-01
6.329037559e-01,4.17462e-02,9.99999e-01,9.99999e-01,9.99170e-01,4.17808e-02,9.99999e-01
6.360682746e-01,4.44540e-02,9.99999e-01,9.99999e-01,9.99297e-01,4.44852e-02,9.99999e-01
6.392486160e-01,4.72629e-02,9.99999e-01,9.99999e-01,9.99087e-01,4.73061e-02,9.99999e-01
6.424448591e-01,5.01898e-02,9.99999e-01,9.99999e-01,9.98906e-01,5.02447e-02,9.99999e-01
6.456570834e-01,5.30058e-02,9.99999e-01,9.99999e-01,9.94434e-01,5.33025e-02,9.99999e-01
6.488853688e-01,5.62044e-02,9.99999e-01,9.99999e-01,9.95114e-01,5.64803e-02,9.99999e-01
6.521297956e-01,5.95260e-02,9.99999e-01,9.99999e-01,9.95763e-01,5.97792e-02,9.99999e-01
6.553904446e-01,6.29356e-02,9.99999e-01,9.99999e-01,9.95817e-01,6.31999e-02,9.99999e-01
6.586673968e-01,6.65014e-02,9.99999e-01,9.99999e-01,9.96381e-01,6.67429e-02,9.99999e-01
6.619607338e-01,7.02614e-02,9.99999e-01,9.99999e-01,9.97907e-01,7.04087e-02,9.99999e-01
6.652705375e-01,7.41072e-02,9.99999e-01,9.99999e-01,9.98784e-01,7.41973e-02,9.99999e-01
6.685968902e-01,7.80649e-02,9.99999e-01,9.99999e-01,9.99435e-01,7.81090e-02,9.99999e-01
6.719398746e-01,8.21219e-02,9.99999e-01,9.99999e-01,9.99737e-01,8.21434e-02,9.99999e-01
6.752995740e-01,8.62882e-02,9.99999e-01,9.99999e-01,9.99858e-01,8.63004e-02,9.99999e-01
6.786760719e-01,9.05610e-02,9.99999e-01,9.99999e-01,9.99797e-01,9.05793e-02,9.99999e-01
6.820694522e-01,9.49466e-02,9.99999e-01,9.99999e-01,9.99652e-01,9.49796e-02,9.99999e-01
6.854797995e-01,9.94558e-02,9.99999e-01,9.99999e-01,9.99552e-01,9.95004e-02,9.99999e-01
6.889071985e-01,1.04030e-01,9.99999e-01,9.99999e-01,9.98934e-01,1.04141e-01,9.99999e-01
6.923517345e-01,1.06995e-01,9.99999e-01,9.99999e-01,9.82511e-01,1.08899e-01,9.99999e-01
6.958134932e-01,1.12713e-01,9.99999e-01,9.99999e-01,9.90672e-01,1.13775e-01,9.99999e-01
6.992925606e-01,1.17735e-01,9.99999e-01,9.99999e-01,9.91320e-01,1.18766e-01,9.99999e-01
7.027890234e-01,1.22533e-01,9.99999e-01,9.99999e-01,9.89197e-01,1.23871e-01,9.99999e-01
7.063029686e-01,1.27915e-01,9.99999e-01,9.99999e-01,9.90919e-01,1.29088e-01,9.99999e-01
7.098344834e-01,1.33243e-01,9.99999e-01,9.99999e-01,9.91284e-01,1.34415e-01,9.99999e-01
7.133836558e-01,1.38252e-01,9.99999e-01,9.99999e-01,9.88572e-01,1.39850e-01,9.99999e-01
7.169505741e-01,1.32501e-01,9.99999e-01,9.99999e-01,9.11344e-01,1.45391e-01,9.99998e-01
7.205353270e-01,1.44185e-01,9.99999e-01,9.99999e-01,9.54645e-01,1.51036e-01,9.99998e-01
7.241380036e-01,1.47947e-01,9.99999e-01,9.99999e-01,9.43651e-01,1.56781e-01,9.99998e-01
7.277586936e-01,1.54326e-01,9.99999e-01,9.99999e-01,9.48962e-01,1.62626e-01,9.99998e-01
7.313974871e-01,1.59359e-01,9.99999e-01,9.99999e-01,9.45378e-01,1.68566e-01,9.99998e-01
7.350544745e-01,1.69333e-01,9.99999e-01,9.99999e-01,9.69836e-01,1.74600e-01,9.99999e-01
7.387297469e-01,1.76691e-01,9.99999e-01,9.99999e-01,9.77688e-01,1.80724e-01,9.99999e-01
7.424233956e-01,1.84877e-01,9.99999e-01,9.99999e-01,9.88990e-01,1.86935e-01,9.99999e-01
7.461355126e-01,1.91942e-01,9.99999e-01,9.99999e-01,9.93327e-01,1.93231e-01,9.99999e-01
7.498661902e-01,1.98985e-01,9.99999e-01,9.99999e-01,9.96879e-01,1.99608e-01,9.99999e-01
7.536155211e-01,2.05749e-01,9.99999e-01,9.99999e-01,9.98473e-01,2.06064e-01,9.99999e-01
7.573835987e-01,2.12427e-01,9.99999e-01,9.99999e-01,9.99212e-01,2.12594e-01,9.99999e-01
7.611705167e-01,2.19090e-01,9.99999e-01,9.99999e-01,9.99511e-01,2.19197e-01,9.99999e-01
7.649763693e-01,2.25799e-01,9.99999e-01,9.99999e-01,9.99693e-01,2.25868e-01,9.99999e-01
7.688012511e-01,2.32555e-01,9.99999e-01,9.99999e-01,9.99786e-01,2.32604e-01,9.99999e-01
7.726452574e-01,2.39360e-01,9.99999e-01,9.99999e-01,9.99824e-01,2.39402e-01,9.99999e-01
7.765084837e-01,2.46198e-01,9.99999e-01,9.99999e-01,9.99753e-01,2.46259e-01,9.99999e-01
7.803910261e-01,2.38619e-01,9.99999e-01,9.43469e-01,9.98937e-01,2.53171e-01,9.99999e-01
7.842929812e-01,1.95107e-01,9.99999e-01,7.52576e-01,9.96296e-01,2.60134e-01,9.99999e-01
7.882144461e-01,1.96423e-01,9.99999e-01,7.40565e-01,9.92310e-01,2.67146e-01,9.99999e-01
7.921555184e-01,2.28214e-01,9.99999e-01,8.35682e-01,9.95753e-01,2.74203e-01,9.99999e-01
7.961162960e-01,2.47242e-01,9.99999e-01,8.85360e-01,9.92597e-01,2.81301e-01,9.99999e-01
8.000968774e-01,2.67721e-01,9.99999e-01,9.36185e-01,9.91397e-01,2.88437e-01,9.99999e-01
8.040973618e-01,2.83183e-01,9.99999e-01,9.66238e-01,9.91408e-01,2.95609e-01,9.99999e-01
8.081178486e-01,2.92411e-01,9.99999e-01,9.84426e-01,9.80880e-01,3.02811e-01,9.99999e-01
8.121584379e-01,2.84676e-01,9.99999e-01,9.95119e-01,9.22606e-01,3.10041e-01,9.99998e-01
8.162192301e-01,2.87764e-01,9.99999e-01,9.98919e-01,9.07873e-01,3.17297e-01,9.99998e-01
8.203003262e-01,3.09690e-01,9.99999e-01,9.99981e-01,9.54159e-01,3.24573e-01,9.99998e-01
8.244018279e-01,3.10295e-01,9.99999e-01,9.99999e-01,9.34996e-01,3.31868e-01,9.99998e-01
8.285238370e-01,3.20278e-01,9.99999e-01,9.99999e-01,9.44277e-01,3.39178e-01,9.99998e-01
8.326664562e-01,3.26909e-01,9.99999e-01,9.99999e-01,9.43461e-01,3.46500e-01,9.99998e-01
8.368297885e-01,3.39375e-01,9.99999e-01,9.99999e-01,9.59147e-01,3.53830e-01,9.99999e-01
8.410139374e-01,3.52320e-01,9.99999e-01,9.99999e-01,9.75505e-01,3.61166e-01,9.99999e-01
8.452190071e-01,3.64046e-01,9.99999e-01,9.99999e-01,9.87898e-01,3.68505e-01,9.99999e-01
8.494451021e-01,3.73210e-01,9.99999e-01,9.99999e-01,9.92990e-01,3.75844e-01,9.99999e-01
8.536923276e-01,3.81583e-01,9.99999e-01,9.99999e-01,9.95833e-01,3.83179e-01,9.99999e-01
8.579607893e-01,3.89510e-01,9.99999e-01,9.99999e-01,9.97441e-01,3.90509e-01,9.99999e-01
8.622505932e-01,3.97181e-01,9.99999e-01,9.99999e-01,9.98369e-01,3.97830e-01,9.99999e-01
8.665618462e-01,3.63561e-01,9.99999e-01,8.98227e-01,9.98995e-01,4.05139e-01,9.99999e-01
8.708946554e-01,2.03574e-01,9.99999e-01,4.94124e-01,9.98852e-01,4.12434e-01,9.99999e-01
8.752491287e-01,2.34590e-01,9.99999e-01,5.59746e-01,9.98463e-01,4.19713e-01,9.99999e-01
8.796253743e-01,3.08256e-01,9.99999e-01,7.23408e-01,9.97881e-01,4.26973e-01,9.99999e-01
8.840235012e-01,3.65748e-01,9.99999e-01,8.44316e-01,9.97577e-01,4.34211e-01,9.99999e-01
8.884436187e-01,4.09229e-01,9.99999e-01,9.34985e-01,9.91373e-01,4.41425e-01,9.99999e-01
8.928858368e-01,3.98227e-01,9.99999e-01,9.73198e-01,9.11731e-01,4.48613e-01,9.99998e-01
8.973502660e-01,3.83998e-01,9.99999e-01,9.93375e-01,8.47926e-01,4.55773e-01,9.99997e-01
9.018370173e-01,4.24941e-01,9.99999e-01,9.99266e-01,9.18632e-01,4.62902e-01,9.99997e-01
9.063462024e-01,4.29365e-01,9.99999e-01,9.82167e-01,9.29150e-01,4.69998e-01,9.99996e-01
9.108779334e-01,4.07739e-01,9.99999e-01,9.58161e-01,8.91147e-01,4.77060e-01,9.99996e-01
9.154323231e-01,4.20372e-01,9.99999e-01,9.89909e-01,8.76882e-01,4.84086e-01,9.99996e-01
9.200094847e-01,3.90744e-01,9.99999e-01,8.73884e-01,9.02074e-01,4.91073e-01,9.99995e-01
9.246095321e-01,3.48242e-01,9.99999e-01,8.11917e-01,8.55987e-01,4.98020e-01,9.99992e-01
9.292325798e-01,1.58228e-01,9.99999e-01,8.52013e-01,3.58391e-01,5.04925e-01,9.99984e-01
9.338787427e-01,1.18138e-01,9.99999e-01,8.54454e-01,2.63356e-01,5.11786e-01,9.99979e-01
9.385481364e-01,2.71799e-01,9.99999e-01,8.90462e-01,5.81944e-01,5.18603e-01,9.99979e-01
9.432408771e-01,2.37362e-01,9.99999e-01,9.31008e-01,4.82205e-01,5.25373e-01,9.99976e-01
9.479570815e-01,1.89149e-01,9.99999e-01,9.64099e-01,3.67578e-01,5.32095e-01,9.99979e-01
9.526968669e-01,2.45640e-01,9.99999e-01,9.82499e-01,4.62910e-01,5.38767e-01,9.99984e-01
9.574603512e-01,2.62427e-01,9.99999e-01,9.92471e-01,4.84402e-01,5.45389e-01,9.99988e-01
9.622476530e-01,3.03223e-01,9.99999e-01,9.97643e-01,5.50519e-01,5.51960e-01,9.99992e-01
9.670588912e-01,3.95266e-01,9.99999e-01,9.99291e-01,7.08216e-01,5.58477e-01,9.99994e-01
9.718941857e-01,4.54381e-01,9.99999e-01,9.99948e-01,8.04336e-01,5.64940e-01,9.99996e-01
9.767536566e-01,4.76847e-01,9.99999e-01,9.99999e-01,8.34600e-01,5.71349e-01,9.99997e-01
9.816374249e-01,5.04939e-01,9.99999e-01,9.99999e-01,8.74050e-01,5.77701e-01,9.99998e-01
9.865456120e-01,5.36816e-01,9.99999e-01,9.99999e-01,9.19211e-01,5.83996e-01,9.99998e-01
9.914783401e-01,5.60284e-01,9.99999e-01,9.99999e-01,9.49258e-01,5.90234e-01,9.99999e-01
9.964357318e-01,5.79731e-01,9.99999e-01,9.99999e-01,9.72030e-01,5.96413e-01,9.99999e-01
1.001417910e+00,5.92371e-01,9.99999e-01,9.99999e-01,9.83135e-01,6.02532e-01,9.99999e-01
1.006425000e+00,6.02734e-01,9.99999e-01,9.99999e-01,9.90374e-01,6.08592e-01,9.99999e-01
1.011457125e+00,6.10902e-01,9.99999e-01,9.99999e-01,9.93997e-01,6.14591e-01,9.99999e-01
1.016514411e+00,6.18003e-01,9.99999e-01,9.99999e-01,9.95928e-01,6.20529e-01,9.99999e-01
1.021596983e+00,6.24321e-01,9.99999e-01,9.99913e-01,9.96757e-01,6.26406e-01,9.99999e-01
1.026704968e+00,6.26208e-01,9.99999e-01,9.92994e-01,9.97472e-01,6.32220e-01,9.99999e-01
1.031838492e+00,5.95841e-01,9.99999e-01,9.35616e-01,9.98157e-01,6.37972e-01,9.99999e-01
1.036997685e+00,5.49497e-02,9.99999e-01,8.54419e-02,9.98907e-01,6.43661e-01,9.99999e-01
1.042182673e+00,1.44706e-02,9.99999e-01,2.23107e-02,9.98702e-01,6.49287e-01,9.99999e-01
1.047393587e+00,2.67531e-02,9.99999e-01,4.09142e-02,9.98277e-01,6.54850e-01,9.99999e-01
1.052630555e+00,5.77500e-05,9.99999e-01,8.75927e-05,9.97639e-01,6.60349e-01,9.99999e-01
1.057893707e+00,1.92951e-04,9.99999e-01,2.90469e-04,9.96069e-01,6.65784e-01,9.99999e-01
1.063183176e+00,1.55120e-03,9.99999e-01,2.32074e-03,9.93530e-01,6.71155e-01,9.99999e-01
1.068499092e+00,8.25985e-03,9.99999e-01,1.23106e-02,9.89174e-01,6.76462e-01,9.99999e-01
1.073841587e+00,4.07326e-02,9.99999e-01,6.03465e-02,9.87371e-01,6.81705e-01,9.99999e-01
1.079210795e+00,1.14793e-01,9.99999e-01,1.69450e-01,9.83781e-01,6.86884e-01,9.99999e-01
1.084606849e+00,2.50495e-01,9.99999e-01,3.70282e-01,9.75602e-01,6.91999e-01,9.99998e-01
1.090029883e+00,4.01718e-01,9.99999e-01,5.95921e-01,9.65375e-01,6.97050e-01,9.99998e-01
1.095480033e+00,4.94642e-01,9.99999e-01,7.74215e-01,9.08276e-01,7.02036e-01,9.99997e-01
1.100957433e+00,4.90995e-01,9.99999e-01,8.83751e-01,7.83995e-01,7.06959e-01,9.99995e-01
1.106462220e+00,3.69676e-01,9.99999e-01,9.50082e-01,5.44868e-01,7.11818e-01,9.99990e-01
1.111994531e+00,1.98755e-01,9.99999e-01,9.81190e-01,2.82025e-01,7.16614e-01,9.99981e-01
1.117554504e+00,9.57303e-02,9.99999e-01,9.95351e-01,1.33148e-01,7.21346e-01,9.99973e-01
1.123142276e+00,1.73609e-01,9.99999e-01,9.99691e-01,2.39153e-01,7.26015e-01,9.99968e-01
1.128757988e+00,2.82255e-01,9.99999e-01,9.99999e-01,3.86335e-01,7.30621e-01,9.99966e-01
1.134401778e+00,1.32685e-01,9.99999e-01,9.99999e-01,1.80491e-01,7.35165e-01,9.99961e-01
1.140073787e+00,4.13723e-01,9.99999e-01,9.99999e-01,5.59369e-01,7.39646e-01,9.99968e-01
1.145774156e+00,2.29103e-01,9.99999e-01,9.99999e-01,3.07914e-01,7.44065e-01,9.99973e-01
1.151503026e+00,2.04180e-01,9.99999e-01,9.99999e-01,2.72820e-01,7.48423e-01,9.99977e-01
1.157260541e+00,2.43813e-01,9.99999e-01,9.99999e-01,3.23915e-01,7.52719e-01,9.99982e-01
1.163046844e+00,3.26683e-01,9.99999e-01,9.99999e-01,4.31580e-01,7.56954e-01,9.99988e-01
1.168862078e+00,4.20816e-01,9.99999e-01,9.99999e-01,5.52886e-01,7.61129e-01,9.99994e-01
1.174706389e+00,5.30718e-01,9.99999e-01,9.99999e-01,6.93530e-01,7.65244e-01,9.99996e-01
1.180579921e+00,6.15165e-01,9.99999e-01,9.99999e-01,7.99644e-01,7.69299e-01,9.99997e-01
1.186482820e+00,6.81355e-01,9.99999e-01,9.99990e-01,8.81114e-01,7.73295e-01,9.99998e-01
1.192415234e+00,7.04742e-01,9.99999e-01,9.75735e-01,9.28793e-01,7.77232e-01,9.99998e-01
1.198377311e+00,4.02324e-01,9.99999e-01,5.42483e-01,9.39776e-01,7.81110e-01,9.99998e-01
1.204369197e+00,1.61222e-19,9.99999e-01,2.12497e-19,9.42931e-01,7.84931e-01,9.99998e-01
1.210391043e+00,2.16089e-76,9.99999e-01,2.82679e-76,9.45301e-01,7.88695e-01,9.99998e-01
1.216442998e+00,3.19756e-66,9.99999e-01,4.15654e-66,9.53166e-01,7.92401e-01,9.99999e-01
1.222525213e+00,3.09638e-65,9.99999e-01,3.96500e-65,9.63359e-01,7.96052e-01,9.99999e-01
1.228637839e+00,1.87626e-50,9.99999e-01,2.38791e-50,9.74432e-01,7.99646e-01,9.99999e-01
