#,Wave/freq,Total,O2,CO2,H2O,Rayleigh,CIA
4.000000000e-01,1.34978e-08,9.99999e-01,9.99999e-01,9.99964e-01,1.34983e-08,9.99999e-01
4.020000000e-01,1.93140e-08,9.99999e-01,9.99999e-01,9.99977e-01,1.93145e-08,9.99999e-01
4.040100000e-01,2.74316e-08,9.99999e-01,9.99999e-01,9.99990e-01,2.74319e-08,9.99999e-01
4.060300500e-01,3.86917e-08,9.99999e-01,9.99999e-01,9.99997e-01,3.86918e-08,9.99999e-01
4.080602003e-01,5.42040e-08,9.99999e-01,9.99999e-01,9.99998e-01,5.42040e-08,9.99999e-01
4.101005013e-01,7.54314e-08,9.99999e-01,9.99999e-01,9.99999e-01,7.54314e-08,9.99999e-01
4.121510038e-01,1.04289e-07,9.99999e-01,9.99999e-01,9.99998e-01,1.04289e-07,9.99999e-01
4.142117588e-01,1.43265e-07,9.99999e-01,9.99999e-01,9.99989e-01,1.43267e-07,9.99999e-01
4.162828176e-01,1.95573e-07,9.99999e-01,9.99999e-01,9.99955e-01,1.95582e-07,9.99999e-01
4.183642317e-01,2.65357e-07,9.99999e-01,9.99999e-01,9.99973e-01,2.65364e-07,9.99999e-01
4.204560528e-01,3.57874e-07,9.99999e-01,9.99999e-01,9.99983e-01,3.57880e-07,9.99999e-01
4.225583331e-01,4.79804e-07,9.99999e-01,9.99999e-01,9.99993e-01,4.79807e-07,9.99999e-01
4.246711247e-01,6.39557e-07,9.99999e-01,9.99999e-01,9.99994e-01,6.39560e-07,9.99999e-01
4.267944804e-01,8.47671e-07,9.99999e-01,9.99999e-01,9.99992e-01,8.47677e-07,9.99999e-01
4.289284528e-01,1.11728e-06,9.99999e-01,9.99999e-01,9.99994e-01,1.11728e-06,9.99999e-01
4.310730950e-01,1.46462e-06,9.99999e-01,9.99999e-01,9.99997e-01,1.46462e-06,9.99999e-01
4.332284605e-01,1.90971e-06,9.99999e-01,9.99999e-01,9.99998e-01,1.90971e-06,9.99999e-01
4.353946028e-01,2.47704e-06,9.99999e-01,9.99999e-01,9.99999e-01,2.47704e-06,9.99999e-01
4.375715758e-01,3.19642e-06,9.99999e-01,9.99999e-01,9.99995e-01,3.19644e-06,9.99999e-01
4.397594337e-01,4.10389e-06,9.99999e-01,9.99999e-01,9.99960e-01,4.10405e-06,9.99999e-01
4.419582309e-01,5.24239e-06,9.99999e-01,9.99999e-01,9.99800e-01,5.24343e-06,9.99999e-01
4.441680220e-01,6.66577e-06,9.99999e-01,9.99999e-01,9.99847e-01,6.66678e-06,9.99999e-01
4.463888621e-01,8.43504e-06,9.99999e-01,9.99999e-01,9.99840e-01,8.43639e-06,9.99999e-01
4.486208064e-01,1.06251e-05,9.99999e-01,9.99999e-01,9.99901e-01,1.06262e-05,9.99999e-01
4.508639105e-01,1.33229e-05,9.99999e-01,9.99999e-01,9.99953e-01,1.33235e-05,9.99999e-01
4.531182300e-01,1.66307e-05,9.99999e-01,9.99999e-01,9.99981e-01,1.66310e-05,9.99999e-01
4.553838212e-01,2.06687e-05,9.99999e-01,9.99999e-01,9.99987e-01,2.06689e-05,9.99999e-01
4.576607403e-01,2.55770e-05,9.99999e-01,9.99999e-01,9.99993e-01,2.55772e-05,9.99999e-01
4.599490440e-01,3.15179e-05,9.99999e-01,9.99999e-01,9.99995e-01,3.15180e-05,9.99999e-01
4.622487892e-01,3.86788e-05,9.99999e-01,9.99999e-01,9.99998e-01,3.86788e-05,9.99999e-01
4.645600332e-01,4.72749e-05,9.99999e-01,9.99999e-01,9.99996e-01,4.72750e-05,9.99999e-01
4.668828333e-01,5.75503e-05,9.99999e-01,9.99999e-01,9.99952e-01,5.75530e-05,9.99999e-01
4.692172475e-01,6.97869e-05,9.99999e-01,9.99999e-01,9.99899e-01,6.97939e-05,9.99999e-01
4.715633337e-01,8.43110e-05,9.99999e-01,9.99999e-01,9.99934e-01,8.43165e-05,9.99999e-01
4.739211504e-01,1.01475e-04,9.99999e-01,9.99999e-01,9.99937e-01,1.01481e-04,9.99999e-01
4.762907561e-01,1.21690e-04,9.99999e-01,9.99999e-01,9.99967e-01,1.21694e-04,9.99999e-01
4.786722099e-01,1.45408e-04,9.99999e-01,9.99999e-01,9.99986e-01,1.45410e-04,9.99999e-01
4.810655710e-01,1.73138e-04,9.99999e-01,9.99999e-01,9.99995e-01,1.73138e-04,9.99999e-01
4.834708988e-01,2.05436e-04,9.99999e-01,9.99999e-01,9.99960e-01,2.05444e-04,9.99999e-01
4.858882533e-01,2.42939e-04,9.99999e-01,9.99999e-01,9.99929e-01,2.42956e-04,9.99999e-01
4.883176946e-01,2.86350e-04,9.99999e-01,9.99999e-01,9.99940e-01,2.86367e-04,9.99999e-01
4.907592831e-01,3.36422e-04,9.99999e-01,9.99999e-01,9.99946e-01,3.36440e-04,9.99999e-01
4.932130795e-01,3.93997e-04,9.99999e-01,9.99999e-01,9.99961e-01,3.94012e-04,9.99999e-01
4.956791449e-01,4.59989e-04,9.99999e-01,9.99999e-01,9.99979e-01,4.59999e-04,9.99999e-01
4.981575406e-01,5.35342e-04,9.99999e-01,9.99999e-01,9.99898e-01,5.35396e-04,9.99999e-01
5.006483283e-01,6.21123e-04,9.99999e-01,9.99999e-01,9.99736e-01,6.21287e-04,9.99999e-01
5.031515699e-01,7.17891e-04,9.99999e-01,9.99999e-01,9.98678e-01,7.18840e-04,9.99999e-01
5.056673278e-01,8.28743e-04,9.99999e-01,9.99999e-01,9.99304e-01,8.29319e-04,9.99999e-01
5.081956644e-01,9.53244e-04,9.99999e-01,9.99999e-01,9.99123e-01,9.54080e-04,9.99999e-01
5.107366428e-01,1.09393e-03,9.99999e-01,9.99999e-01,9.99408e-01,1.09457e-03,9.99999e-01
5.132903260e-01,1.25193e-03,9.99999e-01,9.99999e-01,9.99662e-01,1.25236e-03,9.99999e-01
5.158567776e-01,1.42887e-03,9.99999e-01,9.99999e-01,9.99857e-01,1.42907e-03,9.99999e-01
5.184360615e-01,1.62639e-03,9.99999e-01,9.99999e-01,9.99942e-01,1.62648e-03,9.99999e-01
5.210282418e-01,1.84640e-03,9.99999e-01,9.99999e-01,9.99978e-01,1.84644e-03,9.99999e-01
5.236333830e-01,2.09071e-03,9.99999e-01,9.99999e-01,9.99913e-01,2.09089e-03,9.99999e-01
5.262515499e-01,2.36177e-03,9.99999e-01,9.99999e-01,9.99945e-01,2.36190e-03,9.99999e-01
5.288828077e-01,2.66148e-03,9.99999e-01,9.99999e-01,9.99949e-01,2.66162e-03,9.99999e-01
5.315272217e-01,2.99217e-03,9.99999e-01,9.99999e-01,9.99956e-01,2.99230e-03,9.99999e-01
5.341848578e-01,3.35620e-03,9.99999e-01,9.99999e-01,9.99971e-01,3.35630e-03,9.99999e-01
5.368557821e-01,3.75567e-03,9.99999e-01,9.99999e-01,9.99898e-01,3.75604e-03,9.99999e-01
5.395400610e-01,4.19254e-03,9.99999e-01,9.99999e-01,9.99634e-01,4.19407e-03,9.99999e-01
5.422377613e-01,4.67081e-03,9.99999e-01,9.99999e-01,9.99534e-01,4.67299e-03,9.99999e-01
5.449489501e-01,5.19322e-03,9.99999e-01,9.99999e-01,9.99563e-01,5.19548e-03,9.99999e-01
5.476736949e-01,5.76211e-03,9.99999e-01,9.99999e-01,9.99616e-01,5.76432e-03,9.99999e-01
5.504120634e-01,6.38055e-03,9.99999e-01,9.99999e-01,9.99721e-01,6.38232e-03,9.99999e-01
5.531641237e-01,7.05140e-03,9.99999e-01,9.99999e-01,9.99859e-01,7.05238e-03,9.99999e-01
5.559299443e-01,7.77691e-03,9.99999e-01,9.99999e-01,9.99932e-01,7.77744e-03,9.99999e-01
5.587095940e-01,8.56011e-03,9.99999e-01,9.99999e-01,9.99957e-01,8.56047e-03,9.99999e-01
5.615031420e-01,9.40406e-03,9.99999e-01,9.99999e-01,9.99952e-01,9.40450e-03,9.99999e-01
5.643106577e-01,1.03120e-02,9.99999e-01,9.99999e-01,9.99945e-01,1.03126e-02,9.99999e-01
5.671322110e-01,1.12803e-02,9.99999e-01,9.99999e-01,9.99335e-01,1.12878e-02,9.99999e-01
5.699678720e-01,1.23247e-02,9.99999e-01,9.99999e-01,9.99312e-01,1.23332e-02,9.99999e-01
5.728177114e-01,1.34421e-02,9.99999e-01,9.99999e-01,9.99275e-01,1.34518e-02,9.99999e-01
5.756818000e-01,1.46371e-02,9.99999e-01,9.99999e-01,9.99336e-01,1.46468e-02,9.99999e-01
5.785602090e-01,1.59119e-02,9.99999e-01,9.99999e-01,9.99423e-01,1.59211e-02,9.99999e-01
5.814530100e-01,1.72678e-02,9.99999e-01,9.99999e-01,9.99419e-01,1.72778e-02,9.99999e-01
5.843602750e-01,1.87068e-02,9.99999e-01,9.99999e-01,9.99302e-01,1.87198e-02,9.99999e-01
5.872820764e-01,2.01288e-02,9.99999e-01,9.99999e-01,9.94008e-01,2.02502e-02,9.99999e-01
5.902184868e-01,2.17143e-02,9.99999e-01,9.99999e-01,9.92807e-01,2.18716e-02,9.99999e-01
5.931695792e-01,2.34667e-02,9.99999e-01,9.99999e-01,9.94900e-01,2.35870e-02,9.99999e-01
5.961354271e-01,2.52573e-02,9.99999e-01,9.99999e-01,9.94422e-01,2.53990e-02,9.99999e-01
5.991161043e-01,2.71992e-02,9.99999e-01,9.99999e-01,9.95934e-01,2.73102e-02,9.99999e-01
6.021116848e-01,2.92556e-02,9.99999e-01,9.99999e-01,9.97693e-01,2.93232e-02,9.99999e-01
6.051222432e-01,3.14037e-02,9.99999e-01,9.99999e-01,9.98833e-01,3.14404e-02,9.99999e-01
6.081478544e-01,3.36471e-02,9.99999e-01,9.99999e-01,9.99495e-01,3.36640e-02,9.99999e-01
6.111885937e-01,3.59887e-02,9.99999e-01,9.99999e-01,9.99787e-01,3.59963e-02,9.99999e-01
6.142445367e-01,3.84356e-02,9.99999e-01,9.99999e-01,9.99904e-01,3.84393e-02,9.99999e-01
6.173157594e-01,4.09927e-02,9.99999e-01,9.99999e-01,9.99947e-01,4.09949e-02,9.99999e-01
6.204023382e-01,4.36629e-02,9.99999e-01,9.99999e-01,9.99954e-01,4.36648e-02,9.99999e-01
6.235043498e-01,4.64414e-02,9.99999e-01,9.99999e-01,9.99799e-01,4.64507e-02,9.99999e-01
6.266218716e-01,4.93027e-02,9.99999e-01,9.99999e-01,9.98959e-01,4.93540e-02,9.99999e-01
6.297549810e-01,5.23561e-02,9.99999e-01,9.99999e-01,9.99618e-01,5.23760e-02,9.99999e-01
6.329037559e-01,5.54762e-02,9.99999e-01,9.99999e-01,9.99248e-01,5.55179e-02,9.99999e-01
6.360682746e-01,5.87428e-02,9.99999e-01,9.99999e-01,9.99356e-01,5.87805e-02,9.99999e-01
6.392486160e-01,6.21131e-02,9.99999e-01,9.99999e-01,9.99168e-01,6.21648e-02,9.99999e-01
6.424448591e-01,6.55975e-02,9.99999e-01,9.99999e-01,9.98877e-01,6.56712e-02,9.99999e-01
6.456570834e-01,6.89399e-02,9.99999e-01,9.99999e-01,9.94800e-01,6.93002e-02,9.99999e-01
6.488853688e-01,7.27770e-02,9.99999e-01,9.99999e-01,9.96233e-01,7.30521e-02,9.99999e-01
6.521297956e-01,7.66318e-02,9.99999e-01,9.99999e-01,9.96161e-01,7.69270e-02,9.99999e-01
6.553904446e-01,8.06141e-02,9.99999e-01,9.99999e-01,9.96160e-01,8.09248e-02,9.99999e-01
6.586673968e-01,8.47667e-02,9.99999e-01,9.99999e-01,9.96725e-01,8.50452e-02,9.99999e-01
6.619607338e-01,8.91248e-02,9.99999e-01,9.99999e-01,9.98174e-01,8.92877e-02,9.99999e-01
6.652705375e-01,9.35492e-02,9.99999e-01,9.99999e-01,9.98904e-01,9.36518e-02,9.99999e-01
6.685968902e-01,9.80910e-02,9.99999e-01,9.99999e-01,9.99534e-01,9.81367e-02,9.99999e-01
6.719398746e-01,1.02717e-01,9.99999e-01,9.99999e-01,9.99763e-01,1.02741e-01,9.99999e-01
6.752995740e-01,1.07451e-01,9.99999e-01,9.99999e-01,9.99875e-01,1.07465e-01,9.99999e-01
6.786760719e-01,1.12284e-01,9.99999e-01,9.99999e-01,9.99813e-01,1.12305e-01,9.99999e-01
6.820694522e-01,1.17224e-01,9.99999e-01,9.99999e-01,9.99679e-01,1.17262e-01,9.99999e-01
6.854797995e-01,1.22283e-01,9.99999e-01,9.99999e-01,9.99589e-01,1.22333e-01,9.99999e-01
6.889071985e-01,1.27388e-01,9.99999e-01,9.99999e-01,9.98993e-01,1.27517e-01,9.99999e-01
6.923517345e-01,1.30664e-01,9.99999e-01,9.99999e-01,9.83836e-01,1.32811e-01,9.99999e-01
6.958134932e-01,1.37073e-01,9.99999e-01,9.99999e-01,9.91739e-01,1.38214e-01,9.99999e-01
6.992925606e-01,1.42572e-01,9.99999e-01,9.99999e-01,9.91986e-01,1.43724e-01,9.99999e-01
7.027890234e-01,1.47873e-01,9.99999e-01,9.99999e-01,9.90192e-01,1.49338e-01,9.99999e-01
7.063029686e-01,1.53773e-01,9.99999e-01,9.99999e-01,9.91740e-01,1.55054e-01,9.99999e-01
7.098344834e-01,1.59594e-01,9.99999e-01,9.99999e-01,9.92073e-01,1.60869e-01,9.99999e-01
7.133836558e-01,1.65000e-01,9.99999e-01,9.99999e-01,9.89322e-01,1.66781e-01,9.99999e-01
7.169505741e-01,1.58603e-01,9.99999e-01,9.99999e-01,9.17911e-01,1.72787e-01,9.99998e-01
7.205353270e-01,1.71667e-01,9.99999e-01,9.99999e-01,9.59657e-01,1.78884e-01,9.99998e-01
7.241380036e-01,1.75486e-01,9.99999e-01,9.99999e-01,9.48217e-01,1.85070e-01,9.99998e-01
7.277586936e-01,1.82386e-01,9.99999e-01,9.99999e-01,9.53203e-01,1.91341e-01,9.99998e-01
7.313974871e-01,1.87925e-01,9.99999e-01,9.99999e-01,9.50583e-01,1.97694e-01,9.99998e-01
7.350544745e-01,1.98543e-01,9.99999e-01,9.99999e-01,9.72645e-01,2.04126e-01,9.99999e-01
7.387297469e-01,2.06382e-01,9.99999e-01,9.99999e-01,9.79808e-01,2.10635e-01,9.99999e-01
7.424233956e-01,2.15064e-01,9.99999e-01,9.99999e-01,9.90092e-01,2.17216e-01,9.99999e-01
7.461355126e-01,2.22519e-01,9.99999e-01,9.99999e-01,9.93976e-01,2.23867e-01,9.99999e-01
7.498661902e-01,2.29939e-01,9.99999e-01,9.99999e-01,9.97199e-01,2.30584e-01,9.99999e-01
7.536155211e-01,2.37037e-01,9.99999e-01,9.99999e-01,9.98621e-01,2.37364e-01,9.99999e-01
7.573835987e-01,2.44031e-01,9.99999e-01,9.99999e-01,9.99290e-01,2.44204e-01,9.99999e-01
7.611705167e-01,2.50989e-01,9.99999e-01,9.99999e-01,9.99558e-01,2.51099e-01,9.99999e-01
7.649763693e-01,2.57976e-01,9.99999e-01,9.99999e-01,9.99722e-01,2.58048e-01,9.99999e-01
7.688012511e-01,2.64994e-01,9.99999e-01,9.99999e-01,9.99806e-01,2.65046e-01,9.99999e-01
7.726452574e-01,2.72046e-01,9.99999e-01,9.99999e-01,9.99840e-01,2.72089e-01,9.99999e-01
7.765084837e-01,2.79112e-01,9.99999e-01,9.99999e-01,9.99772e-01,2.79175e-01,9.99999e-01
7.803910261e-01,2.69772e-01,9.99999e-01,9.43147e-01,9.99015e-01,2.86301e-01,9.99999e-01
7.842929812e-01,2.26187e-01,9.99999e-01,7.73206e-01,9.96565e-01,2.93462e-01,9.99999e-01
7.882144461e-01,2.26675e-01,9.99999e-01,7.58913e-01,9.92995e-01,3.00655e-01,9.99999e-01
7.921555184e-01,2.60269e-01,9.99999e-01,8.48484e-01,9.96173e-01,3.07878e-01,9.99999e-01
7.961162960e-01,2.80510e-01,9.99999e-01,8.96182e-01,9.93168e-01,3.15126e-01,9.99999e-01
8.000968774e-01,3.01384e-01,9.99999e-01,9.42176e-01,9.92157e-01,3.22396e-01,9.99999e-01
8.040973618e-01,3.17200e-01,9.99999e-01,9.69719e-01,9.92143e-01,3.29686e-01,9.99999e-01
8.081178486e-01,3.26373e-01,9.99999e-01,9.85925e-01,9.82271e-01,3.36992e-01,9.99999e-01
8.121584379e-01,3.18279e-01,9.99999e-01,9.95677e-01,9.28339e-01,3.44310e-01,9.99998e-01
8.162192301e-01,3.21926e-01,9.99999e-01,9.99043e-01,9.16351e-01,3.51639e-01,9.99998e-01
8.203003262e-01,3.43503e-01,9.99999e-01,9.99986e-01,9.56915e-01,3.58973e-01,9.99998e-01
8.244018279e-01,3.45008e-01,9.99999e-01,9.99999e-01,9.41844e-01,3.66312e-01,9.99998e-01
8.285238370e-01,3.54537e-01,9.99999e-01,9.99999e-01,9.48845e-01,3.73651e-01,9.99998e-01
8.326664562e-01,3.61378e-01,9.99999e-01,9.99999e-01,9.48529e-01,3.80987e-01,9.99998e-01
8.368297885e-01,3.73946e-01,9.99999e-01,9.99999e-01,9.62987e-01,3.88319e-01,9.99999e-01
8.410139374e-01,3.86880e-01,9.99999e-01,9.99999e-01,9.77850e-01,3.95643e-01,9.99999e-01
8.452190071e-01,3.98561e-01,9.99999e-01,9.99999e-01,9.89091e-01,4.02956e-01,9.99999e-01
8.494451021e-01,4.07645e-01,9.99999e-01,9.99999e-01,9.93634e-01,4.10256e-01,9.99999e-01
8.536923276e-01,4.15972e-01,9.99999e-01,9.99999e-01,9.96243e-01,4.17540e-01,9.99999e-01
8.579607893e-01,4.23819e-01,9.99999e-01,9.99999e-01,9.97678e-01,4.24805e-01,9.99999e-01
8.622505932e-01,4.31414e-01,9.99999e-01,9.99999e-01,9.98528e-01,4.32050e-01,9.99999e-01
8.665618462e-01,3.93012e-01,9.99999e-01,8.95463e-01,9.99086e-01,4.39272e-01,9.99999e-01
8.708946554e-01,2.33424e-01,9.99999e-01,5.23341e-01,9.98951e-01,4.46468e-01,9.99999e-01
8.752491287e-01,2.67540e-01,9.99999e-01,5.90557e-01,9.98598e-01,4.53636e-01,9.99999e-01
8.796253743e-01,3.43368e-01,9.99999e-01,7.46580e-01,9.98053e-01,4.60774e-01,9.99999e-01
8.840235012e-01,4.00792e-01,9.99999e-01,8.58468e-01,9.97779e-01,4.67881e-01,9.99999e-01
8.884436187e-01,4.43668e-01,9.99999e-01,9.41739e-01,9.91782e-01,4.74953e-01,9.99999e-01
8.928858368e-01,4.31894e-01,9.99999e-01,9.75910e-01,9.17844e-01,4.81990e-01,9.99998e-01
8.973502660e-01,4.18463e-01,9.99999e-01,9.94128e-01,8.60651e-01,4.88989e-01,9.99997e-01
9.018370173e-01,4.59384e-01,9.99999e-01,9.99353e-01,9.26843e-01,4.95948e-01,9.99997e-01
9.063462024e-01,4.62248e-01,9.99999e-01,9.83047e-01,9.34232e-01,5.02865e-01,9.99997e-01
9.108779334e-01,4.41693e-01,9.99999e-01,9.62185e-01,8.99842e-01,5.09740e-01,9.99996e-01
9.154323231e-01,4.54324e-01,9.99999e-01,9.91088e-01,8.87124e-01,5.16570e-01,9.99996e-01
9.200094847e-01,4.22888e-01,9.99999e-01,8.80244e-01,9.10756e-01,5.23354e-01,9.99995e-01
9.246095321e-01,3.80929e-01,9.99999e-01,8.28208e-01,8.62984e-01,5.30091e-01,9.99992e-01
9.292325798e-01,1.82541e-01,9.99999e-01,8.62223e-01,3.85276e-01,5.36778e-01,9.99985e-01
9.338787427e-01,1.42923e-01,9.99999e-01,8.67165e-01,2.96820e-01,5.43416e-01,9.99981e-01
9.385481364e-01,3.05657e-01,9.99999e-01,9.00233e-01,6.11539e-01,5.50002e-01,9.99980e-01
9.432408771e-01,2.66245e-01,9.99999e-01,9.37723e-01,5.07386e-01,5.56535e-01,9.99978e-01
9.479570815e-01,2.15924e-01,9.99999e-01,9.67475e-01,3.95317e-01,5.63014e-01,9.99981e-01
9.526968669e-01,2.77612e-01,9.99999e-01,9.84224e-01,4.94317e-01,5.69439e-01,9.99985e-01
9.574603512e-01,2.95196e-01,9.99999e-01,9.93228e-01,5.15785e-01,5.75808e-01,9.99989e-01
9.622476530e-01,3.38181e-01,9.99999e-01,9.97885e-01,5.82059e-01,5.82121e-01,9.99992e-01
9.670588912e-01,4.29727e-01,9.99999e-01,9.99367e-01,7.30787e-01,5.88376e-01,9.99995e-01
9.718941857e-01,4.87662e-01,9.99999e-01,9.99955e-01,8.20224e-01,5.94572e-01,9.99996e-01
9.767536566e-01,5.09512e-01,9.99999e-01,9.99999e-01,8.48184e-01,6.00709e-01,9.99997e-01
9.816374249e-01,5.37144e-01,9.99999e-01,9.99999e-01,8.85227e-01,6.06787e-01,9.99998e-01
9.865456120e-01,5.67835e-01,9.99999e-01,9.99999e-01,9.26617e-01,6.12805e-01,9.99998e-01
9.914783401e-01,5.90256e-01,9.99999e-01,9.99999e-01,9.53931e-01,6.18761e-01,9.99999e-01
9.964357318e-01,6.08821e-01,9.99999e-01,9.99999e-01,9.74650e-01,6.24656e-01,9.99999e-01
1.001417910e+00,6.20866e-01,9.99999e-01,9.99999e-01,9.84736e-01,6.30489e-01,9.99999e-01
1.006425000e+00,6.30694e-01,9.99999e-01,9.99999e-01,9.91251e-01,6.36259e-01,9.99999e-01
1.011457125e+00,6.38486e-01,9.99999e-01,9.99999e-01,9.94575e-01,6.41967e-01,9.99999e-01
1.016514411e+00,6.45223e-01,9.99999e-01,9.99999e-01,9.96309e-01,6.47612e-01,9.99999e-01
1.021596983e+00,6.51205e-01,9.99999e-01,9.99896e-01,9.97056e-01,6.53194e-01,9.99999e-01
1.026704968e+00,6.52799e-01,9.99999e-01,9.93299e-01,9.97702e-01,6.58712e-01,9.99999e-01
1.031838492e+00,6.17644e-01,9.99999e-01,9.31438e-01,9.98333e-01,6.64166e-01,9.99999e-01
1.036997685e+00,5.98905e-02,9.99999e-01,8.95163e-02,9.99007e-01,6.69556e-01,9.99999e-01
1.042182673e+00,2.06044e-02,9.99999e-01,3.05605e-02,9.98812e-01,6.74883e-01,9.99999e-01
1.047393587e+00,3.38121e-02,9.99999e-01,4.97803e-02,9.98428e-01,6.80145e-01,9.99999e-01
1.052630555e+00,1.15294e-04,9.99999e-01,1.68475e-04,9.97841e-01,6.85343e-01,9.99999e-01
1.057893707e+00,3.90821e-04,9.99999e-01,5.67236e-04,9.96392e-01,6.90477e-01,9.99999e-01
1.063183176e+00,2.64291e-03,9.99999e-01,3.81434e-03,9.94075e-01,6.95547e-01,9.99999e-01
1.068499092e+00,1.23936e-02,9.99999e-01,1.78262e-02,9.90112e-01,7.00553e-01,9.99999e-01
1.073841587e+00,5.42643e-02,9.99999e-01,7.76328e-02,9.88418e-01,7.05495e-01,9.99999e-01
1.079210795e+00,1.39244e-01,9.99999e-01,1.98538e-01,9.85227e-01,7.10373e-01,9.99999e-01
1.084606849e+00,2.84937e-01,9.99999e-01,4.06819e-01,9.77686e-01,7.15187e-01,9.99998e-01
1.090029883e+00,4.36569e-01,9.99999e-01,6.25541e-01,9.67920e-01,7.19938e-01,9.99998e-01
1.095480033e+00,5.27157e-01,9.99999e-01,7.93617e-01,9.15175e-01,7.24626e-01,9.99997e-01
1.100957433e+00,5.22170e-01,9.99999e-01,8.94373e-01,7.98994e-01,7.29251e-01,9.99995e-01
1.106462220e+00,4.00135e-01,9.99999e-01,9.54931e-01,5.69452e-01,7.33814e-01,9.99991e-01
1.111994531e+00,2.27089e-01,9.99999e-01,9.83044e-01,3.12275e-01,7.38313e-01,9.99982e-01
1.117554504e+00,1.15872e-01,9.99999e-01,9.95856e-01,1.56474e-01,7.42751e-01,9.99975e-01
1.123142276e+00,2.01354e-01,9.99999e-01,9.99729e-01,2.69533e-01,7.47127e-01,9.99971e-01
1.128757988e+00,3.13508e-01,9.99999e-01,9.99999e-01,4.17221e-01,7.51442e-01,9.99969e-01
1.134401778e+00,1.54951e-01,9.99999e-01,9.99999e-01,2.05051e-01,7.55695e-01,9.99965e-01
1.140073787e+00,4.45504e-01,9.99999e-01,9.99999e-01,5.86292e-01,7.59888e-01,9.99971e-01
1.145774156e+00,2.59295e-01,9.99999e-01,9.99999e-01,3.39390e-01,7.64020e-01,9.99976e-01
1.151503026e+00,2.32356e-01,9.99999e-01,9.99999e-01,3.02516e-01,7.68093e-01,9.99979e-01
1.157260541e+00,2.75413e-01,9.99999e-01,9.99999e-01,3.56708e-01,7.72107e-01,9.99984e-01
1.163046844e+00,3.61379e-01,9.99999e-01,9.99999e-01,4.65662e-01,7.76061e-01,9.99989e-01
1.168862078e+00,4.55688e-01,9.99999e-01,9.99999e-01,5.84250e-01,7.79957e-01,9.99994e-01
1.174706389e+00,5.62313e-01,9.99999e-01,9.99999e-01,7.17424e-01,7.83795e-01,9.99997e-01
1.180579921e+00,6.43161e-01,9.99999e-01,9.99999e-01,8.16634e-01,7.87576e-01,9.99997e-01
1.186482820e+00,7.05445e-01,9.99999e-01,9.99984e-01,8.91515e-01,7.91299e-01,9.99998e-01
1.192415234e+00,7.26186e-01,9.99999e-01,9.76459e-01,9.35072e-01,7.94967e-01,9.99998e-01
1.198377311e+00,4.13763e-01,9.99999e-01,5.43185e-01,9.44909e-01,7.98578e-01,9.99998e-01
1.204369197e+00,5.60055e-18,9.99999e-01,7.20159e-18,9.47887e-01,8.02134e-01,9.99998e-01
1.210391043e+00,8.87641e-70,9.99999e-01,1.13360e-69,9.50088e-01,8.05634e-01,9.99998e-01
1.216442998e+00,1.62716e-60,9.99999e-01,2.06610e-60,9.57469e-01,8.09081e-01,9.99999e-01
1.222525213e+00,1.28644e-59,9.99999e-01,1.61127e-59,9.66687e-01,8.12474e-01,9.99999e-01
1.228637839e+00,3.94698e-46,9.99999e-01,4.91616e-46,9.76733e-01,8.15814e-01,9.99999e-01
