#,Wave/freq,Total,O2,CO2,H2O,Rayleigh,CIA
4.000000000e-01,1.32995e-02,9.99999e-01,9.99999e-01,9.99991e-01,1.32996e-02,9.99999e-01
4.020000000e-01,1.44855e-02,9.99999e-01,9.99999e-01,9.99994e-01,1.44856e-02,9.99999e-01
4.040100000e-01,1.57493e-02,9.99999e-01,9.99999e-01,9.99997e-01,1.57493e-02,9.99999e-01
4.060300500e-01,1.70950e-02,9.99999e-01,9.99999e-01,9.99998e-01,1.70950e-02,9.99999e-01
4.080602003e-01,1.85257e-02,9.99999e-01,9.99999e-01,9.99999e-01,1.85257e-02,9.99999e-01
4.101005013e-01,2.00443e-02,9.99999e-01,9.99999e-01,9.99999e-01,2.00443e-02,9.99999e-01
4.121510038e-01,2.16536e-02,9.99999e-01,9.99999e-01,9.99999e-01,2.16536e-02,9.99999e-01
4.142117588e-01,2.33565e-02,9.99999e-01,9.99999e-01,9.99997e-01,2.33565e-02,9.99999e-01
4.162828176e-01,2.51554e-02,9.99999e-01,9.99999e-01,9.99989e-01,2.51557e-02,9.99999e-01
4.183642317e-01,2.70536e-02,9.99999e-01,9.99999e-01,9.99993e-01,2.70538e-02,9.99999e-01
4.204560528e-01,2.90532e-02,9.99999e-01,9.99999e-01,9.99995e-01,2.90533e-02,9.99999e-01
4.225583331e-01,3.11566e-02,9.99999e-01,9.99999e-01,9.99998e-01,3.11567e-02,9.99999e-01
4.246711247e-01,3.33662e-02,9.99999e-01,9.99999e-01,9.99998e-01,3.33662e-02,9.99999e-01
4.267944804e-01,3.56841e-02,9.99999e-01,9.99999e-01,9.99997e-01,3.56841e-02,9.99999e-01
4.289284528e-01,3.81125e-02,9.99999e-01,9.99999e-01,9.99998e-01,3.81125e-02,9.99999e-01
4.310730950e-01,4.06532e-02,9.99999e-01,9.99999e-01,9.99998e-01,4.06532e-02,9.99999e-01
4.332284605e-01,4.33081e-02,9.99999e-01,9.99999e-01,9.99999e-01,4.33081e-02,9.99999e-01
4.353946028e-01,4.60787e-02,9.99999e-01,9.99999e-01,9.99999e-01,4.60787e-02,9.99999e-01
4.375715758e-01,4.89664e-02,9.99999e-01,9.99999e-01,9.99998e-01,4.89665e-02,9.99999e-01
4.397594337e-01,5.19724e-02,9.99999e-01,9.99999e-01,9.99990e-01,5.19729e-02,9.99999e-01
4.419582309e-01,5.50964e-02,9.99999e-01,9.99999e-01,9.99953e-01,5.50990e-02,9.99999e-01
4.441680220e-01,5.83436e-02,9.99999e-01,9.99999e-01,9.99962e-01,5.83457e-02,9.99999e-01
4.463888621e-01,6.17116e-02,9.99999e-01,9.99999e-01,9.99961e-01,6.17139e-02,9.99999e-01
4.486208064e-01,6.52027e-02,9.99999e-01,9.99999e-01,9.99975e-01,6.52043e-02,9.99999e-01
4.508639105e-01,6.88165e-02,9.99999e-01,9.99999e-01,9.99988e-01,6.88172e-02,9.99999e-01
4.531182300e-01,7.25527e-02,9.99999e-01,9.99999e-01,9.99995e-01,7.25530e-02,9.99999e-01
4.553838212e-01,7.64116e-02,9.99999e-01,9.99999e-01,9.99996e-01,7.64118e-02,9.99999e-01
4.576607403e-01,8.03933e-02,9.99999e-01,9.99999e-01,9.99998e-01,8.03935e-02,9.99999e-01
4.599490440e-01,8.44977e-02,9.99999e-01,9.99999e-01,9.99998e-01,8.44978e-02,9.99999e-01
4.622487892e-01,8.87243e-02,9.99999e-01,9.99999e-01,9.99999e-01,8.87243e-02,9.99999e-01
4.645600332e-01,9.30725e-02,9.99999e-01,9.99999e-01,9.99998e-01,9.30725e-02,9.99999e-01
4.668828333e-01,9.75405e-02,9.99999e-01,9.99999e-01,9.99988e-01,9.75416e-02,9.99999e-01
4.692172475e-01,1.02128e-01,9.99999e-01,9.99999e-01,9.99975e-01,1.02131e-01,9.99999e-01
4.715633337e-01,1.06837e-01,9.99999e-01,9.99999e-01,9.99983e-01,1.06838e-01,9.99999e-01
4.739211504e-01,1.11662e-01,9.99999e-01,9.99999e-01,9.99984e-01,1.11664e-01,9.99999e-01
4.762907561e-01,1.16604e-01,9.99999e-01,9.99999e-01,9.99991e-01,1.16605e-01,9.99999e-01
4.786722099e-01,1.21661e-01,9.99999e-01,9.99999e-01,9.99996e-01,1.21662e-01,9.99999e-01
4.810655710e-01,1.26830e-01,9.99999e-01,9.99999e-01,9.99998e-01,1.26830e-01,9.99999e-01
4.834708988e-01,1.32109e-01,9.99999e-01,9.99999e-01,9.99990e-01,1.32110e-01,9.99999e-01
4.858882533e-01,1.37497e-01,9.99999e-01,9.99999e-01,9.99982e-01,1.37499e-01,9.99999e-01
4.883176946e-01,1.42993e-01,9.99999e-01,9.99999e-01,9.99985e-01,1.42995e-01,9.99999e-01
4.907592831e-01,1.48594e-01,9.99999e-01,9.99999e-01,9.99986e-01,1.48596e-01,9.99999e-01
4.932130795e-01,1.54297e-01,9.99999e-01,9.99999e-01,9.99990e-01,1.54298e-01,9.99999e-01
4.956791449e-01,1.60100e-01,9.99999e-01,9.99999e-01,9.99994e-01,1.60101e-01,9.99999e-01
4.981575406e-01,1.65996e-01,9.99999e-01,9.99999e-01,9.99975e-01,1.66000e-01,9.99999e-01
5.006483283e-01,1.71983e-01,9.99999e-01,9.99999e-01,9.99937e-01,1.71994e-01,9.99999e-01
5.031515699e-01,1.78023e-01,9.99999e-01,9.99999e-01,9.99685e-01,1.78079e-01,9.99999e-01
5.056673278e-01,1.84223e-01,9.99999e-01,9.99999e-01,9.99833e-01,1.84253e-01,9.99999e-01
5.081956644e-01,1.90473e-01,9.99999e-01,9.99999e-01,9.99790e-01,1.90513e-01,9.99999e-01
5.107366428e-01,1.96828e-01,9.99999e-01,9.99999e-01,9.99858e-01,1.96856e-01,9.99999e-01
5.132903260e-01,2.03262e-01,9.99999e-01,9.99999e-01,9.99918e-01,2.03278e-01,9.99999e-01
5.158567776e-01,2.09770e-01,9.99999e-01,9.99999e-01,9.99965e-01,2.09777e-01,9.99999e-01
5.184360615e-01,2.16346e-01,9.99999e-01,9.99999e-01,9.99985e-01,2.16349e-01,9.99999e-01
5.210282418e-01,2.22990e-01,9.99999e-01,9.99999e-01,9.99994e-01,2.22991e-01,9.99999e-01
5.236333830e-01,2.29695e-01,9.99999e-01,9.99999e-01,9.99979e-01,2.29700e-01,9.99999e-01
5.262515499e-01,2.36468e-01,9.99999e-01,9.99999e-01,9.99986e-01,2.36471e-01,9.99999e-01
5.288828077e-01,2.43301e-01,9.99999e-01,9.99999e-01,9.99987e-01,2.43303e-01,9.99999e-01
5.315272217e-01,2.50189e-01,9.99999e-01,9.99999e-01,9.99989e-01,2.50192e-01,9.99999e-01
5.341848578e-01,2.57132e-01,9.99999e-01,9.99999e-01,9.99992e-01,2.57134e-01,9.99999e-01
5.368557821e-01,2.64119e-01,9.99999e-01,9.99999e-01,9.99975e-01,2.64125e-01,9.99999e-01
5.395400610e-01,2.71140e-01,9.99999e-01,9.99999e-01,9.99913e-01,2.71163e-01,9.99999e-01
5.422377613e-01,2.78213e-01,9.99999e-01,9.99999e-01,9.99888e-01,2.78244e-01,9.99999e-01
5.449489501e-01,2.85335e-01,9.99999e-01,9.99999e-01,9.99896e-01,2.85364e-01,9.99999e-01
5.476736949e-01,2.92494e-01,9.99999e-01,9.99999e-01,9.99907e-01,2.92521e-01,9.99999e-01
5.504120634e-01,2.99690e-01,9.99999e-01,9.99999e-01,9.99932e-01,2.99710e-01,9.99999e-01
5.531641237e-01,3.06919e-01,9.99999e-01,9.99999e-01,9.99965e-01,3.06929e-01,9.99999e-01
5.559299443e-01,3.14169e-01,9.99999e-01,9.99999e-01,9.99983e-01,3.14174e-01,9.99999e-01
5.587095940e-01,3.21438e-01,9.99999e-01,9.99999e-01,9.99989e-01,3.21442e-01,9.99999e-01
5.615031420e-01,3.28725e-01,9.99999e-01,9.99999e-01,9.99988e-01,3.28729e-01,9.99999e-01
5.643106577e-01,3.36029e-01,9.99999e-01,9.99999e-01,9.99986e-01,3.36033e-01,9.99999e-01
5.671322110e-01,3.43297e-01,9.99999e-01,9.99999e-01,9.99845e-01,3.43350e-01,9.99999e-01
5.699678720e-01,3.50619e-01,9.99999e-01,9.99999e-01,9.99833e-01,3.50677e-01,9.99999e-01
5.728177114e-01,3.57949e-01,9.99999e-01,9.99999e-01,9.99827e-01,3.58011e-01,9.99999e-01
5.756818000e-01,3.65291e-01,9.99999e-01,9.99999e-01,9.99841e-01,3.65349e-01,9.99999e-01
5.785602090e-01,3.72637e-01,9.99999e-01,9.99999e-01,9.99861e-01,3.72688e-01,9.99999e-01
5.814530100e-01,3.79973e-01,9.99999e-01,9.99999e-01,9.99861e-01,3.80025e-01,9.99999e-01
5.843602750e-01,3.87294e-01,9.99999e-01,9.99999e-01,9.99835e-01,3.87358e-01,9.99999e-01
5.872820764e-01,3.94123e-01,9.99999e-01,9.99999e-01,9.98580e-01,3.94683e-01,9.99999e-01
5.902184868e-01,4.01304e-01,9.99999e-01,9.99999e-01,9.98274e-01,4.01997e-01,9.99999e-01
5.931695792e-01,4.08801e-01,9.99999e-01,9.99999e-01,9.98782e-01,4.09299e-01,9.99999e-01
5.961354271e-01,4.16029e-01,9.99999e-01,9.99999e-01,9.98664e-01,4.16585e-01,9.99999e-01
5.991161043e-01,4.23441e-01,9.99999e-01,9.99999e-01,9.99025e-01,4.23853e-01,9.99999e-01
6.021116848e-01,4.30863e-01,9.99999e-01,9.99999e-01,9.99446e-01,4.31101e-01,9.99999e-01
6.051222432e-01,4.38203e-01,9.99999e-01,9.99999e-01,9.99719e-01,4.38326e-01,9.99999e-01
6.081478544e-01,4.45472e-01,9.99999e-01,9.99999e-01,9.99878e-01,4.45525e-01,9.99999e-01
6.111885937e-01,4.52674e-01,9.99999e-01,9.99999e-01,9.99948e-01,4.52698e-01,9.99999e-01
6.142445367e-01,4.59830e-01,9.99999e-01,9.99999e-01,9.99976e-01,4.59840e-01,9.99999e-01
6.173157594e-01,4.66945e-01,9.99999e-01,9.99999e-01,9.99986e-01,4.66951e-01,9.99999e-01
6.204023382e-01,4.74023e-01,9.99999e-01,9.99999e-01,9.99988e-01,4.74028e-01,9.99999e-01
6.235043498e-01,4.81047e-01,9.99999e-01,9.99999e-01,9.99953e-01,4.81069e-01,9.99999e-01
6.266218716e-01,4.87952e-01,9.99999e-01,9.99999e-01,9.99751e-01,4.88073e-01,9.99999e-01
6.297549810e-01,4.94992e-01,9.99999e-01,9.99999e-01,9.99908e-01,4.95037e-01,9.99999e-01
6.329037559e-01,5.01870e-01,9.99999e-01,9.99999e-01,9.99819e-01,5.01960e-01,9.99999e-01
6.360682746e-01,5.08763e-01,9.99999e-01,9.99999e-01,9.99846e-01,5.08841e-01,9.99999e-01
6.392486160e-01,5.15575e-01,9.99999e-01,9.99999e-01,9.99801e-01,5.15677e-01,9.99999e-01
6.424448591e-01,5.22329e-01,9.99999e-01,9.99999e-01,9.99735e-01,5.22467e-01,9.99999e-01
6.456570834e-01,5.28560e-01,9.99999e-01,9.99999e-01,9.98770e-01,5.29210e-01,9.99999e-01
6.488853688e-01,5.35420e-01,9.99999e-01,9.99999e-01,9.99096e-01,5.35904e-01,9.99999e-01
6.521297956e-01,5.42048e-01,9.99999e-01,9.99999e-01,9.99078e-01,5.42548e-01,9.99999e-01
6.553904446e-01,5.48641e-01,9.99999e-01,9.99999e-01,9.99089e-01,5.49141e-01,9.99999e-01
6.586673968e-01,5.55245e-01,9.99999e-01,9.99999e-01,9.99214e-01,5.55681e-01,9.99999e-01
6.619607338e-01,5.61913e-01,9.99999e-01,9.99999e-01,9.99546e-01,5.62168e-01,9.99999e-01
6.652705375e-01,5.68450e-01,9.99999e-01,9.99999e-01,9.99736e-01,5.68600e-01,9.99999e-01
6.685968902e-01,5.74906e-01,9.99999e-01,9.99999e-01,9.99877e-01,5.74976e-01,9.99999e-01
6.719398746e-01,5.81263e-01,9.99999e-01,9.99999e-01,9.99942e-01,5.81296e-01,9.99999e-01
6.752995740e-01,5.87540e-01,9.99999e-01,9.99999e-01,9.99968e-01,5.87558e-01,9.99999e-01
6.786760719e-01,5.93737e-01,9.99999e-01,9.99999e-01,9.99955e-01,5.93763e-01,9.99999e-01
6.820694522e-01,5.99863e-01,9.99999e-01,9.99999e-01,9.99924e-01,5.99908e-01,9.99999e-01
6.854797995e-01,6.05934e-01,9.99999e-01,9.99999e-01,9.99902e-01,6.05993e-01,9.99999e-01
6.889071985e-01,6.11875e-01,9.99999e-01,9.99999e-01,9.99764e-01,6.12019e-01,9.99999e-01
6.923517345e-01,6.15605e-01,9.99999e-01,9.99999e-01,9.96151e-01,6.17983e-01,9.99999e-01
6.958134932e-01,6.22628e-01,9.99999e-01,9.99999e-01,9.97983e-01,6.23886e-01,9.99999e-01
6.992925606e-01,6.28530e-01,9.99999e-01,9.99999e-01,9.98098e-01,6.29727e-01,9.99999e-01
7.027890234e-01,6.34010e-01,9.99999e-01,9.99999e-01,9.97645e-01,6.35506e-01,9.99999e-01
7.063029686e-01,6.39954e-01,9.99999e-01,9.99999e-01,9.98021e-01,6.41222e-01,9.99999e-01
7.098344834e-01,6.45648e-01,9.99999e-01,9.99999e-01,9.98101e-01,6.46875e-01,9.99999e-01
7.133836558e-01,6.50821e-01,9.99999e-01,9.99999e-01,9.97479e-01,6.52465e-01,9.99999e-01
7.169505741e-01,6.44670e-01,9.99999e-01,9.99999e-01,9.79753e-01,6.57992e-01,9.99999e-01
7.205353270e-01,6.56817e-01,9.99999e-01,9.99999e-01,9.89995e-01,6.63454e-01,9.99999e-01
7.241380036e-01,6.60415e-01,9.99999e-01,9.99999e-01,9.87384e-01,6.68853e-01,9.99999e-01
7.277586936e-01,6.66505e-01,9.99999e-01,9.99999e-01,9.88604e-01,6.74188e-01,9.99999e-01
7.313974871e-01,6.71219e-01,9.99999e-01,9.99999e-01,9.87873e-01,6.79458e-01,9.99999e-01
7.350544745e-01,6.80126e-01,9.99999e-01,9.99999e-01,9.93370e-01,6.84665e-01,9.99999e-01
7.387297469e-01,6.86441e-01,9.99999e-01,9.99999e-01,9.95120e-01,6.89807e-01,9.99999e-01
7.424233956e-01,6.93224e-01,9.99999e-01,9.99999e-01,9.97609e-01,6.94885e-01,9.99999e-01
7.461355126e-01,6.98886e-01,9.99999e-01,9.99999e-01,9.98551e-01,6.99900e-01,9.99999e-01
7.498661902e-01,7.04374e-01,9.99999e-01,9.99999e-01,9.99324e-01,7.04850e-01,9.99999e-01
7.536155211e-01,7.09502e-01,9.99999e-01,9.99999e-01,9.99668e-01,7.09737e-01,9.99999e-01
7.573835987e-01,7.14438e-01,9.99999e-01,9.99999e-01,9.99829e-01,7.14559e-01,9.99999e-01
7.611705167e-01,7.19243e-01,9.99999e-01,9.99999e-01,9.99893e-01,7.19319e-01,9.99999e-01
7.649763693e-01,7.23967e-01,9.99999e-01,9.99999e-01,9.99933e-01,7.24015e-01,9.99999e-01
7.688012511e-01,7.28615e-01,9.99999e-01,9.99999e-01,9.99953e-01,7.28648e-01,9.99999e-01
7.726452574e-01,7.33191e-01,9.99999e-01,9.99999e-01,9.99961e-01,7.33219e-01,9.99999e-01
7.765084837e-01,7.37687e-01,9.99999e-01,9.99999e-01,9.99945e-01,7.37727e-01,9.99999e-01
7.803910261e-01,7.31035e-01,9.99999e-01,9.85218e-01,9.99767e-01,7.42173e-01,9.99999e-01
7.842929812e-01,6.99482e-01,9.99999e-01,9.37687e-01,9.99188e-01,7.46557e-01,9.99999e-01
7.882144461e-01,6.99648e-01,9.99999e-01,9.33307e-01,9.98324e-01,7.50879e-01,9.99999e-01
7.921555184e-01,7.25211e-01,9.99999e-01,9.61241e-01,9.99079e-01,7.55141e-01,9.99999e-01
7.961162960e-01,7.38333e-01,9.99999e-01,9.73905e-01,9.98379e-01,7.59341e-01,9.99999e-01
8.000968774e-01,7.51223e-01,9.99999e-01,9.85788e-01,9.98124e-01,7.63482e-01,9.99999e-01
8.040973618e-01,7.60462e-01,9.99999e-01,9.92608e-01,9.98125e-01,7.67562e-01,9.99999e-01
8.081178486e-01,7.65725e-01,9.99999e-01,9.96606e-01,9.95782e-01,7.71584e-01,9.99999e-01
8.121584379e-01,7.61153e-01,9.99999e-01,9.98947e-01,9.82470e-01,7.75546e-01,9.99999e-01
8.162192301e-01,7.63008e-01,9.99999e-01,9.99767e-01,9.79131e-01,7.79450e-01,9.99999e-01
8.203003262e-01,7.75109e-01,9.99999e-01,9.99995e-01,9.89551e-01,7.83295e-01,9.99999e-01
8.244018279e-01,7.75475e-01,9.99999e-01,9.99999e-01,9.85251e-01,7.87083e-01,9.99999e-01
8.285238370e-01,7.80967e-01,9.99999e-01,9.99999e-01,9.87547e-01,7.90814e-01,9.99999e-01
8.326664562e-01,7.84468e-01,9.99999e-01,9.99999e-01,9.87386e-01,7.94489e-01,9.99999e-01
8.368297885e-01,7.90915e-01,9.99999e-01,9.99999e-01,9.90987e-01,7.98107e-01,9.99999e-01
8.410139374e-01,7.97373e-01,9.99999e-01,9.99999e-01,9.94639e-01,8.01670e-01,9.99999e-01
8.452190071e-01,8.03060e-01,9.99999e-01,9.99999e-01,9.97368e-01,8.05178e-01,9.99999e-01
8.494451021e-01,8.07400e-01,9.99999e-01,9.99999e-01,9.98475e-01,8.08632e-01,9.99999e-01
8.536923276e-01,8.11299e-01,9.99999e-01,9.99999e-01,9.99097e-01,8.12032e-01,9.99999e-01
8.579607893e-01,8.14926e-01,9.99999e-01,9.99999e-01,9.99444e-01,8.15378e-01,9.99999e-01
8.622505932e-01,8.18383e-01,9.99999e-01,9.99999e-01,9.99646e-01,8.18672e-01,9.99999e-01
8.665618462e-01,7.88567e-01,9.99999e-01,9.59632e-01,9.99781e-01,8.21914e-01,9.99999e-01
8.708946554e-01,6.98651e-01,9.99999e-01,8.46950e-01,9.99750e-01,8.25104e-01,9.99999e-01
8.752491287e-01,7.25610e-01,9.99999e-01,8.76370e-01,9.99665e-01,8.28243e-01,9.99999e-01
8.796253743e-01,7.73518e-01,9.99999e-01,9.30880e-01,9.99537e-01,8.31332e-01,9.99999e-01
8.840235012e-01,8.03712e-01,9.99999e-01,9.63759e-01,9.99471e-01,8.34371e-01,9.99999e-01
8.884436187e-01,8.23703e-01,9.99999e-01,9.85570e-01,9.98082e-01,8.37361e-01,9.99999e-01
8.928858368e-01,8.18532e-01,9.99999e-01,9.94140e-01,9.79813e-01,8.40302e-01,9.99999e-01
8.973502660e-01,8.12011e-01,9.99999e-01,9.98571e-01,9.64382e-01,8.43194e-01,9.99999e-01
9.018370173e-01,8.30351e-01,9.99999e-01,9.99842e-01,9.81608e-01,8.46040e-01,9.99999e-01
9.063462024e-01,8.31869e-01,9.99999e-01,9.95983e-01,9.83909e-01,8.48838e-01,9.99998e-01
9.108779334e-01,8.22647e-01,9.99999e-01,9.90770e-01,9.74963e-01,8.51591e-01,9.99998e-01
9.154323231e-01,8.28257e-01,9.99999e-01,9.97820e-01,9.71616e-01,8.54297e-01,9.99998e-01
9.200094847e-01,8.11256e-01,9.99999e-01,9.67792e-01,9.77659e-01,8.56959e-01,9.99998e-01
9.246095321e-01,7.93006e-01,9.99999e-01,9.55559e-01,9.65102e-01,8.59576e-01,9.99997e-01
9.292325798e-01,6.54622e-01,9.99999e-01,9.64929e-01,7.85460e-01,8.62149e-01,9.99996e-01
9.338787427e-01,6.11373e-01,9.99999e-01,9.66088e-01,7.30545e-01,8.64678e-01,9.99995e-01
9.385481364e-01,7.45803e-01,9.99999e-01,9.75038e-01,8.81474e-01,8.67165e-01,9.99995e-01
9.432408771e-01,7.17208e-01,9.99999e-01,9.84655e-01,8.37266e-01,8.69610e-01,9.99994e-01
9.479570815e-01,6.74788e-01,9.99999e-01,9.92108e-01,7.79820e-01,8.72013e-01,9.99995e-01
9.526968669e-01,7.24799e-01,9.99999e-01,9.96184e-01,8.31971e-01,8.74375e-01,9.99996e-01
9.574603512e-01,7.42102e-01,9.99999e-01,9.98366e-01,8.47820e-01,8.76697e-01,9.99997e-01
9.622476530e-01,7.68555e-01,9.99999e-01,9.99490e-01,8.74808e-01,8.78978e-01,9.99997e-01
9.670588912e-01,8.15924e-01,9.99999e-01,9.99846e-01,9.26041e-01,8.81221e-01,9.99998e-01
9.718941857e-01,8.42264e-01,9.99999e-01,9.99988e-01,9.53418e-01,8.83425e-01,9.99998e-01
9.767536566e-01,8.51232e-01,9.99999e-01,9.99999e-01,9.61203e-01,8.85590e-01,9.99999e-01
9.816374249e-01,8.62079e-01,9.99999e-01,9.99999e-01,9.71117e-01,8.87718e-01,9.99999e-01
9.865456120e-01,8.73679e-01,9.99999e-01,9.99999e-01,9.81871e-01,8.89809e-01,9.99999e-01
9.914783401e-01,8.81846e-01,9.99999e-01,9.99999e-01,9.88767e-01,8.91863e-01,9.99999e-01
9.964357318e-01,8.88401e-01,9.99999e-01,9.99999e-01,9.93868e-01,8.93881e-01,9.99999e-01
1.001417910e+00,8.92569e-01,9.99999e-01,9.99999e-01,9.96321e-01,8.95864e-01,9.99999e-01
1.006425000e+00,8.95931e-01,9.99999e-01,9.99999e-01,9.97903e-01,8.97812e-01,9.99999e-01
1.011457125e+00,8.98554e-01,9.99999e-01,9.99999e-01,9.98697e-01,8.99726e-01,9.99999e-01
1.016514411e+00,9.00809e-01,9.99999e-01,9.99999e-01,9.99115e-01,9.01606e-01,9.99999e-01
1.021596983e+00,9.02798e-01,9.99999e-01,9.99979e-01,9.99295e-01,9.03452e-01,9.99999e-01
1.026704968e+00,9.03359e-01,9.99999e-01,9.98440e-01,9.99450e-01,9.05266e-01,9.99999e-01
1.031838492e+00,8.85523e-01,9.99999e-01,9.76651e-01,9.99600e-01,9.07047e-01,9.99999e-01
1.036997685e+00,2.93158e-01,9.99999e-01,3.22643e-01,9.99762e-01,9.08797e-01,9.99999e-01
1.042182673e+00,3.57738e-01,9.99999e-01,3.93001e-01,9.99717e-01,9.10515e-01,9.99999e-01
1.047393587e+00,3.25501e-01,9.99999e-01,3.56951e-01,9.99625e-01,9.12203e-01,9.99999e-01
1.052630555e+00,6.18823e-02,9.99999e-01,6.77433e-02,9.99485e-01,9.13860e-01,9.99999e-01
1.057893707e+00,1.10631e-01,9.99999e-01,1.20928e-01,9.99142e-01,9.15488e-01,9.99999e-01
1.063183176e+00,1.99311e-01,9.99999e-01,2.17586e-01,9.98588e-01,9.17086e-01,9.99999e-01
1.068499092e+00,3.33732e-01,9.99999e-01,3.64075e-01,9.97635e-01,9.18655e-01,9.99999e-01
1.073841587e+00,4.85093e-01,9.99999e-01,5.28507e-01,9.97234e-01,9.20196e-01,9.99999e-01
1.079210795e+00,6.14720e-01,9.99999e-01,6.69214e-01,9.96453e-01,9.21709e-01,9.99999e-01
1.084606849e+00,7.37688e-01,9.99999e-01,8.03280e-01,9.94636e-01,9.23194e-01,9.99999e-01
1.090029883e+00,8.19334e-01,9.99999e-01,8.92884e-01,9.92312e-01,9.24652e-01,9.99999e-01
1.095480033e+00,8.57673e-01,9.99999e-01,9.45740e-01,9.79168e-01,9.26084e-01,9.99999e-01
1.100957433e+00,8.55883e-01,9.99999e-01,9.73528e-01,9.47775e-01,9.27490e-01,9.99998e-01
1.106462220e+00,8.00873e-01,9.99999e-01,9.88968e-01,8.71668e-01,9.28870e-01,9.99997e-01
1.111994531e+00,6.92294e-01,9.99999e-01,9.95898e-01,7.47190e-01,9.30225e-01,9.99995e-01
1.117554504e+00,5.78811e-01,9.99999e-01,9.98995e-01,6.21911e-01,9.31555e-01,9.99993e-01
1.123142276e+00,6.52557e-01,9.99999e-01,9.99933e-01,6.99560e-01,9.32860e-01,9.99992e-01
1.128757988e+00,7.46196e-01,9.99999e-01,9.99999e-01,7.98809e-01,9.34142e-01,9.99992e-01
1.134401778e+00,5.40532e-01,9.99999e-01,9.99999e-01,5.77866e-01,9.35400e-01,9.99991e-01
1.140073787e+00,8.20900e-01,9.99999e-01,9.99999e-01,8.76441e-01,9.36634e-01,9.99992e-01
1.145774156e+00,7.09435e-01,9.99999e-01,9.99999e-01,7.56455e-01,9.37846e-01,9.99993e-01
1.151503026e+00,6.86490e-01,9.99999e-01,9.99999e-01,7.31061e-01,9.39036e-01,9.99994e-01
1.157260541e+00,7.27940e-01,9.99999e-01,9.99999e-01,7.74239e-01,9.40203e-01,9.99995e-01
1.163046844e+00,7.79542e-01,9.99999e-01,9.99999e-01,8.28113e-01,9.41349e-01,9.99997e-01
1.168862078e+00,8.27501e-01,9.99999e-01,9.99999e-01,8.78010e-01,9.42473e-01,9.99998e-01
1.174706389e+00,8.70819e-01,9.99999e-01,9.99999e-01,9.22891e-01,9.43577e-01,9.99998e-01
1.180579921e+00,8.99660e-01,9.99999e-01,9.99999e-01,9.52363e-01,9.44660e-01,9.99999e-01
1.186482820e+00,9.20046e-01,9.99999e-01,9.99996e-01,9.72851e-01,9.45723e-01,9.99999e-01
1.192415234e+00,9.26506e-01,9.99999e-01,9.94399e-01,9.84085e-01,9.46766e-01,9.99999e-01
1.198377311e+00,5.56668e-01,9.99999e-01,5.94068e-01,9.86577e-01,9.47789e-01,9.99999e-01
1.204369197e+00,5.39650e-06,9.99999e-01,5.72988e-06,9.87280e-01,9.48794e-01,9.99999e-01
1.210391043e+00,2.40419e-18,9.99999e-01,2.54854e-18,9.87838e-01,9.49779e-01,9.99999e-01
1.216442998e+00,3.98395e-16,9.99999e-01,4.21741e-16,9.89638e-01,9.50747e-01,9.99999e-01
1.222525213e+00,7.00889e-16,9.99999e-01,7.39639e-16,9.91931e-01,9.51696e-01,9.99999e-01
1.228637839e+00,3.47954e-12,9.99999e-01,3.66734e-12,9.94392e-01,9.52627e-01,9.99999e-01
