#,Wave/freq,Total,O2,CO2,H2O,Rayleigh,CIA
4.000000000e-01,7.32435e-07,9.99999e-01,9.99999e-01,9.99971e-01,7.32455e-07,9.99999e-01
4.020000000e-01,9.68468e-07,9.99999e-01,9.99999e-01,9.99982e-01,9.68485e-07,9.99999e-01
4.040100000e-01,1.27315e-06,9.99999e-01,9.99999e-01,9.99992e-01,1.27316e-06,9.99999e-01
4.060300500e-01,1.66466e-06,9.99999e-01,9.99999e-01,9.99997e-01,1.66466e-06,9.99999e-01
4.080602003e-01,2.16505e-06,9.99999e-01,9.99999e-01,9.99998e-01,2.16505e-06,9.99999e-01
4.101005013e-01,2.80128e-06,9.99999e-01,9.99999e-01,9.99999e-01,2.80128e-06,9.99999e-01
4.121510038e-01,3.60608e-06,9.99999e-01,9.99999e-01,9.99998e-01,3.60608e-06,9.99999e-01
4.142117588e-01,4.61896e-06,9.99999e-01,9.99999e-01,9.99991e-01,4.61900e-06,9.99999e-01
4.162828176e-01,5.88737e-06,9.99999e-01,9.99999e-01,9.99965e-01,5.88757e-06,9.99999e-01
4.183642317e-01,7.46851e-06,9.99999e-01,9.99999e-01,9.99979e-01,7.46866e-06,9.99999e-01
4.204560528e-01,9.42982e-06,9.99999e-01,9.99999e-01,9.99986e-01,9.42994e-06,9.99999e-01
4.225583331e-01,1.18515e-05,9.99999e-01,9.99999e-01,9.99994e-01,1.18515e-05,9.99999e-01
4.246711247e-01,1.48279e-05,9.99999e-01,9.99999e-01,9.99995e-01,1.48279e-05,9.99999e-01
4.267944804e-01,1.84697e-05,9.99999e-01,9.99999e-01,9.99994e-01,1.84698e-05,9.99999e-01
4.289284528e-01,2.29066e-05,9.99999e-01,9.99999e-01,9.99995e-01,2.29067e-05,9.99999e-01
4.310730950e-01,2.82887e-05,9.99999e-01,9.99999e-01,9.99997e-01,2.82888e-05,9.99999e-01
4.332284605e-01,3.47901e-05,9.99999e-01,9.99999e-01,9.99999e-01,3.47902e-05,9.99999e-01
4.353946028e-01,4.26112e-05,9.99999e-01,9.99999e-01,9.99999e-01,4.26112e-05,9.99999e-01
4.375715758e-01,5.19816e-05,9.99999e-01,9.99999e-01,9.99996e-01,5.19818e-05,9.99999e-01
4.397594337e-01,6.31627e-05,9.99999e-01,9.99999e-01,9.99969e-01,6.31646e-05,9.99999e-01
4.419582309e-01,7.64468e-05,9.99999e-01,9.99999e-01,9.99848e-01,7.64584e-05,9.99999e-01
4.441680220e-01,9.21904e-05,9.99999e-01,9.99999e-01,9.99879e-01,9.22014e-05,9.99999e-01
4.463888621e-01,1.10762e-04,9.99999e-01,9.99999e-01,9.99875e-01,1.10776e-04,9.99999e-01
4.486208064e-01,1.32600e-04,9.99999e-01,9.99999e-01,9.99922e-01,1.32610e-04,9.99999e-01
4.508639105e-01,1.58179e-04,9.99999e-01,9.99999e-01,9.99963e-01,1.58185e-04,9.99999e-01
4.531182300e-01,1.88033e-04,9.99999e-01,9.99999e-01,9.99985e-01,1.88036e-04,9.99999e-01
4.553838212e-01,2.22756e-04,9.99999e-01,9.99999e-01,9.99989e-01,2.22758e-04,9.99999e-01
4.576607403e-01,2.63009e-04,9.99999e-01,9.99999e-01,9.99995e-01,2.63010e-04,9.99999e-01
4.599490440e-01,3.09518e-04,9.99999e-01,9.99999e-01,9.99996e-01,3.09519e-04,9.99999e-01
4.622487892e-01,3.63082e-04,9.99999e-01,9.99999e-01,9.99998e-01,3.63082e-04,9.99999e-01
4.645600332e-01,4.24573e-04,9.99999e-01,9.99999e-01,9.99997e-01,4.24574e-04,9.99999e-01
4.668828333e-01,4.94930e-04,9.99999e-01,9.99999e-01,9.99963e-01,4.94948e-04,9.99999e-01
4.692172475e-01,5.75197e-04,9.99999e-01,9.99999e-01,9.99921e-01,5.75242e-04,9.99999e-01
4.715633337e-01,6.66545e-04,9.99999e-01,9.99999e-01,9.99948e-01,6.66578e-04,9.99999e-01
4.739211504e-01,7.70135e-04,9.99999e-01,9.99999e-01,9.99950e-01,7.70173e-04,9.99999e-01
4.762907561e-01,8.87308e-04,9.99999e-01,9.99999e-01,9.99974e-01,8.87331e-04,9.99999e-01
4.786722099e-01,1.01945e-03,9.99999e-01,9.99999e-01,9.99989e-01,1.01946e-03,9.99999e-01
4.810655710e-01,1.16804e-03,9.99999e-01,9.99999e-01,9.99996e-01,1.16805e-03,9.99999e-01
4.834708988e-01,1.33467e-03,9.99999e-01,9.99999e-01,9.99970e-01,1.33471e-03,9.99999e-01
4.858882533e-01,1.52105e-03,9.99999e-01,9.99999e-01,9.99944e-01,1.52113e-03,9.99999e-01
4.883176946e-01,1.72904e-03,9.99999e-01,9.99999e-01,9.99953e-01,1.72912e-03,9.99999e-01
4.907592831e-01,1.96050e-03,9.99999e-01,9.99999e-01,9.99957e-01,1.96058e-03,9.99999e-01
4.932130795e-01,2.21745e-03,9.99999e-01,9.99999e-01,9.99969e-01,2.21752e-03,9.99999e-01
4.956791449e-01,2.50199e-03,9.99999e-01,9.99999e-01,9.99983e-01,2.50203e-03,9.99999e-01
4.981575406e-01,2.81611e-03,9.99999e-01,9.99999e-01,9.99921e-01,2.81633e-03,9.99999e-01
5.006483283e-01,3.16206e-03,9.99999e-01,9.99999e-01,9.99797e-01,3.16270e-03,9.99999e-01
5.031515699e-01,3.53991e-03,9.99999e-01,9.99999e-01,9.98972e-01,3.54355e-03,9.99999e-01
5.056673278e-01,3.95920e-03,9.99999e-01,9.99999e-01,9.99456e-01,3.96135e-03,9.99999e-01
5.081956644e-01,4.41564e-03,9.99999e-01,9.99999e-01,9.99314e-01,4.41867e-03,9.99999e-01
5.107366428e-01,4.91589e-03,9.99999e-01,9.99999e-01,9.99536e-01,4.91816e-03,9.99999e-01
5.132903260e-01,5.46110e-03,9.99999e-01,9.99999e-01,9.99734e-01,5.46255e-03,9.99999e-01
5.158567776e-01,6.05395e-03,9.99999e-01,9.99999e-01,9.99887e-01,6.05463e-03,9.99999e-01
5.184360615e-01,6.69695e-03,9.99999e-01,9.99999e-01,9.99954e-01,6.69725e-03,9.99999e-01
5.210282418e-01,7.39322e-03,9.99999e-01,9.99999e-01,9.99982e-01,7.39334e-03,9.99999e-01
5.236333830e-01,8.14530e-03,9.99999e-01,9.99999e-01,9.99932e-01,8.14585e-03,9.99999e-01
5.262515499e-01,8.95741e-03,9.99999e-01,9.99999e-01,9.99957e-01,8.95778e-03,9.99999e-01
5.288828077e-01,9.83180e-03,9.99999e-01,9.99999e-01,9.99961e-01,9.83217e-03,9.99999e-01
5.315272217e-01,1.07717e-02,9.99999e-01,9.99999e-01,9.99965e-01,1.07721e-02,9.99999e-01
5.341848578e-01,1.17803e-02,9.99999e-01,9.99999e-01,9.99977e-01,1.17806e-02,9.99999e-01
5.368557821e-01,1.28597e-02,9.99999e-01,9.99999e-01,9.99921e-01,1.28607e-02,9.99999e-01
5.395400610e-01,1.40117e-02,9.99999e-01,9.99999e-01,9.99719e-01,1.40156e-02,9.99999e-01
5.422377613e-01,1.52427e-02,9.99999e-01,9.99999e-01,9.99635e-01,1.52483e-02,9.99999e-01
5.449489501e-01,1.65562e-02,9.99999e-01,9.99999e-01,9.99662e-01,1.65618e-02,9.99999e-01
5.476736949e-01,1.79537e-02,9.99999e-01,9.99999e-01,9.99699e-01,1.79591e-02,9.99999e-01
5.504120634e-01,1.94389e-02,9.99999e-01,9.99999e-01,9.99781e-01,1.94432e-02,9.99999e-01
5.531641237e-01,2.10146e-02,9.99999e-01,9.99999e-01,9.99889e-01,2.10169e-02,9.99999e-01
5.559299443e-01,2.26818e-02,9.99999e-01,9.99999e-01,9.99946e-01,2.26830e-02,9.99999e-01
5.587095940e-01,2.44436e-02,9.99999e-01,9.99999e-01,9.99966e-01,2.44444e-02,9.99999e-01
5.615031420e-01,2.63028e-02,9.99999e-01,9.99999e-01,9.99962e-01,2.63037e-02,9.99999e-01
5.643106577e-01,2.82623e-02,9.99999e-01,9.99999e-01,9.99958e-01,2.82635e-02,9.99999e-01
5.671322110e-01,3.03110e-02,9.99999e-01,9.99999e-01,9.99496e-01,3.03262e-02,9.99999e-01
5.699678720e-01,3.24766e-02,9.99999e-01,9.99999e-01,9.99456e-01,3.24942e-02,9.99999e-01
5.728177114e-01,3.47502e-02,9.99999e-01,9.99999e-01,9.99437e-01,3.47698e-02,9.99999e-01
5.756818000e-01,3.71357e-02,9.99999e-01,9.99999e-01,9.99482e-01,3.71549e-02,9.99999e-01
5.785602090e-01,3.96339e-02,9.99999e-01,9.99999e-01,9.99548e-01,3.96517e-02,9.99999e-01
5.814530100e-01,4.22429e-02,9.99999e-01,9.99999e-01,9.99547e-01,4.22620e-02,9.99999e-01
5.843602750e-01,4.49633e-02,9.99999e-01,9.99999e-01,9.99463e-01,4.49874e-02,9.99999e-01
5.872820764e-01,4.76083e-02,9.99999e-01,9.99999e-01,9.95375e-01,4.78295e-02,9.99999e-01
5.902184868e-01,5.05037e-02,9.99999e-01,9.99999e-01,9.94370e-01,5.07896e-02,9.99999e-01
5.931695792e-01,5.36551e-02,9.99999e-01,9.99999e-01,9.96027e-01,5.38690e-02,9.99999e-01
5.961354271e-01,5.68200e-02,9.99999e-01,9.99999e-01,9.95640e-01,5.70687e-02,9.99999e-01
5.991161043e-01,6.01975e-02,9.99999e-01,9.99999e-01,9.96817e-01,6.03896e-02,9.99999e-01
6.021116848e-01,6.37170e-02,9.99999e-01,9.99999e-01,9.98191e-01,6.38324e-02,9.99999e-01
6.051222432e-01,6.73360e-02,9.99999e-01,9.99999e-01,9.99084e-01,6.73977e-02,9.99999e-01
6.081478544e-01,7.10576e-02,9.99999e-01,9.99999e-01,9.99604e-01,7.10857e-02,9.99999e-01
6.111885937e-01,7.48841e-02,9.99999e-01,9.99999e-01,9.99832e-01,7.48966e-02,9.99999e-01
6.142445367e-01,7.88246e-02,9.99999e-01,9.99999e-01,9.99924e-01,7.88305e-02,9.99999e-01
6.173157594e-01,8.28838e-02,9.99999e-01,9.99999e-01,9.99958e-01,8.28872e-02,9.99999e-01
6.204023382e-01,8.70632e-02,9.99999e-01,9.99999e-01,9.99964e-01,8.70663e-02,9.99999e-01
6.235043498e-01,9.13534e-02,9.99999e-01,9.99999e-01,9.99848e-01,9.13672e-02,9.99999e-01
6.266218716e-01,9.57118e-02,9.99999e-01,9.99999e-01,9.99189e-01,9.57894e-02,9.99999e-01
6.297549810e-01,1.00302e-01,9.99999e-01,9.99999e-01,9.99702e-01,1.00332e-01,9.99999e-01
6.329037559e-01,1.04932e-01,9.99999e-01,9.99999e-01,9.99411e-01,1.04994e-01,9.99999e-01
6.360682746e-01,1.09719e-01,9.99999e-01,9.99999e-01,9.99500e-01,1.09773e-01,9.99999e-01
6.392486160e-01,1.14596e-01,9.99999e-01,9.99999e-01,9.99351e-01,1.14670e-01,9.99999e-01
6.424448591e-01,1.19579e-01,9.99999e-01,9.99999e-01,9.99136e-01,1.19682e-01,9.99999e-01
6.456570834e-01,1.24307e-01,9.99999e-01,9.99999e-01,9.95994e-01,1.24807e-01,9.99999e-01
6.488853688e-01,1.29660e-01,9.99999e-01,9.99999e-01,9.97049e-01,1.30044e-01,9.99999e-01
6.521297956e-01,1.34984e-01,9.99999e-01,9.99999e-01,9.96991e-01,1.35391e-01,9.99999e-01
6.553904446e-01,1.40427e-01,9.99999e-01,9.99999e-01,9.97026e-01,1.40846e-01,9.99999e-01
6.586673968e-01,1.46030e-01,9.99999e-01,9.99999e-01,9.97434e-01,1.46406e-01,9.99999e-01
6.619607338e-01,1.51843e-01,9.99999e-01,9.99999e-01,9.98516e-01,1.52069e-01,9.99999e-01
6.652705375e-01,1.57697e-01,9.99999e-01,9.99999e-01,9.99139e-01,1.57833e-01,9.99999e-01
6.685968902e-01,1.63629e-01,9.99999e-01,9.99999e-01,9.99600e-01,1.63694e-01,9.99999e-01
6.719398746e-01,1.69621e-01,9.99999e-01,9.99999e-01,9.99814e-01,1.69652e-01,9.99999e-01
6.752995740e-01,1.75685e-01,9.99999e-01,9.99999e-01,9.99899e-01,1.75702e-01,9.99999e-01
6.786760719e-01,1.81816e-01,9.99999e-01,9.99999e-01,9.99855e-01,1.81842e-01,9.99999e-01
6.820694522e-01,1.88023e-01,9.99999e-01,9.99999e-01,9.99752e-01,1.88069e-01,9.99999e-01
6.854797995e-01,1.94318e-01,9.99999e-01,9.99999e-01,9.99681e-01,1.94380e-01,9.99999e-01
6.889071985e-01,2.00618e-01,9.99999e-01,9.99999e-01,9.99235e-01,2.00772e-01,9.99999e-01
6.923517345e-01,2.04651e-01,9.99999e-01,9.99999e-01,9.87501e-01,2.07241e-01,9.99999e-01
6.958134932e-01,2.12377e-01,9.99999e-01,9.99999e-01,9.93412e-01,2.13785e-01,9.99999e-01
6.992925606e-01,2.19035e-01,9.99999e-01,9.99999e-01,9.93807e-01,2.20400e-01,9.99999e-01
7.027890234e-01,2.25340e-01,9.99999e-01,9.99999e-01,9.92324e-01,2.27083e-01,9.99999e-01
7.063029686e-01,2.32322e-01,9.99999e-01,9.99999e-01,9.93547e-01,2.33831e-01,9.99999e-01
7.098344834e-01,2.39150e-01,9.99999e-01,9.99999e-01,9.93807e-01,2.40640e-01,9.99999e-01
7.133836558e-01,2.45480e-01,9.99999e-01,9.99999e-01,9.91810e-01,2.47507e-01,9.99999e-01
7.169505741e-01,2.38087e-01,9.99999e-01,9.99999e-01,9.35772e-01,2.54428e-01,9.99998e-01
7.205353270e-01,2.52965e-01,9.99999e-01,9.99999e-01,9.67730e-01,2.61401e-01,9.99998e-01
7.241380036e-01,2.57553e-01,9.99999e-01,9.99999e-01,9.59512e-01,2.68421e-01,9.99998e-01
7.277586936e-01,2.65396e-01,9.99999e-01,9.99999e-01,9.63375e-01,2.75485e-01,9.99998e-01
7.313974871e-01,2.71557e-01,9.99999e-01,9.99999e-01,9.60955e-01,2.82591e-01,9.99998e-01
7.350544745e-01,2.83506e-01,9.99999e-01,9.99999e-01,9.78506e-01,2.89734e-01,9.99999e-01
7.387297469e-01,2.92200e-01,9.99999e-01,9.99999e-01,9.84134e-01,2.96911e-01,9.99999e-01
7.424233956e-01,3.01746e-01,9.99999e-01,9.99999e-01,9.92198e-01,3.04118e-01,9.99999e-01
7.461355126e-01,3.09881e-01,9.99999e-01,9.99999e-01,9.95270e-01,3.11354e-01,9.99999e-01
7.498661902e-01,3.17910e-01,9.99999e-01,9.99999e-01,9.97792e-01,3.18613e-01,9.99999e-01
7.536155211e-01,3.25541e-01,9.99999e-01,9.99999e-01,9.98918e-01,3.25893e-01,9.99999e-01
7.573835987e-01,3.33005e-01,9.99999e-01,9.99999e-01,9.99442e-01,3.33191e-01,9.99999e-01
7.611705167e-01,3.40385e-01,9.99999e-01,9.99999e-01,9.99653e-01,3.40503e-01,9.99999e-01
7.649763693e-01,3.47751e-01,9.99999e-01,9.99999e-01,9.99782e-01,3.47827e-01,9.99999e-01
7.688012511e-01,3.55105e-01,9.99999e-01,9.99999e-01,9.99848e-01,3.55158e-01,9.99999e-01
7.726452574e-01,3.62450e-01,9.99999e-01,9.99999e-01,9.99875e-01,3.62495e-01,9.99999e-01
7.765084837e-01,3.69769e-01,9.99999e-01,9.99999e-01,9.99824e-01,3.69834e-01,9.99999e-01
7.803910261e-01,3.60576e-01,9.99999e-01,9.56693e-01,9.99241e-01,3.77173e-01,9.99999e-01
7.842929812e-01,3.12658e-01,9.99999e-01,8.15157e-01,9.97356e-01,3.84507e-01,9.99999e-01
7.882144461e-01,3.13589e-01,9.99999e-01,8.04476e-01,9.94534e-01,3.91835e-01,9.99999e-01
7.921555184e-01,3.50121e-01,9.99999e-01,8.79722e-01,9.96991e-01,3.99154e-01,9.99999e-01
7.961162960e-01,3.70910e-01,9.99999e-01,9.17314e-01,9.94720e-01,4.06461e-01,9.99999e-01
8.000968774e-01,3.92451e-01,9.99999e-01,9.54326e-01,9.93883e-01,4.13754e-01,9.99999e-01
8.040973618e-01,4.08427e-01,9.99999e-01,9.76017e-01,9.93886e-01,4.21029e-01,9.99999e-01
8.081178486e-01,4.17765e-01,9.99999e-01,9.88943e-01,9.86315e-01,4.28285e-01,9.99999e-01
8.121584379e-01,4.09779e-01,9.99999e-01,9.96557e-01,9.44103e-01,4.35519e-01,9.99998e-01
8.162192301e-01,4.13046e-01,9.99999e-01,9.99238e-01,9.33648e-01,4.42729e-01,9.99998e-01
8.203003262e-01,4.34951e-01,9.99999e-01,9.99987e-01,9.66757e-01,4.49912e-01,9.99998e-01
8.244018279e-01,4.35702e-01,9.99999e-01,9.99999e-01,9.53259e-01,4.57066e-01,9.99998e-01
8.285238370e-01,4.45619e-01,9.99999e-01,9.99999e-01,9.59993e-01,4.64189e-01,9.99998e-01
8.326664562e-01,4.52184e-01,9.99999e-01,9.99999e-01,9.59480e-01,4.71280e-01,9.99998e-01
8.368297885e-01,4.64395e-01,9.99999e-01,9.99999e-01,9.70856e-01,4.78335e-01,9.99999e-01
8.410139374e-01,4.76900e-01,9.99999e-01,9.99999e-01,9.82580e-01,4.85354e-01,9.99999e-01
8.452190071e-01,4.88108e-01,9.99999e-01,9.99999e-01,9.91417e-01,4.92334e-01,9.99999e-01
8.494451021e-01,4.96789e-01,9.99999e-01,9.99999e-01,9.95023e-01,4.99273e-01,9.99999e-01
8.536923276e-01,5.04677e-01,9.99999e-01,9.99999e-01,9.97049e-01,5.06170e-01,9.99999e-01
8.579607893e-01,5.12093e-01,9.99999e-01,9.99999e-01,9.98185e-01,5.13024e-01,9.99999e-01
8.622505932e-01,5.19232e-01,9.99999e-01,9.99999e-01,9.98845e-01,5.19832e-01,9.99999e-01
8.665618462e-01,4.80319e-01,9.99999e-01,9.12744e-01,9.99286e-01,5.26594e-01,9.99999e-01
8.708946554e-01,3.18853e-01,9.99999e-01,5.98345e-01,9.99184e-01,5.33307e-01,9.99999e-01
8.752491287e-01,3.55234e-01,9.99999e-01,6.58567e-01,9.98908e-01,5.39970e-01,9.99999e-01
8.796253743e-01,4.33206e-01,9.99999e-01,7.93720e-01,9.98491e-01,5.46583e-01,9.99999e-01
8.840235012e-01,4.89680e-01,9.99999e-01,8.86765e-01,9.98276e-01,5.53144e-01,9.99999e-01
8.884436187e-01,5.30409e-01,9.99999e-01,9.53602e-01,9.93781e-01,5.59652e-01,9.99999e-01
8.928858368e-01,5.19894e-01,9.99999e-01,9.80961e-01,9.35985e-01,5.66105e-01,9.99998e-01
8.973502660e-01,5.06670e-01,9.99999e-01,9.95327e-01,8.89049e-01,5.72503e-01,9.99998e-01
9.018370173e-01,5.44722e-01,9.99999e-01,9.99483e-01,9.41517e-01,5.78845e-01,9.99997e-01
9.063462024e-01,5.48283e-01,9.99999e-01,9.87090e-01,9.48763e-01,5.85130e-01,9.99997e-01
9.108779334e-01,5.28672e-01,9.99999e-01,9.70164e-01,9.21034e-01,5.91357e-01,9.99997e-01
9.154323231e-01,5.40378e-01,9.99999e-01,9.92881e-01,9.10658e-01,5.97525e-01,9.99997e-01
9.200094847e-01,5.10097e-01,9.99999e-01,9.04826e-01,9.29260e-01,6.03634e-01,9.99996e-01
9.246095321e-01,4.71257e-01,9.99999e-01,8.62416e-01,8.93237e-01,6.09683e-01,9.99994e-01
9.292325798e-01,2.62833e-01,9.99999e-01,8.91380e-01,4.71775e-01,6.15671e-01,9.99988e-01
9.338787427e-01,2.13452e-01,9.99999e-01,8.94065e-01,3.78466e-01,6.21598e-01,9.99985e-01
9.385481364e-01,3.92359e-01,9.99999e-01,9.20907e-01,6.74848e-01,6.27463e-01,9.99984e-01
9.432408771e-01,3.52581e-01,9.99999e-01,9.50686e-01,5.83581e-01,6.33266e-01,9.99983e-01
9.479570815e-01,2.98045e-01,9.99999e-01,9.74423e-01,4.77828e-01,6.39007e-01,9.99985e-01
9.526968669e-01,3.63528e-01,9.99999e-01,9.87576e-01,5.70192e-01,6.44685e-01,9.99988e-01
9.574603512e-01,3.83542e-01,9.99999e-01,9.94666e-01,5.92683e-01,6.50299e-01,9.99991e-01
9.622476530e-01,4.26786e-01,9.99999e-01,9.98332e-01,6.51741e-01,6.55850e-01,9.99994e-01
9.670588912e-01,5.16340e-01,9.99999e-01,9.99499e-01,7.81118e-01,6.61338e-01,9.99996e-01
9.718941857e-01,5.70980e-01,9.99999e-01,9.99963e-01,8.56378e-01,6.66761e-01,9.99997e-01
9.767536566e-01,5.90947e-01,9.99999e-01,9.99999e-01,8.79227e-01,6.72121e-01,9.99998e-01
9.816374249e-01,6.15666e-01,9.99999e-01,9.99999e-01,9.08844e-01,6.77416e-01,9.99998e-01
9.865456120e-01,6.43054e-01,9.99999e-01,9.99999e-01,9.42000e-01,6.82648e-01,9.99999e-01
9.914783401e-01,6.62880e-01,9.99999e-01,9.99999e-01,9.63746e-01,6.87815e-01,9.99999e-01
9.964357318e-01,6.79123e-01,9.99999e-01,9.99999e-01,9.80090e-01,6.92918e-01,9.99999e-01
1.001417910e+00,6.89596e-01,9.99999e-01,9.99999e-01,9.88019e-01,6.97957e-01,9.99999e-01
1.006425000e+00,6.98126e-01,9.99999e-01,9.99999e-01,9.93161e-01,7.02933e-01,9.99999e-01
1.011457125e+00,7.04832e-01,9.99999e-01,9.99999e-01,9.95744e-01,7.07844e-01,9.99999e-01
1.016514411e+00,7.10633e-01,9.99999e-01,9.99999e-01,9.97111e-01,7.12691e-01,9.99999e-01
1.021596983e+00,7.15778e-01,9.99999e-01,9.99934e-01,9.97698e-01,7.17476e-01,9.99999e-01
1.026704968e+00,7.17262e-01,9.99999e-01,9.94948e-01,9.98205e-01,7.22196e-01,9.99999e-01
1.031838492e+00,6.87726e-01,9.99999e-01,9.47361e-01,9.98694e-01,7.26854e-01,9.99999e-01
1.036997685e+00,8.47282e-02,9.99999e-01,1.15906e-01,9.99224e-01,7.31449e-01,9.99999e-01
1.042182673e+00,4.41660e-02,9.99999e-01,6.00571e-02,9.99077e-01,7.35981e-01,9.99999e-01
1.047393587e+00,6.31211e-02,9.99999e-01,8.53378e-02,9.98776e-01,7.40451e-01,9.99999e-01
1.052630555e+00,6.06736e-04,9.99999e-01,8.15529e-04,9.98321e-01,7.44859e-01,9.99999e-01
1.057893707e+00,1.77817e-03,9.99999e-01,2.37757e-03,9.97202e-01,7.49205e-01,9.99999e-01
1.063183176e+00,8.47474e-03,9.99999e-01,1.12824e-02,9.95396e-01,7.53491e-01,9.99999e-01
1.068499092e+00,3.13585e-02,9.99999e-01,4.16427e-02,9.92295e-01,7.57715e-01,9.99999e-01
1.073841587e+00,1.00560e-01,9.99999e-01,1.32971e-01,9.90998e-01,7.61879e-01,9.99999e-01
1.079210795e+00,2.11256e-01,9.99999e-01,2.78642e-01,9.88457e-01,7.65983e-01,9.99999e-01
1.084606849e+00,3.73018e-01,9.99999e-01,4.92473e-01,9.82593e-01,7.70027e-01,9.99998e-01
1.090029883e+00,5.22752e-01,9.99999e-01,6.91943e-01,9.75163e-01,7.74012e-01,9.99998e-01
1.095480033e+00,6.06275e-01,9.99999e-01,8.33838e-01,9.33699e-01,7.77938e-01,9.99997e-01
1.100957433e+00,6.02573e-01,9.99999e-01,9.16113e-01,8.40292e-01,7.81807e-01,9.99996e-01
1.106462220e+00,4.89648e-01,9.99999e-01,9.64385e-01,6.45185e-01,7.85617e-01,9.99993e-01
1.111994531e+00,3.11707e-01,9.99999e-01,9.86646e-01,3.99732e-01,7.89370e-01,9.99986e-01
1.117554504e+00,1.81573e-01,9.99999e-01,9.96716e-01,2.29532e-01,7.93067e-01,9.99981e-01
1.123142276e+00,2.75858e-01,9.99999e-01,9.99783e-01,3.46283e-01,7.96707e-01,9.99977e-01
1.128757988e+00,4.00376e-01,9.99999e-01,9.99999e-01,5.00299e-01,8.00291e-01,9.99975e-01
1.134401778e+00,2.06307e-01,9.99999e-01,9.99999e-01,2.56664e-01,8.03821e-01,9.99972e-01
1.140073787e+00,5.31124e-01,9.99999e-01,9.99999e-01,6.57918e-01,8.07295e-01,9.99978e-01
1.145774156e+00,3.42795e-01,9.99999e-01,9.99999e-01,4.22837e-01,8.10716e-01,9.99981e-01
1.151503026e+00,3.13932e-01,9.99999e-01,9.99999e-01,3.85632e-01,8.14083e-01,9.99983e-01
1.157260541e+00,3.62825e-01,9.99999e-01,9.99999e-01,4.43883e-01,8.17398e-01,9.99987e-01
1.163046844e+00,4.49011e-01,9.99999e-01,9.99999e-01,5.47138e-01,8.20660e-01,9.99991e-01
1.168862078e+00,5.40193e-01,9.99999e-01,9.99999e-01,6.55679e-01,8.23870e-01,9.99995e-01
1.174706389e+00,6.37327e-01,9.99999e-01,9.99999e-01,7.70623e-01,8.27029e-01,9.99997e-01
1.180579921e+00,7.08175e-01,9.99999e-01,9.99999e-01,8.53083e-01,8.30137e-01,9.99998e-01
1.186482820e+00,7.61590e-01,9.99999e-01,9.99991e-01,9.14066e-01,8.33195e-01,9.99998e-01
1.192415234e+00,7.79605e-01,9.99999e-01,9.82228e-01,9.48923e-01,8.36204e-01,9.99998e-01
1.198377311e+00,4.47570e-01,9.99999e-01,5.53384e-01,9.56822e-01,8.39164e-01,9.99998e-01
1.204369197e+00,1.65162e-14,9.99999e-01,2.00926e-14,9.59096e-01,8.42075e-01,9.99998e-01
1.210391043e+00,7.00456e-55,9.99999e-01,8.47594e-55,9.60832e-01,8.44939e-01,9.99999e-01
1.216442998e+00,1.16135e-47,9.99999e-01,1.39901e-47,9.66545e-01,8.47756e-01,9.99999e-01
1.222525213e+00,5.81985e-47,9.99999e-01,6.93646e-47,9.73865e-01,8.50526e-01,9.99999e-01
1.228637839e+00,2.27781e-36,9.99999e-01,2.70336e-36,9.81787e-01,8.53250e-01,9.99999e-01
