#,Wave/freq,Total,O2,CO2,H2O,Rayleigh,CIA
4.000000000e-01,1.01112e-03,9.99999e-01,9.99999e-01,9.99986e-01,1.01114e-03,9.99999e-01
4.020000000e-01,1.15885e-03,9.99999e-01,9.99999e-01,9.99991e-01,1.15886e-03,9.99999e-01
4.040100000e-01,1.32441e-03,9.99999e-01,9.99999e-01,9.99995e-01,1.32442e-03,9.99999e-01
4.060300500e-01,1.50963e-03,9.99999e-01,9.99999e-01,9.99998e-01,1.50963e-03,9.99999e-01
4.080602003e-01,1.71631e-03,9.99999e-01,9.99999e-01,9.99999e-01,1.71631e-03,9.99999e-01
4.101005013e-01,1.94634e-03,9.99999e-01,9.99999e-01,9.99999e-01,1.94634e-03,9.99999e-01
4.121510038e-01,2.20173e-03,9.99999e-01,9.99999e-01,9.99999e-01,2.20173e-03,9.99999e-01
4.142117588e-01,2.48456e-03,9.99999e-01,9.99999e-01,9.99995e-01,2.48457e-03,9.99999e-01
4.162828176e-01,2.79701e-03,9.99999e-01,9.99999e-01,9.99982e-01,2.79706e-03,9.99999e-01
4.183642317e-01,3.14146e-03,9.99999e-01,9.99999e-01,9.99989e-01,3.14149e-03,9.99999e-01
4.204560528e-01,3.52023e-03,9.99999e-01,9.99999e-01,9.99993e-01,3.52025e-03,9.99999e-01
4.225583331e-01,3.93580e-03,9.99999e-01,9.99999e-01,9.99997e-01,3.93581e-03,9.99999e-01
4.246711247e-01,4.39074e-03,9.99999e-01,9.99999e-01,9.99997e-01,4.39075e-03,9.99999e-01
4.267944804e-01,4.88768e-03,9.99999e-01,9.99999e-01,9.99996e-01,4.88770e-03,9.99999e-01
4.289284528e-01,5.42937e-03,9.99999e-01,9.99999e-01,9.99997e-01,5.42938e-03,9.99999e-01
4.310730950e-01,6.01858e-03,9.99999e-01,9.99999e-01,9.99998e-01,6.01858e-03,9.99999e-01
4.332284605e-01,6.65817e-03,9.99999e-01,9.99999e-01,9.99999e-01,6.65817e-03,9.99999e-01
4.353946028e-01,7.35104e-03,9.99999e-01,9.99999e-01,9.99999e-01,7.35104e-03,9.99999e-01
4.375715758e-01,8.10015e-03,9.99999e-01,9.99999e-01,9.99997e-01,8.10017e-03,9.99999e-01
4.397594337e-01,8.90840e-03,9.99999e-01,9.99999e-01,9.99984e-01,8.90854e-03,9.99999e-01
4.419582309e-01,9.77845e-03,9.99999e-01,9.99999e-01,9.99924e-01,9.77919e-03,9.99999e-01
4.441680220e-01,1.07146e-02,9.99999e-01,9.99999e-01,9.99941e-01,1.07152e-02,9.99999e-01
4.463888621e-01,1.17189e-02,9.99999e-01,9.99999e-01,9.99938e-01,1.17196e-02,9.99999e-01
4.486208064e-01,1.27950e-02,9.99999e-01,9.99999e-01,9.99962e-01,1.27954e-02,9.99999e-01
4.508639105e-01,1.39456e-02,9.99999e-01,9.99999e-01,9.99981e-01,1.39459e-02,9.99999e-01
4.531182300e-01,1.51738e-02,9.99999e-01,9.99999e-01,9.99992e-01,1.51739e-02,9.99999e-01
4.553838212e-01,1.64825e-02,9.99999e-01,9.99999e-01,9.99994e-01,1.64826e-02,9.99999e-01
4.576607403e-01,1.78749e-02,9.99999e-01,9.99999e-01,9.99997e-01,1.78749e-02,9.99999e-01
4.599490440e-01,1.93538e-02,9.99999e-01,9.99999e-01,9.99997e-01,1.93538e-02,9.99999e-01
4.622487892e-01,2.09222e-02,9.99999e-01,9.99999e-01,9.99999e-01,2.09222e-02,9.99999e-01
4.645600332e-01,2.25828e-02,9.99999e-01,9.99999e-01,9.99998e-01,2.25829e-02,9.99999e-01
4.668828333e-01,2.43382e-02,9.99999e-01,9.99999e-01,9.99981e-01,2.43386e-02,9.99999e-01
4.692172475e-01,2.61911e-02,9.99999e-01,9.99999e-01,9.99961e-01,2.61921e-02,9.99999e-01
4.715633337e-01,2.81452e-02,9.99999e-01,9.99999e-01,9.99974e-01,2.81459e-02,9.99999e-01
4.739211504e-01,3.02018e-02,9.99999e-01,9.99999e-01,9.99975e-01,3.02025e-02,9.99999e-01
4.762907561e-01,3.23639e-02,9.99999e-01,9.99999e-01,9.99987e-01,3.23643e-02,9.99999e-01
4.786722099e-01,3.46333e-02,9.99999e-01,9.99999e-01,9.99994e-01,3.46335e-02,9.99999e-01
4.810655710e-01,3.70121e-02,9.99999e-01,9.99999e-01,9.99997e-01,3.70122e-02,9.99999e-01
4.834708988e-01,3.95018e-02,9.99999e-01,9.99999e-01,9.99984e-01,3.95024e-02,9.99999e-01
4.858882533e-01,4.21048e-02,9.99999e-01,9.99999e-01,9.99972e-01,4.21060e-02,9.99999e-01
4.883176946e-01,4.48236e-02,9.99999e-01,9.99999e-01,9.99976e-01,4.48246e-02,9.99999e-01
4.907592831e-01,4.76588e-02,9.99999e-01,9.99999e-01,9.99979e-01,4.76598e-02,9.99999e-01
4.932130795e-01,5.06122e-02,9.99999e-01,9.99999e-01,9.99985e-01,5.06130e-02,9.99999e-01
4.956791449e-01,5.36849e-02,9.99999e-01,9.99999e-01,9.99991e-01,5.36854e-02,9.99999e-01
4.981575406e-01,5.68758e-02,9.99999e-01,9.99999e-01,9.99961e-01,5.68780e-02,9.99999e-01
5.006483283e-01,6.01858e-02,9.99999e-01,9.99999e-01,9.99899e-01,6.01918e-02,9.99999e-01
5.031515699e-01,6.35954e-02,9.99999e-01,9.99999e-01,9.99496e-01,6.36274e-02,9.99999e-01
5.056673278e-01,6.71677e-02,9.99999e-01,9.99999e-01,9.99734e-01,6.71855e-02,9.99999e-01
5.081956644e-01,7.08426e-02,9.99999e-01,9.99999e-01,9.99665e-01,7.08663e-02,9.99999e-01
5.107366428e-01,7.46532e-02,9.99999e-01,9.99999e-01,9.99774e-01,7.46700e-02,9.99999e-01
5.132903260e-01,7.85866e-02,9.99999e-01,9.99999e-01,9.99870e-01,7.85967e-02,9.99999e-01
5.158567776e-01,8.26417e-02,9.99999e-01,9.99999e-01,9.99945e-01,8.26462e-02,9.99999e-01
5.184360615e-01,8.68162e-02,9.99999e-01,9.99999e-01,9.99977e-01,8.68181e-02,9.99999e-01
5.210282418e-01,9.11112e-02,9.99999e-01,9.99999e-01,9.99991e-01,9.11120e-02,9.99999e-01
5.236333830e-01,9.55239e-02,9.99999e-01,9.99999e-01,9.99966e-01,9.55271e-02,9.99999e-01
5.262515499e-01,1.00060e-01,9.99999e-01,9.99999e-01,9.99979e-01,1.00063e-01,9.99999e-01
5.288828077e-01,1.04715e-01,9.99999e-01,9.99999e-01,9.99980e-01,1.04717e-01,9.99999e-01
5.315272217e-01,1.09488e-01,9.99999e-01,9.99999e-01,9.99983e-01,1.09490e-01,9.99999e-01
5.341848578e-01,1.14379e-01,9.99999e-01,9.99999e-01,9.99988e-01,1.14380e-01,9.99999e-01
5.368557821e-01,1.19381e-01,9.99999e-01,9.99999e-01,9.99961e-01,1.19385e-01,9.99999e-01
5.395400610e-01,1.24487e-01,9.99999e-01,9.99999e-01,9.99861e-01,1.24504e-01,9.99999e-01
5.422377613e-01,1.29711e-01,9.99999e-01,9.99999e-01,9.99822e-01,1.29734e-01,9.99999e-01
5.449489501e-01,1.35052e-01,9.99999e-01,9.99999e-01,9.99833e-01,1.35075e-01,9.99999e-01
5.476736949e-01,1.40503e-01,9.99999e-01,9.99999e-01,9.99853e-01,1.40523e-01,9.99999e-01
5.504120634e-01,1.46062e-01,9.99999e-01,9.99999e-01,9.99893e-01,1.46077e-01,9.99999e-01
5.531641237e-01,1.51726e-01,9.99999e-01,9.99999e-01,9.99946e-01,1.51734e-01,9.99999e-01
5.559299443e-01,1.57488e-01,9.99999e-01,9.99999e-01,9.99973e-01,1.57492e-01,9.99999e-01
5.587095940e-01,1.63346e-01,9.99999e-01,9.99999e-01,9.99983e-01,1.63348e-01,9.99999e-01
5.615031420e-01,1.69297e-01,9.99999e-01,9.99999e-01,9.99981e-01,1.69300e-01,9.99999e-01
5.643106577e-01,1.75342e-01,9.99999e-01,9.99999e-01,9.99978e-01,1.75345e-01,9.99999e-01
5.671322110e-01,1.81434e-01,9.99999e-01,9.99999e-01,9.99748e-01,1.81480e-01,9.99999e-01
5.699678720e-01,1.87653e-01,9.99999e-01,9.99999e-01,9.99736e-01,1.87702e-01,9.99999e-01
5.728177114e-01,1.93955e-01,9.99999e-01,9.99999e-01,9.99724e-01,1.94008e-01,9.99999e-01
5.756818000e-01,2.00345e-01,9.99999e-01,9.99999e-01,9.99747e-01,2.00395e-01,9.99999e-01
5.785602090e-01,2.06815e-01,9.99999e-01,9.99999e-01,9.99779e-01,2.06860e-01,9.99999e-01
5.814530100e-01,2.13352e-01,9.99999e-01,9.99999e-01,9.99778e-01,2.13400e-01,9.99999e-01
5.843602750e-01,2.19952e-01,9.99999e-01,9.99999e-01,9.99734e-01,2.20011e-01,9.99999e-01
5.872820764e-01,2.26173e-01,9.99999e-01,9.99999e-01,9.97719e-01,2.26690e-01,9.99999e-01
5.902184868e-01,2.32793e-01,9.99999e-01,9.99999e-01,9.97253e-01,2.33434e-01,9.99999e-01
5.931695792e-01,2.39772e-01,9.99999e-01,9.99999e-01,9.98055e-01,2.40239e-01,9.99999e-01
5.961354271e-01,2.46577e-01,9.99999e-01,9.99999e-01,9.97871e-01,2.47103e-01,9.99999e-01
5.991161043e-01,2.53627e-01,9.99999e-01,9.99999e-01,9.98448e-01,2.54021e-01,9.99999e-01
6.021116848e-01,2.60761e-01,9.99999e-01,9.99999e-01,9.99120e-01,2.60991e-01,9.99999e-01
6.051222432e-01,2.67889e-01,9.99999e-01,9.99999e-01,9.99554e-01,2.68008e-01,9.99999e-01
6.081478544e-01,2.75018e-01,9.99999e-01,9.99999e-01,9.99807e-01,2.75070e-01,9.99999e-01
6.111885937e-01,2.82151e-01,9.99999e-01,9.99999e-01,9.99918e-01,2.82174e-01,9.99999e-01
6.142445367e-01,2.89304e-01,9.99999e-01,9.99999e-01,9.99963e-01,2.89314e-01,9.99999e-01
6.173157594e-01,2.96483e-01,9.99999e-01,9.99999e-01,9.99979e-01,2.96489e-01,9.99999e-01
6.204023382e-01,3.03690e-01,9.99999e-01,9.99999e-01,9.99982e-01,3.03695e-01,9.99999e-01
6.235043498e-01,3.10906e-01,9.99999e-01,9.99999e-01,9.99924e-01,3.10929e-01,9.99999e-01
6.266218716e-01,3.18061e-01,9.99999e-01,9.99999e-01,9.99603e-01,3.18187e-01,9.99999e-01
6.297549810e-01,3.25419e-01,9.99999e-01,9.99999e-01,9.99854e-01,3.25466e-01,9.99999e-01
6.329037559e-01,3.32668e-01,9.99999e-01,9.99999e-01,9.99713e-01,3.32763e-01,9.99999e-01
6.360682746e-01,3.39991e-01,9.99999e-01,9.99999e-01,9.99755e-01,3.40075e-01,9.99999e-01
6.392486160e-01,3.47288e-01,9.99999e-01,9.99999e-01,9.99683e-01,3.47397e-01,9.99999e-01
6.424448591e-01,3.54578e-01,9.99999e-01,9.99999e-01,9.99573e-01,3.54729e-01,9.99999e-01
6.456570834e-01,3.61350e-01,9.99999e-01,9.99999e-01,9.98023e-01,3.62065e-01,9.99999e-01
6.488853688e-01,3.68873e-01,9.99999e-01,9.99999e-01,9.98562e-01,3.69404e-01,9.99999e-01
6.521297956e-01,3.76191e-01,9.99999e-01,9.99999e-01,9.98534e-01,3.76743e-01,9.99999e-01
6.553904446e-01,3.83516e-01,9.99999e-01,9.99999e-01,9.98537e-01,3.84078e-01,9.99999e-01
6.586673968e-01,3.90917e-01,9.99999e-01,9.99999e-01,9.98750e-01,3.91406e-01,9.99999e-01
6.619607338e-01,3.98449e-01,9.99999e-01,9.99999e-01,9.99303e-01,3.98726e-01,9.99999e-01
6.652705375e-01,4.05864e-01,9.99999e-01,9.99999e-01,9.99581e-01,4.06034e-01,9.99999e-01
6.685968902e-01,4.13254e-01,9.99999e-01,9.99999e-01,9.99822e-01,4.13327e-01,9.99999e-01
6.719398746e-01,4.20566e-01,9.99999e-01,9.99999e-01,9.99909e-01,4.20604e-01,9.99999e-01
6.752995740e-01,4.27840e-01,9.99999e-01,9.99999e-01,9.99950e-01,4.27861e-01,9.99999e-01
6.786760719e-01,4.35065e-01,9.99999e-01,9.99999e-01,9.99928e-01,4.35096e-01,9.99999e-01
6.820694522e-01,4.42254e-01,9.99999e-01,9.99999e-01,9.99878e-01,4.42307e-01,9.99999e-01
6.854797995e-01,4.49422e-01,9.99999e-01,9.99999e-01,9.99843e-01,4.49492e-01,9.99999e-01
6.889071985e-01,4.56474e-01,9.99999e-01,9.99999e-01,9.99618e-01,4.56648e-01,9.99999e-01
6.923517345e-01,4.60910e-01,9.99999e-01,9.99999e-01,9.93825e-01,4.63773e-01,9.99999e-01
6.958134932e-01,4.69371e-01,9.99999e-01,9.99999e-01,9.96826e-01,4.70866e-01,9.99999e-01
6.992925606e-01,4.76465e-01,9.99999e-01,9.99999e-01,9.96947e-01,4.77923e-01,9.99999e-01
7.027890234e-01,4.83126e-01,9.99999e-01,9.99999e-01,9.96250e-01,4.84944e-01,9.99999e-01
7.063029686e-01,4.90375e-01,9.99999e-01,9.99999e-01,9.96846e-01,4.91926e-01,9.99999e-01
7.098344834e-01,4.97359e-01,9.99999e-01,9.99999e-01,9.96974e-01,4.98868e-01,9.99999e-01
7.133836558e-01,5.03712e-01,9.99999e-01,9.99999e-01,9.95935e-01,5.05768e-01,9.99999e-01
7.169505741e-01,4.96097e-01,9.99999e-01,9.99999e-01,9.67759e-01,5.12624e-01,9.99999e-01
7.205353270e-01,5.11274e-01,9.99999e-01,9.99999e-01,9.84289e-01,5.19435e-01,9.99999e-01
7.241380036e-01,5.15623e-01,9.99999e-01,9.99999e-01,9.79901e-01,5.26199e-01,9.99999e-01
7.277586936e-01,5.23246e-01,9.99999e-01,9.99999e-01,9.81855e-01,5.32915e-01,9.99999e-01
7.313974871e-01,5.29226e-01,9.99999e-01,9.99999e-01,9.80807e-01,5.39582e-01,9.99999e-01
7.350544745e-01,5.40445e-01,9.99999e-01,9.99999e-01,9.89468e-01,5.46197e-01,9.99999e-01
7.387297469e-01,5.48477e-01,9.99999e-01,9.99999e-01,9.92248e-01,5.52761e-01,9.99999e-01
7.424233956e-01,5.57151e-01,9.99999e-01,9.99999e-01,9.96207e-01,5.59272e-01,9.99999e-01
7.461355126e-01,5.64427e-01,9.99999e-01,9.99999e-01,9.97698e-01,5.65729e-01,9.99999e-01
7.498661902e-01,5.71518e-01,9.99999e-01,9.99999e-01,9.98929e-01,5.72130e-01,9.99999e-01
7.536155211e-01,5.78171e-01,9.99999e-01,9.99999e-01,9.99473e-01,5.78475e-01,9.99999e-01
7.573835987e-01,5.84605e-01,9.99999e-01,9.99999e-01,9.99729e-01,5.84764e-01,9.99999e-01
7.611705167e-01,5.90895e-01,9.99999e-01,9.99999e-01,9.99831e-01,5.90994e-01,9.99999e-01
7.649763693e-01,5.97103e-01,9.99999e-01,9.99999e-01,9.99894e-01,5.97166e-01,9.99999e-01
7.688012511e-01,6.03234e-01,9.99999e-01,9.99999e-01,9.99926e-01,6.03278e-01,9.99999e-01
7.726452574e-01,6.09293e-01,9.99999e-01,9.99999e-01,9.99939e-01,6.09330e-01,9.99999e-01
7.765084837e-01,6.15269e-01,9.99999e-01,9.99999e-01,9.99913e-01,6.15322e-01,9.99999e-01
7.803910261e-01,6.06203e-01,9.99999e-01,9.76130e-01,9.99625e-01,6.21253e-01,9.99999e-01
7.842929812e-01,5.65980e-01,9.99999e-01,9.03644e-01,9.98695e-01,6.27121e-01,9.99999e-01
7.882144461e-01,5.65959e-01,9.99999e-01,8.96522e-01,9.97327e-01,6.32928e-01,9.99999e-01
7.921555184e-01,5.98764e-01,9.99999e-01,9.38863e-01,9.98538e-01,6.38672e-01,9.99999e-01
7.961162960e-01,6.16293e-01,9.99999e-01,9.58928e-01,9.97399e-01,6.44354e-01,9.99999e-01
8.000968774e-01,6.33453e-01,9.99999e-01,9.77503e-01,9.97007e-01,6.49972e-01,9.99999e-01
8.040973618e-01,6.45931e-01,9.99999e-01,9.88318e-01,9.97003e-01,6.55527e-01,9.99999e-01
8.081178486e-01,6.53005e-01,9.99999e-01,9.94608e-01,9.93225e-01,6.61018e-01,9.99999e-01
8.121584379e-01,6.46739e-01,9.99999e-01,9.98342e-01,9.72030e-01,6.66445e-01,9.99999e-01
8.162192301e-01,6.49441e-01,9.99999e-01,9.99633e-01,9.67055e-01,6.71809e-01,9.99999e-01
8.203003262e-01,6.65736e-01,9.99999e-01,9.99994e-01,9.83209e-01,6.77108e-01,9.99999e-01
8.244018279e-01,6.66596e-01,9.99999e-01,9.99999e-01,9.76921e-01,6.82343e-01,9.99999e-01
8.285238370e-01,6.73877e-01,9.99999e-01,9.99999e-01,9.80163e-01,6.87514e-01,9.99999e-01
8.326664562e-01,6.78763e-01,9.99999e-01,9.99999e-01,9.79991e-01,6.92621e-01,9.99999e-01
8.368297885e-01,6.87691e-01,9.99999e-01,9.99999e-01,9.85704e-01,6.97664e-01,9.99999e-01
8.410139374e-01,6.96663e-01,9.99999e-01,9.99999e-01,9.91489e-01,7.02643e-01,9.99999e-01
8.452190071e-01,7.04603e-01,9.99999e-01,9.99999e-01,9.95823e-01,7.07558e-01,9.99999e-01
8.494451021e-01,7.10679e-01,9.99999e-01,9.99999e-01,9.97570e-01,7.12409e-01,9.99999e-01
8.536923276e-01,7.16169e-01,9.99999e-01,9.99999e-01,9.98565e-01,7.17197e-01,9.99999e-01
8.579607893e-01,7.21283e-01,9.99999e-01,9.99999e-01,9.99114e-01,7.21922e-01,9.99999e-01
8.622505932e-01,7.26175e-01,9.99999e-01,9.99999e-01,9.99438e-01,7.26583e-01,9.99999e-01
8.665618462e-01,6.88034e-01,9.99999e-01,9.41305e-01,9.99651e-01,7.31181e-01,9.99999e-01
8.708946554e-01,5.66695e-01,9.99999e-01,7.70561e-01,9.99600e-01,7.35717e-01,9.99999e-01
8.752491287e-01,6.00998e-01,9.99999e-01,8.12374e-01,9.99466e-01,7.40191e-01,9.99999e-01
8.796253743e-01,6.64360e-01,9.99999e-01,8.92881e-01,9.99259e-01,7.44603e-01,9.99999e-01
8.840235012e-01,7.05763e-01,9.99999e-01,9.43121e-01,9.99154e-01,7.48953e-01,9.99999e-01
8.884436187e-01,7.33839e-01,9.99999e-01,9.77268e-01,9.96882e-01,7.53241e-01,9.99999e-01
8.928858368e-01,7.26297e-01,9.99999e-01,9.90726e-01,9.67768e-01,7.57469e-01,9.99999e-01
8.973502660e-01,7.17334e-01,9.99999e-01,9.97749e-01,9.43928e-01,7.61637e-01,9.99998e-01
9.018370173e-01,7.43432e-01,9.99999e-01,9.99751e-01,9.71097e-01,7.65744e-01,9.99998e-01
9.063462024e-01,7.45235e-01,9.99999e-01,9.93493e-01,9.74306e-01,7.69792e-01,9.99998e-01
9.108779334e-01,7.32307e-01,9.99999e-01,9.85378e-01,9.60328e-01,7.73780e-01,9.99998e-01
9.154323231e-01,7.40312e-01,9.99999e-01,9.96572e-01,9.55139e-01,7.77710e-01,9.99998e-01
9.200094847e-01,7.16755e-01,9.99999e-01,9.49359e-01,9.64723e-01,7.81582e-01,9.99998e-01
9.246095321e-01,6.90592e-01,9.99999e-01,9.30319e-01,9.44281e-01,7.85395e-01,9.99996e-01
9.292325798e-01,5.10580e-01,9.99999e-01,9.44431e-01,6.82048e-01,7.89152e-01,9.99994e-01
9.338787427e-01,4.60884e-01,9.99999e-01,9.46689e-01,6.11446e-01,7.92852e-01,9.99992e-01
9.385481364e-01,6.28828e-01,9.99999e-01,9.60586e-01,8.20556e-01,7.96495e-01,9.99992e-01
9.432408771e-01,5.91284e-01,9.99999e-01,9.75749e-01,7.56670e-01,8.00083e-01,9.99991e-01
9.479570815e-01,5.39176e-01,9.99999e-01,9.87470e-01,6.79109e-01,8.03615e-01,9.99992e-01
9.526968669e-01,6.02679e-01,9.99999e-01,9.93947e-01,7.50985e-01,8.07093e-01,9.99994e-01
9.574603512e-01,6.22764e-01,9.99999e-01,9.97409e-01,7.70259e-01,8.10517e-01,9.99995e-01
9.622476530e-01,6.58236e-01,9.99999e-01,9.99191e-01,8.09384e-01,8.13888e-01,9.99996e-01
9.670588912e-01,7.23293e-01,9.99999e-01,9.99757e-01,8.85289e-01,8.17205e-01,9.99997e-01
9.718941857e-01,7.60432e-01,9.99999e-01,9.99982e-01,9.26839e-01,8.20470e-01,9.99998e-01
9.767536566e-01,7.73346e-01,9.99999e-01,9.99999e-01,9.38887e-01,8.23683e-01,9.99998e-01
9.816374249e-01,7.89182e-01,9.99999e-01,9.99999e-01,9.54449e-01,8.26845e-01,9.99999e-01
9.865456120e-01,8.06150e-01,9.99999e-01,9.99999e-01,9.71316e-01,8.29956e-01,9.99999e-01
9.914783401e-01,8.18169e-01,9.99999e-01,9.99999e-01,9.82175e-01,8.33017e-01,9.99999e-01
9.964357318e-01,8.27884e-01,9.99999e-01,9.99999e-01,9.90257e-01,8.36029e-01,9.99999e-01
1.001417910e+00,8.34086e-01,9.99999e-01,9.99999e-01,9.94152e-01,8.38992e-01,9.99999e-01
1.006425000e+00,8.39094e-01,9.99999e-01,9.99999e-01,9.96659e-01,8.41906e-01,9.99999e-01
1.011457125e+00,8.43023e-01,9.99999e-01,9.99999e-01,9.97928e-01,8.44773e-01,9.99999e-01
1.016514411e+00,8.46399e-01,9.99999e-01,9.99999e-01,9.98592e-01,8.47592e-01,9.99999e-01
1.021596983e+00,8.49379e-01,9.99999e-01,9.99962e-01,9.98877e-01,8.50365e-01,9.99999e-01
1.026704968e+00,8.50180e-01,9.99999e-01,9.97458e-01,9.99124e-01,8.53092e-01,9.99999e-01
1.031838492e+00,8.25111e-01,9.99999e-01,9.64766e-01,9.99364e-01,8.55773e-01,9.99999e-01
1.036997685e+00,1.87723e-01,9.99999e-01,2.18755e-01,9.99621e-01,8.58410e-01,9.99999e-01
1.042182673e+00,2.01627e-01,9.99999e-01,2.34274e-01,9.99547e-01,8.61003e-01,9.99999e-01
1.047393587e+00,2.01523e-01,9.99999e-01,2.33491e-01,9.99401e-01,8.63552e-01,9.99999e-01
1.052630555e+00,1.62997e-02,9.99999e-01,1.88324e-02,9.99178e-01,8.66058e-01,9.99999e-01
1.057893707e+00,3.49232e-02,9.99999e-01,4.02508e-02,9.98626e-01,8.68521e-01,9.99999e-01
1.063183176e+00,8.31860e-02,9.99999e-01,9.56791e-02,9.97742e-01,8.70943e-01,9.99999e-01
1.068499092e+00,1.76530e-01,9.99999e-01,2.02812e-01,9.96224e-01,8.73323e-01,9.99999e-01
1.073841587e+00,3.19460e-01,9.99999e-01,3.66260e-01,9.95576e-01,8.75663e-01,9.99999e-01
1.079210795e+00,4.62809e-01,9.99999e-01,5.29952e-01,9.94346e-01,8.77962e-01,9.99999e-01
1.084606849e+00,6.16828e-01,9.99999e-01,7.06622e-01,9.91441e-01,8.80222e-01,9.99999e-01
1.090029883e+00,7.28103e-01,9.99999e-01,8.35202e-01,9.87676e-01,8.82443e-01,9.99999e-01
1.095480033e+00,7.82947e-01,9.99999e-01,9.15225e-01,9.66805e-01,8.84626e-01,9.99998e-01
1.100957433e+00,7.80021e-01,9.99999e-01,9.58246e-01,9.17674e-01,8.86771e-01,9.99998e-01
1.106462220e+00,7.01508e-01,9.99999e-01,9.82540e-01,8.02880e-01,8.88878e-01,9.99996e-01
1.111994531e+00,5.58230e-01,9.99999e-01,9.93494e-01,6.30457e-01,8.90948e-01,9.99993e-01
1.117554504e+00,4.22207e-01,9.99999e-01,9.98413e-01,4.73460e-01,8.92983e-01,9.99990e-01
1.123142276e+00,5.14923e-01,9.99999e-01,9.99895e-01,5.75387e-01,8.94982e-01,9.99988e-01
1.128757988e+00,6.30301e-01,9.99999e-01,9.99999e-01,7.02728e-01,8.96945e-01,9.99987e-01
1.134401778e+00,4.04278e-01,9.99999e-01,9.99999e-01,4.49766e-01,8.98874e-01,9.99986e-01
1.140073787e+00,7.30573e-01,9.99999e-01,9.99999e-01,8.11062e-01,9.00769e-01,9.99989e-01
1.145774156e+00,5.82508e-01,9.99999e-01,9.99999e-01,6.45351e-01,9.02630e-01,9.99990e-01
1.151503026e+00,5.54286e-01,9.99999e-01,9.99999e-01,6.12842e-01,9.04459e-01,9.99991e-01
1.157260541e+00,6.04444e-01,9.99999e-01,9.99999e-01,6.66973e-01,9.06254e-01,9.99993e-01
1.163046844e+00,6.73656e-01,9.99999e-01,9.99999e-01,7.41899e-01,9.08018e-01,9.99995e-01
1.168862078e+00,7.39833e-01,9.99999e-01,9.99999e-01,8.13227e-01,9.09750e-01,9.99997e-01
1.174706389e+00,8.02280e-01,9.99999e-01,9.99999e-01,8.80222e-01,9.11452e-01,9.99998e-01
1.180579921e+00,8.44928e-01,9.99999e-01,9.99999e-01,9.25317e-01,9.13122e-01,9.99998e-01
1.186482820e+00,8.75523e-01,9.99999e-01,9.99994e-01,9.57108e-01,9.14763e-01,9.99998e-01
1.192415234e+00,8.85146e-01,9.99999e-01,9.90882e-01,9.74741e-01,9.16374e-01,9.99999e-01
1.198377311e+00,5.15920e-01,9.99999e-01,5.72280e-01,9.78646e-01,9.17956e-01,9.99999e-01
1.204369197e+00,3.09555e-08,9.99999e-01,3.40641e-08,9.79784e-01,9.19510e-01,9.99999e-01
1.210391043e+00,5.96969e-28,9.99999e-01,6.55207e-28,9.80668e-01,9.21035e-01,9.99999e-01
1.216442998e+00,2.00388e-24,9.99999e-01,2.19456e-24,9.83552e-01,9.22533e-01,9.99999e-01
1.222525213e+00,4.44319e-24,9.99999e-01,4.84081e-24,9.87170e-01,9.24003e-01,9.99999e-01
1.228637839e+00,1.32044e-18,9.99999e-01,1.43584e-18,9.91072e-01,9.25447e-01,9.99999e-01
