#,Wave/freq,Total,O2,CO2,H2O,Rayleigh,CIA
4.000000000e-01,2.32774e-05,9.99999e-01,9.99999e-01,9.99978e-01,2.32779e-05,9.99999e-01
4.020000000e-01,2.87440e-05,9.99999e-01,9.99999e-01,9.99986e-01,2.87443e-05,9.99999e-01
4.040100000e-01,3.53390e-05,9.99999e-01,9.99999e-01,9.99994e-01,3.53392e-05,9.99999e-01
4.060300500e-01,4.32703e-05,9.99999e-01,9.99999e-01,9.99998e-01,4.32703e-05,9.99999e-01
4.080602003e-01,5.27699e-05,9.99999e-01,9.99999e-01,9.99999e-01,5.27699e-05,9.99999e-01
4.101005013e-01,6.41032e-05,9.99999e-01,9.99999e-01,9.99999e-01,6.41032e-05,9.99999e-01
4.121510038e-01,7.75718e-05,9.99999e-01,9.99999e-01,9.99998e-01,7.75719e-05,9.99999e-01
4.142117588e-01,9.35169e-05,9.99999e-01,9.99999e-01,9.99993e-01,9.35175e-05,9.99999e-01
4.162828176e-01,1.12322e-04,9.99999e-01,9.99999e-01,9.99973e-01,1.12325e-04,9.99999e-01
4.183642317e-01,1.34426e-04,9.99999e-01,9.99999e-01,9.99984e-01,1.34428e-04,9.99999e-01
4.204560528e-01,1.60309e-04,9.99999e-01,9.99999e-01,9.99990e-01,1.60311e-04,9.99999e-01
4.225583331e-01,1.90512e-04,9.99999e-01,9.99999e-01,9.99995e-01,1.90513e-04,9.99999e-01
4.246711247e-01,2.25633e-04,9.99999e-01,9.99999e-01,9.99996e-01,2.25634e-04,9.99999e-01
4.267944804e-01,2.66337e-04,9.99999e-01,9.99999e-01,9.99995e-01,2.66338e-04,9.99999e-01
4.289284528e-01,3.13357e-04,9.99999e-01,9.99999e-01,9.99996e-01,3.13358e-04,9.99999e-01
4.310730950e-01,3.67495e-04,9.99999e-01,9.99999e-01,9.99998e-01,3.67496e-04,9.99999e-01
4.332284605e-01,4.29632e-04,9.99999e-01,9.99999e-01,9.99999e-01,4.29632e-04,9.99999e-01
4.353946028e-01,5.00728e-04,9.99999e-01,9.99999e-01,9.99999e-01,5.00728e-04,9.99999e-01
4.375715758e-01,5.81824e-04,9.99999e-01,9.99999e-01,9.99996e-01,5.81825e-04,9.99999e-01
4.397594337e-01,6.74041e-04,9.99999e-01,9.99999e-01,9.99976e-01,6.74056e-04,9.99999e-01
4.419582309e-01,7.78551e-04,9.99999e-01,9.99999e-01,9.99884e-01,7.78641e-04,9.99999e-01
4.441680220e-01,8.96813e-04,9.99999e-01,9.99999e-01,9.99909e-01,8.96893e-04,9.99999e-01
4.463888621e-01,1.03013e-03,9.99999e-01,9.99999e-01,9.99905e-01,1.03022e-03,9.99999e-01
4.486208064e-01,1.18007e-03,9.99999e-01,9.99999e-01,9.99941e-01,1.18014e-03,9.99999e-01
4.508639105e-01,1.34821e-03,9.99999e-01,9.99999e-01,9.99972e-01,1.34825e-03,9.99999e-01
4.531182300e-01,1.53624e-03,9.99999e-01,9.99999e-01,9.99988e-01,1.53626e-03,9.99999e-01
4.553838212e-01,1.74597e-03,9.99999e-01,9.99999e-01,9.99992e-01,1.74598e-03,9.99999e-01
4.576607403e-01,1.97931e-03,9.99999e-01,9.99999e-01,9.99996e-01,1.97932e-03,9.99999e-01
4.599490440e-01,2.23828e-03,9.99999e-01,9.99999e-01,9.99997e-01,2.23829e-03,9.99999e-01
4.622487892e-01,2.52500e-03,9.99999e-01,9.99999e-01,9.99999e-01,2.52500e-03,9.99999e-01
4.645600332e-01,2.84166e-03,9.99999e-01,9.99999e-01,9.99997e-01,2.84167e-03,9.99999e-01
4.668828333e-01,3.19051e-03,9.99999e-01,9.99999e-01,9.99971e-01,3.19059e-03,9.99999e-01
4.692172475e-01,3.57397e-03,9.99999e-01,9.99999e-01,9.99940e-01,3.57418e-03,9.99999e-01
4.715633337e-01,3.99476e-03,9.99999e-01,9.99999e-01,9.99961e-01,3.99491e-03,9.99999e-01
4.739211504e-01,4.45520e-03,9.99999e-01,9.99999e-01,9.99962e-01,4.45536e-03,9.99999e-01
4.762907561e-01,4.95810e-03,9.99999e-01,9.99999e-01,9.99980e-01,4.95820e-03,9.99999e-01
4.786722099e-01,5.50609e-03,9.99999e-01,9.99999e-01,9.99991e-01,5.50613e-03,9.99999e-01
4.810655710e-01,6.10196e-03,9.99999e-01,9.99999e-01,9.99997e-01,6.10198e-03,9.99999e-01
4.834708988e-01,6.74844e-03,9.99999e-01,9.99999e-01,9.99977e-01,6.74859e-03,9.99999e-01
4.858882533e-01,7.44858e-03,9.99999e-01,9.99999e-01,9.99957e-01,7.44889e-03,9.99999e-01
4.883176946e-01,8.20555e-03,9.99999e-01,9.99999e-01,9.99964e-01,8.20584e-03,9.99999e-01
4.907592831e-01,9.02216e-03,9.99999e-01,9.99999e-01,9.99968e-01,9.02244e-03,9.99999e-01
4.932130795e-01,9.90152e-03,9.99999e-01,9.99999e-01,9.99977e-01,9.90174e-03,9.99999e-01
4.956791449e-01,1.08467e-02,9.99999e-01,9.99999e-01,9.99987e-01,1.08468e-02,9.99999e-01
4.981575406e-01,1.18600e-02,9.99999e-01,9.99999e-01,9.99940e-01,1.18607e-02,9.99999e-01
5.006483283e-01,1.29444e-02,9.99999e-01,9.99999e-01,9.99846e-01,1.29464e-02,9.99999e-01
5.031515699e-01,1.40962e-02,9.99999e-01,9.99999e-01,9.99223e-01,1.41072e-02,9.99999e-01
5.056673278e-01,1.53396e-02,9.99999e-01,9.99999e-01,9.99589e-01,1.53459e-02,9.99999e-01
5.081956644e-01,1.66571e-02,9.99999e-01,9.99999e-01,9.99482e-01,1.66657e-02,9.99999e-01
5.107366428e-01,1.80632e-02,9.99999e-01,9.99999e-01,9.99650e-01,1.80695e-02,9.99999e-01
5.132903260e-01,1.95565e-02,9.99999e-01,9.99999e-01,9.99800e-01,1.95604e-02,9.99999e-01
5.158567776e-01,2.11393e-02,9.99999e-01,9.99999e-01,9.99915e-01,2.11410e-02,9.99999e-01
5.184360615e-01,2.28136e-02,9.99999e-01,9.99999e-01,9.99965e-01,2.28144e-02,9.99999e-01
5.210282418e-01,2.45829e-02,9.99999e-01,9.99999e-01,9.99986e-01,2.45832e-02,9.99999e-01
5.236333830e-01,2.64488e-02,9.99999e-01,9.99999e-01,9.99948e-01,2.64501e-02,9.99999e-01
5.262515499e-01,2.84168e-02,9.99999e-01,9.99999e-01,9.99967e-01,2.84177e-02,9.99999e-01
5.288828077e-01,3.04875e-02,9.99999e-01,9.99999e-01,9.99970e-01,3.04884e-02,9.99999e-01
5.315272217e-01,3.26637e-02,9.99999e-01,9.99999e-01,9.99974e-01,3.26645e-02,9.99999e-01
5.341848578e-01,3.49478e-02,9.99999e-01,9.99999e-01,9.99982e-01,3.49484e-02,9.99999e-01
5.368557821e-01,3.73398e-02,9.99999e-01,9.99999e-01,9.99940e-01,3.73420e-02,9.99999e-01
5.395400610e-01,3.98390e-02,9.99999e-01,9.99999e-01,9.99786e-01,3.98474e-02,9.99999e-01
5.422377613e-01,4.24548e-02,9.99999e-01,9.99999e-01,9.99724e-01,4.24664e-02,9.99999e-01
5.449489501e-01,4.51892e-02,9.99999e-01,9.99999e-01,9.99743e-01,4.52007e-02,9.99999e-01
5.476736949e-01,4.80409e-02,9.99999e-01,9.99999e-01,9.99773e-01,4.80518e-02,9.99999e-01
5.504120634e-01,5.10126e-02,9.99999e-01,9.99999e-01,9.99835e-01,5.10210e-02,9.99999e-01
5.531641237e-01,5.41051e-02,9.99999e-01,9.99999e-01,9.99916e-01,5.41096e-02,9.99999e-01
5.559299443e-01,5.73163e-02,9.99999e-01,9.99999e-01,9.99959e-01,5.73185e-02,9.99999e-01
5.587095940e-01,6.06472e-02,9.99999e-01,9.99999e-01,9.99974e-01,6.06488e-02,9.99999e-01
5.615031420e-01,6.40991e-02,9.99999e-01,9.99999e-01,9.99971e-01,6.41009e-02,9.99999e-01
5.643106577e-01,6.76734e-02,9.99999e-01,9.99999e-01,9.99967e-01,6.76755e-02,9.99999e-01
5.671322110e-01,7.13455e-02,9.99999e-01,9.99999e-01,9.99615e-01,7.13729e-02,9.99999e-01
5.699678720e-01,7.51626e-02,9.99999e-01,9.99999e-01,9.99591e-01,7.51933e-02,9.99999e-01
5.728177114e-01,7.91029e-02,9.99999e-01,9.99999e-01,9.99574e-01,7.91366e-02,9.99999e-01
5.756818000e-01,8.31702e-02,9.99999e-01,9.99999e-01,9.99609e-01,8.32026e-02,9.99999e-01
5.785602090e-01,8.73613e-02,9.99999e-01,9.99999e-01,9.99659e-01,8.73911e-02,9.99999e-01
5.814530100e-01,9.16700e-02,9.99999e-01,9.99999e-01,9.99657e-01,9.17013e-02,9.99999e-01
5.843602750e-01,9.60936e-02,9.99999e-01,9.99999e-01,9.99592e-01,9.61327e-02,9.99999e-01
5.872820764e-01,1.00331e-01,9.99999e-01,9.99999e-01,9.96490e-01,1.00684e-01,9.99999e-01
5.902184868e-01,1.04908e-01,9.99999e-01,9.99999e-01,9.95750e-01,1.05355e-01,9.99999e-01
5.931695792e-01,1.09813e-01,9.99999e-01,9.99999e-01,9.96996e-01,1.10144e-01,9.99999e-01
5.961354271e-01,1.14671e-01,9.99999e-01,9.99999e-01,9.96707e-01,1.15049e-01,9.99999e-01
5.991161043e-01,1.19782e-01,9.99999e-01,9.99999e-01,9.97598e-01,1.20070e-01,9.99999e-01
6.021116848e-01,1.25033e-01,9.99999e-01,9.99999e-01,9.98636e-01,1.25204e-01,9.99999e-01
6.051222432e-01,1.30359e-01,9.99999e-01,9.99999e-01,9.99309e-01,1.30449e-01,9.99999e-01
6.081478544e-01,1.35764e-01,9.99999e-01,9.99999e-01,9.99702e-01,1.35805e-01,9.99999e-01
6.111885937e-01,1.41249e-01,9.99999e-01,9.99999e-01,9.99873e-01,1.41267e-01,9.99999e-01
6.142445367e-01,1.46827e-01,9.99999e-01,9.99999e-01,9.99943e-01,1.46835e-01,9.99999e-01
6.173157594e-01,1.52501e-01,9.99999e-01,9.99999e-01,9.99968e-01,1.52506e-01,9.99999e-01
6.204023382e-01,1.58273e-01,9.99999e-01,9.99999e-01,9.99973e-01,1.58278e-01,9.99999e-01
6.235043498e-01,1.64128e-01,9.99999e-01,9.99999e-01,9.99883e-01,1.64147e-01,9.99999e-01
6.266218716e-01,1.70008e-01,9.99999e-01,9.99999e-01,9.99387e-01,1.70112e-01,9.99999e-01
6.297549810e-01,1.76129e-01,9.99999e-01,9.99999e-01,9.99775e-01,1.76169e-01,9.99999e-01
6.329037559e-01,1.82235e-01,9.99999e-01,9.99999e-01,9.99556e-01,1.82316e-01,9.99999e-01
6.360682746e-01,1.88478e-01,9.99999e-01,9.99999e-01,9.99621e-01,1.88549e-01,9.99999e-01
6.392486160e-01,1.94771e-01,9.99999e-01,9.99999e-01,9.99510e-01,1.94866e-01,9.99999e-01
6.424448591e-01,2.01132e-01,9.99999e-01,9.99999e-01,9.99344e-01,2.01264e-01,9.99999e-01
6.456570834e-01,2.07108e-01,9.99999e-01,9.99999e-01,9.96959e-01,2.07739e-01,9.99999e-01
6.488853688e-01,2.13812e-01,9.99999e-01,9.99999e-01,9.97773e-01,2.14289e-01,9.99999e-01
6.521297956e-01,2.20408e-01,9.99999e-01,9.99999e-01,9.97730e-01,2.20909e-01,9.99999e-01
6.553904446e-01,2.27083e-01,9.99999e-01,9.99999e-01,9.97741e-01,2.27597e-01,9.99999e-01
6.586673968e-01,2.33896e-01,9.99999e-01,9.99999e-01,9.98065e-01,2.34350e-01,9.99999e-01
6.619607338e-01,2.40903e-01,9.99999e-01,9.99999e-01,9.98921e-01,2.41163e-01,9.99999e-01
6.652705375e-01,2.47874e-01,9.99999e-01,9.99999e-01,9.99352e-01,2.48034e-01,9.99999e-01
6.685968902e-01,2.54883e-01,9.99999e-01,9.99999e-01,9.99698e-01,2.54960e-01,9.99999e-01
6.719398746e-01,2.61900e-01,9.99999e-01,9.99999e-01,9.99860e-01,2.61936e-01,9.99999e-01
6.752995740e-01,2.68940e-01,9.99999e-01,9.99999e-01,9.99924e-01,2.68960e-01,9.99999e-01
6.786760719e-01,2.75998e-01,9.99999e-01,9.99999e-01,9.99890e-01,2.76028e-01,9.99999e-01
6.820694522e-01,2.83083e-01,9.99999e-01,9.99999e-01,9.99812e-01,2.83136e-01,9.99999e-01
6.854797995e-01,2.90212e-01,9.99999e-01,9.99999e-01,9.99758e-01,2.90282e-01,9.99999e-01
6.889071985e-01,2.97288e-01,9.99999e-01,9.99999e-01,9.99416e-01,2.97461e-01,9.99999e-01
6.923517345e-01,3.01779e-01,9.99999e-01,9.99999e-01,9.90507e-01,3.04671e-01,9.99999e-01
6.958134932e-01,3.10367e-01,9.99999e-01,9.99999e-01,9.95058e-01,3.11908e-01,9.99999e-01
6.992925606e-01,3.17670e-01,9.99999e-01,9.99999e-01,9.95301e-01,3.19169e-01,9.99999e-01
7.027890234e-01,3.24558e-01,9.99999e-01,9.99999e-01,9.94202e-01,3.26451e-01,9.99999e-01
7.063029686e-01,3.32123e-01,9.99999e-01,9.99999e-01,9.95124e-01,3.33750e-01,9.99999e-01
7.098344834e-01,3.39468e-01,9.99999e-01,9.99999e-01,9.95321e-01,3.41063e-01,9.99999e-01
7.133836558e-01,3.46215e-01,9.99999e-01,9.99999e-01,9.93764e-01,3.48387e-01,9.99999e-01
7.169505741e-01,3.38234e-01,9.99999e-01,9.99999e-01,9.50843e-01,3.55720e-01,9.99998e-01
7.205353270e-01,3.54223e-01,9.99999e-01,9.99999e-01,9.75667e-01,3.63057e-01,9.99998e-01
7.241380036e-01,3.58980e-01,9.99999e-01,9.99999e-01,9.69179e-01,3.70396e-01,9.99998e-01
7.277586936e-01,3.67213e-01,9.99999e-01,9.99999e-01,9.72147e-01,3.77734e-01,9.99998e-01
7.313974871e-01,3.73678e-01,9.99999e-01,9.99999e-01,9.70421e-01,3.85068e-01,9.99999e-01
7.350544745e-01,3.86016e-01,9.99999e-01,9.99999e-01,9.83741e-01,3.92396e-01,9.99999e-01
7.387297469e-01,3.94924e-01,9.99999e-01,9.99999e-01,9.88015e-01,3.99714e-01,9.99999e-01
7.424233956e-01,4.04627e-01,9.99999e-01,9.99999e-01,9.94121e-01,4.07020e-01,9.99999e-01
7.461355126e-01,4.12834e-01,9.99999e-01,9.99999e-01,9.96434e-01,4.14311e-01,9.99999e-01
7.498661902e-01,4.20885e-01,9.99999e-01,9.99999e-01,9.98338e-01,4.21585e-01,9.99999e-01
7.536155211e-01,4.28490e-01,9.99999e-01,9.99999e-01,9.99184e-01,4.28840e-01,9.99999e-01
7.573835987e-01,4.35889e-01,9.99999e-01,9.99999e-01,9.99580e-01,4.36072e-01,9.99999e-01
7.611705167e-01,4.43164e-01,9.99999e-01,9.99999e-01,9.99738e-01,4.43279e-01,9.99999e-01
7.649763693e-01,4.50387e-01,9.99999e-01,9.99999e-01,9.99836e-01,4.50460e-01,9.99999e-01
7.688012511e-01,4.57560e-01,9.99999e-01,9.99999e-01,9.99885e-01,4.57612e-01,9.99999e-01
7.726452574e-01,4.64690e-01,9.99999e-01,9.99999e-01,9.99905e-01,4.64733e-01,9.99999e-01
7.765084837e-01,4.71758e-01,9.99999e-01,9.99999e-01,9.99866e-01,4.71821e-01,9.99999e-01
7.803910261e-01,4.62023e-01,9.99999e-01,9.65349e-01,9.99424e-01,4.78874e-01,9.99999e-01
7.842929812e-01,4.15156e-01,9.99999e-01,8.56056e-01,9.97992e-01,4.85889e-01,9.99999e-01
7.882144461e-01,4.15631e-01,9.99999e-01,8.46648e-01,9.95869e-01,4.92866e-01,9.99999e-01
7.921555184e-01,4.52524e-01,9.99999e-01,9.07412e-01,9.97733e-01,4.99802e-01,9.99999e-01
7.961162960e-01,4.72915e-01,9.99999e-01,9.37045e-01,9.95995e-01,5.06696e-01,9.99999e-01
8.000968774e-01,4.93477e-01,9.99999e-01,9.65368e-01,9.95376e-01,5.13547e-01,9.99999e-01
8.040973618e-01,5.08582e-01,9.99999e-01,9.81914e-01,9.95374e-01,5.20351e-01,9.99999e-01
8.081178486e-01,5.17280e-01,9.99999e-01,9.91656e-01,9.89593e-01,5.27109e-01,9.99999e-01
8.121584379e-01,5.09710e-01,9.99999e-01,9.97417e-01,9.57284e-01,5.33818e-01,9.99998e-01
8.162192301e-01,5.12893e-01,9.99999e-01,9.99429e-01,9.49493e-01,5.40478e-01,9.99998e-01
8.203003262e-01,5.33124e-01,9.99999e-01,9.99991e-01,9.74484e-01,5.47087e-01,9.99998e-01
8.244018279e-01,5.34001e-01,9.99999e-01,9.99999e-01,9.64521e-01,5.53644e-01,9.99998e-01
8.285238370e-01,5.43098e-01,9.99999e-01,9.99999e-01,9.69562e-01,5.60147e-01,9.99998e-01
8.326664562e-01,5.49165e-01,9.99999e-01,9.99999e-01,9.69235e-01,5.66597e-01,9.99999e-01
8.368297885e-01,5.60352e-01,9.99999e-01,9.99999e-01,9.77943e-01,5.72990e-01,9.99999e-01
8.410139374e-01,5.71706e-01,9.99999e-01,9.99999e-01,9.86842e-01,5.79328e-01,9.99999e-01
8.452190071e-01,5.81820e-01,9.99999e-01,9.99999e-01,9.93529e-01,5.85609e-01,9.99999e-01
8.494451021e-01,5.89607e-01,9.99999e-01,9.99999e-01,9.96241e-01,5.91831e-01,9.99999e-01
8.536923276e-01,5.96666e-01,9.99999e-01,9.99999e-01,9.97776e-01,5.97995e-01,9.99999e-01
8.579607893e-01,6.03272e-01,9.99999e-01,9.99999e-01,9.98630e-01,6.04099e-01,9.99999e-01
8.622505932e-01,6.09612e-01,9.99999e-01,9.99999e-01,9.99129e-01,6.10143e-01,9.99999e-01
8.665618462e-01,5.69028e-01,9.99999e-01,9.24033e-01,9.99461e-01,6.16127e-01,9.99999e-01
8.708946554e-01,4.18938e-01,9.99999e-01,6.73881e-01,9.99383e-01,6.22049e-01,9.99999e-01
8.752491287e-01,4.56454e-01,9.99999e-01,7.27523e-01,9.99175e-01,6.27909e-01,9.99999e-01
8.796253743e-01,5.31483e-01,9.99999e-01,8.39617e-01,9.98858e-01,6.33708e-01,9.99999e-01
8.840235012e-01,5.83267e-01,9.99999e-01,9.13321e-01,9.98695e-01,6.39444e-01,9.99999e-01
8.884436187e-01,6.19548e-01,9.99999e-01,9.64909e-01,9.95243e-01,6.45116e-01,9.99999e-01
8.928858368e-01,6.09987e-01,9.99999e-01,9.85636e-01,9.50933e-01,6.50726e-01,9.99998e-01
8.973502660e-01,5.98315e-01,9.99999e-01,9.96495e-01,9.14826e-01,6.56272e-01,9.99998e-01
9.018370173e-01,6.32128e-01,9.99999e-01,9.99613e-01,9.55588e-01,6.61755e-01,9.99998e-01
9.063462024e-01,6.34875e-01,9.99999e-01,9.90096e-01,9.60802e-01,6.67173e-01,9.99998e-01
9.108779334e-01,6.17787e-01,9.99999e-01,9.77430e-01,9.39547e-01,6.72528e-01,9.99997e-01
9.154323231e-01,6.28173e-01,9.99999e-01,9.94660e-01,9.31623e-01,6.77819e-01,9.99997e-01
9.200094847e-01,5.99585e-01,9.99999e-01,9.25126e-01,9.46039e-01,6.83045e-01,9.99997e-01
9.246095321e-01,5.65419e-01,9.99999e-01,8.94274e-01,9.16828e-01,6.88208e-01,9.99995e-01
9.292325798e-01,3.59399e-01,9.99999e-01,9.16130e-01,5.60517e-01,6.93306e-01,9.99991e-01
9.338787427e-01,3.07134e-01,9.99999e-01,9.18837e-01,4.74295e-01,6.98340e-01,9.99988e-01
9.385481364e-01,4.90873e-01,9.99999e-01,9.39688e-01,7.40016e-01,7.03311e-01,9.99988e-01
9.432408771e-01,4.49860e-01,9.99999e-01,9.62641e-01,6.58438e-01,7.08217e-01,9.99987e-01
9.479570815e-01,3.93977e-01,9.99999e-01,9.80655e-01,5.62806e-01,7.13060e-01,9.99988e-01
9.526968669e-01,4.61910e-01,9.99999e-01,9.90628e-01,6.49012e-01,7.17839e-01,9.99991e-01
9.574603512e-01,4.82971e-01,9.99999e-01,9.95982e-01,6.70936e-01,7.22555e-01,9.99993e-01
9.622476530e-01,5.24768e-01,9.99999e-01,9.98745e-01,7.22474e-01,7.27208e-01,9.99995e-01
9.670588912e-01,6.06497e-01,9.99999e-01,9.99623e-01,8.29074e-01,7.31798e-01,9.99996e-01
9.718941857e-01,6.54818e-01,9.99999e-01,9.99973e-01,8.89328e-01,7.36325e-01,9.99997e-01
9.767536566e-01,6.72066e-01,9.99999e-01,9.99999e-01,9.07228e-01,7.40790e-01,9.99998e-01
9.816374249e-01,6.93326e-01,9.99999e-01,9.99999e-01,9.30397e-01,7.45194e-01,9.99998e-01
9.865456120e-01,7.16505e-01,9.99999e-01,9.99999e-01,9.55932e-01,7.49536e-01,9.99999e-01
9.914783401e-01,7.33110e-01,9.99999e-01,9.99999e-01,9.72531e-01,7.53816e-01,9.99999e-01
9.964357318e-01,7.46627e-01,9.99999e-01,9.99999e-01,9.84949e-01,7.58036e-01,9.99999e-01
1.001417910e+00,7.55301e-01,9.99999e-01,9.99999e-01,9.90954e-01,7.62195e-01,9.99999e-01
1.006425000e+00,7.62336e-01,9.99999e-01,9.99999e-01,9.94834e-01,7.66294e-01,9.99999e-01
1.011457125e+00,7.67863e-01,9.99999e-01,9.99999e-01,9.96791e-01,7.70334e-01,9.99999e-01
1.016514411e+00,7.72627e-01,9.99999e-01,9.99999e-01,9.97820e-01,7.74315e-01,9.99999e-01
1.021596983e+00,7.76844e-01,9.99999e-01,9.99946e-01,9.98263e-01,7.78236e-01,9.99999e-01
1.026704968e+00,7.78019e-01,9.99999e-01,9.96128e-01,9.98645e-01,7.82100e-01,9.99999e-01
1.031838492e+00,7.49517e-01,9.99999e-01,9.54607e-01,9.99015e-01,7.85906e-01,9.99999e-01
1.036997685e+00,1.17261e-01,9.99999e-01,1.48565e-01,9.99414e-01,7.89655e-01,9.99999e-01
1.042182673e+00,8.97614e-02,9.99999e-01,1.13212e-01,9.99302e-01,7.93347e-01,9.99999e-01
1.047393587e+00,1.07985e-01,9.99999e-01,1.35603e-01,9.99075e-01,7.96983e-01,9.99999e-01
1.052630555e+00,2.75101e-03,9.99999e-01,3.43952e-03,9.98730e-01,8.00563e-01,9.99999e-01
1.057893707e+00,7.12007e-03,9.99999e-01,8.86741e-03,9.97881e-01,8.04088e-01,9.99999e-01
1.063183176e+00,2.46165e-02,9.99999e-01,3.05583e-02,9.96516e-01,8.07559e-01,9.99999e-01
1.068499092e+00,7.10163e-02,9.99999e-01,8.79981e-02,9.94171e-01,8.10976e-01,9.99999e-01
1.073841587e+00,1.74177e-01,9.99999e-01,2.15134e-01,9.93180e-01,8.14339e-01,9.99999e-01
1.079210795e+00,3.06570e-01,9.99999e-01,3.77941e-01,9.91269e-01,8.17649e-01,9.99999e-01
1.084606849e+00,4.74305e-01,9.99999e-01,5.85136e-01,9.86810e-01,8.20907e-01,9.99999e-01
1.090029883e+00,6.12451e-01,9.99999e-01,7.57075e-01,9.81098e-01,8.24113e-01,9.99998e-01
1.095480033e+00,6.85115e-01,9.99999e-01,8.71867e-01,9.49328e-01,8.27268e-01,9.99998e-01
1.100957433e+00,6.81561e-01,9.99999e-01,9.36072e-01,8.76227e-01,8.30373e-01,9.99997e-01
1.106462220e+00,5.80707e-01,9.99999e-01,9.73054e-01,7.15348e-01,8.33427e-01,9.99994e-01
1.111994531e+00,4.10614e-01,9.99999e-01,9.89927e-01,4.95543e-01,8.36432e-01,9.99989e-01
1.117554504e+00,2.70062e-01,9.99999e-01,9.97532e-01,3.22385e-01,8.39388e-01,9.99985e-01
1.123142276e+00,3.69243e-01,9.99999e-01,9.99837e-01,4.38416e-01,8.42296e-01,9.99983e-01
1.128757988e+00,4.96083e-01,9.99999e-01,9.99999e-01,5.86981e-01,8.45156e-01,9.99981e-01
1.134401778e+00,2.78565e-01,9.99999e-01,9.99999e-01,3.28514e-01,8.47969e-01,9.99979e-01
1.140073787e+00,6.17961e-01,9.99999e-01,9.99999e-01,7.26395e-01,8.50736e-01,9.99983e-01
1.145774156e+00,4.40029e-01,9.99999e-01,9.99999e-01,5.15591e-01,8.53457e-01,9.99985e-01
1.151503026e+00,4.10005e-01,9.99999e-01,9.99999e-01,4.78910e-01,8.56132e-01,9.99987e-01
1.157260541e+00,4.62263e-01,9.99999e-01,9.99999e-01,5.38293e-01,8.58763e-01,9.99990e-01
1.163046844e+00,5.44651e-01,9.99999e-01,9.99999e-01,6.32326e-01,8.61350e-01,9.99993e-01
1.168862078e+00,6.27798e-01,9.99999e-01,9.99999e-01,7.26709e-01,8.63893e-01,9.99996e-01
1.174706389e+00,7.11453e-01,9.99999e-01,9.99999e-01,8.21167e-01,8.66393e-01,9.99998e-01
1.180579921e+00,7.70589e-01,9.99999e-01,9.99999e-01,8.86906e-01,8.68851e-01,9.99998e-01
1.186482820e+00,8.14122e-01,9.99999e-01,9.99992e-01,9.34418e-01,8.71267e-01,9.99998e-01
1.192415234e+00,8.28322e-01,9.99999e-01,9.86248e-01,9.61192e-01,8.73642e-01,9.99998e-01
1.198377311e+00,4.77585e-01,9.99999e-01,5.60616e-01,9.67190e-01,8.75976e-01,9.99998e-01
1.204369197e+00,1.65327e-11,9.99999e-01,1.91703e-11,9.68930e-01,8.78270e-01,9.99999e-01
1.210391043e+00,5.33484e-42,9.99999e-01,6.16105e-42,9.70267e-01,8.80525e-01,9.99999e-01
1.216442998e+00,1.51242e-36,9.99999e-01,1.74073e-36,9.74653e-01,8.82740e-01,9.99999e-01
1.222525213e+00,5.11116e-36,9.99999e-01,5.83557e-36,9.80212e-01,8.84918e-01,9.99999e-01
1.228637839e+00,6.71148e-28,9.99999e-01,7.63894e-28,9.86219e-01,8.87057e-01,9.99999e-01
