#,Wave/freq,Total,O2,CO2,H2O,Rayleigh,CIA
4.000000000e-01,8.63094e-15,9.99999e-01,9.99999e-01,9.99936e-01,8.63149e-15,9.99999e-01
4.020000000e-01,1.63737e-14,9.99999e-01,9.99999e-01,9.99960e-01,1.63744e-14,9.99999e-01
4.040100000e-01,3.06522e-14,9.99999e-01,9.99999e-01,9.99982e-01,3.06527e-14,9.99999e-01
4.060300500e-01,5.66752e-14,9.99999e-01,9.99999e-01,9.99995e-01,5.66754e-14,9.99999e-01
4.080602003e-01,1.03525e-13,9.99999e-01,9.99999e-01,9.99998e-01,1.03526e-13,9.99999e-01
4.101005013e-01,1.86867e-13,9.99999e-01,9.99999e-01,9.99999e-01,1.86867e-13,9.99999e-01
4.121510038e-01,3.33388e-13,9.99999e-01,9.99999e-01,9.99997e-01,3.33389e-13,9.99999e-01
4.142117588e-01,5.88026e-13,9.99999e-01,9.99999e-01,9.99981e-01,5.88036e-13,9.99999e-01
4.162828176e-01,1.02554e-12,9.99999e-01,9.99999e-01,9.99921e-01,1.02563e-12,9.99999e-01
4.183642317e-01,1.76922e-12,9.99999e-01,9.99999e-01,9.99952e-01,1.76930e-12,9.99999e-01
4.204560528e-01,3.01942e-12,9.99999e-01,9.99999e-01,9.99971e-01,3.01951e-12,9.99999e-01
4.225583331e-01,5.09896e-12,9.99999e-01,9.99999e-01,9.99988e-01,5.09901e-12,9.99999e-01
4.246711247e-01,8.52192e-12,9.99999e-01,9.99999e-01,9.99990e-01,8.52200e-12,9.99999e-01
4.267944804e-01,1.40989e-11,9.99999e-01,9.99999e-01,9.99987e-01,1.40991e-11,9.99999e-01
4.289284528e-01,2.30949e-11,9.99999e-01,9.99999e-01,9.99989e-01,2.30952e-11,9.99999e-01
4.310730950e-01,3.74642e-11,9.99999e-01,9.99999e-01,9.99995e-01,3.74643e-11,9.99999e-01
4.332284605e-01,6.01955e-11,9.99999e-01,9.99999e-01,9.99998e-01,6.01956e-11,9.99999e-01
4.353946028e-01,9.58172e-11,9.99999e-01,9.99999e-01,9.99999e-01,9.58172e-11,9.99999e-01
4.375715758e-01,1.51123e-10,9.99999e-01,9.99999e-01,9.99991e-01,1.51125e-10,9.99999e-01
4.397594337e-01,2.36204e-10,9.99999e-01,9.99999e-01,9.99930e-01,2.36220e-10,9.99999e-01
4.419582309e-01,3.65860e-10,9.99999e-01,9.99999e-01,9.99645e-01,3.65989e-10,9.99999e-01
4.441680220e-01,5.62011e-10,9.99999e-01,9.99999e-01,9.99727e-01,5.62164e-10,9.99999e-01
4.463888621e-01,8.55959e-10,9.99999e-01,9.99999e-01,9.99715e-01,8.56202e-10,9.99999e-01
4.486208064e-01,1.29302e-09,9.99999e-01,9.99999e-01,9.99823e-01,1.29324e-09,9.99999e-01
4.508639105e-01,1.93736e-09,9.99999e-01,9.99999e-01,9.99917e-01,1.93752e-09,9.99999e-01
4.531182300e-01,2.87959e-09,9.99999e-01,9.99999e-01,9.99967e-01,2.87969e-09,9.99999e-01
4.553838212e-01,4.24653e-09,9.99999e-01,9.99999e-01,9.99977e-01,4.24663e-09,9.99999e-01
4.576607403e-01,6.21451e-09,9.99999e-01,9.99999e-01,9.99989e-01,6.21457e-09,9.99999e-01
4.599490440e-01,9.02627e-09,9.99999e-01,9.99999e-01,9.99992e-01,9.02634e-09,9.99999e-01
4.622487892e-01,1.30140e-08,9.99999e-01,9.99999e-01,9.99998e-01,1.30140e-08,9.99999e-01
4.645600332e-01,1.86281e-08,9.99999e-01,9.99999e-01,9.99994e-01,1.86282e-08,9.99999e-01
4.668828333e-01,2.64738e-08,9.99999e-01,9.99999e-01,9.99915e-01,2.64761e-08,9.99999e-01
4.692172475e-01,3.73631e-08,9.99999e-01,9.99999e-01,9.99821e-01,3.73698e-08,9.99999e-01
4.715633337e-01,5.23819e-08,9.99999e-01,9.99999e-01,9.99882e-01,5.23880e-08,9.99999e-01
4.739211504e-01,7.29452e-08,9.99999e-01,9.99999e-01,9.99888e-01,7.29533e-08,9.99999e-01
4.762907561e-01,1.00924e-07,9.99999e-01,9.99999e-01,9.99941e-01,1.00929e-07,9.99999e-01
4.786722099e-01,1.38738e-07,9.99999e-01,9.99999e-01,9.99975e-01,1.38741e-07,9.99999e-01
4.810655710e-01,1.89523e-07,9.99999e-01,9.99999e-01,9.99992e-01,1.89524e-07,9.99999e-01
4.834708988e-01,2.57286e-07,9.99999e-01,9.99999e-01,9.99930e-01,2.57304e-07,9.99999e-01
4.858882533e-01,3.47178e-07,9.99999e-01,9.99999e-01,9.99873e-01,3.47222e-07,9.99999e-01
4.883176946e-01,4.65747e-07,9.99999e-01,9.99999e-01,9.99893e-01,4.65796e-07,9.99999e-01
4.907592831e-01,6.21188e-07,9.99999e-01,9.99999e-01,9.99904e-01,6.21247e-07,9.99999e-01
4.932130795e-01,8.23822e-07,9.99999e-01,9.99999e-01,9.99931e-01,8.23878e-07,9.99999e-01
4.956791449e-01,1.08649e-06,9.99999e-01,9.99999e-01,9.99963e-01,1.08653e-06,9.99999e-01
4.981575406e-01,1.42484e-06,9.99999e-01,9.99999e-01,9.99819e-01,1.42509e-06,9.99999e-01
5.006483283e-01,1.85830e-06,9.99999e-01,9.99999e-01,9.99531e-01,1.85917e-06,9.99999e-01
5.031515699e-01,2.40707e-06,9.99999e-01,9.99999e-01,9.97641e-01,2.41276e-06,9.99999e-01
5.056673278e-01,3.11124e-06,9.99999e-01,9.99999e-01,9.98757e-01,3.11511e-06,9.99999e-01
5.081956644e-01,3.99540e-06,9.99999e-01,9.99999e-01,9.98433e-01,4.00167e-06,9.99999e-01
5.107366428e-01,5.10976e-06,9.99999e-01,9.99999e-01,9.98942e-01,5.11517e-06,9.99999e-01
5.132903260e-01,6.50296e-06,9.99999e-01,9.99999e-01,9.99396e-01,6.50688e-06,9.99999e-01
5.158567776e-01,8.23590e-06,9.99999e-01,9.99999e-01,9.99744e-01,8.23800e-06,9.99999e-01
5.184360615e-01,1.03801e-05,9.99999e-01,9.99999e-01,9.99897e-01,1.03812e-05,9.99999e-01
5.210282418e-01,1.30218e-05,9.99999e-01,9.99999e-01,9.99961e-01,1.30223e-05,9.99999e-01
5.236333830e-01,1.62599e-05,9.99999e-01,9.99999e-01,9.99846e-01,1.62624e-05,9.99999e-01
5.262515499e-01,2.02178e-05,9.99999e-01,9.99999e-01,9.99903e-01,2.02198e-05,9.99999e-01
5.288828077e-01,2.50300e-05,9.99999e-01,9.99999e-01,9.99911e-01,2.50322e-05,9.99999e-01
5.315272217e-01,3.08572e-05,9.99999e-01,9.99999e-01,9.99922e-01,3.08596e-05,9.99999e-01
5.341848578e-01,3.78847e-05,9.99999e-01,9.99999e-01,9.99948e-01,3.78866e-05,9.99999e-01
5.368557821e-01,4.63173e-05,9.99999e-01,9.99999e-01,9.99820e-01,4.63256e-05,9.99999e-01
5.395400610e-01,5.63832e-05,9.99999e-01,9.99999e-01,9.99349e-01,5.64199e-05,9.99999e-01
5.422377613e-01,6.83897e-05,9.99999e-01,9.99999e-01,9.99167e-01,6.84466e-05,9.99999e-01
5.449489501e-01,8.26563e-05,9.99999e-01,9.99999e-01,9.99221e-01,8.27207e-05,9.99999e-01
5.476736949e-01,9.95299e-05,9.99999e-01,9.99999e-01,9.99314e-01,9.95982e-05,9.99999e-01
5.504120634e-01,1.19421e-04,9.99999e-01,9.99999e-01,9.99502e-01,1.19480e-04,9.99999e-01
5.531641237e-01,1.42781e-04,9.99999e-01,9.99999e-01,9.99749e-01,1.42817e-04,9.99999e-01
5.559299443e-01,1.70090e-04,9.99999e-01,9.99999e-01,9.99878e-01,1.70111e-04,9.99999e-01
5.587095940e-01,2.01907e-04,9.99999e-01,9.99999e-01,9.99923e-01,2.01922e-04,9.99999e-01
5.615031420e-01,2.38852e-04,9.99999e-01,9.99999e-01,9.99915e-01,2.38872e-04,9.99999e-01
5.643106577e-01,2.81620e-04,9.99999e-01,9.99999e-01,9.99902e-01,2.81647e-04,9.99999e-01
5.671322110e-01,3.30613e-04,9.99999e-01,9.99999e-01,9.98819e-01,3.31004e-04,9.99999e-01
5.699678720e-01,3.87293e-04,9.99999e-01,9.99999e-01,9.98768e-01,3.87771e-04,9.99999e-01
5.728177114e-01,4.52270e-04,9.99999e-01,9.99999e-01,9.98707e-01,4.52855e-04,9.99999e-01
5.756818000e-01,5.26620e-04,9.99999e-01,9.99999e-01,9.98815e-01,5.27244e-04,9.99999e-01
5.785602090e-01,6.11382e-04,9.99999e-01,9.99999e-01,9.98969e-01,6.12013e-04,9.99999e-01
5.814530100e-01,7.07586e-04,9.99999e-01,9.99999e-01,9.98962e-01,7.08321e-04,9.99999e-01
5.843602750e-01,8.16406e-04,9.99999e-01,9.99999e-01,9.98757e-01,8.17421e-04,9.99999e-01
5.872820764e-01,9.30646e-04,9.99999e-01,9.99999e-01,9.89354e-01,9.40660e-04,9.99999e-01
5.902184868e-01,1.06564e-03,9.99999e-01,9.99999e-01,9.87178e-01,1.07948e-03,9.99999e-01
5.931695792e-01,1.22420e-03,9.99999e-01,9.99999e-01,9.90915e-01,1.23542e-03,9.99999e-01
5.961354271e-01,1.39611e-03,9.99999e-01,9.99999e-01,9.90055e-01,1.41013e-03,9.99999e-01
5.991161043e-01,1.59370e-03,9.99999e-01,9.99999e-01,9.92741e-01,1.60535e-03,9.99999e-01
6.021116848e-01,1.81540e-03,9.99999e-01,9.99999e-01,9.95879e-01,1.82291e-03,9.99999e-01
6.051222432e-01,2.06047e-03,9.99999e-01,9.99999e-01,9.97913e-01,2.06477e-03,9.99999e-01
6.081478544e-01,2.33088e-03,9.99999e-01,9.99999e-01,9.99098e-01,2.33298e-03,9.99999e-01
6.111885937e-01,2.62867e-03,9.99999e-01,9.99999e-01,9.99619e-01,2.62967e-03,9.99999e-01
6.142445367e-01,2.95658e-03,9.99999e-01,9.99999e-01,9.99829e-01,2.95709e-03,9.99999e-01
6.173157594e-01,3.31726e-03,9.99999e-01,9.99999e-01,9.99905e-01,3.31758e-03,9.99999e-01
6.204023382e-01,3.71327e-03,9.99999e-01,9.99999e-01,9.99919e-01,3.71356e-03,9.99999e-01
6.235043498e-01,4.14610e-03,9.99999e-01,9.99999e-01,9.99644e-01,4.14757e-03,9.99999e-01
6.266218716e-01,4.61361e-03,9.99999e-01,9.99999e-01,9.98143e-01,4.62219e-03,9.99999e-01
6.297549810e-01,5.13662e-03,9.99999e-01,9.99999e-01,9.99318e-01,5.14012e-03,9.99999e-01
6.329037559e-01,5.69643e-03,9.99999e-01,9.99999e-01,9.98656e-01,5.70410e-03,9.99999e-01
6.360682746e-01,6.30971e-03,9.99999e-01,9.99999e-01,9.98852e-01,6.31695e-03,9.99999e-01
6.392486160e-01,6.97121e-03,9.99999e-01,9.99999e-01,9.98514e-01,6.98157e-03,9.99999e-01
6.424448591e-01,7.68549e-03,9.99999e-01,9.99999e-01,9.98001e-01,7.70088e-03,9.99999e-01
6.456570834e-01,8.39951e-03,9.99999e-01,9.99999e-01,9.90757e-01,8.47786e-03,9.99999e-01
6.488853688e-01,9.25292e-03,9.99999e-01,9.99999e-01,9.93277e-01,9.31554e-03,9.99999e-01
6.521297956e-01,1.01470e-02,9.99999e-01,9.99999e-01,9.93150e-01,1.02169e-02,9.99999e-01
6.553904446e-01,1.11086e-02,9.99999e-01,9.99999e-01,9.93154e-01,1.11852e-02,9.99999e-01
6.586673968e-01,1.21518e-02,9.99999e-01,9.99999e-01,9.94153e-01,1.22232e-02,9.99999e-01
6.619607338e-01,1.32908e-02,9.99999e-01,9.99999e-01,9.96738e-01,1.33343e-02,9.99999e-01
6.652705375e-01,1.44929e-02,9.99999e-01,9.99999e-01,9.98041e-01,1.45213e-02,9.99999e-01
6.685968902e-01,1.57743e-02,9.99999e-01,9.99999e-01,9.99167e-01,1.57874e-02,9.99999e-01
6.719398746e-01,1.71283e-02,9.99999e-01,9.99999e-01,9.99578e-01,1.71356e-02,9.99999e-01
6.752995740e-01,1.85646e-02,9.99999e-01,9.99999e-01,9.99777e-01,1.85688e-02,9.99999e-01
6.786760719e-01,2.00833e-02,9.99999e-01,9.99999e-01,9.99666e-01,2.00899e-02,9.99999e-01
6.820694522e-01,2.16897e-02,9.99999e-01,9.99999e-01,9.99432e-01,2.17020e-02,9.99999e-01
6.854797995e-01,2.33905e-02,9.99999e-01,9.99999e-01,9.99268e-01,2.34076e-02,9.99999e-01
6.889071985e-01,2.51646e-02,9.99999e-01,9.99999e-01,9.98212e-01,2.52096e-02,9.99999e-01
6.923517345e-01,2.63354e-02,9.99999e-01,9.99999e-01,9.71405e-01,2.71106e-02,9.99999e-01
6.958134932e-01,2.86837e-02,9.99999e-01,9.99999e-01,9.85248e-01,2.91131e-02,9.99999e-01
6.992925606e-01,3.07752e-02,9.99999e-01,9.99999e-01,9.85766e-01,3.12196e-02,9.99999e-01
7.027890234e-01,3.28487e-02,9.99999e-01,9.99999e-01,9.82545e-01,3.34323e-02,9.99999e-01
7.063029686e-01,3.52275e-02,9.99999e-01,9.99999e-01,9.85289e-01,3.57534e-02,9.99999e-01
7.098344834e-01,3.76458e-02,9.99999e-01,9.99999e-01,9.85879e-01,3.81850e-02,9.99999e-01
7.133836558e-01,3.99592e-02,9.99999e-01,9.99999e-01,9.81099e-01,4.07290e-02,9.99998e-01
7.169505741e-01,3.72921e-02,9.99999e-01,9.99999e-01,8.59518e-01,4.33872e-02,9.99997e-01
7.205353270e-01,4.28932e-02,9.99999e-01,9.99999e-01,9.29205e-01,4.61612e-02,9.99997e-01
7.241380036e-01,4.46335e-02,9.99999e-01,9.99999e-01,9.09913e-01,4.90525e-02,9.99997e-01
7.277586936e-01,4.78147e-02,9.99999e-01,9.99999e-01,9.18414e-01,5.20623e-02,9.99997e-01
7.313974871e-01,5.04228e-02,9.99999e-01,9.99999e-01,9.13591e-01,5.51919e-02,9.99998e-01
7.350544745e-01,5.56200e-02,9.99999e-01,9.99999e-01,9.51709e-01,5.84422e-02,9.99998e-01
7.387297469e-01,5.96014e-02,9.99999e-01,9.99999e-01,9.64204e-01,6.18140e-02,9.99999e-01
7.424233956e-01,6.41547e-02,9.99999e-01,9.99999e-01,9.82340e-01,6.53079e-02,9.99999e-01
7.461355126e-01,6.81835e-02,9.99999e-01,9.99999e-01,9.89249e-01,6.89244e-02,9.99999e-01
7.498661902e-01,7.22999e-02,9.99999e-01,9.99999e-01,9.94990e-01,7.26638e-02,9.99999e-01
7.536155211e-01,7.63376e-02,9.99999e-01,9.99999e-01,9.97535e-01,7.65262e-02,9.99999e-01
7.573835987e-01,8.04093e-02,9.99999e-01,9.99999e-01,9.98730e-01,8.05114e-02,9.99999e-01
7.611705167e-01,8.45526e-02,9.99999e-01,9.99999e-01,9.99210e-01,8.46193e-02,9.99999e-01
7.649763693e-01,8.88055e-02,9.99999e-01,9.99999e-01,9.99504e-01,8.88494e-02,9.99999e-01
7.688012511e-01,9.31690e-02,9.99999e-01,9.99999e-01,9.99654e-01,9.32012e-02,9.99999e-01
7.726452574e-01,9.76460e-02,9.99999e-01,9.99999e-01,9.99715e-01,9.76737e-02,9.99999e-01
7.765084837e-01,1.02225e-01,9.99999e-01,9.99999e-01,9.99594e-01,1.02266e-01,9.99999e-01
7.803910261e-01,9.73139e-02,9.99999e-01,9.11135e-01,9.98246e-01,1.06977e-01,9.99999e-01
7.842929812e-01,7.12730e-02,9.99999e-01,6.40913e-01,9.93890e-01,1.11806e-01,9.99999e-01
7.882144461e-01,7.20316e-02,9.99999e-01,6.23971e-01,9.87521e-01,1.16751e-01,9.99999e-01
7.921555184e-01,9.05514e-02,9.99999e-01,7.48157e-01,9.93164e-01,1.21811e-01,9.99999e-01
7.961162960e-01,1.03197e-01,9.99999e-01,8.22409e-01,9.87858e-01,1.26983e-01,9.99999e-01
8.000968774e-01,1.17284e-01,9.99999e-01,8.99176e-01,9.86031e-01,1.32266e-01,9.99999e-01
8.040973618e-01,1.28481e-01,9.99999e-01,9.46487e-01,9.86017e-01,1.37658e-01,9.99999e-01
8.081178486e-01,1.35221e-01,9.99999e-01,9.74975e-01,9.68676e-01,1.43157e-01,9.99998e-01
8.121584379e-01,1.29409e-01,9.99999e-01,9.92257e-01,8.76497e-01,1.48761e-01,9.99997e-01
8.162192301e-01,1.32053e-01,9.99999e-01,9.98284e-01,8.56288e-01,1.54466e-01,9.99997e-01
8.203003262e-01,1.48399e-01,9.99999e-01,9.99975e-01,9.25938e-01,1.60271e-01,9.99997e-01
8.244018279e-01,1.49602e-01,9.99999e-01,9.99999e-01,9.00280e-01,1.66173e-01,9.99997e-01
8.285238370e-01,1.56825e-01,9.99999e-01,9.99999e-01,9.10871e-01,1.72170e-01,9.99997e-01
8.326664562e-01,1.62269e-01,9.99999e-01,9.99999e-01,9.10302e-01,1.78258e-01,9.99998e-01
8.368297885e-01,1.72426e-01,9.99999e-01,9.99999e-01,9.34890e-01,1.84435e-01,9.99998e-01
8.410139374e-01,1.83215e-01,9.99999e-01,9.99999e-01,9.60765e-01,1.90697e-01,9.99999e-01
8.452190071e-01,1.93214e-01,9.99999e-01,9.99999e-01,9.80569e-01,1.97042e-01,9.99999e-01
8.494451021e-01,2.01158e-01,9.99999e-01,9.99999e-01,9.88651e-01,2.03467e-01,9.99999e-01
8.536923276e-01,2.08559e-01,9.99999e-01,9.99999e-01,9.93289e-01,2.09968e-01,9.99999e-01
8.579607893e-01,2.15644e-01,9.99999e-01,9.99999e-01,9.95854e-01,2.16542e-01,9.99999e-01
8.622505932e-01,2.22599e-01,9.99999e-01,9.99999e-01,9.97368e-01,2.23186e-01,9.99999e-01
8.665618462e-01,1.98722e-01,9.99999e-01,8.65716e-01,9.98367e-01,2.29896e-01,9.99999e-01
8.708946554e-01,7.88454e-02,9.99999e-01,3.33716e-01,9.98128e-01,2.36670e-01,9.99999e-01
8.752491287e-01,9.75407e-02,9.99999e-01,4.01506e-01,9.97498e-01,2.43504e-01,9.99999e-01
8.796253743e-01,1.49400e-01,9.99999e-01,5.98571e-01,9.96530e-01,2.50394e-01,9.99999e-01
8.840235012e-01,1.95492e-01,9.99999e-01,7.62559e-01,9.96039e-01,2.57337e-01,9.99999e-01
8.884436187e-01,2.34114e-01,9.99999e-01,8.98333e-01,9.85504e-01,2.64330e-01,9.99998e-01
8.928858368e-01,2.23552e-01,9.99999e-01,9.57313e-01,8.59520e-01,2.71369e-01,9.99997e-01
8.973502660e-01,2.11515e-01,9.99999e-01,9.89499e-01,7.67187e-01,2.78451e-01,9.99996e-01
9.018370173e-01,2.49351e-01,9.99999e-01,9.98839e-01,8.74088e-01,2.85572e-01,9.99995e-01
9.063462024e-01,2.52640e-01,9.99999e-01,9.70472e-01,8.86845e-01,2.92730e-01,9.99995e-01
9.108779334e-01,2.32909e-01,9.99999e-01,9.33501e-01,8.29867e-01,2.99920e-01,9.99994e-01
9.154323231e-01,2.44698e-01,9.99999e-01,9.84080e-01,8.08782e-01,3.07140e-01,9.99994e-01
9.200094847e-01,2.21128e-01,9.99999e-01,8.12192e-01,8.47505e-01,3.14386e-01,9.99992e-01
9.246095321e-01,1.81080e-01,9.99999e-01,7.15313e-01,7.75849e-01,3.21654e-01,9.99987e-01
9.292325798e-01,5.47421e-02,9.99999e-01,7.71360e-01,2.03944e-01,3.28942e-01,9.99973e-01
9.338787427e-01,3.57189e-02,9.99999e-01,7.76963e-01,1.29879e-01,3.36246e-01,9.99966e-01
9.385481364e-01,1.27230e-01,9.99999e-01,8.29442e-01,4.35427e-01,3.43563e-01,9.99966e-01
9.432408771e-01,1.03434e-01,9.99999e-01,8.91451e-01,3.25916e-01,3.50891e-01,9.99962e-01
9.479570815e-01,7.24143e-02,9.99999e-01,9.42614e-01,2.12906e-01,3.58225e-01,9.99967e-01
9.526968669e-01,1.08123e-01,9.99999e-01,9.71974e-01,3.02707e-01,3.65563e-01,9.99975e-01
9.574603512e-01,1.18234e-01,9.99999e-01,9.87914e-01,3.20283e-01,3.72902e-01,9.99981e-01
9.622476530e-01,1.48025e-01,9.99999e-01,9.96217e-01,3.90539e-01,3.80239e-01,9.99987e-01
9.670588912e-01,2.23908e-01,9.99999e-01,9.98866e-01,5.78287e-01,3.87572e-01,9.99991e-01
9.718941857e-01,2.77925e-01,9.99999e-01,9.99920e-01,7.03840e-01,3.94896e-01,9.99994e-01
9.767536566e-01,3.00341e-01,9.99999e-01,9.99999e-01,7.46727e-01,4.02211e-01,9.99996e-01
9.816374249e-01,3.29601e-01,9.99999e-01,9.99999e-01,8.04865e-01,4.09512e-01,9.99997e-01
9.865456120e-01,3.63804e-01,9.99999e-01,9.99999e-01,8.72856e-01,4.16798e-01,9.99998e-01
9.914783401e-01,3.89798e-01,9.99999e-01,9.99999e-01,9.19194e-01,4.24065e-01,9.99999e-01
9.964357318e-01,4.11969e-01,9.99999e-01,9.99999e-01,9.55152e-01,4.31312e-01,9.99999e-01
1.001417910e+00,4.26638e-01,9.99999e-01,9.99999e-01,9.72868e-01,4.38536e-01,9.99999e-01
1.006425000e+00,4.38790e-01,9.99999e-01,9.99999e-01,9.84419e-01,4.45735e-01,9.99999e-01
1.011457125e+00,4.48522e-01,9.99999e-01,9.99999e-01,9.90318e-01,4.52906e-01,9.99999e-01
1.016514411e+00,4.57017e-01,9.99999e-01,9.99999e-01,9.93411e-01,4.60048e-01,9.99999e-01
1.021596983e+00,4.64621e-01,9.99999e-01,9.99823e-01,9.94744e-01,4.67158e-01,9.99999e-01
1.026704968e+00,4.66723e-01,9.99999e-01,9.88199e-01,9.95897e-01,4.74234e-01,9.99999e-01
1.031838492e+00,4.32989e-01,9.99999e-01,9.02208e-01,9.97021e-01,4.81274e-01,9.99999e-01
1.036997685e+00,2.45452e-02,9.99999e-01,5.03363e-02,9.98227e-01,4.88277e-01,9.99999e-01
1.042182673e+00,1.74390e-03,9.99999e-01,3.52705e-03,9.97881e-01,4.95240e-01,9.99999e-01
1.047393587e+00,4.44712e-03,9.99999e-01,8.87664e-03,9.97194e-01,5.02162e-01,9.99999e-01
1.052630555e+00,5.37810e-07,9.99999e-01,1.05909e-06,9.96148e-01,5.09041e-01,9.99999e-01
1.057893707e+00,2.05466e-06,9.99999e-01,3.99621e-06,9.93572e-01,5.15876e-01,9.99999e-01
1.063183176e+00,5.23824e-05,9.99999e-01,1.00836e-04,9.89452e-01,5.22664e-01,9.99999e-01
1.068499092e+00,5.16879e-04,9.99999e-01,9.87885e-04,9.82419e-01,5.29406e-01,9.99999e-01
1.073841587e+00,6.13784e-03,9.99999e-01,1.16215e-02,9.79447e-01,5.36099e-01,9.99999e-01
1.079210795e+00,3.24534e-02,9.99999e-01,6.10576e-02,9.73779e-01,5.42741e-01,9.99998e-01
1.084606849e+00,1.08550e-01,9.99999e-01,2.04725e-01,9.60559e-01,5.49332e-01,9.99998e-01
1.090029883e+00,2.29463e-01,9.99999e-01,4.35412e-01,9.43711e-01,5.55871e-01,9.99997e-01
1.095480033e+00,3.20109e-01,9.99999e-01,6.62982e-01,8.54258e-01,5.62356e-01,9.99995e-01
1.100957433e+00,3.15536e-01,9.99999e-01,8.19438e-01,6.72781e-01,5.68787e-01,9.99992e-01
1.106462220e+00,2.01696e-01,9.99999e-01,9.20896e-01,3.77817e-01,5.75161e-01,9.99984e-01
1.111994531e+00,7.73471e-02,9.99999e-01,9.69878e-01,1.36416e-01,5.81479e-01,9.99969e-01
1.117554504e+00,2.58026e-02,9.99999e-01,9.92588e-01,4.40988e-02,5.87740e-01,9.99957e-01
1.123142276e+00,6.98313e-02,9.99999e-01,9.99514e-01,1.17586e-01,5.93943e-01,9.99949e-01
1.128757988e+00,1.35806e-01,9.99999e-01,9.99999e-01,2.26322e-01,6.00086e-01,9.99945e-01
1.134401778e+00,6.18927e-02,9.99999e-01,9.99999e-01,1.02111e-01,6.06170e-01,9.99938e-01
1.140073787e+00,2.42553e-01,9.99999e-01,9.99999e-01,3.96223e-01,6.12194e-01,9.99950e-01
1.145774156e+00,1.00915e-01,9.99999e-01,9.99999e-01,1.63258e-01,6.18156e-01,9.99957e-01
1.151503026e+00,8.42026e-02,9.99999e-01,9.99999e-01,1.34932e-01,6.24057e-01,9.99963e-01
1.157260541e+00,1.05721e-01,9.99999e-01,9.99999e-01,1.67843e-01,6.29897e-01,9.99972e-01
1.163046844e+00,1.68151e-01,9.99999e-01,9.99999e-01,2.64529e-01,6.35674e-01,9.99982e-01
1.168862078e+00,2.48227e-01,9.99999e-01,9.99999e-01,3.87018e-01,6.41388e-01,9.99990e-01
1.174706389e+00,3.59481e-01,9.99999e-01,9.99999e-01,5.55580e-01,6.47039e-01,9.99995e-01
1.180579921e+00,4.55438e-01,9.99999e-01,9.99999e-01,6.97854e-01,6.52627e-01,9.99996e-01
1.186482820e+00,5.36282e-01,9.99999e-01,9.99974e-01,8.14848e-01,6.58152e-01,9.99997e-01
1.192415234e+00,5.65745e-01,9.99999e-01,9.59754e-01,8.87038e-01,6.63613e-01,9.99997e-01
1.198377311e+00,3.17257e-01,9.99999e-01,5.15808e-01,9.03847e-01,6.69009e-01,9.99997e-01
1.204369197e+00,2.36563e-30,9.99999e-01,3.70756e-30,9.09065e-01,6.74342e-01,9.99998e-01
1.210391043e+00,6.55017e-123,9.99999e-01,1.01409e-122,9.12728e-01,6.79611e-01,9.99998e-01
1.216442998e+00,2.33677e-106,9.99999e-01,3.58070e-106,9.25362e-01,6.84816e-01,9.99998e-01
1.222525213e+00,9.38780e-105,9.99999e-01,1.40378e-104,9.41279e-01,6.89956e-01,9.99999e-01
1.228637839e+00,8.35198e-81,9.99999e-01,1.23618e-80,9.58819e-01,6.95033e-01,9.99999e-01
