#,Wave/freq,Total,O2,CO2,H2O,Rayleigh,CIA
4.000000000e-01,1.01648e-19,9.99999e-01,9.99999e-01,9.99914e-01,1.01657e-19,9.99999e-01
4.020000000e-01,2.41351e-19,9.99999e-01,9.99999e-01,9.99946e-01,2.41364e-19,9.99999e-01
4.040100000e-01,5.62861e-19,9.99999e-01,9.99999e-01,9.99977e-01,5.62874e-19,9.99999e-01
4.060300500e-01,1.29087e-18,9.99999e-01,9.99999e-01,9.99994e-01,1.29088e-18,9.99999e-01
4.080602003e-01,2.91232e-18,9.99999e-01,9.99999e-01,9.99997e-01,2.91232e-18,9.99999e-01
4.101005013e-01,6.46568e-18,9.99999e-01,9.99999e-01,9.99999e-01,6.46568e-18,9.99999e-01
4.121510038e-01,1.41301e-17,9.99999e-01,9.99999e-01,9.99996e-01,1.41302e-17,9.99999e-01
4.142117588e-01,3.04063e-17,9.99999e-01,9.99999e-01,9.99975e-01,3.04070e-17,9.99999e-01
4.162828176e-01,6.44436e-17,9.99999e-01,9.99999e-01,9.99893e-01,6.44505e-17,9.99999e-01
4.183642317e-01,1.34588e-16,9.99999e-01,9.99999e-01,9.99936e-01,1.34597e-16,9.99999e-01
4.204560528e-01,2.77018e-16,9.99999e-01,9.99999e-01,9.99961e-01,2.77029e-16,9.99999e-01
4.225583331e-01,5.62105e-16,9.99999e-01,9.99999e-01,9.99985e-01,5.62113e-16,9.99999e-01
4.246711247e-01,1.12473e-15,9.99999e-01,9.99999e-01,9.99987e-01,1.12474e-15,9.99999e-01
4.267944804e-01,2.21985e-15,9.99999e-01,9.99999e-01,9.99982e-01,2.21989e-15,9.99999e-01
4.289284528e-01,4.32286e-15,9.99999e-01,9.99999e-01,9.99986e-01,4.32292e-15,9.99999e-01
4.310730950e-01,8.30814e-15,9.99999e-01,9.99999e-01,9.99993e-01,8.30819e-15,9.99999e-01
4.332284605e-01,1.57627e-14,9.99999e-01,9.99999e-01,9.99998e-01,1.57627e-14,9.99999e-01
4.353946028e-01,2.95299e-14,9.99999e-01,9.99999e-01,9.99998e-01,2.95299e-14,9.99999e-01
4.375715758e-01,5.46390e-14,9.99999e-01,9.99999e-01,9.99988e-01,5.46396e-14,9.99999e-01
4.397594337e-01,9.98698e-14,9.99999e-01,9.99999e-01,9.99905e-01,9.98791e-14,9.99999e-01
4.419582309e-01,1.80326e-13,9.99999e-01,9.99999e-01,9.99521e-01,1.80413e-13,9.99999e-01
4.441680220e-01,3.21980e-13,9.99999e-01,9.99999e-01,9.99632e-01,3.22098e-13,9.99999e-01
4.463888621e-01,5.68289e-13,9.99999e-01,9.99999e-01,9.99615e-01,5.68507e-13,9.99999e-01
4.486208064e-01,9.91989e-13,9.99999e-01,9.99999e-01,9.99762e-01,9.92225e-13,9.99999e-01
4.508639105e-01,1.71261e-12,9.99999e-01,9.99999e-01,9.99888e-01,1.71280e-12,9.99999e-01
4.531182300e-01,2.92483e-12,9.99999e-01,9.99999e-01,9.99955e-01,2.92496e-12,9.99999e-01
4.553838212e-01,4.94231e-12,9.99999e-01,9.99999e-01,9.99969e-01,4.94246e-12,9.99999e-01
4.576607403e-01,8.26532e-12,9.99999e-01,9.99999e-01,9.99985e-01,8.26543e-12,9.99999e-01
4.599490440e-01,1.36827e-11,9.99999e-01,9.99999e-01,9.99989e-01,1.36829e-11,9.99999e-01
4.622487892e-01,2.24266e-11,9.99999e-01,9.99999e-01,9.99997e-01,2.24267e-11,9.99999e-01
4.645600332e-01,3.64008e-11,9.99999e-01,9.99999e-01,9.99992e-01,3.64010e-11,9.99999e-01
4.668828333e-01,5.85138e-11,9.99999e-01,9.99999e-01,9.99886e-01,5.85204e-11,9.99999e-01
4.692172475e-01,9.31802e-11,9.99999e-01,9.99999e-01,9.99758e-01,9.32026e-11,9.99999e-01
4.715633337e-01,1.47058e-10,9.99999e-01,9.99999e-01,9.99842e-01,1.47081e-10,9.99999e-01
4.739211504e-01,2.29989e-10,9.99999e-01,9.99999e-01,9.99849e-01,2.30023e-10,9.99999e-01
4.762907561e-01,3.56547e-10,9.99999e-01,9.99999e-01,9.99921e-01,3.56575e-10,9.99999e-01
4.786722099e-01,5.47968e-10,9.99999e-01,9.99999e-01,9.99967e-01,5.47986e-10,9.99999e-01
4.810655710e-01,8.35021e-10,9.99999e-01,9.99999e-01,9.99989e-01,8.35029e-10,9.99999e-01
4.834708988e-01,1.26177e-09,9.99999e-01,9.99999e-01,9.99905e-01,1.26189e-09,9.99999e-01
4.858882533e-01,1.89114e-09,9.99999e-01,9.99999e-01,9.99829e-01,1.89146e-09,9.99999e-01
4.883176946e-01,2.81216e-09,9.99999e-01,9.99999e-01,9.99856e-01,2.81256e-09,9.99999e-01
4.907592831e-01,4.14904e-09,9.99999e-01,9.99999e-01,9.99870e-01,4.14957e-09,9.99999e-01
4.932130795e-01,6.07476e-09,9.99999e-01,9.99999e-01,9.99908e-01,6.07531e-09,9.99999e-01
4.956791449e-01,8.82760e-09,9.99999e-01,9.99999e-01,9.99951e-01,8.82803e-09,9.99999e-01
4.981575406e-01,1.27306e-08,9.99999e-01,9.99999e-01,9.99756e-01,1.27336e-08,9.99999e-01
5.006483283e-01,1.82232e-08,9.99999e-01,9.99999e-01,9.99366e-01,1.82347e-08,9.99999e-01
5.031515699e-01,2.58453e-08,9.99999e-01,9.99999e-01,9.96816e-01,2.59278e-08,9.99999e-01
5.056673278e-01,3.65497e-08,9.99999e-01,9.99999e-01,9.98323e-01,3.66111e-08,9.99999e-01
5.081956644e-01,5.12367e-08,9.99999e-01,9.99999e-01,9.97885e-01,5.13452e-08,9.99999e-01
5.107366428e-01,7.14275e-08,9.99999e-01,9.99999e-01,9.98572e-01,7.15296e-08,9.99999e-01
5.132903260e-01,9.89176e-08,9.99999e-01,9.99999e-01,9.99185e-01,9.89982e-08,9.99999e-01
5.158567776e-01,1.36092e-07,9.99999e-01,9.99999e-01,9.99655e-01,1.36138e-07,9.99999e-01
5.184360615e-01,1.86012e-07,9.99999e-01,9.99999e-01,9.99861e-01,1.86038e-07,9.99999e-01
5.210282418e-01,2.52651e-07,9.99999e-01,9.99999e-01,9.99947e-01,2.52664e-07,9.99999e-01
5.236333830e-01,3.41012e-07,9.99999e-01,9.99999e-01,9.99792e-01,3.41083e-07,9.99999e-01
5.262515499e-01,4.57663e-07,9.99999e-01,9.99999e-01,9.99869e-01,4.57722e-07,9.99999e-01
5.288828077e-01,6.10617e-07,9.99999e-01,9.99999e-01,9.99880e-01,6.10690e-07,9.99999e-01
5.315272217e-01,8.10067e-07,9.99999e-01,9.99999e-01,9.99895e-01,8.10151e-07,9.99999e-01
5.341848578e-01,1.06870e-06,9.99999e-01,9.99999e-01,9.99930e-01,1.06878e-06,9.99999e-01
5.368557821e-01,1.40193e-06,9.99999e-01,9.99999e-01,9.99756e-01,1.40227e-06,9.99999e-01
5.395400610e-01,1.82837e-06,9.99999e-01,9.99999e-01,9.99119e-01,1.82998e-06,9.99999e-01
5.422377613e-01,2.37295e-06,9.99999e-01,9.99999e-01,9.98876e-01,2.37562e-06,9.99999e-01
5.449489501e-01,3.06487e-06,9.99999e-01,9.99999e-01,9.98948e-01,3.06810e-06,9.99999e-01
5.476736949e-01,3.93882e-06,9.99999e-01,9.99999e-01,9.99075e-01,3.94246e-06,9.99999e-01
5.504120634e-01,5.03759e-06,9.99999e-01,9.99999e-01,9.99328e-01,5.04097e-06,9.99999e-01
5.531641237e-01,6.41219e-06,9.99999e-01,9.99999e-01,9.99661e-01,6.41435e-06,9.99999e-01
5.559299443e-01,8.12182e-06,9.99999e-01,9.99999e-01,9.99836e-01,8.12315e-06,9.99999e-01
5.587095940e-01,1.02382e-05,9.99999e-01,9.99999e-01,9.99897e-01,1.02393e-05,9.99999e-01
5.615031420e-01,1.28464e-05,9.99999e-01,9.99999e-01,9.99885e-01,1.28478e-05,9.99999e-01
5.643106577e-01,1.60467e-05,9.99999e-01,9.99999e-01,9.99868e-01,1.60488e-05,9.99999e-01
5.671322110e-01,1.99275e-05,9.99999e-01,9.99999e-01,9.98403e-01,1.99594e-05,9.99999e-01
5.699678720e-01,2.46751e-05,9.99999e-01,9.99999e-01,9.98339e-01,2.47161e-05,9.99999e-01
5.728177114e-01,3.04244e-05,9.99999e-01,9.99999e-01,9.98254e-01,3.04776e-05,9.99999e-01
5.756818000e-01,3.73670e-05,9.99999e-01,9.99999e-01,9.98401e-01,3.74268e-05,9.99999e-01
5.785602090e-01,4.57108e-05,9.99999e-01,9.99999e-01,9.98608e-01,4.57745e-05,9.99999e-01
5.814530100e-01,5.56838e-05,9.99999e-01,9.99999e-01,9.98599e-01,5.57618e-05,9.99999e-01
5.843602750e-01,6.75504e-05,9.99999e-01,9.99999e-01,9.98321e-01,6.76639e-05,9.99999e-01
5.872820764e-01,8.06197e-05,9.99999e-01,9.99999e-01,9.85650e-01,8.17934e-05,9.99999e-01
5.902184868e-01,9.68027e-05,9.99999e-01,9.99999e-01,9.82732e-01,9.85036e-05,9.99999e-01
5.931695792e-01,1.16746e-04,9.99999e-01,9.99999e-01,9.87757e-01,1.18193e-04,9.99999e-01
5.961354271e-01,1.39415e-04,9.99999e-01,9.99999e-01,9.86600e-01,1.41308e-04,9.99999e-01
5.991161043e-01,1.66702e-04,9.99999e-01,9.99999e-01,9.90215e-01,1.68349e-04,9.99999e-01
6.021116848e-01,1.98762e-04,9.99999e-01,9.99999e-01,9.94442e-01,1.99872e-04,9.99999e-01
6.051222432e-01,2.35829e-04,9.99999e-01,9.99999e-01,9.97185e-01,2.36495e-04,9.99999e-01
6.081478544e-01,2.78561e-04,9.99999e-01,9.99999e-01,9.98783e-01,2.78900e-04,9.99999e-01
6.111885937e-01,3.27670e-04,9.99999e-01,9.99999e-01,9.99486e-01,3.27838e-04,9.99999e-01
6.142445367e-01,3.84047e-04,9.99999e-01,9.99999e-01,9.99770e-01,3.84135e-04,9.99999e-01
6.173157594e-01,4.48635e-04,9.99999e-01,9.99999e-01,9.99872e-01,4.48692e-04,9.99999e-01
6.204023382e-01,5.22437e-04,9.99999e-01,9.99999e-01,9.99891e-01,5.22493e-04,9.99999e-01
6.235043498e-01,6.06315e-04,9.99999e-01,9.99999e-01,9.99519e-01,6.06606e-04,9.99999e-01
6.266218716e-01,7.00426e-04,9.99999e-01,9.99999e-01,9.97493e-01,7.02186e-04,9.99999e-01
6.297549810e-01,8.09735e-04,9.99999e-01,9.99999e-01,9.99079e-01,8.10481e-04,9.99999e-01
6.329037559e-01,9.31139e-04,9.99999e-01,9.99999e-01,9.98186e-01,9.32830e-04,9.99999e-01
6.360682746e-01,1.06901e-03,9.99999e-01,9.99999e-01,9.98449e-01,1.07067e-03,9.99999e-01
6.392486160e-01,1.22309e-03,9.99999e-01,9.99999e-01,9.97995e-01,1.22554e-03,9.99999e-01
6.424448591e-01,1.39530e-03,9.99999e-01,9.99999e-01,9.97299e-01,1.39907e-03,9.99999e-01
6.456570834e-01,1.57314e-03,9.99999e-01,9.99999e-01,9.87530e-01,1.59301e-03,9.99999e-01
6.488853688e-01,1.79279e-03,9.99999e-01,9.99999e-01,9.90940e-01,1.80918e-03,9.99999e-01
6.521297956e-01,2.03061e-03,9.99999e-01,9.99999e-01,9.90771e-01,2.04952e-03,9.99999e-01
6.553904446e-01,2.29470e-03,9.99999e-01,9.99999e-01,9.90766e-01,2.31608e-03,9.99999e-01
6.586673968e-01,2.59042e-03,9.99999e-01,9.99999e-01,9.92117e-01,2.61100e-03,9.99999e-01
6.619607338e-01,2.92359e-03,9.99999e-01,9.99999e-01,9.95599e-01,2.93651e-03,9.99999e-01
6.652705375e-01,3.28623e-03,9.99999e-01,9.99999e-01,9.97356e-01,3.29494e-03,9.99999e-01
6.685968902e-01,3.68458e-03,9.99999e-01,9.99999e-01,9.98876e-01,3.68872e-03,9.99999e-01
6.719398746e-01,4.11803e-03,9.99999e-01,9.99999e-01,9.99430e-01,4.12037e-03,9.99999e-01
6.752995740e-01,4.59110e-03,9.99999e-01,9.99999e-01,9.99699e-01,4.59248e-03,9.99999e-01
6.786760719e-01,5.10543e-03,9.99999e-01,9.99999e-01,9.99549e-01,5.10773e-03,9.99999e-01
6.820694522e-01,5.66452e-03,9.99999e-01,9.99999e-01,9.99234e-01,5.66886e-03,9.99999e-01
6.854797995e-01,6.27250e-03,9.99999e-01,9.99999e-01,9.99011e-01,6.27870e-03,9.99999e-01
6.889071985e-01,6.92335e-03,9.99999e-01,9.99999e-01,9.97582e-01,6.94013e-03,9.99999e-01
6.923517345e-01,7.36202e-03,9.99999e-01,9.99999e-01,9.61592e-01,7.65607e-03,9.99999e-01
6.958134932e-01,8.26255e-03,9.99999e-01,9.99999e-01,9.80193e-01,8.42950e-03,9.99999e-01
6.992925606e-01,9.08580e-03,9.99999e-01,9.99999e-01,9.80823e-01,9.26344e-03,9.99998e-01
7.027890234e-01,9.92235e-03,9.99999e-01,9.99999e-01,9.76519e-01,1.01609e-02,9.99999e-01
7.063029686e-01,1.09047e-02,9.99999e-01,9.99999e-01,9.80194e-01,1.11250e-02,9.99999e-01
7.098344834e-01,1.19276e-02,9.99999e-01,9.99999e-01,9.80984e-01,1.21588e-02,9.99998e-01
7.133836558e-01,1.29278e-02,9.99999e-01,9.99999e-01,9.74553e-01,1.32654e-02,9.99998e-01
7.169505741e-01,1.17926e-02,9.99999e-01,9.99999e-01,8.16222e-01,1.44478e-02,9.99997e-01
7.205353270e-01,1.42354e-02,9.99999e-01,9.99999e-01,9.06196e-01,1.57090e-02,9.99996e-01
7.241380036e-01,1.50185e-02,9.99999e-01,9.99999e-01,8.80741e-01,1.70522e-02,9.99996e-01
7.277586936e-01,1.64817e-02,9.99999e-01,9.99999e-01,8.91859e-01,1.84802e-02,9.99997e-01
7.313974871e-01,1.77061e-02,9.99999e-01,9.99999e-01,8.85483e-01,1.99960e-02,9.99997e-01
7.350544745e-01,2.02087e-02,9.99999e-01,9.99999e-01,9.35479e-01,2.16025e-02,9.99998e-01
7.387297469e-01,2.21847e-02,9.99999e-01,9.99999e-01,9.52031e-01,2.33025e-02,9.99999e-01
7.424233956e-01,2.45026e-02,9.99999e-01,9.99999e-01,9.76254e-01,2.50986e-02,9.99999e-01
7.461355126e-01,2.66028e-02,9.99999e-01,9.99999e-01,9.85521e-01,2.69936e-02,9.99999e-01
7.498661902e-01,2.87942e-02,9.99999e-01,9.99999e-01,9.93248e-01,2.89899e-02,9.99999e-01
7.536155211e-01,3.09867e-02,9.99999e-01,9.99999e-01,9.96674e-01,3.10901e-02,9.99999e-01
7.573835987e-01,3.32393e-02,9.99999e-01,9.99999e-01,9.98287e-01,3.32963e-02,9.99999e-01
7.611705167e-01,3.55730e-02,9.99999e-01,9.99999e-01,9.98935e-01,3.56108e-02,9.99999e-01
7.649763693e-01,3.80104e-02,9.99999e-01,9.99999e-01,9.99331e-01,3.80358e-02,9.99999e-01
7.688012511e-01,4.05541e-02,9.99999e-01,9.99999e-01,9.99534e-01,4.05730e-02,9.99999e-01
7.726452574e-01,4.32077e-02,9.99999e-01,9.99999e-01,9.99616e-01,4.32243e-02,9.99999e-01
7.765084837e-01,4.59661e-02,9.99999e-01,9.99999e-01,9.99451e-01,4.59913e-02,9.99999e-01
7.803910261e-01,4.33597e-02,9.99999e-01,8.89044e-01,9.97630e-01,4.88755e-02,9.99999e-01
7.842929812e-01,2.86534e-02,9.99999e-01,5.56230e-01,9.91752e-01,5.18781e-02,9.99999e-01
7.882144461e-01,2.92041e-02,9.99999e-01,5.38918e-01,9.83190e-01,5.50005e-02,9.99999e-01
7.921555184e-01,3.91571e-02,9.99999e-01,6.78016e-01,9.90789e-01,5.82435e-02,9.99999e-01
7.961162960e-01,4.66067e-02,9.99999e-01,7.68651e-01,9.83633e-01,6.16080e-02,9.99999e-01
8.000968774e-01,5.53639e-02,9.99999e-01,8.66636e-01,9.81184e-01,6.50946e-02,9.99999e-01
8.040973618e-01,6.26038e-02,9.99999e-01,9.28566e-01,9.81164e-01,6.87037e-02,9.99998e-01
8.081178486e-01,6.70744e-02,9.99999e-01,9.66390e-01,9.57953e-01,7.24357e-02,9.99998e-01
8.121584379e-01,6.32551e-02,9.99999e-01,9.89582e-01,8.37514e-01,7.62907e-02,9.99997e-01
8.162192301e-01,6.50428e-02,9.99999e-01,9.97688e-01,8.12054e-01,8.02685e-02,9.99996e-01
8.203003262e-01,7.61329e-02,9.99999e-01,9.99967e-01,9.02399e-01,8.43691e-02,9.99996e-01
8.244018279e-01,7.70756e-02,9.99999e-01,9.99999e-01,8.70010e-01,8.85918e-02,9.99996e-01
8.285238370e-01,8.19598e-02,9.99999e-01,9.99999e-01,8.81894e-01,9.29363e-02,9.99997e-01
8.326664562e-01,8.58398e-02,9.99999e-01,9.99999e-01,8.81298e-01,9.74016e-02,9.99997e-01
8.368297885e-01,9.31419e-02,9.99999e-01,9.99999e-01,9.13272e-01,1.01987e-01,9.99998e-01
8.410139374e-01,1.01086e-01,9.99999e-01,9.99999e-01,9.47462e-01,1.06691e-01,9.99999e-01
8.452190071e-01,1.08600e-01,9.99999e-01,9.99999e-01,9.73880e-01,1.11513e-01,9.99999e-01
8.494451021e-01,1.14670e-01,9.99999e-01,9.99999e-01,9.84710e-01,1.16451e-01,9.99999e-01
8.536923276e-01,1.20405e-01,9.99999e-01,9.99999e-01,9.90955e-01,1.21503e-01,9.99999e-01
8.579607893e-01,1.25961e-01,9.99999e-01,9.99999e-01,9.94408e-01,1.26669e-01,9.99999e-01
8.622505932e-01,1.31477e-01,9.99999e-01,9.99999e-01,9.96450e-01,1.31946e-01,9.99999e-01
8.665618462e-01,1.16200e-01,9.99999e-01,8.47859e-01,9.97797e-01,1.37331e-01,9.99999e-01
8.708946554e-01,3.40725e-02,9.99999e-01,2.39104e-01,9.97473e-01,1.42824e-01,9.99999e-01
8.752491287e-01,4.42085e-02,9.99999e-01,2.98783e-01,9.96623e-01,1.48421e-01,9.99999e-01
8.796253743e-01,7.75205e-02,9.99999e-01,5.05114e-01,9.95315e-01,1.54120e-01,9.99999e-01
8.840235012e-01,1.10613e-01,9.99999e-01,6.95174e-01,9.94654e-01,1.59920e-01,9.99999e-01
8.884436187e-01,1.40845e-01,9.99999e-01,8.65655e-01,9.80466e-01,1.65816e-01,9.99998e-01
8.928858368e-01,1.32496e-01,9.99999e-01,9.42899e-01,8.16159e-01,1.71807e-01,9.99996e-01
8.973502660e-01,1.23174e-01,9.99999e-01,9.85878e-01,7.01542e-01,1.77890e-01,9.99995e-01
9.018370173e-01,1.53572e-01,9.99999e-01,9.98437e-01,8.35510e-01,1.84061e-01,9.99994e-01
9.063462024e-01,1.56394e-01,9.99999e-01,9.60640e-01,8.51227e-01,1.90319e-01,9.99993e-01
9.108779334e-01,1.40218e-01,9.99999e-01,9.11481e-01,7.78910e-01,1.96659e-01,9.99992e-01
9.154323231e-01,1.49756e-01,9.99999e-01,9.78636e-01,7.52206e-01,2.03079e-01,9.99992e-01
9.200094847e-01,1.33592e-01,9.99999e-01,7.68143e-01,8.01235e-01,2.09575e-01,9.99990e-01
9.246095321e-01,1.00746e-01,9.99999e-01,6.37604e-01,7.14360e-01,2.16145e-01,9.99983e-01
9.292325798e-01,2.24152e-02,9.99999e-01,7.07296e-01,1.30563e-01,2.22785e-01,9.99964e-01
9.338787427e-01,1.25789e-02,9.99999e-01,7.13089e-01,7.11480e-02,2.29491e-01,9.99955e-01
9.385481364e-01,6.50282e-02,9.99999e-01,7.77688e-01,3.40038e-01,2.36261e-01,9.99954e-01
9.432408771e-01,5.03737e-02,9.99999e-01,8.56524e-01,2.36313e-01,2.43091e-01,9.99949e-01
9.479570815e-01,3.12173e-02,9.99999e-01,9.23374e-01,1.33639e-01,2.49978e-01,9.99955e-01
9.526968669e-01,5.21881e-02,9.99999e-01,9.62405e-01,2.09329e-01,2.56918e-01,9.99966e-01
9.574603512e-01,5.83482e-02,9.99999e-01,9.83734e-01,2.23977e-01,2.63908e-01,9.99974e-01
9.622476530e-01,7.79657e-02,9.99999e-01,9.94901e-01,2.88934e-01,2.70945e-01,9.99983e-01
9.670588912e-01,1.34325e-01,9.99999e-01,9.98472e-01,4.83750e-01,2.78024e-01,9.99989e-01
9.718941857e-01,1.78000e-01,9.99999e-01,9.99893e-01,6.24300e-01,2.85143e-01,9.99993e-01
9.767536566e-01,1.97498e-01,9.99999e-01,9.99999e-01,6.75672e-01,2.92299e-01,9.99995e-01
9.816374249e-01,2.23644e-01,9.99999e-01,9.99999e-01,7.46757e-01,2.99487e-01,9.99996e-01
9.865456120e-01,2.55366e-01,9.99999e-01,9.99999e-01,8.32611e-01,3.06705e-01,9.99998e-01
9.914783401e-01,2.80225e-01,9.99999e-01,9.99999e-01,8.92578e-01,3.13950e-01,9.99998e-01
9.964357318e-01,3.01938e-01,9.99999e-01,9.99999e-01,9.39982e-01,3.21217e-01,9.99999e-01
1.001417910e+00,3.16536e-01,9.99999e-01,9.99999e-01,9.63568e-01,3.28504e-01,9.99999e-01
1.006425000e+00,3.28763e-01,9.99999e-01,9.99999e-01,9.79023e-01,3.35807e-01,9.99999e-01
1.011457125e+00,3.38648e-01,9.99999e-01,9.99999e-01,9.86957e-01,3.43123e-01,9.99999e-01
1.016514411e+00,3.47337e-01,9.99999e-01,9.99999e-01,9.91116e-01,3.50450e-01,9.99999e-01
1.021596983e+00,3.55163e-01,9.99999e-01,9.99758e-01,9.92911e-01,3.57784e-01,9.99999e-01
1.026704968e+00,3.57341e-01,9.99999e-01,9.84104e-01,9.94465e-01,3.65122e-01,9.99999e-01
1.031838492e+00,3.27101e-01,9.99999e-01,8.81524e-01,9.95981e-01,3.72461e-01,9.99999e-01
1.036997685e+00,1.32839e-02,9.99999e-01,3.50392e-02,9.97607e-01,3.79799e-01,9.99999e-01
1.042182673e+00,3.33331e-04,9.99999e-01,8.62833e-04,9.97139e-01,3.87131e-01,9.99999e-01
1.047393587e+00,9.61485e-04,9.99999e-01,2.44502e-03,9.96213e-01,3.94456e-01,9.99999e-01
1.052630555e+00,9.71999e-09,9.99999e-01,2.42706e-08,9.94802e-01,4.01771e-01,9.99999e-01
1.057893707e+00,3.69501e-08,9.99999e-01,9.07088e-08,9.91327e-01,4.09074e-01,9.99999e-01
1.063183176e+00,2.98819e-06,9.99999e-01,7.23297e-06,9.85783e-01,4.16360e-01,9.99999e-01
1.068499092e+00,4.71342e-05,9.99999e-01,1.12853e-04,9.76341e-01,4.23629e-01,9.99999e-01
1.073841587e+00,1.13818e-03,9.99999e-01,2.69188e-03,9.72364e-01,4.30877e-01,9.99998e-01
1.079210795e+00,1.06505e-02,9.99999e-01,2.49688e-02,9.64783e-01,4.38103e-01,9.99998e-01
1.084606849e+00,5.11044e-02,9.99999e-01,1.20176e-01,9.47165e-01,4.45303e-01,9.99997e-01
1.090029883e+00,1.38396e-01,9.99999e-01,3.28062e-01,9.24847e-01,4.52476e-01,9.99996e-01
1.095480033e+00,2.15966e-01,9.99999e-01,5.75787e-01,8.08750e-01,4.59620e-01,9.99994e-01
1.100957433e+00,2.12172e-01,9.99999e-01,7.64792e-01,5.87812e-01,4.66731e-01,9.99990e-01
1.106462220e+00,1.18769e-01,9.99999e-01,8.94894e-01,2.76412e-01,4.73810e-01,9.99979e-01
1.111994531e+00,3.40638e-02,9.99999e-01,9.59595e-01,7.31737e-02,4.80852e-01,9.99959e-01
1.117554504e+00,8.46163e-03,9.99999e-01,9.90023e-01,1.74371e-02,4.87857e-01,9.99942e-01
1.123142276e+00,3.21406e-02,9.99999e-01,9.99345e-01,6.49618e-02,4.94823e-01,9.99932e-01
1.128757988e+00,7.15646e-02,9.99999e-01,9.99999e-01,1.42641e-01,5.01747e-01,9.99925e-01
1.134401778e+00,3.31232e-02,9.99999e-01,9.99999e-01,6.51278e-02,5.08629e-01,9.99917e-01
1.140073787e+00,1.51046e-01,9.99999e-01,9.99999e-01,2.93048e-01,5.15466e-01,9.99933e-01
1.145774156e+00,5.00520e-02,9.99999e-01,9.99999e-01,9.58430e-02,5.22258e-01,9.99943e-01
1.151503026e+00,3.92075e-02,9.99999e-01,9.99999e-01,7.41195e-02,5.29002e-01,9.99951e-01
1.157260541e+00,5.04947e-02,9.99999e-01,9.99999e-01,9.42630e-02,5.35698e-01,9.99962e-01
1.163046844e+00,9.31544e-02,9.99999e-01,9.99999e-01,1.71767e-01,5.42343e-01,9.99976e-01
1.168862078e+00,1.54360e-01,9.99999e-01,9.99999e-01,2.81201e-01,5.48938e-01,9.99987e-01
1.174706389e+00,2.52820e-01,9.99999e-01,9.99999e-01,4.55140e-01,5.55480e-01,9.99993e-01
1.180579921e+00,3.46710e-01,9.99999e-01,9.99999e-01,6.16959e-01,5.61968e-01,9.99995e-01
1.186482820e+00,4.31375e-01,9.99999e-01,9.99964e-01,7.58948e-01,5.68402e-01,9.99996e-01
1.192415234e+00,4.64133e-01,9.99999e-01,9.46904e-01,8.50690e-01,5.74780e-01,9.99996e-01
1.198377311e+00,2.56892e-01,9.99999e-01,4.95044e-01,8.72510e-01,5.81101e-01,9.99997e-01
1.204369197e+00,3.38418e-40,9.99999e-01,6.20844e-40,8.79477e-01,5.87366e-01,9.99997e-01
1.210391043e+00,3.47834e-165,9.99999e-01,6.27651e-165,8.84164e-01,5.93572e-01,9.99997e-01
1.216442998e+00,7.83817e-143,9.99999e-01,1.39484e-142,9.00727e-01,5.99719e-01,9.99998e-01
1.222525213e+00,1.14657e-140,9.99999e-01,1.97412e-140,9.21602e-01,6.05806e-01,9.99998e-01
1.228637839e+00,2.40773e-108,9.99999e-01,4.08839e-108,9.44827e-01,6.11833e-01,9.99999e-01
