#,Wave/freq,Total,O2,CO2,H2O,Rayleigh,CIA
4.000000000e-01,2.33058e-27,9.99999e-01,9.99999e-01,9.99879e-01,2.33086e-27,9.99999e-01
4.020000000e-01,7.83568e-27,9.99999e-01,9.99999e-01,9.99925e-01,7.83627e-27,9.99999e-01
4.040100000e-01,2.56893e-26,9.99999e-01,9.99999e-01,9.99968e-01,2.56901e-26,9.99999e-01
4.060300500e-01,8.22683e-26,9.99999e-01,9.99999e-01,9.99992e-01,8.22689e-26,9.99999e-01
4.080602003e-01,2.57467e-25,9.99999e-01,9.99999e-01,9.99997e-01,2.57467e-25,9.99999e-01
4.101005013e-01,7.87809e-25,9.99999e-01,9.99999e-01,9.99999e-01,7.87809e-25,9.99999e-01
4.121510038e-01,2.35790e-24,9.99999e-01,9.99999e-01,9.99995e-01,2.35791e-24,9.99999e-01
4.142117588e-01,6.90579e-24,9.99999e-01,9.99999e-01,9.99966e-01,6.90602e-24,9.99999e-01
4.162828176e-01,1.97991e-23,9.99999e-01,9.99999e-01,9.99851e-01,1.98021e-23,9.99999e-01
4.183642317e-01,5.56056e-23,9.99999e-01,9.99999e-01,9.99911e-01,5.56105e-23,9.99999e-01
4.204560528e-01,1.53011e-22,9.99999e-01,9.99999e-01,9.99945e-01,1.53019e-22,9.99999e-01
4.225583331e-01,4.12707e-22,9.99999e-01,9.99999e-01,9.99979e-01,4.12715e-22,9.99999e-01
4.246711247e-01,1.09153e-21,9.99999e-01,9.99999e-01,9.99983e-01,1.09155e-21,9.99999e-01
4.267944804e-01,2.83194e-21,9.99999e-01,9.99999e-01,9.99975e-01,2.83201e-21,9.99999e-01
4.289284528e-01,7.21039e-21,9.99999e-01,9.99999e-01,9.99981e-01,7.21052e-21,9.99999e-01
4.310730950e-01,1.80226e-20,9.99999e-01,9.99999e-01,9.99991e-01,1.80228e-20,9.99999e-01
4.332284605e-01,4.42402e-20,9.99999e-01,9.99999e-01,9.99997e-01,4.42403e-20,9.99999e-01
4.353946028e-01,1.06687e-19,9.99999e-01,9.99999e-01,9.99998e-01,1.06687e-19,9.99999e-01
4.375715758e-01,2.52841e-19,9.99999e-01,9.99999e-01,9.99984e-01,2.52844e-19,9.99999e-01
4.397594337e-01,5.89028e-19,9.99999e-01,9.99999e-01,9.99868e-01,5.89105e-19,9.99999e-01
4.419582309e-01,1.34892e-18,9.99999e-01,9.99999e-01,9.99332e-01,1.34982e-18,9.99999e-01
4.441680220e-01,3.04105e-18,9.99999e-01,9.99999e-01,9.99483e-01,3.04262e-18,9.99999e-01
4.463888621e-01,6.74549e-18,9.99999e-01,9.99999e-01,9.99461e-01,6.74912e-18,9.99999e-01
4.486208064e-01,1.47322e-17,9.99999e-01,9.99999e-01,9.99665e-01,1.47371e-17,9.99999e-01
4.508639105e-01,3.16818e-17,9.99999e-01,9.99999e-01,9.99843e-01,3.16868e-17,9.99999e-01
4.531182300e-01,6.71042e-17,9.99999e-01,9.99999e-01,9.99937e-01,6.71083e-17,9.99999e-01
4.553838212e-01,1.40029e-16,9.99999e-01,9.99999e-01,9.99957e-01,1.40035e-16,9.99999e-01
4.576607403e-01,2.87992e-16,9.99999e-01,9.99999e-01,9.99980e-01,2.87997e-16,9.99999e-01
4.599490440e-01,5.83913e-16,9.99999e-01,9.99999e-01,9.99985e-01,5.83921e-16,9.99999e-01
4.622487892e-01,1.16750e-15,9.99999e-01,9.99999e-01,9.99997e-01,1.16750e-15,9.99999e-01
4.645600332e-01,2.30256e-15,9.99999e-01,9.99999e-01,9.99990e-01,2.30258e-15,9.99999e-01
4.668828333e-01,4.48001e-15,9.99999e-01,9.99999e-01,9.99840e-01,4.48072e-15,9.99999e-01
4.692172475e-01,8.60246e-15,9.99999e-01,9.99999e-01,9.99662e-01,8.60536e-15,9.99999e-01
4.715633337e-01,1.63116e-14,9.99999e-01,9.99999e-01,9.99778e-01,1.63152e-14,9.99999e-01
4.739211504e-01,3.05377e-14,9.99999e-01,9.99999e-01,9.99788e-01,3.05441e-14,9.99999e-01
4.762907561e-01,5.64724e-14,9.99999e-01,9.99999e-01,9.99890e-01,5.64786e-14,9.99999e-01
4.786722099e-01,1.03169e-13,9.99999e-01,9.99999e-01,9.99954e-01,1.03173e-13,9.99999e-01
4.810655710e-01,1.86241e-13,9.99999e-01,9.99999e-01,9.99986e-01,1.86244e-13,9.99999e-01
4.834708988e-01,3.32255e-13,9.99999e-01,9.99999e-01,9.99869e-01,3.32299e-13,9.99999e-01
4.858882533e-01,5.86011e-13,9.99999e-01,9.99999e-01,9.99760e-01,5.86151e-13,9.99999e-01
4.883176946e-01,1.02220e-12,9.99999e-01,9.99999e-01,9.99799e-01,1.02240e-12,9.99999e-01
4.907592831e-01,1.76353e-12,9.99999e-01,9.99999e-01,9.99818e-01,1.76385e-12,9.99999e-01
4.932130795e-01,3.01000e-12,9.99999e-01,9.99999e-01,9.99871e-01,3.01039e-12,9.99999e-01
4.956791449e-01,5.08357e-12,9.99999e-01,9.99999e-01,9.99931e-01,5.08392e-12,9.99999e-01
4.981575406e-01,8.49437e-12,9.99999e-01,9.99999e-01,9.99659e-01,8.49726e-12,9.99999e-01
5.006483283e-01,1.40465e-11,9.99999e-01,9.99999e-01,9.99116e-01,1.40590e-11,9.99999e-01
5.031515699e-01,2.29281e-11,9.99999e-01,9.99999e-01,9.95544e-01,2.30307e-11,9.99999e-01
5.056673278e-01,3.72741e-11,9.99999e-01,9.99999e-01,9.97648e-01,3.73619e-11,9.99999e-01
5.081956644e-01,5.98563e-11,9.99999e-01,9.99999e-01,9.97035e-01,6.00343e-11,9.99999e-01
5.107366428e-01,9.53742e-11,9.99999e-01,9.99999e-01,9.97997e-01,9.55655e-11,9.99999e-01
5.132903260e-01,1.50563e-10,9.99999e-01,9.99999e-01,9.98856e-01,1.50735e-10,9.99999e-01
5.158567776e-01,2.35510e-10,9.99999e-01,9.99999e-01,9.99516e-01,2.35624e-10,9.99999e-01
5.184360615e-01,3.65013e-10,9.99999e-01,9.99999e-01,9.99806e-01,3.65083e-10,9.99999e-01
5.210282418e-01,5.60760e-10,9.99999e-01,9.99999e-01,9.99927e-01,5.60800e-10,9.99999e-01
5.236333830e-01,8.53918e-10,9.99999e-01,9.99999e-01,9.99708e-01,8.54166e-10,9.99999e-01
5.262515499e-01,1.28999e-09,9.99999e-01,9.99999e-01,9.99817e-01,1.29023e-09,9.99999e-01
5.288828077e-01,1.93277e-09,9.99999e-01,9.99999e-01,9.99832e-01,1.93309e-09,9.99999e-01
5.315272217e-01,2.87281e-09,9.99999e-01,9.99999e-01,9.99853e-01,2.87323e-09,9.99999e-01
5.341848578e-01,4.23689e-09,9.99999e-01,9.99999e-01,9.99903e-01,4.23730e-09,9.99999e-01
5.368557821e-01,6.19909e-09,9.99999e-01,9.99999e-01,9.99660e-01,6.20119e-09,9.99999e-01
5.395400610e-01,8.99624e-09,9.99999e-01,9.99999e-01,9.98772e-01,9.00729e-09,9.99999e-01
5.422377613e-01,1.29666e-08,9.99999e-01,9.99999e-01,9.98423e-01,1.29871e-08,9.99999e-01
5.449489501e-01,1.85631e-08,9.99999e-01,9.99999e-01,9.98528e-01,1.85904e-08,9.99999e-01
5.476736949e-01,2.63891e-08,9.99999e-01,9.99999e-01,9.98701e-01,2.64234e-08,9.99999e-01
5.504120634e-01,3.72618e-08,9.99999e-01,9.99999e-01,9.99057e-01,3.72970e-08,9.99999e-01
5.531641237e-01,5.22632e-08,9.99999e-01,9.99999e-01,9.99525e-01,5.22879e-08,9.99999e-01
5.559299443e-01,7.28001e-08,9.99999e-01,9.99999e-01,9.99770e-01,7.28167e-08,9.99999e-01
5.587095940e-01,1.00730e-07,9.99999e-01,9.99999e-01,9.99855e-01,1.00744e-07,9.99999e-01
5.615031420e-01,1.38469e-07,9.99999e-01,9.99999e-01,9.99839e-01,1.38492e-07,9.99999e-01
5.643106577e-01,1.89155e-07,9.99999e-01,9.99999e-01,9.99817e-01,1.89190e-07,9.99999e-01
5.671322110e-01,2.56289e-07,9.99999e-01,9.99999e-01,9.97778e-01,2.56859e-07,9.99999e-01
5.699678720e-01,3.45824e-07,9.99999e-01,9.99999e-01,9.97664e-01,3.46633e-07,9.99999e-01
5.728177114e-01,4.63886e-07,9.99999e-01,9.99999e-01,9.97556e-01,4.65022e-07,9.99999e-01
5.756818000e-01,6.18846e-07,9.99999e-01,9.99999e-01,9.97759e-01,6.20236e-07,9.99999e-01
5.785602090e-01,8.20958e-07,9.99999e-01,9.99999e-01,9.98048e-01,8.22563e-07,9.99999e-01
5.814530100e-01,1.08270e-06,9.99999e-01,9.99999e-01,9.98037e-01,1.08482e-06,9.99999e-01
5.843602750e-01,1.41957e-06,9.99999e-01,9.99999e-01,9.97654e-01,1.42291e-06,9.99999e-01
5.872820764e-01,1.81928e-06,9.99999e-01,9.99999e-01,9.80018e-01,1.85637e-06,9.99999e-01
5.902184868e-01,2.35105e-06,9.99999e-01,9.99999e-01,9.75863e-01,2.40920e-06,9.99999e-01
5.931695792e-01,3.05742e-06,9.99999e-01,9.99999e-01,9.82900e-01,3.11061e-06,9.99999e-01
5.961354271e-01,3.92113e-06,9.99999e-01,9.99999e-01,9.81263e-01,3.99600e-06,9.99999e-01
5.991161043e-01,5.03808e-06,9.99999e-01,9.99999e-01,9.86298e-01,5.10807e-06,9.99999e-01
6.021116848e-01,6.44739e-06,9.99999e-01,9.99999e-01,9.92206e-01,6.49803e-06,9.99999e-01
6.051222432e-01,8.19451e-06,9.99999e-01,9.99999e-01,9.96049e-01,8.22701e-06,9.99999e-01
6.081478544e-01,1.03499e-05,9.99999e-01,9.99999e-01,9.98293e-01,1.03676e-05,9.99999e-01
6.111885937e-01,1.29962e-05,9.99999e-01,9.99999e-01,9.99278e-01,1.30056e-05,9.99999e-01
6.142445367e-01,1.62368e-05,9.99999e-01,9.99999e-01,9.99677e-01,1.62420e-05,9.99999e-01
6.173157594e-01,2.01913e-05,9.99999e-01,9.99999e-01,9.99821e-01,2.01949e-05,9.99999e-01
6.204023382e-01,2.49982e-05,9.99999e-01,9.99999e-01,9.99848e-01,2.50020e-05,9.99999e-01
6.235043498e-01,3.08025e-05,9.99999e-01,9.99999e-01,9.99331e-01,3.08230e-05,9.99999e-01
6.266218716e-01,3.77098e-05,9.99999e-01,9.99999e-01,9.96488e-01,3.78426e-05,9.99999e-01
6.297549810e-01,4.62133e-05,9.99999e-01,9.99999e-01,9.98710e-01,4.62729e-05,9.99999e-01
6.329037559e-01,5.62136e-05,9.99999e-01,9.99999e-01,9.97456e-01,5.63570e-05,9.99999e-01
6.360682746e-01,6.82234e-05,9.99999e-01,9.99999e-01,9.97829e-01,6.83718e-05,9.99999e-01
6.392486160e-01,8.23999e-05,9.99999e-01,9.99999e-01,9.97190e-01,8.26320e-05,9.99999e-01
6.424448591e-01,9.91184e-05,9.99999e-01,9.99999e-01,9.96228e-01,9.94936e-05,9.99999e-01
6.456570834e-01,1.17283e-04,9.99999e-01,9.99999e-01,9.82625e-01,1.19357e-04,9.99999e-01
6.488853688e-01,1.40863e-04,9.99999e-01,9.99999e-01,9.87316e-01,1.42673e-04,9.99999e-01
6.521297956e-01,1.67747e-04,9.99999e-01,9.99999e-01,9.87082e-01,1.69942e-04,9.99999e-01
6.553904446e-01,1.99122e-04,9.99999e-01,9.99999e-01,9.87088e-01,2.01726e-04,9.99999e-01
6.586673968e-01,2.36011e-04,9.99999e-01,9.99999e-01,9.88960e-01,2.38645e-04,9.99999e-01
6.619607338e-01,2.79649e-04,9.99999e-01,9.99999e-01,9.93829e-01,2.81385e-04,9.99999e-01
6.652705375e-01,3.29475e-04,9.99999e-01,9.99999e-01,9.96292e-01,3.30701e-04,9.99999e-01
6.685968902e-01,3.86813e-04,9.99999e-01,9.99999e-01,9.98422e-01,3.87423e-04,9.99999e-01
6.719398746e-01,4.52096e-04,9.99999e-01,9.99999e-01,9.99201e-01,4.52457e-04,9.99999e-01
6.752995740e-01,5.26563e-04,9.99999e-01,9.99999e-01,9.99566e-01,5.26791e-04,9.99999e-01
6.786760719e-01,6.11113e-04,9.99999e-01,9.99999e-01,9.99372e-01,6.11497e-04,9.99999e-01
6.820694522e-01,7.06976e-04,9.99999e-01,9.99999e-01,9.98927e-01,7.07735e-04,9.99999e-01
6.854797995e-01,8.15628e-04,9.99999e-01,9.99999e-01,9.98616e-01,8.16758e-04,9.99999e-01
6.889071985e-01,9.36750e-04,9.99999e-01,9.99999e-01,9.96634e-01,9.39912e-04,9.99999e-01
6.923517345e-01,1.02126e-03,9.99999e-01,9.99999e-01,9.46803e-01,1.07864e-03,9.99998e-01
6.958134932e-01,1.20023e-03,9.99999e-01,9.99999e-01,9.72255e-01,1.23448e-03,9.99998e-01
6.992925606e-01,1.37147e-03,9.99999e-01,9.99999e-01,9.73307e-01,1.40908e-03,9.99998e-01
7.027890234e-01,1.55162e-03,9.99999e-01,9.99999e-01,9.67243e-01,1.60417e-03,9.99998e-01
7.063029686e-01,1.77122e-03,9.99999e-01,9.99999e-01,9.72344e-01,1.82160e-03,9.99998e-01
7.098344834e-01,2.00851e-03,9.99999e-01,9.99999e-01,9.73438e-01,2.06332e-03,9.99998e-01
7.133836558e-01,2.24910e-03,9.99999e-01,9.99999e-01,9.64716e-01,2.33137e-03,9.99998e-01
7.169505741e-01,1.98442e-03,9.99999e-01,9.99999e-01,7.55141e-01,2.62789e-03,9.99996e-01
7.205353270e-01,2.57490e-03,9.99999e-01,9.99999e-01,8.71338e-01,2.95512e-03,9.99995e-01
7.241380036e-01,2.77845e-03,9.99999e-01,9.99999e-01,8.38042e-01,3.31542e-03,9.99995e-01
7.277586936e-01,3.16480e-03,9.99999e-01,9.99999e-01,8.52774e-01,3.71119e-03,9.99996e-01
7.313974871e-01,3.49664e-03,9.99999e-01,9.99999e-01,8.43588e-01,4.14497e-03,9.99997e-01
7.350544745e-01,4.20760e-03,9.99999e-01,9.99999e-01,9.10863e-01,4.61936e-03,9.99998e-01
7.387297469e-01,4.79489e-03,9.99999e-01,9.99999e-01,9.33397e-01,5.13703e-03,9.99998e-01
7.424233956e-01,5.51155e-03,9.99999e-01,9.99999e-01,9.66813e-01,5.70074e-03,9.99999e-01
7.461355126e-01,6.18536e-03,9.99999e-01,9.99999e-01,9.79733e-01,6.31331e-03,9.99999e-01
7.498661902e-01,6.91149e-03,9.99999e-01,9.99999e-01,9.90522e-01,6.97762e-03,9.99999e-01
7.536155211e-01,7.66070e-03,9.99999e-01,9.99999e-01,9.95334e-01,7.69661e-03,9.99999e-01
7.573835987e-01,8.45289e-03,9.99999e-01,9.99999e-01,9.97596e-01,8.47325e-03,9.99999e-01
7.611705167e-01,9.29666e-03,9.99999e-01,9.99999e-01,9.98505e-01,9.31057e-03,9.99999e-01
7.649763693e-01,1.02020e-02,9.99999e-01,9.99999e-01,9.99062e-01,1.02116e-02,9.99999e-01
7.688012511e-01,1.11721e-02,9.99999e-01,9.99999e-01,9.99346e-01,1.11794e-02,9.99999e-01
7.726452574e-01,1.22105e-02,9.99999e-01,9.99999e-01,9.99462e-01,1.22171e-02,9.99999e-01
7.765084837e-01,1.33175e-02,9.99999e-01,9.99999e-01,9.99233e-01,1.33277e-02,9.99999e-01
7.803910261e-01,1.24842e-02,9.99999e-01,8.62637e-01,9.96690e-01,1.45143e-02,9.99999e-01
7.842929812e-01,7.03183e-03,9.99999e-01,4.49845e-01,9.88498e-01,1.57799e-02,9.99999e-01
7.882144461e-01,7.30177e-03,9.99999e-01,4.34973e-01,9.76520e-01,1.71276e-02,9.99999e-01
7.921555184e-01,1.07143e-02,9.99999e-01,5.83976e-01,9.87091e-01,1.85603e-02,9.99999e-01
7.961162960e-01,1.35948e-02,9.99999e-01,6.92026e-01,9.77201e-01,2.00810e-02,9.99999e-01
8.000968774e-01,1.72951e-02,9.99999e-01,8.18454e-01,9.73726e-01,2.16925e-02,9.99998e-01
8.040973618e-01,2.05376e-02,9.99999e-01,9.01186e-01,9.73718e-01,2.33976e-02,9.99998e-01
8.081178486e-01,2.26330e-02,9.99999e-01,9.53164e-01,9.41846e-01,2.51991e-02,9.99998e-01
8.121584379e-01,2.08915e-02,9.99999e-01,9.85354e-01,7.81745e-01,2.70995e-02,9.99996e-01
8.162192301e-01,2.17169e-02,9.99999e-01,9.96745e-01,7.48443e-01,2.91014e-02,9.99995e-01
8.203003262e-01,2.71119e-02,9.99999e-01,9.99953e-01,8.68795e-01,3.12072e-02,9.99995e-01
8.244018279e-01,2.76010e-02,9.99999e-01,9.99999e-01,8.25902e-01,3.34193e-02,9.99995e-01
8.285238370e-01,2.99975e-02,9.99999e-01,9.99999e-01,8.39332e-01,3.57398e-02,9.99996e-01
8.326664562e-01,3.20050e-02,9.99999e-01,9.99999e-01,8.38469e-01,3.81708e-02,9.99997e-01
8.368297885e-01,3.58569e-02,9.99999e-01,9.99999e-01,8.80700e-01,4.07142e-02,9.99998e-01
8.410139374e-01,4.02109e-02,9.99999e-01,9.99999e-01,9.27123e-01,4.33717e-02,9.99999e-01
8.452190071e-01,4.44617e-02,9.99999e-01,9.99999e-01,9.63521e-01,4.61450e-02,9.99999e-01
8.494451021e-01,4.79873e-02,9.99999e-01,9.99999e-01,9.78620e-01,4.90356e-02,9.99999e-01
8.536923276e-01,5.13850e-02,9.99999e-01,9.99999e-01,9.87321e-01,5.20448e-02,9.99999e-01
8.579607893e-01,5.47414e-02,9.99999e-01,9.99999e-01,9.92163e-01,5.51737e-02,9.99999e-01
8.622505932e-01,5.81324e-02,9.99999e-01,9.99999e-01,9.95019e-01,5.84233e-02,9.99999e-01
8.665618462e-01,5.11039e-02,9.99999e-01,8.29354e-01,9.96912e-01,6.17944e-02,9.99999e-01
8.708946554e-01,9.66199e-03,9.99999e-01,1.48445e-01,9.96461e-01,6.52876e-02,9.99999e-01
8.752491287e-01,1.30964e-02,9.99999e-01,1.90877e-01,9.95270e-01,6.89034e-02,9.99999e-01
8.796253743e-01,2.81945e-02,9.99999e-01,3.90357e-01,9.93449e-01,7.26421e-02,9.99999e-01
8.840235012e-01,4.57992e-02,9.99999e-01,6.02799e-01,9.92524e-01,7.65037e-02,9.99998e-01
8.884436187e-01,6.40633e-02,9.99999e-01,8.16790e-01,9.73028e-01,8.04883e-02,9.99998e-01
8.928858368e-01,5.90689e-02,9.99999e-01,9.20756e-01,7.55226e-01,8.45955e-02,9.99995e-01
8.973502660e-01,5.34393e-02,9.99999e-01,9.80176e-01,6.12475e-01,8.88249e-02,9.99993e-01
9.018370173e-01,7.24725e-02,9.99999e-01,9.97797e-01,7.79251e-01,9.31759e-02,9.99992e-01
9.063462024e-01,7.46551e-02,9.99999e-01,9.46478e-01,8.00405e-01,9.76478e-02,9.99991e-01
9.108779334e-01,6.40512e-02,9.99999e-01,8.78283e-01,7.07658e-01,1.02240e-01,9.99990e-01
9.154323231e-01,7.00993e-02,9.99999e-01,9.70066e-01,6.73418e-01,1.06950e-01,9.99989e-01
9.200094847e-01,6.23264e-02,9.99999e-01,7.15291e-01,7.35413e-01,1.11778e-01,9.99986e-01
9.246095321e-01,4.10200e-02,9.99999e-01,5.34065e-01,6.33368e-01,1.16723e-01,9.99977e-01
9.292325798e-01,6.29291e-03,9.99999e-01,6.21322e-01,7.29083e-02,1.21781e-01,9.99952e-01
9.338787427e-01,2.65694e-03,9.99999e-01,6.25294e-01,2.96794e-02,1.26953e-01,9.99938e-01
9.385481364e-01,2.36302e-02,9.99999e-01,7.04156e-01,2.37620e-01,1.32236e-01,9.99936e-01
9.432408771e-01,1.72892e-02,9.99999e-01,8.04789e-01,1.50006e-01,1.37627e-01,9.99928e-01
9.479570815e-01,8.78226e-03,9.99999e-01,8.94215e-01,6.72180e-02,1.43125e-01,9.99938e-01
9.526968669e-01,1.73183e-02,9.99999e-01,9.47664e-01,1.21223e-01,1.48728e-01,9.99953e-01
9.574603512e-01,2.00864e-02,9.99999e-01,9.77230e-01,1.32303e-01,1.54433e-01,9.99964e-01
9.622476530e-01,2.94283e-02,9.99999e-01,9.92840e-01,1.84641e-01,1.60238e-01,9.99976e-01
9.670588912e-01,6.14832e-02,9.99999e-01,9.97851e-01,3.70679e-01,1.66139e-01,9.99984e-01
9.718941857e-01,8.94695e-02,9.99999e-01,9.99849e-01,5.19818e-01,1.72135e-01,9.99990e-01
9.767536566e-01,1.03358e-01,9.99999e-01,9.99999e-01,5.79938e-01,1.78223e-01,9.99993e-01
9.816374249e-01,1.22656e-01,9.99999e-01,9.99999e-01,6.65169e-01,1.84399e-01,9.99995e-01
9.865456120e-01,1.47542e-01,9.99999e-01,9.99999e-01,7.73845e-01,1.90661e-01,9.99997e-01
9.914783401e-01,1.67997e-01,9.99999e-01,9.99999e-01,8.52752e-01,1.97006e-01,9.99998e-01
9.964357318e-01,1.86519e-01,9.99999e-01,9.99999e-01,9.16871e-01,2.03430e-01,9.99999e-01
1.001417910e+00,1.99278e-01,9.99999e-01,9.99999e-01,9.49257e-01,2.09930e-01,9.99999e-01
1.006425000e+00,2.10162e-01,9.99999e-01,9.99999e-01,9.70706e-01,2.16504e-01,9.99999e-01
1.011457125e+00,2.19073e-01,9.99999e-01,9.99999e-01,9.81738e-01,2.23147e-01,9.99999e-01
1.016514411e+00,2.26998e-01,9.99999e-01,9.99999e-01,9.87557e-01,2.29858e-01,9.99999e-01
1.021596983e+00,2.34207e-01,9.99999e-01,9.99678e-01,9.90070e-01,2.36631e-01,9.99999e-01
1.026704968e+00,2.36298e-01,9.99999e-01,9.78094e-01,9.92246e-01,2.43464e-01,9.99999e-01
1.031838492e+00,2.13360e-01,9.99999e-01,8.56699e-01,9.94364e-01,2.50354e-01,9.99999e-01
1.036997685e+00,5.57218e-03,9.99999e-01,2.17110e-02,9.96645e-01,2.57297e-01,9.99999e-01
1.042182673e+00,3.64282e-05,9.99999e-01,1.38226e-04,9.95995e-01,2.64290e-01,9.99999e-01
1.047393587e+00,9.97076e-05,9.99999e-01,3.69032e-04,9.94697e-01,2.71329e-01,9.99999e-01
1.052630555e+00,2.20072e-11,9.99999e-01,7.93990e-11,9.92726e-01,2.78410e-01,9.99999e-01
1.057893707e+00,8.31406e-11,9.99999e-01,2.92798e-10,9.87880e-01,2.85532e-01,9.99999e-01
1.063183176e+00,4.71460e-08,9.99999e-01,1.62754e-07,9.80154e-01,2.92689e-01,9.99999e-01
1.068499092e+00,1.43258e-06,9.99999e-01,4.85814e-06,9.67026e-01,2.99879e-01,9.99999e-01
1.073841587e+00,8.94753e-05,9.99999e-01,2.98472e-04,9.61576e-01,3.07098e-01,9.99998e-01
1.079210795e+00,1.99060e-03,9.99999e-01,6.55886e-03,9.51026e-01,3.14344e-01,9.99998e-01
1.084606849e+00,1.61428e-02,9.99999e-01,5.33580e-02,9.26896e-01,3.21612e-01,9.99997e-01
1.090029883e+00,6.36587e-02,9.99999e-01,2.12632e-01,8.96873e-01,3.28900e-01,9.99995e-01
1.095480033e+00,1.17865e-01,9.99999e-01,4.63200e-01,7.44036e-01,3.36204e-01,9.99992e-01
1.100957433e+00,1.15660e-01,9.99999e-01,6.87134e-01,4.79734e-01,3.43522e-01,9.99986e-01
1.106462220e+00,5.38596e-02,9.99999e-01,8.55809e-01,1.75203e-01,3.50849e-01,9.99971e-01
1.111994531e+00,1.00658e-02,9.99999e-01,9.43752e-01,2.93293e-02,3.58183e-01,9.99942e-01
1.117554504e+00,1.67581e-03,9.99999e-01,9.85994e-01,4.61337e-03,3.65521e-01,9.99919e-01
1.123142276e+00,1.03126e-02,9.99999e-01,9.99077e-01,2.76618e-02,3.72860e-01,9.99904e-01
1.128757988e+00,2.73760e-02,9.99999e-01,9.99999e-01,7.20120e-02,3.80197e-01,9.99896e-01
1.134401778e+00,1.34153e-02,9.99999e-01,9.99999e-01,3.46215e-02,3.87530e-01,9.99884e-01
1.140073787e+00,7.36105e-02,9.99999e-01,9.99999e-01,1.86442e-01,3.94854e-01,9.99906e-01
1.145774156e+00,1.80095e-02,9.99999e-01,9.99999e-01,4.47845e-02,4.02169e-01,9.99920e-01
1.151503026e+00,1.26576e-02,9.99999e-01,9.99999e-01,3.09142e-02,4.09470e-01,9.99931e-01
1.157260541e+00,1.65264e-02,9.99999e-01,9.99999e-01,3.96569e-02,4.16756e-01,9.99948e-01
1.163046844e+00,3.80789e-02,9.99999e-01,9.99999e-01,8.98066e-02,4.24024e-01,9.99966e-01
1.168862078e+00,7.46964e-02,9.99999e-01,9.99999e-01,1.73203e-01,4.31271e-01,9.99983e-01
1.174706389e+00,1.47189e-01,9.99999e-01,9.99999e-01,3.35671e-01,4.38495e-01,9.99991e-01
1.180579921e+00,2.27539e-01,9.99999e-01,9.99999e-01,5.10530e-01,4.45694e-01,9.99994e-01
1.186482820e+00,3.07914e-01,9.99999e-01,9.99954e-01,6.79947e-01,4.52865e-01,9.99995e-01
1.192415234e+00,3.42335e-01,9.99999e-01,9.29190e-01,7.97301e-01,4.60007e-01,9.99995e-01
1.198377311e+00,1.86373e-01,9.99999e-01,4.67271e-01,8.26257e-01,4.67117e-01,9.99996e-01
1.204369197e+00,1.88335e-55,9.99999e-01,4.41016e-55,8.35777e-01,4.74193e-01,9.99996e-01
1.210391043e+00,1.08578e-230,9.99999e-01,2.48425e-230,8.41794e-01,4.81234e-01,9.99997e-01
1.216442998e+00,2.37864e-199,9.99999e-01,5.33723e-199,8.63831e-01,4.88237e-01,9.99998e-01
1.222525213e+00,2.57799e-196,9.99999e-01,5.52290e-196,8.91892e-01,4.95200e-01,9.99998e-01
1.228637839e+00,5.28244e-151,9.99999e-01,1.10983e-150,9.23540e-01,5.02122e-01,9.99999e-01
