#,Wave/freq,Total,O2,CO2,H2O,Rayleigh,CIA
4.000000000e-01,1.05741e-11,9.99999e-01,9.99999e-01,9.99950e-01,1.05746e-11,9.99999e-01
4.020000000e-01,1.74288e-11,9.99999e-01,9.99999e-01,9.99969e-01,1.74294e-11,9.99999e-01
4.040100000e-01,2.84307e-11,9.99999e-01,9.99999e-01,9.99986e-01,2.84311e-11,9.99999e-01
4.060300500e-01,4.59309e-11,9.99999e-01,9.99999e-01,9.99996e-01,4.59311e-11,9.99999e-01
4.080602003e-01,7.35030e-11,9.99999e-01,9.99999e-01,9.99998e-01,7.35031e-11,9.99999e-01
4.101005013e-01,1.16539e-10,9.99999e-01,9.99999e-01,9.99999e-01,1.16539e-10,9.99999e-01
4.121510038e-01,1.83097e-10,9.99999e-01,9.99999e-01,9.99997e-01,1.83098e-10,9.99999e-01
4.142117588e-01,2.85110e-10,9.99999e-01,9.99999e-01,9.99985e-01,2.85114e-10,9.99999e-01
4.162828176e-01,4.40078e-10,9.99999e-01,9.99999e-01,9.99938e-01,4.40105e-10,9.99999e-01
4.183642317e-01,6.73524e-10,9.99999e-01,9.99999e-01,9.99963e-01,6.73549e-10,9.99999e-01
4.204560528e-01,1.02217e-09,9.99999e-01,9.99999e-01,9.99977e-01,1.02219e-09,9.99999e-01
4.225583331e-01,1.53855e-09,9.99999e-01,9.99999e-01,9.99991e-01,1.53856e-09,9.99999e-01
4.246711247e-01,2.29715e-09,9.99999e-01,9.99999e-01,9.99992e-01,2.29716e-09,9.99999e-01
4.267944804e-01,3.40271e-09,9.99999e-01,9.99999e-01,9.99989e-01,3.40275e-09,9.99999e-01
4.289284528e-01,5.00143e-09,9.99999e-01,9.99999e-01,9.99991e-01,5.00146e-09,9.99999e-01
4.310730950e-01,7.29557e-09,9.99999e-01,9.99999e-01,9.99996e-01,7.29559e-09,9.99999e-01
4.332284605e-01,1.05629e-08,9.99999e-01,9.99999e-01,9.99998e-01,1.05629e-08,9.99999e-01
4.353946028e-01,1.51822e-08,9.99999e-01,9.99999e-01,9.99999e-01,1.51822e-08,9.99999e-01
4.375715758e-01,2.16656e-08,9.99999e-01,9.99999e-01,9.99993e-01,2.16657e-08,9.99999e-01
4.397594337e-01,3.06999e-08,9.99999e-01,9.99999e-01,9.99945e-01,3.07016e-08,9.99999e-01
4.419582309e-01,4.31954e-08,9.99999e-01,9.99999e-01,9.99722e-01,4.32074e-08,9.99999e-01
4.441680220e-01,6.03854e-08,9.99999e-01,9.99999e-01,9.99787e-01,6.03982e-08,9.99999e-01
4.463888621e-01,8.38533e-08,9.99999e-01,9.99999e-01,9.99777e-01,8.38719e-08,9.99999e-01
4.486208064e-01,1.15700e-07,9.99999e-01,9.99999e-01,9.99862e-01,1.15716e-07,9.99999e-01
4.508639105e-01,1.58628e-07,9.99999e-01,9.99999e-01,9.99935e-01,1.58638e-07,9.99999e-01
4.531182300e-01,2.16125e-07,9.99999e-01,9.99999e-01,9.99974e-01,2.16131e-07,9.99999e-01
4.553838212e-01,2.92661e-07,9.99999e-01,9.99999e-01,9.99982e-01,2.92666e-07,9.99999e-01
4.576607403e-01,3.93935e-07,9.99999e-01,9.99999e-01,9.99991e-01,3.93938e-07,9.99999e-01
4.599490440e-01,5.27147e-07,9.99999e-01,9.99999e-01,9.99993e-01,5.27150e-07,9.99999e-01
4.622487892e-01,7.01360e-07,9.99999e-01,9.99999e-01,9.99998e-01,7.01360e-07,9.99999e-01
4.645600332e-01,9.27892e-07,9.99999e-01,9.99999e-01,9.99995e-01,9.27896e-07,9.99999e-01
4.668828333e-01,1.22075e-06,9.99999e-01,9.99999e-01,9.99933e-01,1.22083e-06,9.99999e-01
4.692172475e-01,1.59735e-06,9.99999e-01,9.99999e-01,9.99860e-01,1.59757e-06,9.99999e-01
4.715633337e-01,2.07929e-06,9.99999e-01,9.99999e-01,9.99908e-01,2.07948e-06,9.99999e-01
4.739211504e-01,2.69248e-06,9.99999e-01,9.99999e-01,9.99912e-01,2.69271e-06,9.99999e-01
4.762907561e-01,3.46887e-06,9.99999e-01,9.99999e-01,9.99954e-01,3.46902e-06,9.99999e-01
4.786722099e-01,4.44676e-06,9.99999e-01,9.99999e-01,9.99981e-01,4.44684e-06,9.99999e-01
4.810655710e-01,5.67236e-06,9.99999e-01,9.99999e-01,9.99993e-01,5.67239e-06,9.99999e-01
4.834708988e-01,7.20059e-06,9.99999e-01,9.99999e-01,9.99945e-01,7.20099e-06,9.99999e-01
4.858882533e-01,9.09764e-06,9.99999e-01,9.99999e-01,9.99901e-01,9.09853e-06,9.99999e-01
4.883176946e-01,1.14422e-05,9.99999e-01,9.99999e-01,9.99916e-01,1.14431e-05,9.99999e-01
4.907592831e-01,1.43258e-05,9.99999e-01,9.99999e-01,9.99925e-01,1.43268e-05,9.99999e-01
4.932130795e-01,1.78569e-05,9.99999e-01,9.99999e-01,9.99946e-01,1.78578e-05,9.99999e-01
4.956791449e-01,2.21618e-05,9.99999e-01,9.99999e-01,9.99971e-01,2.21624e-05,9.99999e-01
4.981575406e-01,2.73836e-05,9.99999e-01,9.99999e-01,9.99858e-01,2.73875e-05,9.99999e-01
5.006483283e-01,3.36909e-05,9.99999e-01,9.99999e-01,9.99633e-01,3.37032e-05,9.99999e-01
5.031515699e-01,4.12297e-05,9.99999e-01,9.99999e-01,9.98157e-01,4.13058e-05,9.99999e-01
5.056673278e-01,5.03715e-05,9.99999e-01,9.99999e-01,9.99030e-01,5.04203e-05,9.99999e-01
5.081956644e-01,6.12293e-05,9.99999e-01,9.99999e-01,9.98777e-01,6.13042e-05,9.99999e-01
5.107366428e-01,7.41889e-05,9.99999e-01,9.99999e-01,9.99175e-01,7.42502e-05,9.99999e-01
5.132903260e-01,8.95482e-05,9.99999e-01,9.99999e-01,9.99529e-01,8.95904e-05,9.99999e-01
5.158567776e-01,1.07678e-04,9.99999e-01,9.99999e-01,9.99801e-01,1.07700e-04,9.99999e-01
5.184360615e-01,1.28989e-04,9.99999e-01,9.99999e-01,9.99920e-01,1.28999e-04,9.99999e-01
5.210282418e-01,1.53957e-04,9.99999e-01,9.99999e-01,9.99969e-01,1.53962e-04,9.99999e-01
5.236333830e-01,1.83092e-04,9.99999e-01,9.99999e-01,9.99879e-01,1.83114e-04,9.99999e-01
5.262515499e-01,2.17025e-04,9.99999e-01,9.99999e-01,9.99924e-01,2.17041e-04,9.99999e-01
5.288828077e-01,2.56374e-04,9.99999e-01,9.99999e-01,9.99930e-01,2.56392e-04,9.99999e-01
5.315272217e-01,3.01864e-04,9.99999e-01,9.99999e-01,9.99939e-01,3.01882e-04,9.99999e-01
5.341848578e-01,3.54284e-04,9.99999e-01,9.99999e-01,9.99959e-01,3.54298e-04,9.99999e-01
5.368557821e-01,4.14445e-04,9.99999e-01,9.99999e-01,9.99859e-01,4.14503e-04,9.99999e-01
5.395400610e-01,4.83191e-04,9.99999e-01,9.99999e-01,9.99490e-01,4.83437e-04,9.99999e-01
5.422377613e-01,5.61760e-04,9.99999e-01,9.99999e-01,9.99350e-01,5.62124e-04,9.99999e-01
5.449489501e-01,6.51279e-04,9.99999e-01,9.99999e-01,9.99391e-01,6.51675e-04,9.99999e-01
5.476736949e-01,7.52887e-04,9.99999e-01,9.99999e-01,9.99465e-01,7.53290e-04,9.99999e-01
5.504120634e-01,8.67923e-04,9.99999e-01,9.99999e-01,9.99611e-01,8.68260e-04,9.99999e-01
5.531641237e-01,9.97779e-04,9.99999e-01,9.99999e-01,9.99804e-01,9.97973e-04,9.99999e-01
5.559299443e-01,1.14381e-03,9.99999e-01,9.99999e-01,9.99905e-01,1.14392e-03,9.99999e-01
5.587095940e-01,1.30759e-03,9.99999e-01,9.99999e-01,9.99940e-01,1.30767e-03,9.99999e-01
5.615031420e-01,1.49082e-03,9.99999e-01,9.99999e-01,9.99933e-01,1.49092e-03,9.99999e-01
5.643106577e-01,1.69532e-03,9.99999e-01,9.99999e-01,9.99923e-01,1.69545e-03,9.99999e-01
5.671322110e-01,1.92137e-03,9.99999e-01,9.99999e-01,9.99074e-01,1.92315e-03,9.99999e-01
5.699678720e-01,2.17393e-03,9.99999e-01,9.99999e-01,9.99040e-01,2.17601e-03,9.99999e-01
5.728177114e-01,2.45364e-03,9.99999e-01,9.99999e-01,9.98990e-01,2.45612e-03,9.99999e-01
5.756818000e-01,2.76310e-03,9.99999e-01,9.99999e-01,9.99075e-01,2.76566e-03,9.99999e-01
5.785602090e-01,3.10441e-03,9.99999e-01,9.99999e-01,9.99195e-01,3.10691e-03,9.99999e-01
5.814530100e-01,3.47945e-03,9.99999e-01,9.99999e-01,9.99190e-01,3.48226e-03,9.99999e-01
5.843602750e-01,3.89040e-03,9.99999e-01,9.99999e-01,9.99028e-01,3.89418e-03,9.99999e-01
5.872820764e-01,4.30899e-03,9.99999e-01,9.99999e-01,9.91662e-01,4.34521e-03,9.99999e-01
5.902184868e-01,4.78955e-03,9.99999e-01,9.99999e-01,9.89983e-01,4.83801e-03,9.99999e-01
5.931695792e-01,5.33709e-03,9.99999e-01,9.99999e-01,9.92898e-01,5.37527e-03,9.99999e-01
5.961354271e-01,5.91348e-03,9.99999e-01,9.99999e-01,9.92230e-01,5.95978e-03,9.99999e-01
5.991161043e-01,6.55703e-03,9.99999e-01,9.99999e-01,9.94333e-01,6.59439e-03,9.99999e-01
6.021116848e-01,7.25861e-03,9.99999e-01,9.99999e-01,9.96785e-01,7.28201e-03,9.99999e-01
6.051222432e-01,8.01254e-03,9.99999e-01,9.99999e-01,9.98372e-01,8.02560e-03,9.99999e-01
6.081478544e-01,8.82194e-03,9.99999e-01,9.99999e-01,9.99297e-01,8.82814e-03,9.99999e-01
6.111885937e-01,9.68979e-03,9.99999e-01,9.99999e-01,9.99703e-01,9.69267e-03,9.99999e-01
6.142445367e-01,1.06208e-02,9.99999e-01,9.99999e-01,9.99866e-01,1.06222e-02,9.99999e-01
6.173157594e-01,1.16191e-02,9.99999e-01,9.99999e-01,9.99926e-01,1.16199e-02,9.99999e-01
6.204023382e-01,1.26880e-02,9.99999e-01,9.99999e-01,9.99937e-01,1.26888e-02,9.99999e-01
6.235043498e-01,1.38281e-02,9.99999e-01,9.99999e-01,9.99721e-01,1.38319e-02,9.99999e-01
6.266218716e-01,1.50305e-02,9.99999e-01,9.99999e-01,9.98550e-01,1.50524e-02,9.99999e-01
6.297549810e-01,1.63445e-02,9.99999e-01,9.99999e-01,9.99467e-01,1.63531e-02,9.99999e-01
6.329037559e-01,1.77187e-02,9.99999e-01,9.99999e-01,9.98951e-01,1.77373e-02,9.99999e-01
6.360682746e-01,1.91905e-02,9.99999e-01,9.99999e-01,9.99103e-01,1.92077e-02,9.99999e-01
6.392486160e-01,2.07433e-02,9.99999e-01,9.99999e-01,9.98840e-01,2.07674e-02,9.99999e-01
6.424448591e-01,2.23840e-02,9.99999e-01,9.99999e-01,9.98436e-01,2.24191e-02,9.99999e-01
6.456570834e-01,2.39907e-02,9.99999e-01,9.99999e-01,9.92762e-01,2.41656e-02,9.99999e-01
6.488853688e-01,2.58730e-02,9.99999e-01,9.99999e-01,9.94751e-01,2.60095e-02,9.99999e-01
6.521297956e-01,2.78041e-02,9.99999e-01,9.99999e-01,9.94651e-01,2.79536e-02,9.99999e-01
6.553904446e-01,2.98397e-02,9.99999e-01,9.99999e-01,9.94650e-01,3.00002e-02,9.99999e-01
6.586673968e-01,3.20051e-02,9.99999e-01,9.99999e-01,9.95436e-01,3.21518e-02,9.99999e-01
6.619607338e-01,3.43230e-02,9.99999e-01,9.99999e-01,9.97455e-01,3.44105e-02,9.99999e-01
6.652705375e-01,3.67224e-02,9.99999e-01,9.99999e-01,9.98471e-01,3.67786e-02,9.99999e-01
6.685968902e-01,3.92325e-02,9.99999e-01,9.99999e-01,9.99350e-01,3.92580e-02,9.99999e-01
6.719398746e-01,4.18369e-02,9.99999e-01,9.99999e-01,9.99670e-01,4.18506e-02,9.99999e-01
6.752995740e-01,4.45504e-02,9.99999e-01,9.99999e-01,9.99825e-01,4.45581e-02,9.99999e-01
6.786760719e-01,4.73697e-02,9.99999e-01,9.99999e-01,9.99739e-01,4.73820e-02,9.99999e-01
6.820694522e-01,5.03015e-02,9.99999e-01,9.99999e-01,9.99557e-01,5.03238e-02,9.99999e-01
6.854797995e-01,5.33542e-02,9.99999e-01,9.99999e-01,9.99428e-01,5.33847e-02,9.99999e-01
6.889071985e-01,5.64865e-02,9.99999e-01,9.99999e-01,9.98598e-01,5.65657e-02,9.99999e-01
6.923517345e-01,5.85242e-02,9.99999e-01,9.99999e-01,9.77556e-01,5.98678e-02,9.99999e-01
6.958134932e-01,6.25638e-02,9.99999e-01,9.99999e-01,9.88498e-01,6.32917e-02,9.99999e-01
6.992925606e-01,6.60928e-02,9.99999e-01,9.99999e-01,9.88851e-01,6.68380e-02,9.99999e-01
7.027890234e-01,6.95447e-02,9.99999e-01,9.99999e-01,9.86351e-01,7.05070e-02,9.99999e-01
7.063029686e-01,7.34445e-02,9.99999e-01,9.99999e-01,9.88501e-01,7.42989e-02,9.99999e-01
7.098344834e-01,7.73506e-02,9.99999e-01,9.99999e-01,9.88963e-01,7.82138e-02,9.99999e-01
7.133836558e-01,8.10311e-02,9.99999e-01,9.99999e-01,9.85163e-01,8.22514e-02,9.99998e-01
7.169505741e-01,7.67274e-02,9.99999e-01,9.99999e-01,8.87929e-01,8.64116e-02,9.99998e-01
7.205353270e-01,8.56434e-02,9.99999e-01,9.99999e-01,9.44315e-01,9.06938e-02,9.99997e-01
7.241380036e-01,8.83196e-02,9.99999e-01,9.99999e-01,9.28730e-01,9.50972e-02,9.99997e-01
7.277586936e-01,9.31985e-02,9.99999e-01,9.99999e-01,9.35529e-01,9.96212e-02,9.99998e-01
7.313974871e-01,9.71599e-02,9.99999e-01,9.99999e-01,9.31860e-01,1.04265e-01,9.99998e-01
7.350544745e-01,1.04893e-01,9.99999e-01,9.99999e-01,9.62093e-01,1.09026e-01,9.99998e-01
7.387297469e-01,1.10711e-01,9.99999e-01,9.99999e-01,9.71962e-01,1.13905e-01,9.99999e-01
7.424233956e-01,1.17259e-01,9.99999e-01,9.99999e-01,9.86208e-01,1.18899e-01,9.99999e-01
7.461355126e-01,1.22966e-01,9.99999e-01,9.99999e-01,9.91607e-01,1.24007e-01,9.99999e-01
7.498661902e-01,1.28722e-01,9.99999e-01,9.99999e-01,9.96095e-01,1.29227e-01,9.99999e-01
7.536155211e-01,1.34298e-01,9.99999e-01,9.99999e-01,9.98077e-01,1.34557e-01,9.99999e-01
7.573835987e-01,1.39856e-01,9.99999e-01,9.99999e-01,9.99010e-01,1.39995e-01,9.99999e-01
7.611705167e-01,1.45449e-01,9.99999e-01,9.99999e-01,9.99384e-01,1.45538e-01,9.99999e-01
7.649763693e-01,1.51127e-01,9.99999e-01,9.99999e-01,9.99613e-01,1.51186e-01,9.99999e-01
7.688012511e-01,1.56892e-01,9.99999e-01,9.99999e-01,9.99730e-01,1.56934e-01,9.99999e-01
7.726452574e-01,1.62745e-01,9.99999e-01,9.99999e-01,9.99778e-01,1.62781e-01,9.99999e-01
7.765084837e-01,1.68671e-01,9.99999e-01,9.99999e-01,9.99682e-01,1.68724e-01,9.99999e-01
7.803910261e-01,1.61586e-01,9.99999e-01,9.25801e-01,9.98628e-01,1.74760e-01,9.99999e-01
7.842929812e-01,1.26610e-01,9.99999e-01,7.02969e-01,9.95217e-01,1.80886e-01,9.99999e-01
7.882144461e-01,1.27314e-01,9.99999e-01,6.86597e-01,9.90246e-01,1.87100e-01,9.99999e-01
7.921555184e-01,1.53222e-01,9.99999e-01,7.96286e-01,9.94667e-01,1.93398e-01,9.99999e-01
7.961162960e-01,1.69899e-01,9.99999e-01,8.58434e-01,9.90492e-01,1.99777e-01,9.99999e-01
8.000968774e-01,1.87755e-01,9.99999e-01,9.20375e-01,9.89079e-01,2.06235e-01,9.99999e-01
8.040973618e-01,2.01620e-01,9.99999e-01,9.58034e-01,9.89063e-01,2.12768e-01,9.99999e-01
8.081178486e-01,2.09804e-01,9.99999e-01,9.80427e-01,9.75397e-01,2.19372e-01,9.99998e-01
8.121584379e-01,2.02649e-01,9.99999e-01,9.93972e-01,9.01811e-01,2.26045e-01,9.99998e-01
8.162192301e-01,2.05906e-01,9.99999e-01,9.98665e-01,8.85674e-01,2.32783e-01,9.99997e-01
8.203003262e-01,2.25448e-01,9.99999e-01,9.99981e-01,9.41018e-01,2.39582e-01,9.99997e-01
8.244018279e-01,2.26889e-01,9.99999e-01,9.99999e-01,9.20664e-01,2.46440e-01,9.99997e-01
8.285238370e-01,2.35503e-01,9.99999e-01,9.99999e-01,9.29544e-01,2.53354e-01,9.99998e-01
8.326664562e-01,2.41870e-01,9.99999e-01,9.99999e-01,9.29129e-01,2.60318e-01,9.99998e-01
8.368297885e-01,2.53645e-01,9.99999e-01,9.99999e-01,9.48803e-01,2.67332e-01,9.99998e-01
8.410139374e-01,2.65954e-01,9.99999e-01,9.99999e-01,9.69256e-01,2.74389e-01,9.99999e-01
8.452190071e-01,2.77216e-01,9.99999e-01,9.99999e-01,9.84819e-01,2.81489e-01,9.99999e-01
8.494451021e-01,2.86067e-01,9.99999e-01,9.99999e-01,9.91134e-01,2.88626e-01,9.99999e-01
8.536923276e-01,2.94250e-01,9.99999e-01,9.99999e-01,9.94764e-01,2.95798e-01,9.99999e-01
8.579607893e-01,3.02021e-01,9.99999e-01,9.99999e-01,9.96764e-01,3.03001e-01,9.99999e-01
8.622505932e-01,3.09596e-01,9.99999e-01,9.99999e-01,9.97947e-01,3.10232e-01,9.99999e-01
8.665618462e-01,2.78483e-01,9.99999e-01,8.78194e-01,9.98725e-01,3.17488e-01,9.99999e-01
8.708946554e-01,1.34785e-01,9.99999e-01,4.15587e-01,9.98538e-01,3.24765e-01,9.99999e-01
8.752491287e-01,1.60996e-01,9.99999e-01,4.85733e-01,9.98046e-01,3.32061e-01,9.99999e-01
8.796253743e-01,2.26063e-01,9.99999e-01,6.67817e-01,9.97287e-01,3.39371e-01,9.99999e-01
8.840235012e-01,2.79603e-01,9.99999e-01,8.08902e-01,9.96905e-01,3.46693e-01,9.99999e-01
8.884436187e-01,3.21993e-01,9.99999e-01,9.19776e-01,9.88591e-01,3.54023e-01,9.99998e-01
8.928858368e-01,3.10333e-01,9.99999e-01,9.66569e-01,8.87860e-01,3.61360e-01,9.99997e-01
8.973502660e-01,2.97119e-01,9.99999e-01,9.91818e-01,8.12189e-01,3.68699e-01,9.99996e-01
9.018370173e-01,3.38153e-01,9.99999e-01,9.99097e-01,9.00008e-01,3.76037e-01,9.99996e-01
9.063462024e-01,3.41285e-01,9.99999e-01,9.76617e-01,9.09956e-01,3.83373e-01,9.99996e-01
9.108779334e-01,3.20336e-01,9.99999e-01,9.47708e-01,8.63826e-01,3.90702e-01,9.99995e-01
9.154323231e-01,3.33057e-01,9.99999e-01,9.87592e-01,8.46771e-01,3.98023e-01,9.99995e-01
9.200094847e-01,3.04649e-01,9.99999e-01,8.43646e-01,8.78348e-01,4.05332e-01,9.99994e-01
9.246095321e-01,2.61942e-01,9.99999e-01,7.69451e-01,8.17179e-01,4.12627e-01,9.99990e-01
9.292325798e-01,9.84300e-02,9.99999e-01,8.14874e-01,2.76591e-01,4.19905e-01,9.99979e-01
9.338787427e-01,7.05384e-02,9.99999e-01,8.20545e-01,1.94157e-01,4.27164e-01,9.99973e-01
9.385481364e-01,1.96070e-01,9.99999e-01,8.63968e-01,5.13800e-01,4.34401e-01,9.99973e-01
9.432408771e-01,1.64432e-01,9.99999e-01,9.14268e-01,4.03357e-01,4.41615e-01,9.99970e-01
9.479570815e-01,1.24000e-01,9.99999e-01,9.54943e-01,2.87939e-01,4.48802e-01,9.99974e-01
9.526968669e-01,1.72255e-01,9.99999e-01,9.78075e-01,3.84890e-01,4.55961e-01,9.99980e-01
9.574603512e-01,1.85815e-01,9.99999e-01,9.90567e-01,4.04533e-01,4.63089e-01,9.99985e-01
9.622476530e-01,2.22934e-01,9.99999e-01,9.97051e-01,4.75363e-01,4.70185e-01,9.99990e-01
9.670588912e-01,3.09522e-01,9.99999e-01,9.99117e-01,6.49069e-01,4.77246e-01,9.99993e-01
9.718941857e-01,3.67742e-01,9.99999e-01,9.99938e-01,7.59415e-01,4.84270e-01,9.99995e-01
9.767536566e-01,3.90800e-01,9.99999e-01,9.99999e-01,7.95512e-01,4.91256e-01,9.99996e-01
9.816374249e-01,4.20454e-01,9.99999e-01,9.99999e-01,8.43943e-01,4.98202e-01,9.99997e-01
9.865456120e-01,4.54225e-01,9.99999e-01,9.99999e-01,8.99266e-01,5.05106e-01,9.99998e-01
9.914783401e-01,4.79388e-01,9.99999e-01,9.99999e-01,9.36365e-01,5.11966e-01,9.99999e-01
9.964357318e-01,5.00538e-01,9.99999e-01,9.99999e-01,9.64833e-01,5.18782e-01,9.99999e-01
1.001417910e+00,5.14397e-01,9.99999e-01,9.99999e-01,9.78777e-01,5.25550e-01,9.99999e-01
1.006425000e+00,5.25789e-01,9.99999e-01,9.99999e-01,9.87821e-01,5.32271e-01,9.99999e-01
1.011457125e+00,5.34870e-01,9.99999e-01,9.99999e-01,9.92442e-01,5.38943e-01,9.99999e-01
1.016514411e+00,5.42758e-01,9.99999e-01,9.99999e-01,9.94856e-01,5.45563e-01,9.99999e-01
1.021596983e+00,5.49790e-01,9.99999e-01,9.99857e-01,9.95897e-01,5.52132e-01,9.99999e-01
1.026704968e+00,5.51688e-01,9.99999e-01,9.90702e-01,9.96797e-01,5.58648e-01,9.99999e-01
1.031838492e+00,5.16180e-01,9.99999e-01,9.15432e-01,9.97676e-01,5.65110e-01,9.99999e-01
1.036997685e+00,3.71036e-02,9.99999e-01,6.49896e-02,9.98616e-01,5.71517e-01,9.99999e-01
1.042182673e+00,5.64403e-03,9.99999e-01,9.77987e-03,9.98344e-01,5.77868e-01,9.99999e-01
1.047393587e+00,1.19712e-02,9.99999e-01,2.05309e-02,9.97809e-01,5.84161e-01,9.99999e-01
1.052630555e+00,7.25796e-06,9.99999e-01,1.23173e-05,9.96991e-01,5.90397e-01,9.99999e-01
1.057893707e+00,2.71666e-05,9.99999e-01,4.56641e-05,9.94974e-01,5.96575e-01,9.99999e-01
1.063183176e+00,3.52093e-04,9.99999e-01,5.87136e-04,9.91751e-01,6.02693e-01,9.99999e-01
1.068499092e+00,2.45910e-03,9.99999e-01,4.07956e-03,9.86243e-01,6.08751e-01,9.99999e-01
1.073841587e+00,1.80456e-02,9.99999e-01,2.97160e-02,9.83899e-01,6.14748e-01,9.99999e-01
1.079210795e+00,6.65377e-02,9.99999e-01,1.09038e-01,9.79468e-01,6.20685e-01,9.99998e-01
1.084606849e+00,1.75310e-01,9.99999e-01,2.87845e-01,9.69046e-01,6.26560e-01,9.99998e-01
1.090029883e+00,3.15960e-01,9.99999e-01,5.21330e-01,9.55637e-01,6.32372e-01,9.99997e-01
1.095480033e+00,4.10300e-01,9.99999e-01,7.25115e-01,8.83957e-01,6.38123e-01,9.99996e-01
1.100957433e+00,4.05243e-01,9.99999e-01,8.55996e-01,7.32507e-01,6.43810e-01,9.99994e-01
1.106462220e+00,2.82707e-01,9.99999e-01,9.37742e-01,4.61878e-01,6.49434e-01,9.99987e-01
1.111994531e+00,1.31280e-01,9.99999e-01,9.76434e-01,2.04548e-01,6.54995e-01,9.99976e-01
1.117554504e+00,5.36618e-02,9.99999e-01,9.94224e-01,8.15556e-02,6.60493e-01,9.99966e-01
1.123142276e+00,1.16843e-01,9.99999e-01,9.99622e-01,1.75480e-01,6.65926e-01,9.99960e-01
1.128757988e+00,2.04975e-01,9.99999e-01,9.99999e-01,3.05355e-01,6.71296e-01,9.99957e-01
1.134401778e+00,9.56702e-02,9.99999e-01,9.99999e-01,1.41405e-01,6.76601e-01,9.99951e-01
1.140073787e+00,3.27642e-01,9.99999e-01,9.99999e-01,4.80543e-01,6.81842e-01,9.99961e-01
1.145774156e+00,1.59970e-01,9.99999e-01,9.99999e-01,2.32853e-01,6.87020e-01,9.99966e-01
1.151503026e+00,1.38357e-01,9.99999e-01,9.99999e-01,1.99906e-01,6.92133e-01,9.99971e-01
1.157260541e+00,1.69597e-01,9.99999e-01,9.99999e-01,2.43266e-01,6.97182e-01,9.99978e-01
1.163046844e+00,2.45482e-01,9.99999e-01,9.99999e-01,3.49610e-01,7.02167e-01,9.99986e-01
1.168862078e+00,3.35686e-01,9.99999e-01,9.99999e-01,4.74747e-01,7.07088e-01,9.99992e-01
1.174706389e+00,4.49088e-01,9.99999e-01,9.99999e-01,6.30791e-01,7.11946e-01,9.99996e-01
1.180579921e+00,5.40864e-01,9.99999e-01,9.99999e-01,7.54618e-01,7.16739e-01,9.99997e-01
1.186482820e+00,6.14820e-01,9.99999e-01,9.99978e-01,8.52193e-01,7.21470e-01,9.99997e-01
1.192415234e+00,6.40540e-01,9.99999e-01,9.67808e-01,9.10667e-01,7.26137e-01,9.99997e-01
1.198377311e+00,3.61883e-01,9.99999e-01,5.28875e-01,9.24068e-01,7.30742e-01,9.99998e-01
1.204369197e+00,3.48839e-24,9.99999e-01,4.95357e-24,9.28186e-01,7.35284e-01,9.99998e-01
1.210391043e+00,2.00929e-96,9.99999e-01,2.82609e-96,9.31151e-01,7.39763e-01,9.99998e-01
1.216442998e+00,1.66599e-83,9.99999e-01,2.32449e-83,9.41235e-01,7.44181e-01,9.99998e-01
1.222525213e+00,2.97637e-82,9.99999e-01,4.07432e-82,9.53865e-01,7.48537e-01,9.99999e-01
1.228637839e+00,1.55445e-63,9.99999e-01,2.11109e-63,9.67709e-01,7.52832e-01,9.99999e-01
