#,Wave/freq,Total,O2,CO2,H2O,Rayleigh,CIA
4.000000000e-01,4.29733e-04,9.99999e-01,9.99999e-01,9.99984e-01,4.29739e-04,9.99999e-01
4.020000000e-01,5.00922e-04,9.99999e-01,9.99999e-01,9.99990e-01,5.00927e-04,9.99999e-01
4.040100000e-01,5.82050e-04,9.99999e-01,9.99999e-01,9.99995e-01,5.82053e-04,9.99999e-01
4.060300500e-01,6.74313e-04,9.99999e-01,9.99999e-01,9.99998e-01,6.74314e-04,9.99999e-01
4.080602003e-01,7.78933e-04,9.99999e-01,9.99999e-01,9.99999e-01,7.78933e-04,9.99999e-01
4.101005013e-01,8.97223e-04,9.99999e-01,9.99999e-01,9.99999e-01,8.97223e-04,9.99999e-01
4.121510038e-01,1.03060e-03,9.99999e-01,9.99999e-01,9.99998e-01,1.03060e-03,9.99999e-01
4.142117588e-01,1.18055e-03,9.99999e-01,9.99999e-01,9.99995e-01,1.18056e-03,9.99999e-01
4.162828176e-01,1.34869e-03,9.99999e-01,9.99999e-01,9.99980e-01,1.34872e-03,9.99999e-01
4.183642317e-01,1.53676e-03,9.99999e-01,9.99999e-01,9.99988e-01,1.53678e-03,9.99999e-01
4.204560528e-01,1.74655e-03,9.99999e-01,9.99999e-01,9.99992e-01,1.74656e-03,9.99999e-01
4.225583331e-01,1.97996e-03,9.99999e-01,9.99999e-01,9.99996e-01,1.97996e-03,9.99999e-01
4.246711247e-01,2.23900e-03,9.99999e-01,9.99999e-01,9.99997e-01,2.23900e-03,9.99999e-01
4.267944804e-01,2.52579e-03,9.99999e-01,9.99999e-01,9.99996e-01,2.52579e-03,9.99999e-01
4.289284528e-01,2.84253e-03,9.99999e-01,9.99999e-01,9.99997e-01,2.84254e-03,9.99999e-01
4.310730950e-01,3.19155e-03,9.99999e-01,9.99999e-01,9.99998e-01,3.19156e-03,9.99999e-01
4.332284605e-01,3.57523e-03,9.99999e-01,9.99999e-01,9.99999e-01,3.57523e-03,9.99999e-01
4.353946028e-01,3.99607e-03,9.99999e-01,9.99999e-01,9.99999e-01,3.99607e-03,9.99999e-01
4.375715758e-01,4.45662e-03,9.99999e-01,9.99999e-01,9.99997e-01,4.45663e-03,9.99999e-01
4.397594337e-01,4.95949e-03,9.99999e-01,9.99999e-01,9.99982e-01,4.95957e-03,9.99999e-01
4.419582309e-01,5.50717e-03,9.99999e-01,9.99999e-01,9.99914e-01,5.50763e-03,9.99999e-01
4.441680220e-01,6.10321e-03,9.99999e-01,9.99999e-01,9.99934e-01,6.10361e-03,9.99999e-01
4.463888621e-01,6.74990e-03,9.99999e-01,9.99999e-01,9.99931e-01,6.75036e-03,9.99999e-01
4.486208064e-01,7.45049e-03,9.99999e-01,9.99999e-01,9.99957e-01,7.45080e-03,9.99999e-01
4.508639105e-01,8.20774e-03,9.99999e-01,9.99999e-01,9.99979e-01,8.20790e-03,9.99999e-01
4.531182300e-01,9.02460e-03,9.99999e-01,9.99999e-01,9.99991e-01,9.02467e-03,9.99999e-01
4.553838212e-01,9.90408e-03,9.99999e-01,9.99999e-01,9.99994e-01,9.90414e-03,9.99999e-01
4.576607403e-01,1.08493e-02,9.99999e-01,9.99999e-01,9.99997e-01,1.08494e-02,9.99999e-01
4.599490440e-01,1.18634e-02,9.99999e-01,9.99999e-01,9.99997e-01,1.18634e-02,9.99999e-01
4.622487892e-01,1.29494e-02,9.99999e-01,9.99999e-01,9.99999e-01,1.29494e-02,9.99999e-01
4.645600332e-01,1.41103e-02,9.99999e-01,9.99999e-01,9.99998e-01,1.41103e-02,9.99999e-01
4.668828333e-01,1.53490e-02,9.99999e-01,9.99999e-01,9.99979e-01,1.53493e-02,9.99999e-01
4.692172475e-01,1.66686e-02,9.99999e-01,9.99999e-01,9.99956e-01,1.66693e-02,9.99999e-01
4.715633337e-01,1.80728e-02,9.99999e-01,9.99999e-01,9.99971e-01,1.80733e-02,9.99999e-01
4.739211504e-01,1.95639e-02,9.99999e-01,9.99999e-01,9.99972e-01,1.95644e-02,9.99999e-01
4.762907561e-01,2.11450e-02,9.99999e-01,9.99999e-01,9.99985e-01,2.11453e-02,9.99999e-01
4.786722099e-01,2.28188e-02,9.99999e-01,9.99999e-01,9.99993e-01,2.28189e-02,9.99999e-01
4.810655710e-01,2.45880e-02,9.99999e-01,9.99999e-01,9.99997e-01,2.45880e-02,9.99999e-01
4.834708988e-01,2.64547e-02,9.99999e-01,9.99999e-01,9.99982e-01,2.64552e-02,9.99999e-01
4.858882533e-01,2.84221e-02,9.99999e-01,9.99999e-01,9.99969e-01,2.84230e-02,9.99999e-01
4.883176946e-01,3.04932e-02,9.99999e-01,9.99999e-01,9.99974e-01,3.04939e-02,9.99999e-01
4.907592831e-01,3.26696e-02,9.99999e-01,9.99999e-01,9.99976e-01,3.26704e-02,9.99999e-01
4.932130795e-01,3.49539e-02,9.99999e-01,9.99999e-01,9.99983e-01,3.49545e-02,9.99999e-01
4.956791449e-01,3.73481e-02,9.99999e-01,9.99999e-01,9.99990e-01,3.73484e-02,9.99999e-01
4.981575406e-01,3.98524e-02,9.99999e-01,9.99999e-01,9.99956e-01,3.98542e-02,9.99999e-01
5.006483283e-01,4.24687e-02,9.99999e-01,9.99999e-01,9.99887e-01,4.24735e-02,9.99999e-01
5.031515699e-01,4.51825e-02,9.99999e-01,9.99999e-01,9.99434e-01,4.52081e-02,9.99999e-01
5.056673278e-01,4.80451e-02,9.99999e-01,9.99999e-01,9.99702e-01,4.80594e-02,9.99999e-01
5.081956644e-01,5.10098e-02,9.99999e-01,9.99999e-01,9.99624e-01,5.10290e-02,9.99999e-01
5.107366428e-01,5.41042e-02,9.99999e-01,9.99999e-01,9.99746e-01,5.41179e-02,9.99999e-01
5.132903260e-01,5.73189e-02,9.99999e-01,9.99999e-01,9.99855e-01,5.73271e-02,9.99999e-01
5.158567776e-01,6.06540e-02,9.99999e-01,9.99999e-01,9.99938e-01,6.06577e-02,9.99999e-01
5.184360615e-01,6.41086e-02,9.99999e-01,9.99999e-01,9.99975e-01,6.41101e-02,9.99999e-01
5.210282418e-01,6.76845e-02,9.99999e-01,9.99999e-01,9.99990e-01,6.76851e-02,9.99999e-01
5.236333830e-01,7.13802e-02,9.99999e-01,9.99999e-01,9.99962e-01,7.13828e-02,9.99999e-01
5.262515499e-01,7.52017e-02,9.99999e-01,9.99999e-01,9.99976e-01,7.52035e-02,9.99999e-01
5.288828077e-01,7.91454e-02,9.99999e-01,9.99999e-01,9.99978e-01,7.91471e-02,9.99999e-01
5.315272217e-01,8.32119e-02,9.99999e-01,9.99999e-01,9.99981e-01,8.32135e-02,9.99999e-01
5.341848578e-01,8.74012e-02,9.99999e-01,9.99999e-01,9.99987e-01,8.74022e-02,9.99999e-01
5.368557821e-01,9.17089e-02,9.99999e-01,9.99999e-01,9.99956e-01,9.17128e-02,9.99999e-01
5.395400610e-01,9.61295e-02,9.99999e-01,9.99999e-01,9.99843e-01,9.61445e-02,9.99999e-01
5.422377613e-01,1.00676e-01,9.99999e-01,9.99999e-01,9.99800e-01,1.00696e-01,9.99999e-01
5.449489501e-01,1.05348e-01,9.99999e-01,9.99999e-01,9.99813e-01,1.05368e-01,9.99999e-01
5.476736949e-01,1.10139e-01,9.99999e-01,9.99999e-01,9.99835e-01,1.10157e-01,9.99999e-01
5.504120634e-01,1.15049e-01,9.99999e-01,9.99999e-01,9.99880e-01,1.15063e-01,9.99999e-01
5.531641237e-01,1.20076e-01,9.99999e-01,9.99999e-01,9.99939e-01,1.20083e-01,9.99999e-01
5.559299443e-01,1.25214e-01,9.99999e-01,9.99999e-01,9.99970e-01,1.25218e-01,9.99999e-01
5.587095940e-01,1.30461e-01,9.99999e-01,9.99999e-01,9.99981e-01,1.30463e-01,9.99999e-01
5.615031420e-01,1.35816e-01,9.99999e-01,9.99999e-01,9.99979e-01,1.35819e-01,9.99999e-01
5.643106577e-01,1.41278e-01,9.99999e-01,9.99999e-01,9.99976e-01,1.41282e-01,9.99999e-01
5.671322110e-01,1.46808e-01,9.99999e-01,9.99999e-01,9.99716e-01,1.46850e-01,9.99999e-01
5.699678720e-01,1.52476e-01,9.99999e-01,9.99999e-01,9.99704e-01,1.52521e-01,9.99999e-01
5.728177114e-01,1.58244e-01,9.99999e-01,9.99999e-01,9.99689e-01,1.58293e-01,9.99999e-01
5.756818000e-01,1.64116e-01,9.99999e-01,9.99999e-01,9.99715e-01,1.64163e-01,9.99999e-01
5.785602090e-01,1.70085e-01,9.99999e-01,9.99999e-01,9.99752e-01,1.70127e-01,9.99999e-01
5.814530100e-01,1.76141e-01,9.99999e-01,9.99999e-01,9.99751e-01,1.76185e-01,9.99999e-01
5.843602750e-01,1.82278e-01,9.99999e-01,9.99999e-01,9.99701e-01,1.82332e-01,9.99999e-01
5.872820764e-01,1.88082e-01,9.99999e-01,9.99999e-01,9.97433e-01,1.88565e-01,9.99999e-01
5.902184868e-01,1.94282e-01,9.99999e-01,9.99999e-01,9.96914e-01,1.94883e-01,9.99999e-01
5.931695792e-01,2.00841e-01,9.99999e-01,9.99999e-01,9.97813e-01,2.01281e-01,9.99999e-01
5.961354271e-01,2.07259e-01,9.99999e-01,9.99999e-01,9.97608e-01,2.07756e-01,9.99999e-01
5.991161043e-01,2.13932e-01,9.99999e-01,9.99999e-01,9.98257e-01,2.14306e-01,9.99999e-01
6.021116848e-01,2.20708e-01,9.99999e-01,9.99999e-01,9.99011e-01,2.20926e-01,9.99999e-01
6.051222432e-01,2.27501e-01,9.99999e-01,9.99999e-01,9.99499e-01,2.27615e-01,9.99999e-01
6.081478544e-01,2.34317e-01,9.99999e-01,9.99999e-01,9.99783e-01,2.34367e-01,9.99999e-01
6.111885937e-01,2.41159e-01,9.99999e-01,9.99999e-01,9.99908e-01,2.41181e-01,9.99999e-01
6.142445367e-01,2.48042e-01,9.99999e-01,9.99999e-01,9.99958e-01,2.48053e-01,9.99999e-01
6.173157594e-01,2.54972e-01,9.99999e-01,9.99999e-01,9.99977e-01,2.54978e-01,9.99999e-01
6.204023382e-01,2.61950e-01,9.99999e-01,9.99999e-01,9.99980e-01,2.61955e-01,9.99999e-01
6.235043498e-01,2.68955e-01,9.99999e-01,9.99999e-01,9.99914e-01,2.68978e-01,9.99999e-01
6.266218716e-01,2.75923e-01,9.99999e-01,9.99999e-01,9.99554e-01,2.76046e-01,9.99999e-01
6.297549810e-01,2.83109e-01,9.99999e-01,9.99999e-01,9.99836e-01,2.83155e-01,9.99999e-01
6.329037559e-01,2.90207e-01,9.99999e-01,9.99999e-01,9.99677e-01,2.90300e-01,9.99999e-01
6.360682746e-01,2.97398e-01,9.99999e-01,9.99999e-01,9.99724e-01,2.97480e-01,9.99999e-01
6.392486160e-01,3.04582e-01,9.99999e-01,9.99999e-01,9.99643e-01,3.04690e-01,9.99999e-01
6.424448591e-01,3.11778e-01,9.99999e-01,9.99999e-01,9.99520e-01,3.11927e-01,9.99999e-01
6.456570834e-01,3.18478e-01,9.99999e-01,9.99999e-01,9.97774e-01,3.19188e-01,9.99999e-01
6.488853688e-01,3.25943e-01,9.99999e-01,9.99999e-01,9.98384e-01,3.26470e-01,9.99999e-01
6.521297956e-01,3.33220e-01,9.99999e-01,9.99999e-01,9.98353e-01,3.33769e-01,9.99999e-01
6.553904446e-01,3.40522e-01,9.99999e-01,9.99999e-01,9.98355e-01,3.41082e-01,9.99999e-01
6.586673968e-01,3.47918e-01,9.99999e-01,9.99999e-01,9.98596e-01,3.48407e-01,9.99999e-01
6.619607338e-01,3.55461e-01,9.99999e-01,9.99999e-01,9.99217e-01,3.55739e-01,9.99999e-01
6.652705375e-01,3.62906e-01,9.99999e-01,9.99999e-01,9.99530e-01,3.63076e-01,9.99999e-01
6.685968902e-01,3.70341e-01,9.99999e-01,9.99999e-01,9.99800e-01,3.70415e-01,9.99999e-01
6.719398746e-01,3.77715e-01,9.99999e-01,9.99999e-01,9.99898e-01,3.77753e-01,9.99999e-01
6.752995740e-01,3.85067e-01,9.99999e-01,9.99999e-01,9.99946e-01,3.85087e-01,9.99999e-01
6.786760719e-01,3.92384e-01,9.99999e-01,9.99999e-01,9.99919e-01,3.92415e-01,9.99999e-01
6.820694522e-01,3.99679e-01,9.99999e-01,9.99999e-01,9.99863e-01,3.99733e-01,9.99999e-01
6.854797995e-01,4.06968e-01,9.99999e-01,9.99999e-01,9.99824e-01,4.07039e-01,9.99999e-01
6.889071985e-01,4.14153e-01,9.99999e-01,9.99999e-01,9.99570e-01,4.14330e-01,9.99999e-01
6.923517345e-01,4.18676e-01,9.99999e-01,9.99999e-01,9.93053e-01,4.21604e-01,9.99999e-01
6.958134932e-01,4.27333e-01,9.99999e-01,9.99999e-01,9.96442e-01,4.28859e-01,9.99999e-01
6.992925606e-01,4.34593e-01,9.99999e-01,9.99999e-01,9.96565e-01,4.36091e-01,9.99999e-01
7.027890234e-01,4.41431e-01,9.99999e-01,9.99999e-01,9.95788e-01,4.43298e-01,9.99999e-01
7.063029686e-01,4.48883e-01,9.99999e-01,9.99999e-01,9.96456e-01,4.50479e-01,9.99999e-01
7.098344834e-01,4.56075e-01,9.99999e-01,9.99999e-01,9.96599e-01,4.57631e-01,9.99999e-01
7.133836558e-01,4.62625e-01,9.99999e-01,9.99999e-01,9.95423e-01,4.64752e-01,9.99999e-01
7.169505741e-01,4.54766e-01,9.99999e-01,9.99999e-01,9.63815e-01,4.71840e-01,9.99999e-01
7.205353270e-01,4.70468e-01,9.99999e-01,9.99999e-01,9.82409e-01,4.78892e-01,9.99999e-01
7.241380036e-01,4.74942e-01,9.99999e-01,9.99999e-01,9.77431e-01,4.85908e-01,9.99998e-01
7.277586936e-01,4.82843e-01,9.99999e-01,9.99999e-01,9.79627e-01,4.92884e-01,9.99999e-01
7.313974871e-01,4.89063e-01,9.99999e-01,9.99999e-01,9.78476e-01,4.99821e-01,9.99999e-01
7.350544745e-01,5.00724e-01,9.99999e-01,9.99999e-01,9.88178e-01,5.06714e-01,9.99999e-01
7.387297469e-01,5.09095e-01,9.99999e-01,9.99999e-01,9.91297e-01,5.13564e-01,9.99999e-01
7.424233956e-01,5.18154e-01,9.99999e-01,9.99999e-01,9.95742e-01,5.20369e-01,9.99999e-01
7.461355126e-01,5.25764e-01,9.99999e-01,9.99999e-01,9.97415e-01,5.27127e-01,9.99999e-01
7.498661902e-01,5.33195e-01,9.99999e-01,9.99999e-01,9.98798e-01,5.33836e-01,9.99999e-01
7.536155211e-01,5.40177e-01,9.99999e-01,9.99999e-01,9.99409e-01,5.40496e-01,9.99999e-01
7.573835987e-01,5.46938e-01,9.99999e-01,9.99999e-01,9.99695e-01,5.47104e-01,9.99999e-01
7.611705167e-01,5.53557e-01,9.99999e-01,9.99999e-01,9.99810e-01,5.53661e-01,9.99999e-01
7.649763693e-01,5.60098e-01,9.99999e-01,9.99999e-01,9.99881e-01,5.60164e-01,9.99999e-01
7.688012511e-01,5.66567e-01,9.99999e-01,9.99999e-01,9.99916e-01,5.66613e-01,9.99999e-01
7.726452574e-01,5.72968e-01,9.99999e-01,9.99999e-01,9.99931e-01,5.73007e-01,9.99999e-01
7.765084837e-01,5.79288e-01,9.99999e-01,9.99999e-01,9.99902e-01,5.79345e-01,9.99999e-01
7.803910261e-01,5.69701e-01,9.99999e-01,9.73206e-01,9.99578e-01,5.85625e-01,9.99999e-01
7.842929812e-01,5.27616e-01,9.99999e-01,8.92735e-01,9.98531e-01,5.91847e-01,9.99999e-01
7.882144461e-01,5.27567e-01,9.99999e-01,8.84778e-01,9.96996e-01,5.98011e-01,9.99999e-01
7.921555184e-01,5.61868e-01,9.99999e-01,9.31568e-01,9.98358e-01,6.04115e-01,9.99999e-01
7.961162960e-01,5.80408e-01,9.99999e-01,9.54013e-01,9.97073e-01,6.10159e-01,9.99999e-01
8.000968774e-01,5.98582e-01,9.99999e-01,9.74770e-01,9.96636e-01,6.16142e-01,9.99999e-01
8.040973618e-01,6.11850e-01,9.99999e-01,9.86899e-01,9.96631e-01,6.22064e-01,9.99999e-01
8.081178486e-01,6.19371e-01,9.99999e-01,9.93946e-01,9.92377e-01,6.27925e-01,9.99999e-01
8.121584379e-01,6.12686e-01,9.99999e-01,9.98142e-01,9.68590e-01,6.33723e-01,9.99999e-01
8.162192301e-01,6.15606e-01,9.99999e-01,9.99589e-01,9.63087e-01,6.39459e-01,9.99999e-01
8.203003262e-01,6.32946e-01,9.99999e-01,9.99993e-01,9.81117e-01,6.45131e-01,9.99998e-01
8.244018279e-01,6.33946e-01,9.99999e-01,9.99999e-01,9.74191e-01,6.50741e-01,9.99998e-01
8.285238370e-01,6.41669e-01,9.99999e-01,9.99999e-01,9.77725e-01,6.56287e-01,9.99999e-01
8.326664562e-01,6.46913e-01,9.99999e-01,9.99999e-01,9.77551e-01,6.61769e-01,9.99999e-01
8.368297885e-01,6.56485e-01,9.99999e-01,9.99999e-01,9.83957e-01,6.67188e-01,9.99999e-01
8.410139374e-01,6.66117e-01,9.99999e-01,9.99999e-01,9.90446e-01,6.72542e-01,9.99999e-01
8.452190071e-01,6.74655e-01,9.99999e-01,9.99999e-01,9.95311e-01,6.77833e-01,9.99999e-01
8.494451021e-01,6.81195e-01,9.99999e-01,9.99999e-01,9.97270e-01,6.83059e-01,9.99999e-01
8.536923276e-01,6.87113e-01,9.99999e-01,9.99999e-01,9.98389e-01,6.88221e-01,9.99999e-01
8.579607893e-01,6.92630e-01,9.99999e-01,9.99999e-01,9.99005e-01,6.93319e-01,9.99999e-01
8.622505932e-01,6.97913e-01,9.99999e-01,9.99999e-01,9.99369e-01,6.98353e-01,9.99999e-01
8.665618462e-01,6.58127e-01,9.99999e-01,9.36091e-01,9.99608e-01,7.03324e-01,9.99999e-01
8.708946554e-01,5.28932e-01,9.99999e-01,7.47162e-01,9.99551e-01,7.08230e-01,9.99999e-01
8.752491287e-01,5.64712e-01,9.99999e-01,7.92405e-01,9.99400e-01,7.13072e-01,9.99999e-01
8.796253743e-01,6.31682e-01,9.99999e-01,8.80678e-01,9.99167e-01,7.17852e-01,9.99999e-01
8.840235012e-01,6.75966e-01,9.99999e-01,9.36386e-01,9.99049e-01,7.22567e-01,9.99999e-01
8.884436187e-01,7.06238e-01,9.99999e-01,9.74550e-01,9.96482e-01,7.27220e-01,9.99999e-01
8.928858368e-01,6.98033e-01,9.99999e-01,9.89597e-01,9.63806e-01,7.31810e-01,9.99999e-01
8.973502660e-01,6.88419e-01,9.99999e-01,9.97476e-01,9.37253e-01,7.36337e-01,9.99998e-01
9.018370173e-01,7.16653e-01,9.99999e-01,9.99722e-01,9.67664e-01,7.40802e-01,9.99998e-01
9.063462024e-01,7.18518e-01,9.99999e-01,9.92668e-01,9.71143e-01,7.45205e-01,9.99998e-01
9.108779334e-01,7.04573e-01,9.99999e-01,9.83597e-01,9.55528e-01,7.49547e-01,9.99998e-01
9.154323231e-01,7.13236e-01,9.99999e-01,9.96160e-01,9.49741e-01,7.53827e-01,9.99998e-01
9.200094847e-01,6.88019e-01,9.99999e-01,9.43436e-01,9.60478e-01,7.58047e-01,9.99997e-01
9.246095321e-01,6.59662e-01,9.99999e-01,9.22103e-01,9.37495e-01,7.62206e-01,9.99996e-01
9.292325798e-01,4.70602e-01,9.99999e-01,9.37750e-01,6.51306e-01,7.66305e-01,9.99993e-01
9.338787427e-01,4.20188e-01,9.99999e-01,9.40352e-01,5.77049e-01,7.70344e-01,9.99991e-01
9.385481364e-01,5.94505e-01,9.99999e-01,9.55842e-01,8.01623e-01,7.74325e-01,9.99991e-01
9.432408771e-01,5.55063e-01,9.99999e-01,9.72810e-01,7.32283e-01,7.78247e-01,9.99990e-01
9.479570815e-01,5.01232e-01,9.99999e-01,9.85936e-01,6.49607e-01,7.82110e-01,9.99991e-01
9.526968669e-01,5.67268e-01,9.99999e-01,9.93206e-01,7.26385e-01,7.85916e-01,9.99993e-01
9.574603512e-01,5.87755e-01,9.99999e-01,9.97092e-01,7.46372e-01,7.89665e-01,9.99995e-01
9.622476530e-01,6.25361e-01,9.99999e-01,9.99093e-01,7.88932e-01,7.93357e-01,9.99996e-01
9.670588912e-01,6.94987e-01,9.99999e-01,9.99728e-01,8.72240e-01,7.96992e-01,9.99997e-01
9.718941857e-01,7.35070e-01,9.99999e-01,9.99980e-01,9.18197e-01,8.00573e-01,9.99998e-01
9.767536566e-01,7.49102e-01,9.99999e-01,9.99999e-01,9.31606e-01,8.04098e-01,9.99998e-01
9.816374249e-01,7.66372e-01,9.99999e-01,9.99999e-01,9.48987e-01,8.07568e-01,9.99998e-01
9.865456120e-01,7.84903e-01,9.99999e-01,9.99999e-01,9.67839e-01,8.10985e-01,9.99999e-01
9.914783401e-01,7.98059e-01,9.99999e-01,9.99999e-01,9.79997e-01,8.14348e-01,9.99999e-01
9.964357318e-01,8.08714e-01,9.99999e-01,9.99999e-01,9.89061e-01,8.17658e-01,9.99999e-01
1.001417910e+00,8.15526e-01,9.99999e-01,9.99999e-01,9.93433e-01,8.20916e-01,9.99999e-01
1.006425000e+00,8.21028e-01,9.99999e-01,9.99999e-01,9.96246e-01,8.24122e-01,9.99999e-01
1.011457125e+00,8.25352e-01,9.99999e-01,9.99999e-01,9.97673e-01,8.27276e-01,9.99999e-01
1.016514411e+00,8.29068e-01,9.99999e-01,9.99999e-01,9.98418e-01,8.30381e-01,9.99999e-01
1.021596983e+00,8.32349e-01,9.99999e-01,9.99956e-01,9.98738e-01,8.33435e-01,9.99999e-01
1.026704968e+00,8.33221e-01,9.99999e-01,9.97131e-01,9.99015e-01,8.36440e-01,9.99999e-01
1.031838492e+00,8.06363e-01,9.99999e-01,9.61312e-01,9.99285e-01,8.39396e-01,9.99999e-01
1.036997685e+00,1.65744e-01,9.99999e-01,1.96842e-01,9.99574e-01,8.42304e-01,9.99999e-01
1.042182673e+00,1.67491e-01,9.99999e-01,1.98267e-01,9.99491e-01,8.45164e-01,9.99999e-01
1.047393587e+00,1.73500e-01,9.99999e-01,2.04728e-01,9.99327e-01,8.47977e-01,9.99999e-01
1.052630555e+00,1.07139e-02,9.99999e-01,1.26023e-02,9.99075e-01,8.50743e-01,9.99999e-01
1.057893707e+00,2.42009e-02,9.99999e-01,2.83877e-02,9.98455e-01,8.53464e-01,9.99999e-01
1.063183176e+00,6.28368e-02,9.99999e-01,7.35364e-02,9.97461e-01,8.56139e-01,9.99999e-01
1.068499092e+00,1.43256e-01,9.99999e-01,1.67435e-01,9.95756e-01,8.58770e-01,9.99999e-01
1.073841587e+00,2.78445e-01,9.99999e-01,3.24683e-01,9.95026e-01,8.61356e-01,9.99999e-01
1.079210795e+00,4.21515e-01,9.99999e-01,4.90826e-01,9.93647e-01,8.63899e-01,9.99999e-01
1.084606849e+00,5.81368e-01,9.99999e-01,6.77303e-01,9.90383e-01,8.66399e-01,9.99999e-01
1.090029883e+00,7.00163e-01,9.99999e-01,8.16933e-01,9.86140e-01,8.68857e-01,9.99999e-01
1.095480033e+00,7.59629e-01,9.99999e-01,9.05334e-01,9.62731e-01,8.71273e-01,9.99998e-01
1.100957433e+00,7.56378e-01,9.99999e-01,9.53231e-01,9.07908e-01,8.73648e-01,9.99997e-01
1.106462220e+00,6.71484e-01,9.99999e-01,9.80418e-01,7.81431e-01,8.75982e-01,9.99995e-01
1.111994531e+00,5.20123e-01,9.99999e-01,9.92698e-01,5.96325e-01,8.78276e-01,9.99992e-01
1.117554504e+00,3.80860e-01,9.99999e-01,9.98220e-01,4.33197e-01,8.80530e-01,9.99989e-01
1.123142276e+00,4.77038e-01,9.99999e-01,9.99883e-01,5.40444e-01,8.82746e-01,9.99987e-01
1.128757988e+00,5.96460e-01,9.99999e-01,9.99999e-01,6.74032e-01,8.84923e-01,9.99986e-01
1.134401778e+00,3.70287e-01,9.99999e-01,9.99999e-01,4.17436e-01,8.87063e-01,9.99984e-01
1.140073787e+00,7.03017e-01,9.99999e-01,9.99999e-01,7.90656e-01,8.89165e-01,9.99987e-01
1.145774156e+00,5.46189e-01,9.99999e-01,9.99999e-01,6.12854e-01,8.91231e-01,9.99989e-01
1.151503026e+00,5.17026e-01,9.99999e-01,9.99999e-01,5.78812e-01,8.93260e-01,9.99990e-01
1.157260541e+00,5.68547e-01,9.99999e-01,9.99999e-01,6.35071e-01,8.95254e-01,9.99993e-01
1.163046844e+00,6.41971e-01,9.99999e-01,9.99999e-01,7.15519e-01,8.97213e-01,9.99995e-01
1.168862078e+00,7.12887e-01,9.99999e-01,9.99999e-01,7.92857e-01,8.99137e-01,9.99997e-01
1.174706389e+00,7.80771e-01,9.99999e-01,9.99999e-01,8.66535e-01,9.01027e-01,9.99998e-01
1.180579921e+00,8.27516e-01,9.99999e-01,9.99999e-01,9.16525e-01,9.02884e-01,9.99998e-01
1.186482820e+00,8.61225e-01,9.99999e-01,9.99993e-01,9.51942e-01,9.04708e-01,9.99998e-01
1.192415234e+00,8.71828e-01,9.99999e-01,9.89716e-01,9.71660e-01,9.06499e-01,9.99999e-01
1.198377311e+00,5.05972e-01,9.99999e-01,5.68500e-01,9.76027e-01,9.08258e-01,9.99999e-01
1.204369197e+00,5.59405e-09,9.99999e-01,6.22936e-09,9.77310e-01,9.09986e-01,9.99999e-01
1.210391043e+00,3.85833e-31,9.99999e-01,4.28393e-31,9.78299e-01,9.11683e-01,9.99999e-01
1.216442998e+00,3.54415e-27,9.99999e-01,3.92541e-27,9.81541e-01,9.13350e-01,9.99999e-01
1.222525213e+00,8.62518e-27,9.99999e-01,9.49738e-27,9.85595e-01,9.14987e-01,9.99999e-01
1.228637839e+00,1.00627e-20,9.99999e-01,1.10561e-20,9.89972e-01,9.16594e-01,9.99999e-01
