#,Wave/freq,Total,O2,CO2,H2O,Rayleigh,CIA
4.000000000e-01,1.37520e-12,9.99999e-01,9.99999e-01,9.99946e-01,1.37527e-12,9.99999e-01
4.020000000e-01,2.35997e-12,9.99999e-01,9.99999e-01,9.99966e-01,2.36005e-12,9.99999e-01
4.040100000e-01,4.00478e-12,9.99999e-01,9.99999e-01,9.99985e-01,4.00484e-12,9.99999e-01
4.060300500e-01,6.72528e-12,9.99999e-01,9.99999e-01,9.99996e-01,6.72530e-12,9.99999e-01
4.080602003e-01,1.11787e-11,9.99999e-01,9.99999e-01,9.99998e-01,1.11787e-11,9.99999e-01
4.101005013e-01,1.83956e-11,9.99999e-01,9.99999e-01,9.99999e-01,1.83956e-11,9.99999e-01
4.121510038e-01,2.99751e-11,9.99999e-01,9.99999e-01,9.99997e-01,2.99752e-11,9.99999e-01
4.142117588e-01,4.83744e-11,9.99999e-01,9.99999e-01,9.99984e-01,4.83751e-11,9.99999e-01
4.162828176e-01,7.73299e-11,9.99999e-01,9.99999e-01,9.99933e-01,7.73351e-11,9.99999e-01
4.183642317e-01,1.22487e-10,9.99999e-01,9.99999e-01,9.99960e-01,1.22492e-10,9.99999e-01
4.204560528e-01,1.92256e-10,9.99999e-01,9.99999e-01,9.99975e-01,1.92261e-10,9.99999e-01
4.225583331e-01,2.99091e-10,9.99999e-01,9.99999e-01,9.99990e-01,2.99094e-10,9.99999e-01
4.246711247e-01,4.61244e-10,9.99999e-01,9.99999e-01,9.99992e-01,4.61248e-10,9.99999e-01
4.267944804e-01,7.05245e-10,9.99999e-01,9.99999e-01,9.99988e-01,7.05252e-10,9.99999e-01
4.289284528e-01,1.06932e-09,9.99999e-01,9.99999e-01,9.99991e-01,1.06933e-09,9.99999e-01
4.310730950e-01,1.60808e-09,9.99999e-01,9.99999e-01,9.99996e-01,1.60809e-09,9.99999e-01
4.332284605e-01,2.39887e-09,9.99999e-01,9.99999e-01,9.99998e-01,2.39887e-09,9.99999e-01
4.353946028e-01,3.55036e-09,9.99999e-01,9.99999e-01,9.99999e-01,3.55037e-09,9.99999e-01
4.375715758e-01,5.21403e-09,9.99999e-01,9.99999e-01,9.99992e-01,5.21406e-09,9.99999e-01
4.397594337e-01,7.59901e-09,9.99999e-01,9.99999e-01,9.99940e-01,7.59945e-09,9.99999e-01
4.419582309e-01,1.09907e-08,9.99999e-01,9.99999e-01,9.99700e-01,1.09940e-08,9.99999e-01
4.441680220e-01,1.57857e-08,9.99999e-01,9.99999e-01,9.99770e-01,1.57893e-08,9.99999e-01
4.463888621e-01,2.25093e-08,9.99999e-01,9.99999e-01,9.99759e-01,2.25147e-08,9.99999e-01
4.486208064e-01,3.18756e-08,9.99999e-01,9.99999e-01,9.99851e-01,3.18804e-08,9.99999e-01
4.508639105e-01,4.48298e-08,9.99999e-01,9.99999e-01,9.99930e-01,4.48329e-08,9.99999e-01
4.531182300e-01,6.26231e-08,9.99999e-01,9.99999e-01,9.99972e-01,6.26248e-08,9.99999e-01
4.553838212e-01,8.69001e-08,9.99999e-01,9.99999e-01,9.99980e-01,8.69018e-08,9.99999e-01
4.576607403e-01,1.19811e-07,9.99999e-01,9.99999e-01,9.99990e-01,1.19812e-07,9.99999e-01
4.599490440e-01,1.64140e-07,9.99999e-01,9.99999e-01,9.99993e-01,1.64141e-07,9.99999e-01
4.622487892e-01,2.23477e-07,9.99999e-01,9.99999e-01,9.99998e-01,2.23477e-07,9.99999e-01
4.645600332e-01,3.02413e-07,9.99999e-01,9.99999e-01,9.99995e-01,3.02414e-07,9.99999e-01
4.668828333e-01,4.06767e-07,9.99999e-01,9.99999e-01,9.99928e-01,4.06796e-07,9.99999e-01
4.692172475e-01,5.43929e-07,9.99999e-01,9.99999e-01,9.99849e-01,5.44010e-07,9.99999e-01
4.715633337e-01,7.23272e-07,9.99999e-01,9.99999e-01,9.99901e-01,7.23343e-07,9.99999e-01
4.739211504e-01,9.56306e-07,9.99999e-01,9.99999e-01,9.99905e-01,9.56396e-07,9.99999e-01
4.762907561e-01,1.25752e-06,9.99999e-01,9.99999e-01,9.99950e-01,1.25758e-06,9.99999e-01
4.786722099e-01,1.64466e-06,9.99999e-01,9.99999e-01,9.99979e-01,1.64469e-06,9.99999e-01
4.810655710e-01,2.13958e-06,9.99999e-01,9.99999e-01,9.99993e-01,2.13959e-06,9.99999e-01
4.834708988e-01,2.76882e-06,9.99999e-01,9.99999e-01,9.99940e-01,2.76898e-06,9.99999e-01
4.858882533e-01,3.56494e-06,9.99999e-01,9.99999e-01,9.99893e-01,3.56532e-06,9.99999e-01
4.883176946e-01,4.56740e-06,9.99999e-01,9.99999e-01,9.99910e-01,4.56781e-06,9.99999e-01
4.907592831e-01,5.82314e-06,9.99999e-01,9.99999e-01,9.99919e-01,5.82361e-06,9.99999e-01
4.932130795e-01,7.38869e-06,9.99999e-01,9.99999e-01,9.99942e-01,7.38911e-06,9.99999e-01
4.956791449e-01,9.33120e-06,9.99999e-01,9.99999e-01,9.99969e-01,9.33148e-06,9.99999e-01
4.981575406e-01,1.17284e-05,9.99999e-01,9.99999e-01,9.99847e-01,1.17302e-05,9.99999e-01
5.006483283e-01,1.46733e-05,9.99999e-01,9.99999e-01,9.99604e-01,1.46791e-05,9.99999e-01
5.031515699e-01,1.82517e-05,9.99999e-01,9.99999e-01,9.98009e-01,1.82881e-05,9.99999e-01
5.056673278e-01,2.26620e-05,9.99999e-01,9.99999e-01,9.98952e-01,2.26858e-05,9.99999e-01
5.081956644e-01,2.79843e-05,9.99999e-01,9.99999e-01,9.98678e-01,2.80213e-05,9.99999e-01
5.107366428e-01,3.44370e-05,9.99999e-01,9.99999e-01,9.99108e-01,3.44677e-05,9.99999e-01
5.132903260e-01,4.22025e-05,9.99999e-01,9.99999e-01,9.99490e-01,4.22240e-05,9.99999e-01
5.158567776e-01,5.15077e-05,9.99999e-01,9.99999e-01,9.99784e-01,5.15187e-05,9.99999e-01
5.184360615e-01,6.26076e-05,9.99999e-01,9.99999e-01,9.99913e-01,6.26130e-05,9.99999e-01
5.210282418e-01,7.58013e-05,9.99999e-01,9.99999e-01,9.99967e-01,7.58038e-05,9.99999e-01
5.236333830e-01,9.14157e-05,9.99999e-01,9.99999e-01,9.99870e-01,9.14276e-05,9.99999e-01
5.262515499e-01,1.09855e-04,9.99999e-01,9.99999e-01,9.99918e-01,1.09864e-04,9.99999e-01
5.288828077e-01,1.31530e-04,9.99999e-01,9.99999e-01,9.99924e-01,1.31540e-04,9.99999e-01
5.315272217e-01,1.56924e-04,9.99999e-01,9.99999e-01,9.99934e-01,1.56934e-04,9.99999e-01
5.341848578e-01,1.86570e-04,9.99999e-01,9.99999e-01,9.99956e-01,1.86578e-04,9.99999e-01
5.368557821e-01,2.21032e-04,9.99999e-01,9.99999e-01,9.99848e-01,2.21065e-04,9.99999e-01
5.395400610e-01,2.60908e-04,9.99999e-01,9.99999e-01,9.99450e-01,2.61051e-04,9.99999e-01
5.422377613e-01,3.07043e-04,9.99999e-01,9.99999e-01,9.99297e-01,3.07259e-04,9.99999e-01
5.449489501e-01,3.60246e-04,9.99999e-01,9.99999e-01,9.99343e-01,3.60483e-04,9.99999e-01
5.476736949e-01,4.21351e-04,9.99999e-01,9.99999e-01,9.99422e-01,4.21594e-04,9.99999e-01
5.504120634e-01,4.91337e-04,9.99999e-01,9.99999e-01,9.99580e-01,4.91543e-04,9.99999e-01
5.531641237e-01,5.71241e-04,9.99999e-01,9.99999e-01,9.99788e-01,5.71362e-04,9.99999e-01
5.559299443e-01,6.62104e-04,9.99999e-01,9.99999e-01,9.99897e-01,6.62171e-04,9.99999e-01
5.587095940e-01,7.65131e-04,9.99999e-01,9.99999e-01,9.99935e-01,7.65180e-04,9.99999e-01
5.615031420e-01,8.81630e-04,9.99999e-01,9.99999e-01,9.99928e-01,8.81693e-04,9.99999e-01
5.643106577e-01,1.01302e-03,9.99999e-01,9.99999e-01,9.99917e-01,1.01311e-03,9.99999e-01
5.671322110e-01,1.15976e-03,9.99999e-01,9.99999e-01,9.99002e-01,1.16092e-03,9.99999e-01
5.699678720e-01,1.32534e-03,9.99999e-01,9.99999e-01,9.98962e-01,1.32672e-03,9.99999e-01
5.728177114e-01,1.51056e-03,9.99999e-01,9.99999e-01,9.98909e-01,1.51220e-03,9.99999e-01
5.756818000e-01,1.71746e-03,9.99999e-01,9.99999e-01,9.99001e-01,1.71917e-03,9.99999e-01
5.785602090e-01,1.94783e-03,9.99999e-01,9.99999e-01,9.99130e-01,1.94953e-03,9.99999e-01
5.814530100e-01,2.20333e-03,9.99999e-01,9.99999e-01,9.99125e-01,2.20526e-03,9.99999e-01
5.843602750e-01,2.48586e-03,9.99999e-01,9.99999e-01,9.98950e-01,2.48847e-03,9.99999e-01
5.872820764e-01,2.77616e-03,9.99999e-01,9.99999e-01,9.91002e-01,2.80137e-03,9.99999e-01
5.902184868e-01,3.11218e-03,9.99999e-01,9.99999e-01,9.89177e-01,3.14623e-03,9.99999e-01
5.931695792e-01,3.49841e-03,9.99999e-01,9.99999e-01,9.92329e-01,3.52546e-03,9.99999e-01
5.961354271e-01,3.90844e-03,9.99999e-01,9.99999e-01,9.91605e-01,3.94152e-03,9.99999e-01
5.991161043e-01,4.37007e-03,9.99999e-01,9.99999e-01,9.93876e-01,4.39699e-03,9.99999e-01
6.021116848e-01,4.87750e-03,9.99999e-01,9.99999e-01,9.96524e-01,4.89451e-03,9.99999e-01
6.051222432e-01,5.42723e-03,9.99999e-01,9.99999e-01,9.98240e-01,5.43680e-03,9.99999e-01
6.081478544e-01,6.02207e-03,9.99999e-01,9.99999e-01,9.99240e-01,6.02664e-03,9.99999e-01
6.111885937e-01,6.66477e-03,9.99999e-01,9.99999e-01,9.99679e-01,6.66691e-03,9.99999e-01
6.142445367e-01,7.35945e-03,9.99999e-01,9.99999e-01,9.99856e-01,7.36050e-03,9.99999e-01
6.173157594e-01,8.10974e-03,9.99999e-01,9.99999e-01,9.99920e-01,8.11038e-03,9.99999e-01
6.204023382e-01,8.91895e-03,9.99999e-01,9.99999e-01,9.99932e-01,8.91955e-03,9.99999e-01
6.235043498e-01,9.78810e-03,9.99999e-01,9.99999e-01,9.99699e-01,9.79104e-03,9.99999e-01
6.266218716e-01,1.07111e-02,9.99999e-01,9.99999e-01,9.98433e-01,1.07279e-02,9.99999e-01
6.297549810e-01,1.17265e-02,9.99999e-01,9.99999e-01,9.99425e-01,1.17332e-02,9.99999e-01
6.329037559e-01,1.27955e-02,9.99999e-01,9.99999e-01,9.98866e-01,1.28100e-02,9.99999e-01
6.360682746e-01,1.39480e-02,9.99999e-01,9.99999e-01,9.99031e-01,1.39615e-02,9.99999e-01
6.392486160e-01,1.51715e-02,9.99999e-01,9.99999e-01,9.98747e-01,1.51906e-02,9.99999e-01
6.424448591e-01,1.64725e-02,9.99999e-01,9.99999e-01,9.98312e-01,1.65003e-02,9.99999e-01
6.456570834e-01,1.77540e-02,9.99999e-01,9.99999e-01,9.92189e-01,1.78937e-02,9.99999e-01
6.488853688e-01,1.92639e-02,9.99999e-01,9.99999e-01,9.94327e-01,1.93738e-02,9.99999e-01
6.521297956e-01,2.08223e-02,9.99999e-01,9.99999e-01,9.94220e-01,2.09434e-02,9.99999e-01
6.553904446e-01,2.24747e-02,9.99999e-01,9.99999e-01,9.94221e-01,2.26053e-02,9.99999e-01
6.586673968e-01,2.42421e-02,9.99999e-01,9.99999e-01,9.95067e-01,2.43623e-02,9.99999e-01
6.619607338e-01,2.61450e-02,9.99999e-01,9.99999e-01,9.97248e-01,2.62171e-02,9.99999e-01
6.652705375e-01,2.81257e-02,9.99999e-01,9.99999e-01,9.98348e-01,2.81722e-02,9.99999e-01
6.685968902e-01,3.02090e-02,9.99999e-01,9.99999e-01,9.99297e-01,3.02302e-02,9.99999e-01
6.719398746e-01,3.23819e-02,9.99999e-01,9.99999e-01,9.99644e-01,3.23934e-02,9.99999e-01
6.752995740e-01,3.46575e-02,9.99999e-01,9.99999e-01,9.99811e-01,3.46640e-02,9.99999e-01
6.786760719e-01,3.70337e-02,9.99999e-01,9.99999e-01,9.99718e-01,3.70441e-02,9.99999e-01
6.820694522e-01,3.95169e-02,9.99999e-01,9.99999e-01,9.99521e-01,3.95358e-02,9.99999e-01
6.854797995e-01,4.21149e-02,9.99999e-01,9.99999e-01,9.99382e-01,4.21409e-02,9.99999e-01
6.889071985e-01,4.47932e-02,9.99999e-01,9.99999e-01,9.98488e-01,4.48610e-02,9.99999e-01
6.923517345e-01,4.65432e-02,9.99999e-01,9.99999e-01,9.75794e-01,4.76978e-02,9.99999e-01
6.958134932e-01,5.00223e-02,9.99999e-01,9.99999e-01,9.87557e-01,5.06525e-02,9.99999e-01
6.992925606e-01,5.30801e-02,9.99999e-01,9.99999e-01,9.87968e-01,5.37265e-02,9.99999e-01
7.027890234e-01,5.60815e-02,9.99999e-01,9.99999e-01,9.85257e-01,5.69207e-02,9.99999e-01
7.063029686e-01,5.94879e-02,9.99999e-01,9.99999e-01,9.87578e-01,6.02361e-02,9.99999e-01
7.098344834e-01,6.29142e-02,9.99999e-01,9.99999e-01,9.88077e-01,6.36733e-02,9.99999e-01
7.133836558e-01,6.61574e-02,9.99999e-01,9.99999e-01,9.84002e-01,6.72330e-02,9.99998e-01
7.169505741e-01,6.23830e-02,9.99999e-01,9.99999e-01,8.79682e-01,7.09154e-02,9.99998e-01
7.205353270e-01,7.02310e-02,9.99999e-01,9.99999e-01,9.39914e-01,7.47207e-02,9.99997e-01
7.241380036e-01,7.26160e-02,9.99999e-01,9.99999e-01,9.23292e-01,7.86491e-02,9.99997e-01
7.277586936e-01,7.69593e-02,9.99999e-01,9.99999e-01,9.30583e-01,8.27001e-02,9.99998e-01
7.313974871e-01,8.04938e-02,9.99999e-01,9.99999e-01,9.26562e-01,8.68737e-02,9.99998e-01
7.350544745e-01,8.74400e-02,9.99999e-01,9.99999e-01,9.59096e-01,9.11691e-02,9.99998e-01
7.387297469e-01,9.26920e-02,9.99999e-01,9.99999e-01,9.69725e-01,9.55858e-02,9.99999e-01
7.424233956e-01,9.86304e-02,9.99999e-01,9.99999e-01,9.85093e-01,1.00123e-01,9.99999e-01
7.461355126e-01,1.03829e-01,9.99999e-01,9.99999e-01,9.90929e-01,1.04779e-01,9.99999e-01
7.498661902e-01,1.09091e-01,9.99999e-01,9.99999e-01,9.95777e-01,1.09554e-01,9.99999e-01
7.536155211e-01,1.14207e-01,9.99999e-01,9.99999e-01,9.97921e-01,1.14445e-01,9.99999e-01
7.573835987e-01,1.19324e-01,9.99999e-01,9.99999e-01,9.98929e-01,1.19452e-01,9.99999e-01
7.611705167e-01,1.24489e-01,9.99999e-01,9.99999e-01,9.99334e-01,1.24572e-01,9.99999e-01
7.649763693e-01,1.29750e-01,9.99999e-01,9.99999e-01,9.99582e-01,1.29804e-01,9.99999e-01
7.688012511e-01,1.35106e-01,9.99999e-01,9.99999e-01,9.99708e-01,1.35146e-01,9.99999e-01
7.726452574e-01,1.40562e-01,9.99999e-01,9.99999e-01,9.99760e-01,1.40595e-01,9.99999e-01
7.765084837e-01,1.46101e-01,9.99999e-01,9.99999e-01,9.99657e-01,1.46151e-01,9.99999e-01
7.803910261e-01,1.39709e-01,9.99999e-01,9.21557e-01,9.98519e-01,1.51809e-01,9.99999e-01
7.842929812e-01,1.07333e-01,9.99999e-01,6.84343e-01,9.94838e-01,1.57568e-01,9.99999e-01
7.882144461e-01,1.08086e-01,9.99999e-01,6.67792e-01,9.89463e-01,1.63426e-01,9.99999e-01
7.921555184e-01,1.31756e-01,9.99999e-01,7.82132e-01,9.94234e-01,1.69379e-01,9.99999e-01
7.961162960e-01,1.47250e-01,9.99999e-01,8.47894e-01,9.89738e-01,1.75425e-01,9.99999e-01
8.000968774e-01,1.64044e-01,9.99999e-01,9.14224e-01,9.88204e-01,1.81561e-01,9.99999e-01
8.040973618e-01,1.77170e-01,9.99999e-01,9.54692e-01,9.88189e-01,1.87784e-01,9.99999e-01
8.081178486e-01,1.84966e-01,9.99999e-01,9.78856e-01,9.73471e-01,1.94091e-01,9.99998e-01
8.121584379e-01,1.78185e-01,9.99999e-01,9.93476e-01,8.94485e-01,2.00479e-01,9.99998e-01
8.162192301e-01,1.81262e-01,9.99999e-01,9.98555e-01,8.77099e-01,2.06945e-01,9.99997e-01
8.203003262e-01,1.99964e-01,9.99999e-01,9.99979e-01,9.36676e-01,2.13486e-01,9.99997e-01
8.244018279e-01,2.01320e-01,9.99999e-01,9.99999e-01,9.14686e-01,2.20098e-01,9.99997e-01
8.285238370e-01,2.09576e-01,9.99999e-01,9.99999e-01,9.24148e-01,2.26778e-01,9.99998e-01
8.326664562e-01,2.15699e-01,9.99999e-01,9.99999e-01,9.23674e-01,2.33523e-01,9.99998e-01
8.368297885e-01,2.27058e-01,9.99999e-01,9.99999e-01,9.44780e-01,2.40329e-01,9.99998e-01
8.410139374e-01,2.38988e-01,9.99999e-01,9.99999e-01,9.66806e-01,2.47193e-01,9.99999e-01
8.452190071e-01,2.49944e-01,9.99999e-01,9.99999e-01,9.83594e-01,2.54112e-01,9.99999e-01
8.494451021e-01,2.58582e-01,9.99999e-01,9.99999e-01,9.90420e-01,2.61083e-01,9.99999e-01
8.536923276e-01,2.66584e-01,9.99999e-01,9.99999e-01,9.94340e-01,2.68101e-01,9.99999e-01
8.579607893e-01,2.74201e-01,9.99999e-01,9.99999e-01,9.96503e-01,2.75163e-01,9.99999e-01
8.622505932e-01,2.81641e-01,9.99999e-01,9.99999e-01,9.97781e-01,2.82267e-01,9.99999e-01
8.665618462e-01,2.52769e-01,9.99999e-01,8.74526e-01,9.98623e-01,2.89408e-01,9.99999e-01
8.708946554e-01,1.15466e-01,9.99999e-01,3.89891e-01,9.98420e-01,2.96584e-01,9.99999e-01
8.752491287e-01,1.39366e-01,9.99999e-01,4.59667e-01,9.97889e-01,3.03790e-01,9.99999e-01
8.796253743e-01,2.00679e-01,9.99999e-01,6.46984e-01,9.97071e-01,3.11024e-01,9.99999e-01
8.840235012e-01,2.52300e-01,9.99999e-01,7.95249e-01,9.96657e-01,3.18283e-01,9.99999e-01
8.884436187e-01,2.93849e-01,9.99999e-01,9.13538e-01,9.87713e-01,3.25562e-01,9.99998e-01
8.928858368e-01,2.82462e-01,9.99999e-01,9.63892e-01,8.79647e-01,3.32859e-01,9.99997e-01
8.973502660e-01,2.69497e-01,9.99999e-01,9.91148e-01,7.98953e-01,3.40171e-01,9.99996e-01
9.018370173e-01,3.09834e-01,9.99999e-01,9.99022e-01,8.92433e-01,3.47494e-01,9.99996e-01
9.063462024e-01,3.13074e-01,9.99999e-01,9.74862e-01,9.03271e-01,3.54825e-01,9.99995e-01
9.108779334e-01,2.92328e-01,9.99999e-01,9.43596e-01,8.53921e-01,3.62162e-01,9.99995e-01
9.154323231e-01,3.04851e-01,9.99999e-01,9.86574e-01,8.35663e-01,3.69501e-01,9.99995e-01
9.200094847e-01,2.77787e-01,9.99999e-01,8.34300e-01,8.69344e-01,3.76839e-01,9.99993e-01
9.246095321e-01,2.35591e-01,9.99999e-01,7.53450e-01,8.05129e-01,3.84174e-01,9.99989e-01
9.292325798e-01,8.30061e-02,9.99999e-01,8.02122e-01,2.52951e-01,3.91503e-01,9.99977e-01
9.338787427e-01,5.78874e-02,9.99999e-01,8.07736e-01,1.72610e-01,3.98822e-01,9.99971e-01
9.385481364e-01,1.73001e-01,9.99999e-01,8.53886e-01,4.89496e-01,4.06130e-01,9.99971e-01
9.432408771e-01,1.43795e-01,9.99999e-01,9.07643e-01,3.79035e-01,4.13423e-01,9.99968e-01
9.479570815e-01,1.06170e-01,9.99999e-01,9.51382e-01,2.63817e-01,4.20699e-01,9.99972e-01
9.526968669e-01,1.50580e-01,9.99999e-01,9.76315e-01,3.58953e-01,4.27956e-01,9.99978e-01
9.574603512e-01,1.63076e-01,9.99999e-01,9.89803e-01,3.78006e-01,4.35191e-01,9.99984e-01
9.622476530e-01,1.98089e-01,9.99999e-01,9.96811e-01,4.48994e-01,4.42402e-01,9.99989e-01
9.670588912e-01,2.81979e-01,9.99999e-01,9.99045e-01,6.27725e-01,4.49586e-01,9.99993e-01
9.718941857e-01,3.39332e-01,9.99999e-01,9.99933e-01,7.42984e-01,4.56742e-01,9.99995e-01
9.767536566e-01,3.62353e-01,9.99999e-01,9.99999e-01,7.81159e-01,4.63866e-01,9.99996e-01
9.816374249e-01,3.92076e-01,9.99999e-01,9.99999e-01,8.32506e-01,4.70958e-01,9.99997e-01
9.865456120e-01,4.26193e-01,9.99999e-01,9.99999e-01,8.91589e-01,4.78015e-01,9.99998e-01
9.914783401e-01,4.51761e-01,9.99999e-01,9.99999e-01,9.31396e-01,4.85036e-01,9.99999e-01
9.964357318e-01,4.73341e-01,9.99999e-01,9.99999e-01,9.62041e-01,4.92017e-01,9.99999e-01
1.001417910e+00,4.87520e-01,9.99999e-01,9.99999e-01,9.77074e-01,4.98959e-01,9.99999e-01
1.006425000e+00,4.99203e-01,9.99999e-01,9.99999e-01,9.86843e-01,5.05858e-01,9.99999e-01
1.011457125e+00,5.08526e-01,9.99999e-01,9.99999e-01,9.91831e-01,5.12713e-01,9.99999e-01
1.016514411e+00,5.16636e-01,9.99999e-01,9.99999e-01,9.94441e-01,5.19524e-01,9.99999e-01
1.021596983e+00,5.23875e-01,9.99999e-01,9.99848e-01,9.95566e-01,5.26287e-01,9.99999e-01
1.026704968e+00,5.25849e-01,9.99999e-01,9.89992e-01,9.96539e-01,5.33003e-01,9.99999e-01
1.031838492e+00,4.90842e-01,9.99999e-01,9.11693e-01,9.97487e-01,5.39669e-01,9.99999e-01
1.036997685e+00,3.28584e-02,9.99999e-01,6.02172e-02,9.98504e-01,5.46284e-01,9.99999e-01
1.042182673e+00,3.98120e-03,9.99999e-01,7.21140e-03,9.98212e-01,5.52847e-01,9.99999e-01
1.047393587e+00,8.98707e-03,9.99999e-01,1.60988e-02,9.97633e-01,5.59357e-01,9.99999e-01
1.052630555e+00,3.40379e-06,9.99999e-01,6.02832e-06,9.96749e-01,5.65813e-01,9.99999e-01
1.057893707e+00,1.28637e-05,9.99999e-01,2.25469e-05,9.94572e-01,5.72214e-01,9.99999e-01
1.063183176e+00,2.01777e-04,9.99999e-01,3.50624e-04,9.91092e-01,5.78558e-01,9.99999e-01
1.068499092e+00,1.56455e-03,9.99999e-01,2.70319e-03,9.85145e-01,5.84846e-01,9.99999e-01
1.073841587e+00,1.32171e-02,9.99999e-01,2.26546e-02,9.82621e-01,5.91075e-01,9.99999e-01
1.079210795e+00,5.40519e-02,9.99999e-01,9.21584e-02,9.77832e-01,5.97246e-01,9.99998e-01
1.084606849e+00,1.52682e-01,9.99999e-01,2.60867e-01,9.66604e-01,6.03358e-01,9.99998e-01
1.090029883e+00,2.88179e-01,9.99999e-01,4.94958e-01,9.52217e-01,6.09409e-01,9.99997e-01
1.095480033e+00,3.82043e-01,9.99999e-01,7.06633e-01,8.75348e-01,6.15400e-01,9.99996e-01
1.100957433e+00,3.77132e-01,9.99999e-01,8.45310e-01,7.14838e-01,6.21330e-01,9.99993e-01
1.106462220e+00,2.56501e-01,9.99999e-01,9.32860e-01,4.35861e-01,6.27198e-01,9.99987e-01
1.111994531e+00,1.12647e-01,9.99999e-01,9.74543e-01,1.81875e-01,6.33004e-01,9.99974e-01
1.117554504e+00,4.33670e-02,9.99999e-01,9.93751e-01,6.81675e-02,6.38747e-01,9.99963e-01
1.123142276e+00,1.00526e-01,9.99999e-01,9.99590e-01,1.56011e-01,6.44428e-01,9.99957e-01
1.128757988e+00,1.81976e-01,9.99999e-01,9.99999e-01,2.79957e-01,6.50045e-01,9.99953e-01
1.134401778e+00,8.40343e-02,9.99999e-01,9.99999e-01,1.28186e-01,6.55599e-01,9.99948e-01
1.140073787e+00,3.00467e-01,9.99999e-01,9.99999e-01,4.54521e-01,6.61090e-01,9.99958e-01
1.145774156e+00,1.39900e-01,9.99999e-01,9.99999e-01,2.09904e-01,6.66516e-01,9.99964e-01
1.151503026e+00,1.19791e-01,9.99999e-01,9.99999e-01,1.78297e-01,6.71879e-01,9.99969e-01
1.157260541e+00,1.47964e-01,9.99999e-01,9.99999e-01,2.18506e-01,6.77177e-01,9.99976e-01
1.163046844e+00,2.20066e-01,9.99999e-01,9.99999e-01,3.22487e-01,6.82411e-01,9.99984e-01
1.168862078e+00,3.07734e-01,9.99999e-01,9.99999e-01,4.47563e-01,6.87582e-01,9.99992e-01
1.174706389e+00,4.21237e-01,9.99999e-01,9.99999e-01,6.08121e-01,6.92688e-01,9.99995e-01
1.180579921e+00,5.14792e-01,9.99999e-01,9.99999e-01,7.37811e-01,6.97730e-01,9.99997e-01
1.186482820e+00,5.91166e-01,9.99999e-01,9.99977e-01,8.41285e-01,7.02708e-01,9.99997e-01
1.192415234e+00,6.18126e-01,9.99999e-01,9.65510e-01,9.03819e-01,7.07622e-01,9.99997e-01
1.198377311e+00,3.48513e-01,9.99999e-01,5.25154e-01,9.18221e-01,7.12473e-01,9.99998e-01
1.204369197e+00,5.92740e-26,9.99999e-01,8.65864e-26,9.22654e-01,7.17260e-01,9.99998e-01
1.210391043e+00,5.06584e-104,9.99999e-01,7.32403e-104,9.25823e-01,7.21983e-01,9.99998e-01
1.216442998e+00,4.63049e-90,9.99999e-01,6.63676e-90,9.36645e-01,7.26644e-01,9.99998e-01
1.222525213e+00,1.04388e-88,9.99999e-01,1.46564e-88,9.50233e-01,7.31241e-01,9.99999e-01
1.228637839e+00,1.71887e-68,9.99999e-01,2.39271e-68,9.65149e-01,7.35776e-01,9.99999e-01
