#,Wave/freq,Total,O2,CO2,H2O,Rayleigh,CIA
4.000000000e-01,4.71987e-09,9.99999e-01,9.99999e-01,9.99961e-01,4.72004e-09,9.99999e-01
4.020000000e-01,6.89556e-09,9.99999e-01,9.99999e-01,9.99976e-01,6.89572e-09,9.99999e-01
4.040100000e-01,9.99502e-09,9.99999e-01,9.99999e-01,9.99989e-01,9.99512e-09,9.99999e-01
4.060300500e-01,1.43817e-08,9.99999e-01,9.99999e-01,9.99997e-01,1.43818e-08,9.99999e-01
4.080602003e-01,2.05454e-08,9.99999e-01,9.99999e-01,9.99998e-01,2.05454e-08,9.99999e-01
4.101005013e-01,2.91446e-08,9.99999e-01,9.99999e-01,9.99999e-01,2.91446e-08,9.99999e-01
4.121510038e-01,4.10583e-08,9.99999e-01,9.99999e-01,9.99998e-01,4.10583e-08,9.99999e-01
4.142117588e-01,5.74514e-08,9.99999e-01,9.99999e-01,9.99989e-01,5.74520e-08,9.99999e-01
4.162828176e-01,7.98558e-08,9.99999e-01,9.99999e-01,9.99952e-01,7.98595e-08,9.99999e-01
4.183642317e-01,1.10284e-07,9.99999e-01,9.99999e-01,9.99971e-01,1.10287e-07,9.99999e-01
4.204560528e-01,1.51336e-07,9.99999e-01,9.99999e-01,9.99982e-01,1.51339e-07,9.99999e-01
4.225583331e-01,2.06377e-07,9.99999e-01,9.99999e-01,9.99993e-01,2.06378e-07,9.99999e-01
4.246711247e-01,2.79713e-07,9.99999e-01,9.99999e-01,9.99994e-01,2.79715e-07,9.99999e-01
4.267944804e-01,3.76839e-07,9.99999e-01,9.99999e-01,9.99992e-01,3.76842e-07,9.99999e-01
4.289284528e-01,5.04712e-07,9.99999e-01,9.99999e-01,9.99993e-01,5.04714e-07,9.99999e-01
4.310730950e-01,6.72086e-07,9.99999e-01,9.99999e-01,9.99997e-01,6.72088e-07,9.99999e-01
4.332284605e-01,8.89917e-07,9.99999e-01,9.99999e-01,9.99998e-01,8.89918e-07,9.99999e-01
4.353946028e-01,1.17183e-06,9.99999e-01,9.99999e-01,9.99999e-01,1.17183e-06,9.99999e-01
4.375715758e-01,1.53468e-06,9.99999e-01,9.99999e-01,9.99995e-01,1.53469e-06,9.99999e-01
4.397594337e-01,1.99914e-06,9.99999e-01,9.99999e-01,9.99959e-01,1.99922e-06,9.99999e-01
4.419582309e-01,2.59026e-06,9.99999e-01,9.99999e-01,9.99795e-01,2.59079e-06,9.99999e-01
4.441680220e-01,3.33972e-06,9.99999e-01,9.99999e-01,9.99836e-01,3.34027e-06,9.99999e-01
4.463888621e-01,4.28427e-06,9.99999e-01,9.99999e-01,9.99831e-01,4.28499e-06,9.99999e-01
4.486208064e-01,5.46936e-06,9.99999e-01,9.99999e-01,9.99894e-01,5.46993e-06,9.99999e-01
4.508639105e-01,6.94862e-06,9.99999e-01,9.99999e-01,9.99950e-01,6.94896e-06,9.99999e-01
4.531182300e-01,8.78610e-06,9.99999e-01,9.99999e-01,9.99980e-01,8.78628e-06,9.99999e-01
4.553838212e-01,1.10579e-05,9.99999e-01,9.99999e-01,9.99986e-01,1.10580e-05,9.99999e-01
4.576607403e-01,1.38540e-05,9.99999e-01,9.99999e-01,9.99993e-01,1.38541e-05,9.99999e-01
4.599490440e-01,1.72799e-05,9.99999e-01,9.99999e-01,9.99995e-01,1.72800e-05,9.99999e-01
4.622487892e-01,2.14592e-05,9.99999e-01,9.99999e-01,9.99998e-01,2.14592e-05,9.99999e-01
4.645600332e-01,2.65353e-05,9.99999e-01,9.99999e-01,9.99996e-01,2.65354e-05,9.99999e-01
4.668828333e-01,3.26734e-05,9.99999e-01,9.99999e-01,9.99950e-01,3.26750e-05,9.99999e-01
4.692172475e-01,4.00660e-05,9.99999e-01,9.99999e-01,9.99893e-01,4.00702e-05,9.99999e-01
4.715633337e-01,4.89381e-05,9.99999e-01,9.99999e-01,9.99930e-01,4.89414e-05,9.99999e-01
4.739211504e-01,5.95371e-05,9.99999e-01,9.99999e-01,9.99933e-01,5.95410e-05,9.99999e-01
4.762907561e-01,7.21538e-05,9.99999e-01,9.99999e-01,9.99965e-01,7.21563e-05,9.99999e-01
4.786722099e-01,8.71118e-05,9.99999e-01,9.99999e-01,9.99985e-01,8.71131e-05,9.99999e-01
4.810655710e-01,1.04779e-04,9.99999e-01,9.99999e-01,9.99995e-01,1.04780e-04,9.99999e-01
4.834708988e-01,1.25565e-04,9.99999e-01,9.99999e-01,9.99960e-01,1.25570e-04,9.99999e-01
4.858882533e-01,1.49937e-04,9.99999e-01,9.99999e-01,9.99924e-01,1.49949e-04,9.99999e-01
4.883176946e-01,1.78423e-04,9.99999e-01,9.99999e-01,9.99937e-01,1.78434e-04,9.99999e-01
4.907592831e-01,2.11590e-04,9.99999e-01,9.99999e-01,9.99942e-01,2.11602e-04,9.99999e-01
4.932130795e-01,2.50082e-04,9.99999e-01,9.99999e-01,9.99959e-01,2.50092e-04,9.99999e-01
4.956791449e-01,2.94603e-04,9.99999e-01,9.99999e-01,9.99978e-01,2.94609e-04,9.99999e-01
4.981575406e-01,3.45893e-04,9.99999e-01,9.99999e-01,9.99893e-01,3.45930e-04,9.99999e-01
5.006483283e-01,4.04793e-04,9.99999e-01,9.99999e-01,9.99727e-01,4.04903e-04,9.99999e-01
5.031515699e-01,4.71802e-04,9.99999e-01,9.99999e-01,9.98608e-01,4.72459e-04,9.99999e-01
5.056673278e-01,5.49204e-04,9.99999e-01,9.99999e-01,9.99262e-01,5.49609e-04,9.99999e-01
5.081956644e-01,6.36857e-04,9.99999e-01,9.99999e-01,9.99069e-01,6.37450e-04,9.99999e-01
5.107366428e-01,7.36704e-04,9.99999e-01,9.99999e-01,9.99370e-01,7.37167e-04,9.99999e-01
5.132903260e-01,8.49734e-04,9.99999e-01,9.99999e-01,9.99639e-01,8.50040e-04,9.99999e-01
5.158567776e-01,9.77292e-04,9.99999e-01,9.99999e-01,9.99847e-01,9.77441e-04,9.99999e-01
5.184360615e-01,1.12077e-03,9.99999e-01,9.99999e-01,9.99938e-01,1.12084e-03,9.99999e-01
5.210282418e-01,1.28178e-03,9.99999e-01,9.99999e-01,9.99976e-01,1.28181e-03,9.99999e-01
5.236333830e-01,1.46188e-03,9.99999e-01,9.99999e-01,9.99908e-01,1.46201e-03,9.99999e-01
5.262515499e-01,1.66312e-03,9.99999e-01,9.99999e-01,9.99942e-01,1.66322e-03,9.99999e-01
5.288828077e-01,1.88721e-03,9.99999e-01,9.99999e-01,9.99947e-01,1.88731e-03,9.99999e-01
5.315272217e-01,2.13615e-03,9.99999e-01,9.99999e-01,9.99953e-01,2.13625e-03,9.99999e-01
5.341848578e-01,2.41204e-03,9.99999e-01,9.99999e-01,9.99969e-01,2.41211e-03,9.99999e-01
5.368557821e-01,2.71679e-03,9.99999e-01,9.99999e-01,9.99894e-01,2.71707e-03,9.99999e-01
5.395400610e-01,3.05225e-03,9.99999e-01,9.99999e-01,9.99622e-01,3.05340e-03,9.99999e-01
5.422377613e-01,3.42177e-03,9.99999e-01,9.99999e-01,9.99504e-01,3.42347e-03,9.99999e-01
5.449489501e-01,3.82797e-03,9.99999e-01,9.99999e-01,9.99542e-01,3.82972e-03,9.99999e-01
5.476736949e-01,4.27295e-03,9.99999e-01,9.99999e-01,9.99591e-01,4.27469e-03,9.99999e-01
5.504120634e-01,4.75961e-03,9.99999e-01,9.99999e-01,9.99703e-01,4.76102e-03,9.99999e-01
5.531641237e-01,5.29062e-03,9.99999e-01,9.99999e-01,9.99850e-01,5.29141e-03,9.99999e-01
5.559299443e-01,5.86821e-03,9.99999e-01,9.99999e-01,9.99927e-01,5.86863e-03,9.99999e-01
5.587095940e-01,6.49522e-03,9.99999e-01,9.99999e-01,9.99954e-01,6.49552e-03,9.99999e-01
5.615031420e-01,7.17461e-03,9.99999e-01,9.99999e-01,9.99949e-01,7.17497e-03,9.99999e-01
5.643106577e-01,7.90949e-03,9.99999e-01,9.99999e-01,9.99943e-01,7.90993e-03,9.99999e-01
5.671322110e-01,8.69753e-03,9.99999e-01,9.99999e-01,9.99325e-01,8.70340e-03,9.99999e-01
5.699678720e-01,9.55132e-03,9.99999e-01,9.99999e-01,9.99258e-01,9.55840e-03,9.99999e-01
5.728177114e-01,1.04700e-02,9.99999e-01,9.99999e-01,9.99237e-01,1.04780e-02,9.99999e-01
5.756818000e-01,1.14572e-02,9.99999e-01,9.99999e-01,9.99298e-01,1.14652e-02,9.99999e-01
5.785602090e-01,1.25155e-02,9.99999e-01,9.99999e-01,9.99387e-01,1.25232e-02,9.99999e-01
5.814530100e-01,1.36465e-02,9.99999e-01,9.99999e-01,9.99386e-01,1.36549e-02,9.99999e-01
5.843602750e-01,1.48528e-02,9.99999e-01,9.99999e-01,9.99275e-01,1.48635e-02,9.99999e-01
5.872820764e-01,1.60512e-02,9.99999e-01,9.99999e-01,9.93757e-01,1.61520e-02,9.99999e-01
5.902184868e-01,1.73895e-02,9.99999e-01,9.99999e-01,9.92360e-01,1.75234e-02,9.99999e-01
5.931695792e-01,1.88785e-02,9.99999e-01,9.99999e-01,9.94618e-01,1.89807e-02,9.99999e-01
5.961354271e-01,2.04053e-02,9.99999e-01,9.99999e-01,9.94085e-01,2.05267e-02,9.99999e-01
5.991161043e-01,2.20686e-02,9.99999e-01,9.99999e-01,9.95677e-01,2.21644e-02,9.99999e-01
6.021116848e-01,2.38377e-02,9.99999e-01,9.99999e-01,9.97541e-01,2.38964e-02,9.99999e-01
6.051222432e-01,2.56935e-02,9.99999e-01,9.99999e-01,9.98754e-01,2.57255e-02,9.99999e-01
6.081478544e-01,2.76395e-02,9.99999e-01,9.99999e-01,9.99463e-01,2.76544e-02,9.99999e-01
6.111885937e-01,2.96786e-02,9.99999e-01,9.99999e-01,9.99771e-01,2.96854e-02,9.99999e-01
6.142445367e-01,3.18178e-02,9.99999e-01,9.99999e-01,9.99898e-01,3.18210e-02,9.99999e-01
6.173157594e-01,3.40616e-02,9.99999e-01,9.99999e-01,9.99943e-01,3.40635e-02,9.99999e-01
6.204023382e-01,3.64132e-02,9.99999e-01,9.99999e-01,9.99952e-01,3.64150e-02,9.99999e-01
6.235043498e-01,3.88696e-02,9.99999e-01,9.99999e-01,9.99796e-01,3.88775e-02,9.99999e-01
6.266218716e-01,4.14074e-02,9.99999e-01,9.99999e-01,9.98901e-01,4.14529e-02,9.99999e-01
6.297549810e-01,4.41252e-02,9.99999e-01,9.99999e-01,9.99596e-01,4.41430e-02,9.99999e-01
6.329037559e-01,4.69118e-02,9.99999e-01,9.99999e-01,9.99201e-01,4.69493e-02,9.99999e-01
6.360682746e-01,4.98395e-02,9.99999e-01,9.99999e-01,9.99323e-01,4.98732e-02,9.99999e-01
6.392486160e-01,5.28696e-02,9.99999e-01,9.99999e-01,9.99120e-01,5.29161e-02,9.99999e-01
6.424448591e-01,5.60200e-02,9.99999e-01,9.99999e-01,9.98946e-01,5.60790e-02,9.99999e-01
6.456570834e-01,5.90446e-02,9.99999e-01,9.99999e-01,9.94638e-01,5.93628e-02,9.99999e-01
6.488853688e-01,6.24730e-02,9.99999e-01,9.99999e-01,9.95293e-01,6.27683e-02,9.99999e-01
6.521297956e-01,6.60256e-02,9.99999e-01,9.99999e-01,9.95918e-01,6.62961e-02,9.99999e-01
6.553904446e-01,6.96648e-02,9.99999e-01,9.99999e-01,9.95970e-01,6.99466e-02,9.99999e-01
6.586673968e-01,7.34630e-02,9.99999e-01,9.99999e-01,9.96513e-01,7.37200e-02,9.99999e-01
6.619607338e-01,7.74600e-02,9.99999e-01,9.99999e-01,9.97984e-01,7.76164e-02,9.99999e-01
6.652705375e-01,8.15400e-02,9.99999e-01,9.99999e-01,9.98828e-01,8.16356e-02,9.99999e-01
6.685968902e-01,8.57308e-02,9.99999e-01,9.99999e-01,9.99456e-01,8.57774e-02,9.99999e-01
6.719398746e-01,9.00185e-02,9.99999e-01,9.99999e-01,9.99747e-01,9.00412e-02,9.99999e-01
6.752995740e-01,9.44136e-02,9.99999e-01,9.99999e-01,9.99863e-01,9.44264e-02,9.99999e-01
6.786760719e-01,9.89130e-02,9.99999e-01,9.99999e-01,9.99804e-01,9.89323e-02,9.99999e-01
6.820694522e-01,1.03523e-01,9.99999e-01,9.99999e-01,9.99665e-01,1.03558e-01,9.99999e-01
6.854797995e-01,1.08255e-01,9.99999e-01,9.99999e-01,9.99568e-01,1.08302e-01,9.99999e-01
6.889071985e-01,1.13047e-01,9.99999e-01,9.99999e-01,9.98973e-01,1.13163e-01,9.99999e-01
6.923517345e-01,1.16149e-01,9.99999e-01,9.99999e-01,9.83147e-01,1.18140e-01,9.99999e-01
6.958134932e-01,1.22123e-01,9.99999e-01,9.99999e-01,9.91012e-01,1.23230e-01,9.99999e-01
6.992925606e-01,1.27360e-01,9.99999e-01,9.99999e-01,9.91637e-01,1.28433e-01,9.99999e-01
7.027890234e-01,1.32355e-01,9.99999e-01,9.99999e-01,9.89592e-01,1.33747e-01,9.99999e-01
7.063029686e-01,1.37951e-01,9.99999e-01,9.99999e-01,9.91251e-01,1.39169e-01,9.99999e-01
7.098344834e-01,1.43482e-01,9.99999e-01,9.99999e-01,9.91603e-01,1.44697e-01,9.99999e-01
7.133836558e-01,1.48674e-01,9.99999e-01,9.99999e-01,9.88989e-01,1.50329e-01,9.99999e-01
7.169505741e-01,1.42706e-01,9.99999e-01,9.99999e-01,9.14417e-01,1.56062e-01,9.99998e-01
7.205353270e-01,1.54813e-01,9.99999e-01,9.99999e-01,9.56258e-01,1.61894e-01,9.99998e-01
7.241380036e-01,1.58702e-01,9.99999e-01,9.99999e-01,9.45648e-01,1.67823e-01,9.99998e-01
7.277586936e-01,1.65288e-01,9.99999e-01,9.99999e-01,9.50775e-01,1.73845e-01,9.99998e-01
7.313974871e-01,1.70478e-01,9.99999e-01,9.99999e-01,9.47321e-01,1.79958e-01,9.99998e-01
7.350544745e-01,1.80746e-01,9.99999e-01,9.99999e-01,9.70924e-01,1.86159e-01,9.99999e-01
7.387297469e-01,1.88306e-01,9.99999e-01,9.99999e-01,9.78497e-01,1.92444e-01,9.99999e-01
7.424233956e-01,1.96703e-01,9.99999e-01,9.99999e-01,9.89392e-01,1.98812e-01,9.99999e-01
7.461355126e-01,2.03938e-01,9.99999e-01,9.99999e-01,9.93571e-01,2.05258e-01,9.99999e-01
7.498661902e-01,2.11143e-01,9.99999e-01,9.99999e-01,9.96993e-01,2.11779e-01,9.99999e-01
7.536155211e-01,2.18052e-01,9.99999e-01,9.99999e-01,9.98529e-01,2.18373e-01,9.99999e-01
7.573835987e-01,2.24865e-01,9.99999e-01,9.99999e-01,9.99241e-01,2.25036e-01,9.99999e-01
7.611705167e-01,2.31655e-01,9.99999e-01,9.99999e-01,9.99528e-01,2.31764e-01,9.99999e-01
7.649763693e-01,2.38484e-01,9.99999e-01,9.99999e-01,9.99705e-01,2.38555e-01,9.99999e-01
7.688012511e-01,2.45354e-01,9.99999e-01,9.99999e-01,9.99794e-01,2.45404e-01,9.99999e-01
7.726452574e-01,2.52267e-01,9.99999e-01,9.99999e-01,9.99831e-01,2.52309e-01,9.99999e-01
7.765084837e-01,2.59205e-01,9.99999e-01,9.99999e-01,9.99762e-01,2.59267e-01,9.99999e-01
7.803910261e-01,2.51435e-01,9.99999e-01,9.45193e-01,9.98976e-01,2.66273e-01,9.99999e-01
7.842929812e-01,2.07065e-01,9.99999e-01,7.60070e-01,9.96432e-01,2.73324e-01,9.99999e-01
7.882144461e-01,2.08374e-01,9.99999e-01,7.48259e-01,9.92591e-01,2.80417e-01,9.99999e-01
7.921555184e-01,2.40916e-01,9.99999e-01,8.41126e-01,9.95908e-01,2.87549e-01,9.99999e-01
7.961162960e-01,2.60256e-01,9.99999e-01,8.89307e-01,9.92867e-01,2.94716e-01,9.99999e-01
8.000968774e-01,2.80996e-01,9.99999e-01,9.38448e-01,9.91711e-01,3.01915e-01,9.99999e-01
8.040973618e-01,2.96615e-01,9.99999e-01,9.67456e-01,9.91722e-01,3.09142e-01,9.99999e-01
8.081178486e-01,3.05919e-01,9.99999e-01,9.84994e-01,9.81574e-01,3.16394e-01,9.99999e-01
8.121584379e-01,2.98113e-01,9.99999e-01,9.95298e-01,9.25317e-01,3.23668e-01,9.99998e-01
8.162192301e-01,3.01225e-01,9.99999e-01,9.98959e-01,9.11068e-01,3.30961e-01,9.99998e-01
8.203003262e-01,3.23301e-01,9.99999e-01,9.99982e-01,9.55766e-01,3.38269e-01,9.99998e-01
8.244018279e-01,3.23898e-01,9.99999e-01,9.99999e-01,9.37233e-01,3.45590e-01,9.99998e-01
8.285238370e-01,3.33952e-01,9.99999e-01,9.99999e-01,9.46255e-01,3.52919e-01,9.99998e-01
8.326664562e-01,3.40608e-01,9.99999e-01,9.99999e-01,9.45465e-01,3.60255e-01,9.99998e-01
8.368297885e-01,3.53115e-01,9.99999e-01,9.99999e-01,9.60613e-01,3.67594e-01,9.99999e-01
8.410139374e-01,3.66082e-01,9.99999e-01,9.99999e-01,9.76393e-01,3.74932e-01,9.99999e-01
8.452190071e-01,3.77811e-01,9.99999e-01,9.99999e-01,9.88340e-01,3.82268e-01,9.99999e-01
8.494451021e-01,3.86968e-01,9.99999e-01,9.99999e-01,9.93247e-01,3.89599e-01,9.99999e-01
8.536923276e-01,3.95328e-01,9.99999e-01,9.99999e-01,9.95986e-01,3.96921e-01,9.99999e-01
8.579607893e-01,4.03236e-01,9.99999e-01,9.99999e-01,9.97535e-01,4.04232e-01,9.99999e-01
8.622505932e-01,4.10883e-01,9.99999e-01,9.99999e-01,9.98429e-01,4.11529e-01,9.99999e-01
8.665618462e-01,3.76603e-01,9.99999e-01,9.00046e-01,9.99032e-01,4.18810e-01,9.99999e-01
8.708946554e-01,2.15382e-01,9.99999e-01,5.06032e-01,9.98894e-01,4.26072e-01,9.99999e-01
8.752491287e-01,2.47156e-01,9.99999e-01,5.71190e-01,9.98520e-01,4.33313e-01,9.99999e-01
8.796253743e-01,3.21769e-01,9.99999e-01,7.31830e-01,9.97958e-01,4.40530e-01,9.99999e-01
8.840235012e-01,3.79489e-01,9.99999e-01,8.49529e-01,9.97666e-01,4.47722e-01,9.99999e-01
8.884436187e-01,4.22876e-01,9.99999e-01,9.37289e-01,9.91687e-01,4.54885e-01,9.99999e-01
8.928858368e-01,4.11901e-01,9.99999e-01,9.74169e-01,9.14793e-01,4.62018e-01,9.99998e-01
8.973502660e-01,3.97694e-01,9.99999e-01,9.93618e-01,8.52993e-01,4.69119e-01,9.99997e-01
9.018370173e-01,4.38488e-01,9.99999e-01,9.99292e-01,9.21452e-01,4.76185e-01,9.99997e-01
9.063462024e-01,4.42870e-01,9.99999e-01,9.82805e-01,9.31626e-01,4.83215e-01,9.99996e-01
9.108779334e-01,4.21357e-01,9.99999e-01,9.59660e-01,8.94872e-01,4.90207e-01,9.99996e-01
9.154323231e-01,4.33937e-01,9.99999e-01,9.90277e-01,8.81075e-01,4.97159e-01,9.99996e-01
9.200094847e-01,4.04094e-01,9.99999e-01,8.77688e-01,9.05446e-01,5.04069e-01,9.99995e-01
9.246095321e-01,3.61834e-01,9.99999e-01,8.18096e-01,8.60694e-01,5.10936e-01,9.99992e-01
9.292325798e-01,1.68617e-01,9.99999e-01,8.56918e-01,3.70878e-01,5.17758e-01,9.99984e-01
9.338787427e-01,1.27142e-01,9.99999e-01,8.59331e-01,2.75365e-01,5.24534e-01,9.99980e-01
9.385481364e-01,2.84559e-01,9.99999e-01,8.94238e-01,5.92654e-01,5.31262e-01,9.99979e-01
9.432408771e-01,2.49422e-01,9.99999e-01,9.33451e-01,4.93765e-01,5.37941e-01,9.99977e-01
9.479570815e-01,2.00268e-01,9.99999e-01,9.65394e-01,3.79832e-01,5.44570e-01,9.99980e-01
9.526968669e-01,2.57996e-01,9.99999e-01,9.83136e-01,4.75037e-01,5.51147e-01,9.99985e-01
9.574603512e-01,2.75232e-01,9.99999e-01,9.92747e-01,4.96741e-01,5.57671e-01,9.99988e-01
9.622476530e-01,3.16523e-01,9.99999e-01,9.97729e-01,5.62219e-01,5.64141e-01,9.99992e-01
9.670588912e-01,4.08805e-01,9.99999e-01,9.99317e-01,7.16951e-01,5.70556e-01,9.99994e-01
9.718941857e-01,4.67695e-01,9.99999e-01,9.99950e-01,8.10720e-01,5.76915e-01,9.99996e-01
9.767536566e-01,4.89963e-01,9.99999e-01,9.99999e-01,8.40104e-01,5.83217e-01,9.99997e-01
9.816374249e-01,5.17757e-01,9.99999e-01,9.99999e-01,8.78356e-01,5.89462e-01,9.99998e-01
9.865456120e-01,5.49218e-01,9.99999e-01,9.99999e-01,9.22051e-01,5.95648e-01,9.99998e-01
9.914783401e-01,5.72333e-01,9.99999e-01,9.99999e-01,9.51073e-01,6.01775e-01,9.99999e-01
9.964357318e-01,5.91457e-01,9.99999e-01,9.99999e-01,9.73042e-01,6.07843e-01,9.99999e-01
1.001417910e+00,6.03875e-01,9.99999e-01,9.99999e-01,9.83750e-01,6.13849e-01,9.99999e-01
1.006425000e+00,6.14047e-01,9.99999e-01,9.99999e-01,9.90726e-01,6.19795e-01,9.99999e-01
1.011457125e+00,6.22061e-01,9.99999e-01,9.99999e-01,9.94217e-01,6.25679e-01,9.99999e-01
1.016514411e+00,6.29025e-01,9.99999e-01,9.99999e-01,9.96077e-01,6.31501e-01,9.99999e-01
1.021596983e+00,6.35218e-01,9.99999e-01,9.99916e-01,9.96876e-01,6.37261e-01,9.99999e-01
1.026704968e+00,6.37066e-01,9.99999e-01,9.93249e-01,9.97564e-01,6.42958e-01,9.99999e-01
1.031838492e+00,6.06865e-01,9.99999e-01,9.37264e-01,9.98225e-01,6.48592e-01,9.99999e-01
1.036997685e+00,5.78308e-02,9.99999e-01,8.84756e-02,9.98948e-01,6.54162e-01,9.99999e-01
1.042182673e+00,1.65821e-02,9.99999e-01,2.51629e-02,9.98750e-01,6.59669e-01,9.99999e-01
1.047393587e+00,2.97875e-02,9.99999e-01,4.48496e-02,9.98340e-01,6.65112e-01,9.99999e-01
1.052630555e+00,7.70859e-05,9.99999e-01,1.15146e-04,9.97726e-01,6.70491e-01,9.99999e-01
1.057893707e+00,2.54141e-04,9.99999e-01,3.76886e-04,9.96213e-01,6.75806e-01,9.99999e-01
1.063183176e+00,1.91295e-03,9.99999e-01,2.82000e-03,9.93767e-01,6.81057e-01,9.99999e-01
1.068499092e+00,9.76120e-03,9.99999e-01,1.43374e-02,9.89569e-01,6.86244e-01,9.99999e-01
1.073841587e+00,4.56202e-02,9.99999e-01,6.66223e-02,9.87832e-01,6.91367e-01,9.99999e-01
1.079210795e+00,1.23890e-01,9.99999e-01,1.80295e-01,9.84371e-01,6.96426e-01,9.99999e-01
1.084606849e+00,2.63347e-01,9.99999e-01,3.83755e-01,9.76485e-01,7.01420e-01,9.99998e-01
1.090029883e+00,4.15283e-01,9.99999e-01,6.07223e-01,9.66621e-01,7.06351e-01,9.99998e-01
1.095480033e+00,5.07517e-01,9.99999e-01,7.81465e-01,9.11477e-01,7.11218e-01,9.99997e-01
1.100957433e+00,5.03885e-01,9.99999e-01,8.87759e-01,7.90942e-01,7.16022e-01,9.99995e-01
1.106462220e+00,3.83048e-01,9.99999e-01,9.51868e-01,5.56646e-01,7.20762e-01,9.99990e-01
1.111994531e+00,2.10296e-01,9.99999e-01,9.81875e-01,2.94609e-01,7.25439e-01,9.99981e-01
1.117554504e+00,1.03672e-01,9.99999e-01,9.95522e-01,1.42462e-01,7.30053e-01,9.99974e-01
1.123142276e+00,1.83784e-01,9.99999e-01,9.99703e-01,2.50209e-01,7.34604e-01,9.99969e-01
1.128757988e+00,2.94893e-01,9.99999e-01,9.99999e-01,3.99006e-01,7.39093e-01,9.99967e-01
1.134401778e+00,1.39766e-01,9.99999e-01,9.99999e-01,1.87986e-01,7.43520e-01,9.99963e-01
1.140073787e+00,4.26964e-01,9.99999e-01,9.99999e-01,5.70912e-01,7.47885e-01,9.99969e-01
1.145774156e+00,2.40870e-01,9.99999e-01,9.99999e-01,3.20233e-01,7.52189e-01,9.99974e-01
1.151503026e+00,2.15420e-01,9.99999e-01,9.99999e-01,2.84790e-01,7.56432e-01,9.99978e-01
1.157260541e+00,2.56284e-01,9.99999e-01,9.99999e-01,3.36949e-01,7.60614e-01,9.99983e-01
1.163046844e+00,3.39974e-01,9.99999e-01,9.99999e-01,4.44567e-01,7.64736e-01,9.99989e-01
1.168862078e+00,4.34258e-01,9.99999e-01,9.99999e-01,5.64855e-01,7.68798e-01,9.99994e-01
1.174706389e+00,5.43112e-01,9.99999e-01,9.99999e-01,7.02784e-01,7.72802e-01,9.99996e-01
1.180579921e+00,6.26195e-01,9.99999e-01,9.99999e-01,8.06178e-01,7.76746e-01,9.99997e-01
1.186482820e+00,6.91014e-01,9.99999e-01,9.99991e-01,8.85205e-01,7.80632e-01,9.99998e-01
1.192415234e+00,7.13821e-01,9.99999e-01,9.76586e-01,9.31314e-01,7.84460e-01,9.99998e-01
1.198377311e+00,4.07820e-01,9.99999e-01,5.43895e-01,9.41919e-01,7.88230e-01,9.99998e-01
1.204369197e+00,6.95290e-19,9.99999e-01,9.07173e-19,9.44960e-01,7.91944e-01,9.99998e-01
1.210391043e+00,1.14593e-73,9.99999e-01,1.48433e-73,9.47251e-01,7.95601e-01,9.99998e-01
1.216442998e+00,7.17304e-64,9.99999e-01,9.23491e-64,9.54842e-01,7.99203e-01,9.99999e-01
1.222525213e+00,6.38928e-63,9.99999e-01,8.10767e-63,9.64680e-01,8.02749e-01,9.99999e-01
1.228637839e+00,1.13370e-48,9.99999e-01,1.43015e-48,9.75358e-01,8.06240e-01,9.99999e-01
