#,Wave/freq,Total,O2,CO2,H2O,Rayleigh,CIA
4.000000000e-01,1.05009e-05,9.99999e-01,9.99999e-01,9.99977e-01,1.05012e-05,9.99999e-01
4.020000000e-01,1.31728e-05,9.99999e-01,9.99999e-01,9.99985e-01,1.31730e-05,9.99999e-01
4.040100000e-01,1.64467e-05,9.99999e-01,9.99999e-01,9.99993e-01,1.64468e-05,9.99999e-01
4.060300500e-01,2.04445e-05,9.99999e-01,9.99999e-01,9.99998e-01,2.04445e-05,9.99999e-01
4.080602003e-01,2.53048e-05,9.99999e-01,9.99999e-01,9.99999e-01,2.53049e-05,9.99999e-01
4.101005013e-01,3.11890e-05,9.99999e-01,9.99999e-01,9.99999e-01,3.11890e-05,9.99999e-01
4.121510038e-01,3.82830e-05,9.99999e-01,9.99999e-01,9.99998e-01,3.82831e-05,9.99999e-01
4.142117588e-01,4.68005e-05,9.99999e-01,9.99999e-01,9.99993e-01,4.68008e-05,9.99999e-01
4.162828176e-01,5.69855e-05,9.99999e-01,9.99999e-01,9.99971e-01,5.69871e-05,9.99999e-01
4.183642317e-01,6.91199e-05,9.99999e-01,9.99999e-01,9.99982e-01,6.91210e-05,9.99999e-01
4.204560528e-01,8.35187e-05,9.99999e-01,9.99999e-01,9.99989e-01,8.35196e-05,9.99999e-01
4.225583331e-01,1.00541e-04,9.99999e-01,9.99999e-01,9.99995e-01,1.00541e-04,9.99999e-01
4.246711247e-01,1.20588e-04,9.99999e-01,9.99999e-01,9.99996e-01,1.20589e-04,9.99999e-01
4.267944804e-01,1.44115e-04,9.99999e-01,9.99999e-01,9.99995e-01,1.44115e-04,9.99999e-01
4.289284528e-01,1.71626e-04,9.99999e-01,9.99999e-01,9.99996e-01,1.71627e-04,9.99999e-01
4.310730950e-01,2.03686e-04,9.99999e-01,9.99999e-01,9.99998e-01,2.03686e-04,9.99999e-01
4.332284605e-01,2.40918e-04,9.99999e-01,9.99999e-01,9.99999e-01,2.40918e-04,9.99999e-01
4.353946028e-01,2.84011e-04,9.99999e-01,9.99999e-01,9.99999e-01,2.84012e-04,9.99999e-01
4.375715758e-01,3.33726e-04,9.99999e-01,9.99999e-01,9.99996e-01,3.33727e-04,9.99999e-01
4.397594337e-01,3.90888e-04,9.99999e-01,9.99999e-01,9.99975e-01,3.90898e-04,9.99999e-01
4.419582309e-01,4.56378e-04,9.99999e-01,9.99999e-01,9.99876e-01,4.56434e-04,9.99999e-01
4.441680220e-01,5.31278e-04,9.99999e-01,9.99999e-01,9.99902e-01,5.31329e-04,9.99999e-01
4.463888621e-01,6.16598e-04,9.99999e-01,9.99999e-01,9.99898e-01,6.16660e-04,9.99999e-01
4.486208064e-01,7.13548e-04,9.99999e-01,9.99999e-01,9.99936e-01,7.13593e-04,9.99999e-01
4.508639105e-01,8.23360e-04,9.99999e-01,9.99999e-01,9.99970e-01,8.23384e-04,9.99999e-01
4.531182300e-01,9.47375e-04,9.99999e-01,9.99999e-01,9.99987e-01,9.47386e-04,9.99999e-01
4.553838212e-01,1.08704e-03,9.99999e-01,9.99999e-01,9.99991e-01,1.08705e-03,9.99999e-01
4.576607403e-01,1.24391e-03,9.99999e-01,9.99999e-01,9.99995e-01,1.24391e-03,9.99999e-01
4.599490440e-01,1.41962e-03,9.99999e-01,9.99999e-01,9.99996e-01,1.41963e-03,9.99999e-01
4.622487892e-01,1.61594e-03,9.99999e-01,9.99999e-01,9.99999e-01,1.61594e-03,9.99999e-01
4.645600332e-01,1.83470e-03,9.99999e-01,9.99999e-01,9.99997e-01,1.83471e-03,9.99999e-01
4.668828333e-01,2.07781e-03,9.99999e-01,9.99999e-01,9.99970e-01,2.07787e-03,9.99999e-01
4.692172475e-01,2.34733e-03,9.99999e-01,9.99999e-01,9.99936e-01,2.34748e-03,9.99999e-01
4.715633337e-01,2.64558e-03,9.99999e-01,9.99999e-01,9.99958e-01,2.64569e-03,9.99999e-01
4.739211504e-01,2.97463e-03,9.99999e-01,9.99999e-01,9.99959e-01,2.97475e-03,9.99999e-01
4.762907561e-01,3.33693e-03,9.99999e-01,9.99999e-01,9.99978e-01,3.33700e-03,9.99999e-01
4.786722099e-01,3.73484e-03,9.99999e-01,9.99999e-01,9.99991e-01,3.73487e-03,9.99999e-01
4.810655710e-01,4.17088e-03,9.99999e-01,9.99999e-01,9.99996e-01,4.17089e-03,9.99999e-01
4.834708988e-01,4.64756e-03,9.99999e-01,9.99999e-01,9.99975e-01,4.64767e-03,9.99999e-01
4.858882533e-01,5.16766e-03,9.99999e-01,9.99999e-01,9.99954e-01,5.16789e-03,9.99999e-01
4.883176946e-01,5.73410e-03,9.99999e-01,9.99999e-01,9.99962e-01,5.73431e-03,9.99999e-01
4.907592831e-01,6.34954e-03,9.99999e-01,9.99999e-01,9.99965e-01,6.34975e-03,9.99999e-01
4.932130795e-01,7.01693e-03,9.99999e-01,9.99999e-01,9.99975e-01,7.01710e-03,9.99999e-01
4.956791449e-01,7.73920e-03,9.99999e-01,9.99999e-01,9.99986e-01,7.73929e-03,9.99999e-01
4.981575406e-01,8.51878e-03,9.99999e-01,9.99999e-01,9.99936e-01,8.51932e-03,9.99999e-01
5.006483283e-01,9.35865e-03,9.99999e-01,9.99999e-01,9.99836e-01,9.36018e-03,9.99999e-01
5.031515699e-01,1.02564e-02,9.99999e-01,9.99999e-01,9.99166e-01,1.02649e-02,9.99999e-01
5.056673278e-01,1.12317e-02,9.99999e-01,9.99999e-01,9.99558e-01,1.12367e-02,9.99999e-01
5.081956644e-01,1.22716e-02,9.99999e-01,9.99999e-01,9.99443e-01,1.22784e-02,9.99999e-01
5.107366428e-01,1.33882e-02,9.99999e-01,9.99999e-01,9.99623e-01,1.33933e-02,9.99999e-01
5.132903260e-01,1.45811e-02,9.99999e-01,9.99999e-01,9.99784e-01,1.45843e-02,9.99999e-01
5.158567776e-01,1.58531e-02,9.99999e-01,9.99999e-01,9.99908e-01,1.58545e-02,9.99999e-01
5.184360615e-01,1.72063e-02,9.99999e-01,9.99999e-01,9.99963e-01,1.72070e-02,9.99999e-01
5.210282418e-01,1.86444e-02,9.99999e-01,9.99999e-01,9.99985e-01,1.86446e-02,9.99999e-01
5.236333830e-01,2.01693e-02,9.99999e-01,9.99999e-01,9.99945e-01,2.01704e-02,9.99999e-01
5.262515499e-01,2.17864e-02,9.99999e-01,9.99999e-01,9.99965e-01,2.17871e-02,9.99999e-01
5.288828077e-01,2.34969e-02,9.99999e-01,9.99999e-01,9.99968e-01,2.34977e-02,9.99999e-01
5.315272217e-01,2.53040e-02,9.99999e-01,9.99999e-01,9.99972e-01,2.53047e-02,9.99999e-01
5.341848578e-01,2.72103e-02,9.99999e-01,9.99999e-01,9.99981e-01,2.72108e-02,9.99999e-01
5.368557821e-01,2.92168e-02,9.99999e-01,9.99999e-01,9.99936e-01,2.92186e-02,9.99999e-01
5.395400610e-01,3.13233e-02,9.99999e-01,9.99999e-01,9.99772e-01,3.13304e-02,9.99999e-01
5.422377613e-01,3.35387e-02,9.99999e-01,9.99999e-01,9.99703e-01,3.35486e-02,9.99999e-01
5.449489501e-01,3.58656e-02,9.99999e-01,9.99999e-01,9.99725e-01,3.58754e-02,9.99999e-01
5.476736949e-01,3.83034e-02,9.99999e-01,9.99999e-01,9.99755e-01,3.83127e-02,9.99999e-01
5.504120634e-01,4.08553e-02,9.99999e-01,9.99999e-01,9.99822e-01,4.08625e-02,9.99999e-01
5.531641237e-01,4.35228e-02,9.99999e-01,9.99999e-01,9.99910e-01,4.35266e-02,9.99999e-01
5.559299443e-01,4.63046e-02,9.99999e-01,9.99999e-01,9.99956e-01,4.63066e-02,9.99999e-01
5.587095940e-01,4.92026e-02,9.99999e-01,9.99999e-01,9.99972e-01,4.92039e-02,9.99999e-01
5.615031420e-01,5.22183e-02,9.99999e-01,9.99999e-01,9.99969e-01,5.22199e-02,9.99999e-01
5.643106577e-01,5.53538e-02,9.99999e-01,9.99999e-01,9.99965e-01,5.53557e-02,9.99999e-01
5.671322110e-01,5.85883e-02,9.99999e-01,9.99999e-01,9.99591e-01,5.86122e-02,9.99999e-01
5.699678720e-01,6.19628e-02,9.99999e-01,9.99999e-01,9.99558e-01,6.19902e-02,9.99999e-01
5.728177114e-01,6.54605e-02,9.99999e-01,9.99999e-01,9.99543e-01,6.54904e-02,9.99999e-01
5.756818000e-01,6.90842e-02,9.99999e-01,9.99999e-01,9.99580e-01,6.91132e-02,9.99999e-01
5.785602090e-01,7.28322e-02,9.99999e-01,9.99999e-01,9.99633e-01,7.28589e-02,9.99999e-01
5.814530100e-01,7.66994e-02,9.99999e-01,9.99999e-01,9.99632e-01,7.67275e-02,9.99999e-01
5.843602750e-01,8.06840e-02,9.99999e-01,9.99999e-01,9.99564e-01,8.07191e-02,9.99999e-01
5.872820764e-01,8.45149e-02,9.99999e-01,9.99999e-01,9.96246e-01,8.48333e-02,9.99999e-01
5.902184868e-01,8.86625e-02,9.99999e-01,9.99999e-01,9.95428e-01,8.90696e-02,9.99999e-01
5.931695792e-01,9.31263e-02,9.99999e-01,9.99999e-01,9.96774e-01,9.34276e-02,9.99999e-01
5.961354271e-01,9.75598e-02,9.99999e-01,9.99999e-01,9.96460e-01,9.79063e-02,9.99999e-01
5.991161043e-01,1.02240e-01,9.99999e-01,9.99999e-01,9.97415e-01,1.02505e-01,9.99999e-01
6.021116848e-01,1.07065e-01,9.99999e-01,9.99999e-01,9.98531e-01,1.07222e-01,9.99999e-01
6.051222432e-01,1.11974e-01,9.99999e-01,9.99999e-01,9.99256e-01,1.12057e-01,9.99999e-01
6.081478544e-01,1.16970e-01,9.99999e-01,9.99999e-01,9.99679e-01,1.17008e-01,9.99999e-01
6.111885937e-01,1.22057e-01,9.99999e-01,9.99999e-01,9.99863e-01,1.22073e-01,9.99999e-01
6.142445367e-01,1.27243e-01,9.99999e-01,9.99999e-01,9.99938e-01,1.27251e-01,9.99999e-01
6.173157594e-01,1.32536e-01,9.99999e-01,9.99999e-01,9.99966e-01,1.32540e-01,9.99999e-01
6.204023382e-01,1.37934e-01,9.99999e-01,9.99999e-01,9.99971e-01,1.37938e-01,9.99999e-01
6.235043498e-01,1.43424e-01,9.99999e-01,9.99999e-01,9.99876e-01,1.43442e-01,9.99999e-01
6.266218716e-01,1.48953e-01,9.99999e-01,9.99999e-01,9.99342e-01,1.49051e-01,9.99999e-01
6.297549810e-01,1.54724e-01,9.99999e-01,9.99999e-01,9.99758e-01,1.54761e-01,9.99999e-01
6.329037559e-01,1.60495e-01,9.99999e-01,9.99999e-01,9.99522e-01,1.60572e-01,9.99999e-01
6.360682746e-01,1.66411e-01,9.99999e-01,9.99999e-01,9.99594e-01,1.66479e-01,9.99999e-01
6.392486160e-01,1.72389e-01,9.99999e-01,9.99999e-01,9.99473e-01,1.72480e-01,9.99999e-01
6.424448591e-01,1.78448e-01,9.99999e-01,9.99999e-01,9.99299e-01,1.78573e-01,9.99999e-01
6.456570834e-01,1.84153e-01,9.99999e-01,9.99999e-01,9.96749e-01,1.84754e-01,9.99999e-01
6.488853688e-01,1.90563e-01,9.99999e-01,9.99999e-01,9.97603e-01,1.91021e-01,9.99999e-01
6.521297956e-01,1.96888e-01,9.99999e-01,9.99999e-01,9.97557e-01,1.97370e-01,9.99999e-01
6.553904446e-01,2.03306e-01,9.99999e-01,9.99999e-01,9.97586e-01,2.03798e-01,9.99999e-01
6.586673968e-01,2.09865e-01,9.99999e-01,9.99999e-01,9.97917e-01,2.10303e-01,9.99999e-01
6.619607338e-01,2.16620e-01,9.99999e-01,9.99999e-01,9.98795e-01,2.16881e-01,9.99999e-01
6.652705375e-01,2.23372e-01,9.99999e-01,9.99999e-01,9.99301e-01,2.23528e-01,9.99999e-01
6.685968902e-01,2.30167e-01,9.99999e-01,9.99999e-01,9.99675e-01,2.30242e-01,9.99999e-01
6.719398746e-01,2.36983e-01,9.99999e-01,9.99999e-01,9.99849e-01,2.37019e-01,9.99999e-01
6.752995740e-01,2.43836e-01,9.99999e-01,9.99999e-01,9.99918e-01,2.43855e-01,9.99999e-01
6.786760719e-01,2.50719e-01,9.99999e-01,9.99999e-01,9.99882e-01,2.50748e-01,9.99999e-01
6.820694522e-01,2.57643e-01,9.99999e-01,9.99999e-01,9.99799e-01,2.57694e-01,9.99999e-01
6.854797995e-01,2.64621e-01,9.99999e-01,9.99999e-01,9.99741e-01,2.64690e-01,9.99999e-01
6.889071985e-01,2.71563e-01,9.99999e-01,9.99999e-01,9.99380e-01,2.71731e-01,9.99999e-01
6.923517345e-01,2.75984e-01,9.99999e-01,9.99999e-01,9.89846e-01,2.78815e-01,9.99999e-01
6.958134932e-01,2.84407e-01,9.99999e-01,9.99999e-01,9.94643e-01,2.85939e-01,9.99999e-01
6.992925606e-01,2.91624e-01,9.99999e-01,9.99999e-01,9.94972e-01,2.93098e-01,9.99999e-01
7.027890234e-01,2.98418e-01,9.99999e-01,9.99999e-01,9.93765e-01,3.00290e-01,9.99999e-01
7.063029686e-01,3.05899e-01,9.99999e-01,9.99999e-01,9.94759e-01,3.07511e-01,9.99999e-01
7.098344834e-01,3.13175e-01,9.99999e-01,9.99999e-01,9.94971e-01,3.14758e-01,9.99999e-01
7.133836558e-01,3.19887e-01,9.99999e-01,9.99999e-01,9.93352e-01,3.22027e-01,9.99999e-01
7.169505741e-01,3.12022e-01,9.99999e-01,9.99999e-01,9.47484e-01,3.29316e-01,9.99998e-01
7.205353270e-01,3.27760e-01,9.99999e-01,9.99999e-01,9.73677e-01,3.36621e-01,9.99998e-01
7.241380036e-01,3.32585e-01,9.99999e-01,9.99999e-01,9.66988e-01,3.43939e-01,9.99998e-01
7.277586936e-01,3.40780e-01,9.99999e-01,9.99999e-01,9.70146e-01,3.51267e-01,9.99998e-01
7.313974871e-01,3.47186e-01,9.99999e-01,9.99999e-01,9.68166e-01,3.58601e-01,9.99999e-01
7.350544745e-01,3.59540e-01,9.99999e-01,9.99999e-01,9.82511e-01,3.65940e-01,9.99999e-01
7.387297469e-01,3.68463e-01,9.99999e-01,9.99999e-01,9.87099e-01,3.73279e-01,9.99999e-01
7.424233956e-01,3.78203e-01,9.99999e-01,9.99999e-01,9.93661e-01,3.80615e-01,9.99999e-01
7.461355126e-01,3.86457e-01,9.99999e-01,9.99999e-01,9.96158e-01,3.87947e-01,9.99999e-01
7.498661902e-01,3.94563e-01,9.99999e-01,9.99999e-01,9.98207e-01,3.95272e-01,9.99999e-01
7.536155211e-01,4.02232e-01,9.99999e-01,9.99999e-01,9.99121e-01,4.02585e-01,9.99999e-01
7.573835987e-01,4.09701e-01,9.99999e-01,9.99999e-01,9.99547e-01,4.09886e-01,9.99999e-01
7.611705167e-01,4.17054e-01,9.99999e-01,9.99999e-01,9.99718e-01,4.17171e-01,9.99999e-01
7.649763693e-01,4.24363e-01,9.99999e-01,9.99999e-01,9.99823e-01,4.24437e-01,9.99999e-01
7.688012511e-01,4.31630e-01,9.99999e-01,9.99999e-01,9.99877e-01,4.31683e-01,9.99999e-01
7.726452574e-01,4.38862e-01,9.99999e-01,9.99999e-01,9.99898e-01,4.38906e-01,9.99999e-01
7.765084837e-01,4.46040e-01,9.99999e-01,9.99999e-01,9.99857e-01,4.46103e-01,9.99999e-01
7.803910261e-01,4.36705e-01,9.99999e-01,9.64019e-01,9.99385e-01,4.53273e-01,9.99999e-01
7.842929812e-01,3.88735e-01,9.99999e-01,8.46035e-01,9.97855e-01,4.60413e-01,9.99999e-01
7.882144461e-01,3.89541e-01,9.99999e-01,8.36757e-01,9.95562e-01,4.67521e-01,9.99999e-01
7.921555184e-01,4.26609e-01,9.99999e-01,9.01035e-01,9.97557e-01,4.74596e-01,9.99999e-01
7.961162960e-01,4.47116e-01,9.99999e-01,9.32284e-01,9.95714e-01,4.81634e-01,9.99999e-01
8.000968774e-01,4.68102e-01,9.99999e-01,9.62744e-01,9.95033e-01,4.88635e-01,9.99999e-01
8.040973618e-01,4.83514e-01,9.99999e-01,9.80478e-01,9.95036e-01,4.95596e-01,9.99999e-01
8.081178486e-01,4.92473e-01,9.99999e-01,9.91014e-01,9.88882e-01,5.02516e-01,9.99999e-01
8.121584379e-01,4.84800e-01,9.99999e-01,9.97202e-01,9.54361e-01,5.09392e-01,9.99998e-01
8.162192301e-01,4.87909e-01,9.99999e-01,9.99381e-01,9.45721e-01,5.16225e-01,9.99998e-01
8.203003262e-01,5.08816e-01,9.99999e-01,9.99989e-01,9.72867e-01,5.23011e-01,9.99998e-01
8.244018279e-01,5.09461e-01,9.99999e-01,9.99999e-01,9.61701e-01,5.29750e-01,9.99998e-01
8.285238370e-01,5.18946e-01,9.99999e-01,9.99999e-01,9.67387e-01,5.36440e-01,9.99998e-01
8.326664562e-01,5.25134e-01,9.99999e-01,9.99999e-01,9.66953e-01,5.43080e-01,9.99999e-01
8.368297885e-01,5.36625e-01,9.99999e-01,9.99999e-01,9.76269e-01,5.49669e-01,9.99999e-01
8.410139374e-01,5.48326e-01,9.99999e-01,9.99999e-01,9.85833e-01,5.56205e-01,9.99999e-01
8.452190071e-01,5.58764e-01,9.99999e-01,9.99999e-01,9.93026e-01,5.62687e-01,9.99999e-01
8.494451021e-01,5.66815e-01,9.99999e-01,9.99999e-01,9.95958e-01,5.69115e-01,9.99999e-01
8.536923276e-01,5.74108e-01,9.99999e-01,9.99999e-01,9.97603e-01,5.75487e-01,9.99999e-01
8.579607893e-01,5.80945e-01,9.99999e-01,9.99999e-01,9.98526e-01,5.81802e-01,9.99999e-01
8.622505932e-01,5.87509e-01,9.99999e-01,9.99999e-01,9.99062e-01,5.88060e-01,9.99999e-01
8.665618462e-01,5.47900e-01,9.99999e-01,9.22498e-01,9.99421e-01,5.94259e-01,9.99999e-01
8.708946554e-01,3.93311e-01,9.99999e-01,6.55497e-01,9.99338e-01,6.00400e-01,9.99999e-01
8.752491287e-01,4.30509e-01,9.99999e-01,7.10457e-01,9.99114e-01,6.06480e-01,9.99999e-01
8.796253743e-01,5.06787e-01,9.99999e-01,8.28386e-01,9.98776e-01,6.12501e-01,9.99999e-01
8.840235012e-01,5.60126e-01,9.99999e-01,9.06925e-01,9.98601e-01,6.18460e-01,9.99999e-01
8.884436187e-01,5.97719e-01,9.99999e-01,9.62137e-01,9.94954e-01,6.24358e-01,9.99999e-01
8.928858368e-01,5.88053e-01,9.99999e-01,9.84512e-01,9.47669e-01,6.30195e-01,9.99998e-01
8.973502660e-01,5.75802e-01,9.99999e-01,9.96202e-01,9.08769e-01,6.35968e-01,9.99998e-01
9.018370173e-01,6.10719e-01,9.99999e-01,9.99580e-01,9.52137e-01,6.41679e-01,9.99998e-01
9.063462024e-01,6.13950e-01,9.99999e-01,9.89498e-01,9.58157e-01,6.47327e-01,9.99997e-01
9.108779334e-01,5.96031e-01,9.99999e-01,9.75700e-01,9.35307e-01,6.52912e-01,9.99997e-01
9.154323231e-01,6.06754e-01,9.99999e-01,9.94212e-01,9.26750e-01,6.58433e-01,9.99997e-01
9.200094847e-01,5.77854e-01,9.99999e-01,9.20781e-01,9.42078e-01,6.63891e-01,9.99997e-01
9.246095321e-01,5.42462e-01,9.99999e-01,8.86652e-01,9.12010e-01,6.69284e-01,9.99995e-01
9.292325798e-01,3.34855e-01,9.99999e-01,9.10639e-01,5.39356e-01,6.74614e-01,9.99990e-01
9.338787427e-01,2.81834e-01,9.99999e-01,9.12943e-01,4.49362e-01,6.79879e-01,9.99988e-01
9.385481364e-01,4.65704e-01,9.99999e-01,9.35247e-01,7.23782e-01,6.85081e-01,9.99987e-01
9.432408771e-01,4.25504e-01,9.99999e-01,9.59764e-01,6.40759e-01,6.90218e-01,9.99986e-01
9.479570815e-01,3.69773e-01,9.99999e-01,9.79186e-01,5.42472e-01,6.95291e-01,9.99988e-01
9.526968669e-01,4.36721e-01,9.99999e-01,9.89900e-01,6.29374e-01,7.00300e-01,9.99990e-01
9.574603512e-01,4.57818e-01,9.99999e-01,9.95667e-01,6.51784e-01,7.05245e-01,9.99993e-01
9.622476530e-01,5.00009e-01,9.99999e-01,9.98646e-01,7.05007e-01,7.10127e-01,9.99995e-01
9.670588912e-01,5.84285e-01,9.99999e-01,9.99593e-01,8.17560e-01,7.14945e-01,9.99996e-01
9.718941857e-01,6.34458e-01,9.99999e-01,9.99970e-01,8.81584e-01,7.19699e-01,9.99997e-01
9.767536566e-01,6.52444e-01,9.99999e-01,9.99999e-01,9.00681e-01,7.24390e-01,9.99998e-01
9.816374249e-01,6.74555e-01,9.99999e-01,9.99999e-01,9.25292e-01,7.29018e-01,9.99998e-01
9.865456120e-01,6.98839e-01,9.99999e-01,9.99999e-01,9.52637e-01,7.33584e-01,9.99999e-01
9.914783401e-01,7.16289e-01,9.99999e-01,9.99999e-01,9.70467e-01,7.38087e-01,9.99999e-01
9.964357318e-01,7.30504e-01,9.99999e-01,9.99999e-01,9.83807e-01,7.42527e-01,9.99999e-01
1.001417910e+00,7.39635e-01,9.99999e-01,9.99999e-01,9.90263e-01,7.46907e-01,9.99999e-01
1.006425000e+00,7.47052e-01,9.99999e-01,9.99999e-01,9.94446e-01,7.51224e-01,9.99999e-01
1.011457125e+00,7.52870e-01,9.99999e-01,9.99999e-01,9.96544e-01,7.55481e-01,9.99999e-01
1.016514411e+00,7.57896e-01,9.99999e-01,9.99999e-01,9.97655e-01,7.59677e-01,9.99999e-01
1.021596983e+00,7.62346e-01,9.99999e-01,9.99946e-01,9.98131e-01,7.63812e-01,9.99999e-01
1.026704968e+00,7.63629e-01,9.99999e-01,9.95901e-01,9.98543e-01,7.67888e-01,9.99999e-01
1.031838492e+00,7.36124e-01,9.99999e-01,9.54626e-01,9.98939e-01,7.71905e-01,9.99999e-01
1.036997685e+00,1.08822e-01,9.99999e-01,1.40329e-01,9.99370e-01,7.75862e-01,9.99999e-01
1.042182673e+00,7.57639e-02,9.99999e-01,9.72267e-02,9.99251e-01,7.79761e-01,9.99999e-01
1.047393587e+00,9.57764e-02,9.99999e-01,1.22333e-01,9.99006e-01,7.83602e-01,9.99999e-01
1.052630555e+00,1.93134e-03,9.99999e-01,2.45528e-03,9.98638e-01,7.87385e-01,9.99999e-01
1.057893707e+00,5.11334e-03,9.99999e-01,6.47314e-03,9.97729e-01,7.91112e-01,9.99999e-01
1.063183176e+00,1.91152e-02,9.99999e-01,2.41141e-02,9.96262e-01,7.94782e-01,9.99999e-01
1.068499092e+00,5.87880e-02,9.99999e-01,7.40162e-02,9.93743e-01,7.98396e-01,9.99999e-01
1.073841587e+00,1.53120e-01,9.99999e-01,1.92114e-01,9.92688e-01,8.01955e-01,9.99999e-01
1.079210795e+00,2.80958e-01,9.99999e-01,3.51797e-01,9.90620e-01,8.05458e-01,9.99999e-01
1.084606849e+00,4.48282e-01,9.99999e-01,5.61729e-01,9.85848e-01,8.08908e-01,9.99999e-01
1.090029883e+00,5.90316e-01,9.99999e-01,7.41250e-01,9.79795e-01,8.12303e-01,9.99998e-01
1.095480033e+00,6.65986e-01,9.99999e-01,8.62700e-01,9.45833e-01,8.15645e-01,9.99998e-01
1.100957433e+00,6.62644e-01,9.99999e-01,9.31315e-01,8.68125e-01,8.18935e-01,9.99997e-01
1.106462220e+00,5.58924e-01,9.99999e-01,9.70981e-01,6.99331e-01,8.22173e-01,9.99994e-01
1.111994531e+00,3.85504e-01,9.99999e-01,9.89145e-01,4.71805e-01,8.25359e-01,9.99988e-01
1.117554504e+00,2.46392e-01,9.99999e-01,9.97332e-01,2.98037e-01,8.28494e-01,9.99984e-01
1.123142276e+00,3.44454e-01,9.99999e-01,9.99823e-01,4.14257e-01,8.31578e-01,9.99981e-01
1.128757988e+00,4.72211e-01,9.99999e-01,9.99999e-01,5.65795e-01,8.34613e-01,9.99980e-01
1.134401778e+00,2.58118e-01,9.99999e-01,9.99999e-01,3.08170e-01,8.37599e-01,9.99977e-01
1.140073787e+00,5.96998e-01,9.99999e-01,9.99999e-01,7.10270e-01,8.40536e-01,9.99982e-01
1.145774156e+00,4.15125e-01,9.99999e-01,9.99999e-01,4.92196e-01,8.43425e-01,9.99984e-01
1.151503026e+00,3.85381e-01,9.99999e-01,9.99999e-01,4.55394e-01,8.46267e-01,9.99986e-01
1.157260541e+00,4.37054e-01,9.99999e-01,9.99999e-01,5.14754e-01,8.49062e-01,9.99989e-01
1.163046844e+00,5.20601e-01,9.99999e-01,9.99999e-01,6.11174e-01,8.51810e-01,9.99993e-01
1.168862078e+00,6.06177e-01,9.99999e-01,9.99999e-01,7.09384e-01,8.54513e-01,9.99996e-01
1.174706389e+00,6.93492e-01,9.99999e-01,9.99999e-01,8.09048e-01,8.57171e-01,9.99997e-01
1.180579921e+00,7.55620e-01,9.99999e-01,9.99999e-01,8.78848e-01,8.59784e-01,9.99998e-01
1.186482820e+00,8.01669e-01,9.99999e-01,9.99993e-01,9.29634e-01,8.62354e-01,9.99998e-01
1.192415234e+00,8.16984e-01,9.99999e-01,9.85509e-01,9.58336e-01,8.64880e-01,9.99998e-01
1.198377311e+00,4.70813e-01,9.99999e-01,5.59310e-01,9.64808e-01,8.67363e-01,9.99998e-01
1.204369197e+00,3.37856e-12,9.99999e-01,3.96107e-12,9.66656e-01,8.69805e-01,9.99998e-01
1.210391043e+00,5.84001e-45,9.99999e-01,6.81729e-45,9.68083e-01,8.72204e-01,9.99999e-01
1.216442998e+00,4.21789e-39,9.99999e-01,4.90581e-39,9.72750e-01,8.74563e-01,9.99999e-01
1.222525213e+00,1.56033e-38,9.99999e-01,1.79918e-38,9.78732e-01,8.76882e-01,9.99999e-01
1.228637839e+00,7.54356e-30,9.99999e-01,8.66912e-30,9.85192e-01,8.79160e-01,9.99999e-01
