#,Wave/freq,Total,O2,CO2,H2O,Rayleigh,CIA
4.000000000e-01,4.46664e-17,9.99999e-01,9.99999e-01,9.99925e-01,4.46697e-17,9.99999e-01
4.020000000e-01,9.40325e-17,9.99999e-01,9.99999e-01,9.99953e-01,9.40368e-17,9.99999e-01
4.040100000e-01,1.94920e-16,9.99999e-01,9.99999e-01,9.99980e-01,1.94924e-16,9.99999e-01
4.060300500e-01,3.98269e-16,9.99999e-01,9.99999e-01,9.99995e-01,3.98271e-16,9.99999e-01
4.080602003e-01,8.02348e-16,9.99999e-01,9.99999e-01,9.99998e-01,8.02349e-16,9.99999e-01
4.101005013e-01,1.59419e-15,9.99999e-01,9.99999e-01,9.99999e-01,1.59419e-15,9.99999e-01
4.121510038e-01,3.12482e-15,9.99999e-01,9.99999e-01,9.99996e-01,3.12483e-15,9.99999e-01
4.142117588e-01,6.04408e-15,9.99999e-01,9.99999e-01,9.99979e-01,6.04421e-15,9.99999e-01
4.162828176e-01,1.15386e-14,9.99999e-01,9.99999e-01,9.99908e-01,1.15397e-14,9.99999e-01
4.183642317e-01,2.17508e-14,9.99999e-01,9.99999e-01,9.99945e-01,2.17520e-14,9.99999e-01
4.204560528e-01,4.04905e-14,9.99999e-01,9.99999e-01,9.99966e-01,4.04918e-14,9.99999e-01
4.225583331e-01,7.44560e-14,9.99999e-01,9.99999e-01,9.99987e-01,7.44569e-14,9.99999e-01
4.246711247e-01,1.35274e-13,9.99999e-01,9.99999e-01,9.99989e-01,1.35275e-13,9.99999e-01
4.267944804e-01,2.42886e-13,9.99999e-01,9.99999e-01,9.99984e-01,2.42889e-13,9.99999e-01
4.289284528e-01,4.31095e-13,9.99999e-01,9.99999e-01,9.99988e-01,4.31099e-13,9.99999e-01
4.310730950e-01,7.56525e-13,9.99999e-01,9.99999e-01,9.99994e-01,7.56528e-13,9.99999e-01
4.332284605e-01,1.31295e-12,9.99999e-01,9.99999e-01,9.99998e-01,1.31295e-12,9.99999e-01
4.353946028e-01,2.25394e-12,9.99999e-01,9.99999e-01,9.99998e-01,2.25394e-12,9.99999e-01
4.375715758e-01,3.82822e-12,9.99999e-01,9.99999e-01,9.99990e-01,3.82825e-12,9.99999e-01
4.397594337e-01,6.43398e-12,9.99999e-01,9.99999e-01,9.99919e-01,6.43450e-12,9.99999e-01
4.419582309e-01,1.07003e-11,9.99999e-01,9.99999e-01,9.99592e-01,1.07047e-11,9.99999e-01
4.441680220e-01,1.76250e-11,9.99999e-01,9.99999e-01,9.99682e-01,1.76306e-11,9.99999e-01
4.463888621e-01,2.87433e-11,9.99999e-01,9.99999e-01,9.99668e-01,2.87528e-11,9.99999e-01
4.486208064e-01,4.64310e-11,9.99999e-01,9.99999e-01,9.99794e-01,4.64405e-11,9.99999e-01
4.508639105e-01,7.42951e-11,9.99999e-01,9.99999e-01,9.99903e-01,7.43022e-11,9.99999e-01
4.531182300e-01,1.17776e-10,9.99999e-01,9.99999e-01,9.99961e-01,1.17781e-10,9.99999e-01
4.553838212e-01,1.85005e-10,9.99999e-01,9.99999e-01,9.99973e-01,1.85010e-10,9.99999e-01
4.576607403e-01,2.88030e-10,9.99999e-01,9.99999e-01,9.99987e-01,2.88033e-10,9.99999e-01
4.599490440e-01,4.44517e-10,9.99999e-01,9.99999e-01,9.99991e-01,4.44521e-10,9.99999e-01
4.622487892e-01,6.80172e-10,9.99999e-01,9.99999e-01,9.99998e-01,6.80173e-10,9.99999e-01
4.645600332e-01,1.03204e-09,9.99999e-01,9.99999e-01,9.99993e-01,1.03204e-09,9.99999e-01
4.668828333e-01,1.55295e-09,9.99999e-01,9.99999e-01,9.99902e-01,1.55310e-09,9.99999e-01
4.692172475e-01,2.31796e-09,9.99999e-01,9.99999e-01,9.99792e-01,2.31844e-09,9.99999e-01
4.715633337e-01,3.43317e-09,9.99999e-01,9.99999e-01,9.99864e-01,3.43363e-09,9.99999e-01
4.739211504e-01,5.04531e-09,9.99999e-01,9.99999e-01,9.99869e-01,5.04596e-09,9.99999e-01
4.762907561e-01,7.35872e-09,9.99999e-01,9.99999e-01,9.99932e-01,7.35921e-09,9.99999e-01
4.786722099e-01,1.06529e-08,9.99999e-01,9.99999e-01,9.99972e-01,1.06532e-08,9.99999e-01
4.810655710e-01,1.53093e-08,9.99999e-01,9.99999e-01,9.99991e-01,1.53094e-08,9.99999e-01
4.834708988e-01,2.18419e-08,9.99999e-01,9.99999e-01,9.99920e-01,2.18436e-08,9.99999e-01
4.858882533e-01,3.09441e-08,9.99999e-01,9.99999e-01,9.99852e-01,3.09487e-08,9.99999e-01
4.883176946e-01,4.35429e-08,9.99999e-01,9.99999e-01,9.99876e-01,4.35482e-08,9.99999e-01
4.907592831e-01,6.08585e-08,9.99999e-01,9.99999e-01,9.99888e-01,6.08652e-08,9.99999e-01
4.932130795e-01,8.45009e-08,9.99999e-01,9.99999e-01,9.99920e-01,8.45076e-08,9.99999e-01
4.956791449e-01,1.16571e-07,9.99999e-01,9.99999e-01,9.99957e-01,1.16575e-07,9.99999e-01
4.981575406e-01,1.59760e-07,9.99999e-01,9.99999e-01,9.99791e-01,1.59793e-07,9.99999e-01
5.006483283e-01,2.17556e-07,9.99999e-01,9.99999e-01,9.99459e-01,2.17673e-07,9.99999e-01
5.031515699e-01,2.93907e-07,9.99999e-01,9.99999e-01,9.97263e-01,2.94714e-07,9.99999e-01
5.056673278e-01,3.96066e-07,9.99999e-01,9.99999e-01,9.98554e-01,3.96639e-07,9.99999e-01
5.081956644e-01,5.29726e-07,9.99999e-01,9.99999e-01,9.98177e-01,5.30693e-07,9.99999e-01
5.107366428e-01,7.05112e-07,9.99999e-01,9.99999e-01,9.98768e-01,7.05981e-07,9.99999e-01
5.132903260e-01,9.33231e-07,9.99999e-01,9.99999e-01,9.99296e-01,9.33888e-07,9.99999e-01
5.158567776e-01,1.22819e-06,9.99999e-01,9.99999e-01,9.99702e-01,1.22856e-06,9.99999e-01
5.184360615e-01,1.60729e-06,9.99999e-01,9.99999e-01,9.99880e-01,1.60748e-06,9.99999e-01
5.210282418e-01,2.09204e-06,9.99999e-01,9.99999e-01,9.99955e-01,2.09213e-06,9.99999e-01
5.236333830e-01,2.70828e-06,9.99999e-01,9.99999e-01,9.99821e-01,2.70876e-06,9.99999e-01
5.262515499e-01,3.48890e-06,9.99999e-01,9.99999e-01,9.99887e-01,3.48929e-06,9.99999e-01
5.288828077e-01,4.47185e-06,9.99999e-01,9.99999e-01,9.99897e-01,4.47231e-06,9.99999e-01
5.315272217e-01,5.70372e-06,9.99999e-01,9.99999e-01,9.99909e-01,5.70423e-06,9.99999e-01
5.341848578e-01,7.24018e-06,9.99999e-01,9.99999e-01,9.99940e-01,7.24061e-06,9.99999e-01
5.368557821e-01,9.14570e-06,9.99999e-01,9.99999e-01,9.99791e-01,9.14760e-06,9.99999e-01
5.395400610e-01,1.14950e-05,9.99999e-01,9.99999e-01,9.99249e-01,1.15036e-05,9.99999e-01
5.422377613e-01,1.43871e-05,9.99999e-01,9.99999e-01,9.99030e-01,1.44011e-05,9.99999e-01
5.449489501e-01,1.79323e-05,9.99999e-01,9.99999e-01,9.99098e-01,1.79485e-05,9.99999e-01
5.476736949e-01,2.22549e-05,9.99999e-01,9.99999e-01,9.99201e-01,2.22727e-05,9.99999e-01
5.504120634e-01,2.75052e-05,9.99999e-01,9.99999e-01,9.99420e-01,2.75211e-05,9.99999e-01
5.531641237e-01,3.38546e-05,9.99999e-01,9.99999e-01,9.99708e-01,3.38644e-05,9.99999e-01
5.559299443e-01,4.14936e-05,9.99999e-01,9.99999e-01,9.99858e-01,4.14995e-05,9.99999e-01
5.587095940e-01,5.06476e-05,9.99999e-01,9.99999e-01,9.99911e-01,5.06521e-05,9.99999e-01
5.615031420e-01,6.15743e-05,9.99999e-01,9.99999e-01,9.99901e-01,6.15803e-05,9.99999e-01
5.643106577e-01,7.45697e-05,9.99999e-01,9.99999e-01,9.99888e-01,7.45780e-05,9.99999e-01
5.671322110e-01,8.98563e-05,9.99999e-01,9.99999e-01,9.98645e-01,8.99782e-05,9.99999e-01
5.699678720e-01,1.08001e-04,9.99999e-01,9.99999e-01,9.98560e-01,1.08157e-04,9.99999e-01
5.728177114e-01,1.29342e-04,9.99999e-01,9.99999e-01,9.98500e-01,1.29536e-04,9.99999e-01
5.756818000e-01,1.54377e-04,9.99999e-01,9.99999e-01,9.98623e-01,1.54590e-04,9.99999e-01
5.785602090e-01,1.83625e-04,9.99999e-01,9.99999e-01,9.98800e-01,1.83846e-04,9.99999e-01
5.814530100e-01,2.17629e-04,9.99999e-01,9.99999e-01,9.98794e-01,2.17891e-04,9.99999e-01
5.843602750e-01,2.57007e-04,9.99999e-01,9.99999e-01,9.98563e-01,2.57376e-04,9.99999e-01
5.872820764e-01,2.99290e-04,9.99999e-01,9.99999e-01,9.87696e-01,3.03018e-04,9.99999e-01
5.902184868e-01,3.50304e-04,9.99999e-01,9.99999e-01,9.85092e-01,3.55605e-04,9.99999e-01
5.931695792e-01,4.11616e-04,9.99999e-01,9.99999e-01,9.89457e-01,4.16002e-04,9.99999e-01
5.961354271e-01,4.79543e-04,9.99999e-01,9.99999e-01,9.88441e-01,4.85150e-04,9.99999e-01
5.991161043e-01,5.59314e-04,9.99999e-01,9.99999e-01,9.91555e-01,5.64077e-04,9.99999e-01
6.021116848e-01,6.50756e-04,9.99999e-01,9.99999e-01,9.95200e-01,6.53894e-04,9.99999e-01
6.051222432e-01,7.53967e-04,9.99999e-01,9.99999e-01,9.97568e-01,7.55804e-04,9.99999e-01
6.081478544e-01,8.70187e-04,9.99999e-01,9.99999e-01,9.98950e-01,8.71101e-04,9.99999e-01
6.111885937e-01,1.00073e-03,9.99999e-01,9.99999e-01,9.99555e-01,1.00117e-03,9.99999e-01
6.142445367e-01,1.14728e-03,9.99999e-01,9.99999e-01,9.99801e-01,1.14751e-03,9.99999e-01
6.173157594e-01,1.31156e-03,9.99999e-01,9.99999e-01,9.99890e-01,1.31170e-03,9.99999e-01
6.204023382e-01,1.49528e-03,9.99999e-01,9.99999e-01,9.99907e-01,1.49542e-03,9.99999e-01
6.235043498e-01,1.69978e-03,9.99999e-01,9.99999e-01,9.99591e-01,1.70047e-03,9.99999e-01
6.266218716e-01,1.92458e-03,9.99999e-01,9.99999e-01,9.97842e-01,1.92873e-03,9.99999e-01
6.297549810e-01,2.18048e-03,9.99999e-01,9.99999e-01,9.99208e-01,2.18220e-03,9.99999e-01
6.329037559e-01,2.45912e-03,9.99999e-01,9.99999e-01,9.98436e-01,2.46297e-03,9.99999e-01
6.360682746e-01,2.76952e-03,9.99999e-01,9.99999e-01,9.98667e-01,2.77322e-03,9.99999e-01
6.392486160e-01,3.10986e-03,9.99999e-01,9.99999e-01,9.98273e-01,3.11524e-03,9.99999e-01
6.424448591e-01,3.48335e-03,9.99999e-01,9.99999e-01,9.97690e-01,3.49141e-03,9.99999e-01
6.456570834e-01,3.86252e-03,9.99999e-01,9.99999e-01,9.89322e-01,3.90420e-03,9.99999e-01
6.488853688e-01,4.32210e-03,9.99999e-01,9.99999e-01,9.92177e-01,4.35618e-03,9.99999e-01
6.521297956e-01,4.81131e-03,9.99999e-01,9.99999e-01,9.92028e-01,4.84997e-03,9.99999e-01
6.553904446e-01,5.34550e-03,9.99999e-01,9.99999e-01,9.92056e-01,5.38830e-03,9.99999e-01
6.586673968e-01,5.93330e-03,9.99999e-01,9.99999e-01,9.93196e-01,5.97394e-03,9.99999e-01
6.619607338e-01,6.58466e-03,9.99999e-01,9.99999e-01,9.96202e-01,6.60976e-03,9.99999e-01
6.652705375e-01,7.28200e-03,9.99999e-01,9.99999e-01,9.97718e-01,7.29864e-03,9.99999e-01
6.685968902e-01,8.03504e-03,9.99999e-01,9.99999e-01,9.98939e-01,8.04356e-03,9.99999e-01
6.719398746e-01,8.84317e-03,9.99999e-01,9.99999e-01,9.99508e-01,8.84751e-03,9.99999e-01
6.752995740e-01,9.71093e-03,9.99999e-01,9.99999e-01,9.99733e-01,9.71351e-03,9.99999e-01
6.786760719e-01,1.06405e-02,9.99999e-01,9.99999e-01,9.99615e-01,1.06446e-02,9.99999e-01
6.820694522e-01,1.16363e-02,9.99999e-01,9.99999e-01,9.99341e-01,1.16439e-02,9.99999e-01
6.854797995e-01,1.27037e-02,9.99999e-01,9.99999e-01,9.99150e-01,1.27145e-02,9.99999e-01
6.889071985e-01,1.38309e-02,9.99999e-01,9.99999e-01,9.97945e-01,1.38594e-02,9.99999e-01
6.923517345e-01,1.45839e-02,9.99999e-01,9.99999e-01,9.66998e-01,1.50817e-02,9.99999e-01
6.958134932e-01,1.61014e-02,9.99999e-01,9.99999e-01,9.82730e-01,1.63843e-02,9.99999e-01
6.992925606e-01,1.74780e-02,9.99999e-01,9.99999e-01,9.83545e-01,1.77705e-02,9.99999e-01
7.027890234e-01,1.88527e-02,9.99999e-01,9.99999e-01,9.79721e-01,1.92429e-02,9.99999e-01
7.063029686e-01,2.04492e-02,9.99999e-01,9.99999e-01,9.82914e-01,2.08047e-02,9.99999e-01
7.098344834e-01,2.20902e-02,9.99999e-01,9.99999e-01,9.83597e-01,2.24585e-02,9.99999e-01
7.133836558e-01,2.36803e-02,9.99999e-01,9.99999e-01,9.78230e-01,2.42073e-02,9.99998e-01
7.169505741e-01,2.18765e-02,9.99999e-01,9.99999e-01,8.39675e-01,2.60536e-02,9.99997e-01
7.205353270e-01,2.56966e-02,9.99999e-01,9.99999e-01,9.17738e-01,2.80000e-02,9.99997e-01
7.241380036e-01,2.69371e-02,9.99999e-01,9.99999e-01,8.96441e-01,3.00490e-02,9.99997e-01
7.277586936e-01,2.91789e-02,9.99999e-01,9.99999e-01,9.06093e-01,3.22030e-02,9.99997e-01
7.313974871e-01,3.10219e-02,9.99999e-01,9.99999e-01,9.00117e-01,3.44643e-02,9.99998e-01
7.350544745e-01,3.47735e-02,9.99999e-01,9.99999e-01,9.44034e-01,3.68349e-02,9.99998e-01
7.387297469e-01,3.76828e-02,9.99999e-01,9.99999e-01,9.58436e-01,3.93170e-02,9.99999e-01
7.424233956e-01,4.10501e-02,9.99999e-01,9.99999e-01,9.79431e-01,4.19122e-02,9.99999e-01
7.461355126e-01,4.40638e-02,9.99999e-01,9.99999e-01,9.87482e-01,4.46224e-02,9.99999e-01
7.498661902e-01,4.71716e-02,9.99999e-01,9.99999e-01,9.94153e-01,4.74490e-02,9.99999e-01
7.536155211e-01,5.02489e-02,9.99999e-01,9.99999e-01,9.97127e-01,5.03936e-02,9.99999e-01
7.573835987e-01,5.33782e-02,9.99999e-01,9.99999e-01,9.98520e-01,5.34572e-02,9.99999e-01
7.611705167e-01,5.65890e-02,9.99999e-01,9.99999e-01,9.99080e-01,5.66411e-02,9.99999e-01
7.649763693e-01,5.99115e-02,9.99999e-01,9.99999e-01,9.99423e-01,5.99460e-02,9.99999e-01
7.688012511e-01,6.33473e-02,9.99999e-01,9.99999e-01,9.99598e-01,6.33727e-02,9.99999e-01
7.726452574e-01,6.68997e-02,9.99999e-01,9.99999e-01,9.99669e-01,6.69218e-02,9.99999e-01
7.765084837e-01,7.05605e-02,9.99999e-01,9.99999e-01,9.99530e-01,7.05937e-02,9.99999e-01
7.803910261e-01,6.70485e-02,9.99999e-01,9.02997e-01,9.97972e-01,7.43884e-02,9.99999e-01
7.842929812e-01,4.65966e-02,9.99999e-01,5.98713e-01,9.92941e-01,7.83062e-02,9.99999e-01
7.882144461e-01,4.73714e-02,9.99999e-01,5.82770e-01,9.85510e-01,8.23467e-02,9.99999e-01
7.921555184e-01,6.13902e-02,9.99999e-01,7.14906e-01,9.92033e-01,8.65097e-02,9.99999e-01
7.961162960e-01,7.13168e-02,9.99999e-01,7.96306e-01,9.85959e-01,9.07947e-02,9.99999e-01
8.000968774e-01,8.27721e-02,9.99999e-01,8.83631e-01,9.83785e-01,9.52010e-02,9.99999e-01
8.040973618e-01,9.20180e-02,9.99999e-01,9.37794e-01,9.83784e-01,9.97277e-02,9.99999e-01
8.081178486e-01,9.76954e-02,9.99999e-01,9.70905e-01,9.63886e-01,1.04374e-01,9.99998e-01
8.121584379e-01,9.28994e-02,9.99999e-01,9.90928e-01,8.58730e-01,1.09138e-01,9.99997e-01
8.162192301e-01,9.50265e-02,9.99999e-01,9.97989e-01,8.34995e-01,1.14020e-01,9.99997e-01
8.203003262e-01,1.08968e-01,9.99999e-01,9.99969e-01,9.15591e-01,1.19016e-01,9.99996e-01
8.244018279e-01,1.09867e-01,9.99999e-01,9.99999e-01,8.85125e-01,1.24127e-01,9.99996e-01
8.285238370e-01,1.16086e-01,9.99999e-01,9.99999e-01,8.97466e-01,1.29349e-01,9.99997e-01
8.326664562e-01,1.20754e-01,9.99999e-01,9.99999e-01,8.96590e-01,1.34682e-01,9.99997e-01
8.368297885e-01,1.29559e-01,9.99999e-01,9.99999e-01,9.24615e-01,1.40122e-01,9.99998e-01
8.410139374e-01,1.39033e-01,9.99999e-01,9.99999e-01,9.54446e-01,1.45668e-01,9.99999e-01
8.452190071e-01,1.47895e-01,9.99999e-01,9.99999e-01,9.77379e-01,1.51318e-01,9.99999e-01
8.494451021e-01,1.54997e-01,9.99999e-01,9.99999e-01,9.86808e-01,1.57069e-01,9.99999e-01
8.536923276e-01,1.61644e-01,9.99999e-01,9.99999e-01,9.92180e-01,1.62918e-01,9.99999e-01
8.579607893e-01,1.68049e-01,9.99999e-01,9.99999e-01,9.95177e-01,1.68863e-01,9.99999e-01
8.622505932e-01,1.74365e-01,9.99999e-01,9.99999e-01,9.96933e-01,1.74901e-01,9.99999e-01
8.665618462e-01,1.55450e-01,9.99999e-01,8.60218e-01,9.98102e-01,1.81030e-01,9.99999e-01
8.708946554e-01,5.33426e-02,9.99999e-01,2.85442e-01,9.97827e-01,1.87245e-01,9.99999e-01
8.752491287e-01,6.73580e-02,9.99999e-01,3.48957e-01,9.97094e-01,1.93545e-01,9.99999e-01
8.796253743e-01,1.09911e-01,9.99999e-01,5.51776e-01,9.95978e-01,1.99927e-01,9.99999e-01
8.840235012e-01,1.49917e-01,9.99999e-01,7.29570e-01,9.95407e-01,2.06386e-01,9.99999e-01
8.884436187e-01,1.84831e-01,9.99999e-01,8.82228e-01,9.83405e-01,2.12920e-01,9.99998e-01
8.928858368e-01,1.75502e-01,9.99999e-01,9.50343e-01,8.39912e-01,2.19526e-01,9.99997e-01
8.973502660e-01,1.64501e-01,9.99999e-01,9.87706e-01,7.35661e-01,2.26200e-01,9.99995e-01
9.018370173e-01,1.98929e-01,9.99999e-01,9.98637e-01,8.55041e-01,2.32940e-01,9.99995e-01
9.063462024e-01,2.02449e-01,9.99999e-01,9.66320e-01,8.70688e-01,2.39741e-01,9.99994e-01
9.108779334e-01,1.84043e-01,9.99999e-01,9.22970e-01,8.05987e-01,2.46600e-01,9.99993e-01
9.154323231e-01,1.94802e-01,9.99999e-01,9.81353e-01,7.81953e-01,2.53515e-01,9.99993e-01
9.200094847e-01,1.75173e-01,9.99999e-01,7.92588e-01,8.25368e-01,2.60481e-01,9.99991e-01
9.246095321e-01,1.38148e-01,9.99999e-01,6.77462e-01,7.48754e-01,2.67495e-01,9.99985e-01
9.292325798e-01,3.61983e-02,9.99999e-01,7.41737e-01,1.65944e-01,2.74554e-01,9.99970e-01
9.338787427e-01,2.17411e-02,9.99999e-01,7.46140e-01,9.70785e-02,2.81654e-01,9.99961e-01
9.385481364e-01,9.26770e-02,9.99999e-01,8.04654e-01,3.86251e-01,2.88792e-01,9.99960e-01
9.432408771e-01,7.41799e-02,9.99999e-01,8.74628e-01,2.81334e-01,2.95965e-01,9.99956e-01
9.479570815e-01,4.90257e-02,9.99999e-01,9.33493e-01,1.71643e-01,3.03169e-01,9.99961e-01
9.526968669e-01,7.69290e-02,9.99999e-01,9.67402e-01,2.54489e-01,3.10401e-01,9.99971e-01
9.574603512e-01,8.49589e-02,9.99999e-01,9.85913e-01,2.70551e-01,3.17657e-01,9.99978e-01
9.622476530e-01,1.09455e-01,9.99999e-01,9.95584e-01,3.38078e-01,3.24935e-01,9.99985e-01
9.670588912e-01,1.76358e-01,9.99999e-01,9.98675e-01,5.31424e-01,3.32230e-01,9.99990e-01
9.718941857e-01,2.25954e-01,9.99999e-01,9.99906e-01,6.65522e-01,3.39541e-01,9.99994e-01
9.767536566e-01,2.47220e-01,9.99999e-01,9.99999e-01,7.12732e-01,3.46863e-01,9.99995e-01
9.816374249e-01,2.75185e-01,9.99999e-01,9.99999e-01,7.76934e-01,3.54194e-01,9.99996e-01
9.865456120e-01,3.08614e-01,9.99999e-01,9.99999e-01,8.53633e-01,3.61530e-01,9.99998e-01
9.914783401e-01,3.34411e-01,9.99999e-01,9.99999e-01,9.06583e-01,3.68869e-01,9.99999e-01
9.964357318e-01,3.56638e-01,9.99999e-01,9.99999e-01,9.47981e-01,3.76208e-01,9.99999e-01
1.001417910e+00,3.71451e-01,9.99999e-01,9.99999e-01,9.68473e-01,3.83543e-01,9.99999e-01
1.006425000e+00,3.83797e-01,9.99999e-01,9.99999e-01,9.81898e-01,3.90872e-01,9.99999e-01
1.011457125e+00,3.93705e-01,9.99999e-01,9.99999e-01,9.88729e-01,3.98192e-01,9.99999e-01
1.016514411e+00,4.02393e-01,9.99999e-01,9.99999e-01,9.92334e-01,4.05501e-01,9.99999e-01
1.021596983e+00,4.10197e-01,9.99999e-01,9.99814e-01,9.93887e-01,4.12796e-01,9.99999e-01
1.026704968e+00,4.12442e-01,9.99999e-01,9.86516e-01,9.95229e-01,4.20074e-01,9.99999e-01
1.031838492e+00,3.81404e-01,9.99999e-01,8.95445e-01,9.96531e-01,4.27332e-01,9.99999e-01
1.036997685e+00,1.86204e-02,9.99999e-01,4.29146e-02,9.97938e-01,4.34569e-01,9.99999e-01
1.042182673e+00,7.81464e-04,9.99999e-01,1.77215e-03,9.97541e-01,4.41782e-01,9.99999e-01
1.047393587e+00,2.19394e-03,9.99999e-01,4.89975e-03,9.96741e-01,4.48969e-01,9.99999e-01
1.052630555e+00,8.27521e-08,9.99999e-01,1.81930e-07,9.95530e-01,4.56127e-01,9.99999e-01
1.057893707e+00,3.11856e-07,9.99999e-01,6.75706e-07,9.92549e-01,4.63255e-01,9.99999e-01
1.063183176e+00,1.34860e-05,9.99999e-01,2.88703e-05,9.87771e-01,4.70349e-01,9.99999e-01
1.068499092e+00,1.67864e-04,9.99999e-01,3.56203e-04,9.79611e-01,4.77410e-01,9.99999e-01
1.073841587e+00,2.78236e-03,9.99999e-01,5.84071e-03,9.76206e-01,4.84433e-01,9.99999e-01
1.079210795e+00,1.92104e-02,9.99999e-01,4.00257e-02,9.69590e-01,4.91418e-01,9.99998e-01
1.084606849e+00,7.61200e-02,9.99999e-01,1.59030e-01,9.54368e-01,4.98363e-01,9.99998e-01
1.090029883e+00,1.81113e-01,9.99999e-01,3.80960e-01,9.35233e-01,5.05266e-01,9.99997e-01
1.095480033e+00,2.66441e-01,9.99999e-01,6.20065e-01,8.33401e-01,5.12125e-01,9.99995e-01
1.100957433e+00,2.62645e-01,9.99999e-01,7.93098e-01,6.32863e-01,5.18940e-01,9.99991e-01
1.106462220e+00,1.58190e-01,9.99999e-01,9.08407e-01,3.27872e-01,5.25707e-01,9.99982e-01
1.111994531e+00,5.28173e-02,9.99999e-01,9.64964e-01,1.02096e-01,5.32427e-01,9.99964e-01
1.117554504e+00,1.53011e-02,9.99999e-01,9.91334e-01,2.85234e-02,5.39097e-01,9.99950e-01
1.123142276e+00,4.81680e-02,9.99999e-01,9.99429e-01,8.82762e-02,5.45717e-01,9.99941e-01
1.128757988e+00,1.00744e-01,9.99999e-01,9.99999e-01,1.82425e-01,5.52284e-01,9.99936e-01
1.134401778e+00,4.52242e-02,9.99999e-01,9.99999e-01,8.09367e-02,5.58799e-01,9.99928e-01
1.140073787e+00,1.94808e-01,9.99999e-01,9.99999e-01,3.44653e-01,5.65260e-01,9.99942e-01
1.145774156e+00,7.24935e-02,9.99999e-01,9.99999e-01,1.26817e-01,5.71665e-01,9.99951e-01
1.151503026e+00,5.89169e-02,9.99999e-01,9.99999e-01,1.01934e-01,5.78014e-01,9.99957e-01
1.157260541e+00,7.48956e-02,9.99999e-01,9.99999e-01,1.28182e-01,5.84307e-01,9.99967e-01
1.163046844e+00,1.27360e-01,9.99999e-01,9.99999e-01,2.15670e-01,5.90541e-01,9.99979e-01
1.168862078e+00,1.98549e-01,9.99999e-01,9.99999e-01,3.32738e-01,5.96717e-01,9.99989e-01
1.174706389e+00,3.04892e-01,9.99999e-01,9.99999e-01,5.05766e-01,6.02834e-01,9.99994e-01
1.180579921e+00,4.00918e-01,9.99999e-01,9.99999e-01,6.58441e-01,6.08891e-01,9.99996e-01
1.186482820e+00,4.84612e-01,9.99999e-01,9.99974e-01,7.88148e-01,6.14887e-01,9.99996e-01
1.192415234e+00,5.16454e-01,9.99999e-01,9.54561e-01,8.69902e-01,6.20822e-01,9.99997e-01
1.198377311e+00,2.88577e-01,9.99999e-01,5.07687e-01,8.89226e-01,6.26695e-01,9.99997e-01
1.204369197e+00,6.48584e-35,9.99999e-01,1.09351e-34,8.95202e-01,6.32507e-01,9.99997e-01
1.210391043e+00,1.68457e-142,9.99999e-01,2.80003e-142,8.99336e-01,6.38256e-01,9.99998e-01
1.216442998e+00,2.92856e-123,9.99999e-01,4.80985e-123,9.13705e-01,6.43942e-01,9.99998e-01
1.222525213e+00,2.14153e-121,9.99999e-01,3.41869e-121,9.32026e-01,6.49564e-01,9.99999e-01
1.228637839e+00,1.43874e-93,9.99999e-01,2.26955e-93,9.52274e-01,6.55124e-01,9.99999e-01
