#,Wave/freq,Total,O2,CO2,H2O,Rayleigh,CIA
4.000000000e-01,2.27681e-14,9.99999e-01,9.99999e-01,9.99938e-01,2.27695e-14,9.99999e-01
4.020000000e-01,4.23724e-14,9.99999e-01,9.99999e-01,9.99961e-01,4.23740e-14,9.99999e-01
4.040100000e-01,7.78467e-14,9.99999e-01,9.99999e-01,9.99983e-01,7.78479e-14,9.99999e-01
4.060300500e-01,1.41311e-13,9.99999e-01,9.99999e-01,9.99995e-01,1.41311e-13,9.99999e-01
4.080602003e-01,2.53509e-13,9.99999e-01,9.99999e-01,9.99998e-01,2.53509e-13,9.99999e-01
4.101005013e-01,4.49568e-13,9.99999e-01,9.99999e-01,9.99999e-01,4.49568e-13,9.99999e-01
4.121510038e-01,7.88284e-13,9.99999e-01,9.99999e-01,9.99997e-01,7.88285e-13,9.99999e-01
4.142117588e-01,1.36693e-12,9.99999e-01,9.99999e-01,9.99982e-01,1.36695e-12,9.99999e-01
4.162828176e-01,2.34460e-12,9.99999e-01,9.99999e-01,9.99923e-01,2.34478e-12,9.99999e-01
4.183642317e-01,3.97926e-12,9.99999e-01,9.99999e-01,9.99954e-01,3.97944e-12,9.99999e-01
4.204560528e-01,6.68331e-12,9.99999e-01,9.99999e-01,9.99971e-01,6.68349e-12,9.99999e-01
4.225583331e-01,1.11105e-11,9.99999e-01,9.99999e-01,9.99989e-01,1.11106e-11,9.99999e-01
4.246711247e-01,1.82855e-11,9.99999e-01,9.99999e-01,9.99991e-01,1.82857e-11,9.99999e-01
4.267944804e-01,2.97993e-11,9.99999e-01,9.99999e-01,9.99987e-01,2.97996e-11,9.99999e-01
4.289284528e-01,4.80969e-11,9.99999e-01,9.99999e-01,9.99990e-01,4.80974e-11,9.99999e-01
4.310730950e-01,7.68995e-11,9.99999e-01,9.99999e-01,9.99995e-01,7.68998e-11,9.99999e-01
4.332284605e-01,1.21816e-10,9.99999e-01,9.99999e-01,9.99998e-01,1.21816e-10,9.99999e-01
4.353946028e-01,1.91221e-10,9.99999e-01,9.99999e-01,9.99999e-01,1.91221e-10,9.99999e-01
4.375715758e-01,2.97506e-10,9.99999e-01,9.99999e-01,9.99991e-01,2.97508e-10,9.99999e-01
4.397594337e-01,4.58819e-10,9.99999e-01,9.99999e-01,9.99931e-01,4.58850e-10,9.99999e-01
4.419582309e-01,7.01416e-10,9.99999e-01,9.99999e-01,9.99653e-01,7.01659e-10,9.99999e-01
4.441680220e-01,1.06371e-09,9.99999e-01,9.99999e-01,9.99737e-01,1.06399e-09,9.99999e-01
4.463888621e-01,1.59977e-09,9.99999e-01,9.99999e-01,9.99723e-01,1.60021e-09,9.99999e-01
4.486208064e-01,2.38695e-09,9.99999e-01,9.99999e-01,9.99829e-01,2.38736e-09,9.99999e-01
4.508639105e-01,3.53338e-09,9.99999e-01,9.99999e-01,9.99919e-01,3.53366e-09,9.99999e-01
4.531182300e-01,5.18985e-09,9.99999e-01,9.99999e-01,9.99968e-01,5.19001e-09,9.99999e-01
4.553838212e-01,7.56493e-09,9.99999e-01,9.99999e-01,9.99978e-01,7.56509e-09,9.99999e-01
4.576607403e-01,1.09452e-08,9.99999e-01,9.99999e-01,9.99989e-01,1.09453e-08,9.99999e-01
4.599490440e-01,1.57206e-08,9.99999e-01,9.99999e-01,9.99992e-01,1.57207e-08,9.99999e-01
4.622487892e-01,2.24187e-08,9.99999e-01,9.99999e-01,9.99998e-01,2.24188e-08,9.99999e-01
4.645600332e-01,3.17471e-08,9.99999e-01,9.99999e-01,9.99994e-01,3.17472e-08,9.99999e-01
4.668828333e-01,4.46458e-08,9.99999e-01,9.99999e-01,9.99917e-01,4.46494e-08,9.99999e-01
4.692172475e-01,6.23627e-08,9.99999e-01,9.99999e-01,9.99826e-01,6.23735e-08,9.99999e-01
4.715633337e-01,8.65501e-08,9.99999e-01,9.99999e-01,9.99886e-01,8.65599e-08,9.99999e-01
4.739211504e-01,1.19337e-07,9.99999e-01,9.99999e-01,9.99891e-01,1.19350e-07,9.99999e-01
4.762907561e-01,1.63511e-07,9.99999e-01,9.99999e-01,9.99943e-01,1.63520e-07,9.99999e-01
4.786722099e-01,2.22644e-07,9.99999e-01,9.99999e-01,9.99976e-01,2.22649e-07,9.99999e-01
4.810655710e-01,3.01314e-07,9.99999e-01,9.99999e-01,9.99992e-01,3.01316e-07,9.99999e-01
4.834708988e-01,4.05320e-07,9.99999e-01,9.99999e-01,9.99931e-01,4.05347e-07,9.99999e-01
4.858882533e-01,5.42045e-07,9.99999e-01,9.99999e-01,9.99877e-01,5.42111e-07,9.99999e-01
4.883176946e-01,7.20794e-07,9.99999e-01,9.99999e-01,9.99896e-01,7.20868e-07,9.99999e-01
4.907592831e-01,9.53100e-07,9.99999e-01,9.99999e-01,9.99907e-01,9.53188e-07,9.99999e-01
4.932130795e-01,1.25336e-06,9.99999e-01,9.99999e-01,9.99933e-01,1.25344e-06,9.99999e-01
4.956791449e-01,1.63933e-06,9.99999e-01,9.99999e-01,9.99964e-01,1.63939e-06,9.99999e-01
4.981575406e-01,2.13246e-06,9.99999e-01,9.99999e-01,9.99824e-01,2.13283e-06,9.99999e-01
5.006483283e-01,2.75915e-06,9.99999e-01,9.99999e-01,9.99542e-01,2.76041e-06,9.99999e-01
5.031515699e-01,3.54635e-06,9.99999e-01,9.99999e-01,9.97709e-01,3.55449e-06,9.99999e-01
5.056673278e-01,4.54873e-06,9.99999e-01,9.99999e-01,9.98795e-01,4.55421e-06,9.99999e-01
5.081956644e-01,5.79780e-06,9.99999e-01,9.99999e-01,9.98482e-01,5.80661e-06,9.99999e-01
5.107366428e-01,7.36044e-06,9.99999e-01,9.99999e-01,9.98975e-01,7.36798e-06,9.99999e-01
5.132903260e-01,9.29988e-06,9.99999e-01,9.99999e-01,9.99415e-01,9.30531e-06,9.99999e-01
5.158567776e-01,1.16951e-05,9.99999e-01,9.99999e-01,9.99753e-01,1.16980e-05,9.99999e-01
5.184360615e-01,1.46381e-05,9.99999e-01,9.99999e-01,9.99900e-01,1.46396e-05,9.99999e-01
5.210282418e-01,1.82392e-05,9.99999e-01,9.99999e-01,9.99962e-01,1.82398e-05,9.99999e-01
5.236333830e-01,2.26236e-05,9.99999e-01,9.99999e-01,9.99850e-01,2.26270e-05,9.99999e-01
5.262515499e-01,2.79476e-05,9.99999e-01,9.99999e-01,9.99906e-01,2.79502e-05,9.99999e-01
5.288828077e-01,3.43790e-05,9.99999e-01,9.99999e-01,9.99913e-01,3.43819e-05,9.99999e-01
5.315272217e-01,4.21179e-05,9.99999e-01,9.99999e-01,9.99924e-01,4.21210e-05,9.99999e-01
5.341848578e-01,5.13930e-05,9.99999e-01,9.99999e-01,9.99950e-01,5.13956e-05,9.99999e-01
5.368557821e-01,6.24553e-05,9.99999e-01,9.99999e-01,9.99824e-01,6.24663e-05,9.99999e-01
5.395400610e-01,7.55815e-05,9.99999e-01,9.99999e-01,9.99363e-01,7.56296e-05,9.99999e-01
5.422377613e-01,9.11482e-05,9.99999e-01,9.99999e-01,9.99193e-01,9.12217e-05,9.99999e-01
5.449489501e-01,1.09539e-04,9.99999e-01,9.99999e-01,9.99242e-01,1.09622e-04,9.99999e-01
5.476736949e-01,1.31169e-04,9.99999e-01,9.99999e-01,9.99336e-01,1.31256e-04,9.99999e-01
5.504120634e-01,1.56526e-04,9.99999e-01,9.99999e-01,9.99518e-01,1.56601e-04,9.99999e-01
5.531641237e-01,1.86145e-04,9.99999e-01,9.99999e-01,9.99757e-01,1.86190e-04,9.99999e-01
5.559299443e-01,2.20589e-04,9.99999e-01,9.99999e-01,9.99882e-01,2.20615e-04,9.99999e-01
5.587095940e-01,2.60510e-04,9.99999e-01,9.99999e-01,9.99925e-01,2.60529e-04,9.99999e-01
5.615031420e-01,3.06632e-04,9.99999e-01,9.99999e-01,9.99917e-01,3.06657e-04,9.99999e-01
5.643106577e-01,3.59757e-04,9.99999e-01,9.99999e-01,9.99904e-01,3.59791e-04,9.99999e-01
5.671322110e-01,4.20313e-04,9.99999e-01,9.99999e-01,9.98841e-01,4.20801e-04,9.99999e-01
5.699678720e-01,4.90053e-04,9.99999e-01,9.99999e-01,9.98812e-01,4.90636e-04,9.99999e-01
5.728177114e-01,5.69612e-04,9.99999e-01,9.99999e-01,9.98744e-01,5.70328e-04,9.99999e-01
5.756818000e-01,6.60238e-04,9.99999e-01,9.99999e-01,9.98851e-01,6.60997e-04,9.99999e-01
5.785602090e-01,7.63088e-04,9.99999e-01,9.99999e-01,9.99001e-01,7.63850e-04,9.99999e-01
5.814530100e-01,8.79305e-04,9.99999e-01,9.99999e-01,9.98993e-01,8.80190e-04,9.99999e-01
5.843602750e-01,1.01019e-03,9.99999e-01,9.99999e-01,9.98788e-01,1.01141e-03,9.99999e-01
5.872820764e-01,1.14699e-03,9.99999e-01,9.99999e-01,9.89623e-01,1.15901e-03,9.99999e-01
5.902184868e-01,1.30813e-03,9.99999e-01,9.99999e-01,9.87576e-01,1.32459e-03,9.99999e-01
5.931695792e-01,1.49651e-03,9.99999e-01,9.99999e-01,9.91180e-01,1.50982e-03,9.99999e-01
5.961354271e-01,1.69997e-03,9.99999e-01,9.99999e-01,9.90358e-01,1.71652e-03,9.99999e-01
5.991161043e-01,1.93289e-03,9.99999e-01,9.99999e-01,9.92968e-01,1.94658e-03,9.99999e-01
6.021116848e-01,2.19321e-03,9.99999e-01,9.99999e-01,9.96011e-01,2.20199e-03,9.99999e-01
6.051222432e-01,2.47984e-03,9.99999e-01,9.99999e-01,9.97981e-01,2.48486e-03,9.99999e-01
6.081478544e-01,2.79494e-03,9.99999e-01,9.99999e-01,9.99127e-01,2.79738e-03,9.99999e-01
6.111885937e-01,3.14068e-03,9.99999e-01,9.99999e-01,9.99632e-01,3.14184e-03,9.99999e-01
6.142445367e-01,3.52005e-03,9.99999e-01,9.99999e-01,9.99834e-01,3.52063e-03,9.99999e-01
6.173157594e-01,3.93588e-03,9.99999e-01,9.99999e-01,9.99908e-01,3.93624e-03,9.99999e-01
6.204023382e-01,4.39087e-03,9.99999e-01,9.99999e-01,9.99921e-01,4.39121e-03,9.99999e-01
6.235043498e-01,4.88650e-03,9.99999e-01,9.99999e-01,9.99651e-01,4.88820e-03,9.99999e-01
6.266218716e-01,5.42014e-03,9.99999e-01,9.99999e-01,9.98197e-01,5.42993e-03,9.99999e-01
6.297549810e-01,6.01520e-03,9.99999e-01,9.99999e-01,9.99338e-01,6.01918e-03,9.99999e-01
6.329037559e-01,6.65015e-03,9.99999e-01,9.99999e-01,9.98698e-01,6.65882e-03,9.99999e-01
6.360682746e-01,7.34355e-03,9.99999e-01,9.99999e-01,9.98884e-01,7.35174e-03,9.99999e-01
6.392486160e-01,8.08925e-03,9.99999e-01,9.99999e-01,9.98559e-01,8.10092e-03,9.99999e-01
6.424448591e-01,8.89199e-03,9.99999e-01,9.99999e-01,9.98051e-01,8.90935e-03,9.99999e-01
6.456570834e-01,9.69189e-03,9.99999e-01,9.99999e-01,9.90984e-01,9.78006e-03,9.99999e-01
6.488853688e-01,1.06464e-02,9.99999e-01,9.99999e-01,9.93490e-01,1.07161e-02,9.99999e-01
6.521297956e-01,1.16428e-02,9.99999e-01,9.99999e-01,9.93367e-01,1.17206e-02,9.99999e-01
6.553904446e-01,1.27114e-02,9.99999e-01,9.99999e-01,9.93351e-01,1.27965e-02,9.99999e-01
6.586673968e-01,1.38681e-02,9.99999e-01,9.99999e-01,9.94337e-01,1.39470e-02,9.99999e-01
6.619607338e-01,1.51272e-02,9.99999e-01,9.99999e-01,9.96841e-01,1.51751e-02,9.99999e-01
6.652705375e-01,1.64526e-02,9.99999e-01,9.99999e-01,9.98103e-01,1.64839e-02,9.99999e-01
6.685968902e-01,1.78619e-02,9.99999e-01,9.99999e-01,9.99194e-01,1.78763e-02,9.99999e-01
6.719398746e-01,1.93474e-02,9.99999e-01,9.99999e-01,9.99591e-01,1.93553e-02,9.99999e-01
6.752995740e-01,2.09192e-02,9.99999e-01,9.99999e-01,9.99783e-01,2.09237e-02,9.99999e-01
6.786760719e-01,2.25772e-02,9.99999e-01,9.99999e-01,9.99675e-01,2.25845e-02,9.99999e-01
6.820694522e-01,2.43268e-02,9.99999e-01,9.99999e-01,9.99443e-01,2.43404e-02,9.99999e-01
6.854797995e-01,2.61753e-02,9.99999e-01,9.99999e-01,9.99289e-01,2.61940e-02,9.99999e-01
6.889071985e-01,2.80831e-02,9.99999e-01,9.99999e-01,9.97698e-01,2.81479e-02,9.99999e-01
6.923517345e-01,2.93593e-02,9.99999e-01,9.99999e-01,9.72013e-01,3.02046e-02,9.99999e-01
6.958134932e-01,3.19073e-02,9.99999e-01,9.99999e-01,9.85813e-01,3.23664e-02,9.99999e-01
6.992925606e-01,3.41554e-02,9.99999e-01,9.99999e-01,9.86132e-01,3.46357e-02,9.99999e-01
7.027890234e-01,3.63883e-02,9.99999e-01,9.99999e-01,9.83080e-01,3.70145e-02,9.99999e-01
7.063029686e-01,3.89413e-02,9.99999e-01,9.99999e-01,9.85733e-01,3.95049e-02,9.99999e-01
7.098344834e-01,4.15319e-02,9.99999e-01,9.99999e-01,9.86305e-01,4.21085e-02,9.99999e-01
7.133836558e-01,4.39987e-02,9.99999e-01,9.99999e-01,9.81517e-01,4.48273e-02,9.99998e-01
7.169505741e-01,4.11276e-02,9.99999e-01,9.99999e-01,8.62892e-01,4.76626e-02,9.99997e-01
7.205353270e-01,4.71627e-02,9.99999e-01,9.99999e-01,9.31777e-01,5.06159e-02,9.99997e-01
7.241380036e-01,4.89795e-02,9.99999e-01,9.99999e-01,9.12293e-01,5.36884e-02,9.99997e-01
7.277586936e-01,5.23668e-02,9.99999e-01,9.99999e-01,9.20636e-01,5.68812e-02,9.99997e-01
7.313974871e-01,5.51558e-02,9.99999e-01,9.99999e-01,9.16285e-01,6.01951e-02,9.99998e-01
7.350544745e-01,6.06526e-02,9.99999e-01,9.99999e-01,9.53195e-01,6.36308e-02,9.99998e-01
7.387297469e-01,6.48597e-02,9.99999e-01,9.99999e-01,9.65331e-01,6.71890e-02,9.99999e-01
7.424233956e-01,6.96600e-02,9.99999e-01,9.99999e-01,9.82927e-01,7.08699e-02,9.99999e-01
7.461355126e-01,7.38970e-02,9.99999e-01,9.99999e-01,9.89597e-01,7.46738e-02,9.99999e-01
7.498661902e-01,7.82204e-02,9.99999e-01,9.99999e-01,9.95162e-01,7.86006e-02,9.99999e-01
7.536155211e-01,8.24531e-02,9.99999e-01,9.99999e-01,9.97614e-01,8.26502e-02,9.99999e-01
7.573835987e-01,8.67157e-02,9.99999e-01,9.99999e-01,9.98772e-01,8.68222e-02,9.99999e-01
7.611705167e-01,9.10467e-02,9.99999e-01,9.99999e-01,9.99236e-01,9.11162e-02,9.99999e-01
7.649763693e-01,9.54857e-02,9.99999e-01,9.99999e-01,9.99520e-01,9.55314e-02,9.99999e-01
7.688012511e-01,1.00034e-01,9.99999e-01,9.99999e-01,9.99665e-01,1.00067e-01,9.99999e-01
7.726452574e-01,1.04693e-01,9.99999e-01,9.99999e-01,9.99724e-01,1.04722e-01,9.99999e-01
7.765084837e-01,1.09452e-01,9.99999e-01,9.99999e-01,9.99604e-01,1.09495e-01,9.99999e-01
7.803910261e-01,1.04044e-01,9.99999e-01,9.11026e-01,9.98289e-01,1.14385e-01,9.99999e-01
7.842929812e-01,7.71715e-02,9.99999e-01,6.49800e-01,9.94040e-01,1.19390e-01,9.99999e-01
7.882144461e-01,7.78033e-02,9.99999e-01,6.31779e-01,9.87893e-01,1.24509e-01,9.99999e-01
7.921555184e-01,9.72561e-02,9.99999e-01,7.54291e-01,9.93390e-01,1.29740e-01,9.99999e-01
7.961162960e-01,1.10522e-01,9.99999e-01,8.27748e-01,9.88170e-01,1.35080e-01,9.99999e-01
8.000968774e-01,1.25086e-01,9.99999e-01,9.02241e-01,9.86443e-01,1.40528e-01,9.99999e-01
8.040973618e-01,1.36655e-01,9.99999e-01,9.48274e-01,9.86416e-01,1.46082e-01,9.99999e-01
8.081178486e-01,1.43557e-01,9.99999e-01,9.75771e-01,9.69443e-01,1.51740e-01,9.99998e-01
8.121584379e-01,1.37512e-01,9.99999e-01,9.92558e-01,8.79464e-01,1.57498e-01,9.99997e-01
8.162192301e-01,1.40358e-01,9.99999e-01,9.98349e-01,8.60567e-01,1.63354e-01,9.99997e-01
8.203003262e-01,1.57013e-01,9.99999e-01,9.99977e-01,9.27405e-01,1.69306e-01,9.99997e-01
8.244018279e-01,1.58458e-01,9.99999e-01,9.99999e-01,9.03663e-01,1.75351e-01,9.99997e-01
8.285238370e-01,1.65745e-01,9.99999e-01,9.99999e-01,9.13264e-01,1.81486e-01,9.99997e-01
8.326664562e-01,1.71364e-01,9.99999e-01,9.99999e-01,9.12927e-01,1.87708e-01,9.99998e-01
8.368297885e-01,1.81773e-01,9.99999e-01,9.99999e-01,9.36905e-01,1.94014e-01,9.99998e-01
8.410139374e-01,1.92788e-01,9.99999e-01,9.99999e-01,9.62007e-01,2.00401e-01,9.99999e-01
8.452190071e-01,2.02979e-01,9.99999e-01,9.99999e-01,9.81207e-01,2.06866e-01,9.99999e-01
8.494451021e-01,2.11058e-01,9.99999e-01,9.99999e-01,9.88998e-01,2.13406e-01,9.99999e-01
8.536923276e-01,2.18589e-01,9.99999e-01,9.99999e-01,9.93508e-01,2.20017e-01,9.99999e-01
8.579607893e-01,2.25786e-01,9.99999e-01,9.99999e-01,9.95982e-01,2.26696e-01,9.99999e-01
8.622505932e-01,2.32846e-01,9.99999e-01,9.99999e-01,9.97453e-01,2.33440e-01,9.99999e-01
8.665618462e-01,2.07387e-01,9.99999e-01,8.64504e-01,9.98416e-01,2.40246e-01,9.99999e-01
8.708946554e-01,8.47339e-02,9.99999e-01,3.43472e-01,9.98182e-01,2.47110e-01,9.99999e-01
8.752491287e-01,1.04598e-01,9.99999e-01,4.12693e-01,9.97571e-01,2.54028e-01,9.99999e-01
8.796253743e-01,1.58302e-01,9.99999e-01,6.08422e-01,9.96624e-01,2.60998e-01,9.99999e-01
8.840235012e-01,2.05437e-01,9.99999e-01,7.69347e-01,9.96150e-01,2.68015e-01,9.99999e-01
8.884436187e-01,2.44583e-01,9.99999e-01,9.01647e-01,9.85725e-01,2.75077e-01,9.99998e-01
8.928858368e-01,2.33644e-01,9.99999e-01,9.58757e-01,8.62659e-01,2.82180e-01,9.99997e-01
8.973502660e-01,2.21601e-01,9.99999e-01,9.89889e-01,7.73298e-01,2.89321e-01,9.99996e-01
9.018370173e-01,2.60140e-01,9.99999e-01,9.98886e-01,8.78274e-01,2.96496e-01,9.99995e-01
9.063462024e-01,2.62990e-01,9.99999e-01,9.70967e-01,8.89487e-01,3.03702e-01,9.99995e-01
9.108779334e-01,2.43239e-01,9.99999e-01,9.35606e-01,8.34210e-01,3.10936e-01,9.99994e-01
9.154323231e-01,2.55235e-01,9.99999e-01,9.84714e-01,8.13832e-01,3.18194e-01,9.99994e-01
9.200094847e-01,2.30595e-01,9.99999e-01,8.14822e-01,8.51829e-01,3.25473e-01,9.99992e-01
9.246095321e-01,1.90092e-01,9.99999e-01,7.22938e-01,7.79359e-01,3.32770e-01,9.99988e-01
9.292325798e-01,5.88628e-02,9.99999e-01,7.76360e-01,2.11106e-01,3.40082e-01,9.99974e-01
9.338787427e-01,3.93553e-02,9.99999e-01,7.83069e-01,1.37762e-01,3.47405e-01,9.99967e-01
9.385481364e-01,1.35259e-01,9.99999e-01,8.34291e-01,4.46327e-01,3.54736e-01,9.99967e-01
9.432408771e-01,1.09748e-01,9.99999e-01,8.94811e-01,3.34100e-01,3.62073e-01,9.99963e-01
9.479570815e-01,7.76916e-02,9.99999e-01,9.44385e-01,2.21152e-01,3.69412e-01,9.99968e-01
9.526968669e-01,1.15226e-01,9.99999e-01,9.72886e-01,3.12810e-01,3.76750e-01,9.99975e-01
9.574603512e-01,1.25774e-01,9.99999e-01,9.88319e-01,3.30688e-01,3.84085e-01,9.99981e-01
9.622476530e-01,1.56824e-01,9.99999e-01,9.96348e-01,4.01903e-01,3.91414e-01,9.99987e-01
9.670588912e-01,2.34144e-01,9.99999e-01,9.98907e-01,5.87777e-01,3.98733e-01,9.99992e-01
9.718941857e-01,2.88768e-01,9.99999e-01,9.99924e-01,7.11226e-01,4.06041e-01,9.99995e-01
9.767536566e-01,3.11329e-01,9.99999e-01,9.99999e-01,7.53215e-01,4.13334e-01,9.99996e-01
9.816374249e-01,3.40854e-01,9.99999e-01,9.99999e-01,8.10380e-01,4.20611e-01,9.99997e-01
9.865456120e-01,3.75080e-01,9.99999e-01,9.99999e-01,8.76627e-01,4.27868e-01,9.99998e-01
9.914783401e-01,4.01007e-01,9.99999e-01,9.99999e-01,9.21637e-01,4.35103e-01,9.99999e-01
9.964357318e-01,4.23089e-01,9.99999e-01,9.99999e-01,9.56535e-01,4.42314e-01,9.99999e-01
1.001417910e+00,4.37690e-01,9.99999e-01,9.99999e-01,9.73728e-01,4.49499e-01,9.99999e-01
1.006425000e+00,4.49756e-01,9.99999e-01,9.99999e-01,9.84891e-01,4.56655e-01,9.99999e-01
1.011457125e+00,4.59434e-01,9.99999e-01,9.99999e-01,9.90628e-01,4.63780e-01,9.99999e-01
1.016514411e+00,4.67867e-01,9.99999e-01,9.99999e-01,9.93616e-01,4.70872e-01,9.99999e-01
1.021596983e+00,4.75408e-01,9.99999e-01,9.99815e-01,9.94906e-01,4.77930e-01,9.99999e-01
1.026704968e+00,4.77413e-01,9.99999e-01,9.88373e-01,9.96022e-01,4.84951e-01,9.99999e-01
1.031838492e+00,4.42207e-01,9.99999e-01,9.01367e-01,9.97115e-01,4.91933e-01,9.99999e-01
1.036997685e+00,2.55584e-02,9.99999e-01,5.12988e-02,9.98281e-01,4.98875e-01,9.99999e-01
1.042182673e+00,2.04398e-03,9.99999e-01,4.04769e-03,9.97940e-01,5.05774e-01,9.99999e-01
1.047393587e+00,5.03029e-03,9.99999e-01,9.83499e-03,9.97276e-01,5.12630e-01,9.99999e-01
1.052630555e+00,7.58634e-07,9.99999e-01,1.46394e-06,9.96258e-01,5.19441e-01,9.99999e-01
1.057893707e+00,2.93613e-06,9.99999e-01,5.59819e-06,9.93748e-01,5.26205e-01,9.99999e-01
1.063183176e+00,6.78763e-05,9.99999e-01,1.28130e-04,9.89747e-01,5.32921e-01,9.99999e-01
1.068499092e+00,6.37052e-04,9.99999e-01,1.19431e-03,9.82926e-01,5.39588e-01,9.99999e-01
1.073841587e+00,7.12917e-03,9.99999e-01,1.32447e-02,9.80014e-01,5.46204e-01,9.99999e-01
1.079210795e+00,3.58540e-02,9.99999e-01,6.61992e-02,9.74556e-01,5.52768e-01,9.99998e-01
1.084606849e+00,1.16212e-01,9.99999e-01,2.15092e-01,9.61674e-01,5.59278e-01,9.99998e-01
1.090029883e+00,2.39903e-01,9.99999e-01,4.46754e-01,9.45040e-01,5.65735e-01,9.99997e-01
1.095480033e+00,3.31255e-01,9.99999e-01,6.71767e-01,8.57770e-01,5.72136e-01,9.99995e-01
1.100957433e+00,3.26187e-01,9.99999e-01,8.24662e-01,6.79738e-01,5.78481e-01,9.99992e-01
1.106462220e+00,2.10410e-01,9.99999e-01,9.23408e-01,3.86771e-01,5.84770e-01,9.99985e-01
1.111994531e+00,8.28990e-02,9.99999e-01,9.70857e-01,1.43745e-01,5.91000e-01,9.99970e-01
1.117554504e+00,2.84099e-02,9.99999e-01,9.92855e-01,4.77830e-02,5.97172e-01,9.99958e-01
1.123142276e+00,7.51170e-02,9.99999e-01,9.99533e-01,1.24528e-01,6.03284e-01,9.99951e-01
1.128757988e+00,1.43471e-01,9.99999e-01,9.99999e-01,2.35466e-01,6.09336e-01,9.99946e-01
1.134401778e+00,6.64008e-02,9.99999e-01,9.99999e-01,1.07918e-01,6.15328e-01,9.99940e-01
1.140073787e+00,2.52344e-01,9.99999e-01,9.99999e-01,4.06202e-01,6.21258e-01,9.99951e-01
1.145774156e+00,1.07415e-01,9.99999e-01,9.99999e-01,1.71287e-01,6.27127e-01,9.99959e-01
1.151503026e+00,8.99289e-02,9.99999e-01,9.99999e-01,1.42087e-01,6.32934e-01,9.99964e-01
1.157260541e+00,1.12691e-01,9.99999e-01,9.99999e-01,1.76448e-01,6.38678e-01,9.99973e-01
1.163046844e+00,1.77279e-01,9.99999e-01,9.99999e-01,2.75129e-01,6.44359e-01,9.99982e-01
1.168862078e+00,2.59014e-01,9.99999e-01,9.99999e-01,3.98500e-01,6.49977e-01,9.99991e-01
1.174706389e+00,3.70813e-01,9.99999e-01,9.99999e-01,5.65669e-01,6.55532e-01,9.99995e-01
1.180579921e+00,4.66493e-01,9.99999e-01,9.99999e-01,7.05715e-01,6.61023e-01,9.99996e-01
1.186482820e+00,5.46492e-01,9.99999e-01,9.99970e-01,8.20024e-01,6.66450e-01,9.99997e-01
1.192415234e+00,5.75025e-01,9.99999e-01,9.60142e-01,8.90275e-01,6.71814e-01,9.99997e-01
1.198377311e+00,3.22112e-01,9.99999e-01,5.16137e-01,9.06532e-01,6.77113e-01,9.99997e-01
1.204369197e+00,1.61537e-29,9.99999e-01,2.49790e-29,9.11645e-01,6.82348e-01,9.99998e-01
1.210391043e+00,2.53514e-119,9.99999e-01,3.87386e-119,9.15230e-01,6.87519e-01,9.99998e-01
1.216442998e+00,2.90620e-103,9.99999e-01,4.39674e-103,9.27611e-01,6.92626e-01,9.99998e-01
1.222525213e+00,1.04741e-101,9.99999e-01,1.54747e-101,9.43036e-01,6.97669e-01,9.99999e-01
1.228637839e+00,1.81915e-78,9.99999e-01,2.66113e-78,9.60045e-01,7.02648e-01,9.99999e-01
