#,Wave/freq,Total,O2,CO2,H2O,Rayleigh,CIA
4.000000000e-01,7.04817e-03,9.99999e-01,9.99999e-01,9.99989e-01,7.04824e-03,9.99999e-01
4.020000000e-01,7.77370e-03,9.99999e-01,9.99999e-01,9.99993e-01,7.77374e-03,9.99999e-01
4.040100000e-01,8.55646e-03,9.99999e-01,9.99999e-01,9.99996e-01,8.55649e-03,9.99999e-01
4.060300500e-01,9.40021e-03,9.99999e-01,9.99999e-01,9.99998e-01,9.40021e-03,9.99999e-01
4.080602003e-01,1.03080e-02,9.99999e-01,9.99999e-01,9.99999e-01,1.03080e-02,9.99999e-01
4.101005013e-01,1.12828e-02,9.99999e-01,9.99999e-01,9.99999e-01,1.12828e-02,9.99999e-01
4.121510038e-01,1.23279e-02,9.99999e-01,9.99999e-01,9.99999e-01,1.23279e-02,9.99999e-01
4.142117588e-01,1.34461e-02,9.99999e-01,9.99999e-01,9.99996e-01,1.34461e-02,9.99999e-01
4.162828176e-01,1.46405e-02,9.99999e-01,9.99999e-01,9.99987e-01,1.46407e-02,9.99999e-01
4.183642317e-01,1.59145e-02,9.99999e-01,9.99999e-01,9.99992e-01,1.59146e-02,9.99999e-01
4.204560528e-01,1.72709e-02,9.99999e-01,9.99999e-01,9.99995e-01,1.72709e-02,9.99999e-01
4.225583331e-01,1.87125e-02,9.99999e-01,9.99999e-01,9.99997e-01,1.87126e-02,9.99999e-01
4.246711247e-01,2.02424e-02,9.99999e-01,9.99999e-01,9.99998e-01,2.02424e-02,9.99999e-01
4.267944804e-01,2.18634e-02,9.99999e-01,9.99999e-01,9.99997e-01,2.18634e-02,9.99999e-01
4.289284528e-01,2.35783e-02,9.99999e-01,9.99999e-01,9.99998e-01,2.35783e-02,9.99999e-01
4.310730950e-01,2.53898e-02,9.99999e-01,9.99999e-01,9.99998e-01,2.53898e-02,9.99999e-01
4.332284605e-01,2.73006e-02,9.99999e-01,9.99999e-01,9.99999e-01,2.73006e-02,9.99999e-01
4.353946028e-01,2.93131e-02,9.99999e-01,9.99999e-01,9.99999e-01,2.93131e-02,9.99999e-01
4.375715758e-01,3.14297e-02,9.99999e-01,9.99999e-01,9.99998e-01,3.14297e-02,9.99999e-01
4.397594337e-01,3.36525e-02,9.99999e-01,9.99999e-01,9.99988e-01,3.36528e-02,9.99999e-01
4.419582309e-01,3.59827e-02,9.99999e-01,9.99999e-01,9.99945e-01,3.59846e-02,9.99999e-01
4.441680220e-01,3.84254e-02,9.99999e-01,9.99999e-01,9.99957e-01,3.84270e-02,9.99999e-01
4.463888621e-01,4.09803e-02,9.99999e-01,9.99999e-01,9.99955e-01,4.09821e-02,9.99999e-01
4.486208064e-01,4.36503e-02,9.99999e-01,9.99999e-01,9.99972e-01,4.36514e-02,9.99999e-01
4.508639105e-01,4.64362e-02,9.99999e-01,9.99999e-01,9.99986e-01,4.64368e-02,9.99999e-01
4.531182300e-01,4.93393e-02,9.99999e-01,9.99999e-01,9.99994e-01,4.93395e-02,9.99999e-01
4.553838212e-01,5.23608e-02,9.99999e-01,9.99999e-01,9.99996e-01,5.23609e-02,9.99999e-01
4.576607403e-01,5.55021e-02,9.99999e-01,9.99999e-01,9.99997e-01,5.55022e-02,9.99999e-01
4.599490440e-01,5.87642e-02,9.99999e-01,9.99999e-01,9.99998e-01,5.87642e-02,9.99999e-01
4.622487892e-01,6.21479e-02,9.99999e-01,9.99999e-01,9.99999e-01,6.21479e-02,9.99999e-01
4.645600332e-01,6.56536e-02,9.99999e-01,9.99999e-01,9.99998e-01,6.56537e-02,9.99999e-01
4.668828333e-01,6.92812e-02,9.99999e-01,9.99999e-01,9.99986e-01,6.92821e-02,9.99999e-01
4.692172475e-01,7.30314e-02,9.99999e-01,9.99999e-01,9.99972e-01,7.30334e-02,9.99999e-01
4.715633337e-01,7.69064e-02,9.99999e-01,9.99999e-01,9.99981e-01,7.69077e-02,9.99999e-01
4.739211504e-01,8.09035e-02,9.99999e-01,9.99999e-01,9.99982e-01,8.09049e-02,9.99999e-01
4.762907561e-01,8.50239e-02,9.99999e-01,9.99999e-01,9.99990e-01,8.50247e-02,9.99999e-01
4.786722099e-01,8.92663e-02,9.99999e-01,9.99999e-01,9.99995e-01,8.92666e-02,9.99999e-01
4.810655710e-01,9.36300e-02,9.99999e-01,9.99999e-01,9.99998e-01,9.36301e-02,9.99999e-01
4.834708988e-01,9.81134e-02,9.99999e-01,9.99999e-01,9.99989e-01,9.81144e-02,9.99999e-01
4.858882533e-01,1.02716e-01,9.99999e-01,9.99999e-01,9.99980e-01,1.02718e-01,9.99999e-01
4.883176946e-01,1.07439e-01,9.99999e-01,9.99999e-01,9.99983e-01,1.07441e-01,9.99999e-01
4.907592831e-01,1.12280e-01,9.99999e-01,9.99999e-01,9.99984e-01,1.12281e-01,9.99999e-01
4.932130795e-01,1.17236e-01,9.99999e-01,9.99999e-01,9.99989e-01,1.17237e-01,9.99999e-01
4.956791449e-01,1.22307e-01,9.99999e-01,9.99999e-01,9.99994e-01,1.22308e-01,9.99999e-01
4.981575406e-01,1.27488e-01,9.99999e-01,9.99999e-01,9.99972e-01,1.27491e-01,9.99999e-01
5.006483283e-01,1.32775e-01,9.99999e-01,9.99999e-01,9.99928e-01,1.32785e-01,9.99999e-01
5.031515699e-01,1.38138e-01,9.99999e-01,9.99999e-01,9.99638e-01,1.38187e-01,9.99999e-01
5.056673278e-01,1.43669e-01,9.99999e-01,9.99999e-01,9.99809e-01,1.43697e-01,9.99999e-01
5.081956644e-01,1.49274e-01,9.99999e-01,9.99999e-01,9.99759e-01,1.49310e-01,9.99999e-01
5.107366428e-01,1.55000e-01,9.99999e-01,9.99999e-01,9.99837e-01,1.55025e-01,9.99999e-01
5.132903260e-01,1.60825e-01,9.99999e-01,9.99999e-01,9.99906e-01,1.60840e-01,9.99999e-01
5.158567776e-01,1.66745e-01,9.99999e-01,9.99999e-01,9.99960e-01,1.66752e-01,9.99999e-01
5.184360615e-01,1.72754e-01,9.99999e-01,9.99999e-01,9.99983e-01,1.72757e-01,9.99999e-01
5.210282418e-01,1.78853e-01,9.99999e-01,9.99999e-01,9.99993e-01,1.78854e-01,9.99999e-01
5.236333830e-01,1.85035e-01,9.99999e-01,9.99999e-01,9.99976e-01,1.85039e-01,9.99999e-01
5.262515499e-01,1.91307e-01,9.99999e-01,9.99999e-01,9.99984e-01,1.91310e-01,9.99999e-01
5.288828077e-01,1.97660e-01,9.99999e-01,9.99999e-01,9.99986e-01,1.97663e-01,9.99999e-01
5.315272217e-01,2.04092e-01,9.99999e-01,9.99999e-01,9.99987e-01,2.04095e-01,9.99999e-01
5.341848578e-01,2.10601e-01,9.99999e-01,9.99999e-01,9.99991e-01,2.10603e-01,9.99999e-01
5.368557821e-01,2.17178e-01,9.99999e-01,9.99999e-01,9.99972e-01,2.17184e-01,9.99999e-01
5.395400610e-01,2.23812e-01,9.99999e-01,9.99999e-01,9.99900e-01,2.23834e-01,9.99999e-01
5.422377613e-01,2.30522e-01,9.99999e-01,9.99999e-01,9.99871e-01,2.30551e-01,9.99999e-01
5.449489501e-01,2.37303e-01,9.99999e-01,9.99999e-01,9.99880e-01,2.37331e-01,9.99999e-01
5.476736949e-01,2.44144e-01,9.99999e-01,9.99999e-01,9.99894e-01,2.44170e-01,9.99999e-01
5.504120634e-01,2.51046e-01,9.99999e-01,9.99999e-01,9.99923e-01,2.51065e-01,9.99999e-01
5.531641237e-01,2.58004e-01,9.99999e-01,9.99999e-01,9.99961e-01,2.58014e-01,9.99999e-01
5.559299443e-01,2.65006e-01,9.99999e-01,9.99999e-01,9.99980e-01,2.65011e-01,9.99999e-01
5.587095940e-01,2.72051e-01,9.99999e-01,9.99999e-01,9.99987e-01,2.72055e-01,9.99999e-01
5.615031420e-01,2.79137e-01,9.99999e-01,9.99999e-01,9.99986e-01,2.79141e-01,9.99999e-01
5.643106577e-01,2.86262e-01,9.99999e-01,9.99999e-01,9.99984e-01,2.86266e-01,9.99999e-01
5.671322110e-01,2.93374e-01,9.99999e-01,9.99999e-01,9.99820e-01,2.93427e-01,9.99999e-01
5.699678720e-01,3.00563e-01,9.99999e-01,9.99999e-01,9.99809e-01,3.00620e-01,9.99999e-01
5.728177114e-01,3.07781e-01,9.99999e-01,9.99999e-01,9.99801e-01,3.07842e-01,9.99999e-01
5.756818000e-01,3.15033e-01,9.99999e-01,9.99999e-01,9.99818e-01,3.15090e-01,9.99999e-01
5.785602090e-01,3.22310e-01,9.99999e-01,9.99999e-01,9.99841e-01,3.22361e-01,9.99999e-01
5.814530100e-01,3.29598e-01,9.99999e-01,9.99999e-01,9.99840e-01,3.29650e-01,9.99999e-01
5.843602750e-01,3.36892e-01,9.99999e-01,9.99999e-01,9.99810e-01,3.36956e-01,9.99999e-01
5.872820764e-01,3.43712e-01,9.99999e-01,9.99999e-01,9.98366e-01,3.44274e-01,9.99999e-01
5.902184868e-01,3.50908e-01,9.99999e-01,9.99999e-01,9.98023e-01,3.51603e-01,9.99999e-01
5.931695792e-01,3.58436e-01,9.99999e-01,9.99999e-01,9.98602e-01,3.58937e-01,9.99999e-01
5.961354271e-01,3.65715e-01,9.99999e-01,9.99999e-01,9.98469e-01,3.66276e-01,9.99999e-01
5.991161043e-01,3.73198e-01,9.99999e-01,9.99999e-01,9.98883e-01,3.73615e-01,9.99999e-01
6.021116848e-01,3.80710e-01,9.99999e-01,9.99999e-01,9.99366e-01,3.80951e-01,9.99999e-01
6.051222432e-01,3.88159e-01,9.99999e-01,9.99999e-01,9.99679e-01,3.88283e-01,9.99999e-01
6.081478544e-01,3.95552e-01,9.99999e-01,9.99999e-01,9.99861e-01,3.95607e-01,9.99999e-01
6.111885937e-01,4.02897e-01,9.99999e-01,9.99999e-01,9.99941e-01,4.02920e-01,9.99999e-01
6.142445367e-01,4.10209e-01,9.99999e-01,9.99999e-01,9.99973e-01,4.10220e-01,9.99999e-01
6.173157594e-01,4.17498e-01,9.99999e-01,9.99999e-01,9.99985e-01,4.17504e-01,9.99999e-01
6.204023382e-01,4.24765e-01,9.99999e-01,9.99999e-01,9.99987e-01,4.24770e-01,9.99999e-01
6.235043498e-01,4.31991e-01,9.99999e-01,9.99999e-01,9.99945e-01,4.32015e-01,9.99999e-01
6.266218716e-01,4.39111e-01,9.99999e-01,9.99999e-01,9.99715e-01,4.39236e-01,9.99999e-01
6.297549810e-01,4.46386e-01,9.99999e-01,9.99999e-01,9.99895e-01,4.46433e-01,9.99999e-01
6.329037559e-01,4.53508e-01,9.99999e-01,9.99999e-01,9.99793e-01,4.53601e-01,9.99999e-01
6.360682746e-01,4.60659e-01,9.99999e-01,9.99999e-01,9.99824e-01,4.60740e-01,9.99999e-01
6.392486160e-01,4.67740e-01,9.99999e-01,9.99999e-01,9.99772e-01,4.67846e-01,9.99999e-01
6.424448591e-01,4.74774e-01,9.99999e-01,9.99999e-01,9.99695e-01,4.74919e-01,9.99999e-01
6.456570834e-01,4.81274e-01,9.99999e-01,9.99999e-01,9.98585e-01,4.81955e-01,9.99999e-01
6.488853688e-01,4.88449e-01,9.99999e-01,9.99999e-01,9.98965e-01,4.88954e-01,9.99999e-01
6.521297956e-01,4.95391e-01,9.99999e-01,9.99999e-01,9.98944e-01,4.95914e-01,9.99999e-01
6.553904446e-01,5.02304e-01,9.99999e-01,9.99999e-01,9.98949e-01,5.02832e-01,9.99999e-01
6.586673968e-01,5.09248e-01,9.99999e-01,9.99999e-01,9.99100e-01,5.09706e-01,9.99999e-01
6.619607338e-01,5.16278e-01,9.99999e-01,9.99999e-01,9.99498e-01,5.16537e-01,9.99999e-01
6.652705375e-01,5.23164e-01,9.99999e-01,9.99999e-01,9.99699e-01,5.23321e-01,9.99999e-01
6.685968902e-01,5.29984e-01,9.99999e-01,9.99999e-01,9.99859e-01,5.30058e-01,9.99999e-01
6.719398746e-01,5.36711e-01,9.99999e-01,9.99999e-01,9.99934e-01,5.36746e-01,9.99999e-01
6.752995740e-01,5.43364e-01,9.99999e-01,9.99999e-01,9.99964e-01,5.43383e-01,9.99999e-01
6.786760719e-01,5.49942e-01,9.99999e-01,9.99999e-01,9.99948e-01,5.49969e-01,9.99999e-01
6.820694522e-01,5.56455e-01,9.99999e-01,9.99999e-01,9.99912e-01,5.56503e-01,9.99999e-01
6.854797995e-01,5.62920e-01,9.99999e-01,9.99999e-01,9.99887e-01,5.62983e-01,9.99999e-01
6.889071985e-01,5.69254e-01,9.99999e-01,9.99999e-01,9.99728e-01,5.69408e-01,9.99999e-01
6.923517345e-01,5.73229e-01,9.99999e-01,9.99999e-01,9.95574e-01,5.75777e-01,9.99999e-01
6.958134932e-01,5.80752e-01,9.99999e-01,9.99999e-01,9.97701e-01,5.82090e-01,9.99999e-01
6.992925606e-01,5.87059e-01,9.99999e-01,9.99999e-01,9.97813e-01,5.88345e-01,9.99999e-01
7.027890234e-01,5.92938e-01,9.99999e-01,9.99999e-01,9.97302e-01,5.94542e-01,9.99999e-01
7.063029686e-01,5.99317e-01,9.99999e-01,9.99999e-01,9.97732e-01,6.00680e-01,9.99999e-01
7.098344834e-01,6.05438e-01,9.99999e-01,9.99999e-01,9.97824e-01,6.06758e-01,9.99999e-01
7.133836558e-01,6.10995e-01,9.99999e-01,9.99999e-01,9.97094e-01,6.12775e-01,9.99999e-01
7.169505741e-01,6.04356e-01,9.99999e-01,9.99999e-01,9.76765e-01,6.18732e-01,9.99999e-01
7.205353270e-01,6.17507e-01,9.99999e-01,9.99999e-01,9.88601e-01,6.24627e-01,9.99999e-01
7.241380036e-01,6.21337e-01,9.99999e-01,9.99999e-01,9.85529e-01,6.30460e-01,9.99999e-01
7.277586936e-01,6.27918e-01,9.99999e-01,9.99999e-01,9.86933e-01,6.36231e-01,9.99999e-01
7.313974871e-01,6.33039e-01,9.99999e-01,9.99999e-01,9.86134e-01,6.41940e-01,9.99999e-01
7.350544745e-01,6.42669e-01,9.99999e-01,9.99999e-01,9.92409e-01,6.47585e-01,9.99999e-01
7.387297469e-01,6.49518e-01,9.99999e-01,9.99999e-01,9.94413e-01,6.53167e-01,9.99999e-01
7.424233956e-01,6.56884e-01,9.99999e-01,9.99999e-01,9.97265e-01,6.58685e-01,9.99999e-01
7.461355126e-01,6.63039e-01,9.99999e-01,9.99999e-01,9.98342e-01,6.64139e-01,9.99999e-01
7.498661902e-01,6.69013e-01,9.99999e-01,9.99999e-01,9.99228e-01,6.69530e-01,9.99999e-01
7.536155211e-01,6.74601e-01,9.99999e-01,9.99999e-01,9.99621e-01,6.74857e-01,9.99999e-01
7.573835987e-01,6.79987e-01,9.99999e-01,9.99999e-01,9.99804e-01,6.80119e-01,9.99999e-01
7.611705167e-01,6.85235e-01,9.99999e-01,9.99999e-01,9.99878e-01,6.85318e-01,9.99999e-01
7.649763693e-01,6.90399e-01,9.99999e-01,9.99999e-01,9.99923e-01,6.90452e-01,9.99999e-01
7.688012511e-01,6.95485e-01,9.99999e-01,9.99999e-01,9.99946e-01,6.95522e-01,9.99999e-01
7.726452574e-01,7.00498e-01,9.99999e-01,9.99999e-01,9.99956e-01,7.00528e-01,9.99999e-01
7.765084837e-01,7.05427e-01,9.99999e-01,9.99999e-01,9.99937e-01,7.05470e-01,9.99999e-01
7.803910261e-01,6.97980e-01,9.99999e-01,9.82845e-01,9.99732e-01,7.10349e-01,9.99999e-01
7.842929812e-01,6.63908e-01,9.99999e-01,9.29175e-01,9.99066e-01,7.15164e-01,9.99999e-01
7.882144461e-01,6.63968e-01,9.99999e-01,9.24025e-01,9.98078e-01,7.19915e-01,9.99999e-01
7.921555184e-01,6.91753e-01,9.99999e-01,9.55658e-01,9.98946e-01,7.24603e-01,9.99999e-01
7.961162960e-01,7.06195e-01,9.99999e-01,9.70212e-01,9.98136e-01,7.29229e-01,9.99999e-01
8.000968774e-01,7.20316e-01,9.99999e-01,9.83748e-01,9.97849e-01,7.33791e-01,9.99999e-01
8.040973618e-01,7.30486e-01,9.99999e-01,9.91558e-01,9.97848e-01,7.38291e-01,9.99999e-01
8.081178486e-01,7.36257e-01,9.99999e-01,9.96115e-01,9.95146e-01,7.42729e-01,9.99999e-01
8.121584379e-01,7.31194e-01,9.99999e-01,9.98800e-01,9.79871e-01,7.47106e-01,9.99999e-01
8.162192301e-01,7.33306e-01,9.99999e-01,9.99734e-01,9.76149e-01,7.51421e-01,9.99999e-01
8.203003262e-01,7.46575e-01,9.99999e-01,9.99995e-01,9.87961e-01,7.55674e-01,9.99999e-01
8.244018279e-01,7.47108e-01,9.99999e-01,9.99999e-01,9.83208e-01,7.59867e-01,9.99999e-01
8.285238370e-01,7.53089e-01,9.99999e-01,9.99999e-01,9.85717e-01,7.64000e-01,9.99999e-01
8.326664562e-01,7.56983e-01,9.99999e-01,9.99999e-01,9.85560e-01,7.68073e-01,9.99999e-01
8.368297885e-01,7.64125e-01,9.99999e-01,9.99999e-01,9.89686e-01,7.72087e-01,9.99999e-01
8.410139374e-01,7.71281e-01,9.99999e-01,9.99999e-01,9.93864e-01,7.76042e-01,9.99999e-01
8.452190071e-01,7.77591e-01,9.99999e-01,9.99999e-01,9.96989e-01,7.79938e-01,9.99999e-01
8.494451021e-01,7.82407e-01,9.99999e-01,9.99999e-01,9.98252e-01,7.83777e-01,9.99999e-01
8.536923276e-01,7.86744e-01,9.99999e-01,9.99999e-01,9.98966e-01,7.87557e-01,9.99999e-01
8.579607893e-01,7.90778e-01,9.99999e-01,9.99999e-01,9.99363e-01,7.91281e-01,9.99999e-01
8.622505932e-01,7.94628e-01,9.99999e-01,9.99999e-01,9.99595e-01,7.94949e-01,9.99999e-01
8.665618462e-01,7.62032e-01,9.99999e-01,9.54489e-01,9.99749e-01,7.98560e-01,9.99999e-01
8.708946554e-01,6.63377e-01,9.99999e-01,8.27264e-01,9.99713e-01,8.02116e-01,9.99999e-01
8.752491287e-01,6.92657e-01,9.99999e-01,8.60107e-01,9.99616e-01,8.05617e-01,9.99999e-01
8.796253743e-01,7.45075e-01,9.99999e-01,9.21391e-01,9.99468e-01,8.09064e-01,9.99999e-01
8.840235012e-01,7.78392e-01,9.99999e-01,9.58647e-01,9.99393e-01,8.12457e-01,9.99999e-01
8.884436187e-01,8.00594e-01,9.99999e-01,9.83534e-01,9.97782e-01,8.15797e-01,9.99999e-01
8.928858368e-01,7.94749e-01,9.99999e-01,9.93301e-01,9.76805e-01,8.19084e-01,9.99999e-01
8.973502660e-01,7.87577e-01,9.99999e-01,9.98371e-01,9.59297e-01,8.22320e-01,9.99998e-01
9.018370173e-01,8.08045e-01,9.99999e-01,9.99820e-01,9.79024e-01,8.25503e-01,9.99998e-01
9.063462024e-01,8.09599e-01,9.99999e-01,9.95357e-01,9.81514e-01,8.28636e-01,9.99998e-01
9.108779334e-01,7.99391e-01,9.99999e-01,9.89444e-01,9.71323e-01,8.31718e-01,9.99998e-01
9.154323231e-01,8.05657e-01,9.99999e-01,9.97516e-01,9.67524e-01,8.34751e-01,9.99998e-01
9.200094847e-01,7.86759e-01,9.99999e-01,9.63107e-01,9.74458e-01,8.37735e-01,9.99998e-01
9.246095321e-01,7.66352e-01,9.99999e-01,9.49292e-01,9.59825e-01,8.40669e-01,9.99997e-01
9.292325798e-01,6.15326e-01,9.99999e-01,9.59788e-01,7.58202e-01,8.43556e-01,9.99995e-01
9.338787427e-01,5.69995e-01,9.99999e-01,9.61277e-01,6.98938e-01,8.46396e-01,9.99994e-01
9.385481364e-01,7.15006e-01,9.99999e-01,9.71463e-01,8.65968e-01,8.49188e-01,9.99994e-01
9.432408771e-01,6.83544e-01,9.99999e-01,9.82465e-01,8.16242e-01,8.51935e-01,9.99993e-01
9.479570815e-01,6.37894e-01,9.99999e-01,9.90966e-01,7.52992e-01,8.54636e-01,9.99994e-01
9.526968669e-01,6.92426e-01,9.99999e-01,9.95635e-01,8.11059e-01,8.57292e-01,9.99995e-01
9.574603512e-01,7.10630e-01,9.99999e-01,9.98132e-01,8.27904e-01,8.59903e-01,9.99996e-01
9.622476530e-01,7.39748e-01,9.99999e-01,9.99417e-01,8.58194e-01,8.62470e-01,9.99997e-01
9.670588912e-01,7.92038e-01,9.99999e-01,9.99825e-01,9.15813e-01,8.64995e-01,9.99998e-01
9.718941857e-01,8.21312e-01,9.99999e-01,9.99987e-01,9.46795e-01,8.67476e-01,9.99998e-01
9.767536566e-01,8.31336e-01,9.99999e-01,9.99999e-01,9.55651e-01,8.69916e-01,9.99999e-01
9.816374249e-01,8.43520e-01,9.99999e-01,9.99999e-01,9.66991e-01,8.72313e-01,9.99999e-01
9.865456120e-01,8.56536e-01,9.99999e-01,9.99999e-01,9.79266e-01,8.74670e-01,9.99999e-01
9.914783401e-01,8.65711e-01,9.99999e-01,9.99999e-01,9.87142e-01,8.76987e-01,9.99999e-01
9.964357318e-01,8.73091e-01,9.99999e-01,9.99999e-01,9.92979e-01,8.79264e-01,9.99999e-01
1.001417910e+00,8.77789e-01,9.99999e-01,9.99999e-01,9.95788e-01,8.81501e-01,9.99999e-01
1.006425000e+00,8.81577e-01,9.99999e-01,9.99999e-01,9.97597e-01,8.83700e-01,9.99999e-01
1.011457125e+00,8.84540e-01,9.99999e-01,9.99999e-01,9.98508e-01,8.85861e-01,9.99999e-01
1.016514411e+00,8.87085e-01,9.99999e-01,9.99999e-01,9.98987e-01,8.87984e-01,9.99999e-01
1.021596983e+00,8.89330e-01,9.99999e-01,9.99974e-01,9.99192e-01,8.90070e-01,9.99999e-01
1.026704968e+00,8.89949e-01,9.99999e-01,9.98193e-01,9.99370e-01,8.92120e-01,9.99999e-01
1.031838492e+00,8.69735e-01,9.99999e-01,9.73147e-01,9.99542e-01,8.94134e-01,9.99999e-01
1.036997685e+00,2.59415e-01,9.99999e-01,2.89555e-01,9.99727e-01,8.96112e-01,9.99999e-01
1.042182673e+00,3.10074e-01,9.99999e-01,3.45377e-01,9.99675e-01,8.98056e-01,9.99999e-01
1.047393587e+00,2.87420e-01,9.99999e-01,3.19493e-01,9.99569e-01,8.99965e-01,9.99999e-01
1.052630555e+00,4.40191e-02,9.99999e-01,4.88331e-02,9.99409e-01,9.01841e-01,9.99999e-01
1.057893707e+00,8.26996e-02,9.99999e-01,9.15850e-02,9.99014e-01,9.03683e-01,9.99999e-01
1.063183176e+00,1.60049e-01,9.99999e-01,1.76987e-01,9.98379e-01,9.05493e-01,9.99999e-01
1.068499092e+00,2.84903e-01,9.99999e-01,3.14799e-01,9.97287e-01,9.07270e-01,9.99999e-01
1.073841587e+00,4.37499e-01,9.99999e-01,4.82687e-01,9.96824e-01,9.09016e-01,9.99999e-01
1.079210795e+00,5.73065e-01,9.99999e-01,6.31689e-01,9.95933e-01,9.10730e-01,9.99999e-01
1.084606849e+00,7.05892e-01,9.99999e-01,7.78331e-01,9.93846e-01,9.12414e-01,9.99999e-01
1.090029883e+00,7.95849e-01,9.99999e-01,8.78328e-01,9.91160e-01,9.14067e-01,9.99999e-01
1.095480033e+00,8.38626e-01,9.99999e-01,9.38150e-01,9.76094e-01,9.15691e-01,9.99998e-01
1.100957433e+00,8.36493e-01,9.99999e-01,9.69752e-01,9.40221e-01,9.17285e-01,9.99998e-01
1.106462220e+00,7.74956e-01,9.99999e-01,9.87387e-01,8.53976e-01,9.18851e-01,9.99997e-01
1.111994531e+00,6.56243e-01,9.99999e-01,9.95308e-01,7.16246e-01,9.20388e-01,9.99994e-01
1.117554504e+00,5.35078e-01,9.99999e-01,9.98853e-01,5.81012e-01,9.21898e-01,9.99993e-01
1.123142276e+00,6.15031e-01,9.99999e-01,9.99924e-01,6.66105e-01,9.23380e-01,9.99991e-01
1.128757988e+00,7.15464e-01,9.99999e-01,9.99999e-01,7.73618e-01,9.24835e-01,9.99991e-01
1.134401778e+00,5.01384e-01,9.99999e-01,9.99999e-01,5.41302e-01,9.26263e-01,9.99990e-01
1.140073787e+00,7.97510e-01,9.99999e-01,9.99999e-01,8.59701e-01,9.27666e-01,9.99991e-01
1.145774156e+00,6.75490e-01,9.99999e-01,9.99999e-01,7.27086e-01,9.29043e-01,9.99993e-01
1.151503026e+00,6.50802e-01,9.99999e-01,9.99999e-01,6.99493e-01,9.30394e-01,9.99994e-01
1.157260541e+00,6.95194e-01,9.99999e-01,9.99999e-01,7.46142e-01,9.31721e-01,9.99995e-01
1.163046844e+00,7.51948e-01,9.99999e-01,9.99999e-01,8.05928e-01,9.33023e-01,9.99996e-01
1.168862078e+00,8.04985e-01,9.99999e-01,9.99999e-01,8.61590e-01,9.34302e-01,9.99998e-01
1.174706389e+00,8.53409e-01,9.99999e-01,9.99999e-01,9.12194e-01,9.35557e-01,9.99998e-01
1.180579921e+00,8.85861e-01,9.99999e-01,9.99999e-01,9.45636e-01,9.36789e-01,9.99999e-01
1.186482820e+00,9.08873e-01,9.99999e-01,9.99996e-01,9.68952e-01,9.37998e-01,9.99999e-01
1.192415234e+00,9.16115e-01,9.99999e-01,9.93507e-01,9.81776e-01,9.39184e-01,9.99999e-01
1.198377311e+00,5.43894e-01,9.99999e-01,5.85988e-01,9.84615e-01,9.40349e-01,9.99999e-01
1.204369197e+00,1.50742e-06,9.99999e-01,1.61470e-06,9.85427e-01,9.41492e-01,9.99999e-01
1.210391043e+00,1.03191e-20,9.99999e-01,1.10328e-20,9.86066e-01,9.42614e-01,9.99999e-01
1.216442998e+00,3.56074e-18,9.99999e-01,3.80106e-18,9.88137e-01,9.43715e-01,9.99999e-01
1.222525213e+00,6.54555e-18,9.99999e-01,6.96178e-18,9.90757e-01,9.44795e-01,9.99999e-01
1.228637839e+00,8.93787e-14,9.99999e-01,9.49306e-14,9.93574e-01,9.45856e-01,9.99999e-01
