#,Wave/freq,Total,O2,CO2,H2O,Rayleigh,CIA
4.000000000e-01,1.04344e-08,9.99999e-01,9.99999e-01,9.99963e-01,1.04347e-08,9.99999e-01
4.020000000e-01,1.50069e-08,9.99999e-01,9.99999e-01,9.99977e-01,1.50073e-08,9.99999e-01
4.040100000e-01,2.14208e-08,9.99999e-01,9.99999e-01,9.99990e-01,2.14210e-08,9.99999e-01
4.060300500e-01,3.03615e-08,9.99999e-01,9.99999e-01,9.99997e-01,3.03616e-08,9.99999e-01
4.080602003e-01,4.27382e-08,9.99999e-01,9.99999e-01,9.99998e-01,4.27383e-08,9.99999e-01
4.101005013e-01,5.97553e-08,9.99999e-01,9.99999e-01,9.99999e-01,5.97553e-08,9.99999e-01
4.121510038e-01,8.29966e-08,9.99999e-01,9.99999e-01,9.99998e-01,8.29967e-08,9.99999e-01
4.142117588e-01,1.14531e-07,9.99999e-01,9.99999e-01,9.99989e-01,1.14532e-07,9.99999e-01
4.162828176e-01,1.57040e-07,9.99999e-01,9.99999e-01,9.99954e-01,1.57047e-07,9.99999e-01
4.183642317e-01,2.14000e-07,9.99999e-01,9.99999e-01,9.99973e-01,2.14006e-07,9.99999e-01
4.204560528e-01,2.89841e-07,9.99999e-01,9.99999e-01,9.99983e-01,2.89845e-07,9.99999e-01
4.225583331e-01,3.90213e-07,9.99999e-01,9.99999e-01,9.99993e-01,3.90216e-07,9.99999e-01
4.246711247e-01,5.22264e-07,9.99999e-01,9.99999e-01,9.99994e-01,5.22267e-07,9.99999e-01
4.267944804e-01,6.94986e-07,9.99999e-01,9.99999e-01,9.99992e-01,6.94991e-07,9.99999e-01
4.289284528e-01,9.19630e-07,9.99999e-01,9.99999e-01,9.99994e-01,9.19635e-07,9.99999e-01
4.310730950e-01,1.21017e-06,9.99999e-01,9.99999e-01,9.99997e-01,1.21018e-06,9.99999e-01
4.332284605e-01,1.58390e-06,9.99999e-01,9.99999e-01,9.99998e-01,1.58390e-06,9.99999e-01
4.353946028e-01,2.06204e-06,9.99999e-01,9.99999e-01,9.99999e-01,2.06204e-06,9.99999e-01
4.375715758e-01,2.67056e-06,9.99999e-01,9.99999e-01,9.99995e-01,2.67057e-06,9.99999e-01
4.397594337e-01,3.44093e-06,9.99999e-01,9.99999e-01,9.99960e-01,3.44106e-06,9.99999e-01
4.419582309e-01,4.41084e-06,9.99999e-01,9.99999e-01,9.99803e-01,4.41170e-06,9.99999e-01
4.441680220e-01,5.62757e-06,9.99999e-01,9.99999e-01,9.99843e-01,5.62845e-06,9.99999e-01
4.463888621e-01,7.14515e-06,9.99999e-01,9.99999e-01,9.99838e-01,7.14630e-06,9.99999e-01
4.486208064e-01,9.02988e-06,9.99999e-01,9.99999e-01,9.99898e-01,9.03079e-06,9.99999e-01
4.508639105e-01,1.13591e-05,9.99999e-01,9.99999e-01,9.99952e-01,1.13596e-05,9.99999e-01
4.531182300e-01,1.42241e-05,9.99999e-01,9.99999e-01,9.99980e-01,1.42243e-05,9.99999e-01
4.553838212e-01,1.77323e-05,9.99999e-01,9.99999e-01,9.99986e-01,1.77326e-05,9.99999e-01
4.576607403e-01,2.20099e-05,9.99999e-01,9.99999e-01,9.99993e-01,2.20100e-05,9.99999e-01
4.599490440e-01,2.72028e-05,9.99999e-01,9.99999e-01,9.99995e-01,2.72029e-05,9.99999e-01
4.622487892e-01,3.34805e-05,9.99999e-01,9.99999e-01,9.99998e-01,3.34805e-05,9.99999e-01
4.645600332e-01,4.10381e-05,9.99999e-01,9.99999e-01,9.99996e-01,4.10382e-05,9.99999e-01
4.668828333e-01,5.00978e-05,9.99999e-01,9.99999e-01,9.99952e-01,5.01002e-05,9.99999e-01
4.692172475e-01,6.09164e-05,9.99999e-01,9.99999e-01,9.99898e-01,6.09225e-05,9.99999e-01
4.715633337e-01,7.37922e-05,9.99999e-01,9.99999e-01,9.99933e-01,7.37971e-05,9.99999e-01
4.739211504e-01,8.90488e-05,9.99999e-01,9.99999e-01,9.99936e-01,8.90544e-05,9.99999e-01
4.762907561e-01,1.07064e-04,9.99999e-01,9.99999e-01,9.99966e-01,1.07068e-04,9.99999e-01
4.786722099e-01,1.28256e-04,9.99999e-01,9.99999e-01,9.99986e-01,1.28258e-04,9.99999e-01
4.810655710e-01,1.53094e-04,9.99999e-01,9.99999e-01,9.99995e-01,1.53094e-04,9.99999e-01
4.834708988e-01,1.82095e-04,9.99999e-01,9.99999e-01,9.99961e-01,1.82102e-04,9.99999e-01
4.858882533e-01,2.15850e-04,9.99999e-01,9.99999e-01,9.99927e-01,2.15866e-04,9.99999e-01
4.883176946e-01,2.55015e-04,9.99999e-01,9.99999e-01,9.99939e-01,2.55031e-04,9.99999e-01
4.907592831e-01,3.00295e-04,9.99999e-01,9.99999e-01,9.99945e-01,3.00311e-04,9.99999e-01
4.932130795e-01,3.52477e-04,9.99999e-01,9.99999e-01,9.99960e-01,3.52491e-04,9.99999e-01
4.956791449e-01,4.12421e-04,9.99999e-01,9.99999e-01,9.99979e-01,4.12430e-04,9.99999e-01
4.981575406e-01,4.81018e-04,9.99999e-01,9.99999e-01,9.99898e-01,4.81067e-04,9.99999e-01
5.006483283e-01,5.59276e-04,9.99999e-01,9.99999e-01,9.99738e-01,5.59423e-04,9.99999e-01
5.031515699e-01,6.47739e-04,9.99999e-01,9.99999e-01,9.98665e-01,6.48605e-04,9.99999e-01
5.056673278e-01,7.49281e-04,9.99999e-01,9.99999e-01,9.99293e-01,7.49810e-04,9.99999e-01
5.081956644e-01,8.63558e-04,9.99999e-01,9.99999e-01,9.99108e-01,8.64329e-04,9.99999e-01
5.107366428e-01,9.92945e-04,9.99999e-01,9.99999e-01,9.99397e-01,9.93544e-04,9.99999e-01
5.132903260e-01,1.13855e-03,9.99999e-01,9.99999e-01,9.99654e-01,1.13894e-03,9.99999e-01
5.158567776e-01,1.30190e-03,9.99999e-01,9.99999e-01,9.99853e-01,1.30209e-03,9.99999e-01
5.184360615e-01,1.48460e-03,9.99999e-01,9.99999e-01,9.99941e-01,1.48469e-03,9.99999e-01
5.210282418e-01,1.68847e-03,9.99999e-01,9.99999e-01,9.99977e-01,1.68850e-03,9.99999e-01
5.236333830e-01,1.91526e-03,9.99999e-01,9.99999e-01,9.99912e-01,1.91543e-03,9.99999e-01
5.262515499e-01,2.16732e-03,9.99999e-01,9.99999e-01,9.99944e-01,2.16744e-03,9.99999e-01
5.288828077e-01,2.44651e-03,9.99999e-01,9.99999e-01,9.99949e-01,2.44663e-03,9.99999e-01
5.315272217e-01,2.75507e-03,9.99999e-01,9.99999e-01,9.99955e-01,2.75519e-03,9.99999e-01
5.341848578e-01,3.09530e-03,9.99999e-01,9.99999e-01,9.99970e-01,3.09538e-03,9.99999e-01
5.368557821e-01,3.46925e-03,9.99999e-01,9.99999e-01,9.99898e-01,3.46960e-03,9.99999e-01
5.395400610e-01,3.87889e-03,9.99999e-01,9.99999e-01,9.99636e-01,3.88029e-03,9.99999e-01
5.422377613e-01,4.32797e-03,9.99999e-01,9.99999e-01,9.99525e-01,4.33003e-03,9.99999e-01
5.449489501e-01,4.81932e-03,9.99999e-01,9.99999e-01,9.99561e-01,4.82143e-03,9.99999e-01
5.476736949e-01,5.35512e-03,9.99999e-01,9.99999e-01,9.99608e-01,5.35721e-03,9.99999e-01
5.504120634e-01,5.93847e-03,9.99999e-01,9.99999e-01,9.99715e-01,5.94016e-03,9.99999e-01
5.531641237e-01,6.57217e-03,9.99999e-01,9.99999e-01,9.99856e-01,6.57311e-03,9.99999e-01
5.559299443e-01,7.25847e-03,9.99999e-01,9.99999e-01,9.99930e-01,7.25897e-03,9.99999e-01
5.587095940e-01,8.00036e-03,9.99999e-01,9.99999e-01,9.99956e-01,8.00071e-03,9.99999e-01
5.615031420e-01,8.80088e-03,9.99999e-01,9.99999e-01,9.99951e-01,8.80130e-03,9.99999e-01
5.643106577e-01,9.66326e-03,9.99999e-01,9.99999e-01,9.99945e-01,9.66378e-03,9.99999e-01
5.671322110e-01,1.05843e-02,9.99999e-01,9.99999e-01,9.99349e-01,1.05912e-02,9.99999e-01
5.699678720e-01,1.15784e-02,9.99999e-01,9.99999e-01,9.99291e-01,1.15866e-02,9.99999e-01
5.728177114e-01,1.26439e-02,9.99999e-01,9.99999e-01,9.99268e-01,1.26532e-02,9.99999e-01
5.756818000e-01,1.37846e-02,9.99999e-01,9.99999e-01,9.99327e-01,1.37938e-02,9.99999e-01
5.785602090e-01,1.50029e-02,9.99999e-01,9.99999e-01,9.99412e-01,1.50117e-02,9.99999e-01
5.814530100e-01,1.63003e-02,9.99999e-01,9.99999e-01,9.99411e-01,1.63099e-02,9.99999e-01
5.843602750e-01,1.76790e-02,9.99999e-01,9.99999e-01,9.99303e-01,1.76913e-02,9.99999e-01
5.872820764e-01,1.90440e-02,9.99999e-01,9.99999e-01,9.94004e-01,1.91589e-02,9.99999e-01
5.902184868e-01,2.05640e-02,9.99999e-01,9.99999e-01,9.92678e-01,2.07156e-02,9.99999e-01
5.931695792e-01,2.22489e-02,9.99999e-01,9.99999e-01,9.94838e-01,2.23643e-02,9.99999e-01
5.961354271e-01,2.39711e-02,9.99999e-01,9.99999e-01,9.94331e-01,2.41077e-02,9.99999e-01
5.991161043e-01,2.58411e-02,9.99999e-01,9.99999e-01,9.95858e-01,2.59485e-02,9.99999e-01
6.021116848e-01,2.78236e-02,9.99999e-01,9.99999e-01,9.97645e-01,2.78893e-02,9.99999e-01
6.051222432e-01,2.98969e-02,9.99999e-01,9.99999e-01,9.98807e-01,2.99326e-02,9.99999e-01
6.081478544e-01,3.20642e-02,9.99999e-01,9.99999e-01,9.99485e-01,3.20807e-02,9.99999e-01
6.111885937e-01,3.43285e-02,9.99999e-01,9.99999e-01,9.99781e-01,3.43360e-02,9.99999e-01
6.142445367e-01,3.66969e-02,9.99999e-01,9.99999e-01,9.99902e-01,3.67005e-02,9.99999e-01
6.173157594e-01,3.91742e-02,9.99999e-01,9.99999e-01,9.99946e-01,3.91763e-02,9.99999e-01
6.204023382e-01,4.17633e-02,9.99999e-01,9.99999e-01,9.99954e-01,4.17652e-02,9.99999e-01
6.235043498e-01,4.44602e-02,9.99999e-01,9.99999e-01,9.99803e-01,4.44689e-02,9.99999e-01
6.266218716e-01,4.72393e-02,9.99999e-01,9.99999e-01,9.98946e-01,4.72891e-02,9.99999e-01
6.297549810e-01,5.02077e-02,9.99999e-01,9.99999e-01,9.99613e-01,5.02271e-02,9.99999e-01
6.329037559e-01,5.32433e-02,9.99999e-01,9.99999e-01,9.99234e-01,5.32841e-02,9.99999e-01
6.360682746e-01,5.64246e-02,9.99999e-01,9.99999e-01,9.99350e-01,5.64612e-02,9.99999e-01
6.392486160e-01,5.97090e-02,9.99999e-01,9.99999e-01,9.99156e-01,5.97594e-02,9.99999e-01
6.424448591e-01,6.31086e-02,9.99999e-01,9.99999e-01,9.98879e-01,6.31794e-02,9.99999e-01
6.456570834e-01,6.63752e-02,9.99999e-01,9.99999e-01,9.94806e-01,6.67217e-02,9.99999e-01
6.488853688e-01,7.00699e-02,9.99999e-01,9.99999e-01,9.95499e-01,7.03867e-02,9.99999e-01
6.521297956e-01,7.38844e-02,9.99999e-01,9.99999e-01,9.96087e-01,7.41746e-02,9.99999e-01
6.553904446e-01,7.77838e-02,9.99999e-01,9.99999e-01,9.96135e-01,7.80855e-02,9.99999e-01
6.586673968e-01,8.18451e-02,9.99999e-01,9.99999e-01,9.96660e-01,8.21193e-02,9.99999e-01
6.619607338e-01,8.61089e-02,9.99999e-01,9.99999e-01,9.98069e-01,8.62755e-02,9.99999e-01
6.652705375e-01,9.04523e-02,9.99999e-01,9.99999e-01,9.98878e-01,9.05537e-02,9.99999e-01
6.685968902e-01,9.49039e-02,9.99999e-01,9.99999e-01,9.99479e-01,9.49533e-02,9.99999e-01
6.719398746e-01,9.94493e-02,9.99999e-01,9.99999e-01,9.99758e-01,9.94733e-02,9.99999e-01
6.752995740e-01,1.04099e-01,9.99999e-01,9.99999e-01,9.99869e-01,1.04113e-01,9.99999e-01
6.786760719e-01,1.08850e-01,9.99999e-01,9.99999e-01,9.99812e-01,1.08871e-01,9.99999e-01
6.820694522e-01,1.13709e-01,9.99999e-01,9.99999e-01,9.99678e-01,1.13746e-01,9.99999e-01
6.854797995e-01,1.18687e-01,9.99999e-01,9.99999e-01,9.99586e-01,1.18736e-01,9.99999e-01
6.889071985e-01,1.23718e-01,9.99999e-01,9.99999e-01,9.99011e-01,1.23840e-01,9.99999e-01
6.923517345e-01,1.26967e-01,9.99999e-01,9.99999e-01,9.83811e-01,1.29056e-01,9.99999e-01
6.958134932e-01,1.33228e-01,9.99999e-01,9.99999e-01,9.91405e-01,1.34383e-01,9.99999e-01
6.992925606e-01,1.38695e-01,9.99999e-01,9.99999e-01,9.91969e-01,1.39817e-01,9.99999e-01
7.027890234e-01,1.43908e-01,9.99999e-01,9.99999e-01,9.90024e-01,1.45358e-01,9.99999e-01
7.063029686e-01,1.49736e-01,9.99999e-01,9.99999e-01,9.91612e-01,1.51002e-01,9.99999e-01
7.098344834e-01,1.55485e-01,9.99999e-01,9.99999e-01,9.91950e-01,1.56747e-01,9.99999e-01
7.133836558e-01,1.60869e-01,9.99999e-01,9.99999e-01,9.89407e-01,1.62591e-01,9.99999e-01
7.169505741e-01,1.54650e-01,9.99999e-01,9.99999e-01,9.17637e-01,1.68531e-01,9.99998e-01
7.205353270e-01,1.67257e-01,9.99999e-01,9.99999e-01,9.58144e-01,1.74564e-01,9.99998e-01
7.241380036e-01,1.71253e-01,9.99999e-01,9.99999e-01,9.47785e-01,1.80687e-01,9.99998e-01
7.277586936e-01,1.78063e-01,9.99999e-01,9.99999e-01,9.52726e-01,1.86898e-01,9.99998e-01
7.313974871e-01,1.83435e-01,9.99999e-01,9.99999e-01,9.49490e-01,1.93194e-01,9.99998e-01
7.350544745e-01,1.94007e-01,9.99999e-01,9.99999e-01,9.72125e-01,1.99570e-01,9.99999e-01
7.387297469e-01,2.01780e-01,9.99999e-01,9.99999e-01,9.79394e-01,2.06025e-01,9.99999e-01
7.424233956e-01,2.10397e-01,9.99999e-01,9.99999e-01,9.89844e-01,2.12556e-01,9.99999e-01
7.461355126e-01,2.17809e-01,9.99999e-01,9.99999e-01,9.93843e-01,2.19158e-01,9.99999e-01
7.498661902e-01,2.25179e-01,9.99999e-01,9.99999e-01,9.97122e-01,2.25828e-01,9.99999e-01
7.536155211e-01,2.32237e-01,9.99999e-01,9.99999e-01,9.98591e-01,2.32564e-01,9.99999e-01
7.573835987e-01,2.39188e-01,9.99999e-01,9.99999e-01,9.99274e-01,2.39362e-01,9.99999e-01
7.611705167e-01,2.46107e-01,9.99999e-01,9.99999e-01,9.99548e-01,2.46218e-01,9.99999e-01
7.649763693e-01,2.53058e-01,9.99999e-01,9.99999e-01,9.99717e-01,2.53130e-01,9.99999e-01
7.688012511e-01,2.60042e-01,9.99999e-01,9.99999e-01,9.99803e-01,2.60093e-01,9.99999e-01
7.726452574e-01,2.67062e-01,9.99999e-01,9.99999e-01,9.99838e-01,2.67105e-01,9.99999e-01
7.765084837e-01,2.74099e-01,9.99999e-01,9.99999e-01,9.99771e-01,2.74161e-01,9.99999e-01
7.803910261e-01,2.65975e-01,9.99999e-01,9.46540e-01,9.99016e-01,2.81259e-01,9.99999e-01
7.842929812e-01,2.20956e-01,9.99999e-01,7.68584e-01,9.96572e-01,2.88395e-01,9.99999e-01
7.882144461e-01,2.22159e-01,9.99999e-01,7.56666e-01,9.92896e-01,2.95566e-01,9.99999e-01
7.921555184e-01,2.55484e-01,9.99999e-01,8.47013e-01,9.96082e-01,3.02768e-01,9.99999e-01
7.961162960e-01,2.75194e-01,9.99999e-01,8.93747e-01,9.93151e-01,3.09999e-01,9.99999e-01
8.000968774e-01,2.96165e-01,9.99999e-01,9.40968e-01,9.92052e-01,3.17254e-01,9.99999e-01
8.040973618e-01,3.11932e-01,9.99999e-01,9.68844e-01,9.92059e-01,3.24530e-01,9.99999e-01
8.081178486e-01,3.21278e-01,9.99999e-01,9.85624e-01,9.82291e-01,3.31825e-01,9.99999e-01
8.121584379e-01,3.13382e-01,9.99999e-01,9.95506e-01,9.28163e-01,3.39135e-01,9.99998e-01
8.162192301e-01,3.16577e-01,9.99999e-01,9.99005e-01,9.14637e-01,3.46456e-01,9.99998e-01
8.203003262e-01,3.38702e-01,9.99999e-01,9.99983e-01,9.57374e-01,3.53787e-01,9.99998e-01
8.244018279e-01,3.39396e-01,9.99999e-01,9.99999e-01,9.39834e-01,3.61123e-01,9.99998e-01
8.285238370e-01,3.49441e-01,9.99999e-01,9.99999e-01,9.48377e-01,3.68462e-01,9.99998e-01
8.326664562e-01,3.56134e-01,9.99999e-01,9.99999e-01,9.47668e-01,3.75801e-01,9.99998e-01
8.368297885e-01,3.68668e-01,9.99999e-01,9.99999e-01,9.62238e-01,3.83136e-01,9.99999e-01
8.410139374e-01,3.81633e-01,9.99999e-01,9.99999e-01,9.77379e-01,3.90466e-01,9.99999e-01
8.452190071e-01,3.93345e-01,9.99999e-01,9.99999e-01,9.88833e-01,3.97787e-01,9.99999e-01
8.494451021e-01,4.02474e-01,9.99999e-01,9.99999e-01,9.93527e-01,4.05096e-01,9.99999e-01
8.536923276e-01,4.10807e-01,9.99999e-01,9.99999e-01,9.96157e-01,4.12391e-01,9.99999e-01
8.579607893e-01,4.18679e-01,9.99999e-01,9.99999e-01,9.97638e-01,4.19670e-01,9.99999e-01
8.622505932e-01,4.26288e-01,9.99999e-01,9.99999e-01,9.98496e-01,4.26930e-01,9.99999e-01
8.665618462e-01,3.90932e-01,9.99999e-01,9.01207e-01,9.99072e-01,4.34168e-01,9.99999e-01
8.708946554e-01,2.28978e-01,9.99999e-01,5.19293e-01,9.98940e-01,4.41383e-01,9.99999e-01
8.752491287e-01,2.61703e-01,9.99999e-01,5.84204e-01,9.98581e-01,4.48571e-01,9.99999e-01
8.796253743e-01,3.37248e-01,9.99999e-01,7.41397e-01,9.98041e-01,4.55731e-01,9.99999e-01
8.840235012e-01,3.95055e-01,9.99999e-01,8.55375e-01,9.97760e-01,4.62860e-01,9.99999e-01
8.884436187e-01,4.38250e-01,9.99999e-01,9.39946e-01,9.91980e-01,4.69957e-01,9.99999e-01
8.928858368e-01,4.27213e-01,9.99999e-01,9.75262e-01,9.17962e-01,4.77019e-01,9.99998e-01
8.973502660e-01,4.13141e-01,9.99999e-01,9.93901e-01,8.58572e-01,4.84044e-01,9.99997e-01
9.018370173e-01,4.53755e-01,9.99999e-01,9.99324e-01,9.24678e-01,4.91032e-01,9.99997e-01
9.063462024e-01,4.57912e-01,9.99999e-01,9.83406e-01,9.34208e-01,4.97979e-01,9.99997e-01
9.108779334e-01,4.36649e-01,9.99999e-01,9.61336e-01,8.98887e-01,5.04884e-01,9.99996e-01
9.154323231e-01,4.49172e-01,9.99999e-01,9.90711e-01,8.85649e-01,5.11746e-01,9.99996e-01
9.200094847e-01,4.18992e-01,9.99999e-01,8.81542e-01,9.09177e-01,5.18563e-01,9.99995e-01
9.246095321e-01,3.77031e-01,9.99999e-01,8.25000e-01,8.65292e-01,5.25333e-01,9.99992e-01
9.292325798e-01,1.80450e-01,9.99999e-01,8.62060e-01,3.84494e-01,5.32055e-01,9.99985e-01
9.338787427e-01,1.37988e-01,9.99999e-01,8.64748e-01,2.89612e-01,5.38728e-01,9.99981e-01
9.385481364e-01,2.99316e-01,9.99999e-01,8.98422e-01,6.04926e-01,5.45351e-01,9.99980e-01
9.432408771e-01,2.63076e-01,9.99999e-01,9.36225e-01,5.06298e-01,5.51921e-01,9.99978e-01
9.479570815e-01,2.12929e-01,9.99999e-01,9.66828e-01,3.93305e-01,5.58439e-01,9.99981e-01
9.526968669e-01,2.72231e-01,9.99999e-01,9.83848e-01,4.88767e-01,5.64902e-01,9.99985e-01
9.574603512e-01,2.89916e-01,9.99999e-01,9.93056e-01,5.10623e-01,5.71311e-01,9.99989e-01
9.622476530e-01,3.31810e-01,9.99999e-01,9.97827e-01,5.75529e-01,5.77664e-01,9.99992e-01
9.670588912e-01,4.24110e-01,9.99999e-01,9.99347e-01,7.26703e-01,5.83959e-01,9.99995e-01
9.718941857e-01,4.82605e-01,9.99999e-01,9.99952e-01,8.17737e-01,5.90197e-01,9.99996e-01
9.767536566e-01,5.04613e-01,9.99999e-01,9.99999e-01,8.46133e-01,5.96376e-01,9.99997e-01
9.816374249e-01,5.32083e-01,9.99999e-01,9.99999e-01,8.83130e-01,6.02496e-01,9.99998e-01
9.865456120e-01,5.63035e-01,9.99999e-01,9.99999e-01,9.25198e-01,6.08556e-01,9.99998e-01
9.914783401e-01,5.85718e-01,9.99999e-01,9.99999e-01,9.53075e-01,6.14556e-01,9.99999e-01
9.964357318e-01,6.04461e-01,9.99999e-01,9.99999e-01,9.74160e-01,6.20494e-01,9.99999e-01
1.001417910e+00,6.16618e-01,9.99999e-01,9.99999e-01,9.84428e-01,6.26371e-01,9.99999e-01
1.006425000e+00,6.26566e-01,9.99999e-01,9.99999e-01,9.91110e-01,6.32186e-01,9.99999e-01
1.011457125e+00,6.34405e-01,9.99999e-01,9.99999e-01,9.94461e-01,6.37938e-01,9.99999e-01
1.016514411e+00,6.41209e-01,9.99999e-01,9.99999e-01,9.96241e-01,6.43628e-01,9.99999e-01
1.021596983e+00,6.47258e-01,9.99999e-01,9.99917e-01,9.97006e-01,6.49254e-01,9.99999e-01
1.026704968e+00,6.49038e-01,9.99999e-01,9.93488e-01,9.97665e-01,6.54817e-01,9.99999e-01
1.031838492e+00,6.18465e-01,9.99999e-01,9.38151e-01,9.98299e-01,6.60316e-01,9.99999e-01
1.036997685e+00,6.09188e-02,9.99999e-01,9.15746e-02,9.98991e-01,6.65752e-01,9.99999e-01
1.042182673e+00,1.92947e-02,9.99999e-01,2.87785e-02,9.98801e-01,6.71123e-01,9.99999e-01
1.047393587e+00,3.33748e-02,9.99999e-01,4.94072e-02,9.98408e-01,6.76431e-01,9.99999e-01
1.052630555e+00,1.05525e-04,9.99999e-01,1.55032e-04,9.97819e-01,6.81674e-01,9.99999e-01
1.057893707e+00,3.44436e-04,9.99999e-01,5.02543e-04,9.96366e-01,6.86854e-01,9.99999e-01
1.063183176e+00,2.41029e-03,9.99999e-01,3.49666e-03,9.94020e-01,6.91969e-01,9.99999e-01
1.068499092e+00,1.17038e-02,9.99999e-01,1.69205e-02,9.89995e-01,6.97020e-01,9.99999e-01
1.073841587e+00,5.16621e-02,9.99999e-01,7.42780e-02,9.88322e-01,7.02007e-01,9.99999e-01
1.079210795e+00,1.34715e-01,9.99999e-01,1.93042e-01,9.85013e-01,7.06930e-01,9.99999e-01
1.084606849e+00,2.78272e-01,9.99999e-01,3.99267e-01,9.77437e-01,7.11790e-01,9.99998e-01
1.090029883e+00,4.30638e-01,9.99999e-01,6.19931e-01,9.67913e-01,7.16586e-01,9.99998e-01
1.095480033e+00,5.21927e-01,9.99999e-01,7.89595e-01,9.14847e-01,7.21318e-01,9.99997e-01
1.100957433e+00,5.18152e-01,9.99999e-01,8.92231e-01,7.98290e-01,7.25988e-01,9.99995e-01
1.106462220e+00,3.97793e-01,9.99999e-01,9.53868e-01,5.69226e-01,7.30594e-01,9.99991e-01
1.111994531e+00,2.23499e-01,9.99999e-01,9.82639e-01,3.08782e-01,7.35138e-01,9.99982e-01
1.117554504e+00,1.13033e-01,9.99999e-01,9.95717e-01,1.53301e-01,7.39620e-01,9.99975e-01
1.123142276e+00,1.95798e-01,9.99999e-01,9.99716e-01,2.63185e-01,7.44039e-01,9.99971e-01
1.128757988e+00,3.09224e-01,9.99999e-01,9.99999e-01,4.13194e-01,7.48397e-01,9.99968e-01
1.134401778e+00,1.48482e-01,9.99999e-01,9.99999e-01,1.97274e-01,7.52694e-01,9.99964e-01
1.140073787e+00,4.41692e-01,9.99999e-01,9.99999e-01,5.83546e-01,7.56930e-01,9.99971e-01
1.145774156e+00,2.54434e-01,9.99999e-01,9.99999e-01,3.34303e-01,7.61105e-01,9.99975e-01
1.151503026e+00,2.28321e-01,9.99999e-01,9.99999e-01,2.98378e-01,7.65220e-01,9.99979e-01
1.157260541e+00,2.70576e-01,9.99999e-01,9.99999e-01,3.51733e-01,7.69275e-01,9.99984e-01
1.163046844e+00,3.55191e-01,9.99999e-01,9.99999e-01,4.59339e-01,7.73271e-01,9.99989e-01
1.168862078e+00,4.49505e-01,9.99999e-01,9.99999e-01,5.78361e-01,7.77209e-01,9.99994e-01
1.174706389e+00,5.56996e-01,9.99999e-01,9.99999e-01,7.13104e-01,7.81088e-01,9.99997e-01
1.180579921e+00,6.38486e-01,9.99999e-01,9.99999e-01,8.13453e-01,7.84909e-01,9.99997e-01
1.186482820e+00,7.01685e-01,9.99999e-01,9.99990e-01,8.89711e-01,7.88673e-01,9.99998e-01
1.192415234e+00,7.23693e-01,9.99999e-01,9.77336e-01,9.34070e-01,7.92380e-01,9.99998e-01
1.198377311e+00,4.13649e-01,9.99999e-01,5.45141e-01,9.44235e-01,7.96030e-01,9.99998e-01
1.204369197e+00,3.38430e-18,9.99999e-01,4.36730e-18,9.47167e-01,7.99625e-01,9.99998e-01
1.210391043e+00,1.02398e-70,9.99999e-01,1.31225e-70,9.49375e-01,8.03165e-01,9.99998e-01
1.216442998e+00,2.52327e-61,9.99999e-01,3.21480e-61,9.56693e-01,8.06650e-01,9.99999e-01
1.222525213e+00,2.05355e-60,9.99999e-01,2.58029e-60,9.66128e-01,8.10081e-01,9.99999e-01
1.228637839e+00,9.64694e-47,9.99999e-01,1.20533e-46,9.76370e-01,8.13458e-01,9.99999e-01
