#,Wave/freq,Total,O2,CO2,H2O,Rayleigh,CIA
4.000000000e-01,7.74848e-13,9.99999e-01,9.99999e-01,9.99944e-01,7.74890e-13,9.99999e-01
4.020000000e-01,1.34491e-12,9.99999e-01,9.99999e-01,9.99965e-01,1.34496e-12,9.99999e-01
4.040100000e-01,2.30775e-12,9.99999e-01,9.99999e-01,9.99985e-01,2.30778e-12,9.99999e-01
4.060300500e-01,3.91786e-12,9.99999e-01,9.99999e-01,9.99996e-01,3.91788e-12,9.99999e-01
4.080602003e-01,6.58212e-12,9.99999e-01,9.99999e-01,9.99998e-01,6.58213e-12,9.99999e-01
4.101005013e-01,1.09454e-11,9.99999e-01,9.99999e-01,9.99999e-01,1.09454e-11,9.99999e-01
4.121510038e-01,1.80191e-11,9.99999e-01,9.99999e-01,9.99997e-01,1.80191e-11,9.99999e-01
4.142117588e-01,2.93733e-11,9.99999e-01,9.99999e-01,9.99984e-01,2.93738e-11,9.99999e-01
4.162828176e-01,4.74203e-11,9.99999e-01,9.99999e-01,9.99931e-01,4.74235e-11,9.99999e-01
4.183642317e-01,7.58404e-11,9.99999e-01,9.99999e-01,9.99959e-01,7.58435e-11,9.99999e-01
4.204560528e-01,1.20172e-10,9.99999e-01,9.99999e-01,9.99974e-01,1.20175e-10,9.99999e-01
4.225583331e-01,1.88694e-10,9.99999e-01,9.99999e-01,9.99990e-01,1.88696e-10,9.99999e-01
4.246711247e-01,2.93655e-10,9.99999e-01,9.99999e-01,9.99992e-01,2.93657e-10,9.99999e-01
4.267944804e-01,4.53023e-10,9.99999e-01,9.99999e-01,9.99988e-01,4.53028e-10,9.99999e-01
4.289284528e-01,6.92924e-10,9.99999e-01,9.99999e-01,9.99991e-01,6.92930e-10,9.99999e-01
4.310730950e-01,1.05101e-09,9.99999e-01,9.99999e-01,9.99995e-01,1.05101e-09,9.99999e-01
4.332284605e-01,1.58108e-09,9.99999e-01,9.99999e-01,9.99998e-01,1.58108e-09,9.99999e-01
4.353946028e-01,2.35937e-09,9.99999e-01,9.99999e-01,9.99999e-01,2.35937e-09,9.99999e-01
4.375715758e-01,3.49303e-09,9.99999e-01,9.99999e-01,9.99992e-01,3.49305e-09,9.99999e-01
4.397594337e-01,5.13124e-09,9.99999e-01,9.99999e-01,9.99940e-01,5.13154e-09,9.99999e-01
4.419582309e-01,7.47931e-09,9.99999e-01,9.99999e-01,9.99701e-01,7.48154e-09,9.99999e-01
4.441680220e-01,1.08242e-08,9.99999e-01,9.99999e-01,9.99763e-01,1.08268e-08,9.99999e-01
4.463888621e-01,1.55500e-08,9.99999e-01,9.99999e-01,9.99754e-01,1.55539e-08,9.99999e-01
4.486208064e-01,2.21821e-08,9.99999e-01,9.99999e-01,9.99846e-01,2.21855e-08,9.99999e-01
4.508639105e-01,3.14211e-08,9.99999e-01,9.99999e-01,9.99928e-01,3.14234e-08,9.99999e-01
4.531182300e-01,4.42016e-08,9.99999e-01,9.99999e-01,9.99971e-01,4.42029e-08,9.99999e-01
4.553838212e-01,6.17608e-08,9.99999e-01,9.99999e-01,9.99980e-01,6.17620e-08,9.99999e-01
4.576607403e-01,8.57271e-08,9.99999e-01,9.99999e-01,9.99990e-01,8.57279e-08,9.99999e-01
4.599490440e-01,1.18225e-07,9.99999e-01,9.99999e-01,9.99993e-01,1.18225e-07,9.99999e-01
4.622487892e-01,1.62010e-07,9.99999e-01,9.99999e-01,9.99998e-01,1.62010e-07,9.99999e-01
4.645600332e-01,2.20632e-07,9.99999e-01,9.99999e-01,9.99995e-01,2.20633e-07,9.99999e-01
4.668828333e-01,2.98619e-07,9.99999e-01,9.99999e-01,9.99927e-01,2.98641e-07,9.99999e-01
4.692172475e-01,4.01758e-07,9.99999e-01,9.99999e-01,9.99845e-01,4.01819e-07,9.99999e-01
4.715633337e-01,5.37432e-07,9.99999e-01,9.99999e-01,9.99899e-01,5.37486e-07,9.99999e-01
4.739211504e-01,7.14770e-07,9.99999e-01,9.99999e-01,9.99903e-01,7.14839e-07,9.99999e-01
4.762907561e-01,9.45324e-07,9.99999e-01,9.99999e-01,9.99949e-01,9.45372e-07,9.99999e-01
4.786722099e-01,1.24334e-06,9.99999e-01,9.99999e-01,9.99979e-01,1.24337e-06,9.99999e-01
4.810655710e-01,1.62646e-06,9.99999e-01,9.99999e-01,9.99993e-01,1.62647e-06,9.99999e-01
4.834708988e-01,2.11623e-06,9.99999e-01,9.99999e-01,9.99941e-01,2.11635e-06,9.99999e-01
4.858882533e-01,2.73920e-06,9.99999e-01,9.99999e-01,9.99890e-01,2.73950e-06,9.99999e-01
4.883176946e-01,3.52778e-06,9.99999e-01,9.99999e-01,9.99908e-01,3.52810e-06,9.99999e-01
4.907592831e-01,4.52069e-06,9.99999e-01,9.99999e-01,9.99917e-01,4.52107e-06,9.99999e-01
4.932130795e-01,5.76485e-06,9.99999e-01,9.99999e-01,9.99941e-01,5.76518e-06,9.99999e-01
4.956791449e-01,7.31622e-06,9.99999e-01,9.99999e-01,9.99968e-01,7.31644e-06,9.99999e-01
4.981575406e-01,9.24009e-06,9.99999e-01,9.99999e-01,9.99845e-01,9.24151e-06,9.99999e-01
5.006483283e-01,1.16147e-05,9.99999e-01,9.99999e-01,9.99602e-01,1.16194e-05,9.99999e-01
5.031515699e-01,1.45137e-05,9.99999e-01,9.99999e-01,9.97975e-01,1.45431e-05,9.99999e-01
5.056673278e-01,1.81026e-05,9.99999e-01,9.99999e-01,9.98928e-01,1.81220e-05,9.99999e-01
5.081956644e-01,2.24533e-05,9.99999e-01,9.99999e-01,9.98647e-01,2.24837e-05,9.99999e-01
5.107366428e-01,2.77513e-05,9.99999e-01,9.99999e-01,9.99085e-01,2.77767e-05,9.99999e-01
5.132903260e-01,3.41548e-05,9.99999e-01,9.99999e-01,9.99476e-01,3.41727e-05,9.99999e-01
5.158567776e-01,4.18605e-05,9.99999e-01,9.99999e-01,9.99778e-01,4.18697e-05,9.99999e-01
5.184360615e-01,5.10905e-05,9.99999e-01,9.99999e-01,9.99911e-01,5.10950e-05,9.99999e-01
5.210282418e-01,6.21061e-05,9.99999e-01,9.99999e-01,9.99966e-01,6.21081e-05,9.99999e-01
5.236333830e-01,7.51946e-05,9.99999e-01,9.99999e-01,9.99867e-01,7.52046e-05,9.99999e-01
5.262515499e-01,9.07116e-05,9.99999e-01,9.99999e-01,9.99916e-01,9.07191e-05,9.99999e-01
5.288828077e-01,1.09021e-04,9.99999e-01,9.99999e-01,9.99923e-01,1.09030e-04,9.99999e-01
5.315272217e-01,1.30552e-04,9.99999e-01,9.99999e-01,9.99932e-01,1.30561e-04,9.99999e-01
5.341848578e-01,1.55782e-04,9.99999e-01,9.99999e-01,9.99956e-01,1.55788e-04,9.99999e-01
5.368557821e-01,1.85215e-04,9.99999e-01,9.99999e-01,9.99846e-01,1.85243e-04,9.99999e-01
5.395400610e-01,2.19393e-04,9.99999e-01,9.99999e-01,9.99448e-01,2.19514e-04,9.99999e-01
5.422377613e-01,2.59069e-04,9.99999e-01,9.99999e-01,9.99280e-01,2.59256e-04,9.99999e-01
5.449489501e-01,3.04984e-04,9.99999e-01,9.99999e-01,9.99334e-01,3.05187e-04,9.99999e-01
5.476736949e-01,3.57888e-04,9.99999e-01,9.99999e-01,9.99406e-01,3.58100e-04,9.99999e-01
5.504120634e-01,4.18682e-04,9.99999e-01,9.99999e-01,9.99569e-01,4.18862e-04,9.99999e-01
5.531641237e-01,4.88315e-04,9.99999e-01,9.99999e-01,9.99782e-01,4.88420e-04,9.99999e-01
5.559299443e-01,5.67744e-04,9.99999e-01,9.99999e-01,9.99894e-01,5.67804e-04,9.99999e-01
5.587095940e-01,6.58086e-04,9.99999e-01,9.99999e-01,9.99934e-01,6.58129e-04,9.99999e-01
5.615031420e-01,7.60546e-04,9.99999e-01,9.99999e-01,9.99926e-01,7.60601e-04,9.99999e-01
5.643106577e-01,8.76449e-04,9.99999e-01,9.99999e-01,9.99917e-01,8.76520e-04,9.99999e-01
5.671322110e-01,1.00628e-03,9.99999e-01,9.99999e-01,9.99011e-01,1.00728e-03,9.99999e-01
5.699678720e-01,1.15313e-03,9.99999e-01,9.99999e-01,9.98926e-01,1.15437e-03,9.99999e-01
5.728177114e-01,1.31792e-03,9.99999e-01,9.99999e-01,9.98890e-01,1.31938e-03,9.99999e-01
5.756818000e-01,1.50248e-03,9.99999e-01,9.99999e-01,9.98980e-01,1.50401e-03,9.99999e-01
5.785602090e-01,1.70852e-03,9.99999e-01,9.99999e-01,9.99109e-01,1.71004e-03,9.99999e-01
5.814530100e-01,1.93765e-03,9.99999e-01,9.99999e-01,9.99107e-01,1.93938e-03,9.99999e-01
5.843602750e-01,2.19169e-03,9.99999e-01,9.99999e-01,9.98942e-01,2.19401e-03,9.99999e-01
5.872820764e-01,2.45353e-03,9.99999e-01,9.99999e-01,9.90915e-01,2.47602e-03,9.99999e-01
5.902184868e-01,2.75673e-03,9.99999e-01,9.99999e-01,9.88917e-01,2.78763e-03,9.99999e-01
5.931695792e-01,3.10663e-03,9.99999e-01,9.99999e-01,9.92182e-01,3.13110e-03,9.99999e-01
5.961354271e-01,3.47872e-03,9.99999e-01,9.99999e-01,9.91415e-01,3.50884e-03,9.99999e-01
5.991161043e-01,3.89870e-03,9.99999e-01,9.99999e-01,9.93725e-01,3.92331e-03,9.99999e-01
6.021116848e-01,4.36146e-03,9.99999e-01,9.99999e-01,9.96432e-01,4.37708e-03,9.99999e-01
6.051222432e-01,4.86397e-03,9.99999e-01,9.99999e-01,9.98192e-01,4.87278e-03,9.99999e-01
6.081478544e-01,5.40892e-03,9.99999e-01,9.99999e-01,9.99220e-01,5.41313e-03,9.99999e-01
6.111885937e-01,5.99895e-03,9.99999e-01,9.99999e-01,9.99669e-01,6.00093e-03,9.99999e-01
6.142445367e-01,6.63805e-03,9.99999e-01,9.99999e-01,9.99852e-01,6.63903e-03,9.99999e-01
6.173157594e-01,7.32973e-03,9.99999e-01,9.99999e-01,9.99918e-01,7.33032e-03,9.99999e-01
6.204023382e-01,8.07723e-03,9.99999e-01,9.99999e-01,9.99931e-01,8.07778e-03,9.99999e-01
6.235043498e-01,8.88176e-03,9.99999e-01,9.99999e-01,9.99701e-01,8.88441e-03,9.99999e-01
6.266218716e-01,9.73765e-03,9.99999e-01,9.99999e-01,9.98402e-01,9.75322e-03,9.99999e-01
6.297549810e-01,1.06810e-02,9.99999e-01,9.99999e-01,9.99413e-01,1.06873e-02,9.99999e-01
6.329037559e-01,1.16761e-02,9.99999e-01,9.99999e-01,9.98839e-01,1.16897e-02,9.99999e-01
6.360682746e-01,1.27509e-02,9.99999e-01,9.99999e-01,9.99014e-01,1.27634e-02,9.99999e-01
6.392486160e-01,1.38939e-02,9.99999e-01,9.99999e-01,9.98721e-01,1.39117e-02,9.99999e-01
6.424448591e-01,1.51117e-02,9.99999e-01,9.99999e-01,9.98299e-01,1.51374e-02,9.99999e-01
6.456570834e-01,1.63143e-02,9.99999e-01,9.99999e-01,9.92125e-01,1.64438e-02,9.99999e-01
6.488853688e-01,1.77122e-02,9.99999e-01,9.99999e-01,9.93190e-01,1.78336e-02,9.99999e-01
6.521297956e-01,1.91955e-02,9.99999e-01,9.99999e-01,9.94073e-01,1.93100e-02,9.99999e-01
6.553904446e-01,2.07535e-02,9.99999e-01,9.99999e-01,9.94142e-01,2.08757e-02,9.99999e-01
6.586673968e-01,2.24198e-02,9.99999e-01,9.99999e-01,9.94941e-01,2.25337e-02,9.99999e-01
6.619607338e-01,2.42156e-02,9.99999e-01,9.99999e-01,9.97073e-01,2.42867e-02,9.99999e-01
6.652705375e-01,2.60930e-02,9.99999e-01,9.99999e-01,9.98301e-01,2.61374e-02,9.99999e-01
6.685968902e-01,2.80661e-02,9.99999e-01,9.99999e-01,9.99210e-01,2.80882e-02,9.99999e-01
6.719398746e-01,3.01308e-02,9.99999e-01,9.99999e-01,9.99633e-01,3.01419e-02,9.99999e-01
6.752995740e-01,3.22942e-02,9.99999e-01,9.99999e-01,9.99802e-01,3.23006e-02,9.99999e-01
6.786760719e-01,3.45568e-02,9.99999e-01,9.99999e-01,9.99715e-01,3.45666e-02,9.99999e-01
6.820694522e-01,3.69242e-02,9.99999e-01,9.99999e-01,9.99512e-01,3.69421e-02,9.99999e-01
6.854797995e-01,3.94044e-02,9.99999e-01,9.99999e-01,9.99372e-01,3.94291e-02,9.99999e-01
6.889071985e-01,4.19663e-02,9.99999e-01,9.99999e-01,9.98497e-01,4.20294e-02,9.99999e-01
6.923517345e-01,4.36505e-02,9.99999e-01,9.99999e-01,9.75546e-01,4.47447e-02,9.99999e-01
6.958134932e-01,4.69593e-02,9.99999e-01,9.99999e-01,9.87027e-01,4.75765e-02,9.99999e-01
6.992925606e-01,4.99118e-02,9.99999e-01,9.99999e-01,9.87837e-01,5.05263e-02,9.99999e-01
7.027890234e-01,5.27867e-02,9.99999e-01,9.99999e-01,9.84913e-01,5.35952e-02,9.99999e-01
7.063029686e-01,5.60636e-02,9.99999e-01,9.99999e-01,9.87306e-01,5.67844e-02,9.99999e-01
7.098344834e-01,5.93625e-02,9.99999e-01,9.99999e-01,9.87815e-01,6.00947e-02,9.99999e-01
7.133836558e-01,6.25079e-02,9.99999e-01,9.99999e-01,9.83960e-01,6.35268e-02,9.99998e-01
7.169505741e-01,5.89217e-02,9.99999e-01,9.99999e-01,8.78363e-01,6.70813e-02,9.99997e-01
7.205353270e-01,6.63401e-02,9.99999e-01,9.99999e-01,9.37557e-01,7.07586e-02,9.99997e-01
7.241380036e-01,6.87508e-02,9.99999e-01,9.99999e-01,9.22103e-01,7.45588e-02,9.99997e-01
7.277586936e-01,7.29409e-02,9.99999e-01,9.99999e-01,9.29398e-01,7.84819e-02,9.99998e-01
7.313974871e-01,7.63042e-02,9.99999e-01,9.99999e-01,9.24587e-01,8.25279e-02,9.99998e-01
7.350544745e-01,8.30627e-02,9.99999e-01,9.99999e-01,9.58088e-01,8.66963e-02,9.99998e-01
7.387297469e-01,8.81605e-02,9.99999e-01,9.99999e-01,9.68938e-01,9.09867e-02,9.99999e-01
7.424233956e-01,9.39338e-02,9.99999e-01,9.99999e-01,9.84648e-01,9.53983e-02,9.99999e-01
7.461355126e-01,9.89990e-02,9.99999e-01,9.99999e-01,9.90680e-01,9.99303e-02,9.99999e-01
7.498661902e-01,1.04126e-01,9.99999e-01,9.99999e-01,9.95642e-01,1.04582e-01,9.99999e-01
7.536155211e-01,1.09118e-01,9.99999e-01,9.99999e-01,9.97864e-01,1.09351e-01,9.99999e-01
7.573835987e-01,1.14112e-01,9.99999e-01,9.99999e-01,9.98899e-01,1.14238e-01,9.99999e-01
7.611705167e-01,1.19158e-01,9.99999e-01,9.99999e-01,9.99316e-01,1.19239e-01,9.99999e-01
7.649763693e-01,1.24302e-01,9.99999e-01,9.99999e-01,9.99571e-01,1.24355e-01,9.99999e-01
7.688012511e-01,1.29544e-01,9.99999e-01,9.99999e-01,9.99701e-01,1.29582e-01,9.99999e-01
7.726452574e-01,1.34887e-01,9.99999e-01,9.99999e-01,9.99754e-01,1.34920e-01,9.99999e-01
7.765084837e-01,1.40316e-01,9.99999e-01,9.99999e-01,9.99653e-01,1.40365e-01,9.99999e-01
7.803910261e-01,1.34755e-01,9.99999e-01,9.24795e-01,9.98507e-01,1.45916e-01,9.99999e-01
7.842929812e-01,1.02178e-01,9.99999e-01,6.77266e-01,9.94799e-01,1.51570e-01,9.99999e-01
7.882144461e-01,1.03317e-01,9.99999e-01,6.63206e-01,9.89244e-01,1.57325e-01,9.99999e-01
7.921555184e-01,1.26358e-01,9.99999e-01,7.78709e-01,9.94068e-01,1.63179e-01,9.99999e-01
7.961162960e-01,1.41262e-01,9.99999e-01,8.43778e-01,9.89623e-01,1.69128e-01,9.99999e-01
8.000968774e-01,1.57849e-01,9.99999e-01,9.12009e-01,9.87966e-01,1.75170e-01,9.99999e-01
8.040973618e-01,1.70751e-01,9.99999e-01,9.53201e-01,9.87977e-01,1.81302e-01,9.99999e-01
8.081178486e-01,1.78563e-01,9.99999e-01,9.78290e-01,9.73257e-01,1.87522e-01,9.99998e-01
8.121584379e-01,1.72013e-01,9.99999e-01,9.93202e-01,8.93379e-01,1.93825e-01,9.99998e-01
8.162192301e-01,1.74737e-01,9.99999e-01,9.98494e-01,8.74020e-01,2.00210e-01,9.99997e-01
8.203003262e-01,1.93576e-01,9.99999e-01,9.99975e-01,9.36649e-01,2.06673e-01,9.99997e-01
8.244018279e-01,1.94360e-01,9.99999e-01,9.99999e-01,9.11587e-01,2.13210e-01,9.99997e-01
8.285238370e-01,2.02875e-01,9.99999e-01,9.99999e-01,9.22919e-01,2.19819e-01,9.99998e-01
8.326664562e-01,2.08822e-01,9.99999e-01,9.99999e-01,9.21963e-01,2.26497e-01,9.99998e-01
8.368297885e-01,2.20031e-01,9.99999e-01,9.99999e-01,9.43370e-01,2.33239e-01,9.99998e-01
8.410139374e-01,2.31863e-01,9.99999e-01,9.99999e-01,9.65923e-01,2.40043e-01,9.99999e-01
8.452190071e-01,2.42738e-01,9.99999e-01,9.99999e-01,9.83122e-01,2.46905e-01,9.99999e-01
8.494451021e-01,2.51334e-01,9.99999e-01,9.99999e-01,9.90199e-01,2.53821e-01,9.99999e-01
8.536923276e-01,2.59272e-01,9.99999e-01,9.99999e-01,9.94179e-01,2.60790e-01,9.99999e-01
8.579607893e-01,2.66847e-01,9.99999e-01,9.99999e-01,9.96420e-01,2.67806e-01,9.99999e-01
8.622505932e-01,2.74240e-01,9.99999e-01,9.99999e-01,9.97720e-01,2.74867e-01,9.99999e-01
8.665618462e-01,2.47741e-01,9.99999e-01,8.79776e-01,9.98593e-01,2.81968e-01,9.99999e-01
8.708946554e-01,1.10709e-01,9.99999e-01,3.83501e-01,9.98392e-01,2.89108e-01,9.99999e-01
8.752491287e-01,1.33296e-01,9.99999e-01,4.50804e-01,9.97847e-01,2.96282e-01,9.99999e-01
8.796253743e-01,1.93398e-01,9.99999e-01,6.39016e-01,9.97028e-01,3.03488e-01,9.99999e-01
8.840235012e-01,2.44676e-01,9.99999e-01,7.90028e-01,9.96603e-01,3.10721e-01,9.99999e-01
8.884436187e-01,2.86113e-01,9.99999e-01,9.10583e-01,9.87844e-01,3.17978e-01,9.99998e-01
8.928858368e-01,2.75422e-01,9.99999e-01,9.62763e-01,8.78779e-01,3.25256e-01,9.99997e-01
8.973502660e-01,2.62054e-01,9.99999e-01,9.90781e-01,7.94957e-01,3.32553e-01,9.99996e-01
9.018370173e-01,3.01833e-01,9.99999e-01,9.98978e-01,8.88941e-01,3.39864e-01,9.99996e-01
9.063462024e-01,3.06126e-01,9.99999e-01,9.75086e-01,9.02420e-01,3.47187e-01,9.99995e-01
9.108779334e-01,2.84938e-01,9.99999e-01,9.42057e-01,8.51594e-01,3.54518e-01,9.99995e-01
9.154323231e-01,2.97281e-01,9.99999e-01,9.85984e-01,8.32588e-01,3.61854e-01,9.99994e-01
9.200094847e-01,2.71544e-01,9.99999e-01,8.34808e-01,8.66387e-01,3.69193e-01,9.99993e-01
9.246095321e-01,2.29446e-01,9.99999e-01,7.47929e-01,8.05902e-01,3.76532e-01,9.99989e-01
9.292325798e-01,8.01612e-02,9.99999e-01,8.00305e-01,2.49736e-01,3.83867e-01,9.99978e-01
9.338787427e-01,5.41314e-02,9.99999e-01,8.03447e-01,1.65140e-01,3.91196e-01,9.99971e-01
9.385481364e-01,1.66144e-01,9.99999e-01,8.50526e-01,4.80502e-01,3.98515e-01,9.99970e-01
9.432408771e-01,1.39445e-01,9.99999e-01,9.05015e-01,3.75436e-01,4.05824e-01,9.99967e-01
9.479570815e-01,1.02222e-01,9.99999e-01,9.50147e-01,2.58991e-01,4.13118e-01,9.99971e-01
9.526968669e-01,1.44780e-01,9.99999e-01,9.75631e-01,3.51507e-01,4.20395e-01,9.99978e-01
9.574603512e-01,1.56992e-01,9.99999e-01,9.89494e-01,3.70409e-01,4.27652e-01,9.99983e-01
9.622476530e-01,1.90730e-01,9.99999e-01,9.96708e-01,4.39818e-01,4.34888e-01,9.99989e-01
9.670588912e-01,2.74266e-01,9.99999e-01,9.99011e-01,6.20912e-01,4.42100e-01,9.99992e-01
9.718941857e-01,3.31648e-01,9.99999e-01,9.99928e-01,7.38214e-01,4.49286e-01,9.99995e-01
9.767536566e-01,3.54691e-01,9.99999e-01,9.99999e-01,7.77078e-01,4.56442e-01,9.99996e-01
9.816374249e-01,3.84143e-01,9.99999e-01,9.99999e-01,8.28666e-01,4.63568e-01,9.99997e-01
9.865456120e-01,4.18393e-01,9.99999e-01,9.99999e-01,8.88946e-01,4.70662e-01,9.99998e-01
9.914783401e-01,4.44157e-01,9.99999e-01,9.99999e-01,9.29742e-01,4.77720e-01,9.99999e-01
9.964357318e-01,4.65882e-01,9.99999e-01,9.99999e-01,9.61092e-01,4.84742e-01,9.99999e-01
1.001417910e+00,4.80163e-01,9.99999e-01,9.99999e-01,9.76485e-01,4.91726e-01,9.99999e-01
1.006425000e+00,4.91960e-01,9.99999e-01,9.99999e-01,9.86545e-01,4.98669e-01,9.99999e-01
1.011457125e+00,5.01330e-01,9.99999e-01,9.99999e-01,9.91613e-01,5.05570e-01,9.99999e-01
1.016514411e+00,5.09509e-01,9.99999e-01,9.99999e-01,9.94305e-01,5.12427e-01,9.99999e-01
1.021596983e+00,5.16819e-01,9.99999e-01,9.99873e-01,9.95462e-01,5.19239e-01,9.99999e-01
1.026704968e+00,5.18980e-01,9.99999e-01,9.90136e-01,9.96461e-01,5.26005e-01,9.99999e-01
1.031838492e+00,4.87494e-01,9.99999e-01,9.17349e-01,9.97423e-01,5.32722e-01,9.99999e-01
1.036997685e+00,3.28265e-02,9.99999e-01,6.09291e-02,9.98470e-01,5.39390e-01,9.99999e-01
1.042182673e+00,3.56315e-03,9.99999e-01,6.53514e-03,9.98181e-01,5.46008e-01,9.99999e-01
1.047393587e+00,8.48455e-03,9.99999e-01,1.53858e-02,9.97586e-01,5.52573e-01,9.99999e-01
1.052630555e+00,2.78647e-06,9.99999e-01,4.99458e-06,9.96692e-01,5.59085e-01,9.99999e-01
1.057893707e+00,1.01937e-05,9.99999e-01,1.80778e-05,9.94489e-01,5.65544e-01,9.99999e-01
1.063183176e+00,1.70368e-04,9.99999e-01,2.99485e-04,9.90941e-01,5.71947e-01,9.99999e-01
1.068499092e+00,1.37996e-03,9.99999e-01,2.41162e-03,9.84863e-01,5.78293e-01,9.99999e-01
1.073841587e+00,1.20024e-02,9.99999e-01,2.08035e-02,9.82344e-01,5.84583e-01,9.99999e-01
1.079210795e+00,5.06617e-02,9.99999e-01,8.73426e-02,9.77364e-01,5.90815e-01,9.99998e-01
1.084606849e+00,1.45841e-01,9.99999e-01,2.51945e-01,9.65995e-01,5.96989e-01,9.99998e-01
1.090029883e+00,2.80128e-01,9.99999e-01,4.86353e-01,9.51767e-01,6.03103e-01,9.99997e-01
1.095480033e+00,3.74037e-01,9.99999e-01,6.99983e-01,8.73881e-01,6.09157e-01,9.99996e-01
1.100957433e+00,3.70219e-01,9.99999e-01,8.41476e-01,7.11905e-01,6.15150e-01,9.99993e-01
1.106462220e+00,2.51473e-01,9.99999e-01,9.30964e-01,4.32322e-01,6.21083e-01,9.99986e-01
1.111994531e+00,1.08392e-01,9.99999e-01,9.73807e-01,1.76804e-01,6.26953e-01,9.99973e-01
1.117554504e+00,4.10228e-02,9.99999e-01,9.93520e-01,6.51000e-02,6.32762e-01,9.99963e-01
1.123142276e+00,9.54873e-02,9.99999e-01,9.99571e-01,1.49565e-01,6.38508e-01,9.99956e-01
1.128757988e+00,1.76287e-01,9.99999e-01,9.99999e-01,2.73668e-01,6.44191e-01,9.99952e-01
1.134401778e+00,7.89045e-02,9.99999e-01,9.99999e-01,1.21433e-01,6.49811e-01,9.99947e-01
1.140073787e+00,2.94035e-01,9.99999e-01,9.99999e-01,4.48674e-01,6.55368e-01,9.99957e-01
1.145774156e+00,1.34573e-01,9.99999e-01,9.99999e-01,2.03640e-01,6.60861e-01,9.99963e-01
1.151503026e+00,1.15290e-01,9.99999e-01,9.99999e-01,1.73038e-01,6.66290e-01,9.99968e-01
1.157260541e+00,1.42416e-01,9.99999e-01,9.99999e-01,2.12042e-01,6.71655e-01,9.99976e-01
1.163046844e+00,2.12620e-01,9.99999e-01,9.99999e-01,3.14087e-01,6.76956e-01,9.99984e-01
1.168862078e+00,2.99320e-01,9.99999e-01,9.99999e-01,4.38764e-01,6.82193e-01,9.99992e-01
1.174706389e+00,4.13025e-01,9.99999e-01,9.99999e-01,6.00882e-01,6.87366e-01,9.99995e-01
1.180579921e+00,5.07028e-01,9.99999e-01,9.99999e-01,7.32198e-01,6.92475e-01,9.99997e-01
1.186482820e+00,5.84398e-01,9.99999e-01,9.99985e-01,8.37833e-01,6.97520e-01,9.99997e-01
1.192415234e+00,6.12741e-01,9.99999e-01,9.66263e-01,9.01767e-01,7.02500e-01,9.99997e-01
1.198377311e+00,3.46659e-01,9.99999e-01,5.26887e-01,9.16682e-01,7.07417e-01,9.99998e-01
1.204369197e+00,1.90294e-26,9.99999e-01,2.80197e-26,9.21103e-01,7.12271e-01,9.99998e-01
1.210391043e+00,3.88696e-106,9.99999e-01,5.66327e-106,9.24301e-01,7.17060e-01,9.99998e-01
1.216442998e+00,6.92150e-92,9.99999e-01,9.99561e-92,9.35135e-01,7.21786e-01,9.99998e-01
1.222525213e+00,1.66595e-90,9.99999e-01,2.35575e-90,9.49099e-01,7.26450e-01,9.99999e-01
1.228637839e+00,7.18845e-70,9.99999e-01,1.00762e-69,9.64385e-01,7.31050e-01,9.99999e-01
