#,Wave/freq,Total,O2,CO2,H2O,Rayleigh,CIA
4.000000000e-01,1.82913e-12,9.99999e-01,9.99999e-01,9.99946e-01,1.82923e-12,9.99999e-01
4.020000000e-01,3.12131e-12,9.99999e-01,9.99999e-01,9.99966e-01,3.12142e-12,9.99999e-01
4.040100000e-01,5.26757e-12,9.99999e-01,9.99999e-01,9.99985e-01,5.26765e-12,9.99999e-01
4.060300500e-01,8.79815e-12,9.99999e-01,9.99999e-01,9.99996e-01,8.79818e-12,9.99999e-01
4.080602003e-01,1.45468e-11,9.99999e-01,9.99999e-01,9.99998e-01,1.45468e-11,9.99999e-01
4.101005013e-01,2.38139e-11,9.99999e-01,9.99999e-01,9.99999e-01,2.38139e-11,9.99999e-01
4.121510038e-01,3.86068e-11,9.99999e-01,9.99999e-01,9.99997e-01,3.86069e-11,9.99999e-01
4.142117588e-01,6.19937e-11,9.99999e-01,9.99999e-01,9.99984e-01,6.19946e-11,9.99999e-01
4.162828176e-01,9.86169e-11,9.99999e-01,9.99999e-01,9.99934e-01,9.86234e-11,9.99999e-01
4.183642317e-01,1.55456e-10,9.99999e-01,9.99999e-01,9.99960e-01,1.55462e-10,9.99999e-01
4.204560528e-01,2.42858e-10,9.99999e-01,9.99999e-01,9.99975e-01,2.42864e-10,9.99999e-01
4.225583331e-01,3.76073e-10,9.99999e-01,9.99999e-01,9.99990e-01,3.76077e-10,9.99999e-01
4.246711247e-01,5.77344e-10,9.99999e-01,9.99999e-01,9.99992e-01,5.77348e-10,9.99999e-01
4.267944804e-01,8.78856e-10,9.99999e-01,9.99999e-01,9.99989e-01,8.78865e-10,9.99999e-01
4.289284528e-01,1.32678e-09,9.99999e-01,9.99999e-01,9.99991e-01,1.32679e-09,9.99999e-01
4.310730950e-01,1.98677e-09,9.99999e-01,9.99999e-01,9.99996e-01,1.98678e-09,9.99999e-01
4.332284605e-01,2.95142e-09,9.99999e-01,9.99999e-01,9.99998e-01,2.95143e-09,9.99999e-01
4.353946028e-01,4.35031e-09,9.99999e-01,9.99999e-01,9.99999e-01,4.35031e-09,9.99999e-01
4.375715758e-01,6.36322e-09,9.99999e-01,9.99999e-01,9.99992e-01,6.36327e-09,9.99999e-01
4.397594337e-01,9.23746e-09,9.99999e-01,9.99999e-01,9.99941e-01,9.23799e-09,9.99999e-01
4.419582309e-01,1.33091e-08,9.99999e-01,9.99999e-01,9.99704e-01,1.33130e-08,9.99999e-01
4.441680220e-01,1.90434e-08,9.99999e-01,9.99999e-01,9.99772e-01,1.90477e-08,9.99999e-01
4.463888621e-01,2.70540e-08,9.99999e-01,9.99999e-01,9.99762e-01,2.70604e-08,9.99999e-01
4.486208064e-01,3.81725e-08,9.99999e-01,9.99999e-01,9.99852e-01,3.81781e-08,9.99999e-01
4.508639105e-01,5.34949e-08,9.99999e-01,9.99999e-01,9.99930e-01,5.34986e-08,9.99999e-01
4.531182300e-01,7.44670e-08,9.99999e-01,9.99999e-01,9.99972e-01,7.44690e-08,9.99999e-01
4.553838212e-01,1.02983e-07,9.99999e-01,9.99999e-01,9.99981e-01,1.02984e-07,9.99999e-01
4.576607403e-01,1.41509e-07,9.99999e-01,9.99999e-01,9.99991e-01,1.41510e-07,9.99999e-01
4.599490440e-01,1.93229e-07,9.99999e-01,9.99999e-01,9.99993e-01,1.93231e-07,9.99999e-01
4.622487892e-01,2.62236e-07,9.99999e-01,9.99999e-01,9.99998e-01,2.62236e-07,9.99999e-01
4.645600332e-01,3.53743e-07,9.99999e-01,9.99999e-01,9.99995e-01,3.53744e-07,9.99999e-01
4.668828333e-01,4.74339e-07,9.99999e-01,9.99999e-01,9.99929e-01,4.74372e-07,9.99999e-01
4.692172475e-01,6.32363e-07,9.99999e-01,9.99999e-01,9.99850e-01,6.32457e-07,9.99999e-01
4.715633337e-01,8.38366e-07,9.99999e-01,9.99999e-01,9.99902e-01,8.38448e-07,9.99999e-01
4.739211504e-01,1.10525e-06,9.99999e-01,9.99999e-01,9.99906e-01,1.10536e-06,9.99999e-01
4.762907561e-01,1.44923e-06,9.99999e-01,9.99999e-01,9.99951e-01,1.44930e-06,9.99999e-01
4.786722099e-01,1.89008e-06,9.99999e-01,9.99999e-01,9.99979e-01,1.89012e-06,9.99999e-01
4.810655710e-01,2.45211e-06,9.99999e-01,9.99999e-01,9.99993e-01,2.45213e-06,9.99999e-01
4.834708988e-01,3.16474e-06,9.99999e-01,9.99999e-01,9.99941e-01,3.16493e-06,9.99999e-01
4.858882533e-01,4.06396e-06,9.99999e-01,9.99999e-01,9.99894e-01,4.06439e-06,9.99999e-01
4.883176946e-01,5.19329e-06,9.99999e-01,9.99999e-01,9.99911e-01,5.19375e-06,9.99999e-01
4.907592831e-01,6.60433e-06,9.99999e-01,9.99999e-01,9.99920e-01,6.60485e-06,9.99999e-01
4.932130795e-01,8.35909e-06,9.99999e-01,9.99999e-01,9.99943e-01,8.35956e-06,9.99999e-01
4.956791449e-01,1.05310e-05,9.99999e-01,9.99999e-01,9.99969e-01,1.05313e-05,9.99999e-01
4.981575406e-01,1.32049e-05,9.99999e-01,9.99999e-01,9.99849e-01,1.32069e-05,9.99999e-01
5.006483283e-01,1.64819e-05,9.99999e-01,9.99999e-01,9.99608e-01,1.64884e-05,9.99999e-01
5.031515699e-01,2.04548e-05,9.99999e-01,9.99999e-01,9.98031e-01,2.04951e-05,9.99999e-01
5.056673278e-01,2.53400e-05,9.99999e-01,9.99999e-01,9.98963e-01,2.53663e-05,9.99999e-01
5.081956644e-01,3.12224e-05,9.99999e-01,9.99999e-01,9.98692e-01,3.12632e-05,9.99999e-01
5.107366428e-01,3.83385e-05,9.99999e-01,9.99999e-01,9.99117e-01,3.83723e-05,9.99999e-01
5.132903260e-01,4.68842e-05,9.99999e-01,9.99999e-01,9.99496e-01,4.69078e-05,9.99999e-01
5.158567776e-01,5.71026e-05,9.99999e-01,9.99999e-01,9.99787e-01,5.71148e-05,9.99999e-01
5.184360615e-01,6.92670e-05,9.99999e-01,9.99999e-01,9.99914e-01,6.92729e-05,9.99999e-01
5.210282418e-01,8.36967e-05,9.99999e-01,9.99999e-01,9.99967e-01,8.36994e-05,9.99999e-01
5.236333830e-01,1.00740e-04,9.99999e-01,9.99999e-01,9.99871e-01,1.00753e-04,9.99999e-01
5.262515499e-01,1.20829e-04,9.99999e-01,9.99999e-01,9.99919e-01,1.20838e-04,9.99999e-01
5.288828077e-01,1.44397e-04,9.99999e-01,9.99999e-01,9.99925e-01,1.44408e-04,9.99999e-01
5.315272217e-01,1.71957e-04,9.99999e-01,9.99999e-01,9.99935e-01,1.71968e-04,9.99999e-01
5.341848578e-01,2.04075e-04,9.99999e-01,9.99999e-01,9.99957e-01,2.04083e-04,9.99999e-01
5.368557821e-01,2.41342e-04,9.99999e-01,9.99999e-01,9.99849e-01,2.41378e-04,9.99999e-01
5.395400610e-01,2.84389e-04,9.99999e-01,9.99999e-01,9.99456e-01,2.84543e-04,9.99999e-01
5.422377613e-01,3.34107e-04,9.99999e-01,9.99999e-01,9.99305e-01,3.34340e-04,9.99999e-01
5.449489501e-01,3.91347e-04,9.99999e-01,9.99999e-01,9.99350e-01,3.91601e-04,9.99999e-01
5.476736949e-01,4.56978e-04,9.99999e-01,9.99999e-01,9.99428e-01,4.57239e-04,9.99999e-01
5.504120634e-01,5.32027e-04,9.99999e-01,9.99999e-01,9.99584e-01,5.32248e-04,9.99999e-01
5.531641237e-01,6.17576e-04,9.99999e-01,9.99999e-01,9.99790e-01,6.17705e-04,9.99999e-01
5.559299443e-01,7.14706e-04,9.99999e-01,9.99999e-01,9.99898e-01,7.14778e-04,9.99999e-01
5.587095940e-01,8.24673e-04,9.99999e-01,9.99999e-01,9.99936e-01,8.24725e-04,9.99999e-01
5.615031420e-01,9.48831e-04,9.99999e-01,9.99999e-01,9.99929e-01,9.48898e-04,9.99999e-01
5.643106577e-01,1.08866e-03,9.99999e-01,9.99999e-01,9.99918e-01,1.08875e-03,9.99999e-01
5.671322110e-01,1.24459e-03,9.99999e-01,9.99999e-01,9.99013e-01,1.24582e-03,9.99999e-01
5.699678720e-01,1.42030e-03,9.99999e-01,9.99999e-01,9.98972e-01,1.42176e-03,9.99999e-01
5.728177114e-01,1.61658e-03,9.99999e-01,9.99999e-01,9.98921e-01,1.61832e-03,9.99999e-01
5.756818000e-01,1.83554e-03,9.99999e-01,9.99999e-01,9.99011e-01,1.83736e-03,9.99999e-01
5.785602090e-01,2.07902e-03,9.99999e-01,9.99999e-01,9.99139e-01,2.08081e-03,9.99999e-01
5.814530100e-01,2.34870e-03,9.99999e-01,9.99999e-01,9.99134e-01,2.35074e-03,9.99999e-01
5.843602750e-01,2.64654e-03,9.99999e-01,9.99999e-01,9.98962e-01,2.64929e-03,9.99999e-01
5.872820764e-01,2.95220e-03,9.99999e-01,9.99999e-01,9.91099e-01,2.97871e-03,9.99999e-01
5.902184868e-01,3.30557e-03,9.99999e-01,9.99999e-01,9.89288e-01,3.34136e-03,9.99999e-01
5.931695792e-01,3.71127e-03,9.99999e-01,9.99999e-01,9.92409e-01,3.73966e-03,9.99999e-01
5.961354271e-01,4.14144e-03,9.99999e-01,9.99999e-01,9.91692e-01,4.17613e-03,9.99999e-01
5.991161043e-01,4.62519e-03,9.99999e-01,9.99999e-01,9.93939e-01,4.65339e-03,9.99999e-01
6.021116848e-01,5.15633e-03,9.99999e-01,9.99999e-01,9.96559e-01,5.17413e-03,9.99999e-01
6.051222432e-01,5.73110e-03,9.99999e-01,9.99999e-01,9.98258e-01,5.74109e-03,9.99999e-01
6.081478544e-01,6.35234e-03,9.99999e-01,9.99999e-01,9.99247e-01,6.35711e-03,9.99999e-01
6.111885937e-01,7.02285e-03,9.99999e-01,9.99999e-01,9.99682e-01,7.02508e-03,9.99999e-01
6.142445367e-01,7.74682e-03,9.99999e-01,9.99999e-01,9.99857e-01,7.74792e-03,9.99999e-01
6.173157594e-01,8.52795e-03,9.99999e-01,9.99999e-01,9.99921e-01,8.52862e-03,9.99999e-01
6.204023382e-01,9.36958e-03,9.99999e-01,9.99999e-01,9.99932e-01,9.37020e-03,9.99999e-01
6.235043498e-01,1.02727e-02,9.99999e-01,9.99999e-01,9.99703e-01,1.02757e-02,9.99999e-01
6.266218716e-01,1.12308e-02,9.99999e-01,9.99999e-01,9.98449e-01,1.12482e-02,9.99999e-01
6.297549810e-01,1.22838e-02,9.99999e-01,9.99999e-01,9.99431e-01,1.22908e-02,9.99999e-01
6.329037559e-01,1.33915e-02,9.99999e-01,9.99999e-01,9.98878e-01,1.34065e-02,9.99999e-01
6.360682746e-01,1.45844e-02,9.99999e-01,9.99999e-01,9.99041e-01,1.45984e-02,9.99999e-01
6.392486160e-01,1.58499e-02,9.99999e-01,9.99999e-01,9.98760e-01,1.58696e-02,9.99999e-01
6.424448591e-01,1.71942e-02,9.99999e-01,9.99999e-01,9.98330e-01,1.72230e-02,9.99999e-01
6.456570834e-01,1.85175e-02,9.99999e-01,9.99999e-01,9.92274e-01,1.86616e-02,9.99999e-01
6.488853688e-01,2.00751e-02,9.99999e-01,9.99999e-01,9.94386e-01,2.01884e-02,9.99999e-01
6.521297956e-01,2.16815e-02,9.99999e-01,9.99999e-01,9.94279e-01,2.18062e-02,9.99999e-01
6.553904446e-01,2.33834e-02,9.99999e-01,9.99999e-01,9.94282e-01,2.35179e-02,9.99999e-01
6.586673968e-01,2.52024e-02,9.99999e-01,9.99999e-01,9.95118e-01,2.53260e-02,9.99999e-01
6.619607338e-01,2.71592e-02,9.99999e-01,9.99999e-01,9.97277e-01,2.72333e-02,9.99999e-01
6.652705375e-01,2.91945e-02,9.99999e-01,9.99999e-01,9.98364e-01,2.92423e-02,9.99999e-01
6.685968902e-01,3.13335e-02,9.99999e-01,9.99999e-01,9.99305e-01,3.13553e-02,9.99999e-01
6.719398746e-01,3.35629e-02,9.99999e-01,9.99999e-01,9.99647e-01,3.35747e-02,9.99999e-01
6.752995740e-01,3.58961e-02,9.99999e-01,9.99999e-01,9.99813e-01,3.59027e-02,9.99999e-01
6.786760719e-01,3.83307e-02,9.99999e-01,9.99999e-01,9.99721e-01,3.83413e-02,9.99999e-01
6.820694522e-01,4.08731e-02,9.99999e-01,9.99999e-01,9.99526e-01,4.08925e-02,9.99999e-01
6.854797995e-01,4.35313e-02,9.99999e-01,9.99999e-01,9.99389e-01,4.35579e-02,9.99999e-01
6.889071985e-01,4.62700e-02,9.99999e-01,9.99999e-01,9.98505e-01,4.63392e-02,9.99999e-01
6.923517345e-01,4.80588e-02,9.99999e-01,9.99999e-01,9.76053e-01,4.92379e-02,9.99999e-01
6.958134932e-01,5.16112e-02,9.99999e-01,9.99999e-01,9.87675e-01,5.22552e-02,9.99999e-01
6.992925606e-01,5.47331e-02,9.99999e-01,9.99999e-01,9.88098e-01,5.53924e-02,9.99999e-01
7.027890234e-01,5.77945e-02,9.99999e-01,9.99999e-01,9.85408e-01,5.86502e-02,9.99999e-01
7.063029686e-01,6.12672e-02,9.99999e-01,9.99999e-01,9.87706e-01,6.20297e-02,9.99999e-01
7.098344834e-01,6.47581e-02,9.99999e-01,9.99999e-01,9.88200e-01,6.55313e-02,9.99999e-01
7.133836558e-01,6.80614e-02,9.99999e-01,9.99999e-01,9.84179e-01,6.91555e-02,9.99998e-01
7.169505741e-01,6.42184e-02,9.99999e-01,9.99999e-01,8.80880e-01,7.29026e-02,9.99998e-01
7.205353270e-01,7.22022e-02,9.99999e-01,9.99999e-01,9.40468e-01,7.67727e-02,9.99997e-01
7.241380036e-01,7.46330e-02,9.99999e-01,9.99999e-01,9.24070e-01,8.07656e-02,9.99997e-01
7.277586936e-01,7.90485e-02,9.99999e-01,9.99999e-01,9.31284e-01,8.48812e-02,9.99998e-01
7.313974871e-01,8.26378e-02,9.99999e-01,9.99999e-01,9.27275e-01,8.91190e-02,9.99998e-01
7.350544745e-01,8.96929e-02,9.99999e-01,9.99999e-01,9.59505e-01,9.34783e-02,9.99998e-01
7.387297469e-01,9.50225e-02,9.99999e-01,9.99999e-01,9.70028e-01,9.79584e-02,9.99999e-01
7.424233956e-01,1.01045e-01,9.99999e-01,9.99999e-01,9.85241e-01,1.02558e-01,9.99999e-01
7.461355126e-01,1.06314e-01,9.99999e-01,9.99999e-01,9.91020e-01,1.07277e-01,9.99999e-01
7.498661902e-01,1.11645e-01,9.99999e-01,9.99999e-01,9.95818e-01,1.12113e-01,9.99999e-01
7.536155211e-01,1.16825e-01,9.99999e-01,9.99999e-01,9.97942e-01,1.17065e-01,9.99999e-01
7.573835987e-01,1.22003e-01,9.99999e-01,9.99999e-01,9.98940e-01,1.22132e-01,9.99999e-01
7.611705167e-01,1.27227e-01,9.99999e-01,9.99999e-01,9.99341e-01,1.27311e-01,9.99999e-01
7.649763693e-01,1.32547e-01,9.99999e-01,9.99999e-01,9.99586e-01,1.32601e-01,9.99999e-01
7.688012511e-01,1.37960e-01,9.99999e-01,9.99999e-01,9.99711e-01,1.38000e-01,9.99999e-01
7.726452574e-01,1.43472e-01,9.99999e-01,9.99999e-01,9.99762e-01,1.43506e-01,9.99999e-01
7.765084837e-01,1.49065e-01,9.99999e-01,9.99999e-01,9.99661e-01,1.49116e-01,9.99999e-01
7.803910261e-01,1.42616e-01,9.99999e-01,9.22379e-01,9.98535e-01,1.54827e-01,9.99999e-01
7.842929812e-01,1.09824e-01,9.99999e-01,6.86807e-01,9.94895e-01,1.60639e-01,9.99999e-01
7.882144461e-01,1.10593e-01,9.99999e-01,6.70408e-01,9.89573e-01,1.66547e-01,9.99999e-01
7.921555184e-01,1.34570e-01,9.99999e-01,7.84117e-01,9.94293e-01,1.72549e-01,9.99999e-01
7.961162960e-01,1.50215e-01,9.99999e-01,8.49293e-01,9.89849e-01,1.78643e-01,9.99999e-01
8.000968774e-01,1.67165e-01,9.99999e-01,9.15053e-01,9.88327e-01,1.84825e-01,9.99999e-01
8.040973618e-01,1.80397e-01,9.99999e-01,9.55131e-01,9.88313e-01,1.91093e-01,9.99999e-01
8.081178486e-01,1.88255e-01,9.99999e-01,9.79068e-01,9.73756e-01,1.97443e-01,9.99998e-01
8.121584379e-01,1.81428e-01,9.99999e-01,9.93537e-01,8.95555e-01,2.03873e-01,9.99998e-01
8.162192301e-01,1.84514e-01,9.99999e-01,9.98569e-01,8.78257e-01,2.10378e-01,9.99997e-01
8.203003262e-01,2.03360e-01,9.99999e-01,9.99979e-01,9.37346e-01,2.16957e-01,9.99997e-01
8.244018279e-01,2.04697e-01,9.99999e-01,9.99999e-01,9.15442e-01,2.23605e-01,9.99997e-01
8.285238370e-01,2.13026e-01,9.99999e-01,9.99999e-01,9.24916e-01,2.30319e-01,9.99998e-01
8.326664562e-01,2.19178e-01,9.99999e-01,9.99999e-01,9.24425e-01,2.37097e-01,9.99998e-01
8.368297885e-01,2.30598e-01,9.99999e-01,9.99999e-01,9.45326e-01,2.43934e-01,9.99998e-01
8.410139374e-01,2.42585e-01,9.99999e-01,9.99999e-01,9.67138e-01,2.50828e-01,9.99999e-01
8.452190071e-01,2.53588e-01,9.99999e-01,9.99999e-01,9.83758e-01,2.57774e-01,9.99999e-01
8.494451021e-01,2.62260e-01,9.99999e-01,9.99999e-01,9.90519e-01,2.64770e-01,9.99999e-01
8.536923276e-01,2.70289e-01,9.99999e-01,9.99999e-01,9.94397e-01,2.71812e-01,9.99999e-01
8.579607893e-01,2.77932e-01,9.99999e-01,9.99999e-01,9.96539e-01,2.78897e-01,9.99999e-01
8.622505932e-01,2.85393e-01,9.99999e-01,9.99999e-01,9.97803e-01,2.86021e-01,9.99999e-01
8.665618462e-01,2.56313e-01,9.99999e-01,8.75367e-01,9.98637e-01,2.93180e-01,9.99999e-01
8.708946554e-01,1.17995e-01,9.99999e-01,3.93396e-01,9.98437e-01,3.00372e-01,9.99999e-01
8.752491287e-01,1.42172e-01,9.99999e-01,4.63113e-01,9.97911e-01,3.07594e-01,9.99999e-01
8.796253743e-01,2.04008e-01,9.99999e-01,6.49725e-01,9.97102e-01,3.14841e-01,9.99999e-01
8.840235012e-01,2.55923e-01,9.99999e-01,7.97055e-01,9.96692e-01,3.22111e-01,9.99999e-01
8.884436187e-01,2.97618e-01,9.99999e-01,9.14347e-01,9.87856e-01,3.29400e-01,9.99998e-01
8.928858368e-01,2.86219e-01,9.99999e-01,9.64242e-01,8.80862e-01,3.36705e-01,9.99997e-01
8.973502660e-01,2.73191e-01,9.99999e-01,9.91232e-01,8.00773e-01,3.44023e-01,9.99996e-01
9.018370173e-01,3.13607e-01,9.99999e-01,9.99032e-01,8.93377e-01,3.51351e-01,9.99996e-01
9.063462024e-01,3.16904e-01,9.99999e-01,9.75144e-01,9.04258e-01,3.58685e-01,9.99995e-01
9.108779334e-01,2.96094e-01,9.99999e-01,9.44150e-01,8.55322e-01,3.66024e-01,9.99995e-01
9.154323231e-01,3.08642e-01,9.99999e-01,9.86699e-01,8.37208e-01,3.73363e-01,9.99995e-01
9.200094847e-01,2.81438e-01,9.99999e-01,8.35757e-01,8.70573e-01,3.80700e-01,9.99993e-01
9.246095321e-01,2.39155e-01,9.99999e-01,7.55608e-01,8.07036e-01,3.88032e-01,9.99989e-01
9.292325798e-01,8.50534e-02,9.99999e-01,8.03977e-01,2.56263e-01,3.95356e-01,9.99978e-01
9.338787427e-01,5.94691e-02,9.99999e-01,8.09474e-01,1.75359e-01,4.02669e-01,9.99972e-01
9.385481364e-01,1.75990e-01,9.99999e-01,8.55256e-01,4.92654e-01,4.09970e-01,9.99971e-01
9.432408771e-01,1.46558e-01,9.99999e-01,9.08528e-01,3.82469e-01,4.17254e-01,9.99968e-01
9.479570815e-01,1.08524e-01,9.99999e-01,9.51865e-01,2.67129e-01,4.24521e-01,9.99972e-01
9.526968669e-01,1.53417e-01,9.99999e-01,9.76550e-01,3.62425e-01,4.31766e-01,9.99979e-01
9.574603512e-01,1.66059e-01,9.99999e-01,9.89904e-01,3.81562e-01,4.38989e-01,9.99984e-01
9.622476530e-01,2.01330e-01,9.99999e-01,9.96842e-01,4.52460e-01,4.46186e-01,9.99989e-01
9.670588912e-01,2.85648e-01,9.99999e-01,9.99054e-01,6.30602e-01,4.53355e-01,9.99993e-01
9.718941857e-01,3.43160e-01,9.99999e-01,9.99933e-01,7.45242e-01,4.60495e-01,9.99995e-01
9.767536566e-01,3.66198e-01,9.99999e-01,9.99999e-01,7.83140e-01,4.67603e-01,9.99996e-01
9.816374249e-01,3.95907e-01,9.99999e-01,9.99999e-01,8.34058e-01,4.74677e-01,9.99997e-01
9.865456120e-01,4.29993e-01,9.99999e-01,9.99999e-01,8.92629e-01,4.81715e-01,9.99998e-01
9.914783401e-01,4.55518e-01,9.99999e-01,9.99999e-01,9.32073e-01,4.88715e-01,9.99999e-01
9.964357318e-01,4.77049e-01,9.99999e-01,9.99999e-01,9.62421e-01,4.95675e-01,9.99999e-01
1.001417910e+00,4.91188e-01,9.99999e-01,9.99999e-01,9.77304e-01,5.02595e-01,9.99999e-01
1.006425000e+00,5.02837e-01,9.99999e-01,9.99999e-01,9.86978e-01,5.09471e-01,9.99999e-01
1.011457125e+00,5.12129e-01,9.99999e-01,9.99999e-01,9.91914e-01,5.16303e-01,9.99999e-01
1.016514411e+00,5.20211e-01,9.99999e-01,9.99999e-01,9.94498e-01,5.23089e-01,9.99999e-01
1.021596983e+00,5.27425e-01,9.99999e-01,9.99851e-01,9.95611e-01,5.29827e-01,9.99999e-01
1.026704968e+00,5.29398e-01,9.99999e-01,9.90110e-01,9.96574e-01,5.36517e-01,9.99999e-01
1.031838492e+00,4.94485e-01,9.99999e-01,9.12542e-01,9.97513e-01,5.43156e-01,9.99999e-01
1.036997685e+00,3.34722e-02,9.99999e-01,6.09551e-02,9.98520e-01,5.49744e-01,9.99999e-01
1.042182673e+00,4.17408e-03,9.99999e-01,7.51404e-03,9.98230e-01,5.56280e-01,9.99999e-01
1.047393587e+00,9.36304e-03,9.99999e-01,1.66705e-02,9.97657e-01,5.62761e-01,9.99999e-01
1.052630555e+00,3.78270e-06,9.99999e-01,6.65954e-06,9.96783e-01,5.69188e-01,9.99999e-01
1.057893707e+00,1.42534e-05,9.99999e-01,2.48367e-05,9.94630e-01,5.75559e-01,9.99999e-01
1.063183176e+00,2.17777e-04,9.99999e-01,3.76253e-04,9.91185e-01,5.81874e-01,9.99999e-01
1.068499092e+00,1.66603e-03,9.99999e-01,2.86221e-03,9.85300e-01,5.88131e-01,9.99999e-01
1.073841587e+00,1.37954e-02,9.99999e-01,2.35137e-02,9.82804e-01,5.94330e-01,9.99999e-01
1.079210795e+00,5.56152e-02,9.99999e-01,9.42997e-02,9.78060e-01,6.00470e-01,9.99998e-01
1.084606849e+00,1.55588e-01,9.99999e-01,2.64355e-01,9.66949e-01,6.06550e-01,9.99998e-01
1.090029883e+00,2.91859e-01,9.99999e-01,4.98461e-01,9.52722e-01,6.12570e-01,9.99997e-01
1.095480033e+00,3.85841e-01,9.99999e-01,7.09087e-01,8.76600e-01,6.18528e-01,9.99996e-01
1.100957433e+00,3.80965e-01,9.99999e-01,8.46742e-01,7.17375e-01,6.24426e-01,9.99993e-01
1.106462220e+00,2.60101e-01,9.99999e-01,9.33508e-01,4.39573e-01,6.30261e-01,9.99987e-01
1.111994531e+00,1.15098e-01,9.99999e-01,9.74794e-01,1.84912e-01,6.36034e-01,9.99974e-01
1.117554504e+00,4.46787e-02,9.99999e-01,9.93811e-01,6.98995e-02,6.41745e-01,9.99964e-01
1.123142276e+00,1.02596e-01,9.99999e-01,9.99594e-01,1.58495e-01,6.47392e-01,9.99957e-01
1.128757988e+00,1.85035e-01,9.99999e-01,9.99999e-01,2.83385e-01,6.52976e-01,9.99954e-01
1.134401778e+00,8.54245e-02,9.99999e-01,9.99999e-01,1.29733e-01,6.58496e-01,9.99948e-01
1.140073787e+00,3.04162e-01,9.99999e-01,9.99999e-01,4.58126e-01,6.63953e-01,9.99958e-01
1.145774156e+00,1.42522e-01,9.99999e-01,9.99999e-01,2.12934e-01,6.69346e-01,9.99964e-01
1.151503026e+00,1.22227e-01,9.99999e-01,9.99999e-01,1.81169e-01,6.74675e-01,9.99969e-01
1.157260541e+00,1.50803e-01,9.99999e-01,9.99999e-01,2.21794e-01,6.79940e-01,9.99976e-01
1.163046844e+00,2.23397e-01,9.99999e-01,9.99999e-01,3.26064e-01,6.85140e-01,9.99985e-01
1.168862078e+00,3.11432e-01,9.99999e-01,9.99999e-01,4.51173e-01,6.90277e-01,9.99992e-01
1.174706389e+00,4.24977e-01,9.99999e-01,9.99999e-01,6.11172e-01,6.95349e-01,9.99995e-01
1.180579921e+00,5.18320e-01,9.99999e-01,9.99999e-01,7.40080e-01,7.00357e-01,9.99997e-01
1.186482820e+00,5.94400e-01,9.99999e-01,9.99977e-01,8.42775e-01,7.05302e-01,9.99997e-01
1.192415234e+00,6.21253e-01,9.99999e-01,9.65907e-01,9.04763e-01,7.10183e-01,9.99997e-01
1.198377311e+00,3.50457e-01,9.99999e-01,5.25832e-01,9.19040e-01,7.15000e-01,9.99998e-01
1.204369197e+00,1.04481e-25,9.99999e-01,1.52022e-25,9.23425e-01,7.19753e-01,9.99998e-01
1.210391043e+00,5.80531e-103,9.99999e-01,8.36090e-103,9.26564e-01,7.24444e-01,9.99998e-01
1.216442998e+00,3.79455e-89,9.99999e-01,5.41822e-89,9.37273e-01,7.29071e-01,9.99998e-01
1.222525213e+00,8.28544e-88,9.99999e-01,1.15918e-87,9.50733e-01,7.33636e-01,9.99999e-01
1.228637839e+00,8.43447e-68,9.99999e-01,1.17005e-67,9.65503e-01,7.38138e-01,9.99999e-01
