#,Wave/freq,Total,O2,CO2,H2O,Rayleigh,CIA
4.000000000e-01,6.83737e-04,9.99999e-01,9.99999e-01,9.99985e-01,6.83747e-04,9.99999e-01
4.020000000e-01,7.89724e-04,9.99999e-01,9.99999e-01,9.99990e-01,7.89731e-04,9.99999e-01
4.040100000e-01,9.09411e-04,9.99999e-01,9.99999e-01,9.99995e-01,9.09414e-04,9.99999e-01
4.060300500e-01,1.04432e-03,9.99999e-01,9.99999e-01,9.99998e-01,1.04432e-03,9.99999e-01
4.080602003e-01,1.19597e-03,9.99999e-01,9.99999e-01,9.99999e-01,1.19597e-03,9.99999e-01
4.101005013e-01,1.36597e-03,9.99999e-01,9.99999e-01,9.99999e-01,1.36597e-03,9.99999e-01
4.121510038e-01,1.55605e-03,9.99999e-01,9.99999e-01,9.99998e-01,1.55605e-03,9.99999e-01
4.142117588e-01,1.76802e-03,9.99999e-01,9.99999e-01,9.99995e-01,1.76802e-03,9.99999e-01
4.162828176e-01,2.00378e-03,9.99999e-01,9.99999e-01,9.99981e-01,2.00381e-03,9.99999e-01
4.183642317e-01,2.26541e-03,9.99999e-01,9.99999e-01,9.99989e-01,2.26544e-03,9.99999e-01
4.204560528e-01,2.55500e-03,9.99999e-01,9.99999e-01,9.99993e-01,2.55502e-03,9.99999e-01
4.225583331e-01,2.87477e-03,9.99999e-01,9.99999e-01,9.99997e-01,2.87478e-03,9.99999e-01
4.246711247e-01,3.22703e-03,9.99999e-01,9.99999e-01,9.99997e-01,3.22703e-03,9.99999e-01
4.267944804e-01,3.61418e-03,9.99999e-01,9.99999e-01,9.99996e-01,3.61419e-03,9.99999e-01
4.289284528e-01,4.03873e-03,9.99999e-01,9.99999e-01,9.99997e-01,4.03874e-03,9.99999e-01
4.310730950e-01,4.50327e-03,9.99999e-01,9.99999e-01,9.99998e-01,4.50328e-03,9.99999e-01
4.332284605e-01,5.01045e-03,9.99999e-01,9.99999e-01,9.99999e-01,5.01046e-03,9.99999e-01
4.353946028e-01,5.56302e-03,9.99999e-01,9.99999e-01,9.99999e-01,5.56302e-03,9.99999e-01
4.375715758e-01,6.16375e-03,9.99999e-01,9.99999e-01,9.99997e-01,6.16377e-03,9.99999e-01
4.397594337e-01,6.81546e-03,9.99999e-01,9.99999e-01,9.99984e-01,6.81557e-03,9.99999e-01
4.419582309e-01,7.52076e-03,9.99999e-01,9.99999e-01,9.99921e-01,7.52135e-03,9.99999e-01
4.441680220e-01,8.28357e-03,9.99999e-01,9.99999e-01,9.99937e-01,8.28408e-03,9.99999e-01
4.463888621e-01,9.10618e-03,9.99999e-01,9.99999e-01,9.99935e-01,9.10676e-03,9.99999e-01
4.486208064e-01,9.99204e-03,9.99999e-01,9.99999e-01,9.99959e-01,9.99244e-03,9.99999e-01
4.508639105e-01,1.09440e-02,9.99999e-01,9.99999e-01,9.99980e-01,1.09442e-02,9.99999e-01
4.531182300e-01,1.19649e-02,9.99999e-01,9.99999e-01,9.99992e-01,1.19650e-02,9.99999e-01
4.553838212e-01,1.30580e-02,9.99999e-01,9.99999e-01,9.99994e-01,1.30581e-02,9.99999e-01
4.576607403e-01,1.42264e-02,9.99999e-01,9.99999e-01,9.99997e-01,1.42264e-02,9.99999e-01
4.599490440e-01,1.54731e-02,9.99999e-01,9.99999e-01,9.99997e-01,1.54731e-02,9.99999e-01
4.622487892e-01,1.68011e-02,9.99999e-01,9.99999e-01,9.99999e-01,1.68011e-02,9.99999e-01
4.645600332e-01,1.82134e-02,9.99999e-01,9.99999e-01,9.99998e-01,1.82134e-02,9.99999e-01
4.668828333e-01,1.97126e-02,9.99999e-01,9.99999e-01,9.99980e-01,1.97130e-02,9.99999e-01
4.692172475e-01,2.13019e-02,9.99999e-01,9.99999e-01,9.99959e-01,2.13028e-02,9.99999e-01
4.715633337e-01,2.29849e-02,9.99999e-01,9.99999e-01,9.99973e-01,2.29855e-02,9.99999e-01
4.739211504e-01,2.47633e-02,9.99999e-01,9.99999e-01,9.99974e-01,2.47639e-02,9.99999e-01
4.762907561e-01,2.66403e-02,9.99999e-01,9.99999e-01,9.99986e-01,2.66406e-02,9.99999e-01
4.786722099e-01,2.86182e-02,9.99999e-01,9.99999e-01,9.99994e-01,2.86183e-02,9.99999e-01
4.810655710e-01,3.06993e-02,9.99999e-01,9.99999e-01,9.99997e-01,3.06993e-02,9.99999e-01
4.834708988e-01,3.28856e-02,9.99999e-01,9.99999e-01,9.99984e-01,3.28861e-02,9.99999e-01
4.858882533e-01,3.51797e-02,9.99999e-01,9.99999e-01,9.99971e-01,3.51807e-02,9.99999e-01
4.883176946e-01,3.75845e-02,9.99999e-01,9.99999e-01,9.99975e-01,3.75854e-02,9.99999e-01
4.907592831e-01,4.01011e-02,9.99999e-01,9.99999e-01,9.99977e-01,4.01020e-02,9.99999e-01
4.932130795e-01,4.27317e-02,9.99999e-01,9.99999e-01,9.99984e-01,4.27323e-02,9.99999e-01
4.956791449e-01,4.54778e-02,9.99999e-01,9.99999e-01,9.99991e-01,4.54781e-02,9.99999e-01
4.981575406e-01,4.83389e-02,9.99999e-01,9.99999e-01,9.99959e-01,4.83409e-02,9.99999e-01
5.006483283e-01,5.13165e-02,9.99999e-01,9.99999e-01,9.99895e-01,5.13219e-02,9.99999e-01
5.031515699e-01,5.43935e-02,9.99999e-01,9.99999e-01,9.99469e-01,5.44223e-02,9.99999e-01
5.056673278e-01,5.76271e-02,9.99999e-01,9.99999e-01,9.99719e-01,5.76433e-02,9.99999e-01
5.081956644e-01,6.09640e-02,9.99999e-01,9.99999e-01,9.99646e-01,6.09855e-02,9.99999e-01
5.107366428e-01,6.44344e-02,9.99999e-01,9.99999e-01,9.99760e-01,6.44498e-02,9.99999e-01
5.132903260e-01,6.80273e-02,9.99999e-01,9.99999e-01,9.99862e-01,6.80366e-02,9.99999e-01
5.158567776e-01,7.17420e-02,9.99999e-01,9.99999e-01,9.99941e-01,7.17462e-02,9.99999e-01
5.184360615e-01,7.55770e-02,9.99999e-01,9.99999e-01,9.99976e-01,7.55787e-02,9.99999e-01
5.210282418e-01,7.95335e-02,9.99999e-01,9.99999e-01,9.99990e-01,7.95342e-02,9.99999e-01
5.236333830e-01,8.36095e-02,9.99999e-01,9.99999e-01,9.99964e-01,8.36124e-02,9.99999e-01
5.262515499e-01,8.78110e-02,9.99999e-01,9.99999e-01,9.99977e-01,8.78129e-02,9.99999e-01
5.288828077e-01,9.21334e-02,9.99999e-01,9.99999e-01,9.99979e-01,9.21352e-02,9.99999e-01
5.315272217e-01,9.65769e-02,9.99999e-01,9.99999e-01,9.99982e-01,9.65786e-02,9.99999e-01
5.341848578e-01,1.01141e-01,9.99999e-01,9.99999e-01,9.99988e-01,1.01142e-01,9.99999e-01
5.368557821e-01,1.05820e-01,9.99999e-01,9.99999e-01,9.99959e-01,1.05825e-01,9.99999e-01
5.395400610e-01,1.10609e-01,9.99999e-01,9.99999e-01,9.99855e-01,1.10625e-01,9.99999e-01
5.422377613e-01,1.15520e-01,9.99999e-01,9.99999e-01,9.99811e-01,1.15542e-01,9.99999e-01
5.449489501e-01,1.20553e-01,9.99999e-01,9.99999e-01,9.99825e-01,1.20574e-01,9.99999e-01
5.476736949e-01,1.25700e-01,9.99999e-01,9.99999e-01,9.99844e-01,1.25719e-01,9.99999e-01
5.504120634e-01,1.30961e-01,9.99999e-01,9.99999e-01,9.99887e-01,1.30975e-01,9.99999e-01
5.531641237e-01,1.36334e-01,9.99999e-01,9.99999e-01,9.99942e-01,1.36341e-01,9.99999e-01
5.559299443e-01,1.41811e-01,9.99999e-01,9.99999e-01,9.99972e-01,1.41815e-01,9.99999e-01
5.587095940e-01,1.47390e-01,9.99999e-01,9.99999e-01,9.99982e-01,1.47393e-01,9.99999e-01
5.615031420e-01,1.53071e-01,9.99999e-01,9.99999e-01,9.99980e-01,1.53074e-01,9.99999e-01
5.643106577e-01,1.58852e-01,9.99999e-01,9.99999e-01,9.99978e-01,1.58855e-01,9.99999e-01
5.671322110e-01,1.64691e-01,9.99999e-01,9.99999e-01,9.99739e-01,1.64734e-01,9.99999e-01
5.699678720e-01,1.70660e-01,9.99999e-01,9.99999e-01,9.99719e-01,1.70708e-01,9.99999e-01
5.728177114e-01,1.76723e-01,9.99999e-01,9.99999e-01,9.99709e-01,1.76774e-01,9.99999e-01
5.756818000e-01,1.82881e-01,9.99999e-01,9.99999e-01,9.99732e-01,1.82930e-01,9.99999e-01
5.785602090e-01,1.89128e-01,9.99999e-01,9.99999e-01,9.99766e-01,1.89172e-01,9.99999e-01
5.814530100e-01,1.95451e-01,9.99999e-01,9.99999e-01,9.99766e-01,1.95497e-01,9.99999e-01
5.843602750e-01,2.01847e-01,9.99999e-01,9.99999e-01,9.99722e-01,2.01902e-01,9.99999e-01
5.872820764e-01,2.07887e-01,9.99999e-01,9.99999e-01,9.97610e-01,2.08385e-01,9.99999e-01
5.902184868e-01,2.14317e-01,9.99999e-01,9.99999e-01,9.97091e-01,2.14942e-01,9.99999e-01
5.931695792e-01,2.21114e-01,9.99999e-01,9.99999e-01,9.97947e-01,2.21569e-01,9.99999e-01
5.961354271e-01,2.27750e-01,9.99999e-01,9.99999e-01,9.97747e-01,2.28264e-01,9.99999e-01
5.991161043e-01,2.34636e-01,9.99999e-01,9.99999e-01,9.98356e-01,2.35022e-01,9.99999e-01
6.021116848e-01,2.41616e-01,9.99999e-01,9.99999e-01,9.99066e-01,2.41842e-01,9.99999e-01
6.051222432e-01,2.48601e-01,9.99999e-01,9.99999e-01,9.99527e-01,2.48719e-01,9.99999e-01
6.081478544e-01,2.55597e-01,9.99999e-01,9.99999e-01,9.99795e-01,2.55649e-01,9.99999e-01
6.111885937e-01,2.62608e-01,9.99999e-01,9.99999e-01,9.99913e-01,2.62630e-01,9.99999e-01
6.142445367e-01,2.69648e-01,9.99999e-01,9.99999e-01,9.99961e-01,2.69659e-01,9.99999e-01
6.173157594e-01,2.76725e-01,9.99999e-01,9.99999e-01,9.99978e-01,2.76731e-01,9.99999e-01
6.204023382e-01,2.83838e-01,9.99999e-01,9.99999e-01,9.99981e-01,2.83843e-01,9.99999e-01
6.235043498e-01,2.90969e-01,9.99999e-01,9.99999e-01,9.99921e-01,2.90992e-01,9.99999e-01
6.266218716e-01,2.98050e-01,9.99999e-01,9.99999e-01,9.99581e-01,2.98175e-01,9.99999e-01
6.297549810e-01,3.05341e-01,9.99999e-01,9.99999e-01,9.99846e-01,3.05387e-01,9.99999e-01
6.329037559e-01,3.12532e-01,9.99999e-01,9.99999e-01,9.99696e-01,3.12627e-01,9.99999e-01
6.360682746e-01,3.19808e-01,9.99999e-01,9.99999e-01,9.99741e-01,3.19890e-01,9.99999e-01
6.392486160e-01,3.27064e-01,9.99999e-01,9.99999e-01,9.99665e-01,3.27174e-01,9.99999e-01
6.424448591e-01,3.34325e-01,9.99999e-01,9.99999e-01,9.99554e-01,3.34474e-01,9.99999e-01
6.456570834e-01,3.41082e-01,9.99999e-01,9.99999e-01,9.97930e-01,3.41789e-01,9.99999e-01
6.488853688e-01,3.48582e-01,9.99999e-01,9.99999e-01,9.98475e-01,3.49114e-01,9.99999e-01
6.521297956e-01,3.55893e-01,9.99999e-01,9.99999e-01,9.98445e-01,3.56447e-01,9.99999e-01
6.553904446e-01,3.63226e-01,9.99999e-01,9.99999e-01,9.98464e-01,3.63784e-01,9.99999e-01
6.586673968e-01,3.70632e-01,9.99999e-01,9.99999e-01,9.98675e-01,3.71123e-01,9.99999e-01
6.619607338e-01,3.78172e-01,9.99999e-01,9.99999e-01,9.99234e-01,3.78461e-01,9.99999e-01
6.652705375e-01,3.85624e-01,9.99999e-01,9.99999e-01,9.99555e-01,3.85795e-01,9.99999e-01
6.685968902e-01,3.93041e-01,9.99999e-01,9.99999e-01,9.99793e-01,3.93122e-01,9.99999e-01
6.719398746e-01,4.00401e-01,9.99999e-01,9.99999e-01,9.99903e-01,4.00439e-01,9.99999e-01
6.752995740e-01,4.07722e-01,9.99999e-01,9.99999e-01,9.99947e-01,4.07743e-01,9.99999e-01
6.786760719e-01,4.15002e-01,9.99999e-01,9.99999e-01,9.99925e-01,4.15033e-01,9.99999e-01
6.820694522e-01,4.22252e-01,9.99999e-01,9.99999e-01,9.99872e-01,4.22305e-01,9.99999e-01
6.854797995e-01,4.29487e-01,9.99999e-01,9.99999e-01,9.99835e-01,4.29558e-01,9.99999e-01
6.889071985e-01,4.36615e-01,9.99999e-01,9.99999e-01,9.99605e-01,4.36787e-01,9.99999e-01
6.923517345e-01,4.41119e-01,9.99999e-01,9.99999e-01,9.93527e-01,4.43993e-01,9.99999e-01
6.958134932e-01,4.49634e-01,9.99999e-01,9.99999e-01,9.96592e-01,4.51171e-01,9.99999e-01
6.992925606e-01,4.56853e-01,9.99999e-01,9.99999e-01,9.96798e-01,4.58320e-01,9.99999e-01
7.027890234e-01,4.63590e-01,9.99999e-01,9.99999e-01,9.96031e-01,4.65437e-01,9.99999e-01
7.063029686e-01,4.70946e-01,9.99999e-01,9.99999e-01,9.96664e-01,4.72522e-01,9.99999e-01
7.098344834e-01,4.78036e-01,9.99999e-01,9.99999e-01,9.96800e-01,4.79571e-01,9.99999e-01
7.133836558e-01,4.84522e-01,9.99999e-01,9.99999e-01,9.95763e-01,4.86583e-01,9.99999e-01
7.169505741e-01,4.76865e-01,9.99999e-01,9.99999e-01,9.66182e-01,4.93556e-01,9.99999e-01
7.205353270e-01,4.92062e-01,9.99999e-01,9.99999e-01,9.83164e-01,5.00488e-01,9.99999e-01
7.241380036e-01,4.96645e-01,9.99999e-01,9.99999e-01,9.78847e-01,5.07378e-01,9.99999e-01
7.277586936e-01,5.04392e-01,9.99999e-01,9.99999e-01,9.80882e-01,5.14223e-01,9.99999e-01
7.313974871e-01,5.10409e-01,9.99999e-01,9.99999e-01,9.79627e-01,5.21023e-01,9.99999e-01
7.350544745e-01,5.21887e-01,9.99999e-01,9.99999e-01,9.88840e-01,5.27776e-01,9.99999e-01
7.387297469e-01,5.30087e-01,9.99999e-01,9.99999e-01,9.91778e-01,5.34481e-01,9.99999e-01
7.424233956e-01,5.38953e-01,9.99999e-01,9.99999e-01,9.95966e-01,5.41136e-01,9.99999e-01
7.461355126e-01,5.46401e-01,9.99999e-01,9.99999e-01,9.97556e-01,5.47739e-01,9.99999e-01
7.498661902e-01,5.53659e-01,9.99999e-01,9.99999e-01,9.98860e-01,5.54291e-01,9.99999e-01
7.536155211e-01,5.60476e-01,9.99999e-01,9.99999e-01,9.99441e-01,5.60789e-01,9.99999e-01
7.573835987e-01,5.67070e-01,9.99999e-01,9.99999e-01,9.99712e-01,5.67233e-01,9.99999e-01
7.611705167e-01,5.73519e-01,9.99999e-01,9.99999e-01,9.99821e-01,5.73621e-01,9.99999e-01
7.649763693e-01,5.79888e-01,9.99999e-01,9.99999e-01,9.99887e-01,5.79953e-01,9.99999e-01
7.688012511e-01,5.86182e-01,9.99999e-01,9.99999e-01,9.99921e-01,5.86228e-01,9.99999e-01
7.726452574e-01,5.92407e-01,9.99999e-01,9.99999e-01,9.99935e-01,5.92445e-01,9.99999e-01
7.765084837e-01,5.98548e-01,9.99999e-01,9.99999e-01,9.99909e-01,5.98603e-01,9.99999e-01
7.803910261e-01,5.89997e-01,9.99999e-01,9.76055e-01,9.99608e-01,6.04701e-01,9.99999e-01
7.842929812e-01,5.47704e-01,9.99999e-01,8.97970e-01,9.98634e-01,6.10739e-01,9.99999e-01
7.882144461e-01,5.48170e-01,9.99999e-01,8.91296e-01,9.97175e-01,6.16717e-01,9.99999e-01
7.921555184e-01,5.81689e-01,9.99999e-01,9.35670e-01,9.98446e-01,6.22633e-01,9.99999e-01
7.961162960e-01,5.99434e-01,9.99999e-01,9.56364e-01,9.97271e-01,6.28487e-01,9.99999e-01
8.000968774e-01,6.17192e-01,9.99999e-01,9.76138e-01,9.96839e-01,6.34279e-01,9.99999e-01
8.040973618e-01,6.30045e-01,9.99999e-01,9.87545e-01,9.96840e-01,6.40009e-01,9.99999e-01
8.081178486e-01,6.37435e-01,9.99999e-01,9.94278e-01,9.92910e-01,6.45675e-01,9.99999e-01
8.121584379e-01,6.31065e-01,9.99999e-01,9.98221e-01,9.70677e-01,6.51279e-01,9.99999e-01
8.162192301e-01,6.33635e-01,9.99999e-01,9.99606e-01,9.65076e-01,6.56819e-01,9.99999e-01
8.203003262e-01,6.50737e-01,9.99999e-01,9.99993e-01,9.82553e-01,6.62295e-01,9.99998e-01
8.244018279e-01,6.51229e-01,9.99999e-01,9.99999e-01,9.75320e-01,6.67707e-01,9.99998e-01
8.285238370e-01,6.58997e-01,9.99999e-01,9.99999e-01,9.79112e-01,6.73056e-01,9.99999e-01
8.326664562e-01,6.63981e-01,9.99999e-01,9.99999e-01,9.78831e-01,6.78340e-01,9.99999e-01
8.368297885e-01,6.73198e-01,9.99999e-01,9.99999e-01,9.84841e-01,6.83560e-01,9.99999e-01
8.410139374e-01,6.82497e-01,9.99999e-01,9.99999e-01,9.90969e-01,6.88716e-01,9.99999e-01
8.452190071e-01,6.90729e-01,9.99999e-01,9.99999e-01,9.95561e-01,6.93808e-01,9.99999e-01
8.494451021e-01,6.97039e-01,9.99999e-01,9.99999e-01,9.97428e-01,6.98836e-01,9.99999e-01
8.536923276e-01,7.02728e-01,9.99999e-01,9.99999e-01,9.98476e-01,7.03800e-01,9.99999e-01
8.579607893e-01,7.08036e-01,9.99999e-01,9.99999e-01,9.99062e-01,7.08700e-01,9.99999e-01
8.622505932e-01,7.13111e-01,9.99999e-01,9.99999e-01,9.99403e-01,7.13536e-01,9.99999e-01
8.665618462e-01,6.76025e-01,9.99999e-01,9.41469e-01,9.99631e-01,7.18309e-01,9.99999e-01
8.708946554e-01,5.49015e-01,9.99999e-01,7.59647e-01,9.99578e-01,7.23019e-01,9.99999e-01
8.752491287e-01,5.83434e-01,9.99999e-01,8.02229e-01,9.99436e-01,7.27666e-01,9.99999e-01
8.796253743e-01,6.48690e-01,9.99999e-01,8.86561e-01,9.99221e-01,7.32249e-01,9.99999e-01
8.840235012e-01,6.91710e-01,9.99999e-01,9.39666e-01,9.99110e-01,7.36771e-01,9.99999e-01
8.884436187e-01,7.20946e-01,9.99999e-01,9.75752e-01,9.96782e-01,7.41230e-01,9.99999e-01
8.928858368e-01,7.13428e-01,9.99999e-01,9.90126e-01,9.66299e-01,7.45627e-01,9.99999e-01
8.973502660e-01,7.03879e-01,9.99999e-01,9.97585e-01,9.40790e-01,7.49963e-01,9.99998e-01
9.018370173e-01,7.30818e-01,9.99999e-01,9.99733e-01,9.69203e-01,7.54237e-01,9.99998e-01
9.063462024e-01,7.33196e-01,9.99999e-01,9.93276e-01,9.73100e-01,7.58451e-01,9.99998e-01
9.108779334e-01,7.19509e-01,9.99999e-01,9.84475e-01,9.58237e-01,7.62604e-01,9.99998e-01
9.154323231e-01,7.27761e-01,9.99999e-01,9.96317e-01,9.52671e-01,7.66697e-01,9.99998e-01
9.200094847e-01,7.03971e-01,9.99999e-01,9.47433e-01,9.62668e-01,7.70731e-01,9.99997e-01
9.246095321e-01,6.76966e-01,9.99999e-01,9.26238e-01,9.42481e-01,7.74706e-01,9.99996e-01
9.292325798e-01,4.93511e-01,9.99999e-01,9.41872e-01,6.69755e-01,7.78622e-01,9.99993e-01
9.338787427e-01,4.40778e-01,9.99999e-01,9.43563e-01,5.94185e-01,7.82480e-01,9.99992e-01
9.385481364e-01,6.12026e-01,9.99999e-01,9.58277e-01,8.10795e-01,7.86280e-01,9.99992e-01
9.432408771e-01,5.75302e-01,9.99999e-01,9.74228e-01,7.46676e-01,7.90023e-01,9.99991e-01
9.479570815e-01,5.22876e-01,9.99999e-01,9.86717e-01,6.67281e-01,7.93710e-01,9.99992e-01
9.526968669e-01,5.85457e-01,9.99999e-01,9.93567e-01,7.38696e-01,7.97340e-01,9.99994e-01
9.574603512e-01,6.06275e-01,9.99999e-01,9.97244e-01,7.58972e-01,8.00915e-01,9.99995e-01
9.622476530e-01,6.42295e-01,9.99999e-01,9.99139e-01,7.99103e-01,8.04435e-01,9.99996e-01
9.670588912e-01,7.09954e-01,9.99999e-01,9.99741e-01,8.78984e-01,8.07900e-01,9.99997e-01
9.718941857e-01,7.48673e-01,9.99999e-01,9.99981e-01,9.22810e-01,8.11312e-01,9.99998e-01
9.767536566e-01,7.62142e-01,9.99999e-01,9.99999e-01,9.35522e-01,8.14669e-01,9.99998e-01
9.816374249e-01,7.78532e-01,9.99999e-01,9.99999e-01,9.51780e-01,8.17974e-01,9.99999e-01
9.865456120e-01,7.96268e-01,9.99999e-01,9.99999e-01,9.69607e-01,8.21227e-01,9.99999e-01
9.914783401e-01,8.08863e-01,9.99999e-01,9.99999e-01,9.81119e-01,8.24428e-01,9.99999e-01
9.964357318e-01,8.19033e-01,9.99999e-01,9.99999e-01,9.89674e-01,8.27578e-01,9.99999e-01
1.001417910e+00,8.25527e-01,9.99999e-01,9.99999e-01,9.93799e-01,8.30678e-01,9.99999e-01
1.006425000e+00,8.30781e-01,9.99999e-01,9.99999e-01,9.96465e-01,8.33727e-01,9.99999e-01
1.011457125e+00,8.34888e-01,9.99999e-01,9.99999e-01,9.97801e-01,8.36727e-01,9.99999e-01
1.016514411e+00,8.38427e-01,9.99999e-01,9.99999e-01,9.98508e-01,8.39679e-01,9.99999e-01
1.021596983e+00,8.41553e-01,9.99999e-01,9.99965e-01,9.98811e-01,8.42582e-01,9.99999e-01
1.026704968e+00,8.42447e-01,9.99999e-01,9.97385e-01,9.99073e-01,8.45437e-01,9.99999e-01
1.031838492e+00,8.19494e-01,9.99999e-01,9.66739e-01,9.99325e-01,8.48246e-01,9.99999e-01
1.036997685e+00,1.79090e-01,9.99999e-01,2.10513e-01,9.99599e-01,8.51008e-01,9.99999e-01
1.042182673e+00,1.84010e-01,9.99999e-01,2.15631e-01,9.99523e-01,8.53724e-01,9.99999e-01
1.047393587e+00,1.90493e-01,9.99999e-01,2.22562e-01,9.99368e-01,8.56395e-01,9.99999e-01
1.052630555e+00,1.34848e-02,9.99999e-01,1.57082e-02,9.99133e-01,8.59021e-01,9.99999e-01
1.057893707e+00,2.91127e-02,9.99999e-01,3.38246e-02,9.98555e-01,8.61604e-01,9.99999e-01
1.063183176e+00,7.26348e-02,9.99999e-01,8.42070e-02,9.97621e-01,8.64143e-01,9.99999e-01
1.068499092e+00,1.60603e-01,9.99999e-01,1.85967e-01,9.96016e-01,8.66638e-01,9.99999e-01
1.073841587e+00,2.98894e-01,9.99999e-01,3.45333e-01,9.95342e-01,8.69092e-01,9.99999e-01
1.079210795e+00,4.42585e-01,9.99999e-01,5.10693e-01,9.94025e-01,8.71504e-01,9.99999e-01
1.084606849e+00,5.99291e-01,9.99999e-01,6.91820e-01,9.90974e-01,8.73875e-01,9.99999e-01
1.090029883e+00,7.14804e-01,9.99999e-01,8.26256e-01,9.87090e-01,8.76205e-01,9.99999e-01
1.095480033e+00,7.71993e-01,9.99999e-01,9.10233e-01,9.65168e-01,8.78495e-01,9.99998e-01
1.100957433e+00,7.69416e-01,9.99999e-01,9.55744e-01,9.13746e-01,8.80746e-01,9.99997e-01
1.106462220e+00,6.89056e-01,9.99999e-01,9.81449e-01,7.94766e-01,8.82958e-01,9.99996e-01
1.111994531e+00,5.41196e-01,9.99999e-01,9.93085e-01,6.15468e-01,8.85132e-01,9.99992e-01
1.117554504e+00,4.03178e-01,9.99999e-01,9.98303e-01,4.55072e-01,8.87267e-01,9.99990e-01
1.123142276e+00,4.96114e-01,9.99999e-01,9.99887e-01,5.57871e-01,8.89366e-01,9.99988e-01
1.128757988e+00,6.15112e-01,9.99999e-01,9.99999e-01,6.90038e-01,8.91428e-01,9.99987e-01
1.134401778e+00,3.85479e-01,9.99999e-01,9.99999e-01,4.31453e-01,8.93454e-01,9.99985e-01
1.140073787e+00,7.18458e-01,9.99999e-01,9.99999e-01,8.02356e-01,8.95445e-01,9.99988e-01
1.145774156e+00,5.65403e-01,9.99999e-01,9.99999e-01,6.30050e-01,8.97400e-01,9.99990e-01
1.151503026e+00,5.37075e-01,9.99999e-01,9.99999e-01,5.97204e-01,8.99321e-01,9.99991e-01
1.157260541e+00,5.87695e-01,9.99999e-01,9.99999e-01,6.52123e-01,9.01208e-01,9.99993e-01
1.163046844e+00,6.58364e-01,9.99999e-01,9.99999e-01,7.29038e-01,9.03061e-01,9.99995e-01
1.168862078e+00,7.26893e-01,9.99999e-01,9.99999e-01,8.03302e-01,9.04882e-01,9.99997e-01
1.174706389e+00,7.92078e-01,9.99999e-01,9.99999e-01,8.73612e-01,9.06670e-01,9.99998e-01
1.180579921e+00,8.36691e-01,9.99999e-01,9.99999e-01,9.21033e-01,9.08427e-01,9.99998e-01
1.186482820e+00,8.68865e-01,9.99999e-01,9.99995e-01,9.54641e-01,9.10152e-01,9.99998e-01
1.192415234e+00,8.79289e-01,9.99999e-01,9.90673e-01,9.73300e-01,9.11846e-01,9.99999e-01
1.198377311e+00,5.12551e-01,9.99999e-01,5.71893e-01,9.77471e-01,9.13509e-01,9.99999e-01
1.204369197e+00,1.42075e-08,9.99999e-01,1.57194e-08,9.78651e-01,9.15143e-01,9.99999e-01
1.210391043e+00,2.10859e-29,9.99999e-01,2.32654e-29,9.79577e-01,9.16747e-01,9.99999e-01
1.216442998e+00,1.11913e-25,9.99999e-01,1.23196e-25,9.82581e-01,9.18323e-01,9.99999e-01
1.222525213e+00,2.58866e-25,9.99999e-01,2.83404e-25,9.86424e-01,9.19870e-01,9.99999e-01
1.228637839e+00,1.43885e-19,9.99999e-01,1.57204e-19,9.90559e-01,9.21388e-01,9.99999e-01
