#,Wave/freq,Total,O2,CO2,H2O,Rayleigh,CIA
4.000000000e-01,4.77579e-07,9.99999e-01,9.99999e-01,9.99971e-01,4.77593e-07,9.99999e-01
4.020000000e-01,6.36840e-07,9.99999e-01,9.99999e-01,9.99981e-01,6.36851e-07,9.99999e-01
4.040100000e-01,8.44151e-07,9.99999e-01,9.99999e-01,9.99992e-01,8.44157e-07,9.99999e-01
4.060300500e-01,1.11273e-06,9.99999e-01,9.99999e-01,9.99997e-01,1.11273e-06,9.99999e-01
4.080602003e-01,1.45878e-06,9.99999e-01,9.99999e-01,9.99998e-01,1.45878e-06,9.99999e-01
4.101005013e-01,1.90224e-06,9.99999e-01,9.99999e-01,9.99999e-01,1.90224e-06,9.99999e-01
4.121510038e-01,2.46754e-06,9.99999e-01,9.99999e-01,9.99998e-01,2.46754e-06,9.99999e-01
4.142117588e-01,3.18440e-06,9.99999e-01,9.99999e-01,9.99991e-01,3.18443e-06,9.99999e-01
4.162828176e-01,4.08879e-06,9.99999e-01,9.99999e-01,9.99964e-01,4.08893e-06,9.99999e-01
4.183642317e-01,5.22438e-06,9.99999e-01,9.99999e-01,9.99978e-01,5.22449e-06,9.99999e-01
4.204560528e-01,6.64309e-06,9.99999e-01,9.99999e-01,9.99986e-01,6.64317e-06,9.99999e-01
4.225583331e-01,8.40706e-06,9.99999e-01,9.99999e-01,9.99994e-01,8.40710e-06,9.99999e-01
4.246711247e-01,1.05900e-05,9.99999e-01,9.99999e-01,9.99995e-01,1.05900e-05,9.99999e-01
4.267944804e-01,1.32790e-05,9.99999e-01,9.99999e-01,9.99993e-01,1.32791e-05,9.99999e-01
4.289284528e-01,1.65766e-05,9.99999e-01,9.99999e-01,9.99995e-01,1.65767e-05,9.99999e-01
4.310730950e-01,2.06027e-05,9.99999e-01,9.99999e-01,9.99997e-01,2.06027e-05,9.99999e-01
4.332284605e-01,2.54968e-05,9.99999e-01,9.99999e-01,9.99999e-01,2.54968e-05,9.99999e-01
4.353946028e-01,3.14209e-05,9.99999e-01,9.99999e-01,9.99999e-01,3.14209e-05,9.99999e-01
4.375715758e-01,3.85619e-05,9.99999e-01,9.99999e-01,9.99995e-01,3.85620e-05,9.99999e-01
4.397594337e-01,4.71336e-05,9.99999e-01,9.99999e-01,9.99968e-01,4.71351e-05,9.99999e-01
4.419582309e-01,5.73769e-05,9.99999e-01,9.99999e-01,9.99840e-01,5.73861e-05,9.99999e-01
4.441680220e-01,6.95869e-05,9.99999e-01,9.99999e-01,9.99877e-01,6.95954e-05,9.99999e-01
4.463888621e-01,8.40707e-05,9.99999e-01,9.99999e-01,9.99871e-01,8.40814e-05,9.99999e-01
4.486208064e-01,1.01196e-04,9.99999e-01,9.99999e-01,9.99920e-01,1.01204e-04,9.99999e-01
4.508639105e-01,1.21364e-04,9.99999e-01,9.99999e-01,9.99962e-01,1.21368e-04,9.99999e-01
4.531182300e-01,1.45026e-04,9.99999e-01,9.99999e-01,9.99984e-01,1.45028e-04,9.99999e-01
4.553838212e-01,1.72691e-04,9.99999e-01,9.99999e-01,9.99989e-01,1.72693e-04,9.99999e-01
4.576607403e-01,2.04925e-04,9.99999e-01,9.99999e-01,9.99994e-01,2.04926e-04,9.99999e-01
4.599490440e-01,2.42354e-04,9.99999e-01,9.99999e-01,9.99996e-01,2.42355e-04,9.99999e-01
4.622487892e-01,2.85672e-04,9.99999e-01,9.99999e-01,9.99998e-01,2.85672e-04,9.99999e-01
4.645600332e-01,3.35639e-04,9.99999e-01,9.99999e-01,9.99997e-01,3.35640e-04,9.99999e-01
4.668828333e-01,3.93079e-04,9.99999e-01,9.99999e-01,9.99961e-01,3.93094e-04,9.99999e-01
4.692172475e-01,4.58911e-04,9.99999e-01,9.99999e-01,9.99919e-01,4.58948e-04,9.99999e-01
4.715633337e-01,5.34169e-04,9.99999e-01,9.99999e-01,9.99947e-01,5.34197e-04,9.99999e-01
4.739211504e-01,6.19892e-04,9.99999e-01,9.99999e-01,9.99949e-01,6.19923e-04,9.99999e-01
4.762907561e-01,7.17275e-04,9.99999e-01,9.99999e-01,9.99973e-01,7.17294e-04,9.99999e-01
4.786722099e-01,8.27561e-04,9.99999e-01,9.99999e-01,9.99988e-01,8.27570e-04,9.99999e-01
4.810655710e-01,9.52104e-04,9.99999e-01,9.99999e-01,9.99996e-01,9.52107e-04,9.99999e-01
4.834708988e-01,1.09232e-03,9.99999e-01,9.99999e-01,9.99968e-01,1.09236e-03,9.99999e-01
4.858882533e-01,1.24980e-03,9.99999e-01,9.99999e-01,9.99942e-01,1.24987e-03,9.99999e-01
4.883176946e-01,1.42622e-03,9.99999e-01,9.99999e-01,9.99951e-01,1.42629e-03,9.99999e-01
4.907592831e-01,1.62331e-03,9.99999e-01,9.99999e-01,9.99956e-01,1.62338e-03,9.99999e-01
4.932130795e-01,1.84292e-03,9.99999e-01,9.99999e-01,9.99969e-01,1.84298e-03,9.99999e-01
4.956791449e-01,2.08702e-03,9.99999e-01,9.99999e-01,9.99983e-01,2.08705e-03,9.99999e-01
4.981575406e-01,2.35746e-03,9.99999e-01,9.99999e-01,9.99918e-01,2.35765e-03,9.99999e-01
5.006483283e-01,2.65636e-03,9.99999e-01,9.99999e-01,9.99788e-01,2.65692e-03,9.99999e-01
5.031515699e-01,2.98396e-03,9.99999e-01,9.99999e-01,9.98938e-01,2.98713e-03,9.99999e-01
5.056673278e-01,3.34874e-03,9.99999e-01,9.99999e-01,9.99441e-01,3.35061e-03,9.99999e-01
5.081956644e-01,3.74717e-03,9.99999e-01,9.99999e-01,9.99295e-01,3.74981e-03,9.99999e-01
5.107366428e-01,4.18525e-03,9.99999e-01,9.99999e-01,9.99524e-01,4.18724e-03,9.99999e-01
5.132903260e-01,4.66427e-03,9.99999e-01,9.99999e-01,9.99728e-01,4.66553e-03,9.99999e-01
5.158567776e-01,5.18676e-03,9.99999e-01,9.99999e-01,9.99885e-01,5.18736e-03,9.99999e-01
5.184360615e-01,5.75522e-03,9.99999e-01,9.99999e-01,9.99953e-01,5.75548e-03,9.99999e-01
5.210282418e-01,6.37262e-03,9.99999e-01,9.99999e-01,9.99982e-01,6.37273e-03,9.99999e-01
5.236333830e-01,7.04150e-03,9.99999e-01,9.99999e-01,9.99930e-01,7.04199e-03,9.99999e-01
5.262515499e-01,7.76587e-03,9.99999e-01,9.99999e-01,9.99956e-01,7.76620e-03,9.99999e-01
5.288828077e-01,8.54801e-03,9.99999e-01,9.99999e-01,9.99959e-01,8.54835e-03,9.99999e-01
5.315272217e-01,9.39113e-03,9.99999e-01,9.99999e-01,9.99964e-01,9.39145e-03,9.99999e-01
5.341848578e-01,1.02983e-02,9.99999e-01,9.99999e-01,9.99976e-01,1.02986e-02,9.99999e-01
5.368557821e-01,1.12718e-02,9.99999e-01,9.99999e-01,9.99918e-01,1.12727e-02,9.99999e-01
5.395400610e-01,1.23134e-02,9.99999e-01,9.99999e-01,9.99706e-01,1.23170e-02,9.99999e-01
5.422377613e-01,1.34295e-02,9.99999e-01,9.99999e-01,9.99625e-01,1.34346e-02,9.99999e-01
5.449489501e-01,1.46232e-02,9.99999e-01,9.99999e-01,9.99649e-01,1.46284e-02,9.99999e-01
5.476736949e-01,1.58966e-02,9.99999e-01,9.99999e-01,9.99691e-01,1.59015e-02,9.99999e-01
5.504120634e-01,1.72531e-02,9.99999e-01,9.99999e-01,9.99776e-01,1.72569e-02,9.99999e-01
5.531641237e-01,1.86956e-02,9.99999e-01,9.99999e-01,9.99887e-01,1.86977e-02,9.99999e-01
5.559299443e-01,2.02256e-02,9.99999e-01,9.99999e-01,9.99945e-01,2.02267e-02,9.99999e-01
5.587095940e-01,2.18460e-02,9.99999e-01,9.99999e-01,9.99965e-01,2.18467e-02,9.99999e-01
5.615031420e-01,2.35598e-02,9.99999e-01,9.99999e-01,9.99961e-01,2.35607e-02,9.99999e-01
5.643106577e-01,2.53701e-02,9.99999e-01,9.99999e-01,9.99955e-01,2.53712e-02,9.99999e-01
5.671322110e-01,2.72664e-02,9.99999e-01,9.99999e-01,9.99467e-01,2.72809e-02,9.99999e-01
5.699678720e-01,2.92762e-02,9.99999e-01,9.99999e-01,9.99446e-01,2.92924e-02,9.99999e-01
5.728177114e-01,3.13898e-02,9.99999e-01,9.99999e-01,9.99418e-01,3.14080e-02,9.99999e-01
5.756818000e-01,3.36122e-02,9.99999e-01,9.99999e-01,9.99467e-01,3.36301e-02,9.99999e-01
5.785602090e-01,3.59441e-02,9.99999e-01,9.99999e-01,9.99536e-01,3.59607e-02,9.99999e-01
5.814530100e-01,3.83841e-02,9.99999e-01,9.99999e-01,9.99533e-01,3.84020e-02,9.99999e-01
5.843602750e-01,4.09330e-02,9.99999e-01,9.99999e-01,9.99440e-01,4.09559e-02,9.99999e-01
5.872820764e-01,4.34142e-02,9.99999e-01,9.99999e-01,9.95187e-01,4.36241e-02,9.99999e-01
5.902184868e-01,4.61399e-02,9.99999e-01,9.99999e-01,9.94216e-01,4.64083e-02,9.99999e-01
5.931695792e-01,4.91078e-02,9.99999e-01,9.99999e-01,9.95901e-01,4.93099e-02,9.99999e-01
5.961354271e-01,5.20955e-02,9.99999e-01,9.99999e-01,9.95516e-01,5.23301e-02,9.99999e-01
5.991161043e-01,5.52889e-02,9.99999e-01,9.99999e-01,9.96731e-01,5.54701e-02,9.99999e-01
6.021116848e-01,5.86221e-02,9.99999e-01,9.99999e-01,9.98146e-01,5.87310e-02,9.99999e-01
6.051222432e-01,6.20552e-02,9.99999e-01,9.99999e-01,9.99061e-01,6.21134e-02,9.99999e-01
6.081478544e-01,6.55914e-02,9.99999e-01,9.99999e-01,9.99594e-01,6.56180e-02,9.99999e-01
6.111885937e-01,6.92333e-02,9.99999e-01,9.99999e-01,9.99828e-01,6.92452e-02,9.99999e-01
6.142445367e-01,7.29897e-02,9.99999e-01,9.99999e-01,9.99923e-01,7.29953e-02,9.99999e-01
6.173157594e-01,7.68651e-02,9.99999e-01,9.99999e-01,9.99957e-01,7.68683e-02,9.99999e-01
6.204023382e-01,8.08614e-02,9.99999e-01,9.99999e-01,9.99963e-01,8.08643e-02,9.99999e-01
6.235043498e-01,8.49692e-02,9.99999e-01,9.99999e-01,9.99839e-01,8.49828e-02,9.99999e-01
6.266218716e-01,8.91490e-02,9.99999e-01,9.99999e-01,9.99164e-01,8.92235e-02,9.99999e-01
6.297549810e-01,9.35572e-02,9.99999e-01,9.99999e-01,9.99693e-01,9.35858e-02,9.99999e-01
6.329037559e-01,9.80097e-02,9.99999e-01,9.99999e-01,9.99395e-01,9.80689e-02,9.99999e-01
6.360682746e-01,1.02619e-01,9.99999e-01,9.99999e-01,9.99483e-01,1.02672e-01,9.99999e-01
6.392486160e-01,1.07322e-01,9.99999e-01,9.99999e-01,9.99331e-01,1.07393e-01,9.99999e-01
6.424448591e-01,1.12131e-01,9.99999e-01,9.99999e-01,9.99099e-01,1.12232e-01,9.99999e-01
6.456570834e-01,1.16698e-01,9.99999e-01,9.99999e-01,9.95825e-01,1.17187e-01,9.99999e-01
6.488853688e-01,1.21886e-01,9.99999e-01,9.99999e-01,9.96971e-01,1.22257e-01,9.99999e-01
6.521297956e-01,1.27045e-01,9.99999e-01,9.99999e-01,9.96913e-01,1.27439e-01,9.99999e-01
6.553904446e-01,1.32322e-01,9.99999e-01,9.99999e-01,9.96915e-01,1.32731e-01,9.99999e-01
6.586673968e-01,1.37769e-01,9.99999e-01,9.99999e-01,9.97367e-01,1.38133e-01,9.99999e-01
6.619607338e-01,1.43430e-01,9.99999e-01,9.99999e-01,9.98532e-01,1.43641e-01,9.99999e-01
6.652705375e-01,1.49122e-01,9.99999e-01,9.99999e-01,9.99119e-01,1.49253e-01,9.99999e-01
6.685968902e-01,1.54910e-01,9.99999e-01,9.99999e-01,9.99625e-01,1.54968e-01,9.99999e-01
6.719398746e-01,1.60751e-01,9.99999e-01,9.99999e-01,9.99810e-01,1.60781e-01,9.99999e-01
6.752995740e-01,1.66675e-01,9.99999e-01,9.99999e-01,9.99899e-01,1.66692e-01,9.99999e-01
6.786760719e-01,1.72671e-01,9.99999e-01,9.99999e-01,9.99849e-01,1.72697e-01,9.99999e-01
6.820694522e-01,1.78747e-01,9.99999e-01,9.99999e-01,9.99744e-01,1.78792e-01,9.99999e-01
6.854797995e-01,1.84916e-01,9.99999e-01,9.99999e-01,9.99670e-01,1.84977e-01,9.99999e-01
6.889071985e-01,1.91092e-01,9.99999e-01,9.99999e-01,9.99192e-01,1.91246e-01,9.99999e-01
6.923517345e-01,1.95030e-01,9.99999e-01,9.99999e-01,9.87003e-01,1.97599e-01,9.99999e-01
6.958134932e-01,2.02672e-01,9.99999e-01,9.99999e-01,9.93344e-01,2.04030e-01,9.99999e-01
6.992925606e-01,2.09182e-01,9.99999e-01,9.99999e-01,9.93562e-01,2.10537e-01,9.99999e-01
7.027890234e-01,2.15405e-01,9.99999e-01,9.99999e-01,9.92111e-01,2.17118e-01,9.99999e-01
7.063029686e-01,2.22281e-01,9.99999e-01,9.99999e-01,9.93359e-01,2.23767e-01,9.99999e-01
7.098344834e-01,2.29015e-01,9.99999e-01,9.99999e-01,9.93627e-01,2.30484e-01,9.99999e-01
7.133836558e-01,2.35228e-01,9.99999e-01,9.99999e-01,9.91424e-01,2.37263e-01,9.99999e-01
7.169505741e-01,2.27847e-01,9.99999e-01,9.99999e-01,9.33410e-01,2.44101e-01,9.99998e-01
7.205353270e-01,2.42803e-01,9.99999e-01,9.99999e-01,9.67359e-01,2.50996e-01,9.99998e-01
7.241380036e-01,2.47149e-01,9.99999e-01,9.99999e-01,9.58151e-01,2.57944e-01,9.99998e-01
7.277586936e-01,2.54924e-01,9.99999e-01,9.99999e-01,9.62192e-01,2.64941e-01,9.99998e-01
7.313974871e-01,2.61119e-01,9.99999e-01,9.99999e-01,9.60053e-01,2.71984e-01,9.99998e-01
7.350544745e-01,2.72916e-01,9.99999e-01,9.99999e-01,9.77948e-01,2.79070e-01,9.99999e-01
7.387297469e-01,2.81540e-01,9.99999e-01,9.99999e-01,9.83737e-01,2.86194e-01,9.99999e-01
7.424233956e-01,2.91016e-01,9.99999e-01,9.99999e-01,9.92027e-01,2.93355e-01,9.99999e-01
7.461355126e-01,2.99092e-01,9.99999e-01,9.99999e-01,9.95155e-01,3.00548e-01,9.99999e-01
7.498661902e-01,3.07077e-01,9.99999e-01,9.99999e-01,9.97747e-01,3.07770e-01,9.99999e-01
7.536155211e-01,3.14669e-01,9.99999e-01,9.99999e-01,9.98891e-01,3.15018e-01,9.99999e-01
7.573835987e-01,3.22104e-01,9.99999e-01,9.99999e-01,9.99429e-01,3.22288e-01,9.99999e-01
7.611705167e-01,3.29461e-01,9.99999e-01,9.99999e-01,9.99645e-01,3.29577e-01,9.99999e-01
7.649763693e-01,3.36808e-01,9.99999e-01,9.99999e-01,9.99777e-01,3.36883e-01,9.99999e-01
7.688012511e-01,3.44148e-01,9.99999e-01,9.99999e-01,9.99844e-01,3.44201e-01,9.99999e-01
7.726452574e-01,3.51484e-01,9.99999e-01,9.99999e-01,9.99871e-01,3.51529e-01,9.99999e-01
7.765084837e-01,3.58798e-01,9.99999e-01,9.99999e-01,9.99817e-01,3.58864e-01,9.99999e-01
7.803910261e-01,3.48723e-01,9.99999e-01,9.52987e-01,9.99209e-01,3.66202e-01,9.99999e-01
7.842929812e-01,3.02386e-01,9.99999e-01,8.11606e-01,9.97243e-01,3.73541e-01,9.99999e-01
7.882144461e-01,3.02744e-01,9.99999e-01,7.99118e-01,9.94369e-01,3.80878e-01,9.99999e-01
7.921555184e-01,3.39079e-01,9.99999e-01,8.76052e-01,9.96923e-01,3.88210e-01,9.99999e-01
7.961162960e-01,3.60183e-01,9.99999e-01,9.15587e-01,9.94512e-01,3.95534e-01,9.99999e-01
8.000968774e-01,3.81595e-01,9.99999e-01,9.53230e-01,9.93695e-01,4.02847e-01,9.99999e-01
8.040973618e-01,3.97609e-01,9.99999e-01,9.75573e-01,9.93686e-01,4.10147e-01,9.99999e-01
8.081178486e-01,4.06830e-01,9.99999e-01,9.88671e-01,9.85742e-01,4.17431e-01,9.99999e-01
8.121584379e-01,3.98685e-01,9.99999e-01,9.96519e-01,9.41984e-01,4.24697e-01,9.99998e-01
8.162192301e-01,4.02303e-01,9.99999e-01,9.99230e-01,9.32081e-01,4.31942e-01,9.99998e-01
8.203003262e-01,4.23851e-01,9.99999e-01,9.99988e-01,9.65140e-01,4.39164e-01,9.99998e-01
8.244018279e-01,4.25235e-01,9.99999e-01,9.99999e-01,9.52672e-01,4.46361e-01,9.99998e-01
8.285238370e-01,4.34785e-01,9.99999e-01,9.99999e-01,9.58670e-01,4.53529e-01,9.99998e-01
8.326664562e-01,4.41496e-01,9.99999e-01,9.99999e-01,9.58381e-01,4.60668e-01,9.99998e-01
8.368297885e-01,4.53804e-01,9.99999e-01,9.99999e-01,9.70131e-01,4.67775e-01,9.99999e-01
8.410139374e-01,4.66375e-01,9.99999e-01,9.99999e-01,9.82155e-01,4.74848e-01,9.99999e-01
8.452190071e-01,4.77655e-01,9.99999e-01,9.99999e-01,9.91221e-01,4.81885e-01,9.99999e-01
8.494451021e-01,4.86383e-01,9.99999e-01,9.99999e-01,9.94882e-01,4.88884e-01,9.99999e-01
8.536923276e-01,4.94347e-01,9.99999e-01,9.99999e-01,9.96980e-01,4.95844e-01,9.99999e-01
8.579607893e-01,5.01825e-01,9.99999e-01,9.99999e-01,9.98134e-01,5.02762e-01,9.99999e-01
8.622505932e-01,5.09035e-01,9.99999e-01,9.99999e-01,9.98817e-01,5.09638e-01,9.99999e-01
8.665618462e-01,4.68080e-01,9.99999e-01,9.06941e-01,9.99265e-01,5.16469e-01,9.99999e-01
8.708946554e-01,3.08260e-01,9.99999e-01,5.89594e-01,9.99157e-01,5.23253e-01,9.99999e-01
8.752491287e-01,3.45276e-01,9.99999e-01,6.52181e-01,9.98874e-01,5.29991e-01,9.99999e-01
8.796253743e-01,4.23183e-01,9.99999e-01,7.89706e-01,9.98437e-01,5.36679e-01,9.99999e-01
8.840235012e-01,4.79645e-01,9.99999e-01,8.84353e-01,9.98216e-01,5.43317e-01,9.99999e-01
8.884436187e-01,5.20566e-01,9.99999e-01,9.52846e-01,9.93407e-01,5.49904e-01,9.99999e-01
8.928858368e-01,5.09403e-01,9.99999e-01,9.80579e-01,9.33380e-01,5.56438e-01,9.99998e-01
8.973502660e-01,4.96510e-01,9.99999e-01,9.95273e-01,8.86100e-01,5.62918e-01,9.99998e-01
9.018370173e-01,5.35233e-01,9.99999e-01,9.99479e-01,9.40556e-01,5.69344e-01,9.99997e-01
9.063462024e-01,5.37930e-01,9.99999e-01,9.86349e-01,9.46741e-01,5.75714e-01,9.99997e-01
9.108779334e-01,5.18565e-01,9.99999e-01,9.69474e-01,9.18538e-01,5.82027e-01,9.99997e-01
9.154323231e-01,5.30491e-01,9.99999e-01,9.92817e-01,9.08095e-01,5.88283e-01,9.99997e-01
9.200094847e-01,4.99216e-01,9.99999e-01,9.00654e-01,9.27459e-01,5.94480e-01,9.99996e-01
9.246095321e-01,4.59792e-01,9.99999e-01,8.59229e-01,8.87690e-01,6.00618e-01,9.99994e-01
9.292325798e-01,2.51150e-01,9.99999e-01,8.87320e-01,4.58972e-01,6.06697e-01,9.99987e-01
9.338787427e-01,2.05300e-01,9.99999e-01,8.91518e-01,3.70162e-01,6.12715e-01,9.99984e-01
9.385481364e-01,3.82909e-01,9.99999e-01,9.18918e-01,6.69232e-01,6.18673e-01,9.99984e-01
9.432408771e-01,3.41012e-01,9.99999e-01,9.49615e-01,5.72825e-01,6.24568e-01,9.99982e-01
9.479570815e-01,2.86735e-01,9.99999e-01,9.73775e-01,4.66213e-01,6.30402e-01,9.99984e-01
9.526968669e-01,3.53634e-01,9.99999e-01,9.87296e-01,5.62229e-01,6.36174e-01,9.99988e-01
9.574603512e-01,3.73124e-01,9.99999e-01,9.94552e-01,5.84199e-01,6.41883e-01,9.99991e-01
9.622476530e-01,4.17096e-01,9.99999e-01,9.98299e-01,6.45147e-01,6.47529e-01,9.99994e-01
9.670588912e-01,5.06606e-01,9.99999e-01,9.99491e-01,7.76050e-01,6.53111e-01,9.99996e-01
9.718941857e-01,5.61486e-01,9.99999e-01,9.99964e-01,8.52535e-01,6.58630e-01,9.99997e-01
9.767536566e-01,5.81666e-01,9.99999e-01,9.99999e-01,8.75891e-01,6.64085e-01,9.99998e-01
9.816374249e-01,6.06938e-01,9.99999e-01,9.99999e-01,9.06587e-01,6.69476e-01,9.99998e-01
9.865456120e-01,6.34692e-01,9.99999e-01,9.99999e-01,9.40558e-01,6.74804e-01,9.99999e-01
9.914783401e-01,6.54770e-01,9.99999e-01,9.99999e-01,9.62802e-01,6.80067e-01,9.99999e-01
9.964357318e-01,6.71270e-01,9.99999e-01,9.99999e-01,9.79575e-01,6.85266e-01,9.99999e-01
1.001417910e+00,6.81919e-01,9.99999e-01,9.99999e-01,9.87713e-01,6.90401e-01,9.99999e-01
1.006425000e+00,6.90580e-01,9.99999e-01,9.99999e-01,9.92965e-01,6.95472e-01,9.99999e-01
1.011457125e+00,6.97424e-01,9.99999e-01,9.99999e-01,9.95638e-01,7.00478e-01,9.99999e-01
1.016514411e+00,7.03329e-01,9.99999e-01,9.99999e-01,9.97033e-01,7.05421e-01,9.99999e-01
1.021596983e+00,7.08563e-01,9.99999e-01,9.99918e-01,9.97634e-01,7.10300e-01,9.99999e-01
1.026704968e+00,7.09962e-01,9.99999e-01,9.94625e-01,9.98153e-01,7.15116e-01,9.99999e-01
1.031838492e+00,6.76509e-01,9.99999e-01,9.40979e-01,9.98660e-01,7.19868e-01,9.99999e-01
1.036997685e+00,7.97241e-02,9.99999e-01,1.10100e-01,9.99202e-01,7.24557e-01,9.99999e-01
1.042182673e+00,4.10368e-02,9.99999e-01,5.63238e-02,9.99046e-01,7.29183e-01,9.99999e-01
1.047393587e+00,5.80568e-02,9.99999e-01,7.92107e-02,9.98737e-01,7.33746e-01,9.99999e-01
1.052630555e+00,5.01147e-04,9.99999e-01,6.79659e-04,9.98265e-01,7.38247e-01,9.99999e-01
1.057893707e+00,1.53604e-03,9.99999e-01,2.07198e-03,9.97102e-01,7.42685e-01,9.99999e-01
1.063183176e+00,7.54467e-03,9.99999e-01,1.01315e-02,9.95239e-01,7.47062e-01,9.99999e-01
1.068499092e+00,2.83274e-02,9.99999e-01,3.79411e-02,9.92050e-01,7.51378e-01,9.99999e-01
1.073841587e+00,9.46028e-02,9.99999e-01,1.26160e-01,9.90687e-01,7.55632e-01,9.99999e-01
1.079210795e+00,2.02644e-01,9.99999e-01,2.69525e-01,9.88114e-01,7.59826e-01,9.99999e-01
1.084606849e+00,3.63548e-01,9.99999e-01,4.84038e-01,9.82034e-01,7.63959e-01,9.99998e-01
1.090029883e+00,5.13274e-01,9.99999e-01,6.85341e-01,9.74161e-01,7.68033e-01,9.99998e-01
1.095480033e+00,5.97543e-01,9.99999e-01,8.30212e-01,9.31267e-01,7.72047e-01,9.99997e-01
1.100957433e+00,5.92949e-01,9.99999e-01,9.14135e-01,8.34790e-01,7.76003e-01,9.99996e-01
1.106462220e+00,4.77355e-01,9.99999e-01,9.63595e-01,6.34040e-01,7.79900e-01,9.99992e-01
1.111994531e+00,3.00532e-01,9.99999e-01,9.86345e-01,3.88260e-01,7.83738e-01,9.99986e-01
1.117554504e+00,1.72601e-01,9.99999e-01,9.96665e-01,2.19731e-01,7.87520e-01,9.99980e-01
1.123142276e+00,2.67616e-01,9.99999e-01,9.99781e-01,3.38256e-01,7.91244e-01,9.99977e-01
1.128757988e+00,3.89503e-01,9.99999e-01,9.99999e-01,4.90007e-01,7.94912e-01,9.99975e-01
1.134401778e+00,2.02377e-01,9.99999e-01,9.99999e-01,2.53445e-01,7.98524e-01,9.99972e-01
1.140073787e+00,5.20421e-01,9.99999e-01,9.99999e-01,6.48853e-01,8.02081e-01,9.99977e-01
1.145774156e+00,3.32769e-01,9.99999e-01,9.99999e-01,4.13086e-01,8.05583e-01,9.99980e-01
1.151503026e+00,3.03623e-01,9.99999e-01,9.99999e-01,3.75299e-01,8.09030e-01,9.99983e-01
1.157260541e+00,3.52229e-01,9.99999e-01,9.99999e-01,4.33558e-01,8.12424e-01,9.99987e-01
1.163046844e+00,4.39381e-01,9.99999e-01,9.99999e-01,5.38617e-01,8.15764e-01,9.99991e-01
1.168862078e+00,5.31123e-01,9.99999e-01,9.99999e-01,6.48463e-01,8.19052e-01,9.99995e-01
1.174706389e+00,6.29271e-01,9.99999e-01,9.99999e-01,7.65270e-01,8.22288e-01,9.99997e-01
1.180579921e+00,7.01276e-01,9.99999e-01,9.99999e-01,8.49546e-01,8.25472e-01,9.99998e-01
1.186482820e+00,7.55521e-01,9.99999e-01,9.99987e-01,9.11809e-01,8.28605e-01,9.99998e-01
1.192415234e+00,7.73266e-01,9.99999e-01,9.80991e-01,9.47486e-01,8.31688e-01,9.99998e-01
1.198377311e+00,4.42695e-01,9.99999e-01,5.50882e-01,9.55494e-01,8.34721e-01,9.99998e-01
1.204369197e+00,6.97067e-15,9.99999e-01,8.53064e-15,9.57890e-01,8.37705e-01,9.99998e-01
1.210391043e+00,1.72658e-56,9.99999e-01,2.10137e-56,9.59688e-01,8.40640e-01,9.99998e-01
1.216442998e+00,4.75696e-49,9.99999e-01,5.76285e-49,9.65665e-01,8.43528e-01,9.99999e-01
1.222525213e+00,2.50428e-48,9.99999e-01,3.00067e-48,9.73142e-01,8.46368e-01,9.99999e-01
1.228637839e+00,1.99886e-37,9.99999e-01,2.38457e-37,9.81263e-01,8.49161e-01,9.99999e-01
