#,Wave/freq,Total,O2,CO2,H2O,Rayleigh,CIA
4.000000000e-01,1.64102e-13,9.99999e-01,9.99999e-01,9.99941e-01,1.64111e-13,9.99999e-01
4.020000000e-01,2.93711e-13,9.99999e-01,9.99999e-01,9.99963e-01,2.93722e-13,9.99999e-01
4.040100000e-01,5.19361e-13,9.99999e-01,9.99999e-01,9.99984e-01,5.19368e-13,9.99999e-01
4.060300500e-01,9.08079e-13,9.99999e-01,9.99999e-01,9.99995e-01,9.08083e-13,9.99999e-01
4.080602003e-01,1.57030e-12,9.99999e-01,9.99999e-01,9.99998e-01,1.57030e-12,9.99999e-01
4.101005013e-01,2.68621e-12,9.99999e-01,9.99999e-01,9.99999e-01,2.68622e-12,9.99999e-01
4.121510038e-01,4.54667e-12,9.99999e-01,9.99999e-01,9.99997e-01,4.54668e-12,9.99999e-01
4.142117588e-01,7.61598e-12,9.99999e-01,9.99999e-01,9.99983e-01,7.61610e-12,9.99999e-01
4.162828176e-01,1.26274e-11,9.99999e-01,9.99999e-01,9.99928e-01,1.26283e-11,9.99999e-01
4.183642317e-01,2.07302e-11,9.99999e-01,9.99999e-01,9.99957e-01,2.07311e-11,9.99999e-01
4.204560528e-01,3.37003e-11,9.99999e-01,9.99999e-01,9.99973e-01,3.37011e-11,9.99999e-01
4.225583331e-01,5.42619e-11,9.99999e-01,9.99999e-01,9.99989e-01,5.42625e-11,9.99999e-01
4.246711247e-01,8.65496e-11,9.99999e-01,9.99999e-01,9.99991e-01,8.65503e-11,9.99999e-01
4.267944804e-01,1.36782e-10,9.99999e-01,9.99999e-01,9.99988e-01,1.36783e-10,9.99999e-01
4.289284528e-01,2.14223e-10,9.99999e-01,9.99999e-01,9.99990e-01,2.14225e-10,9.99999e-01
4.310730950e-01,3.32551e-10,9.99999e-01,9.99999e-01,9.99995e-01,3.32552e-10,9.99999e-01
4.332284605e-01,5.11771e-10,9.99999e-01,9.99999e-01,9.99998e-01,5.11772e-10,9.99999e-01
4.353946028e-01,7.80899e-10,9.99999e-01,9.99999e-01,9.99999e-01,7.80899e-10,9.99999e-01
4.375715758e-01,1.18164e-09,9.99999e-01,9.99999e-01,9.99992e-01,1.18165e-09,9.99999e-01
4.397594337e-01,1.77338e-09,9.99999e-01,9.99999e-01,9.99937e-01,1.77349e-09,9.99999e-01
4.419582309e-01,2.63968e-09,9.99999e-01,9.99999e-01,9.99686e-01,2.64050e-09,9.99999e-01
4.441680220e-01,3.89961e-09,9.99999e-01,9.99999e-01,9.99749e-01,3.90058e-09,9.99999e-01
4.463888621e-01,5.71628e-09,9.99999e-01,9.99999e-01,9.99740e-01,5.71776e-09,9.99999e-01
4.486208064e-01,8.31708e-09,9.99999e-01,9.99999e-01,9.99838e-01,8.31842e-09,9.99999e-01
4.508639105e-01,1.20118e-08,9.99999e-01,9.99999e-01,9.99923e-01,1.20127e-08,9.99999e-01
4.531182300e-01,1.72216e-08,9.99999e-01,9.99999e-01,9.99969e-01,1.72221e-08,9.99999e-01
4.553838212e-01,2.45151e-08,9.99999e-01,9.99999e-01,9.99979e-01,2.45156e-08,9.99999e-01
4.576607403e-01,3.46551e-08,9.99999e-01,9.99999e-01,9.99990e-01,3.46554e-08,9.99999e-01
4.599490440e-01,4.86548e-08,9.99999e-01,9.99999e-01,9.99992e-01,4.86551e-08,9.99999e-01
4.622487892e-01,6.78540e-08,9.99999e-01,9.99999e-01,9.99998e-01,6.78541e-08,9.99999e-01
4.645600332e-01,9.40087e-08,9.99999e-01,9.99999e-01,9.99995e-01,9.40091e-08,9.99999e-01
4.668828333e-01,1.29400e-07,9.99999e-01,9.99999e-01,9.99924e-01,1.29410e-07,9.99999e-01
4.692172475e-01,1.76992e-07,9.99999e-01,9.99999e-01,9.99837e-01,1.77020e-07,9.99999e-01
4.715633337e-01,2.40628e-07,9.99999e-01,9.99999e-01,9.99893e-01,2.40653e-07,9.99999e-01
4.739211504e-01,3.25148e-07,9.99999e-01,9.99999e-01,9.99897e-01,3.25181e-07,9.99999e-01
4.762907561e-01,4.36771e-07,9.99999e-01,9.99999e-01,9.99946e-01,4.36794e-07,9.99999e-01
4.786722099e-01,5.83294e-07,9.99999e-01,9.99999e-01,9.99977e-01,5.83307e-07,9.99999e-01
4.810655710e-01,7.74521e-07,9.99999e-01,9.99999e-01,9.99993e-01,7.74526e-07,9.99999e-01
4.834708988e-01,1.02263e-06,9.99999e-01,9.99999e-01,9.99938e-01,1.02269e-06,9.99999e-01
4.858882533e-01,1.34281e-06,9.99999e-01,9.99999e-01,9.99884e-01,1.34297e-06,9.99999e-01
4.883176946e-01,1.75392e-06,9.99999e-01,9.99999e-01,9.99903e-01,1.75408e-06,9.99999e-01
4.907592831e-01,2.27880e-06,9.99999e-01,9.99999e-01,9.99912e-01,2.27900e-06,9.99999e-01
4.932130795e-01,2.94555e-06,9.99999e-01,9.99999e-01,9.99937e-01,2.94573e-06,9.99999e-01
4.956791449e-01,3.78814e-06,9.99999e-01,9.99999e-01,9.99966e-01,3.78826e-06,9.99999e-01
4.981575406e-01,4.84684e-06,9.99999e-01,9.99999e-01,9.99837e-01,4.84763e-06,9.99999e-01
5.006483283e-01,6.17052e-06,9.99999e-01,9.99999e-01,9.99581e-01,6.17310e-06,9.99999e-01
5.031515699e-01,7.80685e-06,9.99999e-01,9.99999e-01,9.97864e-01,7.82355e-06,9.99999e-01
5.056673278e-01,9.85781e-06,9.99999e-01,9.99999e-01,9.98868e-01,9.86897e-06,9.99999e-01
5.081956644e-01,1.23745e-05,9.99999e-01,9.99999e-01,9.98571e-01,1.23922e-05,9.99999e-01
5.107366428e-01,1.54757e-05,9.99999e-01,9.99999e-01,9.99034e-01,1.54907e-05,9.99999e-01
5.132903260e-01,1.92681e-05,9.99999e-01,9.99999e-01,9.99446e-01,1.92787e-05,9.99999e-01
5.158567776e-01,2.38840e-05,9.99999e-01,9.99999e-01,9.99765e-01,2.38896e-05,9.99999e-01
5.184360615e-01,2.94755e-05,9.99999e-01,9.99999e-01,9.99906e-01,2.94782e-05,9.99999e-01
5.210282418e-01,3.62222e-05,9.99999e-01,9.99999e-01,9.99964e-01,3.62234e-05,9.99999e-01
5.236333830e-01,4.43251e-05,9.99999e-01,9.99999e-01,9.99860e-01,4.43313e-05,9.99999e-01
5.262515499e-01,5.40332e-05,9.99999e-01,9.99999e-01,9.99912e-01,5.40380e-05,9.99999e-01
5.288828077e-01,6.56076e-05,9.99999e-01,9.99999e-01,9.99919e-01,6.56128e-05,9.99999e-01
5.315272217e-01,7.93566e-05,9.99999e-01,9.99999e-01,9.99928e-01,7.93622e-05,9.99999e-01
5.341848578e-01,9.56283e-05,9.99999e-01,9.99999e-01,9.99953e-01,9.56327e-05,9.99999e-01
5.368557821e-01,1.14797e-04,9.99999e-01,9.99999e-01,9.99837e-01,1.14815e-04,9.99999e-01
5.395400610e-01,1.37269e-04,9.99999e-01,9.99999e-01,9.99419e-01,1.37349e-04,9.99999e-01
5.422377613e-01,1.63599e-04,9.99999e-01,9.99999e-01,9.99239e-01,1.63724e-04,9.99999e-01
5.449489501e-01,1.94351e-04,9.99999e-01,9.99999e-01,9.99297e-01,1.94488e-04,9.99999e-01
5.476736949e-01,2.30104e-04,9.99999e-01,9.99999e-01,9.99372e-01,2.30248e-04,9.99999e-01
5.504120634e-01,2.71553e-04,9.99999e-01,9.99999e-01,9.99544e-01,2.71676e-04,9.99999e-01
5.531641237e-01,3.19439e-04,9.99999e-01,9.99999e-01,9.99770e-01,3.19512e-04,9.99999e-01
5.559299443e-01,3.74528e-04,9.99999e-01,9.99999e-01,9.99888e-01,3.74570e-04,9.99999e-01
5.587095940e-01,4.37708e-04,9.99999e-01,9.99999e-01,9.99930e-01,4.37738e-04,9.99999e-01
5.615031420e-01,5.09947e-04,9.99999e-01,9.99999e-01,9.99922e-01,5.09986e-04,9.99999e-01
5.643106577e-01,5.92318e-04,9.99999e-01,9.99999e-01,9.99913e-01,5.92369e-04,9.99999e-01
5.671322110e-01,6.85315e-04,9.99999e-01,9.99999e-01,9.98961e-01,6.86027e-04,9.99999e-01
5.699678720e-01,7.91294e-04,9.99999e-01,9.99999e-01,9.98863e-01,7.92194e-04,9.99999e-01
5.728177114e-01,9.11127e-04,9.99999e-01,9.99999e-01,9.98829e-01,9.12194e-04,9.99999e-01
5.756818000e-01,1.04632e-03,9.99999e-01,9.99999e-01,9.98923e-01,1.04745e-03,9.99999e-01
5.785602090e-01,1.19835e-03,9.99999e-01,9.99999e-01,9.99059e-01,1.19948e-03,9.99999e-01
5.814530100e-01,1.36861e-03,9.99999e-01,9.99999e-01,9.99057e-01,1.36990e-03,9.99999e-01
5.843602750e-01,1.55870e-03,9.99999e-01,9.99999e-01,9.98886e-01,1.56044e-03,9.99999e-01
5.872820764e-01,1.75595e-03,9.99999e-01,9.99999e-01,9.90430e-01,1.77291e-03,9.99999e-01
5.902184868e-01,1.98574e-03,9.99999e-01,9.99999e-01,9.88299e-01,2.00925e-03,9.99999e-01
5.931695792e-01,2.25272e-03,9.99999e-01,9.99999e-01,9.91751e-01,2.27146e-03,9.99999e-01
5.961354271e-01,2.53846e-03,9.99999e-01,9.99999e-01,9.90937e-01,2.56168e-03,9.99999e-01
5.991161043e-01,2.86303e-03,9.99999e-01,9.99999e-01,9.93374e-01,2.88212e-03,9.99999e-01
6.021116848e-01,3.22292e-03,9.99999e-01,9.99999e-01,9.96230e-01,3.23511e-03,9.99999e-01
6.051222432e-01,3.61614e-03,9.99999e-01,9.99999e-01,9.98090e-01,3.62306e-03,9.99999e-01
6.081478544e-01,4.04512e-03,9.99999e-01,9.99999e-01,9.99176e-01,4.04846e-03,9.99999e-01
6.111885937e-01,4.51232e-03,9.99999e-01,9.99999e-01,9.99650e-01,4.51389e-03,9.99999e-01
6.142445367e-01,5.02125e-03,9.99999e-01,9.99999e-01,9.99843e-01,5.02204e-03,9.99999e-01
6.173157594e-01,5.57514e-03,9.99999e-01,9.99999e-01,9.99913e-01,5.57562e-03,9.99999e-01
6.204023382e-01,6.17701e-03,9.99999e-01,9.99999e-01,9.99927e-01,6.17745e-03,9.99999e-01
6.235043498e-01,6.82827e-03,9.99999e-01,9.99999e-01,9.99686e-01,6.83040e-03,9.99999e-01
6.266218716e-01,7.52470e-03,9.99999e-01,9.99999e-01,9.98314e-01,7.53740e-03,9.99999e-01
6.297549810e-01,8.29627e-03,9.99999e-01,9.99999e-01,9.99381e-01,8.30141e-03,9.99999e-01
6.329037559e-01,9.11425e-03,9.99999e-01,9.99999e-01,9.98774e-01,9.12543e-03,9.99999e-01
6.360682746e-01,1.00021e-02,9.99999e-01,9.99999e-01,9.98960e-01,1.00125e-02,9.99999e-01
6.392486160e-01,1.09509e-02,9.99999e-01,9.99999e-01,9.98650e-01,1.09657e-02,9.99999e-01
6.424448591e-01,1.19688e-02,9.99999e-01,9.99999e-01,9.98382e-01,1.19881e-02,9.99999e-01
6.456570834e-01,1.29751e-02,9.99999e-01,9.99999e-01,9.91767e-01,1.30828e-02,9.99999e-01
6.488853688e-01,1.41501e-02,9.99999e-01,9.99999e-01,9.92795e-01,1.42528e-02,9.99999e-01
6.521297956e-01,1.54043e-02,9.99999e-01,9.99999e-01,9.93744e-01,1.55012e-02,9.99999e-01
6.553904446e-01,1.67270e-02,9.99999e-01,9.99999e-01,9.93819e-01,1.68310e-02,9.99999e-01
6.586673968e-01,1.81477e-02,9.99999e-01,9.99999e-01,9.94656e-01,1.82452e-02,9.99999e-01
6.619607338e-01,1.96857e-02,9.99999e-01,9.99999e-01,9.96908e-01,1.97468e-02,9.99999e-01
6.652705375e-01,2.13002e-02,9.99999e-01,9.99999e-01,9.98203e-01,2.13385e-02,9.99999e-01
6.685968902e-01,2.30041e-02,9.99999e-01,9.99999e-01,9.99165e-01,2.30233e-02,9.99999e-01
6.719398746e-01,2.47942e-02,9.99999e-01,9.99999e-01,9.99612e-01,2.48038e-02,9.99999e-01
6.752995740e-01,2.66772e-02,9.99999e-01,9.99999e-01,9.99790e-01,2.66828e-02,9.99999e-01
6.786760719e-01,2.86541e-02,9.99999e-01,9.99999e-01,9.99700e-01,2.86627e-02,9.99999e-01
6.820694522e-01,3.07302e-02,9.99999e-01,9.99999e-01,9.99485e-01,3.07460e-02,9.99999e-01
6.854797995e-01,3.29133e-02,9.99999e-01,9.99999e-01,9.99337e-01,3.29351e-02,9.99999e-01
6.889071985e-01,3.51765e-02,9.99999e-01,9.99999e-01,9.98421e-01,3.52321e-02,9.99999e-01
6.923517345e-01,3.66699e-02,9.99999e-01,9.99999e-01,9.74248e-01,3.76392e-02,9.99999e-01
6.958134932e-01,3.96068e-02,9.99999e-01,9.99999e-01,9.86269e-01,4.01582e-02,9.99999e-01
6.992925606e-01,4.22428e-02,9.99999e-01,9.99999e-01,9.87186e-01,4.27911e-02,9.99999e-01
7.027890234e-01,4.48143e-02,9.99999e-01,9.99999e-01,9.84075e-01,4.55394e-02,9.99999e-01
7.063029686e-01,4.77562e-02,9.99999e-01,9.99999e-01,9.86602e-01,4.84047e-02,9.99999e-01
7.098344834e-01,5.07275e-02,9.99999e-01,9.99999e-01,9.87139e-01,5.13883e-02,9.99999e-01
7.133836558e-01,5.35723e-02,9.99999e-01,9.99999e-01,9.83133e-01,5.44914e-02,9.99998e-01
7.169505741e-01,5.03483e-02,9.99999e-01,9.99999e-01,8.72360e-01,5.77150e-02,9.99997e-01
7.205353270e-01,5.70326e-02,9.99999e-01,9.99999e-01,9.34043e-01,6.10599e-02,9.99997e-01
7.241380036e-01,5.92392e-02,9.99999e-01,9.99999e-01,9.18055e-01,6.45269e-02,9.99997e-01
7.277586936e-01,6.30550e-02,9.99999e-01,9.99999e-01,9.25696e-01,6.81163e-02,9.99997e-01
7.313974871e-01,6.61186e-02,9.99999e-01,9.99999e-01,9.20505e-01,7.18286e-02,9.99998e-01
7.350544745e-01,7.23187e-02,9.99999e-01,9.99999e-01,9.55790e-01,7.56638e-02,9.99998e-01
7.387297469e-01,7.70116e-02,9.99999e-01,9.99999e-01,9.67214e-01,7.96220e-02,9.99999e-01
7.424233956e-01,8.23450e-02,9.99999e-01,9.99999e-01,9.83777e-01,8.37029e-02,9.99999e-01
7.461355126e-01,8.70406e-02,9.99999e-01,9.99999e-01,9.90154e-01,8.79061e-02,9.99999e-01
7.498661902e-01,9.18061e-02,9.99999e-01,9.99999e-01,9.95392e-01,9.22311e-02,9.99999e-01
7.536155211e-01,9.64590e-02,9.99999e-01,9.99999e-01,9.97744e-01,9.66771e-02,9.99999e-01
7.573835987e-01,1.01126e-01,9.99999e-01,9.99999e-01,9.98837e-01,1.01243e-01,9.99999e-01
7.611705167e-01,1.05852e-01,9.99999e-01,9.99999e-01,9.99277e-01,1.05928e-01,9.99999e-01
7.649763693e-01,1.10681e-01,9.99999e-01,9.99999e-01,9.99547e-01,1.10731e-01,9.99999e-01
7.688012511e-01,1.15614e-01,9.99999e-01,9.99999e-01,9.99685e-01,1.15651e-01,9.99999e-01
7.726452574e-01,1.20654e-01,9.99999e-01,9.99999e-01,9.99741e-01,1.20685e-01,9.99999e-01
7.765084837e-01,1.25787e-01,9.99999e-01,9.99999e-01,9.99635e-01,1.25833e-01,9.99999e-01
7.803910261e-01,1.20735e-01,9.99999e-01,9.22341e-01,9.98427e-01,1.31092e-01,9.99999e-01
7.842929812e-01,9.00858e-02,9.99999e-01,6.63382e-01,9.94523e-01,1.36460e-01,9.99999e-01
7.882144461e-01,9.12528e-02,9.99999e-01,6.49602e-01,9.88650e-01,1.41935e-01,9.99999e-01
7.921555184e-01,1.12665e-01,9.99999e-01,7.68275e-01,9.93731e-01,1.47516e-01,9.99999e-01
7.961162960e-01,1.26666e-01,9.99999e-01,8.35708e-01,9.89066e-01,1.53199e-01,9.99999e-01
8.000968774e-01,1.42425e-01,9.99999e-01,9.07282e-01,9.87302e-01,1.58983e-01,9.99999e-01
8.040973618e-01,1.54737e-01,9.99999e-01,9.50567e-01,9.87318e-01,1.64864e-01,9.99999e-01
8.081178486e-01,1.62243e-01,9.99999e-01,9.77074e-01,9.71855e-01,1.70840e-01,9.99998e-01
8.121584379e-01,1.55999e-01,9.99999e-01,9.92804e-01,8.88025e-01,1.76908e-01,9.99998e-01
8.162192301e-01,1.58562e-01,9.99999e-01,9.98405e-01,8.67466e-01,1.83065e-01,9.99997e-01
8.203003262e-01,1.76729e-01,9.99999e-01,9.99973e-01,9.33568e-01,1.89309e-01,9.99997e-01
8.244018279e-01,1.77417e-01,9.99999e-01,9.99999e-01,9.06872e-01,1.95636e-01,9.99997e-01
8.285238370e-01,1.85656e-01,9.99999e-01,9.99999e-01,9.18894e-01,2.02043e-01,9.99997e-01
8.326664562e-01,1.91390e-01,9.99999e-01,9.99999e-01,9.17816e-01,2.08528e-01,9.99998e-01
8.368297885e-01,2.02241e-01,9.99999e-01,9.99999e-01,9.40279e-01,2.15086e-01,9.99998e-01
8.410139374e-01,2.13740e-01,9.99999e-01,9.99999e-01,9.64031e-01,2.21715e-01,9.99999e-01
8.452190071e-01,2.24338e-01,9.99999e-01,9.99999e-01,9.82171e-01,2.28411e-01,9.99999e-01
8.494451021e-01,2.32738e-01,9.99999e-01,9.99999e-01,9.89653e-01,2.35171e-01,9.99999e-01
8.536923276e-01,2.40503e-01,9.99999e-01,9.99999e-01,9.93848e-01,2.41992e-01,9.99999e-01
8.579607893e-01,2.47929e-01,9.99999e-01,9.99999e-01,9.96219e-01,2.48869e-01,9.99999e-01
8.622505932e-01,2.55185e-01,9.99999e-01,9.99999e-01,9.97591e-01,2.55801e-01,9.99999e-01
8.665618462e-01,2.30403e-01,9.99999e-01,8.78002e-01,9.98514e-01,2.62783e-01,9.99999e-01
8.708946554e-01,9.85067e-02,9.99999e-01,3.65664e-01,9.98303e-01,2.69813e-01,9.99999e-01
8.752491287e-01,1.19402e-01,9.99999e-01,4.32146e-01,9.97728e-01,2.76886e-01,9.99999e-01
8.796253743e-01,1.76561e-01,9.99999e-01,6.23506e-01,9.96866e-01,2.83999e-01,9.99999e-01
8.840235012e-01,2.26221e-01,9.99999e-01,7.79675e-01,9.96418e-01,2.91149e-01,9.99999e-01
8.884436187e-01,2.66832e-01,9.99999e-01,9.05658e-01,9.87250e-01,2.98332e-01,9.99998e-01
8.928858368e-01,2.56454e-01,9.99999e-01,9.60675e-01,8.72854e-01,3.05545e-01,9.99997e-01
8.973502660e-01,2.43289e-01,9.99999e-01,9.90238e-01,7.85061e-01,3.12786e-01,9.99996e-01
9.018370173e-01,2.82337e-01,9.99999e-01,9.98917e-01,8.83048e-01,3.20049e-01,9.99996e-01
9.063462024e-01,2.86777e-01,9.99999e-01,9.73891e-01,8.97562e-01,3.27333e-01,9.99995e-01
9.108779334e-01,2.65792e-01,9.99999e-01,9.38880e-01,8.44251e-01,3.34634e-01,9.99995e-01
9.154323231e-01,2.77919e-01,9.99999e-01,9.85157e-01,8.24289e-01,3.41949e-01,9.99994e-01
9.200094847e-01,2.53331e-01,9.99999e-01,8.28433e-01,8.59566e-01,3.49274e-01,9.99993e-01
9.246095321e-01,2.11792e-01,9.99999e-01,7.35904e-01,7.97530e-01,3.56607e-01,9.99988e-01
9.292325798e-01,7.06769e-02,9.99999e-01,7.91088e-01,2.34151e-01,3.63945e-01,9.99976e-01
9.338787427e-01,4.64998e-02,9.99999e-01,7.93808e-01,1.50759e-01,3.71284e-01,9.99970e-01
9.385481364e-01,1.51033e-01,9.99999e-01,8.42879e-01,4.63037e-01,3.78622e-01,9.99969e-01
9.432408771e-01,1.26168e-01,9.99999e-01,8.99850e-01,3.58868e-01,3.85955e-01,9.99965e-01
9.479570815e-01,9.09683e-02,9.99999e-01,9.47408e-01,2.42683e-01,3.93282e-01,9.99970e-01
9.526968669e-01,1.30760e-01,9.99999e-01,9.74263e-01,3.33495e-01,4.00599e-01,9.99977e-01
9.574603512e-01,1.42198e-01,9.99999e-01,9.88897e-01,3.51902e-01,4.07903e-01,9.99982e-01
9.622476530e-01,1.74267e-01,9.99999e-01,9.96519e-01,4.20977e-01,4.15192e-01,9.99988e-01
9.670588912e-01,2.55472e-01,9.99999e-01,9.98953e-01,6.05273e-01,4.22464e-01,9.99992e-01
9.718941857e-01,3.11965e-01,9.99999e-01,9.99924e-01,7.26028e-01,4.29716e-01,9.99995e-01
9.767536566e-01,3.34874e-01,9.99999e-01,9.99999e-01,7.66399e-01,4.36945e-01,9.99996e-01
9.816374249e-01,3.64208e-01,9.99999e-01,9.99999e-01,8.20012e-01,4.44150e-01,9.99997e-01
9.865456120e-01,3.98561e-01,9.99999e-01,9.99999e-01,8.83087e-01,4.51327e-01,9.99998e-01
9.914783401e-01,4.24523e-01,9.99999e-01,9.99999e-01,9.25945e-01,4.58476e-01,9.99999e-01
9.964357318e-01,4.46479e-01,9.99999e-01,9.99999e-01,9.58947e-01,4.65593e-01,9.99999e-01
1.001417910e+00,4.60942e-01,9.99999e-01,9.99999e-01,9.75174e-01,4.72676e-01,9.99999e-01
1.006425000e+00,4.72912e-01,9.99999e-01,9.99999e-01,9.85799e-01,4.79724e-01,9.99999e-01
1.011457125e+00,4.82423e-01,9.99999e-01,9.99999e-01,9.91140e-01,4.86736e-01,9.99999e-01
1.016514411e+00,4.90739e-01,9.99999e-01,9.99999e-01,9.93986e-01,4.93708e-01,9.99999e-01
1.021596983e+00,4.98177e-01,9.99999e-01,9.99870e-01,9.95209e-01,5.00639e-01,9.99999e-01
1.026704968e+00,5.00407e-01,9.99999e-01,9.89654e-01,9.96263e-01,5.07528e-01,9.99999e-01
1.031838492e+00,4.69583e-01,9.99999e-01,9.15294e-01,9.97277e-01,5.14372e-01,9.99999e-01
1.036997685e+00,3.01239e-02,9.99999e-01,5.78710e-02,9.98385e-01,5.21171e-01,9.99999e-01
1.042182673e+00,2.75173e-03,9.99999e-01,5.22014e-03,9.98081e-01,5.27923e-01,9.99999e-01
1.047393587e+00,6.85718e-03,9.99999e-01,1.28535e-02,9.97452e-01,5.34627e-01,9.99999e-01
1.052630555e+00,1.58073e-06,9.99999e-01,2.92688e-06,9.96510e-01,5.41281e-01,9.99999e-01
1.057893707e+00,5.78497e-06,9.99999e-01,1.05912e-05,9.94189e-01,5.47883e-01,9.99999e-01
1.063183176e+00,1.12226e-04,9.99999e-01,2.03560e-04,9.90446e-01,5.54434e-01,9.99999e-01
1.068499092e+00,9.81646e-04,9.99999e-01,1.76935e-03,9.84034e-01,5.60931e-01,9.99999e-01
1.073841587e+00,9.47108e-03,9.99999e-01,1.69237e-02,9.81388e-01,5.67373e-01,9.99999e-01
1.079210795e+00,4.32669e-02,9.99999e-01,7.68756e-02,9.76121e-01,5.73760e-01,9.99998e-01
1.084606849e+00,1.31187e-01,9.99999e-01,2.33584e-01,9.64157e-01,5.80091e-01,9.99998e-01
1.090029883e+00,2.61115e-01,9.99999e-01,4.67348e-01,9.49263e-01,5.86365e-01,9.99997e-01
1.095480033e+00,3.54241e-01,9.99999e-01,6.86154e-01,8.67567e-01,5.92580e-01,9.99996e-01
1.100957433e+00,3.50663e-01,9.99999e-01,8.33324e-01,6.99205e-01,5.98736e-01,9.99993e-01
1.106462220e+00,2.33904e-01,9.99999e-01,9.27188e-01,4.14350e-01,6.04834e-01,9.99986e-01
1.111994531e+00,9.66380e-02,9.99999e-01,9.72338e-01,1.61960e-01,6.10870e-01,9.99972e-01
1.117554504e+00,3.49834e-02,9.99999e-01,9.93144e-01,5.69572e-02,6.16847e-01,9.99961e-01
1.123142276e+00,8.51715e-02,9.99999e-01,9.99545e-01,1.36780e-01,6.22761e-01,9.99954e-01
1.128757988e+00,1.61169e-01,9.99999e-01,9.99999e-01,2.56400e-01,6.28614e-01,9.99950e-01
1.134401778e+00,7.14257e-02,9.99999e-01,9.99999e-01,1.12593e-01,6.34405e-01,9.99943e-01
1.140073787e+00,2.75467e-01,9.99999e-01,9.99999e-01,4.30346e-01,6.40133e-01,9.99952e-01
1.145774156e+00,1.21660e-01,9.99999e-01,9.99999e-01,1.88393e-01,6.45799e-01,9.99961e-01
1.151503026e+00,1.03494e-01,9.99999e-01,9.99999e-01,1.58884e-01,6.51401e-01,9.99966e-01
1.157260541e+00,1.28458e-01,9.99999e-01,9.99999e-01,1.95544e-01,6.56939e-01,9.99974e-01
1.163046844e+00,1.95627e-01,9.99999e-01,9.99999e-01,2.95328e-01,6.62414e-01,9.99983e-01
1.168862078e+00,2.80047e-01,9.99999e-01,9.99999e-01,4.19346e-01,6.67825e-01,9.99991e-01
1.174706389e+00,3.93312e-01,9.99999e-01,9.99999e-01,5.84269e-01,6.73172e-01,9.99995e-01
1.180579921e+00,4.88222e-01,9.99999e-01,9.99999e-01,7.19610e-01,6.78455e-01,9.99996e-01
1.186482820e+00,5.67170e-01,9.99999e-01,9.99985e-01,8.29602e-01,6.83673e-01,9.99997e-01
1.192415234e+00,5.96507e-01,9.99999e-01,9.64782e-01,8.96582e-01,6.88828e-01,9.99997e-01
1.198377311e+00,3.37128e-01,9.99999e-01,5.24465e-01,9.12289e-01,6.93919e-01,9.99997e-01
1.204369197e+00,8.59574e-28,9.99999e-01,1.29322e-27,9.16927e-01,6.98945e-01,9.99998e-01
1.210391043e+00,6.51438e-112,9.99999e-01,9.69232e-112,9.20273e-01,7.03908e-01,9.99998e-01
1.216442998e+00,7.19193e-97,9.99999e-01,1.06008e-96,9.31623e-01,7.08806e-01,9.99998e-01
1.222525213e+00,2.06560e-95,9.99999e-01,2.97775e-95,9.46328e-01,7.13641e-01,9.99999e-01
1.228637839e+00,1.23251e-73,9.99999e-01,1.76038e-73,9.62435e-01,7.18413e-01,9.99999e-01
