#,Wave/freq,Total,O2,CO2,H2O,Rayleigh,CIA
4.000000000e-01,1.75188e-07,9.99999e-01,9.99999e-01,9.99969e-01,1.75193e-07,9.99999e-01
4.020000000e-01,2.38287e-07,9.99999e-01,9.99999e-01,9.99980e-01,2.38291e-07,9.99999e-01
4.040100000e-01,3.22050e-07,9.99999e-01,9.99999e-01,9.99991e-01,3.22052e-07,9.99999e-01
4.060300500e-01,4.32673e-07,9.99999e-01,9.99999e-01,9.99997e-01,4.32674e-07,9.99999e-01
4.080602003e-01,5.77913e-07,9.99999e-01,9.99999e-01,9.99998e-01,5.77913e-07,9.99999e-01
4.101005013e-01,7.67505e-07,9.99999e-01,9.99999e-01,9.99999e-01,7.67505e-07,9.99999e-01
4.121510038e-01,1.01360e-06,9.99999e-01,9.99999e-01,9.99998e-01,1.01360e-06,9.99999e-01
4.142117588e-01,1.33126e-06,9.99999e-01,9.99999e-01,9.99990e-01,1.33127e-06,9.99999e-01
4.162828176e-01,1.73904e-06,9.99999e-01,9.99999e-01,9.99961e-01,1.73910e-06,9.99999e-01
4.183642317e-01,2.25987e-06,9.99999e-01,9.99999e-01,9.99977e-01,2.25992e-06,9.99999e-01
4.204560528e-01,2.92151e-06,9.99999e-01,9.99999e-01,9.99985e-01,2.92155e-06,9.99999e-01
4.225583331e-01,3.75776e-06,9.99999e-01,9.99999e-01,9.99994e-01,3.75778e-06,9.99999e-01
4.246711247e-01,4.80937e-06,9.99999e-01,9.99999e-01,9.99995e-01,4.80939e-06,9.99999e-01
4.267944804e-01,6.12533e-06,9.99999e-01,9.99999e-01,9.99993e-01,6.12537e-06,9.99999e-01
4.289284528e-01,7.76421e-06,9.99999e-01,9.99999e-01,9.99994e-01,7.76424e-06,9.99999e-01
4.310730950e-01,9.79561e-06,9.99999e-01,9.99999e-01,9.99997e-01,9.79563e-06,9.99999e-01
4.332284605e-01,1.23019e-05,9.99999e-01,9.99999e-01,9.99998e-01,1.23019e-05,9.99999e-01
4.353946028e-01,1.53800e-05,9.99999e-01,9.99999e-01,9.99999e-01,1.53800e-05,9.99999e-01
4.375715758e-01,1.91437e-05,9.99999e-01,9.99999e-01,9.99995e-01,1.91437e-05,9.99999e-01
4.397594337e-01,2.37249e-05,9.99999e-01,9.99999e-01,9.99965e-01,2.37257e-05,9.99999e-01
4.419582309e-01,2.92749e-05,9.99999e-01,9.99999e-01,9.99828e-01,2.92799e-05,9.99999e-01
4.441680220e-01,3.59798e-05,9.99999e-01,9.99999e-01,9.99869e-01,3.59845e-05,9.99999e-01
4.463888621e-01,4.40386e-05,9.99999e-01,9.99999e-01,9.99862e-01,4.40447e-05,9.99999e-01
4.486208064e-01,5.36909e-05,9.99999e-01,9.99999e-01,9.99915e-01,5.36954e-05,9.99999e-01
4.508639105e-01,6.52025e-05,9.99999e-01,9.99999e-01,9.99960e-01,6.52051e-05,9.99999e-01
4.531182300e-01,7.88775e-05,9.99999e-01,9.99999e-01,9.99983e-01,7.88787e-05,9.99999e-01
4.553838212e-01,9.50606e-05,9.99999e-01,9.99999e-01,9.99988e-01,9.50616e-05,9.99999e-01
4.576607403e-01,1.14142e-04,9.99999e-01,9.99999e-01,9.99994e-01,1.14143e-04,9.99999e-01
4.599490440e-01,1.36560e-04,9.99999e-01,9.99999e-01,9.99996e-01,1.36560e-04,9.99999e-01
4.622487892e-01,1.62803e-04,9.99999e-01,9.99999e-01,9.99998e-01,1.62803e-04,9.99999e-01
4.645600332e-01,1.93415e-04,9.99999e-01,9.99999e-01,9.99997e-01,1.93415e-04,9.99999e-01
4.668828333e-01,2.28994e-04,9.99999e-01,9.99999e-01,9.99959e-01,2.29003e-04,9.99999e-01
4.692172475e-01,2.70213e-04,9.99999e-01,9.99999e-01,9.99913e-01,2.70236e-04,9.99999e-01
4.715633337e-01,3.17835e-04,9.99999e-01,9.99999e-01,9.99943e-01,3.17852e-04,9.99999e-01
4.739211504e-01,3.72642e-04,9.99999e-01,9.99999e-01,9.99946e-01,3.72662e-04,9.99999e-01
4.762907561e-01,4.35540e-04,9.99999e-01,9.99999e-01,9.99971e-01,4.35552e-04,9.99999e-01
4.786722099e-01,5.07484e-04,9.99999e-01,9.99999e-01,9.99988e-01,5.07490e-04,9.99999e-01
4.810655710e-01,5.89525e-04,9.99999e-01,9.99999e-01,9.99996e-01,5.89527e-04,9.99999e-01
4.834708988e-01,6.82778e-04,9.99999e-01,9.99999e-01,9.99965e-01,6.82801e-04,9.99999e-01
4.858882533e-01,7.88494e-04,9.99999e-01,9.99999e-01,9.99939e-01,7.88542e-04,9.99999e-01
4.883176946e-01,9.08025e-04,9.99999e-01,9.99999e-01,9.99948e-01,9.08071e-04,9.99999e-01
4.907592831e-01,1.04276e-03,9.99999e-01,9.99999e-01,9.99953e-01,1.04281e-03,9.99999e-01
4.932130795e-01,1.19423e-03,9.99999e-01,9.99999e-01,9.99967e-01,1.19427e-03,9.99999e-01
4.956791449e-01,1.36405e-03,9.99999e-01,9.99999e-01,9.99982e-01,1.36407e-03,9.99999e-01
4.981575406e-01,1.55379e-03,9.99999e-01,9.99999e-01,9.99912e-01,1.55393e-03,9.99999e-01
5.006483283e-01,1.76526e-03,9.99999e-01,9.99999e-01,9.99773e-01,1.76566e-03,9.99999e-01
5.031515699e-01,1.99892e-03,9.99999e-01,9.99999e-01,9.98864e-01,2.00119e-03,9.99999e-01
5.056673278e-01,2.26118e-03,9.99999e-01,9.99999e-01,9.99403e-01,2.26253e-03,9.99999e-01
5.081956644e-01,2.54988e-03,9.99999e-01,9.99999e-01,9.99247e-01,2.55180e-03,9.99999e-01
5.107366428e-01,2.86978e-03,9.99999e-01,9.99999e-01,9.99492e-01,2.87123e-03,9.99999e-01
5.132903260e-01,3.22220e-03,9.99999e-01,9.99999e-01,9.99710e-01,3.22313e-03,9.99999e-01
5.158567776e-01,3.60946e-03,9.99999e-01,9.99999e-01,9.99877e-01,3.60990e-03,9.99999e-01
5.184360615e-01,4.03385e-03,9.99999e-01,9.99999e-01,9.99950e-01,4.03405e-03,9.99999e-01
5.210282418e-01,4.49806e-03,9.99999e-01,9.99999e-01,9.99981e-01,4.49815e-03,9.99999e-01
5.236333830e-01,5.00449e-03,9.99999e-01,9.99999e-01,9.99925e-01,5.00486e-03,9.99999e-01
5.262515499e-01,5.55667e-03,9.99999e-01,9.99999e-01,9.99953e-01,5.55693e-03,9.99999e-01
5.288828077e-01,6.15689e-03,9.99999e-01,9.99999e-01,9.99956e-01,6.15715e-03,9.99999e-01
5.315272217e-01,6.80815e-03,9.99999e-01,9.99999e-01,9.99962e-01,6.80840e-03,9.99999e-01
5.341848578e-01,7.51341e-03,9.99999e-01,9.99999e-01,9.99975e-01,7.51359e-03,9.99999e-01
5.368557821e-01,8.27499e-03,9.99999e-01,9.99999e-01,9.99913e-01,8.27570e-03,9.99999e-01
5.395400610e-01,9.09488e-03,9.99999e-01,9.99999e-01,9.99685e-01,9.09774e-03,9.99999e-01
5.422377613e-01,9.97875e-03,9.99999e-01,9.99999e-01,9.99600e-01,9.98273e-03,9.99999e-01
5.449489501e-01,1.09297e-02,9.99999e-01,9.99999e-01,9.99624e-01,1.09338e-02,9.99999e-01
5.476736949e-01,1.19499e-02,9.99999e-01,9.99999e-01,9.99671e-01,1.19539e-02,9.99999e-01
5.504120634e-01,1.30430e-02,9.99999e-01,9.99999e-01,9.99760e-01,1.30462e-02,9.99999e-01
5.531641237e-01,1.42120e-02,9.99999e-01,9.99999e-01,9.99879e-01,1.42137e-02,9.99999e-01
5.559299443e-01,1.54586e-02,9.99999e-01,9.99999e-01,9.99941e-01,1.54595e-02,9.99999e-01
5.587095940e-01,1.67860e-02,9.99999e-01,9.99999e-01,9.99963e-01,1.67866e-02,9.99999e-01
5.615031420e-01,1.81973e-02,9.99999e-01,9.99999e-01,9.99958e-01,1.81980e-02,9.99999e-01
5.643106577e-01,1.96958e-02,9.99999e-01,9.99999e-01,9.99952e-01,1.96967e-02,9.99999e-01
5.671322110e-01,2.12733e-02,9.99999e-01,9.99999e-01,9.99427e-01,2.12855e-02,9.99999e-01
5.699678720e-01,2.29536e-02,9.99999e-01,9.99999e-01,9.99410e-01,2.29672e-02,9.99999e-01
5.728177114e-01,2.47292e-02,9.99999e-01,9.99999e-01,9.99377e-01,2.47446e-02,9.99999e-01
5.756818000e-01,2.66051e-02,9.99999e-01,9.99999e-01,9.99430e-01,2.66203e-02,9.99999e-01
5.785602090e-01,2.85827e-02,9.99999e-01,9.99999e-01,9.99504e-01,2.85969e-02,9.99999e-01
5.814530100e-01,3.06615e-02,9.99999e-01,9.99999e-01,9.99501e-01,3.06768e-02,9.99999e-01
5.843602750e-01,3.28427e-02,9.99999e-01,9.99999e-01,9.99400e-01,3.28624e-02,9.99999e-01
5.872820764e-01,3.49748e-02,9.99999e-01,9.99999e-01,9.94848e-01,3.51559e-02,9.99999e-01
5.902184868e-01,3.73274e-02,9.99999e-01,9.99999e-01,9.93822e-01,3.75594e-02,9.99999e-01
5.931695792e-01,3.98992e-02,9.99999e-01,9.99999e-01,9.95618e-01,4.00748e-02,9.99999e-01
5.961354271e-01,4.24994e-02,9.99999e-01,9.99999e-01,9.95209e-01,4.27039e-02,9.99999e-01
5.991161043e-01,4.52898e-02,9.99999e-01,9.99999e-01,9.96509e-01,4.54485e-02,9.99999e-01
6.021116848e-01,4.82144e-02,9.99999e-01,9.99999e-01,9.98020e-01,4.83100e-02,9.99999e-01
6.051222432e-01,5.12384e-02,9.99999e-01,9.99999e-01,9.98998e-01,5.12897e-02,9.99999e-01
6.081478544e-01,5.43654e-02,9.99999e-01,9.99999e-01,9.99567e-01,5.43889e-02,9.99999e-01
6.111885937e-01,5.75981e-02,9.99999e-01,9.99999e-01,9.99817e-01,5.76086e-02,9.99999e-01
6.142445367e-01,6.09446e-02,9.99999e-01,9.99999e-01,9.99917e-01,6.09496e-02,9.99999e-01
6.173157594e-01,6.44096e-02,9.99999e-01,9.99999e-01,9.99954e-01,6.44125e-02,9.99999e-01
6.204023382e-01,6.79954e-02,9.99999e-01,9.99999e-01,9.99961e-01,6.79980e-02,9.99999e-01
6.235043498e-01,7.16940e-02,9.99999e-01,9.99999e-01,9.99827e-01,7.17063e-02,9.99999e-01
6.266218716e-01,7.54701e-02,9.99999e-01,9.99999e-01,9.99106e-01,7.55375e-02,9.99999e-01
6.297549810e-01,7.94657e-02,9.99999e-01,9.99999e-01,9.99672e-01,7.94917e-02,9.99999e-01
6.329037559e-01,8.35147e-02,9.99999e-01,9.99999e-01,9.99354e-01,8.35686e-02,9.99999e-01
6.360682746e-01,8.77194e-02,9.99999e-01,9.99999e-01,9.99447e-01,8.77679e-02,9.99999e-01
6.392486160e-01,9.20232e-02,9.99999e-01,9.99999e-01,9.99285e-01,9.20889e-02,9.99999e-01
6.424448591e-01,9.64379e-02,9.99999e-01,9.99999e-01,9.99035e-01,9.65310e-02,9.99999e-01
6.456570834e-01,1.00641e-01,9.99999e-01,9.99999e-01,9.95529e-01,1.01093e-01,9.99999e-01
6.488853688e-01,1.05433e-01,9.99999e-01,9.99999e-01,9.96766e-01,1.05775e-01,9.99999e-01
6.521297956e-01,1.10209e-01,9.99999e-01,9.99999e-01,9.96704e-01,1.10574e-01,9.99999e-01
6.553904446e-01,1.15109e-01,9.99999e-01,9.99999e-01,9.96701e-01,1.15489e-01,9.99999e-01
6.586673968e-01,1.20181e-01,9.99999e-01,9.99999e-01,9.97188e-01,1.20520e-01,9.99999e-01
6.619607338e-01,1.25467e-01,9.99999e-01,9.99999e-01,9.98433e-01,1.25664e-01,9.99999e-01
6.652705375e-01,1.30796e-01,9.99999e-01,9.99999e-01,9.99059e-01,1.30919e-01,9.99999e-01
6.685968902e-01,1.36230e-01,9.99999e-01,9.99999e-01,9.99600e-01,1.36284e-01,9.99999e-01
6.719398746e-01,1.41727e-01,9.99999e-01,9.99999e-01,9.99797e-01,1.41756e-01,9.99999e-01
6.752995740e-01,1.47318e-01,9.99999e-01,9.99999e-01,9.99892e-01,1.47333e-01,9.99999e-01
6.786760719e-01,1.52989e-01,9.99999e-01,9.99999e-01,9.99839e-01,1.53013e-01,9.99999e-01
6.820694522e-01,1.58750e-01,9.99999e-01,9.99999e-01,9.99724e-01,1.58793e-01,9.99999e-01
6.854797995e-01,1.64613e-01,9.99999e-01,9.99999e-01,9.99647e-01,1.64671e-01,9.99999e-01
6.889071985e-01,1.70497e-01,9.99999e-01,9.99999e-01,9.99134e-01,1.70644e-01,9.99999e-01
6.923517345e-01,1.74252e-01,9.99999e-01,9.99999e-01,9.86090e-01,1.76710e-01,9.99999e-01
6.958134932e-01,1.81568e-01,9.99999e-01,9.99999e-01,9.92914e-01,1.82864e-01,9.99999e-01
6.992925606e-01,1.87802e-01,9.99999e-01,9.99999e-01,9.93109e-01,1.89105e-01,9.99999e-01
7.027890234e-01,1.93783e-01,9.99999e-01,9.99999e-01,9.91574e-01,1.95430e-01,9.99999e-01
7.063029686e-01,2.00402e-01,9.99999e-01,9.99999e-01,9.92904e-01,2.01834e-01,9.99999e-01
7.098344834e-01,2.06898e-01,9.99999e-01,9.99999e-01,9.93191e-01,2.08316e-01,9.99999e-01
7.133836558e-01,2.12897e-01,9.99999e-01,9.99999e-01,9.90809e-01,2.14872e-01,9.99999e-01
7.169505741e-01,2.05759e-01,9.99999e-01,9.99999e-01,9.28938e-01,2.21499e-01,9.99998e-01
7.205353270e-01,2.20270e-01,9.99999e-01,9.99999e-01,9.65283e-01,2.28193e-01,9.99998e-01
7.241380036e-01,2.24452e-01,9.99999e-01,9.99999e-01,9.55315e-01,2.34951e-01,9.99998e-01
7.277586936e-01,2.32011e-01,9.99999e-01,9.99999e-01,9.59636e-01,2.41769e-01,9.99998e-01
7.313974871e-01,2.38058e-01,9.99999e-01,9.99999e-01,9.57419e-01,2.48646e-01,9.99998e-01
7.350544745e-01,2.49561e-01,9.99999e-01,9.99999e-01,9.76467e-01,2.55576e-01,9.99999e-01
7.387297469e-01,2.57999e-01,9.99999e-01,9.99999e-01,9.82643e-01,2.62556e-01,9.99999e-01
7.424233956e-01,2.67291e-01,9.99999e-01,9.99999e-01,9.91493e-01,2.69584e-01,9.99999e-01
7.461355126e-01,2.75225e-01,9.99999e-01,9.99999e-01,9.94828e-01,2.76656e-01,9.99999e-01
7.498661902e-01,2.83086e-01,9.99999e-01,9.99999e-01,9.97597e-01,2.83767e-01,9.99999e-01
7.536155211e-01,2.90572e-01,9.99999e-01,9.99999e-01,9.98816e-01,2.90916e-01,9.99999e-01
7.573835987e-01,2.97917e-01,9.99999e-01,9.99999e-01,9.99391e-01,2.98098e-01,9.99999e-01
7.611705167e-01,3.05195e-01,9.99999e-01,9.99999e-01,9.99621e-01,3.05311e-01,9.99999e-01
7.649763693e-01,3.12476e-01,9.99999e-01,9.99999e-01,9.99762e-01,3.12550e-01,9.99999e-01
7.688012511e-01,3.19760e-01,9.99999e-01,9.99999e-01,9.99833e-01,3.19813e-01,9.99999e-01
7.726452574e-01,3.27052e-01,9.99999e-01,9.99999e-01,9.99863e-01,3.27097e-01,9.99999e-01
7.765084837e-01,3.34332e-01,9.99999e-01,9.99999e-01,9.99804e-01,3.34397e-01,9.99999e-01
7.803910261e-01,3.24270e-01,9.99999e-01,9.49726e-01,9.99153e-01,3.41711e-01,9.99999e-01
7.842929812e-01,2.78723e-01,9.99999e-01,8.00754e-01,9.97047e-01,3.49036e-01,9.99999e-01
7.882144461e-01,2.79030e-01,9.99999e-01,7.87452e-01,9.93982e-01,3.56369e-01,9.99999e-01
7.921555184e-01,3.14749e-01,9.99999e-01,8.68146e-01,9.96715e-01,3.63707e-01,9.99999e-01
7.961162960e-01,3.35765e-01,9.99999e-01,9.10193e-01,9.94126e-01,3.71046e-01,9.99999e-01
8.000968774e-01,3.57108e-01,9.99999e-01,9.50146e-01,9.93262e-01,3.78384e-01,9.99999e-01
8.040973618e-01,3.73146e-01,9.99999e-01,9.73963e-01,9.93249e-01,3.85717e-01,9.99999e-01
8.081178486e-01,3.82379e-01,9.99999e-01,9.87908e-01,9.84739e-01,3.93044e-01,9.99999e-01
8.121584379e-01,3.74185e-01,9.99999e-01,9.96294e-01,9.38043e-01,4.00361e-01,9.99998e-01
8.162192301e-01,3.77885e-01,9.99999e-01,9.99179e-01,9.27687e-01,4.07666e-01,9.99998e-01
8.203003262e-01,3.99475e-01,9.99999e-01,9.99988e-01,9.62702e-01,4.14956e-01,9.99998e-01
8.244018279e-01,4.01001e-01,9.99999e-01,9.99999e-01,9.49726e-01,4.22229e-01,9.99998e-01
8.285238370e-01,4.10529e-01,9.99999e-01,9.99999e-01,9.55871e-01,4.29481e-01,9.99998e-01
8.326664562e-01,4.17327e-01,9.99999e-01,9.99999e-01,9.55613e-01,4.36711e-01,9.99998e-01
8.368297885e-01,4.29774e-01,9.99999e-01,9.99999e-01,9.68140e-01,4.43916e-01,9.99999e-01
8.410139374e-01,4.42506e-01,9.99999e-01,9.99999e-01,9.80958e-01,4.51095e-01,9.99999e-01
8.452190071e-01,4.53952e-01,9.99999e-01,9.99999e-01,9.90632e-01,4.58244e-01,9.99999e-01
8.494451021e-01,4.62819e-01,9.99999e-01,9.99999e-01,9.94533e-01,4.65362e-01,9.99999e-01
8.536923276e-01,4.70924e-01,9.99999e-01,9.99999e-01,9.96776e-01,4.72447e-01,9.99999e-01
8.579607893e-01,4.78541e-01,9.99999e-01,9.99999e-01,9.98007e-01,4.79496e-01,9.99999e-01
8.622505932e-01,4.85895e-01,9.99999e-01,9.99999e-01,9.98736e-01,4.86509e-01,9.99999e-01
8.665618462e-01,4.45173e-01,9.99999e-01,9.02778e-01,9.99215e-01,4.93482e-01,9.99999e-01
8.708946554e-01,2.84966e-01,9.99999e-01,5.69948e-01,9.99099e-01,5.00415e-01,9.99999e-01
8.752491287e-01,3.21447e-01,9.99999e-01,6.34368e-01,9.98796e-01,5.07305e-01,9.99999e-01
8.796253743e-01,3.99118e-01,9.99999e-01,7.77509e-01,9.98327e-01,5.14151e-01,9.99999e-01
8.840235012e-01,4.56084e-01,9.99999e-01,8.77119e-01,9.98092e-01,5.20952e-01,9.99999e-01
8.884436187e-01,4.97707e-01,9.99999e-01,9.49786e-01,9.92914e-01,5.27705e-01,9.99999e-01
8.928858368e-01,4.86246e-01,9.99999e-01,9.79298e-01,9.28855e-01,5.34410e-01,9.99998e-01
8.973502660e-01,4.73208e-01,9.99999e-01,9.94964e-01,8.78880e-01,5.41066e-01,9.99997e-01
9.018370173e-01,5.12779e-01,9.99999e-01,9.99445e-01,9.36788e-01,5.47670e-01,9.99997e-01
9.063462024e-01,5.15388e-01,9.99999e-01,9.85357e-01,9.43112e-01,5.54222e-01,9.99997e-01
9.108779334e-01,4.95674e-01,9.99999e-01,9.67450e-01,9.13193e-01,5.60721e-01,9.99997e-01
9.154323231e-01,5.07871e-01,9.99999e-01,9.92357e-01,9.02136e-01,5.67165e-01,9.99996e-01
9.200094847e-01,4.76251e-01,9.99999e-01,8.94491e-01,9.22761e-01,5.73554e-01,9.99996e-01
9.246095321e-01,4.35896e-01,9.99999e-01,8.50485e-01,8.80180e-01,5.79887e-01,9.99993e-01
9.292325798e-01,2.29163e-01,9.99999e-01,8.80003e-01,4.36191e-01,5.86162e-01,9.99987e-01
9.338787427e-01,1.85421e-01,9.99999e-01,8.84662e-01,3.47889e-01,5.92379e-01,9.99983e-01
9.385481364e-01,3.59476e-01,9.99999e-01,9.13667e-01,6.52629e-01,5.98538e-01,9.99983e-01
9.432408771e-01,3.17736e-01,9.99999e-01,9.46307e-01,5.52991e-01,6.04637e-01,9.99981e-01
9.479570815e-01,2.64428e-01,9.99999e-01,9.72018e-01,4.44527e-01,6.10676e-01,9.99983e-01
9.526968669e-01,3.30341e-01,9.99999e-01,9.86446e-01,5.42199e-01,6.16654e-01,9.99987e-01
9.574603512e-01,3.49289e-01,9.99999e-01,9.94187e-01,5.64015e-01,6.22570e-01,9.99990e-01
9.622476530e-01,3.93303e-01,9.99999e-01,9.98186e-01,6.26897e-01,6.28426e-01,9.99993e-01
9.670588912e-01,4.83719e-01,9.99999e-01,9.99457e-01,7.63087e-01,6.34218e-01,9.99995e-01
9.718941857e-01,5.39668e-01,9.99999e-01,9.99962e-01,8.43329e-01,6.39949e-01,9.99997e-01
9.767536566e-01,5.60399e-01,9.99999e-01,9.99999e-01,8.68008e-01,6.45616e-01,9.99997e-01
9.816374249e-01,5.86479e-01,9.99999e-01,9.99999e-01,9.00585e-01,6.51220e-01,9.99998e-01
9.865456120e-01,6.15160e-01,9.99999e-01,9.99999e-01,9.36657e-01,6.56760e-01,9.99999e-01
9.914783401e-01,6.35962e-01,9.99999e-01,9.99999e-01,9.60322e-01,6.62237e-01,9.99999e-01
9.964357318e-01,6.53096e-01,9.99999e-01,9.99999e-01,9.78200e-01,6.67650e-01,9.99999e-01
1.001417910e+00,6.64174e-01,9.99999e-01,9.99999e-01,9.86886e-01,6.72999e-01,9.99999e-01
1.006425000e+00,6.73188e-01,9.99999e-01,9.99999e-01,9.92485e-01,6.78284e-01,9.99999e-01
1.011457125e+00,6.80323e-01,9.99999e-01,9.99999e-01,9.95343e-01,6.83505e-01,9.99999e-01
1.016514411e+00,6.86480e-01,9.99999e-01,9.99999e-01,9.96831e-01,6.88662e-01,9.99999e-01
1.021596983e+00,6.91940e-01,9.99999e-01,9.99909e-01,9.97472e-01,6.93754e-01,9.99999e-01
1.026704968e+00,6.93379e-01,9.99999e-01,9.94222e-01,9.98027e-01,6.98783e-01,9.99999e-01
1.031838492e+00,6.58805e-01,9.99999e-01,9.37423e-01,9.98569e-01,7.03748e-01,9.99999e-01
1.036997685e+00,7.29362e-02,9.99999e-01,1.02991e-01,9.99147e-01,7.08648e-01,9.99999e-01
1.042182673e+00,3.37667e-02,9.99999e-01,4.73674e-02,9.98979e-01,7.13486e-01,9.99999e-01
1.047393587e+00,4.96386e-02,9.99999e-01,6.91904e-02,9.98650e-01,7.18259e-01,9.99999e-01
1.052630555e+00,3.28457e-04,9.99999e-01,4.54901e-04,9.98145e-01,7.22970e-01,9.99999e-01
1.057893707e+00,1.04491e-03,9.99999e-01,1.43882e-03,9.96900e-01,7.27617e-01,9.99999e-01
1.063183176e+00,5.60898e-03,9.99999e-01,7.68641e-03,9.94909e-01,7.32201e-01,9.99999e-01
1.068499092e+00,2.24140e-02,9.99999e-01,3.06290e-02,9.91503e-01,7.36723e-01,9.99999e-01
1.073841587e+00,8.09535e-02,9.99999e-01,1.10114e-01,9.90042e-01,7.41183e-01,9.99999e-01
1.079210795e+00,1.82373e-01,9.99999e-01,2.47357e-01,9.87301e-01,7.45581e-01,9.99999e-01
1.084606849e+00,3.39647e-01,9.99999e-01,4.61196e-01,9.80802e-01,7.49917e-01,9.99998e-01
1.090029883e+00,4.90503e-01,9.99999e-01,6.68104e-01,9.72348e-01,7.54192e-01,9.99998e-01
1.095480033e+00,5.76887e-01,9.99999e-01,8.19895e-01,9.26623e-01,7.58407e-01,9.99997e-01
1.100957433e+00,5.72025e-01,9.99999e-01,9.08601e-01,8.24368e-01,7.62560e-01,9.99996e-01
1.106462220e+00,4.53853e-01,9.99999e-01,9.61195e-01,6.14620e-01,7.66654e-01,9.99992e-01
1.111994531e+00,2.77507e-01,9.99999e-01,9.85432e-01,3.64860e-01,7.70689e-01,9.99985e-01
1.117554504e+00,1.54082e-01,9.99999e-01,9.96445e-01,1.99437e-01,7.74664e-01,9.99979e-01
1.123142276e+00,2.46960e-01,9.99999e-01,9.99767e-01,3.17224e-01,7.78581e-01,9.99975e-01
1.128757988e+00,3.66222e-01,9.99999e-01,9.99999e-01,4.68064e-01,7.82440e-01,9.99973e-01
1.134401778e+00,1.87745e-01,9.99999e-01,9.99999e-01,2.38795e-01,7.86240e-01,9.99970e-01
1.140073787e+00,4.97952e-01,9.99999e-01,9.99999e-01,6.30346e-01,7.89984e-01,9.99975e-01
1.145774156e+00,3.10057e-01,9.99999e-01,9.99999e-01,3.90669e-01,7.93671e-01,9.99979e-01
1.151503026e+00,2.81385e-01,9.99999e-01,9.99999e-01,3.52926e-01,7.97302e-01,9.99982e-01
1.157260541e+00,3.28585e-01,9.99999e-01,9.99999e-01,4.10286e-01,8.00878e-01,9.99986e-01
1.163046844e+00,4.15934e-01,9.99999e-01,9.99999e-01,5.17079e-01,8.04398e-01,9.99991e-01
1.168862078e+00,5.08831e-01,9.99999e-01,9.99999e-01,6.29849e-01,8.07864e-01,9.99995e-01
1.174706389e+00,6.09739e-01,9.99999e-01,9.99999e-01,7.51581e-01,8.11276e-01,9.99997e-01
1.180579921e+00,6.84482e-01,9.99999e-01,9.99999e-01,8.40233e-01,8.14634e-01,9.99998e-01
1.186482820e+00,7.41118e-01,9.99999e-01,9.99985e-01,9.06090e-01,8.17940e-01,9.99998e-01
1.192415234e+00,7.59630e-01,9.99999e-01,9.79581e-01,9.43989e-01,8.21193e-01,9.99998e-01
1.198377311e+00,4.34112e-01,9.99999e-01,5.48393e-01,9.52497e-01,8.24395e-01,9.99998e-01
1.204369197e+00,9.38551e-16,9.99999e-01,1.16469e-15,9.55065e-01,8.27545e-01,9.99998e-01
1.210391043e+00,3.14835e-60,9.99999e-01,3.88399e-60,9.56980e-01,8.30645e-01,9.99998e-01
1.216442998e+00,2.82617e-52,9.99999e-01,3.46934e-52,9.63371e-01,8.33695e-01,9.99999e-01
1.222525213e+00,1.66812e-51,9.99999e-01,2.02383e-51,9.71331e-01,8.36696e-01,9.99999e-01
1.228637839e+00,7.06294e-40,9.99999e-01,8.52869e-40,9.79991e-01,8.39648e-01,9.99999e-01
