#,Wave/freq,Total,O2,CO2,H2O,Rayleigh,CIA
4.000000000e-01,6.66384e-09,9.99999e-01,9.99999e-01,9.99962e-01,6.66408e-09,9.99999e-01
4.020000000e-01,9.66933e-09,9.99999e-01,9.99999e-01,9.99976e-01,9.66955e-09,9.99999e-01
4.040100000e-01,1.39223e-08,9.99999e-01,9.99999e-01,9.99989e-01,1.39224e-08,9.99999e-01
4.060300500e-01,1.99019e-08,9.99999e-01,9.99999e-01,9.99997e-01,1.99020e-08,9.99999e-01
4.080602003e-01,2.82495e-08,9.99999e-01,9.99999e-01,9.99998e-01,2.82495e-08,9.99999e-01
4.101005013e-01,3.98220e-08,9.99999e-01,9.99999e-01,9.99999e-01,3.98220e-08,9.99999e-01
4.121510038e-01,5.57555e-08,9.99999e-01,9.99999e-01,9.99998e-01,5.57556e-08,9.99999e-01
4.142117588e-01,7.75466e-08,9.99999e-01,9.99999e-01,9.99989e-01,7.75474e-08,9.99999e-01
4.162828176e-01,1.07151e-07,9.99999e-01,9.99999e-01,9.99953e-01,1.07156e-07,9.99999e-01
4.183642317e-01,1.47122e-07,9.99999e-01,9.99999e-01,9.99972e-01,1.47126e-07,9.99999e-01
4.204560528e-01,2.00742e-07,9.99999e-01,9.99999e-01,9.99982e-01,2.00745e-07,9.99999e-01
4.225583331e-01,2.72228e-07,9.99999e-01,9.99999e-01,9.99993e-01,2.72229e-07,9.99999e-01
4.246711247e-01,3.66952e-07,9.99999e-01,9.99999e-01,9.99994e-01,3.66954e-07,9.99999e-01
4.267944804e-01,4.91726e-07,9.99999e-01,9.99999e-01,9.99992e-01,4.91729e-07,9.99999e-01
4.289284528e-01,6.55130e-07,9.99999e-01,9.99999e-01,9.99993e-01,6.55134e-07,9.99999e-01
4.310730950e-01,8.67904e-07,9.99999e-01,9.99999e-01,9.99997e-01,8.67906e-07,9.99999e-01
4.332284605e-01,1.14341e-06,9.99999e-01,9.99999e-01,9.99998e-01,1.14341e-06,9.99999e-01
4.353946028e-01,1.49819e-06,9.99999e-01,9.99999e-01,9.99999e-01,1.49819e-06,9.99999e-01
4.375715758e-01,1.95260e-06,9.99999e-01,9.99999e-01,9.99994e-01,1.95261e-06,9.99999e-01
4.397594337e-01,2.53147e-06,9.99999e-01,9.99999e-01,9.99959e-01,2.53157e-06,9.99999e-01
4.419582309e-01,3.26473e-06,9.99999e-01,9.99999e-01,9.99794e-01,3.26540e-06,9.99999e-01
4.441680220e-01,4.19017e-06,9.99999e-01,9.99999e-01,9.99841e-01,4.19083e-06,9.99999e-01
4.463888621e-01,5.35120e-06,9.99999e-01,9.99999e-01,9.99834e-01,5.35208e-06,9.99999e-01
4.486208064e-01,6.80147e-06,9.99999e-01,9.99999e-01,9.99897e-01,6.80217e-06,9.99999e-01
4.508639105e-01,8.60389e-06,9.99999e-01,9.99999e-01,9.99951e-01,8.60430e-06,9.99999e-01
4.531182300e-01,1.08333e-05,9.99999e-01,9.99999e-01,9.99980e-01,1.08335e-05,9.99999e-01
4.553838212e-01,1.35781e-05,9.99999e-01,9.99999e-01,9.99986e-01,1.35782e-05,9.99999e-01
4.576607403e-01,1.69426e-05,9.99999e-01,9.99999e-01,9.99993e-01,1.69427e-05,9.99999e-01
4.599490440e-01,2.10484e-05,9.99999e-01,9.99999e-01,9.99995e-01,2.10485e-05,9.99999e-01
4.622487892e-01,2.60375e-05,9.99999e-01,9.99999e-01,9.99998e-01,2.60375e-05,9.99999e-01
4.645600332e-01,3.20738e-05,9.99999e-01,9.99999e-01,9.99996e-01,3.20739e-05,9.99999e-01
4.668828333e-01,3.93456e-05,9.99999e-01,9.99999e-01,9.99950e-01,3.93475e-05,9.99999e-01
4.692172475e-01,4.80710e-05,9.99999e-01,9.99999e-01,9.99895e-01,4.80760e-05,9.99999e-01
4.715633337e-01,5.85048e-05,9.99999e-01,9.99999e-01,9.99931e-01,5.85087e-05,9.99999e-01
4.739211504e-01,7.09252e-05,9.99999e-01,9.99999e-01,9.99934e-01,7.09298e-05,9.99999e-01
4.762907561e-01,8.56585e-05,9.99999e-01,9.99999e-01,9.99965e-01,8.56614e-05,9.99999e-01
4.786722099e-01,1.03066e-04,9.99999e-01,9.99999e-01,9.99985e-01,1.03068e-04,9.99999e-01
4.810655710e-01,1.23558e-04,9.99999e-01,9.99999e-01,9.99995e-01,1.23559e-04,9.99999e-01
4.834708988e-01,1.47588e-04,9.99999e-01,9.99999e-01,9.99959e-01,1.47594e-04,9.99999e-01
4.858882533e-01,1.75674e-04,9.99999e-01,9.99999e-01,9.99926e-01,1.75687e-04,9.99999e-01
4.883176946e-01,2.08395e-04,9.99999e-01,9.99999e-01,9.99938e-01,2.08408e-04,9.99999e-01
4.907592831e-01,2.46378e-04,9.99999e-01,9.99999e-01,9.99944e-01,2.46391e-04,9.99999e-01
4.932130795e-01,2.90324e-04,9.99999e-01,9.99999e-01,9.99960e-01,2.90335e-04,9.99999e-01
4.956791449e-01,3.41002e-04,9.99999e-01,9.99999e-01,9.99978e-01,3.41009e-04,9.99999e-01
4.981575406e-01,3.99215e-04,9.99999e-01,9.99999e-01,9.99895e-01,3.99257e-04,9.99999e-01
5.006483283e-01,4.65874e-04,9.99999e-01,9.99999e-01,9.99728e-01,4.66000e-04,9.99999e-01
5.031515699e-01,5.41500e-04,9.99999e-01,9.99999e-01,9.98628e-01,5.42243e-04,9.99999e-01
5.056673278e-01,6.28619e-04,9.99999e-01,9.99999e-01,9.99277e-01,6.29074e-04,9.99999e-01
5.081956644e-01,7.27008e-04,9.99999e-01,9.99999e-01,9.99088e-01,7.27671e-04,9.99999e-01
5.107366428e-01,8.38788e-04,9.99999e-01,9.99999e-01,9.99384e-01,8.39305e-04,9.99999e-01
5.132903260e-01,9.65000e-04,9.99999e-01,9.99999e-01,9.99648e-01,9.65339e-04,9.99999e-01
5.158567776e-01,1.10707e-03,9.99999e-01,9.99999e-01,9.99851e-01,1.10724e-03,9.99999e-01
5.184360615e-01,1.26648e-03,9.99999e-01,9.99999e-01,9.99940e-01,1.26655e-03,9.99999e-01
5.210282418e-01,1.44492e-03,9.99999e-01,9.99999e-01,9.99977e-01,1.44495e-03,9.99999e-01
5.236333830e-01,1.64405e-03,9.99999e-01,9.99999e-01,9.99910e-01,1.64420e-03,9.99999e-01
5.262515499e-01,1.86604e-03,9.99999e-01,9.99999e-01,9.99943e-01,1.86615e-03,9.99999e-01
5.288828077e-01,2.11266e-03,9.99999e-01,9.99999e-01,9.99948e-01,2.11276e-03,9.99999e-01
5.315272217e-01,2.38601e-03,9.99999e-01,9.99999e-01,9.99954e-01,2.38612e-03,9.99999e-01
5.341848578e-01,2.68829e-03,9.99999e-01,9.99999e-01,9.99970e-01,2.68837e-03,9.99999e-01
5.368557821e-01,3.02147e-03,9.99999e-01,9.99999e-01,9.99895e-01,3.02178e-03,9.99999e-01
5.395400610e-01,3.38743e-03,9.99999e-01,9.99999e-01,9.99622e-01,3.38871e-03,9.99999e-01
5.422377613e-01,3.78976e-03,9.99999e-01,9.99999e-01,9.99515e-01,3.79159e-03,9.99999e-01
5.449489501e-01,4.23107e-03,9.99999e-01,9.99999e-01,9.99547e-01,4.23298e-03,9.99999e-01
5.476736949e-01,4.71360e-03,9.99999e-01,9.99999e-01,9.99600e-01,4.71548e-03,9.99999e-01
5.504120634e-01,5.24027e-03,9.99999e-01,9.99999e-01,9.99710e-01,5.24179e-03,9.99999e-01
5.531641237e-01,5.81383e-03,9.99999e-01,9.99999e-01,9.99853e-01,5.81467e-03,9.99999e-01
5.559299443e-01,6.43652e-03,9.99999e-01,9.99999e-01,9.99929e-01,6.43697e-03,9.99999e-01
5.587095940e-01,7.11126e-03,9.99999e-01,9.99999e-01,9.99955e-01,7.11157e-03,9.99999e-01
5.615031420e-01,7.84103e-03,9.99999e-01,9.99999e-01,9.99950e-01,7.84142e-03,9.99999e-01
5.643106577e-01,8.62901e-03,9.99999e-01,9.99999e-01,9.99943e-01,8.62949e-03,9.99999e-01
5.671322110e-01,9.47237e-03,9.99999e-01,9.99999e-01,9.99317e-01,9.47883e-03,9.99999e-01
5.699678720e-01,1.03850e-02,9.99999e-01,9.99999e-01,9.99281e-01,1.03925e-02,9.99999e-01
5.728177114e-01,1.13649e-02,9.99999e-01,9.99999e-01,9.99248e-01,1.13735e-02,9.99999e-01
5.756818000e-01,1.24164e-02,9.99999e-01,9.99999e-01,9.99311e-01,1.24249e-02,9.99999e-01
5.785602090e-01,1.35418e-02,9.99999e-01,9.99999e-01,9.99399e-01,1.35499e-02,9.99999e-01
5.814530100e-01,1.47426e-02,9.99999e-01,9.99999e-01,9.99396e-01,1.47515e-02,9.99999e-01
5.843602750e-01,1.60211e-02,9.99999e-01,9.99999e-01,9.99279e-01,1.60327e-02,9.99999e-01
5.872820764e-01,1.72887e-02,9.99999e-01,9.99999e-01,9.93804e-01,1.73965e-02,9.99999e-01
5.902184868e-01,1.87049e-02,9.99999e-01,9.99999e-01,9.92518e-01,1.88459e-02,9.99999e-01
5.931695792e-01,2.02759e-02,9.99999e-01,9.99999e-01,9.94706e-01,2.03838e-02,9.99999e-01
5.961354271e-01,2.18855e-02,9.99999e-01,9.99999e-01,9.94201e-01,2.20131e-02,9.99999e-01
5.991161043e-01,2.36361e-02,9.99999e-01,9.99999e-01,9.95769e-01,2.37365e-02,9.99999e-01
6.021116848e-01,2.54955e-02,9.99999e-01,9.99999e-01,9.97598e-01,2.55568e-02,9.99999e-01
6.051222432e-01,2.74432e-02,9.99999e-01,9.99999e-01,9.98784e-01,2.74766e-02,9.99999e-01
6.081478544e-01,2.94828e-02,9.99999e-01,9.99999e-01,9.99475e-01,2.94983e-02,9.99999e-01
6.111885937e-01,3.16174e-02,9.99999e-01,9.99999e-01,9.99777e-01,3.16244e-02,9.99999e-01
6.142445367e-01,3.38538e-02,9.99999e-01,9.99999e-01,9.99900e-01,3.38571e-02,9.99999e-01
6.173157594e-01,3.61968e-02,9.99999e-01,9.99999e-01,9.99944e-01,3.61987e-02,9.99999e-01
6.204023382e-01,3.86494e-02,9.99999e-01,9.99999e-01,9.99953e-01,3.86512e-02,9.99999e-01
6.235043498e-01,4.12079e-02,9.99999e-01,9.99999e-01,9.99794e-01,4.12164e-02,9.99999e-01
6.266218716e-01,4.38487e-02,9.99999e-01,9.99999e-01,9.98920e-01,4.38961e-02,9.99999e-01
6.297549810e-01,4.66734e-02,9.99999e-01,9.99999e-01,9.99603e-01,4.66918e-02,9.99999e-01
6.329037559e-01,4.95664e-02,9.99999e-01,9.99999e-01,9.99217e-01,4.96052e-02,9.99999e-01
6.360682746e-01,5.26022e-02,9.99999e-01,9.99999e-01,9.99332e-01,5.26373e-02,9.99999e-01
6.392486160e-01,5.57411e-02,9.99999e-01,9.99999e-01,9.99136e-01,5.57893e-02,9.99999e-01
6.424448591e-01,5.89938e-02,9.99999e-01,9.99999e-01,9.98840e-01,5.90622e-02,9.99999e-01
6.456570834e-01,6.21213e-02,9.99999e-01,9.99999e-01,9.94627e-01,6.24568e-02,9.99999e-01
6.488853688e-01,6.57149e-02,9.99999e-01,9.99999e-01,9.96080e-01,6.59735e-02,9.99999e-01
6.521297956e-01,6.93349e-02,9.99999e-01,9.99999e-01,9.96004e-01,6.96130e-02,9.99999e-01
6.553904446e-01,7.30830e-02,9.99999e-01,9.99999e-01,9.96015e-01,7.33753e-02,9.99999e-01
6.586673968e-01,7.69974e-02,9.99999e-01,9.99999e-01,9.96592e-01,7.72606e-02,9.99999e-01
6.619607338e-01,8.11144e-02,9.99999e-01,9.99999e-01,9.98099e-01,8.12687e-02,9.99999e-01
6.652705375e-01,8.53021e-02,9.99999e-01,9.99999e-01,9.98859e-01,8.53995e-02,9.99999e-01
6.685968902e-01,8.96089e-02,9.99999e-01,9.99999e-01,9.99514e-01,8.96523e-02,9.99999e-01
6.719398746e-01,9.40036e-02,9.99999e-01,9.99999e-01,9.99754e-01,9.40267e-02,9.99999e-01
6.752995740e-01,9.85086e-02,9.99999e-01,9.99999e-01,9.99866e-01,9.85217e-02,9.99999e-01
6.786760719e-01,1.03117e-01,9.99999e-01,9.99999e-01,9.99806e-01,1.03136e-01,9.99999e-01
6.820694522e-01,1.07834e-01,9.99999e-01,9.99999e-01,9.99670e-01,1.07870e-01,9.99999e-01
6.854797995e-01,1.12672e-01,9.99999e-01,9.99999e-01,9.99574e-01,1.12720e-01,9.99999e-01
6.889071985e-01,1.17565e-01,9.99999e-01,9.99999e-01,9.98965e-01,1.17687e-01,9.99999e-01
6.923517345e-01,1.20716e-01,9.99999e-01,9.99999e-01,9.83287e-01,1.22767e-01,9.99999e-01
6.958134932e-01,1.26853e-01,9.99999e-01,9.99999e-01,9.91343e-01,1.27961e-01,9.99999e-01
6.992925606e-01,1.32160e-01,9.99999e-01,9.99999e-01,9.91710e-01,1.33264e-01,9.99999e-01
7.027890234e-01,1.37262e-01,9.99999e-01,9.99999e-01,9.89801e-01,1.38676e-01,9.99999e-01
7.063029686e-01,1.42957e-01,9.99999e-01,9.99999e-01,9.91416e-01,1.44195e-01,9.99999e-01
7.098344834e-01,1.48584e-01,9.99999e-01,9.99999e-01,9.91762e-01,1.49818e-01,9.99999e-01
7.133836558e-01,1.53830e-01,9.99999e-01,9.99999e-01,9.88991e-01,1.55542e-01,9.99999e-01
7.169505741e-01,1.47678e-01,9.99999e-01,9.99999e-01,9.15177e-01,1.61365e-01,9.99998e-01
7.205353270e-01,1.60224e-01,9.99999e-01,9.99999e-01,9.57785e-01,1.67285e-01,9.99998e-01
7.241380036e-01,1.64005e-01,9.99999e-01,9.99999e-01,9.46371e-01,1.73299e-01,9.99998e-01
7.277586936e-01,1.70703e-01,9.99999e-01,9.99999e-01,9.51498e-01,1.79404e-01,9.99998e-01
7.313974871e-01,1.76052e-01,9.99999e-01,9.99999e-01,9.48570e-01,1.85597e-01,9.99998e-01
7.350544745e-01,1.86416e-01,9.99999e-01,9.99999e-01,9.71548e-01,1.91875e-01,9.99999e-01
7.387297469e-01,1.94069e-01,9.99999e-01,9.99999e-01,9.78984e-01,1.98235e-01,9.99999e-01
7.424233956e-01,2.02560e-01,9.99999e-01,9.99999e-01,9.89671e-01,2.04674e-01,9.99999e-01
7.461355126e-01,2.09864e-01,9.99999e-01,9.99999e-01,9.93725e-01,2.11189e-01,9.99999e-01
7.498661902e-01,2.17140e-01,9.99999e-01,9.99999e-01,9.97077e-01,2.17776e-01,9.99999e-01
7.536155211e-01,2.24111e-01,9.99999e-01,9.99999e-01,9.98563e-01,2.24433e-01,9.99999e-01
7.573835987e-01,2.30985e-01,9.99999e-01,9.99999e-01,9.99260e-01,2.31156e-01,9.99999e-01
7.611705167e-01,2.37832e-01,9.99999e-01,9.99999e-01,9.99540e-01,2.37941e-01,9.99999e-01
7.649763693e-01,2.44715e-01,9.99999e-01,9.99999e-01,9.99711e-01,2.44785e-01,9.99999e-01
7.688012511e-01,2.51635e-01,9.99999e-01,9.99999e-01,9.99798e-01,2.51685e-01,9.99999e-01
7.726452574e-01,2.58596e-01,9.99999e-01,9.99999e-01,9.99834e-01,2.58638e-01,9.99999e-01
7.765084837e-01,2.65577e-01,9.99999e-01,9.99999e-01,9.99764e-01,2.65640e-01,9.99999e-01
7.803910261e-01,2.56834e-01,9.99999e-01,9.42771e-01,9.98982e-01,2.72687e-01,9.99999e-01
7.842929812e-01,2.13385e-01,9.99999e-01,7.65195e-01,9.96451e-01,2.79777e-01,9.99999e-01
7.882144461e-01,2.14144e-01,9.99999e-01,7.51499e-01,9.92723e-01,2.86905e-01,9.99999e-01
7.921555184e-01,2.47046e-01,9.99999e-01,8.43322e-01,9.96011e-01,2.94069e-01,9.99999e-01
7.961162960e-01,2.66864e-01,9.99999e-01,8.92014e-01,9.92932e-01,3.01265e-01,9.99999e-01
8.000968774e-01,2.87588e-01,9.99999e-01,9.39859e-01,9.91855e-01,3.08490e-01,9.99999e-01
8.040973618e-01,3.03283e-01,9.99999e-01,9.68411e-01,9.91849e-01,3.15740e-01,9.99999e-01
8.081178486e-01,3.12463e-01,9.99999e-01,9.85345e-01,9.81681e-01,3.23013e-01,9.99999e-01
8.121584379e-01,3.04487e-01,9.99999e-01,9.95468e-01,9.25960e-01,3.30304e-01,9.99998e-01
8.162192301e-01,3.07960e-01,9.99999e-01,9.98997e-01,9.13059e-01,3.37611e-01,9.99998e-01
8.203003262e-01,3.29645e-01,9.99999e-01,9.99985e-01,9.55697e-01,3.44930e-01,9.99998e-01
8.244018279e-01,3.30869e-01,9.99999e-01,9.99999e-01,9.39278e-01,3.52259e-01,9.99998e-01
8.285238370e-01,3.40536e-01,9.99999e-01,9.99999e-01,9.47002e-01,3.59594e-01,9.99998e-01
8.326664562e-01,3.47316e-01,9.99999e-01,9.99999e-01,9.46538e-01,3.66933e-01,9.99998e-01
8.368297885e-01,3.59860e-01,9.99999e-01,9.99999e-01,9.61493e-01,3.74272e-01,9.99999e-01
8.410139374e-01,3.72809e-01,9.99999e-01,9.99999e-01,9.76942e-01,3.81608e-01,9.99999e-01
8.452190071e-01,3.84518e-01,9.99999e-01,9.99999e-01,9.88631e-01,3.88939e-01,9.99999e-01
8.494451021e-01,3.93640e-01,9.99999e-01,9.99999e-01,9.93381e-01,3.96262e-01,9.99999e-01
8.536923276e-01,4.01995e-01,9.99999e-01,9.99999e-01,9.96086e-01,4.03574e-01,9.99999e-01
8.579607893e-01,4.09881e-01,9.99999e-01,9.99999e-01,9.97585e-01,4.10873e-01,9.99999e-01
8.622505932e-01,4.17514e-01,9.99999e-01,9.99999e-01,9.98467e-01,4.18155e-01,9.99999e-01
8.665618462e-01,3.80752e-01,9.99999e-01,8.95808e-01,9.99050e-01,4.25419e-01,9.99999e-01
8.708946554e-01,2.21060e-01,9.99999e-01,5.11454e-01,9.98911e-01,4.32662e-01,9.99999e-01
8.752491287e-01,2.54071e-01,9.99999e-01,5.78391e-01,9.98545e-01,4.39882e-01,9.99999e-01
8.796253743e-01,3.29134e-01,9.99999e-01,7.37604e-01,9.97983e-01,4.47075e-01,9.99999e-01
8.840235012e-01,3.86586e-01,9.99999e-01,8.52969e-01,9.97697e-01,4.54241e-01,9.99999e-01
8.884436187e-01,4.29730e-01,9.99999e-01,9.39178e-01,9.91580e-01,4.61377e-01,9.99999e-01
8.928858368e-01,4.18168e-01,9.99999e-01,9.74865e-01,9.15255e-01,4.68481e-01,9.99998e-01
8.973502660e-01,4.04478e-01,9.99999e-01,9.93851e-01,8.55619e-01,4.75550e-01,9.99997e-01
9.018370173e-01,4.45474e-01,9.99999e-01,9.99321e-01,9.23696e-01,4.82584e-01,9.99997e-01
9.063462024e-01,4.48839e-01,9.99999e-01,9.82615e-01,9.32101e-01,4.89579e-01,9.99996e-01
9.108779334e-01,4.27910e-01,9.99999e-01,9.60631e-01,8.96336e-01,4.96535e-01,9.99996e-01
9.154323231e-01,4.40569e-01,9.99999e-01,9.90651e-01,8.83049e-01,5.03449e-01,9.99996e-01
9.200094847e-01,4.09713e-01,9.99999e-01,8.77387e-01,9.07356e-01,5.10320e-01,9.99995e-01
9.246095321e-01,3.67516e-01,9.99999e-01,8.21844e-01,8.59791e-01,5.17146e-01,9.99992e-01
9.292325798e-01,1.72227e-01,9.99999e-01,8.57949e-01,3.73862e-01,5.23926e-01,9.99985e-01
9.338787427e-01,1.32745e-01,9.99999e-01,8.62184e-01,2.83517e-01,5.30659e-01,9.99980e-01
9.385481364e-01,2.91887e-01,9.99999e-01,8.96415e-01,5.99866e-01,5.37342e-01,9.99980e-01
9.432408771e-01,2.54199e-01,9.99999e-01,9.35181e-01,4.96779e-01,5.43975e-01,9.99977e-01
9.479570815e-01,2.04718e-01,9.99999e-01,9.66164e-01,3.83746e-01,5.50557e-01,9.99980e-01
9.526968669e-01,2.64521e-01,9.99999e-01,9.83561e-01,4.81703e-01,5.57085e-01,9.99985e-01
9.574603512e-01,2.81777e-01,9.99999e-01,9.92938e-01,5.03158e-01,5.63560e-01,9.99988e-01
9.622476530e-01,3.24010e-01,9.99999e-01,9.97793e-01,5.69590e-01,5.69980e-01,9.99992e-01
9.670588912e-01,4.15792e-01,9.99999e-01,9.99338e-01,7.21867e-01,5.76345e-01,9.99995e-01
9.718941857e-01,4.74211e-01,9.99999e-01,9.99953e-01,8.13918e-01,5.82652e-01,9.99996e-01
9.767536566e-01,4.96317e-01,9.99999e-01,9.99999e-01,8.42784e-01,5.88902e-01,9.99997e-01
9.816374249e-01,5.24189e-01,9.99999e-01,9.99999e-01,8.80852e-01,5.95094e-01,9.99998e-01
9.865456120e-01,5.55371e-01,9.99999e-01,9.99999e-01,9.23731e-01,6.01226e-01,9.99998e-01
9.914783401e-01,5.78212e-01,9.99999e-01,9.99999e-01,9.52103e-01,6.07299e-01,9.99999e-01
9.964357318e-01,5.97138e-01,9.99999e-01,9.99999e-01,9.73629e-01,6.13311e-01,9.99999e-01
1.001417910e+00,6.09424e-01,9.99999e-01,9.99999e-01,9.84112e-01,6.19262e-01,9.99999e-01
1.006425000e+00,6.19467e-01,9.99999e-01,9.99999e-01,9.90906e-01,6.25152e-01,9.99999e-01
1.011457125e+00,6.27416e-01,9.99999e-01,9.99999e-01,9.94352e-01,6.30980e-01,9.99999e-01
1.016514411e+00,6.34301e-01,9.99999e-01,9.99999e-01,9.96160e-01,6.36745e-01,9.99999e-01
1.021596983e+00,6.40419e-01,9.99999e-01,9.99901e-01,9.96938e-01,6.42448e-01,9.99999e-01
1.026704968e+00,6.42111e-01,9.99999e-01,9.93144e-01,9.97611e-01,6.48087e-01,9.99999e-01
1.031838492e+00,6.08336e-01,9.99999e-01,9.32205e-01,9.98264e-01,6.53663e-01,9.99999e-01
1.036997685e+00,5.76189e-02,9.99999e-01,8.74796e-02,9.98968e-01,6.59176e-01,9.99999e-01
1.042182673e+00,1.79322e-02,9.99999e-01,2.70085e-02,9.98768e-01,6.64625e-01,9.99999e-01
1.047393587e+00,3.07198e-02,9.99999e-01,4.59142e-02,9.98368e-01,6.70009e-01,9.99999e-01
1.052630555e+00,8.73821e-05,9.99999e-01,1.29588e-04,9.97760e-01,6.75330e-01,9.99999e-01
1.057893707e+00,2.96166e-04,9.99999e-01,4.36123e-04,9.96261e-01,6.80587e-01,9.99999e-01
1.063183176e+00,2.14186e-03,9.99999e-01,3.13559e-03,9.93856e-01,6.85780e-01,9.99999e-01
1.068499092e+00,1.05472e-02,9.99999e-01,1.53859e-02,9.89737e-01,6.90908e-01,9.99999e-01
1.073841587e+00,4.84744e-02,9.99999e-01,7.03172e-02,9.87995e-01,6.95973e-01,9.99999e-01
1.079210795e+00,1.29055e-01,9.99999e-01,1.86556e-01,9.84655e-01,7.00973e-01,9.99999e-01
1.084606849e+00,2.70949e-01,9.99999e-01,3.92212e-01,9.76852e-01,7.05910e-01,9.99998e-01
1.090029883e+00,4.22521e-01,9.99999e-01,6.13818e-01,9.66864e-01,7.10783e-01,9.99998e-01
1.095480033e+00,5.14088e-01,9.99999e-01,7.86047e-01,9.12346e-01,7.15592e-01,9.99997e-01
1.100957433e+00,5.09485e-01,9.99999e-01,8.90256e-01,7.92760e-01,7.20338e-01,9.99995e-01
1.106462220e+00,3.87445e-01,9.99999e-01,9.53062e-01,5.59068e-01,7.25020e-01,9.99990e-01
1.111994531e+00,2.15276e-01,9.99999e-01,9.82330e-01,2.99727e-01,7.29640e-01,9.99982e-01
1.117554504e+00,1.07353e-01,9.99999e-01,9.95666e-01,1.46675e-01,7.34197e-01,9.99974e-01
1.123142276e+00,1.90022e-01,9.99999e-01,9.99715e-01,2.57270e-01,7.38691e-01,9.99970e-01
1.128757988e+00,3.00650e-01,9.99999e-01,9.99999e-01,4.04589e-01,7.43124e-01,9.99967e-01
1.134401778e+00,1.46024e-01,9.99999e-01,9.99999e-01,1.95358e-01,7.47494e-01,9.99964e-01
1.140073787e+00,4.32492e-01,9.99999e-01,9.99999e-01,5.75288e-01,7.51804e-01,9.99970e-01
1.145774156e+00,2.46878e-01,9.99999e-01,9.99999e-01,3.26543e-01,7.56052e-01,9.99975e-01
1.151503026e+00,2.20663e-01,9.99999e-01,9.99999e-01,2.90261e-01,7.60240e-01,9.99978e-01
1.157260541e+00,2.62411e-01,9.99999e-01,9.99999e-01,3.43309e-01,7.64367e-01,9.99983e-01
1.163046844e+00,3.47337e-01,9.99999e-01,9.99999e-01,4.52010e-01,7.68435e-01,9.99989e-01
1.168862078e+00,4.41688e-01,9.99999e-01,9.99999e-01,5.71808e-01,7.72444e-01,9.99994e-01
1.174706389e+00,5.49668e-01,9.99999e-01,9.99999e-01,7.07978e-01,7.76393e-01,9.99996e-01
1.180579921e+00,6.32013e-01,9.99999e-01,9.99999e-01,8.09978e-01,7.80284e-01,9.99997e-01
1.186482820e+00,6.95833e-01,9.99999e-01,9.99985e-01,8.87420e-01,7.84117e-01,9.99998e-01
1.192415234e+00,7.17513e-01,9.99999e-01,9.76017e-01,9.32594e-01,7.87893e-01,9.99998e-01
1.198377311e+00,4.09021e-01,9.99999e-01,5.42679e-01,9.42858e-01,7.91612e-01,9.99998e-01
1.204369197e+00,1.37181e-18,9.99999e-01,1.78133e-18,9.45920e-01,7.95274e-01,9.99998e-01
1.210391043e+00,2.11666e-72,9.99999e-01,2.72903e-72,9.48191e-01,7.98881e-01,9.99998e-01
1.216442998e+00,8.88274e-63,9.99999e-01,1.13843e-62,9.55787e-01,8.02432e-01,9.99999e-01
1.222525213e+00,7.61040e-62,9.99999e-01,9.61597e-62,9.65380e-01,8.05928e-01,9.99999e-01
1.228637839e+00,7.61069e-48,9.99999e-01,9.56078e-48,9.75825e-01,8.09370e-01,9.99999e-01
