#,Wave/freq,Total,O2,CO2,H2O,Rayleigh,CIA
4.000000000e-01,2.32067e-12,9.99999e-01,9.99999e-01,9.99947e-01,2.32079e-12,9.99999e-01
4.020000000e-01,3.94160e-12,9.99999e-01,9.99999e-01,9.99966e-01,3.94172e-12,9.99999e-01
4.040100000e-01,6.62131e-12,9.99999e-01,9.99999e-01,9.99985e-01,6.62140e-12,9.99999e-01
4.060300500e-01,1.10094e-11,9.99999e-01,9.99999e-01,9.99996e-01,1.10094e-11,9.99999e-01
4.080602003e-01,1.81224e-11,9.99999e-01,9.99999e-01,9.99998e-01,1.81224e-11,9.99999e-01
4.101005013e-01,2.95388e-11,9.99999e-01,9.99999e-01,9.99999e-01,2.95388e-11,9.99999e-01
4.121510038e-01,4.76846e-11,9.99999e-01,9.99999e-01,9.99997e-01,4.76847e-11,9.99999e-01
4.142117588e-01,7.62518e-11,9.99999e-01,9.99999e-01,9.99985e-01,7.62529e-11,9.99999e-01
4.162828176e-01,1.20803e-10,9.99999e-01,9.99999e-01,9.99934e-01,1.20811e-10,9.99999e-01
4.183642317e-01,1.89668e-10,9.99999e-01,9.99999e-01,9.99960e-01,1.89675e-10,9.99999e-01
4.204560528e-01,2.95143e-10,9.99999e-01,9.99999e-01,9.99975e-01,2.95150e-10,9.99999e-01
4.225583331e-01,4.55281e-10,9.99999e-01,9.99999e-01,9.99990e-01,4.55285e-10,9.99999e-01
4.246711247e-01,6.96310e-10,9.99999e-01,9.99999e-01,9.99992e-01,6.96314e-10,9.99999e-01
4.267944804e-01,1.05603e-09,9.99999e-01,9.99999e-01,9.99989e-01,1.05605e-09,9.99999e-01
4.289284528e-01,1.58849e-09,9.99999e-01,9.99999e-01,9.99991e-01,1.58850e-09,9.99999e-01
4.310730950e-01,2.37022e-09,9.99999e-01,9.99999e-01,9.99996e-01,2.37022e-09,9.99999e-01
4.332284605e-01,3.50880e-09,9.99999e-01,9.99999e-01,9.99998e-01,3.50880e-09,9.99999e-01
4.353946028e-01,5.15422e-09,9.99999e-01,9.99999e-01,9.99999e-01,5.15422e-09,9.99999e-01
4.375715758e-01,7.51390e-09,9.99999e-01,9.99999e-01,9.99993e-01,7.51395e-09,9.99999e-01
4.397594337e-01,1.08722e-08,9.99999e-01,9.99999e-01,9.99943e-01,1.08728e-08,9.99999e-01
4.419582309e-01,1.56141e-08,9.99999e-01,9.99999e-01,9.99714e-01,1.56186e-08,9.99999e-01
4.441680220e-01,2.22709e-08,9.99999e-01,9.99999e-01,9.99771e-01,2.22760e-08,9.99999e-01
4.463888621e-01,3.15416e-08,9.99999e-01,9.99999e-01,9.99764e-01,3.15490e-08,9.99999e-01
4.486208064e-01,4.43696e-08,9.99999e-01,9.99999e-01,9.99852e-01,4.43761e-08,9.99999e-01
4.508639105e-01,6.19950e-08,9.99999e-01,9.99999e-01,9.99930e-01,6.19993e-08,9.99999e-01
4.531182300e-01,8.60484e-08,9.99999e-01,9.99999e-01,9.99972e-01,8.60508e-08,9.99999e-01
4.553838212e-01,1.18660e-07,9.99999e-01,9.99999e-01,9.99981e-01,1.18662e-07,9.99999e-01
4.576607403e-01,1.62595e-07,9.99999e-01,9.99999e-01,9.99991e-01,1.62596e-07,9.99999e-01
4.599490440e-01,2.21414e-07,9.99999e-01,9.99999e-01,9.99993e-01,2.21415e-07,9.99999e-01
4.622487892e-01,2.99679e-07,9.99999e-01,9.99999e-01,9.99998e-01,2.99679e-07,9.99999e-01
4.645600332e-01,4.03187e-07,9.99999e-01,9.99999e-01,9.99995e-01,4.03189e-07,9.99999e-01
4.668828333e-01,5.39245e-07,9.99999e-01,9.99999e-01,9.99930e-01,5.39282e-07,9.99999e-01
4.692172475e-01,7.17074e-07,9.99999e-01,9.99999e-01,9.99851e-01,7.17179e-07,9.99999e-01
4.715633337e-01,9.48315e-07,9.99999e-01,9.99999e-01,9.99903e-01,9.48406e-07,9.99999e-01
4.739211504e-01,1.24716e-06,9.99999e-01,9.99999e-01,9.99906e-01,1.24728e-06,9.99999e-01
4.762907561e-01,1.63141e-06,9.99999e-01,9.99999e-01,9.99951e-01,1.63148e-06,9.99999e-01
4.786722099e-01,2.12271e-06,9.99999e-01,9.99999e-01,9.99979e-01,2.12275e-06,9.99999e-01
4.810655710e-01,2.74760e-06,9.99999e-01,9.99999e-01,9.99993e-01,2.74762e-06,9.99999e-01
4.834708988e-01,3.53816e-06,9.99999e-01,9.99999e-01,9.99944e-01,3.53835e-06,9.99999e-01
4.858882533e-01,4.53346e-06,9.99999e-01,9.99999e-01,9.99894e-01,4.53394e-06,9.99999e-01
4.883176946e-01,5.78077e-06,9.99999e-01,9.99999e-01,9.99912e-01,5.78127e-06,9.99999e-01
4.907592831e-01,7.33588e-06,9.99999e-01,9.99999e-01,9.99920e-01,7.33646e-06,9.99999e-01
4.932130795e-01,9.26577e-06,9.99999e-01,9.99999e-01,9.99943e-01,9.26629e-06,9.99999e-01
4.956791449e-01,1.16495e-05,9.99999e-01,9.99999e-01,9.99969e-01,1.16499e-05,9.99999e-01
4.981575406e-01,1.45784e-05,9.99999e-01,9.99999e-01,9.99851e-01,1.45806e-05,9.99999e-01
5.006483283e-01,1.81609e-05,9.99999e-01,9.99999e-01,9.99619e-01,1.81678e-05,9.99999e-01
5.031515699e-01,2.24956e-05,9.99999e-01,9.99999e-01,9.98056e-01,2.25394e-05,9.99999e-01
5.056673278e-01,2.78154e-05,9.99999e-01,9.99999e-01,9.98969e-01,2.78441e-05,9.99999e-01
5.081956644e-01,3.42095e-05,9.99999e-01,9.99999e-01,9.98699e-01,3.42540e-05,9.99999e-01
5.107366428e-01,4.19305e-05,9.99999e-01,9.99999e-01,9.99121e-01,4.19673e-05,9.99999e-01
5.132903260e-01,5.11860e-05,9.99999e-01,9.99999e-01,9.99496e-01,5.12118e-05,9.99999e-01
5.158567776e-01,6.22340e-05,9.99999e-01,9.99999e-01,9.99786e-01,6.22473e-05,9.99999e-01
5.184360615e-01,7.53633e-05,9.99999e-01,9.99999e-01,9.99914e-01,7.53697e-05,9.99999e-01
5.210282418e-01,9.09115e-05,9.99999e-01,9.99999e-01,9.99967e-01,9.09144e-05,9.99999e-01
5.236333830e-01,1.09246e-04,9.99999e-01,9.99999e-01,9.99872e-01,1.09260e-04,9.99999e-01
5.262515499e-01,1.30820e-04,9.99999e-01,9.99999e-01,9.99920e-01,1.30831e-04,9.99999e-01
5.288828077e-01,1.56093e-04,9.99999e-01,9.99999e-01,9.99927e-01,1.56104e-04,9.99999e-01
5.315272217e-01,1.85599e-04,9.99999e-01,9.99999e-01,9.99935e-01,1.85611e-04,9.99999e-01
5.341848578e-01,2.19933e-04,9.99999e-01,9.99999e-01,9.99957e-01,2.19942e-04,9.99999e-01
5.368557821e-01,2.59712e-04,9.99999e-01,9.99999e-01,9.99852e-01,2.59751e-04,9.99999e-01
5.395400610e-01,3.05597e-04,9.99999e-01,9.99999e-01,9.99472e-01,3.05758e-04,9.99999e-01
5.422377613e-01,3.58509e-04,9.99999e-01,9.99999e-01,9.99307e-01,3.58757e-04,9.99999e-01
5.449489501e-01,4.19348e-04,9.99999e-01,9.99999e-01,9.99361e-01,4.19616e-04,9.99999e-01
5.476736949e-01,4.89002e-04,9.99999e-01,9.99999e-01,9.99429e-01,4.89281e-04,9.99999e-01
5.504120634e-01,5.68550e-04,9.99999e-01,9.99999e-01,9.99585e-01,5.68785e-04,9.99999e-01
5.531641237e-01,6.59106e-04,9.99999e-01,9.99999e-01,9.99791e-01,6.59244e-04,9.99999e-01
5.559299443e-01,7.61788e-04,9.99999e-01,9.99999e-01,9.99898e-01,7.61864e-04,9.99999e-01
5.587095940e-01,8.77892e-04,9.99999e-01,9.99999e-01,9.99936e-01,8.77947e-04,9.99999e-01
5.615031420e-01,1.00882e-03,9.99999e-01,9.99999e-01,9.99929e-01,1.00889e-03,9.99999e-01
5.643106577e-01,1.15609e-03,9.99999e-01,9.99999e-01,9.99921e-01,1.15618e-03,9.99999e-01
5.671322110e-01,1.32016e-03,9.99999e-01,9.99999e-01,9.99056e-01,1.32141e-03,9.99999e-01
5.699678720e-01,1.50471e-03,9.99999e-01,9.99999e-01,9.98965e-01,1.50627e-03,9.99999e-01
5.728177114e-01,1.71074e-03,9.99999e-01,9.99999e-01,9.98935e-01,1.71256e-03,9.99999e-01
5.756818000e-01,1.94028e-03,9.99999e-01,9.99999e-01,9.99020e-01,1.94218e-03,9.99999e-01
5.785602090e-01,2.19523e-03,9.99999e-01,9.99999e-01,9.99144e-01,2.19711e-03,9.99999e-01
5.814530100e-01,2.47733e-03,9.99999e-01,9.99999e-01,9.99142e-01,2.47946e-03,9.99999e-01
5.843602750e-01,2.78859e-03,9.99999e-01,9.99999e-01,9.98987e-01,2.79142e-03,9.99999e-01
5.872820764e-01,3.10797e-03,9.99999e-01,9.99999e-01,9.91289e-01,3.13528e-03,9.99999e-01
5.902184868e-01,3.47599e-03,9.99999e-01,9.99999e-01,9.89344e-01,3.51343e-03,9.99999e-01
5.931695792e-01,3.89884e-03,9.99999e-01,9.99999e-01,9.92490e-01,3.92834e-03,9.99999e-01
5.961354271e-01,4.34641e-03,9.99999e-01,9.99999e-01,9.91747e-01,4.38257e-03,9.99999e-01
5.991161043e-01,4.84935e-03,9.99999e-01,9.99999e-01,9.93967e-01,4.87877e-03,9.99999e-01
6.021116848e-01,5.40107e-03,9.99999e-01,9.99999e-01,9.96568e-01,5.41966e-03,9.99999e-01
6.051222432e-01,5.99759e-03,9.99999e-01,9.99999e-01,9.98261e-01,6.00803e-03,9.99999e-01
6.081478544e-01,6.64174e-03,9.99999e-01,9.99999e-01,9.99250e-01,6.64672e-03,9.99999e-01
6.111885937e-01,7.33632e-03,9.99999e-01,9.99999e-01,9.99681e-01,7.33865e-03,9.99999e-01
6.142445367e-01,8.08564e-03,9.99999e-01,9.99999e-01,9.99857e-01,8.08678e-03,9.99999e-01
6.173157594e-01,8.89341e-03,9.99999e-01,9.99999e-01,9.99921e-01,8.89411e-03,9.99999e-01
6.204023382e-01,9.76302e-03,9.99999e-01,9.99999e-01,9.99933e-01,9.76366e-03,9.99999e-01
6.235043498e-01,1.06955e-02,9.99999e-01,9.99999e-01,9.99714e-01,1.06985e-02,9.99999e-01
6.266218716e-01,1.16837e-02,9.99999e-01,9.99999e-01,9.98465e-01,1.17017e-02,9.99999e-01
6.297549810e-01,1.27691e-02,9.99999e-01,9.99999e-01,9.99437e-01,1.27763e-02,9.99999e-01
6.329037559e-01,1.39099e-02,9.99999e-01,9.99999e-01,9.98884e-01,1.39254e-02,9.99999e-01
6.360682746e-01,1.51378e-02,9.99999e-01,9.99999e-01,9.99054e-01,1.51521e-02,9.99999e-01
6.392486160e-01,1.64392e-02,9.99999e-01,9.99999e-01,9.98771e-01,1.64594e-02,9.99999e-01
6.424448591e-01,1.78239e-02,9.99999e-01,9.99999e-01,9.98528e-01,1.78502e-02,9.99999e-01
6.456570834e-01,1.91829e-02,9.99999e-01,9.99999e-01,9.92511e-01,1.93276e-02,9.99999e-01
6.488853688e-01,2.07573e-02,9.99999e-01,9.99999e-01,9.93436e-01,2.08944e-02,9.99999e-01
6.521297956e-01,2.24250e-02,9.99999e-01,9.99999e-01,9.94304e-01,2.25535e-02,9.99999e-01
6.553904446e-01,2.41708e-02,9.99999e-01,9.99999e-01,9.94374e-01,2.43076e-02,9.99999e-01
6.586673968e-01,2.60321e-02,9.99999e-01,9.99999e-01,9.95134e-01,2.61594e-02,9.99999e-01
6.619607338e-01,2.80323e-02,9.99999e-01,9.99999e-01,9.97185e-01,2.81114e-02,9.99999e-01
6.652705375e-01,3.01169e-02,9.99999e-01,9.99999e-01,9.98364e-01,3.01663e-02,9.99999e-01
6.685968902e-01,3.23017e-02,9.99999e-01,9.99999e-01,9.99240e-01,3.23262e-02,9.99999e-01
6.719398746e-01,3.45813e-02,9.99999e-01,9.99999e-01,9.99647e-01,3.45935e-02,9.99999e-01
6.752995740e-01,3.69633e-02,9.99999e-01,9.99999e-01,9.99809e-01,3.69703e-02,9.99999e-01
6.786760719e-01,3.94478e-02,9.99999e-01,9.99999e-01,9.99727e-01,3.94586e-02,9.99999e-01
6.820694522e-01,4.20405e-02,9.99999e-01,9.99999e-01,9.99532e-01,4.20602e-02,9.99999e-01
6.854797995e-01,4.47498e-02,9.99999e-01,9.99999e-01,9.99397e-01,4.47768e-02,9.99999e-01
6.889071985e-01,4.75417e-02,9.99999e-01,9.99999e-01,9.98565e-01,4.76100e-02,9.99999e-01
6.923517345e-01,4.93750e-02,9.99999e-01,9.99999e-01,9.76540e-01,5.05611e-02,9.99999e-01
6.958134932e-01,5.29602e-02,9.99999e-01,9.99999e-01,9.87483e-01,5.36315e-02,9.99999e-01
6.992925606e-01,5.61592e-02,9.99999e-01,9.99999e-01,9.88335e-01,5.68220e-02,9.99999e-01
7.027890234e-01,5.92615e-02,9.99999e-01,9.99999e-01,9.85494e-01,6.01337e-02,9.99999e-01
7.063029686e-01,6.27917e-02,9.99999e-01,9.99999e-01,9.87799e-01,6.35673e-02,9.99999e-01
7.098344834e-01,6.63371e-02,9.99999e-01,9.99999e-01,9.88288e-01,6.71232e-02,9.99999e-01
7.133836558e-01,6.97149e-02,9.99999e-01,9.99999e-01,9.84647e-01,7.08019e-02,9.99998e-01
7.169505741e-01,6.58746e-02,9.99999e-01,9.99999e-01,8.82996e-01,7.46035e-02,9.99998e-01
7.205353270e-01,7.37909e-02,9.99999e-01,9.99999e-01,9.39675e-01,7.85281e-02,9.99997e-01
7.241380036e-01,7.63890e-02,9.99999e-01,9.99999e-01,9.25082e-01,8.25755e-02,9.99997e-01
7.277586936e-01,8.08541e-02,9.99999e-01,9.99999e-01,9.32087e-01,8.67453e-02,9.99998e-01
7.313974871e-01,8.44209e-02,9.99999e-01,9.99999e-01,9.27324e-01,9.10371e-02,9.99998e-01
7.350544745e-01,9.16000e-02,9.99999e-01,9.99999e-01,9.59664e-01,9.54501e-02,9.99998e-01
7.387297469e-01,9.69948e-02,9.99999e-01,9.99999e-01,9.70108e-01,9.99835e-02,9.99999e-01
7.424233956e-01,1.03090e-01,9.99999e-01,9.99999e-01,9.85220e-01,1.04636e-01,9.99999e-01
7.461355126e-01,1.08426e-01,9.99999e-01,9.99999e-01,9.91033e-01,1.09407e-01,9.99999e-01
7.498661902e-01,1.13815e-01,9.99999e-01,9.99999e-01,9.95804e-01,1.14295e-01,9.99999e-01
7.536155211e-01,1.19053e-01,9.99999e-01,9.99999e-01,9.97946e-01,1.19298e-01,9.99999e-01
7.573835987e-01,1.24283e-01,9.99999e-01,9.99999e-01,9.98941e-01,1.24415e-01,9.99999e-01
7.611705167e-01,1.29558e-01,9.99999e-01,9.99999e-01,9.99342e-01,1.29643e-01,9.99999e-01
7.649763693e-01,1.34927e-01,9.99999e-01,9.99999e-01,9.99588e-01,1.34982e-01,9.99999e-01
7.688012511e-01,1.40388e-01,9.99999e-01,9.99999e-01,9.99713e-01,1.40428e-01,9.99999e-01
7.726452574e-01,1.45946e-01,9.99999e-01,9.99999e-01,9.99764e-01,1.45981e-01,9.99999e-01
7.765084837e-01,1.51586e-01,9.99999e-01,9.99999e-01,9.99668e-01,1.51636e-01,9.99999e-01
7.803910261e-01,1.45867e-01,9.99999e-01,9.28008e-01,9.98569e-01,1.57392e-01,9.99999e-01
7.842929812e-01,1.11594e-01,9.99999e-01,6.86648e-01,9.95017e-01,1.63247e-01,9.99999e-01
7.882144461e-01,1.12837e-01,9.99999e-01,6.73248e-01,9.89665e-01,1.69197e-01,9.99999e-01
7.921555184e-01,1.37059e-01,9.99999e-01,7.86360e-01,9.94291e-01,1.75240e-01,9.99999e-01
7.961162960e-01,1.52521e-01,9.99999e-01,8.49169e-01,9.90047e-01,1.81374e-01,9.99999e-01
8.000968774e-01,1.69716e-01,9.99999e-01,9.15203e-01,9.88438e-01,1.87594e-01,9.99999e-01
8.040973618e-01,1.83023e-01,9.99999e-01,9.54881e-01,9.88453e-01,1.93899e-01,9.99999e-01
8.081178486e-01,1.91090e-01,9.99999e-01,9.79109e-01,9.74360e-01,2.00284e-01,9.99998e-01
8.121584379e-01,1.84369e-01,9.99999e-01,9.93444e-01,8.97494e-01,2.06748e-01,9.99998e-01
8.162192301e-01,1.87101e-01,9.99999e-01,9.98548e-01,8.78448e-01,2.13286e-01,9.99997e-01
8.203003262e-01,2.06528e-01,9.99999e-01,9.99975e-01,9.39227e-01,2.19896e-01,9.99997e-01
8.244018279e-01,2.07198e-01,9.99999e-01,9.99999e-01,9.14484e-01,2.26574e-01,9.99997e-01
8.285238370e-01,2.16021e-01,9.99999e-01,9.99999e-01,9.25867e-01,2.33317e-01,9.99998e-01
8.326664562e-01,2.22076e-01,9.99999e-01,9.99999e-01,9.24847e-01,2.40122e-01,9.99998e-01
8.368297885e-01,2.33517e-01,9.99999e-01,9.99999e-01,9.45472e-01,2.46984e-01,9.99998e-01
8.410139374e-01,2.45574e-01,9.99999e-01,9.99999e-01,9.67200e-01,2.53902e-01,9.99999e-01
8.452190071e-01,2.56633e-01,9.99999e-01,9.99999e-01,9.83756e-01,2.60871e-01,9.99999e-01
8.494451021e-01,2.65364e-01,9.99999e-01,9.99999e-01,9.90579e-01,2.67887e-01,9.99999e-01
8.536923276e-01,2.73409e-01,9.99999e-01,9.99999e-01,9.94399e-01,2.74949e-01,9.99999e-01
8.579607893e-01,2.81081e-01,9.99999e-01,9.99999e-01,9.96558e-01,2.82051e-01,9.99999e-01
8.622505932e-01,2.88557e-01,9.99999e-01,9.99999e-01,9.97807e-01,2.89191e-01,9.99999e-01
8.665618462e-01,2.61400e-01,9.99999e-01,8.83139e-01,9.98648e-01,2.96366e-01,9.99999e-01
8.708946554e-01,1.20315e-01,9.99999e-01,3.96898e-01,9.98456e-01,3.03571e-01,9.99999e-01
8.752491287e-01,1.43913e-01,9.99999e-01,4.63933e-01,9.97933e-01,3.10804e-01,9.99999e-01
8.796253743e-01,2.06037e-01,9.99999e-01,6.49513e-01,9.97148e-01,3.18062e-01,9.99999e-01
8.840235012e-01,2.58495e-01,9.99999e-01,7.97037e-01,9.96740e-01,3.25341e-01,9.99999e-01
8.884436187e-01,3.00482e-01,9.99999e-01,9.13675e-01,9.88403e-01,3.32637e-01,9.99998e-01
8.928858368e-01,2.89792e-01,9.99999e-01,9.64131e-01,8.83474e-01,3.39949e-01,9.99997e-01
8.973502660e-01,2.76135e-01,9.99999e-01,9.91105e-01,8.01933e-01,3.47271e-01,9.99996e-01
9.018370173e-01,3.16265e-01,9.99999e-01,9.99013e-01,8.92703e-01,3.54603e-01,9.99996e-01
9.063462024e-01,3.20785e-01,9.99999e-01,9.76189e-01,9.06208e-01,3.61939e-01,9.99995e-01
9.108779334e-01,2.99308e-01,9.99999e-01,9.44180e-01,8.56969e-01,3.69278e-01,9.99995e-01
9.154323231e-01,3.11749e-01,9.99999e-01,9.86467e-01,8.38517e-01,3.76617e-01,9.99995e-01
9.200094847e-01,2.85503e-01,9.99999e-01,8.40350e-01,8.71102e-01,3.83952e-01,9.99993e-01
9.246095321e-01,2.43086e-01,9.99999e-01,7.56186e-01,8.13279e-01,3.91280e-01,9.99989e-01
9.292325798e-01,8.80465e-02,9.99999e-01,8.07482e-01,2.62559e-01,3.98600e-01,9.99978e-01
9.338787427e-01,5.99728e-02,9.99999e-01,8.10117e-01,1.75278e-01,4.05908e-01,9.99972e-01
9.385481364e-01,1.77470e-01,9.99999e-01,8.55795e-01,4.92567e-01,4.13202e-01,9.99972e-01
9.432408771e-01,1.50021e-01,9.99999e-01,9.08374e-01,3.88690e-01,4.20479e-01,9.99968e-01
9.479570815e-01,1.11252e-01,9.99999e-01,9.52011e-01,2.71809e-01,4.27736e-01,9.99972e-01
9.526968669e-01,1.55540e-01,9.99999e-01,9.76540e-01,3.64725e-01,4.34972e-01,9.99979e-01
9.574603512e-01,1.68330e-01,9.99999e-01,9.89887e-01,3.83996e-01,4.42183e-01,9.99984e-01
9.622476530e-01,2.03029e-01,9.99999e-01,9.96831e-01,4.53052e-01,4.49369e-01,9.99989e-01
9.670588912e-01,2.88255e-01,9.99999e-01,9.99047e-01,6.31945e-01,4.56525e-01,9.99993e-01
9.718941857e-01,3.46279e-01,9.99999e-01,9.99930e-01,7.46899e-01,4.63651e-01,9.99995e-01
9.767536566e-01,3.69392e-01,9.99999e-01,9.99999e-01,7.84700e-01,4.70744e-01,9.99996e-01
9.816374249e-01,3.98791e-01,9.99999e-01,9.99999e-01,8.34637e-01,4.77802e-01,9.99997e-01
9.865456120e-01,4.32927e-01,9.99999e-01,9.99999e-01,8.92958e-01,4.84823e-01,9.99998e-01
9.914783401e-01,4.58539e-01,9.99999e-01,9.99999e-01,9.32357e-01,4.91806e-01,9.99999e-01
9.964357318e-01,4.80076e-01,9.99999e-01,9.99999e-01,9.62560e-01,4.98749e-01,9.99999e-01
1.001417910e+00,4.94211e-01,9.99999e-01,9.99999e-01,9.77378e-01,5.05649e-01,9.99999e-01
1.006425000e+00,5.05879e-01,9.99999e-01,9.99999e-01,9.87068e-01,5.12506e-01,9.99999e-01
1.011457125e+00,5.15128e-01,9.99999e-01,9.99999e-01,9.91932e-01,5.19318e-01,9.99999e-01
1.016514411e+00,5.23203e-01,9.99999e-01,9.99999e-01,9.94525e-01,5.26083e-01,9.99999e-01
1.021596983e+00,5.30415e-01,9.99999e-01,9.99882e-01,9.95638e-01,5.32800e-01,9.99999e-01
1.026704968e+00,5.32579e-01,9.99999e-01,9.90588e-01,9.96599e-01,5.39467e-01,9.99999e-01
1.031838492e+00,5.01637e-01,9.99999e-01,9.20784e-01,9.97521e-01,5.46084e-01,9.99999e-01
1.036997685e+00,3.52920e-02,9.99999e-01,6.39308e-02,9.98530e-01,5.52649e-01,9.99999e-01
1.042182673e+00,4.27222e-03,9.99999e-01,7.65095e-03,9.98254e-01,5.59160e-01,9.99999e-01
1.047393587e+00,9.94859e-03,9.99999e-01,1.76233e-02,9.97682e-01,5.65618e-01,9.99999e-01
1.052630555e+00,4.19086e-06,9.99999e-01,7.34148e-06,9.96824e-01,5.72020e-01,9.99999e-01
1.057893707e+00,1.51321e-05,9.99999e-01,2.62382e-05,9.94712e-01,5.78367e-01,9.99999e-01
1.063183176e+00,2.28581e-04,9.99999e-01,3.93012e-04,9.91303e-01,5.84656e-01,9.99999e-01
1.068499092e+00,1.75922e-03,9.99999e-01,3.00795e-03,9.85460e-01,5.90887e-01,9.99999e-01
1.073841587e+00,1.41586e-02,9.99999e-01,2.40172e-02,9.83048e-01,5.97060e-01,9.99999e-01
1.079210795e+00,5.65589e-02,9.99999e-01,9.54532e-02,9.78242e-01,6.03173e-01,9.99998e-01
1.084606849e+00,1.56863e-01,9.99999e-01,2.65245e-01,9.67322e-01,6.09227e-01,9.99998e-01
1.090029883e+00,2.94205e-01,9.99999e-01,4.99841e-01,9.53720e-01,6.15219e-01,9.99997e-01
1.095480033e+00,3.88594e-01,9.99999e-01,7.09476e-01,8.78699e-01,6.21151e-01,9.99996e-01
1.100957433e+00,3.84959e-01,9.99999e-01,8.47011e-01,7.21745e-01,6.27021e-01,9.99993e-01
1.106462220e+00,2.65371e-01,9.99999e-01,9.33481e-01,4.46729e-01,6.32829e-01,9.99987e-01
1.111994531e+00,1.17774e-01,9.99999e-01,9.74786e-01,1.88474e-01,6.38574e-01,9.99974e-01
1.117554504e+00,4.60115e-02,9.99999e-01,9.93755e-01,7.17068e-02,6.44257e-01,9.99964e-01
1.123142276e+00,1.03271e-01,9.99999e-01,9.99585e-01,1.58928e-01,6.49876e-01,9.99958e-01
1.128757988e+00,1.87970e-01,9.99999e-01,9.99999e-01,2.86800e-01,6.55432e-01,9.99954e-01
1.134401778e+00,8.40543e-02,9.99999e-01,9.99999e-01,1.27183e-01,6.60924e-01,9.99948e-01
1.140073787e+00,3.08204e-01,9.99999e-01,9.99999e-01,4.62543e-01,6.66352e-01,9.99957e-01
1.145774156e+00,1.44533e-01,9.99999e-01,9.99999e-01,2.15176e-01,6.71717e-01,9.99965e-01
1.151503026e+00,1.24597e-01,9.99999e-01,9.99999e-01,1.84043e-01,6.77017e-01,9.99969e-01
1.157260541e+00,1.53236e-01,9.99999e-01,9.99999e-01,2.24607e-01,6.82254e-01,9.99977e-01
1.163046844e+00,2.25291e-01,9.99999e-01,9.99999e-01,3.27736e-01,6.87426e-01,9.99985e-01
1.168862078e+00,3.13431e-01,9.99999e-01,9.99999e-01,4.52589e-01,6.92534e-01,9.99992e-01
1.174706389e+00,4.27346e-01,9.99999e-01,9.99999e-01,6.12616e-01,6.97578e-01,9.99995e-01
1.180579921e+00,5.20536e-01,9.99999e-01,9.99999e-01,7.40917e-01,7.02558e-01,9.99997e-01
1.186482820e+00,5.96804e-01,9.99999e-01,9.99987e-01,8.43579e-01,7.07474e-01,9.99997e-01
1.192415234e+00,6.24772e-01,9.99999e-01,9.67813e-01,9.05413e-01,7.12326e-01,9.99997e-01
1.198377311e+00,3.54107e-01,9.99999e-01,5.29425e-01,9.19843e-01,7.17115e-01,9.99998e-01
1.204369197e+00,1.71717e-25,9.99999e-01,2.49023e-25,9.24068e-01,7.21841e-01,9.99998e-01
1.210391043e+00,4.88103e-102,9.99999e-01,7.00707e-102,9.27152e-01,7.26503e-01,9.99998e-01
1.216442998e+00,2.38388e-88,9.99999e-01,3.39323e-88,9.37548e-01,7.31103e-01,9.99998e-01
1.222525213e+00,5.05788e-87,9.99999e-01,7.05529e-87,9.51025e-01,7.35640e-01,9.99999e-01
1.228637839e+00,3.38821e-67,9.99999e-01,4.68671e-67,9.65752e-01,7.40114e-01,9.99999e-01
