#,Wave/freq,Total,O2,CO2,H2O,Rayleigh,CIA
4.000000000e-01,1.79395e-02,9.99999e-01,9.99999e-01,9.99991e-01,1.79397e-02,9.99999e-01
4.020000000e-01,1.94240e-02,9.99999e-01,9.99999e-01,9.99994e-01,1.94241e-02,9.99999e-01
4.040100000e-01,2.09966e-02,9.99999e-01,9.99999e-01,9.99997e-01,2.09967e-02,9.99999e-01
4.060300500e-01,2.26617e-02,9.99999e-01,9.99999e-01,9.99999e-01,2.26617e-02,9.99999e-01
4.080602003e-01,2.44219e-02,9.99999e-01,9.99999e-01,9.99999e-01,2.44219e-02,9.99999e-01
4.101005013e-01,2.62800e-02,9.99999e-01,9.99999e-01,9.99999e-01,2.62800e-02,9.99999e-01
4.121510038e-01,2.82385e-02,9.99999e-01,9.99999e-01,9.99999e-01,2.82385e-02,9.99999e-01
4.142117588e-01,3.02998e-02,9.99999e-01,9.99999e-01,9.99997e-01,3.02999e-02,9.99999e-01
4.162828176e-01,3.24662e-02,9.99999e-01,9.99999e-01,9.99989e-01,3.24666e-02,9.99999e-01
4.183642317e-01,3.47405e-02,9.99999e-01,9.99999e-01,9.99993e-01,3.47407e-02,9.99999e-01
4.204560528e-01,3.71244e-02,9.99999e-01,9.99999e-01,9.99995e-01,3.71245e-02,9.99999e-01
4.225583331e-01,3.96199e-02,9.99999e-01,9.99999e-01,9.99998e-01,3.96199e-02,9.99999e-01
4.246711247e-01,4.22287e-02,9.99999e-01,9.99999e-01,9.99998e-01,4.22288e-02,9.99999e-01
4.267944804e-01,4.49527e-02,9.99999e-01,9.99999e-01,9.99997e-01,4.49527e-02,9.99999e-01
4.289284528e-01,4.77933e-02,9.99999e-01,9.99999e-01,9.99998e-01,4.77934e-02,9.99999e-01
4.310730950e-01,5.07520e-02,9.99999e-01,9.99999e-01,9.99998e-01,5.07520e-02,9.99999e-01
4.332284605e-01,5.38299e-02,9.99999e-01,9.99999e-01,9.99999e-01,5.38299e-02,9.99999e-01
4.353946028e-01,5.70281e-02,9.99999e-01,9.99999e-01,9.99999e-01,5.70281e-02,9.99999e-01
4.375715758e-01,6.03475e-02,9.99999e-01,9.99999e-01,9.99998e-01,6.03475e-02,9.99999e-01
4.397594337e-01,6.37883e-02,9.99999e-01,9.99999e-01,9.99991e-01,6.37888e-02,9.99999e-01
4.419582309e-01,6.73496e-02,9.99999e-01,9.99999e-01,9.99956e-01,6.73525e-02,9.99999e-01
4.441680220e-01,7.10366e-02,9.99999e-01,9.99999e-01,9.99965e-01,7.10390e-02,9.99999e-01
4.463888621e-01,7.48457e-02,9.99999e-01,9.99999e-01,9.99964e-01,7.48484e-02,9.99999e-01
4.486208064e-01,7.87790e-02,9.99999e-01,9.99999e-01,9.99977e-01,7.87808e-02,9.99999e-01
4.508639105e-01,8.28350e-02,9.99999e-01,9.99999e-01,9.99989e-01,8.28359e-02,9.99999e-01
4.531182300e-01,8.70131e-02,9.99999e-01,9.99999e-01,9.99995e-01,8.70135e-02,9.99999e-01
4.553838212e-01,9.13127e-02,9.99999e-01,9.99999e-01,9.99996e-01,9.13129e-02,9.99999e-01
4.576607403e-01,9.57334e-02,9.99999e-01,9.99999e-01,9.99998e-01,9.57336e-02,9.99999e-01
4.599490440e-01,1.00274e-01,9.99999e-01,9.99999e-01,9.99998e-01,1.00275e-01,9.99999e-01
4.622487892e-01,1.04935e-01,9.99999e-01,9.99999e-01,9.99999e-01,1.04935e-01,9.99999e-01
4.645600332e-01,1.09713e-01,9.99999e-01,9.99999e-01,9.99998e-01,1.09713e-01,9.99999e-01
4.668828333e-01,1.14607e-01,9.99999e-01,9.99999e-01,9.99989e-01,1.14608e-01,9.99999e-01
4.692172475e-01,1.19616e-01,9.99999e-01,9.99999e-01,9.99977e-01,1.19619e-01,9.99999e-01
4.715633337e-01,1.24741e-01,9.99999e-01,9.99999e-01,9.99985e-01,1.24743e-01,9.99999e-01
4.739211504e-01,1.29976e-01,9.99999e-01,9.99999e-01,9.99985e-01,1.29978e-01,9.99999e-01
4.762907561e-01,1.35323e-01,9.99999e-01,9.99999e-01,9.99992e-01,1.35324e-01,9.99999e-01
4.786722099e-01,1.40777e-01,9.99999e-01,9.99999e-01,9.99996e-01,1.40777e-01,9.99999e-01
4.810655710e-01,1.46335e-01,9.99999e-01,9.99999e-01,9.99998e-01,1.46336e-01,9.99999e-01
4.834708988e-01,1.51996e-01,9.99999e-01,9.99999e-01,9.99991e-01,1.51998e-01,9.99999e-01
4.858882533e-01,1.57758e-01,9.99999e-01,9.99999e-01,9.99983e-01,1.57760e-01,9.99999e-01
4.883176946e-01,1.63619e-01,9.99999e-01,9.99999e-01,9.99986e-01,1.63621e-01,9.99999e-01
4.907592831e-01,1.69575e-01,9.99999e-01,9.99999e-01,9.99987e-01,1.69577e-01,9.99999e-01
4.932130795e-01,1.75625e-01,9.99999e-01,9.99999e-01,9.99991e-01,1.75626e-01,9.99999e-01
4.956791449e-01,1.81764e-01,9.99999e-01,9.99999e-01,9.99995e-01,1.81765e-01,9.99999e-01
4.981575406e-01,1.87987e-01,9.99999e-01,9.99999e-01,9.99977e-01,1.87991e-01,9.99999e-01
5.006483283e-01,1.94290e-01,9.99999e-01,9.99999e-01,9.99942e-01,1.94301e-01,9.99999e-01
5.031515699e-01,2.00633e-01,9.99999e-01,9.99999e-01,9.99707e-01,2.00691e-01,9.99999e-01
5.056673278e-01,2.07128e-01,9.99999e-01,9.99999e-01,9.99844e-01,2.07160e-01,9.99999e-01
5.081956644e-01,2.13661e-01,9.99999e-01,9.99999e-01,9.99804e-01,2.13703e-01,9.99999e-01
5.107366428e-01,2.20288e-01,9.99999e-01,9.99999e-01,9.99867e-01,2.20317e-01,9.99999e-01
5.132903260e-01,2.26982e-01,9.99999e-01,9.99999e-01,9.99924e-01,2.26999e-01,9.99999e-01
5.158567776e-01,2.33739e-01,9.99999e-01,9.99999e-01,9.99967e-01,2.33746e-01,9.99999e-01
5.184360615e-01,2.40552e-01,9.99999e-01,9.99999e-01,9.99986e-01,2.40555e-01,9.99999e-01
5.210282418e-01,2.47420e-01,9.99999e-01,9.99999e-01,9.99994e-01,2.47421e-01,9.99999e-01
5.236333830e-01,2.54337e-01,9.99999e-01,9.99999e-01,9.99980e-01,2.54342e-01,9.99999e-01
5.262515499e-01,2.61310e-01,9.99999e-01,9.99999e-01,9.99987e-01,2.61313e-01,9.99999e-01
5.288828077e-01,2.68330e-01,9.99999e-01,9.99999e-01,9.99988e-01,2.68333e-01,9.99999e-01
5.315272217e-01,2.75394e-01,9.99999e-01,9.99999e-01,9.99989e-01,2.75397e-01,9.99999e-01
5.341848578e-01,2.82500e-01,9.99999e-01,9.99999e-01,9.99993e-01,2.82502e-01,9.99999e-01
5.368557821e-01,2.89638e-01,9.99999e-01,9.99999e-01,9.99977e-01,2.89644e-01,9.99999e-01
5.395400610e-01,2.96797e-01,9.99999e-01,9.99999e-01,9.99919e-01,2.96821e-01,9.99999e-01
5.422377613e-01,3.03997e-01,9.99999e-01,9.99999e-01,9.99895e-01,3.04028e-01,9.99999e-01
5.449489501e-01,3.11233e-01,9.99999e-01,9.99999e-01,9.99903e-01,3.11263e-01,9.99999e-01
5.476736949e-01,3.18495e-01,9.99999e-01,9.99999e-01,9.99914e-01,3.18522e-01,9.99999e-01
5.504120634e-01,3.25782e-01,9.99999e-01,9.99999e-01,9.99937e-01,3.25802e-01,9.99999e-01
5.531641237e-01,3.33089e-01,9.99999e-01,9.99999e-01,9.99968e-01,3.33100e-01,9.99999e-01
5.559299443e-01,3.40407e-01,9.99999e-01,9.99999e-01,9.99984e-01,3.40412e-01,9.99999e-01
5.587095940e-01,3.47732e-01,9.99999e-01,9.99999e-01,9.99990e-01,3.47735e-01,9.99999e-01
5.615031420e-01,3.55063e-01,9.99999e-01,9.99999e-01,9.99989e-01,3.55067e-01,9.99999e-01
5.643106577e-01,3.62400e-01,9.99999e-01,9.99999e-01,9.99987e-01,3.62404e-01,9.99999e-01
5.671322110e-01,3.69690e-01,9.99999e-01,9.99999e-01,9.99856e-01,3.69743e-01,9.99999e-01
5.699678720e-01,3.77023e-01,9.99999e-01,9.99999e-01,9.99844e-01,3.77081e-01,9.99999e-01
5.728177114e-01,3.84354e-01,9.99999e-01,9.99999e-01,9.99839e-01,3.84416e-01,9.99999e-01
5.756818000e-01,3.91687e-01,9.99999e-01,9.99999e-01,9.99852e-01,3.91744e-01,9.99999e-01
5.785602090e-01,3.99012e-01,9.99999e-01,9.99999e-01,9.99871e-01,3.99063e-01,9.99999e-01
5.814530100e-01,4.06318e-01,9.99999e-01,9.99999e-01,9.99870e-01,4.06370e-01,9.99999e-01
5.843602750e-01,4.13600e-01,9.99999e-01,9.99999e-01,9.99846e-01,4.13663e-01,9.99999e-01
5.872820764e-01,4.20383e-01,9.99999e-01,9.99999e-01,9.98679e-01,4.20939e-01,9.99999e-01
5.902184868e-01,4.27508e-01,9.99999e-01,9.99999e-01,9.98393e-01,4.28195e-01,9.99999e-01
5.931695792e-01,4.34936e-01,9.99999e-01,9.99999e-01,9.98866e-01,4.35429e-01,9.99999e-01
5.961354271e-01,4.42089e-01,9.99999e-01,9.99999e-01,9.98756e-01,4.42639e-01,9.99999e-01
5.991161043e-01,4.49415e-01,9.99999e-01,9.99999e-01,9.99092e-01,4.49823e-01,9.99999e-01
6.021116848e-01,4.56742e-01,9.99999e-01,9.99999e-01,9.99484e-01,4.56977e-01,9.99999e-01
6.051222432e-01,4.63980e-01,9.99999e-01,9.99999e-01,9.99738e-01,4.64101e-01,9.99999e-01
6.081478544e-01,4.71139e-01,9.99999e-01,9.99999e-01,9.99887e-01,4.71192e-01,9.99999e-01
6.111885937e-01,4.78225e-01,9.99999e-01,9.99999e-01,9.99951e-01,4.78248e-01,9.99999e-01
6.142445367e-01,4.85256e-01,9.99999e-01,9.99999e-01,9.99978e-01,4.85267e-01,9.99999e-01
6.173157594e-01,4.92241e-01,9.99999e-01,9.99999e-01,9.99987e-01,4.92247e-01,9.99999e-01
6.204023382e-01,4.99182e-01,9.99999e-01,9.99999e-01,9.99989e-01,4.99187e-01,9.99999e-01
6.235043498e-01,5.06063e-01,9.99999e-01,9.99999e-01,9.99956e-01,5.06085e-01,9.99999e-01
6.266218716e-01,5.12821e-01,9.99999e-01,9.99999e-01,9.99769e-01,5.12939e-01,9.99999e-01
6.297549810e-01,5.19704e-01,9.99999e-01,9.99999e-01,9.99915e-01,5.19748e-01,9.99999e-01
6.329037559e-01,5.26422e-01,9.99999e-01,9.99999e-01,9.99832e-01,5.26510e-01,9.99999e-01
6.360682746e-01,5.33148e-01,9.99999e-01,9.99999e-01,9.99857e-01,5.33223e-01,9.99999e-01
6.392486160e-01,5.39788e-01,9.99999e-01,9.99999e-01,9.99815e-01,5.39888e-01,9.99999e-01
6.424448591e-01,5.46367e-01,9.99999e-01,9.99999e-01,9.99753e-01,5.46501e-01,9.99999e-01
6.456570834e-01,5.52431e-01,9.99999e-01,9.99999e-01,9.98857e-01,5.53063e-01,9.99999e-01
6.488853688e-01,5.59100e-01,9.99999e-01,9.99999e-01,9.99158e-01,5.59571e-01,9.99999e-01
6.521297956e-01,5.65540e-01,9.99999e-01,9.99999e-01,9.99142e-01,5.66025e-01,9.99999e-01
6.553904446e-01,5.71939e-01,9.99999e-01,9.99999e-01,9.99152e-01,5.72424e-01,9.99999e-01
6.586673968e-01,5.78344e-01,9.99999e-01,9.99999e-01,9.99268e-01,5.78767e-01,9.99999e-01
6.619607338e-01,5.84805e-01,9.99999e-01,9.99999e-01,9.99577e-01,5.85052e-01,9.99999e-01
6.652705375e-01,5.91135e-01,9.99999e-01,9.99999e-01,9.99754e-01,5.91280e-01,9.99999e-01
6.685968902e-01,5.97381e-01,9.99999e-01,9.99999e-01,9.99885e-01,5.97449e-01,9.99999e-01
6.719398746e-01,6.03527e-01,9.99999e-01,9.99999e-01,9.99946e-01,6.03558e-01,9.99999e-01
6.752995740e-01,6.09591e-01,9.99999e-01,9.99999e-01,9.99971e-01,6.09608e-01,9.99999e-01
6.786760719e-01,6.15572e-01,9.99999e-01,9.99999e-01,9.99958e-01,6.15597e-01,9.99999e-01
6.820694522e-01,6.21481e-01,9.99999e-01,9.99999e-01,9.99929e-01,6.21525e-01,9.99999e-01
6.854797995e-01,6.27334e-01,9.99999e-01,9.99999e-01,9.99908e-01,6.27391e-01,9.99999e-01
6.889071985e-01,6.33057e-01,9.99999e-01,9.99999e-01,9.99781e-01,6.33194e-01,9.99999e-01
6.923517345e-01,6.36649e-01,9.99999e-01,9.99999e-01,9.96420e-01,6.38936e-01,9.99999e-01
6.958134932e-01,6.43402e-01,9.99999e-01,9.99999e-01,9.98119e-01,6.44614e-01,9.99999e-01
6.992925606e-01,6.49080e-01,9.99999e-01,9.99999e-01,9.98231e-01,6.50230e-01,9.99999e-01
7.027890234e-01,6.54344e-01,9.99999e-01,9.99999e-01,9.97808e-01,6.55781e-01,9.99999e-01
7.063029686e-01,6.60052e-01,9.99999e-01,9.99999e-01,9.98158e-01,6.61270e-01,9.99999e-01
7.098344834e-01,6.65516e-01,9.99999e-01,9.99999e-01,9.98233e-01,6.66694e-01,9.99999e-01
7.133836558e-01,6.70480e-01,9.99999e-01,9.99999e-01,9.97657e-01,6.72054e-01,9.99999e-01
7.169505741e-01,6.64584e-01,9.99999e-01,9.99999e-01,9.81151e-01,6.77351e-01,9.99999e-01
7.205353270e-01,6.76214e-01,9.99999e-01,9.99999e-01,9.90669e-01,6.82583e-01,9.99999e-01
7.241380036e-01,6.79675e-01,9.99999e-01,9.99999e-01,9.88256e-01,6.87751e-01,9.99999e-01
7.277586936e-01,6.85505e-01,9.99999e-01,9.99999e-01,9.89391e-01,6.92855e-01,9.99999e-01
7.313974871e-01,6.90010e-01,9.99999e-01,9.99999e-01,9.88702e-01,6.97895e-01,9.99999e-01
7.350544745e-01,6.98531e-01,9.99999e-01,9.99999e-01,9.93825e-01,7.02871e-01,9.99999e-01
7.387297469e-01,7.04567e-01,9.99999e-01,9.99999e-01,9.95455e-01,7.07783e-01,9.99999e-01
7.424233956e-01,7.11045e-01,9.99999e-01,9.99999e-01,9.97772e-01,7.12632e-01,9.99999e-01
7.461355126e-01,7.16449e-01,9.99999e-01,9.99999e-01,9.98651e-01,7.17416e-01,9.99999e-01
7.498661902e-01,7.21684e-01,9.99999e-01,9.99999e-01,9.99370e-01,7.22138e-01,9.99999e-01
7.536155211e-01,7.26573e-01,9.99999e-01,9.99999e-01,9.99691e-01,7.26796e-01,9.99999e-01
7.573835987e-01,7.31276e-01,9.99999e-01,9.99999e-01,9.99841e-01,7.31392e-01,9.99999e-01
7.611705167e-01,7.35853e-01,9.99999e-01,9.99999e-01,9.99901e-01,7.35925e-01,9.99999e-01
7.649763693e-01,7.40350e-01,9.99999e-01,9.99999e-01,9.99937e-01,7.40396e-01,9.99999e-01
7.688012511e-01,7.44773e-01,9.99999e-01,9.99999e-01,9.99956e-01,7.44805e-01,9.99999e-01
7.726452574e-01,7.49125e-01,9.99999e-01,9.99999e-01,9.99964e-01,7.49152e-01,9.99999e-01
7.765084837e-01,7.53400e-01,9.99999e-01,9.99999e-01,9.99949e-01,7.53438e-01,9.99999e-01
7.803910261e-01,7.47102e-01,9.99999e-01,9.86271e-01,9.99783e-01,7.57663e-01,9.99999e-01
7.842929812e-01,7.16944e-01,9.99999e-01,9.41779e-01,9.99245e-01,7.61827e-01,9.99999e-01
7.882144461e-01,7.17128e-01,9.99999e-01,9.37719e-01,9.98440e-01,7.65932e-01,9.99999e-01
7.921555184e-01,7.41533e-01,9.99999e-01,9.63876e-01,9.99142e-01,7.69977e-01,9.99999e-01
7.961162960e-01,7.53999e-01,9.99999e-01,9.75670e-01,9.98492e-01,7.73963e-01,9.99999e-01
8.000968774e-01,7.66253e-01,9.99999e-01,9.86759e-01,9.98254e-01,7.77890e-01,9.99999e-01
8.040973618e-01,7.75020e-01,9.99999e-01,9.93110e-01,9.98255e-01,7.81759e-01,9.99999e-01
8.081178486e-01,7.80018e-01,9.99999e-01,9.96839e-01,9.96078e-01,7.85570e-01,9.99999e-01
8.121584379e-01,7.75688e-01,9.99999e-01,9.99018e-01,9.83685e-01,7.89324e-01,9.99999e-01
8.162192301e-01,7.77430e-01,9.99999e-01,9.99783e-01,9.80550e-01,7.93021e-01,9.99999e-01
8.203003262e-01,7.88920e-01,9.99999e-01,9.99996e-01,9.90285e-01,7.96662e-01,9.99999e-01
8.244018279e-01,7.89235e-01,9.99999e-01,9.99999e-01,9.86238e-01,8.00247e-01,9.99999e-01
8.285238370e-01,7.94460e-01,9.99999e-01,9.99999e-01,9.88407e-01,8.03777e-01,9.99999e-01
8.326664562e-01,7.97769e-01,9.99999e-01,9.99999e-01,9.88251e-01,8.07253e-01,9.99999e-01
8.368297885e-01,8.03869e-01,9.99999e-01,9.99999e-01,9.91605e-01,8.10674e-01,9.99999e-01
8.410139374e-01,8.09978e-01,9.99999e-01,9.99999e-01,9.95007e-01,8.14042e-01,9.99999e-01
8.452190071e-01,8.15354e-01,9.99999e-01,9.99999e-01,9.97549e-01,8.17357e-01,9.99999e-01
8.494451021e-01,8.19455e-01,9.99999e-01,9.99999e-01,9.98580e-01,8.20619e-01,9.99999e-01
8.536923276e-01,8.23138e-01,9.99999e-01,9.99999e-01,9.99159e-01,8.23830e-01,9.99999e-01
8.579607893e-01,8.26562e-01,9.99999e-01,9.99999e-01,9.99482e-01,8.26990e-01,9.99999e-01
8.622505932e-01,8.29826e-01,9.99999e-01,9.99999e-01,9.99670e-01,8.30098e-01,9.99999e-01
8.665618462e-01,8.01334e-01,9.99999e-01,9.61994e-01,9.99796e-01,8.33157e-01,9.99999e-01
8.708946554e-01,7.15980e-01,9.99999e-01,8.56460e-01,9.99767e-01,8.36167e-01,9.99999e-01
8.752491287e-01,7.41756e-01,9.99999e-01,8.84232e-01,9.99688e-01,8.39127e-01,9.99999e-01
8.796253743e-01,7.87343e-01,9.99999e-01,9.35439e-01,9.99570e-01,8.42039e-01,9.99999e-01
8.840235012e-01,8.15949e-01,9.99999e-01,9.66201e-01,9.99508e-01,8.44904e-01,9.99999e-01
8.884436187e-01,8.34834e-01,9.99999e-01,9.86547e-01,9.98219e-01,8.47721e-01,9.99999e-01
8.928858368e-01,8.29975e-01,9.99999e-01,9.94541e-01,9.81214e-01,8.50492e-01,9.99999e-01
8.973502660e-01,8.23796e-01,9.99999e-01,9.98668e-01,9.66795e-01,8.53217e-01,9.99999e-01
9.018370173e-01,8.41094e-01,9.99999e-01,9.99852e-01,9.82848e-01,8.55896e-01,9.99999e-01
9.063462024e-01,8.42559e-01,9.99999e-01,9.96269e-01,9.85026e-01,8.58531e-01,9.99998e-01
9.108779334e-01,8.33842e-01,9.99999e-01,9.91401e-01,9.76678e-01,8.61121e-01,9.99998e-01
9.154323231e-01,8.39131e-01,9.99999e-01,9.97967e-01,9.73551e-01,8.63668e-01,9.99998e-01
9.200094847e-01,8.23048e-01,9.99999e-01,9.69974e-01,9.79179e-01,8.66172e-01,9.99998e-01
9.246095321e-01,8.05852e-01,9.99999e-01,9.58549e-01,9.67530e-01,8.68634e-01,9.99998e-01
9.292325798e-01,6.73938e-01,9.99999e-01,9.67334e-01,7.98568e-01,8.71053e-01,9.99996e-01
9.338787427e-01,6.32070e-01,9.99999e-01,9.68379e-01,7.46107e-01,8.73432e-01,9.99995e-01
9.385481364e-01,7.60876e-01,9.99999e-01,9.76736e-01,8.88982e-01,8.75770e-01,9.99995e-01
9.432408771e-01,7.33646e-01,9.99999e-01,9.85699e-01,8.47352e-01,8.78067e-01,9.99994e-01
9.479570815e-01,6.92908e-01,9.99999e-01,9.92649e-01,7.92788e-01,8.80326e-01,9.99995e-01
9.526968669e-01,7.40704e-01,9.99999e-01,9.96445e-01,8.42152e-01,8.82545e-01,9.99996e-01
9.574603512e-01,7.57458e-01,9.99999e-01,9.98478e-01,8.57420e-01,8.84726e-01,9.99997e-01
9.622476530e-01,7.82584e-01,9.99999e-01,9.99524e-01,8.82822e-01,8.86869e-01,9.99997e-01
9.670588912e-01,8.27456e-01,9.99999e-01,9.99857e-01,9.30929e-01,8.88974e-01,9.99998e-01
9.718941857e-01,8.52330e-01,9.99999e-01,9.99989e-01,9.56562e-01,8.91043e-01,9.99998e-01
9.767536566e-01,8.60777e-01,9.99999e-01,9.99999e-01,9.63834e-01,8.93076e-01,9.99999e-01
9.816374249e-01,8.70977e-01,9.99999e-01,9.99999e-01,9.73079e-01,8.95073e-01,9.99999e-01
9.865456120e-01,8.81884e-01,9.99999e-01,9.99999e-01,9.83109e-01,8.97035e-01,9.99999e-01
9.914783401e-01,8.89557e-01,9.99999e-01,9.99999e-01,9.89537e-01,8.98962e-01,9.99999e-01
9.964357318e-01,8.95712e-01,9.99999e-01,9.99999e-01,9.94289e-01,9.00855e-01,9.99999e-01
1.001417910e+00,8.99623e-01,9.99999e-01,9.99999e-01,9.96574e-01,9.02715e-01,9.99999e-01
1.006425000e+00,9.02777e-01,9.99999e-01,9.99999e-01,9.98048e-01,9.04542e-01,9.99999e-01
1.011457125e+00,9.05237e-01,9.99999e-01,9.99999e-01,9.98786e-01,9.06336e-01,9.99999e-01
1.016514411e+00,9.07352e-01,9.99999e-01,9.99999e-01,9.99176e-01,9.08099e-01,9.99999e-01
1.021596983e+00,9.09216e-01,9.99999e-01,9.99980e-01,9.99344e-01,9.09829e-01,9.99999e-01
1.026704968e+00,9.09746e-01,9.99999e-01,9.98552e-01,9.99488e-01,9.11529e-01,9.99999e-01
1.031838492e+00,8.92894e-01,9.99999e-01,9.78121e-01,9.99627e-01,9.13199e-01,9.99999e-01
1.036997685e+00,3.11409e-01,9.99999e-01,3.40462e-01,9.99778e-01,9.14838e-01,9.99999e-01
1.042182673e+00,3.83031e-01,9.99999e-01,4.18055e-01,9.99737e-01,9.16448e-01,9.99999e-01
1.047393587e+00,3.45363e-01,9.99999e-01,3.76320e-01,9.99651e-01,9.18029e-01,9.99999e-01
1.052630555e+00,7.28968e-02,9.99999e-01,7.93024e-02,9.99521e-01,9.19581e-01,9.99999e-01
1.057893707e+00,1.27269e-01,9.99999e-01,1.38260e-01,9.99202e-01,9.21105e-01,9.99999e-01
1.063183176e+00,2.21373e-01,9.99999e-01,2.40210e-01,9.98686e-01,9.22601e-01,9.99999e-01
1.068499092e+00,3.59641e-01,9.99999e-01,3.89986e-01,9.97799e-01,9.24070e-01,9.99999e-01
1.073841587e+00,5.09474e-01,9.99999e-01,5.51790e-01,9.97426e-01,9.25513e-01,9.99999e-01
1.079210795e+00,6.35510e-01,9.99999e-01,6.87793e-01,9.96698e-01,9.26929e-01,9.99999e-01
1.084606849e+00,7.53260e-01,9.99999e-01,8.15415e-01,9.95007e-01,9.28319e-01,9.99999e-01
1.090029883e+00,8.30676e-01,9.99999e-01,8.99868e-01,9.92848e-01,9.29684e-01,9.99999e-01
1.095480033e+00,8.66818e-01,9.99999e-01,9.49368e-01,9.80608e-01,9.31024e-01,9.99999e-01
1.100957433e+00,8.65162e-01,9.99999e-01,9.75326e-01,9.51326e-01,9.32339e-01,9.99998e-01
1.106462220e+00,8.13298e-01,9.99999e-01,9.89721e-01,8.80028e-01,9.33630e-01,9.99997e-01
1.111994531e+00,7.09962e-01,9.99999e-01,9.96179e-01,7.62227e-01,9.34898e-01,9.99995e-01
1.117554504e+00,6.00711e-01,9.99999e-01,9.99064e-01,6.42242e-01,9.36142e-01,9.99994e-01
1.123142276e+00,6.71276e-01,9.99999e-01,9.99937e-01,7.16169e-01,9.37363e-01,9.99993e-01
1.128757988e+00,7.61164e-01,9.99999e-01,9.99999e-01,8.10995e-01,9.38561e-01,9.99992e-01
1.134401778e+00,5.60823e-01,9.99999e-01,9.99999e-01,5.96791e-01,9.39737e-01,9.99991e-01
1.140073787e+00,8.32139e-01,9.99999e-01,9.99999e-01,8.84420e-01,9.40892e-01,9.99993e-01
1.145774156e+00,7.26116e-01,9.99999e-01,9.99999e-01,7.70807e-01,9.42025e-01,9.99994e-01
1.151503026e+00,7.04080e-01,9.99999e-01,9.99999e-01,7.46533e-01,9.43137e-01,9.99995e-01
1.157260541e+00,7.43948e-01,9.99999e-01,9.99999e-01,7.87892e-01,9.44228e-01,9.99996e-01
1.163046844e+00,7.92964e-01,9.99999e-01,9.99999e-01,8.38851e-01,9.45299e-01,9.99997e-01
1.168862078e+00,8.38370e-01,9.99999e-01,9.99999e-01,8.85899e-01,9.46350e-01,9.99998e-01
1.174706389e+00,8.79171e-01,9.99999e-01,9.99999e-01,9.28001e-01,9.47381e-01,9.99998e-01
1.180579921e+00,9.06254e-01,9.99999e-01,9.99999e-01,9.55567e-01,9.48393e-01,9.99999e-01
1.186482820e+00,9.25366e-01,9.99999e-01,9.99997e-01,9.74701e-01,9.49386e-01,9.99999e-01
1.192415234e+00,9.31429e-01,9.99999e-01,9.94801e-01,9.85177e-01,9.50361e-01,9.99999e-01
1.198377311e+00,5.63499e-01,9.99999e-01,5.98666e-01,9.87502e-01,9.51317e-01,9.99999e-01
1.204369197e+00,9.86207e-06,9.99999e-01,1.04279e-05,9.88155e-01,9.52255e-01,9.99999e-01
1.210391043e+00,3.13647e-17,9.99999e-01,3.31139e-17,9.88675e-01,9.53176e-01,9.99999e-01
1.216442998e+00,3.69748e-15,9.99999e-01,3.89877e-15,9.90349e-01,9.54079e-01,9.99999e-01
1.222525213e+00,6.40543e-15,9.99999e-01,6.73471e-15,9.92486e-01,9.54965e-01,9.99999e-01
1.228637839e+00,1.96291e-11,9.99999e-01,2.06136e-11,9.94779e-01,9.55835e-01,9.99999e-01
