#,Wave/freq,Total,O2,CO2,H2O,Rayleigh,CIA
4.000000000e-01,1.71326e-09,9.99999e-01,9.99999e-01,9.99959e-01,1.71333e-09,9.99999e-01
4.020000000e-01,2.55367e-09,9.99999e-01,9.99999e-01,9.99974e-01,2.55374e-09,9.99999e-01
4.040100000e-01,3.77486e-09,9.99999e-01,9.99999e-01,9.99989e-01,3.77490e-09,9.99999e-01
4.060300500e-01,5.53709e-09,9.99999e-01,9.99999e-01,9.99997e-01,5.53710e-09,9.99999e-01
4.080602003e-01,8.06070e-09,9.99999e-01,9.99999e-01,9.99998e-01,8.06071e-09,9.99999e-01
4.101005013e-01,1.16478e-08,9.99999e-01,9.99999e-01,9.99999e-01,1.16478e-08,9.99999e-01
4.121510038e-01,1.67091e-08,9.99999e-01,9.99999e-01,9.99998e-01,1.67091e-08,9.99999e-01
4.142117588e-01,2.37993e-08,9.99999e-01,9.99999e-01,9.99988e-01,2.37996e-08,9.99999e-01
4.162828176e-01,3.36612e-08,9.99999e-01,9.99999e-01,9.99950e-01,3.36629e-08,9.99999e-01
4.183642317e-01,4.72875e-08,9.99999e-01,9.99999e-01,9.99970e-01,4.72888e-08,9.99999e-01
4.204560528e-01,6.59846e-08,9.99999e-01,9.99999e-01,9.99981e-01,6.59858e-08,9.99999e-01
4.225583331e-01,9.14705e-08,9.99999e-01,9.99999e-01,9.99992e-01,9.14711e-08,9.99999e-01
4.246711247e-01,1.25984e-07,9.99999e-01,9.99999e-01,9.99994e-01,1.25984e-07,9.99999e-01
4.267944804e-01,1.72424e-07,9.99999e-01,9.99999e-01,9.99991e-01,1.72426e-07,9.99999e-01
4.289284528e-01,2.34527e-07,9.99999e-01,9.99999e-01,9.99993e-01,2.34529e-07,9.99999e-01
4.310730950e-01,3.17066e-07,9.99999e-01,9.99999e-01,9.99996e-01,3.17067e-07,9.99999e-01
4.332284605e-01,4.26107e-07,9.99999e-01,9.99999e-01,9.99998e-01,4.26107e-07,9.99999e-01
4.353946028e-01,5.69314e-07,9.99999e-01,9.99999e-01,9.99999e-01,5.69314e-07,9.99999e-01
4.375715758e-01,7.56305e-07,9.99999e-01,9.99999e-01,9.99994e-01,7.56309e-07,9.99999e-01
4.397594337e-01,9.99060e-07,9.99999e-01,9.99999e-01,9.99957e-01,9.99102e-07,9.99999e-01
4.419582309e-01,1.31232e-06,9.99999e-01,9.99999e-01,9.99784e-01,1.31260e-06,9.99999e-01
4.441680220e-01,1.71490e-06,9.99999e-01,9.99999e-01,9.99828e-01,1.71520e-06,9.99999e-01
4.463888621e-01,2.22907e-06,9.99999e-01,9.99999e-01,9.99822e-01,2.22946e-06,9.99999e-01
4.486208064e-01,2.88263e-06,9.99999e-01,9.99999e-01,9.99888e-01,2.88295e-06,9.99999e-01
4.508639105e-01,3.70892e-06,9.99999e-01,9.99999e-01,9.99947e-01,3.70911e-06,9.99999e-01
4.531182300e-01,4.74822e-06,9.99999e-01,9.99999e-01,9.99979e-01,4.74832e-06,9.99999e-01
4.553838212e-01,6.04903e-06,9.99999e-01,9.99999e-01,9.99985e-01,6.04911e-06,9.99999e-01
4.576607403e-01,7.66943e-06,9.99999e-01,9.99999e-01,9.99993e-01,7.66948e-06,9.99999e-01
4.599490440e-01,9.67838e-06,9.99999e-01,9.99999e-01,9.99994e-01,9.67842e-06,9.99999e-01
4.622487892e-01,1.21576e-05,9.99999e-01,9.99999e-01,9.99998e-01,1.21576e-05,9.99999e-01
4.645600332e-01,1.52031e-05,9.99999e-01,9.99999e-01,9.99996e-01,1.52032e-05,9.99999e-01
4.668828333e-01,1.89269e-05,9.99999e-01,9.99999e-01,9.99947e-01,1.89279e-05,9.99999e-01
4.692172475e-01,2.34608e-05,9.99999e-01,9.99999e-01,9.99888e-01,2.34634e-05,9.99999e-01
4.715633337e-01,2.89605e-05,9.99999e-01,9.99999e-01,9.99926e-01,2.89626e-05,9.99999e-01
4.739211504e-01,3.55998e-05,9.99999e-01,9.99999e-01,9.99929e-01,3.56023e-05,9.99999e-01
4.762907561e-01,4.35844e-05,9.99999e-01,9.99999e-01,9.99963e-01,4.35860e-05,9.99999e-01
4.786722099e-01,5.31464e-05,9.99999e-01,9.99999e-01,9.99984e-01,5.31472e-05,9.99999e-01
4.810655710e-01,6.45522e-05,9.99999e-01,9.99999e-01,9.99995e-01,6.45525e-05,9.99999e-01
4.834708988e-01,7.81015e-05,9.99999e-01,9.99999e-01,9.99957e-01,7.81048e-05,9.99999e-01
4.858882533e-01,9.41398e-05,9.99999e-01,9.99999e-01,9.99920e-01,9.41472e-05,9.99999e-01
4.883176946e-01,1.13059e-04,9.99999e-01,9.99999e-01,9.99933e-01,1.13067e-04,9.99999e-01
4.907592831e-01,1.35290e-04,9.99999e-01,9.99999e-01,9.99939e-01,1.35298e-04,9.99999e-01
4.932130795e-01,1.61320e-04,9.99999e-01,9.99999e-01,9.99957e-01,1.61327e-04,9.99999e-01
4.956791449e-01,1.91692e-04,9.99999e-01,9.99999e-01,9.99977e-01,1.91697e-04,9.99999e-01
4.981575406e-01,2.26983e-04,9.99999e-01,9.99999e-01,9.99888e-01,2.27009e-04,9.99999e-01
5.006483283e-01,2.67852e-04,9.99999e-01,9.99999e-01,9.99712e-01,2.67929e-04,9.99999e-01
5.031515699e-01,3.14730e-04,9.99999e-01,9.99999e-01,9.98534e-01,3.15192e-04,9.99999e-01
5.056673278e-01,3.69317e-04,9.99999e-01,9.99999e-01,9.99223e-01,3.69604e-04,9.99999e-01
5.081956644e-01,4.31625e-04,9.99999e-01,9.99999e-01,9.99020e-01,4.32048e-04,9.99999e-01
5.107366428e-01,5.03155e-04,9.99999e-01,9.99999e-01,9.99337e-01,5.03488e-04,9.99999e-01
5.132903260e-01,5.84747e-04,9.99999e-01,9.99999e-01,9.99620e-01,5.84969e-04,9.99999e-01
5.158567776e-01,6.77517e-04,9.99999e-01,9.99999e-01,9.99839e-01,6.77626e-04,9.99999e-01
5.184360615e-01,7.82633e-04,9.99999e-01,9.99999e-01,9.99935e-01,7.82683e-04,9.99999e-01
5.210282418e-01,9.01436e-04,9.99999e-01,9.99999e-01,9.99975e-01,9.01457e-04,9.99999e-01
5.236333830e-01,1.03526e-03,9.99999e-01,9.99999e-01,9.99903e-01,1.03536e-03,9.99999e-01
5.262515499e-01,1.18584e-03,9.99999e-01,9.99999e-01,9.99939e-01,1.18591e-03,9.99999e-01
5.288828077e-01,1.35464e-03,9.99999e-01,9.99999e-01,9.99944e-01,1.35471e-03,9.99999e-01
5.315272217e-01,1.54340e-03,9.99999e-01,9.99999e-01,9.99951e-01,1.54348e-03,9.99999e-01
5.341848578e-01,1.75396e-03,9.99999e-01,9.99999e-01,9.99968e-01,1.75402e-03,9.99999e-01
5.368557821e-01,1.98803e-03,9.99999e-01,9.99999e-01,9.99888e-01,1.98825e-03,9.99999e-01
5.395400610e-01,2.24730e-03,9.99999e-01,9.99999e-01,9.99601e-01,2.24819e-03,9.99999e-01
5.422377613e-01,2.53463e-03,9.99999e-01,9.99999e-01,9.99478e-01,2.53595e-03,9.99999e-01
5.449489501e-01,2.85237e-03,9.99999e-01,9.99999e-01,9.99518e-01,2.85375e-03,9.99999e-01
5.476736949e-01,3.20251e-03,9.99999e-01,9.99999e-01,9.99569e-01,3.20389e-03,9.99999e-01
5.504120634e-01,3.58766e-03,9.99999e-01,9.99999e-01,9.99687e-01,3.58878e-03,9.99999e-01
5.531641237e-01,4.01027e-03,9.99999e-01,9.99999e-01,9.99842e-01,4.01090e-03,9.99999e-01
5.559299443e-01,4.47251e-03,9.99999e-01,9.99999e-01,9.99923e-01,4.47285e-03,9.99999e-01
5.587095940e-01,4.97703e-03,9.99999e-01,9.99999e-01,9.99952e-01,4.97727e-03,9.99999e-01
5.615031420e-01,5.52660e-03,9.99999e-01,9.99999e-01,9.99946e-01,5.52689e-03,9.99999e-01
5.643106577e-01,6.12417e-03,9.99999e-01,9.99999e-01,9.99940e-01,6.12453e-03,9.99999e-01
5.671322110e-01,6.76821e-03,9.99999e-01,9.99999e-01,9.99287e-01,6.77304e-03,9.99999e-01
5.699678720e-01,7.46951e-03,9.99999e-01,9.99999e-01,9.99220e-01,7.47534e-03,9.99999e-01
5.728177114e-01,8.22779e-03,9.99999e-01,9.99999e-01,9.99197e-01,8.23440e-03,9.99999e-01
5.756818000e-01,9.04654e-03,9.99999e-01,9.99999e-01,9.99261e-01,9.05322e-03,9.99999e-01
5.785602090e-01,9.92845e-03,9.99999e-01,9.99999e-01,9.99354e-01,9.93485e-03,9.99999e-01
5.814530100e-01,1.08753e-02,9.99999e-01,9.99999e-01,9.99353e-01,1.08823e-02,9.99999e-01
5.843602750e-01,1.18897e-02,9.99999e-01,9.99999e-01,9.99236e-01,1.18988e-02,9.99999e-01
5.872820764e-01,1.29018e-02,9.99999e-01,9.99999e-01,9.93423e-01,1.29872e-02,9.99999e-01
5.902184868e-01,1.40370e-02,9.99999e-01,9.99999e-01,9.91960e-01,1.41507e-02,9.99999e-01
5.931695792e-01,1.53051e-02,9.99999e-01,9.99999e-01,9.94333e-01,1.53924e-02,9.99999e-01
5.961354271e-01,1.66111e-02,9.99999e-01,9.99999e-01,9.93775e-01,1.67151e-02,9.99999e-01
5.991161043e-01,1.80397e-02,9.99999e-01,9.99999e-01,9.95451e-01,1.81221e-02,9.99999e-01
6.021116848e-01,1.95654e-02,9.99999e-01,9.99999e-01,9.97413e-01,1.96161e-02,9.99999e-01
6.051222432e-01,2.11723e-02,9.99999e-01,9.99999e-01,9.98689e-01,2.12001e-02,9.99999e-01
6.081478544e-01,2.28640e-02,9.99999e-01,9.99999e-01,9.99435e-01,2.28769e-02,9.99999e-01
6.111885937e-01,2.46433e-02,9.99999e-01,9.99999e-01,9.99760e-01,2.46492e-02,9.99999e-01
6.142445367e-01,2.65169e-02,9.99999e-01,9.99999e-01,9.99892e-01,2.65197e-02,9.99999e-01
6.173157594e-01,2.84893e-02,9.99999e-01,9.99999e-01,9.99940e-01,2.84910e-02,9.99999e-01
6.204023382e-01,3.05639e-02,9.99999e-01,9.99999e-01,9.99950e-01,3.05654e-02,9.99999e-01
6.235043498e-01,3.27384e-02,9.99999e-01,9.99999e-01,9.99784e-01,3.27455e-02,9.99999e-01
6.266218716e-01,3.49928e-02,9.99999e-01,9.99999e-01,9.98843e-01,3.50333e-02,9.99999e-01
6.297549810e-01,3.74151e-02,9.99999e-01,9.99999e-01,9.99575e-01,3.74309e-02,9.99999e-01
6.329037559e-01,3.99069e-02,9.99999e-01,9.99999e-01,9.99159e-01,3.99404e-02,9.99999e-01
6.360682746e-01,4.25333e-02,9.99999e-01,9.99999e-01,9.99287e-01,4.25636e-02,9.99999e-01
6.392486160e-01,4.52602e-02,9.99999e-01,9.99999e-01,9.99074e-01,4.53021e-02,9.99999e-01
6.424448591e-01,4.81040e-02,9.99999e-01,9.99999e-01,9.98890e-01,4.81574e-02,9.99999e-01
6.456570834e-01,5.08419e-02,9.99999e-01,9.99999e-01,9.94345e-01,5.11310e-02,9.99999e-01
6.488853688e-01,5.39556e-02,9.99999e-01,9.99999e-01,9.95052e-01,5.42239e-02,9.99999e-01
6.521297956e-01,5.71905e-02,9.99999e-01,9.99999e-01,9.95703e-01,5.74372e-02,9.99999e-01
6.553904446e-01,6.05141e-02,9.99999e-01,9.99999e-01,9.95757e-01,6.07718e-02,9.99999e-01
6.586673968e-01,6.39928e-02,9.99999e-01,9.99999e-01,9.96331e-01,6.42284e-02,9.99999e-01
6.619607338e-01,6.76637e-02,9.99999e-01,9.99999e-01,9.97878e-01,6.78075e-02,9.99999e-01
6.652705375e-01,7.14213e-02,9.99999e-01,9.99999e-01,9.98767e-01,7.15093e-02,9.99999e-01
6.685968902e-01,7.52911e-02,9.99999e-01,9.99999e-01,9.99427e-01,7.53342e-02,9.99999e-01
6.719398746e-01,7.92609e-02,9.99999e-01,9.99999e-01,9.99734e-01,7.92819e-02,9.99999e-01
6.752995740e-01,8.33405e-02,9.99999e-01,9.99999e-01,9.99856e-01,8.33524e-02,9.99999e-01
6.786760719e-01,8.75273e-02,9.99999e-01,9.99999e-01,9.99794e-01,8.75453e-02,9.99999e-01
6.820694522e-01,9.18276e-02,9.99999e-01,9.99999e-01,9.99647e-01,9.18600e-02,9.99999e-01
6.854797995e-01,9.62520e-02,9.99999e-01,9.99999e-01,9.99545e-01,9.62957e-02,9.99999e-01
6.889071985e-01,1.00743e-01,9.99999e-01,9.99999e-01,9.98917e-01,1.00852e-01,9.99999e-01
6.923517345e-01,1.03654e-01,9.99999e-01,9.99999e-01,9.82252e-01,1.05527e-01,9.99999e-01
6.958134932e-01,1.09278e-01,9.99999e-01,9.99999e-01,9.90552e-01,1.10320e-01,9.99999e-01
6.992925606e-01,1.14215e-01,9.99999e-01,9.99999e-01,9.91191e-01,1.15230e-01,9.99999e-01
7.027890234e-01,1.18937e-01,9.99999e-01,9.99999e-01,9.89047e-01,1.20254e-01,9.99999e-01
7.063029686e-01,1.24238e-01,9.99999e-01,9.99999e-01,9.90791e-01,1.25392e-01,9.99999e-01
7.098344834e-01,1.29487e-01,9.99999e-01,9.99999e-01,9.91162e-01,1.30642e-01,9.99999e-01
7.133836558e-01,1.34422e-01,9.99999e-01,9.99999e-01,9.88393e-01,1.36001e-01,9.99999e-01
7.169505741e-01,1.28748e-01,9.99999e-01,9.99999e-01,9.10090e-01,1.41467e-01,9.99998e-01
7.205353270e-01,1.40289e-01,9.99999e-01,9.99999e-01,9.54093e-01,1.47039e-01,9.99998e-01
7.241380036e-01,1.43988e-01,9.99999e-01,9.99999e-01,9.42860e-01,1.52714e-01,9.99998e-01
7.277586936e-01,1.50287e-01,9.99999e-01,9.99999e-01,9.48250e-01,1.58489e-01,9.99998e-01
7.313974871e-01,1.55266e-01,9.99999e-01,9.99999e-01,9.44659e-01,1.64362e-01,9.99998e-01
7.350544745e-01,1.65122e-01,9.99999e-01,9.99999e-01,9.69426e-01,1.70330e-01,9.99999e-01
7.387297469e-01,1.72401e-01,9.99999e-01,9.99999e-01,9.77385e-01,1.76390e-01,9.99999e-01
7.424233956e-01,1.80504e-01,9.99999e-01,9.99999e-01,9.88844e-01,1.82540e-01,9.99999e-01
7.461355126e-01,1.87500e-01,9.99999e-01,9.99999e-01,9.93237e-01,1.88777e-01,9.99999e-01
7.498661902e-01,1.94480e-01,9.99999e-01,9.99999e-01,9.96837e-01,1.95097e-01,9.99999e-01
7.536155211e-01,2.01186e-01,9.99999e-01,9.99999e-01,9.98452e-01,2.01497e-01,9.99999e-01
7.573835987e-01,2.07810e-01,9.99999e-01,9.99999e-01,9.99202e-01,2.07975e-01,9.99999e-01
7.611705167e-01,2.14421e-01,9.99999e-01,9.99999e-01,9.99504e-01,2.14527e-01,9.99999e-01
7.649763693e-01,2.21082e-01,9.99999e-01,9.99999e-01,9.99689e-01,2.21150e-01,9.99999e-01
7.688012511e-01,2.27792e-01,9.99999e-01,9.99999e-01,9.99784e-01,2.27841e-01,9.99999e-01
7.726452574e-01,2.34554e-01,9.99999e-01,9.99999e-01,9.99822e-01,2.34596e-01,9.99999e-01
7.765084837e-01,2.41351e-01,9.99999e-01,9.99999e-01,9.99749e-01,2.41411e-01,9.99999e-01
7.803910261e-01,2.33774e-01,9.99999e-01,9.42516e-01,9.98921e-01,2.48285e-01,9.99999e-01
7.842929812e-01,1.90712e-01,9.99999e-01,7.49845e-01,9.96240e-01,2.55212e-01,9.99999e-01
7.882144461e-01,1.91985e-01,9.99999e-01,7.37585e-01,9.92201e-01,2.62190e-01,9.99999e-01
7.921555184e-01,2.23482e-01,9.99999e-01,8.33556e-01,9.95696e-01,2.69215e-01,9.99999e-01
7.961162960e-01,2.42412e-01,9.99999e-01,8.83917e-01,9.92486e-01,2.76285e-01,9.99999e-01
8.000968774e-01,2.62773e-01,9.99999e-01,9.35347e-01,9.91275e-01,2.83395e-01,9.99999e-01
8.040973618e-01,2.78170e-01,9.99999e-01,9.65805e-01,9.91285e-01,2.90541e-01,9.99999e-01
8.081178486e-01,2.87352e-01,9.99999e-01,9.84216e-01,9.80592e-01,2.97722e-01,9.99999e-01
8.121584379e-01,2.79635e-01,9.99999e-01,9.95058e-01,9.21503e-01,3.04933e-01,9.99998e-01
8.162192301e-01,2.82743e-01,9.99999e-01,9.98906e-01,9.06687e-01,3.12171e-01,9.99998e-01
8.203003262e-01,3.04563e-01,9.99999e-01,9.99981e-01,9.53462e-01,3.19433e-01,9.99998e-01
8.244018279e-01,3.05224e-01,9.99999e-01,9.99999e-01,9.34221e-01,3.26715e-01,9.99998e-01
8.285238370e-01,3.15142e-01,9.99999e-01,9.99999e-01,9.43496e-01,3.34015e-01,9.99998e-01
8.326664562e-01,3.21770e-01,9.99999e-01,9.99999e-01,9.42700e-01,3.41329e-01,9.99998e-01
8.368297885e-01,3.34219e-01,9.99999e-01,9.99999e-01,9.58598e-01,3.48653e-01,9.99999e-01
8.410139374e-01,3.47149e-01,9.99999e-01,9.99999e-01,9.75175e-01,3.55986e-01,9.99999e-01
8.452190071e-01,3.58867e-01,9.99999e-01,9.99999e-01,9.87736e-01,3.63323e-01,9.99999e-01
8.494451021e-01,3.68028e-01,9.99999e-01,9.99999e-01,9.92893e-01,3.70662e-01,9.99999e-01
8.536923276e-01,3.76404e-01,9.99999e-01,9.99999e-01,9.95777e-01,3.78000e-01,9.99999e-01
8.579607893e-01,3.84335e-01,9.99999e-01,9.99999e-01,9.97406e-01,3.85334e-01,9.99999e-01
8.622505932e-01,3.92013e-01,9.99999e-01,9.99999e-01,9.98347e-01,3.92661e-01,9.99999e-01
8.665618462e-01,3.58469e-01,9.99999e-01,8.97083e-01,9.98981e-01,3.99979e-01,9.99999e-01
8.708946554e-01,1.99181e-01,9.99999e-01,4.89580e-01,9.98836e-01,4.07285e-01,9.99999e-01
8.752491287e-01,2.29976e-01,9.99999e-01,5.55548e-01,9.98442e-01,4.14575e-01,9.99999e-01
8.796253743e-01,3.03262e-01,9.99999e-01,7.20353e-01,9.97849e-01,4.21849e-01,9.99999e-01
8.840235012e-01,3.60613e-01,9.99999e-01,8.42402e-01,9.97542e-01,4.29102e-01,9.99999e-01
8.884436187e-01,4.04104e-01,9.99999e-01,9.34185e-01,9.91224e-01,4.36334e-01,9.99999e-01
8.928858368e-01,3.93039e-01,9.99999e-01,9.72847e-01,9.10462e-01,4.43540e-01,9.99998e-01
8.973502660e-01,3.78848e-01,9.99999e-01,9.93293e-01,8.45997e-01,4.50720e-01,9.99997e-01
9.018370173e-01,4.19861e-01,9.99999e-01,9.99257e-01,9.17628e-01,4.57871e-01,9.99997e-01
9.063462024e-01,4.24210e-01,9.99999e-01,9.81871e-01,9.28131e-01,4.64991e-01,9.99996e-01
9.108779334e-01,4.02595e-01,9.99999e-01,9.57606e-01,8.89685e-01,4.72077e-01,9.99996e-01
9.154323231e-01,4.15254e-01,9.99999e-01,9.89786e-01,8.75268e-01,4.79129e-01,9.99996e-01
9.200094847e-01,3.85645e-01,9.99999e-01,8.72247e-01,9.00804e-01,4.86143e-01,9.99995e-01
9.246095321e-01,3.43053e-01,9.99999e-01,8.09619e-01,8.53886e-01,4.93119e-01,9.99992e-01
9.292325798e-01,1.54278e-01,9.99999e-01,8.50012e-01,3.53445e-01,5.00053e-01,9.99984e-01
9.338787427e-01,1.14961e-01,9.99999e-01,8.52626e-01,2.59137e-01,5.06946e-01,9.99979e-01
9.385481364e-01,2.67127e-01,9.99999e-01,8.89047e-01,5.78058e-01,5.13794e-01,9.99978e-01
9.432408771e-01,2.32787e-01,9.99999e-01,9.30133e-01,4.77617e-01,5.20597e-01,9.99976e-01
9.479570815e-01,1.84950e-01,9.99999e-01,9.63616e-01,3.62800e-01,5.27353e-01,9.99979e-01
9.526968669e-01,2.41073e-01,9.99999e-01,9.82266e-01,4.58392e-01,5.34061e-01,9.99984e-01
9.574603512e-01,2.57675e-01,9.99999e-01,9.92371e-01,4.79776e-01,5.40719e-01,9.99988e-01
9.622476530e-01,2.98327e-01,9.99999e-01,9.97611e-01,5.46229e-01,5.47326e-01,9.99991e-01
9.670588912e-01,3.90201e-01,9.99999e-01,9.99282e-01,7.04947e-01,5.53881e-01,9.99994e-01
9.718941857e-01,4.49352e-01,9.99999e-01,9.99947e-01,8.01904e-01,5.60382e-01,9.99996e-01
9.767536566e-01,4.71881e-01,9.99999e-01,9.99999e-01,8.32493e-01,5.66830e-01,9.99997e-01
9.816374249e-01,5.00098e-01,9.99999e-01,9.99999e-01,8.72435e-01,5.73221e-01,9.99998e-01
9.865456120e-01,5.32120e-01,9.99999e-01,9.99999e-01,9.18150e-01,5.79557e-01,9.99998e-01
9.914783401e-01,5.55709e-01,9.99999e-01,9.99999e-01,9.48575e-01,5.85835e-01,9.99999e-01
9.964357318e-01,5.75271e-01,9.99999e-01,9.99999e-01,9.71650e-01,5.92056e-01,9.99999e-01
1.001417910e+00,5.87992e-01,9.99999e-01,9.99999e-01,9.82905e-01,5.98217e-01,9.99999e-01
1.006425000e+00,5.98421e-01,9.99999e-01,9.99999e-01,9.90239e-01,6.04319e-01,9.99999e-01
1.011457125e+00,6.06648e-01,9.99999e-01,9.99999e-01,9.93915e-01,6.10361e-01,9.99999e-01
1.016514411e+00,6.13799e-01,9.99999e-01,9.99999e-01,9.95872e-01,6.16343e-01,9.99999e-01
1.021596983e+00,6.20162e-01,9.99999e-01,9.99910e-01,9.96712e-01,6.22263e-01,9.99999e-01
1.026704968e+00,6.22051e-01,9.99999e-01,9.92875e-01,9.97436e-01,6.28121e-01,9.99999e-01
1.031838492e+00,5.91341e-01,9.99999e-01,9.34511e-01,9.98132e-01,6.33917e-01,9.99999e-01
1.036997685e+00,5.37623e-02,9.99999e-01,8.41206e-02,9.98892e-01,6.39650e-01,9.99999e-01
1.042182673e+00,1.37512e-02,9.99999e-01,2.13321e-02,9.98684e-01,6.45321e-01,9.99999e-01
1.047393587e+00,2.56269e-02,9.99999e-01,3.94288e-02,9.98252e-01,6.50928e-01,9.99999e-01
1.052630555e+00,5.16439e-05,9.99999e-01,7.87952e-05,9.97605e-01,6.56472e-01,9.99999e-01
1.057893707e+00,1.73912e-04,9.99999e-01,2.63330e-04,9.96011e-01,6.61952e-01,9.99999e-01
1.063183176e+00,1.43295e-03,9.99999e-01,2.15609e-03,9.93437e-01,6.67369e-01,9.99999e-01
1.068499092e+00,7.74498e-03,9.99999e-01,1.16085e-02,9.89020e-01,6.72721e-01,9.99999e-01
1.073841587e+00,3.90184e-02,9.99999e-01,5.81291e-02,9.87189e-01,6.78010e-01,9.99999e-01
1.079210795e+00,1.11521e-01,9.99999e-01,1.65529e-01,9.83554e-01,6.83234e-01,9.99999e-01
1.084606849e+00,2.45821e-01,9.99999e-01,3.65387e-01,9.75256e-01,6.88394e-01,9.99998e-01
1.090029883e+00,3.96670e-01,9.99999e-01,5.91738e-01,9.64862e-01,6.93490e-01,9.99998e-01
1.095480033e+00,4.89796e-01,9.99999e-01,7.71544e-01,9.06981e-01,6.98522e-01,9.99997e-01
1.100957433e+00,4.86058e-01,9.99999e-01,8.82273e-01,7.81193e-01,7.03490e-01,9.99995e-01
1.106462220e+00,3.64489e-01,9.99999e-01,9.49429e-01,5.40144e-01,7.08394e-01,9.99990e-01
1.111994531e+00,1.94427e-01,9.99999e-01,9.80940e-01,2.77245e-01,7.13234e-01,9.99980e-01
1.117554504e+00,9.28158e-02,9.99999e-01,9.95292e-01,1.29698e-01,7.18011e-01,9.99973e-01
1.123142276e+00,1.69954e-01,9.99999e-01,9.99688e-01,2.35183e-01,7.22725e-01,9.99968e-01
1.128757988e+00,2.77499e-01,9.99999e-01,9.99999e-01,3.81520e-01,7.27375e-01,9.99965e-01
1.134401778e+00,1.30301e-01,9.99999e-01,9.99999e-01,1.78023e-01,7.31963e-01,9.99961e-01
1.140073787e+00,4.08654e-01,9.99999e-01,9.99999e-01,5.54885e-01,7.36488e-01,9.99967e-01
1.145774156e+00,2.24746e-01,9.99999e-01,9.99999e-01,3.03329e-01,7.40951e-01,9.99973e-01
1.151503026e+00,1.99985e-01,9.99999e-01,9.99999e-01,2.68315e-01,7.45352e-01,9.99977e-01
1.157260541e+00,2.39172e-01,9.99999e-01,9.99999e-01,3.19033e-01,7.49692e-01,9.99982e-01
1.163046844e+00,3.21779e-01,9.99999e-01,9.99999e-01,4.26783e-01,7.53970e-01,9.99988e-01
1.168862078e+00,4.15832e-01,9.99999e-01,9.99999e-01,5.48458e-01,7.58188e-01,9.99994e-01
1.174706389e+00,5.26068e-01,9.99999e-01,9.99999e-01,6.90067e-01,7.62345e-01,9.99996e-01
1.180579921e+00,6.11012e-01,9.99999e-01,9.99999e-01,7.97207e-01,7.66442e-01,9.99997e-01
1.186482820e+00,6.77682e-01,9.99999e-01,9.99990e-01,8.79566e-01,7.70479e-01,9.99998e-01
1.192415234e+00,7.01207e-01,9.99999e-01,9.75313e-01,9.27831e-01,7.74458e-01,9.99998e-01
1.198377311e+00,4.00107e-01,9.99999e-01,5.41784e-01,9.38943e-01,7.78378e-01,9.99998e-01
1.204369197e+00,9.17888e-20,9.99999e-01,1.21456e-19,9.42149e-01,7.82239e-01,9.99998e-01
1.210391043e+00,1.92000e-77,9.99999e-01,2.52126e-77,9.44551e-01,7.86043e-01,9.99998e-01
1.216442998e+00,3.96153e-67,9.99999e-01,5.16884e-67,9.52535e-01,7.89790e-01,9.99999e-01
1.222525213e+00,3.96077e-66,9.99999e-01,5.08970e-66,9.62858e-01,7.93480e-01,9.99999e-01
1.228637839e+00,3.85486e-51,9.99999e-01,4.92282e-51,9.74077e-01,7.97114e-01,9.99999e-01
