#,Wave/freq,Total,O2,CO2,H2O,Rayleigh,CIA
4.000000000e-01,1.06566e-06,9.99999e-01,9.99999e-01,9.99972e-01,1.06569e-06,9.99999e-01
4.020000000e-01,1.39867e-06,9.99999e-01,9.99999e-01,9.99982e-01,1.39869e-06,9.99999e-01
4.040100000e-01,1.82539e-06,9.99999e-01,9.99999e-01,9.99992e-01,1.82540e-06,9.99999e-01
4.060300500e-01,2.36979e-06,9.99999e-01,9.99999e-01,9.99997e-01,2.36980e-06,9.99999e-01
4.080602003e-01,3.06072e-06,9.99999e-01,9.99999e-01,9.99998e-01,3.06073e-06,9.99999e-01
4.101005013e-01,3.93317e-06,9.99999e-01,9.99999e-01,9.99999e-01,3.93317e-06,9.99999e-01
4.121510038e-01,5.02933e-06,9.99999e-01,9.99999e-01,9.99998e-01,5.02933e-06,9.99999e-01
4.142117588e-01,6.39979e-06,9.99999e-01,9.99999e-01,9.99992e-01,6.39983e-06,9.99999e-01
4.162828176e-01,8.10485e-06,9.99999e-01,9.99999e-01,9.99966e-01,8.10512e-06,9.99999e-01
4.183642317e-01,1.02168e-05,9.99999e-01,9.99999e-01,9.99979e-01,1.02170e-05,9.99999e-01
4.204560528e-01,1.28203e-05,9.99999e-01,9.99999e-01,9.99987e-01,1.28204e-05,9.99999e-01
4.225583331e-01,1.60152e-05,9.99999e-01,9.99999e-01,9.99994e-01,1.60152e-05,9.99999e-01
4.246711247e-01,1.99184e-05,9.99999e-01,9.99999e-01,9.99995e-01,1.99185e-05,9.99999e-01
4.267944804e-01,2.46663e-05,9.99999e-01,9.99999e-01,9.99994e-01,2.46665e-05,9.99999e-01
4.289284528e-01,3.04174e-05,9.99999e-01,9.99999e-01,9.99995e-01,3.04176e-05,9.99999e-01
4.310730950e-01,3.73545e-05,9.99999e-01,9.99999e-01,9.99997e-01,3.73546e-05,9.99999e-01
4.332284605e-01,4.56879e-05,9.99999e-01,9.99999e-01,9.99999e-01,4.56879e-05,9.99999e-01
4.353946028e-01,5.56584e-05,9.99999e-01,9.99999e-01,9.99999e-01,5.56584e-05,9.99999e-01
4.375715758e-01,6.75407e-05,9.99999e-01,9.99999e-01,9.99996e-01,6.75409e-05,9.99999e-01
4.397594337e-01,8.16452e-05,9.99999e-01,9.99999e-01,9.99970e-01,8.16476e-05,9.99999e-01
4.419582309e-01,9.83170e-05,9.99999e-01,9.99999e-01,9.99852e-01,9.83315e-05,9.99999e-01
4.441680220e-01,1.17977e-04,9.99999e-01,9.99999e-01,9.99883e-01,1.17990e-04,9.99999e-01
4.463888621e-01,1.41054e-04,9.99999e-01,9.99999e-01,9.99878e-01,1.41071e-04,9.99999e-01
4.486208064e-01,1.68060e-04,9.99999e-01,9.99999e-01,9.99924e-01,1.68072e-04,9.99999e-01
4.508639105e-01,1.99543e-04,9.99999e-01,9.99999e-01,9.99964e-01,1.99550e-04,9.99999e-01
4.531182300e-01,2.36118e-04,9.99999e-01,9.99999e-01,9.99985e-01,2.36121e-04,9.99999e-01
4.553838212e-01,2.78465e-04,9.99999e-01,9.99999e-01,9.99990e-01,2.78467e-04,9.99999e-01
4.576607403e-01,3.27338e-04,9.99999e-01,9.99999e-01,9.99995e-01,3.27340e-04,9.99999e-01
4.599490440e-01,3.83561e-04,9.99999e-01,9.99999e-01,9.99996e-01,3.83563e-04,9.99999e-01
4.622487892e-01,4.48037e-04,9.99999e-01,9.99999e-01,9.99998e-01,4.48037e-04,9.99999e-01
4.645600332e-01,5.21745e-04,9.99999e-01,9.99999e-01,9.99997e-01,5.21746e-04,9.99999e-01
4.668828333e-01,6.05734e-04,9.99999e-01,9.99999e-01,9.99964e-01,6.05755e-04,9.99999e-01
4.692172475e-01,7.01168e-04,9.99999e-01,9.99999e-01,9.99923e-01,7.01221e-04,9.99999e-01
4.715633337e-01,8.09348e-04,9.99999e-01,9.99999e-01,9.99950e-01,8.09388e-04,9.99999e-01
4.739211504e-01,9.31554e-04,9.99999e-01,9.99999e-01,9.99952e-01,9.31598e-04,9.99999e-01
4.762907561e-01,1.06926e-03,9.99999e-01,9.99999e-01,9.99974e-01,1.06929e-03,9.99999e-01
4.786722099e-01,1.22397e-03,9.99999e-01,9.99999e-01,9.99989e-01,1.22399e-03,9.99999e-01
4.810655710e-01,1.39733e-03,9.99999e-01,9.99999e-01,9.99996e-01,1.39733e-03,9.99999e-01
4.834708988e-01,1.59102e-03,9.99999e-01,9.99999e-01,9.99970e-01,1.59106e-03,9.99999e-01
4.858882533e-01,1.80692e-03,9.99999e-01,9.99999e-01,9.99945e-01,1.80701e-03,9.99999e-01
4.883176946e-01,2.04703e-03,9.99999e-01,9.99999e-01,9.99954e-01,2.04712e-03,9.99999e-01
4.907592831e-01,2.31333e-03,9.99999e-01,9.99999e-01,9.99958e-01,2.31342e-03,9.99999e-01
4.932130795e-01,2.60798e-03,9.99999e-01,9.99999e-01,9.99970e-01,2.60806e-03,9.99999e-01
4.956791449e-01,2.93322e-03,9.99999e-01,9.99999e-01,9.99984e-01,2.93326e-03,9.99999e-01
4.981575406e-01,3.29112e-03,9.99999e-01,9.99999e-01,9.99923e-01,3.29137e-03,9.99999e-01
5.006483283e-01,3.68409e-03,9.99999e-01,9.99999e-01,9.99803e-01,3.68481e-03,9.99999e-01
5.031515699e-01,4.11197e-03,9.99999e-01,9.99999e-01,9.99000e-01,4.11609e-03,9.99999e-01
5.056673278e-01,4.58537e-03,9.99999e-01,9.99999e-01,9.99471e-01,4.58780e-03,9.99999e-01
5.081956644e-01,5.09922e-03,9.99999e-01,9.99999e-01,9.99332e-01,5.10262e-03,9.99999e-01
5.107366428e-01,5.66076e-03,9.99999e-01,9.99999e-01,9.99548e-01,5.66331e-03,9.99999e-01
5.132903260e-01,6.27106e-03,9.99999e-01,9.99999e-01,9.99741e-01,6.27267e-03,9.99999e-01
5.158567776e-01,6.93284e-03,9.99999e-01,9.99999e-01,9.99890e-01,6.93359e-03,9.99999e-01
5.184360615e-01,7.64867e-03,9.99999e-01,9.99999e-01,9.99955e-01,7.64900e-03,9.99999e-01
5.210282418e-01,8.42174e-03,9.99999e-01,9.99999e-01,9.99983e-01,8.42187e-03,9.99999e-01
5.236333830e-01,9.25462e-03,9.99999e-01,9.99999e-01,9.99934e-01,9.25523e-03,9.99999e-01
5.262515499e-01,1.01517e-02,9.99999e-01,9.99999e-01,9.99958e-01,1.01521e-02,9.99999e-01
5.288828077e-01,1.11151e-02,9.99999e-01,9.99999e-01,9.99962e-01,1.11156e-02,9.99999e-01
5.315272217e-01,1.21483e-02,9.99999e-01,9.99999e-01,9.99966e-01,1.21487e-02,9.99999e-01
5.341848578e-01,1.32542e-02,9.99999e-01,9.99999e-01,9.99978e-01,1.32545e-02,9.99999e-01
5.368557821e-01,1.44351e-02,9.99999e-01,9.99999e-01,9.99923e-01,1.44362e-02,9.99999e-01
5.395400610e-01,1.56924e-02,9.99999e-01,9.99999e-01,9.99727e-01,1.56967e-02,9.99999e-01
5.422377613e-01,1.70330e-02,9.99999e-01,9.99999e-01,9.99644e-01,1.70390e-02,9.99999e-01
5.449489501e-01,1.84602e-02,9.99999e-01,9.99999e-01,9.99671e-01,1.84662e-02,9.99999e-01
5.476736949e-01,1.99754e-02,9.99999e-01,9.99999e-01,9.99707e-01,1.99812e-02,9.99999e-01
5.504120634e-01,2.15822e-02,9.99999e-01,9.99999e-01,9.99787e-01,2.15868e-02,9.99999e-01
5.531641237e-01,2.32834e-02,9.99999e-01,9.99999e-01,9.99892e-01,2.32859e-02,9.99999e-01
5.559299443e-01,2.50798e-02,9.99999e-01,9.99999e-01,9.99947e-01,2.50811e-02,9.99999e-01
5.587095940e-01,2.69742e-02,9.99999e-01,9.99999e-01,9.99967e-01,2.69751e-02,9.99999e-01
5.615031420e-01,2.89694e-02,9.99999e-01,9.99999e-01,9.99963e-01,2.89705e-02,9.99999e-01
5.643106577e-01,3.10684e-02,9.99999e-01,9.99999e-01,9.99959e-01,3.10696e-02,9.99999e-01
5.671322110e-01,3.32586e-02,9.99999e-01,9.99999e-01,9.99510e-01,3.32748e-02,9.99999e-01
5.699678720e-01,3.55695e-02,9.99999e-01,9.99999e-01,9.99470e-01,3.55883e-02,9.99999e-01
5.728177114e-01,3.79914e-02,9.99999e-01,9.99999e-01,9.99452e-01,3.80122e-02,9.99999e-01
5.756818000e-01,4.05279e-02,9.99999e-01,9.99999e-01,9.99496e-01,4.05483e-02,9.99999e-01
5.785602090e-01,4.31796e-02,9.99999e-01,9.99999e-01,9.99560e-01,4.31985e-02,9.99999e-01
5.814530100e-01,4.59442e-02,9.99999e-01,9.99999e-01,9.99559e-01,4.59644e-02,9.99999e-01
5.843602750e-01,4.88220e-02,9.99999e-01,9.99999e-01,9.99477e-01,4.88475e-02,9.99999e-01
5.872820764e-01,5.16158e-02,9.99999e-01,9.99999e-01,9.95500e-01,5.18491e-02,9.99999e-01
5.902184868e-01,5.46690e-02,9.99999e-01,9.99999e-01,9.94518e-01,5.49703e-02,9.99999e-01
5.931695792e-01,5.79871e-02,9.99999e-01,9.99999e-01,9.96133e-01,5.82121e-02,9.99999e-01
5.961354271e-01,6.13141e-02,9.99999e-01,9.99999e-01,9.95755e-01,6.15755e-02,9.99999e-01
5.991161043e-01,6.48593e-02,9.99999e-01,9.99999e-01,9.96901e-01,6.50609e-02,9.99999e-01
6.021116848e-01,6.85480e-02,9.99999e-01,9.99999e-01,9.98239e-01,6.86688e-02,9.99999e-01
6.051222432e-01,7.23351e-02,9.99999e-01,9.99999e-01,9.99108e-01,7.23997e-02,9.99999e-01
6.081478544e-01,7.62242e-02,9.99999e-01,9.99999e-01,9.99615e-01,7.62535e-02,9.99999e-01
6.111885937e-01,8.02171e-02,9.99999e-01,9.99999e-01,9.99836e-01,8.02302e-02,9.99999e-01
6.142445367e-01,8.43234e-02,9.99999e-01,9.99999e-01,9.99926e-01,8.43295e-02,9.99999e-01
6.173157594e-01,8.85476e-02,9.99999e-01,9.99999e-01,9.99959e-01,8.85512e-02,9.99999e-01
6.204023382e-01,9.28913e-02,9.99999e-01,9.99999e-01,9.99965e-01,9.28945e-02,9.99999e-01
6.235043498e-01,9.73443e-02,9.99999e-01,9.99999e-01,9.99852e-01,9.73587e-02,9.99999e-01
6.266218716e-01,1.01862e-01,9.99999e-01,9.99999e-01,9.99211e-01,1.01943e-01,9.99999e-01
6.297549810e-01,1.06615e-01,9.99999e-01,9.99999e-01,9.99710e-01,1.06646e-01,9.99999e-01
6.329037559e-01,1.11403e-01,9.99999e-01,9.99999e-01,9.99427e-01,1.11467e-01,9.99999e-01
6.360682746e-01,1.16347e-01,9.99999e-01,9.99999e-01,9.99513e-01,1.16403e-01,9.99999e-01
6.392486160e-01,1.21378e-01,9.99999e-01,9.99999e-01,9.99368e-01,1.21455e-01,9.99999e-01
6.424448591e-01,1.26513e-01,9.99999e-01,9.99999e-01,9.99159e-01,1.26619e-01,9.99999e-01
6.456570834e-01,1.31381e-01,9.99999e-01,9.99999e-01,9.96102e-01,1.31895e-01,9.99999e-01
6.488853688e-01,1.36885e-01,9.99999e-01,9.99999e-01,9.97126e-01,1.37280e-01,9.99999e-01
6.521297956e-01,1.42353e-01,9.99999e-01,9.99999e-01,9.97070e-01,1.42771e-01,9.99999e-01
6.553904446e-01,1.47938e-01,9.99999e-01,9.99999e-01,9.97105e-01,1.48367e-01,9.99999e-01
6.586673968e-01,1.53681e-01,9.99999e-01,9.99999e-01,9.97502e-01,1.54066e-01,9.99999e-01
6.619607338e-01,1.59633e-01,9.99999e-01,9.99999e-01,9.98555e-01,1.59864e-01,9.99999e-01
6.652705375e-01,1.65621e-01,9.99999e-01,9.99999e-01,9.99162e-01,1.65760e-01,9.99999e-01
6.685968902e-01,1.71683e-01,9.99999e-01,9.99999e-01,9.99610e-01,1.71750e-01,9.99999e-01
6.719398746e-01,1.77800e-01,9.99999e-01,9.99999e-01,9.99819e-01,1.77832e-01,9.99999e-01
6.752995740e-01,1.83984e-01,9.99999e-01,9.99999e-01,9.99902e-01,1.84002e-01,9.99999e-01
6.786760719e-01,1.90232e-01,9.99999e-01,9.99999e-01,9.99859e-01,1.90259e-01,9.99999e-01
6.820694522e-01,1.96551e-01,9.99999e-01,9.99999e-01,9.99759e-01,1.96598e-01,9.99999e-01
6.854797995e-01,2.02954e-01,9.99999e-01,9.99999e-01,9.99689e-01,2.03017e-01,9.99999e-01
6.889071985e-01,2.09357e-01,9.99999e-01,9.99999e-01,9.99256e-01,2.09513e-01,9.99999e-01
6.923517345e-01,2.13454e-01,9.99999e-01,9.99999e-01,9.87835e-01,2.16082e-01,9.99999e-01
6.958134932e-01,2.21292e-01,9.99999e-01,9.99999e-01,9.93580e-01,2.22721e-01,9.99999e-01
6.992925606e-01,2.28045e-01,9.99999e-01,9.99999e-01,9.93973e-01,2.29427e-01,9.99999e-01
7.027890234e-01,2.34432e-01,9.99999e-01,9.99999e-01,9.92526e-01,2.36197e-01,9.99999e-01
7.063029686e-01,2.41499e-01,9.99999e-01,9.99999e-01,9.93717e-01,2.43026e-01,9.99999e-01
7.098344834e-01,2.48406e-01,9.99999e-01,9.99999e-01,9.93971e-01,2.49912e-01,9.99999e-01
7.133836558e-01,2.54806e-01,9.99999e-01,9.99999e-01,9.92033e-01,2.56852e-01,9.99999e-01
7.169505741e-01,2.47333e-01,9.99999e-01,9.99999e-01,9.37430e-01,2.63842e-01,9.99998e-01
7.205353270e-01,2.62357e-01,9.99999e-01,9.99999e-01,9.68542e-01,2.70878e-01,9.99998e-01
7.241380036e-01,2.66996e-01,9.99999e-01,9.99999e-01,9.60567e-01,2.77957e-01,9.99998e-01
7.277586936e-01,2.74907e-01,9.99999e-01,9.99999e-01,9.64329e-01,2.85076e-01,9.99998e-01
7.313974871e-01,2.81114e-01,9.99999e-01,9.99999e-01,9.61957e-01,2.92231e-01,9.99998e-01
7.350544745e-01,2.93151e-01,9.99999e-01,9.99999e-01,9.79066e-01,2.99419e-01,9.99999e-01
7.387297469e-01,3.01899e-01,9.99999e-01,9.99999e-01,9.84548e-01,3.06637e-01,9.99999e-01
7.424233956e-01,3.11496e-01,9.99999e-01,9.99999e-01,9.92401e-01,3.13881e-01,9.99999e-01
7.461355126e-01,3.19669e-01,9.99999e-01,9.99999e-01,9.95394e-01,3.21148e-01,9.99999e-01
7.498661902e-01,3.27728e-01,9.99999e-01,9.99999e-01,9.97849e-01,3.28434e-01,9.99999e-01
7.536155211e-01,3.35384e-01,9.99999e-01,9.99999e-01,9.98946e-01,3.35737e-01,9.99999e-01
7.573835987e-01,3.42868e-01,9.99999e-01,9.99999e-01,9.99457e-01,3.43054e-01,9.99999e-01
7.611705167e-01,3.50263e-01,9.99999e-01,9.99999e-01,9.99662e-01,3.50381e-01,9.99999e-01
7.649763693e-01,3.57639e-01,9.99999e-01,9.99999e-01,9.99788e-01,3.57715e-01,9.99999e-01
7.688012511e-01,3.64999e-01,9.99999e-01,9.99999e-01,9.99852e-01,3.65053e-01,9.99999e-01
7.726452574e-01,3.72347e-01,9.99999e-01,9.99999e-01,9.99878e-01,3.72392e-01,9.99999e-01
7.765084837e-01,3.79664e-01,9.99999e-01,9.99999e-01,9.99828e-01,3.79729e-01,9.99999e-01
7.803910261e-01,3.70465e-01,9.99999e-01,9.57798e-01,9.99262e-01,3.87062e-01,9.99999e-01
7.842929812e-01,3.22367e-01,9.99999e-01,8.19363e-01,9.97427e-01,3.94387e-01,9.99999e-01
7.882144461e-01,3.23305e-01,9.99999e-01,8.08925e-01,9.94679e-01,4.01702e-01,9.99999e-01
7.921555184e-01,3.60002e-01,9.99999e-01,8.82698e-01,9.97070e-01,4.09004e-01,9.99999e-01
7.961162960e-01,3.80789e-01,9.99999e-01,9.19381e-01,9.94861e-01,4.16291e-01,9.99999e-01
8.000968774e-01,4.02310e-01,9.99999e-01,9.55496e-01,9.94045e-01,4.23560e-01,9.99999e-01
8.040973618e-01,4.18245e-01,9.99999e-01,9.76632e-01,9.94049e-01,4.30809e-01,9.99999e-01
8.081178486e-01,4.27558e-01,9.99999e-01,9.89232e-01,9.86682e-01,4.38034e-01,9.99999e-01
8.121584379e-01,4.19602e-01,9.99999e-01,9.96645e-01,9.45557e-01,4.45235e-01,9.99998e-01
8.162192301e-01,4.22842e-01,9.99999e-01,9.99258e-01,9.35323e-01,4.52408e-01,9.99998e-01
8.203003262e-01,4.44675e-01,9.99999e-01,9.99987e-01,9.67637e-01,4.59552e-01,9.99998e-01
8.244018279e-01,4.45389e-01,9.99999e-01,9.99999e-01,9.54410e-01,4.66664e-01,9.99998e-01
8.285238370e-01,4.55283e-01,9.99999e-01,9.99999e-01,9.61035e-01,4.73742e-01,9.99998e-01
8.326664562e-01,4.61806e-01,9.99999e-01,9.99999e-01,9.60525e-01,4.80785e-01,9.99998e-01
8.368297885e-01,4.73943e-01,9.99999e-01,9.99999e-01,9.71611e-01,4.87791e-01,9.99999e-01
8.410139374e-01,4.86363e-01,9.99999e-01,9.99999e-01,9.83034e-01,4.94757e-01,9.99999e-01
8.452190071e-01,4.97488e-01,9.99999e-01,9.99999e-01,9.91641e-01,5.01681e-01,9.99999e-01
8.494451021e-01,5.06100e-01,9.99999e-01,9.99999e-01,9.95154e-01,5.08564e-01,9.99999e-01
8.536923276e-01,5.13921e-01,9.99999e-01,9.99999e-01,9.97126e-01,5.15402e-01,9.99999e-01
8.579607893e-01,5.21271e-01,9.99999e-01,9.99999e-01,9.98232e-01,5.22194e-01,9.99999e-01
8.622505932e-01,5.28344e-01,9.99999e-01,9.99999e-01,9.98875e-01,5.28938e-01,9.99999e-01
8.665618462e-01,4.89347e-01,9.99999e-01,9.14188e-01,9.99305e-01,5.35634e-01,9.99999e-01
8.708946554e-01,3.28383e-01,9.99999e-01,6.06017e-01,9.99206e-01,5.42281e-01,9.99999e-01
8.752491287e-01,3.64924e-01,9.99999e-01,6.65537e-01,9.98937e-01,5.48875e-01,9.99999e-01
8.796253743e-01,4.42843e-01,9.99999e-01,7.98441e-01,9.98532e-01,5.55418e-01,9.99999e-01
8.840235012e-01,4.99018e-01,9.99999e-01,8.89542e-01,9.98322e-01,5.61907e-01,9.99999e-01
8.884436187e-01,5.39398e-01,9.99999e-01,9.54775e-01,9.93953e-01,5.68341e-01,9.99999e-01
8.928858368e-01,5.29001e-01,9.99999e-01,9.81453e-01,9.37647e-01,5.74720e-01,9.99998e-01
8.973502660e-01,5.15870e-01,9.99999e-01,9.95447e-01,8.91788e-01,5.81042e-01,9.99998e-01
9.018370173e-01,5.53548e-01,9.99999e-01,9.99496e-01,9.42977e-01,5.87306e-01,9.99997e-01
9.063462024e-01,5.57103e-01,9.99999e-01,9.87442e-01,9.50099e-01,5.93513e-01,9.99997e-01
9.108779334e-01,5.37674e-01,9.99999e-01,9.70934e-01,9.23036e-01,5.99661e-01,9.99997e-01
9.154323231e-01,5.49261e-01,9.99999e-01,9.93063e-01,9.12904e-01,6.05749e-01,9.99997e-01
9.200094847e-01,5.19136e-01,9.99999e-01,9.07083e-01,9.31042e-01,6.11776e-01,9.99996e-01
9.246095321e-01,4.80710e-01,9.99999e-01,8.65761e-01,8.95939e-01,6.17743e-01,9.99994e-01
9.292325798e-01,2.71952e-01,9.99999e-01,8.94097e-01,4.80764e-01,6.23649e-01,9.99988e-01
9.338787427e-01,2.21855e-01,9.99999e-01,8.96679e-01,3.87543e-01,6.29492e-01,9.99985e-01
9.385481364e-01,4.01852e-01,9.99999e-01,9.22899e-01,6.81399e-01,6.35274e-01,9.99985e-01
9.432408771e-01,3.62015e-01,9.99999e-01,9.51941e-01,5.91290e-01,6.40993e-01,9.99983e-01
9.479570815e-01,3.07219e-01,9.99999e-01,9.75087e-01,4.86425e-01,6.46648e-01,9.99985e-01
9.526968669e-01,3.72964e-01,9.99999e-01,9.87899e-01,5.78061e-01,6.52241e-01,9.99989e-01
9.574603512e-01,3.93175e-01,9.99999e-01,9.94806e-01,6.00599e-01,6.57770e-01,9.99991e-01
9.622476530e-01,4.36347e-01,9.99999e-01,9.98376e-01,6.58897e-01,6.63235e-01,9.99994e-01
9.670588912e-01,5.25378e-01,9.99999e-01,9.99512e-01,7.86105e-01,6.68636e-01,9.99996e-01
9.718941857e-01,5.79512e-01,9.99999e-01,9.99964e-01,8.59872e-01,6.73973e-01,9.99997e-01
9.767536566e-01,5.99238e-01,9.99999e-01,9.99999e-01,8.82211e-01,6.79246e-01,9.99998e-01
9.816374249e-01,6.23626e-01,9.99999e-01,9.99999e-01,9.11127e-01,6.84456e-01,9.99998e-01
9.865456120e-01,6.50624e-01,9.99999e-01,9.99999e-01,9.43480e-01,6.89601e-01,9.99999e-01
9.914783401e-01,6.70149e-01,9.99999e-01,9.99999e-01,9.64684e-01,6.94681e-01,9.99999e-01
9.964357318e-01,6.86131e-01,9.99999e-01,9.99999e-01,9.80609e-01,6.99698e-01,9.99999e-01
1.001417910e+00,6.96430e-01,9.99999e-01,9.99999e-01,9.88332e-01,7.04651e-01,9.99999e-01
1.006425000e+00,7.04816e-01,9.99999e-01,9.99999e-01,9.93341e-01,7.09540e-01,9.99999e-01
1.011457125e+00,7.11406e-01,9.99999e-01,9.99999e-01,9.95856e-01,7.14366e-01,9.99999e-01
1.016514411e+00,7.17106e-01,9.99999e-01,9.99999e-01,9.97187e-01,7.19128e-01,9.99999e-01
1.021596983e+00,7.22160e-01,9.99999e-01,9.99936e-01,9.97759e-01,7.23827e-01,9.99999e-01
1.026704968e+00,7.23621e-01,9.99999e-01,9.95088e-01,9.98253e-01,7.28462e-01,9.99999e-01
1.031838492e+00,6.94471e-01,9.99999e-01,9.48555e-01,9.98728e-01,7.33035e-01,9.99999e-01
1.036997685e+00,8.76452e-02,9.99999e-01,1.18903e-01,9.99245e-01,7.37546e-01,9.99999e-01
1.042182673e+00,4.75777e-02,9.99999e-01,6.41709e-02,9.99102e-01,7.41994e-01,9.99999e-01
1.047393587e+00,6.69294e-02,9.99999e-01,8.97652e-02,9.98808e-01,7.46381e-01,9.99999e-01
1.052630555e+00,7.12167e-04,9.99999e-01,9.49760e-04,9.98366e-01,7.50706e-01,9.99999e-01
1.057893707e+00,2.05789e-03,9.99999e-01,2.73048e-03,9.97276e-01,7.54970e-01,9.99999e-01
1.063183176e+00,9.48471e-03,9.99999e-01,1.25316e-02,9.95518e-01,7.59173e-01,9.99999e-01
1.068499092e+00,3.42426e-02,9.99999e-01,4.51329e-02,9.92500e-01,7.63316e-01,9.99999e-01
1.073841587e+00,1.06642e-01,9.99999e-01,1.39975e-01,9.91238e-01,7.67399e-01,9.99999e-01
1.079210795e+00,2.19833e-01,9.99999e-01,2.87839e-01,9.88761e-01,7.71422e-01,9.99999e-01
1.084606849e+00,3.82720e-01,9.99999e-01,5.01582e-01,9.83052e-01,7.75387e-01,9.99998e-01
1.090029883e+00,5.31740e-01,9.99999e-01,6.98630e-01,9.75823e-01,7.79293e-01,9.99998e-01
1.095480033e+00,6.14326e-01,9.99999e-01,8.37802e-01,9.35415e-01,7.83141e-01,9.99997e-01
1.100957433e+00,6.10702e-01,9.99999e-01,9.18219e-01,8.44196e-01,7.86931e-01,9.99996e-01
1.106462220e+00,4.98903e-01,9.99999e-01,9.65301e-01,6.52619e-01,7.90665e-01,9.99993e-01
1.111994531e+00,3.21149e-01,9.99999e-01,9.86994e-01,4.09144e-01,7.94341e-01,9.99986e-01
1.117554504e+00,1.89491e-01,9.99999e-01,9.96801e-01,2.38058e-01,7.97962e-01,9.99981e-01
1.123142276e+00,2.84448e-01,9.99999e-01,9.99788e-01,3.54918e-01,8.01527e-01,9.99978e-01
1.128757988e+00,4.09747e-01,9.99999e-01,9.99999e-01,5.08990e-01,8.05038e-01,9.99976e-01
1.134401778e+00,2.12562e-01,9.99999e-01,9.99999e-01,2.62917e-01,8.08494e-01,9.99973e-01
1.140073787e+00,5.39944e-01,9.99999e-01,9.99999e-01,6.65055e-01,8.11896e-01,9.99978e-01
1.145774156e+00,3.52069e-01,9.99999e-01,9.99999e-01,4.31865e-01,8.15244e-01,9.99981e-01
1.151503026e+00,3.23050e-01,9.99999e-01,9.99999e-01,3.94672e-01,8.18540e-01,9.99984e-01
1.157260541e+00,3.72415e-01,9.99999e-01,9.99999e-01,4.53183e-01,8.21784e-01,9.99987e-01
1.163046844e+00,4.58393e-01,9.99999e-01,9.99999e-01,5.55647e-01,8.24976e-01,9.99992e-01
1.168862078e+00,5.48984e-01,9.99999e-01,9.99999e-01,6.62932e-01,8.28117e-01,9.99995e-01
1.174706389e+00,6.44923e-01,9.99999e-01,9.99999e-01,7.75886e-01,8.31208e-01,9.99997e-01
1.180579921e+00,7.14650e-01,9.99999e-01,9.99999e-01,8.56638e-01,8.34249e-01,9.99998e-01
1.186482820e+00,7.67102e-01,9.99999e-01,9.99992e-01,9.16233e-01,8.37241e-01,9.99998e-01
1.192415234e+00,7.84781e-01,9.99999e-01,9.82716e-01,9.50239e-01,8.40184e-01,9.99998e-01
1.198377311e+00,4.50792e-01,9.99999e-01,5.54240e-01,9.57944e-01,8.43078e-01,9.99998e-01
1.204369197e+00,3.49271e-14,9.99999e-01,4.22698e-14,9.60156e-01,8.45926e-01,9.99998e-01
1.210391043e+00,1.74648e-53,9.99999e-01,2.10267e-53,9.61848e-01,8.48726e-01,9.99999e-01
1.216442998e+00,1.86246e-46,9.99999e-01,2.23254e-46,9.67412e-01,8.51480e-01,9.99999e-01
1.222525213e+00,8.94337e-46,9.99999e-01,1.06097e-45,9.74546e-01,8.54189e-01,9.99999e-01
1.228637839e+00,1.88094e-35,9.99999e-01,2.22225e-35,9.82265e-01,8.56852e-01,9.99999e-01
