#,Wave/freq,Total,O2,CO2,H2O,Rayleigh,CIA
4.000000000e-01,1.80000e-02,9.99999e-01,9.99999e-01,9.99991e-01,1.80002e-02,9.99999e-01
4.020000000e-01,1.94882e-02,9.99999e-01,9.99999e-01,9.99994e-01,1.94883e-02,9.99999e-01
4.040100000e-01,2.10647e-02,9.99999e-01,9.99999e-01,9.99997e-01,2.10647e-02,9.99999e-01
4.060300500e-01,2.27337e-02,9.99999e-01,9.99999e-01,9.99999e-01,2.27337e-02,9.99999e-01
4.080602003e-01,2.44979e-02,9.99999e-01,9.99999e-01,9.99999e-01,2.44979e-02,9.99999e-01
4.101005013e-01,2.63602e-02,9.99999e-01,9.99999e-01,9.99999e-01,2.63602e-02,9.99999e-01
4.121510038e-01,2.83229e-02,9.99999e-01,9.99999e-01,9.99999e-01,2.83229e-02,9.99999e-01
4.142117588e-01,3.03887e-02,9.99999e-01,9.99999e-01,9.99997e-01,3.03887e-02,9.99999e-01
4.162828176e-01,3.25596e-02,9.99999e-01,9.99999e-01,9.99989e-01,3.25599e-02,9.99999e-01
4.183642317e-01,3.48384e-02,9.99999e-01,9.99999e-01,9.99993e-01,3.48386e-02,9.99999e-01
4.204560528e-01,3.72269e-02,9.99999e-01,9.99999e-01,9.99995e-01,3.72271e-02,9.99999e-01
4.225583331e-01,3.97271e-02,9.99999e-01,9.99999e-01,9.99998e-01,3.97272e-02,9.99999e-01
4.246711247e-01,4.23408e-02,9.99999e-01,9.99999e-01,9.99998e-01,4.23408e-02,9.99999e-01
4.267944804e-01,4.50696e-02,9.99999e-01,9.99999e-01,9.99997e-01,4.50697e-02,9.99999e-01
4.289284528e-01,4.79151e-02,9.99999e-01,9.99999e-01,9.99998e-01,4.79152e-02,9.99999e-01
4.310730950e-01,5.08788e-02,9.99999e-01,9.99999e-01,9.99998e-01,5.08788e-02,9.99999e-01
4.332284605e-01,5.39618e-02,9.99999e-01,9.99999e-01,9.99999e-01,5.39618e-02,9.99999e-01
4.353946028e-01,5.71651e-02,9.99999e-01,9.99999e-01,9.99999e-01,5.71651e-02,9.99999e-01
4.375715758e-01,6.04895e-02,9.99999e-01,9.99999e-01,9.99998e-01,6.04896e-02,9.99999e-01
4.397594337e-01,6.39354e-02,9.99999e-01,9.99999e-01,9.99990e-01,6.39360e-02,9.99999e-01
4.419582309e-01,6.75019e-02,9.99999e-01,9.99999e-01,9.99955e-01,6.75048e-02,9.99999e-01
4.441680220e-01,7.11940e-02,9.99999e-01,9.99999e-01,9.99965e-01,7.11965e-02,9.99999e-01
4.463888621e-01,7.50084e-02,9.99999e-01,9.99999e-01,9.99964e-01,7.50110e-02,9.99999e-01
4.486208064e-01,7.89468e-02,9.99999e-01,9.99999e-01,9.99977e-01,7.89486e-02,9.99999e-01
4.508639105e-01,8.30080e-02,9.99999e-01,9.99999e-01,9.99989e-01,8.30088e-02,9.99999e-01
4.531182300e-01,8.71912e-02,9.99999e-01,9.99999e-01,9.99995e-01,8.71915e-02,9.99999e-01
4.553838212e-01,9.14959e-02,9.99999e-01,9.99999e-01,9.99996e-01,9.14961e-02,9.99999e-01
4.576607403e-01,9.59217e-02,9.99999e-01,9.99999e-01,9.99998e-01,9.59218e-02,9.99999e-01
4.599490440e-01,1.00468e-01,9.99999e-01,9.99999e-01,9.99998e-01,1.00468e-01,9.99999e-01
4.622487892e-01,1.05133e-01,9.99999e-01,9.99999e-01,9.99999e-01,1.05133e-01,9.99999e-01
4.645600332e-01,1.09916e-01,9.99999e-01,9.99999e-01,9.99998e-01,1.09916e-01,9.99999e-01
4.668828333e-01,1.14815e-01,9.99999e-01,9.99999e-01,9.99989e-01,1.14816e-01,9.99999e-01
4.692172475e-01,1.19829e-01,9.99999e-01,9.99999e-01,9.99977e-01,1.19832e-01,9.99999e-01
4.715633337e-01,1.24958e-01,9.99999e-01,9.99999e-01,9.99985e-01,1.24960e-01,9.99999e-01
4.739211504e-01,1.30199e-01,9.99999e-01,9.99999e-01,9.99985e-01,1.30201e-01,9.99999e-01
4.762907561e-01,1.35550e-01,9.99999e-01,9.99999e-01,9.99992e-01,1.35551e-01,9.99999e-01
4.786722099e-01,1.41008e-01,9.99999e-01,9.99999e-01,9.99996e-01,1.41008e-01,9.99999e-01
4.810655710e-01,1.46571e-01,9.99999e-01,9.99999e-01,9.99998e-01,1.46571e-01,9.99999e-01
4.834708988e-01,1.52236e-01,9.99999e-01,9.99999e-01,9.99990e-01,1.52237e-01,9.99999e-01
4.858882533e-01,1.58002e-01,9.99999e-01,9.99999e-01,9.99983e-01,1.58004e-01,9.99999e-01
4.883176946e-01,1.63867e-01,9.99999e-01,9.99999e-01,9.99986e-01,1.63869e-01,9.99999e-01
4.907592831e-01,1.69827e-01,9.99999e-01,9.99999e-01,9.99987e-01,1.69829e-01,9.99999e-01
4.932130795e-01,1.75881e-01,9.99999e-01,9.99999e-01,9.99991e-01,1.75882e-01,9.99999e-01
4.956791449e-01,1.82024e-01,9.99999e-01,9.99999e-01,9.99995e-01,1.82025e-01,9.99999e-01
4.981575406e-01,1.88250e-01,9.99999e-01,9.99999e-01,9.99977e-01,1.88254e-01,9.99999e-01
5.006483283e-01,1.94556e-01,9.99999e-01,9.99999e-01,9.99941e-01,1.94568e-01,9.99999e-01
5.031515699e-01,2.00903e-01,9.99999e-01,9.99999e-01,9.99706e-01,2.00962e-01,9.99999e-01
5.056673278e-01,2.07401e-01,9.99999e-01,9.99999e-01,9.99845e-01,2.07433e-01,9.99999e-01
5.081956644e-01,2.13938e-01,9.99999e-01,9.99999e-01,9.99804e-01,2.13979e-01,9.99999e-01
5.107366428e-01,2.20567e-01,9.99999e-01,9.99999e-01,9.99868e-01,2.20596e-01,9.99999e-01
5.132903260e-01,2.27264e-01,9.99999e-01,9.99999e-01,9.99924e-01,2.27281e-01,9.99999e-01
5.158567776e-01,2.34024e-01,9.99999e-01,9.99999e-01,9.99967e-01,2.34031e-01,9.99999e-01
5.184360615e-01,2.40839e-01,9.99999e-01,9.99999e-01,9.99986e-01,2.40842e-01,9.99999e-01
5.210282418e-01,2.47709e-01,9.99999e-01,9.99999e-01,9.99994e-01,2.47710e-01,9.99999e-01
5.236333830e-01,2.54628e-01,9.99999e-01,9.99999e-01,9.99980e-01,2.54633e-01,9.99999e-01
5.262515499e-01,2.61604e-01,9.99999e-01,9.99999e-01,9.99987e-01,2.61607e-01,9.99999e-01
5.288828077e-01,2.68626e-01,9.99999e-01,9.99999e-01,9.99988e-01,2.68629e-01,9.99999e-01
5.315272217e-01,2.75692e-01,9.99999e-01,9.99999e-01,9.99989e-01,2.75695e-01,9.99999e-01
5.341848578e-01,2.82799e-01,9.99999e-01,9.99999e-01,9.99993e-01,2.82801e-01,9.99999e-01
5.368557821e-01,2.89939e-01,9.99999e-01,9.99999e-01,9.99977e-01,2.89945e-01,9.99999e-01
5.395400610e-01,2.97099e-01,9.99999e-01,9.99999e-01,9.99919e-01,2.97123e-01,9.99999e-01
5.422377613e-01,3.04300e-01,9.99999e-01,9.99999e-01,9.99896e-01,3.04332e-01,9.99999e-01
5.449489501e-01,3.11538e-01,9.99999e-01,9.99999e-01,9.99903e-01,3.11568e-01,9.99999e-01
5.476736949e-01,3.18801e-01,9.99999e-01,9.99999e-01,9.99914e-01,3.18828e-01,9.99999e-01
5.504120634e-01,3.26088e-01,9.99999e-01,9.99999e-01,9.99937e-01,3.26108e-01,9.99999e-01
5.531641237e-01,3.33396e-01,9.99999e-01,9.99999e-01,9.99968e-01,3.33407e-01,9.99999e-01
5.559299443e-01,3.40714e-01,9.99999e-01,9.99999e-01,9.99984e-01,3.40719e-01,9.99999e-01
5.587095940e-01,3.48040e-01,9.99999e-01,9.99999e-01,9.99990e-01,3.48043e-01,9.99999e-01
5.615031420e-01,3.55371e-01,9.99999e-01,9.99999e-01,9.99989e-01,3.55375e-01,9.99999e-01
5.643106577e-01,3.62708e-01,9.99999e-01,9.99999e-01,9.99987e-01,3.62712e-01,9.99999e-01
5.671322110e-01,3.69997e-01,9.99999e-01,9.99999e-01,9.99854e-01,3.70051e-01,9.99999e-01
5.699678720e-01,3.77331e-01,9.99999e-01,9.99999e-01,9.99846e-01,3.77389e-01,9.99999e-01
5.728177114e-01,3.84662e-01,9.99999e-01,9.99999e-01,9.99839e-01,3.84724e-01,9.99999e-01
5.756818000e-01,3.91994e-01,9.99999e-01,9.99999e-01,9.99852e-01,3.92052e-01,9.99999e-01
5.785602090e-01,3.99319e-01,9.99999e-01,9.99999e-01,9.99871e-01,3.99370e-01,9.99999e-01
5.814530100e-01,4.06625e-01,9.99999e-01,9.99999e-01,9.99870e-01,4.06677e-01,9.99999e-01
5.843602750e-01,4.13905e-01,9.99999e-01,9.99999e-01,9.99845e-01,4.13969e-01,9.99999e-01
5.872820764e-01,4.20685e-01,9.99999e-01,9.99999e-01,9.98673e-01,4.21244e-01,9.99999e-01
5.902184868e-01,4.27813e-01,9.99999e-01,9.99999e-01,9.98397e-01,4.28499e-01,9.99999e-01
5.931695792e-01,4.35239e-01,9.99999e-01,9.99999e-01,9.98866e-01,4.35733e-01,9.99999e-01
5.961354271e-01,4.42392e-01,9.99999e-01,9.99999e-01,9.98758e-01,4.42941e-01,9.99999e-01
5.991161043e-01,4.49717e-01,9.99999e-01,9.99999e-01,9.99095e-01,4.50124e-01,9.99999e-01
6.021116848e-01,4.57042e-01,9.99999e-01,9.99999e-01,9.99486e-01,4.57277e-01,9.99999e-01
6.051222432e-01,4.64279e-01,9.99999e-01,9.99999e-01,9.99740e-01,4.64399e-01,9.99999e-01
6.081478544e-01,4.71436e-01,9.99999e-01,9.99999e-01,9.99887e-01,4.71489e-01,9.99999e-01
6.111885937e-01,4.78520e-01,9.99999e-01,9.99999e-01,9.99952e-01,4.78543e-01,9.99999e-01
6.142445367e-01,4.85550e-01,9.99999e-01,9.99999e-01,9.99978e-01,4.85561e-01,9.99999e-01
6.173157594e-01,4.92534e-01,9.99999e-01,9.99999e-01,9.99987e-01,4.92539e-01,9.99999e-01
6.204023382e-01,4.99473e-01,9.99999e-01,9.99999e-01,9.99989e-01,4.99478e-01,9.99999e-01
6.235043498e-01,5.06351e-01,9.99999e-01,9.99999e-01,9.99955e-01,5.06374e-01,9.99999e-01
6.266218716e-01,5.13107e-01,9.99999e-01,9.99999e-01,9.99769e-01,5.13226e-01,9.99999e-01
6.297549810e-01,5.19989e-01,9.99999e-01,9.99999e-01,9.99915e-01,5.20033e-01,9.99999e-01
6.329037559e-01,5.26705e-01,9.99999e-01,9.99999e-01,9.99832e-01,5.26793e-01,9.99999e-01
6.360682746e-01,5.33428e-01,9.99999e-01,9.99999e-01,9.99857e-01,5.33504e-01,9.99999e-01
6.392486160e-01,5.40067e-01,9.99999e-01,9.99999e-01,9.99815e-01,5.40166e-01,9.99999e-01
6.424448591e-01,5.46643e-01,9.99999e-01,9.99999e-01,9.99752e-01,5.46778e-01,9.99999e-01
6.456570834e-01,5.52701e-01,9.99999e-01,9.99999e-01,9.98850e-01,5.53337e-01,9.99999e-01
6.488853688e-01,5.59374e-01,9.99999e-01,9.99999e-01,9.99161e-01,5.59843e-01,9.99999e-01
6.521297956e-01,5.65811e-01,9.99999e-01,9.99999e-01,9.99144e-01,5.66295e-01,9.99999e-01
6.553904446e-01,5.72204e-01,9.99999e-01,9.99999e-01,9.99148e-01,5.72691e-01,9.99999e-01
6.586673968e-01,5.78610e-01,9.99999e-01,9.99999e-01,9.99271e-01,5.79032e-01,9.99999e-01
6.619607338e-01,5.85077e-01,9.99999e-01,9.99999e-01,9.99593e-01,5.85315e-01,9.99999e-01
6.652705375e-01,5.91396e-01,9.99999e-01,9.99999e-01,9.99756e-01,5.91540e-01,9.99999e-01
6.685968902e-01,5.97639e-01,9.99999e-01,9.99999e-01,9.99886e-01,5.97707e-01,9.99999e-01
6.719398746e-01,6.03782e-01,9.99999e-01,9.99999e-01,9.99947e-01,6.03814e-01,9.99999e-01
6.752995740e-01,6.09843e-01,9.99999e-01,9.99999e-01,9.99971e-01,6.09861e-01,9.99999e-01
6.786760719e-01,6.15822e-01,9.99999e-01,9.99999e-01,9.99958e-01,6.15847e-01,9.99999e-01
6.820694522e-01,6.21728e-01,9.99999e-01,9.99999e-01,9.99929e-01,6.21772e-01,9.99999e-01
6.854797995e-01,6.27579e-01,9.99999e-01,9.99999e-01,9.99908e-01,6.27636e-01,9.99999e-01
6.889071985e-01,6.33297e-01,9.99999e-01,9.99999e-01,9.99778e-01,6.33437e-01,9.99999e-01
6.923517345e-01,6.36878e-01,9.99999e-01,9.99999e-01,9.96405e-01,6.39176e-01,9.99999e-01
6.958134932e-01,6.43653e-01,9.99999e-01,9.99999e-01,9.98140e-01,6.44851e-01,9.99999e-01
6.992925606e-01,6.49309e-01,9.99999e-01,9.99999e-01,9.98224e-01,6.50464e-01,9.99999e-01
7.027890234e-01,6.54578e-01,9.99999e-01,9.99999e-01,9.97812e-01,6.56013e-01,9.99999e-01
7.063029686e-01,6.60282e-01,9.99999e-01,9.99999e-01,9.98160e-01,6.61499e-01,9.99999e-01
7.098344834e-01,6.65744e-01,9.99999e-01,9.99999e-01,9.98235e-01,6.66920e-01,9.99999e-01
7.133836558e-01,6.70691e-01,9.99999e-01,9.99999e-01,9.97638e-01,6.72278e-01,9.99999e-01
7.169505741e-01,6.64758e-01,9.99999e-01,9.99999e-01,9.81088e-01,6.77572e-01,9.99999e-01
7.205353270e-01,6.76497e-01,9.99999e-01,9.99999e-01,9.90766e-01,6.82801e-01,9.99999e-01
7.241380036e-01,6.79877e-01,9.99999e-01,9.99999e-01,9.88240e-01,6.87967e-01,9.99999e-01
7.277586936e-01,6.85711e-01,9.99999e-01,9.99999e-01,9.89384e-01,6.93068e-01,9.99999e-01
7.313974871e-01,6.90252e-01,9.99999e-01,9.99999e-01,9.88750e-01,6.98105e-01,9.99999e-01
7.350544745e-01,6.98750e-01,9.99999e-01,9.99999e-01,9.93843e-01,7.03079e-01,9.99999e-01
7.387297469e-01,7.04782e-01,9.99999e-01,9.99999e-01,9.95471e-01,7.07988e-01,9.99999e-01
7.424233956e-01,7.11255e-01,9.99999e-01,9.99999e-01,9.97784e-01,7.12834e-01,9.99999e-01
7.461355126e-01,7.16652e-01,9.99999e-01,9.99999e-01,9.98656e-01,7.17616e-01,9.99999e-01
7.498661902e-01,7.21884e-01,9.99999e-01,9.99999e-01,9.99374e-01,7.22335e-01,9.99999e-01
7.536155211e-01,7.26768e-01,9.99999e-01,9.99999e-01,9.99692e-01,7.26991e-01,9.99999e-01
7.573835987e-01,7.31468e-01,9.99999e-01,9.99999e-01,9.99841e-01,7.31584e-01,9.99999e-01
7.611705167e-01,7.36042e-01,9.99999e-01,9.99999e-01,9.99901e-01,7.36114e-01,9.99999e-01
7.649763693e-01,7.40537e-01,9.99999e-01,9.99999e-01,9.99938e-01,7.40582e-01,9.99999e-01
7.688012511e-01,7.44956e-01,9.99999e-01,9.99999e-01,9.99956e-01,7.44988e-01,9.99999e-01
7.726452574e-01,7.49307e-01,9.99999e-01,9.99999e-01,9.99964e-01,7.49333e-01,9.99999e-01
7.765084837e-01,7.53578e-01,9.99999e-01,9.99999e-01,9.99949e-01,7.53616e-01,9.99999e-01
7.803910261e-01,7.46941e-01,9.99999e-01,9.85830e-01,9.99782e-01,7.57839e-01,9.99999e-01
7.842929812e-01,7.17325e-01,9.99999e-01,9.42069e-01,9.99241e-01,7.62001e-01,9.99999e-01
7.882144461e-01,7.17280e-01,9.99999e-01,9.37707e-01,9.98441e-01,7.66103e-01,9.99999e-01
7.921555184e-01,7.41680e-01,9.99999e-01,9.63852e-01,9.99146e-01,7.70145e-01,9.99999e-01
7.961162960e-01,7.54258e-01,9.99999e-01,9.75801e-01,9.98486e-01,7.74129e-01,9.99999e-01
8.000968774e-01,7.66454e-01,9.99999e-01,9.86809e-01,9.98255e-01,7.78053e-01,9.99999e-01
8.040973618e-01,7.75218e-01,9.99999e-01,9.93159e-01,9.98254e-01,7.81920e-01,9.99999e-01
8.081178486e-01,7.80168e-01,9.99999e-01,9.96851e-01,9.96056e-01,7.85729e-01,9.99999e-01
8.121584379e-01,7.75801e-01,9.99999e-01,9.99029e-01,9.83622e-01,7.89480e-01,9.99999e-01
8.162192301e-01,7.77640e-01,9.99999e-01,9.99785e-01,9.80622e-01,7.93175e-01,9.99999e-01
8.203003262e-01,7.88994e-01,9.99999e-01,9.99996e-01,9.90189e-01,7.96813e-01,9.99999e-01
8.244018279e-01,7.89488e-01,9.99999e-01,9.99999e-01,9.86371e-01,8.00396e-01,9.99999e-01
8.285238370e-01,7.94595e-01,9.99999e-01,9.99999e-01,9.88395e-01,8.03924e-01,9.99999e-01
8.326664562e-01,7.97932e-01,9.99999e-01,9.99999e-01,9.88276e-01,8.07397e-01,9.99999e-01
8.368297885e-01,8.04034e-01,9.99999e-01,9.99999e-01,9.91634e-01,8.10816e-01,9.99999e-01
8.410139374e-01,8.10133e-01,9.99999e-01,9.99999e-01,9.95026e-01,8.14182e-01,9.99999e-01
8.452190071e-01,8.15501e-01,9.99999e-01,9.99999e-01,9.97560e-01,8.17495e-01,9.99999e-01
8.494451021e-01,8.19593e-01,9.99999e-01,9.99999e-01,9.98583e-01,8.20755e-01,9.99999e-01
8.536923276e-01,8.23274e-01,9.99999e-01,9.99999e-01,9.99162e-01,8.23964e-01,9.99999e-01
8.579607893e-01,8.26695e-01,9.99999e-01,9.99999e-01,9.99483e-01,8.27121e-01,9.99999e-01
8.622505932e-01,8.29956e-01,9.99999e-01,9.99999e-01,9.99672e-01,8.30228e-01,9.99999e-01
8.665618462e-01,8.00614e-01,9.99999e-01,9.60983e-01,9.99796e-01,8.33285e-01,9.99999e-01
8.708946554e-01,7.16261e-01,9.99999e-01,8.56668e-01,9.99767e-01,8.36292e-01,9.99999e-01
8.752491287e-01,7.42251e-01,9.99999e-01,8.84692e-01,9.99688e-01,8.39250e-01,9.99999e-01
8.796253743e-01,7.87719e-01,9.99999e-01,9.35752e-01,9.99569e-01,8.42160e-01,9.99999e-01
8.840235012e-01,8.16193e-01,9.99999e-01,9.66355e-01,9.99507e-01,8.45023e-01,9.99999e-01
8.884436187e-01,8.35014e-01,9.99999e-01,9.86648e-01,9.98193e-01,8.47838e-01,9.99999e-01
8.928858368e-01,8.30027e-01,9.99999e-01,9.94572e-01,9.81111e-01,8.50607e-01,9.99999e-01
8.973502660e-01,8.23964e-01,9.99999e-01,9.98682e-01,9.66849e-01,8.53330e-01,9.99999e-01
9.018370173e-01,8.41311e-01,9.99999e-01,9.99854e-01,9.82971e-01,8.56008e-01,9.99999e-01
9.063462024e-01,8.42563e-01,9.99999e-01,9.96217e-01,9.84955e-01,8.58640e-01,9.99998e-01
9.108779334e-01,8.33962e-01,9.99999e-01,9.91439e-01,9.76660e-01,8.61229e-01,9.99998e-01
9.154323231e-01,8.39272e-01,9.99999e-01,9.97991e-01,9.73572e-01,8.63774e-01,9.99998e-01
9.200094847e-01,8.22979e-01,9.99999e-01,9.69722e-01,9.79235e-01,8.66276e-01,9.99998e-01
9.246095321e-01,8.05710e-01,9.99999e-01,9.58694e-01,9.67095e-01,8.68736e-01,9.99998e-01
9.292325798e-01,6.73366e-01,9.99999e-01,9.67181e-01,7.97902e-01,8.71154e-01,9.99996e-01
9.338787427e-01,6.32788e-01,9.99999e-01,9.68484e-01,7.46802e-01,8.73531e-01,9.99995e-01
9.385481364e-01,7.61411e-01,9.99999e-01,9.76803e-01,8.89451e-01,8.75867e-01,9.99995e-01
9.432408771e-01,7.33447e-01,9.99999e-01,9.85773e-01,8.46967e-01,8.78163e-01,9.99994e-01
9.479570815e-01,6.92334e-01,9.99999e-01,9.92673e-01,7.92025e-01,8.80420e-01,9.99995e-01
9.526968669e-01,7.41307e-01,9.99999e-01,9.96462e-01,8.42738e-01,8.82637e-01,9.99996e-01
9.574603512e-01,7.57727e-01,9.99999e-01,9.98486e-01,8.57630e-01,8.84816e-01,9.99997e-01
9.622476530e-01,7.83029e-01,9.99999e-01,9.99527e-01,8.83233e-01,8.86958e-01,9.99997e-01
9.670588912e-01,8.27687e-01,9.99999e-01,9.99858e-01,9.31096e-01,8.89062e-01,9.99998e-01
9.718941857e-01,8.52465e-01,9.99999e-01,9.99989e-01,9.56621e-01,8.91129e-01,9.99998e-01
9.767536566e-01,8.60894e-01,9.99999e-01,9.99999e-01,9.63873e-01,8.93160e-01,9.99999e-01
9.816374249e-01,8.71129e-01,9.99999e-01,9.99999e-01,9.73159e-01,8.95156e-01,9.99999e-01
9.865456120e-01,8.82013e-01,9.99999e-01,9.99999e-01,9.83163e-01,8.97116e-01,9.99999e-01
9.914783401e-01,8.89663e-01,9.99999e-01,9.99999e-01,9.89566e-01,8.99042e-01,9.99999e-01
9.964357318e-01,8.95805e-01,9.99999e-01,9.99999e-01,9.94306e-01,9.00934e-01,9.99999e-01
1.001417910e+00,8.99711e-01,9.99999e-01,9.99999e-01,9.96585e-01,9.02793e-01,9.99999e-01
1.006425000e+00,9.02856e-01,9.99999e-01,9.99999e-01,9.98051e-01,9.04618e-01,9.99999e-01
1.011457125e+00,9.05316e-01,9.99999e-01,9.99999e-01,9.98791e-01,9.06411e-01,9.99999e-01
1.016514411e+00,9.07427e-01,9.99999e-01,9.99999e-01,9.99178e-01,9.08172e-01,9.99999e-01
1.021596983e+00,9.09288e-01,9.99999e-01,9.99978e-01,9.99345e-01,9.09901e-01,9.99999e-01
1.026704968e+00,9.09795e-01,9.99999e-01,9.98528e-01,9.99489e-01,9.11600e-01,9.99999e-01
1.031838492e+00,8.91462e-01,9.99999e-01,9.76477e-01,9.99628e-01,9.13268e-01,9.99999e-01
1.036997685e+00,3.10726e-01,9.99999e-01,3.39690e-01,9.99779e-01,9.14906e-01,9.99999e-01
1.042182673e+00,3.84229e-01,9.99999e-01,4.19333e-01,9.99736e-01,9.16515e-01,9.99999e-01
1.047393587e+00,3.43389e-01,9.99999e-01,3.74143e-01,9.99651e-01,9.18094e-01,9.99999e-01
1.052630555e+00,7.30250e-02,9.99999e-01,7.94364e-02,9.99521e-01,9.19645e-01,9.99999e-01
1.057893707e+00,1.28136e-01,9.99999e-01,1.39193e-01,9.99200e-01,9.21168e-01,9.99999e-01
1.063183176e+00,2.22178e-01,9.99999e-01,2.41067e-01,9.98685e-01,9.22663e-01,9.99999e-01
1.068499092e+00,3.59778e-01,9.99999e-01,3.90108e-01,9.97799e-01,9.24131e-01,9.99999e-01
1.073841587e+00,5.10482e-01,9.99999e-01,5.52849e-01,9.97422e-01,9.25573e-01,9.99999e-01
1.079210795e+00,6.36168e-01,9.99999e-01,6.88460e-01,9.96701e-01,9.26988e-01,9.99999e-01
1.084606849e+00,7.53899e-01,9.99999e-01,8.16058e-01,9.95006e-01,9.28377e-01,9.99999e-01
1.090029883e+00,8.30958e-01,9.99999e-01,9.00148e-01,9.92815e-01,9.29741e-01,9.99999e-01
1.095480033e+00,8.67002e-01,9.99999e-01,9.49571e-01,9.80548e-01,9.31080e-01,9.99999e-01
1.100957433e+00,8.65153e-01,9.99999e-01,9.75418e-01,9.51171e-01,9.32394e-01,9.99998e-01
1.106462220e+00,8.12828e-01,9.99999e-01,9.89771e-01,8.79424e-01,9.33684e-01,9.99997e-01
1.111994531e+00,7.09799e-01,9.99999e-01,9.96198e-01,7.61995e-01,9.34950e-01,9.99995e-01
1.117554504e+00,6.00723e-01,9.99999e-01,9.99072e-01,6.42215e-01,9.36193e-01,9.99994e-01
1.123142276e+00,6.71985e-01,9.99999e-01,9.99938e-01,7.16886e-01,9.37413e-01,9.99993e-01
1.128757988e+00,7.61039e-01,9.99999e-01,9.99999e-01,8.10819e-01,9.38611e-01,9.99992e-01
1.134401778e+00,5.62378e-01,9.99999e-01,9.99999e-01,5.98415e-01,9.39786e-01,9.99991e-01
1.140073787e+00,8.31997e-01,9.99999e-01,9.99999e-01,8.84224e-01,9.40940e-01,9.99993e-01
1.145774156e+00,7.26381e-01,9.99999e-01,9.99999e-01,7.71049e-01,9.42072e-01,9.99994e-01
1.151503026e+00,7.04199e-01,9.99999e-01,9.99999e-01,7.46622e-01,9.43183e-01,9.99995e-01
1.157260541e+00,7.44155e-01,9.99999e-01,9.99999e-01,7.88074e-01,9.44273e-01,9.99996e-01
1.163046844e+00,7.93368e-01,9.99999e-01,9.99999e-01,8.39239e-01,9.45343e-01,9.99997e-01
1.168862078e+00,8.38683e-01,9.99999e-01,9.99999e-01,8.86189e-01,9.46393e-01,9.99998e-01
1.174706389e+00,8.79376e-01,9.99999e-01,9.99999e-01,9.28175e-01,9.47424e-01,9.99998e-01
1.180579921e+00,9.06412e-01,9.99999e-01,9.99999e-01,9.55692e-01,9.48435e-01,9.99999e-01
1.186482820e+00,9.25459e-01,9.99999e-01,9.99996e-01,9.74756e-01,9.49427e-01,9.99999e-01
1.192415234e+00,9.31391e-01,9.99999e-01,9.94695e-01,9.85200e-01,9.50401e-01,9.99999e-01
1.198377311e+00,5.62020e-01,9.99999e-01,5.97062e-01,9.87504e-01,9.51357e-01,9.99999e-01
1.204369197e+00,9.90330e-06,9.99999e-01,1.04711e-05,9.88166e-01,9.52294e-01,9.99999e-01
1.210391043e+00,3.21232e-17,9.99999e-01,3.39131e-17,9.88687e-01,9.53214e-01,9.99999e-01
1.216442998e+00,3.77695e-15,9.99999e-01,3.98239e-15,9.90374e-01,9.54117e-01,9.99999e-01
1.222525213e+00,6.52974e-15,9.99999e-01,6.86508e-15,9.92501e-01,9.55002e-01,9.99999e-01
1.228637839e+00,1.98795e-11,9.99999e-01,2.08756e-11,9.94787e-01,9.55871e-01,9.99999e-01
