#,Wave/freq,Total,O2,CO2,H2O,Rayleigh,CIA
4.000000000e-01,5.84535e-06,9.99999e-01,9.99999e-01,9.99975e-01,5.84549e-06,9.99999e-01
4.020000000e-01,7.41800e-06,9.99999e-01,9.99999e-01,9.99984e-01,7.41811e-06,9.99999e-01
4.040100000e-01,9.36731e-06,9.99999e-01,9.99999e-01,9.99993e-01,9.36737e-06,9.99999e-01
4.060300500e-01,1.17744e-05,9.99999e-01,9.99999e-01,9.99998e-01,1.17745e-05,9.99999e-01
4.080602003e-01,1.47334e-05,9.99999e-01,9.99999e-01,9.99999e-01,1.47334e-05,9.99999e-01
4.101005013e-01,1.83544e-05,9.99999e-01,9.99999e-01,9.99999e-01,1.83544e-05,9.99999e-01
4.121510038e-01,2.27663e-05,9.99999e-01,9.99999e-01,9.99998e-01,2.27663e-05,9.99999e-01
4.142117588e-01,2.81187e-05,9.99999e-01,9.99999e-01,9.99992e-01,2.81189e-05,9.99999e-01
4.162828176e-01,3.45843e-05,9.99999e-01,9.99999e-01,9.99970e-01,3.45853e-05,9.99999e-01
4.183642317e-01,4.23645e-05,9.99999e-01,9.99999e-01,9.99982e-01,4.23652e-05,9.99999e-01
4.204560528e-01,5.16871e-05,9.99999e-01,9.99999e-01,9.99988e-01,5.16876e-05,9.99999e-01
4.225583331e-01,6.28140e-05,9.99999e-01,9.99999e-01,9.99995e-01,6.28142e-05,9.99999e-01
4.246711247e-01,7.60423e-05,9.99999e-01,9.99999e-01,9.99996e-01,7.60425e-05,9.99999e-01
4.267944804e-01,9.17094e-05,9.99999e-01,9.99999e-01,9.99994e-01,9.17098e-05,9.99999e-01
4.289284528e-01,1.10196e-04,9.99999e-01,9.99999e-01,9.99995e-01,1.10197e-04,9.99999e-01
4.310730950e-01,1.31930e-04,9.99999e-01,9.99999e-01,9.99997e-01,1.31930e-04,9.99999e-01
4.332284605e-01,1.57390e-04,9.99999e-01,9.99999e-01,9.99999e-01,1.57390e-04,9.99999e-01
4.353946028e-01,1.87110e-04,9.99999e-01,9.99999e-01,9.99999e-01,1.87110e-04,9.99999e-01
4.375715758e-01,2.21682e-04,9.99999e-01,9.99999e-01,9.99996e-01,2.21683e-04,9.99999e-01
4.397594337e-01,2.61759e-04,9.99999e-01,9.99999e-01,9.99973e-01,2.61766e-04,9.99999e-01
4.419582309e-01,3.08043e-04,9.99999e-01,9.99999e-01,9.99867e-01,3.08083e-04,9.99999e-01
4.441680220e-01,3.61395e-04,9.99999e-01,9.99999e-01,9.99898e-01,3.61431e-04,9.99999e-01
4.463888621e-01,4.22637e-04,9.99999e-01,9.99999e-01,9.99893e-01,4.22682e-04,9.99999e-01
4.486208064e-01,4.92753e-04,9.99999e-01,9.99999e-01,9.99934e-01,4.92785e-04,9.99999e-01
4.508639105e-01,5.72760e-04,9.99999e-01,9.99999e-01,9.99968e-01,5.72778e-04,9.99999e-01
4.531182300e-01,6.63772e-04,9.99999e-01,9.99999e-01,9.99987e-01,6.63780e-04,9.99999e-01
4.553838212e-01,7.66996e-04,9.99999e-01,9.99999e-01,9.99991e-01,7.67003e-04,9.99999e-01
4.576607403e-01,8.83747e-04,9.99999e-01,9.99999e-01,9.99995e-01,8.83751e-04,9.99999e-01
4.599490440e-01,1.01542e-03,9.99999e-01,9.99999e-01,9.99996e-01,1.01542e-03,9.99999e-01
4.622487892e-01,1.16352e-03,9.99999e-01,9.99999e-01,9.99999e-01,1.16352e-03,9.99999e-01
4.645600332e-01,1.32963e-03,9.99999e-01,9.99999e-01,9.99997e-01,1.32963e-03,9.99999e-01
4.668828333e-01,1.51541e-03,9.99999e-01,9.99999e-01,9.99968e-01,1.51546e-03,9.99999e-01
4.692172475e-01,1.72269e-03,9.99999e-01,9.99999e-01,9.99933e-01,1.72281e-03,9.99999e-01
4.715633337e-01,1.95348e-03,9.99999e-01,9.99999e-01,9.99956e-01,1.95356e-03,9.99999e-01
4.739211504e-01,2.20964e-03,9.99999e-01,9.99999e-01,9.99958e-01,2.20974e-03,9.99999e-01
4.762907561e-01,2.49337e-03,9.99999e-01,9.99999e-01,9.99978e-01,2.49342e-03,9.99999e-01
4.786722099e-01,2.80680e-03,9.99999e-01,9.99999e-01,9.99990e-01,2.80683e-03,9.99999e-01
4.810655710e-01,3.15224e-03,9.99999e-01,9.99999e-01,9.99996e-01,3.15224e-03,9.99999e-01
4.834708988e-01,3.53197e-03,9.99999e-01,9.99999e-01,9.99973e-01,3.53206e-03,9.99999e-01
4.858882533e-01,3.94858e-03,9.99999e-01,9.99999e-01,9.99952e-01,3.94876e-03,9.99999e-01
4.883176946e-01,4.40473e-03,9.99999e-01,9.99999e-01,9.99960e-01,4.40491e-03,9.99999e-01
4.907592831e-01,4.90297e-03,9.99999e-01,9.99999e-01,9.99964e-01,4.90315e-03,9.99999e-01
4.932130795e-01,5.44606e-03,9.99999e-01,9.99999e-01,9.99974e-01,5.44620e-03,9.99999e-01
4.956791449e-01,6.03678e-03,9.99999e-01,9.99999e-01,9.99986e-01,6.03686e-03,9.99999e-01
4.981575406e-01,6.67754e-03,9.99999e-01,9.99999e-01,9.99932e-01,6.67799e-03,9.99999e-01
5.006483283e-01,7.37121e-03,9.99999e-01,9.99999e-01,9.99825e-01,7.37250e-03,9.99999e-01
5.031515699e-01,8.11620e-03,9.99999e-01,9.99999e-01,9.99121e-01,8.12334e-03,9.99999e-01
5.056673278e-01,8.92939e-03,9.99999e-01,9.99999e-01,9.99537e-01,8.93351e-03,9.99999e-01
5.081956644e-01,9.80035e-03,9.99999e-01,9.99999e-01,9.99416e-01,9.80606e-03,9.99999e-01
5.107366428e-01,1.07398e-02,9.99999e-01,9.99999e-01,9.99606e-01,1.07440e-02,9.99999e-01
5.132903260e-01,1.17479e-02,9.99999e-01,9.99999e-01,9.99775e-01,1.17505e-02,9.99999e-01
5.158567776e-01,1.28274e-02,9.99999e-01,9.99999e-01,9.99904e-01,1.28286e-02,9.99999e-01
5.184360615e-01,1.39807e-02,9.99999e-01,9.99999e-01,9.99961e-01,1.39813e-02,9.99999e-01
5.210282418e-01,1.52114e-02,9.99999e-01,9.99999e-01,9.99985e-01,1.52116e-02,9.99999e-01
5.236333830e-01,1.65218e-02,9.99999e-01,9.99999e-01,9.99942e-01,1.65228e-02,9.99999e-01
5.262515499e-01,1.79170e-02,9.99999e-01,9.99999e-01,9.99963e-01,1.79176e-02,9.99999e-01
5.288828077e-01,1.93985e-02,9.99999e-01,9.99999e-01,9.99966e-01,1.93991e-02,9.99999e-01
5.315272217e-01,2.09696e-02,9.99999e-01,9.99999e-01,9.99970e-01,2.09702e-02,9.99999e-01
5.341848578e-01,2.26333e-02,9.99999e-01,9.99999e-01,9.99980e-01,2.26337e-02,9.99999e-01
5.368557821e-01,2.43907e-02,9.99999e-01,9.99999e-01,9.99932e-01,2.43923e-02,9.99999e-01
5.395400610e-01,2.62424e-02,9.99999e-01,9.99999e-01,9.99757e-01,2.62487e-02,9.99999e-01
5.422377613e-01,2.81969e-02,9.99999e-01,9.99999e-01,9.99689e-01,2.82056e-02,9.99999e-01
5.449489501e-01,3.02565e-02,9.99999e-01,9.99999e-01,9.99709e-01,3.02653e-02,9.99999e-01
5.476736949e-01,3.24220e-02,9.99999e-01,9.99999e-01,9.99744e-01,3.24302e-02,9.99999e-01
5.504120634e-01,3.46962e-02,9.99999e-01,9.99999e-01,9.99814e-01,3.47026e-02,9.99999e-01
5.531641237e-01,3.70812e-02,9.99999e-01,9.99999e-01,9.99906e-01,3.70846e-02,9.99999e-01
5.559299443e-01,3.95764e-02,9.99999e-01,9.99999e-01,9.99954e-01,3.95782e-02,9.99999e-01
5.587095940e-01,4.21839e-02,9.99999e-01,9.99999e-01,9.99971e-01,4.21851e-02,9.99999e-01
5.615031420e-01,4.49058e-02,9.99999e-01,9.99999e-01,9.99968e-01,4.49072e-02,9.99999e-01
5.643106577e-01,4.77442e-02,9.99999e-01,9.99999e-01,9.99963e-01,4.77459e-02,9.99999e-01
5.671322110e-01,5.06803e-02,9.99999e-01,9.99999e-01,9.99559e-01,5.07026e-02,9.99999e-01
5.699678720e-01,5.37539e-02,9.99999e-01,9.99999e-01,9.99541e-01,5.37786e-02,9.99999e-01
5.728177114e-01,5.69474e-02,9.99999e-01,9.99999e-01,9.99518e-01,5.69748e-02,9.99999e-01
5.756818000e-01,6.02656e-02,9.99999e-01,9.99999e-01,9.99558e-01,6.02922e-02,9.99999e-01
5.785602090e-01,6.37070e-02,9.99999e-01,9.99999e-01,9.99615e-01,6.37315e-02,9.99999e-01
5.814530100e-01,6.72672e-02,9.99999e-01,9.99999e-01,9.99613e-01,6.72932e-02,9.99999e-01
5.843602750e-01,7.09448e-02,9.99999e-01,9.99999e-01,9.99536e-01,7.09776e-02,9.99999e-01
5.872820764e-01,7.44871e-02,9.99999e-01,9.99999e-01,9.96015e-01,7.47850e-02,9.99999e-01
5.902184868e-01,7.83383e-02,9.99999e-01,9.99999e-01,9.95208e-01,7.87154e-02,9.99999e-01
5.931695792e-01,8.24876e-02,9.99999e-01,9.99999e-01,9.96605e-01,8.27685e-02,9.99999e-01
5.961354271e-01,8.66212e-02,9.99999e-01,9.99999e-01,9.96285e-01,8.69441e-02,9.99999e-01
5.991161043e-01,9.09946e-02,9.99999e-01,9.99999e-01,9.97292e-01,9.12415e-02,9.99999e-01
6.021116848e-01,9.55134e-02,9.99999e-01,9.99999e-01,9.98464e-01,9.56602e-02,9.99999e-01
6.051222432e-01,1.00121e-01,9.99999e-01,9.99999e-01,9.99223e-01,1.00199e-01,9.99999e-01
6.081478544e-01,1.04822e-01,9.99999e-01,9.99999e-01,9.99664e-01,1.04858e-01,9.99999e-01
6.111885937e-01,1.09619e-01,9.99999e-01,9.99999e-01,9.99858e-01,1.09634e-01,9.99999e-01
6.142445367e-01,1.14520e-01,9.99999e-01,9.99999e-01,9.99936e-01,1.14527e-01,9.99999e-01
6.173157594e-01,1.19532e-01,9.99999e-01,9.99999e-01,9.99964e-01,1.19536e-01,9.99999e-01
6.204023382e-01,1.24654e-01,9.99999e-01,9.99999e-01,9.99969e-01,1.24658e-01,9.99999e-01
6.235043498e-01,1.29874e-01,9.99999e-01,9.99999e-01,9.99867e-01,1.29892e-01,9.99999e-01
6.266218716e-01,1.35142e-01,9.99999e-01,9.99999e-01,9.99308e-01,1.35235e-01,9.99999e-01
6.297549810e-01,1.40651e-01,9.99999e-01,9.99999e-01,9.99745e-01,1.40687e-01,9.99999e-01
6.329037559e-01,1.46171e-01,9.99999e-01,9.99999e-01,9.99499e-01,1.46244e-01,9.99999e-01
6.360682746e-01,1.51839e-01,9.99999e-01,9.99999e-01,9.99572e-01,1.51904e-01,9.99999e-01
6.392486160e-01,1.57578e-01,9.99999e-01,9.99999e-01,9.99446e-01,1.57665e-01,9.99999e-01
6.424448591e-01,1.63402e-01,9.99999e-01,9.99999e-01,9.99254e-01,1.63524e-01,9.99999e-01
6.456570834e-01,1.68893e-01,9.99999e-01,9.99999e-01,9.96544e-01,1.69479e-01,9.99999e-01
6.488853688e-01,1.75086e-01,9.99999e-01,9.99999e-01,9.97491e-01,1.75526e-01,9.99999e-01
6.521297956e-01,1.81199e-01,9.99999e-01,9.99999e-01,9.97443e-01,1.81664e-01,9.99999e-01
6.553904446e-01,1.87408e-01,9.99999e-01,9.99999e-01,9.97445e-01,1.87888e-01,9.99999e-01
6.586673968e-01,1.93773e-01,9.99999e-01,9.99999e-01,9.97819e-01,1.94197e-01,9.99999e-01
6.619607338e-01,2.00343e-01,9.99999e-01,9.99999e-01,9.98784e-01,2.00586e-01,9.99999e-01
6.652705375e-01,2.06902e-01,9.99999e-01,9.99999e-01,9.99270e-01,2.07053e-01,9.99999e-01
6.685968902e-01,2.13529e-01,9.99999e-01,9.99999e-01,9.99689e-01,2.13595e-01,9.99999e-01
6.719398746e-01,2.20174e-01,9.99999e-01,9.99999e-01,9.99842e-01,2.20208e-01,9.99999e-01
6.752995740e-01,2.26871e-01,9.99999e-01,9.99999e-01,9.99916e-01,2.26889e-01,9.99999e-01
6.786760719e-01,2.33606e-01,9.99999e-01,9.99999e-01,9.99875e-01,2.33635e-01,9.99999e-01
6.820694522e-01,2.40392e-01,9.99999e-01,9.99999e-01,9.99788e-01,2.40443e-01,9.99999e-01
6.854797995e-01,2.47241e-01,9.99999e-01,9.99999e-01,9.99727e-01,2.47308e-01,9.99999e-01
6.889071985e-01,2.54058e-01,9.99999e-01,9.99999e-01,9.99332e-01,2.54228e-01,9.99999e-01
6.923517345e-01,2.58386e-01,9.99999e-01,9.99999e-01,9.89229e-01,2.61199e-01,9.99999e-01
6.958134932e-01,2.66737e-01,9.99999e-01,9.99999e-01,9.94480e-01,2.68218e-01,9.99999e-01
6.992925606e-01,2.73814e-01,9.99999e-01,9.99999e-01,9.94668e-01,2.75281e-01,9.99999e-01
7.027890234e-01,2.80539e-01,9.99999e-01,9.99999e-01,9.93462e-01,2.82385e-01,9.99999e-01
7.063029686e-01,2.87934e-01,9.99999e-01,9.99999e-01,9.94498e-01,2.89527e-01,9.99999e-01
7.098344834e-01,2.95137e-01,9.99999e-01,9.99999e-01,9.94720e-01,2.96703e-01,9.99999e-01
7.133836558e-01,3.01752e-01,9.99999e-01,9.99999e-01,9.92898e-01,3.03910e-01,9.99999e-01
7.169505741e-01,2.93869e-01,9.99999e-01,9.99999e-01,9.44476e-01,3.11145e-01,9.99998e-01
7.205353270e-01,3.09757e-01,9.99999e-01,9.99999e-01,9.72845e-01,3.18403e-01,9.99998e-01
7.241380036e-01,3.14349e-01,9.99999e-01,9.99999e-01,9.65199e-01,3.25683e-01,9.99998e-01
7.277586936e-01,3.22514e-01,9.99999e-01,9.99999e-01,9.68567e-01,3.32980e-01,9.99998e-01
7.313974871e-01,3.28988e-01,9.99999e-01,9.99999e-01,9.66781e-01,3.40292e-01,9.99999e-01
7.350544745e-01,3.41253e-01,9.99999e-01,9.99999e-01,9.81697e-01,3.47615e-01,9.99999e-01
7.387297469e-01,3.50159e-01,9.99999e-01,9.99999e-01,9.86511e-01,3.54947e-01,9.99999e-01
7.424233956e-01,3.59890e-01,9.99999e-01,9.99999e-01,9.93391e-01,3.62284e-01,9.99999e-01
7.461355126e-01,3.68139e-01,9.99999e-01,9.99999e-01,9.95986e-01,3.69623e-01,9.99999e-01
7.498661902e-01,3.76258e-01,9.99999e-01,9.99999e-01,9.98133e-01,3.76961e-01,9.99999e-01
7.536155211e-01,3.83943e-01,9.99999e-01,9.99999e-01,9.99082e-01,3.84296e-01,9.99999e-01
7.573835987e-01,3.91439e-01,9.99999e-01,9.99999e-01,9.99527e-01,3.91624e-01,9.99999e-01
7.611705167e-01,3.98826e-01,9.99999e-01,9.99999e-01,9.99706e-01,3.98943e-01,9.99999e-01
7.649763693e-01,4.06176e-01,9.99999e-01,9.99999e-01,9.99815e-01,4.06251e-01,9.99999e-01
7.688012511e-01,4.13491e-01,9.99999e-01,9.99999e-01,9.99871e-01,4.13544e-01,9.99999e-01
7.726452574e-01,4.20775e-01,9.99999e-01,9.99999e-01,9.99893e-01,4.20820e-01,9.99999e-01
7.765084837e-01,4.28012e-01,9.99999e-01,9.99999e-01,9.99848e-01,4.28076e-01,9.99999e-01
7.803910261e-01,4.17720e-01,9.99999e-01,9.60192e-01,9.99345e-01,4.35311e-01,9.99999e-01
7.842929812e-01,3.71006e-01,9.99999e-01,8.40202e-01,9.97718e-01,4.42521e-01,9.99999e-01
7.882144461e-01,3.71236e-01,9.99999e-01,8.29202e-01,9.95335e-01,4.49705e-01,9.99999e-01
7.921555184e-01,4.08348e-01,9.99999e-01,8.96035e-01,9.97450e-01,4.56860e-01,9.99999e-01
7.961162960e-01,4.29343e-01,9.99999e-01,9.29518e-01,9.95456e-01,4.63985e-01,9.99999e-01
8.000968774e-01,4.50391e-01,9.99999e-01,9.61092e-01,9.94777e-01,4.71076e-01,9.99999e-01
8.040973618e-01,4.65992e-01,9.99999e-01,9.79719e-01,9.94770e-01,4.78132e-01,9.99999e-01
8.081178486e-01,4.74926e-01,9.99999e-01,9.90608e-01,9.88183e-01,4.85152e-01,9.99999e-01
8.121584379e-01,4.67023e-01,9.99999e-01,9.97114e-01,9.51691e-01,4.92133e-01,9.99998e-01
8.162192301e-01,4.70504e-01,9.99999e-01,9.99361e-01,9.43343e-01,4.99074e-01,9.99998e-01
8.203003262e-01,4.91284e-01,9.99999e-01,9.99990e-01,9.70978e-01,5.05972e-01,9.99998e-01
8.244018279e-01,4.92550e-01,9.99999e-01,9.99999e-01,9.60460e-01,5.12827e-01,9.99998e-01
8.285238370e-01,5.01781e-01,9.99999e-01,9.99999e-01,9.65638e-01,5.19637e-01,9.99998e-01
8.326664562e-01,5.08176e-01,9.99999e-01,9.99999e-01,9.65381e-01,5.26399e-01,9.99999e-01
8.368297885e-01,5.19889e-01,9.99999e-01,9.99999e-01,9.75192e-01,5.33114e-01,9.99999e-01
8.410139374e-01,5.31788e-01,9.99999e-01,9.99999e-01,9.85196e-01,5.39779e-01,9.99999e-01
8.452190071e-01,5.42418e-01,9.99999e-01,9.99999e-01,9.92723e-01,5.46393e-01,9.99999e-01
8.494451021e-01,5.50612e-01,9.99999e-01,9.99999e-01,9.95760e-01,5.52956e-01,9.99999e-01
8.536923276e-01,5.58065e-01,9.99999e-01,9.99999e-01,9.97498e-01,5.59465e-01,9.99999e-01
8.579607893e-01,5.65046e-01,9.99999e-01,9.99999e-01,9.98455e-01,5.65920e-01,9.99999e-01
8.622505932e-01,5.71759e-01,9.99999e-01,9.99999e-01,9.99020e-01,5.72320e-01,9.99999e-01
8.665618462e-01,5.29911e-01,9.99999e-01,9.16281e-01,9.99391e-01,5.78663e-01,9.99999e-01
8.708946554e-01,3.75462e-01,9.99999e-01,6.42299e-01,9.99302e-01,5.84950e-01,9.99999e-01
8.752491287e-01,4.13473e-01,9.99999e-01,7.00035e-01,9.99067e-01,5.91178e-01,9.99999e-01
8.796253743e-01,4.90294e-01,9.99999e-01,8.21811e-01,9.98706e-01,5.97348e-01,9.99999e-01
8.840235012e-01,5.44192e-01,9.99999e-01,9.03098e-01,9.98523e-01,6.03459e-01,9.99999e-01
8.884436187e-01,5.82432e-01,9.99999e-01,9.60758e-01,9.94543e-01,6.09509e-01,9.99999e-01
8.928858368e-01,5.72040e-01,9.99999e-01,9.83883e-01,9.44461e-01,6.15499e-01,9.99998e-01
8.973502660e-01,5.59947e-01,9.99999e-01,9.96081e-01,9.04527e-01,6.21428e-01,9.99998e-01
9.018370173e-01,5.95921e-01,9.99999e-01,9.99568e-01,9.50382e-01,6.27295e-01,9.99998e-01
9.063462024e-01,5.98408e-01,9.99999e-01,9.88672e-01,9.55642e-01,6.33100e-01,9.99997e-01
9.108779334e-01,5.80482e-01,9.99999e-01,9.74640e-01,9.31951e-01,6.38842e-01,9.99997e-01
9.154323231e-01,5.91546e-01,9.99999e-01,9.94042e-01,9.23173e-01,6.44522e-01,9.99997e-01
9.200094847e-01,5.61420e-01,9.99999e-01,9.15786e-01,9.39437e-01,6.50138e-01,9.99996e-01
9.246095321e-01,5.24975e-01,9.99999e-01,8.81799e-01,9.05605e-01,6.55691e-01,9.99995e-01
9.292325798e-01,3.15513e-01,9.99999e-01,9.05487e-01,5.20787e-01,6.61180e-01,9.99989e-01
9.338787427e-01,2.66141e-01,9.99999e-01,9.09127e-01,4.34291e-01,6.66606e-01,9.99987e-01
9.385481364e-01,4.49507e-01,9.99999e-01,9.32315e-01,7.14243e-01,6.71967e-01,9.99987e-01
9.432408771e-01,4.06985e-01,9.99999e-01,9.58077e-01,6.25549e-01,6.77264e-01,9.99985e-01
9.479570815e-01,3.51108e-01,9.99999e-01,9.78231e-01,5.25180e-01,6.82498e-01,9.99987e-01
9.526968669e-01,4.20052e-01,9.99999e-01,9.89464e-01,6.16704e-01,6.87667e-01,9.99990e-01
9.574603512e-01,4.40551e-01,9.99999e-01,9.95485e-01,6.38594e-01,6.92772e-01,9.99992e-01
9.622476530e-01,4.83803e-01,9.99999e-01,9.98591e-01,6.94227e-01,6.97813e-01,9.99994e-01
9.670588912e-01,5.68956e-01,9.99999e-01,9.99578e-01,8.09891e-01,7.02790e-01,9.99996e-01
9.718941857e-01,6.19988e-01,9.99999e-01,9.99970e-01,8.76081e-01,7.07703e-01,9.99997e-01
9.767536566e-01,6.38417e-01,9.99999e-01,9.99999e-01,8.95958e-01,7.12553e-01,9.99998e-01
9.816374249e-01,6.61345e-01,9.99999e-01,9.99999e-01,9.21942e-01,7.17339e-01,9.99998e-01
9.865456120e-01,6.86318e-01,9.99999e-01,9.99999e-01,9.50497e-01,7.22061e-01,9.99999e-01
9.914783401e-01,7.04260e-01,9.99999e-01,9.99999e-01,9.69092e-01,7.26721e-01,9.99999e-01
9.964357318e-01,7.18925e-01,9.99999e-01,9.99999e-01,9.83054e-01,7.31317e-01,9.99999e-01
1.001417910e+00,7.28356e-01,9.99999e-01,9.99999e-01,9.89814e-01,7.35851e-01,9.99999e-01
1.006425000e+00,7.36009e-01,9.99999e-01,9.99999e-01,9.94172e-01,7.40323e-01,9.99999e-01
1.011457125e+00,7.42042e-01,9.99999e-01,9.99999e-01,9.96386e-01,7.44733e-01,9.99999e-01
1.016514411e+00,7.47241e-01,9.99999e-01,9.99999e-01,9.97543e-01,7.49081e-01,9.99999e-01
1.021596983e+00,7.51842e-01,9.99999e-01,9.99932e-01,9.98040e-01,7.53368e-01,9.99999e-01
1.026704968e+00,7.53073e-01,9.99999e-01,9.95551e-01,9.98471e-01,7.57594e-01,9.99999e-01
1.031838492e+00,7.21436e-01,9.99999e-01,9.48079e-01,9.98890e-01,7.61760e-01,9.99999e-01
1.036997685e+00,1.00528e-01,9.99999e-01,1.31329e-01,9.99339e-01,7.65865e-01,9.99999e-01
1.042182673e+00,6.78630e-02,9.99999e-01,8.82047e-02,9.99210e-01,7.69911e-01,9.99999e-01
1.047393587e+00,8.58336e-02,9.99999e-01,1.11012e-01,9.98954e-01,7.73898e-01,9.99999e-01
1.052630555e+00,1.47759e-03,9.99999e-01,1.90160e-03,9.98564e-01,7.77826e-01,9.99999e-01
1.057893707e+00,4.12137e-03,9.99999e-01,5.28062e-03,9.97600e-01,7.81696e-01,9.99999e-01
1.063183176e+00,1.61248e-02,9.99999e-01,2.05843e-02,9.96057e-01,7.85508e-01,9.99999e-01
1.068499092e+00,5.10804e-02,9.99999e-01,6.50714e-02,9.93413e-01,7.89263e-01,9.99999e-01
1.073841587e+00,1.40314e-01,9.99999e-01,1.78103e-01,9.92283e-01,7.92961e-01,9.99999e-01
1.079210795e+00,2.64669e-01,9.99999e-01,3.35218e-01,9.90147e-01,7.96603e-01,9.99999e-01
1.084606849e+00,4.31833e-01,9.99999e-01,5.47397e-01,9.85099e-01,8.00189e-01,9.99999e-01
1.090029883e+00,5.75290e-01,9.99999e-01,7.30965e-01,9.78560e-01,8.03720e-01,9.99998e-01
1.095480033e+00,6.52660e-01,9.99999e-01,8.57038e-01,9.42734e-01,8.07196e-01,9.99998e-01
1.100957433e+00,6.48458e-01,9.99999e-01,9.28315e-01,8.60954e-01,8.10618e-01,9.99996e-01
1.106462220e+00,5.40869e-01,9.99999e-01,9.69744e-01,6.84327e-01,8.13987e-01,9.99993e-01
1.111994531e+00,3.66960e-01,9.99999e-01,9.88676e-01,4.53712e-01,8.17303e-01,9.99988e-01
1.117554504e+00,2.29820e-01,9.99999e-01,9.97235e-01,2.80693e-01,8.20566e-01,9.99983e-01
1.123142276e+00,3.29104e-01,9.99999e-01,9.99819e-01,3.99543e-01,8.23778e-01,9.99980e-01
1.128757988e+00,4.54735e-01,9.99999e-01,9.99999e-01,5.49912e-01,8.26938e-01,9.99979e-01
1.134401778e+00,2.48393e-01,9.99999e-01,9.99999e-01,2.99258e-01,8.30048e-01,9.99976e-01
1.140073787e+00,5.80953e-01,9.99999e-01,9.99999e-01,6.97345e-01,8.33108e-01,9.99981e-01
1.145774156e+00,3.98093e-01,9.99999e-01,9.99999e-01,4.76127e-01,8.36118e-01,9.99983e-01
1.151503026e+00,3.67977e-01,9.99999e-01,9.99999e-01,4.38554e-01,8.39079e-01,9.99986e-01
1.157260541e+00,4.19483e-01,9.99999e-01,9.99999e-01,4.98208e-01,8.41992e-01,9.99989e-01
1.163046844e+00,5.04704e-01,9.99999e-01,9.99999e-01,5.97387e-01,8.44857e-01,9.99993e-01
1.168862078e+00,5.91728e-01,9.99999e-01,9.99999e-01,6.98062e-01,8.47675e-01,9.99996e-01
1.174706389e+00,6.81177e-01,9.99999e-01,9.99999e-01,8.00964e-01,8.50447e-01,9.99997e-01
1.180579921e+00,7.45290e-01,9.99999e-01,9.99999e-01,8.73551e-01,8.53172e-01,9.99998e-01
1.186482820e+00,7.92826e-01,9.99999e-01,9.99989e-01,9.26366e-01,8.55852e-01,9.99998e-01
1.192415234e+00,8.08171e-01,9.99999e-01,9.84191e-01,9.56311e-01,8.58488e-01,9.99998e-01
1.198377311e+00,4.64361e-01,9.99999e-01,5.56520e-01,9.63002e-01,8.61079e-01,9.99998e-01
1.204369197e+00,1.04092e-12,9.99999e-01,1.23036e-12,9.64988e-01,8.63627e-01,9.99998e-01
1.210391043e+00,3.72758e-47,9.99999e-01,4.38593e-47,9.66495e-01,8.66132e-01,9.99999e-01
1.216442998e+00,5.38467e-41,9.99999e-01,6.31146e-41,9.71474e-01,8.68594e-01,9.99999e-01
1.222525213e+00,2.13034e-40,9.99999e-01,2.47439e-40,9.77706e-01,8.71014e-01,9.99999e-01
1.228637839e+00,2.69996e-31,9.99999e-01,3.12485e-31,9.84459e-01,8.73393e-01,9.99999e-01
