#,Wave/freq,Total,O2,CO2,H2O,Rayleigh,CIA
4.000000000e-01,2.68342e-04,9.99999e-01,9.99999e-01,9.99983e-01,2.68347e-04,9.99999e-01
4.020000000e-01,3.15724e-04,9.99999e-01,9.99999e-01,9.99989e-01,3.15727e-04,9.99999e-01
4.040100000e-01,3.70218e-04,9.99999e-01,9.99999e-01,9.99995e-01,3.70219e-04,9.99999e-01
4.060300500e-01,4.32753e-04,9.99999e-01,9.99999e-01,9.99998e-01,4.32753e-04,9.99999e-01
4.080602003e-01,5.04293e-04,9.99999e-01,9.99999e-01,9.99999e-01,5.04293e-04,9.99999e-01
4.101005013e-01,5.85886e-04,9.99999e-01,9.99999e-01,9.99999e-01,5.85886e-04,9.99999e-01
4.121510038e-01,6.78667e-04,9.99999e-01,9.99999e-01,9.99998e-01,6.78667e-04,9.99999e-01
4.142117588e-01,7.83858e-04,9.99999e-01,9.99999e-01,9.99995e-01,7.83862e-04,9.99999e-01
4.162828176e-01,9.02770e-04,9.99999e-01,9.99999e-01,9.99979e-01,9.02788e-04,9.99999e-01
4.183642317e-01,1.03685e-03,9.99999e-01,9.99999e-01,9.99987e-01,1.03686e-03,9.99999e-01
4.204560528e-01,1.18758e-03,9.99999e-01,9.99999e-01,9.99992e-01,1.18759e-03,9.99999e-01
4.225583331e-01,1.35659e-03,9.99999e-01,9.99999e-01,9.99996e-01,1.35659e-03,9.99999e-01
4.246711247e-01,1.54558e-03,9.99999e-01,9.99999e-01,9.99997e-01,1.54558e-03,9.99999e-01
4.267944804e-01,1.75636e-03,9.99999e-01,9.99999e-01,9.99996e-01,1.75636e-03,9.99999e-01
4.289284528e-01,1.99085e-03,9.99999e-01,9.99999e-01,9.99997e-01,1.99085e-03,9.99999e-01
4.310730950e-01,2.25107e-03,9.99999e-01,9.99999e-01,9.99998e-01,2.25108e-03,9.99999e-01
4.332284605e-01,2.53914e-03,9.99999e-01,9.99999e-01,9.99999e-01,2.53914e-03,9.99999e-01
4.353946028e-01,2.85727e-03,9.99999e-01,9.99999e-01,9.99999e-01,2.85727e-03,9.99999e-01
4.375715758e-01,3.20776e-03,9.99999e-01,9.99999e-01,9.99997e-01,3.20776e-03,9.99999e-01
4.397594337e-01,3.59297e-03,9.99999e-01,9.99999e-01,9.99982e-01,3.59303e-03,9.99999e-01
4.419582309e-01,4.01521e-03,9.99999e-01,9.99999e-01,9.99911e-01,4.01556e-03,9.99999e-01
4.441680220e-01,4.47763e-03,9.99999e-01,9.99999e-01,9.99929e-01,4.47794e-03,9.99999e-01
4.463888621e-01,4.98246e-03,9.99999e-01,9.99999e-01,9.99927e-01,4.98282e-03,9.99999e-01
4.486208064e-01,5.53269e-03,9.99999e-01,9.99999e-01,9.99954e-01,5.53294e-03,9.99999e-01
4.508639105e-01,6.13097e-03,9.99999e-01,9.99999e-01,9.99978e-01,6.13110e-03,9.99999e-01
4.531182300e-01,6.78010e-03,9.99999e-01,9.99999e-01,9.99991e-01,6.78016e-03,9.99999e-01
4.553838212e-01,7.48300e-03,9.99999e-01,9.99999e-01,9.99993e-01,7.48304e-03,9.99999e-01
4.576607403e-01,8.24270e-03,9.99999e-01,9.99999e-01,9.99996e-01,8.24272e-03,9.99999e-01
4.599490440e-01,9.06217e-03,9.99999e-01,9.99999e-01,9.99997e-01,9.06219e-03,9.99999e-01
4.622487892e-01,9.94449e-03,9.99999e-01,9.99999e-01,9.99999e-01,9.94450e-03,9.99999e-01
4.645600332e-01,1.08927e-02,9.99999e-01,9.99999e-01,9.99998e-01,1.08927e-02,9.99999e-01
4.668828333e-01,1.19096e-02,9.99999e-01,9.99999e-01,9.99978e-01,1.19099e-02,9.99999e-01
4.692172475e-01,1.29985e-02,9.99999e-01,9.99999e-01,9.99954e-01,1.29991e-02,9.99999e-01
4.715633337e-01,1.41630e-02,9.99999e-01,9.99999e-01,9.99969e-01,1.41634e-02,9.99999e-01
4.739211504e-01,1.54054e-02,9.99999e-01,9.99999e-01,9.99971e-01,1.54059e-02,9.99999e-01
4.762907561e-01,1.67293e-02,9.99999e-01,9.99999e-01,9.99984e-01,1.67295e-02,9.99999e-01
4.786722099e-01,1.81373e-02,9.99999e-01,9.99999e-01,9.99993e-01,1.81374e-02,9.99999e-01
4.810655710e-01,1.96323e-02,9.99999e-01,9.99999e-01,9.99997e-01,1.96323e-02,9.99999e-01
4.834708988e-01,2.12169e-02,9.99999e-01,9.99999e-01,9.99982e-01,2.12173e-02,9.99999e-01
4.858882533e-01,2.28943e-02,9.99999e-01,9.99999e-01,9.99967e-01,2.28951e-02,9.99999e-01
4.883176946e-01,2.46678e-02,9.99999e-01,9.99999e-01,9.99972e-01,2.46684e-02,9.99999e-01
4.907592831e-01,2.65393e-02,9.99999e-01,9.99999e-01,9.99975e-01,2.65400e-02,9.99999e-01
4.932130795e-01,2.85118e-02,9.99999e-01,9.99999e-01,9.99982e-01,2.85123e-02,9.99999e-01
4.956791449e-01,3.05876e-02,9.99999e-01,9.99999e-01,9.99990e-01,3.05879e-02,9.99999e-01
4.981575406e-01,3.27675e-02,9.99999e-01,9.99999e-01,9.99954e-01,3.27690e-02,9.99999e-01
5.006483283e-01,3.50539e-02,9.99999e-01,9.99999e-01,9.99882e-01,3.50580e-02,9.99999e-01
5.031515699e-01,3.74344e-02,9.99999e-01,9.99999e-01,9.99401e-01,3.74568e-02,9.99999e-01
5.056673278e-01,3.99549e-02,9.99999e-01,9.99999e-01,9.99683e-01,3.99675e-02,9.99999e-01
5.081956644e-01,4.25749e-02,9.99999e-01,9.99999e-01,9.99600e-01,4.25919e-02,9.99999e-01
5.107366428e-01,4.53194e-02,9.99999e-01,9.99999e-01,9.99730e-01,4.53316e-02,9.99999e-01
5.132903260e-01,4.81807e-02,9.99999e-01,9.99999e-01,9.99845e-01,4.81882e-02,9.99999e-01
5.158567776e-01,5.11596e-02,9.99999e-01,9.99999e-01,9.99934e-01,5.11630e-02,9.99999e-01
5.184360615e-01,5.42557e-02,9.99999e-01,9.99999e-01,9.99973e-01,5.42571e-02,9.99999e-01
5.210282418e-01,5.74712e-02,9.99999e-01,9.99999e-01,9.99989e-01,5.74718e-02,9.99999e-01
5.236333830e-01,6.08053e-02,9.99999e-01,9.99999e-01,9.99960e-01,6.08077e-02,9.99999e-01
5.262515499e-01,6.42640e-02,9.99999e-01,9.99999e-01,9.99975e-01,6.42655e-02,9.99999e-01
5.288828077e-01,6.78444e-02,9.99999e-01,9.99999e-01,9.99977e-01,6.78459e-02,9.99999e-01
5.315272217e-01,7.15476e-02,9.99999e-01,9.99999e-01,9.99979e-01,7.15490e-02,9.99999e-01
5.341848578e-01,7.53742e-02,9.99999e-01,9.99999e-01,9.99986e-01,7.53752e-02,9.99999e-01
5.368557821e-01,7.93206e-02,9.99999e-01,9.99999e-01,9.99954e-01,7.93242e-02,9.99999e-01
5.395400610e-01,8.33824e-02,9.99999e-01,9.99999e-01,9.99836e-01,8.33960e-02,9.99999e-01
5.422377613e-01,8.75716e-02,9.99999e-01,9.99999e-01,9.99787e-01,8.75902e-02,9.99999e-01
5.449489501e-01,9.18881e-02,9.99999e-01,9.99999e-01,9.99803e-01,9.19061e-02,9.99999e-01
5.476736949e-01,9.63263e-02,9.99999e-01,9.99999e-01,9.99824e-01,9.63432e-02,9.99999e-01
5.504120634e-01,1.00888e-01,9.99999e-01,9.99999e-01,9.99872e-01,1.00900e-01,9.99999e-01
5.531641237e-01,1.05570e-01,9.99999e-01,9.99999e-01,9.99935e-01,1.05577e-01,9.99999e-01
5.559299443e-01,1.10368e-01,9.99999e-01,9.99999e-01,9.99968e-01,1.10371e-01,9.99999e-01
5.587095940e-01,1.15280e-01,9.99999e-01,9.99999e-01,9.99980e-01,1.15282e-01,9.99999e-01
5.615031420e-01,1.20305e-01,9.99999e-01,9.99999e-01,9.99978e-01,1.20308e-01,9.99999e-01
5.643106577e-01,1.25444e-01,9.99999e-01,9.99999e-01,9.99975e-01,1.25447e-01,9.99999e-01
5.671322110e-01,1.30659e-01,9.99999e-01,9.99999e-01,9.99706e-01,1.30698e-01,9.99999e-01
5.699678720e-01,1.36015e-01,9.99999e-01,9.99999e-01,9.99683e-01,1.36058e-01,9.99999e-01
5.728177114e-01,1.41479e-01,9.99999e-01,9.99999e-01,9.99672e-01,1.41526e-01,9.99999e-01
5.756818000e-01,1.47054e-01,9.99999e-01,9.99999e-01,9.99698e-01,1.47098e-01,9.99999e-01
5.785602090e-01,1.52734e-01,9.99999e-01,9.99999e-01,9.99737e-01,1.52774e-01,9.99999e-01
5.814530100e-01,1.58509e-01,9.99999e-01,9.99999e-01,9.99736e-01,1.58550e-01,9.99999e-01
5.843602750e-01,1.64373e-01,9.99999e-01,9.99999e-01,9.99687e-01,1.64424e-01,9.99999e-01
5.872820764e-01,1.69934e-01,9.99999e-01,9.99999e-01,9.97304e-01,1.70393e-01,9.99999e-01
5.902184868e-01,1.75876e-01,9.99999e-01,9.99999e-01,9.96718e-01,1.76455e-01,9.99999e-01
5.931695792e-01,1.82183e-01,9.99999e-01,9.99999e-01,9.97684e-01,1.82605e-01,9.99999e-01
5.961354271e-01,1.88363e-01,9.99999e-01,9.99999e-01,9.97459e-01,1.88843e-01,9.99999e-01
5.991161043e-01,1.94802e-01,9.99999e-01,9.99999e-01,9.98145e-01,1.95164e-01,9.99999e-01
6.021116848e-01,2.01353e-01,9.99999e-01,9.99999e-01,9.98946e-01,2.01565e-01,9.99999e-01
6.051222432e-01,2.07933e-01,9.99999e-01,9.99999e-01,9.99466e-01,2.08044e-01,9.99999e-01
6.081478544e-01,2.14548e-01,9.99999e-01,9.99999e-01,9.99769e-01,2.14597e-01,9.99999e-01
6.111885937e-01,2.21199e-01,9.99999e-01,9.99999e-01,9.99902e-01,2.21221e-01,9.99999e-01
6.142445367e-01,2.27902e-01,9.99999e-01,9.99999e-01,9.99956e-01,2.27912e-01,9.99999e-01
6.173157594e-01,2.34662e-01,9.99999e-01,9.99999e-01,9.99975e-01,2.34667e-01,9.99999e-01
6.204023382e-01,2.41479e-01,9.99999e-01,9.99999e-01,9.99979e-01,2.41484e-01,9.99999e-01
6.235043498e-01,2.48336e-01,9.99999e-01,9.99999e-01,9.99911e-01,2.48357e-01,9.99999e-01
6.266218716e-01,2.55165e-01,9.99999e-01,9.99999e-01,9.99528e-01,2.55285e-01,9.99999e-01
6.297549810e-01,2.62219e-01,9.99999e-01,9.99999e-01,9.99826e-01,2.62264e-01,9.99999e-01
6.329037559e-01,2.69198e-01,9.99999e-01,9.99999e-01,9.99657e-01,2.69290e-01,9.99999e-01
6.360682746e-01,2.76279e-01,9.99999e-01,9.99999e-01,9.99708e-01,2.76360e-01,9.99999e-01
6.392486160e-01,2.83363e-01,9.99999e-01,9.99999e-01,9.99622e-01,2.83470e-01,9.99999e-01
6.424448591e-01,2.90471e-01,9.99999e-01,9.99999e-01,9.99497e-01,2.90617e-01,9.99999e-01
6.456570834e-01,2.97103e-01,9.99999e-01,9.99999e-01,9.97665e-01,2.97798e-01,9.99999e-01
6.488853688e-01,3.04485e-01,9.99999e-01,9.99999e-01,9.98280e-01,3.05009e-01,9.99999e-01
6.521297956e-01,3.11700e-01,9.99999e-01,9.99999e-01,9.98246e-01,3.12248e-01,9.99999e-01
6.553904446e-01,3.18956e-01,9.99999e-01,9.99999e-01,9.98267e-01,3.19510e-01,9.99999e-01
6.586673968e-01,3.26304e-01,9.99999e-01,9.99999e-01,9.98505e-01,3.26792e-01,9.99999e-01
6.619607338e-01,3.33804e-01,9.99999e-01,9.99999e-01,9.99135e-01,3.34092e-01,9.99999e-01
6.652705375e-01,3.41235e-01,9.99999e-01,9.99999e-01,9.99498e-01,3.41406e-01,9.99999e-01
6.685968902e-01,3.48650e-01,9.99999e-01,9.99999e-01,9.99767e-01,3.48731e-01,9.99999e-01
6.719398746e-01,3.56025e-01,9.99999e-01,9.99999e-01,9.99891e-01,3.56063e-01,9.99999e-01
6.752995740e-01,3.63379e-01,9.99999e-01,9.99999e-01,9.99941e-01,3.63400e-01,9.99999e-01
6.786760719e-01,3.70708e-01,9.99999e-01,9.99999e-01,9.99915e-01,3.70739e-01,9.99999e-01
6.820694522e-01,3.78023e-01,9.99999e-01,9.99999e-01,9.99855e-01,3.78077e-01,9.99999e-01
6.854797995e-01,3.85340e-01,9.99999e-01,9.99999e-01,9.99814e-01,3.85411e-01,9.99999e-01
6.889071985e-01,3.92564e-01,9.99999e-01,9.99999e-01,9.99554e-01,3.92739e-01,9.99999e-01
6.923517345e-01,3.97136e-01,9.99999e-01,9.99999e-01,9.92700e-01,4.00056e-01,9.99999e-01
6.958134932e-01,4.05796e-01,9.99999e-01,9.99999e-01,9.96156e-01,4.07362e-01,9.99999e-01
6.992925606e-01,4.13155e-01,9.99999e-01,9.99999e-01,9.96389e-01,4.14652e-01,9.99999e-01
7.027890234e-01,4.20037e-01,9.99999e-01,9.99999e-01,9.95523e-01,4.21925e-01,9.99999e-01
7.063029686e-01,4.27564e-01,9.99999e-01,9.99999e-01,9.96237e-01,4.29179e-01,9.99999e-01
7.098344834e-01,4.34835e-01,9.99999e-01,9.99999e-01,9.96390e-01,4.36410e-01,9.99999e-01
7.133836558e-01,4.41497e-01,9.99999e-01,9.99999e-01,9.95221e-01,4.43616e-01,9.99999e-01
7.169505741e-01,4.33643e-01,9.99999e-01,9.99999e-01,9.61949e-01,4.50796e-01,9.99999e-01
7.205353270e-01,4.49261e-01,9.99999e-01,9.99999e-01,9.81033e-01,4.57946e-01,9.99999e-01
7.241380036e-01,4.53985e-01,9.99999e-01,9.99999e-01,9.76173e-01,4.65066e-01,9.99998e-01
7.277586936e-01,4.61984e-01,9.99999e-01,9.99999e-01,9.78463e-01,4.72152e-01,9.99999e-01
7.313974871e-01,4.68205e-01,9.99999e-01,9.99999e-01,9.77048e-01,4.79203e-01,9.99999e-01
7.350544745e-01,4.80100e-01,9.99999e-01,9.99999e-01,9.87419e-01,4.86217e-01,9.99999e-01
7.387297469e-01,4.88620e-01,9.99999e-01,9.99999e-01,9.90728e-01,4.93192e-01,9.99999e-01
7.424233956e-01,4.97851e-01,9.99999e-01,9.99999e-01,9.95449e-01,5.00126e-01,9.99999e-01
7.461355126e-01,5.05621e-01,9.99999e-01,9.99999e-01,9.97243e-01,5.07018e-01,9.99999e-01
7.498661902e-01,5.13206e-01,9.99999e-01,9.99999e-01,9.98713e-01,5.13866e-01,9.99999e-01
7.536155211e-01,5.20341e-01,9.99999e-01,9.99999e-01,9.99369e-01,5.20669e-01,9.99999e-01
7.573835987e-01,5.27253e-01,9.99999e-01,9.99999e-01,9.99675e-01,5.27424e-01,9.99999e-01
7.611705167e-01,5.34024e-01,9.99999e-01,9.99999e-01,9.99798e-01,5.34131e-01,9.99999e-01
7.649763693e-01,5.40721e-01,9.99999e-01,9.99999e-01,9.99873e-01,5.40789e-01,9.99999e-01
7.688012511e-01,5.47347e-01,9.99999e-01,9.99999e-01,9.99911e-01,5.47395e-01,9.99999e-01
7.726452574e-01,5.53910e-01,9.99999e-01,9.99999e-01,9.99927e-01,5.53950e-01,9.99999e-01
7.765084837e-01,5.60393e-01,9.99999e-01,9.99999e-01,9.99897e-01,5.60451e-01,9.99999e-01
7.803910261e-01,5.51495e-01,9.99999e-01,9.73249e-01,9.99558e-01,5.66897e-01,9.99999e-01
7.842929812e-01,5.07164e-01,9.99999e-01,8.85968e-01,9.98459e-01,5.73288e-01,9.99999e-01
7.882144461e-01,5.07706e-01,9.99999e-01,8.78632e-01,9.96814e-01,5.79623e-01,9.99999e-01
7.921555184e-01,5.42650e-01,9.99999e-01,9.27775e-01,9.98247e-01,5.85901e-01,9.99999e-01
7.961162960e-01,5.61339e-01,9.99999e-01,9.50918e-01,9.96922e-01,5.92121e-01,9.99999e-01
8.000968774e-01,5.80131e-01,9.99999e-01,9.73122e-01,9.96434e-01,5.98282e-01,9.99999e-01
8.040973618e-01,5.93778e-01,9.99999e-01,9.85960e-01,9.96436e-01,6.04383e-01,9.99999e-01
8.081178486e-01,6.01643e-01,9.99999e-01,9.93547e-01,9.92005e-01,6.10425e-01,9.99999e-01
8.121584379e-01,5.94872e-01,9.99999e-01,9.97993e-01,9.66989e-01,6.16405e-01,9.99999e-01
8.162192301e-01,5.97608e-01,9.99999e-01,9.99556e-01,9.60703e-01,6.22325e-01,9.99998e-01
8.203003262e-01,6.15842e-01,9.99999e-01,9.99992e-01,9.80361e-01,6.28182e-01,9.99998e-01
8.244018279e-01,6.16380e-01,9.99999e-01,9.99999e-01,9.72242e-01,6.33978e-01,9.99998e-01
8.285238370e-01,6.24659e-01,9.99999e-01,9.99999e-01,9.76470e-01,6.39711e-01,9.99999e-01
8.326664562e-01,6.29992e-01,9.99999e-01,9.99999e-01,9.76156e-01,6.45381e-01,9.99999e-01
8.368297885e-01,6.39865e-01,9.99999e-01,9.99999e-01,9.82915e-01,6.50987e-01,9.99999e-01
8.410139374e-01,6.49845e-01,9.99999e-01,9.99999e-01,9.89817e-01,6.56530e-01,9.99999e-01
8.452190071e-01,6.58696e-01,9.99999e-01,9.99999e-01,9.94993e-01,6.62010e-01,9.99999e-01
8.494451021e-01,6.65490e-01,9.99999e-01,9.99999e-01,9.97099e-01,6.67426e-01,9.99999e-01
8.536923276e-01,6.71621e-01,9.99999e-01,9.99999e-01,9.98280e-01,6.72777e-01,9.99999e-01
8.579607893e-01,6.77348e-01,9.99999e-01,9.99999e-01,9.98942e-01,6.78065e-01,9.99999e-01
8.622505932e-01,6.82829e-01,9.99999e-01,9.99999e-01,9.99327e-01,6.83288e-01,9.99999e-01
8.665618462e-01,6.44556e-01,9.99999e-01,9.36620e-01,9.99584e-01,6.88448e-01,9.99999e-01
8.708946554e-01,5.09233e-01,9.99999e-01,7.34586e-01,9.99525e-01,6.93543e-01,9.99999e-01
8.752491287e-01,5.44900e-01,9.99999e-01,7.80500e-01,9.99364e-01,6.98574e-01,9.99999e-01
8.796253743e-01,6.13761e-01,9.99999e-01,8.73135e-01,9.99121e-01,7.03542e-01,9.99999e-01
8.840235012e-01,6.59776e-01,9.99999e-01,9.32225e-01,9.98996e-01,7.08445e-01,9.99999e-01
8.884436187e-01,6.91306e-01,9.99999e-01,9.72689e-01,9.96371e-01,7.13285e-01,9.99999e-01
8.928858368e-01,6.83194e-01,9.99999e-01,9.88867e-01,9.62080e-01,7.18061e-01,9.99998e-01
8.973502660e-01,6.72904e-01,9.99999e-01,9.97276e-01,9.33503e-01,7.22774e-01,9.99998e-01
9.018370173e-01,7.02012e-01,9.99999e-01,9.99698e-01,9.65349e-01,7.27424e-01,9.99998e-01
9.063462024e-01,7.04602e-01,9.99999e-01,9.92423e-01,9.69721e-01,7.32011e-01,9.99998e-01
9.108779334e-01,6.89784e-01,9.99999e-01,9.82503e-01,9.53039e-01,7.36536e-01,9.99998e-01
9.154323231e-01,6.98706e-01,9.99999e-01,9.95846e-01,9.46792e-01,7.40998e-01,9.99998e-01
9.200094847e-01,6.73368e-01,9.99999e-01,9.41252e-01,9.58008e-01,7.45398e-01,9.99997e-01
9.246095321e-01,6.44117e-01,9.99999e-01,9.17213e-01,9.35493e-01,7.49737e-01,9.99996e-01
9.292325798e-01,4.51988e-01,9.99999e-01,9.34745e-01,6.37519e-01,7.54015e-01,9.99993e-01
9.338787427e-01,3.98289e-01,9.99999e-01,9.36603e-01,5.57565e-01,7.58232e-01,9.99991e-01
9.385481364e-01,5.75438e-01,9.99999e-01,9.53066e-01,7.90147e-01,7.62388e-01,9.99991e-01
9.432408771e-01,5.37265e-01,9.99999e-01,9.70973e-01,7.20940e-01,7.66485e-01,9.99990e-01
9.479570815e-01,4.83282e-01,9.99999e-01,9.85026e-01,6.36320e-01,7.70522e-01,9.99991e-01
9.526968669e-01,5.47917e-01,9.99999e-01,9.92745e-01,7.12233e-01,7.74499e-01,9.99993e-01
9.574603512e-01,5.69116e-01,9.99999e-01,9.96891e-01,7.33278e-01,7.78419e-01,9.99994e-01
9.622476530e-01,6.07150e-01,9.99999e-01,9.99028e-01,7.76849e-01,7.82280e-01,9.99996e-01
9.670588912e-01,6.79585e-01,9.99999e-01,9.99708e-01,8.64763e-01,7.86083e-01,9.99997e-01
9.718941857e-01,7.21411e-01,9.99999e-01,9.99978e-01,9.13394e-01,7.89829e-01,9.99998e-01
9.767536566e-01,7.36060e-01,9.99999e-01,9.99999e-01,9.27590e-01,7.93519e-01,9.99998e-01
9.816374249e-01,7.53930e-01,9.99999e-01,9.99999e-01,9.45779e-01,7.97152e-01,9.99998e-01
9.865456120e-01,7.73329e-01,9.99999e-01,9.99999e-01,9.65780e-01,8.00730e-01,9.99999e-01
9.914783401e-01,7.87141e-01,9.99999e-01,9.99999e-01,9.78723e-01,8.04252e-01,9.99999e-01
9.964357318e-01,7.98317e-01,9.99999e-01,9.99999e-01,9.88357e-01,8.07720e-01,9.99999e-01
1.001417910e+00,8.05462e-01,9.99999e-01,9.99999e-01,9.93006e-01,8.11134e-01,9.99999e-01
1.006425000e+00,8.11248e-01,9.99999e-01,9.99999e-01,9.96012e-01,8.14495e-01,9.99999e-01
1.011457125e+00,8.15775e-01,9.99999e-01,9.99999e-01,9.97520e-01,8.17803e-01,9.99999e-01
1.016514411e+00,8.19677e-01,9.99999e-01,9.99999e-01,9.98317e-01,8.21058e-01,9.99999e-01
1.021596983e+00,8.23126e-01,9.99999e-01,9.99961e-01,9.98659e-01,8.24262e-01,9.99999e-01
1.026704968e+00,8.24114e-01,9.99999e-01,9.97050e-01,9.98954e-01,8.27415e-01,9.99999e-01
1.031838492e+00,7.99862e-01,9.99999e-01,9.63803e-01,9.99239e-01,8.30517e-01,9.99999e-01
1.036997685e+00,1.57691e-01,9.99999e-01,1.89245e-01,9.99548e-01,8.33569e-01,9.99999e-01
1.042182673e+00,1.50175e-01,9.99999e-01,1.79599e-01,9.99462e-01,8.36571e-01,9.99999e-01
1.047393587e+00,1.62449e-01,9.99999e-01,1.93624e-01,9.99287e-01,8.39525e-01,9.99999e-01
1.052630555e+00,8.58208e-03,9.99999e-01,1.01948e-02,9.99022e-01,8.42431e-01,9.99999e-01
1.057893707e+00,1.95029e-02,9.99999e-01,2.30991e-02,9.98370e-01,8.45289e-01,9.99999e-01
1.063183176e+00,5.34721e-02,9.99999e-01,6.31758e-02,9.97316e-01,8.48100e-01,9.99999e-01
1.068499092e+00,1.27938e-01,9.99999e-01,1.50949e-01,9.95506e-01,8.50864e-01,9.99999e-01
1.073841587e+00,2.57043e-01,9.99999e-01,3.02519e-01,9.94747e-01,8.53583e-01,9.99999e-01
1.079210795e+00,3.99462e-01,9.99999e-01,4.69456e-01,9.93261e-01,8.56256e-01,9.99999e-01
1.084606849e+00,5.61472e-01,9.99999e-01,6.60188e-01,9.89823e-01,8.58885e-01,9.99999e-01
1.090029883e+00,6.84777e-01,9.99999e-01,8.06373e-01,9.85448e-01,8.61470e-01,9.99998e-01
1.095480033e+00,7.46847e-01,9.99999e-01,8.99355e-01,9.60796e-01,8.64011e-01,9.99998e-01
1.100957433e+00,7.44056e-01,9.99999e-01,9.50217e-01,9.03290e-01,8.66509e-01,9.99997e-01
1.106462220e+00,6.57320e-01,9.99999e-01,9.79096e-01,7.72124e-01,8.68965e-01,9.99995e-01
1.111994531e+00,5.01234e-01,9.99999e-01,9.92202e-01,5.79480e-01,8.71379e-01,9.99991e-01
1.117554504e+00,3.60496e-01,9.99999e-01,9.98086e-01,4.13257e-01,8.73752e-01,9.99988e-01
1.123142276e+00,4.56324e-01,9.99999e-01,9.99873e-01,5.20910e-01,8.76084e-01,9.99986e-01
1.128757988e+00,5.79342e-01,9.99999e-01,9.99999e-01,6.59568e-01,8.78376e-01,9.99985e-01
1.134401778e+00,3.50162e-01,9.99999e-01,9.99999e-01,3.97632e-01,8.80629e-01,9.99984e-01
1.140073787e+00,6.89099e-01,9.99999e-01,9.99999e-01,7.80554e-01,8.82843e-01,9.99987e-01
1.145774156e+00,5.27081e-01,9.99999e-01,9.99999e-01,5.95565e-01,8.85019e-01,9.99988e-01
1.151503026e+00,4.97973e-01,9.99999e-01,9.99999e-01,5.61318e-01,8.87157e-01,9.99990e-01
1.157260541e+00,5.49715e-01,9.99999e-01,9.99999e-01,6.18177e-01,8.89257e-01,9.99992e-01
1.163046844e+00,6.24471e-01,9.99999e-01,9.99999e-01,7.00615e-01,8.91321e-01,9.99995e-01
1.168862078e+00,6.97874e-01,9.99999e-01,9.99999e-01,7.81190e-01,8.93349e-01,9.99997e-01
1.174706389e+00,7.68818e-01,9.99999e-01,9.99999e-01,8.58687e-01,8.95341e-01,9.99998e-01
1.180579921e+00,8.17799e-01,9.99999e-01,9.99999e-01,9.11401e-01,8.97299e-01,9.99998e-01
1.186482820e+00,8.53340e-01,9.99999e-01,9.99994e-01,9.48980e-01,8.99221e-01,9.99998e-01
1.192415234e+00,8.64919e-01,9.99999e-01,9.89501e-01,9.69928e-01,9.01110e-01,9.99998e-01
1.198377311e+00,5.02191e-01,9.99999e-01,5.68257e-01,9.74619e-01,9.02965e-01,9.99999e-01
1.204369197e+00,2.19169e-09,9.99999e-01,2.45658e-09,9.75949e-01,9.04788e-01,9.99999e-01
1.210391043e+00,6.90768e-33,9.99999e-01,7.71853e-33,9.76990e-01,9.06578e-01,9.99999e-01
1.216442998e+00,1.10156e-28,9.99999e-01,1.22765e-28,9.80371e-01,9.08336e-01,9.99999e-01
1.222525213e+00,2.82454e-28,9.99999e-01,3.12841e-28,9.84696e-01,9.10062e-01,9.99999e-01
1.228637839e+00,7.03297e-22,9.99999e-01,7.77151e-22,9.89354e-01,9.11758e-01,9.99999e-01
