#,Wave/freq,Total,O2,CO2,H2O,Rayleigh,CIA
4.000000000e-01,7.48877e-12,9.99999e-01,9.99999e-01,9.99949e-01,7.48915e-12,9.99999e-01
4.020000000e-01,1.24279e-11,9.99999e-01,9.99999e-01,9.99968e-01,1.24282e-11,9.99999e-01
4.040100000e-01,2.04088e-11,9.99999e-01,9.99999e-01,9.99986e-01,2.04090e-11,9.99999e-01
4.060300500e-01,3.31878e-11,9.99999e-01,9.99999e-01,9.99996e-01,3.31879e-11,9.99999e-01
4.080602003e-01,5.34522e-11,9.99999e-01,9.99999e-01,9.99998e-01,5.34523e-11,9.99999e-01
4.101005013e-01,8.52834e-11,9.99999e-01,9.99999e-01,9.99999e-01,8.52834e-11,9.99999e-01
4.121510038e-01,1.34820e-10,9.99999e-01,9.99999e-01,9.99997e-01,1.34820e-10,9.99999e-01
4.142117588e-01,2.11208e-10,9.99999e-01,9.99999e-01,9.99985e-01,2.11211e-10,9.99999e-01
4.162828176e-01,3.27945e-10,9.99999e-01,9.99999e-01,9.99937e-01,3.27965e-10,9.99999e-01
4.183642317e-01,5.04833e-10,9.99999e-01,9.99999e-01,9.99962e-01,5.04851e-10,9.99999e-01
4.204560528e-01,7.70529e-10,9.99999e-01,9.99999e-01,9.99977e-01,7.70547e-10,9.99999e-01
4.225583331e-01,1.16628e-09,9.99999e-01,9.99999e-01,9.99991e-01,1.16629e-09,9.99999e-01
4.246711247e-01,1.75088e-09,9.99999e-01,9.99999e-01,9.99992e-01,1.75089e-09,9.99999e-01
4.267944804e-01,2.60749e-09,9.99999e-01,9.99999e-01,9.99989e-01,2.60752e-09,9.99999e-01
4.289284528e-01,3.85278e-09,9.99999e-01,9.99999e-01,9.99991e-01,3.85281e-09,9.99999e-01
4.310730950e-01,5.64909e-09,9.99999e-01,9.99999e-01,9.99996e-01,5.64911e-09,9.99999e-01
4.332284605e-01,8.22050e-09,9.99999e-01,9.99999e-01,9.99998e-01,8.22051e-09,9.99999e-01
4.353946028e-01,1.18741e-08,9.99999e-01,9.99999e-01,9.99999e-01,1.18741e-08,9.99999e-01
4.375715758e-01,1.70272e-08,9.99999e-01,9.99999e-01,9.99993e-01,1.70273e-08,9.99999e-01
4.397594337e-01,2.42424e-08,9.99999e-01,9.99999e-01,9.99944e-01,2.42437e-08,9.99999e-01
4.419582309e-01,3.42689e-08,9.99999e-01,9.99999e-01,9.99717e-01,3.42786e-08,9.99999e-01
4.441680220e-01,4.81262e-08,9.99999e-01,9.99999e-01,9.99785e-01,4.81365e-08,9.99999e-01
4.463888621e-01,6.71299e-08,9.99999e-01,9.99999e-01,9.99774e-01,6.71450e-08,9.99999e-01
4.486208064e-01,9.30332e-08,9.99999e-01,9.99999e-01,9.99860e-01,9.30461e-08,9.99999e-01
4.508639105e-01,1.28102e-07,9.99999e-01,9.99999e-01,9.99934e-01,1.28110e-07,9.99999e-01
4.531182300e-01,1.75273e-07,9.99999e-01,9.99999e-01,9.99973e-01,1.75277e-07,9.99999e-01
4.553838212e-01,2.38326e-07,9.99999e-01,9.99999e-01,9.99982e-01,2.38330e-07,9.99999e-01
4.576607403e-01,3.22102e-07,9.99999e-01,9.99999e-01,9.99991e-01,3.22104e-07,9.99999e-01
4.599490440e-01,4.32740e-07,9.99999e-01,9.99999e-01,9.99993e-01,4.32742e-07,9.99999e-01
4.622487892e-01,5.78002e-07,9.99999e-01,9.99999e-01,9.99998e-01,5.78002e-07,9.99999e-01
4.645600332e-01,7.67618e-07,9.99999e-01,9.99999e-01,9.99995e-01,7.67621e-07,9.99999e-01
4.668828333e-01,1.01368e-06,9.99999e-01,9.99999e-01,9.99932e-01,1.01375e-06,9.99999e-01
4.692172475e-01,1.33127e-06,9.99999e-01,9.99999e-01,9.99858e-01,1.33146e-06,9.99999e-01
4.715633337e-01,1.73919e-06,9.99999e-01,9.99999e-01,9.99907e-01,1.73935e-06,9.99999e-01
4.739211504e-01,2.26004e-06,9.99999e-01,9.99999e-01,9.99911e-01,2.26024e-06,9.99999e-01
4.762907561e-01,2.92182e-06,9.99999e-01,9.99999e-01,9.99954e-01,2.92195e-06,9.99999e-01
4.786722099e-01,3.75822e-06,9.99999e-01,9.99999e-01,9.99980e-01,3.75829e-06,9.99999e-01
4.810655710e-01,4.81000e-06,9.99999e-01,9.99999e-01,9.99993e-01,4.81003e-06,9.99999e-01
4.834708988e-01,6.12582e-06,9.99999e-01,9.99999e-01,9.99943e-01,6.12616e-06,9.99999e-01
4.858882533e-01,7.76445e-06,9.99999e-01,9.99999e-01,9.99900e-01,7.76523e-06,9.99999e-01
4.883176946e-01,9.79602e-06,9.99999e-01,9.99999e-01,9.99915e-01,9.79684e-06,9.99999e-01
4.907592831e-01,1.23025e-05,9.99999e-01,9.99999e-01,9.99924e-01,1.23034e-05,9.99999e-01
4.932130795e-01,1.53810e-05,9.99999e-01,9.99999e-01,9.99946e-01,1.53819e-05,9.99999e-01
4.956791449e-01,1.91454e-05,9.99999e-01,9.99999e-01,9.99971e-01,1.91460e-05,9.99999e-01
4.981575406e-01,2.37250e-05,9.99999e-01,9.99999e-01,9.99856e-01,2.37284e-05,9.99999e-01
5.006483283e-01,2.92723e-05,9.99999e-01,9.99999e-01,9.99627e-01,2.92832e-05,9.99999e-01
5.031515699e-01,3.59212e-05,9.99999e-01,9.99999e-01,9.98131e-01,3.59885e-05,9.99999e-01
5.056673278e-01,4.40062e-05,9.99999e-01,9.99999e-01,9.99017e-01,4.40494e-05,9.99999e-01
5.081956644e-01,5.36346e-05,9.99999e-01,9.99999e-01,9.98761e-01,5.37011e-05,9.99999e-01
5.107366428e-01,6.51574e-05,9.99999e-01,9.99999e-01,9.99164e-01,6.52119e-05,9.99999e-01
5.132903260e-01,7.88492e-05,9.99999e-01,9.99999e-01,9.99523e-01,7.88867e-05,9.99999e-01
5.158567776e-01,9.50520e-05,9.99999e-01,9.99999e-01,9.99798e-01,9.50711e-05,9.99999e-01
5.184360615e-01,1.14145e-04,9.99999e-01,9.99999e-01,9.99919e-01,1.14154e-04,9.99999e-01
5.210282418e-01,1.36569e-04,9.99999e-01,9.99999e-01,9.99969e-01,1.36573e-04,9.99999e-01
5.236333830e-01,1.62798e-04,9.99999e-01,9.99999e-01,9.99878e-01,1.62818e-04,9.99999e-01
5.262515499e-01,1.93418e-04,9.99999e-01,9.99999e-01,9.99923e-01,1.93433e-04,9.99999e-01
5.288828077e-01,2.29008e-04,9.99999e-01,9.99999e-01,9.99929e-01,2.29024e-04,9.99999e-01
5.315272217e-01,2.70244e-04,9.99999e-01,9.99999e-01,9.99938e-01,2.70260e-04,9.99999e-01
5.341848578e-01,3.17867e-04,9.99999e-01,9.99999e-01,9.99959e-01,3.17880e-04,9.99999e-01
5.368557821e-01,3.72641e-04,9.99999e-01,9.99999e-01,9.99857e-01,3.72694e-04,9.99999e-01
5.395400610e-01,4.35363e-04,9.99999e-01,9.99999e-01,9.99481e-01,4.35589e-04,9.99999e-01
5.422377613e-01,5.07198e-04,9.99999e-01,9.99999e-01,9.99342e-01,5.07531e-04,9.99999e-01
5.449489501e-01,5.89210e-04,9.99999e-01,9.99999e-01,9.99382e-01,5.89574e-04,9.99999e-01
5.476736949e-01,6.82485e-04,9.99999e-01,9.99999e-01,9.99458e-01,6.82854e-04,9.99999e-01
5.504120634e-01,7.88293e-04,9.99999e-01,9.99999e-01,9.99606e-01,7.88602e-04,9.99999e-01
5.531641237e-01,9.07960e-04,9.99999e-01,9.99999e-01,9.99802e-01,9.08140e-04,9.99999e-01
5.559299443e-01,1.04279e-03,9.99999e-01,9.99999e-01,9.99904e-01,1.04289e-03,9.99999e-01
5.587095940e-01,1.19428e-03,9.99999e-01,9.99999e-01,9.99939e-01,1.19436e-03,9.99999e-01
5.615031420e-01,1.36408e-03,9.99999e-01,9.99999e-01,9.99932e-01,1.36417e-03,9.99999e-01
5.643106577e-01,1.55392e-03,9.99999e-01,9.99999e-01,9.99922e-01,1.55404e-03,9.99999e-01
5.671322110e-01,1.76412e-03,9.99999e-01,9.99999e-01,9.99057e-01,1.76578e-03,9.99999e-01
5.699678720e-01,1.99938e-03,9.99999e-01,9.99999e-01,9.99029e-01,2.00132e-03,9.99999e-01
5.728177114e-01,2.26036e-03,9.99999e-01,9.99999e-01,9.98976e-01,2.26268e-03,9.99999e-01
5.756818000e-01,2.54958e-03,9.99999e-01,9.99999e-01,9.99062e-01,2.55197e-03,9.99999e-01
5.785602090e-01,2.86907e-03,9.99999e-01,9.99999e-01,9.99185e-01,2.87141e-03,9.99999e-01
5.814530100e-01,3.22068e-03,9.99999e-01,9.99999e-01,9.99179e-01,3.22333e-03,9.99999e-01
5.843602750e-01,3.60656e-03,9.99999e-01,9.99999e-01,9.99012e-01,3.61012e-03,9.99999e-01
5.872820764e-01,4.00013e-03,9.99999e-01,9.99999e-01,9.91533e-01,4.03429e-03,9.99999e-01
5.902184868e-01,4.45276e-03,9.99999e-01,9.99999e-01,9.89852e-01,4.49841e-03,9.99999e-01
5.931695792e-01,4.96911e-03,9.99999e-01,9.99999e-01,9.92799e-01,5.00515e-03,9.99999e-01
5.961354271e-01,5.51349e-03,9.99999e-01,9.99999e-01,9.92127e-01,5.55724e-03,9.99999e-01
5.991161043e-01,6.12215e-03,9.99999e-01,9.99999e-01,9.94260e-01,6.15749e-03,9.99999e-01
6.021116848e-01,6.78660e-03,9.99999e-01,9.99999e-01,9.96744e-01,6.80876e-03,9.99999e-01
6.051222432e-01,7.50161e-03,9.99999e-01,9.99999e-01,9.98352e-01,7.51399e-03,9.99999e-01
6.081478544e-01,8.27024e-03,9.99999e-01,9.99999e-01,9.99287e-01,8.27613e-03,9.99999e-01
6.111885937e-01,9.09547e-03,9.99999e-01,9.99999e-01,9.99699e-01,9.09820e-03,9.99999e-01
6.142445367e-01,9.98189e-03,9.99999e-01,9.99999e-01,9.99865e-01,9.98323e-03,9.99999e-01
6.173157594e-01,1.09335e-02,9.99999e-01,9.99999e-01,9.99925e-01,1.09343e-02,9.99999e-01
6.204023382e-01,1.19537e-02,9.99999e-01,9.99999e-01,9.99936e-01,1.19544e-02,9.99999e-01
6.235043498e-01,1.30431e-02,9.99999e-01,9.99999e-01,9.99716e-01,1.30468e-02,9.99999e-01
6.266218716e-01,1.41934e-02,9.99999e-01,9.99999e-01,9.98530e-01,1.42143e-02,9.99999e-01
6.297549810e-01,1.54518e-02,9.99999e-01,9.99999e-01,9.99460e-01,1.54602e-02,9.99999e-01
6.329037559e-01,1.67695e-02,9.99999e-01,9.99999e-01,9.98938e-01,1.67873e-02,9.99999e-01
6.360682746e-01,1.81823e-02,9.99999e-01,9.99999e-01,9.99090e-01,1.81988e-02,9.99999e-01
6.392486160e-01,1.96744e-02,9.99999e-01,9.99999e-01,9.98824e-01,1.96975e-02,9.99999e-01
6.424448591e-01,2.12525e-02,9.99999e-01,9.99999e-01,9.98412e-01,2.12863e-02,9.99999e-01
6.456570834e-01,2.27992e-02,9.99999e-01,9.99999e-01,9.92648e-01,2.29681e-02,9.99999e-01
6.488853688e-01,2.46140e-02,9.99999e-01,9.99999e-01,9.94684e-01,2.47455e-02,9.99999e-01
6.521297956e-01,2.64771e-02,9.99999e-01,9.99999e-01,9.94583e-01,2.66213e-02,9.99999e-01
6.553904446e-01,2.84428e-02,9.99999e-01,9.99999e-01,9.94575e-01,2.85980e-02,9.99999e-01
6.586673968e-01,3.05361e-02,9.99999e-01,9.99999e-01,9.95377e-01,3.06779e-02,9.99999e-01
6.619607338e-01,3.27789e-02,9.99999e-01,9.99999e-01,9.97422e-01,3.28636e-02,9.99999e-01
6.652705375e-01,3.51027e-02,9.99999e-01,9.99999e-01,9.98452e-01,3.51571e-02,9.99999e-01
6.685968902e-01,3.75360e-02,9.99999e-01,9.99999e-01,9.99342e-01,3.75607e-02,9.99999e-01
6.719398746e-01,4.00628e-02,9.99999e-01,9.99999e-01,9.99666e-01,4.00761e-02,9.99999e-01
6.752995740e-01,4.26979e-02,9.99999e-01,9.99999e-01,9.99823e-01,4.27054e-02,9.99999e-01
6.786760719e-01,4.54380e-02,9.99999e-01,9.99999e-01,9.99735e-01,4.54500e-02,9.99999e-01
6.820694522e-01,4.82896e-02,9.99999e-01,9.99999e-01,9.99546e-01,4.83115e-02,9.99999e-01
6.854797995e-01,5.12616e-02,9.99999e-01,9.99999e-01,9.99420e-01,5.12913e-02,9.99999e-01
6.889071985e-01,5.43131e-02,9.99999e-01,9.99999e-01,9.98573e-01,5.43906e-02,9.99999e-01
6.923517345e-01,5.62977e-02,9.99999e-01,9.99999e-01,9.77214e-01,5.76103e-02,9.99999e-01
6.958134932e-01,6.02435e-02,9.99999e-01,9.99999e-01,9.88385e-01,6.09514e-02,9.99999e-01
6.992925606e-01,6.36854e-02,9.99999e-01,9.99999e-01,9.88681e-01,6.44144e-02,9.99999e-01
7.027890234e-01,6.70598e-02,9.99999e-01,9.99999e-01,9.86173e-01,6.80000e-02,9.99999e-01
7.063029686e-01,7.08727e-02,9.99999e-01,9.99999e-01,9.88347e-01,7.17083e-02,9.99999e-01
7.098344834e-01,7.46948e-02,9.99999e-01,9.99999e-01,9.88815e-01,7.55396e-02,9.99999e-01
7.133836558e-01,7.82947e-02,9.99999e-01,9.99999e-01,9.84915e-01,7.94939e-02,9.99998e-01
7.169505741e-01,7.40741e-02,9.99999e-01,9.99999e-01,8.86363e-01,8.35708e-02,9.99998e-01
7.205353270e-01,8.28350e-02,9.99999e-01,9.99999e-01,9.43772e-01,8.77702e-02,9.99997e-01
7.241380036e-01,8.54374e-02,9.99999e-01,9.99999e-01,9.27748e-01,9.20913e-02,9.99997e-01
7.277586936e-01,9.02256e-02,9.99999e-01,9.99999e-01,9.34658e-01,9.65334e-02,9.99998e-01
7.313974871e-01,9.41249e-02,9.99999e-01,9.99999e-01,9.31047e-01,1.01096e-01,9.99998e-01
7.350544745e-01,1.01717e-01,9.99999e-01,9.99999e-01,9.61614e-01,1.05777e-01,9.99998e-01
7.387297469e-01,1.07437e-01,9.99999e-01,9.99999e-01,9.71610e-01,1.10576e-01,9.99999e-01
7.424233956e-01,1.13880e-01,9.99999e-01,9.99999e-01,9.86041e-01,1.15492e-01,9.99999e-01
7.461355126e-01,1.19499e-01,9.99999e-01,9.99999e-01,9.91502e-01,1.20523e-01,9.99999e-01
7.498661902e-01,1.25170e-01,9.99999e-01,9.99999e-01,9.96049e-01,1.25667e-01,9.99999e-01
7.536155211e-01,1.30667e-01,9.99999e-01,9.99999e-01,9.98053e-01,1.30922e-01,9.99999e-01
7.573835987e-01,1.36150e-01,9.99999e-01,9.99999e-01,9.98998e-01,1.36287e-01,9.99999e-01
7.611705167e-01,1.41671e-01,9.99999e-01,9.99999e-01,9.99376e-01,1.41759e-01,9.99999e-01
7.649763693e-01,1.47279e-01,9.99999e-01,9.99999e-01,9.99608e-01,1.47336e-01,9.99999e-01
7.688012511e-01,1.52975e-01,9.99999e-01,9.99999e-01,9.99726e-01,1.53016e-01,9.99999e-01
7.726452574e-01,1.58761e-01,9.99999e-01,9.99999e-01,9.99775e-01,1.58797e-01,9.99999e-01
7.765084837e-01,1.64622e-01,9.99999e-01,9.99999e-01,9.99677e-01,1.64675e-01,9.99999e-01
7.803910261e-01,1.57519e-01,9.99999e-01,9.24265e-01,9.98606e-01,1.70648e-01,9.99999e-01
7.842929812e-01,1.23182e-01,9.99999e-01,7.00131e-01,9.95141e-01,1.76713e-01,9.99999e-01
7.882144461e-01,1.23815e-01,9.99999e-01,6.83260e-01,9.90113e-01,1.82867e-01,9.99999e-01
7.921555184e-01,1.49343e-01,9.99999e-01,7.93778e-01,9.94602e-01,1.89109e-01,9.99999e-01
7.961162960e-01,1.65873e-01,9.99999e-01,8.56846e-01,9.90347e-01,1.95433e-01,9.99999e-01
8.000968774e-01,1.83531e-01,9.99999e-01,9.19408e-01,9.88930e-01,2.01838e-01,9.99999e-01
8.040973618e-01,1.97275e-01,9.99999e-01,9.57550e-01,9.88909e-01,2.08320e-01,9.99999e-01
8.081178486e-01,2.05373e-01,9.99999e-01,9.80181e-01,9.75015e-01,2.14876e-01,9.99998e-01
8.121584379e-01,1.98256e-01,9.99999e-01,9.93913e-01,9.00401e-01,2.21502e-01,9.99998e-01
8.162192301e-01,2.01545e-01,9.99999e-01,9.98651e-01,8.84349e-01,2.28196e-01,9.99997e-01
8.203003262e-01,2.20868e-01,9.99999e-01,9.99981e-01,9.40061e-01,2.34954e-01,9.99997e-01
8.244018279e-01,2.22407e-01,9.99999e-01,9.99999e-01,9.19900e-01,2.41773e-01,9.99997e-01
8.285238370e-01,2.30891e-01,9.99999e-01,9.99999e-01,9.28580e-01,2.48649e-01,9.99998e-01
8.326664562e-01,2.37238e-01,9.99999e-01,9.99999e-01,9.28236e-01,2.55579e-01,9.99998e-01
8.368297885e-01,2.48952e-01,9.99999e-01,9.99999e-01,9.48171e-01,2.62560e-01,9.99998e-01
8.410139374e-01,2.61197e-01,9.99999e-01,9.99999e-01,9.68874e-01,2.69588e-01,9.99999e-01
8.452190071e-01,2.72408e-01,9.99999e-01,9.99999e-01,9.84633e-01,2.76659e-01,9.99999e-01
8.494451021e-01,2.81222e-01,9.99999e-01,9.99999e-01,9.91016e-01,2.83771e-01,9.99999e-01
8.536923276e-01,2.89378e-01,9.99999e-01,9.99999e-01,9.94699e-01,2.90920e-01,9.99999e-01
8.579607893e-01,2.97125e-01,9.99999e-01,9.99999e-01,9.96721e-01,2.98102e-01,9.99999e-01
8.622505932e-01,3.04681e-01,9.99999e-01,9.99999e-01,9.97922e-01,3.05315e-01,9.99999e-01
8.665618462e-01,2.73586e-01,9.99999e-01,8.76385e-01,9.98708e-01,3.12554e-01,9.99999e-01
8.708946554e-01,1.31271e-01,9.99999e-01,4.11021e-01,9.98517e-01,3.19817e-01,9.99999e-01
8.752491287e-01,1.57220e-01,9.99999e-01,4.81543e-01,9.98019e-01,3.27101e-01,9.99999e-01
8.796253743e-01,2.21676e-01,9.99999e-01,6.64613e-01,9.97248e-01,3.34401e-01,9.99999e-01
8.840235012e-01,2.74869e-01,9.99999e-01,8.06824e-01,9.96860e-01,3.41715e-01,9.99999e-01
8.884436187e-01,3.17079e-01,9.99999e-01,9.18870e-01,9.88365e-01,3.49040e-01,9.99998e-01
8.928858368e-01,3.05367e-01,9.99999e-01,9.66186e-01,8.86210e-01,3.56373e-01,9.99997e-01
8.973502660e-01,2.92284e-01,9.99999e-01,9.91731e-01,8.09992e-01,3.63711e-01,9.99996e-01
9.018370173e-01,3.33280e-01,9.99999e-01,9.99089e-01,8.98969e-01,3.71050e-01,9.99996e-01
9.063462024e-01,3.36233e-01,9.99999e-01,9.76192e-01,9.08644e-01,3.78388e-01,9.99996e-01
9.108779334e-01,3.15411e-01,9.99999e-01,9.47080e-01,8.62068e-01,3.85721e-01,9.99995e-01
9.154323231e-01,3.28124e-01,9.99999e-01,9.87477e-01,8.44875e-01,3.93048e-01,9.99995e-01
9.200094847e-01,2.99749e-01,9.99999e-01,8.41485e-01,8.76894e-01,4.00365e-01,9.99994e-01
9.246095321e-01,2.57108e-01,9.99999e-01,7.66917e-01,8.14318e-01,4.07670e-01,9.99990e-01
9.292325798e-01,9.53938e-02,9.99999e-01,8.12392e-01,2.71803e-01,4.14960e-01,9.99979e-01
9.338787427e-01,6.83396e-02,9.99999e-01,8.18494e-01,1.90660e-01,4.22232e-01,9.99973e-01
9.385481364e-01,1.92155e-01,9.99999e-01,8.62342e-01,5.10094e-01,4.29485e-01,9.99973e-01
9.432408771e-01,1.60531e-01,9.99999e-01,9.13248e-01,3.98561e-01,4.36715e-01,9.99970e-01
9.479570815e-01,1.20650e-01,9.99999e-01,9.54376e-01,2.83371e-01,4.43920e-01,9.99973e-01
9.526968669e-01,1.68421e-01,9.99999e-01,9.77808e-01,3.80458e-01,4.51099e-01,9.99980e-01
9.574603512e-01,1.81790e-01,9.99999e-01,9.90454e-01,3.99986e-01,4.58248e-01,9.99985e-01
9.622476530e-01,2.18697e-01,9.99999e-01,9.97017e-01,4.71170e-01,4.65366e-01,9.99989e-01
9.670588912e-01,3.04755e-01,9.99999e-01,9.99107e-01,6.45563e-01,4.72451e-01,9.99993e-01
9.718941857e-01,3.62789e-01,9.99999e-01,9.99938e-01,7.56638e-01,4.79500e-01,9.99996e-01
9.767536566e-01,3.85841e-01,9.99999e-01,9.99999e-01,7.93077e-01,4.86513e-01,9.99996e-01
9.816374249e-01,4.15571e-01,9.99999e-01,9.99999e-01,8.42114e-01,4.93486e-01,9.99997e-01
9.865456120e-01,4.49398e-01,9.99999e-01,9.99999e-01,8.98045e-01,5.00418e-01,9.99998e-01
9.914783401e-01,4.74622e-01,9.99999e-01,9.99999e-01,9.35568e-01,5.07309e-01,9.99999e-01
9.964357318e-01,4.95844e-01,9.99999e-01,9.99999e-01,9.64385e-01,5.14155e-01,9.99999e-01
1.001417910e+00,5.09760e-01,9.99999e-01,9.99999e-01,9.78509e-01,5.20955e-01,9.99999e-01
1.006425000e+00,5.21197e-01,9.99999e-01,9.99999e-01,9.87658e-01,5.27709e-01,9.99999e-01
1.011457125e+00,5.30324e-01,9.99999e-01,9.99999e-01,9.92346e-01,5.34414e-01,9.99999e-01
1.016514411e+00,5.38250e-01,9.99999e-01,9.99999e-01,9.94789e-01,5.41069e-01,9.99999e-01
1.021596983e+00,5.45316e-01,9.99999e-01,9.99851e-01,9.95842e-01,5.47673e-01,9.99999e-01
1.026704968e+00,5.47196e-01,9.99999e-01,9.90519e-01,9.96754e-01,5.54226e-01,9.99999e-01
1.031838492e+00,5.11165e-01,9.99999e-01,9.13653e-01,9.97646e-01,5.60724e-01,9.99999e-01
1.036997685e+00,3.61082e-02,9.99999e-01,6.37318e-02,9.98597e-01,5.67169e-01,9.99999e-01
1.042182673e+00,5.33036e-03,9.99999e-01,9.30592e-03,9.98320e-01,5.73557e-01,9.99999e-01
1.047393587e+00,1.13516e-02,9.99999e-01,1.96121e-02,9.97778e-01,5.79890e-01,9.99999e-01
1.052630555e+00,6.36322e-06,9.99999e-01,1.08771e-05,9.96948e-01,5.86165e-01,9.99999e-01
1.057893707e+00,2.40210e-05,9.99999e-01,4.06639e-05,9.94900e-01,5.92383e-01,9.99999e-01
1.063183176e+00,3.21015e-04,9.99999e-01,5.39057e-04,9.91632e-01,5.98541e-01,9.99999e-01
1.068499092e+00,2.27619e-03,9.99999e-01,3.80218e-03,9.86053e-01,6.04640e-01,9.99999e-01
1.073841587e+00,1.71438e-02,9.99999e-01,2.84237e-02,9.83668e-01,6.10679e-01,9.99999e-01
1.079210795e+00,6.43011e-02,9.99999e-01,1.06083e-01,9.79192e-01,6.16657e-01,9.99998e-01
1.084606849e+00,1.71458e-01,9.99999e-01,2.83429e-01,9.68618e-01,6.22574e-01,9.99998e-01
1.090029883e+00,3.11184e-01,9.99999e-01,5.17002e-01,9.54944e-01,6.28429e-01,9.99997e-01
1.095480033e+00,4.05439e-01,9.99999e-01,7.22213e-01,8.82312e-01,6.34221e-01,9.99996e-01
1.100957433e+00,4.00212e-01,9.99999e-01,8.54304e-01,7.29138e-01,6.39952e-01,9.99994e-01
1.106462220e+00,2.77714e-01,9.99999e-01,9.37001e-01,4.56705e-01,6.45619e-01,9.99987e-01
1.111994531e+00,1.27808e-01,9.99999e-01,9.76146e-01,2.00334e-01,6.51223e-01,9.99975e-01
1.117554504e+00,5.17140e-02,9.99999e-01,9.94160e-01,7.90437e-02,6.56763e-01,9.99966e-01
1.123142276e+00,1.14066e-01,9.99999e-01,9.99618e-01,1.72261e-01,6.62240e-01,9.99959e-01
1.128757988e+00,2.00816e-01,9.99999e-01,9.99999e-01,3.00792e-01,6.67653e-01,9.99956e-01
1.134401778e+00,9.40472e-02,9.99999e-01,9.99999e-01,1.39749e-01,6.73002e-01,9.99951e-01
1.140073787e+00,3.22710e-01,9.99999e-01,9.99999e-01,4.75790e-01,6.78287e-01,9.99960e-01
1.145774156e+00,1.56403e-01,9.99999e-01,9.99999e-01,2.28831e-01,6.83508e-01,9.99966e-01
1.151503026e+00,1.34961e-01,9.99999e-01,9.99999e-01,1.95981e-01,6.88665e-01,9.99971e-01
1.157260541e+00,1.65711e-01,9.99999e-01,9.99999e-01,2.38865e-01,6.93757e-01,9.99978e-01
1.163046844e+00,2.41124e-01,9.99999e-01,9.99999e-01,3.45066e-01,6.98786e-01,9.99985e-01
1.168862078e+00,3.30964e-01,9.99999e-01,9.99999e-01,4.70289e-01,7.03750e-01,9.99993e-01
1.174706389e+00,4.44370e-01,9.99999e-01,9.99999e-01,6.27066e-01,7.08651e-01,9.99996e-01
1.180579921e+00,5.36472e-01,9.99999e-01,9.99999e-01,7.51902e-01,7.13488e-01,9.99997e-01
1.186482820e+00,6.10804e-01,9.99999e-01,9.99976e-01,8.50409e-01,7.18262e-01,9.99997e-01
1.192415234e+00,6.36533e-01,9.99999e-01,9.67152e-01,9.09524e-01,7.22972e-01,9.99997e-01
1.198377311e+00,3.59202e-01,9.99999e-01,5.27679e-01,9.23059e-01,7.27619e-01,9.99998e-01
1.204369197e+00,1.73795e-24,9.99999e-01,2.47977e-24,9.27248e-01,7.32204e-01,9.99998e-01
1.210391043e+00,1.01551e-97,9.99999e-01,1.43500e-97,9.30252e-01,7.36726e-01,9.99998e-01
1.216442998e+00,1.26682e-84,9.99999e-01,1.77561e-84,9.40495e-01,7.41185e-01,9.99998e-01
1.222525213e+00,2.35630e-83,9.99999e-01,3.23938e-83,9.53269e-01,7.45583e-01,9.99999e-01
1.228637839e+00,2.21669e-64,9.99999e-01,3.02306e-64,9.67283e-01,7.49919e-01,9.99999e-01
