#,Wave/freq,Total,O2,CO2,H2O,Rayleigh,CIA
4.000000000e-01,6.34443e-03,9.99999e-01,9.99999e-01,9.99989e-01,6.34449e-03,9.99999e-01
4.020000000e-01,7.01207e-03,9.99999e-01,9.99999e-01,9.99993e-01,7.01212e-03,9.99999e-01
4.040100000e-01,7.73389e-03,9.99999e-01,9.99999e-01,9.99996e-01,7.73391e-03,9.99999e-01
4.060300500e-01,8.51350e-03,9.99999e-01,9.99999e-01,9.99998e-01,8.51350e-03,9.99999e-01
4.080602003e-01,9.35392e-03,9.99999e-01,9.99999e-01,9.99999e-01,9.35392e-03,9.99999e-01
4.101005013e-01,1.02582e-02,9.99999e-01,9.99999e-01,9.99999e-01,1.02582e-02,9.99999e-01
4.121510038e-01,1.12294e-02,9.99999e-01,9.99999e-01,9.99999e-01,1.12294e-02,9.99999e-01
4.142117588e-01,1.22706e-02,9.99999e-01,9.99999e-01,9.99996e-01,1.22707e-02,9.99999e-01
4.162828176e-01,1.33848e-02,9.99999e-01,9.99999e-01,9.99987e-01,1.33850e-02,9.99999e-01
4.183642317e-01,1.45753e-02,9.99999e-01,9.99999e-01,9.99992e-01,1.45754e-02,9.99999e-01
4.204560528e-01,1.58450e-02,9.99999e-01,9.99999e-01,9.99995e-01,1.58451e-02,9.99999e-01
4.225583331e-01,1.71969e-02,9.99999e-01,9.99999e-01,9.99997e-01,1.71969e-02,9.99999e-01
4.246711247e-01,1.86339e-02,9.99999e-01,9.99999e-01,9.99998e-01,1.86340e-02,9.99999e-01
4.267944804e-01,2.01591e-02,9.99999e-01,9.99999e-01,9.99997e-01,2.01591e-02,9.99999e-01
4.289284528e-01,2.17752e-02,9.99999e-01,9.99999e-01,9.99997e-01,2.17752e-02,9.99999e-01
4.310730950e-01,2.34850e-02,9.99999e-01,9.99999e-01,9.99998e-01,2.34850e-02,9.99999e-01
4.332284605e-01,2.52914e-02,9.99999e-01,9.99999e-01,9.99999e-01,2.52914e-02,9.99999e-01
4.353946028e-01,2.71968e-02,9.99999e-01,9.99999e-01,9.99999e-01,2.71968e-02,9.99999e-01
4.375715758e-01,2.92038e-02,9.99999e-01,9.99999e-01,9.99998e-01,2.92038e-02,9.99999e-01
4.397594337e-01,3.13146e-02,9.99999e-01,9.99999e-01,9.99988e-01,3.13149e-02,9.99999e-01
4.419582309e-01,3.35305e-02,9.99999e-01,9.99999e-01,9.99944e-01,3.35323e-02,9.99999e-01
4.441680220e-01,3.58568e-02,9.99999e-01,9.99999e-01,9.99956e-01,3.58583e-02,9.99999e-01
4.463888621e-01,3.82931e-02,9.99999e-01,9.99999e-01,9.99955e-01,3.82948e-02,9.99999e-01
4.486208064e-01,4.08427e-02,9.99999e-01,9.99999e-01,9.99971e-01,4.08438e-02,9.99999e-01
4.508639105e-01,4.35065e-02,9.99999e-01,9.99999e-01,9.99986e-01,4.35071e-02,9.99999e-01
4.531182300e-01,4.62860e-02,9.99999e-01,9.99999e-01,9.99994e-01,4.62862e-02,9.99999e-01
4.553838212e-01,4.91825e-02,9.99999e-01,9.99999e-01,9.99996e-01,4.91827e-02,9.99999e-01
4.576607403e-01,5.21977e-02,9.99999e-01,9.99999e-01,9.99997e-01,5.21978e-02,9.99999e-01
4.599490440e-01,5.53327e-02,9.99999e-01,9.99999e-01,9.99998e-01,5.53327e-02,9.99999e-01
4.622487892e-01,5.85883e-02,9.99999e-01,9.99999e-01,9.99999e-01,5.85883e-02,9.99999e-01
4.645600332e-01,6.19655e-02,9.99999e-01,9.99999e-01,9.99998e-01,6.19655e-02,9.99999e-01
4.668828333e-01,6.54640e-02,9.99999e-01,9.99999e-01,9.99986e-01,6.54648e-02,9.99999e-01
4.692172475e-01,6.90848e-02,9.99999e-01,9.99999e-01,9.99971e-01,6.90867e-02,9.99999e-01
4.715633337e-01,7.28302e-02,9.99999e-01,9.99999e-01,9.99981e-01,7.28316e-02,9.99999e-01
4.739211504e-01,7.66980e-02,9.99999e-01,9.99999e-01,9.99982e-01,7.66993e-02,9.99999e-01
4.762907561e-01,8.06893e-02,9.99999e-01,9.99999e-01,9.99990e-01,8.06900e-02,9.99999e-01
4.786722099e-01,8.48030e-02,9.99999e-01,9.99999e-01,9.99995e-01,8.48033e-02,9.99999e-01
4.810655710e-01,8.90387e-02,9.99999e-01,9.99999e-01,9.99998e-01,8.90388e-02,9.99999e-01
4.834708988e-01,9.33949e-02,9.99999e-01,9.99999e-01,9.99988e-01,9.33959e-02,9.99999e-01
4.858882533e-01,9.78718e-02,9.99999e-01,9.99999e-01,9.99979e-01,9.78737e-02,9.99999e-01
4.883176946e-01,1.02470e-01,9.99999e-01,9.99999e-01,9.99982e-01,1.02471e-01,9.99999e-01
4.907592831e-01,1.07186e-01,9.99999e-01,9.99999e-01,9.99984e-01,1.07188e-01,9.99999e-01
4.932130795e-01,1.12021e-01,9.99999e-01,9.99999e-01,9.99988e-01,1.12022e-01,9.99999e-01
4.956791449e-01,1.16971e-01,9.99999e-01,9.99999e-01,9.99993e-01,1.16972e-01,9.99999e-01
4.981575406e-01,1.22033e-01,9.99999e-01,9.99999e-01,9.99971e-01,1.22036e-01,9.99999e-01
5.006483283e-01,1.27204e-01,9.99999e-01,9.99999e-01,9.99926e-01,1.27214e-01,9.99999e-01
5.031515699e-01,1.32453e-01,9.99999e-01,9.99999e-01,9.99630e-01,1.32502e-01,9.99999e-01
5.056673278e-01,1.37872e-01,9.99999e-01,9.99999e-01,9.99805e-01,1.37898e-01,9.99999e-01
5.081956644e-01,1.43367e-01,9.99999e-01,9.99999e-01,9.99754e-01,1.43402e-01,9.99999e-01
5.107366428e-01,1.48985e-01,9.99999e-01,9.99999e-01,9.99834e-01,1.49010e-01,9.99999e-01
5.132903260e-01,1.54705e-01,9.99999e-01,9.99999e-01,9.99905e-01,1.54720e-01,9.99999e-01
5.158567776e-01,1.60523e-01,9.99999e-01,9.99999e-01,9.99959e-01,1.60530e-01,9.99999e-01
5.184360615e-01,1.66433e-01,9.99999e-01,9.99999e-01,9.99983e-01,1.66436e-01,9.99999e-01
5.210282418e-01,1.72436e-01,9.99999e-01,9.99999e-01,9.99993e-01,1.72437e-01,9.99999e-01
5.236333830e-01,1.78524e-01,9.99999e-01,9.99999e-01,9.99975e-01,1.78529e-01,9.99999e-01
5.262515499e-01,1.84706e-01,9.99999e-01,9.99999e-01,9.99984e-01,1.84709e-01,9.99999e-01
5.288828077e-01,1.90973e-01,9.99999e-01,9.99999e-01,9.99985e-01,1.90975e-01,9.99999e-01
5.315272217e-01,1.97321e-01,9.99999e-01,9.99999e-01,9.99987e-01,1.97324e-01,9.99999e-01
5.341848578e-01,2.03750e-01,9.99999e-01,9.99999e-01,9.99991e-01,2.03752e-01,9.99999e-01
5.368557821e-01,2.10250e-01,9.99999e-01,9.99999e-01,9.99971e-01,2.10256e-01,9.99999e-01
5.395400610e-01,2.16811e-01,9.99999e-01,9.99999e-01,9.99898e-01,2.16833e-01,9.99999e-01
5.422377613e-01,2.23451e-01,9.99999e-01,9.99999e-01,9.99869e-01,2.23480e-01,9.99999e-01
5.449489501e-01,2.30166e-01,9.99999e-01,9.99999e-01,9.99878e-01,2.30194e-01,9.99999e-01
5.476736949e-01,2.36945e-01,9.99999e-01,9.99999e-01,9.99892e-01,2.36970e-01,9.99999e-01
5.504120634e-01,2.43787e-01,9.99999e-01,9.99999e-01,9.99921e-01,2.43806e-01,9.99999e-01
5.531641237e-01,2.50689e-01,9.99999e-01,9.99999e-01,9.99960e-01,2.50699e-01,9.99999e-01
5.559299443e-01,2.57639e-01,9.99999e-01,9.99999e-01,9.99980e-01,2.57644e-01,9.99999e-01
5.587095940e-01,2.64636e-01,9.99999e-01,9.99999e-01,9.99987e-01,2.64639e-01,9.99999e-01
5.615031420e-01,2.71677e-01,9.99999e-01,9.99999e-01,9.99986e-01,2.71680e-01,9.99999e-01
5.643106577e-01,2.78760e-01,9.99999e-01,9.99999e-01,9.99984e-01,2.78764e-01,9.99999e-01
5.671322110e-01,2.85835e-01,9.99999e-01,9.99999e-01,9.99815e-01,2.85887e-01,9.99999e-01
5.699678720e-01,2.92990e-01,9.99999e-01,9.99999e-01,9.99806e-01,2.93046e-01,9.99999e-01
5.728177114e-01,3.00177e-01,9.99999e-01,9.99999e-01,9.99797e-01,3.00238e-01,9.99999e-01
5.756818000e-01,3.07402e-01,9.99999e-01,9.99999e-01,9.99814e-01,3.07459e-01,9.99999e-01
5.785602090e-01,3.14655e-01,9.99999e-01,9.99999e-01,9.99838e-01,3.14706e-01,9.99999e-01
5.814530100e-01,3.21923e-01,9.99999e-01,9.99999e-01,9.99837e-01,3.21975e-01,9.99999e-01
5.843602750e-01,3.29200e-01,9.99999e-01,9.99999e-01,9.99805e-01,3.29264e-01,9.99999e-01
5.872820764e-01,3.36006e-01,9.99999e-01,9.99999e-01,9.98327e-01,3.36569e-01,9.99999e-01
5.902184868e-01,3.43193e-01,9.99999e-01,9.99999e-01,9.97983e-01,3.43886e-01,9.99999e-01
5.931695792e-01,3.50713e-01,9.99999e-01,9.99999e-01,9.98572e-01,3.51214e-01,9.99999e-01
5.961354271e-01,3.57988e-01,9.99999e-01,9.99999e-01,9.98437e-01,3.58549e-01,9.99999e-01
5.991161043e-01,3.65470e-01,9.99999e-01,9.99999e-01,9.98860e-01,3.65887e-01,9.99999e-01
6.021116848e-01,3.72985e-01,9.99999e-01,9.99999e-01,9.99353e-01,3.73226e-01,9.99999e-01
6.051222432e-01,3.80439e-01,9.99999e-01,9.99999e-01,9.99672e-01,3.80563e-01,9.99999e-01
6.081478544e-01,3.87840e-01,9.99999e-01,9.99999e-01,9.99858e-01,3.87895e-01,9.99999e-01
6.111885937e-01,3.95196e-01,9.99999e-01,9.99999e-01,9.99939e-01,3.95219e-01,9.99999e-01
6.142445367e-01,4.02522e-01,9.99999e-01,9.99999e-01,9.99972e-01,4.02533e-01,9.99999e-01
6.173157594e-01,4.09827e-01,9.99999e-01,9.99999e-01,9.99984e-01,4.09833e-01,9.99999e-01
6.204023382e-01,4.17113e-01,9.99999e-01,9.99999e-01,9.99987e-01,4.17118e-01,9.99999e-01
6.235043498e-01,4.24362e-01,9.99999e-01,9.99999e-01,9.99944e-01,4.24385e-01,9.99999e-01
6.266218716e-01,4.31506e-01,9.99999e-01,9.99999e-01,9.99709e-01,4.31631e-01,9.99999e-01
6.297549810e-01,4.38808e-01,9.99999e-01,9.99999e-01,9.99893e-01,4.38854e-01,9.99999e-01
6.329037559e-01,4.45958e-01,9.99999e-01,9.99999e-01,9.99789e-01,4.46052e-01,9.99999e-01
6.360682746e-01,4.53141e-01,9.99999e-01,9.99999e-01,9.99820e-01,4.53222e-01,9.99999e-01
6.392486160e-01,4.60255e-01,9.99999e-01,9.99999e-01,9.99767e-01,4.60362e-01,9.99999e-01
6.424448591e-01,4.67325e-01,9.99999e-01,9.99999e-01,9.99687e-01,4.67470e-01,9.99999e-01
6.456570834e-01,4.73857e-01,9.99999e-01,9.99999e-01,9.98550e-01,4.74545e-01,9.99999e-01
6.488853688e-01,4.81075e-01,9.99999e-01,9.99999e-01,9.98944e-01,4.81584e-01,9.99999e-01
6.521297956e-01,4.88059e-01,9.99999e-01,9.99999e-01,9.98923e-01,4.88584e-01,9.99999e-01
6.553904446e-01,4.95014e-01,9.99999e-01,9.99999e-01,9.98926e-01,4.95546e-01,9.99999e-01
6.586673968e-01,5.02005e-01,9.99999e-01,9.99999e-01,9.99082e-01,5.02466e-01,9.99999e-01
6.619607338e-01,5.09083e-01,9.99999e-01,9.99999e-01,9.99488e-01,5.09343e-01,9.99999e-01
6.652705375e-01,5.16018e-01,9.99999e-01,9.99999e-01,9.99692e-01,5.16176e-01,9.99999e-01
6.685968902e-01,5.22895e-01,9.99999e-01,9.99999e-01,9.99869e-01,5.22963e-01,9.99999e-01
6.719398746e-01,5.29667e-01,9.99999e-01,9.99999e-01,9.99933e-01,5.29702e-01,9.99999e-01
6.752995740e-01,5.36373e-01,9.99999e-01,9.99999e-01,9.99963e-01,5.36393e-01,9.99999e-01
6.786760719e-01,5.43005e-01,9.99999e-01,9.99999e-01,9.99947e-01,5.43033e-01,9.99999e-01
6.820694522e-01,5.49573e-01,9.99999e-01,9.99999e-01,9.99910e-01,5.49622e-01,9.99999e-01
6.854797995e-01,5.56095e-01,9.99999e-01,9.99999e-01,9.99885e-01,5.56158e-01,9.99999e-01
6.889071985e-01,5.62484e-01,9.99999e-01,9.99999e-01,9.99720e-01,5.62641e-01,9.99999e-01
6.923517345e-01,5.66491e-01,9.99999e-01,9.99999e-01,9.95469e-01,5.69069e-01,9.99999e-01
6.958134932e-01,5.74098e-01,9.99999e-01,9.99999e-01,9.97665e-01,5.75441e-01,9.99999e-01
6.992925606e-01,5.80455e-01,9.99999e-01,9.99999e-01,9.97761e-01,5.81757e-01,9.99999e-01
7.027890234e-01,5.86396e-01,9.99999e-01,9.99999e-01,9.97246e-01,5.88015e-01,9.99999e-01
7.063029686e-01,5.92839e-01,9.99999e-01,9.99999e-01,9.97684e-01,5.94215e-01,9.99999e-01
7.098344834e-01,5.99022e-01,9.99999e-01,9.99999e-01,9.97778e-01,6.00356e-01,9.99999e-01
7.133836558e-01,6.04630e-01,9.99999e-01,9.99999e-01,9.97020e-01,6.06437e-01,9.99999e-01
7.169505741e-01,5.97900e-01,9.99999e-01,9.99999e-01,9.76229e-01,6.12458e-01,9.99999e-01
7.205353270e-01,6.11256e-01,9.99999e-01,9.99999e-01,9.88418e-01,6.18418e-01,9.99999e-01
7.241380036e-01,6.15082e-01,9.99999e-01,9.99999e-01,9.85208e-01,6.24316e-01,9.99999e-01
7.277586936e-01,6.21739e-01,9.99999e-01,9.99999e-01,9.86648e-01,6.30153e-01,9.99999e-01
7.313974871e-01,6.26940e-01,9.99999e-01,9.99999e-01,9.85867e-01,6.35927e-01,9.99999e-01
7.350544745e-01,6.36671e-01,9.99999e-01,9.99999e-01,9.92257e-01,6.41639e-01,9.99999e-01
7.387297469e-01,6.43600e-01,9.99999e-01,9.99999e-01,9.94303e-01,6.47287e-01,9.99999e-01
7.424233956e-01,6.51053e-01,9.99999e-01,9.99999e-01,9.97213e-01,6.52872e-01,9.99999e-01
7.461355126e-01,6.57281e-01,9.99999e-01,9.99999e-01,9.98309e-01,6.58394e-01,9.99999e-01
7.498661902e-01,6.63330e-01,9.99999e-01,9.99999e-01,9.99213e-01,6.63852e-01,9.99999e-01
7.536155211e-01,6.68988e-01,9.99999e-01,9.99999e-01,9.99613e-01,6.69246e-01,9.99999e-01
7.573835987e-01,6.74442e-01,9.99999e-01,9.99999e-01,9.99800e-01,6.74576e-01,9.99999e-01
7.611705167e-01,6.79758e-01,9.99999e-01,9.99999e-01,9.99876e-01,6.79842e-01,9.99999e-01
7.649763693e-01,6.84991e-01,9.99999e-01,9.99999e-01,9.99922e-01,6.85044e-01,9.99999e-01
7.688012511e-01,6.90144e-01,9.99999e-01,9.99999e-01,9.99945e-01,6.90181e-01,9.99999e-01
7.726452574e-01,6.95224e-01,9.99999e-01,9.99999e-01,9.99955e-01,6.95255e-01,9.99999e-01
7.765084837e-01,7.00220e-01,9.99999e-01,9.99999e-01,9.99936e-01,7.00265e-01,9.99999e-01
7.803910261e-01,6.92486e-01,9.99999e-01,9.82220e-01,9.99725e-01,7.05210e-01,9.99999e-01
7.842929812e-01,6.58281e-01,9.99999e-01,9.27901e-01,9.99043e-01,7.10092e-01,9.99999e-01
7.882144461e-01,6.58216e-01,9.99999e-01,9.22469e-01,9.98037e-01,7.14910e-01,9.99999e-01
7.921555184e-01,6.86342e-01,9.99999e-01,9.54709e-01,9.98926e-01,7.19665e-01,9.99999e-01
7.961162960e-01,7.01047e-01,9.99999e-01,9.69660e-01,9.98092e-01,7.24357e-01,9.99999e-01
8.000968774e-01,7.15334e-01,9.99999e-01,9.83430e-01,9.97803e-01,7.28985e-01,9.99999e-01
8.040973618e-01,7.25650e-01,9.99999e-01,9.91405e-01,9.97801e-01,7.33551e-01,9.99999e-01
8.081178486e-01,7.31479e-01,9.99999e-01,9.96038e-01,9.95028e-01,7.38055e-01,9.99999e-01
8.121584379e-01,7.26320e-01,9.99999e-01,9.98781e-01,9.79401e-01,7.42496e-01,9.99999e-01
8.162192301e-01,7.28521e-01,9.99999e-01,9.99730e-01,9.75685e-01,7.46875e-01,9.99999e-01
8.203003262e-01,7.41908e-01,9.99999e-01,9.99995e-01,9.87643e-01,7.51193e-01,9.99999e-01
8.244018279e-01,7.42558e-01,9.99999e-01,9.99999e-01,9.82934e-01,7.55450e-01,9.99999e-01
8.285238370e-01,7.48559e-01,9.99999e-01,9.99999e-01,9.85403e-01,7.59647e-01,9.99999e-01
8.326664562e-01,7.52530e-01,9.99999e-01,9.99999e-01,9.85266e-01,7.63783e-01,9.99999e-01
8.368297885e-01,7.59784e-01,9.99999e-01,9.99999e-01,9.89483e-01,7.67859e-01,9.99999e-01
8.410139374e-01,7.67048e-01,9.99999e-01,9.99999e-01,9.93744e-01,7.71876e-01,9.99999e-01
8.452190071e-01,7.73454e-01,9.99999e-01,9.99999e-01,9.96931e-01,7.75834e-01,9.99999e-01
8.494451021e-01,7.78343e-01,9.99999e-01,9.99999e-01,9.98216e-01,7.79733e-01,9.99999e-01
8.536923276e-01,7.82750e-01,9.99999e-01,9.99999e-01,9.98946e-01,7.83575e-01,9.99999e-01
8.579607893e-01,7.86847e-01,9.99999e-01,9.99999e-01,9.99350e-01,7.87359e-01,9.99999e-01
8.622505932e-01,7.90760e-01,9.99999e-01,9.99999e-01,9.99587e-01,7.91085e-01,9.99999e-01
8.665618462e-01,7.57331e-01,9.99999e-01,9.53146e-01,9.99744e-01,7.94756e-01,9.99999e-01
8.708946554e-01,6.57746e-01,9.99999e-01,8.24097e-01,9.99706e-01,7.98370e-01,9.99999e-01
8.752491287e-01,6.87501e-01,9.99999e-01,8.57638e-01,9.99608e-01,8.01929e-01,9.99999e-01
8.796253743e-01,7.40574e-01,9.99999e-01,9.19964e-01,9.99456e-01,8.05433e-01,9.99999e-01
8.840235012e-01,7.74332e-01,9.99999e-01,9.57874e-01,9.99379e-01,8.08883e-01,9.99999e-01
8.884436187e-01,7.96855e-01,9.99999e-01,9.83244e-01,9.97716e-01,8.12279e-01,9.99999e-01
8.928858368e-01,7.90840e-01,9.99999e-01,9.93179e-01,9.76245e-01,8.15622e-01,9.99999e-01
8.973502660e-01,7.83619e-01,9.99999e-01,9.98344e-01,9.58472e-01,8.18912e-01,9.99998e-01
9.018370173e-01,8.04455e-01,9.99999e-01,9.99817e-01,9.78653e-01,8.22150e-01,9.99998e-01
9.063462024e-01,8.05910e-01,9.99999e-01,9.95225e-01,9.81075e-01,8.25336e-01,9.99998e-01
9.108779334e-01,7.95600e-01,9.99999e-01,9.89241e-01,9.70702e-01,8.28471e-01,9.99998e-01
9.154323231e-01,8.01983e-01,9.99999e-01,9.97478e-01,9.66848e-01,8.31556e-01,9.99998e-01
9.200094847e-01,7.82675e-01,9.99999e-01,9.62190e-01,9.73949e-01,8.34592e-01,9.99998e-01
9.246095321e-01,7.61875e-01,9.99999e-01,9.48316e-01,9.58703e-01,8.37578e-01,9.99997e-01
9.292325798e-01,6.08688e-01,9.99999e-01,9.58847e-01,7.53387e-01,8.40515e-01,9.99995e-01
9.338787427e-01,5.63655e-01,9.99999e-01,9.60526e-01,6.94101e-01,8.43405e-01,9.99994e-01
9.385481364e-01,7.10223e-01,9.99999e-01,9.70897e-01,8.63642e-01,8.46247e-01,9.99994e-01
9.432408771e-01,6.77944e-01,9.99999e-01,9.82133e-01,8.12571e-01,8.49042e-01,9.99993e-01
9.479570815e-01,6.31663e-01,9.99999e-01,9.90786e-01,7.48253e-01,8.51791e-01,9.99994e-01
9.526968669e-01,6.87403e-01,9.99999e-01,9.95551e-01,8.07874e-01,8.54494e-01,9.99995e-01
9.574603512e-01,7.05600e-01,9.99999e-01,9.98097e-01,8.24709e-01,8.57152e-01,9.99996e-01
9.622476530e-01,7.35229e-01,9.99999e-01,9.99406e-01,8.55644e-01,8.59766e-01,9.99997e-01
9.670588912e-01,7.88202e-01,9.99999e-01,9.99822e-01,9.14190e-01,8.62335e-01,9.99998e-01
9.718941857e-01,8.17904e-01,9.99999e-01,9.99987e-01,9.45715e-01,8.64862e-01,9.99998e-01
9.767536566e-01,8.28090e-01,9.99999e-01,9.99999e-01,9.54740e-01,8.67346e-01,9.99998e-01
9.816374249e-01,8.40511e-01,9.99999e-01,9.99999e-01,9.66340e-01,8.69787e-01,9.99999e-01
9.865456120e-01,8.53747e-01,9.99999e-01,9.99999e-01,9.78857e-01,8.72187e-01,9.99999e-01
9.914783401e-01,8.63076e-01,9.99999e-01,9.99999e-01,9.86884e-01,8.74546e-01,9.99999e-01
9.964357318e-01,8.70586e-01,9.99999e-01,9.99999e-01,9.92838e-01,8.76865e-01,9.99999e-01
1.001417910e+00,8.75368e-01,9.99999e-01,9.99999e-01,9.95703e-01,8.79144e-01,9.99999e-01
1.006425000e+00,8.79222e-01,9.99999e-01,9.99999e-01,9.97547e-01,8.81384e-01,9.99999e-01
1.011457125e+00,8.82241e-01,9.99999e-01,9.99999e-01,9.98478e-01,8.83585e-01,9.99999e-01
1.016514411e+00,8.84832e-01,9.99999e-01,9.99999e-01,9.98966e-01,8.85747e-01,9.99999e-01
1.021596983e+00,8.87117e-01,9.99999e-01,9.99972e-01,9.99176e-01,8.87872e-01,9.99999e-01
1.026704968e+00,8.87735e-01,9.99999e-01,9.98139e-01,9.99357e-01,8.89961e-01,9.99999e-01
1.031838492e+00,8.66497e-01,9.99999e-01,9.71838e-01,9.99533e-01,8.92012e-01,9.99999e-01
1.036997685e+00,2.53975e-01,9.99999e-01,2.84146e-01,9.99722e-01,8.94028e-01,9.99999e-01
1.042182673e+00,3.03219e-01,9.99999e-01,3.38515e-01,9.99668e-01,8.96008e-01,9.99999e-01
1.047393587e+00,2.80855e-01,9.99999e-01,3.12897e-01,9.99560e-01,8.97954e-01,9.99999e-01
1.052630555e+00,4.16256e-02,9.99999e-01,4.62797e-02,9.99396e-01,8.99865e-01,9.99999e-01
1.057893707e+00,7.90591e-02,9.99999e-01,8.77432e-02,9.98992e-01,9.01742e-01,9.99999e-01
1.063183176e+00,1.54587e-01,9.99999e-01,1.71311e-01,9.98343e-01,9.03586e-01,9.99999e-01
1.068499092e+00,2.77492e-01,9.99999e-01,3.07260e-01,9.97228e-01,9.05398e-01,9.99999e-01
1.073841587e+00,4.30417e-01,9.99999e-01,4.75865e-01,9.96752e-01,9.07177e-01,9.99999e-01
1.079210795e+00,5.66664e-01,9.99999e-01,6.25924e-01,9.95847e-01,9.08924e-01,9.99999e-01
1.084606849e+00,7.00989e-01,9.99999e-01,7.74531e-01,9.93713e-01,9.10640e-01,9.99999e-01
1.090029883e+00,7.92102e-01,9.99999e-01,8.76045e-01,9.90948e-01,9.12325e-01,9.99999e-01
1.095480033e+00,8.35550e-01,9.99999e-01,9.36984e-01,9.75542e-01,9.13980e-01,9.99998e-01
1.100957433e+00,8.33266e-01,9.99999e-01,9.69165e-01,9.38874e-01,9.15606e-01,9.99998e-01
1.106462220e+00,7.70441e-01,9.99999e-01,9.87148e-01,8.50724e-01,9.17202e-01,9.99997e-01
1.111994531e+00,6.50299e-01,9.99999e-01,9.95218e-01,7.11068e-01,9.18769e-01,9.99994e-01
1.117554504e+00,5.28075e-01,9.99999e-01,9.98833e-01,5.74408e-01,9.20307e-01,9.99992e-01
1.123142276e+00,6.09301e-01,9.99999e-01,9.99923e-01,6.61017e-01,9.21818e-01,9.99991e-01
1.128757988e+00,7.10370e-01,9.99999e-01,9.99999e-01,7.69386e-01,9.23302e-01,9.99990e-01
1.134401778e+00,4.95959e-01,9.99999e-01,9.99999e-01,5.36317e-01,9.24758e-01,9.99989e-01
1.140073787e+00,7.93574e-01,9.99999e-01,9.99999e-01,8.56823e-01,9.26188e-01,9.99991e-01
1.145774156e+00,6.70083e-01,9.99999e-01,9.99999e-01,7.22394e-01,9.27592e-01,9.99992e-01
1.151503026e+00,6.45058e-01,9.99999e-01,9.99999e-01,6.94383e-01,9.28970e-01,9.99993e-01
1.157260541e+00,6.89934e-01,9.99999e-01,9.99999e-01,7.41610e-01,9.30323e-01,9.99995e-01
1.163046844e+00,7.47603e-01,9.99999e-01,9.99999e-01,8.02450e-01,9.31651e-01,9.99996e-01
1.168862078e+00,8.01414e-01,9.99999e-01,9.99999e-01,8.59006e-01,9.32955e-01,9.99998e-01
1.174706389e+00,8.50617e-01,9.99999e-01,9.99999e-01,9.10495e-01,9.34235e-01,9.99998e-01
1.180579921e+00,8.83639e-01,9.99999e-01,9.99999e-01,9.44572e-01,9.35491e-01,9.99999e-01
1.186482820e+00,9.07052e-01,9.99999e-01,9.99995e-01,9.68327e-01,9.36724e-01,9.99999e-01
1.192415234e+00,9.14357e-01,9.99999e-01,9.93301e-01,9.81399e-01,9.37934e-01,9.99999e-01
1.198377311e+00,5.41531e-01,9.99999e-01,5.84363e-01,9.84286e-01,9.39122e-01,9.99999e-01
1.204369197e+00,1.21979e-06,9.99999e-01,1.30852e-06,9.85121e-01,9.40288e-01,9.99999e-01
1.210391043e+00,4.17151e-21,9.99999e-01,4.46637e-21,9.85774e-01,9.41432e-01,9.99999e-01
1.216442998e+00,1.62760e-18,9.99999e-01,1.73986e-18,9.87898e-01,9.42555e-01,9.99999e-01
1.222525213e+00,3.01637e-18,9.99999e-01,3.21234e-18,9.90567e-01,9.43657e-01,9.99999e-01
1.228637839e+00,4.86358e-14,9.99999e-01,5.17227e-14,9.93440e-01,9.44739e-01,9.99999e-01
