#,Wave/freq,Total,O2,CO2,H2O,Rayleigh,CIA
4.000000000e-01,2.15735e-02,9.99999e-01,9.99999e-01,9.99991e-01,2.15736e-02,9.99999e-01
4.020000000e-01,2.32736e-02,9.99999e-01,9.99999e-01,9.99994e-01,2.32738e-02,9.99999e-01
4.040100000e-01,2.50683e-02,9.99999e-01,9.99999e-01,9.99997e-01,2.50683e-02,9.99999e-01
4.060300500e-01,2.69616e-02,9.99999e-01,9.99999e-01,9.99999e-01,2.69616e-02,9.99999e-01
4.080602003e-01,2.89563e-02,9.99999e-01,9.99999e-01,9.99999e-01,2.89563e-02,9.99999e-01
4.101005013e-01,3.10547e-02,9.99999e-01,9.99999e-01,9.99999e-01,3.10547e-02,9.99999e-01
4.121510038e-01,3.32592e-02,9.99999e-01,9.99999e-01,9.99999e-01,3.32592e-02,9.99999e-01
4.142117588e-01,3.55718e-02,9.99999e-01,9.99999e-01,9.99997e-01,3.55719e-02,9.99999e-01
4.162828176e-01,3.79947e-02,9.99999e-01,9.99999e-01,9.99990e-01,3.79950e-02,9.99999e-01
4.183642317e-01,4.05301e-02,9.99999e-01,9.99999e-01,9.99993e-01,4.05304e-02,9.99999e-01
4.204560528e-01,4.31796e-02,9.99999e-01,9.99999e-01,9.99996e-01,4.31798e-02,9.99999e-01
4.225583331e-01,4.59448e-02,9.99999e-01,9.99999e-01,9.99998e-01,4.59448e-02,9.99999e-01
4.246711247e-01,4.88271e-02,9.99999e-01,9.99999e-01,9.99998e-01,4.88271e-02,9.99999e-01
4.267944804e-01,5.18278e-02,9.99999e-01,9.99999e-01,9.99998e-01,5.18278e-02,9.99999e-01
4.289284528e-01,5.49482e-02,9.99999e-01,9.99999e-01,9.99998e-01,5.49482e-02,9.99999e-01
4.310730950e-01,5.81892e-02,9.99999e-01,9.99999e-01,9.99999e-01,5.81892e-02,9.99999e-01
4.332284605e-01,6.15517e-02,9.99999e-01,9.99999e-01,9.99999e-01,6.15517e-02,9.99999e-01
4.353946028e-01,6.50363e-02,9.99999e-01,9.99999e-01,9.99999e-01,6.50363e-02,9.99999e-01
4.375715758e-01,6.86433e-02,9.99999e-01,9.99999e-01,9.99998e-01,6.86434e-02,9.99999e-01
4.397594337e-01,7.23728e-02,9.99999e-01,9.99999e-01,9.99991e-01,7.23734e-02,9.99999e-01
4.419582309e-01,7.62232e-02,9.99999e-01,9.99999e-01,9.99958e-01,7.62263e-02,9.99999e-01
4.441680220e-01,8.01996e-02,9.99999e-01,9.99999e-01,9.99966e-01,8.02022e-02,9.99999e-01
4.463888621e-01,8.42979e-02,9.99999e-01,9.99999e-01,9.99965e-01,8.43007e-02,9.99999e-01
4.486208064e-01,8.85196e-02,9.99999e-01,9.99999e-01,9.99978e-01,8.85215e-02,9.99999e-01
4.508639105e-01,9.28630e-02,9.99999e-01,9.99999e-01,9.99989e-01,9.28639e-02,9.99999e-01
4.531182300e-01,9.73269e-02,9.99999e-01,9.99999e-01,9.99995e-01,9.73273e-02,9.99999e-01
4.553838212e-01,1.01910e-01,9.99999e-01,9.99999e-01,9.99996e-01,1.01911e-01,9.99999e-01
4.576607403e-01,1.06613e-01,9.99999e-01,9.99999e-01,9.99998e-01,1.06613e-01,9.99999e-01
4.599490440e-01,1.11433e-01,9.99999e-01,9.99999e-01,9.99998e-01,1.11433e-01,9.99999e-01
4.622487892e-01,1.16369e-01,9.99999e-01,9.99999e-01,9.99999e-01,1.16369e-01,9.99999e-01
4.645600332e-01,1.21419e-01,9.99999e-01,9.99999e-01,9.99998e-01,1.21420e-01,9.99999e-01
4.668828333e-01,1.26582e-01,9.99999e-01,9.99999e-01,9.99989e-01,1.26583e-01,9.99999e-01
4.692172475e-01,1.31855e-01,9.99999e-01,9.99999e-01,9.99978e-01,1.31858e-01,9.99999e-01
4.715633337e-01,1.37240e-01,9.99999e-01,9.99999e-01,9.99985e-01,1.37242e-01,9.99999e-01
4.739211504e-01,1.42731e-01,9.99999e-01,9.99999e-01,9.99986e-01,1.42733e-01,9.99999e-01
4.762907561e-01,1.48327e-01,9.99999e-01,9.99999e-01,9.99992e-01,1.48328e-01,9.99999e-01
4.786722099e-01,1.54026e-01,9.99999e-01,9.99999e-01,9.99996e-01,1.54026e-01,9.99999e-01
4.810655710e-01,1.59823e-01,9.99999e-01,9.99999e-01,9.99998e-01,1.59824e-01,9.99999e-01
4.834708988e-01,1.65717e-01,9.99999e-01,9.99999e-01,9.99991e-01,1.65719e-01,9.99999e-01
4.858882533e-01,1.71705e-01,9.99999e-01,9.99999e-01,9.99984e-01,1.71708e-01,9.99999e-01
4.883176946e-01,1.77787e-01,9.99999e-01,9.99999e-01,9.99987e-01,1.77789e-01,9.99999e-01
4.907592831e-01,1.83957e-01,9.99999e-01,9.99999e-01,9.99988e-01,1.83959e-01,9.99999e-01
4.932130795e-01,1.90214e-01,9.99999e-01,9.99999e-01,9.99991e-01,1.90215e-01,9.99999e-01
4.956791449e-01,1.96553e-01,9.99999e-01,9.99999e-01,9.99995e-01,1.96554e-01,9.99999e-01
4.981575406e-01,2.02968e-01,9.99999e-01,9.99999e-01,9.99978e-01,2.02972e-01,9.99999e-01
5.006483283e-01,2.09456e-01,9.99999e-01,9.99999e-01,9.99944e-01,2.09468e-01,9.99999e-01
5.031515699e-01,2.15976e-01,9.99999e-01,9.99999e-01,9.99720e-01,2.16036e-01,9.99999e-01
5.056673278e-01,2.22642e-01,9.99999e-01,9.99999e-01,9.99852e-01,2.22675e-01,9.99999e-01
5.081956644e-01,2.29338e-01,9.99999e-01,9.99999e-01,9.99813e-01,2.29380e-01,9.99999e-01
5.107366428e-01,2.36120e-01,9.99999e-01,9.99999e-01,9.99873e-01,2.36149e-01,9.99999e-01
5.132903260e-01,2.42961e-01,9.99999e-01,9.99999e-01,9.99927e-01,2.42979e-01,9.99999e-01
5.158567776e-01,2.49857e-01,9.99999e-01,9.99999e-01,9.99969e-01,2.49865e-01,9.99999e-01
5.184360615e-01,2.56801e-01,9.99999e-01,9.99999e-01,9.99987e-01,2.56804e-01,9.99999e-01
5.210282418e-01,2.63792e-01,9.99999e-01,9.99999e-01,9.99994e-01,2.63793e-01,9.99999e-01
5.236333830e-01,2.70824e-01,9.99999e-01,9.99999e-01,9.99981e-01,2.70829e-01,9.99999e-01
5.262515499e-01,2.77904e-01,9.99999e-01,9.99999e-01,9.99988e-01,2.77908e-01,9.99999e-01
5.288828077e-01,2.85023e-01,9.99999e-01,9.99999e-01,9.99989e-01,2.85026e-01,9.99999e-01
5.315272217e-01,2.92178e-01,9.99999e-01,9.99999e-01,9.99990e-01,2.92181e-01,9.99999e-01
5.341848578e-01,2.99367e-01,9.99999e-01,9.99999e-01,9.99993e-01,2.99369e-01,9.99999e-01
5.368557821e-01,3.06580e-01,9.99999e-01,9.99999e-01,9.99978e-01,3.06586e-01,9.99999e-01
5.395400610e-01,3.13807e-01,9.99999e-01,9.99999e-01,9.99923e-01,3.13830e-01,9.99999e-01
5.422377613e-01,3.21065e-01,9.99999e-01,9.99999e-01,9.99900e-01,3.21097e-01,9.99999e-01
5.449489501e-01,3.28354e-01,9.99999e-01,9.99999e-01,9.99907e-01,3.28384e-01,9.99999e-01
5.476736949e-01,3.35659e-01,9.99999e-01,9.99999e-01,9.99917e-01,3.35687e-01,9.99999e-01
5.504120634e-01,3.42983e-01,9.99999e-01,9.99999e-01,9.99940e-01,3.43003e-01,9.99999e-01
5.531641237e-01,3.50319e-01,9.99999e-01,9.99999e-01,9.99969e-01,3.50330e-01,9.99999e-01
5.559299443e-01,3.57659e-01,9.99999e-01,9.99999e-01,9.99985e-01,3.57664e-01,9.99999e-01
5.587095940e-01,3.64998e-01,9.99999e-01,9.99999e-01,9.99990e-01,3.65002e-01,9.99999e-01
5.615031420e-01,3.72337e-01,9.99999e-01,9.99999e-01,9.99989e-01,3.72341e-01,9.99999e-01
5.643106577e-01,3.79674e-01,9.99999e-01,9.99999e-01,9.99988e-01,3.79678e-01,9.99999e-01
5.671322110e-01,3.86958e-01,9.99999e-01,9.99999e-01,9.99863e-01,3.87011e-01,9.99999e-01
5.699678720e-01,3.94278e-01,9.99999e-01,9.99999e-01,9.99851e-01,3.94336e-01,9.99999e-01
5.728177114e-01,4.01590e-01,9.99999e-01,9.99999e-01,9.99846e-01,4.01651e-01,9.99999e-01
5.756818000e-01,4.08896e-01,9.99999e-01,9.99999e-01,9.99859e-01,4.08954e-01,9.99999e-01
5.785602090e-01,4.16190e-01,9.99999e-01,9.99999e-01,9.99877e-01,4.16241e-01,9.99999e-01
5.814530100e-01,4.23458e-01,9.99999e-01,9.99999e-01,9.99876e-01,4.23510e-01,9.99999e-01
5.843602750e-01,4.30696e-01,9.99999e-01,9.99999e-01,9.99854e-01,4.30758e-01,9.99999e-01
5.872820764e-01,4.37434e-01,9.99999e-01,9.99999e-01,9.98742e-01,4.37984e-01,9.99999e-01
5.902184868e-01,4.44503e-01,9.99999e-01,9.99999e-01,9.98466e-01,4.45185e-01,9.99999e-01
5.931695792e-01,4.51870e-01,9.99999e-01,9.99999e-01,9.98918e-01,4.52359e-01,9.99999e-01
5.961354271e-01,4.58957e-01,9.99999e-01,9.99999e-01,9.98813e-01,4.59503e-01,9.99999e-01
5.991161043e-01,4.66211e-01,9.99999e-01,9.99999e-01,9.99133e-01,4.66615e-01,9.99999e-01
6.021116848e-01,4.73461e-01,9.99999e-01,9.99999e-01,9.99507e-01,4.73694e-01,9.99999e-01
6.051222432e-01,4.80617e-01,9.99999e-01,9.99999e-01,9.99750e-01,4.80737e-01,9.99999e-01
6.081478544e-01,4.87690e-01,9.99999e-01,9.99999e-01,9.99892e-01,4.87742e-01,9.99999e-01
6.111885937e-01,4.94686e-01,9.99999e-01,9.99999e-01,9.99954e-01,4.94708e-01,9.99999e-01
6.142445367e-01,5.01623e-01,9.99999e-01,9.99999e-01,9.99979e-01,5.01634e-01,9.99999e-01
6.173157594e-01,5.08510e-01,9.99999e-01,9.99999e-01,9.99988e-01,5.08516e-01,9.99999e-01
6.204023382e-01,5.15349e-01,9.99999e-01,9.99999e-01,9.99990e-01,5.15354e-01,9.99999e-01
6.235043498e-01,5.22125e-01,9.99999e-01,9.99999e-01,9.99958e-01,5.22147e-01,9.99999e-01
6.266218716e-01,5.28775e-01,9.99999e-01,9.99999e-01,9.99779e-01,5.28892e-01,9.99999e-01
6.297549810e-01,5.35545e-01,9.99999e-01,9.99999e-01,9.99918e-01,5.35588e-01,9.99999e-01
6.329037559e-01,5.42148e-01,9.99999e-01,9.99999e-01,9.99839e-01,5.42235e-01,9.99999e-01
6.360682746e-01,5.48755e-01,9.99999e-01,9.99999e-01,9.99863e-01,5.48830e-01,9.99999e-01
6.392486160e-01,5.55275e-01,9.99999e-01,9.99999e-01,9.99823e-01,5.55373e-01,9.99999e-01
6.424448591e-01,5.61730e-01,9.99999e-01,9.99999e-01,9.99765e-01,5.61862e-01,9.99999e-01
6.456570834e-01,5.67678e-01,9.99999e-01,9.99999e-01,9.98911e-01,5.68296e-01,9.99999e-01
6.488853688e-01,5.74135e-01,9.99999e-01,9.99999e-01,9.99059e-01,5.74676e-01,9.99999e-01
6.521297956e-01,5.80522e-01,9.99999e-01,9.99999e-01,9.99180e-01,5.80998e-01,9.99999e-01
6.553904446e-01,5.86789e-01,9.99999e-01,9.99999e-01,9.99191e-01,5.87263e-01,9.99999e-01
6.586673968e-01,5.93056e-01,9.99999e-01,9.99999e-01,9.99301e-01,5.93470e-01,9.99999e-01
6.619607338e-01,5.99377e-01,9.99999e-01,9.99999e-01,9.99596e-01,5.99618e-01,9.99999e-01
6.652705375e-01,6.05565e-01,9.99999e-01,9.99999e-01,9.99765e-01,6.05707e-01,9.99999e-01
6.685968902e-01,6.11668e-01,9.99999e-01,9.99999e-01,9.99890e-01,6.11735e-01,9.99999e-01
6.719398746e-01,6.17671e-01,9.99999e-01,9.99999e-01,9.99949e-01,6.17702e-01,9.99999e-01
6.752995740e-01,6.23591e-01,9.99999e-01,9.99999e-01,9.99972e-01,6.23608e-01,9.99999e-01
6.786760719e-01,6.29428e-01,9.99999e-01,9.99999e-01,9.99960e-01,6.29452e-01,9.99999e-01
6.820694522e-01,6.35191e-01,9.99999e-01,9.99999e-01,9.99932e-01,6.35234e-01,9.99999e-01
6.854797995e-01,6.40898e-01,9.99999e-01,9.99999e-01,9.99913e-01,6.40953e-01,9.99999e-01
6.889071985e-01,6.46475e-01,9.99999e-01,9.99999e-01,9.99792e-01,6.46609e-01,9.99999e-01
6.923517345e-01,6.49979e-01,9.99999e-01,9.99999e-01,9.96590e-01,6.52202e-01,9.99999e-01
6.958134932e-01,6.56547e-01,9.99999e-01,9.99999e-01,9.98199e-01,6.57731e-01,9.99999e-01
6.992925606e-01,6.62080e-01,9.99999e-01,9.99999e-01,9.98315e-01,6.63197e-01,9.99999e-01
7.027890234e-01,6.67200e-01,9.99999e-01,9.99999e-01,9.97907e-01,6.68599e-01,9.99999e-01
7.063029686e-01,6.72752e-01,9.99999e-01,9.99999e-01,9.98242e-01,6.73936e-01,9.99999e-01
7.098344834e-01,6.78065e-01,9.99999e-01,9.99999e-01,9.98313e-01,6.79210e-01,9.99999e-01
7.133836558e-01,6.82895e-01,9.99999e-01,9.99999e-01,9.97772e-01,6.84420e-01,9.99999e-01
7.169505741e-01,6.77176e-01,9.99999e-01,9.99999e-01,9.82032e-01,6.89565e-01,9.99999e-01
7.205353270e-01,6.88440e-01,9.99999e-01,9.99999e-01,9.91065e-01,6.94646e-01,9.99999e-01
7.241380036e-01,6.91827e-01,9.99999e-01,9.99999e-01,9.88799e-01,6.99664e-01,9.99999e-01
7.277586936e-01,6.97486e-01,9.99999e-01,9.99999e-01,9.89879e-01,7.04617e-01,9.99999e-01
7.313974871e-01,7.01848e-01,9.99999e-01,9.99999e-01,9.89204e-01,7.09507e-01,9.99999e-01
7.350544745e-01,7.10121e-01,9.99999e-01,9.99999e-01,9.94103e-01,7.14333e-01,9.99999e-01
7.387297469e-01,7.15974e-01,9.99999e-01,9.99999e-01,9.95659e-01,7.19095e-01,9.99999e-01
7.424233956e-01,7.22254e-01,9.99999e-01,9.99999e-01,9.97871e-01,7.23794e-01,9.99999e-01
7.461355126e-01,7.27492e-01,9.99999e-01,9.99999e-01,9.98711e-01,7.28430e-01,9.99999e-01
7.498661902e-01,7.32563e-01,9.99999e-01,9.99999e-01,9.99398e-01,7.33004e-01,9.99999e-01
7.536155211e-01,7.37298e-01,9.99999e-01,9.99999e-01,9.99705e-01,7.37515e-01,9.99999e-01
7.573835987e-01,7.41851e-01,9.99999e-01,9.99999e-01,9.99848e-01,7.41963e-01,9.99999e-01
7.611705167e-01,7.46280e-01,9.99999e-01,9.99999e-01,9.99905e-01,7.46350e-01,9.99999e-01
7.649763693e-01,7.50632e-01,9.99999e-01,9.99999e-01,9.99940e-01,7.50676e-01,9.99999e-01
7.688012511e-01,7.54909e-01,9.99999e-01,9.99999e-01,9.99958e-01,7.54940e-01,9.99999e-01
7.726452574e-01,7.59118e-01,9.99999e-01,9.99999e-01,9.99965e-01,7.59144e-01,9.99999e-01
7.765084837e-01,7.63251e-01,9.99999e-01,9.99999e-01,9.99951e-01,7.63287e-01,9.99999e-01
7.803910261e-01,7.57255e-01,9.99999e-01,9.87017e-01,9.99794e-01,7.67371e-01,9.99999e-01
7.842929812e-01,7.27888e-01,9.99999e-01,9.44264e-01,9.99282e-01,7.71395e-01,9.99999e-01
7.882144461e-01,7.28133e-01,9.99999e-01,9.40467e-01,9.98512e-01,7.75360e-01,9.99999e-01
7.921555184e-01,7.51784e-01,9.99999e-01,9.65517e-01,9.99180e-01,7.79266e-01,9.99999e-01
7.961162960e-01,7.63804e-01,9.99999e-01,9.76738e-01,9.98563e-01,7.83114e-01,9.99999e-01
8.000968774e-01,7.75658e-01,9.99999e-01,9.87348e-01,9.98334e-01,7.86905e-01,9.99999e-01
8.040973618e-01,7.84125e-01,9.99999e-01,9.93411e-01,9.98336e-01,7.90639e-01,9.99999e-01
8.081178486e-01,7.88963e-01,9.99999e-01,9.96981e-01,9.96265e-01,7.94316e-01,9.99999e-01
8.121584379e-01,7.84796e-01,9.99999e-01,9.99060e-01,9.84450e-01,7.97937e-01,9.99999e-01
8.162192301e-01,7.86445e-01,9.99999e-01,9.99792e-01,9.81414e-01,8.01503e-01,9.99999e-01
8.203003262e-01,7.97572e-01,9.99999e-01,9.99996e-01,9.90758e-01,8.05014e-01,9.99999e-01
8.244018279e-01,7.97817e-01,9.99999e-01,9.99999e-01,9.86823e-01,8.08470e-01,9.99999e-01
8.285238370e-01,8.02895e-01,9.99999e-01,9.99999e-01,9.88942e-01,8.11872e-01,9.99999e-01
8.326664562e-01,8.06076e-01,9.99999e-01,9.99999e-01,9.88782e-01,8.15221e-01,9.99999e-01
8.368297885e-01,8.11955e-01,9.99999e-01,9.99999e-01,9.91982e-01,8.18518e-01,9.99999e-01
8.410139374e-01,8.17843e-01,9.99999e-01,9.99999e-01,9.95230e-01,8.21762e-01,9.99999e-01
8.452190071e-01,8.23023e-01,9.99999e-01,9.99999e-01,9.97658e-01,8.24954e-01,9.99999e-01
8.494451021e-01,8.26974e-01,9.99999e-01,9.99999e-01,9.98645e-01,8.28096e-01,9.99999e-01
8.536923276e-01,8.30520e-01,9.99999e-01,9.99999e-01,9.99196e-01,8.31187e-01,9.99999e-01
8.579607893e-01,8.33817e-01,9.99999e-01,9.99999e-01,9.99506e-01,8.34228e-01,9.99999e-01
8.622505932e-01,8.36957e-01,9.99999e-01,9.99999e-01,9.99685e-01,8.37220e-01,9.99999e-01
8.665618462e-01,8.09514e-01,9.99999e-01,9.63702e-01,9.99805e-01,8.40163e-01,9.99999e-01
8.708946554e-01,7.26876e-01,9.99999e-01,8.62376e-01,9.99778e-01,8.43059e-01,9.99999e-01
8.752491287e-01,7.51829e-01,9.99999e-01,8.89044e-01,9.99703e-01,8.45906e-01,9.99999e-01
8.796253743e-01,7.95942e-01,9.99999e-01,9.38208e-01,9.99590e-01,8.48707e-01,9.99999e-01
8.840235012e-01,8.23562e-01,9.99999e-01,9.67683e-01,9.99531e-01,8.51461e-01,9.99999e-01
8.884436187e-01,8.41758e-01,9.99999e-01,9.87129e-01,9.98310e-01,8.54170e-01,9.99999e-01
8.928858368e-01,8.37124e-01,9.99999e-01,9.94782e-01,9.82104e-01,8.56834e-01,9.99999e-01
8.973502660e-01,8.31139e-01,9.99999e-01,9.98724e-01,9.68281e-01,8.59453e-01,9.99999e-01
9.018370173e-01,8.47765e-01,9.99999e-01,9.99858e-01,9.83591e-01,8.62028e-01,9.99999e-01
9.063462024e-01,8.49241e-01,9.99999e-01,9.96457e-01,9.85733e-01,8.64559e-01,9.99998e-01
9.108779334e-01,8.40820e-01,9.99999e-01,9.91784e-01,9.77744e-01,8.67048e-01,9.99998e-01
9.154323231e-01,8.45902e-01,9.99999e-01,9.98053e-01,9.74747e-01,8.69495e-01,9.99998e-01
9.200094847e-01,8.30447e-01,9.99999e-01,9.71380e-01,9.80110e-01,8.71900e-01,9.99998e-01
9.246095321e-01,8.13938e-01,9.99999e-01,9.60373e-01,9.69128e-01,8.74264e-01,9.99998e-01
9.292325798e-01,6.86317e-01,9.99999e-01,9.68857e-01,8.06946e-01,8.76588e-01,9.99996e-01
9.338787427e-01,6.45092e-01,9.99999e-01,9.69779e-01,7.55770e-01,8.78871e-01,9.99995e-01
9.385481364e-01,7.70254e-01,9.99999e-01,9.77774e-01,8.93574e-01,8.81116e-01,9.99995e-01
9.432408771e-01,7.44065e-01,9.99999e-01,9.86328e-01,8.53756e-01,8.83321e-01,9.99995e-01
9.479570815e-01,7.04530e-01,9.99999e-01,9.92979e-01,8.01132e-01,8.85488e-01,9.99995e-01
9.526968669e-01,7.50605e-01,9.99999e-01,9.96604e-01,8.48407e-01,8.87618e-01,9.99996e-01
9.574603512e-01,7.67070e-01,9.99999e-01,9.98546e-01,8.63379e-01,8.89711e-01,9.99997e-01
9.622476530e-01,7.91305e-01,9.99999e-01,9.99545e-01,8.87739e-01,8.91767e-01,9.99998e-01
9.670588912e-01,8.34626e-01,9.99999e-01,9.99863e-01,9.33933e-01,8.93787e-01,9.99998e-01
9.718941857e-01,8.58589e-01,9.99999e-01,9.99989e-01,9.58500e-01,8.95771e-01,9.99998e-01
9.767536566e-01,8.66712e-01,9.99999e-01,9.99999e-01,9.65457e-01,8.97721e-01,9.99999e-01
9.816374249e-01,8.76496e-01,9.99999e-01,9.99999e-01,9.74278e-01,8.99636e-01,9.99999e-01
9.865456120e-01,8.86972e-01,9.99999e-01,9.99999e-01,9.83864e-01,9.01518e-01,9.99999e-01
9.914783401e-01,8.94340e-01,9.99999e-01,9.99999e-01,9.90008e-01,9.03366e-01,9.99999e-01
9.964357318e-01,9.00245e-01,9.99999e-01,9.99999e-01,9.94546e-01,9.05181e-01,9.99999e-01
1.001417910e+00,9.03997e-01,9.99999e-01,9.99999e-01,9.96728e-01,9.06964e-01,9.99999e-01
1.006425000e+00,9.07023e-01,9.99999e-01,9.99999e-01,9.98137e-01,9.08715e-01,9.99999e-01
1.011457125e+00,9.09380e-01,9.99999e-01,9.99999e-01,9.98841e-01,9.10435e-01,9.99999e-01
1.016514411e+00,9.11407e-01,9.99999e-01,9.99999e-01,9.99214e-01,9.12124e-01,9.99999e-01
1.021596983e+00,9.13195e-01,9.99999e-01,9.99982e-01,9.99373e-01,9.13782e-01,9.99999e-01
1.026704968e+00,9.13709e-01,9.99999e-01,9.98626e-01,9.99511e-01,9.15411e-01,9.99999e-01
1.031838492e+00,8.97789e-01,9.99999e-01,9.79380e-01,9.99644e-01,9.17011e-01,9.99999e-01
1.036997685e+00,3.23777e-01,9.99999e-01,3.52538e-01,9.99789e-01,9.18581e-01,9.99999e-01
1.042182673e+00,3.99374e-01,9.99999e-01,4.34147e-01,9.99749e-01,9.20123e-01,9.99999e-01
1.047393587e+00,3.58895e-01,9.99999e-01,3.89528e-01,9.99667e-01,9.21638e-01,9.99999e-01
1.052630555e+00,8.07366e-02,9.99999e-01,8.74926e-02,9.99543e-01,9.23124e-01,9.99999e-01
1.057893707e+00,1.38692e-01,9.99999e-01,1.50098e-01,9.99239e-01,9.24584e-01,9.99999e-01
1.063183176e+00,2.36147e-01,9.99999e-01,2.55283e-01,9.98747e-01,9.26017e-01,9.99999e-01
1.068499092e+00,3.76674e-01,9.99999e-01,4.06943e-01,9.97901e-01,9.27424e-01,9.99999e-01
1.073841587e+00,5.24971e-01,9.99999e-01,5.66499e-01,9.97546e-01,9.28805e-01,9.99999e-01
1.079210795e+00,6.48600e-01,9.99999e-01,6.99423e-01,9.96849e-01,9.30161e-01,9.99999e-01
1.084606849e+00,7.62928e-01,9.99999e-01,8.22884e-01,9.95238e-01,9.31492e-01,9.99999e-01
1.090029883e+00,8.37714e-01,9.99999e-01,9.04160e-01,9.93188e-01,9.32799e-01,9.99999e-01
1.095480033e+00,8.72488e-01,9.99999e-01,9.51579e-01,9.81513e-01,9.34082e-01,9.99999e-01
1.100957433e+00,8.70959e-01,9.99999e-01,9.76419e-01,9.53567e-01,9.35341e-01,9.99998e-01
1.106462220e+00,8.21186e-01,9.99999e-01,9.90178e-01,8.85372e-01,9.36576e-01,9.99997e-01
1.111994531e+00,7.21173e-01,9.99999e-01,9.96350e-01,7.71751e-01,9.37789e-01,9.99995e-01
1.117554504e+00,6.14705e-01,9.99999e-01,9.99104e-01,6.55195e-01,9.38980e-01,9.99994e-01
1.123142276e+00,6.83028e-01,9.99999e-01,9.99940e-01,7.26547e-01,9.40148e-01,9.99993e-01
1.128757988e+00,7.70629e-01,9.99999e-01,9.99999e-01,8.18695e-01,9.41295e-01,9.99993e-01
1.134401778e+00,5.73627e-01,9.99999e-01,9.99999e-01,6.08678e-01,9.42421e-01,9.99992e-01
1.140073787e+00,8.39205e-01,9.99999e-01,9.99999e-01,8.89440e-01,9.43525e-01,9.99993e-01
1.145774156e+00,7.36604e-01,9.99999e-01,9.99999e-01,7.79801e-01,9.44609e-01,9.99994e-01
1.151503026e+00,7.15202e-01,9.99999e-01,9.99999e-01,7.56292e-01,9.45673e-01,9.99995e-01
1.157260541e+00,7.53996e-01,9.99999e-01,9.99999e-01,7.96434e-01,9.46717e-01,9.99996e-01
1.163046844e+00,8.01306e-01,9.99999e-01,9.99999e-01,8.45491e-01,9.47741e-01,9.99997e-01
1.168862078e+00,8.45102e-01,9.99999e-01,9.99999e-01,8.90756e-01,9.48747e-01,9.99998e-01
1.174706389e+00,8.84336e-01,9.99999e-01,9.99999e-01,9.31141e-01,9.49733e-01,9.99998e-01
1.180579921e+00,9.10324e-01,9.99999e-01,9.99999e-01,9.57528e-01,9.50701e-01,9.99999e-01
1.186482820e+00,9.28654e-01,9.99999e-01,9.99997e-01,9.75836e-01,9.51651e-01,9.99999e-01
1.192415234e+00,9.34499e-01,9.99999e-01,9.95075e-01,9.85849e-01,9.52583e-01,9.99999e-01
1.198377311e+00,5.68477e-01,9.99999e-01,6.02289e-01,9.88075e-01,9.53497e-01,9.99999e-01
1.204369197e+00,1.43246e-05,9.99999e-01,1.51078e-05,9.88695e-01,9.54395e-01,9.99999e-01
1.210391043e+00,1.52890e-16,9.99999e-01,1.61015e-16,9.89191e-01,9.55275e-01,9.99999e-01
1.216442998e+00,1.46449e-14,9.99999e-01,1.54048e-14,9.90784e-01,9.56139e-01,9.99999e-01
1.222525213e+00,2.51967e-14,9.99999e-01,2.64320e-14,9.92826e-01,9.56986e-01,9.99999e-01
1.228637839e+00,5.72060e-11,9.99999e-01,5.99409e-11,9.95017e-01,9.57818e-01,9.99999e-01
