#,Wave/freq,Total,O2,CO2,H2O,Rayleigh,CIA
4.000000000e-01,2.18312e-04,9.99999e-01,9.99999e-01,9.99982e-01,2.18316e-04,9.99999e-01
4.020000000e-01,2.57911e-04,9.99999e-01,9.99999e-01,9.99989e-01,2.57913e-04,9.99999e-01
4.040100000e-01,3.03637e-04,9.99999e-01,9.99999e-01,9.99995e-01,3.03638e-04,9.99999e-01
4.060300500e-01,3.56318e-04,9.99999e-01,9.99999e-01,9.99998e-01,3.56318e-04,9.99999e-01
4.080602003e-01,4.16819e-04,9.99999e-01,9.99999e-01,9.99999e-01,4.16819e-04,9.99999e-01
4.101005013e-01,4.86085e-04,9.99999e-01,9.99999e-01,9.99999e-01,4.86085e-04,9.99999e-01
4.121510038e-01,5.65142e-04,9.99999e-01,9.99999e-01,9.99998e-01,5.65142e-04,9.99999e-01
4.142117588e-01,6.55102e-04,9.99999e-01,9.99999e-01,9.99995e-01,6.55105e-04,9.99999e-01
4.162828176e-01,7.57160e-04,9.99999e-01,9.99999e-01,9.99979e-01,7.57175e-04,9.99999e-01
4.183642317e-01,8.72639e-04,9.99999e-01,9.99999e-01,9.99987e-01,8.72650e-04,9.99999e-01
4.204560528e-01,1.00291e-03,9.99999e-01,9.99999e-01,9.99992e-01,1.00292e-03,9.99999e-01
4.225583331e-01,1.14947e-03,9.99999e-01,9.99999e-01,9.99996e-01,1.14947e-03,9.99999e-01
4.246711247e-01,1.31389e-03,9.99999e-01,9.99999e-01,9.99997e-01,1.31390e-03,9.99999e-01
4.267944804e-01,1.49787e-03,9.99999e-01,9.99999e-01,9.99996e-01,1.49788e-03,9.99999e-01
4.289284528e-01,1.70320e-03,9.99999e-01,9.99999e-01,9.99996e-01,1.70321e-03,9.99999e-01
4.310730950e-01,1.93178e-03,9.99999e-01,9.99999e-01,9.99998e-01,1.93178e-03,9.99999e-01
4.332284605e-01,2.18558e-03,9.99999e-01,9.99999e-01,9.99999e-01,2.18558e-03,9.99999e-01
4.353946028e-01,2.46670e-03,9.99999e-01,9.99999e-01,9.99999e-01,2.46670e-03,9.99999e-01
4.375715758e-01,2.77733e-03,9.99999e-01,9.99999e-01,9.99997e-01,2.77734e-03,9.99999e-01
4.397594337e-01,3.11972e-03,9.99999e-01,9.99999e-01,9.99981e-01,3.11977e-03,9.99999e-01
4.419582309e-01,3.49608e-03,9.99999e-01,9.99999e-01,9.99909e-01,3.49639e-03,9.99999e-01
4.441680220e-01,3.90939e-03,9.99999e-01,9.99999e-01,9.99927e-01,3.90967e-03,9.99999e-01
4.463888621e-01,4.36183e-03,9.99999e-01,9.99999e-01,9.99925e-01,4.36216e-03,9.99999e-01
4.486208064e-01,4.85627e-03,9.99999e-01,9.99999e-01,9.99953e-01,4.85650e-03,9.99999e-01
4.508639105e-01,5.39529e-03,9.99999e-01,9.99999e-01,9.99977e-01,5.39540e-03,9.99999e-01
4.531182300e-01,5.98161e-03,9.99999e-01,9.99999e-01,9.99990e-01,5.98166e-03,9.99999e-01
4.553838212e-01,6.61809e-03,9.99999e-01,9.99999e-01,9.99993e-01,6.61813e-03,9.99999e-01
4.576607403e-01,7.30769e-03,9.99999e-01,9.99999e-01,9.99996e-01,7.30771e-03,9.99999e-01
4.599490440e-01,8.05334e-03,9.99999e-01,9.99999e-01,9.99997e-01,8.05335e-03,9.99999e-01
4.622487892e-01,8.85806e-03,9.99999e-01,9.99999e-01,9.99999e-01,8.85806e-03,9.99999e-01
4.645600332e-01,9.72486e-03,9.99999e-01,9.99999e-01,9.99998e-01,9.72487e-03,9.99999e-01
4.668828333e-01,1.06566e-02,9.99999e-01,9.99999e-01,9.99977e-01,1.06568e-02,9.99999e-01
4.692172475e-01,1.16565e-02,9.99999e-01,9.99999e-01,9.99953e-01,1.16570e-02,9.99999e-01
4.715633337e-01,1.27281e-02,9.99999e-01,9.99999e-01,9.99969e-01,1.27285e-02,9.99999e-01
4.739211504e-01,1.38739e-02,9.99999e-01,9.99999e-01,9.99970e-01,1.38743e-02,9.99999e-01
4.762907561e-01,1.50974e-02,9.99999e-01,9.99999e-01,9.99984e-01,1.50976e-02,9.99999e-01
4.786722099e-01,1.64012e-02,9.99999e-01,9.99999e-01,9.99993e-01,1.64013e-02,9.99999e-01
4.810655710e-01,1.77885e-02,9.99999e-01,9.99999e-01,9.99997e-01,1.77885e-02,9.99999e-01
4.834708988e-01,1.92618e-02,9.99999e-01,9.99999e-01,9.99982e-01,1.92621e-02,9.99999e-01
4.858882533e-01,2.08243e-02,9.99999e-01,9.99999e-01,9.99966e-01,2.08250e-02,9.99999e-01
4.883176946e-01,2.24794e-02,9.99999e-01,9.99999e-01,9.99972e-01,2.24801e-02,9.99999e-01
4.907592831e-01,2.42294e-02,9.99999e-01,9.99999e-01,9.99974e-01,2.42300e-02,9.99999e-01
4.932130795e-01,2.60771e-02,9.99999e-01,9.99999e-01,9.99981e-01,2.60775e-02,9.99999e-01
4.956791449e-01,2.80250e-02,9.99999e-01,9.99999e-01,9.99990e-01,2.80252e-02,9.99999e-01
4.981575406e-01,3.00742e-02,9.99999e-01,9.99999e-01,9.99953e-01,3.00756e-02,9.99999e-01
5.006483283e-01,3.22271e-02,9.99999e-01,9.99999e-01,9.99879e-01,3.22309e-02,9.99999e-01
5.031515699e-01,3.44725e-02,9.99999e-01,9.99999e-01,9.99387e-01,3.44936e-02,9.99999e-01
5.056673278e-01,3.68537e-02,9.99999e-01,9.99999e-01,9.99675e-01,3.68656e-02,9.99999e-01
5.081956644e-01,3.93330e-02,9.99999e-01,9.99999e-01,9.99590e-01,3.93491e-02,9.99999e-01
5.107366428e-01,4.19341e-02,9.99999e-01,9.99999e-01,9.99723e-01,4.19457e-02,9.99999e-01
5.132903260e-01,4.46503e-02,9.99999e-01,9.99999e-01,9.99841e-01,4.46574e-02,9.99999e-01
5.158567776e-01,4.74823e-02,9.99999e-01,9.99999e-01,9.99932e-01,4.74855e-02,9.99999e-01
5.184360615e-01,5.04302e-02,9.99999e-01,9.99999e-01,9.99972e-01,5.04316e-02,9.99999e-01
5.210282418e-01,5.34962e-02,9.99999e-01,9.99999e-01,9.99989e-01,5.34967e-02,9.99999e-01
5.236333830e-01,5.66798e-02,9.99999e-01,9.99999e-01,9.99959e-01,5.66821e-02,9.99999e-01
5.262515499e-01,5.99871e-02,9.99999e-01,9.99999e-01,9.99974e-01,5.99886e-02,9.99999e-01
5.288828077e-01,6.34154e-02,9.99999e-01,9.99999e-01,9.99976e-01,6.34168e-02,9.99999e-01
5.315272217e-01,6.69661e-02,9.99999e-01,9.99999e-01,9.99979e-01,6.69675e-02,9.99999e-01
5.341848578e-01,7.06399e-02,9.99999e-01,9.99999e-01,9.99986e-01,7.06409e-02,9.99999e-01
5.368557821e-01,7.44338e-02,9.99999e-01,9.99999e-01,9.99953e-01,7.44372e-02,9.99999e-01
5.395400610e-01,7.83435e-02,9.99999e-01,9.99999e-01,9.99833e-01,7.83565e-02,9.99999e-01
5.422377613e-01,8.23806e-02,9.99999e-01,9.99999e-01,9.99781e-01,8.23986e-02,9.99999e-01
5.449489501e-01,8.65457e-02,9.99999e-01,9.99999e-01,9.99798e-01,8.65631e-02,9.99999e-01
5.476736949e-01,9.08333e-02,9.99999e-01,9.99999e-01,9.99819e-01,9.08497e-02,9.99999e-01
5.504120634e-01,9.52451e-02,9.99999e-01,9.99999e-01,9.99869e-01,9.52575e-02,9.99999e-01
5.531641237e-01,9.97791e-02,9.99999e-01,9.99999e-01,9.99933e-01,9.97857e-02,9.99999e-01
5.559299443e-01,1.04430e-01,9.99999e-01,9.99999e-01,9.99967e-01,1.04433e-01,9.99999e-01
5.587095940e-01,1.09197e-01,9.99999e-01,9.99999e-01,9.99979e-01,1.09199e-01,9.99999e-01
5.615031420e-01,1.14079e-01,9.99999e-01,9.99999e-01,9.99977e-01,1.14082e-01,9.99999e-01
5.643106577e-01,1.19077e-01,9.99999e-01,9.99999e-01,9.99974e-01,1.19080e-01,9.99999e-01
5.671322110e-01,1.24155e-01,9.99999e-01,9.99999e-01,9.99702e-01,1.24192e-01,9.99999e-01
5.699678720e-01,1.29374e-01,9.99999e-01,9.99999e-01,9.99673e-01,1.29416e-01,9.99999e-01
5.728177114e-01,1.34705e-01,9.99999e-01,9.99999e-01,9.99664e-01,1.34750e-01,9.99999e-01
5.756818000e-01,1.40148e-01,9.99999e-01,9.99999e-01,9.99691e-01,1.40192e-01,9.99999e-01
5.785602090e-01,1.45700e-01,9.99999e-01,9.99999e-01,9.99730e-01,1.45739e-01,9.99999e-01
5.814530100e-01,1.51349e-01,9.99999e-01,9.99999e-01,9.99729e-01,1.51390e-01,9.99999e-01
5.843602750e-01,1.57092e-01,9.99999e-01,9.99999e-01,9.99680e-01,1.57142e-01,9.99999e-01
5.872820764e-01,1.62544e-01,9.99999e-01,9.99999e-01,9.97246e-01,1.62993e-01,9.99999e-01
5.902184868e-01,1.68370e-01,9.99999e-01,9.99999e-01,9.96632e-01,1.68939e-01,9.99999e-01
5.931695792e-01,1.74563e-01,9.99999e-01,9.99999e-01,9.97628e-01,1.74978e-01,9.99999e-01
5.961354271e-01,1.80636e-01,9.99999e-01,9.99999e-01,9.97394e-01,1.81108e-01,9.99999e-01
5.991161043e-01,1.86968e-01,9.99999e-01,9.99999e-01,9.98097e-01,1.87324e-01,9.99999e-01
6.021116848e-01,1.93416e-01,9.99999e-01,9.99999e-01,9.98918e-01,1.93625e-01,9.99999e-01
6.051222432e-01,1.99898e-01,9.99999e-01,9.99999e-01,9.99452e-01,2.00008e-01,9.99999e-01
6.081478544e-01,2.06419e-01,9.99999e-01,9.99999e-01,9.99763e-01,2.06468e-01,9.99999e-01
6.111885937e-01,2.12982e-01,9.99999e-01,9.99999e-01,9.99899e-01,2.13003e-01,9.99999e-01
6.142445367e-01,2.19600e-01,9.99999e-01,9.99999e-01,9.99954e-01,2.19610e-01,9.99999e-01
6.173157594e-01,2.26280e-01,9.99999e-01,9.99999e-01,9.99974e-01,2.26285e-01,9.99999e-01
6.204023382e-01,2.33021e-01,9.99999e-01,9.99999e-01,9.99978e-01,2.33025e-01,9.99999e-01
6.235043498e-01,2.39806e-01,9.99999e-01,9.99999e-01,9.99909e-01,2.39827e-01,9.99999e-01
6.266218716e-01,2.46568e-01,9.99999e-01,9.99999e-01,9.99516e-01,2.46688e-01,9.99999e-01
6.297549810e-01,2.53558e-01,9.99999e-01,9.99999e-01,9.99822e-01,2.53603e-01,9.99999e-01
6.329037559e-01,2.60478e-01,9.99999e-01,9.99999e-01,9.99648e-01,2.60569e-01,9.99999e-01
6.360682746e-01,2.67504e-01,9.99999e-01,9.99999e-01,9.99701e-01,2.67584e-01,9.99999e-01
6.392486160e-01,2.74537e-01,9.99999e-01,9.99999e-01,9.99612e-01,2.74643e-01,9.99999e-01
6.424448591e-01,2.81614e-01,9.99999e-01,9.99999e-01,9.99536e-01,2.81744e-01,9.99999e-01
6.456570834e-01,2.88200e-01,9.99999e-01,9.99999e-01,9.97635e-01,2.88883e-01,9.99999e-01
6.488853688e-01,2.95443e-01,9.99999e-01,9.99999e-01,9.97927e-01,2.96056e-01,9.99999e-01
6.521297956e-01,3.02715e-01,9.99999e-01,9.99999e-01,9.98201e-01,3.03260e-01,9.99999e-01
6.553904446e-01,3.09942e-01,9.99999e-01,9.99999e-01,9.98225e-01,3.10492e-01,9.99999e-01
6.586673968e-01,3.17261e-01,9.99999e-01,9.99999e-01,9.98465e-01,3.17749e-01,9.99999e-01
6.619607338e-01,3.24739e-01,9.99999e-01,9.99999e-01,9.99112e-01,3.25027e-01,9.99999e-01
6.652705375e-01,3.32152e-01,9.99999e-01,9.99999e-01,9.99484e-01,3.32323e-01,9.99999e-01
6.685968902e-01,3.39552e-01,9.99999e-01,9.99999e-01,9.99760e-01,3.39633e-01,9.99999e-01
6.719398746e-01,3.46917e-01,9.99999e-01,9.99999e-01,9.99888e-01,3.46956e-01,9.99999e-01
6.752995740e-01,3.54265e-01,9.99999e-01,9.99999e-01,9.99939e-01,3.54287e-01,9.99999e-01
6.786760719e-01,3.61592e-01,9.99999e-01,9.99999e-01,9.99913e-01,3.61623e-01,9.99999e-01
6.820694522e-01,3.68908e-01,9.99999e-01,9.99999e-01,9.99852e-01,3.68962e-01,9.99999e-01
6.854797995e-01,3.76229e-01,9.99999e-01,9.99999e-01,9.99809e-01,3.76300e-01,9.99999e-01
6.889071985e-01,3.83462e-01,9.99999e-01,9.99999e-01,9.99547e-01,3.83636e-01,9.99999e-01
6.923517345e-01,3.88049e-01,9.99999e-01,9.99999e-01,9.92542e-01,3.90965e-01,9.99999e-01
6.958134932e-01,3.96706e-01,9.99999e-01,9.99999e-01,9.96034e-01,3.98285e-01,9.99999e-01
6.992925606e-01,4.04097e-01,9.99999e-01,9.99999e-01,9.96310e-01,4.05594e-01,9.99999e-01
7.027890234e-01,4.10992e-01,9.99999e-01,9.99999e-01,9.95407e-01,4.12888e-01,9.99999e-01
7.063029686e-01,4.18545e-01,9.99999e-01,9.99999e-01,9.96142e-01,4.20166e-01,9.99999e-01
7.098344834e-01,4.25842e-01,9.99999e-01,9.99999e-01,9.96298e-01,4.27424e-01,9.99999e-01
7.133836558e-01,4.32546e-01,9.99999e-01,9.99999e-01,9.95134e-01,4.34661e-01,9.99999e-01
7.169505741e-01,4.24701e-01,9.99999e-01,9.99999e-01,9.61136e-01,4.41873e-01,9.99999e-01
7.205353270e-01,4.40276e-01,9.99999e-01,9.99999e-01,9.80439e-01,4.49060e-01,9.99998e-01
7.241380036e-01,4.45095e-01,9.99999e-01,9.99999e-01,9.75620e-01,4.56217e-01,9.99998e-01
7.277586936e-01,4.53129e-01,9.99999e-01,9.99999e-01,9.77952e-01,4.63345e-01,9.99999e-01
7.313974871e-01,4.59350e-01,9.99999e-01,9.99999e-01,9.76428e-01,4.70439e-01,9.99999e-01
7.350544745e-01,4.71334e-01,9.99999e-01,9.99999e-01,9.87089e-01,4.77499e-01,9.99999e-01
7.387297469e-01,4.79910e-01,9.99999e-01,9.99999e-01,9.90481e-01,4.84522e-01,9.99999e-01
7.424233956e-01,4.89207e-01,9.99999e-01,9.99999e-01,9.95321e-01,4.91506e-01,9.99999e-01
7.461355126e-01,4.97039e-01,9.99999e-01,9.99999e-01,9.97168e-01,4.98451e-01,9.99999e-01
7.498661902e-01,5.04685e-01,9.99999e-01,9.99999e-01,9.98677e-01,5.05353e-01,9.99999e-01
7.536155211e-01,5.11881e-01,9.99999e-01,9.99999e-01,9.99352e-01,5.12212e-01,9.99999e-01
7.573835987e-01,5.18852e-01,9.99999e-01,9.99999e-01,9.99666e-01,5.19025e-01,9.99999e-01
7.611705167e-01,5.25684e-01,9.99999e-01,9.99999e-01,9.99792e-01,5.25792e-01,9.99999e-01
7.649763693e-01,5.32442e-01,9.99999e-01,9.99999e-01,9.99870e-01,5.32511e-01,9.99999e-01
7.688012511e-01,5.39132e-01,9.99999e-01,9.99999e-01,9.99909e-01,5.39181e-01,9.99999e-01
7.726452574e-01,5.45760e-01,9.99999e-01,9.99999e-01,9.99925e-01,5.45800e-01,9.99999e-01
7.765084837e-01,5.52309e-01,9.99999e-01,9.99999e-01,9.99895e-01,5.52367e-01,9.99999e-01
7.803910261e-01,5.43675e-01,9.99999e-01,9.73218e-01,9.99549e-01,5.58881e-01,9.99999e-01
7.842929812e-01,4.98471e-01,9.99999e-01,8.83048e-01,9.98428e-01,5.65341e-01,9.99999e-01
7.882144461e-01,4.99240e-01,9.99999e-01,8.75952e-01,9.96734e-01,5.71746e-01,9.99999e-01
7.921555184e-01,5.34437e-01,9.99999e-01,9.26115e-01,9.98198e-01,5.78094e-01,9.99999e-01
7.961162960e-01,5.53190e-01,9.99999e-01,9.49580e-01,9.96854e-01,5.84386e-01,9.99999e-01
8.000968774e-01,5.72227e-01,9.99999e-01,9.72402e-01,9.96346e-01,5.90620e-01,9.99999e-01
8.040973618e-01,5.86029e-01,9.99999e-01,9.85549e-01,9.96350e-01,5.96795e-01,9.99999e-01
8.081178486e-01,5.94034e-01,9.99999e-01,9.93372e-01,9.91840e-01,6.02911e-01,9.99999e-01
8.121584379e-01,5.87226e-01,9.99999e-01,9.97930e-01,9.66281e-01,6.08967e-01,9.99999e-01
8.162192301e-01,5.89891e-01,9.99999e-01,9.99542e-01,9.59663e-01,6.14962e-01,9.99998e-01
8.203003262e-01,6.08486e-01,9.99999e-01,9.99991e-01,9.80018e-01,6.20897e-01,9.99998e-01
8.244018279e-01,6.08847e-01,9.99999e-01,9.99999e-01,9.71404e-01,6.26769e-01,9.99998e-01
8.285238370e-01,6.17347e-01,9.99999e-01,9.99999e-01,9.75918e-01,6.32580e-01,9.99999e-01
8.326664562e-01,6.22719e-01,9.99999e-01,9.99999e-01,9.75547e-01,6.38328e-01,9.99999e-01
8.368297885e-01,6.32718e-01,9.99999e-01,9.99999e-01,9.82461e-01,6.44013e-01,9.99999e-01
8.410139374e-01,6.42842e-01,9.99999e-01,9.99999e-01,9.89543e-01,6.49635e-01,9.99999e-01
8.452190071e-01,6.51823e-01,9.99999e-01,9.99999e-01,9.94855e-01,6.55194e-01,9.99999e-01
8.494451021e-01,6.58723e-01,9.99999e-01,9.99999e-01,9.97024e-01,6.60689e-01,9.99999e-01
8.536923276e-01,6.64943e-01,9.99999e-01,9.99999e-01,9.98233e-01,6.66120e-01,9.99999e-01
8.579607893e-01,6.70759e-01,9.99999e-01,9.99999e-01,9.98915e-01,6.71487e-01,9.99999e-01
8.622505932e-01,6.76323e-01,9.99999e-01,9.99999e-01,9.99309e-01,6.76790e-01,9.99999e-01
8.665618462e-01,6.38624e-01,9.99999e-01,9.36743e-01,9.99574e-01,6.82029e-01,9.99999e-01
8.708946554e-01,5.00869e-01,9.99999e-01,7.29193e-01,9.99513e-01,6.87204e-01,9.99999e-01
8.752491287e-01,5.36475e-01,9.99999e-01,7.75391e-01,9.99348e-01,6.92315e-01,9.99999e-01
8.796253743e-01,6.06087e-01,9.99999e-01,8.69876e-01,9.99101e-01,6.97362e-01,9.99999e-01
8.840235012e-01,6.52824e-01,9.99999e-01,9.30435e-01,9.98972e-01,7.02345e-01,9.99999e-01
8.884436187e-01,6.84867e-01,9.99999e-01,9.71879e-01,9.96322e-01,7.07263e-01,9.99999e-01
8.928858368e-01,6.76788e-01,9.99999e-01,9.88553e-01,9.61314e-01,7.12119e-01,9.99998e-01
8.973502660e-01,6.66220e-01,9.99999e-01,9.97189e-01,9.31869e-01,7.16910e-01,9.99998e-01
9.018370173e-01,6.95705e-01,9.99999e-01,9.99688e-01,9.64355e-01,7.21639e-01,9.99998e-01
9.063462024e-01,6.98584e-01,9.99999e-01,9.92316e-01,9.69092e-01,7.26304e-01,9.99998e-01
9.108779334e-01,6.83402e-01,9.99999e-01,9.82027e-01,9.51947e-01,7.30906e-01,9.99998e-01
9.154323231e-01,6.92435e-01,9.99999e-01,9.95710e-01,9.45503e-01,7.35446e-01,9.99998e-01
9.200094847e-01,6.67019e-01,9.99999e-01,9.40249e-01,9.56932e-01,7.39923e-01,9.99997e-01
9.246095321e-01,6.37392e-01,9.99999e-01,9.15087e-01,9.34565e-01,7.44338e-01,9.99996e-01
9.292325798e-01,4.44021e-01,9.99999e-01,9.33416e-01,6.31513e-01,7.48692e-01,9.99993e-01
9.338787427e-01,3.88997e-01,9.99999e-01,9.34980e-01,5.49145e-01,7.52985e-01,9.99991e-01
9.385481364e-01,5.67331e-01,9.99999e-01,9.51854e-01,7.85241e-01,7.57216e-01,9.99990e-01
9.432408771e-01,5.29613e-01,9.99999e-01,9.70154e-01,7.15993e-01,7.61387e-01,9.99989e-01
9.479570815e-01,4.75593e-01,9.99999e-01,9.84627e-01,6.30548e-01,7.65498e-01,9.99991e-01
9.526968669e-01,5.39683e-01,9.99999e-01,9.92544e-01,7.06164e-01,7.69549e-01,9.99993e-01
9.574603512e-01,5.61152e-01,9.99999e-01,9.96803e-01,7.27634e-01,7.73541e-01,9.99994e-01
9.622476530e-01,5.99378e-01,9.99999e-01,9.99001e-01,7.71665e-01,7.77475e-01,9.99996e-01
9.670588912e-01,6.72955e-01,9.99999e-01,9.99699e-01,8.61520e-01,7.81350e-01,9.99997e-01
9.718941857e-01,7.15508e-01,9.99999e-01,9.99977e-01,9.11300e-01,7.85167e-01,9.99998e-01
9.767536566e-01,7.30419e-01,9.99999e-01,9.99999e-01,9.25838e-01,7.88927e-01,9.99998e-01
9.816374249e-01,7.48548e-01,9.99999e-01,9.99999e-01,9.44385e-01,7.92630e-01,9.99998e-01
9.865456120e-01,7.68315e-01,9.99999e-01,9.99999e-01,9.64883e-01,7.96277e-01,9.99999e-01
9.914783401e-01,7.82407e-01,9.99999e-01,9.99999e-01,9.78169e-01,7.99868e-01,9.99999e-01
9.964357318e-01,7.93804e-01,9.99999e-01,9.99999e-01,9.88049e-01,8.03404e-01,9.99999e-01
1.001417910e+00,8.01093e-01,9.99999e-01,9.99999e-01,9.92820e-01,8.06885e-01,9.99999e-01
1.006425000e+00,8.06999e-01,9.99999e-01,9.99999e-01,9.95910e-01,8.10312e-01,9.99999e-01
1.011457125e+00,8.11614e-01,9.99999e-01,9.99999e-01,9.97453e-01,8.13686e-01,9.99999e-01
1.016514411e+00,8.15596e-01,9.99999e-01,9.99999e-01,9.98273e-01,8.17007e-01,9.99999e-01
1.021596983e+00,8.19117e-01,9.99999e-01,9.99962e-01,9.98625e-01,8.20275e-01,9.99999e-01
1.026704968e+00,8.20152e-01,9.99999e-01,9.97011e-01,9.98928e-01,8.23491e-01,9.99999e-01
1.031838492e+00,7.96785e-01,9.99999e-01,9.64599e-01,9.99219e-01,8.26656e-01,9.99999e-01
1.036997685e+00,1.54324e-01,9.99999e-01,1.86053e-01,9.99537e-01,8.29770e-01,9.99999e-01
1.042182673e+00,1.43229e-01,9.99999e-01,1.72064e-01,9.99450e-01,8.32834e-01,9.99999e-01
1.047393587e+00,1.57754e-01,9.99999e-01,1.88859e-01,9.99269e-01,8.35849e-01,9.99999e-01
1.052630555e+00,7.79318e-03,9.99999e-01,9.29770e-03,9.98999e-01,8.38814e-01,9.99999e-01
1.057893707e+00,1.77632e-02,9.99999e-01,2.11280e-02,9.98332e-01,8.41732e-01,9.99999e-01
1.063183176e+00,4.98592e-02,9.99999e-01,5.91536e-02,9.97253e-01,8.44601e-01,9.99999e-01
1.068499092e+00,1.21759e-01,9.99999e-01,1.44255e-01,9.95397e-01,8.47423e-01,9.99999e-01
1.073841587e+00,2.48250e-01,9.99999e-01,2.93360e-01,9.94624e-01,8.50199e-01,9.99999e-01
1.079210795e+00,3.90221e-01,9.99999e-01,4.60452e-01,9.93092e-01,8.52929e-01,9.99999e-01
1.084606849e+00,5.53016e-01,9.99999e-01,6.52881e-01,9.89577e-01,8.55613e-01,9.99999e-01
1.090029883e+00,6.78161e-01,9.99999e-01,8.01814e-01,9.85143e-01,8.58252e-01,9.99998e-01
1.095480033e+00,7.41329e-01,9.99999e-01,8.96771e-01,9.59944e-01,8.60848e-01,9.99998e-01
1.100957433e+00,7.38723e-01,9.99999e-01,9.48901e-01,9.01276e-01,8.63399e-01,9.99997e-01
1.106462220e+00,6.51137e-01,9.99999e-01,9.78522e-01,7.67992e-01,8.65908e-01,9.99995e-01
1.111994531e+00,4.93159e-01,9.99999e-01,9.91987e-01,5.72231e-01,8.68374e-01,9.99991e-01
1.117554504e+00,3.51930e-01,9.99999e-01,9.98028e-01,4.04822e-01,8.70798e-01,9.99988e-01
1.123142276e+00,4.47600e-01,9.99999e-01,9.99869e-01,5.12651e-01,8.73181e-01,9.99986e-01
1.128757988e+00,5.71986e-01,9.99999e-01,9.99999e-01,6.53317e-01,8.75523e-01,9.99985e-01
1.134401778e+00,3.41918e-01,9.99999e-01,9.99999e-01,3.89512e-01,8.77825e-01,9.99983e-01
1.140073787e+00,6.83060e-01,9.99999e-01,9.99999e-01,7.76137e-01,8.80087e-01,9.99986e-01
1.145774156e+00,5.18954e-01,9.99999e-01,9.99999e-01,5.88182e-01,8.82310e-01,9.99988e-01
1.151503026e+00,4.89886e-01,9.99999e-01,9.99999e-01,5.53864e-01,8.84495e-01,9.99990e-01
1.157260541e+00,5.41676e-01,9.99999e-01,9.99999e-01,6.10933e-01,8.86642e-01,9.99992e-01
1.163046844e+00,6.16984e-01,9.99999e-01,9.99999e-01,6.94216e-01,8.88752e-01,9.99995e-01
1.168862078e+00,6.91412e-01,9.99999e-01,9.99999e-01,7.76149e-01,8.90825e-01,9.99997e-01
1.174706389e+00,7.63651e-01,9.99999e-01,9.99999e-01,8.55285e-01,8.92861e-01,9.99998e-01
1.180579921e+00,8.13580e-01,9.99999e-01,9.99999e-01,9.09168e-01,8.94862e-01,9.99998e-01
1.186482820e+00,8.49913e-01,9.99999e-01,9.99995e-01,9.47691e-01,8.96828e-01,9.99998e-01
1.192415234e+00,8.61911e-01,9.99999e-01,9.89408e-01,9.69172e-01,8.98759e-01,9.99998e-01
1.198377311e+00,5.00475e-01,9.99999e-01,5.68071e-01,9.74004e-01,9.00656e-01,9.99999e-01
1.204369197e+00,1.45334e-09,9.99999e-01,1.63367e-09,9.75354e-01,9.02519e-01,9.99999e-01
1.210391043e+00,1.18433e-33,9.99999e-01,1.32703e-33,9.76417e-01,9.04349e-01,9.99999e-01
1.216442998e+00,2.40529e-29,9.99999e-01,2.68791e-29,9.79859e-01,9.06147e-01,9.99999e-01
1.222525213e+00,6.31108e-29,9.99999e-01,7.00796e-29,9.84303e-01,9.07913e-01,9.99999e-01
1.228637839e+00,2.19198e-22,9.99999e-01,2.42823e-22,9.89084e-01,9.09647e-01,9.99999e-01
