#,Wave/freq,Total,O2,CO2,H2O,Rayleigh,CIA
4.000000000e-01,3.74413e-14,9.99999e-01,9.99999e-01,9.99939e-01,3.74436e-14,9.99999e-01
4.020000000e-01,6.89997e-14,9.99999e-01,9.99999e-01,9.99961e-01,6.90023e-14,9.99999e-01
4.040100000e-01,1.25551e-13,9.99999e-01,9.99999e-01,9.99983e-01,1.25553e-13,9.99999e-01
4.060300500e-01,2.25765e-13,9.99999e-01,9.99999e-01,9.99995e-01,2.25766e-13,9.99999e-01
4.080602003e-01,4.01287e-13,9.99999e-01,9.99999e-01,9.99998e-01,4.01287e-13,9.99999e-01
4.101005013e-01,7.05209e-13,9.99999e-01,9.99999e-01,9.99999e-01,7.05209e-13,9.99999e-01
4.121510038e-01,1.22558e-12,9.99999e-01,9.99999e-01,9.99997e-01,1.22559e-12,9.99999e-01
4.142117588e-01,2.10679e-12,9.99999e-01,9.99999e-01,9.99983e-01,2.10682e-12,9.99999e-01
4.162828176e-01,3.58289e-12,9.99999e-01,9.99999e-01,9.99924e-01,3.58316e-12,9.99999e-01
4.183642317e-01,6.03015e-12,9.99999e-01,9.99999e-01,9.99954e-01,6.03042e-12,9.99999e-01
4.204560528e-01,1.00450e-11,9.99999e-01,9.99999e-01,9.99972e-01,1.00453e-11,9.99999e-01
4.225583331e-01,1.65652e-11,9.99999e-01,9.99999e-01,9.99989e-01,1.65654e-11,9.99999e-01
4.246711247e-01,2.70487e-11,9.99999e-01,9.99999e-01,9.99991e-01,2.70489e-11,9.99999e-01
4.267944804e-01,4.37406e-11,9.99999e-01,9.99999e-01,9.99987e-01,4.37412e-11,9.99999e-01
4.289284528e-01,7.00655e-11,9.99999e-01,9.99999e-01,9.99990e-01,7.00662e-11,9.99999e-01
4.310730950e-01,1.11194e-10,9.99999e-01,9.99999e-01,9.99995e-01,1.11195e-10,9.99999e-01
4.332284605e-01,1.74863e-10,9.99999e-01,9.99999e-01,9.99998e-01,1.74864e-10,9.99999e-01
4.353946028e-01,2.72540e-10,9.99999e-01,9.99999e-01,9.99999e-01,2.72540e-10,9.99999e-01
4.375715758e-01,4.21067e-10,9.99999e-01,9.99999e-01,9.99992e-01,4.21070e-10,9.99999e-01
4.397594337e-01,6.44938e-10,9.99999e-01,9.99999e-01,9.99934e-01,6.44980e-10,9.99999e-01
4.419582309e-01,9.79348e-10,9.99999e-01,9.99999e-01,9.99668e-01,9.79672e-10,9.99999e-01
4.441680220e-01,1.47542e-09,9.99999e-01,9.99999e-01,9.99737e-01,1.47581e-09,9.99999e-01
4.463888621e-01,2.20468e-09,9.99999e-01,9.99999e-01,9.99728e-01,2.20527e-09,9.99999e-01
4.486208064e-01,3.26872e-09,9.99999e-01,9.99999e-01,9.99830e-01,3.26927e-09,9.99999e-01
4.508639105e-01,4.80869e-09,9.99999e-01,9.99999e-01,9.99920e-01,4.80907e-09,9.99999e-01
4.531182300e-01,7.02017e-09,9.99999e-01,9.99999e-01,9.99968e-01,7.02039e-09,9.99999e-01
4.553838212e-01,1.01720e-08,9.99999e-01,9.99999e-01,9.99978e-01,1.01722e-08,9.99999e-01
4.576607403e-01,1.46314e-08,9.99999e-01,9.99999e-01,9.99989e-01,1.46315e-08,9.99999e-01
4.599490440e-01,2.08949e-08,9.99999e-01,9.99999e-01,9.99992e-01,2.08951e-08,9.99999e-01
4.622487892e-01,2.96307e-08,9.99999e-01,9.99999e-01,9.99998e-01,2.96307e-08,9.99999e-01
4.645600332e-01,4.17294e-08,9.99999e-01,9.99999e-01,9.99994e-01,4.17296e-08,9.99999e-01
4.668828333e-01,5.83679e-08,9.99999e-01,9.99999e-01,9.99920e-01,5.83725e-08,9.99999e-01
4.692172475e-01,8.10998e-08,9.99999e-01,9.99999e-01,9.99829e-01,8.11136e-08,9.99999e-01
4.715633337e-01,1.11972e-07,9.99999e-01,9.99999e-01,9.99888e-01,1.11984e-07,9.99999e-01
4.739211504e-01,1.53606e-07,9.99999e-01,9.99999e-01,9.99892e-01,1.53622e-07,9.99999e-01
4.762907561e-01,2.09418e-07,9.99999e-01,9.99999e-01,9.99944e-01,2.09429e-07,9.99999e-01
4.786722099e-01,2.83762e-07,9.99999e-01,9.99999e-01,9.99976e-01,2.83768e-07,9.99999e-01
4.810655710e-01,3.82191e-07,9.99999e-01,9.99999e-01,9.99992e-01,3.82194e-07,9.99999e-01
4.834708988e-01,5.11707e-07,9.99999e-01,9.99999e-01,9.99935e-01,5.11740e-07,9.99999e-01
4.858882533e-01,6.81175e-07,9.99999e-01,9.99999e-01,9.99878e-01,6.81258e-07,9.99999e-01
4.883176946e-01,9.01727e-07,9.99999e-01,9.99999e-01,9.99898e-01,9.01818e-07,9.99999e-01
4.907592831e-01,1.18708e-06,9.99999e-01,9.99999e-01,9.99908e-01,1.18719e-06,9.99999e-01
4.932130795e-01,1.55430e-06,9.99999e-01,9.99999e-01,9.99934e-01,1.55440e-06,9.99999e-01
4.956791449e-01,2.02432e-06,9.99999e-01,9.99999e-01,9.99965e-01,2.02439e-06,9.99999e-01
4.981575406e-01,2.62231e-06,9.99999e-01,9.99999e-01,9.99828e-01,2.62276e-06,9.99999e-01
5.006483283e-01,3.37918e-06,9.99999e-01,9.99999e-01,9.99559e-01,3.38067e-06,9.99999e-01
5.031515699e-01,4.32606e-06,9.99999e-01,9.99999e-01,9.97755e-01,4.33579e-06,9.99999e-01
5.056673278e-01,5.52692e-06,9.99999e-01,9.99999e-01,9.98811e-01,5.53349e-06,9.99999e-01
5.081956644e-01,7.01757e-06,9.99999e-01,9.99999e-01,9.98500e-01,7.02810e-06,9.99999e-01
5.107366428e-01,8.87535e-06,9.99999e-01,9.99999e-01,9.98986e-01,8.88435e-06,9.99999e-01
5.132903260e-01,1.11725e-05,9.99999e-01,9.99999e-01,9.99420e-01,1.11790e-05,9.99999e-01
5.158567776e-01,1.39992e-05,9.99999e-01,9.99999e-01,9.99754e-01,1.40026e-05,9.99999e-01
5.184360615e-01,1.74599e-05,9.99999e-01,9.99999e-01,9.99901e-01,1.74616e-05,9.99999e-01
5.210282418e-01,2.16795e-05,9.99999e-01,9.99999e-01,9.99963e-01,2.16802e-05,9.99999e-01
5.236333830e-01,2.67994e-05,9.99999e-01,9.99999e-01,9.99853e-01,2.68033e-05,9.99999e-01
5.262515499e-01,3.29954e-05,9.99999e-01,9.99999e-01,9.99907e-01,3.29984e-05,9.99999e-01
5.288828077e-01,4.04555e-05,9.99999e-01,9.99999e-01,9.99915e-01,4.04589e-05,9.99999e-01
5.315272217e-01,4.94031e-05,9.99999e-01,9.99999e-01,9.99925e-01,4.94067e-05,9.99999e-01
5.341848578e-01,6.00930e-05,9.99999e-01,9.99999e-01,9.99951e-01,6.00959e-05,9.99999e-01
5.368557821e-01,7.28030e-05,9.99999e-01,9.99999e-01,9.99829e-01,7.28153e-05,9.99999e-01
5.395400610e-01,8.78393e-05,9.99999e-01,9.99999e-01,9.99388e-01,8.78930e-05,9.99999e-01
5.422377613e-01,1.05615e-04,9.99999e-01,9.99999e-01,9.99202e-01,1.05699e-04,9.99999e-01
5.449489501e-01,1.26557e-04,9.99999e-01,9.99999e-01,9.99261e-01,1.26650e-04,9.99999e-01
5.476736949e-01,1.51113e-04,9.99999e-01,9.99999e-01,9.99342e-01,1.51213e-04,9.99999e-01
5.504120634e-01,1.79823e-04,9.99999e-01,9.99999e-01,9.99522e-01,1.79908e-04,9.99999e-01
5.531641237e-01,2.13265e-04,9.99999e-01,9.99999e-01,9.99759e-01,2.13316e-04,9.99999e-01
5.559299443e-01,2.52048e-04,9.99999e-01,9.99999e-01,9.99883e-01,2.52078e-04,9.99999e-01
5.587095940e-01,2.96880e-04,9.99999e-01,9.99999e-01,9.99927e-01,2.96902e-04,9.99999e-01
5.615031420e-01,3.48540e-04,9.99999e-01,9.99999e-01,9.99918e-01,3.48568e-04,9.99999e-01
5.643106577e-01,4.07893e-04,9.99999e-01,9.99999e-01,9.99908e-01,4.07930e-04,9.99999e-01
5.671322110e-01,4.75399e-04,9.99999e-01,9.99999e-01,9.98902e-01,4.75921e-04,9.99999e-01
5.699678720e-01,5.52898e-04,9.99999e-01,9.99999e-01,9.98810e-01,5.53557e-04,9.99999e-01
5.728177114e-01,6.41148e-04,9.99999e-01,9.99999e-01,9.98770e-01,6.41937e-04,9.99999e-01
5.756818000e-01,7.41415e-04,9.99999e-01,9.99999e-01,9.98869e-01,7.42254e-04,9.99999e-01
5.785602090e-01,8.54945e-04,9.99999e-01,9.99999e-01,9.99013e-01,8.55790e-04,9.99999e-01
5.814530100e-01,9.82948e-04,9.99999e-01,9.99999e-01,9.99010e-01,9.83921e-04,9.99999e-01
5.843602750e-01,1.12680e-03,9.99999e-01,9.99999e-01,9.98827e-01,1.12812e-03,9.99999e-01
5.872820764e-01,1.27698e-03,9.99999e-01,9.99999e-01,9.89930e-01,1.28997e-03,9.99999e-01
5.902184868e-01,1.45308e-03,9.99999e-01,9.99999e-01,9.87723e-01,1.47114e-03,9.99999e-01
5.931695792e-01,1.65890e-03,9.99999e-01,9.99999e-01,9.91337e-01,1.67340e-03,9.99999e-01
5.961354271e-01,1.88057e-03,9.99999e-01,9.99999e-01,9.90488e-01,1.89863e-03,9.99999e-01
5.991161043e-01,2.13387e-03,9.99999e-01,9.99999e-01,9.93048e-01,2.14881e-03,9.99999e-01
6.021116848e-01,2.41642e-03,9.99999e-01,9.99999e-01,9.96046e-01,2.42601e-03,9.99999e-01
6.051222432e-01,2.72695e-03,9.99999e-01,9.99999e-01,9.97997e-01,2.73242e-03,9.99999e-01
6.081478544e-01,3.06766e-03,9.99999e-01,9.99999e-01,9.99136e-01,3.07031e-03,9.99999e-01
6.111885937e-01,3.44079e-03,9.99999e-01,9.99999e-01,9.99633e-01,3.44205e-03,9.99999e-01
6.142445367e-01,3.84946e-03,9.99999e-01,9.99999e-01,9.99836e-01,3.85009e-03,9.99999e-01
6.173157594e-01,4.29660e-03,9.99999e-01,9.99999e-01,9.99909e-01,4.29698e-03,9.99999e-01
6.204023382e-01,4.78500e-03,9.99999e-01,9.99999e-01,9.99923e-01,4.78536e-03,9.99999e-01
6.235043498e-01,5.31616e-03,9.99999e-01,9.99999e-01,9.99668e-01,5.31792e-03,9.99999e-01
6.266218716e-01,5.88701e-03,9.99999e-01,9.99999e-01,9.98229e-01,5.89745e-03,9.99999e-01
6.297549810e-01,6.52255e-03,9.99999e-01,9.99999e-01,9.99350e-01,6.52678e-03,9.99999e-01
6.329037559e-01,7.19955e-03,9.99999e-01,9.99999e-01,9.98713e-01,7.20882e-03,9.99999e-01
6.360682746e-01,7.93784e-03,9.99999e-01,9.99999e-01,9.98907e-01,7.94652e-03,9.99999e-01
6.392486160e-01,8.73047e-03,9.99999e-01,9.99999e-01,9.98582e-01,8.74286e-03,9.99999e-01
6.424448591e-01,9.58278e-03,9.99999e-01,9.99999e-01,9.98114e-01,9.60088e-03,9.99999e-01
6.456570834e-01,1.04318e-02,9.99999e-01,9.99999e-01,9.91270e-01,1.05236e-02,9.99999e-01
6.488853688e-01,1.14273e-02,9.99999e-01,9.99999e-01,9.92459e-01,1.15142e-02,9.99999e-01
6.521297956e-01,1.24930e-02,9.99999e-01,9.99999e-01,9.93433e-01,1.25756e-02,9.99999e-01
6.553904446e-01,1.36219e-02,9.99999e-01,9.99999e-01,9.93507e-01,1.37109e-02,9.99999e-01
6.586673968e-01,1.48397e-02,9.99999e-01,9.99999e-01,9.94395e-01,1.49233e-02,9.99999e-01
6.619607338e-01,1.61631e-02,9.99999e-01,9.99999e-01,9.96756e-01,1.62157e-02,9.99999e-01
6.652705375e-01,1.75580e-02,9.99999e-01,9.99999e-01,9.98117e-01,1.75911e-02,9.99999e-01
6.685968902e-01,1.90359e-02,9.99999e-01,9.99999e-01,9.99125e-01,1.90525e-02,9.99999e-01
6.719398746e-01,2.05945e-02,9.99999e-01,9.99999e-01,9.99594e-01,2.06029e-02,9.99999e-01
6.752995740e-01,2.22401e-02,9.99999e-01,9.99999e-01,9.99780e-01,2.22450e-02,9.99999e-01
6.786760719e-01,2.39741e-02,9.99999e-01,9.99999e-01,9.99684e-01,2.39816e-02,9.99999e-01
6.820694522e-01,2.58015e-02,9.99999e-01,9.99999e-01,9.99459e-01,2.58155e-02,9.99999e-01
6.854797995e-01,2.77298e-02,9.99999e-01,9.99999e-01,9.99303e-01,2.77491e-02,9.99999e-01
6.889071985e-01,2.97355e-02,9.99999e-01,9.99999e-01,9.98332e-01,2.97851e-02,9.99999e-01
6.923517345e-01,3.10614e-02,9.99999e-01,9.99999e-01,9.72924e-01,3.19258e-02,9.99999e-01
6.958134932e-01,3.36829e-02,9.99999e-01,9.99999e-01,9.85646e-01,3.41734e-02,9.99999e-01
6.992925606e-01,3.60378e-02,9.99999e-01,9.99999e-01,9.86521e-01,3.65302e-02,9.99999e-01
7.027890234e-01,3.83465e-02,9.99999e-01,9.99999e-01,9.83292e-01,3.89980e-02,9.99999e-01
7.063029686e-01,4.09942e-02,9.99999e-01,9.99999e-01,9.85938e-01,4.15789e-02,9.99999e-01
7.098344834e-01,4.36769e-02,9.99999e-01,9.99999e-01,9.86501e-01,4.42745e-02,9.99999e-01
7.133836558e-01,4.62494e-02,9.99999e-01,9.99999e-01,9.82224e-01,4.70864e-02,9.99998e-01
7.169505741e-01,4.33276e-02,9.99999e-01,9.99999e-01,8.66275e-01,5.00160e-02,9.99997e-01
7.205353270e-01,4.94114e-02,9.99999e-01,9.99999e-01,9.31157e-01,5.30646e-02,9.99997e-01
7.241380036e-01,5.14023e-02,9.99999e-01,9.99999e-01,9.14092e-01,5.62333e-02,9.99997e-01
7.277586936e-01,5.48867e-02,9.99999e-01,9.99999e-01,9.22112e-01,5.95229e-02,9.99997e-01
7.313974871e-01,5.76998e-02,9.99999e-01,9.99999e-01,9.16827e-01,6.29342e-02,9.99998e-01
7.350544745e-01,6.33886e-02,9.99999e-01,9.99999e-01,9.53672e-01,6.64679e-02,9.99998e-01
7.387297469e-01,6.77147e-02,9.99999e-01,9.99999e-01,9.65638e-01,7.01242e-02,9.99999e-01
7.424233956e-01,7.26475e-02,9.99999e-01,9.99999e-01,9.83004e-01,7.39035e-02,9.99999e-01
7.461355126e-01,7.70026e-02,9.99999e-01,9.99999e-01,9.89677e-01,7.78058e-02,9.99999e-01
7.498661902e-01,8.14359e-02,9.99999e-01,9.99999e-01,9.95172e-01,8.18309e-02,9.99999e-01
7.536155211e-01,8.57751e-02,9.99999e-01,9.99999e-01,9.97634e-01,8.59785e-02,9.99999e-01
7.573835987e-01,9.01381e-02,9.99999e-01,9.99999e-01,9.98780e-01,9.02481e-02,9.99999e-01
7.611705167e-01,9.45675e-02,9.99999e-01,9.99999e-01,9.99242e-01,9.46391e-02,9.99999e-01
7.649763693e-01,9.91037e-02,9.99999e-01,9.99999e-01,9.99525e-01,9.91507e-02,9.99999e-01
7.688012511e-01,1.03748e-01,9.99999e-01,9.99999e-01,9.99669e-01,1.03782e-01,9.99999e-01
7.726452574e-01,1.08502e-01,9.99999e-01,9.99999e-01,9.99728e-01,1.08531e-01,9.99999e-01
7.765084837e-01,1.13355e-01,9.99999e-01,9.99999e-01,9.99616e-01,1.13398e-01,9.99999e-01
7.803910261e-01,1.08553e-01,9.99999e-01,9.18388e-01,9.98344e-01,1.18380e-01,9.99999e-01
7.842929812e-01,8.00029e-02,9.99999e-01,6.51232e-01,9.94233e-01,1.23477e-01,9.99999e-01
7.882144461e-01,8.10641e-02,9.99999e-01,6.36794e-01,9.88083e-01,1.28685e-01,9.99999e-01
7.921555184e-01,1.00989e-01,9.99999e-01,7.58302e-01,9.93428e-01,1.34004e-01,9.99999e-01
7.961162960e-01,1.14231e-01,9.99999e-01,8.28542e-01,9.88499e-01,1.39431e-01,9.99999e-01
8.000968774e-01,1.29174e-01,9.99999e-01,9.03014e-01,9.86667e-01,1.44964e-01,9.99999e-01
8.040973618e-01,1.40923e-01,9.99999e-01,9.48297e-01,9.86678e-01,1.50601e-01,9.99999e-01
8.081178486e-01,1.48083e-01,9.99999e-01,9.75971e-01,9.70392e-01,1.56339e-01,9.99998e-01
8.121584379e-01,1.42090e-01,9.99999e-01,9.92475e-01,8.82601e-01,1.62176e-01,9.99998e-01
8.162192301e-01,1.44607e-01,9.99999e-01,9.98333e-01,8.61557e-01,1.68109e-01,9.99997e-01
8.203003262e-01,1.61977e-01,9.99999e-01,9.99972e-01,9.30196e-01,1.74135e-01,9.99997e-01
8.244018279e-01,1.62763e-01,9.99999e-01,9.99999e-01,9.02975e-01,1.80253e-01,9.99997e-01
8.285238370e-01,1.70603e-01,9.99999e-01,9.99999e-01,9.14971e-01,1.86457e-01,9.99997e-01
8.326664562e-01,1.76163e-01,9.99999e-01,9.99999e-01,9.13961e-01,1.92747e-01,9.99998e-01
8.368297885e-01,1.86665e-01,9.99999e-01,9.99999e-01,9.37457e-01,1.99118e-01,9.99998e-01
8.410139374e-01,1.97821e-01,9.99999e-01,9.99999e-01,9.62312e-01,2.05568e-01,9.99999e-01
8.452190071e-01,2.08130e-01,9.99999e-01,9.99999e-01,9.81315e-01,2.12093e-01,9.99999e-01
8.494451021e-01,2.16316e-01,9.99999e-01,9.99999e-01,9.89142e-01,2.18690e-01,9.99999e-01
8.536923276e-01,2.23903e-01,9.99999e-01,9.99999e-01,9.93551e-01,2.25356e-01,9.99999e-01
8.579607893e-01,2.31167e-01,9.99999e-01,9.99999e-01,9.96032e-01,2.32087e-01,9.99999e-01
8.622505932e-01,2.38277e-01,9.99999e-01,9.99999e-01,9.97474e-01,2.38881e-01,9.99999e-01
8.665618462e-01,2.14480e-01,9.99999e-01,8.74092e-01,9.98440e-01,2.45733e-01,9.99999e-01
8.708946554e-01,8.81283e-02,9.99999e-01,3.49400e-01,9.98217e-01,2.52641e-01,9.99999e-01
8.752491287e-01,1.07707e-01,9.99999e-01,4.15820e-01,9.97614e-01,2.59600e-01,9.99999e-01
8.796253743e-01,1.62135e-01,9.99999e-01,6.09995e-01,9.96705e-01,2.66609e-01,9.99999e-01
8.840235012e-01,2.10086e-01,9.99999e-01,7.70463e-01,9.96235e-01,2.73662e-01,9.99999e-01
8.884436187e-01,2.49783e-01,9.99999e-01,9.01492e-01,9.86522e-01,2.80757e-01,9.99998e-01
8.928858368e-01,2.39498e-01,9.99999e-01,9.58834e-01,8.66708e-01,2.87891e-01,9.99997e-01
8.973502660e-01,2.26733e-01,9.99999e-01,9.89796e-01,7.75897e-01,2.95059e-01,9.99996e-01
9.018370173e-01,2.65107e-01,9.99999e-01,9.98868e-01,8.77995e-01,3.02260e-01,9.99995e-01
9.063462024e-01,2.69301e-01,9.99999e-01,9.72459e-01,8.92569e-01,3.09488e-01,9.99995e-01
9.108779334e-01,2.48758e-01,9.99999e-01,9.36019e-01,8.37166e-01,3.16742e-01,9.99994e-01
9.154323231e-01,2.60692e-01,9.99999e-01,9.84495e-01,8.16471e-01,3.24017e-01,9.99994e-01
9.200094847e-01,2.36912e-01,9.99999e-01,8.21433e-01,8.53309e-01,3.31310e-01,9.99992e-01
9.246095321e-01,1.96020e-01,9.99999e-01,7.25071e-01,7.88115e-01,3.38619e-01,9.99988e-01
9.292325798e-01,6.24585e-02,9.99999e-01,7.81787e-01,2.19432e-01,3.45940e-01,9.99975e-01
9.338787427e-01,4.05391e-02,9.99999e-01,7.85018e-01,1.39237e-01,3.53270e-01,9.99968e-01
9.385481364e-01,1.38263e-01,9.99999e-01,8.35894e-01,4.48007e-01,3.60606e-01,9.99967e-01
9.432408771e-01,1.14495e-01,9.99999e-01,8.95335e-01,3.42958e-01,3.67944e-01,9.99963e-01
9.479570815e-01,8.12763e-02,9.99999e-01,9.44908e-01,2.27701e-01,3.75283e-01,9.99968e-01
9.526968669e-01,1.18790e-01,9.99999e-01,9.73038e-01,3.17492e-01,3.82619e-01,9.99976e-01
9.574603512e-01,1.29530e-01,9.99999e-01,9.88366e-01,3.35440e-01,3.89949e-01,9.99982e-01
9.622476530e-01,1.60241e-01,9.99999e-01,9.96353e-01,4.04606e-01,3.97271e-01,9.99987e-01
9.670588912e-01,2.38954e-01,9.99999e-01,9.98904e-01,5.91185e-01,4.04581e-01,9.99992e-01
9.718941857e-01,2.94358e-01,9.99999e-01,9.99921e-01,7.14722e-01,4.11878e-01,9.99995e-01
9.767536566e-01,3.17060e-01,9.99999e-01,9.99999e-01,7.56424e-01,4.19158e-01,9.99996e-01
9.816374249e-01,3.46301e-01,9.99999e-01,9.99999e-01,8.12115e-01,4.26419e-01,9.99997e-01
9.865456120e-01,3.80640e-01,9.99999e-01,9.99999e-01,8.77741e-01,4.33659e-01,9.99998e-01
9.914783401e-01,4.06684e-01,9.99999e-01,9.99999e-01,9.22447e-01,4.40875e-01,9.99999e-01
9.964357318e-01,4.28788e-01,9.99999e-01,9.99999e-01,9.56976e-01,4.48065e-01,9.99999e-01
1.001417910e+00,4.43379e-01,9.99999e-01,9.99999e-01,9.73973e-01,4.55227e-01,9.99999e-01
1.006425000e+00,4.55468e-01,9.99999e-01,9.99999e-01,9.85097e-01,4.62358e-01,9.99999e-01
1.011457125e+00,4.65096e-01,9.99999e-01,9.99999e-01,9.90709e-01,4.69457e-01,9.99999e-01
1.016514411e+00,4.73515e-01,9.99999e-01,9.99999e-01,9.93690e-01,4.76522e-01,9.99999e-01
1.021596983e+00,4.81052e-01,9.99999e-01,9.99859e-01,9.94971e-01,4.83550e-01,9.99999e-01
1.026704968e+00,4.83281e-01,9.99999e-01,9.89065e-01,9.96078e-01,4.90540e-01,9.99999e-01
1.031838492e+00,4.52091e-01,9.99999e-01,9.11211e-01,9.97144e-01,4.97490e-01,9.99999e-01
1.036997685e+00,2.74747e-02,9.99999e-01,5.45400e-02,9.98305e-01,5.04399e-01,9.99999e-01
1.042182673e+00,2.17409e-03,9.99999e-01,4.25900e-03,9.97984e-01,5.11263e-01,9.99999e-01
1.047393587e+00,5.56043e-03,9.99999e-01,1.07567e-02,9.97324e-01,5.18083e-01,9.99999e-01
1.052630555e+00,9.22182e-07,9.99999e-01,1.76112e-06,9.96333e-01,5.24857e-01,9.99999e-01
1.057893707e+00,3.41291e-06,9.99999e-01,6.44081e-06,9.93892e-01,5.31583e-01,9.99999e-01
1.063183176e+00,7.61194e-05,9.99999e-01,1.42249e-04,9.89962e-01,5.38259e-01,9.99999e-01
1.068499092e+00,7.11206e-04,9.99999e-01,1.32016e-03,9.83234e-01,5.44885e-01,9.99999e-01
1.073841587e+00,7.59176e-03,9.99999e-01,1.39650e-02,9.80447e-01,5.51460e-01,9.99999e-01
1.079210795e+00,3.73537e-02,9.99999e-01,6.83012e-02,9.74942e-01,5.57981e-01,9.99998e-01
1.084606849e+00,1.18961e-01,9.99999e-01,2.18009e-01,9.62381e-01,5.64449e-01,9.99998e-01
1.090029883e+00,2.44479e-01,9.99999e-01,4.50511e-01,9.46679e-01,5.70861e-01,9.99997e-01
1.095480033e+00,3.36533e-01,9.99999e-01,6.73840e-01,8.61236e-01,5.77218e-01,9.99995e-01
1.100957433e+00,3.32798e-01,9.99999e-01,8.26003e-01,6.86568e-01,5.83517e-01,9.99992e-01
1.106462220e+00,2.17768e-01,9.99999e-01,9.23818e-01,3.96824e-01,5.89759e-01,9.99985e-01
1.111994531e+00,8.65484e-02,9.99999e-01,9.71022e-01,1.48826e-01,5.95943e-01,9.99970e-01
1.117554504e+00,3.00576e-02,9.99999e-01,9.92825e-01,5.01449e-02,6.02067e-01,9.99959e-01
1.123142276e+00,7.67664e-02,9.99999e-01,9.99525e-01,1.26248e-01,6.08131e-01,9.99951e-01
1.128757988e+00,1.47958e-01,9.99999e-01,9.99999e-01,2.40933e-01,6.14135e-01,9.99947e-01
1.134401778e+00,6.57175e-02,9.99999e-01,9.99999e-01,1.05989e-01,6.20078e-01,9.99941e-01
1.140073787e+00,2.58674e-01,9.99999e-01,9.99999e-01,4.13264e-01,6.25959e-01,9.99952e-01
1.145774156e+00,1.10665e-01,9.99999e-01,9.99999e-01,1.75171e-01,6.31778e-01,9.99959e-01
1.151503026e+00,9.33637e-02,9.99999e-01,9.99999e-01,1.46450e-01,6.37535e-01,9.99965e-01
1.157260541e+00,1.16487e-01,9.99999e-01,9.99999e-01,1.81102e-01,6.43229e-01,9.99973e-01
1.163046844e+00,1.81034e-01,9.99999e-01,9.99999e-01,2.79008e-01,6.48859e-01,9.99983e-01
1.168862078e+00,2.63237e-01,9.99999e-01,9.99999e-01,4.02244e-01,6.54427e-01,9.99991e-01
1.174706389e+00,3.75695e-01,9.99999e-01,9.99999e-01,5.69297e-01,6.59931e-01,9.99995e-01
1.180579921e+00,4.71239e-01,9.99999e-01,9.99999e-01,7.08237e-01,6.65371e-01,9.99996e-01
1.186482820e+00,5.51348e-01,9.99999e-01,9.99983e-01,8.22003e-01,6.70747e-01,9.99997e-01
1.192415234e+00,5.81152e-01,9.99999e-01,9.62798e-01,8.91729e-01,6.76059e-01,9.99997e-01
1.198377311e+00,3.27707e-01,9.99999e-01,5.21224e-01,9.08082e-01,6.81307e-01,9.99997e-01
1.204369197e+00,4.50564e-29,9.99999e-01,6.91910e-29,9.12972e-01,6.86491e-01,9.99998e-01
1.210391043e+00,2.05015e-117,9.99999e-01,3.11172e-117,9.16467e-01,6.91610e-01,9.99998e-01
1.216442998e+00,1.28878e-101,9.99999e-01,1.93699e-101,9.28388e-01,6.96666e-01,9.99998e-01
1.222525213e+00,4.37648e-100,9.99999e-01,6.42598e-100,9.43746e-01,7.01658e-01,9.99999e-01
1.228637839e+00,3.19116e-77,9.99999e-01,4.64012e-77,9.60601e-01,7.06585e-01,9.99999e-01
