#,Wave/freq,Total,O2,CO2,H2O,Rayleigh,CIA
4.000000000e-01,2.47043e-18,9.99999e-01,9.99999e-01,9.99920e-01,2.47063e-18,9.99999e-01
4.020000000e-01,5.50717e-18,9.99999e-01,9.99999e-01,9.99950e-01,5.50744e-18,9.99999e-01
4.040100000e-01,1.20740e-17,9.99999e-01,9.99999e-01,9.99978e-01,1.20742e-17,9.99999e-01
4.060300500e-01,2.60634e-17,9.99999e-01,9.99999e-01,9.99994e-01,2.60636e-17,9.99999e-01
4.080602003e-01,5.54125e-17,9.99999e-01,9.99999e-01,9.99997e-01,5.54126e-17,9.99999e-01
4.101005013e-01,1.16068e-16,9.99999e-01,9.99999e-01,9.99999e-01,1.16068e-16,9.99999e-01
4.121510038e-01,2.39592e-16,9.99999e-01,9.99999e-01,9.99996e-01,2.39593e-16,9.99999e-01
4.142117588e-01,4.87538e-16,9.99999e-01,9.99999e-01,9.99977e-01,4.87548e-16,9.99999e-01
4.162828176e-01,9.78193e-16,9.99999e-01,9.99999e-01,9.99901e-01,9.78289e-16,9.99999e-01
4.183642317e-01,1.93605e-15,9.99999e-01,9.99999e-01,9.99941e-01,1.93617e-15,9.99999e-01
4.204560528e-01,3.78048e-15,9.99999e-01,9.99999e-01,9.99963e-01,3.78061e-15,9.99999e-01
4.225583331e-01,7.28510e-15,9.99999e-01,9.99999e-01,9.99986e-01,7.28519e-15,9.99999e-01
4.246711247e-01,1.38576e-14,9.99999e-01,9.99999e-01,9.99988e-01,1.38578e-14,9.99999e-01
4.267944804e-01,2.60269e-14,9.99999e-01,9.99999e-01,9.99983e-01,2.60273e-14,9.99999e-01
4.289284528e-01,4.82783e-14,9.99999e-01,9.99999e-01,9.99987e-01,4.82789e-14,9.99999e-01
4.310730950e-01,8.84676e-14,9.99999e-01,9.99999e-01,9.99994e-01,8.84681e-14,9.99999e-01
4.332284605e-01,1.60184e-13,9.99999e-01,9.99999e-01,9.99998e-01,1.60184e-13,9.99999e-01
4.353946028e-01,2.86655e-13,9.99999e-01,9.99999e-01,9.99998e-01,2.86655e-13,9.99999e-01
4.375715758e-01,5.07112e-13,9.99999e-01,9.99999e-01,9.99989e-01,5.07117e-13,9.99999e-01
4.397594337e-01,8.87004e-13,9.99999e-01,9.99999e-01,9.99913e-01,8.87080e-13,9.99999e-01
4.419582309e-01,1.53402e-12,9.99999e-01,9.99999e-01,9.99560e-01,1.53469e-12,9.99999e-01
4.441680220e-01,2.62559e-12,9.99999e-01,9.99999e-01,9.99658e-01,2.62649e-12,9.99999e-01
4.463888621e-01,4.44598e-12,9.99999e-01,9.99999e-01,9.99643e-01,4.44756e-12,9.99999e-01
4.486208064e-01,7.45167e-12,9.99999e-01,9.99999e-01,9.99778e-01,7.45332e-12,9.99999e-01
4.508639105e-01,1.23624e-11,9.99999e-01,9.99999e-01,9.99896e-01,1.23637e-11,9.99999e-01
4.531182300e-01,2.03043e-11,9.99999e-01,9.99999e-01,9.99958e-01,2.03051e-11,9.99999e-01
4.553838212e-01,3.30213e-11,9.99999e-01,9.99999e-01,9.99971e-01,3.30223e-11,9.99999e-01
4.576607403e-01,5.31901e-11,9.99999e-01,9.99999e-01,9.99986e-01,5.31908e-11,9.99999e-01
4.599490440e-01,8.48736e-11,9.99999e-01,9.99999e-01,9.99990e-01,8.48743e-11,9.99999e-01
4.622487892e-01,1.34186e-10,9.99999e-01,9.99999e-01,9.99997e-01,1.34186e-10,9.99999e-01
4.645600332e-01,2.10236e-10,9.99999e-01,9.99999e-01,9.99993e-01,2.10238e-10,9.99999e-01
4.668828333e-01,3.26449e-10,9.99999e-01,9.99999e-01,9.99894e-01,3.26483e-10,9.99999e-01
4.692172475e-01,5.02503e-10,9.99999e-01,9.99999e-01,9.99776e-01,5.02615e-10,9.99999e-01
4.715633337e-01,7.67089e-10,9.99999e-01,9.99999e-01,9.99853e-01,7.67201e-10,9.99999e-01
4.739211504e-01,1.16117e-09,9.99999e-01,9.99999e-01,9.99860e-01,1.16133e-09,9.99999e-01
4.762907561e-01,1.74346e-09,9.99999e-01,9.99999e-01,9.99927e-01,1.74359e-09,9.99999e-01
4.786722099e-01,2.59678e-09,9.99999e-01,9.99999e-01,9.99969e-01,2.59685e-09,9.99999e-01
4.810655710e-01,3.83733e-09,9.99999e-01,9.99999e-01,9.99990e-01,3.83737e-09,9.99999e-01
4.834708988e-01,5.62642e-09,9.99999e-01,9.99999e-01,9.99913e-01,5.62690e-09,9.99999e-01
4.858882533e-01,8.18754e-09,9.99999e-01,9.99999e-01,9.99841e-01,8.18883e-09,9.99999e-01
4.883176946e-01,1.18276e-08,9.99999e-01,9.99999e-01,9.99867e-01,1.18292e-08,9.99999e-01
4.907592831e-01,1.69622e-08,9.99999e-01,9.99999e-01,9.99880e-01,1.69642e-08,9.99999e-01
4.932130795e-01,2.41537e-08,9.99999e-01,9.99999e-01,9.99914e-01,2.41558e-08,9.99999e-01
4.956791449e-01,3.41551e-08,9.99999e-01,9.99999e-01,9.99954e-01,3.41566e-08,9.99999e-01
4.981575406e-01,4.79578e-08,9.99999e-01,9.99999e-01,9.99774e-01,4.79686e-08,9.99999e-01
5.006483283e-01,6.68765e-08,9.99999e-01,9.99999e-01,9.99416e-01,6.69154e-08,9.99999e-01
5.031515699e-01,9.24610e-08,9.99999e-01,9.99999e-01,9.97052e-01,9.27342e-08,9.99999e-01
5.056673278e-01,1.27491e-07,9.99999e-01,9.99999e-01,9.98444e-01,1.27689e-07,9.99999e-01
5.081956644e-01,1.74370e-07,9.99999e-01,9.99999e-01,9.98037e-01,1.74713e-07,9.99999e-01
5.107366428e-01,2.37263e-07,9.99999e-01,9.99999e-01,9.98674e-01,2.37578e-07,9.99999e-01
5.132903260e-01,3.20864e-07,9.99999e-01,9.99999e-01,9.99242e-01,3.21107e-07,9.99999e-01
5.158567776e-01,4.31292e-07,9.99999e-01,9.99999e-01,9.99679e-01,4.31429e-07,9.99999e-01
5.184360615e-01,5.76210e-07,9.99999e-01,9.99999e-01,9.99871e-01,5.76283e-07,9.99999e-01
5.210282418e-01,7.65347e-07,9.99999e-01,9.99999e-01,9.99951e-01,7.65383e-07,9.99999e-01
5.236333830e-01,1.01066e-06,9.99999e-01,9.99999e-01,9.99807e-01,1.01085e-06,9.99999e-01
5.262515499e-01,1.32757e-06,9.99999e-01,9.99999e-01,9.99879e-01,1.32773e-06,9.99999e-01
5.288828077e-01,1.73438e-06,9.99999e-01,9.99999e-01,9.99889e-01,1.73457e-06,9.99999e-01
5.315272217e-01,2.25393e-06,9.99999e-01,9.99999e-01,9.99902e-01,2.25415e-06,9.99999e-01
5.341848578e-01,2.91406e-06,9.99999e-01,9.99999e-01,9.99936e-01,2.91424e-06,9.99999e-01
5.368557821e-01,3.74773e-06,9.99999e-01,9.99999e-01,9.99775e-01,3.74856e-06,9.99999e-01
5.395400610e-01,4.79395e-06,9.99999e-01,9.99999e-01,9.99190e-01,4.79783e-06,9.99999e-01
5.422377613e-01,6.10455e-06,9.99999e-01,9.99999e-01,9.98956e-01,6.11093e-06,9.99999e-01
5.449489501e-01,7.73878e-06,9.99999e-01,9.99999e-01,9.99028e-01,7.74630e-06,9.99999e-01
5.476736949e-01,9.76505e-06,9.99999e-01,9.99999e-01,9.99140e-01,9.77344e-06,9.99999e-01
5.504120634e-01,1.22669e-05,9.99999e-01,9.99999e-01,9.99375e-01,1.22746e-05,9.99999e-01
5.531641237e-01,1.53417e-05,9.99999e-01,9.99999e-01,9.99685e-01,1.53465e-05,9.99999e-01
5.559299443e-01,1.91000e-05,9.99999e-01,9.99999e-01,9.99848e-01,1.91029e-05,9.99999e-01
5.587095940e-01,2.36738e-05,9.99999e-01,9.99999e-01,9.99904e-01,2.36760e-05,9.99999e-01
5.615031420e-01,2.92167e-05,9.99999e-01,9.99999e-01,9.99893e-01,2.92198e-05,9.99999e-01
5.643106577e-01,3.59079e-05,9.99999e-01,9.99999e-01,9.99879e-01,3.59122e-05,9.99999e-01
5.671322110e-01,4.38936e-05,9.99999e-01,9.99999e-01,9.98537e-01,4.39579e-05,9.99999e-01
5.699678720e-01,5.35088e-05,9.99999e-01,9.99999e-01,9.98451e-01,5.35917e-05,9.99999e-01
5.728177114e-01,6.49765e-05,9.99999e-01,9.99999e-01,9.98384e-01,6.50817e-05,9.99999e-01
5.756818000e-01,7.86157e-05,9.99999e-01,9.99999e-01,9.98517e-01,7.87323e-05,9.99999e-01
5.785602090e-01,9.47661e-05,9.99999e-01,9.99999e-01,9.98708e-01,9.48887e-05,9.99999e-01
5.814530100e-01,1.13792e-04,9.99999e-01,9.99999e-01,9.98702e-01,1.13939e-04,9.99999e-01
5.843602750e-01,1.36111e-04,9.99999e-01,9.99999e-01,9.98451e-01,1.36322e-04,9.99999e-01
5.872820764e-01,1.60370e-04,9.99999e-01,9.99999e-01,9.86747e-01,1.62524e-04,9.99999e-01
5.902184868e-01,1.89993e-04,9.99999e-01,9.99999e-01,9.83961e-01,1.93090e-04,9.99999e-01
5.931695792e-01,2.26032e-04,9.99999e-01,9.99999e-01,9.88652e-01,2.28626e-04,9.99999e-01
5.961354271e-01,2.66444e-04,9.99999e-01,9.99999e-01,9.87561e-01,2.69800e-04,9.99999e-01
5.991161043e-01,3.14466e-04,9.99999e-01,9.99999e-01,9.90912e-01,3.17350e-04,9.99999e-01
6.021116848e-01,3.70162e-04,9.99999e-01,9.99999e-01,9.94834e-01,3.72084e-04,9.99999e-01
6.051222432e-01,4.33752e-04,9.99999e-01,9.99999e-01,9.97383e-01,4.34890e-04,9.99999e-01
6.081478544e-01,5.06161e-04,9.99999e-01,9.99999e-01,9.98870e-01,5.06734e-04,9.99999e-01
6.111885937e-01,5.88384e-04,9.99999e-01,9.99999e-01,9.99521e-01,5.88665e-04,9.99999e-01
6.142445367e-01,6.81678e-04,9.99999e-01,9.99999e-01,9.99786e-01,6.81823e-04,9.99999e-01
6.173157594e-01,7.87342e-04,9.99999e-01,9.99999e-01,9.99881e-01,7.87435e-04,9.99999e-01
6.204023382e-01,9.06731e-04,9.99999e-01,9.99999e-01,9.99899e-01,9.06822e-04,9.99999e-01
6.235043498e-01,1.04094e-03,9.99999e-01,9.99999e-01,9.99559e-01,1.04140e-03,9.99999e-01
6.266218716e-01,1.18992e-03,9.99999e-01,9.99999e-01,9.97677e-01,1.19269e-03,9.99999e-01
6.297549810e-01,1.36114e-03,9.99999e-01,9.99999e-01,9.99147e-01,1.36230e-03,9.99999e-01
6.329037559e-01,1.54934e-03,9.99999e-01,9.99999e-01,9.98316e-01,1.55195e-03,9.99999e-01
6.360682746e-01,1.76093e-03,9.99999e-01,9.99999e-01,9.98565e-01,1.76346e-03,9.99999e-01
6.392486160e-01,1.99503e-03,9.99999e-01,9.99999e-01,9.98141e-01,1.99874e-03,9.99999e-01
6.424448591e-01,2.25419e-03,9.99999e-01,9.99999e-01,9.97510e-01,2.25982e-03,9.99999e-01
6.456570834e-01,2.51949e-03,9.99999e-01,9.99999e-01,9.88494e-01,2.54881e-03,9.99999e-01
6.488853688e-01,2.84379e-03,9.99999e-01,9.99999e-01,9.91582e-01,2.86793e-03,9.99999e-01
6.521297956e-01,3.19189e-03,9.99999e-01,9.99999e-01,9.91423e-01,3.21950e-03,9.99999e-01
6.553904446e-01,3.57507e-03,9.99999e-01,9.99999e-01,9.91446e-01,3.60591e-03,9.99999e-01
6.586673968e-01,4.00017e-03,9.99999e-01,9.99999e-01,9.92678e-01,4.02968e-03,9.99999e-01
6.619607338e-01,4.47500e-03,9.99999e-01,9.99999e-01,9.95912e-01,4.49337e-03,9.99999e-01
6.652705375e-01,4.98738e-03,9.99999e-01,9.99999e-01,9.97544e-01,4.99965e-03,9.99999e-01
6.685968902e-01,5.54492e-03,9.99999e-01,9.99999e-01,9.98858e-01,5.55126e-03,9.99999e-01
6.719398746e-01,6.14774e-03,9.99999e-01,9.99999e-01,9.99471e-01,6.15099e-03,9.99999e-01
6.752995740e-01,6.79977e-03,9.99999e-01,9.99999e-01,9.99712e-01,6.80172e-03,9.99999e-01
6.786760719e-01,7.50326e-03,9.99999e-01,9.99999e-01,9.99585e-01,7.50637e-03,9.99999e-01
6.820694522e-01,8.26205e-03,9.99999e-01,9.99999e-01,9.99290e-01,8.26791e-03,9.99999e-01
6.854797995e-01,9.08103e-03,9.99999e-01,9.99999e-01,9.99085e-01,9.08934e-03,9.99999e-01
6.889071985e-01,9.95158e-03,9.99999e-01,9.99999e-01,9.97782e-01,9.97370e-03,9.99999e-01
6.923517345e-01,1.05361e-02,9.99999e-01,9.99999e-01,9.64487e-01,1.09241e-02,9.99999e-01
6.958134932e-01,1.17220e-02,9.99999e-01,9.99999e-01,9.81456e-01,1.19435e-02,9.99999e-01
6.992925606e-01,1.28041e-02,9.99999e-01,9.99999e-01,9.82280e-01,1.30350e-02,9.99999e-01
7.027890234e-01,1.38920e-02,9.99999e-01,9.99999e-01,9.78188e-01,1.42018e-02,9.99999e-01
7.063029686e-01,1.51628e-02,9.99999e-01,9.99999e-01,9.81616e-01,1.54468e-02,9.99999e-01
7.098344834e-01,1.64771e-02,9.99999e-01,9.99999e-01,9.82349e-01,1.67731e-02,9.99999e-01
7.133836558e-01,1.77573e-02,9.99999e-01,9.99999e-01,9.76548e-01,1.81837e-02,9.99998e-01
7.169505741e-01,1.63091e-02,9.99999e-01,9.99999e-01,8.28651e-01,1.96815e-02,9.99997e-01
7.205353270e-01,1.93964e-02,9.99999e-01,9.99999e-01,9.11944e-01,2.12694e-02,9.99997e-01
7.241380036e-01,2.04031e-02,9.99999e-01,9.99999e-01,8.89019e-01,2.29501e-02,9.99996e-01
7.277586936e-01,2.22375e-02,9.99999e-01,9.99999e-01,8.99339e-01,2.47266e-02,9.99997e-01
7.313974871e-01,2.37549e-02,9.99999e-01,9.99999e-01,8.92998e-01,2.66013e-02,9.99997e-01
7.350544745e-01,2.68597e-02,9.99999e-01,9.99999e-01,9.39909e-01,2.85769e-02,9.99998e-01
7.387297469e-01,2.92867e-02,9.99999e-01,9.99999e-01,9.55341e-01,3.06558e-02,9.99999e-01
7.424233956e-01,3.21140e-02,9.99999e-01,9.99999e-01,9.77883e-01,3.28403e-02,9.99999e-01
7.461355126e-01,3.46596e-02,9.99999e-01,9.99999e-01,9.86533e-01,3.51327e-02,9.99999e-01
7.498661902e-01,3.72991e-02,9.99999e-01,9.99999e-01,9.93710e-01,3.75351e-02,9.99999e-01
7.536155211e-01,3.99256e-02,9.99999e-01,9.99999e-01,9.96908e-01,4.00494e-02,9.99999e-01
7.573835987e-01,4.26095e-02,9.99999e-01,9.99999e-01,9.98407e-01,4.26774e-02,9.99999e-01
7.611705167e-01,4.53759e-02,9.99999e-01,9.99999e-01,9.99010e-01,4.54209e-02,9.99999e-01
7.649763693e-01,4.82512e-02,9.99999e-01,9.99999e-01,9.99379e-01,4.82812e-02,9.99999e-01
7.688012511e-01,5.12376e-02,9.99999e-01,9.99999e-01,9.99567e-01,5.12598e-02,9.99999e-01
7.726452574e-01,5.43385e-02,9.99999e-01,9.99999e-01,9.99644e-01,5.43578e-02,9.99999e-01
7.765084837e-01,5.75471e-02,9.99999e-01,9.99999e-01,9.99493e-01,5.75763e-02,9.99999e-01
7.803910261e-01,5.45455e-02,9.99999e-01,8.97198e-01,9.97814e-01,6.09160e-02,9.99999e-01
7.842929812e-01,3.69436e-02,9.99999e-01,5.77629e-01,9.92392e-01,6.43778e-02,9.99999e-01
7.882144461e-01,3.76331e-02,9.99999e-01,5.61465e-01,9.84406e-01,6.79621e-02,9.99999e-01
7.921555184e-01,4.95711e-02,9.99999e-01,6.97169e-01,9.91430e-01,7.16691e-02,9.99999e-01
7.961162960e-01,5.82323e-02,9.99999e-01,7.82741e-01,9.84878e-01,7.54992e-02,9.99999e-01
8.000968774e-01,6.83494e-02,9.99999e-01,8.75371e-01,9.82549e-01,7.94522e-02,9.99999e-01
8.040973618e-01,7.66022e-02,9.99999e-01,9.33254e-01,9.82546e-01,8.35278e-02,9.99999e-01
8.081178486e-01,8.16964e-02,9.99999e-01,9.68719e-01,9.61136e-01,8.77259e-02,9.99998e-01
8.121584379e-01,7.73939e-02,9.99999e-01,9.90250e-01,8.48790e-01,9.20457e-02,9.99997e-01
8.162192301e-01,7.93279e-02,9.99999e-01,9.97838e-01,8.23824e-01,9.64866e-02,9.99996e-01
8.203003262e-01,9.19064e-02,9.99999e-01,9.99967e-01,9.09555e-01,1.01048e-01,9.99996e-01
8.244018279e-01,9.27790e-02,9.99999e-01,9.99999e-01,8.77528e-01,1.05728e-01,9.99996e-01
8.285238370e-01,9.83781e-02,9.99999e-01,9.99999e-01,8.90091e-01,1.10526e-01,9.99997e-01
8.326664562e-01,1.02653e-01,9.99999e-01,9.99999e-01,8.89230e-01,1.15440e-01,9.99997e-01
8.368297885e-01,1.10727e-01,9.99999e-01,9.99999e-01,9.19126e-01,1.20470e-01,9.99998e-01
8.410139374e-01,1.19466e-01,9.99999e-01,9.99999e-01,9.51064e-01,1.25613e-01,9.99999e-01
8.452190071e-01,1.27684e-01,9.99999e-01,9.99999e-01,9.75677e-01,1.30867e-01,9.99999e-01
8.494451021e-01,1.34297e-01,9.99999e-01,9.99999e-01,9.85803e-01,1.36231e-01,9.99999e-01
8.536923276e-01,1.40510e-01,9.99999e-01,9.99999e-01,9.91586e-01,1.41702e-01,9.99999e-01
8.579607893e-01,1.46513e-01,9.99999e-01,9.99999e-01,9.94808e-01,1.47278e-01,9.99999e-01
8.622505932e-01,1.52452e-01,9.99999e-01,9.99999e-01,9.96700e-01,1.52957e-01,9.99999e-01
8.665618462e-01,1.35526e-01,9.99999e-01,8.55405e-01,9.97956e-01,1.58736e-01,9.99999e-01
8.708946554e-01,4.30852e-02,9.99999e-01,2.62289e-01,9.97659e-01,1.64613e-01,9.99999e-01
8.752491287e-01,5.50666e-02,9.99999e-01,3.23741e-01,9.96870e-01,1.70585e-01,9.99999e-01
8.796253743e-01,9.29958e-02,9.99999e-01,5.28515e-01,9.95667e-01,1.76649e-01,9.99999e-01
8.840235012e-01,1.29656e-01,9.99999e-01,7.12595e-01,9.95053e-01,1.82803e-01,9.99999e-01
8.884436187e-01,1.62365e-01,9.99999e-01,8.73956e-01,9.82104e-01,1.89043e-01,9.99998e-01
8.928858368e-01,1.53572e-01,9.99999e-01,9.46675e-01,8.28840e-01,1.95367e-01,9.99996e-01
8.973502660e-01,1.43320e-01,9.99999e-01,9.86789e-01,7.19114e-01,2.01771e-01,9.99995e-01
9.018370173e-01,1.75808e-01,9.99999e-01,9.98536e-01,8.45313e-01,2.08252e-01,9.99994e-01
9.063462024e-01,1.79132e-01,9.99999e-01,9.63785e-01,8.61612e-01,2.14807e-01,9.99994e-01
9.108779334e-01,1.61705e-01,9.99999e-01,9.17389e-01,7.93071e-01,2.21433e-01,9.99993e-01
9.154323231e-01,1.71877e-01,9.99999e-01,9.79977e-01,7.67639e-01,2.28126e-01,9.99992e-01
9.200094847e-01,1.54057e-01,9.99999e-01,7.81401e-01,8.13670e-01,2.34884e-01,9.99990e-01
9.246095321e-01,1.18949e-01,9.99999e-01,6.57944e-01,7.32996e-01,2.41702e-01,9.99984e-01
9.292325798e-01,2.88427e-02,9.99999e-01,7.25451e-01,1.48186e-01,2.48578e-01,9.99968e-01
9.338787427e-01,1.66847e-02,9.99999e-01,7.30045e-01,8.33823e-02,2.55507e-01,9.99959e-01
9.385481364e-01,7.81506e-02,9.99999e-01,7.91561e-01,3.62878e-01,2.62487e-01,9.99957e-01
9.432408771e-01,6.17562e-02,9.99999e-01,8.65781e-01,2.59225e-01,2.69515e-01,9.99952e-01
9.479570815e-01,3.95589e-02,9.99999e-01,9.28598e-01,1.52425e-01,2.76586e-01,9.99959e-01
9.526968669e-01,6.39146e-02,9.99999e-01,9.64969e-01,2.31741e-01,2.83697e-01,9.99968e-01
9.574603512e-01,7.09842e-02,9.99999e-01,9.84850e-01,2.47065e-01,2.90846e-01,9.99976e-01
9.622476530e-01,9.29863e-02,9.99999e-01,9.95249e-01,3.13212e-01,2.98028e-01,9.99984e-01
9.670588912e-01,1.54837e-01,9.99999e-01,9.98574e-01,5.07865e-01,3.05240e-01,9.99989e-01
9.718941857e-01,2.01686e-01,9.99999e-01,9.99899e-01,6.45490e-01,3.12479e-01,9.99993e-01
9.767536566e-01,2.22155e-01,9.99999e-01,9.99999e-01,6.94797e-01,3.19742e-01,9.99995e-01
9.816374249e-01,2.49275e-01,9.99999e-01,9.99999e-01,7.62252e-01,3.27025e-01,9.99996e-01
9.865456120e-01,2.81980e-01,9.99999e-01,9.99999e-01,8.43431e-01,3.34325e-01,9.99998e-01
9.914783401e-01,3.07413e-01,9.99999e-01,9.99999e-01,8.99817e-01,3.41639e-01,9.99999e-01
9.964357318e-01,3.29464e-01,9.99999e-01,9.99999e-01,9.44119e-01,3.48964e-01,9.99999e-01
1.001417910e+00,3.44220e-01,9.99999e-01,9.99999e-01,9.66103e-01,3.56297e-01,9.99999e-01
1.006425000e+00,3.56552e-01,9.99999e-01,9.99999e-01,9.80521e-01,3.63634e-01,9.99999e-01
1.011457125e+00,3.66475e-01,9.99999e-01,9.99999e-01,9.87873e-01,3.70973e-01,9.99999e-01
1.016514411e+00,3.75190e-01,9.99999e-01,9.99999e-01,9.91748e-01,3.78311e-01,9.99999e-01
1.021596983e+00,3.83031e-01,9.99999e-01,9.99796e-01,9.93419e-01,3.85645e-01,9.99999e-01
1.026704968e+00,3.85278e-01,9.99999e-01,9.85455e-01,9.94864e-01,3.92972e-01,9.99999e-01
1.031838492e+00,3.54924e-01,9.99999e-01,8.89786e-01,9.96266e-01,4.00289e-01,9.99999e-01
1.036997685e+00,1.59049e-02,9.99999e-01,3.90866e-02,9.97779e-01,4.07594e-01,9.99999e-01
1.042182673e+00,5.15978e-04,9.99999e-01,1.24611e-03,9.97351e-01,4.14884e-01,9.99999e-01
1.047393587e+00,1.48378e-03,9.99999e-01,3.52487e-03,9.96490e-01,4.22157e-01,9.99999e-01
1.052630555e+00,2.97716e-08,9.99999e-01,6.95390e-08,9.95186e-01,4.29410e-01,9.99999e-01
1.057893707e+00,1.12193e-07,9.99999e-01,2.57966e-07,9.91975e-01,4.36640e-01,9.99999e-01
1.063183176e+00,6.52896e-06,9.99999e-01,1.48178e-05,9.86834e-01,4.43846e-01,9.99999e-01
1.068499092e+00,9.12929e-05,9.99999e-01,2.05178e-04,9.78059e-01,4.51024e-01,9.99999e-01
1.073841587e+00,1.81190e-03,9.99999e-01,4.02554e-03,9.74396e-01,4.58174e-01,9.99999e-01
1.079210795e+00,1.44698e-02,9.99999e-01,3.18884e-02,9.67297e-01,4.65292e-01,9.99998e-01
1.084606849e+00,6.28332e-02,9.99999e-01,1.38869e-01,9.50953e-01,4.72377e-01,9.99997e-01
1.090029883e+00,1.59209e-01,9.99999e-01,3.54444e-01,9.30407e-01,4.79427e-01,9.99996e-01
1.095480033e+00,2.40999e-01,9.99999e-01,5.98185e-01,8.21810e-01,4.86440e-01,9.99994e-01
1.100957433e+00,2.37340e-01,9.99999e-01,7.79262e-01,6.11368e-01,4.93414e-01,9.99990e-01
1.106462220e+00,1.38175e-01,9.99999e-01,9.01799e-01,3.02680e-01,5.00347e-01,9.99980e-01
1.111994531e+00,4.28615e-02,9.99999e-01,9.62345e-01,8.71235e-02,5.07237e-01,9.99962e-01
1.117554504e+00,1.15267e-02,9.99999e-01,9.90682e-01,2.25374e-02,5.14084e-01,9.99946e-01
1.123142276e+00,3.95762e-02,9.99999e-01,9.99386e-01,7.59881e-02,5.20885e-01,9.99936e-01
1.128757988e+00,8.55844e-02,9.99999e-01,9.99999e-01,1.62214e-01,5.27639e-01,9.99931e-01
1.134401778e+00,3.86682e-02,9.99999e-01,9.99999e-01,7.23711e-02,5.34344e-01,9.99923e-01
1.140073787e+00,1.72641e-01,9.99999e-01,9.99999e-01,3.19134e-01,5.41000e-01,9.99937e-01
1.145774156e+00,6.06797e-02,9.99999e-01,9.99999e-01,1.10815e-01,5.47605e-01,9.99947e-01
1.151503026e+00,4.85092e-02,9.99999e-01,9.99999e-01,8.75406e-02,5.54158e-01,9.99954e-01
1.157260541e+00,6.20482e-02,9.99999e-01,9.99999e-01,1.10674e-01,5.60657e-01,9.99965e-01
1.163046844e+00,1.09592e-01,9.99999e-01,9.99999e-01,1.93254e-01,5.67102e-01,9.99977e-01
1.168862078e+00,1.75925e-01,9.99999e-01,9.99999e-01,3.06764e-01,5.73491e-01,9.99988e-01
1.174706389e+00,2.78735e-01,9.99999e-01,9.99999e-01,4.80725e-01,5.79824e-01,9.99994e-01
1.180579921e+00,3.73992e-01,9.99999e-01,9.99999e-01,6.38104e-01,5.86100e-01,9.99995e-01
1.186482820e+00,4.58443e-01,9.99999e-01,9.99971e-01,7.73998e-01,5.92318e-01,9.99996e-01
1.192415234e+00,4.90996e-01,9.99999e-01,9.51231e-01,8.60664e-01,5.98477e-01,9.99996e-01
1.198377311e+00,2.73387e-01,9.99999e-01,5.02276e-01,8.81250e-01,6.04577e-01,9.99997e-01
1.204369197e+00,1.96988e-37,9.99999e-01,3.45735e-37,8.87680e-01,6.10616e-01,9.99997e-01
1.210391043e+00,2.65393e-153,9.99999e-01,4.58707e-153,8.92073e-01,6.16595e-01,9.99998e-01
1.216442998e+00,1.39630e-132,9.99999e-01,2.38247e-132,9.07447e-01,6.22512e-01,9.99998e-01
1.222525213e+00,1.42316e-130,9.99999e-01,2.35511e-130,9.27020e-01,6.28368e-01,9.99998e-01
1.228637839e+00,1.32161e-100,9.99999e-01,2.15913e-100,9.48709e-01,6.34162e-01,9.99999e-01
