#,Wave/freq,Total,O2,CO2,H2O,Rayleigh,CIA
4.000000000e-01,1.73602e-03,9.99999e-01,9.99999e-01,9.99987e-01,1.73604e-03,9.99999e-01
4.020000000e-01,1.96852e-03,9.99999e-01,9.99999e-01,9.99991e-01,1.96854e-03,9.99999e-01
4.040100000e-01,2.22633e-03,9.99999e-01,9.99999e-01,9.99996e-01,2.22634e-03,9.99999e-01
4.060300500e-01,2.51178e-03,9.99999e-01,9.99999e-01,9.99998e-01,2.51178e-03,9.99999e-01
4.080602003e-01,2.82708e-03,9.99999e-01,9.99999e-01,9.99999e-01,2.82709e-03,9.99999e-01
4.101005013e-01,3.17454e-03,9.99999e-01,9.99999e-01,9.99999e-01,3.17454e-03,9.99999e-01
4.121510038e-01,3.55655e-03,9.99999e-01,9.99999e-01,9.99999e-01,3.55655e-03,9.99999e-01
4.142117588e-01,3.97559e-03,9.99999e-01,9.99999e-01,9.99996e-01,3.97560e-03,9.99999e-01
4.162828176e-01,4.43418e-03,9.99999e-01,9.99999e-01,9.99984e-01,4.43425e-03,9.99999e-01
4.183642317e-01,4.93512e-03,9.99999e-01,9.99999e-01,9.99990e-01,4.93516e-03,9.99999e-01
4.204560528e-01,5.48103e-03,9.99999e-01,9.99999e-01,9.99993e-01,5.48106e-03,9.99999e-01
4.225583331e-01,6.07472e-03,9.99999e-01,9.99999e-01,9.99997e-01,6.07474e-03,9.99999e-01
4.246711247e-01,6.71904e-03,9.99999e-01,9.99999e-01,9.99997e-01,6.71906e-03,9.99999e-01
4.267944804e-01,7.41691e-03,9.99999e-01,9.99999e-01,9.99997e-01,7.41693e-03,9.99999e-01
4.289284528e-01,8.17131e-03,9.99999e-01,9.99999e-01,9.99997e-01,8.17133e-03,9.99999e-01
4.310730950e-01,8.98524e-03,9.99999e-01,9.99999e-01,9.99998e-01,8.98525e-03,9.99999e-01
4.332284605e-01,9.86172e-03,9.99999e-01,9.99999e-01,9.99999e-01,9.86172e-03,9.99999e-01
4.353946028e-01,1.08038e-02,9.99999e-01,9.99999e-01,9.99999e-01,1.08038e-02,9.99999e-01
4.375715758e-01,1.18146e-02,9.99999e-01,9.99999e-01,9.99998e-01,1.18146e-02,9.99999e-01
4.397594337e-01,1.28970e-02,9.99999e-01,9.99999e-01,9.99986e-01,1.28971e-02,9.99999e-01
4.419582309e-01,1.40536e-02,9.99999e-01,9.99999e-01,9.99931e-01,1.40545e-02,9.99999e-01
4.441680220e-01,1.52890e-02,9.99999e-01,9.99999e-01,9.99945e-01,1.52898e-02,9.99999e-01
4.463888621e-01,1.66050e-02,9.99999e-01,9.99999e-01,9.99943e-01,1.66059e-02,9.99999e-01
4.486208064e-01,1.80054e-02,9.99999e-01,9.99999e-01,9.99964e-01,1.80060e-02,9.99999e-01
4.508639105e-01,1.94926e-02,9.99999e-01,9.99999e-01,9.99983e-01,1.94930e-02,9.99999e-01
4.531182300e-01,2.10695e-02,9.99999e-01,9.99999e-01,9.99993e-01,2.10696e-02,9.99999e-01
4.553838212e-01,2.27388e-02,9.99999e-01,9.99999e-01,9.99995e-01,2.27389e-02,9.99999e-01
4.576607403e-01,2.45034e-02,9.99999e-01,9.99999e-01,9.99997e-01,2.45034e-02,9.99999e-01
4.599490440e-01,2.63659e-02,9.99999e-01,9.99999e-01,9.99998e-01,2.63659e-02,9.99999e-01
4.622487892e-01,2.83290e-02,9.99999e-01,9.99999e-01,9.99999e-01,2.83290e-02,9.99999e-01
4.645600332e-01,3.03951e-02,9.99999e-01,9.99999e-01,9.99998e-01,3.03951e-02,9.99999e-01
4.668828333e-01,3.25661e-02,9.99999e-01,9.99999e-01,9.99983e-01,3.25666e-02,9.99999e-01
4.692172475e-01,3.48444e-02,9.99999e-01,9.99999e-01,9.99964e-01,3.48457e-02,9.99999e-01
4.715633337e-01,3.72336e-02,9.99999e-01,9.99999e-01,9.99976e-01,3.72344e-02,9.99999e-01
4.739211504e-01,3.97340e-02,9.99999e-01,9.99999e-01,9.99977e-01,3.97349e-02,9.99999e-01
4.762907561e-01,4.23484e-02,9.99999e-01,9.99999e-01,9.99988e-01,4.23489e-02,9.99999e-01
4.786722099e-01,4.50779e-02,9.99999e-01,9.99999e-01,9.99994e-01,4.50781e-02,9.99999e-01
4.810655710e-01,4.79239e-02,9.99999e-01,9.99999e-01,9.99998e-01,4.79240e-02,9.99999e-01
4.834708988e-01,5.08873e-02,9.99999e-01,9.99999e-01,9.99986e-01,5.08880e-02,9.99999e-01
4.858882533e-01,5.39699e-02,9.99999e-01,9.99999e-01,9.99974e-01,5.39713e-02,9.99999e-01
4.883176946e-01,5.71738e-02,9.99999e-01,9.99999e-01,9.99978e-01,5.71749e-02,9.99999e-01
4.907592831e-01,6.04987e-02,9.99999e-01,9.99999e-01,9.99980e-01,6.04998e-02,9.99999e-01
4.932130795e-01,6.39457e-02,9.99999e-01,9.99999e-01,9.99986e-01,6.39466e-02,9.99999e-01
4.956791449e-01,6.75153e-02,9.99999e-01,9.99999e-01,9.99992e-01,6.75158e-02,9.99999e-01
4.981575406e-01,7.12053e-02,9.99999e-01,9.99999e-01,9.99964e-01,7.12078e-02,9.99999e-01
5.006483283e-01,7.50159e-02,9.99999e-01,9.99999e-01,9.99908e-01,7.50227e-02,9.99999e-01
5.031515699e-01,7.89241e-02,9.99999e-01,9.99999e-01,9.99537e-01,7.89606e-02,9.99999e-01
5.056673278e-01,8.30010e-02,9.99999e-01,9.99999e-01,9.99755e-01,8.30213e-02,9.99999e-01
5.081956644e-01,8.71775e-02,9.99999e-01,9.99999e-01,9.99691e-01,8.72044e-02,9.99999e-01
5.107366428e-01,9.14902e-02,9.99999e-01,9.99999e-01,9.99791e-01,9.15093e-02,9.99999e-01
5.132903260e-01,9.59240e-02,9.99999e-01,9.99999e-01,9.99880e-01,9.59354e-02,9.99999e-01
5.158567776e-01,1.00477e-01,9.99999e-01,9.99999e-01,9.99949e-01,1.00482e-01,9.99999e-01
5.184360615e-01,1.05145e-01,9.99999e-01,9.99999e-01,9.99979e-01,1.05147e-01,9.99999e-01
5.210282418e-01,1.09930e-01,9.99999e-01,9.99999e-01,9.99992e-01,1.09931e-01,9.99999e-01
5.236333830e-01,1.14828e-01,9.99999e-01,9.99999e-01,9.99969e-01,1.14831e-01,9.99999e-01
5.262515499e-01,1.19845e-01,9.99999e-01,9.99999e-01,9.99980e-01,1.19847e-01,9.99999e-01
5.288828077e-01,1.24974e-01,9.99999e-01,9.99999e-01,9.99982e-01,1.24976e-01,9.99999e-01
5.315272217e-01,1.30215e-01,9.99999e-01,9.99999e-01,9.99984e-01,1.30217e-01,9.99999e-01
5.341848578e-01,1.35566e-01,9.99999e-01,9.99999e-01,9.99989e-01,1.35567e-01,9.99999e-01
5.368557821e-01,1.41020e-01,9.99999e-01,9.99999e-01,9.99964e-01,1.41025e-01,9.99999e-01
5.395400610e-01,1.46570e-01,9.99999e-01,9.99999e-01,9.99873e-01,1.46588e-01,9.99999e-01
5.422377613e-01,1.52230e-01,9.99999e-01,9.99999e-01,9.99835e-01,1.52255e-01,9.99999e-01
5.449489501e-01,1.57998e-01,9.99999e-01,9.99999e-01,9.99847e-01,1.58022e-01,9.99999e-01
5.476736949e-01,1.63865e-01,9.99999e-01,9.99999e-01,9.99864e-01,1.63887e-01,9.99999e-01
5.504120634e-01,1.69831e-01,9.99999e-01,9.99999e-01,9.99901e-01,1.69847e-01,9.99999e-01
5.531641237e-01,1.75892e-01,9.99999e-01,9.99999e-01,9.99950e-01,1.75901e-01,9.99999e-01
5.559299443e-01,1.82039e-01,9.99999e-01,9.99999e-01,9.99975e-01,1.82043e-01,9.99999e-01
5.587095940e-01,1.88270e-01,9.99999e-01,9.99999e-01,9.99984e-01,1.88273e-01,9.99999e-01
5.615031420e-01,1.94583e-01,9.99999e-01,9.99999e-01,9.99982e-01,1.94587e-01,9.99999e-01
5.643106577e-01,2.00977e-01,9.99999e-01,9.99999e-01,9.99980e-01,2.00981e-01,9.99999e-01
5.671322110e-01,2.07406e-01,9.99999e-01,9.99999e-01,9.99772e-01,2.07453e-01,9.99999e-01
5.699678720e-01,2.13947e-01,9.99999e-01,9.99999e-01,9.99755e-01,2.13999e-01,9.99999e-01
5.728177114e-01,2.20561e-01,9.99999e-01,9.99999e-01,9.99746e-01,2.20616e-01,9.99999e-01
5.756818000e-01,2.27249e-01,9.99999e-01,9.99999e-01,9.99767e-01,2.27302e-01,9.99999e-01
5.785602090e-01,2.34004e-01,9.99999e-01,9.99999e-01,9.99796e-01,2.34051e-01,9.99999e-01
5.814530100e-01,2.40813e-01,9.99999e-01,9.99999e-01,9.99796e-01,2.40862e-01,9.99999e-01
5.843602750e-01,2.47671e-01,9.99999e-01,9.99999e-01,9.99757e-01,2.47731e-01,9.99999e-01
5.872820764e-01,2.54123e-01,9.99999e-01,9.99999e-01,9.97914e-01,2.54654e-01,9.99999e-01
5.902184868e-01,2.60965e-01,9.99999e-01,9.99999e-01,9.97462e-01,2.61628e-01,9.99999e-01
5.931695792e-01,2.68169e-01,9.99999e-01,9.99999e-01,9.98209e-01,2.68650e-01,9.99999e-01
5.961354271e-01,2.75175e-01,9.99999e-01,9.99999e-01,9.98035e-01,2.75716e-01,9.99999e-01
5.991161043e-01,2.82417e-01,9.99999e-01,9.99999e-01,9.98566e-01,2.82823e-01,9.99999e-01
6.021116848e-01,2.89731e-01,9.99999e-01,9.99999e-01,9.99185e-01,2.89967e-01,9.99999e-01
6.051222432e-01,2.97022e-01,9.99999e-01,9.99999e-01,9.99587e-01,2.97145e-01,9.99999e-01
6.081478544e-01,3.04300e-01,9.99999e-01,9.99999e-01,9.99821e-01,3.04354e-01,9.99999e-01
6.111885937e-01,3.11566e-01,9.99999e-01,9.99999e-01,9.99924e-01,3.11590e-01,9.99999e-01
6.142445367e-01,3.18839e-01,9.99999e-01,9.99999e-01,9.99965e-01,3.18850e-01,9.99999e-01
6.173157594e-01,3.26124e-01,9.99999e-01,9.99999e-01,9.99981e-01,3.26130e-01,9.99999e-01
6.204023382e-01,3.33424e-01,9.99999e-01,9.99999e-01,9.99983e-01,3.33429e-01,9.99999e-01
6.235043498e-01,3.40718e-01,9.99999e-01,9.99999e-01,9.99931e-01,3.40741e-01,9.99999e-01
6.266218716e-01,3.47938e-01,9.99999e-01,9.99999e-01,9.99635e-01,3.48065e-01,9.99999e-01
6.297549810e-01,3.55350e-01,9.99999e-01,9.99999e-01,9.99865e-01,3.55397e-01,9.99999e-01
6.329037559e-01,3.62638e-01,9.99999e-01,9.99999e-01,9.99735e-01,3.62734e-01,9.99999e-01
6.360682746e-01,3.69990e-01,9.99999e-01,9.99999e-01,9.99774e-01,3.70073e-01,9.99999e-01
6.392486160e-01,3.77301e-01,9.99999e-01,9.99999e-01,9.99707e-01,3.77411e-01,9.99999e-01
6.424448591e-01,3.84596e-01,9.99999e-01,9.99999e-01,9.99610e-01,3.84746e-01,9.99999e-01
6.456570834e-01,3.91366e-01,9.99999e-01,9.99999e-01,9.98194e-01,3.92074e-01,9.99999e-01
6.488853688e-01,3.98862e-01,9.99999e-01,9.99999e-01,9.98670e-01,3.99392e-01,9.99999e-01
6.521297956e-01,4.06148e-01,9.99999e-01,9.99999e-01,9.98644e-01,4.06699e-01,9.99999e-01
6.553904446e-01,4.13437e-01,9.99999e-01,9.99999e-01,9.98660e-01,4.13991e-01,9.99999e-01
6.586673968e-01,4.20779e-01,9.99999e-01,9.99999e-01,9.98844e-01,4.21266e-01,9.99999e-01
6.619607338e-01,4.28235e-01,9.99999e-01,9.99999e-01,9.99332e-01,4.28521e-01,9.99999e-01
6.652705375e-01,4.35586e-01,9.99999e-01,9.99999e-01,9.99612e-01,4.35754e-01,9.99999e-01
6.685968902e-01,4.42884e-01,9.99999e-01,9.99999e-01,9.99819e-01,4.42963e-01,9.99999e-01
6.719398746e-01,4.50108e-01,9.99999e-01,9.99999e-01,9.99916e-01,4.50145e-01,9.99999e-01
6.752995740e-01,4.57278e-01,9.99999e-01,9.99999e-01,9.99954e-01,4.57299e-01,9.99999e-01
6.786760719e-01,4.64391e-01,9.99999e-01,9.99999e-01,9.99934e-01,4.64421e-01,9.99999e-01
6.820694522e-01,4.71458e-01,9.99999e-01,9.99999e-01,9.99888e-01,4.71510e-01,9.99999e-01
6.854797995e-01,4.78496e-01,9.99999e-01,9.99999e-01,9.99856e-01,4.78564e-01,9.99999e-01
6.889071985e-01,4.85415e-01,9.99999e-01,9.99999e-01,9.99655e-01,4.85582e-01,9.99999e-01
6.923517345e-01,4.89777e-01,9.99999e-01,9.99999e-01,9.94349e-01,4.92560e-01,9.99999e-01
6.958134932e-01,4.98015e-01,9.99999e-01,9.99999e-01,9.97029e-01,4.99498e-01,9.99999e-01
6.992925606e-01,5.04980e-01,9.99999e-01,9.99999e-01,9.97206e-01,5.06394e-01,9.99999e-01
7.027890234e-01,5.11470e-01,9.99999e-01,9.99999e-01,9.96537e-01,5.13246e-01,9.99999e-01
7.063029686e-01,5.18540e-01,9.99999e-01,9.99999e-01,9.97090e-01,5.20053e-01,9.99999e-01
7.098344834e-01,5.25343e-01,9.99999e-01,9.99999e-01,9.97208e-01,5.26813e-01,9.99999e-01
7.133836558e-01,5.31551e-01,9.99999e-01,9.99999e-01,9.96300e-01,5.33524e-01,9.99999e-01
7.169505741e-01,5.24204e-01,9.99999e-01,9.99999e-01,9.70413e-01,5.40186e-01,9.99999e-01
7.205353270e-01,5.38763e-01,9.99999e-01,9.99999e-01,9.85306e-01,5.46798e-01,9.99999e-01
7.241380036e-01,5.43129e-01,9.99999e-01,9.99999e-01,9.81516e-01,5.53357e-01,9.99999e-01
7.277586936e-01,5.50512e-01,9.99999e-01,9.99999e-01,9.83297e-01,5.59863e-01,9.99999e-01
7.313974871e-01,5.56239e-01,9.99999e-01,9.99999e-01,9.82209e-01,5.66314e-01,9.99999e-01
7.350544745e-01,5.67133e-01,9.99999e-01,9.99999e-01,9.90260e-01,5.72711e-01,9.99999e-01
7.387297469e-01,5.74897e-01,9.99999e-01,9.99999e-01,9.92826e-01,5.79051e-01,9.99999e-01
7.424233956e-01,5.83275e-01,9.99999e-01,9.99999e-01,9.96482e-01,5.85334e-01,9.99999e-01
7.461355126e-01,5.90298e-01,9.99999e-01,9.99999e-01,9.97868e-01,5.91559e-01,9.99999e-01
7.498661902e-01,5.97131e-01,9.99999e-01,9.99999e-01,9.99006e-01,5.97725e-01,9.99999e-01
7.536155211e-01,6.03538e-01,9.99999e-01,9.99999e-01,9.99512e-01,6.03832e-01,9.99999e-01
7.573835987e-01,6.09726e-01,9.99999e-01,9.99999e-01,9.99749e-01,6.09879e-01,9.99999e-01
7.611705167e-01,6.15769e-01,9.99999e-01,9.99999e-01,9.99843e-01,6.15865e-01,9.99999e-01
7.649763693e-01,6.21729e-01,9.99999e-01,9.99999e-01,9.99902e-01,6.21790e-01,9.99999e-01
7.688012511e-01,6.27611e-01,9.99999e-01,9.99999e-01,9.99931e-01,6.27653e-01,9.99999e-01
7.726452574e-01,6.33419e-01,9.99999e-01,9.99999e-01,9.99943e-01,6.33454e-01,9.99999e-01
7.765084837e-01,6.39142e-01,9.99999e-01,9.99999e-01,9.99920e-01,6.39193e-01,9.99999e-01
7.803910261e-01,6.31019e-01,9.99999e-01,9.78849e-01,9.99658e-01,6.44868e-01,9.99999e-01
7.842929812e-01,5.91377e-01,9.99999e-01,9.10187e-01,9.98808e-01,6.50481e-01,9.99999e-01
7.882144461e-01,5.91742e-01,9.99999e-01,9.04174e-01,9.97536e-01,6.56030e-01,9.99999e-01
7.921555184e-01,6.23378e-01,9.99999e-01,9.43608e-01,9.98645e-01,6.61515e-01,9.99999e-01
7.961162960e-01,6.39967e-01,9.99999e-01,9.61838e-01,9.97618e-01,6.66937e-01,9.99999e-01
8.000968774e-01,6.56472e-01,9.99999e-01,9.79158e-01,9.97242e-01,6.72294e-01,9.99999e-01
8.040973618e-01,6.68381e-01,9.99999e-01,9.89134e-01,9.97243e-01,6.77588e-01,9.99999e-01
8.081178486e-01,6.75208e-01,9.99999e-01,9.95009e-01,9.93809e-01,6.82817e-01,9.99999e-01
8.121584379e-01,6.69308e-01,9.99999e-01,9.98450e-01,9.74357e-01,6.87982e-01,9.99999e-01
8.162192301e-01,6.71693e-01,9.99999e-01,9.99657e-01,9.69465e-01,6.93083e-01,9.99999e-01
8.203003262e-01,6.87460e-01,9.99999e-01,9.99994e-01,9.84734e-01,6.98120e-01,9.99999e-01
8.244018279e-01,6.87922e-01,9.99999e-01,9.99999e-01,9.78422e-01,7.03093e-01,9.99999e-01
8.285238370e-01,6.95082e-01,9.99999e-01,9.99999e-01,9.81750e-01,7.08003e-01,9.99999e-01
8.326664562e-01,6.99667e-01,9.99999e-01,9.99999e-01,9.81508e-01,7.12848e-01,9.99999e-01
8.368297885e-01,7.08134e-01,9.99999e-01,9.99999e-01,9.86767e-01,7.17630e-01,9.99999e-01
8.410139374e-01,7.16658e-01,9.99999e-01,9.99999e-01,9.92120e-01,7.22349e-01,9.99999e-01
8.452190071e-01,7.24191e-01,9.99999e-01,9.99999e-01,9.96128e-01,7.27005e-01,9.99999e-01
8.494451021e-01,7.29957e-01,9.99999e-01,9.99999e-01,9.97757e-01,7.31597e-01,9.99999e-01
8.536923276e-01,7.35150e-01,9.99999e-01,9.99999e-01,9.98671e-01,7.36128e-01,9.99999e-01
8.579607893e-01,7.39991e-01,9.99999e-01,9.99999e-01,9.99182e-01,7.40595e-01,9.99999e-01
8.622505932e-01,7.44615e-01,9.99999e-01,9.99999e-01,9.99480e-01,7.45002e-01,9.99999e-01
8.665618462e-01,7.09102e-01,9.99999e-01,9.46589e-01,9.99678e-01,7.49346e-01,9.99999e-01
8.708946554e-01,5.91936e-01,9.99999e-01,7.85728e-01,9.99632e-01,7.53629e-01,9.99999e-01
8.752491287e-01,6.24669e-01,9.99999e-01,8.24659e-01,9.99508e-01,7.57852e-01,9.99999e-01
8.796253743e-01,6.85518e-01,9.99999e-01,9.00213e-01,9.99320e-01,7.62013e-01,9.99999e-01
8.840235012e-01,7.25078e-01,9.99999e-01,9.47162e-01,9.99223e-01,7.66115e-01,9.99999e-01
8.884436187e-01,7.51745e-01,9.99999e-01,9.78827e-01,9.97189e-01,7.70158e-01,9.99999e-01
8.928858368e-01,7.44874e-01,9.99999e-01,9.91386e-01,9.70510e-01,7.74141e-01,9.99999e-01
8.973502660e-01,7.36168e-01,9.99999e-01,9.97895e-01,9.48122e-01,7.78065e-01,9.99998e-01
9.018370173e-01,7.60708e-01,9.99999e-01,9.99767e-01,9.73078e-01,7.81931e-01,9.99998e-01
9.063462024e-01,7.62829e-01,9.99999e-01,9.94121e-01,9.76472e-01,7.85740e-01,9.99998e-01
9.108779334e-01,7.50403e-01,9.99999e-01,9.86448e-01,9.63447e-01,7.89491e-01,9.99998e-01
9.154323231e-01,7.57917e-01,9.99999e-01,9.96790e-01,9.58571e-01,7.93186e-01,9.99998e-01
9.200094847e-01,7.35914e-01,9.99999e-01,9.53677e-01,9.67344e-01,7.96824e-01,9.99998e-01
9.246095321e-01,7.11373e-01,9.99999e-01,9.35341e-01,9.49468e-01,8.00407e-01,9.99997e-01
9.292325798e-01,5.38900e-01,9.99999e-01,9.49022e-01,7.03722e-01,8.03935e-01,9.99994e-01
9.338787427e-01,4.88044e-01,9.99999e-01,9.50569e-01,6.33545e-01,8.07408e-01,9.99993e-01
9.385481364e-01,6.51015e-01,9.99999e-01,9.63506e-01,8.32145e-01,8.10827e-01,9.99992e-01
9.432408771e-01,6.16149e-01,9.99999e-01,9.77493e-01,7.73547e-01,8.14192e-01,9.99992e-01
9.479570815e-01,5.65901e-01,9.99999e-01,9.88407e-01,7.00052e-01,8.17505e-01,9.99993e-01
9.526968669e-01,6.25722e-01,9.99999e-01,9.94388e-01,7.66407e-01,8.20765e-01,9.99994e-01
9.574603512e-01,6.45852e-01,9.99999e-01,9.97596e-01,7.85637e-01,8.23973e-01,9.99995e-01
9.622476530e-01,6.79445e-01,9.99999e-01,9.99249e-01,8.22043e-01,8.27131e-01,9.99997e-01
9.670588912e-01,7.41610e-01,9.99999e-01,9.99774e-01,8.93446e-01,8.30237e-01,9.99997e-01
9.718941857e-01,7.76868e-01,9.99999e-01,9.99983e-01,9.32301e-01,8.33294e-01,9.99998e-01
9.767536566e-01,7.89052e-01,9.99999e-01,9.99999e-01,9.43502e-01,8.36301e-01,9.99998e-01
9.816374249e-01,8.03850e-01,9.99999e-01,9.99999e-01,9.57808e-01,8.39259e-01,9.99999e-01
9.865456120e-01,8.19803e-01,9.99999e-01,9.99999e-01,9.73441e-01,8.42169e-01,9.99999e-01
9.914783401e-01,8.31101e-01,9.99999e-01,9.99999e-01,9.83514e-01,8.45031e-01,9.99999e-01
9.964357318e-01,8.40207e-01,9.99999e-01,9.99999e-01,9.90989e-01,8.47847e-01,9.99999e-01
1.001417910e+00,8.46015e-01,9.99999e-01,9.99999e-01,9.94590e-01,8.50615e-01,9.99999e-01
1.006425000e+00,8.50708e-01,9.99999e-01,9.99999e-01,9.96916e-01,8.53338e-01,9.99999e-01
1.011457125e+00,8.54375e-01,9.99999e-01,9.99999e-01,9.98083e-01,8.56016e-01,9.99999e-01
1.016514411e+00,8.57532e-01,9.99999e-01,9.99999e-01,9.98699e-01,8.58648e-01,9.99999e-01
1.021596983e+00,8.60319e-01,9.99999e-01,9.99969e-01,9.98963e-01,8.61237e-01,9.99999e-01
1.026704968e+00,8.61113e-01,9.99999e-01,9.97715e-01,9.99191e-01,8.63782e-01,9.99999e-01
1.031838492e+00,8.39477e-01,9.99999e-01,9.69612e-01,9.99412e-01,8.66284e-01,9.99999e-01
1.036997685e+00,2.05599e-01,9.99999e-01,2.36731e-01,9.99650e-01,8.68744e-01,9.99999e-01
1.042182673e+00,2.25997e-01,9.99999e-01,2.59519e-01,9.99584e-01,8.71161e-01,9.99999e-01
1.047393587e+00,2.24001e-01,9.99999e-01,2.56557e-01,9.99448e-01,8.73538e-01,9.99999e-01
1.052630555e+00,2.14008e-02,9.99999e-01,2.44479e-02,9.99244e-01,8.75874e-01,9.99999e-01
1.057893707e+00,4.37838e-02,9.99999e-01,4.99051e-02,9.98739e-01,8.78170e-01,9.99999e-01
1.063183176e+00,9.90831e-02,9.99999e-01,1.12723e-01,9.97924e-01,8.80426e-01,9.99999e-01
1.068499092e+00,2.01714e-01,9.99999e-01,2.29243e-01,9.96524e-01,8.82644e-01,9.99999e-01
1.073841587e+00,3.47673e-01,9.99999e-01,3.94360e-01,9.95935e-01,8.84823e-01,9.99999e-01
1.079210795e+00,4.90437e-01,9.99999e-01,5.55669e-01,9.94786e-01,8.86964e-01,9.99999e-01
1.084606849e+00,6.39623e-01,9.99999e-01,7.24973e-01,9.92122e-01,8.89068e-01,9.99999e-01
1.090029883e+00,7.46073e-01,9.99999e-01,8.46601e-01,9.88724e-01,8.91135e-01,9.99999e-01
1.095480033e+00,7.97912e-01,9.99999e-01,9.21231e-01,9.69536e-01,8.93166e-01,9.99998e-01
1.100957433e+00,7.95547e-01,9.99999e-01,9.61293e-01,9.24270e-01,8.95162e-01,9.99998e-01
1.106462220e+00,7.22232e-01,9.99999e-01,9.83805e-01,8.18006e-01,8.97122e-01,9.99996e-01
1.111994531e+00,5.84390e-01,9.99999e-01,9.93968e-01,6.53775e-01,8.99048e-01,9.99993e-01
1.117554504e+00,4.51138e-01,9.99999e-01,9.98521e-01,5.01394e-01,9.00940e-01,9.99991e-01
1.123142276e+00,5.39922e-01,9.99999e-01,9.99902e-01,5.98096e-01,9.02798e-01,9.99989e-01
1.128757988e+00,6.53209e-01,9.99999e-01,9.99999e-01,7.22086e-01,9.04624e-01,9.99988e-01
1.134401778e+00,4.26239e-01,9.99999e-01,9.99999e-01,4.70251e-01,9.06416e-01,9.99987e-01
1.140073787e+00,7.49027e-01,9.99999e-01,9.99999e-01,8.24765e-01,9.08177e-01,9.99989e-01
1.145774156e+00,6.06728e-01,9.99999e-01,9.99999e-01,6.66807e-01,9.09907e-01,9.99991e-01
1.151503026e+00,5.79537e-01,9.99999e-01,9.99999e-01,6.35737e-01,9.11605e-01,9.99992e-01
1.157260541e+00,6.28328e-01,9.99999e-01,9.99999e-01,6.87998e-01,9.13273e-01,9.99994e-01
1.163046844e+00,6.94105e-01,9.99999e-01,9.99999e-01,7.58660e-01,9.14911e-01,9.99996e-01
1.168862078e+00,7.57057e-01,9.99999e-01,9.99999e-01,8.26014e-01,9.16520e-01,9.99997e-01
1.174706389e+00,8.15983e-01,9.99999e-01,9.99999e-01,8.88774e-01,9.18099e-01,9.99998e-01
1.180579921e+00,8.55965e-01,9.99999e-01,9.99999e-01,9.30751e-01,9.19650e-01,9.99998e-01
1.186482820e+00,8.84618e-01,9.99999e-01,9.99995e-01,9.60320e-01,9.21173e-01,9.99999e-01
1.192415234e+00,8.93836e-01,9.99999e-01,9.91831e-01,9.76673e-01,9.22668e-01,9.99999e-01
1.198377311e+00,5.23913e-01,9.99999e-01,5.76453e-01,9.80320e-01,9.24136e-01,9.99999e-01
1.204369197e+00,9.14720e-08,9.99999e-01,9.99057e-08,9.81351e-01,9.25577e-01,9.99999e-01
1.210391043e+00,6.24041e-26,9.99999e-01,6.79941e-26,9.82163e-01,9.26992e-01,9.99999e-01
1.216442998e+00,1.10813e-22,9.99999e-01,1.20496e-22,9.84791e-01,9.28381e-01,9.99999e-01
1.222525213e+00,2.32236e-22,9.99999e-01,2.51328e-22,9.88150e-01,9.29745e-01,9.99999e-01
1.228637839e+00,2.92643e-17,9.99999e-01,3.16145e-17,9.91761e-01,9.31084e-01,9.99999e-01
