#,Wave/freq,Total,O2,CO2,H2O,Rayleigh,CIA
4.000000000e-01,8.20401e-16,9.99999e-01,9.99999e-01,9.99931e-01,8.20457e-16,9.99999e-01
4.020000000e-01,1.63055e-15,9.99999e-01,9.99999e-01,9.99957e-01,1.63062e-15,9.99999e-01
4.040100000e-01,3.19476e-15,9.99999e-01,9.99999e-01,9.99981e-01,3.19482e-15,9.99999e-01
4.060300500e-01,6.17686e-15,9.99999e-01,9.99999e-01,9.99995e-01,6.17688e-15,9.99999e-01
4.080602003e-01,1.17879e-14,9.99999e-01,9.99999e-01,9.99998e-01,1.17879e-14,9.99999e-01
4.101005013e-01,2.22106e-14,9.99999e-01,9.99999e-01,9.99999e-01,2.22106e-14,9.99999e-01
4.121510038e-01,4.13284e-14,9.99999e-01,9.99999e-01,9.99997e-01,4.13285e-14,9.99999e-01
4.142117588e-01,7.59633e-14,9.99999e-01,9.99999e-01,9.99981e-01,7.59647e-14,9.99999e-01
4.162828176e-01,1.37948e-13,9.99999e-01,9.99999e-01,9.99915e-01,1.37960e-13,9.99999e-01
4.183642317e-01,2.47601e-13,9.99999e-01,9.99999e-01,9.99949e-01,2.47613e-13,9.99999e-01
4.204560528e-01,4.39304e-13,9.99999e-01,9.99999e-01,9.99968e-01,4.39317e-13,9.99999e-01
4.225583331e-01,7.70653e-13,9.99999e-01,9.99999e-01,9.99987e-01,7.70662e-13,9.99999e-01
4.246711247e-01,1.33698e-12,9.99999e-01,9.99999e-01,9.99990e-01,1.33699e-12,9.99999e-01
4.267944804e-01,2.29436e-12,9.99999e-01,9.99999e-01,9.99985e-01,2.29439e-12,9.99999e-01
4.289284528e-01,3.89554e-12,9.99999e-01,9.99999e-01,9.99989e-01,3.89558e-12,9.99999e-01
4.310730950e-01,6.54538e-12,9.99999e-01,9.99999e-01,9.99995e-01,6.54541e-12,9.99999e-01
4.332284605e-01,1.08855e-11,9.99999e-01,9.99999e-01,9.99998e-01,1.08855e-11,9.99999e-01
4.353946028e-01,1.79225e-11,9.99999e-01,9.99999e-01,9.99999e-01,1.79225e-11,9.99999e-01
4.375715758e-01,2.92192e-11,9.99999e-01,9.99999e-01,9.99991e-01,2.92194e-11,9.99999e-01
4.397594337e-01,4.71757e-11,9.99999e-01,9.99999e-01,9.99926e-01,4.71792e-11,9.99999e-01
4.419582309e-01,7.54326e-11,9.99999e-01,9.99999e-01,9.99629e-01,7.54605e-11,9.99999e-01
4.441680220e-01,1.19545e-10,9.99999e-01,9.99999e-01,9.99704e-01,1.19580e-10,9.99999e-01
4.463888621e-01,1.87723e-10,9.99999e-01,9.99999e-01,9.99694e-01,1.87780e-10,9.99999e-01
4.486208064e-01,2.92205e-10,9.99999e-01,9.99999e-01,9.99809e-01,2.92260e-10,9.99999e-01
4.508639105e-01,4.50875e-10,9.99999e-01,9.99999e-01,9.99910e-01,4.50915e-10,9.99999e-01
4.531182300e-01,6.89738e-10,9.99999e-01,9.99999e-01,9.99964e-01,6.89762e-10,9.99999e-01
4.553838212e-01,1.04628e-09,9.99999e-01,9.99999e-01,9.99975e-01,1.04630e-09,9.99999e-01
4.576607403e-01,1.57412e-09,9.99999e-01,9.99999e-01,9.99988e-01,1.57413e-09,9.99999e-01
4.599490440e-01,2.34919e-09,9.99999e-01,9.99999e-01,9.99991e-01,2.34921e-09,9.99999e-01
4.622487892e-01,3.47830e-09,9.99999e-01,9.99999e-01,9.99998e-01,3.47831e-09,9.99999e-01
4.645600332e-01,5.11028e-09,9.99999e-01,9.99999e-01,9.99994e-01,5.11030e-09,9.99999e-01
4.668828333e-01,7.45052e-09,9.99999e-01,9.99999e-01,9.99910e-01,7.45118e-09,9.99999e-01
4.692172475e-01,1.07817e-08,9.99999e-01,9.99999e-01,9.99808e-01,1.07837e-08,9.99999e-01
4.715633337e-01,1.54913e-08,9.99999e-01,9.99999e-01,9.99874e-01,1.54932e-08,9.99999e-01
4.739211504e-01,2.20980e-08,9.99999e-01,9.99999e-01,9.99879e-01,2.21007e-08,9.99999e-01
4.762907561e-01,3.13037e-08,9.99999e-01,9.99999e-01,9.99937e-01,3.13056e-08,9.99999e-01
4.786722099e-01,4.40394e-08,9.99999e-01,9.99999e-01,9.99974e-01,4.40405e-08,9.99999e-01
4.810655710e-01,6.15391e-08,9.99999e-01,9.99999e-01,9.99991e-01,6.15396e-08,9.99999e-01
4.834708988e-01,8.54192e-08,9.99999e-01,9.99999e-01,9.99927e-01,8.54254e-08,9.99999e-01
4.858882533e-01,1.17800e-07,9.99999e-01,9.99999e-01,9.99863e-01,1.17816e-07,9.99999e-01
4.883176946e-01,1.61442e-07,9.99999e-01,9.99999e-01,9.99886e-01,1.61461e-07,9.99999e-01
4.907592831e-01,2.19877e-07,9.99999e-01,9.99999e-01,9.99896e-01,2.19899e-07,9.99999e-01
4.932130795e-01,2.97646e-07,9.99999e-01,9.99999e-01,9.99926e-01,2.97667e-07,9.99999e-01
4.956791449e-01,4.00520e-07,9.99999e-01,9.99999e-01,9.99960e-01,4.00536e-07,9.99999e-01
4.981575406e-01,5.35700e-07,9.99999e-01,9.99999e-01,9.99807e-01,5.35803e-07,9.99999e-01
5.006483283e-01,7.12293e-07,9.99999e-01,9.99999e-01,9.99506e-01,7.12644e-07,9.99999e-01
5.031515699e-01,9.40152e-07,9.99999e-01,9.99999e-01,9.97480e-01,9.42527e-07,9.99999e-01
5.056673278e-01,1.23804e-06,9.99999e-01,9.99999e-01,9.98664e-01,1.23970e-06,9.99999e-01
5.081956644e-01,1.61903e-06,9.99999e-01,9.99999e-01,9.98315e-01,1.62177e-06,9.99999e-01
5.107366428e-01,2.10795e-06,9.99999e-01,9.99999e-01,9.98861e-01,2.11035e-06,9.99999e-01
5.132903260e-01,2.73011e-06,9.99999e-01,9.99999e-01,9.99347e-01,2.73189e-06,9.99999e-01
5.158567776e-01,3.51752e-06,9.99999e-01,9.99999e-01,9.99723e-01,3.51849e-06,9.99999e-01
5.184360615e-01,4.50850e-06,9.99999e-01,9.99999e-01,9.99889e-01,4.50899e-06,9.99999e-01
5.210282418e-01,5.74986e-06,9.99999e-01,9.99999e-01,9.99958e-01,5.75009e-06,9.99999e-01
5.236333830e-01,7.29647e-06,9.99999e-01,9.99999e-01,9.99835e-01,7.29767e-06,9.99999e-01
5.262515499e-01,9.21731e-06,9.99999e-01,9.99999e-01,9.99896e-01,9.21826e-06,9.99999e-01
5.288828077e-01,1.15896e-05,9.99999e-01,9.99999e-01,9.99905e-01,1.15907e-05,9.99999e-01
5.315272217e-01,1.45067e-05,9.99999e-01,9.99999e-01,9.99916e-01,1.45079e-05,9.99999e-01
5.341848578e-01,1.80781e-05,9.99999e-01,9.99999e-01,9.99945e-01,1.80791e-05,9.99999e-01
5.368557821e-01,2.24272e-05,9.99999e-01,9.99999e-01,9.99808e-01,2.24315e-05,9.99999e-01
5.395400610e-01,2.76945e-05,9.99999e-01,9.99999e-01,9.99314e-01,2.77135e-05,9.99999e-01
5.422377613e-01,3.40659e-05,9.99999e-01,9.99999e-01,9.99102e-01,3.40964e-05,9.99999e-01
5.449489501e-01,4.17435e-05,9.99999e-01,9.99999e-01,9.99171e-01,4.17781e-05,9.99999e-01
5.476736949e-01,5.09477e-05,9.99999e-01,9.99999e-01,9.99260e-01,5.09854e-05,9.99999e-01
5.504120634e-01,6.19443e-05,9.99999e-01,9.99999e-01,9.99463e-01,6.19776e-05,9.99999e-01
5.531641237e-01,7.50293e-05,9.99999e-01,9.99999e-01,9.99729e-01,7.50496e-05,9.99999e-01
5.559299443e-01,9.05240e-05,9.99999e-01,9.99999e-01,9.99869e-01,9.05358e-05,9.99999e-01
5.587095940e-01,1.08805e-04,9.99999e-01,9.99999e-01,9.99918e-01,1.08814e-04,9.99999e-01
5.615031420e-01,1.30295e-04,9.99999e-01,9.99999e-01,9.99908e-01,1.30307e-04,9.99999e-01
5.643106577e-01,1.55476e-04,9.99999e-01,9.99999e-01,9.99898e-01,1.55492e-04,9.99999e-01
5.671322110e-01,1.84671e-04,9.99999e-01,9.99999e-01,9.98773e-01,1.84897e-04,9.99999e-01
5.699678720e-01,2.18820e-04,9.99999e-01,9.99999e-01,9.98660e-01,2.19113e-04,9.99999e-01
5.728177114e-01,2.58434e-04,9.99999e-01,9.99999e-01,9.98619e-01,2.58791e-04,9.99999e-01
5.756818000e-01,3.04264e-04,9.99999e-01,9.99999e-01,9.98730e-01,3.04651e-04,9.99999e-01
5.785602090e-01,3.57087e-04,9.99999e-01,9.99999e-01,9.98890e-01,3.57483e-04,9.99999e-01
5.814530100e-01,4.17691e-04,9.99999e-01,9.99999e-01,9.98888e-01,4.18155e-04,9.99999e-01
5.843602750e-01,4.86971e-04,9.99999e-01,9.99999e-01,9.98685e-01,4.87612e-04,9.99999e-01
5.872820764e-01,5.60487e-04,9.99999e-01,9.99999e-01,9.88717e-01,5.66883e-04,9.99999e-01
5.902184868e-01,6.48022e-04,9.99999e-01,9.99999e-01,9.86210e-01,6.57082e-04,9.99999e-01
5.931695792e-01,7.52032e-04,9.99999e-01,9.99999e-01,9.90276e-01,7.59416e-04,9.99999e-01
5.961354271e-01,8.65832e-04,9.99999e-01,9.99999e-01,9.89317e-01,8.75181e-04,9.99999e-01
5.991161043e-01,9.97914e-04,9.99999e-01,9.99999e-01,9.92188e-01,1.00577e-03,9.99999e-01
6.021116848e-01,1.14755e-03,9.99999e-01,9.99999e-01,9.95555e-01,1.15268e-03,9.99999e-01
6.051222432e-01,1.31452e-03,9.99999e-01,9.99999e-01,9.97747e-01,1.31748e-03,9.99999e-01
6.081478544e-01,1.50043e-03,9.99999e-01,9.99999e-01,9.99028e-01,1.50189e-03,9.99999e-01
6.111885937e-01,1.70698e-03,9.99999e-01,9.99999e-01,9.99587e-01,1.70768e-03,9.99999e-01
6.142445367e-01,1.93639e-03,9.99999e-01,9.99999e-01,9.99815e-01,1.93675e-03,9.99999e-01
6.173157594e-01,2.19087e-03,9.99999e-01,9.99999e-01,9.99898e-01,2.19109e-03,9.99999e-01
6.204023382e-01,2.47259e-03,9.99999e-01,9.99999e-01,9.99914e-01,2.47280e-03,9.99999e-01
6.235043498e-01,2.78304e-03,9.99999e-01,9.99999e-01,9.99629e-01,2.78407e-03,9.99999e-01
6.266218716e-01,3.12097e-03,9.99999e-01,9.99999e-01,9.98011e-01,3.12718e-03,9.99999e-01
6.297549810e-01,3.50198e-03,9.99999e-01,9.99999e-01,9.99270e-01,3.50453e-03,9.99999e-01
6.329037559e-01,3.91293e-03,9.99999e-01,9.99999e-01,9.98553e-01,3.91859e-03,9.99999e-01
6.360682746e-01,4.36655e-03,9.99999e-01,9.99999e-01,9.98773e-01,4.37191e-03,9.99999e-01
6.392486160e-01,4.85940e-03,9.99999e-01,9.99999e-01,9.98407e-01,4.86714e-03,9.99999e-01
6.424448591e-01,5.39557e-03,9.99999e-01,9.99999e-01,9.97885e-01,5.40700e-03,9.99999e-01
6.456570834e-01,5.93563e-03,9.99999e-01,9.99999e-01,9.90217e-01,5.99427e-03,9.99999e-01
6.488853688e-01,6.57550e-03,9.99999e-01,9.99999e-01,9.91511e-01,6.63180e-03,9.99999e-01
6.521297956e-01,7.26850e-03,9.99999e-01,9.99999e-01,9.92625e-01,7.32250e-03,9.99999e-01
6.553904446e-01,8.01052e-03,9.99999e-01,9.99999e-01,9.92711e-01,8.06933e-03,9.99999e-01
6.586673968e-01,8.81938e-03,9.99999e-01,9.99999e-01,9.93700e-01,8.87529e-03,9.99999e-01
6.619607338e-01,9.70789e-03,9.99999e-01,9.99999e-01,9.96353e-01,9.74342e-03,9.99999e-01
6.652705375e-01,1.06541e-02,9.99999e-01,9.99999e-01,9.97882e-01,1.06768e-02,9.99999e-01
6.685968902e-01,1.16669e-02,9.99999e-01,9.99999e-01,9.99016e-01,1.16784e-02,9.99999e-01
6.719398746e-01,1.27455e-02,9.99999e-01,9.99999e-01,9.99543e-01,1.27514e-02,9.99999e-01
6.752995740e-01,1.38953e-02,9.99999e-01,9.99999e-01,9.99753e-01,1.38988e-02,9.99999e-01
6.786760719e-01,1.51183e-02,9.99999e-01,9.99999e-01,9.99646e-01,1.51237e-02,9.99999e-01
6.820694522e-01,1.64191e-02,9.99999e-01,9.99999e-01,9.99393e-01,1.64291e-02,9.99999e-01
6.854797995e-01,1.78041e-02,9.99999e-01,9.99999e-01,9.99218e-01,1.78180e-02,9.99999e-01
6.889071985e-01,1.92575e-02,9.99999e-01,9.99999e-01,9.98135e-01,1.92934e-02,9.99999e-01
6.923517345e-01,2.02260e-02,9.99999e-01,9.99999e-01,9.69690e-01,2.08582e-02,9.99999e-01
6.958134932e-01,2.21513e-02,9.99999e-01,9.99999e-01,9.83839e-01,2.25152e-02,9.99999e-01
6.992925606e-01,2.39006e-02,9.99999e-01,9.99999e-01,9.84896e-01,2.42671e-02,9.99999e-01
7.027890234e-01,2.56268e-02,9.99999e-01,9.99999e-01,9.81243e-01,2.61167e-02,9.99999e-01
7.063029686e-01,2.76234e-02,9.99999e-01,9.99999e-01,9.84213e-01,2.80665e-02,9.99999e-01
7.098344834e-01,2.96625e-02,9.99999e-01,9.99999e-01,9.84844e-01,3.01189e-02,9.99999e-01
7.133836558e-01,3.16349e-02,9.99999e-01,9.99999e-01,9.80123e-01,3.22765e-02,9.99998e-01
7.169505741e-01,2.94157e-02,9.99999e-01,9.99999e-01,8.51609e-01,3.45414e-02,9.99997e-01
7.205353270e-01,3.40689e-02,9.99999e-01,9.99999e-01,9.22884e-01,3.69157e-02,9.99997e-01
7.241380036e-01,3.56268e-02,9.99999e-01,9.99999e-01,9.04202e-01,3.94014e-02,9.99997e-01
7.277586936e-01,3.83499e-02,9.99999e-01,9.99999e-01,9.13083e-01,4.20005e-02,9.99997e-01
7.313974871e-01,4.05572e-02,9.99999e-01,9.99999e-01,9.07026e-01,4.47145e-02,9.99998e-01
7.350544745e-01,4.50772e-02,9.99999e-01,9.99999e-01,9.48095e-01,4.75450e-02,9.99998e-01
7.387297469e-01,4.85472e-02,9.99999e-01,9.99999e-01,9.61454e-01,5.04935e-02,9.99999e-01
7.424233956e-01,5.25381e-02,9.99999e-01,9.99999e-01,9.80898e-01,5.35612e-02,9.99999e-01
7.461355126e-01,5.60906e-02,9.99999e-01,9.99999e-01,9.88397e-01,5.67490e-02,9.99999e-01
7.498661902e-01,5.97318e-02,9.99999e-01,9.99999e-01,9.94568e-01,6.00580e-02,9.99999e-01
7.536155211e-01,6.33199e-02,9.99999e-01,9.99999e-01,9.97339e-01,6.34888e-02,9.99999e-01
7.573835987e-01,6.69501e-02,9.99999e-01,9.99999e-01,9.98628e-01,6.70420e-02,9.99999e-01
7.611705167e-01,7.06577e-02,9.99999e-01,9.99999e-01,9.99147e-01,7.07179e-02,9.99999e-01
7.649763693e-01,7.44770e-02,9.99999e-01,9.99999e-01,9.99466e-01,7.45167e-02,9.99999e-01
7.688012511e-01,7.84095e-02,9.99999e-01,9.99999e-01,9.99628e-01,7.84386e-02,9.99999e-01
7.726452574e-01,8.24581e-02,9.99999e-01,9.99999e-01,9.99694e-01,8.24832e-02,9.99999e-01
7.765084837e-01,8.66130e-02,9.99999e-01,9.99999e-01,9.99569e-01,8.66503e-02,9.99999e-01
7.803910261e-01,8.27736e-02,9.99999e-01,9.11760e-01,9.98144e-01,9.09393e-02,9.99999e-01
7.842929812e-01,5.87613e-02,9.99999e-01,6.19763e-01,9.93538e-01,9.53496e-02,9.99999e-01
7.882144461e-01,5.97668e-02,9.99999e-01,6.05633e-01,9.86622e-01,9.98803e-02,9.99999e-01
7.921555184e-01,7.61526e-02,9.99999e-01,7.33568e-01,9.92610e-01,1.04530e-01,9.99999e-01
7.961162960e-01,8.73674e-02,9.99999e-01,8.09465e-01,9.87109e-01,1.09299e-01,9.99999e-01
8.000968774e-01,1.00305e-01,9.99999e-01,8.91673e-01,9.85034e-01,1.14184e-01,9.99999e-01
8.040973618e-01,1.10604e-01,9.99999e-01,9.41999e-01,9.85053e-01,1.19184e-01,9.99999e-01
8.081178486e-01,1.16958e-01,9.99999e-01,9.73021e-01,9.66881e-01,1.24299e-01,9.99998e-01
8.121584379e-01,1.11695e-01,9.99999e-01,9.91523e-01,8.69474e-01,1.29525e-01,9.99997e-01
8.162192301e-01,1.13886e-01,9.99999e-01,9.98121e-01,8.45967e-01,1.34861e-01,9.99997e-01
8.203003262e-01,1.29425e-01,9.99999e-01,9.99968e-01,9.22477e-01,1.40305e-01,9.99997e-01
8.244018279e-01,1.30099e-01,9.99999e-01,9.99999e-01,8.91977e-01,1.45855e-01,9.99997e-01
8.285238370e-01,1.37136e-01,9.99999e-01,9.99999e-01,9.05141e-01,1.51508e-01,9.99997e-01
8.326664562e-01,1.42156e-01,9.99999e-01,9.99999e-01,9.03947e-01,1.57262e-01,9.99998e-01
8.368297885e-01,1.51694e-01,9.99999e-01,9.99999e-01,9.29987e-01,1.63114e-01,9.99998e-01
8.410139374e-01,1.61916e-01,9.99999e-01,9.99999e-01,9.57728e-01,1.69062e-01,9.99999e-01
8.452190071e-01,1.71428e-01,9.99999e-01,9.99999e-01,9.79008e-01,1.75104e-01,9.99999e-01
8.494451021e-01,1.79025e-01,9.99999e-01,9.99999e-01,9.87805e-01,1.81235e-01,9.99999e-01
8.536923276e-01,1.86094e-01,9.99999e-01,9.99999e-01,9.92749e-01,1.87453e-01,9.99999e-01
8.579607893e-01,1.92893e-01,9.99999e-01,9.99999e-01,9.95541e-01,1.93756e-01,9.99999e-01
8.622505932e-01,1.99572e-01,9.99999e-01,9.99999e-01,9.97159e-01,2.00140e-01,9.99999e-01
8.665618462e-01,1.79236e-01,9.99999e-01,8.68966e-01,9.98248e-01,2.06602e-01,9.99999e-01
8.708946554e-01,6.62698e-02,9.99999e-01,3.11491e-01,9.97998e-01,2.13139e-01,9.99999e-01
8.752491287e-01,8.23167e-02,9.99999e-01,3.75529e-01,9.97320e-01,2.19747e-01,9.99999e-01
8.796253743e-01,1.29755e-01,9.99999e-01,5.75011e-01,9.96302e-01,2.26424e-01,9.99999e-01
8.840235012e-01,1.73295e-01,9.99999e-01,7.46230e-01,9.95774e-01,2.33165e-01,9.99999e-01
8.884436187e-01,2.10424e-01,9.99999e-01,8.89852e-01,9.84966e-01,2.39968e-01,9.99998e-01
8.928858368e-01,2.00887e-01,9.99999e-01,9.53809e-01,8.52151e-01,2.46830e-01,9.99997e-01
8.973502660e-01,1.88905e-01,9.99999e-01,9.88507e-01,7.52564e-01,2.53746e-01,9.99995e-01
9.018370173e-01,2.25028e-01,9.99999e-01,9.98724e-01,8.64127e-01,2.60713e-01,9.99995e-01
9.063462024e-01,2.29256e-01,9.99999e-01,9.69370e-01,8.80622e-01,2.67729e-01,9.99994e-01
9.108779334e-01,2.09651e-01,9.99999e-01,9.28369e-01,8.19518e-01,2.74789e-01,9.99994e-01
9.154323231e-01,2.20913e-01,9.99999e-01,9.82539e-01,7.96673e-01,2.81891e-01,9.99993e-01
9.200094847e-01,1.99842e-01,9.99999e-01,8.06254e-01,8.37061e-01,2.89030e-01,9.99992e-01
9.246095321e-01,1.60935e-01,9.99999e-01,6.97054e-01,7.67435e-01,2.96204e-01,9.99986e-01
9.292325798e-01,4.60190e-02,9.99999e-01,7.59617e-01,1.88017e-01,3.03409e-01,9.99972e-01
9.338787427e-01,2.81759e-02,9.99999e-01,7.62313e-01,1.12353e-01,3.10642e-01,9.99964e-01
9.385481364e-01,1.09776e-01,9.99999e-01,8.17699e-01,4.10443e-01,3.17899e-01,9.99963e-01
9.432408771e-01,8.97065e-02,9.99999e-01,8.83042e-01,3.07452e-01,3.25177e-01,9.99959e-01
9.479570815e-01,6.10998e-02,9.99999e-01,9.38277e-01,1.94315e-01,3.32473e-01,9.99964e-01
9.526968669e-01,9.27044e-02,9.99999e-01,9.69729e-01,2.79681e-01,3.39784e-01,9.99973e-01
9.574603512e-01,1.01798e-01,9.99999e-01,9.86921e-01,2.96468e-01,3.47107e-01,9.99979e-01
9.622476530e-01,1.28666e-01,9.99999e-01,9.95897e-01,3.64257e-01,3.54438e-01,9.99986e-01
9.670588912e-01,2.00883e-01,9.99999e-01,9.98766e-01,5.55859e-01,3.61774e-01,9.99991e-01
9.718941857e-01,2.53272e-01,9.99999e-01,9.99910e-01,6.86213e-01,3.69113e-01,9.99994e-01
9.767536566e-01,2.75269e-01,9.99999e-01,9.99999e-01,7.31223e-01,3.76452e-01,9.99996e-01
9.816374249e-01,3.03803e-01,9.99999e-01,9.99999e-01,7.91593e-01,3.83787e-01,9.99997e-01
9.865456120e-01,3.37806e-01,9.99999e-01,9.99999e-01,8.63699e-01,3.91116e-01,9.99998e-01
9.914783401e-01,3.63878e-01,9.99999e-01,9.99999e-01,9.13265e-01,3.98436e-01,9.99999e-01
9.964357318e-01,3.86175e-01,9.99999e-01,9.99999e-01,9.51768e-01,4.05744e-01,9.99999e-01
1.001417910e+00,4.00972e-01,9.99999e-01,9.99999e-01,9.70786e-01,4.13038e-01,9.99999e-01
1.006425000e+00,4.13283e-01,9.99999e-01,9.99999e-01,9.83268e-01,4.20315e-01,9.99999e-01
1.011457125e+00,4.23109e-01,9.99999e-01,9.99999e-01,9.89558e-01,4.27573e-01,9.99999e-01
1.016514411e+00,4.31727e-01,9.99999e-01,9.99999e-01,9.92909e-01,4.34810e-01,9.99999e-01
1.021596983e+00,4.39458e-01,9.99999e-01,9.99846e-01,9.94350e-01,4.42022e-01,9.99999e-01
1.026704968e+00,4.41783e-01,9.99999e-01,9.87806e-01,9.95593e-01,4.49207e-01,9.99999e-01
1.031838492e+00,4.11804e-01,9.99999e-01,9.05107e-01,9.96789e-01,4.56365e-01,9.99999e-01
1.036997685e+00,2.22805e-02,9.99999e-01,4.81401e-02,9.98095e-01,4.63491e-01,9.99999e-01
1.042182673e+00,1.19630e-03,9.99999e-01,2.54653e-03,9.97737e-01,4.70585e-01,9.99999e-01
1.047393587e+00,3.30469e-03,9.99999e-01,6.93599e-03,9.96995e-01,4.77644e-01,9.99999e-01
1.052630555e+00,2.34077e-07,9.99999e-01,4.84218e-07,9.95883e-01,4.84666e-01,9.99999e-01
1.057893707e+00,8.65231e-07,9.99999e-01,1.76599e-06,9.93147e-01,4.91650e-01,9.99999e-01
1.063183176e+00,2.81181e-05,9.99999e-01,5.67588e-05,9.88737e-01,4.98593e-01,9.99999e-01
1.068499092e+00,3.11958e-04,9.99999e-01,6.24770e-04,9.81192e-01,5.05495e-01,9.99999e-01
1.073841587e+00,4.26856e-03,9.99999e-01,8.46298e-03,9.78083e-01,5.12353e-01,9.99999e-01
1.079210795e+00,2.54930e-02,9.99999e-01,5.01997e-02,9.71896e-01,5.19165e-01,9.99998e-01
1.084606849e+00,9.19455e-02,9.99999e-01,1.81502e-01,9.57866e-01,5.25931e-01,9.99998e-01
1.090029883e+00,2.05881e-01,9.99999e-01,4.08886e-01,9.40446e-01,5.32649e-01,9.99997e-01
1.095480033e+00,2.94546e-01,9.99999e-01,6.41974e-01,8.45814e-01,5.39318e-01,9.99995e-01
1.100957433e+00,2.91196e-01,9.99999e-01,8.06681e-01,6.56538e-01,5.45936e-01,9.99992e-01
1.106462220e+00,1.82234e-01,9.99999e-01,9.14752e-01,3.57386e-01,5.52502e-01,9.99983e-01
1.111994531e+00,6.54508e-02,9.99999e-01,9.67467e-01,1.20293e-01,5.59015e-01,9.99967e-01
1.117554504e+00,2.04720e-02,9.99999e-01,9.91924e-01,3.63757e-02,5.65473e-01,9.99954e-01
1.123142276e+00,5.84766e-02,9.99999e-01,9.99464e-01,1.02266e-01,5.71877e-01,9.99945e-01
1.128757988e+00,1.18941e-01,9.99999e-01,9.99999e-01,2.05712e-01,5.78225e-01,9.99941e-01
1.134401778e+00,5.22997e-02,9.99999e-01,9.99999e-01,8.94811e-02,5.84515e-01,9.99934e-01
1.140073787e+00,2.20424e-01,9.99999e-01,9.99999e-01,3.73147e-01,5.90748e-01,9.99946e-01
1.145774156e+00,8.68287e-02,9.99999e-01,9.99999e-01,1.45467e-01,5.96922e-01,9.99954e-01
1.151503026e+00,7.18817e-02,9.99999e-01,9.99999e-01,1.19204e-01,6.03037e-01,9.99961e-01
1.157260541e+00,9.05936e-02,9.99999e-01,9.99999e-01,1.48740e-01,6.09091e-01,9.99970e-01
1.163046844e+00,1.47886e-01,9.99999e-01,9.99999e-01,2.40437e-01,6.15085e-01,9.99981e-01
1.168862078e+00,2.23815e-01,9.99999e-01,9.99999e-01,3.60402e-01,6.21018e-01,9.99990e-01
1.174706389e+00,3.33347e-01,9.99999e-01,9.99999e-01,5.31749e-01,6.26890e-01,9.99994e-01
1.180579921e+00,4.29584e-01,9.99999e-01,9.99999e-01,6.78972e-01,6.32699e-01,9.99996e-01
1.186482820e+00,5.12274e-01,9.99999e-01,9.99983e-01,8.02388e-01,6.38446e-01,9.99996e-01
1.192415234e+00,5.43864e-01,9.99999e-01,9.58882e-01,8.79199e-01,6.44130e-01,9.99997e-01
1.198377311e+00,3.05685e-01,9.99999e-01,5.14851e-01,8.97387e-01,6.49750e-01,9.99997e-01
1.204369197e+00,2.19702e-32,9.99999e-01,3.55752e-32,9.02836e-01,6.55308e-01,9.99997e-01
1.210391043e+00,1.23044e-131,9.99999e-01,1.96639e-131,9.06684e-01,6.60801e-01,9.99998e-01
1.216442998e+00,6.91382e-114,9.99999e-01,1.09278e-113,9.19896e-01,6.66231e-01,9.99998e-01
1.222525213e+00,3.62677e-112,9.99999e-01,5.58404e-112,9.37009e-01,6.71597e-01,9.99999e-01
1.228637839e+00,1.72140e-86,9.99999e-01,2.62144e-86,9.55841e-01,6.76899e-01,9.99999e-01
