#,Wave/freq,Total,O2,CO2,H2O,Rayleigh,CIA
4.000000000e-01,1.37694e-08,9.99999e-01,9.99999e-01,9.99964e-01,1.37699e-08,9.99999e-01
4.020000000e-01,1.96949e-08,9.99999e-01,9.99999e-01,9.99977e-01,1.96953e-08,9.99999e-01
4.040100000e-01,2.79618e-08,9.99999e-01,9.99999e-01,9.99990e-01,2.79621e-08,9.99999e-01
4.060300500e-01,3.94246e-08,9.99999e-01,9.99999e-01,9.99997e-01,3.94247e-08,9.99999e-01
4.080602003e-01,5.52102e-08,9.99999e-01,9.99999e-01,9.99998e-01,5.52103e-08,9.99999e-01
4.101005013e-01,7.68039e-08,9.99999e-01,9.99999e-01,9.99999e-01,7.68039e-08,9.99999e-01
4.121510038e-01,1.06148e-07,9.99999e-01,9.99999e-01,9.99998e-01,1.06149e-07,9.99999e-01
4.142117588e-01,1.45769e-07,9.99999e-01,9.99999e-01,9.99989e-01,1.45771e-07,9.99999e-01
4.162828176e-01,1.98923e-07,9.99999e-01,9.99999e-01,9.99955e-01,1.98932e-07,9.99999e-01
4.183642317e-01,2.69811e-07,9.99999e-01,9.99999e-01,9.99973e-01,2.69818e-07,9.99999e-01
4.204560528e-01,3.63762e-07,9.99999e-01,9.99999e-01,9.99983e-01,3.63768e-07,9.99999e-01
4.225583331e-01,4.87541e-07,9.99999e-01,9.99999e-01,9.99993e-01,4.87544e-07,9.99999e-01
4.246711247e-01,6.49664e-07,9.99999e-01,9.99999e-01,9.99994e-01,6.49667e-07,9.99999e-01
4.267944804e-01,8.60801e-07,9.99999e-01,9.99999e-01,9.99992e-01,8.60807e-07,9.99999e-01
4.289284528e-01,1.13424e-06,9.99999e-01,9.99999e-01,9.99994e-01,1.13424e-06,9.99999e-01
4.310730950e-01,1.48641e-06,9.99999e-01,9.99999e-01,9.99997e-01,1.48642e-06,9.99999e-01
4.332284605e-01,1.93756e-06,9.99999e-01,9.99999e-01,9.99998e-01,1.93756e-06,9.99999e-01
4.353946028e-01,2.51244e-06,9.99999e-01,9.99999e-01,9.99999e-01,2.51244e-06,9.99999e-01
4.375715758e-01,3.24120e-06,9.99999e-01,9.99999e-01,9.99995e-01,3.24122e-06,9.99999e-01
4.397594337e-01,4.16024e-06,9.99999e-01,9.99999e-01,9.99960e-01,4.16040e-06,9.99999e-01
4.419582309e-01,5.31295e-06,9.99999e-01,9.99999e-01,9.99802e-01,5.31399e-06,9.99999e-01
4.441680220e-01,6.75368e-06,9.99999e-01,9.99999e-01,9.99847e-01,6.75471e-06,9.99999e-01
4.463888621e-01,8.54409e-06,9.99999e-01,9.99999e-01,9.99840e-01,8.54545e-06,9.99999e-01
4.486208064e-01,1.07598e-05,9.99999e-01,9.99999e-01,9.99900e-01,1.07608e-05,9.99999e-01
4.508639105e-01,1.34884e-05,9.99999e-01,9.99999e-01,9.99953e-01,1.34890e-05,9.99999e-01
4.531182300e-01,1.68332e-05,9.99999e-01,9.99999e-01,9.99981e-01,1.68335e-05,9.99999e-01
4.553838212e-01,2.09153e-05,9.99999e-01,9.99999e-01,9.99987e-01,2.09155e-05,9.99999e-01
4.576607403e-01,2.58761e-05,9.99999e-01,9.99999e-01,9.99993e-01,2.58762e-05,9.99999e-01
4.599490440e-01,3.18791e-05,9.99999e-01,9.99999e-01,9.99995e-01,3.18792e-05,9.99999e-01
4.622487892e-01,3.91133e-05,9.99999e-01,9.99999e-01,9.99998e-01,3.91133e-05,9.99999e-01
4.645600332e-01,4.77954e-05,9.99999e-01,9.99999e-01,9.99996e-01,4.77955e-05,9.99999e-01
4.668828333e-01,5.81714e-05,9.99999e-01,9.99999e-01,9.99952e-01,5.81741e-05,9.99999e-01
4.692172475e-01,7.05251e-05,9.99999e-01,9.99999e-01,9.99899e-01,7.05321e-05,9.99999e-01
4.715633337e-01,8.51850e-05,9.99999e-01,9.99999e-01,9.99934e-01,8.51906e-05,9.99999e-01
4.739211504e-01,1.02506e-04,9.99999e-01,9.99999e-01,9.99937e-01,1.02512e-04,9.99999e-01
4.762907561e-01,1.22902e-04,9.99999e-01,9.99999e-01,9.99967e-01,1.22906e-04,9.99999e-01
4.786722099e-01,1.46828e-04,9.99999e-01,9.99999e-01,9.99986e-01,1.46830e-04,9.99999e-01
4.810655710e-01,1.74794e-04,9.99999e-01,9.99999e-01,9.99995e-01,1.74795e-04,9.99999e-01
4.834708988e-01,2.07363e-04,9.99999e-01,9.99999e-01,9.99961e-01,2.07371e-04,9.99999e-01
4.858882533e-01,2.45172e-04,9.99999e-01,9.99999e-01,9.99929e-01,2.45189e-04,9.99999e-01
4.883176946e-01,2.88930e-04,9.99999e-01,9.99999e-01,9.99940e-01,2.88947e-04,9.99999e-01
4.907592831e-01,3.39393e-04,9.99999e-01,9.99999e-01,9.99946e-01,3.39411e-04,9.99999e-01
4.932130795e-01,3.97407e-04,9.99999e-01,9.99999e-01,9.99961e-01,3.97422e-04,9.99999e-01
4.956791449e-01,4.63892e-04,9.99999e-01,9.99999e-01,9.99979e-01,4.63901e-04,9.99999e-01
4.981575406e-01,5.39794e-04,9.99999e-01,9.99999e-01,9.99899e-01,5.39848e-04,9.99999e-01
5.006483283e-01,6.26188e-04,9.99999e-01,9.99999e-01,9.99738e-01,6.26351e-04,9.99999e-01
5.031515699e-01,7.23629e-04,9.99999e-01,9.99999e-01,9.98681e-01,7.24583e-04,9.99999e-01
5.056673278e-01,8.35233e-04,9.99999e-01,9.99999e-01,9.99304e-01,8.35814e-04,9.99999e-01
5.081956644e-01,9.60560e-04,9.99999e-01,9.99999e-01,9.99123e-01,9.61403e-04,9.99999e-01
5.107366428e-01,1.10216e-03,9.99999e-01,9.99999e-01,9.99407e-01,1.10281e-03,9.99999e-01
5.132903260e-01,1.26116e-03,9.99999e-01,9.99999e-01,9.99661e-01,1.26159e-03,9.99999e-01
5.158567776e-01,1.43920e-03,9.99999e-01,9.99999e-01,9.99856e-01,1.43940e-03,9.99999e-01
5.184360615e-01,1.63791e-03,9.99999e-01,9.99999e-01,9.99942e-01,1.63801e-03,9.99999e-01
5.210282418e-01,1.85922e-03,9.99999e-01,9.99999e-01,9.99978e-01,1.85926e-03,9.99999e-01
5.236333830e-01,2.10494e-03,9.99999e-01,9.99999e-01,9.99913e-01,2.10512e-03,9.99999e-01
5.262515499e-01,2.37753e-03,9.99999e-01,9.99999e-01,9.99945e-01,2.37765e-03,9.99999e-01
5.288828077e-01,2.67889e-03,9.99999e-01,9.99999e-01,9.99950e-01,2.67902e-03,9.99999e-01
5.315272217e-01,3.01135e-03,9.99999e-01,9.99999e-01,9.99956e-01,3.01148e-03,9.99999e-01
5.341848578e-01,3.37729e-03,9.99999e-01,9.99999e-01,9.99971e-01,3.37738e-03,9.99999e-01
5.368557821e-01,3.77880e-03,9.99999e-01,9.99999e-01,9.99899e-01,3.77918e-03,9.99999e-01
5.395400610e-01,4.21786e-03,9.99999e-01,9.99999e-01,9.99637e-01,4.21939e-03,9.99999e-01
5.422377613e-01,4.69845e-03,9.99999e-01,9.99999e-01,9.99533e-01,4.70064e-03,9.99999e-01
5.449489501e-01,5.22335e-03,9.99999e-01,9.99999e-01,9.99565e-01,5.22561e-03,9.99999e-01
5.476736949e-01,5.79486e-03,9.99999e-01,9.99999e-01,9.99616e-01,5.79709e-03,9.99999e-01
5.504120634e-01,6.41610e-03,9.99999e-01,9.99999e-01,9.99721e-01,6.41789e-03,9.99999e-01
5.531641237e-01,7.08991e-03,9.99999e-01,9.99999e-01,9.99859e-01,7.09090e-03,9.99999e-01
5.559299443e-01,7.81855e-03,9.99999e-01,9.99999e-01,9.99931e-01,7.81907e-03,9.99999e-01
5.587095940e-01,8.60503e-03,9.99999e-01,9.99999e-01,9.99957e-01,8.60539e-03,9.99999e-01
5.615031420e-01,9.45243e-03,9.99999e-01,9.99999e-01,9.99952e-01,9.45288e-03,9.99999e-01
5.643106577e-01,1.03640e-02,9.99999e-01,9.99999e-01,9.99945e-01,1.03646e-02,9.99999e-01
5.671322110e-01,1.13361e-02,9.99999e-01,9.99999e-01,9.99344e-01,1.13436e-02,9.99999e-01
5.699678720e-01,1.23843e-02,9.99999e-01,9.99999e-01,9.99308e-01,1.23929e-02,9.99999e-01
5.728177114e-01,1.35059e-02,9.99999e-01,9.99999e-01,9.99277e-01,1.35157e-02,9.99999e-01
5.756818000e-01,1.47052e-02,9.99999e-01,9.99999e-01,9.99337e-01,1.47149e-02,9.99999e-01
5.785602090e-01,1.59845e-02,9.99999e-01,9.99999e-01,9.99422e-01,1.59937e-02,9.99999e-01
5.814530100e-01,1.73450e-02,9.99999e-01,9.99999e-01,9.99420e-01,1.73551e-02,9.99999e-01
5.843602750e-01,1.87889e-02,9.99999e-01,9.99999e-01,9.99307e-01,1.88019e-02,9.99999e-01
5.872820764e-01,2.02161e-02,9.99999e-01,9.99999e-01,9.94045e-01,2.03372e-02,9.99999e-01
5.902184868e-01,2.18057e-02,9.99999e-01,9.99999e-01,9.92805e-01,2.19637e-02,9.99999e-01
5.931695792e-01,2.35638e-02,9.99999e-01,9.99999e-01,9.94909e-01,2.36843e-02,9.99999e-01
5.961354271e-01,2.53595e-02,9.99999e-01,9.99999e-01,9.94423e-01,2.55017e-02,9.99999e-01
5.991161043e-01,2.73070e-02,9.99999e-01,9.99999e-01,9.95931e-01,2.74185e-02,9.99999e-01
6.021116848e-01,2.93692e-02,9.99999e-01,9.99999e-01,9.97690e-01,2.94372e-02,9.99999e-01
6.051222432e-01,3.15233e-02,9.99999e-01,9.99999e-01,9.98830e-01,3.15602e-02,9.99999e-01
6.081478544e-01,3.37727e-02,9.99999e-01,9.99999e-01,9.99495e-01,3.37898e-02,9.99999e-01
6.111885937e-01,3.61204e-02,9.99999e-01,9.99999e-01,9.99786e-01,3.61281e-02,9.99999e-01
6.142445367e-01,3.85736e-02,9.99999e-01,9.99999e-01,9.99904e-01,3.85773e-02,9.99999e-01
6.173157594e-01,4.11369e-02,9.99999e-01,9.99999e-01,9.99946e-01,4.11391e-02,9.99999e-01
6.204023382e-01,4.38134e-02,9.99999e-01,9.99999e-01,9.99954e-01,4.38154e-02,9.99999e-01
6.235043498e-01,4.65986e-02,9.99999e-01,9.99999e-01,9.99802e-01,4.66077e-02,9.99999e-01
6.266218716e-01,4.94662e-02,9.99999e-01,9.99999e-01,9.98961e-01,4.95176e-02,9.99999e-01
6.297549810e-01,5.25262e-02,9.99999e-01,9.99999e-01,9.99618e-01,5.25462e-02,9.99999e-01
6.329037559e-01,5.56528e-02,9.99999e-01,9.99999e-01,9.99247e-01,5.56946e-02,9.99999e-01
6.360682746e-01,5.89262e-02,9.99999e-01,9.99999e-01,9.99358e-01,5.89640e-02,9.99999e-01
6.392486160e-01,6.23031e-02,9.99999e-01,9.99999e-01,9.99169e-01,6.23549e-02,9.99999e-01
6.424448591e-01,6.57947e-02,9.99999e-01,9.99999e-01,9.98885e-01,6.58681e-02,9.99999e-01
6.456570834e-01,6.91451e-02,9.99999e-01,9.99999e-01,9.94837e-01,6.95039e-02,9.99999e-01
6.488853688e-01,7.29864e-02,9.99999e-01,9.99999e-01,9.96230e-01,7.32626e-02,9.99999e-01
6.521297956e-01,7.68479e-02,9.99999e-01,9.99999e-01,9.96157e-01,7.71443e-02,9.99999e-01
6.553904446e-01,8.08380e-02,9.99999e-01,9.99999e-01,9.96169e-01,8.11488e-02,9.99999e-01
6.586673968e-01,8.49965e-02,9.99999e-01,9.99999e-01,9.96722e-01,8.52759e-02,9.99999e-01
6.619607338e-01,8.93617e-02,9.99999e-01,9.99999e-01,9.98172e-01,8.95252e-02,9.99999e-01
6.652705375e-01,9.37930e-02,9.99999e-01,9.99999e-01,9.98902e-01,9.38960e-02,9.99999e-01
6.685968902e-01,9.83374e-02,9.99999e-01,9.99999e-01,9.99490e-01,9.83875e-02,9.99999e-01
6.719398746e-01,1.02974e-01,9.99999e-01,9.99999e-01,9.99763e-01,1.02999e-01,9.99999e-01
6.752995740e-01,1.07715e-01,9.99999e-01,9.99999e-01,9.99871e-01,1.07729e-01,9.99999e-01
6.786760719e-01,1.12555e-01,9.99999e-01,9.99999e-01,9.99814e-01,1.12576e-01,9.99999e-01
6.820694522e-01,1.17501e-01,9.99999e-01,9.99999e-01,9.99682e-01,1.17539e-01,9.99999e-01
6.854797995e-01,1.22566e-01,9.99999e-01,9.99999e-01,9.99591e-01,1.22616e-01,9.99999e-01
6.889071985e-01,1.27679e-01,9.99999e-01,9.99999e-01,9.99006e-01,1.27806e-01,9.99999e-01
6.923517345e-01,1.30968e-01,9.99999e-01,9.99999e-01,9.83932e-01,1.33106e-01,9.99999e-01
6.958134932e-01,1.37361e-01,9.99999e-01,9.99999e-01,9.91667e-01,1.38515e-01,9.99999e-01
6.992925606e-01,1.42883e-01,9.99999e-01,9.99999e-01,9.92032e-01,1.44031e-01,9.99999e-01
7.027890234e-01,1.48183e-01,9.99999e-01,9.99999e-01,9.90191e-01,1.49650e-01,9.99999e-01
7.063029686e-01,1.54089e-01,9.99999e-01,9.99999e-01,9.91745e-01,1.55372e-01,9.99999e-01
7.098344834e-01,1.59915e-01,9.99999e-01,9.99999e-01,9.92078e-01,1.61192e-01,9.99999e-01
7.133836558e-01,1.65342e-01,9.99999e-01,9.99999e-01,9.89420e-01,1.67110e-01,9.99999e-01
7.169505741e-01,1.58977e-01,9.99999e-01,9.99999e-01,9.18301e-01,1.73121e-01,9.99998e-01
7.205353270e-01,1.71934e-01,9.99999e-01,9.99999e-01,9.59333e-01,1.79223e-01,9.99998e-01
7.241380036e-01,1.75842e-01,9.99999e-01,9.99999e-01,9.48379e-01,1.85413e-01,9.99998e-01
7.277586936e-01,1.82740e-01,9.99999e-01,9.99999e-01,9.53316e-01,1.91689e-01,9.99998e-01
7.313974871e-01,1.88239e-01,9.99999e-01,9.99999e-01,9.50480e-01,1.98047e-01,9.99998e-01
7.350544745e-01,1.98885e-01,9.99999e-01,9.99999e-01,9.72622e-01,2.04483e-01,9.99999e-01
7.387297469e-01,2.06730e-01,9.99999e-01,9.99999e-01,9.79780e-01,2.10996e-01,9.99999e-01
7.424233956e-01,2.15419e-01,9.99999e-01,9.99999e-01,9.90063e-01,2.17581e-01,9.99999e-01
7.461355126e-01,2.22883e-01,9.99999e-01,9.99999e-01,9.93964e-01,2.24236e-01,9.99999e-01
7.498661902e-01,2.30307e-01,9.99999e-01,9.99999e-01,9.97188e-01,2.30956e-01,9.99999e-01
7.536155211e-01,2.37412e-01,9.99999e-01,9.99999e-01,9.98618e-01,2.37740e-01,9.99999e-01
7.573835987e-01,2.44409e-01,9.99999e-01,9.99999e-01,9.99288e-01,2.44583e-01,9.99999e-01
7.611705167e-01,2.51370e-01,9.99999e-01,9.99999e-01,9.99557e-01,2.51481e-01,9.99999e-01
7.649763693e-01,2.58361e-01,9.99999e-01,9.99999e-01,9.99722e-01,2.58432e-01,9.99999e-01
7.688012511e-01,2.65382e-01,9.99999e-01,9.99999e-01,9.99806e-01,2.65433e-01,9.99999e-01
7.726452574e-01,2.72436e-01,9.99999e-01,9.99999e-01,9.99840e-01,2.72479e-01,9.99999e-01
7.765084837e-01,2.79504e-01,9.99999e-01,9.99999e-01,9.99773e-01,2.79567e-01,9.99999e-01
7.803910261e-01,2.70603e-01,9.99999e-01,9.44747e-01,9.99022e-01,2.86695e-01,9.99999e-01
7.842929812e-01,2.26344e-01,9.99999e-01,7.72680e-01,9.96590e-01,2.93858e-01,9.99999e-01
7.882144461e-01,2.27103e-01,9.99999e-01,7.59335e-01,9.93003e-01,3.01053e-01,9.99999e-01
7.921555184e-01,2.60705e-01,9.99999e-01,8.48814e-01,9.96164e-01,3.08277e-01,9.99999e-01
7.961162960e-01,2.80788e-01,9.99999e-01,8.95896e-01,9.93206e-01,3.15526e-01,9.99999e-01
8.000968774e-01,3.01734e-01,9.99999e-01,9.42087e-01,9.92168e-01,3.22798e-01,9.99999e-01
8.040973618e-01,3.17552e-01,9.99999e-01,9.69592e-01,9.92163e-01,3.30089e-01,9.99999e-01
8.081178486e-01,3.26795e-01,9.99999e-01,9.85902e-01,9.82388e-01,3.37395e-01,9.99999e-01
8.121584379e-01,3.18769e-01,9.99999e-01,9.95638e-01,9.28716e-01,3.44714e-01,9.99998e-01
8.162192301e-01,3.22246e-01,9.99999e-01,9.99035e-01,9.16215e-01,3.52043e-01,9.99998e-01
8.203003262e-01,3.44051e-01,9.99999e-01,9.99985e-01,9.57364e-01,3.59378e-01,9.99998e-01
8.244018279e-01,3.45241e-01,9.99999e-01,9.99999e-01,9.41439e-01,3.66716e-01,9.99998e-01
8.285238370e-01,3.54974e-01,9.99999e-01,9.99999e-01,9.48989e-01,3.74055e-01,9.99998e-01
8.326664562e-01,3.61760e-01,9.99999e-01,9.99999e-01,9.48526e-01,3.81392e-01,9.99998e-01
8.368297885e-01,3.74316e-01,9.99999e-01,9.99999e-01,9.62938e-01,3.88723e-01,9.99999e-01
8.410139374e-01,3.87260e-01,9.99999e-01,9.99999e-01,9.77813e-01,3.96046e-01,9.99999e-01
8.452190071e-01,3.98948e-01,9.99999e-01,9.99999e-01,9.89063e-01,4.03359e-01,9.99999e-01
8.494451021e-01,4.08044e-01,9.99999e-01,9.99999e-01,9.93635e-01,4.10658e-01,9.99999e-01
8.536923276e-01,4.16368e-01,9.99999e-01,9.99999e-01,9.96235e-01,4.17941e-01,9.99999e-01
8.579607893e-01,4.24218e-01,9.99999e-01,9.99999e-01,9.97678e-01,4.25205e-01,9.99999e-01
8.622505932e-01,4.31811e-01,9.99999e-01,9.99999e-01,9.98525e-01,4.32449e-01,9.99999e-01
8.665618462e-01,3.94489e-01,9.99999e-01,8.98017e-01,9.99086e-01,4.39669e-01,9.99999e-01
8.708946554e-01,2.33845e-01,9.99999e-01,5.23821e-01,9.98953e-01,4.46864e-01,9.99999e-01
8.752491287e-01,2.67546e-01,9.99999e-01,5.90056e-01,9.98601e-01,4.54030e-01,9.99999e-01
8.796253743e-01,3.43400e-01,9.99999e-01,7.46008e-01,9.98061e-01,4.61167e-01,9.99999e-01
8.840235012e-01,4.00965e-01,9.99999e-01,8.58117e-01,9.97786e-01,4.68272e-01,9.99999e-01
8.884436187e-01,4.43933e-01,9.99999e-01,9.41411e-01,9.91912e-01,4.75342e-01,9.99999e-01
8.928858368e-01,4.32451e-01,9.99999e-01,9.75808e-01,9.18389e-01,4.82377e-01,9.99998e-01
8.973502660e-01,4.18791e-01,9.99999e-01,9.94082e-01,8.60687e-01,4.89373e-01,9.99997e-01
9.018370173e-01,4.59536e-01,9.99999e-01,9.99346e-01,9.26443e-01,4.96330e-01,9.99997e-01
9.063462024e-01,4.62902e-01,9.99999e-01,9.83288e-01,9.34628e-01,5.03246e-01,9.99997e-01
9.108779334e-01,4.42104e-01,9.99999e-01,9.62103e-01,9.00087e-01,5.10118e-01,9.99996e-01
9.154323231e-01,4.54679e-01,9.99999e-01,9.91000e-01,8.87247e-01,5.16945e-01,9.99996e-01
9.200094847e-01,4.23717e-01,9.99999e-01,8.81404e-01,9.10704e-01,5.23727e-01,9.99995e-01
9.246095321e-01,3.81838e-01,9.99999e-01,8.27996e-01,8.64736e-01,5.30461e-01,9.99992e-01
9.292325798e-01,1.83649e-01,9.99999e-01,8.62964e-01,3.87176e-01,5.37146e-01,9.99985e-01
9.338787427e-01,1.42755e-01,9.99999e-01,8.67034e-01,2.96277e-01,5.43780e-01,9.99981e-01
9.385481364e-01,3.05455e-01,9.99999e-01,9.00160e-01,6.10754e-01,5.50363e-01,9.99980e-01
9.432408771e-01,2.67190e-01,9.99999e-01,9.37574e-01,5.08947e-01,5.56894e-01,9.99978e-01
9.479570815e-01,2.16776e-01,9.99999e-01,9.67439e-01,3.96660e-01,5.63370e-01,9.99981e-01
9.526968669e-01,2.77759e-01,9.99999e-01,9.84183e-01,4.94285e-01,5.69792e-01,9.99985e-01
9.574603512e-01,2.95444e-01,9.99999e-01,9.93206e-01,5.15916e-01,5.76158e-01,9.99989e-01
9.622476530e-01,3.38063e-01,9.99999e-01,9.97876e-01,5.81515e-01,5.82467e-01,9.99992e-01
9.670588912e-01,4.29911e-01,9.99999e-01,9.99363e-01,7.30676e-01,5.88719e-01,9.99995e-01
9.718941857e-01,4.88000e-01,9.99999e-01,9.99954e-01,8.20324e-01,5.94912e-01,9.99996e-01
9.767536566e-01,5.09868e-01,9.99999e-01,9.99999e-01,8.48302e-01,6.01046e-01,9.99997e-01
9.816374249e-01,5.37378e-01,9.99999e-01,9.99999e-01,8.85125e-01,6.07121e-01,9.99998e-01
9.865456120e-01,5.68091e-01,9.99999e-01,9.99999e-01,9.26536e-01,6.13135e-01,9.99998e-01
9.914783401e-01,5.90546e-01,9.99999e-01,9.99999e-01,9.53896e-01,6.19088e-01,9.99999e-01
9.964357318e-01,6.09122e-01,9.99999e-01,9.99999e-01,9.74627e-01,6.24979e-01,9.99999e-01
1.001417910e+00,6.21168e-01,9.99999e-01,9.99999e-01,9.84716e-01,6.30809e-01,9.99999e-01
1.006425000e+00,6.31009e-01,9.99999e-01,9.99999e-01,9.91254e-01,6.36576e-01,9.99999e-01
1.011457125e+00,6.38792e-01,9.99999e-01,9.99999e-01,9.94567e-01,6.42280e-01,9.99999e-01
1.016514411e+00,6.45530e-01,9.99999e-01,9.99999e-01,9.96307e-01,6.47922e-01,9.99999e-01
1.021596983e+00,6.51516e-01,9.99999e-01,9.99906e-01,9.97056e-01,6.53500e-01,9.99999e-01
1.026704968e+00,6.53176e-01,9.99999e-01,9.93416e-01,9.97703e-01,6.59014e-01,9.99999e-01
1.031838492e+00,6.19744e-01,9.99999e-01,9.34189e-01,9.98331e-01,6.64465e-01,9.99999e-01
1.036997685e+00,6.08261e-02,9.99999e-01,9.08746e-02,9.99007e-01,6.69852e-01,9.99999e-01
1.042182673e+00,2.05500e-02,9.99999e-01,3.04666e-02,9.98816e-01,6.75174e-01,9.99999e-01
1.047393587e+00,3.42415e-02,9.99999e-01,5.03911e-02,9.98431e-01,6.80433e-01,9.99999e-01
1.052630555e+00,1.16880e-04,9.99999e-01,1.70722e-04,9.97846e-01,6.85628e-01,9.99999e-01
1.057893707e+00,3.89518e-04,9.99999e-01,5.65106e-04,9.96405e-01,6.90758e-01,9.99999e-01
1.063183176e+00,2.64016e-03,9.99999e-01,3.80880e-03,9.94093e-01,6.95824e-01,9.99999e-01
1.068499092e+00,1.24591e-02,9.99999e-01,1.79132e-02,9.90131e-01,7.00827e-01,9.99999e-01
1.073841587e+00,5.42364e-02,9.99999e-01,7.75593e-02,9.88456e-01,7.05765e-01,9.99999e-01
1.079210795e+00,1.39196e-01,9.99999e-01,1.98391e-01,9.85241e-01,7.10640e-01,9.99999e-01
1.084606849e+00,2.84658e-01,9.99999e-01,4.06246e-01,9.77734e-01,7.15451e-01,9.99998e-01
1.090029883e+00,4.36634e-01,9.99999e-01,6.25283e-01,9.68131e-01,7.20199e-01,9.99998e-01
1.095480033e+00,5.27345e-01,9.99999e-01,7.93263e-01,9.15593e-01,7.24883e-01,9.99997e-01
1.100957433e+00,5.22818e-01,9.99999e-01,8.94214e-01,7.99858e-01,7.29504e-01,9.99995e-01
1.106462220e+00,4.01555e-01,9.99999e-01,9.54810e-01,5.71361e-01,7.34063e-01,9.99991e-01
1.111994531e+00,2.27792e-01,9.99999e-01,9.82999e-01,3.13155e-01,7.38560e-01,9.99982e-01
1.117554504e+00,1.16283e-01,9.99999e-01,9.95830e-01,1.56982e-01,7.42994e-01,9.99975e-01
1.123142276e+00,2.01086e-01,9.99999e-01,9.99726e-01,2.69088e-01,7.47366e-01,9.99971e-01
1.128757988e+00,3.14099e-01,9.99999e-01,9.99999e-01,4.17877e-01,7.51678e-01,9.99969e-01
1.134401778e+00,1.53713e-01,9.99999e-01,9.99999e-01,2.03351e-01,7.55928e-01,9.99965e-01
1.140073787e+00,4.46329e-01,9.99999e-01,9.99999e-01,5.87200e-01,7.60117e-01,9.99972e-01
1.145774156e+00,2.59538e-01,9.99999e-01,9.99999e-01,3.39607e-01,7.64247e-01,9.99976e-01
1.151503026e+00,2.32829e-01,9.99999e-01,9.99999e-01,3.03043e-01,7.68316e-01,9.99979e-01
1.157260541e+00,2.75780e-01,9.99999e-01,9.99999e-01,3.57082e-01,7.72326e-01,9.99984e-01
1.163046844e+00,3.61331e-01,9.99999e-01,9.99999e-01,4.65470e-01,7.76277e-01,9.99989e-01
1.168862078e+00,4.55627e-01,9.99999e-01,9.99999e-01,5.84012e-01,7.80170e-01,9.99994e-01
1.174706389e+00,5.62368e-01,9.99999e-01,9.99999e-01,7.17303e-01,7.84005e-01,9.99997e-01
1.180579921e+00,6.43221e-01,9.99999e-01,9.99999e-01,8.16496e-01,7.87783e-01,9.99997e-01
1.186482820e+00,7.05607e-01,9.99999e-01,9.99986e-01,8.91488e-01,7.91503e-01,9.99998e-01
1.192415234e+00,7.26742e-01,9.99999e-01,9.76939e-01,9.35099e-01,7.95167e-01,9.99998e-01
1.198377311e+00,4.14688e-01,9.99999e-01,5.44238e-01,9.44998e-01,7.98775e-01,9.99998e-01
1.204369197e+00,5.85065e-18,9.99999e-01,7.52107e-18,9.47941e-01,8.02328e-01,9.99998e-01
1.210391043e+00,1.07215e-69,9.99999e-01,1.36886e-69,9.50132e-01,8.05826e-01,9.99998e-01
1.216442998e+00,1.91477e-60,9.99999e-01,2.43064e-60,9.57444e-01,8.09270e-01,9.99999e-01
1.222525213e+00,1.51020e-59,9.99999e-01,1.89105e-59,9.66687e-01,8.12659e-01,9.99999e-01
1.228637839e+00,4.47291e-46,9.99999e-01,5.56990e-46,9.76744e-01,8.15996e-01,9.99999e-01
