#,Wave/freq,Total,O2,CO2,H2O,Rayleigh,CIA
4.000000000e-01,2.49562e-25,9.99999e-01,9.99999e-01,9.99888e-01,2.49590e-25,9.99999e-01
4.020000000e-01,7.64992e-25,9.99999e-01,9.99999e-01,9.99930e-01,7.65045e-25,9.99999e-01
4.040100000e-01,2.29103e-24,9.99999e-01,9.99999e-01,9.99970e-01,2.29110e-24,9.99999e-01
4.060300500e-01,6.71411e-24,9.99999e-01,9.99999e-01,9.99992e-01,6.71416e-24,9.99999e-01
4.080602003e-01,1.92626e-23,9.99999e-01,9.99999e-01,9.99997e-01,1.92626e-23,9.99999e-01
4.101005013e-01,5.41251e-23,9.99999e-01,9.99999e-01,9.99999e-01,5.41251e-23,9.99999e-01
4.121510038e-01,1.49011e-22,9.99999e-01,9.99999e-01,9.99995e-01,1.49011e-22,9.99999e-01
4.142117588e-01,4.02105e-22,9.99999e-01,9.99999e-01,9.99968e-01,4.02117e-22,9.99999e-01
4.162828176e-01,1.06392e-21,9.99999e-01,9.99999e-01,9.99862e-01,1.06407e-21,9.99999e-01
4.183642317e-01,2.76187e-21,9.99999e-01,9.99999e-01,9.99918e-01,2.76210e-21,9.99999e-01
4.204560528e-01,7.03564e-21,9.99999e-01,9.99999e-01,9.99949e-01,7.03599e-21,9.99999e-01
4.225583331e-01,1.75947e-20,9.99999e-01,9.99999e-01,9.99980e-01,1.75951e-20,9.99999e-01
4.246711247e-01,4.32102e-20,9.99999e-01,9.99999e-01,9.99984e-01,4.32109e-20,9.99999e-01
4.267944804e-01,1.04251e-19,9.99999e-01,9.99999e-01,9.99977e-01,1.04253e-19,9.99999e-01
4.289284528e-01,2.47184e-19,9.99999e-01,9.99999e-01,9.99982e-01,2.47188e-19,9.99999e-01
4.310730950e-01,5.76181e-19,9.99999e-01,9.99999e-01,9.99992e-01,5.76185e-19,9.99999e-01
4.332284605e-01,1.32079e-18,9.99999e-01,9.99999e-01,9.99997e-01,1.32080e-18,9.99999e-01
4.353946028e-01,2.97847e-18,9.99999e-01,9.99999e-01,9.99998e-01,2.97847e-18,9.99999e-01
4.375715758e-01,6.60952e-18,9.99999e-01,9.99999e-01,9.99985e-01,6.60961e-18,9.99999e-01
4.397594337e-01,1.44367e-17,9.99999e-01,9.99999e-01,9.99878e-01,1.44384e-17,9.99999e-01
4.419582309e-01,3.10380e-17,9.99999e-01,9.99999e-01,9.99382e-01,3.10571e-17,9.99999e-01
4.441680220e-01,6.57696e-17,9.99999e-01,9.99999e-01,9.99523e-01,6.58009e-17,9.99999e-01
4.463888621e-01,1.37292e-16,9.99999e-01,9.99999e-01,9.99502e-01,1.37360e-16,9.99999e-01
4.486208064e-01,2.82517e-16,9.99999e-01,9.99999e-01,9.99691e-01,2.82604e-16,9.99999e-01
4.508639105e-01,5.73117e-16,9.99999e-01,9.99999e-01,9.99855e-01,5.73200e-16,9.99999e-01
4.531182300e-01,1.14642e-15,9.99999e-01,9.99999e-01,9.99942e-01,1.14648e-15,9.99999e-01
4.553838212e-01,2.26186e-15,9.99999e-01,9.99999e-01,9.99960e-01,2.26194e-15,9.99999e-01
4.576607403e-01,4.40311e-15,9.99999e-01,9.99999e-01,9.99981e-01,4.40319e-15,9.99999e-01
4.599490440e-01,8.45927e-15,9.99999e-01,9.99999e-01,9.99986e-01,8.45937e-15,9.99999e-01
4.622487892e-01,1.60438e-14,9.99999e-01,9.99999e-01,9.99997e-01,1.60438e-14,9.99999e-01
4.645600332e-01,3.00458e-14,9.99999e-01,9.99999e-01,9.99990e-01,3.00461e-14,9.99999e-01
4.668828333e-01,5.55675e-14,9.99999e-01,9.99999e-01,9.99853e-01,5.55757e-14,9.99999e-01
4.692172475e-01,1.01524e-13,9.99999e-01,9.99999e-01,9.99687e-01,1.01556e-13,9.99999e-01
4.715633337e-01,1.83344e-13,9.99999e-01,9.99999e-01,9.99795e-01,1.83382e-13,9.99999e-01
4.739211504e-01,3.27229e-13,9.99999e-01,9.99999e-01,9.99804e-01,3.27293e-13,9.99999e-01
4.762907561e-01,5.77435e-13,9.99999e-01,9.99999e-01,9.99898e-01,5.77493e-13,9.99999e-01
4.786722099e-01,1.00756e-12,9.99999e-01,9.99999e-01,9.99958e-01,1.00760e-12,9.99999e-01
4.810655710e-01,1.73879e-12,9.99999e-01,9.99999e-01,9.99987e-01,1.73881e-12,9.99999e-01
4.834708988e-01,2.96813e-12,9.99999e-01,9.99999e-01,9.99878e-01,2.96849e-12,9.99999e-01
4.858882533e-01,5.01344e-12,9.99999e-01,9.99999e-01,9.99779e-01,5.01455e-12,9.99999e-01
4.883176946e-01,8.38204e-12,9.99999e-01,9.99999e-01,9.99814e-01,8.38359e-12,9.99999e-01
4.907592831e-01,1.38723e-11,9.99999e-01,9.99999e-01,9.99832e-01,1.38746e-11,9.99999e-01
4.932130795e-01,2.27319e-11,9.99999e-01,9.99999e-01,9.99881e-01,2.27346e-11,9.99999e-01
4.956791449e-01,3.68886e-11,9.99999e-01,9.99999e-01,9.99936e-01,3.68909e-11,9.99999e-01
4.981575406e-01,5.92738e-11,9.99999e-01,9.99999e-01,9.99685e-01,5.92924e-11,9.99999e-01
5.006483283e-01,9.43306e-11,9.99999e-01,9.99999e-01,9.99182e-01,9.44077e-11,9.99999e-01
5.031515699e-01,1.48332e-10,9.99999e-01,9.99999e-01,9.95882e-01,1.48945e-10,9.99999e-01
5.056673278e-01,2.32375e-10,9.99999e-01,9.99999e-01,9.97828e-01,2.32880e-10,9.99999e-01
5.081956644e-01,3.59928e-10,9.99999e-01,9.99999e-01,9.97261e-01,3.60916e-10,9.99999e-01
5.107366428e-01,5.53499e-10,9.99999e-01,9.99999e-01,9.98150e-01,5.54524e-10,9.99999e-01
5.132903260e-01,8.43903e-10,9.99999e-01,9.99999e-01,9.98943e-01,8.44795e-10,9.99999e-01
5.158567776e-01,1.27578e-09,9.99999e-01,9.99999e-01,9.99553e-01,1.27635e-09,9.99999e-01
5.184360615e-01,1.91237e-09,9.99999e-01,9.99999e-01,9.99821e-01,1.91271e-09,9.99999e-01
5.210282418e-01,2.84334e-09,9.99999e-01,9.99999e-01,9.99932e-01,2.84353e-09,9.99999e-01
5.236333830e-01,4.19324e-09,9.99999e-01,9.99999e-01,9.99731e-01,4.19436e-09,9.99999e-01
5.262515499e-01,6.13855e-09,9.99999e-01,9.99999e-01,9.99831e-01,6.13958e-09,9.99999e-01
5.288828077e-01,8.91819e-09,9.99999e-01,9.99999e-01,9.99845e-01,8.91956e-09,9.99999e-01
5.315272217e-01,1.28613e-08,9.99999e-01,9.99999e-01,9.99864e-01,1.28631e-08,9.99999e-01
5.341848578e-01,1.84147e-08,9.99999e-01,9.99999e-01,9.99910e-01,1.84164e-08,9.99999e-01
5.368557821e-01,2.61728e-08,9.99999e-01,9.99999e-01,9.99685e-01,2.61810e-08,9.99999e-01
5.395400610e-01,3.69195e-08,9.99999e-01,9.99999e-01,9.98864e-01,3.69615e-08,9.99999e-01
5.422377613e-01,5.17514e-08,9.99999e-01,9.99999e-01,9.98543e-01,5.18268e-08,9.99999e-01
5.449489501e-01,7.20891e-08,9.99999e-01,9.99999e-01,9.98640e-01,7.21872e-08,9.99999e-01
5.476736949e-01,9.97706e-08,9.99999e-01,9.99999e-01,9.98800e-01,9.98903e-08,9.99999e-01
5.504120634e-01,1.37221e-07,9.99999e-01,9.99999e-01,9.99129e-01,1.37341e-07,9.99999e-01
5.531641237e-01,1.87567e-07,9.99999e-01,9.99999e-01,9.99561e-01,1.87649e-07,9.99999e-01
5.559299443e-01,2.54754e-07,9.99999e-01,9.99999e-01,9.99788e-01,2.54808e-07,9.99999e-01
5.587095940e-01,3.43874e-07,9.99999e-01,9.99999e-01,9.99866e-01,3.43920e-07,9.99999e-01
5.615031420e-01,4.61386e-07,9.99999e-01,9.99999e-01,9.99851e-01,4.61454e-07,9.99999e-01
5.643106577e-01,6.15466e-07,9.99999e-01,9.99999e-01,9.99830e-01,6.15570e-07,9.99999e-01
5.671322110e-01,8.14820e-07,9.99999e-01,9.99999e-01,9.97945e-01,8.16497e-07,9.99999e-01
5.699678720e-01,1.07466e-06,9.99999e-01,9.99999e-01,9.97843e-01,1.07698e-06,9.99999e-01
5.728177114e-01,1.40963e-06,9.99999e-01,9.99999e-01,9.97741e-01,1.41282e-06,9.99999e-01
5.756818000e-01,1.83966e-06,9.99999e-01,9.99999e-01,9.97929e-01,1.84348e-06,9.99999e-01
5.785602090e-01,2.38848e-06,9.99999e-01,9.99999e-01,9.98197e-01,2.39279e-06,9.99999e-01
5.814530100e-01,3.08424e-06,9.99999e-01,9.99999e-01,9.98187e-01,3.08984e-06,9.99999e-01
5.843602750e-01,3.96124e-06,9.99999e-01,9.99999e-01,9.97831e-01,3.96984e-06,9.99999e-01
5.872820764e-01,4.98146e-06,9.99999e-01,9.99999e-01,9.81512e-01,5.07529e-06,9.99999e-01
5.902184868e-01,6.31305e-06,9.99999e-01,9.99999e-01,9.77682e-01,6.45715e-06,9.99999e-01
5.931695792e-01,8.04699e-06,9.99999e-01,9.99999e-01,9.84187e-01,8.17628e-06,9.99999e-01
5.961354271e-01,1.01264e-05,9.99999e-01,9.99999e-01,9.82677e-01,1.03049e-05,9.99999e-01
5.991161043e-01,1.27648e-05,9.99999e-01,9.99999e-01,9.87336e-01,1.29286e-05,9.99999e-01
6.021116848e-01,1.60314e-05,9.99999e-01,9.99999e-01,9.92799e-01,1.61476e-05,9.99999e-01
6.051222432e-01,2.00066e-05,9.99999e-01,9.99999e-01,9.96351e-01,2.00799e-05,9.99999e-01
6.081478544e-01,2.48232e-05,9.99999e-01,9.99999e-01,9.98423e-01,2.48624e-05,9.99999e-01
6.111885937e-01,3.06339e-05,9.99999e-01,9.99999e-01,9.99333e-01,3.06544e-05,9.99999e-01
6.142445367e-01,3.76284e-05,9.99999e-01,9.99999e-01,9.99701e-01,3.76396e-05,9.99999e-01
6.173157594e-01,4.60220e-05,9.99999e-01,9.99999e-01,9.99835e-01,4.60296e-05,9.99999e-01
6.204023382e-01,5.60586e-05,9.99999e-01,9.99999e-01,9.99860e-01,5.60664e-05,9.99999e-01
6.235043498e-01,6.79842e-05,9.99999e-01,9.99999e-01,9.99381e-01,6.80262e-05,9.99999e-01
6.266218716e-01,8.19559e-05,9.99999e-01,9.99999e-01,9.96755e-01,8.22227e-05,9.99999e-01
6.297549810e-01,9.88925e-05,9.99999e-01,9.99999e-01,9.98808e-01,9.90103e-05,9.99999e-01
6.329037559e-01,1.18510e-04,9.99999e-01,9.99999e-01,9.97650e-01,1.18789e-04,9.99999e-01
6.360682746e-01,1.41722e-04,9.99999e-01,9.99999e-01,9.97994e-01,1.42007e-04,9.99999e-01
6.392486160e-01,1.68726e-04,9.99999e-01,9.99999e-01,9.97403e-01,1.69165e-04,9.99999e-01
6.424448591e-01,2.00121e-04,9.99999e-01,9.99999e-01,9.96513e-01,2.00822e-04,9.99999e-01
6.456570834e-01,2.33777e-04,9.99999e-01,9.99999e-01,9.83927e-01,2.37596e-04,9.99999e-01
6.488853688e-01,2.76888e-04,9.99999e-01,9.99999e-01,9.88277e-01,2.80172e-04,9.99999e-01
6.521297956e-01,3.25372e-04,9.99999e-01,9.99999e-01,9.88059e-01,3.29304e-04,9.99999e-01
6.553904446e-01,3.81214e-04,9.99999e-01,9.99999e-01,9.88064e-01,3.85819e-04,9.99999e-01
6.586673968e-01,4.46023e-04,9.99999e-01,9.99999e-01,9.89797e-01,4.50620e-04,9.99999e-01
6.619607338e-01,5.21703e-04,9.99999e-01,9.99999e-01,9.94299e-01,5.24694e-04,9.99999e-01
6.652705375e-01,6.07025e-04,9.99999e-01,9.99999e-01,9.96574e-01,6.09111e-04,9.99999e-01
6.685968902e-01,7.04001e-04,9.99999e-01,9.99999e-01,9.98543e-01,7.05028e-04,9.99999e-01
6.719398746e-01,8.13096e-04,9.99999e-01,9.99999e-01,9.99262e-01,8.13696e-04,9.99999e-01
6.752995740e-01,9.36083e-04,9.99999e-01,9.99999e-01,9.99599e-01,9.36458e-04,9.99999e-01
6.786760719e-01,1.07413e-03,9.99999e-01,9.99999e-01,9.99419e-01,1.07475e-03,9.99999e-01
6.820694522e-01,1.22890e-03,9.99999e-01,9.99999e-01,9.99008e-01,1.23012e-03,9.99999e-01
6.854797995e-01,1.40240e-03,9.99999e-01,9.99999e-01,9.98721e-01,1.40420e-03,9.99999e-01
6.889071985e-01,1.59375e-03,9.99999e-01,9.99999e-01,9.96887e-01,1.59873e-03,9.99999e-01
6.923517345e-01,1.72605e-03,9.99999e-01,9.99999e-01,9.50710e-01,1.81554e-03,9.99999e-01
6.958134932e-01,2.00384e-03,9.99999e-01,9.99999e-01,9.74349e-01,2.05659e-03,9.99998e-01
6.992925606e-01,2.26651e-03,9.99999e-01,9.99999e-01,9.75299e-01,2.32391e-03,9.99998e-01
7.027890234e-01,2.54027e-03,9.99999e-01,9.99999e-01,9.69696e-01,2.61965e-03,9.99998e-01
7.063029686e-01,2.87069e-03,9.99999e-01,9.99999e-01,9.74422e-01,2.94605e-03,9.99998e-01
7.098344834e-01,3.22424e-03,9.99999e-01,9.99999e-01,9.75436e-01,3.30543e-03,9.99998e-01
7.133836558e-01,3.57932e-03,9.99999e-01,9.99999e-01,9.67322e-01,3.70024e-03,9.99998e-01
7.169505741e-01,3.18563e-03,9.99999e-01,9.99999e-01,7.70785e-01,4.13298e-03,9.99996e-01
7.205353270e-01,4.05530e-03,9.99999e-01,9.99999e-01,8.80393e-01,4.60625e-03,9.99996e-01
7.241380036e-01,4.34988e-03,9.99999e-01,9.99999e-01,8.49134e-01,5.12274e-03,9.99995e-01
7.277586936e-01,4.90598e-03,9.99999e-01,9.99999e-01,8.62941e-01,5.68520e-03,9.99996e-01
7.313974871e-01,5.38015e-03,9.99999e-01,9.99999e-01,8.54477e-01,6.29644e-03,9.99997e-01
7.350544745e-01,6.38396e-03,9.99999e-01,9.99999e-01,9.17323e-01,6.95934e-03,9.99998e-01
7.387297469e-01,7.20321e-03,9.99999e-01,9.99999e-01,9.38303e-01,7.67684e-03,9.99998e-01
7.424233956e-01,8.19252e-03,9.99999e-01,9.99999e-01,9.69308e-01,8.45192e-03,9.99999e-01
7.461355126e-01,9.11361e-03,9.99999e-01,9.99999e-01,9.81266e-01,9.28760e-03,9.99999e-01
7.498661902e-01,1.00977e-02,9.99999e-01,9.99999e-01,9.91245e-01,1.01869e-02,9.99999e-01
7.536155211e-01,1.11048e-02,9.99999e-01,9.99999e-01,9.95689e-01,1.11529e-02,9.99999e-01
7.573835987e-01,1.21616e-02,9.99999e-01,9.99999e-01,9.97779e-01,1.21887e-02,9.99999e-01
7.611705167e-01,1.32790e-02,9.99999e-01,9.99999e-01,9.98619e-01,1.32973e-02,9.99999e-01
7.649763693e-01,1.44693e-02,9.99999e-01,9.99999e-01,9.99134e-01,1.44819e-02,9.99999e-01
7.688012511e-01,1.57359e-02,9.99999e-01,9.99999e-01,9.99396e-01,1.57454e-02,9.99999e-01
7.726452574e-01,1.70824e-02,9.99999e-01,9.99999e-01,9.99503e-01,1.70908e-02,9.99999e-01
7.765084837e-01,1.85082e-02,9.99999e-01,9.99999e-01,9.99291e-01,1.85213e-02,9.99999e-01
7.803910261e-01,1.73724e-02,9.99999e-01,8.69252e-01,9.96940e-01,2.00396e-02,9.99999e-01
7.842929812e-01,1.02028e-02,9.99999e-01,4.75465e-01,9.89362e-01,2.16486e-02,9.99999e-01
7.882144461e-01,1.05399e-02,9.99999e-01,4.59897e-01,9.78287e-01,2.33512e-02,9.99999e-01
7.921555184e-01,1.51134e-02,9.99999e-01,6.07422e-01,9.88071e-01,2.51501e-02,9.99999e-01
7.961162960e-01,1.88573e-02,9.99999e-01,7.11527e-01,9.78906e-01,2.70479e-02,9.99999e-01
8.000968774e-01,2.35586e-02,9.99999e-01,8.30948e-01,9.75702e-01,2.90471e-02,9.99999e-01
8.040973618e-01,2.76148e-02,9.99999e-01,9.08362e-01,9.75691e-01,3.11501e-02,9.99998e-01
8.081178486e-01,3.02057e-02,9.99999e-01,9.56655e-01,9.46098e-01,3.33594e-02,9.99998e-01
8.121584379e-01,2.80386e-02,9.99999e-01,9.86472e-01,7.96128e-01,3.56770e-02,9.99996e-01
8.162192301e-01,2.90603e-02,9.99999e-01,9.96995e-01,7.64722e-01,3.81050e-02,9.99995e-01
8.203003262e-01,3.56662e-02,9.99999e-01,9.99957e-01,8.77520e-01,4.06454e-02,9.99995e-01
8.244018279e-01,3.62496e-02,9.99999e-01,9.99999e-01,8.37179e-01,4.32999e-02,9.99995e-01
8.285238370e-01,3.91779e-02,9.99999e-01,9.99999e-01,8.50399e-01,4.60701e-02,9.99996e-01
8.326664562e-01,4.15937e-02,9.99999e-01,9.99999e-01,8.49587e-01,4.89576e-02,9.99997e-01
8.368297885e-01,4.62069e-02,9.99999e-01,9.99999e-01,8.89216e-01,5.19636e-02,9.99998e-01
8.410139374e-01,5.13694e-02,9.99999e-01,9.99999e-01,9.32474e-01,5.50893e-02,9.99999e-01
8.452190071e-01,5.63673e-02,9.99999e-01,9.99999e-01,9.66258e-01,5.83357e-02,9.99999e-01
8.494451021e-01,6.04840e-02,9.99999e-01,9.99999e-01,9.80234e-01,6.17036e-02,9.99999e-01
8.536923276e-01,6.44298e-02,9.99999e-01,9.99999e-01,9.88285e-01,6.51935e-02,9.99999e-01
8.579607893e-01,6.83079e-02,9.99999e-01,9.99999e-01,9.92759e-01,6.88061e-02,9.99999e-01
8.622505932e-01,7.22078e-02,9.99999e-01,9.99999e-01,9.95399e-01,7.25415e-02,9.99999e-01
8.665618462e-01,6.35442e-02,9.99999e-01,8.33922e-01,9.97147e-01,7.63999e-02,9.99999e-01
8.708946554e-01,1.34432e-02,9.99999e-01,1.67721e-01,9.96730e-01,8.03812e-02,9.99999e-01
8.752491287e-01,1.80701e-02,9.99999e-01,2.14730e-01,9.95630e-01,8.44852e-02,9.99999e-01
8.796253743e-01,3.68525e-02,9.99999e-01,4.17641e-01,9.93944e-01,8.87114e-02,9.99999e-01
8.840235012e-01,5.78720e-02,9.99999e-01,6.25886e-01,9.93090e-01,9.30592e-02,9.99999e-01
8.884436187e-01,7.89694e-02,9.99999e-01,8.29418e-01,9.75002e-01,9.75279e-02,9.99998e-01
8.928858368e-01,7.31943e-02,9.99999e-01,9.26575e-01,7.70847e-01,1.02117e-01,9.99995e-01
8.973502660e-01,6.66865e-02,9.99999e-01,9.81683e-01,6.34737e-01,1.06824e-01,9.99993e-01
9.018370173e-01,8.84541e-02,9.99999e-01,9.97966e-01,7.93630e-01,1.11649e-01,9.99992e-01
9.063462024e-01,9.08401e-02,9.99999e-01,9.50190e-01,8.13515e-01,1.16590e-01,9.99991e-01
9.108779334e-01,7.88480e-02,9.99999e-01,8.86956e-01,7.25775e-01,1.21646e-01,9.99990e-01
9.154323231e-01,8.57420e-02,9.99999e-01,9.72325e-01,6.93371e-01,1.26815e-01,9.99990e-01
9.200094847e-01,7.62006e-02,9.99999e-01,7.28094e-01,7.52205e-01,1.32094e-01,9.99987e-01
9.246095321e-01,5.20416e-02,9.99999e-01,5.59662e-01,6.53760e-01,1.37483e-01,9.99978e-01
9.292325798e-01,8.72130e-03,9.99999e-01,6.42887e-01,8.41988e-02,1.42978e-01,9.99956e-01
9.338787427e-01,3.98649e-03,9.99999e-01,6.47340e-01,3.71833e-02,1.48579e-01,9.99942e-01
9.385481364e-01,3.08205e-02,9.99999e-01,7.22893e-01,2.60574e-01,1.54281e-01,9.99941e-01
9.432408771e-01,2.28793e-02,9.99999e-01,8.18191e-01,1.68638e-01,1.60083e-01,9.99934e-01
9.479570815e-01,1.22620e-02,9.99999e-01,9.01860e-01,8.04411e-02,1.65982e-01,9.99942e-01
9.526968669e-01,2.31540e-02,9.99999e-01,9.51550e-01,1.39791e-01,1.71976e-01,9.99956e-01
9.574603512e-01,2.65838e-02,9.99999e-01,9.78951e-01,1.51706e-01,1.78061e-01,9.99967e-01
9.622476530e-01,3.80244e-02,9.99999e-01,9.93386e-01,2.07433e-01,1.84235e-01,9.99978e-01
9.670588912e-01,7.55709e-02,9.99999e-01,9.98016e-01,3.97324e-01,1.90494e-01,9.99986e-01
9.718941857e-01,1.07374e-01,9.99999e-01,9.99861e-01,5.45552e-01,1.96837e-01,9.99991e-01
9.767536566e-01,1.22727e-01,9.99999e-01,9.99999e-01,6.03801e-01,2.03259e-01,9.99993e-01
9.816374249e-01,1.43859e-01,9.99999e-01,9.99999e-01,6.85840e-01,2.09757e-01,9.99995e-01
9.865456120e-01,1.70683e-01,9.99999e-01,9.99999e-01,7.88997e-01,2.16329e-01,9.99997e-01
9.914783401e-01,1.92455e-01,9.99999e-01,9.99999e-01,8.63140e-01,2.22971e-01,9.99998e-01
9.964357318e-01,2.11982e-01,9.99999e-01,9.99999e-01,9.22946e-01,2.29679e-01,9.99999e-01
1.001417910e+00,2.25346e-01,9.99999e-01,9.99999e-01,9.53033e-01,2.36451e-01,9.99999e-01
1.006425000e+00,2.36692e-01,9.99999e-01,9.99999e-01,9.72908e-01,2.43283e-01,9.99999e-01
1.011457125e+00,2.45949e-01,9.99999e-01,9.99999e-01,9.83121e-01,2.50171e-01,9.99999e-01
1.016514411e+00,2.54156e-01,9.99999e-01,9.99999e-01,9.88501e-01,2.57113e-01,9.99999e-01
1.021596983e+00,2.61603e-01,9.99999e-01,9.99699e-01,9.90824e-01,2.64104e-01,9.99999e-01
1.026704968e+00,2.63744e-01,9.99999e-01,9.79688e-01,9.92835e-01,2.71142e-01,9.99999e-01
1.031838492e+00,2.38950e-01,9.99999e-01,8.63014e-01,9.94793e-01,2.78222e-01,9.99999e-01
1.036997685e+00,6.98490e-03,9.99999e-01,2.45358e-02,9.96901e-01,2.85343e-01,9.99999e-01
1.042182673e+00,6.38071e-05,9.99999e-01,2.18721e-04,9.96299e-01,2.92499e-01,9.99999e-01
1.047393587e+00,1.80448e-04,9.99999e-01,6.04484e-04,9.95099e-01,2.99688e-01,9.99999e-01
1.052630555e+00,1.10247e-10,9.99999e-01,3.60703e-10,9.93277e-01,3.06907e-01,9.99999e-01
1.057893707e+00,4.14684e-10,9.99999e-01,1.32688e-09,9.88795e-01,3.14152e-01,9.99999e-01
1.063183176e+00,1.38475e-07,9.99999e-01,4.35000e-07,9.81646e-01,3.21420e-01,9.99999e-01
1.068499092e+00,3.53726e-06,9.99999e-01,1.09369e-05,9.69491e-01,3.28707e-01,9.99999e-01
1.073841587e+00,1.74330e-04,9.99999e-01,5.30794e-04,9.64428e-01,3.36011e-01,9.99998e-01
1.079210795e+00,3.09137e-03,9.99999e-01,9.30560e-03,9.54658e-01,3.43328e-01,9.99998e-01
1.084606849e+00,2.18720e-02,9.99999e-01,6.60528e-02,9.32232e-01,3.50655e-01,9.99997e-01
1.090029883e+00,7.81631e-02,9.99999e-01,2.38382e-01,9.04213e-01,3.57989e-01,9.99995e-01
1.095480033e+00,1.38353e-01,9.99999e-01,4.90595e-01,7.60670e-01,3.65327e-01,9.99992e-01
1.100957433e+00,1.35782e-01,9.99999e-01,7.06894e-01,5.06122e-01,3.72666e-01,9.99987e-01
1.106462220e+00,6.62789e-02,9.99999e-01,8.65996e-01,1.97294e-01,3.80003e-01,9.99973e-01
1.111994531e+00,1.38474e-02,9.99999e-01,9.47928e-01,3.72128e-02,3.87336e-01,9.99947e-01
1.117554504e+00,2.54874e-03,9.99999e-01,9.87060e-01,6.49717e-03,3.94661e-01,9.99925e-01
1.123142276e+00,1.38481e-02,9.99999e-01,9.99148e-01,3.44548e-02,4.01975e-01,9.99912e-01
1.128757988e+00,3.52287e-02,9.99999e-01,9.99999e-01,8.60836e-02,4.09277e-01,9.99904e-01
1.134401778e+00,1.69270e-02,9.99999e-01,9.99999e-01,4.06391e-02,4.16563e-01,9.99892e-01
1.140073787e+00,8.89792e-02,9.99999e-01,9.99999e-01,2.09958e-01,4.23832e-01,9.99913e-01
1.145774156e+00,2.34675e-02,9.99999e-01,9.99999e-01,5.44429e-02,4.31079e-01,9.99926e-01
1.151503026e+00,1.70035e-02,9.99999e-01,9.99999e-01,3.87963e-02,4.38304e-01,9.99936e-01
1.157260541e+00,2.21729e-02,9.99999e-01,9.99999e-01,4.97726e-02,4.45504e-01,9.99952e-01
1.163046844e+00,4.81750e-02,9.99999e-01,9.99999e-01,1.06426e-01,4.52676e-01,9.99969e-01
1.168862078e+00,9.04394e-02,9.99999e-01,9.99999e-01,1.96688e-01,4.59818e-01,9.99984e-01
1.174706389e+00,1.69819e-01,9.99999e-01,9.99999e-01,3.63695e-01,4.66929e-01,9.99991e-01
1.180579921e+00,2.54396e-01,9.99999e-01,9.99999e-01,5.36696e-01,4.74006e-01,9.99994e-01
1.186482820e+00,3.36741e-01,9.99999e-01,9.99957e-01,7.00039e-01,4.81048e-01,9.99995e-01
1.192415234e+00,3.71116e-01,9.99999e-01,9.33795e-01,8.11133e-01,4.88052e-01,9.99995e-01
1.198377311e+00,2.02929e-01,9.99999e-01,4.74440e-01,8.38287e-01,4.95016e-01,9.99996e-01
1.204369197e+00,2.12366e-51,9.99999e-01,4.66065e-51,8.47139e-01,5.01940e-01,9.99996e-01
1.210391043e+00,2.73859e-213,9.99999e-01,5.88282e-213,8.52828e-01,5.08820e-01,9.99997e-01
1.216442998e+00,2.45650e-184,9.99999e-01,5.18269e-184,8.73462e-01,5.15656e-01,9.99998e-01
1.222525213e+00,1.56430e-181,9.99999e-01,3.16219e-181,8.99681e-01,5.22447e-01,9.99998e-01
1.228637839e+00,1.13427e-139,9.99999e-01,2.25201e-139,9.29144e-01,5.29190e-01,9.99999e-01
