#,Wave/freq,Total,O2,CO2,H2O,Rayleigh,CIA
4.000000000e-01,2.85162e-14,9.99999e-01,9.99999e-01,9.99938e-01,2.85180e-14,9.99999e-01
4.020000000e-01,5.28342e-14,9.99999e-01,9.99999e-01,9.99961e-01,5.28362e-14,9.99999e-01
4.040100000e-01,9.66451e-14,9.99999e-01,9.99999e-01,9.99983e-01,9.66466e-14,9.99999e-01
4.060300500e-01,1.74687e-13,9.99999e-01,9.99999e-01,9.99995e-01,1.74687e-13,9.99999e-01
4.080602003e-01,3.12074e-13,9.99999e-01,9.99999e-01,9.99998e-01,3.12075e-13,9.99999e-01
4.101005013e-01,5.51160e-13,9.99999e-01,9.99999e-01,9.99999e-01,5.51160e-13,9.99999e-01
4.121510038e-01,9.62536e-13,9.99999e-01,9.99999e-01,9.99997e-01,9.62538e-13,9.99999e-01
4.142117588e-01,1.66252e-12,9.99999e-01,9.99999e-01,9.99982e-01,1.66255e-12,9.99999e-01
4.162828176e-01,2.84061e-12,9.99999e-01,9.99999e-01,9.99924e-01,2.84082e-12,9.99999e-01
4.183642317e-01,4.80284e-12,9.99999e-01,9.99999e-01,9.99954e-01,4.80305e-12,9.99999e-01
4.204560528e-01,8.03662e-12,9.99999e-01,9.99999e-01,9.99972e-01,8.03684e-12,9.99999e-01
4.225583331e-01,1.33117e-11,9.99999e-01,9.99999e-01,9.99989e-01,1.33118e-11,9.99999e-01
4.246711247e-01,2.18302e-11,9.99999e-01,9.99999e-01,9.99991e-01,2.18303e-11,9.99999e-01
4.267944804e-01,3.54516e-11,9.99999e-01,9.99999e-01,9.99987e-01,3.54520e-11,9.99999e-01
4.289284528e-01,5.70239e-11,9.99999e-01,9.99999e-01,9.99990e-01,5.70244e-11,9.99999e-01
4.310730950e-01,9.08662e-11,9.99999e-01,9.99999e-01,9.99995e-01,9.08666e-11,9.99999e-01
4.332284605e-01,1.43466e-10,9.99999e-01,9.99999e-01,9.99998e-01,1.43467e-10,9.99999e-01
4.353946028e-01,2.24481e-10,9.99999e-01,9.99999e-01,9.99999e-01,2.24481e-10,9.99999e-01
4.375715758e-01,3.48148e-10,9.99999e-01,9.99999e-01,9.99991e-01,3.48151e-10,9.99999e-01
4.397594337e-01,5.35256e-10,9.99999e-01,9.99999e-01,9.99932e-01,5.35292e-10,9.99999e-01
4.419582309e-01,8.15784e-10,9.99999e-01,9.99999e-01,9.99656e-01,8.16064e-10,9.99999e-01
4.441680220e-01,1.23346e-09,9.99999e-01,9.99999e-01,9.99738e-01,1.23379e-09,9.99999e-01
4.463888621e-01,1.84966e-09,9.99999e-01,9.99999e-01,9.99725e-01,1.85016e-09,9.99999e-01
4.486208064e-01,2.75189e-09,9.99999e-01,9.99999e-01,9.99830e-01,2.75235e-09,9.99999e-01
4.508639105e-01,4.06216e-09,9.99999e-01,9.99999e-01,9.99920e-01,4.06248e-09,9.99999e-01
4.531182300e-01,5.95011e-09,9.99999e-01,9.99999e-01,9.99968e-01,5.95030e-09,9.99999e-01
4.553838212e-01,8.64973e-09,9.99999e-01,9.99999e-01,9.99978e-01,8.64991e-09,9.99999e-01
4.576607403e-01,1.24816e-08,9.99999e-01,9.99999e-01,9.99989e-01,1.24818e-08,9.99999e-01
4.599490440e-01,1.78810e-08,9.99999e-01,9.99999e-01,9.99992e-01,1.78811e-08,9.99999e-01
4.622487892e-01,2.54348e-08,9.99999e-01,9.99999e-01,9.99998e-01,2.54348e-08,9.99999e-01
4.645600332e-01,3.59284e-08,9.99999e-01,9.99999e-01,9.99994e-01,3.59286e-08,9.99999e-01
4.668828333e-01,5.04026e-08,9.99999e-01,9.99999e-01,9.99918e-01,5.04067e-08,9.99999e-01
4.692172475e-01,7.02357e-08,9.99999e-01,9.99999e-01,9.99827e-01,7.02477e-08,9.99999e-01
4.715633337e-01,9.72479e-08,9.99999e-01,9.99999e-01,9.99887e-01,9.72588e-08,9.99999e-01
4.739211504e-01,1.33779e-07,9.99999e-01,9.99999e-01,9.99892e-01,1.33793e-07,9.99999e-01
4.762907561e-01,1.82886e-07,9.99999e-01,9.99999e-01,9.99944e-01,1.82896e-07,9.99999e-01
4.786722099e-01,2.48475e-07,9.99999e-01,9.99999e-01,9.99976e-01,2.48481e-07,9.99999e-01
4.810655710e-01,3.35544e-07,9.99999e-01,9.99999e-01,9.99992e-01,3.35546e-07,9.99999e-01
4.834708988e-01,4.50407e-07,9.99999e-01,9.99999e-01,9.99931e-01,4.50438e-07,9.99999e-01
4.858882533e-01,6.01089e-07,9.99999e-01,9.99999e-01,9.99878e-01,6.01161e-07,9.99999e-01
4.883176946e-01,7.97677e-07,9.99999e-01,9.99999e-01,9.99897e-01,7.97759e-07,9.99999e-01
4.907592831e-01,1.05265e-06,9.99999e-01,9.99999e-01,9.99907e-01,1.05275e-06,9.99999e-01
4.932130795e-01,1.38156e-06,9.99999e-01,9.99999e-01,9.99934e-01,1.38165e-06,9.99999e-01
4.956791449e-01,1.80354e-06,9.99999e-01,9.99999e-01,9.99965e-01,1.80360e-06,9.99999e-01
4.981575406e-01,2.34164e-06,9.99999e-01,9.99999e-01,9.99825e-01,2.34205e-06,9.99999e-01
5.006483283e-01,3.02422e-06,9.99999e-01,9.99999e-01,9.99546e-01,3.02559e-06,9.99999e-01
5.031515699e-01,3.88007e-06,9.99999e-01,9.99999e-01,9.97726e-01,3.88891e-06,9.99999e-01
5.056673278e-01,4.96790e-06,9.99999e-01,9.99999e-01,9.98804e-01,4.97384e-06,9.99999e-01
5.081956644e-01,6.32107e-06,9.99999e-01,9.99999e-01,9.98492e-01,6.33061e-06,9.99999e-01
5.107366428e-01,8.01102e-06,9.99999e-01,9.99999e-01,9.98982e-01,8.01918e-06,9.99999e-01
5.132903260e-01,1.01049e-05,9.99999e-01,9.99999e-01,9.99419e-01,1.01108e-05,9.99999e-01
5.158567776e-01,1.26867e-05,9.99999e-01,9.99999e-01,9.99755e-01,1.26898e-05,9.99999e-01
5.184360615e-01,1.58537e-05,9.99999e-01,9.99999e-01,9.99901e-01,1.58552e-05,9.99999e-01
5.210282418e-01,1.97226e-05,9.99999e-01,9.99999e-01,9.99962e-01,1.97234e-05,9.99999e-01
5.236333830e-01,2.44260e-05,9.99999e-01,9.99999e-01,9.99851e-01,2.44296e-05,9.99999e-01
5.262515499e-01,3.01285e-05,9.99999e-01,9.99999e-01,9.99907e-01,3.01312e-05,9.99999e-01
5.288828077e-01,3.70067e-05,9.99999e-01,9.99999e-01,9.99914e-01,3.70099e-05,9.99999e-01
5.315272217e-01,4.52712e-05,9.99999e-01,9.99999e-01,9.99925e-01,4.52746e-05,9.99999e-01
5.341848578e-01,5.51621e-05,9.99999e-01,9.99999e-01,9.99950e-01,5.51648e-05,9.99999e-01
5.368557821e-01,6.69421e-05,9.99999e-01,9.99999e-01,9.99826e-01,6.69537e-05,9.99999e-01
5.395400610e-01,8.09006e-05,9.99999e-01,9.99999e-01,9.99368e-01,8.09517e-05,9.99999e-01
5.422377613e-01,9.74318e-05,9.99999e-01,9.99999e-01,9.99199e-01,9.75099e-05,9.99999e-01
5.449489501e-01,1.16936e-04,9.99999e-01,9.99999e-01,9.99248e-01,1.17024e-04,9.99999e-01
5.476736949e-01,1.39846e-04,9.99999e-01,9.99999e-01,9.99341e-01,1.39938e-04,9.99999e-01
5.504120634e-01,1.66669e-04,9.99999e-01,9.99999e-01,9.99521e-01,1.66749e-04,9.99999e-01
5.531641237e-01,1.97962e-04,9.99999e-01,9.99999e-01,9.99759e-01,1.98010e-04,9.99999e-01
5.559299443e-01,2.34308e-04,9.99999e-01,9.99999e-01,9.99883e-01,2.34335e-04,9.99999e-01
5.587095940e-01,2.76382e-04,9.99999e-01,9.99999e-01,9.99926e-01,2.76402e-04,9.99999e-01
5.615031420e-01,3.24933e-04,9.99999e-01,9.99999e-01,9.99918e-01,3.24960e-04,9.99999e-01
5.643106577e-01,3.80793e-04,9.99999e-01,9.99999e-01,9.99905e-01,3.80829e-04,9.99999e-01
5.671322110e-01,4.44396e-04,9.99999e-01,9.99999e-01,9.98852e-01,4.44906e-04,9.99999e-01
5.699678720e-01,5.17560e-04,9.99999e-01,9.99999e-01,9.98819e-01,5.18172e-04,9.99999e-01
5.728177114e-01,6.00938e-04,9.99999e-01,9.99999e-01,9.98753e-01,6.01688e-04,9.99999e-01
5.756818000e-01,6.95810e-04,9.99999e-01,9.99999e-01,9.98859e-01,6.96605e-04,9.99999e-01
5.785602090e-01,8.03368e-04,9.99999e-01,9.99999e-01,9.99008e-01,8.04165e-04,9.99999e-01
5.814530100e-01,9.24780e-04,9.99999e-01,9.99999e-01,9.99000e-01,9.25704e-04,9.99999e-01
5.843602750e-01,1.06138e-03,9.99999e-01,9.99999e-01,9.98798e-01,1.06265e-03,9.99999e-01
5.872820764e-01,1.20402e-03,9.99999e-01,9.99999e-01,9.89706e-01,1.21654e-03,9.99999e-01
5.902184868e-01,1.37187e-03,9.99999e-01,9.99999e-01,9.87661e-01,1.38901e-03,9.99999e-01
5.931695792e-01,1.56792e-03,9.99999e-01,9.99999e-01,9.91243e-01,1.58177e-03,9.99999e-01
5.961354271e-01,1.77946e-03,9.99999e-01,9.99999e-01,9.90425e-01,1.79666e-03,9.99999e-01
5.991161043e-01,2.02141e-03,9.99999e-01,9.99999e-01,9.93017e-01,2.03562e-03,9.99999e-01
6.021116848e-01,2.29157e-03,9.99999e-01,9.99999e-01,9.96038e-01,2.30069e-03,9.99999e-01
6.051222432e-01,2.58878e-03,9.99999e-01,9.99999e-01,9.97994e-01,2.59398e-03,9.99999e-01
6.081478544e-01,2.91522e-03,9.99999e-01,9.99999e-01,9.99133e-01,2.91775e-03,9.99999e-01
6.111885937e-01,3.27311e-03,9.99999e-01,9.99999e-01,9.99634e-01,3.27431e-03,9.99999e-01
6.142445367e-01,3.66548e-03,9.99999e-01,9.99999e-01,9.99836e-01,3.66608e-03,9.99999e-01
6.173157594e-01,4.09521e-03,9.99999e-01,9.99999e-01,9.99909e-01,4.09558e-03,9.99999e-01
6.204023382e-01,4.56504e-03,9.99999e-01,9.99999e-01,9.99922e-01,4.56539e-03,9.99999e-01
6.235043498e-01,5.07644e-03,9.99999e-01,9.99999e-01,9.99654e-01,5.07819e-03,9.99999e-01
6.266218716e-01,5.62664e-03,9.99999e-01,9.99999e-01,9.98210e-01,5.63672e-03,9.99999e-01
6.297549810e-01,6.23971e-03,9.99999e-01,9.99999e-01,9.99343e-01,6.24381e-03,9.99999e-01
6.329037559e-01,6.89340e-03,9.99999e-01,9.99999e-01,9.98707e-01,6.90232e-03,9.99999e-01
6.360682746e-01,7.60675e-03,9.99999e-01,9.99999e-01,9.98893e-01,7.61518e-03,9.99999e-01
6.392486160e-01,8.37338e-03,9.99999e-01,9.99999e-01,9.98569e-01,8.38537e-03,9.99999e-01
6.424448591e-01,9.19809e-03,9.99999e-01,9.99999e-01,9.98067e-01,9.21590e-03,9.99999e-01
6.456570834e-01,1.00194e-02,9.99999e-01,9.99999e-01,9.91058e-01,1.01098e-02,9.99999e-01
6.488853688e-01,1.09986e-02,9.99999e-01,9.99999e-01,9.93533e-01,1.10702e-02,9.99999e-01
6.521297956e-01,1.20203e-02,9.99999e-01,9.99999e-01,9.93412e-01,1.21001e-02,9.99999e-01
6.553904446e-01,1.31154e-02,9.99999e-01,9.99999e-01,9.93400e-01,1.32025e-02,9.99999e-01
6.586673968e-01,1.42998e-02,9.99999e-01,9.99999e-01,9.94375e-01,1.43807e-02,9.99999e-01
6.619607338e-01,1.55884e-02,9.99999e-01,9.99999e-01,9.96862e-01,1.56375e-02,9.99999e-01
6.652705375e-01,1.69441e-02,9.99999e-01,9.99999e-01,9.98116e-01,1.69761e-02,9.99999e-01
6.685968902e-01,1.83846e-02,9.99999e-01,9.99999e-01,9.99199e-01,1.83993e-02,9.99999e-01
6.719398746e-01,1.99022e-02,9.99999e-01,9.99999e-01,9.99594e-01,1.99102e-02,9.99999e-01
6.752995740e-01,2.15070e-02,9.99999e-01,9.99999e-01,9.99785e-01,2.15116e-02,9.99999e-01
6.786760719e-01,2.31989e-02,9.99999e-01,9.99999e-01,9.99678e-01,2.32064e-02,9.99999e-01
6.820694522e-01,2.49834e-02,9.99999e-01,9.99999e-01,9.99447e-01,2.49972e-02,9.99999e-01
6.854797995e-01,2.68677e-02,9.99999e-01,9.99999e-01,9.99294e-01,2.68866e-02,9.99999e-01
6.889071985e-01,2.88272e-02,9.99999e-01,9.99999e-01,9.98264e-01,2.88773e-02,9.99999e-01
6.923517345e-01,3.01152e-02,9.99999e-01,9.99999e-01,9.72345e-01,3.09717e-02,9.99999e-01
6.958134932e-01,3.27039e-02,9.99999e-01,9.99999e-01,9.85887e-01,3.31720e-02,9.99999e-01
6.992925606e-01,3.49924e-02,9.99999e-01,9.99999e-01,9.86241e-01,3.54806e-02,9.99999e-01
7.027890234e-01,3.72625e-02,9.99999e-01,9.99999e-01,9.83196e-01,3.78993e-02,9.99999e-01
7.063029686e-01,3.98576e-02,9.99999e-01,9.99999e-01,9.85833e-01,4.04303e-02,9.99999e-01
7.098344834e-01,4.24896e-02,9.99999e-01,9.99999e-01,9.86402e-01,4.30753e-02,9.99999e-01
7.133836558e-01,4.49960e-02,9.99999e-01,9.99999e-01,9.81676e-01,4.58359e-02,9.99998e-01
7.169505741e-01,4.20824e-02,9.99999e-01,9.99999e-01,8.63875e-01,4.87136e-02,9.99997e-01
7.205353270e-01,4.82002e-02,9.99999e-01,9.99999e-01,9.32131e-01,5.17097e-02,9.99997e-01
7.241380036e-01,5.00511e-02,9.99999e-01,9.99999e-01,9.12917e-01,5.48255e-02,9.99997e-01
7.277586936e-01,5.34860e-02,9.99999e-01,9.99999e-01,9.21191e-01,5.80618e-02,9.99997e-01
7.313974871e-01,5.63099e-02,9.99999e-01,9.99999e-01,9.16807e-01,6.14196e-02,9.99998e-01
7.350544745e-01,6.18820e-02,9.99999e-01,9.99999e-01,9.53506e-01,6.48994e-02,9.99998e-01
7.387297469e-01,6.61426e-02,9.99999e-01,9.99999e-01,9.65560e-01,6.85018e-02,9.99999e-01
7.424233956e-01,7.10018e-02,9.99999e-01,9.99999e-01,9.83036e-01,7.22270e-02,9.99999e-01
7.461355126e-01,7.52891e-02,9.99999e-01,9.99999e-01,9.89666e-01,7.60752e-02,9.99999e-01
7.498661902e-01,7.96615e-02,9.99999e-01,9.99999e-01,9.95192e-01,8.00463e-02,9.99999e-01
7.536155211e-01,8.39408e-02,9.99999e-01,9.99999e-01,9.97630e-01,8.41401e-02,9.99999e-01
7.573835987e-01,8.82485e-02,9.99999e-01,9.99999e-01,9.98780e-01,8.83562e-02,9.99999e-01
7.611705167e-01,9.26237e-02,9.99999e-01,9.99999e-01,9.99241e-01,9.26939e-02,9.99999e-01
7.649763693e-01,9.71064e-02,9.99999e-01,9.99999e-01,9.99523e-01,9.71526e-02,9.99999e-01
7.688012511e-01,1.01698e-01,9.99999e-01,9.99999e-01,9.99667e-01,1.01731e-01,9.99999e-01
7.726452574e-01,1.06400e-01,9.99999e-01,9.99999e-01,9.99726e-01,1.06429e-01,9.99999e-01
7.765084837e-01,1.11201e-01,9.99999e-01,9.99999e-01,9.99607e-01,1.11244e-01,9.99999e-01
7.803910261e-01,1.05779e-01,9.99999e-01,9.11932e-01,9.98303e-01,1.16176e-01,9.99999e-01
7.842929812e-01,7.85628e-02,9.99999e-01,6.51490e-01,9.94089e-01,1.21222e-01,9.99999e-01
7.882144461e-01,7.92234e-02,9.99999e-01,6.33731e-01,9.87978e-01,1.26382e-01,9.99999e-01
7.921555184e-01,9.88951e-02,9.99999e-01,7.55831e-01,9.93433e-01,1.31652e-01,9.99999e-01
7.961162960e-01,1.12266e-01,9.99999e-01,8.28757e-01,9.88264e-01,1.37032e-01,9.99999e-01
8.000968774e-01,1.26958e-01,9.99999e-01,9.02865e-01,9.86540e-01,1.42519e-01,9.99999e-01
8.040973618e-01,1.38613e-01,9.99999e-01,9.48592e-01,9.86516e-01,1.48110e-01,9.99999e-01
8.081178486e-01,1.45571e-01,9.99999e-01,9.75932e-01,9.69689e-01,1.53804e-01,9.99998e-01
8.121584379e-01,1.39492e-01,9.99999e-01,9.92597e-01,8.80355e-01,1.59598e-01,9.99998e-01
8.162192301e-01,1.42331e-01,9.99999e-01,9.98359e-01,8.61403e-01,1.65489e-01,9.99997e-01
8.203003262e-01,1.59127e-01,9.99999e-01,9.99977e-01,9.28004e-01,1.71475e-01,9.99997e-01
8.244018279e-01,1.60534e-01,9.99999e-01,9.99999e-01,9.04151e-01,1.77553e-01,9.99997e-01
8.285238370e-01,1.67897e-01,9.99999e-01,9.99999e-01,9.13877e-01,1.83719e-01,9.99997e-01
8.326664562e-01,1.73539e-01,9.99999e-01,9.99999e-01,9.13498e-01,1.89972e-01,9.99998e-01
8.368297885e-01,1.84002e-01,9.99999e-01,9.99999e-01,9.37314e-01,1.96308e-01,9.99998e-01
8.410139374e-01,1.95072e-01,9.99999e-01,9.99999e-01,9.62255e-01,2.02723e-01,9.99999e-01
8.452190071e-01,2.05309e-01,9.99999e-01,9.99999e-01,9.81329e-01,2.09215e-01,9.99999e-01
8.494451021e-01,2.13424e-01,9.99999e-01,9.99999e-01,9.89075e-01,2.15781e-01,9.99999e-01
8.536923276e-01,2.20983e-01,9.99999e-01,9.99999e-01,9.93551e-01,2.22417e-01,9.99999e-01
8.579607893e-01,2.28206e-01,9.99999e-01,9.99999e-01,9.96010e-01,2.29120e-01,9.99999e-01
8.622505932e-01,2.35290e-01,9.99999e-01,9.99999e-01,9.97471e-01,2.35887e-01,9.99999e-01
8.665618462e-01,2.09759e-01,9.99999e-01,8.65491e-01,9.98428e-01,2.42714e-01,9.99999e-01
8.708946554e-01,8.61870e-02,9.99999e-01,3.45876e-01,9.98195e-01,2.49598e-01,9.99999e-01
8.752491287e-01,1.06227e-01,9.99999e-01,4.15017e-01,9.97589e-01,2.56535e-01,9.99999e-01
8.796253743e-01,1.60339e-01,9.99999e-01,6.10332e-01,9.96650e-01,2.63522e-01,9.99999e-01
8.840235012e-01,2.07741e-01,9.99999e-01,7.70647e-01,9.96179e-01,2.70556e-01,9.99999e-01
8.884436187e-01,2.47052e-01,9.99999e-01,9.02239e-01,9.85870e-01,2.77633e-01,9.99998e-01
8.928858368e-01,2.36113e-01,9.99999e-01,9.59009e-01,8.63695e-01,2.84751e-01,9.99997e-01
8.973502660e-01,2.23982e-01,9.99999e-01,9.89947e-01,7.74651e-01,2.91904e-01,9.99996e-01
9.018370173e-01,2.62614e-01,9.99999e-01,9.98891e-01,8.78934e-01,2.99091e-01,9.99995e-01
9.063462024e-01,2.65554e-01,9.99999e-01,9.71237e-01,8.90310e-01,3.06307e-01,9.99995e-01
9.108779334e-01,2.45706e-01,9.99999e-01,9.36011e-01,8.35306e-01,3.13550e-01,9.99994e-01
9.154323231e-01,2.57728e-01,9.99999e-01,9.84786e-01,8.15014e-01,3.20816e-01,9.99994e-01
9.200094847e-01,2.33014e-01,9.99999e-01,8.16095e-01,8.52745e-01,3.28102e-01,9.99992e-01
9.246095321e-01,1.92394e-01,9.99999e-01,7.24494e-01,7.81065e-01,3.35404e-01,9.99988e-01
9.292325798e-01,6.00357e-02,9.99999e-01,7.77877e-01,2.13387e-01,3.42720e-01,9.99974e-01
9.338787427e-01,4.01485e-02,9.99999e-01,7.84346e-01,1.39311e-01,3.50047e-01,9.99967e-01
9.385481364e-01,1.37026e-01,9.99999e-01,8.35320e-01,4.48365e-01,3.57380e-01,9.99967e-01
9.432408771e-01,1.11441e-01,9.99999e-01,8.95469e-01,3.36600e-01,3.64718e-01,9.99963e-01
9.479570815e-01,7.90628e-02,9.99999e-01,9.44755e-01,2.23389e-01,3.72057e-01,9.99968e-01
9.526968669e-01,1.16915e-01,9.99999e-01,9.73063e-01,3.15141e-01,3.79395e-01,9.99975e-01
9.574603512e-01,1.27561e-01,9.99999e-01,9.88394e-01,3.33080e-01,3.86728e-01,9.99981e-01
9.622476530e-01,1.58785e-01,9.99999e-01,9.96370e-01,4.04196e-01,3.94053e-01,9.99987e-01
9.670588912e-01,2.36517e-01,9.99999e-01,9.98913e-01,5.89831e-01,4.01369e-01,9.99992e-01
9.718941857e-01,2.91333e-01,9.99999e-01,9.99925e-01,7.12924e-01,4.08672e-01,9.99995e-01
9.767536566e-01,3.13932e-01,9.99999e-01,9.99999e-01,7.54718e-01,4.15960e-01,9.99996e-01
9.816374249e-01,3.43462e-01,9.99999e-01,9.99999e-01,8.11528e-01,4.23229e-01,9.99997e-01
9.865456120e-01,3.77706e-01,9.99999e-01,9.99999e-01,8.77409e-01,4.30479e-01,9.99998e-01
9.914783401e-01,4.03632e-01,9.99999e-01,9.99999e-01,9.22153e-01,4.37706e-01,9.99999e-01
9.964357318e-01,4.25700e-01,9.99999e-01,9.99999e-01,9.56828e-01,4.44907e-01,9.99999e-01
1.001417910e+00,4.40285e-01,9.99999e-01,9.99999e-01,9.73904e-01,4.52082e-01,9.99999e-01
1.006425000e+00,4.52338e-01,9.99999e-01,9.99999e-01,9.84997e-01,4.59227e-01,9.99999e-01
1.011457125e+00,4.62000e-01,9.99999e-01,9.99999e-01,9.90691e-01,4.66341e-01,9.99999e-01
1.016514411e+00,4.70420e-01,9.99999e-01,9.99999e-01,9.93660e-01,4.73421e-01,9.99999e-01
1.021596983e+00,4.77949e-01,9.99999e-01,9.99818e-01,9.94941e-01,4.80465e-01,9.99999e-01
1.026704968e+00,4.79966e-01,9.99999e-01,9.88490e-01,9.96050e-01,4.87472e-01,9.99999e-01
1.031838492e+00,4.44947e-01,9.99999e-01,9.02337e-01,9.97135e-01,4.94440e-01,9.99999e-01
1.036997685e+00,2.59674e-02,9.99999e-01,5.18601e-02,9.98293e-01,5.01367e-01,9.99999e-01
1.042182673e+00,2.11684e-03,9.99999e-01,4.17151e-03,9.97956e-01,5.08251e-01,9.99999e-01
1.047393587e+00,5.20174e-03,9.99999e-01,1.01214e-02,9.97296e-01,5.15091e-01,9.99999e-01
1.052630555e+00,8.24331e-07,9.99999e-01,1.58324e-06,9.96286e-01,5.21885e-01,9.99999e-01
1.057893707e+00,3.18045e-06,9.99999e-01,6.03606e-06,9.93796e-01,5.28632e-01,9.99999e-01
1.063183176e+00,7.19812e-05,9.99999e-01,1.35262e-04,9.89824e-01,5.35330e-01,9.99999e-01
1.068499092e+00,6.69337e-04,9.99999e-01,1.24923e-03,9.83051e-01,5.41979e-01,9.99999e-01
1.073841587e+00,7.37134e-03,9.99999e-01,1.36341e-02,9.80164e-01,5.48576e-01,9.99999e-01
1.079210795e+00,3.66568e-02,9.99999e-01,6.73859e-02,9.74735e-01,5.55121e-01,9.99998e-01
1.084606849e+00,1.17914e-01,9.99999e-01,2.17282e-01,9.61950e-01,5.61612e-01,9.99998e-01
1.090029883e+00,2.42303e-01,9.99999e-01,4.49205e-01,9.45483e-01,5.68049e-01,9.99997e-01
1.095480033e+00,3.33843e-01,9.99999e-01,6.73542e-01,8.58807e-01,5.74430e-01,9.99995e-01
1.100957433e+00,3.28850e-01,9.99999e-01,8.25742e-01,6.81768e-01,5.80755e-01,9.99992e-01
1.106462220e+00,2.12832e-01,9.99999e-01,9.23892e-01,3.89554e-01,5.87022e-01,9.99985e-01
1.111994531e+00,8.43313e-02,9.99999e-01,9.71048e-01,1.45659e-01,5.93232e-01,9.99970e-01
1.117554504e+00,2.90816e-02,9.99999e-01,9.92898e-01,4.87315e-02,5.99382e-01,9.99958e-01
1.123142276e+00,7.62657e-02,9.99999e-01,9.99536e-01,1.25975e-01,6.05473e-01,9.99951e-01
1.128757988e+00,1.45364e-01,9.99999e-01,9.99999e-01,2.37728e-01,6.11503e-01,9.99947e-01
1.134401778e+00,6.70925e-02,9.99999e-01,9.99999e-01,1.08663e-01,6.17473e-01,9.99940e-01
1.140073787e+00,2.54821e-01,9.99999e-01,9.99999e-01,4.08791e-01,6.23381e-01,9.99952e-01
1.145774156e+00,1.08958e-01,9.99999e-01,9.99999e-01,1.73168e-01,6.29228e-01,9.99959e-01
1.151503026e+00,9.13640e-02,9.99999e-01,9.99999e-01,1.43882e-01,6.35012e-01,9.99965e-01
1.157260541e+00,1.14389e-01,9.99999e-01,9.99999e-01,1.78533e-01,6.40733e-01,9.99973e-01
1.163046844e+00,1.79347e-01,9.99999e-01,9.99999e-01,2.77463e-01,6.46392e-01,9.99982e-01
1.168862078e+00,2.61411e-01,9.99999e-01,9.99999e-01,4.00948e-01,6.51987e-01,9.99991e-01
1.174706389e+00,3.73376e-01,9.99999e-01,9.99999e-01,5.67858e-01,6.57519e-01,9.99995e-01
1.180579921e+00,4.68984e-01,9.99999e-01,9.99999e-01,7.07382e-01,6.62987e-01,9.99996e-01
1.186482820e+00,5.48837e-01,9.99999e-01,9.99971e-01,8.21150e-01,6.68391e-01,9.99997e-01
1.192415234e+00,5.77376e-01,9.99999e-01,9.60554e-01,8.91009e-01,6.73731e-01,9.99997e-01
1.198377311e+00,3.23662e-01,9.99999e-01,5.16875e-01,9.07179e-01,6.79008e-01,9.99997e-01
1.204369197e+00,2.55658e-29,9.99999e-01,3.94096e-29,9.12247e-01,6.84220e-01,9.99998e-01
1.210391043e+00,1.80125e-118,9.99999e-01,2.74406e-118,9.15807e-01,6.89368e-01,9.99998e-01
1.216442998e+00,1.58042e-102,9.99999e-01,2.38390e-102,9.28088e-01,6.94451e-01,9.99998e-01
1.222525213e+00,5.54393e-101,9.99999e-01,8.16781e-101,9.43422e-01,6.99471e-01,9.99999e-01
1.228637839e+00,6.53019e-78,9.99999e-01,9.52661e-78,9.60322e-01,7.04427e-01,9.99999e-01
