#,Wave/freq,Total,O2,CO2,H2O,Rayleigh,CIA
4.000000000e-01,5.12920e-08,9.99999e-01,9.99999e-01,9.99966e-01,5.12936e-08,9.99999e-01
4.020000000e-01,7.14815e-08,9.99999e-01,9.99999e-01,9.99979e-01,7.14830e-08,9.99999e-01
4.040100000e-01,9.89341e-08,9.99999e-01,9.99999e-01,9.99990e-01,9.89350e-08,9.99999e-01
4.060300500e-01,1.36053e-07,9.99999e-01,9.99999e-01,9.99997e-01,1.36053e-07,9.99999e-01
4.080602003e-01,1.85924e-07,9.99999e-01,9.99999e-01,9.99998e-01,1.85924e-07,9.99999e-01
4.101005013e-01,2.52512e-07,9.99999e-01,9.99999e-01,9.99999e-01,2.52512e-07,9.99999e-01
4.121510038e-01,3.40881e-07,9.99999e-01,9.99999e-01,9.99998e-01,3.40882e-07,9.99999e-01
4.142117588e-01,4.57453e-07,9.99999e-01,9.99999e-01,9.99990e-01,4.57458e-07,9.99999e-01
4.162828176e-01,6.10319e-07,9.99999e-01,9.99999e-01,9.99958e-01,6.10344e-07,9.99999e-01
4.183642317e-01,8.09682e-07,9.99999e-01,9.99999e-01,9.99975e-01,8.09702e-07,9.99999e-01
4.204560528e-01,1.06818e-06,9.99999e-01,9.99999e-01,9.99984e-01,1.06820e-06,9.99999e-01
4.225583331e-01,1.40151e-06,9.99999e-01,9.99999e-01,9.99994e-01,1.40152e-06,9.99999e-01
4.246711247e-01,1.82901e-06,9.99999e-01,9.99999e-01,9.99995e-01,1.82902e-06,9.99999e-01
4.267944804e-01,2.37439e-06,9.99999e-01,9.99999e-01,9.99993e-01,2.37440e-06,9.99999e-01
4.289284528e-01,3.06654e-06,9.99999e-01,9.99999e-01,9.99994e-01,3.06656e-06,9.99999e-01
4.310730950e-01,3.94051e-06,9.99999e-01,9.99999e-01,9.99997e-01,3.94052e-06,9.99999e-01
4.332284605e-01,5.03853e-06,9.99999e-01,9.99999e-01,9.99998e-01,5.03854e-06,9.99999e-01
4.353946028e-01,6.41131e-06,9.99999e-01,9.99999e-01,9.99999e-01,6.41131e-06,9.99999e-01
4.375715758e-01,8.11934e-06,9.99999e-01,9.99999e-01,9.99995e-01,8.11938e-06,9.99999e-01
4.397594337e-01,1.02343e-05,9.99999e-01,9.99999e-01,9.99963e-01,1.02346e-05,9.99999e-01
4.419582309e-01,1.28397e-05,9.99999e-01,9.99999e-01,9.99815e-01,1.28421e-05,9.99999e-01
4.441680220e-01,1.60395e-05,9.99999e-01,9.99999e-01,9.99858e-01,1.60418e-05,9.99999e-01
4.463888621e-01,1.99479e-05,9.99999e-01,9.99999e-01,9.99852e-01,1.99508e-05,9.99999e-01
4.486208064e-01,2.47035e-05,9.99999e-01,9.99999e-01,9.99908e-01,2.47057e-05,9.99999e-01
4.508639105e-01,3.04637e-05,9.99999e-01,9.99999e-01,9.99956e-01,3.04650e-05,9.99999e-01
4.531182300e-01,3.74111e-05,9.99999e-01,9.99999e-01,9.99982e-01,3.74117e-05,9.99999e-01
4.553838212e-01,4.57558e-05,9.99999e-01,9.99999e-01,9.99988e-01,4.57564e-05,9.99999e-01
4.576607403e-01,5.57399e-05,9.99999e-01,9.99999e-01,9.99994e-01,5.57402e-05,9.99999e-01
4.599490440e-01,6.76380e-05,9.99999e-01,9.99999e-01,9.99995e-01,6.76382e-05,9.99999e-01
4.622487892e-01,8.17628e-05,9.99999e-01,9.99999e-01,9.99998e-01,8.17629e-05,9.99999e-01
4.645600332e-01,9.84673e-05,9.99999e-01,9.99999e-01,9.99996e-01,9.84676e-05,9.99999e-01
4.668828333e-01,1.18145e-04,9.99999e-01,9.99999e-01,9.99955e-01,1.18151e-04,9.99999e-01
4.692172475e-01,1.41246e-04,9.99999e-01,9.99999e-01,9.99907e-01,1.41259e-04,9.99999e-01
4.715633337e-01,1.68281e-04,9.99999e-01,9.99999e-01,9.99939e-01,1.68291e-04,9.99999e-01
4.739211504e-01,1.99793e-04,9.99999e-01,9.99999e-01,9.99941e-01,1.99805e-04,9.99999e-01
4.762907561e-01,2.36410e-04,9.99999e-01,9.99999e-01,9.99969e-01,2.36417e-04,9.99999e-01
4.786722099e-01,2.78806e-04,9.99999e-01,9.99999e-01,9.99987e-01,2.78809e-04,9.99999e-01
4.810655710e-01,3.27733e-04,9.99999e-01,9.99999e-01,9.99995e-01,3.27734e-04,9.99999e-01
4.834708988e-01,3.84001e-04,9.99999e-01,9.99999e-01,9.99963e-01,3.84015e-04,9.99999e-01
4.858882533e-01,4.48526e-04,9.99999e-01,9.99999e-01,9.99934e-01,4.48555e-04,9.99999e-01
4.883176946e-01,5.22308e-04,9.99999e-01,9.99999e-01,9.99944e-01,5.22337e-04,9.99999e-01
4.907592831e-01,6.06398e-04,9.99999e-01,9.99999e-01,9.99950e-01,6.06428e-04,9.99999e-01
4.932130795e-01,7.01960e-04,9.99999e-01,9.99999e-01,9.99964e-01,7.01984e-04,9.99999e-01
4.956791449e-01,8.10237e-04,9.99999e-01,9.99999e-01,9.99980e-01,8.10252e-04,9.99999e-01
4.981575406e-01,9.32486e-04,9.99999e-01,9.99999e-01,9.99906e-01,9.32573e-04,9.99999e-01
5.006483283e-01,1.07012e-03,9.99999e-01,9.99999e-01,9.99756e-01,1.07038e-03,9.99999e-01
5.031515699e-01,1.22372e-03,9.99999e-01,9.99999e-01,9.98775e-01,1.22522e-03,9.99999e-01
5.056673278e-01,1.39781e-03,9.99999e-01,9.99999e-01,9.99355e-01,1.39871e-03,9.99999e-01
5.081956644e-01,1.59131e-03,9.99999e-01,9.99999e-01,9.99187e-01,1.59260e-03,9.99999e-01
5.107366428e-01,1.80773e-03,9.99999e-01,9.99999e-01,9.99451e-01,1.80872e-03,9.99999e-01
5.132903260e-01,2.04838e-03,9.99999e-01,9.99999e-01,9.99687e-01,2.04902e-03,9.99999e-01
5.158567776e-01,2.31522e-03,9.99999e-01,9.99999e-01,9.99867e-01,2.31552e-03,9.99999e-01
5.184360615e-01,2.61024e-03,9.99999e-01,9.99999e-01,9.99946e-01,2.61038e-03,9.99999e-01
5.210282418e-01,2.93577e-03,9.99999e-01,9.99999e-01,9.99979e-01,2.93583e-03,9.99999e-01
5.236333830e-01,3.29393e-03,9.99999e-01,9.99999e-01,9.99919e-01,3.29419e-03,9.99999e-01
5.262515499e-01,3.68772e-03,9.99999e-01,9.99999e-01,9.99949e-01,3.68791e-03,9.99999e-01
5.288828077e-01,4.11929e-03,9.99999e-01,9.99999e-01,9.99953e-01,4.11948e-03,9.99999e-01
5.315272217e-01,4.59132e-03,9.99999e-01,9.99999e-01,9.99959e-01,4.59150e-03,9.99999e-01
5.341848578e-01,5.10652e-03,9.99999e-01,9.99999e-01,9.99973e-01,5.10666e-03,9.99999e-01
5.368557821e-01,5.66717e-03,9.99999e-01,9.99999e-01,9.99906e-01,5.66770e-03,9.99999e-01
5.395400610e-01,6.27532e-03,9.99999e-01,9.99999e-01,9.99660e-01,6.27744e-03,9.99999e-01
5.422377613e-01,6.93577e-03,9.99999e-01,9.99999e-01,9.99568e-01,6.93876e-03,9.99999e-01
5.449489501e-01,7.65150e-03,9.99999e-01,9.99999e-01,9.99595e-01,7.65459e-03,9.99999e-01
5.476736949e-01,8.42492e-03,9.99999e-01,9.99999e-01,9.99644e-01,8.42791e-03,9.99999e-01
5.504120634e-01,9.25934e-03,9.99999e-01,9.99999e-01,9.99742e-01,9.26172e-03,9.99999e-01
5.531641237e-01,1.01578e-02,9.99999e-01,9.99999e-01,9.99870e-01,1.01591e-02,9.99999e-01
5.559299443e-01,1.11224e-02,9.99999e-01,9.99999e-01,9.99937e-01,1.11231e-02,9.99999e-01
5.587095940e-01,1.21562e-02,9.99999e-01,9.99999e-01,9.99960e-01,1.21567e-02,9.99999e-01
5.615031420e-01,1.32625e-02,9.99999e-01,9.99999e-01,9.99955e-01,1.32631e-02,9.99999e-01
5.643106577e-01,1.44446e-02,9.99999e-01,9.99999e-01,9.99949e-01,1.44454e-02,9.99999e-01
5.671322110e-01,1.56968e-02,9.99999e-01,9.99999e-01,9.99384e-01,1.57065e-02,9.99999e-01
5.699678720e-01,1.70386e-02,9.99999e-01,9.99999e-01,9.99362e-01,1.70494e-02,9.99999e-01
5.728177114e-01,1.84649e-02,9.99999e-01,9.99999e-01,9.99329e-01,1.84773e-02,9.99999e-01
5.756818000e-01,1.99807e-02,9.99999e-01,9.99999e-01,9.99385e-01,1.99929e-02,9.99999e-01
5.785602090e-01,2.15877e-02,9.99999e-01,9.99999e-01,9.99465e-01,2.15992e-02,9.99999e-01
5.814530100e-01,2.32865e-02,9.99999e-01,9.99999e-01,9.99461e-01,2.32990e-02,9.99999e-01
5.843602750e-01,2.50787e-02,9.99999e-01,9.99999e-01,9.99353e-01,2.50949e-02,9.99999e-01
5.872820764e-01,2.68399e-02,9.99999e-01,9.99999e-01,9.94448e-01,2.69897e-02,9.99999e-01
5.902184868e-01,2.87927e-02,9.99999e-01,9.99999e-01,9.93335e-01,2.89859e-02,9.99999e-01
5.931695792e-01,3.09389e-02,9.99999e-01,9.99999e-01,9.95274e-01,3.10858e-02,9.99999e-01
5.961354271e-01,3.31198e-02,9.99999e-01,9.99999e-01,9.94831e-01,3.32918e-02,9.99999e-01
5.991161043e-01,3.54720e-02,9.99999e-01,9.99999e-01,9.96232e-01,3.56061e-02,9.99999e-01
6.021116848e-01,3.79496e-02,9.99999e-01,9.99999e-01,9.97863e-01,3.80308e-02,9.99999e-01
6.051222432e-01,4.05240e-02,9.99999e-01,9.99999e-01,9.98918e-01,4.05678e-02,9.99999e-01
6.081478544e-01,4.31987e-02,9.99999e-01,9.99999e-01,9.99532e-01,4.32189e-02,9.99999e-01
6.111885937e-01,4.59766e-02,9.99999e-01,9.99999e-01,9.99802e-01,4.59857e-02,9.99999e-01
6.142445367e-01,4.88653e-02,9.99999e-01,9.99999e-01,9.99911e-01,4.88696e-02,9.99999e-01
6.173157594e-01,5.18695e-02,9.99999e-01,9.99999e-01,9.99950e-01,5.18721e-02,9.99999e-01
6.204023382e-01,5.49919e-02,9.99999e-01,9.99999e-01,9.99958e-01,5.49942e-02,9.99999e-01
6.235043498e-01,5.82262e-02,9.99999e-01,9.99999e-01,9.99814e-01,5.82370e-02,9.99999e-01
6.266218716e-01,6.15419e-02,9.99999e-01,9.99999e-01,9.99036e-01,6.16012e-02,9.99999e-01
6.297549810e-01,6.50645e-02,9.99999e-01,9.99999e-01,9.99646e-01,6.50875e-02,9.99999e-01
6.329037559e-01,6.86486e-02,9.99999e-01,9.99999e-01,9.99303e-01,6.86964e-02,9.99999e-01
6.360682746e-01,7.23850e-02,9.99999e-01,9.99999e-01,9.99404e-01,7.24282e-02,9.99999e-01
6.392486160e-01,7.62241e-02,9.99999e-01,9.99999e-01,9.99229e-01,7.62829e-02,9.99999e-01
6.424448591e-01,8.01771e-02,9.99999e-01,9.99999e-01,9.98960e-01,8.02605e-02,9.99999e-01
6.456570834e-01,8.39545e-02,9.99999e-01,9.99999e-01,9.95182e-01,8.43608e-02,9.99999e-01
6.488853688e-01,8.82742e-02,9.99999e-01,9.99999e-01,9.96510e-01,8.85833e-02,9.99999e-01
6.521297956e-01,9.25971e-02,9.99999e-01,9.99999e-01,9.96443e-01,9.29275e-02,9.99999e-01
6.553904446e-01,9.70462e-02,9.99999e-01,9.99999e-01,9.96442e-01,9.73926e-02,9.99999e-01
6.586673968e-01,1.01668e-01,9.99999e-01,9.99999e-01,9.96966e-01,1.01978e-01,9.99999e-01
6.619607338e-01,1.06501e-01,9.99999e-01,9.99999e-01,9.98308e-01,1.06682e-01,9.99999e-01
6.652705375e-01,1.11390e-01,9.99999e-01,9.99999e-01,9.98984e-01,1.11503e-01,9.99999e-01
6.685968902e-01,1.16391e-01,9.99999e-01,9.99999e-01,9.99568e-01,1.16441e-01,9.99999e-01
6.719398746e-01,1.21467e-01,9.99999e-01,9.99999e-01,9.99781e-01,1.21493e-01,9.99999e-01
6.752995740e-01,1.26644e-01,9.99999e-01,9.99999e-01,9.99884e-01,1.26659e-01,9.99999e-01
6.786760719e-01,1.31912e-01,9.99999e-01,9.99999e-01,9.99826e-01,1.31935e-01,9.99999e-01
6.820694522e-01,1.37280e-01,9.99999e-01,9.99999e-01,9.99702e-01,1.37320e-01,9.99999e-01
6.854797995e-01,1.42759e-01,9.99999e-01,9.99999e-01,9.99620e-01,1.42813e-01,9.99999e-01
6.889071985e-01,1.48271e-01,9.99999e-01,9.99999e-01,9.99067e-01,1.48410e-01,9.99999e-01
6.923517345e-01,1.51800e-01,9.99999e-01,9.99999e-01,9.85016e-01,1.54109e-01,9.99999e-01
6.958134932e-01,1.58684e-01,9.99999e-01,9.99999e-01,9.92344e-01,1.59908e-01,9.99999e-01
6.992925606e-01,1.64573e-01,9.99999e-01,9.99999e-01,9.92574e-01,1.65804e-01,9.99999e-01
7.027890234e-01,1.70234e-01,9.99999e-01,9.99999e-01,9.90910e-01,1.71795e-01,9.99999e-01
7.063029686e-01,1.76516e-01,9.99999e-01,9.99999e-01,9.92346e-01,1.77878e-01,9.99999e-01
7.098344834e-01,1.82697e-01,9.99999e-01,9.99999e-01,9.92655e-01,1.84049e-01,9.99999e-01
7.133836558e-01,1.88423e-01,9.99999e-01,9.99999e-01,9.90103e-01,1.90306e-01,9.99999e-01
7.169505741e-01,1.81634e-01,9.99999e-01,9.99999e-01,9.23658e-01,1.96646e-01,9.99998e-01
7.205353270e-01,1.95461e-01,9.99999e-01,9.99999e-01,9.62551e-01,2.03066e-01,9.99998e-01
7.241380036e-01,1.99485e-01,9.99999e-01,9.99999e-01,9.51914e-01,2.09562e-01,9.99998e-01
7.277586936e-01,2.06741e-01,9.99999e-01,9.99999e-01,9.56552e-01,2.16132e-01,9.99998e-01
7.313974871e-01,2.12551e-01,9.99999e-01,9.99999e-01,9.54124e-01,2.22771e-01,9.99998e-01
7.350544745e-01,2.23656e-01,9.99999e-01,9.99999e-01,9.74629e-01,2.29478e-01,9.99999e-01
7.387297469e-01,2.31825e-01,9.99999e-01,9.99999e-01,9.81279e-01,2.36248e-01,9.99999e-01
7.424233956e-01,2.40846e-01,9.99999e-01,9.99999e-01,9.90818e-01,2.43078e-01,9.99999e-01
7.461355126e-01,2.48569e-01,9.99999e-01,9.99999e-01,9.94418e-01,2.49964e-01,9.99999e-01
7.498661902e-01,2.56238e-01,9.99999e-01,9.99999e-01,9.97405e-01,2.56904e-01,9.99999e-01
7.536155211e-01,2.63557e-01,9.99999e-01,9.99999e-01,9.98722e-01,2.63894e-01,9.99999e-01
7.573835987e-01,2.70753e-01,9.99999e-01,9.99999e-01,9.99342e-01,2.70931e-01,9.99999e-01
7.611705167e-01,2.77897e-01,9.99999e-01,9.99999e-01,9.99591e-01,2.78010e-01,9.99999e-01
7.649763693e-01,2.85056e-01,9.99999e-01,9.99999e-01,9.99743e-01,2.85129e-01,9.99999e-01
7.688012511e-01,2.92233e-01,9.99999e-01,9.99999e-01,9.99820e-01,2.92285e-01,9.99999e-01
7.726452574e-01,2.99429e-01,9.99999e-01,9.99999e-01,9.99852e-01,2.99473e-01,9.99999e-01
7.765084837e-01,3.06626e-01,9.99999e-01,9.99999e-01,9.99788e-01,3.06691e-01,9.99999e-01
7.803910261e-01,2.96934e-01,9.99999e-01,9.46666e-01,9.99087e-01,3.13935e-01,9.99999e-01
7.842929812e-01,2.52145e-01,9.99999e-01,7.87329e-01,9.96818e-01,3.21202e-01,9.99999e-01
7.882144461e-01,2.52571e-01,9.99999e-01,7.73605e-01,9.93509e-01,3.28489e-01,9.99999e-01
7.921555184e-01,2.87351e-01,9.99999e-01,8.58672e-01,9.96454e-01,3.35792e-01,9.99999e-01
7.961162960e-01,3.08035e-01,9.99999e-01,9.03415e-01,9.93669e-01,3.43109e-01,9.99999e-01
8.000968774e-01,3.29220e-01,9.99999e-01,9.46305e-01,9.92732e-01,3.50436e-01,9.99999e-01
8.040973618e-01,3.45198e-01,9.99999e-01,9.71914e-01,9.92720e-01,3.57770e-01,9.99999e-01
8.081178486e-01,3.54435e-01,9.99999e-01,9.86954e-01,9.83563e-01,3.65108e-01,9.99999e-01
8.121584379e-01,3.46272e-01,9.99999e-01,9.95994e-01,9.33402e-01,3.72447e-01,9.99998e-01
8.162192301e-01,3.49941e-01,9.99999e-01,9.99113e-01,9.22215e-01,3.79784e-01,9.99998e-01
8.203003262e-01,3.71611e-01,9.99999e-01,9.99987e-01,9.59954e-01,3.87117e-01,9.99998e-01
8.244018279e-01,3.73100e-01,9.99999e-01,9.99999e-01,9.45894e-01,3.94442e-01,9.99998e-01
8.285238370e-01,3.82675e-01,9.99999e-01,9.99999e-01,9.52504e-01,4.01757e-01,9.99998e-01
8.326664562e-01,3.89508e-01,9.99999e-01,9.99999e-01,9.52205e-01,4.09059e-01,9.99998e-01
8.368297885e-01,4.02049e-01,9.99999e-01,9.99999e-01,9.65659e-01,4.16346e-01,9.99999e-01
8.410139374e-01,4.14915e-01,9.99999e-01,9.99999e-01,9.79462e-01,4.23615e-01,9.99999e-01
8.452190071e-01,4.26507e-01,9.99999e-01,9.99999e-01,9.89890e-01,4.30863e-01,9.99999e-01
8.494451021e-01,4.35505e-01,9.99999e-01,9.99999e-01,9.94102e-01,4.38089e-01,9.99999e-01
8.536923276e-01,4.43740e-01,9.99999e-01,9.99999e-01,9.96520e-01,4.45289e-01,9.99999e-01
8.579607893e-01,4.51489e-01,9.99999e-01,9.99999e-01,9.97849e-01,4.52462e-01,9.99999e-01
8.622505932e-01,4.58979e-01,9.99999e-01,9.99999e-01,9.98636e-01,4.59606e-01,9.99999e-01
8.665618462e-01,4.19416e-01,9.99999e-01,8.99371e-01,9.99153e-01,4.66717e-01,9.99999e-01
8.708946554e-01,2.58939e-01,9.99999e-01,5.47023e-01,9.99028e-01,4.73796e-01,9.99999e-01
8.752491287e-01,2.94315e-01,9.99999e-01,6.12848e-01,9.98701e-01,4.80838e-01,9.99999e-01
8.796253743e-01,3.71309e-01,9.99999e-01,7.62436e-01,9.98197e-01,4.87843e-01,9.99999e-01
8.840235012e-01,4.28672e-01,9.99999e-01,8.68082e-01,9.97942e-01,4.94809e-01,9.99999e-01
8.884436187e-01,4.71029e-01,9.99999e-01,9.45896e-01,9.92382e-01,5.01733e-01,9.99999e-01
8.928858368e-01,4.59407e-01,9.99999e-01,9.77661e-01,9.23595e-01,5.08615e-01,9.99998e-01
8.973502660e-01,4.46123e-01,9.99999e-01,9.94559e-01,8.70079e-01,5.15453e-01,9.99997e-01
9.018370173e-01,4.86437e-01,9.99999e-01,9.99400e-01,9.31968e-01,5.22244e-01,9.99997e-01
9.063462024e-01,4.89221e-01,9.99999e-01,9.84267e-01,9.38870e-01,5.28989e-01,9.99997e-01
9.108779334e-01,4.69026e-01,9.99999e-01,9.64913e-01,9.06776e-01,5.35685e-01,9.99996e-01
9.154323231e-01,4.81460e-01,9.99999e-01,9.91740e-01,8.94906e-01,5.42330e-01,9.99996e-01
9.200094847e-01,4.49882e-01,9.99999e-01,8.87663e-01,9.16971e-01,5.48925e-01,9.99995e-01
9.246095321e-01,4.08656e-01,9.99999e-01,8.39697e-01,8.72009e-01,5.55467e-01,9.99993e-01
9.292325798e-01,2.05479e-01,9.99999e-01,8.71472e-01,4.10979e-01,5.61955e-01,9.99986e-01
9.338787427e-01,1.63553e-01,9.99999e-01,8.76204e-01,3.22182e-01,5.68389e-01,9.99982e-01
9.385481364e-01,3.32475e-01,9.99999e-01,9.07187e-01,6.32401e-01,5.74767e-01,9.99982e-01
9.432408771e-01,2.91885e-01,9.99999e-01,9.42167e-01,5.30594e-01,5.81089e-01,9.99980e-01
9.479570815e-01,2.39930e-01,9.99999e-01,9.69832e-01,4.20184e-01,5.87353e-01,9.99982e-01
9.526968669e-01,3.03843e-01,9.99999e-01,9.85376e-01,5.18560e-01,5.93559e-01,9.99986e-01
9.574603512e-01,3.22167e-01,9.99999e-01,9.93725e-01,5.40260e-01,5.99707e-01,9.99990e-01
9.622476530e-01,3.65766e-01,9.99999e-01,9.98041e-01,6.04859e-01,6.05794e-01,9.99993e-01
9.670588912e-01,4.57008e-01,9.99999e-01,9.99413e-01,7.47369e-01,6.11821e-01,9.99995e-01
9.718941857e-01,5.14079e-01,9.99999e-01,9.99959e-01,8.32161e-01,6.17788e-01,9.99997e-01
9.767536566e-01,5.35403e-01,9.99999e-01,9.99999e-01,8.58441e-01,6.23693e-01,9.99997e-01
9.816374249e-01,5.62283e-01,9.99999e-01,9.99999e-01,8.93170e-01,6.29536e-01,9.99998e-01
9.865456120e-01,5.92000e-01,9.99999e-01,9.99999e-01,9.31818e-01,6.35317e-01,9.99998e-01
9.914783401e-01,6.13629e-01,9.99999e-01,9.99999e-01,9.57246e-01,6.41035e-01,9.99999e-01
9.964357318e-01,6.31489e-01,9.99999e-01,9.99999e-01,9.76493e-01,6.46690e-01,9.99999e-01
1.001417910e+00,6.43054e-01,9.99999e-01,9.99999e-01,9.85851e-01,6.52282e-01,9.99999e-01
1.006425000e+00,6.52479e-01,9.99999e-01,9.99999e-01,9.91893e-01,6.57811e-01,9.99999e-01
1.011457125e+00,6.59942e-01,9.99999e-01,9.99999e-01,9.94974e-01,6.63276e-01,9.99999e-01
1.016514411e+00,6.66390e-01,9.99999e-01,9.99999e-01,9.96580e-01,6.68676e-01,9.99999e-01
1.021596983e+00,6.72112e-01,9.99999e-01,9.99904e-01,9.97272e-01,6.74013e-01,9.99999e-01
1.026704968e+00,6.73634e-01,9.99999e-01,9.93789e-01,9.97871e-01,6.79286e-01,9.99999e-01
1.031838492e+00,6.38883e-01,9.99999e-01,9.34746e-01,9.98455e-01,6.84494e-01,9.99999e-01
1.036997685e+00,6.62765e-02,9.99999e-01,9.61714e-02,9.99080e-01,6.89639e-01,9.99999e-01
1.042182673e+00,2.65817e-02,9.99999e-01,3.82979e-02,9.98899e-01,6.94719e-01,9.99999e-01
1.047393587e+00,4.12881e-02,9.99999e-01,5.90795e-02,9.98544e-01,6.99736e-01,9.99999e-01
1.052630555e+00,1.98062e-04,9.99999e-01,2.81450e-04,9.97999e-01,7.04688e-01,9.99999e-01
1.057893707e+00,6.50133e-04,9.99999e-01,9.18087e-04,9.96657e-01,7.09577e-01,9.99999e-01
1.063183176e+00,3.89998e-03,9.99999e-01,5.47877e-03,9.94510e-01,7.14402e-01,9.99999e-01
1.068499092e+00,1.68590e-02,9.99999e-01,2.36106e-02,9.90837e-01,7.19163e-01,9.99999e-01
1.073841587e+00,6.67858e-02,9.99999e-01,9.30674e-02,9.89265e-01,7.23862e-01,9.99999e-01
1.079210795e+00,1.60163e-01,9.99999e-01,2.22499e-01,9.86307e-01,7.28497e-01,9.99999e-01
1.084606849e+00,3.12136e-01,9.99999e-01,4.34157e-01,9.79309e-01,7.33069e-01,9.99998e-01
1.090029883e+00,4.63826e-01,9.99999e-01,6.47287e-01,9.70239e-01,7.37579e-01,9.99998e-01
1.095480033e+00,5.52468e-01,9.99999e-01,8.07138e-01,9.21144e-01,7.42027e-01,9.99997e-01
1.100957433e+00,5.47575e-01,9.99999e-01,9.01730e-01,8.12152e-01,7.46413e-01,9.99995e-01
1.106462220e+00,4.27301e-01,9.99999e-01,9.58173e-01,5.92608e-01,7.50738e-01,9.99991e-01
1.111994531e+00,2.52039e-01,9.99999e-01,9.84281e-01,3.38583e-01,7.55001e-01,9.99984e-01
1.117554504e+00,1.34339e-01,9.99999e-01,9.96160e-01,1.77451e-01,7.59204e-01,9.99977e-01
1.123142276e+00,2.23742e-01,9.99999e-01,9.99749e-01,2.93137e-01,7.63347e-01,9.99973e-01
1.128757988e+00,3.39880e-01,9.99999e-01,9.99999e-01,4.42893e-01,7.67429e-01,9.99971e-01
1.134401778e+00,1.70851e-01,9.99999e-01,9.99999e-01,2.21474e-01,7.71452e-01,9.99967e-01
1.140073787e+00,4.72086e-01,9.99999e-01,9.99999e-01,6.08831e-01,7.75416e-01,9.99974e-01
1.145774156e+00,2.84474e-01,9.99999e-01,9.99999e-01,3.65035e-01,7.79322e-01,9.99977e-01
1.151503026e+00,2.56620e-01,9.99999e-01,9.99999e-01,3.27674e-01,7.83170e-01,9.99980e-01
1.157260541e+00,3.01871e-01,9.99999e-01,9.99999e-01,3.83597e-01,7.86960e-01,9.99985e-01
1.163046844e+00,3.88742e-01,9.99999e-01,9.99999e-01,4.91652e-01,7.90692e-01,9.99990e-01
1.168862078e+00,4.82570e-01,9.99999e-01,9.99999e-01,6.07491e-01,7.94369e-01,9.99994e-01
1.174706389e+00,5.86493e-01,9.99999e-01,9.99999e-01,7.34965e-01,7.97989e-01,9.99997e-01
1.180579921e+00,6.64332e-01,9.99999e-01,9.99999e-01,8.28805e-01,8.01554e-01,9.99998e-01
1.186482820e+00,7.23793e-01,9.99999e-01,9.99985e-01,8.99062e-01,8.05064e-01,9.99998e-01
1.192415234e+00,7.43437e-01,9.99999e-01,9.78119e-01,9.39701e-01,8.08519e-01,9.99998e-01
1.198377311e+00,4.24299e-01,9.99999e-01,5.45969e-01,9.48855e-01,8.11921e-01,9.99998e-01
1.204369197e+00,8.06253e-17,9.99999e-01,1.01771e-16,9.51617e-01,8.15269e-01,9.99998e-01
1.210391043e+00,8.34929e-65,9.99999e-01,1.04724e-64,9.53670e-01,8.18565e-01,9.99998e-01
1.216442998e+00,3.18059e-56,9.99999e-01,3.96813e-56,9.60532e-01,8.21808e-01,9.99999e-01
1.222525213e+00,2.15975e-55,9.99999e-01,2.66059e-55,9.69100e-01,8.25000e-01,9.99999e-01
1.228637839e+00,7.10088e-43,9.99999e-01,8.70284e-43,9.78427e-01,8.28141e-01,9.99999e-01
