#,Wave/freq,Total,O2,CO2,H2O,Rayleigh,CIA
4.000000000e-01,2.85145e-05,9.99999e-01,9.99999e-01,9.99979e-01,2.85151e-05,9.99999e-01
4.020000000e-01,3.50700e-05,9.99999e-01,9.99999e-01,9.99986e-01,3.50705e-05,9.99999e-01
4.040100000e-01,4.29475e-05,9.99999e-01,9.99999e-01,9.99994e-01,4.29477e-05,9.99999e-01
4.060300500e-01,5.23841e-05,9.99999e-01,9.99999e-01,9.99998e-01,5.23842e-05,9.99999e-01
4.080602003e-01,6.36438e-05,9.99999e-01,9.99999e-01,9.99999e-01,6.36439e-05,9.99999e-01
4.101005013e-01,7.70269e-05,9.99999e-01,9.99999e-01,9.99999e-01,7.70269e-05,9.99999e-01
4.121510038e-01,9.28734e-05,9.99999e-01,9.99999e-01,9.99998e-01,9.28735e-05,9.99999e-01
4.142117588e-01,1.11566e-04,9.99999e-01,9.99999e-01,9.99993e-01,1.11567e-04,9.99999e-01
4.162828176e-01,1.33535e-04,9.99999e-01,9.99999e-01,9.99974e-01,1.33539e-04,9.99999e-01
4.183642317e-01,1.59268e-04,9.99999e-01,9.99999e-01,9.99984e-01,1.59271e-04,9.99999e-01
4.204560528e-01,1.89299e-04,9.99999e-01,9.99999e-01,9.99990e-01,1.89301e-04,9.99999e-01
4.225583331e-01,2.24226e-04,9.99999e-01,9.99999e-01,9.99996e-01,2.24227e-04,9.99999e-01
4.246711247e-01,2.64710e-04,9.99999e-01,9.99999e-01,9.99996e-01,2.64711e-04,9.99999e-01
4.267944804e-01,3.11479e-04,9.99999e-01,9.99999e-01,9.99995e-01,3.11480e-04,9.99999e-01
4.289284528e-01,3.65336e-04,9.99999e-01,9.99999e-01,9.99996e-01,3.65337e-04,9.99999e-01
4.310730950e-01,4.27158e-04,9.99999e-01,9.99999e-01,9.99998e-01,4.27159e-04,9.99999e-01
4.332284605e-01,4.97901e-04,9.99999e-01,9.99999e-01,9.99999e-01,4.97901e-04,9.99999e-01
4.353946028e-01,5.78606e-04,9.99999e-01,9.99999e-01,9.99999e-01,5.78606e-04,9.99999e-01
4.375715758e-01,6.70398e-04,9.99999e-01,9.99999e-01,9.99997e-01,6.70400e-04,9.99999e-01
4.397594337e-01,7.74483e-04,9.99999e-01,9.99999e-01,9.99977e-01,7.74500e-04,9.99999e-01
4.419582309e-01,8.92118e-04,9.99999e-01,9.99999e-01,9.99886e-01,8.92218e-04,9.99999e-01
4.441680220e-01,1.02487e-03,9.99999e-01,9.99999e-01,9.99911e-01,1.02496e-03,9.99999e-01
4.463888621e-01,1.17412e-03,9.99999e-01,9.99999e-01,9.99907e-01,1.17423e-03,9.99999e-01
4.486208064e-01,1.34155e-03,9.99999e-01,9.99999e-01,9.99942e-01,1.34163e-03,9.99999e-01
4.508639105e-01,1.52882e-03,9.99999e-01,9.99999e-01,9.99972e-01,1.52886e-03,9.99999e-01
4.531182300e-01,1.73772e-03,9.99999e-01,9.99999e-01,9.99988e-01,1.73774e-03,9.99999e-01
4.553838212e-01,1.97015e-03,9.99999e-01,9.99999e-01,9.99992e-01,1.97016e-03,9.99999e-01
4.576607403e-01,2.22813e-03,9.99999e-01,9.99999e-01,9.99996e-01,2.22814e-03,9.99999e-01
4.599490440e-01,2.51377e-03,9.99999e-01,9.99999e-01,9.99997e-01,2.51378e-03,9.99999e-01
4.622487892e-01,2.82928e-03,9.99999e-01,9.99999e-01,9.99999e-01,2.82928e-03,9.99999e-01
4.645600332e-01,3.17696e-03,9.99999e-01,9.99999e-01,9.99997e-01,3.17696e-03,9.99999e-01
4.668828333e-01,3.55912e-03,9.99999e-01,9.99999e-01,9.99972e-01,3.55921e-03,9.99999e-01
4.692172475e-01,3.97828e-03,9.99999e-01,9.99999e-01,9.99941e-01,3.97851e-03,9.99999e-01
4.715633337e-01,4.43727e-03,9.99999e-01,9.99999e-01,9.99961e-01,4.43744e-03,9.99999e-01
4.739211504e-01,4.93846e-03,9.99999e-01,9.99999e-01,9.99963e-01,4.93864e-03,9.99999e-01
4.762907561e-01,5.48474e-03,9.99999e-01,9.99999e-01,9.99980e-01,5.48484e-03,9.99999e-01
4.786722099e-01,6.07880e-03,9.99999e-01,9.99999e-01,9.99991e-01,6.07885e-03,9.99999e-01
4.810655710e-01,6.72350e-03,9.99999e-01,9.99999e-01,9.99997e-01,6.72351e-03,9.99999e-01
4.834708988e-01,7.42159e-03,9.99999e-01,9.99999e-01,9.99977e-01,7.42175e-03,9.99999e-01
4.858882533e-01,8.17620e-03,9.99999e-01,9.99999e-01,9.99958e-01,8.17653e-03,9.99999e-01
4.883176946e-01,8.99055e-03,9.99999e-01,9.99999e-01,9.99965e-01,8.99086e-03,9.99999e-01
4.907592831e-01,9.86746e-03,9.99999e-01,9.99999e-01,9.99968e-01,9.86776e-03,9.99999e-01
4.932130795e-01,1.08101e-02,9.99999e-01,9.99999e-01,9.99977e-01,1.08103e-02,9.99999e-01
4.956791449e-01,1.18214e-02,9.99999e-01,9.99999e-01,9.99987e-01,1.18215e-02,9.99999e-01
4.981575406e-01,1.29038e-02,9.99999e-01,9.99999e-01,9.99941e-01,1.29046e-02,9.99999e-01
5.006483283e-01,1.40604e-02,9.99999e-01,9.99999e-01,9.99849e-01,1.40625e-02,9.99999e-01
5.031515699e-01,1.52866e-02,9.99999e-01,9.99999e-01,9.99238e-01,1.52982e-02,9.99999e-01
5.056673278e-01,1.66083e-02,9.99999e-01,9.99999e-01,9.99597e-01,1.66150e-02,9.99999e-01
5.081956644e-01,1.80065e-02,9.99999e-01,9.99999e-01,9.99492e-01,1.80156e-02,9.99999e-01
5.107366428e-01,1.94964e-02,9.99999e-01,9.99999e-01,9.99656e-01,1.95031e-02,9.99999e-01
5.132903260e-01,2.10763e-02,9.99999e-01,9.99999e-01,9.99803e-01,2.10804e-02,9.99999e-01
5.158567776e-01,2.27484e-02,9.99999e-01,9.99999e-01,9.99916e-01,2.27503e-02,9.99999e-01
5.184360615e-01,2.45146e-02,9.99999e-01,9.99999e-01,9.99966e-01,2.45155e-02,9.99999e-01
5.210282418e-01,2.63783e-02,9.99999e-01,9.99999e-01,9.99987e-01,2.63787e-02,9.99999e-01
5.236333830e-01,2.83410e-02,9.99999e-01,9.99999e-01,9.99949e-01,2.83424e-02,9.99999e-01
5.262515499e-01,3.04083e-02,9.99999e-01,9.99999e-01,9.99968e-01,3.04092e-02,9.99999e-01
5.288828077e-01,3.25804e-02,9.99999e-01,9.99999e-01,9.99971e-01,3.25814e-02,9.99999e-01
5.315272217e-01,3.48603e-02,9.99999e-01,9.99999e-01,9.99974e-01,3.48612e-02,9.99999e-01
5.341848578e-01,3.72501e-02,9.99999e-01,9.99999e-01,9.99983e-01,3.72507e-02,9.99999e-01
5.368557821e-01,3.97496e-02,9.99999e-01,9.99999e-01,9.99941e-01,3.97519e-02,9.99999e-01
5.395400610e-01,4.23578e-02,9.99999e-01,9.99999e-01,9.99791e-01,4.23666e-02,9.99999e-01
5.422377613e-01,4.50844e-02,9.99999e-01,9.99999e-01,9.99729e-01,4.50966e-02,9.99999e-01
5.449489501e-01,4.79313e-02,9.99999e-01,9.99999e-01,9.99749e-01,4.79433e-02,9.99999e-01
5.476736949e-01,5.08967e-02,9.99999e-01,9.99999e-01,9.99777e-01,5.09081e-02,9.99999e-01
5.504120634e-01,5.39835e-02,9.99999e-01,9.99999e-01,9.99838e-01,5.39922e-02,9.99999e-01
5.531641237e-01,5.71920e-02,9.99999e-01,9.99999e-01,9.99918e-01,5.71966e-02,9.99999e-01
5.559299443e-01,6.05199e-02,9.99999e-01,9.99999e-01,9.99960e-01,6.05223e-02,9.99999e-01
5.587095940e-01,6.39683e-02,9.99999e-01,9.99999e-01,9.99974e-01,6.39699e-02,9.99999e-01
5.615031420e-01,6.75381e-02,9.99999e-01,9.99999e-01,9.99972e-01,6.75399e-02,9.99999e-01
5.643106577e-01,7.12305e-02,9.99999e-01,9.99999e-01,9.99968e-01,7.12327e-02,9.99999e-01
5.671322110e-01,7.50204e-02,9.99999e-01,9.99999e-01,9.99625e-01,7.50485e-02,9.99999e-01
5.699678720e-01,7.89555e-02,9.99999e-01,9.99999e-01,9.99597e-01,7.89872e-02,9.99999e-01
5.728177114e-01,8.30141e-02,9.99999e-01,9.99999e-01,9.99582e-01,8.30487e-02,9.99999e-01
5.756818000e-01,8.71992e-02,9.99999e-01,9.99999e-01,9.99616e-01,8.72325e-02,9.99999e-01
5.785602090e-01,9.15077e-02,9.99999e-01,9.99999e-01,9.99665e-01,9.15383e-02,9.99999e-01
5.814530100e-01,9.59330e-02,9.99999e-01,9.99999e-01,9.99664e-01,9.59652e-02,9.99999e-01
5.843602750e-01,1.00472e-01,9.99999e-01,9.99999e-01,9.99601e-01,1.00512e-01,9.99999e-01
5.872820764e-01,1.04818e-01,9.99999e-01,9.99999e-01,9.96566e-01,1.05179e-01,9.99999e-01
5.902184868e-01,1.09504e-01,9.99999e-01,9.99999e-01,9.95827e-01,1.09963e-01,9.99999e-01
5.931695792e-01,1.14526e-01,9.99999e-01,9.99999e-01,9.97054e-01,1.14864e-01,9.99999e-01
5.961354271e-01,1.19493e-01,9.99999e-01,9.99999e-01,9.96768e-01,1.19881e-01,9.99999e-01
5.991161043e-01,1.24716e-01,9.99999e-01,9.99999e-01,9.97641e-01,1.25010e-01,9.99999e-01
6.021116848e-01,1.30077e-01,9.99999e-01,9.99999e-01,9.98660e-01,1.30252e-01,9.99999e-01
6.051222432e-01,1.35511e-01,9.99999e-01,9.99999e-01,9.99321e-01,1.35603e-01,9.99999e-01
6.081478544e-01,1.41020e-01,9.99999e-01,9.99999e-01,9.99707e-01,1.41061e-01,9.99999e-01
6.111885937e-01,1.46607e-01,9.99999e-01,9.99999e-01,9.99875e-01,1.46626e-01,9.99999e-01
6.142445367e-01,1.52284e-01,9.99999e-01,9.99999e-01,9.99944e-01,1.52293e-01,9.99999e-01
6.173157594e-01,1.58056e-01,9.99999e-01,9.99999e-01,9.99969e-01,1.58060e-01,9.99999e-01
6.204023382e-01,1.63922e-01,9.99999e-01,9.99999e-01,9.99973e-01,1.63926e-01,9.99999e-01
6.235043498e-01,1.69868e-01,9.99999e-01,9.99999e-01,9.99886e-01,1.69887e-01,9.99999e-01
6.266218716e-01,1.75836e-01,9.99999e-01,9.99999e-01,9.99399e-01,1.75941e-01,9.99999e-01
6.297549810e-01,1.82045e-01,9.99999e-01,9.99999e-01,9.99779e-01,1.82085e-01,9.99999e-01
6.329037559e-01,1.88233e-01,9.99999e-01,9.99999e-01,9.99564e-01,1.88315e-01,9.99999e-01
6.360682746e-01,1.94557e-01,9.99999e-01,9.99999e-01,9.99629e-01,1.94629e-01,9.99999e-01
6.392486160e-01,2.00927e-01,9.99999e-01,9.99999e-01,9.99519e-01,2.01024e-01,9.99999e-01
6.424448591e-01,2.07363e-01,9.99999e-01,9.99999e-01,9.99359e-01,2.07496e-01,9.99999e-01
6.456570834e-01,2.13406e-01,9.99999e-01,9.99999e-01,9.97026e-01,2.14043e-01,9.99999e-01
6.488853688e-01,2.20178e-01,9.99999e-01,9.99999e-01,9.97813e-01,2.20661e-01,9.99999e-01
6.521297956e-01,2.26840e-01,9.99999e-01,9.99999e-01,9.97771e-01,2.27346e-01,9.99999e-01
6.553904446e-01,2.33581e-01,9.99999e-01,9.99999e-01,9.97795e-01,2.34096e-01,9.99999e-01
6.586673968e-01,2.40450e-01,9.99999e-01,9.99999e-01,9.98100e-01,2.40908e-01,9.99999e-01
6.619607338e-01,2.47505e-01,9.99999e-01,9.99999e-01,9.98901e-01,2.47777e-01,9.99999e-01
6.652705375e-01,2.54538e-01,9.99999e-01,9.99999e-01,9.99363e-01,2.54700e-01,9.99999e-01
6.685968902e-01,2.61598e-01,9.99999e-01,9.99999e-01,9.99704e-01,2.61675e-01,9.99999e-01
6.719398746e-01,2.68660e-01,9.99999e-01,9.99999e-01,9.99862e-01,2.68697e-01,9.99999e-01
6.752995740e-01,2.75743e-01,9.99999e-01,9.99999e-01,9.99925e-01,2.75763e-01,9.99999e-01
6.786760719e-01,2.82840e-01,9.99999e-01,9.99999e-01,9.99892e-01,2.82870e-01,9.99999e-01
6.820694522e-01,2.89961e-01,9.99999e-01,9.99999e-01,9.99816e-01,2.90014e-01,9.99999e-01
6.854797995e-01,2.97123e-01,9.99999e-01,9.99999e-01,9.99763e-01,2.97193e-01,9.99999e-01
6.889071985e-01,3.04229e-01,9.99999e-01,9.99999e-01,9.99431e-01,3.04402e-01,9.99999e-01
6.923517345e-01,3.08743e-01,9.99999e-01,9.99999e-01,9.90710e-01,3.11638e-01,9.99999e-01
6.958134932e-01,3.17344e-01,9.99999e-01,9.99999e-01,9.95125e-01,3.18898e-01,9.99999e-01
6.992925606e-01,3.24679e-01,9.99999e-01,9.99999e-01,9.95402e-01,3.26179e-01,9.99999e-01
7.027890234e-01,3.31580e-01,9.99999e-01,9.99999e-01,9.94309e-01,3.33477e-01,9.99999e-01
7.063029686e-01,3.39160e-01,9.99999e-01,9.99999e-01,9.95215e-01,3.40790e-01,9.99999e-01
7.098344834e-01,3.46516e-01,9.99999e-01,9.99999e-01,9.95409e-01,3.48114e-01,9.99999e-01
7.133836558e-01,3.53281e-01,9.99999e-01,9.99999e-01,9.93910e-01,3.55446e-01,9.99999e-01
7.169505741e-01,3.45315e-01,9.99999e-01,9.99999e-01,9.51849e-01,3.62783e-01,9.99998e-01
7.205353270e-01,3.61242e-01,9.99999e-01,9.99999e-01,9.76009e-01,3.70122e-01,9.99998e-01
7.241380036e-01,3.66056e-01,9.99999e-01,9.99999e-01,9.69787e-01,3.77460e-01,9.99998e-01
7.277586936e-01,3.74285e-01,9.99999e-01,9.99999e-01,9.72687e-01,3.84795e-01,9.99998e-01
7.313974871e-01,3.80721e-01,9.99999e-01,9.99999e-01,9.70924e-01,3.92122e-01,9.99999e-01
7.350544745e-01,3.93063e-01,9.99999e-01,9.99999e-01,9.84031e-01,3.99441e-01,9.99999e-01
7.387297469e-01,4.01959e-01,9.99999e-01,9.99999e-01,9.88226e-01,4.06748e-01,9.99999e-01
7.424233956e-01,4.11647e-01,9.99999e-01,9.99999e-01,9.94220e-01,4.14039e-01,9.99999e-01
7.461355126e-01,4.19838e-01,9.99999e-01,9.99999e-01,9.96496e-01,4.21314e-01,9.99999e-01
7.498661902e-01,4.27869e-01,9.99999e-01,9.99999e-01,9.98365e-01,4.28569e-01,9.99999e-01
7.536155211e-01,4.35453e-01,9.99999e-01,9.99999e-01,9.99198e-01,4.35802e-01,9.99999e-01
7.573835987e-01,4.42828e-01,9.99999e-01,9.99999e-01,9.99587e-01,4.43011e-01,9.99999e-01
7.611705167e-01,4.50078e-01,9.99999e-01,9.99999e-01,9.99743e-01,4.50193e-01,9.99999e-01
7.649763693e-01,4.57273e-01,9.99999e-01,9.99999e-01,9.99839e-01,4.57346e-01,9.99999e-01
7.688012511e-01,4.64416e-01,9.99999e-01,9.99999e-01,9.99887e-01,4.64468e-01,9.99999e-01
7.726452574e-01,4.71514e-01,9.99999e-01,9.99999e-01,9.99907e-01,4.71557e-01,9.99999e-01
7.765084837e-01,4.78549e-01,9.99999e-01,9.99999e-01,9.99869e-01,4.78611e-01,9.99999e-01
7.803910261e-01,4.69090e-01,9.99999e-01,9.66470e-01,9.99437e-01,4.85628e-01,9.99999e-01
7.842929812e-01,4.21986e-01,9.99999e-01,8.58241e-01,9.98037e-01,4.92607e-01,9.99999e-01
7.882144461e-01,4.22614e-01,9.99999e-01,8.49302e-01,9.95947e-01,4.99544e-01,9.99999e-01
7.921555184e-01,4.59423e-01,9.99999e-01,9.09138e-01,9.97772e-01,5.06440e-01,9.99999e-01
7.961162960e-01,4.79633e-01,9.99999e-01,9.38066e-01,9.96080e-01,5.13292e-01,9.99999e-01
8.000968774e-01,5.00124e-01,9.99999e-01,9.65963e-01,9.95464e-01,5.20098e-01,9.99999e-01
8.040973618e-01,5.15138e-01,9.99999e-01,9.82199e-01,9.95465e-01,5.26858e-01,9.99999e-01
8.081178486e-01,5.23817e-01,9.99999e-01,9.91802e-01,9.89823e-01,5.33569e-01,9.99999e-01
8.121584379e-01,5.16330e-01,9.99999e-01,9.97454e-01,9.58172e-01,5.40231e-01,9.99998e-01
8.162192301e-01,5.19406e-01,9.99999e-01,9.99437e-01,9.50354e-01,5.46841e-01,9.99998e-01
8.203003262e-01,5.39608e-01,9.99999e-01,9.99990e-01,9.75085e-01,5.53400e-01,9.99998e-01
8.244018279e-01,5.40320e-01,9.99999e-01,9.99999e-01,9.65020e-01,5.59906e-01,9.99998e-01
8.285238370e-01,5.49456e-01,9.99999e-01,9.99999e-01,9.70159e-01,5.66357e-01,9.99998e-01
8.326664562e-01,5.55450e-01,9.99999e-01,9.99999e-01,9.69790e-01,5.72753e-01,9.99999e-01
8.368297885e-01,5.66544e-01,9.99999e-01,9.99999e-01,9.78329e-01,5.79093e-01,9.99999e-01
8.410139374e-01,5.77807e-01,9.99999e-01,9.99999e-01,9.87071e-01,5.85375e-01,9.99999e-01
8.452190071e-01,5.87837e-01,9.99999e-01,9.99999e-01,9.93639e-01,5.91600e-01,9.99999e-01
8.494451021e-01,5.95561e-01,9.99999e-01,9.99999e-01,9.96311e-01,5.97766e-01,9.99999e-01
8.536923276e-01,6.02553e-01,9.99999e-01,9.99999e-01,9.97814e-01,6.03872e-01,9.99999e-01
8.579607893e-01,6.09099e-01,9.99999e-01,9.99999e-01,9.98655e-01,6.09919e-01,9.99999e-01
8.622505932e-01,6.15378e-01,9.99999e-01,9.99999e-01,9.99144e-01,6.15905e-01,9.99999e-01
8.665618462e-01,5.75454e-01,9.99999e-01,9.25890e-01,9.99471e-01,6.21829e-01,9.99999e-01
8.708946554e-01,4.25750e-01,9.99999e-01,6.78673e-01,9.99395e-01,6.27692e-01,9.99999e-01
8.752491287e-01,4.62993e-01,9.99999e-01,7.31430e-01,9.99191e-01,6.33493e-01,9.99999e-01
8.796253743e-01,5.37692e-01,9.99999e-01,8.42068e-01,9.98881e-01,6.39231e-01,9.99999e-01
8.840235012e-01,5.89176e-01,9.99999e-01,9.14735e-01,9.98721e-01,6.44906e-01,9.99999e-01
8.884436187e-01,6.25161e-01,9.99999e-01,9.65449e-01,9.95368e-01,6.50518e-01,9.99999e-01
8.928858368e-01,6.15819e-01,9.99999e-01,9.85873e-01,9.51987e-01,6.56066e-01,9.99998e-01
8.973502660e-01,6.04147e-01,9.99999e-01,9.96544e-01,9.16329e-01,6.61551e-01,9.99998e-01
9.018370173e-01,6.37569e-01,9.99999e-01,9.99618e-01,9.56268e-01,6.66972e-01,9.99998e-01
9.063462024e-01,6.40492e-01,9.99999e-01,9.90352e-01,9.61634e-01,6.72329e-01,9.99998e-01
9.108779334e-01,6.23470e-01,9.99999e-01,9.77815e-01,9.40699e-01,6.77623e-01,9.99997e-01
9.154323231e-01,6.33730e-01,9.99999e-01,9.94733e-01,9.32873e-01,6.82851e-01,9.99997e-01
9.200094847e-01,6.05543e-01,9.99999e-01,9.26742e-01,9.46982e-01,6.88016e-01,9.99997e-01
9.246095321e-01,5.71764e-01,9.99999e-01,8.96034e-01,9.18819e-01,6.93117e-01,9.99995e-01
9.292325798e-01,3.66715e-01,9.99999e-01,9.17848e-01,5.67116e-01,6.98154e-01,9.99991e-01
9.338787427e-01,3.13485e-01,9.99999e-01,9.20214e-01,4.80212e-01,7.03126e-01,9.99989e-01
9.385481364e-01,4.97099e-01,9.99999e-01,9.40737e-01,7.43657e-01,7.08035e-01,9.99988e-01
9.432408771e-01,4.56765e-01,9.99999e-01,9.63258e-01,6.63795e-01,7.12880e-01,9.99987e-01
9.479570815e-01,4.01024e-01,9.99999e-01,9.80996e-01,5.69027e-01,7.17662e-01,9.99989e-01
9.526968669e-01,4.68282e-01,9.99999e-01,9.90787e-01,6.53739e-01,7.22380e-01,9.99991e-01
9.574603512e-01,4.89502e-01,9.99999e-01,9.96050e-01,6.75780e-01,7.27035e-01,9.99993e-01
9.622476530e-01,5.30919e-01,9.99999e-01,9.98766e-01,7.26513e-01,7.31628e-01,9.99995e-01
9.670588912e-01,6.12158e-01,9.99999e-01,9.99629e-01,8.31852e-01,7.36157e-01,9.99997e-01
9.718941857e-01,6.60082e-01,9.99999e-01,9.99973e-01,8.91273e-01,7.40625e-01,9.99998e-01
9.767536566e-01,6.77149e-01,9.99999e-01,9.99999e-01,9.08888e-01,7.45031e-01,9.99998e-01
9.816374249e-01,6.98116e-01,9.99999e-01,9.99999e-01,9.31598e-01,7.49375e-01,9.99998e-01
9.865456120e-01,7.21024e-01,9.99999e-01,9.99999e-01,9.56699e-01,7.53657e-01,9.99999e-01
9.914783401e-01,7.37432e-01,9.99999e-01,9.99999e-01,9.73020e-01,7.57879e-01,9.99999e-01
9.964357318e-01,7.50776e-01,9.99999e-01,9.99999e-01,9.85217e-01,7.62041e-01,9.99999e-01
1.001417910e+00,7.59335e-01,9.99999e-01,9.99999e-01,9.91114e-01,7.66142e-01,9.99999e-01
1.006425000e+00,7.66280e-01,9.99999e-01,9.99999e-01,9.94930e-01,7.70184e-01,9.99999e-01
1.011457125e+00,7.71727e-01,9.99999e-01,9.99999e-01,9.96847e-01,7.74167e-01,9.99999e-01
1.016514411e+00,7.76427e-01,9.99999e-01,9.99999e-01,9.97860e-01,7.78091e-01,9.99999e-01
1.021596983e+00,7.80586e-01,9.99999e-01,9.99950e-01,9.98295e-01,7.81957e-01,9.99999e-01
1.026704968e+00,7.81768e-01,9.99999e-01,9.96235e-01,9.98670e-01,7.85765e-01,9.99999e-01
1.031838492e+00,7.54470e-01,9.99999e-01,9.56507e-01,9.99032e-01,7.89516e-01,9.99999e-01
1.036997685e+00,1.20473e-01,9.99999e-01,1.51949e-01,9.99425e-01,7.93210e-01,9.99999e-01
1.042182673e+00,9.33999e-02,9.99999e-01,1.17283e-01,9.99316e-01,7.96848e-01,9.99999e-01
1.047393587e+00,1.12063e-01,9.99999e-01,1.40116e-01,9.99092e-01,8.00431e-01,9.99999e-01
1.052630555e+00,3.02188e-03,9.99999e-01,3.76218e-03,9.98755e-01,8.03958e-01,9.99999e-01
1.057893707e+00,7.69488e-03,9.99999e-01,9.54338e-03,9.97924e-01,8.07431e-01,9.99999e-01
1.063183176e+00,2.61620e-02,9.99999e-01,3.23438e-02,9.96585e-01,8.10849e-01,9.99999e-01
1.068499092e+00,7.45723e-02,9.99999e-01,9.20294e-02,9.94284e-01,8.14214e-01,9.99999e-01
1.073841587e+00,1.79652e-01,9.99999e-01,2.21006e-01,9.93317e-01,8.17527e-01,9.99999e-01
1.079210795e+00,3.13124e-01,9.99999e-01,3.84491e-01,9.91434e-01,8.20786e-01,9.99999e-01
1.084606849e+00,4.80653e-01,9.99999e-01,5.90603e-01,9.87066e-01,8.23994e-01,9.99999e-01
1.090029883e+00,6.18009e-01,9.99999e-01,7.60843e-01,9.81502e-01,8.27151e-01,9.99998e-01
1.095480033e+00,6.89959e-01,9.99999e-01,8.73940e-01,9.50358e-01,8.30258e-01,9.99998e-01
1.100957433e+00,6.86639e-01,9.99999e-01,9.37155e-01,8.78648e-01,8.33314e-01,9.99997e-01
1.106462220e+00,5.87157e-01,9.99999e-01,9.73506e-01,7.20485e-01,8.36321e-01,9.99994e-01
1.111994531e+00,4.17635e-01,9.99999e-01,9.90098e-01,5.02234e-01,8.39279e-01,9.99989e-01
1.117554504e+00,2.76666e-01,9.99999e-01,9.97570e-01,3.29163e-01,8.42188e-01,9.99985e-01
1.123142276e+00,3.75368e-01,9.99999e-01,9.99839e-01,4.44237e-01,8.45050e-01,9.99983e-01
1.128757988e+00,5.02598e-01,9.99999e-01,9.99999e-01,5.92791e-01,8.47865e-01,9.99981e-01
1.134401778e+00,2.82909e-01,9.99999e-01,9.99999e-01,3.32592e-01,8.50634e-01,9.99979e-01
1.140073787e+00,6.23753e-01,9.99999e-01,9.99999e-01,7.30952e-01,8.53356e-01,9.99983e-01
1.145774156e+00,4.46553e-01,9.99999e-01,9.99999e-01,5.21661e-01,8.56033e-01,9.99986e-01
1.151503026e+00,4.16662e-01,9.99999e-01,9.99999e-01,4.85248e-01,8.58666e-01,9.99987e-01
1.157260541e+00,4.68915e-01,9.99999e-01,9.99999e-01,5.44460e-01,8.61254e-01,9.99990e-01
1.163046844e+00,5.50648e-01,9.99999e-01,9.99999e-01,6.37476e-01,8.63799e-01,9.99993e-01
1.168862078e+00,6.33158e-01,9.99999e-01,9.99999e-01,7.30877e-01,8.66300e-01,9.99996e-01
1.174706389e+00,7.15937e-01,9.99999e-01,9.99999e-01,8.24091e-01,8.68760e-01,9.99998e-01
1.180579921e+00,7.74314e-01,9.99999e-01,9.99999e-01,8.88813e-01,8.71177e-01,9.99998e-01
1.186482820e+00,8.17274e-01,9.99999e-01,9.99993e-01,9.35579e-01,8.73554e-01,9.99998e-01
1.192415234e+00,8.31394e-01,9.99999e-01,9.86643e-01,9.61902e-01,8.75889e-01,9.99998e-01
1.198377311e+00,4.79798e-01,9.99999e-01,5.61500e-01,9.67814e-01,8.78185e-01,9.99998e-01
1.204369197e+00,2.48288e-11,9.99999e-01,2.87090e-11,9.69510e-01,8.80441e-01,9.99999e-01
1.210391043e+00,3.05906e-41,9.99999e-01,3.52315e-41,9.70820e-01,8.82658e-01,9.99999e-01
1.216442998e+00,6.82441e-36,9.99999e-01,7.83365e-36,9.75106e-01,8.84837e-01,9.99999e-01
1.222525213e+00,2.25365e-35,9.99999e-01,2.56658e-35,9.80574e-01,8.86978e-01,9.99999e-01
1.228637839e+00,2.12501e-27,9.99999e-01,2.41273e-27,9.86475e-01,8.89082e-01,9.99999e-01
