#,Wave/freq,Total,O2,CO2,H2O,Rayleigh,CIA
4.000000000e-01,2.30911e-03,9.99999e-01,9.99999e-01,9.99987e-01,2.30913e-03,9.99999e-01
4.020000000e-01,2.60362e-03,9.99999e-01,9.99999e-01,9.99992e-01,2.60364e-03,9.99999e-01
4.040100000e-01,2.92838e-03,9.99999e-01,9.99999e-01,9.99996e-01,2.92839e-03,9.99999e-01
4.060300500e-01,3.28601e-03,9.99999e-01,9.99999e-01,9.99998e-01,3.28601e-03,9.99999e-01
4.080602003e-01,3.67893e-03,9.99999e-01,9.99999e-01,9.99999e-01,3.67893e-03,9.99999e-01
4.101005013e-01,4.10965e-03,9.99999e-01,9.99999e-01,9.99999e-01,4.10965e-03,9.99999e-01
4.121510038e-01,4.58076e-03,9.99999e-01,9.99999e-01,9.99999e-01,4.58076e-03,9.99999e-01
4.142117588e-01,5.09493e-03,9.99999e-01,9.99999e-01,9.99996e-01,5.09495e-03,9.99999e-01
4.162828176e-01,5.65488e-03,9.99999e-01,9.99999e-01,9.99984e-01,5.65496e-03,9.99999e-01
4.183642317e-01,6.26355e-03,9.99999e-01,9.99999e-01,9.99990e-01,6.26361e-03,9.99999e-01
4.204560528e-01,6.92374e-03,9.99999e-01,9.99999e-01,9.99994e-01,6.92377e-03,9.99999e-01
4.225583331e-01,7.63837e-03,9.99999e-01,9.99999e-01,9.99997e-01,7.63838e-03,9.99999e-01
4.246711247e-01,8.41040e-03,9.99999e-01,9.99999e-01,9.99997e-01,8.41041e-03,9.99999e-01
4.267944804e-01,9.24286e-03,9.99999e-01,9.99999e-01,9.99997e-01,9.24288e-03,9.99999e-01
4.289284528e-01,1.01388e-02,9.99999e-01,9.99999e-01,9.99997e-01,1.01388e-02,9.99999e-01
4.310730950e-01,1.11013e-02,9.99999e-01,9.99999e-01,9.99998e-01,1.11013e-02,9.99999e-01
4.332284605e-01,1.21334e-02,9.99999e-01,9.99999e-01,9.99999e-01,1.21334e-02,9.99999e-01
4.353946028e-01,1.32382e-02,9.99999e-01,9.99999e-01,9.99999e-01,1.32382e-02,9.99999e-01
4.375715758e-01,1.44187e-02,9.99999e-01,9.99999e-01,9.99998e-01,1.44188e-02,9.99999e-01
4.397594337e-01,1.56779e-02,9.99999e-01,9.99999e-01,9.99986e-01,1.56781e-02,9.99999e-01
4.419582309e-01,1.70181e-02,9.99999e-01,9.99999e-01,9.99933e-01,1.70193e-02,9.99999e-01
4.441680220e-01,1.84443e-02,9.99999e-01,9.99999e-01,9.99948e-01,1.84452e-02,9.99999e-01
4.463888621e-01,1.99579e-02,9.99999e-01,9.99999e-01,9.99946e-01,1.99589e-02,9.99999e-01
4.486208064e-01,2.15625e-02,9.99999e-01,9.99999e-01,9.99966e-01,2.15632e-02,9.99999e-01
4.508639105e-01,2.32606e-02,9.99999e-01,9.99999e-01,9.99984e-01,2.32609e-02,9.99999e-01
4.531182300e-01,2.50546e-02,9.99999e-01,9.99999e-01,9.99993e-01,2.50548e-02,9.99999e-01
4.553838212e-01,2.69472e-02,9.99999e-01,9.99999e-01,9.99995e-01,2.69473e-02,9.99999e-01
4.576607403e-01,2.89412e-02,9.99999e-01,9.99999e-01,9.99997e-01,2.89412e-02,9.99999e-01
4.599490440e-01,3.10388e-02,9.99999e-01,9.99999e-01,9.99998e-01,3.10389e-02,9.99999e-01
4.622487892e-01,3.32426e-02,9.99999e-01,9.99999e-01,9.99999e-01,3.32426e-02,9.99999e-01
4.645600332e-01,3.55545e-02,9.99999e-01,9.99999e-01,9.99998e-01,3.55545e-02,9.99999e-01
4.668828333e-01,3.79762e-02,9.99999e-01,9.99999e-01,9.99983e-01,3.79768e-02,9.99999e-01
4.692172475e-01,4.05099e-02,9.99999e-01,9.99999e-01,9.99966e-01,4.05113e-02,9.99999e-01
4.715633337e-01,4.31589e-02,9.99999e-01,9.99999e-01,9.99977e-01,4.31599e-02,9.99999e-01
4.739211504e-01,4.59231e-02,9.99999e-01,9.99999e-01,9.99978e-01,4.59241e-02,9.99999e-01
4.762907561e-01,4.88049e-02,9.99999e-01,9.99999e-01,9.99988e-01,4.88055e-02,9.99999e-01
4.786722099e-01,5.18051e-02,9.99999e-01,9.99999e-01,9.99995e-01,5.18053e-02,9.99999e-01
4.810655710e-01,5.49248e-02,9.99999e-01,9.99999e-01,9.99998e-01,5.49248e-02,9.99999e-01
4.834708988e-01,5.81642e-02,9.99999e-01,9.99999e-01,9.99986e-01,5.81650e-02,9.99999e-01
4.858882533e-01,6.15251e-02,9.99999e-01,9.99999e-01,9.99975e-01,6.15265e-02,9.99999e-01
4.883176946e-01,6.50089e-02,9.99999e-01,9.99999e-01,9.99979e-01,6.50102e-02,9.99999e-01
4.907592831e-01,6.86152e-02,9.99999e-01,9.99999e-01,9.99981e-01,6.86164e-02,9.99999e-01
4.932130795e-01,7.23446e-02,9.99999e-01,9.99999e-01,9.99986e-01,7.23455e-02,9.99999e-01
4.956791449e-01,7.61970e-02,9.99999e-01,9.99999e-01,9.99992e-01,7.61975e-02,9.99999e-01
4.981575406e-01,8.01698e-02,9.99999e-01,9.99999e-01,9.99965e-01,8.01725e-02,9.99999e-01
5.006483283e-01,8.42627e-02,9.99999e-01,9.99999e-01,9.99911e-01,8.42701e-02,9.99999e-01
5.031515699e-01,8.84509e-02,9.99999e-01,9.99999e-01,9.99557e-01,8.84900e-02,9.99999e-01
5.056673278e-01,9.28099e-02,9.99999e-01,9.99999e-01,9.99766e-01,9.28315e-02,9.99999e-01
5.081956644e-01,9.72654e-02,9.99999e-01,9.99999e-01,9.99705e-01,9.72940e-02,9.99999e-01
5.107366428e-01,1.01856e-01,9.99999e-01,9.99999e-01,9.99801e-01,1.01876e-01,9.99999e-01
5.132903260e-01,1.06566e-01,9.99999e-01,9.99999e-01,9.99886e-01,1.06578e-01,9.99999e-01
5.158567776e-01,1.11392e-01,9.99999e-01,9.99999e-01,9.99951e-01,1.11397e-01,9.99999e-01
5.184360615e-01,1.16330e-01,9.99999e-01,9.99999e-01,9.99980e-01,1.16332e-01,9.99999e-01
5.210282418e-01,1.21381e-01,9.99999e-01,9.99999e-01,9.99992e-01,1.21382e-01,9.99999e-01
5.236333830e-01,1.26541e-01,9.99999e-01,9.99999e-01,9.99970e-01,1.26545e-01,9.99999e-01
5.262515499e-01,1.31816e-01,9.99999e-01,9.99999e-01,9.99981e-01,1.31819e-01,9.99999e-01
5.288828077e-01,1.37200e-01,9.99999e-01,9.99999e-01,9.99982e-01,1.37202e-01,9.99999e-01
5.315272217e-01,1.42690e-01,9.99999e-01,9.99999e-01,9.99985e-01,1.42692e-01,9.99999e-01
5.341848578e-01,1.48285e-01,9.99999e-01,9.99999e-01,9.99989e-01,1.48287e-01,9.99999e-01
5.368557821e-01,1.53979e-01,9.99999e-01,9.99999e-01,9.99965e-01,1.53984e-01,9.99999e-01
5.395400610e-01,1.59761e-01,9.99999e-01,9.99999e-01,9.99877e-01,1.59781e-01,9.99999e-01
5.422377613e-01,1.65649e-01,9.99999e-01,9.99999e-01,9.99843e-01,1.65675e-01,9.99999e-01
5.449489501e-01,1.71639e-01,9.99999e-01,9.99999e-01,9.99853e-01,1.71664e-01,9.99999e-01
5.476736949e-01,1.77721e-01,9.99999e-01,9.99999e-01,9.99870e-01,1.77744e-01,9.99999e-01
5.504120634e-01,1.83896e-01,9.99999e-01,9.99999e-01,9.99906e-01,1.83913e-01,9.99999e-01
5.531641237e-01,1.90160e-01,9.99999e-01,9.99999e-01,9.99952e-01,1.90169e-01,9.99999e-01
5.559299443e-01,1.96503e-01,9.99999e-01,9.99999e-01,9.99976e-01,1.96507e-01,9.99999e-01
5.587095940e-01,2.02922e-01,9.99999e-01,9.99999e-01,9.99985e-01,2.02925e-01,9.99999e-01
5.615031420e-01,2.09416e-01,9.99999e-01,9.99999e-01,9.99983e-01,2.09420e-01,9.99999e-01
5.643106577e-01,2.15984e-01,9.99999e-01,9.99999e-01,9.99981e-01,2.15988e-01,9.99999e-01
5.671322110e-01,2.22577e-01,9.99999e-01,9.99999e-01,9.99779e-01,2.22626e-01,9.99999e-01
5.699678720e-01,2.29278e-01,9.99999e-01,9.99999e-01,9.99767e-01,2.29331e-01,9.99999e-01
5.728177114e-01,2.36042e-01,9.99999e-01,9.99999e-01,9.99757e-01,2.36099e-01,9.99999e-01
5.756818000e-01,2.42874e-01,9.99999e-01,9.99999e-01,9.99777e-01,2.42928e-01,9.99999e-01
5.785602090e-01,2.49765e-01,9.99999e-01,9.99999e-01,9.99806e-01,2.49814e-01,9.99999e-01
5.814530100e-01,2.56703e-01,9.99999e-01,9.99999e-01,9.99805e-01,2.56753e-01,9.99999e-01
5.843602750e-01,2.63680e-01,9.99999e-01,9.99999e-01,9.99767e-01,2.63741e-01,9.99999e-01
5.872820764e-01,2.70234e-01,9.99999e-01,9.99999e-01,9.97994e-01,2.70777e-01,9.99999e-01
5.902184868e-01,2.77183e-01,9.99999e-01,9.99999e-01,9.97580e-01,2.77855e-01,9.99999e-01
5.931695792e-01,2.84486e-01,9.99999e-01,9.99999e-01,9.98288e-01,2.84974e-01,9.99999e-01
5.961354271e-01,2.91581e-01,9.99999e-01,9.99999e-01,9.98125e-01,2.92128e-01,9.99999e-01
5.991161043e-01,2.98907e-01,9.99999e-01,9.99999e-01,9.98633e-01,2.99316e-01,9.99999e-01
6.021116848e-01,3.06296e-01,9.99999e-01,9.99999e-01,9.99224e-01,3.06533e-01,9.99999e-01
6.051222432e-01,3.13654e-01,9.99999e-01,9.99999e-01,9.99607e-01,3.13777e-01,9.99999e-01
6.081478544e-01,3.20989e-01,9.99999e-01,9.99999e-01,9.99830e-01,3.21044e-01,9.99999e-01
6.111885937e-01,3.28307e-01,9.99999e-01,9.99999e-01,9.99928e-01,3.28330e-01,9.99999e-01
6.142445367e-01,3.35622e-01,9.99999e-01,9.99999e-01,9.99967e-01,3.35633e-01,9.99999e-01
6.173157594e-01,3.42943e-01,9.99999e-01,9.99999e-01,9.99981e-01,3.42949e-01,9.99999e-01
6.204023382e-01,3.50271e-01,9.99999e-01,9.99999e-01,9.99984e-01,3.50276e-01,9.99999e-01
6.235043498e-01,3.57586e-01,9.99999e-01,9.99999e-01,9.99933e-01,3.57610e-01,9.99999e-01
6.266218716e-01,3.64821e-01,9.99999e-01,9.99999e-01,9.99651e-01,3.64948e-01,9.99999e-01
6.297549810e-01,3.72239e-01,9.99999e-01,9.99999e-01,9.99871e-01,3.72287e-01,9.99999e-01
6.329037559e-01,3.79528e-01,9.99999e-01,9.99999e-01,9.99747e-01,3.79624e-01,9.99999e-01
6.360682746e-01,3.86874e-01,9.99999e-01,9.99999e-01,9.99784e-01,3.86957e-01,9.99999e-01
6.392486160e-01,3.94173e-01,9.99999e-01,9.99999e-01,9.99721e-01,3.94282e-01,9.99999e-01
6.424448591e-01,4.01447e-01,9.99999e-01,9.99999e-01,9.99625e-01,4.01598e-01,9.99999e-01
6.456570834e-01,4.08190e-01,9.99999e-01,9.99999e-01,9.98262e-01,4.08900e-01,9.99999e-01
6.488853688e-01,4.15660e-01,9.99999e-01,9.99999e-01,9.98733e-01,4.16187e-01,9.99999e-01
6.521297956e-01,4.22910e-01,9.99999e-01,9.99999e-01,9.98708e-01,4.23456e-01,9.99999e-01
6.553904446e-01,4.30151e-01,9.99999e-01,9.99999e-01,9.98712e-01,4.30705e-01,9.99999e-01
6.586673968e-01,4.37449e-01,9.99999e-01,9.99999e-01,9.98899e-01,4.37931e-01,9.99999e-01
6.619607338e-01,4.44859e-01,9.99999e-01,9.99999e-01,9.99386e-01,4.45132e-01,9.99999e-01
6.652705375e-01,4.52140e-01,9.99999e-01,9.99999e-01,9.99631e-01,4.52306e-01,9.99999e-01
6.685968902e-01,4.59378e-01,9.99999e-01,9.99999e-01,9.99843e-01,4.59450e-01,9.99999e-01
6.719398746e-01,4.66526e-01,9.99999e-01,9.99999e-01,9.99920e-01,4.66563e-01,9.99999e-01
6.752995740e-01,4.73621e-01,9.99999e-01,9.99999e-01,9.99956e-01,4.73642e-01,9.99999e-01
6.786760719e-01,4.80655e-01,9.99999e-01,9.99999e-01,9.99937e-01,4.80685e-01,9.99999e-01
6.820694522e-01,4.87639e-01,9.99999e-01,9.99999e-01,9.99893e-01,4.87691e-01,9.99999e-01
6.854797995e-01,4.94590e-01,9.99999e-01,9.99999e-01,9.99862e-01,4.94657e-01,9.99999e-01
6.889071985e-01,5.01415e-01,9.99999e-01,9.99999e-01,9.99665e-01,5.01583e-01,9.99999e-01
6.923517345e-01,5.05705e-01,9.99999e-01,9.99999e-01,9.94569e-01,5.08466e-01,9.99999e-01
6.958134932e-01,5.13860e-01,9.99999e-01,9.99999e-01,9.97197e-01,5.15304e-01,9.99999e-01
6.992925606e-01,5.20696e-01,9.99999e-01,9.99999e-01,9.97316e-01,5.22097e-01,9.99999e-01
7.027890234e-01,5.27096e-01,9.99999e-01,9.99999e-01,9.96697e-01,5.28842e-01,9.99999e-01
7.063029686e-01,5.34052e-01,9.99999e-01,9.99999e-01,9.97222e-01,5.35539e-01,9.99999e-01
7.098344834e-01,5.40741e-01,9.99999e-01,9.99999e-01,9.97335e-01,5.42186e-01,9.99999e-01
7.133836558e-01,5.46822e-01,9.99999e-01,9.99999e-01,9.96429e-01,5.48782e-01,9.99999e-01
7.169505741e-01,5.39542e-01,9.99999e-01,9.99999e-01,9.71578e-01,5.55325e-01,9.99999e-01
7.205353270e-01,5.54015e-01,9.99999e-01,9.99999e-01,9.86116e-01,5.61814e-01,9.99999e-01
7.241380036e-01,5.58186e-01,9.99999e-01,9.99999e-01,9.82291e-01,5.68249e-01,9.99999e-01
7.277586936e-01,5.65441e-01,9.99999e-01,9.99999e-01,9.84011e-01,5.74629e-01,9.99999e-01
7.313974871e-01,5.71115e-01,9.99999e-01,9.99999e-01,9.83067e-01,5.80952e-01,9.99999e-01
7.350544745e-01,5.81767e-01,9.99999e-01,9.99999e-01,9.90717e-01,5.87217e-01,9.99999e-01
7.387297469e-01,5.89371e-01,9.99999e-01,9.99999e-01,9.93168e-01,5.93425e-01,9.99999e-01
7.424233956e-01,5.97569e-01,9.99999e-01,9.99999e-01,9.96656e-01,5.99573e-01,9.99999e-01
7.461355126e-01,6.04434e-01,9.99999e-01,9.99999e-01,9.97971e-01,6.05662e-01,9.99999e-01
7.498661902e-01,6.11114e-01,9.99999e-01,9.99999e-01,9.99056e-01,6.11691e-01,9.99999e-01
7.536155211e-01,6.17372e-01,9.99999e-01,9.99999e-01,9.99536e-01,6.17659e-01,9.99999e-01
7.573835987e-01,6.23416e-01,9.99999e-01,9.99999e-01,9.99761e-01,6.23565e-01,9.99999e-01
7.611705167e-01,6.29316e-01,9.99999e-01,9.99999e-01,9.99851e-01,6.29409e-01,9.99999e-01
7.649763693e-01,6.35133e-01,9.99999e-01,9.99999e-01,9.99906e-01,6.35192e-01,9.99999e-01
7.688012511e-01,6.40870e-01,9.99999e-01,9.99999e-01,9.99934e-01,6.40911e-01,9.99999e-01
7.726452574e-01,6.46533e-01,9.99999e-01,9.99999e-01,9.99946e-01,6.46568e-01,9.99999e-01
7.765084837e-01,6.52112e-01,9.99999e-01,9.99999e-01,9.99923e-01,6.52161e-01,9.99999e-01
7.803910261e-01,6.43649e-01,9.99999e-01,9.78964e-01,9.99671e-01,6.57691e-01,9.99999e-01
7.842929812e-01,6.05698e-01,9.99999e-01,9.14372e-01,9.98853e-01,6.63157e-01,9.99999e-01
7.882144461e-01,6.05705e-01,9.99999e-01,9.08070e-01,9.97646e-01,6.68559e-01,9.99999e-01
7.921555184e-01,6.36674e-01,9.99999e-01,9.45964e-01,9.98711e-01,6.73897e-01,9.99999e-01
7.961162960e-01,6.53035e-01,9.99999e-01,9.63708e-01,9.97712e-01,6.79172e-01,9.99999e-01
8.000968774e-01,6.69035e-01,9.99999e-01,9.80152e-01,9.97365e-01,6.84382e-01,9.99999e-01
8.040973618e-01,6.80625e-01,9.99999e-01,9.89694e-01,9.97362e-01,6.89527e-01,9.99999e-01
8.081178486e-01,6.87194e-01,9.99999e-01,9.95248e-01,9.94042e-01,6.94609e-01,9.99999e-01
8.121584379e-01,6.81395e-01,9.99999e-01,9.98536e-01,9.75358e-01,6.99627e-01,9.99999e-01
8.162192301e-01,6.83865e-01,9.99999e-01,9.99676e-01,9.70908e-01,7.04581e-01,9.99999e-01
8.203003262e-01,6.98988e-01,9.99999e-01,9.99994e-01,9.85227e-01,7.09471e-01,9.99999e-01
8.244018279e-01,6.99712e-01,9.99999e-01,9.99999e-01,9.79581e-01,7.14297e-01,9.99999e-01
8.285238370e-01,7.06493e-01,9.99999e-01,9.99999e-01,9.82521e-01,7.19060e-01,9.99999e-01
8.326664562e-01,7.10989e-01,9.99999e-01,9.99999e-01,9.82354e-01,7.23760e-01,9.99999e-01
8.368297885e-01,7.19215e-01,9.99999e-01,9.99999e-01,9.87395e-01,7.28396e-01,9.99999e-01
8.410139374e-01,7.27472e-01,9.99999e-01,9.99999e-01,9.92498e-01,7.32970e-01,9.99999e-01
8.452190071e-01,7.34767e-01,9.99999e-01,9.99999e-01,9.96318e-01,7.37482e-01,9.99999e-01
8.494451021e-01,7.40344e-01,9.99999e-01,9.99999e-01,9.97860e-01,7.41931e-01,9.99999e-01
8.536923276e-01,7.45375e-01,9.99999e-01,9.99999e-01,9.98736e-01,7.46318e-01,9.99999e-01
8.579607893e-01,7.50060e-01,9.99999e-01,9.99999e-01,9.99220e-01,7.50644e-01,9.99999e-01
8.622505932e-01,7.54536e-01,9.99999e-01,9.99999e-01,9.99505e-01,7.54909e-01,9.99999e-01
8.665618462e-01,7.18397e-01,9.99999e-01,9.46645e-01,9.99693e-01,7.59113e-01,9.99999e-01
8.708946554e-01,6.05850e-01,9.99999e-01,7.94040e-01,9.99648e-01,7.63257e-01,9.99999e-01
8.752491287e-01,6.38332e-01,9.99999e-01,8.32258e-01,9.99530e-01,7.67341e-01,9.99999e-01
8.796253743e-01,6.97541e-01,9.99999e-01,9.04872e-01,9.99348e-01,7.71365e-01,9.99999e-01
8.840235012e-01,7.35778e-01,9.99999e-01,9.49685e-01,9.99256e-01,7.75331e-01,9.99999e-01
8.884436187e-01,7.61519e-01,9.99999e-01,9.79924e-01,9.97265e-01,7.79237e-01,9.99999e-01
8.928858368e-01,7.54656e-01,9.99999e-01,9.91819e-01,9.71602e-01,7.83086e-01,9.99999e-01
8.973502660e-01,7.46402e-01,9.99999e-01,9.98013e-01,9.50427e-01,7.86877e-01,9.99998e-01
9.018370173e-01,7.70250e-01,9.99999e-01,9.99780e-01,9.74454e-01,7.90612e-01,9.99998e-01
9.063462024e-01,7.71957e-01,9.99999e-01,9.94286e-01,9.77366e-01,7.94289e-01,9.99998e-01
9.108779334e-01,7.60116e-01,9.99999e-01,9.87104e-01,9.64986e-01,7.97911e-01,9.99998e-01
9.154323231e-01,7.67425e-01,9.99999e-01,9.96973e-01,9.60384e-01,8.01477e-01,9.99998e-01
9.200094847e-01,7.45685e-01,9.99999e-01,9.55147e-01,9.68847e-01,8.04988e-01,9.99998e-01
9.246095321e-01,7.21833e-01,9.99999e-01,9.38334e-01,9.50859e-01,8.08445e-01,9.99997e-01
9.292325798e-01,5.52590e-01,9.99999e-01,9.50926e-01,7.13295e-01,8.11847e-01,9.99994e-01
9.338787427e-01,5.04243e-01,9.99999e-01,9.52859e-01,6.46976e-01,8.15197e-01,9.99993e-01
9.385481364e-01,6.64018e-01,9.99999e-01,9.65194e-01,8.39452e-01,8.18494e-01,9.99993e-01
9.432408771e-01,6.28719e-01,9.99999e-01,9.78598e-01,7.81250e-01,8.21738e-01,9.99992e-01
9.479570815e-01,5.78866e-01,9.99999e-01,9.88955e-01,7.09269e-01,8.24931e-01,9.99993e-01
9.526968669e-01,6.39175e-01,9.99999e-01,9.94664e-01,7.75785e-01,8.28073e-01,9.99994e-01
9.574603512e-01,6.58644e-01,9.99999e-01,9.97716e-01,7.94177e-01,8.31164e-01,9.99996e-01
9.622476530e-01,6.91691e-01,9.99999e-01,9.99287e-01,8.29732e-01,8.34206e-01,9.99997e-01
9.670588912e-01,7.51745e-01,9.99999e-01,9.99786e-01,8.98116e-01,8.37198e-01,9.99998e-01
9.718941857e-01,7.85747e-01,9.99999e-01,9.99984e-01,9.35268e-01,8.40142e-01,9.99998e-01
9.767536566e-01,7.97493e-01,9.99999e-01,9.99999e-01,9.45976e-01,8.43037e-01,9.99998e-01
9.816374249e-01,8.11847e-01,9.99999e-01,9.99999e-01,9.59760e-01,8.45885e-01,9.99999e-01
9.865456120e-01,8.27205e-01,9.99999e-01,9.99999e-01,9.74687e-01,8.48687e-01,9.99999e-01
9.914783401e-01,8.38060e-01,9.99999e-01,9.99999e-01,9.84283e-01,8.51441e-01,9.99999e-01
9.964357318e-01,8.46817e-01,9.99999e-01,9.99999e-01,9.91413e-01,8.54150e-01,9.99999e-01
1.001417910e+00,8.52400e-01,9.99999e-01,9.99999e-01,9.94847e-01,8.56814e-01,9.99999e-01
1.006425000e+00,8.56905e-01,9.99999e-01,9.99999e-01,9.97057e-01,8.59434e-01,9.99999e-01
1.011457125e+00,8.60436e-01,9.99999e-01,9.99999e-01,9.98175e-01,8.62009e-01,9.99999e-01
1.016514411e+00,8.63469e-01,9.99999e-01,9.99999e-01,9.98760e-01,8.64541e-01,9.99999e-01
1.021596983e+00,8.66146e-01,9.99999e-01,9.99967e-01,9.99011e-01,8.67030e-01,9.99999e-01
1.026704968e+00,8.66872e-01,9.99999e-01,9.97771e-01,9.99228e-01,8.69477e-01,9.99999e-01
1.031838492e+00,8.43698e-01,9.99999e-01,9.68202e-01,9.99439e-01,8.71883e-01,9.99999e-01
1.036997685e+00,2.13743e-01,9.99999e-01,2.44556e-01,9.99666e-01,8.74247e-01,9.99999e-01
1.042182673e+00,2.41737e-01,9.99999e-01,2.75877e-01,9.99602e-01,8.76571e-01,9.99999e-01
1.047393587e+00,2.33658e-01,9.99999e-01,2.65993e-01,9.99473e-01,8.78855e-01,9.99999e-01
1.052630555e+00,2.46783e-02,9.99999e-01,2.80242e-02,9.99276e-01,8.81099e-01,9.99999e-01
1.057893707e+00,5.01167e-02,9.99999e-01,5.67896e-02,9.98791e-01,8.83305e-01,9.99999e-01
1.063183176e+00,1.09532e-01,9.99999e-01,1.23893e-01,9.98013e-01,8.85473e-01,9.99999e-01
1.068499092e+00,2.16207e-01,9.99999e-01,2.44311e-01,9.96676e-01,8.87603e-01,9.99999e-01
1.073841587e+00,3.65007e-01,9.99999e-01,4.11700e-01,9.96106e-01,8.89695e-01,9.99999e-01
1.079210795e+00,5.06708e-01,9.99999e-01,5.70903e-01,9.95021e-01,8.91752e-01,9.99999e-01
1.084606849e+00,6.53195e-01,9.99999e-01,7.36223e-01,9.92463e-01,8.93772e-01,9.99999e-01
1.090029883e+00,7.56162e-01,9.99999e-01,8.53260e-01,9.89158e-01,8.95757e-01,9.99999e-01
1.095480033e+00,8.06150e-01,9.99999e-01,9.24896e-01,9.70747e-01,8.97707e-01,9.99998e-01
1.100957433e+00,8.03548e-01,9.99999e-01,9.63120e-01,9.27194e-01,8.99622e-01,9.99998e-01
1.106462220e+00,7.31806e-01,9.99999e-01,9.84597e-01,8.24180e-01,9.01504e-01,9.99996e-01
1.111994531e+00,5.97846e-01,9.99999e-01,9.94265e-01,6.65457e-01,9.03352e-01,9.99993e-01
1.117554504e+00,4.66716e-01,9.99999e-01,9.98600e-01,5.16253e-01,9.05168e-01,9.99991e-01
1.123142276e+00,5.54930e-01,9.99999e-01,9.99907e-01,6.11904e-01,9.06951e-01,9.99990e-01
1.128757988e+00,6.65024e-01,9.99999e-01,9.99999e-01,7.31846e-01,9.08702e-01,9.99989e-01
1.134401778e+00,4.41777e-01,9.99999e-01,9.99999e-01,4.85250e-01,9.10422e-01,9.99988e-01
1.140073787e+00,7.58267e-01,9.99999e-01,9.99999e-01,8.31339e-01,9.12111e-01,9.99990e-01
1.145774156e+00,6.20162e-01,9.99999e-01,9.99999e-01,6.78689e-01,9.13770e-01,9.99991e-01
1.151503026e+00,5.93174e-01,9.99999e-01,9.99999e-01,6.47999e-01,9.15399e-01,9.99992e-01
1.157260541e+00,6.41390e-01,9.99999e-01,9.99999e-01,6.99448e-01,9.16999e-01,9.99994e-01
1.163046844e+00,7.05834e-01,9.99999e-01,9.99999e-01,7.68407e-01,9.18570e-01,9.99996e-01
1.168862078e+00,7.66848e-01,9.99999e-01,9.99999e-01,8.33429e-01,9.20112e-01,9.99997e-01
1.174706389e+00,8.23626e-01,9.99999e-01,9.99999e-01,8.93666e-01,9.21627e-01,9.99998e-01
1.180579921e+00,8.62093e-01,9.99999e-01,9.99999e-01,9.33897e-01,9.23114e-01,9.99998e-01
1.186482820e+00,8.89552e-01,9.99999e-01,9.99995e-01,9.62125e-01,9.24573e-01,9.99999e-01
1.192415234e+00,8.98186e-01,9.99999e-01,9.91998e-01,9.77726e-01,9.26007e-01,9.99999e-01
1.198377311e+00,5.26589e-01,9.99999e-01,5.76921e-01,9.81180e-01,9.27414e-01,9.99999e-01
1.204369197e+00,1.61447e-07,9.99999e-01,1.75636e-07,9.82180e-01,9.28795e-01,9.99999e-01
1.210391043e+00,7.14887e-25,9.99999e-01,7.75932e-25,9.82960e-01,9.30151e-01,9.99999e-01
1.216442998e+00,9.09443e-22,9.99999e-01,9.85202e-22,9.85499e-01,9.31483e-01,9.99999e-01
1.222525213e+00,1.85096e-21,9.99999e-01,1.99604e-21,9.88693e-01,9.32789e-01,9.99999e-01
1.228637839e+00,1.48074e-16,9.99999e-01,1.59412e-16,9.92135e-01,9.34072e-01,9.99999e-01
