#,Wave/freq,Total,O2,CO2,H2O,Rayleigh,CIA
4.000000000e-01,1.59770e-02,9.99999e-01,9.99999e-01,9.99991e-01,1.59771e-02,9.99999e-01
4.020000000e-01,1.73387e-02,9.99999e-01,9.99999e-01,9.99994e-01,1.73388e-02,9.99999e-01
4.040100000e-01,1.87846e-02,9.99999e-01,9.99999e-01,9.99997e-01,1.87847e-02,9.99999e-01
4.060300500e-01,2.03189e-02,9.99999e-01,9.99999e-01,9.99999e-01,2.03189e-02,9.99999e-01
4.080602003e-01,2.19444e-02,9.99999e-01,9.99999e-01,9.99999e-01,2.19444e-02,9.99999e-01
4.101005013e-01,2.36639e-02,9.99999e-01,9.99999e-01,9.99999e-01,2.36639e-02,9.99999e-01
4.121510038e-01,2.54801e-02,9.99999e-01,9.99999e-01,9.99999e-01,2.54801e-02,9.99999e-01
4.142117588e-01,2.73957e-02,9.99999e-01,9.99999e-01,9.99997e-01,2.73958e-02,9.99999e-01
4.162828176e-01,2.94130e-02,9.99999e-01,9.99999e-01,9.99989e-01,2.94133e-02,9.99999e-01
4.183642317e-01,3.15348e-02,9.99999e-01,9.99999e-01,9.99993e-01,3.15350e-02,9.99999e-01
4.204560528e-01,3.37632e-02,9.99999e-01,9.99999e-01,9.99995e-01,3.37634e-02,9.99999e-01
4.225583331e-01,3.61004e-02,9.99999e-01,9.99999e-01,9.99998e-01,3.61004e-02,9.99999e-01
4.246711247e-01,3.85483e-02,9.99999e-01,9.99999e-01,9.99998e-01,3.85483e-02,9.99999e-01
4.267944804e-01,4.11088e-02,9.99999e-01,9.99999e-01,9.99997e-01,4.11088e-02,9.99999e-01
4.289284528e-01,4.37837e-02,9.99999e-01,9.99999e-01,9.99998e-01,4.37838e-02,9.99999e-01
4.310730950e-01,4.65747e-02,9.99999e-01,9.99999e-01,9.99998e-01,4.65748e-02,9.99999e-01
4.332284605e-01,4.94832e-02,9.99999e-01,9.99999e-01,9.99999e-01,4.94832e-02,9.99999e-01
4.353946028e-01,5.25104e-02,9.99999e-01,9.99999e-01,9.99999e-01,5.25104e-02,9.99999e-01
4.375715758e-01,5.56575e-02,9.99999e-01,9.99999e-01,9.99998e-01,5.56575e-02,9.99999e-01
4.397594337e-01,5.89249e-02,9.99999e-01,9.99999e-01,9.99990e-01,5.89255e-02,9.99999e-01
4.419582309e-01,6.23122e-02,9.99999e-01,9.99999e-01,9.99955e-01,6.23150e-02,9.99999e-01
4.441680220e-01,6.58244e-02,9.99999e-01,9.99999e-01,9.99964e-01,6.58267e-02,9.99999e-01
4.463888621e-01,6.94586e-02,9.99999e-01,9.99999e-01,9.99963e-01,6.94611e-02,9.99999e-01
4.486208064e-01,7.32167e-02,9.99999e-01,9.99999e-01,9.99976e-01,7.32184e-02,9.99999e-01
4.508639105e-01,7.70978e-02,9.99999e-01,9.99999e-01,9.99988e-01,7.70987e-02,9.99999e-01
4.531182300e-01,8.11014e-02,9.99999e-01,9.99999e-01,9.99995e-01,8.11018e-02,9.99999e-01
4.553838212e-01,8.52273e-02,9.99999e-01,9.99999e-01,9.99996e-01,8.52275e-02,9.99999e-01
4.576607403e-01,8.94752e-02,9.99999e-01,9.99999e-01,9.99998e-01,8.94754e-02,9.99999e-01
4.599490440e-01,9.38446e-02,9.99999e-01,9.99999e-01,9.99998e-01,9.38447e-02,9.99999e-01
4.622487892e-01,9.83348e-02,9.99999e-01,9.99999e-01,9.99999e-01,9.83348e-02,9.99999e-01
4.645600332e-01,1.02945e-01,9.99999e-01,9.99999e-01,9.99998e-01,1.02945e-01,9.99999e-01
4.668828333e-01,1.07672e-01,9.99999e-01,9.99999e-01,9.99988e-01,1.07673e-01,9.99999e-01
4.692172475e-01,1.12516e-01,9.99999e-01,9.99999e-01,9.99976e-01,1.12519e-01,9.99999e-01
4.715633337e-01,1.17479e-01,9.99999e-01,9.99999e-01,9.99984e-01,1.17481e-01,9.99999e-01
4.739211504e-01,1.22555e-01,9.99999e-01,9.99999e-01,9.99985e-01,1.22557e-01,9.99999e-01
4.762907561e-01,1.27744e-01,9.99999e-01,9.99999e-01,9.99992e-01,1.27745e-01,9.99999e-01
4.786722099e-01,1.33044e-01,9.99999e-01,9.99999e-01,9.99996e-01,1.33044e-01,9.99999e-01
4.810655710e-01,1.38452e-01,9.99999e-01,9.99999e-01,9.99998e-01,1.38452e-01,9.99999e-01
4.834708988e-01,1.43965e-01,9.99999e-01,9.99999e-01,9.99990e-01,1.43966e-01,9.99999e-01
4.858882533e-01,1.49582e-01,9.99999e-01,9.99999e-01,9.99983e-01,1.49585e-01,9.99999e-01
4.883176946e-01,1.55303e-01,9.99999e-01,9.99999e-01,9.99986e-01,1.55305e-01,9.99999e-01
4.907592831e-01,1.61122e-01,9.99999e-01,9.99999e-01,9.99987e-01,1.61124e-01,9.99999e-01
4.932130795e-01,1.67039e-01,9.99999e-01,9.99999e-01,9.99990e-01,1.67041e-01,9.99999e-01
4.956791449e-01,1.73050e-01,9.99999e-01,9.99999e-01,9.99994e-01,1.73051e-01,9.99999e-01
4.981575406e-01,1.79148e-01,9.99999e-01,9.99999e-01,9.99976e-01,1.79152e-01,9.99999e-01
5.006483283e-01,1.85330e-01,9.99999e-01,9.99999e-01,9.99940e-01,1.85341e-01,9.99999e-01
5.031515699e-01,1.91558e-01,9.99999e-01,9.99999e-01,9.99698e-01,1.91616e-01,9.99999e-01
5.056673278e-01,1.97941e-01,9.99999e-01,9.99999e-01,9.99840e-01,1.97973e-01,9.99999e-01
5.081956644e-01,2.04367e-01,9.99999e-01,9.99999e-01,9.99798e-01,2.04408e-01,9.99999e-01
5.107366428e-01,2.10892e-01,9.99999e-01,9.99999e-01,9.99864e-01,2.10920e-01,9.99999e-01
5.132903260e-01,2.17488e-01,9.99999e-01,9.99999e-01,9.99922e-01,2.17505e-01,9.99999e-01
5.158567776e-01,2.24151e-01,9.99999e-01,9.99999e-01,9.99966e-01,2.24158e-01,9.99999e-01
5.184360615e-01,2.30875e-01,9.99999e-01,9.99999e-01,9.99986e-01,2.30878e-01,9.99999e-01
5.210282418e-01,2.37660e-01,9.99999e-01,9.99999e-01,9.99994e-01,2.37661e-01,9.99999e-01
5.236333830e-01,2.44498e-01,9.99999e-01,9.99999e-01,9.99979e-01,2.44503e-01,9.99999e-01
5.262515499e-01,2.51398e-01,9.99999e-01,9.99999e-01,9.99987e-01,2.51401e-01,9.99999e-01
5.288828077e-01,2.58349e-01,9.99999e-01,9.99999e-01,9.99988e-01,2.58352e-01,9.99999e-01
5.315272217e-01,2.65349e-01,9.99999e-01,9.99999e-01,9.99989e-01,2.65352e-01,9.99999e-01
5.341848578e-01,2.72395e-01,9.99999e-01,9.99999e-01,9.99993e-01,2.72397e-01,9.99999e-01
5.368557821e-01,2.79479e-01,9.99999e-01,9.99999e-01,9.99976e-01,2.79485e-01,9.99999e-01
5.395400610e-01,2.86589e-01,9.99999e-01,9.99999e-01,9.99917e-01,2.86612e-01,9.99999e-01
5.422377613e-01,2.93743e-01,9.99999e-01,9.99999e-01,9.99892e-01,2.93775e-01,9.99999e-01
5.449489501e-01,3.00940e-01,9.99999e-01,9.99999e-01,9.99900e-01,3.00969e-01,9.99999e-01
5.476736949e-01,3.08166e-01,9.99999e-01,9.99999e-01,9.99911e-01,3.08193e-01,9.99999e-01
5.504120634e-01,3.15422e-01,9.99999e-01,9.99999e-01,9.99935e-01,3.15442e-01,9.99999e-01
5.531641237e-01,3.22703e-01,9.99999e-01,9.99999e-01,9.99967e-01,3.22714e-01,9.99999e-01
5.559299443e-01,3.29999e-01,9.99999e-01,9.99999e-01,9.99984e-01,3.30004e-01,9.99999e-01
5.587095940e-01,3.37307e-01,9.99999e-01,9.99999e-01,9.99989e-01,3.37311e-01,9.99999e-01
5.615031420e-01,3.44626e-01,9.99999e-01,9.99999e-01,9.99988e-01,3.44630e-01,9.99999e-01
5.643106577e-01,3.51954e-01,9.99999e-01,9.99999e-01,9.99987e-01,3.51958e-01,9.99999e-01
5.671322110e-01,3.59240e-01,9.99999e-01,9.99999e-01,9.99851e-01,3.59293e-01,9.99999e-01
5.699678720e-01,3.66573e-01,9.99999e-01,9.99999e-01,9.99840e-01,3.66632e-01,9.99999e-01
5.728177114e-01,3.73909e-01,9.99999e-01,9.99999e-01,9.99834e-01,3.73970e-01,9.99999e-01
5.756818000e-01,3.81249e-01,9.99999e-01,9.99999e-01,9.99848e-01,3.81307e-01,9.99999e-01
5.785602090e-01,3.88587e-01,9.99999e-01,9.99999e-01,9.99867e-01,3.88638e-01,9.99999e-01
5.814530100e-01,3.95909e-01,9.99999e-01,9.99999e-01,9.99867e-01,3.95962e-01,9.99999e-01
5.843602750e-01,4.03211e-01,9.99999e-01,9.99999e-01,9.99842e-01,4.03274e-01,9.99999e-01
5.872820764e-01,4.10016e-01,9.99999e-01,9.99999e-01,9.98641e-01,4.10573e-01,9.99999e-01
5.902184868e-01,4.17167e-01,9.99999e-01,9.99999e-01,9.98347e-01,4.17857e-01,9.99999e-01
5.931695792e-01,4.24626e-01,9.99999e-01,9.99999e-01,9.98833e-01,4.25121e-01,9.99999e-01
5.961354271e-01,4.31812e-01,9.99999e-01,9.99999e-01,9.98720e-01,4.32365e-01,9.99999e-01
5.991161043e-01,4.39176e-01,9.99999e-01,9.99999e-01,9.99066e-01,4.39586e-01,9.99999e-01
6.021116848e-01,4.46544e-01,9.99999e-01,9.99999e-01,9.99469e-01,4.46781e-01,9.99999e-01
6.051222432e-01,4.53826e-01,9.99999e-01,9.99999e-01,9.99731e-01,4.53948e-01,9.99999e-01
6.081478544e-01,4.61032e-01,9.99999e-01,9.99999e-01,9.99883e-01,4.61085e-01,9.99999e-01
6.111885937e-01,4.68167e-01,9.99999e-01,9.99999e-01,9.99950e-01,4.68190e-01,9.99999e-01
6.142445367e-01,4.75250e-01,9.99999e-01,9.99999e-01,9.99977e-01,4.75261e-01,9.99999e-01
6.173157594e-01,4.82290e-01,9.99999e-01,9.99999e-01,9.99987e-01,4.82296e-01,9.99999e-01
6.204023382e-01,4.89288e-01,9.99999e-01,9.99999e-01,9.99989e-01,4.89293e-01,9.99999e-01
6.235043498e-01,4.96228e-01,9.99999e-01,9.99999e-01,9.99955e-01,4.96250e-01,9.99999e-01
6.266218716e-01,5.03046e-01,9.99999e-01,9.99999e-01,9.99762e-01,5.03166e-01,9.99999e-01
6.297549810e-01,5.09994e-01,9.99999e-01,9.99999e-01,9.99912e-01,5.10039e-01,9.99999e-01
6.329037559e-01,5.16778e-01,9.99999e-01,9.99999e-01,9.99827e-01,5.16867e-01,9.99999e-01
6.360682746e-01,5.23572e-01,9.99999e-01,9.99999e-01,9.99853e-01,5.23649e-01,9.99999e-01
6.392486160e-01,5.30283e-01,9.99999e-01,9.99999e-01,9.99809e-01,5.30383e-01,9.99999e-01
6.424448591e-01,5.36933e-01,9.99999e-01,9.99999e-01,9.99746e-01,5.37069e-01,9.99999e-01
6.456570834e-01,5.43064e-01,9.99999e-01,9.99999e-01,9.98823e-01,5.43704e-01,9.99999e-01
6.488853688e-01,5.49811e-01,9.99999e-01,9.99999e-01,9.99134e-01,5.50287e-01,9.99999e-01
6.521297956e-01,5.56327e-01,9.99999e-01,9.99999e-01,9.99117e-01,5.56818e-01,9.99999e-01
6.553904446e-01,5.62805e-01,9.99999e-01,9.99999e-01,9.99127e-01,5.63296e-01,9.99999e-01
6.586673968e-01,5.69290e-01,9.99999e-01,9.99999e-01,9.99248e-01,5.69718e-01,9.99999e-01
6.619607338e-01,5.75834e-01,9.99999e-01,9.99999e-01,9.99565e-01,5.76085e-01,9.99999e-01
6.652705375e-01,5.82248e-01,9.99999e-01,9.99999e-01,9.99747e-01,5.82394e-01,9.99999e-01
6.685968902e-01,5.88578e-01,9.99999e-01,9.99999e-01,9.99882e-01,5.88647e-01,9.99999e-01
6.719398746e-01,5.94808e-01,9.99999e-01,9.99999e-01,9.99945e-01,5.94841e-01,9.99999e-01
6.752995740e-01,6.00958e-01,9.99999e-01,9.99999e-01,9.99970e-01,6.00976e-01,9.99999e-01
6.786760719e-01,6.07025e-01,9.99999e-01,9.99999e-01,9.99957e-01,6.07051e-01,9.99999e-01
6.820694522e-01,6.13021e-01,9.99999e-01,9.99999e-01,9.99927e-01,6.13065e-01,9.99999e-01
6.854797995e-01,6.18961e-01,9.99999e-01,9.99999e-01,9.99906e-01,6.19019e-01,9.99999e-01
6.889071985e-01,6.24771e-01,9.99999e-01,9.99999e-01,9.99775e-01,6.24911e-01,9.99999e-01
6.923517345e-01,6.28418e-01,9.99999e-01,9.99999e-01,9.96316e-01,6.30742e-01,9.99999e-01
6.958134932e-01,6.35279e-01,9.99999e-01,9.99999e-01,9.98066e-01,6.36509e-01,9.99999e-01
6.992925606e-01,6.41046e-01,9.99999e-01,9.99999e-01,9.98179e-01,6.42215e-01,9.99999e-01
7.027890234e-01,6.46396e-01,9.99999e-01,9.99999e-01,9.97745e-01,6.47857e-01,9.99999e-01
7.063029686e-01,6.52198e-01,9.99999e-01,9.99999e-01,9.98105e-01,6.53436e-01,9.99999e-01
7.098344834e-01,6.57753e-01,9.99999e-01,9.99999e-01,9.98182e-01,6.58951e-01,9.99999e-01
7.133836558e-01,6.62800e-01,9.99999e-01,9.99999e-01,9.97588e-01,6.64402e-01,9.99999e-01
7.169505741e-01,6.56802e-01,9.99999e-01,9.99999e-01,9.80608e-01,6.69790e-01,9.99999e-01
7.205353270e-01,6.68639e-01,9.99999e-01,9.99999e-01,9.90409e-01,6.75113e-01,9.99999e-01
7.241380036e-01,6.72153e-01,9.99999e-01,9.99999e-01,9.87918e-01,6.80373e-01,9.99999e-01
7.277586936e-01,6.78086e-01,9.99999e-01,9.99999e-01,9.89086e-01,6.85568e-01,9.99999e-01
7.313974871e-01,6.82675e-01,9.99999e-01,9.99999e-01,9.88381e-01,6.90699e-01,9.99999e-01
7.350544745e-01,6.91348e-01,9.99999e-01,9.99999e-01,9.93649e-01,6.95766e-01,9.99999e-01
7.387297469e-01,6.97494e-01,9.99999e-01,9.99999e-01,9.95325e-01,7.00769e-01,9.99999e-01
7.424233956e-01,7.04093e-01,9.99999e-01,9.99999e-01,9.97709e-01,7.05708e-01,9.99999e-01
7.461355126e-01,7.09598e-01,9.99999e-01,9.99999e-01,9.98612e-01,7.10584e-01,9.99999e-01
7.498661902e-01,7.14933e-01,9.99999e-01,9.99999e-01,9.99353e-01,7.15396e-01,9.99999e-01
7.536155211e-01,7.19916e-01,9.99999e-01,9.99999e-01,9.99682e-01,7.20144e-01,9.99999e-01
7.573835987e-01,7.24711e-01,9.99999e-01,9.99999e-01,9.99836e-01,7.24829e-01,9.99999e-01
7.611705167e-01,7.29378e-01,9.99999e-01,9.99999e-01,9.99898e-01,7.29451e-01,9.99999e-01
7.649763693e-01,7.33964e-01,9.99999e-01,9.99999e-01,9.99936e-01,7.34011e-01,9.99999e-01
7.688012511e-01,7.38475e-01,9.99999e-01,9.99999e-01,9.99955e-01,7.38508e-01,9.99999e-01
7.726452574e-01,7.42916e-01,9.99999e-01,9.99999e-01,9.99963e-01,7.42943e-01,9.99999e-01
7.765084837e-01,7.47278e-01,9.99999e-01,9.99999e-01,9.99948e-01,7.47316e-01,9.99999e-01
7.803910261e-01,7.40835e-01,9.99999e-01,9.85855e-01,9.99777e-01,7.51628e-01,9.99999e-01
7.842929812e-01,7.10135e-01,9.99999e-01,9.40196e-01,9.99223e-01,7.55879e-01,9.99999e-01
7.882144461e-01,7.10308e-01,9.99999e-01,9.36006e-01,9.98395e-01,7.60069e-01,9.99999e-01
7.921555184e-01,7.35171e-01,9.99999e-01,9.62854e-01,9.99118e-01,7.64199e-01,9.99999e-01
7.961162960e-01,7.47897e-01,9.99999e-01,9.74988e-01,9.98448e-01,7.68269e-01,9.99999e-01
8.000968774e-01,7.60399e-01,9.99999e-01,9.86384e-01,9.98204e-01,7.72280e-01,9.99999e-01
8.040973618e-01,7.69352e-01,9.99999e-01,9.92916e-01,9.98204e-01,7.76232e-01,9.99999e-01
8.081178486e-01,7.74453e-01,9.99999e-01,9.96749e-01,9.95963e-01,7.80126e-01,9.99999e-01
8.121584379e-01,7.70028e-01,9.99999e-01,9.98991e-01,9.83213e-01,7.83961e-01,9.99999e-01
8.162192301e-01,7.71815e-01,9.99999e-01,9.99776e-01,9.80001e-01,7.87739e-01,9.99999e-01
8.203003262e-01,7.83543e-01,9.99999e-01,9.99996e-01,9.89999e-01,7.91460e-01,9.99999e-01
8.244018279e-01,7.83881e-01,9.99999e-01,9.99999e-01,9.85858e-01,7.95125e-01,9.99999e-01
8.285238370e-01,7.89209e-01,9.99999e-01,9.99999e-01,9.88074e-01,7.98734e-01,9.99999e-01
8.326664562e-01,7.92593e-01,9.99999e-01,9.99999e-01,9.87916e-01,8.02287e-01,9.99999e-01
8.368297885e-01,7.98830e-01,9.99999e-01,9.99999e-01,9.91366e-01,8.05786e-01,9.99999e-01
8.410139374e-01,8.05075e-01,9.99999e-01,9.99999e-01,9.94865e-01,8.09230e-01,9.99999e-01
8.452190071e-01,8.10573e-01,9.99999e-01,9.99999e-01,9.97479e-01,8.12621e-01,9.99999e-01
8.494451021e-01,8.14767e-01,9.99999e-01,9.99999e-01,9.98539e-01,8.15958e-01,9.99999e-01
8.536923276e-01,8.18534e-01,9.99999e-01,9.99999e-01,9.99135e-01,8.19243e-01,9.99999e-01
8.579607893e-01,8.22038e-01,9.99999e-01,9.99999e-01,9.99467e-01,8.22475e-01,9.99999e-01
8.622505932e-01,8.25377e-01,9.99999e-01,9.99999e-01,9.99661e-01,8.25656e-01,9.99999e-01
8.665618462e-01,7.96347e-01,9.99999e-01,9.61054e-01,9.99790e-01,8.28787e-01,9.99999e-01
8.708946554e-01,7.09219e-01,9.99999e-01,8.52763e-01,9.99760e-01,8.31867e-01,9.99999e-01
8.752491287e-01,7.35466e-01,9.99999e-01,8.81184e-01,9.99679e-01,8.34897e-01,9.99999e-01
8.796253743e-01,7.81965e-01,9.99999e-01,9.33675e-01,9.99557e-01,8.37878e-01,9.99999e-01
8.840235012e-01,8.11191e-01,9.99999e-01,9.65257e-01,9.99494e-01,8.40810e-01,9.99999e-01
8.884436187e-01,8.30508e-01,9.99999e-01,9.86170e-01,9.98166e-01,8.43695e-01,9.99999e-01
8.928858368e-01,8.25525e-01,9.99999e-01,9.94386e-01,9.80670e-01,8.46532e-01,9.99999e-01
8.973502660e-01,8.19214e-01,9.99999e-01,9.98630e-01,9.65861e-01,8.49323e-01,9.99999e-01
9.018370173e-01,8.36920e-01,9.99999e-01,9.99848e-01,9.82369e-01,8.52067e-01,9.99999e-01
9.063462024e-01,8.38403e-01,9.99999e-01,9.96157e-01,9.84592e-01,8.54766e-01,9.99998e-01
9.108779334e-01,8.29490e-01,9.99999e-01,9.91158e-01,9.76013e-01,8.57419e-01,9.99998e-01
9.154323231e-01,8.34905e-01,9.99999e-01,9.97910e-01,9.72802e-01,8.60028e-01,9.99998e-01
9.200094847e-01,8.18458e-01,9.99999e-01,9.69123e-01,9.78591e-01,8.62594e-01,9.99998e-01
9.246095321e-01,8.00849e-01,9.99999e-01,9.57392e-01,9.66581e-01,8.65116e-01,9.99997e-01
9.292325798e-01,6.66375e-01,9.99999e-01,9.66399e-01,7.93450e-01,8.67595e-01,9.99996e-01
9.338787427e-01,6.23977e-01,9.99999e-01,9.67493e-01,7.40046e-01,8.70033e-01,9.99995e-01
9.385481364e-01,7.55008e-01,9.99999e-01,9.76079e-01,8.86071e-01,8.72429e-01,9.99995e-01
9.432408771e-01,7.27227e-01,9.99999e-01,9.85296e-01,8.43419e-01,8.74784e-01,9.99994e-01
9.479570815e-01,6.85814e-01,9.99999e-01,9.92440e-01,7.87717e-01,8.77098e-01,9.99995e-01
9.526968669e-01,7.34509e-01,9.99999e-01,9.96344e-01,8.38199e-01,8.79373e-01,9.99996e-01
9.574603512e-01,7.51475e-01,9.99999e-01,9.98435e-01,8.53690e-01,8.81609e-01,9.99997e-01
9.622476530e-01,7.77126e-01,9.99999e-01,9.99511e-01,8.79715e-01,8.83806e-01,9.99997e-01
9.670588912e-01,8.22974e-01,9.99999e-01,9.99853e-01,9.29034e-01,8.85965e-01,9.99998e-01
9.718941857e-01,8.48419e-01,9.99999e-01,9.99989e-01,9.55344e-01,8.88086e-01,9.99998e-01
9.767536566e-01,8.57069e-01,9.99999e-01,9.99999e-01,9.62814e-01,8.90170e-01,9.99999e-01
9.816374249e-01,8.67522e-01,9.99999e-01,9.99999e-01,9.72320e-01,8.92218e-01,9.99999e-01
9.865456120e-01,8.78699e-01,9.99999e-01,9.99999e-01,9.82630e-01,8.94231e-01,9.99999e-01
9.914783401e-01,8.86564e-01,9.99999e-01,9.99999e-01,9.89239e-01,8.96207e-01,9.99999e-01
9.964357318e-01,8.92874e-01,9.99999e-01,9.99999e-01,9.94126e-01,8.98149e-01,9.99999e-01
1.001417910e+00,8.96886e-01,9.99999e-01,9.99999e-01,9.96476e-01,9.00057e-01,9.99999e-01
1.006425000e+00,9.00121e-01,9.99999e-01,9.99999e-01,9.97992e-01,9.01931e-01,9.99999e-01
1.011457125e+00,9.02644e-01,9.99999e-01,9.99999e-01,9.98752e-01,9.03772e-01,9.99999e-01
1.016514411e+00,9.04813e-01,9.99999e-01,9.99999e-01,9.99153e-01,9.05580e-01,9.99999e-01
1.021596983e+00,9.06726e-01,9.99999e-01,9.99980e-01,9.99325e-01,9.07355e-01,9.99999e-01
1.026704968e+00,9.07268e-01,9.99999e-01,9.98509e-01,9.99473e-01,9.09100e-01,9.99999e-01
1.031838492e+00,8.90002e-01,9.99999e-01,9.77518e-01,9.99617e-01,9.10812e-01,9.99999e-01
1.036997685e+00,3.04116e-01,9.99999e-01,3.33344e-01,9.99772e-01,9.12495e-01,9.99999e-01
1.042182673e+00,3.73033e-01,9.99999e-01,4.08171e-01,9.99729e-01,9.14147e-01,9.99999e-01
1.047393587e+00,3.37456e-01,9.99999e-01,3.68615e-01,9.99641e-01,9.15769e-01,9.99999e-01
1.052630555e+00,6.83986e-02,9.99999e-01,7.45897e-02,9.99507e-01,9.17362e-01,9.99999e-01
1.057893707e+00,1.20540e-01,9.99999e-01,1.31263e-01,9.99179e-01,9.18926e-01,9.99999e-01
1.063183176e+00,2.12545e-01,9.99999e-01,2.31172e-01,9.98648e-01,9.20462e-01,9.99999e-01
1.068499092e+00,3.49370e-01,9.99999e-01,3.79732e-01,9.97736e-01,9.21970e-01,9.99999e-01
1.073841587e+00,4.99899e-01,9.99999e-01,5.42664e-01,9.97351e-01,9.23451e-01,9.99999e-01
1.079210795e+00,6.27382e-01,9.99999e-01,6.80544e-01,9.96603e-01,9.24905e-01,9.99999e-01
1.084606849e+00,7.47199e-01,9.99999e-01,8.10703e-01,9.94863e-01,9.26332e-01,9.99999e-01
1.090029883e+00,8.26269e-01,9.99999e-01,8.97160e-01,9.92640e-01,9.27733e-01,9.99999e-01
1.095480033e+00,8.63267e-01,9.99999e-01,9.47964e-01,9.80049e-01,9.29109e-01,9.99999e-01
1.100957433e+00,8.61556e-01,9.99999e-01,9.74630e-01,9.49947e-01,9.30459e-01,9.99998e-01
1.106462220e+00,8.08454e-01,9.99999e-01,9.89430e-01,8.76770e-01,9.31785e-01,9.99997e-01
1.111994531e+00,7.03060e-01,9.99999e-01,9.96071e-01,7.56359e-01,9.33086e-01,9.99995e-01
1.117554504e+00,5.92125e-01,9.99999e-01,9.99037e-01,6.34281e-01,9.34363e-01,9.99994e-01
1.123142276e+00,6.63962e-01,9.99999e-01,9.99936e-01,7.09688e-01,9.35617e-01,9.99993e-01
1.128757988e+00,7.55324e-01,9.99999e-01,9.99999e-01,8.06244e-01,9.36848e-01,9.99992e-01
1.134401778e+00,5.52856e-01,9.99999e-01,9.99999e-01,5.89367e-01,9.38056e-01,9.99991e-01
1.140073787e+00,8.27764e-01,9.99999e-01,9.99999e-01,8.81316e-01,9.39241e-01,9.99993e-01
1.145774156e+00,7.19607e-01,9.99999e-01,9.99999e-01,7.65213e-01,9.40405e-01,9.99994e-01
1.151503026e+00,6.97208e-01,9.99999e-01,9.99999e-01,7.40495e-01,9.41547e-01,9.99994e-01
1.157260541e+00,7.37707e-01,9.99999e-01,9.99999e-01,7.82575e-01,9.42668e-01,9.99996e-01
1.163046844e+00,7.87743e-01,9.99999e-01,9.99999e-01,8.34680e-01,9.43768e-01,9.99997e-01
1.168862078e+00,8.34148e-01,9.99999e-01,9.99999e-01,8.82839e-01,9.44847e-01,9.99998e-01
1.174706389e+00,8.75930e-01,9.99999e-01,9.99999e-01,9.26021e-01,9.45907e-01,9.99998e-01
1.180579921e+00,9.03696e-01,9.99999e-01,9.99999e-01,9.54327e-01,9.46946e-01,9.99999e-01
1.186482820e+00,9.23303e-01,9.99999e-01,9.99997e-01,9.73985e-01,9.47966e-01,9.99999e-01
1.192415234e+00,9.29519e-01,9.99999e-01,9.94644e-01,9.84754e-01,9.48967e-01,9.99999e-01
1.198377311e+00,5.60740e-01,9.99999e-01,5.96771e-01,9.87144e-01,9.49950e-01,9.99999e-01
1.204369197e+00,7.80694e-06,9.99999e-01,8.26817e-06,9.87817e-01,9.50914e-01,9.99999e-01
1.210391043e+00,1.16029e-17,9.99999e-01,1.22691e-17,9.88351e-01,9.51859e-01,9.99999e-01
1.216442998e+00,1.55976e-15,9.99999e-01,1.64718e-15,9.90074e-01,9.52788e-01,9.99999e-01
1.222525213e+00,2.71686e-15,9.99999e-01,2.86060e-15,9.92271e-01,9.53698e-01,9.99999e-01
1.228637839e+00,1.00411e-11,9.99999e-01,1.05595e-11,9.94630e-01,9.54592e-01,9.99999e-01
