#,Wave/freq,Total,O2,CO2,H2O,Rayleigh,CIA
4.000000000e-01,2.94841e-26,9.99999e-01,9.99999e-01,9.99884e-01,2.94875e-26,9.99999e-01
4.020000000e-01,9.42813e-26,9.99999e-01,9.99999e-01,9.99927e-01,9.42880e-26,9.99999e-01
4.040100000e-01,2.94279e-25,9.99999e-01,9.99999e-01,9.99969e-01,2.94288e-25,9.99999e-01
4.060300500e-01,8.98095e-25,9.99999e-01,9.99999e-01,9.99992e-01,8.98102e-25,9.99999e-01
4.080602003e-01,2.68106e-24,9.99999e-01,9.99999e-01,9.99997e-01,2.68106e-24,9.99999e-01
4.101005013e-01,7.83260e-24,9.99999e-01,9.99999e-01,9.99999e-01,7.83261e-24,9.99999e-01
4.121510038e-01,2.24030e-23,9.99999e-01,9.99999e-01,9.99995e-01,2.24031e-23,9.99999e-01
4.142117588e-01,6.27600e-23,9.99999e-01,9.99999e-01,9.99968e-01,6.27619e-23,9.99999e-01
4.162828176e-01,1.72260e-22,9.99999e-01,9.99999e-01,9.99856e-01,1.72285e-22,9.99999e-01
4.183642317e-01,4.63552e-22,9.99999e-01,9.99999e-01,9.99914e-01,4.63591e-22,9.99999e-01
4.204560528e-01,1.22323e-21,9.99999e-01,9.99999e-01,9.99947e-01,1.22330e-21,9.99999e-01
4.225583331e-01,3.16662e-21,9.99999e-01,9.99999e-01,9.99979e-01,3.16668e-21,9.99999e-01
4.246711247e-01,8.04474e-21,9.99999e-01,9.99999e-01,9.99984e-01,8.04486e-21,9.99999e-01
4.267944804e-01,2.00643e-20,9.99999e-01,9.99999e-01,9.99976e-01,2.00648e-20,9.99999e-01
4.289284528e-01,4.91476e-20,9.99999e-01,9.99999e-01,9.99981e-01,4.91485e-20,9.99999e-01
4.310730950e-01,1.18276e-19,9.99999e-01,9.99999e-01,9.99991e-01,1.18277e-19,9.99999e-01
4.332284605e-01,2.79741e-19,9.99999e-01,9.99999e-01,9.99997e-01,2.79742e-19,9.99999e-01
4.353946028e-01,6.50474e-19,9.99999e-01,9.99999e-01,9.99998e-01,6.50474e-19,9.99999e-01
4.375715758e-01,1.48750e-18,9.99999e-01,9.99999e-01,9.99985e-01,1.48752e-18,9.99999e-01
4.397594337e-01,3.34617e-18,9.99999e-01,9.99999e-01,9.99876e-01,3.34659e-18,9.99999e-01
4.419582309e-01,7.40479e-18,9.99999e-01,9.99999e-01,9.99374e-01,7.40942e-18,9.99999e-01
4.441680220e-01,1.61410e-17,9.99999e-01,9.99999e-01,9.99499e-01,1.61491e-17,9.99999e-01
4.463888621e-01,3.46422e-17,9.99999e-01,9.99999e-01,9.99483e-01,3.46601e-17,9.99999e-01
4.486208064e-01,7.32518e-17,9.99999e-01,9.99999e-01,9.99676e-01,7.32754e-17,9.99999e-01
4.508639105e-01,1.52616e-16,9.99999e-01,9.99999e-01,9.99848e-01,1.52639e-16,9.99999e-01
4.531182300e-01,3.13366e-16,9.99999e-01,9.99999e-01,9.99939e-01,3.13384e-16,9.99999e-01
4.553838212e-01,6.34309e-16,9.99999e-01,9.99999e-01,9.99959e-01,6.34334e-16,9.99999e-01
4.576607403e-01,1.26620e-15,9.99999e-01,9.99999e-01,9.99980e-01,1.26622e-15,9.99999e-01
4.599490440e-01,2.49325e-15,9.99999e-01,9.99999e-01,9.99986e-01,2.49329e-15,9.99999e-01
4.622487892e-01,4.84419e-15,9.99999e-01,9.99999e-01,9.99997e-01,4.84420e-15,9.99999e-01
4.645600332e-01,9.28904e-15,9.99999e-01,9.99999e-01,9.99990e-01,9.28912e-15,9.99999e-01
4.668828333e-01,1.75823e-14,9.99999e-01,9.99999e-01,9.99848e-01,1.75850e-14,9.99999e-01
4.692172475e-01,3.28620e-14,9.99999e-01,9.99999e-01,9.99675e-01,3.28726e-14,9.99999e-01
4.715633337e-01,6.06832e-14,9.99999e-01,9.99999e-01,9.99788e-01,6.06960e-14,9.99999e-01
4.739211504e-01,1.10697e-13,9.99999e-01,9.99999e-01,9.99796e-01,1.10720e-13,9.99999e-01
4.762907561e-01,1.99567e-13,9.99999e-01,9.99999e-01,9.99893e-01,1.99588e-13,9.99999e-01
4.786722099e-01,3.55606e-13,9.99999e-01,9.99999e-01,9.99956e-01,3.55622e-13,9.99999e-01
4.810655710e-01,6.26443e-13,9.99999e-01,9.99999e-01,9.99986e-01,6.26451e-13,9.99999e-01
4.834708988e-01,1.09113e-12,9.99999e-01,9.99999e-01,9.99878e-01,1.09126e-12,9.99999e-01
4.858882533e-01,1.87979e-12,9.99999e-01,9.99999e-01,9.99769e-01,1.88022e-12,9.99999e-01
4.883176946e-01,3.20435e-12,9.99999e-01,9.99999e-01,9.99808e-01,3.20496e-12,9.99999e-01
4.907592831e-01,5.40487e-12,9.99999e-01,9.99999e-01,9.99825e-01,5.40581e-12,9.99999e-01
4.932130795e-01,9.02322e-12,9.99999e-01,9.99999e-01,9.99876e-01,9.02433e-12,9.99999e-01
4.956791449e-01,1.49123e-11,9.99999e-01,9.99999e-01,9.99934e-01,1.49133e-11,9.99999e-01
4.981575406e-01,2.43939e-11,9.99999e-01,9.99999e-01,9.99675e-01,2.44018e-11,9.99999e-01
5.006483283e-01,3.95079e-11,9.99999e-01,9.99999e-01,9.99165e-01,3.95409e-11,9.99999e-01
5.031515699e-01,6.31943e-11,9.99999e-01,9.99999e-01,9.95742e-01,6.34645e-11,9.99999e-01
5.056673278e-01,1.00687e-10,9.99999e-01,9.99999e-01,9.97742e-01,1.00915e-10,9.99999e-01
5.081956644e-01,1.58549e-10,9.99999e-01,9.99999e-01,9.97150e-01,1.59002e-10,9.99999e-01
5.107366428e-01,2.47806e-10,9.99999e-01,9.99999e-01,9.98073e-01,2.48284e-10,9.99999e-01
5.132903260e-01,3.83878e-10,9.99999e-01,9.99999e-01,9.98896e-01,3.84302e-10,9.99999e-01
5.158567776e-01,5.89449e-10,9.99999e-01,9.99999e-01,9.99532e-01,5.89724e-10,9.99999e-01
5.184360615e-01,8.97161e-10,9.99999e-01,9.99999e-01,9.99812e-01,8.97328e-10,9.99999e-01
5.210282418e-01,1.35401e-09,9.99999e-01,9.99999e-01,9.99930e-01,1.35411e-09,9.99999e-01
5.236333830e-01,2.02630e-09,9.99999e-01,9.99999e-01,9.99721e-01,2.02686e-09,9.99999e-01
5.262515499e-01,3.00927e-09,9.99999e-01,9.99999e-01,9.99825e-01,3.00979e-09,9.99999e-01
5.288828077e-01,4.43391e-09,9.99999e-01,9.99999e-01,9.99840e-01,4.43462e-09,9.99999e-01
5.315272217e-01,6.48321e-09,9.99999e-01,9.99999e-01,9.99858e-01,6.48413e-09,9.99999e-01
5.341848578e-01,9.40910e-09,9.99999e-01,9.99999e-01,9.99908e-01,9.40996e-09,9.99999e-01
5.368557821e-01,1.35516e-08,9.99999e-01,9.99999e-01,9.99677e-01,1.35559e-08,9.99999e-01
5.395400610e-01,1.93659e-08,9.99999e-01,9.99999e-01,9.98843e-01,1.93883e-08,9.99999e-01
5.422377613e-01,2.74929e-08,9.99999e-01,9.99999e-01,9.98482e-01,2.75347e-08,9.99999e-01
5.449489501e-01,3.87795e-08,9.99999e-01,9.99999e-01,9.98599e-01,3.88339e-08,9.99999e-01
5.476736949e-01,5.43311e-08,9.99999e-01,9.99999e-01,9.98748e-01,5.43992e-08,9.99999e-01
5.504120634e-01,7.56289e-08,9.99999e-01,9.99999e-01,9.99091e-01,7.56976e-08,9.99999e-01
5.531641237e-01,1.04602e-07,9.99999e-01,9.99999e-01,9.99542e-01,1.04650e-07,9.99999e-01
5.559299443e-01,1.43721e-07,9.99999e-01,9.99999e-01,9.99778e-01,1.43752e-07,9.99999e-01
5.587095940e-01,1.96205e-07,9.99999e-01,9.99999e-01,9.99861e-01,1.96232e-07,9.99999e-01
5.615031420e-01,2.66187e-07,9.99999e-01,9.99999e-01,9.99846e-01,2.66228e-07,9.99999e-01
5.643106577e-01,3.58961e-07,9.99999e-01,9.99999e-01,9.99828e-01,3.59022e-07,9.99999e-01
5.671322110e-01,4.80314e-07,9.99999e-01,9.99999e-01,9.97931e-01,4.81309e-07,9.99999e-01
5.699678720e-01,6.40068e-07,9.99999e-01,9.99999e-01,9.97732e-01,6.41522e-07,9.99999e-01
5.728177114e-01,8.48242e-07,9.99999e-01,9.99999e-01,9.97665e-01,8.50226e-07,9.99999e-01
5.756818000e-01,1.11817e-06,9.99999e-01,9.99999e-01,9.97852e-01,1.12058e-06,9.99999e-01
5.785602090e-01,1.46610e-06,9.99999e-01,9.99999e-01,9.98123e-01,1.46886e-06,9.99999e-01
5.814530100e-01,1.91152e-06,9.99999e-01,9.99999e-01,9.98120e-01,1.91512e-06,9.99999e-01
5.843602750e-01,2.47840e-06,9.99999e-01,9.99999e-01,9.97780e-01,2.48392e-06,9.99999e-01
5.872820764e-01,3.14435e-06,9.99999e-01,9.99999e-01,9.81035e-01,3.20514e-06,9.99999e-01
5.902184868e-01,4.01946e-06,9.99999e-01,9.99999e-01,9.76783e-01,4.11500e-06,9.99999e-01
5.931695792e-01,5.17106e-06,9.99999e-01,9.99999e-01,9.83626e-01,5.25714e-06,9.99999e-01
5.961354271e-01,6.56356e-06,9.99999e-01,9.99999e-01,9.82000e-01,6.68386e-06,9.99999e-01
5.991161043e-01,8.34609e-06,9.99999e-01,9.99999e-01,9.86816e-01,8.45758e-06,9.99999e-01
6.021116848e-01,1.05723e-05,9.99999e-01,9.99999e-01,9.92488e-01,1.06524e-05,9.99999e-01
6.051222432e-01,1.33048e-05,9.99999e-01,9.99999e-01,9.96190e-01,1.33557e-05,9.99999e-01
6.081478544e-01,1.66430e-05,9.99999e-01,9.99999e-01,9.98356e-01,1.66704e-05,9.99999e-01
6.111885937e-01,2.07024e-05,9.99999e-01,9.99999e-01,9.99302e-01,2.07169e-05,9.99999e-01
6.142445367e-01,2.56273e-05,9.99999e-01,9.99999e-01,9.99688e-01,2.56353e-05,9.99999e-01
6.173157594e-01,3.15828e-05,9.99999e-01,9.99999e-01,9.99828e-01,3.15882e-05,9.99999e-01
6.204023382e-01,3.87577e-05,9.99999e-01,9.99999e-01,9.99855e-01,3.87633e-05,9.99999e-01
6.235043498e-01,4.73467e-05,9.99999e-01,9.99999e-01,9.99375e-01,4.73762e-05,9.99999e-01
6.266218716e-01,5.74800e-05,9.99999e-01,9.99999e-01,9.96637e-01,5.76739e-05,9.99999e-01
6.297549810e-01,6.98512e-05,9.99999e-01,9.99999e-01,9.98766e-01,6.99375e-05,9.99999e-01
6.329037559e-01,8.42799e-05,9.99999e-01,9.99999e-01,9.97553e-01,8.44865e-05,9.99999e-01
6.360682746e-01,1.01471e-04,9.99999e-01,9.99999e-01,9.97926e-01,1.01682e-04,9.99999e-01
6.392486160e-01,1.21602e-04,9.99999e-01,9.99999e-01,9.97307e-01,1.21930e-04,9.99999e-01
6.424448591e-01,1.45217e-04,9.99999e-01,9.99999e-01,9.96774e-01,1.45686e-04,9.99999e-01
6.456570834e-01,1.70627e-04,9.99999e-01,9.99999e-01,9.83660e-01,1.73461e-04,9.99999e-01
6.488853688e-01,2.02871e-04,9.99999e-01,9.99999e-01,9.85675e-01,2.05819e-04,9.99999e-01
6.521297956e-01,2.40365e-04,9.99999e-01,9.99999e-01,9.87569e-01,2.43391e-04,9.99999e-01
6.553904446e-01,2.83342e-04,9.99999e-01,9.99999e-01,9.87704e-01,2.86869e-04,9.99999e-01
6.586673968e-01,3.33434e-04,9.99999e-01,9.99999e-01,9.89364e-01,3.37018e-04,9.99999e-01
6.619607338e-01,3.92244e-04,9.99999e-01,9.99999e-01,9.93837e-01,3.94676e-04,9.99999e-01
6.652705375e-01,4.59107e-04,9.99999e-01,9.99999e-01,9.96416e-01,4.60758e-04,9.99999e-01
6.685968902e-01,5.35371e-04,9.99999e-01,9.99999e-01,9.98335e-01,5.36263e-04,9.99999e-01
6.719398746e-01,6.21792e-04,9.99999e-01,9.99999e-01,9.99226e-01,6.22273e-04,9.99999e-01
6.752995740e-01,7.19659e-04,9.99999e-01,9.99999e-01,9.99583e-01,7.19959e-04,9.99999e-01
6.786760719e-01,8.30088e-04,9.99999e-01,9.99999e-01,9.99402e-01,8.30584e-04,9.99999e-01
6.820694522e-01,9.54526e-04,9.99999e-01,9.99999e-01,9.98974e-01,9.55506e-04,9.99999e-01
6.854797995e-01,1.09473e-03,9.99999e-01,9.99999e-01,9.98678e-01,1.09618e-03,9.99999e-01
6.889071985e-01,1.25021e-03,9.99999e-01,9.99999e-01,9.96856e-01,1.25415e-03,9.99999e-01
6.923517345e-01,1.35870e-03,9.99999e-01,9.99999e-01,9.49422e-01,1.43109e-03,9.99998e-01
6.958134932e-01,1.58451e-03,9.99999e-01,9.99999e-01,9.72854e-01,1.62873e-03,9.99998e-01
6.992925606e-01,1.80203e-03,9.99999e-01,9.99999e-01,9.74631e-01,1.84893e-03,9.99998e-01
7.027890234e-01,2.02771e-03,9.99999e-01,9.99999e-01,9.68500e-01,2.09366e-03,9.99998e-01
7.063029686e-01,2.30217e-03,9.99999e-01,9.99999e-01,9.73445e-01,2.36497e-03,9.99998e-01
7.098344834e-01,2.59704e-03,9.99999e-01,9.99999e-01,9.74495e-01,2.66501e-03,9.99998e-01
7.133836558e-01,2.89634e-03,9.99999e-01,9.99999e-01,9.66723e-01,2.99604e-03,9.99998e-01
7.169505741e-01,2.57231e-03,9.99999e-01,9.99999e-01,7.65479e-01,3.36041e-03,9.99996e-01
7.205353270e-01,3.28726e-03,9.99999e-01,9.99999e-01,8.74146e-01,3.76055e-03,9.99995e-01
7.241380036e-01,3.54682e-03,9.99999e-01,9.99999e-01,8.44683e-01,4.19900e-03,9.99995e-01
7.277586936e-01,4.01708e-03,9.99999e-01,9.99999e-01,8.58651e-01,4.67838e-03,9.99996e-01
7.313974871e-01,4.41356e-03,9.99999e-01,9.99999e-01,8.48541e-01,5.20135e-03,9.99997e-01
7.350544745e-01,5.27463e-03,9.99999e-01,9.99999e-01,9.14036e-01,5.77070e-03,9.99998e-01
7.387297469e-01,5.97867e-03,9.99999e-01,9.99999e-01,9.35738e-01,6.38925e-03,9.99998e-01
7.424233956e-01,6.83321e-03,9.99999e-01,9.99999e-01,9.67891e-01,7.05989e-03,9.99999e-01
7.461355126e-01,7.63330e-03,9.99999e-01,9.99999e-01,9.80444e-01,7.78555e-03,9.99999e-01
7.498661902e-01,8.49057e-03,9.99999e-01,9.99999e-01,9.90820e-01,8.56923e-03,9.99999e-01
7.536155211e-01,9.37159e-03,9.99999e-01,9.99999e-01,9.95500e-01,9.41394e-03,9.99999e-01
7.573835987e-01,1.02988e-02,9.99999e-01,9.99999e-01,9.97679e-01,1.03227e-02,9.99999e-01
7.611705167e-01,1.12824e-02,9.99999e-01,9.99999e-01,9.98558e-01,1.12987e-02,9.99999e-01
7.649763693e-01,1.23337e-02,9.99999e-01,9.99999e-01,9.99097e-01,1.23448e-02,9.99999e-01
7.688012511e-01,1.34558e-02,9.99999e-01,9.99999e-01,9.99372e-01,1.34643e-02,9.99999e-01
7.726452574e-01,1.46525e-02,9.99999e-01,9.99999e-01,9.99483e-01,1.46601e-02,9.99999e-01
7.765084837e-01,1.59237e-02,9.99999e-01,9.99999e-01,9.99272e-01,1.59352e-02,9.99999e-01
7.803910261e-01,1.50526e-02,9.99999e-01,8.72876e-01,9.96865e-01,1.72929e-02,9.99999e-01
7.842929812e-01,8.56384e-03,9.99999e-01,4.61199e-01,9.89108e-01,1.87358e-02,9.99999e-01
7.882144461e-01,8.92708e-03,9.99999e-01,4.49084e-01,9.77481e-01,2.02671e-02,9.99999e-01
7.921555184e-01,1.29276e-02,9.99999e-01,5.97246e-01,9.87530e-01,2.18896e-02,9.99999e-01
7.961162960e-01,1.61997e-02,9.99999e-01,7.00702e-01,9.78325e-01,2.36060e-02,9.99999e-01
8.000968774e-01,2.04325e-02,9.99999e-01,8.24273e-01,9.74815e-01,2.54190e-02,9.99999e-01
8.040973618e-01,2.40914e-02,9.99999e-01,9.03944e-01,9.74856e-01,2.73313e-02,9.99998e-01
8.081178486e-01,2.64845e-02,9.99999e-01,9.54796e-01,9.44820e-01,2.93454e-02,9.99998e-01
8.121584379e-01,2.45586e-02,9.99999e-01,9.85688e-01,7.91262e-01,3.14637e-02,9.99996e-01
8.162192301e-01,2.53932e-02,9.99999e-01,9.96819e-01,7.55942e-01,3.36885e-02,9.99995e-01
8.203003262e-01,3.15357e-02,9.99999e-01,9.99946e-01,8.75487e-01,3.60220e-02,9.99995e-01
8.244018279e-01,3.19064e-02,9.99999e-01,9.99999e-01,8.29467e-01,3.84662e-02,9.99995e-01
8.285238370e-01,3.46999e-02,9.99999e-01,9.99999e-01,8.45865e-01,4.10230e-02,9.99996e-01
8.326664562e-01,3.68837e-02,9.99999e-01,9.99999e-01,8.44135e-01,4.36942e-02,9.99997e-01
8.368297885e-01,4.11250e-02,9.99999e-01,9.99999e-01,8.84764e-01,4.64813e-02,9.99998e-01
8.410139374e-01,4.59105e-02,9.99999e-01,9.99999e-01,9.29628e-01,4.93859e-02,9.99999e-01
8.452190071e-01,5.05616e-02,9.99999e-01,9.99999e-01,9.64746e-01,5.24092e-02,9.99999e-01
8.494451021e-01,5.44110e-02,9.99999e-01,9.99999e-01,9.79453e-01,5.55524e-02,9.99999e-01
8.536923276e-01,5.80962e-02,9.99999e-01,9.99999e-01,9.87756e-01,5.88163e-02,9.99999e-01
8.579607893e-01,6.17333e-02,9.99999e-01,9.99999e-01,9.92467e-01,6.22019e-02,9.99999e-01
8.622505932e-01,6.53940e-02,9.99999e-01,9.99999e-01,9.95196e-01,6.57096e-02,9.99999e-01
8.665618462e-01,5.80733e-02,9.99999e-01,8.39811e-01,9.97037e-01,6.93399e-02,9.99999e-01
8.708946554e-01,1.15906e-02,9.99999e-01,1.59040e-01,9.96616e-01,7.30932e-02,9.99999e-01
8.752491287e-01,1.54990e-02,9.99999e-01,2.02187e-01,9.95471e-01,7.69694e-02,9.99999e-01
8.796253743e-01,3.23866e-02,9.99999e-01,4.02186e-01,9.93756e-01,8.09685e-02,9.99999e-01
8.840235012e-01,5.18150e-02,9.99999e-01,6.12978e-01,9.92865e-01,8.50902e-02,9.99999e-01
8.884436187e-01,7.16281e-02,9.99999e-01,8.21397e-01,9.74878e-01,8.93341e-02,9.99998e-01
8.928858368e-01,6.65263e-02,9.99999e-01,9.23168e-01,7.66205e-01,9.36995e-02,9.99995e-01
8.973502660e-01,6.01892e-02,9.99999e-01,9.80617e-01,6.23876e-01,9.81856e-02,9.99993e-01
9.018370173e-01,8.04981e-02,9.99999e-01,9.97839e-01,7.84564e-01,1.02792e-01,9.99992e-01
9.063462024e-01,8.33511e-02,9.99999e-01,9.49947e-01,8.09350e-01,1.07516e-01,9.99991e-01
9.108779334e-01,7.17174e-02,9.99999e-01,8.82228e-01,7.18155e-01,1.12358e-01,9.99990e-01
9.154323231e-01,7.81600e-02,9.99999e-01,9.70669e-01,6.84196e-01,1.17316e-01,9.99989e-01
9.200094847e-01,6.98950e-02,9.99999e-01,7.27096e-01,7.43707e-01,1.22388e-01,9.99987e-01
9.246095321e-01,4.68802e-02,9.99999e-01,5.46282e-01,6.49538e-01,1.27573e-01,9.99978e-01
9.292325798e-01,7.66502e-03,9.99999e-01,6.35306e-01,8.04098e-02,1.32869e-01,9.99954e-01
9.338787427e-01,3.20867e-03,9.99999e-01,6.36205e-01,3.25152e-02,1.38273e-01,9.99940e-01
9.385481364e-01,2.70494e-02,9.99999e-01,7.13330e-01,2.47653e-01,1.43784e-01,9.99939e-01
9.432408771e-01,2.03739e-02,9.99999e-01,8.10452e-01,1.62249e-01,1.49399e-01,9.99931e-01
9.479570815e-01,1.05880e-02,9.99999e-01,8.97875e-01,7.45990e-02,1.55116e-01,9.99940e-01
9.526968669e-01,2.02558e-02,9.99999e-01,9.49384e-01,1.30870e-01,1.60932e-01,9.99955e-01
9.574603512e-01,2.33215e-02,9.99999e-01,9.77970e-01,1.42127e-01,1.66845e-01,9.99966e-01
9.622476530e-01,3.35098e-02,9.99999e-01,9.93064e-01,1.94880e-01,1.72852e-01,9.99977e-01
9.670588912e-01,6.85583e-02,9.99999e-01,9.97911e-01,3.83734e-01,1.78950e-01,9.99985e-01
9.718941857e-01,9.87308e-02,9.99999e-01,9.99849e-01,5.33344e-01,1.85137e-01,9.99991e-01
9.767536566e-01,1.13435e-01,9.99999e-01,9.99999e-01,5.92636e-01,1.91409e-01,9.99993e-01
9.816374249e-01,1.33536e-01,9.99999e-01,9.99999e-01,6.75237e-01,1.97763e-01,9.99995e-01
9.865456120e-01,1.59503e-01,9.99999e-01,9.99999e-01,7.81130e-01,2.04196e-01,9.99997e-01
9.914783401e-01,1.80758e-01,9.99999e-01,9.99999e-01,8.57872e-01,2.10705e-01,9.99998e-01
9.964357318e-01,1.99868e-01,9.99999e-01,9.99999e-01,9.19832e-01,2.17287e-01,9.99999e-01
1.001417910e+00,2.12984e-01,9.99999e-01,9.99999e-01,9.51080e-01,2.23939e-01,9.99999e-01
1.006425000e+00,2.24165e-01,9.99999e-01,9.99999e-01,9.71854e-01,2.30657e-01,9.99999e-01
1.011457125e+00,2.33256e-01,9.99999e-01,9.99999e-01,9.82390e-01,2.37438e-01,9.99999e-01
1.016514411e+00,2.41354e-01,9.99999e-01,9.99999e-01,9.88029e-01,2.44278e-01,9.99999e-01
1.021596983e+00,2.48715e-01,9.99999e-01,9.99744e-01,9.90458e-01,2.51174e-01,9.99999e-01
1.026704968e+00,2.51002e-01,9.99999e-01,9.79655e-01,9.92555e-01,2.58123e-01,9.99999e-01
1.031838492e+00,2.28754e-01,9.99999e-01,8.67212e-01,9.94572e-01,2.65121e-01,9.99999e-01
1.036997685e+00,6.46812e-03,9.99999e-01,2.38227e-02,9.96779e-01,2.72165e-01,9.99999e-01
1.042182673e+00,4.91199e-05,9.99999e-01,1.76378e-04,9.96175e-01,2.79252e-01,9.99999e-01
1.047393587e+00,1.40909e-04,9.99999e-01,4.94038e-04,9.94921e-01,2.86378e-01,9.99999e-01
1.052630555e+00,5.30515e-11,9.99999e-01,1.81505e-10,9.93047e-01,2.93539e-01,9.99999e-01
1.057893707e+00,1.95090e-10,9.99999e-01,6.52168e-10,9.88439e-01,3.00733e-01,9.99999e-01
1.063183176e+00,8.42413e-08,9.99999e-01,2.76286e-07,9.81034e-01,3.07956e-01,9.99999e-01
1.068499092e+00,2.33528e-06,9.99999e-01,7.53165e-06,9.68419e-01,3.15204e-01,9.99999e-01
1.073841587e+00,1.26767e-04,9.99999e-01,4.02375e-04,9.63290e-01,3.22475e-01,9.99998e-01
1.079210795e+00,2.50610e-03,9.99999e-01,7.86106e-03,9.52981e-01,3.29765e-01,9.99998e-01
1.084606849e+00,1.87961e-02,9.99999e-01,5.91375e-02,9.29944e-01,3.37071e-01,9.99997e-01
1.090029883e+00,7.08034e-02,9.99999e-01,2.24907e-01,9.01849e-01,3.44389e-01,9.99995e-01
1.095480033e+00,1.28315e-01,9.99999e-01,4.75848e-01,7.54651e-01,3.51717e-01,9.99992e-01
1.100957433e+00,1.26600e-01,9.99999e-01,6.96270e-01,4.96672e-01,3.59052e-01,9.99987e-01
1.106462220e+00,6.10199e-02,9.99999e-01,8.60313e-01,1.89365e-01,3.66391e-01,9.99972e-01
1.111994531e+00,1.20457e-02,9.99999e-01,9.45601e-01,3.36052e-02,3.73730e-01,9.99945e-01
1.117554504e+00,2.11463e-03,9.99999e-01,9.86369e-01,5.58381e-03,3.81066e-01,9.99922e-01
1.123142276e+00,1.18560e-02,9.99999e-01,9.99093e-01,3.05295e-02,3.88398e-01,9.99908e-01
1.128757988e+00,3.14442e-02,9.99999e-01,9.99999e-01,7.94682e-02,3.95722e-01,9.99900e-01
1.134401778e+00,1.46024e-02,9.99999e-01,9.99999e-01,3.62351e-02,4.03035e-01,9.99888e-01
1.140073787e+00,8.18839e-02,9.99999e-01,9.99999e-01,1.99572e-01,4.10334e-01,9.99906e-01
1.145774156e+00,2.07394e-02,9.99999e-01,9.99999e-01,4.96650e-02,4.17618e-01,9.99923e-01
1.151503026e+00,1.49270e-02,9.99999e-01,9.99999e-01,3.51341e-02,4.24883e-01,9.99934e-01
1.157260541e+00,1.93918e-02,9.99999e-01,9.99999e-01,4.48774e-02,4.32128e-01,9.99950e-01
1.163046844e+00,4.29661e-02,9.99999e-01,9.99999e-01,9.77978e-02,4.39349e-01,9.99968e-01
1.168862078e+00,8.22475e-02,9.99999e-01,9.99999e-01,1.84189e-01,4.46545e-01,9.99983e-01
1.174706389e+00,1.58514e-01,9.99999e-01,9.99999e-01,3.49373e-01,4.53713e-01,9.99991e-01
1.180579921e+00,2.41049e-01,9.99999e-01,9.99999e-01,5.23053e-01,4.60851e-01,9.99994e-01
1.186482820e+00,3.22923e-01,9.99999e-01,9.99973e-01,6.90085e-01,4.67957e-01,9.99995e-01
1.192415234e+00,3.58518e-01,9.99999e-01,9.34319e-01,8.04526e-01,4.75029e-01,9.99995e-01
1.198377311e+00,1.96932e-01,9.99999e-01,4.75430e-01,8.32952e-01,4.82065e-01,9.99996e-01
1.204369197e+00,3.03617e-53,9.99999e-01,6.86358e-53,8.41928e-01,4.89064e-01,9.99996e-01
1.210391043e+00,3.35188e-221,9.99999e-01,7.41069e-221,8.47707e-01,4.96022e-01,9.99997e-01
1.216442998e+00,3.64963e-191,9.99999e-01,7.91965e-191,8.68607e-01,5.02940e-01,9.99998e-01
1.222525213e+00,2.96609e-188,9.99999e-01,6.15705e-188,8.95880e-01,5.09814e-01,9.99998e-01
1.228637839e+00,7.98554e-145,9.99999e-01,1.62698e-144,9.26487e-01,5.16643e-01,9.99999e-01
