#,Wave/freq,Total,O2,CO2,H2O,Rayleigh,CIA
4.000000000e-01,5.04085e-12,9.99999e-01,9.99999e-01,9.99948e-01,5.04110e-12,9.99999e-01
4.020000000e-01,8.43126e-12,9.99999e-01,9.99999e-01,9.99968e-01,8.43152e-12,9.99999e-01
4.040100000e-01,1.39521e-11,9.99999e-01,9.99999e-01,9.99986e-01,1.39523e-11,9.99999e-01
4.060300500e-01,2.28594e-11,9.99999e-01,9.99999e-01,9.99996e-01,2.28595e-11,9.99999e-01
4.080602003e-01,3.70895e-11,9.99999e-01,9.99999e-01,9.99998e-01,3.70896e-11,9.99999e-01
4.101005013e-01,5.96053e-11,9.99999e-01,9.99999e-01,9.99999e-01,5.96053e-11,9.99999e-01
4.121510038e-01,9.48959e-11,9.99999e-01,9.99999e-01,9.99997e-01,9.48961e-11,9.99999e-01
4.142117588e-01,1.49698e-10,9.99999e-01,9.99999e-01,9.99985e-01,1.49700e-10,9.99999e-01
4.162828176e-01,2.34023e-10,9.99999e-01,9.99999e-01,9.99936e-01,2.34038e-10,9.99999e-01
4.183642317e-01,3.62661e-10,9.99999e-01,9.99999e-01,9.99962e-01,3.62674e-10,9.99999e-01
4.204560528e-01,5.57160e-10,9.99999e-01,9.99999e-01,9.99976e-01,5.57172e-10,9.99999e-01
4.225583331e-01,8.48742e-10,9.99999e-01,9.99999e-01,9.99990e-01,8.48749e-10,9.99999e-01
4.246711247e-01,1.28220e-09,9.99999e-01,9.99999e-01,9.99992e-01,1.28221e-09,9.99999e-01
4.267944804e-01,1.92129e-09,9.99999e-01,9.99999e-01,9.99989e-01,1.92131e-09,9.99999e-01
4.289284528e-01,2.85605e-09,9.99999e-01,9.99999e-01,9.99991e-01,2.85607e-09,9.99999e-01
4.310730950e-01,4.21247e-09,9.99999e-01,9.99999e-01,9.99996e-01,4.21249e-09,9.99999e-01
4.332284605e-01,6.16558e-09,9.99999e-01,9.99999e-01,9.99998e-01,6.16559e-09,9.99999e-01
4.353946028e-01,8.95659e-09,9.99999e-01,9.99999e-01,9.99999e-01,8.95659e-09,9.99999e-01
4.375715758e-01,1.29153e-08,9.99999e-01,9.99999e-01,9.99993e-01,1.29154e-08,9.99999e-01
4.397594337e-01,1.84888e-08,9.99999e-01,9.99999e-01,9.99943e-01,1.84898e-08,9.99999e-01
4.419582309e-01,2.62759e-08,9.99999e-01,9.99999e-01,9.99716e-01,2.62833e-08,9.99999e-01
4.441680220e-01,3.70950e-08,9.99999e-01,9.99999e-01,9.99780e-01,3.71031e-08,9.99999e-01
4.463888621e-01,5.20096e-08,9.99999e-01,9.99999e-01,9.99771e-01,5.20215e-08,9.99999e-01
4.486208064e-01,7.24428e-08,9.99999e-01,9.99999e-01,9.99857e-01,7.24530e-08,9.99999e-01
4.508639105e-01,1.00244e-07,9.99999e-01,9.99999e-01,9.99933e-01,1.00251e-07,9.99999e-01
4.531182300e-01,1.37823e-07,9.99999e-01,9.99999e-01,9.99973e-01,1.37827e-07,9.99999e-01
4.553838212e-01,1.88296e-07,9.99999e-01,9.99999e-01,9.99981e-01,1.88299e-07,9.99999e-01
4.576607403e-01,2.55672e-07,9.99999e-01,9.99999e-01,9.99991e-01,2.55674e-07,9.99999e-01
4.599490440e-01,3.45064e-07,9.99999e-01,9.99999e-01,9.99993e-01,3.45066e-07,9.99999e-01
4.622487892e-01,4.62960e-07,9.99999e-01,9.99999e-01,9.99998e-01,4.62961e-07,9.99999e-01
4.645600332e-01,6.17538e-07,9.99999e-01,9.99999e-01,9.99995e-01,6.17541e-07,9.99999e-01
4.668828333e-01,8.19004e-07,9.99999e-01,9.99999e-01,9.99932e-01,8.19059e-07,9.99999e-01
4.692172475e-01,1.08014e-06,9.99999e-01,9.99999e-01,9.99856e-01,1.08030e-06,9.99999e-01
4.715633337e-01,1.41695e-06,9.99999e-01,9.99999e-01,9.99905e-01,1.41708e-06,9.99999e-01
4.739211504e-01,1.84876e-06,9.99999e-01,9.99999e-01,9.99910e-01,1.84892e-06,9.99999e-01
4.762907561e-01,2.39961e-06,9.99999e-01,9.99999e-01,9.99953e-01,2.39973e-06,9.99999e-01
4.786722099e-01,3.09855e-06,9.99999e-01,9.99999e-01,9.99980e-01,3.09861e-06,9.99999e-01
4.810655710e-01,3.98087e-06,9.99999e-01,9.99999e-01,9.99993e-01,3.98089e-06,9.99999e-01
4.834708988e-01,5.08886e-06,9.99999e-01,9.99999e-01,9.99944e-01,5.08914e-06,9.99999e-01
4.858882533e-01,6.47377e-06,9.99999e-01,9.99999e-01,9.99898e-01,6.47442e-06,9.99999e-01
4.883176946e-01,8.19702e-06,9.99999e-01,9.99999e-01,9.99914e-01,8.19771e-06,9.99999e-01
4.907592831e-01,1.03306e-05,9.99999e-01,9.99999e-01,9.99922e-01,1.03314e-05,9.99999e-01
4.932130795e-01,1.29604e-05,9.99999e-01,9.99999e-01,9.99945e-01,1.29611e-05,9.99999e-01
4.956791449e-01,1.61870e-05,9.99999e-01,9.99999e-01,9.99970e-01,1.61875e-05,9.99999e-01
4.981575406e-01,2.01256e-05,9.99999e-01,9.99999e-01,9.99855e-01,2.01285e-05,9.99999e-01
5.006483283e-01,2.49120e-05,9.99999e-01,9.99999e-01,9.99624e-01,2.49214e-05,9.99999e-01
5.031515699e-01,3.06675e-05,9.99999e-01,9.99999e-01,9.98106e-01,3.07256e-05,9.99999e-01
5.056673278e-01,3.76878e-05,9.99999e-01,9.99999e-01,9.99001e-01,3.77254e-05,9.99999e-01
5.081956644e-01,4.60744e-05,9.99999e-01,9.99999e-01,9.98740e-01,4.61325e-05,9.99999e-01
5.107366428e-01,5.61415e-05,9.99999e-01,9.99999e-01,9.99149e-01,5.61892e-05,9.99999e-01
5.132903260e-01,6.81392e-05,9.99999e-01,9.99999e-01,9.99514e-01,6.81723e-05,9.99999e-01
5.158567776e-01,8.23788e-05,9.99999e-01,9.99999e-01,9.99794e-01,8.23957e-05,9.99999e-01
5.184360615e-01,9.92065e-05,9.99999e-01,9.99999e-01,9.99917e-01,9.92146e-05,9.99999e-01
5.210282418e-01,1.19025e-04,9.99999e-01,9.99999e-01,9.99968e-01,1.19029e-04,9.99999e-01
5.236333830e-01,1.42271e-04,9.99999e-01,9.99999e-01,9.99876e-01,1.42288e-04,9.99999e-01
5.262515499e-01,1.69480e-04,9.99999e-01,9.99999e-01,9.99922e-01,1.69494e-04,9.99999e-01
5.288828077e-01,2.01190e-04,9.99999e-01,9.99999e-01,9.99928e-01,2.01204e-04,9.99999e-01
5.315272217e-01,2.38025e-04,9.99999e-01,9.99999e-01,9.99937e-01,2.38039e-04,9.99999e-01
5.341848578e-01,2.80674e-04,9.99999e-01,9.99999e-01,9.99958e-01,2.80685e-04,9.99999e-01
5.368557821e-01,3.29847e-04,9.99999e-01,9.99999e-01,9.99855e-01,3.29895e-04,9.99999e-01
5.395400610e-01,3.86296e-04,9.99999e-01,9.99999e-01,9.99478e-01,3.86497e-04,9.99999e-01
5.422377613e-01,4.51095e-04,9.99999e-01,9.99999e-01,9.99330e-01,4.51397e-04,9.99999e-01
5.449489501e-01,5.25253e-04,9.99999e-01,9.99999e-01,9.99375e-01,5.25581e-04,9.99999e-01
5.476736949e-01,6.09783e-04,9.99999e-01,9.99999e-01,9.99448e-01,6.10119e-04,9.99999e-01
5.504120634e-01,7.05890e-04,9.99999e-01,9.99999e-01,9.99599e-01,7.06173e-04,9.99999e-01
5.531641237e-01,8.14827e-04,9.99999e-01,9.99999e-01,9.99798e-01,8.14991e-04,9.99999e-01
5.559299443e-01,9.37827e-04,9.99999e-01,9.99999e-01,9.99902e-01,9.37918e-04,9.99999e-01
5.587095940e-01,1.07633e-03,9.99999e-01,9.99999e-01,9.99938e-01,1.07640e-03,9.99999e-01
5.615031420e-01,1.23188e-03,9.99999e-01,9.99999e-01,9.99931e-01,1.23196e-03,9.99999e-01
5.643106577e-01,1.40615e-03,9.99999e-01,9.99999e-01,9.99922e-01,1.40626e-03,9.99999e-01
5.671322110e-01,1.59952e-03,9.99999e-01,9.99999e-01,9.99056e-01,1.60103e-03,9.99999e-01
5.699678720e-01,1.81630e-03,9.99999e-01,9.99999e-01,9.99008e-01,1.81810e-03,9.99999e-01
5.728177114e-01,2.05730e-03,9.99999e-01,9.99999e-01,9.98962e-01,2.05944e-03,9.99999e-01
5.756818000e-01,2.32485e-03,9.99999e-01,9.99999e-01,9.99048e-01,2.32706e-03,9.99999e-01
5.785602090e-01,2.62096e-03,9.99999e-01,9.99999e-01,9.99171e-01,2.62313e-03,9.99999e-01
5.814530100e-01,2.94743e-03,9.99999e-01,9.99999e-01,9.99166e-01,2.94988e-03,9.99999e-01
5.843602750e-01,3.30636e-03,9.99999e-01,9.99999e-01,9.99003e-01,3.30965e-03,9.99999e-01
5.872820764e-01,3.67320e-03,9.99999e-01,9.99999e-01,9.91450e-01,3.70487e-03,9.99999e-01
5.902184868e-01,4.09535e-03,9.99999e-01,9.99999e-01,9.89680e-01,4.13805e-03,9.99999e-01
5.931695792e-01,4.57811e-03,9.99999e-01,9.99999e-01,9.92695e-01,4.61180e-03,9.99999e-01
5.961354271e-01,5.08775e-03,9.99999e-01,9.99999e-01,9.91999e-01,5.12878e-03,9.99999e-01
5.991161043e-01,5.65854e-03,9.99999e-01,9.99999e-01,9.94161e-01,5.69177e-03,9.99999e-01
6.021116848e-01,6.28268e-03,9.99999e-01,9.99999e-01,9.96684e-01,6.30357e-03,9.99999e-01
6.051222432e-01,6.95538e-03,9.99999e-01,9.99999e-01,9.98321e-01,6.96707e-03,9.99999e-01
6.081478544e-01,7.67964e-03,9.99999e-01,9.99999e-01,9.99275e-01,7.68520e-03,9.99999e-01
6.111885937e-01,8.45836e-03,9.99999e-01,9.99999e-01,9.99693e-01,8.46095e-03,9.99999e-01
6.142445367e-01,9.29604e-03,9.99999e-01,9.99999e-01,9.99862e-01,9.29731e-03,9.99999e-01
6.173157594e-01,1.01966e-02,9.99999e-01,9.99999e-01,9.99924e-01,1.01974e-02,9.99999e-01
6.204023382e-01,1.11634e-02,9.99999e-01,9.99999e-01,9.99935e-01,1.11641e-02,9.99999e-01
6.235043498e-01,1.21973e-02,9.99999e-01,9.99999e-01,9.99716e-01,1.22007e-02,9.99999e-01
6.266218716e-01,1.32903e-02,9.99999e-01,9.99999e-01,9.98508e-01,1.33102e-02,9.99999e-01
6.297549810e-01,1.44877e-02,9.99999e-01,9.99999e-01,9.99452e-01,1.44956e-02,9.99999e-01
6.329037559e-01,1.57430e-02,9.99999e-01,9.99999e-01,9.98919e-01,1.57600e-02,9.99999e-01
6.360682746e-01,1.70906e-02,9.99999e-01,9.99999e-01,9.99078e-01,1.71064e-02,9.99999e-01
6.392486160e-01,1.85157e-02,9.99999e-01,9.99999e-01,9.98806e-01,1.85378e-02,9.99999e-01
6.424448591e-01,2.00250e-02,9.99999e-01,9.99999e-01,9.98397e-01,2.00571e-02,9.99999e-01
6.456570834e-01,2.15065e-02,9.99999e-01,9.99999e-01,9.92582e-01,2.16672e-02,9.99999e-01
6.488853688e-01,2.32444e-02,9.99999e-01,9.99999e-01,9.94590e-01,2.33709e-02,9.99999e-01
6.521297956e-01,2.50321e-02,9.99999e-01,9.99999e-01,9.94487e-01,2.51708e-02,9.99999e-01
6.553904446e-01,2.69208e-02,9.99999e-01,9.99999e-01,9.94499e-01,2.70697e-02,9.99999e-01
6.586673968e-01,2.89333e-02,9.99999e-01,9.99999e-01,9.95296e-01,2.90701e-02,9.99999e-01
6.619607338e-01,3.10925e-02,9.99999e-01,9.99999e-01,9.97376e-01,3.11743e-02,9.99999e-01
6.652705375e-01,3.33322e-02,9.99999e-01,9.99999e-01,9.98424e-01,3.33847e-02,9.99999e-01
6.685968902e-01,3.56797e-02,9.99999e-01,9.99999e-01,9.99330e-01,3.57036e-02,9.99999e-01
6.719398746e-01,3.81199e-02,9.99999e-01,9.99999e-01,9.99660e-01,3.81328e-02,9.99999e-01
6.752995740e-01,4.06670e-02,9.99999e-01,9.99999e-01,9.99815e-01,4.06745e-02,9.99999e-01
6.786760719e-01,4.33187e-02,9.99999e-01,9.99999e-01,9.99733e-01,4.33302e-02,9.99999e-01
6.820694522e-01,4.60808e-02,9.99999e-01,9.99999e-01,9.99544e-01,4.61018e-02,9.99999e-01
6.854797995e-01,4.89618e-02,9.99999e-01,9.99999e-01,9.99412e-01,4.89906e-02,9.99999e-01
6.889071985e-01,5.19236e-02,9.99999e-01,9.99999e-01,9.98569e-01,5.19980e-02,9.99999e-01
6.923517345e-01,5.38566e-02,9.99999e-01,9.99999e-01,9.76989e-01,5.51250e-02,9.99999e-01
6.958134932e-01,5.76770e-02,9.99999e-01,9.99999e-01,9.88080e-01,5.83728e-02,9.99999e-01
6.992925606e-01,6.10360e-02,9.99999e-01,9.99999e-01,9.88564e-01,6.17420e-02,9.99999e-01
7.027890234e-01,6.43164e-02,9.99999e-01,9.99999e-01,9.85943e-01,6.52333e-02,9.99999e-01
7.063029686e-01,6.80323e-02,9.99999e-01,9.99999e-01,9.88162e-01,6.88473e-02,9.99999e-01
7.098344834e-01,7.17594e-02,9.99999e-01,9.99999e-01,9.88637e-01,7.25841e-02,9.99999e-01
7.133836558e-01,7.52836e-02,9.99999e-01,9.99999e-01,9.84821e-01,7.64439e-02,9.99998e-01
7.169505741e-01,7.11936e-02,9.99999e-01,9.99999e-01,8.85201e-01,8.04265e-02,9.99998e-01
7.205353270e-01,7.96607e-02,9.99999e-01,9.99999e-01,9.42376e-01,8.45319e-02,9.99997e-01
7.241380036e-01,8.22665e-02,9.99999e-01,9.99999e-01,9.26849e-01,8.87594e-02,9.99997e-01
7.277586936e-01,8.69435e-02,9.99999e-01,9.99999e-01,9.33787e-01,9.31086e-02,9.99998e-01
7.313974871e-01,9.07274e-02,9.99999e-01,9.99999e-01,9.29787e-01,9.75786e-02,9.99998e-01
7.350544745e-01,9.81794e-02,9.99999e-01,9.99999e-01,9.60954e-01,1.02169e-01,9.99998e-01
7.387297469e-01,1.03789e-01,9.99999e-01,9.99999e-01,9.71102e-01,1.06877e-01,9.99999e-01
7.424233956e-01,1.10114e-01,9.99999e-01,9.99999e-01,9.85765e-01,1.11704e-01,9.99999e-01
7.461355126e-01,1.15637e-01,9.99999e-01,9.99999e-01,9.91344e-01,1.16646e-01,9.99999e-01
7.498661902e-01,1.21212e-01,9.99999e-01,9.99999e-01,9.95966e-01,1.21703e-01,9.99999e-01
7.536155211e-01,1.26622e-01,9.99999e-01,9.99999e-01,9.98017e-01,1.26873e-01,9.99999e-01
7.573835987e-01,1.32019e-01,9.99999e-01,9.99999e-01,9.98979e-01,1.32154e-01,9.99999e-01
7.611705167e-01,1.37457e-01,9.99999e-01,9.99999e-01,9.99365e-01,1.37544e-01,9.99999e-01
7.649763693e-01,1.42984e-01,9.99999e-01,9.99999e-01,9.99601e-01,1.43041e-01,9.99999e-01
7.688012511e-01,1.48601e-01,9.99999e-01,9.99999e-01,9.99722e-01,1.48642e-01,9.99999e-01
7.726452574e-01,1.54310e-01,9.99999e-01,9.99999e-01,9.99771e-01,1.54345e-01,9.99999e-01
7.765084837e-01,1.60096e-01,9.99999e-01,9.99999e-01,9.99674e-01,1.60148e-01,9.99999e-01
7.803910261e-01,1.53488e-01,9.99999e-01,9.25567e-01,9.98593e-01,1.66049e-01,9.99999e-01
7.842929812e-01,1.19137e-01,9.99999e-01,6.95540e-01,9.95099e-01,1.72043e-01,9.99999e-01
7.882144461e-01,1.19990e-01,9.99999e-01,6.79855e-01,9.89962e-01,1.78129e-01,9.99999e-01
7.921555184e-01,1.45074e-01,9.99999e-01,7.91261e-01,9.94497e-01,1.84304e-01,9.99999e-01
7.961162960e-01,1.61237e-01,9.99999e-01,8.54250e-01,9.90247e-01,1.90565e-01,9.99999e-01
8.000968774e-01,1.78745e-01,9.99999e-01,9.17999e-01,9.88764e-01,1.96908e-01,9.99999e-01
8.040973618e-01,1.92345e-01,9.99999e-01,9.56671e-01,9.88756e-01,2.03331e-01,9.99999e-01
8.081178486e-01,2.00431e-01,9.99999e-01,9.79821e-01,9.74789e-01,2.09830e-01,9.99998e-01
8.121584379e-01,1.93450e-01,9.99999e-01,9.93751e-01,8.99418e-01,2.16403e-01,9.99998e-01
8.162192301e-01,1.96543e-01,9.99999e-01,9.98616e-01,8.82345e-01,2.23046e-01,9.99997e-01
8.203003262e-01,2.15919e-01,9.99999e-01,9.99979e-01,9.39796e-01,2.29755e-01,9.99997e-01
8.244018279e-01,2.17147e-01,9.99999e-01,9.99999e-01,9.18064e-01,2.36527e-01,9.99997e-01
8.285238370e-01,2.25755e-01,9.99999e-01,9.99999e-01,9.27662e-01,2.43360e-01,9.99998e-01
8.326664562e-01,2.32003e-01,9.99999e-01,9.99999e-01,9.27090e-01,2.50248e-01,9.99998e-01
8.368297885e-01,2.43626e-01,9.99999e-01,9.99999e-01,9.47257e-01,2.57191e-01,9.99998e-01
8.410139374e-01,2.55811e-01,9.99999e-01,9.99999e-01,9.68309e-01,2.64182e-01,9.99999e-01
8.452190071e-01,2.66973e-01,9.99999e-01,9.99999e-01,9.84336e-01,2.71221e-01,9.99999e-01
8.494451021e-01,2.75761e-01,9.99999e-01,9.99999e-01,9.90869e-01,2.78302e-01,9.99999e-01
8.536923276e-01,2.83881e-01,9.99999e-01,9.99999e-01,9.94599e-01,2.85423e-01,9.99999e-01
8.579607893e-01,2.91604e-01,9.99999e-01,9.99999e-01,9.96666e-01,2.92579e-01,9.99999e-01
8.622505932e-01,2.99135e-01,9.99999e-01,9.99999e-01,9.97883e-01,2.99769e-01,9.99999e-01
8.665618462e-01,2.69436e-01,9.99999e-01,8.78759e-01,9.98688e-01,3.06988e-01,9.99999e-01
8.708946554e-01,1.27454e-01,9.99999e-01,4.06168e-01,9.98496e-01,3.14233e-01,9.99999e-01
8.752491287e-01,1.52590e-01,9.99999e-01,4.75516e-01,9.97990e-01,3.21501e-01,9.99999e-01
8.796253743e-01,2.16277e-01,9.99999e-01,6.59513e-01,9.97214e-01,3.28789e-01,9.99999e-01
8.840235012e-01,2.69217e-01,9.99999e-01,8.03482e-01,9.96819e-01,3.36093e-01,9.99999e-01
8.884436187e-01,3.11378e-01,9.99999e-01,9.17124e-01,9.88386e-01,3.43410e-01,9.99998e-01
8.928858368e-01,3.00009e-01,9.99999e-01,9.65478e-01,8.85282e-01,3.50737e-01,9.99997e-01
8.973502660e-01,2.86725e-01,9.99999e-01,9.91525e-01,8.07257e-01,3.58071e-01,9.99996e-01
9.018370173e-01,3.27412e-01,9.99999e-01,9.99063e-01,8.96795e-01,3.65409e-01,9.99996e-01
9.063462024e-01,3.30930e-01,9.99999e-01,9.76186e-01,9.07817e-01,3.72748e-01,9.99995e-01
9.108779334e-01,3.09874e-01,9.99999e-01,9.46099e-01,8.60338e-01,3.80085e-01,9.99995e-01
9.154323231e-01,3.22496e-01,9.99999e-01,9.87131e-01,8.42723e-01,3.87418e-01,9.99995e-01
9.200094847e-01,2.94875e-01,9.99999e-01,8.41146e-01,8.74935e-01,3.94743e-01,9.99993e-01
9.246095321e-01,2.52326e-01,9.99999e-01,7.63273e-01,8.14114e-01,4.02057e-01,9.99990e-01
9.292325798e-01,9.28548e-02,9.99999e-01,8.10724e-01,2.68669e-01,4.09359e-01,9.99979e-01
9.338787427e-01,6.54353e-02,9.99999e-01,8.15646e-01,1.85444e-01,4.16645e-01,9.99973e-01
9.385481364e-01,1.87023e-01,9.99999e-01,8.60134e-01,5.03994e-01,4.23913e-01,9.99972e-01
9.432408771e-01,1.56907e-01,9.99999e-01,9.11659e-01,3.95176e-01,4.31160e-01,9.99969e-01
9.479570815e-01,1.17392e-01,9.99999e-01,9.53582e-01,2.79416e-01,4.38385e-01,9.99973e-01
9.526968669e-01,1.63950e-01,9.99999e-01,9.77381e-01,3.75060e-01,4.45584e-01,9.99979e-01
9.574603512e-01,1.77124e-01,9.99999e-01,9.90262e-01,3.94507e-01,4.52756e-01,9.99984e-01
9.622476530e-01,2.13258e-01,9.99999e-01,9.96953e-01,4.64938e-01,4.59898e-01,9.99989e-01
9.670588912e-01,2.99078e-01,9.99999e-01,9.99087e-01,6.40932e-01,4.67009e-01,9.99993e-01
9.718941857e-01,3.57128e-01,9.99999e-01,9.99935e-01,7.53341e-01,4.74086e-01,9.99995e-01
9.767536566e-01,3.80204e-01,9.99999e-01,9.99999e-01,7.90237e-01,4.81127e-01,9.99996e-01
9.816374249e-01,4.09822e-01,9.99999e-01,9.99999e-01,8.39575e-01,4.88130e-01,9.99997e-01
9.865456120e-01,4.43766e-01,9.99999e-01,9.99999e-01,8.96326e-01,4.95094e-01,9.99998e-01
9.914783401e-01,4.69125e-01,9.99999e-01,9.99999e-01,9.34480e-01,5.02017e-01,9.99999e-01
9.964357318e-01,4.90461e-01,9.99999e-01,9.99999e-01,9.63771e-01,5.08897e-01,9.99999e-01
1.001417910e+00,5.04451e-01,9.99999e-01,9.99999e-01,9.78124e-01,5.15733e-01,9.99999e-01
1.006425000e+00,5.15970e-01,9.99999e-01,9.99999e-01,9.87459e-01,5.22522e-01,9.99999e-01
1.011457125e+00,5.25141e-01,9.99999e-01,9.99999e-01,9.92207e-01,5.29265e-01,9.99999e-01
1.016514411e+00,5.33119e-01,9.99999e-01,9.99999e-01,9.94700e-01,5.35959e-01,9.99999e-01
1.021596983e+00,5.40236e-01,9.99999e-01,9.99862e-01,9.95773e-01,5.42602e-01,9.99999e-01
1.026704968e+00,5.42215e-01,9.99999e-01,9.90547e-01,9.96702e-01,5.49195e-01,9.99999e-01
1.031838492e+00,5.07894e-01,9.99999e-01,9.15998e-01,9.97604e-01,5.55734e-01,9.99999e-01
1.036997685e+00,3.58530e-02,9.99999e-01,6.38394e-02,9.98575e-01,5.62221e-01,9.99999e-01
1.042182673e+00,4.94454e-03,9.99999e-01,8.70692e-03,9.98298e-01,5.68652e-01,9.99999e-01
1.047393587e+00,1.08599e-02,9.99999e-01,1.89218e-02,9.97746e-01,5.75028e-01,9.99999e-01
1.052630555e+00,5.52695e-06,9.99999e-01,9.52617e-06,9.96906e-01,5.81347e-01,9.99999e-01
1.057893707e+00,2.05479e-05,9.99999e-01,3.50676e-05,9.94837e-01,5.87609e-01,9.99999e-01
1.063183176e+00,2.86098e-04,9.99999e-01,4.84273e-04,9.91522e-01,5.93813e-01,9.99999e-01
1.068499092e+00,2.08662e-03,9.99999e-01,3.51309e-03,9.85852e-01,5.99958e-01,9.99999e-01
1.073841587e+00,1.60691e-02,9.99999e-01,2.68484e-02,9.83459e-01,6.06043e-01,9.99999e-01
1.079210795e+00,6.15674e-02,9.99999e-01,1.02355e-01,9.78871e-01,6.12068e-01,9.99998e-01
1.084606849e+00,1.66377e-01,9.99999e-01,2.77144e-01,9.68181e-01,6.18032e-01,9.99998e-01
1.090029883e+00,3.05356e-01,9.99999e-01,5.11154e-01,9.54554e-01,6.23934e-01,9.99997e-01
1.095480033e+00,3.99678e-01,9.99999e-01,7.17885e-01,8.81119e-01,6.29775e-01,9.99996e-01
1.100957433e+00,3.94992e-01,9.99999e-01,8.51861e-01,7.26608e-01,6.35553e-01,9.99993e-01
1.106462220e+00,2.73483e-01,9.99999e-01,9.35812e-01,4.53312e-01,6.41269e-01,9.99987e-01
1.111994531e+00,1.24326e-01,9.99999e-01,9.75688e-01,1.96246e-01,6.46921e-01,9.99975e-01
1.117554504e+00,4.97107e-02,9.99999e-01,9.94023e-01,7.64820e-02,6.52511e-01,9.99965e-01
1.123142276e+00,1.10308e-01,9.99999e-01,9.99607e-01,1.67650e-01,6.58037e-01,9.99959e-01
1.128757988e+00,1.96381e-01,9.99999e-01,9.99999e-01,2.95991e-01,6.63499e-01,9.99955e-01
1.134401778e+00,9.04701e-02,9.99999e-01,9.99999e-01,1.35259e-01,6.68897e-01,9.99950e-01
1.140073787e+00,3.17746e-01,9.99999e-01,9.99999e-01,4.71289e-01,6.74231e-01,9.99960e-01
1.145774156e+00,1.52277e-01,9.99999e-01,9.99999e-01,2.24109e-01,6.79501e-01,9.99966e-01
1.151503026e+00,1.31355e-01,9.99999e-01,9.99999e-01,1.91847e-01,6.84707e-01,9.99970e-01
1.157260541e+00,1.61386e-01,9.99999e-01,9.99999e-01,2.33948e-01,6.89849e-01,9.99977e-01
1.163046844e+00,2.35656e-01,9.99999e-01,9.99999e-01,3.39114e-01,6.94927e-01,9.99985e-01
1.168862078e+00,3.24937e-01,9.99999e-01,9.99999e-01,4.64239e-01,6.99940e-01,9.99992e-01
1.174706389e+00,4.38545e-01,9.99999e-01,9.99999e-01,6.22148e-01,7.04890e-01,9.99995e-01
1.180579921e+00,5.31047e-01,9.99999e-01,9.99999e-01,7.48190e-01,7.09776e-01,9.99997e-01
1.186482820e+00,6.06034e-01,9.99999e-01,9.99980e-01,8.48091e-01,7.14599e-01,9.99997e-01
1.192415234e+00,6.32547e-01,9.99999e-01,9.67390e-01,9.08136e-01,7.19358e-01,9.99997e-01
1.198377311e+00,3.57565e-01,9.99999e-01,5.28405e-01,9.21968e-01,7.24053e-01,9.99998e-01
1.204369197e+00,7.97851e-25,9.99999e-01,1.14466e-24,9.26172e-01,7.28686e-01,9.99998e-01
1.210391043e+00,3.56552e-99,9.99999e-01,5.06531e-99,9.29203e-01,7.33256e-01,9.99998e-01
1.216442998e+00,7.04924e-86,9.99999e-01,9.93197e-86,9.39500e-01,7.37763e-01,9.99998e-01
1.222525213e+00,1.36998e-84,9.99999e-01,1.89269e-84,9.52511e-01,7.42209e-01,9.99999e-01
1.228637839e+00,2.49559e-65,9.99999e-01,3.41975e-65,9.66766e-01,7.46592e-01,9.99999e-01
