#,Wave/freq,Total,O2,CO2,H2O,Rayleigh,CIA
4.000000000e-01,3.32839e-12,9.99999e-01,9.99999e-01,9.99947e-01,3.32856e-12,9.99999e-01
4.020000000e-01,5.61299e-12,9.99999e-01,9.99999e-01,9.99967e-01,5.61317e-12,9.99999e-01
4.040100000e-01,9.36340e-12,9.99999e-01,9.99999e-01,9.99985e-01,9.36353e-12,9.99999e-01
4.060300500e-01,1.54625e-11,9.99999e-01,9.99999e-01,9.99996e-01,1.54625e-11,9.99999e-01
4.080602003e-01,2.52824e-11,9.99999e-01,9.99999e-01,9.99998e-01,2.52825e-11,9.99999e-01
4.101005013e-01,4.09392e-11,9.99999e-01,9.99999e-01,9.99999e-01,4.09393e-11,9.99999e-01
4.121510038e-01,6.56637e-11,9.99999e-01,9.99999e-01,9.99997e-01,6.56638e-11,9.99999e-01
4.142117588e-01,1.04340e-10,9.99999e-01,9.99999e-01,9.99985e-01,1.04342e-10,9.99999e-01
4.162828176e-01,1.64282e-10,9.99999e-01,9.99999e-01,9.99935e-01,1.64293e-10,9.99999e-01
4.183642317e-01,2.56371e-10,9.99999e-01,9.99999e-01,9.99961e-01,2.56380e-10,9.99999e-01
4.204560528e-01,3.96573e-10,9.99999e-01,9.99999e-01,9.99976e-01,3.96582e-10,9.99999e-01
4.225583331e-01,6.08185e-10,9.99999e-01,9.99999e-01,9.99990e-01,6.08190e-10,9.99999e-01
4.246711247e-01,9.24857e-10,9.99999e-01,9.99999e-01,9.99992e-01,9.24863e-10,9.99999e-01
4.267944804e-01,1.39481e-09,9.99999e-01,9.99999e-01,9.99989e-01,1.39483e-09,9.99999e-01
4.289284528e-01,2.08657e-09,9.99999e-01,9.99999e-01,9.99991e-01,2.08659e-09,9.99999e-01
4.310730950e-01,3.09670e-09,9.99999e-01,9.99999e-01,9.99996e-01,3.09671e-09,9.99999e-01
4.332284605e-01,4.56011e-09,9.99999e-01,9.99999e-01,9.99998e-01,4.56012e-09,9.99999e-01
4.353946028e-01,6.66395e-09,9.99999e-01,9.99999e-01,9.99999e-01,6.66395e-09,9.99999e-01
4.375715758e-01,9.66564e-09,9.99999e-01,9.99999e-01,9.99993e-01,9.66570e-09,9.99999e-01
4.397594337e-01,1.39162e-08,9.99999e-01,9.99999e-01,9.99943e-01,1.39170e-08,9.99999e-01
4.419582309e-01,1.98887e-08,9.99999e-01,9.99999e-01,9.99717e-01,1.98943e-08,9.99999e-01
4.441680220e-01,2.82326e-08,9.99999e-01,9.99999e-01,9.99775e-01,2.82389e-08,9.99999e-01
4.463888621e-01,3.97981e-08,9.99999e-01,9.99999e-01,9.99767e-01,3.98073e-08,9.99999e-01
4.486208064e-01,5.57274e-08,9.99999e-01,9.99999e-01,9.99854e-01,5.57355e-08,9.99999e-01
4.508639105e-01,7.75147e-08,9.99999e-01,9.99999e-01,9.99931e-01,7.75200e-08,9.99999e-01
4.531182300e-01,1.07116e-07,9.99999e-01,9.99999e-01,9.99972e-01,1.07119e-07,9.99999e-01
4.553838212e-01,1.47074e-07,9.99999e-01,9.99999e-01,9.99981e-01,1.47076e-07,9.99999e-01
4.576607403e-01,2.00677e-07,9.99999e-01,9.99999e-01,9.99991e-01,2.00679e-07,9.99999e-01
4.599490440e-01,2.72139e-07,9.99999e-01,9.99999e-01,9.99993e-01,2.72140e-07,9.99999e-01
4.622487892e-01,3.66836e-07,9.99999e-01,9.99999e-01,9.99998e-01,3.66836e-07,9.99999e-01
4.645600332e-01,4.91573e-07,9.99999e-01,9.99999e-01,9.99995e-01,4.91575e-07,9.99999e-01
4.668828333e-01,6.54888e-07,9.99999e-01,9.99999e-01,9.99931e-01,6.54932e-07,9.99999e-01
4.692172475e-01,8.67518e-07,9.99999e-01,9.99999e-01,9.99853e-01,8.67645e-07,9.99999e-01
4.715633337e-01,1.14297e-06,9.99999e-01,9.99999e-01,9.99904e-01,1.14307e-06,9.99999e-01
4.739211504e-01,1.49762e-06,9.99999e-01,9.99999e-01,9.99908e-01,1.49776e-06,9.99999e-01
4.762907561e-01,1.95196e-06,9.99999e-01,9.99999e-01,9.99952e-01,1.95205e-06,9.99999e-01
4.786722099e-01,2.53081e-06,9.99999e-01,9.99999e-01,9.99980e-01,2.53086e-06,9.99999e-01
4.810655710e-01,3.26449e-06,9.99999e-01,9.99999e-01,9.99993e-01,3.26451e-06,9.99999e-01
4.834708988e-01,4.18948e-06,9.99999e-01,9.99999e-01,9.99944e-01,4.18971e-06,9.99999e-01
4.858882533e-01,5.35013e-06,9.99999e-01,9.99999e-01,9.99896e-01,5.35068e-06,9.99999e-01
4.883176946e-01,6.79984e-06,9.99999e-01,9.99999e-01,9.99913e-01,6.80042e-06,9.99999e-01
4.907592831e-01,8.60146e-06,9.99999e-01,9.99999e-01,9.99921e-01,8.60213e-06,9.99999e-01
4.932130795e-01,1.08302e-05,9.99999e-01,9.99999e-01,9.99944e-01,1.08308e-05,9.99999e-01
4.956791449e-01,1.35745e-05,9.99999e-01,9.99999e-01,9.99970e-01,1.35749e-05,9.99999e-01
4.981575406e-01,1.69362e-05,9.99999e-01,9.99999e-01,9.99853e-01,1.69386e-05,9.99999e-01
5.006483283e-01,2.10357e-05,9.99999e-01,9.99999e-01,9.99623e-01,2.10436e-05,9.99999e-01
5.031515699e-01,2.59816e-05,9.99999e-01,9.99999e-01,9.98081e-01,2.60315e-05,9.99999e-01
5.056673278e-01,3.20342e-05,9.99999e-01,9.99999e-01,9.98984e-01,3.20668e-05,9.99999e-01
5.081956644e-01,3.92884e-05,9.99999e-01,9.99999e-01,9.98717e-01,3.93389e-05,9.99999e-01
5.107366428e-01,4.80240e-05,9.99999e-01,9.99999e-01,9.99133e-01,4.80657e-05,9.99999e-01
5.132903260e-01,5.84674e-05,9.99999e-01,9.99999e-01,9.99503e-01,5.84964e-05,9.99999e-01
5.158567776e-01,7.09003e-05,9.99999e-01,9.99999e-01,9.99789e-01,7.09151e-05,9.99999e-01
5.184360615e-01,8.56369e-05,9.99999e-01,9.99999e-01,9.99915e-01,8.56440e-05,9.99999e-01
5.210282418e-01,1.03044e-04,9.99999e-01,9.99999e-01,9.99968e-01,1.03047e-04,9.99999e-01
5.236333830e-01,1.23519e-04,9.99999e-01,9.99999e-01,9.99874e-01,1.23535e-04,9.99999e-01
5.262515499e-01,1.47554e-04,9.99999e-01,9.99999e-01,9.99921e-01,1.47566e-04,9.99999e-01
5.288828077e-01,1.75641e-04,9.99999e-01,9.99999e-01,9.99927e-01,1.75654e-04,9.99999e-01
5.315272217e-01,2.08357e-04,9.99999e-01,9.99999e-01,9.99936e-01,2.08370e-04,9.99999e-01
5.341848578e-01,2.46337e-04,9.99999e-01,9.99999e-01,9.99958e-01,2.46347e-04,9.99999e-01
5.368557821e-01,2.90242e-04,9.99999e-01,9.99999e-01,9.99854e-01,2.90284e-04,9.99999e-01
5.395400610e-01,3.40773e-04,9.99999e-01,9.99999e-01,9.99478e-01,3.40950e-04,9.99999e-01
5.422377613e-01,3.98917e-04,9.99999e-01,9.99999e-01,9.99317e-01,3.99189e-04,9.99999e-01
5.449489501e-01,4.65629e-04,9.99999e-01,9.99999e-01,9.99369e-01,4.65923e-04,9.99999e-01
5.476736949e-01,5.41850e-04,9.99999e-01,9.99999e-01,9.99437e-01,5.42155e-04,9.99999e-01
5.504120634e-01,6.28717e-04,9.99999e-01,9.99999e-01,9.99591e-01,6.28973e-04,9.99999e-01
5.531641237e-01,7.27408e-04,9.99999e-01,9.99999e-01,9.99794e-01,7.27557e-04,9.99999e-01
5.559299443e-01,8.39093e-04,9.99999e-01,9.99999e-01,9.99900e-01,8.39176e-04,9.99999e-01
5.587095940e-01,9.65134e-04,9.99999e-01,9.99999e-01,9.99937e-01,9.65194e-04,9.99999e-01
5.615031420e-01,1.10700e-03,9.99999e-01,9.99999e-01,9.99930e-01,1.10707e-03,9.99999e-01
5.643106577e-01,1.26627e-03,9.99999e-01,9.99999e-01,9.99922e-01,1.26637e-03,9.99999e-01
5.671322110e-01,1.44340e-03,9.99999e-01,9.99999e-01,9.99065e-01,1.44475e-03,9.99999e-01
5.699678720e-01,1.64229e-03,9.99999e-01,9.99999e-01,9.98980e-01,1.64397e-03,9.99999e-01
5.728177114e-01,1.86393e-03,9.99999e-01,9.99999e-01,9.98949e-01,1.86589e-03,9.99999e-01
5.756818000e-01,2.11044e-03,9.99999e-01,9.99999e-01,9.99033e-01,2.11248e-03,9.99999e-01
5.785602090e-01,2.38379e-03,9.99999e-01,9.99999e-01,9.99155e-01,2.38581e-03,9.99999e-01
5.814530100e-01,2.68575e-03,9.99999e-01,9.99999e-01,9.99153e-01,2.68803e-03,9.99999e-01
5.843602750e-01,3.01838e-03,9.99999e-01,9.99999e-01,9.98999e-01,3.02140e-03,9.99999e-01
5.872820764e-01,3.35914e-03,9.99999e-01,9.99999e-01,9.91394e-01,3.38829e-03,9.99999e-01
5.902184868e-01,3.75130e-03,9.99999e-01,9.99999e-01,9.89490e-01,3.79114e-03,9.99999e-01
5.931695792e-01,4.20112e-03,9.99999e-01,9.99999e-01,9.92589e-01,4.23248e-03,9.99999e-01
5.961354271e-01,4.67656e-03,9.99999e-01,9.99999e-01,9.91860e-01,4.71493e-03,9.99999e-01
5.991161043e-01,5.21002e-03,9.99999e-01,9.99999e-01,9.94051e-01,5.24119e-03,9.99999e-01
6.021116848e-01,5.79436e-03,9.99999e-01,9.99999e-01,9.96616e-01,5.81403e-03,9.99999e-01
6.051222432e-01,6.42524e-03,9.99999e-01,9.99999e-01,9.98286e-01,6.43627e-03,9.99999e-01
6.081478544e-01,7.10556e-03,9.99999e-01,9.99999e-01,9.99260e-01,7.11081e-03,9.99999e-01
6.111885937e-01,7.83814e-03,9.99999e-01,9.99999e-01,9.99686e-01,7.84059e-03,9.99999e-01
6.142445367e-01,8.62740e-03,9.99999e-01,9.99999e-01,9.99859e-01,8.62861e-03,9.99999e-01
6.173157594e-01,9.47715e-03,9.99999e-01,9.99999e-01,9.99922e-01,9.47788e-03,9.99999e-01
6.204023382e-01,1.03908e-02,9.99999e-01,9.99999e-01,9.99934e-01,1.03914e-02,9.99999e-01
6.235043498e-01,1.13692e-02,9.99999e-01,9.99999e-01,9.99717e-01,1.13724e-02,9.99999e-01
6.266218716e-01,1.24050e-02,9.99999e-01,9.99999e-01,9.98486e-01,1.24238e-02,9.99999e-01
6.297549810e-01,1.35411e-02,9.99999e-01,9.99999e-01,9.99444e-01,1.35487e-02,9.99999e-01
6.329037559e-01,1.47339e-02,9.99999e-01,9.99999e-01,9.98899e-01,1.47501e-02,9.99999e-01
6.360682746e-01,1.60163e-02,9.99999e-01,9.99999e-01,9.99066e-01,1.60312e-02,9.99999e-01
6.392486160e-01,1.73739e-02,9.99999e-01,9.99999e-01,9.98788e-01,1.73950e-02,9.99999e-01
6.424448591e-01,1.88139e-02,9.99999e-01,9.99999e-01,9.98390e-01,1.88443e-02,9.99999e-01
6.456570834e-01,2.02301e-02,9.99999e-01,9.99999e-01,9.92542e-01,2.03821e-02,9.99999e-01
6.488853688e-01,2.18690e-02,9.99999e-01,9.99999e-01,9.93537e-01,2.20113e-02,9.99999e-01
6.521297956e-01,2.36013e-02,9.99999e-01,9.99999e-01,9.94381e-01,2.37346e-02,9.99999e-01
6.553904446e-01,2.54129e-02,9.99999e-01,9.99999e-01,9.94448e-01,2.55548e-02,9.99999e-01
6.586673968e-01,2.73427e-02,9.99999e-01,9.99999e-01,9.95203e-01,2.74744e-02,9.99999e-01
6.619607338e-01,2.94142e-02,9.99999e-01,9.99999e-01,9.97224e-01,2.94960e-02,9.99999e-01
6.652705375e-01,3.15711e-02,9.99999e-01,9.99999e-01,9.98388e-01,3.16220e-02,9.99999e-01
6.685968902e-01,3.38294e-02,9.99999e-01,9.99999e-01,9.99251e-01,3.38547e-02,9.99999e-01
6.719398746e-01,3.61836e-02,9.99999e-01,9.99999e-01,9.99652e-01,3.61961e-02,9.99999e-01
6.752995740e-01,3.86412e-02,9.99999e-01,9.99999e-01,9.99812e-01,3.86485e-02,9.99999e-01
6.786760719e-01,4.12025e-02,9.99999e-01,9.99999e-01,9.99730e-01,4.12135e-02,9.99999e-01
6.820694522e-01,4.38729e-02,9.99999e-01,9.99999e-01,9.99538e-01,4.38931e-02,9.99999e-01
6.854797995e-01,4.66610e-02,9.99999e-01,9.99999e-01,9.99405e-01,4.66888e-02,9.99999e-01
6.889071985e-01,4.95315e-02,9.99999e-01,9.99999e-01,9.98579e-01,4.96019e-02,9.99999e-01
6.923517345e-01,5.14141e-02,9.99999e-01,9.99999e-01,9.76824e-01,5.26339e-02,9.99999e-01
6.958134932e-01,5.50985e-02,9.99999e-01,9.99999e-01,9.87677e-01,5.57858e-02,9.99999e-01
6.992925606e-01,5.83781e-02,9.99999e-01,9.99999e-01,9.88477e-01,5.90586e-02,9.99999e-01
7.027890234e-01,6.15595e-02,9.99999e-01,9.99999e-01,9.85692e-01,6.24530e-02,9.99999e-01
7.063029686e-01,6.51757e-02,9.99999e-01,9.99999e-01,9.87963e-01,6.59697e-02,9.99999e-01
7.098344834e-01,6.88048e-02,9.99999e-01,9.99999e-01,9.88447e-01,6.96089e-02,9.99999e-01
7.133836558e-01,7.22570e-02,9.99999e-01,9.99999e-01,9.84815e-01,7.33711e-02,9.99998e-01
7.169505741e-01,6.83190e-02,9.99999e-01,9.99999e-01,8.84316e-01,7.72563e-02,9.99998e-01
7.205353270e-01,7.64364e-02,9.99999e-01,9.99999e-01,9.40590e-01,8.12643e-02,9.99997e-01
7.241380036e-01,7.90761e-02,9.99999e-01,9.99999e-01,9.26005e-01,8.53949e-02,9.99997e-01
7.277586936e-01,8.36358e-02,9.99999e-01,9.99999e-01,9.32939e-01,8.96477e-02,9.99998e-01
7.313974871e-01,8.72823e-02,9.99999e-01,9.99999e-01,9.28319e-01,9.40219e-02,9.99998e-01
7.350544745e-01,9.45971e-02,9.99999e-01,9.99999e-01,9.60212e-01,9.85168e-02,9.99998e-01
7.387297469e-01,1.00091e-01,9.99999e-01,9.99999e-01,9.70521e-01,1.03131e-01,9.99999e-01
7.424233956e-01,1.06293e-01,9.99999e-01,9.99999e-01,9.85433e-01,1.07865e-01,9.99999e-01
7.461355126e-01,1.11719e-01,9.99999e-01,9.99999e-01,9.91160e-01,1.12715e-01,9.99999e-01
7.498661902e-01,1.17195e-01,9.99999e-01,9.99999e-01,9.95865e-01,1.17681e-01,9.99999e-01
7.536155211e-01,1.22513e-01,9.99999e-01,9.99999e-01,9.97975e-01,1.22762e-01,9.99999e-01
7.573835987e-01,1.27821e-01,9.99999e-01,9.99999e-01,9.98956e-01,1.27955e-01,9.99999e-01
7.611705167e-01,1.33172e-01,9.99999e-01,9.99999e-01,9.99351e-01,1.33258e-01,9.99999e-01
7.649763693e-01,1.38614e-01,9.99999e-01,9.99999e-01,9.99594e-01,1.38670e-01,9.99999e-01
7.688012511e-01,1.44148e-01,9.99999e-01,9.99999e-01,9.99717e-01,1.44189e-01,9.99999e-01
7.726452574e-01,1.49777e-01,9.99999e-01,9.99999e-01,9.99767e-01,1.49811e-01,9.99999e-01
7.765084837e-01,1.55485e-01,9.99999e-01,9.99999e-01,9.99672e-01,1.55536e-01,9.99999e-01
7.803910261e-01,1.49582e-01,9.99999e-01,9.28237e-01,9.98586e-01,1.61359e-01,9.99999e-01
7.842929812e-01,1.14940e-01,9.99999e-01,6.90156e-01,9.95075e-01,1.67279e-01,9.99999e-01
7.882144461e-01,1.16138e-01,9.99999e-01,6.76486e-01,9.89803e-01,1.73293e-01,9.99999e-01
7.921555184e-01,1.40754e-01,9.99999e-01,7.88788e-01,9.94373e-01,1.79397e-01,9.99999e-01
7.961162960e-01,1.56450e-01,9.99999e-01,8.51155e-01,9.90170e-01,1.85590e-01,9.99999e-01
8.000968774e-01,1.73827e-01,9.99999e-01,9.16346e-01,9.88592e-01,1.91868e-01,9.99999e-01
8.040973618e-01,1.87267e-01,9.99999e-01,9.55540e-01,9.88604e-01,1.98228e-01,9.99999e-01
8.081178486e-01,1.95390e-01,9.99999e-01,9.79401e-01,9.74659e-01,2.04667e-01,9.99998e-01
8.121584379e-01,1.88589e-01,9.99999e-01,9.93546e-01,8.98674e-01,2.11182e-01,9.99998e-01
8.162192301e-01,1.91386e-01,9.99999e-01,9.98570e-01,8.80051e-01,2.17769e-01,9.99997e-01
8.203003262e-01,2.10923e-01,9.99999e-01,9.99976e-01,9.39852e-01,2.24426e-01,9.99997e-01
8.244018279e-01,2.11664e-01,9.99999e-01,9.99999e-01,9.15705e-01,2.31148e-01,9.99997e-01
8.285238370e-01,2.20514e-01,9.99999e-01,9.99999e-01,9.26787e-01,2.37933e-01,9.99998e-01
8.326664562e-01,2.26623e-01,9.99999e-01,9.99999e-01,9.25833e-01,2.44778e-01,9.99998e-01
8.368297885e-01,2.38142e-01,9.99999e-01,9.99999e-01,9.46215e-01,2.51678e-01,9.99998e-01
8.410139374e-01,2.50266e-01,9.99999e-01,9.99999e-01,9.67655e-01,2.58631e-01,9.99999e-01
8.452190071e-01,2.61379e-01,9.99999e-01,9.99999e-01,9.83986e-01,2.65632e-01,9.99999e-01
8.494451021e-01,2.70146e-01,9.99999e-01,9.99999e-01,9.90707e-01,2.72680e-01,9.99999e-01
8.536923276e-01,2.78225e-01,9.99999e-01,9.99999e-01,9.94479e-01,2.79769e-01,9.99999e-01
8.579607893e-01,2.85924e-01,9.99999e-01,9.99999e-01,9.96606e-01,2.86898e-01,9.99999e-01
8.622505932e-01,2.93426e-01,9.99999e-01,9.99999e-01,9.97838e-01,2.94062e-01,9.99999e-01
8.665618462e-01,2.65696e-01,9.99999e-01,8.83063e-01,9.98666e-01,3.01258e-01,9.99999e-01
8.708946554e-01,1.23628e-01,9.99999e-01,4.01329e-01,9.98476e-01,3.08482e-01,9.99999e-01
8.752491287e-01,1.47697e-01,9.99999e-01,4.68687e-01,9.97960e-01,3.15732e-01,9.99999e-01
8.796253743e-01,2.10506e-01,9.99999e-01,6.53427e-01,9.97184e-01,3.23005e-01,9.99999e-01
8.840235012e-01,2.63280e-01,9.99999e-01,7.99580e-01,9.96782e-01,3.30296e-01,9.99999e-01
8.884436187e-01,3.05416e-01,9.99999e-01,9.14931e-01,9.88505e-01,3.37603e-01,9.99998e-01
8.928858368e-01,2.94606e-01,9.99999e-01,9.64642e-01,8.84747e-01,3.44922e-01,9.99997e-01
8.973502660e-01,2.80960e-01,9.99999e-01,9.91245e-01,8.04307e-01,3.52251e-01,9.99996e-01
9.018370173e-01,3.21252e-01,9.99999e-01,9.99029e-01,8.94198e-01,3.59586e-01,9.99996e-01
9.063462024e-01,3.25640e-01,9.99999e-01,9.76399e-01,9.07269e-01,3.66925e-01,9.99995e-01
9.108779334e-01,3.04186e-01,9.99999e-01,9.44955e-01,8.58668e-01,3.74264e-01,9.99995e-01
9.154323231e-01,3.16675e-01,9.99999e-01,9.86684e-01,8.40475e-01,3.81600e-01,9.99995e-01
9.200094847e-01,2.90100e-01,9.99999e-01,8.41664e-01,8.72745e-01,3.88931e-01,9.99993e-01
9.246095321e-01,2.47586e-01,9.99999e-01,7.59136e-01,8.14912e-01,3.96254e-01,9.99989e-01
9.292325798e-01,9.05959e-02,9.99999e-01,8.09519e-01,2.66340e-01,4.03566e-01,9.99979e-01
9.338787427e-01,6.22370e-02,9.99999e-01,8.12454e-01,1.79331e-01,4.10865e-01,9.99973e-01
9.385481364e-01,1.81549e-01,9.99999e-01,8.57637e-01,4.97083e-01,4.18147e-01,9.99972e-01
9.432408771e-01,1.53502e-01,9.99999e-01,9.09661e-01,3.92617e-01,4.25411e-01,9.99969e-01
9.479570815e-01,1.14267e-01,9.99999e-01,9.52667e-01,2.75838e-01,4.32654e-01,9.99973e-01
9.526968669e-01,1.59305e-01,9.99999e-01,9.76872e-01,3.69299e-01,4.39874e-01,9.99979e-01
9.574603512e-01,1.72283e-01,9.99999e-01,9.90032e-01,3.88678e-01,4.47068e-01,9.99984e-01
9.622476530e-01,2.07422e-01,9.99999e-01,9.96877e-01,4.57881e-01,4.54234e-01,9.99989e-01
9.670588912e-01,2.93094e-01,9.99999e-01,9.99061e-01,6.35799e-01,4.61369e-01,9.99993e-01
9.718941857e-01,3.51246e-01,9.99999e-01,9.99932e-01,7.49812e-01,4.68473e-01,9.99995e-01
9.767536566e-01,3.74364e-01,9.99999e-01,9.99999e-01,7.87236e-01,4.75543e-01,9.99996e-01
9.816374249e-01,4.03783e-01,9.99999e-01,9.99999e-01,8.36726e-01,4.82576e-01,9.99997e-01
9.865456120e-01,4.37857e-01,9.99999e-01,9.99999e-01,8.94367e-01,4.89572e-01,9.99998e-01
9.914783401e-01,4.63390e-01,9.99999e-01,9.99999e-01,9.33261e-01,4.96527e-01,9.99999e-01
9.964357318e-01,4.84850e-01,9.99999e-01,9.99999e-01,9.63071e-01,5.03441e-01,9.99999e-01
1.001417910e+00,4.98928e-01,9.99999e-01,9.99999e-01,9.77690e-01,5.10312e-01,9.99999e-01
1.006425000e+00,5.10542e-01,9.99999e-01,9.99999e-01,9.87242e-01,5.17139e-01,9.99999e-01
1.011457125e+00,5.19752e-01,9.99999e-01,9.99999e-01,9.92046e-01,5.23919e-01,9.99999e-01
1.016514411e+00,5.27786e-01,9.99999e-01,9.99999e-01,9.94600e-01,5.30651e-01,9.99999e-01
1.021596983e+00,5.34961e-01,9.99999e-01,9.99881e-01,9.95698e-01,5.37335e-01,9.99999e-01
1.026704968e+00,5.37092e-01,9.99999e-01,9.90672e-01,9.96645e-01,5.43968e-01,9.99999e-01
1.031838492e+00,5.05743e-01,9.99999e-01,9.20760e-01,9.97556e-01,5.50549e-01,9.99999e-01
1.036997685e+00,3.59230e-02,9.99999e-01,6.45555e-02,9.98550e-01,5.57078e-01,9.99999e-01
1.042182673e+00,4.54915e-03,9.99999e-01,8.08325e-03,9.98277e-01,5.63553e-01,9.99999e-01
1.047393587e+00,1.04356e-02,9.99999e-01,1.83444e-02,9.97712e-01,5.69974e-01,9.99999e-01
1.052630555e+00,4.78160e-06,9.99999e-01,8.31337e-06,9.96865e-01,5.76338e-01,9.99999e-01
1.057893707e+00,1.73028e-05,9.99999e-01,2.97811e-05,9.94779e-01,5.82645e-01,9.99999e-01
1.063183176e+00,2.52416e-04,9.99999e-01,4.30846e-04,9.91415e-01,5.88895e-01,9.99999e-01
1.068499092e+00,1.90461e-03,9.99999e-01,3.23323e-03,9.85650e-01,5.95087e-01,9.99999e-01
1.073841587e+00,1.49716e-02,9.99999e-01,2.52174e-02,9.83263e-01,6.01220e-01,9.99999e-01
1.079210795e+00,5.87072e-02,9.99999e-01,9.83876e-02,9.78532e-01,6.07292e-01,9.99998e-01
1.084606849e+00,1.60854e-01,9.99999e-01,2.70093e-01,9.67744e-01,6.13304e-01,9.99998e-01
1.090029883e+00,2.99097e-01,9.99999e-01,5.04591e-01,9.54259e-01,6.19256e-01,9.99997e-01
1.095480033e+00,3.93558e-01,9.99999e-01,7.12877e-01,8.80096e-01,6.25146e-01,9.99996e-01
1.100957433e+00,3.89782e-01,9.99999e-01,8.48989e-01,7.24595e-01,6.30973e-01,9.99993e-01
1.106462220e+00,2.69731e-01,9.99999e-01,9.34399e-01,4.50897e-01,6.36739e-01,9.99987e-01
1.111994531e+00,1.20932e-01,9.99999e-01,9.75142e-01,1.92310e-01,6.42441e-01,9.99975e-01
1.117554504e+00,4.77488e-02,9.99999e-01,9.93850e-01,7.39721e-02,6.48081e-01,9.99965e-01
1.123142276e+00,1.06169e-01,9.99999e-01,9.99592e-01,1.62442e-01,6.53657e-01,9.99958e-01
1.128757988e+00,1.91926e-01,9.99999e-01,9.99999e-01,2.91175e-01,6.59170e-01,9.99955e-01
1.134401778e+00,8.62530e-02,9.99999e-01,9.99999e-01,1.29785e-01,6.64619e-01,9.99949e-01
1.140073787e+00,3.12859e-01,9.99999e-01,9.99999e-01,4.66969e-01,6.70004e-01,9.99959e-01
1.145774156e+00,1.48015e-01,9.99999e-01,9.99999e-01,2.19183e-01,6.75325e-01,9.99965e-01
1.151503026e+00,1.27761e-01,9.99999e-01,9.99999e-01,1.87729e-01,6.80581e-01,9.99970e-01
1.157260541e+00,1.56965e-01,9.99999e-01,9.99999e-01,2.28892e-01,6.85774e-01,9.99977e-01
1.163046844e+00,2.29776e-01,9.99999e-01,9.99999e-01,3.32578e-01,6.90903e-01,9.99985e-01
1.168862078e+00,3.18403e-01,9.99999e-01,9.99999e-01,4.57500e-01,6.95967e-01,9.99992e-01
1.174706389e+00,4.32285e-01,9.99999e-01,9.99999e-01,6.16699e-01,7.00968e-01,9.99995e-01
1.180579921e+00,5.25184e-01,9.99999e-01,9.99999e-01,7.43988e-01,7.05905e-01,9.99997e-01
1.186482820e+00,6.00987e-01,9.99999e-01,9.99986e-01,8.45545e-01,7.10777e-01,9.99997e-01
1.192415234e+00,6.28610e-01,9.99999e-01,9.68035e-01,9.06634e-01,7.15587e-01,9.99997e-01
1.198377311e+00,3.56274e-01,9.99999e-01,5.29794e-01,9.20859e-01,7.20332e-01,9.99998e-01
1.204369197e+00,3.50485e-25,9.99999e-01,5.05736e-25,9.25044e-01,7.25015e-01,9.99998e-01
1.210391043e+00,1.05145e-100,9.99999e-01,1.50211e-100,9.28095e-01,7.29635e-01,9.99998e-01
1.216442998e+00,3.36675e-87,9.99999e-01,4.76954e-87,9.38388e-01,7.34192e-01,9.99998e-01
1.222525213e+00,6.86198e-86,9.99999e-01,9.52909e-86,9.51680e-01,7.38686e-01,9.99999e-01
1.228637839e+00,2.50935e-66,9.99999e-01,3.45593e-66,9.66209e-01,7.43119e-01,9.99999e-01
