#,Wave/freq,Total,O2,CO2,H2O,Rayleigh,CIA
4.000000000e-01,6.57858e-13,9.99999e-01,9.99999e-01,9.99944e-01,6.57894e-13,9.99999e-01
4.020000000e-01,1.14556e-12,9.99999e-01,9.99999e-01,9.99965e-01,1.14560e-12,9.99999e-01
4.040100000e-01,1.97192e-12,9.99999e-01,9.99999e-01,9.99985e-01,1.97195e-12,9.99999e-01
4.060300500e-01,3.35814e-12,9.99999e-01,9.99999e-01,9.99996e-01,3.35815e-12,9.99999e-01
4.080602003e-01,5.65897e-12,9.99999e-01,9.99999e-01,9.99998e-01,5.65898e-12,9.99999e-01
4.101005013e-01,9.43842e-12,9.99999e-01,9.99999e-01,9.99999e-01,9.43842e-12,9.99999e-01
4.121510038e-01,1.55837e-11,9.99999e-01,9.99999e-01,9.99997e-01,1.55838e-11,9.99999e-01
4.142117588e-01,2.54764e-11,9.99999e-01,9.99999e-01,9.99984e-01,2.54767e-11,9.99999e-01
4.162828176e-01,4.12448e-11,9.99999e-01,9.99999e-01,9.99931e-01,4.12476e-11,9.99999e-01
4.183642317e-01,6.61459e-11,9.99999e-01,9.99999e-01,9.99959e-01,6.61486e-11,9.99999e-01
4.204560528e-01,1.05094e-10,9.99999e-01,9.99999e-01,9.99974e-01,1.05097e-10,9.99999e-01
4.225583331e-01,1.65457e-10,9.99999e-01,9.99999e-01,9.99990e-01,1.65458e-10,9.99999e-01
4.246711247e-01,2.58161e-10,9.99999e-01,9.99999e-01,9.99992e-01,2.58163e-10,9.99999e-01
4.267944804e-01,3.99280e-10,9.99999e-01,9.99999e-01,9.99988e-01,3.99285e-10,9.99999e-01
4.289284528e-01,6.12247e-10,9.99999e-01,9.99999e-01,9.99991e-01,6.12252e-10,9.99999e-01
4.310730950e-01,9.30915e-10,9.99999e-01,9.99999e-01,9.99995e-01,9.30918e-10,9.99999e-01
4.332284605e-01,1.40377e-09,9.99999e-01,9.99999e-01,9.99998e-01,1.40378e-09,9.99999e-01
4.353946028e-01,2.09972e-09,9.99999e-01,9.99999e-01,9.99999e-01,2.09972e-09,9.99999e-01
4.375715758e-01,3.11578e-09,9.99999e-01,9.99999e-01,9.99993e-01,3.11580e-09,9.99999e-01
4.397594337e-01,4.58740e-09,9.99999e-01,9.99999e-01,9.99940e-01,4.58767e-09,9.99999e-01
4.419582309e-01,6.70143e-09,9.99999e-01,9.99999e-01,9.99701e-01,6.70343e-09,9.99999e-01
4.441680220e-01,9.71950e-09,9.99999e-01,9.99999e-01,9.99760e-01,9.72182e-09,9.99999e-01
4.463888621e-01,1.39927e-08,9.99999e-01,9.99999e-01,9.99753e-01,1.39962e-08,9.99999e-01
4.486208064e-01,2.00022e-08,9.99999e-01,9.99999e-01,9.99845e-01,2.00053e-08,9.99999e-01
4.508639105e-01,2.83913e-08,9.99999e-01,9.99999e-01,9.99927e-01,2.83934e-08,9.99999e-01
4.531182300e-01,4.00195e-08,9.99999e-01,9.99999e-01,9.99970e-01,4.00207e-08,9.99999e-01
4.553838212e-01,5.60272e-08,9.99999e-01,9.99999e-01,9.99980e-01,5.60283e-08,9.99999e-01
4.576607403e-01,7.79185e-08,9.99999e-01,9.99999e-01,9.99990e-01,7.79192e-08,9.99999e-01
4.599490440e-01,1.07659e-07,9.99999e-01,9.99999e-01,9.99993e-01,1.07659e-07,9.99999e-01
4.622487892e-01,1.47804e-07,9.99999e-01,9.99999e-01,9.99998e-01,1.47804e-07,9.99999e-01
4.645600332e-01,2.01651e-07,9.99999e-01,9.99999e-01,9.99995e-01,2.01652e-07,9.99999e-01
4.668828333e-01,2.73414e-07,9.99999e-01,9.99999e-01,9.99927e-01,2.73434e-07,9.99999e-01
4.692172475e-01,3.68489e-07,9.99999e-01,9.99999e-01,9.99844e-01,3.68545e-07,9.99999e-01
4.715633337e-01,4.93770e-07,9.99999e-01,9.99999e-01,9.99898e-01,4.93820e-07,9.99999e-01
4.739211504e-01,6.57801e-07,9.99999e-01,9.99999e-01,9.99902e-01,6.57865e-07,9.99999e-01
4.762907561e-01,8.71408e-07,9.99999e-01,9.99999e-01,9.99949e-01,8.71452e-07,9.99999e-01
4.786722099e-01,1.14797e-06,9.99999e-01,9.99999e-01,9.99978e-01,1.14799e-06,9.99999e-01
4.810655710e-01,1.50407e-06,9.99999e-01,9.99999e-01,9.99993e-01,1.50408e-06,9.99999e-01
4.834708988e-01,1.96001e-06,9.99999e-01,9.99999e-01,9.99941e-01,1.96012e-06,9.99999e-01
4.858882533e-01,2.54084e-06,9.99999e-01,9.99999e-01,9.99889e-01,2.54112e-06,9.99999e-01
4.883176946e-01,3.27718e-06,9.99999e-01,9.99999e-01,9.99908e-01,3.27747e-06,9.99999e-01
4.907592831e-01,4.20567e-06,9.99999e-01,9.99999e-01,9.99916e-01,4.20602e-06,9.99999e-01
4.932130795e-01,5.37078e-06,9.99999e-01,9.99999e-01,9.99940e-01,5.37109e-06,9.99999e-01
4.956791449e-01,6.82564e-06,9.99999e-01,9.99999e-01,9.99968e-01,6.82586e-06,9.99999e-01
4.981575406e-01,8.63233e-06,9.99999e-01,9.99999e-01,9.99845e-01,8.63367e-06,9.99999e-01
5.006483283e-01,1.08654e-05,9.99999e-01,9.99999e-01,9.99602e-01,1.08697e-05,9.99999e-01
5.031515699e-01,1.35950e-05,9.99999e-01,9.99999e-01,9.97965e-01,1.36228e-05,9.99999e-01
5.056673278e-01,1.69788e-05,9.99999e-01,9.99999e-01,9.98921e-01,1.69971e-05,9.99999e-01
5.081956644e-01,2.10861e-05,9.99999e-01,9.99999e-01,9.98638e-01,2.11148e-05,9.99999e-01
5.107366428e-01,2.60939e-05,9.99999e-01,9.99999e-01,9.99079e-01,2.61179e-05,9.99999e-01
5.132903260e-01,3.21541e-05,9.99999e-01,9.99999e-01,9.99472e-01,3.21710e-05,9.99999e-01
5.158567776e-01,3.94554e-05,9.99999e-01,9.99999e-01,9.99776e-01,3.94642e-05,9.99999e-01
5.184360615e-01,4.82115e-05,9.99999e-01,9.99999e-01,9.99910e-01,4.82158e-05,9.99999e-01
5.210282418e-01,5.86736e-05,9.99999e-01,9.99999e-01,9.99966e-01,5.86756e-05,9.99999e-01
5.236333830e-01,7.11186e-05,9.99999e-01,9.99999e-01,9.99866e-01,7.11280e-05,9.99999e-01
5.262515499e-01,8.58889e-05,9.99999e-01,9.99999e-01,9.99916e-01,8.58960e-05,9.99999e-01
5.288828077e-01,1.03337e-04,9.99999e-01,9.99999e-01,9.99923e-01,1.03344e-04,9.99999e-01
5.315272217e-01,1.23876e-04,9.99999e-01,9.99999e-01,9.99932e-01,1.23884e-04,9.99999e-01
5.341848578e-01,1.47968e-04,9.99999e-01,9.99999e-01,9.99955e-01,1.47975e-04,9.99999e-01
5.368557821e-01,1.76104e-04,9.99999e-01,9.99999e-01,9.99845e-01,1.76131e-04,9.99999e-01
5.395400610e-01,2.08810e-04,9.99999e-01,9.99999e-01,9.99448e-01,2.08925e-04,9.99999e-01
5.422377613e-01,2.46811e-04,9.99999e-01,9.99999e-01,9.99274e-01,2.46990e-04,9.99999e-01
5.449489501e-01,2.90832e-04,9.99999e-01,9.99999e-01,9.99331e-01,2.91027e-04,9.99999e-01
5.476736949e-01,3.41601e-04,9.99999e-01,9.99999e-01,9.99401e-01,3.41805e-04,9.99999e-01
5.504120634e-01,3.99997e-04,9.99999e-01,9.99999e-01,9.99566e-01,4.00171e-04,9.99999e-01
5.531641237e-01,4.66944e-04,9.99999e-01,9.99999e-01,9.99781e-01,4.67046e-04,9.99999e-01
5.559299443e-01,5.43378e-04,9.99999e-01,9.99999e-01,9.99894e-01,5.43435e-04,9.99999e-01
5.587095940e-01,6.30388e-04,9.99999e-01,9.99999e-01,9.99933e-01,6.30430e-04,9.99999e-01
5.615031420e-01,7.29155e-04,9.99999e-01,9.99999e-01,9.99926e-01,7.29209e-04,9.99999e-01
5.643106577e-01,8.40974e-04,9.99999e-01,9.99999e-01,9.99917e-01,8.41043e-04,9.99999e-01
5.671322110e-01,9.66346e-04,9.99999e-01,9.99999e-01,9.99014e-01,9.67299e-04,9.99999e-01
5.699678720e-01,1.10824e-03,9.99999e-01,9.99999e-01,9.98915e-01,1.10944e-03,9.99999e-01
5.728177114e-01,1.26761e-03,9.99999e-01,9.99999e-01,9.98885e-01,1.26902e-03,9.99999e-01
5.756818000e-01,1.44623e-03,9.99999e-01,9.99999e-01,9.98974e-01,1.44772e-03,9.99999e-01
5.785602090e-01,1.64580e-03,9.99999e-01,9.99999e-01,9.99103e-01,1.64728e-03,9.99999e-01
5.814530100e-01,1.86790e-03,9.99999e-01,9.99999e-01,9.99102e-01,1.86957e-03,9.99999e-01
5.843602750e-01,2.11433e-03,9.99999e-01,9.99999e-01,9.98940e-01,2.11657e-03,9.99999e-01
5.872820764e-01,2.36856e-03,9.99999e-01,9.99999e-01,9.90891e-01,2.39033e-03,9.99999e-01
5.902184868e-01,2.66298e-03,9.99999e-01,9.99999e-01,9.88843e-01,2.69302e-03,9.99999e-01
5.931695792e-01,3.00312e-03,9.99999e-01,9.99999e-01,9.92140e-01,3.02691e-03,9.99999e-01
5.961354271e-01,3.36502e-03,9.99999e-01,9.99999e-01,9.91360e-01,3.39434e-03,9.99999e-01
5.991161043e-01,3.77379e-03,9.99999e-01,9.99999e-01,9.93682e-01,3.79777e-03,9.99999e-01
6.021116848e-01,4.22450e-03,9.99999e-01,9.99999e-01,9.96405e-01,4.23974e-03,9.99999e-01
6.051222432e-01,4.71426e-03,9.99999e-01,9.99999e-01,9.98178e-01,4.72286e-03,9.99999e-01
6.081478544e-01,5.24572e-03,9.99999e-01,9.99999e-01,9.99214e-01,5.24983e-03,9.99999e-01
6.111885937e-01,5.82148e-03,9.99999e-01,9.99999e-01,9.99666e-01,5.82342e-03,9.99999e-01
6.142445367e-01,6.44551e-03,9.99999e-01,9.99999e-01,9.99851e-01,6.44646e-03,9.99999e-01
6.173157594e-01,7.12127e-03,9.99999e-01,9.99999e-01,9.99917e-01,7.12185e-03,9.99999e-01
6.204023382e-01,7.85199e-03,9.99999e-01,9.99999e-01,9.99930e-01,7.85253e-03,9.99999e-01
6.235043498e-01,8.63891e-03,9.99999e-01,9.99999e-01,9.99702e-01,8.64148e-03,9.99999e-01
6.266218716e-01,9.47650e-03,9.99999e-01,9.99999e-01,9.98393e-01,9.49174e-03,9.99999e-01
6.297549810e-01,1.04002e-02,9.99999e-01,9.99999e-01,9.99410e-01,1.04063e-02,9.99999e-01
6.329037559e-01,1.13751e-02,9.99999e-01,9.99999e-01,9.98831e-01,1.13884e-02,9.99999e-01
6.360682746e-01,1.24286e-02,9.99999e-01,9.99999e-01,9.99010e-01,1.24409e-02,9.99999e-01
6.392486160e-01,1.35495e-02,9.99999e-01,9.99999e-01,9.98713e-01,1.35670e-02,9.99999e-01
6.424448591e-01,1.47469e-02,9.99999e-01,9.99999e-01,9.98460e-01,1.47697e-02,9.99999e-01
6.456570834e-01,1.59264e-02,9.99999e-01,9.99999e-01,9.92174e-01,1.60520e-02,9.99999e-01
6.488853688e-01,1.72973e-02,9.99999e-01,9.99999e-01,9.93120e-01,1.74171e-02,9.99999e-01
6.521297956e-01,1.87553e-02,9.99999e-01,9.99999e-01,9.94037e-01,1.88678e-02,9.99999e-01
6.553904446e-01,2.02869e-02,9.99999e-01,9.99999e-01,9.94112e-01,2.04070e-02,9.99999e-01
6.586673968e-01,2.19253e-02,9.99999e-01,9.99999e-01,9.94903e-01,2.20376e-02,9.99999e-01
6.619607338e-01,2.36924e-02,9.99999e-01,9.99999e-01,9.97052e-01,2.37625e-02,9.99999e-01
6.652705375e-01,2.55404e-02,9.99999e-01,9.99999e-01,9.98286e-01,2.55842e-02,9.99999e-01
6.685968902e-01,2.74836e-02,9.99999e-01,9.99999e-01,9.99204e-01,2.75054e-02,9.99999e-01
6.719398746e-01,2.95178e-02,9.99999e-01,9.99999e-01,9.99630e-01,2.95287e-02,9.99999e-01
6.752995740e-01,3.16500e-02,9.99999e-01,9.99999e-01,9.99800e-01,3.16563e-02,9.99999e-01
6.786760719e-01,3.38810e-02,9.99999e-01,9.99999e-01,9.99714e-01,3.38907e-02,9.99999e-01
6.820694522e-01,3.62161e-02,9.99999e-01,9.99999e-01,9.99510e-01,3.62338e-02,9.99999e-01
6.854797995e-01,3.86635e-02,9.99999e-01,9.99999e-01,9.99369e-01,3.86879e-02,9.99999e-01
6.889071985e-01,4.11930e-02,9.99999e-01,9.99999e-01,9.98501e-01,4.12548e-02,9.99999e-01
6.923517345e-01,4.28586e-02,9.99999e-01,9.99999e-01,9.75473e-01,4.39362e-02,9.99999e-01
6.958134932e-01,4.61207e-02,9.99999e-01,9.99999e-01,9.86884e-01,4.67337e-02,9.99999e-01
6.992925606e-01,4.90430e-02,9.99999e-01,9.99999e-01,9.87800e-01,4.96487e-02,9.99999e-01
7.027890234e-01,5.18826e-02,9.99999e-01,9.99999e-01,9.84815e-01,5.26826e-02,9.99999e-01
7.063029686e-01,5.51233e-02,9.99999e-01,9.99999e-01,9.87228e-01,5.58364e-02,9.99999e-01
7.098344834e-01,5.83864e-02,9.99999e-01,9.99999e-01,9.87740e-01,5.91111e-02,9.99999e-01
7.133836558e-01,6.15046e-02,9.99999e-01,9.99999e-01,9.83958e-01,6.25074e-02,9.99998e-01
7.169505741e-01,5.79730e-02,9.99999e-01,9.99999e-01,8.78035e-01,6.60259e-02,9.99997e-01
7.205353270e-01,6.52690e-02,9.99999e-01,9.99999e-01,9.36870e-01,6.96672e-02,9.99997e-01
7.241380036e-01,6.76863e-02,9.99999e-01,9.99999e-01,9.21765e-01,7.34313e-02,9.99997e-01
7.277586936e-01,7.18334e-02,9.99999e-01,9.99999e-01,9.29060e-01,7.73184e-02,9.99997e-01
7.313974871e-01,7.51491e-02,9.99999e-01,9.99999e-01,9.24021e-01,8.13284e-02,9.99998e-01
7.350544745e-01,8.18545e-02,9.99999e-01,9.99999e-01,9.57801e-01,8.54609e-02,9.99998e-01
7.387297469e-01,8.69086e-02,9.99999e-01,9.99999e-01,9.68713e-01,8.97155e-02,9.99999e-01
7.424233956e-01,9.26350e-02,9.99999e-01,9.99999e-01,9.84518e-01,9.40917e-02,9.99999e-01
7.461355126e-01,9.76626e-02,9.99999e-01,9.99999e-01,9.90608e-01,9.85884e-02,9.99999e-01
7.498661902e-01,1.02751e-01,9.99999e-01,9.99999e-01,9.95603e-01,1.03205e-01,9.99999e-01
7.536155211e-01,1.07708e-01,9.99999e-01,9.99999e-01,9.97848e-01,1.07940e-01,9.99999e-01
7.573835987e-01,1.12667e-01,9.99999e-01,9.99999e-01,9.98890e-01,1.12792e-01,9.99999e-01
7.611705167e-01,1.17679e-01,9.99999e-01,9.99999e-01,9.99310e-01,1.17760e-01,9.99999e-01
7.649763693e-01,1.22790e-01,9.99999e-01,9.99999e-01,9.99568e-01,1.22843e-01,9.99999e-01
7.688012511e-01,1.27999e-01,9.99999e-01,9.99999e-01,9.99699e-01,1.28037e-01,9.99999e-01
7.726452574e-01,1.33310e-01,9.99999e-01,9.99999e-01,9.99753e-01,1.33343e-01,9.99999e-01
7.765084837e-01,1.38708e-01,9.99999e-01,9.99999e-01,9.99652e-01,1.38756e-01,9.99999e-01
7.803910261e-01,1.33377e-01,9.99999e-01,9.25743e-01,9.98504e-01,1.44277e-01,9.99999e-01
7.842929812e-01,1.00750e-01,9.99999e-01,6.75242e-01,9.94789e-01,1.49901e-01,9.99999e-01
7.882144461e-01,1.01997e-01,9.99999e-01,6.61909e-01,9.89182e-01,1.55627e-01,9.99999e-01
7.921555184e-01,1.24860e-01,9.99999e-01,7.77746e-01,9.94020e-01,1.61451e-01,9.99999e-01
7.961162960e-01,1.39599e-01,9.99999e-01,8.42613e-01,9.89590e-01,1.67373e-01,9.99999e-01
8.000968774e-01,1.56123e-01,9.99999e-01,9.11368e-01,9.87898e-01,1.73388e-01,9.99999e-01
8.040973618e-01,1.68960e-01,9.99999e-01,9.52762e-01,9.87916e-01,1.79494e-01,9.99999e-01
8.081178486e-01,1.76777e-01,9.99999e-01,9.78125e-01,9.73201e-01,1.85688e-01,9.99998e-01
8.121584379e-01,1.70293e-01,9.99999e-01,9.93126e-01,8.93071e-01,1.91968e-01,9.99998e-01
8.162192301e-01,1.72915e-01,9.99999e-01,9.98477e-01,8.73124e-01,1.98329e-01,9.99997e-01
8.203003262e-01,1.91793e-01,9.99999e-01,9.99973e-01,9.36651e-01,2.04769e-01,9.99997e-01
8.244018279e-01,1.92418e-01,9.99999e-01,9.99999e-01,9.10704e-01,2.11285e-01,9.99997e-01
8.285238370e-01,2.01004e-01,9.99999e-01,9.99999e-01,9.22571e-01,2.17873e-01,9.99998e-01
8.326664562e-01,2.06899e-01,9.99999e-01,9.99999e-01,9.21474e-01,2.24531e-01,9.99998e-01
8.368297885e-01,2.18066e-01,9.99999e-01,9.99999e-01,9.42968e-01,2.31255e-01,9.99998e-01
8.410139374e-01,2.29869e-01,9.99999e-01,9.99999e-01,9.65670e-01,2.38041e-01,9.99999e-01
8.452190071e-01,2.40720e-01,9.99999e-01,9.99999e-01,9.82988e-01,2.44886e-01,9.99999e-01
8.494451021e-01,2.49303e-01,9.99999e-01,9.99999e-01,9.90136e-01,2.51787e-01,9.99999e-01
8.536923276e-01,2.57222e-01,9.99999e-01,9.99999e-01,9.94132e-01,2.58740e-01,9.99999e-01
8.579607893e-01,2.64785e-01,9.99999e-01,9.99999e-01,9.96396e-01,2.65743e-01,9.99999e-01
8.622505932e-01,2.72164e-01,9.99999e-01,9.99999e-01,9.97703e-01,2.72791e-01,9.99999e-01
8.665618462e-01,2.46330e-01,9.99999e-01,8.81296e-01,9.98584e-01,2.79881e-01,9.99999e-01
8.708946554e-01,1.09392e-01,9.99999e-01,3.81712e-01,9.98384e-01,2.87010e-01,9.99999e-01
8.752491287e-01,1.31613e-01,9.99999e-01,4.48303e-01,9.97836e-01,2.94175e-01,9.99999e-01
8.796253743e-01,1.91362e-01,9.99999e-01,6.36737e-01,9.97016e-01,3.01371e-01,9.99999e-01
8.840235012e-01,2.42555e-01,9.99999e-01,7.88580e-01,9.96588e-01,3.08596e-01,9.99999e-01
8.884436187e-01,2.83937e-01,9.99999e-01,9.09704e-01,9.87901e-01,3.15847e-01,9.99998e-01
8.928858368e-01,2.73453e-01,9.99999e-01,9.62447e-01,8.78549e-01,3.23119e-01,9.99997e-01
8.973502660e-01,2.59967e-01,9.99999e-01,9.90673e-01,7.93818e-01,3.30411e-01,9.99996e-01
9.018370173e-01,2.99590e-01,9.99999e-01,9.98965e-01,8.87952e-01,3.37718e-01,9.99996e-01
9.063462024e-01,3.04185e-01,9.99999e-01,9.75179e-01,9.02186e-01,3.45037e-01,9.99995e-01
9.108779334e-01,2.82863e-01,9.99999e-01,9.41612e-01,8.50933e-01,3.52366e-01,9.99995e-01
9.154323231e-01,2.95155e-01,9.99999e-01,9.85810e-01,8.31713e-01,3.59702e-01,9.99994e-01
9.200094847e-01,2.69771e-01,9.99999e-01,8.34903e-01,8.65541e-01,3.67040e-01,9.99993e-01
9.246095321e-01,2.27728e-01,9.99999e-01,7.46344e-01,8.06173e-01,3.74379e-01,9.99989e-01
9.292325798e-01,7.93736e-02,9.99999e-01,7.99810e-01,2.48843e-01,3.81716e-01,9.99978e-01
9.338787427e-01,5.30261e-02,9.99999e-01,8.02236e-01,1.62831e-01,3.89047e-01,9.99971e-01
9.385481364e-01,1.64238e-01,9.99999e-01,8.49560e-01,4.77970e-01,3.96369e-01,9.99970e-01
9.432408771e-01,1.38207e-01,9.99999e-01,9.04188e-01,3.74413e-01,4.03681e-01,9.99967e-01
9.479570815e-01,1.01130e-01,9.99999e-01,9.49790e-01,2.57651e-01,4.10980e-01,9.99971e-01
9.526968669e-01,1.43166e-01,9.99999e-01,9.75435e-01,3.49411e-01,4.18262e-01,9.99978e-01
9.574603512e-01,1.55298e-01,9.99999e-01,9.89406e-01,3.68269e-01,4.25525e-01,9.99983e-01
9.622476530e-01,1.88686e-01,9.99999e-01,9.96679e-01,4.37246e-01,4.32768e-01,9.99989e-01
9.670588912e-01,2.72103e-01,9.99999e-01,9.99001e-01,6.18978e-01,4.39987e-01,9.99992e-01
9.718941857e-01,3.29489e-01,9.99999e-01,9.99927e-01,7.36860e-01,4.47181e-01,9.99995e-01
9.767536566e-01,3.52536e-01,9.99999e-01,9.99999e-01,7.75920e-01,4.54346e-01,9.99996e-01
9.816374249e-01,3.81910e-01,9.99999e-01,9.99999e-01,8.27574e-01,4.61481e-01,9.99997e-01
9.865456120e-01,4.16193e-01,9.99999e-01,9.99999e-01,8.88192e-01,4.68585e-01,9.99998e-01
9.914783401e-01,4.42012e-01,9.99999e-01,9.99999e-01,9.29272e-01,4.75654e-01,9.99999e-01
9.964357318e-01,4.63776e-01,9.99999e-01,9.99999e-01,9.60821e-01,4.82686e-01,9.99999e-01
1.001417910e+00,4.78084e-01,9.99999e-01,9.99999e-01,9.76317e-01,4.89681e-01,9.99999e-01
1.006425000e+00,4.89913e-01,9.99999e-01,9.99999e-01,9.86461e-01,4.96636e-01,9.99999e-01
1.011457125e+00,4.99295e-01,9.99999e-01,9.99999e-01,9.91549e-01,5.03550e-01,9.99999e-01
1.016514411e+00,5.07494e-01,9.99999e-01,9.99999e-01,9.94266e-01,5.10420e-01,9.99999e-01
1.021596983e+00,5.14822e-01,9.99999e-01,9.99879e-01,9.95433e-01,5.17246e-01,9.99999e-01
1.026704968e+00,5.17038e-01,9.99999e-01,9.90179e-01,9.96439e-01,5.24025e-01,9.99999e-01
1.031838492e+00,4.86438e-01,9.99999e-01,9.18770e-01,9.97404e-01,5.30757e-01,9.99999e-01
1.036997685e+00,3.28156e-02,9.99999e-01,6.11303e-02,9.98461e-01,5.37440e-01,9.99999e-01
1.042182673e+00,3.45307e-03,9.99999e-01,6.35580e-03,9.98173e-01,5.44072e-01,9.99999e-01
1.047393587e+00,8.34825e-03,9.99999e-01,1.51916e-02,9.97573e-01,5.50653e-01,9.99999e-01
1.052630555e+00,2.63278e-06,9.99999e-01,4.73529e-06,9.96676e-01,5.57181e-01,9.99999e-01
1.057893707e+00,9.54099e-06,9.99999e-01,1.69770e-05,9.94466e-01,5.63655e-01,9.99999e-01
1.063183176e+00,1.62429e-04,9.99999e-01,2.86472e-04,9.90898e-01,5.70074e-01,9.99999e-01
1.068499092e+00,1.33170e-03,9.99999e-01,2.33486e-03,9.84784e-01,5.76437e-01,9.99999e-01
1.073841587e+00,1.16780e-02,9.99999e-01,2.03058e-02,9.82266e-01,5.82744e-01,9.99999e-01
1.079210795e+00,4.97400e-02,9.99999e-01,8.60256e-02,9.77231e-01,5.88993e-01,9.99998e-01
1.084606849e+00,1.43952e-01,9.99999e-01,2.49467e-01,9.65823e-01,5.95184e-01,9.99998e-01
1.090029883e+00,2.77877e-01,9.99999e-01,4.83930e-01,9.51653e-01,6.01316e-01,9.99997e-01
1.095480033e+00,3.71799e-01,9.99999e-01,6.98111e-01,8.73486e-01,6.07387e-01,9.99996e-01
1.100957433e+00,3.68296e-01,9.99999e-01,8.40367e-01,7.11137e-01,6.13399e-01,9.99993e-01
1.106462220e+00,2.50050e-01,9.99999e-01,9.30422e-01,4.31304e-01,6.19349e-01,9.99986e-01
1.111994531e+00,1.07214e-01,9.99999e-01,9.73598e-01,1.75392e-01,6.25238e-01,9.99973e-01
1.117554504e+00,4.03812e-02,9.99999e-01,9.93454e-01,6.42562e-02,6.31064e-01,9.99962e-01
1.123142276e+00,9.40829e-02,9.99999e-01,9.99565e-01,1.47754e-01,6.36829e-01,9.99956e-01
1.128757988e+00,1.74700e-01,9.99999e-01,9.99999e-01,2.71906e-01,6.42531e-01,9.99952e-01
1.134401778e+00,7.75218e-02,9.99999e-01,9.99999e-01,1.19607e-01,6.48169e-01,9.99946e-01
1.140073787e+00,2.92224e-01,9.99999e-01,9.99999e-01,4.47020e-01,6.53744e-01,9.99955e-01
1.145774156e+00,1.33095e-01,9.99999e-01,9.99999e-01,2.01894e-01,6.59256e-01,9.99963e-01
1.151503026e+00,1.14062e-01,9.99999e-01,9.99999e-01,1.71603e-01,6.64704e-01,9.99968e-01
1.157260541e+00,1.40877e-01,9.99999e-01,9.99999e-01,2.10241e-01,6.70088e-01,9.99976e-01
1.163046844e+00,2.10544e-01,9.99999e-01,9.99999e-01,3.11733e-01,6.75408e-01,9.99984e-01
1.168862078e+00,2.96948e-01,9.99999e-01,9.99999e-01,4.36266e-01,6.80664e-01,9.99991e-01
1.174706389e+00,4.10714e-01,9.99999e-01,9.99999e-01,5.98836e-01,6.85855e-01,9.99995e-01
1.180579921e+00,5.04820e-01,9.99999e-01,9.99999e-01,7.30583e-01,6.90983e-01,9.99997e-01
1.186482820e+00,5.82483e-01,9.99999e-01,9.99987e-01,8.36854e-01,6.96047e-01,9.99997e-01
1.192415234e+00,6.11243e-01,9.99999e-01,9.66526e-01,9.01184e-01,7.01046e-01,9.99997e-01
1.198377311e+00,3.46086e-01,9.99999e-01,5.27310e-01,9.16252e-01,7.05982e-01,9.99997e-01
1.204369197e+00,1.38014e-26,9.99999e-01,2.03679e-26,9.20661e-01,7.10854e-01,9.99998e-01
1.210391043e+00,9.77411e-107,9.99999e-01,1.42722e-106,9.23868e-01,7.15662e-01,9.99998e-01
1.216442998e+00,2.10381e-92,9.99999e-01,3.04474e-92,9.34697e-01,7.20407e-01,9.99998e-01
1.222525213e+00,5.15679e-91,9.99999e-01,7.30682e-91,9.48774e-01,7.25088e-01,9.99999e-01
1.228637839e+00,2.92321e-70,9.99999e-01,4.10565e-70,9.64167e-01,7.29707e-01,9.99999e-01
