#,Wave/freq,Total,O2,CO2,H2O,Rayleigh,CIA
4.000000000e-01,1.51237e-10,9.99999e-01,9.99999e-01,9.99955e-01,1.51244e-10,9.99999e-01
4.020000000e-01,2.36509e-10,9.99999e-01,9.99999e-01,9.99971e-01,2.36515e-10,9.99999e-01
4.040100000e-01,3.66433e-10,9.99999e-01,9.99999e-01,9.99987e-01,3.66437e-10,9.99999e-01
4.060300500e-01,5.62837e-10,9.99999e-01,9.99999e-01,9.99996e-01,5.62838e-10,9.99999e-01
4.080602003e-01,8.57208e-10,9.99999e-01,9.99999e-01,9.99998e-01,8.57208e-10,9.99999e-01
4.101005013e-01,1.29473e-09,9.99999e-01,9.99999e-01,9.99999e-01,1.29473e-09,9.99999e-01
4.121510038e-01,1.93971e-09,9.99999e-01,9.99999e-01,9.99997e-01,1.93971e-09,9.99999e-01
4.142117588e-01,2.88284e-09,9.99999e-01,9.99999e-01,9.99987e-01,2.88287e-09,9.99999e-01
4.162828176e-01,4.25100e-09,9.99999e-01,9.99999e-01,9.99944e-01,4.25124e-09,9.99999e-01
4.183642317e-01,6.22098e-09,9.99999e-01,9.99999e-01,9.99966e-01,6.22118e-09,9.99999e-01
4.204560528e-01,9.03557e-09,9.99999e-01,9.99999e-01,9.99979e-01,9.03575e-09,9.99999e-01
4.225583331e-01,1.30272e-08,9.99999e-01,9.99999e-01,9.99991e-01,1.30273e-08,9.99999e-01
4.246711247e-01,1.86467e-08,9.99999e-01,9.99999e-01,9.99993e-01,1.86468e-08,9.99999e-01
4.267944804e-01,2.65018e-08,9.99999e-01,9.99999e-01,9.99990e-01,2.65021e-08,9.99999e-01
4.289284528e-01,3.74055e-08,9.99999e-01,9.99999e-01,9.99992e-01,3.74058e-08,9.99999e-01
4.310730950e-01,5.24373e-08,9.99999e-01,9.99999e-01,9.99996e-01,5.24374e-08,9.99999e-01
4.332284605e-01,7.30208e-08,9.99999e-01,9.99999e-01,9.99998e-01,7.30208e-08,9.99999e-01
4.353946028e-01,1.01021e-07,9.99999e-01,9.99999e-01,9.99999e-01,1.01021e-07,9.99999e-01
4.375715758e-01,1.38864e-07,9.99999e-01,9.99999e-01,9.99994e-01,1.38865e-07,9.99999e-01
4.397594337e-01,1.89680e-07,9.99999e-01,9.99999e-01,9.99952e-01,1.89689e-07,9.99999e-01
4.419582309e-01,2.57462e-07,9.99999e-01,9.99999e-01,9.99759e-01,2.57524e-07,9.99999e-01
4.441680220e-01,3.47446e-07,9.99999e-01,9.99999e-01,9.99807e-01,3.47512e-07,9.99999e-01
4.463888621e-01,4.66086e-07,9.99999e-01,9.99999e-01,9.99800e-01,4.66178e-07,9.99999e-01
4.486208064e-01,6.21670e-07,9.99999e-01,9.99999e-01,9.99875e-01,6.21747e-07,9.99999e-01
4.508639105e-01,8.24480e-07,9.99999e-01,9.99999e-01,9.99941e-01,8.24528e-07,9.99999e-01
4.531182300e-01,1.08734e-06,9.99999e-01,9.99999e-01,9.99976e-01,1.08737e-06,9.99999e-01
4.553838212e-01,1.42615e-06,9.99999e-01,9.99999e-01,9.99984e-01,1.42617e-06,9.99999e-01
4.576607403e-01,1.86054e-06,9.99999e-01,9.99999e-01,9.99992e-01,1.86055e-06,9.99999e-01
4.599490440e-01,2.41450e-06,9.99999e-01,9.99999e-01,9.99994e-01,2.41452e-06,9.99999e-01
4.622487892e-01,3.11733e-06,9.99999e-01,9.99999e-01,9.99998e-01,3.11733e-06,9.99999e-01
4.645600332e-01,4.00445e-06,9.99999e-01,9.99999e-01,9.99996e-01,4.00447e-06,9.99999e-01
4.668828333e-01,5.11838e-06,9.99999e-01,9.99999e-01,9.99941e-01,5.11868e-06,9.99999e-01
4.692172475e-01,6.51045e-06,9.99999e-01,9.99999e-01,9.99874e-01,6.51126e-06,9.99999e-01
4.715633337e-01,8.24276e-06,9.99999e-01,9.99999e-01,9.99918e-01,8.24343e-06,9.99999e-01
4.739211504e-01,1.03871e-05,9.99999e-01,9.99999e-01,9.99921e-01,1.03879e-05,9.99999e-01
4.762907561e-01,1.30300e-05,9.99999e-01,9.99999e-01,9.99958e-01,1.30306e-05,9.99999e-01
4.786722099e-01,1.62723e-05,9.99999e-01,9.99999e-01,9.99982e-01,1.62725e-05,9.99999e-01
4.810655710e-01,2.02320e-05,9.99999e-01,9.99999e-01,9.99994e-01,2.02321e-05,9.99999e-01
4.834708988e-01,2.50460e-05,9.99999e-01,9.99999e-01,9.99953e-01,2.50471e-05,9.99999e-01
4.858882533e-01,3.08749e-05,9.99999e-01,9.99999e-01,9.99911e-01,3.08776e-05,9.99999e-01
4.883176946e-01,3.79055e-05,9.99999e-01,9.99999e-01,9.99926e-01,3.79083e-05,9.99999e-01
4.907592831e-01,4.63486e-05,9.99999e-01,9.99999e-01,9.99932e-01,4.63517e-05,9.99999e-01
4.932130795e-01,5.64483e-05,9.99999e-01,9.99999e-01,9.99952e-01,5.64510e-05,9.99999e-01
4.956791449e-01,6.84818e-05,9.99999e-01,9.99999e-01,9.99974e-01,6.84836e-05,9.99999e-01
4.981575406e-01,8.27541e-05,9.99999e-01,9.99999e-01,9.99874e-01,8.27644e-05,9.99999e-01
5.006483283e-01,9.96179e-05,9.99999e-01,9.99999e-01,9.99679e-01,9.96498e-05,9.99999e-01
5.031515699e-01,1.19345e-04,9.99999e-01,9.99999e-01,9.98359e-01,1.19541e-04,9.99999e-01
5.056673278e-01,1.42764e-04,9.99999e-01,9.99999e-01,9.99130e-01,1.42888e-04,9.99999e-01
5.081956644e-01,1.70007e-04,9.99999e-01,9.99999e-01,9.98902e-01,1.70194e-04,9.99999e-01
5.107366428e-01,2.01869e-04,9.99999e-01,9.99999e-01,9.99257e-01,2.02019e-04,9.99999e-01
5.132903260e-01,2.38883e-04,9.99999e-01,9.99999e-01,9.99574e-01,2.38984e-04,9.99999e-01
5.158567776e-01,2.81726e-04,9.99999e-01,9.99999e-01,9.99819e-01,2.81777e-04,9.99999e-01
5.184360615e-01,3.31129e-04,9.99999e-01,9.99999e-01,9.99927e-01,3.31153e-04,9.99999e-01
5.210282418e-01,3.87932e-04,9.99999e-01,9.99999e-01,9.99972e-01,3.87942e-04,9.99999e-01
5.236333830e-01,4.53003e-04,9.99999e-01,9.99999e-01,9.99892e-01,4.53051e-04,9.99999e-01
5.262515499e-01,5.27433e-04,9.99999e-01,9.99999e-01,9.99932e-01,5.27468e-04,9.99999e-01
5.288828077e-01,6.12230e-04,9.99999e-01,9.99999e-01,9.99938e-01,6.12268e-04,9.99999e-01
5.315272217e-01,7.08571e-04,9.99999e-01,9.99999e-01,9.99945e-01,7.08610e-04,9.99999e-01
5.341848578e-01,8.17719e-04,9.99999e-01,9.99999e-01,9.99964e-01,8.17748e-04,9.99999e-01
5.368557821e-01,9.40912e-04,9.99999e-01,9.99999e-01,9.99875e-01,9.41028e-04,9.99999e-01
5.395400610e-01,1.07942e-03,9.99999e-01,9.99999e-01,9.99555e-01,1.07990e-03,9.99999e-01
5.422377613e-01,1.23517e-03,9.99999e-01,9.99999e-01,9.99415e-01,1.23589e-03,9.99999e-01
5.449489501e-01,1.40989e-03,9.99999e-01,9.99999e-01,9.99461e-01,1.41065e-03,9.99999e-01
5.476736949e-01,1.60516e-03,9.99999e-01,9.99999e-01,9.99517e-01,1.60593e-03,9.99999e-01
5.504120634e-01,1.82292e-03,9.99999e-01,9.99999e-01,9.99650e-01,1.82356e-03,9.99999e-01
5.531641237e-01,2.06513e-03,9.99999e-01,9.99999e-01,9.99823e-01,2.06549e-03,9.99999e-01
5.559299443e-01,2.33357e-03,9.99999e-01,9.99999e-01,9.99914e-01,2.33377e-03,9.99999e-01
5.587095940e-01,2.63041e-03,9.99999e-01,9.99999e-01,9.99946e-01,2.63055e-03,9.99999e-01
5.615031420e-01,2.95788e-03,9.99999e-01,9.99999e-01,9.99940e-01,2.95806e-03,9.99999e-01
5.643106577e-01,3.31842e-03,9.99999e-01,9.99999e-01,9.99933e-01,3.31864e-03,9.99999e-01
5.671322110e-01,3.71178e-03,9.99999e-01,9.99999e-01,9.99205e-01,3.71473e-03,9.99999e-01
5.699678720e-01,4.14522e-03,9.99999e-01,9.99999e-01,9.99125e-01,4.14885e-03,9.99999e-01
5.728177114e-01,4.61944e-03,9.99999e-01,9.99999e-01,9.99101e-01,4.62359e-03,9.99999e-01
5.756818000e-01,5.13739e-03,9.99999e-01,9.99999e-01,9.99172e-01,5.14164e-03,9.99999e-01
5.785602090e-01,5.70163e-03,9.99999e-01,9.99999e-01,9.99277e-01,5.70576e-03,9.99999e-01
5.814530100e-01,6.31418e-03,9.99999e-01,9.99999e-01,9.99276e-01,6.31875e-03,9.99999e-01
5.843602750e-01,6.97756e-03,9.99999e-01,9.99999e-01,9.99145e-01,6.98352e-03,9.99999e-01
5.872820764e-01,7.64635e-03,9.99999e-01,9.99999e-01,9.92647e-01,7.70299e-03,9.99999e-01
5.902184868e-01,8.40378e-03,9.99999e-01,9.99999e-01,9.90995e-01,8.48014e-03,9.99999e-01
5.931695792e-01,9.25889e-03,9.99999e-01,9.99999e-01,9.93657e-01,9.31799e-03,9.99999e-01
5.961354271e-01,1.01483e-02,9.99999e-01,9.99999e-01,9.93028e-01,1.02196e-02,9.99999e-01
5.991161043e-01,1.11310e-02,9.99999e-01,9.99999e-01,9.94903e-01,1.11880e-02,9.99999e-01
6.021116848e-01,1.21908e-02,9.99999e-01,9.99999e-01,9.97101e-01,1.22263e-02,9.99999e-01
6.051222432e-01,1.33179e-02,9.99999e-01,9.99999e-01,9.98531e-01,1.33375e-02,9.99999e-01
6.081478544e-01,1.45156e-02,9.99999e-01,9.99999e-01,9.99366e-01,1.45248e-02,9.99999e-01
6.111885937e-01,1.57868e-02,9.99999e-01,9.99999e-01,9.99731e-01,1.57911e-02,9.99999e-01
6.142445367e-01,1.71374e-02,9.99999e-01,9.99999e-01,9.99879e-01,1.71395e-02,9.99999e-01
6.173157594e-01,1.85717e-02,9.99999e-01,9.99999e-01,9.99933e-01,1.85729e-02,9.99999e-01
6.204023382e-01,2.00933e-02,9.99999e-01,9.99999e-01,9.99944e-01,2.00944e-02,9.99999e-01
6.235043498e-01,2.17014e-02,9.99999e-01,9.99999e-01,9.99759e-01,2.17067e-02,9.99999e-01
6.266218716e-01,2.33823e-02,9.99999e-01,9.99999e-01,9.98704e-01,2.34126e-02,9.99999e-01
6.297549810e-01,2.52029e-02,9.99999e-01,9.99999e-01,9.99524e-01,2.52149e-02,9.99999e-01
6.329037559e-01,2.70906e-02,9.99999e-01,9.99999e-01,9.99057e-01,2.71161e-02,9.99999e-01
6.360682746e-01,2.90957e-02,9.99999e-01,9.99999e-01,9.99201e-01,2.91189e-02,9.99999e-01
6.392486160e-01,3.11933e-02,9.99999e-01,9.99999e-01,9.98962e-01,3.12257e-02,9.99999e-01
6.424448591e-01,3.33972e-02,9.99999e-01,9.99999e-01,9.98758e-01,3.34387e-02,9.99999e-01
6.456570834e-01,3.55343e-02,9.99999e-01,9.99999e-01,9.93685e-01,3.57601e-02,9.99999e-01
6.488853688e-01,3.79800e-02,9.99999e-01,9.99999e-01,9.94448e-01,3.81920e-02,9.99999e-01
6.521297956e-01,4.05404e-02,9.99999e-01,9.99999e-01,9.95188e-01,4.07364e-02,9.99999e-01
6.553904446e-01,4.31888e-02,9.99999e-01,9.99999e-01,9.95250e-01,4.33949e-02,9.99999e-01
6.586673968e-01,4.59794e-02,9.99999e-01,9.99999e-01,9.95888e-01,4.61692e-02,9.99999e-01
6.619607338e-01,4.89442e-02,9.99999e-01,9.99999e-01,9.97622e-01,4.90608e-02,9.99999e-01
6.652705375e-01,5.19991e-02,9.99999e-01,9.99999e-01,9.98618e-01,5.20710e-02,9.99999e-01
6.685968902e-01,5.51655e-02,9.99999e-01,9.99999e-01,9.99358e-01,5.52009e-02,9.99999e-01
6.719398746e-01,5.84342e-02,9.99999e-01,9.99999e-01,9.99701e-01,5.84516e-02,9.99999e-01
6.752995740e-01,6.18138e-02,9.99999e-01,9.99999e-01,9.99839e-01,6.18237e-02,9.99999e-01
6.786760719e-01,6.53030e-02,9.99999e-01,9.99999e-01,9.99769e-01,6.53180e-02,9.99999e-01
6.820694522e-01,6.89076e-02,9.99999e-01,9.99999e-01,9.99605e-01,6.89348e-02,9.99999e-01
6.854797995e-01,7.26376e-02,9.99999e-01,9.99999e-01,9.99491e-01,7.26745e-02,9.99999e-01
6.889071985e-01,7.64448e-02,9.99999e-01,9.99999e-01,9.98791e-01,7.65372e-02,9.99999e-01
6.923517345e-01,7.89260e-02,9.99999e-01,9.99999e-01,9.80168e-01,8.05228e-02,9.99999e-01
6.958134932e-01,8.37345e-02,9.99999e-01,9.99999e-01,9.89405e-01,8.46311e-02,9.99999e-01
6.992925606e-01,8.79863e-02,9.99999e-01,9.99999e-01,9.90150e-01,8.88615e-02,9.99999e-01
7.027890234e-01,9.20705e-02,9.99999e-01,9.99999e-01,9.87736e-01,9.32136e-02,9.99999e-01
7.063029686e-01,9.66794e-02,9.99999e-01,9.99999e-01,9.89689e-01,9.76865e-02,9.99999e-01
7.098344834e-01,1.01267e-01,9.99999e-01,9.99999e-01,9.90104e-01,1.02279e-01,9.99999e-01
7.133836558e-01,1.05604e-01,9.99999e-01,9.99999e-01,9.87040e-01,1.06991e-01,9.99998e-01
7.169505741e-01,1.00650e-01,9.99999e-01,9.99999e-01,9.00110e-01,1.11820e-01,9.99998e-01
7.205353270e-01,1.10770e-01,9.99999e-01,9.99999e-01,9.48657e-01,1.16765e-01,9.99998e-01
7.241380036e-01,1.14065e-01,9.99999e-01,9.99999e-01,9.36306e-01,1.21825e-01,9.99997e-01
7.277586936e-01,1.19668e-01,9.99999e-01,9.99999e-01,9.42285e-01,1.26998e-01,9.99998e-01
7.313974871e-01,1.24106e-01,9.99999e-01,9.99999e-01,9.38201e-01,1.32281e-01,9.99998e-01
7.350544745e-01,1.32967e-01,9.99999e-01,9.99999e-01,9.65810e-01,1.37674e-01,9.99999e-01
7.387297469e-01,1.39549e-01,9.99999e-01,9.99999e-01,9.74689e-01,1.43173e-01,9.99999e-01
7.424233956e-01,1.46917e-01,9.99999e-01,9.99999e-01,9.87498e-01,1.48776e-01,9.99999e-01
7.461355126e-01,1.53312e-01,9.99999e-01,9.99999e-01,9.92421e-01,1.54482e-01,9.99999e-01
7.498661902e-01,1.59719e-01,9.99999e-01,9.99999e-01,9.96454e-01,1.60288e-01,9.99999e-01
7.536155211e-01,1.65902e-01,9.99999e-01,9.99999e-01,9.98265e-01,1.66190e-01,9.99999e-01
7.573835987e-01,1.72033e-01,9.99999e-01,9.99999e-01,9.99105e-01,1.72187e-01,9.99999e-01
7.611705167e-01,1.78176e-01,9.99999e-01,9.99999e-01,9.99444e-01,1.78275e-01,9.99999e-01
7.649763693e-01,1.84388e-01,9.99999e-01,9.99999e-01,9.99652e-01,1.84452e-01,9.99999e-01
7.688012511e-01,1.90669e-01,9.99999e-01,9.99999e-01,9.99758e-01,1.90715e-01,9.99999e-01
7.726452574e-01,1.97021e-01,9.99999e-01,9.99999e-01,9.99801e-01,1.97060e-01,9.99999e-01
7.765084837e-01,2.03428e-01,9.99999e-01,9.99999e-01,9.99720e-01,2.03485e-01,9.99999e-01
7.803910261e-01,1.96621e-01,9.99999e-01,9.37415e-01,9.98793e-01,2.09986e-01,9.99999e-01
7.842929812e-01,1.56530e-01,9.99999e-01,7.25566e-01,9.95796e-01,2.16560e-01,9.99999e-01
7.882144461e-01,1.57867e-01,9.99999e-01,7.13026e-01,9.91268e-01,2.23204e-01,9.99999e-01
7.921555184e-01,1.86722e-01,9.99999e-01,8.15883e-01,9.95175e-01,2.29915e-01,9.99999e-01
7.961162960e-01,2.04427e-01,9.99999e-01,8.70863e-01,9.91597e-01,2.36689e-01,9.99999e-01
8.000968774e-01,2.23757e-01,9.99999e-01,9.27839e-01,9.90232e-01,2.43523e-01,9.99999e-01
8.040973618e-01,2.38489e-01,9.99999e-01,9.61721e-01,9.90246e-01,2.50413e-01,9.99999e-01
8.081178486e-01,2.47344e-01,9.99999e-01,9.82323e-01,9.78324e-01,2.57356e-01,9.99999e-01
8.121584379e-01,2.39955e-01,9.99999e-01,9.94453e-01,9.12672e-01,2.64350e-01,9.99998e-01
8.162192301e-01,2.42909e-01,9.99999e-01,9.98771e-01,8.96117e-01,2.71389e-01,9.99998e-01
8.203003262e-01,2.64066e-01,9.99999e-01,9.99978e-01,9.48289e-01,2.78471e-01,9.99997e-01
8.244018279e-01,2.64672e-01,9.99999e-01,9.99999e-01,9.26748e-01,2.85593e-01,9.99997e-01
8.285238370e-01,2.74305e-01,9.99999e-01,9.99999e-01,9.36995e-01,2.92750e-01,9.99998e-01
8.326664562e-01,2.80766e-01,9.99999e-01,9.99999e-01,9.36072e-01,2.99941e-01,9.99998e-01
8.368297885e-01,2.92947e-01,9.99999e-01,9.99999e-01,9.53725e-01,3.07160e-01,9.99998e-01
8.410139374e-01,3.05671e-01,9.99999e-01,9.99999e-01,9.72218e-01,3.14406e-01,9.99999e-01
8.452190071e-01,3.17255e-01,9.99999e-01,9.99999e-01,9.86260e-01,3.21674e-01,9.99999e-01
8.494451021e-01,3.26344e-01,9.99999e-01,9.99999e-01,9.92040e-01,3.28962e-01,9.99999e-01
8.536923276e-01,3.34675e-01,9.99999e-01,9.99999e-01,9.95266e-01,3.36267e-01,9.99999e-01
8.579607893e-01,3.42586e-01,9.99999e-01,9.99999e-01,9.97093e-01,3.43584e-01,9.99999e-01
8.622505932e-01,3.50262e-01,9.99999e-01,9.99999e-01,9.98147e-01,3.50911e-01,9.99999e-01
8.665618462e-01,3.19277e-01,9.99999e-01,8.92184e-01,9.98858e-01,3.58246e-01,9.99999e-01
8.708946554e-01,1.65347e-01,9.99999e-01,4.52835e-01,9.98696e-01,3.65584e-01,9.99999e-01
8.752491287e-01,1.93410e-01,9.99999e-01,5.19488e-01,9.98255e-01,3.72923e-01,9.99999e-01
8.796253743e-01,2.62959e-01,9.99999e-01,6.93092e-01,9.97593e-01,3.80260e-01,9.99999e-01
8.840235012e-01,3.19018e-01,9.99999e-01,8.25276e-01,9.97248e-01,3.87592e-01,9.99999e-01
8.884436187e-01,3.62372e-01,9.99999e-01,9.26464e-01,9.90225e-01,3.94917e-01,9.99999e-01
8.928858368e-01,3.51416e-01,9.99999e-01,9.69601e-01,9.00549e-01,4.02231e-01,9.99998e-01
8.973502660e-01,3.37235e-01,9.99999e-01,9.92472e-01,8.29443e-01,4.09532e-01,9.99997e-01
9.018370173e-01,3.78274e-01,9.99999e-01,9.99165e-01,9.08238e-01,4.16818e-01,9.99996e-01
9.063462024e-01,3.82845e-01,9.99999e-01,9.79842e-01,9.20080e-01,4.24086e-01,9.99996e-01
9.108779334e-01,3.61014e-01,9.99999e-01,9.52611e-01,8.77521e-01,4.31333e-01,9.99996e-01
9.154323231e-01,3.73698e-01,9.99999e-01,9.88536e-01,8.61546e-01,4.38557e-01,9.99995e-01
9.200094847e-01,3.45205e-01,9.99999e-01,8.60326e-01,8.89698e-01,4.45755e-01,9.99994e-01
9.246095321e-01,3.02281e-01,9.99999e-01,7.89414e-01,8.39030e-01,4.52926e-01,9.99991e-01
9.292325798e-01,1.25361e-01,9.99999e-01,8.34215e-01,3.16476e-01,4.60068e-01,9.99982e-01
9.338787427e-01,9.01672e-02,9.99999e-01,8.36638e-01,2.23658e-01,4.67178e-01,9.99976e-01
9.385481364e-01,2.29494e-01,9.99999e-01,8.76607e-01,5.44294e-01,4.74254e-01,9.99976e-01
9.432408771e-01,1.97875e-01,9.99999e-01,9.21972e-01,4.42432e-01,4.81294e-01,9.99973e-01
9.479570815e-01,1.53316e-01,9.99999e-01,9.59310e-01,3.26045e-01,4.88296e-01,9.99976e-01
9.526968669e-01,2.04974e-01,9.99999e-01,9.80139e-01,4.20979e-01,4.95259e-01,9.99982e-01
9.574603512e-01,2.20126e-01,9.99999e-01,9.91449e-01,4.41636e-01,5.02181e-01,9.99986e-01
9.622476530e-01,2.58725e-01,9.99999e-01,9.97321e-01,5.09445e-01,5.09060e-01,9.99991e-01
9.670588912e-01,3.48957e-01,9.99999e-01,9.99194e-01,6.76902e-01,5.15895e-01,9.99994e-01
9.718941857e-01,4.08277e-01,9.99999e-01,9.99941e-01,7.81158e-01,5.22684e-01,9.99996e-01
9.767536566e-01,4.31242e-01,9.99999e-01,9.99999e-01,8.14549e-01,5.29425e-01,9.99997e-01
9.816374249e-01,4.60133e-01,9.99999e-01,9.99999e-01,8.58271e-01,5.36117e-01,9.99997e-01
9.865456120e-01,4.93237e-01,9.99999e-01,9.99999e-01,9.08757e-01,5.42760e-01,9.99998e-01
9.914783401e-01,5.17794e-01,9.99999e-01,9.99999e-01,9.42556e-01,5.49351e-01,9.99999e-01
9.964357318e-01,5.38259e-01,9.99999e-01,9.99999e-01,9.68283e-01,5.55889e-01,9.99999e-01
1.001417910e+00,5.51611e-01,9.99999e-01,9.99999e-01,9.80860e-01,5.62374e-01,9.99999e-01
1.006425000e+00,5.62588e-01,9.99999e-01,9.99999e-01,9.89070e-01,5.68805e-01,9.99999e-01
1.011457125e+00,5.71258e-01,9.99999e-01,9.99999e-01,9.93181e-01,5.75179e-01,9.99999e-01
1.016514411e+00,5.78808e-01,9.99999e-01,9.99999e-01,9.95375e-01,5.81497e-01,9.99999e-01
1.021596983e+00,5.85537e-01,9.99999e-01,9.99902e-01,9.96316e-01,5.87758e-01,9.99999e-01
1.026704968e+00,5.87559e-01,9.99999e-01,9.92062e-01,9.97128e-01,5.93960e-01,9.99999e-01
1.031838492e+00,5.56935e-01,9.99999e-01,9.29928e-01,9.97906e-01,6.00103e-01,9.99999e-01
1.036997685e+00,4.59063e-02,9.99999e-01,7.58011e-02,9.98759e-01,6.06187e-01,9.99999e-01
1.042182673e+00,8.82811e-03,9.99999e-01,1.44372e-02,9.98526e-01,6.12210e-01,9.99999e-01
1.047393587e+00,1.80656e-02,9.99999e-01,2.92729e-02,9.98043e-01,6.18173e-01,9.99999e-01
1.052630555e+00,2.02009e-05,9.99999e-01,3.24268e-05,9.97319e-01,6.24074e-01,9.99999e-01
1.057893707e+00,7.01158e-05,9.99999e-01,1.11589e-04,9.95536e-01,6.29913e-01,9.99999e-01
1.063183176e+00,7.20835e-04,9.99999e-01,1.13911e-03,9.92655e-01,6.35690e-01,9.99999e-01
1.068499092e+00,4.47028e-03,9.99999e-01,7.03273e-03,9.87712e-01,6.41404e-01,9.99999e-01
1.073841587e+00,2.68075e-02,9.99999e-01,4.18898e-02,9.85671e-01,6.47055e-01,9.99999e-01
1.079210795e+00,8.66761e-02,9.99999e-01,1.34873e-01,9.81597e-01,6.52643e-01,9.99999e-01
1.084606849e+00,2.08167e-01,9.99999e-01,3.24442e-01,9.72338e-01,6.58167e-01,9.99998e-01
1.090029883e+00,3.55254e-01,9.99999e-01,5.55899e-01,9.60796e-01,6.63628e-01,9.99998e-01
1.095480033e+00,4.49757e-01,9.99999e-01,7.47934e-01,8.96560e-01,6.69025e-01,9.99996e-01
1.100957433e+00,4.46134e-01,9.99999e-01,8.69047e-01,7.58924e-01,6.74357e-01,9.99994e-01
1.106462220e+00,3.24347e-01,9.99999e-01,9.43484e-01,5.03771e-01,6.79626e-01,9.99989e-01
1.111994531e+00,1.61520e-01,9.99999e-01,9.78655e-01,2.40308e-01,6.84830e-01,9.99978e-01
1.117554504e+00,7.14969e-02,9.99999e-01,9.94718e-01,1.03997e-01,6.89971e-01,9.99970e-01
1.123142276e+00,1.40968e-01,9.99999e-01,9.99649e-01,2.02841e-01,6.95047e-01,9.99964e-01
1.128757988e+00,2.40248e-01,9.99999e-01,9.99999e-01,3.43196e-01,7.00059e-01,9.99961e-01
1.134401778e+00,1.10022e-01,9.99999e-01,9.99999e-01,1.56065e-01,7.05007e-01,9.99956e-01
1.140073787e+00,3.68329e-01,9.99999e-01,9.99999e-01,5.18870e-01,7.09892e-01,9.99963e-01
1.145774156e+00,1.90665e-01,9.99999e-01,9.99999e-01,2.66780e-01,7.14713e-01,9.99970e-01
1.151503026e+00,1.67762e-01,9.99999e-01,9.99999e-01,2.33180e-01,7.19470e-01,9.99974e-01
1.157260541e+00,2.02865e-01,9.99999e-01,9.99999e-01,2.80141e-01,7.24164e-01,9.99980e-01
1.163046844e+00,2.81967e-01,9.99999e-01,9.99999e-01,3.86899e-01,7.28795e-01,9.99987e-01
1.168862078e+00,3.74580e-01,9.99999e-01,9.99999e-01,5.10773e-01,7.33364e-01,9.99993e-01
1.174706389e+00,4.87242e-01,9.99999e-01,9.99999e-01,6.60337e-01,7.37870e-01,9.99996e-01
1.180579921e+00,5.75960e-01,9.99999e-01,9.99999e-01,7.75899e-01,7.42314e-01,9.99997e-01
1.186482820e+00,6.46720e-01,9.99999e-01,9.99989e-01,8.66117e-01,7.46696e-01,9.99997e-01
1.192415234e+00,6.72143e-01,9.99999e-01,9.72664e-01,9.19512e-01,7.51016e-01,9.99998e-01
1.198377311e+00,3.82679e-01,9.99999e-01,5.37403e-01,9.31885e-01,7.55276e-01,9.99998e-01
1.204369197e+00,7.20043e-22,9.99999e-01,9.85405e-22,9.35456e-01,7.59475e-01,9.99998e-01
1.210391043e+00,1.75427e-86,9.99999e-01,2.38035e-86,9.38112e-01,7.63613e-01,9.99998e-01
1.216442998e+00,6.28925e-75,9.99999e-01,8.47267e-75,9.46973e-01,7.67692e-01,9.99998e-01
1.222525213e+00,8.29303e-74,9.99999e-01,1.09830e-73,9.58480e-01,7.71711e-01,9.99999e-01
1.228637839e+00,4.80028e-57,9.99999e-01,6.31280e-57,9.71004e-01,7.75672e-01,9.99999e-01
