#,Wave/freq,Total,O2,CO2,H2O,Rayleigh,CIA
4.000000000e-01,1.54462e-08,9.99999e-01,9.99999e-01,9.99964e-01,1.54468e-08,9.99999e-01
4.020000000e-01,2.20431e-08,9.99999e-01,9.99999e-01,9.99977e-01,2.20436e-08,9.99999e-01
4.040100000e-01,3.12261e-08,9.99999e-01,9.99999e-01,9.99990e-01,3.12264e-08,9.99999e-01
4.060300500e-01,4.39312e-08,9.99999e-01,9.99999e-01,9.99997e-01,4.39312e-08,9.99999e-01
4.080602003e-01,6.13899e-08,9.99999e-01,9.99999e-01,9.99998e-01,6.13899e-08,9.99999e-01
4.101005013e-01,8.52216e-08,9.99999e-01,9.99999e-01,9.99999e-01,8.52216e-08,9.99999e-01
4.121510038e-01,1.17541e-07,9.99999e-01,9.99999e-01,9.99998e-01,1.17541e-07,9.99999e-01
4.142117588e-01,1.61089e-07,9.99999e-01,9.99999e-01,9.99989e-01,1.61091e-07,9.99999e-01
4.162828176e-01,2.19396e-07,9.99999e-01,9.99999e-01,9.99956e-01,2.19405e-07,9.99999e-01
4.183642317e-01,2.97004e-07,9.99999e-01,9.99999e-01,9.99973e-01,2.97012e-07,9.99999e-01
4.204560528e-01,3.99665e-07,9.99999e-01,9.99999e-01,9.99983e-01,3.99671e-07,9.99999e-01
4.225583331e-01,5.34666e-07,9.99999e-01,9.99999e-01,9.99993e-01,5.34669e-07,9.99999e-01
4.246711247e-01,7.11163e-07,9.99999e-01,9.99999e-01,9.99994e-01,7.11166e-07,9.99999e-01
4.267944804e-01,9.40604e-07,9.99999e-01,9.99999e-01,9.99992e-01,9.40610e-07,9.99999e-01
4.289284528e-01,1.23722e-06,9.99999e-01,9.99999e-01,9.99994e-01,1.23723e-06,9.99999e-01
4.310730950e-01,1.61859e-06,9.99999e-01,9.99999e-01,9.99997e-01,1.61860e-06,9.99999e-01
4.332284605e-01,2.10631e-06,9.99999e-01,9.99999e-01,9.99998e-01,2.10631e-06,9.99999e-01
4.353946028e-01,2.72676e-06,9.99999e-01,9.99999e-01,9.99999e-01,2.72676e-06,9.99999e-01
4.375715758e-01,3.51200e-06,9.99999e-01,9.99999e-01,9.99995e-01,3.51202e-06,9.99999e-01
4.397594337e-01,4.50068e-06,9.99999e-01,9.99999e-01,9.99960e-01,4.50086e-06,9.99999e-01
4.419582309e-01,5.73879e-06,9.99999e-01,9.99999e-01,9.99801e-01,5.73992e-06,9.99999e-01
4.441680220e-01,7.28392e-06,9.99999e-01,9.99999e-01,9.99849e-01,7.28502e-06,9.99999e-01
4.463888621e-01,9.20114e-06,9.99999e-01,9.99999e-01,9.99841e-01,9.20260e-06,9.99999e-01
4.486208064e-01,1.15703e-05,9.99999e-01,9.99999e-01,9.99902e-01,1.15714e-05,9.99999e-01
4.508639105e-01,1.44836e-05,9.99999e-01,9.99999e-01,9.99953e-01,1.44843e-05,9.99999e-01
4.531182300e-01,1.80498e-05,9.99999e-01,9.99999e-01,9.99981e-01,1.80501e-05,9.99999e-01
4.553838212e-01,2.23960e-05,9.99999e-01,9.99999e-01,9.99987e-01,2.23963e-05,9.99999e-01
4.576607403e-01,2.76707e-05,9.99999e-01,9.99999e-01,9.99993e-01,2.76708e-05,9.99999e-01
4.599490440e-01,3.40449e-05,9.99999e-01,9.99999e-01,9.99995e-01,3.40450e-05,9.99999e-01
4.622487892e-01,4.17163e-05,9.99999e-01,9.99999e-01,9.99998e-01,4.17164e-05,9.99999e-01
4.645600332e-01,5.09114e-05,9.99999e-01,9.99999e-01,9.99996e-01,5.09115e-05,9.99999e-01
4.668828333e-01,6.18866e-05,9.99999e-01,9.99999e-01,9.99952e-01,6.18895e-05,9.99999e-01
4.692172475e-01,7.49377e-05,9.99999e-01,9.99999e-01,9.99900e-01,7.49451e-05,9.99999e-01
4.715633337e-01,9.04064e-05,9.99999e-01,9.99999e-01,9.99934e-01,9.04123e-05,9.99999e-01
4.739211504e-01,1.08661e-04,9.99999e-01,9.99999e-01,9.99937e-01,1.08668e-04,9.99999e-01
4.762907561e-01,1.30132e-04,9.99999e-01,9.99999e-01,9.99967e-01,1.30136e-04,9.99999e-01
4.786722099e-01,1.55290e-04,9.99999e-01,9.99999e-01,9.99986e-01,1.55292e-04,9.99999e-01
4.810655710e-01,1.84664e-04,9.99999e-01,9.99999e-01,9.99995e-01,1.84664e-04,9.99999e-01
4.834708988e-01,2.18834e-04,9.99999e-01,9.99999e-01,9.99960e-01,2.18842e-04,9.99999e-01
4.858882533e-01,2.58459e-04,9.99999e-01,9.99999e-01,9.99929e-01,2.58478e-04,9.99999e-01
4.883176946e-01,3.04271e-04,9.99999e-01,9.99999e-01,9.99940e-01,3.04289e-04,9.99999e-01
4.907592831e-01,3.57048e-04,9.99999e-01,9.99999e-01,9.99946e-01,3.57067e-04,9.99999e-01
4.932130795e-01,4.17663e-04,9.99999e-01,9.99999e-01,9.99961e-01,4.17678e-04,9.99999e-01
4.956791449e-01,4.87057e-04,9.99999e-01,9.99999e-01,9.99979e-01,4.87067e-04,9.99999e-01
4.981575406e-01,5.66205e-04,9.99999e-01,9.99999e-01,9.99899e-01,5.66261e-04,9.99999e-01
5.006483283e-01,6.56205e-04,9.99999e-01,9.99999e-01,9.99738e-01,6.56376e-04,9.99999e-01
5.031515699e-01,7.57621e-04,9.99999e-01,9.99999e-01,9.98687e-01,7.58616e-04,9.99999e-01
5.056673278e-01,8.73675e-04,9.99999e-01,9.99999e-01,9.99310e-01,8.74277e-04,9.99999e-01
5.081956644e-01,1.00388e-03,9.99999e-01,9.99999e-01,9.99130e-01,1.00475e-03,9.99999e-01
5.107366428e-01,1.15086e-03,9.99999e-01,9.99999e-01,9.99413e-01,1.15153e-03,9.99999e-01
5.132903260e-01,1.31576e-03,9.99999e-01,9.99999e-01,9.99665e-01,1.31620e-03,9.99999e-01
5.158567776e-01,1.50025e-03,9.99999e-01,9.99999e-01,9.99858e-01,1.50046e-03,9.99999e-01
5.184360615e-01,1.70599e-03,9.99999e-01,9.99999e-01,9.99943e-01,1.70608e-03,9.99999e-01
5.210282418e-01,1.93493e-03,9.99999e-01,9.99999e-01,9.99978e-01,1.93497e-03,9.99999e-01
5.236333830e-01,2.18893e-03,9.99999e-01,9.99999e-01,9.99914e-01,2.18912e-03,9.99999e-01
5.262515499e-01,2.47049e-03,9.99999e-01,9.99999e-01,9.99946e-01,2.47062e-03,9.99999e-01
5.288828077e-01,2.78153e-03,9.99999e-01,9.99999e-01,9.99950e-01,2.78166e-03,9.99999e-01
5.315272217e-01,3.12441e-03,9.99999e-01,9.99999e-01,9.99956e-01,3.12454e-03,9.99999e-01
5.341848578e-01,3.50153e-03,9.99999e-01,9.99999e-01,9.99971e-01,3.50163e-03,9.99999e-01
5.368557821e-01,3.91502e-03,9.99999e-01,9.99999e-01,9.99899e-01,3.91541e-03,9.99999e-01
5.395400610e-01,4.36684e-03,9.99999e-01,9.99999e-01,9.99635e-01,4.36843e-03,9.99999e-01
5.422377613e-01,4.86110e-03,9.99999e-01,9.99999e-01,9.99537e-01,4.86334e-03,9.99999e-01
5.449489501e-01,5.40052e-03,9.99999e-01,9.99999e-01,9.99566e-01,5.40286e-03,9.99999e-01
5.476736949e-01,5.98749e-03,9.99999e-01,9.99999e-01,9.99619e-01,5.98977e-03,9.99999e-01
5.504120634e-01,6.62509e-03,9.99999e-01,9.99999e-01,9.99723e-01,6.62692e-03,9.99999e-01
5.531641237e-01,7.31621e-03,9.99999e-01,9.99999e-01,9.99860e-01,7.31722e-03,9.99999e-01
5.559299443e-01,8.06309e-03,9.99999e-01,9.99999e-01,9.99932e-01,8.06363e-03,9.99999e-01
5.587095940e-01,8.86877e-03,9.99999e-01,9.99999e-01,9.99957e-01,8.86914e-03,9.99999e-01
5.615031420e-01,9.73634e-03,9.99999e-01,9.99999e-01,9.99952e-01,9.73680e-03,9.99999e-01
5.643106577e-01,1.06691e-02,9.99999e-01,9.99999e-01,9.99945e-01,1.06696e-02,9.99999e-01
5.671322110e-01,1.16630e-02,9.99999e-01,9.99999e-01,9.99337e-01,1.16708e-02,9.99999e-01
5.699678720e-01,1.27345e-02,9.99999e-01,9.99999e-01,9.99318e-01,1.27432e-02,9.99999e-01
5.728177114e-01,1.38801e-02,9.99999e-01,9.99999e-01,9.99280e-01,1.38901e-02,9.99999e-01
5.756818000e-01,1.51044e-02,9.99999e-01,9.99999e-01,9.99341e-01,1.51144e-02,9.99999e-01
5.785602090e-01,1.64098e-02,9.99999e-01,9.99999e-01,9.99427e-01,1.64192e-02,9.99999e-01
5.814530100e-01,1.77972e-02,9.99999e-01,9.99999e-01,9.99423e-01,1.78075e-02,9.99999e-01
5.843602750e-01,1.92689e-02,9.99999e-01,9.99999e-01,9.99306e-01,1.92823e-02,9.99999e-01
5.872820764e-01,2.07222e-02,9.99999e-01,9.99999e-01,9.94044e-01,2.08464e-02,9.99999e-01
5.902184868e-01,2.23421e-02,9.99999e-01,9.99999e-01,9.92863e-01,2.25026e-02,9.99999e-01
5.931695792e-01,2.41311e-02,9.99999e-01,9.99999e-01,9.94936e-01,2.42539e-02,9.99999e-01
5.961354271e-01,2.59582e-02,9.99999e-01,9.99999e-01,9.94464e-01,2.61027e-02,9.99999e-01
5.991161043e-01,2.79386e-02,9.99999e-01,9.99999e-01,9.95966e-01,2.80517e-02,9.99999e-01
6.021116848e-01,3.00346e-02,9.99999e-01,9.99999e-01,9.97712e-01,3.01035e-02,9.99999e-01
6.051222432e-01,3.22229e-02,9.99999e-01,9.99999e-01,9.98842e-01,3.22602e-02,9.99999e-01
6.081478544e-01,3.45071e-02,9.99999e-01,9.99999e-01,9.99499e-01,3.45243e-02,9.99999e-01
6.111885937e-01,3.68901e-02,9.99999e-01,9.99999e-01,9.99788e-01,3.68978e-02,9.99999e-01
6.142445367e-01,3.93790e-02,9.99999e-01,9.99999e-01,9.99905e-01,3.93827e-02,9.99999e-01
6.173157594e-01,4.19788e-02,9.99999e-01,9.99999e-01,9.99947e-01,4.19809e-02,9.99999e-01
6.204023382e-01,4.46921e-02,9.99999e-01,9.99999e-01,9.99955e-01,4.46941e-02,9.99999e-01
6.235043498e-01,4.75144e-02,9.99999e-01,9.99999e-01,9.99800e-01,4.75238e-02,9.99999e-01
6.266218716e-01,5.04193e-02,9.99999e-01,9.99999e-01,9.98967e-01,5.04714e-02,9.99999e-01
6.297549810e-01,5.35179e-02,9.99999e-01,9.99999e-01,9.99620e-01,5.35382e-02,9.99999e-01
6.329037559e-01,5.66829e-02,9.99999e-01,9.99999e-01,9.99254e-01,5.67251e-02,9.99999e-01
6.360682746e-01,5.99949e-02,9.99999e-01,9.99999e-01,9.99361e-01,6.00332e-02,9.99999e-01
6.392486160e-01,6.34108e-02,9.99999e-01,9.99999e-01,9.99174e-01,6.34631e-02,9.99999e-01
6.424448591e-01,6.69407e-02,9.99999e-01,9.99999e-01,9.98884e-01,6.70154e-02,9.99999e-01
6.456570834e-01,7.03250e-02,9.99999e-01,9.99999e-01,9.94831e-01,7.06904e-02,9.99999e-01
6.488853688e-01,7.42101e-02,9.99999e-01,9.99999e-01,9.96263e-01,7.44884e-02,9.99999e-01
6.521297956e-01,7.81107e-02,9.99999e-01,9.99999e-01,9.96192e-01,7.84093e-02,9.99999e-01
6.553904446e-01,8.21387e-02,9.99999e-01,9.99999e-01,9.96187e-01,8.24530e-02,9.99999e-01
6.586673968e-01,8.63378e-02,9.99999e-01,9.99999e-01,9.96751e-01,8.66192e-02,9.99999e-01
6.619607338e-01,9.07427e-02,9.99999e-01,9.99999e-01,9.98189e-01,9.09073e-02,9.99999e-01
6.652705375e-01,9.52131e-02,9.99999e-01,9.99999e-01,9.98912e-01,9.53167e-02,9.99999e-01
6.685968902e-01,9.98005e-02,9.99999e-01,9.99999e-01,9.99538e-01,9.98465e-02,9.99999e-01
6.719398746e-01,1.04471e-01,9.99999e-01,9.99999e-01,9.99765e-01,1.04496e-01,9.99999e-01
6.752995740e-01,1.09250e-01,9.99999e-01,9.99999e-01,9.99875e-01,1.09263e-01,9.99999e-01
6.786760719e-01,1.14126e-01,9.99999e-01,9.99999e-01,9.99814e-01,1.14147e-01,9.99999e-01
6.820694522e-01,1.19109e-01,9.99999e-01,9.99999e-01,9.99681e-01,1.19147e-01,9.99999e-01
6.854797995e-01,1.24210e-01,9.99999e-01,9.99999e-01,9.99592e-01,1.24261e-01,9.99999e-01
6.889071985e-01,1.29356e-01,9.99999e-01,9.99999e-01,9.98998e-01,1.29486e-01,9.99999e-01
6.923517345e-01,1.32655e-01,9.99999e-01,9.99999e-01,9.83934e-01,1.34821e-01,9.99999e-01
6.958134932e-01,1.39118e-01,9.99999e-01,9.99999e-01,9.91822e-01,1.40264e-01,9.99999e-01
6.992925606e-01,1.44652e-01,9.99999e-01,9.99999e-01,9.92036e-01,1.45813e-01,9.99999e-01
7.027890234e-01,1.49992e-01,9.99999e-01,9.99999e-01,9.90267e-01,1.51466e-01,9.99999e-01
7.063029686e-01,1.55930e-01,9.99999e-01,9.99999e-01,9.91802e-01,1.57219e-01,9.99999e-01
7.098344834e-01,1.61788e-01,9.99999e-01,9.99999e-01,9.92133e-01,1.63071e-01,9.99999e-01
7.133836558e-01,1.67223e-01,9.99999e-01,9.99999e-01,9.89376e-01,1.69018e-01,9.99999e-01
7.169505741e-01,1.60775e-01,9.99999e-01,9.99999e-01,9.18407e-01,1.75059e-01,9.99998e-01
7.205353270e-01,1.73951e-01,9.99999e-01,9.99999e-01,9.60050e-01,1.81190e-01,9.99998e-01
7.241380036e-01,1.77767e-01,9.99999e-01,9.99999e-01,9.48559e-01,1.87407e-01,9.99998e-01
7.277586936e-01,1.84707e-01,9.99999e-01,9.99999e-01,9.53523e-01,1.93710e-01,9.99998e-01
7.313974871e-01,1.90285e-01,9.99999e-01,9.99999e-01,9.50982e-01,2.00093e-01,9.99998e-01
7.350544745e-01,2.00948e-01,9.99999e-01,9.99999e-01,9.72860e-01,2.06554e-01,9.99999e-01
7.387297469e-01,2.08822e-01,9.99999e-01,9.99999e-01,9.79970e-01,2.13090e-01,9.99999e-01
7.424233956e-01,2.17540e-01,9.99999e-01,9.99999e-01,9.90176e-01,2.19698e-01,9.99999e-01
7.461355126e-01,2.25022e-01,9.99999e-01,9.99999e-01,9.94025e-01,2.26374e-01,9.99999e-01
7.498661902e-01,2.32468e-01,9.99999e-01,9.99999e-01,9.97224e-01,2.33115e-01,9.99999e-01
7.536155211e-01,2.39590e-01,9.99999e-01,9.99999e-01,9.98632e-01,2.39918e-01,9.99999e-01
7.573835987e-01,2.46605e-01,9.99999e-01,9.99999e-01,9.99296e-01,2.46779e-01,9.99999e-01
7.611705167e-01,2.53584e-01,9.99999e-01,9.99999e-01,9.99562e-01,2.53695e-01,9.99999e-01
7.649763693e-01,2.60590e-01,9.99999e-01,9.99999e-01,9.99725e-01,2.60662e-01,9.99999e-01
7.688012511e-01,2.67626e-01,9.99999e-01,9.99999e-01,9.99808e-01,2.67677e-01,9.99999e-01
7.726452574e-01,2.74694e-01,9.99999e-01,9.99999e-01,9.99841e-01,2.74737e-01,9.99999e-01
7.765084837e-01,2.81775e-01,9.99999e-01,9.99999e-01,9.99773e-01,2.81839e-01,9.99999e-01
7.803910261e-01,2.72273e-01,9.99999e-01,9.43066e-01,9.99021e-01,2.88978e-01,9.99999e-01
7.842929812e-01,2.28740e-01,9.99999e-01,7.74818e-01,9.96585e-01,2.96151e-01,9.99999e-01
7.882144461e-01,2.29147e-01,9.99999e-01,7.60323e-01,9.93047e-01,3.03356e-01,9.99999e-01
7.921555184e-01,2.62870e-01,9.99999e-01,8.49458e-01,9.96205e-01,3.10588e-01,9.99999e-01
7.961162960e-01,2.83207e-01,9.99999e-01,8.97020e-01,9.93210e-01,3.17845e-01,9.99999e-01
8.000968774e-01,3.04098e-01,9.99999e-01,9.42632e-01,9.92214e-01,3.25123e-01,9.99999e-01
8.040973618e-01,3.19934e-01,9.99999e-01,9.69982e-01,9.92199e-01,3.32419e-01,9.99999e-01
8.081178486e-01,3.29098e-01,9.99999e-01,9.86039e-01,9.82375e-01,3.39730e-01,9.99999e-01
8.121584379e-01,3.20975e-01,9.99999e-01,9.95721e-01,9.28767e-01,3.47053e-01,9.99998e-01
8.162192301e-01,3.24674e-01,9.99999e-01,9.99052e-01,9.17006e-01,3.54384e-01,9.99998e-01
8.203003262e-01,3.46202e-01,9.99999e-01,9.99986e-01,9.57108e-01,3.61720e-01,9.99998e-01
8.244018279e-01,3.47793e-01,9.99999e-01,9.99999e-01,9.42379e-01,3.69059e-01,9.99998e-01
8.285238370e-01,3.57273e-01,9.99999e-01,9.99999e-01,9.49190e-01,3.76398e-01,9.99998e-01
8.326664562e-01,3.64130e-01,9.99999e-01,9.99999e-01,9.48915e-01,3.83733e-01,9.99998e-01
8.368297885e-01,3.76703e-01,9.99999e-01,9.99999e-01,9.63281e-01,3.91062e-01,9.99999e-01
8.410139374e-01,3.89629e-01,9.99999e-01,9.99999e-01,9.78029e-01,3.98382e-01,9.99999e-01
8.452190071e-01,4.01302e-01,9.99999e-01,9.99999e-01,9.89183e-01,4.05690e-01,9.99999e-01
8.494451021e-01,4.10376e-01,9.99999e-01,9.99999e-01,9.93683e-01,4.12985e-01,9.99999e-01
8.536923276e-01,4.18697e-01,9.99999e-01,9.99999e-01,9.96275e-01,4.20262e-01,9.99999e-01
8.579607893e-01,4.26536e-01,9.99999e-01,9.99999e-01,9.97696e-01,4.27520e-01,9.99999e-01
8.622505932e-01,4.34122e-01,9.99999e-01,9.99999e-01,9.98540e-01,4.34756e-01,9.99999e-01
8.665618462e-01,3.95292e-01,9.99999e-01,8.95157e-01,9.99093e-01,4.41969e-01,9.99999e-01
8.708946554e-01,2.35860e-01,9.99999e-01,5.25637e-01,9.98958e-01,4.49155e-01,9.99999e-01
8.752491287e-01,2.70230e-01,9.99999e-01,5.92990e-01,9.98608e-01,4.56312e-01,9.99999e-01
8.796253743e-01,3.46190e-01,9.99999e-01,7.48379e-01,9.98066e-01,4.63439e-01,9.99999e-01
8.840235012e-01,4.03586e-01,9.99999e-01,8.59569e-01,9.97794e-01,4.70533e-01,9.99999e-01
8.884436187e-01,4.46377e-01,9.99999e-01,9.42235e-01,9.91804e-01,4.77592e-01,9.99999e-01
8.928858368e-01,4.34553e-01,9.99999e-01,9.76123e-01,9.18297e-01,4.84615e-01,9.99998e-01
8.973502660e-01,4.21196e-01,9.99999e-01,9.94185e-01,8.61626e-01,4.91599e-01,9.99997e-01
9.018370173e-01,4.62107e-01,9.99999e-01,9.99360e-01,9.27480e-01,4.98542e-01,9.99997e-01
9.063462024e-01,4.64830e-01,9.99999e-01,9.83108e-01,9.34608e-01,5.05444e-01,9.99997e-01
9.108779334e-01,4.44375e-01,9.99999e-01,9.62494e-01,9.00501e-01,5.12302e-01,9.99996e-01
9.154323231e-01,4.57005e-01,9.99999e-01,9.91182e-01,8.87904e-01,5.19115e-01,9.99996e-01
9.200094847e-01,4.25415e-01,9.99999e-01,8.80699e-01,9.11420e-01,5.25882e-01,9.99995e-01
9.246095321e-01,3.83500e-01,9.99999e-01,8.29467e-01,8.63447e-01,5.32600e-01,9.99992e-01
9.292325798e-01,1.84508e-01,9.99999e-01,8.62988e-01,3.87355e-01,5.39269e-01,9.99985e-01
9.338787427e-01,1.45008e-01,9.99999e-01,8.68146e-01,2.99536e-01,5.45887e-01,9.99981e-01
9.385481364e-01,3.08427e-01,9.99999e-01,9.00980e-01,6.13918e-01,5.52454e-01,9.99981e-01
9.432408771e-01,2.68557e-01,9.99999e-01,9.38225e-01,5.09331e-01,5.58967e-01,9.99978e-01
9.479570815e-01,2.18088e-01,9.99999e-01,9.67732e-01,3.97481e-01,5.65426e-01,9.99981e-01
9.526968669e-01,2.80213e-01,9.99999e-01,9.84356e-01,4.96811e-01,5.71830e-01,9.99985e-01
9.574603512e-01,2.97847e-01,9.99999e-01,9.93286e-01,5.18259e-01,5.78178e-01,9.99989e-01
9.622476530e-01,3.41008e-01,9.99999e-01,9.97904e-01,5.84558e-01,5.84469e-01,9.99992e-01
9.670588912e-01,4.32462e-01,9.99999e-01,9.99373e-01,7.32538e-01,5.90702e-01,9.99995e-01
9.718941857e-01,4.90280e-01,9.99999e-01,9.99956e-01,8.21441e-01,5.96877e-01,9.99997e-01
9.767536566e-01,5.12074e-01,9.99999e-01,9.99999e-01,8.49223e-01,6.02992e-01,9.99997e-01
9.816374249e-01,5.39670e-01,9.99999e-01,9.99999e-01,8.86089e-01,6.09047e-01,9.99998e-01
9.865456120e-01,5.70257e-01,9.99999e-01,9.99999e-01,9.27184e-01,6.15042e-01,9.99998e-01
9.914783401e-01,5.92590e-01,9.99999e-01,9.99999e-01,9.54289e-01,6.20975e-01,9.99999e-01
9.964357318e-01,6.11081e-01,9.99999e-01,9.99999e-01,9.74849e-01,6.26847e-01,9.99999e-01
1.001417910e+00,6.23078e-01,9.99999e-01,9.99999e-01,9.84859e-01,6.32656e-01,9.99999e-01
1.006425000e+00,6.32862e-01,9.99999e-01,9.99999e-01,9.91318e-01,6.38404e-01,9.99999e-01
1.011457125e+00,6.40623e-01,9.99999e-01,9.99999e-01,9.94619e-01,6.44088e-01,9.99999e-01
1.016514411e+00,6.47331e-01,9.99999e-01,9.99999e-01,9.96338e-01,6.49709e-01,9.99999e-01
1.021596983e+00,6.53285e-01,9.99999e-01,9.99895e-01,9.97079e-01,6.55267e-01,9.99999e-01
1.026704968e+00,6.54854e-01,9.99999e-01,9.93319e-01,9.97720e-01,6.60761e-01,9.99999e-01
1.031838492e+00,6.19277e-01,9.99999e-01,9.31048e-01,9.98346e-01,6.66191e-01,9.99999e-01
1.036997685e+00,6.02561e-02,9.99999e-01,8.97939e-02,9.99015e-01,6.71558e-01,9.99999e-01
1.042182673e+00,2.11741e-02,9.99999e-01,3.13137e-02,9.98820e-01,6.76860e-01,9.99999e-01
1.047393587e+00,3.44061e-02,9.99999e-01,5.05092e-02,9.98439e-01,6.82098e-01,9.99999e-01
1.052630555e+00,1.21525e-04,9.99999e-01,1.77081e-04,9.97856e-01,6.87272e-01,9.99999e-01
1.057893707e+00,4.12567e-04,9.99999e-01,5.97144e-04,9.96416e-01,6.92382e-01,9.99999e-01
1.063183176e+00,2.75336e-03,9.99999e-01,3.96294e-03,9.94116e-01,6.97428e-01,9.99999e-01
1.068499092e+00,1.27810e-02,9.99999e-01,1.83340e-02,9.90183e-01,7.02410e-01,9.99999e-01
1.073841587e+00,5.54677e-02,9.99999e-01,7.91449e-02,9.88497e-01,7.07328e-01,9.99999e-01
1.079210795e+00,1.41313e-01,9.99999e-01,2.00960e-01,9.85337e-01,7.12183e-01,9.99999e-01
1.084606849e+00,2.87761e-01,9.99999e-01,4.09772e-01,9.77843e-01,7.16973e-01,9.99998e-01
1.090029883e+00,4.39333e-01,9.99999e-01,6.27859e-01,9.68100e-01,7.21701e-01,9.99998e-01
1.095480033e+00,5.29711e-01,9.99999e-01,7.95126e-01,9.15687e-01,7.26365e-01,9.99997e-01
1.100957433e+00,5.24604e-01,9.99999e-01,8.95183e-01,8.00133e-01,7.30967e-01,9.99995e-01
1.106462220e+00,4.02525e-01,9.99999e-01,9.55304e-01,5.71334e-01,7.35505e-01,9.99991e-01
1.111994531e+00,2.29390e-01,9.99999e-01,9.83186e-01,3.14690e-01,7.39982e-01,9.99982e-01
1.117554504e+00,1.17564e-01,9.99999e-01,9.95895e-01,1.58405e-01,7.44396e-01,9.99976e-01
1.123142276e+00,2.03654e-01,9.99999e-01,9.99732e-01,2.72021e-01,7.48749e-01,9.99971e-01
1.128757988e+00,3.16009e-01,9.99999e-01,9.99999e-01,4.19656e-01,7.53041e-01,9.99969e-01
1.134401778e+00,1.56886e-01,9.99999e-01,9.99999e-01,2.07179e-01,7.57272e-01,9.99965e-01
1.140073787e+00,4.47995e-01,9.99999e-01,9.99999e-01,5.88366e-01,7.61442e-01,9.99972e-01
1.145774156e+00,2.61755e-01,9.99999e-01,9.99999e-01,3.41924e-01,7.65552e-01,9.99976e-01
1.151503026e+00,2.34654e-01,9.99999e-01,9.99999e-01,3.04908e-01,7.69603e-01,9.99979e-01
1.157260541e+00,2.77973e-01,9.99999e-01,9.99999e-01,3.59332e-01,7.73594e-01,9.99984e-01
1.163046844e+00,3.64169e-01,9.99999e-01,9.99999e-01,4.68373e-01,7.77527e-01,9.99989e-01
1.168862078e+00,4.58463e-01,9.99999e-01,9.99999e-01,5.86721e-01,7.81401e-01,9.99995e-01
1.174706389e+00,5.64790e-01,9.99999e-01,9.99999e-01,7.19279e-01,7.85217e-01,9.99997e-01
1.180579921e+00,6.45335e-01,9.99999e-01,9.99999e-01,8.17940e-01,7.88976e-01,9.99997e-01
1.186482820e+00,7.07307e-01,9.99999e-01,9.99983e-01,8.92313e-01,7.92679e-01,9.99998e-01
1.192415234e+00,7.27821e-01,9.99999e-01,9.76495e-01,9.35549e-01,7.96325e-01,9.99998e-01
1.198377311e+00,4.14590e-01,9.99999e-01,5.43171e-01,9.45299e-01,7.99915e-01,9.99998e-01
1.204369197e+00,7.32160e-18,9.99999e-01,9.39704e-18,9.48263e-01,8.03451e-01,9.99998e-01
1.210391043e+00,2.80541e-69,9.99999e-01,3.57624e-69,9.50452e-01,8.06931e-01,9.99998e-01
1.216442998e+00,4.39152e-60,9.99999e-01,5.56626e-60,9.57797e-01,8.10357e-01,9.99999e-01
1.222525213e+00,3.41933e-59,9.99999e-01,4.27555e-59,9.66940e-01,8.13730e-01,9.99999e-01
1.228637839e+00,8.37630e-46,9.99999e-01,1.04161e-45,9.76908e-01,8.17050e-01,9.99999e-01
