#,Wave/freq,Total,O2,CO2,H2O,Rayleigh,CIA
4.000000000e-01,1.12841e-08,9.99999e-01,9.99999e-01,9.99963e-01,1.12845e-08,9.99999e-01
4.020000000e-01,1.62039e-08,9.99999e-01,9.99999e-01,9.99977e-01,1.62043e-08,9.99999e-01
4.040100000e-01,2.30943e-08,9.99999e-01,9.99999e-01,9.99990e-01,2.30946e-08,9.99999e-01
4.060300500e-01,3.26850e-08,9.99999e-01,9.99999e-01,9.99997e-01,3.26851e-08,9.99999e-01
4.080602003e-01,4.59419e-08,9.99999e-01,9.99999e-01,9.99998e-01,4.59419e-08,9.99999e-01
4.101005013e-01,6.41429e-08,9.99999e-01,9.99999e-01,9.99999e-01,6.41430e-08,9.99999e-01
4.121510038e-01,8.89662e-08,9.99999e-01,9.99999e-01,9.99998e-01,8.89663e-08,9.99999e-01
4.142117588e-01,1.22600e-07,9.99999e-01,9.99999e-01,9.99989e-01,1.22602e-07,9.99999e-01
4.162828176e-01,1.67879e-07,9.99999e-01,9.99999e-01,9.99955e-01,1.67886e-07,9.99999e-01
4.183642317e-01,2.28469e-07,9.99999e-01,9.99999e-01,9.99973e-01,2.28475e-07,9.99999e-01
4.204560528e-01,3.09037e-07,9.99999e-01,9.99999e-01,9.99983e-01,3.09042e-07,9.99999e-01
4.225583331e-01,4.15531e-07,9.99999e-01,9.99999e-01,9.99993e-01,4.15533e-07,9.99999e-01
4.246711247e-01,5.55459e-07,9.99999e-01,9.99999e-01,9.99994e-01,5.55461e-07,9.99999e-01
4.267944804e-01,7.38260e-07,9.99999e-01,9.99999e-01,9.99992e-01,7.38265e-07,9.99999e-01
4.289284528e-01,9.75727e-07,9.99999e-01,9.99999e-01,9.99994e-01,9.75732e-07,9.99999e-01
4.310730950e-01,1.28249e-06,9.99999e-01,9.99999e-01,9.99997e-01,1.28250e-06,9.99999e-01
4.332284605e-01,1.67663e-06,9.99999e-01,9.99999e-01,9.99998e-01,1.67663e-06,9.99999e-01
4.353946028e-01,2.18031e-06,9.99999e-01,9.99999e-01,9.99999e-01,2.18031e-06,9.99999e-01
4.375715758e-01,2.82062e-06,9.99999e-01,9.99999e-01,9.99995e-01,2.82063e-06,9.99999e-01
4.397594337e-01,3.63036e-06,9.99999e-01,9.99999e-01,9.99960e-01,3.63050e-06,9.99999e-01
4.419582309e-01,4.64874e-06,9.99999e-01,9.99999e-01,9.99803e-01,4.64965e-06,9.99999e-01
4.441680220e-01,5.92495e-06,9.99999e-01,9.99999e-01,9.99844e-01,5.92587e-06,9.99999e-01
4.463888621e-01,7.51507e-06,9.99999e-01,9.99999e-01,9.99838e-01,7.51628e-06,9.99999e-01
4.486208064e-01,9.48792e-06,9.99999e-01,9.99999e-01,9.99899e-01,9.48887e-06,9.99999e-01
4.508639105e-01,1.19236e-05,9.99999e-01,9.99999e-01,9.99952e-01,1.19241e-05,9.99999e-01
4.531182300e-01,1.49167e-05,9.99999e-01,9.99999e-01,9.99980e-01,1.49169e-05,9.99999e-01
4.553838212e-01,1.85783e-05,9.99999e-01,9.99999e-01,9.99986e-01,1.85785e-05,9.99999e-01
4.576607403e-01,2.30387e-05,9.99999e-01,9.99999e-01,9.99993e-01,2.30388e-05,9.99999e-01
4.599490440e-01,2.84486e-05,9.99999e-01,9.99999e-01,9.99995e-01,2.84487e-05,9.99999e-01
4.622487892e-01,3.49829e-05,9.99999e-01,9.99999e-01,9.99998e-01,3.49830e-05,9.99999e-01
4.645600332e-01,4.28425e-05,9.99999e-01,9.99999e-01,9.99996e-01,4.28427e-05,9.99999e-01
4.668828333e-01,5.22561e-05,9.99999e-01,9.99999e-01,9.99952e-01,5.22586e-05,9.99999e-01
4.692172475e-01,6.34879e-05,9.99999e-01,9.99999e-01,9.99898e-01,6.34943e-05,9.99999e-01
4.715633337e-01,7.68445e-05,9.99999e-01,9.99999e-01,9.99933e-01,7.68495e-05,9.99999e-01
4.739211504e-01,9.26579e-05,9.99999e-01,9.99999e-01,9.99936e-01,9.26638e-05,9.99999e-01
4.762907561e-01,1.11316e-04,9.99999e-01,9.99999e-01,9.99966e-01,1.11320e-04,9.99999e-01
4.786722099e-01,1.33247e-04,9.99999e-01,9.99999e-01,9.99986e-01,1.33249e-04,9.99999e-01
4.810655710e-01,1.58931e-04,9.99999e-01,9.99999e-01,9.99995e-01,1.58932e-04,9.99999e-01
4.834708988e-01,1.88899e-04,9.99999e-01,9.99999e-01,9.99961e-01,1.88906e-04,9.99999e-01
4.858882533e-01,2.23753e-04,9.99999e-01,9.99999e-01,9.99928e-01,2.23769e-04,9.99999e-01
4.883176946e-01,2.64164e-04,9.99999e-01,9.99999e-01,9.99940e-01,2.64180e-04,9.99999e-01
4.907592831e-01,3.10852e-04,9.99999e-01,9.99999e-01,9.99945e-01,3.10868e-04,9.99999e-01
4.932130795e-01,3.64620e-04,9.99999e-01,9.99999e-01,9.99961e-01,3.64634e-04,9.99999e-01
4.956791449e-01,4.26344e-04,9.99999e-01,9.99999e-01,9.99979e-01,4.26352e-04,9.99999e-01
4.981575406e-01,4.96930e-04,9.99999e-01,9.99999e-01,9.99898e-01,4.96980e-04,9.99999e-01
5.006483283e-01,5.77406e-04,9.99999e-01,9.99999e-01,9.99738e-01,5.77557e-04,9.99999e-01
5.031515699e-01,6.68318e-04,9.99999e-01,9.99999e-01,9.98670e-01,6.69208e-04,9.99999e-01
5.056673278e-01,7.72607e-04,9.99999e-01,9.99999e-01,9.99296e-01,7.73151e-04,9.99999e-01
5.081956644e-01,8.89904e-04,9.99999e-01,9.99999e-01,9.99112e-01,8.90694e-04,9.99999e-01
5.107366428e-01,1.02263e-03,9.99999e-01,9.99999e-01,9.99399e-01,1.02324e-03,9.99999e-01
5.132903260e-01,1.17190e-03,9.99999e-01,9.99999e-01,9.99656e-01,1.17230e-03,9.99999e-01
5.158567776e-01,1.33928e-03,9.99999e-01,9.99999e-01,9.99854e-01,1.33947e-03,9.99999e-01
5.184360615e-01,1.52636e-03,9.99999e-01,9.99999e-01,9.99941e-01,1.52645e-03,9.99999e-01
5.210282418e-01,1.73501e-03,9.99999e-01,9.99999e-01,9.99977e-01,1.73505e-03,9.99999e-01
5.236333830e-01,1.96700e-03,9.99999e-01,9.99999e-01,9.99912e-01,1.96717e-03,9.99999e-01
5.262515499e-01,2.22471e-03,9.99999e-01,9.99999e-01,9.99945e-01,2.22483e-03,9.99999e-01
5.288828077e-01,2.50999e-03,9.99999e-01,9.99999e-01,9.99949e-01,2.51012e-03,9.99999e-01
5.315272217e-01,2.82512e-03,9.99999e-01,9.99999e-01,9.99955e-01,2.82525e-03,9.99999e-01
5.341848578e-01,3.17243e-03,9.99999e-01,9.99999e-01,9.99971e-01,3.17252e-03,9.99999e-01
5.368557821e-01,3.55397e-03,9.99999e-01,9.99999e-01,9.99898e-01,3.55433e-03,9.99999e-01
5.395400610e-01,3.97172e-03,9.99999e-01,9.99999e-01,9.99637e-01,3.97316e-03,9.99999e-01
5.422377613e-01,4.42949e-03,9.99999e-01,9.99999e-01,9.99527e-01,4.43159e-03,9.99999e-01
5.449489501e-01,4.93010e-03,9.99999e-01,9.99999e-01,9.99562e-01,4.93225e-03,9.99999e-01
5.476736949e-01,5.47576e-03,9.99999e-01,9.99999e-01,9.99610e-01,5.47789e-03,9.99999e-01
5.504120634e-01,6.06958e-03,9.99999e-01,9.99999e-01,9.99717e-01,6.07130e-03,9.99999e-01
5.531641237e-01,6.71437e-03,9.99999e-01,9.99999e-01,9.99857e-01,6.71533e-03,9.99999e-01
5.559299443e-01,7.41239e-03,9.99999e-01,9.99999e-01,9.99930e-01,7.41290e-03,9.99999e-01
5.587095940e-01,8.16662e-03,9.99999e-01,9.99999e-01,9.99956e-01,8.16697e-03,9.99999e-01
5.615031420e-01,8.98012e-03,9.99999e-01,9.99999e-01,9.99951e-01,8.98055e-03,9.99999e-01
5.643106577e-01,9.85614e-03,9.99999e-01,9.99999e-01,9.99945e-01,9.85667e-03,9.99999e-01
5.671322110e-01,1.07914e-02,9.99999e-01,9.99999e-01,9.99349e-01,1.07984e-02,9.99999e-01
5.699678720e-01,1.18005e-02,9.99999e-01,9.99999e-01,9.99295e-01,1.18088e-02,9.99999e-01
5.728177114e-01,1.28815e-02,9.99999e-01,9.99999e-01,9.99271e-01,1.28909e-02,9.99999e-01
5.756818000e-01,1.40385e-02,9.99999e-01,9.99999e-01,9.99330e-01,1.40479e-02,9.99999e-01
5.785602090e-01,1.52738e-02,9.99999e-01,9.99999e-01,9.99415e-01,1.52827e-02,9.99999e-01
5.814530100e-01,1.65887e-02,9.99999e-01,9.99999e-01,9.99413e-01,1.65984e-02,9.99999e-01
5.843602750e-01,1.79855e-02,9.99999e-01,9.99999e-01,9.99305e-01,1.79980e-02,9.99999e-01
5.872820764e-01,1.93680e-02,9.99999e-01,9.99999e-01,9.94021e-01,1.94844e-02,9.99999e-01
5.902184868e-01,2.09071e-02,9.99999e-01,9.99999e-01,9.92712e-01,2.10606e-02,9.99999e-01
5.931695792e-01,2.26125e-02,9.99999e-01,9.99999e-01,9.94859e-01,2.27293e-02,9.99999e-01
5.961354271e-01,2.43551e-02,9.99999e-01,9.99999e-01,9.94356e-01,2.44933e-02,9.99999e-01
5.991161043e-01,2.62467e-02,9.99999e-01,9.99999e-01,9.95878e-01,2.63553e-02,9.99999e-01
6.021116848e-01,2.82515e-02,9.99999e-01,9.99999e-01,9.97657e-01,2.83178e-02,9.99999e-01
6.051222432e-01,3.03473e-02,9.99999e-01,9.99999e-01,9.98813e-01,3.03833e-02,9.99999e-01
6.081478544e-01,3.25376e-02,9.99999e-01,9.99999e-01,9.99488e-01,3.25542e-02,9.99999e-01
6.111885937e-01,3.48251e-02,9.99999e-01,9.99999e-01,9.99782e-01,3.48327e-02,9.99999e-01
6.142445367e-01,3.72173e-02,9.99999e-01,9.99999e-01,9.99902e-01,3.72209e-02,9.99999e-01
6.173157594e-01,3.97186e-02,9.99999e-01,9.99999e-01,9.99946e-01,3.97207e-02,9.99999e-01
6.204023382e-01,4.23321e-02,9.99999e-01,9.99999e-01,9.99954e-01,4.23340e-02,9.99999e-01
6.235043498e-01,4.50538e-02,9.99999e-01,9.99999e-01,9.99803e-01,4.50626e-02,9.99999e-01
6.266218716e-01,4.78576e-02,9.99999e-01,9.99999e-01,9.98951e-01,4.79078e-02,9.99999e-01
6.297549810e-01,5.08516e-02,9.99999e-01,9.99999e-01,9.99615e-01,5.08712e-02,9.99999e-01
6.329037559e-01,5.39127e-02,9.99999e-01,9.99999e-01,9.99238e-01,5.39538e-02,9.99999e-01
6.360682746e-01,5.71198e-02,9.99999e-01,9.99999e-01,9.99353e-01,5.71568e-02,9.99999e-01
6.392486160e-01,6.04302e-02,9.99999e-01,9.99999e-01,9.99160e-01,6.04810e-02,9.99999e-01
6.424448591e-01,6.38557e-02,9.99999e-01,9.99999e-01,9.98883e-01,6.39271e-02,9.99999e-01
6.456570834e-01,6.71461e-02,9.99999e-01,9.99999e-01,9.94820e-01,6.74956e-02,9.99999e-01
6.488853688e-01,7.08685e-02,9.99999e-01,9.99999e-01,9.95527e-01,7.11869e-02,9.99999e-01
6.521297956e-01,7.47090e-02,9.99999e-01,9.99999e-01,9.96104e-01,7.50012e-02,9.99999e-01
6.553904446e-01,7.86346e-02,9.99999e-01,9.99999e-01,9.96151e-01,7.89384e-02,9.99999e-01
6.586673968e-01,8.27226e-02,9.99999e-01,9.99999e-01,9.96677e-01,8.29984e-02,9.99999e-01
6.619607338e-01,8.70133e-02,9.99999e-01,9.99999e-01,9.98078e-01,8.71808e-02,9.99999e-01
6.652705375e-01,9.13831e-02,9.99999e-01,9.99999e-01,9.98885e-01,9.14850e-02,9.99999e-01
6.685968902e-01,9.58608e-02,9.99999e-01,9.99999e-01,9.99482e-01,9.59104e-02,9.99999e-01
6.719398746e-01,1.00432e-01,9.99999e-01,9.99999e-01,9.99759e-01,1.00456e-01,9.99999e-01
6.752995740e-01,1.05107e-01,9.99999e-01,9.99999e-01,9.99869e-01,1.05121e-01,9.99999e-01
6.786760719e-01,1.09884e-01,9.99999e-01,9.99999e-01,9.99813e-01,1.09904e-01,9.99999e-01
6.820694522e-01,1.14767e-01,9.99999e-01,9.99999e-01,9.99679e-01,1.14804e-01,9.99999e-01
6.854797995e-01,1.19769e-01,9.99999e-01,9.99999e-01,9.99587e-01,1.19819e-01,9.99999e-01
6.889071985e-01,1.24824e-01,9.99999e-01,9.99999e-01,9.99012e-01,1.24947e-01,9.99999e-01
6.923517345e-01,1.28086e-01,9.99999e-01,9.99999e-01,9.83860e-01,1.30187e-01,9.99999e-01
6.958134932e-01,1.34380e-01,9.99999e-01,9.99999e-01,9.91464e-01,1.35537e-01,9.99999e-01
6.992925606e-01,1.39865e-01,9.99999e-01,9.99999e-01,9.91993e-01,1.40994e-01,9.99999e-01
7.027890234e-01,1.45102e-01,9.99999e-01,9.99999e-01,9.90069e-01,1.46557e-01,9.99999e-01
7.063029686e-01,1.50952e-01,9.99999e-01,9.99999e-01,9.91649e-01,1.52223e-01,9.99999e-01
7.098344834e-01,1.56723e-01,9.99999e-01,9.99999e-01,9.91985e-01,1.57989e-01,9.99999e-01
7.133836558e-01,1.62121e-01,9.99999e-01,9.99999e-01,9.89425e-01,1.63854e-01,9.99999e-01
7.169505741e-01,1.55869e-01,9.99999e-01,9.99999e-01,9.17879e-01,1.69814e-01,9.99998e-01
7.205353270e-01,1.68553e-01,9.99999e-01,9.99999e-01,9.58415e-01,1.75867e-01,9.99998e-01
7.241380036e-01,1.72539e-01,9.99999e-01,9.99999e-01,9.47972e-01,1.82009e-01,9.99998e-01
7.277586936e-01,1.79373e-01,9.99999e-01,9.99999e-01,9.52904e-01,1.88238e-01,9.99998e-01
7.313974871e-01,1.84773e-01,9.99999e-01,9.99999e-01,9.49740e-01,1.94551e-01,9.99998e-01
7.350544745e-01,1.95370e-01,9.99999e-01,9.99999e-01,9.72256e-01,2.00945e-01,9.99999e-01
7.387297469e-01,2.03163e-01,9.99999e-01,9.99999e-01,9.79494e-01,2.07417e-01,9.99999e-01
7.424233956e-01,2.11801e-01,9.99999e-01,9.99999e-01,9.89899e-01,2.13962e-01,9.99999e-01
7.461355126e-01,2.19228e-01,9.99999e-01,9.99999e-01,9.93874e-01,2.20579e-01,9.99999e-01
7.498661902e-01,2.26614e-01,9.99999e-01,9.99999e-01,9.97138e-01,2.27264e-01,9.99999e-01
7.536155211e-01,2.33686e-01,9.99999e-01,9.99999e-01,9.98598e-01,2.34014e-01,9.99999e-01
7.573835987e-01,2.40651e-01,9.99999e-01,9.99999e-01,9.99277e-01,2.40824e-01,9.99999e-01
7.611705167e-01,2.47582e-01,9.99999e-01,9.99999e-01,9.99551e-01,2.47693e-01,9.99999e-01
7.649763693e-01,2.54544e-01,9.99999e-01,9.99999e-01,9.99718e-01,2.54616e-01,9.99999e-01
7.688012511e-01,2.61538e-01,9.99999e-01,9.99999e-01,9.99804e-01,2.61589e-01,9.99999e-01
7.726452574e-01,2.68568e-01,9.99999e-01,9.99999e-01,9.99838e-01,2.68611e-01,9.99999e-01
7.765084837e-01,2.75614e-01,9.99999e-01,9.99999e-01,9.99772e-01,2.75677e-01,9.99999e-01
7.803910261e-01,2.67354e-01,9.99999e-01,9.46320e-01,9.99019e-01,2.82783e-01,9.99999e-01
7.842929812e-01,2.22425e-01,9.99999e-01,7.69601e-01,9.96581e-01,2.89927e-01,9.99999e-01
7.882144461e-01,2.23555e-01,9.99999e-01,7.57456e-01,9.92926e-01,2.97105e-01,9.99999e-01
7.921555184e-01,2.56957e-01,9.99999e-01,8.47554e-01,9.96103e-01,3.04313e-01,9.99999e-01
7.961162960e-01,2.76740e-01,9.99999e-01,8.94277e-01,9.93172e-01,3.11549e-01,9.99999e-01
8.000968774e-01,2.97718e-01,9.99999e-01,9.41256e-01,9.92085e-01,3.18809e-01,9.99999e-01
8.040973618e-01,3.13498e-01,9.99999e-01,9.69024e-01,9.92090e-01,3.26090e-01,9.99999e-01
8.081178486e-01,3.22830e-01,9.99999e-01,9.85696e-01,9.82337e-01,3.33388e-01,9.99999e-01
8.121584379e-01,3.14910e-01,9.99999e-01,9.95536e-01,9.28375e-01,3.40701e-01,9.99998e-01
8.162192301e-01,3.18153e-01,9.99999e-01,9.99012e-01,9.15042e-01,3.48024e-01,9.99998e-01
8.203003262e-01,3.40229e-01,9.99999e-01,9.99983e-01,9.57443e-01,3.55356e-01,9.99998e-01
8.244018279e-01,3.41004e-01,9.99999e-01,9.99999e-01,9.40201e-01,3.62693e-01,9.99998e-01
8.285238370e-01,3.51000e-01,9.99999e-01,9.99999e-01,9.48565e-01,3.70032e-01,9.99998e-01
8.326664562e-01,3.57709e-01,9.99999e-01,9.99999e-01,9.47899e-01,3.77371e-01,9.99998e-01
8.368297885e-01,3.70248e-01,9.99999e-01,9.99999e-01,9.62419e-01,3.84705e-01,9.99999e-01
8.410139374e-01,3.83209e-01,9.99999e-01,9.99999e-01,9.77491e-01,3.92033e-01,9.99999e-01
8.452190071e-01,3.94916e-01,9.99999e-01,9.99999e-01,9.88891e-01,3.99352e-01,9.99999e-01
8.494451021e-01,4.04039e-01,9.99999e-01,9.99999e-01,9.93557e-01,4.06658e-01,9.99999e-01
8.536923276e-01,4.12368e-01,9.99999e-01,9.99999e-01,9.96177e-01,4.13951e-01,9.99999e-01
8.579607893e-01,4.20235e-01,9.99999e-01,9.99999e-01,9.97649e-01,4.21226e-01,9.99999e-01
8.622505932e-01,4.27840e-01,9.99999e-01,9.99999e-01,9.98503e-01,4.28481e-01,9.99999e-01
8.665618462e-01,3.92134e-01,9.99999e-01,9.00767e-01,9.99076e-01,4.35714e-01,9.99999e-01
8.708946554e-01,2.30351e-01,9.99999e-01,5.20588e-01,9.98944e-01,4.42923e-01,9.99999e-01
8.752491287e-01,2.63271e-01,9.99999e-01,5.85697e-01,9.98586e-01,4.50105e-01,9.99999e-01
8.796253743e-01,3.38903e-01,9.99999e-01,7.42541e-01,9.98048e-01,4.57259e-01,9.99999e-01
8.840235012e-01,3.96673e-01,9.99999e-01,8.56056e-01,9.97769e-01,4.64381e-01,9.99999e-01
8.884436187e-01,4.39826e-01,9.99999e-01,9.40297e-01,9.91980e-01,4.71471e-01,9.99999e-01
8.928858368e-01,4.28716e-01,9.99999e-01,9.75395e-01,9.18168e-01,4.78525e-01,9.99998e-01
8.973502660e-01,4.14714e-01,9.99999e-01,9.93942e-01,8.59149e-01,4.85543e-01,9.99997e-01
9.018370173e-01,4.55339e-01,9.99999e-01,9.99329e-01,9.25095e-01,4.92522e-01,9.99997e-01
9.063462024e-01,4.59363e-01,9.99999e-01,9.83414e-01,9.34386e-01,4.99460e-01,9.99997e-01
9.108779334e-01,4.38185e-01,9.99999e-01,9.61530e-01,8.99252e-01,5.06356e-01,9.99996e-01
9.154323231e-01,4.50713e-01,9.99999e-01,9.90777e-01,8.86101e-01,5.13208e-01,9.99996e-01
9.200094847e-01,4.20402e-01,9.99999e-01,8.81700e-01,9.09581e-01,5.20015e-01,9.99995e-01
9.246095321e-01,3.78462e-01,9.99999e-01,8.25776e-01,8.65400e-01,5.26775e-01,9.99992e-01
9.292325798e-01,1.81490e-01,9.99999e-01,8.62429e-01,3.85529e-01,5.33487e-01,9.99985e-01
9.338787427e-01,1.39247e-01,9.99999e-01,8.65342e-01,2.91338e-01,5.40150e-01,9.99981e-01
9.385481364e-01,3.00937e-01,9.99999e-01,8.98880e-01,6.06379e-01,5.46761e-01,9.99980e-01
9.432408771e-01,2.64344e-01,9.99999e-01,9.36567e-01,5.07282e-01,5.53320e-01,9.99978e-01
9.479570815e-01,2.14104e-01,9.99999e-01,9.66988e-01,3.94433e-01,5.59827e-01,9.99981e-01
9.526968669e-01,2.73738e-01,9.99999e-01,9.83932e-01,4.90246e-01,5.66279e-01,9.99985e-01
9.574603512e-01,2.91441e-01,9.99999e-01,9.93093e-01,5.12070e-01,5.72675e-01,9.99989e-01
9.622476530e-01,3.33470e-01,9.99999e-01,9.97839e-01,5.77053e-01,5.79016e-01,9.99992e-01
9.670588912e-01,4.25701e-01,9.99999e-01,9.99351e-01,7.27757e-01,5.85299e-01,9.99995e-01
9.718941857e-01,4.84114e-01,9.99999e-01,9.99953e-01,8.18452e-01,5.91524e-01,9.99996e-01
9.767536566e-01,5.06088e-01,9.99999e-01,9.99999e-01,8.46739e-01,5.97691e-01,9.99997e-01
9.816374249e-01,5.33548e-01,9.99999e-01,9.99999e-01,8.83653e-01,6.03798e-01,9.99998e-01
9.865456120e-01,5.64440e-01,9.99999e-01,9.99999e-01,9.25546e-01,6.09845e-01,9.99998e-01
9.914783401e-01,5.87068e-01,9.99999e-01,9.99999e-01,9.53292e-01,6.15832e-01,9.99999e-01
9.964357318e-01,6.05768e-01,9.99999e-01,9.99999e-01,9.74283e-01,6.21757e-01,9.99999e-01
1.001417910e+00,6.17895e-01,9.99999e-01,9.99999e-01,9.84503e-01,6.27621e-01,9.99999e-01
1.006425000e+00,6.27816e-01,9.99999e-01,9.99999e-01,9.91149e-01,6.33422e-01,9.99999e-01
1.011457125e+00,6.35639e-01,9.99999e-01,9.99999e-01,9.94488e-01,6.39161e-01,9.99999e-01
1.016514411e+00,6.42425e-01,9.99999e-01,9.99999e-01,9.96259e-01,6.44837e-01,9.99999e-01
1.021596983e+00,6.48458e-01,9.99999e-01,9.99916e-01,9.97019e-01,6.50450e-01,9.99999e-01
1.026704968e+00,6.50217e-01,9.99999e-01,9.93487e-01,9.97676e-01,6.55999e-01,9.99999e-01
1.031838492e+00,6.19241e-01,9.99999e-01,9.37661e-01,9.98308e-01,6.61485e-01,9.99999e-01
1.036997685e+00,6.10505e-02,9.99999e-01,9.16133e-02,9.98996e-01,6.66907e-01,9.99999e-01
1.042182673e+00,1.96170e-02,9.99999e-01,2.92095e-02,9.98806e-01,6.72264e-01,9.99999e-01
1.047393587e+00,3.36787e-02,9.99999e-01,4.97738e-02,9.98415e-01,6.77558e-01,9.99999e-01
1.052630555e+00,1.08730e-04,9.99999e-01,1.59480e-04,9.97827e-01,6.82788e-01,9.99999e-01
1.057893707e+00,3.55897e-04,9.99999e-01,5.18433e-04,9.96379e-01,6.87954e-01,9.99999e-01
1.063183176e+00,2.46995e-03,9.99999e-01,3.57756e-03,9.94043e-01,6.93055e-01,9.99999e-01
1.068499092e+00,1.19142e-02,9.99999e-01,1.71978e-02,9.90035e-01,6.98092e-01,9.99999e-01
1.073841587e+00,5.23444e-02,9.99999e-01,7.51438e-02,9.88365e-01,7.03066e-01,9.99999e-01
1.079210795e+00,1.35909e-01,9.99999e-01,1.94456e-01,9.85077e-01,7.07976e-01,9.99999e-01
1.084606849e+00,2.79944e-01,9.99999e-01,4.01056e-01,9.77525e-01,7.12821e-01,9.99998e-01
1.090029883e+00,4.32263e-01,9.99999e-01,6.21335e-01,9.68002e-01,7.17604e-01,9.99998e-01
1.095480033e+00,5.23415e-01,9.99999e-01,7.90529e-01,9.15109e-01,7.22323e-01,9.99997e-01
1.100957433e+00,5.19515e-01,9.99999e-01,8.92743e-01,7.98851e-01,7.26979e-01,9.99995e-01
1.106462220e+00,3.99046e-01,9.99999e-01,9.54104e-01,5.70125e-01,7.31572e-01,9.99991e-01
1.111994531e+00,2.24770e-01,9.99999e-01,9.82729e-01,3.10106e-01,7.36103e-01,9.99982e-01
1.117554504e+00,1.13970e-01,9.99999e-01,9.95743e-01,1.54370e-01,7.40571e-01,9.99975e-01
1.123142276e+00,1.97170e-01,9.99999e-01,9.99718e-01,2.64695e-01,7.44977e-01,9.99971e-01
1.128757988e+00,3.10631e-01,9.99999e-01,9.99999e-01,4.14561e-01,7.49322e-01,9.99968e-01
1.134401778e+00,1.49683e-01,9.99999e-01,9.99999e-01,1.98629e-01,7.53605e-01,9.99965e-01
1.140073787e+00,4.43078e-01,9.99999e-01,9.99999e-01,5.84684e-01,7.57828e-01,9.99971e-01
1.145774156e+00,2.55842e-01,9.99999e-01,9.99999e-01,3.35763e-01,7.61990e-01,9.99975e-01
1.151503026e+00,2.29602e-01,9.99999e-01,9.99999e-01,2.99711e-01,7.66093e-01,9.99979e-01
1.157260541e+00,2.72034e-01,9.99999e-01,9.99999e-01,3.53234e-01,7.70135e-01,9.99984e-01
1.163046844e+00,3.56834e-01,9.99999e-01,9.99999e-01,4.60959e-01,7.74119e-01,9.99989e-01
1.168862078e+00,4.51145e-01,9.99999e-01,9.99999e-01,5.79848e-01,7.78044e-01,9.99994e-01
1.174706389e+00,5.58455e-01,9.99999e-01,9.99999e-01,7.14219e-01,7.81910e-01,9.99997e-01
1.180579921e+00,6.39775e-01,9.99999e-01,9.99999e-01,8.14255e-01,7.85719e-01,9.99997e-01
1.186482820e+00,7.02772e-01,9.99999e-01,9.99989e-01,8.90188e-01,7.89471e-01,9.99998e-01
1.192415234e+00,7.24602e-01,9.99999e-01,9.77300e-01,9.34353e-01,7.93166e-01,9.99998e-01
1.198377311e+00,4.14080e-01,9.99999e-01,5.45067e-01,9.44456e-01,7.96804e-01,9.99998e-01
1.204369197e+00,3.95538e-18,9.99999e-01,5.09871e-18,9.47385e-01,8.00387e-01,9.99998e-01
1.210391043e+00,1.99774e-70,9.99999e-01,2.55745e-70,9.49587e-01,8.03915e-01,9.99998e-01
1.216442998e+00,4.49234e-61,9.99999e-01,5.71761e-61,9.56892e-01,8.07389e-01,9.99999e-01
1.222525213e+00,3.62334e-60,9.99999e-01,4.54832e-60,9.66279e-01,8.10808e-01,9.99999e-01
1.228637839e+00,1.49307e-46,9.99999e-01,1.86373e-46,9.76473e-01,8.14174e-01,9.99999e-01
