#,Wave/freq,Total,O2,CO2,H2O,Rayleigh,CIA
4.000000000e-01,5.37383e-03,9.99999e-01,9.99999e-01,9.99989e-01,5.37389e-03,9.99999e-01
4.020000000e-01,5.95888e-03,9.99999e-01,9.99999e-01,9.99993e-01,5.95892e-03,9.99999e-01
4.040100000e-01,6.59344e-03,9.99999e-01,9.99999e-01,9.99996e-01,6.59346e-03,9.99999e-01
4.060300500e-01,7.28100e-03,9.99999e-01,9.99999e-01,9.99998e-01,7.28100e-03,9.99999e-01
4.080602003e-01,8.02450e-03,9.99999e-01,9.99999e-01,9.99999e-01,8.02451e-03,9.99999e-01
4.101005013e-01,8.82696e-03,9.99999e-01,9.99999e-01,9.99999e-01,8.82696e-03,9.99999e-01
4.121510038e-01,9.69140e-03,9.99999e-01,9.99999e-01,9.99999e-01,9.69140e-03,9.99999e-01
4.142117588e-01,1.06208e-02,9.99999e-01,9.99999e-01,9.99996e-01,1.06209e-02,9.99999e-01
4.162828176e-01,1.16183e-02,9.99999e-01,9.99999e-01,9.99986e-01,1.16185e-02,9.99999e-01
4.183642317e-01,1.26871e-02,9.99999e-01,9.99999e-01,9.99991e-01,1.26872e-02,9.99999e-01
4.204560528e-01,1.38302e-02,9.99999e-01,9.99999e-01,9.99994e-01,1.38302e-02,9.99999e-01
4.225583331e-01,1.50505e-02,9.99999e-01,9.99999e-01,9.99997e-01,1.50506e-02,9.99999e-01
4.246711247e-01,1.63512e-02,9.99999e-01,9.99999e-01,9.99998e-01,1.63512e-02,9.99999e-01
4.267944804e-01,1.77352e-02,9.99999e-01,9.99999e-01,9.99997e-01,1.77353e-02,9.99999e-01
4.289284528e-01,1.92056e-02,9.99999e-01,9.99999e-01,9.99997e-01,1.92056e-02,9.99999e-01
4.310730950e-01,2.07651e-02,9.99999e-01,9.99999e-01,9.99998e-01,2.07651e-02,9.99999e-01
4.332284605e-01,2.24167e-02,9.99999e-01,9.99999e-01,9.99999e-01,2.24167e-02,9.99999e-01
4.353946028e-01,2.41630e-02,9.99999e-01,9.99999e-01,9.99999e-01,2.41630e-02,9.99999e-01
4.375715758e-01,2.60068e-02,9.99999e-01,9.99999e-01,9.99998e-01,2.60069e-02,9.99999e-01
4.397594337e-01,2.79505e-02,9.99999e-01,9.99999e-01,9.99988e-01,2.79508e-02,9.99999e-01
4.419582309e-01,2.99956e-02,9.99999e-01,9.99999e-01,9.99943e-01,2.99972e-02,9.99999e-01
4.441680220e-01,3.21472e-02,9.99999e-01,9.99999e-01,9.99955e-01,3.21487e-02,9.99999e-01
4.463888621e-01,3.44057e-02,9.99999e-01,9.99999e-01,9.99953e-01,3.44073e-02,9.99999e-01
4.486208064e-01,3.67741e-02,9.99999e-01,9.99999e-01,9.99970e-01,3.67752e-02,9.99999e-01
4.508639105e-01,3.92539e-02,9.99999e-01,9.99999e-01,9.99986e-01,3.92544e-02,9.99999e-01
4.531182300e-01,4.18466e-02,9.99999e-01,9.99999e-01,9.99994e-01,4.18469e-02,9.99999e-01
4.553838212e-01,4.45540e-02,9.99999e-01,9.99999e-01,9.99995e-01,4.45542e-02,9.99999e-01
4.576607403e-01,4.73779e-02,9.99999e-01,9.99999e-01,9.99997e-01,4.73779e-02,9.99999e-01
4.599490440e-01,5.03195e-02,9.99999e-01,9.99999e-01,9.99998e-01,5.03196e-02,9.99999e-01
4.622487892e-01,5.33803e-02,9.99999e-01,9.99999e-01,9.99999e-01,5.33803e-02,9.99999e-01
4.645600332e-01,5.65611e-02,9.99999e-01,9.99999e-01,9.99998e-01,5.65611e-02,9.99999e-01
4.668828333e-01,5.98623e-02,9.99999e-01,9.99999e-01,9.99986e-01,5.98631e-02,9.99999e-01
4.692172475e-01,6.32850e-02,9.99999e-01,9.99999e-01,9.99970e-01,6.32868e-02,9.99999e-01
4.715633337e-01,6.68316e-02,9.99999e-01,9.99999e-01,9.99980e-01,6.68329e-02,9.99999e-01
4.739211504e-01,7.05004e-02,9.99999e-01,9.99999e-01,9.99981e-01,7.05017e-02,9.99999e-01
4.762907561e-01,7.42927e-02,9.99999e-01,9.99999e-01,9.99990e-01,7.42934e-02,9.99999e-01
4.786722099e-01,7.82078e-02,9.99999e-01,9.99999e-01,9.99995e-01,7.82081e-02,9.99999e-01
4.810655710e-01,8.22456e-02,9.99999e-01,9.99999e-01,9.99998e-01,8.22456e-02,9.99999e-01
4.834708988e-01,8.64047e-02,9.99999e-01,9.99999e-01,9.99988e-01,8.64056e-02,9.99999e-01
4.858882533e-01,9.06858e-02,9.99999e-01,9.99999e-01,9.99979e-01,9.06876e-02,9.99999e-01
4.883176946e-01,9.50893e-02,9.99999e-01,9.99999e-01,9.99982e-01,9.50909e-02,9.99999e-01
4.907592831e-01,9.96131e-02,9.99999e-01,9.99999e-01,9.99984e-01,9.96147e-02,9.99999e-01
4.932130795e-01,1.04257e-01,9.99999e-01,9.99999e-01,9.99988e-01,1.04258e-01,9.99999e-01
4.956791449e-01,1.09019e-01,9.99999e-01,9.99999e-01,9.99993e-01,1.09019e-01,9.99999e-01
4.981575406e-01,1.13895e-01,9.99999e-01,9.99999e-01,9.99970e-01,1.13898e-01,9.99999e-01
5.006483283e-01,1.18883e-01,9.99999e-01,9.99999e-01,9.99924e-01,1.18892e-01,9.99999e-01
5.031515699e-01,1.23952e-01,9.99999e-01,9.99999e-01,9.99619e-01,1.23999e-01,9.99999e-01
5.056673278e-01,1.29193e-01,9.99999e-01,9.99999e-01,9.99798e-01,1.29219e-01,9.99999e-01
5.081956644e-01,1.34515e-01,9.99999e-01,9.99999e-01,9.99746e-01,1.34549e-01,9.99999e-01
5.107366428e-01,1.39963e-01,9.99999e-01,9.99999e-01,9.99828e-01,1.39987e-01,9.99999e-01
5.132903260e-01,1.45516e-01,9.99999e-01,9.99999e-01,9.99901e-01,1.45530e-01,9.99999e-01
5.158567776e-01,1.51171e-01,9.99999e-01,9.99999e-01,9.99958e-01,1.51178e-01,9.99999e-01
5.184360615e-01,1.56923e-01,9.99999e-01,9.99999e-01,9.99982e-01,1.56926e-01,9.99999e-01
5.210282418e-01,1.62772e-01,9.99999e-01,9.99999e-01,9.99993e-01,1.62773e-01,9.99999e-01
5.236333830e-01,1.68711e-01,9.99999e-01,9.99999e-01,9.99974e-01,1.68716e-01,9.99999e-01
5.262515499e-01,1.74749e-01,9.99999e-01,9.99999e-01,9.99983e-01,1.74751e-01,9.99999e-01
5.288828077e-01,1.80875e-01,9.99999e-01,9.99999e-01,9.99985e-01,1.80878e-01,9.99999e-01
5.315272217e-01,1.87089e-01,9.99999e-01,9.99999e-01,9.99986e-01,1.87091e-01,9.99999e-01
5.341848578e-01,1.93387e-01,9.99999e-01,9.99999e-01,9.99991e-01,1.93389e-01,9.99999e-01
5.368557821e-01,1.99763e-01,9.99999e-01,9.99999e-01,9.99970e-01,1.99768e-01,9.99999e-01
5.395400610e-01,2.06204e-01,9.99999e-01,9.99999e-01,9.99895e-01,2.06226e-01,9.99999e-01
5.422377613e-01,2.12730e-01,9.99999e-01,9.99999e-01,9.99864e-01,2.12758e-01,9.99999e-01
5.449489501e-01,2.19335e-01,9.99999e-01,9.99999e-01,9.99874e-01,2.19362e-01,9.99999e-01
5.476736949e-01,2.26010e-01,9.99999e-01,9.99999e-01,9.99888e-01,2.26035e-01,9.99999e-01
5.504120634e-01,2.32754e-01,9.99999e-01,9.99999e-01,9.99918e-01,2.32773e-01,9.99999e-01
5.531641237e-01,2.39563e-01,9.99999e-01,9.99999e-01,9.99958e-01,2.39573e-01,9.99999e-01
5.559299443e-01,2.46426e-01,9.99999e-01,9.99999e-01,9.99979e-01,2.46431e-01,9.99999e-01
5.587095940e-01,2.53341e-01,9.99999e-01,9.99999e-01,9.99987e-01,2.53344e-01,9.99999e-01
5.615031420e-01,2.60305e-01,9.99999e-01,9.99999e-01,9.99985e-01,2.60309e-01,9.99999e-01
5.643106577e-01,2.67318e-01,9.99999e-01,9.99999e-01,9.99984e-01,2.67322e-01,9.99999e-01
5.671322110e-01,2.74328e-01,9.99999e-01,9.99999e-01,9.99812e-01,2.74379e-01,9.99999e-01
5.699678720e-01,2.81422e-01,9.99999e-01,9.99999e-01,9.99798e-01,2.81479e-01,9.99999e-01
5.728177114e-01,2.88556e-01,9.99999e-01,9.99999e-01,9.99791e-01,2.88616e-01,9.99999e-01
5.756818000e-01,2.95731e-01,9.99999e-01,9.99999e-01,9.99808e-01,2.95788e-01,9.99999e-01
5.785602090e-01,3.02940e-01,9.99999e-01,9.99999e-01,9.99832e-01,3.02991e-01,9.99999e-01
5.814530100e-01,3.10170e-01,9.99999e-01,9.99999e-01,9.99832e-01,3.10222e-01,9.99999e-01
5.843602750e-01,3.17415e-01,9.99999e-01,9.99999e-01,9.99800e-01,3.17478e-01,9.99999e-01
5.872820764e-01,3.24198e-01,9.99999e-01,9.99999e-01,9.98283e-01,3.24755e-01,9.99999e-01
5.902184868e-01,3.31358e-01,9.99999e-01,9.99999e-01,9.97913e-01,3.32050e-01,9.99999e-01
5.931695792e-01,3.38861e-01,9.99999e-01,9.99999e-01,9.98527e-01,3.39360e-01,9.99999e-01
5.961354271e-01,3.46123e-01,9.99999e-01,9.99999e-01,9.98384e-01,3.46682e-01,9.99999e-01
5.991161043e-01,3.53596e-01,9.99999e-01,9.99999e-01,9.98821e-01,3.54013e-01,9.99999e-01
6.021116848e-01,3.61108e-01,9.99999e-01,9.99999e-01,9.99330e-01,3.61349e-01,9.99999e-01
6.051222432e-01,3.68563e-01,9.99999e-01,9.99999e-01,9.99660e-01,3.68688e-01,9.99999e-01
6.081478544e-01,3.75972e-01,9.99999e-01,9.99999e-01,9.99853e-01,3.76027e-01,9.99999e-01
6.111885937e-01,3.83339e-01,9.99999e-01,9.99999e-01,9.99937e-01,3.83362e-01,9.99999e-01
6.142445367e-01,3.90681e-01,9.99999e-01,9.99999e-01,9.99971e-01,3.90692e-01,9.99999e-01
6.173157594e-01,3.98006e-01,9.99999e-01,9.99999e-01,9.99984e-01,3.98012e-01,9.99999e-01
6.204023382e-01,4.05316e-01,9.99999e-01,9.99999e-01,9.99986e-01,4.05321e-01,9.99999e-01
6.235043498e-01,4.12593e-01,9.99999e-01,9.99999e-01,9.99943e-01,4.12616e-01,9.99999e-01
6.266218716e-01,4.19769e-01,9.99999e-01,9.99999e-01,9.99699e-01,4.19895e-01,9.99999e-01
6.297549810e-01,4.27107e-01,9.99999e-01,9.99999e-01,9.99889e-01,4.27154e-01,9.99999e-01
6.329037559e-01,4.34297e-01,9.99999e-01,9.99999e-01,9.99782e-01,4.34391e-01,9.99999e-01
6.360682746e-01,4.41523e-01,9.99999e-01,9.99999e-01,9.99814e-01,4.41605e-01,9.99999e-01
6.392486160e-01,4.48685e-01,9.99999e-01,9.99999e-01,9.99759e-01,4.48792e-01,9.99999e-01
6.424448591e-01,4.55805e-01,9.99999e-01,9.99999e-01,9.99679e-01,4.55951e-01,9.99999e-01
6.456570834e-01,4.62391e-01,9.99999e-01,9.99999e-01,9.98514e-01,4.63079e-01,9.99999e-01
6.488853688e-01,4.69661e-01,9.99999e-01,9.99999e-01,9.98906e-01,4.70175e-01,9.99999e-01
6.521297956e-01,4.76704e-01,9.99999e-01,9.99999e-01,9.98885e-01,4.77236e-01,9.99999e-01
6.553904446e-01,4.83727e-01,9.99999e-01,9.99999e-01,9.98898e-01,4.84260e-01,9.99999e-01
6.586673968e-01,4.90780e-01,9.99999e-01,9.99999e-01,9.99050e-01,4.91246e-01,9.99999e-01
6.619607338e-01,4.97919e-01,9.99999e-01,9.99999e-01,9.99450e-01,4.98192e-01,9.99999e-01
6.652705375e-01,5.04936e-01,9.99999e-01,9.99999e-01,9.99681e-01,5.05096e-01,9.99999e-01
6.685968902e-01,5.11881e-01,9.99999e-01,9.99999e-01,9.99851e-01,5.11957e-01,9.99999e-01
6.719398746e-01,5.18737e-01,9.99999e-01,9.99999e-01,9.99931e-01,5.18772e-01,9.99999e-01
6.752995740e-01,5.25521e-01,9.99999e-01,9.99999e-01,9.99962e-01,5.25541e-01,9.99999e-01
6.786760719e-01,5.32233e-01,9.99999e-01,9.99999e-01,9.99946e-01,5.32262e-01,9.99999e-01
6.820694522e-01,5.38884e-01,9.99999e-01,9.99999e-01,9.99908e-01,5.38933e-01,9.99999e-01
6.854797995e-01,5.45490e-01,9.99999e-01,9.99999e-01,9.99881e-01,5.45554e-01,9.99999e-01
6.889071985e-01,5.51967e-01,9.99999e-01,9.99999e-01,9.99716e-01,5.52123e-01,9.99999e-01
6.923517345e-01,5.56041e-01,9.99999e-01,9.99999e-01,9.95349e-01,5.58639e-01,9.99999e-01
6.958134932e-01,5.63722e-01,9.99999e-01,9.99999e-01,9.97558e-01,5.65101e-01,9.99999e-01
6.992925606e-01,5.70194e-01,9.99999e-01,9.99999e-01,9.97701e-01,5.71508e-01,9.99999e-01
7.027890234e-01,5.76213e-01,9.99999e-01,9.99999e-01,9.97152e-01,5.77859e-01,9.99999e-01
7.063029686e-01,5.82755e-01,9.99999e-01,9.99999e-01,9.97607e-01,5.84152e-01,9.99999e-01
7.098344834e-01,5.89033e-01,9.99999e-01,9.99999e-01,9.97704e-01,5.90388e-01,9.99999e-01
7.133836558e-01,5.94749e-01,9.99999e-01,9.99999e-01,9.96954e-01,5.96566e-01,9.99999e-01
7.169505741e-01,5.87968e-01,9.99999e-01,9.99999e-01,9.75581e-01,6.02684e-01,9.99999e-01
7.205353270e-01,6.01380e-01,9.99999e-01,9.99999e-01,9.87905e-01,6.08742e-01,9.99999e-01
7.241380036e-01,6.05376e-01,9.99999e-01,9.99999e-01,9.84767e-01,6.14740e-01,9.99999e-01
7.277586936e-01,6.12135e-01,9.99999e-01,9.99999e-01,9.86238e-01,6.20677e-01,9.99999e-01
7.313974871e-01,6.17372e-01,9.99999e-01,9.99999e-01,9.85348e-01,6.26551e-01,9.99999e-01
7.350544745e-01,6.27296e-01,9.99999e-01,9.99999e-01,9.91984e-01,6.32364e-01,9.99999e-01
7.387297469e-01,6.34349e-01,9.99999e-01,9.99999e-01,9.94098e-01,6.38115e-01,9.99999e-01
7.424233956e-01,6.41940e-01,9.99999e-01,9.99999e-01,9.97107e-01,6.43802e-01,9.99999e-01
7.461355126e-01,6.48289e-01,9.99999e-01,9.99999e-01,9.98247e-01,6.49427e-01,9.99999e-01
7.498661902e-01,6.54453e-01,9.99999e-01,9.99999e-01,9.99182e-01,6.54988e-01,9.99999e-01
7.536155211e-01,6.60221e-01,9.99999e-01,9.99999e-01,9.99599e-01,6.60485e-01,9.99999e-01
7.573835987e-01,6.65781e-01,9.99999e-01,9.99999e-01,9.99793e-01,6.65918e-01,9.99999e-01
7.611705167e-01,6.71202e-01,9.99999e-01,9.99999e-01,9.99871e-01,6.71288e-01,9.99999e-01
7.649763693e-01,6.76539e-01,9.99999e-01,9.99999e-01,9.99919e-01,6.76594e-01,9.99999e-01
7.688012511e-01,6.81797e-01,9.99999e-01,9.99999e-01,9.99943e-01,6.81835e-01,9.99999e-01
7.726452574e-01,6.86981e-01,9.99999e-01,9.99999e-01,9.99953e-01,6.87012e-01,9.99999e-01
7.765084837e-01,6.92081e-01,9.99999e-01,9.99999e-01,9.99934e-01,6.92126e-01,9.99999e-01
7.803910261e-01,6.84678e-01,9.99999e-01,9.82345e-01,9.99718e-01,6.97175e-01,9.99999e-01
7.842929812e-01,6.49093e-01,9.99999e-01,9.25305e-01,9.99019e-01,7.02160e-01,9.99999e-01
7.882144461e-01,6.49346e-01,9.99999e-01,9.20171e-01,9.97973e-01,7.07081e-01,9.99999e-01
7.921555184e-01,6.77977e-01,9.99999e-01,9.53345e-01,9.98886e-01,7.11939e-01,9.99999e-01
7.961162960e-01,6.92814e-01,9.99999e-01,9.68515e-01,9.98040e-01,7.16733e-01,9.99999e-01
8.000968774e-01,7.07472e-01,9.99999e-01,9.82832e-01,9.97732e-01,7.21463e-01,9.99999e-01
8.040973618e-01,7.18010e-01,9.99999e-01,9.91060e-01,9.97732e-01,7.26131e-01,9.99999e-01
8.081178486e-01,7.24030e-01,9.99999e-01,9.95895e-01,9.94903e-01,7.30735e-01,9.99999e-01
8.121584379e-01,7.18814e-01,9.99999e-01,9.98726e-01,9.78849e-01,7.35277e-01,9.99999e-01
8.162192301e-01,7.20926e-01,9.99999e-01,9.99718e-01,9.74815e-01,7.39757e-01,9.99999e-01
8.203003262e-01,7.34796e-01,9.99999e-01,9.99995e-01,9.87401e-01,7.44175e-01,9.99999e-01
8.244018279e-01,7.35208e-01,9.99999e-01,9.99999e-01,9.82201e-01,7.48531e-01,9.99999e-01
8.285238370e-01,7.41505e-01,9.99999e-01,9.99999e-01,9.84962e-01,7.52826e-01,9.99999e-01
8.326664562e-01,7.45526e-01,9.99999e-01,9.99999e-01,9.84765e-01,7.57059e-01,9.99999e-01
8.368297885e-01,7.52941e-01,9.99999e-01,9.99999e-01,9.89107e-01,7.61233e-01,9.99999e-01
8.410139374e-01,7.60385e-01,9.99999e-01,9.99999e-01,9.93517e-01,7.65346e-01,9.99999e-01
8.452190071e-01,7.66951e-01,9.99999e-01,9.99999e-01,9.96816e-01,7.69399e-01,9.99999e-01
8.494451021e-01,7.71968e-01,9.99999e-01,9.99999e-01,9.98155e-01,7.73394e-01,9.99999e-01
8.536923276e-01,7.76480e-01,9.99999e-01,9.99999e-01,9.98907e-01,7.77329e-01,9.99999e-01
8.579607893e-01,7.80682e-01,9.99999e-01,9.99999e-01,9.99327e-01,7.81206e-01,9.99999e-01
8.622505932e-01,7.84691e-01,9.99999e-01,9.99999e-01,9.99572e-01,7.85026e-01,9.99999e-01
8.665618462e-01,7.51912e-01,9.99999e-01,9.53494e-01,9.99735e-01,7.88788e-01,9.99999e-01
8.708946554e-01,6.48821e-01,9.99999e-01,8.18950e-01,9.99697e-01,7.92493e-01,9.99999e-01
8.752491287e-01,6.78743e-01,9.99999e-01,8.52877e-01,9.99595e-01,7.96142e-01,9.99999e-01
8.796253743e-01,7.33021e-01,9.99999e-01,9.17083e-01,9.99441e-01,7.99735e-01,9.99999e-01
8.840235012e-01,7.67711e-01,9.99999e-01,9.56333e-01,9.99361e-01,8.03273e-01,9.99999e-01
8.884436187e-01,7.90864e-01,9.99999e-01,9.82563e-01,9.97684e-01,8.06756e-01,9.99999e-01
8.928858368e-01,7.84887e-01,9.99999e-01,9.92914e-01,9.75658e-01,8.10186e-01,9.99999e-01
8.973502660e-01,7.77331e-01,9.99999e-01,9.98270e-01,9.57105e-01,8.13561e-01,9.99998e-01
9.018370173e-01,7.98599e-01,9.99999e-01,9.99808e-01,9.77800e-01,8.16884e-01,9.99998e-01
9.063462024e-01,8.00397e-01,9.99999e-01,9.95152e-01,9.80588e-01,8.20154e-01,9.99998e-01
9.108779334e-01,7.89667e-01,9.99999e-01,9.88844e-01,9.69816e-01,8.23372e-01,9.99998e-01
9.154323231e-01,7.96176e-01,9.99999e-01,9.97361e-01,9.65784e-01,8.26539e-01,9.99998e-01
9.200094847e-01,7.76752e-01,9.99999e-01,9.61434e-01,9.73051e-01,8.29655e-01,9.99998e-01
9.246095321e-01,7.55543e-01,9.99999e-01,9.46504e-01,9.58088e-01,8.32721e-01,9.99997e-01
9.292325798e-01,6.00109e-01,9.99999e-01,9.57804e-01,7.47755e-01,8.35737e-01,9.99995e-01
9.338787427e-01,5.52773e-01,9.99999e-01,9.59144e-01,6.85381e-01,8.38705e-01,9.99994e-01
9.385481364e-01,7.01899e-01,9.99999e-01,9.69887e-01,8.59045e-01,8.41624e-01,9.99994e-01
9.432408771e-01,6.70104e-01,9.99999e-01,9.81461e-01,8.08023e-01,8.44495e-01,9.99993e-01
9.479570815e-01,6.23600e-01,9.99999e-01,9.90459e-01,7.42838e-01,8.47319e-01,9.99994e-01
9.526968669e-01,6.78694e-01,9.99999e-01,9.95384e-01,8.01885e-01,8.50096e-01,9.99995e-01
9.574603512e-01,6.97522e-01,9.99999e-01,9.98024e-01,8.19456e-01,8.52828e-01,9.99996e-01
9.622476530e-01,7.27487e-01,9.99999e-01,9.99383e-01,8.50860e-01,8.55514e-01,9.99997e-01
9.670588912e-01,7.81948e-01,9.99999e-01,9.99814e-01,9.11361e-01,8.58155e-01,9.99998e-01
9.718941857e-01,8.12500e-01,9.99999e-01,9.99986e-01,9.43955e-01,8.60752e-01,9.99998e-01
9.767536566e-01,8.22971e-01,9.99999e-01,9.99999e-01,9.53279e-01,8.63305e-01,9.99998e-01
9.816374249e-01,8.35659e-01,9.99999e-01,9.99999e-01,9.65169e-01,8.65815e-01,9.99999e-01
9.865456120e-01,8.49277e-01,9.99999e-01,9.99999e-01,9.78110e-01,8.68283e-01,9.99999e-01
9.914783401e-01,8.58890e-01,9.99999e-01,9.99999e-01,9.86426e-01,8.70708e-01,9.99999e-01
9.964357318e-01,8.66620e-01,9.99999e-01,9.99999e-01,9.92585e-01,8.73093e-01,9.99999e-01
1.001417910e+00,8.71542e-01,9.99999e-01,9.99999e-01,9.95550e-01,8.75436e-01,9.99999e-01
1.006425000e+00,8.75514e-01,9.99999e-01,9.99999e-01,9.97464e-01,8.77740e-01,9.99999e-01
1.011457125e+00,8.78617e-01,9.99999e-01,9.99999e-01,9.98423e-01,8.80004e-01,9.99999e-01
1.016514411e+00,8.81285e-01,9.99999e-01,9.99999e-01,9.98930e-01,8.82228e-01,9.99999e-01
1.021596983e+00,8.83640e-01,9.99999e-01,9.99975e-01,9.99147e-01,8.84415e-01,9.99999e-01
1.026704968e+00,8.84307e-01,9.99999e-01,9.98117e-01,9.99335e-01,8.86563e-01,9.99999e-01
1.031838492e+00,8.64620e-01,9.99999e-01,9.73393e-01,9.99516e-01,8.88674e-01,9.99999e-01
1.036997685e+00,2.47787e-01,9.99999e-01,2.78245e-01,9.99712e-01,8.90748e-01,9.99999e-01
1.042182673e+00,2.91073e-01,9.99999e-01,3.26131e-01,9.99658e-01,8.92786e-01,9.99999e-01
1.047393587e+00,2.74554e-01,9.99999e-01,3.06963e-01,9.99546e-01,8.94788e-01,9.99999e-01
1.052630555e+00,3.81859e-02,9.99999e-01,4.26032e-02,9.99378e-01,8.96755e-01,9.99999e-01
1.057893707e+00,7.27440e-02,9.99999e-01,8.10102e-02,9.98963e-01,8.98687e-01,9.99999e-01
1.063183176e+00,1.45477e-01,9.99999e-01,1.61758e-01,9.98293e-01,9.00585e-01,9.99999e-01
1.068499092e+00,2.66481e-01,9.99999e-01,2.96053e-01,9.97140e-01,9.02450e-01,9.99999e-01
1.073841587e+00,4.18042e-01,9.99999e-01,4.63698e-01,9.96656e-01,9.04282e-01,9.99999e-01
1.079210795e+00,5.55778e-01,9.99999e-01,6.15902e-01,9.95711e-01,9.06080e-01,9.99999e-01
1.084606849e+00,6.92267e-01,9.99999e-01,7.67390e-01,9.93516e-01,9.07847e-01,9.99999e-01
1.090029883e+00,7.85863e-01,9.99999e-01,8.71966e-01,9.90713e-01,9.09583e-01,9.99999e-01
1.095480033e+00,8.30533e-01,9.99999e-01,9.34748e-01,9.74868e-01,9.11287e-01,9.99998e-01
1.100957433e+00,8.28470e-01,9.99999e-01,9.68063e-01,9.37231e-01,9.12961e-01,9.99998e-01
1.106462220e+00,7.64798e-01,9.99999e-01,9.86667e-01,8.47294e-01,9.14604e-01,9.99997e-01
1.111994531e+00,6.41829e-01,9.99999e-01,9.95039e-01,7.03880e-01,9.16218e-01,9.99994e-01
1.117554504e+00,5.17727e-01,9.99999e-01,9.98784e-01,5.64711e-01,9.17803e-01,9.99992e-01
1.123142276e+00,5.99292e-01,9.99999e-01,9.99919e-01,6.51898e-01,9.19359e-01,9.99991e-01
1.128757988e+00,7.03060e-01,9.99999e-01,9.99999e-01,7.63465e-01,9.20887e-01,9.99990e-01
1.134401778e+00,4.84679e-01,9.99999e-01,9.99999e-01,5.25466e-01,9.22388e-01,9.99989e-01
1.140073787e+00,7.88023e-01,9.99999e-01,9.99999e-01,8.52973e-01,9.23861e-01,9.99991e-01
1.145774156e+00,6.61477e-01,9.99999e-01,9.99999e-01,7.14877e-01,9.25307e-01,9.99992e-01
1.151503026e+00,6.36300e-01,9.99999e-01,9.99999e-01,6.86613e-01,9.26727e-01,9.99993e-01
1.157260541e+00,6.81666e-01,9.99999e-01,9.99999e-01,7.34461e-01,9.28121e-01,9.99995e-01
1.163046844e+00,7.40215e-01,9.99999e-01,9.99999e-01,7.96369e-01,9.29490e-01,9.99996e-01
1.168862078e+00,7.95355e-01,9.99999e-01,9.99999e-01,8.54456e-01,9.30833e-01,9.99998e-01
1.174706389e+00,8.45962e-01,9.99999e-01,9.99999e-01,9.07536e-01,9.32152e-01,9.99998e-01
1.180579921e+00,8.79940e-01,9.99999e-01,9.99999e-01,9.42678e-01,9.33446e-01,9.99999e-01
1.186482820e+00,9.04106e-01,9.99999e-01,9.99996e-01,9.67253e-01,9.34717e-01,9.99999e-01
1.192415234e+00,9.11817e-01,9.99999e-01,9.93252e-01,9.80779e-01,9.35964e-01,9.99999e-01
1.198377311e+00,5.40182e-01,9.99999e-01,5.84363e-01,9.83787e-01,9.37189e-01,9.99999e-01
1.204369197e+00,8.76705e-07,9.99999e-01,9.42642e-07,9.84636e-01,9.38390e-01,9.99999e-01
1.210391043e+00,1.01120e-21,9.99999e-01,1.08510e-21,9.85308e-01,9.39570e-01,9.99999e-01
1.216442998e+00,4.78160e-19,9.99999e-01,5.12258e-19,9.87478e-01,9.40727e-01,9.99999e-01
1.222525213e+00,8.99572e-19,9.99999e-01,9.59992e-19,9.90246e-01,9.41863e-01,9.99999e-01
1.228637839e+00,1.89052e-14,9.99999e-01,2.01457e-14,9.93220e-01,9.42978e-01,9.99999e-01
