#,Wave/freq,Total,O2,CO2,H2O,Rayleigh,CIA
4.000000000e-01,1.01780e-02,9.99999e-01,9.99999e-01,9.99990e-01,1.01781e-02,9.99999e-01
4.020000000e-01,1.11444e-02,9.99999e-01,9.99999e-01,9.99993e-01,1.11444e-02,9.99999e-01
4.040100000e-01,1.21796e-02,9.99999e-01,9.99999e-01,9.99997e-01,1.21796e-02,9.99999e-01
4.060300500e-01,1.32876e-02,9.99999e-01,9.99999e-01,9.99998e-01,1.32876e-02,9.99999e-01
4.080602003e-01,1.44715e-02,9.99999e-01,9.99999e-01,9.99999e-01,1.44715e-02,9.99999e-01
4.101005013e-01,1.57343e-02,9.99999e-01,9.99999e-01,9.99999e-01,1.57343e-02,9.99999e-01
4.121510038e-01,1.70791e-02,9.99999e-01,9.99999e-01,9.99999e-01,1.70791e-02,9.99999e-01
4.142117588e-01,1.85088e-02,9.99999e-01,9.99999e-01,9.99997e-01,1.85088e-02,9.99999e-01
4.162828176e-01,2.00261e-02,9.99999e-01,9.99999e-01,9.99988e-01,2.00264e-02,9.99999e-01
4.183642317e-01,2.16345e-02,9.99999e-01,9.99999e-01,9.99992e-01,2.16346e-02,9.99999e-01
4.204560528e-01,2.33363e-02,9.99999e-01,9.99999e-01,9.99995e-01,2.33364e-02,9.99999e-01
4.225583331e-01,2.51344e-02,9.99999e-01,9.99999e-01,9.99998e-01,2.51345e-02,9.99999e-01
4.246711247e-01,2.70314e-02,9.99999e-01,9.99999e-01,9.99998e-01,2.70314e-02,9.99999e-01
4.267944804e-01,2.90297e-02,9.99999e-01,9.99999e-01,9.99997e-01,2.90297e-02,9.99999e-01
4.289284528e-01,3.11318e-02,9.99999e-01,9.99999e-01,9.99998e-01,3.11319e-02,9.99999e-01
4.310730950e-01,3.33402e-02,9.99999e-01,9.99999e-01,9.99998e-01,3.33402e-02,9.99999e-01
4.332284605e-01,3.56569e-02,9.99999e-01,9.99999e-01,9.99999e-01,3.56569e-02,9.99999e-01
4.353946028e-01,3.80840e-02,9.99999e-01,9.99999e-01,9.99999e-01,3.80840e-02,9.99999e-01
4.375715758e-01,4.06233e-02,9.99999e-01,9.99999e-01,9.99998e-01,4.06234e-02,9.99999e-01
4.397594337e-01,4.32765e-02,9.99999e-01,9.99999e-01,9.99989e-01,4.32769e-02,9.99999e-01
4.419582309e-01,4.60439e-02,9.99999e-01,9.99999e-01,9.99949e-01,4.60462e-02,9.99999e-01
4.441680220e-01,4.89308e-02,9.99999e-01,9.99999e-01,9.99961e-01,4.89326e-02,9.99999e-01
4.463888621e-01,5.19356e-02,9.99999e-01,9.99999e-01,9.99959e-01,5.19377e-02,9.99999e-01
4.486208064e-01,5.50610e-02,9.99999e-01,9.99999e-01,9.99974e-01,5.50623e-02,9.99999e-01
4.508639105e-01,5.83070e-02,9.99999e-01,9.99999e-01,9.99987e-01,5.83077e-02,9.99999e-01
4.531182300e-01,6.16743e-02,9.99999e-01,9.99999e-01,9.99994e-01,6.16745e-02,9.99999e-01
4.553838212e-01,6.51633e-02,9.99999e-01,9.99999e-01,9.99996e-01,6.51635e-02,9.99999e-01
4.576607403e-01,6.87749e-02,9.99999e-01,9.99999e-01,9.99998e-01,6.87750e-02,9.99999e-01
4.599490440e-01,7.25093e-02,9.99999e-01,9.99999e-01,9.99998e-01,7.25094e-02,9.99999e-01
4.622487892e-01,7.63667e-02,9.99999e-01,9.99999e-01,9.99999e-01,7.63668e-02,9.99999e-01
4.645600332e-01,8.03470e-02,9.99999e-01,9.99999e-01,9.99998e-01,8.03470e-02,9.99999e-01
4.668828333e-01,8.44489e-02,9.99999e-01,9.99999e-01,9.99987e-01,8.44499e-02,9.99999e-01
4.692172475e-01,8.86728e-02,9.99999e-01,9.99999e-01,9.99974e-01,8.86751e-02,9.99999e-01
4.715633337e-01,9.30203e-02,9.99999e-01,9.99999e-01,9.99982e-01,9.30219e-02,9.99999e-01
4.739211504e-01,9.74880e-02,9.99999e-01,9.99999e-01,9.99983e-01,9.74896e-02,9.99999e-01
4.762907561e-01,1.02076e-01,9.99999e-01,9.99999e-01,9.99991e-01,1.02077e-01,9.99999e-01
4.786722099e-01,1.06783e-01,9.99999e-01,9.99999e-01,9.99996e-01,1.06784e-01,9.99999e-01
4.810655710e-01,1.11608e-01,9.99999e-01,9.99999e-01,9.99998e-01,1.11608e-01,9.99999e-01
4.834708988e-01,1.16547e-01,9.99999e-01,9.99999e-01,9.99989e-01,1.16548e-01,9.99999e-01
4.858882533e-01,1.21601e-01,9.99999e-01,9.99999e-01,9.99981e-01,1.21603e-01,9.99999e-01
4.883176946e-01,1.26769e-01,9.99999e-01,9.99999e-01,9.99984e-01,1.26770e-01,9.99999e-01
4.907592831e-01,1.32047e-01,9.99999e-01,9.99999e-01,9.99986e-01,1.32049e-01,9.99999e-01
4.932130795e-01,1.37436e-01,9.99999e-01,9.99999e-01,9.99989e-01,1.37437e-01,9.99999e-01
4.956791449e-01,1.42931e-01,9.99999e-01,9.99999e-01,9.99994e-01,1.42931e-01,9.99999e-01
4.981575406e-01,1.48527e-01,9.99999e-01,9.99999e-01,9.99974e-01,1.48531e-01,9.99999e-01
5.006483283e-01,1.54222e-01,9.99999e-01,9.99999e-01,9.99933e-01,1.54232e-01,9.99999e-01
5.031515699e-01,1.59980e-01,9.99999e-01,9.99999e-01,9.99664e-01,1.60033e-01,9.99999e-01
5.056673278e-01,1.65902e-01,9.99999e-01,9.99999e-01,9.99823e-01,1.65932e-01,9.99999e-01
5.081956644e-01,1.71886e-01,9.99999e-01,9.99999e-01,9.99777e-01,1.71924e-01,9.99999e-01
5.107366428e-01,1.77982e-01,9.99999e-01,9.99999e-01,9.99849e-01,1.78009e-01,9.99999e-01
5.132903260e-01,1.84166e-01,9.99999e-01,9.99999e-01,9.99914e-01,1.84182e-01,9.99999e-01
5.158567776e-01,1.90434e-01,9.99999e-01,9.99999e-01,9.99963e-01,1.90441e-01,9.99999e-01
5.184360615e-01,1.96780e-01,9.99999e-01,9.99999e-01,9.99985e-01,1.96783e-01,9.99999e-01
5.210282418e-01,2.03203e-01,9.99999e-01,9.99999e-01,9.99994e-01,2.03204e-01,9.99999e-01
5.236333830e-01,2.09697e-01,9.99999e-01,9.99999e-01,9.99977e-01,2.09702e-01,9.99999e-01
5.262515499e-01,2.16270e-01,9.99999e-01,9.99999e-01,9.99985e-01,2.16273e-01,9.99999e-01
5.288828077e-01,2.22911e-01,9.99999e-01,9.99999e-01,9.99986e-01,2.22914e-01,9.99999e-01
5.315272217e-01,2.29620e-01,9.99999e-01,9.99999e-01,9.99988e-01,2.29622e-01,9.99999e-01
5.341848578e-01,2.36392e-01,9.99999e-01,9.99999e-01,9.99992e-01,2.36393e-01,9.99999e-01
5.368557821e-01,2.43218e-01,9.99999e-01,9.99999e-01,9.99974e-01,2.43225e-01,9.99999e-01
5.395400610e-01,2.50089e-01,9.99999e-01,9.99999e-01,9.99907e-01,2.50112e-01,9.99999e-01
5.422377613e-01,2.57023e-01,9.99999e-01,9.99999e-01,9.99881e-01,2.57054e-01,9.99999e-01
5.449489501e-01,2.64015e-01,9.99999e-01,9.99999e-01,9.99889e-01,2.64044e-01,9.99999e-01
5.476736949e-01,2.71056e-01,9.99999e-01,9.99999e-01,9.99902e-01,2.71082e-01,9.99999e-01
5.504120634e-01,2.78143e-01,9.99999e-01,9.99999e-01,9.99929e-01,2.78162e-01,9.99999e-01
5.531641237e-01,2.85272e-01,9.99999e-01,9.99999e-01,9.99964e-01,2.85282e-01,9.99999e-01
5.559299443e-01,2.92433e-01,9.99999e-01,9.99999e-01,9.99982e-01,2.92438e-01,9.99999e-01
5.587095940e-01,2.99624e-01,9.99999e-01,9.99999e-01,9.99988e-01,2.99627e-01,9.99999e-01
5.615031420e-01,3.06842e-01,9.99999e-01,9.99999e-01,9.99987e-01,3.06846e-01,9.99999e-01
5.643106577e-01,3.14086e-01,9.99999e-01,9.99999e-01,9.99985e-01,3.14090e-01,9.99999e-01
5.671322110e-01,3.21304e-01,9.99999e-01,9.99999e-01,9.99831e-01,3.21358e-01,9.99999e-01
5.699678720e-01,3.28588e-01,9.99999e-01,9.99999e-01,9.99825e-01,3.28645e-01,9.99999e-01
5.728177114e-01,3.35887e-01,9.99999e-01,9.99999e-01,9.99816e-01,3.35949e-01,9.99999e-01
5.756818000e-01,3.43208e-01,9.99999e-01,9.99999e-01,9.99831e-01,3.43266e-01,9.99999e-01
5.785602090e-01,3.50542e-01,9.99999e-01,9.99999e-01,9.99853e-01,3.50593e-01,9.99999e-01
5.814530100e-01,3.57874e-01,9.99999e-01,9.99999e-01,9.99852e-01,3.57927e-01,9.99999e-01
5.843602750e-01,3.65200e-01,9.99999e-01,9.99999e-01,9.99823e-01,3.65265e-01,9.99999e-01
5.872820764e-01,3.72038e-01,9.99999e-01,9.99999e-01,9.98479e-01,3.72604e-01,9.99999e-01
5.902184868e-01,3.79247e-01,9.99999e-01,9.99999e-01,9.98172e-01,3.79941e-01,9.99999e-01
5.931695792e-01,3.86772e-01,9.99999e-01,9.99999e-01,9.98705e-01,3.87274e-01,9.99999e-01
5.961354271e-01,3.94040e-01,9.99999e-01,9.99999e-01,9.98583e-01,3.94599e-01,9.99999e-01
5.991161043e-01,4.01499e-01,9.99999e-01,9.99999e-01,9.98968e-01,4.01913e-01,9.99999e-01
6.021116848e-01,4.08976e-01,9.99999e-01,9.99999e-01,9.99414e-01,4.09215e-01,9.99999e-01
6.051222432e-01,4.16379e-01,9.99999e-01,9.99999e-01,9.99703e-01,4.16502e-01,9.99999e-01
6.081478544e-01,4.23716e-01,9.99999e-01,9.99999e-01,9.99871e-01,4.23770e-01,9.99999e-01
6.111885937e-01,4.30995e-01,9.99999e-01,9.99999e-01,9.99945e-01,4.31018e-01,9.99999e-01
6.142445367e-01,4.38232e-01,9.99999e-01,9.99999e-01,9.99975e-01,4.38243e-01,9.99999e-01
6.173157594e-01,4.45437e-01,9.99999e-01,9.99999e-01,9.99986e-01,4.45443e-01,9.99999e-01
6.204023382e-01,4.52610e-01,9.99999e-01,9.99999e-01,9.99988e-01,4.52615e-01,9.99999e-01
6.235043498e-01,4.59735e-01,9.99999e-01,9.99999e-01,9.99949e-01,4.59758e-01,9.99999e-01
6.266218716e-01,4.66746e-01,9.99999e-01,9.99999e-01,9.99736e-01,4.66869e-01,9.99999e-01
6.297549810e-01,4.73901e-01,9.99999e-01,9.99999e-01,9.99902e-01,4.73947e-01,9.99999e-01
6.329037559e-01,4.80897e-01,9.99999e-01,9.99999e-01,9.99809e-01,4.80988e-01,9.99999e-01
6.360682746e-01,4.87913e-01,9.99999e-01,9.99999e-01,9.99836e-01,4.87993e-01,9.99999e-01
6.392486160e-01,4.94853e-01,9.99999e-01,9.99999e-01,9.99789e-01,4.94957e-01,9.99999e-01
6.424448591e-01,5.01739e-01,9.99999e-01,9.99999e-01,9.99715e-01,5.01881e-01,9.99999e-01
6.456570834e-01,5.08092e-01,9.99999e-01,9.99999e-01,9.98682e-01,5.08762e-01,9.99999e-01
6.488853688e-01,5.15106e-01,9.99999e-01,9.99999e-01,9.99043e-01,5.15599e-01,9.99999e-01
6.521297956e-01,5.21880e-01,9.99999e-01,9.99999e-01,9.99025e-01,5.22389e-01,9.99999e-01
6.553904446e-01,5.28618e-01,9.99999e-01,9.99999e-01,9.99026e-01,5.29133e-01,9.99999e-01
6.586673968e-01,5.35382e-01,9.99999e-01,9.99999e-01,9.99168e-01,5.35827e-01,9.99999e-01
6.619607338e-01,5.42221e-01,9.99999e-01,9.99999e-01,9.99536e-01,5.42472e-01,9.99999e-01
6.652705375e-01,5.48913e-01,9.99999e-01,9.99999e-01,9.99721e-01,5.49065e-01,9.99999e-01
6.685968902e-01,5.55541e-01,9.99999e-01,9.99999e-01,9.99881e-01,5.55606e-01,9.99999e-01
6.719398746e-01,5.62060e-01,9.99999e-01,9.99999e-01,9.99939e-01,5.62094e-01,9.99999e-01
6.752995740e-01,5.68508e-01,9.99999e-01,9.99999e-01,9.99967e-01,5.68526e-01,9.99999e-01
6.786760719e-01,5.74876e-01,9.99999e-01,9.99999e-01,9.99952e-01,5.74903e-01,9.99999e-01
6.820694522e-01,5.81177e-01,9.99999e-01,9.99999e-01,9.99919e-01,5.81224e-01,9.99999e-01
6.854797995e-01,5.87426e-01,9.99999e-01,9.99999e-01,9.99895e-01,5.87487e-01,9.99999e-01
6.889071985e-01,5.93541e-01,9.99999e-01,9.99999e-01,9.99745e-01,5.93692e-01,9.99999e-01
6.923517345e-01,5.97368e-01,9.99999e-01,9.99999e-01,9.95882e-01,5.99838e-01,9.99999e-01
6.958134932e-01,6.04647e-01,9.99999e-01,9.99999e-01,9.97892e-01,6.05924e-01,9.99999e-01
6.992925606e-01,6.10705e-01,9.99999e-01,9.99999e-01,9.97965e-01,6.11950e-01,9.99999e-01
7.027890234e-01,6.16373e-01,9.99999e-01,9.99999e-01,9.97504e-01,6.17915e-01,9.99999e-01
7.063029686e-01,6.22510e-01,9.99999e-01,9.99999e-01,9.97901e-01,6.23819e-01,9.99999e-01
7.098344834e-01,6.28393e-01,9.99999e-01,9.99999e-01,9.97986e-01,6.29661e-01,9.99999e-01
7.133836558e-01,6.33717e-01,9.99999e-01,9.99999e-01,9.97287e-01,6.35440e-01,9.99999e-01
7.169505741e-01,6.27297e-01,9.99999e-01,9.99999e-01,9.78382e-01,6.41157e-01,9.99999e-01
7.205353270e-01,6.40044e-01,9.99999e-01,9.99999e-01,9.89537e-01,6.46811e-01,9.99999e-01
7.241380036e-01,6.43637e-01,9.99999e-01,9.99999e-01,9.86565e-01,6.52401e-01,9.99999e-01
7.277586936e-01,6.49953e-01,9.99999e-01,9.99999e-01,9.87877e-01,6.57928e-01,9.99999e-01
7.313974871e-01,6.54898e-01,9.99999e-01,9.99999e-01,9.87195e-01,6.63392e-01,9.99999e-01
7.350544745e-01,6.64099e-01,9.99999e-01,9.99999e-01,9.92983e-01,6.68791e-01,9.99999e-01
7.387297469e-01,6.70648e-01,9.99999e-01,9.99999e-01,9.94839e-01,6.74127e-01,9.99999e-01
7.424233956e-01,6.77685e-01,9.99999e-01,9.99999e-01,9.97477e-01,6.79398e-01,9.99999e-01
7.461355126e-01,6.83558e-01,9.99999e-01,9.99999e-01,9.98469e-01,6.84605e-01,9.99999e-01
7.498661902e-01,6.89258e-01,9.99999e-01,9.99999e-01,9.99288e-01,6.89748e-01,9.99999e-01
7.536155211e-01,6.94585e-01,9.99999e-01,9.99999e-01,9.99650e-01,6.94827e-01,9.99999e-01
7.573835987e-01,6.99717e-01,9.99999e-01,9.99999e-01,9.99819e-01,6.99842e-01,9.99999e-01
7.611705167e-01,7.04715e-01,9.99999e-01,9.99999e-01,9.99887e-01,7.04793e-01,9.99999e-01
7.649763693e-01,7.09631e-01,9.99999e-01,9.99999e-01,9.99929e-01,7.09681e-01,9.99999e-01
7.688012511e-01,7.14469e-01,9.99999e-01,9.99999e-01,9.99950e-01,7.14504e-01,9.99999e-01
7.726452574e-01,7.19236e-01,9.99999e-01,9.99999e-01,9.99959e-01,7.19265e-01,9.99999e-01
7.765084837e-01,7.23920e-01,9.99999e-01,9.99999e-01,9.99942e-01,7.23961e-01,9.99999e-01
7.803910261e-01,7.16454e-01,9.99999e-01,9.83576e-01,9.99750e-01,7.28595e-01,9.99999e-01
7.842929812e-01,6.84509e-01,9.99999e-01,9.34427e-01,9.99130e-01,7.33167e-01,9.99999e-01
7.882144461e-01,6.84320e-01,9.99999e-01,9.29293e-01,9.98221e-01,7.37675e-01,9.99999e-01
7.921555184e-01,7.10870e-01,9.99999e-01,9.58809e-01,9.99028e-01,7.42122e-01,9.99999e-01
7.961162960e-01,7.24727e-01,9.99999e-01,9.72502e-01,9.98266e-01,7.46507e-01,9.99999e-01
8.000968774e-01,7.38084e-01,9.99999e-01,9.84982e-01,9.98008e-01,7.50830e-01,9.99999e-01
8.040973618e-01,7.47728e-01,9.99999e-01,9.92223e-01,9.98004e-01,7.55092e-01,9.99999e-01
8.081178486e-01,7.53153e-01,9.99999e-01,9.96412e-01,9.95480e-01,7.59293e-01,9.99999e-01
8.121584379e-01,7.48313e-01,9.99999e-01,9.98899e-01,9.81266e-01,7.63435e-01,9.99999e-01
8.162192301e-01,7.50413e-01,9.99999e-01,9.99756e-01,9.77952e-01,7.67516e-01,9.99999e-01
8.203003262e-01,7.62841e-01,9.99999e-01,9.99996e-01,9.88731e-01,7.71538e-01,9.99999e-01
8.244018279e-01,7.63528e-01,9.99999e-01,9.99999e-01,9.84561e-01,7.75501e-01,9.99999e-01
8.285238370e-01,7.69074e-01,9.99999e-01,9.99999e-01,9.86745e-01,7.79405e-01,9.99999e-01
8.326664562e-01,7.72785e-01,9.99999e-01,9.99999e-01,9.86637e-01,7.83251e-01,9.99999e-01
8.368297885e-01,7.79540e-01,9.99999e-01,9.99999e-01,9.90470e-01,7.87040e-01,9.99999e-01
8.410139374e-01,7.86291e-01,9.99999e-01,9.99999e-01,9.94333e-01,7.90772e-01,9.99999e-01
8.452190071e-01,7.92241e-01,9.99999e-01,9.99999e-01,9.97222e-01,7.94447e-01,9.99999e-01
8.494451021e-01,7.96776e-01,9.99999e-01,9.99999e-01,9.98383e-01,7.98066e-01,9.99999e-01
8.536923276e-01,8.00866e-01,9.99999e-01,9.99999e-01,9.99046e-01,8.01630e-01,9.99999e-01
8.579607893e-01,8.04665e-01,9.99999e-01,9.99999e-01,9.99411e-01,8.05138e-01,9.99999e-01
8.622505932e-01,8.08291e-01,9.99999e-01,9.99999e-01,9.99626e-01,8.08593e-01,9.99999e-01
8.665618462e-01,7.76078e-01,9.99999e-01,9.55985e-01,9.99768e-01,8.11993e-01,9.99999e-01
8.708946554e-01,6.83650e-01,9.99999e-01,8.38702e-01,9.99734e-01,8.15340e-01,9.99999e-01
8.752491287e-01,7.11953e-01,9.99999e-01,8.69987e-01,9.99644e-01,8.18635e-01,9.99999e-01
8.796253743e-01,7.61699e-01,9.99999e-01,9.27229e-01,9.99506e-01,8.21877e-01,9.99999e-01
8.840235012e-01,7.93096e-01,9.99999e-01,9.61786e-01,9.99437e-01,8.25068e-01,9.99999e-01
8.884436187e-01,8.13968e-01,9.99999e-01,9.84850e-01,9.97915e-01,8.28208e-01,9.99999e-01
8.928858368e-01,8.08322e-01,9.99999e-01,9.93829e-01,9.78376e-01,8.31297e-01,9.99999e-01
8.973502660e-01,8.01672e-01,9.99999e-01,9.98505e-01,9.62274e-01,8.34336e-01,9.99999e-01
9.018370173e-01,8.21017e-01,9.99999e-01,9.99835e-01,9.80680e-01,8.37326e-01,9.99998e-01
9.063462024e-01,8.22252e-01,9.99999e-01,9.95642e-01,9.82781e-01,8.40268e-01,9.99998e-01
9.108779334e-01,8.12758e-01,9.99999e-01,9.90254e-01,9.73375e-01,8.43161e-01,9.99998e-01
9.154323231e-01,8.18684e-01,9.99999e-01,9.97725e-01,9.69887e-01,8.46007e-01,9.99998e-01
9.200094847e-01,8.00553e-01,9.99999e-01,9.65415e-01,9.76363e-01,8.48807e-01,9.99998e-01
9.246095321e-01,7.81240e-01,9.99999e-01,9.53070e-01,9.62188e-01,8.51559e-01,9.99997e-01
9.292325798e-01,6.36682e-01,9.99999e-01,9.62507e-01,7.72711e-01,8.54266e-01,9.99995e-01
9.338787427e-01,5.94175e-01,9.99999e-01,9.64170e-01,7.17709e-01,8.56928e-01,9.99994e-01
9.385481364e-01,7.33169e-01,9.99999e-01,9.73597e-01,8.75453e-01,8.59546e-01,9.99994e-01
9.432408771e-01,7.02277e-01,9.99999e-01,9.83813e-01,8.27628e-01,8.62119e-01,9.99994e-01
9.479570815e-01,6.57940e-01,9.99999e-01,9.91652e-01,7.67154e-01,8.64649e-01,9.99994e-01
9.526968669e-01,7.11491e-01,9.99999e-01,9.95972e-01,8.23674e-01,8.67137e-01,9.99996e-01
9.574603512e-01,7.28796e-01,9.99999e-01,9.98277e-01,8.39501e-01,8.69582e-01,9.99996e-01
9.622476530e-01,7.56677e-01,9.99999e-01,9.99462e-01,8.68217e-01,8.71986e-01,9.99997e-01
9.670588912e-01,8.05911e-01,9.99999e-01,9.99839e-01,9.21872e-01,8.74348e-01,9.99998e-01
9.718941857e-01,8.33402e-01,9.99999e-01,9.99988e-01,9.50655e-01,8.76670e-01,9.99998e-01
9.767536566e-01,8.42805e-01,9.99999e-01,9.99999e-01,9.58873e-01,8.78952e-01,9.99999e-01
9.816374249e-01,8.54283e-01,9.99999e-01,9.99999e-01,9.69459e-01,8.81195e-01,9.99999e-01
9.865456120e-01,8.66466e-01,9.99999e-01,9.99999e-01,9.80830e-01,8.83399e-01,9.99999e-01
9.914783401e-01,8.75038e-01,9.99999e-01,9.99999e-01,9.88111e-01,8.85565e-01,9.99999e-01
9.964357318e-01,8.81934e-01,9.99999e-01,9.99999e-01,9.93511e-01,8.87694e-01,9.99999e-01
1.001417910e+00,8.86323e-01,9.99999e-01,9.99999e-01,9.96108e-01,8.89785e-01,9.99999e-01
1.006425000e+00,8.89857e-01,9.99999e-01,9.99999e-01,9.97776e-01,8.91840e-01,9.99999e-01
1.011457125e+00,8.92628e-01,9.99999e-01,9.99999e-01,9.98622e-01,8.93859e-01,9.99999e-01
1.016514411e+00,8.95003e-01,9.99999e-01,9.99999e-01,9.99063e-01,8.95842e-01,9.99999e-01
1.021596983e+00,8.97098e-01,9.99999e-01,9.99974e-01,9.99253e-01,8.97790e-01,9.99999e-01
1.026704968e+00,8.97652e-01,9.99999e-01,9.98299e-01,9.99417e-01,8.99704e-01,9.99999e-01
1.031838492e+00,8.76888e-01,9.99999e-01,9.73009e-01,9.99577e-01,9.01584e-01,9.99999e-01
1.036997685e+00,2.76883e-01,9.99999e-01,3.06544e-01,9.99748e-01,9.03431e-01,9.99999e-01
1.042182673e+00,3.37864e-01,9.99999e-01,3.73334e-01,9.99698e-01,9.05245e-01,9.99999e-01
1.047393587e+00,3.06157e-01,9.99999e-01,3.37661e-01,9.99601e-01,9.07027e-01,9.99999e-01
1.052630555e+00,5.35213e-02,9.99999e-01,5.89195e-02,9.99452e-01,9.08777e-01,9.99999e-01
1.057893707e+00,9.85082e-02,9.99999e-01,1.08271e-01,9.99085e-01,9.10496e-01,9.99999e-01
1.063183176e+00,1.82280e-01,9.99999e-01,2.00076e-01,9.98496e-01,9.12184e-01,9.99999e-01
1.068499092e+00,3.11990e-01,9.99999e-01,3.42192e-01,9.97486e-01,9.13841e-01,9.99999e-01
1.073841587e+00,4.65370e-01,9.99999e-01,5.09720e-01,9.97052e-01,9.15469e-01,9.99999e-01
1.079210795e+00,5.97377e-01,9.99999e-01,6.53757e-01,9.96235e-01,9.17067e-01,9.99999e-01
1.084606849e+00,7.24749e-01,9.99999e-01,7.93368e-01,9.94295e-01,9.18637e-01,9.99999e-01
1.090029883e+00,8.09566e-01,9.99999e-01,8.87003e-01,9.91769e-01,9.20178e-01,9.99999e-01
1.095480033e+00,8.49702e-01,9.99999e-01,9.42764e-01,9.77756e-01,9.21691e-01,9.99998e-01
1.100957433e+00,8.47500e-01,9.99999e-01,9.72035e-01,9.44311e-01,9.23177e-01,9.99998e-01
1.106462220e+00,7.89001e-01,9.99999e-01,9.88361e-01,8.63188e-01,9.24636e-01,9.99997e-01
1.111994531e+00,6.76369e-01,9.99999e-01,9.95671e-01,7.33433e-01,9.26068e-01,9.99995e-01
1.117554504e+00,5.59619e-01,9.99999e-01,9.98946e-01,6.03960e-01,9.27474e-01,9.99993e-01
1.123142276e+00,6.37083e-01,9.99999e-01,9.99930e-01,6.85918e-01,9.28854e-01,9.99992e-01
1.128757988e+00,7.32660e-01,9.99999e-01,9.99999e-01,7.87634e-01,9.30209e-01,9.99991e-01
1.134401778e+00,5.25279e-01,9.99999e-01,9.99999e-01,5.63886e-01,9.31540e-01,9.99990e-01
1.140073787e+00,8.10588e-01,9.99999e-01,9.99999e-01,8.68946e-01,9.32845e-01,9.99992e-01
1.145774156e+00,6.95006e-01,9.99999e-01,9.99999e-01,7.44020e-01,9.34127e-01,9.99993e-01
1.151503026e+00,6.71074e-01,9.99999e-01,9.99999e-01,7.17433e-01,9.35385e-01,9.99994e-01
1.157260541e+00,7.13980e-01,9.99999e-01,9.99999e-01,7.62297e-01,9.36620e-01,9.99995e-01
1.163046844e+00,7.68133e-01,9.99999e-01,9.99999e-01,8.19052e-01,9.37832e-01,9.99997e-01
1.168862078e+00,8.18202e-01,9.99999e-01,9.99999e-01,8.71335e-01,9.39022e-01,9.99998e-01
1.174706389e+00,8.63595e-01,9.99999e-01,9.99999e-01,9.18533e-01,9.40190e-01,9.99998e-01
1.180579921e+00,8.93937e-01,9.99999e-01,9.99999e-01,9.49646e-01,9.41336e-01,9.99999e-01
1.186482820e+00,9.15369e-01,9.99999e-01,9.99995e-01,9.71257e-01,9.42461e-01,9.99999e-01
1.192415234e+00,9.21981e-01,9.99999e-01,9.93864e-01,9.83126e-01,9.43564e-01,9.99999e-01
1.198377311e+00,5.49343e-01,9.99999e-01,5.88604e-01,9.85738e-01,9.44648e-01,9.99999e-01
1.204369197e+00,3.14325e-06,9.99999e-01,3.34984e-06,9.86500e-01,9.45711e-01,9.99999e-01
1.210391043e+00,2.40205e-19,9.99999e-01,2.55549e-19,9.87095e-01,9.46754e-01,9.99999e-01
1.216442998e+00,5.42139e-17,9.99999e-01,5.75935e-17,9.89030e-01,9.47778e-01,9.99999e-01
1.222525213e+00,9.68382e-17,9.99999e-01,1.02529e-16,9.91448e-01,9.48782e-01,9.99999e-01
1.228637839e+00,7.36047e-13,9.99999e-01,7.78289e-13,9.94052e-01,9.49768e-01,9.99999e-01
