#,Wave/freq,Total,O2,CO2,H2O,Rayleigh,CIA
4.000000000e-01,1.05151e-08,9.99999e-01,9.99999e-01,9.99963e-01,1.05155e-08,9.99999e-01
4.020000000e-01,1.51206e-08,9.99999e-01,9.99999e-01,9.99977e-01,1.51210e-08,9.99999e-01
4.040100000e-01,2.15798e-08,9.99999e-01,9.99999e-01,9.99990e-01,2.15800e-08,9.99999e-01
4.060300500e-01,3.05825e-08,9.99999e-01,9.99999e-01,9.99997e-01,3.05826e-08,9.99999e-01
4.080602003e-01,4.30431e-08,9.99999e-01,9.99999e-01,9.99998e-01,4.30432e-08,9.99999e-01
4.101005013e-01,6.01732e-08,9.99999e-01,9.99999e-01,9.99999e-01,6.01732e-08,9.99999e-01
4.121510038e-01,8.35655e-08,9.99999e-01,9.99999e-01,9.99998e-01,8.35656e-08,9.99999e-01
4.142117588e-01,1.15300e-07,9.99999e-01,9.99999e-01,9.99989e-01,1.15302e-07,9.99999e-01
4.162828176e-01,1.58074e-07,9.99999e-01,9.99999e-01,9.99954e-01,1.58081e-07,9.99999e-01
4.183642317e-01,2.15382e-07,9.99999e-01,9.99999e-01,9.99973e-01,2.15387e-07,9.99999e-01
4.204560528e-01,2.91674e-07,9.99999e-01,9.99999e-01,9.99983e-01,2.91679e-07,9.99999e-01
4.225583331e-01,3.92633e-07,9.99999e-01,9.99999e-01,9.99993e-01,3.92636e-07,9.99999e-01
4.246711247e-01,5.25439e-07,9.99999e-01,9.99999e-01,9.99994e-01,5.25441e-07,9.99999e-01
4.267944804e-01,6.99127e-07,9.99999e-01,9.99999e-01,9.99992e-01,6.99132e-07,9.99999e-01
4.289284528e-01,9.25001e-07,9.99999e-01,9.99999e-01,9.99994e-01,9.25006e-07,9.99999e-01
4.310730950e-01,1.21710e-06,9.99999e-01,9.99999e-01,9.99997e-01,1.21711e-06,9.99999e-01
4.332284605e-01,1.59279e-06,9.99999e-01,9.99999e-01,9.99998e-01,1.59279e-06,9.99999e-01
4.353946028e-01,2.07338e-06,9.99999e-01,9.99999e-01,9.99999e-01,2.07338e-06,9.99999e-01
4.375715758e-01,2.68496e-06,9.99999e-01,9.99999e-01,9.99995e-01,2.68497e-06,9.99999e-01
4.397594337e-01,3.45911e-06,9.99999e-01,9.99999e-01,9.99960e-01,3.45925e-06,9.99999e-01
4.419582309e-01,4.43368e-06,9.99999e-01,9.99999e-01,9.99801e-01,4.43455e-06,9.99999e-01
4.441680220e-01,5.65615e-06,9.99999e-01,9.99999e-01,9.99844e-01,5.65702e-06,9.99999e-01
4.463888621e-01,7.18071e-06,9.99999e-01,9.99999e-01,9.99838e-01,7.18187e-06,9.99999e-01
4.486208064e-01,9.07394e-06,9.99999e-01,9.99999e-01,9.99899e-01,9.07485e-06,9.99999e-01
4.508639105e-01,1.14134e-05,9.99999e-01,9.99999e-01,9.99952e-01,1.14139e-05,9.99999e-01
4.531182300e-01,1.42907e-05,9.99999e-01,9.99999e-01,9.99980e-01,1.42910e-05,9.99999e-01
4.553838212e-01,1.78138e-05,9.99999e-01,9.99999e-01,9.99986e-01,1.78140e-05,9.99999e-01
4.576607403e-01,2.21090e-05,9.99999e-01,9.99999e-01,9.99993e-01,2.21091e-05,9.99999e-01
4.599490440e-01,2.73228e-05,9.99999e-01,9.99999e-01,9.99995e-01,2.73229e-05,9.99999e-01
4.622487892e-01,3.36254e-05,9.99999e-01,9.99999e-01,9.99998e-01,3.36254e-05,9.99999e-01
4.645600332e-01,4.12122e-05,9.99999e-01,9.99999e-01,9.99996e-01,4.12123e-05,9.99999e-01
4.668828333e-01,5.03061e-05,9.99999e-01,9.99999e-01,9.99952e-01,5.03084e-05,9.99999e-01
4.692172475e-01,6.11646e-05,9.99999e-01,9.99999e-01,9.99898e-01,6.11708e-05,9.99999e-01
4.715633337e-01,7.40869e-05,9.99999e-01,9.99999e-01,9.99933e-01,7.40918e-05,9.99999e-01
4.739211504e-01,8.93974e-05,9.99999e-01,9.99999e-01,9.99936e-01,8.94031e-05,9.99999e-01
4.762907561e-01,1.07475e-04,9.99999e-01,9.99999e-01,9.99966e-01,1.07479e-04,9.99999e-01
4.786722099e-01,1.28739e-04,9.99999e-01,9.99999e-01,9.99986e-01,1.28740e-04,9.99999e-01
4.810655710e-01,1.53658e-04,9.99999e-01,9.99999e-01,9.99995e-01,1.53659e-04,9.99999e-01
4.834708988e-01,1.82753e-04,9.99999e-01,9.99999e-01,9.99960e-01,1.82760e-04,9.99999e-01
4.858882533e-01,2.16615e-04,9.99999e-01,9.99999e-01,9.99927e-01,2.16630e-04,9.99999e-01
4.883176946e-01,2.55901e-04,9.99999e-01,9.99999e-01,9.99939e-01,2.55916e-04,9.99999e-01
4.907592831e-01,3.01317e-04,9.99999e-01,9.99999e-01,9.99945e-01,3.01333e-04,9.99999e-01
4.932130795e-01,3.53653e-04,9.99999e-01,9.99999e-01,9.99961e-01,3.53667e-04,9.99999e-01
4.956791449e-01,4.13770e-04,9.99999e-01,9.99999e-01,9.99979e-01,4.13779e-04,9.99999e-01
4.981575406e-01,4.82560e-04,9.99999e-01,9.99999e-01,9.99897e-01,4.82609e-04,9.99999e-01
5.006483283e-01,5.61033e-04,9.99999e-01,9.99999e-01,9.99736e-01,5.61181e-04,9.99999e-01
5.031515699e-01,6.49734e-04,9.99999e-01,9.99999e-01,9.98663e-01,6.50603e-04,9.99999e-01
5.056673278e-01,7.51544e-04,9.99999e-01,9.99999e-01,9.99294e-01,7.52074e-04,9.99999e-01
5.081956644e-01,8.66115e-04,9.99999e-01,9.99999e-01,9.99109e-01,8.66887e-04,9.99999e-01
5.107366428e-01,9.95827e-04,9.99999e-01,9.99999e-01,9.99398e-01,9.96426e-04,9.99999e-01
5.132903260e-01,1.14178e-03,9.99999e-01,9.99999e-01,9.99655e-01,1.14218e-03,9.99999e-01
5.158567776e-01,1.30553e-03,9.99999e-01,9.99999e-01,9.99854e-01,1.30572e-03,9.99999e-01
5.184360615e-01,1.48866e-03,9.99999e-01,9.99999e-01,9.99941e-01,1.48874e-03,9.99999e-01
5.210282418e-01,1.69299e-03,9.99999e-01,9.99999e-01,9.99977e-01,1.69302e-03,9.99999e-01
5.236333830e-01,1.92029e-03,9.99999e-01,9.99999e-01,9.99912e-01,1.92045e-03,9.99999e-01
5.262515499e-01,2.17290e-03,9.99999e-01,9.99999e-01,9.99945e-01,2.17302e-03,9.99999e-01
5.288828077e-01,2.45268e-03,9.99999e-01,9.99999e-01,9.99949e-01,2.45281e-03,9.99999e-01
5.315272217e-01,2.76188e-03,9.99999e-01,9.99999e-01,9.99955e-01,2.76200e-03,9.99999e-01
5.341848578e-01,3.10280e-03,9.99999e-01,9.99999e-01,9.99970e-01,3.10289e-03,9.99999e-01
5.368557821e-01,3.47749e-03,9.99999e-01,9.99999e-01,9.99898e-01,3.47784e-03,9.99999e-01
5.395400610e-01,3.88791e-03,9.99999e-01,9.99999e-01,9.99634e-01,3.88933e-03,9.99999e-01
5.422377613e-01,4.33786e-03,9.99999e-01,9.99999e-01,9.99526e-01,4.33991e-03,9.99999e-01
5.449489501e-01,4.83009e-03,9.99999e-01,9.99999e-01,9.99559e-01,4.83222e-03,9.99999e-01
5.476736949e-01,5.36687e-03,9.99999e-01,9.99999e-01,9.99609e-01,5.36896e-03,9.99999e-01
5.504120634e-01,5.95124e-03,9.99999e-01,9.99999e-01,9.99716e-01,5.95293e-03,9.99999e-01
5.531641237e-01,6.58602e-03,9.99999e-01,9.99999e-01,9.99857e-01,6.58696e-03,9.99999e-01
5.559299443e-01,7.27347e-03,9.99999e-01,9.99999e-01,9.99930e-01,7.27397e-03,9.99999e-01
5.587095940e-01,8.01656e-03,9.99999e-01,9.99999e-01,9.99956e-01,8.01691e-03,9.99999e-01
5.615031420e-01,8.81835e-03,9.99999e-01,9.99999e-01,9.99951e-01,8.81877e-03,9.99999e-01
5.643106577e-01,9.68206e-03,9.99999e-01,9.99999e-01,9.99945e-01,9.68258e-03,9.99999e-01
5.671322110e-01,1.06044e-02,9.99999e-01,9.99999e-01,9.99340e-01,1.06114e-02,9.99999e-01
5.699678720e-01,1.16001e-02,9.99999e-01,9.99999e-01,9.99295e-01,1.16083e-02,9.99999e-01
5.728177114e-01,1.26671e-02,9.99999e-01,9.99999e-01,9.99267e-01,1.26764e-02,9.99999e-01
5.756818000e-01,1.38093e-02,9.99999e-01,9.99999e-01,9.99327e-01,1.38186e-02,9.99999e-01
5.785602090e-01,1.50294e-02,9.99999e-01,9.99999e-01,9.99413e-01,1.50382e-02,9.99999e-01
5.814530100e-01,1.63284e-02,9.99999e-01,9.99999e-01,9.99411e-01,1.63380e-02,9.99999e-01
5.843602750e-01,1.77088e-02,9.99999e-01,9.99999e-01,9.99299e-01,1.77212e-02,9.99999e-01
5.872820764e-01,1.90751e-02,9.99999e-01,9.99999e-01,9.93976e-01,1.91907e-02,9.99999e-01
5.902184868e-01,2.05977e-02,9.99999e-01,9.99999e-01,9.92691e-01,2.07493e-02,9.99999e-01
5.931695792e-01,2.22843e-02,9.99999e-01,9.99999e-01,9.94836e-01,2.23999e-02,9.99999e-01
5.961354271e-01,2.40087e-02,9.99999e-01,9.99999e-01,9.94338e-01,2.41454e-02,9.99999e-01
5.991161043e-01,2.58808e-02,9.99999e-01,9.99999e-01,9.95867e-01,2.59882e-02,9.99999e-01
6.021116848e-01,2.78656e-02,9.99999e-01,9.99999e-01,9.97652e-01,2.79312e-02,9.99999e-01
6.051222432e-01,2.99410e-02,9.99999e-01,9.99999e-01,9.98811e-01,2.99766e-02,9.99999e-01
6.081478544e-01,3.21105e-02,9.99999e-01,9.99999e-01,9.99487e-01,3.21270e-02,9.99999e-01
6.111885937e-01,3.43770e-02,9.99999e-01,9.99999e-01,9.99782e-01,3.43845e-02,9.99999e-01
6.142445367e-01,3.67478e-02,9.99999e-01,9.99999e-01,9.99902e-01,3.67513e-02,9.99999e-01
6.173157594e-01,3.92274e-02,9.99999e-01,9.99999e-01,9.99946e-01,3.92295e-02,9.99999e-01
6.204023382e-01,4.18189e-02,9.99999e-01,9.99999e-01,9.99954e-01,4.18208e-02,9.99999e-01
6.235043498e-01,4.45181e-02,9.99999e-01,9.99999e-01,9.99801e-01,4.45270e-02,9.99999e-01
6.266218716e-01,4.72997e-02,9.99999e-01,9.99999e-01,9.98946e-01,4.73496e-02,9.99999e-01
6.297549810e-01,5.02706e-02,9.99999e-01,9.99999e-01,9.99613e-01,5.02900e-02,9.99999e-01
6.329037559e-01,5.33088e-02,9.99999e-01,9.99999e-01,9.99235e-01,5.33496e-02,9.99999e-01
6.360682746e-01,5.64925e-02,9.99999e-01,9.99999e-01,9.99349e-01,5.65292e-02,9.99999e-01
6.392486160e-01,5.97796e-02,9.99999e-01,9.99999e-01,9.99157e-01,5.98300e-02,9.99999e-01
6.424448591e-01,6.31813e-02,9.99999e-01,9.99999e-01,9.98873e-01,6.32525e-02,9.99999e-01
6.456570834e-01,6.64487e-02,9.99999e-01,9.99999e-01,9.94779e-01,6.67974e-02,9.99999e-01
6.488853688e-01,7.01951e-02,9.99999e-01,9.99999e-01,9.96169e-01,7.04650e-02,9.99999e-01
6.521297956e-01,7.39656e-02,9.99999e-01,9.99999e-01,9.96095e-01,7.42555e-02,9.99999e-01
6.553904446e-01,7.78654e-02,9.99999e-01,9.99999e-01,9.96115e-01,7.81690e-02,9.99999e-01
6.586673968e-01,8.19317e-02,9.99999e-01,9.99999e-01,9.96670e-01,8.22053e-02,9.99999e-01
6.619607338e-01,8.61978e-02,9.99999e-01,9.99999e-01,9.98074e-01,8.63641e-02,9.99999e-01
6.652705375e-01,9.05438e-02,9.99999e-01,9.99999e-01,9.98884e-01,9.06449e-02,9.99999e-01
6.685968902e-01,9.49978e-02,9.99999e-01,9.99999e-01,9.99481e-01,9.50470e-02,9.99999e-01
6.719398746e-01,9.95457e-02,9.99999e-01,9.99999e-01,9.99759e-01,9.95696e-02,9.99999e-01
6.752995740e-01,1.04198e-01,9.99999e-01,9.99999e-01,9.99869e-01,1.04212e-01,9.99999e-01
6.786760719e-01,1.08952e-01,9.99999e-01,9.99999e-01,9.99812e-01,1.08972e-01,9.99999e-01
6.820694522e-01,1.13813e-01,9.99999e-01,9.99999e-01,9.99678e-01,1.13849e-01,9.99999e-01
6.854797995e-01,1.18793e-01,9.99999e-01,9.99999e-01,9.99585e-01,1.18842e-01,9.99999e-01
6.889071985e-01,1.23825e-01,9.99999e-01,9.99999e-01,9.98999e-01,1.23949e-01,9.99999e-01
6.923517345e-01,1.27068e-01,9.99999e-01,9.99999e-01,9.83744e-01,1.29167e-01,9.99999e-01
6.958134932e-01,1.33352e-01,9.99999e-01,9.99999e-01,9.91491e-01,1.34496e-01,9.99999e-01
6.992925606e-01,1.38805e-01,9.99999e-01,9.99999e-01,9.91937e-01,1.39933e-01,9.99999e-01
7.027890234e-01,1.44026e-01,9.99999e-01,9.99999e-01,9.90039e-01,1.45475e-01,9.99999e-01
7.063029686e-01,1.49855e-01,9.99999e-01,9.99999e-01,9.91620e-01,1.51122e-01,9.99999e-01
7.098344834e-01,1.55607e-01,9.99999e-01,9.99999e-01,9.91958e-01,1.56869e-01,9.99999e-01
7.133836558e-01,1.60977e-01,9.99999e-01,9.99999e-01,9.89319e-01,1.62715e-01,9.99999e-01
7.169505741e-01,1.54717e-01,9.99999e-01,9.99999e-01,9.17350e-01,1.68657e-01,9.99998e-01
7.205353270e-01,1.67446e-01,9.99999e-01,9.99999e-01,9.58522e-01,1.74692e-01,9.99998e-01
7.241380036e-01,1.71361e-01,9.99999e-01,9.99999e-01,9.47703e-01,1.80817e-01,9.99998e-01
7.277586936e-01,1.78180e-01,9.99999e-01,9.99999e-01,9.52683e-01,1.87030e-01,9.99998e-01
7.313974871e-01,1.83596e-01,9.99999e-01,9.99999e-01,9.49665e-01,1.93327e-01,9.99998e-01
7.350544745e-01,1.94151e-01,9.99999e-01,9.99999e-01,9.72188e-01,1.99705e-01,9.99999e-01
7.387297469e-01,2.01926e-01,9.99999e-01,9.99999e-01,9.79451e-01,2.06162e-01,9.99999e-01
7.424233956e-01,2.10544e-01,9.99999e-01,9.99999e-01,9.89891e-01,2.12694e-01,9.99999e-01
7.461355126e-01,2.17952e-01,9.99999e-01,9.99999e-01,9.93863e-01,2.19297e-01,9.99999e-01
7.498661902e-01,2.25322e-01,9.99999e-01,9.99999e-01,9.97137e-01,2.25969e-01,9.99999e-01
7.536155211e-01,2.32380e-01,9.99999e-01,9.99999e-01,9.98595e-01,2.32706e-01,9.99999e-01
7.573835987e-01,2.39332e-01,9.99999e-01,9.99999e-01,9.99276e-01,2.39505e-01,9.99999e-01
7.611705167e-01,2.46252e-01,9.99999e-01,9.99999e-01,9.99550e-01,2.46363e-01,9.99999e-01
7.649763693e-01,2.53204e-01,9.99999e-01,9.99999e-01,9.99718e-01,2.53276e-01,9.99999e-01
7.688012511e-01,2.60189e-01,9.99999e-01,9.99999e-01,9.99803e-01,2.60240e-01,9.99999e-01
7.726452574e-01,2.67209e-01,9.99999e-01,9.99999e-01,9.99838e-01,2.67252e-01,9.99999e-01
7.765084837e-01,2.74247e-01,9.99999e-01,9.99999e-01,9.99770e-01,2.74310e-01,9.99999e-01
7.803910261e-01,2.65693e-01,9.99999e-01,9.45040e-01,9.99011e-01,2.81409e-01,9.99999e-01
7.842929812e-01,2.21300e-01,9.99999e-01,7.69395e-01,9.96552e-01,2.88546e-01,9.99999e-01
7.882144461e-01,2.22238e-01,9.99999e-01,7.56548e-01,9.92899e-01,2.95717e-01,9.99999e-01
7.921555184e-01,2.55579e-01,9.99999e-01,8.46890e-01,9.96098e-01,3.02920e-01,9.99999e-01
7.961162960e-01,2.75454e-01,9.99999e-01,8.94178e-01,9.93125e-01,3.10151e-01,9.99999e-01
8.000968774e-01,2.96367e-01,9.99999e-01,9.41157e-01,9.92053e-01,3.17406e-01,9.99999e-01
8.040973618e-01,3.12138e-01,9.99999e-01,9.69036e-01,9.92053e-01,3.24683e-01,9.99999e-01
8.081178486e-01,3.21409e-01,9.99999e-01,9.85670e-01,9.82194e-01,3.31978e-01,9.99999e-01
8.121584379e-01,3.13446e-01,9.99999e-01,9.95548e-01,9.27893e-01,3.39288e-01,9.99998e-01
8.162192301e-01,3.16809e-01,9.99999e-01,9.99015e-01,9.14894e-01,3.46610e-01,9.99998e-01
8.203003262e-01,3.38720e-01,9.99999e-01,9.99984e-01,9.57007e-01,3.53941e-01,9.99998e-01
8.244018279e-01,3.39716e-01,9.99999e-01,9.99999e-01,9.40321e-01,3.61277e-01,9.99998e-01
8.285238370e-01,3.49562e-01,9.99999e-01,9.99999e-01,9.48309e-01,3.68616e-01,9.99998e-01
8.326664562e-01,3.56310e-01,9.99999e-01,9.99999e-01,9.47747e-01,3.75955e-01,9.99998e-01
8.368297885e-01,3.68856e-01,9.99999e-01,9.99999e-01,9.62341e-01,3.83290e-01,9.99999e-01
8.410139374e-01,3.81811e-01,9.99999e-01,9.99999e-01,9.77449e-01,3.90620e-01,9.99999e-01
8.452190071e-01,3.93514e-01,9.99999e-01,9.99999e-01,9.88876e-01,3.97940e-01,9.99999e-01
8.494451021e-01,4.02630e-01,9.99999e-01,9.99999e-01,9.93536e-01,4.05249e-01,9.99999e-01
8.536923276e-01,4.10965e-01,9.99999e-01,9.99999e-01,9.96171e-01,4.12545e-01,9.99999e-01
8.579607893e-01,4.18833e-01,9.99999e-01,9.99999e-01,9.97642e-01,4.19823e-01,9.99999e-01
8.622505932e-01,4.26442e-01,9.99999e-01,9.99999e-01,9.98500e-01,4.27082e-01,9.99999e-01
8.665618462e-01,3.90039e-01,9.99999e-01,8.98834e-01,9.99073e-01,4.34320e-01,9.99999e-01
8.708946554e-01,2.29049e-01,9.99999e-01,5.19278e-01,9.98939e-01,4.41534e-01,9.99999e-01
8.752491287e-01,2.62209e-01,9.99999e-01,5.85138e-01,9.98580e-01,4.48722e-01,9.99999e-01
8.796253743e-01,3.37772e-01,9.99999e-01,7.42307e-01,9.98036e-01,4.55881e-01,9.99999e-01
8.840235012e-01,3.95415e-01,9.99999e-01,8.55881e-01,9.97756e-01,4.63009e-01,9.99999e-01
8.884436187e-01,4.38524e-01,9.99999e-01,9.40341e-01,9.91866e-01,4.70105e-01,9.99999e-01
8.928858368e-01,4.27198e-01,9.99999e-01,9.75380e-01,9.17532e-01,4.77167e-01,9.99998e-01
8.973502660e-01,4.13366e-01,9.99999e-01,9.93960e-01,8.58729e-01,4.84191e-01,9.99997e-01
9.018370173e-01,4.54117e-01,9.99999e-01,9.99332e-01,9.25133e-01,4.91178e-01,9.99997e-01
9.063462024e-01,4.57798e-01,9.99999e-01,9.83186e-01,9.33904e-01,4.98124e-01,9.99997e-01
9.108779334e-01,4.36786e-01,9.99999e-01,9.61474e-01,8.98786e-01,5.05029e-01,9.99996e-01
9.154323231e-01,4.49359e-01,9.99999e-01,9.90808e-01,8.85688e-01,5.11889e-01,9.99996e-01
9.200094847e-01,4.18739e-01,9.99999e-01,8.80595e-01,9.09360e-01,5.18705e-01,9.99995e-01
9.246095321e-01,3.76749e-01,9.99999e-01,8.25448e-01,8.63884e-01,5.25475e-01,9.99992e-01
9.292325798e-01,1.79824e-01,9.99999e-01,8.61506e-01,3.83167e-01,5.32196e-01,9.99985e-01
9.338787427e-01,1.38637e-01,9.99999e-01,8.65050e-01,2.90840e-01,5.38868e-01,9.99981e-01
9.385481364e-01,2.99979e-01,9.99999e-01,8.98647e-01,6.06006e-01,5.45489e-01,9.99980e-01
9.432408771e-01,2.62675e-01,9.99999e-01,9.36524e-01,5.05226e-01,5.52059e-01,9.99978e-01
9.479570815e-01,2.12549e-01,9.99999e-01,9.66916e-01,3.92457e-01,5.58575e-01,9.99981e-01
9.526968669e-01,2.72610e-01,9.99999e-01,9.83912e-01,4.89308e-01,5.65038e-01,9.99985e-01
9.574603512e-01,2.90197e-01,9.99999e-01,9.93087e-01,5.10982e-01,5.71445e-01,9.99989e-01
9.622476530e-01,3.32440e-01,9.99999e-01,9.97838e-01,5.76483e-01,5.77796e-01,9.99992e-01
9.670588912e-01,4.24469e-01,9.99999e-01,9.99351e-01,7.27150e-01,5.84091e-01,9.99995e-01
9.718941857e-01,4.82799e-01,9.99999e-01,9.99953e-01,8.17884e-01,5.90327e-01,9.99996e-01
9.767536566e-01,5.04777e-01,9.99999e-01,9.99999e-01,8.46225e-01,5.96505e-01,9.99997e-01
9.816374249e-01,5.32351e-01,9.99999e-01,9.99999e-01,8.83389e-01,6.02624e-01,9.99998e-01
9.865456120e-01,5.63267e-01,9.99999e-01,9.99999e-01,9.25386e-01,6.08683e-01,9.99998e-01
9.914783401e-01,5.85899e-01,9.99999e-01,9.99999e-01,9.53174e-01,6.14681e-01,9.99999e-01
9.964357318e-01,6.04620e-01,9.99999e-01,9.99999e-01,9.74222e-01,6.20618e-01,9.99999e-01
1.001417910e+00,6.16764e-01,9.99999e-01,9.99999e-01,9.84469e-01,6.26494e-01,9.99999e-01
1.006425000e+00,6.26693e-01,9.99999e-01,9.99999e-01,9.91120e-01,6.32307e-01,9.99999e-01
1.011457125e+00,6.34536e-01,9.99999e-01,9.99999e-01,9.94478e-01,6.38058e-01,9.99999e-01
1.016514411e+00,6.41332e-01,9.99999e-01,9.99999e-01,9.96249e-01,6.43747e-01,9.99999e-01
1.021596983e+00,6.47374e-01,9.99999e-01,9.99910e-01,9.97010e-01,6.49372e-01,9.99999e-01
1.026704968e+00,6.49089e-01,9.99999e-01,9.93387e-01,9.97668e-01,6.54933e-01,9.99999e-01
1.031838492e+00,6.16739e-01,9.99999e-01,9.35363e-01,9.98304e-01,6.60431e-01,9.99999e-01
1.036997685e+00,6.01542e-02,9.99999e-01,9.04098e-02,9.98992e-01,6.65865e-01,9.99999e-01
1.042182673e+00,1.94484e-02,9.99999e-01,2.90030e-02,9.98799e-01,6.71236e-01,9.99999e-01
1.047393587e+00,3.30983e-02,9.99999e-01,4.89898e-02,9.98408e-01,6.76542e-01,9.99999e-01
1.052630555e+00,1.05273e-04,9.99999e-01,1.54637e-04,9.97816e-01,6.81784e-01,9.99999e-01
1.057893707e+00,3.49233e-04,9.99999e-01,5.09469e-04,9.96358e-01,6.86962e-01,9.99999e-01
1.063183176e+00,2.43143e-03,9.99999e-01,3.52682e-03,9.94012e-01,6.92076e-01,9.99999e-01
1.068499092e+00,1.17163e-02,9.99999e-01,1.69361e-02,9.89990e-01,6.97125e-01,9.99999e-01
1.073841587e+00,5.19016e-02,9.99999e-01,7.46138e-02,9.88302e-01,7.02111e-01,9.99999e-01
1.079210795e+00,1.35125e-01,9.99999e-01,1.93602e-01,9.85022e-01,7.07033e-01,9.99999e-01
1.084606849e+00,2.79054e-01,9.99999e-01,4.00344e-01,9.77422e-01,7.11891e-01,9.99998e-01
1.090029883e+00,4.31114e-01,9.99999e-01,6.20614e-01,9.67768e-01,7.16686e-01,9.99998e-01
1.095480033e+00,5.22253e-01,9.99999e-01,7.90207e-01,9.14585e-01,7.21417e-01,9.99997e-01
1.100957433e+00,5.18008e-01,9.99999e-01,8.92558e-01,7.97664e-01,7.26085e-01,9.99995e-01
1.106462220e+00,3.96957e-01,9.99999e-01,9.54049e-01,5.67842e-01,7.30690e-01,9.99991e-01
1.111994531e+00,2.23288e-01,9.99999e-01,9.82708e-01,3.08427e-01,7.35233e-01,9.99982e-01
1.117554504e+00,1.12979e-01,9.99999e-01,9.95749e-01,1.53204e-01,7.39713e-01,9.99975e-01
1.123142276e+00,1.96503e-01,9.99999e-01,9.99719e-01,2.64099e-01,7.44132e-01,9.99971e-01
1.128757988e+00,3.09166e-01,9.99999e-01,9.99999e-01,4.13066e-01,7.48488e-01,9.99968e-01
1.134401778e+00,1.49877e-01,9.99999e-01,9.99999e-01,1.99104e-01,7.52784e-01,9.99964e-01
1.140073787e+00,4.41422e-01,9.99999e-01,9.99999e-01,5.83121e-01,7.57018e-01,9.99971e-01
1.145774156e+00,2.54676e-01,9.99999e-01,9.99999e-01,3.34583e-01,7.61192e-01,9.99975e-01
1.151503026e+00,2.28313e-01,9.99999e-01,9.99999e-01,2.98335e-01,7.65306e-01,9.99979e-01
1.157260541e+00,2.70727e-01,9.99999e-01,9.99999e-01,3.51891e-01,7.69360e-01,9.99984e-01
1.163046844e+00,3.55772e-01,9.99999e-01,9.99999e-01,4.60041e-01,7.73355e-01,9.99989e-01
1.168862078e+00,4.50096e-01,9.99999e-01,9.99999e-01,5.79060e-01,7.77291e-01,9.99994e-01
1.174706389e+00,5.57419e-01,9.99999e-01,9.99999e-01,7.13572e-01,7.81168e-01,9.99997e-01
1.180579921e+00,6.38864e-01,9.99999e-01,9.99999e-01,8.13852e-01,7.84988e-01,9.99997e-01
1.186482820e+00,7.01890e-01,9.99999e-01,9.99988e-01,8.89885e-01,7.88751e-01,9.99998e-01
1.192415234e+00,7.23491e-01,9.99999e-01,9.76890e-01,9.34139e-01,7.92457e-01,9.99998e-01
1.198377311e+00,4.13051e-01,9.99999e-01,5.44289e-01,9.44224e-01,7.96106e-01,9.99998e-01
1.204369197e+00,3.42352e-18,9.99999e-01,4.41746e-18,9.47189e-01,7.99700e-01,9.99998e-01
1.210391043e+00,1.07442e-70,9.99999e-01,1.37675e-70,9.49404e-01,8.03239e-01,9.99998e-01
1.216442998e+00,2.63070e-61,9.99999e-01,3.35133e-61,9.56781e-01,8.06722e-01,9.99999e-01
1.222525213e+00,2.13934e-60,9.99999e-01,2.68784e-60,9.66178e-01,8.10152e-01,9.99999e-01
1.228637839e+00,9.94044e-47,9.99999e-01,1.24188e-46,9.76393e-01,8.13528e-01,9.99999e-01
