#,Wave/freq,Total,O2,CO2,H2O,Rayleigh,CIA
4.000000000e-01,4.67952e-03,9.99999e-01,9.99999e-01,9.99988e-01,4.67956e-03,9.99999e-01
4.020000000e-01,5.20320e-03,9.99999e-01,9.99999e-01,9.99992e-01,5.20323e-03,9.99999e-01
4.040100000e-01,5.77273e-03,9.99999e-01,9.99999e-01,9.99996e-01,5.77274e-03,9.99999e-01
4.060300500e-01,6.39146e-03,9.99999e-01,9.99999e-01,9.99998e-01,6.39147e-03,9.99999e-01
4.080602003e-01,7.06229e-03,9.99999e-01,9.99999e-01,9.99999e-01,7.06229e-03,9.99999e-01
4.101005013e-01,7.78815e-03,9.99999e-01,9.99999e-01,9.99999e-01,7.78815e-03,9.99999e-01
4.121510038e-01,8.57202e-03,9.99999e-01,9.99999e-01,9.99999e-01,8.57203e-03,9.99999e-01
4.142117588e-01,9.41692e-03,9.99999e-01,9.99999e-01,9.99996e-01,9.41695e-03,9.99999e-01
4.162828176e-01,1.03258e-02,9.99999e-01,9.99999e-01,9.99986e-01,1.03260e-02,9.99999e-01
4.183642317e-01,1.13020e-02,9.99999e-01,9.99999e-01,9.99991e-01,1.13021e-02,9.99999e-01
4.204560528e-01,1.23485e-02,9.99999e-01,9.99999e-01,9.99994e-01,1.23485e-02,9.99999e-01
4.225583331e-01,1.34682e-02,9.99999e-01,9.99999e-01,9.99997e-01,1.34682e-02,9.99999e-01
4.246711247e-01,1.46643e-02,9.99999e-01,9.99999e-01,9.99998e-01,1.46643e-02,9.99999e-01
4.267944804e-01,1.59397e-02,9.99999e-01,9.99999e-01,9.99997e-01,1.59398e-02,9.99999e-01
4.289284528e-01,1.72976e-02,9.99999e-01,9.99999e-01,9.99997e-01,1.72977e-02,9.99999e-01
4.310730950e-01,1.87409e-02,9.99999e-01,9.99999e-01,9.99998e-01,1.87410e-02,9.99999e-01
4.332284605e-01,2.02725e-02,9.99999e-01,9.99999e-01,9.99999e-01,2.02725e-02,9.99999e-01
4.353946028e-01,2.18953e-02,9.99999e-01,9.99999e-01,9.99999e-01,2.18953e-02,9.99999e-01
4.375715758e-01,2.36120e-02,9.99999e-01,9.99999e-01,9.99998e-01,2.36120e-02,9.99999e-01
4.397594337e-01,2.54251e-02,9.99999e-01,9.99999e-01,9.99988e-01,2.54254e-02,9.99999e-01
4.419582309e-01,2.73365e-02,9.99999e-01,9.99999e-01,9.99942e-01,2.73381e-02,9.99999e-01
4.441680220e-01,2.93512e-02,9.99999e-01,9.99999e-01,9.99953e-01,2.93525e-02,9.99999e-01
4.463888621e-01,3.14697e-02,9.99999e-01,9.99999e-01,9.99952e-01,3.14712e-02,9.99999e-01
4.486208064e-01,3.36954e-02,9.99999e-01,9.99999e-01,9.99970e-01,3.36964e-02,9.99999e-01
4.508639105e-01,3.60297e-02,9.99999e-01,9.99999e-01,9.99985e-01,3.60302e-02,9.99999e-01
4.531182300e-01,3.84746e-02,9.99999e-01,9.99999e-01,9.99994e-01,3.84748e-02,9.99999e-01
4.553838212e-01,4.10318e-02,9.99999e-01,9.99999e-01,9.99995e-01,4.10320e-02,9.99999e-01
4.576607403e-01,4.37035e-02,9.99999e-01,9.99999e-01,9.99997e-01,4.37036e-02,9.99999e-01
4.599490440e-01,4.64911e-02,9.99999e-01,9.99999e-01,9.99998e-01,4.64911e-02,9.99999e-01
4.622487892e-01,4.93961e-02,9.99999e-01,9.99999e-01,9.99999e-01,4.93961e-02,9.99999e-01
4.645600332e-01,5.24198e-02,9.99999e-01,9.99999e-01,9.99998e-01,5.24198e-02,9.99999e-01
4.668828333e-01,5.55626e-02,9.99999e-01,9.99999e-01,9.99985e-01,5.55634e-02,9.99999e-01
4.692172475e-01,5.88260e-02,9.99999e-01,9.99999e-01,9.99969e-01,5.88278e-02,9.99999e-01
4.715633337e-01,6.22125e-02,9.99999e-01,9.99999e-01,9.99980e-01,6.22137e-02,9.99999e-01
4.739211504e-01,6.57206e-02,9.99999e-01,9.99999e-01,9.99980e-01,6.57218e-02,9.99999e-01
4.762907561e-01,6.93520e-02,9.99999e-01,9.99999e-01,9.99989e-01,6.93526e-02,9.99999e-01
4.786722099e-01,7.31060e-02,9.99999e-01,9.99999e-01,9.99995e-01,7.31063e-02,9.99999e-01
4.810655710e-01,7.69829e-02,9.99999e-01,9.99999e-01,9.99998e-01,7.69829e-02,9.99999e-01
4.834708988e-01,8.09816e-02,9.99999e-01,9.99999e-01,9.99988e-01,8.09825e-02,9.99999e-01
4.858882533e-01,8.51028e-02,9.99999e-01,9.99999e-01,9.99978e-01,8.51046e-02,9.99999e-01
4.883176946e-01,8.93473e-02,9.99999e-01,9.99999e-01,9.99982e-01,8.93489e-02,9.99999e-01
4.907592831e-01,9.37132e-02,9.99999e-01,9.99999e-01,9.99983e-01,9.37147e-02,9.99999e-01
4.932130795e-01,9.82001e-02,9.99999e-01,9.99999e-01,9.99988e-01,9.82012e-02,9.99999e-01
4.956791449e-01,1.02807e-01,9.99999e-01,9.99999e-01,9.99993e-01,1.02808e-01,9.99999e-01
4.981575406e-01,1.07529e-01,9.99999e-01,9.99999e-01,9.99969e-01,1.07533e-01,9.99999e-01
5.006483283e-01,1.12366e-01,9.99999e-01,9.99999e-01,9.99923e-01,1.12375e-01,9.99999e-01
5.031515699e-01,1.17288e-01,9.99999e-01,9.99999e-01,9.99609e-01,1.17333e-01,9.99999e-01
5.056673278e-01,1.22381e-01,9.99999e-01,9.99999e-01,9.99793e-01,1.22406e-01,9.99999e-01
5.081956644e-01,1.27558e-01,9.99999e-01,9.99999e-01,9.99739e-01,1.27591e-01,9.99999e-01
5.107366428e-01,1.32864e-01,9.99999e-01,9.99999e-01,9.99823e-01,1.32887e-01,9.99999e-01
5.132903260e-01,1.38278e-01,9.99999e-01,9.99999e-01,9.99898e-01,1.38292e-01,9.99999e-01
5.158567776e-01,1.43797e-01,9.99999e-01,9.99999e-01,9.99956e-01,1.43803e-01,9.99999e-01
5.184360615e-01,1.49416e-01,9.99999e-01,9.99999e-01,9.99982e-01,1.49418e-01,9.99999e-01
5.210282418e-01,1.55135e-01,9.99999e-01,9.99999e-01,9.99993e-01,1.55136e-01,9.99999e-01
5.236333830e-01,1.60948e-01,9.99999e-01,9.99999e-01,9.99974e-01,1.60952e-01,9.99999e-01
5.262515499e-01,1.66863e-01,9.99999e-01,9.99999e-01,9.99983e-01,1.66865e-01,9.99999e-01
5.288828077e-01,1.72870e-01,9.99999e-01,9.99999e-01,9.99984e-01,1.72873e-01,9.99999e-01
5.315272217e-01,1.78969e-01,9.99999e-01,9.99999e-01,9.99986e-01,1.78971e-01,9.99999e-01
5.341848578e-01,1.85157e-01,9.99999e-01,9.99999e-01,9.99991e-01,1.85158e-01,9.99999e-01
5.368557821e-01,1.91425e-01,9.99999e-01,9.99999e-01,9.99970e-01,1.91430e-01,9.99999e-01
5.395400610e-01,1.97764e-01,9.99999e-01,9.99999e-01,9.99893e-01,1.97785e-01,9.99999e-01
5.422377613e-01,2.04190e-01,9.99999e-01,9.99999e-01,9.99860e-01,2.04218e-01,9.99999e-01
5.449489501e-01,2.10701e-01,9.99999e-01,9.99999e-01,9.99871e-01,2.10728e-01,9.99999e-01
5.476736949e-01,2.17285e-01,9.99999e-01,9.99999e-01,9.99885e-01,2.17310e-01,9.99999e-01
5.504120634e-01,2.23943e-01,9.99999e-01,9.99999e-01,9.99916e-01,2.23962e-01,9.99999e-01
5.531641237e-01,2.30670e-01,9.99999e-01,9.99999e-01,9.99957e-01,2.30680e-01,9.99999e-01
5.559299443e-01,2.37456e-01,9.99999e-01,9.99999e-01,9.99979e-01,2.37461e-01,9.99999e-01
5.587095940e-01,2.44298e-01,9.99999e-01,9.99999e-01,9.99986e-01,2.44301e-01,9.99999e-01
5.615031420e-01,2.51194e-01,9.99999e-01,9.99999e-01,9.99985e-01,2.51198e-01,9.99999e-01
5.643106577e-01,2.58143e-01,9.99999e-01,9.99999e-01,9.99983e-01,2.58147e-01,9.99999e-01
5.671322110e-01,2.65095e-01,9.99999e-01,9.99999e-01,9.99810e-01,2.65145e-01,9.99999e-01
5.699678720e-01,2.72133e-01,9.99999e-01,9.99999e-01,9.99792e-01,2.72190e-01,9.99999e-01
5.728177114e-01,2.79217e-01,9.99999e-01,9.99999e-01,9.99786e-01,2.79276e-01,9.99999e-01
5.756818000e-01,2.86346e-01,9.99999e-01,9.99999e-01,9.99803e-01,2.86402e-01,9.99999e-01
5.785602090e-01,2.93514e-01,9.99999e-01,9.99999e-01,9.99828e-01,2.93564e-01,9.99999e-01
5.814530100e-01,3.00706e-01,9.99999e-01,9.99999e-01,9.99827e-01,3.00758e-01,9.99999e-01
5.843602750e-01,3.07918e-01,9.99999e-01,9.99999e-01,9.99796e-01,3.07980e-01,9.99999e-01
5.872820764e-01,3.14676e-01,9.99999e-01,9.99999e-01,9.98245e-01,3.15229e-01,9.99999e-01
5.902184868e-01,3.21808e-01,9.99999e-01,9.99999e-01,9.97855e-01,3.22500e-01,9.99999e-01
5.931695792e-01,3.29292e-01,9.99999e-01,9.99999e-01,9.98489e-01,3.29790e-01,9.99999e-01
5.961354271e-01,3.36537e-01,9.99999e-01,9.99999e-01,9.98340e-01,3.37096e-01,9.99999e-01
5.991161043e-01,3.43997e-01,9.99999e-01,9.99999e-01,9.98788e-01,3.44414e-01,9.99999e-01
6.021116848e-01,3.51501e-01,9.99999e-01,9.99999e-01,9.99311e-01,3.51743e-01,9.99999e-01
6.051222432e-01,3.58952e-01,9.99999e-01,9.99999e-01,9.99651e-01,3.59078e-01,9.99999e-01
6.081478544e-01,3.66361e-01,9.99999e-01,9.99999e-01,9.99849e-01,3.66416e-01,9.99999e-01
6.111885937e-01,3.73731e-01,9.99999e-01,9.99999e-01,9.99935e-01,3.73755e-01,9.99999e-01
6.142445367e-01,3.81081e-01,9.99999e-01,9.99999e-01,9.99971e-01,3.81092e-01,9.99999e-01
6.173157594e-01,3.88417e-01,9.99999e-01,9.99999e-01,9.99983e-01,3.88423e-01,9.99999e-01
6.204023382e-01,3.95742e-01,9.99999e-01,9.99999e-01,9.99986e-01,3.95747e-01,9.99999e-01
6.235043498e-01,4.03037e-01,9.99999e-01,9.99999e-01,9.99942e-01,4.03060e-01,9.99999e-01
6.266218716e-01,4.10233e-01,9.99999e-01,9.99999e-01,9.99692e-01,4.10359e-01,9.99999e-01
6.297549810e-01,4.17596e-01,9.99999e-01,9.99999e-01,9.99886e-01,4.17643e-01,9.99999e-01
6.329037559e-01,4.24813e-01,9.99999e-01,9.99999e-01,9.99776e-01,4.24908e-01,9.99999e-01
6.360682746e-01,4.32071e-01,9.99999e-01,9.99999e-01,9.99810e-01,4.32153e-01,9.99999e-01
6.392486160e-01,4.39266e-01,9.99999e-01,9.99999e-01,9.99753e-01,4.39374e-01,9.99999e-01
6.424448591e-01,4.46438e-01,9.99999e-01,9.99999e-01,9.99704e-01,4.46570e-01,9.99999e-01
6.456570834e-01,4.53054e-01,9.99999e-01,9.99999e-01,9.98492e-01,4.53738e-01,9.99999e-01
6.488853688e-01,4.60268e-01,9.99999e-01,9.99999e-01,9.98681e-01,4.60876e-01,9.99999e-01
6.521297956e-01,4.67446e-01,9.99999e-01,9.99999e-01,9.98854e-01,4.67982e-01,9.99999e-01
6.553904446e-01,4.74517e-01,9.99999e-01,9.99999e-01,9.98870e-01,4.75054e-01,9.99999e-01
6.586673968e-01,4.81619e-01,9.99999e-01,9.99999e-01,9.99022e-01,4.82090e-01,9.99999e-01
6.619607338e-01,4.88812e-01,9.99999e-01,9.99999e-01,9.99435e-01,4.89088e-01,9.99999e-01
6.652705375e-01,4.95884e-01,9.99999e-01,9.99999e-01,9.99672e-01,4.96046e-01,9.99999e-01
6.685968902e-01,5.02887e-01,9.99999e-01,9.99999e-01,9.99847e-01,5.02963e-01,9.99999e-01
6.719398746e-01,5.09801e-01,9.99999e-01,9.99999e-01,9.99928e-01,5.09837e-01,9.99999e-01
6.752995740e-01,5.16647e-01,9.99999e-01,9.99999e-01,9.99961e-01,5.16667e-01,9.99999e-01
6.786760719e-01,5.23422e-01,9.99999e-01,9.99999e-01,9.99944e-01,5.23450e-01,9.99999e-01
6.820694522e-01,5.30136e-01,9.99999e-01,9.99999e-01,9.99905e-01,5.30186e-01,9.99999e-01
6.854797995e-01,5.36808e-01,9.99999e-01,9.99999e-01,9.99878e-01,5.36873e-01,9.99999e-01
6.889071985e-01,5.43353e-01,9.99999e-01,9.99999e-01,9.99711e-01,5.43510e-01,9.99999e-01
6.923517345e-01,5.47479e-01,9.99999e-01,9.99999e-01,9.95243e-01,5.50095e-01,9.99999e-01
6.958134932e-01,5.55222e-01,9.99999e-01,9.99999e-01,9.97475e-01,5.56627e-01,9.99999e-01
6.992925606e-01,5.61782e-01,9.99999e-01,9.99999e-01,9.97648e-01,5.63106e-01,9.99999e-01
7.027890234e-01,5.67864e-01,9.99999e-01,9.99999e-01,9.97074e-01,5.69530e-01,9.99999e-01
7.063029686e-01,5.74484e-01,9.99999e-01,9.99999e-01,9.97543e-01,5.75898e-01,9.99999e-01
7.098344834e-01,5.80838e-01,9.99999e-01,9.99999e-01,9.97642e-01,5.82210e-01,9.99999e-01
7.133836558e-01,5.86638e-01,9.99999e-01,9.99999e-01,9.96897e-01,5.88464e-01,9.99999e-01
7.169505741e-01,5.79810e-01,9.99999e-01,9.99999e-01,9.75028e-01,5.94660e-01,9.99999e-01
7.205353270e-01,5.93285e-01,9.99999e-01,9.99999e-01,9.87497e-01,6.00796e-01,9.99999e-01
7.241380036e-01,5.97402e-01,9.99999e-01,9.99999e-01,9.84393e-01,6.06873e-01,9.99999e-01
7.277586936e-01,6.04243e-01,9.99999e-01,9.99999e-01,9.85892e-01,6.12890e-01,9.99999e-01
7.313974871e-01,6.09517e-01,9.99999e-01,9.99999e-01,9.84926e-01,6.18845e-01,9.99999e-01
7.350544745e-01,6.19592e-01,9.99999e-01,9.99999e-01,9.91761e-01,6.24739e-01,9.99999e-01
7.387297469e-01,6.26745e-01,9.99999e-01,9.99999e-01,9.93931e-01,6.30571e-01,9.99999e-01
7.424233956e-01,6.34446e-01,9.99999e-01,9.99999e-01,9.97020e-01,6.36341e-01,9.99999e-01
7.461355126e-01,6.40891e-01,9.99999e-01,9.99999e-01,9.98197e-01,6.42048e-01,9.99999e-01
7.498661902e-01,6.47147e-01,9.99999e-01,9.99999e-01,9.99158e-01,6.47692e-01,9.99999e-01
7.536155211e-01,6.53004e-01,9.99999e-01,9.99999e-01,9.99588e-01,6.53273e-01,9.99999e-01
7.573835987e-01,6.58650e-01,9.99999e-01,9.99999e-01,9.99787e-01,6.58790e-01,9.99999e-01
7.611705167e-01,6.64156e-01,9.99999e-01,9.99999e-01,9.99867e-01,6.64243e-01,9.99999e-01
7.649763693e-01,6.69577e-01,9.99999e-01,9.99999e-01,9.99917e-01,6.69632e-01,9.99999e-01
7.688012511e-01,6.74919e-01,9.99999e-01,9.99999e-01,9.99942e-01,6.74958e-01,9.99999e-01
7.726452574e-01,6.80187e-01,9.99999e-01,9.99999e-01,9.99952e-01,6.80219e-01,9.99999e-01
7.765084837e-01,6.85371e-01,9.99999e-01,9.99999e-01,9.99933e-01,6.85416e-01,9.99999e-01
7.803910261e-01,6.78166e-01,9.99999e-01,9.82344e-01,9.99712e-01,6.90549e-01,9.99999e-01
7.842929812e-01,6.41573e-01,9.99999e-01,9.23205e-01,9.98998e-01,6.95618e-01,9.99999e-01
7.882144461e-01,6.42037e-01,9.99999e-01,9.18248e-01,9.97920e-01,7.00623e-01,9.99999e-01
7.921555184e-01,6.71077e-01,9.99999e-01,9.52199e-01,9.98853e-01,7.05564e-01,9.99999e-01
7.961162960e-01,6.86048e-01,9.99999e-01,9.67592e-01,9.97995e-01,7.10442e-01,9.99999e-01
8.000968774e-01,7.00993e-01,9.99999e-01,9.82341e-01,9.97672e-01,7.15255e-01,9.99999e-01
8.040973618e-01,7.11712e-01,9.99999e-01,9.90781e-01,9.97675e-01,7.20005e-01,9.99999e-01
8.081178486e-01,7.17879e-01,9.99999e-01,9.95777e-01,9.94794e-01,7.24692e-01,9.99999e-01
8.121584379e-01,7.12608e-01,9.99999e-01,9.98683e-01,9.78371e-01,7.29317e-01,9.99999e-01
8.162192301e-01,7.14667e-01,9.99999e-01,9.99708e-01,9.74102e-01,7.33878e-01,9.99999e-01
8.203003262e-01,7.28903e-01,9.99999e-01,9.99994e-01,9.87173e-01,7.38377e-01,9.99999e-01
8.244018279e-01,7.29161e-01,9.99999e-01,9.99999e-01,9.81620e-01,7.42814e-01,9.99999e-01
8.285238370e-01,7.35674e-01,9.99999e-01,9.99999e-01,9.84589e-01,7.47189e-01,9.99999e-01
8.326664562e-01,7.39743e-01,9.99999e-01,9.99999e-01,9.84351e-01,7.51502e-01,9.99999e-01
8.368297885e-01,7.47290e-01,9.99999e-01,9.99999e-01,9.88799e-01,7.55755e-01,9.99999e-01
8.410139374e-01,7.54880e-01,9.99999e-01,9.99999e-01,9.93332e-01,7.59947e-01,9.99999e-01
8.452190071e-01,7.61576e-01,9.99999e-01,9.99999e-01,9.96723e-01,7.64079e-01,9.99999e-01
8.494451021e-01,7.66696e-01,9.99999e-01,9.99999e-01,9.98105e-01,7.68151e-01,9.99999e-01
8.536923276e-01,7.71295e-01,9.99999e-01,9.99999e-01,9.98875e-01,7.72163e-01,9.99999e-01
8.579607893e-01,7.75581e-01,9.99999e-01,9.99999e-01,9.99309e-01,7.76117e-01,9.99999e-01
8.622505932e-01,7.79669e-01,9.99999e-01,9.99999e-01,9.99560e-01,7.80012e-01,9.99999e-01
8.665618462e-01,7.47236e-01,9.99999e-01,9.53541e-01,9.99728e-01,7.83849e-01,9.99999e-01
8.708946554e-01,6.41516e-01,9.99999e-01,8.14736e-01,9.99690e-01,7.87629e-01,9.99999e-01
8.752491287e-01,6.71603e-01,9.99999e-01,8.49024e-01,9.99585e-01,7.91352e-01,9.99999e-01
8.796253743e-01,7.26836e-01,9.99999e-01,9.14752e-01,9.99427e-01,7.95018e-01,9.99999e-01
8.840235012e-01,7.62268e-01,9.99999e-01,9.55090e-01,9.99345e-01,7.98629e-01,9.99999e-01
8.884436187e-01,7.85914e-01,9.99999e-01,9.82011e-01,9.97653e-01,8.02184e-01,9.99999e-01
8.928858368e-01,7.79948e-01,9.99999e-01,9.92701e-01,9.75142e-01,8.05684e-01,9.99999e-01
8.973502660e-01,7.72138e-01,9.99999e-01,9.98211e-01,9.55973e-01,8.09130e-01,9.99998e-01
9.018370173e-01,7.93773e-01,9.99999e-01,9.99802e-01,9.77115e-01,8.12522e-01,9.99998e-01
9.063462024e-01,7.95810e-01,9.99999e-01,9.95082e-01,9.80165e-01,8.15861e-01,9.99998e-01
9.108779334e-01,7.84757e-01,9.99999e-01,9.88520e-01,9.69069e-01,8.19147e-01,9.99998e-01
9.154323231e-01,7.91373e-01,9.99999e-01,9.97269e-01,9.64899e-01,8.22381e-01,9.99998e-01
9.200094847e-01,7.71799e-01,9.99999e-01,9.60727e-01,9.72312e-01,8.25564e-01,9.99998e-01
9.246095321e-01,7.50246e-01,9.99999e-01,9.45021e-01,9.57474e-01,8.28695e-01,9.99997e-01
9.292325798e-01,5.92893e-01,9.99999e-01,9.56895e-01,7.42920e-01,8.31777e-01,9.99995e-01
9.338787427e-01,5.43892e-01,9.99999e-01,9.58018e-01,6.78215e-01,8.34809e-01,9.99994e-01
9.385481364e-01,6.95128e-01,9.99999e-01,9.69055e-01,8.55337e-01,8.37791e-01,9.99993e-01
9.432408771e-01,6.63546e-01,9.99999e-01,9.80904e-01,8.04138e-01,8.40725e-01,9.99993e-01
9.479570815e-01,6.16824e-01,9.99999e-01,9.90189e-01,7.38188e-01,8.43611e-01,9.99994e-01
9.526968669e-01,6.71597e-01,9.99999e-01,9.95248e-01,7.97015e-01,8.46450e-01,9.99995e-01
9.574603512e-01,6.90885e-01,9.99999e-01,9.97965e-01,8.15132e-01,8.49241e-01,9.99996e-01
9.622476530e-01,7.21170e-01,9.99999e-01,9.99364e-01,8.46979e-01,8.51987e-01,9.99997e-01
9.670588912e-01,7.76798e-01,9.99999e-01,9.99808e-01,9.09038e-01,8.54687e-01,9.99998e-01
9.718941857e-01,8.08031e-01,9.99999e-01,9.99985e-01,9.42496e-01,8.57342e-01,9.99998e-01
9.767536566e-01,8.18732e-01,9.99999e-01,9.99999e-01,9.52067e-01,8.59952e-01,9.99998e-01
9.816374249e-01,8.31650e-01,9.99999e-01,9.99999e-01,9.64210e-01,8.62519e-01,9.99999e-01
9.865456120e-01,8.45578e-01,9.99999e-01,9.99999e-01,9.77498e-01,8.65042e-01,9.99999e-01
9.914783401e-01,8.55421e-01,9.99999e-01,9.99999e-01,9.86049e-01,8.67523e-01,9.99999e-01
9.964357318e-01,8.63331e-01,9.99999e-01,9.99999e-01,9.92378e-01,8.69962e-01,9.99999e-01
1.001417910e+00,8.68369e-01,9.99999e-01,9.99999e-01,9.95425e-01,8.72359e-01,9.99999e-01
1.006425000e+00,8.72437e-01,9.99999e-01,9.99999e-01,9.97395e-01,8.74715e-01,9.99999e-01
1.011457125e+00,8.75609e-01,9.99999e-01,9.99999e-01,9.98378e-01,8.77031e-01,9.99999e-01
1.016514411e+00,8.78341e-01,9.99999e-01,9.99999e-01,9.98900e-01,8.79307e-01,9.99999e-01
1.021596983e+00,8.80752e-01,9.99999e-01,9.99975e-01,9.99124e-01,8.81544e-01,9.99999e-01
1.026704968e+00,8.81455e-01,9.99999e-01,9.98092e-01,9.99317e-01,8.83742e-01,9.99999e-01
1.031838492e+00,8.62675e-01,9.99999e-01,9.74255e-01,9.99502e-01,8.85902e-01,9.99999e-01
1.036997685e+00,2.42653e-01,9.99999e-01,2.73317e-01,9.99705e-01,8.88024e-01,9.99999e-01
1.042182673e+00,2.81499e-01,9.99999e-01,3.16355e-01,9.99649e-01,8.90110e-01,9.99999e-01
1.047393587e+00,2.69052e-01,9.99999e-01,3.01701e-01,9.99534e-01,8.92159e-01,9.99999e-01
1.052630555e+00,3.55514e-02,9.99999e-01,3.97790e-02,9.99362e-01,8.94172e-01,9.99999e-01
1.057893707e+00,6.79672e-02,9.99999e-01,7.59060e-02,9.98937e-01,8.96150e-01,9.99999e-01
1.063183176e+00,1.38410e-01,9.99999e-01,1.54333e-01,9.98250e-01,8.98093e-01,9.99999e-01
1.068499092e+00,2.57625e-01,9.99999e-01,2.87011e-01,9.97067e-01,9.00001e-01,9.99999e-01
1.073841587e+00,4.08143e-01,9.99999e-01,4.53955e-01,9.96573e-01,9.01876e-01,9.99999e-01
1.079210795e+00,5.46971e-01,9.99999e-01,6.07789e-01,9.95597e-01,9.03718e-01,9.99999e-01
1.084606849e+00,6.85187e-01,9.99999e-01,7.61607e-01,9.93351e-01,9.05527e-01,9.99999e-01
1.090029883e+00,7.80742e-01,9.99999e-01,8.68634e-01,9.90508e-01,9.07304e-01,9.99999e-01
1.095480033e+00,8.26399e-01,9.99999e-01,9.32931e-01,9.74290e-01,9.09049e-01,9.99998e-01
1.100957433e+00,8.24480e-01,9.99999e-01,9.67159e-01,9.35834e-01,9.10763e-01,9.99998e-01
1.106462220e+00,7.59976e-01,9.99999e-01,9.86277e-01,8.44268e-01,9.12446e-01,9.99997e-01
1.111994531e+00,6.34787e-01,9.99999e-01,9.94893e-01,6.97867e-01,9.14099e-01,9.99994e-01
1.117554504e+00,5.09223e-01,9.99999e-01,9.98745e-01,5.56716e-01,9.15722e-01,9.99992e-01
1.123142276e+00,5.91194e-01,9.99999e-01,9.99916e-01,6.44523e-01,9.17316e-01,9.99991e-01
1.128757988e+00,6.96970e-01,9.99999e-01,9.99999e-01,7.58505e-01,9.18881e-01,9.99990e-01
1.134401778e+00,4.75823e-01,9.99999e-01,9.99999e-01,5.16969e-01,9.20417e-01,9.99989e-01
1.140073787e+00,7.83363e-01,9.99999e-01,9.99999e-01,8.49709e-01,9.21926e-01,9.99991e-01
1.145774156e+00,6.54420e-01,9.99999e-01,9.99999e-01,7.08705e-01,9.23408e-01,9.99992e-01
1.151503026e+00,6.29100e-01,9.99999e-01,9.99999e-01,6.80213e-01,9.24862e-01,9.99993e-01
1.157260541e+00,6.74863e-01,9.99999e-01,9.99999e-01,7.28568e-01,9.26290e-01,9.99995e-01
1.163046844e+00,7.34174e-01,9.99999e-01,9.99999e-01,7.91400e-01,9.27692e-01,9.99996e-01
1.168862078e+00,7.90385e-01,9.99999e-01,9.99999e-01,8.50729e-01,9.29069e-01,9.99998e-01
1.174706389e+00,8.42130e-01,9.99999e-01,9.99999e-01,9.05107e-01,9.30420e-01,9.99998e-01
1.180579921e+00,8.76885e-01,9.99999e-01,9.99999e-01,9.41120e-01,9.31746e-01,9.99999e-01
1.186482820e+00,9.01667e-01,9.99999e-01,9.99997e-01,9.66369e-01,9.33048e-01,9.99999e-01
1.192415234e+00,9.09692e-01,9.99999e-01,9.93194e-01,9.80266e-01,9.34326e-01,9.99999e-01
1.198377311e+00,5.38831e-01,9.99999e-01,5.84113e-01,9.83371e-01,9.35581e-01,9.99999e-01
1.204369197e+00,6.65594e-07,9.99999e-01,7.17027e-07,9.84233e-01,9.36812e-01,9.99999e-01
1.210391043e+00,3.10155e-22,9.99999e-01,3.33444e-22,9.84920e-01,9.38020e-01,9.99999e-01
1.216442998e+00,1.72224e-19,9.99999e-01,1.84842e-19,9.87131e-01,9.39207e-01,9.99999e-01
1.222525213e+00,3.28125e-19,9.99999e-01,3.50764e-19,9.89980e-01,9.40371e-01,9.99999e-01
1.228637839e+00,8.59515e-15,9.99999e-01,9.17453e-15,9.93038e-01,9.41514e-01,9.99999e-01
