#,Wave/freq,Total,O2,CO2,H2O,Rayleigh,CIA
4.000000000e-01,6.17502e-05,9.99999e-01,9.99999e-01,9.99980e-01,6.17513e-05,9.99999e-01
4.020000000e-01,7.47953e-05,9.99999e-01,9.99999e-01,9.99987e-01,7.47962e-05,9.99999e-01
4.040100000e-01,9.02357e-05,9.99999e-01,9.99999e-01,9.99994e-01,9.02361e-05,9.99999e-01
4.060300500e-01,1.08460e-04,9.99999e-01,9.99999e-01,9.99998e-01,1.08461e-04,9.99999e-01
4.080602003e-01,1.29893e-04,9.99999e-01,9.99999e-01,9.99999e-01,1.29893e-04,9.99999e-01
4.101005013e-01,1.55007e-04,9.99999e-01,9.99999e-01,9.99999e-01,1.55007e-04,9.99999e-01
4.121510038e-01,1.84332e-04,9.99999e-01,9.99999e-01,9.99998e-01,1.84332e-04,9.99999e-01
4.142117588e-01,2.18455e-04,9.99999e-01,9.99999e-01,9.99994e-01,2.18456e-04,9.99999e-01
4.162828176e-01,2.58025e-04,9.99999e-01,9.99999e-01,9.99975e-01,2.58031e-04,9.99999e-01
4.183642317e-01,3.03769e-04,9.99999e-01,9.99999e-01,9.99985e-01,3.03774e-04,9.99999e-01
4.204560528e-01,3.56471e-04,9.99999e-01,9.99999e-01,9.99990e-01,3.56474e-04,9.99999e-01
4.225583331e-01,4.16997e-04,9.99999e-01,9.99999e-01,9.99996e-01,4.16998e-04,9.99999e-01
4.246711247e-01,4.86288e-04,9.99999e-01,9.99999e-01,9.99996e-01,4.86290e-04,9.99999e-01
4.267944804e-01,5.65373e-04,9.99999e-01,9.99999e-01,9.99995e-01,5.65375e-04,9.99999e-01
4.289284528e-01,6.55368e-04,9.99999e-01,9.99999e-01,9.99996e-01,6.55370e-04,9.99999e-01
4.310730950e-01,7.57475e-04,9.99999e-01,9.99999e-01,9.99998e-01,7.57476e-04,9.99999e-01
4.332284605e-01,8.72989e-04,9.99999e-01,9.99999e-01,9.99999e-01,8.72989e-04,9.99999e-01
4.353946028e-01,1.00330e-03,9.99999e-01,9.99999e-01,9.99999e-01,1.00330e-03,9.99999e-01
4.375715758e-01,1.14990e-03,9.99999e-01,9.99999e-01,9.99997e-01,1.14990e-03,9.99999e-01
4.397594337e-01,1.31435e-03,9.99999e-01,9.99999e-01,9.99979e-01,1.31438e-03,9.99999e-01
4.419582309e-01,1.49826e-03,9.99999e-01,9.99999e-01,9.99896e-01,1.49842e-03,9.99999e-01
4.441680220e-01,1.70367e-03,9.99999e-01,9.99999e-01,9.99917e-01,1.70381e-03,9.99999e-01
4.463888621e-01,1.93228e-03,9.99999e-01,9.99999e-01,9.99914e-01,1.93244e-03,9.99999e-01
4.486208064e-01,2.18620e-03,9.99999e-01,9.99999e-01,9.99946e-01,2.18632e-03,9.99999e-01
4.508639105e-01,2.46746e-03,9.99999e-01,9.99999e-01,9.99974e-01,2.46752e-03,9.99999e-01
4.531182300e-01,2.77821e-03,9.99999e-01,9.99999e-01,9.99989e-01,2.77824e-03,9.99999e-01
4.553838212e-01,3.12075e-03,9.99999e-01,9.99999e-01,9.99992e-01,3.12077e-03,9.99999e-01
4.576607403e-01,3.49747e-03,9.99999e-01,9.99999e-01,9.99996e-01,3.49749e-03,9.99999e-01
4.599490440e-01,3.91086e-03,9.99999e-01,9.99999e-01,9.99997e-01,3.91086e-03,9.99999e-01
4.622487892e-01,4.36346e-03,9.99999e-01,9.99999e-01,9.99999e-01,4.36346e-03,9.99999e-01
4.645600332e-01,4.85792e-03,9.99999e-01,9.99999e-01,9.99998e-01,4.85792e-03,9.99999e-01
4.668828333e-01,5.39682e-03,9.99999e-01,9.99999e-01,9.99974e-01,5.39696e-03,9.99999e-01
4.692172475e-01,5.98303e-03,9.99999e-01,9.99999e-01,9.99946e-01,5.98335e-03,9.99999e-01
4.715633337e-01,6.61973e-03,9.99999e-01,9.99999e-01,9.99964e-01,6.61996e-03,9.99999e-01
4.739211504e-01,7.30944e-03,9.99999e-01,9.99999e-01,9.99965e-01,7.30969e-03,9.99999e-01
4.762907561e-01,8.05535e-03,9.99999e-01,9.99999e-01,9.99982e-01,8.05549e-03,9.99999e-01
4.786722099e-01,8.86031e-03,9.99999e-01,9.99999e-01,9.99992e-01,8.86037e-03,9.99999e-01
4.810655710e-01,9.72734e-03,9.99999e-01,9.99999e-01,9.99997e-01,9.72736e-03,9.99999e-01
4.834708988e-01,1.06593e-02,9.99999e-01,9.99999e-01,9.99979e-01,1.06595e-02,9.99999e-01
4.858882533e-01,1.16594e-02,9.99999e-01,9.99999e-01,9.99961e-01,1.16599e-02,9.99999e-01
4.883176946e-01,1.27312e-02,9.99999e-01,9.99999e-01,9.99968e-01,1.27316e-02,9.99999e-01
4.907592831e-01,1.38772e-02,9.99999e-01,9.99999e-01,9.99970e-01,1.38776e-02,9.99999e-01
4.932130795e-01,1.51008e-02,9.99999e-01,9.99999e-01,9.99979e-01,1.51011e-02,9.99999e-01
4.956791449e-01,1.64049e-02,9.99999e-01,9.99999e-01,9.99988e-01,1.64051e-02,9.99999e-01
4.981575406e-01,1.77915e-02,9.99999e-01,9.99999e-01,9.99946e-01,1.77925e-02,9.99999e-01
5.006483283e-01,1.92637e-02,9.99999e-01,9.99999e-01,9.99862e-01,1.92663e-02,9.99999e-01
5.031515699e-01,2.08148e-02,9.99999e-01,9.99999e-01,9.99295e-01,2.08295e-02,9.99999e-01
5.056673278e-01,2.24764e-02,9.99999e-01,9.99999e-01,9.99626e-01,2.24848e-02,9.99999e-01
5.081956644e-01,2.42236e-02,9.99999e-01,9.99999e-01,9.99529e-01,2.42350e-02,9.99999e-01
5.107366428e-01,2.60745e-02,9.99999e-01,9.99999e-01,9.99681e-01,2.60828e-02,9.99999e-01
5.132903260e-01,2.80257e-02,9.99999e-01,9.99999e-01,9.99817e-01,2.80308e-02,9.99999e-01
5.158567776e-01,3.00791e-02,9.99999e-01,9.99999e-01,9.99922e-01,3.00814e-02,9.99999e-01
5.184360615e-01,3.22361e-02,9.99999e-01,9.99999e-01,9.99968e-01,3.22370e-02,9.99999e-01
5.210282418e-01,3.44996e-02,9.99999e-01,9.99999e-01,9.99988e-01,3.45000e-02,9.99999e-01
5.236333830e-01,3.68706e-02,9.99999e-01,9.99999e-01,9.99953e-01,3.68723e-02,9.99999e-01
5.262515499e-01,3.93549e-02,9.99999e-01,9.99999e-01,9.99970e-01,3.93561e-02,9.99999e-01
5.288828077e-01,4.19520e-02,9.99999e-01,9.99999e-01,9.99973e-01,4.19531e-02,9.99999e-01
5.315272217e-01,4.46640e-02,9.99999e-01,9.99999e-01,9.99976e-01,4.46650e-02,9.99999e-01
5.341848578e-01,4.74928e-02,9.99999e-01,9.99999e-01,9.99984e-01,4.74935e-02,9.99999e-01
5.368557821e-01,5.04372e-02,9.99999e-01,9.99999e-01,9.99946e-01,5.04399e-02,9.99999e-01
5.395400610e-01,5.34952e-02,9.99999e-01,9.99999e-01,9.99808e-01,5.35054e-02,9.99999e-01
5.422377613e-01,5.66769e-02,9.99999e-01,9.99999e-01,9.99749e-01,5.66911e-02,9.99999e-01
5.449489501e-01,5.99840e-02,9.99999e-01,9.99999e-01,9.99768e-01,5.99979e-02,9.99999e-01
5.476736949e-01,6.34134e-02,9.99999e-01,9.99999e-01,9.99792e-01,6.34265e-02,9.99999e-01
5.504120634e-01,6.69674e-02,9.99999e-01,9.99999e-01,9.99849e-01,6.69775e-02,9.99999e-01
5.531641237e-01,7.06459e-02,9.99999e-01,9.99999e-01,9.99924e-01,7.06512e-02,9.99999e-01
5.559299443e-01,7.44452e-02,9.99999e-01,9.99999e-01,9.99963e-01,7.44479e-02,9.99999e-01
5.587095940e-01,7.83657e-02,9.99999e-01,9.99999e-01,9.99976e-01,7.83675e-02,9.99999e-01
5.615031420e-01,8.24078e-02,9.99999e-01,9.99999e-01,9.99974e-01,8.24099e-02,9.99999e-01
5.643106577e-01,8.65724e-02,9.99999e-01,9.99999e-01,9.99971e-01,8.65748e-02,9.99999e-01
5.671322110e-01,9.08307e-02,9.99999e-01,9.99999e-01,9.99658e-01,9.08617e-02,9.99999e-01
5.699678720e-01,9.52341e-02,9.99999e-01,9.99999e-01,9.99624e-01,9.52698e-02,9.99999e-01
5.728177114e-01,9.97599e-02,9.99999e-01,9.99999e-01,9.99614e-01,9.97984e-02,9.99999e-01
5.756818000e-01,1.04409e-01,9.99999e-01,9.99999e-01,9.99645e-01,1.04446e-01,9.99999e-01
5.785602090e-01,1.09179e-01,9.99999e-01,9.99999e-01,9.99689e-01,1.09213e-01,9.99999e-01
5.814530100e-01,1.14060e-01,9.99999e-01,9.99999e-01,9.99689e-01,1.14096e-01,9.99999e-01
5.843602750e-01,1.19051e-01,9.99999e-01,9.99999e-01,9.99633e-01,1.19094e-01,9.99999e-01
5.872820764e-01,1.23814e-01,9.99999e-01,9.99999e-01,9.96838e-01,1.24206e-01,9.99999e-01
5.902184868e-01,1.28929e-01,9.99999e-01,9.99999e-01,9.96128e-01,1.29430e-01,9.99999e-01
5.931695792e-01,1.34397e-01,9.99999e-01,9.99999e-01,9.97273e-01,1.34765e-01,9.99999e-01
5.961354271e-01,1.39787e-01,9.99999e-01,9.99999e-01,9.97004e-01,1.40207e-01,9.99999e-01
5.991161043e-01,1.45436e-01,9.99999e-01,9.99999e-01,9.97811e-01,1.45755e-01,9.99999e-01
6.021116848e-01,1.51218e-01,9.99999e-01,9.99999e-01,9.98755e-01,1.51406e-01,9.99999e-01
6.051222432e-01,1.57059e-01,9.99999e-01,9.99999e-01,9.99369e-01,1.57158e-01,9.99999e-01
6.081478544e-01,1.62965e-01,9.99999e-01,9.99999e-01,9.99728e-01,1.63009e-01,9.99999e-01
6.111885937e-01,1.68936e-01,9.99999e-01,9.99999e-01,9.99884e-01,1.68955e-01,9.99999e-01
6.142445367e-01,1.74986e-01,9.99999e-01,9.99999e-01,9.99948e-01,1.74995e-01,9.99999e-01
6.173157594e-01,1.81120e-01,9.99999e-01,9.99999e-01,9.99971e-01,1.81125e-01,9.99999e-01
6.204023382e-01,1.87337e-01,9.99999e-01,9.99999e-01,9.99975e-01,1.87342e-01,9.99999e-01
6.235043498e-01,1.93623e-01,9.99999e-01,9.99999e-01,9.99896e-01,1.93643e-01,9.99999e-01
6.266218716e-01,1.99914e-01,9.99999e-01,9.99999e-01,9.99444e-01,2.00025e-01,9.99999e-01
6.297549810e-01,2.06444e-01,9.99999e-01,9.99999e-01,9.99795e-01,2.06486e-01,9.99999e-01
6.329037559e-01,2.12935e-01,9.99999e-01,9.99999e-01,9.99595e-01,2.13021e-01,9.99999e-01
6.360682746e-01,2.19553e-01,9.99999e-01,9.99999e-01,9.99657e-01,2.19628e-01,9.99999e-01
6.392486160e-01,2.26203e-01,9.99999e-01,9.99999e-01,9.99555e-01,2.26304e-01,9.99999e-01
6.424448591e-01,2.32920e-01,9.99999e-01,9.99999e-01,9.99467e-01,2.33044e-01,9.99999e-01
6.456570834e-01,2.39196e-01,9.99999e-01,9.99999e-01,9.97286e-01,2.39846e-01,9.99999e-01
6.488853688e-01,2.46118e-01,9.99999e-01,9.99999e-01,9.97615e-01,2.46707e-01,9.99999e-01
6.521297956e-01,2.53098e-01,9.99999e-01,9.99999e-01,9.97932e-01,2.53622e-01,9.99999e-01
6.553904446e-01,2.60057e-01,9.99999e-01,9.99999e-01,9.97960e-01,2.60589e-01,9.99999e-01
6.586673968e-01,2.67131e-01,9.99999e-01,9.99999e-01,9.98234e-01,2.67603e-01,9.99999e-01
6.619607338e-01,2.74383e-01,9.99999e-01,9.99999e-01,9.98979e-01,2.74663e-01,9.99999e-01
6.652705375e-01,2.81597e-01,9.99999e-01,9.99999e-01,9.99407e-01,2.81764e-01,9.99999e-01
6.685968902e-01,2.88823e-01,9.99999e-01,9.99999e-01,9.99724e-01,2.88903e-01,9.99999e-01
6.719398746e-01,2.96038e-01,9.99999e-01,9.99999e-01,9.99871e-01,2.96076e-01,9.99999e-01
6.752995740e-01,3.03259e-01,9.99999e-01,9.99999e-01,9.99930e-01,3.03280e-01,9.99999e-01
6.786760719e-01,3.10482e-01,9.99999e-01,9.99999e-01,9.99901e-01,3.10512e-01,9.99999e-01
6.820694522e-01,3.17715e-01,9.99999e-01,9.99999e-01,9.99830e-01,3.17769e-01,9.99999e-01
6.854797995e-01,3.24976e-01,9.99999e-01,9.99999e-01,9.99781e-01,3.25047e-01,9.99999e-01
6.889071985e-01,3.32171e-01,9.99999e-01,9.99999e-01,9.99481e-01,3.32343e-01,9.99999e-01
6.923517345e-01,3.36746e-01,9.99999e-01,9.99999e-01,9.91437e-01,3.39654e-01,9.99999e-01
6.958134932e-01,3.45393e-01,9.99999e-01,9.99999e-01,9.95436e-01,3.46976e-01,9.99999e-01
6.992925606e-01,3.52806e-01,9.99999e-01,9.99999e-01,9.95762e-01,3.54307e-01,9.99999e-01
7.027890234e-01,3.59734e-01,9.99999e-01,9.99999e-01,9.94720e-01,3.61643e-01,9.99999e-01
7.063029686e-01,3.67346e-01,9.99999e-01,9.99999e-01,9.95565e-01,3.68982e-01,9.99999e-01
7.098344834e-01,3.74720e-01,9.99999e-01,9.99999e-01,9.95744e-01,3.76321e-01,9.99999e-01
7.133836558e-01,3.81514e-01,9.99999e-01,9.99999e-01,9.94417e-01,3.83656e-01,9.99999e-01
7.169505741e-01,3.73593e-01,9.99999e-01,9.99999e-01,9.55518e-01,3.90985e-01,9.99998e-01
7.205353270e-01,3.89351e-01,9.99999e-01,9.99999e-01,9.77519e-01,3.98305e-01,9.99998e-01
7.241380036e-01,3.94274e-01,9.99999e-01,9.99999e-01,9.72043e-01,4.05614e-01,9.99998e-01
7.277586936e-01,4.02466e-01,9.99999e-01,9.99999e-01,9.74710e-01,4.12908e-01,9.99998e-01
7.313974871e-01,4.08815e-01,9.99999e-01,9.99999e-01,9.72938e-01,4.20186e-01,9.99999e-01
7.350544745e-01,4.21104e-01,9.99999e-01,9.99999e-01,9.85167e-01,4.27444e-01,9.99999e-01
7.387297469e-01,4.29925e-01,9.99999e-01,9.99999e-01,9.89059e-01,4.34681e-01,9.99999e-01
7.424233956e-01,4.39516e-01,9.99999e-01,9.99999e-01,9.94619e-01,4.41893e-01,9.99999e-01
7.461355126e-01,4.47617e-01,9.99999e-01,9.99999e-01,9.96743e-01,4.49079e-01,9.99999e-01
7.498661902e-01,4.55543e-01,9.99999e-01,9.99999e-01,9.98478e-01,4.56237e-01,9.99999e-01
7.536155211e-01,4.63020e-01,9.99999e-01,9.99999e-01,9.99255e-01,4.63364e-01,9.99999e-01
7.573835987e-01,4.70278e-01,9.99999e-01,9.99999e-01,9.99616e-01,4.70458e-01,9.99999e-01
7.611705167e-01,4.77404e-01,9.99999e-01,9.99999e-01,9.99761e-01,4.77518e-01,9.99999e-01
7.649763693e-01,4.84469e-01,9.99999e-01,9.99999e-01,9.99850e-01,4.84541e-01,9.99999e-01
7.688012511e-01,4.91475e-01,9.99999e-01,9.99999e-01,9.99895e-01,4.91525e-01,9.99999e-01
7.726452574e-01,4.98427e-01,9.99999e-01,9.99999e-01,9.99914e-01,4.98470e-01,9.99999e-01
7.765084837e-01,5.05311e-01,9.99999e-01,9.99999e-01,9.99879e-01,5.05372e-01,9.99999e-01
7.803910261e-01,4.96495e-01,9.99999e-01,9.69766e-01,9.99482e-01,5.12231e-01,9.99999e-01
7.842929812e-01,4.49312e-01,9.99999e-01,8.67145e-01,9.98195e-01,5.19044e-01,9.99999e-01
7.882144461e-01,4.50238e-01,9.99999e-01,8.59380e-01,9.96246e-01,5.25811e-01,9.99999e-01
7.921555184e-01,4.86614e-01,9.99999e-01,9.15633e-01,9.97928e-01,5.32530e-01,9.99999e-01
7.961162960e-01,5.06233e-01,9.99999e-01,9.42232e-01,9.96387e-01,5.39199e-01,9.99999e-01
8.000968774e-01,5.26317e-01,9.99999e-01,9.68325e-01,9.95800e-01,5.45818e-01,9.99999e-01
8.040973618e-01,5.40935e-01,9.99999e-01,9.83387e-01,9.95805e-01,5.52385e-01,9.99999e-01
8.081178486e-01,5.49453e-01,9.99999e-01,9.92379e-01,9.90635e-01,5.58899e-01,9.99999e-01
8.121584379e-01,5.42241e-01,9.99999e-01,9.97617e-01,9.61378e-01,5.65359e-01,9.99999e-01
8.162192301e-01,5.45048e-01,9.99999e-01,9.99473e-01,9.53768e-01,5.71763e-01,9.99998e-01
8.203003262e-01,5.64890e-01,9.99999e-01,9.99990e-01,9.77137e-01,5.78112e-01,9.99998e-01
8.244018279e-01,5.65246e-01,9.99999e-01,9.99999e-01,9.67219e-01,5.84403e-01,9.99998e-01
8.285238370e-01,5.74324e-01,9.99999e-01,9.99999e-01,9.72381e-01,5.90637e-01,9.99998e-01
8.326664562e-01,5.80068e-01,9.99999e-01,9.99999e-01,9.71943e-01,5.96812e-01,9.99999e-01
8.368297885e-01,5.90783e-01,9.99999e-01,9.99999e-01,9.79855e-01,6.02928e-01,9.99999e-01
8.410139374e-01,6.01665e-01,9.99999e-01,9.99999e-01,9.87981e-01,6.08984e-01,9.99999e-01
8.452190071e-01,6.11341e-01,9.99999e-01,9.99999e-01,9.94083e-01,6.14979e-01,9.99999e-01
8.494451021e-01,6.18789e-01,9.99999e-01,9.99999e-01,9.96579e-01,6.20913e-01,9.99999e-01
8.536923276e-01,6.25512e-01,9.99999e-01,9.99999e-01,9.97967e-01,6.26786e-01,9.99999e-01
8.579607893e-01,6.31807e-01,9.99999e-01,9.99999e-01,9.98752e-01,6.32596e-01,9.99999e-01
8.622505932e-01,6.37837e-01,9.99999e-01,9.99999e-01,9.99205e-01,6.38344e-01,9.99999e-01
8.665618462e-01,5.99484e-01,9.99999e-01,9.31273e-01,9.99510e-01,6.44029e-01,9.99999e-01
8.708946554e-01,4.52777e-01,9.99999e-01,6.97330e-01,9.99440e-01,6.49651e-01,9.99999e-01
8.752491287e-01,4.89238e-01,9.99999e-01,7.47233e-01,9.99251e-01,6.55209e-01,9.99999e-01
8.796253743e-01,5.62397e-01,9.99999e-01,8.52064e-01,9.98967e-01,6.60704e-01,9.99999e-01
8.840235012e-01,6.12429e-01,9.99999e-01,9.20448e-01,9.98819e-01,6.66135e-01,9.99999e-01
8.884436187e-01,6.47101e-01,9.99999e-01,9.67701e-01,9.95787e-01,6.71502e-01,9.99999e-01
8.928858368e-01,6.38399e-01,9.99999e-01,9.86840e-01,9.55731e-01,6.76805e-01,9.99998e-01
8.973502660e-01,6.26944e-01,9.99999e-01,9.96764e-01,9.22142e-01,6.82044e-01,9.99998e-01
9.018370173e-01,6.58902e-01,9.99999e-01,9.99641e-01,9.59130e-01,6.87218e-01,9.99998e-01
9.063462024e-01,6.62124e-01,9.99999e-01,9.91204e-01,9.64609e-01,6.92329e-01,9.99998e-01
9.108779334e-01,6.45580e-01,9.99999e-01,9.79355e-01,9.45016e-01,6.97376e-01,9.99998e-01
9.154323231e-01,6.55376e-01,9.99999e-01,9.95061e-01,9.37646e-01,7.02358e-01,9.99997e-01
9.200094847e-01,6.28404e-01,9.99999e-01,9.32265e-01,9.50673e-01,7.07277e-01,9.99997e-01
9.246095321e-01,5.96183e-01,9.99999e-01,9.03021e-01,9.25533e-01,7.12132e-01,9.99995e-01
9.292325798e-01,3.95009e-01,9.99999e-01,9.24024e-01,5.91667e-01,7.16923e-01,9.99992e-01
9.338787427e-01,3.39511e-01,9.99999e-01,9.25660e-01,5.04271e-01,7.21652e-01,9.99989e-01
9.385481364e-01,5.22159e-01,9.99999e-01,9.44851e-01,7.58506e-01,7.26316e-01,9.99989e-01
9.432408771e-01,4.83472e-01,9.99999e-01,9.65730e-01,6.83706e-01,7.30919e-01,9.99988e-01
9.479570815e-01,4.28355e-01,9.99999e-01,9.82339e-01,5.92377e-01,7.35458e-01,9.99989e-01
9.526968669e-01,4.93769e-01,9.99999e-01,9.91427e-01,6.72594e-01,7.39935e-01,9.99992e-01
9.574603512e-01,5.15384e-01,9.99999e-01,9.96323e-01,6.94792e-01,7.44350e-01,9.99994e-01
9.622476530e-01,5.55535e-01,9.99999e-01,9.98850e-01,7.42804e-01,7.48704e-01,9.99995e-01
9.670588912e-01,6.34400e-01,9.99999e-01,9.99654e-01,8.42780e-01,7.52996e-01,9.99997e-01
9.718941857e-01,6.80562e-01,9.99999e-01,9.99974e-01,8.98776e-01,7.57228e-01,9.99998e-01
9.767536566e-01,6.96881e-01,9.99999e-01,9.99999e-01,9.15264e-01,7.61399e-01,9.99998e-01
9.816374249e-01,7.16768e-01,9.99999e-01,9.99999e-01,9.36328e-01,7.65509e-01,9.99998e-01
9.865456120e-01,7.38566e-01,9.99999e-01,9.99999e-01,9.59724e-01,7.69560e-01,9.99999e-01
9.914783401e-01,7.54164e-01,9.99999e-01,9.99999e-01,9.74934e-01,7.73552e-01,9.99999e-01
9.964357318e-01,7.66810e-01,9.99999e-01,9.99999e-01,9.86268e-01,7.77486e-01,9.99999e-01
1.001417910e+00,7.74912e-01,9.99999e-01,9.99999e-01,9.91746e-01,7.81360e-01,9.99999e-01
1.006425000e+00,7.81487e-01,9.99999e-01,9.99999e-01,9.95299e-01,7.85178e-01,9.99999e-01
1.011457125e+00,7.86627e-01,9.99999e-01,9.99999e-01,9.97070e-01,7.88937e-01,9.99999e-01
1.016514411e+00,7.91067e-01,9.99999e-01,9.99999e-01,9.98014e-01,7.92640e-01,9.99999e-01
1.021596983e+00,7.94995e-01,9.99999e-01,9.99957e-01,9.98419e-01,7.96287e-01,9.99999e-01
1.026704968e+00,7.96159e-01,9.99999e-01,9.96576e-01,9.98767e-01,7.99878e-01,9.99999e-01
1.031838492e+00,7.71642e-01,9.99999e-01,9.61293e-01,9.99101e-01,8.03414e-01,9.99999e-01
1.036997685e+00,1.32663e-01,9.99999e-01,1.64482e-01,9.99467e-01,8.06895e-01,9.99999e-01
1.042182673e+00,1.09295e-01,9.99999e-01,1.34954e-01,9.99367e-01,8.10322e-01,9.99999e-01
1.047393587e+00,1.28211e-01,9.99999e-01,1.57684e-01,9.99160e-01,8.13695e-01,9.99999e-01
1.052630555e+00,4.32003e-03,9.99999e-01,5.29207e-03,9.98849e-01,8.17016e-01,9.99999e-01
1.057893707e+00,1.04580e-02,9.99999e-01,1.27659e-02,9.98083e-01,8.20284e-01,9.99999e-01
1.063183176e+00,3.32148e-02,9.99999e-01,4.04261e-02,9.96843e-01,8.23500e-01,9.99999e-01
1.068499092e+00,8.98137e-02,9.99999e-01,1.09135e-01,9.94710e-01,8.26664e-01,9.99999e-01
1.073841587e+00,2.02642e-01,9.99999e-01,2.45509e-01,9.93824e-01,8.29779e-01,9.99999e-01
1.079210795e+00,3.39949e-01,9.99999e-01,4.11168e-01,9.92062e-01,8.32843e-01,9.99999e-01
1.084606849e+00,5.06361e-01,9.99999e-01,6.12812e-01,9.88029e-01,8.35857e-01,9.99999e-01
1.090029883e+00,6.39960e-01,9.99999e-01,7.75814e-01,9.82958e-01,8.38822e-01,9.99998e-01
1.095480033e+00,7.08910e-01,9.99999e-01,8.82264e-01,9.54130e-01,8.41740e-01,9.99998e-01
1.100957433e+00,7.06136e-01,9.99999e-01,9.41459e-01,8.87523e-01,8.44609e-01,9.99997e-01
1.106462220e+00,6.11355e-01,9.99999e-01,9.75332e-01,7.39059e-01,8.47431e-01,9.99995e-01
1.111994531e+00,4.45096e-01,9.99999e-01,9.90787e-01,5.28062e-01,8.50207e-01,9.99990e-01
1.117554504e+00,3.03177e-01,9.99999e-01,9.97730e-01,3.56121e-01,8.52936e-01,9.99986e-01
1.123142276e+00,4.00514e-01,9.99999e-01,9.99849e-01,4.68140e-01,8.55620e-01,9.99984e-01
1.128757988e+00,5.28005e-01,9.99999e-01,9.99999e-01,6.15214e-01,8.58260e-01,9.99983e-01
1.134401778e+00,3.02131e-01,9.99999e-01,9.99999e-01,3.50972e-01,8.60855e-01,9.99981e-01
1.140073787e+00,6.45909e-01,9.99999e-01,9.99999e-01,7.48104e-01,8.63406e-01,9.99984e-01
1.145774156e+00,4.72529e-01,9.99999e-01,9.99999e-01,5.45705e-01,8.65915e-01,9.99987e-01
1.151503026e+00,4.43020e-01,9.99999e-01,9.99999e-01,5.10172e-01,8.68381e-01,9.99988e-01
1.157260541e+00,4.95214e-01,9.99999e-01,9.99999e-01,5.68689e-01,8.70805e-01,9.99991e-01
1.163046844e+00,5.74568e-01,9.99999e-01,9.99999e-01,6.58015e-01,8.73187e-01,9.99994e-01
1.168862078e+00,6.54366e-01,9.99999e-01,9.99999e-01,7.47396e-01,8.75529e-01,9.99996e-01
1.174706389e+00,7.33509e-01,9.99999e-01,9.99999e-01,8.35593e-01,8.77831e-01,9.99998e-01
1.180579921e+00,7.88843e-01,9.99999e-01,9.99999e-01,8.96317e-01,8.80093e-01,9.99998e-01
1.186482820e+00,8.29459e-01,9.99999e-01,9.99995e-01,9.40096e-01,8.82317e-01,9.99998e-01
1.192415234e+00,8.43014e-01,9.99999e-01,9.87908e-01,9.64635e-01,8.84501e-01,9.99998e-01
1.198377311e+00,4.87839e-01,9.99999e-01,5.64326e-01,9.70176e-01,8.86648e-01,9.99998e-01
1.204369197e+00,1.16621e-10,9.99999e-01,1.33408e-10,9.71723e-01,8.88758e-01,9.99999e-01
1.210391043e+00,2.34392e-38,9.99999e-01,2.67150e-38,9.72937e-01,8.90830e-01,9.99999e-01
1.216442998e+00,2.10265e-33,9.99999e-01,2.38915e-33,9.76873e-01,8.92867e-01,9.99999e-01
1.222525213e+00,6.36006e-33,9.99999e-01,7.17399e-33,9.81971e-01,8.94867e-01,9.99999e-01
1.228637839e+00,1.70439e-25,9.99999e-01,1.91717e-25,9.87459e-01,8.96833e-01,9.99999e-01
