#,Wave/freq,Total,O2,CO2,H2O,Rayleigh,CIA
4.000000000e-01,1.96781e-03,9.99999e-01,9.99999e-01,9.99987e-01,1.96783e-03,9.99999e-01
4.020000000e-01,2.22582e-03,9.99999e-01,9.99999e-01,9.99991e-01,2.22583e-03,9.99999e-01
4.040100000e-01,2.51122e-03,9.99999e-01,9.99999e-01,9.99996e-01,2.51123e-03,9.99999e-01
4.060300500e-01,2.82647e-03,9.99999e-01,9.99999e-01,9.99998e-01,2.82647e-03,9.99999e-01
4.080602003e-01,3.17387e-03,9.99999e-01,9.99999e-01,9.99999e-01,3.17387e-03,9.99999e-01
4.101005013e-01,3.55581e-03,9.99999e-01,9.99999e-01,9.99999e-01,3.55581e-03,9.99999e-01
4.121510038e-01,3.97478e-03,9.99999e-01,9.99999e-01,9.99999e-01,3.97479e-03,9.99999e-01
4.142117588e-01,4.43335e-03,9.99999e-01,9.99999e-01,9.99996e-01,4.43336e-03,9.99999e-01
4.162828176e-01,4.93412e-03,9.99999e-01,9.99999e-01,9.99984e-01,4.93419e-03,9.99999e-01
4.183642317e-01,5.47995e-03,9.99999e-01,9.99999e-01,9.99990e-01,5.48000e-03,9.99999e-01
4.204560528e-01,6.07356e-03,9.99999e-01,9.99999e-01,9.99994e-01,6.07359e-03,9.99999e-01
4.225583331e-01,6.71780e-03,9.99999e-01,9.99999e-01,9.99997e-01,6.71781e-03,9.99999e-01
4.246711247e-01,7.41557e-03,9.99999e-01,9.99999e-01,9.99997e-01,7.41559e-03,9.99999e-01
4.267944804e-01,8.16986e-03,9.99999e-01,9.99999e-01,9.99997e-01,8.16987e-03,9.99999e-01
4.289284528e-01,8.98366e-03,9.99999e-01,9.99999e-01,9.99997e-01,8.98368e-03,9.99999e-01
4.310730950e-01,9.86003e-03,9.99999e-01,9.99999e-01,9.99998e-01,9.86004e-03,9.99999e-01
4.332284605e-01,1.08020e-02,9.99999e-01,9.99999e-01,9.99999e-01,1.08020e-02,9.99999e-01
4.353946028e-01,1.18127e-02,9.99999e-01,9.99999e-01,9.99999e-01,1.18127e-02,9.99999e-01
4.375715758e-01,1.28950e-02,9.99999e-01,9.99999e-01,9.99997e-01,1.28951e-02,9.99999e-01
4.397594337e-01,1.40521e-02,9.99999e-01,9.99999e-01,9.99986e-01,1.40523e-02,9.99999e-01
4.419582309e-01,1.52864e-02,9.99999e-01,9.99999e-01,9.99931e-01,1.52874e-02,9.99999e-01
4.441680220e-01,1.66026e-02,9.99999e-01,9.99999e-01,9.99947e-01,1.66034e-02,9.99999e-01
4.463888621e-01,1.80024e-02,9.99999e-01,9.99999e-01,9.99944e-01,1.80034e-02,9.99999e-01
4.486208064e-01,1.94895e-02,9.99999e-01,9.99999e-01,9.99965e-01,1.94901e-02,9.99999e-01
4.508639105e-01,2.10663e-02,9.99999e-01,9.99999e-01,9.99983e-01,2.10666e-02,9.99999e-01
4.531182300e-01,2.27355e-02,9.99999e-01,9.99999e-01,9.99993e-01,2.27357e-02,9.99999e-01
4.553838212e-01,2.44999e-02,9.99999e-01,9.99999e-01,9.99995e-01,2.45001e-02,9.99999e-01
4.576607403e-01,2.63624e-02,9.99999e-01,9.99999e-01,9.99997e-01,2.63624e-02,9.99999e-01
4.599490440e-01,2.83253e-02,9.99999e-01,9.99999e-01,9.99998e-01,2.83253e-02,9.99999e-01
4.622487892e-01,3.03912e-02,9.99999e-01,9.99999e-01,9.99999e-01,3.03912e-02,9.99999e-01
4.645600332e-01,3.25624e-02,9.99999e-01,9.99999e-01,9.99998e-01,3.25625e-02,9.99999e-01
4.668828333e-01,3.48408e-02,9.99999e-01,9.99999e-01,9.99983e-01,3.48413e-02,9.99999e-01
4.692172475e-01,3.72286e-02,9.99999e-01,9.99999e-01,9.99965e-01,3.72299e-02,9.99999e-01
4.715633337e-01,3.97293e-02,9.99999e-01,9.99999e-01,9.99977e-01,3.97302e-02,9.99999e-01
4.739211504e-01,4.23430e-02,9.99999e-01,9.99999e-01,9.99978e-01,4.23439e-02,9.99999e-01
4.762907561e-01,4.50724e-02,9.99999e-01,9.99999e-01,9.99988e-01,4.50729e-02,9.99999e-01
4.786722099e-01,4.79184e-02,9.99999e-01,9.99999e-01,9.99994e-01,4.79186e-02,9.99999e-01
4.810655710e-01,5.08823e-02,9.99999e-01,9.99999e-01,9.99998e-01,5.08824e-02,9.99999e-01
4.834708988e-01,5.39647e-02,9.99999e-01,9.99999e-01,9.99986e-01,5.39655e-02,9.99999e-01
4.858882533e-01,5.71675e-02,9.99999e-01,9.99999e-01,9.99975e-01,5.71689e-02,9.99999e-01
4.883176946e-01,6.04923e-02,9.99999e-01,9.99999e-01,9.99979e-01,6.04935e-02,9.99999e-01
4.907592831e-01,6.39389e-02,9.99999e-01,9.99999e-01,9.99981e-01,6.39401e-02,9.99999e-01
4.932130795e-01,6.75082e-02,9.99999e-01,9.99999e-01,9.99986e-01,6.75091e-02,9.99999e-01
4.956791449e-01,7.12003e-02,9.99999e-01,9.99999e-01,9.99992e-01,7.12008e-02,9.99999e-01
4.981575406e-01,7.50130e-02,9.99999e-01,9.99999e-01,9.99964e-01,7.50156e-02,9.99999e-01
5.006483283e-01,7.89461e-02,9.99999e-01,9.99999e-01,9.99909e-01,7.89532e-02,9.99999e-01
5.031515699e-01,8.29759e-02,9.99999e-01,9.99999e-01,9.99545e-01,8.30137e-02,9.99999e-01
5.056673278e-01,8.71756e-02,9.99999e-01,9.99999e-01,9.99760e-01,8.71965e-02,9.99999e-01
5.081956644e-01,9.14736e-02,9.99999e-01,9.99999e-01,9.99698e-01,9.15012e-02,9.99999e-01
5.107366428e-01,9.59075e-02,9.99999e-01,9.99999e-01,9.99796e-01,9.59271e-02,9.99999e-01
5.132903260e-01,1.00462e-01,9.99999e-01,9.99999e-01,9.99883e-01,1.00473e-01,9.99999e-01
5.158567776e-01,1.05133e-01,9.99999e-01,9.99999e-01,9.99950e-01,1.05139e-01,9.99999e-01
5.184360615e-01,1.09920e-01,9.99999e-01,9.99999e-01,9.99979e-01,1.09922e-01,9.99999e-01
5.210282418e-01,1.14821e-01,9.99999e-01,9.99999e-01,9.99992e-01,1.14822e-01,9.99999e-01
5.236333830e-01,1.19834e-01,9.99999e-01,9.99999e-01,9.99969e-01,1.19837e-01,9.99999e-01
5.262515499e-01,1.24964e-01,9.99999e-01,9.99999e-01,9.99981e-01,1.24966e-01,9.99999e-01
5.288828077e-01,1.30204e-01,9.99999e-01,9.99999e-01,9.99982e-01,1.30207e-01,9.99999e-01
5.315272217e-01,1.35555e-01,9.99999e-01,9.99999e-01,9.99984e-01,1.35557e-01,9.99999e-01
5.341848578e-01,1.41013e-01,9.99999e-01,9.99999e-01,9.99989e-01,1.41015e-01,9.99999e-01
5.368557821e-01,1.46573e-01,9.99999e-01,9.99999e-01,9.99964e-01,1.46578e-01,9.99999e-01
5.395400610e-01,1.52225e-01,9.99999e-01,9.99999e-01,9.99874e-01,1.52244e-01,9.99999e-01
5.422377613e-01,1.57986e-01,9.99999e-01,9.99999e-01,9.99839e-01,1.58011e-01,9.99999e-01
5.449489501e-01,1.63851e-01,9.99999e-01,9.99999e-01,9.99849e-01,1.63876e-01,9.99999e-01
5.476736949e-01,1.69814e-01,9.99999e-01,9.99999e-01,9.99867e-01,1.69836e-01,9.99999e-01
5.504120634e-01,1.75872e-01,9.99999e-01,9.99999e-01,9.99903e-01,1.75889e-01,9.99999e-01
5.531641237e-01,1.82023e-01,9.99999e-01,9.99999e-01,9.99951e-01,1.82032e-01,9.99999e-01
5.559299443e-01,1.88257e-01,9.99999e-01,9.99999e-01,9.99976e-01,1.88262e-01,9.99999e-01
5.587095940e-01,1.94572e-01,9.99999e-01,9.99999e-01,9.99984e-01,1.94575e-01,9.99999e-01
5.615031420e-01,2.00966e-01,9.99999e-01,9.99999e-01,9.99983e-01,2.00969e-01,9.99999e-01
5.643106577e-01,2.07437e-01,9.99999e-01,9.99999e-01,9.99980e-01,2.07441e-01,9.99999e-01
5.671322110e-01,2.13938e-01,9.99999e-01,9.99999e-01,9.99772e-01,2.13987e-01,9.99999e-01
5.699678720e-01,2.20552e-01,9.99999e-01,9.99999e-01,9.99762e-01,2.20604e-01,9.99999e-01
5.728177114e-01,2.27233e-01,9.99999e-01,9.99999e-01,9.99750e-01,2.27289e-01,9.99999e-01
5.756818000e-01,2.33986e-01,9.99999e-01,9.99999e-01,9.99771e-01,2.34039e-01,9.99999e-01
5.785602090e-01,2.40802e-01,9.99999e-01,9.99999e-01,9.99801e-01,2.40850e-01,9.99999e-01
5.814530100e-01,2.47669e-01,9.99999e-01,9.99999e-01,9.99799e-01,2.47718e-01,9.99999e-01
5.843602750e-01,2.54581e-01,9.99999e-01,9.99999e-01,9.99760e-01,2.54641e-01,9.99999e-01
5.872820764e-01,2.61076e-01,9.99999e-01,9.99999e-01,9.97938e-01,2.61615e-01,9.99999e-01
5.902184868e-01,2.67971e-01,9.99999e-01,9.99999e-01,9.97518e-01,2.68637e-01,9.99999e-01
5.931695792e-01,2.75218e-01,9.99999e-01,9.99999e-01,9.98242e-01,2.75703e-01,9.99999e-01
5.961354271e-01,2.82266e-01,9.99999e-01,9.99999e-01,9.98076e-01,2.82809e-01,9.99999e-01
5.991161043e-01,2.89547e-01,9.99999e-01,9.99999e-01,9.98598e-01,2.89953e-01,9.99999e-01
6.021116848e-01,2.96895e-01,9.99999e-01,9.99999e-01,9.99205e-01,2.97131e-01,9.99999e-01
6.051222432e-01,3.04218e-01,9.99999e-01,9.99999e-01,9.99597e-01,3.04340e-01,9.99999e-01
6.081478544e-01,3.11522e-01,9.99999e-01,9.99999e-01,9.99826e-01,3.11576e-01,9.99999e-01
6.111885937e-01,3.18813e-01,9.99999e-01,9.99999e-01,9.99926e-01,3.18836e-01,9.99999e-01
6.142445367e-01,3.26106e-01,9.99999e-01,9.99999e-01,9.99966e-01,3.26117e-01,9.99999e-01
6.173157594e-01,3.33409e-01,9.99999e-01,9.99999e-01,9.99981e-01,3.33415e-01,9.99999e-01
6.204023382e-01,3.40723e-01,9.99999e-01,9.99999e-01,9.99984e-01,3.40728e-01,9.99999e-01
6.235043498e-01,3.48028e-01,9.99999e-01,9.99999e-01,9.99931e-01,3.48052e-01,9.99999e-01
6.266218716e-01,3.55257e-01,9.99999e-01,9.99999e-01,9.99641e-01,3.55384e-01,9.99999e-01
6.297549810e-01,3.62673e-01,9.99999e-01,9.99999e-01,9.99868e-01,3.62721e-01,9.99999e-01
6.329037559e-01,3.69964e-01,9.99999e-01,9.99999e-01,9.99740e-01,3.70060e-01,9.99999e-01
6.360682746e-01,3.77314e-01,9.99999e-01,9.99999e-01,9.99778e-01,3.77398e-01,9.99999e-01
6.392486160e-01,3.84622e-01,9.99999e-01,9.99999e-01,9.99713e-01,3.84732e-01,9.99999e-01
6.424448591e-01,3.91909e-01,9.99999e-01,9.99999e-01,9.99614e-01,3.92060e-01,9.99999e-01
6.456570834e-01,3.98665e-01,9.99999e-01,9.99999e-01,9.98212e-01,3.99379e-01,9.99999e-01
6.488853688e-01,4.06157e-01,9.99999e-01,9.99999e-01,9.98701e-01,4.06685e-01,9.99999e-01
6.521297956e-01,4.13430e-01,9.99999e-01,9.99999e-01,9.98675e-01,4.13978e-01,9.99999e-01
6.553904446e-01,4.20696e-01,9.99999e-01,9.99999e-01,9.98678e-01,4.21252e-01,9.99999e-01
6.586673968e-01,4.28024e-01,9.99999e-01,9.99999e-01,9.98871e-01,4.28508e-01,9.99999e-01
6.619607338e-01,4.35467e-01,9.99999e-01,9.99999e-01,9.99370e-01,4.35741e-01,9.99999e-01
6.652705375e-01,4.42783e-01,9.99999e-01,9.99999e-01,9.99622e-01,4.42950e-01,9.99999e-01
6.685968902e-01,4.50060e-01,9.99999e-01,9.99999e-01,9.99839e-01,4.50132e-01,9.99999e-01
6.719398746e-01,4.57248e-01,9.99999e-01,9.99999e-01,9.99918e-01,4.57285e-01,9.99999e-01
6.752995740e-01,4.64388e-01,9.99999e-01,9.99999e-01,9.99956e-01,4.64408e-01,9.99999e-01
6.786760719e-01,4.71467e-01,9.99999e-01,9.99999e-01,9.99935e-01,4.71497e-01,9.99999e-01
6.820694522e-01,4.78499e-01,9.99999e-01,9.99999e-01,9.99890e-01,4.78551e-01,9.99999e-01
6.854797995e-01,4.85500e-01,9.99999e-01,9.99999e-01,9.99858e-01,4.85569e-01,9.99999e-01
6.889071985e-01,4.92378e-01,9.99999e-01,9.99999e-01,9.99655e-01,4.92547e-01,9.99999e-01
6.923517345e-01,4.96697e-01,9.99999e-01,9.99999e-01,9.94417e-01,4.99486e-01,9.99999e-01
6.958134932e-01,5.04931e-01,9.99999e-01,9.99999e-01,9.97134e-01,5.06382e-01,9.99999e-01
6.992925606e-01,5.11818e-01,9.99999e-01,9.99999e-01,9.97240e-01,5.13234e-01,9.99999e-01
7.027890234e-01,5.18279e-01,9.99999e-01,9.99999e-01,9.96612e-01,5.20040e-01,9.99999e-01
7.063029686e-01,5.25299e-01,9.99999e-01,9.99999e-01,9.97150e-01,5.26800e-01,9.99999e-01
7.098344834e-01,5.32054e-01,9.99999e-01,9.99999e-01,9.97265e-01,5.33512e-01,9.99999e-01
7.133836558e-01,5.38189e-01,9.99999e-01,9.99999e-01,9.96324e-01,5.40174e-01,9.99999e-01
7.169505741e-01,5.30821e-01,9.99999e-01,9.99999e-01,9.70803e-01,5.46785e-01,9.99999e-01
7.205353270e-01,5.45489e-01,9.99999e-01,9.99999e-01,9.85803e-01,5.53345e-01,9.99999e-01
7.241380036e-01,5.49671e-01,9.99999e-01,9.99999e-01,9.81816e-01,5.59851e-01,9.99999e-01
7.277586936e-01,5.57007e-01,9.99999e-01,9.99999e-01,9.83586e-01,5.66302e-01,9.99999e-01
7.313974871e-01,5.62761e-01,9.99999e-01,9.99999e-01,9.82646e-01,5.72699e-01,9.99999e-01
7.350544745e-01,5.73528e-01,9.99999e-01,9.99999e-01,9.90481e-01,5.79039e-01,9.99999e-01
7.387297469e-01,5.81222e-01,9.99999e-01,9.99999e-01,9.92995e-01,5.85322e-01,9.99999e-01
7.424233956e-01,5.89521e-01,9.99999e-01,9.99999e-01,9.96573e-01,5.91547e-01,9.99999e-01
7.461355126e-01,5.96471e-01,9.99999e-01,9.99999e-01,9.97920e-01,5.97714e-01,9.99999e-01
7.498661902e-01,6.03237e-01,9.99999e-01,9.99999e-01,9.99033e-01,6.03821e-01,9.99999e-01
7.536155211e-01,6.09578e-01,9.99999e-01,9.99999e-01,9.99524e-01,6.09868e-01,9.99999e-01
7.573835987e-01,6.15703e-01,9.99999e-01,9.99999e-01,9.99755e-01,6.15854e-01,9.99999e-01
7.611705167e-01,6.21685e-01,9.99999e-01,9.99999e-01,9.99847e-01,6.21779e-01,9.99999e-01
7.649763693e-01,6.27583e-01,9.99999e-01,9.99999e-01,9.99904e-01,6.27642e-01,9.99999e-01
7.688012511e-01,6.33401e-01,9.99999e-01,9.99999e-01,9.99933e-01,6.33444e-01,9.99999e-01
7.726452574e-01,6.39147e-01,9.99999e-01,9.99999e-01,9.99944e-01,6.39182e-01,9.99999e-01
7.765084837e-01,6.44808e-01,9.99999e-01,9.99999e-01,9.99921e-01,6.44858e-01,9.99999e-01
7.803910261e-01,6.36092e-01,9.99999e-01,9.78219e-01,9.99661e-01,6.50470e-01,9.99999e-01
7.842929812e-01,5.97856e-01,9.99999e-01,9.12381e-01,9.98820e-01,6.56020e-01,9.99999e-01
7.882144461e-01,5.97774e-01,9.99999e-01,9.05790e-01,9.97584e-01,6.61505e-01,9.99999e-01
7.921555184e-01,6.29134e-01,9.99999e-01,9.44561e-01,9.98679e-01,6.66927e-01,9.99999e-01
7.961162960e-01,6.45780e-01,9.99999e-01,9.62826e-01,9.97648e-01,6.72284e-01,9.99999e-01
8.000968774e-01,6.62001e-01,9.99999e-01,9.79655e-01,9.97295e-01,6.77578e-01,9.99999e-01
8.040973618e-01,6.73774e-01,9.99999e-01,9.89445e-01,9.97292e-01,6.82807e-01,9.99999e-01
8.081178486e-01,6.80431e-01,9.99999e-01,9.95128e-01,9.93873e-01,6.87973e-01,9.99999e-01
8.121584379e-01,6.74520e-01,9.99999e-01,9.98503e-01,9.74679e-01,6.93074e-01,9.99999e-01
8.162192301e-01,6.77076e-01,9.99999e-01,9.99669e-01,9.70184e-01,6.98111e-01,9.99999e-01
8.203003262e-01,6.92387e-01,9.99999e-01,9.99994e-01,9.84790e-01,7.03084e-01,9.99999e-01
8.244018279e-01,6.93209e-01,9.99999e-01,9.99999e-01,9.79117e-01,7.07994e-01,9.99999e-01
8.285238370e-01,7.00048e-01,9.99999e-01,9.99999e-01,9.82055e-01,7.12839e-01,9.99999e-01
8.326664562e-01,7.04635e-01,9.99999e-01,9.99999e-01,9.81902e-01,7.17621e-01,9.99999e-01
8.368297885e-01,7.13006e-01,9.99999e-01,9.99999e-01,9.87076e-01,7.22340e-01,9.99999e-01
8.410139374e-01,7.21405e-01,9.99999e-01,9.99999e-01,9.92309e-01,7.26996e-01,9.99999e-01
8.452190071e-01,7.28829e-01,9.99999e-01,9.99999e-01,9.96227e-01,7.31589e-01,9.99999e-01
8.494451021e-01,7.34504e-01,9.99999e-01,9.99999e-01,9.97804e-01,7.36119e-01,9.99999e-01
8.536923276e-01,7.39628e-01,9.99999e-01,9.99999e-01,9.98704e-01,7.40587e-01,9.99999e-01
8.579607893e-01,7.44398e-01,9.99999e-01,9.99999e-01,9.99200e-01,7.44993e-01,9.99999e-01
8.622505932e-01,7.48958e-01,9.99999e-01,9.99999e-01,9.99492e-01,7.49338e-01,9.99999e-01
8.665618462e-01,7.12083e-01,9.99999e-01,9.45170e-01,9.99685e-01,7.53621e-01,9.99999e-01
8.708946554e-01,5.98065e-01,9.99999e-01,7.89444e-01,9.99639e-01,7.57844e-01,9.99999e-01
8.752491287e-01,6.31030e-01,9.99999e-01,8.28508e-01,9.99517e-01,7.62006e-01,9.99999e-01
8.796253743e-01,6.91066e-01,9.99999e-01,9.02640e-01,9.99330e-01,7.66108e-01,9.99999e-01
8.840235012e-01,7.29910e-01,9.99999e-01,9.48467e-01,9.99236e-01,7.70150e-01,9.99999e-01
8.884436187e-01,7.56110e-01,9.99999e-01,9.79465e-01,9.97178e-01,7.74133e-01,9.99999e-01
8.928858368e-01,7.49049e-01,9.99999e-01,9.91621e-01,9.70807e-01,7.78058e-01,9.99999e-01
8.973502660e-01,7.40694e-01,9.99999e-01,9.97967e-01,9.49175e-01,7.81924e-01,9.99998e-01
9.018370173e-01,7.65017e-01,9.99999e-01,9.99776e-01,9.73848e-01,7.85733e-01,9.99998e-01
9.063462024e-01,7.66661e-01,9.99999e-01,9.94109e-01,9.76736e-01,7.89484e-01,9.99998e-01
9.108779334e-01,7.54645e-01,9.99999e-01,9.86783e-01,9.64066e-01,7.93179e-01,9.99998e-01
9.154323231e-01,7.62104e-01,9.99999e-01,9.96906e-01,9.59365e-01,7.96818e-01,9.99998e-01
9.200094847e-01,7.39904e-01,9.99999e-01,9.53897e-01,9.68063e-01,8.00400e-01,9.99998e-01
9.246095321e-01,7.15547e-01,9.99999e-01,9.36823e-01,9.49364e-01,8.03928e-01,9.99997e-01
9.292325798e-01,5.43895e-01,9.99999e-01,9.49588e-01,7.06796e-01,8.07401e-01,9.99994e-01
9.338787427e-01,4.95671e-01,9.99999e-01,9.51694e-01,6.40098e-01,8.10820e-01,9.99993e-01
9.385481364e-01,6.57180e-01,9.99999e-01,9.64320e-01,8.35909e-01,8.14186e-01,9.99993e-01
9.432408771e-01,6.21125e-01,9.99999e-01,9.78069e-01,7.76206e-01,8.17499e-01,9.99992e-01
9.479570815e-01,5.70681e-01,9.99999e-01,9.88675e-01,7.02978e-01,8.20759e-01,9.99993e-01
9.526968669e-01,6.32046e-01,9.99999e-01,9.94531e-01,7.71047e-01,8.23967e-01,9.99994e-01
9.574603512e-01,6.51563e-01,9.99999e-01,9.97660e-01,7.89517e-01,8.27125e-01,9.99995e-01
9.622476530e-01,6.85188e-01,9.99999e-01,9.99270e-01,8.25880e-01,8.30231e-01,9.99997e-01
9.670588912e-01,7.46185e-01,9.99999e-01,9.99781e-01,8.95661e-01,8.33288e-01,9.99998e-01
9.718941857e-01,7.80786e-01,9.99999e-01,9.99984e-01,9.33639e-01,8.36295e-01,9.99998e-01
9.767536566e-01,7.92761e-01,9.99999e-01,9.99999e-01,9.44603e-01,8.39254e-01,9.99998e-01
9.816374249e-01,8.07428e-01,9.99999e-01,9.99999e-01,9.58754e-01,8.42164e-01,9.99999e-01
9.865456120e-01,8.23099e-01,9.99999e-01,9.99999e-01,9.74051e-01,8.45026e-01,9.99999e-01
9.914783401e-01,8.34178e-01,9.99999e-01,9.99999e-01,9.83883e-01,8.47841e-01,9.99999e-01
9.964357318e-01,8.43121e-01,9.99999e-01,9.99999e-01,9.91194e-01,8.50610e-01,9.99999e-01
1.001417910e+00,8.48825e-01,9.99999e-01,9.99999e-01,9.94716e-01,8.53333e-01,9.99999e-01
1.006425000e+00,8.53427e-01,9.99999e-01,9.99999e-01,9.96981e-01,8.56011e-01,9.99999e-01
1.011457125e+00,8.57037e-01,9.99999e-01,9.99999e-01,9.98128e-01,8.58643e-01,9.99999e-01
1.016514411e+00,8.60137e-01,9.99999e-01,9.99999e-01,9.98728e-01,8.61232e-01,9.99999e-01
1.021596983e+00,8.62872e-01,9.99999e-01,9.99965e-01,9.98985e-01,8.63777e-01,9.99999e-01
1.026704968e+00,8.63604e-01,9.99999e-01,9.97699e-01,9.99208e-01,8.66279e-01,9.99999e-01
1.031838492e+00,8.39574e-01,9.99999e-01,9.66969e-01,9.99425e-01,8.68739e-01,9.99999e-01
1.036997685e+00,2.07928e-01,9.99999e-01,2.38747e-01,9.99658e-01,8.71157e-01,9.99999e-01
1.042182673e+00,2.33572e-01,9.99999e-01,2.67488e-01,9.99591e-01,8.73534e-01,9.99999e-01
1.047393587e+00,2.26509e-01,9.99999e-01,2.58736e-01,9.99459e-01,8.75870e-01,9.99999e-01
1.052630555e+00,2.27448e-02,9.99999e-01,2.59153e-02,9.99257e-01,8.78166e-01,9.99999e-01
1.057893707e+00,4.68013e-02,9.99999e-01,5.32076e-02,9.98759e-01,8.80422e-01,9.99999e-01
1.063183176e+00,1.03922e-01,9.99999e-01,1.17929e-01,9.97959e-01,8.82640e-01,9.99999e-01
1.068499092e+00,2.07825e-01,9.99999e-01,2.35596e-01,9.96588e-01,8.84819e-01,9.99999e-01
1.073841587e+00,3.55903e-01,9.99999e-01,4.02705e-01,9.96001e-01,8.86960e-01,9.99999e-01
1.079210795e+00,4.98026e-01,9.99999e-01,5.62884e-01,9.94890e-01,8.89064e-01,9.99999e-01
1.084606849e+00,6.46155e-01,9.99999e-01,7.30586e-01,9.92263e-01,8.91132e-01,9.99999e-01
1.090029883e+00,7.50702e-01,9.99999e-01,8.49813e-01,9.88852e-01,8.93163e-01,9.99999e-01
1.095480033e+00,8.01632e-01,9.99999e-01,9.23084e-01,9.69946e-01,8.95158e-01,9.99998e-01
1.100957433e+00,7.98889e-01,9.99999e-01,9.62204e-01,9.25259e-01,8.97119e-01,9.99998e-01
1.106462220e+00,7.25599e-01,9.99999e-01,9.84217e-01,8.19726e-01,8.99045e-01,9.99996e-01
1.111994531e+00,5.89818e-01,9.99999e-01,9.94122e-01,6.58368e-01,9.00936e-01,9.99993e-01
1.117554504e+00,4.57639e-01,9.99999e-01,9.98567e-01,5.07555e-01,9.02795e-01,9.99991e-01
1.123142276e+00,5.47075e-01,9.99999e-01,9.99905e-01,6.04798e-01,9.04620e-01,9.99989e-01
1.128757988e+00,6.58033e-01,9.99999e-01,9.99999e-01,7.25982e-01,9.06413e-01,9.99989e-01
1.134401778e+00,4.34582e-01,9.99999e-01,9.99999e-01,4.78528e-01,9.08174e-01,9.99987e-01
1.140073787e+00,7.52714e-01,9.99999e-01,9.99999e-01,8.27253e-01,9.09903e-01,9.99990e-01
1.145774156e+00,6.12688e-01,9.99999e-01,9.99999e-01,6.72105e-01,9.11602e-01,9.99991e-01
1.151503026e+00,5.85374e-01,9.99999e-01,9.99999e-01,6.40969e-01,9.13270e-01,9.99992e-01
1.157260541e+00,6.34059e-01,9.99999e-01,9.99999e-01,6.93033e-01,9.14908e-01,9.99994e-01
1.163046844e+00,6.99572e-01,9.99999e-01,9.99999e-01,7.63296e-01,9.16517e-01,9.99996e-01
1.168862078e+00,7.61614e-01,9.99999e-01,9.99999e-01,8.29559e-01,9.18096e-01,9.99997e-01
1.174706389e+00,8.19492e-01,9.99999e-01,9.99999e-01,8.91094e-01,9.19647e-01,9.99998e-01
1.180579921e+00,8.58776e-01,9.99999e-01,9.99999e-01,9.32266e-01,9.21170e-01,9.99998e-01
1.186482820e+00,8.86831e-01,9.99999e-01,9.99994e-01,9.61167e-01,9.22665e-01,9.99999e-01
1.192415234e+00,8.95605e-01,9.99999e-01,9.91733e-01,9.77152e-01,9.24133e-01,9.99999e-01
1.198377311e+00,5.24157e-01,9.99999e-01,5.75636e-01,9.80685e-01,9.25575e-01,9.99999e-01
1.204369197e+00,1.17172e-07,9.99999e-01,1.27753e-07,9.81715e-01,9.26990e-01,9.99999e-01
1.210391043e+00,1.80732e-25,9.99999e-01,1.96589e-25,9.82516e-01,9.28379e-01,9.99999e-01
1.216442998e+00,2.77494e-22,9.99999e-01,3.01244e-22,9.85129e-01,9.29742e-01,9.99999e-01
1.222525213e+00,5.73904e-22,9.99999e-01,6.20118e-22,9.88402e-01,9.31081e-01,9.99999e-01
1.228637839e+00,5.91471e-17,9.99999e-01,6.37997e-17,9.91930e-01,9.32395e-01,9.99999e-01
