#,Wave/freq,Total,O2,CO2,H2O,Rayleigh,CIA
4.000000000e-01,8.15114e-26,9.99999e-01,9.99999e-01,9.99886e-01,8.15206e-26,9.99999e-01
4.020000000e-01,2.55452e-25,9.99999e-01,9.99999e-01,9.99929e-01,2.55470e-25,9.99999e-01
4.040100000e-01,7.81795e-25,9.99999e-01,9.99999e-01,9.99969e-01,7.81818e-25,9.99999e-01
4.060300500e-01,2.34031e-24,9.99999e-01,9.99999e-01,9.99992e-01,2.34033e-24,9.99999e-01
4.080602003e-01,6.85553e-24,9.99999e-01,9.99999e-01,9.99997e-01,6.85555e-24,9.99999e-01
4.101005013e-01,1.96602e-23,9.99999e-01,9.99999e-01,9.99999e-01,1.96602e-23,9.99999e-01
4.121510038e-01,5.52197e-23,9.99999e-01,9.99999e-01,9.99995e-01,5.52199e-23,9.99999e-01
4.142117588e-01,1.51961e-22,9.99999e-01,9.99999e-01,9.99968e-01,1.51965e-22,9.99999e-01
4.162828176e-01,4.09872e-22,9.99999e-01,9.99999e-01,9.99859e-01,4.09929e-22,9.99999e-01
4.183642317e-01,1.08424e-21,9.99999e-01,9.99999e-01,9.99916e-01,1.08433e-21,9.99999e-01
4.204560528e-01,2.81350e-21,9.99999e-01,9.99999e-01,9.99948e-01,2.81364e-21,9.99999e-01
4.225583331e-01,7.16454e-21,9.99999e-01,9.99999e-01,9.99980e-01,7.16467e-21,9.99999e-01
4.246711247e-01,1.79102e-20,9.99999e-01,9.99999e-01,9.99984e-01,1.79104e-20,9.99999e-01
4.267944804e-01,4.39690e-20,9.99999e-01,9.99999e-01,9.99977e-01,4.39700e-20,9.99999e-01
4.289284528e-01,1.06046e-19,9.99999e-01,9.99999e-01,9.99982e-01,1.06048e-19,9.99999e-01
4.310730950e-01,2.51358e-19,9.99999e-01,9.99999e-01,9.99992e-01,2.51359e-19,9.99999e-01
4.332284605e-01,5.85713e-19,9.99999e-01,9.99999e-01,9.99997e-01,5.85714e-19,9.99999e-01
4.353946028e-01,1.34220e-18,9.99999e-01,9.99999e-01,9.99998e-01,1.34221e-18,9.99999e-01
4.375715758e-01,3.02575e-18,9.99999e-01,9.99999e-01,9.99985e-01,3.02579e-18,9.99999e-01
4.397594337e-01,6.71169e-18,9.99999e-01,9.99999e-01,9.99876e-01,6.71252e-18,9.99999e-01
4.419582309e-01,1.46496e-17,9.99999e-01,9.99999e-01,9.99373e-01,1.46588e-17,9.99999e-01
4.441680220e-01,3.15063e-17,9.99999e-01,9.99999e-01,9.99512e-01,3.15216e-17,9.99999e-01
4.463888621e-01,6.67316e-17,9.99999e-01,9.99999e-01,9.99492e-01,6.67655e-17,9.99999e-01
4.486208064e-01,1.39290e-16,9.99999e-01,9.99999e-01,9.99684e-01,1.39334e-16,9.99999e-01
4.508639105e-01,2.86541e-16,9.99999e-01,9.99999e-01,9.99852e-01,2.86583e-16,9.99999e-01
4.531182300e-01,5.81077e-16,9.99999e-01,9.99999e-01,9.99941e-01,5.81111e-16,9.99999e-01
4.553838212e-01,1.16194e-15,9.99999e-01,9.99999e-01,9.99960e-01,1.16199e-15,9.99999e-01
4.576607403e-01,2.29189e-15,9.99999e-01,9.99999e-01,9.99981e-01,2.29193e-15,9.99999e-01
4.599490440e-01,4.46035e-15,9.99999e-01,9.99999e-01,9.99986e-01,4.46040e-15,9.99999e-01
4.622487892e-01,8.56710e-15,9.99999e-01,9.99999e-01,9.99997e-01,8.56711e-15,9.99999e-01
4.645600332e-01,1.62440e-14,9.99999e-01,9.99999e-01,9.99990e-01,1.62441e-14,9.99999e-01
4.668828333e-01,3.04091e-14,9.99999e-01,9.99999e-01,9.99850e-01,3.04137e-14,9.99999e-01
4.692172475e-01,5.62242e-14,9.99999e-01,9.99999e-01,9.99681e-01,5.62421e-14,9.99999e-01
4.715633337e-01,1.02728e-13,9.99999e-01,9.99999e-01,9.99791e-01,1.02750e-13,9.99999e-01
4.739211504e-01,1.85457e-13,9.99999e-01,9.99999e-01,9.99800e-01,1.85494e-13,9.99999e-01
4.762907561e-01,3.30954e-13,9.99999e-01,9.99999e-01,9.99896e-01,3.30988e-13,9.99999e-01
4.786722099e-01,5.83860e-13,9.99999e-01,9.99999e-01,9.99957e-01,5.83885e-13,9.99999e-01
4.810655710e-01,1.01851e-12,9.99999e-01,9.99999e-01,9.99986e-01,1.01853e-12,9.99999e-01
4.834708988e-01,1.75708e-12,9.99999e-01,9.99999e-01,9.99877e-01,1.75729e-12,9.99999e-01
4.858882533e-01,2.99875e-12,9.99999e-01,9.99999e-01,9.99774e-01,2.99943e-12,9.99999e-01
4.883176946e-01,5.06481e-12,9.99999e-01,9.99999e-01,9.99811e-01,5.06577e-12,9.99999e-01
4.907592831e-01,8.46608e-12,9.99999e-01,9.99999e-01,9.99829e-01,8.46752e-12,9.99999e-01
4.932130795e-01,1.40090e-11,9.99999e-01,9.99999e-01,9.99878e-01,1.40107e-11,9.99999e-01
4.956791449e-01,2.29518e-11,9.99999e-01,9.99999e-01,9.99935e-01,2.29533e-11,9.99999e-01
4.981575406e-01,3.72268e-11,9.99999e-01,9.99999e-01,9.99679e-01,3.72387e-11,9.99999e-01
5.006483283e-01,5.97906e-11,9.99999e-01,9.99999e-01,9.99169e-01,5.98402e-11,9.99999e-01
5.031515699e-01,9.48631e-11,9.99999e-01,9.99999e-01,9.95804e-01,9.52627e-11,9.99999e-01
5.056673278e-01,1.49934e-10,9.99999e-01,9.99999e-01,9.97784e-01,1.50267e-10,9.99999e-01
5.081956644e-01,2.34250e-10,9.99999e-01,9.99999e-01,9.97205e-01,2.34907e-10,9.99999e-01
5.107366428e-01,3.63307e-10,9.99999e-01,9.99999e-01,9.98112e-01,3.63994e-10,9.99999e-01
5.132903260e-01,5.58557e-10,9.99999e-01,9.99999e-01,9.98921e-01,5.59160e-10,9.99999e-01
5.158567776e-01,8.51328e-10,9.99999e-01,9.99999e-01,9.99544e-01,8.51716e-10,9.99999e-01
5.184360615e-01,1.28637e-09,9.99999e-01,9.99999e-01,9.99817e-01,1.28660e-09,9.99999e-01
5.210282418e-01,1.92764e-09,9.99999e-01,9.99999e-01,9.99931e-01,1.92777e-09,9.99999e-01
5.236333830e-01,2.86469e-09,9.99999e-01,9.99999e-01,9.99725e-01,2.86547e-09,9.99999e-01
5.262515499e-01,4.22536e-09,9.99999e-01,9.99999e-01,9.99828e-01,4.22608e-09,9.99999e-01
5.288828077e-01,6.18412e-09,9.99999e-01,9.99999e-01,9.99842e-01,6.18509e-09,9.99999e-01
5.315272217e-01,8.98313e-09,9.99999e-01,9.99999e-01,9.99861e-01,8.98437e-09,9.99999e-01
5.341848578e-01,1.29535e-08,9.99999e-01,9.99999e-01,9.99909e-01,1.29547e-08,9.99999e-01
5.368557821e-01,1.85390e-08,9.99999e-01,9.99999e-01,9.99680e-01,1.85449e-08,9.99999e-01
5.395400610e-01,2.63297e-08,9.99999e-01,9.99999e-01,9.98847e-01,2.63601e-08,9.99999e-01
5.422377613e-01,3.71541e-08,9.99999e-01,9.99999e-01,9.98513e-01,3.72093e-08,9.99999e-01
5.449489501e-01,5.20953e-08,9.99999e-01,9.99999e-01,9.98615e-01,5.21675e-08,9.99999e-01
5.476736949e-01,7.25634e-08,9.99999e-01,9.99999e-01,9.98775e-01,7.26523e-08,9.99999e-01
5.504120634e-01,1.00432e-07,9.99999e-01,9.99999e-01,9.99111e-01,1.00521e-07,9.99999e-01
5.531641237e-01,1.38129e-07,9.99999e-01,9.99999e-01,9.99552e-01,1.38191e-07,9.99999e-01
5.559299443e-01,1.88747e-07,9.99999e-01,9.99999e-01,9.99783e-01,1.88787e-07,9.99999e-01
5.587095940e-01,2.56289e-07,9.99999e-01,9.99999e-01,9.99864e-01,2.56324e-07,9.99999e-01
5.615031420e-01,3.45873e-07,9.99999e-01,9.99999e-01,9.99848e-01,3.45925e-07,9.99999e-01
5.643106577e-01,4.64011e-07,9.99999e-01,9.99999e-01,9.99828e-01,4.64091e-07,9.99999e-01
5.671322110e-01,6.17729e-07,9.99999e-01,9.99999e-01,9.97917e-01,6.19018e-07,9.99999e-01
5.699678720e-01,8.19169e-07,9.99999e-01,9.99999e-01,9.97795e-01,8.20979e-07,9.99999e-01
5.728177114e-01,1.08029e-06,9.99999e-01,9.99999e-01,9.97699e-01,1.08278e-06,9.99999e-01
5.756818000e-01,1.41728e-06,9.99999e-01,9.99999e-01,9.97889e-01,1.42027e-06,9.99999e-01
5.785602090e-01,1.84960e-06,9.99999e-01,9.99999e-01,9.98160e-01,1.85301e-06,9.99999e-01
5.814530100e-01,2.40048e-06,9.99999e-01,9.99999e-01,9.98151e-01,2.40492e-06,9.99999e-01
5.843602750e-01,3.09834e-06,9.99999e-01,9.99999e-01,9.97794e-01,3.10519e-06,9.99999e-01
5.872820764e-01,3.91416e-06,9.99999e-01,9.99999e-01,9.81195e-01,3.98917e-06,9.99999e-01
5.902184868e-01,4.98342e-06,9.99999e-01,9.99999e-01,9.77234e-01,5.09951e-06,9.99999e-01
5.931695792e-01,6.38282e-06,9.99999e-01,9.99999e-01,9.83885e-01,6.48736e-06,9.99999e-01
5.961354271e-01,8.06866e-06,9.99999e-01,9.99999e-01,9.82333e-01,8.21377e-06,9.99999e-01
5.991161043e-01,1.02175e-05,9.99999e-01,9.99999e-01,9.87079e-01,1.03513e-05,9.99999e-01
6.021116848e-01,1.28901e-05,9.99999e-01,9.99999e-01,9.92649e-01,1.29855e-05,9.99999e-01
6.051222432e-01,1.61570e-05,9.99999e-01,9.99999e-01,9.96274e-01,1.62174e-05,9.99999e-01
6.081478544e-01,2.01324e-05,9.99999e-01,9.99999e-01,9.98390e-01,2.01649e-05,9.99999e-01
6.111885937e-01,2.49486e-05,9.99999e-01,9.99999e-01,9.99319e-01,2.49655e-05,9.99999e-01
6.142445367e-01,3.07697e-05,9.99999e-01,9.99999e-01,9.99695e-01,3.07790e-05,9.99999e-01
6.173157594e-01,3.77833e-05,9.99999e-01,9.99999e-01,9.99831e-01,3.77897e-05,9.99999e-01
6.204023382e-01,4.62029e-05,9.99999e-01,9.99999e-01,9.99857e-01,4.62095e-05,9.99999e-01
6.235043498e-01,5.62459e-05,9.99999e-01,9.99999e-01,9.99372e-01,5.62812e-05,9.99999e-01
6.266218716e-01,6.80559e-05,9.99999e-01,9.99999e-01,9.96692e-01,6.82817e-05,9.99999e-01
6.297549810e-01,8.24251e-05,9.99999e-01,9.99999e-01,9.98785e-01,8.25253e-05,9.99999e-01
6.329037559e-01,9.91293e-05,9.99999e-01,9.99999e-01,9.97602e-01,9.93675e-05,9.99999e-01
6.360682746e-01,1.18965e-04,9.99999e-01,9.99999e-01,9.97956e-01,1.19209e-04,9.99999e-01
6.392486160e-01,1.42122e-04,9.99999e-01,9.99999e-01,9.97352e-01,1.42499e-04,9.99999e-01
6.424448591e-01,1.69138e-04,9.99999e-01,9.99999e-01,9.96454e-01,1.69740e-04,9.99999e-01
6.456570834e-01,1.98197e-04,9.99999e-01,9.99999e-01,9.83656e-01,2.01490e-04,9.99999e-01
6.488853688e-01,2.35520e-04,9.99999e-01,9.99999e-01,9.88037e-01,2.38372e-04,9.99999e-01
6.521297956e-01,2.77644e-04,9.99999e-01,9.99999e-01,9.87815e-01,2.81069e-04,9.99999e-01
6.553904446e-01,3.26320e-04,9.99999e-01,9.99999e-01,9.87838e-01,3.30337e-04,9.99999e-01
6.586673968e-01,3.82976e-04,9.99999e-01,9.99999e-01,9.89588e-01,3.87005e-04,9.99999e-01
6.619607338e-01,4.49349e-04,9.99999e-01,9.99999e-01,9.94181e-01,4.51978e-04,9.99999e-01
6.652705375e-01,5.24404e-04,9.99999e-01,9.99999e-01,9.96503e-01,5.26244e-04,9.99999e-01
6.685968902e-01,6.09882e-04,9.99999e-01,9.99999e-01,9.98374e-01,6.10874e-04,9.99999e-01
6.719398746e-01,7.06497e-04,9.99999e-01,9.99999e-01,9.99246e-01,7.07029e-04,9.99999e-01
6.752995740e-01,8.15627e-04,9.99999e-01,9.99999e-01,9.99591e-01,8.15960e-04,9.99999e-01
6.786760719e-01,9.38457e-04,9.99999e-01,9.99999e-01,9.99409e-01,9.39012e-04,9.99999e-01
6.820694522e-01,1.07654e-03,9.99999e-01,9.99999e-01,9.98989e-01,1.07763e-03,9.99999e-01
6.854797995e-01,1.23174e-03,9.99999e-01,9.99999e-01,9.98697e-01,1.23334e-03,9.99999e-01
6.889071985e-01,1.40336e-03,9.99999e-01,9.99999e-01,9.96843e-01,1.40781e-03,9.99999e-01
6.923517345e-01,1.52242e-03,9.99999e-01,9.99999e-01,9.49876e-01,1.60275e-03,9.99998e-01
6.958134932e-01,1.77223e-03,9.99999e-01,9.99999e-01,9.73740e-01,1.82002e-03,9.99998e-01
6.992925606e-01,2.00976e-03,9.99999e-01,9.99999e-01,9.74873e-01,2.06157e-03,9.99998e-01
7.027890234e-01,2.25743e-03,9.99999e-01,9.99999e-01,9.69095e-01,2.32942e-03,9.99998e-01
7.063029686e-01,2.55726e-03,9.99999e-01,9.99999e-01,9.73919e-01,2.62574e-03,9.99998e-01
7.098344834e-01,2.87880e-03,9.99999e-01,9.99999e-01,9.74952e-01,2.95276e-03,9.99998e-01
7.133836558e-01,3.20286e-03,9.99999e-01,9.99999e-01,9.66808e-01,3.31281e-03,9.99998e-01
7.169505741e-01,2.84566e-03,9.99999e-01,9.99999e-01,7.67370e-01,3.70834e-03,9.99996e-01
7.205353270e-01,3.63570e-03,9.99999e-01,9.99999e-01,8.77800e-01,4.14185e-03,9.99995e-01
7.241380036e-01,3.90784e-03,9.99999e-01,9.99999e-01,8.46599e-01,4.61594e-03,9.99995e-01
7.277586936e-01,4.41759e-03,9.99999e-01,9.99999e-01,8.60575e-01,5.13330e-03,9.99996e-01
7.313974871e-01,4.85167e-03,9.99999e-01,9.99999e-01,8.51666e-01,5.69669e-03,9.99997e-01
7.350544745e-01,5.77708e-03,9.99999e-01,9.99999e-01,9.15702e-01,6.30891e-03,9.99998e-01
7.387297469e-01,6.53398e-03,9.99999e-01,9.99999e-01,9.37059e-01,6.97286e-03,9.99998e-01
7.424233956e-01,7.45037e-03,9.99999e-01,9.99999e-01,9.68654e-01,7.69146e-03,9.99999e-01
7.461355126e-01,8.30574e-03,9.99999e-01,9.99999e-01,9.80873e-01,8.46770e-03,9.99999e-01
7.498661902e-01,9.22133e-03,9.99999e-01,9.99999e-01,9.91051e-01,9.30458e-03,9.99999e-01
7.536155211e-01,1.01603e-02,9.99999e-01,9.99999e-01,9.95598e-01,1.02052e-02,9.99999e-01
7.573835987e-01,1.11472e-02,9.99999e-01,9.99999e-01,9.97732e-01,1.11725e-02,9.99999e-01
7.611705167e-01,1.21925e-02,9.99999e-01,9.99999e-01,9.98590e-01,1.22097e-02,9.99999e-01
7.649763693e-01,1.33080e-02,9.99999e-01,9.99999e-01,9.99115e-01,1.33198e-02,9.99999e-01
7.688012511e-01,1.44969e-02,9.99999e-01,9.99999e-01,9.99384e-01,1.45058e-02,9.99999e-01
7.726452574e-01,1.57629e-02,9.99999e-01,9.99999e-01,9.99493e-01,1.57709e-02,9.99999e-01
7.765084837e-01,1.71057e-02,9.99999e-01,9.99999e-01,9.99279e-01,1.71180e-02,9.99999e-01
7.803910261e-01,1.60755e-02,9.99999e-01,8.68984e-01,9.96888e-01,1.85502e-02,9.99999e-01
7.842929812e-01,9.32323e-03,9.99999e-01,4.68703e-01,9.89183e-01,2.00702e-02,9.99999e-01
7.882144461e-01,9.65567e-03,9.99999e-01,4.53922e-01,9.77865e-01,2.16811e-02,9.99999e-01
7.921555184e-01,1.39206e-02,9.99999e-01,6.01829e-01,9.87818e-01,2.33855e-02,9.99999e-01
7.961162960e-01,1.74273e-02,9.99999e-01,7.06403e-01,9.78541e-01,2.51863e-02,9.99999e-01
8.000968774e-01,2.18731e-02,9.99999e-01,8.27740e-01,9.75232e-01,2.70860e-02,9.99999e-01
8.040973618e-01,2.57188e-02,9.99999e-01,9.06411e-01,9.75232e-01,2.90872e-02,9.99998e-01
8.081178486e-01,2.81909e-02,9.99999e-01,9.55760e-01,9.45203e-01,3.11924e-02,9.99998e-01
8.121584379e-01,2.61412e-02,9.99999e-01,9.86145e-01,7.93003e-01,3.34037e-02,9.99996e-01
8.162192301e-01,2.70935e-02,9.99999e-01,9.96923e-01,7.60543e-01,3.57234e-02,9.99995e-01
8.203003262e-01,3.34149e-02,9.99999e-01,9.99954e-01,8.75824e-01,3.81536e-02,9.99995e-01
8.244018279e-01,3.39383e-02,9.99999e-01,9.99999e-01,8.33944e-01,4.06962e-02,9.99995e-01
8.285238370e-01,3.67567e-02,9.99999e-01,9.99999e-01,8.47848e-01,4.33530e-02,9.99996e-01
8.326664562e-01,3.90609e-02,9.99999e-01,9.99999e-01,8.46840e-01,4.61255e-02,9.99997e-01
8.368297885e-01,4.34792e-02,9.99999e-01,9.99999e-01,8.87054e-01,4.90153e-02,9.99998e-01
8.410139374e-01,4.84396e-02,9.99999e-01,9.99999e-01,9.31106e-01,5.20237e-02,9.99999e-01
8.452190071e-01,5.32515e-02,9.99999e-01,9.99999e-01,9.65545e-01,5.51517e-02,9.99999e-01
8.494451021e-01,5.72229e-02,9.99999e-01,9.99999e-01,9.79836e-01,5.84005e-02,9.99999e-01
8.536923276e-01,6.10317e-02,9.99999e-01,9.99999e-01,9.88036e-01,6.17707e-02,9.99999e-01
8.579607893e-01,6.47810e-02,9.99999e-01,9.99999e-01,9.92612e-01,6.52631e-02,9.99999e-01
8.622505932e-01,6.85545e-02,9.99999e-01,9.99999e-01,9.95301e-01,6.88781e-02,9.99999e-01
8.665618462e-01,6.04311e-02,9.99999e-01,8.34438e-01,9.97090e-01,7.26159e-02,9.99999e-01
8.708946554e-01,1.24249e-02,9.99999e-01,1.62939e-01,9.96667e-01,7.64767e-02,9.99999e-01
8.752491287e-01,1.67059e-02,9.99999e-01,2.08464e-01,9.95544e-01,8.04604e-02,9.99999e-01
8.796253743e-01,3.45126e-02,9.99999e-01,4.10328e-01,9.93833e-01,8.45668e-02,9.99999e-01
8.840235012e-01,5.46721e-02,9.99999e-01,6.19740e-01,9.92961e-01,8.87953e-02,9.99999e-01
8.884436187e-01,7.50804e-02,9.99999e-01,8.25914e-01,9.74682e-01,9.31455e-02,9.99998e-01
8.928858368e-01,6.95607e-02,9.99999e-01,9.24990e-01,7.67565e-01,9.76166e-02,9.99995e-01
8.973502660e-01,6.32256e-02,9.99999e-01,9.81244e-01,6.29211e-01,1.02208e-01,9.99993e-01
9.018370173e-01,8.42799e-02,9.99999e-01,9.97915e-01,7.89674e-01,1.06917e-01,9.99992e-01
9.063462024e-01,8.67321e-02,9.99999e-01,9.49577e-01,8.10727e-01,1.11745e-01,9.99991e-01
9.108779334e-01,7.50232e-02,9.99999e-01,8.84724e-01,7.21541e-01,1.16688e-01,9.99990e-01
9.154323231e-01,8.16950e-02,9.99999e-01,9.71655e-01,6.88537e-01,1.21746e-01,9.99990e-01
9.200094847e-01,7.26976e-02,9.99999e-01,7.25980e-01,7.47987e-01,1.26917e-01,9.99987e-01
9.246095321e-01,4.92005e-02,9.99999e-01,5.53112e-01,6.49862e-01,1.32199e-01,9.99978e-01
9.292325798e-01,8.09327e-03,9.99999e-01,6.38102e-01,8.16222e-02,1.37590e-01,9.99955e-01
9.338787427e-01,3.59766e-03,9.99999e-01,6.41774e-01,3.50414e-02,1.43087e-01,9.99941e-01
9.385481364e-01,2.88610e-02,9.99999e-01,7.18158e-01,2.54382e-01,1.48689e-01,9.99940e-01
9.432408771e-01,2.14472e-02,9.99999e-01,8.14665e-01,1.64452e-01,1.54393e-01,9.99933e-01
9.479570815e-01,1.13295e-02,9.99999e-01,8.99917e-01,7.71342e-02,1.60197e-01,9.99941e-01
9.526968669e-01,2.15895e-02,9.99999e-01,9.50533e-01,1.35050e-01,1.66098e-01,9.99955e-01
9.574603512e-01,2.48381e-02,9.99999e-01,9.78496e-01,1.46701e-01,1.72094e-01,9.99966e-01
9.622476530e-01,3.56861e-02,9.99999e-01,9.93240e-01,2.01309e-01,1.78181e-01,9.99977e-01
9.670588912e-01,7.18752e-02,9.99999e-01,9.97970e-01,3.90486e-01,1.84356e-01,9.99985e-01
9.718941857e-01,1.02767e-01,9.99999e-01,9.99856e-01,5.39185e-01,1.90618e-01,9.99991e-01
9.767536566e-01,1.17772e-01,9.99999e-01,9.99999e-01,5.97948e-01,1.96962e-01,9.99993e-01
9.816374249e-01,1.38422e-01,9.99999e-01,9.99999e-01,6.80594e-01,2.03385e-01,9.99995e-01
9.865456120e-01,1.64790e-01,9.99999e-01,9.99999e-01,7.85142e-01,2.09885e-01,9.99997e-01
9.914783401e-01,1.86268e-01,9.99999e-01,9.99999e-01,8.60523e-01,2.16458e-01,9.99998e-01
9.964357318e-01,2.05568e-01,9.99999e-01,9.99999e-01,9.21411e-01,2.23101e-01,9.99999e-01
1.001417910e+00,2.18798e-01,9.99999e-01,9.99999e-01,9.52076e-01,2.29811e-01,9.99999e-01
1.006425000e+00,2.30047e-01,9.99999e-01,9.99999e-01,9.72367e-01,2.36584e-01,9.99999e-01
1.011457125e+00,2.39223e-01,9.99999e-01,9.99999e-01,9.82768e-01,2.43417e-01,9.99999e-01
1.016514411e+00,2.47369e-01,9.99999e-01,9.99999e-01,9.88265e-01,2.50306e-01,9.99999e-01
1.021596983e+00,2.54768e-01,9.99999e-01,9.99711e-01,9.90638e-01,2.57249e-01,9.99999e-01
1.026704968e+00,2.56931e-01,9.99999e-01,9.79445e-01,9.92691e-01,2.64241e-01,9.99999e-01
1.031838492e+00,2.32927e-01,9.99999e-01,8.62878e-01,9.94684e-01,2.71280e-01,9.99999e-01
1.036997685e+00,6.64915e-03,9.99999e-01,2.39433e-02,9.96838e-01,2.78361e-01,9.99999e-01
1.042182673e+00,5.56267e-05,9.99999e-01,1.95375e-04,9.96229e-01,2.85482e-01,9.99999e-01
1.047393587e+00,1.57108e-04,9.99999e-01,5.39013e-04,9.95003e-01,2.92639e-01,9.99999e-01
1.052630555e+00,7.48324e-11,9.99999e-01,2.50634e-10,9.93149e-01,2.99829e-01,9.99999e-01
1.057893707e+00,2.80279e-10,9.99999e-01,9.17639e-10,9.88587e-01,3.07049e-01,9.99999e-01
1.063183176e+00,1.06612e-07,9.99999e-01,3.42556e-07,9.81302e-01,3.14294e-01,9.99999e-01
1.068499092e+00,2.84076e-06,9.99999e-01,8.97982e-06,9.68909e-01,3.21562e-01,9.99999e-01
1.073841587e+00,1.47995e-04,9.99999e-01,4.60562e-04,9.63776e-01,3.28850e-01,9.99998e-01
1.079210795e+00,2.77462e-03,9.99999e-01,8.53467e-03,9.53783e-01,3.36154e-01,9.99998e-01
1.084606849e+00,2.02744e-02,9.99999e-01,6.25631e-02,9.30982e-01,3.43471e-01,9.99997e-01
1.090029883e+00,7.43159e-02,9.99999e-01,2.31600e-01,9.02649e-01,3.50798e-01,9.99995e-01
1.095480033e+00,1.33064e-01,9.99999e-01,4.83397e-01,7.56982e-01,3.58133e-01,9.99992e-01
1.100957433e+00,1.30727e-01,9.99999e-01,7.01760e-01,5.00172e-01,3.65471e-01,9.99987e-01
1.106462220e+00,6.32021e-02,9.99999e-01,8.63309e-01,1.92226e-01,3.72810e-01,9.99973e-01
1.111994531e+00,1.28390e-02,9.99999e-01,9.46828e-01,3.51812e-02,3.80147e-01,9.99946e-01
1.117554504e+00,2.30548e-03,9.99999e-01,9.86760e-01,5.98638e-03,3.87479e-01,9.99924e-01
1.123142276e+00,1.28456e-02,9.99999e-01,9.99126e-01,3.25411e-02,3.94804e-01,9.99910e-01
1.128757988e+00,3.31665e-02,9.99999e-01,9.99999e-01,8.24875e-02,4.02118e-01,9.99902e-01
1.134401778e+00,1.58500e-02,9.99999e-01,9.99999e-01,3.87175e-02,4.09420e-01,9.99890e-01
1.140073787e+00,8.50793e-02,9.99999e-01,9.99999e-01,2.04189e-01,4.16706e-01,9.99911e-01
1.145774156e+00,2.20042e-02,9.99999e-01,9.99999e-01,5.19037e-02,4.23974e-01,9.99925e-01
1.151503026e+00,1.58489e-02,9.99999e-01,9.99999e-01,3.67560e-02,4.31221e-01,9.99935e-01
1.157260541e+00,2.06596e-02,9.99999e-01,9.99999e-01,4.71223e-02,4.38445e-01,9.99951e-01
1.163046844e+00,4.54587e-02,9.99999e-01,9.99999e-01,1.02010e-01,4.45644e-01,9.99968e-01
1.168862078e+00,8.62401e-02,9.99999e-01,9.99999e-01,1.90456e-01,4.52816e-01,9.99983e-01
1.174706389e+00,1.63963e-01,9.99999e-01,9.99999e-01,3.56476e-01,4.59958e-01,9.99991e-01
1.180579921e+00,2.47534e-01,9.99999e-01,9.99999e-01,5.29975e-01,4.67068e-01,9.99994e-01
1.186482820e+00,3.29524e-01,9.99999e-01,9.99959e-01,6.95008e-01,4.74145e-01,9.99995e-01
1.192415234e+00,3.64163e-01,9.99999e-01,9.33186e-01,8.07731e-01,4.81185e-01,9.99995e-01
1.198377311e+00,1.99207e-01,9.99999e-01,4.73619e-01,8.35417e-01,4.88188e-01,9.99996e-01
1.204369197e+00,2.23033e-52,9.99999e-01,4.97141e-52,8.44399e-01,4.95152e-01,9.99996e-01
1.210391043e+00,1.77727e-217,9.99999e-01,3.87592e-217,8.50156e-01,5.02075e-01,9.99997e-01
1.216442998e+00,5.95409e-188,9.99999e-01,1.27486e-187,8.71055e-01,5.08954e-01,9.99998e-01
1.222525213e+00,4.32358e-185,9.99999e-01,8.86244e-185,8.97760e-01,5.15790e-01,9.99998e-01
1.228637839e+00,2.12636e-142,9.99999e-01,4.27932e-142,9.27776e-01,5.22579e-01,9.99999e-01
