#,Wave/freq,Total,O2,CO2,H2O,Rayleigh,CIA
4.000000000e-01,2.48513e-05,9.99999e-01,9.99999e-01,9.99978e-01,2.48519e-05,9.99999e-01
4.020000000e-01,3.06479e-05,9.99999e-01,9.99999e-01,9.99986e-01,3.06483e-05,9.99999e-01
4.040100000e-01,3.76321e-05,9.99999e-01,9.99999e-01,9.99994e-01,3.76323e-05,9.99999e-01
4.060300500e-01,4.60208e-05,9.99999e-01,9.99999e-01,9.99998e-01,4.60209e-05,9.99999e-01
4.080602003e-01,5.60560e-05,9.99999e-01,9.99999e-01,9.99999e-01,5.60560e-05,9.99999e-01
4.101005013e-01,6.80138e-05,9.99999e-01,9.99999e-01,9.99999e-01,6.80138e-05,9.99999e-01
4.121510038e-01,8.22079e-05,9.99999e-01,9.99999e-01,9.99998e-01,8.22079e-05,9.99999e-01
4.142117588e-01,9.89924e-05,9.99999e-01,9.99999e-01,9.99993e-01,9.89930e-05,9.99999e-01
4.162828176e-01,1.18765e-04,9.99999e-01,9.99999e-01,9.99973e-01,1.18768e-04,9.99999e-01
4.183642317e-01,1.41981e-04,9.99999e-01,9.99999e-01,9.99984e-01,1.41983e-04,9.99999e-01
4.204560528e-01,1.69135e-04,9.99999e-01,9.99999e-01,9.99990e-01,1.69137e-04,9.99999e-01
4.225583331e-01,2.00788e-04,9.99999e-01,9.99999e-01,9.99995e-01,2.00789e-04,9.99999e-01
4.246711247e-01,2.37558e-04,9.99999e-01,9.99999e-01,9.99996e-01,2.37558e-04,9.99999e-01
4.267944804e-01,2.80128e-04,9.99999e-01,9.99999e-01,9.99995e-01,2.80129e-04,9.99999e-01
4.289284528e-01,3.29253e-04,9.99999e-01,9.99999e-01,9.99996e-01,3.29254e-04,9.99999e-01
4.310730950e-01,3.85761e-04,9.99999e-01,9.99999e-01,9.99998e-01,3.85761e-04,9.99999e-01
4.332284605e-01,4.50554e-04,9.99999e-01,9.99999e-01,9.99999e-01,4.50554e-04,9.99999e-01
4.353946028e-01,5.24619e-04,9.99999e-01,9.99999e-01,9.99999e-01,5.24619e-04,9.99999e-01
4.375715758e-01,6.09023e-04,9.99999e-01,9.99999e-01,9.99996e-01,6.09025e-04,9.99999e-01
4.397594337e-01,7.04915e-04,9.99999e-01,9.99999e-01,9.99977e-01,7.04931e-04,9.99999e-01
4.419582309e-01,8.13493e-04,9.99999e-01,9.99999e-01,9.99885e-01,8.13586e-04,9.99999e-01
4.441680220e-01,9.36250e-04,9.99999e-01,9.99999e-01,9.99909e-01,9.36334e-04,9.99999e-01
4.463888621e-01,1.07451e-03,9.99999e-01,9.99999e-01,9.99906e-01,1.07461e-03,9.99999e-01
4.486208064e-01,1.22989e-03,9.99999e-01,9.99999e-01,9.99941e-01,1.22996e-03,9.99999e-01
4.508639105e-01,1.40399e-03,9.99999e-01,9.99999e-01,9.99972e-01,1.40402e-03,9.99999e-01
4.531182300e-01,1.59851e-03,9.99999e-01,9.99999e-01,9.99988e-01,1.59853e-03,9.99999e-01
4.553838212e-01,1.81531e-03,9.99999e-01,9.99999e-01,9.99992e-01,1.81532e-03,9.99999e-01
4.576607403e-01,2.05634e-03,9.99999e-01,9.99999e-01,9.99996e-01,2.05635e-03,9.99999e-01
4.599490440e-01,2.32364e-03,9.99999e-01,9.99999e-01,9.99997e-01,2.32364e-03,9.99999e-01
4.622487892e-01,2.61935e-03,9.99999e-01,9.99999e-01,9.99999e-01,2.61935e-03,9.99999e-01
4.645600332e-01,2.94571e-03,9.99999e-01,9.99999e-01,9.99997e-01,2.94572e-03,9.99999e-01
4.668828333e-01,3.30498e-03,9.99999e-01,9.99999e-01,9.99972e-01,3.30507e-03,9.99999e-01
4.692172475e-01,3.69963e-03,9.99999e-01,9.99999e-01,9.99941e-01,3.69984e-03,9.99999e-01
4.715633337e-01,4.13239e-03,9.99999e-01,9.99999e-01,9.99961e-01,4.13255e-03,9.99999e-01
4.739211504e-01,4.60561e-03,9.99999e-01,9.99999e-01,9.99962e-01,4.60578e-03,9.99999e-01
4.762907561e-01,5.12213e-03,9.99999e-01,9.99999e-01,9.99980e-01,5.12223e-03,9.99999e-01
4.786722099e-01,5.68459e-03,9.99999e-01,9.99999e-01,9.99991e-01,5.68464e-03,9.99999e-01
4.810655710e-01,6.29581e-03,9.99999e-01,9.99999e-01,9.99997e-01,6.29583e-03,9.99999e-01
4.834708988e-01,6.95853e-03,9.99999e-01,9.99999e-01,9.99977e-01,6.95868e-03,9.99999e-01
4.858882533e-01,7.67582e-03,9.99999e-01,9.99999e-01,9.99958e-01,7.67613e-03,9.99999e-01
4.883176946e-01,8.45086e-03,9.99999e-01,9.99999e-01,9.99964e-01,8.45116e-03,9.99999e-01
4.907592831e-01,9.28648e-03,9.99999e-01,9.99999e-01,9.99968e-01,9.28677e-03,9.99999e-01
4.932130795e-01,1.01858e-02,9.99999e-01,9.99999e-01,9.99977e-01,1.01860e-02,9.99999e-01
4.956791449e-01,1.11518e-02,9.99999e-01,9.99999e-01,9.99987e-01,1.11520e-02,9.99999e-01
4.981575406e-01,1.21870e-02,9.99999e-01,9.99999e-01,9.99940e-01,1.21877e-02,9.99999e-01
5.006483283e-01,1.32942e-02,9.99999e-01,9.99999e-01,9.99847e-01,1.32962e-02,9.99999e-01
5.031515699e-01,1.44695e-02,9.99999e-01,9.99999e-01,9.99228e-01,1.44807e-02,9.99999e-01
5.056673278e-01,1.57377e-02,9.99999e-01,9.99999e-01,9.99592e-01,1.57441e-02,9.99999e-01
5.081956644e-01,1.70807e-02,9.99999e-01,9.99999e-01,9.99485e-01,1.70895e-02,9.99999e-01
5.107366428e-01,1.85134e-02,9.99999e-01,9.99999e-01,9.99652e-01,1.85199e-02,9.99999e-01
5.132903260e-01,2.00341e-02,9.99999e-01,9.99999e-01,9.99801e-01,2.00381e-02,9.99999e-01
5.158567776e-01,2.16452e-02,9.99999e-01,9.99999e-01,9.99915e-01,2.16471e-02,9.99999e-01
5.184360615e-01,2.33488e-02,9.99999e-01,9.99999e-01,9.99965e-01,2.33496e-02,9.99999e-01
5.210282418e-01,2.51480e-02,9.99999e-01,9.99999e-01,9.99986e-01,2.51483e-02,9.99999e-01
5.236333830e-01,2.70447e-02,9.99999e-01,9.99999e-01,9.99949e-01,2.70460e-02,9.99999e-01
5.262515499e-01,2.90442e-02,9.99999e-01,9.99999e-01,9.99968e-01,2.90451e-02,9.99999e-01
5.288828077e-01,3.11472e-02,9.99999e-01,9.99999e-01,9.99970e-01,3.11481e-02,9.99999e-01
5.315272217e-01,3.33564e-02,9.99999e-01,9.99999e-01,9.99974e-01,3.33572e-02,9.99999e-01
5.341848578e-01,3.56741e-02,9.99999e-01,9.99999e-01,9.99982e-01,3.56747e-02,9.99999e-01
5.368557821e-01,3.81004e-02,9.99999e-01,9.99999e-01,9.99941e-01,3.81026e-02,9.99999e-01
5.395400610e-01,4.06343e-02,9.99999e-01,9.99999e-01,9.99789e-01,4.06429e-02,9.99999e-01
5.422377613e-01,4.32854e-02,9.99999e-01,9.99999e-01,9.99726e-01,4.32973e-02,9.99999e-01
5.449489501e-01,4.60557e-02,9.99999e-01,9.99999e-01,9.99745e-01,4.60674e-02,9.99999e-01
5.476736949e-01,4.89437e-02,9.99999e-01,9.99999e-01,9.99774e-01,4.89548e-02,9.99999e-01
5.504120634e-01,5.19522e-02,9.99999e-01,9.99999e-01,9.99836e-01,5.19607e-02,9.99999e-01
5.531641237e-01,5.50817e-02,9.99999e-01,9.99999e-01,9.99917e-01,5.50863e-02,9.99999e-01
5.559299443e-01,5.83302e-02,9.99999e-01,9.99999e-01,9.99959e-01,5.83325e-02,9.99999e-01
5.587095940e-01,6.16988e-02,9.99999e-01,9.99999e-01,9.99974e-01,6.17003e-02,9.99999e-01
5.615031420e-01,6.51884e-02,9.99999e-01,9.99999e-01,9.99971e-01,6.51902e-02,9.99999e-01
5.643106577e-01,6.88005e-02,9.99999e-01,9.99999e-01,9.99968e-01,6.88026e-02,9.99999e-01
5.671322110e-01,7.25104e-02,9.99999e-01,9.99999e-01,9.99620e-01,7.25379e-02,9.99999e-01
5.699678720e-01,7.63651e-02,9.99999e-01,9.99999e-01,9.99592e-01,7.63962e-02,9.99999e-01
5.728177114e-01,8.03434e-02,9.99999e-01,9.99999e-01,9.99577e-01,8.03774e-02,9.99999e-01
5.756818000e-01,8.44485e-02,9.99999e-01,9.99999e-01,9.99611e-01,8.44812e-02,9.99999e-01
5.785602090e-01,8.86773e-02,9.99999e-01,9.99999e-01,9.99661e-01,8.87073e-02,9.99999e-01
5.814530100e-01,9.30234e-02,9.99999e-01,9.99999e-01,9.99660e-01,9.30550e-02,9.99999e-01
5.843602750e-01,9.74842e-02,9.99999e-01,9.99999e-01,9.99596e-01,9.75236e-02,9.99999e-01
5.872820764e-01,1.01757e-01,9.99999e-01,9.99999e-01,9.96521e-01,1.02112e-01,9.99999e-01
5.902184868e-01,1.06368e-01,9.99999e-01,9.99999e-01,9.95773e-01,1.06819e-01,9.99999e-01
5.931695792e-01,1.11311e-01,9.99999e-01,9.99999e-01,9.97015e-01,1.11644e-01,9.99999e-01
5.961354271e-01,1.16204e-01,9.99999e-01,9.99999e-01,9.96726e-01,1.16585e-01,9.99999e-01
5.991161043e-01,1.21351e-01,9.99999e-01,9.99999e-01,9.97611e-01,1.21641e-01,9.99999e-01
6.021116848e-01,1.26638e-01,9.99999e-01,9.99999e-01,9.98643e-01,1.26810e-01,9.99999e-01
6.051222432e-01,1.31999e-01,9.99999e-01,9.99999e-01,9.99313e-01,1.32089e-01,9.99999e-01
6.081478544e-01,1.37437e-01,9.99999e-01,9.99999e-01,9.99703e-01,1.37478e-01,9.99999e-01
6.111885937e-01,1.42955e-01,9.99999e-01,9.99999e-01,9.99874e-01,1.42973e-01,9.99999e-01
6.142445367e-01,1.48565e-01,9.99999e-01,9.99999e-01,9.99943e-01,1.48573e-01,9.99999e-01
6.173157594e-01,1.54271e-01,9.99999e-01,9.99999e-01,9.99968e-01,1.54275e-01,9.99999e-01
6.204023382e-01,1.60073e-01,9.99999e-01,9.99999e-01,9.99973e-01,1.60077e-01,9.99999e-01
6.235043498e-01,1.65957e-01,9.99999e-01,9.99999e-01,9.99885e-01,1.65976e-01,9.99999e-01
6.266218716e-01,1.71865e-01,9.99999e-01,9.99999e-01,9.99391e-01,1.71970e-01,9.99999e-01
6.297549810e-01,1.78015e-01,9.99999e-01,9.99999e-01,9.99776e-01,1.78055e-01,9.99999e-01
6.329037559e-01,1.84147e-01,9.99999e-01,9.99999e-01,9.99558e-01,1.84229e-01,9.99999e-01
6.360682746e-01,1.90417e-01,9.99999e-01,9.99999e-01,9.99624e-01,1.90488e-01,9.99999e-01
6.392486160e-01,1.96735e-01,9.99999e-01,9.99999e-01,9.99513e-01,1.96831e-01,9.99999e-01
6.424448591e-01,2.03121e-01,9.99999e-01,9.99999e-01,9.99350e-01,2.03253e-01,9.99999e-01
6.456570834e-01,2.09119e-01,9.99999e-01,9.99999e-01,9.96987e-01,2.09751e-01,9.99999e-01
6.488853688e-01,2.15844e-01,9.99999e-01,9.99999e-01,9.97785e-01,2.16323e-01,9.99999e-01
6.521297956e-01,2.22461e-01,9.99999e-01,9.99999e-01,9.97741e-01,2.22964e-01,9.99999e-01
6.553904446e-01,2.29160e-01,9.99999e-01,9.99999e-01,9.97766e-01,2.29673e-01,9.99999e-01
6.586673968e-01,2.35989e-01,9.99999e-01,9.99999e-01,9.98075e-01,2.36444e-01,9.99999e-01
6.619607338e-01,2.43005e-01,9.99999e-01,9.99999e-01,9.98886e-01,2.43276e-01,9.99999e-01
6.652705375e-01,2.50003e-01,9.99999e-01,9.99999e-01,9.99355e-01,2.50164e-01,9.99999e-01
6.685968902e-01,2.57029e-01,9.99999e-01,9.99999e-01,9.99700e-01,2.57106e-01,9.99999e-01
6.719398746e-01,2.64061e-01,9.99999e-01,9.99999e-01,9.99860e-01,2.64097e-01,9.99999e-01
6.752995740e-01,2.71115e-01,9.99999e-01,9.99999e-01,9.99924e-01,2.71135e-01,9.99999e-01
6.786760719e-01,2.78185e-01,9.99999e-01,9.99999e-01,9.99891e-01,2.78216e-01,9.99999e-01
6.820694522e-01,2.85283e-01,9.99999e-01,9.99999e-01,9.99814e-01,2.85336e-01,9.99999e-01
6.854797995e-01,2.92422e-01,9.99999e-01,9.99999e-01,9.99760e-01,2.92492e-01,9.99999e-01
6.889071985e-01,2.99509e-01,9.99999e-01,9.99999e-01,9.99424e-01,2.99681e-01,9.99999e-01
6.923517345e-01,3.04012e-01,9.99999e-01,9.99999e-01,9.90589e-01,3.06900e-01,9.99999e-01
6.958134932e-01,3.12594e-01,9.99999e-01,9.99999e-01,9.95062e-01,3.14145e-01,9.99999e-01
6.992925606e-01,3.19916e-01,9.99999e-01,9.99999e-01,9.95341e-01,3.21413e-01,9.99999e-01
7.027890234e-01,3.26805e-01,9.99999e-01,9.99999e-01,9.94234e-01,3.28700e-01,9.99999e-01
7.063029686e-01,3.34375e-01,9.99999e-01,9.99999e-01,9.95153e-01,3.36004e-01,9.99999e-01
7.098344834e-01,3.41724e-01,9.99999e-01,9.99999e-01,9.95349e-01,3.43321e-01,9.99999e-01
7.133836558e-01,3.48485e-01,9.99999e-01,9.99999e-01,9.93830e-01,3.50648e-01,9.99999e-01
7.169505741e-01,3.40526e-01,9.99999e-01,9.99999e-01,9.51237e-01,3.57982e-01,9.99998e-01
7.205353270e-01,3.56442e-01,9.99999e-01,9.99999e-01,9.75699e-01,3.65320e-01,9.99998e-01
7.241380036e-01,3.61255e-01,9.99999e-01,9.99999e-01,9.69398e-01,3.72659e-01,9.99998e-01
7.277586936e-01,3.69484e-01,9.99999e-01,9.99999e-01,9.72335e-01,3.79996e-01,9.99998e-01
7.313974871e-01,3.75922e-01,9.99999e-01,9.99999e-01,9.70549e-01,3.87329e-01,9.99999e-01
7.350544745e-01,3.88270e-01,9.99999e-01,9.99999e-01,9.83823e-01,3.94654e-01,9.99999e-01
7.387297469e-01,3.97174e-01,9.99999e-01,9.99999e-01,9.88072e-01,4.01968e-01,9.99999e-01
7.424233956e-01,4.06874e-01,9.99999e-01,9.99999e-01,9.94144e-01,4.09270e-01,9.99999e-01
7.461355126e-01,4.15078e-01,9.99999e-01,9.99999e-01,9.96450e-01,4.16556e-01,9.99999e-01
7.498661902e-01,4.23123e-01,9.99999e-01,9.99999e-01,9.98344e-01,4.23825e-01,9.99999e-01
7.536155211e-01,4.30723e-01,9.99999e-01,9.99999e-01,9.99188e-01,4.31072e-01,9.99999e-01
7.573835987e-01,4.38114e-01,9.99999e-01,9.99999e-01,9.99581e-01,4.38297e-01,9.99999e-01
7.611705167e-01,4.45381e-01,9.99999e-01,9.99999e-01,9.99740e-01,4.45497e-01,9.99999e-01
7.649763693e-01,4.52595e-01,9.99999e-01,9.99999e-01,9.99837e-01,4.52669e-01,9.99999e-01
7.688012511e-01,4.59760e-01,9.99999e-01,9.99999e-01,9.99886e-01,4.59812e-01,9.99999e-01
7.726452574e-01,4.66879e-01,9.99999e-01,9.99999e-01,9.99906e-01,4.66923e-01,9.99999e-01
7.765084837e-01,4.73937e-01,9.99999e-01,9.99999e-01,9.99867e-01,4.74000e-01,9.99999e-01
7.803910261e-01,4.64467e-01,9.99999e-01,9.66077e-01,9.99429e-01,4.81041e-01,9.99999e-01
7.842929812e-01,4.17257e-01,9.99999e-01,8.56573e-01,9.98011e-01,4.88045e-01,9.99999e-01
7.882144461e-01,4.17894e-01,9.99999e-01,8.47552e-01,9.95894e-01,4.95010e-01,9.99999e-01
7.921555184e-01,4.54757e-01,9.99999e-01,9.08011e-01,9.97743e-01,5.01933e-01,9.99999e-01
7.961162960e-01,4.75026e-01,9.99999e-01,9.37281e-01,9.96029e-01,5.08814e-01,9.99999e-01
8.000968774e-01,4.95592e-01,9.99999e-01,9.65524e-01,9.95405e-01,5.15650e-01,9.99999e-01
8.040973618e-01,5.10668e-01,9.99999e-01,9.81967e-01,9.95406e-01,5.22440e-01,9.99999e-01
8.081178486e-01,5.19386e-01,9.99999e-01,9.91694e-01,9.89690e-01,5.29183e-01,9.99999e-01
8.121584379e-01,5.11866e-01,9.99999e-01,9.97420e-01,9.57637e-01,5.35877e-01,9.99998e-01
8.162192301e-01,5.14957e-01,9.99999e-01,9.99429e-01,9.49722e-01,5.42522e-01,9.99998e-01
8.203003262e-01,5.35255e-01,9.99999e-01,9.99990e-01,9.74767e-01,5.49115e-01,9.99998e-01
8.244018279e-01,5.35972e-01,9.99999e-01,9.99999e-01,9.64577e-01,5.55655e-01,9.99998e-01
8.285238370e-01,5.45151e-01,9.99999e-01,9.99999e-01,9.69774e-01,5.62142e-01,9.99998e-01
8.326664562e-01,5.51177e-01,9.99999e-01,9.99999e-01,9.69401e-01,5.68574e-01,9.99999e-01
8.368297885e-01,5.62330e-01,9.99999e-01,9.99999e-01,9.78048e-01,5.74951e-01,9.99999e-01
8.410139374e-01,5.73658e-01,9.99999e-01,9.99999e-01,9.86902e-01,5.81271e-01,9.99999e-01
8.452190071e-01,5.83748e-01,9.99999e-01,9.99999e-01,9.93556e-01,5.87534e-01,9.99999e-01
8.494451021e-01,5.91520e-01,9.99999e-01,9.99999e-01,9.96263e-01,5.93738e-01,9.99999e-01
8.536923276e-01,5.98556e-01,9.99999e-01,9.99999e-01,9.97786e-01,5.99884e-01,9.99999e-01
8.579607893e-01,6.05144e-01,9.99999e-01,9.99999e-01,9.98637e-01,6.05969e-01,9.99999e-01
8.622505932e-01,6.11465e-01,9.99999e-01,9.99999e-01,9.99133e-01,6.11995e-01,9.99999e-01
8.665618462e-01,5.71512e-01,9.99999e-01,9.25312e-01,9.99464e-01,6.17960e-01,9.99999e-01
8.708946554e-01,4.21122e-01,9.99999e-01,6.75421e-01,9.99387e-01,6.23863e-01,9.99999e-01
8.752491287e-01,4.58398e-01,9.99999e-01,7.28535e-01,9.99180e-01,6.29704e-01,9.99999e-01
8.796253743e-01,5.33346e-01,9.99999e-01,8.40199e-01,9.98866e-01,6.35483e-01,9.99999e-01
8.840235012e-01,5.85099e-01,9.99999e-01,9.13671e-01,9.98705e-01,6.41200e-01,9.99999e-01
8.884436187e-01,6.21316e-01,9.99999e-01,9.65004e-01,9.95307e-01,6.46853e-01,9.99999e-01
8.928858368e-01,6.11913e-01,9.99999e-01,9.85689e-01,9.51376e-01,6.52443e-01,9.99998e-01
8.973502660e-01,6.00167e-01,9.99999e-01,9.96499e-01,9.15287e-01,6.57970e-01,9.99998e-01
9.018370173e-01,6.33813e-01,9.99999e-01,9.99613e-01,9.55712e-01,6.63433e-01,9.99998e-01
9.063462024e-01,6.36760e-01,9.99999e-01,9.90227e-01,9.61144e-01,6.68832e-01,9.99998e-01
9.108779334e-01,6.19618e-01,9.99999e-01,9.77527e-01,9.39950e-01,6.74167e-01,9.99997e-01
9.154323231e-01,6.29948e-01,9.99999e-01,9.94664e-01,9.32027e-01,6.79437e-01,9.99997e-01
9.200094847e-01,6.01631e-01,9.99999e-01,9.25881e-01,9.46310e-01,6.84644e-01,9.99997e-01
9.246095321e-01,5.67613e-01,9.99999e-01,8.94750e-01,9.17825e-01,6.89787e-01,9.99995e-01
9.292325798e-01,3.62092e-01,9.99999e-01,9.16830e-01,5.63124e-01,6.94865e-01,9.99991e-01
9.338787427e-01,3.08947e-01,9.99999e-01,9.19218e-01,4.75875e-01,6.99880e-01,9.99988e-01
9.385481364e-01,4.92675e-01,9.99999e-01,9.39986e-01,7.40917e-01,7.04830e-01,9.99988e-01
9.432408771e-01,4.52286e-01,9.99999e-01,9.62785e-01,6.60508e-01,7.09717e-01,9.99987e-01
9.479570815e-01,3.96516e-01,9.99999e-01,9.80749e-01,5.65217e-01,7.14540e-01,9.99988e-01
9.526968669e-01,4.63816e-01,9.99999e-01,9.90667e-01,6.50344e-01,7.19300e-01,9.99991e-01
9.574603512e-01,4.85015e-01,9.99999e-01,9.95998e-01,6.72426e-01,7.23996e-01,9.99993e-01
9.622476530e-01,5.26574e-01,9.99999e-01,9.98749e-01,7.23542e-01,7.28630e-01,9.99995e-01
9.670588912e-01,6.08251e-01,9.99999e-01,9.99624e-01,8.29880e-01,7.33201e-01,9.99996e-01
9.718941857e-01,6.56496e-01,9.99999e-01,9.99972e-01,8.89935e-01,7.37709e-01,9.99997e-01
9.767536566e-01,6.73695e-01,9.99999e-01,9.99999e-01,9.07755e-01,7.42155e-01,9.99998e-01
9.816374249e-01,6.94830e-01,9.99999e-01,9.99999e-01,9.30734e-01,7.46539e-01,9.99998e-01
9.865456120e-01,7.17932e-01,9.99999e-01,9.99999e-01,9.56144e-01,7.50862e-01,9.99999e-01
9.914783401e-01,7.34487e-01,9.99999e-01,9.99999e-01,9.72670e-01,7.55124e-01,9.99999e-01
9.964357318e-01,7.47954e-01,9.99999e-01,9.99999e-01,9.85024e-01,7.59325e-01,9.99999e-01
1.001417910e+00,7.56594e-01,9.99999e-01,9.99999e-01,9.90998e-01,7.63466e-01,9.99999e-01
1.006425000e+00,7.63604e-01,9.99999e-01,9.99999e-01,9.94863e-01,7.67546e-01,9.99999e-01
1.011457125e+00,7.69104e-01,9.99999e-01,9.99999e-01,9.96806e-01,7.71568e-01,9.99999e-01
1.016514411e+00,7.73849e-01,9.99999e-01,9.99999e-01,9.97832e-01,7.75530e-01,9.99999e-01
1.021596983e+00,7.78049e-01,9.99999e-01,9.99949e-01,9.98272e-01,7.79434e-01,9.99999e-01
1.026704968e+00,7.79243e-01,9.99999e-01,9.96185e-01,9.98652e-01,7.83280e-01,9.99999e-01
1.031838492e+00,7.51813e-01,9.99999e-01,9.56114e-01,9.99020e-01,7.87068e-01,9.99999e-01
1.036997685e+00,1.18688e-01,9.99999e-01,1.50155e-01,9.99418e-01,7.90800e-01,9.99999e-01
1.042182673e+00,9.07556e-02,9.99999e-01,1.14303e-01,9.99307e-01,7.94474e-01,9.99999e-01
1.047393587e+00,1.09605e-01,9.99999e-01,1.37446e-01,9.99080e-01,7.98093e-01,9.99999e-01
1.052630555e+00,2.83923e-03,9.99999e-01,3.54496e-03,9.98739e-01,8.01656e-01,9.99999e-01
1.057893707e+00,7.27503e-03,9.99999e-01,9.04818e-03,9.97897e-01,8.05165e-01,9.99999e-01
1.063183176e+00,2.50564e-02,9.99999e-01,3.10632e-02,9.96540e-01,8.08618e-01,9.99999e-01
1.068499092e+00,7.21618e-02,9.99999e-01,8.93003e-02,9.94209e-01,8.12019e-01,9.99999e-01
1.073841587e+00,1.75760e-01,9.99999e-01,2.16806e-01,9.93230e-01,8.15365e-01,9.99999e-01
1.079210795e+00,3.08501e-01,9.99999e-01,3.79834e-01,9.91322e-01,8.18659e-01,9.99999e-01
1.084606849e+00,4.76094e-01,9.99999e-01,5.86582e-01,9.86898e-01,8.21901e-01,9.99999e-01
1.090029883e+00,6.14134e-01,9.99999e-01,7.58135e-01,9.81262e-01,8.25092e-01,9.99998e-01
1.095480033e+00,6.86615e-01,9.99999e-01,8.72402e-01,9.49724e-01,8.28231e-01,9.99998e-01
1.100957433e+00,6.83272e-01,9.99999e-01,9.36358e-01,8.77166e-01,8.31320e-01,9.99997e-01
1.106462220e+00,5.83133e-01,9.99999e-01,9.73163e-01,7.17465e-01,8.34359e-01,9.99994e-01
1.111994531e+00,4.13024e-01,9.99999e-01,9.89968e-01,4.97890e-01,8.37349e-01,9.99989e-01
1.117554504e+00,2.72260e-01,9.99999e-01,9.97538e-01,3.24659e-01,8.40290e-01,9.99985e-01
1.123142276e+00,3.70964e-01,9.99999e-01,9.99837e-01,4.39997e-01,8.43183e-01,9.99983e-01
1.128757988e+00,4.98276e-01,9.99999e-01,9.99999e-01,5.88969e-01,8.46029e-01,9.99981e-01
1.134401778e+00,2.79387e-01,9.99999e-01,9.99999e-01,3.29151e-01,8.48827e-01,9.99979e-01
1.140073787e+00,6.19974e-01,9.99999e-01,9.99999e-01,7.28039e-01,8.51580e-01,9.99983e-01
1.145774156e+00,4.42080e-01,9.99999e-01,9.99999e-01,5.17491e-01,8.54287e-01,9.99985e-01
1.151503026e+00,4.12185e-01,9.99999e-01,9.99999e-01,4.80997e-01,8.56948e-01,9.99987e-01
1.157260541e+00,4.64388e-01,9.99999e-01,9.99999e-01,5.40263e-01,8.59565e-01,9.99990e-01
1.163046844e+00,5.46427e-01,9.99999e-01,9.99999e-01,6.33807e-01,8.62138e-01,9.99993e-01
1.168862078e+00,6.29391e-01,9.99999e-01,9.99999e-01,7.27900e-01,8.64668e-01,9.99996e-01
1.174706389e+00,7.12815e-01,9.99999e-01,9.99999e-01,8.22015e-01,8.67155e-01,9.99998e-01
1.180579921e+00,7.71723e-01,9.99999e-01,9.99999e-01,8.87445e-01,8.69600e-01,9.99998e-01
1.186482820e+00,8.15111e-01,9.99999e-01,9.99993e-01,9.34762e-01,8.72003e-01,9.99998e-01
1.192415234e+00,8.29384e-01,9.99999e-01,9.86472e-01,9.61411e-01,8.74366e-01,9.99998e-01
1.198377311e+00,4.78513e-01,9.99999e-01,5.61153e-01,9.67399e-01,8.76688e-01,9.99998e-01
1.204369197e+00,1.88639e-11,9.99999e-01,2.18536e-11,9.69116e-01,8.78969e-01,9.99999e-01
1.210391043e+00,9.40371e-42,9.99999e-01,1.08505e-41,9.70443e-01,8.81212e-01,9.99999e-01
1.216442998e+00,2.46631e-36,9.99999e-01,2.83618e-36,9.74783e-01,8.83416e-01,9.99999e-01
1.222525213e+00,8.27288e-36,9.99999e-01,9.43772e-36,9.80321e-01,8.85582e-01,9.99999e-01
1.228637839e+00,9.76439e-28,9.99999e-01,1.11050e-27,9.86299e-01,8.87710e-01,9.99999e-01
