#,Wave/freq,Total,O2,CO2,H2O,Rayleigh,CIA
4.000000000e-01,1.90302e-07,9.99999e-01,9.99999e-01,9.99969e-01,1.90308e-07,9.99999e-01
4.020000000e-01,2.58423e-07,9.99999e-01,9.99999e-01,9.99980e-01,2.58427e-07,9.99999e-01
4.040100000e-01,3.48705e-07,9.99999e-01,9.99999e-01,9.99991e-01,3.48707e-07,9.99999e-01
4.060300500e-01,4.67749e-07,9.99999e-01,9.99999e-01,9.99997e-01,4.67750e-07,9.99999e-01
4.080602003e-01,6.23801e-07,9.99999e-01,9.99999e-01,9.99998e-01,6.23802e-07,9.99999e-01
4.101005013e-01,8.27198e-07,9.99999e-01,9.99999e-01,9.99999e-01,8.27198e-07,9.99999e-01
4.121510038e-01,1.09082e-06,9.99999e-01,9.99999e-01,9.99998e-01,1.09082e-06,9.99999e-01
4.142117588e-01,1.43060e-06,9.99999e-01,9.99999e-01,9.99991e-01,1.43061e-06,9.99999e-01
4.162828176e-01,1.86616e-06,9.99999e-01,9.99999e-01,9.99962e-01,1.86623e-06,9.99999e-01
4.183642317e-01,2.42168e-06,9.99999e-01,9.99999e-01,9.99977e-01,2.42174e-06,9.99999e-01
4.204560528e-01,3.12643e-06,9.99999e-01,9.99999e-01,9.99985e-01,3.12647e-06,9.99999e-01
4.225583331e-01,4.01595e-06,9.99999e-01,9.99999e-01,9.99994e-01,4.01597e-06,9.99999e-01
4.246711247e-01,5.13307e-06,9.99999e-01,9.99999e-01,9.99995e-01,5.13309e-06,9.99999e-01
4.267944804e-01,6.52919e-06,9.99999e-01,9.99999e-01,9.99993e-01,6.52923e-06,9.99999e-01
4.289284528e-01,8.26570e-06,9.99999e-01,9.99999e-01,9.99994e-01,8.26573e-06,9.99999e-01
4.310730950e-01,1.04154e-05,9.99999e-01,9.99999e-01,9.99997e-01,1.04154e-05,9.99999e-01
4.332284605e-01,1.30644e-05,9.99999e-01,9.99999e-01,9.99998e-01,1.30644e-05,9.99999e-01
4.353946028e-01,1.63140e-05,9.99999e-01,9.99999e-01,9.99999e-01,1.63140e-05,9.99999e-01
4.375715758e-01,2.02825e-05,9.99999e-01,9.99999e-01,9.99995e-01,2.02826e-05,9.99999e-01
4.397594337e-01,2.51076e-05,9.99999e-01,9.99999e-01,9.99966e-01,2.51084e-05,9.99999e-01
4.419582309e-01,3.09465e-05,9.99999e-01,9.99999e-01,9.99830e-01,3.09517e-05,9.99999e-01
4.441680220e-01,3.79926e-05,9.99999e-01,9.99999e-01,9.99869e-01,3.79975e-05,9.99999e-01
4.463888621e-01,4.64523e-05,9.99999e-01,9.99999e-01,9.99863e-01,4.64586e-05,9.99999e-01
4.486208064e-01,5.65738e-05,9.99999e-01,9.99999e-01,9.99915e-01,5.65786e-05,9.99999e-01
4.508639105e-01,6.86326e-05,9.99999e-01,9.99999e-01,9.99960e-01,6.86353e-05,9.99999e-01
4.531182300e-01,8.29429e-05,9.99999e-01,9.99999e-01,9.99983e-01,8.29442e-05,9.99999e-01
4.553838212e-01,9.98609e-05,9.99999e-01,9.99999e-01,9.99988e-01,9.98620e-05,9.99999e-01
4.576607403e-01,1.19790e-04,9.99999e-01,9.99999e-01,9.99994e-01,1.19790e-04,9.99999e-01
4.599490440e-01,1.43180e-04,9.99999e-01,9.99999e-01,9.99996e-01,1.43180e-04,9.99999e-01
4.622487892e-01,1.70535e-04,9.99999e-01,9.99999e-01,9.99998e-01,1.70535e-04,9.99999e-01
4.645600332e-01,2.02415e-04,9.99999e-01,9.99999e-01,9.99997e-01,2.02416e-04,9.99999e-01
4.668828333e-01,2.39435e-04,9.99999e-01,9.99999e-01,9.99959e-01,2.39445e-04,9.99999e-01
4.692172475e-01,2.82285e-04,9.99999e-01,9.99999e-01,9.99914e-01,2.82309e-04,9.99999e-01
4.715633337e-01,3.31748e-04,9.99999e-01,9.99999e-01,9.99943e-01,3.31766e-04,9.99999e-01
4.739211504e-01,3.88625e-04,9.99999e-01,9.99999e-01,9.99946e-01,3.88646e-04,9.99999e-01
4.762907561e-01,4.53844e-04,9.99999e-01,9.99999e-01,9.99971e-01,4.53857e-04,9.99999e-01
4.786722099e-01,5.28382e-04,9.99999e-01,9.99999e-01,9.99988e-01,5.28388e-04,9.99999e-01
4.810655710e-01,6.13312e-04,9.99999e-01,9.99999e-01,9.99996e-01,6.13314e-04,9.99999e-01
4.834708988e-01,7.09773e-04,9.99999e-01,9.99999e-01,9.99966e-01,7.09797e-04,9.99999e-01
4.858882533e-01,8.19041e-04,9.99999e-01,9.99999e-01,9.99939e-01,8.19091e-04,9.99999e-01
4.883176946e-01,9.42496e-04,9.99999e-01,9.99999e-01,9.99948e-01,9.42543e-04,9.99999e-01
4.907592831e-01,1.08155e-03,9.99999e-01,9.99999e-01,9.99953e-01,1.08160e-03,9.99999e-01
4.932130795e-01,1.23776e-03,9.99999e-01,9.99999e-01,9.99967e-01,1.23780e-03,9.99999e-01
4.956791449e-01,1.41277e-03,9.99999e-01,9.99999e-01,9.99982e-01,1.41279e-03,9.99999e-01
4.981575406e-01,1.60818e-03,9.99999e-01,9.99999e-01,9.99913e-01,1.60832e-03,9.99999e-01
5.006483283e-01,1.82581e-03,9.99999e-01,9.99999e-01,9.99775e-01,1.82622e-03,9.99999e-01
5.031515699e-01,2.06611e-03,9.99999e-01,9.99999e-01,9.98871e-01,2.06844e-03,9.99999e-01
5.056673278e-01,2.33565e-03,9.99999e-01,9.99999e-01,9.99405e-01,2.33704e-03,9.99999e-01
5.081956644e-01,2.63218e-03,9.99999e-01,9.99999e-01,9.99250e-01,2.63416e-03,9.99999e-01
5.107366428e-01,2.96054e-03,9.99999e-01,9.99999e-01,9.99494e-01,2.96204e-03,9.99999e-01
5.132903260e-01,3.32206e-03,9.99999e-01,9.99999e-01,9.99711e-01,3.32302e-03,9.99999e-01
5.158567776e-01,3.71908e-03,9.99999e-01,9.99999e-01,9.99877e-01,3.71953e-03,9.99999e-01
5.184360615e-01,4.15390e-03,9.99999e-01,9.99999e-01,9.99950e-01,4.15410e-03,9.99999e-01
5.210282418e-01,4.62925e-03,9.99999e-01,9.99999e-01,9.99981e-01,4.62933e-03,9.99999e-01
5.236333830e-01,5.14752e-03,9.99999e-01,9.99999e-01,9.99926e-01,5.14790e-03,9.99999e-01
5.262515499e-01,5.71230e-03,9.99999e-01,9.99999e-01,9.99953e-01,5.71256e-03,9.99999e-01
5.288828077e-01,6.32588e-03,9.99999e-01,9.99999e-01,9.99957e-01,6.32615e-03,9.99999e-01
5.315272217e-01,6.99127e-03,9.99999e-01,9.99999e-01,9.99962e-01,6.99153e-03,9.99999e-01
5.341848578e-01,7.71146e-03,9.99999e-01,9.99999e-01,9.99975e-01,7.71165e-03,9.99999e-01
5.368557821e-01,8.48875e-03,9.99999e-01,9.99999e-01,9.99913e-01,8.48948e-03,9.99999e-01
5.395400610e-01,9.32515e-03,9.99999e-01,9.99999e-01,9.99688e-01,9.32805e-03,9.99999e-01
5.422377613e-01,1.02263e-02,9.99999e-01,9.99999e-01,9.99601e-01,1.02304e-02,9.99999e-01
5.449489501e-01,1.11954e-02,9.99999e-01,9.99999e-01,9.99627e-01,1.11996e-02,9.99999e-01
5.476736949e-01,1.22347e-02,9.99999e-01,9.99999e-01,9.99672e-01,1.22387e-02,9.99999e-01
5.504120634e-01,1.33476e-02,9.99999e-01,9.99999e-01,9.99761e-01,1.33508e-02,9.99999e-01
5.531641237e-01,1.45372e-02,9.99999e-01,9.99999e-01,9.99879e-01,1.45390e-02,9.99999e-01
5.559299443e-01,1.58053e-02,9.99999e-01,9.99999e-01,9.99941e-01,1.58062e-02,9.99999e-01
5.587095940e-01,1.71549e-02,9.99999e-01,9.99999e-01,9.99963e-01,1.71556e-02,9.99999e-01
5.615031420e-01,1.85893e-02,9.99999e-01,9.99999e-01,9.99959e-01,1.85900e-02,9.99999e-01
5.643106577e-01,2.01116e-02,9.99999e-01,9.99999e-01,9.99953e-01,2.01125e-02,9.99999e-01
5.671322110e-01,2.17136e-02,9.99999e-01,9.99999e-01,9.99435e-01,2.17259e-02,9.99999e-01
5.699678720e-01,2.34191e-02,9.99999e-01,9.99999e-01,9.99410e-01,2.34329e-02,9.99999e-01
5.728177114e-01,2.52207e-02,9.99999e-01,9.99999e-01,9.99381e-01,2.52363e-02,9.99999e-01
5.756818000e-01,2.71234e-02,9.99999e-01,9.99999e-01,9.99433e-01,2.71387e-02,9.99999e-01
5.785602090e-01,2.91284e-02,9.99999e-01,9.99999e-01,9.99506e-01,2.91427e-02,9.99999e-01
5.814530100e-01,3.12352e-02,9.99999e-01,9.99999e-01,9.99503e-01,3.12507e-02,9.99999e-01
5.843602750e-01,3.34450e-02,9.99999e-01,9.99999e-01,9.99405e-01,3.34649e-02,9.99999e-01
5.872820764e-01,3.56048e-02,9.99999e-01,9.99999e-01,9.94891e-01,3.57876e-02,9.99999e-01
5.902184868e-01,3.79858e-02,9.99999e-01,9.99999e-01,9.93850e-01,3.82208e-02,9.99999e-01
5.931695792e-01,4.05889e-02,9.99999e-01,9.99999e-01,9.95644e-01,4.07665e-02,9.99999e-01
5.961354271e-01,4.32193e-02,9.99999e-01,9.99999e-01,9.95232e-01,4.34263e-02,9.99999e-01
5.991161043e-01,4.60414e-02,9.99999e-01,9.99999e-01,9.96523e-01,4.62020e-02,9.99999e-01
6.021116848e-01,4.89982e-02,9.99999e-01,9.99999e-01,9.98027e-01,4.90950e-02,9.99999e-01
6.051222432e-01,5.20546e-02,9.99999e-01,9.99999e-01,9.99001e-01,5.21065e-02,9.99999e-01
6.081478544e-01,5.52141e-02,9.99999e-01,9.99999e-01,9.99568e-01,5.52379e-02,9.99999e-01
6.111885937e-01,5.84792e-02,9.99999e-01,9.99999e-01,9.99817e-01,5.84899e-02,9.99999e-01
6.142445367e-01,6.18584e-02,9.99999e-01,9.99999e-01,9.99918e-01,6.18634e-02,9.99999e-01
6.173157594e-01,6.53562e-02,9.99999e-01,9.99999e-01,9.99954e-01,6.53591e-02,9.99999e-01
6.204023382e-01,6.89748e-02,9.99999e-01,9.99999e-01,9.99961e-01,6.89774e-02,9.99999e-01
6.235043498e-01,7.27062e-02,9.99999e-01,9.99999e-01,9.99830e-01,7.27185e-02,9.99999e-01
6.266218716e-01,7.65147e-02,9.99999e-01,9.99999e-01,9.99111e-01,7.65827e-02,9.99999e-01
6.297549810e-01,8.05435e-02,9.99999e-01,9.99999e-01,9.99673e-01,8.05697e-02,9.99999e-01
6.329037559e-01,8.46250e-02,9.99999e-01,9.99999e-01,9.99357e-01,8.46793e-02,9.99999e-01
6.360682746e-01,8.88624e-02,9.99999e-01,9.99999e-01,9.99451e-01,8.89112e-02,9.99999e-01
6.392486160e-01,9.31985e-02,9.99999e-01,9.99999e-01,9.99289e-01,9.32647e-02,9.99999e-01
6.424448591e-01,9.76456e-02,9.99999e-01,9.99999e-01,9.99044e-01,9.77390e-02,9.99999e-01
6.456570834e-01,1.01880e-01,9.99999e-01,9.99999e-01,9.95569e-01,1.02333e-01,9.99999e-01
6.488853688e-01,1.06701e-01,9.99999e-01,9.99999e-01,9.96779e-01,1.07046e-01,9.99999e-01
6.521297956e-01,1.11509e-01,9.99999e-01,9.99999e-01,9.96717e-01,1.11877e-01,9.99999e-01
6.553904446e-01,1.16440e-01,9.99999e-01,9.99999e-01,9.96721e-01,1.16823e-01,9.99999e-01
6.586673968e-01,1.21543e-01,9.99999e-01,9.99999e-01,9.97200e-01,1.21884e-01,9.99999e-01
6.619607338e-01,1.26860e-01,9.99999e-01,9.99999e-01,9.98439e-01,1.27058e-01,9.99999e-01
6.652705375e-01,1.32219e-01,9.99999e-01,9.99999e-01,9.99063e-01,1.32343e-01,9.99999e-01
6.685968902e-01,1.37682e-01,9.99999e-01,9.99999e-01,9.99601e-01,1.37737e-01,9.99999e-01
6.719398746e-01,1.43208e-01,9.99999e-01,9.99999e-01,9.99798e-01,1.43237e-01,9.99999e-01
6.752995740e-01,1.48826e-01,9.99999e-01,9.99999e-01,9.99893e-01,1.48842e-01,9.99999e-01
6.786760719e-01,1.54524e-01,9.99999e-01,9.99999e-01,9.99840e-01,1.54549e-01,9.99999e-01
6.820694522e-01,1.60312e-01,9.99999e-01,9.99999e-01,9.99728e-01,1.60356e-01,9.99999e-01
6.854797995e-01,1.66201e-01,9.99999e-01,9.99999e-01,9.99650e-01,1.66259e-01,9.99999e-01
6.889071985e-01,1.72110e-01,9.99999e-01,9.99999e-01,9.99144e-01,1.72257e-01,9.99999e-01
6.923517345e-01,1.75886e-01,9.99999e-01,9.99999e-01,9.86206e-01,1.78346e-01,9.99999e-01
6.958134932e-01,1.83216e-01,9.99999e-01,9.99999e-01,9.92907e-01,1.84524e-01,9.99999e-01
6.992925606e-01,1.89484e-01,9.99999e-01,9.99999e-01,9.93166e-01,1.90788e-01,9.99999e-01
7.027890234e-01,1.95481e-01,9.99999e-01,9.99999e-01,9.91612e-01,1.97134e-01,9.99999e-01
7.063029686e-01,2.02123e-01,9.99999e-01,9.99999e-01,9.92939e-01,2.03560e-01,9.99999e-01
7.098344834e-01,2.08639e-01,9.99999e-01,9.99999e-01,9.93225e-01,2.10062e-01,9.99999e-01
7.133836558e-01,2.14667e-01,9.99999e-01,9.99999e-01,9.90906e-01,2.16637e-01,9.99999e-01
7.169505741e-01,2.07533e-01,9.99999e-01,9.99999e-01,9.29465e-01,2.23282e-01,9.99998e-01
7.205353270e-01,2.22003e-01,9.99999e-01,9.99999e-01,9.65259e-01,2.29993e-01,9.99998e-01
7.241380036e-01,2.26257e-01,9.99999e-01,9.99999e-01,9.55606e-01,2.36768e-01,9.99998e-01
7.277586936e-01,2.33829e-01,9.99999e-01,9.99999e-01,9.59880e-01,2.43602e-01,9.99998e-01
7.313974871e-01,2.39861e-01,9.99999e-01,9.99999e-01,9.57554e-01,2.50493e-01,9.99998e-01
7.350544745e-01,2.51403e-01,9.99999e-01,9.99999e-01,9.76562e-01,2.57437e-01,9.99999e-01
7.387297469e-01,2.59858e-01,9.99999e-01,9.99999e-01,9.82707e-01,2.64431e-01,9.99999e-01
7.424233956e-01,2.69168e-01,9.99999e-01,9.99999e-01,9.91516e-01,2.71471e-01,9.99999e-01
7.461355126e-01,2.77118e-01,9.99999e-01,9.99999e-01,9.94846e-01,2.78553e-01,9.99999e-01
7.498661902e-01,2.84990e-01,9.99999e-01,9.99999e-01,9.97602e-01,2.85675e-01,9.99999e-01
7.536155211e-01,2.92488e-01,9.99999e-01,9.99999e-01,9.98820e-01,2.92833e-01,9.99999e-01
7.573835987e-01,2.99842e-01,9.99999e-01,9.99999e-01,9.99392e-01,3.00024e-01,9.99999e-01
7.611705167e-01,3.07128e-01,9.99999e-01,9.99999e-01,9.99622e-01,3.07244e-01,9.99999e-01
7.649763693e-01,3.14416e-01,9.99999e-01,9.99999e-01,9.99763e-01,3.14490e-01,9.99999e-01
7.688012511e-01,3.21706e-01,9.99999e-01,9.99999e-01,9.99834e-01,3.21759e-01,9.99999e-01
7.726452574e-01,3.29002e-01,9.99999e-01,9.99999e-01,9.99863e-01,3.29047e-01,9.99999e-01
7.765084837e-01,3.36286e-01,9.99999e-01,9.99999e-01,9.99805e-01,3.36351e-01,9.99999e-01
7.803910261e-01,3.26513e-01,9.99999e-01,9.50839e-01,9.99161e-01,3.43669e-01,9.99999e-01
7.842929812e-01,2.80464e-01,9.99999e-01,8.01236e-01,9.97074e-01,3.50996e-01,9.99999e-01
7.882144461e-01,2.80954e-01,9.99999e-01,7.88517e-01,9.94014e-01,3.58331e-01,9.99999e-01
7.921555184e-01,3.16722e-01,9.99999e-01,8.68892e-01,9.96725e-01,3.65669e-01,9.99999e-01
7.961162960e-01,3.37643e-01,9.99999e-01,9.10425e-01,9.94174e-01,3.73008e-01,9.99999e-01
8.000968774e-01,3.59039e-01,9.99999e-01,9.50322e-01,9.93299e-01,3.80345e-01,9.99999e-01
8.040973618e-01,3.75078e-01,9.99999e-01,9.74016e-01,9.93290e-01,3.87677e-01,9.99999e-01
8.081178486e-01,3.84352e-01,9.99999e-01,9.87951e-01,9.84873e-01,3.95002e-01,9.99999e-01
8.121584379e-01,3.76203e-01,9.99999e-01,9.96289e-01,9.38526e-01,4.02316e-01,9.99998e-01
8.162192301e-01,3.79791e-01,9.99999e-01,9.99179e-01,9.27926e-01,4.09617e-01,9.99998e-01
8.203003262e-01,4.01523e-01,9.99999e-01,9.99988e-01,9.63120e-01,4.16902e-01,9.99998e-01
8.244018279e-01,4.02843e-01,9.99999e-01,9.99999e-01,9.49721e-01,4.24170e-01,9.99998e-01
8.285238370e-01,4.12498e-01,9.99999e-01,9.99999e-01,9.56148e-01,4.31416e-01,9.99998e-01
8.326664562e-01,4.19257e-01,9.99999e-01,9.99999e-01,9.55810e-01,4.38640e-01,9.99998e-01
8.368297885e-01,4.31687e-01,9.99999e-01,9.99999e-01,9.68257e-01,4.45838e-01,9.99999e-01
8.410139374e-01,4.44414e-01,9.99999e-01,9.99999e-01,9.81025e-01,4.53009e-01,9.99999e-01
8.452190071e-01,4.55853e-01,9.99999e-01,9.99999e-01,9.90660e-01,4.60150e-01,9.99999e-01
8.494451021e-01,4.64718e-01,9.99999e-01,9.99999e-01,9.94558e-01,4.67260e-01,9.99999e-01
8.536923276e-01,4.72811e-01,9.99999e-01,9.99999e-01,9.96786e-01,4.74335e-01,9.99999e-01
8.579607893e-01,4.80420e-01,9.99999e-01,9.99999e-01,9.98016e-01,4.81375e-01,9.99999e-01
8.622505932e-01,4.87763e-01,9.99999e-01,9.99999e-01,9.98741e-01,4.88377e-01,9.99999e-01
8.665618462e-01,4.47723e-01,9.99999e-01,9.04540e-01,9.99219e-01,4.95340e-01,9.99999e-01
8.708946554e-01,2.86848e-01,9.99999e-01,5.71599e-01,9.99104e-01,5.02261e-01,9.99999e-01
8.752491287e-01,3.23105e-01,9.99999e-01,6.35339e-01,9.98803e-01,5.09140e-01,9.99999e-01
8.796253743e-01,4.00826e-01,9.99999e-01,7.78071e-01,9.98339e-01,5.15974e-01,9.99999e-01
8.840235012e-01,4.57848e-01,9.99999e-01,8.77452e-01,9.98104e-01,5.22762e-01,9.99999e-01
8.884436187e-01,4.99502e-01,9.99999e-01,9.49874e-01,9.93022e-01,5.29503e-01,9.99999e-01
8.928858368e-01,4.88211e-01,9.99999e-01,9.79338e-01,9.29471e-01,5.36194e-01,9.99998e-01
8.973502660e-01,4.75047e-01,9.99999e-01,9.94963e-01,8.79417e-01,5.42836e-01,9.99997e-01
9.018370173e-01,5.14442e-01,9.99999e-01,9.99444e-01,9.36821e-01,5.49427e-01,9.99997e-01
9.063462024e-01,5.17367e-01,9.99999e-01,9.85557e-01,9.43585e-01,5.55965e-01,9.99997e-01
9.108779334e-01,4.97532e-01,9.99999e-01,9.67552e-01,9.13707e-01,5.62449e-01,9.99997e-01
9.154323231e-01,5.09677e-01,9.99999e-01,9.92343e-01,9.02631e-01,5.68879e-01,9.99996e-01
9.200094847e-01,4.78365e-01,9.99999e-01,8.95558e-01,9.23071e-01,5.75253e-01,9.99996e-01
9.246095321e-01,4.38145e-01,9.99999e-01,8.50994e-01,8.81700e-01,5.81570e-01,9.99993e-01
9.292325798e-01,2.31432e-01,9.99999e-01,8.80929e-01,4.38950e-01,5.87830e-01,9.99987e-01
9.338787427e-01,1.86678e-01,9.99999e-01,8.85082e-01,3.49127e-01,5.94032e-01,9.99983e-01
9.385481364e-01,3.60967e-01,9.99999e-01,9.14005e-01,6.53329e-01,6.00174e-01,9.99983e-01
9.432408771e-01,3.19954e-01,9.99999e-01,9.46473e-01,5.55288e-01,6.06257e-01,9.99981e-01
9.479570815e-01,2.66561e-01,9.99999e-01,9.72126e-01,4.46907e-01,6.12280e-01,9.99984e-01
9.526968669e-01,3.32034e-01,9.99999e-01,9.86486e-01,5.43559e-01,6.18242e-01,9.99987e-01
9.574603512e-01,3.51109e-01,9.99999e-01,9.94202e-01,5.65520e-01,6.24142e-01,9.99990e-01
9.622476530e-01,3.94897e-01,9.99999e-01,9.98189e-01,6.27883e-01,6.29980e-01,9.99993e-01
9.670588912e-01,4.85443e-01,9.99999e-01,9.99457e-01,7.63954e-01,6.35756e-01,9.99995e-01
9.718941857e-01,5.41410e-01,9.99999e-01,9.99961e-01,8.44044e-01,6.41470e-01,9.99997e-01
9.767536566e-01,5.62112e-01,9.99999e-01,9.99999e-01,8.68637e-01,6.47120e-01,9.99997e-01
9.816374249e-01,5.88063e-01,9.99999e-01,9.99999e-01,9.00960e-01,6.52707e-01,9.99998e-01
9.865456120e-01,6.16694e-01,9.99999e-01,9.99999e-01,9.36895e-01,6.58231e-01,9.99999e-01
9.914783401e-01,6.37463e-01,9.99999e-01,9.99999e-01,9.60482e-01,6.63691e-01,9.99999e-01
9.964357318e-01,6.54560e-01,9.99999e-01,9.99999e-01,9.78288e-01,6.69087e-01,9.99999e-01
1.001417910e+00,6.65607e-01,9.99999e-01,9.99999e-01,9.86933e-01,6.74419e-01,9.99999e-01
1.006425000e+00,6.74604e-01,9.99999e-01,9.99999e-01,9.92521e-01,6.79686e-01,9.99999e-01
1.011457125e+00,6.81713e-01,9.99999e-01,9.99999e-01,9.95360e-01,6.84890e-01,9.99999e-01
1.016514411e+00,6.87853e-01,9.99999e-01,9.99999e-01,9.96845e-01,6.90030e-01,9.99999e-01
1.021596983e+00,6.93299e-01,9.99999e-01,9.99915e-01,9.97484e-01,6.95105e-01,9.99999e-01
1.026704968e+00,6.94773e-01,9.99999e-01,9.94314e-01,9.98037e-01,7.00117e-01,9.99999e-01
1.031838492e+00,6.61337e-01,9.99999e-01,9.39266e-01,9.98574e-01,7.05064e-01,9.99999e-01
1.036997685e+00,7.40516e-02,9.99999e-01,1.04374e-01,9.99152e-01,7.09948e-01,9.99999e-01
1.042182673e+00,3.41879e-02,9.99999e-01,4.78719e-02,9.98986e-01,7.14768e-01,9.99999e-01
1.047393587e+00,5.05659e-02,9.99999e-01,7.03587e-02,9.98658e-01,7.19525e-01,9.99999e-01
1.052630555e+00,3.41145e-04,9.99999e-01,4.71657e-04,9.98157e-01,7.24218e-01,9.99999e-01
1.057893707e+00,1.07167e-03,9.99999e-01,1.47316e-03,9.96922e-01,7.28849e-01,9.99999e-01
1.063183176e+00,5.72506e-03,9.99999e-01,7.83232e-03,9.94942e-01,7.33416e-01,9.99999e-01
1.068499092e+00,2.28613e-02,9.99999e-01,3.11885e-02,9.91552e-01,7.37922e-01,9.99999e-01
1.073841587e+00,8.18323e-02,9.99999e-01,1.11126e-01,9.90108e-01,7.42365e-01,9.99999e-01
1.079210795e+00,1.83726e-01,9.99999e-01,2.48789e-01,9.87367e-01,7.46746e-01,9.99999e-01
1.084606849e+00,3.41129e-01,9.99999e-01,4.62448e-01,9.80916e-01,7.51066e-01,9.99998e-01
1.090029883e+00,4.92156e-01,9.99999e-01,6.69191e-01,9.72598e-01,7.55325e-01,9.99998e-01
1.095480033e+00,5.78463e-01,9.99999e-01,8.20442e-01,9.27183e-01,7.59523e-01,9.99997e-01
1.100957433e+00,5.73885e-01,9.99999e-01,9.08919e-01,8.25583e-01,7.63661e-01,9.99996e-01
1.106462220e+00,4.56365e-01,9.99999e-01,9.61305e-01,6.17095e-01,7.67739e-01,9.99992e-01
1.111994531e+00,2.79571e-01,9.99999e-01,9.85475e-01,3.67055e-01,7.71757e-01,9.99985e-01
1.117554504e+00,1.55642e-01,9.99999e-01,9.96447e-01,2.01182e-01,7.75717e-01,9.99979e-01
1.123142276e+00,2.48221e-01,9.99999e-01,9.99767e-01,3.18420e-01,7.79618e-01,9.99975e-01
1.128757988e+00,3.68234e-01,9.99999e-01,9.99999e-01,4.70021e-01,7.83461e-01,9.99973e-01
1.134401778e+00,1.87952e-01,9.99999e-01,9.99999e-01,2.38752e-01,7.87247e-01,9.99970e-01
1.140073787e+00,5.00038e-01,9.99999e-01,9.99999e-01,6.32193e-01,7.90975e-01,9.99976e-01
1.145774156e+00,3.11793e-01,9.99999e-01,9.99999e-01,3.92374e-01,7.94648e-01,9.99979e-01
1.151503026e+00,2.83232e-01,9.99999e-01,9.99999e-01,3.54815e-01,7.98264e-01,9.99982e-01
1.157260541e+00,3.30465e-01,9.99999e-01,9.99999e-01,4.12146e-01,8.01824e-01,9.99986e-01
1.163046844e+00,4.17551e-01,9.99999e-01,9.99999e-01,5.18488e-01,8.05330e-01,9.99991e-01
1.168862078e+00,5.10372e-01,9.99999e-01,9.99999e-01,6.31040e-01,8.08781e-01,9.99995e-01
1.174706389e+00,6.11159e-01,9.99999e-01,9.99999e-01,7.52494e-01,8.12179e-01,9.99997e-01
1.180579921e+00,6.85715e-01,9.99999e-01,9.99999e-01,8.40828e-01,8.15523e-01,9.99998e-01
1.186482820e+00,7.42236e-01,9.99999e-01,9.99987e-01,9.06487e-01,8.18815e-01,9.99998e-01
1.192415234e+00,7.60922e-01,9.99999e-01,9.79949e-01,9.44256e-01,8.22054e-01,9.99998e-01
1.198377311e+00,4.35261e-01,9.99999e-01,5.49163e-01,9.52760e-01,8.25242e-01,9.99998e-01
1.204369197e+00,1.11062e-15,9.99999e-01,1.37662e-15,9.55297e-01,8.28379e-01,9.99998e-01
1.210391043e+00,6.48298e-60,9.99999e-01,7.98884e-60,9.57198e-01,8.31465e-01,9.99998e-01
1.216442998e+00,5.27095e-52,9.99999e-01,6.46343e-52,9.63523e-01,8.34502e-01,9.99999e-01
1.222525213e+00,3.08127e-51,9.99999e-01,3.73447e-51,9.71462e-01,8.37490e-01,9.99999e-01
1.228637839e+00,1.13518e-39,9.99999e-01,1.36939e-39,9.80088e-01,8.40429e-01,9.99999e-01
