#,Wave/freq,Total,O2,CO2,H2O,Rayleigh,CIA
4.000000000e-01,1.25334e-02,9.99999e-01,9.99999e-01,9.99990e-01,1.25335e-02,9.99999e-01
4.020000000e-01,1.36672e-02,9.99999e-01,9.99999e-01,9.99994e-01,1.36672e-02,9.99999e-01
4.040100000e-01,1.48766e-02,9.99999e-01,9.99999e-01,9.99997e-01,1.48767e-02,9.99999e-01
4.060300500e-01,1.61660e-02,9.99999e-01,9.99999e-01,9.99998e-01,1.61660e-02,9.99999e-01
4.080602003e-01,1.75383e-02,9.99999e-01,9.99999e-01,9.99999e-01,1.75383e-02,9.99999e-01
4.101005013e-01,1.89965e-02,9.99999e-01,9.99999e-01,9.99999e-01,1.89965e-02,9.99999e-01
4.121510038e-01,2.05435e-02,9.99999e-01,9.99999e-01,9.99999e-01,2.05435e-02,9.99999e-01
4.142117588e-01,2.21820e-02,9.99999e-01,9.99999e-01,9.99997e-01,2.21821e-02,9.99999e-01
4.162828176e-01,2.39149e-02,9.99999e-01,9.99999e-01,9.99988e-01,2.39152e-02,9.99999e-01
4.183642317e-01,2.57452e-02,9.99999e-01,9.99999e-01,9.99993e-01,2.57453e-02,9.99999e-01
4.204560528e-01,2.76751e-02,9.99999e-01,9.99999e-01,9.99995e-01,2.76752e-02,9.99999e-01
4.225583331e-01,2.97073e-02,9.99999e-01,9.99999e-01,9.99998e-01,2.97073e-02,9.99999e-01
4.246711247e-01,3.18440e-02,9.99999e-01,9.99999e-01,9.99998e-01,3.18441e-02,9.99999e-01
4.267944804e-01,3.40876e-02,9.99999e-01,9.99999e-01,9.99997e-01,3.40877e-02,9.99999e-01
4.289284528e-01,3.64403e-02,9.99999e-01,9.99999e-01,9.99998e-01,3.64403e-02,9.99999e-01
4.310730950e-01,3.89040e-02,9.99999e-01,9.99999e-01,9.99998e-01,3.89040e-02,9.99999e-01
4.332284605e-01,4.14806e-02,9.99999e-01,9.99999e-01,9.99999e-01,4.14806e-02,9.99999e-01
4.353946028e-01,4.41719e-02,9.99999e-01,9.99999e-01,9.99999e-01,4.41719e-02,9.99999e-01
4.375715758e-01,4.69794e-02,9.99999e-01,9.99999e-01,9.99998e-01,4.69795e-02,9.99999e-01
4.397594337e-01,4.99042e-02,9.99999e-01,9.99999e-01,9.99990e-01,4.99047e-02,9.99999e-01
4.419582309e-01,5.29463e-02,9.99999e-01,9.99999e-01,9.99952e-01,5.29488e-02,9.99999e-01
4.441680220e-01,5.61109e-02,9.99999e-01,9.99999e-01,9.99962e-01,5.61130e-02,9.99999e-01
4.463888621e-01,5.93958e-02,9.99999e-01,9.99999e-01,9.99961e-01,5.93981e-02,9.99999e-01
4.486208064e-01,6.28034e-02,9.99999e-01,9.99999e-01,9.99975e-01,6.28049e-02,9.99999e-01
4.508639105e-01,6.63332e-02,9.99999e-01,9.99999e-01,9.99988e-01,6.63340e-02,9.99999e-01
4.531182300e-01,6.99854e-02,9.99999e-01,9.99999e-01,9.99995e-01,6.99857e-02,9.99999e-01
4.553838212e-01,7.37602e-02,9.99999e-01,9.99999e-01,9.99996e-01,7.37604e-02,9.99999e-01
4.576607403e-01,7.76580e-02,9.99999e-01,9.99999e-01,9.99998e-01,7.76581e-02,9.99999e-01
4.599490440e-01,8.16785e-02,9.99999e-01,9.99999e-01,9.99998e-01,8.16786e-02,9.99999e-01
4.622487892e-01,8.58216e-02,9.99999e-01,9.99999e-01,9.99999e-01,8.58216e-02,9.99999e-01
4.645600332e-01,9.00867e-02,9.99999e-01,9.99999e-01,9.99998e-01,9.00867e-02,9.99999e-01
4.668828333e-01,9.44722e-02,9.99999e-01,9.99999e-01,9.99988e-01,9.44733e-02,9.99999e-01
4.692172475e-01,9.89780e-02,9.99999e-01,9.99999e-01,9.99975e-01,9.89804e-02,9.99999e-01
4.715633337e-01,1.03605e-01,9.99999e-01,9.99999e-01,9.99983e-01,1.03607e-01,9.99999e-01
4.739211504e-01,1.08351e-01,9.99999e-01,9.99999e-01,9.99984e-01,1.08352e-01,9.99999e-01
4.762907561e-01,1.13214e-01,9.99999e-01,9.99999e-01,9.99991e-01,1.13215e-01,9.99999e-01
4.786722099e-01,1.18192e-01,9.99999e-01,9.99999e-01,9.99996e-01,1.18193e-01,9.99999e-01
4.810655710e-01,1.23284e-01,9.99999e-01,9.99999e-01,9.99998e-01,1.23285e-01,9.99999e-01
4.834708988e-01,1.28488e-01,9.99999e-01,9.99999e-01,9.99990e-01,1.28489e-01,9.99999e-01
4.858882533e-01,1.33801e-01,9.99999e-01,9.99999e-01,9.99982e-01,1.33804e-01,9.99999e-01
4.883176946e-01,1.39225e-01,9.99999e-01,9.99999e-01,9.99985e-01,1.39227e-01,9.99999e-01
4.907592831e-01,1.44754e-01,9.99999e-01,9.99999e-01,9.99986e-01,1.44756e-01,9.99999e-01
4.932130795e-01,1.50387e-01,9.99999e-01,9.99999e-01,9.99990e-01,1.50389e-01,9.99999e-01
4.956791449e-01,1.56122e-01,9.99999e-01,9.99999e-01,9.99994e-01,1.56123e-01,9.99999e-01
4.981575406e-01,1.61953e-01,9.99999e-01,9.99999e-01,9.99975e-01,1.61956e-01,9.99999e-01
5.006483283e-01,1.67876e-01,9.99999e-01,9.99999e-01,9.99937e-01,1.67886e-01,9.99999e-01
5.031515699e-01,1.73854e-01,9.99999e-01,9.99999e-01,9.99681e-01,1.73909e-01,9.99999e-01
5.056673278e-01,1.79993e-01,9.99999e-01,9.99999e-01,9.99831e-01,1.80023e-01,9.99999e-01
5.081956644e-01,1.86185e-01,9.99999e-01,9.99999e-01,9.99787e-01,1.86225e-01,9.99999e-01
5.107366428e-01,1.92483e-01,9.99999e-01,9.99999e-01,9.99855e-01,1.92511e-01,9.99999e-01
5.132903260e-01,1.98863e-01,9.99999e-01,9.99999e-01,9.99917e-01,1.98879e-01,9.99999e-01
5.158567776e-01,2.05319e-01,9.99999e-01,9.99999e-01,9.99964e-01,2.05326e-01,9.99999e-01
5.184360615e-01,2.11845e-01,9.99999e-01,9.99999e-01,9.99985e-01,2.11848e-01,9.99999e-01
5.210282418e-01,2.18442e-01,9.99999e-01,9.99999e-01,9.99994e-01,2.18443e-01,9.99999e-01
5.236333830e-01,2.25101e-01,9.99999e-01,9.99999e-01,9.99978e-01,2.25106e-01,9.99999e-01
5.262515499e-01,2.31832e-01,9.99999e-01,9.99999e-01,9.99986e-01,2.31835e-01,9.99999e-01
5.288828077e-01,2.38624e-01,9.99999e-01,9.99999e-01,9.99987e-01,2.38626e-01,9.99999e-01
5.315272217e-01,2.45474e-01,9.99999e-01,9.99999e-01,9.99989e-01,2.45477e-01,9.99999e-01
5.341848578e-01,2.52381e-01,9.99999e-01,9.99999e-01,9.99992e-01,2.52382e-01,9.99999e-01
5.368557821e-01,2.59334e-01,9.99999e-01,9.99999e-01,9.99975e-01,2.59340e-01,9.99999e-01
5.395400610e-01,2.66324e-01,9.99999e-01,9.99999e-01,9.99912e-01,2.66347e-01,9.99999e-01
5.422377613e-01,2.73368e-01,9.99999e-01,9.99999e-01,9.99886e-01,2.73398e-01,9.99999e-01
5.449489501e-01,2.80463e-01,9.99999e-01,9.99999e-01,9.99894e-01,2.80492e-01,9.99999e-01
5.476736949e-01,2.87598e-01,9.99999e-01,9.99999e-01,9.99906e-01,2.87624e-01,9.99999e-01
5.504120634e-01,2.94772e-01,9.99999e-01,9.99999e-01,9.99931e-01,2.94792e-01,9.99999e-01
5.531641237e-01,3.01980e-01,9.99999e-01,9.99999e-01,9.99965e-01,3.01991e-01,9.99999e-01
5.559299443e-01,3.09213e-01,9.99999e-01,9.99999e-01,9.99983e-01,3.09218e-01,9.99999e-01
5.587095940e-01,3.16467e-01,9.99999e-01,9.99999e-01,9.99989e-01,3.16471e-01,9.99999e-01
5.615031420e-01,3.23741e-01,9.99999e-01,9.99999e-01,9.99988e-01,3.23745e-01,9.99999e-01
5.643106577e-01,3.31034e-01,9.99999e-01,9.99999e-01,9.99986e-01,3.31038e-01,9.99999e-01
5.671322110e-01,3.38294e-01,9.99999e-01,9.99999e-01,9.99843e-01,3.38346e-01,9.99999e-01
5.699678720e-01,3.45609e-01,9.99999e-01,9.99999e-01,9.99830e-01,3.45667e-01,9.99999e-01
5.728177114e-01,3.52935e-01,9.99999e-01,9.99999e-01,9.99825e-01,3.52996e-01,9.99999e-01
5.756818000e-01,3.60274e-01,9.99999e-01,9.99999e-01,9.99839e-01,3.60332e-01,9.99999e-01
5.785602090e-01,3.67619e-01,9.99999e-01,9.99999e-01,9.99859e-01,3.67671e-01,9.99999e-01
5.814530100e-01,3.74957e-01,9.99999e-01,9.99999e-01,9.99859e-01,3.75010e-01,9.99999e-01
5.843602750e-01,3.82282e-01,9.99999e-01,9.99999e-01,9.99833e-01,3.82346e-01,9.99999e-01
5.872820764e-01,3.89117e-01,9.99999e-01,9.99999e-01,9.98564e-01,3.89676e-01,9.99999e-01
5.902184868e-01,3.96303e-01,9.99999e-01,9.99999e-01,9.98250e-01,3.96998e-01,9.99999e-01
5.931695792e-01,4.03810e-01,9.99999e-01,9.99999e-01,9.98765e-01,4.04309e-01,9.99999e-01
5.961354271e-01,4.11049e-01,9.99999e-01,9.99999e-01,9.98645e-01,4.11606e-01,9.99999e-01
5.991161043e-01,4.18473e-01,9.99999e-01,9.99999e-01,9.99011e-01,4.18887e-01,9.99999e-01
6.021116848e-01,4.25909e-01,9.99999e-01,9.99999e-01,9.99438e-01,4.26149e-01,9.99999e-01
6.051222432e-01,4.33266e-01,9.99999e-01,9.99999e-01,9.99715e-01,4.33389e-01,9.99999e-01
6.081478544e-01,4.40552e-01,9.99999e-01,9.99999e-01,9.99877e-01,4.40606e-01,9.99999e-01
6.111885937e-01,4.47774e-01,9.99999e-01,9.99999e-01,9.99947e-01,4.47797e-01,9.99999e-01
6.142445367e-01,4.54950e-01,9.99999e-01,9.99999e-01,9.99976e-01,4.54960e-01,9.99999e-01
6.173157594e-01,4.62087e-01,9.99999e-01,9.99999e-01,9.99986e-01,4.62093e-01,9.99999e-01
6.204023382e-01,4.69188e-01,9.99999e-01,9.99999e-01,9.99988e-01,4.69193e-01,9.99999e-01
6.235043498e-01,4.76237e-01,9.99999e-01,9.99999e-01,9.99952e-01,4.76259e-01,9.99999e-01
6.266218716e-01,4.83168e-01,9.99999e-01,9.99999e-01,9.99748e-01,4.83289e-01,9.99999e-01
6.297549810e-01,4.90235e-01,9.99999e-01,9.99999e-01,9.99907e-01,4.90280e-01,9.99999e-01
6.329037559e-01,4.97141e-01,9.99999e-01,9.99999e-01,9.99817e-01,4.97232e-01,9.99999e-01
6.360682746e-01,5.04064e-01,9.99999e-01,9.99999e-01,9.99844e-01,5.04142e-01,9.99999e-01
6.392486160e-01,5.10906e-01,9.99999e-01,9.99999e-01,9.99798e-01,5.11008e-01,9.99999e-01
6.424448591e-01,5.17692e-01,9.99999e-01,9.99999e-01,9.99732e-01,5.17830e-01,9.99999e-01
6.456570834e-01,5.23954e-01,9.99999e-01,9.99999e-01,9.98757e-01,5.24605e-01,9.99999e-01
6.488853688e-01,5.30763e-01,9.99999e-01,9.99999e-01,9.98926e-01,5.31333e-01,9.99999e-01
6.521297956e-01,5.37509e-01,9.99999e-01,9.99999e-01,9.99065e-01,5.38011e-01,9.99999e-01
6.553904446e-01,5.44137e-01,9.99999e-01,9.99999e-01,9.99076e-01,5.44639e-01,9.99999e-01
6.586673968e-01,5.50777e-01,9.99999e-01,9.99999e-01,9.99203e-01,5.51216e-01,9.99999e-01
6.619607338e-01,5.57482e-01,9.99999e-01,9.99999e-01,9.99539e-01,5.57739e-01,9.99999e-01
6.652705375e-01,5.64058e-01,9.99999e-01,9.99999e-01,9.99732e-01,5.64208e-01,9.99999e-01
6.685968902e-01,5.70552e-01,9.99999e-01,9.99999e-01,9.99875e-01,5.70623e-01,9.99999e-01
6.719398746e-01,5.76948e-01,9.99999e-01,9.99999e-01,9.99942e-01,5.76982e-01,9.99999e-01
6.752995740e-01,5.83265e-01,9.99999e-01,9.99999e-01,9.99968e-01,5.83283e-01,9.99999e-01
6.786760719e-01,5.89501e-01,9.99999e-01,9.99999e-01,9.99954e-01,5.89527e-01,9.99999e-01
6.820694522e-01,5.95668e-01,9.99999e-01,9.99999e-01,9.99923e-01,5.95713e-01,9.99999e-01
6.854797995e-01,6.01780e-01,9.99999e-01,9.99999e-01,9.99900e-01,6.01840e-01,9.99999e-01
6.889071985e-01,6.07762e-01,9.99999e-01,9.99999e-01,9.99763e-01,6.07906e-01,9.99999e-01
6.923517345e-01,6.11523e-01,9.99999e-01,9.99999e-01,9.96107e-01,6.13912e-01,9.99999e-01
6.958134932e-01,6.18585e-01,9.99999e-01,9.99999e-01,9.97946e-01,6.19857e-01,9.99999e-01
6.992925606e-01,6.24537e-01,9.99999e-01,9.99999e-01,9.98076e-01,6.25741e-01,9.99999e-01
7.027890234e-01,6.30054e-01,9.99999e-01,9.99999e-01,9.97612e-01,6.31562e-01,9.99999e-01
7.063029686e-01,6.36043e-01,9.99999e-01,9.99999e-01,9.97994e-01,6.37321e-01,9.99999e-01
7.098344834e-01,6.41780e-01,9.99999e-01,9.99999e-01,9.98075e-01,6.43017e-01,9.99999e-01
7.133836558e-01,6.47000e-01,9.99999e-01,9.99999e-01,9.97455e-01,6.48651e-01,9.99999e-01
7.169505741e-01,6.40819e-01,9.99999e-01,9.99999e-01,9.79515e-01,6.54220e-01,9.99999e-01
7.205353270e-01,6.53009e-01,9.99999e-01,9.99999e-01,9.89818e-01,6.59727e-01,9.99999e-01
7.241380036e-01,6.56671e-01,9.99999e-01,9.99999e-01,9.87224e-01,6.65169e-01,9.99999e-01
7.277586936e-01,6.62807e-01,9.99999e-01,9.99999e-01,9.88456e-01,6.70547e-01,9.99999e-01
7.313974871e-01,6.67543e-01,9.99999e-01,9.99999e-01,9.87691e-01,6.75862e-01,9.99999e-01
7.350544745e-01,6.76531e-01,9.99999e-01,9.99999e-01,9.93273e-01,6.81112e-01,9.99999e-01
7.387297469e-01,6.82900e-01,9.99999e-01,9.99999e-01,9.95047e-01,6.86298e-01,9.99999e-01
7.424233956e-01,6.89742e-01,9.99999e-01,9.99999e-01,9.97571e-01,6.91421e-01,9.99999e-01
7.461355126e-01,6.95455e-01,9.99999e-01,9.99999e-01,9.98529e-01,6.96479e-01,9.99999e-01
7.498661902e-01,7.00992e-01,9.99999e-01,9.99999e-01,9.99314e-01,7.01473e-01,9.99999e-01
7.536155211e-01,7.06166e-01,9.99999e-01,9.99999e-01,9.99664e-01,7.06403e-01,9.99999e-01
7.573835987e-01,7.11146e-01,9.99999e-01,9.99999e-01,9.99826e-01,7.11269e-01,9.99999e-01
7.611705167e-01,7.15995e-01,9.99999e-01,9.99999e-01,9.99892e-01,7.16072e-01,9.99999e-01
7.649763693e-01,7.20763e-01,9.99999e-01,9.99999e-01,9.99932e-01,7.20811e-01,9.99999e-01
7.688012511e-01,7.25454e-01,9.99999e-01,9.99999e-01,9.99952e-01,7.25488e-01,9.99999e-01
7.726452574e-01,7.30073e-01,9.99999e-01,9.99999e-01,9.99961e-01,7.30101e-01,9.99999e-01
7.765084837e-01,7.34612e-01,9.99999e-01,9.99999e-01,9.99945e-01,7.34652e-01,9.99999e-01
7.803910261e-01,7.28053e-01,9.99999e-01,9.85228e-01,9.99764e-01,7.39140e-01,9.99999e-01
7.842929812e-01,6.95987e-01,9.99999e-01,9.36762e-01,9.99180e-01,7.43566e-01,9.99999e-01
7.882144461e-01,6.96257e-01,9.99999e-01,9.32465e-01,9.98301e-01,7.47931e-01,9.99999e-01
7.921555184e-01,7.22037e-01,9.99999e-01,9.60745e-01,9.99065e-01,7.52234e-01,9.99999e-01
7.961162960e-01,7.35230e-01,9.99999e-01,9.73503e-01,9.98360e-01,7.56476e-01,9.99999e-01
8.000968774e-01,7.48264e-01,9.99999e-01,9.85576e-01,9.98099e-01,7.60658e-01,9.99999e-01
8.040973618e-01,7.57594e-01,9.99999e-01,9.92487e-01,9.98100e-01,7.64779e-01,9.99999e-01
8.081178486e-01,7.62929e-01,9.99999e-01,9.96555e-01,9.95736e-01,7.68841e-01,9.99999e-01
8.121584379e-01,7.58329e-01,9.99999e-01,9.98928e-01,9.82266e-01,7.72843e-01,9.99999e-01
8.162192301e-01,7.60159e-01,9.99999e-01,9.99763e-01,9.78822e-01,7.76787e-01,9.99999e-01
8.203003262e-01,7.72438e-01,9.99999e-01,9.99995e-01,9.89456e-01,7.80672e-01,9.99999e-01
8.244018279e-01,7.72731e-01,9.99999e-01,9.99999e-01,9.84997e-01,7.84500e-01,9.99999e-01
8.285238370e-01,7.78328e-01,9.99999e-01,9.99999e-01,9.87387e-01,7.88270e-01,9.99999e-01
8.326664562e-01,7.81852e-01,9.99999e-01,9.99999e-01,9.87208e-01,7.91983e-01,9.99999e-01
8.368297885e-01,7.88364e-01,9.99999e-01,9.99999e-01,9.90855e-01,7.95640e-01,9.99999e-01
8.410139374e-01,7.94892e-01,9.99999e-01,9.99999e-01,9.94559e-01,7.99240e-01,9.99999e-01
8.452190071e-01,8.00642e-01,9.99999e-01,9.99999e-01,9.97328e-01,8.02786e-01,9.99999e-01
8.494451021e-01,8.05030e-01,9.99999e-01,9.99999e-01,9.98453e-01,8.06277e-01,9.99999e-01
8.536923276e-01,8.08971e-01,9.99999e-01,9.99999e-01,9.99083e-01,8.09713e-01,9.99999e-01
8.579607893e-01,8.12639e-01,9.99999e-01,9.99999e-01,9.99436e-01,8.13096e-01,9.99999e-01
8.622505932e-01,8.16134e-01,9.99999e-01,9.99999e-01,9.99641e-01,8.16426e-01,9.99999e-01
8.665618462e-01,7.86465e-01,9.99999e-01,9.59657e-01,9.99778e-01,8.19703e-01,9.99999e-01
8.708946554e-01,6.95240e-01,9.99999e-01,8.45045e-01,9.99746e-01,8.22929e-01,9.99999e-01
8.752491287e-01,7.22309e-01,9.99999e-01,8.74648e-01,9.99661e-01,8.26103e-01,9.99999e-01
8.796253743e-01,7.70705e-01,9.99999e-01,9.29856e-01,9.99532e-01,8.29226e-01,9.99999e-01
8.840235012e-01,8.01258e-01,9.99999e-01,9.63216e-01,9.99465e-01,8.32299e-01,9.99999e-01
8.884436187e-01,8.21487e-01,9.99999e-01,9.85331e-01,9.98069e-01,8.35322e-01,9.99999e-01
8.928858368e-01,8.16321e-01,9.99999e-01,9.94048e-01,9.79593e-01,8.38296e-01,9.99999e-01
8.973502660e-01,8.09679e-01,9.99999e-01,9.98545e-01,9.63892e-01,8.41222e-01,9.99999e-01
9.018370173e-01,8.28192e-01,9.99999e-01,9.99839e-01,9.81309e-01,8.44100e-01,9.99998e-01
9.063462024e-01,8.29824e-01,9.99999e-01,9.95953e-01,9.83728e-01,8.46930e-01,9.99998e-01
9.108779334e-01,8.20449e-01,9.99999e-01,9.90631e-01,9.74641e-01,8.49714e-01,9.99998e-01
9.154323231e-01,8.26110e-01,9.99999e-01,9.97780e-01,9.71234e-01,8.52452e-01,9.99998e-01
9.200094847e-01,8.09033e-01,9.99999e-01,9.67491e-01,9.77339e-01,8.55144e-01,9.99998e-01
9.246095321e-01,7.90620e-01,9.99999e-01,9.54914e-01,9.64844e-01,8.57791e-01,9.99997e-01
9.292325798e-01,6.51231e-01,9.99999e-01,9.64540e-01,7.83275e-01,8.60394e-01,9.99996e-01
9.338787427e-01,6.07114e-01,9.99999e-01,9.65598e-01,7.27236e-01,8.62954e-01,9.99995e-01
9.385481364e-01,7.42685e-01,9.99999e-01,9.74678e-01,8.79816e-01,8.65470e-01,9.99995e-01
9.432408771e-01,7.14174e-01,9.99999e-01,9.84415e-01,8.35521e-01,8.67943e-01,9.99994e-01
9.479570815e-01,6.71624e-01,9.99999e-01,9.91992e-01,7.77713e-01,8.70375e-01,9.99995e-01
9.526968669e-01,7.21488e-01,9.99999e-01,9.96125e-01,8.29742e-01,8.72765e-01,9.99996e-01
9.574603512e-01,7.39052e-01,9.99999e-01,9.98341e-01,8.45884e-01,8.75114e-01,9.99997e-01
9.622476530e-01,7.65672e-01,9.99999e-01,9.99481e-01,8.73078e-01,8.77423e-01,9.99997e-01
9.670588912e-01,8.13610e-01,9.99999e-01,9.99844e-01,9.25021e-01,8.79692e-01,9.99998e-01
9.718941857e-01,8.40273e-01,9.99999e-01,9.99988e-01,9.52785e-01,8.81922e-01,9.99998e-01
9.767536566e-01,8.49349e-01,9.99999e-01,9.99999e-01,9.60677e-01,8.84114e-01,9.99999e-01
9.816374249e-01,8.60301e-01,9.99999e-01,9.99999e-01,9.70701e-01,8.86267e-01,9.99999e-01
9.865456120e-01,8.72044e-01,9.99999e-01,9.99999e-01,9.81607e-01,8.88383e-01,9.99999e-01
9.914783401e-01,8.80316e-01,9.99999e-01,9.99999e-01,9.88605e-01,8.90463e-01,9.99999e-01
9.964357318e-01,8.86953e-01,9.99999e-01,9.99999e-01,9.93778e-01,8.92506e-01,9.99999e-01
1.001417910e+00,8.91174e-01,9.99999e-01,9.99999e-01,9.96267e-01,8.94513e-01,9.99999e-01
1.006425000e+00,8.94579e-01,9.99999e-01,9.99999e-01,9.97874e-01,8.96484e-01,9.99999e-01
1.011457125e+00,8.97234e-01,9.99999e-01,9.99999e-01,9.98677e-01,8.98421e-01,9.99999e-01
1.016514411e+00,8.99517e-01,9.99999e-01,9.99999e-01,9.99103e-01,9.00324e-01,9.99999e-01
1.021596983e+00,9.01531e-01,9.99999e-01,9.99979e-01,9.99285e-01,9.02194e-01,9.99999e-01
1.026704968e+00,9.02109e-01,9.99999e-01,9.98430e-01,9.99442e-01,9.04030e-01,9.99999e-01
1.031838492e+00,8.84777e-01,9.99999e-01,9.77143e-01,9.99594e-01,9.05833e-01,9.99999e-01
1.036997685e+00,2.90163e-01,9.99999e-01,3.19767e-01,9.99759e-01,9.07604e-01,9.99999e-01
1.042182673e+00,3.52541e-01,9.99999e-01,3.87792e-01,9.99713e-01,9.09344e-01,9.99999e-01
1.047393587e+00,3.22682e-01,9.99999e-01,3.54309e-01,9.99620e-01,9.11052e-01,9.99999e-01
1.052630555e+00,5.99295e-02,9.99999e-01,6.56871e-02,9.99479e-01,9.12730e-01,9.99999e-01
1.057893707e+00,1.07349e-01,9.99999e-01,1.17483e-01,9.99131e-01,9.14378e-01,9.99999e-01
1.063183176e+00,1.94998e-01,9.99999e-01,2.13134e-01,9.98570e-01,9.15996e-01,9.99999e-01
1.068499092e+00,3.28902e-01,9.99999e-01,3.59234e-01,9.97604e-01,9.17585e-01,9.99999e-01
1.073841587e+00,4.80070e-01,9.99999e-01,5.23648e-01,9.97199e-01,9.19145e-01,9.99999e-01
1.079210795e+00,6.10494e-01,9.99999e-01,6.65387e-01,9.96404e-01,9.20677e-01,9.99999e-01
1.084606849e+00,7.34423e-01,9.99999e-01,8.00657e-01,9.94565e-01,9.22181e-01,9.99999e-01
1.090029883e+00,8.17034e-01,9.99999e-01,8.91412e-01,9.92224e-01,9.23658e-01,9.99999e-01
1.095480033e+00,8.55835e-01,9.99999e-01,9.44946e-01,9.78920e-01,9.25108e-01,9.99998e-01
1.100957433e+00,8.54113e-01,9.99999e-01,9.73137e-01,9.47171e-01,9.26532e-01,9.99998e-01
1.106462220e+00,7.98712e-01,9.99999e-01,9.88799e-01,8.70342e-01,9.27929e-01,9.99997e-01
1.111994531e+00,6.89020e-01,9.99999e-01,9.95835e-01,7.44439e-01,9.29301e-01,9.99995e-01
1.117554504e+00,5.74683e-01,9.99999e-01,9.98978e-01,6.18085e-01,9.30648e-01,9.99993e-01
1.123142276e+00,6.48688e-01,9.99999e-01,9.99932e-01,6.96078e-01,9.31970e-01,9.99992e-01
1.128757988e+00,7.43404e-01,9.99999e-01,9.99999e-01,7.96565e-01,9.33268e-01,9.99992e-01
1.134401778e+00,5.36033e-01,9.99999e-01,9.99999e-01,5.73582e-01,9.34542e-01,9.99991e-01
1.140073787e+00,8.18817e-01,9.99999e-01,9.99999e-01,8.75004e-01,9.35793e-01,9.99992e-01
1.145774156e+00,7.06147e-01,9.99999e-01,9.99999e-01,7.53613e-01,9.37020e-01,9.99993e-01
1.151503026e+00,6.83103e-01,9.99999e-01,9.99999e-01,7.28083e-01,9.38225e-01,9.99994e-01
1.157260541e+00,7.24799e-01,9.99999e-01,9.99999e-01,7.71552e-01,9.39407e-01,9.99995e-01
1.163046844e+00,7.76792e-01,9.99999e-01,9.99999e-01,8.25877e-01,9.40568e-01,9.99997e-01
1.168862078e+00,8.25273e-01,9.99999e-01,9.99999e-01,8.76359e-01,9.41707e-01,9.99998e-01
1.174706389e+00,8.69121e-01,9.99999e-01,9.99999e-01,9.21827e-01,9.42825e-01,9.99998e-01
1.180579921e+00,8.98317e-01,9.99999e-01,9.99999e-01,9.51685e-01,9.43922e-01,9.99999e-01
1.186482820e+00,9.18980e-01,9.99999e-01,9.99997e-01,9.72469e-01,9.44998e-01,9.99999e-01
1.192415234e+00,9.25580e-01,9.99999e-01,9.94375e-01,9.83864e-01,9.46055e-01,9.99999e-01
1.198377311e+00,5.56040e-01,9.99999e-01,5.93927e-01,9.86398e-01,9.47092e-01,9.99999e-01
1.204369197e+00,4.79441e-06,9.99999e-01,5.09479e-06,9.87107e-01,9.48109e-01,9.99999e-01
1.210391043e+00,1.44843e-18,9.99999e-01,1.53663e-18,9.87671e-01,9.49108e-01,9.99999e-01
1.216442998e+00,2.56776e-16,9.99999e-01,2.72036e-16,9.89488e-01,9.50087e-01,9.99999e-01
1.222525213e+00,4.53630e-16,9.99999e-01,4.79061e-16,9.91816e-01,9.51049e-01,9.99999e-01
1.228637839e+00,2.47814e-12,9.99999e-01,2.61377e-12,9.94314e-01,9.51992e-01,9.99999e-01
