#,Wave/freq,Total,O2,CO2,H2O,Rayleigh,CIA
4.000000000e-01,1.59121e-03,9.99999e-01,9.99999e-01,9.99986e-01,1.59123e-03,9.99999e-01
4.020000000e-01,1.80741e-03,9.99999e-01,9.99999e-01,9.99991e-01,1.80743e-03,9.99999e-01
4.040100000e-01,2.04757e-03,9.99999e-01,9.99999e-01,9.99996e-01,2.04758e-03,9.99999e-01
4.060300500e-01,2.31393e-03,9.99999e-01,9.99999e-01,9.99998e-01,2.31393e-03,9.99999e-01
4.080602003e-01,2.60862e-03,9.99999e-01,9.99999e-01,9.99999e-01,2.60862e-03,9.99999e-01
4.101005013e-01,2.93389e-03,9.99999e-01,9.99999e-01,9.99999e-01,2.93389e-03,9.99999e-01
4.121510038e-01,3.29206e-03,9.99999e-01,9.99999e-01,9.99999e-01,3.29206e-03,9.99999e-01
4.142117588e-01,3.68555e-03,9.99999e-01,9.99999e-01,9.99995e-01,3.68556e-03,9.99999e-01
4.162828176e-01,4.11684e-03,9.99999e-01,9.99999e-01,9.99983e-01,4.11691e-03,9.99999e-01
4.183642317e-01,4.58865e-03,9.99999e-01,9.99999e-01,9.99990e-01,4.58870e-03,9.99999e-01
4.204560528e-01,5.10357e-03,9.99999e-01,9.99999e-01,9.99993e-01,5.10360e-03,9.99999e-01
4.225583331e-01,5.66436e-03,9.99999e-01,9.99999e-01,9.99997e-01,5.66437e-03,9.99999e-01
4.246711247e-01,6.27382e-03,9.99999e-01,9.99999e-01,9.99997e-01,6.27383e-03,9.99999e-01
4.267944804e-01,6.93483e-03,9.99999e-01,9.99999e-01,9.99997e-01,6.93485e-03,9.99999e-01
4.289284528e-01,7.65034e-03,9.99999e-01,9.99999e-01,9.99997e-01,7.65036e-03,9.99999e-01
4.310730950e-01,8.42333e-03,9.99999e-01,9.99999e-01,9.99998e-01,8.42334e-03,9.99999e-01
4.332284605e-01,9.25680e-03,9.99999e-01,9.99999e-01,9.99999e-01,9.25680e-03,9.99999e-01
4.353946028e-01,1.01538e-02,9.99999e-01,9.99999e-01,9.99999e-01,1.01538e-02,9.99999e-01
4.375715758e-01,1.11174e-02,9.99999e-01,9.99999e-01,9.99997e-01,1.11174e-02,9.99999e-01
4.397594337e-01,1.21505e-02,9.99999e-01,9.99999e-01,9.99985e-01,1.21506e-02,9.99999e-01
4.419582309e-01,1.32557e-02,9.99999e-01,9.99999e-01,9.99928e-01,1.32566e-02,9.99999e-01
4.441680220e-01,1.44376e-02,9.99999e-01,9.99999e-01,9.99945e-01,1.44384e-02,9.99999e-01
4.463888621e-01,1.56982e-02,9.99999e-01,9.99999e-01,9.99942e-01,1.56990e-02,9.99999e-01
4.486208064e-01,1.70410e-02,9.99999e-01,9.99999e-01,9.99964e-01,1.70416e-02,9.99999e-01
4.508639105e-01,1.84686e-02,9.99999e-01,9.99999e-01,9.99983e-01,1.84689e-02,9.99999e-01
4.531182300e-01,1.99839e-02,9.99999e-01,9.99999e-01,9.99993e-01,1.99840e-02,9.99999e-01
4.553838212e-01,2.15897e-02,9.99999e-01,9.99999e-01,9.99995e-01,2.15898e-02,9.99999e-01
4.576607403e-01,2.32890e-02,9.99999e-01,9.99999e-01,9.99997e-01,2.32891e-02,9.99999e-01
4.599490440e-01,2.50844e-02,9.99999e-01,9.99999e-01,9.99998e-01,2.50845e-02,9.99999e-01
4.622487892e-01,2.69787e-02,9.99999e-01,9.99999e-01,9.99999e-01,2.69787e-02,9.99999e-01
4.645600332e-01,2.89742e-02,9.99999e-01,9.99999e-01,9.99998e-01,2.89742e-02,9.99999e-01
4.668828333e-01,3.10730e-02,9.99999e-01,9.99999e-01,9.99982e-01,3.10735e-02,9.99999e-01
4.692172475e-01,3.32778e-02,9.99999e-01,9.99999e-01,9.99964e-01,3.32790e-02,9.99999e-01
4.715633337e-01,3.55918e-02,9.99999e-01,9.99999e-01,9.99976e-01,3.55927e-02,9.99999e-01
4.739211504e-01,3.80159e-02,9.99999e-01,9.99999e-01,9.99977e-01,3.80167e-02,9.99999e-01
4.762907561e-01,4.05526e-02,9.99999e-01,9.99999e-01,9.99988e-01,4.05531e-02,9.99999e-01
4.786722099e-01,4.32033e-02,9.99999e-01,9.99999e-01,9.99994e-01,4.32035e-02,9.99999e-01
4.810655710e-01,4.59695e-02,9.99999e-01,9.99999e-01,9.99998e-01,4.59696e-02,9.99999e-01
4.834708988e-01,4.88522e-02,9.99999e-01,9.99999e-01,9.99985e-01,4.88529e-02,9.99999e-01
4.858882533e-01,5.18534e-02,9.99999e-01,9.99999e-01,9.99974e-01,5.18546e-02,9.99999e-01
4.883176946e-01,5.49749e-02,9.99999e-01,9.99999e-01,9.99978e-01,5.49761e-02,9.99999e-01
4.907592831e-01,5.82171e-02,9.99999e-01,9.99999e-01,9.99980e-01,5.82182e-02,9.99999e-01
4.932130795e-01,6.15809e-02,9.99999e-01,9.99999e-01,9.99986e-01,6.15817e-02,9.99999e-01
4.956791449e-01,6.50669e-02,9.99999e-01,9.99999e-01,9.99992e-01,6.50673e-02,9.99999e-01
4.981575406e-01,6.86731e-02,9.99999e-01,9.99999e-01,9.99963e-01,6.86755e-02,9.99999e-01
5.006483283e-01,7.23998e-02,9.99999e-01,9.99999e-01,9.99905e-01,7.24066e-02,9.99999e-01
5.031515699e-01,7.62247e-02,9.99999e-01,9.99999e-01,9.99529e-01,7.62606e-02,9.99999e-01
5.056673278e-01,8.02177e-02,9.99999e-01,9.99999e-01,9.99752e-01,8.02375e-02,9.99999e-01
5.081956644e-01,8.43109e-02,9.99999e-01,9.99999e-01,9.99688e-01,8.43371e-02,9.99999e-01
5.107366428e-01,8.85404e-02,9.99999e-01,9.99999e-01,9.99789e-01,8.85590e-02,9.99999e-01
5.132903260e-01,9.28914e-02,9.99999e-01,9.99999e-01,9.99879e-01,9.29025e-02,9.99999e-01
5.158567776e-01,9.73620e-02,9.99999e-01,9.99999e-01,9.99949e-01,9.73669e-02,9.99999e-01
5.184360615e-01,1.01949e-01,9.99999e-01,9.99999e-01,9.99979e-01,1.01951e-01,9.99999e-01
5.210282418e-01,1.06654e-01,9.99999e-01,9.99999e-01,9.99991e-01,1.06655e-01,9.99999e-01
5.236333830e-01,1.11472e-01,9.99999e-01,9.99999e-01,9.99968e-01,1.11475e-01,9.99999e-01
5.262515499e-01,1.16410e-01,9.99999e-01,9.99999e-01,9.99980e-01,1.16413e-01,9.99999e-01
5.288828077e-01,1.21462e-01,9.99999e-01,9.99999e-01,9.99981e-01,1.21464e-01,9.99999e-01
5.315272217e-01,1.26627e-01,9.99999e-01,9.99999e-01,9.99984e-01,1.26629e-01,9.99999e-01
5.341848578e-01,1.31903e-01,9.99999e-01,9.99999e-01,9.99989e-01,1.31905e-01,9.99999e-01
5.368557821e-01,1.37285e-01,9.99999e-01,9.99999e-01,9.99963e-01,1.37289e-01,9.99999e-01
5.395400610e-01,1.42763e-01,9.99999e-01,9.99999e-01,9.99869e-01,1.42781e-01,9.99999e-01
5.422377613e-01,1.48353e-01,9.99999e-01,9.99999e-01,9.99834e-01,1.48378e-01,9.99999e-01
5.449489501e-01,1.54052e-01,9.99999e-01,9.99999e-01,9.99844e-01,1.54076e-01,9.99999e-01
5.476736949e-01,1.59853e-01,9.99999e-01,9.99999e-01,9.99863e-01,1.59875e-01,9.99999e-01
5.504120634e-01,1.65754e-01,9.99999e-01,9.99999e-01,9.99900e-01,1.65771e-01,9.99999e-01
5.531641237e-01,1.71752e-01,9.99999e-01,9.99999e-01,9.99949e-01,1.71761e-01,9.99999e-01
5.559299443e-01,1.77839e-01,9.99999e-01,9.99999e-01,9.99975e-01,1.77843e-01,9.99999e-01
5.587095940e-01,1.84011e-01,9.99999e-01,9.99999e-01,9.99984e-01,1.84014e-01,9.99999e-01
5.615031420e-01,1.90267e-01,9.99999e-01,9.99999e-01,9.99982e-01,1.90270e-01,9.99999e-01
5.643106577e-01,1.96606e-01,9.99999e-01,9.99999e-01,9.99980e-01,1.96610e-01,9.99999e-01
5.671322110e-01,2.02981e-01,9.99999e-01,9.99999e-01,9.99762e-01,2.03029e-01,9.99999e-01
5.699678720e-01,2.09474e-01,9.99999e-01,9.99999e-01,9.99755e-01,2.09525e-01,9.99999e-01
5.728177114e-01,2.16038e-01,9.99999e-01,9.99999e-01,9.99741e-01,2.16094e-01,9.99999e-01
5.756818000e-01,2.22681e-01,9.99999e-01,9.99999e-01,9.99763e-01,2.22733e-01,9.99999e-01
5.785602090e-01,2.29392e-01,9.99999e-01,9.99999e-01,9.99794e-01,2.29439e-01,9.99999e-01
5.814530100e-01,2.36160e-01,9.99999e-01,9.99999e-01,9.99793e-01,2.36209e-01,9.99999e-01
5.843602750e-01,2.42978e-01,9.99999e-01,9.99999e-01,9.99751e-01,2.43039e-01,9.99999e-01
5.872820764e-01,2.49390e-01,9.99999e-01,9.99999e-01,9.97859e-01,2.49925e-01,9.99999e-01
5.902184868e-01,2.56207e-01,9.99999e-01,9.99999e-01,9.97436e-01,2.56865e-01,9.99999e-01
5.931695792e-01,2.63375e-01,9.99999e-01,9.99999e-01,9.98181e-01,2.63854e-01,9.99999e-01
5.961354271e-01,2.70352e-01,9.99999e-01,9.99999e-01,9.98012e-01,2.70891e-01,9.99999e-01
5.991161043e-01,2.77568e-01,9.99999e-01,9.99999e-01,9.98552e-01,2.77970e-01,9.99999e-01
6.021116848e-01,2.84855e-01,9.99999e-01,9.99999e-01,9.99179e-01,2.85089e-01,9.99999e-01
6.051222432e-01,2.92123e-01,9.99999e-01,9.99999e-01,9.99584e-01,2.92244e-01,9.99999e-01
6.081478544e-01,2.99378e-01,9.99999e-01,9.99999e-01,9.99820e-01,2.99432e-01,9.99999e-01
6.111885937e-01,3.06627e-01,9.99999e-01,9.99999e-01,9.99924e-01,3.06650e-01,9.99999e-01
6.142445367e-01,3.13883e-01,9.99999e-01,9.99999e-01,9.99965e-01,3.13894e-01,9.99999e-01
6.173157594e-01,3.21155e-01,9.99999e-01,9.99999e-01,9.99980e-01,3.21161e-01,9.99999e-01
6.204023382e-01,3.28442e-01,9.99999e-01,9.99999e-01,9.99983e-01,3.28448e-01,9.99999e-01
6.235043498e-01,3.35727e-01,9.99999e-01,9.99999e-01,9.99928e-01,3.35751e-01,9.99999e-01
6.266218716e-01,3.42940e-01,9.99999e-01,9.99999e-01,9.99629e-01,3.43067e-01,9.99999e-01
6.297549810e-01,3.50347e-01,9.99999e-01,9.99999e-01,9.99863e-01,3.50394e-01,9.99999e-01
6.329037559e-01,3.57632e-01,9.99999e-01,9.99999e-01,9.99732e-01,3.57728e-01,9.99999e-01
6.360682746e-01,3.64982e-01,9.99999e-01,9.99999e-01,9.99770e-01,3.65066e-01,9.99999e-01
6.392486160e-01,3.72295e-01,9.99999e-01,9.99999e-01,9.99703e-01,3.72405e-01,9.99999e-01
6.424448591e-01,3.79591e-01,9.99999e-01,9.99999e-01,9.99599e-01,3.79742e-01,9.99999e-01
6.456570834e-01,3.86356e-01,9.99999e-01,9.99999e-01,9.98143e-01,3.87075e-01,9.99999e-01
6.488853688e-01,3.93872e-01,9.99999e-01,9.99999e-01,9.98658e-01,3.94400e-01,9.99999e-01
6.521297956e-01,4.01166e-01,9.99999e-01,9.99999e-01,9.98633e-01,4.01715e-01,9.99999e-01
6.553904446e-01,4.08458e-01,9.99999e-01,9.99999e-01,9.98631e-01,4.09018e-01,9.99999e-01
6.586673968e-01,4.15819e-01,9.99999e-01,9.99999e-01,9.98834e-01,4.16304e-01,9.99999e-01
6.619607338e-01,4.23299e-01,9.99999e-01,9.99999e-01,9.99350e-01,4.23573e-01,9.99999e-01
6.652705375e-01,4.30654e-01,9.99999e-01,9.99999e-01,9.99610e-01,4.30822e-01,9.99999e-01
6.685968902e-01,4.37975e-01,9.99999e-01,9.99999e-01,9.99834e-01,4.38048e-01,9.99999e-01
6.719398746e-01,4.45211e-01,9.99999e-01,9.99999e-01,9.99915e-01,4.45248e-01,9.99999e-01
6.752995740e-01,4.52401e-01,9.99999e-01,9.99999e-01,9.99955e-01,4.52421e-01,9.99999e-01
6.786760719e-01,4.59534e-01,9.99999e-01,9.99999e-01,9.99933e-01,4.59565e-01,9.99999e-01
6.820694522e-01,4.66624e-01,9.99999e-01,9.99999e-01,9.99885e-01,4.66677e-01,9.99999e-01
6.854797995e-01,4.73686e-01,9.99999e-01,9.99999e-01,9.99853e-01,4.73755e-01,9.99999e-01
6.889071985e-01,4.80625e-01,9.99999e-01,9.99999e-01,9.99640e-01,4.80798e-01,9.99999e-01
6.923517345e-01,4.84976e-01,9.99999e-01,9.99999e-01,9.94204e-01,4.87803e-01,9.99999e-01
6.958134932e-01,4.93315e-01,9.99999e-01,9.99999e-01,9.97060e-01,4.94769e-01,9.99999e-01
6.992925606e-01,5.00258e-01,9.99999e-01,9.99999e-01,9.97136e-01,5.01694e-01,9.99999e-01
7.027890234e-01,5.06797e-01,9.99999e-01,9.99999e-01,9.96500e-01,5.08576e-01,9.99999e-01
7.063029686e-01,5.13896e-01,9.99999e-01,9.99999e-01,9.97054e-01,5.15414e-01,9.99999e-01
7.098344834e-01,5.20730e-01,9.99999e-01,9.99999e-01,9.97174e-01,5.22206e-01,9.99999e-01
7.133836558e-01,5.26927e-01,9.99999e-01,9.99999e-01,9.96173e-01,5.28951e-01,9.99999e-01
7.169505741e-01,5.19436e-01,9.99999e-01,9.99999e-01,9.69735e-01,5.35647e-01,9.99999e-01
7.205353270e-01,5.34395e-01,9.99999e-01,9.99999e-01,9.85437e-01,5.42293e-01,9.99999e-01
7.241380036e-01,5.38552e-01,9.99999e-01,9.99999e-01,9.81170e-01,5.48887e-01,9.99999e-01
7.277586936e-01,5.45995e-01,9.99999e-01,9.99999e-01,9.83014e-01,5.55430e-01,9.99999e-01
7.313974871e-01,5.51865e-01,9.99999e-01,9.99999e-01,9.82108e-01,5.61918e-01,9.99999e-01
7.350544745e-01,5.62769e-01,9.99999e-01,9.99999e-01,9.90174e-01,5.68353e-01,9.99999e-01
7.387297469e-01,5.70577e-01,9.99999e-01,9.99999e-01,9.92772e-01,5.74731e-01,9.99999e-01
7.424233956e-01,5.79002e-01,9.99999e-01,9.99999e-01,9.96469e-01,5.81053e-01,9.99999e-01
7.461355126e-01,5.86059e-01,9.99999e-01,9.99999e-01,9.97855e-01,5.87318e-01,9.99999e-01
7.498661902e-01,5.92934e-01,9.99999e-01,9.99999e-01,9.99004e-01,5.93524e-01,9.99999e-01
7.536155211e-01,5.99378e-01,9.99999e-01,9.99999e-01,9.99509e-01,5.99672e-01,9.99999e-01
7.573835987e-01,6.05607e-01,9.99999e-01,9.99999e-01,9.99747e-01,6.05760e-01,9.99999e-01
7.611705167e-01,6.11692e-01,9.99999e-01,9.99999e-01,9.99842e-01,6.11787e-01,9.99999e-01
7.649763693e-01,6.17693e-01,9.99999e-01,9.99999e-01,9.99901e-01,6.17754e-01,9.99999e-01
7.688012511e-01,6.23617e-01,9.99999e-01,9.99999e-01,9.99930e-01,6.23660e-01,9.99999e-01
7.726452574e-01,6.29468e-01,9.99999e-01,9.99999e-01,9.99943e-01,6.29503e-01,9.99999e-01
7.765084837e-01,6.35233e-01,9.99999e-01,9.99999e-01,9.99918e-01,6.35284e-01,9.99999e-01
7.803910261e-01,6.26035e-01,9.99999e-01,9.76983e-01,9.99648e-01,6.41003e-01,9.99999e-01
7.842929812e-01,5.87677e-01,9.99999e-01,9.09871e-01,9.98774e-01,6.46658e-01,9.99999e-01
7.882144461e-01,5.87382e-01,9.99999e-01,9.02742e-01,9.97502e-01,6.52251e-01,9.99999e-01
7.921555184e-01,6.19241e-01,9.99999e-01,9.42674e-01,9.98638e-01,6.57780e-01,9.99999e-01
7.961162960e-01,6.36306e-01,9.99999e-01,9.61717e-01,9.97559e-01,6.63245e-01,9.99999e-01
8.000968774e-01,6.52788e-01,9.99999e-01,9.79015e-01,9.97203e-01,6.68646e-01,9.99999e-01
8.040973618e-01,6.64793e-01,9.99999e-01,9.89133e-01,9.97197e-01,6.73983e-01,9.99999e-01
8.081178486e-01,6.71546e-01,9.99999e-01,9.94974e-01,9.93636e-01,6.79256e-01,9.99999e-01
8.121584379e-01,6.65473e-01,9.99999e-01,9.98465e-01,9.73737e-01,6.84465e-01,9.99999e-01
8.162192301e-01,6.68187e-01,9.99999e-01,9.99660e-01,9.69259e-01,6.89610e-01,9.99999e-01
8.203003262e-01,6.83676e-01,9.99999e-01,9.99995e-01,9.84148e-01,6.94691e-01,9.99999e-01
8.244018279e-01,6.84711e-01,9.99999e-01,9.99999e-01,9.78567e-01,6.99707e-01,9.99999e-01
8.285238370e-01,6.91570e-01,9.99999e-01,9.99999e-01,9.81423e-01,7.04660e-01,9.99999e-01
8.326664562e-01,6.96288e-01,9.99999e-01,9.99999e-01,9.81310e-01,7.09549e-01,9.99999e-01
8.368297885e-01,7.04850e-01,9.99999e-01,9.99999e-01,9.86666e-01,7.14374e-01,9.99999e-01
8.410139374e-01,7.13431e-01,9.99999e-01,9.99999e-01,9.92066e-01,7.19136e-01,9.99999e-01
8.452190071e-01,7.21020e-01,9.99999e-01,9.99999e-01,9.96110e-01,7.23835e-01,9.99999e-01
8.494451021e-01,7.26819e-01,9.99999e-01,9.99999e-01,9.97732e-01,7.28471e-01,9.99999e-01
8.536923276e-01,7.32064e-01,9.99999e-01,9.99999e-01,9.98663e-01,7.33043e-01,9.99999e-01
8.579607893e-01,7.36945e-01,9.99999e-01,9.99999e-01,9.99174e-01,7.37554e-01,9.99999e-01
8.622505932e-01,7.41614e-01,9.99999e-01,9.99999e-01,9.99476e-01,7.42002e-01,9.99999e-01
8.665618462e-01,7.03415e-01,9.99999e-01,9.42721e-01,9.99674e-01,7.46389e-01,9.99999e-01
8.708946554e-01,5.87895e-01,9.99999e-01,7.83399e-01,9.99626e-01,7.50713e-01,9.99999e-01
8.752491287e-01,6.21599e-01,9.99999e-01,8.23737e-01,9.99501e-01,7.54977e-01,9.99999e-01
8.796253743e-01,6.82659e-01,9.99999e-01,8.99816e-01,9.99306e-01,7.59180e-01,9.99999e-01
8.840235012e-01,7.22244e-01,9.99999e-01,9.46925e-01,9.99208e-01,7.63323e-01,9.99999e-01
8.884436187e-01,7.48982e-01,9.99999e-01,9.78866e-01,9.97044e-01,7.67406e-01,9.99999e-01
8.928858368e-01,7.41629e-01,9.99999e-01,9.91375e-01,9.69687e-01,7.71430e-01,9.99999e-01
8.973502660e-01,7.33197e-01,9.99999e-01,9.97913e-01,9.47531e-01,7.75394e-01,9.99998e-01
9.018370173e-01,7.58189e-01,9.99999e-01,9.99770e-01,9.73128e-01,7.79300e-01,9.99998e-01
9.063462024e-01,7.59624e-01,9.99999e-01,9.93842e-01,9.75854e-01,7.83148e-01,9.99998e-01
9.108779334e-01,7.47438e-01,9.99999e-01,9.86373e-01,9.62825e-01,7.86938e-01,9.99998e-01
9.154323231e-01,7.55104e-01,9.99999e-01,9.96831e-01,9.58011e-01,7.90671e-01,9.99998e-01
9.200094847e-01,7.32197e-01,9.99999e-01,9.52088e-01,9.67043e-01,7.94348e-01,9.99998e-01
9.246095321e-01,7.07131e-01,9.99999e-01,9.34881e-01,9.47113e-01,7.97969e-01,9.99997e-01
9.292325798e-01,5.32230e-01,9.99999e-01,9.47723e-01,6.97872e-01,8.01534e-01,9.99994e-01
9.338787427e-01,4.84733e-01,9.99999e-01,9.50190e-01,6.31339e-01,8.05044e-01,9.99992e-01
9.385481364e-01,6.48419e-01,9.99999e-01,9.63185e-01,8.31477e-01,8.08500e-01,9.99992e-01
9.432408771e-01,6.11016e-01,9.99999e-01,9.77393e-01,7.69331e-01,8.11902e-01,9.99992e-01
9.479570815e-01,5.59729e-01,9.99999e-01,9.88312e-01,6.94379e-01,8.15250e-01,9.99993e-01
9.526968669e-01,6.22858e-01,9.99999e-01,9.94362e-01,7.64988e-01,8.18546e-01,9.99994e-01
9.574603512e-01,6.42325e-01,9.99999e-01,9.97589e-01,7.83426e-01,8.21790e-01,9.99995e-01
9.622476530e-01,6.76790e-01,9.99999e-01,9.99248e-01,8.20964e-01,8.24982e-01,9.99997e-01
9.670588912e-01,7.38915e-01,9.99999e-01,9.99775e-01,8.92471e-01,8.28123e-01,9.99998e-01
9.718941857e-01,7.74257e-01,9.99999e-01,9.99984e-01,9.31492e-01,8.31214e-01,9.99998e-01
9.767536566e-01,7.86525e-01,9.99999e-01,9.99999e-01,9.42788e-01,8.34255e-01,9.99998e-01
9.816374249e-01,8.01625e-01,9.99999e-01,9.99999e-01,9.57454e-01,8.37246e-01,9.99999e-01
9.865456120e-01,8.17696e-01,9.99999e-01,9.99999e-01,9.73228e-01,8.40189e-01,9.99999e-01
9.914783401e-01,8.29060e-01,9.99999e-01,9.99999e-01,9.83365e-01,8.43084e-01,9.99999e-01
9.964357318e-01,8.38243e-01,9.99999e-01,9.99999e-01,9.90910e-01,8.45931e-01,9.99999e-01
1.001417910e+00,8.44105e-01,9.99999e-01,9.99999e-01,9.94548e-01,8.48731e-01,9.99999e-01
1.006425000e+00,8.48830e-01,9.99999e-01,9.99999e-01,9.96880e-01,8.51485e-01,9.99999e-01
1.011457125e+00,8.52545e-01,9.99999e-01,9.99999e-01,9.98069e-01,8.54194e-01,9.99999e-01
1.016514411e+00,8.55732e-01,9.99999e-01,9.99999e-01,9.98686e-01,8.56857e-01,9.99999e-01
1.021596983e+00,8.58543e-01,9.99999e-01,9.99961e-01,9.98952e-01,8.59475e-01,9.99999e-01
1.026704968e+00,8.59270e-01,9.99999e-01,9.97588e-01,9.99182e-01,8.62050e-01,9.99999e-01
1.031838492e+00,8.33577e-01,9.99999e-01,9.64695e-01,9.99407e-01,8.64581e-01,9.99999e-01
1.036997685e+00,2.00142e-01,9.99999e-01,2.30892e-01,9.99646e-01,8.67070e-01,9.99999e-01
1.042182673e+00,2.23443e-01,9.99999e-01,2.57074e-01,9.99576e-01,8.69516e-01,9.99999e-01
1.047393587e+00,2.16884e-01,9.99999e-01,2.48868e-01,9.99440e-01,8.71921e-01,9.99999e-01
1.052630555e+00,2.04093e-02,9.99999e-01,2.33579e-02,9.99230e-01,8.74285e-01,9.99999e-01
1.057893707e+00,4.28620e-02,9.99999e-01,4.89424e-02,9.98713e-01,8.76608e-01,9.99999e-01
1.063183176e+00,9.70659e-02,9.99999e-01,1.10624e-01,9.97886e-01,8.78891e-01,9.99999e-01
1.068499092e+00,1.97170e-01,9.99999e-01,2.24472e-01,9.96469e-01,8.81135e-01,9.99999e-01
1.073841587e+00,3.44433e-01,9.99999e-01,3.91373e-01,9.95857e-01,8.83340e-01,9.99999e-01
1.079210795e+00,4.86917e-01,9.99999e-01,5.52625e-01,9.94717e-01,8.85507e-01,9.99999e-01
1.084606849e+00,6.37158e-01,9.99999e-01,7.23438e-01,9.91993e-01,8.87637e-01,9.99999e-01
1.090029883e+00,7.43584e-01,9.99999e-01,8.45364e-01,9.88417e-01,8.89729e-01,9.99999e-01
1.095480033e+00,7.95711e-01,9.99999e-01,9.20773e-01,9.68834e-01,8.91785e-01,9.99998e-01
1.100957433e+00,7.92688e-01,9.99999e-01,9.61025e-01,9.22597e-01,8.93804e-01,9.99998e-01
1.106462220e+00,7.17178e-01,9.99999e-01,9.83735e-01,8.13535e-01,8.95789e-01,9.99996e-01
1.111994531e+00,5.79192e-01,9.99999e-01,9.93941e-01,6.48916e-01,8.97738e-01,9.99993e-01
1.117554504e+00,4.45781e-01,9.99999e-01,9.98527e-01,4.96146e-01,8.99653e-01,9.99991e-01
1.123142276e+00,5.37053e-01,9.99999e-01,9.99903e-01,5.95751e-01,9.01534e-01,9.99989e-01
1.128757988e+00,6.48762e-01,9.99999e-01,9.99999e-01,7.18156e-01,9.03382e-01,9.99988e-01
1.134401778e+00,4.25876e-01,9.99999e-01,9.99999e-01,4.70485e-01,9.05197e-01,9.99987e-01
1.140073787e+00,7.45284e-01,9.99999e-01,9.99999e-01,8.21729e-01,9.06979e-01,9.99989e-01
1.145774156e+00,6.02952e-01,9.99999e-01,9.99999e-01,6.63515e-01,9.08730e-01,9.99991e-01
1.151503026e+00,5.75158e-01,9.99999e-01,9.99999e-01,6.31733e-01,9.10450e-01,9.99992e-01
1.157260541e+00,6.24469e-01,9.99999e-01,9.99999e-01,6.84623e-01,9.12138e-01,9.99994e-01
1.163046844e+00,6.91467e-01,9.99999e-01,9.99999e-01,7.56698e-01,9.13797e-01,9.99996e-01
1.168862078e+00,7.54820e-01,9.99999e-01,9.99999e-01,8.24558e-01,9.15425e-01,9.99997e-01
1.174706389e+00,8.14093e-01,9.99999e-01,9.99999e-01,8.87755e-01,9.17024e-01,9.99998e-01
1.180579921e+00,8.54432e-01,9.99999e-01,9.99999e-01,9.30151e-01,9.18595e-01,9.99998e-01
1.186482820e+00,8.83250e-01,9.99999e-01,9.99993e-01,9.59916e-01,9.20137e-01,9.99999e-01
1.192415234e+00,8.92131e-01,9.99999e-01,9.91310e-01,9.76395e-01,9.21651e-01,9.99999e-01
1.198377311e+00,5.20772e-01,9.99999e-01,5.73744e-01,9.80024e-01,9.23137e-01,9.99999e-01
1.204369197e+00,7.65180e-08,9.99999e-01,8.36743e-08,9.81099e-01,9.24597e-01,9.99999e-01
1.210391043e+00,2.90346e-26,9.99999e-01,3.16728e-26,9.81929e-01,9.26030e-01,9.99999e-01
1.216442998e+00,5.72574e-23,9.99999e-01,6.23322e-23,9.84648e-01,9.27436e-01,9.99999e-01
1.222525213e+00,1.21006e-22,9.99999e-01,1.31095e-22,9.88019e-01,9.28817e-01,9.99999e-01
1.228637839e+00,1.74548e-17,9.99999e-01,1.88763e-17,9.91661e-01,9.30173e-01,9.99999e-01
