#,Wave/freq,Total,O2,CO2,H2O,Rayleigh,CIA
4.000000000e-01,2.62253e-12,9.99999e-01,9.99999e-01,9.99947e-01,2.62267e-12,9.99999e-01
4.020000000e-01,4.44348e-12,9.99999e-01,9.99999e-01,9.99967e-01,4.44363e-12,9.99999e-01
4.040100000e-01,7.44676e-12,9.99999e-01,9.99999e-01,9.99985e-01,7.44686e-12,9.99999e-01
4.060300500e-01,1.23532e-11,9.99999e-01,9.99999e-01,9.99996e-01,1.23532e-11,9.99999e-01
4.080602003e-01,2.02882e-11,9.99999e-01,9.99999e-01,9.99998e-01,2.02882e-11,9.99999e-01
4.101005013e-01,3.29953e-11,9.99999e-01,9.99999e-01,9.99999e-01,3.29953e-11,9.99999e-01
4.121510038e-01,5.31481e-11,9.99999e-01,9.99999e-01,9.99997e-01,5.31482e-11,9.99999e-01
4.142117588e-01,8.48065e-11,9.99999e-01,9.99999e-01,9.99985e-01,8.48078e-11,9.99999e-01
4.162828176e-01,1.34074e-10,9.99999e-01,9.99999e-01,9.99934e-01,1.34083e-10,9.99999e-01
4.183642317e-01,2.10071e-10,9.99999e-01,9.99999e-01,9.99961e-01,2.10079e-10,9.99999e-01
4.204560528e-01,3.26234e-10,9.99999e-01,9.99999e-01,9.99975e-01,3.26242e-10,9.99999e-01
4.225583331e-01,5.02247e-10,9.99999e-01,9.99999e-01,9.99990e-01,5.02251e-10,9.99999e-01
4.246711247e-01,7.66651e-10,9.99999e-01,9.99999e-01,9.99992e-01,7.66656e-10,9.99999e-01
4.267944804e-01,1.16051e-09,9.99999e-01,9.99999e-01,9.99989e-01,1.16052e-09,9.99999e-01
4.289284528e-01,1.74238e-09,9.99999e-01,9.99999e-01,9.99991e-01,1.74240e-09,9.99999e-01
4.310730950e-01,2.59511e-09,9.99999e-01,9.99999e-01,9.99996e-01,2.59512e-09,9.99999e-01
4.332284605e-01,3.83485e-09,9.99999e-01,9.99999e-01,9.99998e-01,3.83485e-09,9.99999e-01
4.353946028e-01,5.62328e-09,9.99999e-01,9.99999e-01,9.99999e-01,5.62329e-09,9.99999e-01
4.375715758e-01,8.18362e-09,9.99999e-01,9.99999e-01,9.99993e-01,8.18367e-09,9.99999e-01
4.397594337e-01,1.18212e-08,9.99999e-01,9.99999e-01,9.99942e-01,1.18219e-08,9.99999e-01
4.419582309e-01,1.69491e-08,9.99999e-01,9.99999e-01,9.99711e-01,1.69540e-08,9.99999e-01
4.441680220e-01,2.41360e-08,9.99999e-01,9.99999e-01,9.99774e-01,2.41414e-08,9.99999e-01
4.463888621e-01,3.41287e-08,9.99999e-01,9.99999e-01,9.99765e-01,3.41367e-08,9.99999e-01
4.486208064e-01,4.79343e-08,9.99999e-01,9.99999e-01,9.99853e-01,4.79413e-08,9.99999e-01
4.508639105e-01,6.68735e-08,9.99999e-01,9.99999e-01,9.99931e-01,6.68780e-08,9.99999e-01
4.531182300e-01,9.26809e-08,9.99999e-01,9.99999e-01,9.99972e-01,9.26834e-08,9.99999e-01
4.553838212e-01,1.27618e-07,9.99999e-01,9.99999e-01,9.99981e-01,1.27621e-07,9.99999e-01
4.576607403e-01,1.74619e-07,9.99999e-01,9.99999e-01,9.99991e-01,1.74621e-07,9.99999e-01
4.599490440e-01,2.37454e-07,9.99999e-01,9.99999e-01,9.99993e-01,2.37455e-07,9.99999e-01
4.622487892e-01,3.20944e-07,9.99999e-01,9.99999e-01,9.99998e-01,3.20945e-07,9.99999e-01
4.645600332e-01,4.31214e-07,9.99999e-01,9.99999e-01,9.99995e-01,4.31215e-07,9.99999e-01
4.668828333e-01,5.75964e-07,9.99999e-01,9.99999e-01,9.99930e-01,5.76003e-07,9.99999e-01
4.692172475e-01,7.64906e-07,9.99999e-01,9.99999e-01,9.99852e-01,7.65019e-07,9.99999e-01
4.715633337e-01,1.01028e-06,9.99999e-01,9.99999e-01,9.99903e-01,1.01038e-06,9.99999e-01
4.739211504e-01,1.32700e-06,9.99999e-01,9.99999e-01,9.99907e-01,1.32712e-06,9.99999e-01
4.762907561e-01,1.73371e-06,9.99999e-01,9.99999e-01,9.99951e-01,1.73380e-06,9.99999e-01
4.786722099e-01,2.25312e-06,9.99999e-01,9.99999e-01,9.99980e-01,2.25316e-06,9.99999e-01
4.810655710e-01,2.91297e-06,9.99999e-01,9.99999e-01,9.99993e-01,2.91299e-06,9.99999e-01
4.834708988e-01,3.74677e-06,9.99999e-01,9.99999e-01,9.99943e-01,3.74698e-06,9.99999e-01
4.858882533e-01,4.79534e-06,9.99999e-01,9.99999e-01,9.99895e-01,4.79584e-06,9.99999e-01
4.883176946e-01,6.10791e-06,9.99999e-01,9.99999e-01,9.99912e-01,6.10845e-06,9.99999e-01
4.907592831e-01,7.74261e-06,9.99999e-01,9.99999e-01,9.99920e-01,7.74322e-06,9.99999e-01
4.932130795e-01,9.76908e-06,9.99999e-01,9.99999e-01,9.99943e-01,9.76963e-06,9.99999e-01
4.956791449e-01,1.22695e-05,9.99999e-01,9.99999e-01,9.99969e-01,1.22699e-05,9.99999e-01
4.981575406e-01,1.53385e-05,9.99999e-01,9.99999e-01,9.99851e-01,1.53408e-05,9.99999e-01
5.006483283e-01,1.90886e-05,9.99999e-01,9.99999e-01,9.99617e-01,1.90959e-05,9.99999e-01
5.031515699e-01,2.36216e-05,9.99999e-01,9.99999e-01,9.98061e-01,2.36675e-05,9.99999e-01
5.056673278e-01,2.91796e-05,9.99999e-01,9.99999e-01,9.98975e-01,2.92095e-05,9.99999e-01
5.081956644e-01,3.58534e-05,9.99999e-01,9.99999e-01,9.98707e-01,3.58998e-05,9.99999e-01
5.107366428e-01,4.39046e-05,9.99999e-01,9.99999e-01,9.99127e-01,4.39430e-05,9.99999e-01
5.132903260e-01,5.35472e-05,9.99999e-01,9.99999e-01,9.99500e-01,5.35739e-05,9.99999e-01
5.158567776e-01,6.50467e-05,9.99999e-01,9.99999e-01,9.99788e-01,6.50604e-05,9.99999e-01
5.184360615e-01,7.87005e-05,9.99999e-01,9.99999e-01,9.99915e-01,7.87072e-05,9.99999e-01
5.210282418e-01,9.48559e-05,9.99999e-01,9.99999e-01,9.99968e-01,9.48589e-05,9.99999e-01
5.236333830e-01,1.13890e-04,9.99999e-01,9.99999e-01,9.99873e-01,1.13904e-04,9.99999e-01
5.262515499e-01,1.36270e-04,9.99999e-01,9.99999e-01,9.99920e-01,1.36281e-04,9.99999e-01
5.288828077e-01,1.62464e-04,9.99999e-01,9.99999e-01,9.99927e-01,1.62476e-04,9.99999e-01
5.315272217e-01,1.93022e-04,9.99999e-01,9.99999e-01,9.99935e-01,1.93034e-04,9.99999e-01
5.341848578e-01,2.28552e-04,9.99999e-01,9.99999e-01,9.99957e-01,2.28561e-04,9.99999e-01
5.368557821e-01,2.69685e-04,9.99999e-01,9.99999e-01,9.99852e-01,2.69725e-04,9.99999e-01
5.395400610e-01,3.17095e-04,9.99999e-01,9.99999e-01,9.99469e-01,3.17263e-04,9.99999e-01
5.422377613e-01,3.71729e-04,9.99999e-01,9.99999e-01,9.99312e-01,3.71985e-04,9.99999e-01
5.449489501e-01,4.34499e-04,9.99999e-01,9.99999e-01,9.99361e-01,4.34776e-04,9.99999e-01
5.476736949e-01,5.06317e-04,9.99999e-01,9.99999e-01,9.99433e-01,5.06604e-04,9.99999e-01
5.504120634e-01,5.88276e-04,9.99999e-01,9.99999e-01,9.99588e-01,5.88517e-04,9.99999e-01
5.531641237e-01,6.81514e-04,9.99999e-01,9.99999e-01,9.99792e-01,6.81655e-04,9.99999e-01
5.559299443e-01,7.87166e-04,9.99999e-01,9.99999e-01,9.99899e-01,7.87244e-04,9.99999e-01
5.587095940e-01,9.06550e-04,9.99999e-01,9.99999e-01,9.99937e-01,9.06607e-04,9.99999e-01
5.615031420e-01,1.04109e-03,9.99999e-01,9.99999e-01,9.99929e-01,1.04116e-03,9.99999e-01
5.643106577e-01,1.19233e-03,9.99999e-01,9.99999e-01,9.99920e-01,1.19242e-03,9.99999e-01
5.671322110e-01,1.36070e-03,9.99999e-01,9.99999e-01,9.99043e-01,1.36200e-03,9.99999e-01
5.699678720e-01,1.55003e-03,9.99999e-01,9.99999e-01,9.98977e-01,1.55161e-03,9.99999e-01
5.728177114e-01,1.76121e-03,9.99999e-01,9.99999e-01,9.98937e-01,1.76308e-03,9.99999e-01
5.756818000e-01,1.99637e-03,9.99999e-01,9.99999e-01,9.99024e-01,1.99832e-03,9.99999e-01
5.785602090e-01,2.25743e-03,9.99999e-01,9.99999e-01,9.99149e-01,2.25935e-03,9.99999e-01
5.814530100e-01,2.54612e-03,9.99999e-01,9.99999e-01,9.99146e-01,2.54829e-03,9.99999e-01
5.843602750e-01,2.86445e-03,9.99999e-01,9.99999e-01,9.98983e-01,2.86736e-03,9.99999e-01
5.872820764e-01,3.19078e-03,9.99999e-01,9.99999e-01,9.91273e-01,3.21887e-03,9.99999e-01
5.902184868e-01,3.56705e-03,9.99999e-01,9.99999e-01,9.89411e-01,3.60523e-03,9.99999e-01
5.931695792e-01,3.99878e-03,9.99999e-01,9.99999e-01,9.92517e-01,4.02893e-03,9.99999e-01
5.961354271e-01,4.45568e-03,9.99999e-01,9.99999e-01,9.91793e-01,4.49255e-03,9.99999e-01
5.991161043e-01,4.96880e-03,9.99999e-01,9.99999e-01,9.94007e-01,4.99875e-03,9.99999e-01
6.021116848e-01,5.53138e-03,9.99999e-01,9.99999e-01,9.96594e-01,5.55028e-03,9.99999e-01
6.051222432e-01,6.13933e-03,9.99999e-01,9.99999e-01,9.98275e-01,6.14993e-03,9.99999e-01
6.081478544e-01,6.79552e-03,9.99999e-01,9.99999e-01,9.99255e-01,6.80057e-03,9.99999e-01
6.111885937e-01,7.50277e-03,9.99999e-01,9.99999e-01,9.99684e-01,7.50513e-03,9.99999e-01
6.142445367e-01,8.26540e-03,9.99999e-01,9.99999e-01,9.99859e-01,8.26656e-03,9.99999e-01
6.173157594e-01,9.08719e-03,9.99999e-01,9.99999e-01,9.99922e-01,9.08789e-03,9.99999e-01
6.204023382e-01,9.97149e-03,9.99999e-01,9.99999e-01,9.99934e-01,9.97214e-03,9.99999e-01
6.235043498e-01,1.09192e-02,9.99999e-01,9.99999e-01,9.99711e-01,1.09224e-02,9.99999e-01
6.266218716e-01,1.19234e-02,9.99999e-01,9.99999e-01,9.98471e-01,1.19417e-02,9.99999e-01
6.297549810e-01,1.30258e-02,9.99999e-01,9.99999e-01,9.99439e-01,1.30331e-02,9.99999e-01
6.329037559e-01,1.41840e-02,9.99999e-01,9.99999e-01,9.98891e-01,1.41997e-02,9.99999e-01
6.360682746e-01,1.54301e-02,9.99999e-01,9.99999e-01,9.99056e-01,1.54446e-02,9.99999e-01
6.392486160e-01,1.67503e-02,9.99999e-01,9.99999e-01,9.98776e-01,1.67708e-02,9.99999e-01
6.424448591e-01,1.81515e-02,9.99999e-01,9.99999e-01,9.98366e-01,1.81812e-02,9.99999e-01
6.456570834e-01,1.95300e-02,9.99999e-01,9.99999e-01,9.92433e-01,1.96789e-02,9.99999e-01
6.488853688e-01,2.11485e-02,9.99999e-01,9.99999e-01,9.94446e-01,2.12666e-02,9.99999e-01
6.521297956e-01,2.28173e-02,9.99999e-01,9.99999e-01,9.94339e-01,2.29472e-02,9.99999e-01
6.553904446e-01,2.45842e-02,9.99999e-01,9.99999e-01,9.94367e-01,2.47235e-02,9.99999e-01
6.586673968e-01,2.64696e-02,9.99999e-01,9.99999e-01,9.95171e-01,2.65980e-02,9.99999e-01
6.619607338e-01,2.84936e-02,9.99999e-01,9.99999e-01,9.97205e-01,2.85734e-02,9.99999e-01
6.652705375e-01,3.06026e-02,9.99999e-01,9.99999e-01,9.98381e-01,3.06522e-02,9.99999e-01
6.685968902e-01,3.28118e-02,9.99999e-01,9.99999e-01,9.99247e-01,3.28365e-02,9.99999e-01
6.719398746e-01,3.51165e-02,9.99999e-01,9.99999e-01,9.99651e-01,3.51288e-02,9.99999e-01
6.752995740e-01,3.75239e-02,9.99999e-01,9.99999e-01,9.99810e-01,3.75310e-02,9.99999e-01
6.786760719e-01,4.00342e-02,9.99999e-01,9.99999e-01,9.99727e-01,4.00451e-02,9.99999e-01
6.820694522e-01,4.26530e-02,9.99999e-01,9.99999e-01,9.99533e-01,4.26729e-02,9.99999e-01
6.854797995e-01,4.53888e-02,9.99999e-01,9.99999e-01,9.99398e-01,4.54161e-02,9.99999e-01
6.889071985e-01,4.82062e-02,9.99999e-01,9.99999e-01,9.98548e-01,4.82762e-02,9.99999e-01
6.923517345e-01,5.00508e-02,9.99999e-01,9.99999e-01,9.76512e-01,5.12546e-02,9.99999e-01
6.958134932e-01,5.36832e-02,9.99999e-01,9.99999e-01,9.87686e-01,5.43524e-02,9.99999e-01
6.992925606e-01,5.68985e-02,9.99999e-01,9.99999e-01,9.88323e-01,5.75707e-02,9.99999e-01
7.027890234e-01,6.00320e-02,9.99999e-01,9.99999e-01,9.85580e-01,6.09103e-02,9.99999e-01
7.063029686e-01,6.35905e-02,9.99999e-01,9.99999e-01,9.87861e-01,6.43718e-02,9.99999e-01
7.098344834e-01,6.71642e-02,9.99999e-01,9.99999e-01,9.88349e-01,6.79559e-02,9.99999e-01
7.133836558e-01,7.05554e-02,9.99999e-01,9.99999e-01,9.84547e-01,7.16628e-02,9.99998e-01
7.169505741e-01,6.66526e-02,9.99999e-01,9.99999e-01,8.82903e-01,7.54926e-02,9.99998e-01
7.205353270e-01,7.47249e-02,9.99999e-01,9.99999e-01,9.40583e-01,7.94453e-02,9.99997e-01
7.241380036e-01,7.72753e-02,9.99999e-01,9.99999e-01,9.25222e-01,8.35208e-02,9.99997e-01
7.277586936e-01,8.17776e-02,9.99999e-01,9.99999e-01,9.32272e-01,8.77187e-02,9.99998e-01
7.313974871e-01,8.54040e-02,9.99999e-01,9.99999e-01,9.27918e-01,9.20383e-02,9.99998e-01
7.350544745e-01,9.26137e-02,9.99999e-01,9.99999e-01,9.59936e-01,9.64790e-02,9.99998e-01
7.387297469e-01,9.80421e-02,9.99999e-01,9.99999e-01,9.70331e-01,1.01040e-01,9.99999e-01
7.424233956e-01,1.04173e-01,9.99999e-01,9.99999e-01,9.85364e-01,1.05720e-01,9.99999e-01
7.461355126e-01,1.09535e-01,9.99999e-01,9.99999e-01,9.91107e-01,1.10518e-01,9.99999e-01
7.498661902e-01,1.14953e-01,9.99999e-01,9.99999e-01,9.95848e-01,1.15432e-01,9.99999e-01
7.536155211e-01,1.20216e-01,9.99999e-01,9.99999e-01,9.97962e-01,1.20461e-01,9.99999e-01
7.573835987e-01,1.25472e-01,9.99999e-01,9.99999e-01,9.98950e-01,1.25604e-01,9.99999e-01
7.611705167e-01,1.30773e-01,9.99999e-01,9.99999e-01,9.99347e-01,1.30858e-01,9.99999e-01
7.649763693e-01,1.36166e-01,9.99999e-01,9.99999e-01,9.99591e-01,1.36221e-01,9.99999e-01
7.688012511e-01,1.41652e-01,9.99999e-01,9.99999e-01,9.99715e-01,1.41692e-01,9.99999e-01
7.726452574e-01,1.47234e-01,9.99999e-01,9.99999e-01,9.99765e-01,1.47268e-01,9.99999e-01
7.765084837e-01,1.52896e-01,9.99999e-01,9.99999e-01,9.99667e-01,1.52947e-01,9.99999e-01
7.803910261e-01,1.46745e-01,9.99999e-01,9.25750e-01,9.98565e-01,1.58726e-01,9.99999e-01
7.842929812e-01,1.12886e-01,9.99999e-01,6.88889e-01,9.95001e-01,1.64603e-01,9.99999e-01
7.882144461e-01,1.13894e-01,9.99999e-01,6.74040e-01,9.89711e-01,1.70575e-01,9.99999e-01
7.921555184e-01,1.38256e-01,9.99999e-01,7.86907e-01,9.94342e-01,1.76639e-01,9.99999e-01
7.961162960e-01,1.53944e-01,9.99999e-01,8.50453e-01,9.90040e-01,1.82793e-01,9.99999e-01
8.000968774e-01,1.71149e-01,9.99999e-01,9.15864e-01,9.88486e-01,1.89033e-01,9.99999e-01
8.040973618e-01,1.84506e-01,9.99999e-01,9.55407e-01,9.88487e-01,1.95356e-01,9.99999e-01
8.081178486e-01,1.92516e-01,9.99999e-01,9.79275e-01,9.74285e-01,2.01760e-01,9.99998e-01
8.121584379e-01,1.85699e-01,9.99999e-01,9.93547e-01,8.97400e-01,2.08241e-01,9.99998e-01
8.162192301e-01,1.88626e-01,9.99999e-01,9.98571e-01,8.79362e-01,2.14796e-01,9.99997e-01
8.203003262e-01,2.07871e-01,9.99999e-01,9.99977e-01,9.38820e-01,2.21422e-01,9.99997e-01
8.244018279e-01,2.08873e-01,9.99999e-01,9.99999e-01,9.15650e-01,2.28115e-01,9.99997e-01
8.285238370e-01,2.17499e-01,9.99999e-01,9.99999e-01,9.26031e-01,2.34872e-01,9.99998e-01
8.326664562e-01,2.23631e-01,9.99999e-01,9.99999e-01,9.25278e-01,2.41690e-01,9.99998e-01
8.368297885e-01,2.35111e-01,9.99999e-01,9.99999e-01,9.45871e-01,2.48566e-01,9.99998e-01
8.410139374e-01,2.47181e-01,9.99999e-01,9.99999e-01,9.67457e-01,2.55495e-01,9.99999e-01
8.452190071e-01,2.58250e-01,9.99999e-01,9.99999e-01,9.83900e-01,2.62475e-01,9.99999e-01
8.494451021e-01,2.66978e-01,9.99999e-01,9.99999e-01,9.90633e-01,2.69503e-01,9.99999e-01
8.536923276e-01,2.75038e-01,9.99999e-01,9.99999e-01,9.94448e-01,2.76574e-01,9.99999e-01
8.579607893e-01,2.82715e-01,9.99999e-01,9.99999e-01,9.96579e-01,2.83685e-01,9.99999e-01
8.622505932e-01,2.90201e-01,9.99999e-01,9.99999e-01,9.97825e-01,2.90833e-01,9.99999e-01
8.665618462e-01,2.61861e-01,9.99999e-01,8.79795e-01,9.98655e-01,2.98015e-01,9.99999e-01
8.708946554e-01,1.21346e-01,9.99999e-01,3.98127e-01,9.98460e-01,3.05228e-01,9.99999e-01
8.752491287e-01,1.45493e-01,9.99999e-01,4.66529e-01,9.97941e-01,3.12467e-01,9.99999e-01
8.796253743e-01,2.07924e-01,9.99999e-01,6.52042e-01,9.97151e-01,3.19729e-01,9.99999e-01
8.840235012e-01,2.60337e-01,9.99999e-01,7.98610e-01,9.96746e-01,3.27012e-01,9.99999e-01
8.884436187e-01,3.02294e-01,9.99999e-01,9.14730e-01,9.88235e-01,3.34313e-01,9.99998e-01
8.928858368e-01,2.91223e-01,9.99999e-01,9.64488e-01,8.83147e-01,3.41627e-01,9.99997e-01
8.973502660e-01,2.77846e-01,9.99999e-01,9.91249e-01,8.02906e-01,3.48952e-01,9.99996e-01
9.018370173e-01,3.18201e-01,9.99999e-01,9.99031e-01,8.93911e-01,3.56285e-01,9.99996e-01
9.063462024e-01,3.22108e-01,9.99999e-01,9.75869e-01,9.06024e-01,3.63622e-01,9.99995e-01
9.108779334e-01,3.00936e-01,9.99999e-01,9.44648e-01,8.57317e-01,3.70961e-01,9.99995e-01
9.154323231e-01,3.13454e-01,9.99999e-01,9.86699e-01,8.39172e-01,3.78299e-01,9.99995e-01
9.200094847e-01,2.86600e-01,9.99999e-01,8.39232e-01,8.71896e-01,3.85633e-01,9.99993e-01
9.246095321e-01,2.44179e-01,9.99999e-01,7.57770e-01,8.11668e-01,3.92960e-01,9.99989e-01
9.292325798e-01,8.83146e-02,9.99999e-01,8.07248e-01,2.62190e-01,4.00277e-01,9.99979e-01
9.338787427e-01,6.11838e-02,9.99999e-01,8.11283e-01,1.77918e-01,4.07582e-01,9.99972e-01
9.385481364e-01,1.79338e-01,9.99999e-01,8.56718e-01,4.95367e-01,4.14872e-01,9.99972e-01
9.432408771e-01,1.50683e-01,9.99999e-01,9.09276e-01,3.88466e-01,4.22145e-01,9.99968e-01
9.479570815e-01,1.11919e-01,9.99999e-01,9.52360e-01,2.72270e-01,4.29397e-01,9.99972e-01
9.526968669e-01,1.56950e-01,9.99999e-01,9.76751e-01,3.66583e-01,4.36628e-01,9.99979e-01
9.574603512e-01,1.69787e-01,9.99999e-01,9.89985e-01,3.85850e-01,4.43833e-01,9.99984e-01
9.622476530e-01,2.05002e-01,9.99999e-01,9.96864e-01,4.55775e-01,4.51012e-01,9.99989e-01
9.670588912e-01,2.90125e-01,9.99999e-01,9.99059e-01,6.33764e-01,4.58162e-01,9.99993e-01
9.718941857e-01,3.48010e-01,9.99999e-01,9.99933e-01,7.48002e-01,4.65280e-01,9.99995e-01
9.767536566e-01,3.71094e-01,9.99999e-01,9.99999e-01,7.85609e-01,4.72365e-01,9.99996e-01
9.816374249e-01,4.00640e-01,9.99999e-01,9.99999e-01,8.35684e-01,4.79415e-01,9.99997e-01
9.865456120e-01,4.34718e-01,9.99999e-01,9.99999e-01,8.93695e-01,4.86428e-01,9.99998e-01
9.914783401e-01,4.60245e-01,9.99999e-01,9.99999e-01,9.32798e-01,4.93402e-01,9.99999e-01
9.964357318e-01,4.81733e-01,9.99999e-01,9.99999e-01,9.62820e-01,5.00335e-01,9.99999e-01
1.001417910e+00,4.95834e-01,9.99999e-01,9.99999e-01,9.77541e-01,5.07226e-01,9.99999e-01
1.006425000e+00,5.07461e-01,9.99999e-01,9.99999e-01,9.87138e-01,5.14072e-01,9.99999e-01
1.011457125e+00,5.16705e-01,9.99999e-01,9.99999e-01,9.91996e-01,5.20873e-01,9.99999e-01
1.016514411e+00,5.24758e-01,9.99999e-01,9.99999e-01,9.94560e-01,5.27627e-01,9.99999e-01
1.021596983e+00,5.31949e-01,9.99999e-01,9.99871e-01,9.95664e-01,5.34333e-01,9.99999e-01
1.026704968e+00,5.34011e-01,9.99999e-01,9.90440e-01,9.96617e-01,5.40989e-01,9.99999e-01
1.031838492e+00,5.01077e-01,9.99999e-01,9.17197e-01,9.97539e-01,5.47594e-01,9.99999e-01
1.036997685e+00,3.48887e-02,9.99999e-01,6.30291e-02,9.98538e-01,5.54147e-01,9.99999e-01
1.042182673e+00,4.39907e-03,9.99999e-01,7.85722e-03,9.98258e-01,5.60646e-01,9.99999e-01
1.047393587e+00,9.98734e-03,9.99999e-01,1.76458e-02,9.97690e-01,5.67091e-01,9.99999e-01
1.052630555e+00,4.35475e-06,9.99999e-01,7.60908e-06,9.96833e-01,5.73481e-01,9.99999e-01
1.057893707e+00,1.60405e-05,9.99999e-01,2.77443e-05,9.94719e-01,5.79814e-01,9.99999e-01
1.063183176e+00,2.38173e-04,9.99999e-01,4.08501e-04,9.91323e-01,5.86090e-01,9.99999e-01
1.068499092e+00,1.80602e-03,9.99999e-01,3.08049e-03,9.85509e-01,5.92308e-01,9.99999e-01
1.073841587e+00,1.44986e-02,9.99999e-01,2.45365e-02,9.83078e-01,5.98467e-01,9.99999e-01
1.079210795e+00,5.74707e-02,9.99999e-01,9.67640e-02,9.78344e-01,6.04567e-01,9.99998e-01
1.084606849e+00,1.58786e-01,9.99999e-01,2.67878e-01,9.67425e-01,6.10606e-01,9.99998e-01
1.090029883e+00,2.96230e-01,9.99999e-01,5.02209e-01,9.53633e-01,6.16585e-01,9.99997e-01
1.095480033e+00,3.90493e-01,9.99999e-01,7.11429e-01,8.78684e-01,6.22502e-01,9.99996e-01
1.100957433e+00,3.86226e-01,9.99999e-01,8.48146e-01,7.21627e-01,6.28358e-01,9.99993e-01
1.106462220e+00,2.65809e-01,9.99999e-01,9.34064e-01,4.46268e-01,6.34152e-01,9.99987e-01
1.111994531e+00,1.18560e-01,9.99999e-01,9.75011e-01,1.89304e-01,6.39883e-01,9.99974e-01
1.117554504e+00,4.64967e-02,9.99999e-01,9.93838e-01,7.23146e-02,6.45551e-01,9.99964e-01
1.123142276e+00,1.04775e-01,9.99999e-01,9.99593e-01,1.60925e-01,6.51155e-01,9.99958e-01
1.128757988e+00,1.89141e-01,9.99999e-01,9.99999e-01,2.88032e-01,6.56697e-01,9.99954e-01
1.134401778e+00,8.59642e-02,9.99999e-01,9.99999e-01,1.29828e-01,6.62174e-01,9.99949e-01
1.140073787e+00,3.09343e-01,9.99999e-01,9.99999e-01,4.63393e-01,6.67588e-01,9.99959e-01
1.145774156e+00,1.45805e-01,9.99999e-01,9.99999e-01,2.16677e-01,6.72938e-01,9.99965e-01
1.151503026e+00,1.25517e-01,9.99999e-01,9.99999e-01,1.85073e-01,6.78224e-01,9.99970e-01
1.157260541e+00,1.54486e-01,9.99999e-01,9.99999e-01,2.26045e-01,6.83445e-01,9.99977e-01
1.163046844e+00,2.27251e-01,9.99999e-01,9.99999e-01,3.30022e-01,6.88603e-01,9.99985e-01
1.168862078e+00,3.15651e-01,9.99999e-01,9.99999e-01,4.55031e-01,6.93696e-01,9.99992e-01
1.174706389e+00,4.29390e-01,9.99999e-01,9.99999e-01,6.14535e-01,6.98725e-01,9.99995e-01
1.180579921e+00,5.22474e-01,9.99999e-01,9.99999e-01,7.42478e-01,7.03691e-01,9.99997e-01
1.186482820e+00,5.98366e-01,9.99999e-01,9.99982e-01,8.44455e-01,7.08592e-01,9.99997e-01
1.192415234e+00,6.25638e-01,9.99999e-01,9.67126e-01,9.05896e-01,7.13430e-01,9.99997e-01
1.198377311e+00,3.53930e-01,9.99999e-01,5.28188e-01,9.20130e-01,7.18204e-01,9.99998e-01
1.204369197e+00,2.17239e-25,9.99999e-01,3.14506e-25,9.24399e-01,7.22916e-01,9.99998e-01
1.210391043e+00,1.33970e-101,9.99999e-01,1.92008e-101,9.27486e-01,7.27564e-01,9.99998e-01
1.216442998e+00,5.69656e-88,9.99999e-01,8.09550e-88,9.37952e-01,7.32149e-01,9.99998e-01
1.222525213e+00,1.19255e-86,9.99999e-01,1.66099e-86,9.51309e-01,7.36671e-01,9.99999e-01
1.228637839e+00,6.53979e-67,9.99999e-01,9.03272e-67,9.65930e-01,7.41132e-01,9.99999e-01
