#,Wave/freq,Total,O2,CO2,H2O,Rayleigh,CIA
4.000000000e-01,3.40185e-10,9.99999e-01,9.99999e-01,9.99956e-01,3.40199e-10,9.99999e-01
4.020000000e-01,5.23527e-10,9.99999e-01,9.99999e-01,9.99972e-01,5.23541e-10,9.99999e-01
4.040100000e-01,7.98490e-10,9.99999e-01,9.99999e-01,9.99988e-01,7.98499e-10,9.99999e-01
4.060300500e-01,1.20775e-09,9.99999e-01,9.99999e-01,9.99996e-01,1.20775e-09,9.99999e-01
4.080602003e-01,1.81188e-09,9.99999e-01,9.99999e-01,9.99998e-01,1.81188e-09,9.99999e-01
4.101005013e-01,2.69652e-09,9.99999e-01,9.99999e-01,9.99999e-01,2.69652e-09,9.99999e-01
4.121510038e-01,3.98168e-09,9.99999e-01,9.99999e-01,9.99997e-01,3.98168e-09,9.99999e-01
4.142117588e-01,5.83420e-09,9.99999e-01,9.99999e-01,9.99987e-01,5.83426e-09,9.99999e-01
4.162828176e-01,8.48409e-09,9.99999e-01,9.99999e-01,9.99946e-01,8.48454e-09,9.99999e-01
4.183642317e-01,1.22474e-08,9.99999e-01,9.99999e-01,9.99968e-01,1.22478e-08,9.99999e-01
4.204560528e-01,1.75521e-08,9.99999e-01,9.99999e-01,9.99980e-01,1.75525e-08,9.99999e-01
4.225583331e-01,2.49763e-08,9.99999e-01,9.99999e-01,9.99992e-01,2.49765e-08,9.99999e-01
4.246711247e-01,3.52937e-08,9.99999e-01,9.99999e-01,9.99993e-01,3.52939e-08,9.99999e-01
4.267944804e-01,4.95333e-08,9.99999e-01,9.99999e-01,9.99991e-01,4.95337e-08,9.99999e-01
4.289284528e-01,6.90545e-08,9.99999e-01,9.99999e-01,9.99992e-01,6.90549e-08,9.99999e-01
4.310730950e-01,9.56394e-08,9.99999e-01,9.99999e-01,9.99996e-01,9.56397e-08,9.99999e-01
4.332284605e-01,1.31610e-07,9.99999e-01,9.99999e-01,9.99998e-01,1.31610e-07,9.99999e-01
4.353946028e-01,1.79970e-07,9.99999e-01,9.99999e-01,9.99999e-01,1.79970e-07,9.99999e-01
4.375715758e-01,2.44581e-07,9.99999e-01,9.99999e-01,9.99994e-01,2.44583e-07,9.99999e-01
4.397594337e-01,3.30370e-07,9.99999e-01,9.99999e-01,9.99953e-01,3.30385e-07,9.99999e-01
4.419582309e-01,4.43542e-07,9.99999e-01,9.99999e-01,9.99766e-01,4.43645e-07,9.99999e-01
4.441680220e-01,5.92165e-07,9.99999e-01,9.99999e-01,9.99814e-01,5.92274e-07,9.99999e-01
4.463888621e-01,7.86045e-07,9.99999e-01,9.99999e-01,9.99808e-01,7.86196e-07,9.99999e-01
4.486208064e-01,1.03767e-06,9.99999e-01,9.99999e-01,9.99880e-01,1.03779e-06,9.99999e-01
4.508639105e-01,1.36233e-06,9.99999e-01,9.99999e-01,9.99943e-01,1.36240e-06,9.99999e-01
4.531182300e-01,1.77893e-06,9.99999e-01,9.99999e-01,9.99977e-01,1.77897e-06,9.99999e-01
4.553838212e-01,2.31065e-06,9.99999e-01,9.99999e-01,9.99984e-01,2.31069e-06,9.99999e-01
4.576607403e-01,2.98585e-06,9.99999e-01,9.99999e-01,9.99992e-01,2.98587e-06,9.99999e-01
4.599490440e-01,3.83884e-06,9.99999e-01,9.99999e-01,9.99994e-01,3.83886e-06,9.99999e-01
4.622487892e-01,4.91108e-06,9.99999e-01,9.99999e-01,9.99998e-01,4.91109e-06,9.99999e-01
4.645600332e-01,6.25229e-06,9.99999e-01,9.99999e-01,9.99996e-01,6.25231e-06,9.99999e-01
4.668828333e-01,7.92149e-06,9.99999e-01,9.99999e-01,9.99943e-01,7.92194e-06,9.99999e-01
4.692172475e-01,9.98941e-06,9.99999e-01,9.99999e-01,9.99879e-01,9.99061e-06,9.99999e-01
4.715633337e-01,1.25409e-05,9.99999e-01,9.99999e-01,9.99921e-01,1.25419e-05,9.99999e-01
4.739211504e-01,1.56729e-05,9.99999e-01,9.99999e-01,9.99924e-01,1.56741e-05,9.99999e-01
4.762907561e-01,1.95017e-05,9.99999e-01,9.99999e-01,9.99960e-01,1.95024e-05,9.99999e-01
4.786722099e-01,2.41610e-05,9.99999e-01,9.99999e-01,9.99983e-01,2.41614e-05,9.99999e-01
4.810655710e-01,2.98067e-05,9.99999e-01,9.99999e-01,9.99994e-01,2.98069e-05,9.99999e-01
4.834708988e-01,3.66176e-05,9.99999e-01,9.99999e-01,9.99954e-01,3.66193e-05,9.99999e-01
4.858882533e-01,4.48023e-05,9.99999e-01,9.99999e-01,9.99914e-01,4.48061e-05,9.99999e-01
4.883176946e-01,5.46014e-05,9.99999e-01,9.99999e-01,9.99928e-01,5.46052e-05,9.99999e-01
4.907592831e-01,6.62837e-05,9.99999e-01,9.99999e-01,9.99935e-01,6.62879e-05,9.99999e-01
4.932130795e-01,8.01589e-05,9.99999e-01,9.99999e-01,9.99953e-01,8.01625e-05,9.99999e-01
4.956791449e-01,9.65756e-05,9.99999e-01,9.99999e-01,9.99975e-01,9.65780e-05,9.99999e-01
4.981575406e-01,1.15914e-04,9.99999e-01,9.99999e-01,9.99879e-01,1.15928e-04,9.99999e-01
5.006483283e-01,1.38610e-04,9.99999e-01,9.99999e-01,9.99689e-01,1.38653e-04,9.99999e-01
5.031515699e-01,1.64986e-04,9.99999e-01,9.99999e-01,9.98416e-01,1.65248e-04,9.99999e-01
5.056673278e-01,1.96098e-04,9.99999e-01,9.99999e-01,9.99161e-01,1.96262e-04,9.99999e-01
5.081956644e-01,2.32061e-04,9.99999e-01,9.99999e-01,9.98942e-01,2.32307e-04,9.99999e-01
5.107366428e-01,2.73862e-04,9.99999e-01,9.99999e-01,9.99285e-01,2.74057e-04,9.99999e-01
5.132903260e-01,3.22126e-04,9.99999e-01,9.99999e-01,9.99590e-01,3.22257e-04,9.99999e-01
5.158567776e-01,3.77659e-04,9.99999e-01,9.99999e-01,9.99826e-01,3.77724e-04,9.99999e-01
5.184360615e-01,4.41320e-04,9.99999e-01,9.99999e-01,9.99930e-01,4.41351e-04,9.99999e-01
5.210282418e-01,5.14099e-04,9.99999e-01,9.99999e-01,9.99973e-01,5.14112e-04,9.99999e-01
5.236333830e-01,5.97004e-04,9.99999e-01,9.99999e-01,9.99896e-01,5.97066e-04,9.99999e-01
5.262515499e-01,6.91315e-04,9.99999e-01,9.99999e-01,9.99934e-01,6.91359e-04,9.99999e-01
5.288828077e-01,7.98182e-04,9.99999e-01,9.99999e-01,9.99940e-01,7.98229e-04,9.99999e-01
5.315272217e-01,9.18958e-04,9.99999e-01,9.99999e-01,9.99947e-01,9.19006e-04,9.99999e-01
5.341848578e-01,1.05508e-03,9.99999e-01,9.99999e-01,9.99965e-01,1.05512e-03,9.99999e-01
5.368557821e-01,1.20794e-03,9.99999e-01,9.99999e-01,9.99879e-01,1.20808e-03,9.99999e-01
5.395400610e-01,1.37894e-03,9.99999e-01,9.99999e-01,9.99568e-01,1.37954e-03,9.99999e-01
5.422377613e-01,1.57031e-03,9.99999e-01,9.99999e-01,9.99436e-01,1.57120e-03,9.99999e-01
5.449489501e-01,1.78396e-03,9.99999e-01,9.99999e-01,9.99479e-01,1.78489e-03,9.99999e-01
5.476736949e-01,2.02161e-03,9.99999e-01,9.99999e-01,9.99535e-01,2.02255e-03,9.99999e-01
5.504120634e-01,2.28543e-03,9.99999e-01,9.99999e-01,9.99663e-01,2.28620e-03,9.99999e-01
5.531641237e-01,2.57754e-03,9.99999e-01,9.99999e-01,9.99830e-01,2.57797e-03,9.99999e-01
5.559299443e-01,2.89986e-03,9.99999e-01,9.99999e-01,9.99917e-01,2.90009e-03,9.99999e-01
5.587095940e-01,3.25472e-03,9.99999e-01,9.99999e-01,9.99948e-01,3.25489e-03,9.99999e-01
5.615031420e-01,3.64456e-03,9.99999e-01,9.99999e-01,9.99942e-01,3.64476e-03,9.99999e-01
5.643106577e-01,4.07197e-03,9.99999e-01,9.99999e-01,9.99935e-01,4.07223e-03,9.99999e-01
5.671322110e-01,4.53637e-03,9.99999e-01,9.99999e-01,9.99226e-01,4.53988e-03,9.99999e-01
5.699678720e-01,5.04613e-03,9.99999e-01,9.99999e-01,9.99160e-01,5.05037e-03,9.99999e-01
5.728177114e-01,5.60160e-03,9.99999e-01,9.99999e-01,9.99132e-01,5.60646e-03,9.99999e-01
5.756818000e-01,6.20599e-03,9.99999e-01,9.99999e-01,9.99202e-01,6.21094e-03,9.99999e-01
5.785602090e-01,6.86192e-03,9.99999e-01,9.99999e-01,9.99303e-01,6.86670e-03,9.99999e-01
5.814530100e-01,7.57137e-03,9.99999e-01,9.99999e-01,9.99301e-01,7.57666e-03,9.99999e-01
5.843602750e-01,8.33689e-03,9.99999e-01,9.99999e-01,9.99173e-01,8.34379e-03,9.99999e-01
5.872820764e-01,9.10587e-03,9.99999e-01,9.99999e-01,9.92886e-01,9.17110e-03,9.99999e-01
5.902184868e-01,9.97434e-03,9.99999e-01,9.99999e-01,9.91323e-01,1.00616e-02,9.99999e-01
5.931695792e-01,1.09510e-02,9.99999e-01,9.99999e-01,9.93880e-01,1.10185e-02,9.99999e-01
5.961354271e-01,1.19637e-02,9.99999e-01,9.99999e-01,9.93280e-01,1.20446e-02,9.99999e-01
5.991161043e-01,1.30787e-02,9.99999e-01,9.99999e-01,9.95090e-01,1.31433e-02,9.99999e-01
6.021116848e-01,1.42774e-02,9.99999e-01,9.99999e-01,9.97209e-01,1.43174e-02,9.99999e-01
6.051222432e-01,1.55480e-02,9.99999e-01,9.99999e-01,9.98586e-01,1.55700e-02,9.99999e-01
6.081478544e-01,1.68940e-02,9.99999e-01,9.99999e-01,9.99390e-01,1.69043e-02,9.99999e-01
6.111885937e-01,1.83183e-02,9.99999e-01,9.99999e-01,9.99741e-01,1.83230e-02,9.99999e-01
6.142445367e-01,1.98270e-02,9.99999e-01,9.99999e-01,9.99884e-01,1.98293e-02,9.99999e-01
6.173157594e-01,2.14246e-02,9.99999e-01,9.99999e-01,9.99936e-01,2.14259e-02,9.99999e-01
6.204023382e-01,2.31145e-02,9.99999e-01,9.99999e-01,9.99946e-01,2.31158e-02,9.99999e-01
6.235043498e-01,2.48957e-02,9.99999e-01,9.99999e-01,9.99766e-01,2.49015e-02,9.99999e-01
6.266218716e-01,2.67523e-02,9.99999e-01,9.99999e-01,9.98750e-01,2.67857e-02,9.99999e-01
6.297549810e-01,2.87579e-02,9.99999e-01,9.99999e-01,9.99541e-01,2.87711e-02,9.99999e-01
6.329037559e-01,3.08320e-02,9.99999e-01,9.99999e-01,9.99092e-01,3.08600e-02,9.99999e-01
6.360682746e-01,3.30293e-02,9.99999e-01,9.99999e-01,9.99229e-01,3.30548e-02,9.99999e-01
6.392486160e-01,3.53223e-02,9.99999e-01,9.99999e-01,9.99000e-01,3.53576e-02,9.99999e-01
6.424448591e-01,3.77204e-02,9.99999e-01,9.99999e-01,9.98670e-01,3.77706e-02,9.99999e-01
6.456570834e-01,4.00474e-02,9.99999e-01,9.99999e-01,9.93836e-01,4.02957e-02,9.99999e-01
6.488853688e-01,4.27059e-02,9.99999e-01,9.99999e-01,9.94670e-01,4.29347e-02,9.99999e-01
6.521297956e-01,4.54773e-02,9.99999e-01,9.99999e-01,9.95361e-01,4.56892e-02,9.99999e-01
6.553904446e-01,4.83382e-02,9.99999e-01,9.99999e-01,9.95416e-01,4.85608e-02,9.99999e-01
6.586673968e-01,5.13467e-02,9.99999e-01,9.99999e-01,9.96042e-01,5.15507e-02,9.99999e-01
6.619607338e-01,5.45351e-02,9.99999e-01,9.99999e-01,9.97710e-01,5.46602e-02,9.99999e-01
6.652705375e-01,5.78134e-02,9.99999e-01,9.99999e-01,9.98671e-01,5.78902e-02,9.99999e-01
6.685968902e-01,6.12039e-02,9.99999e-01,9.99999e-01,9.99382e-01,6.12416e-02,9.99999e-01
6.719398746e-01,6.46966e-02,9.99999e-01,9.99999e-01,9.99713e-01,6.47151e-02,9.99999e-01
6.752995740e-01,6.83006e-02,9.99999e-01,9.99999e-01,9.99845e-01,6.83111e-02,9.99999e-01
6.786760719e-01,7.20139e-02,9.99999e-01,9.99999e-01,9.99777e-01,7.20299e-02,9.99999e-01
6.820694522e-01,7.58428e-02,9.99999e-01,9.99999e-01,9.99618e-01,7.58717e-02,9.99999e-01
6.854797995e-01,7.97973e-02,9.99999e-01,9.99999e-01,9.99508e-01,7.98364e-02,9.99999e-01
6.889071985e-01,8.38253e-02,9.99999e-01,9.99999e-01,9.98825e-01,8.39238e-02,9.99999e-01
6.923517345e-01,8.64429e-02,9.99999e-01,9.99999e-01,9.80817e-01,8.81335e-02,9.99999e-01
6.958134932e-01,9.15251e-02,9.99999e-01,9.99999e-01,9.89835e-01,9.24650e-02,9.99999e-01
6.992925606e-01,9.59943e-02,9.99999e-01,9.99999e-01,9.90475e-01,9.69174e-02,9.99999e-01
7.027890234e-01,1.00290e-01,9.99999e-01,9.99999e-01,9.88181e-01,1.01490e-01,9.99999e-01
7.063029686e-01,1.05126e-01,9.99999e-01,9.99999e-01,9.90060e-01,1.06181e-01,9.99999e-01
7.098344834e-01,1.09932e-01,9.99999e-01,9.99999e-01,9.90460e-01,1.10991e-01,9.99999e-01
7.133836558e-01,1.14459e-01,9.99999e-01,9.99999e-01,9.87430e-01,1.15916e-01,9.99998e-01
7.169505741e-01,1.09248e-01,9.99999e-01,9.99999e-01,9.03202e-01,1.20957e-01,9.99998e-01
7.205353270e-01,1.19893e-01,9.99999e-01,9.99999e-01,9.50700e-01,1.26110e-01,9.99998e-01
7.241380036e-01,1.23285e-01,9.99999e-01,9.99999e-01,9.38422e-01,1.31375e-01,9.99998e-01
7.277586936e-01,1.29123e-01,9.99999e-01,9.99999e-01,9.44231e-01,1.36749e-01,9.99998e-01
7.313974871e-01,1.33760e-01,9.99999e-01,9.99999e-01,9.40451e-01,1.42230e-01,9.99998e-01
7.350544745e-01,1.42946e-01,9.99999e-01,9.99999e-01,9.67048e-01,1.47816e-01,9.99999e-01
7.387297469e-01,1.49763e-01,9.99999e-01,9.99999e-01,9.75620e-01,1.53505e-01,9.99999e-01
7.424233956e-01,1.57378e-01,9.99999e-01,9.99999e-01,9.87975e-01,1.59294e-01,9.99999e-01
7.461355126e-01,1.63975e-01,9.99999e-01,9.99999e-01,9.92705e-01,1.65180e-01,9.99999e-01
7.498661902e-01,1.70577e-01,9.99999e-01,9.99999e-01,9.96591e-01,1.71161e-01,9.99999e-01
7.536155211e-01,1.76938e-01,9.99999e-01,9.99999e-01,9.98330e-01,1.77234e-01,9.99999e-01
7.573835987e-01,1.83238e-01,9.99999e-01,9.99999e-01,9.99139e-01,1.83396e-01,9.99999e-01
7.611705167e-01,1.89543e-01,9.99999e-01,9.99999e-01,9.99465e-01,1.89644e-01,9.99999e-01
7.649763693e-01,1.95910e-01,9.99999e-01,9.99999e-01,9.99665e-01,1.95976e-01,9.99999e-01
7.688012511e-01,2.02340e-01,9.99999e-01,9.99999e-01,9.99766e-01,2.02387e-01,9.99999e-01
7.726452574e-01,2.08835e-01,9.99999e-01,9.99999e-01,9.99808e-01,2.08875e-01,9.99999e-01
7.765084837e-01,2.15379e-01,9.99999e-01,9.99999e-01,9.99729e-01,2.15437e-01,9.99999e-01
7.803910261e-01,2.08107e-01,9.99999e-01,9.38156e-01,9.98832e-01,2.22070e-01,9.99999e-01
7.842929812e-01,1.67295e-01,9.99999e-01,7.33997e-01,9.95931e-01,2.28769e-01,9.99999e-01
7.882144461e-01,1.68489e-01,9.99999e-01,7.20974e-01,9.91579e-01,2.35533e-01,9.99999e-01
7.921555184e-01,1.98244e-01,9.99999e-01,8.21623e-01,9.95358e-01,2.42357e-01,9.99999e-01
7.961162960e-01,2.16454e-01,9.99999e-01,8.75439e-01,9.91875e-01,2.49238e-01,9.99999e-01
8.000968774e-01,2.36122e-01,9.99999e-01,9.30445e-01,9.90578e-01,2.56172e-01,9.99999e-01
8.040973618e-01,2.51097e-01,9.99999e-01,9.63201e-01,9.90586e-01,2.63157e-01,9.99999e-01
8.081178486e-01,2.60033e-01,9.99999e-01,9.82982e-01,9.79014e-01,2.70189e-01,9.99999e-01
8.121584379e-01,2.52490e-01,9.99999e-01,9.94680e-01,9.15419e-01,2.77264e-01,9.99998e-01
8.162192301e-01,2.55588e-01,9.99999e-01,9.98822e-01,8.99777e-01,2.84379e-01,9.99998e-01
8.203003262e-01,2.76881e-01,9.99999e-01,9.99980e-01,9.49763e-01,2.91531e-01,9.99997e-01
8.244018279e-01,2.77662e-01,9.99999e-01,9.99999e-01,9.29518e-01,2.98716e-01,9.99997e-01
8.285238370e-01,2.87300e-01,9.99999e-01,9.99999e-01,9.39103e-01,3.05931e-01,9.99998e-01
8.326664562e-01,2.93855e-01,9.99999e-01,9.99999e-01,9.38316e-01,3.13172e-01,9.99998e-01
8.368297885e-01,3.06147e-01,9.99999e-01,9.99999e-01,9.55405e-01,3.20437e-01,9.99999e-01
8.410139374e-01,3.18954e-01,9.99999e-01,9.99999e-01,9.73244e-01,3.27722e-01,9.99999e-01
8.452190071e-01,3.30594e-01,9.99999e-01,9.99999e-01,9.86777e-01,3.35024e-01,9.99999e-01
8.494451021e-01,3.39713e-01,9.99999e-01,9.99999e-01,9.92329e-01,3.42339e-01,9.99999e-01
8.536923276e-01,3.48073e-01,9.99999e-01,9.99999e-01,9.95446e-01,3.49665e-01,9.99999e-01
8.579607893e-01,3.55999e-01,9.99999e-01,9.99999e-01,9.97199e-01,3.56998e-01,9.99999e-01
8.622505932e-01,3.63687e-01,9.99999e-01,9.99999e-01,9.98217e-01,3.64336e-01,9.99999e-01
8.665618462e-01,3.31317e-01,9.99999e-01,8.92342e-01,9.98899e-01,3.71675e-01,9.99999e-01
8.708946554e-01,1.75889e-01,9.99999e-01,4.64618e-01,9.98742e-01,3.79013e-01,9.99999e-01
8.752491287e-01,2.05086e-01,9.99999e-01,5.31682e-01,9.98317e-01,3.86346e-01,9.99999e-01
8.796253743e-01,2.75976e-01,9.99999e-01,7.02569e-01,9.97675e-01,3.93672e-01,9.99999e-01
8.840235012e-01,3.32452e-01,9.99999e-01,8.31221e-01,9.97343e-01,4.00988e-01,9.99999e-01
8.884436187e-01,3.75881e-01,9.99999e-01,9.29299e-01,9.90472e-01,4.08292e-01,9.99999e-01
8.928858368e-01,3.64708e-01,9.99999e-01,9.70755e-01,9.03549e-01,4.15580e-01,9.99998e-01
8.973502660e-01,3.50634e-01,9.99999e-01,9.92783e-01,8.34992e-01,4.22851e-01,9.99997e-01
9.018370173e-01,3.91798e-01,9.99999e-01,9.99200e-01,9.11628e-01,4.30102e-01,9.99996e-01
9.063462024e-01,3.96036e-01,9.99999e-01,9.80360e-01,9.22548e-01,4.37330e-01,9.99996e-01
9.108779334e-01,3.74389e-01,9.99999e-01,9.54355e-01,8.81470e-01,4.44533e-01,9.99996e-01
9.154323231e-01,3.87111e-01,9.99999e-01,9.89016e-01,8.66096e-01,4.51709e-01,9.99995e-01
9.200094847e-01,3.57984e-01,9.99999e-01,8.63657e-01,8.93481e-01,4.58856e-01,9.99994e-01
9.246095321e-01,3.15086e-01,9.99999e-01,7.96340e-01,8.43023e-01,4.65971e-01,9.99991e-01
9.292325798e-01,1.33966e-01,9.99999e-01,8.39072e-01,3.27481e-01,4.73053e-01,9.99982e-01
9.338787427e-01,9.80621e-02,9.99999e-01,8.42087e-01,2.35572e-01,4.80099e-01,9.99977e-01
9.385481364e-01,2.41664e-01,9.99999e-01,8.80858e-01,5.55842e-01,4.87108e-01,9.99977e-01
9.432408771e-01,2.08608e-01,9.99999e-01,9.24894e-01,4.53114e-01,4.94078e-01,9.99974e-01
9.479570815e-01,1.62975e-01,9.99999e-01,9.60797e-01,3.37337e-01,5.01007e-01,9.99977e-01
9.526968669e-01,2.16455e-01,9.99999e-01,9.80887e-01,4.33252e-01,5.07894e-01,9.99983e-01
9.574603512e-01,2.32057e-01,9.99999e-01,9.91775e-01,4.54100e-01,5.14736e-01,9.99987e-01
9.622476530e-01,2.71556e-01,9.99999e-01,9.97425e-01,5.21881e-01,5.21532e-01,9.99991e-01
9.670588912e-01,3.62324e-01,9.99999e-01,9.99226e-01,6.86333e-01,5.28282e-01,9.99994e-01
9.718941857e-01,4.21582e-01,9.99999e-01,9.99944e-01,7.88069e-01,5.34983e-01,9.99996e-01
9.767536566e-01,4.44417e-01,9.99999e-01,9.99999e-01,8.20514e-01,5.41634e-01,9.99997e-01
9.816374249e-01,4.73184e-01,9.99999e-01,9.99999e-01,8.63107e-01,5.48234e-01,9.99998e-01
9.865456120e-01,5.05951e-01,9.99999e-01,9.99999e-01,9.11983e-01,5.54781e-01,9.99998e-01
9.914783401e-01,5.30189e-01,9.99999e-01,9.99999e-01,9.44614e-01,5.61275e-01,9.99999e-01
9.964357318e-01,5.50366e-01,9.99999e-01,9.99999e-01,9.69440e-01,5.67715e-01,9.99999e-01
1.001417910e+00,5.63516e-01,9.99999e-01,9.99999e-01,9.81565e-01,5.74099e-01,9.99999e-01
1.006425000e+00,5.74312e-01,9.99999e-01,9.99999e-01,9.89465e-01,5.80427e-01,9.99999e-01
1.011457125e+00,5.82847e-01,9.99999e-01,9.99999e-01,9.93436e-01,5.86697e-01,9.99999e-01
1.016514411e+00,5.90268e-01,9.99999e-01,9.99999e-01,9.95544e-01,5.92910e-01,9.99999e-01
1.021596983e+00,5.96878e-01,9.99999e-01,9.99901e-01,9.96450e-01,5.99063e-01,9.99999e-01
1.026704968e+00,5.98819e-01,9.99999e-01,9.92266e-01,9.97232e-01,6.05157e-01,9.99999e-01
1.031838492e+00,5.67316e-01,9.99999e-01,9.30008e-01,9.97984e-01,6.11190e-01,9.99999e-01
1.036997685e+00,4.79800e-02,9.99999e-01,7.78137e-02,9.98804e-01,6.17163e-01,9.99999e-01
1.042182673e+00,1.02583e-02,9.99999e-01,1.64830e-02,9.98578e-01,6.23075e-01,9.99999e-01
1.047393587e+00,2.01830e-02,9.99999e-01,3.21430e-02,9.98112e-01,6.28925e-01,9.99999e-01
1.052630555e+00,2.74885e-05,9.99999e-01,4.33830e-05,9.97413e-01,6.34712e-01,9.99999e-01
1.057893707e+00,9.54325e-05,9.99999e-01,1.49376e-04,9.95689e-01,6.40437e-01,9.99999e-01
1.063183176e+00,9.08681e-04,9.99999e-01,1.41265e-03,9.92909e-01,6.46099e-01,9.99999e-01
1.068499092e+00,5.36580e-03,9.99999e-01,8.30621e-03,9.88143e-01,6.51697e-01,9.99999e-01
1.073841587e+00,3.04421e-02,9.99999e-01,4.68182e-02,9.86161e-01,6.57232e-01,9.99999e-01
1.079210795e+00,9.43958e-02,9.99999e-01,1.44589e-01,9.82251e-01,6.62704e-01,9.99999e-01
1.084606849e+00,2.20355e-01,9.99999e-01,3.38052e-01,9.73296e-01,6.68111e-01,9.99998e-01
1.090029883e+00,3.68753e-01,9.99999e-01,5.67945e-01,9.62043e-01,6.73455e-01,9.99998e-01
1.095480033e+00,4.62842e-01,9.99999e-01,7.56059e-01,8.99825e-01,6.78734e-01,9.99996e-01
1.100957433e+00,4.58912e-01,9.99999e-01,8.73630e-01,7.65831e-01,6.83950e-01,9.99994e-01
1.106462220e+00,3.36701e-01,9.99999e-01,9.45573e-01,5.14763e-01,6.89101e-01,9.99989e-01
1.111994531e+00,1.71645e-01,9.99999e-01,9.79457e-01,2.51768e-01,6.94188e-01,9.99979e-01
1.117554504e+00,7.79081e-02,9.99999e-01,9.94929e-01,1.11813e-01,6.99211e-01,9.99971e-01
1.123142276e+00,1.50285e-01,9.99999e-01,9.99664e-01,2.13446e-01,7.04170e-01,9.99965e-01
1.128757988e+00,2.51965e-01,9.99999e-01,9.99999e-01,3.55360e-01,7.09066e-01,9.99962e-01
1.134401778e+00,1.16961e-01,9.99999e-01,9.99999e-01,1.63841e-01,7.13897e-01,9.99958e-01
1.140073787e+00,3.81096e-01,9.99999e-01,9.99999e-01,5.30300e-01,7.18666e-01,9.99966e-01
1.145774156e+00,2.01428e-01,9.99999e-01,9.99999e-01,2.78465e-01,7.23370e-01,9.99971e-01
1.151503026e+00,1.77768e-01,9.99999e-01,9.99999e-01,2.44189e-01,7.28012e-01,9.99975e-01
1.157260541e+00,2.14305e-01,9.99999e-01,9.99999e-01,2.92535e-01,7.32591e-01,9.99981e-01
1.163046844e+00,2.94883e-01,9.99999e-01,9.99999e-01,4.00058e-01,7.37108e-01,9.99987e-01
1.168862078e+00,3.88128e-01,9.99999e-01,9.99999e-01,5.23395e-01,7.41562e-01,9.99993e-01
1.174706389e+00,5.00038e-01,9.99999e-01,9.99999e-01,6.70334e-01,7.45955e-01,9.99996e-01
1.180579921e+00,5.87594e-01,9.99999e-01,9.99999e-01,7.83161e-01,7.50286e-01,9.99997e-01
1.186482820e+00,6.56960e-01,9.99999e-01,9.99988e-01,8.70667e-01,7.54556e-01,9.99997e-01
1.192415234e+00,6.81518e-01,9.99999e-01,9.73237e-01,9.22309e-01,7.58765e-01,9.99998e-01
1.198377311e+00,3.88040e-01,9.99999e-01,5.38343e-01,9.34211e-01,7.62914e-01,9.99998e-01
1.204369197e+00,3.62841e-21,9.99999e-01,4.91008e-21,9.37686e-01,7.67003e-01,9.99998e-01
1.210391043e+00,1.81423e-83,9.99999e-01,2.43492e-83,9.40263e-01,7.71032e-01,9.99998e-01
1.216442998e+00,2.51070e-72,9.99999e-01,3.34640e-72,9.48876e-01,7.75002e-01,9.99999e-01
1.222525213e+00,3.01820e-71,9.99999e-01,3.95716e-71,9.59964e-01,7.78914e-01,9.99999e-01
1.228637839e+00,4.46309e-55,9.99999e-01,5.81210e-55,9.72038e-01,7.82768e-01,9.99999e-01
