#,Wave/freq,Total,O2,CO2,H2O,Rayleigh,CIA
4.000000000e-01,3.94453e-04,9.99999e-01,9.99999e-01,9.99984e-01,3.94459e-04,9.99999e-01
4.020000000e-01,4.60579e-04,9.99999e-01,9.99999e-01,9.99989e-01,4.60584e-04,9.99999e-01
4.040100000e-01,5.36062e-04,9.99999e-01,9.99999e-01,9.99995e-01,5.36064e-04,9.99999e-01
4.060300500e-01,6.22045e-04,9.99999e-01,9.99999e-01,9.99998e-01,6.22046e-04,9.99999e-01
4.080602003e-01,7.19701e-04,9.99999e-01,9.99999e-01,9.99999e-01,7.19702e-04,9.99999e-01
4.101005013e-01,8.30293e-04,9.99999e-01,9.99999e-01,9.99999e-01,8.30293e-04,9.99999e-01
4.121510038e-01,9.55177e-04,9.99999e-01,9.99999e-01,9.99998e-01,9.55178e-04,9.99999e-01
4.142117588e-01,1.09580e-03,9.99999e-01,9.99999e-01,9.99995e-01,1.09581e-03,9.99999e-01
4.162828176e-01,1.25372e-03,9.99999e-01,9.99999e-01,9.99980e-01,1.25374e-03,9.99999e-01
4.183642317e-01,1.43061e-03,9.99999e-01,9.99999e-01,9.99988e-01,1.43062e-03,9.99999e-01
4.204560528e-01,1.62820e-03,9.99999e-01,9.99999e-01,9.99992e-01,1.62821e-03,9.99999e-01
4.225583331e-01,1.84835e-03,9.99999e-01,9.99999e-01,9.99996e-01,1.84836e-03,9.99999e-01
4.246711247e-01,2.09302e-03,9.99999e-01,9.99999e-01,9.99997e-01,2.09302e-03,9.99999e-01
4.267944804e-01,2.36425e-03,9.99999e-01,9.99999e-01,9.99996e-01,2.36426e-03,9.99999e-01
4.289284528e-01,2.66422e-03,9.99999e-01,9.99999e-01,9.99997e-01,2.66423e-03,9.99999e-01
4.310730950e-01,2.99518e-03,9.99999e-01,9.99999e-01,9.99998e-01,2.99518e-03,9.99999e-01
4.332284605e-01,3.35946e-03,9.99999e-01,9.99999e-01,9.99999e-01,3.35946e-03,9.99999e-01
4.353946028e-01,3.75952e-03,9.99999e-01,9.99999e-01,9.99999e-01,3.75952e-03,9.99999e-01
4.375715758e-01,4.19786e-03,9.99999e-01,9.99999e-01,9.99997e-01,4.19787e-03,9.99999e-01
4.397594337e-01,4.67706e-03,9.99999e-01,9.99999e-01,9.99982e-01,4.67714e-03,9.99999e-01
4.419582309e-01,5.19956e-03,9.99999e-01,9.99999e-01,9.99914e-01,5.20000e-03,9.99999e-01
4.441680220e-01,5.76885e-03,9.99999e-01,9.99999e-01,9.99933e-01,5.76924e-03,9.99999e-01
4.463888621e-01,6.38722e-03,9.99999e-01,9.99999e-01,9.99930e-01,6.38766e-03,9.99999e-01
4.486208064e-01,7.05786e-03,9.99999e-01,9.99999e-01,9.99956e-01,7.05816e-03,9.99999e-01
4.508639105e-01,7.78353e-03,9.99999e-01,9.99999e-01,9.99979e-01,7.78369e-03,9.99999e-01
4.531182300e-01,8.56715e-03,9.99999e-01,9.99999e-01,9.99991e-01,8.56722e-03,9.99999e-01
4.553838212e-01,9.41172e-03,9.99999e-01,9.99999e-01,9.99994e-01,9.41177e-03,9.99999e-01
4.576607403e-01,1.03204e-02,9.99999e-01,9.99999e-01,9.99997e-01,1.03204e-02,9.99999e-01
4.599490440e-01,1.12961e-02,9.99999e-01,9.99999e-01,9.99997e-01,1.12962e-02,9.99999e-01
4.622487892e-01,1.23421e-02,9.99999e-01,9.99999e-01,9.99999e-01,1.23421e-02,9.99999e-01
4.645600332e-01,1.34614e-02,9.99999e-01,9.99999e-01,9.99998e-01,1.34614e-02,9.99999e-01
4.668828333e-01,1.46567e-02,9.99999e-01,9.99999e-01,9.99979e-01,1.46570e-02,9.99999e-01
4.692172475e-01,1.59313e-02,9.99999e-01,9.99999e-01,9.99956e-01,1.59320e-02,9.99999e-01
4.715633337e-01,1.72889e-02,9.99999e-01,9.99999e-01,9.99971e-01,1.72894e-02,9.99999e-01
4.739211504e-01,1.87317e-02,9.99999e-01,9.99999e-01,9.99972e-01,1.87322e-02,9.99999e-01
4.762907561e-01,2.02629e-02,9.99999e-01,9.99999e-01,9.99985e-01,2.02632e-02,9.99999e-01
4.786722099e-01,2.18853e-02,9.99999e-01,9.99999e-01,9.99993e-01,2.18854e-02,9.99999e-01
4.810655710e-01,2.36016e-02,9.99999e-01,9.99999e-01,9.99997e-01,2.36016e-02,9.99999e-01
4.834708988e-01,2.54140e-02,9.99999e-01,9.99999e-01,9.99982e-01,2.54144e-02,9.99999e-01
4.858882533e-01,2.73256e-02,9.99999e-01,9.99999e-01,9.99968e-01,2.73265e-02,9.99999e-01
4.883176946e-01,2.93396e-02,9.99999e-01,9.99999e-01,9.99973e-01,2.93403e-02,9.99999e-01
4.907592831e-01,3.14576e-02,9.99999e-01,9.99999e-01,9.99976e-01,3.14584e-02,9.99999e-01
4.932130795e-01,3.36823e-02,9.99999e-01,9.99999e-01,9.99983e-01,3.36829e-02,9.99999e-01
4.956791449e-01,3.60158e-02,9.99999e-01,9.99999e-01,9.99990e-01,3.60161e-02,9.99999e-01
4.981575406e-01,3.84584e-02,9.99999e-01,9.99999e-01,9.99956e-01,3.84600e-02,9.99999e-01
5.006483283e-01,4.10119e-02,9.99999e-01,9.99999e-01,9.99886e-01,4.10165e-02,9.99999e-01
5.031515699e-01,4.36625e-02,9.99999e-01,9.99999e-01,9.99428e-01,4.36874e-02,9.99999e-01
5.056673278e-01,4.64603e-02,9.99999e-01,9.99999e-01,9.99698e-01,4.64743e-02,9.99999e-01
5.081956644e-01,4.93598e-02,9.99999e-01,9.99999e-01,9.99619e-01,4.93786e-02,9.99999e-01
5.107366428e-01,5.23882e-02,9.99999e-01,9.99999e-01,9.99743e-01,5.24016e-02,9.99999e-01
5.132903260e-01,5.55363e-02,9.99999e-01,9.99999e-01,9.99853e-01,5.55445e-02,9.99999e-01
5.158567776e-01,5.88045e-02,9.99999e-01,9.99999e-01,9.99937e-01,5.88081e-02,9.99999e-01
5.184360615e-01,6.21918e-02,9.99999e-01,9.99999e-01,9.99974e-01,6.21933e-02,9.99999e-01
5.210282418e-01,6.57001e-02,9.99999e-01,9.99999e-01,9.99990e-01,6.57008e-02,9.99999e-01
5.236333830e-01,6.93282e-02,9.99999e-01,9.99999e-01,9.99962e-01,6.93308e-02,9.99999e-01
5.262515499e-01,7.30821e-02,9.99999e-01,9.99999e-01,9.99976e-01,7.30837e-02,9.99999e-01
5.288828077e-01,7.69580e-02,9.99999e-01,9.99999e-01,9.99978e-01,7.69597e-02,9.99999e-01
5.315272217e-01,8.09569e-02,9.99999e-01,9.99999e-01,9.99980e-01,8.09585e-02,9.99999e-01
5.341848578e-01,8.50788e-02,9.99999e-01,9.99999e-01,9.99987e-01,8.50799e-02,9.99999e-01
5.368557821e-01,8.93195e-02,9.99999e-01,9.99999e-01,9.99956e-01,8.93234e-02,9.99999e-01
5.395400610e-01,9.36739e-02,9.99999e-01,9.99999e-01,9.99843e-01,9.36885e-02,9.99999e-01
5.422377613e-01,9.81545e-02,9.99999e-01,9.99999e-01,9.99797e-01,9.81744e-02,9.99999e-01
5.449489501e-01,1.02761e-01,9.99999e-01,9.99999e-01,9.99811e-01,1.02780e-01,9.99999e-01
5.476736949e-01,1.07486e-01,9.99999e-01,9.99999e-01,9.99833e-01,1.07504e-01,9.99999e-01
5.504120634e-01,1.12332e-01,9.99999e-01,9.99999e-01,9.99878e-01,1.12346e-01,9.99999e-01
5.531641237e-01,1.17296e-01,9.99999e-01,9.99999e-01,9.99938e-01,1.17304e-01,9.99999e-01
5.559299443e-01,1.22372e-01,9.99999e-01,9.99999e-01,9.99970e-01,1.22376e-01,9.99999e-01
5.587095940e-01,1.27558e-01,9.99999e-01,9.99999e-01,9.99981e-01,1.27560e-01,9.99999e-01
5.615031420e-01,1.32853e-01,9.99999e-01,9.99999e-01,9.99979e-01,1.32855e-01,9.99999e-01
5.643106577e-01,1.38256e-01,9.99999e-01,9.99999e-01,9.99976e-01,1.38259e-01,9.99999e-01
5.671322110e-01,1.43729e-01,9.99999e-01,9.99999e-01,9.99717e-01,1.43770e-01,9.99999e-01
5.699678720e-01,1.49340e-01,9.99999e-01,9.99999e-01,9.99699e-01,1.49385e-01,9.99999e-01
5.728177114e-01,1.55053e-01,9.99999e-01,9.99999e-01,9.99687e-01,1.55101e-01,9.99999e-01
5.756818000e-01,1.60871e-01,9.99999e-01,9.99999e-01,9.99712e-01,1.60917e-01,9.99999e-01
5.785602090e-01,1.66789e-01,9.99999e-01,9.99999e-01,9.99749e-01,1.66830e-01,9.99999e-01
5.814530100e-01,1.72794e-01,9.99999e-01,9.99999e-01,9.99748e-01,1.72837e-01,9.99999e-01
5.843602750e-01,1.78881e-01,9.99999e-01,9.99999e-01,9.99700e-01,1.78935e-01,9.99999e-01
5.872820764e-01,1.84644e-01,9.99999e-01,9.99999e-01,9.97419e-01,1.85121e-01,9.99999e-01
5.902184868e-01,1.90795e-01,9.99999e-01,9.99999e-01,9.96875e-01,1.91393e-01,9.99999e-01
5.931695792e-01,1.97310e-01,9.99999e-01,9.99999e-01,9.97791e-01,1.97747e-01,9.99999e-01
5.961354271e-01,2.03686e-01,9.99999e-01,9.99999e-01,9.97579e-01,2.04180e-01,9.99999e-01
5.991161043e-01,2.10317e-01,9.99999e-01,9.99999e-01,9.98234e-01,2.10689e-01,9.99999e-01
6.021116848e-01,2.17053e-01,9.99999e-01,9.99999e-01,9.98998e-01,2.17271e-01,9.99999e-01
6.051222432e-01,2.23809e-01,9.99999e-01,9.99999e-01,9.99492e-01,2.23923e-01,9.99999e-01
6.081478544e-01,2.30590e-01,9.99999e-01,9.99999e-01,9.99780e-01,2.30640e-01,9.99999e-01
6.111885937e-01,2.37399e-01,9.99999e-01,9.99999e-01,9.99907e-01,2.37421e-01,9.99999e-01
6.142445367e-01,2.44251e-01,9.99999e-01,9.99999e-01,9.99958e-01,2.44261e-01,9.99999e-01
6.173157594e-01,2.51151e-01,9.99999e-01,9.99999e-01,9.99976e-01,2.51157e-01,9.99999e-01
6.204023382e-01,2.58101e-01,9.99999e-01,9.99999e-01,9.99980e-01,2.58106e-01,9.99999e-01
6.235043498e-01,2.65081e-01,9.99999e-01,9.99999e-01,9.99914e-01,2.65104e-01,9.99999e-01
6.266218716e-01,2.72026e-01,9.99999e-01,9.99999e-01,9.99550e-01,2.72148e-01,9.99999e-01
6.297549810e-01,2.79188e-01,9.99999e-01,9.99999e-01,9.99834e-01,2.79234e-01,9.99999e-01
6.329037559e-01,2.86267e-01,9.99999e-01,9.99999e-01,9.99673e-01,2.86360e-01,9.99999e-01
6.360682746e-01,2.93440e-01,9.99999e-01,9.99999e-01,9.99722e-01,2.93521e-01,9.99999e-01
6.392486160e-01,3.00607e-01,9.99999e-01,9.99999e-01,9.99639e-01,3.00715e-01,9.99999e-01
6.424448591e-01,3.07790e-01,9.99999e-01,9.99999e-01,9.99518e-01,3.07938e-01,9.99999e-01
6.456570834e-01,3.14482e-01,9.99999e-01,9.99999e-01,9.97764e-01,3.15186e-01,9.99999e-01
6.488853688e-01,3.21929e-01,9.99999e-01,9.99999e-01,9.98363e-01,3.22457e-01,9.99999e-01
6.521297956e-01,3.29197e-01,9.99999e-01,9.99999e-01,9.98331e-01,3.29747e-01,9.99999e-01
6.553904446e-01,3.36493e-01,9.99999e-01,9.99999e-01,9.98339e-01,3.37053e-01,9.99999e-01
6.586673968e-01,3.43882e-01,9.99999e-01,9.99999e-01,9.98577e-01,3.44371e-01,9.99999e-01
6.619607338e-01,3.51421e-01,9.99999e-01,9.99999e-01,9.99207e-01,3.51699e-01,9.99999e-01
6.652705375e-01,3.58863e-01,9.99999e-01,9.99999e-01,9.99524e-01,3.59034e-01,9.99999e-01
6.685968902e-01,3.66292e-01,9.99999e-01,9.99999e-01,9.99778e-01,3.66373e-01,9.99999e-01
6.719398746e-01,3.73673e-01,9.99999e-01,9.99999e-01,9.99897e-01,3.73712e-01,9.99999e-01
6.752995740e-01,3.81027e-01,9.99999e-01,9.99999e-01,9.99944e-01,3.81048e-01,9.99999e-01
6.786760719e-01,3.88349e-01,9.99999e-01,9.99999e-01,9.99919e-01,3.88380e-01,9.99999e-01
6.820694522e-01,3.95649e-01,9.99999e-01,9.99999e-01,9.99862e-01,3.95703e-01,9.99999e-01
6.854797995e-01,4.02945e-01,9.99999e-01,9.99999e-01,9.99822e-01,4.03016e-01,9.99999e-01
6.889071985e-01,4.10140e-01,9.99999e-01,9.99999e-01,9.99571e-01,4.10316e-01,9.99999e-01
6.923517345e-01,4.14683e-01,9.99999e-01,9.99999e-01,9.93014e-01,4.17600e-01,9.99999e-01
6.958134932e-01,4.23321e-01,9.99999e-01,9.99999e-01,9.96365e-01,4.24865e-01,9.99999e-01
6.992925606e-01,4.30617e-01,9.99999e-01,9.99999e-01,9.96545e-01,4.32110e-01,9.99999e-01
7.027890234e-01,4.37458e-01,9.99999e-01,9.99999e-01,9.95736e-01,4.39331e-01,9.99999e-01
7.063029686e-01,4.44927e-01,9.99999e-01,9.99999e-01,9.96415e-01,4.46527e-01,9.99999e-01
7.098344834e-01,4.52135e-01,9.99999e-01,9.99999e-01,9.96560e-01,4.53695e-01,9.99999e-01
7.133836558e-01,4.58720e-01,9.99999e-01,9.99999e-01,9.95413e-01,4.60834e-01,9.99999e-01
7.169505741e-01,4.50896e-01,9.99999e-01,9.99999e-01,9.63576e-01,4.67940e-01,9.99999e-01
7.205353270e-01,4.66481e-01,9.99999e-01,9.99999e-01,9.82040e-01,4.75012e-01,9.99999e-01
7.241380036e-01,4.71075e-01,9.99999e-01,9.99999e-01,9.77236e-01,4.82048e-01,9.99998e-01
7.277586936e-01,4.78990e-01,9.99999e-01,9.99999e-01,9.79435e-01,4.89046e-01,9.99999e-01
7.313974871e-01,4.85175e-01,9.99999e-01,9.99999e-01,9.78165e-01,4.96005e-01,9.99999e-01
7.350544745e-01,4.96899e-01,9.99999e-01,9.99999e-01,9.88023e-01,5.02923e-01,9.99999e-01
7.387297469e-01,5.05300e-01,9.99999e-01,9.99999e-01,9.91178e-01,5.09797e-01,9.99999e-01
7.424233956e-01,5.14393e-01,9.99999e-01,9.99999e-01,9.95676e-01,5.16627e-01,9.99999e-01
7.461355126e-01,5.22038e-01,9.99999e-01,9.99999e-01,9.97378e-01,5.23410e-01,9.99999e-01
7.498661902e-01,5.29499e-01,9.99999e-01,9.99999e-01,9.98778e-01,5.30146e-01,9.99999e-01
7.536155211e-01,5.36512e-01,9.99999e-01,9.99999e-01,9.99400e-01,5.36834e-01,9.99999e-01
7.573835987e-01,5.43303e-01,9.99999e-01,9.99999e-01,9.99691e-01,5.43471e-01,9.99999e-01
7.611705167e-01,5.49951e-01,9.99999e-01,9.99999e-01,9.99808e-01,5.50056e-01,9.99999e-01
7.649763693e-01,5.56522e-01,9.99999e-01,9.99999e-01,9.99879e-01,5.56589e-01,9.99999e-01
7.688012511e-01,5.63021e-01,9.99999e-01,9.99999e-01,9.99915e-01,5.63068e-01,9.99999e-01
7.726452574e-01,5.69453e-01,9.99999e-01,9.99999e-01,9.99930e-01,5.69492e-01,9.99999e-01
7.765084837e-01,5.75805e-01,9.99999e-01,9.99999e-01,9.99901e-01,5.75861e-01,9.99999e-01
7.803910261e-01,5.66673e-01,9.99999e-01,9.73776e-01,9.99577e-01,5.82173e-01,9.99999e-01
7.842929812e-01,5.23667e-01,9.99999e-01,8.91208e-01,9.98524e-01,5.88427e-01,9.99999e-01
7.882144461e-01,5.23941e-01,9.99999e-01,8.83732e-01,9.96963e-01,5.94623e-01,9.99999e-01
7.921555184e-01,5.58359e-01,9.99999e-01,9.30943e-01,9.98334e-01,6.00760e-01,9.99999e-01
7.961162960e-01,5.76814e-01,9.99999e-01,9.53311e-01,9.97055e-01,6.06837e-01,9.99999e-01
8.000968774e-01,5.95154e-01,9.99999e-01,9.74422e-01,9.96600e-01,6.12854e-01,9.99999e-01
8.040973618e-01,6.08492e-01,9.99999e-01,9.86676e-01,9.96599e-01,6.18810e-01,9.99999e-01
8.081178486e-01,6.16120e-01,9.99999e-01,9.93861e-01,9.92340e-01,6.24704e-01,9.99999e-01
8.121584379e-01,6.09460e-01,9.99999e-01,9.98101e-01,9.68397e-01,6.30537e-01,9.99999e-01
8.162192301e-01,6.12245e-01,9.99999e-01,9.99580e-01,9.62582e-01,6.36307e-01,9.99999e-01
8.203003262e-01,6.29888e-01,9.99999e-01,9.99993e-01,9.81116e-01,6.42014e-01,9.99998e-01
8.244018279e-01,6.30613e-01,9.99999e-01,9.99999e-01,9.73681e-01,6.47659e-01,9.99998e-01
8.285238370e-01,6.38559e-01,9.99999e-01,9.99999e-01,9.77525e-01,6.53240e-01,9.99999e-01
8.326664562e-01,6.43789e-01,9.99999e-01,9.99999e-01,9.77278e-01,6.58757e-01,9.99999e-01
8.368297885e-01,6.53411e-01,9.99999e-01,9.99999e-01,9.83739e-01,6.64211e-01,9.99999e-01
8.410139374e-01,6.63115e-01,9.99999e-01,9.99999e-01,9.90313e-01,6.69601e-01,9.99999e-01
8.452190071e-01,6.71715e-01,9.99999e-01,9.99999e-01,9.95241e-01,6.74926e-01,9.99999e-01
8.494451021e-01,6.78309e-01,9.99999e-01,9.99999e-01,9.97237e-01,6.80188e-01,9.99999e-01
8.536923276e-01,6.84266e-01,9.99999e-01,9.99999e-01,9.98365e-01,6.85386e-01,9.99999e-01
8.579607893e-01,6.89824e-01,9.99999e-01,9.99999e-01,9.98993e-01,6.90519e-01,9.99999e-01
8.622505932e-01,6.95144e-01,9.99999e-01,9.99999e-01,9.99360e-01,6.95588e-01,9.99999e-01
8.665618462e-01,6.56435e-01,9.99999e-01,9.37327e-01,9.99604e-01,7.00594e-01,9.99999e-01
8.708946554e-01,5.25265e-01,9.99999e-01,7.44818e-01,9.99546e-01,7.05535e-01,9.99999e-01
8.752491287e-01,5.60762e-01,9.99999e-01,7.89813e-01,9.99393e-01,7.10413e-01,9.99999e-01
8.796253743e-01,6.28162e-01,9.99999e-01,8.78989e-01,9.99160e-01,7.15227e-01,9.99999e-01
8.840235012e-01,6.72871e-01,9.99999e-01,9.35457e-01,9.99041e-01,7.19978e-01,9.99999e-01
8.884436187e-01,7.03430e-01,9.99999e-01,9.74080e-01,9.96500e-01,7.24665e-01,9.99999e-01
8.928858368e-01,6.95391e-01,9.99999e-01,9.89423e-01,9.63644e-01,7.29289e-01,9.99999e-01
8.973502660e-01,6.85534e-01,9.99999e-01,9.97423e-01,9.36534e-01,7.33851e-01,9.99998e-01
9.018370173e-01,7.13854e-01,9.99999e-01,9.99715e-01,9.67090e-01,7.38350e-01,9.99998e-01
9.063462024e-01,7.16094e-01,9.99999e-01,9.92694e-01,9.70990e-01,7.42788e-01,9.99998e-01
9.108779334e-01,7.01866e-01,9.99999e-01,9.83358e-01,9.55123e-01,7.47163e-01,9.99998e-01
9.154323231e-01,7.10550e-01,9.99999e-01,9.96072e-01,9.49206e-01,7.51477e-01,9.99998e-01
9.200094847e-01,6.85555e-01,9.99999e-01,9.43396e-01,9.59979e-01,7.55730e-01,9.99997e-01
9.246095321e-01,6.57131e-01,9.99999e-01,9.21073e-01,9.37747e-01,7.59922e-01,9.99996e-01
9.292325798e-01,4.67854e-01,9.99999e-01,9.37424e-01,6.49631e-01,7.64054e-01,9.99993e-01
9.338787427e-01,4.15716e-01,9.99999e-01,9.39569e-01,5.72945e-01,7.68127e-01,9.99991e-01
9.385481364e-01,5.90607e-01,9.99999e-01,9.55277e-01,7.99047e-01,7.72140e-01,9.99991e-01
9.432408771e-01,5.52164e-01,9.99999e-01,9.72404e-01,7.30764e-01,7.76094e-01,9.99990e-01
9.479570815e-01,4.98503e-01,9.99999e-01,9.85748e-01,6.47950e-01,7.79989e-01,9.99991e-01
9.526968669e-01,5.63396e-01,9.99999e-01,9.93104e-01,7.23413e-01,7.83827e-01,9.99993e-01
9.574603512e-01,5.84225e-01,9.99999e-01,9.97046e-01,7.43859e-01,7.87607e-01,9.99995e-01
9.622476530e-01,6.21705e-01,9.99999e-01,9.99078e-01,7.86338e-01,7.91330e-01,9.99996e-01
9.670588912e-01,6.92050e-01,9.99999e-01,9.99723e-01,8.70738e-01,7.94997e-01,9.99997e-01
9.718941857e-01,7.32543e-01,9.99999e-01,9.99980e-01,9.17292e-01,7.98607e-01,9.99998e-01
9.767536566e-01,7.46703e-01,9.99999e-01,9.99999e-01,9.30862e-01,8.02163e-01,9.99998e-01
9.816374249e-01,7.64033e-01,9.99999e-01,9.99999e-01,9.48328e-01,8.05663e-01,9.99998e-01
9.865456120e-01,7.82743e-01,9.99999e-01,9.99999e-01,9.67412e-01,8.09109e-01,9.99999e-01
9.914783401e-01,7.96040e-01,9.99999e-01,9.99999e-01,9.79738e-01,8.12502e-01,9.99999e-01
9.964357318e-01,8.06800e-01,9.99999e-01,9.99999e-01,9.88917e-01,8.15841e-01,9.99999e-01
1.001417910e+00,8.13677e-01,9.99999e-01,9.99999e-01,9.93345e-01,8.19128e-01,9.99999e-01
1.006425000e+00,8.19239e-01,9.99999e-01,9.99999e-01,9.96201e-01,8.22362e-01,9.99999e-01
1.011457125e+00,8.23598e-01,9.99999e-01,9.99999e-01,9.97641e-01,8.25545e-01,9.99999e-01
1.016514411e+00,8.27350e-01,9.99999e-01,9.99999e-01,9.98398e-01,8.28677e-01,9.99999e-01
1.021596983e+00,8.30665e-01,9.99999e-01,9.99960e-01,9.98723e-01,8.31759e-01,9.99999e-01
1.026704968e+00,8.31586e-01,9.99999e-01,9.97151e-01,9.99004e-01,8.34791e-01,9.99999e-01
1.031838492e+00,8.06403e-01,9.99999e-01,9.63232e-01,9.99276e-01,8.37774e-01,9.99999e-01
1.036997685e+00,1.65055e-01,9.99999e-01,1.96397e-01,9.99569e-01,8.40708e-01,9.99999e-01
1.042182673e+00,1.63740e-01,9.99999e-01,1.94188e-01,9.99487e-01,8.43594e-01,9.99999e-01
1.047393587e+00,1.72360e-01,9.99999e-01,2.03755e-01,9.99320e-01,8.46433e-01,9.99999e-01
1.052630555e+00,1.03050e-02,9.99999e-01,1.21432e-02,9.99067e-01,8.49225e-01,9.99999e-01
1.057893707e+00,2.31303e-02,9.99999e-01,2.71795e-02,9.98443e-01,8.51971e-01,9.99999e-01
1.063183176e+00,6.08267e-02,9.99999e-01,7.13072e-02,9.97438e-01,8.54671e-01,9.99999e-01
1.068499092e+00,1.40402e-01,9.99999e-01,1.64381e-01,9.95713e-01,8.57326e-01,9.99999e-01
1.073841587e+00,2.73967e-01,9.99999e-01,3.19997e-01,9.94983e-01,8.59937e-01,9.99999e-01
1.079210795e+00,4.17043e-01,9.99999e-01,4.86434e-01,9.93576e-01,8.62504e-01,9.99999e-01
1.084606849e+00,5.77241e-01,9.99999e-01,6.73618e-01,9.90288e-01,8.65028e-01,9.99999e-01
1.090029883e+00,6.97172e-01,9.99999e-01,8.14764e-01,9.86069e-01,8.67509e-01,9.99999e-01
1.095480033e+00,7.57204e-01,9.99999e-01,9.04041e-01,9.62488e-01,8.69947e-01,9.99998e-01
1.100957433e+00,7.54252e-01,9.99999e-01,9.52593e-01,9.07308e-01,8.72345e-01,9.99997e-01
1.106462220e+00,6.69518e-01,9.99999e-01,9.80123e-01,7.80515e-01,8.74701e-01,9.99995e-01
1.111994531e+00,5.16946e-01,9.99999e-01,9.92587e-01,5.93594e-01,8.77017e-01,9.99992e-01
1.117554504e+00,3.77251e-01,9.99999e-01,9.98186e-01,4.29706e-01,8.79293e-01,9.99989e-01
1.123142276e+00,4.72745e-01,9.99999e-01,9.99880e-01,5.36320e-01,8.81530e-01,9.99987e-01
1.128757988e+00,5.93543e-01,9.99999e-01,9.99999e-01,6.71642e-01,8.83729e-01,9.99986e-01
1.134401778e+00,3.65343e-01,9.99999e-01,9.99999e-01,4.12409e-01,8.85889e-01,9.99984e-01
1.140073787e+00,7.00733e-01,9.99999e-01,9.99999e-01,7.89112e-01,8.88012e-01,9.99987e-01
1.145774156e+00,5.42581e-01,9.99999e-01,9.99999e-01,6.09580e-01,8.90097e-01,9.99989e-01
1.151503026e+00,5.13581e-01,9.99999e-01,9.99999e-01,5.75673e-01,8.92147e-01,9.99990e-01
1.157260541e+00,5.65052e-01,9.99999e-01,9.99999e-01,6.31940e-01,8.94160e-01,9.99992e-01
1.163046844e+00,6.38489e-01,9.99999e-01,9.99999e-01,7.12492e-01,8.96138e-01,9.99995e-01
1.168862078e+00,7.09915e-01,9.99999e-01,9.99999e-01,7.90481e-01,8.98081e-01,9.99997e-01
1.174706389e+00,7.78454e-01,9.99999e-01,9.99999e-01,8.64958e-01,8.99990e-01,9.99998e-01
1.180579921e+00,8.25641e-01,9.99999e-01,9.99999e-01,9.15481e-01,9.01865e-01,9.99998e-01
1.186482820e+00,8.59744e-01,9.99999e-01,9.99994e-01,9.51357e-01,9.03707e-01,9.99998e-01
1.192415234e+00,8.70682e-01,9.99999e-01,9.89823e-01,9.71331e-01,9.05516e-01,9.99999e-01
1.198377311e+00,5.05787e-01,9.99999e-01,5.69025e-01,9.75781e-01,9.07293e-01,9.99999e-01
1.204369197e+00,4.72502e-09,9.99999e-01,5.26788e-09,9.77062e-01,9.09039e-01,9.99999e-01
1.210391043e+00,1.86869e-31,9.99999e-01,2.07722e-31,9.78058e-01,9.10753e-01,9.99999e-01
1.216442998e+00,1.89595e-27,9.99999e-01,2.10228e-27,9.81306e-01,9.12436e-01,9.99999e-01
1.222525213e+00,4.65790e-27,9.99999e-01,5.13438e-27,9.85420e-01,9.14089e-01,9.99999e-01
1.228637839e+00,6.24079e-21,9.99999e-01,6.86404e-21,9.89855e-01,9.15712e-01,9.99999e-01
