#,Wave/freq,Total,O2,CO2,H2O,Rayleigh,CIA
4.000000000e-01,4.93246e-04,9.99999e-01,9.99999e-01,9.99984e-01,4.93253e-04,9.99999e-01
4.020000000e-01,5.73396e-04,9.99999e-01,9.99999e-01,9.99990e-01,5.73401e-04,9.99999e-01
4.040100000e-01,6.64485e-04,9.99999e-01,9.99999e-01,9.99995e-01,6.64488e-04,9.99999e-01
4.060300500e-01,7.67804e-04,9.99999e-01,9.99999e-01,9.99998e-01,7.67805e-04,9.99999e-01
4.080602003e-01,8.84657e-04,9.99999e-01,9.99999e-01,9.99999e-01,8.84657e-04,9.99999e-01
4.101005013e-01,1.01644e-03,9.99999e-01,9.99999e-01,9.99999e-01,1.01644e-03,9.99999e-01
4.121510038e-01,1.16466e-03,9.99999e-01,9.99999e-01,9.99998e-01,1.16467e-03,9.99999e-01
4.142117588e-01,1.33091e-03,9.99999e-01,9.99999e-01,9.99995e-01,1.33092e-03,9.99999e-01
4.162828176e-01,1.51687e-03,9.99999e-01,9.99999e-01,9.99981e-01,1.51690e-03,9.99999e-01
4.183642317e-01,1.72439e-03,9.99999e-01,9.99999e-01,9.99988e-01,1.72440e-03,9.99999e-01
4.204560528e-01,1.95533e-03,9.99999e-01,9.99999e-01,9.99992e-01,1.95534e-03,9.99999e-01
4.225583331e-01,2.21170e-03,9.99999e-01,9.99999e-01,9.99996e-01,2.21171e-03,9.99999e-01
4.246711247e-01,2.49560e-03,9.99999e-01,9.99999e-01,9.99997e-01,2.49560e-03,9.99999e-01
4.267944804e-01,2.80923e-03,9.99999e-01,9.99999e-01,9.99996e-01,2.80923e-03,9.99999e-01
4.289284528e-01,3.15489e-03,9.99999e-01,9.99999e-01,9.99997e-01,3.15489e-03,9.99999e-01
4.310730950e-01,3.53497e-03,9.99999e-01,9.99999e-01,9.99998e-01,3.53497e-03,9.99999e-01
4.332284605e-01,3.95195e-03,9.99999e-01,9.99999e-01,9.99999e-01,3.95195e-03,9.99999e-01
4.353946028e-01,4.40839e-03,9.99999e-01,9.99999e-01,9.99999e-01,4.40839e-03,9.99999e-01
4.375715758e-01,4.90694e-03,9.99999e-01,9.99999e-01,9.99997e-01,4.90695e-03,9.99999e-01
4.397594337e-01,5.45025e-03,9.99999e-01,9.99999e-01,9.99983e-01,5.45034e-03,9.99999e-01
4.419582309e-01,6.04087e-03,9.99999e-01,9.99999e-01,9.99918e-01,6.04136e-03,9.99999e-01
4.441680220e-01,6.68244e-03,9.99999e-01,9.99999e-01,9.99934e-01,6.68287e-03,9.99999e-01
4.463888621e-01,7.37728e-03,9.99999e-01,9.99999e-01,9.99932e-01,7.37777e-03,9.99999e-01
4.486208064e-01,8.12870e-03,9.99999e-01,9.99999e-01,9.99957e-01,8.12904e-03,9.99999e-01
4.508639105e-01,8.93949e-03,9.99999e-01,9.99999e-01,9.99979e-01,8.93966e-03,9.99999e-01
4.531182300e-01,9.81260e-03,9.99999e-01,9.99999e-01,9.99991e-01,9.81268e-03,9.99999e-01
4.553838212e-01,1.07511e-02,9.99999e-01,9.99999e-01,9.99994e-01,1.07511e-02,9.99999e-01
4.576607403e-01,1.17581e-02,9.99999e-01,9.99999e-01,9.99997e-01,1.17581e-02,9.99999e-01
4.599490440e-01,1.28367e-02,9.99999e-01,9.99999e-01,9.99997e-01,1.28367e-02,9.99999e-01
4.622487892e-01,1.39900e-02,9.99999e-01,9.99999e-01,9.99999e-01,1.39900e-02,9.99999e-01
4.645600332e-01,1.52209e-02,9.99999e-01,9.99999e-01,9.99998e-01,1.52209e-02,9.99999e-01
4.668828333e-01,1.65323e-02,9.99999e-01,9.99999e-01,9.99979e-01,1.65327e-02,9.99999e-01
4.692172475e-01,1.79274e-02,9.99999e-01,9.99999e-01,9.99957e-01,1.79281e-02,9.99999e-01
4.715633337e-01,1.94097e-02,9.99999e-01,9.99999e-01,9.99972e-01,1.94103e-02,9.99999e-01
4.739211504e-01,2.09815e-02,9.99999e-01,9.99999e-01,9.99973e-01,2.09820e-02,9.99999e-01
4.762907561e-01,2.26459e-02,9.99999e-01,9.99999e-01,9.99985e-01,2.26462e-02,9.99999e-01
4.786722099e-01,2.44054e-02,9.99999e-01,9.99999e-01,9.99993e-01,2.44055e-02,9.99999e-01
4.810655710e-01,2.62626e-02,9.99999e-01,9.99999e-01,9.99997e-01,2.62627e-02,9.99999e-01
4.834708988e-01,2.82198e-02,9.99999e-01,9.99999e-01,9.99983e-01,2.82203e-02,9.99999e-01
4.858882533e-01,3.02798e-02,9.99999e-01,9.99999e-01,9.99969e-01,3.02807e-02,9.99999e-01
4.883176946e-01,3.24456e-02,9.99999e-01,9.99999e-01,9.99974e-01,3.24464e-02,9.99999e-01
4.907592831e-01,3.47188e-02,9.99999e-01,9.99999e-01,9.99976e-01,3.47196e-02,9.99999e-01
4.932130795e-01,3.71018e-02,9.99999e-01,9.99999e-01,9.99983e-01,3.71024e-02,9.99999e-01
4.956791449e-01,3.95965e-02,9.99999e-01,9.99999e-01,9.99991e-01,3.95968e-02,9.99999e-01
4.981575406e-01,4.22028e-02,9.99999e-01,9.99999e-01,9.99957e-01,4.22046e-02,9.99999e-01
5.006483283e-01,4.49227e-02,9.99999e-01,9.99999e-01,9.99891e-01,4.49275e-02,9.99999e-01
5.031515699e-01,4.77407e-02,9.99999e-01,9.99999e-01,9.99446e-01,4.77671e-02,9.99999e-01
5.056673278e-01,5.07098e-02,9.99999e-01,9.99999e-01,9.99706e-01,5.07247e-02,9.99999e-01
5.081956644e-01,5.37816e-02,9.99999e-01,9.99999e-01,9.99630e-01,5.38015e-02,9.99999e-01
5.107366428e-01,5.69844e-02,9.99999e-01,9.99999e-01,9.99749e-01,5.69986e-02,9.99999e-01
5.132903260e-01,6.03083e-02,9.99999e-01,9.99999e-01,9.99856e-01,6.03169e-02,9.99999e-01
5.158567776e-01,6.37532e-02,9.99999e-01,9.99999e-01,9.99939e-01,6.37571e-02,9.99999e-01
5.184360615e-01,6.73180e-02,9.99999e-01,9.99999e-01,9.99975e-01,6.73196e-02,9.99999e-01
5.210282418e-01,7.10044e-02,9.99999e-01,9.99999e-01,9.99990e-01,7.10050e-02,9.99999e-01
5.236333830e-01,7.48106e-02,9.99999e-01,9.99999e-01,9.99963e-01,7.48133e-02,9.99999e-01
5.262515499e-01,7.87428e-02,9.99999e-01,9.99999e-01,9.99976e-01,7.87445e-02,9.99999e-01
5.288828077e-01,8.27969e-02,9.99999e-01,9.99999e-01,9.99978e-01,8.27986e-02,9.99999e-01
5.315272217e-01,8.69734e-02,9.99999e-01,9.99999e-01,9.99981e-01,8.69750e-02,9.99999e-01
5.341848578e-01,9.12723e-02,9.99999e-01,9.99999e-01,9.99987e-01,9.12734e-02,9.99999e-01
5.368557821e-01,9.56889e-02,9.99999e-01,9.99999e-01,9.99957e-01,9.56929e-02,9.99999e-01
5.395400610e-01,1.00218e-01,9.99999e-01,9.99999e-01,9.99849e-01,1.00233e-01,9.99999e-01
5.422377613e-01,1.04871e-01,9.99999e-01,9.99999e-01,9.99802e-01,1.04892e-01,9.99999e-01
5.449489501e-01,1.09649e-01,9.99999e-01,9.99999e-01,9.99817e-01,1.09669e-01,9.99999e-01
5.476736949e-01,1.14545e-01,9.99999e-01,9.99999e-01,9.99837e-01,1.14563e-01,9.99999e-01
5.504120634e-01,1.19559e-01,9.99999e-01,9.99999e-01,9.99881e-01,1.19573e-01,9.99999e-01
5.531641237e-01,1.24688e-01,9.99999e-01,9.99999e-01,9.99940e-01,1.24696e-01,9.99999e-01
5.559299443e-01,1.29927e-01,9.99999e-01,9.99999e-01,9.99970e-01,1.29930e-01,9.99999e-01
5.587095940e-01,1.35272e-01,9.99999e-01,9.99999e-01,9.99981e-01,1.35275e-01,9.99999e-01
5.615031420e-01,1.40724e-01,9.99999e-01,9.99999e-01,9.99979e-01,1.40727e-01,9.99999e-01
5.643106577e-01,1.46281e-01,9.99999e-01,9.99999e-01,9.99977e-01,1.46285e-01,9.99999e-01
5.671322110e-01,1.51905e-01,9.99999e-01,9.99999e-01,9.99730e-01,1.51946e-01,9.99999e-01
5.699678720e-01,1.57661e-01,9.99999e-01,9.99999e-01,9.99705e-01,1.57707e-01,9.99999e-01
5.728177114e-01,1.63518e-01,9.99999e-01,9.99999e-01,9.99696e-01,1.63567e-01,9.99999e-01
5.756818000e-01,1.69476e-01,9.99999e-01,9.99999e-01,9.99721e-01,1.69523e-01,9.99999e-01
5.785602090e-01,1.75528e-01,9.99999e-01,9.99999e-01,9.99756e-01,1.75571e-01,9.99999e-01
5.814530100e-01,1.81665e-01,9.99999e-01,9.99999e-01,9.99755e-01,1.81709e-01,9.99999e-01
5.843602750e-01,1.87880e-01,9.99999e-01,9.99999e-01,9.99711e-01,1.87934e-01,9.99999e-01
5.872820764e-01,1.93760e-01,9.99999e-01,9.99999e-01,9.97510e-01,1.94243e-01,9.99999e-01
5.902184868e-01,2.00023e-01,9.99999e-01,9.99999e-01,9.96958e-01,2.00633e-01,9.99999e-01
5.931695792e-01,2.06657e-01,9.99999e-01,9.99999e-01,9.97856e-01,2.07101e-01,9.99999e-01
5.961354271e-01,2.13140e-01,9.99999e-01,9.99999e-01,9.97646e-01,2.13643e-01,9.99999e-01
5.991161043e-01,2.19878e-01,9.99999e-01,9.99999e-01,9.98281e-01,2.20257e-01,9.99999e-01
6.021116848e-01,2.26717e-01,9.99999e-01,9.99999e-01,9.99023e-01,2.26938e-01,9.99999e-01
6.051222432e-01,2.33569e-01,9.99999e-01,9.99999e-01,9.99505e-01,2.33685e-01,9.99999e-01
6.081478544e-01,2.40441e-01,9.99999e-01,9.99999e-01,9.99786e-01,2.40493e-01,9.99999e-01
6.111885937e-01,2.47336e-01,9.99999e-01,9.99999e-01,9.99909e-01,2.47358e-01,9.99999e-01
6.142445367e-01,2.54268e-01,9.99999e-01,9.99999e-01,9.99959e-01,2.54279e-01,9.99999e-01
6.173157594e-01,2.61244e-01,9.99999e-01,9.99999e-01,9.99977e-01,2.61250e-01,9.99999e-01
6.204023382e-01,2.68264e-01,9.99999e-01,9.99999e-01,9.99980e-01,2.68269e-01,9.99999e-01
6.235043498e-01,2.75311e-01,9.99999e-01,9.99999e-01,9.99918e-01,2.75333e-01,9.99999e-01
6.266218716e-01,2.82314e-01,9.99999e-01,9.99999e-01,9.99563e-01,2.82437e-01,9.99999e-01
6.297549810e-01,2.89533e-01,9.99999e-01,9.99999e-01,9.99839e-01,2.89580e-01,9.99999e-01
6.329037559e-01,2.96662e-01,9.99999e-01,9.99999e-01,9.99682e-01,2.96756e-01,9.99999e-01
6.360682746e-01,3.03881e-01,9.99999e-01,9.99999e-01,9.99730e-01,3.03963e-01,9.99999e-01
6.392486160e-01,3.11089e-01,9.99999e-01,9.99999e-01,9.99650e-01,3.11198e-01,9.99999e-01
6.424448591e-01,3.18309e-01,9.99999e-01,9.99999e-01,9.99535e-01,3.18456e-01,9.99999e-01
6.456570834e-01,3.25034e-01,9.99999e-01,9.99999e-01,9.97844e-01,3.25736e-01,9.99999e-01
6.488853688e-01,3.32411e-01,9.99999e-01,9.99999e-01,9.98130e-01,3.33034e-01,9.99999e-01
6.521297956e-01,3.39793e-01,9.99999e-01,9.99999e-01,9.98375e-01,3.40346e-01,9.99999e-01
6.553904446e-01,3.47112e-01,9.99999e-01,9.99999e-01,9.98396e-01,3.47669e-01,9.99999e-01
6.586673968e-01,3.54509e-01,9.99999e-01,9.99999e-01,9.98614e-01,3.55001e-01,9.99999e-01
6.619607338e-01,3.62047e-01,9.99999e-01,9.99999e-01,9.99198e-01,3.62337e-01,9.99999e-01
6.652705375e-01,3.69505e-01,9.99999e-01,9.99999e-01,9.99534e-01,3.69676e-01,9.99999e-01
6.685968902e-01,3.76933e-01,9.99999e-01,9.99999e-01,9.99783e-01,3.77015e-01,9.99999e-01
6.719398746e-01,3.84311e-01,9.99999e-01,9.99999e-01,9.99899e-01,3.84349e-01,9.99999e-01
6.752995740e-01,3.91657e-01,9.99999e-01,9.99999e-01,9.99945e-01,3.91678e-01,9.99999e-01
6.786760719e-01,3.98966e-01,9.99999e-01,9.99999e-01,9.99922e-01,3.98997e-01,9.99999e-01
6.820694522e-01,4.06250e-01,9.99999e-01,9.99999e-01,9.99866e-01,4.06304e-01,9.99999e-01
6.854797995e-01,4.13526e-01,9.99999e-01,9.99999e-01,9.99828e-01,4.13597e-01,9.99999e-01
6.889071985e-01,4.20701e-01,9.99999e-01,9.99999e-01,9.99590e-01,4.20873e-01,9.99999e-01
6.923517345e-01,4.25242e-01,9.99999e-01,9.99999e-01,9.93254e-01,4.28129e-01,9.99999e-01
6.958134932e-01,4.33806e-01,9.99999e-01,9.99999e-01,9.96422e-01,4.35364e-01,9.99999e-01
6.992925606e-01,4.41098e-01,9.99999e-01,9.99999e-01,9.96663e-01,4.42574e-01,9.99999e-01
7.027890234e-01,4.47892e-01,9.99999e-01,9.99999e-01,9.95851e-01,4.49758e-01,9.99999e-01
7.063029686e-01,4.55320e-01,9.99999e-01,9.99999e-01,9.96514e-01,4.56912e-01,9.99999e-01
7.098344834e-01,4.62485e-01,9.99999e-01,9.99999e-01,9.96656e-01,4.64037e-01,9.99999e-01
7.133836558e-01,4.69053e-01,9.99999e-01,9.99999e-01,9.95596e-01,4.71128e-01,9.99999e-01
7.169505741e-01,4.61343e-01,9.99999e-01,9.99999e-01,9.64780e-01,4.78184e-01,9.99999e-01
7.205353270e-01,4.76632e-01,9.99999e-01,9.99999e-01,9.82334e-01,4.85203e-01,9.99999e-01
7.241380036e-01,4.81325e-01,9.99999e-01,9.99999e-01,9.77936e-01,4.92184e-01,9.99998e-01
7.277586936e-01,4.89167e-01,9.99999e-01,9.99999e-01,9.80051e-01,4.99124e-01,9.99999e-01
7.313974871e-01,4.95239e-01,9.99999e-01,9.99999e-01,9.78690e-01,5.06022e-01,9.99999e-01
7.350544745e-01,5.06893e-01,9.99999e-01,9.99999e-01,9.88332e-01,5.12877e-01,9.99999e-01
7.387297469e-01,5.15217e-01,9.99999e-01,9.99999e-01,9.91400e-01,5.19686e-01,9.99999e-01
7.424233956e-01,5.24225e-01,9.99999e-01,9.99999e-01,9.95776e-01,5.26449e-01,9.99999e-01
7.461355126e-01,5.31800e-01,9.99999e-01,9.99999e-01,9.97443e-01,5.33163e-01,9.99999e-01
7.498661902e-01,5.39183e-01,9.99999e-01,9.99999e-01,9.98805e-01,5.39828e-01,9.99999e-01
7.536155211e-01,5.46122e-01,9.99999e-01,9.99999e-01,9.99415e-01,5.46441e-01,9.99999e-01
7.573835987e-01,5.52837e-01,9.99999e-01,9.99999e-01,9.99698e-01,5.53003e-01,9.99999e-01
7.611705167e-01,5.59408e-01,9.99999e-01,9.99999e-01,9.99812e-01,5.59512e-01,9.99999e-01
7.649763693e-01,5.65901e-01,9.99999e-01,9.99999e-01,9.99882e-01,5.65967e-01,9.99999e-01
7.688012511e-01,5.72320e-01,9.99999e-01,9.99999e-01,9.99918e-01,5.72366e-01,9.99999e-01
7.726452574e-01,5.78671e-01,9.99999e-01,9.99999e-01,9.99932e-01,5.78709e-01,9.99999e-01
7.765084837e-01,5.84940e-01,9.99999e-01,9.99999e-01,9.99905e-01,5.84995e-01,9.99999e-01
7.803910261e-01,5.76491e-01,9.99999e-01,9.75469e-01,9.99592e-01,5.91224e-01,9.99999e-01
7.842929812e-01,5.33067e-01,9.99999e-01,8.93544e-01,9.98578e-01,5.97393e-01,9.99999e-01
7.882144461e-01,5.33714e-01,9.99999e-01,8.86897e-01,9.97049e-01,6.03503e-01,9.99999e-01
7.921555184e-01,5.67777e-01,9.99999e-01,9.32953e-01,9.98373e-01,6.09553e-01,9.99999e-01
7.961162960e-01,5.85793e-01,9.99999e-01,9.54362e-01,9.97155e-01,6.15543e-01,9.99999e-01
8.000968774e-01,6.03967e-01,9.99999e-01,9.75045e-01,9.96698e-01,6.21471e-01,9.99999e-01
8.040973618e-01,6.17113e-01,9.99999e-01,9.86950e-01,9.96701e-01,6.27338e-01,9.99999e-01
8.081178486e-01,6.24711e-01,9.99999e-01,9.94013e-01,9.92617e-01,6.33142e-01,9.99999e-01
8.121584379e-01,6.18224e-01,9.99999e-01,9.98133e-01,9.69457e-01,6.38884e-01,9.99999e-01
8.162192301e-01,6.20780e-01,9.99999e-01,9.99587e-01,9.63493e-01,6.44563e-01,9.99999e-01
8.203003262e-01,6.38395e-01,9.99999e-01,9.99992e-01,9.81881e-01,6.50179e-01,9.99998e-01
8.244018279e-01,6.38769e-01,9.99999e-01,9.99999e-01,9.74132e-01,6.55731e-01,9.99998e-01
8.285238370e-01,6.46812e-01,9.99999e-01,9.99999e-01,9.78209e-01,6.61220e-01,9.99999e-01
8.326664562e-01,6.51901e-01,9.99999e-01,9.99999e-01,9.77882e-01,6.66645e-01,9.99999e-01
8.368297885e-01,6.61354e-01,9.99999e-01,9.99999e-01,9.84148e-01,6.72006e-01,9.99999e-01
8.410139374e-01,6.70905e-01,9.99999e-01,9.99999e-01,9.90553e-01,6.77303e-01,9.99999e-01
8.452190071e-01,6.79365e-01,9.99999e-01,9.99999e-01,9.95354e-01,6.82536e-01,9.99999e-01
8.494451021e-01,6.85857e-01,9.99999e-01,9.99999e-01,9.97312e-01,6.87704e-01,9.99999e-01
8.536923276e-01,6.91704e-01,9.99999e-01,9.99999e-01,9.98404e-01,6.92809e-01,9.99999e-01
8.579607893e-01,6.97166e-01,9.99999e-01,9.99999e-01,9.99020e-01,6.97850e-01,9.99999e-01
8.622505932e-01,7.02388e-01,9.99999e-01,9.99999e-01,9.99376e-01,7.02826e-01,9.99999e-01
8.665618462e-01,6.65405e-01,9.99999e-01,9.40534e-01,9.99615e-01,7.07739e-01,9.99999e-01
8.708946554e-01,5.34753e-01,9.99999e-01,7.50758e-01,9.99560e-01,7.12588e-01,9.99999e-01
8.752491287e-01,5.69460e-01,9.99999e-01,7.94269e-01,9.99411e-01,7.17373e-01,9.99999e-01
8.796253743e-01,6.36109e-01,9.99999e-01,8.81621e-01,9.99187e-01,7.22095e-01,9.99999e-01
8.840235012e-01,6.80310e-01,9.99999e-01,9.36953e-01,9.99071e-01,7.26754e-01,9.99999e-01
8.884436187e-01,7.10410e-01,9.99999e-01,9.74591e-01,9.96667e-01,7.31351e-01,9.99999e-01
8.928858368e-01,7.02785e-01,9.99999e-01,9.89661e-01,9.64934e-01,7.35884e-01,9.99999e-01
8.973502660e-01,6.92877e-01,9.99999e-01,9.97465e-01,9.38213e-01,7.40355e-01,9.99998e-01
9.018370173e-01,7.20552e-01,9.99999e-01,9.99719e-01,9.67755e-01,7.44765e-01,9.99998e-01
9.063462024e-01,7.23178e-01,9.99999e-01,9.93031e-01,9.71996e-01,7.49113e-01,9.99998e-01
9.108779334e-01,7.08992e-01,9.99999e-01,9.83757e-01,9.56452e-01,7.53399e-01,9.99998e-01
9.154323231e-01,7.17467e-01,9.99999e-01,9.96131e-01,9.50615e-01,7.57625e-01,9.99998e-01
9.200094847e-01,6.93270e-01,9.99999e-01,9.45500e-01,9.61002e-01,7.61790e-01,9.99997e-01
9.246095321e-01,6.65519e-01,9.99999e-01,9.22975e-01,9.40444e-01,7.65895e-01,9.99996e-01
9.292325798e-01,4.79067e-01,9.99999e-01,9.39535e-01,6.58895e-01,7.69941e-01,9.99993e-01
9.338787427e-01,4.25045e-01,9.99999e-01,9.41060e-01,5.80614e-01,7.73927e-01,9.99991e-01
9.385481364e-01,5.98718e-01,9.99999e-01,9.56408e-01,8.03192e-01,7.77855e-01,9.99991e-01
9.432408771e-01,5.61954e-01,9.99999e-01,9.73023e-01,7.37943e-01,7.81724e-01,9.99990e-01
9.479570815e-01,5.09101e-01,9.99999e-01,9.86108e-01,6.56841e-01,7.85536e-01,9.99991e-01
9.526968669e-01,5.71800e-01,9.99999e-01,9.93266e-01,7.29015e-01,7.89290e-01,9.99993e-01
9.574603512e-01,5.92952e-01,9.99999e-01,9.97114e-01,7.49802e-01,7.92988e-01,9.99995e-01
9.622476530e-01,6.29583e-01,9.99999e-01,9.99098e-01,7.90991e-01,7.96629e-01,9.99996e-01
9.670588912e-01,6.99116e-01,9.99999e-01,9.99728e-01,8.73889e-01,8.00215e-01,9.99997e-01
9.718941857e-01,7.39021e-01,9.99999e-01,9.99980e-01,9.19489e-01,8.03745e-01,9.99998e-01
9.767536566e-01,7.52924e-01,9.99999e-01,9.99999e-01,9.32736e-01,8.07221e-01,9.99998e-01
9.816374249e-01,7.69810e-01,9.99999e-01,9.99999e-01,9.49628e-01,8.10643e-01,9.99998e-01
9.865456120e-01,7.88152e-01,9.99999e-01,9.99999e-01,9.68232e-01,8.14011e-01,9.99999e-01
9.914783401e-01,8.01196e-01,9.99999e-01,9.99999e-01,9.80263e-01,8.17327e-01,9.99999e-01
9.964357318e-01,8.11730e-01,9.99999e-01,9.99999e-01,9.89202e-01,8.20590e-01,9.99999e-01
1.001417910e+00,8.18459e-01,9.99999e-01,9.99999e-01,9.93514e-01,8.23801e-01,9.99999e-01
1.006425000e+00,8.23907e-01,9.99999e-01,9.99999e-01,9.96306e-01,8.26961e-01,9.99999e-01
1.011457125e+00,8.28162e-01,9.99999e-01,9.99999e-01,9.97700e-01,8.30070e-01,9.99999e-01
1.016514411e+00,8.31831e-01,9.99999e-01,9.99999e-01,9.98440e-01,8.33130e-01,9.99999e-01
1.021596983e+00,8.35073e-01,9.99999e-01,9.99965e-01,9.98758e-01,8.36140e-01,9.99999e-01
1.026704968e+00,8.36019e-01,9.99999e-01,9.97291e-01,9.99031e-01,8.39100e-01,9.99999e-01
1.031838492e+00,8.13439e-01,9.99999e-01,9.66729e-01,9.99294e-01,8.42013e-01,9.99999e-01
1.036997685e+00,1.71678e-01,9.99999e-01,2.03267e-01,9.99581e-01,8.44878e-01,9.99999e-01
1.042182673e+00,1.71010e-01,9.99999e-01,2.01826e-01,9.99503e-01,8.47696e-01,9.99999e-01
1.047393587e+00,1.80816e-01,9.99999e-01,2.12733e-01,9.99340e-01,8.50467e-01,9.99999e-01
1.052630555e+00,1.15150e-02,9.99999e-01,1.35057e-02,9.99095e-01,8.53192e-01,9.99999e-01
1.057893707e+00,2.51819e-02,9.99999e-01,2.94545e-02,9.98492e-01,8.55872e-01,9.99999e-01
1.063183176e+00,6.50954e-02,9.99999e-01,7.59667e-02,9.97517e-01,8.58507e-01,9.99999e-01
1.068499092e+00,1.48372e-01,9.99999e-01,1.72934e-01,9.95840e-01,8.61098e-01,9.99999e-01
1.073841587e+00,2.83212e-01,9.99999e-01,3.29330e-01,9.95140e-01,8.63645e-01,9.99999e-01
1.079210795e+00,4.26752e-01,9.99999e-01,4.95584e-01,9.93758e-01,8.66150e-01,9.99999e-01
1.084606849e+00,5.85472e-01,9.99999e-01,6.80216e-01,9.90577e-01,8.68612e-01,9.99999e-01
1.090029883e+00,7.04052e-01,9.99999e-01,8.19088e-01,9.86555e-01,8.71032e-01,9.99999e-01
1.095480033e+00,7.63057e-01,9.99999e-01,9.06279e-01,9.63713e-01,8.73411e-01,9.99998e-01
1.100957433e+00,7.60564e-01,9.99999e-01,9.53741e-01,9.10269e-01,8.75749e-01,9.99997e-01
1.106462220e+00,6.78237e-01,9.99999e-01,9.80589e-01,7.87321e-01,8.78047e-01,9.99996e-01
1.111994531e+00,5.27098e-01,9.99999e-01,9.92763e-01,6.02899e-01,8.80305e-01,9.99992e-01
1.117554504e+00,3.87823e-01,9.99999e-01,9.98221e-01,4.40121e-01,8.82525e-01,9.99989e-01
1.123142276e+00,4.81443e-01,9.99999e-01,9.99882e-01,5.44227e-01,8.84706e-01,9.99987e-01
1.128757988e+00,6.02515e-01,9.99999e-01,9.99999e-01,6.79396e-01,8.86849e-01,9.99986e-01
1.134401778e+00,3.71775e-01,9.99999e-01,9.99999e-01,4.18221e-01,8.88955e-01,9.99985e-01
1.140073787e+00,7.08244e-01,9.99999e-01,9.99999e-01,7.94874e-01,8.91024e-01,9.99987e-01
1.145774156e+00,5.51627e-01,9.99999e-01,9.99999e-01,6.17689e-01,8.93057e-01,9.99989e-01
1.151503026e+00,5.23108e-01,9.99999e-01,9.99999e-01,5.84447e-01,8.95055e-01,9.99991e-01
1.157260541e+00,5.74112e-01,9.99999e-01,9.99999e-01,6.40027e-01,8.97017e-01,9.99993e-01
1.163046844e+00,6.46126e-01,9.99999e-01,9.99999e-01,7.18763e-01,8.98945e-01,9.99995e-01
1.168862078e+00,7.16468e-01,9.99999e-01,9.99999e-01,7.95335e-01,9.00838e-01,9.99997e-01
1.174706389e+00,7.83784e-01,9.99999e-01,9.99999e-01,8.68268e-01,9.02699e-01,9.99998e-01
1.180579921e+00,8.29969e-01,9.99999e-01,9.99999e-01,9.17573e-01,9.04526e-01,9.99998e-01
1.186482820e+00,8.63385e-01,9.99999e-01,9.99995e-01,9.52629e-01,9.06320e-01,9.99998e-01
1.192415234e+00,8.74334e-01,9.99999e-01,9.90375e-01,9.72112e-01,9.08083e-01,9.99999e-01
1.198377311e+00,5.09210e-01,9.99999e-01,5.70958e-01,9.76483e-01,9.09814e-01,9.99999e-01
1.204369197e+00,7.40521e-09,9.99999e-01,8.23041e-09,9.77706e-01,9.11514e-01,9.99999e-01
1.210391043e+00,1.28608e-30,9.99999e-01,1.42528e-30,9.78671e-01,9.13184e-01,9.99999e-01
1.216442998e+00,1.00155e-26,9.99999e-01,1.10727e-26,9.81792e-01,9.14823e-01,9.99999e-01
1.222525213e+00,2.40084e-26,9.99999e-01,2.63910e-26,9.85812e-01,9.16433e-01,9.99999e-01
1.228637839e+00,2.25131e-20,9.99999e-01,2.46946e-20,9.90135e-01,9.18014e-01,9.99999e-01
