#,Wave/freq,Total,O2,CO2,H2O,Rayleigh,CIA
4.000000000e-01,1.32389e-12,9.99999e-01,9.99999e-01,9.99945e-01,1.32396e-12,9.99999e-01
4.020000000e-01,2.27368e-12,9.99999e-01,9.99999e-01,9.99966e-01,2.27375e-12,9.99999e-01
4.040100000e-01,3.86118e-12,9.99999e-01,9.99999e-01,9.99985e-01,3.86124e-12,9.99999e-01
4.060300500e-01,6.48881e-12,9.99999e-01,9.99999e-01,9.99996e-01,6.48884e-12,9.99999e-01
4.080602003e-01,1.07933e-11,9.99999e-01,9.99999e-01,9.99998e-01,1.07933e-11,9.99999e-01
4.101005013e-01,1.77736e-11,9.99999e-01,9.99999e-01,9.99999e-01,1.77736e-11,9.99999e-01
4.121510038e-01,2.89814e-11,9.99999e-01,9.99999e-01,9.99997e-01,2.89814e-11,9.99999e-01
4.142117588e-01,4.68018e-11,9.99999e-01,9.99999e-01,9.99984e-01,4.68025e-11,9.99999e-01
4.162828176e-01,7.48649e-11,9.99999e-01,9.99999e-01,9.99933e-01,7.48699e-11,9.99999e-01
4.183642317e-01,1.18658e-10,9.99999e-01,9.99999e-01,9.99960e-01,1.18663e-10,9.99999e-01
4.204560528e-01,1.86364e-10,9.99999e-01,9.99999e-01,9.99975e-01,1.86368e-10,9.99999e-01
4.225583331e-01,2.90103e-10,9.99999e-01,9.99999e-01,9.99990e-01,2.90105e-10,9.99999e-01
4.246711247e-01,4.47652e-10,9.99999e-01,9.99999e-01,9.99992e-01,4.47655e-10,9.99999e-01
4.267944804e-01,6.84867e-10,9.99999e-01,9.99999e-01,9.99988e-01,6.84874e-10,9.99999e-01
4.289284528e-01,1.03903e-09,9.99999e-01,9.99999e-01,9.99991e-01,1.03904e-09,9.99999e-01
4.310730950e-01,1.56341e-09,9.99999e-01,9.99999e-01,9.99996e-01,1.56341e-09,9.99999e-01
4.332284605e-01,2.33353e-09,9.99999e-01,9.99999e-01,9.99998e-01,2.33353e-09,9.99999e-01
4.353946028e-01,3.45554e-09,9.99999e-01,9.99999e-01,9.99999e-01,3.45554e-09,9.99999e-01
4.375715758e-01,5.07748e-09,9.99999e-01,9.99999e-01,9.99993e-01,5.07752e-09,9.99999e-01
4.397594337e-01,7.40389e-09,9.99999e-01,9.99999e-01,9.99941e-01,7.40432e-09,9.99999e-01
4.419582309e-01,1.07141e-08,9.99999e-01,9.99999e-01,9.99706e-01,1.07172e-08,9.99999e-01
4.441680220e-01,1.53960e-08,9.99999e-01,9.99999e-01,9.99767e-01,1.53996e-08,9.99999e-01
4.463888621e-01,2.19645e-08,9.99999e-01,9.99999e-01,9.99759e-01,2.19697e-08,9.99999e-01
4.486208064e-01,3.11191e-08,9.99999e-01,9.99999e-01,9.99849e-01,3.11238e-08,9.99999e-01
4.508639105e-01,4.37867e-08,9.99999e-01,9.99999e-01,9.99929e-01,4.37898e-08,9.99999e-01
4.531182300e-01,6.11944e-08,9.99999e-01,9.99999e-01,9.99971e-01,6.11961e-08,9.99999e-01
4.553838212e-01,8.49563e-08,9.99999e-01,9.99999e-01,9.99980e-01,8.49579e-08,9.99999e-01
4.576607403e-01,1.17183e-07,9.99999e-01,9.99999e-01,9.99990e-01,1.17184e-07,9.99999e-01
4.599490440e-01,1.60611e-07,9.99999e-01,9.99999e-01,9.99993e-01,1.60611e-07,9.99999e-01
4.622487892e-01,2.18766e-07,9.99999e-01,9.99999e-01,9.99998e-01,2.18766e-07,9.99999e-01
4.645600332e-01,2.96162e-07,9.99999e-01,9.99999e-01,9.99995e-01,2.96163e-07,9.99999e-01
4.668828333e-01,3.98524e-07,9.99999e-01,9.99999e-01,9.99929e-01,3.98552e-07,9.99999e-01
4.692172475e-01,5.33121e-07,9.99999e-01,9.99999e-01,9.99848e-01,5.33201e-07,9.99999e-01
4.715633337e-01,7.09182e-07,9.99999e-01,9.99999e-01,9.99901e-01,7.09252e-07,9.99999e-01
4.739211504e-01,9.38040e-07,9.99999e-01,9.99999e-01,9.99905e-01,9.38129e-07,9.99999e-01
4.762907561e-01,1.23397e-06,9.99999e-01,9.99999e-01,9.99950e-01,1.23403e-06,9.99999e-01
4.786722099e-01,1.61446e-06,9.99999e-01,9.99999e-01,9.99979e-01,1.61449e-06,9.99999e-01
4.810655710e-01,2.10106e-06,9.99999e-01,9.99999e-01,9.99993e-01,2.10108e-06,9.99999e-01
4.834708988e-01,2.71996e-06,9.99999e-01,9.99999e-01,9.99942e-01,2.72012e-06,9.99999e-01
4.858882533e-01,3.50326e-06,9.99999e-01,9.99999e-01,9.99892e-01,3.50363e-06,9.99999e-01
4.883176946e-01,4.48992e-06,9.99999e-01,9.99999e-01,9.99910e-01,4.49032e-06,9.99999e-01
4.907592831e-01,5.72629e-06,9.99999e-01,9.99999e-01,9.99918e-01,5.72675e-06,9.99999e-01
4.932130795e-01,7.26821e-06,9.99999e-01,9.99999e-01,9.99942e-01,7.26863e-06,9.99999e-01
4.956791449e-01,9.18202e-06,9.99999e-01,9.99999e-01,9.99969e-01,9.18230e-06,9.99999e-01
4.981575406e-01,1.15446e-05,9.99999e-01,9.99999e-01,9.99848e-01,1.15464e-05,9.99999e-01
5.006483283e-01,1.44479e-05,9.99999e-01,9.99999e-01,9.99609e-01,1.44536e-05,9.99999e-01
5.031515699e-01,1.79769e-05,9.99999e-01,9.99999e-01,9.98013e-01,1.80126e-05,9.99999e-01
5.056673278e-01,2.23272e-05,9.99999e-01,9.99999e-01,9.98948e-01,2.23507e-05,9.99999e-01
5.081956644e-01,2.75790e-05,9.99999e-01,9.99999e-01,9.98673e-01,2.76156e-05,9.99999e-01
5.107366428e-01,3.39480e-05,9.99999e-01,9.99999e-01,9.99103e-01,3.39784e-05,9.99999e-01
5.132903260e-01,4.16150e-05,9.99999e-01,9.99999e-01,9.99487e-01,4.16363e-05,9.99999e-01
5.158567776e-01,5.08048e-05,9.99999e-01,9.99999e-01,9.99782e-01,5.08158e-05,9.99999e-01
5.184360615e-01,6.17701e-05,9.99999e-01,9.99999e-01,9.99912e-01,6.17755e-05,9.99999e-01
5.210282418e-01,7.48073e-05,9.99999e-01,9.99999e-01,9.99967e-01,7.48097e-05,9.99999e-01
5.236333830e-01,9.02404e-05,9.99999e-01,9.99999e-01,9.99869e-01,9.02521e-05,9.99999e-01
5.262515499e-01,1.08471e-04,9.99999e-01,9.99999e-01,9.99918e-01,1.08479e-04,9.99999e-01
5.288828077e-01,1.29905e-04,9.99999e-01,9.99999e-01,9.99925e-01,1.29915e-04,9.99999e-01
5.315272217e-01,1.55023e-04,9.99999e-01,9.99999e-01,9.99933e-01,1.55033e-04,9.99999e-01
5.341848578e-01,1.84354e-04,9.99999e-01,9.99999e-01,9.99956e-01,1.84362e-04,9.99999e-01
5.368557821e-01,2.18459e-04,9.99999e-01,9.99999e-01,9.99849e-01,2.18491e-04,9.99999e-01
5.395400610e-01,2.57932e-04,9.99999e-01,9.99999e-01,9.99458e-01,2.58071e-04,9.99999e-01
5.422377613e-01,3.03606e-04,9.99999e-01,9.99999e-01,9.99294e-01,3.03820e-04,9.99999e-01
5.449489501e-01,3.56295e-04,9.99999e-01,9.99999e-01,9.99346e-01,3.56528e-04,9.99999e-01
5.476736949e-01,4.16817e-04,9.99999e-01,9.99999e-01,9.99418e-01,4.17060e-04,9.99999e-01
5.504120634e-01,4.86155e-04,9.99999e-01,9.99999e-01,9.99577e-01,4.86360e-04,9.99999e-01
5.531641237e-01,5.65336e-04,9.99999e-01,9.99999e-01,9.99787e-01,5.65456e-04,9.99999e-01
5.559299443e-01,6.55394e-04,9.99999e-01,9.99999e-01,9.99897e-01,6.55461e-04,9.99999e-01
5.587095940e-01,7.57530e-04,9.99999e-01,9.99999e-01,9.99935e-01,7.57579e-04,9.99999e-01
5.615031420e-01,8.73044e-04,9.99999e-01,9.99999e-01,9.99928e-01,8.73106e-04,9.99999e-01
5.643106577e-01,1.00335e-03,9.99999e-01,9.99999e-01,9.99919e-01,1.00343e-03,9.99999e-01
5.671322110e-01,1.14893e-03,9.99999e-01,9.99999e-01,9.99026e-01,1.15005e-03,9.99999e-01
5.699678720e-01,1.31316e-03,9.99999e-01,9.99999e-01,9.98948e-01,1.31454e-03,9.99999e-01
5.728177114e-01,1.49697e-03,9.99999e-01,9.99999e-01,9.98911e-01,1.49860e-03,9.99999e-01
5.756818000e-01,1.70231e-03,9.99999e-01,9.99999e-01,9.98999e-01,1.70401e-03,9.99999e-01
5.785602090e-01,1.93099e-03,9.99999e-01,9.99999e-01,9.99127e-01,1.93267e-03,9.99999e-01
5.814530100e-01,2.18466e-03,9.99999e-01,9.99999e-01,9.99124e-01,2.18657e-03,9.99999e-01
5.843602750e-01,2.46524e-03,9.99999e-01,9.99999e-01,9.98961e-01,2.46780e-03,9.99999e-01
5.872820764e-01,2.75375e-03,9.99999e-01,9.99999e-01,9.91076e-01,2.77855e-03,9.99999e-01
5.902184868e-01,3.08719e-03,9.99999e-01,9.99999e-01,9.89133e-01,3.12111e-03,9.99999e-01
5.931695792e-01,3.47103e-03,9.99999e-01,9.99999e-01,9.92329e-01,3.49786e-03,9.99999e-01
5.961354271e-01,3.87835e-03,9.99999e-01,9.99999e-01,9.91580e-01,3.91128e-03,9.99999e-01
5.991161043e-01,4.33707e-03,9.99999e-01,9.99999e-01,9.93848e-01,4.36391e-03,9.99999e-01
6.021116848e-01,4.84143e-03,9.99999e-01,9.99999e-01,9.96502e-01,4.85841e-03,9.99999e-01
6.051222432e-01,5.38793e-03,9.99999e-01,9.99999e-01,9.98228e-01,5.39749e-03,9.99999e-01
6.081478544e-01,5.97936e-03,9.99999e-01,9.99999e-01,9.99235e-01,5.98393e-03,9.99999e-01
6.111885937e-01,6.61845e-03,9.99999e-01,9.99999e-01,9.99675e-01,6.62059e-03,9.99999e-01
6.142445367e-01,7.30932e-03,9.99999e-01,9.99999e-01,9.99855e-01,7.31037e-03,9.99999e-01
6.173157594e-01,8.05559e-03,9.99999e-01,9.99999e-01,9.99919e-01,8.05623e-03,9.99999e-01
6.204023382e-01,8.86058e-03,9.99999e-01,9.99999e-01,9.99932e-01,8.86117e-03,9.99999e-01
6.235043498e-01,9.72536e-03,9.99999e-01,9.99999e-01,9.99706e-01,9.72822e-03,9.99999e-01
6.266218716e-01,1.06437e-02,9.99999e-01,9.99999e-01,9.98432e-01,1.06604e-02,9.99999e-01
6.297549810e-01,1.16542e-02,9.99999e-01,9.99999e-01,9.99425e-01,1.16609e-02,9.99999e-01
6.329037559e-01,1.27181e-02,9.99999e-01,9.99999e-01,9.98861e-01,1.27326e-02,9.99999e-01
6.360682746e-01,1.38653e-02,9.99999e-01,9.99999e-01,9.99033e-01,1.38787e-02,9.99999e-01
6.392486160e-01,1.50834e-02,9.99999e-01,9.99999e-01,9.98745e-01,1.51023e-02,9.99999e-01
6.424448591e-01,1.63789e-02,9.99999e-01,9.99999e-01,9.98329e-01,1.64063e-02,9.99999e-01
6.456570834e-01,1.76562e-02,9.99999e-01,9.99999e-01,9.92264e-01,1.77938e-02,9.99999e-01
6.488853688e-01,1.91579e-02,9.99999e-01,9.99999e-01,9.94298e-01,1.92678e-02,9.99999e-01
6.521297956e-01,2.07100e-02,9.99999e-01,9.99999e-01,9.94189e-01,2.08310e-02,9.99999e-01
6.553904446e-01,2.23572e-02,9.99999e-01,9.99999e-01,9.94252e-01,2.24864e-02,9.99999e-01
6.586673968e-01,2.41165e-02,9.99999e-01,9.99999e-01,9.95042e-01,2.42367e-02,9.99999e-01
6.619607338e-01,2.60098e-02,9.99999e-01,9.99999e-01,9.97131e-01,2.60846e-02,9.99999e-01
6.652705375e-01,2.79860e-02,9.99999e-01,9.99999e-01,9.98336e-01,2.80327e-02,9.99999e-01
6.685968902e-01,3.00601e-02,9.99999e-01,9.99999e-01,9.99226e-01,3.00834e-02,9.99999e-01
6.719398746e-01,3.22276e-02,9.99999e-01,9.99999e-01,9.99641e-01,3.22392e-02,9.99999e-01
6.752995740e-01,3.44955e-02,9.99999e-01,9.99999e-01,9.99805e-01,3.45022e-02,9.99999e-01
6.786760719e-01,3.68644e-02,9.99999e-01,9.99999e-01,9.99721e-01,3.68746e-02,9.99999e-01
6.820694522e-01,3.93397e-02,9.99999e-01,9.99999e-01,9.99521e-01,3.93585e-02,9.99999e-01
6.854797995e-01,4.19298e-02,9.99999e-01,9.99999e-01,9.99383e-01,4.19556e-02,9.99999e-01
6.889071985e-01,4.46016e-02,9.99999e-01,9.99999e-01,9.98521e-01,4.46677e-02,9.99999e-01
6.923517345e-01,4.63554e-02,9.99999e-01,9.99999e-01,9.75979e-01,4.74962e-02,9.99999e-01
6.958134932e-01,4.98025e-02,9.99999e-01,9.99999e-01,9.87307e-01,5.04427e-02,9.99999e-01
6.992925606e-01,5.28692e-02,9.99999e-01,9.99999e-01,9.88054e-01,5.35083e-02,9.99999e-01
7.027890234e-01,5.58554e-02,9.99999e-01,9.99999e-01,9.85204e-01,5.66942e-02,9.99999e-01
7.063029686e-01,5.92540e-02,9.99999e-01,9.99999e-01,9.87549e-01,6.00011e-02,9.99999e-01
7.098344834e-01,6.26718e-02,9.99999e-01,9.99999e-01,9.88049e-01,6.34298e-02,9.99999e-01
7.133836558e-01,6.59245e-02,9.99999e-01,9.99999e-01,9.84227e-01,6.69809e-02,9.99998e-01
7.169505741e-01,6.22034e-02,9.99999e-01,9.99999e-01,8.80385e-01,7.06548e-02,9.99998e-01
7.205353270e-01,6.98982e-02,9.99999e-01,9.99999e-01,9.38842e-01,7.44515e-02,9.99997e-01
7.241380036e-01,7.23744e-02,9.99999e-01,9.99999e-01,9.23481e-01,7.83713e-02,9.99997e-01
7.277586936e-01,7.66996e-02,9.99999e-01,9.99999e-01,9.30664e-01,8.24138e-02,9.99998e-01
7.313974871e-01,8.01746e-02,9.99999e-01,9.99999e-01,9.26030e-01,8.65788e-02,9.99998e-01
7.350544745e-01,8.71307e-02,9.99999e-01,9.99999e-01,9.58894e-01,9.08658e-02,9.99998e-01
7.387297469e-01,9.23725e-02,9.99999e-01,9.99999e-01,9.69544e-01,9.52741e-02,9.99999e-01
7.424233956e-01,9.83017e-02,9.99999e-01,9.99999e-01,9.84959e-01,9.98027e-02,9.99999e-01
7.461355126e-01,1.03497e-01,9.99999e-01,9.99999e-01,9.90866e-01,1.04451e-01,9.99999e-01
7.498661902e-01,1.08751e-01,9.99999e-01,9.99999e-01,9.95731e-01,1.09217e-01,9.99999e-01
7.536155211e-01,1.13862e-01,9.99999e-01,9.99999e-01,9.97907e-01,1.14100e-01,9.99999e-01
7.573835987e-01,1.18971e-01,9.99999e-01,9.99999e-01,9.98922e-01,1.19099e-01,9.99999e-01
7.611705167e-01,1.24128e-01,9.99999e-01,9.99999e-01,9.99330e-01,1.24211e-01,9.99999e-01
7.649763693e-01,1.29381e-01,9.99999e-01,9.99999e-01,9.99580e-01,1.29436e-01,9.99999e-01
7.688012511e-01,1.34730e-01,9.99999e-01,9.99999e-01,9.99707e-01,1.34770e-01,9.99999e-01
7.726452574e-01,1.40178e-01,9.99999e-01,9.99999e-01,9.99759e-01,1.40212e-01,9.99999e-01
7.765084837e-01,1.45711e-01,9.99999e-01,9.99999e-01,9.99660e-01,1.45760e-01,9.99999e-01
7.803910261e-01,1.39922e-01,9.99999e-01,9.25378e-01,9.98533e-01,1.51411e-01,9.99999e-01
7.842929812e-01,1.06739e-01,9.99999e-01,6.82265e-01,9.94890e-01,1.57164e-01,9.99999e-01
7.882144461e-01,1.07840e-01,9.99999e-01,6.67957e-01,9.89449e-01,1.63015e-01,9.99999e-01
7.921555184e-01,1.31457e-01,9.99999e-01,7.82321e-01,9.94187e-01,1.68961e-01,9.99999e-01
7.961162960e-01,1.46693e-01,9.99999e-01,8.46665e-01,9.89809e-01,1.75001e-01,9.99999e-01
8.000968774e-01,1.63557e-01,9.99999e-01,9.13686e-01,9.88195e-01,1.81131e-01,9.99999e-01
8.040973618e-01,1.76660e-01,9.99999e-01,9.54153e-01,9.88202e-01,1.87348e-01,9.99999e-01
8.081178486e-01,1.84566e-01,9.99999e-01,9.78720e-01,9.73722e-01,1.93649e-01,9.99998e-01
8.121584379e-01,1.77903e-01,9.99999e-01,9.93349e-01,8.95177e-01,2.00032e-01,9.99998e-01
8.162192301e-01,1.80702e-01,9.99999e-01,9.98527e-01,8.76335e-01,2.06492e-01,9.99997e-01
8.203003262e-01,1.99740e-01,9.99999e-01,9.99976e-01,9.37644e-01,2.13028e-01,9.99997e-01
8.244018279e-01,2.00596e-01,9.99999e-01,9.99999e-01,9.13316e-01,2.19635e-01,9.99997e-01
8.285238370e-01,2.09177e-01,9.99999e-01,9.99999e-01,9.24294e-01,2.26310e-01,9.99998e-01
8.326664562e-01,2.15201e-01,9.99999e-01,9.99999e-01,9.23411e-01,2.33051e-01,9.99998e-01
8.368297885e-01,2.26531e-01,9.99999e-01,9.99999e-01,9.44459e-01,2.39853e-01,9.99998e-01
8.410139374e-01,2.38471e-01,9.99999e-01,9.99999e-01,9.66591e-01,2.46713e-01,9.99999e-01
8.452190071e-01,2.49434e-01,9.99999e-01,9.99999e-01,9.83460e-01,2.53628e-01,9.99999e-01
8.494451021e-01,2.58091e-01,9.99999e-01,9.99999e-01,9.90389e-01,2.60595e-01,9.99999e-01
8.536923276e-01,2.66084e-01,9.99999e-01,9.99999e-01,9.94296e-01,2.67610e-01,9.99999e-01
8.579607893e-01,2.73706e-01,9.99999e-01,9.99999e-01,9.96490e-01,2.74670e-01,9.99999e-01
8.622505932e-01,2.81141e-01,9.99999e-01,9.99999e-01,9.97766e-01,2.81771e-01,9.99999e-01
8.665618462e-01,2.53917e-01,9.99999e-01,8.80022e-01,9.98620e-01,2.88909e-01,9.99999e-01
8.708946554e-01,1.15262e-01,9.99999e-01,3.89860e-01,9.98422e-01,2.96083e-01,9.99999e-01
8.752491287e-01,1.38503e-01,9.99999e-01,4.57578e-01,9.97889e-01,3.03287e-01,9.99999e-01
8.796253743e-01,1.99628e-01,9.99999e-01,6.44633e-01,9.97083e-01,3.10519e-01,9.99999e-01
8.840235012e-01,2.51425e-01,9.99999e-01,7.93749e-01,9.96666e-01,3.17776e-01,9.99999e-01
8.884436187e-01,2.93106e-01,9.99999e-01,9.12373e-01,9.88027e-01,3.25054e-01,9.99998e-01
8.928858368e-01,2.82270e-01,9.99999e-01,9.63512e-01,8.80749e-01,3.32350e-01,9.99997e-01
8.973502660e-01,2.68871e-01,9.99999e-01,9.90981e-01,7.98423e-01,3.39661e-01,9.99996e-01
9.018370173e-01,3.08900e-01,9.99999e-01,9.99000e-01,8.91069e-01,3.46983e-01,9.99996e-01
9.063462024e-01,3.13068e-01,9.99999e-01,9.75457e-01,9.04036e-01,3.54314e-01,9.99995e-01
9.108779334e-01,2.91858e-01,9.99999e-01,9.43180e-01,8.54115e-01,3.61650e-01,9.99995e-01
9.154323231e-01,3.04278e-01,9.99999e-01,9.86289e-01,8.35473e-01,3.68989e-01,9.99995e-01
9.200094847e-01,2.78088e-01,9.99999e-01,8.36854e-01,8.68786e-01,3.76328e-01,9.99993e-01
9.246095321e-01,2.35833e-01,9.99999e-01,7.52195e-01,8.08573e-01,3.83663e-01,9.99989e-01
9.292325798e-01,8.36817e-02,9.99999e-01,8.03416e-01,2.55232e-01,3.90992e-01,9.99978e-01
9.338787427e-01,5.70987e-02,9.99999e-01,8.06852e-01,1.70563e-01,3.98312e-01,9.99972e-01
9.385481364e-01,1.71779e-01,9.99999e-01,8.53224e-01,4.86876e-01,4.05621e-01,9.99971e-01
9.432408771e-01,1.44308e-01,9.99999e-01,9.06864e-01,3.81202e-01,4.12915e-01,9.99968e-01
9.479570815e-01,1.06398e-01,9.99999e-01,9.51114e-01,2.64804e-01,4.20193e-01,9.99972e-01
9.526968669e-01,1.49994e-01,9.99999e-01,9.76118e-01,3.58026e-01,4.27451e-01,9.99978e-01
9.574603512e-01,1.62480e-01,9.99999e-01,9.89707e-01,3.77093e-01,4.34687e-01,9.99984e-01
9.622476530e-01,1.96838e-01,9.99999e-01,9.96776e-01,4.46678e-01,4.41900e-01,9.99989e-01
9.670588912e-01,2.81109e-01,9.99999e-01,9.99031e-01,6.26493e-01,4.49086e-01,9.99993e-01
9.718941857e-01,3.38738e-01,9.99999e-01,9.99930e-01,7.42495e-01,4.56244e-01,9.99995e-01
9.767536566e-01,3.61806e-01,9.99999e-01,9.99999e-01,7.80814e-01,4.63371e-01,9.99996e-01
9.816374249e-01,3.91296e-01,9.99999e-01,9.99999e-01,8.31722e-01,4.70465e-01,9.99997e-01
9.865456120e-01,4.25482e-01,9.99999e-01,9.99999e-01,8.91015e-01,4.77525e-01,9.99998e-01
9.914783401e-01,4.51152e-01,9.99999e-01,9.99999e-01,9.31077e-01,4.84548e-01,9.99999e-01
9.964357318e-01,4.72779e-01,9.99999e-01,9.99999e-01,9.61847e-01,4.91532e-01,9.99999e-01
1.001417910e+00,4.86985e-01,9.99999e-01,9.99999e-01,9.76946e-01,4.98476e-01,9.99999e-01
1.006425000e+00,4.98711e-01,9.99999e-01,9.99999e-01,9.86806e-01,5.05378e-01,9.99999e-01
1.011457125e+00,5.08027e-01,9.99999e-01,9.99999e-01,9.91780e-01,5.12237e-01,9.99999e-01
1.016514411e+00,5.16153e-01,9.99999e-01,9.99999e-01,9.94417e-01,5.19051e-01,9.99999e-01
1.021596983e+00,5.23413e-01,9.99999e-01,9.99873e-01,9.95551e-01,5.25817e-01,9.99999e-01
1.026704968e+00,5.25538e-01,9.99999e-01,9.90282e-01,9.96529e-01,5.32536e-01,9.99999e-01
1.031838492e+00,4.93621e-01,9.99999e-01,9.17664e-01,9.97474e-01,5.39206e-01,9.99999e-01
1.036997685e+00,3.37594e-02,9.99999e-01,6.19207e-02,9.98500e-01,5.45824e-01,9.99999e-01
1.042182673e+00,3.90551e-03,9.99999e-01,7.08010e-03,9.98216e-01,5.52391e-01,9.99999e-01
1.047393587e+00,9.12388e-03,9.99999e-01,1.63571e-02,9.97632e-01,5.58905e-01,9.99999e-01
1.052630555e+00,3.39223e-06,9.99999e-01,6.01263e-06,9.96754e-01,5.65365e-01,9.99999e-01
1.057893707e+00,1.24322e-05,9.99999e-01,2.18067e-05,9.94592e-01,5.71769e-01,9.99999e-01
1.063183176e+00,1.97268e-04,9.99999e-01,3.43044e-04,9.91111e-01,5.78118e-01,9.99999e-01
1.068499092e+00,1.55341e-03,9.99999e-01,2.68594e-03,9.85148e-01,5.84409e-01,9.99999e-01
1.073841587e+00,1.30385e-02,9.99999e-01,2.23632e-02,9.82670e-01,5.90643e-01,9.99999e-01
1.079210795e+00,5.35396e-02,9.99999e-01,9.13492e-02,9.77795e-01,5.96818e-01,9.99998e-01
1.084606849e+00,1.51367e-01,9.99999e-01,2.58780e-01,9.66626e-01,6.02934e-01,9.99998e-01
1.090029883e+00,2.87081e-01,9.99999e-01,4.93231e-01,9.52604e-01,6.08989e-01,9.99997e-01
1.095480033e+00,3.81175e-01,9.99999e-01,7.04952e-01,8.76021e-01,6.14985e-01,9.99996e-01
1.100957433e+00,3.77197e-01,9.99999e-01,8.44384e-01,7.16230e-01,6.20919e-01,9.99993e-01
1.106462220e+00,2.57746e-01,9.99999e-01,9.32313e-01,4.38524e-01,6.26791e-01,9.99987e-01
1.111994531e+00,1.12767e-01,9.99999e-01,9.74332e-01,1.82223e-01,6.32601e-01,9.99974e-01
1.117554504e+00,4.33477e-02,9.99999e-01,9.93657e-01,6.81832e-02,6.38349e-01,9.99963e-01
1.123142276e+00,9.94245e-02,9.99999e-01,9.99580e-01,1.54396e-01,6.44034e-01,9.99957e-01
1.128757988e+00,1.81830e-01,9.99999e-01,9.99999e-01,2.79900e-01,6.49656e-01,9.99953e-01
1.134401778e+00,8.18379e-02,9.99999e-01,9.99999e-01,1.24909e-01,6.55214e-01,9.99948e-01
1.140073787e+00,3.00696e-01,9.99999e-01,9.99999e-01,4.55129e-01,6.60709e-01,9.99958e-01
1.145774156e+00,1.39382e-01,9.99999e-01,9.99999e-01,2.09246e-01,6.66140e-01,9.99964e-01
1.151503026e+00,1.19680e-01,9.99999e-01,9.99999e-01,1.78232e-01,6.71507e-01,9.99969e-01
1.157260541e+00,1.47600e-01,9.99999e-01,9.99999e-01,2.18087e-01,6.76810e-01,9.99976e-01
1.163046844e+00,2.18903e-01,9.99999e-01,9.99999e-01,3.20953e-01,6.82049e-01,9.99984e-01
1.168862078e+00,3.06361e-01,9.99999e-01,9.99999e-01,4.45799e-01,6.87223e-01,9.99992e-01
1.174706389e+00,4.20119e-01,9.99999e-01,9.99999e-01,6.06817e-01,6.92334e-01,9.99995e-01
1.180579921e+00,5.13741e-01,9.99999e-01,9.99999e-01,7.36673e-01,6.97380e-01,9.99997e-01
1.186482820e+00,5.90487e-01,9.99999e-01,9.99984e-01,8.40726e-01,7.02363e-01,9.99997e-01
1.192415234e+00,6.18401e-01,9.99999e-01,9.66686e-01,9.03578e-01,7.07282e-01,9.99997e-01
1.198377311e+00,3.49906e-01,9.99999e-01,5.27563e-01,9.18200e-01,7.12137e-01,9.99998e-01
1.204369197e+00,5.57722e-26,9.99999e-01,8.15129e-26,9.22550e-01,7.16928e-01,9.99998e-01
1.210391043e+00,3.89451e-104,9.99999e-01,5.63338e-104,9.25699e-01,7.21656e-01,9.99998e-01
1.216442998e+00,3.69156e-90,9.99999e-01,5.29360e-90,9.36365e-01,7.26321e-01,9.99998e-01
1.222525213e+00,8.34986e-89,9.99999e-01,1.17288e-88,9.50067e-01,7.30923e-01,9.99999e-01
1.228637839e+00,1.44997e-68,9.99999e-01,2.01932e-68,9.65063e-01,7.35462e-01,9.99999e-01
