#,Wave/freq,Total,O2,CO2,H2O,Rayleigh,CIA
4.000000000e-01,2.59996e-03,9.99999e-01,9.99999e-01,9.99987e-01,2.59999e-03,9.99999e-01
4.020000000e-01,2.92470e-03,9.99999e-01,9.99999e-01,9.99992e-01,2.92472e-03,9.99999e-01
4.040100000e-01,3.28196e-03,9.99999e-01,9.99999e-01,9.99996e-01,3.28197e-03,9.99999e-01
4.060300500e-01,3.67449e-03,9.99999e-01,9.99999e-01,9.99998e-01,3.67449e-03,9.99999e-01
4.080602003e-01,4.10479e-03,9.99999e-01,9.99999e-01,9.99999e-01,4.10479e-03,9.99999e-01
4.101005013e-01,4.57545e-03,9.99999e-01,9.99999e-01,9.99999e-01,4.57545e-03,9.99999e-01
4.121510038e-01,5.08916e-03,9.99999e-01,9.99999e-01,9.99999e-01,5.08916e-03,9.99999e-01
4.142117588e-01,5.64865e-03,9.99999e-01,9.99999e-01,9.99996e-01,5.64866e-03,9.99999e-01
4.162828176e-01,6.25668e-03,9.99999e-01,9.99999e-01,9.99985e-01,6.25677e-03,9.99999e-01
4.183642317e-01,6.91631e-03,9.99999e-01,9.99999e-01,9.99990e-01,6.91637e-03,9.99999e-01
4.204560528e-01,7.63033e-03,9.99999e-01,9.99999e-01,9.99994e-01,7.63037e-03,9.99999e-01
4.225583331e-01,8.40175e-03,9.99999e-01,9.99999e-01,9.99997e-01,8.40177e-03,9.99999e-01
4.246711247e-01,9.23355e-03,9.99999e-01,9.99999e-01,9.99997e-01,9.23357e-03,9.99999e-01
4.267944804e-01,1.01288e-02,9.99999e-01,9.99999e-01,9.99997e-01,1.01288e-02,9.99999e-01
4.289284528e-01,1.10905e-02,9.99999e-01,9.99999e-01,9.99997e-01,1.10906e-02,9.99999e-01
4.310730950e-01,1.21219e-02,9.99999e-01,9.99999e-01,9.99998e-01,1.21219e-02,9.99999e-01
4.332284605e-01,1.32259e-02,9.99999e-01,9.99999e-01,9.99999e-01,1.32259e-02,9.99999e-01
4.353946028e-01,1.44056e-02,9.99999e-01,9.99999e-01,9.99999e-01,1.44056e-02,9.99999e-01
4.375715758e-01,1.56641e-02,9.99999e-01,9.99999e-01,9.99998e-01,1.56641e-02,9.99999e-01
4.397594337e-01,1.70041e-02,9.99999e-01,9.99999e-01,9.99986e-01,1.70043e-02,9.99999e-01
4.419582309e-01,1.84282e-02,9.99999e-01,9.99999e-01,9.99934e-01,1.84294e-02,9.99999e-01
4.441680220e-01,1.99411e-02,9.99999e-01,9.99999e-01,9.99949e-01,1.99421e-02,9.99999e-01
4.463888621e-01,2.15443e-02,9.99999e-01,9.99999e-01,9.99947e-01,2.15454e-02,9.99999e-01
4.486208064e-01,2.32413e-02,9.99999e-01,9.99999e-01,9.99967e-01,2.32421e-02,9.99999e-01
4.508639105e-01,2.50345e-02,9.99999e-01,9.99999e-01,9.99984e-01,2.50349e-02,9.99999e-01
4.531182300e-01,2.69262e-02,9.99999e-01,9.99999e-01,9.99993e-01,2.69264e-02,9.99999e-01
4.553838212e-01,2.89191e-02,9.99999e-01,9.99999e-01,9.99995e-01,2.89192e-02,9.99999e-01
4.576607403e-01,3.10156e-02,9.99999e-01,9.99999e-01,9.99997e-01,3.10157e-02,9.99999e-01
4.599490440e-01,3.32182e-02,9.99999e-01,9.99999e-01,9.99998e-01,3.32182e-02,9.99999e-01
4.622487892e-01,3.55290e-02,9.99999e-01,9.99999e-01,9.99999e-01,3.55290e-02,9.99999e-01
4.645600332e-01,3.79500e-02,9.99999e-01,9.99999e-01,9.99998e-01,3.79501e-02,9.99999e-01
4.668828333e-01,4.04827e-02,9.99999e-01,9.99999e-01,9.99984e-01,4.04834e-02,9.99999e-01
4.692172475e-01,4.31293e-02,9.99999e-01,9.99999e-01,9.99966e-01,4.31307e-02,9.99999e-01
4.715633337e-01,4.58927e-02,9.99999e-01,9.99999e-01,9.99978e-01,4.58936e-02,9.99999e-01
4.739211504e-01,4.87728e-02,9.99999e-01,9.99999e-01,9.99979e-01,4.87738e-02,9.99999e-01
4.762907561e-01,5.17718e-02,9.99999e-01,9.99999e-01,9.99988e-01,5.17723e-02,9.99999e-01
4.786722099e-01,5.48903e-02,9.99999e-01,9.99999e-01,9.99995e-01,5.48906e-02,9.99999e-01
4.810655710e-01,5.81293e-02,9.99999e-01,9.99999e-01,9.99998e-01,5.81294e-02,9.99999e-01
4.834708988e-01,6.14888e-02,9.99999e-01,9.99999e-01,9.99986e-01,6.14896e-02,9.99999e-01
4.858882533e-01,6.49705e-02,9.99999e-01,9.99999e-01,9.99976e-01,6.49720e-02,9.99999e-01
4.883176946e-01,6.85755e-02,9.99999e-01,9.99999e-01,9.99980e-01,6.85769e-02,9.99999e-01
4.907592831e-01,7.23033e-02,9.99999e-01,9.99999e-01,9.99982e-01,7.23046e-02,9.99999e-01
4.932130795e-01,7.61544e-02,9.99999e-01,9.99999e-01,9.99987e-01,7.61553e-02,9.99999e-01
4.956791449e-01,8.01284e-02,9.99999e-01,9.99999e-01,9.99992e-01,8.01290e-02,9.99999e-01
4.981575406e-01,8.42225e-02,9.99999e-01,9.99999e-01,9.99966e-01,8.42253e-02,9.99999e-01
5.006483283e-01,8.84362e-02,9.99999e-01,9.99999e-01,9.99913e-01,8.84438e-02,9.99999e-01
5.031515699e-01,9.27438e-02,9.99999e-01,9.99999e-01,9.99565e-01,9.27841e-02,9.99999e-01
5.056673278e-01,9.72230e-02,9.99999e-01,9.99999e-01,9.99771e-01,9.72452e-02,9.99999e-01
5.081956644e-01,1.01797e-01,9.99999e-01,9.99999e-01,9.99711e-01,1.01826e-01,9.99999e-01
5.107366428e-01,1.06506e-01,9.99999e-01,9.99999e-01,9.99805e-01,1.06527e-01,9.99999e-01
5.132903260e-01,1.11332e-01,9.99999e-01,9.99999e-01,9.99888e-01,1.11344e-01,9.99999e-01
5.158567776e-01,1.16273e-01,9.99999e-01,9.99999e-01,9.99952e-01,1.16278e-01,9.99999e-01
5.184360615e-01,1.21325e-01,9.99999e-01,9.99999e-01,9.99980e-01,1.21327e-01,9.99999e-01
5.210282418e-01,1.26488e-01,9.99999e-01,9.99999e-01,9.99992e-01,1.26489e-01,9.99999e-01
5.236333830e-01,1.31758e-01,9.99999e-01,9.99999e-01,9.99971e-01,1.31761e-01,9.99999e-01
5.262515499e-01,1.37141e-01,9.99999e-01,9.99999e-01,9.99981e-01,1.37143e-01,9.99999e-01
5.288828077e-01,1.42630e-01,9.99999e-01,9.99999e-01,9.99983e-01,1.42632e-01,9.99999e-01
5.315272217e-01,1.48224e-01,9.99999e-01,9.99999e-01,9.99985e-01,1.48226e-01,9.99999e-01
5.341848578e-01,1.53920e-01,9.99999e-01,9.99999e-01,9.99990e-01,1.53922e-01,9.99999e-01
5.368557821e-01,1.59712e-01,9.99999e-01,9.99999e-01,9.99966e-01,1.59718e-01,9.99999e-01
5.395400610e-01,1.65591e-01,9.99999e-01,9.99999e-01,9.99879e-01,1.65611e-01,9.99999e-01
5.422377613e-01,1.71572e-01,9.99999e-01,9.99999e-01,9.99846e-01,1.71598e-01,9.99999e-01
5.449489501e-01,1.77653e-01,9.99999e-01,9.99999e-01,9.99856e-01,1.77678e-01,9.99999e-01
5.476736949e-01,1.83823e-01,9.99999e-01,9.99999e-01,9.99873e-01,1.83846e-01,9.99999e-01
5.504120634e-01,1.90083e-01,9.99999e-01,9.99999e-01,9.99908e-01,1.90101e-01,9.99999e-01
5.531641237e-01,1.96429e-01,9.99999e-01,9.99999e-01,9.99953e-01,1.96438e-01,9.99999e-01
5.559299443e-01,2.02851e-01,9.99999e-01,9.99999e-01,9.99977e-01,2.02855e-01,9.99999e-01
5.587095940e-01,2.09346e-01,9.99999e-01,9.99999e-01,9.99985e-01,2.09349e-01,9.99999e-01
5.615031420e-01,2.15913e-01,9.99999e-01,9.99999e-01,9.99983e-01,2.15916e-01,9.99999e-01
5.643106577e-01,2.22550e-01,9.99999e-01,9.99999e-01,9.99981e-01,2.22554e-01,9.99999e-01
5.671322110e-01,2.29208e-01,9.99999e-01,9.99999e-01,9.99781e-01,2.29258e-01,9.99999e-01
5.699678720e-01,2.35973e-01,9.99999e-01,9.99999e-01,9.99773e-01,2.36026e-01,9.99999e-01
5.728177114e-01,2.42796e-01,9.99999e-01,9.99999e-01,9.99761e-01,2.42854e-01,9.99999e-01
5.756818000e-01,2.49685e-01,9.99999e-01,9.99999e-01,9.99781e-01,2.49739e-01,9.99999e-01
5.785602090e-01,2.56629e-01,9.99999e-01,9.99999e-01,9.99810e-01,2.56677e-01,9.99999e-01
5.814530100e-01,2.63616e-01,9.99999e-01,9.99999e-01,9.99808e-01,2.63666e-01,9.99999e-01
5.843602750e-01,2.70639e-01,9.99999e-01,9.99999e-01,9.99770e-01,2.70701e-01,9.99999e-01
5.872820764e-01,2.77231e-01,9.99999e-01,9.99999e-01,9.98025e-01,2.77779e-01,9.99999e-01
5.902184868e-01,2.84222e-01,9.99999e-01,9.99999e-01,9.97630e-01,2.84897e-01,9.99999e-01
5.931695792e-01,2.91561e-01,9.99999e-01,9.99999e-01,9.98320e-01,2.92051e-01,9.99999e-01
5.961354271e-01,2.98689e-01,9.99999e-01,9.99999e-01,9.98163e-01,2.99238e-01,9.99999e-01
5.991161043e-01,3.06045e-01,9.99999e-01,9.99999e-01,9.98662e-01,3.06455e-01,9.99999e-01
6.021116848e-01,3.13461e-01,9.99999e-01,9.99999e-01,9.99241e-01,3.13699e-01,9.99999e-01
6.051222432e-01,3.20842e-01,9.99999e-01,9.99999e-01,9.99616e-01,3.20965e-01,9.99999e-01
6.081478544e-01,3.28197e-01,9.99999e-01,9.99999e-01,9.99834e-01,3.28251e-01,9.99999e-01
6.111885937e-01,3.35531e-01,9.99999e-01,9.99999e-01,9.99929e-01,3.35554e-01,9.99999e-01
6.142445367e-01,3.42860e-01,9.99999e-01,9.99999e-01,9.99968e-01,3.42870e-01,9.99999e-01
6.173157594e-01,3.50191e-01,9.99999e-01,9.99999e-01,9.99982e-01,3.50197e-01,9.99999e-01
6.204023382e-01,3.57525e-01,9.99999e-01,9.99999e-01,9.99984e-01,3.57531e-01,9.99999e-01
6.235043498e-01,3.64845e-01,9.99999e-01,9.99999e-01,9.99933e-01,3.64869e-01,9.99999e-01
6.266218716e-01,3.72080e-01,9.99999e-01,9.99999e-01,9.99657e-01,3.72208e-01,9.99999e-01
6.297549810e-01,3.79497e-01,9.99999e-01,9.99999e-01,9.99874e-01,3.79545e-01,9.99999e-01
6.329037559e-01,3.86782e-01,9.99999e-01,9.99999e-01,9.99752e-01,3.86878e-01,9.99999e-01
6.360682746e-01,3.94120e-01,9.99999e-01,9.99999e-01,9.99788e-01,3.94203e-01,9.99999e-01
6.392486160e-01,4.01409e-01,9.99999e-01,9.99999e-01,9.99726e-01,4.01519e-01,9.99999e-01
6.424448591e-01,4.08671e-01,9.99999e-01,9.99999e-01,9.99630e-01,4.08821e-01,9.99999e-01
6.456570834e-01,4.15397e-01,9.99999e-01,9.99999e-01,9.98288e-01,4.16109e-01,9.99999e-01
6.488853688e-01,4.22853e-01,9.99999e-01,9.99999e-01,9.98760e-01,4.23378e-01,9.99999e-01
6.521297956e-01,4.30083e-01,9.99999e-01,9.99999e-01,9.98736e-01,4.30627e-01,9.99999e-01
6.553904446e-01,4.37301e-01,9.99999e-01,9.99999e-01,9.98736e-01,4.37853e-01,9.99999e-01
6.586673968e-01,4.44575e-01,9.99999e-01,9.99999e-01,9.98922e-01,4.45055e-01,9.99999e-01
6.619607338e-01,4.51957e-01,9.99999e-01,9.99999e-01,9.99399e-01,4.52229e-01,9.99999e-01
6.652705375e-01,4.59208e-01,9.99999e-01,9.99999e-01,9.99639e-01,4.59373e-01,9.99999e-01
6.685968902e-01,4.66415e-01,9.99999e-01,9.99999e-01,9.99846e-01,4.66486e-01,9.99999e-01
6.719398746e-01,4.73529e-01,9.99999e-01,9.99999e-01,9.99922e-01,4.73565e-01,9.99999e-01
6.752995740e-01,4.80589e-01,9.99999e-01,9.99999e-01,9.99958e-01,4.80609e-01,9.99999e-01
6.786760719e-01,4.87586e-01,9.99999e-01,9.99999e-01,9.99938e-01,4.87615e-01,9.99999e-01
6.820694522e-01,4.94530e-01,9.99999e-01,9.99999e-01,9.99894e-01,4.94582e-01,9.99999e-01
6.854797995e-01,5.01441e-01,9.99999e-01,9.99999e-01,9.99864e-01,5.01508e-01,9.99999e-01
6.889071985e-01,5.08224e-01,9.99999e-01,9.99999e-01,9.99668e-01,5.08392e-01,9.99999e-01
6.923517345e-01,5.12477e-01,9.99999e-01,9.99999e-01,9.94654e-01,5.15231e-01,9.99999e-01
6.958134932e-01,5.20601e-01,9.99999e-01,9.99999e-01,9.97274e-01,5.22024e-01,9.99999e-01
6.992925606e-01,5.27373e-01,9.99999e-01,9.99999e-01,9.97358e-01,5.28770e-01,9.99999e-01
7.027890234e-01,5.33735e-01,9.99999e-01,9.99999e-01,9.96765e-01,5.35467e-01,9.99999e-01
7.063029686e-01,5.40639e-01,9.99999e-01,9.99999e-01,9.97278e-01,5.42115e-01,9.99999e-01
7.098344834e-01,5.47278e-01,9.99999e-01,9.99999e-01,9.97388e-01,5.48711e-01,9.99999e-01
7.133836558e-01,5.53297e-01,9.99999e-01,9.99999e-01,9.96475e-01,5.55254e-01,9.99999e-01
7.169505741e-01,5.46037e-01,9.99999e-01,9.99999e-01,9.72038e-01,5.61745e-01,9.99999e-01
7.205353270e-01,5.60504e-01,9.99999e-01,9.99999e-01,9.86489e-01,5.68180e-01,9.99999e-01
7.241380036e-01,5.64565e-01,9.99999e-01,9.99999e-01,9.82603e-01,5.74560e-01,9.99999e-01
7.277586936e-01,5.71766e-01,9.99999e-01,9.99999e-01,9.84302e-01,5.80884e-01,9.99999e-01
7.313974871e-01,5.77427e-01,9.99999e-01,9.99999e-01,9.83439e-01,5.87150e-01,9.99999e-01
7.350544745e-01,5.87966e-01,9.99999e-01,9.99999e-01,9.90912e-01,5.93358e-01,9.99999e-01
7.387297469e-01,5.95500e-01,9.99999e-01,9.99999e-01,9.93314e-01,5.99507e-01,9.99999e-01
7.424233956e-01,6.03618e-01,9.99999e-01,9.99999e-01,9.96732e-01,6.05597e-01,9.99999e-01
7.461355126e-01,6.10413e-01,9.99999e-01,9.99999e-01,9.98016e-01,6.11626e-01,9.99999e-01
7.498661902e-01,6.17026e-01,9.99999e-01,9.99999e-01,9.99078e-01,6.17594e-01,9.99999e-01
7.536155211e-01,6.23219e-01,9.99999e-01,9.99999e-01,9.99546e-01,6.23502e-01,9.99999e-01
7.573835987e-01,6.29200e-01,9.99999e-01,9.99999e-01,9.99766e-01,6.29347e-01,9.99999e-01
7.611705167e-01,6.35038e-01,9.99999e-01,9.99999e-01,9.99854e-01,6.35130e-01,9.99999e-01
7.649763693e-01,6.40792e-01,9.99999e-01,9.99999e-01,9.99908e-01,6.40850e-01,9.99999e-01
7.688012511e-01,6.46466e-01,9.99999e-01,9.99999e-01,9.99936e-01,6.46507e-01,9.99999e-01
7.726452574e-01,6.52067e-01,9.99999e-01,9.99999e-01,9.99947e-01,6.52101e-01,9.99999e-01
7.765084837e-01,6.57583e-01,9.99999e-01,9.99999e-01,9.99924e-01,6.57632e-01,9.99999e-01
7.803910261e-01,6.48867e-01,9.99999e-01,9.78848e-01,9.99676e-01,6.63098e-01,9.99999e-01
7.842929812e-01,6.11811e-01,9.99999e-01,9.16203e-01,9.98869e-01,6.68501e-01,9.99999e-01
7.882144461e-01,6.11596e-01,9.99999e-01,9.09676e-01,9.97692e-01,6.73840e-01,9.99999e-01
7.921555184e-01,6.42275e-01,9.99999e-01,9.46928e-01,9.98740e-01,6.79115e-01,9.99999e-01
7.961162960e-01,6.58570e-01,9.99999e-01,9.64522e-01,9.97749e-01,6.84326e-01,9.99999e-01
8.000968774e-01,6.74338e-01,9.99999e-01,9.80578e-01,9.97416e-01,6.89472e-01,9.99999e-01
8.040973618e-01,6.85789e-01,9.99999e-01,9.89937e-01,9.97411e-01,6.94555e-01,9.99999e-01
8.081178486e-01,6.92239e-01,9.99999e-01,9.95351e-01,9.94131e-01,6.99573e-01,9.99999e-01
8.121584379e-01,6.86469e-01,9.99999e-01,9.98577e-01,9.75747e-01,7.04528e-01,9.99999e-01
8.162192301e-01,6.89008e-01,9.99999e-01,9.99685e-01,9.71530e-01,7.09418e-01,9.99999e-01
8.203003262e-01,7.03809e-01,9.99999e-01,9.99995e-01,9.85392e-01,7.14246e-01,9.99999e-01
8.244018279e-01,7.04706e-01,9.99999e-01,9.99999e-01,9.80107e-01,7.19009e-01,9.99999e-01
8.285238370e-01,7.11287e-01,9.99999e-01,9.99999e-01,9.82835e-01,7.23709e-01,9.99999e-01
8.326664562e-01,7.15755e-01,9.99999e-01,9.99999e-01,9.82711e-01,7.28347e-01,9.99999e-01
8.368297885e-01,7.23881e-01,9.99999e-01,9.99999e-01,9.87664e-01,7.32921e-01,9.99999e-01
8.410139374e-01,7.32022e-01,9.99999e-01,9.99999e-01,9.92660e-01,7.37433e-01,9.99999e-01
8.452190071e-01,7.39214e-01,9.99999e-01,9.99999e-01,9.96401e-01,7.41883e-01,9.99999e-01
8.494451021e-01,7.44707e-01,9.99999e-01,9.99999e-01,9.97903e-01,7.46271e-01,9.99999e-01
8.536923276e-01,7.49671e-01,9.99999e-01,9.99999e-01,9.98764e-01,7.50598e-01,9.99999e-01
8.579607893e-01,7.54287e-01,9.99999e-01,9.99999e-01,9.99236e-01,7.54863e-01,9.99999e-01
8.622505932e-01,7.58701e-01,9.99999e-01,9.99999e-01,9.99515e-01,7.59068e-01,9.99999e-01
8.665618462e-01,7.22028e-01,9.99999e-01,9.46313e-01,9.99699e-01,7.63213e-01,9.99999e-01
8.708946554e-01,6.11752e-01,9.99999e-01,7.97550e-01,9.99655e-01,7.67297e-01,9.99999e-01
8.752491287e-01,6.44199e-01,9.99999e-01,8.35565e-01,9.99539e-01,7.71322e-01,9.99999e-01
8.796253743e-01,7.02666e-01,9.99999e-01,9.06898e-01,9.99359e-01,7.75288e-01,9.99999e-01
8.840235012e-01,7.40314e-01,9.99999e-01,9.50788e-01,9.99269e-01,7.79196e-01,9.99999e-01
8.884436187e-01,7.65644e-01,9.99999e-01,9.80423e-01,9.97285e-01,7.83045e-01,9.99999e-01
8.928858368e-01,7.58740e-01,9.99999e-01,9.92013e-01,9.72015e-01,7.86837e-01,9.99999e-01
8.973502660e-01,7.50710e-01,9.99999e-01,9.98066e-01,9.51396e-01,7.90572e-01,9.99998e-01
9.018370173e-01,7.74298e-01,9.99999e-01,9.99787e-01,9.75083e-01,7.94250e-01,9.99998e-01
9.063462024e-01,7.75746e-01,9.99999e-01,9.94336e-01,9.77707e-01,7.97872e-01,9.99998e-01
9.108779334e-01,7.64190e-01,9.99999e-01,9.87388e-01,9.65614e-01,8.01439e-01,9.99998e-01
9.154323231e-01,7.71421e-01,9.99999e-01,9.97058e-01,9.61137e-01,8.04950e-01,9.99998e-01
9.200094847e-01,7.49716e-01,9.99999e-01,9.55654e-01,9.69486e-01,8.08408e-01,9.99998e-01
9.246095321e-01,7.26094e-01,9.99999e-01,9.39621e-01,9.51218e-01,8.11811e-01,9.99997e-01
9.292325798e-01,5.58150e-01,9.99999e-01,9.51659e-01,7.17047e-01,8.15161e-01,9.99994e-01
9.338787427e-01,5.11264e-01,9.99999e-01,9.53840e-01,6.52792e-01,8.18458e-01,9.99993e-01
9.385481364e-01,6.69649e-01,9.99999e-01,9.65913e-01,8.42682e-01,8.21703e-01,9.99993e-01
9.432408771e-01,6.33915e-01,9.99999e-01,9.79071e-01,7.84333e-01,8.24897e-01,9.99992e-01
9.479570815e-01,5.84149e-01,9.99999e-01,9.89189e-01,7.12894e-01,8.28039e-01,9.99993e-01
9.526968669e-01,6.44966e-01,9.99999e-01,9.94784e-01,7.79850e-01,8.31131e-01,9.99995e-01
9.574603512e-01,6.64071e-01,9.99999e-01,9.97769e-01,7.97793e-01,8.34173e-01,9.99996e-01
9.622476530e-01,6.96950e-01,9.99999e-01,9.99304e-01,8.33071e-01,8.37166e-01,9.99997e-01
9.670588912e-01,7.56034e-01,9.99999e-01,9.99791e-01,9.00104e-01,8.40110e-01,9.99998e-01
9.718941857e-01,7.89475e-01,9.99999e-01,9.99985e-01,9.36512e-01,8.43006e-01,9.99998e-01
9.767536566e-01,8.01034e-01,9.99999e-01,9.99999e-01,9.47011e-01,8.45855e-01,9.99998e-01
9.816374249e-01,8.15215e-01,9.99999e-01,9.99999e-01,9.60594e-01,8.48657e-01,9.99999e-01
9.865456120e-01,8.30315e-01,9.99999e-01,9.99999e-01,9.75220e-01,8.51412e-01,9.99999e-01
9.914783401e-01,8.40978e-01,9.99999e-01,9.99999e-01,9.84611e-01,8.54121e-01,9.99999e-01
9.964357318e-01,8.49584e-01,9.99999e-01,9.99999e-01,9.91594e-01,8.56786e-01,9.99999e-01
1.001417910e+00,8.55073e-01,9.99999e-01,9.99999e-01,9.94957e-01,8.59406e-01,9.99999e-01
1.006425000e+00,8.59497e-01,9.99999e-01,9.99999e-01,9.97117e-01,8.61981e-01,9.99999e-01
1.011457125e+00,8.62971e-01,9.99999e-01,9.99999e-01,9.98214e-01,8.64514e-01,9.99999e-01
1.016514411e+00,8.65951e-01,9.99999e-01,9.99999e-01,9.98785e-01,8.67004e-01,9.99999e-01
1.021596983e+00,8.68580e-01,9.99999e-01,9.99965e-01,9.99031e-01,8.69451e-01,9.99999e-01
1.026704968e+00,8.69270e-01,9.99999e-01,9.97785e-01,9.99244e-01,8.71857e-01,9.99999e-01
1.031838492e+00,8.45080e-01,9.99999e-01,9.67181e-01,9.99451e-01,8.74222e-01,9.99999e-01
1.036997685e+00,2.17022e-01,9.99999e-01,2.47654e-01,9.99673e-01,8.76546e-01,9.99999e-01
1.042182673e+00,2.48814e-01,9.99999e-01,2.83222e-01,9.99609e-01,8.78830e-01,9.99999e-01
1.047393587e+00,2.37376e-01,9.99999e-01,2.69541e-01,9.99483e-01,8.81075e-01,9.99999e-01
1.052630555e+00,2.61886e-02,9.99999e-01,2.96657e-02,9.99289e-01,8.83281e-01,9.99999e-01
1.057893707e+00,5.31211e-02,9.99999e-01,6.00477e-02,9.98813e-01,8.85449e-01,9.99999e-01
1.063183176e+00,1.14318e-01,9.99999e-01,1.28996e-01,9.98049e-01,8.87580e-01,9.99999e-01
1.068499092e+00,2.22513e-01,9.99999e-01,2.50839e-01,9.96739e-01,8.89673e-01,9.99999e-01
1.073841587e+00,3.72701e-01,9.99999e-01,4.19397e-01,9.96175e-01,8.91730e-01,9.99999e-01
1.079210795e+00,5.13779e-01,9.99999e-01,5.77526e-01,9.95118e-01,8.93750e-01,9.99999e-01
1.084606849e+00,6.59080e-01,9.99999e-01,7.41129e-01,9.92603e-01,8.95736e-01,9.99999e-01
1.090029883e+00,7.60445e-01,9.99999e-01,8.56114e-01,9.89319e-01,8.97686e-01,9.99999e-01
1.095480033e+00,8.09622e-01,9.99999e-01,9.26483e-01,9.71213e-01,8.99602e-01,9.99998e-01
1.100957433e+00,8.06861e-01,9.99999e-01,9.63904e-01,9.28347e-01,9.01484e-01,9.99998e-01
1.106462220e+00,7.35635e-01,9.99999e-01,9.84943e-01,8.26534e-01,9.03332e-01,9.99996e-01
1.111994531e+00,6.03436e-01,9.99999e-01,9.94393e-01,6.70266e-01,9.05148e-01,9.99994e-01
1.117554504e+00,4.73299e-01,9.99999e-01,9.98635e-01,5.22501e-01,9.06932e-01,9.99991e-01
1.123142276e+00,5.61455e-01,9.99999e-01,9.99910e-01,6.17918e-01,9.08683e-01,9.99990e-01
1.128757988e+00,6.69909e-01,9.99999e-01,9.99999e-01,7.35844e-01,9.10404e-01,9.99989e-01
1.134401778e+00,4.48872e-01,9.99999e-01,9.99999e-01,4.92139e-01,9.12093e-01,9.99988e-01
1.140073787e+00,7.62059e-01,9.99999e-01,9.99999e-01,8.33995e-01,9.13752e-01,9.99990e-01
1.145774156e+00,6.25870e-01,9.99999e-01,9.99999e-01,6.83730e-01,9.15382e-01,9.99991e-01
1.151503026e+00,5.98930e-01,9.99999e-01,9.99999e-01,6.53157e-01,9.16982e-01,9.99992e-01
1.157260541e+00,6.46915e-01,9.99999e-01,9.99999e-01,7.04279e-01,9.18553e-01,9.99994e-01
1.163046844e+00,7.10853e-01,9.99999e-01,9.99999e-01,7.72588e-01,9.20096e-01,9.99996e-01
1.168862078e+00,7.71021e-01,9.99999e-01,9.99999e-01,8.36602e-01,9.21610e-01,9.99997e-01
1.174706389e+00,8.26865e-01,9.99999e-01,9.99999e-01,8.95750e-01,9.23098e-01,9.99998e-01
1.180579921e+00,8.64683e-01,9.99999e-01,9.99999e-01,9.35239e-01,9.24558e-01,9.99998e-01
1.186482820e+00,8.91625e-01,9.99999e-01,9.99994e-01,9.62891e-01,9.25991e-01,9.99999e-01
1.192415234e+00,8.99963e-01,9.99999e-01,9.92022e-01,9.78168e-01,9.27399e-01,9.99999e-01
1.198377311e+00,5.27485e-01,9.99999e-01,5.76873e-01,9.81535e-01,9.28780e-01,9.99999e-01
1.204369197e+00,2.04378e-07,9.99999e-01,2.21975e-07,9.82525e-01,9.30137e-01,9.99999e-01
1.210391043e+00,1.96722e-24,9.99999e-01,2.13179e-24,9.83292e-01,9.31468e-01,9.99999e-01
1.216442998e+00,2.17932e-21,9.99999e-01,2.35718e-21,9.85799e-01,9.32776e-01,9.99999e-01
1.222525213e+00,4.38218e-21,9.99999e-01,4.71873e-21,9.88923e-01,9.34059e-01,9.99999e-01
1.228637839e+00,2.90142e-16,9.99999e-01,3.11910e-16,9.92292e-01,9.35318e-01,9.99999e-01
