#,Wave/freq,Total,O2,CO2,H2O,Rayleigh,CIA
4.000000000e-01,3.82205e-03,9.99999e-01,9.99999e-01,9.99988e-01,3.82209e-03,9.99999e-01
4.020000000e-01,4.26680e-03,9.99999e-01,9.99999e-01,9.99992e-01,4.26683e-03,9.99999e-01
4.040100000e-01,4.75243e-03,9.99999e-01,9.99999e-01,9.99996e-01,4.75244e-03,9.99999e-01
4.060300500e-01,5.28206e-03,9.99999e-01,9.99999e-01,9.99998e-01,5.28206e-03,9.99999e-01
4.080602003e-01,5.85846e-03,9.99999e-01,9.99999e-01,9.99999e-01,5.85846e-03,9.99999e-01
4.101005013e-01,6.48449e-03,9.99999e-01,9.99999e-01,9.99999e-01,6.48449e-03,9.99999e-01
4.121510038e-01,7.16302e-03,9.99999e-01,9.99999e-01,9.99999e-01,7.16302e-03,9.99999e-01
4.142117588e-01,7.89700e-03,9.99999e-01,9.99999e-01,9.99996e-01,7.89703e-03,9.99999e-01
4.162828176e-01,8.68936e-03,9.99999e-01,9.99999e-01,9.99986e-01,8.68948e-03,9.99999e-01
4.183642317e-01,9.54334e-03,9.99999e-01,9.99999e-01,9.99991e-01,9.54342e-03,9.99999e-01
4.204560528e-01,1.04618e-02,9.99999e-01,9.99999e-01,9.99994e-01,1.04619e-02,9.99999e-01
4.225583331e-01,1.14479e-02,9.99999e-01,9.99999e-01,9.99997e-01,1.14479e-02,9.99999e-01
4.246711247e-01,1.25047e-02,9.99999e-01,9.99999e-01,9.99998e-01,1.25047e-02,9.99999e-01
4.267944804e-01,1.36351e-02,9.99999e-01,9.99999e-01,9.99997e-01,1.36351e-02,9.99999e-01
4.289284528e-01,1.48424e-02,9.99999e-01,9.99999e-01,9.99997e-01,1.48424e-02,9.99999e-01
4.310730950e-01,1.61295e-02,9.99999e-01,9.99999e-01,9.99998e-01,1.61295e-02,9.99999e-01
4.332284605e-01,1.74995e-02,9.99999e-01,9.99999e-01,9.99999e-01,1.74995e-02,9.99999e-01
4.353946028e-01,1.89553e-02,9.99999e-01,9.99999e-01,9.99999e-01,1.89553e-02,9.99999e-01
4.375715758e-01,2.04998e-02,9.99999e-01,9.99999e-01,9.99998e-01,2.04998e-02,9.99999e-01
4.397594337e-01,2.21356e-02,9.99999e-01,9.99999e-01,9.99987e-01,2.21359e-02,9.99999e-01
4.419582309e-01,2.38649e-02,9.99999e-01,9.99999e-01,9.99939e-01,2.38663e-02,9.99999e-01
4.441680220e-01,2.56926e-02,9.99999e-01,9.99999e-01,9.99952e-01,2.56938e-02,9.99999e-01
4.463888621e-01,2.76196e-02,9.99999e-01,9.99999e-01,9.99950e-01,2.76209e-02,9.99999e-01
4.486208064e-01,2.96493e-02,9.99999e-01,9.99999e-01,9.99969e-01,2.96502e-02,9.99999e-01
4.508639105e-01,3.17835e-02,9.99999e-01,9.99999e-01,9.99985e-01,3.17840e-02,9.99999e-01
4.531182300e-01,3.40245e-02,9.99999e-01,9.99999e-01,9.99993e-01,3.40246e-02,9.99999e-01
4.553838212e-01,3.63741e-02,9.99999e-01,9.99999e-01,9.99995e-01,3.63743e-02,9.99999e-01
4.576607403e-01,3.88348e-02,9.99999e-01,9.99999e-01,9.99997e-01,3.88349e-02,9.99999e-01
4.599490440e-01,4.14084e-02,9.99999e-01,9.99999e-01,9.99998e-01,4.14084e-02,9.99999e-01
4.622487892e-01,4.40965e-02,9.99999e-01,9.99999e-01,9.99999e-01,4.40965e-02,9.99999e-01
4.645600332e-01,4.69008e-02,9.99999e-01,9.99999e-01,9.99998e-01,4.69009e-02,9.99999e-01
4.668828333e-01,4.98221e-02,9.99999e-01,9.99999e-01,9.99985e-01,4.98228e-02,9.99999e-01
4.692172475e-01,5.28620e-02,9.99999e-01,9.99999e-01,9.99968e-01,5.28637e-02,9.99999e-01
4.715633337e-01,5.60234e-02,9.99999e-01,9.99999e-01,9.99979e-01,5.60245e-02,9.99999e-01
4.739211504e-01,5.93051e-02,9.99999e-01,9.99999e-01,9.99980e-01,5.93063e-02,9.99999e-01
4.762907561e-01,6.27091e-02,9.99999e-01,9.99999e-01,9.99989e-01,6.27097e-02,9.99999e-01
4.786722099e-01,6.62352e-02,9.99999e-01,9.99999e-01,9.99995e-01,6.62355e-02,9.99999e-01
4.810655710e-01,6.98838e-02,9.99999e-01,9.99999e-01,9.99998e-01,6.98839e-02,9.99999e-01
4.834708988e-01,7.36543e-02,9.99999e-01,9.99999e-01,9.99987e-01,7.36552e-02,9.99999e-01
4.858882533e-01,7.75478e-02,9.99999e-01,9.99999e-01,9.99977e-01,7.75495e-02,9.99999e-01
4.883176946e-01,8.15651e-02,9.99999e-01,9.99999e-01,9.99981e-01,8.15666e-02,9.99999e-01
4.907592831e-01,8.57049e-02,9.99999e-01,9.99999e-01,9.99983e-01,8.57063e-02,9.99999e-01
4.932130795e-01,8.99670e-02,9.99999e-01,9.99999e-01,9.99987e-01,8.99681e-02,9.99999e-01
4.956791449e-01,9.43507e-02,9.99999e-01,9.99999e-01,9.99993e-01,9.43513e-02,9.99999e-01
4.981575406e-01,9.88520e-02,9.99999e-01,9.99999e-01,9.99968e-01,9.88551e-02,9.99999e-01
5.006483283e-01,1.03470e-01,9.99999e-01,9.99999e-01,9.99919e-01,1.03479e-01,9.99999e-01
5.031515699e-01,1.08177e-01,9.99999e-01,9.99999e-01,9.99594e-01,1.08220e-01,9.99999e-01
5.056673278e-01,1.13055e-01,9.99999e-01,9.99999e-01,9.99785e-01,1.13080e-01,9.99999e-01
5.081956644e-01,1.18023e-01,9.99999e-01,9.99999e-01,9.99729e-01,1.18054e-01,9.99999e-01
5.107366428e-01,1.23121e-01,9.99999e-01,9.99999e-01,9.99817e-01,1.23143e-01,9.99999e-01
5.132903260e-01,1.28331e-01,9.99999e-01,9.99999e-01,9.99895e-01,1.28345e-01,9.99999e-01
5.158567776e-01,1.33650e-01,9.99999e-01,9.99999e-01,9.99955e-01,1.33656e-01,9.99999e-01
5.184360615e-01,1.39074e-01,9.99999e-01,9.99999e-01,9.99981e-01,1.39076e-01,9.99999e-01
5.210282418e-01,1.44602e-01,9.99999e-01,9.99999e-01,9.99992e-01,1.44603e-01,9.99999e-01
5.236333830e-01,1.50229e-01,9.99999e-01,9.99999e-01,9.99973e-01,1.50233e-01,9.99999e-01
5.262515499e-01,1.55962e-01,9.99999e-01,9.99999e-01,9.99982e-01,1.55964e-01,9.99999e-01
5.288828077e-01,1.61793e-01,9.99999e-01,9.99999e-01,9.99984e-01,1.61795e-01,9.99999e-01
5.315272217e-01,1.67720e-01,9.99999e-01,9.99999e-01,9.99986e-01,1.67722e-01,9.99999e-01
5.341848578e-01,1.73741e-01,9.99999e-01,9.99999e-01,9.99990e-01,1.73743e-01,9.99999e-01
5.368557821e-01,1.79848e-01,9.99999e-01,9.99999e-01,9.99968e-01,1.79854e-01,9.99999e-01
5.395400610e-01,1.86033e-01,9.99999e-01,9.99999e-01,9.99888e-01,1.86053e-01,9.99999e-01
5.422377613e-01,1.92310e-01,9.99999e-01,9.99999e-01,9.99856e-01,1.92337e-01,9.99999e-01
5.449489501e-01,1.98677e-01,9.99999e-01,9.99999e-01,9.99866e-01,1.98703e-01,9.99999e-01
5.476736949e-01,2.05124e-01,9.99999e-01,9.99999e-01,9.99881e-01,2.05148e-01,9.99999e-01
5.504120634e-01,2.11650e-01,9.99999e-01,9.99999e-01,9.99913e-01,2.11668e-01,9.99999e-01
5.531641237e-01,2.18251e-01,9.99999e-01,9.99999e-01,9.99956e-01,2.18261e-01,9.99999e-01
5.559299443e-01,2.24918e-01,9.99999e-01,9.99999e-01,9.99978e-01,2.24922e-01,9.99999e-01
5.587095940e-01,2.31647e-01,9.99999e-01,9.99999e-01,9.99986e-01,2.31650e-01,9.99999e-01
5.615031420e-01,2.38436e-01,9.99999e-01,9.99999e-01,9.99984e-01,2.38439e-01,9.99999e-01
5.643106577e-01,2.45284e-01,9.99999e-01,9.99999e-01,9.99983e-01,2.45288e-01,9.99999e-01
5.671322110e-01,2.52141e-01,9.99999e-01,9.99999e-01,9.99798e-01,2.52192e-01,9.99999e-01
5.699678720e-01,2.59093e-01,9.99999e-01,9.99999e-01,9.99786e-01,2.59148e-01,9.99999e-01
5.728177114e-01,2.66095e-01,9.99999e-01,9.99999e-01,9.99777e-01,2.66154e-01,9.99999e-01
5.756818000e-01,2.73149e-01,9.99999e-01,9.99999e-01,9.99795e-01,2.73204e-01,9.99999e-01
5.785602090e-01,2.80247e-01,9.99999e-01,9.99999e-01,9.99822e-01,2.80297e-01,9.99999e-01
5.814530100e-01,2.87377e-01,9.99999e-01,9.99999e-01,9.99821e-01,2.87428e-01,9.99999e-01
5.843602750e-01,2.94532e-01,9.99999e-01,9.99999e-01,9.99786e-01,2.94595e-01,9.99999e-01
5.872820764e-01,3.01239e-01,9.99999e-01,9.99999e-01,9.98164e-01,3.01793e-01,9.99999e-01
5.902184868e-01,3.08334e-01,9.99999e-01,9.99999e-01,9.97780e-01,3.09019e-01,9.99999e-01
5.931695792e-01,3.15775e-01,9.99999e-01,9.99999e-01,9.98430e-01,3.16271e-01,9.99999e-01
5.961354271e-01,3.22989e-01,9.99999e-01,9.99999e-01,9.98280e-01,3.23545e-01,9.99999e-01
5.991161043e-01,3.30423e-01,9.99999e-01,9.99999e-01,9.98746e-01,3.30838e-01,9.99999e-01
6.021116848e-01,3.37905e-01,9.99999e-01,9.99999e-01,9.99288e-01,3.38146e-01,9.99999e-01
6.051222432e-01,3.45341e-01,9.99999e-01,9.99999e-01,9.99639e-01,3.45466e-01,9.99999e-01
6.081478544e-01,3.52740e-01,9.99999e-01,9.99999e-01,9.99844e-01,3.52795e-01,9.99999e-01
6.111885937e-01,3.60107e-01,9.99999e-01,9.99999e-01,9.99933e-01,3.60131e-01,9.99999e-01
6.142445367e-01,3.67459e-01,9.99999e-01,9.99999e-01,9.99970e-01,3.67469e-01,9.99999e-01
6.173157594e-01,3.74802e-01,9.99999e-01,9.99999e-01,9.99983e-01,3.74808e-01,9.99999e-01
6.204023382e-01,3.82139e-01,9.99999e-01,9.99999e-01,9.99985e-01,3.82144e-01,9.99999e-01
6.235043498e-01,3.89451e-01,9.99999e-01,9.99999e-01,9.99939e-01,3.89475e-01,9.99999e-01
6.266218716e-01,3.96670e-01,9.99999e-01,9.99999e-01,9.99680e-01,3.96797e-01,9.99999e-01
6.297549810e-01,4.04061e-01,9.99999e-01,9.99999e-01,9.99882e-01,4.04108e-01,9.99999e-01
6.329037559e-01,4.11311e-01,9.99999e-01,9.99999e-01,9.99768e-01,4.11406e-01,9.99999e-01
6.360682746e-01,4.18605e-01,9.99999e-01,9.99999e-01,9.99802e-01,4.18687e-01,9.99999e-01
6.392486160e-01,4.25841e-01,9.99999e-01,9.99999e-01,9.99744e-01,4.25950e-01,9.99999e-01
6.424448591e-01,4.33043e-01,9.99999e-01,9.99999e-01,9.99657e-01,4.33191e-01,9.99999e-01
6.456570834e-01,4.39708e-01,9.99999e-01,9.99999e-01,9.98409e-01,4.40409e-01,9.99999e-01
6.488853688e-01,4.47080e-01,9.99999e-01,9.99999e-01,9.98837e-01,4.47600e-01,9.99999e-01
6.521297956e-01,4.54225e-01,9.99999e-01,9.99999e-01,9.98814e-01,4.54764e-01,9.99999e-01
6.553904446e-01,4.61353e-01,9.99999e-01,9.99999e-01,9.98820e-01,4.61898e-01,9.99999e-01
6.586673968e-01,4.68525e-01,9.99999e-01,9.99999e-01,9.98989e-01,4.68999e-01,9.99999e-01
6.619607338e-01,4.75798e-01,9.99999e-01,9.99999e-01,9.99437e-01,4.76066e-01,9.99999e-01
6.652705375e-01,4.82933e-01,9.99999e-01,9.99999e-01,9.99661e-01,4.83096e-01,9.99999e-01
6.685968902e-01,4.90012e-01,9.99999e-01,9.99999e-01,9.99842e-01,4.90089e-01,9.99999e-01
6.719398746e-01,4.97006e-01,9.99999e-01,9.99999e-01,9.99926e-01,4.97042e-01,9.99999e-01
6.752995740e-01,5.03933e-01,9.99999e-01,9.99999e-01,9.99960e-01,5.03953e-01,9.99999e-01
6.786760719e-01,5.10791e-01,9.99999e-01,9.99999e-01,9.99942e-01,5.10820e-01,9.99999e-01
6.820694522e-01,5.17593e-01,9.99999e-01,9.99999e-01,9.99902e-01,5.17643e-01,9.99999e-01
6.854797995e-01,5.24354e-01,9.99999e-01,9.99999e-01,9.99873e-01,5.24420e-01,9.99999e-01
6.889071985e-01,5.30987e-01,9.99999e-01,9.99999e-01,9.99694e-01,5.31149e-01,9.99999e-01
6.923517345e-01,5.35155e-01,9.99999e-01,9.99999e-01,9.95027e-01,5.37829e-01,9.99999e-01
6.958134932e-01,5.43054e-01,9.99999e-01,9.99999e-01,9.97420e-01,5.44458e-01,9.99999e-01
6.992925606e-01,5.49682e-01,9.99999e-01,9.99999e-01,9.97542e-01,5.51036e-01,9.99999e-01
7.027890234e-01,5.55871e-01,9.99999e-01,9.99999e-01,9.96970e-01,5.57561e-01,9.99999e-01
7.063029686e-01,5.62595e-01,9.99999e-01,9.99999e-01,9.97452e-01,5.64032e-01,9.99999e-01
7.098344834e-01,5.69054e-01,9.99999e-01,9.99999e-01,9.97555e-01,5.70448e-01,9.99999e-01
7.133836558e-01,5.74924e-01,9.99999e-01,9.99999e-01,9.96734e-01,5.76808e-01,9.99999e-01
7.169505741e-01,5.67912e-01,9.99999e-01,9.99999e-01,9.73934e-01,5.83111e-01,9.99999e-01
7.205353270e-01,5.81823e-01,9.99999e-01,9.99999e-01,9.87216e-01,5.89357e-01,9.99999e-01
7.241380036e-01,5.85871e-01,9.99999e-01,9.99999e-01,9.83757e-01,5.95544e-01,9.99999e-01
7.277586936e-01,5.92848e-01,9.99999e-01,9.99999e-01,9.85333e-01,6.01672e-01,9.99999e-01
7.313974871e-01,5.98286e-01,9.99999e-01,9.99999e-01,9.84442e-01,6.07740e-01,9.99999e-01
7.350544745e-01,6.08518e-01,9.99999e-01,9.99999e-01,9.91478e-01,6.13748e-01,9.99999e-01
7.387297469e-01,6.15808e-01,9.99999e-01,9.99999e-01,9.93727e-01,6.19695e-01,9.99999e-01
7.424233956e-01,6.23659e-01,9.99999e-01,9.99999e-01,9.96929e-01,6.25580e-01,9.99999e-01
7.461355126e-01,6.30228e-01,9.99999e-01,9.99999e-01,9.98138e-01,6.31403e-01,9.99999e-01
7.498661902e-01,6.36612e-01,9.99999e-01,9.99999e-01,9.99133e-01,6.37164e-01,9.99999e-01
7.536155211e-01,6.42589e-01,9.99999e-01,9.99999e-01,9.99574e-01,6.42862e-01,9.99999e-01
7.573835987e-01,6.48355e-01,9.99999e-01,9.99999e-01,9.99780e-01,6.48497e-01,9.99999e-01
7.611705167e-01,6.53980e-01,9.99999e-01,9.99999e-01,9.99863e-01,6.54068e-01,9.99999e-01
7.649763693e-01,6.59520e-01,9.99999e-01,9.99999e-01,9.99914e-01,6.59576e-01,9.99999e-01
7.688012511e-01,6.64981e-01,9.99999e-01,9.99999e-01,9.99940e-01,6.65020e-01,9.99999e-01
7.726452574e-01,6.70368e-01,9.99999e-01,9.99999e-01,9.99950e-01,6.70401e-01,9.99999e-01
7.765084837e-01,6.75670e-01,9.99999e-01,9.99999e-01,9.99930e-01,6.75717e-01,9.99999e-01
7.803910261e-01,6.67702e-01,9.99999e-01,9.80806e-01,9.99699e-01,6.80969e-01,9.99999e-01
7.842929812e-01,6.31280e-01,9.99999e-01,9.20961e-01,9.98950e-01,6.86157e-01,9.99999e-01
7.882144461e-01,6.31352e-01,9.99999e-01,9.15238e-01,9.97841e-01,6.91281e-01,9.99999e-01
7.921555184e-01,6.60988e-01,9.99999e-01,9.50339e-01,9.98817e-01,6.96341e-01,9.99999e-01
7.961162960e-01,6.76510e-01,9.99999e-01,9.66614e-01,9.97905e-01,7.01336e-01,9.99999e-01
8.000968774e-01,6.91718e-01,9.99999e-01,9.81765e-01,9.97584e-01,7.06268e-01,9.99999e-01
8.040973618e-01,7.02699e-01,9.99999e-01,9.90526e-01,9.97582e-01,7.11136e-01,9.99999e-01
8.081178486e-01,7.08934e-01,9.99999e-01,9.95637e-01,9.94546e-01,7.15941e-01,9.99999e-01
8.121584379e-01,7.03459e-01,9.99999e-01,9.98653e-01,9.77410e-01,7.20682e-01,9.99999e-01
8.162192301e-01,7.05755e-01,9.99999e-01,9.99702e-01,9.73258e-01,7.25360e-01,9.99999e-01
8.203003262e-01,7.20106e-01,9.99999e-01,9.99995e-01,9.86484e-01,7.29975e-01,9.99999e-01
8.244018279e-01,7.20710e-01,9.99999e-01,9.99999e-01,9.81188e-01,7.34527e-01,9.99999e-01
8.285238370e-01,7.27170e-01,9.99999e-01,9.99999e-01,9.83968e-01,7.39017e-01,9.99999e-01
8.326664562e-01,7.31400e-01,9.99999e-01,9.99999e-01,9.83797e-01,7.43445e-01,9.99999e-01
8.368297885e-01,7.39155e-01,9.99999e-01,9.99999e-01,9.88424e-01,7.47812e-01,9.99999e-01
8.410139374e-01,7.46936e-01,9.99999e-01,9.99999e-01,9.93111e-01,7.52117e-01,9.99999e-01
8.452190071e-01,7.53804e-01,9.99999e-01,9.99999e-01,9.96619e-01,7.56360e-01,9.99999e-01
8.494451021e-01,7.59051e-01,9.99999e-01,9.99999e-01,9.98037e-01,7.60544e-01,9.99999e-01
8.536923276e-01,7.63780e-01,9.99999e-01,9.99999e-01,9.98839e-01,7.64667e-01,9.99999e-01
8.579607893e-01,7.68181e-01,9.99999e-01,9.99999e-01,9.99284e-01,7.68730e-01,9.99999e-01
8.622505932e-01,7.72384e-01,9.99999e-01,9.99999e-01,9.99545e-01,7.72734e-01,9.99999e-01
8.665618462e-01,7.37880e-01,9.99999e-01,9.50303e-01,9.99718e-01,7.76680e-01,9.99999e-01
8.708946554e-01,6.31133e-01,9.99999e-01,8.08811e-01,9.99677e-01,7.80566e-01,9.99999e-01
8.752491287e-01,6.62232e-01,9.99999e-01,8.44615e-01,9.99569e-01,7.84395e-01,9.99999e-01
8.796253743e-01,7.18568e-01,9.99999e-01,9.12230e-01,9.99403e-01,7.88167e-01,9.99999e-01
8.840235012e-01,7.54700e-01,9.99999e-01,9.53690e-01,9.99318e-01,7.91882e-01,9.99999e-01
8.884436187e-01,7.78911e-01,9.99999e-01,9.81532e-01,9.97505e-01,7.95540e-01,9.99999e-01
8.928858368e-01,7.72520e-01,9.99999e-01,9.92481e-01,9.73974e-01,7.99142e-01,9.99999e-01
8.973502660e-01,7.64713e-01,9.99999e-01,9.98171e-01,9.54414e-01,8.02689e-01,9.99998e-01
9.018370173e-01,7.87072e-01,9.99999e-01,9.99798e-01,9.76489e-01,8.06182e-01,9.99998e-01
9.063462024e-01,7.88758e-01,9.99999e-01,9.94782e-01,9.79255e-01,8.09620e-01,9.99998e-01
9.108779334e-01,7.77607e-01,9.99999e-01,9.88153e-01,9.67850e-01,8.13004e-01,9.99998e-01
9.154323231e-01,7.84455e-01,9.99999e-01,9.97213e-01,9.63601e-01,8.16335e-01,9.99998e-01
9.200094847e-01,7.63986e-01,9.99999e-01,9.58782e-01,9.71367e-01,8.19614e-01,9.99998e-01
9.246095321e-01,7.41659e-01,9.99999e-01,9.43240e-01,9.54997e-01,8.22841e-01,9.99997e-01
9.292325798e-01,5.80177e-01,9.99999e-01,9.54955e-01,7.33344e-01,8.26016e-01,9.99995e-01
9.338787427e-01,5.32771e-01,9.99999e-01,9.56631e-01,6.69756e-01,8.29141e-01,9.99993e-01
9.385481364e-01,6.86463e-01,9.99999e-01,9.68009e-01,8.51200e-01,8.32215e-01,9.99993e-01
9.432408771e-01,6.52927e-01,9.99999e-01,9.80329e-01,7.96897e-01,8.35240e-01,9.99993e-01
9.479570815e-01,6.04849e-01,9.99999e-01,9.89859e-01,7.28738e-01,8.38215e-01,9.99993e-01
9.526968669e-01,6.62568e-01,9.99999e-01,9.95099e-01,7.91371e-01,8.41142e-01,9.99995e-01
9.574603512e-01,6.81586e-01,9.99999e-01,9.97902e-01,8.09182e-01,8.44021e-01,9.99996e-01
9.622476530e-01,7.12917e-01,9.99999e-01,9.99345e-01,8.42377e-01,8.46853e-01,9.99997e-01
9.670588912e-01,7.69652e-01,9.99999e-01,9.99803e-01,9.06031e-01,8.49638e-01,9.99998e-01
9.718941857e-01,8.01607e-01,9.99999e-01,9.99985e-01,9.40449e-01,8.52377e-01,9.99998e-01
9.767536566e-01,8.12599e-01,9.99999e-01,9.99999e-01,9.50329e-01,8.55071e-01,9.99998e-01
9.816374249e-01,8.25988e-01,9.99999e-01,9.99999e-01,9.63005e-01,8.57719e-01,9.99999e-01
9.865456120e-01,8.40316e-01,9.99999e-01,9.99999e-01,9.76743e-01,8.60323e-01,9.99999e-01
9.914783401e-01,8.50432e-01,9.99999e-01,9.99999e-01,9.85568e-01,8.62884e-01,9.99999e-01
9.964357318e-01,8.58580e-01,9.99999e-01,9.99999e-01,9.92117e-01,8.65401e-01,9.99999e-01
1.001417910e+00,8.63771e-01,9.99999e-01,9.99999e-01,9.95270e-01,8.67876e-01,9.99999e-01
1.006425000e+00,8.67960e-01,9.99999e-01,9.99999e-01,9.97300e-01,8.70308e-01,9.99999e-01
1.011457125e+00,8.71238e-01,9.99999e-01,9.99999e-01,9.98324e-01,8.72700e-01,9.99999e-01
1.016514411e+00,8.74055e-01,9.99999e-01,9.99999e-01,9.98862e-01,8.75050e-01,9.99999e-01
1.021596983e+00,8.76540e-01,9.99999e-01,9.99971e-01,9.99093e-01,8.77360e-01,9.99999e-01
1.026704968e+00,8.77224e-01,9.99999e-01,9.97968e-01,9.99292e-01,8.79630e-01,9.99999e-01
1.031838492e+00,8.55585e-01,9.99999e-01,9.70690e-01,9.99485e-01,8.81861e-01,9.99999e-01
1.036997685e+00,2.32796e-01,9.99999e-01,2.63395e-01,9.99694e-01,8.84054e-01,9.99999e-01
1.042182673e+00,2.70218e-01,9.99999e-01,3.05017e-01,9.99635e-01,8.86209e-01,9.99999e-01
1.047393587e+00,2.56559e-01,9.99999e-01,2.88938e-01,9.99516e-01,8.88326e-01,9.99999e-01
1.052630555e+00,3.19635e-02,9.99999e-01,3.59164e-02,9.99337e-01,8.90406e-01,9.99999e-01
1.057893707e+00,6.26455e-02,9.99999e-01,7.02549e-02,9.98893e-01,8.92450e-01,9.99999e-01
1.063183176e+00,1.29776e-01,9.99999e-01,1.45300e-01,9.98179e-01,8.94458e-01,9.99999e-01
1.068499092e+00,2.44848e-01,9.99999e-01,2.73888e-01,9.96952e-01,8.96431e-01,9.99999e-01
1.073841587e+00,3.95941e-01,9.99999e-01,4.42159e-01,9.96432e-01,8.98369e-01,9.99999e-01
1.079210795e+00,5.35536e-01,9.99999e-01,5.97450e-01,9.95432e-01,9.00273e-01,9.99999e-01
1.084606849e+00,6.76378e-01,9.99999e-01,7.54827e-01,9.93089e-01,9.02143e-01,9.99999e-01
1.090029883e+00,7.73795e-01,9.99999e-01,8.64441e-01,9.90071e-01,9.03980e-01,9.99999e-01
1.095480033e+00,8.20638e-01,9.99999e-01,9.30820e-01,9.73177e-01,9.05784e-01,9.99998e-01
1.100957433e+00,8.18282e-01,9.99999e-01,9.66093e-01,9.33096e-01,9.07556e-01,9.99998e-01
1.106462220e+00,7.51094e-01,9.99999e-01,9.85847e-01,8.37636e-01,9.09297e-01,9.99996e-01
1.111994531e+00,6.23561e-01,9.99999e-01,9.94732e-01,6.87953e-01,9.11006e-01,9.99994e-01
1.117554504e+00,4.96385e-01,9.99999e-01,9.98712e-01,5.44500e-01,9.12685e-01,9.99992e-01
1.123142276e+00,5.81067e-01,9.99999e-01,9.99915e-01,6.35549e-01,9.14333e-01,9.99990e-01
1.128757988e+00,6.87337e-01,9.99999e-01,9.99999e-01,7.50413e-01,9.15952e-01,9.99990e-01
1.134401778e+00,4.67040e-01,9.99999e-01,9.99999e-01,5.09017e-01,9.17542e-01,9.99989e-01
1.140073787e+00,7.75776e-01,9.99999e-01,9.99999e-01,8.44064e-01,9.19103e-01,9.99991e-01
1.145774156e+00,6.44471e-01,9.99999e-01,9.99999e-01,7.00033e-01,9.20636e-01,9.99992e-01
1.151503026e+00,6.18455e-01,9.99999e-01,9.99999e-01,6.70676e-01,9.22141e-01,9.99993e-01
1.157260541e+00,6.65110e-01,9.99999e-01,9.99999e-01,7.20116e-01,9.23618e-01,9.99994e-01
1.163046844e+00,7.26222e-01,9.99999e-01,9.99999e-01,7.85048e-01,9.25069e-01,9.99996e-01
1.168862078e+00,7.83793e-01,9.99999e-01,9.99999e-01,8.45978e-01,9.26493e-01,9.99998e-01
1.174706389e+00,8.36917e-01,9.99999e-01,9.99999e-01,9.01955e-01,9.27891e-01,9.99998e-01
1.180579921e+00,8.72726e-01,9.99999e-01,9.99999e-01,9.39158e-01,9.29264e-01,9.99999e-01
1.186482820e+00,8.98218e-01,9.99999e-01,9.99995e-01,9.65194e-01,9.30612e-01,9.99999e-01
1.192415234e+00,9.06258e-01,9.99999e-01,9.92704e-01,9.79551e-01,9.31934e-01,9.99999e-01
1.198377311e+00,5.34042e-01,9.99999e-01,5.80680e-01,9.82731e-01,9.33233e-01,9.99999e-01
1.204369197e+00,4.42635e-07,9.99999e-01,4.78181e-07,9.83645e-01,9.34508e-01,9.99999e-01
1.210391043e+00,5.40779e-23,9.99999e-01,5.82978e-23,9.84361e-01,9.35759e-01,9.99999e-01
1.216442998e+00,3.81044e-20,9.99999e-01,4.10054e-20,9.86685e-01,9.36987e-01,9.99999e-01
1.222525213e+00,7.38746e-20,9.99999e-01,7.91695e-20,9.89622e-01,9.38192e-01,9.99999e-01
1.228637839e+00,2.66070e-15,9.99999e-01,2.84702e-15,9.92783e-01,9.39375e-01,9.99999e-01
