#,Wave/freq,Total,O2,CO2,H2O,Rayleigh,CIA
4.000000000e-01,2.96931e-08,9.99999e-01,9.99999e-01,9.99965e-01,2.96941e-08,9.99999e-01
4.020000000e-01,4.18309e-08,9.99999e-01,9.99999e-01,9.99978e-01,4.18318e-08,9.99999e-01
4.040100000e-01,5.85122e-08,9.99999e-01,9.99999e-01,9.99990e-01,5.85127e-08,9.99999e-01
4.060300500e-01,8.13044e-08,9.99999e-01,9.99999e-01,9.99997e-01,8.13045e-08,9.99999e-01
4.080602003e-01,1.12242e-07,9.99999e-01,9.99999e-01,9.99998e-01,1.12243e-07,9.99999e-01
4.101005013e-01,1.53969e-07,9.99999e-01,9.99999e-01,9.99999e-01,1.53969e-07,9.99999e-01
4.121510038e-01,2.09893e-07,9.99999e-01,9.99999e-01,9.99998e-01,2.09894e-07,9.99999e-01
4.142117588e-01,2.84382e-07,9.99999e-01,9.99999e-01,9.99990e-01,2.84385e-07,9.99999e-01
4.162828176e-01,3.82992e-07,9.99999e-01,9.99999e-01,9.99957e-01,3.83008e-07,9.99999e-01
4.183642317e-01,5.12796e-07,9.99999e-01,9.99999e-01,9.99974e-01,5.12809e-07,9.99999e-01
4.204560528e-01,6.82642e-07,9.99999e-01,9.99999e-01,9.99984e-01,6.82652e-07,9.99999e-01
4.225583331e-01,9.03622e-07,9.99999e-01,9.99999e-01,9.99993e-01,9.03627e-07,9.99999e-01
4.246711247e-01,1.18952e-06,9.99999e-01,9.99999e-01,9.99994e-01,1.18952e-06,9.99999e-01
4.267944804e-01,1.55739e-06,9.99999e-01,9.99999e-01,9.99992e-01,1.55740e-06,9.99999e-01
4.289284528e-01,2.02820e-06,9.99999e-01,9.99999e-01,9.99994e-01,2.02821e-06,9.99999e-01
4.310730950e-01,2.62761e-06,9.99999e-01,9.99999e-01,9.99997e-01,2.62762e-06,9.99999e-01
4.332284605e-01,3.38680e-06,9.99999e-01,9.99999e-01,9.99998e-01,3.38680e-06,9.99999e-01
4.353946028e-01,4.34350e-06,9.99999e-01,9.99999e-01,9.99999e-01,4.34350e-06,9.99999e-01
4.375715758e-01,5.54312e-06,9.99999e-01,9.99999e-01,9.99995e-01,5.54314e-06,9.99999e-01
4.397594337e-01,7.03986e-06,9.99999e-01,9.99999e-01,9.99962e-01,7.04012e-06,9.99999e-01
4.419582309e-01,8.89757e-06,9.99999e-01,9.99999e-01,9.99811e-01,8.89924e-06,9.99999e-01
4.441680220e-01,1.11957e-05,9.99999e-01,9.99999e-01,9.99853e-01,1.11974e-05,9.99999e-01
4.463888621e-01,1.40230e-05,9.99999e-01,9.99999e-01,9.99847e-01,1.40252e-05,9.99999e-01
4.486208064e-01,1.74875e-05,9.99999e-01,9.99999e-01,9.99905e-01,1.74891e-05,9.99999e-01
4.508639105e-01,2.17128e-05,9.99999e-01,9.99999e-01,9.99955e-01,2.17138e-05,9.99999e-01
4.531182300e-01,2.68435e-05,9.99999e-01,9.99999e-01,9.99982e-01,2.68440e-05,9.99999e-01
4.553838212e-01,3.30471e-05,9.99999e-01,9.99999e-01,9.99987e-01,3.30475e-05,9.99999e-01
4.576607403e-01,4.05176e-05,9.99999e-01,9.99999e-01,9.99994e-01,4.05179e-05,9.99999e-01
4.599490440e-01,4.94771e-05,9.99999e-01,9.99999e-01,9.99995e-01,4.94773e-05,9.99999e-01
4.622487892e-01,6.01800e-05,9.99999e-01,9.99999e-01,9.99998e-01,6.01800e-05,9.99999e-01
4.645600332e-01,7.29151e-05,9.99999e-01,9.99999e-01,9.99996e-01,7.29153e-05,9.99999e-01
4.668828333e-01,8.80073e-05,9.99999e-01,9.99999e-01,9.99954e-01,8.80113e-05,9.99999e-01
4.692172475e-01,1.05828e-04,9.99999e-01,9.99999e-01,9.99904e-01,1.05839e-04,9.99999e-01
4.715633337e-01,1.26806e-04,9.99999e-01,9.99999e-01,9.99937e-01,1.26814e-04,9.99999e-01
4.739211504e-01,1.51396e-04,9.99999e-01,9.99999e-01,9.99939e-01,1.51405e-04,9.99999e-01
4.762907561e-01,1.80126e-04,9.99999e-01,9.99999e-01,9.99968e-01,1.80132e-04,9.99999e-01
4.786722099e-01,2.13573e-04,9.99999e-01,9.99999e-01,9.99986e-01,2.13576e-04,9.99999e-01
4.810655710e-01,2.52378e-04,9.99999e-01,9.99999e-01,9.99995e-01,2.52379e-04,9.99999e-01
4.834708988e-01,2.97238e-04,9.99999e-01,9.99999e-01,9.99962e-01,2.97249e-04,9.99999e-01
4.858882533e-01,3.48944e-04,9.99999e-01,9.99999e-01,9.99931e-01,3.48968e-04,9.99999e-01
4.883176946e-01,4.08366e-04,9.99999e-01,9.99999e-01,9.99943e-01,4.08389e-04,9.99999e-01
4.907592831e-01,4.76422e-04,9.99999e-01,9.99999e-01,9.99948e-01,4.76446e-04,9.99999e-01
4.932130795e-01,5.54135e-04,9.99999e-01,9.99999e-01,9.99963e-01,5.54155e-04,9.99999e-01
4.956791449e-01,6.42605e-04,9.99999e-01,9.99999e-01,9.99980e-01,6.42617e-04,9.99999e-01
4.981575406e-01,7.42953e-04,9.99999e-01,9.99999e-01,9.99903e-01,7.43025e-04,9.99999e-01
5.006483283e-01,8.56447e-04,9.99999e-01,9.99999e-01,9.99750e-01,8.56660e-04,9.99999e-01
5.031515699e-01,9.83661e-04,9.99999e-01,9.99999e-01,9.98738e-01,9.84903e-04,9.99999e-01
5.056673278e-01,1.12848e-03,9.99999e-01,9.99999e-01,9.99334e-01,1.12923e-03,9.99999e-01
5.081956644e-01,1.29012e-03,9.99999e-01,9.99999e-01,9.99160e-01,1.29121e-03,9.99999e-01
5.107366428e-01,1.47169e-03,9.99999e-01,9.99999e-01,9.99432e-01,1.47252e-03,9.99999e-01
5.132903260e-01,1.67440e-03,9.99999e-01,9.99999e-01,9.99675e-01,1.67494e-03,9.99999e-01
5.158567776e-01,1.90008e-03,9.99999e-01,9.99999e-01,9.99862e-01,1.90034e-03,9.99999e-01
5.184360615e-01,2.15059e-03,9.99999e-01,9.99999e-01,9.99944e-01,2.15071e-03,9.99999e-01
5.210282418e-01,2.42807e-03,9.99999e-01,9.99999e-01,9.99979e-01,2.42812e-03,9.99999e-01
5.236333830e-01,2.73452e-03,9.99999e-01,9.99999e-01,9.99917e-01,2.73475e-03,9.99999e-01
5.262515499e-01,3.07271e-03,9.99999e-01,9.99999e-01,9.99948e-01,3.07287e-03,9.99999e-01
5.288828077e-01,3.44470e-03,9.99999e-01,9.99999e-01,9.99952e-01,3.44486e-03,9.99999e-01
5.315272217e-01,3.85301e-03,9.99999e-01,9.99999e-01,9.99958e-01,3.85317e-03,9.99999e-01
5.341848578e-01,4.30024e-03,9.99999e-01,9.99999e-01,9.99972e-01,4.30036e-03,9.99999e-01
5.368557821e-01,4.78858e-03,9.99999e-01,9.99999e-01,9.99903e-01,4.78904e-03,9.99999e-01
5.395400610e-01,5.32009e-03,9.99999e-01,9.99999e-01,9.99653e-01,5.32193e-03,9.99999e-01
5.422377613e-01,5.89918e-03,9.99999e-01,9.99999e-01,9.99553e-01,5.90181e-03,9.99999e-01
5.449489501e-01,6.52880e-03,9.99999e-01,9.99999e-01,9.99584e-01,6.53151e-03,9.99999e-01
5.476736949e-01,7.21129e-03,9.99999e-01,9.99999e-01,9.99632e-01,7.21394e-03,9.99999e-01
5.504120634e-01,7.94993e-03,9.99999e-01,9.99999e-01,9.99732e-01,7.95205e-03,9.99999e-01
5.531641237e-01,8.74765e-03,9.99999e-01,9.99999e-01,9.99865e-01,8.74883e-03,9.99999e-01
5.559299443e-01,9.60668e-03,9.99999e-01,9.99999e-01,9.99934e-01,9.60730e-03,9.99999e-01
5.587095940e-01,1.05301e-02,9.99999e-01,9.99999e-01,9.99958e-01,1.05305e-02,9.99999e-01
5.615031420e-01,1.15210e-02,9.99999e-01,9.99999e-01,9.99954e-01,1.15216e-02,9.99999e-01
5.643106577e-01,1.25829e-02,9.99999e-01,9.99999e-01,9.99948e-01,1.25835e-02,9.99999e-01
5.671322110e-01,1.37108e-02,9.99999e-01,9.99999e-01,9.99374e-01,1.37194e-02,9.99999e-01
5.699678720e-01,1.49224e-02,9.99999e-01,9.99999e-01,9.99336e-01,1.49323e-02,9.99999e-01
5.728177114e-01,1.62141e-02,9.99999e-01,9.99999e-01,9.99308e-01,1.62253e-02,9.99999e-01
5.756818000e-01,1.75902e-02,9.99999e-01,9.99999e-01,9.99365e-01,1.76013e-02,9.99999e-01
5.785602090e-01,1.90529e-02,9.99999e-01,9.99999e-01,9.99447e-01,1.90634e-02,9.99999e-01
5.814530100e-01,2.06030e-02,9.99999e-01,9.99999e-01,9.99444e-01,2.06144e-02,9.99999e-01
5.843602750e-01,2.22425e-02,9.99999e-01,9.99999e-01,9.99337e-01,2.22572e-02,9.99999e-01
5.872820764e-01,2.38579e-02,9.99999e-01,9.99999e-01,9.94304e-01,2.39945e-02,9.99999e-01
5.902184868e-01,2.56510e-02,9.99999e-01,9.99999e-01,9.93106e-01,2.58291e-02,9.99999e-01
5.931695792e-01,2.76281e-02,9.99999e-01,9.99999e-01,9.95126e-01,2.77635e-02,9.99999e-01
5.961354271e-01,2.96410e-02,9.99999e-01,9.99999e-01,9.94658e-01,2.98002e-02,9.99999e-01
5.991161043e-01,3.18171e-02,9.99999e-01,9.99999e-01,9.96102e-01,3.19416e-02,9.99999e-01
6.021116848e-01,3.41144e-02,9.99999e-01,9.99999e-01,9.97786e-01,3.41900e-02,9.99999e-01
6.051222432e-01,3.65066e-02,9.99999e-01,9.99999e-01,9.98879e-01,3.65476e-02,9.99999e-01
6.081478544e-01,3.89974e-02,9.99999e-01,9.99999e-01,9.99516e-01,3.90163e-02,9.99999e-01
6.111885937e-01,4.15895e-02,9.99999e-01,9.99999e-01,9.99795e-01,4.15979e-02,9.99999e-01
6.142445367e-01,4.42903e-02,9.99999e-01,9.99999e-01,9.99908e-01,4.42944e-02,9.99999e-01
6.173157594e-01,4.71048e-02,9.99999e-01,9.99999e-01,9.99949e-01,4.71071e-02,9.99999e-01
6.204023382e-01,5.00355e-02,9.99999e-01,9.99999e-01,9.99956e-01,5.00376e-02,9.99999e-01
6.235043498e-01,5.30771e-02,9.99999e-01,9.99999e-01,9.99811e-01,5.30870e-02,9.99999e-01
6.266218716e-01,5.62007e-02,9.99999e-01,9.99999e-01,9.99005e-01,5.62566e-02,9.99999e-01
6.297549810e-01,5.95254e-02,9.99999e-01,9.99999e-01,9.99635e-01,5.95471e-02,9.99999e-01
6.329037559e-01,6.29140e-02,9.99999e-01,9.99999e-01,9.99279e-01,6.29593e-02,9.99999e-01
6.360682746e-01,6.64531e-02,9.99999e-01,9.99999e-01,9.99386e-01,6.64938e-02,9.99999e-01
6.392486160e-01,7.00953e-02,9.99999e-01,9.99999e-01,9.99204e-01,7.01511e-02,9.99999e-01
6.424448591e-01,7.38526e-02,9.99999e-01,9.99999e-01,9.98934e-01,7.39313e-02,9.99999e-01
6.456570834e-01,7.74502e-02,9.99999e-01,9.99999e-01,9.95063e-01,7.78344e-02,9.99999e-01
6.488853688e-01,8.15647e-02,9.99999e-01,9.99999e-01,9.96387e-01,8.18604e-02,9.99999e-01
6.521297956e-01,8.56922e-02,9.99999e-01,9.99999e-01,9.96318e-01,8.60088e-02,9.99999e-01
6.553904446e-01,8.99484e-02,9.99999e-01,9.99999e-01,9.96333e-01,9.02794e-02,9.99999e-01
6.586673968e-01,9.43741e-02,9.99999e-01,9.99999e-01,9.96860e-01,9.46713e-02,9.99999e-01
6.619607338e-01,9.90101e-02,9.99999e-01,9.99999e-01,9.98249e-01,9.91837e-02,9.99999e-01
6.652705375e-01,1.03707e-01,9.99999e-01,9.99999e-01,9.98948e-01,1.03816e-01,9.99999e-01
6.685968902e-01,1.08513e-01,9.99999e-01,9.99999e-01,9.99511e-01,1.08566e-01,9.99999e-01
6.719398746e-01,1.13408e-01,9.99999e-01,9.99999e-01,9.99773e-01,1.13434e-01,9.99999e-01
6.752995740e-01,1.18402e-01,9.99999e-01,9.99999e-01,9.99876e-01,1.18417e-01,9.99999e-01
6.786760719e-01,1.23492e-01,9.99999e-01,9.99999e-01,9.99822e-01,1.23514e-01,9.99999e-01
6.820694522e-01,1.28684e-01,9.99999e-01,9.99999e-01,9.99696e-01,1.28723e-01,9.99999e-01
6.854797995e-01,1.33990e-01,9.99999e-01,9.99999e-01,9.99608e-01,1.34043e-01,9.99999e-01
6.889071985e-01,1.39338e-01,9.99999e-01,9.99999e-01,9.99051e-01,1.39470e-01,9.99999e-01
6.923517345e-01,1.42775e-01,9.99999e-01,9.99999e-01,9.84627e-01,1.45004e-01,9.99999e-01
6.958134932e-01,1.49436e-01,9.99999e-01,9.99999e-01,9.91997e-01,1.50642e-01,9.99999e-01
6.992925606e-01,1.55189e-01,9.99999e-01,9.99999e-01,9.92378e-01,1.56381e-01,9.99999e-01
7.027890234e-01,1.60694e-01,9.99999e-01,9.99999e-01,9.90602e-01,1.62218e-01,9.99999e-01
7.063029686e-01,1.66823e-01,9.99999e-01,9.99999e-01,9.92093e-01,1.68152e-01,9.99999e-01
7.098344834e-01,1.72858e-01,9.99999e-01,9.99999e-01,9.92412e-01,1.74179e-01,9.99999e-01
7.133836558e-01,1.78474e-01,9.99999e-01,9.99999e-01,9.89888e-01,1.80297e-01,9.99999e-01
7.169505741e-01,1.71894e-01,9.99999e-01,9.99999e-01,9.21673e-01,1.86503e-01,9.99998e-01
7.205353270e-01,1.85258e-01,9.99999e-01,9.99999e-01,9.60921e-01,1.92793e-01,9.99998e-01
7.241380036e-01,1.89311e-01,9.99999e-01,9.99999e-01,9.50529e-01,1.99164e-01,9.99998e-01
7.277586936e-01,1.96415e-01,9.99999e-01,9.99999e-01,9.55256e-01,2.05615e-01,9.99998e-01
7.313974871e-01,2.02060e-01,9.99999e-01,9.99999e-01,9.52482e-01,2.12140e-01,9.99998e-01
7.350544745e-01,2.12996e-01,9.99999e-01,9.99999e-01,9.73752e-01,2.18738e-01,9.99999e-01
7.387297469e-01,2.21035e-01,9.99999e-01,9.99999e-01,9.80616e-01,2.25404e-01,9.99999e-01
7.424233956e-01,2.29924e-01,9.99999e-01,9.99999e-01,9.90472e-01,2.32136e-01,9.99999e-01
7.461355126e-01,2.37548e-01,9.99999e-01,9.99999e-01,9.94215e-01,2.38930e-01,9.99999e-01
7.498661902e-01,2.45120e-01,9.99999e-01,9.99999e-01,9.97303e-01,2.45783e-01,9.99999e-01
7.536155211e-01,2.52356e-01,9.99999e-01,9.99999e-01,9.98676e-01,2.52691e-01,9.99999e-01
7.573835987e-01,2.59474e-01,9.99999e-01,9.99999e-01,9.99318e-01,2.59651e-01,9.99999e-01
7.611705167e-01,2.66547e-01,9.99999e-01,9.99999e-01,9.99576e-01,2.66659e-01,9.99999e-01
7.649763693e-01,2.73641e-01,9.99999e-01,9.99999e-01,9.99734e-01,2.73713e-01,9.99999e-01
7.688012511e-01,2.80757e-01,9.99999e-01,9.99999e-01,9.99814e-01,2.80809e-01,9.99999e-01
7.726452574e-01,2.87899e-01,9.99999e-01,9.99999e-01,9.99847e-01,2.87943e-01,9.99999e-01
7.765084837e-01,2.95048e-01,9.99999e-01,9.99999e-01,9.99783e-01,2.95111e-01,9.99999e-01
7.803910261e-01,2.86070e-01,9.99999e-01,9.47114e-01,9.99065e-01,3.02312e-01,9.99999e-01
7.842929812e-01,2.40898e-01,9.99999e-01,7.80597e-01,9.96740e-01,3.09540e-01,9.99999e-01
7.882144461e-01,2.41703e-01,9.99999e-01,7.67794e-01,9.93299e-01,3.16794e-01,9.99999e-01
7.921555184e-01,2.76003e-01,9.99999e-01,8.54703e-01,9.96322e-01,3.24069e-01,9.99999e-01
7.961162960e-01,2.96304e-01,9.99999e-01,8.99959e-01,9.93502e-01,3.31363e-01,9.99999e-01
8.000968774e-01,3.17464e-01,9.99999e-01,9.44428e-01,9.92499e-01,3.38672e-01,9.99999e-01
8.040973618e-01,3.33384e-01,9.99999e-01,9.70817e-01,9.92497e-01,3.45993e-01,9.99999e-01
8.081178486e-01,3.42690e-01,9.99999e-01,9.86486e-01,9.83154e-01,3.53323e-01,9.99999e-01
8.121584379e-01,3.34639e-01,9.99999e-01,9.95812e-01,9.31692e-01,3.60659e-01,9.99998e-01
8.162192301e-01,3.38084e-01,9.99999e-01,9.99073e-01,9.19538e-01,3.67997e-01,9.99998e-01
8.203003262e-01,3.60018e-01,9.99999e-01,9.99985e-01,9.59199e-01,3.75336e-01,9.99998e-01
8.244018279e-01,3.61113e-01,9.99999e-01,9.99999e-01,9.43663e-01,3.82672e-01,9.99998e-01
8.285238370e-01,3.70936e-01,9.99999e-01,9.99999e-01,9.51112e-01,3.90002e-01,9.99998e-01
8.326664562e-01,3.77707e-01,9.99999e-01,9.99999e-01,9.50627e-01,3.97324e-01,9.99998e-01
8.368297885e-01,3.90252e-01,9.99999e-01,9.99999e-01,9.64455e-01,4.04634e-01,9.99999e-01
8.410139374e-01,4.03168e-01,9.99999e-01,9.99999e-01,9.78728e-01,4.11930e-01,9.99999e-01
8.452190071e-01,4.14815e-01,9.99999e-01,9.99999e-01,9.89514e-01,4.19210e-01,9.99999e-01
8.494451021e-01,4.23871e-01,9.99999e-01,9.99999e-01,9.93902e-01,4.26471e-01,9.99999e-01
8.536923276e-01,4.32146e-01,9.99999e-01,9.99999e-01,9.96391e-01,4.33711e-01,9.99999e-01
8.579607893e-01,4.39947e-01,9.99999e-01,9.99999e-01,9.97776e-01,4.40927e-01,9.99999e-01
8.622505932e-01,4.47484e-01,9.99999e-01,9.99999e-01,9.98587e-01,4.48117e-01,9.99999e-01
8.665618462e-01,4.09793e-01,9.99999e-01,9.00840e-01,9.99125e-01,4.55278e-01,9.99999e-01
8.708946554e-01,2.48233e-01,9.99999e-01,5.37333e-01,9.98998e-01,4.62410e-01,9.99999e-01
8.752491287e-01,2.82547e-01,9.99999e-01,6.02564e-01,9.98660e-01,4.69508e-01,9.99999e-01
8.796253743e-01,3.59124e-01,9.99999e-01,7.54890e-01,9.98145e-01,4.76573e-01,9.99999e-01
8.840235012e-01,4.16739e-01,9.99999e-01,8.63525e-01,9.97881e-01,4.83601e-01,9.99999e-01
8.884436187e-01,4.59466e-01,9.99999e-01,9.43724e-01,9.92283e-01,4.90591e-01,9.99999e-01
8.928858368e-01,4.48136e-01,9.99999e-01,9.76790e-01,9.21796e-01,4.97540e-01,9.99998e-01
8.973502660e-01,4.34491e-01,9.99999e-01,9.94318e-01,8.66077e-01,5.04448e-01,9.99997e-01
9.018370173e-01,4.74878e-01,9.99999e-01,9.99372e-01,9.29297e-01,5.11313e-01,9.99997e-01
9.063462024e-01,4.78320e-01,9.99999e-01,9.84038e-01,9.37364e-01,5.18133e-01,9.99997e-01
9.108779334e-01,4.57654e-01,9.99999e-01,9.63646e-01,9.04103e-01,5.24906e-01,9.99996e-01
9.154323231e-01,4.70109e-01,9.99999e-01,9.91355e-01,8.91719e-01,5.31631e-01,9.99996e-01
9.200094847e-01,4.39167e-01,9.99999e-01,8.85883e-01,9.14243e-01,5.38307e-01,9.99995e-01
9.246095321e-01,3.97705e-01,9.99999e-01,8.34503e-01,8.70270e-01,5.44933e-01,9.99993e-01
9.292325798e-01,1.96763e-01,9.99999e-01,8.68413e-01,4.02148e-01,5.51507e-01,9.99986e-01
9.338787427e-01,1.54149e-01,9.99999e-01,8.72162e-01,3.10356e-01,5.58028e-01,9.99982e-01
9.385481364e-01,3.20463e-01,9.99999e-01,9.04115e-01,6.22407e-01,5.64495e-01,9.99981e-01
9.432408771e-01,2.81830e-01,9.99999e-01,9.40076e-01,5.22468e-01,5.70907e-01,9.99979e-01
9.479570815e-01,2.30459e-01,9.99999e-01,9.68779e-01,4.11061e-01,5.77263e-01,9.99982e-01
9.526968669e-01,2.92494e-01,9.99999e-01,9.84833e-01,5.07960e-01,5.83562e-01,9.99986e-01
9.574603512e-01,3.10649e-01,9.99999e-01,9.93486e-01,5.29796e-01,5.89804e-01,9.99989e-01
9.622476530e-01,3.53549e-01,9.99999e-01,9.97964e-01,5.94315e-01,5.95987e-01,9.99993e-01
9.670588912e-01,4.45363e-01,9.99999e-01,9.99389e-01,7.40086e-01,6.02111e-01,9.99995e-01
9.718941857e-01,5.03034e-01,9.99999e-01,9.99956e-01,8.27154e-01,6.08175e-01,9.99997e-01
9.767536566e-01,5.24620e-01,9.99999e-01,9.99999e-01,8.54182e-01,6.14178e-01,9.99997e-01
9.816374249e-01,5.51683e-01,9.99999e-01,9.99999e-01,8.89639e-01,6.20120e-01,9.99998e-01
9.865456120e-01,5.81862e-01,9.99999e-01,9.99999e-01,9.29490e-01,6.26001e-01,9.99998e-01
9.914783401e-01,6.03884e-01,9.99999e-01,9.99999e-01,9.55785e-01,6.31820e-01,9.99999e-01
9.964357318e-01,6.22068e-01,9.99999e-01,9.99999e-01,9.75676e-01,6.37576e-01,9.99999e-01
1.001417910e+00,6.33847e-01,9.99999e-01,9.99999e-01,9.85351e-01,6.43270e-01,9.99999e-01
1.006425000e+00,6.43464e-01,9.99999e-01,9.99999e-01,9.91622e-01,6.48900e-01,9.99999e-01
1.011457125e+00,6.51060e-01,9.99999e-01,9.99999e-01,9.94794e-01,6.54467e-01,9.99999e-01
1.016514411e+00,6.57636e-01,9.99999e-01,9.99999e-01,9.96462e-01,6.59970e-01,9.99999e-01
1.021596983e+00,6.63477e-01,9.99999e-01,9.99913e-01,9.97180e-01,6.65410e-01,9.99999e-01
1.026704968e+00,6.65111e-01,9.99999e-01,9.93721e-01,9.97800e-01,6.70785e-01,9.99999e-01
1.031838492e+00,6.32399e-01,9.99999e-01,9.36804e-01,9.98401e-01,6.76097e-01,9.99999e-01
1.036997685e+00,6.46582e-02,9.99999e-01,9.49673e-02,9.99049e-01,6.81344e-01,9.99999e-01
1.042182673e+00,2.37454e-02,9.99999e-01,3.46206e-02,9.98866e-01,6.86528e-01,9.99999e-01
1.047393587e+00,3.84981e-02,9.99999e-01,5.57337e-02,9.98497e-01,6.91647e-01,9.99999e-01
1.052630555e+00,1.59638e-04,9.99999e-01,2.29458e-04,9.97938e-01,6.96702e-01,9.99999e-01
1.057893707e+00,5.20310e-04,9.99999e-01,7.43037e-04,9.96560e-01,7.01693e-01,9.99999e-01
1.063183176e+00,3.29537e-03,9.99999e-01,4.68077e-03,9.94346e-01,7.06621e-01,9.99999e-01
1.068499092e+00,1.48728e-02,9.99999e-01,2.10576e-02,9.90550e-01,7.11484e-01,9.99999e-01
1.073841587e+00,6.10645e-02,9.99999e-01,8.60115e-02,9.88949e-01,7.16284e-01,9.99999e-01
1.079210795e+00,1.50776e-01,9.99999e-01,2.11701e-01,9.85862e-01,7.21021e-01,9.99999e-01
1.084606849e+00,2.99833e-01,9.99999e-01,4.21510e-01,9.78674e-01,7.25694e-01,9.99998e-01
1.090029883e+00,4.52043e-01,9.99999e-01,6.37569e-01,9.69500e-01,7.30305e-01,9.99998e-01
1.095480033e+00,5.41729e-01,9.99999e-01,8.00890e-01,9.19092e-01,7.34853e-01,9.99997e-01
1.100957433e+00,5.37370e-01,9.99999e-01,8.98380e-01,8.07557e-01,7.39338e-01,9.99995e-01
1.106462220e+00,4.17267e-01,9.99999e-01,9.56638e-01,5.84981e-01,7.43762e-01,9.99991e-01
1.111994531e+00,2.41949e-01,9.99999e-01,9.83697e-01,3.28179e-01,7.48123e-01,9.99983e-01
1.117554504e+00,1.26634e-01,9.99999e-01,9.95998e-01,1.68797e-01,7.52424e-01,9.99976e-01
1.123142276e+00,2.13495e-01,9.99999e-01,9.99736e-01,2.82184e-01,7.56663e-01,9.99972e-01
1.128757988e+00,3.29086e-01,9.99999e-01,9.99999e-01,4.32540e-01,7.60842e-01,9.99970e-01
1.134401778e+00,1.62194e-01,9.99999e-01,9.99999e-01,2.12036e-01,7.64961e-01,9.99966e-01
1.140073787e+00,4.61564e-01,9.99999e-01,9.99999e-01,6.00212e-01,7.69020e-01,9.99973e-01
1.145774156e+00,2.73706e-01,9.99999e-01,9.99999e-01,3.54081e-01,7.73020e-01,9.99977e-01
1.151503026e+00,2.46531e-01,9.99999e-01,9.99999e-01,3.17307e-01,7.76961e-01,9.99980e-01
1.157260541e+00,2.90715e-01,9.99999e-01,9.99999e-01,3.72314e-01,7.80844e-01,9.99984e-01
1.163046844e+00,3.76720e-01,9.99999e-01,9.99999e-01,4.80104e-01,7.84669e-01,9.99990e-01
1.168862078e+00,4.70802e-01,9.99999e-01,9.99999e-01,5.97136e-01,7.88436e-01,9.99994e-01
1.174706389e+00,5.76094e-01,9.99999e-01,9.99999e-01,7.27258e-01,7.92147e-01,9.99997e-01
1.180579921e+00,6.55267e-01,9.99999e-01,9.99999e-01,8.23407e-01,7.95801e-01,9.99997e-01
1.186482820e+00,7.16090e-01,9.99999e-01,9.99987e-01,8.95794e-01,7.99399e-01,9.99998e-01
1.192415234e+00,7.36692e-01,9.99999e-01,9.77989e-01,9.37751e-01,8.02942e-01,9.99998e-01
1.198377311e+00,4.20894e-01,9.99999e-01,5.46051e-01,9.47274e-01,8.06431e-01,9.99998e-01
1.204369197e+00,2.71717e-17,9.99999e-01,3.45590e-17,9.50086e-01,8.09865e-01,9.99998e-01
1.210391043e+00,7.83960e-67,9.99999e-01,9.90585e-67,9.52190e-01,8.13246e-01,9.99998e-01
1.216442998e+00,5.66453e-58,9.99999e-01,7.11820e-58,9.59190e-01,8.16573e-01,9.99999e-01
1.222525213e+00,4.09328e-57,9.99999e-01,5.07685e-57,9.68068e-01,8.19848e-01,9.99999e-01
1.228637839e+00,3.34963e-44,9.99999e-01,4.13256e-44,9.77716e-01,8.23071e-01,9.99999e-01
