#,Wave/freq,Total,O2,CO2,H2O,Rayleigh,CIA
4.000000000e-01,1.01778e-22,9.99999e-01,9.99999e-01,9.99900e-01,1.01788e-22,9.99999e-01
4.020000000e-01,2.77018e-22,9.99999e-01,9.99999e-01,9.99938e-01,2.77035e-22,9.99999e-01
4.040100000e-01,7.38476e-22,9.99999e-01,9.99999e-01,9.99973e-01,7.38495e-22,9.99999e-01
4.060300500e-01,1.93085e-21,9.99999e-01,9.99999e-01,9.99993e-01,1.93086e-21,9.99999e-01
4.080602003e-01,4.95344e-21,9.99999e-01,9.99999e-01,9.99997e-01,4.95345e-21,9.99999e-01
4.101005013e-01,1.24734e-20,9.99999e-01,9.99999e-01,9.99999e-01,1.24734e-20,9.99999e-01
4.121510038e-01,3.08415e-20,9.99999e-01,9.99999e-01,9.99995e-01,3.08416e-20,9.99999e-01
4.142117588e-01,7.49054e-20,9.99999e-01,9.99999e-01,9.99971e-01,7.49075e-20,9.99999e-01
4.162828176e-01,1.78751e-19,9.99999e-01,9.99999e-01,9.99877e-01,1.78773e-19,9.99999e-01
4.183642317e-01,4.19356e-19,9.99999e-01,9.99999e-01,9.99926e-01,4.19386e-19,9.99999e-01
4.204560528e-01,9.67373e-19,9.99999e-01,9.99999e-01,9.99955e-01,9.67416e-19,9.99999e-01
4.225583331e-01,2.19500e-18,9.99999e-01,9.99999e-01,9.99983e-01,2.19504e-18,9.99999e-01
4.246711247e-01,4.90046e-18,9.99999e-01,9.99999e-01,9.99986e-01,4.90052e-18,9.99999e-01
4.267944804e-01,1.07682e-17,9.99999e-01,9.99999e-01,9.99980e-01,1.07684e-17,9.99999e-01
4.289284528e-01,2.32972e-17,9.99999e-01,9.99999e-01,9.99984e-01,2.32975e-17,9.99999e-01
4.310730950e-01,4.96414e-17,9.99999e-01,9.99999e-01,9.99993e-01,4.96417e-17,9.99999e-01
4.332284605e-01,1.04206e-16,9.99999e-01,9.99999e-01,9.99997e-01,1.04206e-16,9.99999e-01
4.353946028e-01,2.15566e-16,9.99999e-01,9.99999e-01,9.99998e-01,2.15566e-16,9.99999e-01
4.375715758e-01,4.39568e-16,9.99999e-01,9.99999e-01,9.99987e-01,4.39573e-16,9.99999e-01
4.397594337e-01,8.83734e-16,9.99999e-01,9.99999e-01,9.99890e-01,8.83831e-16,9.99999e-01
4.419582309e-01,1.75176e-15,9.99999e-01,9.99999e-01,9.99442e-01,1.75273e-15,9.99999e-01
4.441680220e-01,3.42772e-15,9.99999e-01,9.99999e-01,9.99575e-01,3.42917e-15,9.99999e-01
4.463888621e-01,6.61777e-15,9.99999e-01,9.99999e-01,9.99555e-01,6.62071e-15,9.99999e-01
4.486208064e-01,1.26141e-14,9.99999e-01,9.99999e-01,9.99725e-01,1.26176e-14,9.99999e-01
4.508639105e-01,2.37389e-14,9.99999e-01,9.99999e-01,9.99870e-01,2.37420e-14,9.99999e-01
4.531182300e-01,4.41177e-14,9.99999e-01,9.99999e-01,9.99948e-01,4.41199e-14,9.99999e-01
4.553838212e-01,8.09881e-14,9.99999e-01,9.99999e-01,9.99964e-01,8.09909e-14,9.99999e-01
4.576607403e-01,1.46899e-13,9.99999e-01,9.99999e-01,9.99983e-01,1.46902e-13,9.99999e-01
4.599490440e-01,2.63333e-13,9.99999e-01,9.99999e-01,9.99988e-01,2.63336e-13,9.99999e-01
4.622487892e-01,4.66643e-13,9.99999e-01,9.99999e-01,9.99997e-01,4.66644e-13,9.99999e-01
4.645600332e-01,8.17618e-13,9.99999e-01,9.99999e-01,9.99991e-01,8.17625e-13,9.99999e-01
4.668828333e-01,1.41662e-12,9.99999e-01,9.99999e-01,9.99867e-01,1.41681e-12,9.99999e-01
4.692172475e-01,2.42790e-12,9.99999e-01,9.99999e-01,9.99721e-01,2.42858e-12,9.99999e-01
4.715633337e-01,4.11804e-12,9.99999e-01,9.99999e-01,9.99817e-01,4.11879e-12,9.99999e-01
4.739211504e-01,6.91164e-12,9.99999e-01,9.99999e-01,9.99825e-01,6.91284e-12,9.99999e-01
4.762907561e-01,1.14832e-11,9.99999e-01,9.99999e-01,9.99909e-01,1.14842e-11,9.99999e-01
4.786722099e-01,1.88875e-11,9.99999e-01,9.99999e-01,9.99962e-01,1.88882e-11,9.99999e-01
4.810655710e-01,3.07615e-11,9.99999e-01,9.99999e-01,9.99988e-01,3.07619e-11,9.99999e-01
4.834708988e-01,4.96139e-11,9.99999e-01,9.99999e-01,9.99889e-01,4.96193e-11,9.99999e-01
4.858882533e-01,7.92687e-11,9.99999e-01,9.99999e-01,9.99802e-01,7.92843e-11,9.99999e-01
4.883176946e-01,1.25496e-10,9.99999e-01,9.99999e-01,9.99833e-01,1.25517e-10,9.99999e-01
4.907592831e-01,1.96885e-10,9.99999e-01,9.99999e-01,9.99850e-01,1.96915e-10,9.99999e-01
4.932130795e-01,3.06157e-10,9.99999e-01,9.99999e-01,9.99893e-01,3.06190e-10,9.99999e-01
4.956791449e-01,4.71945e-10,9.99999e-01,9.99999e-01,9.99943e-01,4.71971e-10,9.99999e-01
4.981575406e-01,7.21118e-10,9.99999e-01,9.99999e-01,9.99717e-01,7.21322e-10,9.99999e-01
5.006483283e-01,1.09241e-09,9.99999e-01,9.99999e-01,9.99264e-01,1.09321e-09,9.99999e-01
5.031515699e-01,1.63722e-09,9.99999e-01,9.99999e-01,9.96312e-01,1.64328e-09,9.99999e-01
5.056673278e-01,2.44557e-09,9.99999e-01,9.99999e-01,9.98059e-01,2.45032e-09,9.99999e-01
5.081956644e-01,3.61613e-09,9.99999e-01,9.99999e-01,9.97553e-01,3.62499e-09,9.99999e-01
5.107366428e-01,5.31269e-09,9.99999e-01,9.99999e-01,9.98349e-01,5.32147e-09,9.99999e-01
5.132903260e-01,7.74558e-09,9.99999e-01,9.99999e-01,9.99058e-01,7.75288e-09,9.99999e-01
5.158567776e-01,1.12071e-08,9.99999e-01,9.99999e-01,9.99602e-01,1.12116e-08,9.99999e-01
5.184360615e-01,1.60930e-08,9.99999e-01,9.99999e-01,9.99840e-01,1.60955e-08,9.99999e-01
5.210282418e-01,2.29412e-08,9.99999e-01,9.99999e-01,9.99939e-01,2.29426e-08,9.99999e-01
5.236333830e-01,3.24664e-08,9.99999e-01,9.99999e-01,9.99759e-01,3.24742e-08,9.99999e-01
5.262515499e-01,4.56445e-08,9.99999e-01,9.99999e-01,9.99849e-01,4.56514e-08,9.99999e-01
5.288828077e-01,6.37364e-08,9.99999e-01,9.99999e-01,9.99860e-01,6.37452e-08,9.99999e-01
5.315272217e-01,8.84149e-08,9.99999e-01,9.99999e-01,9.99879e-01,8.84255e-08,9.99999e-01
5.341848578e-01,1.21861e-07,9.99999e-01,9.99999e-01,9.99919e-01,1.21871e-07,9.99999e-01
5.368557821e-01,1.66859e-07,9.99999e-01,9.99999e-01,9.99718e-01,1.66906e-07,9.99999e-01
5.395400610e-01,2.26934e-07,9.99999e-01,9.99999e-01,9.98976e-01,2.27166e-07,9.99999e-01
5.422377613e-01,3.06908e-07,9.99999e-01,9.99999e-01,9.98700e-01,3.07307e-07,9.99999e-01
5.449489501e-01,4.12743e-07,9.99999e-01,9.99999e-01,9.98780e-01,4.13246e-07,9.99999e-01
5.476736949e-01,5.51875e-07,9.99999e-01,9.99999e-01,9.98930e-01,5.52465e-07,9.99999e-01
5.504120634e-01,7.33791e-07,9.99999e-01,9.99999e-01,9.99223e-01,7.34361e-07,9.99999e-01
5.531641237e-01,9.70295e-07,9.99999e-01,9.99999e-01,9.99609e-01,9.70674e-07,9.99999e-01
5.559299443e-01,1.27574e-06,9.99999e-01,9.99999e-01,9.99811e-01,1.27598e-06,9.99999e-01
5.587095940e-01,1.66808e-06,9.99999e-01,9.99999e-01,9.99880e-01,1.66827e-06,9.99999e-01
5.615031420e-01,2.16938e-06,9.99999e-01,9.99999e-01,9.99867e-01,2.16966e-06,9.99999e-01
5.643106577e-01,2.80670e-06,9.99999e-01,9.99999e-01,9.99847e-01,2.80713e-06,9.99999e-01
5.671322110e-01,3.60674e-06,9.99999e-01,9.99999e-01,9.98141e-01,3.61346e-06,9.99999e-01
5.699678720e-01,4.61939e-06,9.99999e-01,9.99999e-01,9.98083e-01,4.62826e-06,9.99999e-01
5.728177114e-01,5.88721e-06,9.99999e-01,9.99999e-01,9.97977e-01,5.89914e-06,9.99999e-01
5.756818000e-01,7.46920e-06,9.99999e-01,9.99999e-01,9.98148e-01,7.48305e-06,9.99999e-01
5.785602090e-01,9.43254e-06,9.99999e-01,9.99999e-01,9.98390e-01,9.44775e-06,9.99999e-01
5.814530100e-01,1.18542e-05,9.99999e-01,9.99999e-01,9.98378e-01,1.18735e-05,9.99999e-01
5.843602750e-01,1.48259e-05,9.99999e-01,9.99999e-01,9.98051e-01,1.48548e-05,9.99999e-01
5.872820764e-01,1.81951e-05,9.99999e-01,9.99999e-01,9.83373e-01,1.85027e-05,9.99999e-01
5.902184868e-01,2.24888e-05,9.99999e-01,9.99999e-01,9.80049e-01,2.29466e-05,9.99999e-01
5.931695792e-01,2.79358e-05,9.99999e-01,9.99999e-01,9.85838e-01,2.83371e-05,9.99999e-01
5.961354271e-01,3.43086e-05,9.99999e-01,9.99999e-01,9.84509e-01,3.48484e-05,9.99999e-01
5.991161043e-01,4.21984e-05,9.99999e-01,9.99999e-01,9.88688e-01,4.26811e-05,9.99999e-01
6.021116848e-01,5.17310e-05,9.99999e-01,9.99999e-01,9.93575e-01,5.20655e-05,9.99999e-01
6.051222432e-01,6.30584e-05,9.99999e-01,9.99999e-01,9.96746e-01,6.32643e-05,9.99999e-01
6.081478544e-01,7.64689e-05,9.99999e-01,9.99999e-01,9.98593e-01,7.65766e-05,9.99999e-01
6.111885937e-01,9.22864e-05,9.99999e-01,9.99999e-01,9.99406e-01,9.23412e-05,9.99999e-01
6.142445367e-01,1.10911e-04,9.99999e-01,9.99999e-01,9.99734e-01,1.10940e-04,9.99999e-01
6.173157594e-01,1.32784e-04,9.99999e-01,9.99999e-01,9.99853e-01,1.32803e-04,9.99999e-01
6.204023382e-01,1.58391e-04,9.99999e-01,9.99999e-01,9.99874e-01,1.58411e-04,9.99999e-01
6.235043498e-01,1.88194e-04,9.99999e-01,9.99999e-01,9.99440e-01,1.88299e-04,9.99999e-01
6.266218716e-01,2.22416e-04,9.99999e-01,9.99999e-01,9.97097e-01,2.23064e-04,9.99999e-01
6.297549810e-01,2.63084e-04,9.99999e-01,9.99999e-01,9.98934e-01,2.63364e-04,9.99999e-01
6.329037559e-01,3.09277e-04,9.99999e-01,9.99999e-01,9.97902e-01,3.09927e-04,9.99999e-01
6.360682746e-01,3.62898e-04,9.99999e-01,9.99999e-01,9.98203e-01,3.63551e-04,9.99999e-01
6.392486160e-01,4.24125e-04,9.99999e-01,9.99999e-01,9.97678e-01,4.25112e-04,9.99999e-01
6.424448591e-01,4.94010e-04,9.99999e-01,9.99999e-01,9.96866e-01,4.95562e-04,9.99999e-01
6.456570834e-01,5.67614e-04,9.99999e-01,9.99999e-01,9.85540e-01,5.75942e-04,9.99999e-01
6.488853688e-01,6.60386e-04,9.99999e-01,9.99999e-01,9.89529e-01,6.67373e-04,9.99999e-01
6.521297956e-01,7.62851e-04,9.99999e-01,9.99999e-01,9.89336e-01,7.71073e-04,9.99999e-01
6.553904446e-01,8.78852e-04,9.99999e-01,9.99999e-01,9.89310e-01,8.88348e-04,9.99999e-01
6.586673968e-01,1.01130e-03,9.99999e-01,9.99999e-01,9.90888e-01,1.02060e-03,9.99999e-01
6.619607338e-01,1.16339e-03,9.99999e-01,9.99999e-01,9.94912e-01,1.16933e-03,9.99999e-01
6.652705375e-01,1.33206e-03,9.99999e-01,9.99999e-01,9.96943e-01,1.33615e-03,9.99999e-01
6.685968902e-01,1.52076e-03,9.99999e-01,9.99999e-01,9.98701e-01,1.52274e-03,9.99999e-01
6.719398746e-01,1.72978e-03,9.99999e-01,9.99999e-01,9.99341e-01,1.73091e-03,9.99999e-01
6.752995740e-01,1.96189e-03,9.99999e-01,9.99999e-01,9.99651e-01,1.96258e-03,9.99999e-01
6.786760719e-01,2.21857e-03,9.99999e-01,9.99999e-01,9.99478e-01,2.21973e-03,9.99999e-01
6.820694522e-01,2.50224e-03,9.99999e-01,9.99999e-01,9.99104e-01,2.50448e-03,9.99999e-01
6.854797995e-01,2.81580e-03,9.99999e-01,9.99999e-01,9.98855e-01,2.81902e-03,9.99999e-01
6.889071985e-01,3.15677e-03,9.99999e-01,9.99999e-01,9.97187e-01,3.16567e-03,9.99999e-01
6.923517345e-01,3.38933e-03,9.99999e-01,9.99999e-01,9.55599e-01,3.54681e-03,9.99999e-01
6.958134932e-01,3.87461e-03,9.99999e-01,9.99999e-01,9.77223e-01,3.96492e-03,9.99998e-01
6.992925606e-01,4.32435e-03,9.99999e-01,9.99999e-01,9.77790e-01,4.42258e-03,9.99998e-01
7.027890234e-01,4.78896e-03,9.99999e-01,9.99999e-01,9.72886e-01,4.92242e-03,9.99998e-01
7.063029686e-01,5.34206e-03,9.99999e-01,9.99999e-01,9.77111e-01,5.46719e-03,9.99998e-01
7.098344834e-01,5.92649e-03,9.99999e-01,9.99999e-01,9.78022e-01,6.05967e-03,9.99998e-01
7.133836558e-01,6.50502e-03,9.99999e-01,9.99999e-01,9.70505e-01,6.70272e-03,9.99998e-01
7.169505741e-01,5.85253e-03,9.99999e-01,9.99999e-01,7.90964e-01,7.39926e-03,9.99996e-01
7.205353270e-01,7.27937e-03,9.99999e-01,9.99999e-01,8.92931e-01,8.15224e-03,9.99996e-01
7.241380036e-01,7.74055e-03,9.99999e-01,9.99999e-01,8.63453e-01,8.96467e-03,9.99996e-01
7.277586936e-01,8.62071e-03,9.99999e-01,9.99999e-01,8.76126e-01,9.83959e-03,9.99996e-01
7.313974871e-01,9.36817e-03,9.99999e-01,9.99999e-01,8.69030e-01,1.07800e-02,9.99997e-01
7.350544745e-01,1.09146e-02,9.99999e-01,9.99999e-01,9.25820e-01,1.17891e-02,9.99998e-01
7.387297469e-01,1.21589e-02,9.99999e-01,9.99999e-01,9.44760e-01,1.28699e-02,9.99998e-01
7.424233956e-01,1.36413e-02,9.99999e-01,9.99999e-01,9.72614e-01,1.40254e-02,9.99999e-01
7.461355126e-01,1.50036e-02,9.99999e-01,9.99999e-01,9.83280e-01,1.52587e-02,9.99999e-01
7.498661902e-01,1.64437e-02,9.99999e-01,9.99999e-01,9.92205e-01,1.65729e-02,9.99999e-01
7.536155211e-01,1.79018e-02,9.99999e-01,9.99999e-01,9.96156e-01,1.79709e-02,9.99999e-01
7.573835987e-01,1.94172e-02,9.99999e-01,9.99999e-01,9.98021e-01,1.94556e-02,9.99999e-01
7.611705167e-01,2.10042e-02,9.99999e-01,9.99999e-01,9.98769e-01,2.10301e-02,9.99999e-01
7.649763693e-01,2.26795e-02,9.99999e-01,9.99999e-01,9.99227e-01,2.26970e-02,9.99999e-01
7.688012511e-01,2.44461e-02,9.99999e-01,9.99999e-01,9.99461e-01,2.44592e-02,9.99999e-01
7.726452574e-01,2.63077e-02,9.99999e-01,9.99999e-01,9.99556e-01,2.63193e-02,9.99999e-01
7.765084837e-01,2.82620e-02,9.99999e-01,9.99999e-01,9.99364e-01,2.82799e-02,9.99999e-01
7.803910261e-01,2.65135e-02,9.99999e-01,8.75922e-01,9.97249e-01,3.03435e-02,9.99999e-01
7.842929812e-01,1.65100e-02,9.99999e-01,5.11911e-01,9.90432e-01,3.25124e-02,9.99999e-01
7.882144461e-01,1.69107e-02,9.99999e-01,4.94400e-01,9.80564e-01,3.47888e-02,9.99999e-01
7.921555184e-01,2.35243e-02,9.99999e-01,6.38949e-01,9.89363e-01,3.71749e-02,9.99999e-01
7.961162960e-01,2.87491e-02,9.99999e-01,7.38111e-01,9.81039e-01,3.96726e-02,9.99999e-01
8.000968774e-01,3.50710e-02,9.99999e-01,8.47620e-01,9.78244e-01,4.22838e-02,9.99999e-01
8.040973618e-01,4.04274e-02,9.99999e-01,9.18003e-01,9.78212e-01,4.50101e-02,9.99998e-01
8.081178486e-01,4.37779e-02,9.99999e-01,9.61249e-01,9.51401e-01,4.78532e-02,9.99998e-01
8.121584379e-01,4.09159e-02,9.99999e-01,9.88007e-01,8.14531e-01,5.08143e-02,9.99997e-01
8.162192301e-01,4.22969e-02,9.99999e-01,9.97336e-01,7.86726e-01,5.38947e-02,9.99996e-01
8.203003262e-01,5.07158e-02,9.99999e-01,9.99963e-01,8.88285e-01,5.70954e-02,9.99995e-01
8.244018279e-01,5.15327e-02,9.99999e-01,9.99999e-01,8.52948e-01,6.04173e-02,9.99995e-01
8.285238370e-01,5.52215e-02,9.99999e-01,9.99999e-01,8.64715e-01,6.38611e-02,9.99996e-01
8.326664562e-01,5.82753e-02,9.99999e-01,9.99999e-01,8.64269e-01,6.74273e-02,9.99997e-01
8.368297885e-01,6.40394e-02,9.99999e-01,9.99999e-01,9.00488e-01,7.11163e-02,9.99998e-01
8.410139374e-01,7.03977e-02,9.99999e-01,9.99999e-01,9.39534e-01,7.49283e-02,9.99999e-01
8.452190071e-01,7.64876e-02,9.99999e-01,9.99999e-01,9.69877e-01,7.88632e-02,9.99999e-01
8.494451021e-01,8.14555e-02,9.99999e-01,9.99999e-01,9.82328e-01,8.29208e-02,9.99999e-01
8.536923276e-01,8.61909e-02,9.99999e-01,9.99999e-01,9.89551e-01,8.71009e-02,9.99999e-01
8.579607893e-01,9.08117e-02,9.99999e-01,9.99999e-01,9.93532e-01,9.14029e-02,9.99999e-01
8.622505932e-01,9.54329e-02,9.99999e-01,9.99999e-01,9.95897e-01,9.58260e-02,9.99999e-01
8.665618462e-01,8.38486e-02,9.99999e-01,8.37369e-01,9.97450e-01,1.00369e-01,9.99999e-01
8.708946554e-01,2.06394e-02,9.99999e-01,1.97014e-01,9.97073e-01,1.05032e-01,9.99999e-01
8.752491287e-01,2.74297e-02,9.99999e-01,2.50675e-01,9.96090e-01,1.09813e-01,9.99999e-01
8.796253743e-01,5.21594e-02,9.99999e-01,4.56906e-01,9.94570e-01,1.14711e-01,9.99999e-01
8.840235012e-01,7.83081e-02,9.99999e-01,6.57876e-01,9.93807e-01,1.19723e-01,9.99999e-01
8.884436187e-01,1.03419e-01,9.99999e-01,8.46720e-01,9.77287e-01,1.24849e-01,9.99998e-01
8.928858368e-01,9.63879e-02,9.99999e-01,9.34385e-01,7.90728e-01,1.30087e-01,9.99996e-01
8.973502660e-01,8.87317e-02,9.99999e-01,9.83735e-01,6.65001e-01,1.35435e-01,9.99994e-01
9.018370173e-01,1.14451e-01,9.99999e-01,9.98200e-01,8.13610e-01,1.40891e-01,9.99993e-01
9.063462024e-01,1.16816e-01,9.99999e-01,9.54574e-01,8.30196e-01,1.46451e-01,9.99992e-01
9.108779334e-01,1.03038e-01,9.99999e-01,8.98500e-01,7.49687e-01,1.52115e-01,9.99991e-01
9.154323231e-01,1.11145e-01,9.99999e-01,9.75451e-01,7.20039e-01,1.57880e-01,9.99991e-01
9.200094847e-01,9.86452e-02,9.99999e-01,7.44105e-01,7.74768e-01,1.63743e-01,9.99988e-01
9.246095321e-01,7.06097e-02,9.99999e-01,5.95076e-01,6.79187e-01,1.69701e-01,9.99981e-01
9.292325798e-01,1.33295e-02,9.99999e-01,6.71152e-01,1.01768e-01,1.75752e-01,9.99959e-01
9.338787427e-01,6.81655e-03,9.99999e-01,6.77354e-01,5.03886e-02,1.81893e-01,9.99948e-01
9.385481364e-01,4.36577e-02,9.99999e-01,7.48120e-01,2.95192e-01,1.88120e-01,9.99947e-01
9.432408771e-01,3.28032e-02,9.99999e-01,8.36176e-01,1.95870e-01,1.94432e-01,9.99941e-01
9.479570815e-01,1.88576e-02,9.99999e-01,9.11945e-01,1.01410e-01,2.00824e-01,9.99948e-01
9.526968669e-01,3.37414e-02,9.99999e-01,9.56699e-01,1.68409e-01,2.07294e-01,9.99961e-01
9.574603512e-01,3.82719e-02,9.99999e-01,9.81233e-01,1.81603e-01,2.13839e-01,9.99970e-01
9.622476530e-01,5.31681e-02,9.99999e-01,9.94114e-01,2.42285e-01,2.20454e-01,9.99980e-01
9.670588912e-01,9.87635e-02,9.99999e-01,9.98236e-01,4.35430e-01,2.27138e-01,9.99987e-01
9.718941857e-01,1.35837e-01,9.99999e-01,9.99878e-01,5.80835e-01,2.33886e-01,9.99992e-01
9.767536566e-01,1.53123e-01,9.99999e-01,9.99999e-01,6.36170e-01,2.40696e-01,9.99994e-01
9.816374249e-01,1.76719e-01,9.99999e-01,9.99999e-01,7.13837e-01,2.47563e-01,9.99996e-01
9.865456120e-01,2.05944e-01,9.99999e-01,9.99999e-01,8.09257e-01,2.54485e-01,9.99997e-01
9.914783401e-01,2.29265e-01,9.99999e-01,9.99999e-01,8.76872e-01,2.61458e-01,9.99998e-01
9.964357318e-01,2.49935e-01,9.99999e-01,9.99999e-01,9.30930e-01,2.68478e-01,9.99999e-01
1.001417910e+00,2.63970e-01,9.99999e-01,9.99999e-01,9.57997e-01,2.75543e-01,9.99999e-01
1.006425000e+00,2.75799e-01,9.99999e-01,9.99999e-01,9.75764e-01,2.82649e-01,9.99999e-01
1.011457125e+00,2.85426e-01,9.99999e-01,9.99999e-01,9.84932e-01,2.89792e-01,9.99999e-01
1.016514411e+00,2.93920e-01,9.99999e-01,9.99999e-01,9.89729e-01,2.96969e-01,9.99999e-01
1.021596983e+00,3.01597e-01,9.99999e-01,9.99708e-01,9.91801e-01,3.04177e-01,9.99999e-01
1.026704968e+00,3.03712e-01,9.99999e-01,9.81518e-01,9.93596e-01,3.11413e-01,9.99999e-01
1.031838492e+00,2.75766e-01,9.99999e-01,8.69111e-01,9.95353e-01,3.18672e-01,9.99999e-01
1.036997685e+00,9.29144e-03,9.99999e-01,2.85647e-02,9.97231e-01,3.25953e-01,9.99999e-01
1.042182673e+00,1.34874e-04,9.99999e-01,4.05689e-04,9.96685e-01,3.33251e-01,9.99999e-01
1.047393587e+00,3.87186e-04,9.99999e-01,1.14092e-03,9.95616e-01,3.40563e-01,9.99999e-01
1.052630555e+00,8.79318e-10,9.99999e-01,2.53696e-09,9.93980e-01,3.47887e-01,9.99999e-01
1.057893707e+00,3.34133e-09,9.99999e-01,9.45128e-09,9.89953e-01,3.55218e-01,9.99999e-01
1.063183176e+00,5.68059e-07,9.99999e-01,1.58064e-06,9.83546e-01,3.62555e-01,9.99999e-01
1.068499092e+00,1.16026e-05,9.99999e-01,3.18527e-05,9.72656e-01,3.69894e-01,9.99999e-01
1.073841587e+00,4.16712e-04,9.99999e-01,1.12819e-03,9.68061e-01,3.77233e-01,9.99998e-01
1.079210795e+00,5.49192e-03,9.99999e-01,1.47174e-02,9.59359e-01,3.84567e-01,9.99998e-01
1.084606849e+00,3.25416e-02,9.99999e-01,8.74937e-02,9.39098e-01,3.91895e-01,9.99997e-01
1.090029883e+00,1.02049e-01,9.99999e-01,2.76913e-01,9.13390e-01,3.99214e-01,9.99996e-01
1.095480033e+00,1.70248e-01,9.99999e-01,5.29142e-01,7.82086e-01,4.06521e-01,9.99993e-01
1.100957433e+00,1.66866e-01,9.99999e-01,7.33686e-01,5.41557e-01,4.13813e-01,9.99988e-01
1.106462220e+00,8.64467e-02,9.99999e-01,8.79633e-01,2.29442e-01,4.21089e-01,9.99976e-01
1.111994531e+00,2.09304e-02,9.99999e-01,9.53464e-01,5.06776e-02,4.28344e-01,9.99952e-01
1.117554504e+00,4.41118e-03,9.99999e-01,9.88500e-01,1.01852e-02,4.35578e-01,9.99933e-01
1.123142276e+00,2.04996e-02,9.99999e-01,9.99246e-01,4.63025e-02,4.42788e-01,9.99921e-01
1.128757988e+00,4.88502e-02,9.99999e-01,9.99999e-01,1.08572e-01,4.49970e-01,9.99914e-01
1.134401778e+00,2.33429e-02,9.99999e-01,9.99999e-01,5.10694e-02,4.57124e-01,9.99904e-01
1.140073787e+00,1.13569e-01,9.99999e-01,9.99999e-01,2.44650e-01,4.64248e-01,9.99922e-01
1.145774156e+00,3.32437e-02,9.99999e-01,9.99999e-01,7.05351e-02,4.71338e-01,9.99934e-01
1.151503026e+00,2.49535e-02,9.99999e-01,9.99999e-01,5.21640e-02,4.78393e-01,9.99943e-01
1.157260541e+00,3.24483e-02,9.99999e-01,9.99999e-01,6.68499e-02,4.85411e-01,9.99957e-01
1.163046844e+00,6.54985e-02,9.99999e-01,9.99999e-01,1.33025e-01,4.92391e-01,9.99972e-01
1.168862078e+00,1.16118e-01,9.99999e-01,9.99999e-01,2.32551e-01,4.99330e-01,9.99985e-01
1.174706389e+00,2.04490e-01,9.99999e-01,9.99999e-01,4.03951e-01,5.06227e-01,9.99992e-01
1.180579921e+00,2.94000e-01,9.99999e-01,9.99999e-01,5.73012e-01,5.13080e-01,9.99994e-01
1.186482820e+00,3.77976e-01,9.99999e-01,9.99955e-01,7.27059e-01,5.19888e-01,9.99995e-01
1.192415234e+00,4.11455e-01,9.99999e-01,9.38957e-01,8.29375e-01,5.26649e-01,9.99996e-01
1.198377311e+00,2.25705e-01,9.99999e-01,4.82287e-01,8.53981e-01,5.33361e-01,9.99996e-01
1.204369197e+00,3.45586e-46,9.99999e-01,6.97753e-46,8.62014e-01,5.40025e-01,9.99997e-01
1.210391043e+00,6.48778e-191,9.99999e-01,1.28506e-190,8.67274e-01,5.46637e-01,9.99997e-01
1.216442998e+00,4.96182e-165,9.99999e-01,9.67118e-165,8.86165e-01,5.53197e-01,9.99998e-01
1.222525213e+00,1.59275e-162,9.99999e-01,2.98804e-162,9.09881e-01,5.59705e-01,9.99998e-01
1.228637839e+00,4.21925e-125,9.99999e-01,7.78912e-125,9.36435e-01,5.66158e-01,9.99999e-01
