#,Wave/freq,Total,O2,CO2,H2O,Rayleigh,CIA
4.000000000e-01,1.34295e-12,9.99999e-01,9.99999e-01,9.99946e-01,1.34303e-12,9.99999e-01
4.020000000e-01,2.30573e-12,9.99999e-01,9.99999e-01,9.99966e-01,2.30581e-12,9.99999e-01
4.040100000e-01,3.91453e-12,9.99999e-01,9.99999e-01,9.99985e-01,3.91459e-12,9.99999e-01
4.060300500e-01,6.57669e-12,9.99999e-01,9.99999e-01,9.99996e-01,6.57671e-12,9.99999e-01
4.080602003e-01,1.09366e-11,9.99999e-01,9.99999e-01,9.99998e-01,1.09366e-11,9.99999e-01
4.101005013e-01,1.80049e-11,9.99999e-01,9.99999e-01,9.99999e-01,1.80049e-11,9.99999e-01
4.121510038e-01,2.93509e-11,9.99999e-01,9.99999e-01,9.99997e-01,2.93510e-11,9.99999e-01
4.142117588e-01,4.73867e-11,9.99999e-01,9.99999e-01,9.99984e-01,4.73874e-11,9.99999e-01
4.162828176e-01,7.57819e-11,9.99999e-01,9.99999e-01,9.99933e-01,7.57870e-11,9.99999e-01
4.183642317e-01,1.20083e-10,9.99999e-01,9.99999e-01,9.99960e-01,1.20087e-10,9.99999e-01
4.204560528e-01,1.88557e-10,9.99999e-01,9.99999e-01,9.99975e-01,1.88561e-10,9.99999e-01
4.225583331e-01,2.93449e-10,9.99999e-01,9.99999e-01,9.99990e-01,2.93451e-10,9.99999e-01
4.246711247e-01,4.52713e-10,9.99999e-01,9.99999e-01,9.99992e-01,4.52716e-10,9.99999e-01
4.267944804e-01,6.92455e-10,9.99999e-01,9.99999e-01,9.99988e-01,6.92463e-10,9.99999e-01
4.289284528e-01,1.05031e-09,9.99999e-01,9.99999e-01,9.99991e-01,1.05032e-09,9.99999e-01
4.310730950e-01,1.58005e-09,9.99999e-01,9.99999e-01,9.99996e-01,1.58006e-09,9.99999e-01
4.332284605e-01,2.35787e-09,9.99999e-01,9.99999e-01,9.99998e-01,2.35787e-09,9.99999e-01
4.353946028e-01,3.49088e-09,9.99999e-01,9.99999e-01,9.99999e-01,3.49088e-09,9.99999e-01
4.375715758e-01,5.12837e-09,9.99999e-01,9.99999e-01,9.99992e-01,5.12841e-09,9.99999e-01
4.397594337e-01,7.47662e-09,9.99999e-01,9.99999e-01,9.99941e-01,7.47706e-09,9.99999e-01
4.419582309e-01,1.08172e-08,9.99999e-01,9.99999e-01,9.99701e-01,1.08204e-08,9.99999e-01
4.441680220e-01,1.55413e-08,9.99999e-01,9.99999e-01,9.99769e-01,1.55449e-08,9.99999e-01
4.463888621e-01,2.21676e-08,9.99999e-01,9.99999e-01,9.99759e-01,2.21730e-08,9.99999e-01
4.486208064e-01,3.14013e-08,9.99999e-01,9.99999e-01,9.99850e-01,3.14060e-08,9.99999e-01
4.508639105e-01,4.41759e-08,9.99999e-01,9.99999e-01,9.99929e-01,4.41789e-08,9.99999e-01
4.531182300e-01,6.17275e-08,9.99999e-01,9.99999e-01,9.99972e-01,6.17292e-08,9.99999e-01
4.553838212e-01,8.56817e-08,9.99999e-01,9.99999e-01,9.99980e-01,8.56833e-08,9.99999e-01
4.576607403e-01,1.18164e-07,9.99999e-01,9.99999e-01,9.99990e-01,1.18165e-07,9.99999e-01
4.599490440e-01,1.61928e-07,9.99999e-01,9.99999e-01,9.99993e-01,1.61929e-07,9.99999e-01
4.622487892e-01,2.20524e-07,9.99999e-01,9.99999e-01,9.99998e-01,2.20525e-07,9.99999e-01
4.645600332e-01,2.98496e-07,9.99999e-01,9.99999e-01,9.99995e-01,2.98497e-07,9.99999e-01
4.668828333e-01,4.01602e-07,9.99999e-01,9.99999e-01,9.99928e-01,4.01630e-07,9.99999e-01
4.692172475e-01,5.37157e-07,9.99999e-01,9.99999e-01,9.99849e-01,5.37238e-07,9.99999e-01
4.715633337e-01,7.14445e-07,9.99999e-01,9.99999e-01,9.99901e-01,7.14515e-07,9.99999e-01
4.739211504e-01,9.44864e-07,9.99999e-01,9.99999e-01,9.99905e-01,9.44952e-07,9.99999e-01
4.762907561e-01,1.24277e-06,9.99999e-01,9.99999e-01,9.99950e-01,1.24283e-06,9.99999e-01
4.786722099e-01,1.62574e-06,9.99999e-01,9.99999e-01,9.99979e-01,1.62578e-06,9.99999e-01
4.810655710e-01,2.11546e-06,9.99999e-01,9.99999e-01,9.99993e-01,2.11547e-06,9.99999e-01
4.834708988e-01,2.73822e-06,9.99999e-01,9.99999e-01,9.99941e-01,2.73838e-06,9.99999e-01
4.858882533e-01,3.52631e-06,9.99999e-01,9.99999e-01,9.99893e-01,3.52669e-06,9.99999e-01
4.883176946e-01,4.51888e-06,9.99999e-01,9.99999e-01,9.99910e-01,4.51929e-06,9.99999e-01
4.907592831e-01,5.76250e-06,9.99999e-01,9.99999e-01,9.99919e-01,5.76296e-06,9.99999e-01
4.932130795e-01,7.31326e-06,9.99999e-01,9.99999e-01,9.99942e-01,7.31368e-06,9.99999e-01
4.956791449e-01,9.23780e-06,9.99999e-01,9.99999e-01,9.99969e-01,9.23808e-06,9.99999e-01
4.981575406e-01,1.16134e-05,9.99999e-01,9.99999e-01,9.99847e-01,1.16151e-05,9.99999e-01
5.006483283e-01,1.45322e-05,9.99999e-01,9.99999e-01,9.99605e-01,1.45379e-05,9.99999e-01
5.031515699e-01,1.80796e-05,9.99999e-01,9.99999e-01,9.98009e-01,1.81157e-05,9.99999e-01
5.056673278e-01,2.24525e-05,9.99999e-01,9.99999e-01,9.98950e-01,2.24760e-05,9.99999e-01
5.081956644e-01,2.77307e-05,9.99999e-01,9.99999e-01,9.98677e-01,2.77674e-05,9.99999e-01
5.107366428e-01,3.41310e-05,9.99999e-01,9.99999e-01,9.99106e-01,3.41614e-05,9.99999e-01
5.132903260e-01,4.18349e-05,9.99999e-01,9.99999e-01,9.99489e-01,4.18562e-05,9.99999e-01
5.158567776e-01,5.10679e-05,9.99999e-01,9.99999e-01,9.99784e-01,5.10788e-05,9.99999e-01
5.184360615e-01,6.20836e-05,9.99999e-01,9.99999e-01,9.99913e-01,6.20889e-05,9.99999e-01
5.210282418e-01,7.51793e-05,9.99999e-01,9.99999e-01,9.99967e-01,7.51817e-05,9.99999e-01
5.236333830e-01,9.06803e-05,9.99999e-01,9.99999e-01,9.99869e-01,9.06921e-05,9.99999e-01
5.262515499e-01,1.08989e-04,9.99999e-01,9.99999e-01,9.99918e-01,1.08998e-04,9.99999e-01
5.288828077e-01,1.30514e-04,9.99999e-01,9.99999e-01,9.99924e-01,1.30523e-04,9.99999e-01
5.315272217e-01,1.55734e-04,9.99999e-01,9.99999e-01,9.99934e-01,1.55745e-04,9.99999e-01
5.341848578e-01,1.85184e-04,9.99999e-01,9.99999e-01,9.99956e-01,1.85192e-04,9.99999e-01
5.368557821e-01,2.19422e-04,9.99999e-01,9.99999e-01,9.99848e-01,2.19455e-04,9.99999e-01
5.395400610e-01,2.59045e-04,9.99999e-01,9.99999e-01,9.99451e-01,2.59187e-04,9.99999e-01
5.422377613e-01,3.04893e-04,9.99999e-01,9.99999e-01,9.99296e-01,3.05108e-04,9.99999e-01
5.449489501e-01,3.57774e-04,9.99999e-01,9.99999e-01,9.99343e-01,3.58009e-04,9.99999e-01
5.476736949e-01,4.18516e-04,9.99999e-01,9.99999e-01,9.99420e-01,4.18758e-04,9.99999e-01
5.504120634e-01,4.88096e-04,9.99999e-01,9.99999e-01,9.99579e-01,4.88301e-04,9.99999e-01
5.531641237e-01,5.67548e-04,9.99999e-01,9.99999e-01,9.99788e-01,5.67668e-04,9.99999e-01
5.559299443e-01,6.57908e-04,9.99999e-01,9.99999e-01,9.99897e-01,6.57975e-04,9.99999e-01
5.587095940e-01,7.60378e-04,9.99999e-01,9.99999e-01,9.99935e-01,7.60427e-04,9.99999e-01
5.615031420e-01,8.76261e-04,9.99999e-01,9.99999e-01,9.99928e-01,8.76323e-04,9.99999e-01
5.643106577e-01,1.00698e-03,9.99999e-01,9.99999e-01,9.99918e-01,1.00706e-03,9.99999e-01
5.671322110e-01,1.15298e-03,9.99999e-01,9.99999e-01,9.99007e-01,1.15412e-03,9.99999e-01
5.699678720e-01,1.31773e-03,9.99999e-01,9.99999e-01,9.98958e-01,1.31910e-03,9.99999e-01
5.728177114e-01,1.50206e-03,9.99999e-01,9.99999e-01,9.98909e-01,1.50370e-03,9.99999e-01
5.756818000e-01,1.70799e-03,9.99999e-01,9.99999e-01,9.99000e-01,1.70970e-03,9.99999e-01
5.785602090e-01,1.93730e-03,9.99999e-01,9.99999e-01,9.99129e-01,1.93899e-03,9.99999e-01
5.814530100e-01,2.19166e-03,9.99999e-01,9.99999e-01,9.99124e-01,2.19358e-03,9.99999e-01
5.843602750e-01,2.47296e-03,9.99999e-01,9.99999e-01,9.98952e-01,2.47555e-03,9.99999e-01
5.872820764e-01,2.76206e-03,9.99999e-01,9.99999e-01,9.91015e-01,2.78710e-03,9.99999e-01
5.902184868e-01,3.09660e-03,9.99999e-01,9.99999e-01,9.89161e-01,3.13053e-03,9.99999e-01
5.931695792e-01,3.48128e-03,9.99999e-01,9.99999e-01,9.92325e-01,3.50821e-03,9.99999e-01
5.961354271e-01,3.88965e-03,9.99999e-01,9.99999e-01,9.91595e-01,3.92262e-03,9.99999e-01
5.991161043e-01,4.34947e-03,9.99999e-01,9.99999e-01,9.93866e-01,4.37632e-03,9.99999e-01
6.021116848e-01,4.85498e-03,9.99999e-01,9.99999e-01,9.96517e-01,4.87195e-03,9.99999e-01
6.051222432e-01,5.40269e-03,9.99999e-01,9.99999e-01,9.98236e-01,5.41223e-03,9.99999e-01
6.081478544e-01,5.99538e-03,9.99999e-01,9.99999e-01,9.99238e-01,5.99995e-03,9.99999e-01
6.111885937e-01,6.63583e-03,9.99999e-01,9.99999e-01,9.99678e-01,6.63796e-03,9.99999e-01
6.142445367e-01,7.32812e-03,9.99999e-01,9.99999e-01,9.99855e-01,7.32917e-03,9.99999e-01
6.173157594e-01,8.07590e-03,9.99999e-01,9.99999e-01,9.99920e-01,8.07654e-03,9.99999e-01
6.204023382e-01,8.88247e-03,9.99999e-01,9.99999e-01,9.99932e-01,8.88306e-03,9.99999e-01
6.235043498e-01,9.74887e-03,9.99999e-01,9.99999e-01,9.99701e-01,9.75178e-03,9.99999e-01
6.266218716e-01,1.06690e-02,9.99999e-01,9.99999e-01,9.98432e-01,1.06857e-02,9.99999e-01
6.297549810e-01,1.16813e-02,9.99999e-01,9.99999e-01,9.99424e-01,1.16880e-02,9.99999e-01
6.329037559e-01,1.27472e-02,9.99999e-01,9.99999e-01,9.98865e-01,1.27617e-02,9.99999e-01
6.360682746e-01,1.38963e-02,9.99999e-01,9.99999e-01,9.99031e-01,1.39098e-02,9.99999e-01
6.392486160e-01,1.51164e-02,9.99999e-01,9.99999e-01,9.98746e-01,1.51354e-02,9.99999e-01
6.424448591e-01,1.64139e-02,9.99999e-01,9.99999e-01,9.98315e-01,1.64416e-02,9.99999e-01
6.456570834e-01,1.76923e-02,9.99999e-01,9.99999e-01,9.92203e-01,1.78313e-02,9.99999e-01
6.488853688e-01,1.91978e-02,9.99999e-01,9.99999e-01,9.94318e-01,1.93075e-02,9.99999e-01
6.521297956e-01,2.07523e-02,9.99999e-01,9.99999e-01,9.94209e-01,2.08732e-02,9.99999e-01
6.553904446e-01,2.24008e-02,9.99999e-01,9.99999e-01,9.94220e-01,2.25310e-02,9.99999e-01
6.586673968e-01,2.41638e-02,9.99999e-01,9.99999e-01,9.95059e-01,2.42838e-02,9.99999e-01
6.619607338e-01,2.60623e-02,9.99999e-01,9.99999e-01,9.97243e-01,2.61343e-02,9.99999e-01
6.652705375e-01,2.80386e-02,9.99999e-01,9.99999e-01,9.98344e-01,2.80850e-02,9.99999e-01
6.685968902e-01,3.01173e-02,9.99999e-01,9.99999e-01,9.99296e-01,3.01385e-02,9.99999e-01
6.719398746e-01,3.22855e-02,9.99999e-01,9.99999e-01,9.99643e-01,3.22970e-02,9.99999e-01
6.752995740e-01,3.45562e-02,9.99999e-01,9.99999e-01,9.99806e-01,3.45629e-02,9.99999e-01
6.786760719e-01,3.69279e-02,9.99999e-01,9.99999e-01,9.99719e-01,3.69382e-02,9.99999e-01
6.820694522e-01,3.94062e-02,9.99999e-01,9.99999e-01,9.99521e-01,3.94250e-02,9.99999e-01
6.854797995e-01,4.19992e-02,9.99999e-01,9.99999e-01,9.99382e-01,4.20251e-02,9.99999e-01
6.889071985e-01,4.46729e-02,9.99999e-01,9.99999e-01,9.98495e-01,4.47402e-02,9.99999e-01
6.923517345e-01,4.64219e-02,9.99999e-01,9.99999e-01,9.75826e-01,4.75719e-02,9.99999e-01
6.958134932e-01,4.98895e-02,9.99999e-01,9.99999e-01,9.87491e-01,5.05215e-02,9.99999e-01
6.992925606e-01,5.29463e-02,9.99999e-01,9.99999e-01,9.87983e-01,5.35902e-02,9.99999e-01
7.027890234e-01,5.59410e-02,9.99999e-01,9.99999e-01,9.85237e-01,5.67792e-02,9.99999e-01
7.063029686e-01,5.93421e-02,9.99999e-01,9.99999e-01,9.87565e-01,6.00893e-02,9.99999e-01
7.098344834e-01,6.27631e-02,9.99999e-01,9.99999e-01,9.88064e-01,6.35212e-02,9.99999e-01
7.133836558e-01,6.60054e-02,9.99999e-01,9.99999e-01,9.84046e-01,6.70755e-02,9.99998e-01
7.169505741e-01,6.22472e-02,9.99999e-01,9.99999e-01,8.79788e-01,7.07526e-02,9.99998e-01
7.205353270e-01,7.00513e-02,9.99999e-01,9.99999e-01,9.39623e-01,7.45526e-02,9.99997e-01
7.241380036e-01,7.24567e-02,9.99999e-01,9.99999e-01,9.23303e-01,7.84756e-02,9.99997e-01
7.277586936e-01,7.67918e-02,9.99999e-01,9.99999e-01,9.30570e-01,8.25213e-02,9.99998e-01
7.313974871e-01,8.03089e-02,9.99999e-01,9.99999e-01,9.26397e-01,8.66895e-02,9.99998e-01
7.350544745e-01,8.72518e-02,9.99999e-01,9.99999e-01,9.59025e-01,9.09797e-02,9.99998e-01
7.387297469e-01,9.24974e-02,9.99999e-01,9.99999e-01,9.69665e-01,9.53911e-02,9.99999e-01
7.424233956e-01,9.84294e-02,9.99999e-01,9.99999e-01,9.85052e-01,9.99229e-02,9.99999e-01
7.461355126e-01,1.03623e-01,9.99999e-01,9.99999e-01,9.90908e-01,1.04574e-01,9.99999e-01
7.498661902e-01,1.08880e-01,9.99999e-01,9.99999e-01,9.95763e-01,1.09343e-01,9.99999e-01
7.536155211e-01,1.13992e-01,9.99999e-01,9.99999e-01,9.97916e-01,1.14230e-01,9.99999e-01
7.573835987e-01,1.19103e-01,9.99999e-01,9.99999e-01,9.98927e-01,1.19231e-01,9.99999e-01
7.611705167e-01,1.24264e-01,9.99999e-01,9.99999e-01,9.99333e-01,1.24347e-01,9.99999e-01
7.649763693e-01,1.29520e-01,9.99999e-01,9.99999e-01,9.99581e-01,1.29574e-01,9.99999e-01
7.688012511e-01,1.34872e-01,9.99999e-01,9.99999e-01,9.99708e-01,1.34911e-01,9.99999e-01
7.726452574e-01,1.40322e-01,9.99999e-01,9.99999e-01,9.99759e-01,1.40356e-01,9.99999e-01
7.765084837e-01,1.45857e-01,9.99999e-01,9.99999e-01,9.99657e-01,1.45907e-01,9.99999e-01
7.803910261e-01,1.39615e-01,9.99999e-01,9.22448e-01,9.98521e-01,1.51561e-01,9.99999e-01
7.842929812e-01,1.07065e-01,9.99999e-01,6.83721e-01,9.94848e-01,1.57316e-01,9.99999e-01
7.882144461e-01,1.07901e-01,9.99999e-01,6.67699e-01,9.89455e-01,1.63169e-01,9.99999e-01
7.921555184e-01,1.31541e-01,9.99999e-01,7.82070e-01,9.94220e-01,1.69118e-01,9.99999e-01
7.961162960e-01,1.46965e-01,9.99999e-01,8.47523e-01,9.89751e-01,1.75160e-01,9.99999e-01
8.000968774e-01,1.63768e-01,9.99999e-01,9.14048e-01,9.88196e-01,1.81292e-01,9.99999e-01
8.040973618e-01,1.76884e-01,9.99999e-01,9.54543e-01,9.88186e-01,1.87512e-01,9.99999e-01
8.081178486e-01,1.84702e-01,9.99999e-01,9.78810e-01,9.73514e-01,1.93815e-01,9.99998e-01
8.121584379e-01,1.77953e-01,9.99999e-01,9.93440e-01,8.94598e-01,2.00200e-01,9.99998e-01
8.162192301e-01,1.80963e-01,9.99999e-01,9.98547e-01,8.76861e-01,2.06662e-01,9.99997e-01
8.203003262e-01,1.99740e-01,9.99999e-01,9.99979e-01,9.36885e-01,2.13200e-01,9.99997e-01
8.244018279e-01,2.00974e-01,9.99999e-01,9.99999e-01,9.14316e-01,2.19809e-01,9.99997e-01
8.285238370e-01,2.09306e-01,9.99999e-01,9.99999e-01,9.24147e-01,2.26486e-01,9.99998e-01
8.326664562e-01,2.15403e-01,9.99999e-01,9.99999e-01,9.23573e-01,2.33228e-01,9.99998e-01
8.368297885e-01,2.26751e-01,9.99999e-01,9.99999e-01,9.44673e-01,2.40032e-01,9.99998e-01
8.410139374e-01,2.38681e-01,9.99999e-01,9.99999e-01,9.66736e-01,2.46894e-01,9.99999e-01
8.452190071e-01,2.49636e-01,9.99999e-01,9.99999e-01,9.83551e-01,2.53810e-01,9.99999e-01
8.494451021e-01,2.58277e-01,9.99999e-01,9.99999e-01,9.90407e-01,2.60778e-01,9.99999e-01
8.536923276e-01,2.66275e-01,9.99999e-01,9.99999e-01,9.94326e-01,2.67794e-01,9.99999e-01
8.579607893e-01,2.73893e-01,9.99999e-01,9.99999e-01,9.96497e-01,2.74855e-01,9.99999e-01
8.622505932e-01,2.81330e-01,9.99999e-01,9.99999e-01,9.97776e-01,2.81957e-01,9.99999e-01
8.665618462e-01,2.52873e-01,9.99999e-01,8.75830e-01,9.98621e-01,2.89097e-01,9.99999e-01
8.708946554e-01,1.15291e-01,9.99999e-01,3.89709e-01,9.98420e-01,2.96271e-01,9.99999e-01
8.752491287e-01,1.39012e-01,9.99999e-01,4.58975e-01,9.97888e-01,3.03476e-01,9.99999e-01
8.796253743e-01,2.00254e-01,9.99999e-01,6.46268e-01,9.97072e-01,3.10709e-01,9.99999e-01
8.840235012e-01,2.51896e-01,9.99999e-01,7.94764e-01,9.96657e-01,3.17966e-01,9.99999e-01
8.884436187e-01,2.93462e-01,9.99999e-01,9.13159e-01,9.87785e-01,3.25245e-01,9.99998e-01
8.928858368e-01,2.82221e-01,9.99999e-01,9.63772e-01,8.79847e-01,3.32541e-01,9.99997e-01
8.973502660e-01,2.69161e-01,9.99999e-01,9.91103e-01,7.98737e-01,3.39852e-01,9.99996e-01
9.018370173e-01,3.09404e-01,9.99999e-01,9.99016e-01,8.92018e-01,3.47175e-01,9.99996e-01
9.063462024e-01,3.12880e-01,9.99999e-01,9.74991e-01,9.03411e-01,3.54506e-01,9.99995e-01
9.108779334e-01,2.92026e-01,9.99999e-01,9.43468e-01,8.53901e-01,3.61842e-01,9.99995e-01
9.154323231e-01,3.04520e-01,9.99999e-01,9.86495e-01,8.35540e-01,3.69181e-01,9.99995e-01
9.200094847e-01,2.77682e-01,9.99999e-01,8.34866e-01,8.69147e-01,3.76520e-01,9.99993e-01
9.246095321e-01,2.35488e-01,9.99999e-01,7.53037e-01,8.05939e-01,3.83855e-01,9.99989e-01
9.292325798e-01,8.30646e-02,9.99999e-01,8.02332e-01,2.53333e-01,3.91184e-01,9.99978e-01
9.338787427e-01,5.76238e-02,9.99999e-01,8.07433e-01,1.71998e-01,3.98504e-01,9.99972e-01
9.385481364e-01,1.72541e-01,9.99999e-01,8.53651e-01,4.88668e-01,4.05812e-01,9.99971e-01
9.432408771e-01,1.43772e-01,9.99999e-01,9.07418e-01,3.79358e-01,4.13106e-01,9.99968e-01
9.479570815e-01,1.06102e-01,9.99999e-01,9.51289e-01,2.63875e-01,4.20383e-01,9.99972e-01
9.526968669e-01,1.50293e-01,9.99999e-01,9.76253e-01,3.58549e-01,4.27641e-01,9.99978e-01
9.574603512e-01,1.62777e-01,9.99999e-01,9.89773e-01,3.77595e-01,4.34877e-01,9.99984e-01
9.622476530e-01,1.97613e-01,9.99999e-01,9.96800e-01,4.48236e-01,4.42089e-01,9.99989e-01
9.670588912e-01,2.81578e-01,9.99999e-01,9.99041e-01,6.27270e-01,4.49274e-01,9.99993e-01
9.718941857e-01,3.38991e-01,9.99999e-01,9.99932e-01,7.42743e-01,4.56431e-01,9.99995e-01
9.767536566e-01,3.62023e-01,9.99999e-01,9.99999e-01,7.80968e-01,4.63557e-01,9.99996e-01
9.816374249e-01,3.91689e-01,9.99999e-01,9.99999e-01,8.32230e-01,4.70650e-01,9.99997e-01
9.865456120e-01,4.25826e-01,9.99999e-01,9.99999e-01,8.91391e-01,4.77709e-01,9.99998e-01
9.914783401e-01,4.51420e-01,9.99999e-01,9.99999e-01,9.31279e-01,4.84731e-01,9.99999e-01
9.964357318e-01,4.73016e-01,9.99999e-01,9.99999e-01,9.61971e-01,4.91714e-01,9.99999e-01
1.001417910e+00,4.87203e-01,9.99999e-01,9.99999e-01,9.77028e-01,4.98658e-01,9.99999e-01
1.006425000e+00,4.98899e-01,9.99999e-01,9.99999e-01,9.86826e-01,5.05559e-01,9.99999e-01
1.011457125e+00,5.08222e-01,9.99999e-01,9.99999e-01,9.91814e-01,5.12416e-01,9.99999e-01
1.016514411e+00,5.16338e-01,9.99999e-01,9.99999e-01,9.94432e-01,5.19228e-01,9.99999e-01
1.021596983e+00,5.23583e-01,9.99999e-01,9.99854e-01,9.95559e-01,5.25994e-01,9.99999e-01
1.026704968e+00,5.25594e-01,9.99999e-01,9.90057e-01,9.96534e-01,5.32712e-01,9.99999e-01
1.031838492e+00,4.91272e-01,9.99999e-01,9.12988e-01,9.97482e-01,5.39380e-01,9.99999e-01
1.036997685e+00,3.30420e-02,9.99999e-01,6.05855e-02,9.98502e-01,5.45997e-01,9.99999e-01
1.042182673e+00,3.95220e-03,9.99999e-01,7.16256e-03,9.98211e-01,5.52563e-01,9.99999e-01
1.047393587e+00,8.99824e-03,9.99999e-01,1.61270e-02,9.97631e-01,5.59075e-01,9.99999e-01
1.052630555e+00,3.38037e-06,9.99999e-01,5.98981e-06,9.96748e-01,5.65533e-01,9.99999e-01
1.057893707e+00,1.26820e-05,9.99999e-01,2.22389e-05,9.94574e-01,5.71936e-01,9.99999e-01
1.063183176e+00,1.99779e-04,9.99999e-01,3.47316e-04,9.91091e-01,5.78283e-01,9.99999e-01
1.068499092e+00,1.55615e-03,9.99999e-01,2.68994e-03,9.85137e-01,5.84573e-01,9.99999e-01
1.073841587e+00,1.31406e-02,9.99999e-01,2.25335e-02,9.82623e-01,5.90805e-01,9.99999e-01
1.079210795e+00,5.38347e-02,9.99999e-01,9.18297e-02,9.77811e-01,5.96979e-01,9.99998e-01
1.084606849e+00,1.52191e-01,9.99999e-01,2.60141e-01,9.66592e-01,6.03093e-01,9.99998e-01
1.090029883e+00,2.87702e-01,9.99999e-01,4.94316e-01,9.52287e-01,6.09147e-01,9.99997e-01
1.095480033e+00,3.81622e-01,9.99999e-01,7.06063e-01,8.75457e-01,6.15141e-01,9.99996e-01
1.100957433e+00,3.76937e-01,9.99999e-01,8.44995e-01,7.15030e-01,6.21073e-01,9.99993e-01
1.106462220e+00,2.56602e-01,9.99999e-01,9.32682e-01,4.36290e-01,6.26944e-01,9.99987e-01
1.111994531e+00,1.12543e-01,9.99999e-01,9.74474e-01,1.81790e-01,6.32753e-01,9.99974e-01
1.117554504e+00,4.32930e-02,9.99999e-01,9.93724e-01,6.80786e-02,6.38499e-01,9.99963e-01
1.123142276e+00,1.00150e-01,9.99999e-01,9.99588e-01,1.55487e-01,6.44182e-01,9.99957e-01
1.128757988e+00,1.81784e-01,9.99999e-01,9.99999e-01,2.79765e-01,6.49802e-01,9.99953e-01
1.134401778e+00,8.34011e-02,9.99999e-01,9.99999e-01,1.27267e-01,6.55359e-01,9.99948e-01
1.140073787e+00,3.00332e-01,9.99999e-01,9.99999e-01,4.54481e-01,6.60852e-01,9.99958e-01
1.145774156e+00,1.39639e-01,9.99999e-01,9.99999e-01,2.09587e-01,6.66281e-01,9.99964e-01
1.151503026e+00,1.19633e-01,9.99999e-01,9.99999e-01,1.78124e-01,6.71647e-01,9.99969e-01
1.157260541e+00,1.47723e-01,9.99999e-01,9.99999e-01,2.18224e-01,6.76948e-01,9.99976e-01
1.163046844e+00,2.19601e-01,9.99999e-01,9.99999e-01,3.21913e-01,6.82185e-01,9.99984e-01
1.168862078e+00,3.07197e-01,9.99999e-01,9.99999e-01,4.46927e-01,6.87358e-01,9.99992e-01
1.174706389e+00,4.20760e-01,9.99999e-01,9.99999e-01,6.07627e-01,6.92467e-01,9.99995e-01
1.180579921e+00,5.14350e-01,9.99999e-01,9.99999e-01,7.37408e-01,6.97512e-01,9.99997e-01
1.186482820e+00,5.90830e-01,9.99999e-01,9.99979e-01,8.41064e-01,7.02493e-01,9.99997e-01
1.192415234e+00,6.18034e-01,9.99999e-01,9.65782e-01,9.03706e-01,7.07410e-01,9.99997e-01
1.198377311e+00,3.48774e-01,9.99999e-01,5.25740e-01,9.18171e-01,7.12263e-01,9.99998e-01
1.204369197e+00,5.63177e-26,9.99999e-01,8.22950e-26,9.22588e-01,7.17053e-01,9.99998e-01
1.210391043e+00,4.10565e-104,9.99999e-01,5.93773e-104,9.25754e-01,7.21779e-01,9.99998e-01
1.216442998e+00,3.85695e-90,9.99999e-01,5.52981e-90,9.36543e-01,7.26442e-01,9.99998e-01
1.222525213e+00,8.72713e-89,9.99999e-01,1.22567e-88,9.50165e-01,7.31043e-01,9.99999e-01
1.228637839e+00,1.49930e-68,9.99999e-01,2.08767e-68,9.65108e-01,7.35580e-01,9.99999e-01
