#,Wave/freq,Total,O2,CO2,H2O,Rayleigh,CIA
4.000000000e-01,9.39186e-06,9.99999e-01,9.99999e-01,9.99976e-01,9.39207e-06,9.99999e-01
4.020000000e-01,1.18075e-05,9.99999e-01,9.99999e-01,9.99985e-01,1.18077e-05,9.99999e-01
4.040100000e-01,1.47740e-05,9.99999e-01,9.99999e-01,9.99993e-01,1.47741e-05,9.99999e-01
4.060300500e-01,1.84041e-05,9.99999e-01,9.99999e-01,9.99998e-01,1.84041e-05,9.99999e-01
4.080602003e-01,2.28268e-05,9.99999e-01,9.99999e-01,9.99999e-01,2.28268e-05,9.99999e-01
4.101005013e-01,2.81921e-05,9.99999e-01,9.99999e-01,9.99999e-01,2.81921e-05,9.99999e-01
4.121510038e-01,3.46735e-05,9.99999e-01,9.99999e-01,9.99998e-01,3.46735e-05,9.99999e-01
4.142117588e-01,4.24709e-05,9.99999e-01,9.99999e-01,9.99993e-01,4.24712e-05,9.99999e-01
4.162828176e-01,5.18129e-05,9.99999e-01,9.99999e-01,9.99971e-01,5.18144e-05,9.99999e-01
4.183642317e-01,6.29641e-05,9.99999e-01,9.99999e-01,9.99982e-01,6.29652e-05,9.99999e-01
4.204560528e-01,7.62209e-05,9.99999e-01,9.99999e-01,9.99989e-01,7.62217e-05,9.99999e-01
4.225583331e-01,9.19213e-05,9.99999e-01,9.99999e-01,9.99995e-01,9.19216e-05,9.99999e-01
4.246711247e-01,1.10446e-04,9.99999e-01,9.99999e-01,9.99996e-01,1.10446e-04,9.99999e-01
4.267944804e-01,1.32223e-04,9.99999e-01,9.99999e-01,9.99995e-01,1.32223e-04,9.99999e-01
4.289284528e-01,1.57732e-04,9.99999e-01,9.99999e-01,9.99996e-01,1.57733e-04,9.99999e-01
4.310730950e-01,1.87509e-04,9.99999e-01,9.99999e-01,9.99998e-01,1.87509e-04,9.99999e-01
4.332284605e-01,2.22146e-04,9.99999e-01,9.99999e-01,9.99999e-01,2.22146e-04,9.99999e-01
4.353946028e-01,2.62302e-04,9.99999e-01,9.99999e-01,9.99999e-01,2.62302e-04,9.99999e-01
4.375715758e-01,3.08701e-04,9.99999e-01,9.99999e-01,9.99996e-01,3.08702e-04,9.99999e-01
4.397594337e-01,3.62134e-04,9.99999e-01,9.99999e-01,9.99974e-01,3.62143e-04,9.99999e-01
4.419582309e-01,4.23444e-04,9.99999e-01,9.99999e-01,9.99874e-01,4.23497e-04,9.99999e-01
4.441680220e-01,4.93669e-04,9.99999e-01,9.99999e-01,9.99901e-01,4.93717e-04,9.99999e-01
4.463888621e-01,5.73781e-04,9.99999e-01,9.99999e-01,9.99897e-01,5.73839e-04,9.99999e-01
4.486208064e-01,6.64944e-04,9.99999e-01,9.99999e-01,9.99936e-01,6.64986e-04,9.99999e-01
4.508639105e-01,7.68346e-04,9.99999e-01,9.99999e-01,9.99969e-01,7.68369e-04,9.99999e-01
4.531182300e-01,8.85283e-04,9.99999e-01,9.99999e-01,9.99987e-01,8.85294e-04,9.99999e-01
4.553838212e-01,1.01715e-03,9.99999e-01,9.99999e-01,9.99991e-01,1.01716e-03,9.99999e-01
4.576607403e-01,1.16547e-03,9.99999e-01,9.99999e-01,9.99995e-01,1.16547e-03,9.99999e-01
4.599490440e-01,1.33182e-03,9.99999e-01,9.99999e-01,9.99996e-01,1.33182e-03,9.99999e-01
4.622487892e-01,1.51790e-03,9.99999e-01,9.99999e-01,9.99999e-01,1.51790e-03,9.99999e-01
4.645600332e-01,1.72552e-03,9.99999e-01,9.99999e-01,9.99997e-01,1.72553e-03,9.99999e-01
4.668828333e-01,1.95653e-03,9.99999e-01,9.99999e-01,9.99969e-01,1.95659e-03,9.99999e-01
4.692172475e-01,2.21295e-03,9.99999e-01,9.99999e-01,9.99935e-01,2.21309e-03,9.99999e-01
4.715633337e-01,2.49703e-03,9.99999e-01,9.99999e-01,9.99957e-01,2.49714e-03,9.99999e-01
4.739211504e-01,2.81081e-03,9.99999e-01,9.99999e-01,9.99959e-01,2.81092e-03,9.99999e-01
4.762907561e-01,3.15669e-03,9.99999e-01,9.99999e-01,9.99978e-01,3.15675e-03,9.99999e-01
4.786722099e-01,3.53698e-03,9.99999e-01,9.99999e-01,9.99991e-01,3.53701e-03,9.99999e-01
4.810655710e-01,3.95418e-03,9.99999e-01,9.99999e-01,9.99996e-01,3.95419e-03,9.99999e-01
4.834708988e-01,4.41073e-03,9.99999e-01,9.99999e-01,9.99975e-01,4.41084e-03,9.99999e-01
4.858882533e-01,4.90940e-03,9.99999e-01,9.99999e-01,9.99954e-01,4.90962e-03,9.99999e-01
4.883176946e-01,5.45304e-03,9.99999e-01,9.99999e-01,9.99961e-01,5.45325e-03,9.99999e-01
4.907592831e-01,6.04432e-03,9.99999e-01,9.99999e-01,9.99965e-01,6.04452e-03,9.99999e-01
4.932130795e-01,6.68613e-03,9.99999e-01,9.99999e-01,9.99975e-01,6.68630e-03,9.99999e-01
4.956791449e-01,7.38139e-03,9.99999e-01,9.99999e-01,9.99986e-01,7.38148e-03,9.99999e-01
4.981575406e-01,8.13252e-03,9.99999e-01,9.99999e-01,9.99935e-01,8.13304e-03,9.99999e-01
5.006483283e-01,8.94249e-03,9.99999e-01,9.99999e-01,9.99833e-01,8.94398e-03,9.99999e-01
5.031515699e-01,9.80905e-03,9.99999e-01,9.99999e-01,9.99156e-01,9.81732e-03,9.99999e-01
5.056673278e-01,1.07514e-02,9.99999e-01,9.99999e-01,9.99555e-01,1.07561e-02,9.99999e-01
5.081956644e-01,1.17569e-02,9.99999e-01,9.99999e-01,9.99438e-01,1.17635e-02,9.99999e-01
5.107366428e-01,1.28376e-02,9.99999e-01,9.99999e-01,9.99620e-01,1.28424e-02,9.99999e-01
5.132903260e-01,1.39931e-02,9.99999e-01,9.99999e-01,9.99783e-01,1.39961e-02,9.99999e-01
5.158567776e-01,1.52261e-02,9.99999e-01,9.99999e-01,9.99908e-01,1.52275e-02,9.99999e-01
5.184360615e-01,1.65390e-02,9.99999e-01,9.99999e-01,9.99962e-01,1.65396e-02,9.99999e-01
5.210282418e-01,1.79353e-02,9.99999e-01,9.99999e-01,9.99985e-01,1.79355e-02,9.99999e-01
5.236333830e-01,1.94170e-02,9.99999e-01,9.99999e-01,9.99944e-01,1.94181e-02,9.99999e-01
5.262515499e-01,2.09896e-02,9.99999e-01,9.99999e-01,9.99965e-01,2.09903e-02,9.99999e-01
5.288828077e-01,2.26542e-02,9.99999e-01,9.99999e-01,9.99968e-01,2.26550e-02,9.99999e-01
5.315272217e-01,2.44141e-02,9.99999e-01,9.99999e-01,9.99971e-01,2.44148e-02,9.99999e-01
5.341848578e-01,2.62720e-02,9.99999e-01,9.99999e-01,9.99981e-01,2.62725e-02,9.99999e-01
5.368557821e-01,2.82288e-02,9.99999e-01,9.99999e-01,9.99935e-01,2.82306e-02,9.99999e-01
5.395400610e-01,3.02846e-02,9.99999e-01,9.99999e-01,9.99768e-01,3.02916e-02,9.99999e-01
5.422377613e-01,3.24481e-02,9.99999e-01,9.99999e-01,9.99701e-01,3.24578e-02,9.99999e-01
5.449489501e-01,3.47219e-02,9.99999e-01,9.99999e-01,9.99722e-01,3.47316e-02,9.99999e-01
5.476736949e-01,3.71058e-02,9.99999e-01,9.99999e-01,9.99754e-01,3.71149e-02,9.99999e-01
5.504120634e-01,3.96028e-02,9.99999e-01,9.99999e-01,9.99821e-01,3.96099e-02,9.99999e-01
5.531641237e-01,4.22145e-02,9.99999e-01,9.99999e-01,9.99909e-01,4.22183e-02,9.99999e-01
5.559299443e-01,4.49398e-02,9.99999e-01,9.99999e-01,9.99956e-01,4.49418e-02,9.99999e-01
5.587095940e-01,4.77806e-02,9.99999e-01,9.99999e-01,9.99972e-01,4.77819e-02,9.99999e-01
5.615031420e-01,5.07386e-02,9.99999e-01,9.99999e-01,9.99969e-01,5.07401e-02,9.99999e-01
5.643106577e-01,5.38157e-02,9.99999e-01,9.99999e-01,9.99965e-01,5.38176e-02,9.99999e-01
5.671322110e-01,5.69915e-02,9.99999e-01,9.99999e-01,9.99582e-01,5.70153e-02,9.99999e-01
5.699678720e-01,6.03075e-02,9.99999e-01,9.99999e-01,9.99556e-01,6.03342e-02,9.99999e-01
5.728177114e-01,6.37456e-02,9.99999e-01,9.99999e-01,9.99538e-01,6.37750e-02,9.99999e-01
5.756818000e-01,6.73097e-02,9.99999e-01,9.99999e-01,9.99576e-01,6.73382e-02,9.99999e-01
5.785602090e-01,7.09980e-02,9.99999e-01,9.99999e-01,9.99630e-01,7.10242e-02,9.99999e-01
5.814530100e-01,7.48054e-02,9.99999e-01,9.99999e-01,9.99628e-01,7.48331e-02,9.99999e-01
5.843602750e-01,7.87302e-02,9.99999e-01,9.99999e-01,9.99557e-01,7.87650e-02,9.99999e-01
5.872820764e-01,8.25042e-02,9.99999e-01,9.99999e-01,9.96190e-01,8.28197e-02,9.99999e-01
5.902184868e-01,8.65958e-02,9.99999e-01,9.99999e-01,9.95390e-01,8.69968e-02,9.99999e-01
5.931695792e-01,9.09983e-02,9.99999e-01,9.99999e-01,9.96741e-01,9.12957e-02,9.99999e-01
5.961354271e-01,9.53741e-02,9.99999e-01,9.99999e-01,9.96428e-01,9.57159e-02,9.99999e-01
5.991161043e-01,9.99953e-02,9.99999e-01,9.99999e-01,9.97394e-01,1.00256e-01,9.99999e-01
6.021116848e-01,1.04761e-01,9.99999e-01,9.99999e-01,9.98521e-01,1.04916e-01,9.99999e-01
6.051222432e-01,1.09612e-01,9.99999e-01,9.99999e-01,9.99251e-01,1.09694e-01,9.99999e-01
6.081478544e-01,1.14552e-01,9.99999e-01,9.99999e-01,9.99676e-01,1.14589e-01,9.99999e-01
6.111885937e-01,1.19582e-01,9.99999e-01,9.99999e-01,9.99863e-01,1.19599e-01,9.99999e-01
6.142445367e-01,1.24715e-01,9.99999e-01,9.99999e-01,9.99938e-01,1.24722e-01,9.99999e-01
6.173157594e-01,1.29953e-01,9.99999e-01,9.99999e-01,9.99965e-01,1.29957e-01,9.99999e-01
6.204023382e-01,1.35299e-01,9.99999e-01,9.99999e-01,9.99971e-01,1.35302e-01,9.99999e-01
6.235043498e-01,1.40738e-01,9.99999e-01,9.99999e-01,9.99873e-01,1.40755e-01,9.99999e-01
6.266218716e-01,1.46216e-01,9.99999e-01,9.99999e-01,9.99335e-01,1.46314e-01,9.99999e-01
6.297549810e-01,1.51938e-01,9.99999e-01,9.99999e-01,9.99756e-01,1.51975e-01,9.99999e-01
6.329037559e-01,1.57661e-01,9.99999e-01,9.99999e-01,9.99518e-01,1.57737e-01,9.99999e-01
6.360682746e-01,1.63531e-01,9.99999e-01,9.99999e-01,9.99589e-01,1.63598e-01,9.99999e-01
6.392486160e-01,1.69464e-01,9.99999e-01,9.99999e-01,9.99468e-01,1.69554e-01,9.99999e-01
6.424448591e-01,1.75477e-01,9.99999e-01,9.99999e-01,9.99288e-01,1.75602e-01,9.99999e-01
6.456570834e-01,1.81141e-01,9.99999e-01,9.99999e-01,9.96699e-01,1.81741e-01,9.99999e-01
6.488853688e-01,1.87512e-01,9.99999e-01,9.99999e-01,9.97585e-01,1.87966e-01,9.99999e-01
6.521297956e-01,1.93798e-01,9.99999e-01,9.99999e-01,9.97538e-01,1.94276e-01,9.99999e-01
6.553904446e-01,2.00174e-01,9.99999e-01,9.99999e-01,9.97549e-01,2.00666e-01,9.99999e-01
6.586673968e-01,2.06700e-01,9.99999e-01,9.99999e-01,9.97901e-01,2.07134e-01,9.99999e-01
6.619607338e-01,2.13427e-01,9.99999e-01,9.99999e-01,9.98830e-01,2.13677e-01,9.99999e-01
6.652705375e-01,2.20136e-01,9.99999e-01,9.99999e-01,9.99297e-01,2.20291e-01,9.99999e-01
6.685968902e-01,2.26899e-01,9.99999e-01,9.99999e-01,9.99673e-01,2.26973e-01,9.99999e-01
6.719398746e-01,2.33684e-01,9.99999e-01,9.99999e-01,9.99848e-01,2.33720e-01,9.99999e-01
6.752995740e-01,2.40508e-01,9.99999e-01,9.99999e-01,9.99917e-01,2.40528e-01,9.99999e-01
6.786760719e-01,2.47364e-01,9.99999e-01,9.99999e-01,9.99881e-01,2.47394e-01,9.99999e-01
6.820694522e-01,2.54263e-01,9.99999e-01,9.99999e-01,9.99797e-01,2.54314e-01,9.99999e-01
6.854797995e-01,2.61218e-01,9.99999e-01,9.99999e-01,9.99738e-01,2.61286e-01,9.99999e-01
6.889071985e-01,2.68135e-01,9.99999e-01,9.99999e-01,9.99366e-01,2.68305e-01,9.99999e-01
6.923517345e-01,2.72533e-01,9.99999e-01,9.99999e-01,9.89700e-01,2.75369e-01,9.99999e-01
6.958134932e-01,2.80961e-01,9.99999e-01,9.99999e-01,9.94644e-01,2.82474e-01,9.99999e-01
6.992925606e-01,2.88140e-01,9.99999e-01,9.99999e-01,9.94901e-01,2.89616e-01,9.99999e-01
7.027890234e-01,2.94927e-01,9.99999e-01,9.99999e-01,9.93711e-01,2.96793e-01,9.99999e-01
7.063029686e-01,3.02392e-01,9.99999e-01,9.99999e-01,9.94711e-01,3.04000e-01,9.99999e-01
7.098344834e-01,3.09655e-01,9.99999e-01,9.99999e-01,9.94925e-01,3.11235e-01,9.99999e-01
7.133836558e-01,3.16338e-01,9.99999e-01,9.99999e-01,9.93231e-01,3.18494e-01,9.99999e-01
7.169505741e-01,3.08438e-01,9.99999e-01,9.99999e-01,9.46786e-01,3.25774e-01,9.99998e-01
7.205353270e-01,3.24297e-01,9.99999e-01,9.99999e-01,9.73657e-01,3.33071e-01,9.99998e-01
7.241380036e-01,3.29017e-01,9.99999e-01,9.99999e-01,9.66607e-01,3.40383e-01,9.99998e-01
7.277586936e-01,3.37213e-01,9.99999e-01,9.99999e-01,9.69821e-01,3.47707e-01,9.99998e-01
7.313974871e-01,3.43663e-01,9.99999e-01,9.99999e-01,9.67961e-01,3.55038e-01,9.99999e-01
7.350544745e-01,3.55989e-01,9.99999e-01,9.99999e-01,9.82376e-01,3.62375e-01,9.99999e-01
7.387297469e-01,3.64910e-01,9.99999e-01,9.99999e-01,9.87006e-01,3.69714e-01,9.99999e-01
7.424233956e-01,3.74649e-01,9.99999e-01,9.99999e-01,9.93625e-01,3.77052e-01,9.99999e-01
7.461355126e-01,3.82901e-01,9.99999e-01,9.99999e-01,9.96132e-01,3.84387e-01,9.99999e-01
7.498661902e-01,3.91010e-01,9.99999e-01,9.99999e-01,9.98198e-01,3.91715e-01,9.99999e-01
7.536155211e-01,3.98682e-01,9.99999e-01,9.99999e-01,9.99115e-01,3.99034e-01,9.99999e-01
7.573835987e-01,4.06157e-01,9.99999e-01,9.99999e-01,9.99544e-01,4.06342e-01,9.99999e-01
7.611705167e-01,4.13518e-01,9.99999e-01,9.99999e-01,9.99716e-01,4.13635e-01,9.99999e-01
7.649763693e-01,4.20836e-01,9.99999e-01,9.99999e-01,9.99822e-01,4.20910e-01,9.99999e-01
7.688012511e-01,4.28114e-01,9.99999e-01,9.99999e-01,9.99876e-01,4.28167e-01,9.99999e-01
7.726452574e-01,4.35357e-01,9.99999e-01,9.99999e-01,9.99898e-01,4.35401e-01,9.99999e-01
7.765084837e-01,4.42547e-01,9.99999e-01,9.99999e-01,9.99855e-01,4.42611e-01,9.99999e-01
7.803910261e-01,4.32734e-01,9.99999e-01,9.62650e-01,9.99375e-01,4.49794e-01,9.99999e-01
7.842929812e-01,3.85436e-01,9.99999e-01,8.45243e-01,9.97821e-01,4.56949e-01,9.99999e-01
7.882144461e-01,3.85944e-01,9.99999e-01,8.35225e-01,9.95518e-01,4.64073e-01,9.99999e-01
7.921555184e-01,4.23034e-01,9.99999e-01,9.00002e-01,9.97542e-01,4.71164e-01,9.99999e-01
7.961162960e-01,4.43745e-01,9.99999e-01,9.31918e-01,9.95654e-01,4.78220e-01,9.99999e-01
8.000968774e-01,4.64705e-01,9.99999e-01,9.62493e-01,9.94984e-01,4.85239e-01,9.99999e-01
8.040973618e-01,4.80158e-01,9.99999e-01,9.80403e-01,9.94982e-01,4.92220e-01,9.99999e-01
8.081178486e-01,4.89067e-01,9.99999e-01,9.90952e-01,9.88708e-01,4.99160e-01,9.99999e-01
8.121584379e-01,4.81309e-01,9.99999e-01,9.97200e-01,9.53735e-01,5.06058e-01,9.99998e-01
8.162192301e-01,4.84590e-01,9.99999e-01,9.99381e-01,9.45354e-01,5.12912e-01,9.99998e-01
8.203003262e-01,5.05349e-01,9.99999e-01,9.99990e-01,9.72354e-01,5.19721e-01,9.99998e-01
8.244018279e-01,5.06291e-01,9.99999e-01,9.99999e-01,9.61648e-01,5.26483e-01,9.99998e-01
8.285238370e-01,5.15612e-01,9.99999e-01,9.99999e-01,9.67020e-01,5.33197e-01,9.99998e-01
8.326664562e-01,5.21872e-01,9.99999e-01,9.99999e-01,9.66676e-01,5.39862e-01,9.99999e-01
8.368297885e-01,5.33413e-01,9.99999e-01,9.99999e-01,9.76097e-01,5.46475e-01,9.99999e-01
8.410139374e-01,5.45148e-01,9.99999e-01,9.99999e-01,9.85735e-01,5.53037e-01,9.99999e-01
8.452190071e-01,5.55620e-01,9.99999e-01,9.99999e-01,9.92983e-01,5.59545e-01,9.99999e-01
8.494451021e-01,5.63693e-01,9.99999e-01,9.99999e-01,9.95923e-01,5.66000e-01,9.99999e-01
8.536923276e-01,5.71019e-01,9.99999e-01,9.99999e-01,9.97588e-01,5.72399e-01,9.99999e-01
8.579607893e-01,5.77882e-01,9.99999e-01,9.99999e-01,9.98514e-01,5.78742e-01,9.99999e-01
8.622505932e-01,5.84475e-01,9.99999e-01,9.99999e-01,9.99055e-01,5.85027e-01,9.99999e-01
8.665618462e-01,5.43739e-01,9.99999e-01,9.20148e-01,9.99415e-01,5.91255e-01,9.99999e-01
8.708946554e-01,3.89836e-01,9.99999e-01,6.52947e-01,9.99330e-01,5.97425e-01,9.99999e-01
8.752491287e-01,4.27457e-01,9.99999e-01,7.08869e-01,9.99105e-01,6.03534e-01,9.99999e-01
8.796253743e-01,5.03818e-01,9.99999e-01,8.27487e-01,9.98760e-01,6.09584e-01,9.99999e-01
8.840235012e-01,5.57163e-01,9.99999e-01,9.06374e-01,9.98584e-01,6.15573e-01,9.99999e-01
8.884436187e-01,5.94835e-01,9.99999e-01,9.62009e-01,9.94834e-01,6.21501e-01,9.99999e-01
8.928858368e-01,5.84878e-01,9.99999e-01,9.84431e-01,9.46874e-01,6.27368e-01,9.99998e-01
8.973502660e-01,5.72785e-01,9.99999e-01,9.96201e-01,9.08000e-01,6.33172e-01,9.99998e-01
9.018370173e-01,6.07977e-01,9.99999e-01,9.99580e-01,9.51966e-01,6.38913e-01,9.99998e-01
9.063462024e-01,6.10824e-01,9.99999e-01,9.89254e-01,9.57548e-01,6.44592e-01,9.99997e-01
9.108779334e-01,5.93029e-01,9.99999e-01,9.75545e-01,9.34611e-01,6.50208e-01,9.99997e-01
9.154323231e-01,6.03845e-01,9.99999e-01,9.94213e-01,9.26065e-01,6.55760e-01,9.99997e-01
9.200094847e-01,5.74468e-01,9.99999e-01,9.19423e-01,9.41633e-01,6.61248e-01,9.99997e-01
9.246095321e-01,5.38834e-01,9.99999e-01,8.85885e-01,9.10182e-01,6.66673e-01,9.99995e-01
9.292325798e-01,3.30515e-01,9.99999e-01,9.09399e-01,5.34947e-01,6.72033e-01,9.99990e-01
9.338787427e-01,2.79142e-01,9.99999e-01,9.12322e-01,4.47009e-01,6.77330e-01,9.99987e-01
9.385481364e-01,4.62887e-01,9.99999e-01,9.34760e-01,7.22402e-01,6.82562e-01,9.99987e-01
9.432408771e-01,4.21563e-01,9.99999e-01,9.59545e-01,6.37235e-01,6.87731e-01,9.99986e-01
9.479570815e-01,3.65686e-01,9.99999e-01,9.79032e-01,5.38442e-01,6.92835e-01,9.99987e-01
9.526968669e-01,4.33719e-01,9.99999e-01,9.89839e-01,6.27254e-01,6.97875e-01,9.99990e-01
9.574603512e-01,4.54557e-01,9.99999e-01,9.95643e-01,6.49359e-01,7.02852e-01,9.99992e-01
9.622476530e-01,4.97156e-01,9.99999e-01,9.98639e-01,7.03328e-01,7.07764e-01,9.99995e-01
9.670588912e-01,5.81441e-01,9.99999e-01,9.99592e-01,8.16245e-01,7.12613e-01,9.99996e-01
9.718941857e-01,6.31699e-01,9.99999e-01,9.99970e-01,8.80566e-01,7.17398e-01,9.99997e-01
9.767536566e-01,6.49758e-01,9.99999e-01,9.99999e-01,8.99793e-01,7.22119e-01,9.99998e-01
9.816374249e-01,6.72079e-01,9.99999e-01,9.99999e-01,9.24738e-01,7.26778e-01,9.99998e-01
9.865456120e-01,6.96481e-01,9.99999e-01,9.99999e-01,9.52290e-01,7.31374e-01,9.99999e-01
9.914783401e-01,7.14004e-01,9.99999e-01,9.99999e-01,9.70236e-01,7.35907e-01,9.99999e-01
9.964357318e-01,7.28298e-01,9.99999e-01,9.99999e-01,9.83682e-01,7.40378e-01,9.99999e-01
1.001417910e+00,7.37482e-01,9.99999e-01,9.99999e-01,9.90190e-01,7.44787e-01,9.99999e-01
1.006425000e+00,7.44937e-01,9.99999e-01,9.99999e-01,9.94396e-01,7.49135e-01,9.99999e-01
1.011457125e+00,7.50799e-01,9.99999e-01,9.99999e-01,9.96519e-01,7.53421e-01,9.99999e-01
1.016514411e+00,7.55855e-01,9.99999e-01,9.99999e-01,9.97635e-01,7.57646e-01,9.99999e-01
1.021596983e+00,7.60332e-01,9.99999e-01,9.99941e-01,9.98115e-01,7.61811e-01,9.99999e-01
1.026704968e+00,7.61576e-01,9.99999e-01,9.95794e-01,9.98530e-01,7.65916e-01,9.99999e-01
1.031838492e+00,7.32092e-01,9.99999e-01,9.51800e-01,9.98931e-01,7.69961e-01,9.99999e-01
1.036997685e+00,1.06541e-01,9.99999e-01,1.37728e-01,9.99365e-01,7.73947e-01,9.99999e-01
1.042182673e+00,7.44142e-02,9.99999e-01,9.57270e-02,9.99242e-01,7.77875e-01,9.99999e-01
1.047393587e+00,9.33198e-02,9.99999e-01,1.19479e-01,9.98996e-01,7.81744e-01,9.99999e-01
1.052630555e+00,1.83047e-03,9.99999e-01,2.33248e-03,9.98622e-01,7.85555e-01,9.99999e-01
1.057893707e+00,4.93583e-03,9.99999e-01,6.26282e-03,9.97701e-01,7.89309e-01,9.99999e-01
1.063183176e+00,1.85627e-02,9.99999e-01,2.34702e-02,9.96219e-01,7.93006e-01,9.99999e-01
1.068499092e+00,5.72057e-02,9.99999e-01,7.21854e-02,9.93677e-01,7.96648e-01,9.99999e-01
1.073841587e+00,1.50827e-01,9.99999e-01,1.89660e-01,9.92601e-01,8.00233e-01,9.99999e-01
1.079210795e+00,2.78025e-01,9.99999e-01,3.48885e-01,9.90531e-01,8.03763e-01,9.99999e-01
1.084606849e+00,4.45500e-01,9.99999e-01,5.59478e-01,9.85696e-01,8.07239e-01,9.99999e-01
1.090029883e+00,5.87590e-01,9.99999e-01,7.39531e-01,9.79501e-01,8.10661e-01,9.99998e-01
1.095480033e+00,6.63521e-01,9.99999e-01,8.61843e-01,9.45133e-01,8.14029e-01,9.99998e-01
1.100957433e+00,6.59778e-01,9.99999e-01,9.30853e-01,8.66469e-01,8.17344e-01,9.99997e-01
1.106462220e+00,5.54853e-01,9.99999e-01,9.70808e-01,6.95666e-01,8.20607e-01,9.99994e-01
1.111994531e+00,3.81634e-01,9.99999e-01,9.89078e-01,4.67966e-01,8.23818e-01,9.99988e-01
1.117554504e+00,2.43003e-01,9.99999e-01,9.97325e-01,2.94477e-01,8.26977e-01,9.99984e-01
1.123142276e+00,3.41857e-01,9.99999e-01,9.99824e-01,4.11872e-01,8.30086e-01,9.99981e-01
1.128757988e+00,4.68664e-01,9.99999e-01,9.99999e-01,5.62534e-01,8.33145e-01,9.99980e-01
1.134401778e+00,2.57109e-01,9.99999e-01,9.99999e-01,3.07496e-01,8.36155e-01,9.99977e-01
1.140073787e+00,5.93654e-01,9.99999e-01,9.99999e-01,7.07487e-01,8.39115e-01,9.99981e-01
1.145774156e+00,4.11884e-01,9.99999e-01,9.99999e-01,4.89164e-01,8.42028e-01,9.99984e-01
1.151503026e+00,3.81918e-01,9.99999e-01,9.99999e-01,4.52036e-01,8.44892e-01,9.99986e-01
1.157260541e+00,4.33658e-01,9.99999e-01,9.99999e-01,5.11569e-01,8.47710e-01,9.99989e-01
1.163046844e+00,5.17778e-01,9.99999e-01,9.99999e-01,6.08810e-01,8.50481e-01,9.99993e-01
1.168862078e+00,6.03613e-01,9.99999e-01,9.99999e-01,7.07467e-01,8.53206e-01,9.99996e-01
1.174706389e+00,6.91263e-01,9.99999e-01,9.99999e-01,8.07658e-01,8.55886e-01,9.99997e-01
1.180579921e+00,7.53753e-01,9.99999e-01,9.99999e-01,8.77967e-01,8.58520e-01,9.99998e-01
1.186482820e+00,8.00019e-01,9.99999e-01,9.99991e-01,9.29061e-01,8.61111e-01,9.99998e-01
1.192415234e+00,8.15170e-01,9.99999e-01,9.85086e-01,9.57966e-01,8.63658e-01,9.99998e-01
1.198377311e+00,4.69228e-01,9.99999e-01,5.58363e-01,9.64450e-01,8.66162e-01,9.99998e-01
1.204369197e+00,2.69396e-12,9.99999e-01,3.16334e-12,9.66338e-01,8.68624e-01,9.99998e-01
1.210391043e+00,2.21001e-45,9.99999e-01,2.58374e-45,9.67783e-01,8.71044e-01,9.99999e-01
1.216442998e+00,1.82362e-39,9.99999e-01,2.12417e-39,9.72534e-01,8.73423e-01,9.99999e-01
1.222525213e+00,6.83400e-39,9.99999e-01,7.89107e-39,9.78550e-01,8.75761e-01,9.99999e-01
1.228637839e+00,3.97042e-30,9.99999e-01,4.56899e-30,9.85057e-01,8.78058e-01,9.99999e-01
