#,Wave/freq,Total,O2,CO2,H2O,Rayleigh,CIA
4.000000000e-01,1.73360e-12,9.99999e-01,9.99999e-01,9.99946e-01,1.73369e-12,9.99999e-01
4.020000000e-01,2.96142e-12,9.99999e-01,9.99999e-01,9.99966e-01,2.96151e-12,9.99999e-01
4.040100000e-01,5.00292e-12,9.99999e-01,9.99999e-01,9.99985e-01,5.00299e-12,9.99999e-01
4.060300500e-01,8.36463e-12,9.99999e-01,9.99999e-01,9.99996e-01,8.36465e-12,9.99999e-01
4.080602003e-01,1.38438e-11,9.99999e-01,9.99999e-01,9.99998e-01,1.38439e-11,9.99999e-01
4.101005013e-01,2.26853e-11,9.99999e-01,9.99999e-01,9.99999e-01,2.26853e-11,9.99999e-01
4.121510038e-01,3.68124e-11,9.99999e-01,9.99999e-01,9.99997e-01,3.68124e-11,9.99999e-01
4.142117588e-01,5.91678e-11,9.99999e-01,9.99999e-01,9.99984e-01,5.91687e-11,9.99999e-01
4.162828176e-01,9.42085e-11,9.99999e-01,9.99999e-01,9.99934e-01,9.42147e-11,9.99999e-01
4.183642317e-01,1.48641e-10,9.99999e-01,9.99999e-01,9.99960e-01,1.48646e-10,9.99999e-01
4.204560528e-01,2.32417e-10,9.99999e-01,9.99999e-01,9.99975e-01,2.32423e-10,9.99999e-01
4.225583331e-01,3.60218e-10,9.99999e-01,9.99999e-01,9.99990e-01,3.60221e-10,9.99999e-01
4.246711247e-01,5.53473e-10,9.99999e-01,9.99999e-01,9.99992e-01,5.53477e-10,9.99999e-01
4.267944804e-01,8.43222e-10,9.99999e-01,9.99999e-01,9.99989e-01,8.43231e-10,9.99999e-01
4.289284528e-01,1.27403e-09,9.99999e-01,9.99999e-01,9.99991e-01,1.27404e-09,9.99999e-01
4.310730950e-01,1.90930e-09,9.99999e-01,9.99999e-01,9.99996e-01,1.90931e-09,9.99999e-01
4.332284605e-01,2.83857e-09,9.99999e-01,9.99999e-01,9.99998e-01,2.83858e-09,9.99999e-01
4.353946028e-01,4.18719e-09,9.99999e-01,9.99999e-01,9.99999e-01,4.18719e-09,9.99999e-01
4.375715758e-01,6.12926e-09,9.99999e-01,9.99999e-01,9.99992e-01,6.12930e-09,9.99999e-01
4.397594337e-01,8.90439e-09,9.99999e-01,9.99999e-01,9.99940e-01,8.90492e-09,9.99999e-01
4.419582309e-01,1.28385e-08,9.99999e-01,9.99999e-01,9.99701e-01,1.28424e-08,9.99999e-01
4.441680220e-01,1.83832e-08,9.99999e-01,9.99999e-01,9.99773e-01,1.83873e-08,9.99999e-01
4.463888621e-01,2.61343e-08,9.99999e-01,9.99999e-01,9.99761e-01,2.61405e-08,9.99999e-01
4.486208064e-01,3.69000e-08,9.99999e-01,9.99999e-01,9.99852e-01,3.69054e-08,9.99999e-01
4.508639105e-01,5.17462e-08,9.99999e-01,9.99999e-01,9.99930e-01,5.17498e-08,9.99999e-01
4.531182300e-01,7.20801e-08,9.99999e-01,9.99999e-01,9.99972e-01,7.20820e-08,9.99999e-01
4.553838212e-01,9.97458e-08,9.99999e-01,9.99999e-01,9.99981e-01,9.97476e-08,9.99999e-01
4.576607403e-01,1.37147e-07,9.99999e-01,9.99999e-01,9.99991e-01,1.37149e-07,9.99999e-01
4.599490440e-01,1.87390e-07,9.99999e-01,9.99999e-01,9.99993e-01,1.87391e-07,9.99999e-01
4.622487892e-01,2.54465e-07,9.99999e-01,9.99999e-01,9.99998e-01,2.54465e-07,9.99999e-01
4.645600332e-01,3.43465e-07,9.99999e-01,9.99999e-01,9.99995e-01,3.43466e-07,9.99999e-01
4.668828333e-01,4.60825e-07,9.99999e-01,9.99999e-01,9.99929e-01,4.60857e-07,9.99999e-01
4.692172475e-01,6.14698e-07,9.99999e-01,9.99999e-01,9.99850e-01,6.14790e-07,9.99999e-01
4.715633337e-01,8.15403e-07,9.99999e-01,9.99999e-01,9.99901e-01,8.15482e-07,9.99999e-01
4.739211504e-01,1.07557e-06,9.99999e-01,9.99999e-01,9.99906e-01,1.07567e-06,9.99999e-01
4.762907561e-01,1.41107e-06,9.99999e-01,9.99999e-01,9.99951e-01,1.41113e-06,9.99999e-01
4.786722099e-01,1.84128e-06,9.99999e-01,9.99999e-01,9.99979e-01,1.84132e-06,9.99999e-01
4.810655710e-01,2.39003e-06,9.99999e-01,9.99999e-01,9.99993e-01,2.39005e-06,9.99999e-01
4.834708988e-01,3.08618e-06,9.99999e-01,9.99999e-01,9.99940e-01,3.08636e-06,9.99999e-01
4.858882533e-01,3.96505e-06,9.99999e-01,9.99999e-01,9.99894e-01,3.96547e-06,9.99999e-01
4.883176946e-01,5.06936e-06,9.99999e-01,9.99999e-01,9.99910e-01,5.06981e-06,9.99999e-01
4.907592831e-01,6.44980e-06,9.99999e-01,9.99999e-01,9.99920e-01,6.45031e-06,9.99999e-01
4.932130795e-01,8.16733e-06,9.99999e-01,9.99999e-01,9.99943e-01,8.16779e-06,9.99999e-01
4.956791449e-01,1.02941e-05,9.99999e-01,9.99999e-01,9.99969e-01,1.02944e-05,9.99999e-01
4.981575406e-01,1.29137e-05,9.99999e-01,9.99999e-01,9.99848e-01,1.29157e-05,9.99999e-01
5.006483283e-01,1.61255e-05,9.99999e-01,9.99999e-01,9.99605e-01,1.61318e-05,9.99999e-01
5.031515699e-01,2.00210e-05,9.99999e-01,9.99999e-01,9.98024e-01,2.00606e-05,9.99999e-01
5.056673278e-01,2.48132e-05,9.99999e-01,9.99999e-01,9.98961e-01,2.48390e-05,9.99999e-01
5.081956644e-01,3.05861e-05,9.99999e-01,9.99999e-01,9.98691e-01,3.06261e-05,9.99999e-01
5.107366428e-01,3.75724e-05,9.99999e-01,9.99999e-01,9.99116e-01,3.76056e-05,9.99999e-01
5.132903260e-01,4.59657e-05,9.99999e-01,9.99999e-01,9.99496e-01,4.59889e-05,9.99999e-01
5.158567776e-01,5.60059e-05,9.99999e-01,9.99999e-01,9.99787e-01,5.60178e-05,9.99999e-01
5.184360615e-01,6.79626e-05,9.99999e-01,9.99999e-01,9.99914e-01,6.79684e-05,9.99999e-01
5.210282418e-01,8.21515e-05,9.99999e-01,9.99999e-01,9.99967e-01,8.21541e-05,9.99999e-01
5.236333830e-01,9.89167e-05,9.99999e-01,9.99999e-01,9.99871e-01,9.89294e-05,9.99999e-01
5.262515499e-01,1.18684e-04,9.99999e-01,9.99999e-01,9.99919e-01,1.18694e-04,9.99999e-01
5.288828077e-01,1.41885e-04,9.99999e-01,9.99999e-01,9.99925e-01,1.41895e-04,9.99999e-01
5.315272217e-01,1.69024e-04,9.99999e-01,9.99999e-01,9.99935e-01,1.69035e-04,9.99999e-01
5.341848578e-01,2.00661e-04,9.99999e-01,9.99999e-01,9.99956e-01,2.00670e-04,9.99999e-01
5.368557821e-01,2.37384e-04,9.99999e-01,9.99999e-01,9.99848e-01,2.37420e-04,9.99999e-01
5.395400610e-01,2.79815e-04,9.99999e-01,9.99999e-01,9.99450e-01,2.79969e-04,9.99999e-01
5.422377613e-01,3.28842e-04,9.99999e-01,9.99999e-01,9.99304e-01,3.29070e-04,9.99999e-01
5.449489501e-01,3.85298e-04,9.99999e-01,9.99999e-01,9.99347e-01,3.85550e-04,9.99999e-01
5.476736949e-01,4.50055e-04,9.99999e-01,9.99999e-01,9.99428e-01,4.50312e-04,9.99999e-01
5.504120634e-01,5.24125e-04,9.99999e-01,9.99999e-01,9.99584e-01,5.24343e-04,9.99999e-01
5.531641237e-01,6.08584e-04,9.99999e-01,9.99999e-01,9.99790e-01,6.08711e-04,9.99999e-01
5.559299443e-01,7.04504e-04,9.99999e-01,9.99999e-01,9.99898e-01,7.04575e-04,9.99999e-01
5.587095940e-01,8.13131e-04,9.99999e-01,9.99999e-01,9.99936e-01,8.13183e-04,9.99999e-01
5.615031420e-01,9.35813e-04,9.99999e-01,9.99999e-01,9.99928e-01,9.35879e-04,9.99999e-01
5.643106577e-01,1.07401e-03,9.99999e-01,9.99999e-01,9.99918e-01,1.07410e-03,9.99999e-01
5.671322110e-01,1.22816e-03,9.99999e-01,9.99999e-01,9.99001e-01,1.22939e-03,9.99999e-01
5.699678720e-01,1.40194e-03,9.99999e-01,9.99999e-01,9.98975e-01,1.40338e-03,9.99999e-01
5.728177114e-01,1.59608e-03,9.99999e-01,9.99999e-01,9.98917e-01,1.59781e-03,9.99999e-01
5.756818000e-01,1.81273e-03,9.99999e-01,9.99999e-01,9.99009e-01,1.81453e-03,9.99999e-01
5.785602090e-01,2.05369e-03,9.99999e-01,9.99999e-01,9.99138e-01,2.05546e-03,9.99999e-01
5.814530100e-01,2.32065e-03,9.99999e-01,9.99999e-01,9.99132e-01,2.32266e-03,9.99999e-01
5.843602750e-01,2.61554e-03,9.99999e-01,9.99999e-01,9.98955e-01,2.61827e-03,9.99999e-01
5.872820764e-01,2.91816e-03,9.99999e-01,9.99999e-01,9.91045e-01,2.94452e-03,9.99999e-01
5.902184868e-01,3.26834e-03,9.99999e-01,9.99999e-01,9.89279e-01,3.30376e-03,9.99999e-01
5.931695792e-01,3.67026e-03,9.99999e-01,9.99999e-01,9.92389e-01,3.69840e-03,9.99999e-01
5.961354271e-01,4.09660e-03,9.99999e-01,9.99999e-01,9.91681e-01,4.13097e-03,9.99999e-01
5.991161043e-01,4.57614e-03,9.99999e-01,9.99999e-01,9.93935e-01,4.60406e-03,9.99999e-01
6.021116848e-01,5.10274e-03,9.99999e-01,9.99999e-01,9.96560e-01,5.12035e-03,9.99999e-01
6.051222432e-01,5.67270e-03,9.99999e-01,9.99999e-01,9.98259e-01,5.68259e-03,9.99999e-01
6.081478544e-01,6.28887e-03,9.99999e-01,9.99999e-01,9.99247e-01,6.29361e-03,9.99999e-01
6.111885937e-01,6.95407e-03,9.99999e-01,9.99999e-01,9.99682e-01,6.95628e-03,9.99999e-01
6.142445367e-01,7.67244e-03,9.99999e-01,9.99999e-01,9.99857e-01,7.67353e-03,9.99999e-01
6.173157594e-01,8.44769e-03,9.99999e-01,9.99999e-01,9.99921e-01,8.44835e-03,9.99999e-01
6.204023382e-01,9.28312e-03,9.99999e-01,9.99999e-01,9.99932e-01,9.28374e-03,9.99999e-01
6.235043498e-01,1.01797e-02,9.99999e-01,9.99999e-01,9.99699e-01,1.01828e-02,9.99999e-01
6.266218716e-01,1.11311e-02,9.99999e-01,9.99999e-01,9.98446e-01,1.11485e-02,9.99999e-01
6.297549810e-01,1.21770e-02,9.99999e-01,9.99999e-01,9.99429e-01,1.21839e-02,9.99999e-01
6.329037559e-01,1.32773e-02,9.99999e-01,9.99999e-01,9.98877e-01,1.32922e-02,9.99999e-01
6.360682746e-01,1.44625e-02,9.99999e-01,9.99999e-01,9.99038e-01,1.44764e-02,9.99999e-01
6.392486160e-01,1.57200e-02,9.99999e-01,9.99999e-01,9.98757e-01,1.57396e-02,9.99999e-01
6.424448591e-01,1.70560e-02,9.99999e-01,9.99999e-01,9.98319e-01,1.70847e-02,9.99999e-01
6.456570834e-01,1.83707e-02,9.99999e-01,9.99999e-01,9.92221e-01,1.85147e-02,9.99999e-01
6.488853688e-01,1.99201e-02,9.99999e-01,9.99999e-01,9.94383e-01,2.00326e-02,9.99999e-01
6.521297956e-01,2.15175e-02,9.99999e-01,9.99999e-01,9.94277e-01,2.16413e-02,9.99999e-01
6.553904446e-01,2.32096e-02,9.99999e-01,9.99999e-01,9.94265e-01,2.33435e-02,9.99999e-01
6.586673968e-01,2.50191e-02,9.99999e-01,9.99999e-01,9.95115e-01,2.51419e-02,9.99999e-01
6.619607338e-01,2.69656e-02,9.99999e-01,9.99999e-01,9.97276e-01,2.70392e-02,9.99999e-01
6.652705375e-01,2.89905e-02,9.99999e-01,9.99999e-01,9.98364e-01,2.90380e-02,9.99999e-01
6.685968902e-01,3.11189e-02,9.99999e-01,9.99999e-01,9.99305e-01,3.11406e-02,9.99999e-01
6.719398746e-01,3.33376e-02,9.99999e-01,9.99999e-01,9.99647e-01,3.33493e-02,9.99999e-01
6.752995740e-01,3.56598e-02,9.99999e-01,9.99999e-01,9.99813e-01,3.56664e-02,9.99999e-01
6.786760719e-01,3.80833e-02,9.99999e-01,9.99999e-01,9.99720e-01,3.80939e-02,9.99999e-01
6.820694522e-01,4.06143e-02,9.99999e-01,9.99999e-01,9.99520e-01,4.06338e-02,9.99999e-01
6.854797995e-01,4.32613e-02,9.99999e-01,9.99999e-01,9.99387e-01,4.32878e-02,9.99999e-01
6.889071985e-01,4.59661e-02,9.99999e-01,9.99999e-01,9.98014e-01,4.60575e-02,9.99999e-01
6.923517345e-01,4.77608e-02,9.99999e-01,9.99999e-01,9.75815e-01,4.89445e-02,9.99999e-01
6.958134932e-01,5.13136e-02,9.99999e-01,9.99999e-01,9.87750e-01,5.19500e-02,9.99999e-01
6.992925606e-01,5.44159e-02,9.99999e-01,9.99999e-01,9.88029e-01,5.50752e-02,9.99999e-01
7.027890234e-01,5.74691e-02,9.99999e-01,9.99999e-01,9.85393e-01,5.83210e-02,9.99999e-01
7.063029686e-01,6.09288e-02,9.99999e-01,9.99999e-01,9.87687e-01,6.16883e-02,9.99999e-01
7.098344834e-01,6.44075e-02,9.99999e-01,9.99999e-01,9.88182e-01,6.51778e-02,9.99999e-01
7.133836558e-01,6.76918e-02,9.99999e-01,9.99999e-01,9.84038e-01,6.87898e-02,9.99998e-01
7.169505741e-01,6.38438e-02,9.99999e-01,9.99999e-01,8.80304e-01,7.25247e-02,9.99998e-01
7.205353270e-01,7.18599e-02,9.99999e-01,9.99999e-01,9.40791e-01,7.63825e-02,9.99997e-01
7.241380036e-01,7.42389e-02,9.99999e-01,9.99999e-01,9.23792e-01,8.03633e-02,9.99997e-01
7.277586936e-01,7.86450e-02,9.99999e-01,9.99999e-01,9.31078e-01,8.44667e-02,9.99998e-01
7.313974871e-01,8.22464e-02,9.99999e-01,9.99999e-01,9.27323e-01,8.86923e-02,9.99998e-01
7.350544745e-01,8.92707e-02,9.99999e-01,9.99999e-01,9.59491e-01,9.30396e-02,9.99998e-01
7.387297469e-01,9.45856e-02,9.99999e-01,9.99999e-01,9.70030e-01,9.75078e-02,9.99999e-01
7.424233956e-01,1.00591e-01,9.99999e-01,9.99999e-01,9.85262e-01,1.02096e-01,9.99999e-01
7.461355126e-01,1.05844e-01,9.99999e-01,9.99999e-01,9.91025e-01,1.06803e-01,9.99999e-01
7.498661902e-01,1.11162e-01,9.99999e-01,9.99999e-01,9.95827e-01,1.11627e-01,9.99999e-01
7.536155211e-01,1.16328e-01,9.99999e-01,9.99999e-01,9.97943e-01,1.16568e-01,9.99999e-01
7.573835987e-01,1.21495e-01,9.99999e-01,9.99999e-01,9.98941e-01,1.21623e-01,9.99999e-01
7.611705167e-01,1.26708e-01,9.99999e-01,9.99999e-01,9.99341e-01,1.26791e-01,9.99999e-01
7.649763693e-01,1.32016e-01,9.99999e-01,9.99999e-01,9.99586e-01,1.32071e-01,9.99999e-01
7.688012511e-01,1.37419e-01,9.99999e-01,9.99999e-01,9.99711e-01,1.37459e-01,9.99999e-01
7.726452574e-01,1.42920e-01,9.99999e-01,9.99999e-01,9.99762e-01,1.42954e-01,9.99999e-01
7.765084837e-01,1.48503e-01,9.99999e-01,9.99999e-01,9.99659e-01,1.48553e-01,9.99999e-01
7.803910261e-01,1.41803e-01,9.99999e-01,9.20535e-01,9.98525e-01,1.54255e-01,9.99999e-01
7.842929812e-01,1.09465e-01,9.99999e-01,6.87075e-01,9.94859e-01,1.60057e-01,9.99999e-01
7.882144461e-01,1.10081e-01,9.99999e-01,6.69698e-01,9.89552e-01,1.65956e-01,9.99999e-01
7.921555184e-01,1.34007e-01,9.99999e-01,7.83559e-01,9.94298e-01,1.71949e-01,9.99999e-01
7.961162960e-01,1.49725e-01,9.99999e-01,8.49476e-01,9.89791e-01,1.78033e-01,9.99999e-01
8.000968774e-01,1.66605e-01,9.99999e-01,9.15072e-01,9.88301e-01,1.84207e-01,9.99999e-01
8.040973618e-01,1.79817e-01,9.99999e-01,9.55230e-01,9.88277e-01,1.90466e-01,9.99999e-01
8.081178486e-01,1.87619e-01,9.99999e-01,9.79074e-01,9.73587e-01,1.96808e-01,9.99998e-01
8.121584379e-01,1.80753e-01,9.99999e-01,9.93580e-01,8.95003e-01,2.03230e-01,9.99998e-01
8.162192301e-01,1.83957e-01,9.99999e-01,9.98577e-01,8.78312e-01,2.09728e-01,9.99997e-01
8.203003262e-01,2.02617e-01,9.99999e-01,9.99980e-01,9.36757e-01,2.16300e-01,9.99997e-01
8.244018279e-01,2.04176e-01,9.99999e-01,9.99999e-01,9.15832e-01,2.22941e-01,9.99997e-01
8.285238370e-01,2.12349e-01,9.99999e-01,9.99999e-01,9.24667e-01,2.29649e-01,9.99998e-01
8.326664562e-01,2.18536e-01,9.99999e-01,9.99999e-01,9.24352e-01,2.36421e-01,9.99998e-01
8.368297885e-01,2.29954e-01,9.99999e-01,9.99999e-01,9.45330e-01,2.43252e-01,9.99998e-01
8.410139374e-01,2.41923e-01,9.99999e-01,9.99999e-01,9.67148e-01,2.50140e-01,9.99999e-01
8.452190071e-01,2.52911e-01,9.99999e-01,9.99999e-01,9.83776e-01,2.57082e-01,9.99999e-01
8.494451021e-01,2.61566e-01,9.99999e-01,9.99999e-01,9.90508e-01,2.64073e-01,9.99999e-01
8.536923276e-01,2.69592e-01,9.99999e-01,9.99999e-01,9.94401e-01,2.71110e-01,9.99999e-01
8.579607893e-01,2.77227e-01,9.99999e-01,9.99999e-01,9.96535e-01,2.78191e-01,9.99999e-01
8.622505932e-01,2.84685e-01,9.99999e-01,9.99999e-01,9.97804e-01,2.85311e-01,9.99999e-01
8.665618462e-01,2.54939e-01,9.99999e-01,8.72799e-01,9.98635e-01,2.92467e-01,9.99999e-01
8.708946554e-01,1.17461e-01,9.99999e-01,3.92555e-01,9.98432e-01,2.99656e-01,9.99999e-01
8.752491287e-01,1.41850e-01,9.99999e-01,4.63149e-01,9.97906e-01,3.06875e-01,9.99999e-01
8.796253743e-01,2.03630e-01,9.99999e-01,6.50019e-01,9.97089e-01,3.14120e-01,9.99999e-01
8.840235012e-01,2.55414e-01,9.99999e-01,7.97272e-01,9.96680e-01,3.21387e-01,9.99999e-01
8.884436187e-01,2.96974e-01,9.99999e-01,9.14546e-01,9.87671e-01,3.28675e-01,9.99998e-01
8.928858368e-01,2.85384e-01,9.99999e-01,9.64333e-01,8.80104e-01,3.35978e-01,9.99997e-01
8.973502660e-01,2.72549e-01,9.99999e-01,9.91276e-01,8.00549e-01,3.43295e-01,9.99996e-01
9.018370173e-01,3.13093e-01,9.99999e-01,9.99039e-01,8.93760e-01,3.50622e-01,9.99996e-01
9.063462024e-01,3.15965e-01,9.99999e-01,9.74822e-01,9.03691e-01,3.57956e-01,9.99995e-01
9.108779334e-01,2.95370e-01,9.99999e-01,9.44191e-01,8.54898e-01,3.65294e-01,9.99995e-01
9.154323231e-01,3.07958e-01,9.99999e-01,9.86801e-01,8.36906e-01,3.72633e-01,9.99995e-01
9.200094847e-01,2.80405e-01,9.99999e-01,8.34304e-01,8.70504e-01,3.79971e-01,9.99993e-01
9.246095321e-01,2.38147e-01,9.99999e-01,7.55614e-01,8.05017e-01,3.87303e-01,9.99989e-01
9.292325798e-01,8.42529e-02,9.99999e-01,8.02998e-01,2.54460e-01,3.94628e-01,9.99978e-01
9.338787427e-01,5.94186e-02,9.99999e-01,8.09424e-01,1.75555e-01,4.01943e-01,9.99972e-01
9.385481364e-01,1.75821e-01,9.99999e-01,8.55196e-01,4.93112e-01,4.09245e-01,9.99971e-01
9.432408771e-01,1.45655e-01,9.99999e-01,9.08596e-01,3.80729e-01,4.16531e-01,9.99968e-01
9.479570815e-01,1.07851e-01,9.99999e-01,9.51859e-01,2.65906e-01,4.23799e-01,9.99972e-01
9.526968669e-01,1.52971e-01,9.99999e-01,9.76574e-01,3.61971e-01,4.31047e-01,9.99979e-01
9.574603512e-01,1.65581e-01,9.99999e-01,9.89921e-01,3.81078e-01,4.38272e-01,9.99984e-01
9.622476530e-01,2.01077e-01,9.99999e-01,9.96851e-01,4.52612e-01,4.45472e-01,9.99989e-01
9.670588912e-01,2.85118e-01,9.99999e-01,9.99057e-01,6.30419e-01,4.52644e-01,9.99993e-01
9.718941857e-01,3.42474e-01,9.99999e-01,9.99935e-01,7.44896e-01,4.59787e-01,9.99995e-01
9.767536566e-01,3.65489e-01,9.99999e-01,9.99999e-01,7.82805e-01,4.66898e-01,9.99996e-01
9.816374249e-01,3.95305e-01,9.99999e-01,9.99999e-01,8.34022e-01,4.73975e-01,9.99997e-01
9.865456120e-01,4.29364e-01,9.99999e-01,9.99999e-01,8.92617e-01,4.81017e-01,9.99998e-01
9.914783401e-01,4.54860e-01,9.99999e-01,9.99999e-01,9.32049e-01,4.88021e-01,9.99999e-01
9.964357318e-01,4.76378e-01,9.99999e-01,9.99999e-01,9.62408e-01,4.94985e-01,9.99999e-01
1.001417910e+00,4.90520e-01,9.99999e-01,9.99999e-01,9.77308e-01,5.01909e-01,9.99999e-01
1.006425000e+00,5.02156e-01,9.99999e-01,9.99999e-01,9.86961e-01,5.08790e-01,9.99999e-01
1.011457125e+00,5.11458e-01,9.99999e-01,9.99999e-01,9.91915e-01,5.15626e-01,9.99999e-01
1.016514411e+00,5.19541e-01,9.99999e-01,9.99999e-01,9.94494e-01,5.22417e-01,9.99999e-01
1.021596983e+00,5.26752e-01,9.99999e-01,9.99840e-01,9.95607e-01,5.29160e-01,9.99999e-01
1.026704968e+00,5.28659e-01,9.99999e-01,9.89956e-01,9.96570e-01,5.35854e-01,9.99999e-01
1.031838492e+00,4.92552e-01,9.99999e-01,9.10074e-01,9.97512e-01,5.42499e-01,9.99999e-01
1.036997685e+00,3.29349e-02,9.99999e-01,6.00482e-02,9.98517e-01,5.49092e-01,9.99999e-01
1.042182673e+00,4.15982e-03,9.99999e-01,7.49712e-03,9.98224e-01,5.55632e-01,9.99999e-01
1.047393587e+00,9.21176e-03,9.99999e-01,1.64199e-02,9.97651e-01,5.62119e-01,9.99999e-01
1.052630555e+00,3.69222e-06,9.99999e-01,6.50755e-06,9.96773e-01,5.68552e-01,9.99999e-01
1.057893707e+00,1.41040e-05,9.99999e-01,2.46038e-05,9.94608e-01,5.74929e-01,9.99999e-01
1.063183176e+00,2.15852e-04,9.99999e-01,3.73336e-04,9.91154e-01,5.81249e-01,9.99999e-01
1.068499092e+00,1.64582e-03,9.99999e-01,2.83053e-03,9.85261e-01,5.87512e-01,9.99999e-01
1.073841587e+00,1.37324e-02,9.99999e-01,2.34320e-02,9.82739e-01,5.93717e-01,9.99999e-01
1.079210795e+00,5.54578e-02,9.99999e-01,9.41322e-02,9.78020e-01,5.99862e-01,9.99998e-01
1.084606849e+00,1.55460e-01,9.99999e-01,2.64430e-01,9.66855e-01,6.05948e-01,9.99998e-01
1.090029883e+00,2.91422e-01,9.99999e-01,4.98349e-01,9.52395e-01,6.11974e-01,9.99997e-01
1.095480033e+00,3.85286e-01,9.99999e-01,7.09224e-01,8.75989e-01,6.17939e-01,9.99996e-01
1.100957433e+00,3.80007e-01,9.99999e-01,8.46773e-01,7.16195e-01,6.23842e-01,9.99993e-01
1.106462220e+00,2.58710e-01,9.99999e-01,9.33586e-01,4.37577e-01,6.29684e-01,9.99987e-01
1.111994531e+00,1.14450e-01,9.99999e-01,9.74822e-01,1.84028e-01,6.35463e-01,9.99974e-01
1.117554504e+00,4.43637e-02,9.99999e-01,9.93837e-01,6.94667e-02,6.41180e-01,9.99964e-01
1.123142276e+00,1.02550e-01,9.99999e-01,9.99597e-01,1.58559e-01,6.46833e-01,9.99957e-01
1.128757988e+00,1.84344e-01,9.99999e-01,9.99999e-01,2.82566e-01,6.52424e-01,9.99953e-01
1.134401778e+00,8.60874e-02,9.99999e-01,9.99999e-01,1.30848e-01,6.57951e-01,9.99948e-01
1.140073787e+00,3.03156e-01,9.99999e-01,9.99999e-01,4.56982e-01,6.63414e-01,9.99958e-01
1.145774156e+00,1.42100e-01,9.99999e-01,9.99999e-01,2.12473e-01,6.68813e-01,9.99964e-01
1.151503026e+00,1.21678e-01,9.99999e-01,9.99999e-01,1.80497e-01,6.74148e-01,9.99969e-01
1.157260541e+00,1.50263e-01,9.99999e-01,9.99999e-01,2.21169e-01,6.79419e-01,9.99976e-01
1.163046844e+00,2.23078e-01,9.99999e-01,9.99999e-01,3.25844e-01,6.84626e-01,9.99985e-01
1.168862078e+00,3.11127e-01,9.99999e-01,9.99999e-01,4.51062e-01,6.89769e-01,9.99992e-01
1.174706389e+00,4.24543e-01,9.99999e-01,9.99999e-01,6.10989e-01,6.94848e-01,9.99996e-01
1.180579921e+00,5.17897e-01,9.99999e-01,9.99999e-01,7.40000e-01,6.99862e-01,9.99997e-01
1.186482820e+00,5.93903e-01,9.99999e-01,9.99974e-01,8.42657e-01,7.04813e-01,9.99997e-01
1.192415234e+00,6.20347e-01,9.99999e-01,9.65275e-01,9.04634e-01,7.09700e-01,9.99997e-01
1.198377311e+00,3.49312e-01,9.99999e-01,5.24529e-01,9.18853e-01,7.14524e-01,9.99998e-01
1.204369197e+00,9.35405e-26,9.99999e-01,1.36205e-25,9.23281e-01,7.19284e-01,9.99998e-01
1.210391043e+00,3.59846e-103,9.99999e-01,5.18634e-103,9.26437e-01,7.23980e-01,9.99998e-01
1.216442998e+00,2.51283e-89,9.99999e-01,3.59062e-89,9.37238e-01,7.28614e-01,9.99998e-01
1.222525213e+00,5.52010e-88,9.99999e-01,7.72810e-88,9.50682e-01,7.33185e-01,9.99999e-01
1.228637839e+00,6.17048e-68,9.99999e-01,8.56542e-68,9.65453e-01,7.37693e-01,9.99999e-01
