#,Wave/freq,Total,O2,CO2,H2O,Rayleigh,CIA
4.000000000e-01,2.04237e-07,9.99999e-01,9.99999e-01,9.99969e-01,2.04243e-07,9.99999e-01
4.020000000e-01,2.76957e-07,9.99999e-01,9.99999e-01,9.99980e-01,2.76962e-07,9.99999e-01
4.040100000e-01,3.73204e-07,9.99999e-01,9.99999e-01,9.99991e-01,3.73206e-07,9.99999e-01
4.060300500e-01,4.99941e-07,9.99999e-01,9.99999e-01,9.99997e-01,4.99941e-07,9.99999e-01
4.080602003e-01,6.65857e-07,9.99999e-01,9.99999e-01,9.99998e-01,6.65857e-07,9.99999e-01
4.101005013e-01,8.81829e-07,9.99999e-01,9.99999e-01,9.99999e-01,8.81829e-07,9.99999e-01
4.121510038e-01,1.16139e-06,9.99999e-01,9.99999e-01,9.99998e-01,1.16139e-06,9.99999e-01
4.142117588e-01,1.52127e-06,9.99999e-01,9.99999e-01,9.99991e-01,1.52128e-06,9.99999e-01
4.162828176e-01,1.98203e-06,9.99999e-01,9.99999e-01,9.99962e-01,1.98210e-06,9.99999e-01
4.183642317e-01,2.56899e-06,9.99999e-01,9.99999e-01,9.99977e-01,2.56904e-06,9.99999e-01
4.204560528e-01,3.31273e-06,9.99999e-01,9.99999e-01,9.99985e-01,3.31278e-06,9.99999e-01
4.225583331e-01,4.25040e-06,9.99999e-01,9.99999e-01,9.99994e-01,4.25042e-06,9.99999e-01
4.246711247e-01,5.42665e-06,9.99999e-01,9.99999e-01,9.99995e-01,5.42667e-06,9.99999e-01
4.267944804e-01,6.89505e-06,9.99999e-01,9.99999e-01,9.99993e-01,6.89509e-06,9.99999e-01
4.289284528e-01,8.71945e-06,9.99999e-01,9.99999e-01,9.99994e-01,8.71949e-06,9.99999e-01
4.310730950e-01,1.09756e-05,9.99999e-01,9.99999e-01,9.99997e-01,1.09756e-05,9.99999e-01
4.332284605e-01,1.37529e-05,9.99999e-01,9.99999e-01,9.99999e-01,1.37529e-05,9.99999e-01
4.353946028e-01,1.71562e-05,9.99999e-01,9.99999e-01,9.99999e-01,1.71562e-05,9.99999e-01
4.375715758e-01,2.13085e-05,9.99999e-01,9.99999e-01,9.99995e-01,2.13085e-05,9.99999e-01
4.397594337e-01,2.63519e-05,9.99999e-01,9.99999e-01,9.99966e-01,2.63528e-05,9.99999e-01
4.419582309e-01,3.24491e-05,9.99999e-01,9.99999e-01,9.99829e-01,3.24546e-05,9.99999e-01
4.441680220e-01,3.98001e-05,9.99999e-01,9.99999e-01,9.99870e-01,3.98052e-05,9.99999e-01
4.463888621e-01,4.86176e-05,9.99999e-01,9.99999e-01,9.99864e-01,4.86241e-05,9.99999e-01
4.486208064e-01,5.91577e-05,9.99999e-01,9.99999e-01,9.99916e-01,5.91626e-05,9.99999e-01
4.508639105e-01,7.17039e-05,9.99999e-01,9.99999e-01,9.99960e-01,7.17067e-05,9.99999e-01
4.531182300e-01,8.65797e-05,9.99999e-01,9.99999e-01,9.99984e-01,8.65810e-05,9.99999e-01
4.553838212e-01,1.04151e-04,9.99999e-01,9.99999e-01,9.99988e-01,1.04152e-04,9.99999e-01
4.576607403e-01,1.24832e-04,9.99999e-01,9.99999e-01,9.99994e-01,1.24833e-04,9.99999e-01
4.599490440e-01,1.49085e-04,9.99999e-01,9.99999e-01,9.99996e-01,1.49086e-04,9.99999e-01
4.622487892e-01,1.77427e-04,9.99999e-01,9.99999e-01,9.99998e-01,1.77427e-04,9.99999e-01
4.645600332e-01,2.10432e-04,9.99999e-01,9.99999e-01,9.99997e-01,2.10432e-04,9.99999e-01
4.668828333e-01,2.48727e-04,9.99999e-01,9.99999e-01,9.99959e-01,2.48737e-04,9.99999e-01
4.692172475e-01,2.93019e-04,9.99999e-01,9.99999e-01,9.99914e-01,2.93044e-04,9.99999e-01
4.715633337e-01,3.44108e-04,9.99999e-01,9.99999e-01,9.99943e-01,3.44128e-04,9.99999e-01
4.739211504e-01,4.02814e-04,9.99999e-01,9.99999e-01,9.99946e-01,4.02836e-04,9.99999e-01
4.762907561e-01,4.70081e-04,9.99999e-01,9.99999e-01,9.99972e-01,4.70094e-04,9.99999e-01
4.786722099e-01,5.46906e-04,9.99999e-01,9.99999e-01,9.99988e-01,5.46912e-04,9.99999e-01
4.810655710e-01,6.34381e-04,9.99999e-01,9.99999e-01,9.99996e-01,6.34383e-04,9.99999e-01
4.834708988e-01,7.33666e-04,9.99999e-01,9.99999e-01,9.99965e-01,7.33691e-04,9.99999e-01
4.858882533e-01,8.46060e-04,9.99999e-01,9.99999e-01,9.99939e-01,8.46111e-04,9.99999e-01
4.883176946e-01,9.72963e-04,9.99999e-01,9.99999e-01,9.99949e-01,9.73012e-04,9.99999e-01
4.907592831e-01,1.11581e-03,9.99999e-01,9.99999e-01,9.99954e-01,1.11586e-03,9.99999e-01
4.932130795e-01,1.27618e-03,9.99999e-01,9.99999e-01,9.99967e-01,1.27622e-03,9.99999e-01
4.956791449e-01,1.45574e-03,9.99999e-01,9.99999e-01,9.99982e-01,1.45577e-03,9.99999e-01
4.981575406e-01,1.65612e-03,9.99999e-01,9.99999e-01,9.99913e-01,1.65626e-03,9.99999e-01
5.006483283e-01,1.87914e-03,9.99999e-01,9.99999e-01,9.99775e-01,1.87956e-03,9.99999e-01
5.031515699e-01,2.12526e-03,9.99999e-01,9.99999e-01,9.98875e-01,2.12766e-03,9.99999e-01
5.056673278e-01,2.40118e-03,9.99999e-01,9.99999e-01,9.99409e-01,2.40260e-03,9.99999e-01
5.081956644e-01,2.70456e-03,9.99999e-01,9.99999e-01,9.99255e-01,2.70657e-03,9.99999e-01
5.107366428e-01,3.04031e-03,9.99999e-01,9.99999e-01,9.99497e-01,3.04184e-03,9.99999e-01
5.132903260e-01,3.40978e-03,9.99999e-01,9.99999e-01,9.99713e-01,3.41075e-03,9.99999e-01
5.158567776e-01,3.81531e-03,9.99999e-01,9.99999e-01,9.99878e-01,3.81577e-03,9.99999e-01
5.184360615e-01,4.25923e-03,9.99999e-01,9.99999e-01,9.99951e-01,4.25944e-03,9.99999e-01
5.210282418e-01,4.74428e-03,9.99999e-01,9.99999e-01,9.99981e-01,4.74437e-03,9.99999e-01
5.236333830e-01,5.27288e-03,9.99999e-01,9.99999e-01,9.99926e-01,5.27327e-03,9.99999e-01
5.262515499e-01,5.84864e-03,9.99999e-01,9.99999e-01,9.99953e-01,5.84890e-03,9.99999e-01
5.288828077e-01,6.47384e-03,9.99999e-01,9.99999e-01,9.99957e-01,6.47411e-03,9.99999e-01
5.315272217e-01,7.15153e-03,9.99999e-01,9.99999e-01,9.99962e-01,7.15179e-03,9.99999e-01
5.341848578e-01,7.88469e-03,9.99999e-01,9.99999e-01,9.99975e-01,7.88489e-03,9.99999e-01
5.368557821e-01,8.67564e-03,9.99999e-01,9.99999e-01,9.99913e-01,8.67639e-03,9.99999e-01
5.395400610e-01,9.52634e-03,9.99999e-01,9.99999e-01,9.99687e-01,9.52932e-03,9.99999e-01
5.422377613e-01,1.04426e-02,9.99999e-01,9.99999e-01,9.99604e-01,1.04467e-02,9.99999e-01
5.449489501e-01,1.14274e-02,9.99999e-01,9.99999e-01,9.99628e-01,1.14317e-02,9.99999e-01
5.476736949e-01,1.24832e-02,9.99999e-01,9.99999e-01,9.99674e-01,1.24873e-02,9.99999e-01
5.504120634e-01,1.36133e-02,9.99999e-01,9.99999e-01,9.99763e-01,1.36165e-02,9.99999e-01
5.531641237e-01,1.48208e-02,9.99999e-01,9.99999e-01,9.99880e-01,1.48226e-02,9.99999e-01
5.559299443e-01,1.61075e-02,9.99999e-01,9.99999e-01,9.99942e-01,1.61084e-02,9.99999e-01
5.587095940e-01,1.74764e-02,9.99999e-01,9.99999e-01,9.99963e-01,1.74770e-02,9.99999e-01
5.615031420e-01,1.89307e-02,9.99999e-01,9.99999e-01,9.99959e-01,1.89314e-02,9.99999e-01
5.643106577e-01,2.04735e-02,9.99999e-01,9.99999e-01,9.99953e-01,2.04745e-02,9.99999e-01
5.671322110e-01,2.20965e-02,9.99999e-01,9.99999e-01,9.99430e-01,2.21091e-02,9.99999e-01
5.699678720e-01,2.38241e-02,9.99999e-01,9.99999e-01,9.99417e-01,2.38380e-02,9.99999e-01
5.728177114e-01,2.56481e-02,9.99999e-01,9.99999e-01,9.99383e-01,2.56639e-02,9.99999e-01
5.756818000e-01,2.75739e-02,9.99999e-01,9.99999e-01,9.99436e-01,2.75894e-02,9.99999e-01
5.785602090e-01,2.96025e-02,9.99999e-01,9.99999e-01,9.99509e-01,2.96170e-02,9.99999e-01
5.814530100e-01,3.17335e-02,9.99999e-01,9.99999e-01,9.99506e-01,3.17492e-02,9.99999e-01
5.843602750e-01,3.39679e-02,9.99999e-01,9.99999e-01,9.99405e-01,3.39881e-02,9.99999e-01
5.872820764e-01,3.61503e-02,9.99999e-01,9.99999e-01,9.94889e-01,3.63360e-02,9.99999e-01
5.902184868e-01,3.85577e-02,9.99999e-01,9.99999e-01,9.93886e-01,3.87948e-02,9.99999e-01
5.931695792e-01,4.11870e-02,9.99999e-01,9.99999e-01,9.95660e-01,4.13665e-02,9.99999e-01
5.961354271e-01,4.38439e-02,9.99999e-01,9.99999e-01,9.95258e-01,4.40528e-02,9.99999e-01
5.991161043e-01,4.66934e-02,9.99999e-01,9.99999e-01,9.96545e-01,4.68553e-02,9.99999e-01
6.021116848e-01,4.96779e-02,9.99999e-01,9.99999e-01,9.98041e-01,4.97753e-02,9.99999e-01
6.051222432e-01,5.27620e-02,9.99999e-01,9.99999e-01,9.99009e-01,5.28143e-02,9.99999e-01
6.081478544e-01,5.59493e-02,9.99999e-01,9.99999e-01,9.99571e-01,5.59732e-02,9.99999e-01
6.111885937e-01,5.92424e-02,9.99999e-01,9.99999e-01,9.99819e-01,5.92531e-02,9.99999e-01
6.142445367e-01,6.26495e-02,9.99999e-01,9.99999e-01,9.99918e-01,6.26546e-02,9.99999e-01
6.173157594e-01,6.61754e-02,9.99999e-01,9.99999e-01,9.99954e-01,6.61783e-02,9.99999e-01
6.204023382e-01,6.98221e-02,9.99999e-01,9.99999e-01,9.99961e-01,6.98248e-02,9.99999e-01
6.235043498e-01,7.35816e-02,9.99999e-01,9.99999e-01,9.99828e-01,7.35942e-02,9.99999e-01
6.266218716e-01,7.74180e-02,9.99999e-01,9.99999e-01,9.99115e-01,7.74865e-02,9.99999e-01
6.297549810e-01,8.14752e-02,9.99999e-01,9.99999e-01,9.99675e-01,8.15017e-02,9.99999e-01
6.329037559e-01,8.55848e-02,9.99999e-01,9.99999e-01,9.99361e-01,8.56394e-02,9.99999e-01
6.360682746e-01,8.98501e-02,9.99999e-01,9.99999e-01,9.99452e-01,8.98992e-02,9.99999e-01
6.392486160e-01,9.42139e-02,9.99999e-01,9.99999e-01,9.99292e-01,9.42805e-02,9.99999e-01
6.424448591e-01,9.86879e-02,9.99999e-01,9.99999e-01,9.99043e-01,9.87824e-02,9.99999e-01
6.456570834e-01,1.02945e-01,9.99999e-01,9.99999e-01,9.95563e-01,1.03404e-01,9.99999e-01
6.488853688e-01,1.07798e-01,9.99999e-01,9.99999e-01,9.96800e-01,1.08144e-01,9.99999e-01
6.521297956e-01,1.12633e-01,9.99999e-01,9.99999e-01,9.96739e-01,1.13001e-01,9.99999e-01
6.553904446e-01,1.17589e-01,9.99999e-01,9.99999e-01,9.96732e-01,1.17974e-01,9.99999e-01
6.586673968e-01,1.22719e-01,9.99999e-01,9.99999e-01,9.97218e-01,1.23061e-01,9.99999e-01
6.619607338e-01,1.28062e-01,9.99999e-01,9.99999e-01,9.98449e-01,1.28261e-01,9.99999e-01
6.652705375e-01,1.33447e-01,9.99999e-01,9.99999e-01,9.99069e-01,1.33571e-01,9.99999e-01
6.685968902e-01,1.38934e-01,9.99999e-01,9.99999e-01,9.99604e-01,1.38989e-01,9.99999e-01
6.719398746e-01,1.44485e-01,9.99999e-01,9.99999e-01,9.99799e-01,1.44514e-01,9.99999e-01
6.752995740e-01,1.50126e-01,9.99999e-01,9.99999e-01,9.99893e-01,1.50142e-01,9.99999e-01
6.786760719e-01,1.55848e-01,9.99999e-01,9.99999e-01,9.99840e-01,1.55872e-01,9.99999e-01
6.820694522e-01,1.61657e-01,9.99999e-01,9.99999e-01,9.99726e-01,1.61701e-01,9.99999e-01
6.854797995e-01,1.67568e-01,9.99999e-01,9.99999e-01,9.99651e-01,1.67627e-01,9.99999e-01
6.889071985e-01,1.73450e-01,9.99999e-01,9.99999e-01,9.98868e-01,1.73646e-01,9.99999e-01
6.923517345e-01,1.77267e-01,9.99999e-01,9.99999e-01,9.86152e-01,1.79756e-01,9.99999e-01
6.958134932e-01,1.84654e-01,9.99999e-01,9.99999e-01,9.93009e-01,1.85954e-01,9.99999e-01
6.992925606e-01,1.90923e-01,9.99999e-01,9.99999e-01,9.93165e-01,1.92237e-01,9.99999e-01
7.027890234e-01,1.96945e-01,9.99999e-01,9.99999e-01,9.91660e-01,1.98601e-01,9.99999e-01
7.063029686e-01,2.03605e-01,9.99999e-01,9.99999e-01,9.92975e-01,2.05045e-01,9.99999e-01
7.098344834e-01,2.10138e-01,9.99999e-01,9.99999e-01,9.93259e-01,2.11564e-01,9.99999e-01
7.133836558e-01,2.16164e-01,9.99999e-01,9.99999e-01,9.90870e-01,2.18155e-01,9.99999e-01
7.169505741e-01,2.08969e-01,9.99999e-01,9.99999e-01,9.29512e-01,2.24816e-01,9.99998e-01
7.205353270e-01,2.23608e-01,9.99999e-01,9.99999e-01,9.65733e-01,2.31542e-01,9.99998e-01
7.241380036e-01,2.27774e-01,9.99999e-01,9.99999e-01,9.55707e-01,2.38331e-01,9.99998e-01
7.277586936e-01,2.35372e-01,9.99999e-01,9.99999e-01,9.60004e-01,2.45178e-01,9.99998e-01
7.313974871e-01,2.41463e-01,9.99999e-01,9.99999e-01,9.57878e-01,2.52082e-01,9.99998e-01
7.350544745e-01,2.53005e-01,9.99999e-01,9.99999e-01,9.76713e-01,2.59037e-01,9.99999e-01
7.387297469e-01,2.61474e-01,9.99999e-01,9.99999e-01,9.82828e-01,2.66042e-01,9.99999e-01
7.424233956e-01,2.70795e-01,9.99999e-01,9.99999e-01,9.91589e-01,2.73092e-01,9.99999e-01
7.461355126e-01,2.78751e-01,9.99999e-01,9.99999e-01,9.94884e-01,2.80184e-01,9.99999e-01
7.498661902e-01,2.86632e-01,9.99999e-01,9.99999e-01,9.97625e-01,2.87314e-01,9.99999e-01
7.536155211e-01,2.94136e-01,9.99999e-01,9.99999e-01,9.98829e-01,2.94480e-01,9.99999e-01
7.573835987e-01,3.01496e-01,9.99999e-01,9.99999e-01,9.99397e-01,3.01678e-01,9.99999e-01
7.611705167e-01,3.08789e-01,9.99999e-01,9.99999e-01,9.99625e-01,3.08904e-01,9.99999e-01
7.649763693e-01,3.16081e-01,9.99999e-01,9.99999e-01,9.99764e-01,3.16156e-01,9.99999e-01
7.688012511e-01,3.23376e-01,9.99999e-01,9.99999e-01,9.99835e-01,3.23429e-01,9.99999e-01
7.726452574e-01,3.30677e-01,9.99999e-01,9.99999e-01,9.99864e-01,3.30721e-01,9.99999e-01
7.765084837e-01,3.37964e-01,9.99999e-01,9.99999e-01,9.99805e-01,3.38029e-01,9.99999e-01
7.803910261e-01,3.27691e-01,9.99999e-01,9.49630e-01,9.99159e-01,3.45349e-01,9.99999e-01
7.842929812e-01,2.82314e-01,9.99999e-01,8.02680e-01,9.97070e-01,3.52678e-01,9.99999e-01
7.882144461e-01,2.82505e-01,9.99999e-01,7.89143e-01,9.94041e-01,3.60014e-01,9.99999e-01
7.921555184e-01,3.18332e-01,9.99999e-01,8.69284e-01,9.96752e-01,3.67353e-01,9.99999e-01
7.961162960e-01,3.39442e-01,9.99999e-01,9.11166e-01,9.94174e-01,3.74691e-01,9.99999e-01
8.000968774e-01,3.60770e-01,9.99999e-01,9.50671e-01,9.93327e-01,3.82028e-01,9.99999e-01
8.040973618e-01,3.76809e-01,9.99999e-01,9.74265e-01,9.93312e-01,3.89358e-01,9.99999e-01
8.081178486e-01,3.86014e-01,9.99999e-01,9.88039e-01,9.84858e-01,3.96681e-01,9.99999e-01
8.121584379e-01,3.77795e-01,9.99999e-01,9.96345e-01,9.38534e-01,4.03992e-01,9.99998e-01
8.162192301e-01,3.81559e-01,9.99999e-01,9.99190e-01,9.28443e-01,4.11290e-01,9.99998e-01
8.203003262e-01,4.03048e-01,9.99999e-01,9.99988e-01,9.62922e-01,4.18571e-01,9.99998e-01
8.244018279e-01,4.04689e-01,9.99999e-01,9.99999e-01,9.50345e-01,4.25834e-01,9.99998e-01
8.285238370e-01,4.14136e-01,9.99999e-01,9.99999e-01,9.56267e-01,4.33076e-01,9.99998e-01
8.326664562e-01,4.20946e-01,9.99999e-01,9.99999e-01,9.56056e-01,4.40294e-01,9.99998e-01
8.368297885e-01,4.33380e-01,9.99999e-01,9.99999e-01,9.68477e-01,4.47486e-01,9.99999e-01
8.410139374e-01,4.46086e-01,9.99999e-01,9.99999e-01,9.81163e-01,4.54650e-01,9.99999e-01
8.452190071e-01,4.57507e-01,9.99999e-01,9.99999e-01,9.90737e-01,4.61784e-01,9.99999e-01
8.494451021e-01,4.66349e-01,9.99999e-01,9.99999e-01,9.94589e-01,4.68886e-01,9.99999e-01
8.536923276e-01,4.74436e-01,9.99999e-01,9.99999e-01,9.96811e-01,4.75954e-01,9.99999e-01
8.579607893e-01,4.82032e-01,9.99999e-01,9.99999e-01,9.98027e-01,4.82985e-01,9.99999e-01
8.622505932e-01,4.89366e-01,9.99999e-01,9.99999e-01,9.98750e-01,4.89978e-01,9.99999e-01
8.665618462e-01,4.48110e-01,9.99999e-01,9.02419e-01,9.99223e-01,4.96931e-01,9.99999e-01
8.708946554e-01,2.88386e-01,9.99999e-01,5.72859e-01,9.99107e-01,5.03843e-01,9.99999e-01
8.752491287e-01,3.25148e-01,9.99999e-01,6.37386e-01,9.98808e-01,5.10711e-01,9.99999e-01
8.796253743e-01,4.02860e-01,9.99999e-01,7.79658e-01,9.98342e-01,5.17535e-01,9.99999e-01
8.840235012e-01,4.59708e-01,9.99999e-01,8.78406e-01,9.98109e-01,5.24313e-01,9.99999e-01
8.884436187e-01,5.01167e-01,9.99999e-01,9.50356e-01,9.92940e-01,5.31042e-01,9.99999e-01
8.928858368e-01,4.89655e-01,9.99999e-01,9.79542e-01,9.29377e-01,5.37723e-01,9.99998e-01
8.973502660e-01,4.76729e-01,9.99999e-01,9.95029e-01,8.80017e-01,5.44353e-01,9.99997e-01
9.018370173e-01,5.16241e-01,9.99999e-01,9.99453e-01,9.37522e-01,5.50931e-01,9.99997e-01
9.063462024e-01,5.18667e-01,9.99999e-01,9.85427e-01,9.43547e-01,5.57457e-01,9.99997e-01
9.108779334e-01,4.99103e-01,9.99999e-01,9.67804e-01,9.13957e-01,5.63929e-01,9.99997e-01
9.154323231e-01,5.11286e-01,9.99999e-01,9.92468e-01,9.03041e-01,5.70346e-01,9.99996e-01
9.200094847e-01,4.79512e-01,9.99999e-01,8.95041e-01,9.23530e-01,5.76707e-01,9.99996e-01
9.246095321e-01,4.39251e-01,9.99999e-01,8.51961e-01,8.80721e-01,5.83011e-01,9.99993e-01
9.292325798e-01,2.32018e-01,9.99999e-01,8.80897e-01,4.38944e-01,5.89258e-01,9.99987e-01
9.338787427e-01,1.88571e-01,9.99999e-01,8.85807e-01,3.51632e-01,5.95446e-01,9.99983e-01
9.385481364e-01,3.63234e-01,9.99999e-01,9.14531e-01,6.55596e-01,6.01575e-01,9.99983e-01
9.432408771e-01,3.20924e-01,9.99999e-01,9.46882e-01,5.55479e-01,6.07644e-01,9.99981e-01
9.479570815e-01,2.67466e-01,9.99999e-01,9.72312e-01,4.47330e-01,6.13653e-01,9.99984e-01
9.526968669e-01,3.33915e-01,9.99999e-01,9.86596e-01,5.45393e-01,6.19601e-01,9.99987e-01
9.574603512e-01,3.52889e-01,9.99999e-01,9.94253e-01,5.67139e-01,6.25487e-01,9.99990e-01
9.622476530e-01,3.97068e-01,9.99999e-01,9.98208e-01,6.29993e-01,6.31311e-01,9.99993e-01
9.670588912e-01,4.87236e-01,9.99999e-01,9.99463e-01,7.65187e-01,6.37073e-01,9.99995e-01
9.718941857e-01,5.42968e-01,9.99999e-01,9.99962e-01,8.44758e-01,6.42772e-01,9.99997e-01
9.767536566e-01,5.63610e-01,9.99999e-01,9.99999e-01,8.69222e-01,6.48408e-01,9.99997e-01
9.816374249e-01,5.89620e-01,9.99999e-01,9.99999e-01,9.01587e-01,6.53980e-01,9.99998e-01
9.865456120e-01,6.18146e-01,9.99999e-01,9.99999e-01,9.37310e-01,6.59489e-01,9.99999e-01
9.914783401e-01,6.38825e-01,9.99999e-01,9.99999e-01,9.60733e-01,6.64934e-01,9.99999e-01
9.964357318e-01,6.55856e-01,9.99999e-01,9.99999e-01,9.78428e-01,6.70316e-01,9.99999e-01
1.001417910e+00,6.66868e-01,9.99999e-01,9.99999e-01,9.87026e-01,6.75633e-01,9.99999e-01
1.006425000e+00,6.75821e-01,9.99999e-01,9.99999e-01,9.92561e-01,6.80886e-01,9.99999e-01
1.011457125e+00,6.82915e-01,9.99999e-01,9.99999e-01,9.95393e-01,6.86075e-01,9.99999e-01
1.016514411e+00,6.89033e-01,9.99999e-01,9.99999e-01,9.96864e-01,6.91200e-01,9.99999e-01
1.021596983e+00,6.94456e-01,9.99999e-01,9.99908e-01,9.97498e-01,6.96261e-01,9.99999e-01
1.026704968e+00,6.95863e-01,9.99999e-01,9.94245e-01,9.98047e-01,7.01257e-01,9.99999e-01
1.031838492e+00,6.60742e-01,9.99999e-01,9.36913e-01,9.98584e-01,7.06190e-01,9.99999e-01
1.036997685e+00,7.35050e-02,9.99999e-01,1.03442e-01,9.99156e-01,7.11059e-01,9.99999e-01
1.042182673e+00,3.48707e-02,9.99999e-01,4.87531e-02,9.98989e-01,7.15865e-01,9.99999e-01
1.047393587e+00,5.06381e-02,9.99999e-01,7.03529e-02,9.98663e-01,7.20607e-01,9.99999e-01
1.052630555e+00,3.49454e-04,9.99999e-01,4.82431e-04,9.98162e-01,7.25286e-01,9.99999e-01
1.057893707e+00,1.11307e-03,9.99999e-01,1.52787e-03,9.96927e-01,7.29902e-01,9.99999e-01
1.063183176e+00,5.88411e-03,9.99999e-01,8.03850e-03,9.94955e-01,7.34455e-01,9.99999e-01
1.068499092e+00,2.32223e-02,9.99999e-01,3.16365e-02,9.91583e-01,7.38946e-01,9.99999e-01
1.073841587e+00,8.30162e-02,9.99999e-01,1.12581e-01,9.90131e-01,7.43375e-01,9.99999e-01
1.079210795e+00,1.85496e-01,9.99999e-01,2.50842e-01,9.87427e-01,7.47743e-01,9.99999e-01
1.084606849e+00,3.43502e-01,9.99999e-01,4.65036e-01,9.80981e-01,7.52048e-01,9.99998e-01
1.090029883e+00,4.94048e-01,9.99999e-01,6.70933e-01,9.72553e-01,7.56293e-01,9.99998e-01
1.095480033e+00,5.80080e-01,9.99999e-01,8.21682e-01,9.27214e-01,7.60478e-01,9.99997e-01
1.100957433e+00,5.75069e-01,9.99999e-01,9.09539e-01,8.25712e-01,7.64602e-01,9.99996e-01
1.106462220e+00,4.56944e-01,9.99999e-01,9.61623e-01,6.16933e-01,7.68666e-01,9.99992e-01
1.111994531e+00,2.80743e-01,9.99999e-01,9.85594e-01,3.68116e-01,7.72671e-01,9.99985e-01
1.117554504e+00,1.56693e-01,9.99999e-01,9.96490e-01,2.02301e-01,7.76617e-01,9.99979e-01
1.123142276e+00,2.50255e-01,9.99999e-01,9.99771e-01,3.20664e-01,7.80505e-01,9.99975e-01
1.128757988e+00,3.69581e-01,9.99999e-01,9.99999e-01,4.71215e-01,7.84335e-01,9.99973e-01
1.134401778e+00,1.90579e-01,9.99999e-01,9.99999e-01,2.41825e-01,7.88107e-01,9.99970e-01
1.140073787e+00,5.01135e-01,9.99999e-01,9.99999e-01,6.32902e-01,7.91823e-01,9.99976e-01
1.145774156e+00,3.13469e-01,9.99999e-01,9.99999e-01,3.94069e-01,7.95482e-01,9.99979e-01
1.151503026e+00,2.84612e-01,9.99999e-01,9.99999e-01,3.56178e-01,7.99085e-01,9.99982e-01
1.157260541e+00,3.32096e-01,9.99999e-01,9.99999e-01,4.13763e-01,8.02633e-01,9.99986e-01
1.163046844e+00,4.19621e-01,9.99999e-01,9.99999e-01,5.20543e-01,8.06127e-01,9.99991e-01
1.168862078e+00,5.12370e-01,9.99999e-01,9.99999e-01,6.32897e-01,8.09565e-01,9.99995e-01
1.174706389e+00,6.12803e-01,9.99999e-01,9.99999e-01,7.53802e-01,8.12951e-01,9.99997e-01
1.180579921e+00,6.87117e-01,9.99999e-01,9.99999e-01,8.41764e-01,8.16283e-01,9.99998e-01
1.186482820e+00,7.43345e-01,9.99999e-01,9.99985e-01,9.07015e-01,8.19562e-01,9.99998e-01
1.192415234e+00,7.61578e-01,9.99999e-01,9.79622e-01,9.44538e-01,8.22790e-01,9.99998e-01
1.198377311e+00,4.35092e-01,9.99999e-01,5.48366e-01,9.52944e-01,8.25966e-01,9.99998e-01
1.204369197e+00,1.27340e-15,9.99999e-01,1.57685e-15,9.55497e-01,8.29091e-01,9.99998e-01
1.210391043e+00,1.16680e-59,9.99999e-01,1.43645e-59,9.57397e-01,8.32166e-01,9.99998e-01
1.216442998e+00,8.75116e-52,9.99999e-01,1.07210e-51,9.63747e-01,8.35192e-01,9.99999e-01
1.222525213e+00,5.07615e-51,9.99999e-01,6.14686e-51,9.71621e-01,8.38168e-01,9.99999e-01
1.228637839e+00,1.66557e-39,9.99999e-01,2.00749e-39,9.80190e-01,8.41096e-01,9.99999e-01
