#,Wave/freq,Total,O2,CO2,H2O,Rayleigh,CIA
4.000000000e-01,4.20037e-04,9.99999e-01,9.99999e-01,9.99984e-01,4.20044e-04,9.99999e-01
4.020000000e-01,4.89842e-04,9.99999e-01,9.99999e-01,9.99990e-01,4.89846e-04,9.99999e-01
4.040100000e-01,5.69427e-04,9.99999e-01,9.99999e-01,9.99995e-01,5.69429e-04,9.99999e-01
4.060300500e-01,6.59975e-04,9.99999e-01,9.99999e-01,9.99998e-01,6.59975e-04,9.99999e-01
4.080602003e-01,7.62693e-04,9.99999e-01,9.99999e-01,9.99999e-01,7.62693e-04,9.99999e-01
4.101005013e-01,8.78883e-04,9.99999e-01,9.99999e-01,9.99999e-01,8.78883e-04,9.99999e-01
4.121510038e-01,1.00994e-03,9.99999e-01,9.99999e-01,9.99998e-01,1.00994e-03,9.99999e-01
4.142117588e-01,1.15736e-03,9.99999e-01,9.99999e-01,9.99995e-01,1.15736e-03,9.99999e-01
4.162828176e-01,1.32271e-03,9.99999e-01,9.99999e-01,9.99980e-01,1.32273e-03,9.99999e-01
4.183642317e-01,1.50774e-03,9.99999e-01,9.99999e-01,9.99988e-01,1.50775e-03,9.99999e-01
4.204560528e-01,1.71420e-03,9.99999e-01,9.99999e-01,9.99992e-01,1.71422e-03,9.99999e-01
4.225583331e-01,1.94401e-03,9.99999e-01,9.99999e-01,9.99996e-01,1.94401e-03,9.99999e-01
4.246711247e-01,2.19914e-03,9.99999e-01,9.99999e-01,9.99997e-01,2.19915e-03,9.99999e-01
4.267944804e-01,2.48170e-03,9.99999e-01,9.99999e-01,9.99996e-01,2.48171e-03,9.99999e-01
4.289284528e-01,2.79390e-03,9.99999e-01,9.99999e-01,9.99997e-01,2.79390e-03,9.99999e-01
4.310730950e-01,3.13801e-03,9.99999e-01,9.99999e-01,9.99998e-01,3.13802e-03,9.99999e-01
4.332284605e-01,3.51643e-03,9.99999e-01,9.99999e-01,9.99999e-01,3.51643e-03,9.99999e-01
4.353946028e-01,3.93163e-03,9.99999e-01,9.99999e-01,9.99999e-01,3.93163e-03,9.99999e-01
4.375715758e-01,4.38617e-03,9.99999e-01,9.99999e-01,9.99997e-01,4.38618e-03,9.99999e-01
4.397594337e-01,4.88263e-03,9.99999e-01,9.99999e-01,9.99982e-01,4.88271e-03,9.99999e-01
4.419582309e-01,5.42348e-03,9.99999e-01,9.99999e-01,9.99914e-01,5.42395e-03,9.99999e-01
4.441680220e-01,6.01229e-03,9.99999e-01,9.99999e-01,9.99934e-01,6.01268e-03,9.99999e-01
4.463888621e-01,6.65131e-03,9.99999e-01,9.99999e-01,9.99931e-01,6.65177e-03,9.99999e-01
4.486208064e-01,7.34381e-03,9.99999e-01,9.99999e-01,9.99957e-01,7.34412e-03,9.99999e-01
4.508639105e-01,8.09252e-03,9.99999e-01,9.99999e-01,9.99979e-01,8.09268e-03,9.99999e-01
4.531182300e-01,8.90040e-03,9.99999e-01,9.99999e-01,9.99991e-01,8.90047e-03,9.99999e-01
4.553838212e-01,9.77045e-03,9.99999e-01,9.99999e-01,9.99994e-01,9.77051e-03,9.99999e-01
4.576607403e-01,1.07058e-02,9.99999e-01,9.99999e-01,9.99997e-01,1.07058e-02,9.99999e-01
4.599490440e-01,1.17096e-02,9.99999e-01,9.99999e-01,9.99997e-01,1.17096e-02,9.99999e-01
4.622487892e-01,1.27847e-02,9.99999e-01,9.99999e-01,9.99999e-01,1.27847e-02,9.99999e-01
4.645600332e-01,1.39344e-02,9.99999e-01,9.99999e-01,9.99998e-01,1.39344e-02,9.99999e-01
4.668828333e-01,1.51614e-02,9.99999e-01,9.99999e-01,9.99979e-01,1.51617e-02,9.99999e-01
4.692172475e-01,1.64689e-02,9.99999e-01,9.99999e-01,9.99956e-01,1.64696e-02,9.99999e-01
4.715633337e-01,1.78606e-02,9.99999e-01,9.99999e-01,9.99971e-01,1.78611e-02,9.99999e-01
4.739211504e-01,1.93386e-02,9.99999e-01,9.99999e-01,9.99972e-01,1.93391e-02,9.99999e-01
4.762907561e-01,2.09064e-02,9.99999e-01,9.99999e-01,9.99985e-01,2.09066e-02,9.99999e-01
4.786722099e-01,2.25663e-02,9.99999e-01,9.99999e-01,9.99993e-01,2.25664e-02,9.99999e-01
4.810655710e-01,2.43212e-02,9.99999e-01,9.99999e-01,9.99997e-01,2.43213e-02,9.99999e-01
4.834708988e-01,2.61734e-02,9.99999e-01,9.99999e-01,9.99982e-01,2.61738e-02,9.99999e-01
4.858882533e-01,2.81258e-02,9.99999e-01,9.99999e-01,9.99969e-01,2.81266e-02,9.99999e-01
4.883176946e-01,3.01815e-02,9.99999e-01,9.99999e-01,9.99974e-01,3.01822e-02,9.99999e-01
4.907592831e-01,3.23423e-02,9.99999e-01,9.99999e-01,9.99976e-01,3.23430e-02,9.99999e-01
4.932130795e-01,3.46106e-02,9.99999e-01,9.99999e-01,9.99983e-01,3.46111e-02,9.99999e-01
4.956791449e-01,3.69885e-02,9.99999e-01,9.99999e-01,9.99990e-01,3.69888e-02,9.99999e-01
4.981575406e-01,3.94762e-02,9.99999e-01,9.99999e-01,9.99956e-01,3.94779e-02,9.99999e-01
5.006483283e-01,4.20756e-02,9.99999e-01,9.99999e-01,9.99886e-01,4.20804e-02,9.99999e-01
5.031515699e-01,4.47725e-02,9.99999e-01,9.99999e-01,9.99432e-01,4.47979e-02,9.99999e-01
5.056673278e-01,4.76177e-02,9.99999e-01,9.99999e-01,9.99701e-01,4.76319e-02,9.99999e-01
5.081956644e-01,5.05650e-02,9.99999e-01,9.99999e-01,9.99623e-01,5.05840e-02,9.99999e-01
5.107366428e-01,5.36416e-02,9.99999e-01,9.99999e-01,9.99745e-01,5.36552e-02,9.99999e-01
5.132903260e-01,5.68385e-02,9.99999e-01,9.99999e-01,9.99854e-01,5.68467e-02,9.99999e-01
5.158567776e-01,6.01557e-02,9.99999e-01,9.99999e-01,9.99938e-01,6.01593e-02,9.99999e-01
5.184360615e-01,6.35922e-02,9.99999e-01,9.99999e-01,9.99975e-01,6.35938e-02,9.99999e-01
5.210282418e-01,6.71500e-02,9.99999e-01,9.99999e-01,9.99990e-01,6.71507e-02,9.99999e-01
5.236333830e-01,7.08277e-02,9.99999e-01,9.99999e-01,9.99962e-01,7.08303e-02,9.99999e-01
5.262515499e-01,7.46311e-02,9.99999e-01,9.99999e-01,9.99976e-01,7.46328e-02,9.99999e-01
5.288828077e-01,7.85567e-02,9.99999e-01,9.99999e-01,9.99978e-01,7.85584e-02,9.99999e-01
5.315272217e-01,8.26051e-02,9.99999e-01,9.99999e-01,9.99981e-01,8.26067e-02,9.99999e-01
5.341848578e-01,8.67764e-02,9.99999e-01,9.99999e-01,9.99987e-01,8.67774e-02,9.99999e-01
5.368557821e-01,9.10662e-02,9.99999e-01,9.99999e-01,9.99956e-01,9.10701e-02,9.99999e-01
5.395400610e-01,9.54691e-02,9.99999e-01,9.99999e-01,9.99842e-01,9.54840e-02,9.99999e-01
5.422377613e-01,9.99984e-02,9.99999e-01,9.99999e-01,9.99799e-01,1.00018e-01,9.99999e-01
5.449489501e-01,1.04652e-01,9.99999e-01,9.99999e-01,9.99812e-01,1.04672e-01,9.99999e-01
5.476736949e-01,1.09426e-01,9.99999e-01,9.99999e-01,9.99835e-01,1.09444e-01,9.99999e-01
5.504120634e-01,1.14319e-01,9.99999e-01,9.99999e-01,9.99880e-01,1.14332e-01,9.99999e-01
5.531641237e-01,1.19329e-01,9.99999e-01,9.99999e-01,9.99939e-01,1.19336e-01,9.99999e-01
5.559299443e-01,1.24450e-01,9.99999e-01,9.99999e-01,9.99970e-01,1.24454e-01,9.99999e-01
5.587095940e-01,1.29681e-01,9.99999e-01,9.99999e-01,9.99981e-01,1.29684e-01,9.99999e-01
5.615031420e-01,1.35020e-01,9.99999e-01,9.99999e-01,9.99979e-01,1.35023e-01,9.99999e-01
5.643106577e-01,1.40467e-01,9.99999e-01,9.99999e-01,9.99976e-01,1.40470e-01,9.99999e-01
5.671322110e-01,1.45982e-01,9.99999e-01,9.99999e-01,9.99715e-01,1.46023e-01,9.99999e-01
5.699678720e-01,1.51634e-01,9.99999e-01,9.99999e-01,9.99704e-01,1.51679e-01,9.99999e-01
5.728177114e-01,1.57387e-01,9.99999e-01,9.99999e-01,9.99689e-01,1.57436e-01,9.99999e-01
5.756818000e-01,1.63245e-01,9.99999e-01,9.99999e-01,9.99715e-01,1.63292e-01,9.99999e-01
5.785602090e-01,1.69201e-01,9.99999e-01,9.99999e-01,9.99752e-01,1.69243e-01,9.99999e-01
5.814530100e-01,1.75243e-01,9.99999e-01,9.99999e-01,9.99750e-01,1.75287e-01,9.99999e-01
5.843602750e-01,1.81366e-01,9.99999e-01,9.99999e-01,9.99700e-01,1.81421e-01,9.99999e-01
5.872820764e-01,1.87159e-01,9.99999e-01,9.99999e-01,9.97424e-01,1.87642e-01,9.99999e-01
5.902184868e-01,1.93347e-01,9.99999e-01,9.99999e-01,9.96905e-01,1.93947e-01,9.99999e-01
5.931695792e-01,1.99894e-01,9.99999e-01,9.99999e-01,9.97807e-01,2.00333e-01,9.99999e-01
5.961354271e-01,2.06302e-01,9.99999e-01,9.99999e-01,9.97601e-01,2.06797e-01,9.99999e-01
5.991161043e-01,2.12964e-01,9.99999e-01,9.99999e-01,9.98252e-01,2.13336e-01,9.99999e-01
6.021116848e-01,2.19729e-01,9.99999e-01,9.99999e-01,9.99009e-01,2.19947e-01,9.99999e-01
6.051222432e-01,2.26512e-01,9.99999e-01,9.99999e-01,9.99498e-01,2.26625e-01,9.99999e-01
6.081478544e-01,2.33318e-01,9.99999e-01,9.99999e-01,9.99783e-01,2.33369e-01,9.99999e-01
6.111885937e-01,2.40152e-01,9.99999e-01,9.99999e-01,9.99908e-01,2.40174e-01,9.99999e-01
6.142445367e-01,2.47027e-01,9.99999e-01,9.99999e-01,9.99958e-01,2.47037e-01,9.99999e-01
6.173157594e-01,2.53949e-01,9.99999e-01,9.99999e-01,9.99976e-01,2.53954e-01,9.99999e-01
6.204023382e-01,2.60919e-01,9.99999e-01,9.99999e-01,9.99980e-01,2.60924e-01,9.99999e-01
6.235043498e-01,2.67918e-01,9.99999e-01,9.99999e-01,9.99914e-01,2.67941e-01,9.99999e-01
6.266218716e-01,2.74880e-01,9.99999e-01,9.99999e-01,9.99553e-01,2.75002e-01,9.99999e-01
6.297549810e-01,2.82059e-01,9.99999e-01,9.99999e-01,9.99835e-01,2.82105e-01,9.99999e-01
6.329037559e-01,2.89152e-01,9.99999e-01,9.99999e-01,9.99676e-01,2.89245e-01,9.99999e-01
6.360682746e-01,2.96339e-01,9.99999e-01,9.99999e-01,9.99723e-01,2.96420e-01,9.99999e-01
6.392486160e-01,3.03518e-01,9.99999e-01,9.99999e-01,9.99642e-01,3.03626e-01,9.99999e-01
6.424448591e-01,3.10710e-01,9.99999e-01,9.99999e-01,9.99518e-01,3.10859e-01,9.99999e-01
6.456570834e-01,3.17407e-01,9.99999e-01,9.99999e-01,9.97767e-01,3.18117e-01,9.99999e-01
6.488853688e-01,3.24869e-01,9.99999e-01,9.99999e-01,9.98380e-01,3.25396e-01,9.99999e-01
6.521297956e-01,3.32144e-01,9.99999e-01,9.99999e-01,9.98349e-01,3.32693e-01,9.99999e-01
6.553904446e-01,3.39443e-01,9.99999e-01,9.99999e-01,9.98350e-01,3.40004e-01,9.99999e-01
6.586673968e-01,3.46838e-01,9.99999e-01,9.99999e-01,9.98592e-01,3.47327e-01,9.99999e-01
6.619607338e-01,3.54380e-01,9.99999e-01,9.99999e-01,9.99215e-01,3.54658e-01,9.99999e-01
6.652705375e-01,3.61825e-01,9.99999e-01,9.99999e-01,9.99529e-01,3.61995e-01,9.99999e-01
6.685968902e-01,3.69260e-01,9.99999e-01,9.99999e-01,9.99799e-01,3.69334e-01,9.99999e-01
6.719398746e-01,3.76634e-01,9.99999e-01,9.99999e-01,9.99898e-01,3.76672e-01,9.99999e-01
6.752995740e-01,3.83987e-01,9.99999e-01,9.99999e-01,9.99946e-01,3.84007e-01,9.99999e-01
6.786760719e-01,3.91305e-01,9.99999e-01,9.99999e-01,9.99919e-01,3.91336e-01,9.99999e-01
6.820694522e-01,3.98601e-01,9.99999e-01,9.99999e-01,9.99863e-01,3.98656e-01,9.99999e-01
6.854797995e-01,4.05892e-01,9.99999e-01,9.99999e-01,9.99823e-01,4.05964e-01,9.99999e-01
6.889071985e-01,4.13079e-01,9.99999e-01,9.99999e-01,9.99568e-01,4.13257e-01,9.99999e-01
6.923517345e-01,4.17603e-01,9.99999e-01,9.99999e-01,9.93030e-01,4.20534e-01,9.99999e-01
6.958134932e-01,4.26267e-01,9.99999e-01,9.99999e-01,9.96435e-01,4.27791e-01,9.99999e-01
6.992925606e-01,4.33528e-01,9.99999e-01,9.99999e-01,9.96554e-01,4.35027e-01,9.99999e-01
7.027890234e-01,4.40370e-01,9.99999e-01,9.99999e-01,9.95776e-01,4.42238e-01,9.99999e-01
7.063029686e-01,4.47826e-01,9.99999e-01,9.99999e-01,9.96445e-01,4.49423e-01,9.99999e-01
7.098344834e-01,4.55023e-01,9.99999e-01,9.99999e-01,9.96590e-01,4.56579e-01,9.99999e-01
7.133836558e-01,4.61575e-01,9.99999e-01,9.99999e-01,9.95406e-01,4.63705e-01,9.99999e-01
7.169505741e-01,4.53707e-01,9.99999e-01,9.99999e-01,9.63699e-01,4.70797e-01,9.99999e-01
7.205353270e-01,4.69432e-01,9.99999e-01,9.99999e-01,9.82373e-01,4.77855e-01,9.99999e-01
7.241380036e-01,4.73900e-01,9.99999e-01,9.99999e-01,9.77361e-01,4.84877e-01,9.99998e-01
7.277586936e-01,4.81808e-01,9.99999e-01,9.99999e-01,9.79565e-01,4.91859e-01,9.99999e-01
7.313974871e-01,4.88037e-01,9.99999e-01,9.99999e-01,9.78419e-01,4.98801e-01,9.99999e-01
7.350544745e-01,4.99707e-01,9.99999e-01,9.99999e-01,9.88145e-01,5.05702e-01,9.99999e-01
7.387297469e-01,5.08086e-01,9.99999e-01,9.99999e-01,9.91274e-01,5.12558e-01,9.99999e-01
7.424233956e-01,5.17153e-01,9.99999e-01,9.99999e-01,9.95731e-01,5.19369e-01,9.99999e-01
7.461355126e-01,5.24771e-01,9.99999e-01,9.99999e-01,9.97408e-01,5.26134e-01,9.99999e-01
7.498661902e-01,5.32209e-01,9.99999e-01,9.99999e-01,9.98795e-01,5.32851e-01,9.99999e-01
7.536155211e-01,5.39198e-01,9.99999e-01,9.99999e-01,9.99407e-01,5.39518e-01,9.99999e-01
7.573835987e-01,5.45968e-01,9.99999e-01,9.99999e-01,9.99694e-01,5.46134e-01,9.99999e-01
7.611705167e-01,5.52594e-01,9.99999e-01,9.99999e-01,9.99810e-01,5.52698e-01,9.99999e-01
7.649763693e-01,5.59143e-01,9.99999e-01,9.99999e-01,9.99880e-01,5.59210e-01,9.99999e-01
7.688012511e-01,5.65620e-01,9.99999e-01,9.99999e-01,9.99916e-01,5.65667e-01,9.99999e-01
7.726452574e-01,5.72030e-01,9.99999e-01,9.99999e-01,9.99931e-01,5.72069e-01,9.99999e-01
7.765084837e-01,5.78358e-01,9.99999e-01,9.99999e-01,9.99902e-01,5.78415e-01,9.99999e-01
7.803910261e-01,5.68720e-01,9.99999e-01,9.73064e-01,9.99577e-01,5.84703e-01,9.99999e-01
7.842929812e-01,5.26649e-01,9.99999e-01,8.92480e-01,9.98525e-01,5.90934e-01,9.99999e-01
7.882144461e-01,5.26574e-01,9.99999e-01,8.84459e-01,9.96987e-01,5.97107e-01,9.99999e-01
7.921555184e-01,5.60911e-01,9.99999e-01,9.31367e-01,9.98354e-01,6.03219e-01,9.99999e-01
7.961162960e-01,5.79490e-01,9.99999e-01,9.53899e-01,9.97063e-01,6.09272e-01,9.99999e-01
8.000968774e-01,5.97682e-01,9.99999e-01,9.74703e-01,9.96626e-01,6.15265e-01,9.99999e-01
8.040973618e-01,6.10970e-01,9.99999e-01,9.86867e-01,9.96621e-01,6.21196e-01,9.99999e-01
8.081178486e-01,6.18497e-01,9.99999e-01,9.93929e-01,9.92351e-01,6.27065e-01,9.99999e-01
8.121584379e-01,6.11797e-01,9.99999e-01,9.98138e-01,9.68487e-01,6.32873e-01,9.99999e-01
8.162192301e-01,6.14734e-01,9.99999e-01,9.99588e-01,9.62991e-01,6.38617e-01,9.99999e-01
8.203003262e-01,6.32084e-01,9.99999e-01,9.99993e-01,9.81046e-01,6.44299e-01,9.99998e-01
8.244018279e-01,6.33109e-01,9.99999e-01,9.99999e-01,9.74137e-01,6.49918e-01,9.99998e-01
8.285238370e-01,6.40829e-01,9.99999e-01,9.99999e-01,9.77657e-01,6.55474e-01,9.99999e-01
8.326664562e-01,6.46086e-01,9.99999e-01,9.99999e-01,9.77488e-01,6.60965e-01,9.99999e-01
8.368297885e-01,6.55674e-01,9.99999e-01,9.99999e-01,9.83914e-01,6.66393e-01,9.99999e-01
8.410139374e-01,6.65323e-01,9.99999e-01,9.99999e-01,9.90421e-01,6.71757e-01,9.99999e-01
8.452190071e-01,6.73875e-01,9.99999e-01,9.99999e-01,9.95299e-01,6.77057e-01,9.99999e-01
8.494451021e-01,6.80426e-01,9.99999e-01,9.99999e-01,9.97262e-01,6.82293e-01,9.99999e-01
8.536923276e-01,6.86355e-01,9.99999e-01,9.99999e-01,9.98385e-01,6.87465e-01,9.99999e-01
8.579607893e-01,6.91882e-01,9.99999e-01,9.99999e-01,9.99002e-01,6.92572e-01,9.99999e-01
8.622505932e-01,6.97175e-01,9.99999e-01,9.99999e-01,9.99367e-01,6.97616e-01,9.99999e-01
8.665618462e-01,6.57257e-01,9.99999e-01,9.35823e-01,9.99607e-01,7.02595e-01,9.99999e-01
8.708946554e-01,5.27965e-01,9.99999e-01,7.46554e-01,9.99549e-01,7.07511e-01,9.99999e-01
8.752491287e-01,5.63809e-01,9.99999e-01,7.91928e-01,9.99398e-01,7.12363e-01,9.99999e-01
8.796253743e-01,6.30858e-01,9.99999e-01,8.80390e-01,9.99164e-01,7.17151e-01,9.99999e-01
8.840235012e-01,6.75203e-01,9.99999e-01,9.36226e-01,9.99046e-01,7.21876e-01,9.99999e-01
8.884436187e-01,7.05522e-01,9.99999e-01,9.74489e-01,9.96467e-01,7.26538e-01,9.99999e-01
8.928858368e-01,6.97285e-01,9.99999e-01,9.89571e-01,9.63683e-01,7.31137e-01,9.99999e-01
8.973502660e-01,6.87669e-01,9.99999e-01,9.97471e-01,9.37079e-01,7.35674e-01,9.99998e-01
9.018370173e-01,7.15969e-01,9.99999e-01,9.99721e-01,9.67595e-01,7.40148e-01,9.99998e-01
9.063462024e-01,7.17804e-01,9.99999e-01,9.92638e-01,9.71046e-01,7.44560e-01,9.99998e-01
9.108779334e-01,7.03847e-01,9.99999e-01,9.83554e-01,9.55395e-01,7.48911e-01,9.99998e-01
9.154323231e-01,7.12529e-01,9.99999e-01,9.96153e-01,9.49597e-01,7.53200e-01,9.99998e-01
9.200094847e-01,6.87242e-01,9.99999e-01,9.43237e-01,9.60370e-01,7.57429e-01,9.99997e-01
9.246095321e-01,6.58817e-01,9.99999e-01,9.21901e-01,9.37242e-01,7.61597e-01,9.99996e-01
9.292325798e-01,4.69501e-01,9.99999e-01,9.37547e-01,6.50409e-01,7.65705e-01,9.99993e-01
9.338787427e-01,4.19203e-01,9.99999e-01,9.40195e-01,5.76222e-01,7.69753e-01,9.99991e-01
9.385481364e-01,5.93665e-01,9.99999e-01,9.55723e-01,8.01185e-01,7.73742e-01,9.99991e-01
9.432408771e-01,5.54088e-01,9.99999e-01,9.72739e-01,7.31584e-01,7.77673e-01,9.99990e-01
9.479570815e-01,5.00194e-01,9.99999e-01,9.85898e-01,6.48753e-01,7.81545e-01,9.99991e-01
9.526968669e-01,5.66390e-01,9.99999e-01,9.93188e-01,7.25786e-01,7.85359e-01,9.99993e-01
9.574603512e-01,5.86861e-01,9.99999e-01,9.97084e-01,7.45760e-01,7.89116e-01,9.99995e-01
9.622476530e-01,6.24544e-01,9.99999e-01,9.99090e-01,7.88439e-01,7.92816e-01,9.99996e-01
9.670588912e-01,6.94261e-01,9.99999e-01,9.99727e-01,8.71911e-01,7.96460e-01,9.99997e-01
9.718941857e-01,7.34408e-01,9.99999e-01,9.99980e-01,9.17971e-01,8.00049e-01,9.99998e-01
9.767536566e-01,7.48468e-01,9.99999e-01,9.99999e-01,9.31414e-01,8.03582e-01,9.99998e-01
9.816374249e-01,7.65780e-01,9.99999e-01,9.99999e-01,9.48850e-01,8.07060e-01,9.99998e-01
9.865456120e-01,7.84349e-01,9.99999e-01,9.99999e-01,9.67753e-01,8.10485e-01,9.99999e-01
9.914783401e-01,7.97532e-01,9.99999e-01,9.99999e-01,9.79942e-01,8.13855e-01,9.99999e-01
9.964357318e-01,8.08211e-01,9.99999e-01,9.99999e-01,9.89031e-01,8.17173e-01,9.99999e-01
1.001417910e+00,8.15038e-01,9.99999e-01,9.99999e-01,9.93416e-01,8.20439e-01,9.99999e-01
1.006425000e+00,8.20552e-01,9.99999e-01,9.99999e-01,9.96235e-01,8.23652e-01,9.99999e-01
1.011457125e+00,8.24886e-01,9.99999e-01,9.99999e-01,9.97667e-01,8.26815e-01,9.99999e-01
1.016514411e+00,8.28611e-01,9.99999e-01,9.99999e-01,9.98413e-01,8.29927e-01,9.99999e-01
1.021596983e+00,8.31899e-01,9.99999e-01,9.99956e-01,9.98735e-01,8.32988e-01,9.99999e-01
1.026704968e+00,8.32771e-01,9.99999e-01,9.97118e-01,9.99013e-01,8.36000e-01,9.99999e-01
1.031838492e+00,8.05728e-01,9.99999e-01,9.61052e-01,9.99283e-01,8.38963e-01,9.99999e-01
1.036997685e+00,1.65118e-01,9.99999e-01,1.96198e-01,9.99573e-01,8.41878e-01,9.99999e-01
1.042182673e+00,1.66722e-01,9.99999e-01,1.97455e-01,9.99490e-01,8.44745e-01,9.99999e-01
1.047393587e+00,1.72711e-01,9.99999e-01,2.03895e-01,9.99325e-01,8.47565e-01,9.99999e-01
1.052630555e+00,1.05940e-02,9.99999e-01,1.24673e-02,9.99072e-01,8.50338e-01,9.99999e-01
1.057893707e+00,2.39836e-02,9.99999e-01,2.81460e-02,9.98450e-01,8.53066e-01,9.99999e-01
1.063183176e+00,6.23939e-02,9.99999e-01,7.30519e-02,9.97453e-01,8.55748e-01,9.99999e-01
1.068499092e+00,1.42455e-01,9.99999e-01,1.66575e-01,9.95743e-01,8.58385e-01,9.99999e-01
1.073841587e+00,2.77483e-01,9.99999e-01,3.23708e-01,9.95010e-01,8.60978e-01,9.99999e-01
1.079210795e+00,4.20510e-01,9.99999e-01,4.89875e-01,9.93629e-01,8.63527e-01,9.99999e-01
1.084606849e+00,5.80506e-01,9.99999e-01,6.76603e-01,9.90353e-01,8.66034e-01,9.99999e-01
1.090029883e+00,6.99452e-01,9.99999e-01,8.16479e-01,9.86092e-01,8.68498e-01,9.99999e-01
1.095480033e+00,7.59026e-01,9.99999e-01,9.05095e-01,9.62609e-01,8.70920e-01,9.99998e-01
1.100957433e+00,7.55743e-01,9.99999e-01,9.53108e-01,9.07621e-01,8.73300e-01,9.99997e-01
1.106462220e+00,6.70631e-01,9.99999e-01,9.80368e-01,7.80780e-01,8.75641e-01,9.99995e-01
1.111994531e+00,5.19111e-01,9.99999e-01,9.92679e-01,5.95401e-01,8.77940e-01,9.99992e-01
1.117554504e+00,3.79797e-01,9.99999e-01,9.98216e-01,4.32151e-01,8.80201e-01,9.99989e-01
1.123142276e+00,4.76125e-01,9.99999e-01,9.99883e-01,5.39608e-01,8.82422e-01,9.99987e-01
1.128757988e+00,5.95559e-01,9.99999e-01,9.99999e-01,6.73256e-01,8.84605e-01,9.99986e-01
1.134401778e+00,3.69573e-01,9.99999e-01,9.99999e-01,4.16778e-01,8.86750e-01,9.99984e-01
1.140073787e+00,7.02266e-01,9.99999e-01,9.99999e-01,7.90085e-01,8.88858e-01,9.99987e-01
1.145774156e+00,5.45265e-01,9.99999e-01,9.99999e-01,6.12024e-01,8.90929e-01,9.99989e-01
1.151503026e+00,5.16062e-01,9.99999e-01,9.99999e-01,5.77925e-01,8.92963e-01,9.99990e-01
1.157260541e+00,5.67623e-01,9.99999e-01,9.99999e-01,6.34246e-01,8.94962e-01,9.99992e-01
1.163046844e+00,6.41178e-01,9.99999e-01,9.99999e-01,7.14864e-01,8.96926e-01,9.99995e-01
1.168862078e+00,7.12207e-01,9.99999e-01,9.99999e-01,7.92349e-01,8.98856e-01,9.99997e-01
1.174706389e+00,7.80221e-01,9.99999e-01,9.99999e-01,8.66190e-01,9.00751e-01,9.99998e-01
1.180579921e+00,8.27068e-01,9.99999e-01,9.99999e-01,9.16305e-01,9.02612e-01,9.99998e-01
1.186482820e+00,8.60851e-01,9.99999e-01,9.99993e-01,9.51810e-01,9.04441e-01,9.99998e-01
1.192415234e+00,8.71461e-01,9.99999e-01,9.89667e-01,9.71579e-01,9.06237e-01,9.99999e-01
1.198377311e+00,5.05659e-01,9.99999e-01,5.68344e-01,9.75956e-01,9.08001e-01,9.99999e-01
1.204369197e+00,5.34370e-09,9.99999e-01,5.95245e-09,9.77244e-01,9.09734e-01,9.99999e-01
1.210391043e+00,3.16977e-31,9.99999e-01,3.52050e-31,9.78237e-01,9.11435e-01,9.99999e-01
1.216442998e+00,2.99122e-27,9.99999e-01,3.31399e-27,9.81490e-01,9.13106e-01,9.99999e-01
1.222525213e+00,7.29789e-27,9.99999e-01,8.03815e-27,9.85554e-01,9.14747e-01,9.99999e-01
1.228637839e+00,8.83075e-21,9.99999e-01,9.70520e-21,9.89943e-01,9.16359e-01,9.99999e-01
