#,Wave/freq,Total,O2,CO2,H2O,Rayleigh,CIA
4.000000000e-01,1.73403e-06,9.99999e-01,9.99999e-01,9.99973e-01,1.73407e-06,9.99999e-01
4.020000000e-01,2.25406e-06,9.99999e-01,9.99999e-01,9.99983e-01,2.25410e-06,9.99999e-01
4.040100000e-01,2.91416e-06,9.99999e-01,9.99999e-01,9.99992e-01,2.91418e-06,9.99999e-01
4.060300500e-01,3.74848e-06,9.99999e-01,9.99999e-01,9.99997e-01,3.74848e-06,9.99999e-01
4.080602003e-01,4.79772e-06,9.99999e-01,9.99999e-01,9.99998e-01,4.79772e-06,9.99999e-01
4.101005013e-01,6.11080e-06,9.99999e-01,9.99999e-01,9.99999e-01,6.11080e-06,9.99999e-01
4.121510038e-01,7.74613e-06,9.99999e-01,9.99999e-01,9.99998e-01,7.74614e-06,9.99999e-01
4.142117588e-01,9.77317e-06,9.99999e-01,9.99999e-01,9.99992e-01,9.77324e-06,9.99999e-01
4.162828176e-01,1.22739e-05,9.99999e-01,9.99999e-01,9.99967e-01,1.22743e-05,9.99999e-01
4.183642317e-01,1.53460e-05,9.99999e-01,9.99999e-01,9.99980e-01,1.53462e-05,9.99999e-01
4.204560528e-01,1.91023e-05,9.99999e-01,9.99999e-01,9.99987e-01,1.91025e-05,9.99999e-01
4.225583331e-01,2.36755e-05,9.99999e-01,9.99999e-01,9.99995e-01,2.36756e-05,9.99999e-01
4.246711247e-01,2.92192e-05,9.99999e-01,9.99999e-01,9.99995e-01,2.92193e-05,9.99999e-01
4.267944804e-01,3.59114e-05,9.99999e-01,9.99999e-01,9.99994e-01,3.59115e-05,9.99999e-01
4.289284528e-01,4.39569e-05,9.99999e-01,9.99999e-01,9.99995e-01,4.39571e-05,9.99999e-01
4.310730950e-01,5.35907e-05,9.99999e-01,9.99999e-01,9.99997e-01,5.35908e-05,9.99999e-01
4.332284605e-01,6.50805e-05,9.99999e-01,9.99999e-01,9.99999e-01,6.50805e-05,9.99999e-01
4.353946028e-01,7.87310e-05,9.99999e-01,9.99999e-01,9.99999e-01,7.87310e-05,9.99999e-01
4.375715758e-01,9.48868e-05,9.99999e-01,9.99999e-01,9.99996e-01,9.48871e-05,9.99999e-01
4.397594337e-01,1.13934e-04,9.99999e-01,9.99999e-01,9.99970e-01,1.13938e-04,9.99999e-01
4.419582309e-01,1.36300e-04,9.99999e-01,9.99999e-01,9.99853e-01,1.36319e-04,9.99999e-01
4.441680220e-01,1.62503e-04,9.99999e-01,9.99999e-01,9.99888e-01,1.62521e-04,9.99999e-01
4.463888621e-01,1.93065e-04,9.99999e-01,9.99999e-01,9.99883e-01,1.93087e-04,9.99999e-01
4.486208064e-01,2.28606e-04,9.99999e-01,9.99999e-01,9.99927e-01,2.28623e-04,9.99999e-01
4.508639105e-01,2.69787e-04,9.99999e-01,9.99999e-01,9.99965e-01,2.69796e-04,9.99999e-01
4.531182300e-01,3.17341e-04,9.99999e-01,9.99999e-01,9.99986e-01,3.17345e-04,9.99999e-01
4.553838212e-01,3.72076e-04,9.99999e-01,9.99999e-01,9.99990e-01,3.72079e-04,9.99999e-01
4.576607403e-01,4.34882e-04,9.99999e-01,9.99999e-01,9.99995e-01,4.34884e-04,9.99999e-01
4.599490440e-01,5.06725e-04,9.99999e-01,9.99999e-01,9.99996e-01,5.06727e-04,9.99999e-01
4.622487892e-01,5.88657e-04,9.99999e-01,9.99999e-01,9.99998e-01,5.88658e-04,9.99999e-01
4.645600332e-01,6.81813e-04,9.99999e-01,9.99999e-01,9.99997e-01,6.81814e-04,9.99999e-01
4.668828333e-01,7.87397e-04,9.99999e-01,9.99999e-01,9.99964e-01,7.87425e-04,9.99999e-01
4.692172475e-01,9.06744e-04,9.99999e-01,9.99999e-01,9.99926e-01,9.06810e-04,9.99999e-01
4.715633337e-01,1.04134e-03,9.99999e-01,9.99999e-01,9.99951e-01,1.04139e-03,9.99999e-01
4.739211504e-01,1.19262e-03,9.99999e-01,9.99999e-01,9.99954e-01,1.19268e-03,9.99999e-01
4.762907561e-01,1.36225e-03,9.99999e-01,9.99999e-01,9.99976e-01,1.36229e-03,9.99999e-01
4.786722099e-01,1.55192e-03,9.99999e-01,9.99999e-01,9.99989e-01,1.55194e-03,9.99999e-01
4.810655710e-01,1.76344e-03,9.99999e-01,9.99999e-01,9.99996e-01,1.76344e-03,9.99999e-01
4.834708988e-01,1.99866e-03,9.99999e-01,9.99999e-01,9.99970e-01,1.99872e-03,9.99999e-01
4.858882533e-01,2.25968e-03,9.99999e-01,9.99999e-01,9.99948e-01,2.25979e-03,9.99999e-01
4.883176946e-01,2.54867e-03,9.99999e-01,9.99999e-01,9.99956e-01,2.54878e-03,9.99999e-01
4.907592831e-01,2.86779e-03,9.99999e-01,9.99999e-01,9.99960e-01,2.86790e-03,9.99999e-01
4.932130795e-01,3.21937e-03,9.99999e-01,9.99999e-01,9.99971e-01,3.21946e-03,9.99999e-01
4.956791449e-01,3.60582e-03,9.99999e-01,9.99999e-01,9.99984e-01,3.60588e-03,9.99999e-01
4.981575406e-01,4.02934e-03,9.99999e-01,9.99999e-01,9.99925e-01,4.02964e-03,9.99999e-01
5.006483283e-01,4.49246e-03,9.99999e-01,9.99999e-01,9.99806e-01,4.49333e-03,9.99999e-01
5.031515699e-01,4.99476e-03,9.99999e-01,9.99999e-01,9.99031e-01,4.99960e-03,9.99999e-01
5.056673278e-01,5.54838e-03,9.99999e-01,9.99999e-01,9.99491e-01,5.55120e-03,9.99999e-01
5.081956644e-01,6.14699e-03,9.99999e-01,9.99999e-01,9.99358e-01,6.15094e-03,9.99999e-01
5.107366428e-01,6.79872e-03,9.99999e-01,9.99999e-01,9.99567e-01,6.80166e-03,9.99999e-01
5.132903260e-01,7.50446e-03,9.99999e-01,9.99999e-01,9.99752e-01,7.50631e-03,9.99999e-01
5.158567776e-01,8.26698e-03,9.99999e-01,9.99999e-01,9.99895e-01,8.26784e-03,9.99999e-01
5.184360615e-01,9.08888e-03,9.99999e-01,9.99999e-01,9.99957e-01,9.08926e-03,9.99999e-01
5.210282418e-01,9.97346e-03,9.99999e-01,9.99999e-01,9.99983e-01,9.97362e-03,9.99999e-01
5.236333830e-01,1.09233e-02,9.99999e-01,9.99999e-01,9.99936e-01,1.09240e-02,9.99999e-01
5.262515499e-01,1.19429e-02,9.99999e-01,9.99999e-01,9.99960e-01,1.19434e-02,9.99999e-01
5.288828077e-01,1.30345e-02,9.99999e-01,9.99999e-01,9.99963e-01,1.30349e-02,9.99999e-01
5.315272217e-01,1.42012e-02,9.99999e-01,9.99999e-01,9.99968e-01,1.42017e-02,9.99999e-01
5.341848578e-01,1.54464e-02,9.99999e-01,9.99999e-01,9.99978e-01,1.54467e-02,9.99999e-01
5.368557821e-01,1.67718e-02,9.99999e-01,9.99999e-01,9.99925e-01,1.67730e-02,9.99999e-01
5.395400610e-01,1.81787e-02,9.99999e-01,9.99999e-01,9.99730e-01,1.81836e-02,9.99999e-01
5.422377613e-01,1.96746e-02,9.99999e-01,9.99999e-01,9.99659e-01,1.96813e-02,9.99999e-01
5.449489501e-01,2.12624e-02,9.99999e-01,9.99999e-01,9.99679e-01,2.12692e-02,9.99999e-01
5.476736949e-01,2.29436e-02,9.99999e-01,9.99999e-01,9.99719e-01,2.29500e-02,9.99999e-01
5.504120634e-01,2.47214e-02,9.99999e-01,9.99999e-01,9.99796e-01,2.47264e-02,9.99999e-01
5.531641237e-01,2.65984e-02,9.99999e-01,9.99999e-01,9.99897e-01,2.66011e-02,9.99999e-01
5.559299443e-01,2.85753e-02,9.99999e-01,9.99999e-01,9.99950e-01,2.85767e-02,9.99999e-01
5.587095940e-01,3.06546e-02,9.99999e-01,9.99999e-01,9.99968e-01,3.06556e-02,9.99999e-01
5.615031420e-01,3.28390e-02,9.99999e-01,9.99999e-01,9.99964e-01,3.28401e-02,9.99999e-01
5.643106577e-01,3.51311e-02,9.99999e-01,9.99999e-01,9.99959e-01,3.51325e-02,9.99999e-01
5.671322110e-01,3.75165e-02,9.99999e-01,9.99999e-01,9.99510e-01,3.75349e-02,9.99999e-01
5.699678720e-01,4.00291e-02,9.99999e-01,9.99999e-01,9.99497e-01,4.00492e-02,9.99999e-01
5.728177114e-01,4.26546e-02,9.99999e-01,9.99999e-01,9.99469e-01,4.26772e-02,9.99999e-01
5.756818000e-01,4.53986e-02,9.99999e-01,9.99999e-01,9.99514e-01,4.54206e-02,9.99999e-01
5.785602090e-01,4.82606e-02,9.99999e-01,9.99999e-01,9.99577e-01,4.82809e-02,9.99999e-01
5.814530100e-01,5.12377e-02,9.99999e-01,9.99999e-01,9.99574e-01,5.12595e-02,9.99999e-01
5.843602750e-01,5.43297e-02,9.99999e-01,9.99999e-01,9.99487e-01,5.43575e-02,9.99999e-01
5.872820764e-01,5.73226e-02,9.99999e-01,9.99999e-01,9.95598e-01,5.75760e-02,9.99999e-01
5.902184868e-01,6.05949e-02,9.99999e-01,9.99999e-01,9.94732e-01,6.09157e-02,9.99999e-01
5.931695792e-01,6.41369e-02,9.99999e-01,9.99999e-01,9.96261e-01,6.43775e-02,9.99999e-01
5.961354271e-01,6.76841e-02,9.99999e-01,9.99999e-01,9.95914e-01,6.79617e-02,9.99999e-01
5.991161043e-01,7.14555e-02,9.99999e-01,9.99999e-01,9.97023e-01,7.16688e-02,9.99999e-01
6.021116848e-01,7.53715e-02,9.99999e-01,9.99999e-01,9.98313e-01,7.54988e-02,9.99999e-01
6.051222432e-01,7.93840e-02,9.99999e-01,9.99999e-01,9.99146e-01,7.94518e-02,9.99999e-01
6.081478544e-01,8.34967e-02,9.99999e-01,9.99999e-01,9.99631e-01,8.35275e-02,9.99999e-01
6.111885937e-01,8.77119e-02,9.99999e-01,9.99999e-01,9.99844e-01,8.77255e-02,9.99999e-01
6.142445367e-01,9.20389e-02,9.99999e-01,9.99999e-01,9.99930e-01,9.20453e-02,9.99999e-01
6.173157594e-01,9.64825e-02,9.99999e-01,9.99999e-01,9.99961e-01,9.64862e-02,9.99999e-01
6.204023382e-01,1.01044e-01,9.99999e-01,9.99999e-01,9.99966e-01,1.01047e-01,9.99999e-01
6.235043498e-01,1.05712e-01,9.99999e-01,9.99999e-01,9.99852e-01,1.05727e-01,9.99999e-01
6.266218716e-01,1.10441e-01,9.99999e-01,9.99999e-01,9.99238e-01,1.10525e-01,9.99999e-01
6.297549810e-01,1.15408e-01,9.99999e-01,9.99999e-01,9.99720e-01,1.15440e-01,9.99999e-01
6.329037559e-01,1.20403e-01,9.99999e-01,9.99999e-01,9.99449e-01,1.20470e-01,9.99999e-01
6.360682746e-01,1.25553e-01,9.99999e-01,9.99999e-01,9.99528e-01,1.25612e-01,9.99999e-01
6.392486160e-01,1.30787e-01,9.99999e-01,9.99999e-01,9.99390e-01,1.30866e-01,9.99999e-01
6.424448591e-01,1.36118e-01,9.99999e-01,9.99999e-01,9.99176e-01,1.36230e-01,9.99999e-01
6.456570834e-01,1.41160e-01,9.99999e-01,9.99999e-01,9.96180e-01,1.41701e-01,9.99999e-01
6.488853688e-01,1.46871e-01,9.99999e-01,9.99999e-01,9.97243e-01,1.47277e-01,9.99999e-01
6.521297956e-01,1.52527e-01,9.99999e-01,9.99999e-01,9.97190e-01,1.52956e-01,9.99999e-01
6.553904446e-01,1.58289e-01,9.99999e-01,9.99999e-01,9.97185e-01,1.58736e-01,9.99999e-01
6.586673968e-01,1.64218e-01,9.99999e-01,9.99999e-01,9.97603e-01,1.64613e-01,9.99999e-01
6.619607338e-01,1.70357e-01,9.99999e-01,9.99999e-01,9.98664e-01,1.70585e-01,9.99999e-01
6.652705375e-01,1.76507e-01,9.99999e-01,9.99999e-01,9.99198e-01,1.76649e-01,9.99999e-01
6.685968902e-01,1.82740e-01,9.99999e-01,9.99999e-01,9.99659e-01,1.82802e-01,9.99999e-01
6.719398746e-01,1.89010e-01,9.99999e-01,9.99999e-01,9.99827e-01,1.89043e-01,9.99999e-01
6.752995740e-01,1.95348e-01,9.99999e-01,9.99999e-01,9.99908e-01,1.95366e-01,9.99999e-01
6.786760719e-01,2.01743e-01,9.99999e-01,9.99999e-01,9.99862e-01,2.01770e-01,9.99999e-01
6.820694522e-01,2.08202e-01,9.99999e-01,9.99999e-01,9.99764e-01,2.08251e-01,9.99999e-01
6.854797995e-01,2.14742e-01,9.99999e-01,9.99999e-01,9.99699e-01,2.14806e-01,9.99999e-01
6.889071985e-01,2.21217e-01,9.99999e-01,9.99999e-01,9.99026e-01,2.21432e-01,9.99999e-01
6.923517345e-01,2.25402e-01,9.99999e-01,9.99999e-01,9.88062e-01,2.28126e-01,9.99999e-01
6.958134932e-01,2.33467e-01,9.99999e-01,9.99999e-01,9.93969e-01,2.34883e-01,9.99999e-01
6.992925606e-01,2.40279e-01,9.99999e-01,9.99999e-01,9.94113e-01,2.41701e-01,9.99999e-01
7.027890234e-01,2.46790e-01,9.99999e-01,9.99999e-01,9.92812e-01,2.48577e-01,9.99999e-01
7.063029686e-01,2.53960e-01,9.99999e-01,9.99999e-01,9.93947e-01,2.55506e-01,9.99999e-01
7.098344834e-01,2.60962e-01,9.99999e-01,9.99999e-01,9.94192e-01,2.62487e-01,9.99999e-01
7.133836558e-01,2.67395e-01,9.99999e-01,9.99999e-01,9.92137e-01,2.69514e-01,9.99999e-01
7.169505741e-01,2.59695e-01,9.99999e-01,9.99999e-01,9.38933e-01,2.76585e-01,9.99998e-01
7.205353270e-01,2.75289e-01,9.99999e-01,9.99999e-01,9.70366e-01,2.83696e-01,9.99998e-01
7.241380036e-01,2.79710e-01,9.99999e-01,9.99999e-01,9.61714e-01,2.90845e-01,9.99998e-01
7.277586936e-01,2.87726e-01,9.99999e-01,9.99999e-01,9.65435e-01,2.98027e-01,9.99998e-01
7.313974871e-01,2.94125e-01,9.99999e-01,9.99999e-01,9.63588e-01,3.05239e-01,9.99998e-01
7.350544745e-01,3.06199e-01,9.99999e-01,9.99999e-01,9.79903e-01,3.12478e-01,9.99999e-01
7.387297469e-01,3.15006e-01,9.99999e-01,9.99999e-01,9.85189e-01,3.19741e-01,9.99999e-01
7.424233956e-01,3.24653e-01,9.99999e-01,9.99999e-01,9.92749e-01,3.27024e-01,9.99999e-01
7.461355126e-01,3.32851e-01,9.99999e-01,9.99999e-01,9.95592e-01,3.34324e-01,9.99999e-01
7.498661902e-01,3.40940e-01,9.99999e-01,9.99999e-01,9.97953e-01,3.41639e-01,9.99999e-01
7.536155211e-01,3.48612e-01,9.99999e-01,9.99999e-01,9.98991e-01,3.48964e-01,9.99999e-01
7.573835987e-01,3.56112e-01,9.99999e-01,9.99999e-01,9.99481e-01,3.56296e-01,9.99999e-01
7.611705167e-01,3.63517e-01,9.99999e-01,9.99999e-01,9.99677e-01,3.63634e-01,9.99999e-01
7.649763693e-01,3.70898e-01,9.99999e-01,9.99999e-01,9.99797e-01,3.70973e-01,9.99999e-01
7.688012511e-01,3.78257e-01,9.99999e-01,9.99999e-01,9.99858e-01,3.78311e-01,9.99999e-01
7.726452574e-01,3.85600e-01,9.99999e-01,9.99999e-01,9.99883e-01,3.85645e-01,9.99999e-01
7.765084837e-01,3.92906e-01,9.99999e-01,9.99999e-01,9.99832e-01,3.92971e-01,9.99999e-01
7.803910261e-01,3.82334e-01,9.99999e-01,9.55807e-01,9.99276e-01,4.00289e-01,9.99999e-01
7.842929812e-01,3.36104e-01,9.99999e-01,8.26567e-01,9.97477e-01,4.07594e-01,9.99999e-01
7.882144461e-01,3.36188e-01,9.99999e-01,8.14293e-01,9.94866e-01,4.14884e-01,9.99999e-01
7.921555184e-01,3.73090e-01,9.99999e-01,8.86178e-01,9.97201e-01,4.22156e-01,9.99999e-01
7.961162960e-01,3.94354e-01,9.99999e-01,9.22943e-01,9.94983e-01,4.29409e-01,9.99999e-01
8.000968774e-01,4.15621e-01,9.99999e-01,9.57345e-01,9.94251e-01,4.36639e-01,9.99999e-01
8.040973618e-01,4.31490e-01,9.99999e-01,9.77783e-01,9.94238e-01,4.43845e-01,9.99999e-01
8.081178486e-01,4.40558e-01,9.99999e-01,9.89687e-01,9.86949e-01,4.51024e-01,9.99999e-01
8.121584379e-01,4.32454e-01,9.99999e-01,9.96848e-01,9.46813e-01,4.58173e-01,9.99998e-01
8.162192301e-01,4.36137e-01,9.99999e-01,9.99302e-01,9.37979e-01,4.65292e-01,9.99998e-01
8.203003262e-01,4.57220e-01,9.99999e-01,9.99990e-01,9.67922e-01,4.72377e-01,9.99998e-01
8.244018279e-01,4.58766e-01,9.99999e-01,9.99999e-01,9.56906e-01,4.79427e-01,9.99998e-01
8.285238370e-01,4.68054e-01,9.99999e-01,9.99999e-01,9.62204e-01,4.86439e-01,9.99998e-01
8.326664562e-01,4.74666e-01,9.99999e-01,9.99999e-01,9.62006e-01,4.93413e-01,9.99998e-01
8.368297885e-01,4.86726e-01,9.99999e-01,9.99999e-01,9.72779e-01,5.00346e-01,9.99999e-01
8.410139374e-01,4.98994e-01,9.99999e-01,9.99999e-01,9.83750e-01,5.07237e-01,9.99999e-01
8.452190071e-01,5.09978e-01,9.99999e-01,9.99999e-01,9.92015e-01,5.14083e-01,9.99999e-01
8.494451021e-01,5.18456e-01,9.99999e-01,9.99999e-01,9.95338e-01,5.20884e-01,9.99999e-01
8.536923276e-01,5.26189e-01,9.99999e-01,9.99999e-01,9.97252e-01,5.27638e-01,9.99999e-01
8.579607893e-01,5.33436e-01,9.99999e-01,9.99999e-01,9.98301e-01,5.34344e-01,9.99999e-01
8.622505932e-01,5.40418e-01,9.99999e-01,9.99999e-01,9.98923e-01,5.41000e-01,9.99999e-01
8.665618462e-01,4.98055e-01,9.99999e-01,9.10096e-01,9.99330e-01,5.47604e-01,9.99999e-01
8.708946554e-01,3.41103e-01,9.99999e-01,6.15986e-01,9.99231e-01,5.54157e-01,9.99999e-01
8.752491287e-01,3.79092e-01,9.99999e-01,6.76826e-01,9.98973e-01,5.60656e-01,9.99999e-01
8.796253743e-01,4.56729e-01,9.99999e-01,8.06483e-01,9.98572e-01,5.67101e-01,9.99999e-01
8.840235012e-01,5.12002e-01,9.99999e-01,8.94209e-01,9.98371e-01,5.73491e-01,9.99999e-01
8.884436187e-01,5.51597e-01,9.99999e-01,9.57060e-01,9.93924e-01,5.79824e-01,9.99999e-01
8.928858368e-01,5.40640e-01,9.99999e-01,9.82345e-01,9.38826e-01,5.86100e-01,9.99998e-01
8.973502660e-01,5.28254e-01,9.99999e-01,9.95713e-01,8.95582e-01,5.92318e-01,9.99998e-01
9.018370173e-01,5.65799e-01,9.99999e-01,9.99528e-01,9.45826e-01,5.98477e-01,9.99997e-01
9.063462024e-01,5.68090e-01,9.99999e-01,9.87429e-01,9.51140e-01,6.04576e-01,9.99997e-01
9.108779334e-01,5.49554e-01,9.99999e-01,9.72192e-01,9.25339e-01,6.10616e-01,9.99997e-01
9.154323231e-01,5.61115e-01,9.99999e-01,9.93501e-01,9.15816e-01,6.16595e-01,9.99997e-01
9.200094847e-01,5.29996e-01,9.99999e-01,9.07804e-01,9.33676e-01,6.22512e-01,9.99996e-01
9.246095321e-01,4.91886e-01,9.99999e-01,8.70977e-01,8.95952e-01,6.28368e-01,9.99994e-01
9.292325798e-01,2.81681e-01,9.99999e-01,8.96292e-01,4.88618e-01,6.34161e-01,9.99989e-01
9.338787427e-01,2.34912e-01,9.99999e-01,9.00677e-01,4.02333e-01,6.39892e-01,9.99986e-01
9.385481364e-01,4.16209e-01,9.99999e-01,9.25878e-01,6.92591e-01,6.45560e-01,9.99985e-01
9.432408771e-01,3.72971e-01,9.99999e-01,9.54062e-01,5.98458e-01,6.51164e-01,9.99984e-01
9.479570815e-01,3.17664e-01,9.99999e-01,9.76102e-01,4.94763e-01,6.56706e-01,9.99986e-01
9.526968669e-01,3.86527e-01,9.99999e-01,9.88440e-01,5.89830e-01,6.62183e-01,9.99989e-01
9.574603512e-01,4.06468e-01,9.99999e-01,9.95047e-01,6.11636e-01,6.67597e-01,9.99992e-01
9.622476530e-01,4.50505e-01,9.99999e-01,9.98455e-01,6.70412e-01,6.72946e-01,9.99994e-01
9.670588912e-01,5.37910e-01,9.99999e-01,9.99537e-01,7.93450e-01,6.78232e-01,9.99996e-01
9.718941857e-01,5.90903e-01,9.99999e-01,9.99967e-01,8.64609e-01,6.83454e-01,9.99997e-01
9.767536566e-01,6.10231e-01,9.99999e-01,9.99999e-01,8.86178e-01,6.88611e-01,9.99998e-01
9.816374249e-01,6.34446e-01,9.99999e-01,9.99999e-01,9.14577e-01,6.93704e-01,9.99998e-01
9.865456120e-01,6.60822e-01,9.99999e-01,9.99999e-01,9.45742e-01,6.98733e-01,9.99999e-01
9.914783401e-01,6.79830e-01,9.99999e-01,9.99999e-01,9.66080e-01,7.03699e-01,9.99999e-01
9.964357318e-01,6.95413e-01,9.99999e-01,9.99999e-01,9.81389e-01,7.08600e-01,9.99999e-01
1.001417910e+00,7.05458e-01,9.99999e-01,9.99999e-01,9.88814e-01,7.13438e-01,9.99999e-01
1.006425000e+00,7.13609e-01,9.99999e-01,9.99999e-01,9.93590e-01,7.18212e-01,9.99999e-01
1.011457125e+00,7.20054e-01,9.99999e-01,9.99999e-01,9.96030e-01,7.22923e-01,9.99999e-01
1.016514411e+00,7.25606e-01,9.99999e-01,9.99999e-01,9.97298e-01,7.27571e-01,9.99999e-01
1.021596983e+00,7.30522e-01,9.99999e-01,9.99921e-01,9.97845e-01,7.32156e-01,9.99999e-01
1.026704968e+00,7.31799e-01,9.99999e-01,9.95046e-01,9.98317e-01,7.36679e-01,9.99999e-01
1.031838492e+00,6.98017e-01,9.99999e-01,9.42921e-01,9.98780e-01,7.41139e-01,9.99999e-01
1.036997685e+00,8.87371e-02,9.99999e-01,1.19092e-01,9.99273e-01,7.45537e-01,9.99999e-01
1.042182673e+00,5.32599e-02,9.99999e-01,7.10786e-02,9.99129e-01,7.49874e-01,9.99999e-01
1.047393587e+00,7.04754e-02,9.99999e-01,9.35440e-02,9.98848e-01,7.54150e-01,9.99999e-01
1.052630555e+00,8.66599e-04,9.99999e-01,1.14400e-03,9.98417e-01,7.58365e-01,9.99999e-01
1.057893707e+00,2.56316e-03,9.99999e-01,3.36715e-03,9.97354e-01,7.62519e-01,9.99999e-01
1.063183176e+00,1.11722e-02,9.99999e-01,1.46169e-02,9.95655e-01,7.66614e-01,9.99999e-01
1.068499092e+00,3.83168e-02,9.99999e-01,5.00138e-02,9.92748e-01,7.70649e-01,9.99999e-01
1.073841587e+00,1.16089e-01,9.99999e-01,1.50931e-01,9.91495e-01,7.74625e-01,9.99999e-01
1.079210795e+00,2.32727e-01,9.99999e-01,3.01843e-01,9.89161e-01,7.78542e-01,9.99999e-01
1.084606849e+00,3.97702e-01,9.99999e-01,5.16303e-01,9.83598e-01,7.82401e-01,9.99999e-01
1.090029883e+00,5.44501e-01,9.99999e-01,7.08775e-01,9.76322e-01,7.86203e-01,9.99998e-01
1.095480033e+00,6.25416e-01,9.99999e-01,8.44216e-01,9.36983e-01,7.89947e-01,9.99997e-01
1.100957433e+00,6.20727e-01,9.99999e-01,9.21541e-01,8.47798e-01,7.93635e-01,9.99996e-01
1.106462220e+00,5.08326e-01,9.99999e-01,9.66842e-01,6.58441e-01,7.97266e-01,9.99993e-01
1.111994531e+00,3.32689e-01,9.99999e-01,9.87576e-01,4.20185e-01,8.00842e-01,9.99987e-01
1.117554504e+00,1.99727e-01,9.99999e-01,9.96974e-01,2.48893e-01,8.04363e-01,9.99982e-01
1.123142276e+00,2.97885e-01,9.99999e-01,9.99802e-01,3.68783e-01,8.07830e-01,9.99979e-01
1.128757988e+00,4.21525e-01,9.99999e-01,9.99999e-01,5.19616e-01,8.11242e-01,9.99977e-01
1.134401778e+00,2.25567e-01,9.99999e-01,9.99999e-01,2.76911e-01,8.14601e-01,9.99974e-01
1.140073787e+00,5.50397e-01,9.99999e-01,9.99999e-01,6.72946e-01,8.17907e-01,9.99979e-01
1.145774156e+00,3.64859e-01,9.99999e-01,9.99999e-01,4.44328e-01,8.21161e-01,9.99982e-01
1.151503026e+00,3.34955e-01,9.99999e-01,9.99999e-01,4.06326e-01,8.24363e-01,9.99984e-01
1.157260541e+00,3.85315e-01,9.99999e-01,9.99999e-01,4.65635e-01,8.27514e-01,9.99988e-01
1.163046844e+00,4.72115e-01,9.99999e-01,9.99999e-01,5.68396e-01,8.30615e-01,9.99992e-01
1.168862078e+00,5.61771e-01,9.99999e-01,9.99999e-01,6.73858e-01,8.33665e-01,9.99996e-01
1.174706389e+00,6.55642e-01,9.99999e-01,9.99999e-01,7.83637e-01,8.36666e-01,9.99997e-01
1.180579921e+00,7.23733e-01,9.99999e-01,9.99999e-01,8.61979e-01,8.39618e-01,9.99998e-01
1.186482820e+00,7.74561e-01,9.99999e-01,9.99987e-01,9.19346e-01,8.42523e-01,9.99998e-01
1.192415234e+00,7.90861e-01,9.99999e-01,9.82389e-01,9.52040e-01,8.45379e-01,9.99998e-01
1.198377311e+00,4.53210e-01,9.99999e-01,5.53155e-01,9.59336e-01,8.48188e-01,9.99998e-01
1.204369197e+00,9.15581e-14,9.99999e-01,1.10061e-13,9.61537e-01,8.50952e-01,9.99998e-01
1.210391043e+00,1.09317e-51,9.99999e-01,1.30752e-51,9.63190e-01,8.53669e-01,9.99999e-01
1.216442998e+00,6.61034e-45,9.99999e-01,7.87320e-45,9.68687e-01,8.56341e-01,9.99999e-01
1.222525213e+00,3.00419e-44,9.99999e-01,3.54246e-44,9.75506e-01,8.58968e-01,9.99999e-01
1.228637839e+00,2.82883e-34,9.99999e-01,3.32248e-34,9.82914e-01,8.61551e-01,9.99999e-01
