#,Wave/freq,Total,O2,CO2,H2O,Rayleigh,CIA
4.000000000e-01,1.49352e-11,9.99999e-01,9.99999e-01,9.99950e-01,1.49359e-11,9.99999e-01
4.020000000e-01,2.44495e-11,9.99999e-01,9.99999e-01,9.99969e-01,2.44502e-11,9.99999e-01
4.040100000e-01,3.96173e-11,9.99999e-01,9.99999e-01,9.99986e-01,3.96178e-11,9.99999e-01
4.060300500e-01,6.35852e-11,9.99999e-01,9.99999e-01,9.99996e-01,6.35854e-11,9.99999e-01
4.080602003e-01,1.01103e-10,9.99999e-01,9.99999e-01,9.99998e-01,1.01104e-10,9.99999e-01
4.101005013e-01,1.59293e-10,9.99999e-01,9.99999e-01,9.99999e-01,1.59293e-10,9.99999e-01
4.121510038e-01,2.48729e-10,9.99999e-01,9.99999e-01,9.99997e-01,2.48730e-10,9.99999e-01
4.142117588e-01,3.84973e-10,9.99999e-01,9.99999e-01,9.99985e-01,3.84978e-10,9.99999e-01
4.162828176e-01,5.90705e-10,9.99999e-01,9.99999e-01,9.99939e-01,5.90741e-10,9.99999e-01
4.183642317e-01,8.98813e-10,9.99999e-01,9.99999e-01,9.99963e-01,8.98845e-10,9.99999e-01
4.204560528e-01,1.35632e-09,9.99999e-01,9.99999e-01,9.99977e-01,1.35635e-09,9.99999e-01
4.225583331e-01,2.03014e-09,9.99999e-01,9.99999e-01,9.99991e-01,2.03016e-09,9.99999e-01
4.246711247e-01,3.01456e-09,9.99999e-01,9.99999e-01,9.99992e-01,3.01458e-09,9.99999e-01
4.267944804e-01,4.44150e-09,9.99999e-01,9.99999e-01,9.99989e-01,4.44154e-09,9.99999e-01
4.289284528e-01,6.49400e-09,9.99999e-01,9.99999e-01,9.99992e-01,6.49405e-09,9.99999e-01
4.310730950e-01,9.42405e-09,9.99999e-01,9.99999e-01,9.99996e-01,9.42407e-09,9.99999e-01
4.332284605e-01,1.35759e-08,9.99999e-01,9.99999e-01,9.99998e-01,1.35759e-08,9.99999e-01
4.353946028e-01,1.94162e-08,9.99999e-01,9.99999e-01,9.99999e-01,1.94162e-08,9.99999e-01
4.375715758e-01,2.75734e-08,9.99999e-01,9.99999e-01,9.99993e-01,2.75735e-08,9.99999e-01
4.397594337e-01,3.88855e-08,9.99999e-01,9.99999e-01,9.99945e-01,3.88876e-08,9.99999e-01
4.419582309e-01,5.44581e-08,9.99999e-01,9.99999e-01,9.99725e-01,5.44730e-08,9.99999e-01
4.441680220e-01,7.57825e-08,9.99999e-01,9.99999e-01,9.99790e-01,7.57983e-08,9.99999e-01
4.463888621e-01,1.04763e-07,9.99999e-01,9.99999e-01,9.99780e-01,1.04786e-07,9.99999e-01
4.486208064e-01,1.43917e-07,9.99999e-01,9.99999e-01,9.99864e-01,1.43936e-07,9.99999e-01
4.508639105e-01,1.96465e-07,9.99999e-01,9.99999e-01,9.99936e-01,1.96478e-07,9.99999e-01
4.531182300e-01,2.66548e-07,9.99999e-01,9.99999e-01,9.99974e-01,2.66555e-07,9.99999e-01
4.553838212e-01,3.59448e-07,9.99999e-01,9.99999e-01,9.99982e-01,3.59455e-07,9.99999e-01
4.576607403e-01,4.81873e-07,9.99999e-01,9.99999e-01,9.99991e-01,4.81877e-07,9.99999e-01
4.599490440e-01,6.42261e-07,9.99999e-01,9.99999e-01,9.99994e-01,6.42264e-07,9.99999e-01
4.622487892e-01,8.51189e-07,9.99999e-01,9.99999e-01,9.99998e-01,8.51190e-07,9.99999e-01
4.645600332e-01,1.12182e-06,9.99999e-01,9.99999e-01,9.99995e-01,1.12182e-06,9.99999e-01
4.668828333e-01,1.47036e-06,9.99999e-01,9.99999e-01,9.99934e-01,1.47046e-06,9.99999e-01
4.692172475e-01,1.91690e-06,9.99999e-01,9.99999e-01,9.99862e-01,1.91717e-06,9.99999e-01
4.715633337e-01,2.48629e-06,9.99999e-01,9.99999e-01,9.99909e-01,2.48652e-06,9.99999e-01
4.739211504e-01,3.20815e-06,9.99999e-01,9.99999e-01,9.99914e-01,3.20843e-06,9.99999e-01
4.762907561e-01,4.11896e-06,9.99999e-01,9.99999e-01,9.99955e-01,4.11914e-06,9.99999e-01
4.786722099e-01,5.26223e-06,9.99999e-01,9.99999e-01,9.99981e-01,5.26232e-06,9.99999e-01
4.810655710e-01,6.69029e-06,9.99999e-01,9.99999e-01,9.99994e-01,6.69033e-06,9.99999e-01
4.834708988e-01,8.46514e-06,9.99999e-01,9.99999e-01,9.99945e-01,8.46560e-06,9.99999e-01
4.858882533e-01,1.06612e-05,9.99999e-01,9.99999e-01,9.99902e-01,1.06622e-05,9.99999e-01
4.883176946e-01,1.33667e-05,9.99999e-01,9.99999e-01,9.99917e-01,1.33678e-05,9.99999e-01
4.907592831e-01,1.66841e-05,9.99999e-01,9.99999e-01,9.99926e-01,1.66853e-05,9.99999e-01
4.932130795e-01,2.07339e-05,9.99999e-01,9.99999e-01,9.99947e-01,2.07350e-05,9.99999e-01
4.956791449e-01,2.56566e-05,9.99999e-01,9.99999e-01,9.99971e-01,2.56573e-05,9.99999e-01
4.981575406e-01,3.16104e-05,9.99999e-01,9.99999e-01,9.99860e-01,3.16148e-05,9.99999e-01
5.006483283e-01,3.87812e-05,9.99999e-01,9.99999e-01,9.99637e-01,3.87953e-05,9.99999e-01
5.031515699e-01,4.73283e-05,9.99999e-01,9.99999e-01,9.98182e-01,4.74145e-05,9.99999e-01
5.056673278e-01,5.76644e-05,9.99999e-01,9.99999e-01,9.99044e-01,5.77195e-05,9.99999e-01
5.081956644e-01,6.99075e-05,9.99999e-01,9.99999e-01,9.98794e-01,6.99918e-05,9.99999e-01
5.107366428e-01,8.44821e-05,9.99999e-01,9.99999e-01,9.99186e-01,8.45508e-05,9.99999e-01
5.132903260e-01,1.01711e-04,9.99999e-01,9.99999e-01,9.99535e-01,1.01758e-04,9.99999e-01
5.158567776e-01,1.21995e-04,9.99999e-01,9.99999e-01,9.99804e-01,1.22019e-04,9.99999e-01
5.184360615e-01,1.45779e-04,9.99999e-01,9.99999e-01,9.99921e-01,1.45791e-04,9.99999e-01
5.210282418e-01,1.73577e-04,9.99999e-01,9.99999e-01,9.99970e-01,1.73583e-04,9.99999e-01
5.236333830e-01,2.05937e-04,9.99999e-01,9.99999e-01,9.99881e-01,2.05961e-04,9.99999e-01
5.262515499e-01,2.43537e-04,9.99999e-01,9.99999e-01,9.99925e-01,2.43555e-04,9.99999e-01
5.288828077e-01,2.87039e-04,9.99999e-01,9.99999e-01,9.99931e-01,2.87059e-04,9.99999e-01
5.315272217e-01,3.37217e-04,9.99999e-01,9.99999e-01,9.99940e-01,3.37237e-04,9.99999e-01
5.341848578e-01,3.94911e-04,9.99999e-01,9.99999e-01,9.99960e-01,3.94927e-04,9.99999e-01
5.368557821e-01,4.60982e-04,9.99999e-01,9.99999e-01,9.99860e-01,4.61045e-04,9.99999e-01
5.395400610e-01,5.36320e-04,9.99999e-01,9.99999e-01,9.99495e-01,5.36591e-04,9.99999e-01
5.422377613e-01,6.22247e-04,9.99999e-01,9.99999e-01,9.99359e-01,6.22645e-04,9.99999e-01
5.449489501e-01,7.19949e-04,9.99999e-01,9.99999e-01,9.99399e-01,7.20381e-04,9.99999e-01
5.476736949e-01,8.30624e-04,9.99999e-01,9.99999e-01,9.99473e-01,8.31062e-04,9.99999e-01
5.504120634e-01,9.55679e-04,9.99999e-01,9.99999e-01,9.99617e-01,9.56045e-04,9.99999e-01
5.531641237e-01,1.09657e-03,9.99999e-01,9.99999e-01,9.99807e-01,1.09678e-03,9.99999e-01
5.559299443e-01,1.25472e-03,9.99999e-01,9.99999e-01,9.99906e-01,1.25483e-03,9.99999e-01
5.587095940e-01,1.43176e-03,9.99999e-01,9.99999e-01,9.99941e-01,1.43185e-03,9.99999e-01
5.615031420e-01,1.62947e-03,9.99999e-01,9.99999e-01,9.99934e-01,1.62957e-03,9.99999e-01
5.643106577e-01,1.84974e-03,9.99999e-01,9.99999e-01,9.99924e-01,1.84988e-03,9.99999e-01
5.671322110e-01,2.09279e-03,9.99999e-01,9.99999e-01,9.99083e-01,2.09471e-03,9.99999e-01
5.699678720e-01,2.36389e-03,9.99999e-01,9.99999e-01,9.99055e-01,2.36613e-03,9.99999e-01
5.728177114e-01,2.66363e-03,9.99999e-01,9.99999e-01,9.99003e-01,2.66629e-03,9.99999e-01
5.756818000e-01,2.99472e-03,9.99999e-01,9.99999e-01,9.99088e-01,2.99745e-03,9.99999e-01
5.785602090e-01,3.35929e-03,9.99999e-01,9.99999e-01,9.99206e-01,3.36196e-03,9.99999e-01
5.814530100e-01,3.75925e-03,9.99999e-01,9.99999e-01,9.99201e-01,3.76225e-03,9.99999e-01
5.843602750e-01,4.19684e-03,9.99999e-01,9.99999e-01,9.99039e-01,4.20087e-03,9.99999e-01
5.872820764e-01,4.64187e-03,9.99999e-01,9.99999e-01,9.91764e-01,4.68041e-03,9.99999e-01
5.902184868e-01,5.15218e-03,9.99999e-01,9.99999e-01,9.90123e-01,5.20357e-03,9.99999e-01
5.931695792e-01,5.73267e-03,9.99999e-01,9.99999e-01,9.92993e-01,5.77312e-03,9.99999e-01
5.961354271e-01,6.34290e-03,9.99999e-01,9.99999e-01,9.92338e-01,6.39187e-03,9.99999e-01
5.991161043e-01,7.02327e-03,9.99999e-01,9.99999e-01,9.94413e-01,7.06273e-03,9.99999e-01
6.021116848e-01,7.76394e-03,9.99999e-01,9.99999e-01,9.96831e-01,7.78862e-03,9.99999e-01
6.051222432e-01,8.55879e-03,9.99999e-01,9.99999e-01,9.98396e-01,8.57254e-03,9.99999e-01
6.081478544e-01,9.41098e-03,9.99999e-01,9.99999e-01,9.99306e-01,9.41750e-03,9.99999e-01
6.111885937e-01,1.03235e-02,9.99999e-01,9.99999e-01,9.99707e-01,1.03266e-02,9.99999e-01
6.142445367e-01,1.13013e-02,9.99999e-01,9.99999e-01,9.99868e-01,1.13028e-02,9.99999e-01
6.173157594e-01,1.23483e-02,9.99999e-01,9.99999e-01,9.99927e-01,1.23492e-02,9.99999e-01
6.204023382e-01,1.34681e-02,9.99999e-01,9.99999e-01,9.99938e-01,1.34690e-02,9.99999e-01
6.235043498e-01,1.46610e-02,9.99999e-01,9.99999e-01,9.99724e-01,1.46651e-02,9.99999e-01
6.266218716e-01,1.59178e-02,9.99999e-01,9.99999e-01,9.98569e-01,1.59406e-02,9.99999e-01
6.297549810e-01,1.72895e-02,9.99999e-01,9.99999e-01,9.99474e-01,1.72985e-02,9.99999e-01
6.329037559e-01,1.87225e-02,9.99999e-01,9.99999e-01,9.98966e-01,1.87419e-02,9.99999e-01
6.360682746e-01,2.02556e-02,9.99999e-01,9.99999e-01,9.99115e-01,2.02735e-02,9.99999e-01
6.392486160e-01,2.18713e-02,9.99999e-01,9.99999e-01,9.98856e-01,2.18964e-02,9.99999e-01
6.424448591e-01,2.35767e-02,9.99999e-01,9.99999e-01,9.98455e-01,2.36131e-02,9.99999e-01
6.456570834e-01,2.52448e-02,9.99999e-01,9.99999e-01,9.92849e-01,2.54266e-02,9.99999e-01
6.488853688e-01,2.71979e-02,9.99999e-01,9.99999e-01,9.94826e-01,2.73393e-02,9.99999e-01
6.521297956e-01,2.91991e-02,9.99999e-01,9.99999e-01,9.94727e-01,2.93538e-02,9.99999e-01
6.553904446e-01,3.13064e-02,9.99999e-01,9.99999e-01,9.94721e-01,3.14726e-02,9.99999e-01
6.586673968e-01,3.35462e-02,9.99999e-01,9.99999e-01,9.95500e-01,3.36978e-02,9.99999e-01
6.619607338e-01,3.59413e-02,9.99999e-01,9.99999e-01,9.97491e-01,3.60317e-02,9.99999e-01
6.652705375e-01,3.84184e-02,9.99999e-01,9.99999e-01,9.98493e-01,3.84764e-02,9.99999e-01
6.685968902e-01,4.10074e-02,9.99999e-01,9.99999e-01,9.99360e-01,4.10336e-02,9.99999e-01
6.719398746e-01,4.36911e-02,9.99999e-01,9.99999e-01,9.99675e-01,4.37053e-02,9.99999e-01
6.752995740e-01,4.64850e-02,9.99999e-01,9.99999e-01,9.99828e-01,4.64929e-02,9.99999e-01
6.786760719e-01,4.93853e-02,9.99999e-01,9.99999e-01,9.99742e-01,4.93980e-02,9.99999e-01
6.820694522e-01,5.23987e-02,9.99999e-01,9.99999e-01,9.99558e-01,5.24218e-02,9.99999e-01
6.854797995e-01,5.55341e-02,9.99999e-01,9.99999e-01,9.99436e-01,5.55654e-02,9.99999e-01
6.889071985e-01,5.87483e-02,9.99999e-01,9.99999e-01,9.98613e-01,5.88298e-02,9.99999e-01
6.923517345e-01,6.08366e-02,9.99999e-01,9.99999e-01,9.77830e-01,6.22159e-02,9.99999e-01
6.958134932e-01,6.49805e-02,9.99999e-01,9.99999e-01,9.88685e-01,6.57241e-02,9.99999e-01
6.992925606e-01,6.85913e-02,9.99999e-01,9.99999e-01,9.88989e-01,6.93549e-02,9.99999e-01
7.027890234e-01,7.21248e-02,9.99999e-01,9.99999e-01,9.86541e-01,7.31087e-02,9.99999e-01
7.063029686e-01,7.61123e-02,9.99999e-01,9.99999e-01,9.88658e-01,7.69854e-02,9.99999e-01
7.098344834e-01,8.01035e-02,9.99999e-01,9.99999e-01,9.89115e-01,8.09850e-02,9.99999e-01
7.133836558e-01,8.38586e-02,9.99999e-01,9.99999e-01,9.85329e-01,8.51072e-02,9.99998e-01
7.169505741e-01,7.94549e-02,9.99999e-01,9.99999e-01,8.89239e-01,8.93516e-02,9.99998e-01
7.205353270e-01,8.85802e-02,9.99999e-01,9.99999e-01,9.45184e-01,9.37175e-02,9.99997e-01
7.241380036e-01,9.12924e-02,9.99999e-01,9.99999e-01,9.29620e-01,9.82041e-02,9.99997e-01
7.277586936e-01,9.62667e-02,9.99999e-01,9.99999e-01,9.36351e-01,1.02811e-01,9.99998e-01
7.313974871e-01,1.00310e-01,9.99999e-01,9.99999e-01,9.32811e-01,1.07536e-01,9.99998e-01
7.350544745e-01,1.08177e-01,9.99999e-01,9.99999e-01,9.62618e-01,1.12378e-01,9.99998e-01
7.387297469e-01,1.14093e-01,9.99999e-01,9.99999e-01,9.72357e-01,1.17336e-01,9.99999e-01
7.424233956e-01,1.20746e-01,9.99999e-01,9.99999e-01,9.86409e-01,1.22409e-01,9.99999e-01
7.461355126e-01,1.26539e-01,9.99999e-01,9.99999e-01,9.91728e-01,1.27594e-01,9.99999e-01
7.498661902e-01,1.32379e-01,9.99999e-01,9.99999e-01,9.96153e-01,1.32890e-01,9.99999e-01
7.536155211e-01,1.38033e-01,9.99999e-01,9.99999e-01,9.98105e-01,1.38295e-01,9.99999e-01
7.573835987e-01,1.43666e-01,9.99999e-01,9.99999e-01,9.99024e-01,1.43806e-01,9.99999e-01
7.611705167e-01,1.49331e-01,9.99999e-01,9.99999e-01,9.99393e-01,1.49422e-01,9.99999e-01
7.649763693e-01,1.55080e-01,9.99999e-01,9.99999e-01,9.99619e-01,1.55139e-01,9.99999e-01
7.688012511e-01,1.60913e-01,9.99999e-01,9.99999e-01,9.99734e-01,1.60956e-01,9.99999e-01
7.726452574e-01,1.66833e-01,9.99999e-01,9.99999e-01,9.99781e-01,1.66869e-01,9.99999e-01
7.765084837e-01,1.72822e-01,9.99999e-01,9.99999e-01,9.99686e-01,1.72877e-01,9.99999e-01
7.803910261e-01,1.65531e-01,9.99999e-01,9.26054e-01,9.98644e-01,1.78975e-01,9.99999e-01
7.842929812e-01,1.30242e-01,9.99999e-01,7.06402e-01,9.95274e-01,1.85162e-01,9.99999e-01
7.882144461e-01,1.30884e-01,9.99999e-01,6.89791e-01,9.90378e-01,1.91434e-01,9.99999e-01
7.921555184e-01,1.57178e-01,9.99999e-01,7.98655e-01,9.94745e-01,1.97789e-01,9.99999e-01
7.961162960e-01,1.74086e-01,9.99999e-01,8.60351e-01,9.90610e-01,2.04222e-01,9.99999e-01
8.000968774e-01,1.92104e-01,9.99999e-01,9.21465e-01,9.89227e-01,2.10732e-01,9.99999e-01
8.040973618e-01,2.06090e-01,9.99999e-01,9.58649e-01,9.89208e-01,2.17314e-01,9.99999e-01
8.081178486e-01,2.14323e-01,9.99999e-01,9.80705e-01,9.75690e-01,2.23966e-01,9.99998e-01
8.121584379e-01,2.07092e-01,9.99999e-01,9.94071e-01,9.02961e-01,2.30684e-01,9.99998e-01
8.162192301e-01,2.10418e-01,9.99999e-01,9.98686e-01,8.87215e-01,2.37465e-01,9.99997e-01
8.203003262e-01,2.30042e-01,9.99999e-01,9.99981e-01,9.41627e-01,2.44306e-01,9.99997e-01
8.244018279e-01,2.31566e-01,9.99999e-01,9.99999e-01,9.21833e-01,2.51202e-01,9.99997e-01
8.285238370e-01,2.40192e-01,9.99999e-01,9.99999e-01,9.30433e-01,2.58151e-01,9.99998e-01
8.326664562e-01,2.46609e-01,9.99999e-01,9.99999e-01,9.30076e-01,2.65150e-01,9.99998e-01
8.368297885e-01,2.58452e-01,9.99999e-01,9.99999e-01,9.49515e-01,2.72194e-01,9.99998e-01
8.410139374e-01,2.70816e-01,9.99999e-01,9.99999e-01,9.69691e-01,2.79281e-01,9.99999e-01
8.452190071e-01,2.82122e-01,9.99999e-01,9.99999e-01,9.85039e-01,2.86407e-01,9.99999e-01
8.494451021e-01,2.91002e-01,9.99999e-01,9.99999e-01,9.91256e-01,2.93568e-01,9.99999e-01
8.536923276e-01,2.99211e-01,9.99999e-01,9.99999e-01,9.94840e-01,3.00762e-01,9.99999e-01
8.579607893e-01,3.07003e-01,9.99999e-01,9.99999e-01,9.96809e-01,3.07985e-01,9.99999e-01
8.622505932e-01,3.14596e-01,9.99999e-01,9.99999e-01,9.97977e-01,3.15234e-01,9.99999e-01
8.665618462e-01,2.82870e-01,9.99999e-01,8.78139e-01,9.98743e-01,3.22504e-01,9.99999e-01
8.708946554e-01,1.38357e-01,9.99999e-01,4.20087e-01,9.98557e-01,3.29794e-01,9.99999e-01
8.752491287e-01,1.65050e-01,9.99999e-01,4.90506e-01,9.98072e-01,3.37100e-01,9.99999e-01
8.796253743e-01,2.30745e-01,9.99999e-01,6.71638e-01,9.97322e-01,3.44419e-01,9.99999e-01
8.840235012e-01,2.84560e-01,9.99999e-01,8.11382e-01,9.96945e-01,3.51747e-01,9.99999e-01
8.884436187e-01,3.27033e-01,9.99999e-01,9.20922e-01,9.88693e-01,3.59082e-01,9.99998e-01
8.928858368e-01,3.15278e-01,9.99999e-01,9.67063e-01,8.89110e-01,3.66421e-01,9.99997e-01
8.973502660e-01,3.02088e-01,9.99999e-01,9.91947e-01,8.14492e-01,3.73760e-01,9.99996e-01
9.018370173e-01,3.43252e-01,9.99999e-01,9.99112e-01,9.01442e-01,3.81096e-01,9.99996e-01
9.063462024e-01,3.46244e-01,9.99999e-01,9.76841e-01,9.10991e-01,3.88428e-01,9.99996e-01
9.108779334e-01,3.25335e-01,9.99999e-01,9.48447e-01,8.65475e-01,3.95751e-01,9.99995e-01
9.154323231e-01,3.38094e-01,9.99999e-01,9.87798e-01,8.48666e-01,4.03064e-01,9.99995e-01
9.200094847e-01,3.09356e-01,9.99999e-01,8.44936e-01,8.79930e-01,4.10364e-01,9.99994e-01
9.246095321e-01,2.66583e-01,9.99999e-01,7.72314e-01,8.18765e-01,4.17648e-01,9.99990e-01
9.292325798e-01,1.01189e-01,9.99999e-01,8.16875e-01,2.80487e-01,4.24913e-01,9.99979e-01
9.338787427e-01,7.30278e-02,9.99999e-01,8.22816e-01,1.98297e-01,4.32157e-01,9.99974e-01
9.385481364e-01,2.00411e-01,9.99999e-01,8.65739e-01,5.18376e-01,4.39379e-01,9.99973e-01
9.432408771e-01,1.68102e-01,9.99999e-01,9.15455e-01,4.07341e-01,4.46574e-01,9.99970e-01
9.479570815e-01,1.27232e-01,9.99999e-01,9.55568e-01,2.92062e-01,4.53742e-01,9.99974e-01
9.526968669e-01,1.76265e-01,9.99999e-01,9.78391e-01,3.89553e-01,4.60880e-01,9.99980e-01
9.574603512e-01,1.90004e-01,9.99999e-01,9.90706e-01,4.09282e-01,4.67986e-01,9.99985e-01
9.622476530e-01,2.27558e-01,9.99999e-01,9.97096e-01,4.80230e-01,4.75058e-01,9.99990e-01
9.670588912e-01,3.14497e-01,9.99999e-01,9.99130e-01,6.52863e-01,4.82094e-01,9.99993e-01
9.718941857e-01,3.72792e-01,9.99999e-01,9.99939e-01,7.62252e-01,4.89092e-01,9.99995e-01
9.767536566e-01,3.95837e-01,9.99999e-01,9.99999e-01,7.97977e-01,4.96051e-01,9.99997e-01
9.816374249e-01,4.25493e-01,9.99999e-01,9.99999e-01,8.45965e-01,5.02968e-01,9.99997e-01
9.865456120e-01,4.59174e-01,9.99999e-01,9.99999e-01,9.00621e-01,5.09842e-01,9.99998e-01
9.914783401e-01,4.84242e-01,9.99999e-01,9.99999e-01,9.37235e-01,5.16671e-01,9.99999e-01
9.964357318e-01,5.05302e-01,9.99999e-01,9.99999e-01,9.65321e-01,5.23455e-01,9.99999e-01
1.001417910e+00,5.19098e-01,9.99999e-01,9.99999e-01,9.79077e-01,5.30190e-01,9.99999e-01
1.006425000e+00,5.30429e-01,9.99999e-01,9.99999e-01,9.87988e-01,5.36877e-01,9.99999e-01
1.011457125e+00,5.39465e-01,9.99999e-01,9.99999e-01,9.92550e-01,5.43514e-01,9.99999e-01
1.016514411e+00,5.47309e-01,9.99999e-01,9.99999e-01,9.94928e-01,5.50099e-01,9.99999e-01
1.021596983e+00,5.54300e-01,9.99999e-01,9.99855e-01,9.95954e-01,5.56631e-01,9.99999e-01
1.026704968e+00,5.56166e-01,9.99999e-01,9.90786e-01,9.96841e-01,5.63110e-01,9.99999e-01
1.031838492e+00,5.20211e-01,9.99999e-01,9.15386e-01,9.97708e-01,5.69534e-01,9.99999e-01
1.036997685e+00,3.77431e-02,9.99999e-01,6.56053e-02,9.98635e-01,5.75902e-01,9.99999e-01
1.042182673e+00,6.00211e-03,9.99999e-01,1.03226e-02,9.98366e-01,5.82214e-01,9.99999e-01
1.047393587e+00,1.25358e-02,9.99999e-01,2.13413e-02,9.97838e-01,5.88468e-01,9.99999e-01
1.052630555e+00,8.24467e-06,9.99999e-01,1.38912e-05,9.97030e-01,5.94663e-01,9.99999e-01
1.057893707e+00,3.09162e-05,9.99999e-01,5.16001e-05,9.95039e-01,6.00800e-01,9.99999e-01
1.063183176e+00,3.87721e-04,9.99999e-01,6.42057e-04,9.91858e-01,6.06877e-01,9.99999e-01
1.068499092e+00,2.65468e-03,9.99999e-01,4.37382e-03,9.86426e-01,6.12893e-01,9.99999e-01
1.073841587e+00,1.90413e-02,9.99999e-01,3.11441e-02,9.84107e-01,6.18849e-01,9.99999e-01
1.079210795e+00,6.89707e-02,9.99999e-01,1.12270e-01,9.79745e-01,6.24743e-01,9.99998e-01
1.084606849e+00,1.79587e-01,9.99999e-01,2.92892e-01,9.69452e-01,6.30575e-01,9.99998e-01
1.090029883e+00,3.20986e-01,9.99999e-01,5.26070e-01,9.56150e-01,6.36345e-01,9.99997e-01
1.095480033e+00,4.15323e-01,9.99999e-01,7.28440e-01,8.85315e-01,6.42052e-01,9.99996e-01
1.100957433e+00,4.10128e-01,9.99999e-01,8.57888e-01,7.35338e-01,6.47695e-01,9.99994e-01
1.106462220e+00,2.87189e-01,9.99999e-01,9.38620e-01,4.66062e-01,6.53276e-01,9.99988e-01
1.111994531e+00,1.34674e-01,9.99999e-01,9.76773e-01,2.08572e-01,6.58793e-01,9.99976e-01
1.117554504e+00,5.56204e-02,9.99999e-01,9.94313e-01,8.40512e-02,6.64246e-01,9.99967e-01
1.123142276e+00,1.19989e-01,9.99999e-01,9.99628e-01,1.79206e-01,6.69636e-01,9.99961e-01
1.128757988e+00,2.09124e-01,9.99999e-01,9.99999e-01,3.09844e-01,6.74961e-01,9.99957e-01
1.134401778e+00,9.81201e-02,9.99999e-01,9.99999e-01,1.44254e-01,6.80222e-01,9.99952e-01
1.140073787e+00,3.32391e-01,9.99999e-01,9.99999e-01,4.84964e-01,6.85419e-01,9.99961e-01
1.145774156e+00,1.63690e-01,9.99999e-01,9.99999e-01,2.37049e-01,6.90552e-01,9.99967e-01
1.151503026e+00,1.41762e-01,9.99999e-01,9.99999e-01,2.03797e-01,6.95621e-01,9.99971e-01
1.157260541e+00,1.73567e-01,9.99999e-01,9.99999e-01,2.47736e-01,7.00626e-01,9.99978e-01
1.163046844e+00,2.50167e-01,9.99999e-01,9.99999e-01,3.54566e-01,7.05567e-01,9.99986e-01
1.168862078e+00,3.40777e-01,9.99999e-01,9.99999e-01,4.79670e-01,7.10445e-01,9.99992e-01
1.174706389e+00,4.54057e-01,9.99999e-01,9.99999e-01,6.34816e-01,7.15258e-01,9.99996e-01
1.180579921e+00,5.45473e-01,9.99999e-01,9.99999e-01,7.57593e-01,7.20008e-01,9.99997e-01
1.186482820e+00,6.18947e-01,9.99999e-01,9.99977e-01,8.54095e-01,7.24695e-01,9.99997e-01
1.192415234e+00,6.44321e-01,9.99999e-01,9.68043e-01,9.11842e-01,7.29319e-01,9.99997e-01
1.198377311e+00,3.63969e-01,9.99999e-01,5.29176e-01,9.25051e-01,7.33881e-01,9.99998e-01
1.204369197e+00,6.91368e-24,9.99999e-01,9.77065e-24,9.29126e-01,7.38380e-01,9.99998e-01
1.210391043e+00,3.81070e-95,9.99999e-01,5.33489e-95,9.32058e-01,7.42816e-01,9.99998e-01
1.216442998e+00,2.10837e-82,9.99999e-01,2.92837e-82,9.42037e-01,7.47191e-01,9.99998e-01
1.222525213e+00,3.62414e-81,9.99999e-01,4.93981e-81,9.54492e-01,7.51505e-01,9.99999e-01
1.228637839e+00,1.06005e-62,9.99999e-01,1.43364e-62,9.68147e-01,7.55758e-01,9.99999e-01
