#,Wave/freq,Total,O2,CO2,H2O,Rayleigh,CIA
4.000000000e-01,1.22063e-17,9.99999e-01,9.99999e-01,9.99923e-01,1.22072e-17,9.99999e-01
4.020000000e-01,2.63645e-17,9.99999e-01,9.99999e-01,9.99952e-01,2.63658e-17,9.99999e-01
4.040100000e-01,5.60412e-17,9.99999e-01,9.99999e-01,9.99979e-01,5.60423e-17,9.99999e-01
4.060300500e-01,1.17360e-16,9.99999e-01,9.99999e-01,9.99994e-01,1.17361e-16,9.99999e-01
4.080602003e-01,2.42208e-16,9.99999e-01,9.99999e-01,9.99998e-01,2.42209e-16,9.99999e-01
4.101005013e-01,4.92766e-16,9.99999e-01,9.99999e-01,9.99999e-01,4.92766e-16,9.99999e-01
4.121510038e-01,9.88548e-16,9.99999e-01,9.99999e-01,9.99996e-01,9.88551e-16,9.99999e-01
4.142117588e-01,1.95603e-15,9.99999e-01,9.99999e-01,9.99978e-01,1.95607e-15,9.99999e-01
4.162828176e-01,3.81835e-15,9.99999e-01,9.99999e-01,9.99905e-01,3.81871e-15,9.99999e-01
4.183642317e-01,7.35673e-15,9.99999e-01,9.99999e-01,9.99943e-01,7.35714e-15,9.99999e-01
4.204560528e-01,1.39914e-14,9.99999e-01,9.99999e-01,9.99965e-01,1.39919e-14,9.99999e-01
4.225583331e-01,2.62739e-14,9.99999e-01,9.99999e-01,9.99986e-01,2.62742e-14,9.99999e-01
4.246711247e-01,4.87274e-14,9.99999e-01,9.99999e-01,9.99989e-01,4.87279e-14,9.99999e-01
4.267944804e-01,8.92731e-14,9.99999e-01,9.99999e-01,9.99984e-01,8.92745e-14,9.99999e-01
4.289284528e-01,1.61614e-13,9.99999e-01,9.99999e-01,9.99987e-01,1.61615e-13,9.99999e-01
4.310730950e-01,2.89164e-13,9.99999e-01,9.99999e-01,9.99994e-01,2.89166e-13,9.99999e-01
4.332284605e-01,5.11470e-13,9.99999e-01,9.99999e-01,9.99998e-01,5.11470e-13,9.99999e-01
4.353946028e-01,8.94543e-13,9.99999e-01,9.99999e-01,9.99998e-01,8.94544e-13,9.99999e-01
4.375715758e-01,1.54733e-12,9.99999e-01,9.99999e-01,9.99990e-01,1.54735e-12,9.99999e-01
4.397594337e-01,2.64750e-12,9.99999e-01,9.99999e-01,9.99916e-01,2.64772e-12,9.99999e-01
4.419582309e-01,4.48091e-12,9.99999e-01,9.99999e-01,9.99578e-01,4.48280e-12,9.99999e-01
4.441680220e-01,7.50873e-12,9.99999e-01,9.99999e-01,9.99671e-01,7.51120e-12,9.99999e-01
4.463888621e-01,1.24535e-11,9.99999e-01,9.99999e-01,9.99657e-01,1.24578e-11,9.99999e-01
4.486208064e-01,2.04523e-11,9.99999e-01,9.99999e-01,9.99787e-01,2.04566e-11,9.99999e-01
4.508639105e-01,3.32604e-11,9.99999e-01,9.99999e-01,9.99900e-01,3.32637e-11,9.99999e-01
4.531182300e-01,5.35699e-11,9.99999e-01,9.99999e-01,9.99960e-01,5.35720e-11,9.99999e-01
4.553838212e-01,8.54684e-11,9.99999e-01,9.99999e-01,9.99972e-01,8.54707e-11,9.99999e-01
4.576607403e-01,1.35109e-10,9.99999e-01,9.99999e-01,9.99987e-01,1.35110e-10,9.99999e-01
4.599490440e-01,2.11655e-10,9.99999e-01,9.99999e-01,9.99990e-01,2.11657e-10,9.99999e-01
4.622487892e-01,3.28643e-10,9.99999e-01,9.99999e-01,9.99998e-01,3.28643e-10,9.99999e-01
4.645600332e-01,5.05872e-10,9.99999e-01,9.99999e-01,9.99993e-01,5.05875e-10,9.99999e-01
4.668828333e-01,7.72000e-10,9.99999e-01,9.99999e-01,9.99899e-01,7.72078e-10,9.99999e-01
4.692172475e-01,1.16831e-09,9.99999e-01,9.99999e-01,9.99785e-01,1.16856e-09,9.99999e-01
4.715633337e-01,1.75399e-09,9.99999e-01,9.99999e-01,9.99859e-01,1.75424e-09,9.99999e-01
4.739211504e-01,2.61205e-09,9.99999e-01,9.99999e-01,9.99865e-01,2.61240e-09,9.99999e-01
4.762907561e-01,3.85961e-09,9.99999e-01,9.99999e-01,9.99929e-01,3.85988e-09,9.99999e-01
4.786722099e-01,5.65910e-09,9.99999e-01,9.99999e-01,9.99971e-01,5.65926e-09,9.99999e-01
4.810655710e-01,8.23493e-09,9.99999e-01,9.99999e-01,9.99990e-01,8.23500e-09,9.99999e-01
4.834708988e-01,1.18936e-08,9.99999e-01,9.99999e-01,9.99917e-01,1.18946e-08,9.99999e-01
4.858882533e-01,1.70535e-08,9.99999e-01,9.99999e-01,9.99847e-01,1.70561e-08,9.99999e-01
4.883176946e-01,2.42809e-08,9.99999e-01,9.99999e-01,9.99872e-01,2.42840e-08,9.99999e-01
4.907592831e-01,3.43304e-08,9.99999e-01,9.99999e-01,9.99884e-01,3.43344e-08,9.99999e-01
4.932130795e-01,4.82094e-08,9.99999e-01,9.99999e-01,9.99918e-01,4.82133e-08,9.99999e-01
4.956791449e-01,6.72471e-08,9.99999e-01,9.99999e-01,9.99956e-01,6.72500e-08,9.99999e-01
4.981575406e-01,9.31686e-08,9.99999e-01,9.99999e-01,9.99783e-01,9.31887e-08,9.99999e-01
5.006483283e-01,1.28231e-07,9.99999e-01,9.99999e-01,9.99440e-01,1.28303e-07,9.99999e-01
5.031515699e-01,1.75039e-07,9.99999e-01,9.99999e-01,9.97169e-01,1.75536e-07,9.99999e-01
5.056673278e-01,2.38318e-07,9.99999e-01,9.99999e-01,9.98505e-01,2.38674e-07,9.99999e-01
5.081956644e-01,3.21952e-07,9.99999e-01,9.99999e-01,9.98114e-01,3.22560e-07,9.99999e-01
5.107366428e-01,4.32791e-07,9.99999e-01,9.99999e-01,9.98726e-01,4.33343e-07,9.99999e-01
5.132903260e-01,5.78367e-07,9.99999e-01,9.99999e-01,9.99271e-01,5.78788e-07,9.99999e-01
5.158567776e-01,7.68408e-07,9.99999e-01,9.99999e-01,9.99692e-01,7.68644e-07,9.99999e-01
5.184360615e-01,1.01495e-06,9.99999e-01,9.99999e-01,9.99876e-01,1.01507e-06,9.99999e-01
5.210282418e-01,1.33310e-06,9.99999e-01,9.99999e-01,9.99953e-01,1.33317e-06,9.99999e-01
5.236333830e-01,1.74121e-06,9.99999e-01,9.99999e-01,9.99815e-01,1.74153e-06,9.99999e-01
5.262515499e-01,2.26276e-06,9.99999e-01,9.99999e-01,9.99884e-01,2.26302e-06,9.99999e-01
5.288828077e-01,2.92517e-06,9.99999e-01,9.99999e-01,9.99893e-01,2.92548e-06,9.99999e-01
5.315272217e-01,3.76238e-06,9.99999e-01,9.99999e-01,9.99906e-01,3.76273e-06,9.99999e-01
5.341848578e-01,4.81531e-06,9.99999e-01,9.99999e-01,9.99938e-01,4.81560e-06,9.99999e-01
5.368557821e-01,6.13180e-06,9.99999e-01,9.99999e-01,9.99784e-01,6.13312e-06,9.99999e-01
5.395400610e-01,7.76785e-06,9.99999e-01,9.99999e-01,9.99224e-01,7.77387e-06,9.99999e-01
5.422377613e-01,9.79771e-06,9.99999e-01,9.99999e-01,9.98996e-01,9.80754e-06,9.99999e-01
5.449489501e-01,1.23051e-05,9.99999e-01,9.99999e-01,9.99067e-01,1.23166e-05,9.99999e-01
5.476736949e-01,1.53853e-05,9.99999e-01,9.99999e-01,9.99173e-01,1.53980e-05,9.99999e-01
5.504120634e-01,1.91542e-05,9.99999e-01,9.99999e-01,9.99400e-01,1.91657e-05,9.99999e-01
5.531641237e-01,2.37451e-05,9.99999e-01,9.99999e-01,9.99697e-01,2.37523e-05,9.99999e-01
5.559299443e-01,2.93078e-05,9.99999e-01,9.99999e-01,9.99853e-01,2.93121e-05,9.99999e-01
5.587095940e-01,3.60200e-05,9.99999e-01,9.99999e-01,9.99908e-01,3.60233e-05,9.99999e-01
5.615031420e-01,4.40868e-05,9.99999e-01,9.99999e-01,9.99897e-01,4.40912e-05,9.99999e-01
5.643106577e-01,5.37449e-05,9.99999e-01,9.99999e-01,9.99884e-01,5.37511e-05,9.99999e-01
5.671322110e-01,6.51800e-05,9.99999e-01,9.99999e-01,9.98600e-01,6.52713e-05,9.99999e-01
5.699678720e-01,7.88396e-05,9.99999e-01,9.99999e-01,9.98509e-01,7.89573e-05,9.99999e-01
5.728177114e-01,9.50068e-05,9.99999e-01,9.99999e-01,9.98448e-01,9.51544e-05,9.99999e-01
5.756818000e-01,1.14090e-04,9.99999e-01,9.99999e-01,9.98576e-01,1.14252e-04,9.99999e-01
5.785602090e-01,1.36519e-04,9.99999e-01,9.99999e-01,9.98758e-01,1.36688e-04,9.99999e-01
5.814530100e-01,1.62749e-04,9.99999e-01,9.99999e-01,9.98753e-01,1.62952e-04,9.99999e-01
5.843602750e-01,1.93302e-04,9.99999e-01,9.99999e-01,9.98514e-01,1.93589e-04,9.99999e-01
5.872820764e-01,2.26291e-04,9.99999e-01,9.99999e-01,9.87282e-01,2.29206e-04,9.99999e-01
5.902184868e-01,2.66300e-04,9.99999e-01,9.99999e-01,9.84581e-01,2.70470e-04,9.99999e-01
5.931695792e-01,3.14654e-04,9.99999e-01,9.99999e-01,9.89097e-01,3.18122e-04,9.99999e-01
5.961354271e-01,3.68513e-04,9.99999e-01,9.99999e-01,9.88044e-01,3.72972e-04,9.99999e-01
5.991161043e-01,4.32100e-04,9.99999e-01,9.99999e-01,9.91264e-01,4.35908e-04,9.99999e-01
6.021116848e-01,5.05374e-04,9.99999e-01,9.99999e-01,9.95034e-01,5.07896e-04,9.99999e-01
6.051222432e-01,5.88505e-04,9.99999e-01,9.99999e-01,9.97484e-01,5.89989e-04,9.99999e-01
6.081478544e-01,6.82584e-04,9.99999e-01,9.99999e-01,9.98914e-01,6.83325e-04,9.99999e-01
6.111885937e-01,7.88773e-04,9.99999e-01,9.99999e-01,9.99540e-01,7.89135e-04,9.99999e-01
6.142445367e-01,9.08555e-04,9.99999e-01,9.99999e-01,9.99794e-01,9.08742e-04,9.99999e-01
6.173157594e-01,1.04345e-03,9.99999e-01,9.99999e-01,9.99886e-01,1.04356e-03,9.99999e-01
6.204023382e-01,1.19500e-03,9.99999e-01,9.99999e-01,9.99903e-01,1.19512e-03,9.99999e-01
6.235043498e-01,1.36444e-03,9.99999e-01,9.99999e-01,9.99578e-01,1.36502e-03,9.99999e-01
6.266218716e-01,1.55152e-03,9.99999e-01,9.99999e-01,9.97768e-01,1.55499e-03,9.99999e-01
6.297549810e-01,1.76539e-03,9.99999e-01,9.99999e-01,9.99181e-01,1.76684e-03,9.99999e-01
6.329037559e-01,1.99926e-03,9.99999e-01,9.99999e-01,9.98381e-01,2.00250e-03,9.99999e-01
6.360682746e-01,2.26086e-03,9.99999e-01,9.99999e-01,9.98622e-01,2.26398e-03,9.99999e-01
6.392486160e-01,2.54885e-03,9.99999e-01,9.99999e-01,9.98214e-01,2.55341e-03,9.99999e-01
6.424448591e-01,2.86615e-03,9.99999e-01,9.99999e-01,9.97612e-01,2.87300e-03,9.99999e-01
6.456570834e-01,3.18948e-03,9.99999e-01,9.99999e-01,9.88962e-01,3.22508e-03,9.99999e-01
6.488853688e-01,3.58281e-03,9.99999e-01,9.99999e-01,9.91907e-01,3.61204e-03,9.99999e-01
6.521297956e-01,4.00311e-03,9.99999e-01,9.99999e-01,9.91754e-01,4.03639e-03,9.99999e-01
6.553904446e-01,4.46374e-03,9.99999e-01,9.99999e-01,9.91785e-01,4.50071e-03,9.99999e-01
6.586673968e-01,4.97241e-03,9.99999e-01,9.99999e-01,9.92961e-01,5.00765e-03,9.99999e-01
6.619607338e-01,5.53731e-03,9.99999e-01,9.99999e-01,9.95924e-01,5.55997e-03,9.99999e-01
6.652705375e-01,6.14592e-03,9.99999e-01,9.99999e-01,9.97639e-01,6.16045e-03,9.99999e-01
6.685968902e-01,6.80451e-03,9.99999e-01,9.99999e-01,9.98902e-01,6.81198e-03,9.99999e-01
6.719398746e-01,7.51365e-03,9.99999e-01,9.99999e-01,9.99491e-01,7.51747e-03,9.99999e-01
6.752995740e-01,8.27761e-03,9.99999e-01,9.99999e-01,9.99724e-01,8.27989e-03,9.99999e-01
6.786760719e-01,9.09863e-03,9.99999e-01,9.99999e-01,9.99601e-01,9.10224e-03,9.99999e-01
6.820694522e-01,9.98078e-03,9.99999e-01,9.99999e-01,9.99318e-01,9.98758e-03,9.99999e-01
6.854797995e-01,1.09294e-02,9.99999e-01,9.99999e-01,9.99121e-01,1.09390e-02,9.99999e-01
6.889071985e-01,1.19341e-02,9.99999e-01,9.99999e-01,9.97876e-01,1.19594e-02,9.99999e-01
6.923517345e-01,1.26071e-02,9.99999e-01,9.99999e-01,9.65900e-01,1.30521e-02,9.99999e-01
6.958134932e-01,1.39659e-02,9.99999e-01,9.99999e-01,9.82128e-01,1.42200e-02,9.99999e-01
6.992925606e-01,1.52032e-02,9.99999e-01,9.99999e-01,9.82991e-01,1.54663e-02,9.99999e-01
7.027890234e-01,1.64417e-02,9.99999e-01,9.99999e-01,9.79030e-01,1.67938e-02,9.99999e-01
7.063029686e-01,1.78840e-02,9.99999e-01,9.99999e-01,9.82330e-01,1.82057e-02,9.99999e-01
7.098344834e-01,1.93706e-02,9.99999e-01,9.99999e-01,9.83036e-01,1.97048e-02,9.99999e-01
7.133836558e-01,2.08151e-02,9.99999e-01,9.99999e-01,9.77508e-01,2.12941e-02,9.99998e-01
7.169505741e-01,1.91810e-02,9.99999e-01,9.99999e-01,8.34819e-01,2.29763e-02,9.99997e-01
7.205353270e-01,2.26504e-02,9.99999e-01,9.99999e-01,9.15013e-01,2.47542e-02,9.99997e-01
7.241380036e-01,2.37847e-02,9.99999e-01,9.99999e-01,8.93140e-01,2.66304e-02,9.99996e-01
7.277586936e-01,2.58348e-02,9.99999e-01,9.99999e-01,9.03078e-01,2.86076e-02,9.99997e-01
7.313974871e-01,2.75230e-02,9.99999e-01,9.99999e-01,8.96863e-01,3.06881e-02,9.99997e-01
7.350544745e-01,3.09729e-02,9.99999e-01,9.99999e-01,9.42165e-01,3.28742e-02,9.99998e-01
7.387297469e-01,3.36571e-02,9.99999e-01,9.99999e-01,9.57030e-01,3.51683e-02,9.99999e-01
7.424233956e-01,3.67730e-02,9.99999e-01,9.99999e-01,9.78723e-01,3.75723e-02,9.99999e-01
7.461355126e-01,3.95693e-02,9.99999e-01,9.99999e-01,9.87050e-01,4.00883e-02,9.99999e-01
7.498661902e-01,4.24597e-02,9.99999e-01,9.99999e-01,9.93949e-01,4.27181e-02,9.99999e-01
7.536155211e-01,4.53282e-02,9.99999e-01,9.99999e-01,9.97028e-01,4.54633e-02,9.99999e-01
7.573835987e-01,4.82514e-02,9.99999e-01,9.99999e-01,9.98469e-01,4.83254e-02,9.99999e-01
7.611705167e-01,5.12570e-02,9.99999e-01,9.99999e-01,9.99048e-01,5.13058e-02,9.99999e-01
7.649763693e-01,5.43732e-02,9.99999e-01,9.99999e-01,9.99403e-01,5.44056e-02,9.99999e-01
7.688012511e-01,5.76020e-02,9.99999e-01,9.99999e-01,9.99584e-01,5.76259e-02,9.99999e-01
7.726452574e-01,6.09467e-02,9.99999e-01,9.99999e-01,9.99658e-01,6.09675e-02,9.99999e-01
7.765084837e-01,6.43999e-02,9.99999e-01,9.99999e-01,9.99514e-01,6.44311e-02,9.99999e-01
7.803910261e-01,6.11544e-02,9.99999e-01,9.00817e-01,9.97904e-01,6.80173e-02,9.99999e-01
7.842929812e-01,4.19784e-02,9.99999e-01,5.88964e-01,9.92703e-01,7.17262e-02,9.99999e-01
7.882144461e-01,4.27313e-02,9.99999e-01,5.73150e-01,9.85015e-01,7.55581e-02,9.99999e-01
7.921555184e-01,5.57835e-02,9.99999e-01,7.06947e-01,9.91757e-01,7.95129e-02,9.99999e-01
7.961162960e-01,6.51153e-02,9.99999e-01,7.90078e-01,9.85485e-01,8.35905e-02,9.99999e-01
8.000968774e-01,7.59625e-02,9.99999e-01,8.79873e-01,9.83232e-01,8.77904e-02,9.99999e-01
8.040973618e-01,8.47541e-02,9.99999e-01,9.35696e-01,9.83233e-01,9.21120e-02,9.99999e-01
8.081178486e-01,9.01734e-02,9.99999e-01,9.69912e-01,9.62690e-01,9.65548e-02,9.99998e-01
8.121584379e-01,8.56088e-02,9.99999e-01,9.90610e-01,8.54362e-01,1.01118e-01,9.99997e-01
8.162192301e-01,8.76310e-02,9.99999e-01,9.97918e-01,8.29888e-01,1.05800e-01,9.99997e-01
8.203003262e-01,1.00975e-01,9.99999e-01,9.99968e-01,9.13000e-01,1.10599e-01,9.99996e-01
8.244018279e-01,1.01833e-01,9.99999e-01,9.99999e-01,8.81550e-01,1.15516e-01,9.99996e-01
8.285238370e-01,1.07791e-01,9.99999e-01,9.99999e-01,8.94182e-01,1.20547e-01,9.99997e-01
8.326664562e-01,1.12275e-01,9.99999e-01,9.99999e-01,8.93261e-01,1.25691e-01,9.99997e-01
8.368297885e-01,1.20749e-01,9.99999e-01,9.99999e-01,9.22120e-01,1.30947e-01,9.99998e-01
8.410139374e-01,1.29893e-01,9.99999e-01,9.99999e-01,9.52907e-01,1.36313e-01,9.99999e-01
8.452190071e-01,1.38468e-01,9.99999e-01,9.99999e-01,9.76602e-01,1.41785e-01,9.99999e-01
8.494451021e-01,1.45352e-01,9.99999e-01,9.99999e-01,9.86355e-01,1.47363e-01,9.99999e-01
8.536923276e-01,1.51805e-01,9.99999e-01,9.99999e-01,9.91909e-01,1.53044e-01,9.99999e-01
8.579607893e-01,1.58032e-01,9.99999e-01,9.99999e-01,9.95011e-01,1.58824e-01,9.99999e-01
8.622505932e-01,1.64180e-01,9.99999e-01,9.99999e-01,9.96827e-01,1.64703e-01,9.99999e-01
8.665618462e-01,1.46277e-01,9.99999e-01,8.58609e-01,9.98037e-01,1.70676e-01,9.99999e-01
8.708946554e-01,4.84743e-02,9.99999e-01,2.74824e-01,9.97752e-01,1.76742e-01,9.99999e-01
8.752491287e-01,6.15156e-02,9.99999e-01,3.37274e-01,9.96994e-01,1.82897e-01,9.99999e-01
8.796253743e-01,1.01939e-01,9.99999e-01,5.41008e-01,9.95841e-01,1.89138e-01,9.99999e-01
8.840235012e-01,1.40446e-01,9.99999e-01,7.21775e-01,9.95250e-01,1.95463e-01,9.99999e-01
8.884436187e-01,1.74386e-01,9.99999e-01,8.78395e-01,9.82864e-01,2.01868e-01,9.99998e-01
8.928858368e-01,1.65334e-01,9.99999e-01,9.48662e-01,8.35084e-01,2.08351e-01,9.99997e-01
8.973502660e-01,1.54635e-01,9.99999e-01,9.87276e-01,7.28151e-01,2.14907e-01,9.99995e-01
9.018370173e-01,1.88179e-01,9.99999e-01,9.98589e-01,8.50513e-01,2.21534e-01,9.99995e-01
9.063462024e-01,1.91682e-01,9.99999e-01,9.65262e-01,8.66708e-01,2.28228e-01,9.99994e-01
9.108779334e-01,1.73674e-01,9.99999e-01,9.20420e-01,8.00210e-01,2.34986e-01,9.99993e-01
9.154323231e-01,1.84166e-01,9.99999e-01,9.80702e-01,7.75501e-01,2.41806e-01,9.99993e-01
9.200094847e-01,1.65420e-01,9.99999e-01,7.87834e-01,8.20052e-01,2.48682e-01,9.99991e-01
9.246095321e-01,1.29224e-01,9.99999e-01,6.68531e-01,7.42018e-01,2.55612e-01,9.99985e-01
9.292325798e-01,3.27256e-02,9.99999e-01,7.34558e-01,1.57880e-01,2.62593e-01,9.99969e-01
9.338787427e-01,1.92779e-02,9.99999e-01,7.38807e-01,9.05397e-02,2.69621e-01,9.99960e-01
9.385481364e-01,8.58009e-02,9.99999e-01,7.98705e-01,3.75350e-01,2.76693e-01,9.99959e-01
9.432408771e-01,6.83727e-02,9.99999e-01,8.70576e-01,2.71402e-01,2.83805e-01,9.99954e-01
9.479570815e-01,4.45476e-02,9.99999e-01,9.31273e-01,1.62815e-01,2.90954e-01,9.99960e-01
9.526968669e-01,7.07837e-02,9.99999e-01,9.66291e-01,2.43986e-01,2.98136e-01,9.99970e-01
9.574603512e-01,7.83648e-02,9.99999e-01,9.85426e-01,2.59697e-01,3.05349e-01,9.99977e-01
9.622476530e-01,1.01681e-01,9.99999e-01,9.95430e-01,3.26505e-01,3.12589e-01,9.99984e-01
9.670588912e-01,1.66332e-01,9.99999e-01,9.98628e-01,5.20628e-01,3.19852e-01,9.99990e-01
9.718941857e-01,2.14730e-01,9.99999e-01,9.99902e-01,6.56447e-01,3.27135e-01,9.99993e-01
9.767536566e-01,2.35652e-01,9.99999e-01,9.99999e-01,7.04627e-01,3.34436e-01,9.99995e-01
9.816374249e-01,2.63233e-01,9.99999e-01,9.99999e-01,7.70252e-01,3.41750e-01,9.99996e-01
9.865456120e-01,2.96363e-01,9.99999e-01,9.99999e-01,8.48996e-01,3.49075e-01,9.99998e-01
9.914783401e-01,3.22022e-01,9.99999e-01,9.99999e-01,9.03519e-01,3.56408e-01,9.99999e-01
9.964357318e-01,3.44188e-01,9.99999e-01,9.99999e-01,9.46232e-01,3.63745e-01,9.99999e-01
1.001417910e+00,3.58987e-01,9.99999e-01,9.99999e-01,9.67399e-01,3.71085e-01,9.99999e-01
1.006425000e+00,3.71339e-01,9.99999e-01,9.99999e-01,9.81280e-01,3.78422e-01,9.99999e-01
1.011457125e+00,3.81259e-01,9.99999e-01,9.99999e-01,9.88341e-01,3.85756e-01,9.99999e-01
1.016514411e+00,3.89966e-01,9.99999e-01,9.99999e-01,9.92070e-01,3.93083e-01,9.99999e-01
1.021596983e+00,3.97793e-01,9.99999e-01,9.99809e-01,9.93676e-01,4.00400e-01,9.99999e-01
1.026704968e+00,4.00056e-01,9.99999e-01,9.86081e-01,9.95065e-01,4.07705e-01,9.99999e-01
1.031838492e+00,3.69537e-01,9.99999e-01,8.93476e-01,9.96411e-01,4.14995e-01,9.99999e-01
1.036997685e+00,1.73898e-02,9.99999e-01,4.12481e-02,9.97867e-01,4.22267e-01,9.99999e-01
1.042182673e+00,6.47177e-04,9.99999e-01,1.50960e-03,9.97457e-01,4.29519e-01,9.99999e-01
1.047393587e+00,1.84441e-03,9.99999e-01,4.23477e-03,9.96629e-01,4.36749e-01,9.99999e-01
1.052630555e+00,5.23621e-08,9.99999e-01,1.18285e-07,9.95377e-01,4.43954e-01,9.99999e-01
1.057893707e+00,1.96878e-07,9.99999e-01,4.38084e-07,9.92295e-01,4.51133e-01,9.99999e-01
1.063183176e+00,9.72496e-06,9.99999e-01,2.13710e-05,9.87355e-01,4.58282e-01,9.99999e-01
1.068499092e+00,1.27699e-04,9.99999e-01,2.78043e-04,9.78919e-01,4.65400e-01,9.99999e-01
1.073841587e+00,2.29366e-03,9.99999e-01,4.93879e-03,9.75404e-01,4.72484e-01,9.99999e-01
1.079210795e+00,1.69076e-02,9.99999e-01,3.61246e-02,9.68561e-01,4.79534e-01,9.99998e-01
1.084606849e+00,6.97998e-02,9.99999e-01,1.49548e-01,9.52844e-01,4.86546e-01,9.99998e-01
1.090029883e+00,1.70905e-01,9.99999e-01,3.68732e-01,9.33124e-01,4.93519e-01,9.99997e-01
1.095480033e+00,2.54697e-01,9.99999e-01,6.10031e-01,8.28284e-01,5.00451e-01,9.99995e-01
1.100957433e+00,2.51037e-01,9.99999e-01,7.86791e-01,6.23329e-01,5.07341e-01,9.99991e-01
1.106462220e+00,1.48994e-01,9.99999e-01,9.05389e-01,3.16586e-01,5.14187e-01,9.99981e-01
1.111994531e+00,4.81118e-02,9.99999e-01,9.63770e-01,9.51219e-02,5.20987e-01,9.99963e-01
1.117554504e+00,1.34771e-02,9.99999e-01,9.91032e-01,2.56663e-02,5.27741e-01,9.99948e-01
1.123142276e+00,4.40485e-02,9.99999e-01,9.99408e-01,8.24291e-02,5.34446e-01,9.99939e-01
1.128757988e+00,9.36458e-02,9.99999e-01,9.99999e-01,1.73077e-01,5.41101e-01,9.99934e-01
1.134401778e+00,4.20307e-02,9.99999e-01,9.99999e-01,7.67452e-02,5.47705e-01,9.99926e-01
1.140073787e+00,1.84581e-01,9.99999e-01,9.99999e-01,3.33044e-01,5.54256e-01,9.99940e-01
1.145774156e+00,6.69105e-02,9.99999e-01,9.99999e-01,1.19328e-01,5.60755e-01,9.99949e-01
1.151503026e+00,5.40051e-02,9.99999e-01,9.99999e-01,9.52176e-02,5.67199e-01,9.99956e-01
1.157260541e+00,6.88349e-02,9.99999e-01,9.99999e-01,1.20011e-01,5.73588e-01,9.99966e-01
1.163046844e+00,1.19013e-01,9.99999e-01,9.99999e-01,2.05227e-01,5.79920e-01,9.99978e-01
1.168862078e+00,1.87996e-01,9.99999e-01,9.99999e-01,3.20708e-01,5.86195e-01,9.99989e-01
1.174706389e+00,2.92824e-01,9.99999e-01,9.99999e-01,4.94293e-01,5.92412e-01,9.99994e-01
1.180579921e+00,3.88563e-01,9.99999e-01,9.99999e-01,6.49153e-01,5.98570e-01,9.99996e-01
1.186482820e+00,4.72681e-01,9.99999e-01,9.99974e-01,7.81736e-01,6.04669e-01,9.99996e-01
1.192415234e+00,5.04954e-01,9.99999e-01,9.53215e-01,8.65739e-01,6.10707e-01,9.99997e-01
1.198377311e+00,2.81827e-01,9.99999e-01,5.05541e-01,8.85655e-01,6.16685e-01,9.99997e-01
1.204369197e+00,4.86307e-36,9.99999e-01,8.34802e-36,8.91823e-01,6.22602e-01,9.99997e-01
1.210391043e+00,2.48769e-147,9.99999e-01,4.20797e-147,8.96071e-01,6.28456e-01,9.99998e-01
1.216442998e+00,1.98922e-127,9.99999e-01,3.32342e-127,9.10871e-01,6.34249e-01,9.99998e-01
1.222525213e+00,1.68632e-125,9.99999e-01,2.73574e-125,9.29768e-01,6.39979e-01,9.99998e-01
1.228637839e+00,1.02599e-96,9.99999e-01,1.64406e-96,9.50671e-01,6.45646e-01,9.99999e-01
