#,Wave/freq,Total,O2,CO2,H2O,Rayleigh,CIA
4.000000000e-01,1.74026e-16,9.99999e-01,9.99999e-01,9.99928e-01,1.74038e-16,9.99999e-01
4.020000000e-01,3.56644e-16,9.99999e-01,9.99999e-01,9.99955e-01,3.56660e-16,9.99999e-01
4.040100000e-01,7.20074e-16,9.99999e-01,9.99999e-01,9.99980e-01,7.20087e-16,9.99999e-01
4.060300500e-01,1.43380e-15,9.99999e-01,9.99999e-01,9.99995e-01,1.43380e-15,9.99999e-01
4.080602003e-01,2.81634e-15,9.99999e-01,9.99999e-01,9.99998e-01,2.81634e-15,9.99999e-01
4.101005013e-01,5.45871e-15,9.99999e-01,9.99999e-01,9.99999e-01,5.45871e-15,9.99999e-01
4.121510038e-01,1.04428e-14,9.99999e-01,9.99999e-01,9.99996e-01,1.04428e-14,9.99999e-01
4.142117588e-01,1.97230e-14,9.99999e-01,9.99999e-01,9.99980e-01,1.97234e-14,9.99999e-01
4.162828176e-01,3.67833e-14,9.99999e-01,9.99999e-01,9.99911e-01,3.67866e-14,9.99999e-01
4.183642317e-01,6.77684e-14,9.99999e-01,9.99999e-01,9.99947e-01,6.77720e-14,9.99999e-01
4.204560528e-01,1.23355e-13,9.99999e-01,9.99999e-01,9.99967e-01,1.23359e-13,9.99999e-01
4.225583331e-01,2.21894e-13,9.99999e-01,9.99999e-01,9.99987e-01,2.21897e-13,9.99999e-01
4.246711247e-01,3.94540e-13,9.99999e-01,9.99999e-01,9.99990e-01,3.94544e-13,9.99999e-01
4.267944804e-01,6.93581e-13,9.99999e-01,9.99999e-01,9.99985e-01,6.93591e-13,9.99999e-01
4.289284528e-01,1.20578e-12,9.99999e-01,9.99999e-01,9.99988e-01,1.20579e-12,9.99999e-01
4.310730950e-01,2.07345e-12,9.99999e-01,9.99999e-01,9.99994e-01,2.07346e-12,9.99999e-01
4.332284605e-01,3.52752e-12,9.99999e-01,9.99999e-01,9.99998e-01,3.52753e-12,9.99999e-01
4.353946028e-01,5.93863e-12,9.99999e-01,9.99999e-01,9.99998e-01,5.93863e-12,9.99999e-01
4.375715758e-01,9.89532e-12,9.99999e-01,9.99999e-01,9.99990e-01,9.89541e-12,9.99999e-01
4.397594337e-01,1.63218e-11,9.99999e-01,9.99999e-01,9.99922e-01,1.63230e-11,9.99999e-01
4.419582309e-01,2.66505e-11,9.99999e-01,9.99999e-01,9.99609e-01,2.66609e-11,9.99999e-01
4.441680220e-01,4.31129e-11,9.99999e-01,9.99999e-01,9.99692e-01,4.31261e-11,9.99999e-01
4.463888621e-01,6.90783e-11,9.99999e-01,9.99999e-01,9.99680e-01,6.91003e-11,9.99999e-01
4.486208064e-01,1.09670e-10,9.99999e-01,9.99999e-01,9.99801e-01,1.09692e-10,9.99999e-01
4.508639105e-01,1.72531e-10,9.99999e-01,9.99999e-01,9.99906e-01,1.72547e-10,9.99999e-01
4.531182300e-01,2.68990e-10,9.99999e-01,9.99999e-01,9.99962e-01,2.69000e-10,9.99999e-01
4.553838212e-01,4.15697e-10,9.99999e-01,9.99999e-01,9.99974e-01,4.15708e-10,9.99999e-01
4.576607403e-01,6.36920e-10,9.99999e-01,9.99999e-01,9.99988e-01,6.36928e-10,9.99999e-01
4.599490440e-01,9.67673e-10,9.99999e-01,9.99999e-01,9.99991e-01,9.67681e-10,9.99999e-01
4.622487892e-01,1.45809e-09,9.99999e-01,9.99999e-01,9.99998e-01,1.45810e-09,9.99999e-01
4.645600332e-01,2.17932e-09,9.99999e-01,9.99999e-01,9.99993e-01,2.17933e-09,9.99999e-01
4.668828333e-01,3.23126e-09,9.99999e-01,9.99999e-01,9.99906e-01,3.23156e-09,9.99999e-01
4.692172475e-01,4.75375e-09,9.99999e-01,9.99999e-01,9.99799e-01,4.75470e-09,9.99999e-01
4.715633337e-01,6.94167e-09,9.99999e-01,9.99999e-01,9.99869e-01,6.94257e-09,9.99999e-01
4.739211504e-01,1.00604e-08,9.99999e-01,9.99999e-01,9.99874e-01,1.00617e-08,9.99999e-01
4.762907561e-01,1.44747e-08,9.99999e-01,9.99999e-01,9.99934e-01,1.44756e-08,9.99999e-01
4.786722099e-01,2.06763e-08,9.99999e-01,9.99999e-01,9.99972e-01,2.06769e-08,9.99999e-01
4.810655710e-01,2.93271e-08,9.99999e-01,9.99999e-01,9.99991e-01,2.93273e-08,9.99999e-01
4.834708988e-01,4.13076e-08,9.99999e-01,9.99999e-01,9.99923e-01,4.13107e-08,9.99999e-01
4.858882533e-01,5.77900e-08,9.99999e-01,9.99999e-01,9.99857e-01,5.77981e-08,9.99999e-01
4.883176946e-01,8.03217e-08,9.99999e-01,9.99999e-01,9.99881e-01,8.03311e-08,9.99999e-01
4.907592831e-01,1.10913e-07,9.99999e-01,9.99999e-01,9.99892e-01,1.10925e-07,9.99999e-01
4.932130795e-01,1.52186e-07,9.99999e-01,9.99999e-01,9.99923e-01,1.52198e-07,9.99999e-01
4.956791449e-01,2.07518e-07,9.99999e-01,9.99999e-01,9.99959e-01,2.07526e-07,9.99999e-01
4.981575406e-01,2.81183e-07,9.99999e-01,9.99999e-01,9.99798e-01,2.81240e-07,9.99999e-01
5.006483283e-01,3.78659e-07,9.99999e-01,9.99999e-01,9.99480e-01,3.78856e-07,9.99999e-01
5.031515699e-01,5.06021e-07,9.99999e-01,9.99999e-01,9.97364e-01,5.07358e-07,9.99999e-01
5.056673278e-01,6.74598e-07,9.99999e-01,9.99999e-01,9.98606e-01,6.75539e-07,9.99999e-01
5.081956644e-01,8.92825e-07,9.99999e-01,9.99999e-01,9.98242e-01,8.94396e-07,9.99999e-01
5.107366428e-01,1.17621e-06,9.99999e-01,9.99999e-01,9.98812e-01,1.17761e-06,9.99999e-01
5.132903260e-01,1.54106e-06,9.99999e-01,9.99999e-01,9.99320e-01,1.54211e-06,9.99999e-01
5.158567776e-01,2.00812e-06,9.99999e-01,9.99999e-01,9.99712e-01,2.00869e-06,9.99999e-01
5.184360615e-01,2.60253e-06,9.99999e-01,9.99999e-01,9.99884e-01,2.60283e-06,9.99999e-01
5.210282418e-01,3.35533e-06,9.99999e-01,9.99999e-01,9.99956e-01,3.35548e-06,9.99999e-01
5.236333830e-01,4.30338e-06,9.99999e-01,9.99999e-01,9.99827e-01,4.30412e-06,9.99999e-01
5.262515499e-01,5.49328e-06,9.99999e-01,9.99999e-01,9.99891e-01,5.49387e-06,9.99999e-01
5.288828077e-01,6.97808e-06,9.99999e-01,9.99999e-01,9.99900e-01,6.97876e-06,9.99999e-01
5.315272217e-01,8.82245e-06,9.99999e-01,9.99999e-01,9.99912e-01,8.82321e-06,9.99999e-01
5.341848578e-01,1.11030e-05,9.99999e-01,9.99999e-01,9.99942e-01,1.11036e-05,9.99999e-01
5.368557821e-01,1.39072e-05,9.99999e-01,9.99999e-01,9.99799e-01,1.39100e-05,9.99999e-01
5.395400610e-01,1.73359e-05,9.99999e-01,9.99999e-01,9.99279e-01,1.73484e-05,9.99999e-01
5.422377613e-01,2.15223e-05,9.99999e-01,9.99999e-01,9.99064e-01,2.15425e-05,9.99999e-01
5.449489501e-01,2.66132e-05,9.99999e-01,9.99999e-01,9.99131e-01,2.66363e-05,9.99999e-01
5.476736949e-01,3.27716e-05,9.99999e-01,9.99999e-01,9.99229e-01,3.27969e-05,9.99999e-01
5.504120634e-01,4.01942e-05,9.99999e-01,9.99999e-01,9.99440e-01,4.02166e-05,9.99999e-01
5.531641237e-01,4.91029e-05,9.99999e-01,9.99999e-01,9.99718e-01,4.91168e-05,9.99999e-01
5.559299443e-01,5.97420e-05,9.99999e-01,9.99999e-01,9.99863e-01,5.97501e-05,9.99999e-01
5.587095940e-01,7.23985e-05,9.99999e-01,9.99999e-01,9.99914e-01,7.24046e-05,9.99999e-01
5.615031420e-01,8.73987e-05,9.99999e-01,9.99999e-01,9.99904e-01,8.74070e-05,9.99999e-01
5.643106577e-01,1.05115e-04,9.99999e-01,9.99999e-01,9.99892e-01,1.05126e-04,9.99999e-01
5.671322110e-01,1.25814e-04,9.99999e-01,9.99999e-01,9.98702e-01,1.25977e-04,9.99999e-01
5.699678720e-01,1.50216e-04,9.99999e-01,9.99999e-01,9.98608e-01,1.50425e-04,9.99999e-01
5.728177114e-01,1.78731e-04,9.99999e-01,9.99999e-01,9.98555e-01,1.78990e-04,9.99999e-01
5.756818000e-01,2.11967e-04,9.99999e-01,9.99999e-01,9.98673e-01,2.12248e-04,9.99999e-01
5.785602090e-01,2.50550e-04,9.99999e-01,9.99999e-01,9.98842e-01,2.50841e-04,9.99999e-01
5.814530100e-01,2.95131e-04,9.99999e-01,9.99999e-01,9.98838e-01,2.95474e-04,9.99999e-01
5.843602750e-01,3.46445e-04,9.99999e-01,9.99999e-01,9.98619e-01,3.46924e-04,9.99999e-01
5.872820764e-01,4.01239e-04,9.99999e-01,9.99999e-01,9.88164e-01,4.06045e-04,9.99999e-01
5.902184868e-01,4.66952e-04,9.99999e-01,9.99999e-01,9.85618e-01,4.73765e-04,9.99999e-01
5.931695792e-01,5.45498e-04,9.99999e-01,9.99999e-01,9.89839e-01,5.51098e-04,9.99999e-01
5.961354271e-01,6.32017e-04,9.99999e-01,9.99999e-01,9.88852e-01,6.39142e-04,9.99999e-01
5.991161043e-01,7.33065e-04,9.99999e-01,9.99999e-01,9.91853e-01,7.39086e-04,9.99999e-01
6.021116848e-01,8.48261e-04,9.99999e-01,9.99999e-01,9.95367e-01,8.52208e-04,9.99999e-01
6.051222432e-01,9.77586e-04,9.99999e-01,9.99999e-01,9.97653e-01,9.79885e-04,9.99999e-01
6.081478544e-01,1.12245e-03,9.99999e-01,9.99999e-01,9.98987e-01,1.12359e-03,9.99999e-01
6.111885937e-01,1.28434e-03,9.99999e-01,9.99999e-01,9.99570e-01,1.28489e-03,9.99999e-01
6.142445367e-01,1.46517e-03,9.99999e-01,9.99999e-01,9.99808e-01,1.46545e-03,9.99999e-01
6.173157594e-01,1.66688e-03,9.99999e-01,9.99999e-01,9.99894e-01,1.66706e-03,9.99999e-01
6.204023382e-01,1.89141e-03,9.99999e-01,9.99999e-01,9.99910e-01,1.89158e-03,9.99999e-01
6.235043498e-01,2.14015e-03,9.99999e-01,9.99999e-01,9.99608e-01,2.14098e-03,9.99999e-01
6.266218716e-01,2.41233e-03,9.99999e-01,9.99999e-01,9.97921e-01,2.41736e-03,9.99999e-01
6.297549810e-01,2.72079e-03,9.99999e-01,9.99999e-01,9.99237e-01,2.72286e-03,9.99999e-01
6.329037559e-01,3.05517e-03,9.99999e-01,9.99999e-01,9.98491e-01,3.05978e-03,9.99999e-01
6.360682746e-01,3.42608e-03,9.99999e-01,9.99999e-01,9.98717e-01,3.43048e-03,9.99999e-01
6.392486160e-01,3.83102e-03,9.99999e-01,9.99999e-01,9.98336e-01,3.83740e-03,9.99999e-01
6.424448591e-01,4.27360e-03,9.99999e-01,9.99999e-01,9.97780e-01,4.28310e-03,9.99999e-01
6.456570834e-01,4.72123e-03,9.99999e-01,9.99999e-01,9.89732e-01,4.77021e-03,9.99999e-01
6.488853688e-01,5.26140e-03,9.99999e-01,9.99999e-01,9.92451e-01,5.30142e-03,9.99999e-01
6.521297956e-01,5.83428e-03,9.99999e-01,9.99999e-01,9.92308e-01,5.87950e-03,9.99999e-01
6.553904446e-01,6.45751e-03,9.99999e-01,9.99999e-01,9.92346e-01,6.50731e-03,9.99999e-01
6.586673968e-01,7.14056e-03,9.99999e-01,9.99999e-01,9.93435e-01,7.18774e-03,9.99999e-01
6.619607338e-01,7.89362e-03,9.99999e-01,9.99999e-01,9.96198e-01,7.92374e-03,9.99999e-01
6.652705375e-01,8.69909e-03,9.99999e-01,9.99999e-01,9.97796e-01,8.71829e-03,9.99999e-01
6.685968902e-01,9.56463e-03,9.99999e-01,9.99999e-01,9.98975e-01,9.57443e-03,9.99999e-01
6.719398746e-01,1.04902e-02,9.99999e-01,9.99999e-01,9.99525e-01,1.04952e-02,9.99999e-01
6.752995740e-01,1.14807e-02,9.99999e-01,9.99999e-01,9.99742e-01,1.14837e-02,9.99999e-01
6.786760719e-01,1.25383e-02,9.99999e-01,9.99999e-01,9.99629e-01,1.25429e-02,9.99999e-01
6.820694522e-01,1.36674e-02,9.99999e-01,9.99999e-01,9.99365e-01,1.36761e-02,9.99999e-01
6.854797995e-01,1.48739e-02,9.99999e-01,9.99999e-01,9.99182e-01,1.48861e-02,9.99999e-01
6.889071985e-01,1.61442e-02,9.99999e-01,9.99999e-01,9.98030e-01,1.61760e-02,9.99999e-01
6.923517345e-01,1.69915e-02,9.99999e-01,9.99999e-01,9.68235e-01,1.75490e-02,9.99999e-01
6.958134932e-01,1.86899e-02,9.99999e-01,9.99999e-01,9.83274e-01,1.90078e-02,9.99999e-01
6.992925606e-01,2.02300e-02,9.99999e-01,9.99999e-01,9.84166e-01,2.05555e-02,9.99999e-01
7.027890234e-01,2.17606e-02,9.99999e-01,9.99999e-01,9.80436e-01,2.21948e-02,9.99999e-01
7.063029686e-01,2.35343e-02,9.99999e-01,9.99999e-01,9.83522e-01,2.39286e-02,9.99999e-01
7.098344834e-01,2.53520e-02,9.99999e-01,9.99999e-01,9.84181e-01,2.57595e-02,9.99999e-01
7.133836558e-01,2.71109e-02,9.99999e-01,9.99999e-01,9.79082e-01,2.76901e-02,9.99998e-01
7.169505741e-01,2.51197e-02,9.99999e-01,9.99999e-01,8.45128e-01,2.97230e-02,9.99997e-01
7.205353270e-01,2.93196e-02,9.99999e-01,9.99999e-01,9.20249e-01,3.18605e-02,9.99997e-01
7.241380036e-01,3.06956e-02,9.99999e-01,9.99999e-01,9.00033e-01,3.41050e-02,9.99997e-01
7.277586936e-01,3.31530e-02,9.99999e-01,9.99999e-01,9.09338e-01,3.64584e-02,9.99997e-01
7.313974871e-01,3.51623e-02,9.99999e-01,9.99999e-01,9.03383e-01,3.89230e-02,9.99998e-01
7.350544745e-01,3.92571e-02,9.99999e-01,9.99999e-01,9.45942e-01,4.15005e-02,9.99998e-01
7.387297469e-01,4.24187e-02,9.99999e-01,9.99999e-01,9.59858e-01,4.41926e-02,9.99999e-01
7.424233956e-01,4.60672e-02,9.99999e-01,9.99999e-01,9.80129e-01,4.70011e-02,9.99999e-01
7.461355126e-01,4.93238e-02,9.99999e-01,9.99999e-01,9.87914e-01,4.99272e-02,9.99999e-01
7.498661902e-01,5.26730e-02,9.99999e-01,9.99999e-01,9.94350e-01,5.29722e-02,9.99999e-01
7.536155211e-01,5.59816e-02,9.99999e-01,9.99999e-01,9.97227e-01,5.61372e-02,9.99999e-01
7.573835987e-01,5.93384e-02,9.99999e-01,9.99999e-01,9.98571e-01,5.94233e-02,9.99999e-01
7.611705167e-01,6.27752e-02,9.99999e-01,9.99999e-01,9.99112e-01,6.28310e-02,9.99999e-01
7.649763693e-01,6.63241e-02,9.99999e-01,9.99999e-01,9.99443e-01,6.63610e-02,9.99999e-01
7.688012511e-01,6.99866e-02,9.99999e-01,9.99999e-01,9.99612e-01,7.00137e-02,9.99999e-01
7.726452574e-01,7.37658e-02,9.99999e-01,9.99999e-01,9.99681e-01,7.37893e-02,9.99999e-01
7.765084837e-01,7.76529e-02,9.99999e-01,9.99999e-01,9.99548e-01,7.76879e-02,9.99999e-01
7.803910261e-01,7.39511e-02,9.99999e-01,9.06666e-01,9.98051e-01,8.17093e-02,9.99999e-01
7.842929812e-01,5.19424e-02,9.99999e-01,6.08600e-01,9.93213e-01,8.58533e-02,9.99999e-01
7.882144461e-01,5.27982e-02,9.99999e-01,5.93257e-01,9.86030e-01,9.01193e-02,9.99999e-01
7.921555184e-01,6.78875e-02,9.99999e-01,7.23500e-01,9.92307e-01,9.45068e-02,9.99999e-01
7.961162960e-01,7.84190e-02,9.99999e-01,8.02505e-01,9.86488e-01,9.90148e-02,9.99999e-01
8.000968774e-01,9.05500e-02,9.99999e-01,8.87415e-01,9.84368e-01,1.03642e-01,9.99999e-01
8.040973618e-01,1.00283e-01,9.99999e-01,9.39803e-01,9.84374e-01,1.08388e-01,9.99999e-01
8.081178486e-01,1.06263e-01,9.99999e-01,9.71901e-01,9.65250e-01,1.13252e-01,9.99998e-01
8.121584379e-01,1.01242e-01,9.99999e-01,9.91217e-01,8.63645e-01,1.18230e-01,9.99997e-01
8.162192301e-01,1.03424e-01,9.99999e-01,9.98053e-01,8.40174e-01,1.23323e-01,9.99997e-01
8.203003262e-01,1.18076e-01,9.99999e-01,9.99969e-01,9.18695e-01,1.28528e-01,9.99996e-01
8.244018279e-01,1.18912e-01,9.99999e-01,9.99999e-01,8.88442e-01,1.33844e-01,9.99996e-01
8.285238370e-01,1.25483e-01,9.99999e-01,9.99999e-01,9.01020e-01,1.39268e-01,9.99997e-01
8.326664562e-01,1.30323e-01,9.99999e-01,9.99999e-01,9.00036e-01,1.44798e-01,9.99998e-01
8.368297885e-01,1.39472e-01,9.99999e-01,9.99999e-01,9.27144e-01,1.50431e-01,9.99998e-01
8.410139374e-01,1.49294e-01,9.99999e-01,9.99999e-01,9.55993e-01,1.56167e-01,9.99999e-01
8.452190071e-01,1.58461e-01,9.99999e-01,9.99999e-01,9.78149e-01,1.62001e-01,9.99999e-01
8.494451021e-01,1.65794e-01,9.99999e-01,9.99999e-01,9.87274e-01,1.67931e-01,9.99999e-01
8.536923276e-01,1.72642e-01,9.99999e-01,9.99999e-01,9.92449e-01,1.73955e-01,9.99999e-01
8.579607893e-01,1.79232e-01,9.99999e-01,9.99999e-01,9.95348e-01,1.80069e-01,9.99999e-01
8.622505932e-01,1.85720e-01,9.99999e-01,9.99999e-01,9.97040e-01,1.86272e-01,9.99999e-01
8.665618462e-01,1.66037e-01,9.99999e-01,8.63740e-01,9.98170e-01,1.92559e-01,9.99999e-01
8.708946554e-01,5.90182e-02,9.99999e-01,2.97247e-01,9.97906e-01,1.98927e-01,9.99999e-01
8.752491287e-01,7.39935e-02,9.99999e-01,3.61220e-01,9.97199e-01,2.05375e-01,9.99999e-01
8.796253743e-01,1.18800e-01,9.99999e-01,5.62638e-01,9.96128e-01,2.11898e-01,9.99999e-01
8.840235012e-01,1.60435e-01,9.99999e-01,7.37382e-01,9.95577e-01,2.18493e-01,9.99999e-01
8.884436187e-01,1.96390e-01,9.99999e-01,8.85878e-01,9.84093e-01,2.25157e-01,9.99998e-01
8.928858368e-01,1.86909e-01,9.99999e-01,9.51984e-01,8.45466e-01,2.31886e-01,9.99997e-01
8.973502660e-01,1.75493e-01,9.99999e-01,9.88095e-01,7.43536e-01,2.38678e-01,9.99995e-01
9.018370173e-01,2.10754e-01,9.99999e-01,9.98680e-01,8.59395e-01,2.45528e-01,9.99995e-01
9.063462024e-01,2.14521e-01,9.99999e-01,9.67669e-01,8.75225e-01,2.52435e-01,9.99994e-01
9.108779334e-01,1.95591e-01,9.99999e-01,9.25527e-01,8.12244e-01,2.59393e-01,9.99994e-01
9.154323231e-01,2.06598e-01,9.99999e-01,9.81935e-01,7.88790e-01,2.66400e-01,9.99993e-01
9.200094847e-01,1.86232e-01,9.99999e-01,7.98655e-01,8.30845e-01,2.73452e-01,9.99991e-01
9.246095321e-01,1.48309e-01,9.99999e-01,6.86637e-01,7.57033e-01,2.80546e-01,9.99986e-01
9.292325798e-01,4.04249e-02,9.99999e-01,7.49863e-01,1.75631e-01,2.87678e-01,9.99971e-01
9.338787427e-01,2.45757e-02,9.99999e-01,7.53701e-01,1.04084e-01,2.94846e-01,9.99963e-01
9.385481364e-01,1.00337e-01,9.99999e-01,8.10764e-01,3.97489e-01,3.02045e-01,9.99962e-01
9.432408771e-01,8.10058e-02,9.99999e-01,8.78636e-01,2.92984e-01,3.09273e-01,9.99957e-01
9.479570815e-01,5.42957e-02,9.99999e-01,9.35741e-01,1.81742e-01,3.16525e-01,9.99963e-01
9.526968669e-01,8.39313e-02,9.99999e-01,9.68502e-01,2.65953e-01,3.23800e-01,9.99972e-01
9.574603512e-01,9.24429e-02,9.99999e-01,9.86390e-01,2.82345e-01,3.31093e-01,9.99979e-01
9.622476530e-01,1.18076e-01,9.99999e-01,9.95733e-01,3.50159e-01,3.38401e-01,9.99985e-01
9.670588912e-01,1.87432e-01,9.99999e-01,9.98719e-01,5.42736e-01,3.45722e-01,9.99990e-01
9.718941857e-01,2.38329e-01,9.99999e-01,9.99908e-01,6.75104e-01,3.53052e-01,9.99994e-01
9.767536566e-01,2.59948e-01,9.99999e-01,9.99999e-01,7.21304e-01,3.60387e-01,9.99995e-01
9.816374249e-01,2.88220e-01,9.99999e-01,9.99999e-01,7.83792e-01,3.67726e-01,9.99997e-01
9.865456120e-01,3.21938e-01,9.99999e-01,9.99999e-01,8.58354e-01,3.75065e-01,9.99998e-01
9.914783401e-01,3.47875e-01,9.99999e-01,9.99999e-01,9.09713e-01,3.82401e-01,9.99999e-01
9.964357318e-01,3.70150e-01,9.99999e-01,9.99999e-01,9.49757e-01,3.89731e-01,9.99999e-01
1.001417910e+00,3.84967e-01,9.99999e-01,9.99999e-01,9.69559e-01,3.97053e-01,9.99999e-01
1.006425000e+00,3.97303e-01,9.99999e-01,9.99999e-01,9.82538e-01,4.04364e-01,9.99999e-01
1.011457125e+00,4.07182e-01,9.99999e-01,9.99999e-01,9.89120e-01,4.11661e-01,9.99999e-01
1.016514411e+00,4.15843e-01,9.99999e-01,9.99999e-01,9.92603e-01,4.18941e-01,9.99999e-01
1.021596983e+00,4.23618e-01,9.99999e-01,9.99827e-01,9.94104e-01,4.26203e-01,9.99999e-01
1.026704968e+00,4.25888e-01,9.99999e-01,9.87088e-01,9.95399e-01,4.33444e-01,9.99999e-01
1.031838492e+00,3.95087e-01,9.99999e-01,8.99420e-01,9.96652e-01,4.40661e-01,9.99999e-01
1.036997685e+00,2.01800e-02,9.99999e-01,4.51271e-02,9.98011e-01,4.47851e-01,9.99999e-01
1.042182673e+00,9.52134e-04,9.99999e-01,2.09627e-03,9.97632e-01,4.55014e-01,9.99999e-01
1.047393587e+00,2.64861e-03,9.99999e-01,5.74600e-03,9.96859e-01,4.62147e-01,9.99999e-01
1.052630555e+00,1.34066e-07,9.99999e-01,2.86476e-07,9.95694e-01,4.69247e-01,9.99999e-01
1.057893707e+00,5.02246e-07,9.99999e-01,1.05827e-06,9.92825e-01,4.76312e-01,9.99999e-01
1.063183176e+00,1.89792e-05,9.99999e-01,3.95297e-05,9.88218e-01,4.83342e-01,9.99999e-01
1.068499092e+00,2.23828e-04,9.99999e-01,4.62299e-04,9.80345e-01,4.90333e-01,9.99999e-01
1.073841587e+00,3.39827e-03,9.99999e-01,6.94583e-03,9.77074e-01,4.97284e-01,9.99999e-01
1.079210795e+00,2.19237e-02,9.99999e-01,4.44900e-02,9.70666e-01,5.04194e-01,9.99998e-01
1.084606849e+00,8.31673e-02,9.99999e-01,1.69213e-01,9.55993e-01,5.11060e-01,9.99998e-01
1.090029883e+00,1.92294e-01,9.99999e-01,3.93791e-01,9.37611e-01,5.17881e-01,9.99997e-01
1.095480033e+00,2.79213e-01,9.99999e-01,6.30266e-01,8.39075e-01,5.24656e-01,9.99995e-01
1.100957433e+00,2.75537e-01,9.99999e-01,7.99460e-01,6.43591e-01,5.31383e-01,9.99991e-01
1.106462220e+00,1.68856e-01,9.99999e-01,9.11393e-01,3.41044e-01,5.38061e-01,9.99982e-01
1.111994531e+00,5.83369e-02,9.99999e-01,9.66143e-01,1.10138e-01,5.44689e-01,9.99966e-01
1.117554504e+00,1.75120e-02,9.99999e-01,9.91617e-01,3.19214e-02,5.51265e-01,9.99952e-01
1.123142276e+00,5.27576e-02,9.99999e-01,9.99446e-01,9.45950e-02,5.57788e-01,9.99943e-01
1.128757988e+00,1.08834e-01,9.99999e-01,9.99999e-01,1.92891e-01,5.64257e-01,9.99938e-01
1.134401778e+00,4.84843e-02,9.99999e-01,9.99999e-01,8.49659e-02,5.70671e-01,9.99931e-01
1.140073787e+00,2.06315e-01,9.99999e-01,9.99999e-01,3.57566e-01,5.77029e-01,9.99944e-01
1.145774156e+00,7.88494e-02,9.99999e-01,9.99999e-01,1.35177e-01,5.83331e-01,9.99952e-01
1.151503026e+00,6.46127e-02,9.99999e-01,9.99999e-01,1.09596e-01,5.89574e-01,9.99959e-01
1.157260541e+00,8.18366e-02,9.99999e-01,9.99999e-01,1.37369e-01,5.95759e-01,9.99969e-01
1.163046844e+00,1.36585e-01,9.99999e-01,9.99999e-01,2.26932e-01,6.01885e-01,9.99980e-01
1.168862078e+00,2.10013e-01,9.99999e-01,9.99999e-01,3.45446e-01,6.07952e-01,9.99989e-01
1.174706389e+00,3.17892e-01,9.99999e-01,9.99999e-01,5.17778e-01,6.13957e-01,9.99994e-01
1.180579921e+00,4.14103e-01,9.99999e-01,9.99999e-01,6.68015e-01,6.19902e-01,9.99996e-01
1.186482820e+00,4.97358e-01,9.99999e-01,9.99977e-01,7.94790e-01,6.25785e-01,9.99996e-01
1.192415234e+00,5.29002e-01,9.99999e-01,9.56424e-01,8.74235e-01,6.31606e-01,9.99997e-01
1.198377311e+00,2.96319e-01,9.99999e-01,5.10804e-01,8.93013e-01,6.37364e-01,9.99997e-01
1.204369197e+00,9.72080e-34,9.99999e-01,1.60830e-33,8.98758e-01,6.43060e-01,9.99997e-01
1.210391043e+00,1.91822e-137,9.99999e-01,3.13042e-137,9.02762e-01,6.48693e-01,9.99998e-01
1.216442998e+00,6.73177e-119,9.99999e-01,1.08599e-118,9.16611e-01,6.54262e-01,9.99998e-01
1.222525213e+00,4.22452e-117,9.99999e-01,6.63096e-117,9.34360e-01,6.59768e-01,9.99999e-01
1.228637839e+00,2.83250e-90,9.99999e-01,4.39522e-90,9.53940e-01,6.65210e-01,9.99999e-01
