#,Wave/freq,Total,O2,CO2,H2O,Rayleigh,CIA
4.000000000e-01,4.54373e-05,9.99999e-01,9.99999e-01,9.99979e-01,4.54382e-05,9.99999e-01
4.020000000e-01,5.53708e-05,9.99999e-01,9.99999e-01,9.99987e-01,5.53715e-05,9.99999e-01
4.040100000e-01,6.71993e-05,9.99999e-01,9.99999e-01,9.99994e-01,6.71996e-05,9.99999e-01
4.060300500e-01,8.12430e-05,9.99999e-01,9.99999e-01,9.99998e-01,8.12431e-05,9.99999e-01
4.080602003e-01,9.78540e-05,9.99999e-01,9.99999e-01,9.99999e-01,9.78540e-05,9.99999e-01
4.101005013e-01,1.17429e-04,9.99999e-01,9.99999e-01,9.99999e-01,1.17429e-04,9.99999e-01
4.121510038e-01,1.40413e-04,9.99999e-01,9.99999e-01,9.99998e-01,1.40413e-04,9.99999e-01
4.142117588e-01,1.67302e-04,9.99999e-01,9.99999e-01,9.99994e-01,1.67303e-04,9.99999e-01
4.162828176e-01,1.98650e-04,9.99999e-01,9.99999e-01,9.99975e-01,1.98655e-04,9.99999e-01
4.183642317e-01,2.35080e-04,9.99999e-01,9.99999e-01,9.99985e-01,2.35083e-04,9.99999e-01
4.204560528e-01,2.77265e-04,9.99999e-01,9.99999e-01,9.99990e-01,2.77267e-04,9.99999e-01
4.225583331e-01,3.25956e-04,9.99999e-01,9.99999e-01,9.99996e-01,3.25957e-04,9.99999e-01
4.246711247e-01,3.81973e-04,9.99999e-01,9.99999e-01,9.99996e-01,3.81974e-04,9.99999e-01
4.267944804e-01,4.46216e-04,9.99999e-01,9.99999e-01,9.99995e-01,4.46218e-04,9.99999e-01
4.289284528e-01,5.19668e-04,9.99999e-01,9.99999e-01,9.99996e-01,5.19669e-04,9.99999e-01
4.310730950e-01,6.03391e-04,9.99999e-01,9.99999e-01,9.99998e-01,6.03392e-04,9.99999e-01
4.332284605e-01,6.98539e-04,9.99999e-01,9.99999e-01,9.99999e-01,6.98539e-04,9.99999e-01
4.353946028e-01,8.06354e-04,9.99999e-01,9.99999e-01,9.99999e-01,8.06354e-04,9.99999e-01
4.375715758e-01,9.28172e-04,9.99999e-01,9.99999e-01,9.99997e-01,9.28174e-04,9.99999e-01
4.397594337e-01,1.06541e-03,9.99999e-01,9.99999e-01,9.99978e-01,1.06543e-03,9.99999e-01
4.419582309e-01,1.21953e-03,9.99999e-01,9.99999e-01,9.99891e-01,1.21966e-03,9.99999e-01
4.441680220e-01,1.39238e-03,9.99999e-01,9.99999e-01,9.99915e-01,1.39250e-03,9.99999e-01
4.463888621e-01,1.58552e-03,9.99999e-01,9.99999e-01,9.99911e-01,1.58566e-03,9.99999e-01
4.486208064e-01,1.80090e-03,9.99999e-01,9.99999e-01,9.99944e-01,1.80100e-03,9.99999e-01
4.508639105e-01,2.04039e-03,9.99999e-01,9.99999e-01,9.99973e-01,2.04044e-03,9.99999e-01
4.531182300e-01,2.30600e-03,9.99999e-01,9.99999e-01,9.99989e-01,2.30602e-03,9.99999e-01
4.553838212e-01,2.59987e-03,9.99999e-01,9.99999e-01,9.99992e-01,2.59988e-03,9.99999e-01
4.576607403e-01,2.92424e-03,9.99999e-01,9.99999e-01,9.99996e-01,2.92425e-03,9.99999e-01
4.599490440e-01,3.28145e-03,9.99999e-01,9.99999e-01,9.99997e-01,3.28146e-03,9.99999e-01
4.622487892e-01,3.67393e-03,9.99999e-01,9.99999e-01,9.99999e-01,3.67393e-03,9.99999e-01
4.645600332e-01,4.10417e-03,9.99999e-01,9.99999e-01,9.99997e-01,4.10418e-03,9.99999e-01
4.668828333e-01,4.57467e-03,9.99999e-01,9.99999e-01,9.99973e-01,4.57478e-03,9.99999e-01
4.692172475e-01,5.08815e-03,9.99999e-01,9.99999e-01,9.99944e-01,5.08843e-03,9.99999e-01
4.715633337e-01,5.64767e-03,9.99999e-01,9.99999e-01,9.99963e-01,5.64787e-03,9.99999e-01
4.739211504e-01,6.25570e-03,9.99999e-01,9.99999e-01,9.99965e-01,6.25591e-03,9.99999e-01
4.762907561e-01,6.91531e-03,9.99999e-01,9.99999e-01,9.99981e-01,6.91543e-03,9.99999e-01
4.786722099e-01,7.62931e-03,9.99999e-01,9.99999e-01,9.99992e-01,7.62936e-03,9.99999e-01
4.810655710e-01,8.40066e-03,9.99999e-01,9.99999e-01,9.99997e-01,8.40068e-03,9.99999e-01
4.834708988e-01,9.23220e-03,9.99999e-01,9.99999e-01,9.99978e-01,9.23239e-03,9.99999e-01
4.858882533e-01,1.01272e-02,9.99999e-01,9.99999e-01,9.99960e-01,1.01275e-02,9.99999e-01
4.883176946e-01,1.10888e-02,9.99999e-01,9.99999e-01,9.99966e-01,1.10892e-02,9.99999e-01
4.907592831e-01,1.21201e-02,9.99999e-01,9.99999e-01,9.99970e-01,1.21204e-02,9.99999e-01
4.932130795e-01,1.32241e-02,9.99999e-01,9.99999e-01,9.99978e-01,1.32243e-02,9.99999e-01
4.956791449e-01,1.44038e-02,9.99999e-01,9.99999e-01,9.99988e-01,1.44039e-02,9.99999e-01
4.981575406e-01,1.56614e-02,9.99999e-01,9.99999e-01,9.99944e-01,1.56623e-02,9.99999e-01
5.006483283e-01,1.70000e-02,9.99999e-01,9.99999e-01,9.99856e-01,1.70025e-02,9.99999e-01
5.031515699e-01,1.84140e-02,9.99999e-01,9.99999e-01,9.99272e-01,1.84274e-02,9.99999e-01
5.056673278e-01,1.99323e-02,9.99999e-01,9.99999e-01,9.99615e-01,1.99400e-02,9.99999e-01
5.081956644e-01,2.15327e-02,9.99999e-01,9.99999e-01,9.99514e-01,2.15432e-02,9.99999e-01
5.107366428e-01,2.32321e-02,9.99999e-01,9.99999e-01,9.99672e-01,2.32397e-02,9.99999e-01
5.132903260e-01,2.50277e-02,9.99999e-01,9.99999e-01,9.99812e-01,2.50324e-02,9.99999e-01
5.158567776e-01,2.69216e-02,9.99999e-01,9.99999e-01,9.99920e-01,2.69237e-02,9.99999e-01
5.184360615e-01,2.89155e-02,9.99999e-01,9.99999e-01,9.99967e-01,2.89164e-02,9.99999e-01
5.210282418e-01,3.10124e-02,9.99999e-01,9.99999e-01,9.99987e-01,3.10128e-02,9.99999e-01
5.236333830e-01,3.32136e-02,9.99999e-01,9.99999e-01,9.99952e-01,3.32151e-02,9.99999e-01
5.262515499e-01,3.55247e-02,9.99999e-01,9.99999e-01,9.99969e-01,3.55258e-02,9.99999e-01
5.288828077e-01,3.79457e-02,9.99999e-01,9.99999e-01,9.99972e-01,3.79467e-02,9.99999e-01
5.315272217e-01,4.04789e-02,9.99999e-01,9.99999e-01,9.99975e-01,4.04798e-02,9.99999e-01
5.341848578e-01,4.31263e-02,9.99999e-01,9.99999e-01,9.99983e-01,4.31270e-02,9.99999e-01
5.368557821e-01,4.58873e-02,9.99999e-01,9.99999e-01,9.99944e-01,4.58898e-02,9.99999e-01
5.395400610e-01,4.87601e-02,9.99999e-01,9.99999e-01,9.99800e-01,4.87698e-02,9.99999e-01
5.422377613e-01,5.17548e-02,9.99999e-01,9.99999e-01,9.99741e-01,5.17682e-02,9.99999e-01
5.449489501e-01,5.48731e-02,9.99999e-01,9.99999e-01,9.99760e-01,5.48862e-02,9.99999e-01
5.476736949e-01,5.81125e-02,9.99999e-01,9.99999e-01,9.99787e-01,5.81249e-02,9.99999e-01
5.504120634e-01,6.14755e-02,9.99999e-01,9.99999e-01,9.99845e-01,6.14850e-02,9.99999e-01
5.531641237e-01,6.49621e-02,9.99999e-01,9.99999e-01,9.99921e-01,6.49671e-02,9.99999e-01
5.559299443e-01,6.85693e-02,9.99999e-01,9.99999e-01,9.99962e-01,6.85719e-02,9.99999e-01
5.587095940e-01,7.22978e-02,9.99999e-01,9.99999e-01,9.99976e-01,7.22994e-02,9.99999e-01
5.615031420e-01,7.61480e-02,9.99999e-01,9.99999e-01,9.99973e-01,7.61500e-02,9.99999e-01
5.643106577e-01,8.01211e-02,9.99999e-01,9.99999e-01,9.99970e-01,8.01235e-02,9.99999e-01
5.671322110e-01,8.41894e-02,9.99999e-01,9.99999e-01,9.99641e-01,8.42196e-02,9.99999e-01
5.699678720e-01,8.84041e-02,9.99999e-01,9.99999e-01,9.99616e-01,8.84380e-02,9.99999e-01
5.728177114e-01,9.27411e-02,9.99999e-01,9.99999e-01,9.99601e-01,9.27781e-02,9.99999e-01
5.756818000e-01,9.72035e-02,9.99999e-01,9.99999e-01,9.99633e-01,9.72391e-02,9.99999e-01
5.785602090e-01,1.01788e-01,9.99999e-01,9.99999e-01,9.99680e-01,1.01820e-01,9.99999e-01
5.814530100e-01,1.06486e-01,9.99999e-01,9.99999e-01,9.99679e-01,1.06520e-01,9.99999e-01
5.843602750e-01,1.11295e-01,9.99999e-01,9.99999e-01,9.99618e-01,1.11338e-01,9.99999e-01
5.872820764e-01,1.15890e-01,9.99999e-01,9.99999e-01,9.96715e-01,1.16271e-01,9.99999e-01
5.902184868e-01,1.20836e-01,9.99999e-01,9.99999e-01,9.96014e-01,1.21320e-01,9.99999e-01
5.931695792e-01,1.26125e-01,9.99999e-01,9.99999e-01,9.97184e-01,1.26481e-01,9.99999e-01
5.961354271e-01,1.31347e-01,9.99999e-01,9.99999e-01,9.96912e-01,1.31754e-01,9.99999e-01
5.991161043e-01,1.36827e-01,9.99999e-01,9.99999e-01,9.97747e-01,1.37136e-01,9.99999e-01
6.021116848e-01,1.42442e-01,9.99999e-01,9.99999e-01,9.98720e-01,1.42625e-01,9.99999e-01
6.051222432e-01,1.48122e-01,9.99999e-01,9.99999e-01,9.99352e-01,1.48218e-01,9.99999e-01
6.081478544e-01,1.53871e-01,9.99999e-01,9.99999e-01,9.99720e-01,1.53914e-01,9.99999e-01
6.111885937e-01,1.59691e-01,9.99999e-01,9.99999e-01,9.99881e-01,1.59710e-01,9.99999e-01
6.142445367e-01,1.65594e-01,9.99999e-01,9.99999e-01,9.99946e-01,1.65603e-01,9.99999e-01
6.173157594e-01,1.71585e-01,9.99999e-01,9.99999e-01,9.99970e-01,1.71590e-01,9.99999e-01
6.204023382e-01,1.77665e-01,9.99999e-01,9.99999e-01,9.99974e-01,1.77670e-01,9.99999e-01
6.235043498e-01,1.83818e-01,9.99999e-01,9.99999e-01,9.99891e-01,1.83838e-01,9.99999e-01
6.266218716e-01,1.89983e-01,9.99999e-01,9.99999e-01,9.99426e-01,1.90092e-01,9.99999e-01
6.297549810e-01,1.96388e-01,9.99999e-01,9.99999e-01,9.99789e-01,1.96429e-01,9.99999e-01
6.329037559e-01,2.02762e-01,9.99999e-01,9.99999e-01,9.99583e-01,2.02847e-01,9.99999e-01
6.360682746e-01,2.09266e-01,9.99999e-01,9.99999e-01,9.99645e-01,2.09340e-01,9.99999e-01
6.392486160e-01,2.15808e-01,9.99999e-01,9.99999e-01,9.99540e-01,2.15907e-01,9.99999e-01
6.424448591e-01,2.22408e-01,9.99999e-01,9.99999e-01,9.99387e-01,2.22545e-01,9.99999e-01
6.456570834e-01,2.28597e-01,9.99999e-01,9.99999e-01,9.97155e-01,2.29249e-01,9.99999e-01
6.488853688e-01,2.35524e-01,9.99999e-01,9.99999e-01,9.97911e-01,2.36017e-01,9.99999e-01
6.521297956e-01,2.42328e-01,9.99999e-01,9.99999e-01,9.97870e-01,2.42845e-01,9.99999e-01
6.553904446e-01,2.49201e-01,9.99999e-01,9.99999e-01,9.97883e-01,2.49730e-01,9.99999e-01
6.586673968e-01,2.56202e-01,9.99999e-01,9.99999e-01,9.98185e-01,2.56668e-01,9.99999e-01
6.619607338e-01,2.63380e-01,9.99999e-01,9.99999e-01,9.98950e-01,2.63656e-01,9.99999e-01
6.652705375e-01,2.70527e-01,9.99999e-01,9.99999e-01,9.99392e-01,2.70691e-01,9.99999e-01
6.685968902e-01,2.77691e-01,9.99999e-01,9.99999e-01,9.99717e-01,2.77769e-01,9.99999e-01
6.719398746e-01,2.84850e-01,9.99999e-01,9.99999e-01,9.99868e-01,2.84887e-01,9.99999e-01
6.752995740e-01,2.92021e-01,9.99999e-01,9.99999e-01,9.99928e-01,2.92041e-01,9.99999e-01
6.786760719e-01,2.99198e-01,9.99999e-01,9.99999e-01,9.99897e-01,2.99229e-01,9.99999e-01
6.820694522e-01,3.06392e-01,9.99999e-01,9.99999e-01,9.99824e-01,3.06445e-01,9.99999e-01
6.854797995e-01,3.13618e-01,9.99999e-01,9.99999e-01,9.99774e-01,3.13689e-01,9.99999e-01
6.889071985e-01,3.20781e-01,9.99999e-01,9.99999e-01,9.99455e-01,3.20955e-01,9.99999e-01
6.923517345e-01,3.25325e-01,9.99999e-01,9.99999e-01,9.91114e-01,3.28241e-01,9.99999e-01
6.958134932e-01,3.33984e-01,9.99999e-01,9.99999e-01,9.95350e-01,3.35544e-01,9.99999e-01
6.992925606e-01,3.41353e-01,9.99999e-01,9.99999e-01,9.95602e-01,3.42860e-01,9.99999e-01
7.027890234e-01,3.48283e-01,9.99999e-01,9.99999e-01,9.94562e-01,3.50187e-01,9.99999e-01
7.063029686e-01,3.55886e-01,9.99999e-01,9.99999e-01,9.95428e-01,3.57521e-01,9.99999e-01
7.098344834e-01,3.63258e-01,9.99999e-01,9.99999e-01,9.95613e-01,3.64859e-01,9.99999e-01
7.133836558e-01,3.70028e-01,9.99999e-01,9.99999e-01,9.94171e-01,3.72198e-01,9.99999e-01
7.169505741e-01,3.62037e-01,9.99999e-01,9.99999e-01,9.53897e-01,3.79535e-01,9.99998e-01
7.205353270e-01,3.78007e-01,9.99999e-01,9.99999e-01,9.77096e-01,3.86868e-01,9.99998e-01
7.241380036e-01,3.82800e-01,9.99999e-01,9.99999e-01,9.71097e-01,3.94193e-01,9.99998e-01
7.277586936e-01,3.91020e-01,9.99999e-01,9.99999e-01,9.73876e-01,4.01509e-01,9.99998e-01
7.313974871e-01,3.97452e-01,9.99999e-01,9.99999e-01,9.72213e-01,4.08811e-01,9.99999e-01
7.350544745e-01,4.09750e-01,9.99999e-01,9.99999e-01,9.84741e-01,4.16099e-01,9.99999e-01
7.387297469e-01,4.18606e-01,9.99999e-01,9.99999e-01,9.88752e-01,4.23368e-01,9.99999e-01
7.424233956e-01,4.28241e-01,9.99999e-01,9.99999e-01,9.94481e-01,4.30617e-01,9.99999e-01
7.461355126e-01,4.36379e-01,9.99999e-01,9.99999e-01,9.96653e-01,4.37844e-01,9.99999e-01
7.498661902e-01,4.44351e-01,9.99999e-01,9.99999e-01,9.98439e-01,4.45045e-01,9.99999e-01
7.536155211e-01,4.51873e-01,9.99999e-01,9.99999e-01,9.99234e-01,4.52219e-01,9.99999e-01
7.573835987e-01,4.59183e-01,9.99999e-01,9.99999e-01,9.99605e-01,4.59363e-01,9.99999e-01
7.611705167e-01,4.66362e-01,9.99999e-01,9.99999e-01,9.99755e-01,4.66476e-01,9.99999e-01
7.649763693e-01,4.73483e-01,9.99999e-01,9.99999e-01,9.99846e-01,4.73556e-01,9.99999e-01
7.688012511e-01,4.80548e-01,9.99999e-01,9.99999e-01,9.99892e-01,4.80600e-01,9.99999e-01
7.726452574e-01,4.87563e-01,9.99999e-01,9.99999e-01,9.99911e-01,4.87606e-01,9.99999e-01
7.765084837e-01,4.94511e-01,9.99999e-01,9.99999e-01,9.99875e-01,4.94573e-01,9.99999e-01
7.803910261e-01,4.85017e-01,9.99999e-01,9.67638e-01,9.99461e-01,5.01499e-01,9.99999e-01
7.842929812e-01,4.38463e-01,9.99999e-01,8.64011e-01,9.98122e-01,5.08382e-01,9.99999e-01
7.882144461e-01,4.39002e-01,9.99999e-01,8.55249e-01,9.96127e-01,5.15221e-01,9.99999e-01
7.921555184e-01,4.75582e-01,9.99999e-01,9.12949e-01,9.97872e-01,5.22015e-01,9.99999e-01
7.961162960e-01,4.95598e-01,9.99999e-01,9.40775e-01,9.96251e-01,5.28761e-01,9.99999e-01
8.000968774e-01,5.15800e-01,9.99999e-01,9.67467e-01,9.95666e-01,5.35458e-01,9.99999e-01
8.040973618e-01,5.30586e-01,9.99999e-01,9.83002e-01,9.95666e-01,5.42105e-01,9.99999e-01
8.081178486e-01,5.39112e-01,9.99999e-01,9.92169e-01,9.90262e-01,5.48702e-01,9.99999e-01
8.121584379e-01,5.31731e-01,9.99999e-01,9.97571e-01,9.59958e-01,5.55246e-01,9.99999e-01
8.162192301e-01,5.34784e-01,9.99999e-01,9.99463e-01,9.52522e-01,5.61736e-01,9.99998e-01
8.203003262e-01,5.54603e-01,9.99999e-01,9.99991e-01,9.76125e-01,5.68172e-01,9.99998e-01
8.244018279e-01,5.55346e-01,9.99999e-01,9.99999e-01,9.66573e-01,5.74552e-01,9.99998e-01
8.285238370e-01,5.64294e-01,9.99999e-01,9.99999e-01,9.71455e-01,5.80875e-01,9.99998e-01
8.326664562e-01,5.70183e-01,9.99999e-01,9.99999e-01,9.71116e-01,5.87142e-01,9.99999e-01
8.368297885e-01,5.81063e-01,9.99999e-01,9.99999e-01,9.79291e-01,5.93350e-01,9.99999e-01
8.410139374e-01,5.92095e-01,9.99999e-01,9.99999e-01,9.87649e-01,5.99499e-01,9.99999e-01
8.452190071e-01,6.01910e-01,9.99999e-01,9.99999e-01,9.93926e-01,6.05589e-01,9.99999e-01
8.494451021e-01,6.09463e-01,9.99999e-01,9.99999e-01,9.96475e-01,6.11618e-01,9.99999e-01
8.536923276e-01,6.16298e-01,9.99999e-01,9.99999e-01,9.97913e-01,6.17586e-01,9.99999e-01
8.579607893e-01,6.22693e-01,9.99999e-01,9.99999e-01,9.98715e-01,6.23493e-01,9.99999e-01
8.622505932e-01,6.28825e-01,9.99999e-01,9.99999e-01,9.99183e-01,6.29339e-01,9.99999e-01
8.665618462e-01,5.88834e-01,9.99999e-01,9.27568e-01,9.99495e-01,6.35122e-01,9.99999e-01
8.708946554e-01,4.41833e-01,9.99999e-01,6.89841e-01,9.99422e-01,6.40842e-01,9.99999e-01
8.752491287e-01,4.78996e-01,9.99999e-01,7.41462e-01,9.99227e-01,6.46500e-01,9.99999e-01
8.796253743e-01,5.52752e-01,9.99999e-01,8.48537e-01,9.98930e-01,6.52094e-01,9.99999e-01
8.840235012e-01,6.03236e-01,9.99999e-01,9.18401e-01,9.98778e-01,6.57624e-01,9.99999e-01
8.884436187e-01,6.38387e-01,9.99999e-01,9.66995e-01,9.95562e-01,6.63091e-01,9.99999e-01
8.928858368e-01,6.29219e-01,9.99999e-01,9.86508e-01,9.54013e-01,6.68494e-01,9.99998e-01
8.973502660e-01,6.17842e-01,9.99999e-01,9.96703e-01,9.19880e-01,6.73833e-01,9.99998e-01
9.018370173e-01,6.50492e-01,9.99999e-01,9.99635e-01,9.58201e-01,6.79108e-01,9.99998e-01
9.063462024e-01,6.53266e-01,9.99999e-01,9.90752e-01,9.63264e-01,6.84319e-01,9.99998e-01
9.108779334e-01,6.36699e-01,9.99999e-01,9.78803e-01,9.43228e-01,6.89465e-01,9.99997e-01
9.154323231e-01,6.46721e-01,9.99999e-01,9.94975e-01,9.35745e-01,6.94548e-01,9.99997e-01
9.200094847e-01,6.18938e-01,9.99999e-01,9.29567e-01,9.49279e-01,6.99566e-01,9.99997e-01
9.246095321e-01,5.85985e-01,9.99999e-01,9.00445e-01,9.22034e-01,7.04521e-01,9.99995e-01
9.292325798e-01,3.82684e-01,9.99999e-01,9.21240e-01,5.80661e-01,7.09412e-01,9.99991e-01
9.338787427e-01,3.29509e-01,9.99999e-01,9.23628e-01,4.95405e-01,7.14239e-01,9.99989e-01
9.385481364e-01,5.12505e-01,9.99999e-01,9.43309e-01,7.53168e-01,7.19003e-01,9.99989e-01
9.432408771e-01,4.72207e-01,9.99999e-01,9.64889e-01,6.74942e-01,7.23703e-01,9.99987e-01
9.479570815e-01,4.16579e-01,9.99999e-01,9.81842e-01,5.81975e-01,7.28340e-01,9.99989e-01
9.526968669e-01,4.83830e-01,9.99999e-01,9.91201e-01,6.65500e-01,7.32915e-01,9.99991e-01
9.574603512e-01,5.05059e-01,9.99999e-01,9.96228e-01,6.87323e-01,7.37427e-01,9.99993e-01
9.622476530e-01,5.46003e-01,9.99999e-01,9.98822e-01,7.36795e-01,7.41877e-01,9.99995e-01
9.670588912e-01,6.25621e-01,9.99999e-01,9.99646e-01,8.38618e-01,7.46265e-01,9.99997e-01
9.718941857e-01,6.72389e-01,9.99999e-01,9.99974e-01,8.95832e-01,7.50592e-01,9.99998e-01
9.767536566e-01,6.88992e-01,9.99999e-01,9.99999e-01,9.12745e-01,7.54858e-01,9.99998e-01
9.816374249e-01,7.09386e-01,9.99999e-01,9.99999e-01,9.34555e-01,7.59062e-01,9.99998e-01
9.865456120e-01,7.31610e-01,9.99999e-01,9.99999e-01,9.58599e-01,7.63207e-01,9.99999e-01
9.914783401e-01,7.47506e-01,9.99999e-01,9.99999e-01,9.74213e-01,7.67292e-01,9.99999e-01
9.964357318e-01,7.60422e-01,9.99999e-01,9.99999e-01,9.85875e-01,7.71317e-01,9.99999e-01
1.001417910e+00,7.68703e-01,9.99999e-01,9.99999e-01,9.91512e-01,7.75283e-01,9.99999e-01
1.006425000e+00,7.75416e-01,9.99999e-01,9.99999e-01,9.95155e-01,7.79190e-01,9.99999e-01
1.011457125e+00,7.80683e-01,9.99999e-01,9.99999e-01,9.96989e-01,7.83040e-01,9.99999e-01
1.016514411e+00,7.85224e-01,9.99999e-01,9.99999e-01,9.97955e-01,7.86832e-01,9.99999e-01
1.021596983e+00,7.89242e-01,9.99999e-01,9.99951e-01,9.98371e-01,7.90567e-01,9.99999e-01
1.026704968e+00,7.90376e-01,9.99999e-01,9.96391e-01,9.98729e-01,7.94245e-01,9.99999e-01
1.031838492e+00,7.63204e-01,9.99999e-01,9.57413e-01,9.99076e-01,7.97867e-01,9.99999e-01
1.036997685e+00,1.26670e-01,9.99999e-01,1.58124e-01,9.99451e-01,8.01434e-01,9.99999e-01
1.042182673e+00,1.03074e-01,9.99999e-01,1.28126e-01,9.99346e-01,8.04946e-01,9.99999e-01
1.047393587e+00,1.20682e-01,9.99999e-01,1.49398e-01,9.99133e-01,8.08403e-01,9.99999e-01
1.052630555e+00,3.73548e-03,9.99999e-01,4.60547e-03,9.98810e-01,8.11806e-01,9.99999e-01
1.057893707e+00,9.32970e-03,9.99999e-01,1.14607e-02,9.98016e-01,8.15156e-01,9.99999e-01
1.063183176e+00,3.03295e-02,9.99999e-01,3.71444e-02,9.96736e-01,8.18454e-01,9.99999e-01
1.068499092e+00,8.33621e-02,9.99999e-01,1.01921e-01,9.94537e-01,8.21699e-01,9.99999e-01
1.073841587e+00,1.93595e-01,9.99999e-01,2.35980e-01,9.93611e-01,8.24893e-01,9.99999e-01
1.079210795e+00,3.29417e-01,9.99999e-01,4.00829e-01,9.91814e-01,8.28035e-01,9.99999e-01
1.084606849e+00,4.96559e-01,9.99999e-01,6.04594e-01,9.87635e-01,8.31127e-01,9.99999e-01
1.090029883e+00,6.31378e-01,9.99999e-01,7.70168e-01,9.82301e-01,8.34169e-01,9.99998e-01
1.095480033e+00,7.01441e-01,9.99999e-01,8.79236e-01,9.52480e-01,8.37162e-01,9.99998e-01
1.100957433e+00,6.98140e-01,9.99999e-01,9.39891e-01,8.83613e-01,8.40106e-01,9.99997e-01
1.106462220e+00,6.00854e-01,9.99999e-01,9.74686e-01,7.30620e-01,8.43003e-01,9.99994e-01
1.111994531e+00,4.33595e-01,9.99999e-01,9.90542e-01,5.17172e-01,8.45851e-01,9.99990e-01
1.117554504e+00,2.92132e-01,9.99999e-01,9.97681e-01,3.44890e-01,8.48653e-01,9.99986e-01
1.123142276e+00,3.90867e-01,9.99999e-01,9.99847e-01,4.59124e-01,8.51408e-01,9.99984e-01
1.128757988e+00,5.17503e-01,9.99999e-01,9.99999e-01,6.05901e-01,8.54118e-01,9.99982e-01
1.134401778e+00,2.95608e-01,9.99999e-01,9.99999e-01,3.45027e-01,8.56782e-01,9.99980e-01
1.140073787e+00,6.36673e-01,9.99999e-01,9.99999e-01,7.40843e-01,8.59402e-01,9.99984e-01
1.145774156e+00,4.62110e-01,9.99999e-01,9.99999e-01,5.36110e-01,8.61978e-01,9.99986e-01
1.151503026e+00,4.32219e-01,9.99999e-01,9.99999e-01,4.99963e-01,8.64511e-01,9.99988e-01
1.157260541e+00,4.84610e-01,9.99999e-01,9.99999e-01,5.58955e-01,8.67000e-01,9.99991e-01
1.163046844e+00,5.65283e-01,9.99999e-01,9.99999e-01,6.50166e-01,8.69448e-01,9.99994e-01
1.168862078e+00,6.46159e-01,9.99999e-01,9.99999e-01,7.41134e-01,8.71854e-01,9.99996e-01
1.174706389e+00,7.26658e-01,9.99999e-01,9.99999e-01,8.31209e-01,8.74218e-01,9.99998e-01
1.180579921e+00,7.83192e-01,9.99999e-01,9.99999e-01,8.93501e-01,8.76543e-01,9.99998e-01
1.186482820e+00,8.24656e-01,9.99999e-01,9.99993e-01,9.38365e-01,8.78827e-01,9.99998e-01
1.192415234e+00,8.38207e-01,9.99999e-01,9.87177e-01,9.63570e-01,8.81072e-01,9.99998e-01
1.198377311e+00,4.84099e-01,9.99999e-01,5.62585e-01,9.69220e-01,8.83278e-01,9.99998e-01
1.204369197e+00,6.29801e-11,9.99999e-01,7.23532e-11,9.70844e-01,8.85447e-01,9.99999e-01
1.210391043e+00,1.66322e-39,9.99999e-01,1.90354e-39,9.72100e-01,8.87577e-01,9.99999e-01
1.216442998e+00,2.14494e-34,9.99999e-01,2.44708e-34,9.76206e-01,8.89670e-01,9.99999e-01
1.222525213e+00,6.71817e-34,9.99999e-01,7.60687e-34,9.81434e-01,8.91727e-01,9.99999e-01
1.228637839e+00,2.96310e-26,9.99999e-01,3.34539e-26,9.87075e-01,8.93748e-01,9.99999e-01
