#,Wave/freq,Total,O2,CO2,H2O,Rayleigh,CIA
4.000000000e-01,6.56916e-03,9.99999e-01,9.99999e-01,9.99989e-01,6.56923e-03,9.99999e-01
4.020000000e-01,7.25549e-03,9.99999e-01,9.99999e-01,9.99993e-01,7.25553e-03,9.99999e-01
4.040100000e-01,7.99697e-03,9.99999e-01,9.99999e-01,9.99996e-01,7.99699e-03,9.99999e-01
4.060300500e-01,8.79728e-03,9.99999e-01,9.99999e-01,9.99998e-01,8.79729e-03,9.99999e-01
4.080602003e-01,9.65946e-03,9.99999e-01,9.99999e-01,9.99999e-01,9.65946e-03,9.99999e-01
4.101005013e-01,1.05866e-02,9.99999e-01,9.99999e-01,9.99999e-01,1.05866e-02,9.99999e-01
4.121510038e-01,1.15817e-02,9.99999e-01,9.99999e-01,9.99999e-01,1.15817e-02,9.99999e-01
4.142117588e-01,1.26478e-02,9.99999e-01,9.99999e-01,9.99996e-01,1.26478e-02,9.99999e-01
4.162828176e-01,1.37880e-02,9.99999e-01,9.99999e-01,9.99987e-01,1.37882e-02,9.99999e-01
4.183642317e-01,1.50056e-02,9.99999e-01,9.99999e-01,9.99992e-01,1.50057e-02,9.99999e-01
4.204560528e-01,1.63034e-02,9.99999e-01,9.99999e-01,9.99995e-01,1.63034e-02,9.99999e-01
4.225583331e-01,1.76844e-02,9.99999e-01,9.99999e-01,9.99997e-01,1.76844e-02,9.99999e-01
4.246711247e-01,1.91516e-02,9.99999e-01,9.99999e-01,9.99998e-01,1.91516e-02,9.99999e-01
4.267944804e-01,2.07079e-02,9.99999e-01,9.99999e-01,9.99997e-01,2.07079e-02,9.99999e-01
4.289284528e-01,2.23561e-02,9.99999e-01,9.99999e-01,9.99997e-01,2.23561e-02,9.99999e-01
4.310730950e-01,2.40990e-02,9.99999e-01,9.99999e-01,9.99998e-01,2.40991e-02,9.99999e-01
4.332284605e-01,2.59394e-02,9.99999e-01,9.99999e-01,9.99999e-01,2.59394e-02,9.99999e-01
4.353946028e-01,2.78797e-02,9.99999e-01,9.99999e-01,9.99999e-01,2.78797e-02,9.99999e-01
4.375715758e-01,2.99224e-02,9.99999e-01,9.99999e-01,9.99998e-01,2.99225e-02,9.99999e-01
4.397594337e-01,3.20697e-02,9.99999e-01,9.99999e-01,9.99988e-01,3.20701e-02,9.99999e-01
4.419582309e-01,3.43230e-02,9.99999e-01,9.99999e-01,9.99946e-01,3.43248e-02,9.99999e-01
4.441680220e-01,3.66872e-02,9.99999e-01,9.99999e-01,9.99956e-01,3.66888e-02,9.99999e-01
4.463888621e-01,3.91623e-02,9.99999e-01,9.99999e-01,9.99955e-01,3.91641e-02,9.99999e-01
4.486208064e-01,4.17513e-02,9.99999e-01,9.99999e-01,9.99971e-01,4.17524e-02,9.99999e-01
4.508639105e-01,4.44550e-02,9.99999e-01,9.99999e-01,9.99986e-01,4.44556e-02,9.99999e-01
4.531182300e-01,4.72750e-02,9.99999e-01,9.99999e-01,9.99994e-01,4.72752e-02,9.99999e-01
4.553838212e-01,5.02124e-02,9.99999e-01,9.99999e-01,9.99996e-01,5.02126e-02,9.99999e-01
4.576607403e-01,5.32689e-02,9.99999e-01,9.99999e-01,9.99997e-01,5.32690e-02,9.99999e-01
4.599490440e-01,5.64455e-02,9.99999e-01,9.99999e-01,9.99998e-01,5.64456e-02,9.99999e-01
4.622487892e-01,5.97432e-02,9.99999e-01,9.99999e-01,9.99999e-01,5.97432e-02,9.99999e-01
4.645600332e-01,6.31625e-02,9.99999e-01,9.99999e-01,9.99998e-01,6.31626e-02,9.99999e-01
4.668828333e-01,6.67034e-02,9.99999e-01,9.99999e-01,9.99986e-01,6.67043e-02,9.99999e-01
4.692172475e-01,7.03667e-02,9.99999e-01,9.99999e-01,9.99971e-01,7.03687e-02,9.99999e-01
4.715633337e-01,7.41547e-02,9.99999e-01,9.99999e-01,9.99981e-01,7.41561e-02,9.99999e-01
4.739211504e-01,7.80650e-02,9.99999e-01,9.99999e-01,9.99982e-01,7.80664e-02,9.99999e-01
4.762907561e-01,8.20988e-02,9.99999e-01,9.99999e-01,9.99990e-01,8.20995e-02,9.99999e-01
4.786722099e-01,8.62548e-02,9.99999e-01,9.99999e-01,9.99995e-01,8.62552e-02,9.99999e-01
4.810655710e-01,9.05327e-02,9.99999e-01,9.99999e-01,9.99998e-01,9.05328e-02,9.99999e-01
4.834708988e-01,9.49308e-02,9.99999e-01,9.99999e-01,9.99989e-01,9.49318e-02,9.99999e-01
4.858882533e-01,9.94493e-02,9.99999e-01,9.99999e-01,9.99979e-01,9.94512e-02,9.99999e-01
4.883176946e-01,1.04089e-01,9.99999e-01,9.99999e-01,9.99983e-01,1.04090e-01,9.99999e-01
4.907592831e-01,1.08846e-01,9.99999e-01,9.99999e-01,9.99984e-01,1.08848e-01,9.99999e-01
4.932130795e-01,1.13721e-01,9.99999e-01,9.99999e-01,9.99988e-01,1.13722e-01,9.99999e-01
4.956791449e-01,1.18711e-01,9.99999e-01,9.99999e-01,9.99993e-01,1.18712e-01,9.99999e-01
4.981575406e-01,1.23812e-01,9.99999e-01,9.99999e-01,9.99971e-01,1.23815e-01,9.99999e-01
5.006483283e-01,1.29022e-01,9.99999e-01,9.99999e-01,9.99928e-01,1.29031e-01,9.99999e-01
5.031515699e-01,1.34308e-01,9.99999e-01,9.99999e-01,9.99634e-01,1.34357e-01,9.99999e-01
5.056673278e-01,1.39764e-01,9.99999e-01,9.99999e-01,9.99806e-01,1.39791e-01,9.99999e-01
5.081956644e-01,1.45295e-01,9.99999e-01,9.99999e-01,9.99755e-01,1.45331e-01,9.99999e-01
5.107366428e-01,1.50950e-01,9.99999e-01,9.99999e-01,9.99834e-01,1.50974e-01,9.99999e-01
5.132903260e-01,1.56704e-01,9.99999e-01,9.99999e-01,9.99905e-01,1.56719e-01,9.99999e-01
5.158567776e-01,1.62556e-01,9.99999e-01,9.99999e-01,9.99959e-01,1.62563e-01,9.99999e-01
5.184360615e-01,1.68499e-01,9.99999e-01,9.99999e-01,9.99983e-01,1.68502e-01,9.99999e-01
5.210282418e-01,1.74533e-01,9.99999e-01,9.99999e-01,9.99993e-01,1.74534e-01,9.99999e-01
5.236333830e-01,1.80653e-01,9.99999e-01,9.99999e-01,9.99975e-01,1.80657e-01,9.99999e-01
5.262515499e-01,1.86865e-01,9.99999e-01,9.99999e-01,9.99984e-01,1.86868e-01,9.99999e-01
5.288828077e-01,1.93160e-01,9.99999e-01,9.99999e-01,9.99985e-01,1.93163e-01,9.99999e-01
5.315272217e-01,1.99537e-01,9.99999e-01,9.99999e-01,9.99987e-01,1.99539e-01,9.99999e-01
5.341848578e-01,2.05993e-01,9.99999e-01,9.99999e-01,9.99991e-01,2.05994e-01,9.99999e-01
5.368557821e-01,2.12518e-01,9.99999e-01,9.99999e-01,9.99971e-01,2.12524e-01,9.99999e-01
5.395400610e-01,2.19104e-01,9.99999e-01,9.99999e-01,9.99900e-01,2.19126e-01,9.99999e-01
5.422377613e-01,2.25767e-01,9.99999e-01,9.99999e-01,9.99869e-01,2.25796e-01,9.99999e-01
5.449489501e-01,2.32504e-01,9.99999e-01,9.99999e-01,9.99879e-01,2.32532e-01,9.99999e-01
5.476736949e-01,2.39303e-01,9.99999e-01,9.99999e-01,9.99892e-01,2.39329e-01,9.99999e-01
5.504120634e-01,2.46166e-01,9.99999e-01,9.99999e-01,9.99921e-01,2.46185e-01,9.99999e-01
5.531641237e-01,2.53086e-01,9.99999e-01,9.99999e-01,9.99960e-01,2.53096e-01,9.99999e-01
5.559299443e-01,2.60054e-01,9.99999e-01,9.99999e-01,9.99980e-01,2.60059e-01,9.99999e-01
5.587095940e-01,2.67068e-01,9.99999e-01,9.99999e-01,9.99987e-01,2.67071e-01,9.99999e-01
5.615031420e-01,2.74123e-01,9.99999e-01,9.99999e-01,9.99986e-01,2.74127e-01,9.99999e-01
5.643106577e-01,2.81221e-01,9.99999e-01,9.99999e-01,9.99984e-01,2.81225e-01,9.99999e-01
5.671322110e-01,2.88310e-01,9.99999e-01,9.99999e-01,9.99822e-01,2.88361e-01,9.99999e-01
5.699678720e-01,2.95474e-01,9.99999e-01,9.99999e-01,9.99805e-01,2.95531e-01,9.99999e-01
5.728177114e-01,3.02673e-01,9.99999e-01,9.99999e-01,9.99799e-01,3.02734e-01,9.99999e-01
5.756818000e-01,3.09907e-01,9.99999e-01,9.99999e-01,9.99815e-01,3.09964e-01,9.99999e-01
5.785602090e-01,3.17168e-01,9.99999e-01,9.99999e-01,9.99838e-01,3.17219e-01,9.99999e-01
5.814530100e-01,3.24443e-01,9.99999e-01,9.99999e-01,9.99838e-01,3.24495e-01,9.99999e-01
5.843602750e-01,3.31727e-01,9.99999e-01,9.99999e-01,9.99809e-01,3.31790e-01,9.99999e-01
5.872820764e-01,3.38543e-01,9.99999e-01,9.99999e-01,9.98358e-01,3.39100e-01,9.99999e-01
5.902184868e-01,3.45725e-01,9.99999e-01,9.99999e-01,9.97990e-01,3.46421e-01,9.99999e-01
5.931695792e-01,3.53251e-01,9.99999e-01,9.99999e-01,9.98584e-01,3.53752e-01,9.99999e-01
5.961354271e-01,3.60526e-01,9.99999e-01,9.99999e-01,9.98445e-01,3.61088e-01,9.99999e-01
5.991161043e-01,3.68008e-01,9.99999e-01,9.99999e-01,9.98864e-01,3.68426e-01,9.99999e-01
6.021116848e-01,3.75523e-01,9.99999e-01,9.99999e-01,9.99354e-01,3.75765e-01,9.99999e-01
6.051222432e-01,3.82976e-01,9.99999e-01,9.99999e-01,9.99672e-01,3.83101e-01,9.99999e-01
6.081478544e-01,3.90375e-01,9.99999e-01,9.99999e-01,9.99858e-01,3.90430e-01,9.99999e-01
6.111885937e-01,3.97728e-01,9.99999e-01,9.99999e-01,9.99939e-01,3.97751e-01,9.99999e-01
6.142445367e-01,4.05050e-01,9.99999e-01,9.99999e-01,9.99972e-01,4.05061e-01,9.99999e-01
6.173157594e-01,4.12350e-01,9.99999e-01,9.99999e-01,9.99984e-01,4.12356e-01,9.99999e-01
6.204023382e-01,4.19630e-01,9.99999e-01,9.99999e-01,9.99987e-01,4.19635e-01,9.99999e-01
6.235043498e-01,4.26872e-01,9.99999e-01,9.99999e-01,9.99946e-01,4.26895e-01,9.99999e-01
6.266218716e-01,4.34008e-01,9.99999e-01,9.99999e-01,9.99711e-01,4.34133e-01,9.99999e-01
6.297549810e-01,4.41301e-01,9.99999e-01,9.99999e-01,9.99893e-01,4.41348e-01,9.99999e-01
6.329037559e-01,4.48442e-01,9.99999e-01,9.99999e-01,9.99790e-01,4.48536e-01,9.99999e-01
6.360682746e-01,4.55615e-01,9.99999e-01,9.99999e-01,9.99822e-01,4.55696e-01,9.99999e-01
6.392486160e-01,4.62719e-01,9.99999e-01,9.99999e-01,9.99769e-01,4.62826e-01,9.99999e-01
6.424448591e-01,4.69793e-01,9.99999e-01,9.99999e-01,9.99723e-01,4.69922e-01,9.99999e-01
6.456570834e-01,4.76313e-01,9.99999e-01,9.99999e-01,9.98591e-01,4.76985e-01,9.99999e-01
6.488853688e-01,4.83412e-01,9.99999e-01,9.99999e-01,9.98762e-01,4.84011e-01,9.99999e-01
6.521297956e-01,4.90471e-01,9.99999e-01,9.99999e-01,9.98927e-01,4.90998e-01,9.99999e-01
6.553904446e-01,4.97419e-01,9.99999e-01,9.99999e-01,9.98941e-01,4.97945e-01,9.99999e-01
6.586673968e-01,5.04389e-01,9.99999e-01,9.99999e-01,9.99083e-01,5.04851e-01,9.99999e-01
6.619607338e-01,5.11442e-01,9.99999e-01,9.99999e-01,9.99470e-01,5.11713e-01,9.99999e-01
6.652705375e-01,5.18371e-01,9.99999e-01,9.99999e-01,9.99692e-01,5.18530e-01,9.99999e-01
6.685968902e-01,5.25225e-01,9.99999e-01,9.99999e-01,9.99856e-01,5.25300e-01,9.99999e-01
6.719398746e-01,5.31988e-01,9.99999e-01,9.99999e-01,9.99933e-01,5.32023e-01,9.99999e-01
6.752995740e-01,5.38677e-01,9.99999e-01,9.99999e-01,9.99963e-01,5.38696e-01,9.99999e-01
6.786760719e-01,5.45291e-01,9.99999e-01,9.99999e-01,9.99948e-01,5.45319e-01,9.99999e-01
6.820694522e-01,5.51841e-01,9.99999e-01,9.99999e-01,9.99911e-01,5.51890e-01,9.99999e-01
6.854797995e-01,5.58344e-01,9.99999e-01,9.99999e-01,9.99886e-01,5.58408e-01,9.99999e-01
6.889071985e-01,5.64720e-01,9.99999e-01,9.99999e-01,9.99730e-01,5.64871e-01,9.99999e-01
6.923517345e-01,5.68738e-01,9.99999e-01,9.99999e-01,9.95548e-01,5.71280e-01,9.99999e-01
6.958134932e-01,5.76264e-01,9.99999e-01,9.99999e-01,9.97629e-01,5.77633e-01,9.99999e-01
6.992925606e-01,5.82644e-01,9.99999e-01,9.99999e-01,9.97799e-01,5.83929e-01,9.99999e-01
7.027890234e-01,5.88549e-01,9.99999e-01,9.99999e-01,9.97258e-01,5.90167e-01,9.99999e-01
7.063029686e-01,5.94974e-01,9.99999e-01,9.99999e-01,9.97697e-01,5.96347e-01,9.99999e-01
7.098344834e-01,6.01136e-01,9.99999e-01,9.99999e-01,9.97791e-01,6.02467e-01,9.99999e-01
7.133836558e-01,6.06763e-01,9.99999e-01,9.99999e-01,9.97099e-01,6.08527e-01,9.99999e-01
7.169505741e-01,6.00155e-01,9.99999e-01,9.99999e-01,9.76612e-01,6.14527e-01,9.99999e-01
7.205353270e-01,6.13177e-01,9.99999e-01,9.99999e-01,9.88253e-01,6.20466e-01,9.99999e-01
7.241380036e-01,6.17185e-01,9.99999e-01,9.99999e-01,9.85378e-01,6.26343e-01,9.99999e-01
7.277586936e-01,6.23802e-01,9.99999e-01,9.99999e-01,9.86781e-01,6.32158e-01,9.99999e-01
7.313974871e-01,6.28890e-01,9.99999e-01,9.99999e-01,9.85859e-01,6.37911e-01,9.99999e-01
7.350544745e-01,6.38629e-01,9.99999e-01,9.99999e-01,9.92275e-01,6.43600e-01,9.99999e-01
7.387297469e-01,6.45533e-01,9.99999e-01,9.99999e-01,9.94310e-01,6.49227e-01,9.99999e-01
7.424233956e-01,6.52961e-01,9.99999e-01,9.99999e-01,9.97205e-01,6.54790e-01,9.99999e-01
7.461355126e-01,6.59174e-01,9.99999e-01,9.99999e-01,9.98309e-01,6.60290e-01,9.99999e-01
7.498661902e-01,6.65200e-01,9.99999e-01,9.99999e-01,9.99210e-01,6.65726e-01,9.99999e-01
7.536155211e-01,6.70839e-01,9.99999e-01,9.99999e-01,9.99613e-01,6.71098e-01,9.99999e-01
7.573835987e-01,6.76271e-01,9.99999e-01,9.99999e-01,9.99800e-01,6.76405e-01,9.99999e-01
7.611705167e-01,6.81565e-01,9.99999e-01,9.99999e-01,9.99876e-01,6.81649e-01,9.99999e-01
7.649763693e-01,6.86776e-01,9.99999e-01,9.99999e-01,9.99922e-01,6.86829e-01,9.99999e-01
7.688012511e-01,6.91907e-01,9.99999e-01,9.99999e-01,9.99945e-01,6.91944e-01,9.99999e-01
7.726452574e-01,6.96965e-01,9.99999e-01,9.99999e-01,9.99955e-01,6.96996e-01,9.99999e-01
7.765084837e-01,7.01940e-01,9.99999e-01,9.99999e-01,9.99937e-01,7.01983e-01,9.99999e-01
7.803910261e-01,6.95085e-01,9.99999e-01,9.83535e-01,9.99731e-01,7.06907e-01,9.99999e-01
7.842929812e-01,6.59726e-01,9.99999e-01,9.27731e-01,9.99063e-01,7.11767e-01,9.99999e-01
7.882144461e-01,6.60221e-01,9.99999e-01,9.23133e-01,9.98051e-01,7.16563e-01,9.99999e-01
7.921555184e-01,6.88219e-01,9.99999e-01,9.55156e-01,9.98924e-01,7.21296e-01,9.99999e-01
7.961162960e-01,7.02565e-01,9.99999e-01,9.69574e-01,9.98124e-01,7.25965e-01,9.99999e-01
8.000968774e-01,7.16907e-01,9.99999e-01,9.83434e-01,9.97820e-01,7.30572e-01,9.99999e-01
8.040973618e-01,7.27172e-01,9.99999e-01,9.91347e-01,9.97822e-01,7.35117e-01,9.99999e-01
8.081178486e-01,7.33086e-01,9.99999e-01,9.96040e-01,9.95130e-01,7.39598e-01,9.99999e-01
8.121584379e-01,7.28052e-01,9.99999e-01,9.98763e-01,9.79745e-01,7.44018e-01,9.99999e-01
8.162192301e-01,7.29991e-01,9.99999e-01,9.99726e-01,9.75697e-01,7.48376e-01,9.99999e-01
8.203003262e-01,7.43643e-01,9.99999e-01,9.99994e-01,9.88006e-01,7.52673e-01,9.99999e-01
8.244018279e-01,7.43835e-01,9.99999e-01,9.99999e-01,9.82726e-01,7.56909e-01,9.99999e-01
8.285238370e-01,7.50096e-01,9.99999e-01,9.99999e-01,9.85562e-01,7.61085e-01,9.99999e-01
8.326664562e-01,7.53973e-01,9.99999e-01,9.99999e-01,9.85326e-01,7.65200e-01,9.99999e-01
8.368297885e-01,7.61176e-01,9.99999e-01,9.99999e-01,9.89496e-01,7.69256e-01,9.99999e-01
8.410139374e-01,7.68418e-01,9.99999e-01,9.99999e-01,9.93747e-01,7.73252e-01,9.99999e-01
8.452190071e-01,7.74802e-01,9.99999e-01,9.99999e-01,9.96927e-01,7.77190e-01,9.99999e-01
8.494451021e-01,7.79683e-01,9.99999e-01,9.99999e-01,9.98224e-01,7.81069e-01,9.99999e-01
8.536923276e-01,7.84063e-01,9.99999e-01,9.99999e-01,9.98945e-01,7.84890e-01,9.99999e-01
8.579607893e-01,7.88145e-01,9.99999e-01,9.99999e-01,9.99352e-01,7.88655e-01,9.99999e-01
8.622505932e-01,7.92036e-01,9.99999e-01,9.99999e-01,9.99587e-01,7.92362e-01,9.99999e-01
8.665618462e-01,7.60829e-01,9.99999e-01,9.56036e-01,9.99745e-01,7.96013e-01,9.99999e-01
8.708946554e-01,6.59476e-01,9.99999e-01,8.24982e-01,9.99709e-01,7.99608e-01,9.99999e-01
8.752491287e-01,6.88499e-01,9.99999e-01,8.57578e-01,9.99611e-01,8.03148e-01,9.99999e-01
8.796253743e-01,7.41550e-01,9.99999e-01,9.19799e-01,9.99464e-01,8.06633e-01,9.99999e-01
8.840235012e-01,7.75429e-01,9.99999e-01,9.57825e-01,9.99387e-01,8.10064e-01,9.99999e-01
8.884436187e-01,7.97957e-01,9.99999e-01,9.83104e-01,9.97811e-01,8.13442e-01,9.99999e-01
8.928858368e-01,7.92318e-01,9.99999e-01,9.93152e-01,9.76727e-01,8.16766e-01,9.99999e-01
8.973502660e-01,7.84846e-01,9.99999e-01,9.98320e-01,9.58679e-01,8.20038e-01,9.99998e-01
9.018370173e-01,8.05416e-01,9.99999e-01,9.99813e-01,9.78506e-01,8.23258e-01,9.99998e-01
9.063462024e-01,8.07413e-01,9.99999e-01,9.95410e-01,9.81428e-01,8.26427e-01,9.99998e-01
9.108779334e-01,7.96868e-01,9.99999e-01,9.89232e-01,9.71000e-01,8.29545e-01,9.99998e-01
9.154323231e-01,8.03155e-01,9.99999e-01,9.97434e-01,9.67075e-01,8.32612e-01,9.99998e-01
9.200094847e-01,7.84488e-01,9.99999e-01,9.63157e-01,9.74021e-01,8.35630e-01,9.99998e-01
9.246095321e-01,7.64031e-01,9.99999e-01,9.48362e-01,9.60220e-01,8.38600e-01,9.99997e-01
9.292325798e-01,6.12644e-01,9.99999e-01,9.59600e-01,7.56881e-01,8.41520e-01,9.99995e-01
9.338787427e-01,5.64570e-01,9.99999e-01,9.60586e-01,6.94359e-01,8.44393e-01,9.99994e-01
9.385481364e-01,7.10964e-01,9.99999e-01,9.70964e-01,8.63489e-01,8.47219e-01,9.99994e-01
9.432408771e-01,6.80660e-01,9.99999e-01,9.82073e-01,8.14965e-01,8.49998e-01,9.99993e-01
9.479570815e-01,6.35411e-01,9.99999e-01,9.90801e-01,7.51862e-01,8.52731e-01,9.99994e-01
9.526968669e-01,6.88151e-01,9.99999e-01,9.95544e-01,8.07881e-01,8.55419e-01,9.99995e-01
9.574603512e-01,7.07042e-01,9.99999e-01,9.98091e-01,8.25523e-01,8.58061e-01,9.99996e-01
9.622476530e-01,7.36060e-01,9.99999e-01,9.99403e-01,8.55723e-01,8.60660e-01,9.99997e-01
9.670588912e-01,7.89230e-01,9.99999e-01,9.99820e-01,9.14452e-01,8.63215e-01,9.99998e-01
9.718941857e-01,8.18978e-01,9.99999e-01,9.99986e-01,9.46013e-01,8.65726e-01,9.99998e-01
9.767536566e-01,8.29142e-01,9.99999e-01,9.99999e-01,9.55017e-01,8.68195e-01,9.99999e-01
9.816374249e-01,8.41382e-01,9.99999e-01,9.99999e-01,9.66413e-01,8.70623e-01,9.99999e-01
9.865456120e-01,8.54582e-01,9.99999e-01,9.99999e-01,9.78892e-01,8.73008e-01,9.99999e-01
9.914783401e-01,8.63904e-01,9.99999e-01,9.99999e-01,9.86919e-01,8.75353e-01,9.99999e-01
9.964357318e-01,8.71387e-01,9.99999e-01,9.99999e-01,9.92854e-01,8.77658e-01,9.99999e-01
1.001417910e+00,8.76150e-01,9.99999e-01,9.99999e-01,9.95711e-01,8.79923e-01,9.99999e-01
1.006425000e+00,8.79997e-01,9.99999e-01,9.99999e-01,9.97559e-01,8.82150e-01,9.99999e-01
1.011457125e+00,8.82993e-01,9.99999e-01,9.99999e-01,9.98479e-01,8.84337e-01,9.99999e-01
1.016514411e+00,8.85574e-01,9.99999e-01,9.99999e-01,9.98969e-01,8.86487e-01,9.99999e-01
1.021596983e+00,8.87852e-01,9.99999e-01,9.99977e-01,9.99179e-01,8.88599e-01,9.99999e-01
1.026704968e+00,8.88523e-01,9.99999e-01,9.98220e-01,9.99360e-01,8.90675e-01,9.99999e-01
1.031838492e+00,8.70774e-01,9.99999e-01,9.75868e-01,9.99534e-01,8.92714e-01,9.99999e-01
1.036997685e+00,2.57815e-01,9.99999e-01,2.88219e-01,9.99723e-01,8.94717e-01,9.99999e-01
1.042182673e+00,3.03730e-01,9.99999e-01,3.38829e-01,9.99671e-01,8.96685e-01,9.99999e-01
1.047393587e+00,2.86903e-01,9.99999e-01,3.19397e-01,9.99564e-01,8.98619e-01,9.99999e-01
1.052630555e+00,4.24619e-02,9.99999e-01,4.71750e-02,9.99403e-01,9.00518e-01,9.99999e-01
1.057893707e+00,7.92386e-02,9.99999e-01,8.78788e-02,9.99005e-01,9.02384e-01,9.99999e-01
1.063183176e+00,1.55444e-01,9.99999e-01,1.72140e-01,9.98361e-01,9.04217e-01,9.99999e-01
1.068499092e+00,2.80226e-01,9.99999e-01,3.10068e-01,9.97253e-01,9.06017e-01,9.99999e-01
1.073841587e+00,4.31272e-01,9.99999e-01,4.76471e-01,9.96791e-01,9.07785e-01,9.99999e-01
1.079210795e+00,5.67855e-01,9.99999e-01,6.26811e-01,9.95874e-01,9.09521e-01,9.99999e-01
1.084606849e+00,7.01551e-01,9.99999e-01,7.74606e-01,9.93771e-01,9.11227e-01,9.99999e-01
1.090029883e+00,7.92981e-01,9.99999e-01,8.76316e-01,9.91118e-01,9.12901e-01,9.99999e-01
1.095480033e+00,8.36384e-01,9.99999e-01,9.36977e-01,9.75920e-01,9.14546e-01,9.99998e-01
1.100957433e+00,8.34616e-01,9.99999e-01,9.69177e-01,9.39817e-01,9.16161e-01,9.99998e-01
1.106462220e+00,7.73320e-01,9.99999e-01,9.87125e-01,8.53423e-01,9.17747e-01,9.99997e-01
1.111994531e+00,6.53067e-01,9.99999e-01,9.95211e-01,7.13688e-01,9.19304e-01,9.99994e-01
1.117554504e+00,5.30897e-01,9.99999e-01,9.98822e-01,5.77154e-01,9.20833e-01,9.99992e-01
1.123142276e+00,6.10067e-01,9.99999e-01,9.99921e-01,6.61478e-01,9.22335e-01,9.99991e-01
1.128757988e+00,7.12682e-01,9.99999e-01,9.99999e-01,7.71466e-01,9.23809e-01,9.99991e-01
1.134401778e+00,4.94837e-01,9.99999e-01,9.99999e-01,5.34815e-01,9.25256e-01,9.99989e-01
1.140073787e+00,7.95490e-01,9.99999e-01,9.99999e-01,8.58438e-01,9.26677e-01,9.99991e-01
1.145774156e+00,6.71698e-01,9.99999e-01,9.99999e-01,7.23760e-01,9.28072e-01,9.99993e-01
1.151503026e+00,6.47158e-01,9.99999e-01,9.99999e-01,6.96290e-01,9.29441e-01,9.99993e-01
1.157260541e+00,6.91617e-01,9.99999e-01,9.99999e-01,7.43049e-01,9.30785e-01,9.99995e-01
1.163046844e+00,7.48451e-01,9.99999e-01,9.99999e-01,8.02970e-01,9.32105e-01,9.99996e-01
1.168862078e+00,8.02134e-01,9.99999e-01,9.99999e-01,8.59367e-01,9.33401e-01,9.99998e-01
1.174706389e+00,8.51275e-01,9.99999e-01,9.99999e-01,9.10774e-01,9.34672e-01,9.99998e-01
1.180579921e+00,8.84164e-01,9.99999e-01,9.99999e-01,9.44700e-01,9.35920e-01,9.99999e-01
1.186482820e+00,9.07576e-01,9.99999e-01,9.99997e-01,9.68449e-01,9.37145e-01,9.99999e-01
1.192415234e+00,9.15178e-01,9.99999e-01,9.93656e-01,9.81498e-01,9.38348e-01,9.99999e-01
1.198377311e+00,5.44754e-01,9.99999e-01,5.87537e-01,9.84417e-01,9.39528e-01,9.99999e-01
1.204369197e+00,1.31350e-06,9.99999e-01,1.40836e-06,9.85221e-01,9.40686e-01,9.99999e-01
1.210391043e+00,5.70022e-21,9.99999e-01,6.10026e-21,9.85865e-01,9.41823e-01,9.99999e-01
1.216442998e+00,2.13095e-18,9.99999e-01,2.27688e-18,9.87933e-01,9.42939e-01,9.99999e-01
1.222525213e+00,3.94554e-18,9.99999e-01,4.20011e-18,9.90608e-01,9.44034e-01,9.99999e-01
1.228637839e+00,6.03867e-14,9.99999e-01,6.41928e-14,9.93476e-01,9.45108e-01,9.99999e-01
