#,Wave/freq,Total,O2,CO2,H2O,Rayleigh,CIA
4.000000000e-01,2.69608e-04,9.99999e-01,9.99999e-01,9.99983e-01,2.69613e-04,9.99999e-01
4.020000000e-01,3.17182e-04,9.99999e-01,9.99999e-01,9.99989e-01,3.17185e-04,9.99999e-01
4.040100000e-01,3.71893e-04,9.99999e-01,9.99999e-01,9.99995e-01,3.71895e-04,9.99999e-01
4.060300500e-01,4.34673e-04,9.99999e-01,9.99999e-01,9.99998e-01,4.34673e-04,9.99999e-01
4.080602003e-01,5.06486e-04,9.99999e-01,9.99999e-01,9.99999e-01,5.06486e-04,9.99999e-01
4.101005013e-01,5.88383e-04,9.99999e-01,9.99999e-01,9.99999e-01,5.88383e-04,9.99999e-01
4.121510038e-01,6.81502e-04,9.99999e-01,9.99999e-01,9.99998e-01,6.81503e-04,9.99999e-01
4.142117588e-01,7.87068e-04,9.99999e-01,9.99999e-01,9.99994e-01,7.87072e-04,9.99999e-01
4.162828176e-01,9.06394e-04,9.99999e-01,9.99999e-01,9.99979e-01,9.06412e-04,9.99999e-01
4.183642317e-01,1.04093e-03,9.99999e-01,9.99999e-01,9.99987e-01,1.04094e-03,9.99999e-01
4.204560528e-01,1.19216e-03,9.99999e-01,9.99999e-01,9.99992e-01,1.19217e-03,9.99999e-01
4.225583331e-01,1.36172e-03,9.99999e-01,9.99999e-01,9.99996e-01,1.36172e-03,9.99999e-01
4.246711247e-01,1.55130e-03,9.99999e-01,9.99999e-01,9.99997e-01,1.55131e-03,9.99999e-01
4.267944804e-01,1.76274e-03,9.99999e-01,9.99999e-01,9.99996e-01,1.76274e-03,9.99999e-01
4.289284528e-01,1.99794e-03,9.99999e-01,9.99999e-01,9.99997e-01,1.99794e-03,9.99999e-01
4.310730950e-01,2.25893e-03,9.99999e-01,9.99999e-01,9.99998e-01,2.25893e-03,9.99999e-01
4.332284605e-01,2.54783e-03,9.99999e-01,9.99999e-01,9.99999e-01,2.54783e-03,9.99999e-01
4.353946028e-01,2.86685e-03,9.99999e-01,9.99999e-01,9.99999e-01,2.86685e-03,9.99999e-01
4.375715758e-01,3.21830e-03,9.99999e-01,9.99999e-01,9.99997e-01,3.21831e-03,9.99999e-01
4.397594337e-01,3.60454e-03,9.99999e-01,9.99999e-01,9.99981e-01,3.60461e-03,9.99999e-01
4.419582309e-01,4.02788e-03,9.99999e-01,9.99999e-01,9.99908e-01,4.02825e-03,9.99999e-01
4.441680220e-01,4.49150e-03,9.99999e-01,9.99999e-01,9.99930e-01,4.49180e-03,9.99999e-01
4.463888621e-01,4.99758e-03,9.99999e-01,9.99999e-01,9.99927e-01,4.99794e-03,9.99999e-01
4.486208064e-01,5.54915e-03,9.99999e-01,9.99999e-01,9.99954e-01,5.54940e-03,9.99999e-01
4.508639105e-01,6.14884e-03,9.99999e-01,9.99999e-01,9.99978e-01,6.14897e-03,9.99999e-01
4.531182300e-01,6.79948e-03,9.99999e-01,9.99999e-01,9.99991e-01,6.79953e-03,9.99999e-01
4.553838212e-01,7.50396e-03,9.99999e-01,9.99999e-01,9.99993e-01,7.50400e-03,9.99999e-01
4.576607403e-01,8.26533e-03,9.99999e-01,9.99999e-01,9.99996e-01,8.26535e-03,9.99999e-01
4.599490440e-01,9.08657e-03,9.99999e-01,9.99999e-01,9.99997e-01,9.08658e-03,9.99999e-01
4.622487892e-01,9.97073e-03,9.99999e-01,9.99999e-01,9.99999e-01,9.97074e-03,9.99999e-01
4.645600332e-01,1.09209e-02,9.99999e-01,9.99999e-01,9.99998e-01,1.09209e-02,9.99999e-01
4.668828333e-01,1.19398e-02,9.99999e-01,9.99999e-01,9.99978e-01,1.19401e-02,9.99999e-01
4.692172475e-01,1.30308e-02,9.99999e-01,9.99999e-01,9.99954e-01,1.30314e-02,9.99999e-01
4.715633337e-01,1.41975e-02,9.99999e-01,9.99999e-01,9.99969e-01,1.41979e-02,9.99999e-01
4.739211504e-01,1.54422e-02,9.99999e-01,9.99999e-01,9.99971e-01,1.54427e-02,9.99999e-01
4.762907561e-01,1.67685e-02,9.99999e-01,9.99999e-01,9.99984e-01,1.67687e-02,9.99999e-01
4.786722099e-01,1.81789e-02,9.99999e-01,9.99999e-01,9.99993e-01,1.81790e-02,9.99999e-01
4.810655710e-01,1.96765e-02,9.99999e-01,9.99999e-01,9.99997e-01,1.96765e-02,9.99999e-01
4.834708988e-01,2.12637e-02,9.99999e-01,9.99999e-01,9.99981e-01,2.12641e-02,9.99999e-01
4.858882533e-01,2.29438e-02,9.99999e-01,9.99999e-01,9.99967e-01,2.29446e-02,9.99999e-01
4.883176946e-01,2.47200e-02,9.99999e-01,9.99999e-01,9.99972e-01,2.47207e-02,9.99999e-01
4.907592831e-01,2.65944e-02,9.99999e-01,9.99999e-01,9.99975e-01,2.65951e-02,9.99999e-01
4.932130795e-01,2.85698e-02,9.99999e-01,9.99999e-01,9.99982e-01,2.85703e-02,9.99999e-01
4.956791449e-01,3.06486e-02,9.99999e-01,9.99999e-01,9.99990e-01,3.06489e-02,9.99999e-01
4.981575406e-01,3.28316e-02,9.99999e-01,9.99999e-01,9.99953e-01,3.28331e-02,9.99999e-01
5.006483283e-01,3.51210e-02,9.99999e-01,9.99999e-01,9.99879e-01,3.51252e-02,9.99999e-01
5.031515699e-01,3.75047e-02,9.99999e-01,9.99999e-01,9.99399e-01,3.75272e-02,9.99999e-01
5.056673278e-01,4.00285e-02,9.99999e-01,9.99999e-01,9.99684e-01,4.00411e-02,9.99999e-01
5.081956644e-01,4.26518e-02,9.99999e-01,9.99999e-01,9.99602e-01,4.26688e-02,9.99999e-01
5.107366428e-01,4.53996e-02,9.99999e-01,9.99999e-01,9.99731e-01,4.54118e-02,9.99999e-01
5.132903260e-01,4.82644e-02,9.99999e-01,9.99999e-01,9.99846e-01,4.82718e-02,9.99999e-01
5.158567776e-01,5.12466e-02,9.99999e-01,9.99999e-01,9.99935e-01,5.12499e-02,9.99999e-01
5.184360615e-01,5.43462e-02,9.99999e-01,9.99999e-01,9.99973e-01,5.43476e-02,9.99999e-01
5.210282418e-01,5.75651e-02,9.99999e-01,9.99999e-01,9.99989e-01,5.75657e-02,9.99999e-01
5.236333830e-01,6.09027e-02,9.99999e-01,9.99999e-01,9.99960e-01,6.09051e-02,9.99999e-01
5.262515499e-01,6.43649e-02,9.99999e-01,9.99999e-01,9.99975e-01,6.43664e-02,9.99999e-01
5.288828077e-01,6.79488e-02,9.99999e-01,9.99999e-01,9.99977e-01,6.79503e-02,9.99999e-01
5.315272217e-01,7.16556e-02,9.99999e-01,9.99999e-01,9.99979e-01,7.16570e-02,9.99999e-01
5.341848578e-01,7.54856e-02,9.99999e-01,9.99999e-01,9.99986e-01,7.54866e-02,9.99999e-01
5.368557821e-01,7.94355e-02,9.99999e-01,9.99999e-01,9.99953e-01,7.94392e-02,9.99999e-01
5.395400610e-01,8.35006e-02,9.99999e-01,9.99999e-01,9.99833e-01,8.35145e-02,9.99999e-01
5.422377613e-01,8.76936e-02,9.99999e-01,9.99999e-01,9.99788e-01,8.77121e-02,9.99999e-01
5.449489501e-01,9.20134e-02,9.99999e-01,9.99999e-01,9.99801e-01,9.20316e-02,9.99999e-01
5.476736949e-01,9.64553e-02,9.99999e-01,9.99999e-01,9.99826e-01,9.64721e-02,9.99999e-01
5.504120634e-01,1.01020e-01,9.99999e-01,9.99999e-01,9.99873e-01,1.01033e-01,9.99999e-01
5.531641237e-01,1.05706e-01,9.99999e-01,9.99999e-01,9.99936e-01,1.05713e-01,9.99999e-01
5.559299443e-01,1.10507e-01,9.99999e-01,9.99999e-01,9.99968e-01,1.10510e-01,9.99999e-01
5.587095940e-01,1.15422e-01,9.99999e-01,9.99999e-01,9.99980e-01,1.15424e-01,9.99999e-01
5.615031420e-01,1.20451e-01,9.99999e-01,9.99999e-01,9.99978e-01,1.20454e-01,9.99999e-01
5.643106577e-01,1.25593e-01,9.99999e-01,9.99999e-01,9.99974e-01,1.25596e-01,9.99999e-01
5.671322110e-01,1.30810e-01,9.99999e-01,9.99999e-01,9.99696e-01,1.30850e-01,9.99999e-01
5.699678720e-01,1.36171e-01,9.99999e-01,9.99999e-01,9.99688e-01,1.36213e-01,9.99999e-01
5.728177114e-01,1.41637e-01,9.99999e-01,9.99999e-01,9.99671e-01,1.41684e-01,9.99999e-01
5.756818000e-01,1.47215e-01,9.99999e-01,9.99999e-01,9.99698e-01,1.47260e-01,9.99999e-01
5.785602090e-01,1.52898e-01,9.99999e-01,9.99999e-01,9.99738e-01,1.52938e-01,9.99999e-01
5.814530100e-01,1.58675e-01,9.99999e-01,9.99999e-01,9.99736e-01,1.58717e-01,9.99999e-01
5.843602750e-01,1.64542e-01,9.99999e-01,9.99999e-01,9.99682e-01,1.64594e-01,9.99999e-01
5.872820764e-01,1.70100e-01,9.99999e-01,9.99999e-01,9.97270e-01,1.70566e-01,9.99999e-01
5.902184868e-01,1.76052e-01,9.99999e-01,9.99999e-01,9.96732e-01,1.76630e-01,9.99999e-01
5.931695792e-01,1.82359e-01,9.99999e-01,9.99999e-01,9.97681e-01,1.82783e-01,9.99999e-01
5.961354271e-01,1.88544e-01,9.99999e-01,9.99999e-01,9.97466e-01,1.89023e-01,9.99999e-01
5.991161043e-01,1.94986e-01,9.99999e-01,9.99999e-01,9.98154e-01,1.95346e-01,9.99999e-01
6.021116848e-01,2.01539e-01,9.99999e-01,9.99999e-01,9.98954e-01,2.01750e-01,9.99999e-01
6.051222432e-01,2.08121e-01,9.99999e-01,9.99999e-01,9.99470e-01,2.08231e-01,9.99999e-01
6.081478544e-01,2.14737e-01,9.99999e-01,9.99999e-01,9.99771e-01,2.14786e-01,9.99999e-01
6.111885937e-01,2.21390e-01,9.99999e-01,9.99999e-01,9.99903e-01,2.21411e-01,9.99999e-01
6.142445367e-01,2.28095e-01,9.99999e-01,9.99999e-01,9.99956e-01,2.28105e-01,9.99999e-01
6.173157594e-01,2.34856e-01,9.99999e-01,9.99999e-01,9.99975e-01,2.34862e-01,9.99999e-01
6.204023382e-01,2.41675e-01,9.99999e-01,9.99999e-01,9.99979e-01,2.41680e-01,9.99999e-01
6.235043498e-01,2.48533e-01,9.99999e-01,9.99999e-01,9.99908e-01,2.48555e-01,9.99999e-01
6.266218716e-01,2.55364e-01,9.99999e-01,9.99999e-01,9.99527e-01,2.55485e-01,9.99999e-01
6.297549810e-01,2.62419e-01,9.99999e-01,9.99999e-01,9.99826e-01,2.62465e-01,9.99999e-01
6.329037559e-01,2.69400e-01,9.99999e-01,9.99999e-01,9.99658e-01,2.69492e-01,9.99999e-01
6.360682746e-01,2.76482e-01,9.99999e-01,9.99999e-01,9.99707e-01,2.76563e-01,9.99999e-01
6.392486160e-01,2.83567e-01,9.99999e-01,9.99999e-01,9.99622e-01,2.83674e-01,9.99999e-01
6.424448591e-01,2.90674e-01,9.99999e-01,9.99999e-01,9.99489e-01,2.90822e-01,9.99999e-01
6.456570834e-01,2.97299e-01,9.99999e-01,9.99999e-01,9.97632e-01,2.98004e-01,9.99999e-01
6.488853688e-01,3.04695e-01,9.99999e-01,9.99999e-01,9.98290e-01,3.05216e-01,9.99999e-01
6.521297956e-01,3.11911e-01,9.99999e-01,9.99999e-01,9.98257e-01,3.12455e-01,9.99999e-01
6.553904446e-01,3.19161e-01,9.99999e-01,9.99999e-01,9.98255e-01,3.19718e-01,9.99999e-01
6.586673968e-01,3.26515e-01,9.99999e-01,9.99999e-01,9.98513e-01,3.27001e-01,9.99999e-01
6.619607338e-01,3.34025e-01,9.99999e-01,9.99999e-01,9.99171e-01,3.34301e-01,9.99999e-01
6.652705375e-01,3.41446e-01,9.99999e-01,9.99999e-01,9.99502e-01,3.41616e-01,9.99999e-01
6.685968902e-01,3.48867e-01,9.99999e-01,9.99999e-01,9.99788e-01,3.48941e-01,9.99999e-01
6.719398746e-01,3.56235e-01,9.99999e-01,9.99999e-01,9.99892e-01,3.56273e-01,9.99999e-01
6.752995740e-01,3.63590e-01,9.99999e-01,9.99999e-01,9.99943e-01,3.63611e-01,9.99999e-01
6.786760719e-01,3.70918e-01,9.99999e-01,9.99999e-01,9.99914e-01,3.70950e-01,9.99999e-01
6.820694522e-01,3.78233e-01,9.99999e-01,9.99999e-01,9.99854e-01,3.78288e-01,9.99999e-01
6.854797995e-01,3.85550e-01,9.99999e-01,9.99999e-01,9.99813e-01,3.85622e-01,9.99999e-01
6.889071985e-01,3.92768e-01,9.99999e-01,9.99999e-01,9.99541e-01,3.92948e-01,9.99999e-01
6.923517345e-01,3.97310e-01,9.99999e-01,9.99999e-01,9.92615e-01,4.00266e-01,9.99999e-01
6.958134932e-01,4.06044e-01,9.99999e-01,9.99999e-01,9.96253e-01,4.07571e-01,9.99999e-01
6.992925606e-01,4.13346e-01,9.99999e-01,9.99999e-01,9.96349e-01,4.14861e-01,9.99999e-01
7.027890234e-01,4.20251e-01,9.99999e-01,9.99999e-01,9.95538e-01,4.22134e-01,9.99999e-01
7.063029686e-01,4.27774e-01,9.99999e-01,9.99999e-01,9.96244e-01,4.29386e-01,9.99999e-01
7.098344834e-01,4.35044e-01,9.99999e-01,9.99999e-01,9.96397e-01,4.36617e-01,9.99999e-01
7.133836558e-01,4.41658e-01,9.99999e-01,9.99999e-01,9.95122e-01,4.43822e-01,9.99999e-01
7.169505741e-01,4.33684e-01,9.99999e-01,9.99999e-01,9.61602e-01,4.51001e-01,9.99999e-01
7.205353270e-01,4.49665e-01,9.99999e-01,9.99999e-01,9.81477e-01,4.58151e-01,9.99999e-01
7.241380036e-01,4.54132e-01,9.99999e-01,9.99999e-01,9.76061e-01,4.65269e-01,9.99998e-01
7.277586936e-01,4.62152e-01,9.99999e-01,9.99999e-01,9.78400e-01,4.72355e-01,9.99999e-01
7.313974871e-01,4.68496e-01,9.99999e-01,9.99999e-01,9.77245e-01,4.79404e-01,9.99999e-01
7.350544745e-01,4.80332e-01,9.99999e-01,9.99999e-01,9.87488e-01,4.86417e-01,9.99999e-01
7.387297469e-01,4.88848e-01,9.99999e-01,9.99999e-01,9.90791e-01,4.93391e-01,9.99999e-01
7.424233956e-01,4.98073e-01,9.99999e-01,9.99999e-01,9.95499e-01,5.00324e-01,9.99999e-01
7.461355126e-01,5.05828e-01,9.99999e-01,9.99999e-01,9.97265e-01,5.07215e-01,9.99999e-01
7.498661902e-01,5.13410e-01,9.99999e-01,9.99999e-01,9.98730e-01,5.14062e-01,9.99999e-01
7.536155211e-01,5.20538e-01,9.99999e-01,9.99999e-01,9.99374e-01,5.20863e-01,9.99999e-01
7.573835987e-01,5.27448e-01,9.99999e-01,9.99999e-01,9.99678e-01,5.27617e-01,9.99999e-01
7.611705167e-01,5.34216e-01,9.99999e-01,9.99999e-01,9.99799e-01,5.34323e-01,9.99999e-01
7.649763693e-01,5.40911e-01,9.99999e-01,9.99999e-01,9.99874e-01,5.40979e-01,9.99999e-01
7.688012511e-01,5.47536e-01,9.99999e-01,9.99999e-01,9.99912e-01,5.47584e-01,9.99999e-01
7.726452574e-01,5.54097e-01,9.99999e-01,9.99999e-01,9.99927e-01,5.54137e-01,9.99999e-01
7.765084837e-01,5.60578e-01,9.99999e-01,9.99999e-01,9.99896e-01,5.60636e-01,9.99999e-01
7.803910261e-01,5.50515e-01,9.99999e-01,9.71210e-01,9.99551e-01,5.67081e-01,9.99999e-01
7.842929812e-01,5.07952e-01,9.99999e-01,8.87083e-01,9.98436e-01,5.73471e-01,9.99999e-01
7.882144461e-01,5.07741e-01,9.99999e-01,8.78419e-01,9.96815e-01,5.79804e-01,9.99999e-01
7.921555184e-01,5.42707e-01,9.99999e-01,9.27574e-01,9.98264e-01,5.86080e-01,9.99999e-01
7.961162960e-01,5.61803e-01,9.99999e-01,9.51452e-01,9.96888e-01,5.92298e-01,9.99999e-01
8.000968774e-01,5.80420e-01,9.99999e-01,9.73321e-01,9.96434e-01,5.98458e-01,9.99999e-01
8.040973618e-01,5.94065e-01,9.99999e-01,9.86162e-01,9.96426e-01,6.04557e-01,9.99999e-01
8.081178486e-01,6.01773e-01,9.99999e-01,9.93594e-01,9.91892e-01,6.10597e-01,9.99999e-01
8.121584379e-01,5.94856e-01,9.99999e-01,9.98043e-01,9.66648e-01,6.16576e-01,9.99999e-01
8.162192301e-01,5.97957e-01,9.99999e-01,9.99567e-01,9.60993e-01,6.22493e-01,9.99998e-01
8.203003262e-01,6.15702e-01,9.99999e-01,9.99993e-01,9.79877e-01,6.28349e-01,9.99998e-01
8.244018279e-01,6.16911e-01,9.99999e-01,9.99999e-01,9.72826e-01,6.34143e-01,9.99998e-01
8.285238370e-01,6.24760e-01,9.99999e-01,9.99999e-01,9.76379e-01,6.39874e-01,9.99999e-01
8.326664562e-01,6.30204e-01,9.99999e-01,9.99999e-01,9.76239e-01,6.45542e-01,9.99999e-01
8.368297885e-01,6.40097e-01,9.99999e-01,9.99999e-01,9.83029e-01,6.51147e-01,9.99999e-01
8.410139374e-01,6.50052e-01,9.99999e-01,9.99999e-01,9.89893e-01,6.56688e-01,9.99999e-01
8.452190071e-01,6.58884e-01,9.99999e-01,9.99999e-01,9.95042e-01,6.62166e-01,9.99999e-01
8.494451021e-01,6.65650e-01,9.99999e-01,9.99999e-01,9.97108e-01,6.67580e-01,9.99999e-01
8.536923276e-01,6.71784e-01,9.99999e-01,9.99999e-01,9.98296e-01,6.72930e-01,9.99999e-01
8.579607893e-01,6.77502e-01,9.99999e-01,9.99999e-01,9.98946e-01,6.78216e-01,9.99999e-01
8.622505932e-01,6.82981e-01,9.99999e-01,9.99999e-01,9.99332e-01,6.83437e-01,9.99999e-01
8.665618462e-01,6.41901e-01,9.99999e-01,9.32562e-01,9.99585e-01,6.88595e-01,9.99999e-01
8.708946554e-01,5.09487e-01,9.99999e-01,7.34800e-01,9.99523e-01,6.93688e-01,9.99999e-01
8.752491287e-01,5.46109e-01,9.99999e-01,7.82072e-01,9.99363e-01,6.98718e-01,9.99999e-01
8.796253743e-01,6.14725e-01,9.99999e-01,8.74336e-01,9.99115e-01,7.03683e-01,9.99999e-01
8.840235012e-01,6.60357e-01,9.99999e-01,9.32866e-01,9.98990e-01,7.08585e-01,9.99999e-01
8.884436187e-01,6.91661e-01,9.99999e-01,9.73133e-01,9.96232e-01,7.13423e-01,9.99999e-01
8.928858368e-01,6.83043e-01,9.99999e-01,9.89014e-01,9.61541e-01,7.18197e-01,9.99998e-01
8.973502660e-01,6.73188e-01,9.99999e-01,9.97339e-01,9.33666e-01,7.22908e-01,9.99998e-01
9.018370173e-01,7.02552e-01,9.99999e-01,9.99707e-01,9.65907e-01,7.27556e-01,9.99998e-01
9.063462024e-01,7.04274e-01,9.99999e-01,9.92165e-01,9.69344e-01,7.32142e-01,9.99998e-01
9.108779334e-01,6.89904e-01,9.99999e-01,9.82657e-01,9.52890e-01,7.36664e-01,9.99998e-01
9.154323231e-01,6.98920e-01,9.99999e-01,9.95960e-01,9.46813e-01,7.41125e-01,9.99998e-01
9.200094847e-01,6.72715e-01,9.99999e-01,9.39987e-01,9.58211e-01,7.45524e-01,9.99997e-01
9.246095321e-01,6.43177e-01,9.99999e-01,9.17765e-01,9.33374e-01,7.49861e-01,9.99996e-01
9.292325798e-01,4.49744e-01,9.99999e-01,9.33976e-01,6.34614e-01,7.54137e-01,9.99992e-01
9.338787427e-01,3.99955e-01,9.99999e-01,9.36994e-01,5.59651e-01,7.58352e-01,9.99991e-01
9.385481364e-01,5.76951e-01,9.99999e-01,9.53312e-01,7.91930e-01,7.62506e-01,9.99991e-01
9.432408771e-01,5.36085e-01,9.99999e-01,9.71260e-01,7.19038e-01,7.66601e-01,9.99990e-01
9.479570815e-01,4.81423e-01,9.99999e-01,9.85118e-01,6.33702e-01,7.70636e-01,9.99991e-01
9.526968669e-01,5.49138e-01,9.99999e-01,9.92816e-01,7.13676e-01,7.74613e-01,9.99993e-01
9.574603512e-01,5.69625e-01,9.99999e-01,9.96926e-01,7.33803e-01,7.78530e-01,9.99994e-01
9.622476530e-01,6.08394e-01,9.99999e-01,9.99042e-01,7.78322e-01,7.82389e-01,9.99996e-01
9.670588912e-01,6.80126e-01,9.99999e-01,9.99713e-01,8.65329e-01,7.86191e-01,9.99997e-01
9.718941857e-01,7.21630e-01,9.99999e-01,9.99979e-01,9.13547e-01,7.89936e-01,9.99998e-01
9.767536566e-01,7.36225e-01,9.99999e-01,9.99999e-01,9.27675e-01,7.93623e-01,9.99998e-01
9.816374249e-01,7.54270e-01,9.99999e-01,9.99999e-01,9.46083e-01,7.97255e-01,9.99998e-01
9.865456120e-01,7.73595e-01,9.99999e-01,9.99999e-01,9.65990e-01,8.00831e-01,9.99999e-01
9.914783401e-01,7.87328e-01,9.99999e-01,9.99999e-01,9.78834e-01,8.04352e-01,9.99999e-01
9.964357318e-01,7.98467e-01,9.99999e-01,9.99999e-01,9.88422e-01,8.07819e-01,9.99999e-01
1.001417910e+00,8.05595e-01,9.99999e-01,9.99999e-01,9.93052e-01,8.11231e-01,9.99999e-01
1.006425000e+00,8.11351e-01,9.99999e-01,9.99999e-01,9.96023e-01,8.14591e-01,9.99999e-01
1.011457125e+00,8.15884e-01,9.99999e-01,9.99999e-01,9.97537e-01,8.17897e-01,9.99999e-01
1.016514411e+00,8.19776e-01,9.99999e-01,9.99999e-01,9.98325e-01,8.21151e-01,9.99999e-01
1.021596983e+00,8.23213e-01,9.99999e-01,9.99951e-01,9.98664e-01,8.24353e-01,9.99999e-01
1.026704968e+00,8.24103e-01,9.99999e-01,9.96927e-01,9.98957e-01,8.27504e-01,9.99999e-01
1.031838492e+00,7.95516e-01,9.99999e-01,9.58457e-01,9.99243e-01,8.30605e-01,9.99999e-01
1.036997685e+00,1.54870e-01,9.99999e-01,1.85840e-01,9.99549e-01,8.33656e-01,9.99999e-01
1.042182673e+00,1.51840e-01,9.99999e-01,1.81573e-01,9.99460e-01,8.36657e-01,9.99999e-01
1.047393587e+00,1.59525e-01,9.99999e-01,1.90120e-01,9.99286e-01,8.39609e-01,9.99999e-01
1.052630555e+00,8.54676e-03,9.99999e-01,1.01518e-02,9.99019e-01,8.42513e-01,9.99999e-01
1.057893707e+00,1.99549e-02,9.99999e-01,2.36326e-02,9.98360e-01,8.45370e-01,9.99999e-01
1.063183176e+00,5.41440e-02,9.99999e-01,6.39643e-02,9.97305e-01,8.48180e-01,9.99999e-01
1.068499092e+00,1.27872e-01,9.99999e-01,1.50858e-01,9.95499e-01,8.50943e-01,9.99999e-01
1.073841587e+00,2.58737e-01,9.99999e-01,3.04499e-01,9.94720e-01,8.53660e-01,9.99999e-01
1.079210795e+00,4.00910e-01,9.99999e-01,4.71116e-01,9.93268e-01,8.56332e-01,9.99999e-01
1.084606849e+00,5.63284e-01,9.99999e-01,6.62283e-01,9.89801e-01,8.58960e-01,9.99999e-01
1.090029883e+00,6.85522e-01,9.99999e-01,8.07334e-01,9.85255e-01,8.61543e-01,9.99998e-01
1.095480033e+00,7.47289e-01,9.99999e-01,9.00148e-01,9.60438e-01,8.64083e-01,9.99998e-01
1.100957433e+00,7.43715e-01,9.99999e-01,9.50574e-01,9.02461e-01,8.66580e-01,9.99997e-01
1.106462220e+00,6.55273e-01,9.99999e-01,9.79305e-01,7.69484e-01,8.69035e-01,9.99995e-01
1.111994531e+00,5.00330e-01,9.99999e-01,9.92279e-01,5.78342e-01,8.71447e-01,9.99991e-01
1.117554504e+00,3.60055e-01,9.99999e-01,9.98122e-01,4.12707e-01,8.73819e-01,9.99988e-01
1.123142276e+00,4.58093e-01,9.99999e-01,9.99877e-01,5.22889e-01,8.76150e-01,9.99986e-01
1.128757988e+00,5.78725e-01,9.99999e-01,9.99999e-01,6.58818e-01,8.78441e-01,9.99985e-01
1.134401778e+00,3.54368e-01,9.99999e-01,9.99999e-01,4.02380e-01,8.80693e-01,9.99984e-01
1.140073787e+00,6.88283e-01,9.99999e-01,9.99999e-01,7.79575e-01,8.82906e-01,9.99987e-01
1.145774156e+00,5.27530e-01,9.99999e-01,9.99999e-01,5.96030e-01,8.85081e-01,9.99988e-01
1.151503026e+00,4.97869e-01,9.99999e-01,9.99999e-01,5.61162e-01,8.87217e-01,9.99990e-01
1.157260541e+00,5.49962e-01,9.99999e-01,9.99999e-01,6.18413e-01,8.89317e-01,9.99992e-01
1.163046844e+00,6.25566e-01,9.99999e-01,9.99999e-01,7.01798e-01,8.91380e-01,9.99995e-01
1.168862078e+00,6.98797e-01,9.99999e-01,9.99999e-01,7.82172e-01,8.93407e-01,9.99997e-01
1.174706389e+00,7.69400e-01,9.99999e-01,9.99999e-01,8.59283e-01,8.95398e-01,9.99998e-01
1.180579921e+00,8.18257e-01,9.99999e-01,9.99999e-01,9.11855e-01,8.97354e-01,9.99998e-01
1.186482820e+00,8.53565e-01,9.99999e-01,9.99992e-01,9.49176e-01,8.99276e-01,9.99998e-01
1.192415234e+00,8.64565e-01,9.99999e-01,9.88966e-01,9.69995e-01,9.01164e-01,9.99998e-01
1.198377311e+00,5.00549e-01,9.99999e-01,5.66358e-01,9.74596e-01,9.03018e-01,9.99999e-01
1.204369197e+00,2.20043e-09,9.99999e-01,2.46624e-09,9.75965e-01,9.04839e-01,9.99999e-01
1.210391043e+00,7.02582e-33,9.99999e-01,7.85007e-33,9.77014e-01,9.06628e-01,9.99999e-01
1.216442998e+00,1.11785e-28,9.99999e-01,1.24574e-28,9.80465e-01,9.08385e-01,9.99999e-01
1.222525213e+00,2.86497e-28,9.99999e-01,3.17300e-28,9.84746e-01,9.10111e-01,9.99999e-01
1.228637839e+00,7.06399e-22,9.99999e-01,7.80525e-22,9.89376e-01,9.11806e-01,9.99999e-01
