#,Wave/freq,Total,O2,CO2,H2O,Rayleigh,CIA
4.000000000e-01,2.86390e-22,9.99999e-01,9.99999e-01,9.99902e-01,2.86418e-22,9.99999e-01
4.020000000e-01,7.63712e-22,9.99999e-01,9.99999e-01,9.99939e-01,7.63758e-22,9.99999e-01
4.040100000e-01,1.99553e-21,9.99999e-01,9.99999e-01,9.99974e-01,1.99558e-21,9.99999e-01
4.060300500e-01,5.11614e-21,9.99999e-01,9.99999e-01,9.99993e-01,5.11617e-21,9.99999e-01
4.080602003e-01,1.28749e-20,9.99999e-01,9.99999e-01,9.99997e-01,1.28749e-20,9.99999e-01
4.101005013e-01,3.18145e-20,9.99999e-01,9.99999e-01,9.99999e-01,3.18145e-20,9.99999e-01
4.121510038e-01,7.72227e-20,9.99999e-01,9.99999e-01,9.99995e-01,7.72230e-20,9.99999e-01
4.142117588e-01,1.84183e-19,9.99999e-01,9.99999e-01,9.99972e-01,1.84188e-19,9.99999e-01
4.162828176e-01,4.31784e-19,9.99999e-01,9.99999e-01,9.99879e-01,4.31836e-19,9.99999e-01
4.183642317e-01,9.95487e-19,9.99999e-01,9.99999e-01,9.99928e-01,9.95558e-19,9.99999e-01
4.204560528e-01,2.25751e-18,9.99999e-01,9.99999e-01,9.99955e-01,2.25761e-18,9.99999e-01
4.225583331e-01,5.03734e-18,9.99999e-01,9.99999e-01,9.99983e-01,5.03742e-18,9.99999e-01
4.246711247e-01,1.10631e-17,9.99999e-01,9.99999e-01,9.99986e-01,1.10632e-17,9.99999e-01
4.267944804e-01,2.39221e-17,9.99999e-01,9.99999e-01,9.99980e-01,2.39226e-17,9.99999e-01
4.289284528e-01,5.09461e-17,9.99999e-01,9.99999e-01,9.99984e-01,5.09469e-17,9.99999e-01
4.310730950e-01,1.06891e-16,9.99999e-01,9.99999e-01,9.99993e-01,1.06891e-16,9.99999e-01
4.332284605e-01,2.21009e-16,9.99999e-01,9.99999e-01,9.99997e-01,2.21009e-16,9.99999e-01
4.353946028e-01,4.50450e-16,9.99999e-01,9.99999e-01,9.99998e-01,4.50451e-16,9.99999e-01
4.375715758e-01,9.05254e-16,9.99999e-01,9.99999e-01,9.99987e-01,9.05265e-16,9.99999e-01
4.397594337e-01,1.79420e-15,9.99999e-01,9.99999e-01,9.99892e-01,1.79439e-15,9.99999e-01
4.419582309e-01,3.50713e-15,9.99999e-01,9.99999e-01,9.99455e-01,3.50904e-15,9.99999e-01
4.441680220e-01,6.76903e-15,9.99999e-01,9.99999e-01,9.99584e-01,6.77184e-15,9.99999e-01
4.463888621e-01,1.28943e-14,9.99999e-01,9.99999e-01,9.99564e-01,1.28999e-14,9.99999e-01
4.486208064e-01,2.42560e-14,9.99999e-01,9.99999e-01,9.99730e-01,2.42625e-14,9.99999e-01
4.508639105e-01,4.50622e-14,9.99999e-01,9.99999e-01,9.99873e-01,4.50678e-14,9.99999e-01
4.531182300e-01,8.26922e-14,9.99999e-01,9.99999e-01,9.99949e-01,8.26963e-14,9.99999e-01
4.553838212e-01,1.49928e-13,9.99999e-01,9.99999e-01,9.99965e-01,1.49933e-13,9.99999e-01
4.576607403e-01,2.68658e-13,9.99999e-01,9.99999e-01,9.99983e-01,2.68662e-13,9.99999e-01
4.599490440e-01,4.75889e-13,9.99999e-01,9.99999e-01,9.99988e-01,4.75894e-13,9.99999e-01
4.622487892e-01,8.33507e-13,9.99999e-01,9.99999e-01,9.99997e-01,8.33508e-13,9.99999e-01
4.645600332e-01,1.44377e-12,9.99999e-01,9.99999e-01,9.99991e-01,1.44378e-12,9.99999e-01
4.668828333e-01,2.47358e-12,9.99999e-01,9.99999e-01,9.99870e-01,2.47389e-12,9.99999e-01
4.692172475e-01,4.19297e-12,9.99999e-01,9.99999e-01,9.99726e-01,4.19412e-12,9.99999e-01
4.715633337e-01,7.03548e-12,9.99999e-01,9.99999e-01,9.99820e-01,7.03674e-12,9.99999e-01
4.739211504e-01,1.16840e-11,9.99999e-01,9.99999e-01,9.99829e-01,1.16859e-11,9.99999e-01
4.762907561e-01,1.92117e-11,9.99999e-01,9.99999e-01,9.99911e-01,1.92134e-11,9.99999e-01
4.786722099e-01,3.12798e-11,9.99999e-01,9.99999e-01,9.99963e-01,3.12809e-11,9.99999e-01
4.810655710e-01,5.04393e-11,9.99999e-01,9.99999e-01,9.99988e-01,5.04399e-11,9.99999e-01
4.834708988e-01,8.05607e-11,9.99999e-01,9.99999e-01,9.99892e-01,8.05693e-11,9.99999e-01
4.858882533e-01,1.27486e-10,9.99999e-01,9.99999e-01,9.99806e-01,1.27511e-10,9.99999e-01
4.883176946e-01,1.99948e-10,9.99999e-01,9.99999e-01,9.99837e-01,1.99981e-10,9.99999e-01
4.907592831e-01,3.10816e-10,9.99999e-01,9.99999e-01,9.99853e-01,3.10862e-10,9.99999e-01
4.932130795e-01,4.78980e-10,9.99999e-01,9.99999e-01,9.99895e-01,4.79030e-10,9.99999e-01
4.956791449e-01,7.31855e-10,9.99999e-01,9.99999e-01,9.99944e-01,7.31895e-10,9.99999e-01
4.981575406e-01,1.10861e-09,9.99999e-01,9.99999e-01,9.99723e-01,1.10892e-09,9.99999e-01
5.006483283e-01,1.66522e-09,9.99999e-01,9.99999e-01,9.99280e-01,1.66642e-09,9.99999e-01
5.031515699e-01,2.47517e-09,9.99999e-01,9.99999e-01,9.96388e-01,2.48414e-09,9.99999e-01
5.056673278e-01,3.66704e-09,9.99999e-01,9.99999e-01,9.98099e-01,3.67402e-09,9.99999e-01
5.081956644e-01,5.37910e-09,9.99999e-01,9.99999e-01,9.97603e-01,5.39202e-09,9.99999e-01
5.107366428e-01,7.84092e-09,9.99999e-01,9.99999e-01,9.98382e-01,7.85362e-09,9.99999e-01
5.132903260e-01,1.13439e-08,9.99999e-01,9.99999e-01,9.99076e-01,1.13543e-08,9.99999e-01
5.158567776e-01,1.62901e-08,9.99999e-01,9.99999e-01,9.99610e-01,1.62964e-08,9.99999e-01
5.184360615e-01,2.32196e-08,9.99999e-01,9.99999e-01,9.99843e-01,2.32232e-08,9.99999e-01
5.210282418e-01,3.28616e-08,9.99999e-01,9.99999e-01,9.99940e-01,3.28636e-08,9.99999e-01
5.236333830e-01,4.61770e-08,9.99999e-01,9.99999e-01,9.99764e-01,4.61879e-08,9.99999e-01
5.262515499e-01,6.44701e-08,9.99999e-01,9.99999e-01,9.99852e-01,6.44795e-08,9.99999e-01
5.288828077e-01,8.94118e-08,9.99999e-01,9.99999e-01,9.99863e-01,8.94239e-08,9.99999e-01
5.315272217e-01,1.23205e-07,9.99999e-01,9.99999e-01,9.99881e-01,1.23220e-07,9.99999e-01
5.341848578e-01,1.68703e-07,9.99999e-01,9.99999e-01,9.99921e-01,1.68716e-07,9.99999e-01
5.368557821e-01,2.29518e-07,9.99999e-01,9.99999e-01,9.99724e-01,2.29581e-07,9.99999e-01
5.395400610e-01,3.10199e-07,9.99999e-01,9.99999e-01,9.98999e-01,3.10509e-07,9.99999e-01
5.422377613e-01,4.16936e-07,9.99999e-01,9.99999e-01,9.98726e-01,4.17467e-07,9.99999e-01
5.449489501e-01,5.57330e-07,9.99999e-01,9.99999e-01,9.98806e-01,5.57995e-07,9.99999e-01
5.476736949e-01,7.40790e-07,9.99999e-01,9.99999e-01,9.98952e-01,7.41567e-07,9.99999e-01
5.504120634e-01,9.79263e-07,9.99999e-01,9.99999e-01,9.99238e-01,9.80009e-07,9.99999e-01
5.531641237e-01,1.28751e-06,9.99999e-01,9.99999e-01,9.99616e-01,1.28801e-06,9.99999e-01
5.559299443e-01,1.68338e-06,9.99999e-01,9.99999e-01,9.99815e-01,1.68369e-06,9.99999e-01
5.587095940e-01,2.18906e-06,9.99999e-01,9.99999e-01,9.99883e-01,2.18931e-06,9.99999e-01
5.615031420e-01,2.83168e-06,9.99999e-01,9.99999e-01,9.99870e-01,2.83205e-06,9.99999e-01
5.643106577e-01,3.64435e-06,9.99999e-01,9.99999e-01,9.99850e-01,3.64489e-06,9.99999e-01
5.671322110e-01,4.65925e-06,9.99999e-01,9.99999e-01,9.98183e-01,4.66772e-06,9.99999e-01
5.699678720e-01,5.93727e-06,9.99999e-01,9.99999e-01,9.98120e-01,5.94845e-06,9.99999e-01
5.728177114e-01,7.52942e-06,9.99999e-01,9.99999e-01,9.98019e-01,7.54435e-06,9.99999e-01
5.756818000e-01,9.50635e-06,9.99999e-01,9.99999e-01,9.98186e-01,9.52361e-06,9.99999e-01
5.785602090e-01,1.19481e-05,9.99999e-01,9.99999e-01,9.98422e-01,1.19669e-05,9.99999e-01
5.814530100e-01,1.49456e-05,9.99999e-01,9.99999e-01,9.98411e-01,1.49694e-05,9.99999e-01
5.843602750e-01,1.86071e-05,9.99999e-01,9.99999e-01,9.98093e-01,1.86426e-05,9.99999e-01
5.872820764e-01,2.27405e-05,9.99999e-01,9.99999e-01,9.83725e-01,2.31167e-05,9.99999e-01
5.902184868e-01,2.79849e-05,9.99999e-01,9.99999e-01,9.80448e-01,2.85430e-05,9.99999e-01
5.931695792e-01,3.46097e-05,9.99999e-01,9.99999e-01,9.86127e-01,3.50966e-05,9.99999e-01
5.961354271e-01,4.23267e-05,9.99999e-01,9.99999e-01,9.84821e-01,4.29791e-05,9.99999e-01
5.991161043e-01,5.18406e-05,9.99999e-01,9.99999e-01,9.88915e-01,5.24217e-05,9.99999e-01
6.021116848e-01,6.32875e-05,9.99999e-01,9.99999e-01,9.93702e-01,6.36885e-05,9.99999e-01
6.051222432e-01,7.68341e-05,9.99999e-01,9.99999e-01,9.96810e-01,7.70799e-05,9.99999e-01
6.081478544e-01,9.28080e-05,9.99999e-01,9.99999e-01,9.98621e-01,9.29361e-05,9.99999e-01
6.111885937e-01,1.11576e-04,9.99999e-01,9.99999e-01,9.99418e-01,1.11641e-04,9.99999e-01
6.142445367e-01,1.33590e-04,9.99999e-01,9.99999e-01,9.99739e-01,1.33625e-04,9.99999e-01
6.173157594e-01,1.59349e-04,9.99999e-01,9.99999e-01,9.99855e-01,1.59372e-04,9.99999e-01
6.204023382e-01,1.89396e-04,9.99999e-01,9.99999e-01,9.99877e-01,1.89419e-04,9.99999e-01
6.235043498e-01,2.24241e-04,9.99999e-01,9.99999e-01,9.99453e-01,2.24364e-04,9.99999e-01
6.266218716e-01,2.64116e-04,9.99999e-01,9.99999e-01,9.97157e-01,2.64869e-04,9.99999e-01
6.297549810e-01,3.11338e-04,9.99999e-01,9.99999e-01,9.98956e-01,3.11663e-04,9.99999e-01
6.329037559e-01,3.64796e-04,9.99999e-01,9.99999e-01,9.97944e-01,3.65547e-04,9.99999e-01
6.360682746e-01,4.26648e-04,9.99999e-01,9.99999e-01,9.98241e-01,4.27399e-04,9.99999e-01
6.392486160e-01,4.97044e-04,9.99999e-01,9.99999e-01,9.97726e-01,4.98176e-04,9.99999e-01
6.424448591e-01,5.77144e-04,9.99999e-01,9.99999e-01,9.96933e-01,5.78919e-04,9.99999e-01
6.456570834e-01,6.61263e-04,9.99999e-01,9.99999e-01,9.85848e-01,6.70755e-04,9.99999e-01
6.488853688e-01,7.66952e-04,9.99999e-01,9.99999e-01,9.89739e-01,7.74903e-04,9.99999e-01
6.521297956e-01,8.83344e-04,9.99999e-01,9.99999e-01,9.89548e-01,8.92673e-04,9.99999e-01
6.553904446e-01,1.01474e-03,9.99999e-01,9.99999e-01,9.89530e-01,1.02547e-03,9.99999e-01
6.586673968e-01,1.16431e-03,9.99999e-01,9.99999e-01,9.91070e-01,1.17480e-03,9.99999e-01
6.619607338e-01,1.33558e-03,9.99999e-01,9.99999e-01,9.95013e-01,1.34227e-03,9.99999e-01
6.652705375e-01,1.52500e-03,9.99999e-01,9.99999e-01,9.97004e-01,1.52958e-03,9.99999e-01
6.685968902e-01,1.73633e-03,9.99999e-01,9.99999e-01,9.98726e-01,1.73854e-03,9.99999e-01
6.719398746e-01,1.96978e-03,9.99999e-01,9.99999e-01,9.99354e-01,1.97105e-03,9.99999e-01
6.752995740e-01,2.22837e-03,9.99999e-01,9.99999e-01,9.99658e-01,2.22913e-03,9.99999e-01
6.786760719e-01,2.51359e-03,9.99999e-01,9.99999e-01,9.99489e-01,2.51487e-03,9.99999e-01
6.820694522e-01,2.82801e-03,9.99999e-01,9.99999e-01,9.99122e-01,2.83049e-03,9.99999e-01
6.854797995e-01,3.17473e-03,9.99999e-01,9.99999e-01,9.98878e-01,3.17829e-03,9.99999e-01
6.889071985e-01,3.55088e-03,9.99999e-01,9.99999e-01,9.97250e-01,3.56067e-03,9.99999e-01
6.923517345e-01,3.80705e-03,9.99999e-01,9.99999e-01,9.56520e-01,3.98011e-03,9.99999e-01
6.958134932e-01,4.33994e-03,9.99999e-01,9.99999e-01,9.77643e-01,4.43918e-03,9.99998e-01
6.992925606e-01,4.83313e-03,9.99999e-01,9.99999e-01,9.78258e-01,4.94054e-03,9.99998e-01
7.027890234e-01,5.34111e-03,9.99999e-01,9.99999e-01,9.73427e-01,5.48691e-03,9.99998e-01
7.063029686e-01,5.94471e-03,9.99999e-01,9.99999e-01,9.77571e-01,6.08110e-03,9.99999e-01
7.098344834e-01,6.58110e-03,9.99999e-01,9.99999e-01,9.78463e-01,6.72595e-03,9.99998e-01
7.133836558e-01,7.21011e-03,9.99999e-01,9.99999e-01,9.71138e-01,7.42439e-03,9.99998e-01
7.169505741e-01,6.50075e-03,9.99999e-01,9.99999e-01,7.94774e-01,8.17939e-03,9.99996e-01
7.205353270e-01,8.04773e-03,9.99999e-01,9.99999e-01,8.94797e-01,8.99393e-03,9.99996e-01
7.241380036e-01,8.54891e-03,9.99999e-01,9.99999e-01,8.66059e-01,9.87107e-03,9.99996e-01
7.277586936e-01,9.49981e-03,9.99999e-01,9.99999e-01,8.78486e-01,1.08139e-02,9.99996e-01
7.313974871e-01,1.03049e-02,9.99999e-01,9.99999e-01,8.71426e-01,1.18254e-02,9.99997e-01
7.350544745e-01,1.19694e-02,9.99999e-01,9.99999e-01,9.27240e-01,1.29087e-02,9.99998e-01
7.387297469e-01,1.33048e-02,9.99999e-01,9.99999e-01,9.45826e-01,1.40668e-02,9.99998e-01
7.424233956e-01,1.48919e-02,9.99999e-01,9.99999e-01,9.73142e-01,1.53029e-02,9.99999e-01
7.461355126e-01,1.63475e-02,9.99999e-01,9.99999e-01,9.83607e-01,1.66199e-02,9.99999e-01
7.498661902e-01,1.78831e-02,9.99999e-01,9.99999e-01,9.92356e-01,1.80209e-02,9.99999e-01
7.536155211e-01,1.94352e-02,9.99999e-01,9.99999e-01,9.96232e-01,1.95087e-02,9.99999e-01
7.573835987e-01,2.10454e-02,9.99999e-01,9.99999e-01,9.98059e-01,2.10863e-02,9.99999e-01
7.611705167e-01,2.27291e-02,9.99999e-01,9.99999e-01,9.98793e-01,2.27565e-02,9.99999e-01
7.649763693e-01,2.45035e-02,9.99999e-01,9.99999e-01,9.99242e-01,2.45221e-02,9.99999e-01
7.688012511e-01,2.63717e-02,9.99999e-01,9.99999e-01,9.99471e-01,2.63856e-02,9.99999e-01
7.726452574e-01,2.83374e-02,9.99999e-01,9.99999e-01,9.99564e-01,2.83497e-02,9.99999e-01
7.765084837e-01,3.03980e-02,9.99999e-01,9.99999e-01,9.99377e-01,3.04169e-02,9.99999e-01
7.803910261e-01,2.85506e-02,9.99999e-01,8.78175e-01,9.97308e-01,3.25895e-02,9.99999e-01
7.842929812e-01,1.79253e-02,9.99999e-01,5.18139e-01,9.90636e-01,3.48697e-02,9.99999e-01
7.882144461e-01,1.83516e-02,9.99999e-01,5.00793e-01,9.80958e-01,3.72596e-02,9.99999e-01
7.921555184e-01,2.53898e-02,9.99999e-01,6.44649e-01,9.89572e-01,3.97612e-02,9.99999e-01
7.961162960e-01,3.09019e-02,9.99999e-01,7.42477e-01,9.81438e-01,4.23764e-02,9.99999e-01
8.000968774e-01,3.75504e-02,9.99999e-01,8.50372e-01,9.78685e-01,4.51067e-02,9.99999e-01
8.040973618e-01,4.31616e-02,9.99999e-01,9.19515e-01,9.78657e-01,4.79538e-02,9.99998e-01
8.081178486e-01,4.66675e-02,9.99999e-01,9.61997e-01,9.52406e-01,5.09191e-02,9.99998e-01
8.121584379e-01,4.36784e-02,9.99999e-01,9.88225e-01,8.18011e-01,5.40036e-02,9.99997e-01
8.162192301e-01,4.51091e-02,9.99999e-01,9.97385e-01,7.90399e-01,5.72085e-02,9.99996e-01
8.203003262e-01,5.39039e-02,9.99999e-01,9.99964e-01,8.90485e-01,6.05346e-02,9.99995e-01
8.244018279e-01,5.47263e-02,9.99999e-01,9.99999e-01,8.55333e-01,6.39826e-02,9.99995e-01
8.285238370e-01,5.85884e-02,9.99999e-01,9.99999e-01,8.67295e-01,6.75531e-02,9.99996e-01
8.326664562e-01,6.17547e-02,9.99999e-01,9.99999e-01,8.66778e-01,7.12464e-02,9.99997e-01
8.368297885e-01,6.77333e-02,9.99999e-01,9.99999e-01,9.02358e-01,7.50626e-02,9.99998e-01
8.410139374e-01,7.43164e-02,9.99999e-01,9.99999e-01,9.40692e-01,7.90018e-02,9.99999e-01
8.452190071e-01,8.06099e-02,9.99999e-01,9.99999e-01,9.70459e-01,8.30637e-02,9.99999e-01
8.494451021e-01,8.57369e-02,9.99999e-01,9.99999e-01,9.82680e-01,8.72480e-02,9.99999e-01
8.536923276e-01,9.06164e-02,9.99999e-01,9.99999e-01,9.89756e-01,9.15542e-02,9.99999e-01
8.579607893e-01,9.53732e-02,9.99999e-01,9.99999e-01,9.93661e-01,9.59815e-02,9.99999e-01
8.622505932e-01,1.00125e-01,9.99999e-01,9.99999e-01,9.95978e-01,1.00529e-01,9.99999e-01
8.665618462e-01,8.80869e-02,9.99999e-01,8.39296e-01,9.97501e-01,1.05196e-01,9.99999e-01
8.708946554e-01,2.22420e-02,9.99999e-01,2.02749e-01,9.97133e-01,1.09981e-01,9.99999e-01
8.752491287e-01,2.94468e-02,9.99999e-01,2.57217e-01,9.96170e-01,1.14882e-01,9.99999e-01
8.796253743e-01,5.53214e-02,9.99999e-01,4.63591e-01,9.94684e-01,1.19899e-01,9.99999e-01
8.840235012e-01,8.24421e-02,9.99999e-01,6.63139e-01,9.93936e-01,1.25029e-01,9.99999e-01
8.884436187e-01,1.08306e-01,9.99999e-01,8.49411e-01,9.77807e-01,1.30271e-01,9.99998e-01
8.928858368e-01,1.01099e-01,9.99999e-01,9.35594e-01,7.94591e-01,1.35622e-01,9.99996e-01
8.973502660e-01,9.31913e-02,9.99999e-01,9.84035e-01,6.70305e-01,1.41082e-01,9.99994e-01
9.018370173e-01,1.19585e-01,9.99999e-01,9.98233e-01,8.16722e-01,1.46646e-01,9.99993e-01
9.063462024e-01,1.22055e-01,9.99999e-01,9.55545e-01,8.33409e-01,1.52314e-01,9.99992e-01
9.108779334e-01,1.07904e-01,9.99999e-01,9.00397e-01,7.54024e-01,1.58082e-01,9.99992e-01
9.154323231e-01,1.16215e-01,9.99999e-01,9.75890e-01,7.24757e-01,1.63948e-01,9.99991e-01
9.200094847e-01,1.03240e-01,9.99999e-01,7.47819e-01,7.78621e-01,1.69909e-01,9.99988e-01
9.246095321e-01,7.44808e-02,9.99999e-01,6.01162e-01,6.84595e-01,1.75963e-01,9.99981e-01
9.292325798e-01,1.44041e-02,9.99999e-01,6.76522e-01,1.05612e-01,1.82107e-01,9.99960e-01
9.338787427e-01,7.45624e-03,9.99999e-01,6.82515e-01,5.29564e-02,1.88338e-01,9.99949e-01
9.385481364e-01,4.62998e-02,9.99999e-01,7.52404e-01,3.01257e-01,1.94652e-01,9.99948e-01
9.432408771e-01,3.49840e-02,9.99999e-01,8.39114e-01,2.01505e-01,2.01047e-01,9.99942e-01
9.479570815e-01,2.03315e-02,9.99999e-01,9.13612e-01,1.05672e-01,2.07520e-01,9.99950e-01
9.526968669e-01,3.60032e-02,9.99999e-01,9.57525e-01,1.73913e-01,2.14067e-01,9.99962e-01
9.574603512e-01,4.07440e-02,9.99999e-01,9.81595e-01,1.87293e-01,2.20685e-01,9.99971e-01
9.622476530e-01,5.62597e-02,9.99999e-01,9.94226e-01,2.48557e-01,2.27371e-01,9.99980e-01
9.670588912e-01,1.03384e-01,9.99999e-01,9.98270e-01,4.42196e-01,2.34121e-01,9.99987e-01
9.718941857e-01,1.41435e-01,9.99999e-01,9.99880e-01,5.87087e-01,2.40933e-01,9.99992e-01
9.767536566e-01,1.59062e-01,9.99999e-01,9.99999e-01,6.41895e-01,2.47802e-01,9.99994e-01
9.816374249e-01,1.83043e-01,9.99999e-01,9.99999e-01,7.18590e-01,2.54726e-01,9.99996e-01
9.865456120e-01,2.12670e-01,9.99999e-01,9.99999e-01,8.12646e-01,2.61700e-01,9.99997e-01
9.914783401e-01,2.36251e-01,9.99999e-01,9.99999e-01,8.79164e-01,2.68723e-01,9.99998e-01
9.964357318e-01,2.57105e-01,9.99999e-01,9.99999e-01,9.32254e-01,2.75789e-01,9.99999e-01
1.001417910e+00,2.71244e-01,9.99999e-01,9.99999e-01,9.58810e-01,2.82896e-01,9.99999e-01
1.006425000e+00,2.83151e-01,9.99999e-01,9.99999e-01,9.76245e-01,2.90040e-01,9.99999e-01
1.011457125e+00,2.92829e-01,9.99999e-01,9.99999e-01,9.85228e-01,2.97219e-01,9.99999e-01
1.016514411e+00,3.01363e-01,9.99999e-01,9.99999e-01,9.89933e-01,3.04428e-01,9.99999e-01
1.021596983e+00,3.09074e-01,9.99999e-01,9.99719e-01,9.91966e-01,3.11664e-01,9.99999e-01
1.026704968e+00,3.11211e-01,9.99999e-01,9.81938e-01,9.93725e-01,3.18924e-01,9.99999e-01
1.031838492e+00,2.83003e-01,9.99999e-01,8.71251e-01,9.95445e-01,3.26205e-01,9.99999e-01
1.036997685e+00,9.80657e-03,9.99999e-01,2.94645e-02,9.97286e-01,3.33504e-01,9.99999e-01
1.042182673e+00,1.53687e-04,9.99999e-01,4.51995e-04,9.96753e-01,3.40817e-01,9.99999e-01
1.047393587e+00,4.43374e-04,9.99999e-01,1.27797e-03,9.95705e-01,3.48141e-01,9.99999e-01
1.052630555e+00,1.25613e-09,9.99999e-01,3.54651e-09,9.94103e-01,3.55473e-01,9.99999e-01
1.057893707e+00,4.76517e-09,9.99999e-01,1.31957e-08,9.90161e-01,3.62810e-01,9.99999e-01
1.063183176e+00,7.24761e-07,9.99999e-01,1.97500e-06,9.83882e-01,3.70149e-01,9.99999e-01
1.068499092e+00,1.42566e-05,9.99999e-01,3.83454e-05,9.73207e-01,3.77487e-01,9.99999e-01
1.073841587e+00,4.83220e-04,9.99999e-01,1.28204e-03,9.68711e-01,3.84821e-01,9.99998e-01
1.079210795e+00,6.05440e-03,9.99999e-01,1.59030e-02,9.60167e-01,3.92149e-01,9.99998e-01
1.084606849e+00,3.47712e-02,9.99999e-01,9.16311e-02,9.40309e-01,3.99468e-01,9.99997e-01
1.090029883e+00,1.06748e-01,9.99999e-01,2.83851e-01,9.15151e-01,4.06774e-01,9.99996e-01
1.095480033e+00,1.76364e-01,9.99999e-01,5.35669e-01,7.86087e-01,4.14066e-01,9.99993e-01
1.100957433e+00,1.72967e-01,9.99999e-01,7.38128e-01,5.48325e-01,4.21341e-01,9.99988e-01
1.106462220e+00,9.06706e-02,9.99999e-01,8.81818e-01,2.35987e-01,4.28596e-01,9.99976e-01
1.111994531e+00,2.25024e-02,9.99999e-01,9.54346e-01,5.35180e-02,4.35829e-01,9.99953e-01
1.117554504e+00,4.85691e-03,9.99999e-01,9.88714e-01,1.10251e-02,4.43037e-01,9.99934e-01
1.123142276e+00,2.18845e-02,9.99999e-01,9.99260e-01,4.86148e-02,4.50219e-01,9.99922e-01
1.128757988e+00,5.17066e-02,9.99999e-01,9.99999e-01,1.13061e-01,4.57372e-01,9.99916e-01
1.134401778e+00,2.45122e-02,9.99999e-01,9.99999e-01,5.27767e-02,4.64494e-01,9.99906e-01
1.140073787e+00,1.18521e-01,9.99999e-01,9.99999e-01,2.51344e-01,4.71583e-01,9.99924e-01
1.145774156e+00,3.53101e-02,9.99999e-01,9.99999e-01,7.37768e-02,4.78637e-01,9.99935e-01
1.151503026e+00,2.66844e-02,9.99999e-01,9.99999e-01,5.49483e-02,4.85654e-01,9.99944e-01
1.157260541e+00,3.46517e-02,9.99999e-01,9.99999e-01,7.03428e-02,4.92632e-01,9.99957e-01
1.163046844e+00,6.89902e-02,9.99999e-01,9.99999e-01,1.38103e-01,4.99570e-01,9.99973e-01
1.168862078e+00,1.21091e-01,9.99999e-01,9.99999e-01,2.39093e-01,5.06465e-01,9.99986e-01
1.174706389e+00,2.11018e-01,9.99999e-01,9.99999e-01,4.11090e-01,5.13317e-01,9.99992e-01
1.180579921e+00,3.01285e-01,9.99999e-01,9.99999e-01,5.79260e-01,5.20123e-01,9.99995e-01
1.186482820e+00,3.85499e-01,9.99999e-01,9.99957e-01,7.31685e-01,5.26882e-01,9.99995e-01
1.192415234e+00,4.18981e-01,9.99999e-01,9.40265e-01,8.32503e-01,5.33593e-01,9.99996e-01
1.198377311e+00,2.30230e-01,9.99999e-01,4.84415e-01,8.56730e-01,5.40255e-01,9.99996e-01
1.204369197e+00,2.66823e-45,9.99999e-01,5.31057e-45,8.64601e-01,5.46865e-01,9.99997e-01
1.210391043e+00,4.34853e-187,9.99999e-01,8.49402e-187,8.69775e-01,5.53424e-01,9.99997e-01
1.216442998e+00,9.87811e-162,9.99999e-01,1.89932e-161,8.88303e-01,5.59929e-01,9.99998e-01
1.222525213e+00,2.82975e-159,9.99999e-01,5.24093e-159,9.11610e-01,5.66380e-01,9.99998e-01
1.228637839e+00,1.30913e-122,9.99999e-01,2.38671e-122,9.37678e-01,5.72776e-01,9.99999e-01
