#,Wave/freq,Total,O2,CO2,H2O,Rayleigh,CIA
4.000000000e-01,2.62422e-12,9.99999e-01,9.99999e-01,9.99947e-01,2.62436e-12,9.99999e-01
4.020000000e-01,4.44628e-12,9.99999e-01,9.99999e-01,9.99967e-01,4.44643e-12,9.99999e-01
4.040100000e-01,7.45136e-12,9.99999e-01,9.99999e-01,9.99985e-01,7.45146e-12,9.99999e-01
4.060300500e-01,1.23606e-11,9.99999e-01,9.99999e-01,9.99996e-01,1.23607e-11,9.99999e-01
4.080602003e-01,2.03002e-11,9.99999e-01,9.99999e-01,9.99998e-01,2.03002e-11,9.99999e-01
4.101005013e-01,3.30145e-11,9.99999e-01,9.99999e-01,9.99999e-01,3.30145e-11,9.99999e-01
4.121510038e-01,5.31784e-11,9.99999e-01,9.99999e-01,9.99997e-01,5.31785e-11,9.99999e-01
4.142117588e-01,8.48540e-11,9.99999e-01,9.99999e-01,9.99985e-01,8.48552e-11,9.99999e-01
4.162828176e-01,1.34148e-10,9.99999e-01,9.99999e-01,9.99934e-01,1.34157e-10,9.99999e-01
4.183642317e-01,2.10184e-10,9.99999e-01,9.99999e-01,9.99961e-01,2.10192e-10,9.99999e-01
4.204560528e-01,3.26406e-10,9.99999e-01,9.99999e-01,9.99975e-01,3.26414e-10,9.99999e-01
4.225583331e-01,5.02506e-10,9.99999e-01,9.99999e-01,9.99990e-01,5.02510e-10,9.99999e-01
4.246711247e-01,7.67039e-10,9.99999e-01,9.99999e-01,9.99992e-01,7.67044e-10,9.99999e-01
4.267944804e-01,1.16108e-09,9.99999e-01,9.99999e-01,9.99989e-01,1.16109e-09,9.99999e-01
4.289284528e-01,1.74323e-09,9.99999e-01,9.99999e-01,9.99991e-01,1.74325e-09,9.99999e-01
4.310730950e-01,2.59634e-09,9.99999e-01,9.99999e-01,9.99996e-01,2.59635e-09,9.99999e-01
4.332284605e-01,3.83664e-09,9.99999e-01,9.99999e-01,9.99998e-01,3.83664e-09,9.99999e-01
4.353946028e-01,5.62586e-09,9.99999e-01,9.99999e-01,9.99999e-01,5.62586e-09,9.99999e-01
4.375715758e-01,8.18729e-09,9.99999e-01,9.99999e-01,9.99993e-01,8.18735e-09,9.99999e-01
4.397594337e-01,1.18264e-08,9.99999e-01,9.99999e-01,9.99942e-01,1.18271e-08,9.99999e-01
4.419582309e-01,1.69564e-08,9.99999e-01,9.99999e-01,9.99711e-01,1.69613e-08,9.99999e-01
4.441680220e-01,2.41462e-08,9.99999e-01,9.99999e-01,9.99774e-01,2.41516e-08,9.99999e-01
4.463888621e-01,3.41429e-08,9.99999e-01,9.99999e-01,9.99765e-01,3.41509e-08,9.99999e-01
4.486208064e-01,4.79538e-08,9.99999e-01,9.99999e-01,9.99854e-01,4.79607e-08,9.99999e-01
4.508639105e-01,6.69001e-08,9.99999e-01,9.99999e-01,9.99931e-01,6.69047e-08,9.99999e-01
4.531182300e-01,9.27171e-08,9.99999e-01,9.99999e-01,9.99972e-01,9.27196e-08,9.99999e-01
4.553838212e-01,1.27667e-07,9.99999e-01,9.99999e-01,9.99981e-01,1.27670e-07,9.99999e-01
4.576607403e-01,1.74685e-07,9.99999e-01,9.99999e-01,9.99991e-01,1.74686e-07,9.99999e-01
4.599490440e-01,2.37541e-07,9.99999e-01,9.99999e-01,9.99993e-01,2.37542e-07,9.99999e-01
4.622487892e-01,3.21060e-07,9.99999e-01,9.99999e-01,9.99998e-01,3.21060e-07,9.99999e-01
4.645600332e-01,4.31366e-07,9.99999e-01,9.99999e-01,9.99995e-01,4.31368e-07,9.99999e-01
4.668828333e-01,5.76163e-07,9.99999e-01,9.99999e-01,9.99930e-01,5.76203e-07,9.99999e-01
4.692172475e-01,7.65166e-07,9.99999e-01,9.99999e-01,9.99852e-01,7.65278e-07,9.99999e-01
4.715633337e-01,1.01062e-06,9.99999e-01,9.99999e-01,9.99903e-01,1.01072e-06,9.99999e-01
4.739211504e-01,1.32743e-06,9.99999e-01,9.99999e-01,9.99907e-01,1.32755e-06,9.99999e-01
4.762907561e-01,1.73427e-06,9.99999e-01,9.99999e-01,9.99951e-01,1.73435e-06,9.99999e-01
4.786722099e-01,2.25382e-06,9.99999e-01,9.99999e-01,9.99980e-01,2.25387e-06,9.99999e-01
4.810655710e-01,2.91386e-06,9.99999e-01,9.99999e-01,9.99993e-01,2.91388e-06,9.99999e-01
4.834708988e-01,3.74790e-06,9.99999e-01,9.99999e-01,9.99943e-01,3.74811e-06,9.99999e-01
4.858882533e-01,4.79676e-06,9.99999e-01,9.99999e-01,9.99895e-01,4.79725e-06,9.99999e-01
4.883176946e-01,6.10968e-06,9.99999e-01,9.99999e-01,9.99912e-01,6.11021e-06,9.99999e-01
4.907592831e-01,7.74481e-06,9.99999e-01,9.99999e-01,9.99920e-01,7.74541e-06,9.99999e-01
4.932130795e-01,9.77180e-06,9.99999e-01,9.99999e-01,9.99943e-01,9.77234e-06,9.99999e-01
4.956791449e-01,1.22729e-05,9.99999e-01,9.99999e-01,9.99969e-01,1.22732e-05,9.99999e-01
4.981575406e-01,1.53426e-05,9.99999e-01,9.99999e-01,9.99851e-01,1.53449e-05,9.99999e-01
5.006483283e-01,1.90936e-05,9.99999e-01,9.99999e-01,9.99617e-01,1.91009e-05,9.99999e-01
5.031515699e-01,2.36277e-05,9.99999e-01,9.99999e-01,9.98060e-01,2.36736e-05,9.99999e-01
5.056673278e-01,2.91870e-05,9.99999e-01,9.99999e-01,9.98975e-01,2.92169e-05,9.99999e-01
5.081956644e-01,3.58622e-05,9.99999e-01,9.99999e-01,9.98708e-01,3.59086e-05,9.99999e-01
5.107366428e-01,4.39153e-05,9.99999e-01,9.99999e-01,9.99127e-01,4.39536e-05,9.99999e-01
5.132903260e-01,5.35599e-05,9.99999e-01,9.99999e-01,9.99501e-01,5.35866e-05,9.99999e-01
5.158567776e-01,6.50618e-05,9.99999e-01,9.99999e-01,9.99788e-01,6.50755e-05,9.99999e-01
5.184360615e-01,7.87185e-05,9.99999e-01,9.99999e-01,9.99915e-01,7.87251e-05,9.99999e-01
5.210282418e-01,9.48771e-05,9.99999e-01,9.99999e-01,9.99968e-01,9.48801e-05,9.99999e-01
5.236333830e-01,1.13915e-04,9.99999e-01,9.99999e-01,9.99873e-01,1.13929e-04,9.99999e-01
5.262515499e-01,1.36299e-04,9.99999e-01,9.99999e-01,9.99920e-01,1.36310e-04,9.99999e-01
5.288828077e-01,1.62498e-04,9.99999e-01,9.99999e-01,9.99926e-01,1.62510e-04,9.99999e-01
5.315272217e-01,1.93062e-04,9.99999e-01,9.99999e-01,9.99935e-01,1.93074e-04,9.99999e-01
5.341848578e-01,2.28598e-04,9.99999e-01,9.99999e-01,9.99957e-01,2.28607e-04,9.99999e-01
5.368557821e-01,2.69739e-04,9.99999e-01,9.99999e-01,9.99852e-01,2.69778e-04,9.99999e-01
5.395400610e-01,3.17156e-04,9.99999e-01,9.99999e-01,9.99468e-01,3.17325e-04,9.99999e-01
5.422377613e-01,3.71800e-04,9.99999e-01,9.99999e-01,9.99312e-01,3.72055e-04,9.99999e-01
5.449489501e-01,4.34580e-04,9.99999e-01,9.99999e-01,9.99361e-01,4.34857e-04,9.99999e-01
5.476736949e-01,5.06410e-04,9.99999e-01,9.99999e-01,9.99433e-01,5.06696e-04,9.99999e-01
5.504120634e-01,5.88381e-04,9.99999e-01,9.99999e-01,9.99589e-01,5.88623e-04,9.99999e-01
5.531641237e-01,6.81634e-04,9.99999e-01,9.99999e-01,9.99792e-01,6.81775e-04,9.99999e-01
5.559299443e-01,7.87301e-04,9.99999e-01,9.99999e-01,9.99899e-01,7.87380e-04,9.99999e-01
5.587095940e-01,9.06703e-04,9.99999e-01,9.99999e-01,9.99937e-01,9.06760e-04,9.99999e-01
5.615031420e-01,1.04126e-03,9.99999e-01,9.99999e-01,9.99929e-01,1.04133e-03,9.99999e-01
5.643106577e-01,1.19252e-03,9.99999e-01,9.99999e-01,9.99920e-01,1.19261e-03,9.99999e-01
5.671322110e-01,1.36091e-03,9.99999e-01,9.99999e-01,9.99040e-01,1.36222e-03,9.99999e-01
5.699678720e-01,1.55027e-03,9.99999e-01,9.99999e-01,9.98979e-01,1.55186e-03,9.99999e-01
5.728177114e-01,1.76148e-03,9.99999e-01,9.99999e-01,9.98937e-01,1.76335e-03,9.99999e-01
5.756818000e-01,1.99667e-03,9.99999e-01,9.99999e-01,9.99024e-01,1.99862e-03,9.99999e-01
5.785602090e-01,2.25776e-03,9.99999e-01,9.99999e-01,9.99149e-01,2.25969e-03,9.99999e-01
5.814530100e-01,2.54649e-03,9.99999e-01,9.99999e-01,9.99146e-01,2.54866e-03,9.99999e-01
5.843602750e-01,2.86485e-03,9.99999e-01,9.99999e-01,9.98982e-01,2.86777e-03,9.99999e-01
5.872820764e-01,3.19120e-03,9.99999e-01,9.99999e-01,9.91265e-01,3.21932e-03,9.99999e-01
5.902184868e-01,3.56755e-03,9.99999e-01,9.99999e-01,9.89414e-01,3.60572e-03,9.99999e-01
5.931695792e-01,3.99931e-03,9.99999e-01,9.99999e-01,9.92516e-01,4.02946e-03,9.99999e-01
5.961354271e-01,4.45627e-03,9.99999e-01,9.99999e-01,9.91795e-01,4.49313e-03,9.99999e-01
5.991161043e-01,4.96944e-03,9.99999e-01,9.99999e-01,9.94009e-01,4.99939e-03,9.99999e-01
6.021116848e-01,5.53208e-03,9.99999e-01,9.99999e-01,9.96596e-01,5.55097e-03,9.99999e-01
6.051222432e-01,6.14009e-03,9.99999e-01,9.99999e-01,9.98276e-01,6.15069e-03,9.99999e-01
6.081478544e-01,6.79634e-03,9.99999e-01,9.99999e-01,9.99256e-01,6.80139e-03,9.99999e-01
6.111885937e-01,7.50365e-03,9.99999e-01,9.99999e-01,9.99684e-01,7.50601e-03,9.99999e-01
6.142445367e-01,8.26636e-03,9.99999e-01,9.99999e-01,9.99859e-01,8.26752e-03,9.99999e-01
6.173157594e-01,9.08822e-03,9.99999e-01,9.99999e-01,9.99922e-01,9.08892e-03,9.99999e-01
6.204023382e-01,9.97260e-03,9.99999e-01,9.99999e-01,9.99934e-01,9.97325e-03,9.99999e-01
6.235043498e-01,1.09204e-02,9.99999e-01,9.99999e-01,9.99710e-01,1.09236e-02,9.99999e-01
6.266218716e-01,1.19247e-02,9.99999e-01,9.99999e-01,9.98471e-01,1.19430e-02,9.99999e-01
6.297549810e-01,1.30272e-02,9.99999e-01,9.99999e-01,9.99439e-01,1.30345e-02,9.99999e-01
6.329037559e-01,1.41855e-02,9.99999e-01,9.99999e-01,9.98891e-01,1.42012e-02,9.99999e-01
6.360682746e-01,1.54316e-02,9.99999e-01,9.99999e-01,9.99056e-01,1.54462e-02,9.99999e-01
6.392486160e-01,1.67519e-02,9.99999e-01,9.99999e-01,9.98776e-01,1.67725e-02,9.99999e-01
6.424448591e-01,1.81532e-02,9.99999e-01,9.99999e-01,9.98364e-01,1.81830e-02,9.99999e-01
6.456570834e-01,1.95317e-02,9.99999e-01,9.99999e-01,9.92425e-01,1.96807e-02,9.99999e-01
6.488853688e-01,2.11505e-02,9.99999e-01,9.99999e-01,9.94448e-01,2.12686e-02,9.99999e-01
6.521297956e-01,2.28195e-02,9.99999e-01,9.99999e-01,9.94342e-01,2.29493e-02,9.99999e-01
6.553904446e-01,2.45864e-02,9.99999e-01,9.99999e-01,9.94366e-01,2.47257e-02,9.99999e-01
6.586673968e-01,2.64720e-02,9.99999e-01,9.99999e-01,9.95173e-01,2.66004e-02,9.99999e-01
6.619607338e-01,2.84961e-02,9.99999e-01,9.99999e-01,9.97207e-01,2.85759e-02,9.99999e-01
6.652705375e-01,3.06052e-02,9.99999e-01,9.99999e-01,9.98383e-01,3.06547e-02,9.99999e-01
6.685968902e-01,3.28146e-02,9.99999e-01,9.99999e-01,9.99248e-01,3.28392e-02,9.99999e-01
6.719398746e-01,3.51194e-02,9.99999e-01,9.99999e-01,9.99651e-01,3.51316e-02,9.99999e-01
6.752995740e-01,3.75268e-02,9.99999e-01,9.99999e-01,9.99810e-01,3.75339e-02,9.99999e-01
6.786760719e-01,4.00373e-02,9.99999e-01,9.99999e-01,9.99727e-01,4.00482e-02,9.99999e-01
6.820694522e-01,4.26562e-02,9.99999e-01,9.99999e-01,9.99533e-01,4.26761e-02,9.99999e-01
6.854797995e-01,4.53922e-02,9.99999e-01,9.99999e-01,9.99398e-01,4.54195e-02,9.99999e-01
6.889071985e-01,4.82095e-02,9.99999e-01,9.99999e-01,9.98545e-01,4.82798e-02,9.99999e-01
6.923517345e-01,5.00533e-02,9.99999e-01,9.99999e-01,9.76492e-01,5.12583e-02,9.99999e-01
6.958134932e-01,5.36881e-02,9.99999e-01,9.99999e-01,9.87708e-01,5.43562e-02,9.99999e-01
6.992925606e-01,5.69018e-02,9.99999e-01,9.99999e-01,9.88313e-01,5.75747e-02,9.99999e-01
7.027890234e-01,6.00362e-02,9.99999e-01,9.99999e-01,9.85583e-01,6.09144e-02,9.99999e-01
7.063029686e-01,6.35948e-02,9.99999e-01,9.99999e-01,9.87863e-01,6.43761e-02,9.99999e-01
7.098344834e-01,6.71686e-02,9.99999e-01,9.99999e-01,9.88350e-01,6.79603e-02,9.99999e-01
7.133836558e-01,7.05582e-02,9.99999e-01,9.99999e-01,9.84524e-01,7.16673e-02,9.99998e-01
7.169505741e-01,6.66509e-02,9.99999e-01,9.99999e-01,8.82825e-01,7.54973e-02,9.99998e-01
7.205353270e-01,7.47367e-02,9.99999e-01,9.99999e-01,9.40674e-01,7.94502e-02,9.99997e-01
7.241380036e-01,7.72778e-02,9.99999e-01,9.99999e-01,9.25197e-01,8.35258e-02,9.99997e-01
7.277586936e-01,8.17811e-02,9.99999e-01,9.99999e-01,9.32257e-01,8.77238e-02,9.99998e-01
7.313974871e-01,8.54128e-02,9.99999e-01,9.99999e-01,9.27960e-01,9.20436e-02,9.99998e-01
7.350544745e-01,9.26203e-02,9.99999e-01,9.99999e-01,9.59950e-01,9.64844e-02,9.99998e-01
7.387297469e-01,9.80489e-02,9.99999e-01,9.99999e-01,9.70344e-01,1.01045e-01,9.99999e-01
7.424233956e-01,1.04179e-01,9.99999e-01,9.99999e-01,9.85375e-01,1.05726e-01,9.99999e-01
7.461355126e-01,1.09541e-01,9.99999e-01,9.99999e-01,9.91112e-01,1.10524e-01,9.99999e-01
7.498661902e-01,1.14959e-01,9.99999e-01,9.99999e-01,9.95852e-01,1.15438e-01,9.99999e-01
7.536155211e-01,1.20222e-01,9.99999e-01,9.99999e-01,9.97963e-01,1.20467e-01,9.99999e-01
7.573835987e-01,1.25479e-01,9.99999e-01,9.99999e-01,9.98951e-01,1.25610e-01,9.99999e-01
7.611705167e-01,1.30779e-01,9.99999e-01,9.99999e-01,9.99348e-01,1.30864e-01,9.99999e-01
7.649763693e-01,1.36172e-01,9.99999e-01,9.99999e-01,9.99591e-01,1.36228e-01,9.99999e-01
7.688012511e-01,1.41659e-01,9.99999e-01,9.99999e-01,9.99715e-01,1.41699e-01,9.99999e-01
7.726452574e-01,1.47241e-01,9.99999e-01,9.99999e-01,9.99765e-01,1.47275e-01,9.99999e-01
7.765084837e-01,1.52903e-01,9.99999e-01,9.99999e-01,9.99667e-01,1.52954e-01,9.99999e-01
7.803910261e-01,1.46694e-01,9.99999e-01,9.25388e-01,9.98564e-01,1.58733e-01,9.99999e-01
7.842929812e-01,1.12918e-01,9.99999e-01,6.89058e-01,9.94996e-01,1.64610e-01,9.99999e-01
7.882144461e-01,1.13892e-01,9.99999e-01,6.73998e-01,9.89711e-01,1.70582e-01,9.99999e-01
7.921555184e-01,1.38255e-01,9.99999e-01,7.86869e-01,9.94346e-01,1.76646e-01,9.99999e-01
7.961162960e-01,1.53967e-01,9.99999e-01,8.50555e-01,9.90033e-01,1.82800e-01,9.99999e-01
8.000968774e-01,1.71164e-01,9.99999e-01,9.15906e-01,9.88486e-01,1.89040e-01,9.99999e-01
8.040973618e-01,1.84522e-01,9.99999e-01,9.55454e-01,9.88485e-01,1.95364e-01,9.99999e-01
8.081178486e-01,1.92520e-01,9.99999e-01,9.79286e-01,9.74259e-01,2.01768e-01,9.99998e-01
8.121584379e-01,1.85693e-01,9.99999e-01,9.93557e-01,8.97325e-01,2.08249e-01,9.99998e-01
8.162192301e-01,1.88646e-01,9.99999e-01,9.98573e-01,8.79421e-01,2.14804e-01,9.99997e-01
8.203003262e-01,2.07858e-01,9.99999e-01,9.99978e-01,9.38725e-01,2.21430e-01,9.99997e-01
8.244018279e-01,2.08908e-01,9.99999e-01,9.99999e-01,9.15769e-01,2.28123e-01,9.99997e-01
8.285238370e-01,2.17502e-01,9.99999e-01,9.99999e-01,9.26010e-01,2.34880e-01,9.99998e-01
8.326664562e-01,2.23643e-01,9.99999e-01,9.99999e-01,9.25295e-01,2.41699e-01,9.99998e-01
8.368297885e-01,2.35125e-01,9.99999e-01,9.99999e-01,9.45895e-01,2.48574e-01,9.99998e-01
8.410139374e-01,2.47193e-01,9.99999e-01,9.99999e-01,9.67473e-01,2.55504e-01,9.99999e-01
8.452190071e-01,2.58261e-01,9.99999e-01,9.99999e-01,9.83910e-01,2.62484e-01,9.99999e-01
8.494451021e-01,2.66987e-01,9.99999e-01,9.99999e-01,9.90635e-01,2.69511e-01,9.99999e-01
8.536923276e-01,2.75048e-01,9.99999e-01,9.99999e-01,9.94452e-01,2.76582e-01,9.99999e-01
8.579607893e-01,2.82724e-01,9.99999e-01,9.99999e-01,9.96580e-01,2.83694e-01,9.99999e-01
8.622505932e-01,2.90210e-01,9.99999e-01,9.99999e-01,9.97826e-01,2.90842e-01,9.99999e-01
8.665618462e-01,2.61713e-01,9.99999e-01,8.79272e-01,9.98655e-01,2.98024e-01,9.99999e-01
8.708946554e-01,1.21340e-01,9.99999e-01,3.98094e-01,9.98460e-01,3.05236e-01,9.99999e-01
8.752491287e-01,1.45548e-01,9.99999e-01,4.66691e-01,9.97940e-01,3.12475e-01,9.99999e-01
8.796253743e-01,2.07992e-01,9.99999e-01,6.52238e-01,9.97149e-01,3.19738e-01,9.99999e-01
8.840235012e-01,2.60382e-01,9.99999e-01,7.98726e-01,9.96744e-01,3.27021e-01,9.99999e-01
8.884436187e-01,3.02325e-01,9.99999e-01,9.14824e-01,9.88205e-01,3.34321e-01,9.99998e-01
8.928858368e-01,2.91201e-01,9.99999e-01,9.64517e-01,8.83033e-01,3.41636e-01,9.99997e-01
8.973502660e-01,2.77867e-01,9.99999e-01,9.91263e-01,8.02936e-01,3.48961e-01,9.99996e-01
9.018370173e-01,3.18249e-01,9.99999e-01,9.99033e-01,8.94023e-01,3.56293e-01,9.99996e-01
9.063462024e-01,3.22069e-01,9.99999e-01,9.75813e-01,9.05942e-01,3.63631e-01,9.99995e-01
9.108779334e-01,3.00942e-01,9.99999e-01,9.44681e-01,8.57285e-01,3.70970e-01,9.99995e-01
9.154323231e-01,3.13469e-01,9.99999e-01,9.86724e-01,8.39174e-01,3.78308e-01,9.99995e-01
9.200094847e-01,2.86535e-01,9.99999e-01,8.38982e-01,8.71935e-01,3.85642e-01,9.99993e-01
9.246095321e-01,2.44125e-01,9.99999e-01,7.57865e-01,8.11348e-01,3.92969e-01,9.99989e-01
9.292325798e-01,8.82273e-02,9.99999e-01,8.07109e-01,2.61940e-01,4.00286e-01,9.99979e-01
9.338787427e-01,6.12447e-02,9.99999e-01,8.11347e-01,1.78086e-01,4.07591e-01,9.99972e-01
9.385481364e-01,1.79422e-01,9.99999e-01,8.56765e-01,4.95572e-01,4.14881e-01,9.99972e-01
9.432408771e-01,1.50604e-01,9.99999e-01,9.09341e-01,3.88224e-01,4.22153e-01,9.99968e-01
9.479570815e-01,1.11872e-01,9.99999e-01,9.52380e-01,2.72140e-01,4.29406e-01,9.99972e-01
9.526968669e-01,1.56978e-01,9.99999e-01,9.76767e-01,3.66637e-01,4.36636e-01,9.99979e-01
9.574603512e-01,1.69814e-01,9.99999e-01,9.89992e-01,3.85900e-01,4.43842e-01,9.99984e-01
9.622476530e-01,2.05088e-01,9.99999e-01,9.96867e-01,4.55956e-01,4.51021e-01,9.99989e-01
9.670588912e-01,2.90170e-01,9.99999e-01,9.99060e-01,6.33850e-01,4.58170e-01,9.99993e-01
9.718941857e-01,3.48027e-01,9.99999e-01,9.99933e-01,7.48025e-01,4.65289e-01,9.99995e-01
9.767536566e-01,3.71106e-01,9.99999e-01,9.99999e-01,7.85621e-01,4.72374e-01,9.99996e-01
9.816374249e-01,4.00674e-01,9.99999e-01,9.99999e-01,8.35741e-01,4.79424e-01,9.99997e-01
9.865456120e-01,4.34747e-01,9.99999e-01,9.99999e-01,8.93737e-01,4.86436e-01,9.99998e-01
9.914783401e-01,4.60264e-01,9.99999e-01,9.99999e-01,9.32821e-01,4.93410e-01,9.99999e-01
9.964357318e-01,4.81748e-01,9.99999e-01,9.99999e-01,9.62834e-01,5.00343e-01,9.99999e-01
1.001417910e+00,4.95847e-01,9.99999e-01,9.99999e-01,9.77551e-01,5.07234e-01,9.99999e-01
1.006425000e+00,5.07470e-01,9.99999e-01,9.99999e-01,9.87140e-01,5.14080e-01,9.99999e-01
1.011457125e+00,5.16715e-01,9.99999e-01,9.99999e-01,9.92000e-01,5.20881e-01,9.99999e-01
1.016514411e+00,5.24767e-01,9.99999e-01,9.99999e-01,9.94562e-01,5.27636e-01,9.99999e-01
1.021596983e+00,5.31956e-01,9.99999e-01,9.99869e-01,9.95665e-01,5.34341e-01,9.99999e-01
1.026704968e+00,5.34004e-01,9.99999e-01,9.90412e-01,9.96618e-01,5.40997e-01,9.99999e-01
1.031838492e+00,5.00766e-01,9.99999e-01,9.16613e-01,9.97540e-01,5.47602e-01,9.99999e-01
1.036997685e+00,3.47938e-02,9.99999e-01,6.28568e-02,9.98538e-01,5.54155e-01,9.99999e-01
1.042182673e+00,4.40504e-03,9.99999e-01,7.86777e-03,9.98258e-01,5.60654e-01,9.99999e-01
1.047393587e+00,9.96904e-03,9.99999e-01,1.76133e-02,9.97690e-01,5.67099e-01,9.99999e-01
1.052630555e+00,4.35140e-06,9.99999e-01,7.60312e-06,9.96832e-01,5.73488e-01,9.99999e-01
1.057893707e+00,1.60757e-05,9.99999e-01,2.78048e-05,9.94717e-01,5.79821e-01,9.99999e-01
1.063183176e+00,2.38499e-04,9.99999e-01,4.09056e-04,9.91321e-01,5.86097e-01,9.99999e-01
1.068499092e+00,1.80607e-03,9.99999e-01,3.08055e-03,9.85508e-01,5.92315e-01,9.99999e-01
1.073841587e+00,1.45105e-02,9.99999e-01,2.45564e-02,9.83072e-01,5.98474e-01,9.99999e-01
1.079210795e+00,5.75040e-02,9.99999e-01,9.68191e-02,9.78345e-01,6.04574e-01,9.99998e-01
1.084606849e+00,1.58882e-01,9.99999e-01,2.68040e-01,9.67420e-01,6.10613e-01,9.99998e-01
1.090029883e+00,2.96298e-01,9.99999e-01,5.02337e-01,9.53594e-01,6.16592e-01,9.99997e-01
1.095480033e+00,3.90538e-01,9.99999e-01,7.11561e-01,8.78615e-01,6.22510e-01,9.99996e-01
1.100957433e+00,3.86182e-01,9.99999e-01,8.48218e-01,7.21473e-01,6.28365e-01,9.99993e-01
1.106462220e+00,2.65645e-01,9.99999e-01,9.34108e-01,4.45966e-01,6.34159e-01,9.99987e-01
1.111994531e+00,1.18522e-01,9.99999e-01,9.75028e-01,1.89239e-01,6.39890e-01,9.99974e-01
1.117554504e+00,4.64847e-02,9.99999e-01,9.93846e-01,7.22948e-02,6.45558e-01,9.99964e-01
1.123142276e+00,1.04861e-01,9.99999e-01,9.99594e-01,1.61056e-01,6.51162e-01,9.99958e-01
1.128757988e+00,1.89124e-01,9.99999e-01,9.99999e-01,2.88002e-01,6.56703e-01,9.99954e-01
1.134401778e+00,8.61471e-02,9.99999e-01,9.99999e-01,1.30102e-01,6.62181e-01,9.99949e-01
1.140073787e+00,3.09283e-01,9.99999e-01,9.99999e-01,4.63298e-01,6.67595e-01,9.99959e-01
1.145774156e+00,1.45829e-01,9.99999e-01,9.99999e-01,2.16710e-01,6.72944e-01,9.99965e-01
1.151503026e+00,1.25503e-01,9.99999e-01,9.99999e-01,1.85050e-01,6.78230e-01,9.99970e-01
1.157260541e+00,1.54492e-01,9.99999e-01,9.99999e-01,2.26052e-01,6.83451e-01,9.99977e-01
1.163046844e+00,2.27328e-01,9.99999e-01,9.99999e-01,3.30131e-01,6.88609e-01,9.99985e-01
1.168862078e+00,3.15741e-01,9.99999e-01,9.99999e-01,4.55157e-01,6.93702e-01,9.99992e-01
1.174706389e+00,4.29457e-01,9.99999e-01,9.99999e-01,6.14626e-01,6.98731e-01,9.99995e-01
1.180579921e+00,5.22537e-01,9.99999e-01,9.99999e-01,7.42562e-01,7.03697e-01,9.99997e-01
1.186482820e+00,5.98396e-01,9.99999e-01,9.99982e-01,8.44491e-01,7.08598e-01,9.99997e-01
1.192415234e+00,6.25581e-01,9.99999e-01,9.67015e-01,9.05909e-01,7.13436e-01,9.99997e-01
1.198377311e+00,3.53785e-01,9.99999e-01,5.27964e-01,9.20123e-01,7.18210e-01,9.99998e-01
1.204369197e+00,2.17240e-25,9.99999e-01,3.14506e-25,9.24401e-01,7.22921e-01,9.99998e-01
1.210391043e+00,1.33971e-101,9.99999e-01,1.92008e-101,9.27490e-01,7.27569e-01,9.99998e-01
1.216442998e+00,5.69660e-88,9.99999e-01,8.09550e-88,9.37972e-01,7.32154e-01,9.99998e-01
1.222525213e+00,1.19256e-86,9.99999e-01,1.66099e-86,9.51320e-01,7.36677e-01,9.99999e-01
1.228637839e+00,6.53892e-67,9.99999e-01,9.03144e-67,9.65934e-01,7.41137e-01,9.99999e-01
