#,Wave/freq,Total,O2,CO2,H2O,Rayleigh,CIA
4.000000000e-01,4.33236e-12,9.99999e-01,9.99999e-01,9.99948e-01,4.33258e-12,9.99999e-01
4.020000000e-01,7.26798e-12,9.99999e-01,9.99999e-01,9.99967e-01,7.26821e-12,9.99999e-01
4.040100000e-01,1.20625e-11,9.99999e-01,9.99999e-01,9.99986e-01,1.20626e-11,9.99999e-01
4.060300500e-01,1.98203e-11,9.99999e-01,9.99999e-01,9.99996e-01,1.98203e-11,9.99999e-01
4.080602003e-01,3.22492e-11,9.99999e-01,9.99999e-01,9.99998e-01,3.22492e-11,9.99999e-01
4.101005013e-01,5.19699e-11,9.99999e-01,9.99999e-01,9.99999e-01,5.19699e-11,9.99999e-01
4.121510038e-01,8.29641e-11,9.99999e-01,9.99999e-01,9.99997e-01,8.29643e-11,9.99999e-01
4.142117588e-01,1.31224e-10,9.99999e-01,9.99999e-01,9.99985e-01,1.31225e-10,9.99999e-01
4.162828176e-01,2.05676e-10,9.99999e-01,9.99999e-01,9.99936e-01,2.05689e-10,9.99999e-01
4.183642317e-01,3.19546e-10,9.99999e-01,9.99999e-01,9.99961e-01,3.19558e-10,9.99999e-01
4.204560528e-01,4.92151e-10,9.99999e-01,9.99999e-01,9.99976e-01,4.92162e-10,9.99999e-01
4.225583331e-01,7.51551e-10,9.99999e-01,9.99999e-01,9.99990e-01,7.51558e-10,9.99999e-01
4.246711247e-01,1.13810e-09,9.99999e-01,9.99999e-01,9.99992e-01,1.13811e-09,9.99999e-01
4.267944804e-01,1.70940e-09,9.99999e-01,9.99999e-01,9.99989e-01,1.70941e-09,9.99999e-01
4.289284528e-01,2.54693e-09,9.99999e-01,9.99999e-01,9.99991e-01,2.54695e-09,9.99999e-01
4.310730950e-01,3.76505e-09,9.99999e-01,9.99999e-01,9.99996e-01,3.76507e-09,9.99999e-01
4.332284605e-01,5.52296e-09,9.99999e-01,9.99999e-01,9.99998e-01,5.52296e-09,9.99999e-01
4.353946028e-01,8.04052e-09,9.99999e-01,9.99999e-01,9.99999e-01,8.04053e-09,9.99999e-01
4.375715758e-01,1.16191e-08,9.99999e-01,9.99999e-01,9.99993e-01,1.16192e-08,9.99999e-01
4.397594337e-01,1.66680e-08,9.99999e-01,9.99999e-01,9.99943e-01,1.66689e-08,9.99999e-01
4.419582309e-01,2.37367e-08,9.99999e-01,9.99999e-01,9.99714e-01,2.37435e-08,9.99999e-01
4.441680220e-01,3.35777e-08,9.99999e-01,9.99999e-01,9.99779e-01,3.35851e-08,9.99999e-01
4.463888621e-01,4.71708e-08,9.99999e-01,9.99999e-01,9.99769e-01,4.71817e-08,9.99999e-01
4.486208064e-01,6.58298e-08,9.99999e-01,9.99999e-01,9.99857e-01,6.58392e-08,9.99999e-01
4.508639105e-01,9.12658e-08,9.99999e-01,9.99999e-01,9.99932e-01,9.12719e-08,9.99999e-01
4.531182300e-01,1.25712e-07,9.99999e-01,9.99999e-01,9.99973e-01,1.25715e-07,9.99999e-01
4.553838212e-01,1.72062e-07,9.99999e-01,9.99999e-01,9.99981e-01,1.72065e-07,9.99999e-01
4.576607403e-01,2.34046e-07,9.99999e-01,9.99999e-01,9.99991e-01,2.34047e-07,9.99999e-01
4.599490440e-01,3.16427e-07,9.99999e-01,9.99999e-01,9.99993e-01,3.16429e-07,9.99999e-01
4.622487892e-01,4.25267e-07,9.99999e-01,9.99999e-01,9.99998e-01,4.25268e-07,9.99999e-01
4.645600332e-01,5.68212e-07,9.99999e-01,9.99999e-01,9.99995e-01,5.68214e-07,9.99999e-01
4.668828333e-01,7.54825e-07,9.99999e-01,9.99999e-01,9.99931e-01,7.54876e-07,9.99999e-01
4.692172475e-01,9.97104e-07,9.99999e-01,9.99999e-01,9.99855e-01,9.97247e-07,9.99999e-01
4.715633337e-01,1.31009e-06,9.99999e-01,9.99999e-01,9.99905e-01,1.31021e-06,9.99999e-01
4.739211504e-01,1.71198e-06,9.99999e-01,9.99999e-01,9.99909e-01,1.71214e-06,9.99999e-01
4.762907561e-01,2.22546e-06,9.99999e-01,9.99999e-01,9.99952e-01,2.22557e-06,9.99999e-01
4.786722099e-01,2.87796e-06,9.99999e-01,9.99999e-01,9.99980e-01,2.87801e-06,9.99999e-01
4.810655710e-01,3.70285e-06,9.99999e-01,9.99999e-01,9.99993e-01,3.70288e-06,9.99999e-01
4.834708988e-01,4.74023e-06,9.99999e-01,9.99999e-01,9.99943e-01,4.74050e-06,9.99999e-01
4.858882533e-01,6.03873e-06,9.99999e-01,9.99999e-01,9.99897e-01,6.03934e-06,9.99999e-01
4.883176946e-01,7.65669e-06,9.99999e-01,9.99999e-01,9.99914e-01,7.65734e-06,9.99999e-01
4.907592831e-01,9.66266e-06,9.99999e-01,9.99999e-01,9.99922e-01,9.66340e-06,9.99999e-01
4.932130795e-01,1.21384e-05,9.99999e-01,9.99999e-01,9.99944e-01,1.21391e-05,9.99999e-01
4.956791449e-01,1.51800e-05,9.99999e-01,9.99999e-01,9.99970e-01,1.51805e-05,9.99999e-01
4.981575406e-01,1.88975e-05,9.99999e-01,9.99999e-01,9.99854e-01,1.89002e-05,9.99999e-01
5.006483283e-01,2.34210e-05,9.99999e-01,9.99999e-01,9.99621e-01,2.34298e-05,9.99999e-01
5.031515699e-01,2.88668e-05,9.99999e-01,9.99999e-01,9.98094e-01,2.89219e-05,9.99999e-01
5.056673278e-01,3.55176e-05,9.99999e-01,9.99999e-01,9.98995e-01,3.55532e-05,9.99999e-01
5.081956644e-01,4.34721e-05,9.99999e-01,9.99999e-01,9.98733e-01,4.35272e-05,9.99999e-01
5.107366428e-01,5.30316e-05,9.99999e-01,9.99999e-01,9.99145e-01,5.30769e-05,9.99999e-01
5.132903260e-01,6.44373e-05,9.99999e-01,9.99999e-01,9.99511e-01,6.44688e-05,9.99999e-01
5.158567776e-01,7.79894e-05,9.99999e-01,9.99999e-01,9.99793e-01,7.80055e-05,9.99999e-01
5.184360615e-01,9.40221e-05,9.99999e-01,9.99999e-01,9.99917e-01,9.40299e-05,9.99999e-01
5.210282418e-01,1.12925e-04,9.99999e-01,9.99999e-01,9.99968e-01,1.12929e-04,9.99999e-01
5.236333830e-01,1.35119e-04,9.99999e-01,9.99999e-01,9.99875e-01,1.35136e-04,9.99999e-01
5.262515499e-01,1.61125e-04,9.99999e-01,9.99999e-01,9.99921e-01,1.61138e-04,9.99999e-01
5.288828077e-01,1.91463e-04,9.99999e-01,9.99999e-01,9.99928e-01,1.91476e-04,9.99999e-01
5.315272217e-01,2.26738e-04,9.99999e-01,9.99999e-01,9.99937e-01,2.26753e-04,9.99999e-01
5.341848578e-01,2.67622e-04,9.99999e-01,9.99999e-01,9.99958e-01,2.67633e-04,9.99999e-01
5.368557821e-01,3.14805e-04,9.99999e-01,9.99999e-01,9.99854e-01,3.14850e-04,9.99999e-01
5.395400610e-01,3.69018e-04,9.99999e-01,9.99999e-01,9.99474e-01,3.69211e-04,9.99999e-01
5.422377613e-01,4.31308e-04,9.99999e-01,9.99999e-01,9.99326e-01,4.31599e-04,9.99999e-01
5.449489501e-01,5.02658e-04,9.99999e-01,9.99999e-01,9.99371e-01,5.02974e-04,9.99999e-01
5.476736949e-01,5.84060e-04,9.99999e-01,9.99999e-01,9.99445e-01,5.84384e-04,9.99999e-01
5.504120634e-01,6.76689e-04,9.99999e-01,9.99999e-01,9.99597e-01,6.76961e-04,9.99999e-01
5.531641237e-01,7.81772e-04,9.99999e-01,9.99999e-01,9.99797e-01,7.81930e-04,9.99999e-01
5.559299443e-01,9.00520e-04,9.99999e-01,9.99999e-01,9.99901e-01,9.00608e-04,9.99999e-01
5.587095940e-01,1.03434e-03,9.99999e-01,9.99999e-01,9.99938e-01,1.03441e-03,9.99999e-01
5.615031420e-01,1.18476e-03,9.99999e-01,9.99999e-01,9.99931e-01,1.18484e-03,9.99999e-01
5.643106577e-01,1.35340e-03,9.99999e-01,9.99999e-01,9.99921e-01,1.35351e-03,9.99999e-01
5.671322110e-01,1.54067e-03,9.99999e-01,9.99999e-01,9.99048e-01,1.54213e-03,9.99999e-01
5.699678720e-01,1.75078e-03,9.99999e-01,9.99999e-01,9.99003e-01,1.75252e-03,9.99999e-01
5.728177114e-01,1.98451e-03,9.99999e-01,9.99999e-01,9.98955e-01,1.98659e-03,9.99999e-01
5.756818000e-01,2.24420e-03,9.99999e-01,9.99999e-01,9.99042e-01,2.24635e-03,9.99999e-01
5.785602090e-01,2.53180e-03,9.99999e-01,9.99999e-01,9.99166e-01,2.53391e-03,9.99999e-01
5.814530100e-01,2.84911e-03,9.99999e-01,9.99999e-01,9.99161e-01,2.85150e-03,9.99999e-01
5.843602750e-01,3.19820e-03,9.99999e-01,9.99999e-01,9.98997e-01,3.20141e-03,9.99999e-01
5.872820764e-01,3.55520e-03,9.99999e-01,9.99999e-01,9.91393e-01,3.58606e-03,9.99999e-01
5.902184868e-01,3.96634e-03,9.99999e-01,9.99999e-01,9.89624e-01,4.00793e-03,9.99999e-01
5.931695792e-01,4.43675e-03,9.99999e-01,9.99999e-01,9.92652e-01,4.46959e-03,9.99999e-01
5.961354271e-01,4.93370e-03,9.99999e-01,9.99999e-01,9.91954e-01,4.97372e-03,9.99999e-01
5.991161043e-01,5.49061e-03,9.99999e-01,9.99999e-01,9.94129e-01,5.52303e-03,9.99999e-01
6.021116848e-01,6.09993e-03,9.99999e-01,9.99999e-01,9.96667e-01,6.12033e-03,9.99999e-01
6.051222432e-01,6.75707e-03,9.99999e-01,9.99999e-01,9.98312e-01,6.76849e-03,9.99999e-01
6.081478544e-01,7.46497e-03,9.99999e-01,9.99999e-01,9.99271e-01,7.47041e-03,9.99999e-01
6.111885937e-01,8.22655e-03,9.99999e-01,9.99999e-01,9.99691e-01,8.22908e-03,9.99999e-01
6.142445367e-01,9.04625e-03,9.99999e-01,9.99999e-01,9.99862e-01,9.04750e-03,9.99999e-01
6.173157594e-01,9.92794e-03,9.99999e-01,9.99999e-01,9.99923e-01,9.92869e-03,9.99999e-01
6.204023382e-01,1.08750e-02,9.99999e-01,9.99999e-01,9.99935e-01,1.08757e-02,9.99999e-01
6.235043498e-01,1.18883e-02,9.99999e-01,9.99999e-01,9.99713e-01,1.18917e-02,9.99999e-01
6.266218716e-01,1.29601e-02,9.99999e-01,9.99999e-01,9.98499e-01,1.29796e-02,9.99999e-01
6.297549810e-01,1.41348e-02,9.99999e-01,9.99999e-01,9.99449e-01,1.41426e-02,9.99999e-01
6.329037559e-01,1.53670e-02,9.99999e-01,9.99999e-01,9.98913e-01,1.53837e-02,9.99999e-01
6.360682746e-01,1.66905e-02,9.99999e-01,9.99999e-01,9.99072e-01,1.67060e-02,9.99999e-01
6.392486160e-01,1.80906e-02,9.99999e-01,9.99999e-01,9.98799e-01,1.81123e-02,9.99999e-01
6.424448591e-01,1.95741e-02,9.99999e-01,9.99999e-01,9.98386e-01,1.96057e-02,9.99999e-01
6.456570834e-01,2.10309e-02,9.99999e-01,9.99999e-01,9.92532e-01,2.11891e-02,9.99999e-01
6.488853688e-01,2.27409e-02,9.99999e-01,9.99999e-01,9.94561e-01,2.28653e-02,9.99999e-01
6.521297956e-01,2.45004e-02,9.99999e-01,9.99999e-01,9.94457e-01,2.46369e-02,9.99999e-01
6.553904446e-01,2.63601e-02,9.99999e-01,9.99999e-01,9.94466e-01,2.65068e-02,9.99999e-01
6.586673968e-01,2.83427e-02,9.99999e-01,9.99999e-01,9.95270e-01,2.84773e-02,9.99999e-01
6.619607338e-01,3.04705e-02,9.99999e-01,9.99999e-01,9.97362e-01,3.05511e-02,9.99999e-01
6.652705375e-01,3.26786e-02,9.99999e-01,9.99999e-01,9.98416e-01,3.27304e-02,9.99999e-01
6.685968902e-01,3.49939e-02,9.99999e-01,9.99999e-01,9.99326e-01,3.50175e-02,9.99999e-01
6.719398746e-01,3.74016e-02,9.99999e-01,9.99999e-01,9.99658e-01,3.74144e-02,9.99999e-01
6.752995740e-01,3.99158e-02,9.99999e-01,9.99999e-01,9.99814e-01,3.99231e-02,9.99999e-01
6.786760719e-01,4.25341e-02,9.99999e-01,9.99999e-01,9.99731e-01,4.25455e-02,9.99999e-01
6.820694522e-01,4.52625e-02,9.99999e-01,9.99999e-01,9.99541e-01,4.52832e-02,9.99999e-01
6.854797995e-01,4.81093e-02,9.99999e-01,9.99999e-01,9.99408e-01,4.81378e-02,9.99999e-01
6.889071985e-01,5.10368e-02,9.99999e-01,9.99999e-01,9.98558e-01,5.11105e-02,9.99999e-01
6.923517345e-01,5.29472e-02,9.99999e-01,9.99999e-01,9.76837e-01,5.42026e-02,9.99999e-01
6.958134932e-01,5.67281e-02,9.99999e-01,9.99999e-01,9.88033e-01,5.74152e-02,9.99999e-01
6.992925606e-01,6.00497e-02,9.99999e-01,9.99999e-01,9.88489e-01,6.07490e-02,9.99999e-01
7.027890234e-01,6.32972e-02,9.99999e-01,9.99999e-01,9.85865e-01,6.42047e-02,9.99999e-01
7.063029686e-01,6.69760e-02,9.99999e-01,9.99999e-01,9.88094e-01,6.77829e-02,9.99999e-01
7.098344834e-01,7.06672e-02,9.99999e-01,9.99999e-01,9.88573e-01,7.14840e-02,9.99999e-01
7.133836558e-01,7.41566e-02,9.99999e-01,9.99999e-01,9.84712e-01,7.53080e-02,9.99998e-01
7.169505741e-01,7.01014e-02,9.99999e-01,9.99999e-01,8.84506e-01,7.92549e-02,9.99998e-01
7.205353270e-01,7.85043e-02,9.99999e-01,9.99999e-01,9.42151e-01,8.33246e-02,9.99997e-01
7.241380036e-01,8.10770e-02,9.99999e-01,9.99999e-01,9.26420e-01,8.75166e-02,9.99997e-01
7.277586936e-01,8.57150e-02,9.99999e-01,9.99999e-01,9.33405e-01,9.18305e-02,9.99998e-01
7.313974871e-01,8.94726e-02,9.99999e-01,9.99999e-01,9.29437e-01,9.62654e-02,9.99998e-01
7.350544745e-01,9.68629e-02,9.99999e-01,9.99999e-01,9.60745e-01,1.00821e-01,9.99998e-01
7.387297469e-01,1.02430e-01,9.99999e-01,9.99999e-01,9.70949e-01,1.05495e-01,9.99999e-01
7.424233956e-01,1.08709e-01,9.99999e-01,9.99999e-01,9.85692e-01,1.10287e-01,9.99999e-01
7.461355126e-01,1.14194e-01,9.99999e-01,9.99999e-01,9.91298e-01,1.15196e-01,9.99999e-01
7.498661902e-01,1.19733e-01,9.99999e-01,9.99999e-01,9.95946e-01,1.20220e-01,9.99999e-01
7.536155211e-01,1.25107e-01,9.99999e-01,9.99999e-01,9.98006e-01,1.25357e-01,9.99999e-01
7.573835987e-01,1.30472e-01,9.99999e-01,9.99999e-01,9.98973e-01,1.30606e-01,9.99999e-01
7.611705167e-01,1.35878e-01,9.99999e-01,9.99999e-01,9.99361e-01,1.35964e-01,9.99999e-01
7.649763693e-01,1.41374e-01,9.99999e-01,9.99999e-01,9.99599e-01,1.41430e-01,9.99999e-01
7.688012511e-01,1.46960e-01,9.99999e-01,9.99999e-01,9.99720e-01,1.47001e-01,9.99999e-01
7.726452574e-01,1.52640e-01,9.99999e-01,9.99999e-01,9.99770e-01,1.52675e-01,9.99999e-01
7.765084837e-01,1.58398e-01,9.99999e-01,9.99999e-01,9.99672e-01,1.58450e-01,9.99999e-01
7.803910261e-01,1.51775e-01,9.99999e-01,9.24863e-01,9.98584e-01,1.64322e-01,9.99999e-01
7.842929812e-01,1.17714e-01,9.99999e-01,6.94331e-01,9.95065e-01,1.70289e-01,9.99999e-01
7.882144461e-01,1.18531e-01,9.99999e-01,6.78402e-01,9.89904e-01,1.76349e-01,9.99999e-01
7.921555184e-01,1.43448e-01,9.99999e-01,7.90158e-01,9.94469e-01,1.82498e-01,9.99999e-01
7.961162960e-01,1.59548e-01,9.99999e-01,8.53557e-01,9.90183e-01,1.88734e-01,9.99999e-01
8.000968774e-01,1.76968e-01,9.99999e-01,9.17575e-01,9.88698e-01,1.95054e-01,9.99999e-01
8.040973618e-01,1.90515e-01,9.99999e-01,9.56464e-01,9.88688e-01,2.01454e-01,9.99999e-01
8.081178486e-01,1.98560e-01,9.99999e-01,9.79713e-01,9.74618e-01,2.07931e-01,9.99998e-01
8.121584379e-01,1.91595e-01,9.99999e-01,9.93725e-01,8.98792e-01,2.14483e-01,9.99998e-01
8.162192301e-01,1.94706e-01,9.99999e-01,9.98611e-01,8.81771e-01,2.21106e-01,9.99997e-01
8.203003262e-01,2.13981e-01,9.99999e-01,9.99980e-01,9.39369e-01,2.27796e-01,9.99997e-01
8.244018279e-01,2.15256e-01,9.99999e-01,9.99999e-01,9.17743e-01,2.34550e-01,9.99997e-01
8.285238370e-01,2.23803e-01,9.99999e-01,9.99999e-01,9.27239e-01,2.41365e-01,9.99998e-01
8.326664562e-01,2.30042e-01,9.99999e-01,9.99999e-01,9.26701e-01,2.48238e-01,9.99998e-01
8.368297885e-01,2.41637e-01,9.99999e-01,9.99999e-01,9.46982e-01,2.55165e-01,9.99998e-01
8.410139374e-01,2.53792e-01,9.99999e-01,9.99999e-01,9.68143e-01,2.62143e-01,9.99999e-01
8.452190071e-01,2.64930e-01,9.99999e-01,9.99999e-01,9.84255e-01,2.69168e-01,9.99999e-01
8.494451021e-01,2.73700e-01,9.99999e-01,9.99999e-01,9.90817e-01,2.76237e-01,9.99999e-01
8.536923276e-01,2.81808e-01,9.99999e-01,9.99999e-01,9.94570e-01,2.83347e-01,9.99999e-01
8.579607893e-01,2.89520e-01,9.99999e-01,9.99999e-01,9.96648e-01,2.90493e-01,9.99999e-01
8.622505932e-01,2.97040e-01,9.99999e-01,9.99999e-01,9.97872e-01,2.97674e-01,9.99999e-01
8.665618462e-01,2.67332e-01,9.99999e-01,8.77916e-01,9.98680e-01,3.04884e-01,9.99999e-01
8.708946554e-01,1.25986e-01,9.99999e-01,4.04210e-01,9.98487e-01,3.12122e-01,9.99999e-01
8.752491287e-01,1.51013e-01,9.99999e-01,4.73726e-01,9.97978e-01,3.19384e-01,9.99999e-01
8.796253743e-01,2.14427e-01,9.99999e-01,6.58131e-01,9.97196e-01,3.26666e-01,9.99999e-01
8.840235012e-01,2.67206e-01,9.99999e-01,8.02574e-01,9.96800e-01,3.33966e-01,9.99999e-01
8.884436187e-01,3.09289e-01,9.99999e-01,9.16747e-01,9.88287e-01,3.41279e-01,9.99998e-01
8.928858368e-01,2.97887e-01,9.99999e-01,9.65310e-01,8.84545e-01,3.48604e-01,9.99997e-01
8.973502660e-01,2.84670e-01,9.99999e-01,9.91489e-01,8.06304e-01,3.55936e-01,9.99996e-01
9.018370173e-01,3.25336e-01,9.99999e-01,9.99059e-01,8.96349e-01,3.63274e-01,9.99996e-01
9.063462024e-01,3.28767e-01,9.99999e-01,9.75995e-01,9.07238e-01,3.70613e-01,9.99995e-01
9.108779334e-01,3.07775e-01,9.99999e-01,9.45828e-01,8.59569e-01,3.77951e-01,9.99995e-01
9.154323231e-01,3.20392e-01,9.99999e-01,9.87081e-01,8.41896e-01,3.85285e-01,9.99995e-01
9.200094847e-01,2.92778e-01,9.99999e-01,8.40182e-01,8.74304e-01,3.92612e-01,9.99993e-01
9.246095321e-01,2.50265e-01,9.99999e-01,7.62178e-01,8.12827e-01,3.99930e-01,9.99989e-01
9.292325798e-01,9.15775e-02,9.99999e-01,8.09617e-01,2.66595e-01,4.07235e-01,9.99979e-01
9.338787427e-01,6.45384e-02,9.99999e-01,8.14759e-01,1.83988e-01,4.14526e-01,9.99973e-01
9.385481364e-01,1.85379e-01,9.99999e-01,8.59424e-01,5.02407e-01,4.21800e-01,9.99972e-01
9.432408771e-01,1.55254e-01,9.99999e-01,9.11220e-01,3.93082e-01,4.29054e-01,9.99969e-01
9.479570815e-01,1.15981e-01,9.99999e-01,9.53333e-01,2.77442e-01,4.36285e-01,9.99973e-01
9.526968669e-01,1.62341e-01,9.99999e-01,9.77264e-01,3.73164e-01,4.43492e-01,9.99979e-01
9.574603512e-01,1.75432e-01,9.99999e-01,9.90212e-01,3.92559e-01,4.50672e-01,9.99984e-01
9.622476530e-01,2.11477e-01,9.99999e-01,9.96938e-01,4.63150e-01,4.57823e-01,9.99989e-01
9.670588912e-01,2.97050e-01,9.99999e-01,9.99082e-01,6.39415e-01,4.64943e-01,9.99993e-01
9.718941857e-01,3.55006e-01,9.99999e-01,9.99935e-01,7.52126e-01,4.72030e-01,9.99995e-01
9.767536566e-01,3.78077e-01,9.99999e-01,9.99999e-01,7.89172e-01,4.79081e-01,9.99996e-01
9.816374249e-01,4.07726e-01,9.99999e-01,9.99999e-01,8.38777e-01,4.86096e-01,9.99997e-01
9.865456120e-01,4.41690e-01,9.99999e-01,9.99999e-01,8.95792e-01,4.93072e-01,9.99998e-01
9.914783401e-01,4.67071e-01,9.99999e-01,9.99999e-01,9.34129e-01,5.00007e-01,9.99999e-01
9.964357318e-01,4.88436e-01,9.99999e-01,9.99999e-01,9.63574e-01,5.06899e-01,9.99999e-01
1.001417910e+00,5.02449e-01,9.99999e-01,9.99999e-01,9.78005e-01,5.13748e-01,9.99999e-01
1.006425000e+00,5.13986e-01,9.99999e-01,9.99999e-01,9.87387e-01,5.20551e-01,9.99999e-01
1.011457125e+00,5.23177e-01,9.99999e-01,9.99999e-01,9.92165e-01,5.27308e-01,9.99999e-01
1.016514411e+00,5.31170e-01,9.99999e-01,9.99999e-01,9.94670e-01,5.34016e-01,9.99999e-01
1.021596983e+00,5.38302e-01,9.99999e-01,9.99859e-01,9.95750e-01,5.40674e-01,9.99999e-01
1.026704968e+00,5.40271e-01,9.99999e-01,9.90464e-01,9.96683e-01,5.47281e-01,9.99999e-01
1.031838492e+00,5.05676e-01,9.99999e-01,9.15133e-01,9.97591e-01,5.53837e-01,9.99999e-01
1.036997685e+00,3.54176e-02,9.99999e-01,6.32763e-02,9.98566e-01,5.60339e-01,9.99999e-01
1.042182673e+00,4.82278e-03,9.99999e-01,8.52055e-03,9.98288e-01,5.66786e-01,9.99999e-01
1.047393587e+00,1.06053e-02,9.99999e-01,1.85380e-02,9.97732e-01,5.73178e-01,9.99999e-01
1.052630555e+00,5.21502e-06,9.99999e-01,9.01706e-06,9.96887e-01,5.79514e-01,9.99999e-01
1.057893707e+00,1.94643e-05,9.99999e-01,3.33217e-05,9.94804e-01,5.85793e-01,9.99999e-01
1.063183176e+00,2.74710e-04,9.99999e-01,4.66422e-04,9.91469e-01,5.92014e-01,9.99999e-01
1.068499092e+00,2.01655e-03,9.99999e-01,3.40538e-03,9.85768e-01,5.98176e-01,9.99999e-01
1.073841587e+00,1.57101e-02,9.99999e-01,2.63271e-02,9.83356e-01,6.04278e-01,9.99999e-01
1.079210795e+00,6.06472e-02,9.99999e-01,1.01123e-01,9.78750e-01,6.10321e-01,9.99998e-01
1.084606849e+00,1.64754e-01,9.99999e-01,2.75255e-01,9.67993e-01,6.16302e-01,9.99998e-01
1.090029883e+00,3.03312e-01,9.99999e-01,5.09270e-01,9.54251e-01,6.22223e-01,9.99997e-01
1.095480033e+00,3.97580e-01,9.99999e-01,7.16610e-01,8.80386e-01,6.28082e-01,9.99996e-01
1.100957433e+00,3.92814e-01,9.99999e-01,8.51116e-01,7.25109e-01,6.33878e-01,9.99993e-01
1.106462220e+00,2.71320e-01,9.99999e-01,9.35484e-01,4.51023e-01,6.39612e-01,9.99987e-01
1.111994531e+00,1.22862e-01,9.99999e-01,9.75561e-01,1.94446e-01,6.45283e-01,9.99975e-01
1.117554504e+00,4.89089e-02,9.99999e-01,9.93996e-01,7.54365e-02,6.50891e-01,9.99965e-01
1.123142276e+00,1.09159e-01,9.99999e-01,9.99606e-01,1.66310e-01,6.56435e-01,9.99959e-01
1.128757988e+00,1.94621e-01,9.99999e-01,9.99999e-01,2.94039e-01,6.61916e-01,9.99955e-01
1.134401778e+00,8.98167e-02,9.99999e-01,9.99999e-01,1.34597e-01,6.67333e-01,9.99950e-01
1.140073787e+00,3.15627e-01,9.99999e-01,9.99999e-01,4.69223e-01,6.72685e-01,9.99959e-01
1.145774156e+00,1.50784e-01,9.99999e-01,9.99999e-01,2.22410e-01,6.77974e-01,9.99965e-01
1.151503026e+00,1.29927e-01,9.99999e-01,9.99999e-01,1.90179e-01,6.83199e-01,9.99970e-01
1.157260541e+00,1.59747e-01,9.99999e-01,9.99999e-01,2.32075e-01,6.88359e-01,9.99977e-01
1.163046844e+00,2.33811e-01,9.99999e-01,9.99999e-01,3.37173e-01,6.93456e-01,9.99985e-01
1.168862078e+00,3.22919e-01,9.99999e-01,9.99999e-01,4.62314e-01,6.98488e-01,9.99992e-01
1.174706389e+00,4.36513e-01,9.99999e-01,9.99999e-01,6.20527e-01,7.03456e-01,9.99995e-01
1.180579921e+00,5.29150e-01,9.99999e-01,9.99999e-01,7.47007e-01,7.08361e-01,9.99997e-01
1.186482820e+00,6.04291e-01,9.99999e-01,9.99979e-01,8.47309e-01,7.13202e-01,9.99997e-01
1.192415234e+00,6.30803e-01,9.99999e-01,9.67098e-01,9.07633e-01,7.17979e-01,9.99997e-01
1.198377311e+00,3.56391e-01,9.99999e-01,5.27869e-01,9.21523e-01,7.22693e-01,9.99998e-01
1.204369197e+00,5.84559e-25,9.99999e-01,8.40425e-25,9.25760e-01,7.27344e-01,9.99998e-01
1.210391043e+00,9.46829e-100,9.99999e-01,1.34786e-99,9.28809e-01,7.31932e-01,9.99998e-01
1.216442998e+00,2.24203e-86,9.99999e-01,3.16522e-86,9.39177e-01,7.36458e-01,9.99998e-01
1.222525213e+00,4.43879e-85,9.99999e-01,6.14395e-85,9.52250e-01,7.40921e-01,9.99999e-01
1.228637839e+00,1.05075e-65,9.99999e-01,1.44250e-65,9.66578e-01,7.45323e-01,9.99999e-01
