#,Wave/freq,Total,O2,CO2,H2O,Rayleigh,CIA
4.000000000e-01,8.20771e-14,9.99999e-01,9.99999e-01,9.99940e-01,8.20819e-14,9.99999e-01
4.020000000e-01,1.48926e-13,9.99999e-01,9.99999e-01,9.99963e-01,1.48932e-13,9.99999e-01
4.040100000e-01,2.66898e-13,9.99999e-01,9.99999e-01,9.99984e-01,2.66902e-13,9.99999e-01
4.060300500e-01,4.72837e-13,9.99999e-01,9.99999e-01,9.99995e-01,4.72838e-13,9.99999e-01
4.080602003e-01,8.28261e-13,9.99999e-01,9.99999e-01,9.99998e-01,8.28262e-13,9.99999e-01
4.101005013e-01,1.43487e-12,9.99999e-01,9.99999e-01,9.99999e-01,1.43487e-12,9.99999e-01
4.121510038e-01,2.45892e-12,9.99999e-01,9.99999e-01,9.99997e-01,2.45893e-12,9.99999e-01
4.142117588e-01,4.16918e-12,9.99999e-01,9.99999e-01,9.99983e-01,4.16925e-12,9.99999e-01
4.162828176e-01,6.99533e-12,9.99999e-01,9.99999e-01,9.99926e-01,6.99584e-12,9.99999e-01
4.183642317e-01,1.16188e-11,9.99999e-01,9.99999e-01,9.99956e-01,1.16193e-11,9.99999e-01
4.204560528e-01,1.91056e-11,9.99999e-01,9.99999e-01,9.99972e-01,1.91061e-11,9.99999e-01
4.225583331e-01,3.11093e-11,9.99999e-01,9.99999e-01,9.99989e-01,3.11096e-11,9.99999e-01
4.246711247e-01,5.01687e-11,9.99999e-01,9.99999e-01,9.99991e-01,5.01691e-11,9.99999e-01
4.267944804e-01,8.01444e-11,9.99999e-01,9.99999e-01,9.99987e-01,8.01453e-11,9.99999e-01
4.289284528e-01,1.26852e-10,9.99999e-01,9.99999e-01,9.99990e-01,1.26853e-10,9.99999e-01
4.310730950e-01,1.98968e-10,9.99999e-01,9.99999e-01,9.99995e-01,1.98969e-10,9.99999e-01
4.332284605e-01,3.09320e-10,9.99999e-01,9.99999e-01,9.99998e-01,3.09321e-10,9.99999e-01
4.353946028e-01,4.76702e-10,9.99999e-01,9.99999e-01,9.99999e-01,4.76702e-10,9.99999e-01
4.375715758e-01,7.28402e-10,9.99999e-01,9.99999e-01,9.99992e-01,7.28408e-10,9.99999e-01
4.397594337e-01,1.10367e-09,9.99999e-01,9.99999e-01,9.99935e-01,1.10374e-09,9.99999e-01
4.419582309e-01,1.65824e-09,9.99999e-01,9.99999e-01,9.99671e-01,1.65879e-09,9.99999e-01
4.441680220e-01,2.47236e-09,9.99999e-01,9.99999e-01,9.99746e-01,2.47299e-09,9.99999e-01
4.463888621e-01,3.65689e-09,9.99999e-01,9.99999e-01,9.99734e-01,3.65786e-09,9.99999e-01
4.486208064e-01,5.36788e-09,9.99999e-01,9.99999e-01,9.99835e-01,5.36876e-09,9.99999e-01
4.508639105e-01,7.81981e-09,9.99999e-01,9.99999e-01,9.99922e-01,7.82041e-09,9.99999e-01
4.531182300e-01,1.13069e-08,9.99999e-01,9.99999e-01,9.99969e-01,1.13073e-08,9.99999e-01
4.553838212e-01,1.62299e-08,9.99999e-01,9.99999e-01,9.99978e-01,1.62302e-08,9.99999e-01
4.576607403e-01,2.31305e-08,9.99999e-01,9.99999e-01,9.99990e-01,2.31307e-08,9.99999e-01
4.599490440e-01,3.27350e-08,9.99999e-01,9.99999e-01,9.99992e-01,3.27353e-08,9.99999e-01
4.622487892e-01,4.60111e-08,9.99999e-01,9.99999e-01,9.99998e-01,4.60111e-08,9.99999e-01
4.645600332e-01,6.42373e-08,9.99999e-01,9.99999e-01,9.99994e-01,6.42376e-08,9.99999e-01
4.668828333e-01,8.90881e-08,9.99999e-01,9.99999e-01,9.99921e-01,8.90950e-08,9.99999e-01
4.692172475e-01,1.22755e-07,9.99999e-01,9.99999e-01,9.99833e-01,1.22775e-07,9.99999e-01
4.715633337e-01,1.68101e-07,9.99999e-01,9.99999e-01,9.99891e-01,1.68120e-07,9.99999e-01
4.739211504e-01,2.28762e-07,9.99999e-01,9.99999e-01,9.99895e-01,2.28786e-07,9.99999e-01
4.762907561e-01,3.09438e-07,9.99999e-01,9.99999e-01,9.99945e-01,3.09455e-07,9.99999e-01
4.786722099e-01,4.16068e-07,9.99999e-01,9.99999e-01,9.99977e-01,4.16077e-07,9.99999e-01
4.810655710e-01,5.56171e-07,9.99999e-01,9.99999e-01,9.99992e-01,5.56174e-07,9.99999e-01
4.834708988e-01,7.39147e-07,9.99999e-01,9.99999e-01,9.99935e-01,7.39194e-07,9.99999e-01
4.858882533e-01,9.76821e-07,9.99999e-01,9.99999e-01,9.99882e-01,9.76935e-07,9.99999e-01
4.883176946e-01,1.28392e-06,9.99999e-01,9.99999e-01,9.99901e-01,1.28405e-06,9.99999e-01
4.907592831e-01,1.67847e-06,9.99999e-01,9.99999e-01,9.99910e-01,1.67861e-06,9.99999e-01
4.932130795e-01,2.18271e-06,9.99999e-01,9.99999e-01,9.99936e-01,2.18284e-06,9.99999e-01
4.956791449e-01,2.82375e-06,9.99999e-01,9.99999e-01,9.99966e-01,2.82384e-06,9.99999e-01
4.981575406e-01,3.63394e-06,9.99999e-01,9.99999e-01,9.99832e-01,3.63455e-06,9.99999e-01
5.006483283e-01,4.65271e-06,9.99999e-01,9.99999e-01,9.99564e-01,4.65474e-06,9.99999e-01
5.031515699e-01,5.91921e-06,9.99999e-01,9.99999e-01,9.97806e-01,5.93222e-06,9.99999e-01
5.056673278e-01,7.51548e-06,9.99999e-01,9.99999e-01,9.98843e-01,7.52418e-06,9.99999e-01
5.081956644e-01,9.48480e-06,9.99999e-01,9.99999e-01,9.98542e-01,9.49865e-06,9.99999e-01
5.107366428e-01,1.19244e-05,9.99999e-01,9.99999e-01,9.99015e-01,1.19362e-05,9.99999e-01
5.132903260e-01,1.49233e-05,9.99999e-01,9.99999e-01,9.99437e-01,1.49317e-05,9.99999e-01
5.158567776e-01,1.85922e-05,9.99999e-01,9.99999e-01,9.99762e-01,1.85966e-05,9.99999e-01
5.184360615e-01,2.30585e-05,9.99999e-01,9.99999e-01,9.99904e-01,2.30607e-05,9.99999e-01
5.210282418e-01,2.84743e-05,9.99999e-01,9.99999e-01,9.99963e-01,2.84753e-05,9.99999e-01
5.236333830e-01,3.50099e-05,9.99999e-01,9.99999e-01,9.99856e-01,3.50149e-05,9.99999e-01
5.262515499e-01,4.28772e-05,9.99999e-01,9.99999e-01,9.99910e-01,4.28811e-05,9.99999e-01
5.288828077e-01,5.23002e-05,9.99999e-01,9.99999e-01,9.99917e-01,5.23045e-05,9.99999e-01
5.315272217e-01,6.35444e-05,9.99999e-01,9.99999e-01,9.99927e-01,6.35490e-05,9.99999e-01
5.341848578e-01,7.69107e-05,9.99999e-01,9.99999e-01,9.99952e-01,7.69144e-05,9.99999e-01
5.368557821e-01,9.27250e-05,9.99999e-01,9.99999e-01,9.99832e-01,9.27404e-05,9.99999e-01
5.395400610e-01,1.11343e-04,9.99999e-01,9.99999e-01,9.99395e-01,1.11410e-04,9.99999e-01
5.422377613e-01,1.33251e-04,9.99999e-01,9.99999e-01,9.99224e-01,1.33355e-04,9.99999e-01
5.449489501e-01,1.58941e-04,9.99999e-01,9.99999e-01,9.99276e-01,1.59056e-04,9.99999e-01
5.476736949e-01,1.88930e-04,9.99999e-01,9.99999e-01,9.99361e-01,1.89051e-04,9.99999e-01
5.504120634e-01,2.23833e-04,9.99999e-01,9.99999e-01,9.99536e-01,2.23936e-04,9.99999e-01
5.531641237e-01,2.64312e-04,9.99999e-01,9.99999e-01,9.99766e-01,2.64374e-04,9.99999e-01
5.559299443e-01,3.11057e-04,9.99999e-01,9.99999e-01,9.99887e-01,3.11092e-04,9.99999e-01
5.587095940e-01,3.64865e-04,9.99999e-01,9.99999e-01,9.99928e-01,3.64891e-04,9.99999e-01
5.615031420e-01,4.26614e-04,9.99999e-01,9.99999e-01,9.99920e-01,4.26647e-04,9.99999e-01
5.643106577e-01,4.97272e-04,9.99999e-01,9.99999e-01,9.99909e-01,4.97317e-04,9.99999e-01
5.671322110e-01,5.77308e-04,9.99999e-01,9.99999e-01,9.98905e-01,5.77940e-04,9.99999e-01
5.699678720e-01,6.68875e-04,9.99999e-01,9.99999e-01,9.98851e-01,6.69644e-04,9.99999e-01
5.728177114e-01,7.72715e-04,9.99999e-01,9.99999e-01,9.98798e-01,7.73644e-04,9.99999e-01
5.756818000e-01,8.90270e-04,9.99999e-01,9.99999e-01,9.98898e-01,8.91251e-04,9.99999e-01
5.785602090e-01,1.02289e-03,9.99999e-01,9.99999e-01,9.99040e-01,1.02387e-03,9.99999e-01
5.814530100e-01,1.17187e-03,9.99999e-01,9.99999e-01,9.99034e-01,1.17301e-03,9.99999e-01
5.843602750e-01,1.33871e-03,9.99999e-01,9.99999e-01,9.98845e-01,1.34026e-03,9.99999e-01
5.872820764e-01,1.51222e-03,9.99999e-01,9.99999e-01,9.90103e-01,1.52733e-03,9.99999e-01
5.902184868e-01,1.71531e-03,9.99999e-01,9.99999e-01,9.88060e-01,1.73603e-03,9.99999e-01
5.931695792e-01,1.95163e-03,9.99999e-01,9.99999e-01,9.91545e-01,1.96827e-03,9.99999e-01
5.961354271e-01,2.20543e-03,9.99999e-01,9.99999e-01,9.90740e-01,2.22604e-03,9.99999e-01
5.991161043e-01,2.49448e-03,9.99999e-01,9.99999e-01,9.93241e-01,2.51145e-03,9.99999e-01
6.021116848e-01,2.81588e-03,9.99999e-01,9.99999e-01,9.96162e-01,2.82672e-03,9.99999e-01
6.051222432e-01,3.16798e-03,9.99999e-01,9.99999e-01,9.98056e-01,3.17414e-03,9.99999e-01
6.081478544e-01,3.55313e-03,9.99999e-01,9.99999e-01,9.99160e-01,3.55611e-03,9.99999e-01
6.111885937e-01,3.97371e-03,9.99999e-01,9.99999e-01,9.99645e-01,3.97512e-03,9.99999e-01
6.142445367e-01,4.43302e-03,9.99999e-01,9.99999e-01,9.99841e-01,4.43372e-03,9.99999e-01
6.173157594e-01,4.93416e-03,9.99999e-01,9.99999e-01,9.99912e-01,4.93459e-03,9.99999e-01
6.204023382e-01,5.48003e-03,9.99999e-01,9.99999e-01,9.99925e-01,5.48043e-03,9.99999e-01
6.235043498e-01,6.07206e-03,9.99999e-01,9.99999e-01,9.99670e-01,6.07406e-03,9.99999e-01
6.266218716e-01,6.70672e-03,9.99999e-01,9.99999e-01,9.98272e-01,6.71832e-03,9.99999e-01
6.297549810e-01,7.41144e-03,9.99999e-01,9.99999e-01,9.99365e-01,7.41613e-03,9.99999e-01
6.329037559e-01,8.16025e-03,9.99999e-01,9.99999e-01,9.98749e-01,8.17047e-03,9.99999e-01
6.360682746e-01,8.97473e-03,9.99999e-01,9.99999e-01,9.98932e-01,8.98432e-03,9.99999e-01
6.392486160e-01,9.84710e-03,9.99999e-01,9.99999e-01,9.98618e-01,9.86073e-03,9.99999e-01
6.424448591e-01,1.07827e-02,9.99999e-01,9.99999e-01,9.98143e-01,1.08027e-02,9.99999e-01
6.456570834e-01,1.17120e-02,9.99999e-01,9.99999e-01,9.91410e-01,1.18134e-02,9.99999e-01
6.488853688e-01,1.28152e-02,9.99999e-01,9.99999e-01,9.93739e-01,1.28959e-02,9.99999e-01
6.521297956e-01,1.39636e-02,9.99999e-01,9.99999e-01,9.93620e-01,1.40532e-02,9.99999e-01
6.553904446e-01,1.51910e-02,9.99999e-01,9.99999e-01,9.93631e-01,1.52884e-02,9.99999e-01
6.586673968e-01,1.65141e-02,9.99999e-01,9.99999e-01,9.94555e-01,1.66045e-02,9.99999e-01
6.619607338e-01,1.79498e-02,9.99999e-01,9.99999e-01,9.96962e-01,1.80044e-02,9.99999e-01
6.652705375e-01,1.94557e-02,9.99999e-01,9.99999e-01,9.98176e-01,1.94913e-02,9.99999e-01
6.685968902e-01,2.10515e-02,9.99999e-01,9.99999e-01,9.99224e-01,2.10678e-02,9.99999e-01
6.719398746e-01,2.27281e-02,9.99999e-01,9.99999e-01,9.99607e-01,2.27370e-02,9.99999e-01
6.752995740e-01,2.44962e-02,9.99999e-01,9.99999e-01,9.99786e-01,2.45014e-02,9.99999e-01
6.786760719e-01,2.63557e-02,9.99999e-01,9.99999e-01,9.99691e-01,2.63638e-02,9.99999e-01
6.820694522e-01,2.83119e-02,9.99999e-01,9.99999e-01,9.99472e-01,2.83268e-02,9.99999e-01
6.854797995e-01,3.03721e-02,9.99999e-01,9.99999e-01,9.99319e-01,3.03928e-02,9.99999e-01
6.889071985e-01,3.25102e-02,9.99999e-01,9.99999e-01,9.98341e-01,3.25641e-02,9.99999e-01
6.923517345e-01,3.39162e-02,9.99999e-01,9.99999e-01,9.73396e-01,3.48431e-02,9.99999e-01
6.958134932e-01,3.67190e-02,9.99999e-01,9.99999e-01,9.86226e-01,3.72318e-02,9.99999e-01
6.992925606e-01,3.92063e-02,9.99999e-01,9.99999e-01,9.86765e-01,3.97321e-02,9.99999e-01
7.027890234e-01,4.16575e-02,9.99999e-01,9.99999e-01,9.83742e-01,4.23460e-02,9.99999e-01
7.063029686e-01,4.44576e-02,9.99999e-01,9.99999e-01,9.86303e-01,4.50750e-02,9.99999e-01
7.098344834e-01,4.72908e-02,9.99999e-01,9.99999e-01,9.86852e-01,4.79208e-02,9.99999e-01
7.133836558e-01,4.99909e-02,9.99999e-01,9.99999e-01,9.82435e-01,5.08847e-02,9.99998e-01
7.169505741e-01,4.68746e-02,9.99999e-01,9.99999e-01,8.68566e-01,5.39678e-02,9.99997e-01
7.205353270e-01,5.33831e-02,9.99999e-01,9.99999e-01,9.33739e-01,5.71713e-02,9.99997e-01
7.241380036e-01,5.54075e-02,9.99999e-01,9.99999e-01,9.15886e-01,6.04961e-02,9.99997e-01
7.277586936e-01,5.90721e-02,9.99999e-01,9.99999e-01,9.23829e-01,6.39427e-02,9.99997e-01
7.313974871e-01,6.20595e-02,9.99999e-01,9.99999e-01,9.19239e-01,6.75118e-02,9.99998e-01
7.350544745e-01,6.79961e-02,9.99999e-01,9.99999e-01,9.54951e-01,7.12037e-02,9.99998e-01
7.387297469e-01,7.25147e-02,9.99999e-01,9.99999e-01,9.66623e-01,7.50185e-02,9.99999e-01
7.424233956e-01,7.76566e-02,9.99999e-01,9.99999e-01,9.83539e-01,7.89562e-02,9.99999e-01
7.461355126e-01,8.21854e-02,9.99999e-01,9.99999e-01,9.89984e-01,8.30168e-02,9.99999e-01
7.498661902e-01,8.67926e-02,9.99999e-01,9.99999e-01,9.95331e-01,8.71997e-02,9.99999e-01
7.536155211e-01,9.12945e-02,9.99999e-01,9.99999e-01,9.97704e-01,9.15045e-02,9.99999e-01
7.573835987e-01,9.58171e-02,9.99999e-01,9.99999e-01,9.98817e-01,9.59305e-02,9.99999e-01
7.611705167e-01,1.00403e-01,9.99999e-01,9.99999e-01,9.99265e-01,1.00477e-01,9.99999e-01
7.649763693e-01,1.05094e-01,9.99999e-01,9.99999e-01,9.99538e-01,1.05142e-01,9.99999e-01
7.688012511e-01,1.09890e-01,9.99999e-01,9.99999e-01,9.99678e-01,1.09926e-01,9.99999e-01
7.726452574e-01,1.14796e-01,9.99999e-01,9.99999e-01,9.99735e-01,1.14826e-01,9.99999e-01
7.765084837e-01,1.19796e-01,9.99999e-01,9.99999e-01,9.99622e-01,1.19841e-01,9.99999e-01
7.803910261e-01,1.14355e-01,9.99999e-01,9.16433e-01,9.98370e-01,1.24970e-01,9.99999e-01
7.842929812e-01,8.54321e-02,9.99999e-01,6.59421e-01,9.94323e-01,1.30211e-01,9.99999e-01
7.882144461e-01,8.62535e-02,9.99999e-01,6.43029e-01,9.88384e-01,1.35561e-01,9.99999e-01
7.921555184e-01,1.06970e-01,9.99999e-01,7.63112e-01,9.93631e-01,1.41019e-01,9.99999e-01
7.961162960e-01,1.20820e-01,9.99999e-01,8.33421e-01,9.88710e-01,1.46582e-01,9.99999e-01
8.000968774e-01,1.36119e-01,9.99999e-01,9.05739e-01,9.86997e-01,1.52248e-01,9.99999e-01
8.040973618e-01,1.48177e-01,9.99999e-01,9.50029e-01,9.86987e-01,1.58015e-01,9.99999e-01
8.081178486e-01,1.55412e-01,9.99999e-01,9.76673e-01,9.70857e-01,1.63880e-01,9.99998e-01
8.121584379e-01,1.49185e-01,9.99999e-01,9.92773e-01,8.84597e-01,1.69841e-01,9.99998e-01
8.162192301e-01,1.51977e-01,9.99999e-01,9.98399e-01,8.65340e-01,1.75894e-01,9.99997e-01
8.203003262e-01,1.69453e-01,9.99999e-01,9.99976e-01,9.30890e-01,1.82037e-01,9.99997e-01
8.244018279e-01,1.70639e-01,9.99999e-01,9.99999e-01,9.06374e-01,1.88266e-01,9.99997e-01
8.285238370e-01,1.78389e-01,9.99999e-01,9.99999e-01,9.16790e-01,1.94580e-01,9.99997e-01
8.326664562e-01,1.84128e-01,9.99999e-01,9.99999e-01,9.16179e-01,2.00974e-01,9.99998e-01
8.368297885e-01,1.94837e-01,9.99999e-01,9.99999e-01,9.39217e-01,2.07446e-01,9.99998e-01
8.410139374e-01,2.06162e-01,9.99999e-01,9.99999e-01,9.63408e-01,2.13992e-01,9.99999e-01
8.452190071e-01,2.16614e-01,9.99999e-01,9.99999e-01,9.81887e-01,2.20609e-01,9.99999e-01
8.494451021e-01,2.24893e-01,9.99999e-01,9.99999e-01,9.89432e-01,2.27294e-01,9.99999e-01
8.536923276e-01,2.32581e-01,9.99999e-01,9.99999e-01,9.93748e-01,2.34044e-01,9.99999e-01
8.579607893e-01,2.39925e-01,9.99999e-01,9.99999e-01,9.96140e-01,2.40855e-01,9.99999e-01
8.622505932e-01,2.47117e-01,9.99999e-01,9.99999e-01,9.97549e-01,2.47724e-01,9.99999e-01
8.665618462e-01,2.21366e-01,9.99999e-01,8.70544e-01,9.98480e-01,2.54647e-01,9.99999e-01
8.708946554e-01,9.33744e-02,9.99999e-01,3.57480e-01,9.98259e-01,2.61621e-01,9.99999e-01
8.752491287e-01,1.14184e-01,9.99999e-01,4.25966e-01,9.97672e-01,2.68642e-01,9.99999e-01
8.796253743e-01,1.70198e-01,9.99999e-01,6.19158e-01,9.96773e-01,2.75708e-01,9.99999e-01
8.840235012e-01,2.18864e-01,9.99999e-01,7.76621e-01,9.96316e-01,2.82815e-01,9.99999e-01
8.884436187e-01,2.58916e-01,9.99999e-01,9.04777e-01,9.86553e-01,2.89959e-01,9.99998e-01
8.928858368e-01,2.48069e-01,9.99999e-01,9.60154e-01,8.68631e-01,2.97137e-01,9.99997e-01
8.973502660e-01,2.35510e-01,9.99999e-01,9.90200e-01,7.81051e-01,3.04346e-01,9.99996e-01
9.018370173e-01,2.74517e-01,9.99999e-01,9.98916e-01,8.81921e-01,3.11582e-01,9.99996e-01
9.063462024e-01,2.77969e-01,9.99999e-01,9.72539e-01,8.94269e-01,3.18842e-01,9.99995e-01
9.108779334e-01,2.57638e-01,9.99999e-01,9.37902e-01,8.40522e-01,3.26122e-01,9.99994e-01
9.154323231e-01,2.69771e-01,9.99999e-01,9.85131e-01,8.20597e-01,3.33421e-01,9.99994e-01
9.200094847e-01,2.44778e-01,9.99999e-01,8.22322e-01,8.57040e-01,3.40733e-01,9.99993e-01
9.246095321e-01,2.03635e-01,9.99999e-01,7.31801e-01,7.89423e-01,3.48057e-01,9.99988e-01
9.292325798e-01,6.59064e-02,9.99999e-01,7.85123e-01,2.24578e-01,3.55389e-01,9.99976e-01
9.338787427e-01,4.41203e-02,9.99999e-01,7.90333e-01,1.46918e-01,3.62726e-01,9.99969e-01
9.385481364e-01,1.45612e-01,9.99999e-01,8.40103e-01,4.58018e-01,3.70065e-01,9.99968e-01
9.432408771e-01,1.19780e-01,9.99999e-01,8.98482e-01,3.48727e-01,3.77403e-01,9.99964e-01
9.479570815e-01,8.58515e-02,9.99999e-01,9.46455e-01,2.34261e-01,3.84738e-01,9.99969e-01
9.526968669e-01,1.25166e-01,9.99999e-01,9.73864e-01,3.26279e-01,3.92066e-01,9.99976e-01
9.574603512e-01,1.36284e-01,9.99999e-01,9.88735e-01,3.44496e-01,3.99384e-01,9.99982e-01
9.622476530e-01,1.68272e-01,9.99999e-01,9.96474e-01,4.15004e-01,4.06691e-01,9.99988e-01
9.670588912e-01,2.47946e-01,9.99999e-01,9.98943e-01,5.99479e-01,4.13983e-01,9.99992e-01
9.718941857e-01,3.03664e-01,9.99999e-01,9.99925e-01,7.20895e-01,4.21258e-01,9.99995e-01
9.767536566e-01,3.26435e-01,9.99999e-01,9.99999e-01,7.61786e-01,4.28513e-01,9.99996e-01
9.816374249e-01,3.55960e-01,9.99999e-01,9.99999e-01,8.16898e-01,4.35746e-01,9.99997e-01
9.865456120e-01,3.90258e-01,9.99999e-01,9.99999e-01,8.81033e-01,4.42955e-01,9.99998e-01
9.914783401e-01,4.16172e-01,9.99999e-01,9.99999e-01,9.24543e-01,4.50137e-01,9.99999e-01
9.964357318e-01,4.38165e-01,9.99999e-01,9.99999e-01,9.58174e-01,4.57291e-01,9.99999e-01
1.001417910e+00,4.52670e-01,9.99999e-01,9.99999e-01,9.74713e-01,4.64413e-01,9.99999e-01
1.006425000e+00,4.64661e-01,9.99999e-01,9.99999e-01,9.85490e-01,4.71502e-01,9.99999e-01
1.011457125e+00,4.74241e-01,9.99999e-01,9.99999e-01,9.90981e-01,4.78557e-01,9.99999e-01
1.016514411e+00,4.82595e-01,9.99999e-01,9.99999e-01,9.93865e-01,4.85574e-01,9.99999e-01
1.021596983e+00,4.90065e-01,9.99999e-01,9.99839e-01,9.95107e-01,4.92553e-01,9.99999e-01
1.026704968e+00,4.92145e-01,9.99999e-01,9.89056e-01,9.96181e-01,4.99491e-01,9.99999e-01
1.031838492e+00,4.58286e-01,9.99999e-01,9.07392e-01,9.97226e-01,5.06387e-01,9.99999e-01
1.036997685e+00,2.80315e-02,9.99999e-01,5.46850e-02,9.98349e-01,5.13239e-01,9.99999e-01
1.042182673e+00,2.49245e-03,9.99999e-01,4.80008e-03,9.98029e-01,5.20046e-01,9.99999e-01
1.047393587e+00,6.08863e-03,9.99999e-01,1.15829e-02,9.97389e-01,5.26805e-01,9.99999e-01
1.052630555e+00,1.21506e-06,9.99999e-01,2.28265e-06,9.96417e-01,5.33517e-01,9.99999e-01
1.057893707e+00,4.60521e-06,9.99999e-01,8.55233e-06,9.94021e-01,5.40179e-01,9.99999e-01
1.063183176e+00,9.45619e-05,9.99999e-01,1.73940e-04,9.90186e-01,5.46790e-01,9.99999e-01
1.068499092e+00,8.42792e-04,9.99999e-01,1.54020e-03,9.83633e-01,5.53350e-01,9.99999e-01
1.073841587e+00,8.60538e-03,9.99999e-01,1.55889e-02,9.80869e-01,5.59856e-01,9.99999e-01
1.079210795e+00,4.06144e-02,9.99999e-01,7.31431e-02,9.75575e-01,5.66307e-01,9.99998e-01
1.084606849e+00,1.26107e-01,9.99999e-01,2.27624e-01,9.63252e-01,5.72704e-01,9.99998e-01
1.090029883e+00,2.53745e-01,9.99999e-01,4.60611e-01,9.47570e-01,5.79044e-01,9.99997e-01
1.095480033e+00,3.46169e-01,9.99999e-01,6.81718e-01,8.63726e-01,5.85327e-01,9.99996e-01
1.100957433e+00,3.41604e-01,9.99999e-01,8.30667e-01,6.91431e-01,5.91552e-01,9.99993e-01
1.106462220e+00,2.24618e-01,9.99999e-01,9.26089e-01,4.02988e-01,5.97718e-01,9.99985e-01
1.111994531e+00,9.13901e-02,9.99999e-01,9.71908e-01,1.54990e-01,6.03825e-01,9.99971e-01
1.117554504e+00,3.24566e-02,9.99999e-01,9.93086e-01,5.34480e-02,6.09872e-01,9.99960e-01
1.123142276e+00,8.18414e-02,9.99999e-01,9.99546e-01,1.32905e-01,6.15858e-01,9.99953e-01
1.128757988e+00,1.54608e-01,9.99999e-01,9.99999e-01,2.48665e-01,6.21783e-01,9.99948e-01
1.134401778e+00,7.03878e-02,9.99999e-01,9.99999e-01,1.12152e-01,6.27647e-01,9.99942e-01
1.140073787e+00,2.66810e-01,9.99999e-01,9.99999e-01,4.21221e-01,6.33448e-01,9.99953e-01
1.145774156e+00,1.16512e-01,9.99999e-01,9.99999e-01,1.82289e-01,6.39186e-01,9.99960e-01
1.151503026e+00,9.84086e-02,9.99999e-01,9.99999e-01,1.52609e-01,6.44862e-01,9.99966e-01
1.157260541e+00,1.22679e-01,9.99999e-01,9.99999e-01,1.88604e-01,6.50475e-01,9.99974e-01
1.163046844e+00,1.89291e-01,9.99999e-01,9.99999e-01,2.88548e-01,6.56024e-01,9.99983e-01
1.168862078e+00,2.72873e-01,9.99999e-01,9.99999e-01,4.12504e-01,6.61509e-01,9.99991e-01
1.174706389e+00,3.85551e-01,9.99999e-01,9.99999e-01,5.78100e-01,6.66931e-01,9.99995e-01
1.180579921e+00,4.80774e-01,9.99999e-01,9.99999e-01,7.15132e-01,6.72288e-01,9.99996e-01
1.186482820e+00,5.59943e-01,9.99999e-01,9.99976e-01,8.26401e-01,6.77582e-01,9.99997e-01
1.192415234e+00,5.88554e-01,9.99999e-01,9.62539e-01,8.94424e-01,6.82811e-01,9.99997e-01
1.198377311e+00,3.31091e-01,9.99999e-01,5.20438e-01,9.10217e-01,6.87977e-01,9.99997e-01
1.204369197e+00,2.12172e-28,9.99999e-01,3.22299e-28,9.15071e-01,6.93078e-01,9.99998e-01
1.210391043e+00,1.60001e-114,9.99999e-01,2.40294e-114,9.18513e-01,6.98115e-01,9.99998e-01
1.216442998e+00,4.02947e-99,9.99999e-01,5.99390e-99,9.30314e-01,7.03088e-01,9.99998e-01
1.222525213e+00,1.25329e-97,9.99999e-01,1.82237e-97,9.45223e-01,7.07997e-01,9.99999e-01
1.228637839e+00,2.44870e-75,9.99999e-01,3.52690e-75,9.61616e-01,7.12843e-01,9.99999e-01
