#,Wave/freq,Total,O2,CO2,H2O,Rayleigh,CIA
4.000000000e-01,2.44176e-14,9.99999e-01,9.99999e-01,9.99938e-01,2.44191e-14,9.99999e-01
4.020000000e-01,4.53801e-14,9.99999e-01,9.99999e-01,9.99961e-01,4.53818e-14,9.99999e-01
4.040100000e-01,8.32597e-14,9.99999e-01,9.99999e-01,9.99983e-01,8.32610e-14,9.99999e-01
4.060300500e-01,1.50936e-13,9.99999e-01,9.99999e-01,9.99995e-01,1.50937e-13,9.99999e-01
4.080602003e-01,2.70424e-13,9.99999e-01,9.99999e-01,9.99998e-01,2.70424e-13,9.99999e-01
4.101005013e-01,4.78954e-13,9.99999e-01,9.99999e-01,9.99999e-01,4.78954e-13,9.99999e-01
4.121510038e-01,8.38760e-13,9.99999e-01,9.99999e-01,9.99997e-01,8.38762e-13,9.99999e-01
4.142117588e-01,1.45268e-12,9.99999e-01,9.99999e-01,9.99982e-01,1.45270e-12,9.99999e-01
4.162828176e-01,2.48869e-12,9.99999e-01,9.99999e-01,9.99923e-01,2.48888e-12,9.99999e-01
4.183642317e-01,4.21882e-12,9.99999e-01,9.99999e-01,9.99954e-01,4.21901e-12,9.99999e-01
4.204560528e-01,7.07749e-12,9.99999e-01,9.99999e-01,9.99971e-01,7.07768e-12,9.99999e-01
4.225583331e-01,1.17525e-11,9.99999e-01,9.99999e-01,9.99989e-01,1.17526e-11,9.99999e-01
4.246711247e-01,1.93207e-11,9.99999e-01,9.99999e-01,9.99991e-01,1.93208e-11,9.99999e-01
4.267944804e-01,3.14520e-11,9.99999e-01,9.99999e-01,9.99987e-01,3.14523e-11,9.99999e-01
4.289284528e-01,5.07103e-11,9.99999e-01,9.99999e-01,9.99990e-01,5.07108e-11,9.99999e-01
4.310730950e-01,8.09932e-11,9.99999e-01,9.99999e-01,9.99995e-01,8.09935e-11,9.99999e-01
4.332284605e-01,1.28169e-10,9.99999e-01,9.99999e-01,9.99998e-01,1.28169e-10,9.99999e-01
4.353946028e-01,2.00992e-10,9.99999e-01,9.99999e-01,9.99999e-01,2.00992e-10,9.99999e-01
4.375715758e-01,3.12401e-10,9.99999e-01,9.99999e-01,9.99991e-01,3.12403e-10,9.99999e-01
4.397594337e-01,4.81326e-10,9.99999e-01,9.99999e-01,9.99932e-01,4.81358e-10,9.99999e-01
4.419582309e-01,7.35132e-10,9.99999e-01,9.99999e-01,9.99660e-01,7.35381e-10,9.99999e-01
4.441680220e-01,1.11380e-09,9.99999e-01,9.99999e-01,9.99735e-01,1.11409e-09,9.99999e-01
4.463888621e-01,1.67358e-09,9.99999e-01,9.99999e-01,9.99724e-01,1.67404e-09,9.99999e-01
4.486208064e-01,2.49485e-09,9.99999e-01,9.99999e-01,9.99828e-01,2.49528e-09,9.99999e-01
4.508639105e-01,3.68988e-09,9.99999e-01,9.99999e-01,9.99919e-01,3.69018e-09,9.99999e-01
4.531182300e-01,5.41509e-09,9.99999e-01,9.99999e-01,9.99967e-01,5.41526e-09,9.99999e-01
4.553838212e-01,7.88663e-09,9.99999e-01,9.99999e-01,9.99978e-01,7.88680e-09,9.99999e-01
4.576607403e-01,1.14013e-08,9.99999e-01,9.99999e-01,9.99989e-01,1.14014e-08,9.99999e-01
4.599490440e-01,1.63625e-08,9.99999e-01,9.99999e-01,9.99992e-01,1.63626e-08,9.99999e-01
4.622487892e-01,2.33156e-08,9.99999e-01,9.99999e-01,9.99998e-01,2.33156e-08,9.99999e-01
4.645600332e-01,3.29916e-08,9.99999e-01,9.99999e-01,9.99994e-01,3.29918e-08,9.99999e-01
4.668828333e-01,4.63607e-08,9.99999e-01,9.99999e-01,9.99918e-01,4.63645e-08,9.99999e-01
4.692172475e-01,6.47100e-08,9.99999e-01,9.99999e-01,9.99826e-01,6.47212e-08,9.99999e-01
4.715633337e-01,8.97423e-08,9.99999e-01,9.99999e-01,9.99886e-01,8.97524e-08,9.99999e-01
4.739211504e-01,1.23650e-07,9.99999e-01,9.99999e-01,9.99891e-01,1.23663e-07,9.99999e-01
4.762907561e-01,1.69302e-07,9.99999e-01,9.99999e-01,9.99943e-01,1.69311e-07,9.99999e-01
4.786722099e-01,2.30370e-07,9.99999e-01,9.99999e-01,9.99976e-01,2.30376e-07,9.99999e-01
4.810655710e-01,3.11560e-07,9.99999e-01,9.99999e-01,9.99992e-01,3.11562e-07,9.99999e-01
4.834708988e-01,4.18827e-07,9.99999e-01,9.99999e-01,9.99933e-01,4.18855e-07,9.99999e-01
4.858882533e-01,5.59745e-07,9.99999e-01,9.99999e-01,9.99877e-01,5.59814e-07,9.99999e-01
4.883176946e-01,7.43859e-07,9.99999e-01,9.99999e-01,9.99897e-01,7.43935e-07,9.99999e-01
4.907592831e-01,9.82986e-07,9.99999e-01,9.99999e-01,9.99907e-01,9.83077e-07,9.99999e-01
4.932130795e-01,1.29187e-06,9.99999e-01,9.99999e-01,9.99933e-01,1.29196e-06,9.99999e-01
4.956791449e-01,1.68869e-06,9.99999e-01,9.99999e-01,9.99964e-01,1.68875e-06,9.99999e-01
4.981575406e-01,2.19538e-06,9.99999e-01,9.99999e-01,9.99825e-01,2.19577e-06,9.99999e-01
5.006483283e-01,2.83895e-06,9.99999e-01,9.99999e-01,9.99549e-01,2.84023e-06,9.99999e-01
5.031515699e-01,3.64689e-06,9.99999e-01,9.99999e-01,9.97720e-01,3.65522e-06,9.99999e-01
5.056673278e-01,4.67506e-06,9.99999e-01,9.99999e-01,9.98796e-01,4.68069e-06,9.99999e-01
5.081956644e-01,5.95559e-06,9.99999e-01,9.99999e-01,9.98482e-01,5.96464e-06,9.99999e-01
5.107366428e-01,7.55673e-06,9.99999e-01,9.99999e-01,9.98974e-01,7.56448e-06,9.99999e-01
5.132903260e-01,9.54293e-06,9.99999e-01,9.99999e-01,9.99414e-01,9.54852e-06,9.99999e-01
5.158567776e-01,1.19946e-05,9.99999e-01,9.99999e-01,9.99752e-01,1.19976e-05,9.99999e-01
5.184360615e-01,1.50055e-05,9.99999e-01,9.99999e-01,9.99900e-01,1.50070e-05,9.99999e-01
5.210282418e-01,1.86878e-05,9.99999e-01,9.99999e-01,9.99962e-01,1.86885e-05,9.99999e-01
5.236333830e-01,2.31691e-05,9.99999e-01,9.99999e-01,9.99851e-01,2.31725e-05,9.99999e-01
5.262515499e-01,2.86079e-05,9.99999e-01,9.99999e-01,9.99906e-01,2.86106e-05,9.99999e-01
5.288828077e-01,3.51750e-05,9.99999e-01,9.99999e-01,9.99914e-01,3.51780e-05,9.99999e-01
5.315272217e-01,4.30736e-05,9.99999e-01,9.99999e-01,9.99924e-01,4.30768e-05,9.99999e-01
5.341848578e-01,5.25359e-05,9.99999e-01,9.99999e-01,9.99950e-01,5.25385e-05,9.99999e-01
5.368557821e-01,6.38166e-05,9.99999e-01,9.99999e-01,9.99826e-01,6.38277e-05,9.99999e-01
5.395400610e-01,7.71967e-05,9.99999e-01,9.99999e-01,9.99374e-01,7.72450e-05,9.99999e-01
5.422377613e-01,9.30561e-05,9.99999e-01,9.99999e-01,9.99192e-01,9.31312e-05,9.99999e-01
5.449489501e-01,1.11787e-04,9.99999e-01,9.99999e-01,9.99248e-01,1.11871e-04,9.99999e-01
5.476736949e-01,1.33806e-04,9.99999e-01,9.99999e-01,9.99335e-01,1.33895e-04,9.99999e-01
5.504120634e-01,1.59610e-04,9.99999e-01,9.99999e-01,9.99517e-01,1.59687e-04,9.99999e-01
5.531641237e-01,1.89740e-04,9.99999e-01,9.99999e-01,9.99756e-01,1.89786e-04,9.99999e-01
5.559299443e-01,2.24764e-04,9.99999e-01,9.99999e-01,9.99882e-01,2.24790e-04,9.99999e-01
5.587095940e-01,2.65343e-04,9.99999e-01,9.99999e-01,9.99926e-01,2.65362e-04,9.99999e-01
5.615031420e-01,3.12206e-04,9.99999e-01,9.99999e-01,9.99917e-01,3.12232e-04,9.99999e-01
5.643106577e-01,3.66167e-04,9.99999e-01,9.99999e-01,9.99906e-01,3.66201e-04,9.99999e-01
5.671322110e-01,4.27665e-04,9.99999e-01,9.99999e-01,9.98870e-01,4.28149e-04,9.99999e-01
5.699678720e-01,4.98435e-04,9.99999e-01,9.99999e-01,9.98801e-01,4.99033e-04,9.99999e-01
5.728177114e-01,5.79171e-04,9.99999e-01,9.99999e-01,9.98750e-01,5.79895e-04,9.99999e-01
5.756818000e-01,6.71094e-04,9.99999e-01,9.99999e-01,9.98853e-01,6.71864e-04,9.99999e-01
5.785602090e-01,7.75383e-04,9.99999e-01,9.99999e-01,9.99000e-01,7.76158e-04,9.99999e-01
5.814530100e-01,8.93193e-04,9.99999e-01,9.99999e-01,9.98996e-01,8.94090e-04,9.99999e-01
5.843602750e-01,1.02584e-03,9.99999e-01,9.99999e-01,9.98802e-01,1.02707e-03,9.99999e-01
5.872820764e-01,1.16452e-03,9.99999e-01,9.99999e-01,9.89736e-01,1.17660e-03,9.99999e-01
5.902184868e-01,1.32758e-03,9.99999e-01,9.99999e-01,9.87573e-01,1.34428e-03,9.99999e-01
5.931695792e-01,1.51836e-03,9.99999e-01,9.99999e-01,9.91210e-01,1.53183e-03,9.99999e-01
5.961354271e-01,1.72427e-03,9.99999e-01,9.99999e-01,9.90366e-01,1.74104e-03,9.99999e-01
5.991161043e-01,1.95994e-03,9.99999e-01,9.99999e-01,9.92964e-01,1.97383e-03,9.99999e-01
6.021116848e-01,2.22328e-03,9.99999e-01,9.99999e-01,9.96002e-01,2.23220e-03,9.99999e-01
6.051222432e-01,2.51318e-03,9.99999e-01,9.99999e-01,9.97975e-01,2.51827e-03,9.99999e-01
6.081478544e-01,2.83177e-03,9.99999e-01,9.99999e-01,9.99126e-01,2.83424e-03,9.99999e-01
6.111885937e-01,3.18125e-03,9.99999e-01,9.99999e-01,9.99630e-01,3.18242e-03,9.99999e-01
6.142445367e-01,3.56462e-03,9.99999e-01,9.99999e-01,9.99834e-01,3.56521e-03,9.99999e-01
6.173157594e-01,3.98472e-03,9.99999e-01,9.99999e-01,9.99908e-01,3.98508e-03,9.99999e-01
6.204023382e-01,4.44427e-03,9.99999e-01,9.99999e-01,9.99922e-01,4.44462e-03,9.99999e-01
6.235043498e-01,4.94479e-03,9.99999e-01,9.99999e-01,9.99659e-01,4.94647e-03,9.99999e-01
6.266218716e-01,5.48350e-03,9.99999e-01,9.99999e-01,9.98203e-01,5.49337e-03,9.99999e-01
6.297549810e-01,6.08410e-03,9.99999e-01,9.99999e-01,9.99340e-01,6.08811e-03,9.99999e-01
6.329037559e-01,6.72479e-03,9.99999e-01,9.99999e-01,9.98697e-01,6.73356e-03,9.99999e-01
6.360682746e-01,7.42438e-03,9.99999e-01,9.99999e-01,9.98890e-01,7.43262e-03,9.99999e-01
6.392486160e-01,8.17651e-03,9.99999e-01,9.99999e-01,9.98562e-01,8.18827e-03,9.99999e-01
6.424448591e-01,8.98619e-03,9.99999e-01,9.99999e-01,9.98075e-01,9.00351e-03,9.99999e-01
6.456570834e-01,9.79339e-03,9.99999e-01,9.99999e-01,9.91095e-01,9.88137e-03,9.99999e-01
6.488853688e-01,1.07544e-02,9.99999e-01,9.99999e-01,9.93481e-01,1.08249e-02,9.99999e-01
6.521297956e-01,1.17586e-02,9.99999e-01,9.99999e-01,9.93357e-01,1.18372e-02,9.99999e-01
6.553904446e-01,1.28358e-02,9.99999e-01,9.99999e-01,9.93380e-01,1.29213e-02,9.99999e-01
6.586673968e-01,1.40006e-02,9.99999e-01,9.99999e-01,9.94332e-01,1.40804e-02,9.99999e-01
6.619607338e-01,1.52689e-02,9.99999e-01,9.99999e-01,9.96837e-01,1.53173e-02,9.99999e-01
6.652705375e-01,1.66037e-02,9.99999e-01,9.99999e-01,9.98100e-01,1.66353e-02,9.99999e-01
6.685968902e-01,1.80213e-02,9.99999e-01,9.99999e-01,9.99117e-01,1.80372e-02,9.99999e-01
6.719398746e-01,1.95181e-02,9.99999e-01,9.99999e-01,9.99590e-01,1.95261e-02,9.99999e-01
6.752995740e-01,2.11000e-02,9.99999e-01,9.99999e-01,9.99777e-01,2.11047e-02,9.99999e-01
6.786760719e-01,2.27687e-02,9.99999e-01,9.99999e-01,9.99679e-01,2.27760e-02,9.99999e-01
6.820694522e-01,2.45292e-02,9.99999e-01,9.99999e-01,9.99451e-01,2.45426e-02,9.99999e-01
6.854797995e-01,2.63886e-02,9.99999e-01,9.99999e-01,9.99292e-01,2.64073e-02,9.99999e-01
6.889071985e-01,2.83240e-02,9.99999e-01,9.99999e-01,9.98286e-01,2.83726e-02,9.99999e-01
6.923517345e-01,2.96013e-02,9.99999e-01,9.99999e-01,9.72416e-01,3.04409e-02,9.99999e-01
6.958134932e-01,3.21451e-02,9.99999e-01,9.99999e-01,9.85602e-01,3.26147e-02,9.99999e-01
6.992925606e-01,3.44170e-02,9.99999e-01,9.99999e-01,9.86270e-01,3.48961e-02,9.99999e-01
7.027890234e-01,3.66566e-02,9.99999e-01,9.99999e-01,9.83084e-01,3.72873e-02,9.99999e-01
7.063029686e-01,3.92233e-02,9.99999e-01,9.99999e-01,9.85752e-01,3.97902e-02,9.99999e-01
7.098344834e-01,4.18267e-02,9.99999e-01,9.99999e-01,9.86324e-01,4.24066e-02,9.99999e-01
7.133836558e-01,4.43176e-02,9.99999e-01,9.99999e-01,9.81817e-01,4.51383e-02,9.99998e-01
7.169505741e-01,4.14622e-02,9.99999e-01,9.99999e-01,8.64034e-01,4.79868e-02,9.99997e-01
7.205353270e-01,4.74316e-02,9.99999e-01,9.99999e-01,9.30884e-01,5.09533e-02,9.99997e-01
7.241380036e-01,4.93262e-02,9.99999e-01,9.99999e-01,9.12785e-01,5.40392e-02,9.99997e-01
7.277586936e-01,5.27219e-02,9.99999e-01,9.99999e-01,9.20980e-01,5.72455e-02,9.99997e-01
7.313974871e-01,5.54856e-02,9.99999e-01,9.99999e-01,9.16013e-01,6.05730e-02,9.99998e-01
7.350544745e-01,6.10225e-02,9.99999e-01,9.99999e-01,9.53143e-01,6.40224e-02,9.99998e-01
7.387297469e-01,6.52462e-02,9.99999e-01,9.99999e-01,9.65263e-01,6.75943e-02,9.99999e-01
7.424233956e-01,7.00661e-02,9.99999e-01,9.99999e-01,9.82847e-01,7.12889e-02,9.99999e-01
7.461355126e-01,7.43231e-02,9.99999e-01,9.99999e-01,9.89568e-01,7.51065e-02,9.99999e-01
7.498661902e-01,7.86623e-02,9.99999e-01,9.99999e-01,9.95131e-01,7.90471e-02,9.99999e-01
7.536155211e-01,8.29117e-02,9.99999e-01,9.99999e-01,9.97608e-01,8.31104e-02,9.99999e-01
7.573835987e-01,8.71886e-02,9.99999e-01,9.99999e-01,9.98768e-01,8.72961e-02,9.99999e-01
7.611705167e-01,9.15336e-02,9.99999e-01,9.99999e-01,9.99234e-01,9.16036e-02,9.99999e-01
7.649763693e-01,9.59863e-02,9.99999e-01,9.99999e-01,9.99519e-01,9.60323e-02,9.99999e-01
7.688012511e-01,1.00548e-01,9.99999e-01,9.99999e-01,9.99665e-01,1.00581e-01,9.99999e-01
7.726452574e-01,1.05221e-01,9.99999e-01,9.99999e-01,9.99724e-01,1.05249e-01,9.99999e-01
7.765084837e-01,1.09993e-01,9.99999e-01,9.99999e-01,9.99608e-01,1.10036e-01,9.99999e-01
7.803910261e-01,1.05019e-01,9.99999e-01,9.15119e-01,9.98310e-01,1.14939e-01,9.99999e-01
7.842929812e-01,7.74121e-02,9.99999e-01,6.48700e-01,9.94115e-01,1.19956e-01,9.99999e-01
7.882144461e-01,7.83026e-02,9.99999e-01,6.32876e-01,9.87919e-01,1.25088e-01,9.99999e-01
7.921555184e-01,9.78140e-02,9.99999e-01,7.55197e-01,9.93363e-01,1.30331e-01,9.99999e-01
7.961162960e-01,1.10938e-01,9.99999e-01,8.27056e-01,9.88288e-01,1.35684e-01,9.99999e-01
8.000968774e-01,1.25610e-01,9.99999e-01,9.02032e-01,9.86480e-01,1.41144e-01,9.99999e-01
8.040973618e-01,1.37200e-01,9.99999e-01,9.47926e-01,9.86477e-01,1.46710e-01,9.99999e-01
8.081178486e-01,1.44206e-01,9.99999e-01,9.75715e-01,9.69800e-01,1.52378e-01,9.99998e-01
8.121584379e-01,1.38238e-01,9.99999e-01,9.92445e-01,8.80569e-01,1.58148e-01,9.99997e-01
8.162192301e-01,1.40863e-01,9.99999e-01,9.98326e-01,8.60203e-01,1.64015e-01,9.99997e-01
8.203003262e-01,1.57846e-01,9.99999e-01,9.99974e-01,9.28650e-01,1.69977e-01,9.99997e-01
8.244018279e-01,1.58881e-01,9.99999e-01,9.99999e-01,9.02567e-01,1.76032e-01,9.99997e-01
8.285238370e-01,1.66455e-01,9.99999e-01,9.99999e-01,9.13700e-01,1.82177e-01,9.99997e-01
8.326664562e-01,1.72006e-01,9.99999e-01,9.99999e-01,9.12943e-01,1.88409e-01,9.99998e-01
8.368297885e-01,1.82414e-01,9.99999e-01,9.99999e-01,9.36782e-01,1.94724e-01,9.99998e-01
8.410139374e-01,1.93460e-01,9.99999e-01,9.99999e-01,9.61913e-01,2.01120e-01,9.99999e-01
8.452190071e-01,2.03677e-01,9.99999e-01,9.99999e-01,9.81131e-01,2.07593e-01,9.99999e-01
8.494451021e-01,2.11787e-01,9.99999e-01,9.99999e-01,9.89004e-01,2.14141e-01,9.99999e-01
8.536923276e-01,2.19322e-01,9.99999e-01,9.99999e-01,9.93486e-01,2.20760e-01,9.99999e-01
8.579607893e-01,2.26533e-01,9.99999e-01,9.99999e-01,9.95983e-01,2.27447e-01,9.99999e-01
8.622505932e-01,2.33600e-01,9.99999e-01,9.99999e-01,9.97447e-01,2.34198e-01,9.99999e-01
8.665618462e-01,2.09385e-01,9.99999e-01,8.70065e-01,9.98419e-01,2.41010e-01,9.99999e-01
8.708946554e-01,8.52824e-02,9.99999e-01,3.44619e-01,9.98190e-01,2.47880e-01,9.99999e-01
8.752491287e-01,1.04748e-01,9.99999e-01,4.12019e-01,9.97580e-01,2.54804e-01,9.99999e-01
8.796253743e-01,1.58465e-01,9.99999e-01,6.07214e-01,9.96649e-01,2.61780e-01,9.99999e-01
8.840235012e-01,2.05817e-01,9.99999e-01,7.68496e-01,9.96173e-01,2.68802e-01,9.99999e-01
8.884436187e-01,2.45167e-01,9.99999e-01,9.00854e-01,9.86129e-01,2.75869e-01,9.99998e-01
8.928858368e-01,2.34657e-01,9.99999e-01,9.58476e-01,8.64227e-01,2.82977e-01,9.99997e-01
8.973502660e-01,2.22225e-01,9.99999e-01,9.89759e-01,7.73432e-01,2.90122e-01,9.99996e-01
9.018370173e-01,2.60525e-01,9.99999e-01,9.98866e-01,8.77214e-01,2.97300e-01,9.99995e-01
9.063462024e-01,2.64206e-01,9.99999e-01,9.71685e-01,8.90624e-01,3.04510e-01,9.99995e-01
9.108779334e-01,2.44026e-01,9.99999e-01,9.35388e-01,8.34920e-01,3.11746e-01,9.99994e-01
9.154323231e-01,2.55945e-01,9.99999e-01,9.84452e-01,8.14218e-01,3.19007e-01,9.99994e-01
9.200094847e-01,2.32008e-01,9.99999e-01,8.17934e-01,8.51732e-01,3.26288e-01,9.99992e-01
9.246095321e-01,1.91395e-01,9.99999e-01,7.22496e-01,7.83544e-01,3.33587e-01,9.99988e-01
9.292325798e-01,5.98997e-02,9.99999e-01,7.78284e-01,2.14108e-01,3.40899e-01,9.99975e-01
9.338787427e-01,3.92092e-02,9.99999e-01,7.82842e-01,1.36912e-01,3.48224e-01,9.99968e-01
9.385481364e-01,1.35132e-01,9.99999e-01,8.34155e-01,4.44852e-01,3.55556e-01,9.99967e-01
9.432408771e-01,1.10956e-01,9.99999e-01,8.94431e-01,3.37192e-01,3.62893e-01,9.99963e-01
9.479570815e-01,7.84725e-02,9.99999e-01,9.44302e-01,2.22935e-01,3.70232e-01,9.99968e-01
9.526968669e-01,1.15619e-01,9.99999e-01,9.72778e-01,3.13213e-01,3.77570e-01,9.99975e-01
9.574603512e-01,1.26175e-01,9.99999e-01,9.88259e-01,3.31058e-01,3.84904e-01,9.99981e-01
9.622476530e-01,1.56770e-01,9.99999e-01,9.96323e-01,4.00934e-01,3.92232e-01,9.99987e-01
9.670588912e-01,2.34564e-01,9.99999e-01,9.98897e-01,5.87632e-01,3.99550e-01,9.99992e-01
9.718941857e-01,2.89495e-01,9.99999e-01,9.99921e-01,7.11587e-01,4.06857e-01,9.99995e-01
9.767536566e-01,3.12105e-01,9.99999e-01,9.99999e-01,7.53608e-01,4.14148e-01,9.99996e-01
9.816374249e-01,3.41421e-01,9.99999e-01,9.99999e-01,8.10163e-01,4.21423e-01,9.99997e-01
9.865456120e-01,3.75712e-01,9.99999e-01,9.99999e-01,8.76445e-01,4.28678e-01,9.99998e-01
9.914783401e-01,4.01720e-01,9.99999e-01,9.99999e-01,9.21565e-01,4.35910e-01,9.99999e-01
9.964357318e-01,4.23838e-01,9.99999e-01,9.99999e-01,9.56488e-01,4.43119e-01,9.99999e-01
1.001417910e+00,4.38449e-01,9.99999e-01,9.99999e-01,9.73680e-01,4.50300e-01,9.99999e-01
1.006425000e+00,4.50548e-01,9.99999e-01,9.99999e-01,9.84905e-01,4.57453e-01,9.99999e-01
1.011457125e+00,4.60212e-01,9.99999e-01,9.99999e-01,9.90608e-01,4.64574e-01,9.99999e-01
1.016514411e+00,4.68651e-01,9.99999e-01,9.99999e-01,9.93613e-01,4.71663e-01,9.99999e-01
1.021596983e+00,4.76205e-01,9.99999e-01,9.99844e-01,9.94908e-01,4.78716e-01,9.99999e-01
1.026704968e+00,4.78355e-01,9.99999e-01,9.88723e-01,9.96026e-01,4.85733e-01,9.99999e-01
1.031838492e+00,4.45547e-01,9.99999e-01,9.06755e-01,9.97111e-01,4.92711e-01,9.99999e-01
1.036997685e+00,2.63702e-02,9.99999e-01,5.28460e-02,9.98283e-01,4.99648e-01,9.99999e-01
1.042182673e+00,2.04493e-03,9.99999e-01,4.04341e-03,9.97952e-01,5.06543e-01,9.99999e-01
1.047393587e+00,5.17944e-03,9.99999e-01,1.01115e-02,9.97285e-01,5.13394e-01,9.99999e-01
1.052630555e+00,7.85658e-07,9.99999e-01,1.51387e-06,9.96276e-01,5.20200e-01,9.99999e-01
1.057893707e+00,2.95984e-06,9.99999e-01,5.63510e-06,9.93791e-01,5.26958e-01,9.99999e-01
1.063183176e+00,6.84549e-05,9.99999e-01,1.29037e-04,9.89805e-01,5.33669e-01,9.99999e-01
1.068499092e+00,6.47724e-04,9.99999e-01,1.21261e-03,9.82989e-01,5.40330e-01,9.99999e-01
1.073841587e+00,7.15135e-03,9.99999e-01,1.32665e-02,9.80134e-01,5.46940e-01,9.99999e-01
1.079210795e+00,3.59072e-02,9.99999e-01,6.62046e-02,9.74605e-01,5.53498e-01,9.99998e-01
1.084606849e+00,1.16037e-01,9.99999e-01,2.14445e-01,9.61829e-01,5.60003e-01,9.99998e-01
1.090029883e+00,2.40159e-01,9.99999e-01,4.46398e-01,9.45684e-01,5.66453e-01,9.99997e-01
1.095480033e+00,3.31761e-01,9.99999e-01,6.71039e-01,8.58972e-01,5.72848e-01,9.99995e-01
1.100957433e+00,3.27519e-01,9.99999e-01,8.24312e-01,6.82006e-01,5.79187e-01,9.99992e-01
1.106462220e+00,2.12534e-01,9.99999e-01,9.23100e-01,3.90354e-01,5.85469e-01,9.99985e-01
1.111994531e+00,8.36588e-02,9.99999e-01,9.70741e-01,1.44914e-01,5.91693e-01,9.99970e-01
1.117554504e+00,2.87171e-02,9.99999e-01,9.92782e-01,4.82462e-02,5.97858e-01,9.99958e-01
1.123142276e+00,7.48648e-02,9.99999e-01,9.99524e-01,1.23970e-01,6.03963e-01,9.99951e-01
1.128757988e+00,1.44247e-01,9.99999e-01,9.99999e-01,2.36479e-01,6.10009e-01,9.99946e-01
1.134401778e+00,6.49798e-02,9.99999e-01,9.99999e-01,1.05494e-01,6.15994e-01,9.99940e-01
1.140073787e+00,2.53693e-01,9.99999e-01,9.99999e-01,4.07940e-01,6.21917e-01,9.99951e-01
1.145774156e+00,1.07761e-01,9.99999e-01,9.99999e-01,1.71661e-01,6.27779e-01,9.99959e-01
1.151503026e+00,9.05403e-02,9.99999e-01,9.99999e-01,1.42908e-01,6.33579e-01,9.99964e-01
1.157260541e+00,1.13235e-01,9.99999e-01,9.99999e-01,1.77123e-01,6.39316e-01,9.99973e-01
1.163046844e+00,1.77353e-01,9.99999e-01,9.99999e-01,2.74974e-01,6.44990e-01,9.99982e-01
1.168862078e+00,2.58995e-01,9.99999e-01,9.99999e-01,3.98089e-01,6.50601e-01,9.99991e-01
1.174706389e+00,3.71060e-01,9.99999e-01,9.99999e-01,5.65514e-01,6.56149e-01,9.99995e-01
1.180579921e+00,4.66745e-01,9.99999e-01,9.99999e-01,7.05445e-01,6.61633e-01,9.99996e-01
1.186482820e+00,5.46983e-01,9.99999e-01,9.99978e-01,8.20014e-01,6.67053e-01,9.99997e-01
1.192415234e+00,5.76423e-01,9.99999e-01,9.61535e-01,8.90395e-01,6.72409e-01,9.99997e-01
1.198377311e+00,3.24210e-01,9.99999e-01,5.18968e-01,9.06818e-01,6.77701e-01,9.99997e-01
1.204369197e+00,1.90080e-29,9.99999e-01,2.93636e-29,9.11832e-01,6.82929e-01,9.99998e-01
1.210391043e+00,5.04046e-119,9.99999e-01,7.69476e-119,9.15383e-01,6.88093e-01,9.99998e-01
1.216442998e+00,5.26776e-103,9.99999e-01,7.96204e-103,9.27564e-01,6.93193e-01,9.99998e-01
1.222525213e+00,1.87919e-101,9.99999e-01,2.77392e-101,9.43058e-01,6.98228e-01,9.99999e-01
1.228637839e+00,2.84944e-78,9.99999e-01,4.16474e-78,9.60093e-01,7.03200e-01,9.99999e-01
