#,Wave/freq,Total,O2,CO2,H2O,Rayleigh,CIA
4.000000000e-01,5.45428e-09,9.99999e-01,9.99999e-01,9.99962e-01,5.45448e-09,9.99999e-01
4.020000000e-01,7.94568e-09,9.99999e-01,9.99999e-01,9.99976e-01,7.94586e-09,9.99999e-01
4.040100000e-01,1.14849e-08,9.99999e-01,9.99999e-01,9.99989e-01,1.14851e-08,9.99999e-01
4.060300500e-01,1.64803e-08,9.99999e-01,9.99999e-01,9.99997e-01,1.64803e-08,9.99999e-01
4.080602003e-01,2.34801e-08,9.99999e-01,9.99999e-01,9.99998e-01,2.34801e-08,9.99999e-01
4.101005013e-01,3.32198e-08,9.99999e-01,9.99999e-01,9.99999e-01,3.32198e-08,9.99999e-01
4.121510038e-01,4.66786e-08,9.99999e-01,9.99999e-01,9.99998e-01,4.66786e-08,9.99999e-01
4.142117588e-01,6.51503e-08,9.99999e-01,9.99999e-01,9.99989e-01,6.51510e-08,9.99999e-01
4.162828176e-01,9.03325e-08,9.99999e-01,9.99999e-01,9.99953e-01,9.03367e-08,9.99999e-01
4.183642317e-01,1.24449e-07,9.99999e-01,9.99999e-01,9.99972e-01,1.24452e-07,9.99999e-01
4.204560528e-01,1.70367e-07,9.99999e-01,9.99999e-01,9.99982e-01,1.70370e-07,9.99999e-01
4.225583331e-01,2.31786e-07,9.99999e-01,9.99999e-01,9.99993e-01,2.31788e-07,9.99999e-01
4.246711247e-01,3.13433e-07,9.99999e-01,9.99999e-01,9.99994e-01,3.13434e-07,9.99999e-01
4.267944804e-01,4.21319e-07,9.99999e-01,9.99999e-01,9.99992e-01,4.21322e-07,9.99999e-01
4.289284528e-01,5.63042e-07,9.99999e-01,9.99999e-01,9.99993e-01,5.63045e-07,9.99999e-01
4.310730950e-01,7.48143e-07,9.99999e-01,9.99999e-01,9.99997e-01,7.48145e-07,9.99999e-01
4.332284605e-01,9.88529e-07,9.99999e-01,9.99999e-01,9.99998e-01,9.88530e-07,9.99999e-01
4.353946028e-01,1.29898e-06,9.99999e-01,9.99999e-01,9.99999e-01,1.29898e-06,9.99999e-01
4.375715758e-01,1.69774e-06,9.99999e-01,9.99999e-01,9.99994e-01,1.69775e-06,9.99999e-01
4.397594337e-01,2.20715e-06,9.99999e-01,9.99999e-01,9.99959e-01,2.20724e-06,9.99999e-01
4.419582309e-01,2.85419e-06,9.99999e-01,9.99999e-01,9.99793e-01,2.85477e-06,9.99999e-01
4.441680220e-01,3.67298e-06,9.99999e-01,9.99999e-01,9.99839e-01,3.67357e-06,9.99999e-01
4.463888621e-01,4.70293e-06,9.99999e-01,9.99999e-01,9.99832e-01,4.70371e-06,9.99999e-01
4.486208064e-01,5.99278e-06,9.99999e-01,9.99999e-01,9.99895e-01,5.99340e-06,9.99999e-01
4.508639105e-01,7.59987e-06,9.99999e-01,9.99999e-01,9.99950e-01,7.60024e-06,9.99999e-01
4.531182300e-01,9.59258e-06,9.99999e-01,9.99999e-01,9.99980e-01,9.59276e-06,9.99999e-01
4.553838212e-01,1.20519e-05,9.99999e-01,9.99999e-01,9.99986e-01,1.20521e-05,9.99999e-01
4.576607403e-01,1.50737e-05,9.99999e-01,9.99999e-01,9.99993e-01,1.50738e-05,9.99999e-01
4.599490440e-01,1.87700e-05,9.99999e-01,9.99999e-01,9.99995e-01,1.87701e-05,9.99999e-01
4.622487892e-01,2.32716e-05,9.99999e-01,9.99999e-01,9.99998e-01,2.32716e-05,9.99999e-01
4.645600332e-01,2.87304e-05,9.99999e-01,9.99999e-01,9.99996e-01,2.87305e-05,9.99999e-01
4.668828333e-01,3.53208e-05,9.99999e-01,9.99999e-01,9.99950e-01,3.53226e-05,9.99999e-01
4.692172475e-01,4.32458e-05,9.99999e-01,9.99999e-01,9.99894e-01,4.32503e-05,9.99999e-01
4.715633337e-01,5.27423e-05,9.99999e-01,9.99999e-01,9.99931e-01,5.27460e-05,9.99999e-01
4.739211504e-01,6.40705e-05,9.99999e-01,9.99999e-01,9.99933e-01,6.40747e-05,9.99999e-01
4.762907561e-01,7.75354e-05,9.99999e-01,9.99999e-01,9.99965e-01,7.75380e-05,9.99999e-01
4.786722099e-01,9.34762e-05,9.99999e-01,9.99999e-01,9.99985e-01,9.34775e-05,9.99999e-01
4.810655710e-01,1.12278e-04,9.99999e-01,9.99999e-01,9.99995e-01,1.12278e-04,9.99999e-01
4.834708988e-01,1.34368e-04,9.99999e-01,9.99999e-01,9.99959e-01,1.34373e-04,9.99999e-01
4.858882533e-01,1.60234e-04,9.99999e-01,9.99999e-01,9.99925e-01,1.60246e-04,9.99999e-01
4.883176946e-01,1.90426e-04,9.99999e-01,9.99999e-01,9.99937e-01,1.90437e-04,9.99999e-01
4.907592831e-01,2.25534e-04,9.99999e-01,9.99999e-01,9.99943e-01,2.25547e-04,9.99999e-01
4.932130795e-01,2.66227e-04,9.99999e-01,9.99999e-01,9.99959e-01,2.66237e-04,9.99999e-01
4.956791449e-01,3.13235e-04,9.99999e-01,9.99999e-01,9.99978e-01,3.13241e-04,9.99999e-01
4.981575406e-01,3.67323e-04,9.99999e-01,9.99999e-01,9.99894e-01,3.67362e-04,9.99999e-01
5.006483283e-01,4.29362e-04,9.99999e-01,9.99999e-01,9.99726e-01,4.29479e-04,9.99999e-01
5.031515699e-01,4.99860e-04,9.99999e-01,9.99999e-01,9.98615e-01,5.00552e-04,9.99999e-01
5.056673278e-01,5.81201e-04,9.99999e-01,9.99999e-01,9.99269e-01,5.81626e-04,9.99999e-01
5.081956644e-01,6.73208e-04,9.99999e-01,9.99999e-01,9.99078e-01,6.73829e-04,9.99999e-01
5.107366428e-01,7.77900e-04,9.99999e-01,9.99999e-01,9.99377e-01,7.78384e-04,9.99999e-01
5.132903260e-01,8.96285e-04,9.99999e-01,9.99999e-01,9.99643e-01,8.96604e-04,9.99999e-01
5.158567776e-01,1.02974e-03,9.99999e-01,9.99999e-01,9.99849e-01,1.02990e-03,9.99999e-01
5.184360615e-01,1.17970e-03,9.99999e-01,9.99999e-01,9.99939e-01,1.17977e-03,9.99999e-01
5.210282418e-01,1.34781e-03,9.99999e-01,9.99999e-01,9.99977e-01,1.34784e-03,9.99999e-01
5.236333830e-01,1.53566e-03,9.99999e-01,9.99999e-01,9.99909e-01,1.53580e-03,9.99999e-01
5.262515499e-01,1.74537e-03,9.99999e-01,9.99999e-01,9.99943e-01,1.74547e-03,9.99999e-01
5.288828077e-01,1.97865e-03,9.99999e-01,9.99999e-01,9.99947e-01,1.97875e-03,9.99999e-01
5.315272217e-01,2.23756e-03,9.99999e-01,9.99999e-01,9.99954e-01,2.23766e-03,9.99999e-01
5.341848578e-01,2.52423e-03,9.99999e-01,9.99999e-01,9.99969e-01,2.52431e-03,9.99999e-01
5.368557821e-01,2.84060e-03,9.99999e-01,9.99999e-01,9.99894e-01,2.84090e-03,9.99999e-01
5.395400610e-01,3.18854e-03,9.99999e-01,9.99999e-01,9.99620e-01,3.18975e-03,9.99999e-01
5.422377613e-01,3.57150e-03,9.99999e-01,9.99999e-01,9.99509e-01,3.57325e-03,9.99999e-01
5.449489501e-01,3.99208e-03,9.99999e-01,9.99999e-01,9.99543e-01,3.99389e-03,9.99999e-01
5.476736949e-01,4.45246e-03,9.99999e-01,9.99999e-01,9.99595e-01,4.45425e-03,9.99999e-01
5.504120634e-01,4.95553e-03,9.99999e-01,9.99999e-01,9.99706e-01,4.95698e-03,9.99999e-01
5.531641237e-01,5.50400e-03,9.99999e-01,9.99999e-01,9.99852e-01,5.50481e-03,9.99999e-01
5.559299443e-01,6.10011e-03,9.99999e-01,9.99999e-01,9.99928e-01,6.10054e-03,9.99999e-01
5.587095940e-01,6.74673e-03,9.99999e-01,9.99999e-01,9.99954e-01,6.74704e-03,9.99999e-01
5.615031420e-01,7.44684e-03,9.99999e-01,9.99999e-01,9.99949e-01,7.44721e-03,9.99999e-01
5.643106577e-01,8.20356e-03,9.99999e-01,9.99999e-01,9.99943e-01,8.20402e-03,9.99999e-01
5.671322110e-01,9.01431e-03,9.99999e-01,9.99999e-01,9.99315e-01,9.02049e-03,9.99999e-01
5.699678720e-01,9.89243e-03,9.99999e-01,9.99999e-01,9.99271e-01,9.89964e-03,9.99999e-01
5.728177114e-01,1.08363e-02,9.99999e-01,9.99999e-01,9.99241e-01,1.08445e-02,9.99999e-01
5.756818000e-01,1.18500e-02,9.99999e-01,9.99999e-01,9.99303e-01,1.18582e-02,9.99999e-01
5.785602090e-01,1.29360e-02,9.99999e-01,9.99999e-01,9.99393e-01,1.29438e-02,9.99999e-01
5.814530100e-01,1.40958e-02,9.99999e-01,9.99999e-01,9.99390e-01,1.41044e-02,9.99999e-01
5.843602750e-01,1.53318e-02,9.99999e-01,9.99999e-01,9.99273e-01,1.53430e-02,9.99999e-01
5.872820764e-01,1.65585e-02,9.99999e-01,9.99999e-01,9.93756e-01,1.66626e-02,9.99999e-01
5.902184868e-01,1.79295e-02,9.99999e-01,9.99999e-01,9.92433e-01,1.80662e-02,9.99999e-01
5.931695792e-01,1.94522e-02,9.99999e-01,9.99999e-01,9.94652e-01,1.95568e-02,9.99999e-01
5.961354271e-01,2.10134e-02,9.99999e-01,9.99999e-01,9.94137e-01,2.11373e-02,9.99999e-01
5.991161043e-01,2.27128e-02,9.99999e-01,9.99999e-01,9.95721e-01,2.28104e-02,9.99999e-01
6.021116848e-01,2.45193e-02,9.99999e-01,9.99999e-01,9.97569e-01,2.45790e-02,9.99999e-01
6.051222432e-01,2.64132e-02,9.99999e-01,9.99999e-01,9.98769e-01,2.64457e-02,9.99999e-01
6.081478544e-01,2.83979e-02,9.99999e-01,9.99999e-01,9.99469e-01,2.84130e-02,9.99999e-01
6.111885937e-01,3.04766e-02,9.99999e-01,9.99999e-01,9.99775e-01,3.04835e-02,9.99999e-01
6.142445367e-01,3.26561e-02,9.99999e-01,9.99999e-01,9.99899e-01,3.26594e-02,9.99999e-01
6.173157594e-01,3.49410e-02,9.99999e-01,9.99999e-01,9.99944e-01,3.49430e-02,9.99999e-01
6.204023382e-01,3.73346e-02,9.99999e-01,9.99999e-01,9.99952e-01,3.73364e-02,9.99999e-01
6.235043498e-01,3.98333e-02,9.99999e-01,9.99999e-01,9.99793e-01,3.98415e-02,9.99999e-01
6.266218716e-01,4.24140e-02,9.99999e-01,9.99999e-01,9.98908e-01,4.24603e-02,9.99999e-01
6.297549810e-01,4.51762e-02,9.99999e-01,9.99999e-01,9.99599e-01,4.51943e-02,9.99999e-01
6.329037559e-01,4.80071e-02,9.99999e-01,9.99999e-01,9.99208e-01,4.80451e-02,9.99999e-01
6.360682746e-01,5.09797e-02,9.99999e-01,9.99999e-01,9.99326e-01,5.10140e-02,9.99999e-01
6.392486160e-01,5.40551e-02,9.99999e-01,9.99999e-01,9.99127e-01,5.41023e-02,9.99999e-01
6.424448591e-01,5.72441e-02,9.99999e-01,9.99999e-01,9.98832e-01,5.73110e-02,9.99999e-01
6.456570834e-01,6.03128e-02,9.99999e-01,9.99999e-01,9.94588e-01,6.06409e-02,9.99999e-01
6.488853688e-01,6.38387e-02,9.99999e-01,9.99999e-01,9.96034e-01,6.40928e-02,9.99999e-01
6.521297956e-01,6.73936e-02,9.99999e-01,9.99999e-01,9.95957e-01,6.76671e-02,9.99999e-01
6.553904446e-01,7.10771e-02,9.99999e-01,9.99999e-01,9.95976e-01,7.13642e-02,9.99999e-01
6.586673968e-01,7.49252e-02,9.99999e-01,9.99999e-01,9.96552e-01,7.51843e-02,9.99999e-01
6.619607338e-01,7.89696e-02,9.99999e-01,9.99999e-01,9.98006e-01,7.91273e-02,9.99999e-01
6.652705375e-01,8.30971e-02,9.99999e-01,9.99999e-01,9.98845e-01,8.31931e-02,9.99999e-01
6.685968902e-01,8.73344e-02,9.99999e-01,9.99999e-01,9.99463e-01,8.73812e-02,9.99999e-01
6.719398746e-01,9.16685e-02,9.99999e-01,9.99999e-01,9.99751e-01,9.16912e-02,9.99999e-01
6.752995740e-01,9.61094e-02,9.99999e-01,9.99999e-01,9.99864e-01,9.61224e-02,9.99999e-01
6.786760719e-01,1.00654e-01,9.99999e-01,9.99999e-01,9.99805e-01,1.00674e-01,9.99999e-01
6.820694522e-01,1.05309e-01,9.99999e-01,9.99999e-01,9.99666e-01,1.05344e-01,9.99999e-01
6.854797995e-01,1.10086e-01,9.99999e-01,9.99999e-01,9.99570e-01,1.10133e-01,9.99999e-01
6.889071985e-01,1.14919e-01,9.99999e-01,9.99999e-01,9.98961e-01,1.15038e-01,9.99999e-01
6.923517345e-01,1.18036e-01,9.99999e-01,9.99999e-01,9.83155e-01,1.20058e-01,9.99999e-01
6.958134932e-01,1.24091e-01,9.99999e-01,9.99999e-01,9.91205e-01,1.25192e-01,9.99999e-01
6.992925606e-01,1.29347e-01,9.99999e-01,9.99999e-01,9.91643e-01,1.30437e-01,9.99999e-01
7.027890234e-01,1.34392e-01,9.99999e-01,9.99999e-01,9.89687e-01,1.35792e-01,9.99999e-01
7.063029686e-01,1.40029e-01,9.99999e-01,9.99999e-01,9.91323e-01,1.41255e-01,9.99999e-01
7.098344834e-01,1.45600e-01,9.99999e-01,9.99999e-01,9.91672e-01,1.46822e-01,9.99999e-01
7.133836558e-01,1.50804e-01,9.99999e-01,9.99999e-01,9.88924e-01,1.52493e-01,9.99999e-01
7.169505741e-01,1.44733e-01,9.99999e-01,9.99999e-01,9.14503e-01,1.58264e-01,9.99998e-01
7.205353270e-01,1.57100e-01,9.99999e-01,9.99999e-01,9.57151e-01,1.64133e-01,9.99998e-01
7.241380036e-01,1.60892e-01,9.99999e-01,9.99999e-01,9.45879e-01,1.70098e-01,9.99998e-01
7.277586936e-01,1.67529e-01,9.99999e-01,9.99999e-01,9.51035e-01,1.76155e-01,9.99998e-01
7.313974871e-01,1.72813e-01,9.99999e-01,9.99999e-01,9.47952e-01,1.82301e-01,9.99998e-01
7.350544745e-01,1.83109e-01,9.99999e-01,9.99999e-01,9.71221e-01,1.88535e-01,9.99999e-01
7.387297469e-01,1.90708e-01,9.99999e-01,9.99999e-01,9.78735e-01,1.94851e-01,9.99999e-01
7.424233956e-01,1.99144e-01,9.99999e-01,9.99999e-01,9.89539e-01,2.01249e-01,9.99999e-01
7.461355126e-01,2.06405e-01,9.99999e-01,9.99999e-01,9.93648e-01,2.07724e-01,9.99999e-01
7.498661902e-01,2.13639e-01,9.99999e-01,9.99999e-01,9.97038e-01,2.14273e-01,9.99999e-01
7.536155211e-01,2.20573e-01,9.99999e-01,9.99999e-01,9.98546e-01,2.20894e-01,9.99999e-01
7.573835987e-01,2.27411e-01,9.99999e-01,9.99999e-01,9.99251e-01,2.27582e-01,9.99999e-01
7.611705167e-01,2.34225e-01,9.99999e-01,9.99999e-01,9.99534e-01,2.34334e-01,9.99999e-01
7.649763693e-01,2.41077e-01,9.99999e-01,9.99999e-01,9.99708e-01,2.41147e-01,9.99999e-01
7.688012511e-01,2.47968e-01,9.99999e-01,9.99999e-01,9.99796e-01,2.48018e-01,9.99999e-01
7.726452574e-01,2.54901e-01,9.99999e-01,9.99999e-01,9.99832e-01,2.54944e-01,9.99999e-01
7.765084837e-01,2.61858e-01,9.99999e-01,9.99999e-01,9.99762e-01,2.61920e-01,9.99999e-01
7.803910261e-01,2.53403e-01,9.99999e-01,9.43129e-01,9.98975e-01,2.68944e-01,9.99999e-01
7.842929812e-01,2.09827e-01,9.99999e-01,7.62718e-01,9.96426e-01,2.76011e-01,9.99999e-01
7.882144461e-01,2.10735e-01,9.99999e-01,7.49476e-01,9.92646e-01,2.83120e-01,9.99999e-01
7.921555184e-01,2.43433e-01,9.99999e-01,8.41919e-01,9.95961e-01,2.90265e-01,9.99999e-01
7.961162960e-01,2.63080e-01,9.99999e-01,8.90707e-01,9.92875e-01,2.97445e-01,9.99999e-01
8.000968774e-01,2.83776e-01,9.99999e-01,9.39157e-01,9.91770e-01,3.04654e-01,9.99999e-01
8.040973618e-01,2.99430e-01,9.99999e-01,9.67983e-01,9.91768e-01,3.11892e-01,9.99999e-01
8.081178486e-01,3.08632e-01,9.99999e-01,9.85169e-01,9.81546e-01,3.19152e-01,9.99999e-01
8.121584379e-01,3.00710e-01,9.99999e-01,9.95397e-01,9.25378e-01,3.26434e-01,9.99998e-01
8.162192301e-01,3.04085e-01,9.99999e-01,9.98981e-01,9.12060e-01,3.33733e-01,9.99998e-01
8.203003262e-01,3.25855e-01,9.99999e-01,9.99984e-01,9.55469e-01,3.41046e-01,9.99998e-01
8.244018279e-01,3.26914e-01,9.99999e-01,9.99999e-01,9.38409e-01,3.48370e-01,9.99998e-01
8.285238370e-01,3.36675e-01,9.99999e-01,9.99999e-01,9.46507e-01,3.55703e-01,9.99998e-01
8.326664562e-01,3.43420e-01,9.99999e-01,9.99999e-01,9.45955e-01,3.63040e-01,9.99998e-01
8.368297885e-01,3.55950e-01,9.99999e-01,9.99999e-01,9.61043e-01,3.70379e-01,9.99999e-01
8.410139374e-01,3.68903e-01,9.99999e-01,9.99999e-01,9.76665e-01,3.77717e-01,9.99999e-01
8.452190071e-01,3.80619e-01,9.99999e-01,9.99999e-01,9.88489e-01,3.85051e-01,9.99999e-01
8.494451021e-01,3.89753e-01,9.99999e-01,9.99999e-01,9.93307e-01,3.92379e-01,9.99999e-01
8.536923276e-01,3.98113e-01,9.99999e-01,9.99999e-01,9.96037e-01,3.99697e-01,9.99999e-01
8.579607893e-01,4.06010e-01,9.99999e-01,9.99999e-01,9.97558e-01,4.07003e-01,9.99999e-01
8.622505932e-01,4.13652e-01,9.99999e-01,9.99999e-01,9.98448e-01,4.14294e-01,9.99999e-01
8.665618462e-01,3.77650e-01,9.99999e-01,8.96634e-01,9.99040e-01,4.21569e-01,9.99999e-01
8.708946554e-01,2.17697e-01,9.99999e-01,5.08187e-01,9.98901e-01,4.28823e-01,9.99999e-01
8.752491287e-01,2.50270e-01,9.99999e-01,5.74745e-01,9.98530e-01,4.36055e-01,9.99999e-01
8.796253743e-01,3.25086e-01,9.99999e-01,7.34813e-01,9.97965e-01,4.43263e-01,9.99999e-01
8.840235012e-01,3.82583e-01,9.99999e-01,8.51271e-01,9.97675e-01,4.50444e-01,9.99999e-01
8.884436187e-01,4.25824e-01,9.99999e-01,9.38353e-01,9.91557e-01,4.57596e-01,9.99999e-01
8.928858368e-01,4.14402e-01,9.99999e-01,9.74534e-01,9.14663e-01,4.64717e-01,9.99998e-01
8.973502660e-01,4.00573e-01,9.99999e-01,9.93755e-01,8.54164e-01,4.71805e-01,9.99997e-01
9.018370173e-01,4.41547e-01,9.99999e-01,9.99309e-01,9.22688e-01,4.78857e-01,9.99997e-01
9.063462024e-01,4.45180e-01,9.99999e-01,9.82560e-01,9.31593e-01,4.85873e-01,9.99996e-01
9.108779334e-01,4.24082e-01,9.99999e-01,9.60153e-01,8.95388e-01,4.92850e-01,9.99996e-01
9.154323231e-01,4.36731e-01,9.99999e-01,9.90499e-01,8.81898e-01,4.99786e-01,9.99996e-01
9.200094847e-01,4.06177e-01,9.99999e-01,8.76893e-01,9.06349e-01,5.06681e-01,9.99995e-01
9.246095321e-01,3.63917e-01,9.99999e-01,8.19932e-01,8.59307e-01,5.13531e-01,9.99992e-01
9.292325798e-01,1.69634e-01,9.99999e-01,8.56930e-01,3.71140e-01,5.20336e-01,9.99984e-01
9.338787427e-01,1.29862e-01,9.99999e-01,8.60695e-01,2.79585e-01,5.27093e-01,9.99980e-01
9.385481364e-01,2.87950e-01,9.99999e-01,8.95280e-01,5.96317e-01,5.33803e-01,9.99979e-01
9.432408771e-01,2.51068e-01,9.99999e-01,9.34384e-01,4.94219e-01,5.40463e-01,9.99977e-01
9.479570815e-01,2.01792e-01,9.99999e-01,9.65770e-01,3.80815e-01,5.47072e-01,9.99980e-01
9.526968669e-01,2.60863e-01,9.99999e-01,9.83355e-01,4.78084e-01,5.53629e-01,9.99985e-01
9.574603512e-01,2.78047e-01,9.99999e-01,9.92846e-01,4.99573e-01,5.60132e-01,9.99988e-01
9.622476530e-01,3.19959e-01,9.99999e-01,9.97763e-01,5.65858e-01,5.66582e-01,9.99992e-01
9.670588912e-01,4.11861e-01,9.99999e-01,9.99329e-01,7.19252e-01,5.72976e-01,9.99994e-01
9.718941857e-01,4.70448e-01,9.99999e-01,9.99952e-01,8.12113e-01,5.79314e-01,9.99996e-01
9.767536566e-01,4.92630e-01,9.99999e-01,9.99999e-01,8.41249e-01,5.85594e-01,9.99997e-01
9.816374249e-01,5.20531e-01,9.99999e-01,9.99999e-01,8.79549e-01,5.91817e-01,9.99998e-01
9.865456120e-01,5.51855e-01,9.99999e-01,9.99999e-01,9.22864e-01,5.97981e-01,9.99998e-01
9.914783401e-01,5.74824e-01,9.99999e-01,9.99999e-01,9.51561e-01,6.04085e-01,9.99999e-01
9.964357318e-01,5.93854e-01,9.99999e-01,9.99999e-01,9.73324e-01,6.10129e-01,9.99999e-01
1.001417910e+00,6.06210e-01,9.99999e-01,9.99999e-01,9.83925e-01,6.16113e-01,9.99999e-01
1.006425000e+00,6.16317e-01,9.99999e-01,9.99999e-01,9.90806e-01,6.22035e-01,9.99999e-01
1.011457125e+00,6.24308e-01,9.99999e-01,9.99999e-01,9.94284e-01,6.27896e-01,9.99999e-01
1.016514411e+00,6.31234e-01,9.99999e-01,9.99999e-01,9.96116e-01,6.33695e-01,9.99999e-01
1.021596983e+00,6.37392e-01,9.99999e-01,9.99906e-01,9.96904e-01,6.39430e-01,9.99999e-01
1.026704968e+00,6.39131e-01,9.99999e-01,9.93133e-01,9.97585e-01,6.45103e-01,9.99999e-01
1.031838492e+00,6.06284e-01,9.99999e-01,9.33291e-01,9.98244e-01,6.50713e-01,9.99999e-01
1.036997685e+00,5.72304e-02,9.99999e-01,8.72767e-02,9.98956e-01,6.56260e-01,9.99999e-01
1.042182673e+00,1.72105e-02,9.99999e-01,2.60346e-02,9.98756e-01,6.61742e-01,9.99999e-01
1.047393587e+00,2.99826e-02,9.99999e-01,4.50042e-02,9.98351e-01,6.67161e-01,9.99999e-01
1.052630555e+00,8.09428e-05,9.99999e-01,1.20542e-04,9.97738e-01,6.72516e-01,9.99999e-01
1.057893707e+00,2.72971e-04,9.99999e-01,4.03619e-04,9.96226e-01,6.77807e-01,9.99999e-01
1.063183176e+00,2.01440e-03,9.99999e-01,2.96094e-03,9.93797e-01,6.83033e-01,9.99999e-01
1.068499092e+00,1.00786e-02,9.99999e-01,1.47611e-02,9.89633e-01,6.88196e-01,9.99999e-01
1.073841587e+00,4.69047e-02,9.99999e-01,6.83075e-02,9.87882e-01,6.93294e-01,9.99999e-01
1.079210795e+00,1.26221e-01,9.99999e-01,1.83171e-01,9.84492e-01,6.98329e-01,9.99999e-01
1.084606849e+00,2.66926e-01,9.99999e-01,3.87897e-01,9.76622e-01,7.03299e-01,9.99998e-01
1.090029883e+00,4.18522e-01,9.99999e-01,6.10364e-01,9.66611e-01,7.08206e-01,9.99998e-01
1.095480033e+00,5.10384e-01,9.99999e-01,7.83749e-01,9.11633e-01,7.13049e-01,9.99997e-01
1.100957433e+00,5.06027e-01,9.99999e-01,8.89008e-01,7.91208e-01,7.17828e-01,9.99995e-01
1.106462220e+00,3.84238e-01,9.99999e-01,9.52482e-01,5.56652e-01,7.22544e-01,9.99990e-01
1.111994531e+00,2.12145e-01,9.99999e-01,9.82108e-01,2.96416e-01,7.27197e-01,9.99981e-01
1.117554504e+00,1.05102e-01,9.99999e-01,9.95603e-01,1.44078e-01,7.31787e-01,9.99974e-01
1.123142276e+00,1.86766e-01,9.99999e-01,9.99710e-01,2.53677e-01,7.36315e-01,9.99970e-01
1.128757988e+00,2.97162e-01,9.99999e-01,9.99999e-01,4.01160e-01,7.40780e-01,9.99967e-01
1.134401778e+00,1.43205e-01,9.99999e-01,9.99999e-01,1.92180e-01,7.45184e-01,9.99963e-01
1.140073787e+00,4.28996e-01,9.99999e-01,9.99999e-01,5.72373e-01,7.49526e-01,9.99970e-01
1.145774156e+00,2.43440e-01,9.99999e-01,9.99999e-01,3.22955e-01,7.53806e-01,9.99975e-01
1.151503026e+00,2.17503e-01,9.99999e-01,9.99999e-01,2.86939e-01,7.58026e-01,9.99978e-01
1.157260541e+00,2.58839e-01,9.99999e-01,9.99999e-01,3.39606e-01,7.62185e-01,9.99983e-01
1.163046844e+00,3.43330e-01,9.99999e-01,9.99999e-01,4.48049e-01,7.66285e-01,9.99989e-01
1.168862078e+00,4.37660e-01,9.99999e-01,9.99999e-01,5.68153e-01,7.70325e-01,9.99994e-01
1.174706389e+00,5.46047e-01,9.99999e-01,9.99999e-01,7.05210e-01,7.74305e-01,9.99996e-01
1.180579921e+00,6.28809e-01,9.99999e-01,9.99999e-01,8.08002e-01,7.78227e-01,9.99997e-01
1.186482820e+00,6.93099e-01,9.99999e-01,9.99987e-01,8.86223e-01,7.82091e-01,9.99998e-01
1.192415234e+00,7.15154e-01,9.99999e-01,9.76020e-01,9.31880e-01,7.85897e-01,9.99998e-01
1.198377311e+00,4.07891e-01,9.99999e-01,5.42808e-01,9.42287e-01,7.89646e-01,9.99998e-01
1.204369197e+00,9.21990e-19,9.99999e-01,1.20055e-18,9.45363e-01,7.93339e-01,9.99998e-01
1.210391043e+00,3.84306e-73,9.99999e-01,4.96829e-73,9.47651e-01,7.96975e-01,9.99998e-01
1.216442998e+00,2.03812e-63,9.99999e-01,2.61899e-63,9.55289e-01,8.00555e-01,9.99999e-01
1.222525213e+00,1.78622e-62,9.99999e-01,2.26256e-62,9.64999e-01,8.04080e-01,9.99999e-01
1.228637839e+00,2.49573e-48,9.99999e-01,3.14282e-48,9.75564e-01,8.07551e-01,9.99999e-01
