#,Wave/freq,Total,O2,CO2,H2O,Rayleigh,CIA
4.000000000e-01,2.82204e-02,9.99999e-01,9.99999e-01,9.99992e-01,2.82206e-02,9.99999e-01
4.020000000e-01,3.02831e-02,9.99999e-01,9.99999e-01,9.99995e-01,3.02832e-02,9.99999e-01
4.040100000e-01,3.24490e-02,9.99999e-01,9.99999e-01,9.99997e-01,3.24491e-02,9.99999e-01
4.060300500e-01,3.47224e-02,9.99999e-01,9.99999e-01,9.99999e-01,3.47224e-02,9.99999e-01
4.080602003e-01,3.71053e-02,9.99999e-01,9.99999e-01,9.99999e-01,3.71053e-02,9.99999e-01
4.101005013e-01,3.95998e-02,9.99999e-01,9.99999e-01,9.99999e-01,3.95998e-02,9.99999e-01
4.121510038e-01,4.22078e-02,9.99999e-01,9.99999e-01,9.99999e-01,4.22078e-02,9.99999e-01
4.142117588e-01,4.49307e-02,9.99999e-01,9.99999e-01,9.99997e-01,4.49308e-02,9.99999e-01
4.162828176e-01,4.77701e-02,9.99999e-01,9.99999e-01,9.99990e-01,4.77705e-02,9.99999e-01
4.183642317e-01,5.07280e-02,9.99999e-01,9.99999e-01,9.99994e-01,5.07282e-02,9.99999e-01
4.204560528e-01,5.38050e-02,9.99999e-01,9.99999e-01,9.99996e-01,5.38052e-02,9.99999e-01
4.225583331e-01,5.70024e-02,9.99999e-01,9.99999e-01,9.99998e-01,5.70025e-02,9.99999e-01
4.246711247e-01,6.03208e-02,9.99999e-01,9.99999e-01,9.99998e-01,6.03209e-02,9.99999e-01
4.267944804e-01,6.37611e-02,9.99999e-01,9.99999e-01,9.99998e-01,6.37612e-02,9.99999e-01
4.289284528e-01,6.73239e-02,9.99999e-01,9.99999e-01,9.99998e-01,6.73239e-02,9.99999e-01
4.310730950e-01,7.10094e-02,9.99999e-01,9.99999e-01,9.99999e-01,7.10094e-02,9.99999e-01
4.332284605e-01,7.48179e-02,9.99999e-01,9.99999e-01,9.99999e-01,7.48179e-02,9.99999e-01
4.353946028e-01,7.87493e-02,9.99999e-01,9.99999e-01,9.99999e-01,7.87493e-02,9.99999e-01
4.375715758e-01,8.28034e-02,9.99999e-01,9.99999e-01,9.99998e-01,8.28035e-02,9.99999e-01
4.397594337e-01,8.69794e-02,9.99999e-01,9.99999e-01,9.99991e-01,8.69800e-02,9.99999e-01
4.419582309e-01,9.12750e-02,9.99999e-01,9.99999e-01,9.99960e-01,9.12785e-02,9.99999e-01
4.441680220e-01,9.56954e-02,9.99999e-01,9.99999e-01,9.99969e-01,9.56983e-02,9.99999e-01
4.463888621e-01,1.00235e-01,9.99999e-01,9.99999e-01,9.99968e-01,1.00238e-01,9.99999e-01
4.486208064e-01,1.04896e-01,9.99999e-01,9.99999e-01,9.99980e-01,1.04898e-01,9.99999e-01
4.508639105e-01,1.09674e-01,9.99999e-01,9.99999e-01,9.99990e-01,1.09675e-01,9.99999e-01
4.531182300e-01,1.14569e-01,9.99999e-01,9.99999e-01,9.99995e-01,1.14569e-01,9.99999e-01
4.553838212e-01,1.19578e-01,9.99999e-01,9.99999e-01,9.99997e-01,1.19579e-01,9.99999e-01
4.576607403e-01,1.24702e-01,9.99999e-01,9.99999e-01,9.99998e-01,1.24702e-01,9.99999e-01
4.599490440e-01,1.29936e-01,9.99999e-01,9.99999e-01,9.99998e-01,1.29937e-01,9.99999e-01
4.622487892e-01,1.35281e-01,9.99999e-01,9.99999e-01,9.99999e-01,1.35281e-01,9.99999e-01
4.645600332e-01,1.40733e-01,9.99999e-01,9.99999e-01,9.99998e-01,1.40734e-01,9.99999e-01
4.668828333e-01,1.46290e-01,9.99999e-01,9.99999e-01,9.99990e-01,1.46291e-01,9.99999e-01
4.692172475e-01,1.51949e-01,9.99999e-01,9.99999e-01,9.99979e-01,1.51952e-01,9.99999e-01
4.715633337e-01,1.57712e-01,9.99999e-01,9.99999e-01,9.99986e-01,1.57714e-01,9.99999e-01
4.739211504e-01,1.63572e-01,9.99999e-01,9.99999e-01,9.99987e-01,1.63574e-01,9.99999e-01
4.762907561e-01,1.69529e-01,9.99999e-01,9.99999e-01,9.99993e-01,1.69530e-01,9.99999e-01
4.786722099e-01,1.75578e-01,9.99999e-01,9.99999e-01,9.99996e-01,1.75578e-01,9.99999e-01
4.810655710e-01,1.81716e-01,9.99999e-01,9.99999e-01,9.99998e-01,1.81716e-01,9.99999e-01
4.834708988e-01,1.87940e-01,9.99999e-01,9.99999e-01,9.99991e-01,1.87942e-01,9.99999e-01
4.858882533e-01,1.94248e-01,9.99999e-01,9.99999e-01,9.99985e-01,1.94251e-01,9.99999e-01
4.883176946e-01,2.00638e-01,9.99999e-01,9.99999e-01,9.99987e-01,2.00641e-01,9.99999e-01
4.907592831e-01,2.07106e-01,9.99999e-01,9.99999e-01,9.99988e-01,2.07109e-01,9.99999e-01
4.932130795e-01,2.13649e-01,9.99999e-01,9.99999e-01,9.99992e-01,2.13651e-01,9.99999e-01
4.956791449e-01,2.20264e-01,9.99999e-01,9.99999e-01,9.99995e-01,2.20265e-01,9.99999e-01
4.981575406e-01,2.26942e-01,9.99999e-01,9.99999e-01,9.99979e-01,2.26946e-01,9.99999e-01
5.006483283e-01,2.33681e-01,9.99999e-01,9.99999e-01,9.99948e-01,2.33693e-01,9.99999e-01
5.031515699e-01,2.40438e-01,9.99999e-01,9.99999e-01,9.99739e-01,2.40501e-01,9.99999e-01
5.056673278e-01,2.47333e-01,9.99999e-01,9.99999e-01,9.99862e-01,2.47366e-01,9.99999e-01
5.081956644e-01,2.54243e-01,9.99999e-01,9.99999e-01,9.99826e-01,2.54287e-01,9.99999e-01
5.107366428e-01,2.61228e-01,9.99999e-01,9.99999e-01,9.99882e-01,2.61258e-01,9.99999e-01
5.132903260e-01,2.68260e-01,9.99999e-01,9.99999e-01,9.99932e-01,2.68278e-01,9.99999e-01
5.158567776e-01,2.75334e-01,9.99999e-01,9.99999e-01,9.99971e-01,2.75341e-01,9.99999e-01
5.184360615e-01,2.82443e-01,9.99999e-01,9.99999e-01,9.99988e-01,2.82446e-01,9.99999e-01
5.210282418e-01,2.89587e-01,9.99999e-01,9.99999e-01,9.99995e-01,2.89588e-01,9.99999e-01
5.236333830e-01,2.96759e-01,9.99999e-01,9.99999e-01,9.99982e-01,2.96764e-01,9.99999e-01
5.262515499e-01,3.03968e-01,9.99999e-01,9.99999e-01,9.99988e-01,3.03972e-01,9.99999e-01
5.288828077e-01,3.11203e-01,9.99999e-01,9.99999e-01,9.99989e-01,3.11206e-01,9.99999e-01
5.315272217e-01,3.18462e-01,9.99999e-01,9.99999e-01,9.99990e-01,3.18465e-01,9.99999e-01
5.341848578e-01,3.25743e-01,9.99999e-01,9.99999e-01,9.99993e-01,3.25745e-01,9.99999e-01
5.368557821e-01,3.33036e-01,9.99999e-01,9.99999e-01,9.99979e-01,3.33042e-01,9.99999e-01
5.395400610e-01,3.40330e-01,9.99999e-01,9.99999e-01,9.99928e-01,3.40354e-01,9.99999e-01
5.422377613e-01,3.47646e-01,9.99999e-01,9.99999e-01,9.99907e-01,3.47678e-01,9.99999e-01
5.449489501e-01,3.54979e-01,9.99999e-01,9.99999e-01,9.99913e-01,3.55009e-01,9.99999e-01
5.476736949e-01,3.62319e-01,9.99999e-01,9.99999e-01,9.99923e-01,3.62346e-01,9.99999e-01
5.504120634e-01,3.69665e-01,9.99999e-01,9.99999e-01,9.99944e-01,3.69685e-01,9.99999e-01
5.531641237e-01,3.77013e-01,9.99999e-01,9.99999e-01,9.99971e-01,3.77023e-01,9.99999e-01
5.559299443e-01,3.84353e-01,9.99999e-01,9.99999e-01,9.99986e-01,3.84358e-01,9.99999e-01
5.587095940e-01,3.91683e-01,9.99999e-01,9.99999e-01,9.99991e-01,3.91686e-01,9.99999e-01
5.615031420e-01,3.99002e-01,9.99999e-01,9.99999e-01,9.99990e-01,3.99006e-01,9.99999e-01
5.643106577e-01,4.06309e-01,9.99999e-01,9.99999e-01,9.99988e-01,4.06313e-01,9.99999e-01
5.671322110e-01,4.13552e-01,9.99999e-01,9.99999e-01,9.99870e-01,4.13606e-01,9.99999e-01
5.699678720e-01,4.20824e-01,9.99999e-01,9.99999e-01,9.99863e-01,4.20882e-01,9.99999e-01
5.728177114e-01,4.28077e-01,9.99999e-01,9.99999e-01,9.99857e-01,4.28138e-01,9.99999e-01
5.756818000e-01,4.35316e-01,9.99999e-01,9.99999e-01,9.99869e-01,4.35372e-01,9.99999e-01
5.785602090e-01,4.42532e-01,9.99999e-01,9.99999e-01,9.99885e-01,4.42582e-01,9.99999e-01
5.814530100e-01,4.49715e-01,9.99999e-01,9.99999e-01,9.99885e-01,4.49766e-01,9.99999e-01
5.843602750e-01,4.56859e-01,9.99999e-01,9.99999e-01,9.99862e-01,4.56921e-01,9.99999e-01
5.872820764e-01,4.63498e-01,9.99999e-01,9.99999e-01,9.98820e-01,4.64045e-01,9.99999e-01
5.902184868e-01,4.70466e-01,9.99999e-01,9.99999e-01,9.98577e-01,4.71136e-01,9.99999e-01
5.931695792e-01,4.77711e-01,9.99999e-01,9.99999e-01,9.98993e-01,4.78192e-01,9.99999e-01
5.961354271e-01,4.84677e-01,9.99999e-01,9.99999e-01,9.98897e-01,4.85212e-01,9.99999e-01
5.991161043e-01,4.91797e-01,9.99999e-01,9.99999e-01,9.99196e-01,4.92192e-01,9.99999e-01
6.021116848e-01,4.98905e-01,9.99999e-01,9.99999e-01,9.99544e-01,4.99132e-01,9.99999e-01
6.051222432e-01,5.05914e-01,9.99999e-01,9.99999e-01,9.99769e-01,5.06031e-01,9.99999e-01
6.081478544e-01,5.12834e-01,9.99999e-01,9.99999e-01,9.99900e-01,5.12885e-01,9.99999e-01
6.111885937e-01,5.19672e-01,9.99999e-01,9.99999e-01,9.99957e-01,5.19694e-01,9.99999e-01
6.142445367e-01,5.26447e-01,9.99999e-01,9.99999e-01,9.99980e-01,5.26457e-01,9.99999e-01
6.173157594e-01,5.33165e-01,9.99999e-01,9.99999e-01,9.99989e-01,5.33171e-01,9.99999e-01
6.204023382e-01,5.39831e-01,9.99999e-01,9.99999e-01,9.99990e-01,5.39835e-01,9.99999e-01
6.235043498e-01,5.46428e-01,9.99999e-01,9.99999e-01,9.99960e-01,5.46449e-01,9.99999e-01
6.266218716e-01,5.52898e-01,9.99999e-01,9.99999e-01,9.99794e-01,5.53011e-01,9.99999e-01
6.297549810e-01,5.59478e-01,9.99999e-01,9.99999e-01,9.99924e-01,5.59520e-01,9.99999e-01
6.329037559e-01,5.65891e-01,9.99999e-01,9.99999e-01,9.99851e-01,5.65974e-01,9.99999e-01
6.360682746e-01,5.72301e-01,9.99999e-01,9.99999e-01,9.99873e-01,5.72374e-01,9.99999e-01
6.392486160e-01,5.78622e-01,9.99999e-01,9.99999e-01,9.99835e-01,5.78717e-01,9.99999e-01
6.424448591e-01,5.84874e-01,9.99999e-01,9.99999e-01,9.99779e-01,5.85003e-01,9.99999e-01
6.456570834e-01,5.90627e-01,9.99999e-01,9.99999e-01,9.98978e-01,5.91231e-01,9.99999e-01
6.488853688e-01,5.96956e-01,9.99999e-01,9.99999e-01,9.99255e-01,5.97400e-01,9.99999e-01
6.521297956e-01,6.03052e-01,9.99999e-01,9.99999e-01,9.99240e-01,6.03510e-01,9.99999e-01
6.553904446e-01,6.09099e-01,9.99999e-01,9.99999e-01,9.99243e-01,6.09560e-01,9.99999e-01
6.586673968e-01,6.15152e-01,9.99999e-01,9.99999e-01,9.99352e-01,6.15550e-01,9.99999e-01
6.619607338e-01,6.21254e-01,9.99999e-01,9.99999e-01,9.99639e-01,6.21478e-01,9.99999e-01
6.652705375e-01,6.27209e-01,9.99999e-01,9.99999e-01,9.99783e-01,6.27345e-01,9.99999e-01
6.685968902e-01,6.33091e-01,9.99999e-01,9.99999e-01,9.99907e-01,6.33149e-01,9.99999e-01
6.719398746e-01,6.38861e-01,9.99999e-01,9.99999e-01,9.99953e-01,6.38891e-01,9.99999e-01
6.752995740e-01,6.44554e-01,9.99999e-01,9.99999e-01,9.99974e-01,6.44570e-01,9.99999e-01
6.786760719e-01,6.50162e-01,9.99999e-01,9.99999e-01,9.99962e-01,6.50186e-01,9.99999e-01
6.820694522e-01,6.55697e-01,9.99999e-01,9.99999e-01,9.99937e-01,6.55738e-01,9.99999e-01
6.854797995e-01,6.61173e-01,9.99999e-01,9.99999e-01,9.99918e-01,6.61227e-01,9.99999e-01
6.889071985e-01,6.66521e-01,9.99999e-01,9.99999e-01,9.99803e-01,6.66651e-01,9.99999e-01
6.923517345e-01,6.69865e-01,9.99999e-01,9.99999e-01,9.96803e-01,6.72012e-01,9.99999e-01
6.958134932e-01,6.76193e-01,9.99999e-01,9.99999e-01,9.98351e-01,6.77309e-01,9.99999e-01
6.992925606e-01,6.81465e-01,9.99999e-01,9.99999e-01,9.98421e-01,6.82542e-01,9.99999e-01
7.027890234e-01,6.86375e-01,9.99999e-01,9.99999e-01,9.98057e-01,6.87711e-01,9.99999e-01
7.063029686e-01,6.91684e-01,9.99999e-01,9.99999e-01,9.98366e-01,6.92815e-01,9.99999e-01
7.098344834e-01,6.96762e-01,9.99999e-01,9.99999e-01,9.98432e-01,6.97856e-01,9.99999e-01
7.133836558e-01,7.01356e-01,9.99999e-01,9.99999e-01,9.97899e-01,7.02832e-01,9.99999e-01
7.169505741e-01,6.95834e-01,9.99999e-01,9.99999e-01,9.83170e-01,7.07745e-01,9.99999e-01
7.205353270e-01,7.06756e-01,9.99999e-01,9.99999e-01,9.91807e-01,7.12594e-01,9.99999e-01
7.241380036e-01,7.09878e-01,9.99999e-01,9.99999e-01,9.89544e-01,7.17379e-01,9.99999e-01
7.277586936e-01,7.15287e-01,9.99999e-01,9.99999e-01,9.90562e-01,7.22101e-01,9.99999e-01
7.313974871e-01,7.19498e-01,9.99999e-01,9.99999e-01,9.90007e-01,7.26760e-01,9.99999e-01
7.350544745e-01,7.27357e-01,9.99999e-01,9.99999e-01,9.94532e-01,7.31356e-01,9.99999e-01
7.387297469e-01,7.32930e-01,9.99999e-01,9.99999e-01,9.95978e-01,7.35889e-01,9.99999e-01
7.424233956e-01,7.38905e-01,9.99999e-01,9.99999e-01,9.98033e-01,7.40361e-01,9.99999e-01
7.461355126e-01,7.43882e-01,9.99999e-01,9.99999e-01,9.98807e-01,7.44770e-01,9.99999e-01
7.498661902e-01,7.48702e-01,9.99999e-01,9.99999e-01,9.99445e-01,7.49118e-01,9.99999e-01
7.536155211e-01,7.53199e-01,9.99999e-01,9.99999e-01,9.99727e-01,7.53404e-01,9.99999e-01
7.573835987e-01,7.57524e-01,9.99999e-01,9.99999e-01,9.99859e-01,7.57630e-01,9.99999e-01
7.611705167e-01,7.61729e-01,9.99999e-01,9.99999e-01,9.99912e-01,7.61795e-01,9.99999e-01
7.649763693e-01,7.65858e-01,9.99999e-01,9.99999e-01,9.99944e-01,7.65900e-01,9.99999e-01
7.688012511e-01,7.69916e-01,9.99999e-01,9.99999e-01,9.99961e-01,7.69945e-01,9.99999e-01
7.726452574e-01,7.73907e-01,9.99999e-01,9.99999e-01,9.99968e-01,7.73932e-01,9.99999e-01
7.765084837e-01,7.77824e-01,9.99999e-01,9.99999e-01,9.99954e-01,7.77859e-01,9.99999e-01
7.803910261e-01,7.71641e-01,9.99999e-01,9.87283e-01,9.99806e-01,7.81728e-01,9.99999e-01
7.842929812e-01,7.44470e-01,9.99999e-01,9.48344e-01,9.99325e-01,7.85540e-01,9.99999e-01
7.882144461e-01,7.44376e-01,9.99999e-01,9.44376e-01,9.98616e-01,7.89294e-01,9.99999e-01
7.921555184e-01,7.66891e-01,9.99999e-01,9.67812e-01,9.99242e-01,7.92992e-01,9.99999e-01
7.961162960e-01,7.78457e-01,9.99999e-01,9.78494e-01,9.98654e-01,7.96633e-01,9.99999e-01
8.000968774e-01,7.89619e-01,9.99999e-01,9.88282e-01,9.98450e-01,8.00219e-01,9.99999e-01
8.040973618e-01,7.97633e-01,9.99999e-01,9.93928e-01,9.98449e-01,8.03749e-01,9.99999e-01
8.081178486e-01,8.02148e-01,9.99999e-01,9.97204e-01,9.96493e-01,8.07225e-01,9.99999e-01
8.121584379e-01,7.98150e-01,9.99999e-01,9.99139e-01,9.85428e-01,8.10647e-01,9.99999e-01
8.162192301e-01,7.99845e-01,9.99999e-01,9.99809e-01,9.82776e-01,8.14015e-01,9.99999e-01
8.203003262e-01,8.10186e-01,9.99999e-01,9.99996e-01,9.91260e-01,8.17331e-01,9.99999e-01
8.244018279e-01,8.10662e-01,9.99999e-01,9.99999e-01,9.87896e-01,8.20594e-01,9.99999e-01
8.285238370e-01,8.15306e-01,9.99999e-01,9.99999e-01,9.89682e-01,8.23805e-01,9.99999e-01
8.326664562e-01,8.18350e-01,9.99999e-01,9.99999e-01,9.89581e-01,8.26965e-01,9.99999e-01
8.368297885e-01,8.23907e-01,9.99999e-01,9.99999e-01,9.92569e-01,8.30074e-01,9.99999e-01
8.410139374e-01,8.29454e-01,9.99999e-01,9.99999e-01,9.95583e-01,8.33133e-01,9.99999e-01
8.452190071e-01,8.34333e-01,9.99999e-01,9.99999e-01,9.97834e-01,8.36143e-01,9.99999e-01
8.494451021e-01,8.38049e-01,9.99999e-01,9.99999e-01,9.98741e-01,8.39104e-01,9.99999e-01
8.536923276e-01,8.41391e-01,9.99999e-01,9.99999e-01,9.99256e-01,8.42016e-01,9.99999e-01
8.579607893e-01,8.44494e-01,9.99999e-01,9.99999e-01,9.99541e-01,8.44881e-01,9.99999e-01
8.622505932e-01,8.47453e-01,9.99999e-01,9.99999e-01,9.99708e-01,8.47699e-01,9.99999e-01
8.665618462e-01,8.19991e-01,9.99999e-01,9.64332e-01,9.99819e-01,8.50470e-01,9.99999e-01
8.708946554e-01,7.43213e-01,9.99999e-01,8.71270e-01,9.99793e-01,8.53195e-01,9.99999e-01
8.752491287e-01,7.67335e-01,9.99999e-01,8.96793e-01,9.99723e-01,8.55875e-01,9.99999e-01
8.796253743e-01,8.09040e-01,9.99999e-01,9.42733e-01,9.99616e-01,8.58510e-01,9.99999e-01
8.840235012e-01,8.34971e-01,9.99999e-01,9.70076e-01,9.99562e-01,8.61101e-01,9.99999e-01
8.884436187e-01,8.52043e-01,9.99999e-01,9.88146e-01,9.98391e-01,8.63648e-01,9.99999e-01
8.928858368e-01,8.47499e-01,9.99999e-01,9.95183e-01,9.83185e-01,8.66153e-01,9.99999e-01
8.973502660e-01,8.42011e-01,9.99999e-01,9.98831e-01,9.70497e-01,8.68615e-01,9.99999e-01
9.018370173e-01,8.57749e-01,9.99999e-01,9.99871e-01,9.84872e-01,8.71035e-01,9.99999e-01
9.063462024e-01,8.58848e-01,9.99999e-01,9.96630e-01,9.86611e-01,8.73413e-01,9.99999e-01
9.108779334e-01,8.51073e-01,9.99999e-01,9.92397e-01,9.79232e-01,8.75751e-01,9.99998e-01
9.154323231e-01,8.55890e-01,9.99999e-01,9.98219e-01,9.76488e-01,8.78049e-01,9.99998e-01
9.200094847e-01,8.40979e-01,9.99999e-01,9.72942e-01,9.81537e-01,8.80308e-01,9.99998e-01
9.246095321e-01,8.25319e-01,9.99999e-01,9.63240e-01,9.70614e-01,8.82527e-01,9.99998e-01
9.292325798e-01,7.03273e-01,9.99999e-01,9.70754e-01,8.17814e-01,8.84709e-01,9.99996e-01
9.338787427e-01,6.65525e-01,9.99999e-01,9.71963e-01,7.71114e-01,8.86852e-01,9.99995e-01
9.385481364e-01,7.84815e-01,9.99999e-01,9.79376e-01,9.01025e-01,8.88958e-01,9.99995e-01
9.432408771e-01,7.58820e-01,9.99999e-01,9.87363e-01,8.62286e-01,8.91027e-01,9.99995e-01
9.479570815e-01,7.20349e-01,9.99999e-01,9.93493e-01,8.11769e-01,8.93060e-01,9.99995e-01
9.526968669e-01,7.66125e-01,9.99999e-01,9.96860e-01,8.58549e-01,8.95057e-01,9.99996e-01
9.574603512e-01,7.81473e-01,9.99999e-01,9.98657e-01,8.72332e-01,8.97019e-01,9.99997e-01
9.622476530e-01,8.04713e-01,9.99999e-01,9.99581e-01,8.95540e-01,8.98947e-01,9.99998e-01
9.670588912e-01,8.45366e-01,9.99999e-01,9.99874e-01,9.38535e-01,9.00841e-01,9.99998e-01
9.718941857e-01,8.67826e-01,9.99999e-01,9.99990e-01,9.61375e-01,9.02701e-01,9.99998e-01
9.767536566e-01,8.75443e-01,9.99999e-01,9.99999e-01,9.67845e-01,9.04528e-01,9.99999e-01
9.816374249e-01,8.84691e-01,9.99999e-01,9.99999e-01,9.76132e-01,9.06322e-01,9.99999e-01
9.865456120e-01,8.94499e-01,9.99999e-01,9.99999e-01,9.85038e-01,9.08085e-01,9.99999e-01
9.914783401e-01,9.01384e-01,9.99999e-01,9.99999e-01,9.90731e-01,9.09816e-01,9.99999e-01
9.964357318e-01,9.06908e-01,9.99999e-01,9.99999e-01,9.94944e-01,9.11516e-01,9.99999e-01
1.001417910e+00,9.10417e-01,9.99999e-01,9.99999e-01,9.96968e-01,9.13186e-01,9.99999e-01
1.006425000e+00,9.13243e-01,9.99999e-01,9.99999e-01,9.98269e-01,9.14825e-01,9.99999e-01
1.011457125e+00,9.15452e-01,9.99999e-01,9.99999e-01,9.98926e-01,9.16435e-01,9.99999e-01
1.016514411e+00,9.17347e-01,9.99999e-01,9.99999e-01,9.99270e-01,9.18016e-01,9.99999e-01
1.021596983e+00,9.19017e-01,9.99999e-01,9.99980e-01,9.99418e-01,9.19569e-01,9.99999e-01
1.026704968e+00,9.19469e-01,9.99999e-01,9.98688e-01,9.99546e-01,9.21093e-01,9.99999e-01
1.031838492e+00,9.02149e-01,9.99999e-01,9.78160e-01,9.99670e-01,9.22589e-01,9.99999e-01
1.036997685e+00,3.41587e-01,9.99999e-01,3.69722e-01,9.99803e-01,9.24059e-01,9.99999e-01
1.042182673e+00,4.26357e-01,9.99999e-01,4.60779e-01,9.99766e-01,9.25502e-01,9.99999e-01
1.047393587e+00,3.75207e-01,9.99999e-01,4.04905e-01,9.99690e-01,9.26918e-01,9.99999e-01
1.052630555e+00,9.38699e-02,9.99999e-01,1.01154e-01,9.99574e-01,9.28308e-01,9.99999e-01
1.057893707e+00,1.58854e-01,9.99999e-01,1.70972e-01,9.99289e-01,9.29673e-01,9.99999e-01
1.063183176e+00,2.60730e-01,9.99999e-01,2.80328e-01,9.98831e-01,9.31014e-01,9.99999e-01
1.068499092e+00,4.02630e-01,9.99999e-01,4.32642e-01,9.98045e-01,9.32329e-01,9.99999e-01
1.073841587e+00,5.49897e-01,9.99999e-01,5.90255e-01,9.97709e-01,9.33620e-01,9.99999e-01
1.079210795e+00,6.68969e-01,9.99999e-01,7.17593e-01,9.97070e-01,9.34888e-01,9.99999e-01
1.084606849e+00,7.78102e-01,9.99999e-01,8.34830e-01,9.95562e-01,9.36132e-01,9.99999e-01
1.090029883e+00,8.48353e-01,9.99999e-01,9.10814e-01,9.93610e-01,9.37353e-01,9.99999e-01
1.095480033e+00,8.80956e-01,9.99999e-01,9.55102e-01,9.82692e-01,9.38552e-01,9.99999e-01
1.100957433e+00,8.79254e-01,9.99999e-01,9.78147e-01,9.56473e-01,9.39728e-01,9.99998e-01
1.106462220e+00,8.31685e-01,9.99999e-01,9.90916e-01,8.91937e-01,9.40883e-01,9.99997e-01
1.111994531e+00,7.37142e-01,9.99999e-01,9.96625e-01,7.85095e-01,9.42016e-01,9.99996e-01
1.117554504e+00,6.35255e-01,9.99999e-01,9.99176e-01,6.74078e-01,9.43128e-01,9.99994e-01
1.123142276e+00,7.01525e-01,9.99999e-01,9.99945e-01,7.43003e-01,9.44219e-01,9.99993e-01
1.128757988e+00,7.84075e-01,9.99999e-01,9.99999e-01,8.29459e-01,9.45290e-01,9.99993e-01
1.134401778e+00,5.95606e-01,9.99999e-01,9.99999e-01,6.29381e-01,9.46341e-01,9.99992e-01
1.140073787e+00,8.49112e-01,9.99999e-01,9.99999e-01,8.96285e-01,9.47373e-01,9.99994e-01
1.145774156e+00,7.52321e-01,9.99999e-01,9.99999e-01,7.93268e-01,9.48385e-01,9.99994e-01
1.151503026e+00,7.31605e-01,9.99999e-01,9.99999e-01,7.70617e-01,9.49378e-01,9.99995e-01
1.157260541e+00,7.68936e-01,9.99999e-01,9.99999e-01,8.09108e-01,9.50353e-01,9.99996e-01
1.163046844e+00,8.14089e-01,9.99999e-01,9.99999e-01,8.55757e-01,9.51309e-01,9.99997e-01
1.168862078e+00,8.55356e-01,9.99999e-01,9.99999e-01,8.98249e-01,9.52248e-01,9.99998e-01
1.174706389e+00,8.92116e-01,9.99999e-01,9.99999e-01,9.35947e-01,9.53169e-01,9.99999e-01
1.180579921e+00,9.16440e-01,9.99999e-01,9.99999e-01,9.60556e-01,9.54072e-01,9.99999e-01
1.186482820e+00,9.33521e-01,9.99999e-01,9.99996e-01,9.77553e-01,9.54958e-01,9.99999e-01
1.192415234e+00,9.38810e-01,9.99999e-01,9.95267e-01,9.86847e-01,9.55828e-01,9.99999e-01
1.198377311e+00,5.72957e-01,9.99999e-01,6.04592e-01,9.88893e-01,9.56681e-01,9.99999e-01
1.204369197e+00,2.45584e-05,9.99999e-01,2.58048e-05,9.89482e-01,9.57519e-01,9.99999e-01
1.210391043e+00,1.52105e-15,9.99999e-01,1.59609e-15,9.89946e-01,9.58340e-01,9.99999e-01
1.216442998e+00,1.08481e-13,9.99999e-01,1.13708e-13,9.91449e-01,9.59146e-01,9.99999e-01
1.222525213e+00,1.84501e-13,9.99999e-01,1.92907e-13,9.93338e-01,9.59936e-01,9.99999e-01
1.228637839e+00,2.68806e-10,9.99999e-01,2.80739e-10,9.95369e-01,9.60712e-01,9.99999e-01
