#,Wave/freq,Total,O2,CO2,H2O,Rayleigh,CIA
4.000000000e-01,3.13327e-17,9.99999e-01,9.99999e-01,9.99925e-01,3.13350e-17,9.99999e-01
4.020000000e-01,6.64254e-17,9.99999e-01,9.99999e-01,9.99953e-01,6.64285e-17,9.99999e-01
4.040100000e-01,1.38642e-16,9.99999e-01,9.99999e-01,9.99980e-01,1.38645e-16,9.99999e-01
4.060300500e-01,2.85192e-16,9.99999e-01,9.99999e-01,9.99995e-01,2.85194e-16,9.99999e-01
4.080602003e-01,5.78347e-16,9.99999e-01,9.99999e-01,9.99998e-01,5.78348e-16,9.99999e-01
4.101005013e-01,1.15657e-15,9.99999e-01,9.99999e-01,9.99999e-01,1.15657e-15,9.99999e-01
4.121510038e-01,2.28145e-15,9.99999e-01,9.99999e-01,9.99996e-01,2.28146e-15,9.99999e-01
4.142117588e-01,4.44033e-15,9.99999e-01,9.99999e-01,9.99978e-01,4.44043e-15,9.99999e-01
4.162828176e-01,8.52871e-15,9.99999e-01,9.99999e-01,9.99907e-01,8.52950e-15,9.99999e-01
4.183642317e-01,1.61733e-14,9.99999e-01,9.99999e-01,9.99944e-01,1.61742e-14,9.99999e-01
4.204560528e-01,3.02843e-14,9.99999e-01,9.99999e-01,9.99966e-01,3.02853e-14,9.99999e-01
4.225583331e-01,5.60088e-14,9.99999e-01,9.99999e-01,9.99987e-01,5.60095e-14,9.99999e-01
4.246711247e-01,1.02332e-13,9.99999e-01,9.99999e-01,9.99989e-01,1.02333e-13,9.99999e-01
4.267944804e-01,1.84754e-13,9.99999e-01,9.99999e-01,9.99984e-01,1.84757e-13,9.99999e-01
4.289284528e-01,3.29695e-13,9.99999e-01,9.99999e-01,9.99988e-01,3.29698e-13,9.99999e-01
4.310730950e-01,5.81652e-13,9.99999e-01,9.99999e-01,9.99994e-01,5.81654e-13,9.99999e-01
4.332284605e-01,1.01471e-12,9.99999e-01,9.99999e-01,9.99998e-01,1.01471e-12,9.99999e-01
4.353946028e-01,1.75084e-12,9.99999e-01,9.99999e-01,9.99998e-01,1.75084e-12,9.99999e-01
4.375715758e-01,2.98861e-12,9.99999e-01,9.99999e-01,9.99990e-01,2.98863e-12,9.99999e-01
4.397594337e-01,5.04749e-12,9.99999e-01,9.99999e-01,9.99917e-01,5.04790e-12,9.99999e-01
4.419582309e-01,8.43474e-12,9.99999e-01,9.99999e-01,9.99584e-01,8.43825e-12,9.99999e-01
4.441680220e-01,1.39588e-11,9.99999e-01,9.99999e-01,9.99680e-01,1.39632e-11,9.99999e-01
4.463888621e-01,2.28694e-11,9.99999e-01,9.99999e-01,9.99665e-01,2.28770e-11,9.99999e-01
4.486208064e-01,3.71098e-11,9.99999e-01,9.99999e-01,9.99793e-01,3.71174e-11,9.99999e-01
4.508639105e-01,5.96434e-11,9.99999e-01,9.99999e-01,9.99902e-01,5.96492e-11,9.99999e-01
4.531182300e-01,9.49609e-11,9.99999e-01,9.99999e-01,9.99961e-01,9.49646e-11,9.99999e-01
4.553838212e-01,1.49802e-10,9.99999e-01,9.99999e-01,9.99973e-01,1.49806e-10,9.99999e-01
4.576607403e-01,2.34197e-10,9.99999e-01,9.99999e-01,9.99987e-01,2.34200e-10,9.99999e-01
4.599490440e-01,3.62918e-10,9.99999e-01,9.99999e-01,9.99991e-01,3.62921e-10,9.99999e-01
4.622487892e-01,5.57543e-10,9.99999e-01,9.99999e-01,9.99998e-01,5.57544e-10,9.99999e-01
4.645600332e-01,8.49298e-10,9.99999e-01,9.99999e-01,9.99993e-01,8.49303e-10,9.99999e-01
4.668828333e-01,1.28290e-09,9.99999e-01,9.99999e-01,9.99901e-01,1.28303e-09,9.99999e-01
4.692172475e-01,1.92212e-09,9.99999e-01,9.99999e-01,9.99790e-01,1.92252e-09,9.99999e-01
4.715633337e-01,2.85743e-09,9.99999e-01,9.99999e-01,9.99862e-01,2.85783e-09,9.99999e-01
4.739211504e-01,4.21448e-09,9.99999e-01,9.99999e-01,9.99869e-01,4.21503e-09,9.99999e-01
4.762907561e-01,6.16882e-09,9.99999e-01,9.99999e-01,9.99931e-01,6.16923e-09,9.99999e-01
4.786722099e-01,8.96154e-09,9.99999e-01,9.99999e-01,9.99971e-01,8.96178e-09,9.99999e-01
4.810655710e-01,1.29226e-08,9.99999e-01,9.99999e-01,9.99991e-01,1.29227e-08,9.99999e-01
4.834708988e-01,1.84986e-08,9.99999e-01,9.99999e-01,9.99918e-01,1.85001e-08,9.99999e-01
4.858882533e-01,2.62938e-08,9.99999e-01,9.99999e-01,9.99851e-01,2.62977e-08,9.99999e-01
4.883176946e-01,3.71184e-08,9.99999e-01,9.99999e-01,9.99875e-01,3.71230e-08,9.99999e-01
4.907592831e-01,5.20430e-08,9.99999e-01,9.99999e-01,9.99887e-01,5.20488e-08,9.99999e-01
4.932130795e-01,7.24845e-08,9.99999e-01,9.99999e-01,9.99920e-01,7.24903e-08,9.99999e-01
4.956791449e-01,1.00297e-07,9.99999e-01,9.99999e-01,9.99957e-01,1.00301e-07,9.99999e-01
4.981575406e-01,1.37866e-07,9.99999e-01,9.99999e-01,9.99788e-01,1.37895e-07,9.99999e-01
5.006483283e-01,1.88287e-07,9.99999e-01,9.99999e-01,9.99450e-01,1.88391e-07,9.99999e-01
5.031515699e-01,2.55088e-07,9.99999e-01,9.99999e-01,9.97233e-01,2.55796e-07,9.99999e-01
5.056673278e-01,3.44723e-07,9.99999e-01,9.99999e-01,9.98542e-01,3.45226e-07,9.99999e-01
5.081956644e-01,4.62321e-07,9.99999e-01,9.99999e-01,9.98162e-01,4.63172e-07,9.99999e-01
5.107366428e-01,6.17051e-07,9.99999e-01,9.99999e-01,9.98759e-01,6.17817e-07,9.99999e-01
5.132903260e-01,8.18838e-07,9.99999e-01,9.99999e-01,9.99291e-01,8.19418e-07,9.99999e-01
5.158567776e-01,1.08044e-06,9.99999e-01,9.99999e-01,9.99700e-01,1.08076e-06,9.99999e-01
5.184360615e-01,1.41751e-06,9.99999e-01,9.99999e-01,9.99879e-01,1.41768e-06,9.99999e-01
5.210282418e-01,1.84960e-06,9.99999e-01,9.99999e-01,9.99954e-01,1.84969e-06,9.99999e-01
5.236333830e-01,2.40026e-06,9.99999e-01,9.99999e-01,9.99819e-01,2.40070e-06,9.99999e-01
5.262515499e-01,3.09949e-06,9.99999e-01,9.99999e-01,9.99886e-01,3.09984e-06,9.99999e-01
5.288828077e-01,3.98203e-06,9.99999e-01,9.99999e-01,9.99895e-01,3.98244e-06,9.99999e-01
5.315272217e-01,5.09062e-06,9.99999e-01,9.99999e-01,9.99909e-01,5.09108e-06,9.99999e-01
5.341848578e-01,6.47646e-06,9.99999e-01,9.99999e-01,9.99939e-01,6.47684e-06,9.99999e-01
5.368557821e-01,8.19899e-06,9.99999e-01,9.99999e-01,9.99788e-01,8.20072e-06,9.99999e-01
5.395400610e-01,1.03272e-05,9.99999e-01,9.99999e-01,9.99235e-01,1.03351e-05,9.99999e-01
5.422377613e-01,1.29530e-05,9.99999e-01,9.99999e-01,9.99023e-01,1.29657e-05,9.99999e-01
5.449489501e-01,1.61783e-05,9.99999e-01,9.99999e-01,9.99086e-01,1.61931e-05,9.99999e-01
5.476736949e-01,2.01191e-05,9.99999e-01,9.99999e-01,9.99196e-01,2.01353e-05,9.99999e-01
5.504120634e-01,2.49151e-05,9.99999e-01,9.99999e-01,9.99416e-01,2.49296e-05,9.99999e-01
5.531641237e-01,3.07266e-05,9.99999e-01,9.99999e-01,9.99706e-01,3.07356e-05,9.99999e-01
5.559299443e-01,3.77321e-05,9.99999e-01,9.99999e-01,9.99858e-01,3.77374e-05,9.99999e-01
5.587095940e-01,4.61427e-05,9.99999e-01,9.99999e-01,9.99910e-01,4.61468e-05,9.99999e-01
5.615031420e-01,5.62009e-05,9.99999e-01,9.99999e-01,9.99900e-01,5.62064e-05,9.99999e-01
5.643106577e-01,6.81850e-05,9.99999e-01,9.99999e-01,9.99885e-01,6.81928e-05,9.99999e-01
5.671322110e-01,8.23057e-05,9.99999e-01,9.99999e-01,9.98613e-01,8.24199e-05,9.99999e-01
5.699678720e-01,9.90999e-05,9.99999e-01,9.99999e-01,9.98555e-01,9.92432e-05,9.99999e-01
5.728177114e-01,1.18882e-04,9.99999e-01,9.99999e-01,9.98483e-01,1.19063e-04,9.99999e-01
5.756818000e-01,1.42130e-04,9.99999e-01,9.99999e-01,9.98610e-01,1.42328e-04,9.99999e-01
5.785602090e-01,1.69335e-04,9.99999e-01,9.99999e-01,9.98790e-01,1.69540e-04,9.99999e-01
5.814530100e-01,2.01013e-04,9.99999e-01,9.99999e-01,9.98783e-01,2.01258e-04,9.99999e-01
5.843602750e-01,2.37754e-04,9.99999e-01,9.99999e-01,9.98541e-01,2.38102e-04,9.99999e-01
5.872820764e-01,2.77253e-04,9.99999e-01,9.99999e-01,9.87518e-01,2.80757e-04,9.99999e-01
5.902184868e-01,3.25020e-04,9.99999e-01,9.99999e-01,9.84974e-01,3.29978e-04,9.99999e-01
5.931695792e-01,3.82475e-04,9.99999e-01,9.99999e-01,9.89350e-01,3.86592e-04,9.99999e-01
5.961354271e-01,4.46242e-04,9.99999e-01,9.99999e-01,9.88342e-01,4.51506e-04,9.99999e-01
5.991161043e-01,5.21231e-04,9.99999e-01,9.99999e-01,9.91490e-01,5.25705e-04,9.99999e-01
6.021116848e-01,6.07312e-04,9.99999e-01,9.99999e-01,9.95167e-01,6.10261e-04,9.99999e-01
6.051222432e-01,7.04605e-04,9.99999e-01,9.99999e-01,9.97552e-01,7.06333e-04,9.99999e-01
6.081478544e-01,8.14311e-04,9.99999e-01,9.99999e-01,9.98942e-01,8.15172e-04,9.99999e-01
6.111885937e-01,9.37704e-04,9.99999e-01,9.99999e-01,9.99553e-01,9.38123e-04,9.99999e-01
6.142445367e-01,1.07641e-03,9.99999e-01,9.99999e-01,9.99800e-01,1.07663e-03,9.99999e-01
6.173157594e-01,1.23209e-03,9.99999e-01,9.99999e-01,9.99889e-01,1.23222e-03,9.99999e-01
6.204023382e-01,1.40642e-03,9.99999e-01,9.99999e-01,9.99905e-01,1.40655e-03,9.99999e-01
6.235043498e-01,1.60068e-03,9.99999e-01,9.99999e-01,9.99583e-01,1.60135e-03,9.99999e-01
6.266218716e-01,1.81450e-03,9.99999e-01,9.99999e-01,9.97821e-01,1.81846e-03,9.99999e-01
6.297549810e-01,2.05819e-03,9.99999e-01,9.99999e-01,9.99200e-01,2.05983e-03,9.99999e-01
6.329037559e-01,2.32384e-03,9.99999e-01,9.99999e-01,9.98423e-01,2.32751e-03,9.99999e-01
6.360682746e-01,2.62009e-03,9.99999e-01,9.99999e-01,9.98653e-01,2.62362e-03,9.99999e-01
6.392486160e-01,2.94528e-03,9.99999e-01,9.99999e-01,9.98257e-01,2.95042e-03,9.99999e-01
6.424448591e-01,3.30248e-03,9.99999e-01,9.99999e-01,9.97654e-01,3.31025e-03,9.99999e-01
6.456570834e-01,3.66535e-03,9.99999e-01,9.99999e-01,9.89159e-01,3.70552e-03,9.99999e-01
6.488853688e-01,4.10615e-03,9.99999e-01,9.99999e-01,9.92119e-01,4.13876e-03,9.99999e-01
6.521297956e-01,4.57554e-03,9.99999e-01,9.99999e-01,9.91971e-01,4.61257e-03,9.99999e-01
6.553904446e-01,5.08845e-03,9.99999e-01,9.99999e-01,9.91971e-01,5.12963e-03,9.99999e-01
6.586673968e-01,5.65367e-03,9.99999e-01,9.99999e-01,9.93144e-01,5.69269e-03,9.99999e-01
6.619607338e-01,6.28045e-03,9.99999e-01,9.99999e-01,9.96174e-01,6.30457e-03,9.99999e-01
6.652705375e-01,6.95215e-03,9.99999e-01,9.99999e-01,9.97702e-01,6.96815e-03,9.99999e-01
6.685968902e-01,7.67887e-03,9.99999e-01,9.99999e-01,9.99023e-01,7.68637e-03,9.99999e-01
6.719398746e-01,8.45803e-03,9.99999e-01,9.99999e-01,9.99505e-01,8.46221e-03,9.99999e-01
6.752995740e-01,9.29625e-03,9.99999e-01,9.99999e-01,9.99738e-01,9.29867e-03,9.99999e-01
6.786760719e-01,1.01948e-02,9.99999e-01,9.99999e-01,9.99608e-01,1.01988e-02,9.99999e-01
6.820694522e-01,1.11583e-02,9.99999e-01,9.99999e-01,9.99334e-01,1.11657e-02,9.99999e-01
6.854797995e-01,1.21919e-02,9.99999e-01,9.99999e-01,9.99141e-01,1.22024e-02,9.99999e-01
6.889071985e-01,1.32840e-02,9.99999e-01,9.99999e-01,9.97900e-01,1.33120e-02,9.99999e-01
6.923517345e-01,1.40123e-02,9.99999e-01,9.99999e-01,9.66534e-01,1.44975e-02,9.99999e-01
6.958134932e-01,1.54900e-02,9.99999e-01,9.99999e-01,9.82738e-01,1.57620e-02,9.99999e-01
6.992925606e-01,1.68231e-02,9.99999e-01,9.99999e-01,9.83316e-01,1.71086e-02,9.99999e-01
7.027890234e-01,1.81611e-02,9.99999e-01,9.99999e-01,9.79556e-01,1.85401e-02,9.99999e-01
7.063029686e-01,1.97138e-02,9.99999e-01,9.99999e-01,9.82763e-01,2.00596e-02,9.99999e-01
7.098344834e-01,2.13112e-02,9.99999e-01,9.99999e-01,9.83452e-01,2.16698e-02,9.99999e-01
7.133836558e-01,2.28560e-02,9.99999e-01,9.99999e-01,9.77853e-01,2.33736e-02,9.99998e-01
7.169505741e-01,2.10888e-02,9.99999e-01,9.99999e-01,8.37731e-01,2.51737e-02,9.99997e-01
7.205353270e-01,2.48448e-02,9.99999e-01,9.99999e-01,9.17705e-01,2.70728e-02,9.99997e-01
7.241380036e-01,2.60300e-02,9.99999e-01,9.99999e-01,8.95324e-01,2.90733e-02,9.99996e-01
7.277586936e-01,2.82202e-02,9.99999e-01,9.99999e-01,9.05142e-01,3.11777e-02,9.99997e-01
7.313974871e-01,3.00342e-02,9.99999e-01,9.99999e-01,8.99542e-01,3.33883e-02,9.99998e-01
7.350544745e-01,3.36945e-02,9.99999e-01,9.99999e-01,9.43631e-01,3.57073e-02,9.99998e-01
7.387297469e-01,3.65409e-02,9.99999e-01,9.99999e-01,9.58155e-01,3.81367e-02,9.99999e-01
7.424233956e-01,3.98374e-02,9.99999e-01,9.99999e-01,9.79321e-01,4.06785e-02,9.99999e-01
7.461355126e-01,4.27886e-02,9.99999e-01,9.99999e-01,9.87401e-01,4.33345e-02,9.99999e-01
7.498661902e-01,4.58355e-02,9.99999e-01,9.99999e-01,9.94127e-01,4.61062e-02,9.99999e-01
7.536155211e-01,4.88536e-02,9.99999e-01,9.99999e-01,9.97109e-01,4.89952e-02,9.99999e-01
7.573835987e-01,5.19254e-02,9.99999e-01,9.99999e-01,9.98511e-01,5.20028e-02,9.99999e-01
7.611705167e-01,5.50790e-02,9.99999e-01,9.99999e-01,9.99074e-01,5.51300e-02,9.99999e-01
7.649763693e-01,5.83441e-02,9.99999e-01,9.99999e-01,9.99419e-01,5.83779e-02,9.99999e-01
7.688012511e-01,6.17224e-02,9.99999e-01,9.99999e-01,9.99595e-01,6.17474e-02,9.99999e-01
7.726452574e-01,6.52172e-02,9.99999e-01,9.99999e-01,9.99666e-01,6.52389e-02,9.99999e-01
7.765084837e-01,6.88203e-02,9.99999e-01,9.99999e-01,9.99523e-01,6.88530e-02,9.99999e-01
7.803910261e-01,6.51949e-02,9.99999e-01,8.99809e-01,9.97941e-01,7.25900e-02,9.99999e-01
7.842929812e-01,4.53640e-02,9.99999e-01,5.97085e-01,9.92832e-01,7.64500e-02,9.99999e-01
7.882144461e-01,4.60288e-02,9.99999e-01,5.79789e-01,9.85374e-01,8.04329e-02,9.99999e-01
7.921555184e-01,5.97819e-02,9.99999e-01,7.12436e-01,9.91987e-01,8.45384e-02,9.99999e-01
7.961162960e-01,6.96213e-02,9.99999e-01,7.95301e-01,9.85764e-01,8.87661e-02,9.99999e-01
8.000968774e-01,8.08791e-02,9.99999e-01,8.82898e-01,9.83629e-01,9.31155e-02,9.99999e-01
8.040973618e-01,9.00039e-02,9.99999e-01,9.37564e-01,9.83611e-01,9.75857e-02,9.99999e-01
8.081178486e-01,9.55666e-02,9.99999e-01,9.70713e-01,9.63351e-01,1.02176e-01,9.99998e-01
8.121584379e-01,9.07917e-02,9.99999e-01,9.90930e-01,8.56938e-01,1.06885e-01,9.99997e-01
8.162192301e-01,9.29950e-02,9.99999e-01,9.97989e-01,8.34026e-01,1.11711e-01,9.99997e-01
8.203003262e-01,1.06637e-01,9.99999e-01,9.99971e-01,9.14146e-01,1.16654e-01,9.99996e-01
8.244018279e-01,1.07718e-01,9.99999e-01,9.99999e-01,8.85033e-01,1.21711e-01,9.99996e-01
8.285238370e-01,1.13735e-01,9.99999e-01,9.99999e-01,8.96386e-01,1.26881e-01,9.99997e-01
8.326664562e-01,1.18390e-01,9.99999e-01,9.99999e-01,8.95795e-01,1.32162e-01,9.99997e-01
8.368297885e-01,1.27114e-01,9.99999e-01,9.99999e-01,9.24114e-01,1.37552e-01,9.99998e-01
8.410139374e-01,1.36491e-01,9.99999e-01,9.99999e-01,9.54151e-01,1.43049e-01,9.99999e-01
8.452190071e-01,1.45269e-01,9.99999e-01,9.99999e-01,9.77250e-01,1.48651e-01,9.99999e-01
8.494451021e-01,1.52301e-01,9.99999e-01,9.99999e-01,9.86698e-01,1.54354e-01,9.99999e-01
8.536923276e-01,1.58898e-01,9.99999e-01,9.99999e-01,9.92133e-01,1.60158e-01,9.99999e-01
8.579607893e-01,1.65251e-01,9.99999e-01,9.99999e-01,9.95138e-01,1.66058e-01,9.99999e-01
8.622505932e-01,1.71522e-01,9.99999e-01,9.99999e-01,9.96914e-01,1.72053e-01,9.99999e-01
8.665618462e-01,1.52280e-01,9.99999e-01,8.56360e-01,9.98085e-01,1.78139e-01,9.99999e-01
8.708946554e-01,5.19154e-02,9.99999e-01,2.82229e-01,9.97804e-01,1.84314e-01,9.99999e-01
8.752491287e-01,6.58623e-02,9.99999e-01,3.46536e-01,9.97065e-01,1.90575e-01,9.99999e-01
8.796253743e-01,1.07908e-01,9.99999e-01,5.50021e-01,9.95928e-01,1.96918e-01,9.99999e-01
8.840235012e-01,1.47443e-01,9.99999e-01,7.28311e-01,9.95354e-01,2.03341e-01,9.99999e-01
8.884436187e-01,1.82037e-01,9.99999e-01,8.81978e-01,9.83007e-01,2.09841e-01,9.99998e-01
8.928858368e-01,1.72529e-01,9.99999e-01,9.50144e-01,8.37704e-01,2.16413e-01,9.99997e-01
8.973502660e-01,1.61805e-01,9.99999e-01,9.87703e-01,7.33800e-01,2.23056e-01,9.99995e-01
9.018370173e-01,1.96130e-01,9.99999e-01,9.98640e-01,8.54653e-01,2.29765e-01,9.99995e-01
9.063462024e-01,1.99216e-01,9.99999e-01,9.65572e-01,8.68970e-01,2.36538e-01,9.99994e-01
9.108779334e-01,1.81135e-01,9.99999e-01,9.22520e-01,8.04138e-01,2.43370e-01,9.99993e-01
9.154323231e-01,1.91868e-01,9.99999e-01,9.81377e-01,7.80173e-01,2.50259e-01,9.99993e-01
9.200094847e-01,1.72098e-01,9.99999e-01,7.89384e-01,8.24182e-01,2.57202e-01,9.99991e-01
9.246095321e-01,1.35380e-01,9.99999e-01,6.75630e-01,7.44547e-01,2.64193e-01,9.99985e-01
9.292325798e-01,3.49352e-02,9.99999e-01,7.38780e-01,1.62452e-01,2.71232e-01,9.99969e-01
9.338787427e-01,2.11929e-02,9.99999e-01,7.44547e-01,9.59309e-02,2.78313e-01,9.99960e-01
9.385481364e-01,9.10463e-02,9.99999e-01,8.03351e-01,3.84451e-01,2.85434e-01,9.99960e-01
9.432408771e-01,7.22184e-02,9.99999e-01,8.73971e-01,2.77165e-01,2.92591e-01,9.99955e-01
9.479570815e-01,4.76229e-02,9.99999e-01,9.33035e-01,1.68658e-01,2.99780e-01,9.99961e-01
9.526968669e-01,7.52425e-02,9.99999e-01,9.67222e-01,2.51704e-01,3.06999e-01,9.99970e-01
9.574603512e-01,8.31747e-02,9.99999e-01,9.85842e-01,2.67755e-01,3.14245e-01,9.99978e-01
9.622476530e-01,1.07599e-01,9.99999e-01,9.95565e-01,3.35889e-01,3.21513e-01,9.99985e-01
9.670588912e-01,1.73729e-01,9.99999e-01,9.98671e-01,5.28966e-01,3.28800e-01,9.99990e-01
9.718941857e-01,2.22869e-01,9.99999e-01,9.99907e-01,6.63146e-01,3.36104e-01,9.99994e-01
9.767536566e-01,2.44021e-01,9.99999e-01,9.99999e-01,7.10559e-01,3.43421e-01,9.99995e-01
9.816374249e-01,2.72005e-01,9.99999e-01,9.99999e-01,7.75500e-01,3.50748e-01,9.99996e-01
9.865456120e-01,3.05327e-01,9.99999e-01,9.99999e-01,8.52673e-01,3.58083e-01,9.99998e-01
9.914783401e-01,3.31039e-01,9.99999e-01,9.99999e-01,9.05913e-01,3.65421e-01,9.99999e-01
9.964357318e-01,3.53231e-01,9.99999e-01,9.99999e-01,9.47609e-01,3.72760e-01,9.99999e-01
1.001417910e+00,3.68030e-01,9.99999e-01,9.99999e-01,9.68251e-01,3.80097e-01,9.99999e-01
1.006425000e+00,3.80357e-01,9.99999e-01,9.99999e-01,9.81744e-01,3.87429e-01,9.99999e-01
1.011457125e+00,3.90275e-01,9.99999e-01,9.99999e-01,9.88652e-01,3.94754e-01,9.99999e-01
1.016514411e+00,3.98963e-01,9.99999e-01,9.99999e-01,9.92274e-01,4.02069e-01,9.99999e-01
1.021596983e+00,4.06763e-01,9.99999e-01,9.99791e-01,9.93836e-01,4.09370e-01,9.99999e-01
1.026704968e+00,4.08926e-01,9.99999e-01,9.86169e-01,9.95188e-01,4.16656e-01,9.99999e-01
1.031838492e+00,3.76737e-01,9.99999e-01,8.91613e-01,9.96506e-01,4.23924e-01,9.99999e-01
1.036997685e+00,1.79941e-02,9.99999e-01,4.17984e-02,9.97920e-01,4.31172e-01,9.99999e-01
1.042182673e+00,7.46046e-04,9.99999e-01,1.70493e-03,9.97514e-01,4.38396e-01,9.99999e-01
1.047393587e+00,2.06794e-03,9.99999e-01,4.65342e-03,9.96708e-01,4.45595e-01,9.99999e-01
1.052630555e+00,7.26961e-08,9.99999e-01,1.61012e-07,9.95482e-01,4.52767e-01,9.99999e-01
1.057893707e+00,2.77837e-07,9.99999e-01,6.06403e-07,9.92460e-01,4.59909e-01,9.99999e-01
1.063183176e+00,1.23934e-05,9.99999e-01,2.67222e-05,9.87634e-01,4.67020e-01,9.99999e-01
1.068499092e+00,1.55700e-04,9.99999e-01,3.32728e-04,9.79405e-01,4.74097e-01,9.99999e-01
1.073841587e+00,2.65242e-03,9.99999e-01,5.60708e-03,9.75933e-01,4.81138e-01,9.99999e-01
1.079210795e+00,1.86197e-02,9.99999e-01,3.90638e-02,9.69313e-01,4.88141e-01,9.99998e-01
1.084606849e+00,7.46591e-02,9.99999e-01,1.57072e-01,9.53901e-01,4.95105e-01,9.99998e-01
1.090029883e+00,1.78545e-01,9.99999e-01,3.78291e-01,9.34318e-01,5.02028e-01,9.99997e-01
1.095480033e+00,2.63356e-01,9.99999e-01,6.18173e-01,8.31396e-01,5.08908e-01,9.99995e-01
1.100957433e+00,2.59134e-01,9.99999e-01,7.91879e-01,6.29129e-01,5.15743e-01,9.99991e-01
1.106462220e+00,1.54914e-01,9.99999e-01,9.07919e-01,3.23151e-01,5.22533e-01,9.99982e-01
1.111994531e+00,5.13535e-02,9.99999e-01,9.64771e-01,9.98661e-02,5.29275e-01,9.99964e-01
1.117554504e+00,1.47438e-02,9.99999e-01,9.91316e-01,2.76447e-02,5.35969e-01,9.99950e-01
1.123142276e+00,4.72897e-02,9.99999e-01,9.99430e-01,8.71623e-02,5.42613e-01,9.99940e-01
1.128757988e+00,9.86682e-02,9.99999e-01,9.99999e-01,1.79668e-01,5.49205e-01,9.99935e-01
1.134401778e+00,4.50913e-02,9.99999e-01,9.99999e-01,8.11424e-02,5.55745e-01,9.99928e-01
1.140073787e+00,1.91664e-01,9.99999e-01,9.99999e-01,3.40919e-01,5.62231e-01,9.99941e-01
1.145774156e+00,7.09814e-02,9.99999e-01,9.99999e-01,1.24828e-01,5.68662e-01,9.99950e-01
1.151503026e+00,5.74502e-02,9.99999e-01,9.99999e-01,9.99109e-02,5.75038e-01,9.99957e-01
1.157260541e+00,7.31781e-02,9.99999e-01,9.99999e-01,1.25878e-01,5.81357e-01,9.99967e-01
1.163046844e+00,1.25311e-01,9.99999e-01,9.99999e-01,2.13256e-01,5.87619e-01,9.99979e-01
1.168862078e+00,1.96040e-01,9.99999e-01,9.99999e-01,3.30136e-01,5.93823e-01,9.99989e-01
1.174706389e+00,3.01877e-01,9.99999e-01,9.99999e-01,5.03158e-01,5.99967e-01,9.99994e-01
1.180579921e+00,3.97840e-01,9.99999e-01,9.99999e-01,6.56447e-01,6.06052e-01,9.99996e-01
1.186482820e+00,4.81476e-01,9.99999e-01,9.99969e-01,7.86646e-01,6.12077e-01,9.99996e-01
1.192415234e+00,5.12879e-01,9.99999e-01,9.53318e-01,8.68846e-01,6.18041e-01,9.99997e-01
1.198377311e+00,2.85741e-01,9.99999e-01,5.05361e-01,8.88188e-01,6.23943e-01,9.99997e-01
1.204369197e+00,3.16737e-35,9.99999e-01,5.36655e-35,8.94277e-01,6.29784e-01,9.99997e-01
1.210391043e+00,7.74444e-144,9.99999e-01,1.29344e-143,8.98462e-01,6.35562e-01,9.99998e-01
1.216442998e+00,2.05490e-124,9.99999e-01,3.39079e-124,9.13072e-01,6.41278e-01,9.99998e-01
1.222525213e+00,1.56511e-122,9.99999e-01,2.50955e-122,9.31481e-01,6.46930e-01,9.99998e-01
1.228637839e+00,1.93450e-94,9.99999e-01,3.06471e-94,9.51864e-01,6.52519e-01,9.99999e-01
