#,Wave/freq,Total,O2,CO2,H2O,Rayleigh,CIA
4.000000000e-01,4.07019e-25,9.99999e-01,9.99999e-01,9.99889e-01,4.07064e-25,9.99999e-01
4.020000000e-01,1.23568e-24,9.99999e-01,9.99999e-01,9.99931e-01,1.23576e-24,9.99999e-01
4.040100000e-01,3.66578e-24,9.99999e-01,9.99999e-01,9.99970e-01,3.66589e-24,9.99999e-01
4.060300500e-01,1.06437e-23,9.99999e-01,9.99999e-01,9.99992e-01,1.06438e-23,9.99999e-01
4.080602003e-01,3.02598e-23,9.99999e-01,9.99999e-01,9.99997e-01,3.02598e-23,9.99999e-01
4.101005013e-01,8.42704e-23,9.99999e-01,9.99999e-01,9.99999e-01,8.42704e-23,9.99999e-01
4.121510038e-01,2.29983e-22,9.99999e-01,9.99999e-01,9.99995e-01,2.29984e-22,9.99999e-01
4.142117588e-01,6.15311e-22,9.99999e-01,9.99999e-01,9.99969e-01,6.15330e-22,9.99999e-01
4.162828176e-01,1.61442e-21,9.99999e-01,9.99999e-01,9.99863e-01,1.61464e-21,9.99999e-01
4.183642317e-01,4.15655e-21,9.99999e-01,9.99999e-01,9.99918e-01,4.15688e-21,9.99999e-01
4.204560528e-01,1.05033e-20,9.99999e-01,9.99999e-01,9.99949e-01,1.05038e-20,9.99999e-01
4.225583331e-01,2.60596e-20,9.99999e-01,9.99999e-01,9.99980e-01,2.60601e-20,9.99999e-01
4.246711247e-01,6.35041e-20,9.99999e-01,9.99999e-01,9.99984e-01,6.35051e-20,9.99999e-01
4.267944804e-01,1.52052e-19,9.99999e-01,9.99999e-01,9.99977e-01,1.52055e-19,9.99999e-01
4.289284528e-01,3.57845e-19,9.99999e-01,9.99999e-01,9.99982e-01,3.57851e-19,9.99999e-01
4.310730950e-01,8.28056e-19,9.99999e-01,9.99999e-01,9.99992e-01,8.28062e-19,9.99999e-01
4.332284605e-01,1.88463e-18,9.99999e-01,9.99999e-01,9.99997e-01,1.88463e-18,9.99999e-01
4.353946028e-01,4.22021e-18,9.99999e-01,9.99999e-01,9.99998e-01,4.22021e-18,9.99999e-01
4.375715758e-01,9.30081e-18,9.99999e-01,9.99999e-01,9.99986e-01,9.30094e-18,9.99999e-01
4.397594337e-01,2.01785e-17,9.99999e-01,9.99999e-01,9.99881e-01,2.01809e-17,9.99999e-01
4.419582309e-01,4.30971e-17,9.99999e-01,9.99999e-01,9.99398e-01,4.31230e-17,9.99999e-01
4.441680220e-01,9.07314e-17,9.99999e-01,9.99999e-01,9.99523e-01,9.07746e-17,9.99999e-01
4.463888621e-01,1.88200e-16,9.99999e-01,9.99999e-01,9.99506e-01,1.88293e-16,9.99999e-01
4.486208064e-01,3.84868e-16,9.99999e-01,9.99999e-01,9.99692e-01,3.84986e-16,9.99999e-01
4.508639105e-01,7.75994e-16,9.99999e-01,9.99999e-01,9.99855e-01,7.76106e-16,9.99999e-01
4.531182300e-01,1.54297e-15,9.99999e-01,9.99999e-01,9.99942e-01,1.54306e-15,9.99999e-01
4.553838212e-01,3.02644e-15,9.99999e-01,9.99999e-01,9.99961e-01,3.02656e-15,9.99999e-01
4.576607403e-01,5.85771e-15,9.99999e-01,9.99999e-01,9.99981e-01,5.85782e-15,9.99999e-01
4.599490440e-01,1.11906e-14,9.99999e-01,9.99999e-01,9.99986e-01,1.11907e-14,9.99999e-01
4.622487892e-01,2.11070e-14,9.99999e-01,9.99999e-01,9.99997e-01,2.11071e-14,9.99999e-01
4.645600332e-01,3.93143e-14,9.99999e-01,9.99999e-01,9.99991e-01,3.93146e-14,9.99999e-01
4.668828333e-01,7.23240e-14,9.99999e-01,9.99999e-01,9.99855e-01,7.23344e-14,9.99999e-01
4.692172475e-01,1.31453e-13,9.99999e-01,9.99999e-01,9.99690e-01,1.31494e-13,9.99999e-01
4.715633337e-01,2.36185e-13,9.99999e-01,9.99999e-01,9.99797e-01,2.36232e-13,9.99999e-01
4.739211504e-01,4.19433e-13,9.99999e-01,9.99999e-01,9.99805e-01,4.19514e-13,9.99999e-01
4.762907561e-01,7.36520e-13,9.99999e-01,9.99999e-01,9.99898e-01,7.36594e-13,9.99999e-01
4.786722099e-01,1.27898e-12,9.99999e-01,9.99999e-01,9.99958e-01,1.27903e-12,9.99999e-01
4.810655710e-01,2.19682e-12,9.99999e-01,9.99999e-01,9.99987e-01,2.19684e-12,9.99999e-01
4.834708988e-01,3.73273e-12,9.99999e-01,9.99999e-01,9.99882e-01,3.73317e-12,9.99999e-01
4.858882533e-01,6.27642e-12,9.99999e-01,9.99999e-01,9.99780e-01,6.27780e-12,9.99999e-01
4.883176946e-01,1.04472e-11,9.99999e-01,9.99999e-01,9.99816e-01,1.04491e-11,9.99999e-01
4.907592831e-01,1.72150e-11,9.99999e-01,9.99999e-01,9.99833e-01,1.72178e-11,9.99999e-01
4.932130795e-01,2.80895e-11,9.99999e-01,9.99999e-01,9.99881e-01,2.80928e-11,9.99999e-01
4.956791449e-01,4.53925e-11,9.99999e-01,9.99999e-01,9.99937e-01,4.53953e-11,9.99999e-01
4.981575406e-01,7.26401e-11,9.99999e-01,9.99999e-01,9.99689e-01,7.26626e-11,9.99999e-01
5.006483283e-01,1.15140e-10,9.99999e-01,9.99999e-01,9.99199e-01,1.15233e-10,9.99999e-01
5.031515699e-01,1.80348e-10,9.99999e-01,9.99999e-01,9.95928e-01,1.81086e-10,9.99999e-01
5.056673278e-01,2.81434e-10,9.99999e-01,9.99999e-01,9.97843e-01,2.82043e-10,9.99999e-01
5.081956644e-01,4.34272e-10,9.99999e-01,9.99999e-01,9.97279e-01,4.35456e-10,9.99999e-01
5.107366428e-01,6.65349e-10,9.99999e-01,9.99999e-01,9.98161e-01,6.66574e-10,9.99999e-01
5.132903260e-01,1.01075e-09,9.99999e-01,9.99999e-01,9.98947e-01,1.01181e-09,9.99999e-01
5.158567776e-01,1.52257e-09,9.99999e-01,9.99999e-01,9.99554e-01,1.52325e-09,9.99999e-01
5.184360615e-01,2.27435e-09,9.99999e-01,9.99999e-01,9.99821e-01,2.27475e-09,9.99999e-01
5.210282418e-01,3.36998e-09,9.99999e-01,9.99999e-01,9.99933e-01,3.37020e-09,9.99999e-01
5.236333830e-01,4.95325e-09,9.99999e-01,9.99999e-01,9.99733e-01,4.95457e-09,9.99999e-01
5.262515499e-01,7.22733e-09,9.99999e-01,9.99999e-01,9.99832e-01,7.22853e-09,9.99999e-01
5.288828077e-01,1.04662e-08,9.99999e-01,9.99999e-01,9.99847e-01,1.04678e-08,9.99999e-01
5.315272217e-01,1.50461e-08,9.99999e-01,9.99999e-01,9.99864e-01,1.50481e-08,9.99999e-01
5.341848578e-01,2.14762e-08,9.99999e-01,9.99999e-01,9.99912e-01,2.14781e-08,9.99999e-01
5.368557821e-01,3.04315e-08,9.99999e-01,9.99999e-01,9.99690e-01,3.04409e-08,9.99999e-01
5.395400610e-01,4.28002e-08,9.99999e-01,9.99999e-01,9.98889e-01,4.28478e-08,9.99999e-01
5.422377613e-01,5.98186e-08,9.99999e-01,9.99999e-01,9.98551e-01,5.99054e-08,9.99999e-01
5.449489501e-01,8.30895e-08,9.99999e-01,9.99999e-01,9.98659e-01,8.32010e-08,9.99999e-01
5.476736949e-01,1.14671e-07,9.99999e-01,9.99999e-01,9.98805e-01,1.14808e-07,9.99999e-01
5.504120634e-01,1.57282e-07,9.99999e-01,9.99999e-01,9.99133e-01,1.57419e-07,9.99999e-01
5.531641237e-01,2.14409e-07,9.99999e-01,9.99999e-01,9.99563e-01,2.14502e-07,9.99999e-01
5.559299443e-01,2.90443e-07,9.99999e-01,9.99999e-01,9.99789e-01,2.90504e-07,9.99999e-01
5.587095940e-01,3.91033e-07,9.99999e-01,9.99999e-01,9.99868e-01,3.91085e-07,9.99999e-01
5.615031420e-01,5.23330e-07,9.99999e-01,9.99999e-01,9.99853e-01,5.23407e-07,9.99999e-01
5.643106577e-01,6.96365e-07,9.99999e-01,9.99999e-01,9.99835e-01,6.96479e-07,9.99999e-01
5.671322110e-01,9.19730e-07,9.99999e-01,9.99999e-01,9.98008e-01,9.21565e-07,9.99999e-01
5.699678720e-01,1.21005e-06,9.99999e-01,9.99999e-01,9.97840e-01,1.21267e-06,9.99999e-01
5.728177114e-01,1.58355e-06,9.99999e-01,9.99999e-01,9.97767e-01,1.58709e-06,9.99999e-01
5.756818000e-01,2.06188e-06,9.99999e-01,9.99999e-01,9.97947e-01,2.06612e-06,9.99999e-01
5.785602090e-01,2.67095e-06,9.99999e-01,9.99999e-01,9.98208e-01,2.67574e-06,9.99999e-01
5.814530100e-01,3.44140e-06,9.99999e-01,9.99999e-01,9.98203e-01,3.44759e-06,9.99999e-01
5.843602750e-01,4.41051e-06,9.99999e-01,9.99999e-01,9.97871e-01,4.41991e-06,9.99999e-01
5.872820764e-01,5.53621e-06,9.99999e-01,9.99999e-01,9.81820e-01,5.63871e-06,9.99999e-01
5.902184868e-01,7.00031e-06,9.99999e-01,9.99999e-01,9.77822e-01,7.15908e-06,9.99999e-01
5.931695792e-01,8.90497e-06,9.99999e-01,9.99999e-01,9.84341e-01,9.04663e-06,9.99999e-01
5.961354271e-01,1.11834e-05,9.99999e-01,9.99999e-01,9.82802e-01,1.13791e-05,9.99999e-01
5.991161043e-01,1.40689e-05,9.99999e-01,9.99999e-01,9.87412e-01,1.42483e-05,9.99999e-01
6.021116848e-01,1.76345e-05,9.99999e-01,9.99999e-01,9.92832e-01,1.77618e-05,9.99999e-01
6.051222432e-01,2.19655e-05,9.99999e-01,9.99999e-01,9.96365e-01,2.20456e-05,9.99999e-01
6.081478544e-01,2.72033e-05,9.99999e-01,9.99999e-01,9.98431e-01,2.72460e-05,9.99999e-01
6.111885937e-01,3.35103e-05,9.99999e-01,9.99999e-01,9.99334e-01,3.35326e-05,9.99999e-01
6.142445367e-01,4.10886e-05,9.99999e-01,9.99999e-01,9.99703e-01,4.11008e-05,9.99999e-01
6.173157594e-01,5.01668e-05,9.99999e-01,9.99999e-01,9.99836e-01,5.01750e-05,9.99999e-01
6.204023382e-01,6.10034e-05,9.99999e-01,9.99999e-01,9.99861e-01,6.10118e-05,9.99999e-01
6.235043498e-01,7.38586e-05,9.99999e-01,9.99999e-01,9.99398e-01,7.39030e-05,9.99999e-01
6.266218716e-01,8.88932e-05,9.99999e-01,9.99999e-01,9.96786e-01,8.91798e-05,9.99999e-01
6.297549810e-01,1.07089e-04,9.99999e-01,9.99999e-01,9.98820e-01,1.07216e-04,9.99999e-01
6.329037559e-01,1.28131e-04,9.99999e-01,9.99999e-01,9.97664e-01,1.28431e-04,9.99999e-01
6.360682746e-01,1.52993e-04,9.99999e-01,9.99999e-01,9.98017e-01,1.53297e-04,9.99999e-01
6.392486160e-01,1.81870e-04,9.99999e-01,9.99999e-01,9.97427e-01,1.82339e-04,9.99999e-01
6.424448591e-01,2.15401e-04,9.99999e-01,9.99999e-01,9.96578e-01,2.16141e-04,9.99999e-01
6.456570834e-01,2.51318e-04,9.99999e-01,9.99999e-01,9.84212e-01,2.55349e-04,9.99999e-01
6.488853688e-01,2.96577e-04,9.99999e-01,9.99999e-01,9.86360e-01,3.00678e-04,9.99999e-01
6.521297956e-01,3.48722e-04,9.99999e-01,9.99999e-01,9.88122e-01,3.52914e-04,9.99999e-01
6.553904446e-01,4.08060e-04,9.99999e-01,9.99999e-01,9.88242e-01,4.12915e-04,9.99999e-01
6.586673968e-01,4.76733e-04,9.99999e-01,9.99999e-01,9.89850e-01,4.81621e-04,9.99999e-01
6.619607338e-01,5.56761e-04,9.99999e-01,9.99999e-01,9.94118e-01,5.60055e-04,9.99999e-01
6.652705375e-01,6.47106e-04,9.99999e-01,9.99999e-01,9.96584e-01,6.49323e-04,9.99999e-01
6.685968902e-01,7.49434e-04,9.99999e-01,9.99999e-01,9.98412e-01,7.50624e-04,9.99999e-01
6.719398746e-01,8.64612e-04,9.99999e-01,9.99999e-01,9.99263e-01,8.65249e-04,9.99999e-01
6.752995740e-01,9.94185e-04,9.99999e-01,9.99999e-01,9.99602e-01,9.94580e-04,9.99999e-01
6.786760719e-01,1.13945e-03,9.99999e-01,9.99999e-01,9.99428e-01,1.14010e-03,9.99999e-01
6.820694522e-01,1.30212e-03,9.99999e-01,9.99999e-01,9.99019e-01,1.30340e-03,9.99999e-01
6.854797995e-01,1.48427e-03,9.99999e-01,9.99999e-01,9.98736e-01,1.48614e-03,9.99999e-01
6.889071985e-01,1.68502e-03,9.99999e-01,9.99999e-01,9.96975e-01,1.69013e-03,9.99999e-01
6.923517345e-01,1.82424e-03,9.99999e-01,9.99999e-01,9.51495e-01,1.91723e-03,9.99999e-01
6.958134932e-01,2.11339e-03,9.99999e-01,9.99999e-01,9.74162e-01,2.16945e-03,9.99998e-01
6.992925606e-01,2.38931e-03,9.99999e-01,9.99999e-01,9.75687e-01,2.44885e-03,9.99998e-01
7.027890234e-01,2.67463e-03,9.99999e-01,9.99999e-01,9.69898e-01,2.75764e-03,9.99998e-01
7.063029686e-01,3.01945e-03,9.99999e-01,9.99999e-01,9.74620e-01,3.09808e-03,9.99998e-01
7.098344834e-01,3.38792e-03,9.99999e-01,9.99999e-01,9.75626e-01,3.47256e-03,9.99998e-01
7.133836558e-01,3.75936e-03,9.99999e-01,9.99999e-01,9.68024e-01,3.88355e-03,9.99998e-01
7.169505741e-01,3.35341e-03,9.99999e-01,9.99999e-01,7.73821e-01,4.33358e-03,9.99996e-01
7.205353270e-01,4.24525e-03,9.99999e-01,9.99999e-01,8.79791e-01,4.82531e-03,9.99996e-01
7.241380036e-01,4.56138e-03,9.99999e-01,9.99999e-01,8.50777e-01,5.36144e-03,9.99995e-01
7.277586936e-01,5.13798e-03,9.99999e-01,9.99999e-01,8.64290e-01,5.94475e-03,9.99996e-01
7.313974871e-01,5.62377e-03,9.99999e-01,9.99999e-01,8.54925e-01,6.57809e-03,9.99997e-01
7.350544745e-01,6.66694e-03,9.99999e-01,9.99999e-01,9.17759e-01,7.26437e-03,9.99998e-01
7.387297469e-01,7.51480e-03,9.99999e-01,9.99999e-01,9.38583e-01,8.00653e-03,9.99998e-01
7.424233956e-01,8.53782e-03,9.99999e-01,9.99999e-01,9.69371e-01,8.80758e-03,9.99999e-01
7.461355126e-01,9.49009e-03,9.99999e-01,9.99999e-01,9.81339e-01,9.67054e-03,9.99999e-01
7.498661902e-01,1.05058e-02,9.99999e-01,9.99999e-01,9.91251e-01,1.05985e-02,9.99999e-01
7.536155211e-01,1.15447e-02,9.99999e-01,9.99999e-01,9.95708e-01,1.15944e-02,9.99999e-01
7.573835987e-01,1.26335e-02,9.99999e-01,9.99999e-01,9.97787e-01,1.26615e-02,9.99999e-01
7.611705167e-01,1.37838e-02,9.99999e-01,9.99999e-01,9.98625e-01,1.38028e-02,9.99999e-01
7.649763693e-01,1.50083e-02,9.99999e-01,9.99999e-01,9.99138e-01,1.50213e-02,9.99999e-01
7.688012511e-01,1.63103e-02,9.99999e-01,9.99999e-01,9.99400e-01,1.63200e-02,9.99999e-01
7.726452574e-01,1.76934e-02,9.99999e-01,9.99999e-01,9.99507e-01,1.77021e-02,9.99999e-01
7.765084837e-01,1.91570e-02,9.99999e-01,9.99999e-01,9.99303e-01,1.91703e-02,9.99999e-01
7.803910261e-01,1.80891e-02,9.99999e-01,8.75030e-01,9.96996e-01,2.07278e-02,9.99999e-01
7.842929812e-01,1.05695e-02,9.99999e-01,4.76439e-01,9.89557e-01,2.23771e-02,9.99999e-01
7.882144461e-01,1.09677e-02,9.99999e-01,4.63223e-01,9.78473e-01,2.41213e-02,9.99999e-01
7.921555184e-01,1.56799e-02,9.99999e-01,6.10459e-01,9.88104e-01,2.59628e-02,9.99999e-01
7.961162960e-01,1.94801e-02,9.99999e-01,7.12211e-01,9.79233e-01,2.79044e-02,9.99999e-01
8.000968774e-01,2.43138e-02,9.99999e-01,8.31591e-01,9.75920e-01,2.99484e-02,9.99999e-01
8.040973618e-01,2.84599e-02,9.99999e-01,9.08297e-01,9.75947e-01,3.20973e-02,9.99998e-01
8.081178486e-01,3.11423e-02,9.99999e-01,9.56836e-01,9.47039e-01,3.43534e-02,9.99998e-01
8.121584379e-01,2.89576e-02,9.99999e-01,9.86387e-01,7.98958e-01,3.67188e-02,9.99996e-01
8.162192301e-01,2.99214e-02,9.99999e-01,9.96976e-01,7.65495e-01,3.91954e-02,9.99995e-01
8.203003262e-01,3.67667e-02,9.99999e-01,9.99951e-01,8.79926e-01,4.17852e-02,9.99995e-01
8.244018279e-01,3.72148e-02,9.99999e-01,9.99999e-01,8.36481e-01,4.44898e-02,9.99995e-01
8.285238370e-01,4.03073e-02,9.99999e-01,9.99999e-01,8.51969e-01,4.73109e-02,9.99996e-01
8.326664562e-01,4.27374e-02,9.99999e-01,9.99999e-01,8.50501e-01,5.02497e-02,9.99997e-01
8.368297885e-01,4.74281e-02,9.99999e-01,9.99999e-01,8.89707e-01,5.33076e-02,9.99998e-01
8.410139374e-01,5.26868e-02,9.99999e-01,9.99999e-01,9.32745e-01,5.64857e-02,9.99999e-01
8.452190071e-01,5.77733e-02,9.99999e-01,9.99999e-01,9.66354e-01,5.97848e-02,9.99999e-01
8.494451021e-01,6.19651e-02,9.99999e-01,9.99999e-01,9.80372e-01,6.32057e-02,9.99999e-01
8.536923276e-01,6.59694e-02,9.99999e-01,9.99999e-01,9.88322e-01,6.67489e-02,9.99999e-01
8.579607893e-01,6.99084e-02,9.99999e-01,9.99999e-01,9.92807e-01,7.04149e-02,9.99999e-01
8.622505932e-01,7.38638e-02,9.99999e-01,9.99999e-01,9.95417e-01,7.42037e-02,9.99999e-01
8.665618462e-01,6.54890e-02,9.99999e-01,8.40557e-01,9.97170e-01,7.81156e-02,9.99999e-01
8.708946554e-01,1.39504e-02,9.99999e-01,1.70297e-01,9.96765e-01,8.21502e-02,9.99999e-01
8.752491287e-01,1.86034e-02,9.99999e-01,2.16391e-01,9.95672e-01,8.63074e-02,9.99999e-01
8.796253743e-01,3.77152e-02,9.99999e-01,4.18541e-01,9.94025e-01,9.05865e-02,9.99999e-01
8.840235012e-01,5.91488e-02,9.99999e-01,6.26664e-01,9.93174e-01,9.49870e-02,9.99999e-01
8.884436187e-01,8.06061e-02,9.99999e-01,8.29163e-01,9.75769e-01,9.95080e-02,9.99998e-01
8.928858368e-01,7.49947e-02,9.99999e-01,9.26638e-01,7.74416e-01,1.04148e-01,9.99996e-01
8.973502660e-01,6.81875e-02,9.99999e-01,9.81568e-01,6.36691e-01,1.08907e-01,9.99993e-01
9.018370173e-01,9.01072e-02,9.99999e-01,9.97948e-01,7.93317e-01,1.13783e-01,9.99993e-01
9.063462024e-01,9.29749e-02,9.99999e-01,9.51641e-01,8.16284e-01,1.18774e-01,9.99991e-01
9.108779334e-01,8.05961e-02,9.99999e-01,8.87311e-01,7.28248e-01,1.23879e-01,9.99991e-01
9.154323231e-01,8.75371e-02,9.99999e-01,9.72108e-01,6.95520e-01,1.29096e-01,9.99990e-01
9.200094847e-01,7.81619e-02,9.99999e-01,7.33290e-01,7.53418e-01,1.34424e-01,9.99987e-01
9.246095321e-01,5.35353e-02,9.99999e-01,5.61261e-01,6.59908e-01,1.39859e-01,9.99979e-01
9.292325798e-01,9.17451e-03,9.99999e-01,6.47029e-01,8.68728e-02,1.45400e-01,9.99956e-01
9.338787427e-01,4.07804e-03,9.99999e-01,6.48960e-01,3.73353e-02,1.51045e-01,9.99943e-01
9.385481364e-01,3.14842e-02,9.99999e-01,7.24203e-01,2.61463e-01,1.56791e-01,9.99941e-01
9.432408771e-01,2.37940e-02,9.99999e-01,8.18506e-01,1.72724e-01,1.62636e-01,9.99934e-01
9.479570815e-01,1.27602e-02,9.99999e-01,9.02320e-01,8.24219e-02,1.68576e-01,9.99943e-01
9.526968669e-01,2.38571e-02,9.99999e-01,9.51676e-01,1.41843e-01,1.74610e-01,9.99957e-01
9.574603512e-01,2.73278e-02,9.99999e-01,9.78989e-01,1.53646e-01,1.80734e-01,9.99967e-01
9.622476530e-01,3.88001e-02,9.99999e-01,9.93390e-01,2.08595e-01,1.86945e-01,9.99978e-01
9.670588912e-01,7.70564e-02,9.99999e-01,9.98012e-01,3.99377e-01,1.93241e-01,9.99986e-01
9.718941857e-01,1.09405e-01,9.99999e-01,9.99857e-01,5.48128e-01,1.99619e-01,9.99991e-01
9.767536566e-01,1.24937e-01,9.99999e-01,9.99999e-01,6.06275e-01,2.06075e-01,9.99993e-01
9.816374249e-01,1.46111e-01,9.99999e-01,9.99999e-01,6.87244e-01,2.12605e-01,9.99995e-01
9.865456120e-01,1.73160e-01,9.99999e-01,9.99999e-01,7.89937e-01,2.19208e-01,9.99997e-01
9.914783401e-01,1.95130e-01,9.99999e-01,9.99999e-01,8.63868e-01,2.25879e-01,9.99998e-01
9.964357318e-01,2.14785e-01,9.99999e-01,9.99999e-01,9.23346e-01,2.32615e-01,9.99999e-01
1.001417910e+00,2.28225e-01,9.99999e-01,9.99999e-01,9.53267e-01,2.39414e-01,9.99999e-01
1.006425000e+00,2.39647e-01,9.99999e-01,9.99999e-01,9.73106e-01,2.46270e-01,9.99999e-01
1.011457125e+00,2.48928e-01,9.99999e-01,9.99999e-01,9.83195e-01,2.53182e-01,9.99999e-01
1.016514411e+00,2.57173e-01,9.99999e-01,9.99999e-01,9.88571e-01,2.60146e-01,9.99999e-01
1.021596983e+00,2.64657e-01,9.99999e-01,9.99744e-01,9.90887e-01,2.67158e-01,9.99999e-01
1.026704968e+00,2.66934e-01,9.99999e-01,9.80374e-01,9.92889e-01,2.74215e-01,9.99999e-01
1.031838492e+00,2.43396e-01,9.99999e-01,8.69410e-01,9.94820e-01,2.81313e-01,9.99999e-01
1.036997685e+00,7.30762e-03,9.99999e-01,2.53925e-02,9.96924e-01,2.88449e-01,9.99999e-01
1.042182673e+00,6.75242e-05,9.99999e-01,2.29013e-04,9.96343e-01,2.95620e-01,9.99999e-01
1.047393587e+00,1.95868e-04,9.99999e-01,6.49326e-04,9.95146e-01,3.02823e-01,9.99999e-01
1.052630555e+00,1.31293e-10,9.99999e-01,4.25186e-10,9.93352e-01,3.10053e-01,9.99999e-01
1.057893707e+00,4.84449e-10,9.99999e-01,1.53458e-09,9.88938e-01,3.17309e-01,9.99999e-01
1.063183176e+00,1.54833e-07,9.99999e-01,4.81600e-07,9.81856e-01,3.24585e-01,9.99999e-01
1.068499092e+00,3.89503e-06,9.99999e-01,1.19268e-05,9.69791e-01,3.31880e-01,9.99999e-01
1.073841587e+00,1.85271e-04,9.99999e-01,5.58689e-04,9.64852e-01,3.39190e-01,9.99998e-01
1.079210795e+00,3.21842e-03,9.99999e-01,9.59598e-03,9.55029e-01,3.46512e-01,9.99998e-01
1.084606849e+00,2.23763e-02,9.99999e-01,6.69240e-02,9.32907e-01,3.53842e-01,9.99997e-01
1.090029883e+00,7.95821e-02,9.99999e-01,2.40250e-01,9.05722e-01,3.61179e-01,9.99995e-01
1.095480033e+00,1.40496e-01,9.99999e-01,4.92046e-01,7.63659e-01,3.68517e-01,9.99993e-01
1.100957433e+00,1.38437e-01,9.99999e-01,7.07912e-01,5.11098e-01,3.75856e-01,9.99987e-01
1.106462220e+00,6.83856e-02,9.99999e-01,8.66337e-01,2.01841e-01,3.83192e-01,9.99973e-01
1.111994531e+00,1.43966e-02,9.99999e-01,9.48065e-01,3.83747e-02,3.90521e-01,9.99947e-01
1.117554504e+00,2.67678e-03,9.99999e-01,9.87023e-01,6.76926e-03,3.97842e-01,9.99926e-01
1.123142276e+00,1.40809e-02,9.99999e-01,9.99139e-01,3.47595e-02,4.05151e-01,9.99912e-01
1.128757988e+00,3.62300e-02,9.99999e-01,9.99999e-01,8.78499e-02,4.12447e-01,9.99905e-01
1.134401778e+00,1.68092e-02,9.99999e-01,9.99999e-01,4.00523e-02,4.19725e-01,9.99893e-01
1.140073787e+00,9.10279e-02,9.99999e-01,9.99999e-01,2.13206e-01,4.26985e-01,9.99914e-01
1.145774156e+00,2.40968e-02,9.99999e-01,9.99999e-01,5.54980e-02,4.34223e-01,9.99927e-01
1.151503026e+00,1.76037e-02,9.99999e-01,9.99999e-01,3.98806e-02,4.41437e-01,9.99937e-01
1.157260541e+00,2.28804e-02,9.99999e-01,9.99999e-01,5.10036e-02,4.48625e-01,9.99952e-01
1.163046844e+00,4.91389e-02,9.99999e-01,9.99999e-01,1.07815e-01,4.55785e-01,9.99969e-01
1.168862078e+00,9.17859e-02,9.99999e-01,9.99999e-01,1.98281e-01,4.62914e-01,9.99984e-01
1.174706389e+00,1.71954e-01,9.99999e-01,9.99999e-01,3.65854e-01,4.70010e-01,9.99991e-01
1.180579921e+00,2.56861e-01,9.99999e-01,9.99999e-01,5.38413e-01,4.77072e-01,9.99994e-01
1.186482820e+00,3.39666e-01,9.99999e-01,9.99970e-01,7.01665e-01,4.84097e-01,9.99995e-01
1.192415234e+00,3.74920e-01,9.99999e-01,9.36210e-01,8.12415e-01,4.91084e-01,9.99996e-01
1.198377311e+00,2.06157e-01,9.99999e-01,4.78517e-01,8.39694e-01,4.98031e-01,9.99996e-01
1.204369197e+00,5.79566e-51,9.99999e-01,1.26330e-50,8.48343e-01,5.04936e-01,9.99996e-01
1.210391043e+00,2.03429e-211,9.99999e-01,4.34105e-211,8.53950e-01,5.11798e-01,9.99997e-01
1.216442998e+00,1.01101e-182,9.99999e-01,2.11927e-182,8.74160e-01,5.18614e-01,9.99998e-01
1.222525213e+00,6.07799e-180,9.99999e-01,1.22119e-179,9.00334e-01,5.25384e-01,9.99998e-01
1.228637839e+00,1.87520e-138,9.99999e-01,3.70103e-138,9.29668e-01,5.32106e-01,9.99999e-01
