#,Wave/freq,Total,O2,CO2,H2O,Rayleigh,CIA
4.000000000e-01,6.32131e-14,9.99999e-01,9.99999e-01,9.99940e-01,6.32168e-14,9.99999e-01
4.020000000e-01,1.15291e-13,9.99999e-01,9.99999e-01,9.99962e-01,1.15295e-13,9.99999e-01
4.040100000e-01,2.07666e-13,9.99999e-01,9.99999e-01,9.99983e-01,2.07669e-13,9.99999e-01
4.060300500e-01,3.69729e-13,9.99999e-01,9.99999e-01,9.99995e-01,3.69731e-13,9.99999e-01
4.080602003e-01,6.50804e-13,9.99999e-01,9.99999e-01,9.99998e-01,6.50804e-13,9.99999e-01
4.101005013e-01,1.13283e-12,9.99999e-01,9.99999e-01,9.99999e-01,1.13283e-12,9.99999e-01
4.121510038e-01,1.95040e-12,9.99999e-01,9.99999e-01,9.99997e-01,1.95040e-12,9.99999e-01
4.142117588e-01,3.32213e-12,9.99999e-01,9.99999e-01,9.99982e-01,3.32219e-12,9.99999e-01
4.162828176e-01,5.59915e-12,9.99999e-01,9.99999e-01,9.99926e-01,5.59956e-12,9.99999e-01
4.183642317e-01,9.34086e-12,9.99999e-01,9.99999e-01,9.99955e-01,9.34127e-12,9.99999e-01
4.204560528e-01,1.54261e-11,9.99999e-01,9.99999e-01,9.99972e-01,1.54265e-11,9.99999e-01
4.225583331e-01,2.52245e-11,9.99999e-01,9.99999e-01,9.99989e-01,2.52247e-11,9.99999e-01
4.246711247e-01,4.08473e-11,9.99999e-01,9.99999e-01,9.99991e-01,4.08476e-11,9.99999e-01
4.267944804e-01,6.55189e-11,9.99999e-01,9.99999e-01,9.99987e-01,6.55197e-11,9.99999e-01
4.289284528e-01,1.04117e-10,9.99999e-01,9.99999e-01,9.99990e-01,1.04117e-10,9.99999e-01
4.310730950e-01,1.63946e-10,9.99999e-01,9.99999e-01,9.99995e-01,1.63947e-10,9.99999e-01
4.332284605e-01,2.55850e-10,9.99999e-01,9.99999e-01,9.99998e-01,2.55850e-10,9.99999e-01
4.353946028e-01,3.95778e-10,9.99999e-01,9.99999e-01,9.99999e-01,3.95778e-10,9.99999e-01
4.375715758e-01,6.06977e-10,9.99999e-01,9.99999e-01,9.99992e-01,6.06982e-10,9.99999e-01
4.397594337e-01,9.23001e-10,9.99999e-01,9.99999e-01,9.99934e-01,9.23062e-10,9.99999e-01
4.419582309e-01,1.39170e-09,9.99999e-01,9.99999e-01,9.99665e-01,1.39216e-09,9.99999e-01
4.441680220e-01,2.08216e-09,9.99999e-01,9.99999e-01,9.99745e-01,2.08269e-09,9.99999e-01
4.463888621e-01,3.09020e-09,9.99999e-01,9.99999e-01,9.99732e-01,3.09103e-09,9.99999e-01
4.486208064e-01,4.55117e-09,9.99999e-01,9.99999e-01,9.99834e-01,4.55192e-09,9.99999e-01
4.508639105e-01,6.65169e-09,9.99999e-01,9.99999e-01,9.99922e-01,6.65220e-09,9.99999e-01
4.531182300e-01,9.64871e-09,9.99999e-01,9.99999e-01,9.99969e-01,9.64900e-09,9.99999e-01
4.553838212e-01,1.38931e-08,9.99999e-01,9.99999e-01,9.99978e-01,1.38934e-08,9.99999e-01
4.576607403e-01,1.98611e-08,9.99999e-01,9.99999e-01,9.99989e-01,1.98613e-08,9.99999e-01
4.599490440e-01,2.81928e-08,9.99999e-01,9.99999e-01,9.99992e-01,2.81930e-08,9.99999e-01
4.622487892e-01,3.97438e-08,9.99999e-01,9.99999e-01,9.99998e-01,3.97438e-08,9.99999e-01
4.645600332e-01,5.56481e-08,9.99999e-01,9.99999e-01,9.99994e-01,5.56483e-08,9.99999e-01
4.668828333e-01,7.73951e-08,9.99999e-01,9.99999e-01,9.99920e-01,7.74012e-08,9.99999e-01
4.692172475e-01,1.06940e-07,9.99999e-01,9.99999e-01,9.99832e-01,1.06958e-07,9.99999e-01
4.715633337e-01,1.46844e-07,9.99999e-01,9.99999e-01,9.99890e-01,1.46860e-07,9.99999e-01
4.739211504e-01,2.00368e-07,9.99999e-01,9.99999e-01,9.99895e-01,2.00389e-07,9.99999e-01
4.762907561e-01,2.71741e-07,9.99999e-01,9.99999e-01,9.99945e-01,2.71755e-07,9.99999e-01
4.786722099e-01,3.66319e-07,9.99999e-01,9.99999e-01,9.99977e-01,3.66327e-07,9.99999e-01
4.810655710e-01,4.90903e-07,9.99999e-01,9.99999e-01,9.99992e-01,4.90906e-07,9.99999e-01
4.834708988e-01,6.54016e-07,9.99999e-01,9.99999e-01,9.99933e-01,6.54059e-07,9.99999e-01
4.858882533e-01,8.66408e-07,9.99999e-01,9.99999e-01,9.99881e-01,8.66511e-07,9.99999e-01
4.883176946e-01,1.14150e-06,9.99999e-01,9.99999e-01,9.99900e-01,1.14161e-06,9.99999e-01
4.907592831e-01,1.49575e-06,9.99999e-01,9.99999e-01,9.99910e-01,1.49588e-06,9.99999e-01
4.932130795e-01,1.94953e-06,9.99999e-01,9.99999e-01,9.99936e-01,1.94965e-06,9.99999e-01
4.956791449e-01,2.52772e-06,9.99999e-01,9.99999e-01,9.99965e-01,2.52781e-06,9.99999e-01
4.981575406e-01,3.26010e-06,9.99999e-01,9.99999e-01,9.99830e-01,3.26065e-06,9.99999e-01
5.006483283e-01,4.18300e-06,9.99999e-01,9.99999e-01,9.99558e-01,4.18485e-06,9.99999e-01
5.031515699e-01,5.33276e-06,9.99999e-01,9.99999e-01,9.97784e-01,5.34460e-06,9.99999e-01
5.056673278e-01,6.78493e-06,9.99999e-01,9.99999e-01,9.98834e-01,6.79285e-06,9.99999e-01
5.081956644e-01,8.58012e-06,9.99999e-01,9.99999e-01,9.98530e-01,8.59274e-06,9.99999e-01
5.107366428e-01,1.08085e-05,9.99999e-01,9.99999e-01,9.99008e-01,1.08192e-05,9.99999e-01
5.132903260e-01,1.35530e-05,9.99999e-01,9.99999e-01,9.99434e-01,1.35607e-05,9.99999e-01
5.158567776e-01,1.69172e-05,9.99999e-01,9.99999e-01,9.99761e-01,1.69212e-05,9.99999e-01
5.184360615e-01,2.10204e-05,9.99999e-01,9.99999e-01,9.99903e-01,2.10224e-05,9.99999e-01
5.210282418e-01,2.60049e-05,9.99999e-01,9.99999e-01,9.99963e-01,2.60058e-05,9.99999e-01
5.236333830e-01,3.20311e-05,9.99999e-01,9.99999e-01,9.99855e-01,3.20357e-05,9.99999e-01
5.262515499e-01,3.92979e-05,9.99999e-01,9.99999e-01,9.99909e-01,3.93015e-05,9.99999e-01
5.288828077e-01,4.80169e-05,9.99999e-01,9.99999e-01,9.99916e-01,4.80209e-05,9.99999e-01
5.315272217e-01,5.84388e-05,9.99999e-01,9.99999e-01,9.99927e-01,5.84430e-05,9.99999e-01
5.341848578e-01,7.08483e-05,9.99999e-01,9.99999e-01,9.99951e-01,7.08517e-05,9.99999e-01
5.368557821e-01,8.55545e-05,9.99999e-01,9.99999e-01,9.99830e-01,8.55689e-05,9.99999e-01
5.395400610e-01,1.02895e-04,9.99999e-01,9.99999e-01,9.99386e-01,1.02959e-04,9.99999e-01
5.422377613e-01,1.23334e-04,9.99999e-01,9.99999e-01,9.99219e-01,1.23431e-04,9.99999e-01
5.449489501e-01,1.47336e-04,9.99999e-01,9.99999e-01,9.99268e-01,1.47444e-04,9.99999e-01
5.476736949e-01,1.75399e-04,9.99999e-01,9.99999e-01,9.99357e-01,1.75512e-04,9.99999e-01
5.504120634e-01,2.08107e-04,9.99999e-01,9.99999e-01,9.99533e-01,2.08204e-04,9.99999e-01
5.531641237e-01,2.46098e-04,9.99999e-01,9.99999e-01,9.99765e-01,2.46155e-04,9.99999e-01
5.559299443e-01,2.90030e-04,9.99999e-01,9.99999e-01,9.99886e-01,2.90062e-04,9.99999e-01
5.587095940e-01,3.40671e-04,9.99999e-01,9.99999e-01,9.99928e-01,3.40695e-04,9.99999e-01
5.615031420e-01,3.98865e-04,9.99999e-01,9.99999e-01,9.99920e-01,3.98897e-04,9.99999e-01
5.643106577e-01,4.65546e-04,9.99999e-01,9.99999e-01,9.99908e-01,4.65588e-04,9.99999e-01
5.671322110e-01,5.41169e-04,9.99999e-01,9.99999e-01,9.98884e-01,5.41773e-04,9.99999e-01
5.699678720e-01,6.27815e-04,9.99999e-01,9.99999e-01,9.98848e-01,6.28539e-04,9.99999e-01
5.728177114e-01,7.26183e-04,9.99999e-01,9.99999e-01,9.98785e-01,7.27065e-04,9.99999e-01
5.756818000e-01,8.37688e-04,9.99999e-01,9.99999e-01,9.98888e-01,8.38619e-04,9.99999e-01
5.785602090e-01,9.63634e-04,9.99999e-01,9.99999e-01,9.99033e-01,9.64566e-04,9.99999e-01
5.814530100e-01,1.10529e-03,9.99999e-01,9.99999e-01,9.99026e-01,1.10637e-03,9.99999e-01
5.843602750e-01,1.26410e-03,9.99999e-01,9.99999e-01,9.98830e-01,1.26558e-03,9.99999e-01
5.872820764e-01,1.42939e-03,9.99999e-01,9.99999e-01,9.89977e-01,1.44386e-03,9.99999e-01
5.902184868e-01,1.62322e-03,9.99999e-01,9.99999e-01,9.87971e-01,1.64298e-03,9.99999e-01
5.931695792e-01,1.84888e-03,9.99999e-01,9.99999e-01,9.91467e-01,1.86479e-03,9.99999e-01
5.961354271e-01,2.09156e-03,9.99999e-01,9.99999e-01,9.90667e-01,2.11126e-03,9.99999e-01
5.991161043e-01,2.36823e-03,9.99999e-01,9.99999e-01,9.93192e-01,2.38446e-03,9.99999e-01
6.021116848e-01,2.67616e-03,9.99999e-01,9.99999e-01,9.96137e-01,2.68654e-03,9.99999e-01
6.051222432e-01,3.01386e-03,9.99999e-01,9.99999e-01,9.98044e-01,3.01976e-03,9.99999e-01
6.081478544e-01,3.38363e-03,9.99999e-01,9.99999e-01,9.99155e-01,3.38648e-03,9.99999e-01
6.111885937e-01,3.78781e-03,9.99999e-01,9.99999e-01,9.99643e-01,3.78916e-03,9.99999e-01
6.142445367e-01,4.22964e-03,9.99999e-01,9.99999e-01,9.99840e-01,4.23031e-03,9.99999e-01
6.173157594e-01,4.71215e-03,9.99999e-01,9.99999e-01,9.99911e-01,4.71257e-03,9.99999e-01
6.204023382e-01,5.23822e-03,9.99999e-01,9.99999e-01,9.99924e-01,5.23861e-03,9.99999e-01
6.235043498e-01,5.80928e-03,9.99999e-01,9.99999e-01,9.99664e-01,5.81122e-03,9.99999e-01
6.266218716e-01,6.42201e-03,9.99999e-01,9.99999e-01,9.98256e-01,6.43323e-03,9.99999e-01
6.297549810e-01,7.10297e-03,9.99999e-01,9.99999e-01,9.99360e-01,7.10751e-03,9.99999e-01
6.329037559e-01,7.82716e-03,9.99999e-01,9.99999e-01,9.98739e-01,7.83703e-03,9.99999e-01
6.360682746e-01,8.61547e-03,9.99999e-01,9.99999e-01,9.98921e-01,8.62477e-03,9.99999e-01
6.392486160e-01,9.46054e-03,9.99999e-01,9.99999e-01,9.98605e-01,9.47374e-03,9.99999e-01
6.424448591e-01,1.03675e-02,9.99999e-01,9.99999e-01,9.98118e-01,1.03870e-02,9.99999e-01
6.456570834e-01,1.12687e-02,9.99999e-01,9.99999e-01,9.91294e-01,1.13676e-02,9.99999e-01
6.488853688e-01,1.23404e-02,9.99999e-01,9.99999e-01,9.93696e-01,1.24187e-02,9.99999e-01
6.521297956e-01,1.34562e-02,9.99999e-01,9.99999e-01,9.93576e-01,1.35432e-02,9.99999e-01
6.553904446e-01,1.46495e-02,9.99999e-01,9.99999e-01,9.93569e-01,1.47443e-02,9.99999e-01
6.586673968e-01,1.59372e-02,9.99999e-01,9.99999e-01,9.94517e-01,1.60250e-02,9.99999e-01
6.619607338e-01,1.73352e-02,9.99999e-01,9.99999e-01,9.96941e-01,1.73884e-02,9.99999e-01
6.652705375e-01,1.88027e-02,9.99999e-01,9.99999e-01,9.98163e-01,1.88373e-02,9.99999e-01
6.685968902e-01,2.03588e-02,9.99999e-01,9.99999e-01,9.99219e-01,2.03747e-02,9.99999e-01
6.719398746e-01,2.19947e-02,9.99999e-01,9.99999e-01,9.99604e-01,2.20034e-02,9.99999e-01
6.752995740e-01,2.37213e-02,9.99999e-01,9.99999e-01,9.99790e-01,2.37263e-02,9.99999e-01
6.786760719e-01,2.55380e-02,9.99999e-01,9.99999e-01,9.99686e-01,2.55460e-02,9.99999e-01
6.820694522e-01,2.74504e-02,9.99999e-01,9.99999e-01,9.99462e-01,2.74652e-02,9.99999e-01
6.854797995e-01,2.94660e-02,9.99999e-01,9.99999e-01,9.99312e-01,2.94863e-02,9.99999e-01
6.889071985e-01,3.15584e-02,9.99999e-01,9.99999e-01,9.98311e-01,3.16118e-02,9.99999e-01
6.923517345e-01,3.29323e-02,9.99999e-01,9.99999e-01,9.73063e-01,3.38439e-02,9.99999e-01
6.958134932e-01,3.56863e-02,9.99999e-01,9.99999e-01,9.86219e-01,3.61849e-02,9.99999e-01
6.992925606e-01,3.81190e-02,9.99999e-01,9.99999e-01,9.86601e-01,3.86367e-02,9.99999e-01
7.027890234e-01,4.05263e-02,9.99999e-01,9.99999e-01,9.83618e-01,4.12012e-02,9.99999e-01
7.063029686e-01,4.32743e-02,9.99999e-01,9.99999e-01,9.86191e-01,4.38802e-02,9.99999e-01
7.098344834e-01,4.60567e-02,9.99999e-01,9.99999e-01,9.86745e-01,4.66754e-02,9.99999e-01
7.133836558e-01,4.87036e-02,9.99999e-01,9.99999e-01,9.82166e-01,4.95880e-02,9.99998e-01
7.169505741e-01,4.56279e-02,9.99999e-01,9.99999e-01,8.67132e-01,5.26194e-02,9.99997e-01
7.205353270e-01,5.20718e-02,9.99999e-01,9.99999e-01,9.33677e-01,5.57708e-02,9.99997e-01
7.241380036e-01,5.40274e-02,9.99999e-01,9.99999e-01,9.15054e-01,5.90430e-02,9.99997e-01
7.277586936e-01,5.76366e-02,9.99999e-01,9.99999e-01,9.23121e-01,6.24368e-02,9.99997e-01
7.313974871e-01,6.05962e-02,9.99999e-01,9.99999e-01,9.18781e-01,6.59528e-02,9.99998e-01
7.350544745e-01,6.64351e-02,9.99999e-01,9.99999e-01,9.54643e-01,6.95916e-02,9.99998e-01
7.387297469e-01,7.08890e-02,9.99999e-01,9.99999e-01,9.66406e-01,7.33532e-02,9.99999e-01
7.424233956e-01,7.59597e-02,9.99999e-01,9.99999e-01,9.83452e-01,7.72378e-02,9.99999e-01
7.461355126e-01,8.04265e-02,9.99999e-01,9.99999e-01,9.89922e-01,8.12452e-02,9.99999e-01
7.498661902e-01,8.49749e-02,9.99999e-01,9.99999e-01,9.95310e-01,8.53753e-02,9.99999e-01
7.536155211e-01,8.94204e-02,9.99999e-01,9.99999e-01,9.97689e-01,8.96274e-02,9.99999e-01
7.573835987e-01,9.38893e-02,9.99999e-01,9.99999e-01,9.98810e-01,9.40011e-02,9.99999e-01
7.611705167e-01,9.84226e-02,9.99999e-01,9.99999e-01,9.99260e-01,9.84954e-02,9.99999e-01
7.649763693e-01,1.03062e-01,9.99999e-01,9.99999e-01,9.99535e-01,1.03109e-01,9.99999e-01
7.688012511e-01,1.07807e-01,9.99999e-01,9.99999e-01,9.99676e-01,1.07842e-01,9.99999e-01
7.726452574e-01,1.12662e-01,9.99999e-01,9.99999e-01,9.99733e-01,1.12692e-01,9.99999e-01
7.765084837e-01,1.17613e-01,9.99999e-01,9.99999e-01,9.99618e-01,1.17658e-01,9.99999e-01
7.803910261e-01,1.12017e-01,9.99999e-01,9.14048e-01,9.98348e-01,1.22738e-01,9.99999e-01
7.842929812e-01,8.37484e-02,9.99999e-01,6.57994e-01,9.94246e-01,1.27930e-01,9.99999e-01
7.882144461e-01,8.44388e-02,9.99999e-01,6.40552e-01,9.88283e-01,1.33233e-01,9.99999e-01
7.921555184e-01,1.04898e-01,9.99999e-01,7.61163e-01,9.93596e-01,1.38645e-01,9.99999e-01
7.961162960e-01,1.18690e-01,9.99999e-01,8.32592e-01,9.88571e-01,1.44163e-01,9.99999e-01
8.000968774e-01,1.33815e-01,9.99999e-01,9.05160e-01,9.86882e-01,1.49785e-01,9.99999e-01
8.040973618e-01,1.45775e-01,9.99999e-01,9.49817e-01,9.86861e-01,1.55509e-01,9.99999e-01
8.081178486e-01,1.52912e-01,9.99999e-01,9.76525e-01,9.70476e-01,1.61332e-01,9.99998e-01
8.121584379e-01,1.46690e-01,9.99999e-01,9.92770e-01,8.83274e-01,1.67251e-01,9.99998e-01
8.162192301e-01,1.49572e-01,9.99999e-01,9.98398e-01,8.64571e-01,1.73264e-01,9.99997e-01
8.203003262e-01,1.66779e-01,9.99999e-01,9.99977e-01,9.29825e-01,1.79369e-01,9.99997e-01
8.244018279e-01,1.68162e-01,9.99999e-01,9.99999e-01,9.06235e-01,1.85561e-01,9.99997e-01
8.285238370e-01,1.75722e-01,9.99999e-01,9.99999e-01,9.15988e-01,1.91839e-01,9.99997e-01
8.326664562e-01,1.81464e-01,9.99999e-01,9.99999e-01,9.15569e-01,1.98198e-01,9.99998e-01
8.368297885e-01,1.92119e-01,9.99999e-01,9.99999e-01,9.38829e-01,2.04637e-01,9.99998e-01
8.410139374e-01,2.03376e-01,9.99999e-01,9.99999e-01,9.63179e-01,2.11151e-01,9.99999e-01
8.452190071e-01,2.13773e-01,9.99999e-01,9.99999e-01,9.81787e-01,2.17738e-01,9.99999e-01
8.494451021e-01,2.22005e-01,9.99999e-01,9.99999e-01,9.89350e-01,2.24394e-01,9.99999e-01
8.536923276e-01,2.29663e-01,9.99999e-01,9.99999e-01,9.93711e-01,2.31117e-01,9.99999e-01
8.579607893e-01,2.36976e-01,9.99999e-01,9.99999e-01,9.96111e-01,2.37901e-01,9.99999e-01
8.622505932e-01,2.44142e-01,9.99999e-01,9.99999e-01,9.97534e-01,2.44745e-01,9.99999e-01
8.665618462e-01,2.17994e-01,9.99999e-01,8.67514e-01,9.98468e-01,2.51645e-01,9.99999e-01
8.708946554e-01,9.15092e-02,9.99999e-01,3.54439e-01,9.98242e-01,2.58598e-01,9.99999e-01
8.752491287e-01,1.12289e-01,9.99999e-01,4.23706e-01,9.97651e-01,2.65599e-01,9.99999e-01
8.796253743e-01,1.67868e-01,9.99999e-01,6.17561e-01,9.96737e-01,2.72647e-01,9.99999e-01
8.840235012e-01,2.16176e-01,9.99999e-01,7.75550e-01,9.96278e-01,2.79736e-01,9.99999e-01
8.884436187e-01,2.56005e-01,9.99999e-01,9.04503e-01,9.86268e-01,2.86864e-01,9.99998e-01
8.928858368e-01,2.44974e-01,9.99999e-01,9.59986e-01,8.66998e-01,2.94028e-01,9.99997e-01
8.973502660e-01,2.32647e-01,9.99999e-01,9.90185e-01,7.79558e-01,3.01224e-01,9.99996e-01
9.018370173e-01,2.71668e-01,9.99999e-01,9.98917e-01,8.81632e-01,3.08448e-01,9.99996e-01
9.063462024e-01,2.74704e-01,9.99999e-01,9.72008e-01,8.92997e-01,3.15698e-01,9.99995e-01
9.108779334e-01,2.54630e-01,9.99999e-01,9.37548e-01,8.39108e-01,3.22971e-01,9.99994e-01
9.154323231e-01,2.66765e-01,9.99999e-01,9.85137e-01,8.19207e-01,3.30262e-01,9.99994e-01
9.200094847e-01,2.41584e-01,9.99999e-01,8.19866e-01,8.56102e-01,3.37568e-01,9.99993e-01
9.246095321e-01,2.00581e-01,9.99999e-01,7.30297e-01,7.86086e-01,3.44888e-01,9.99988e-01
9.292325798e-01,6.41598e-02,9.99999e-01,7.82841e-01,2.20959e-01,3.52217e-01,9.99975e-01
9.338787427e-01,4.32354e-02,9.99999e-01,7.89054e-01,1.45431e-01,3.59552e-01,9.99968e-01
9.385481364e-01,1.43679e-01,9.99999e-01,8.39070e-01,4.56329e-01,3.66890e-01,9.99968e-01
9.432408771e-01,1.17428e-01,9.99999e-01,8.97925e-01,3.44920e-01,3.74229e-01,9.99964e-01
9.479570815e-01,8.39891e-02,9.99999e-01,9.46099e-01,2.31136e-01,3.81566e-01,9.99969e-01
9.526968669e-01,1.23121e-01,9.99999e-01,9.73720e-01,3.23602e-01,3.88897e-01,9.99976e-01
9.574603512e-01,1.34126e-01,9.99999e-01,9.88678e-01,3.41761e-01,3.96220e-01,9.99982e-01
9.622476530e-01,1.66106e-01,9.99999e-01,9.96459e-01,4.12873e-01,4.03532e-01,9.99988e-01
9.670588912e-01,2.45179e-01,9.99999e-01,9.98940e-01,5.97339e-01,4.10831e-01,9.99992e-01
9.718941857e-01,3.00592e-01,9.99999e-01,9.99926e-01,7.18971e-01,4.18113e-01,9.99995e-01
9.767536566e-01,3.23311e-01,9.99999e-01,9.99999e-01,7.60057e-01,4.25377e-01,9.99996e-01
9.816374249e-01,3.52912e-01,9.99999e-01,9.99999e-01,8.15755e-01,4.32620e-01,9.99997e-01
9.865456120e-01,3.87181e-01,9.99999e-01,9.99999e-01,8.80276e-01,4.39840e-01,9.99998e-01
9.914783401e-01,4.13072e-01,9.99999e-01,9.99999e-01,9.24028e-01,4.47034e-01,9.99999e-01
9.964357318e-01,4.35073e-01,9.99999e-01,9.99999e-01,9.57887e-01,4.54200e-01,9.99999e-01
1.001417910e+00,4.49594e-01,9.99999e-01,9.99999e-01,9.74547e-01,4.61336e-01,9.99999e-01
1.006425000e+00,4.61589e-01,9.99999e-01,9.99999e-01,9.85374e-01,4.68440e-01,9.99999e-01
1.011457125e+00,4.71194e-01,9.99999e-01,9.99999e-01,9.90923e-01,4.75510e-01,9.99999e-01
1.016514411e+00,4.79561e-01,9.99999e-01,9.99999e-01,9.93819e-01,4.82543e-01,9.99999e-01
1.021596983e+00,4.87041e-01,9.99999e-01,9.99825e-01,9.95069e-01,4.89539e-01,9.99999e-01
1.026704968e+00,4.89058e-01,9.99999e-01,9.88813e-01,9.96150e-01,4.96495e-01,9.99999e-01
1.031838492e+00,4.54095e-01,9.99999e-01,9.04424e-01,9.97207e-01,5.03409e-01,9.99999e-01
1.036997685e+00,2.72572e-02,9.99999e-01,5.34834e-02,9.98336e-01,5.10280e-01,9.99999e-01
1.042182673e+00,2.40202e-03,9.99999e-01,4.65228e-03,9.98009e-01,5.17107e-01,9.99999e-01
1.047393587e+00,5.81871e-03,9.99999e-01,1.11312e-02,9.97365e-01,5.23887e-01,9.99999e-01
1.052630555e+00,1.10021e-06,9.99999e-01,2.07821e-06,9.96381e-01,5.30620e-01,9.99999e-01
1.057893707e+00,4.22658e-06,9.99999e-01,7.89147e-06,9.93956e-01,5.37304e-01,9.99999e-01
1.063183176e+00,8.86839e-05,9.99999e-01,1.63992e-04,9.90086e-01,5.43937e-01,9.99999e-01
1.068499092e+00,7.95711e-04,9.99999e-01,1.46175e-03,9.83481e-01,5.50519e-01,9.99999e-01
1.073841587e+00,8.30261e-03,9.99999e-01,1.51184e-02,9.80671e-01,5.57048e-01,9.99999e-01
1.079210795e+00,3.96690e-02,9.99999e-01,7.18050e-02,9.75369e-01,5.63523e-01,9.99998e-01
1.084606849e+00,1.24275e-01,9.99999e-01,2.25477e-01,9.62907e-01,5.69943e-01,9.99998e-01
1.090029883e+00,2.51034e-01,9.99999e-01,4.58139e-01,9.46887e-01,5.76308e-01,9.99997e-01
1.095480033e+00,3.43178e-01,9.99999e-01,6.80109e-01,8.62212e-01,5.82616e-01,9.99995e-01
1.100957433e+00,3.38233e-01,9.99999e-01,8.29673e-01,6.88483e-01,5.88866e-01,9.99993e-01
1.106462220e+00,2.21168e-01,9.99999e-01,9.25696e-01,3.98698e-01,5.95058e-01,9.99985e-01
1.111994531e+00,8.94768e-02,9.99999e-01,9.71753e-01,1.52423e-01,6.01191e-01,9.99971e-01
1.117554504e+00,3.15494e-02,9.99999e-01,9.93068e-01,5.21773e-02,6.07264e-01,9.99959e-01
1.123142276e+00,8.06364e-02,9.99999e-01,9.99546e-01,1.31500e-01,6.13276e-01,9.99952e-01
1.128757988e+00,1.52200e-01,9.99999e-01,9.99999e-01,2.45802e-01,6.19228e-01,9.99948e-01
1.134401778e+00,7.01089e-02,9.99999e-01,9.99999e-01,1.12159e-01,6.25118e-01,9.99942e-01
1.140073787e+00,2.63590e-01,9.99999e-01,9.99999e-01,4.17789e-01,6.30946e-01,9.99953e-01
1.145774156e+00,1.14640e-01,9.99999e-01,9.99999e-01,1.80057e-01,6.36712e-01,9.99960e-01
1.151503026e+00,9.65579e-02,9.99999e-01,9.99999e-01,1.50309e-01,6.42415e-01,9.99965e-01
1.157260541e+00,1.20568e-01,9.99999e-01,9.99999e-01,1.86051e-01,6.48055e-01,9.99974e-01
1.163046844e+00,1.86978e-01,9.99999e-01,9.99999e-01,2.86065e-01,6.53631e-01,9.99983e-01
1.168862078e+00,2.70246e-01,9.99999e-01,9.99999e-01,4.09998e-01,6.59144e-01,9.99991e-01
1.174706389e+00,3.82691e-01,9.99999e-01,9.99999e-01,5.75829e-01,6.64593e-01,9.99995e-01
1.180579921e+00,4.78009e-01,9.99999e-01,9.99999e-01,7.13470e-01,6.69979e-01,9.99996e-01
1.186482820e+00,5.57258e-01,9.99999e-01,9.99973e-01,8.25220e-01,6.75300e-01,9.99997e-01
1.192415234e+00,5.85545e-01,9.99999e-01,9.61626e-01,8.93614e-01,6.80557e-01,9.99997e-01
1.198377311e+00,3.28693e-01,9.99999e-01,5.18687e-01,9.09437e-01,6.85750e-01,9.99997e-01
1.204369197e+00,1.24912e-28,9.99999e-01,1.90436e-28,9.14372e-01,6.90879e-01,9.99998e-01
1.210391043e+00,1.64825e-115,9.99999e-01,2.48414e-115,9.17852e-01,6.95944e-01,9.99998e-01
1.216442998e+00,5.66804e-100,9.99999e-01,8.46043e-100,9.29828e-01,7.00945e-01,9.99998e-01
1.222525213e+00,1.81735e-98,9.99999e-01,2.65114e-98,9.44811e-01,7.05881e-01,9.99999e-01
1.228637839e+00,5.56277e-76,9.99999e-01,8.03751e-76,9.61309e-01,7.10755e-01,9.99999e-01
