#,Wave/freq,Total,O2,CO2,H2O,Rayleigh,CIA
4.000000000e-01,8.94408e-12,9.99999e-01,9.99999e-01,9.99949e-01,8.94453e-12,9.99999e-01
4.020000000e-01,1.47913e-11,9.99999e-01,9.99999e-01,9.99968e-01,1.47918e-11,9.99999e-01
4.040100000e-01,2.42066e-11,9.99999e-01,9.99999e-01,9.99986e-01,2.42069e-11,9.99999e-01
4.060300500e-01,3.92312e-11,9.99999e-01,9.99999e-01,9.99996e-01,3.92313e-11,9.99999e-01
4.080602003e-01,6.29772e-11,9.99999e-01,9.99999e-01,9.99998e-01,6.29773e-11,9.99999e-01
4.101005013e-01,1.00156e-10,9.99999e-01,9.99999e-01,9.99999e-01,1.00156e-10,9.99999e-01
4.121510038e-01,1.57829e-10,9.99999e-01,9.99999e-01,9.99997e-01,1.57829e-10,9.99999e-01
4.142117588e-01,2.46485e-10,9.99999e-01,9.99999e-01,9.99985e-01,2.46489e-10,9.99999e-01
4.162828176e-01,3.81554e-10,9.99999e-01,9.99999e-01,9.99937e-01,3.81578e-10,9.99999e-01
4.183642317e-01,5.85604e-10,9.99999e-01,9.99999e-01,9.99962e-01,5.85625e-10,9.99999e-01
4.204560528e-01,8.91194e-10,9.99999e-01,9.99999e-01,9.99976e-01,8.91215e-10,9.99999e-01
4.225583331e-01,1.34505e-09,9.99999e-01,9.99999e-01,9.99991e-01,1.34506e-09,9.99999e-01
4.246711247e-01,2.01358e-09,9.99999e-01,9.99999e-01,9.99992e-01,2.01359e-09,9.99999e-01
4.267944804e-01,2.99044e-09,9.99999e-01,9.99999e-01,9.99989e-01,2.99047e-09,9.99999e-01
4.289284528e-01,4.40668e-09,9.99999e-01,9.99999e-01,9.99991e-01,4.40672e-09,9.99999e-01
4.310730950e-01,6.44411e-09,9.99999e-01,9.99999e-01,9.99996e-01,6.44414e-09,9.99999e-01
4.332284605e-01,9.35306e-09,9.99999e-01,9.99999e-01,9.99998e-01,9.35306e-09,9.99999e-01
4.353946028e-01,1.34756e-08,9.99999e-01,9.99999e-01,9.99999e-01,1.34756e-08,9.99999e-01
4.375715758e-01,1.92755e-08,9.99999e-01,9.99999e-01,9.99993e-01,1.92756e-08,9.99999e-01
4.397594337e-01,2.73763e-08,9.99999e-01,9.99999e-01,9.99945e-01,2.73778e-08,9.99999e-01
4.419582309e-01,3.86065e-08,9.99999e-01,9.99999e-01,9.99727e-01,3.86170e-08,9.99999e-01
4.441680220e-01,5.40897e-08,9.99999e-01,9.99999e-01,9.99783e-01,5.41014e-08,9.99999e-01
4.463888621e-01,7.52746e-08,9.99999e-01,9.99999e-01,9.99776e-01,7.52914e-08,9.99999e-01
4.486208064e-01,1.04085e-07,9.99999e-01,9.99999e-01,9.99860e-01,1.04099e-07,9.99999e-01
4.508639105e-01,1.43002e-07,9.99999e-01,9.99999e-01,9.99934e-01,1.43011e-07,9.99999e-01
4.531182300e-01,1.95235e-07,9.99999e-01,9.99999e-01,9.99973e-01,1.95240e-07,9.99999e-01
4.553838212e-01,2.64904e-07,9.99999e-01,9.99999e-01,9.99982e-01,2.64909e-07,9.99999e-01
4.576607403e-01,3.57275e-07,9.99999e-01,9.99999e-01,9.99991e-01,3.57278e-07,9.99999e-01
4.599490440e-01,4.79014e-07,9.99999e-01,9.99999e-01,9.99993e-01,4.79017e-07,9.99999e-01
4.622487892e-01,6.38526e-07,9.99999e-01,9.99999e-01,9.99998e-01,6.38527e-07,9.99999e-01
4.645600332e-01,8.46332e-07,9.99999e-01,9.99999e-01,9.99995e-01,8.46335e-07,9.99999e-01
4.668828333e-01,1.11548e-06,9.99999e-01,9.99999e-01,9.99934e-01,1.11555e-06,9.99999e-01
4.692172475e-01,1.46219e-06,9.99999e-01,9.99999e-01,9.99859e-01,1.46240e-06,9.99999e-01
4.715633337e-01,1.90669e-06,9.99999e-01,9.99999e-01,9.99908e-01,1.90686e-06,9.99999e-01
4.739211504e-01,2.47320e-06,9.99999e-01,9.99999e-01,9.99911e-01,2.47342e-06,9.99999e-01
4.762907561e-01,3.19171e-06,9.99999e-01,9.99999e-01,9.99953e-01,3.19186e-06,9.99999e-01
4.786722099e-01,4.09821e-06,9.99999e-01,9.99999e-01,9.99980e-01,4.09829e-06,9.99999e-01
4.810655710e-01,5.23618e-06,9.99999e-01,9.99999e-01,9.99993e-01,5.23621e-06,9.99999e-01
4.834708988e-01,6.65743e-06,9.99999e-01,9.99999e-01,9.99946e-01,6.65778e-06,9.99999e-01
4.858882533e-01,8.42439e-06,9.99999e-01,9.99999e-01,9.99900e-01,8.42522e-06,9.99999e-01
4.883176946e-01,1.06115e-05,9.99999e-01,9.99999e-01,9.99916e-01,1.06124e-05,9.99999e-01
4.907592831e-01,1.33056e-05,9.99999e-01,9.99999e-01,9.99924e-01,1.33066e-05,9.99999e-01
4.932130795e-01,1.66094e-05,9.99999e-01,9.99999e-01,9.99946e-01,1.66103e-05,9.99999e-01
4.956791449e-01,2.06431e-05,9.99999e-01,9.99999e-01,9.99971e-01,2.06437e-05,9.99999e-01
4.981575406e-01,2.55429e-05,9.99999e-01,9.99999e-01,9.99859e-01,2.55465e-05,9.99999e-01
5.006483283e-01,3.14696e-05,9.99999e-01,9.99999e-01,9.99637e-01,3.14810e-05,9.99999e-01
5.031515699e-01,3.85630e-05,9.99999e-01,9.99999e-01,9.98152e-01,3.86343e-05,9.99999e-01
5.056673278e-01,4.71755e-05,9.99999e-01,9.99999e-01,9.99022e-01,4.72217e-05,9.99999e-01
5.081956644e-01,5.74185e-05,9.99999e-01,9.99999e-01,9.98765e-01,5.74894e-05,9.99999e-01
5.107366428e-01,6.96601e-05,9.99999e-01,9.99999e-01,9.99165e-01,6.97183e-05,9.99999e-01
5.132903260e-01,8.41867e-05,9.99999e-01,9.99999e-01,9.99522e-01,8.42269e-05,9.99999e-01
5.158567776e-01,1.01355e-04,9.99999e-01,9.99999e-01,9.99797e-01,1.01376e-04,9.99999e-01
5.184360615e-01,1.21560e-04,9.99999e-01,9.99999e-01,9.99918e-01,1.21570e-04,9.99999e-01
5.210282418e-01,1.45260e-04,9.99999e-01,9.99999e-01,9.99969e-01,1.45265e-04,9.99999e-01
5.236333830e-01,1.72948e-04,9.99999e-01,9.99999e-01,9.99879e-01,1.72969e-04,9.99999e-01
5.262515499e-01,2.05231e-04,9.99999e-01,9.99999e-01,9.99924e-01,2.05247e-04,9.99999e-01
5.288828077e-01,2.42710e-04,9.99999e-01,9.99999e-01,9.99930e-01,2.42727e-04,9.99999e-01
5.315272217e-01,2.86085e-04,9.99999e-01,9.99999e-01,9.99938e-01,2.86102e-04,9.99999e-01
5.341848578e-01,3.36122e-04,9.99999e-01,9.99999e-01,9.99959e-01,3.36135e-04,9.99999e-01
5.368557821e-01,3.93607e-04,9.99999e-01,9.99999e-01,9.99859e-01,3.93662e-04,9.99999e-01
5.395400610e-01,4.59367e-04,9.99999e-01,9.99999e-01,9.99497e-01,4.59598e-04,9.99999e-01
5.422377613e-01,5.34588e-04,9.99999e-01,9.99999e-01,9.99343e-01,5.34939e-04,9.99999e-01
5.449489501e-01,6.20390e-04,9.99999e-01,9.99999e-01,9.99392e-01,6.20767e-04,9.99999e-01
5.476736949e-01,7.17862e-04,9.99999e-01,9.99999e-01,9.99458e-01,7.18251e-04,9.99999e-01
5.504120634e-01,8.28327e-04,9.99999e-01,9.99999e-01,9.99606e-01,8.28653e-04,9.99999e-01
5.531641237e-01,9.53140e-04,9.99999e-01,9.99999e-01,9.99801e-01,9.53328e-04,9.99999e-01
5.559299443e-01,1.09362e-03,9.99999e-01,9.99999e-01,9.99904e-01,1.09373e-03,9.99999e-01
5.587095940e-01,1.25133e-03,9.99999e-01,9.99999e-01,9.99939e-01,1.25141e-03,9.99999e-01
5.615031420e-01,1.42792e-03,9.99999e-01,9.99999e-01,9.99933e-01,1.42801e-03,9.99999e-01
5.643106577e-01,1.62518e-03,9.99999e-01,9.99999e-01,9.99925e-01,1.62530e-03,9.99999e-01
5.671322110e-01,1.84346e-03,9.99999e-01,9.99999e-01,9.99098e-01,1.84512e-03,9.99999e-01
5.699678720e-01,2.08738e-03,9.99999e-01,9.99999e-01,9.99019e-01,2.08943e-03,9.99999e-01
5.728177114e-01,2.35789e-03,9.99999e-01,9.99999e-01,9.98988e-01,2.36028e-03,9.99999e-01
5.756818000e-01,2.65735e-03,9.99999e-01,9.99999e-01,9.99069e-01,2.65983e-03,9.99999e-01
5.785602090e-01,2.98790e-03,9.99999e-01,9.99999e-01,9.99187e-01,2.99033e-03,9.99999e-01
5.814530100e-01,3.35140e-03,9.99999e-01,9.99999e-01,9.99185e-01,3.35413e-03,9.99999e-01
5.843602750e-01,3.75005e-03,9.99999e-01,9.99999e-01,9.99035e-01,3.75367e-03,9.99999e-01
5.872820764e-01,4.15673e-03,9.99999e-01,9.99999e-01,9.91710e-01,4.19147e-03,9.99999e-01
5.902184868e-01,4.62290e-03,9.99999e-01,9.99999e-01,9.89882e-01,4.67015e-03,9.99999e-01
5.931695792e-01,5.15534e-03,9.99999e-01,9.99999e-01,9.92864e-01,5.19239e-03,9.99999e-01
5.961354271e-01,5.71581e-03,9.99999e-01,9.99999e-01,9.92163e-01,5.76095e-03,9.99999e-01
5.991161043e-01,6.34214e-03,9.99999e-01,9.99999e-01,9.94273e-01,6.37867e-03,9.99999e-01
6.021116848e-01,7.02547e-03,9.99999e-01,9.99999e-01,9.96743e-01,7.04842e-03,9.99999e-01
6.051222432e-01,7.76034e-03,9.99999e-01,9.99999e-01,9.98350e-01,7.77316e-03,9.99999e-01
6.081478544e-01,8.54977e-03,9.99999e-01,9.99999e-01,9.99288e-01,8.55585e-03,9.99999e-01
6.111885937e-01,9.39670e-03,9.99999e-01,9.99999e-01,9.99698e-01,9.39953e-03,9.99999e-01
6.142445367e-01,1.03059e-02,9.99999e-01,9.99999e-01,9.99865e-01,1.03072e-02,9.99999e-01
6.173157594e-01,1.12812e-02,9.99999e-01,9.99999e-01,9.99925e-01,1.12820e-02,9.99999e-01
6.204023382e-01,1.23262e-02,9.99999e-01,9.99999e-01,9.99937e-01,1.23270e-02,9.99999e-01
6.235043498e-01,1.34416e-02,9.99999e-01,9.99999e-01,9.99728e-01,1.34452e-02,9.99999e-01
6.266218716e-01,1.46184e-02,9.99999e-01,9.99999e-01,9.98542e-01,1.46397e-02,9.99999e-01
6.297549810e-01,1.59051e-02,9.99999e-01,9.99999e-01,9.99465e-01,1.59136e-02,9.99999e-01
6.329037559e-01,1.72516e-02,9.99999e-01,9.99999e-01,9.98940e-01,1.72698e-02,9.99999e-01
6.360682746e-01,1.86946e-02,9.99999e-01,9.99999e-01,9.99101e-01,1.87114e-02,9.99999e-01
6.392486160e-01,2.02176e-02,9.99999e-01,9.99999e-01,9.98833e-01,2.02412e-02,9.99999e-01
6.424448591e-01,2.18282e-02,9.99999e-01,9.99999e-01,9.98449e-01,2.18621e-02,9.99999e-01
6.456570834e-01,2.34076e-02,9.99999e-01,9.99999e-01,9.92816e-01,2.35770e-02,9.99999e-01
6.488853688e-01,2.52305e-02,9.99999e-01,9.99999e-01,9.93781e-01,2.53884e-02,9.99999e-01
6.521297956e-01,2.71514e-02,9.99999e-01,9.99999e-01,9.94590e-01,2.72990e-02,9.99999e-01
6.553904446e-01,2.91548e-02,9.99999e-01,9.99999e-01,9.94655e-01,2.93115e-02,9.99999e-01
6.586673968e-01,3.12829e-02,9.99999e-01,9.99999e-01,9.95383e-01,3.14280e-02,9.99999e-01
6.619607338e-01,3.35612e-02,9.99999e-01,9.99999e-01,9.97329e-01,3.36511e-02,9.99999e-01
6.652705375e-01,3.59270e-02,9.99999e-01,9.99999e-01,9.98449e-01,3.59828e-02,9.99999e-01
6.685968902e-01,3.83975e-02,9.99999e-01,9.99999e-01,9.99279e-01,3.84251e-02,9.99999e-01
6.719398746e-01,4.09664e-02,9.99999e-01,9.99999e-01,9.99665e-01,4.09800e-02,9.99999e-01
6.752995740e-01,4.36415e-02,9.99999e-01,9.99999e-01,9.99819e-01,4.36493e-02,9.99999e-01
6.786760719e-01,4.64225e-02,9.99999e-01,9.99999e-01,9.99740e-01,4.64346e-02,9.99999e-01
6.820694522e-01,4.93153e-02,9.99999e-01,9.99999e-01,9.99555e-01,4.93372e-02,9.99999e-01
6.854797995e-01,5.23286e-02,9.99999e-01,9.99999e-01,9.99427e-01,5.23585e-02,9.99999e-01
6.889071985e-01,5.54237e-02,9.99999e-01,9.99999e-01,9.98630e-01,5.54997e-02,9.99999e-01
6.923517345e-01,5.74495e-02,9.99999e-01,9.99999e-01,9.77670e-01,5.87617e-02,9.99999e-01
6.958134932e-01,6.14084e-02,9.99999e-01,9.99999e-01,9.88144e-01,6.21452e-02,9.99999e-01
6.992925606e-01,6.49223e-02,9.99999e-01,9.99999e-01,9.88901e-01,6.56509e-02,9.99999e-01
7.027890234e-01,6.83249e-02,9.99999e-01,9.99999e-01,9.86224e-01,6.92792e-02,9.99999e-01
7.063029686e-01,7.21842e-02,9.99999e-01,9.99999e-01,9.88411e-01,7.30305e-02,9.99999e-01
7.098344834e-01,7.60493e-02,9.99999e-01,9.99999e-01,9.88877e-01,7.69047e-02,9.99999e-01
7.133836558e-01,7.97178e-02,9.99999e-01,9.99999e-01,9.85365e-01,8.09017e-02,9.99998e-01
7.169505741e-01,7.55228e-02,9.99999e-01,9.99999e-01,8.88280e-01,8.50214e-02,9.99998e-01
7.205353270e-01,8.41541e-02,9.99999e-01,9.99999e-01,9.42764e-01,8.92633e-02,9.99997e-01
7.241380036e-01,8.69445e-02,9.99999e-01,9.99999e-01,9.28631e-01,9.36267e-02,9.99997e-01
7.277586936e-01,9.17660e-02,9.99999e-01,9.99999e-01,9.35330e-01,9.81109e-02,9.99998e-01
7.313974871e-01,9.56179e-02,9.99999e-01,9.99999e-01,9.30907e-01,1.02715e-01,9.99998e-01
7.350544745e-01,1.03320e-01,9.99999e-01,9.99999e-01,9.61672e-01,1.07437e-01,9.99998e-01
7.387297469e-01,1.09090e-01,9.99999e-01,9.99999e-01,9.71612e-01,1.12278e-01,9.99999e-01
7.424233956e-01,1.15590e-01,9.99999e-01,9.99999e-01,9.85979e-01,1.17234e-01,9.99999e-01
7.461355126e-01,1.21263e-01,9.99999e-01,9.99999e-01,9.91492e-01,1.22304e-01,9.99999e-01
7.498661902e-01,1.26980e-01,9.99999e-01,9.99999e-01,9.96021e-01,1.27487e-01,9.99999e-01
7.536155211e-01,1.32522e-01,9.99999e-01,9.99999e-01,9.98051e-01,1.32781e-01,9.99999e-01
7.573835987e-01,1.38045e-01,9.99999e-01,9.99999e-01,9.98995e-01,1.38183e-01,9.99999e-01
7.611705167e-01,1.43603e-01,9.99999e-01,9.99999e-01,9.99376e-01,1.43692e-01,9.99999e-01
7.649763693e-01,1.49247e-01,9.99999e-01,9.99999e-01,9.99609e-01,1.49306e-01,9.99999e-01
7.688012511e-01,1.54979e-01,9.99999e-01,9.99999e-01,9.99728e-01,1.55021e-01,9.99999e-01
7.726452574e-01,1.60800e-01,9.99999e-01,9.99999e-01,9.99776e-01,1.60836e-01,9.99999e-01
7.765084837e-01,1.66694e-01,9.99999e-01,9.99999e-01,9.99684e-01,1.66747e-01,9.99999e-01
7.803910261e-01,1.60488e-01,9.99999e-01,9.30190e-01,9.98638e-01,1.72752e-01,9.99999e-01
7.842929812e-01,1.24532e-01,9.99999e-01,6.99272e-01,9.95256e-01,1.78849e-01,9.99999e-01
7.882144461e-01,1.25727e-01,9.99999e-01,6.85647e-01,9.90182e-01,1.85034e-01,9.99999e-01
7.921555184e-01,1.51433e-01,9.99999e-01,7.95662e-01,9.94584e-01,1.91305e-01,9.99999e-01
7.961162960e-01,1.67690e-01,9.99999e-01,8.56313e-01,9.90531e-01,1.97658e-01,9.99999e-01
8.000968774e-01,1.85584e-01,9.99999e-01,9.19355e-01,9.89016e-01,2.04090e-01,9.99999e-01
8.040973618e-01,1.99380e-01,9.99999e-01,9.57187e-01,9.89026e-01,2.10598e-01,9.99999e-01
8.081178486e-01,2.07691e-01,9.99999e-01,9.80169e-01,9.75580e-01,2.17179e-01,9.99998e-01
8.121584379e-01,2.00714e-01,9.99999e-01,9.93792e-01,9.02198e-01,2.23829e-01,9.99998e-01
8.162192301e-01,2.03589e-01,9.99999e-01,9.98625e-01,8.84236e-01,2.30546e-01,9.99997e-01
8.203003262e-01,2.23538e-01,9.99999e-01,9.99977e-01,9.41922e-01,2.37326e-01,9.99997e-01
8.244018279e-01,2.24303e-01,9.99999e-01,9.99999e-01,9.18657e-01,2.44165e-01,9.99997e-01
8.285238370e-01,2.33334e-01,9.99999e-01,9.99999e-01,9.29394e-01,2.51060e-01,9.99998e-01
8.326664562e-01,2.39557e-01,9.99999e-01,9.99999e-01,9.28487e-01,2.58008e-01,9.99998e-01
8.368297885e-01,2.51273e-01,9.99999e-01,9.99999e-01,9.48177e-01,2.65006e-01,9.99998e-01
8.410139374e-01,2.63576e-01,9.99999e-01,9.99999e-01,9.68852e-01,2.72049e-01,9.99999e-01
8.452190071e-01,2.74833e-01,9.99999e-01,9.99999e-01,9.84586e-01,2.79135e-01,9.99999e-01
8.494451021e-01,2.83700e-01,9.99999e-01,9.99999e-01,9.91054e-01,2.86260e-01,9.99999e-01
8.536923276e-01,2.91862e-01,9.99999e-01,9.99999e-01,9.94686e-01,2.93421e-01,9.99999e-01
8.579607893e-01,2.99632e-01,9.99999e-01,9.99999e-01,9.96733e-01,3.00614e-01,9.99999e-01
8.622505932e-01,3.07196e-01,9.99999e-01,9.99999e-01,9.97919e-01,3.07837e-01,9.99999e-01
8.665618462e-01,2.78441e-01,9.99999e-01,8.84769e-01,9.98716e-01,3.15085e-01,9.99999e-01
8.708946554e-01,1.33249e-01,9.99999e-01,4.13925e-01,9.98533e-01,3.22355e-01,9.99999e-01
8.752491287e-01,1.58418e-01,9.99999e-01,4.81459e-01,9.98036e-01,3.29645e-01,9.99999e-01
8.796253743e-01,2.23050e-01,9.99999e-01,6.63648e-01,9.97289e-01,3.36950e-01,9.99999e-01
8.840235012e-01,2.76743e-01,9.99999e-01,8.06266e-01,9.96901e-01,3.44269e-01,9.99999e-01
8.884436187e-01,3.19274e-01,9.99999e-01,9.18015e-01,9.88915e-01,3.51597e-01,9.99998e-01
8.928858368e-01,3.08340e-01,9.99999e-01,9.65956e-01,8.88688e-01,3.58932e-01,9.99997e-01
8.973502660e-01,2.94572e-01,9.99999e-01,9.91579e-01,8.10752e-01,3.66270e-01,9.99996e-01
9.018370173e-01,3.35177e-01,9.99999e-01,9.99066e-01,8.97912e-01,3.73609e-01,9.99996e-01
9.063462024e-01,3.39522e-01,9.99999e-01,9.77224e-01,9.10476e-01,3.80946e-01,9.99996e-01
9.108779334e-01,3.17975e-01,9.99999e-01,9.46963e-01,8.63463e-01,3.88277e-01,9.99995e-01
9.154323231e-01,3.30554e-01,9.99999e-01,9.87190e-01,8.45872e-01,3.95601e-01,9.99995e-01
9.200094847e-01,3.03353e-01,9.99999e-01,8.46138e-01,8.77133e-01,4.02914e-01,9.99994e-01
9.246095321e-01,2.60630e-01,9.99999e-01,7.66950e-01,8.20702e-01,4.10214e-01,9.99990e-01
9.292325798e-01,9.83785e-02,9.99999e-01,8.15679e-01,2.78067e-01,4.17498e-01,9.99980e-01
9.338787427e-01,6.85569e-02,9.99999e-01,8.18697e-01,1.90022e-01,4.24764e-01,9.99974e-01
9.385481364e-01,1.92943e-01,9.99999e-01,8.62557e-01,5.08991e-01,4.32009e-01,9.99973e-01
9.432408771e-01,1.63790e-01,9.99999e-01,9.12919e-01,4.04555e-01,4.39231e-01,9.99970e-01
9.479570815e-01,1.23202e-01,9.99999e-01,9.54406e-01,2.87796e-01,4.46427e-01,9.99974e-01
9.526968669e-01,1.70041e-01,9.99999e-01,9.77734e-01,3.82014e-01,4.53595e-01,9.99980e-01
9.574603512e-01,1.83555e-01,9.99999e-01,9.90407e-01,4.01712e-01,4.60734e-01,9.99985e-01
9.622476530e-01,2.19693e-01,9.99999e-01,9.96995e-01,4.70821e-01,4.67841e-01,9.99989e-01
9.670588912e-01,3.06661e-01,9.99999e-01,9.99097e-01,6.46240e-01,4.74913e-01,9.99993e-01
9.718941857e-01,3.65210e-01,9.99999e-01,9.99934e-01,7.57819e-01,4.81950e-01,9.99995e-01
9.767536566e-01,3.88333e-01,9.99999e-01,9.99999e-01,7.94222e-01,4.88949e-01,9.99996e-01
9.816374249e-01,4.17706e-01,9.99999e-01,9.99999e-01,8.42305e-01,4.95908e-01,9.99997e-01
9.865456120e-01,4.51596e-01,9.99999e-01,9.99999e-01,8.98115e-01,5.02826e-01,9.99998e-01
9.914783401e-01,4.76919e-01,9.99999e-01,9.99999e-01,9.35683e-01,5.09701e-01,9.99999e-01
9.964357318e-01,4.98161e-01,9.99999e-01,9.99999e-01,9.64434e-01,5.16532e-01,9.99999e-01
1.001417910e+00,5.12076e-01,9.99999e-01,9.99999e-01,9.78520e-01,5.23316e-01,9.99999e-01
1.006425000e+00,5.23543e-01,9.99999e-01,9.99999e-01,9.87718e-01,5.30053e-01,9.99999e-01
1.011457125e+00,5.32632e-01,9.99999e-01,9.99999e-01,9.92344e-01,5.36740e-01,9.99999e-01
1.016514411e+00,5.40555e-01,9.99999e-01,9.99999e-01,9.94803e-01,5.43378e-01,9.99999e-01
1.021596983e+00,5.47625e-01,9.99999e-01,9.99885e-01,9.95859e-01,5.49964e-01,9.99999e-01
1.026704968e+00,5.49717e-01,9.99999e-01,9.91004e-01,9.96771e-01,5.56498e-01,9.99999e-01
1.031838492e+00,5.18204e-01,9.99999e-01,9.22539e-01,9.97648e-01,5.62978e-01,9.99999e-01
1.036997685e+00,3.81118e-02,9.99999e-01,6.70038e-02,9.98604e-01,5.69403e-01,9.99999e-01
1.042182673e+00,5.39230e-03,9.99999e-01,9.37769e-03,9.98341e-01,5.75772e-01,9.99999e-01
1.047393587e+00,1.19939e-02,9.99999e-01,2.06435e-02,9.97798e-01,5.82085e-01,9.99999e-01
1.052630555e+00,6.91169e-06,9.99999e-01,1.17708e-05,9.96982e-01,5.88340e-01,9.99999e-01
1.057893707e+00,2.48781e-05,9.99999e-01,4.19596e-05,9.94973e-01,5.94537e-01,9.99999e-01
1.063183176e+00,3.30850e-04,9.99999e-01,5.53563e-04,9.91733e-01,6.00675e-01,9.99999e-01
1.068499092e+00,2.37273e-03,9.99999e-01,3.94936e-03,9.86181e-01,6.06753e-01,9.99999e-01
1.073841587e+00,1.74178e-02,9.99999e-01,2.87734e-02,9.83880e-01,6.12771e-01,9.99999e-01
1.079210795e+00,6.49522e-02,9.99999e-01,1.06783e-01,9.79326e-01,6.18727e-01,9.99998e-01
1.084606849e+00,1.72054e-01,9.99999e-01,2.83382e-01,9.68925e-01,6.24623e-01,9.99998e-01
1.090029883e+00,3.12788e-01,9.99999e-01,5.17533e-01,9.55903e-01,6.30456e-01,9.99997e-01
1.095480033e+00,4.07436e-01,9.99999e-01,7.21930e-01,8.84250e-01,6.36227e-01,9.99996e-01
1.100957433e+00,4.03587e-01,9.99999e-01,8.54224e-01,7.33147e-01,6.41935e-01,9.99994e-01
1.106462220e+00,2.82712e-01,9.99999e-01,9.36792e-01,4.63667e-01,6.47580e-01,9.99987e-01
1.111994531e+00,1.30249e-01,9.99999e-01,9.76069e-01,2.03582e-01,6.53162e-01,9.99976e-01
1.117554504e+00,5.29491e-02,9.99999e-01,9.94083e-01,8.07001e-02,6.58681e-01,9.99966e-01
1.123142276e+00,1.14267e-01,9.99999e-01,9.99608e-01,1.72074e-01,6.64135e-01,9.99960e-01
1.128757988e+00,2.03333e-01,9.99999e-01,9.99999e-01,3.03710e-01,6.69526e-01,9.99956e-01
1.134401778e+00,9.19467e-02,9.99999e-01,9.99999e-01,1.36254e-01,6.74852e-01,9.99951e-01
1.140073787e+00,3.26260e-01,9.99999e-01,9.99999e-01,4.79731e-01,6.80115e-01,9.99960e-01
1.145774156e+00,1.57980e-01,9.99999e-01,9.99999e-01,2.30529e-01,6.85314e-01,9.99966e-01
1.151503026e+00,1.37007e-01,9.99999e-01,9.99999e-01,1.98438e-01,6.90448e-01,9.99971e-01
1.157260541e+00,1.67710e-01,9.99999e-01,9.99999e-01,2.41134e-01,6.95518e-01,9.99978e-01
1.163046844e+00,2.42325e-01,9.99999e-01,9.99999e-01,3.45924e-01,7.00524e-01,9.99985e-01
1.168862078e+00,3.32167e-01,9.99999e-01,9.99999e-01,4.70850e-01,7.05467e-01,9.99992e-01
1.174706389e+00,4.45948e-01,9.99999e-01,9.99999e-01,6.27792e-01,7.10345e-01,9.99996e-01
1.180579921e+00,5.37947e-01,9.99999e-01,9.99999e-01,7.52206e-01,7.15160e-01,9.99997e-01
1.186482820e+00,6.12537e-01,9.99999e-01,9.99986e-01,8.50860e-01,7.19912e-01,9.99997e-01
1.192415234e+00,6.39531e-01,9.99999e-01,9.69102e-01,9.09965e-01,7.24600e-01,9.99997e-01
1.198377311e+00,3.62788e-01,9.99999e-01,5.31541e-01,9.23693e-01,7.29225e-01,9.99998e-01
1.204369197e+00,2.53473e-24,9.99999e-01,3.60768e-24,9.27729e-01,7.33788e-01,9.99998e-01
1.210391043e+00,5.11013e-97,9.99999e-01,7.20362e-97,9.30681e-01,7.38288e-01,9.99998e-01
1.216442998e+00,5.11111e-84,9.99999e-01,7.14698e-84,9.40625e-01,7.42726e-01,9.99998e-01
1.222525213e+00,9.30042e-83,9.99999e-01,1.27576e-82,9.53447e-01,7.47102e-01,9.99999e-01
1.228637839e+00,6.37597e-64,9.99999e-01,8.67673e-64,9.67453e-01,7.51417e-01,9.99999e-01
