#,Wave/freq,Total,O2,CO2,H2O,Rayleigh,CIA
4.000000000e-01,1.71256e-05,9.99999e-01,9.99999e-01,9.99978e-01,1.71259e-05,9.99999e-01
4.020000000e-01,2.12762e-05,9.99999e-01,9.99999e-01,9.99986e-01,2.12765e-05,9.99999e-01
4.040100000e-01,2.63138e-05,9.99999e-01,9.99999e-01,9.99993e-01,2.63140e-05,9.99999e-01
4.060300500e-01,3.24077e-05,9.99999e-01,9.99999e-01,9.99998e-01,3.24078e-05,9.99999e-01
4.080602003e-01,3.97489e-05,9.99999e-01,9.99999e-01,9.99999e-01,3.97489e-05,9.99999e-01
4.101005013e-01,4.85567e-05,9.99999e-01,9.99999e-01,9.99999e-01,4.85567e-05,9.99999e-01
4.121510038e-01,5.90821e-05,9.99999e-01,9.99999e-01,9.99998e-01,5.90821e-05,9.99999e-01
4.142117588e-01,7.16107e-05,9.99999e-01,9.99999e-01,9.99993e-01,7.16111e-05,9.99999e-01
4.162828176e-01,8.64656e-05,9.99999e-01,9.99999e-01,9.99972e-01,8.64679e-05,9.99999e-01
4.183642317e-01,1.04017e-04,9.99999e-01,9.99999e-01,9.99983e-01,1.04019e-04,9.99999e-01
4.204560528e-01,1.24675e-04,9.99999e-01,9.99999e-01,9.99989e-01,1.24676e-04,9.99999e-01
4.225583331e-01,1.48902e-04,9.99999e-01,9.99999e-01,9.99995e-01,1.48902e-04,9.99999e-01
4.246711247e-01,1.77213e-04,9.99999e-01,9.99999e-01,9.99996e-01,1.77213e-04,9.99999e-01
4.267944804e-01,2.10182e-04,9.99999e-01,9.99999e-01,9.99995e-01,2.10183e-04,9.99999e-01
4.289284528e-01,2.48447e-04,9.99999e-01,9.99999e-01,9.99996e-01,2.48448e-04,9.99999e-01
4.310730950e-01,2.92710e-04,9.99999e-01,9.99999e-01,9.99998e-01,2.92711e-04,9.99999e-01
4.332284605e-01,3.43744e-04,9.99999e-01,9.99999e-01,9.99999e-01,3.43744e-04,9.99999e-01
4.353946028e-01,4.02396e-04,9.99999e-01,9.99999e-01,9.99999e-01,4.02396e-04,9.99999e-01
4.375715758e-01,4.69590e-04,9.99999e-01,9.99999e-01,9.99996e-01,4.69591e-04,9.99999e-01
4.397594337e-01,5.46326e-04,9.99999e-01,9.99999e-01,9.99976e-01,5.46338e-04,9.99999e-01
4.419582309e-01,6.33657e-04,9.99999e-01,9.99999e-01,9.99882e-01,6.33731e-04,9.99999e-01
4.441680220e-01,7.32883e-04,9.99999e-01,9.99999e-01,9.99906e-01,7.32951e-04,9.99999e-01
4.463888621e-01,8.45193e-04,9.99999e-01,9.99999e-01,9.99903e-01,8.45274e-04,9.99999e-01
4.486208064e-01,9.72010e-04,9.99999e-01,9.99999e-01,9.99939e-01,9.72069e-04,9.99999e-01
4.508639105e-01,1.11477e-03,9.99999e-01,9.99999e-01,9.99971e-01,1.11480e-03,9.99999e-01
4.531182300e-01,1.27502e-03,9.99999e-01,9.99999e-01,9.99988e-01,1.27504e-03,9.99999e-01
4.553838212e-01,1.45443e-03,9.99999e-01,9.99999e-01,9.99991e-01,1.45444e-03,9.99999e-01
4.576607403e-01,1.65477e-03,9.99999e-01,9.99999e-01,9.99996e-01,1.65478e-03,9.99999e-01
4.599490440e-01,1.87791e-03,9.99999e-01,9.99999e-01,9.99997e-01,1.87792e-03,9.99999e-01
4.622487892e-01,2.12583e-03,9.99999e-01,9.99999e-01,9.99999e-01,2.12583e-03,9.99999e-01
4.645600332e-01,2.40057e-03,9.99999e-01,9.99999e-01,9.99997e-01,2.40058e-03,9.99999e-01
4.668828333e-01,2.70426e-03,9.99999e-01,9.99999e-01,9.99971e-01,2.70434e-03,9.99999e-01
4.692172475e-01,3.03919e-03,9.99999e-01,9.99999e-01,9.99939e-01,3.03938e-03,9.99999e-01
4.715633337e-01,3.40791e-03,9.99999e-01,9.99999e-01,9.99960e-01,3.40805e-03,9.99999e-01
4.739211504e-01,3.81266e-03,9.99999e-01,9.99999e-01,9.99961e-01,3.81281e-03,9.99999e-01
4.762907561e-01,4.25611e-03,9.99999e-01,9.99999e-01,9.99979e-01,4.25619e-03,9.99999e-01
4.786722099e-01,4.74079e-03,9.99999e-01,9.99999e-01,9.99991e-01,4.74082e-03,9.99999e-01
4.810655710e-01,5.26939e-03,9.99999e-01,9.99999e-01,9.99997e-01,5.26940e-03,9.99999e-01
4.834708988e-01,5.84457e-03,9.99999e-01,9.99999e-01,9.99976e-01,5.84470e-03,9.99999e-01
4.858882533e-01,6.46927e-03,9.99999e-01,9.99999e-01,9.99956e-01,6.46955e-03,9.99999e-01
4.883176946e-01,7.14660e-03,9.99999e-01,9.99999e-01,9.99963e-01,7.14685e-03,9.99999e-01
4.907592831e-01,7.87929e-03,9.99999e-01,9.99999e-01,9.99967e-01,7.87955e-03,9.99999e-01
4.932130795e-01,8.67043e-03,9.99999e-01,9.99999e-01,9.99976e-01,8.67063e-03,9.99999e-01
4.956791449e-01,9.52301e-03,9.99999e-01,9.99999e-01,9.99987e-01,9.52312e-03,9.99999e-01
4.981575406e-01,1.04394e-02,9.99999e-01,9.99999e-01,9.99939e-01,1.04401e-02,9.99999e-01
5.006483283e-01,1.14228e-02,9.99999e-01,9.99999e-01,9.99843e-01,1.14245e-02,9.99999e-01
5.031515699e-01,1.24697e-02,9.99999e-01,9.99999e-01,9.99202e-01,1.24796e-02,9.99999e-01
5.056673278e-01,1.36026e-02,9.99999e-01,9.99999e-01,9.99577e-01,1.36084e-02,9.99999e-01
5.081956644e-01,1.48060e-02,9.99999e-01,9.99999e-01,9.99466e-01,1.48139e-02,9.99999e-01
5.107366428e-01,1.60933e-02,9.99999e-01,9.99999e-01,9.99639e-01,1.60991e-02,9.99999e-01
5.132903260e-01,1.74635e-02,9.99999e-01,9.99999e-01,9.99793e-01,1.74671e-02,9.99999e-01
5.158567776e-01,1.89193e-02,9.99999e-01,9.99999e-01,9.99912e-01,1.89209e-02,9.99999e-01
5.184360615e-01,2.04627e-02,9.99999e-01,9.99999e-01,9.99964e-01,2.04634e-02,9.99999e-01
5.210282418e-01,2.20970e-02,9.99999e-01,9.99999e-01,9.99986e-01,2.20973e-02,9.99999e-01
5.236333830e-01,2.38243e-02,9.99999e-01,9.99999e-01,9.99947e-01,2.38255e-02,9.99999e-01
5.262515499e-01,2.56499e-02,9.99999e-01,9.99999e-01,9.99966e-01,2.56508e-02,9.99999e-01
5.288828077e-01,2.75748e-02,9.99999e-01,9.99999e-01,9.99969e-01,2.75756e-02,9.99999e-01
5.315272217e-01,2.96017e-02,9.99999e-01,9.99999e-01,9.99973e-01,2.96025e-02,9.99999e-01
5.341848578e-01,3.17333e-02,9.99999e-01,9.99999e-01,9.99982e-01,3.17339e-02,9.99999e-01
5.368557821e-01,3.39700e-02,9.99999e-01,9.99999e-01,9.99939e-01,3.39720e-02,9.99999e-01
5.395400610e-01,3.63113e-02,9.99999e-01,9.99999e-01,9.99783e-01,3.63191e-02,9.99999e-01
5.422377613e-01,3.87662e-02,9.99999e-01,9.99999e-01,9.99715e-01,3.87772e-02,9.99999e-01
5.449489501e-01,4.13373e-02,9.99999e-01,9.99999e-01,9.99738e-01,4.13481e-02,9.99999e-01
5.476736949e-01,4.40233e-02,9.99999e-01,9.99999e-01,9.99765e-01,4.40336e-02,9.99999e-01
5.504120634e-01,4.68273e-02,9.99999e-01,9.99999e-01,9.99829e-01,4.68352e-02,9.99999e-01
5.531641237e-01,4.97502e-02,9.99999e-01,9.99999e-01,9.99914e-01,4.97545e-02,9.99999e-01
5.559299443e-01,5.27904e-02,9.99999e-01,9.99999e-01,9.99958e-01,5.27926e-02,9.99999e-01
5.587095940e-01,5.59492e-02,9.99999e-01,9.99999e-01,9.99973e-01,5.59507e-02,9.99999e-01
5.615031420e-01,5.92280e-02,9.99999e-01,9.99999e-01,9.99970e-01,5.92297e-02,9.99999e-01
5.643106577e-01,6.26283e-02,9.99999e-01,9.99999e-01,9.99967e-01,6.26303e-02,9.99999e-01
5.671322110e-01,6.61277e-02,9.99999e-01,9.99999e-01,9.99613e-01,6.61532e-02,9.99999e-01
5.699678720e-01,6.97692e-02,9.99999e-01,9.99999e-01,9.99575e-01,6.97988e-02,9.99999e-01
5.728177114e-01,7.35352e-02,9.99999e-01,9.99999e-01,9.99563e-01,7.35673e-02,9.99999e-01
5.756818000e-01,7.74277e-02,9.99999e-01,9.99999e-01,9.99598e-01,7.74588e-02,9.99999e-01
5.785602090e-01,8.14446e-02,9.99999e-01,9.99999e-01,9.99648e-01,8.14731e-02,9.99999e-01
5.814530100e-01,8.55799e-02,9.99999e-01,9.99999e-01,9.99648e-01,8.56100e-02,9.99999e-01
5.843602750e-01,8.98317e-02,9.99999e-01,9.99999e-01,9.99584e-01,8.98690e-02,9.99999e-01
5.872820764e-01,9.39120e-02,9.99999e-01,9.99999e-01,9.96419e-01,9.42494e-02,9.99999e-01
5.902184868e-01,9.83178e-02,9.99999e-01,9.99999e-01,9.95618e-01,9.87505e-02,9.99999e-01
5.931695792e-01,1.03052e-01,9.99999e-01,9.99999e-01,9.96913e-01,1.03371e-01,9.99999e-01
5.961354271e-01,1.07744e-01,9.99999e-01,9.99999e-01,9.96608e-01,1.08110e-01,9.99999e-01
5.991161043e-01,1.12687e-01,9.99999e-01,9.99999e-01,9.97522e-01,1.12967e-01,9.99999e-01
6.021116848e-01,1.17773e-01,9.99999e-01,9.99999e-01,9.98591e-01,1.17939e-01,9.99999e-01
6.051222432e-01,1.22938e-01,9.99999e-01,9.99999e-01,9.99286e-01,1.23025e-01,9.99999e-01
6.081478544e-01,1.28185e-01,9.99999e-01,9.99999e-01,9.99692e-01,1.28224e-01,9.99999e-01
6.111885937e-01,1.33516e-01,9.99999e-01,9.99999e-01,9.99869e-01,1.33533e-01,9.99999e-01
6.142445367e-01,1.38943e-01,9.99999e-01,9.99999e-01,9.99941e-01,1.38951e-01,9.99999e-01
6.173157594e-01,1.44470e-01,9.99999e-01,9.99999e-01,9.99967e-01,1.44475e-01,9.99999e-01
6.204023382e-01,1.50098e-01,9.99999e-01,9.99999e-01,9.99972e-01,1.50102e-01,9.99999e-01
6.235043498e-01,1.55814e-01,9.99999e-01,9.99999e-01,9.99883e-01,1.55832e-01,9.99999e-01
6.266218716e-01,1.61559e-01,9.99999e-01,9.99999e-01,9.99370e-01,1.61660e-01,9.99999e-01
6.297549810e-01,1.67546e-01,9.99999e-01,9.99999e-01,9.99769e-01,1.67585e-01,9.99999e-01
6.329037559e-01,1.73524e-01,9.99999e-01,9.99999e-01,9.99542e-01,1.73604e-01,9.99999e-01
6.360682746e-01,1.79643e-01,9.99999e-01,9.99999e-01,9.99612e-01,1.79713e-01,9.99999e-01
6.392486160e-01,1.85817e-01,9.99999e-01,9.99999e-01,9.99496e-01,1.85910e-01,9.99999e-01
6.424448591e-01,1.92076e-01,9.99999e-01,9.99999e-01,9.99396e-01,1.92192e-01,9.99999e-01
6.456570834e-01,1.97946e-01,9.99999e-01,9.99999e-01,9.96925e-01,1.98556e-01,9.99999e-01
6.488853688e-01,2.04446e-01,9.99999e-01,9.99999e-01,9.97301e-01,2.04999e-01,9.99999e-01
6.521297956e-01,2.11023e-01,9.99999e-01,9.99999e-01,9.97659e-01,2.11518e-01,9.99999e-01
6.553904446e-01,2.17605e-01,9.99999e-01,9.99999e-01,9.97690e-01,2.18109e-01,9.99999e-01
6.586673968e-01,2.24320e-01,9.99999e-01,9.99999e-01,9.98002e-01,2.24769e-01,9.99999e-01
6.619607338e-01,2.31227e-01,9.99999e-01,9.99999e-01,9.98845e-01,2.31495e-01,9.99999e-01
6.652705375e-01,2.38123e-01,9.99999e-01,9.99999e-01,9.99329e-01,2.38283e-01,9.99999e-01
6.685968902e-01,2.45054e-01,9.99999e-01,9.99999e-01,9.99688e-01,2.45130e-01,9.99999e-01
6.719398746e-01,2.51997e-01,9.99999e-01,9.99999e-01,9.99855e-01,2.52033e-01,9.99999e-01
6.752995740e-01,2.58968e-01,9.99999e-01,9.99999e-01,9.99921e-01,2.58988e-01,9.99999e-01
6.786760719e-01,2.65963e-01,9.99999e-01,9.99999e-01,9.99888e-01,2.65993e-01,9.99999e-01
6.820694522e-01,2.72990e-01,9.99999e-01,9.99999e-01,9.99808e-01,2.73042e-01,9.99999e-01
6.854797995e-01,2.80065e-01,9.99999e-01,9.99999e-01,9.99752e-01,2.80134e-01,9.99999e-01
6.889071985e-01,2.87095e-01,9.99999e-01,9.99999e-01,9.99412e-01,2.87264e-01,9.99999e-01
6.923517345e-01,2.91576e-01,9.99999e-01,9.99999e-01,9.90308e-01,2.94430e-01,9.99999e-01
6.958134932e-01,3.00071e-01,9.99999e-01,9.99999e-01,9.94839e-01,3.01627e-01,9.99999e-01
6.992925606e-01,3.07372e-01,9.99999e-01,9.99999e-01,9.95201e-01,3.08853e-01,9.99999e-01
7.027890234e-01,3.14216e-01,9.99999e-01,9.99999e-01,9.94025e-01,3.16105e-01,9.99999e-01
7.063029686e-01,3.21755e-01,9.99999e-01,9.99999e-01,9.94980e-01,3.23378e-01,9.99999e-01
7.098344834e-01,3.29078e-01,9.99999e-01,9.99999e-01,9.95183e-01,3.30670e-01,9.99999e-01
7.133836558e-01,3.35841e-01,9.99999e-01,9.99999e-01,9.93676e-01,3.37978e-01,9.99999e-01
7.169505741e-01,3.27965e-01,9.99999e-01,9.99999e-01,9.49804e-01,3.45298e-01,9.99998e-01
7.205353270e-01,3.43677e-01,9.99999e-01,9.99999e-01,9.74619e-01,3.52627e-01,9.99998e-01
7.241380036e-01,3.48593e-01,9.99999e-01,9.99999e-01,9.68413e-01,3.59962e-01,9.99998e-01
7.277586936e-01,3.56805e-01,9.99999e-01,9.99999e-01,9.71423e-01,3.67301e-01,9.99998e-01
7.313974871e-01,3.63188e-01,9.99999e-01,9.99999e-01,9.69431e-01,3.74640e-01,9.99999e-01
7.350544745e-01,3.75570e-01,9.99999e-01,9.99999e-01,9.83228e-01,3.81976e-01,9.99999e-01
7.387297469e-01,3.84489e-01,9.99999e-01,9.99999e-01,9.87624e-01,3.89307e-01,9.99999e-01
7.424233956e-01,3.94215e-01,9.99999e-01,9.99999e-01,9.93911e-01,3.96629e-01,9.99999e-01
7.461355126e-01,4.02452e-01,9.99999e-01,9.99999e-01,9.96314e-01,4.03941e-01,9.99999e-01
7.498661902e-01,4.10531e-01,9.99999e-01,9.99999e-01,9.98277e-01,4.11239e-01,9.99999e-01
7.536155211e-01,4.18168e-01,9.99999e-01,9.99999e-01,9.99157e-01,4.18520e-01,9.99999e-01
7.573835987e-01,4.25599e-01,9.99999e-01,9.99999e-01,9.99565e-01,4.25783e-01,9.99999e-01
7.611705167e-01,4.32908e-01,9.99999e-01,9.99999e-01,9.99730e-01,4.33025e-01,9.99999e-01
7.649763693e-01,4.40169e-01,9.99999e-01,9.99999e-01,9.99831e-01,4.40243e-01,9.99999e-01
7.688012511e-01,4.47383e-01,9.99999e-01,9.99999e-01,9.99882e-01,4.47436e-01,9.99999e-01
7.726452574e-01,4.54556e-01,9.99999e-01,9.99999e-01,9.99903e-01,4.54600e-01,9.99999e-01
7.765084837e-01,4.61672e-01,9.99999e-01,9.99999e-01,9.99863e-01,4.61734e-01,9.99999e-01
7.803910261e-01,4.52693e-01,9.99999e-01,9.66113e-01,9.99413e-01,4.68836e-01,9.99999e-01
7.842929812e-01,4.04457e-01,9.99999e-01,8.51521e-01,9.97955e-01,4.75904e-01,9.99999e-01
7.882144461e-01,4.05450e-01,9.99999e-01,8.42985e-01,9.95751e-01,4.82936e-01,9.99999e-01
7.921555184e-01,4.42422e-01,9.99999e-01,9.05102e-01,9.97655e-01,4.89929e-01,9.99999e-01
7.961162960e-01,4.62650e-01,9.99999e-01,9.34890e-01,9.95908e-01,4.96883e-01,9.99999e-01
8.000968774e-01,4.83471e-01,9.99999e-01,9.64228e-01,9.95246e-01,5.03795e-01,9.99999e-01
8.040973618e-01,4.98701e-01,9.99999e-01,9.81222e-01,9.95251e-01,5.10663e-01,9.99999e-01
8.081178486e-01,5.07596e-01,9.99999e-01,9.91378e-01,9.89398e-01,5.17487e-01,9.99999e-01
8.121584379e-01,5.00064e-01,9.99999e-01,9.97304e-01,9.56388e-01,5.24265e-01,9.99998e-01
8.162192301e-01,5.03015e-01,9.99999e-01,9.99403e-01,9.47861e-01,5.30995e-01,9.99998e-01
8.203003262e-01,5.23784e-01,9.99999e-01,9.99989e-01,9.74171e-01,5.37676e-01,9.99998e-01
8.244018279e-01,5.24204e-01,9.99999e-01,9.99999e-01,9.63068e-01,5.44307e-01,9.99998e-01
8.285238370e-01,5.33693e-01,9.99999e-01,9.99999e-01,9.68791e-01,5.50885e-01,9.99998e-01
8.326664562e-01,5.39747e-01,9.99999e-01,9.99999e-01,9.68309e-01,5.57412e-01,9.99999e-01
8.368297885e-01,5.51044e-01,9.99999e-01,9.99999e-01,9.77230e-01,5.63884e-01,9.99999e-01
8.410139374e-01,5.62549e-01,9.99999e-01,9.99999e-01,9.86407e-01,5.70301e-01,9.99999e-01
8.452190071e-01,5.72803e-01,9.99999e-01,9.99999e-01,9.93306e-01,5.76663e-01,9.99999e-01
8.494451021e-01,5.80710e-01,9.99999e-01,9.99999e-01,9.96128e-01,5.82967e-01,9.99999e-01
8.536923276e-01,5.87859e-01,9.99999e-01,9.99999e-01,9.97700e-01,5.89214e-01,9.99999e-01
8.579607893e-01,5.94563e-01,9.99999e-01,9.99999e-01,9.98588e-01,5.95403e-01,9.99999e-01
8.622505932e-01,6.00992e-01,9.99999e-01,9.99999e-01,9.99100e-01,6.01532e-01,9.99999e-01
8.665618462e-01,5.62209e-01,9.99999e-01,9.25783e-01,9.99445e-01,6.07602e-01,9.99999e-01
8.708946554e-01,4.08876e-01,9.99999e-01,6.66748e-01,9.99367e-01,6.13611e-01,9.99999e-01
8.752491287e-01,4.45743e-01,9.99999e-01,7.20042e-01,9.99152e-01,6.19559e-01,9.99999e-01
8.796253743e-01,5.21373e-01,9.99999e-01,8.34546e-01,9.98830e-01,6.25446e-01,9.99999e-01
8.840235012e-01,5.74011e-01,9.99999e-01,9.10492e-01,9.98662e-01,6.31270e-01,9.99999e-01
8.884436187e-01,6.10905e-01,9.99999e-01,9.63540e-01,9.95225e-01,6.37033e-01,9.99999e-01
8.928858368e-01,6.01614e-01,9.99999e-01,9.85120e-01,9.50037e-01,6.42732e-01,9.99998e-01
8.973502660e-01,5.89455e-01,9.99999e-01,9.96339e-01,9.12404e-01,6.48368e-01,9.99998e-01
9.018370173e-01,6.23565e-01,9.99999e-01,9.99594e-01,9.53923e-01,6.53941e-01,9.99998e-01
9.063462024e-01,6.27003e-01,9.99999e-01,9.90045e-01,9.60039e-01,6.59451e-01,9.99998e-01
9.108779334e-01,6.09321e-01,9.99999e-01,9.76668e-01,9.38021e-01,6.64896e-01,9.99997e-01
9.154323231e-01,6.19786e-01,9.99999e-01,9.94415e-01,9.29745e-01,6.70278e-01,9.99997e-01
9.200094847e-01,5.91536e-01,9.99999e-01,9.24228e-01,9.44392e-01,6.75596e-01,9.99997e-01
9.246095321e-01,5.57013e-01,9.99999e-01,8.91004e-01,9.16254e-01,6.80849e-01,9.99995e-01
9.292325798e-01,3.50903e-01,9.99999e-01,9.14521e-01,5.53923e-01,6.86039e-01,9.99991e-01
9.338787427e-01,2.96224e-01,9.99999e-01,9.16347e-01,4.63193e-01,6.91164e-01,9.99988e-01
9.385481364e-01,4.80327e-01,9.99999e-01,9.37826e-01,7.32764e-01,6.96225e-01,9.99988e-01
9.432408771e-01,4.40984e-01,9.99999e-01,9.61310e-01,6.52724e-01,7.01223e-01,9.99986e-01
9.479570815e-01,3.85409e-01,9.99999e-01,9.80031e-01,5.56289e-01,7.06156e-01,9.99988e-01
9.526968669e-01,4.51530e-01,9.99999e-01,9.90303e-01,6.40679e-01,7.11025e-01,9.99991e-01
9.574603512e-01,4.72929e-01,9.99999e-01,9.95840e-01,6.63242e-01,7.15831e-01,9.99993e-01
9.622476530e-01,5.14504e-01,9.99999e-01,9.98699e-01,7.14893e-01,7.20574e-01,9.99995e-01
9.670588912e-01,5.97606e-01,9.99999e-01,9.99608e-01,8.24303e-01,7.25253e-01,9.99996e-01
9.718941857e-01,6.46841e-01,9.99999e-01,9.99971e-01,8.86265e-01,7.29870e-01,9.99997e-01
9.767536566e-01,6.64411e-01,9.99999e-01,9.99999e-01,9.04669e-01,7.34424e-01,9.99998e-01
9.816374249e-01,6.85901e-01,9.99999e-01,9.99999e-01,9.28254e-01,7.38915e-01,9.99998e-01
9.865456120e-01,7.09550e-01,9.99999e-01,9.99999e-01,9.54537e-01,7.43345e-01,9.99999e-01
9.914783401e-01,7.26532e-01,9.99999e-01,9.99999e-01,9.71672e-01,7.47712e-01,9.99999e-01
9.964357318e-01,7.40340e-01,9.99999e-01,9.99999e-01,9.84469e-01,7.52018e-01,9.99999e-01
1.001417910e+00,7.49202e-01,9.99999e-01,9.99999e-01,9.90662e-01,7.56264e-01,9.99999e-01
1.006425000e+00,7.56403e-01,9.99999e-01,9.99999e-01,9.94679e-01,7.60448e-01,9.99999e-01
1.011457125e+00,7.62039e-01,9.99999e-01,9.99999e-01,9.96684e-01,7.64573e-01,9.99999e-01
1.016514411e+00,7.66911e-01,9.99999e-01,9.99999e-01,9.97752e-01,7.68638e-01,9.99999e-01
1.021596983e+00,7.71224e-01,9.99999e-01,9.99952e-01,9.98210e-01,7.72643e-01,9.99999e-01
1.026704968e+00,7.72500e-01,9.99999e-01,9.96120e-01,9.98604e-01,7.76590e-01,9.99999e-01
1.031838492e+00,7.46599e-01,9.99999e-01,9.57537e-01,9.98983e-01,7.80478e-01,9.99999e-01
1.036997685e+00,1.15213e-01,9.99999e-01,1.46967e-01,9.99397e-01,7.84308e-01,9.99999e-01
1.042182673e+00,8.35453e-02,9.99999e-01,1.06078e-01,9.99284e-01,7.88081e-01,9.99999e-01
1.047393587e+00,1.04149e-01,9.99999e-01,1.31646e-01,9.99049e-01,7.91797e-01,9.99999e-01
1.052630555e+00,2.40990e-03,9.99999e-01,3.03246e-03,9.98697e-01,7.95457e-01,9.99999e-01
1.057893707e+00,6.18844e-03,9.99999e-01,7.75579e-03,9.97829e-01,7.99060e-01,9.99999e-01
1.063183176e+00,2.21782e-02,9.99999e-01,2.77026e-02,9.96426e-01,8.02609e-01,9.99999e-01
1.068499092e+00,6.60798e-02,9.99999e-01,8.23856e-02,9.94012e-01,8.06102e-01,9.99999e-01
1.073841587e+00,1.65180e-01,9.99999e-01,2.05252e-01,9.93010e-01,8.09542e-01,9.99999e-01
1.079210795e+00,2.95862e-01,9.99999e-01,3.66934e-01,9.91017e-01,8.12927e-01,9.99999e-01
1.084606849e+00,4.63252e-01,9.99999e-01,5.74935e-01,9.86457e-01,8.16260e-01,9.99999e-01
1.090029883e+00,6.03473e-01,9.99999e-01,7.50412e-01,9.80720e-01,8.19540e-01,9.99998e-01
1.095480033e+00,6.77493e-01,9.99999e-01,8.67869e-01,9.48218e-01,8.22768e-01,9.99998e-01
1.100957433e+00,6.74493e-01,9.99999e-01,9.34008e-01,8.73684e-01,8.25944e-01,9.99997e-01
1.106462220e+00,5.73384e-01,9.99999e-01,9.72128e-01,7.10685e-01,8.29070e-01,9.99994e-01
1.111994531e+00,4.01273e-01,9.99999e-01,9.89578e-01,4.86919e-01,8.32145e-01,9.99989e-01
1.117554504e+00,2.60950e-01,9.99999e-01,9.97432e-01,3.13103e-01,8.35171e-01,9.99985e-01
1.123142276e+00,3.58624e-01,9.99999e-01,9.99829e-01,4.27917e-01,8.38147e-01,9.99982e-01
1.128757988e+00,4.87077e-01,9.99999e-01,9.99999e-01,5.79123e-01,8.41076e-01,9.99981e-01
1.134401778e+00,2.68503e-01,9.99999e-01,9.99999e-01,3.18154e-01,8.43956e-01,9.99978e-01
1.140073787e+00,6.10296e-01,9.99999e-01,9.99999e-01,7.20730e-01,8.46789e-01,9.99982e-01
1.145774156e+00,4.30099e-01,9.99999e-01,9.99999e-01,5.06258e-01,8.49575e-01,9.99985e-01
1.151503026e+00,4.00487e-01,9.99999e-01,9.99999e-01,4.69887e-01,8.52315e-01,9.99987e-01
1.157260541e+00,4.52339e-01,9.99999e-01,9.99999e-01,5.29050e-01,8.55010e-01,9.99990e-01
1.163046844e+00,5.34730e-01,9.99999e-01,9.99999e-01,6.23479e-01,8.57659e-01,9.99993e-01
1.168862078e+00,6.18913e-01,9.99999e-01,9.99999e-01,7.19446e-01,8.60264e-01,9.99996e-01
1.174706389e+00,7.04196e-01,9.99999e-01,9.99999e-01,8.16152e-01,8.62826e-01,9.99998e-01
1.180579921e+00,7.64547e-01,9.99999e-01,9.99999e-01,8.83519e-01,8.65344e-01,9.99998e-01
1.186482820e+00,8.09210e-01,9.99999e-01,9.99994e-01,9.32468e-01,8.67819e-01,9.99998e-01
1.192415234e+00,8.24203e-01,9.99999e-01,9.86324e-01,9.60057e-01,8.70253e-01,9.99998e-01
1.198377311e+00,4.75669e-01,9.99999e-01,5.60945e-01,9.66299e-01,8.72645e-01,9.99998e-01
1.204369197e+00,8.99263e-12,9.99999e-01,1.04718e-11,9.68051e-01,8.74996e-01,9.99999e-01
1.210391043e+00,3.90829e-43,9.99999e-01,4.53229e-43,9.69417e-01,8.77307e-01,9.99999e-01
1.216442998e+00,1.58566e-37,9.99999e-01,1.83243e-37,9.73863e-01,8.79579e-01,9.99999e-01
1.222525213e+00,5.54802e-37,9.99999e-01,6.35853e-37,9.79613e-01,8.81811e-01,9.99999e-01
1.228637839e+00,1.20364e-28,9.99999e-01,1.37508e-28,9.85813e-01,8.84004e-01,9.99999e-01
