#,Wave/freq,Total,O2,CO2,H2O,Rayleigh,CIA
4.000000000e-01,1.25079e-02,9.99999e-01,9.99999e-01,9.99990e-01,1.25080e-02,9.99999e-01
4.020000000e-01,1.36399e-02,9.99999e-01,9.99999e-01,9.99994e-01,1.36400e-02,9.99999e-01
4.040100000e-01,1.48475e-02,9.99999e-01,9.99999e-01,9.99997e-01,1.48476e-02,9.99999e-01
4.060300500e-01,1.61350e-02,9.99999e-01,9.99999e-01,9.99998e-01,1.61350e-02,9.99999e-01
4.080602003e-01,1.75053e-02,9.99999e-01,9.99999e-01,9.99999e-01,1.75053e-02,9.99999e-01
4.101005013e-01,1.89615e-02,9.99999e-01,9.99999e-01,9.99999e-01,1.89615e-02,9.99999e-01
4.121510038e-01,2.05063e-02,9.99999e-01,9.99999e-01,9.99999e-01,2.05063e-02,9.99999e-01
4.142117588e-01,2.21428e-02,9.99999e-01,9.99999e-01,9.99997e-01,2.21428e-02,9.99999e-01
4.162828176e-01,2.38734e-02,9.99999e-01,9.99999e-01,9.99988e-01,2.38736e-02,9.99999e-01
4.183642317e-01,2.57013e-02,9.99999e-01,9.99999e-01,9.99993e-01,2.57015e-02,9.99999e-01
4.204560528e-01,2.76289e-02,9.99999e-01,9.99999e-01,9.99995e-01,2.76290e-02,9.99999e-01
4.225583331e-01,2.96587e-02,9.99999e-01,9.99999e-01,9.99998e-01,2.96587e-02,9.99999e-01
4.246711247e-01,3.17930e-02,9.99999e-01,9.99999e-01,9.99998e-01,3.17930e-02,9.99999e-01
4.267944804e-01,3.40340e-02,9.99999e-01,9.99999e-01,9.99997e-01,3.40341e-02,9.99999e-01
4.289284528e-01,3.63841e-02,9.99999e-01,9.99999e-01,9.99998e-01,3.63842e-02,9.99999e-01
4.310730950e-01,3.88452e-02,9.99999e-01,9.99999e-01,9.99998e-01,3.88452e-02,9.99999e-01
4.332284605e-01,4.14192e-02,9.99999e-01,9.99999e-01,9.99999e-01,4.14192e-02,9.99999e-01
4.353946028e-01,4.41078e-02,9.99999e-01,9.99999e-01,9.99999e-01,4.41078e-02,9.99999e-01
4.375715758e-01,4.69126e-02,9.99999e-01,9.99999e-01,9.99998e-01,4.69126e-02,9.99999e-01
4.397594337e-01,4.98346e-02,9.99999e-01,9.99999e-01,9.99990e-01,4.98351e-02,9.99999e-01
4.419582309e-01,5.28740e-02,9.99999e-01,9.99999e-01,9.99953e-01,5.28764e-02,9.99999e-01
4.441680220e-01,5.60357e-02,9.99999e-01,9.99999e-01,9.99962e-01,5.60378e-02,9.99999e-01
4.463888621e-01,5.93177e-02,9.99999e-01,9.99999e-01,9.99961e-01,5.93200e-02,9.99999e-01
4.486208064e-01,6.27225e-02,9.99999e-01,9.99999e-01,9.99975e-01,6.27240e-02,9.99999e-01
4.508639105e-01,6.62495e-02,9.99999e-01,9.99999e-01,9.99988e-01,6.62502e-02,9.99999e-01
4.531182300e-01,6.98988e-02,9.99999e-01,9.99999e-01,9.99995e-01,6.98991e-02,9.99999e-01
4.553838212e-01,7.36707e-02,9.99999e-01,9.99999e-01,9.99996e-01,7.36710e-02,9.99999e-01
4.576607403e-01,7.75656e-02,9.99999e-01,9.99999e-01,9.99998e-01,7.75658e-02,9.99999e-01
4.599490440e-01,8.15833e-02,9.99999e-01,9.99999e-01,9.99998e-01,8.15834e-02,9.99999e-01
4.622487892e-01,8.57236e-02,9.99999e-01,9.99999e-01,9.99999e-01,8.57236e-02,9.99999e-01
4.645600332e-01,8.99858e-02,9.99999e-01,9.99999e-01,9.99998e-01,8.99859e-02,9.99999e-01
4.668828333e-01,9.43685e-02,9.99999e-01,9.99999e-01,9.99988e-01,9.43695e-02,9.99999e-01
4.692172475e-01,9.88715e-02,9.99999e-01,9.99999e-01,9.99975e-01,9.88739e-02,9.99999e-01
4.715633337e-01,1.03496e-01,9.99999e-01,9.99999e-01,9.99983e-01,1.03498e-01,9.99999e-01
4.739211504e-01,1.08239e-01,9.99999e-01,9.99999e-01,9.99984e-01,1.08240e-01,9.99999e-01
4.762907561e-01,1.13099e-01,9.99999e-01,9.99999e-01,9.99991e-01,1.13100e-01,9.99999e-01
4.786722099e-01,1.18075e-01,9.99999e-01,9.99999e-01,9.99996e-01,1.18075e-01,9.99999e-01
4.810655710e-01,1.23164e-01,9.99999e-01,9.99999e-01,9.99998e-01,1.23164e-01,9.99999e-01
4.834708988e-01,1.28365e-01,9.99999e-01,9.99999e-01,9.99990e-01,1.28366e-01,9.99999e-01
4.858882533e-01,1.33676e-01,9.99999e-01,9.99999e-01,9.99982e-01,1.33678e-01,9.99999e-01
4.883176946e-01,1.39097e-01,9.99999e-01,9.99999e-01,9.99985e-01,1.39099e-01,9.99999e-01
4.907592831e-01,1.44624e-01,9.99999e-01,9.99999e-01,9.99986e-01,1.44625e-01,9.99999e-01
4.932130795e-01,1.50255e-01,9.99999e-01,9.99999e-01,9.99990e-01,1.50256e-01,9.99999e-01
4.956791449e-01,1.55987e-01,9.99999e-01,9.99999e-01,9.99994e-01,1.55988e-01,9.99999e-01
4.981575406e-01,1.61815e-01,9.99999e-01,9.99999e-01,9.99975e-01,1.61819e-01,9.99999e-01
5.006483283e-01,1.67736e-01,9.99999e-01,9.99999e-01,9.99937e-01,1.67747e-01,9.99999e-01
5.031515699e-01,1.73712e-01,9.99999e-01,9.99999e-01,9.99681e-01,1.73768e-01,9.99999e-01
5.056673278e-01,1.79849e-01,9.99999e-01,9.99999e-01,9.99831e-01,1.79879e-01,9.99999e-01
5.081956644e-01,1.86039e-01,9.99999e-01,9.99999e-01,9.99786e-01,1.86079e-01,9.99999e-01
5.107366428e-01,1.92336e-01,9.99999e-01,9.99999e-01,9.99855e-01,1.92363e-01,9.99999e-01
5.132903260e-01,1.98713e-01,9.99999e-01,9.99999e-01,9.99917e-01,1.98730e-01,9.99999e-01
5.158567776e-01,2.05168e-01,9.99999e-01,9.99999e-01,9.99964e-01,2.05175e-01,9.99999e-01
5.184360615e-01,2.11692e-01,9.99999e-01,9.99999e-01,9.99985e-01,2.11695e-01,9.99999e-01
5.210282418e-01,2.18287e-01,9.99999e-01,9.99999e-01,9.99994e-01,2.18288e-01,9.99999e-01
5.236333830e-01,2.24945e-01,9.99999e-01,9.99999e-01,9.99978e-01,2.24950e-01,9.99999e-01
5.262515499e-01,2.31674e-01,9.99999e-01,9.99999e-01,9.99986e-01,2.31677e-01,9.99999e-01
5.288828077e-01,2.38464e-01,9.99999e-01,9.99999e-01,9.99987e-01,2.38467e-01,9.99999e-01
5.315272217e-01,2.45314e-01,9.99999e-01,9.99999e-01,9.99988e-01,2.45316e-01,9.99999e-01
5.341848578e-01,2.52219e-01,9.99999e-01,9.99999e-01,9.99992e-01,2.52221e-01,9.99999e-01
5.368557821e-01,2.59171e-01,9.99999e-01,9.99999e-01,9.99975e-01,2.59177e-01,9.99999e-01
5.395400610e-01,2.66160e-01,9.99999e-01,9.99999e-01,9.99913e-01,2.66183e-01,9.99999e-01
5.422377613e-01,2.73203e-01,9.99999e-01,9.99999e-01,9.99886e-01,2.73233e-01,9.99999e-01
5.449489501e-01,2.80297e-01,9.99999e-01,9.99999e-01,9.99895e-01,2.80326e-01,9.99999e-01
5.476736949e-01,2.87431e-01,9.99999e-01,9.99999e-01,9.99906e-01,2.87458e-01,9.99999e-01
5.504120634e-01,2.94604e-01,9.99999e-01,9.99999e-01,9.99931e-01,2.94624e-01,9.99999e-01
5.531641237e-01,3.01812e-01,9.99999e-01,9.99999e-01,9.99965e-01,3.01822e-01,9.99999e-01
5.559299443e-01,3.09044e-01,9.99999e-01,9.99999e-01,9.99983e-01,3.09049e-01,9.99999e-01
5.587095940e-01,3.16298e-01,9.99999e-01,9.99999e-01,9.99989e-01,3.16301e-01,9.99999e-01
5.615031420e-01,3.23571e-01,9.99999e-01,9.99999e-01,9.99988e-01,3.23575e-01,9.99999e-01
5.643106577e-01,3.30863e-01,9.99999e-01,9.99999e-01,9.99986e-01,3.30868e-01,9.99999e-01
5.671322110e-01,3.38124e-01,9.99999e-01,9.99999e-01,9.99845e-01,3.38176e-01,9.99999e-01
5.699678720e-01,3.45437e-01,9.99999e-01,9.99999e-01,9.99830e-01,3.45496e-01,9.99999e-01
5.728177114e-01,3.52764e-01,9.99999e-01,9.99999e-01,9.99825e-01,3.52825e-01,9.99999e-01
5.756818000e-01,3.60103e-01,9.99999e-01,9.99999e-01,9.99839e-01,3.60161e-01,9.99999e-01
5.785602090e-01,3.67448e-01,9.99999e-01,9.99999e-01,9.99859e-01,3.67500e-01,9.99999e-01
5.814530100e-01,3.74786e-01,9.99999e-01,9.99999e-01,9.99859e-01,3.74838e-01,9.99999e-01
5.843602750e-01,3.82111e-01,9.99999e-01,9.99999e-01,9.99834e-01,3.82175e-01,9.99999e-01
5.872820764e-01,3.88948e-01,9.99999e-01,9.99999e-01,9.98568e-01,3.89505e-01,9.99999e-01
5.902184868e-01,3.96132e-01,9.99999e-01,9.99999e-01,9.98247e-01,3.96827e-01,9.99999e-01
5.931695792e-01,4.03640e-01,9.99999e-01,9.99999e-01,9.98766e-01,4.04138e-01,9.99999e-01
5.961354271e-01,4.10878e-01,9.99999e-01,9.99999e-01,9.98644e-01,4.11436e-01,9.99999e-01
5.991161043e-01,4.18303e-01,9.99999e-01,9.99999e-01,9.99009e-01,4.18717e-01,9.99999e-01
6.021116848e-01,4.25740e-01,9.99999e-01,9.99999e-01,9.99437e-01,4.25979e-01,9.99999e-01
6.051222432e-01,4.33097e-01,9.99999e-01,9.99999e-01,9.99714e-01,4.33221e-01,9.99999e-01
6.081478544e-01,4.40384e-01,9.99999e-01,9.99999e-01,9.99876e-01,4.40438e-01,9.99999e-01
6.111885937e-01,4.47607e-01,9.99999e-01,9.99999e-01,9.99947e-01,4.47630e-01,9.99999e-01
6.142445367e-01,4.54783e-01,9.99999e-01,9.99999e-01,9.99976e-01,4.54794e-01,9.99999e-01
6.173157594e-01,4.61921e-01,9.99999e-01,9.99999e-01,9.99986e-01,4.61927e-01,9.99999e-01
6.204023382e-01,4.69023e-01,9.99999e-01,9.99999e-01,9.99988e-01,4.69028e-01,9.99999e-01
6.235043498e-01,4.76073e-01,9.99999e-01,9.99999e-01,9.99953e-01,4.76095e-01,9.99999e-01
6.266218716e-01,4.83004e-01,9.99999e-01,9.99999e-01,9.99748e-01,4.83125e-01,9.99999e-01
6.297549810e-01,4.90073e-01,9.99999e-01,9.99999e-01,9.99907e-01,4.90118e-01,9.99999e-01
6.329037559e-01,4.96979e-01,9.99999e-01,9.99999e-01,9.99816e-01,4.97070e-01,9.99999e-01
6.360682746e-01,5.03903e-01,9.99999e-01,9.99999e-01,9.99844e-01,5.03981e-01,9.99999e-01
6.392486160e-01,5.10746e-01,9.99999e-01,9.99999e-01,9.99798e-01,5.10849e-01,9.99999e-01
6.424448591e-01,5.17547e-01,9.99999e-01,9.99999e-01,9.99758e-01,5.17671e-01,9.99999e-01
6.456570834e-01,5.23804e-01,9.99999e-01,9.99999e-01,9.98772e-01,5.24448e-01,9.99999e-01
6.488853688e-01,5.30603e-01,9.99999e-01,9.99999e-01,9.98920e-01,5.31177e-01,9.99999e-01
6.521297956e-01,5.37353e-01,9.99999e-01,9.99999e-01,9.99064e-01,5.37856e-01,9.99999e-01
6.553904446e-01,5.43983e-01,9.99999e-01,9.99999e-01,9.99077e-01,5.44485e-01,9.99999e-01
6.586673968e-01,5.50623e-01,9.99999e-01,9.99999e-01,9.99201e-01,5.51063e-01,9.99999e-01
6.619607338e-01,5.57330e-01,9.99999e-01,9.99999e-01,9.99538e-01,5.57587e-01,9.99999e-01
6.652705375e-01,5.63907e-01,9.99999e-01,9.99999e-01,9.99731e-01,5.64058e-01,9.99999e-01
6.685968902e-01,5.70403e-01,9.99999e-01,9.99999e-01,9.99875e-01,5.70474e-01,9.99999e-01
6.719398746e-01,5.76801e-01,9.99999e-01,9.99999e-01,9.99941e-01,5.76834e-01,9.99999e-01
6.752995740e-01,5.83119e-01,9.99999e-01,9.99999e-01,9.99968e-01,5.83137e-01,9.99999e-01
6.786760719e-01,5.89356e-01,9.99999e-01,9.99999e-01,9.99955e-01,5.89382e-01,9.99999e-01
6.820694522e-01,5.95524e-01,9.99999e-01,9.99999e-01,9.99923e-01,5.95569e-01,9.99999e-01
6.854797995e-01,6.01638e-01,9.99999e-01,9.99999e-01,9.99901e-01,6.01697e-01,9.99999e-01
6.889071985e-01,6.07623e-01,9.99999e-01,9.99999e-01,9.99765e-01,6.07765e-01,9.99999e-01
6.923517345e-01,6.11390e-01,9.99999e-01,9.99999e-01,9.96117e-01,6.13773e-01,9.99999e-01
6.958134932e-01,6.18439e-01,9.99999e-01,9.99999e-01,9.97932e-01,6.19719e-01,9.99999e-01
6.992925606e-01,6.24404e-01,9.99999e-01,9.99999e-01,9.98081e-01,6.25604e-01,9.99999e-01
7.027890234e-01,6.29918e-01,9.99999e-01,9.99999e-01,9.97609e-01,6.31427e-01,9.99999e-01
7.063029686e-01,6.35909e-01,9.99999e-01,9.99999e-01,9.97992e-01,6.37188e-01,9.99999e-01
7.098344834e-01,6.41647e-01,9.99999e-01,9.99999e-01,9.98073e-01,6.42885e-01,9.99999e-01
7.133836558e-01,6.46880e-01,9.99999e-01,9.99999e-01,9.97470e-01,6.48520e-01,9.99999e-01
7.169505741e-01,6.40728e-01,9.99999e-01,9.99999e-01,9.79569e-01,6.54091e-01,9.99999e-01
7.205353270e-01,6.52836e-01,9.99999e-01,9.99999e-01,9.89747e-01,6.59599e-01,9.99999e-01
7.241380036e-01,6.56555e-01,9.99999e-01,9.99999e-01,9.87237e-01,6.65043e-01,9.99999e-01
7.277586936e-01,6.62688e-01,9.99999e-01,9.99999e-01,9.88462e-01,6.70423e-01,9.99999e-01
7.313974871e-01,6.67399e-01,9.99999e-01,9.99999e-01,9.87658e-01,6.75739e-01,9.99999e-01
7.350544745e-01,6.76402e-01,9.99999e-01,9.99999e-01,9.93261e-01,6.80990e-01,9.99999e-01
7.387297469e-01,6.82773e-01,9.99999e-01,9.99999e-01,9.95037e-01,6.86178e-01,9.99999e-01
7.424233956e-01,6.89618e-01,9.99999e-01,9.99999e-01,9.97563e-01,6.91302e-01,9.99999e-01
7.461355126e-01,6.95335e-01,9.99999e-01,9.99999e-01,9.98526e-01,6.96361e-01,9.99999e-01
7.498661902e-01,7.00874e-01,9.99999e-01,9.99999e-01,9.99311e-01,7.01357e-01,9.99999e-01
7.536155211e-01,7.06051e-01,9.99999e-01,9.99999e-01,9.99663e-01,7.06288e-01,9.99999e-01
7.573835987e-01,7.11033e-01,9.99999e-01,9.99999e-01,9.99826e-01,7.11156e-01,9.99999e-01
7.611705167e-01,7.15884e-01,9.99999e-01,9.99999e-01,9.99891e-01,7.15961e-01,9.99999e-01
7.649763693e-01,7.20653e-01,9.99999e-01,9.99999e-01,9.99932e-01,7.20701e-01,9.99999e-01
7.688012511e-01,7.25345e-01,9.99999e-01,9.99999e-01,9.99952e-01,7.25379e-01,9.99999e-01
7.726452574e-01,7.29966e-01,9.99999e-01,9.99999e-01,9.99961e-01,7.29994e-01,9.99999e-01
7.765084837e-01,7.34506e-01,9.99999e-01,9.99999e-01,9.99945e-01,7.34546e-01,9.99999e-01
7.803910261e-01,7.28185e-01,9.99999e-01,9.85543e-01,9.99765e-01,7.39036e-01,9.99999e-01
7.842929812e-01,6.95744e-01,9.99999e-01,9.36561e-01,9.99183e-01,7.43463e-01,9.99999e-01
7.882144461e-01,6.96172e-01,9.99999e-01,9.32479e-01,9.98300e-01,7.47829e-01,9.99999e-01
7.921555184e-01,7.21956e-01,9.99999e-01,9.60767e-01,9.99062e-01,7.52134e-01,9.99999e-01
7.961162960e-01,7.35072e-01,9.99999e-01,9.73415e-01,9.98364e-01,7.56378e-01,9.99999e-01
8.000968774e-01,7.48141e-01,9.99999e-01,9.85539e-01,9.98099e-01,7.60561e-01,9.99999e-01
8.040973618e-01,7.57473e-01,9.99999e-01,9.92451e-01,9.98101e-01,7.64684e-01,9.99999e-01
8.081178486e-01,7.62841e-01,9.99999e-01,9.96546e-01,9.95752e-01,7.68747e-01,9.99999e-01
8.121584379e-01,7.58268e-01,9.99999e-01,9.98921e-01,9.82312e-01,7.72751e-01,9.99999e-01
8.162192301e-01,7.60028e-01,9.99999e-01,9.99761e-01,9.78770e-01,7.76696e-01,9.99999e-01
8.203003262e-01,7.72404e-01,9.99999e-01,9.99995e-01,9.89526e-01,7.80582e-01,9.99999e-01
8.244018279e-01,7.72571e-01,9.99999e-01,9.99999e-01,9.84905e-01,7.84411e-01,9.99999e-01
8.285238370e-01,7.78250e-01,9.99999e-01,9.99999e-01,9.87397e-01,7.88182e-01,9.99999e-01
8.326664562e-01,7.81754e-01,9.99999e-01,9.99999e-01,9.87191e-01,7.91897e-01,9.99999e-01
8.368297885e-01,7.88264e-01,9.99999e-01,9.99999e-01,9.90835e-01,7.95555e-01,9.99999e-01
8.410139374e-01,7.94799e-01,9.99999e-01,9.99999e-01,9.94546e-01,7.99157e-01,9.99999e-01
8.452190071e-01,8.00553e-01,9.99999e-01,9.99999e-01,9.97320e-01,8.02704e-01,9.99999e-01
8.494451021e-01,8.04948e-01,9.99999e-01,9.99999e-01,9.98451e-01,8.06196e-01,9.99999e-01
8.536923276e-01,8.08890e-01,9.99999e-01,9.99999e-01,9.99080e-01,8.09634e-01,9.99999e-01
8.579607893e-01,8.12560e-01,9.99999e-01,9.99999e-01,9.99435e-01,8.13018e-01,9.99999e-01
8.622505932e-01,8.16056e-01,9.99999e-01,9.99999e-01,9.99640e-01,8.16349e-01,9.99999e-01
8.665618462e-01,7.86980e-01,9.99999e-01,9.60374e-01,9.99778e-01,8.19628e-01,9.99999e-01
8.708946554e-01,6.95088e-01,9.99999e-01,8.44937e-01,9.99746e-01,8.22854e-01,9.99999e-01
8.752491287e-01,7.21987e-01,9.99999e-01,8.74336e-01,9.99661e-01,8.26029e-01,9.99999e-01
8.796253743e-01,7.70458e-01,9.99999e-01,9.29638e-01,9.99532e-01,8.29154e-01,9.99999e-01
8.840235012e-01,8.01107e-01,9.99999e-01,9.63116e-01,9.99465e-01,8.32228e-01,9.99999e-01
8.884436187e-01,8.21369e-01,9.99999e-01,9.85251e-01,9.98091e-01,8.35252e-01,9.99999e-01
8.928858368e-01,8.16300e-01,9.99999e-01,9.94027e-01,9.79670e-01,8.38227e-01,9.99999e-01
8.973502660e-01,8.09575e-01,9.99999e-01,9.98535e-01,9.63857e-01,8.41154e-01,9.99999e-01
9.018370173e-01,8.28053e-01,9.99999e-01,9.99837e-01,9.81223e-01,8.44033e-01,9.99998e-01
9.063462024e-01,8.29838e-01,9.99999e-01,9.95994e-01,9.83781e-01,8.46865e-01,9.99998e-01
9.108779334e-01,8.20377e-01,9.99999e-01,9.90604e-01,9.74656e-01,8.49650e-01,9.99998e-01
9.154323231e-01,8.26023e-01,9.99999e-01,9.97762e-01,9.71222e-01,8.52388e-01,9.99998e-01
9.200094847e-01,8.09084e-01,9.99999e-01,9.67660e-01,9.77301e-01,8.55082e-01,9.99998e-01
9.246095321e-01,7.90743e-01,9.99999e-01,9.54812e-01,9.65171e-01,8.57730e-01,9.99997e-01
9.292325798e-01,6.51648e-01,9.99999e-01,9.64652e-01,7.83758e-01,8.60334e-01,9.99996e-01
9.338787427e-01,6.06564e-01,9.99999e-01,9.65530e-01,7.26671e-01,8.62894e-01,9.99995e-01
9.385481364e-01,7.42331e-01,9.99999e-01,9.74631e-01,8.79496e-01,8.65411e-01,9.99995e-01
9.432408771e-01,7.14314e-01,9.99999e-01,9.84351e-01,8.35795e-01,8.67886e-01,9.99994e-01
9.479570815e-01,6.72047e-01,9.99999e-01,9.91974e-01,7.78269e-01,8.70318e-01,9.99995e-01
9.526968669e-01,7.21087e-01,9.99999e-01,9.96113e-01,8.29342e-01,8.72709e-01,9.99996e-01
9.574603512e-01,7.38883e-01,9.99999e-01,9.98335e-01,8.45747e-01,8.75059e-01,9.99997e-01
9.622476530e-01,7.65383e-01,9.99999e-01,9.99479e-01,8.72803e-01,8.77369e-01,9.99997e-01
9.670588912e-01,8.13461e-01,9.99999e-01,9.99843e-01,9.24908e-01,8.79640e-01,9.99998e-01
9.718941857e-01,8.40190e-01,9.99999e-01,9.99988e-01,9.52746e-01,8.81871e-01,9.99998e-01
9.767536566e-01,8.49278e-01,9.99999e-01,9.99999e-01,9.60653e-01,8.84063e-01,9.99999e-01
9.816374249e-01,8.60205e-01,9.99999e-01,9.99999e-01,9.70647e-01,8.86217e-01,9.99999e-01
9.865456120e-01,8.71963e-01,9.99999e-01,9.99999e-01,9.81569e-01,8.88334e-01,9.99999e-01
9.914783401e-01,8.80251e-01,9.99999e-01,9.99999e-01,9.88585e-01,8.90415e-01,9.99999e-01
9.964357318e-01,8.86896e-01,9.99999e-01,9.99999e-01,9.93766e-01,8.92458e-01,9.99999e-01
1.001417910e+00,8.91121e-01,9.99999e-01,9.99999e-01,9.96259e-01,8.94466e-01,9.99999e-01
1.006425000e+00,8.94532e-01,9.99999e-01,9.99999e-01,9.97871e-01,8.96439e-01,9.99999e-01
1.011457125e+00,8.97186e-01,9.99999e-01,9.99999e-01,9.98674e-01,8.98377e-01,9.99999e-01
1.016514411e+00,8.99472e-01,9.99999e-01,9.99999e-01,9.99101e-01,9.00280e-01,9.99999e-01
1.021596983e+00,9.01489e-01,9.99999e-01,9.99980e-01,9.99284e-01,9.02150e-01,9.99999e-01
1.026704968e+00,9.02082e-01,9.99999e-01,9.98448e-01,9.99442e-01,9.03987e-01,9.99999e-01
1.031838492e+00,8.85676e-01,9.99999e-01,9.78182e-01,9.99593e-01,9.05791e-01,9.99999e-01
1.036997685e+00,2.90654e-01,9.99999e-01,3.20323e-01,9.99759e-01,9.07563e-01,9.99999e-01
1.042182673e+00,3.51789e-01,9.99999e-01,3.86981e-01,9.99713e-01,9.09304e-01,9.99999e-01
1.047393587e+00,3.23944e-01,9.99999e-01,3.55709e-01,9.99620e-01,9.11013e-01,9.99999e-01
1.052630555e+00,5.98752e-02,9.99999e-01,6.56303e-02,9.99479e-01,9.12692e-01,9.99999e-01
1.057893707e+00,1.06845e-01,9.99999e-01,1.16936e-01,9.99132e-01,9.14340e-01,9.99999e-01
1.063183176e+00,1.94528e-01,9.99999e-01,2.12628e-01,9.98571e-01,9.15959e-01,9.99999e-01
1.068499092e+00,3.28843e-01,9.99999e-01,3.59184e-01,9.97604e-01,9.17548e-01,9.99999e-01
1.073841587e+00,4.79420e-01,9.99999e-01,5.22956e-01,9.97202e-01,9.19109e-01,9.99999e-01
1.079210795e+00,6.10072e-01,9.99999e-01,6.64954e-01,9.96402e-01,9.20642e-01,9.99999e-01
1.084606849e+00,7.34003e-01,9.99999e-01,8.00227e-01,9.94567e-01,9.22147e-01,9.99999e-01
1.090029883e+00,8.16852e-01,9.99999e-01,8.91223e-01,9.92251e-01,9.23624e-01,9.99999e-01
1.095480033e+00,8.55723e-01,9.99999e-01,9.44809e-01,9.78970e-01,9.25075e-01,9.99998e-01
1.100957433e+00,8.54138e-01,9.99999e-01,9.73070e-01,9.47299e-01,9.26499e-01,9.99998e-01
1.106462220e+00,7.99028e-01,9.99999e-01,9.88765e-01,8.70748e-01,9.27897e-01,9.99997e-01
1.111994531e+00,6.89148e-01,9.99999e-01,9.95823e-01,7.44613e-01,9.29270e-01,9.99995e-01
1.117554504e+00,5.74700e-01,9.99999e-01,9.98973e-01,6.18128e-01,9.30617e-01,9.99993e-01
1.123142276e+00,6.48216e-01,9.99999e-01,9.99931e-01,6.95594e-01,9.31940e-01,9.99992e-01
1.128757988e+00,7.43501e-01,9.99999e-01,9.99999e-01,7.96694e-01,9.33238e-01,9.99992e-01
1.134401778e+00,5.35000e-01,9.99999e-01,9.99999e-01,5.72494e-01,9.34513e-01,9.99991e-01
1.140073787e+00,8.18924e-01,9.99999e-01,9.99999e-01,8.75145e-01,9.35764e-01,9.99992e-01
1.145774156e+00,7.05985e-01,9.99999e-01,9.99999e-01,7.53463e-01,9.36992e-01,9.99993e-01
1.151503026e+00,6.83056e-01,9.99999e-01,9.99999e-01,7.28054e-01,9.38197e-01,9.99994e-01
1.157260541e+00,7.24675e-01,9.99999e-01,9.99999e-01,7.71442e-01,9.39380e-01,9.99995e-01
1.163046844e+00,7.76527e-01,9.99999e-01,9.99999e-01,8.25618e-01,9.40541e-01,9.99997e-01
1.168862078e+00,8.25061e-01,9.99999e-01,9.99999e-01,8.76158e-01,9.41681e-01,9.99998e-01
1.174706389e+00,8.68987e-01,9.99999e-01,9.99999e-01,9.21710e-01,9.42799e-01,9.99998e-01
1.180579921e+00,8.98209e-01,9.99999e-01,9.99999e-01,9.51596e-01,9.43896e-01,9.99999e-01
1.186482820e+00,9.18921e-01,9.99999e-01,9.99997e-01,9.72432e-01,9.44974e-01,9.99999e-01
1.192415234e+00,9.25621e-01,9.99999e-01,9.94460e-01,9.83849e-01,9.46031e-01,9.99999e-01
1.198377311e+00,5.56957e-01,9.99999e-01,5.94926e-01,9.86399e-01,9.47068e-01,9.99999e-01
1.204369197e+00,4.78234e-06,9.99999e-01,5.08210e-06,9.87101e-01,9.48086e-01,9.99999e-01
1.210391043e+00,1.42854e-18,9.99999e-01,1.51557e-18,9.87664e-01,9.49085e-01,9.99999e-01
1.216442998e+00,2.53658e-16,9.99999e-01,2.68739e-16,9.89470e-01,9.50065e-01,9.99999e-01
1.222525213e+00,4.48606e-16,9.99999e-01,4.73769e-16,9.91806e-01,9.51026e-01,9.99999e-01
1.228637839e+00,2.46073e-12,9.99999e-01,2.59548e-12,9.94309e-01,9.51970e-01,9.99999e-01
