#,Wave/freq,Total,O2,CO2,H2O,Rayleigh,CIA
4.000000000e-01,1.29820e-03,9.99999e-01,9.99999e-01,9.99986e-01,1.29822e-03,9.99999e-01
4.020000000e-01,1.48054e-03,9.99999e-01,9.99999e-01,9.99991e-01,1.48056e-03,9.99999e-01
4.040100000e-01,1.68389e-03,9.99999e-01,9.99999e-01,9.99996e-01,1.68390e-03,9.99999e-01
4.060300500e-01,1.91030e-03,9.99999e-01,9.99999e-01,9.99998e-01,1.91031e-03,9.99999e-01
4.080602003e-01,2.16176e-03,9.99999e-01,9.99999e-01,9.99999e-01,2.16176e-03,9.99999e-01
4.101005013e-01,2.44035e-03,9.99999e-01,9.99999e-01,9.99999e-01,2.44035e-03,9.99999e-01
4.121510038e-01,2.74825e-03,9.99999e-01,9.99999e-01,9.99999e-01,2.74825e-03,9.99999e-01
4.142117588e-01,3.08773e-03,9.99999e-01,9.99999e-01,9.99995e-01,3.08774e-03,9.99999e-01
4.162828176e-01,3.46115e-03,9.99999e-01,9.99999e-01,9.99983e-01,3.46120e-03,9.99999e-01
4.183642317e-01,3.87105e-03,9.99999e-01,9.99999e-01,9.99989e-01,3.87109e-03,9.99999e-01
4.204560528e-01,4.31993e-03,9.99999e-01,9.99999e-01,9.99993e-01,4.31996e-03,9.99999e-01
4.225583331e-01,4.81043e-03,9.99999e-01,9.99999e-01,9.99997e-01,4.81044e-03,9.99999e-01
4.246711247e-01,5.34523e-03,9.99999e-01,9.99999e-01,9.99997e-01,5.34524e-03,9.99999e-01
4.267944804e-01,5.92713e-03,9.99999e-01,9.99999e-01,9.99996e-01,5.92715e-03,9.99999e-01
4.289284528e-01,6.55898e-03,9.99999e-01,9.99999e-01,9.99997e-01,6.55900e-03,9.99999e-01
4.310730950e-01,7.24369e-03,9.99999e-01,9.99999e-01,9.99998e-01,7.24370e-03,9.99999e-01
4.332284605e-01,7.98420e-03,9.99999e-01,9.99999e-01,9.99999e-01,7.98420e-03,9.99999e-01
4.353946028e-01,8.78350e-03,9.99999e-01,9.99999e-01,9.99999e-01,8.78350e-03,9.99999e-01
4.375715758e-01,9.64461e-03,9.99999e-01,9.99999e-01,9.99997e-01,9.64462e-03,9.99999e-01
4.397594337e-01,1.05705e-02,9.99999e-01,9.99999e-01,9.99985e-01,1.05706e-02,9.99999e-01
4.419582309e-01,1.15637e-02,9.99999e-01,9.99999e-01,9.99927e-01,1.15646e-02,9.99999e-01
4.441680220e-01,1.26288e-02,9.99999e-01,9.99999e-01,9.99943e-01,1.26295e-02,9.99999e-01
4.463888621e-01,1.37678e-02,9.99999e-01,9.99999e-01,9.99941e-01,1.37686e-02,9.99999e-01
4.486208064e-01,1.49843e-02,9.99999e-01,9.99999e-01,9.99963e-01,1.49848e-02,9.99999e-01
4.508639105e-01,1.62809e-02,9.99999e-01,9.99999e-01,9.99982e-01,1.62812e-02,9.99999e-01
4.531182300e-01,1.76607e-02,9.99999e-01,9.99999e-01,9.99992e-01,1.76608e-02,9.99999e-01
4.553838212e-01,1.91264e-02,9.99999e-01,9.99999e-01,9.99994e-01,1.91265e-02,9.99999e-01
4.576607403e-01,2.06813e-02,9.99999e-01,9.99999e-01,9.99997e-01,2.06813e-02,9.99999e-01
4.599490440e-01,2.23280e-02,9.99999e-01,9.99999e-01,9.99998e-01,2.23280e-02,9.99999e-01
4.622487892e-01,2.40693e-02,9.99999e-01,9.99999e-01,9.99999e-01,2.40693e-02,9.99999e-01
4.645600332e-01,2.59080e-02,9.99999e-01,9.99999e-01,9.99998e-01,2.59080e-02,9.99999e-01
4.668828333e-01,2.78461e-02,9.99999e-01,9.99999e-01,9.99982e-01,2.78466e-02,9.99999e-01
4.692172475e-01,2.98866e-02,9.99999e-01,9.99999e-01,9.99962e-01,2.98877e-02,9.99999e-01
4.715633337e-01,3.20328e-02,9.99999e-01,9.99999e-01,9.99975e-01,3.20335e-02,9.99999e-01
4.739211504e-01,3.42857e-02,9.99999e-01,9.99999e-01,9.99976e-01,3.42865e-02,9.99999e-01
4.762907561e-01,3.66482e-02,9.99999e-01,9.99999e-01,9.99987e-01,3.66486e-02,9.99999e-01
4.786722099e-01,3.91218e-02,9.99999e-01,9.99999e-01,9.99994e-01,3.91220e-02,9.99999e-01
4.810655710e-01,4.17084e-02,9.99999e-01,9.99999e-01,9.99998e-01,4.17085e-02,9.99999e-01
4.834708988e-01,4.44091e-02,9.99999e-01,9.99999e-01,9.99985e-01,4.44098e-02,9.99999e-01
4.858882533e-01,4.72262e-02,9.99999e-01,9.99999e-01,9.99973e-01,4.72274e-02,9.99999e-01
4.883176946e-01,5.01617e-02,9.99999e-01,9.99999e-01,9.99977e-01,5.01628e-02,9.99999e-01
4.907592831e-01,5.32162e-02,9.99999e-01,9.99999e-01,9.99979e-01,5.32173e-02,9.99999e-01
4.932130795e-01,5.63911e-02,9.99999e-01,9.99999e-01,9.99985e-01,5.63918e-02,9.99999e-01
4.956791449e-01,5.96870e-02,9.99999e-01,9.99999e-01,9.99992e-01,5.96874e-02,9.99999e-01
4.981575406e-01,6.31024e-02,9.99999e-01,9.99999e-01,9.99962e-01,6.31048e-02,9.99999e-01
5.006483283e-01,6.66381e-02,9.99999e-01,9.99999e-01,9.99903e-01,6.66444e-02,9.99999e-01
5.031515699e-01,7.02728e-02,9.99999e-01,9.99999e-01,9.99515e-01,7.03068e-02,9.99999e-01
5.056673278e-01,7.40732e-02,9.99999e-01,9.99999e-01,9.99744e-01,7.40921e-02,9.99999e-01
5.081956644e-01,7.79753e-02,9.99999e-01,9.99999e-01,9.99677e-01,7.80004e-02,9.99999e-01
5.107366428e-01,8.20137e-02,9.99999e-01,9.99999e-01,9.99782e-01,8.20315e-02,9.99999e-01
5.132903260e-01,8.61744e-02,9.99999e-01,9.99999e-01,9.99875e-01,8.61851e-02,9.99999e-01
5.158567776e-01,9.04560e-02,9.99999e-01,9.99999e-01,9.99947e-01,9.04608e-02,9.99999e-01
5.184360615e-01,9.48557e-02,9.99999e-01,9.99999e-01,9.99978e-01,9.48577e-02,9.99999e-01
5.210282418e-01,9.93744e-02,9.99999e-01,9.99999e-01,9.99991e-01,9.93752e-02,9.99999e-01
5.236333830e-01,1.04009e-01,9.99999e-01,9.99999e-01,9.99968e-01,1.04012e-01,9.99999e-01
5.262515499e-01,1.08765e-01,9.99999e-01,9.99999e-01,9.99979e-01,1.08768e-01,9.99999e-01
5.288828077e-01,1.13638e-01,9.99999e-01,9.99999e-01,9.99981e-01,1.13640e-01,9.99999e-01
5.315272217e-01,1.18626e-01,9.99999e-01,9.99999e-01,9.99983e-01,1.18628e-01,9.99999e-01
5.341848578e-01,1.23728e-01,9.99999e-01,9.99999e-01,9.99989e-01,1.23730e-01,9.99999e-01
5.368557821e-01,1.28939e-01,9.99999e-01,9.99999e-01,9.99962e-01,1.28943e-01,9.99999e-01
5.395400610e-01,1.34250e-01,9.99999e-01,9.99999e-01,9.99866e-01,1.34268e-01,9.99999e-01
5.422377613e-01,1.39676e-01,9.99999e-01,9.99999e-01,9.99828e-01,1.39700e-01,9.99999e-01
5.449489501e-01,1.45215e-01,9.99999e-01,9.99999e-01,9.99840e-01,1.45238e-01,9.99999e-01
5.476736949e-01,1.50859e-01,9.99999e-01,9.99999e-01,9.99858e-01,1.50880e-01,9.99999e-01
5.504120634e-01,1.56607e-01,9.99999e-01,9.99999e-01,9.99897e-01,1.56623e-01,9.99999e-01
5.531641237e-01,1.62456e-01,9.99999e-01,9.99999e-01,9.99948e-01,1.62465e-01,9.99999e-01
5.559299443e-01,1.68398e-01,9.99999e-01,9.99999e-01,9.99974e-01,1.68402e-01,9.99999e-01
5.587095940e-01,1.74431e-01,9.99999e-01,9.99999e-01,9.99983e-01,1.74434e-01,9.99999e-01
5.615031420e-01,1.80552e-01,9.99999e-01,9.99999e-01,9.99982e-01,1.80555e-01,9.99999e-01
5.643106577e-01,1.86760e-01,9.99999e-01,9.99999e-01,9.99979e-01,1.86764e-01,9.99999e-01
5.671322110e-01,1.93011e-01,9.99999e-01,9.99999e-01,9.99758e-01,1.93058e-01,9.99999e-01
5.699678720e-01,1.99382e-01,9.99999e-01,9.99999e-01,9.99746e-01,1.99433e-01,9.99999e-01
5.728177114e-01,2.05832e-01,9.99999e-01,9.99999e-01,9.99734e-01,2.05886e-01,9.99999e-01
5.756818000e-01,2.12363e-01,9.99999e-01,9.99999e-01,9.99756e-01,2.12415e-01,9.99999e-01
5.785602090e-01,2.18969e-01,9.99999e-01,9.99999e-01,9.99787e-01,2.19015e-01,9.99999e-01
5.814530100e-01,2.25637e-01,9.99999e-01,9.99999e-01,9.99786e-01,2.25685e-01,9.99999e-01
5.843602750e-01,2.32360e-01,9.99999e-01,9.99999e-01,9.99744e-01,2.32419e-01,9.99999e-01
5.872820764e-01,2.38691e-01,9.99999e-01,9.99999e-01,9.97804e-01,2.39216e-01,9.99999e-01
5.902184868e-01,2.45419e-01,9.99999e-01,9.99999e-01,9.97351e-01,2.46071e-01,9.99999e-01
5.931695792e-01,2.52507e-01,9.99999e-01,9.99999e-01,9.98125e-01,2.52981e-01,9.99999e-01
5.961354271e-01,2.59410e-01,9.99999e-01,9.99999e-01,9.97947e-01,2.59943e-01,9.99999e-01
5.991161043e-01,2.66555e-01,9.99999e-01,9.99999e-01,9.98504e-01,2.66954e-01,9.99999e-01
6.021116848e-01,2.73777e-01,9.99999e-01,9.99999e-01,9.99151e-01,2.74009e-01,9.99999e-01
6.051222432e-01,2.80986e-01,9.99999e-01,9.99999e-01,9.99570e-01,2.81107e-01,9.99999e-01
6.081478544e-01,2.88189e-01,9.99999e-01,9.99999e-01,9.99814e-01,2.88242e-01,9.99999e-01
6.111885937e-01,2.95389e-01,9.99999e-01,9.99999e-01,9.99921e-01,2.95412e-01,9.99999e-01
6.142445367e-01,3.02603e-01,9.99999e-01,9.99999e-01,9.99964e-01,3.02614e-01,9.99999e-01
6.173157594e-01,3.09837e-01,9.99999e-01,9.99999e-01,9.99980e-01,3.09843e-01,9.99999e-01
6.204023382e-01,3.17093e-01,9.99999e-01,9.99999e-01,9.99983e-01,3.17098e-01,9.99999e-01
6.235043498e-01,3.24351e-01,9.99999e-01,9.99999e-01,9.99927e-01,3.24374e-01,9.99999e-01
6.266218716e-01,3.31542e-01,9.99999e-01,9.99999e-01,9.99618e-01,3.31669e-01,9.99999e-01
6.297549810e-01,3.38931e-01,9.99999e-01,9.99999e-01,9.99859e-01,3.38978e-01,9.99999e-01
6.329037559e-01,3.46204e-01,9.99999e-01,9.99999e-01,9.99723e-01,3.46299e-01,9.99999e-01
6.360682746e-01,3.53546e-01,9.99999e-01,9.99999e-01,9.99764e-01,3.53630e-01,9.99999e-01
6.392486160e-01,3.60856e-01,9.99999e-01,9.99999e-01,9.99694e-01,3.60966e-01,9.99999e-01
6.424448591e-01,3.68154e-01,9.99999e-01,9.99999e-01,9.99589e-01,3.68305e-01,9.99999e-01
6.456570834e-01,3.74929e-01,9.99999e-01,9.99999e-01,9.98097e-01,3.75643e-01,9.99999e-01
6.488853688e-01,3.82448e-01,9.99999e-01,9.99999e-01,9.98613e-01,3.82979e-01,9.99999e-01
6.521297956e-01,3.89757e-01,9.99999e-01,9.99999e-01,9.98586e-01,3.90309e-01,9.99999e-01
6.553904446e-01,3.97070e-01,9.99999e-01,9.99999e-01,9.98590e-01,3.97630e-01,9.99999e-01
6.586673968e-01,4.04452e-01,9.99999e-01,9.99999e-01,9.98795e-01,4.04939e-01,9.99999e-01
6.619607338e-01,4.11959e-01,9.99999e-01,9.99999e-01,9.99328e-01,4.12235e-01,9.99999e-01
6.652705375e-01,4.19346e-01,9.99999e-01,9.99999e-01,9.99596e-01,4.19514e-01,9.99999e-01
6.685968902e-01,4.26702e-01,9.99999e-01,9.99999e-01,9.99828e-01,4.26775e-01,9.99999e-01
6.719398746e-01,4.33976e-01,9.99999e-01,9.99999e-01,9.99912e-01,4.34013e-01,9.99999e-01
6.752995740e-01,4.41208e-01,9.99999e-01,9.99999e-01,9.99952e-01,4.41228e-01,9.99999e-01
6.786760719e-01,4.48387e-01,9.99999e-01,9.99999e-01,9.99931e-01,4.48417e-01,9.99999e-01
6.820694522e-01,4.55524e-01,9.99999e-01,9.99999e-01,9.99883e-01,4.55577e-01,9.99999e-01
6.854797995e-01,4.62638e-01,9.99999e-01,9.99999e-01,9.99849e-01,4.62707e-01,9.99999e-01
6.889071985e-01,4.69633e-01,9.99999e-01,9.99999e-01,9.99633e-01,4.69805e-01,9.99999e-01
6.923517345e-01,4.74034e-01,9.99999e-01,9.99999e-01,9.94056e-01,4.76868e-01,9.99999e-01
6.958134932e-01,4.82410e-01,9.99999e-01,9.99999e-01,9.96932e-01,4.83894e-01,9.99999e-01
6.992925606e-01,4.89440e-01,9.99999e-01,9.99999e-01,9.97061e-01,4.90882e-01,9.99999e-01
7.027890234e-01,4.96031e-01,9.99999e-01,9.99999e-01,9.96385e-01,4.97830e-01,9.99999e-01
7.063029686e-01,5.03202e-01,9.99999e-01,9.99999e-01,9.96959e-01,5.04736e-01,9.99999e-01
7.098344834e-01,5.10107e-01,9.99999e-01,9.99999e-01,9.97083e-01,5.11599e-01,9.99999e-01
7.133836558e-01,5.16391e-01,9.99999e-01,9.99999e-01,9.96091e-01,5.18417e-01,9.99999e-01
7.169505741e-01,5.08874e-01,9.99999e-01,9.99999e-01,9.68936e-01,5.25188e-01,9.99999e-01
7.205353270e-01,5.23834e-01,9.99999e-01,9.99999e-01,9.84813e-01,5.31912e-01,9.99999e-01
7.241380036e-01,5.28154e-01,9.99999e-01,9.99999e-01,9.80631e-01,5.38586e-01,9.99999e-01
7.277586936e-01,5.35675e-01,9.99999e-01,9.99999e-01,9.82512e-01,5.45209e-01,9.99999e-01
7.313974871e-01,5.41562e-01,9.99999e-01,9.99999e-01,9.81479e-01,5.51781e-01,9.99999e-01
7.350544745e-01,5.52629e-01,9.99999e-01,9.99999e-01,9.89842e-01,5.58300e-01,9.99999e-01
7.387297469e-01,5.60542e-01,9.99999e-01,9.99999e-01,9.92523e-01,5.64765e-01,9.99999e-01
7.424233956e-01,5.69084e-01,9.99999e-01,9.99999e-01,9.96340e-01,5.71174e-01,9.99999e-01
7.461355126e-01,5.76246e-01,9.99999e-01,9.99999e-01,9.97779e-01,5.77528e-01,9.99999e-01
7.498661902e-01,5.83222e-01,9.99999e-01,9.99999e-01,9.98967e-01,5.83825e-01,9.99999e-01
7.536155211e-01,5.89765e-01,9.99999e-01,9.99999e-01,9.99492e-01,5.90064e-01,9.99999e-01
7.573835987e-01,5.96089e-01,9.99999e-01,9.99999e-01,9.99738e-01,5.96244e-01,9.99999e-01
7.611705167e-01,6.02268e-01,9.99999e-01,9.99999e-01,9.99837e-01,6.02366e-01,9.99999e-01
7.649763693e-01,6.08365e-01,9.99999e-01,9.99999e-01,9.99897e-01,6.08427e-01,9.99999e-01
7.688012511e-01,6.14384e-01,9.99999e-01,9.99999e-01,9.99928e-01,6.14428e-01,9.99999e-01
7.726452574e-01,6.20332e-01,9.99999e-01,9.99999e-01,9.99941e-01,6.20368e-01,9.99999e-01
7.765084837e-01,6.26194e-01,9.99999e-01,9.99999e-01,9.99916e-01,6.26246e-01,9.99999e-01
7.803910261e-01,6.17380e-01,9.99999e-01,9.77114e-01,9.99640e-01,6.32062e-01,9.99999e-01
7.842929812e-01,5.77671e-01,9.99999e-01,9.06802e-01,9.98744e-01,6.37816e-01,9.99999e-01
7.882144461e-01,5.77711e-01,9.99999e-01,9.00012e-01,9.97423e-01,6.43506e-01,9.99999e-01
7.921555184e-01,6.10001e-01,9.99999e-01,9.41021e-01,9.98589e-01,6.49134e-01,9.99999e-01
7.961162960e-01,6.27170e-01,9.99999e-01,9.60341e-01,9.97496e-01,6.54698e-01,9.99999e-01
8.000968774e-01,6.44010e-01,9.99999e-01,9.78293e-01,9.97115e-01,6.60199e-01,9.99999e-01
8.040973618e-01,6.56233e-01,9.99999e-01,9.88722e-01,9.97113e-01,6.65636e-01,9.99999e-01
8.081178486e-01,6.63171e-01,9.99999e-01,9.94799e-01,9.93479e-01,6.71009e-01,9.99999e-01
8.121584379e-01,6.57050e-01,9.99999e-01,9.98398e-01,9.73058e-01,6.76318e-01,9.99999e-01
8.162192301e-01,6.59660e-01,9.99999e-01,9.99645e-01,9.68203e-01,6.81563e-01,9.99999e-01
8.203003262e-01,6.75650e-01,9.99999e-01,9.99994e-01,9.83851e-01,6.86743e-01,9.99999e-01
8.244018279e-01,6.76424e-01,9.99999e-01,9.99999e-01,9.77688e-01,6.91860e-01,9.99999e-01
8.285238370e-01,6.83590e-01,9.99999e-01,9.99999e-01,9.80883e-01,6.96912e-01,9.99999e-01
8.326664562e-01,6.88355e-01,9.99999e-01,9.99999e-01,9.80701e-01,7.01901e-01,9.99999e-01
8.368297885e-01,6.97078e-01,9.99999e-01,9.99999e-01,9.86209e-01,7.06825e-01,9.99999e-01
8.410139374e-01,7.05844e-01,9.99999e-01,9.99999e-01,9.91790e-01,7.11686e-01,9.99999e-01
8.452190071e-01,7.13597e-01,9.99999e-01,9.99999e-01,9.95970e-01,7.16484e-01,9.99999e-01
8.494451021e-01,7.19529e-01,9.99999e-01,9.99999e-01,9.97657e-01,7.21218e-01,9.99999e-01
8.536923276e-01,7.24884e-01,9.99999e-01,9.99999e-01,9.98616e-01,7.25888e-01,9.99999e-01
8.579607893e-01,7.29873e-01,9.99999e-01,9.99999e-01,9.99146e-01,7.30496e-01,9.99999e-01
8.622505932e-01,7.34644e-01,9.99999e-01,9.99999e-01,9.99458e-01,7.35042e-01,9.99999e-01
8.665618462e-01,6.97260e-01,9.99999e-01,9.43155e-01,9.99664e-01,7.39524e-01,9.99999e-01
8.708946554e-01,5.78244e-01,9.99999e-01,7.77558e-01,9.99615e-01,7.43945e-01,9.99999e-01
8.752491287e-01,6.11978e-01,9.99999e-01,8.18230e-01,9.99485e-01,7.48305e-01,9.99999e-01
8.796253743e-01,6.74176e-01,9.99999e-01,8.96419e-01,9.99286e-01,7.52603e-01,9.99999e-01
8.840235012e-01,7.14685e-01,9.99999e-01,9.45063e-01,9.99185e-01,7.56840e-01,9.99999e-01
8.884436187e-01,7.42094e-01,9.99999e-01,9.78044e-01,9.97007e-01,7.61016e-01,9.99999e-01
8.928858368e-01,7.34784e-01,9.99999e-01,9.91047e-01,9.68962e-01,7.65132e-01,9.99999e-01
8.973502660e-01,7.26000e-01,9.99999e-01,9.97825e-01,9.45881e-01,7.69189e-01,9.99998e-01
9.018370173e-01,7.51423e-01,9.99999e-01,9.99760e-01,9.72080e-01,7.73186e-01,9.99998e-01
9.063462024e-01,7.53253e-01,9.99999e-01,9.93749e-01,9.75256e-01,7.77125e-01,9.99998e-01
9.108779334e-01,7.40615e-01,9.99999e-01,9.85891e-01,9.61746e-01,7.81005e-01,9.99998e-01
9.154323231e-01,7.48410e-01,9.99999e-01,9.96687e-01,9.56723e-01,7.84827e-01,9.99998e-01
9.200094847e-01,7.25437e-01,9.99999e-01,9.51183e-01,9.65957e-01,7.88593e-01,9.99998e-01
9.246095321e-01,6.99979e-01,9.99999e-01,9.32704e-01,9.46410e-01,7.92301e-01,9.99997e-01
9.292325798e-01,5.23102e-01,9.99999e-01,9.46443e-01,6.91543e-01,7.95953e-01,9.99994e-01
9.338787427e-01,4.73461e-01,9.99999e-01,9.48528e-01,6.21825e-01,7.99549e-01,9.99992e-01
9.385481364e-01,6.39167e-01,9.99999e-01,9.61964e-01,8.26102e-01,8.03090e-01,9.99992e-01
9.432408771e-01,6.02442e-01,9.99999e-01,9.76594e-01,7.64128e-01,8.06576e-01,9.99991e-01
9.479570815e-01,5.51011e-01,9.99999e-01,9.87914e-01,6.88253e-01,8.10008e-01,9.99992e-01
9.526968669e-01,6.13397e-01,9.99999e-01,9.94160e-01,7.58283e-01,8.13386e-01,9.99994e-01
9.574603512e-01,6.33377e-01,9.99999e-01,9.97500e-01,7.77381e-01,8.16711e-01,9.99995e-01
9.622476530e-01,6.68104e-01,9.99999e-01,9.99220e-01,8.15390e-01,8.19984e-01,9.99997e-01
9.670588912e-01,7.31759e-01,9.99999e-01,9.99766e-01,8.89115e-01,8.23205e-01,9.99997e-01
9.718941857e-01,7.68000e-01,9.99999e-01,9.99983e-01,9.29375e-01,8.26374e-01,9.99998e-01
9.767536566e-01,7.80573e-01,9.99999e-01,9.99999e-01,9.41024e-01,8.29493e-01,9.99998e-01
9.816374249e-01,7.95959e-01,9.99999e-01,9.99999e-01,9.56036e-01,8.32562e-01,9.99999e-01
9.865456120e-01,8.12455e-01,9.99999e-01,9.99999e-01,9.72323e-01,8.35581e-01,9.99999e-01
9.914783401e-01,8.24134e-01,9.99999e-01,9.99999e-01,9.82806e-01,8.38551e-01,9.99999e-01
9.964357318e-01,8.33566e-01,9.99999e-01,9.99999e-01,9.90603e-01,8.41472e-01,9.99999e-01
1.001417910e+00,8.39584e-01,9.99999e-01,9.99999e-01,9.94360e-01,8.44346e-01,9.99999e-01
1.006425000e+00,8.44444e-01,9.99999e-01,9.99999e-01,9.96779e-01,8.47172e-01,9.99999e-01
1.011457125e+00,8.48255e-01,9.99999e-01,9.99999e-01,9.98002e-01,8.49952e-01,9.99999e-01
1.016514411e+00,8.51529e-01,9.99999e-01,9.99999e-01,9.98642e-01,8.52686e-01,9.99999e-01
1.021596983e+00,8.54419e-01,9.99999e-01,9.99964e-01,9.98917e-01,8.55374e-01,9.99999e-01
1.026704968e+00,8.55204e-01,9.99999e-01,9.97561e-01,9.99155e-01,8.58018e-01,9.99999e-01
1.031838492e+00,8.30992e-01,9.99999e-01,9.66153e-01,9.99386e-01,8.60617e-01,9.99999e-01
1.036997685e+00,1.95250e-01,9.99999e-01,2.26268e-01,9.99635e-01,8.63172e-01,9.99999e-01
1.042182673e+00,2.12819e-01,9.99999e-01,2.45937e-01,9.99564e-01,8.65685e-01,9.99999e-01
1.047393587e+00,2.10955e-01,9.99999e-01,2.43118e-01,9.99423e-01,8.68155e-01,9.99999e-01
1.052630555e+00,1.84657e-02,9.99999e-01,2.12236e-02,9.99208e-01,8.70583e-01,9.99999e-01
1.057893707e+00,3.88734e-02,9.99999e-01,4.45739e-02,9.98677e-01,8.72969e-01,9.99999e-01
1.063183176e+00,9.03039e-02,9.99999e-01,1.03342e-01,9.97825e-01,8.75315e-01,9.99999e-01
1.068499092e+00,1.87700e-01,9.99999e-01,2.14565e-01,9.96362e-01,8.77620e-01,9.99999e-01
1.073841587e+00,3.32457e-01,9.99999e-01,3.79281e-01,9.95738e-01,8.79886e-01,9.99999e-01
1.079210795e+00,4.75564e-01,9.99999e-01,5.41897e-01,9.94550e-01,8.82113e-01,9.99999e-01
1.084606849e+00,6.27496e-01,9.99999e-01,7.15316e-01,9.91752e-01,8.84301e-01,9.99999e-01
1.090029883e+00,7.36441e-01,9.99999e-01,8.40569e-01,9.88137e-01,8.86451e-01,9.99999e-01
1.095480033e+00,7.89877e-01,9.99999e-01,9.18093e-01,9.68021e-01,8.88564e-01,9.99998e-01
1.100957433e+00,7.87098e-01,9.99999e-01,9.59698e-01,9.20601e-01,8.90640e-01,9.99998e-01
1.106462220e+00,7.10690e-01,9.99999e-01,9.83150e-01,8.09447e-01,8.92680e-01,9.99996e-01
1.111994531e+00,5.69995e-01,9.99999e-01,9.93723e-01,6.40922e-01,8.94684e-01,9.99993e-01
1.117554504e+00,4.35223e-01,9.99999e-01,9.98467e-01,4.86039e-01,8.96653e-01,9.99990e-01
1.123142276e+00,5.26545e-01,9.99999e-01,9.99899e-01,5.86012e-01,8.98587e-01,9.99989e-01
1.128757988e+00,6.40651e-01,9.99999e-01,9.99999e-01,7.11457e-01,9.00487e-01,9.99988e-01
1.134401778e+00,4.14806e-01,9.99999e-01,9.99999e-01,4.59699e-01,9.02353e-01,9.99986e-01
1.140073787e+00,7.38904e-01,9.99999e-01,9.99999e-01,8.17211e-01,9.04187e-01,9.99989e-01
1.145774156e+00,5.93606e-01,9.99999e-01,9.99999e-01,6.55208e-01,9.05987e-01,9.99990e-01
1.151503026e+00,5.65759e-01,9.99999e-01,9.99999e-01,6.23254e-01,9.07756e-01,9.99992e-01
1.157260541e+00,6.15375e-01,9.99999e-01,9.99999e-01,6.76617e-01,9.09493e-01,9.99993e-01
1.163046844e+00,6.83163e-01,9.99999e-01,9.99999e-01,7.49743e-01,9.11199e-01,9.99995e-01
1.168862078e+00,7.47852e-01,9.99999e-01,9.99999e-01,8.19229e-01,9.12874e-01,9.99997e-01
1.174706389e+00,8.08649e-01,9.99999e-01,9.99999e-01,8.84234e-01,9.14519e-01,9.99998e-01
1.180579921e+00,8.50062e-01,9.99999e-01,9.99999e-01,9.27879e-01,9.16135e-01,9.99998e-01
1.186482820e+00,8.79735e-01,9.99999e-01,9.99994e-01,9.58613e-01,9.17721e-01,9.99999e-01
1.192415234e+00,8.89098e-01,9.99999e-01,9.91252e-01,9.75641e-01,9.19279e-01,9.99999e-01
1.198377311e+00,5.19166e-01,9.99999e-01,5.73726e-01,9.79414e-01,9.20808e-01,9.99999e-01
1.204369197e+00,5.10493e-08,9.99999e-01,5.59814e-08,9.80509e-01,9.22310e-01,9.99999e-01
1.210391043e+00,5.10904e-27,9.99999e-01,5.58858e-27,9.81360e-01,9.23785e-01,9.99999e-01
1.216442998e+00,1.27806e-23,9.99999e-01,1.39507e-23,9.84136e-01,9.25232e-01,9.99999e-01
1.222525213e+00,2.75978e-23,9.99999e-01,2.99744e-23,9.87628e-01,9.26654e-01,9.99999e-01
1.228637839e+00,5.51028e-18,9.99999e-01,5.97376e-18,9.91392e-01,9.28049e-01,9.99999e-01
