#,Wave/freq,Total,O2,CO2,H2O,Rayleigh,CIA
4.000000000e-01,3.86734e-08,9.99999e-01,9.99999e-01,9.99966e-01,3.86747e-08,9.99999e-01
4.020000000e-01,5.41980e-08,9.99999e-01,9.99999e-01,9.99978e-01,5.41991e-08,9.99999e-01
4.040100000e-01,7.54241e-08,9.99999e-01,9.99999e-01,9.99990e-01,7.54248e-08,9.99999e-01
4.060300500e-01,1.04280e-07,9.99999e-01,9.99999e-01,9.99997e-01,1.04280e-07,9.99999e-01
4.080602003e-01,1.43254e-07,9.99999e-01,9.99999e-01,9.99998e-01,1.43255e-07,9.99999e-01
4.101005013e-01,1.95566e-07,9.99999e-01,9.99999e-01,9.99999e-01,1.95566e-07,9.99999e-01
4.121510038e-01,2.65342e-07,9.99999e-01,9.99999e-01,9.99998e-01,2.65342e-07,9.99999e-01
4.142117588e-01,3.57847e-07,9.99999e-01,9.99999e-01,9.99990e-01,3.57851e-07,9.99999e-01
4.162828176e-01,4.79749e-07,9.99999e-01,9.99999e-01,9.99958e-01,4.79769e-07,9.99999e-01
4.183642317e-01,6.39495e-07,9.99999e-01,9.99999e-01,9.99974e-01,6.39510e-07,9.99999e-01
4.204560528e-01,8.47600e-07,9.99999e-01,9.99999e-01,9.99984e-01,8.47613e-07,9.99999e-01
4.225583331e-01,1.11719e-06,9.99999e-01,9.99999e-01,9.99993e-01,1.11720e-06,9.99999e-01
4.246711247e-01,1.46451e-06,9.99999e-01,9.99999e-01,9.99995e-01,1.46452e-06,9.99999e-01
4.267944804e-01,1.90956e-06,9.99999e-01,9.99999e-01,9.99992e-01,1.90958e-06,9.99999e-01
4.289284528e-01,2.47685e-06,9.99999e-01,9.99999e-01,9.99994e-01,2.47687e-06,9.99999e-01
4.310730950e-01,3.19621e-06,9.99999e-01,9.99999e-01,9.99997e-01,3.19622e-06,9.99999e-01
4.332284605e-01,4.10377e-06,9.99999e-01,9.99999e-01,9.99998e-01,4.10378e-06,9.99999e-01
4.353946028e-01,5.24308e-06,9.99999e-01,9.99999e-01,9.99999e-01,5.24308e-06,9.99999e-01
4.375715758e-01,6.66632e-06,9.99999e-01,9.99999e-01,9.99995e-01,6.66635e-06,9.99999e-01
4.397594337e-01,8.43554e-06,9.99999e-01,9.99999e-01,9.99963e-01,8.43585e-06,9.99999e-01
4.419582309e-01,1.06236e-05,9.99999e-01,9.99999e-01,9.99813e-01,1.06255e-05,9.99999e-01
4.441680220e-01,1.33208e-05,9.99999e-01,9.99999e-01,9.99856e-01,1.33227e-05,9.99999e-01
4.463888621e-01,1.66276e-05,9.99999e-01,9.99999e-01,9.99849e-01,1.66301e-05,9.99999e-01
4.486208064e-01,2.06658e-05,9.99999e-01,9.99999e-01,9.99906e-01,2.06677e-05,9.99999e-01
4.508639105e-01,2.55746e-05,9.99999e-01,9.99999e-01,9.99956e-01,2.55757e-05,9.99999e-01
4.531182300e-01,3.15157e-05,9.99999e-01,9.99999e-01,9.99982e-01,3.15162e-05,9.99999e-01
4.553838212e-01,3.86762e-05,9.99999e-01,9.99999e-01,9.99987e-01,3.86767e-05,9.99999e-01
4.576607403e-01,4.72722e-05,9.99999e-01,9.99999e-01,9.99994e-01,4.72725e-05,9.99999e-01
4.599490440e-01,5.75498e-05,9.99999e-01,9.99999e-01,9.99995e-01,5.75500e-05,9.99999e-01
4.622487892e-01,6.97902e-05,9.99999e-01,9.99999e-01,9.99998e-01,6.97903e-05,9.99999e-01
4.645600332e-01,8.43120e-05,9.99999e-01,9.99999e-01,9.99996e-01,8.43122e-05,9.99999e-01
4.668828333e-01,1.01472e-04,9.99999e-01,9.99999e-01,9.99955e-01,1.01476e-04,9.99999e-01
4.692172475e-01,1.21677e-04,9.99999e-01,9.99999e-01,9.99905e-01,1.21688e-04,9.99999e-01
4.715633337e-01,1.45394e-04,9.99999e-01,9.99999e-01,9.99938e-01,1.45403e-04,9.99999e-01
4.739211504e-01,1.73120e-04,9.99999e-01,9.99999e-01,9.99940e-01,1.73130e-04,9.99999e-01
4.762907561e-01,2.05429e-04,9.99999e-01,9.99999e-01,9.99969e-01,2.05435e-04,9.99999e-01
4.786722099e-01,2.42942e-04,9.99999e-01,9.99999e-01,9.99987e-01,2.42945e-04,9.99999e-01
4.810655710e-01,2.86353e-04,9.99999e-01,9.99999e-01,9.99995e-01,2.86354e-04,9.99999e-01
4.834708988e-01,3.36413e-04,9.99999e-01,9.99999e-01,9.99963e-01,3.36425e-04,9.99999e-01
4.858882533e-01,3.93969e-04,9.99999e-01,9.99999e-01,9.99933e-01,3.93995e-04,9.99999e-01
4.883176946e-01,4.59954e-04,9.99999e-01,9.99999e-01,9.99943e-01,4.59979e-04,9.99999e-01
4.907592831e-01,5.35347e-04,9.99999e-01,9.99999e-01,9.99949e-01,5.35374e-04,9.99999e-01
4.932130795e-01,6.21240e-04,9.99999e-01,9.99999e-01,9.99963e-01,6.21262e-04,9.99999e-01
4.956791449e-01,7.18799e-04,9.99999e-01,9.99999e-01,9.99980e-01,7.18812e-04,9.99999e-01
4.981575406e-01,8.29209e-04,9.99999e-01,9.99999e-01,9.99904e-01,8.29287e-04,9.99999e-01
5.006483283e-01,9.53809e-04,9.99999e-01,9.99999e-01,9.99753e-01,9.54044e-04,9.99999e-01
5.031515699e-01,1.09317e-03,9.99999e-01,9.99999e-01,9.98756e-01,1.09453e-03,9.99999e-01
5.056673278e-01,1.25149e-03,9.99999e-01,9.99999e-01,9.99344e-01,1.25231e-03,9.99999e-01
5.081956644e-01,1.42784e-03,9.99999e-01,9.99999e-01,9.99173e-01,1.42902e-03,9.99999e-01
5.107366428e-01,1.62552e-03,9.99999e-01,9.99999e-01,9.99441e-01,1.62643e-03,9.99999e-01
5.132903260e-01,1.84578e-03,9.99999e-01,9.99999e-01,9.99681e-01,1.84637e-03,9.99999e-01
5.158567776e-01,2.09054e-03,9.99999e-01,9.99999e-01,9.99865e-01,2.09082e-03,9.99999e-01
5.184360615e-01,2.36169e-03,9.99999e-01,9.99999e-01,9.99945e-01,2.36182e-03,9.99999e-01
5.210282418e-01,2.66148e-03,9.99999e-01,9.99999e-01,9.99979e-01,2.66153e-03,9.99999e-01
5.236333830e-01,2.99196e-03,9.99999e-01,9.99999e-01,9.99918e-01,2.99221e-03,9.99999e-01
5.262515499e-01,3.35602e-03,9.99999e-01,9.99999e-01,9.99948e-01,3.35619e-03,9.99999e-01
5.288828077e-01,3.75576e-03,9.99999e-01,9.99999e-01,9.99952e-01,3.75593e-03,9.99999e-01
5.315272217e-01,4.19378e-03,9.99999e-01,9.99999e-01,9.99958e-01,4.19395e-03,9.99999e-01
5.341848578e-01,4.67273e-03,9.99999e-01,9.99999e-01,9.99972e-01,4.67285e-03,9.99999e-01
5.368557821e-01,5.19484e-03,9.99999e-01,9.99999e-01,9.99905e-01,5.19533e-03,9.99999e-01
5.395400610e-01,5.76219e-03,9.99999e-01,9.99999e-01,9.99657e-01,5.76416e-03,9.99999e-01
5.422377613e-01,6.37935e-03,9.99999e-01,9.99999e-01,9.99560e-01,6.38215e-03,9.99999e-01
5.449489501e-01,7.04930e-03,9.99999e-01,9.99999e-01,9.99589e-01,7.05219e-03,9.99999e-01
5.476736949e-01,7.77442e-03,9.99999e-01,9.99999e-01,9.99638e-01,7.77723e-03,9.99999e-01
5.504120634e-01,8.55801e-03,9.99999e-01,9.99999e-01,9.99737e-01,8.56025e-03,9.99999e-01
5.531641237e-01,9.40303e-03,9.99999e-01,9.99999e-01,9.99867e-01,9.40427e-03,9.99999e-01
5.559299443e-01,1.03117e-02,9.99999e-01,9.99999e-01,9.99935e-01,1.03123e-02,9.99999e-01
5.587095940e-01,1.12871e-02,9.99999e-01,9.99999e-01,9.99959e-01,1.12875e-02,9.99999e-01
5.615031420e-01,1.23323e-02,9.99999e-01,9.99999e-01,9.99954e-01,1.23329e-02,9.99999e-01
5.643106577e-01,1.34508e-02,9.99999e-01,9.99999e-01,9.99948e-01,1.34515e-02,9.99999e-01
5.671322110e-01,1.46373e-02,9.99999e-01,9.99999e-01,9.99379e-01,1.46464e-02,9.99999e-01
5.699678720e-01,1.59104e-02,9.99999e-01,9.99999e-01,9.99349e-01,1.59207e-02,9.99999e-01
5.728177114e-01,1.72656e-02,9.99999e-01,9.99999e-01,9.99318e-01,1.72774e-02,9.99999e-01
5.756818000e-01,1.87078e-02,9.99999e-01,9.99999e-01,9.99375e-01,1.87194e-02,9.99999e-01
5.785602090e-01,2.02387e-02,9.99999e-01,9.99999e-01,9.99455e-01,2.02497e-02,9.99999e-01
5.814530100e-01,2.18592e-02,9.99999e-01,9.99999e-01,9.99453e-01,2.18712e-02,9.99999e-01
5.843602750e-01,2.35711e-02,9.99999e-01,9.99999e-01,9.99345e-01,2.35865e-02,9.99999e-01
5.872820764e-01,2.52556e-02,9.99999e-01,9.99999e-01,9.94375e-01,2.53985e-02,9.99999e-01
5.902184868e-01,2.71244e-02,9.99999e-01,9.99999e-01,9.93216e-01,2.73097e-02,9.99999e-01
5.931695792e-01,2.91818e-02,9.99999e-01,9.99999e-01,9.95198e-01,2.93226e-02,9.99999e-01
5.961354271e-01,3.12745e-02,9.99999e-01,9.99999e-01,9.94742e-01,3.14398e-02,9.99999e-01
5.991161043e-01,3.35343e-02,9.99999e-01,9.99999e-01,9.96165e-01,3.36634e-02,9.99999e-01
6.021116848e-01,3.59173e-02,9.99999e-01,9.99999e-01,9.97823e-01,3.59957e-02,9.99999e-01
6.051222432e-01,3.83963e-02,9.99999e-01,9.99999e-01,9.98898e-01,3.84386e-02,9.99999e-01
6.081478544e-01,4.09747e-02,9.99999e-01,9.99999e-01,9.99524e-01,4.09942e-02,9.99999e-01
6.111885937e-01,4.36553e-02,9.99999e-01,9.99999e-01,9.99798e-01,4.36641e-02,9.99999e-01
6.142445367e-01,4.64458e-02,9.99999e-01,9.99999e-01,9.99909e-01,4.64499e-02,9.99999e-01
6.173157594e-01,4.93508e-02,9.99999e-01,9.99999e-01,9.99950e-01,4.93532e-02,9.99999e-01
6.204023382e-01,5.23730e-02,9.99999e-01,9.99999e-01,9.99957e-01,5.23752e-02,9.99999e-01
6.235043498e-01,5.55067e-02,9.99999e-01,9.99999e-01,9.99813e-01,5.55170e-02,9.99999e-01
6.266218716e-01,5.87221e-02,9.99999e-01,9.99999e-01,9.99020e-01,5.87796e-02,9.99999e-01
6.297549810e-01,6.21415e-02,9.99999e-01,9.99999e-01,9.99640e-01,6.21638e-02,9.99999e-01
6.329037559e-01,6.56237e-02,9.99999e-01,9.99999e-01,9.99291e-01,6.56702e-02,9.99999e-01
6.360682746e-01,6.92573e-02,9.99999e-01,9.99999e-01,9.99394e-01,6.92992e-02,9.99999e-01
6.392486160e-01,7.29939e-02,9.99999e-01,9.99999e-01,9.99216e-01,7.30511e-02,9.99999e-01
6.424448591e-01,7.68450e-02,9.99999e-01,9.99999e-01,9.98947e-01,7.69260e-02,9.99999e-01
6.456570834e-01,8.05291e-02,9.99999e-01,9.99999e-01,9.95122e-01,8.09237e-02,9.99999e-01
6.488853688e-01,8.47419e-02,9.99999e-01,9.99999e-01,9.96446e-01,8.50440e-02,9.99999e-01
6.521297956e-01,8.89632e-02,9.99999e-01,9.99999e-01,9.96378e-01,8.92866e-02,9.99999e-01
6.553904446e-01,9.33122e-02,9.99999e-01,9.99999e-01,9.96386e-01,9.36506e-02,9.99999e-01
6.586673968e-01,9.78323e-02,9.99999e-01,9.99999e-01,9.96911e-01,9.81354e-02,9.99999e-01
6.619607338e-01,1.02563e-01,9.99999e-01,9.99999e-01,9.98277e-01,1.02740e-01,9.99999e-01
6.652705375e-01,1.07352e-01,9.99999e-01,9.99999e-01,9.98966e-01,1.07463e-01,9.99999e-01
6.685968902e-01,1.12255e-01,9.99999e-01,9.99999e-01,9.99560e-01,1.12304e-01,9.99999e-01
6.719398746e-01,1.17235e-01,9.99999e-01,9.99999e-01,9.99777e-01,1.17261e-01,9.99999e-01
6.752995740e-01,1.22317e-01,9.99999e-01,9.99999e-01,9.99878e-01,1.22332e-01,9.99999e-01
6.786760719e-01,1.27493e-01,9.99999e-01,9.99999e-01,9.99824e-01,1.27515e-01,9.99999e-01
6.820694522e-01,1.32770e-01,9.99999e-01,9.99999e-01,9.99700e-01,1.32810e-01,9.99999e-01
6.854797995e-01,1.38159e-01,9.99999e-01,9.99999e-01,9.99614e-01,1.38213e-01,9.99999e-01
6.889071985e-01,1.43587e-01,9.99999e-01,9.99999e-01,9.99059e-01,1.43722e-01,9.99999e-01
6.923517345e-01,1.47069e-01,9.99999e-01,9.99999e-01,9.84820e-01,1.49336e-01,9.99999e-01
6.958134932e-01,1.53837e-01,9.99999e-01,9.99999e-01,9.92160e-01,1.55052e-01,9.99999e-01
6.992925606e-01,1.59657e-01,9.99999e-01,9.99999e-01,9.92475e-01,1.60867e-01,9.99999e-01
7.027890234e-01,1.65237e-01,9.99999e-01,9.99999e-01,9.90751e-01,1.66779e-01,9.99999e-01
7.063029686e-01,1.71440e-01,9.99999e-01,9.99999e-01,9.92215e-01,1.72785e-01,9.99999e-01
7.098344834e-01,1.77546e-01,9.99999e-01,9.99999e-01,9.92529e-01,1.78882e-01,9.99999e-01
7.133836558e-01,1.83217e-01,9.99999e-01,9.99999e-01,9.89998e-01,1.85068e-01,9.99999e-01
7.169505741e-01,1.76538e-01,9.99999e-01,9.99999e-01,9.22647e-01,1.91339e-01,9.99998e-01
7.205353270e-01,1.90117e-01,9.99999e-01,9.99999e-01,9.61684e-01,1.97692e-01,9.99998e-01
7.241380036e-01,1.94164e-01,9.99999e-01,9.99999e-01,9.51206e-01,2.04125e-01,9.99998e-01
7.277586936e-01,2.01341e-01,9.99999e-01,9.99999e-01,9.55886e-01,2.10633e-01,9.99998e-01
7.313974871e-01,2.07063e-01,9.99999e-01,9.99999e-01,9.53266e-01,2.17214e-01,9.99998e-01
7.350544745e-01,2.18084e-01,9.99999e-01,9.99999e-01,9.74173e-01,2.23865e-01,9.99999e-01
7.387297469e-01,2.26186e-01,9.99999e-01,9.99999e-01,9.80934e-01,2.30582e-01,9.99999e-01
7.424233956e-01,2.35140e-01,9.99999e-01,9.99999e-01,9.90637e-01,2.37362e-01,9.99999e-01
7.461355126e-01,2.42813e-01,9.99999e-01,9.99999e-01,9.94312e-01,2.44202e-01,9.99999e-01
7.498661902e-01,2.50433e-01,9.99999e-01,9.99999e-01,9.97352e-01,2.51098e-01,9.99999e-01
7.536155211e-01,2.57710e-01,9.99999e-01,9.99999e-01,9.98698e-01,2.58046e-01,9.99999e-01
7.573835987e-01,2.64866e-01,9.99999e-01,9.99999e-01,9.99329e-01,2.65044e-01,9.99999e-01
7.611705167e-01,2.71974e-01,9.99999e-01,9.99999e-01,9.99583e-01,2.72087e-01,9.99999e-01
7.649763693e-01,2.79101e-01,9.99999e-01,9.99999e-01,9.99738e-01,2.79174e-01,9.99999e-01
7.688012511e-01,2.86247e-01,9.99999e-01,9.99999e-01,9.99817e-01,2.86299e-01,9.99999e-01
7.726452574e-01,2.93416e-01,9.99999e-01,9.99999e-01,9.99849e-01,2.93460e-01,9.99999e-01
7.765084837e-01,3.00589e-01,9.99999e-01,9.99999e-01,9.99786e-01,3.00653e-01,9.99999e-01
7.803910261e-01,2.91302e-01,9.99999e-01,9.46998e-01,9.99076e-01,3.07876e-01,9.99999e-01
7.842929812e-01,2.46257e-01,9.99999e-01,7.83798e-01,9.96779e-01,3.15124e-01,9.99999e-01
7.882144461e-01,2.46900e-01,9.99999e-01,7.70608e-01,9.93400e-01,3.22394e-01,9.99999e-01
7.921555184e-01,2.81434e-01,9.99999e-01,8.56629e-01,9.96385e-01,3.29684e-01,9.99999e-01
7.961162960e-01,3.01912e-01,9.99999e-01,9.01607e-01,9.93585e-01,3.36990e-01,9.99999e-01
8.000968774e-01,3.23090e-01,9.99999e-01,9.45325e-01,9.92612e-01,3.44308e-01,9.99999e-01
8.040973618e-01,3.39042e-01,9.99999e-01,9.71341e-01,9.92605e-01,3.51637e-01,9.99999e-01
8.081178486e-01,3.48319e-01,9.99999e-01,9.86710e-01,9.83357e-01,3.58971e-01,9.99999e-01
8.121584379e-01,3.40218e-01,9.99999e-01,9.95897e-01,9.32536e-01,3.66310e-01,9.99998e-01
8.162192301e-01,3.43759e-01,9.99999e-01,9.99092e-01,9.20816e-01,3.73649e-01,9.99998e-01
8.203003262e-01,3.65586e-01,9.99999e-01,9.99986e-01,9.59590e-01,3.80985e-01,9.99998e-01
8.244018279e-01,3.66848e-01,9.99999e-01,9.99999e-01,9.44712e-01,3.88317e-01,9.99998e-01
8.285238370e-01,3.76567e-01,9.99999e-01,9.99999e-01,9.51790e-01,3.95641e-01,9.99998e-01
8.326664562e-01,3.83365e-01,9.99999e-01,9.99999e-01,9.51386e-01,4.02954e-01,9.99998e-01
8.368297885e-01,3.95908e-01,9.99999e-01,9.99999e-01,9.65032e-01,4.10254e-01,9.99999e-01
8.410139374e-01,4.08803e-01,9.99999e-01,9.99999e-01,9.79079e-01,4.17538e-01,9.99999e-01
8.452190071e-01,4.20425e-01,9.99999e-01,9.99999e-01,9.89693e-01,4.24803e-01,9.99999e-01
8.494451021e-01,4.29455e-01,9.99999e-01,9.99999e-01,9.93998e-01,4.32048e-01,9.99999e-01
8.536923276e-01,4.37712e-01,9.99999e-01,9.99999e-01,9.96453e-01,4.39270e-01,9.99999e-01
8.579607893e-01,4.45489e-01,9.99999e-01,9.99999e-01,9.97811e-01,4.46466e-01,9.99999e-01
8.622505932e-01,4.53004e-01,9.99999e-01,9.99999e-01,9.98610e-01,4.53634e-01,9.99999e-01
8.665618462e-01,4.14495e-01,9.99999e-01,9.00299e-01,9.99138e-01,4.60773e-01,9.99999e-01
8.708946554e-01,2.53352e-01,9.99999e-01,5.41996e-01,9.99013e-01,4.67879e-01,9.99999e-01
8.752491287e-01,2.88150e-01,9.99999e-01,6.07460e-01,9.98680e-01,4.74951e-01,9.99999e-01
8.796253743e-01,3.64943e-01,9.99999e-01,7.58484e-01,9.98170e-01,4.81988e-01,9.99999e-01
8.840235012e-01,4.22450e-01,9.99999e-01,8.65694e-01,9.97911e-01,4.88987e-01,9.99999e-01
8.884436187e-01,4.65006e-01,9.99999e-01,9.44738e-01,9.92339e-01,4.95946e-01,9.99999e-01
8.928858368e-01,4.53559e-01,9.99999e-01,9.77204e-01,9.22692e-01,5.02863e-01,9.99998e-01
8.973502660e-01,4.40072e-01,9.99999e-01,9.94432e-01,8.68003e-01,5.09738e-01,9.99997e-01
9.018370173e-01,4.80405e-01,9.99999e-01,9.99385e-01,9.30538e-01,5.16568e-01,9.99997e-01
9.063462024e-01,4.83576e-01,9.99999e-01,9.84162e-01,9.38113e-01,5.23352e-01,9.99997e-01
9.108779334e-01,4.63117e-01,9.99999e-01,9.64251e-01,9.05403e-01,5.30089e-01,9.99996e-01
9.154323231e-01,4.75559e-01,9.99999e-01,9.91535e-01,8.93259e-01,5.36777e-01,9.99996e-01
9.200094847e-01,4.44344e-01,9.99999e-01,8.86811e-01,9.15552e-01,5.43414e-01,9.99995e-01
9.246095321e-01,4.03010e-01,9.99999e-01,8.36985e-01,8.71246e-01,5.50000e-01,9.99993e-01
9.292325798e-01,2.00980e-01,9.99999e-01,8.69924e-01,4.06488e-01,5.56533e-01,9.99986e-01
9.338787427e-01,1.58596e-01,9.99999e-01,8.74099e-01,3.15962e-01,5.63013e-01,9.99982e-01
9.385481364e-01,3.26164e-01,9.99999e-01,9.05587e-01,6.27127e-01,5.69438e-01,9.99981e-01
9.432408771e-01,2.86671e-01,9.99999e-01,9.41079e-01,5.26429e-01,5.75807e-01,9.99979e-01
9.479570815e-01,2.35023e-01,9.99999e-01,9.69283e-01,4.15509e-01,5.82119e-01,9.99982e-01
9.526968669e-01,2.97907e-01,9.99999e-01,9.85092e-01,5.13025e-01,5.88374e-01,9.99986e-01
9.574603512e-01,3.16153e-01,9.99999e-01,9.93599e-01,5.34810e-01,5.94570e-01,9.99989e-01
9.622476530e-01,3.59366e-01,9.99999e-01,9.98000e-01,5.99328e-01,6.00708e-01,9.99993e-01
9.670588912e-01,4.50940e-01,9.99999e-01,9.99401e-01,7.43574e-01,6.06786e-01,9.99995e-01
9.718941857e-01,5.08341e-01,9.99999e-01,9.99957e-01,8.29566e-01,6.12803e-01,9.99997e-01
9.767536566e-01,5.29803e-01,9.99999e-01,9.99999e-01,8.56235e-01,6.18759e-01,9.99997e-01
9.816374249e-01,5.56773e-01,9.99999e-01,9.99999e-01,8.91330e-01,6.24654e-01,9.99998e-01
9.865456120e-01,5.86735e-01,9.99999e-01,9.99999e-01,9.30605e-01,6.30487e-01,9.99998e-01
9.914783401e-01,6.08572e-01,9.99999e-01,9.99999e-01,9.56485e-01,6.36258e-01,9.99999e-01
9.964357318e-01,6.26603e-01,9.99999e-01,9.99999e-01,9.76068e-01,6.41966e-01,9.99999e-01
1.001417910e+00,6.38279e-01,9.99999e-01,9.99999e-01,9.85589e-01,6.47611e-01,9.99999e-01
1.006425000e+00,6.47806e-01,9.99999e-01,9.99999e-01,9.91752e-01,6.53192e-01,9.99999e-01
1.011457125e+00,6.55338e-01,9.99999e-01,9.99999e-01,9.94880e-01,6.58710e-01,9.99999e-01
1.016514411e+00,6.61853e-01,9.99999e-01,9.99999e-01,9.96519e-01,6.64164e-01,9.99999e-01
1.021596983e+00,6.67637e-01,9.99999e-01,9.99908e-01,9.97224e-01,6.69555e-01,9.99999e-01
1.026704968e+00,6.69222e-01,9.99999e-01,9.93761e-01,9.97834e-01,6.74881e-01,9.99999e-01
1.031838492e+00,6.35629e-01,9.99999e-01,9.35962e-01,9.98427e-01,6.80143e-01,9.99999e-01
1.036997685e+00,6.54922e-02,9.99999e-01,9.56303e-02,9.99064e-01,6.85341e-01,9.99999e-01
1.042182673e+00,2.50635e-02,9.99999e-01,3.63329e-02,9.98882e-01,6.90475e-01,9.99999e-01
1.047393587e+00,3.98456e-02,9.99999e-01,5.73600e-02,9.98520e-01,6.95545e-01,9.99999e-01
1.052630555e+00,1.77204e-04,9.99999e-01,2.53301e-04,9.97968e-01,7.00551e-01,9.99999e-01
1.057893707e+00,5.78936e-04,9.99999e-01,8.22293e-04,9.96608e-01,7.05493e-01,9.99999e-01
1.063183176e+00,3.57282e-03,9.99999e-01,5.04786e-03,9.94426e-01,7.10371e-01,9.99999e-01
1.068499092e+00,1.58014e-02,9.99999e-01,2.22548e-02,9.90689e-01,7.15186e-01,9.99999e-01
1.073841587e+00,6.37461e-02,9.99999e-01,8.93244e-02,9.89103e-01,7.19937e-01,9.99999e-01
1.079210795e+00,1.55214e-01,9.99999e-01,2.16813e-01,9.86077e-01,7.24625e-01,9.99999e-01
1.084606849e+00,3.05667e-01,9.99999e-01,4.27505e-01,9.78982e-01,7.29250e-01,9.99998e-01
1.090029883e+00,4.57679e-01,9.99999e-01,6.42208e-01,9.69872e-01,7.33812e-01,9.99998e-01
1.095480033e+00,5.46880e-01,9.99999e-01,8.03866e-01,9.20106e-01,7.38312e-01,9.99997e-01
1.100957433e+00,5.42294e-01,9.99999e-01,8.99981e-01,8.09812e-01,7.42750e-01,9.99995e-01
1.106462220e+00,4.22143e-01,9.99999e-01,9.57368e-01,5.88740e-01,7.47126e-01,9.99991e-01
1.111994531e+00,2.46793e-01,9.99999e-01,9.83975e-01,3.33194e-01,7.51440e-01,9.99983e-01
1.117554504e+00,1.30308e-01,9.99999e-01,9.96074e-01,1.72936e-01,7.55694e-01,9.99977e-01
1.123142276e+00,2.18346e-01,9.99999e-01,9.99742e-01,2.87371e-01,7.59887e-01,9.99973e-01
1.128757988e+00,3.34273e-01,9.99999e-01,9.99999e-01,4.37531e-01,7.64019e-01,9.99970e-01
1.134401778e+00,1.66226e-01,9.99999e-01,9.99999e-01,2.16421e-01,7.68092e-01,9.99967e-01
1.140073787e+00,4.66649e-01,9.99999e-01,9.99999e-01,6.04400e-01,7.72106e-01,9.99973e-01
1.145774156e+00,2.78848e-01,9.99999e-01,9.99999e-01,3.59320e-01,7.76060e-01,9.99977e-01
1.151503026e+00,2.51359e-01,9.99999e-01,9.99999e-01,3.22279e-01,7.79956e-01,9.99980e-01
1.157260541e+00,2.96051e-01,9.99999e-01,9.99999e-01,3.77720e-01,7.83794e-01,9.99985e-01
1.163046844e+00,3.82453e-01,9.99999e-01,9.99999e-01,4.85612e-01,7.87575e-01,9.99990e-01
1.168862078e+00,4.76426e-01,9.99999e-01,9.99999e-01,6.02083e-01,7.91298e-01,9.99994e-01
1.174706389e+00,5.81077e-01,9.99999e-01,9.99999e-01,7.30947e-01,7.94966e-01,9.99997e-01
1.180579921e+00,6.59618e-01,9.99999e-01,9.99999e-01,8.25992e-01,7.98577e-01,9.99997e-01
1.186482820e+00,7.19795e-01,9.99999e-01,9.99986e-01,8.97363e-01,8.02133e-01,9.99998e-01
1.192415234e+00,7.39969e-01,9.99999e-01,9.78087e-01,9.38690e-01,8.05634e-01,9.99998e-01
1.198377311e+00,4.22597e-01,9.99999e-01,5.46090e-01,9.48039e-01,8.09080e-01,9.99998e-01
1.204369197e+00,4.59510e-17,9.99999e-01,5.82302e-17,9.50826e-01,8.12473e-01,9.99998e-01
1.210391043e+00,7.48190e-66,9.99999e-01,9.42024e-66,9.52904e-01,8.15813e-01,9.99998e-01
1.216442998e+00,3.96713e-57,9.99999e-01,4.96787e-57,9.59834e-01,8.19100e-01,9.99999e-01
1.222525213e+00,2.78205e-56,9.99999e-01,3.43924e-56,9.68564e-01,8.22335e-01,9.99999e-01
1.228637839e+00,1.46537e-43,9.99999e-01,1.80211e-43,9.78058e-01,8.25518e-01,9.99999e-01
