#,Wave/freq,Total,O2,CO2,H2O,Rayleigh,CIA
4.000000000e-01,2.75644e-16,9.99999e-01,9.99999e-01,9.99929e-01,2.75663e-16,9.99999e-01
4.020000000e-01,5.59776e-16,9.99999e-01,9.99999e-01,9.99956e-01,5.59801e-16,9.99999e-01
4.040100000e-01,1.12018e-15,9.99999e-01,9.99999e-01,9.99981e-01,1.12020e-15,9.99999e-01
4.060300500e-01,2.21110e-15,9.99999e-01,9.99999e-01,9.99995e-01,2.21111e-15,9.99999e-01
4.080602003e-01,4.30616e-15,9.99999e-01,9.99999e-01,9.99998e-01,4.30617e-15,9.99999e-01
4.101005013e-01,8.27663e-15,9.99999e-01,9.99999e-01,9.99999e-01,8.27663e-15,9.99999e-01
4.121510038e-01,1.57040e-14,9.99999e-01,9.99999e-01,9.99996e-01,1.57040e-14,9.99999e-01
4.142117588e-01,2.94215e-14,9.99999e-01,9.99999e-01,9.99980e-01,2.94221e-14,9.99999e-01
4.162828176e-01,5.44394e-14,9.99999e-01,9.99999e-01,9.99912e-01,5.44441e-14,9.99999e-01
4.183642317e-01,9.95237e-14,9.99999e-01,9.99999e-01,9.99947e-01,9.95288e-14,9.99999e-01
4.204560528e-01,1.79787e-13,9.99999e-01,9.99999e-01,9.99967e-01,1.79792e-13,9.99999e-01
4.225583331e-01,3.21008e-13,9.99999e-01,9.99999e-01,9.99987e-01,3.21012e-13,9.99999e-01
4.246711247e-01,5.66623e-13,9.99999e-01,9.99999e-01,9.99990e-01,5.66629e-13,9.99999e-01
4.267944804e-01,9.88997e-13,9.99999e-01,9.99999e-01,9.99985e-01,9.89011e-13,9.99999e-01
4.289284528e-01,1.70734e-12,9.99999e-01,9.99999e-01,9.99988e-01,1.70736e-12,9.99999e-01
4.310730950e-01,2.91584e-12,9.99999e-01,9.99999e-01,9.99994e-01,2.91586e-12,9.99999e-01
4.332284605e-01,4.92737e-12,9.99999e-01,9.99999e-01,9.99998e-01,4.92738e-12,9.99999e-01
4.353946028e-01,8.24071e-12,9.99999e-01,9.99999e-01,9.99998e-01,8.24071e-12,9.99999e-01
4.375715758e-01,1.36426e-11,9.99999e-01,9.99999e-01,9.99990e-01,1.36427e-11,9.99999e-01
4.397594337e-01,2.23605e-11,9.99999e-01,9.99999e-01,9.99923e-01,2.23622e-11,9.99999e-01
4.419582309e-01,3.62843e-11,9.99999e-01,9.99999e-01,9.99610e-01,3.62984e-11,9.99999e-01
4.441680220e-01,5.83412e-11,9.99999e-01,9.99999e-01,9.99698e-01,5.83588e-11,9.99999e-01
4.463888621e-01,9.29211e-11,9.99999e-01,9.99999e-01,9.99684e-01,9.29503e-11,9.99999e-01
4.486208064e-01,1.46662e-10,9.99999e-01,9.99999e-01,9.99804e-01,1.46691e-10,9.99999e-01
4.508639105e-01,2.29404e-10,9.99999e-01,9.99999e-01,9.99908e-01,2.29425e-10,9.99999e-01
4.531182300e-01,3.55653e-10,9.99999e-01,9.99999e-01,9.99963e-01,3.55666e-10,9.99999e-01
4.553838212e-01,5.46602e-10,9.99999e-01,9.99999e-01,9.99975e-01,5.46616e-10,9.99999e-01
4.576607403e-01,8.32973e-10,9.99999e-01,9.99999e-01,9.99988e-01,8.32982e-10,9.99999e-01
4.599490440e-01,1.25885e-09,9.99999e-01,9.99999e-01,9.99991e-01,1.25886e-09,9.99999e-01
4.622487892e-01,1.88700e-09,9.99999e-01,9.99999e-01,9.99998e-01,1.88701e-09,9.99999e-01
4.645600332e-01,2.80605e-09,9.99999e-01,9.99999e-01,9.99993e-01,2.80607e-09,9.99999e-01
4.668828333e-01,4.13980e-09,9.99999e-01,9.99999e-01,9.99906e-01,4.14018e-09,9.99999e-01
4.692172475e-01,6.06064e-09,9.99999e-01,9.99999e-01,9.99802e-01,6.06184e-09,9.99999e-01
4.715633337e-01,8.80769e-09,9.99999e-01,9.99999e-01,9.99870e-01,8.80883e-09,9.99999e-01
4.739211504e-01,1.27049e-08,9.99999e-01,9.99999e-01,9.99876e-01,1.27065e-08,9.99999e-01
4.762907561e-01,1.81955e-08,9.99999e-01,9.99999e-01,9.99935e-01,1.81966e-08,9.99999e-01
4.786722099e-01,2.58740e-08,9.99999e-01,9.99999e-01,9.99973e-01,2.58747e-08,9.99999e-01
4.810655710e-01,3.65373e-08,9.99999e-01,9.99999e-01,9.99991e-01,3.65376e-08,9.99999e-01
4.834708988e-01,5.12402e-08,9.99999e-01,9.99999e-01,9.99923e-01,5.12441e-08,9.99999e-01
4.858882533e-01,7.13816e-08,9.99999e-01,9.99999e-01,9.99860e-01,7.13916e-08,9.99999e-01
4.883176946e-01,9.87994e-08,9.99999e-01,9.99999e-01,9.99882e-01,9.88109e-08,9.99999e-01
4.907592831e-01,1.35872e-07,9.99999e-01,9.99999e-01,9.99894e-01,1.35886e-07,9.99999e-01
4.932130795e-01,1.85686e-07,9.99999e-01,9.99999e-01,9.99924e-01,1.85700e-07,9.99999e-01
4.956791449e-01,2.52204e-07,9.99999e-01,9.99999e-01,9.99959e-01,2.52214e-07,9.99999e-01
4.981575406e-01,3.40420e-07,9.99999e-01,9.99999e-01,9.99800e-01,3.40487e-07,9.99999e-01
5.006483283e-01,4.56703e-07,9.99999e-01,9.99999e-01,9.99483e-01,4.56939e-07,9.99999e-01
5.031515699e-01,6.08076e-07,9.99999e-01,9.99999e-01,9.97393e-01,6.09665e-07,9.99999e-01
5.056673278e-01,8.07707e-07,9.99999e-01,9.99999e-01,9.98625e-01,8.08819e-07,9.99999e-01
5.081956644e-01,1.06520e-06,9.99999e-01,9.99999e-01,9.98266e-01,1.06705e-06,9.99999e-01
5.107366428e-01,1.39841e-06,9.99999e-01,9.99999e-01,9.98829e-01,1.40005e-06,9.99999e-01
5.132903260e-01,1.82592e-06,9.99999e-01,9.99999e-01,9.99331e-01,1.82714e-06,9.99999e-01
5.158567776e-01,2.37134e-06,9.99999e-01,9.99999e-01,9.99717e-01,2.37201e-06,9.99999e-01
5.184360615e-01,3.06318e-06,9.99999e-01,9.99999e-01,9.99886e-01,3.06353e-06,9.99999e-01
5.210282418e-01,3.93654e-06,9.99999e-01,9.99999e-01,9.99957e-01,3.93670e-06,9.99999e-01
5.236333830e-01,5.03290e-06,9.99999e-01,9.99999e-01,9.99829e-01,5.03376e-06,9.99999e-01
5.262515499e-01,6.40467e-06,9.99999e-01,9.99999e-01,9.99893e-01,6.40535e-06,9.99999e-01
5.288828077e-01,8.11119e-06,9.99999e-01,9.99999e-01,9.99901e-01,8.11198e-06,9.99999e-01
5.315272217e-01,1.02246e-05,9.99999e-01,9.99999e-01,9.99914e-01,1.02255e-05,9.99999e-01
5.341848578e-01,1.28301e-05,9.99999e-01,9.99999e-01,9.99943e-01,1.28308e-05,9.99999e-01
5.368557821e-01,1.60248e-05,9.99999e-01,9.99999e-01,9.99801e-01,1.60280e-05,9.99999e-01
5.395400610e-01,1.99197e-05,9.99999e-01,9.99999e-01,9.99282e-01,1.99340e-05,9.99999e-01
5.422377613e-01,2.46626e-05,9.99999e-01,9.99999e-01,9.99078e-01,2.46854e-05,9.99999e-01
5.449489501e-01,3.04142e-05,9.99999e-01,9.99999e-01,9.99140e-01,3.04404e-05,9.99999e-01
5.476736949e-01,3.73537e-05,9.99999e-01,9.99999e-01,9.99240e-01,3.73821e-05,9.99999e-01
5.504120634e-01,4.56956e-05,9.99999e-01,9.99999e-01,9.99448e-01,4.57208e-05,9.99999e-01
5.531641237e-01,5.56823e-05,9.99999e-01,9.99999e-01,9.99722e-01,5.56977e-05,9.99999e-01
5.559299443e-01,6.75787e-05,9.99999e-01,9.99999e-01,9.99865e-01,6.75877e-05,9.99999e-01
5.587095940e-01,8.16962e-05,9.99999e-01,9.99999e-01,9.99915e-01,8.17030e-05,9.99999e-01
5.615031420e-01,9.83878e-05,9.99999e-01,9.99999e-01,9.99906e-01,9.83970e-05,9.99999e-01
5.643106577e-01,1.18055e-04,9.99999e-01,9.99999e-01,9.99893e-01,1.18067e-04,9.99999e-01
5.671322110e-01,1.40978e-04,9.99999e-01,9.99999e-01,9.98702e-01,1.41161e-04,9.99999e-01
5.699678720e-01,1.67948e-04,9.99999e-01,9.99999e-01,9.98633e-01,1.68178e-04,9.99999e-01
5.728177114e-01,1.99387e-04,9.99999e-01,9.99999e-01,9.98571e-01,1.99673e-04,9.99999e-01
5.756818000e-01,2.35954e-04,9.99999e-01,9.99999e-01,9.98690e-01,2.36263e-04,9.99999e-01
5.785602090e-01,2.78314e-04,9.99999e-01,9.99999e-01,9.98858e-01,2.78632e-04,9.99999e-01
5.814530100e-01,3.27154e-04,9.99999e-01,9.99999e-01,9.98852e-01,3.27529e-04,9.99999e-01
5.843602750e-01,3.83254e-04,9.99999e-01,9.99999e-01,9.98629e-01,3.83780e-04,9.99999e-01
5.872820764e-01,4.43023e-04,9.99999e-01,9.99999e-01,9.88259e-01,4.48286e-04,9.99999e-01
5.902184868e-01,5.14626e-04,9.99999e-01,9.99999e-01,9.85817e-01,5.22030e-04,9.99999e-01
5.931695792e-01,5.99994e-04,9.99999e-01,9.99999e-01,9.89960e-01,6.06079e-04,9.99999e-01
5.961354271e-01,6.93871e-04,9.99999e-01,9.99999e-01,9.89000e-01,7.01588e-04,9.99999e-01
5.991161043e-01,8.03299e-04,9.99999e-01,9.99999e-01,9.91967e-01,8.09804e-04,9.99999e-01
6.021116848e-01,9.27814e-04,9.99999e-01,9.99999e-01,9.95436e-01,9.32067e-04,9.99999e-01
6.051222432e-01,1.06734e-03,9.99999e-01,9.99999e-01,9.97688e-01,1.06981e-03,9.99999e-01
6.081478544e-01,1.22336e-03,9.99999e-01,9.99999e-01,9.99002e-01,1.22458e-03,9.99999e-01
6.111885937e-01,1.39741e-03,9.99999e-01,9.99999e-01,9.99577e-01,1.39800e-03,9.99999e-01
6.142445367e-01,1.59150e-03,9.99999e-01,9.99999e-01,9.99811e-01,1.59180e-03,9.99999e-01
6.173157594e-01,1.80765e-03,9.99999e-01,9.99999e-01,9.99895e-01,1.80784e-03,9.99999e-01
6.204023382e-01,2.04785e-03,9.99999e-01,9.99999e-01,9.99911e-01,2.04803e-03,9.99999e-01
6.235043498e-01,2.31353e-03,9.99999e-01,9.99999e-01,9.99609e-01,2.31443e-03,9.99999e-01
6.266218716e-01,2.60382e-03,9.99999e-01,9.99999e-01,9.97946e-01,2.60918e-03,9.99999e-01
6.297549810e-01,2.93229e-03,9.99999e-01,9.99999e-01,9.99246e-01,2.93450e-03,9.99999e-01
6.329037559e-01,3.28783e-03,9.99999e-01,9.99999e-01,9.98512e-01,3.29273e-03,9.99999e-01
6.360682746e-01,3.68162e-03,9.99999e-01,9.99999e-01,9.98731e-01,3.68630e-03,9.99999e-01
6.392486160e-01,4.11095e-03,9.99999e-01,9.99999e-01,9.98357e-01,4.11772e-03,9.99999e-01
6.424448591e-01,4.57946e-03,9.99999e-01,9.99999e-01,9.97795e-01,4.58958e-03,9.99999e-01
6.456570834e-01,5.05254e-03,9.99999e-01,9.99999e-01,9.89808e-01,5.10456e-03,9.99999e-01
6.488853688e-01,5.62327e-03,9.99999e-01,9.99999e-01,9.92560e-01,5.66542e-03,9.99999e-01
6.521297956e-01,6.22740e-03,9.99999e-01,9.99999e-01,9.92419e-01,6.27497e-03,9.99999e-01
6.553904446e-01,6.88361e-03,9.99999e-01,9.99999e-01,9.92434e-01,6.93608e-03,9.99999e-01
6.586673968e-01,7.60218e-03,9.99999e-01,9.99999e-01,9.93529e-01,7.65169e-03,9.99999e-01
6.619607338e-01,8.39435e-03,9.99999e-01,9.99999e-01,9.96388e-01,8.42478e-03,9.99999e-01
6.652705375e-01,9.23827e-03,9.99999e-01,9.99999e-01,9.97830e-01,9.25835e-03,9.99999e-01
6.685968902e-01,1.01461e-02,9.99999e-01,9.99999e-01,9.99077e-01,1.01555e-02,9.99999e-01
6.719398746e-01,1.11140e-02,9.99999e-01,9.99999e-01,9.99533e-01,1.11192e-02,9.99999e-01
6.752995740e-01,1.21495e-02,9.99999e-01,9.99999e-01,9.99746e-01,1.21525e-02,9.99999e-01
6.786760719e-01,1.32538e-02,9.99999e-01,9.99999e-01,9.99633e-01,1.32587e-02,9.99999e-01
6.820694522e-01,1.44315e-02,9.99999e-01,9.99999e-01,9.99372e-01,1.44406e-02,9.99999e-01
6.854797995e-01,1.56887e-02,9.99999e-01,9.99999e-01,9.99191e-01,1.57014e-02,9.99999e-01
6.889071985e-01,1.70105e-02,9.99999e-01,9.99999e-01,9.98033e-01,1.70440e-02,9.99999e-01
6.923517345e-01,1.78896e-02,9.99999e-01,9.99999e-01,9.68494e-01,1.84715e-02,9.99999e-01
6.958134932e-01,1.96596e-02,9.99999e-01,9.99999e-01,9.83627e-01,1.99868e-02,9.99999e-01
6.992925606e-01,2.12538e-02,9.99999e-01,9.99999e-01,9.84301e-01,2.15928e-02,9.99999e-01
7.027890234e-01,2.28427e-02,9.99999e-01,9.99999e-01,9.80701e-01,2.32922e-02,9.99999e-01
7.063029686e-01,2.46797e-02,9.99999e-01,9.99999e-01,9.83736e-01,2.50878e-02,9.99999e-01
7.098344834e-01,2.65609e-02,9.99999e-01,9.99999e-01,9.84387e-01,2.69821e-02,9.99999e-01
7.133836558e-01,2.83749e-02,9.99999e-01,9.99999e-01,9.79191e-01,2.89779e-02,9.99998e-01
7.169505741e-01,2.63029e-02,9.99999e-01,9.99999e-01,8.46367e-01,3.10774e-02,9.99997e-01
7.205353270e-01,3.06798e-02,9.99999e-01,9.99999e-01,9.21788e-01,3.32830e-02,9.99997e-01
7.241380036e-01,3.20742e-02,9.99999e-01,9.99999e-01,9.01041e-01,3.55969e-02,9.99997e-01
7.277586936e-01,3.46111e-02,9.99999e-01,9.99999e-01,9.10312e-01,3.80212e-02,9.99997e-01
7.313974871e-01,3.66966e-02,9.99999e-01,9.99999e-01,9.04799e-01,4.05577e-02,9.99998e-01
7.350544745e-01,4.09051e-02,9.99999e-01,9.99999e-01,9.46695e-01,4.32083e-02,9.99998e-01
7.387297469e-01,4.41559e-02,9.99999e-01,9.99999e-01,9.60441e-01,4.59746e-02,9.99999e-01
7.424233956e-01,4.79029e-02,9.99999e-01,9.99999e-01,9.80447e-01,4.88581e-02,9.99999e-01
7.461355126e-01,5.12429e-02,9.99999e-01,9.99999e-01,9.88097e-01,5.18601e-02,9.99999e-01
7.498661902e-01,5.46765e-02,9.99999e-01,9.99999e-01,9.94446e-01,5.49818e-02,9.99999e-01
7.536155211e-01,5.80651e-02,9.99999e-01,9.99999e-01,9.97269e-01,5.82241e-02,9.99999e-01
7.573835987e-01,6.15013e-02,9.99999e-01,9.99999e-01,9.98593e-01,6.15878e-02,9.99999e-01
7.611705167e-01,6.50168e-02,9.99999e-01,9.99999e-01,9.99125e-01,6.50737e-02,9.99999e-01
7.649763693e-01,6.86445e-02,9.99999e-01,9.99999e-01,9.99451e-01,6.86821e-02,9.99999e-01
7.688012511e-01,7.23857e-02,9.99999e-01,9.99999e-01,9.99617e-01,7.24134e-02,9.99999e-01
7.726452574e-01,7.62437e-02,9.99999e-01,9.99999e-01,9.99685e-01,7.62676e-02,9.99999e-01
7.765084837e-01,8.02089e-02,9.99999e-01,9.99999e-01,9.99552e-01,8.02448e-02,9.99999e-01
7.803910261e-01,7.62258e-02,9.99999e-01,9.05342e-01,9.98065e-01,8.43446e-02,9.99999e-01
7.842929812e-01,5.39788e-02,9.99999e-01,6.13065e-01,9.93262e-01,8.85666e-02,9.99999e-01
7.882144461e-01,5.47418e-02,9.99999e-01,5.96530e-01,9.86205e-01,9.29104e-02,9.99999e-01
7.921555184e-01,7.02118e-02,9.99999e-01,7.26151e-01,9.92429e-01,9.73750e-02,9.99999e-01
7.961162960e-01,8.10439e-02,9.99999e-01,8.05334e-01,9.86605e-01,1.01960e-01,9.99999e-01
8.000968774e-01,9.33742e-02,9.99999e-01,8.89008e-01,9.84560e-01,1.06663e-01,9.99999e-01
8.040973618e-01,1.03279e-01,9.99999e-01,9.40842e-01,9.84553e-01,1.11484e-01,9.99999e-01
8.081178486e-01,1.09312e-01,9.99999e-01,9.72319e-01,9.65504e-01,1.16421e-01,9.99998e-01
8.121584379e-01,1.04168e-01,9.99999e-01,9.91399e-01,8.64728e-01,1.21473e-01,9.99997e-01
8.162192301e-01,1.06484e-01,9.99999e-01,9.98094e-01,8.42357e-01,1.26638e-01,9.99997e-01
8.203003262e-01,1.21231e-01,9.99999e-01,9.99972e-01,9.19033e-01,1.31914e-01,9.99996e-01
8.244018279e-01,1.22258e-01,9.99999e-01,9.99999e-01,8.90449e-01,1.37299e-01,9.99996e-01
8.285238370e-01,1.28804e-01,9.99999e-01,9.99999e-01,9.02047e-01,1.42791e-01,9.99997e-01
8.326664562e-01,1.33745e-01,9.99999e-01,9.99999e-01,9.01320e-01,1.48388e-01,9.99998e-01
8.368297885e-01,1.43020e-01,9.99999e-01,9.99999e-01,9.28179e-01,1.54087e-01,9.99998e-01
8.410139374e-01,1.52953e-01,9.99999e-01,9.99999e-01,9.56643e-01,1.59885e-01,9.99999e-01
8.452190071e-01,1.62216e-01,9.99999e-01,9.99999e-01,9.78492e-01,1.65781e-01,9.99999e-01
8.494451021e-01,1.69615e-01,9.99999e-01,9.99999e-01,9.87446e-01,1.71772e-01,9.99999e-01
8.536923276e-01,1.76532e-01,9.99999e-01,9.99999e-01,9.92567e-01,1.77854e-01,9.99999e-01
8.579607893e-01,1.83181e-01,9.99999e-01,9.99999e-01,9.95412e-01,1.84025e-01,9.99999e-01
8.622505932e-01,1.89727e-01,9.99999e-01,9.99999e-01,9.97085e-01,1.90282e-01,9.99999e-01
8.665618462e-01,1.69107e-01,9.99999e-01,8.61512e-01,9.98194e-01,1.96621e-01,9.99999e-01
8.708946554e-01,6.10188e-02,9.99999e-01,3.01091e-01,9.97930e-01,2.03041e-01,9.99999e-01
8.752491287e-01,7.65655e-02,9.99999e-01,3.66342e-01,9.97233e-01,2.09537e-01,9.99999e-01
8.796253743e-01,1.22243e-01,9.99999e-01,5.67651e-01,9.96167e-01,2.16106e-01,9.99999e-01
8.840235012e-01,1.64346e-01,9.99999e-01,7.40905e-01,9.95624e-01,2.22745e-01,9.99999e-01
8.884436187e-01,2.00576e-01,9.99999e-01,8.87828e-01,9.84092e-01,2.29452e-01,9.99998e-01
8.928858368e-01,1.90785e-01,9.99999e-01,9.52776e-01,8.46480e-01,2.36221e-01,9.99997e-01
8.973502660e-01,1.79442e-01,9.99999e-01,9.88342e-01,7.46418e-01,2.43051e-01,9.99995e-01
9.018370173e-01,2.15120e-01,9.99999e-01,9.98709e-01,8.61700e-01,2.49937e-01,9.99995e-01
9.063462024e-01,2.18515e-01,9.99999e-01,9.67677e-01,8.76138e-01,2.56877e-01,9.99994e-01
9.108779334e-01,1.99644e-01,9.99999e-01,9.26636e-01,8.14108e-01,2.63867e-01,9.99994e-01
9.154323231e-01,2.10782e-01,9.99999e-01,9.82324e-01,7.91108e-01,2.70903e-01,9.99993e-01
9.200094847e-01,1.89760e-01,9.99999e-01,7.98879e-01,8.32980e-01,2.77982e-01,9.99991e-01
9.246095321e-01,1.51638e-01,9.99999e-01,6.90396e-01,7.57627e-01,2.85101e-01,9.99986e-01
9.292325798e-01,4.16510e-02,9.99999e-01,7.51648e-01,1.77754e-01,2.92257e-01,9.99972e-01
9.338787427e-01,2.58136e-02,9.99999e-01,7.56697e-01,1.07368e-01,2.99445e-01,9.99963e-01
9.385481364e-01,1.03405e-01,9.99999e-01,8.13173e-01,4.02602e-01,3.06663e-01,9.99962e-01
9.432408771e-01,8.30972e-02,9.99999e-01,8.80475e-01,2.95576e-01,3.13907e-01,9.99958e-01
9.479570815e-01,5.60476e-02,9.99999e-01,9.36654e-01,1.84728e-01,3.21174e-01,9.99963e-01
9.526968669e-01,8.65042e-02,9.99999e-01,9.68996e-01,2.70123e-01,3.28461e-01,9.99972e-01
9.574603512e-01,9.52110e-02,9.99999e-01,9.86613e-01,2.86708e-01,3.35764e-01,9.99979e-01
9.622476530e-01,1.21509e-01,9.99999e-01,9.95806e-01,3.55404e-01,3.43080e-01,9.99986e-01
9.670588912e-01,1.91526e-01,9.99999e-01,9.98742e-01,5.47165e-01,3.50407e-01,9.99990e-01
9.718941857e-01,2.42713e-01,9.99999e-01,9.99911e-01,6.78510e-01,3.57741e-01,9.99994e-01
9.767536566e-01,2.64421e-01,9.99999e-01,9.99999e-01,7.24286e-01,3.65079e-01,9.99995e-01
9.816374249e-01,2.92916e-01,9.99999e-01,9.99999e-01,7.86524e-01,3.72418e-01,9.99997e-01
9.865456120e-01,3.26692e-01,9.99999e-01,9.99999e-01,8.60268e-01,3.79755e-01,9.99998e-01
9.914783401e-01,3.52615e-01,9.99999e-01,9.99999e-01,9.10942e-01,3.87088e-01,9.99999e-01
9.964357318e-01,3.74877e-01,9.99999e-01,9.99999e-01,9.50466e-01,3.94413e-01,9.99999e-01
1.001417910e+00,3.89676e-01,9.99999e-01,9.99999e-01,9.69998e-01,4.01728e-01,9.99999e-01
1.006425000e+00,4.01983e-01,9.99999e-01,9.99999e-01,9.82769e-01,4.09031e-01,9.99999e-01
1.011457125e+00,4.11856e-01,9.99999e-01,9.99999e-01,9.89282e-01,4.16318e-01,9.99999e-01
1.016514411e+00,4.20498e-01,9.99999e-01,9.99999e-01,9.92707e-01,4.23586e-01,9.99999e-01
1.021596983e+00,4.28250e-01,9.99999e-01,9.99814e-01,9.94184e-01,4.30835e-01,9.99999e-01
1.026704968e+00,4.30439e-01,9.99999e-01,9.87061e-01,9.95460e-01,4.38060e-01,9.99999e-01
1.031838492e+00,3.98251e-01,9.99999e-01,8.97208e-01,9.96701e-01,4.45261e-01,9.99999e-01
1.036997685e+00,2.04117e-02,9.99999e-01,4.51820e-02,9.98038e-01,4.52434e-01,9.99999e-01
1.042182673e+00,1.02518e-03,9.99999e-01,2.23464e-03,9.97658e-01,4.59578e-01,9.99999e-01
1.047393587e+00,2.79084e-03,9.99999e-01,5.99543e-03,9.96897e-01,4.66690e-01,9.99999e-01
1.052630555e+00,1.57258e-07,9.99999e-01,3.32816e-07,9.95743e-01,4.73768e-01,9.99999e-01
1.057893707e+00,5.97131e-07,9.99999e-01,1.24641e-06,9.92899e-01,4.80811e-01,9.99999e-01
1.063183176e+00,2.14483e-05,9.99999e-01,4.42600e-05,9.88348e-01,4.87816e-01,9.99999e-01
1.068499092e+00,2.46794e-04,9.99999e-01,5.05103e-04,9.80577e-01,4.94782e-01,9.99999e-01
1.073841587e+00,3.65545e-03,9.99999e-01,7.40477e-03,9.77316e-01,5.01706e-01,9.99999e-01
1.079210795e+00,2.30150e-02,9.99999e-01,4.62911e-02,9.71036e-01,5.08588e-01,9.99998e-01
1.084606849e+00,8.60742e-02,9.99999e-01,1.73582e-01,9.56495e-01,5.15426e-01,9.99998e-01
1.090029883e+00,1.96555e-01,9.99999e-01,3.99003e-01,9.38101e-01,5.22218e-01,9.99997e-01
1.095480033e+00,2.83884e-01,9.99999e-01,6.34655e-01,8.40449e-01,5.28963e-01,9.99995e-01
1.100957433e+00,2.79755e-01,9.99999e-01,8.02157e-01,6.46159e-01,5.35659e-01,9.99991e-01
1.106462220e+00,1.71857e-01,9.99999e-01,9.12743e-01,3.43950e-01,5.42304e-01,9.99983e-01
1.111994531e+00,6.01879e-02,9.99999e-01,9.66675e-01,1.12713e-01,5.48899e-01,9.99966e-01
1.117554504e+00,1.82928e-02,9.99999e-01,9.91776e-01,3.30919e-02,5.55441e-01,9.99952e-01
1.123142276e+00,5.47496e-02,9.99999e-01,9.99459e-01,9.74429e-02,5.61930e-01,9.99944e-01
1.128757988e+00,1.11630e-01,9.99999e-01,9.99999e-01,1.96418e-01,5.68364e-01,9.99939e-01
1.134401778e+00,5.04476e-02,9.99999e-01,9.99999e-01,8.77801e-02,5.74743e-01,9.99932e-01
1.140073787e+00,2.10050e-01,9.99999e-01,9.99999e-01,3.61512e-01,5.81064e-01,9.99945e-01
1.145774156e+00,8.12055e-02,9.99999e-01,9.99999e-01,1.38269e-01,5.87329e-01,9.99953e-01
1.151503026e+00,6.65828e-02,9.99999e-01,9.99999e-01,1.12184e-01,5.93535e-01,9.99959e-01
1.157260541e+00,8.43282e-02,9.99999e-01,9.99999e-01,1.40625e-01,5.99683e-01,9.99969e-01
1.163046844e+00,1.40190e-01,9.99999e-01,9.99999e-01,2.31429e-01,6.05771e-01,9.99980e-01
1.168862078e+00,2.14511e-01,9.99999e-01,9.99999e-01,3.50627e-01,6.11798e-01,9.99989e-01
1.174706389e+00,3.22774e-01,9.99999e-01,9.99999e-01,5.22488e-01,6.17765e-01,9.99994e-01
1.180579921e+00,4.19019e-01,9.99999e-01,9.99999e-01,6.71861e-01,6.23670e-01,9.99996e-01
1.186482820e+00,5.01902e-01,9.99999e-01,9.99973e-01,7.97302e-01,6.29513e-01,9.99996e-01
1.192415234e+00,5.32909e-01,9.99999e-01,9.56205e-01,8.75793e-01,6.35295e-01,9.99997e-01
1.198377311e+00,2.98028e-01,9.99999e-01,5.10211e-01,8.94239e-01,6.41013e-01,9.99997e-01
1.204369197e+00,2.42323e-33,9.99999e-01,3.98372e-33,8.99966e-01,6.46669e-01,9.99997e-01
1.210391043e+00,9.64219e-136,9.99999e-01,1.56382e-135,9.03943e-01,6.52261e-01,9.99998e-01
1.216442998e+00,1.97838e-117,9.99999e-01,3.17231e-117,9.17737e-01,6.57789e-01,9.99998e-01
1.222525213e+00,1.17806e-115,9.99999e-01,1.83860e-115,9.35223e-01,6.63254e-01,9.99999e-01
1.228637839e+00,3.63451e-89,9.99999e-01,5.60841e-89,9.54534e-01,6.68655e-01,9.99999e-01
