#,Wave/freq,Total,O2,CO2,H2O,Rayleigh,CIA
4.000000000e-01,7.69376e-06,9.99999e-01,9.99999e-01,9.99976e-01,7.69394e-06,9.99999e-01
4.020000000e-01,9.71090e-06,9.99999e-01,9.99999e-01,9.99985e-01,9.71104e-06,9.99999e-01
4.040100000e-01,1.21977e-05,9.99999e-01,9.99999e-01,9.99993e-01,1.21978e-05,9.99999e-01
4.060300500e-01,1.52524e-05,9.99999e-01,9.99999e-01,9.99998e-01,1.52524e-05,9.99999e-01
4.080602003e-01,1.89880e-05,9.99999e-01,9.99999e-01,9.99999e-01,1.89880e-05,9.99999e-01
4.101005013e-01,2.35364e-05,9.99999e-01,9.99999e-01,9.99999e-01,2.35364e-05,9.99999e-01
4.121510038e-01,2.90509e-05,9.99999e-01,9.99999e-01,9.99998e-01,2.90509e-05,9.99999e-01
4.142117588e-01,3.57085e-05,9.99999e-01,9.99999e-01,9.99993e-01,3.57087e-05,9.99999e-01
4.162828176e-01,4.37125e-05,9.99999e-01,9.99999e-01,9.99970e-01,4.37137e-05,9.99999e-01
4.183642317e-01,5.32990e-05,9.99999e-01,9.99999e-01,9.99982e-01,5.32999e-05,9.99999e-01
4.204560528e-01,6.47336e-05,9.99999e-01,9.99999e-01,9.99989e-01,6.47343e-05,9.99999e-01
4.225583331e-01,7.83200e-05,9.99999e-01,9.99999e-01,9.99995e-01,7.83204e-05,9.99999e-01
4.246711247e-01,9.44016e-05,9.99999e-01,9.99999e-01,9.99996e-01,9.44019e-05,9.99999e-01
4.267944804e-01,1.13366e-04,9.99999e-01,9.99999e-01,9.99994e-01,1.13367e-04,9.99999e-01
4.289284528e-01,1.35649e-04,9.99999e-01,9.99999e-01,9.99995e-01,1.35650e-04,9.99999e-01
4.310730950e-01,1.61738e-04,9.99999e-01,9.99999e-01,9.99997e-01,1.61738e-04,9.99999e-01
4.332284605e-01,1.92176e-04,9.99999e-01,9.99999e-01,9.99999e-01,1.92176e-04,9.99999e-01
4.353946028e-01,2.27564e-04,9.99999e-01,9.99999e-01,9.99999e-01,2.27564e-04,9.99999e-01
4.375715758e-01,2.68571e-04,9.99999e-01,9.99999e-01,9.99996e-01,2.68572e-04,9.99999e-01
4.397594337e-01,3.15926e-04,9.99999e-01,9.99999e-01,9.99974e-01,3.15933e-04,9.99999e-01
4.419582309e-01,3.70410e-04,9.99999e-01,9.99999e-01,9.99874e-01,3.70456e-04,9.99999e-01
4.441680220e-01,4.32982e-04,9.99999e-01,9.99999e-01,9.99899e-01,4.33025e-04,9.99999e-01
4.463888621e-01,5.04551e-04,9.99999e-01,9.99999e-01,9.99896e-01,5.04604e-04,9.99999e-01
4.486208064e-01,5.86202e-04,9.99999e-01,9.99999e-01,9.99934e-01,5.86240e-04,9.99999e-01
4.508639105e-01,6.79048e-04,9.99999e-01,9.99999e-01,9.99969e-01,6.79069e-04,9.99999e-01
4.531182300e-01,7.84307e-04,9.99999e-01,9.99999e-01,9.99987e-01,7.84316e-04,9.99999e-01
4.553838212e-01,9.03294e-04,9.99999e-01,9.99999e-01,9.99991e-01,9.03301e-04,9.99999e-01
4.576607403e-01,1.03744e-03,9.99999e-01,9.99999e-01,9.99995e-01,1.03744e-03,9.99999e-01
4.599490440e-01,1.18824e-03,9.99999e-01,9.99999e-01,9.99996e-01,1.18824e-03,9.99999e-01
4.622487892e-01,1.35732e-03,9.99999e-01,9.99999e-01,9.99999e-01,1.35732e-03,9.99999e-01
4.645600332e-01,1.54639e-03,9.99999e-01,9.99999e-01,9.99997e-01,1.54639e-03,9.99999e-01
4.668828333e-01,1.75721e-03,9.99999e-01,9.99999e-01,9.99969e-01,1.75726e-03,9.99999e-01
4.692172475e-01,1.99173e-03,9.99999e-01,9.99999e-01,9.99934e-01,1.99186e-03,9.99999e-01
4.715633337e-01,2.25209e-03,9.99999e-01,9.99999e-01,9.99957e-01,2.25219e-03,9.99999e-01
4.739211504e-01,2.54027e-03,9.99999e-01,9.99999e-01,9.99958e-01,2.54037e-03,9.99999e-01
4.762907561e-01,2.85856e-03,9.99999e-01,9.99999e-01,9.99978e-01,2.85862e-03,9.99999e-01
4.786722099e-01,3.20923e-03,9.99999e-01,9.99999e-01,9.99990e-01,3.20925e-03,9.99999e-01
4.810655710e-01,3.59466e-03,9.99999e-01,9.99999e-01,9.99996e-01,3.59467e-03,9.99999e-01
4.834708988e-01,4.01726e-03,9.99999e-01,9.99999e-01,9.99975e-01,4.01736e-03,9.99999e-01
4.858882533e-01,4.47970e-03,9.99999e-01,9.99999e-01,9.99953e-01,4.47990e-03,9.99999e-01
4.883176946e-01,4.98477e-03,9.99999e-01,9.99999e-01,9.99961e-01,4.98496e-03,9.99999e-01
4.907592831e-01,5.53508e-03,9.99999e-01,9.99999e-01,9.99964e-01,5.53527e-03,9.99999e-01
4.932130795e-01,6.13348e-03,9.99999e-01,9.99999e-01,9.99974e-01,6.13363e-03,9.99999e-01
4.956791449e-01,6.78281e-03,9.99999e-01,9.99999e-01,9.99986e-01,6.78290e-03,9.99999e-01
4.981575406e-01,7.48552e-03,9.99999e-01,9.99999e-01,9.99934e-01,7.48601e-03,9.99999e-01
5.006483283e-01,8.24454e-03,9.99999e-01,9.99999e-01,9.99832e-01,8.24592e-03,9.99999e-01
5.031515699e-01,9.05789e-03,9.99999e-01,9.99999e-01,9.99144e-01,9.06564e-03,9.99999e-01
5.056673278e-01,9.94371e-03,9.99999e-01,9.99999e-01,9.99546e-01,9.94821e-03,9.99999e-01
5.081956644e-01,1.08905e-02,9.99999e-01,9.99999e-01,9.99428e-01,1.08967e-02,9.99999e-01
5.107366428e-01,1.19095e-02,9.99999e-01,9.99999e-01,9.99613e-01,1.19141e-02,9.99999e-01
5.132903260e-01,1.30008e-02,9.99999e-01,9.99999e-01,9.99778e-01,1.30037e-02,9.99999e-01
5.158567776e-01,1.41670e-02,9.99999e-01,9.99999e-01,9.99906e-01,1.41683e-02,9.99999e-01
5.184360615e-01,1.54105e-02,9.99999e-01,9.99999e-01,9.99962e-01,1.54111e-02,9.99999e-01
5.210282418e-01,1.67349e-02,9.99999e-01,9.99999e-01,9.99985e-01,1.67351e-02,9.99999e-01
5.236333830e-01,1.81423e-02,9.99999e-01,9.99999e-01,9.99943e-01,1.81433e-02,9.99999e-01
5.262515499e-01,1.96379e-02,9.99999e-01,9.99999e-01,9.99964e-01,1.96386e-02,9.99999e-01
5.288828077e-01,2.12233e-02,9.99999e-01,9.99999e-01,9.99967e-01,2.12239e-02,9.99999e-01
5.315272217e-01,2.29014e-02,9.99999e-01,9.99999e-01,9.99971e-01,2.29021e-02,9.99999e-01
5.341848578e-01,2.46754e-02,9.99999e-01,9.99999e-01,9.99981e-01,2.46758e-02,9.99999e-01
5.368557821e-01,2.65461e-02,9.99999e-01,9.99999e-01,9.99934e-01,2.65478e-02,9.99999e-01
5.395400610e-01,2.85139e-02,9.99999e-01,9.99999e-01,9.99767e-01,2.85205e-02,9.99999e-01
5.422377613e-01,3.05872e-02,9.99999e-01,9.99999e-01,9.99695e-01,3.05965e-02,9.99999e-01
5.449489501e-01,3.27689e-02,9.99999e-01,9.99999e-01,9.99718e-01,3.27781e-02,9.99999e-01
5.476736949e-01,3.50587e-02,9.99999e-01,9.99999e-01,9.99748e-01,3.50675e-02,9.99999e-01
5.504120634e-01,3.74600e-02,9.99999e-01,9.99999e-01,9.99817e-01,3.74668e-02,9.99999e-01
5.531641237e-01,3.99743e-02,9.99999e-01,9.99999e-01,9.99907e-01,3.99779e-02,9.99999e-01
5.559299443e-01,4.26009e-02,9.99999e-01,9.99999e-01,9.99955e-01,4.26028e-02,9.99999e-01
5.587095940e-01,4.53417e-02,9.99999e-01,9.99999e-01,9.99971e-01,4.53430e-02,9.99999e-01
5.615031420e-01,4.81985e-02,9.99999e-01,9.99999e-01,9.99968e-01,4.82000e-02,9.99999e-01
5.643106577e-01,5.11735e-02,9.99999e-01,9.99999e-01,9.99965e-01,5.11753e-02,9.99999e-01
5.671322110e-01,5.42474e-02,9.99999e-01,9.99999e-01,9.99583e-01,5.42700e-02,9.99999e-01
5.699678720e-01,5.74590e-02,9.99999e-01,9.99999e-01,9.99545e-01,5.74851e-02,9.99999e-01
5.728177114e-01,6.07930e-02,9.99999e-01,9.99999e-01,9.99531e-01,6.08215e-02,9.99999e-01
5.756818000e-01,6.42522e-02,9.99999e-01,9.99999e-01,9.99568e-01,6.42798e-02,9.99999e-01
5.785602090e-01,6.78352e-02,9.99999e-01,9.99999e-01,9.99623e-01,6.78607e-02,9.99999e-01
5.814530100e-01,7.15374e-02,9.99999e-01,9.99999e-01,9.99622e-01,7.15643e-02,9.99999e-01
5.843602750e-01,7.53574e-02,9.99999e-01,9.99999e-01,9.99553e-01,7.53910e-02,9.99999e-01
5.872820764e-01,7.90354e-02,9.99999e-01,9.99999e-01,9.96153e-01,7.93405e-02,9.99999e-01
5.902184868e-01,8.30209e-02,9.99999e-01,9.99999e-01,9.95301e-01,8.34128e-02,9.99999e-01
5.931695792e-01,8.73174e-02,9.99999e-01,9.99999e-01,9.96688e-01,8.76074e-02,9.99999e-01
5.961354271e-01,9.15896e-02,9.99999e-01,9.99999e-01,9.96362e-01,9.19239e-02,9.99999e-01
5.991161043e-01,9.61055e-02,9.99999e-01,9.99999e-01,9.97343e-01,9.63614e-02,9.99999e-01
6.021116848e-01,1.00767e-01,9.99999e-01,9.99999e-01,9.98490e-01,1.00919e-01,9.99999e-01
6.051222432e-01,1.05515e-01,9.99999e-01,9.99999e-01,9.99235e-01,1.05596e-01,9.99999e-01
6.081478544e-01,1.10354e-01,9.99999e-01,9.99999e-01,9.99670e-01,1.10391e-01,9.99999e-01
6.111885937e-01,1.15286e-01,9.99999e-01,9.99999e-01,9.99859e-01,1.15302e-01,9.99999e-01
6.142445367e-01,1.20321e-01,9.99999e-01,9.99999e-01,9.99937e-01,1.20329e-01,9.99999e-01
6.173157594e-01,1.25464e-01,9.99999e-01,9.99999e-01,9.99965e-01,1.25468e-01,9.99999e-01
6.204023382e-01,1.30716e-01,9.99999e-01,9.99999e-01,9.99970e-01,1.30719e-01,9.99999e-01
6.235043498e-01,1.36063e-01,9.99999e-01,9.99999e-01,9.99874e-01,1.36080e-01,9.99999e-01
6.266218716e-01,1.41453e-01,9.99999e-01,9.99999e-01,9.99324e-01,1.41548e-01,9.99999e-01
6.297549810e-01,1.47085e-01,9.99999e-01,9.99999e-01,9.99752e-01,1.47121e-01,9.99999e-01
6.329037559e-01,1.52723e-01,9.99999e-01,9.99999e-01,9.99509e-01,1.52797e-01,9.99999e-01
6.360682746e-01,1.58508e-01,9.99999e-01,9.99999e-01,9.99583e-01,1.58574e-01,9.99999e-01
6.392486160e-01,1.64359e-01,9.99999e-01,9.99999e-01,9.99459e-01,1.64448e-01,9.99999e-01
6.424448591e-01,1.70295e-01,9.99999e-01,9.99999e-01,9.99282e-01,1.70418e-01,9.99999e-01
6.456570834e-01,1.75892e-01,9.99999e-01,9.99999e-01,9.96670e-01,1.76479e-01,9.99999e-01
6.488853688e-01,1.82103e-01,9.99999e-01,9.99999e-01,9.97111e-01,1.82631e-01,9.99999e-01
6.521297956e-01,1.88394e-01,9.99999e-01,9.99999e-01,9.97490e-01,1.88868e-01,9.99999e-01
6.553904446e-01,1.94706e-01,9.99999e-01,9.99999e-01,9.97522e-01,1.95190e-01,9.99999e-01
6.586673968e-01,2.01160e-01,9.99999e-01,9.99999e-01,9.97858e-01,2.01592e-01,9.99999e-01
6.619607338e-01,2.07813e-01,9.99999e-01,9.99999e-01,9.98761e-01,2.08071e-01,9.99999e-01
6.652705375e-01,2.14470e-01,9.99999e-01,9.99999e-01,9.99281e-01,2.14624e-01,9.99999e-01
6.685968902e-01,2.21174e-01,9.99999e-01,9.99999e-01,9.99666e-01,2.21248e-01,9.99999e-01
6.719398746e-01,2.27904e-01,9.99999e-01,9.99999e-01,9.99844e-01,2.27939e-01,9.99999e-01
6.752995740e-01,2.34675e-01,9.99999e-01,9.99999e-01,9.99916e-01,2.34695e-01,9.99999e-01
6.786760719e-01,2.41483e-01,9.99999e-01,9.99999e-01,9.99879e-01,2.41511e-01,9.99999e-01
6.820694522e-01,2.48334e-01,9.99999e-01,9.99999e-01,9.99793e-01,2.48385e-01,9.99999e-01
6.854797995e-01,2.55246e-01,9.99999e-01,9.99999e-01,9.99734e-01,2.55314e-01,9.99999e-01
6.889071985e-01,2.62127e-01,9.99999e-01,9.99999e-01,9.99367e-01,2.62292e-01,9.99999e-01
6.923517345e-01,2.66516e-01,9.99999e-01,9.99999e-01,9.89593e-01,2.69318e-01,9.99999e-01
6.958134932e-01,2.74862e-01,9.99999e-01,9.99999e-01,9.94475e-01,2.76388e-01,9.99999e-01
6.992925606e-01,2.82038e-01,9.99999e-01,9.99999e-01,9.94847e-01,2.83499e-01,9.99999e-01
7.027890234e-01,2.88784e-01,9.99999e-01,9.99999e-01,9.93593e-01,2.90646e-01,9.99999e-01
7.063029686e-01,2.96224e-01,9.99999e-01,9.99999e-01,9.94616e-01,2.97827e-01,9.99999e-01
7.098344834e-01,3.03463e-01,9.99999e-01,9.99999e-01,9.94834e-01,3.05039e-01,9.99999e-01
7.133836558e-01,3.10154e-01,9.99999e-01,9.99999e-01,9.93201e-01,3.12277e-01,9.99999e-01
7.169505741e-01,3.02351e-01,9.99999e-01,9.99999e-01,9.46209e-01,3.19539e-01,9.99998e-01
7.205353270e-01,3.17955e-01,9.99999e-01,9.99999e-01,9.72869e-01,3.26822e-01,9.99998e-01
7.241380036e-01,3.22809e-01,9.99999e-01,9.99999e-01,9.66142e-01,3.34122e-01,9.99998e-01
7.277586936e-01,3.30978e-01,9.99999e-01,9.99999e-01,9.69371e-01,3.41436e-01,9.99998e-01
7.313974871e-01,3.37347e-01,9.99999e-01,9.99999e-01,9.67273e-01,3.48760e-01,9.99999e-01
7.350544745e-01,3.49693e-01,9.99999e-01,9.99999e-01,9.82027e-01,3.56093e-01,9.99999e-01
7.387297469e-01,3.58611e-01,9.99999e-01,9.99999e-01,9.86738e-01,3.63430e-01,9.99999e-01
7.424233956e-01,3.68351e-01,9.99999e-01,9.99999e-01,9.93477e-01,3.70769e-01,9.99999e-01
7.461355126e-01,3.76614e-01,9.99999e-01,9.99999e-01,9.96049e-01,3.78107e-01,9.99999e-01
7.498661902e-01,3.84730e-01,9.99999e-01,9.99999e-01,9.98154e-01,3.85441e-01,9.99999e-01
7.536155211e-01,3.92414e-01,9.99999e-01,9.99999e-01,9.99096e-01,3.92768e-01,9.99999e-01
7.573835987e-01,3.99900e-01,9.99999e-01,9.99999e-01,9.99534e-01,4.00086e-01,9.99999e-01
7.611705167e-01,4.07274e-01,9.99999e-01,9.99999e-01,9.99710e-01,4.07391e-01,9.99999e-01
7.649763693e-01,4.14607e-01,9.99999e-01,9.99999e-01,9.99818e-01,4.14682e-01,9.99999e-01
7.688012511e-01,4.21902e-01,9.99999e-01,9.99999e-01,9.99873e-01,4.21955e-01,9.99999e-01
7.726452574e-01,4.29164e-01,9.99999e-01,9.99999e-01,9.99896e-01,4.29208e-01,9.99999e-01
7.765084837e-01,4.36376e-01,9.99999e-01,9.99999e-01,9.99853e-01,4.36439e-01,9.99999e-01
7.803910261e-01,4.27256e-01,9.99999e-01,9.63641e-01,9.99370e-01,4.43646e-01,9.99999e-01
7.842929812e-01,3.78848e-01,9.99999e-01,8.42093e-01,9.97803e-01,4.50825e-01,9.99999e-01
7.882144461e-01,3.79812e-01,9.99999e-01,8.32956e-01,9.95442e-01,4.57975e-01,9.99999e-01
7.921555184e-01,4.16900e-01,9.99999e-01,8.98574e-01,9.97486e-01,4.65095e-01,9.99999e-01
7.961162960e-01,4.37408e-01,9.99999e-01,9.30399e-01,9.95606e-01,4.72181e-01,9.99999e-01
8.000968774e-01,4.58538e-01,9.99999e-01,9.61706e-01,9.94900e-01,4.79232e-01,9.99999e-01
8.040973618e-01,4.74050e-01,9.99999e-01,9.79901e-01,9.94905e-01,4.86245e-01,9.99999e-01
8.081178486e-01,4.83108e-01,9.99999e-01,9.90760e-01,9.88613e-01,4.93220e-01,9.99999e-01
8.121584379e-01,4.75411e-01,9.99999e-01,9.97115e-01,9.53247e-01,5.00154e-01,9.99998e-01
8.162192301e-01,4.78470e-01,9.99999e-01,9.99362e-01,9.44232e-01,5.07046e-01,9.99998e-01
8.203003262e-01,4.99639e-01,9.99999e-01,9.99989e-01,9.72270e-01,5.13894e-01,9.99998e-01
8.244018279e-01,5.00162e-01,9.99999e-01,9.99999e-01,9.60563e-01,5.20696e-01,9.99998e-01
8.285238370e-01,5.09807e-01,9.99999e-01,9.99999e-01,9.66547e-01,5.27452e-01,9.99998e-01
8.326664562e-01,5.16029e-01,9.99999e-01,9.99999e-01,9.66059e-01,5.34159e-01,9.99999e-01
8.368297885e-01,5.27625e-01,9.99999e-01,9.99999e-01,9.75608e-01,5.40816e-01,9.99999e-01
8.410139374e-01,5.39449e-01,9.99999e-01,9.99999e-01,9.85434e-01,5.47422e-01,9.99999e-01
8.452190071e-01,5.50003e-01,9.99999e-01,9.99999e-01,9.92826e-01,5.53976e-01,9.99999e-01
8.494451021e-01,5.58150e-01,9.99999e-01,9.99999e-01,9.95847e-01,5.60477e-01,9.99999e-01
8.536923276e-01,5.65526e-01,9.99999e-01,9.99999e-01,9.97534e-01,5.66923e-01,9.99999e-01
8.579607893e-01,5.72447e-01,9.99999e-01,9.99999e-01,9.98485e-01,5.73314e-01,9.99999e-01
8.622505932e-01,5.79090e-01,9.99999e-01,9.99999e-01,9.99035e-01,5.79649e-01,9.99999e-01
8.665618462e-01,5.40013e-01,9.99999e-01,9.22164e-01,9.99405e-01,5.85927e-01,9.99999e-01
8.708946554e-01,3.83760e-01,9.99999e-01,6.48505e-01,9.99320e-01,5.92146e-01,9.99999e-01
8.752491287e-01,4.20737e-01,9.99999e-01,7.03831e-01,9.99090e-01,5.98307e-01,9.99999e-01
8.796253743e-01,4.97410e-01,9.99999e-01,8.23969e-01,9.98744e-01,6.04408e-01,9.99999e-01
8.840235012e-01,5.51316e-01,9.99999e-01,9.04407e-01,9.98564e-01,6.10449e-01,9.99999e-01
8.884436187e-01,5.89385e-01,9.99999e-01,9.61017e-01,9.94855e-01,6.16430e-01,9.99999e-01
8.928858368e-01,5.79717e-01,9.99999e-01,9.84064e-01,9.46437e-01,6.22349e-01,9.99998e-01
8.973502660e-01,5.67231e-01,9.99999e-01,9.96083e-01,9.06407e-01,6.28206e-01,9.99998e-01
9.018370173e-01,6.02529e-01,9.99999e-01,9.99566e-01,9.50758e-01,6.34001e-01,9.99998e-01
9.063462024e-01,6.05994e-01,9.99999e-01,9.89286e-01,9.57154e-01,6.39734e-01,9.99997e-01
9.108779334e-01,5.87742e-01,9.99999e-01,9.75014e-01,9.33670e-01,6.45403e-01,9.99997e-01
9.154323231e-01,5.98580e-01,9.99999e-01,9.94027e-01,9.24855e-01,6.51010e-01,9.99997e-01
9.200094847e-01,5.69629e-01,9.99999e-01,9.19176e-01,9.40523e-01,6.56553e-01,9.99997e-01
9.246095321e-01,5.33816e-01,9.99999e-01,8.83656e-01,9.10290e-01,6.62032e-01,9.99995e-01
9.292325798e-01,3.25874e-01,9.99999e-01,9.08560e-01,5.31523e-01,6.67447e-01,9.99990e-01
9.338787427e-01,2.72429e-01,9.99999e-01,9.10632e-01,4.39827e-01,6.72799e-01,9.99987e-01
9.385481364e-01,4.56178e-01,9.99999e-01,9.33500e-01,7.17469e-01,6.78086e-01,9.99987e-01
9.432408771e-01,4.16444e-01,9.99999e-01,9.58610e-01,6.34146e-01,6.83310e-01,9.99985e-01
9.479570815e-01,3.60845e-01,9.99999e-01,9.78605e-01,5.34911e-01,6.88469e-01,9.99987e-01
9.526968669e-01,4.27238e-01,9.99999e-01,9.89611e-01,6.21838e-01,6.93564e-01,9.99990e-01
9.574603512e-01,4.48347e-01,9.99999e-01,9.95542e-01,6.44448e-01,6.98595e-01,9.99992e-01
9.622476530e-01,4.90610e-01,9.99999e-01,9.98606e-01,6.98234e-01,7.03562e-01,9.99995e-01
9.670588912e-01,5.75810e-01,9.99999e-01,9.99581e-01,8.13079e-01,7.08465e-01,9.99996e-01
9.718941857e-01,6.26671e-01,9.99999e-01,9.99969e-01,8.78571e-01,7.13305e-01,9.99997e-01
9.767536566e-01,6.44932e-01,9.99999e-01,9.99999e-01,8.98134e-01,7.18081e-01,9.99998e-01
9.816374249e-01,6.67346e-01,9.99999e-01,9.99999e-01,9.23287e-01,7.22793e-01,9.99998e-01
9.865456120e-01,6.92045e-01,9.99999e-01,9.99999e-01,9.51339e-01,7.27443e-01,9.99999e-01
9.914783401e-01,7.09817e-01,9.99999e-01,9.99999e-01,9.69655e-01,7.32030e-01,9.99999e-01
9.964357318e-01,7.24296e-01,9.99999e-01,9.99999e-01,9.83356e-01,7.36554e-01,9.99999e-01
1.001417910e+00,7.33600e-01,9.99999e-01,9.99999e-01,9.89991e-01,7.41016e-01,9.99999e-01
1.006425000e+00,7.41163e-01,9.99999e-01,9.99999e-01,9.94294e-01,7.45416e-01,9.99999e-01
1.011457125e+00,7.47091e-01,9.99999e-01,9.99999e-01,9.96446e-01,7.49755e-01,9.99999e-01
1.016514411e+00,7.52215e-01,9.99999e-01,9.99999e-01,9.97589e-01,7.54032e-01,9.99999e-01
1.021596983e+00,7.56754e-01,9.99999e-01,9.99947e-01,9.98080e-01,7.58249e-01,9.99999e-01
1.026704968e+00,7.58085e-01,9.99999e-01,9.95820e-01,9.98503e-01,7.62405e-01,9.99999e-01
1.031838492e+00,7.31059e-01,9.99999e-01,9.54769e-01,9.98910e-01,7.66501e-01,9.99999e-01
1.036997685e+00,1.05940e-01,9.99999e-01,1.37558e-01,9.99353e-01,7.70538e-01,9.99999e-01
1.042182673e+00,7.08979e-02,9.99999e-01,9.15998e-02,9.99231e-01,7.74515e-01,9.99999e-01
1.047393587e+00,9.15054e-02,9.99999e-01,1.17656e-01,9.98979e-01,7.78434e-01,9.99999e-01
1.052630555e+00,1.68534e-03,9.99999e-01,2.15653e-03,9.98602e-01,7.82295e-01,9.99999e-01
1.057893707e+00,4.49168e-03,9.99999e-01,5.72258e-03,9.97670e-01,7.86098e-01,9.99999e-01
1.063183176e+00,1.73172e-02,9.99999e-01,2.19837e-02,9.96164e-01,7.89844e-01,9.99999e-01
1.068499092e+00,5.46193e-02,9.99999e-01,6.91972e-02,9.93576e-01,7.93533e-01,9.99999e-01
1.073841587e+00,1.45565e-01,9.99999e-01,1.83758e-01,9.92498e-01,7.97167e-01,9.99999e-01
1.079210795e+00,2.71507e-01,9.99999e-01,3.42036e-01,9.90367e-01,8.00744e-01,9.99999e-01
1.084606849e+00,4.38428e-01,9.99999e-01,5.52738e-01,9.85474e-01,8.04266e-01,9.99999e-01
1.090029883e+00,5.81854e-01,9.99999e-01,7.35104e-01,9.79303e-01,8.07734e-01,9.99998e-01
1.095480033e+00,6.58644e-01,9.99999e-01,8.59099e-01,9.44502e-01,8.11148e-01,9.99998e-01
1.100957433e+00,6.55435e-01,9.99999e-01,9.29435e-01,8.65058e-01,8.14509e-01,9.99996e-01
1.106462220e+00,5.50769e-01,9.99999e-01,9.70159e-01,6.93347e-01,8.17816e-01,9.99994e-01
1.111994531e+00,3.76191e-01,9.99999e-01,9.88834e-01,4.62938e-01,8.21071e-01,9.99988e-01
1.117554504e+00,2.37783e-01,9.99999e-01,9.97251e-01,2.89111e-01,8.24275e-01,9.99984e-01
1.123142276e+00,3.35202e-01,9.99999e-01,9.99817e-01,4.05153e-01,8.27427e-01,9.99981e-01
1.128757988e+00,4.63261e-01,9.99999e-01,9.99999e-01,5.57801e-01,8.30529e-01,9.99979e-01
1.134401778e+00,2.50493e-01,9.99999e-01,9.99999e-01,3.00509e-01,8.33581e-01,9.99977e-01
1.140073787e+00,5.89058e-01,9.99999e-01,9.99999e-01,7.04135e-01,8.36584e-01,9.99981e-01
1.145774156e+00,4.05809e-01,9.99999e-01,9.99999e-01,4.83379e-01,8.39537e-01,9.99984e-01
1.151503026e+00,3.76239e-01,9.99999e-01,9.99999e-01,4.46610e-01,8.42443e-01,9.99986e-01
1.157260541e+00,4.27601e-01,9.99999e-01,9.99999e-01,5.05861e-01,8.45300e-01,9.99989e-01
1.163046844e+00,5.11457e-01,9.99999e-01,9.99999e-01,6.03057e-01,8.48111e-01,9.99993e-01
1.168862078e+00,5.97886e-01,9.99999e-01,9.99999e-01,7.02673e-01,8.50876e-01,9.99996e-01
1.174706389e+00,6.86571e-01,9.99999e-01,9.99999e-01,8.04330e-01,8.53594e-01,9.99997e-01
1.180579921e+00,7.49822e-01,9.99999e-01,9.99999e-01,8.75687e-01,8.56267e-01,9.99998e-01
1.186482820e+00,7.96846e-01,9.99999e-01,9.99993e-01,9.27761e-01,8.58896e-01,9.99998e-01
1.192415234e+00,8.12633e-01,9.99999e-01,9.85270e-01,9.57218e-01,8.61480e-01,9.99998e-01
1.198377311e+00,4.68262e-01,9.99999e-01,5.58884e-01,9.63883e-01,8.64021e-01,9.99998e-01
1.204369197e+00,1.81665e-12,9.99999e-01,2.13908e-12,9.65769e-01,8.66519e-01,9.99998e-01
1.210391043e+00,4.07161e-46,9.99999e-01,4.77296e-46,9.67230e-01,8.68975e-01,9.99999e-01
1.216442998e+00,4.23717e-40,9.99999e-01,4.94849e-40,9.72001e-01,8.71389e-01,9.99999e-01
1.222525213e+00,1.62396e-39,9.99999e-01,1.87980e-39,9.78151e-01,8.73761e-01,9.99999e-01
1.228637839e+00,1.30851e-30,9.99999e-01,1.50942e-30,9.84789e-01,8.76093e-01,9.99999e-01
