#,Wave/freq,Total,O2,CO2,H2O,Rayleigh,CIA
4.000000000e-01,1.62295e-02,9.99999e-01,9.99999e-01,9.99991e-01,1.62296e-02,9.99999e-01
4.020000000e-01,1.76073e-02,9.99999e-01,9.99999e-01,9.99994e-01,1.76074e-02,9.99999e-01
4.040100000e-01,1.90698e-02,9.99999e-01,9.99999e-01,9.99997e-01,1.90698e-02,9.99999e-01
4.060300500e-01,2.06212e-02,9.99999e-01,9.99999e-01,9.99999e-01,2.06212e-02,9.99999e-01
4.080602003e-01,2.22644e-02,9.99999e-01,9.99999e-01,9.99999e-01,2.22644e-02,9.99999e-01
4.101005013e-01,2.40021e-02,9.99999e-01,9.99999e-01,9.99999e-01,2.40021e-02,9.99999e-01
4.121510038e-01,2.58371e-02,9.99999e-01,9.99999e-01,9.99999e-01,2.58371e-02,9.99999e-01
4.142117588e-01,2.77718e-02,9.99999e-01,9.99999e-01,9.99997e-01,2.77719e-02,9.99999e-01
4.162828176e-01,2.98088e-02,9.99999e-01,9.99999e-01,9.99989e-01,2.98090e-02,9.99999e-01
4.183642317e-01,3.19507e-02,9.99999e-01,9.99999e-01,9.99993e-01,3.19509e-02,9.99999e-01
4.204560528e-01,3.41997e-02,9.99999e-01,9.99999e-01,9.99995e-01,3.41998e-02,9.99999e-01
4.225583331e-01,3.65578e-02,9.99999e-01,9.99999e-01,9.99998e-01,3.65578e-02,9.99999e-01
4.246711247e-01,3.90269e-02,9.99999e-01,9.99999e-01,9.99998e-01,3.90270e-02,9.99999e-01
4.267944804e-01,4.16091e-02,9.99999e-01,9.99999e-01,9.99997e-01,4.16092e-02,9.99999e-01
4.289284528e-01,4.43060e-02,9.99999e-01,9.99999e-01,9.99998e-01,4.43061e-02,9.99999e-01
4.310730950e-01,4.71193e-02,9.99999e-01,9.99999e-01,9.99998e-01,4.71193e-02,9.99999e-01
4.332284605e-01,5.00503e-02,9.99999e-01,9.99999e-01,9.99999e-01,5.00503e-02,9.99999e-01
4.353946028e-01,5.31003e-02,9.99999e-01,9.99999e-01,9.99999e-01,5.31003e-02,9.99999e-01
4.375715758e-01,5.62702e-02,9.99999e-01,9.99999e-01,9.99998e-01,5.62703e-02,9.99999e-01
4.397594337e-01,5.95608e-02,9.99999e-01,9.99999e-01,9.99990e-01,5.95613e-02,9.99999e-01
4.419582309e-01,6.29712e-02,9.99999e-01,9.99999e-01,9.99954e-01,6.29741e-02,9.99999e-01
4.441680220e-01,6.65068e-02,9.99999e-01,9.99999e-01,9.99964e-01,6.65091e-02,9.99999e-01
4.463888621e-01,7.01644e-02,9.99999e-01,9.99999e-01,9.99963e-01,7.01669e-02,9.99999e-01
4.486208064e-01,7.39459e-02,9.99999e-01,9.99999e-01,9.99977e-01,7.39476e-02,9.99999e-01
4.508639105e-01,7.78504e-02,9.99999e-01,9.99999e-01,9.99989e-01,7.78512e-02,9.99999e-01
4.531182300e-01,8.18774e-02,9.99999e-01,9.99999e-01,9.99995e-01,8.18777e-02,9.99999e-01
4.553838212e-01,8.60265e-02,9.99999e-01,9.99999e-01,9.99996e-01,8.60267e-02,9.99999e-01
4.576607403e-01,9.02977e-02,9.99999e-01,9.99999e-01,9.99998e-01,9.02978e-02,9.99999e-01
4.599490440e-01,9.46901e-02,9.99999e-01,9.99999e-01,9.99998e-01,9.46902e-02,9.99999e-01
4.622487892e-01,9.92032e-02,9.99999e-01,9.99999e-01,9.99999e-01,9.92032e-02,9.99999e-01
4.645600332e-01,1.03836e-01,9.99999e-01,9.99999e-01,9.99998e-01,1.03836e-01,9.99999e-01
4.668828333e-01,1.08585e-01,9.99999e-01,9.99999e-01,9.99988e-01,1.08587e-01,9.99999e-01
4.692172475e-01,1.13452e-01,9.99999e-01,9.99999e-01,9.99976e-01,1.13455e-01,9.99999e-01
4.715633337e-01,1.18436e-01,9.99999e-01,9.99999e-01,9.99984e-01,1.18438e-01,9.99999e-01
4.739211504e-01,1.23534e-01,9.99999e-01,9.99999e-01,9.99985e-01,1.23536e-01,9.99999e-01
4.762907561e-01,1.28744e-01,9.99999e-01,9.99999e-01,9.99992e-01,1.28745e-01,9.99999e-01
4.786722099e-01,1.34065e-01,9.99999e-01,9.99999e-01,9.99996e-01,1.34065e-01,9.99999e-01
4.810655710e-01,1.39494e-01,9.99999e-01,9.99999e-01,9.99998e-01,1.39494e-01,9.99999e-01
4.834708988e-01,1.45027e-01,9.99999e-01,9.99999e-01,9.99990e-01,1.45028e-01,9.99999e-01
4.858882533e-01,1.50663e-01,9.99999e-01,9.99999e-01,9.99983e-01,1.50666e-01,9.99999e-01
4.883176946e-01,1.56403e-01,9.99999e-01,9.99999e-01,9.99986e-01,1.56405e-01,9.99999e-01
4.907592831e-01,1.62241e-01,9.99999e-01,9.99999e-01,9.99987e-01,1.62243e-01,9.99999e-01
4.932130795e-01,1.68176e-01,9.99999e-01,9.99999e-01,9.99990e-01,1.68178e-01,9.99999e-01
4.956791449e-01,1.74204e-01,9.99999e-01,9.99999e-01,9.99994e-01,1.74205e-01,9.99999e-01
4.981575406e-01,1.80319e-01,9.99999e-01,9.99999e-01,9.99976e-01,1.80323e-01,9.99999e-01
5.006483283e-01,1.86518e-01,9.99999e-01,9.99999e-01,9.99939e-01,1.86529e-01,9.99999e-01
5.031515699e-01,1.92762e-01,9.99999e-01,9.99999e-01,9.99699e-01,1.92820e-01,9.99999e-01
5.056673278e-01,1.99160e-01,9.99999e-01,9.99999e-01,9.99841e-01,1.99192e-01,9.99999e-01
5.081956644e-01,2.05601e-01,9.99999e-01,9.99999e-01,9.99800e-01,2.05642e-01,9.99999e-01
5.107366428e-01,2.12140e-01,9.99999e-01,9.99999e-01,9.99864e-01,2.12168e-01,9.99999e-01
5.132903260e-01,2.18749e-01,9.99999e-01,9.99999e-01,9.99922e-01,2.18766e-01,9.99999e-01
5.158567776e-01,2.25425e-01,9.99999e-01,9.99999e-01,9.99967e-01,2.25433e-01,9.99999e-01
5.184360615e-01,2.32162e-01,9.99999e-01,9.99999e-01,9.99986e-01,2.32165e-01,9.99999e-01
5.210282418e-01,2.38958e-01,9.99999e-01,9.99999e-01,9.99994e-01,2.38959e-01,9.99999e-01
5.236333830e-01,2.45807e-01,9.99999e-01,9.99999e-01,9.99979e-01,2.45812e-01,9.99999e-01
5.262515499e-01,2.52717e-01,9.99999e-01,9.99999e-01,9.99987e-01,2.52720e-01,9.99999e-01
5.288828077e-01,2.59678e-01,9.99999e-01,9.99999e-01,9.99988e-01,2.59681e-01,9.99999e-01
5.315272217e-01,2.66687e-01,9.99999e-01,9.99999e-01,9.99989e-01,2.66689e-01,9.99999e-01
5.341848578e-01,2.73742e-01,9.99999e-01,9.99999e-01,9.99993e-01,2.73743e-01,9.99999e-01
5.368557821e-01,2.80833e-01,9.99999e-01,9.99999e-01,9.99976e-01,2.80839e-01,9.99999e-01
5.395400610e-01,2.87949e-01,9.99999e-01,9.99999e-01,9.99916e-01,2.87973e-01,9.99999e-01
5.422377613e-01,2.95111e-01,9.99999e-01,9.99999e-01,9.99893e-01,2.95142e-01,9.99999e-01
5.449489501e-01,3.02312e-01,9.99999e-01,9.99999e-01,9.99900e-01,3.02342e-01,9.99999e-01
5.476736949e-01,3.09544e-01,9.99999e-01,9.99999e-01,9.99912e-01,3.09571e-01,9.99999e-01
5.504120634e-01,3.16805e-01,9.99999e-01,9.99999e-01,9.99936e-01,3.16825e-01,9.99999e-01
5.531641237e-01,3.24090e-01,9.99999e-01,9.99999e-01,9.99967e-01,3.24100e-01,9.99999e-01
5.559299443e-01,3.31389e-01,9.99999e-01,9.99999e-01,9.99984e-01,3.31394e-01,9.99999e-01
5.587095940e-01,3.38700e-01,9.99999e-01,9.99999e-01,9.99989e-01,3.38703e-01,9.99999e-01
5.615031420e-01,3.46020e-01,9.99999e-01,9.99999e-01,9.99988e-01,3.46024e-01,9.99999e-01
5.643106577e-01,3.53350e-01,9.99999e-01,9.99999e-01,9.99987e-01,3.53354e-01,9.99999e-01
5.671322110e-01,3.60636e-01,9.99999e-01,9.99999e-01,9.99849e-01,3.60690e-01,9.99999e-01
5.699678720e-01,3.67971e-01,9.99999e-01,9.99999e-01,9.99842e-01,3.68029e-01,9.99999e-01
5.728177114e-01,3.75306e-01,9.99999e-01,9.99999e-01,9.99835e-01,3.75367e-01,9.99999e-01
5.756818000e-01,3.82645e-01,9.99999e-01,9.99999e-01,9.99848e-01,3.82703e-01,9.99999e-01
5.785602090e-01,3.89982e-01,9.99999e-01,9.99999e-01,9.99868e-01,3.90033e-01,9.99999e-01
5.814530100e-01,3.97302e-01,9.99999e-01,9.99999e-01,9.99867e-01,3.97355e-01,9.99999e-01
5.843602750e-01,4.04601e-01,9.99999e-01,9.99999e-01,9.99841e-01,4.04665e-01,9.99999e-01
5.872820764e-01,4.11399e-01,9.99999e-01,9.99999e-01,9.98635e-01,4.11961e-01,9.99999e-01
5.902184868e-01,4.18553e-01,9.99999e-01,9.99999e-01,9.98357e-01,4.19241e-01,9.99999e-01
5.931695792e-01,4.26006e-01,9.99999e-01,9.99999e-01,9.98837e-01,4.26502e-01,9.99999e-01
5.961354271e-01,4.33190e-01,9.99999e-01,9.99999e-01,9.98727e-01,4.33742e-01,9.99999e-01
5.991161043e-01,4.40549e-01,9.99999e-01,9.99999e-01,9.99072e-01,4.40957e-01,9.99999e-01
6.021116848e-01,4.47912e-01,9.99999e-01,9.99999e-01,9.99474e-01,4.48147e-01,9.99999e-01
6.051222432e-01,4.55188e-01,9.99999e-01,9.99999e-01,9.99733e-01,4.55309e-01,9.99999e-01
6.081478544e-01,4.62387e-01,9.99999e-01,9.99999e-01,9.99884e-01,4.62440e-01,9.99999e-01
6.111885937e-01,4.69516e-01,9.99999e-01,9.99999e-01,9.99951e-01,4.69539e-01,9.99999e-01
6.142445367e-01,4.76592e-01,9.99999e-01,9.99999e-01,9.99977e-01,4.76603e-01,9.99999e-01
6.173157594e-01,4.83625e-01,9.99999e-01,9.99999e-01,9.99987e-01,4.83631e-01,9.99999e-01
6.204023382e-01,4.90615e-01,9.99999e-01,9.99999e-01,9.99989e-01,4.90620e-01,9.99999e-01
6.235043498e-01,4.97547e-01,9.99999e-01,9.99999e-01,9.99954e-01,4.97570e-01,9.99999e-01
6.266218716e-01,5.04358e-01,9.99999e-01,9.99999e-01,9.99763e-01,5.04478e-01,9.99999e-01
6.297549810e-01,5.11298e-01,9.99999e-01,9.99999e-01,9.99912e-01,5.11342e-01,9.99999e-01
6.329037559e-01,5.18073e-01,9.99999e-01,9.99999e-01,9.99828e-01,5.18161e-01,9.99999e-01
6.360682746e-01,5.24858e-01,9.99999e-01,9.99999e-01,9.99853e-01,5.24934e-01,9.99999e-01
6.392486160e-01,5.31559e-01,9.99999e-01,9.99999e-01,9.99810e-01,5.31660e-01,9.99999e-01
6.424448591e-01,5.38199e-01,9.99999e-01,9.99999e-01,9.99744e-01,5.38336e-01,9.99999e-01
6.456570834e-01,5.44317e-01,9.99999e-01,9.99999e-01,9.98817e-01,5.44961e-01,9.99999e-01
6.488853688e-01,5.51061e-01,9.99999e-01,9.99999e-01,9.99140e-01,5.51535e-01,9.99999e-01
6.521297956e-01,5.57567e-01,9.99999e-01,9.99999e-01,9.99123e-01,5.58056e-01,9.99999e-01
6.553904446e-01,5.64029e-01,9.99999e-01,9.99999e-01,9.99125e-01,5.64522e-01,9.99999e-01
6.586673968e-01,5.70508e-01,9.99999e-01,9.99999e-01,9.99253e-01,5.70934e-01,9.99999e-01
6.619607338e-01,5.77050e-01,9.99999e-01,9.99999e-01,9.99583e-01,5.77290e-01,9.99999e-01
6.652705375e-01,5.83444e-01,9.99999e-01,9.99999e-01,9.99750e-01,5.83589e-01,9.99999e-01
6.685968902e-01,5.89768e-01,9.99999e-01,9.99999e-01,9.99893e-01,5.89830e-01,9.99999e-01
6.719398746e-01,5.95981e-01,9.99999e-01,9.99999e-01,9.99945e-01,5.96013e-01,9.99999e-01
6.752995740e-01,6.02120e-01,9.99999e-01,9.99999e-01,9.99971e-01,6.02137e-01,9.99999e-01
6.786760719e-01,6.08175e-01,9.99999e-01,9.99999e-01,9.99957e-01,6.08200e-01,9.99999e-01
6.820694522e-01,6.14159e-01,9.99999e-01,9.99999e-01,9.99927e-01,6.14203e-01,9.99999e-01
6.854797995e-01,6.20088e-01,9.99999e-01,9.99999e-01,9.99906e-01,6.20145e-01,9.99999e-01
6.889071985e-01,6.25883e-01,9.99999e-01,9.99999e-01,9.99771e-01,6.26026e-01,9.99999e-01
6.923517345e-01,6.29509e-01,9.99999e-01,9.99999e-01,9.96303e-01,6.31844e-01,9.99999e-01
6.958134932e-01,6.36391e-01,9.99999e-01,9.99999e-01,9.98103e-01,6.37600e-01,9.99999e-01
6.992925606e-01,6.42119e-01,9.99999e-01,9.99999e-01,9.98173e-01,6.43294e-01,9.99999e-01
7.027890234e-01,6.47469e-01,9.99999e-01,9.99999e-01,9.97757e-01,6.48924e-01,9.99999e-01
7.063029686e-01,6.53256e-01,9.99999e-01,9.99999e-01,9.98114e-01,6.54490e-01,9.99999e-01
7.098344834e-01,6.58800e-01,9.99999e-01,9.99999e-01,9.98190e-01,6.59993e-01,9.99999e-01
7.133836558e-01,6.63814e-01,9.99999e-01,9.99999e-01,9.97566e-01,6.65433e-01,9.99999e-01
7.169505741e-01,6.57772e-01,9.99999e-01,9.99999e-01,9.80566e-01,6.70808e-01,9.99999e-01
7.205353270e-01,6.69749e-01,9.99999e-01,9.99999e-01,9.90578e-01,6.76119e-01,9.99999e-01
7.241380036e-01,6.73140e-01,9.99999e-01,9.99999e-01,9.87926e-01,6.81367e-01,9.99999e-01
7.277586936e-01,6.79070e-01,9.99999e-01,9.99999e-01,9.89104e-01,6.86550e-01,9.99999e-01
7.313974871e-01,6.83703e-01,9.99999e-01,9.99999e-01,9.88482e-01,6.91669e-01,9.99999e-01
7.350544745e-01,6.92329e-01,9.99999e-01,9.99999e-01,9.93692e-01,6.96724e-01,9.99999e-01
7.387297469e-01,6.98459e-01,9.99999e-01,9.99999e-01,9.95360e-01,7.01714e-01,9.99999e-01
7.424233956e-01,7.05039e-01,9.99999e-01,9.99999e-01,9.97732e-01,7.06641e-01,9.99999e-01
7.461355126e-01,7.10526e-01,9.99999e-01,9.99999e-01,9.98624e-01,7.11505e-01,9.99999e-01
7.498661902e-01,7.15847e-01,9.99999e-01,9.99999e-01,9.99360e-01,7.16304e-01,9.99999e-01
7.536155211e-01,7.20814e-01,9.99999e-01,9.99999e-01,9.99685e-01,7.21041e-01,9.99999e-01
7.573835987e-01,7.25597e-01,9.99999e-01,9.99999e-01,9.99837e-01,7.25714e-01,9.99999e-01
7.611705167e-01,7.30251e-01,9.99999e-01,9.99999e-01,9.99899e-01,7.30324e-01,9.99999e-01
7.649763693e-01,7.34825e-01,9.99999e-01,9.99999e-01,9.99936e-01,7.34872e-01,9.99999e-01
7.688012511e-01,7.39325e-01,9.99999e-01,9.99999e-01,9.99955e-01,7.39357e-01,9.99999e-01
7.726452574e-01,7.43753e-01,9.99999e-01,9.99999e-01,9.99963e-01,7.43780e-01,9.99999e-01
7.765084837e-01,7.48103e-01,9.99999e-01,9.99999e-01,9.99947e-01,7.48142e-01,9.99999e-01
7.803910261e-01,7.41179e-01,9.99999e-01,9.85247e-01,9.99776e-01,7.52442e-01,9.99999e-01
7.842929812e-01,7.11316e-01,9.99999e-01,9.40765e-01,9.99219e-01,7.56681e-01,9.99999e-01
7.882144461e-01,7.11159e-01,9.99999e-01,9.36147e-01,9.98401e-01,7.60860e-01,9.99999e-01
7.921555184e-01,7.35972e-01,9.99999e-01,9.62914e-01,9.99126e-01,7.64979e-01,9.99999e-01
7.961162960e-01,7.48836e-01,9.99999e-01,9.75242e-01,9.98444e-01,7.69037e-01,9.99999e-01
8.000968774e-01,7.61232e-01,9.99999e-01,9.86492e-01,9.98210e-01,7.73037e-01,9.99999e-01
8.040973618e-01,7.70162e-01,9.99999e-01,9.93005e-01,9.98208e-01,7.76978e-01,9.99999e-01
8.081178486e-01,7.75186e-01,9.99999e-01,9.96775e-01,9.95942e-01,7.80860e-01,9.99999e-01
8.121584379e-01,7.70715e-01,9.99999e-01,9.99009e-01,9.83165e-01,7.84685e-01,9.99999e-01
8.162192301e-01,7.72640e-01,9.99999e-01,9.99780e-01,9.80157e-01,7.88452e-01,9.99999e-01
8.203003262e-01,7.84146e-01,9.99999e-01,9.99996e-01,9.89883e-01,7.92162e-01,9.99999e-01
8.244018279e-01,7.84745e-01,9.99999e-01,9.99999e-01,9.86088e-01,7.95816e-01,9.99999e-01
8.285238370e-01,7.89892e-01,9.99999e-01,9.99999e-01,9.88087e-01,7.99415e-01,9.99999e-01
8.326664562e-01,7.93309e-01,9.99999e-01,9.99999e-01,9.87983e-01,8.02957e-01,9.99999e-01
8.368297885e-01,7.99536e-01,9.99999e-01,9.99999e-01,9.91431e-01,8.06446e-01,9.99999e-01
8.410139374e-01,8.05754e-01,9.99999e-01,9.99999e-01,9.94905e-01,8.09880e-01,9.99999e-01
8.452190071e-01,8.11229e-01,9.99999e-01,9.99999e-01,9.97502e-01,8.13260e-01,9.99999e-01
8.494451021e-01,8.15401e-01,9.99999e-01,9.99999e-01,9.98547e-01,8.16587e-01,9.99999e-01
8.536923276e-01,8.19159e-01,9.99999e-01,9.99999e-01,9.99142e-01,8.19862e-01,9.99999e-01
8.579607893e-01,8.22650e-01,9.99999e-01,9.99999e-01,9.99470e-01,8.23085e-01,9.99999e-01
8.622505932e-01,8.25979e-01,9.99999e-01,9.99999e-01,9.99664e-01,8.26256e-01,9.99999e-01
8.665618462e-01,7.95758e-01,9.99999e-01,9.59659e-01,9.99791e-01,8.29377e-01,9.99999e-01
8.708946554e-01,7.10248e-01,9.99999e-01,8.53404e-01,9.99761e-01,8.32447e-01,9.99999e-01
8.752491287e-01,7.36768e-01,9.99999e-01,8.82140e-01,9.99680e-01,8.35468e-01,9.99999e-01
8.796253743e-01,7.83007e-01,9.99999e-01,9.34293e-01,9.99557e-01,8.38440e-01,9.99999e-01
8.840235012e-01,8.11991e-01,9.99999e-01,9.65574e-01,9.99494e-01,8.41363e-01,9.99999e-01
8.884436187e-01,8.31179e-01,9.99999e-01,9.86364e-01,9.98132e-01,8.44239e-01,9.99999e-01
8.928858368e-01,8.26014e-01,9.99999e-01,9.94449e-01,9.80569e-01,8.47067e-01,9.99999e-01
8.973502660e-01,8.19882e-01,9.99999e-01,9.98655e-01,9.66027e-01,8.49849e-01,9.99999e-01
9.018370173e-01,8.37621e-01,9.99999e-01,9.99851e-01,9.82593e-01,8.52584e-01,9.99999e-01
9.063462024e-01,8.38793e-01,9.99999e-01,9.96092e-01,9.84528e-01,8.55274e-01,9.99998e-01
9.108779334e-01,8.30068e-01,9.99999e-01,9.91235e-01,9.76048e-01,8.57919e-01,9.99998e-01
9.154323231e-01,8.35501e-01,9.99999e-01,9.97951e-01,9.72901e-01,8.60520e-01,9.99998e-01
9.200094847e-01,8.18780e-01,9.99999e-01,9.68830e-01,9.78727e-01,8.63077e-01,9.99998e-01
9.246095321e-01,8.01088e-01,9.99999e-01,9.57712e-01,9.66012e-01,8.65591e-01,9.99997e-01
9.292325798e-01,6.66238e-01,9.99999e-01,9.66263e-01,7.92945e-01,8.68063e-01,9.99996e-01
9.338787427e-01,6.25749e-01,9.99999e-01,9.67729e-01,7.41601e-01,8.70492e-01,9.99995e-01
9.385481364e-01,7.56337e-01,9.99999e-01,9.76238e-01,8.87037e-01,8.72880e-01,9.99995e-01
9.432408771e-01,7.27526e-01,9.99999e-01,9.85438e-01,8.43221e-01,8.75227e-01,9.99994e-01
9.479570815e-01,6.85646e-01,9.99999e-01,9.92494e-01,7.87087e-01,8.77534e-01,9.99995e-01
9.526968669e-01,7.35942e-01,9.99999e-01,9.96379e-01,8.39400e-01,8.79802e-01,9.99996e-01
9.574603512e-01,7.52420e-01,9.99999e-01,9.98451e-01,8.54342e-01,8.82030e-01,9.99997e-01
9.622476530e-01,7.78284e-01,9.99999e-01,9.99517e-01,8.80608e-01,8.84220e-01,9.99997e-01
9.670588912e-01,8.23726e-01,9.99999e-01,9.99855e-01,9.29455e-01,8.86371e-01,9.99998e-01
9.718941857e-01,8.48979e-01,9.99999e-01,9.99989e-01,9.55544e-01,8.88486e-01,9.99998e-01
9.767536566e-01,8.57583e-01,9.99999e-01,9.99999e-01,9.62967e-01,8.90563e-01,9.99999e-01
9.816374249e-01,8.68065e-01,9.99999e-01,9.99999e-01,9.72508e-01,8.92604e-01,9.99999e-01
9.865456120e-01,8.79182e-01,9.99999e-01,9.99999e-01,9.82754e-01,8.94610e-01,9.99999e-01
9.914783401e-01,8.86996e-01,9.99999e-01,9.99999e-01,9.89309e-01,8.96580e-01,9.99999e-01
9.964357318e-01,8.93274e-01,9.99999e-01,9.99999e-01,9.94166e-01,8.98515e-01,9.99999e-01
1.001417910e+00,8.97267e-01,9.99999e-01,9.99999e-01,9.96501e-01,9.00416e-01,9.99999e-01
1.006425000e+00,9.00482e-01,9.99999e-01,9.99999e-01,9.98002e-01,9.02284e-01,9.99999e-01
1.011457125e+00,9.02999e-01,9.99999e-01,9.99999e-01,9.98761e-01,9.04118e-01,9.99999e-01
1.016514411e+00,9.05158e-01,9.99999e-01,9.99999e-01,9.99158e-01,9.05920e-01,9.99999e-01
1.021596983e+00,9.07061e-01,9.99999e-01,9.99977e-01,9.99329e-01,9.07690e-01,9.99999e-01
1.026704968e+00,9.07569e-01,9.99999e-01,9.98476e-01,9.99476e-01,9.09428e-01,9.99999e-01
1.031838492e+00,8.88244e-01,9.99999e-01,9.75238e-01,9.99619e-01,9.11135e-01,9.99999e-01
1.036997685e+00,3.03763e-01,9.99999e-01,3.32841e-01,9.99773e-01,9.12811e-01,9.99999e-01
1.042182673e+00,3.75656e-01,9.99999e-01,4.10901e-01,9.99729e-01,9.14458e-01,9.99999e-01
1.047393587e+00,3.35398e-01,9.99999e-01,3.66245e-01,9.99642e-01,9.16074e-01,9.99999e-01
1.052630555e+00,6.89731e-02,9.99999e-01,7.51916e-02,9.99508e-01,9.17662e-01,9.99999e-01
1.057893707e+00,1.22355e-01,9.99999e-01,1.33197e-01,9.99178e-01,9.19221e-01,9.99999e-01
1.063183176e+00,2.14493e-01,9.99999e-01,2.33218e-01,9.98649e-01,9.20751e-01,9.99999e-01
1.068499092e+00,3.50508e-01,9.99999e-01,3.80849e-01,9.97741e-01,9.22254e-01,9.99999e-01
1.073841587e+00,5.02255e-01,9.99999e-01,5.45059e-01,9.97352e-01,9.23730e-01,9.99999e-01
1.079210795e+00,6.29099e-01,9.99999e-01,6.82196e-01,9.96617e-01,9.25178e-01,9.99999e-01
1.084606849e+00,7.48692e-01,9.99999e-01,8.12079e-01,9.94874e-01,9.26601e-01,9.99999e-01
1.090029883e+00,8.27087e-01,9.99999e-01,8.97821e-01,9.92610e-01,9.27997e-01,9.99999e-01
1.095480033e+00,8.63862e-01,9.99999e-01,9.48393e-01,9.80009e-01,9.29368e-01,9.99999e-01
1.100957433e+00,8.61876e-01,9.99999e-01,9.74829e-01,9.49848e-01,9.30713e-01,9.99998e-01
1.106462220e+00,8.08211e-01,9.99999e-01,9.89530e-01,8.76182e-01,9.32034e-01,9.99997e-01
1.111994531e+00,7.03462e-01,9.99999e-01,9.96108e-01,7.56565e-01,9.33331e-01,9.99995e-01
1.117554504e+00,5.92933e-01,9.99999e-01,9.99051e-01,6.34975e-01,9.34604e-01,9.99994e-01
1.123142276e+00,6.65663e-01,9.99999e-01,9.99937e-01,7.11326e-01,9.35853e-01,9.99993e-01
1.128757988e+00,7.55669e-01,9.99999e-01,9.99999e-01,8.06413e-01,9.37079e-01,9.99992e-01
1.134401778e+00,5.55858e-01,9.99999e-01,9.99999e-01,5.92425e-01,9.38283e-01,9.99991e-01
1.140073787e+00,8.27961e-01,9.99999e-01,9.99999e-01,8.81316e-01,9.39464e-01,9.99993e-01
1.145774156e+00,7.20593e-01,9.99999e-01,9.99999e-01,7.66083e-01,9.40624e-01,9.99994e-01
1.151503026e+00,6.98013e-01,9.99999e-01,9.99999e-01,7.41181e-01,9.41762e-01,9.99994e-01
1.157260541e+00,7.38584e-01,9.99999e-01,9.99999e-01,7.83331e-01,9.42879e-01,9.99996e-01
1.163046844e+00,7.88815e-01,9.99999e-01,9.99999e-01,8.35633e-01,9.43975e-01,9.99997e-01
1.168862078e+00,8.34997e-01,9.99999e-01,9.99999e-01,8.83548e-01,9.45050e-01,9.99998e-01
1.174706389e+00,8.76530e-01,9.99999e-01,9.99999e-01,9.26460e-01,9.46106e-01,9.99998e-01
1.180579921e+00,9.04165e-01,9.99999e-01,9.99999e-01,9.54624e-01,9.47142e-01,9.99999e-01
1.186482820e+00,9.23630e-01,9.99999e-01,9.99996e-01,9.74133e-01,9.48158e-01,9.99999e-01
1.192415234e+00,9.29640e-01,9.99999e-01,9.94502e-01,9.84827e-01,9.49156e-01,9.99999e-01
1.198377311e+00,5.58987e-01,9.99999e-01,5.94761e-01,9.87180e-01,9.50135e-01,9.99999e-01
1.204369197e+00,8.02928e-06,9.99999e-01,8.50180e-06,9.87863e-01,9.51095e-01,9.99999e-01
1.210391043e+00,1.31782e-17,9.99999e-01,1.39320e-17,9.88398e-01,9.52038e-01,9.99999e-01
1.216442998e+00,1.74310e-15,9.99999e-01,1.84042e-15,9.90136e-01,9.52962e-01,9.99999e-01
1.222525213e+00,3.02621e-15,9.99999e-01,3.18567e-15,9.92313e-01,9.53870e-01,9.99999e-01
1.228637839e+00,1.08869e-11,9.99999e-01,1.14467e-11,9.94655e-01,9.54760e-01,9.99999e-01
