#,Wave/freq,Total,O2,CO2,H2O,Rayleigh,CIA
4.000000000e-01,1.41088e-04,9.99999e-01,9.99999e-01,9.99982e-01,1.41091e-04,9.99999e-01
4.020000000e-01,1.68124e-04,9.99999e-01,9.99999e-01,9.99988e-01,1.68125e-04,9.99999e-01
4.040100000e-01,1.99611e-04,9.99999e-01,9.99999e-01,9.99994e-01,1.99612e-04,9.99999e-01
4.060300500e-01,2.36193e-04,9.99999e-01,9.99999e-01,9.99998e-01,2.36193e-04,9.99999e-01
4.080602003e-01,2.78550e-04,9.99999e-01,9.99999e-01,9.99999e-01,2.78550e-04,9.99999e-01
4.101005013e-01,3.27435e-04,9.99999e-01,9.99999e-01,9.99999e-01,3.27435e-04,9.99999e-01
4.121510038e-01,3.83672e-04,9.99999e-01,9.99999e-01,9.99998e-01,3.83672e-04,9.99999e-01
4.142117588e-01,4.48161e-04,9.99999e-01,9.99999e-01,9.99994e-01,4.48163e-04,9.99999e-01
4.162828176e-01,5.21878e-04,9.99999e-01,9.99999e-01,9.99978e-01,5.21889e-04,9.99999e-01
4.183642317e-01,6.05911e-04,9.99999e-01,9.99999e-01,9.99986e-01,6.05918e-04,9.99999e-01
4.204560528e-01,7.01401e-04,9.99999e-01,9.99999e-01,9.99991e-01,7.01406e-04,9.99999e-01
4.225583331e-01,8.09596e-04,9.99999e-01,9.99999e-01,9.99996e-01,8.09598e-04,9.99999e-01
4.246711247e-01,9.31832e-04,9.99999e-01,9.99999e-01,9.99997e-01,9.31834e-04,9.99999e-01
4.267944804e-01,1.06955e-03,9.99999e-01,9.99999e-01,9.99996e-01,1.06955e-03,9.99999e-01
4.289284528e-01,1.22428e-03,9.99999e-01,9.99999e-01,9.99996e-01,1.22428e-03,9.99999e-01
4.310730950e-01,1.39767e-03,9.99999e-01,9.99999e-01,9.99998e-01,1.39767e-03,9.99999e-01
4.332284605e-01,1.59144e-03,9.99999e-01,9.99999e-01,9.99999e-01,1.59144e-03,9.99999e-01
4.353946028e-01,1.80743e-03,9.99999e-01,9.99999e-01,9.99999e-01,1.80743e-03,9.99999e-01
4.375715758e-01,2.04757e-03,9.99999e-01,9.99999e-01,9.99997e-01,2.04758e-03,9.99999e-01
4.397594337e-01,2.31389e-03,9.99999e-01,9.99999e-01,9.99980e-01,2.31393e-03,9.99999e-01
4.419582309e-01,2.60837e-03,9.99999e-01,9.99999e-01,9.99903e-01,2.60862e-03,9.99999e-01
4.441680220e-01,2.93367e-03,9.99999e-01,9.99999e-01,9.99924e-01,2.93389e-03,9.99999e-01
4.463888621e-01,3.29180e-03,9.99999e-01,9.99999e-01,9.99921e-01,3.29206e-03,9.99999e-01
4.486208064e-01,3.68538e-03,9.99999e-01,9.99999e-01,9.99951e-01,3.68556e-03,9.99999e-01
4.508639105e-01,4.11682e-03,9.99999e-01,9.99999e-01,9.99976e-01,4.11691e-03,9.99999e-01
4.531182300e-01,4.58866e-03,9.99999e-01,9.99999e-01,9.99990e-01,4.58870e-03,9.99999e-01
4.553838212e-01,5.10357e-03,9.99999e-01,9.99999e-01,9.99993e-01,5.10360e-03,9.99999e-01
4.576607403e-01,5.66436e-03,9.99999e-01,9.99999e-01,9.99996e-01,5.66437e-03,9.99999e-01
4.599490440e-01,6.27382e-03,9.99999e-01,9.99999e-01,9.99997e-01,6.27383e-03,9.99999e-01
4.622487892e-01,6.93484e-03,9.99999e-01,9.99999e-01,9.99999e-01,6.93485e-03,9.99999e-01
4.645600332e-01,7.65035e-03,9.99999e-01,9.99999e-01,9.99998e-01,7.65036e-03,9.99999e-01
4.668828333e-01,8.42315e-03,9.99999e-01,9.99999e-01,9.99976e-01,8.42334e-03,9.99999e-01
4.692172475e-01,9.25635e-03,9.99999e-01,9.99999e-01,9.99950e-01,9.25680e-03,9.99999e-01
4.715633337e-01,1.01535e-02,9.99999e-01,9.99999e-01,9.99967e-01,1.01538e-02,9.99999e-01
4.739211504e-01,1.11170e-02,9.99999e-01,9.99999e-01,9.99968e-01,1.11174e-02,9.99999e-01
4.762907561e-01,1.21504e-02,9.99999e-01,9.99999e-01,9.99983e-01,1.21506e-02,9.99999e-01
4.786722099e-01,1.32565e-02,9.99999e-01,9.99999e-01,9.99993e-01,1.32566e-02,9.99999e-01
4.810655710e-01,1.44384e-02,9.99999e-01,9.99999e-01,9.99997e-01,1.44384e-02,9.99999e-01
4.834708988e-01,1.56988e-02,9.99999e-01,9.99999e-01,9.99980e-01,1.56990e-02,9.99999e-01
4.858882533e-01,1.70410e-02,9.99999e-01,9.99999e-01,9.99964e-01,1.70416e-02,9.99999e-01
4.883176946e-01,1.84684e-02,9.99999e-01,9.99999e-01,9.99970e-01,1.84689e-02,9.99999e-01
4.907592831e-01,1.99835e-02,9.99999e-01,9.99999e-01,9.99973e-01,1.99840e-02,9.99999e-01
4.932130795e-01,2.15894e-02,9.99999e-01,9.99999e-01,9.99980e-01,2.15898e-02,9.99999e-01
4.956791449e-01,2.32888e-02,9.99999e-01,9.99999e-01,9.99989e-01,2.32891e-02,9.99999e-01
4.981575406e-01,2.50832e-02,9.99999e-01,9.99999e-01,9.99950e-01,2.50845e-02,9.99999e-01
5.006483283e-01,2.69752e-02,9.99999e-01,9.99999e-01,9.99872e-01,2.69787e-02,9.99999e-01
5.031515699e-01,2.89555e-02,9.99999e-01,9.99999e-01,9.99354e-01,2.89742e-02,9.99999e-01
5.056673278e-01,3.10630e-02,9.99999e-01,9.99999e-01,9.99659e-01,3.10735e-02,9.99999e-01
5.081956644e-01,3.32647e-02,9.99999e-01,9.99999e-01,9.99570e-01,3.32790e-02,9.99999e-01
5.107366428e-01,3.55823e-02,9.99999e-01,9.99999e-01,9.99709e-01,3.55927e-02,9.99999e-01
5.132903260e-01,3.80104e-02,9.99999e-01,9.99999e-01,9.99833e-01,3.80167e-02,9.99999e-01
5.158567776e-01,4.05502e-02,9.99999e-01,9.99999e-01,9.99929e-01,4.05531e-02,9.99999e-01
5.184360615e-01,4.32023e-02,9.99999e-01,9.99999e-01,9.99971e-01,4.32035e-02,9.99999e-01
5.210282418e-01,4.59691e-02,9.99999e-01,9.99999e-01,9.99989e-01,4.59696e-02,9.99999e-01
5.236333830e-01,4.88508e-02,9.99999e-01,9.99999e-01,9.99957e-01,4.88529e-02,9.99999e-01
5.262515499e-01,5.18533e-02,9.99999e-01,9.99999e-01,9.99973e-01,5.18547e-02,9.99999e-01
5.288828077e-01,5.49748e-02,9.99999e-01,9.99999e-01,9.99975e-01,5.49761e-02,9.99999e-01
5.315272217e-01,5.82169e-02,9.99999e-01,9.99999e-01,9.99978e-01,5.82182e-02,9.99999e-01
5.341848578e-01,6.15808e-02,9.99999e-01,9.99999e-01,9.99985e-01,6.15817e-02,9.99999e-01
5.368557821e-01,6.50641e-02,9.99999e-01,9.99999e-01,9.99950e-01,6.50673e-02,9.99999e-01
5.395400610e-01,6.86634e-02,9.99999e-01,9.99999e-01,9.99822e-01,6.86755e-02,9.99999e-01
5.422377613e-01,7.23901e-02,9.99999e-01,9.99999e-01,9.99771e-01,7.24066e-02,9.99999e-01
5.449489501e-01,7.62444e-02,9.99999e-01,9.99999e-01,9.99787e-01,7.62606e-02,9.99999e-01
5.476736949e-01,8.02225e-02,9.99999e-01,9.99999e-01,9.99811e-01,8.02375e-02,9.99999e-01
5.504120634e-01,8.43256e-02,9.99999e-01,9.99999e-01,9.99863e-01,8.43371e-02,9.99999e-01
5.531641237e-01,8.85529e-02,9.99999e-01,9.99999e-01,9.99930e-01,8.85590e-02,9.99999e-01
5.559299443e-01,9.28994e-02,9.99999e-01,9.99999e-01,9.99966e-01,9.29025e-02,9.99999e-01
5.587095940e-01,9.73649e-02,9.99999e-01,9.99999e-01,9.99978e-01,9.73669e-02,9.99999e-01
5.615031420e-01,1.01949e-01,9.99999e-01,9.99999e-01,9.99976e-01,1.01951e-01,9.99999e-01
5.643106577e-01,1.06652e-01,9.99999e-01,9.99999e-01,9.99973e-01,1.06655e-01,9.99999e-01
5.671322110e-01,1.11440e-01,9.99999e-01,9.99999e-01,9.99679e-01,1.11475e-01,9.99999e-01
5.699678720e-01,1.16373e-01,9.99999e-01,9.99999e-01,9.99660e-01,1.16413e-01,9.99999e-01
5.728177114e-01,1.21421e-01,9.99999e-01,9.99999e-01,9.99646e-01,1.21464e-01,9.99999e-01
5.756818000e-01,1.26588e-01,9.99999e-01,9.99999e-01,9.99675e-01,1.26629e-01,9.99999e-01
5.785602090e-01,1.31867e-01,9.99999e-01,9.99999e-01,9.99716e-01,1.31905e-01,9.99999e-01
5.814530100e-01,1.37251e-01,9.99999e-01,9.99999e-01,9.99715e-01,1.37289e-01,9.99999e-01
5.843602750e-01,1.42733e-01,9.99999e-01,9.99999e-01,9.99660e-01,1.42781e-01,9.99999e-01
5.872820764e-01,1.47944e-01,9.99999e-01,9.99999e-01,9.97080e-01,1.48378e-01,9.99999e-01
5.902184868e-01,1.53532e-01,9.99999e-01,9.99999e-01,9.96466e-01,1.54076e-01,9.99999e-01
5.931695792e-01,1.59476e-01,9.99999e-01,9.99999e-01,9.97502e-01,1.59875e-01,9.99999e-01
5.961354271e-01,1.65317e-01,9.99999e-01,9.99999e-01,9.97263e-01,1.65771e-01,9.99999e-01
5.991161043e-01,1.71418e-01,9.99999e-01,9.99999e-01,9.98003e-01,1.71761e-01,9.99999e-01
6.021116848e-01,1.77641e-01,9.99999e-01,9.99999e-01,9.98866e-01,1.77843e-01,9.99999e-01
6.051222432e-01,1.83908e-01,9.99999e-01,9.99999e-01,9.99426e-01,1.84014e-01,9.99999e-01
6.081478544e-01,1.90223e-01,9.99999e-01,9.99999e-01,9.99752e-01,1.90270e-01,9.99999e-01
6.111885937e-01,1.96589e-01,9.99999e-01,9.99999e-01,9.99894e-01,1.96610e-01,9.99999e-01
6.142445367e-01,2.03020e-01,9.99999e-01,9.99999e-01,9.99952e-01,2.03029e-01,9.99999e-01
6.173157594e-01,2.09519e-01,9.99999e-01,9.99999e-01,9.99973e-01,2.09525e-01,9.99999e-01
6.204023382e-01,2.16089e-01,9.99999e-01,9.99999e-01,9.99977e-01,2.16094e-01,9.99999e-01
6.235043498e-01,2.22712e-01,9.99999e-01,9.99999e-01,9.99903e-01,2.22733e-01,9.99999e-01
6.266218716e-01,2.29323e-01,9.99999e-01,9.99999e-01,9.99491e-01,2.29439e-01,9.99999e-01
6.297549810e-01,2.36165e-01,9.99999e-01,9.99999e-01,9.99813e-01,2.36209e-01,9.99999e-01
6.329037559e-01,2.42949e-01,9.99999e-01,9.99999e-01,9.99631e-01,2.43039e-01,9.99999e-01
6.360682746e-01,2.49847e-01,9.99999e-01,9.99999e-01,9.99685e-01,2.49925e-01,9.99999e-01
6.392486160e-01,2.56760e-01,9.99999e-01,9.99999e-01,9.99592e-01,2.56865e-01,9.99999e-01
6.424448591e-01,2.63711e-01,9.99999e-01,9.99999e-01,9.99454e-01,2.63854e-01,9.99999e-01
6.456570834e-01,2.70206e-01,9.99999e-01,9.99999e-01,9.97470e-01,2.70891e-01,9.99999e-01
6.488853688e-01,2.77456e-01,9.99999e-01,9.99999e-01,9.98149e-01,2.77970e-01,9.99999e-01
6.521297956e-01,2.84551e-01,9.99999e-01,9.99999e-01,9.98113e-01,2.85089e-01,9.99999e-01
6.553904446e-01,2.91695e-01,9.99999e-01,9.99999e-01,9.98122e-01,2.92244e-01,9.99999e-01
6.586673968e-01,2.98951e-01,9.99999e-01,9.99999e-01,9.98392e-01,2.99432e-01,9.99999e-01
6.619607338e-01,3.06375e-01,9.99999e-01,9.99999e-01,9.99103e-01,3.06650e-01,9.99999e-01
6.652705375e-01,3.13725e-01,9.99999e-01,9.99999e-01,9.99461e-01,3.13894e-01,9.99999e-01
6.685968902e-01,3.21081e-01,9.99999e-01,9.99999e-01,9.99749e-01,3.21161e-01,9.99999e-01
6.719398746e-01,3.28410e-01,9.99999e-01,9.99999e-01,9.99883e-01,3.28448e-01,9.99999e-01
6.752995740e-01,3.35730e-01,9.99999e-01,9.99999e-01,9.99936e-01,3.35751e-01,9.99999e-01
6.786760719e-01,3.43036e-01,9.99999e-01,9.99999e-01,9.99908e-01,3.43067e-01,9.99999e-01
6.820694522e-01,3.50340e-01,9.99999e-01,9.99999e-01,9.99844e-01,3.50394e-01,9.99999e-01
6.854797995e-01,3.57656e-01,9.99999e-01,9.99999e-01,9.99799e-01,3.57728e-01,9.99999e-01
6.889071985e-01,3.64889e-01,9.99999e-01,9.99999e-01,9.99514e-01,3.65066e-01,9.99999e-01
6.923517345e-01,3.69463e-01,9.99999e-01,9.99999e-01,9.92099e-01,3.72405e-01,9.99999e-01
6.958134932e-01,3.78183e-01,9.99999e-01,9.99999e-01,9.95893e-01,3.79742e-01,9.99999e-01
6.992925606e-01,3.85562e-01,9.99999e-01,9.99999e-01,9.96091e-01,3.87075e-01,9.99999e-01
7.027890234e-01,3.92499e-01,9.99999e-01,9.99999e-01,9.95179e-01,3.94400e-01,9.99999e-01
7.063029686e-01,4.00087e-01,9.99999e-01,9.99999e-01,9.95946e-01,4.01715e-01,9.99999e-01
7.098344834e-01,4.07427e-01,9.99999e-01,9.99999e-01,9.96110e-01,4.09018e-01,9.99999e-01
7.133836558e-01,4.14144e-01,9.99999e-01,9.99999e-01,9.94810e-01,4.16304e-01,9.99999e-01
7.169505741e-01,4.06169e-01,9.99999e-01,9.99999e-01,9.58911e-01,4.23573e-01,9.99999e-01
7.205353270e-01,4.22091e-01,9.99999e-01,9.99999e-01,9.79734e-01,4.30822e-01,9.99998e-01
7.241380036e-01,4.26788e-01,9.99999e-01,9.99999e-01,9.74295e-01,4.38048e-01,9.99998e-01
7.277586936e-01,4.34908e-01,9.99999e-01,9.99999e-01,9.76777e-01,4.45248e-01,9.99999e-01
7.313974871e-01,4.41269e-01,9.99999e-01,9.99999e-01,9.75350e-01,4.52421e-01,9.99999e-01
7.350544745e-01,4.53346e-01,9.99999e-01,9.99999e-01,9.86467e-01,4.59565e-01,9.99999e-01
7.387297469e-01,4.62024e-01,9.99999e-01,9.99999e-01,9.90030e-01,4.66677e-01,9.99999e-01
7.424233956e-01,4.71440e-01,9.99999e-01,9.99999e-01,9.95113e-01,4.73755e-01,9.99999e-01
7.461355126e-01,4.79373e-01,9.99999e-01,9.99999e-01,9.97036e-01,4.80798e-01,9.99999e-01
7.498661902e-01,4.87130e-01,9.99999e-01,9.99999e-01,9.98619e-01,4.87803e-01,9.99999e-01
7.536155211e-01,4.94434e-01,9.99999e-01,9.99999e-01,9.99322e-01,4.94769e-01,9.99999e-01
7.573835987e-01,5.01519e-01,9.99999e-01,9.99999e-01,9.99651e-01,5.01694e-01,9.99999e-01
7.611705167e-01,5.08466e-01,9.99999e-01,9.99999e-01,9.99783e-01,5.08576e-01,9.99999e-01
7.649763693e-01,5.15344e-01,9.99999e-01,9.99999e-01,9.99863e-01,5.15414e-01,9.99999e-01
7.688012511e-01,5.22157e-01,9.99999e-01,9.99999e-01,9.99904e-01,5.22206e-01,9.99999e-01
7.726452574e-01,5.28910e-01,9.99999e-01,9.99999e-01,9.99921e-01,5.28951e-01,9.99999e-01
7.765084837e-01,5.35587e-01,9.99999e-01,9.99999e-01,9.99888e-01,5.35647e-01,9.99999e-01
7.803910261e-01,5.26095e-01,9.99999e-01,9.70581e-01,9.99521e-01,5.42293e-01,9.99999e-01
7.842929812e-01,4.81288e-01,9.99999e-01,8.78247e-01,9.98330e-01,5.48887e-01,9.99999e-01
7.882144461e-01,4.81609e-01,9.99999e-01,8.69978e-01,9.96565e-01,5.55430e-01,9.99999e-01
7.921555184e-01,5.17303e-01,9.99999e-01,9.22302e-01,9.98116e-01,5.61918e-01,9.99999e-01
7.961162960e-01,5.36671e-01,9.99999e-01,9.47386e-01,9.96669e-01,5.68353e-01,9.99999e-01
8.000968774e-01,5.55998e-01,9.99999e-01,9.71129e-01,9.96155e-01,5.74731e-01,9.99999e-01
8.040973618e-01,5.70112e-01,9.99999e-01,9.84951e-01,9.96153e-01,5.81053e-01,9.99999e-01
8.081178486e-01,5.78197e-01,9.99999e-01,9.93061e-01,9.91337e-01,5.87318e-01,9.99999e-01
8.121584379e-01,5.71135e-01,9.99999e-01,9.97854e-01,9.64328e-01,5.93524e-01,9.99999e-01
8.162192301e-01,5.74105e-01,9.99999e-01,9.99525e-01,9.57812e-01,5.99672e-01,9.99998e-01
8.203003262e-01,5.92840e-01,9.99999e-01,9.99992e-01,9.78677e-01,6.05760e-01,9.99998e-01
8.244018279e-01,5.93651e-01,9.99999e-01,9.99999e-01,9.70354e-01,6.11787e-01,9.99998e-01
8.285238370e-01,6.02076e-01,9.99999e-01,9.99999e-01,9.74619e-01,6.17754e-01,9.99999e-01
8.326664562e-01,6.07662e-01,9.99999e-01,9.99999e-01,9.74349e-01,6.23660e-01,9.99999e-01
8.368297885e-01,6.17941e-01,9.99999e-01,9.99999e-01,9.81633e-01,6.29503e-01,9.99999e-01
8.410139374e-01,6.28330e-01,9.99999e-01,9.99999e-01,9.89053e-01,6.35284e-01,9.99999e-01
8.452190071e-01,6.37555e-01,9.99999e-01,9.99999e-01,9.94620e-01,6.41003e-01,9.99999e-01
8.494451021e-01,6.44639e-01,9.99999e-01,9.99999e-01,9.96875e-01,6.46658e-01,9.99999e-01
8.536923276e-01,6.51046e-01,9.99999e-01,9.99999e-01,9.98152e-01,6.52251e-01,9.99999e-01
8.579607893e-01,6.57031e-01,9.99999e-01,9.99999e-01,9.98861e-01,6.57780e-01,9.99999e-01
8.622505932e-01,6.62765e-01,9.99999e-01,9.99999e-01,9.99276e-01,6.63245e-01,9.99999e-01
8.665618462e-01,6.22913e-01,9.99999e-01,9.32005e-01,9.99552e-01,6.68646e-01,9.99999e-01
8.708946554e-01,4.83681e-01,9.99999e-01,7.18002e-01,9.99487e-01,6.73983e-01,9.99999e-01
8.752491287e-01,5.20316e-01,9.99999e-01,7.66520e-01,9.99314e-01,6.79256e-01,9.99999e-01
8.796253743e-01,5.91161e-01,9.99999e-01,8.64482e-01,9.99050e-01,6.84465e-01,9.99999e-01
8.840235012e-01,6.38837e-01,9.99999e-01,9.27367e-01,9.98915e-01,6.89610e-01,9.99999e-01
8.884436187e-01,6.71724e-01,9.99999e-01,9.70753e-01,9.96038e-01,6.94691e-01,9.99999e-01
8.928858368e-01,6.63046e-01,9.99999e-01,9.88050e-01,9.58979e-01,6.99707e-01,9.99998e-01
8.973502660e-01,6.52463e-01,9.99999e-01,9.97088e-01,9.28582e-01,7.04660e-01,9.99998e-01
9.018370173e-01,6.83018e-01,9.99999e-01,9.99678e-01,9.62909e-01,7.09549e-01,9.99998e-01
9.063462024e-01,6.85427e-01,9.99999e-01,9.91738e-01,9.67257e-01,7.14375e-01,9.99998e-01
9.108779334e-01,6.70064e-01,9.99999e-01,9.81205e-01,9.49420e-01,7.19136e-01,9.99998e-01
9.154323231e-01,6.79439e-01,9.99999e-01,9.95563e-01,9.42773e-01,7.23835e-01,9.99998e-01
9.200094847e-01,6.52867e-01,9.99999e-01,9.36588e-01,9.54891e-01,7.28471e-01,9.99997e-01
9.246095321e-01,6.22127e-01,9.99999e-01,9.11256e-01,9.29981e-01,7.33043e-01,9.99996e-01
9.292325798e-01,4.24771e-01,9.99999e-01,9.29581e-01,6.15320e-01,7.37554e-01,9.99992e-01
9.338787427e-01,3.72191e-01,9.99999e-01,9.31987e-01,5.34648e-01,7.42002e-01,9.99990e-01
9.385481364e-01,5.52114e-01,9.99999e-01,9.49588e-01,7.76953e-01,7.46389e-01,9.99990e-01
9.432408771e-01,5.12246e-01,9.99999e-01,9.68856e-01,7.03202e-01,7.50713e-01,9.99989e-01
9.479570815e-01,4.57276e-01,9.99999e-01,9.83898e-01,6.15113e-01,7.54977e-01,9.99990e-01
9.526968669e-01,5.24014e-01,9.99999e-01,9.92206e-01,6.95234e-01,7.59180e-01,9.99992e-01
9.574603512e-01,5.45089e-01,9.99999e-01,9.96661e-01,7.16357e-01,7.63323e-01,9.99994e-01
9.622476530e-01,5.84540e-01,9.99999e-01,9.98957e-01,7.62465e-01,7.67406e-01,9.99996e-01
9.670588912e-01,6.59633e-01,9.99999e-01,9.99687e-01,8.55335e-01,7.71430e-01,9.99997e-01
9.718941857e-01,7.03287e-01,9.99999e-01,9.99977e-01,9.07025e-01,7.75394e-01,9.99998e-01
9.767536566e-01,7.18669e-01,9.99999e-01,9.99999e-01,9.22198e-01,7.79300e-01,9.99998e-01
9.816374249e-01,7.37553e-01,9.99999e-01,9.99999e-01,9.41780e-01,7.83148e-01,9.99998e-01
9.865456120e-01,7.58004e-01,9.99999e-01,9.99999e-01,9.63231e-01,7.86938e-01,9.99999e-01
9.914783401e-01,7.72579e-01,9.99999e-01,9.99999e-01,9.77117e-01,7.90671e-01,9.99999e-01
9.964357318e-01,7.84400e-01,9.99999e-01,9.99999e-01,9.87475e-01,7.94348e-01,9.99999e-01
1.001417910e+00,7.91966e-01,9.99999e-01,9.99999e-01,9.92477e-01,7.97969e-01,9.99999e-01
1.006425000e+00,7.98092e-01,9.99999e-01,9.99999e-01,9.95704e-01,8.01534e-01,9.99999e-01
1.011457125e+00,8.02897e-01,9.99999e-01,9.99999e-01,9.97333e-01,8.05044e-01,9.99999e-01
1.016514411e+00,8.07036e-01,9.99999e-01,9.99999e-01,9.98188e-01,8.08500e-01,9.99999e-01
1.021596983e+00,8.10694e-01,9.99999e-01,9.99955e-01,9.98556e-01,8.11902e-01,9.99999e-01
1.026704968e+00,8.11708e-01,9.99999e-01,9.96774e-01,9.98873e-01,8.15250e-01,9.99999e-01
1.031838492e+00,7.85006e-01,9.99999e-01,9.59787e-01,9.99181e-01,8.18546e-01,9.99999e-01
1.036997685e+00,1.44332e-01,9.99999e-01,1.75700e-01,9.99513e-01,8.21790e-01,9.99999e-01
1.042182673e+00,1.31305e-01,9.99999e-01,1.59244e-01,9.99419e-01,8.24982e-01,9.99999e-01
1.047393587e+00,1.44893e-01,9.99999e-01,1.75085e-01,9.99231e-01,8.28123e-01,9.99999e-01
1.052630555e+00,6.31324e-03,9.99999e-01,7.60119e-03,9.98944e-01,8.31214e-01,9.99999e-01
1.057893707e+00,1.49875e-02,9.99999e-01,1.79873e-02,9.98238e-01,8.34255e-01,9.99999e-01
1.063183176e+00,4.36133e-02,9.99999e-01,5.22028e-02,9.97102e-01,8.37246e-01,9.99999e-01
1.068499092e+00,1.09446e-01,9.99999e-01,1.30807e-01,9.95152e-01,8.40189e-01,9.99999e-01
1.073841587e+00,2.32295e-01,9.99999e-01,2.76891e-01,9.94326e-01,8.43084e-01,9.99999e-01
1.079210795e+00,3.72795e-01,9.99999e-01,4.43666e-01,9.92738e-01,8.45931e-01,9.99999e-01
1.084606849e+00,5.37481e-01,9.99999e-01,6.40022e-01,9.89022e-01,8.48731e-01,9.99999e-01
1.090029883e+00,6.65110e-01,9.99999e-01,7.93319e-01,9.84252e-01,8.51485e-01,9.99998e-01
1.095480033e+00,7.30172e-01,9.99999e-01,8.92234e-01,9.57671e-01,8.54194e-01,9.99998e-01
1.100957433e+00,7.26948e-01,9.99999e-01,9.46567e-01,8.95842e-01,8.56857e-01,9.99997e-01
1.106462220e+00,6.35604e-01,9.99999e-01,9.77556e-01,7.55972e-01,8.59475e-01,9.99995e-01
1.111994531e+00,4.75211e-01,9.99999e-01,9.91623e-01,5.55626e-01,8.62050e-01,9.99991e-01
1.117554504e+00,3.33767e-01,9.99999e-01,9.97950e-01,3.86712e-01,8.64581e-01,9.99987e-01
1.123142276e+00,4.31709e-01,9.99999e-01,9.99865e-01,4.97936e-01,8.67070e-01,9.99985e-01
1.128757988e+00,5.55841e-01,9.99999e-01,9.99999e-01,6.39262e-01,8.69516e-01,9.99984e-01
1.134401778e+00,3.29940e-01,9.99999e-01,9.99999e-01,3.78412e-01,8.71921e-01,9.99982e-01
1.140073787e+00,6.69323e-01,9.99999e-01,9.99999e-01,7.65576e-01,8.74285e-01,9.99986e-01
1.145774156e+00,5.02526e-01,9.99999e-01,9.99999e-01,5.73268e-01,8.76608e-01,9.99988e-01
1.151503026e+00,4.72862e-01,9.99999e-01,9.99999e-01,5.38025e-01,8.78891e-01,9.99989e-01
1.157260541e+00,5.25151e-01,9.99999e-01,9.99999e-01,5.95997e-01,8.81135e-01,9.99992e-01
1.163046844e+00,6.02590e-01,9.99999e-01,9.99999e-01,6.82175e-01,8.83340e-01,9.99994e-01
1.168862078e+00,6.78905e-01,9.99999e-01,9.99999e-01,7.66686e-01,8.85507e-01,9.99997e-01
1.174706389e+00,7.53410e-01,9.99999e-01,9.99999e-01,8.48782e-01,8.87637e-01,9.99998e-01
1.180579921e+00,8.05205e-01,9.99999e-01,9.99999e-01,9.05000e-01,8.89729e-01,9.99998e-01
1.186482820e+00,8.42885e-01,9.99999e-01,9.99993e-01,9.45171e-01,8.91785e-01,9.99998e-01
1.192415234e+00,8.55026e-01,9.99999e-01,9.88498e-01,9.67636e-01,8.93804e-01,9.99998e-01
1.198377311e+00,4.94946e-01,9.99999e-01,5.65489e-01,9.72649e-01,8.95789e-01,9.99999e-01
1.204369197e+00,6.05211e-10,9.99999e-01,6.84439e-10,9.74098e-01,8.97738e-01,9.99999e-01
1.210391043e+00,2.75483e-35,9.99999e-01,3.10504e-35,9.75220e-01,8.99653e-01,9.99999e-01
1.216442998e+00,9.37167e-31,9.99999e-01,1.05333e-30,9.78886e-01,9.01534e-01,9.99999e-01
1.222525213e+00,2.58265e-30,9.99999e-01,2.88342e-30,9.83526e-01,9.03382e-01,9.99999e-01
1.228637839e+00,1.81238e-23,9.99999e-01,2.01833e-23,9.88533e-01,9.05197e-01,9.99999e-01
