#,Wave/freq,Total,O2,CO2,H2O,Rayleigh,CIA
4.000000000e-01,2.39696e-16,9.99999e-01,9.99999e-01,9.99929e-01,2.39713e-16,9.99999e-01
4.020000000e-01,4.88123e-16,9.99999e-01,9.99999e-01,9.99955e-01,4.88145e-16,9.99999e-01
4.040100000e-01,9.79444e-16,9.99999e-01,9.99999e-01,9.99981e-01,9.79462e-16,9.99999e-01
4.060300500e-01,1.93843e-15,9.99999e-01,9.99999e-01,9.99995e-01,1.93844e-15,9.99999e-01
4.080602003e-01,3.78496e-15,9.99999e-01,9.99999e-01,9.99998e-01,3.78497e-15,9.99999e-01
4.101005013e-01,7.29342e-15,9.99999e-01,9.99999e-01,9.99999e-01,7.29342e-15,9.99999e-01
4.121510038e-01,1.38731e-14,9.99999e-01,9.99999e-01,9.99996e-01,1.38731e-14,9.99999e-01
4.142117588e-01,2.60550e-14,9.99999e-01,9.99999e-01,9.99980e-01,2.60555e-14,9.99999e-01
4.162828176e-01,4.83261e-14,9.99999e-01,9.99999e-01,9.99912e-01,4.83303e-14,9.99999e-01
4.183642317e-01,8.85557e-14,9.99999e-01,9.99999e-01,9.99947e-01,8.85603e-14,9.99999e-01
4.204560528e-01,1.60343e-13,9.99999e-01,9.99999e-01,9.99967e-01,1.60348e-13,9.99999e-01
4.225583331e-01,2.86939e-13,9.99999e-01,9.99999e-01,9.99987e-01,2.86943e-13,9.99999e-01
4.246711247e-01,5.07611e-13,9.99999e-01,9.99999e-01,9.99990e-01,5.07615e-13,9.99999e-01
4.267944804e-01,8.87922e-13,9.99999e-01,9.99999e-01,9.99985e-01,8.87934e-13,9.99999e-01
4.289284528e-01,1.53612e-12,9.99999e-01,9.99999e-01,9.99988e-01,1.53614e-12,9.99999e-01
4.310730950e-01,2.62891e-12,9.99999e-01,9.99999e-01,9.99994e-01,2.62892e-12,9.99999e-01
4.332284605e-01,4.45159e-12,9.99999e-01,9.99999e-01,9.99998e-01,4.45159e-12,9.99999e-01
4.353946028e-01,7.45994e-12,9.99999e-01,9.99999e-01,9.99998e-01,7.45994e-12,9.99999e-01
4.375715758e-01,1.23744e-11,9.99999e-01,9.99999e-01,9.99990e-01,1.23745e-11,9.99999e-01
4.397594337e-01,2.03209e-11,9.99999e-01,9.99999e-01,9.99923e-01,2.03225e-11,9.99999e-01
4.419582309e-01,3.30370e-11,9.99999e-01,9.99999e-01,9.99610e-01,3.30499e-11,9.99999e-01
4.441680220e-01,5.32183e-11,9.99999e-01,9.99999e-01,9.99696e-01,5.32344e-11,9.99999e-01
4.463888621e-01,8.49158e-11,9.99999e-01,9.99999e-01,9.99683e-01,8.49426e-11,9.99999e-01
4.486208064e-01,1.34266e-10,9.99999e-01,9.99999e-01,9.99803e-01,1.34292e-10,9.99999e-01
4.508639105e-01,2.10381e-10,9.99999e-01,9.99999e-01,9.99907e-01,2.10400e-10,9.99999e-01
4.531182300e-01,3.26719e-10,9.99999e-01,9.99999e-01,9.99963e-01,3.26730e-10,9.99999e-01
4.553838212e-01,5.02976e-10,9.99999e-01,9.99999e-01,9.99974e-01,5.02988e-10,9.99999e-01
4.576607403e-01,7.67751e-10,9.99999e-01,9.99999e-01,9.99988e-01,7.67759e-10,9.99999e-01
4.599490440e-01,1.16215e-09,9.99999e-01,9.99999e-01,9.99991e-01,1.16216e-09,9.99999e-01
4.622487892e-01,1.74481e-09,9.99999e-01,9.99999e-01,9.99998e-01,1.74481e-09,9.99999e-01
4.645600332e-01,2.59862e-09,9.99999e-01,9.99999e-01,9.99994e-01,2.59863e-09,9.99999e-01
4.668828333e-01,3.83959e-09,9.99999e-01,9.99999e-01,9.99906e-01,3.83994e-09,9.99999e-01
4.692172475e-01,5.62949e-09,9.99999e-01,9.99999e-01,9.99801e-01,5.63061e-09,9.99999e-01
4.715633337e-01,8.19306e-09,9.99999e-01,9.99999e-01,9.99870e-01,8.19412e-09,9.99999e-01
4.739211504e-01,1.18352e-08,9.99999e-01,9.99999e-01,9.99875e-01,1.18367e-08,9.99999e-01
4.762907561e-01,1.69737e-08,9.99999e-01,9.99999e-01,9.99935e-01,1.69748e-08,9.99999e-01
4.786722099e-01,2.41698e-08,9.99999e-01,9.99999e-01,9.99973e-01,2.41704e-08,9.99999e-01
4.810655710e-01,3.41767e-08,9.99999e-01,9.99999e-01,9.99991e-01,3.41770e-08,9.99999e-01
4.834708988e-01,4.79930e-08,9.99999e-01,9.99999e-01,9.99923e-01,4.79966e-08,9.99999e-01
4.858882533e-01,6.69444e-08,9.99999e-01,9.99999e-01,9.99859e-01,6.69538e-08,9.99999e-01
4.883176946e-01,9.27754e-08,9.99999e-01,9.99999e-01,9.99882e-01,9.27863e-08,9.99999e-01
4.907592831e-01,1.27746e-07,9.99999e-01,9.99999e-01,9.99893e-01,1.27760e-07,9.99999e-01
4.932130795e-01,1.74794e-07,9.99999e-01,9.99999e-01,9.99924e-01,1.74807e-07,9.99999e-01
4.956791449e-01,2.37694e-07,9.99999e-01,9.99999e-01,9.99959e-01,2.37703e-07,9.99999e-01
4.981575406e-01,3.21210e-07,9.99999e-01,9.99999e-01,9.99800e-01,3.21274e-07,9.99999e-01
5.006483283e-01,4.31426e-07,9.99999e-01,9.99999e-01,9.99483e-01,4.31649e-07,9.99999e-01
5.031515699e-01,5.75063e-07,9.99999e-01,9.99999e-01,9.97385e-01,5.76570e-07,9.99999e-01
5.056673278e-01,7.64700e-07,9.99999e-01,9.99999e-01,9.98619e-01,7.65757e-07,9.99999e-01
5.081956644e-01,1.00958e-06,9.99999e-01,9.99999e-01,9.98258e-01,1.01134e-06,9.99999e-01
5.107366428e-01,1.32679e-06,9.99999e-01,9.99999e-01,9.98823e-01,1.32835e-06,9.99999e-01
5.132903260e-01,1.73421e-06,9.99999e-01,9.99999e-01,9.99327e-01,1.73537e-06,9.99999e-01
5.158567776e-01,2.25453e-06,9.99999e-01,9.99999e-01,9.99715e-01,2.25517e-06,9.99999e-01
5.184360615e-01,2.91520e-06,9.99999e-01,9.99999e-01,9.99885e-01,2.91553e-06,9.99999e-01
5.210282418e-01,3.75003e-06,9.99999e-01,9.99999e-01,9.99957e-01,3.75019e-06,9.99999e-01
5.236333830e-01,4.79905e-06,9.99999e-01,9.99999e-01,9.99829e-01,4.79987e-06,9.99999e-01
5.262515499e-01,6.11282e-06,9.99999e-01,9.99999e-01,9.99892e-01,6.11347e-06,9.99999e-01
5.288828077e-01,7.74871e-06,9.99999e-01,9.99999e-01,9.99901e-01,7.74946e-06,9.99999e-01
5.315272217e-01,9.77651e-06,9.99999e-01,9.99999e-01,9.99913e-01,9.77735e-06,9.99999e-01
5.341848578e-01,1.22787e-05,9.99999e-01,9.99999e-01,9.99943e-01,1.22794e-05,9.99999e-01
5.368557821e-01,1.53494e-05,9.99999e-01,9.99999e-01,9.99801e-01,1.53524e-05,9.99999e-01
5.395400610e-01,1.90964e-05,9.99999e-01,9.99999e-01,9.99282e-01,1.91101e-05,9.99999e-01
5.422377613e-01,2.36629e-05,9.99999e-01,9.99999e-01,9.99073e-01,2.36848e-05,9.99999e-01
5.449489501e-01,2.92052e-05,9.99999e-01,9.99999e-01,9.99138e-01,2.92304e-05,9.99999e-01
5.476736949e-01,3.58975e-05,9.99999e-01,9.99999e-01,9.99236e-01,3.59249e-05,9.99999e-01
5.504120634e-01,4.39488e-05,9.99999e-01,9.99999e-01,9.99446e-01,4.39732e-05,9.99999e-01
5.531641237e-01,5.35951e-05,9.99999e-01,9.99999e-01,9.99721e-01,5.36100e-05,9.99999e-01
5.559299443e-01,6.50947e-05,9.99999e-01,9.99999e-01,9.99865e-01,6.51034e-05,9.99999e-01
5.587095940e-01,7.87515e-05,9.99999e-01,9.99999e-01,9.99915e-01,7.87581e-05,9.99999e-01
5.615031420e-01,9.49102e-05,9.99999e-01,9.99999e-01,9.99905e-01,9.49191e-05,9.99999e-01
5.643106577e-01,1.13963e-04,9.99999e-01,9.99999e-01,9.99893e-01,1.13975e-04,9.99999e-01
5.671322110e-01,1.36187e-04,9.99999e-01,9.99999e-01,9.98705e-01,1.36364e-04,9.99999e-01
5.699678720e-01,1.62349e-04,9.99999e-01,9.99999e-01,9.98624e-01,1.62573e-04,9.99999e-01
5.728177114e-01,1.92871e-04,9.99999e-01,9.99999e-01,9.98567e-01,1.93148e-04,9.99999e-01
5.756818000e-01,2.28392e-04,9.99999e-01,9.99999e-01,9.98684e-01,2.28693e-04,9.99999e-01
5.785602090e-01,2.69568e-04,9.99999e-01,9.99999e-01,9.98853e-01,2.69877e-04,9.99999e-01
5.814530100e-01,3.17073e-04,9.99999e-01,9.99999e-01,9.98848e-01,3.17438e-04,9.99999e-01
5.843602750e-01,3.71675e-04,9.99999e-01,9.99999e-01,9.98627e-01,3.72186e-04,9.99999e-01
5.872820764e-01,4.29892e-04,9.99999e-01,9.99999e-01,9.88241e-01,4.35007e-04,9.99999e-01
5.902184868e-01,4.99646e-04,9.99999e-01,9.99999e-01,9.85753e-01,5.06867e-04,9.99999e-01
5.931695792e-01,5.82885e-04,9.99999e-01,9.99999e-01,9.89925e-01,5.88817e-04,9.99999e-01
5.961354271e-01,6.74462e-04,9.99999e-01,9.99999e-01,9.88954e-01,6.81995e-04,9.99999e-01
5.991161043e-01,7.81274e-04,9.99999e-01,9.99999e-01,9.91930e-01,7.87630e-04,9.99999e-01
6.021116848e-01,9.02882e-04,9.99999e-01,9.99999e-01,9.95413e-01,9.07042e-04,9.99999e-01
6.051222432e-01,1.03923e-03,9.99999e-01,9.99999e-01,9.97676e-01,1.04165e-03,9.99999e-01
6.081478544e-01,1.19177e-03,9.99999e-01,9.99999e-01,9.98997e-01,1.19297e-03,9.99999e-01
6.111885937e-01,1.36204e-03,9.99999e-01,9.99999e-01,9.99575e-01,1.36261e-03,9.99999e-01
6.142445367e-01,1.55201e-03,9.99999e-01,9.99999e-01,9.99810e-01,1.55230e-03,9.99999e-01
6.173157594e-01,1.76366e-03,9.99999e-01,9.99999e-01,9.99895e-01,1.76385e-03,9.99999e-01
6.204023382e-01,1.99900e-03,9.99999e-01,9.99999e-01,9.99911e-01,1.99917e-03,9.99999e-01
6.235043498e-01,2.25942e-03,9.99999e-01,9.99999e-01,9.99609e-01,2.26030e-03,9.99999e-01
6.266218716e-01,2.54408e-03,9.99999e-01,9.99999e-01,9.97939e-01,2.54934e-03,9.99999e-01
6.297549810e-01,2.86634e-03,9.99999e-01,9.99999e-01,9.99243e-01,2.86851e-03,9.99999e-01
6.329037559e-01,3.21533e-03,9.99999e-01,9.99999e-01,9.98505e-01,3.22014e-03,9.99999e-01
6.360682746e-01,3.60203e-03,9.99999e-01,9.99999e-01,9.98727e-01,3.60662e-03,9.99999e-01
6.392486160e-01,4.02380e-03,9.99999e-01,9.99999e-01,9.98350e-01,4.03045e-03,9.99999e-01
6.424448591e-01,4.48430e-03,9.99999e-01,9.99999e-01,9.97793e-01,4.49421e-03,9.99999e-01
6.456570834e-01,4.94954e-03,9.99999e-01,9.99999e-01,9.89795e-01,5.00057e-03,9.99999e-01
6.488853688e-01,5.51075e-03,9.99999e-01,9.99999e-01,9.92524e-01,5.55226e-03,9.99999e-01
6.521297956e-01,6.10522e-03,9.99999e-01,9.99999e-01,9.92382e-01,6.15208e-03,9.99999e-01
6.553904446e-01,6.75127e-03,9.99999e-01,9.99999e-01,9.92409e-01,6.80290e-03,9.99999e-01
6.586673968e-01,7.45884e-03,9.99999e-01,9.99999e-01,9.93498e-01,7.50764e-03,9.99999e-01
6.619607338e-01,8.23928e-03,9.99999e-01,9.99999e-01,9.96370e-01,8.26928e-03,9.99999e-01
6.652705375e-01,9.07101e-03,9.99999e-01,9.99999e-01,9.97820e-01,9.09082e-03,9.99999e-01
6.685968902e-01,9.96519e-03,9.99999e-01,9.99999e-01,9.98986e-01,9.97529e-03,9.99999e-01
6.719398746e-01,1.09206e-02,9.99999e-01,9.99999e-01,9.99530e-01,1.09258e-02,9.99999e-01
6.752995740e-01,1.19423e-02,9.99999e-01,9.99999e-01,9.99745e-01,1.19453e-02,9.99999e-01
6.786760719e-01,1.30322e-02,9.99999e-01,9.99999e-01,9.99632e-01,1.30370e-02,9.99999e-01
6.820694522e-01,1.41950e-02,9.99999e-01,9.99999e-01,9.99370e-01,1.42039e-02,9.99999e-01
6.854797995e-01,1.54365e-02,9.99999e-01,9.99999e-01,9.99188e-01,1.54490e-02,9.99999e-01
6.889071985e-01,1.67426e-02,9.99999e-01,9.99999e-01,9.98036e-01,1.67755e-02,9.99999e-01
6.923517345e-01,1.76123e-02,9.99999e-01,9.99999e-01,9.68442e-01,1.81862e-02,9.99999e-01
6.958134932e-01,1.93592e-02,9.99999e-01,9.99999e-01,9.83492e-01,1.96842e-02,9.99999e-01
6.992925606e-01,2.09377e-02,9.99999e-01,9.99999e-01,9.84273e-01,2.12722e-02,9.99999e-01
7.027890234e-01,2.25082e-02,9.99999e-01,9.99999e-01,9.80617e-01,2.29531e-02,9.99999e-01
7.063029686e-01,2.43259e-02,9.99999e-01,9.99999e-01,9.83670e-01,2.47297e-02,9.99999e-01
7.098344834e-01,2.61876e-02,9.99999e-01,9.99999e-01,9.84322e-01,2.66046e-02,9.99999e-01
7.133836558e-01,2.79856e-02,9.99999e-01,9.99999e-01,9.79187e-01,2.85804e-02,9.99998e-01
7.169505741e-01,2.59408e-02,9.99999e-01,9.99999e-01,8.46093e-01,3.06595e-02,9.99997e-01
7.205353270e-01,3.02563e-02,9.99999e-01,9.99999e-01,9.21207e-01,3.28442e-02,9.99997e-01
7.241380036e-01,3.16502e-02,9.99999e-01,9.99999e-01,9.00771e-01,3.51368e-02,9.99997e-01
7.277586936e-01,3.41622e-02,9.99999e-01,9.99999e-01,9.10038e-01,3.75394e-02,9.99997e-01
7.313974871e-01,3.62214e-02,9.99999e-01,9.99999e-01,9.04317e-01,4.00539e-02,9.99998e-01
7.350544745e-01,4.03964e-02,9.99999e-01,9.99999e-01,9.46448e-01,4.26821e-02,9.99998e-01
7.387297469e-01,4.36199e-02,9.99999e-01,9.99999e-01,9.60246e-01,4.54257e-02,9.99999e-01
7.424233956e-01,4.73368e-02,9.99999e-01,9.99999e-01,9.80337e-01,4.82863e-02,9.99999e-01
7.461355126e-01,5.06517e-02,9.99999e-01,9.99999e-01,9.88035e-01,5.12650e-02,9.99999e-01
7.498661902e-01,5.40595e-02,9.99999e-01,9.99999e-01,9.94412e-01,5.43633e-02,9.99999e-01
7.536155211e-01,5.74239e-02,9.99999e-01,9.99999e-01,9.97255e-01,5.75820e-02,9.99999e-01
7.573835987e-01,6.08359e-02,9.99999e-01,9.99999e-01,9.98586e-01,6.09219e-02,9.99999e-01
7.611705167e-01,6.43274e-02,9.99999e-01,9.99999e-01,9.99121e-01,6.43839e-02,9.99999e-01
7.649763693e-01,6.79310e-02,9.99999e-01,9.99999e-01,9.99448e-01,6.79684e-02,9.99999e-01
7.688012511e-01,7.16482e-02,9.99999e-01,9.99999e-01,9.99616e-01,7.16757e-02,9.99999e-01
7.726452574e-01,7.54821e-02,9.99999e-01,9.99999e-01,9.99684e-01,7.55059e-02,9.99999e-01
7.765084837e-01,7.94235e-02,9.99999e-01,9.99999e-01,9.99551e-01,7.94591e-02,9.99999e-01
7.803910261e-01,7.55633e-02,9.99999e-01,9.06174e-01,9.98062e-01,8.35350e-02,9.99999e-01
7.842929812e-01,5.33366e-02,9.99999e-01,6.11528e-01,9.93254e-01,8.77333e-02,9.99999e-01
7.882144461e-01,5.41486e-02,9.99999e-01,5.95587e-01,9.86152e-01,9.20533e-02,9.99999e-01
7.921555184e-01,6.95012e-02,9.99999e-01,7.25389e-01,9.92387e-01,9.64944e-02,9.99999e-01
7.961162960e-01,8.02257e-02,9.99999e-01,8.04347e-01,9.86581e-01,1.01056e-01,9.99999e-01
8.000968774e-01,9.25019e-02,9.99999e-01,8.88474e-01,9.84503e-01,1.05736e-01,9.99999e-01
8.040973618e-01,1.02354e-01,9.99999e-01,9.40467e-01,9.84502e-01,1.10534e-01,9.99999e-01
8.081178486e-01,1.08379e-01,9.99999e-01,9.72178e-01,9.65459e-01,1.15449e-01,9.99998e-01
8.121584379e-01,1.03280e-01,9.99999e-01,9.91329e-01,8.64496e-01,1.20479e-01,9.99997e-01
8.162192301e-01,1.05536e-01,9.99999e-01,9.98078e-01,8.41625e-01,1.25622e-01,9.99997e-01
8.203003262e-01,1.20280e-01,9.99999e-01,9.99971e-01,9.19053e-01,1.30876e-01,9.99996e-01
8.244018279e-01,1.21212e-01,9.99999e-01,9.99999e-01,8.89692e-01,1.36240e-01,9.99996e-01
8.285238370e-01,1.27790e-01,9.99999e-01,9.99999e-01,9.01765e-01,1.41711e-01,9.99997e-01
8.326664562e-01,1.32693e-01,9.99999e-01,9.99999e-01,9.00911e-01,1.47288e-01,9.99998e-01
8.368297885e-01,1.41928e-01,9.99999e-01,9.99999e-01,9.27834e-01,1.52967e-01,9.99998e-01
8.410139374e-01,1.51829e-01,9.99999e-01,9.99999e-01,9.56424e-01,1.58746e-01,9.99999e-01
8.452190071e-01,1.61063e-01,9.99999e-01,9.99999e-01,9.78373e-01,1.64623e-01,9.99999e-01
8.494451021e-01,1.68445e-01,9.99999e-01,9.99999e-01,9.87391e-01,1.70596e-01,9.99999e-01
8.536923276e-01,1.75340e-01,9.99999e-01,9.99999e-01,9.92527e-01,1.76660e-01,9.99999e-01
8.579607893e-01,1.81971e-01,9.99999e-01,9.99999e-01,9.95391e-01,1.82814e-01,9.99999e-01
8.622505932e-01,1.88500e-01,9.99999e-01,9.99999e-01,9.97070e-01,1.89054e-01,9.99999e-01
8.665618462e-01,1.68280e-01,9.99999e-01,8.62763e-01,9.98186e-01,1.95378e-01,9.99999e-01
8.708946554e-01,6.04131e-02,9.99999e-01,2.99963e-01,9.97923e-01,2.01782e-01,9.99999e-01
8.752491287e-01,7.57436e-02,9.99999e-01,3.64628e-01,9.97223e-01,2.08263e-01,9.99999e-01
8.796253743e-01,1.21139e-01,9.99999e-01,5.65900e-01,9.96157e-01,2.14819e-01,9.99999e-01
8.840235012e-01,1.63112e-01,9.99999e-01,7.39670e-01,9.95611e-01,2.21445e-01,9.99999e-01
8.884436187e-01,1.99276e-01,9.99999e-01,8.87114e-01,9.84133e-01,2.28138e-01,9.99998e-01
8.928858368e-01,1.89622e-01,9.99999e-01,9.52488e-01,8.46314e-01,2.34896e-01,9.99997e-01
8.973502660e-01,1.78222e-01,9.99999e-01,9.88248e-01,7.45510e-01,2.41714e-01,9.99995e-01
9.018370173e-01,2.13750e-01,9.99999e-01,9.98698e-01,8.60864e-01,2.48590e-01,9.99995e-01
9.063462024e-01,2.17334e-01,9.99999e-01,9.67748e-01,8.75961e-01,2.55519e-01,9.99994e-01
9.108779334e-01,1.98407e-01,9.99999e-01,9.26259e-01,8.13587e-01,2.62499e-01,9.99994e-01
9.154323231e-01,2.09495e-01,9.99999e-01,9.82172e-01,7.90405e-01,2.69527e-01,9.99993e-01
9.200094847e-01,1.88743e-01,9.99999e-01,7.99121e-01,8.32286e-01,2.76598e-01,9.99991e-01
9.246095321e-01,1.50669e-01,9.99999e-01,6.89149e-01,7.57845e-01,2.83710e-01,9.99986e-01
9.292325798e-01,4.13266e-02,9.99999e-01,7.51267e-01,1.77321e-01,2.90858e-01,9.99971e-01
9.338787427e-01,2.54008e-02,9.99999e-01,7.55712e-01,1.06237e-01,2.98040e-01,9.99963e-01
9.385481364e-01,1.02405e-01,9.99999e-01,8.12383e-01,4.00825e-01,3.05252e-01,9.99962e-01
9.432408771e-01,8.25189e-02,9.99999e-01,8.79839e-01,2.95038e-01,3.12492e-01,9.99958e-01
9.479570815e-01,5.55342e-02,9.99999e-01,9.36350e-01,1.83907e-01,3.19754e-01,9.99963e-01
9.526968669e-01,8.57030e-02,9.99999e-01,9.68825e-01,2.68817e-01,3.27037e-01,9.99972e-01
9.574603512e-01,9.43456e-02,9.99999e-01,9.86534e-01,2.85330e-01,3.34338e-01,9.99979e-01
9.622476530e-01,1.20394e-01,9.99999e-01,9.95780e-01,3.53622e-01,3.41652e-01,9.99986e-01
9.670588912e-01,1.90239e-01,9.99999e-01,9.98733e-01,5.45721e-01,3.48977e-01,9.99990e-01
9.718941857e-01,2.41363e-01,9.99999e-01,9.99910e-01,6.77447e-01,3.56310e-01,9.99994e-01
9.767536566e-01,2.63049e-01,9.99999e-01,9.99999e-01,7.23367e-01,3.63647e-01,9.99995e-01
9.816374249e-01,2.91455e-01,9.99999e-01,9.99999e-01,7.85624e-01,3.70986e-01,9.99997e-01
9.865456120e-01,3.25219e-01,9.99999e-01,9.99999e-01,8.59632e-01,3.78324e-01,9.99998e-01
9.914783401e-01,3.51156e-01,9.99999e-01,9.99999e-01,9.10538e-01,3.85658e-01,9.99999e-01
9.964357318e-01,3.73427e-01,9.99999e-01,9.99999e-01,9.50231e-01,3.92985e-01,9.99999e-01
1.001417910e+00,3.88234e-01,9.99999e-01,9.99999e-01,9.69852e-01,4.00302e-01,9.99999e-01
1.006425000e+00,4.00554e-01,9.99999e-01,9.99999e-01,9.82696e-01,4.07607e-01,9.99999e-01
1.011457125e+00,4.10428e-01,9.99999e-01,9.99999e-01,9.89227e-01,4.14897e-01,9.99999e-01
1.016514411e+00,4.19077e-01,9.99999e-01,9.99999e-01,9.92673e-01,4.22170e-01,9.99999e-01
1.021596983e+00,4.26839e-01,9.99999e-01,9.99822e-01,9.94158e-01,4.29422e-01,9.99999e-01
1.026704968e+00,4.29066e-01,9.99999e-01,9.87106e-01,9.95441e-01,4.36653e-01,9.99999e-01
1.031838492e+00,3.97533e-01,9.99999e-01,8.98436e-01,9.96685e-01,4.43858e-01,9.99999e-01
1.036997685e+00,2.03952e-02,9.99999e-01,4.52856e-02,9.98029e-01,4.51037e-01,9.99999e-01
1.042182673e+00,1.00118e-03,9.99999e-01,2.18896e-03,9.97651e-01,4.58186e-01,9.99999e-01
1.047393587e+00,2.75184e-03,9.99999e-01,5.92931e-03,9.96886e-01,4.65305e-01,9.99999e-01
1.052630555e+00,1.49870e-07,9.99999e-01,3.18109e-07,9.95729e-01,4.72390e-01,9.99999e-01
1.057893707e+00,5.65257e-07,9.99999e-01,1.18326e-06,9.92879e-01,4.79439e-01,9.99999e-01
1.063183176e+00,2.06387e-05,9.99999e-01,4.27093e-05,9.88312e-01,4.86452e-01,9.99999e-01
1.068499092e+00,2.39529e-04,9.99999e-01,4.91595e-04,9.80509e-01,4.93426e-01,9.99999e-01
1.073841587e+00,3.57172e-03,9.99999e-01,7.25484e-03,9.77251e-01,5.00359e-01,9.99999e-01
1.079210795e+00,2.26602e-02,9.99999e-01,4.57006e-02,9.70923e-01,5.07249e-01,9.99998e-01
1.084606849e+00,8.51122e-02,9.99999e-01,1.72102e-01,9.56350e-01,5.14096e-01,9.99998e-01
1.090029883e+00,1.95191e-01,9.99999e-01,3.97270e-01,9.38007e-01,5.20897e-01,9.99997e-01
1.095480033e+00,2.82417e-01,9.99999e-01,6.33156e-01,8.40130e-01,5.27651e-01,9.99995e-01
1.100957433e+00,2.78509e-01,9.99999e-01,8.01241e-01,6.45555e-01,5.34356e-01,9.99991e-01
1.106462220e+00,1.71064e-01,9.99999e-01,9.12271e-01,3.43338e-01,5.41012e-01,9.99983e-01
1.111994531e+00,5.96414e-02,9.99999e-01,9.66489e-01,1.11969e-01,5.47617e-01,9.99966e-01
1.117554504e+00,1.80577e-02,9.99999e-01,9.91716e-01,3.27423e-02,5.54169e-01,9.99952e-01
1.123142276e+00,5.40800e-02,9.99999e-01,9.99454e-01,9.64679e-02,5.60668e-01,9.99944e-01
1.128757988e+00,1.10787e-01,9.99999e-01,9.99999e-01,1.95364e-01,5.67113e-01,9.99939e-01
1.134401778e+00,4.96871e-02,9.99999e-01,9.99999e-01,8.66438e-02,5.73502e-01,9.99931e-01
1.140073787e+00,2.08959e-01,9.99999e-01,9.99999e-01,3.60395e-01,5.79835e-01,9.99944e-01
1.145774156e+00,8.04687e-02,9.99999e-01,9.99999e-01,1.37299e-01,5.86111e-01,9.99953e-01
1.151503026e+00,6.59896e-02,9.99999e-01,9.99999e-01,1.11411e-01,5.92329e-01,9.99959e-01
1.157260541e+00,8.35610e-02,9.99999e-01,9.99999e-01,1.39624e-01,5.98488e-01,9.99969e-01
1.163046844e+00,1.39026e-01,9.99999e-01,9.99999e-01,2.29955e-01,6.04588e-01,9.99980e-01
1.168862078e+00,2.13049e-01,9.99999e-01,9.99999e-01,3.48905e-01,6.10627e-01,9.99989e-01
1.174706389e+00,3.21218e-01,9.99999e-01,9.99999e-01,5.20948e-01,6.16605e-01,9.99994e-01
1.180579921e+00,4.17457e-01,9.99999e-01,9.99999e-01,6.70591e-01,6.22523e-01,9.99996e-01
1.186482820e+00,5.00488e-01,9.99999e-01,9.99975e-01,7.96492e-01,6.28378e-01,9.99996e-01
1.192415234e+00,5.31783e-01,9.99999e-01,9.56411e-01,8.75302e-01,6.34172e-01,9.99997e-01
1.198377311e+00,2.97673e-01,9.99999e-01,5.10679e-01,8.93875e-01,6.39902e-01,9.99997e-01
1.204369197e+00,1.83102e-33,9.99999e-01,3.01599e-33,8.99598e-01,6.45570e-01,9.99997e-01
1.210391043e+00,2.91606e-136,9.99999e-01,4.73834e-136,9.03580e-01,6.51175e-01,9.99998e-01
1.216442998e+00,7.04206e-118,9.99999e-01,1.13127e-117,9.17370e-01,6.56716e-01,9.99998e-01
1.222525213e+00,4.26341e-116,9.99999e-01,6.66545e-116,9.34948e-01,6.62193e-01,9.99999e-01
1.228637839e+00,1.66774e-89,9.99999e-01,2.57784e-89,9.54348e-01,6.67607e-01,9.99999e-01
