#,Wave/freq,Total,O2,CO2,H2O,Rayleigh,CIA
4.000000000e-01,7.20913e-03,9.99999e-01,9.99999e-01,9.99989e-01,7.20920e-03,9.99999e-01
4.020000000e-01,7.94765e-03,9.99999e-01,9.99999e-01,9.99993e-01,7.94770e-03,9.99999e-01
4.040100000e-01,8.74412e-03,9.99999e-01,9.99999e-01,9.99996e-01,8.74414e-03,9.99999e-01
4.060300500e-01,9.60225e-03,9.99999e-01,9.99999e-01,9.99998e-01,9.60225e-03,9.99999e-01
4.080602003e-01,1.05251e-02,9.99999e-01,9.99999e-01,9.99999e-01,1.05251e-02,9.99999e-01
4.101005013e-01,1.15158e-02,9.99999e-01,9.99999e-01,9.99999e-01,1.15158e-02,9.99999e-01
4.121510038e-01,1.25773e-02,9.99999e-01,9.99999e-01,9.99999e-01,1.25773e-02,9.99999e-01
4.142117588e-01,1.37127e-02,9.99999e-01,9.99999e-01,9.99996e-01,1.37127e-02,9.99999e-01
4.162828176e-01,1.49250e-02,9.99999e-01,9.99999e-01,9.99987e-01,1.49252e-02,9.99999e-01
4.183642317e-01,1.62176e-02,9.99999e-01,9.99999e-01,9.99992e-01,1.62177e-02,9.99999e-01
4.204560528e-01,1.75932e-02,9.99999e-01,9.99999e-01,9.99995e-01,1.75933e-02,9.99999e-01
4.225583331e-01,1.90548e-02,9.99999e-01,9.99999e-01,9.99997e-01,1.90549e-02,9.99999e-01
4.246711247e-01,2.06053e-02,9.99999e-01,9.99999e-01,9.99998e-01,2.06054e-02,9.99999e-01
4.267944804e-01,2.22476e-02,9.99999e-01,9.99999e-01,9.99997e-01,2.22476e-02,9.99999e-01
4.289284528e-01,2.39844e-02,9.99999e-01,9.99999e-01,9.99998e-01,2.39844e-02,9.99999e-01
4.310730950e-01,2.58184e-02,9.99999e-01,9.99999e-01,9.99998e-01,2.58184e-02,9.99999e-01
4.332284605e-01,2.77522e-02,9.99999e-01,9.99999e-01,9.99999e-01,2.77522e-02,9.99999e-01
4.353946028e-01,2.97883e-02,9.99999e-01,9.99999e-01,9.99999e-01,2.97883e-02,9.99999e-01
4.375715758e-01,3.19291e-02,9.99999e-01,9.99999e-01,9.99998e-01,3.19292e-02,9.99999e-01
4.397594337e-01,3.41766e-02,9.99999e-01,9.99999e-01,9.99988e-01,3.41770e-02,9.99999e-01
4.419582309e-01,3.65319e-02,9.99999e-01,9.99999e-01,9.99945e-01,3.65339e-02,9.99999e-01
4.441680220e-01,3.90003e-02,9.99999e-01,9.99999e-01,9.99958e-01,3.90019e-02,9.99999e-01
4.463888621e-01,4.15812e-02,9.99999e-01,9.99999e-01,9.99956e-01,4.15830e-02,9.99999e-01
4.486208064e-01,4.42776e-02,9.99999e-01,9.99999e-01,9.99972e-01,4.42788e-02,9.99999e-01
4.508639105e-01,4.70903e-02,9.99999e-01,9.99999e-01,9.99986e-01,4.70908e-02,9.99999e-01
4.531182300e-01,5.00204e-02,9.99999e-01,9.99999e-01,9.99994e-01,5.00206e-02,9.99999e-01
4.553838212e-01,5.30692e-02,9.99999e-01,9.99999e-01,9.99996e-01,5.30694e-02,9.99999e-01
4.576607403e-01,5.62382e-02,9.99999e-01,9.99999e-01,9.99997e-01,5.62382e-02,9.99999e-01
4.599490440e-01,5.95280e-02,9.99999e-01,9.99999e-01,9.99998e-01,5.95281e-02,9.99999e-01
4.622487892e-01,6.29396e-02,9.99999e-01,9.99999e-01,9.99999e-01,6.29396e-02,9.99999e-01
4.645600332e-01,6.64734e-02,9.99999e-01,9.99999e-01,9.99998e-01,6.64735e-02,9.99999e-01
4.668828333e-01,7.01291e-02,9.99999e-01,9.99999e-01,9.99986e-01,7.01300e-02,9.99999e-01
4.692172475e-01,7.39075e-02,9.99999e-01,9.99999e-01,9.99972e-01,7.39095e-02,9.99999e-01
4.715633337e-01,7.78105e-02,9.99999e-01,9.99999e-01,9.99981e-01,7.78119e-02,9.99999e-01
4.739211504e-01,8.18358e-02,9.99999e-01,9.99999e-01,9.99982e-01,8.18372e-02,9.99999e-01
4.762907561e-01,8.59842e-02,9.99999e-01,9.99999e-01,9.99990e-01,8.59850e-02,9.99999e-01
4.786722099e-01,9.02545e-02,9.99999e-01,9.99999e-01,9.99995e-01,9.02548e-02,9.99999e-01
4.810655710e-01,9.46459e-02,9.99999e-01,9.99999e-01,9.99998e-01,9.46460e-02,9.99999e-01
4.834708988e-01,9.91568e-02,9.99999e-01,9.99999e-01,9.99988e-01,9.91578e-02,9.99999e-01
4.858882533e-01,1.03787e-01,9.99999e-01,9.99999e-01,9.99980e-01,1.03789e-01,9.99999e-01
4.883176946e-01,1.08537e-01,9.99999e-01,9.99999e-01,9.99983e-01,1.08539e-01,9.99999e-01
4.907592831e-01,1.13404e-01,9.99999e-01,9.99999e-01,9.99984e-01,1.13406e-01,9.99999e-01
4.932130795e-01,1.18387e-01,9.99999e-01,9.99999e-01,9.99989e-01,1.18388e-01,9.99999e-01
4.956791449e-01,1.23484e-01,9.99999e-01,9.99999e-01,9.99994e-01,1.23485e-01,9.99999e-01
4.981575406e-01,1.28690e-01,9.99999e-01,9.99999e-01,9.99972e-01,1.28693e-01,9.99999e-01
5.006483283e-01,1.34003e-01,9.99999e-01,9.99999e-01,9.99928e-01,1.34012e-01,9.99999e-01
5.031515699e-01,1.39389e-01,9.99999e-01,9.99999e-01,9.99639e-01,1.39439e-01,9.99999e-01
5.056673278e-01,1.44945e-01,9.99999e-01,9.99999e-01,9.99810e-01,1.44972e-01,9.99999e-01
5.081956644e-01,1.50574e-01,9.99999e-01,9.99999e-01,9.99760e-01,1.50609e-01,9.99999e-01
5.107366428e-01,1.56323e-01,9.99999e-01,9.99999e-01,9.99838e-01,1.56348e-01,9.99999e-01
5.132903260e-01,1.62170e-01,9.99999e-01,9.99999e-01,9.99907e-01,1.62185e-01,9.99999e-01
5.158567776e-01,1.68112e-01,9.99999e-01,9.99999e-01,9.99960e-01,1.68118e-01,9.99999e-01
5.184360615e-01,1.74142e-01,9.99999e-01,9.99999e-01,9.99983e-01,1.74145e-01,9.99999e-01
5.210282418e-01,1.80261e-01,9.99999e-01,9.99999e-01,9.99993e-01,1.80262e-01,9.99999e-01
5.236333830e-01,1.86463e-01,9.99999e-01,9.99999e-01,9.99976e-01,1.86467e-01,9.99999e-01
5.262515499e-01,1.92754e-01,9.99999e-01,9.99999e-01,9.99984e-01,1.92757e-01,9.99999e-01
5.288828077e-01,1.99125e-01,9.99999e-01,9.99999e-01,9.99986e-01,1.99128e-01,9.99999e-01
5.315272217e-01,2.05575e-01,9.99999e-01,9.99999e-01,9.99987e-01,2.05578e-01,9.99999e-01
5.341848578e-01,2.12101e-01,9.99999e-01,9.99999e-01,9.99991e-01,2.12103e-01,9.99999e-01
5.368557821e-01,2.18694e-01,9.99999e-01,9.99999e-01,9.99972e-01,2.18700e-01,9.99999e-01
5.395400610e-01,2.25344e-01,9.99999e-01,9.99999e-01,9.99900e-01,2.25366e-01,9.99999e-01
5.422377613e-01,2.32068e-01,9.99999e-01,9.99999e-01,9.99872e-01,2.32098e-01,9.99999e-01
5.449489501e-01,2.38863e-01,9.99999e-01,9.99999e-01,9.99880e-01,2.38891e-01,9.99999e-01
5.476736949e-01,2.45718e-01,9.99999e-01,9.99999e-01,9.99895e-01,2.45744e-01,9.99999e-01
5.504120634e-01,2.52632e-01,9.99999e-01,9.99999e-01,9.99923e-01,2.52652e-01,9.99999e-01
5.531641237e-01,2.59601e-01,9.99999e-01,9.99999e-01,9.99961e-01,2.59611e-01,9.99999e-01
5.559299443e-01,2.66615e-01,9.99999e-01,9.99999e-01,9.99981e-01,2.66620e-01,9.99999e-01
5.587095940e-01,2.73670e-01,9.99999e-01,9.99999e-01,9.99987e-01,2.73673e-01,9.99999e-01
5.615031420e-01,2.80765e-01,9.99999e-01,9.99999e-01,9.99986e-01,2.80768e-01,9.99999e-01
5.643106577e-01,2.87898e-01,9.99999e-01,9.99999e-01,9.99984e-01,2.87902e-01,9.99999e-01
5.671322110e-01,2.95017e-01,9.99999e-01,9.99999e-01,9.99819e-01,2.95071e-01,9.99999e-01
5.699678720e-01,3.02214e-01,9.99999e-01,9.99999e-01,9.99812e-01,3.02271e-01,9.99999e-01
5.728177114e-01,3.09438e-01,9.99999e-01,9.99999e-01,9.99802e-01,3.09499e-01,9.99999e-01
5.756818000e-01,3.16696e-01,9.99999e-01,9.99999e-01,9.99819e-01,3.16753e-01,9.99999e-01
5.785602090e-01,3.23977e-01,9.99999e-01,9.99999e-01,9.99842e-01,3.24028e-01,9.99999e-01
5.814530100e-01,3.31269e-01,9.99999e-01,9.99999e-01,9.99841e-01,3.31321e-01,9.99999e-01
5.843602750e-01,3.38566e-01,9.99999e-01,9.99999e-01,9.99809e-01,3.38630e-01,9.99999e-01
5.872820764e-01,3.45386e-01,9.99999e-01,9.99999e-01,9.98365e-01,3.45951e-01,9.99999e-01
5.902184868e-01,3.52587e-01,9.99999e-01,9.99999e-01,9.98035e-01,3.53281e-01,9.99999e-01
5.931695792e-01,3.60115e-01,9.99999e-01,9.99999e-01,9.98608e-01,3.60617e-01,9.99999e-01
5.961354271e-01,3.67396e-01,9.99999e-01,9.99999e-01,9.98477e-01,3.67956e-01,9.99999e-01
5.991161043e-01,3.74878e-01,9.99999e-01,9.99999e-01,9.98890e-01,3.75295e-01,9.99999e-01
6.021116848e-01,3.82390e-01,9.99999e-01,9.99999e-01,9.99371e-01,3.82630e-01,9.99999e-01
6.051222432e-01,3.89837e-01,9.99999e-01,9.99999e-01,9.99681e-01,3.89960e-01,9.99999e-01
6.081478544e-01,3.97228e-01,9.99999e-01,9.99999e-01,9.99862e-01,3.97282e-01,9.99999e-01
6.111885937e-01,4.04569e-01,9.99999e-01,9.99999e-01,9.99941e-01,4.04592e-01,9.99999e-01
6.142445367e-01,4.11878e-01,9.99999e-01,9.99999e-01,9.99973e-01,4.11889e-01,9.99999e-01
6.173157594e-01,4.19163e-01,9.99999e-01,9.99999e-01,9.99985e-01,4.19169e-01,9.99999e-01
6.204023382e-01,4.26425e-01,9.99999e-01,9.99999e-01,9.99987e-01,4.26430e-01,9.99999e-01
6.235043498e-01,4.33646e-01,9.99999e-01,9.99999e-01,9.99945e-01,4.33670e-01,9.99999e-01
6.266218716e-01,4.40761e-01,9.99999e-01,9.99999e-01,9.99716e-01,4.40886e-01,9.99999e-01
6.297549810e-01,4.48030e-01,9.99999e-01,9.99999e-01,9.99895e-01,4.48076e-01,9.99999e-01
6.329037559e-01,4.55145e-01,9.99999e-01,9.99999e-01,9.99794e-01,4.55238e-01,9.99999e-01
6.360682746e-01,4.62288e-01,9.99999e-01,9.99999e-01,9.99824e-01,4.62369e-01,9.99999e-01
6.392486160e-01,4.69362e-01,9.99999e-01,9.99999e-01,9.99773e-01,4.69468e-01,9.99999e-01
6.424448591e-01,4.76387e-01,9.99999e-01,9.99999e-01,9.99694e-01,4.76533e-01,9.99999e-01
6.456570834e-01,4.82876e-01,9.99999e-01,9.99999e-01,9.98582e-01,4.83561e-01,9.99999e-01
6.488853688e-01,4.90047e-01,9.99999e-01,9.99999e-01,9.98971e-01,4.90551e-01,9.99999e-01
6.521297956e-01,4.96980e-01,9.99999e-01,9.99999e-01,9.98952e-01,4.97501e-01,9.99999e-01
6.553904446e-01,5.03881e-01,9.99999e-01,9.99999e-01,9.98953e-01,5.04409e-01,9.99999e-01
6.586673968e-01,5.10818e-01,9.99999e-01,9.99999e-01,9.99106e-01,5.11274e-01,9.99999e-01
6.619607338e-01,5.17836e-01,9.99999e-01,9.99999e-01,9.99502e-01,5.18094e-01,9.99999e-01
6.652705375e-01,5.24711e-01,9.99999e-01,9.99999e-01,9.99701e-01,5.24868e-01,9.99999e-01
6.685968902e-01,5.31526e-01,9.99999e-01,9.99999e-01,9.99872e-01,5.31593e-01,9.99999e-01
6.719398746e-01,5.38235e-01,9.99999e-01,9.99999e-01,9.99935e-01,5.38270e-01,9.99999e-01
6.752995740e-01,5.44877e-01,9.99999e-01,9.99999e-01,9.99965e-01,5.44896e-01,9.99999e-01
6.786760719e-01,5.51442e-01,9.99999e-01,9.99999e-01,9.99948e-01,5.51470e-01,9.99999e-01
6.820694522e-01,5.57943e-01,9.99999e-01,9.99999e-01,9.99913e-01,5.57991e-01,9.99999e-01
6.854797995e-01,5.64396e-01,9.99999e-01,9.99999e-01,9.99888e-01,5.64459e-01,9.99999e-01
6.889071985e-01,5.70715e-01,9.99999e-01,9.99999e-01,9.99726e-01,5.70871e-01,9.99999e-01
6.923517345e-01,5.74671e-01,9.99999e-01,9.99999e-01,9.95571e-01,5.77227e-01,9.99999e-01
6.958134932e-01,5.82206e-01,9.99999e-01,9.99999e-01,9.97736e-01,5.83527e-01,9.99999e-01
6.992925606e-01,5.88479e-01,9.99999e-01,9.99999e-01,9.97812e-01,5.89769e-01,9.99999e-01
7.027890234e-01,5.94354e-01,9.99999e-01,9.99999e-01,9.97317e-01,5.95952e-01,9.99999e-01
7.063029686e-01,6.00718e-01,9.99999e-01,9.99999e-01,9.97743e-01,6.02076e-01,9.99999e-01
7.098344834e-01,6.06824e-01,9.99999e-01,9.99999e-01,9.97835e-01,6.08140e-01,9.99999e-01
7.133836558e-01,6.12352e-01,9.99999e-01,9.99999e-01,9.97082e-01,6.14144e-01,9.99999e-01
7.169505741e-01,6.05685e-01,9.99999e-01,9.99999e-01,9.76773e-01,6.20087e-01,9.99999e-01
7.205353270e-01,6.18936e-01,9.99999e-01,9.99999e-01,9.88766e-01,6.25968e-01,9.99999e-01
7.241380036e-01,6.22666e-01,9.99999e-01,9.99999e-01,9.85562e-01,6.31787e-01,9.99999e-01
7.277586936e-01,6.29238e-01,9.99999e-01,9.99999e-01,9.86972e-01,6.37544e-01,9.99999e-01
7.313974871e-01,6.34390e-01,9.99999e-01,9.99999e-01,9.86245e-01,6.43237e-01,9.99999e-01
7.350544745e-01,6.43976e-01,9.99999e-01,9.99999e-01,9.92459e-01,6.48868e-01,9.99999e-01
7.387297469e-01,6.50806e-01,9.99999e-01,9.99999e-01,9.94454e-01,6.54435e-01,9.99999e-01
7.424233956e-01,6.58151e-01,9.99999e-01,9.99999e-01,9.97289e-01,6.59939e-01,9.99999e-01
7.461355126e-01,6.64285e-01,9.99999e-01,9.99999e-01,9.98354e-01,6.65379e-01,9.99999e-01
7.498661902e-01,6.70243e-01,9.99999e-01,9.99999e-01,9.99235e-01,6.70755e-01,9.99999e-01
7.536155211e-01,6.75813e-01,9.99999e-01,9.99999e-01,9.99623e-01,6.76067e-01,9.99999e-01
7.573835987e-01,6.81183e-01,9.99999e-01,9.99999e-01,9.99806e-01,6.81315e-01,9.99999e-01
7.611705167e-01,6.86416e-01,9.99999e-01,9.99999e-01,9.99879e-01,6.86499e-01,9.99999e-01
7.649763693e-01,6.91566e-01,9.99999e-01,9.99999e-01,9.99924e-01,6.91618e-01,9.99999e-01
7.688012511e-01,6.96637e-01,9.99999e-01,9.99999e-01,9.99946e-01,6.96674e-01,9.99999e-01
7.726452574e-01,7.01635e-01,9.99999e-01,9.99999e-01,9.99956e-01,7.01665e-01,9.99999e-01
7.765084837e-01,7.06549e-01,9.99999e-01,9.99999e-01,9.99937e-01,7.06593e-01,9.99999e-01
7.803910261e-01,6.98726e-01,9.99999e-01,9.82364e-01,9.99731e-01,7.11457e-01,9.99999e-01
7.842929812e-01,6.65351e-01,9.99999e-01,9.29775e-01,9.99064e-01,7.16257e-01,9.99999e-01
7.882144461e-01,6.65149e-01,9.99999e-01,9.24276e-01,9.98087e-01,7.20994e-01,9.99999e-01
7.921555184e-01,6.92870e-01,9.99999e-01,9.55789e-01,9.98955e-01,7.25668e-01,9.99999e-01
7.961162960e-01,7.07406e-01,9.99999e-01,9.70479e-01,9.98135e-01,7.30279e-01,9.99999e-01
8.000968774e-01,7.21427e-01,9.99999e-01,9.83868e-01,9.97858e-01,7.34827e-01,9.99999e-01
8.040973618e-01,7.31566e-01,9.99999e-01,9.91646e-01,9.97854e-01,7.39313e-01,9.99999e-01
8.081178486e-01,7.37271e-01,9.99999e-01,9.96144e-01,9.95138e-01,7.43737e-01,9.99999e-01
8.121584379e-01,7.32176e-01,9.99999e-01,9.98818e-01,9.79867e-01,7.48099e-01,9.99999e-01
8.162192301e-01,7.34397e-01,9.99999e-01,9.99738e-01,9.76324e-01,7.52400e-01,9.99999e-01
8.203003262e-01,7.47470e-01,9.99999e-01,9.99995e-01,9.87884e-01,7.56640e-01,9.99999e-01
8.244018279e-01,7.48214e-01,9.99999e-01,9.99999e-01,9.83432e-01,7.60819e-01,9.99999e-01
8.285238370e-01,7.54042e-01,9.99999e-01,9.99999e-01,9.85755e-01,7.64938e-01,9.99999e-01
8.326664562e-01,7.57958e-01,9.99999e-01,9.99999e-01,9.85643e-01,7.68997e-01,9.99999e-01
8.368297885e-01,7.65083e-01,9.99999e-01,9.99999e-01,9.89760e-01,7.72998e-01,9.99999e-01
8.410139374e-01,7.72209e-01,9.99999e-01,9.99999e-01,9.93910e-01,7.76939e-01,9.99999e-01
8.452190071e-01,7.78492e-01,9.99999e-01,9.99999e-01,9.97014e-01,7.80822e-01,9.99999e-01
8.494451021e-01,7.83284e-01,9.99999e-01,9.99999e-01,9.98262e-01,7.84647e-01,9.99999e-01
8.536923276e-01,7.87607e-01,9.99999e-01,9.99999e-01,9.98975e-01,7.88415e-01,9.99999e-01
8.579607893e-01,7.91625e-01,9.99999e-01,9.99999e-01,9.99367e-01,7.92126e-01,9.99999e-01
8.622505932e-01,7.95461e-01,9.99999e-01,9.99999e-01,9.99598e-01,7.95780e-01,9.99999e-01
8.665618462e-01,7.61949e-01,9.99999e-01,9.53406e-01,9.99750e-01,7.99379e-01,9.99999e-01
8.708946554e-01,6.64672e-01,9.99999e-01,8.28046e-01,9.99714e-01,8.02923e-01,9.99999e-01
8.752491287e-01,6.94164e-01,9.99999e-01,8.61129e-01,9.99618e-01,8.06411e-01,9.99999e-01
8.796253743e-01,7.46323e-01,9.99999e-01,9.22043e-01,9.99469e-01,8.09846e-01,9.99999e-01
8.840235012e-01,7.79412e-01,9.99999e-01,9.58995e-01,9.99394e-01,8.13227e-01,9.99999e-01
8.884436187e-01,8.01476e-01,9.99999e-01,9.83730e-01,9.97756e-01,8.16554e-01,9.99999e-01
8.928858368e-01,7.95493e-01,9.99999e-01,9.93370e-01,9.76763e-01,8.19830e-01,9.99999e-01
8.973502660e-01,7.88474e-01,9.99999e-01,9.98394e-01,9.59511e-01,8.23053e-01,9.99998e-01
9.018370173e-01,8.08953e-01,9.99999e-01,9.99823e-01,9.79265e-01,8.26225e-01,9.99998e-01
9.063462024e-01,8.10240e-01,9.99999e-01,9.95311e-01,9.81495e-01,8.29346e-01,9.99998e-01
9.108779334e-01,8.00199e-01,9.99999e-01,9.89529e-01,9.71406e-01,8.32417e-01,9.99998e-01
9.154323231e-01,8.06472e-01,9.99999e-01,9.97556e-01,9.67667e-01,8.35438e-01,9.99998e-01
9.200094847e-01,7.87366e-01,9.99999e-01,9.62919e-01,9.74619e-01,8.38411e-01,9.99998e-01
9.246095321e-01,7.66905e-01,9.99999e-01,9.49653e-01,9.59391e-01,8.41334e-01,9.99997e-01
9.292325798e-01,6.15765e-01,9.99999e-01,9.59748e-01,7.58168e-01,8.44210e-01,9.99995e-01
9.338787427e-01,5.71937e-01,9.99999e-01,9.61548e-01,7.00619e-01,8.47039e-01,9.99994e-01
9.385481364e-01,7.16529e-01,9.99999e-01,9.71649e-01,8.67013e-01,8.49821e-01,9.99994e-01
9.432408771e-01,6.84253e-01,9.99999e-01,9.82613e-01,8.16373e-01,8.52557e-01,9.99993e-01
9.479570815e-01,6.38316e-01,9.99999e-01,9.91029e-01,7.52902e-01,8.55248e-01,9.99994e-01
9.526968669e-01,6.93993e-01,9.99999e-01,9.95672e-01,8.12297e-01,8.57893e-01,9.99995e-01
9.574603512e-01,7.11836e-01,9.99999e-01,9.98149e-01,8.28724e-01,8.60495e-01,9.99996e-01
9.622476530e-01,7.41101e-01,9.99999e-01,9.99422e-01,8.59179e-01,8.63052e-01,9.99997e-01
9.670588912e-01,7.92996e-01,9.99999e-01,9.99827e-01,9.16313e-01,8.65566e-01,9.99998e-01
9.718941857e-01,8.22074e-01,9.99999e-01,9.99987e-01,9.47059e-01,8.68038e-01,9.99998e-01
9.767536566e-01,8.32046e-01,9.99999e-01,9.99999e-01,9.55860e-01,8.70468e-01,9.99999e-01
9.816374249e-01,8.44237e-01,9.99999e-01,9.99999e-01,9.67211e-01,8.72857e-01,9.99999e-01
9.865456120e-01,8.57184e-01,9.99999e-01,9.99999e-01,9.79410e-01,8.75204e-01,9.99999e-01
9.914783401e-01,8.66303e-01,9.99999e-01,9.99999e-01,9.87225e-01,8.77512e-01,9.99999e-01
9.964357318e-01,8.73645e-01,9.99999e-01,9.99999e-01,9.93026e-01,8.79779e-01,9.99999e-01
1.001417910e+00,8.78320e-01,9.99999e-01,9.99999e-01,9.95817e-01,8.82008e-01,9.99999e-01
1.006425000e+00,8.82085e-01,9.99999e-01,9.99999e-01,9.97609e-01,8.84198e-01,9.99999e-01
1.011457125e+00,8.85038e-01,9.99999e-01,9.99999e-01,9.98519e-01,8.86350e-01,9.99999e-01
1.016514411e+00,8.87571e-01,9.99999e-01,9.99999e-01,9.98993e-01,8.88465e-01,9.99999e-01
1.021596983e+00,8.89804e-01,9.99999e-01,9.99972e-01,9.99197e-01,8.90543e-01,9.99999e-01
1.026704968e+00,8.90393e-01,9.99999e-01,9.98169e-01,9.99373e-01,8.92584e-01,9.99999e-01
1.031838492e+00,8.68672e-01,9.99999e-01,9.71459e-01,9.99545e-01,8.94590e-01,9.99999e-01
1.036997685e+00,2.59418e-01,9.99999e-01,2.89413e-01,9.99729e-01,8.96560e-01,9.99999e-01
1.042182673e+00,3.12538e-01,9.99999e-01,3.47951e-01,9.99676e-01,8.98496e-01,9.99999e-01
1.047393587e+00,2.86653e-01,9.99999e-01,3.18487e-01,9.99571e-01,9.00398e-01,9.99999e-01
1.052630555e+00,4.45181e-02,9.99999e-01,4.93634e-02,9.99411e-01,9.02265e-01,9.99999e-01
1.057893707e+00,8.40833e-02,9.99999e-01,9.30745e-02,9.99016e-01,9.04100e-01,9.99999e-01
1.063183176e+00,1.61797e-01,9.99999e-01,1.78839e-01,9.98383e-01,9.05902e-01,9.99999e-01
1.068499092e+00,2.86351e-01,9.99999e-01,3.16257e-01,9.97297e-01,9.07672e-01,9.99999e-01
1.073841587e+00,4.39907e-01,9.99999e-01,4.85131e-01,9.96830e-01,9.09411e-01,9.99999e-01
1.079210795e+00,5.74996e-01,9.99999e-01,6.33537e-01,9.95952e-01,9.11118e-01,9.99999e-01
1.084606849e+00,7.07548e-01,9.99999e-01,7.79817e-01,9.93867e-01,9.12795e-01,9.99999e-01
1.090029883e+00,7.96856e-01,9.99999e-01,8.79090e-01,9.91149e-01,9.14442e-01,9.99999e-01
1.095480033e+00,8.39387e-01,9.99999e-01,9.38622e-01,9.76097e-01,9.16058e-01,9.99998e-01
1.100957433e+00,8.37035e-01,9.99999e-01,9.69974e-01,9.40246e-01,9.17646e-01,9.99998e-01
1.106462220e+00,7.75131e-01,9.99999e-01,9.87496e-01,8.53745e-01,9.19205e-01,9.99997e-01
1.111994531e+00,6.57078e-01,9.99999e-01,9.95348e-01,7.16857e-01,9.20736e-01,9.99994e-01
1.117554504e+00,5.36305e-01,9.99999e-01,9.98867e-01,5.82121e-01,9.22239e-01,9.99993e-01
1.123142276e+00,6.16887e-01,9.99999e-01,9.99925e-01,6.67871e-01,9.23715e-01,9.99991e-01
1.128757988e+00,7.16183e-01,9.99999e-01,9.99999e-01,7.74120e-01,9.25164e-01,9.99991e-01
1.134401778e+00,5.04240e-01,9.99999e-01,9.99999e-01,5.44195e-01,9.26587e-01,9.99990e-01
1.140073787e+00,7.98010e-01,9.99999e-01,9.99999e-01,8.59946e-01,9.27983e-01,9.99992e-01
1.145774156e+00,6.76753e-01,9.99999e-01,9.99999e-01,7.28201e-01,9.29354e-01,9.99993e-01
1.151503026e+00,6.51937e-01,9.99999e-01,9.99999e-01,7.00483e-01,9.30700e-01,9.99994e-01
1.157260541e+00,6.96359e-01,9.99999e-01,9.99999e-01,7.47151e-01,9.32021e-01,9.99995e-01
1.163046844e+00,7.53211e-01,9.99999e-01,9.99999e-01,8.07027e-01,9.33318e-01,9.99996e-01
1.168862078e+00,8.06008e-01,9.99999e-01,9.99999e-01,8.62418e-01,9.34591e-01,9.99998e-01
1.174706389e+00,8.54159e-01,9.99999e-01,9.99999e-01,9.12718e-01,9.35841e-01,9.99998e-01
1.180579921e+00,8.86451e-01,9.99999e-01,9.99999e-01,9.45983e-01,9.37067e-01,9.99999e-01
1.186482820e+00,9.09309e-01,9.99999e-01,9.99995e-01,9.69136e-01,9.38271e-01,9.99999e-01
1.192415234e+00,9.16364e-01,9.99999e-01,9.93396e-01,9.81871e-01,9.39453e-01,9.99999e-01
1.198377311e+00,5.43097e-01,9.99999e-01,5.84929e-01,9.84674e-01,9.40612e-01,9.99999e-01
1.204369197e+00,1.57413e-06,9.99999e-01,1.68564e-06,9.85494e-01,9.41751e-01,9.99999e-01
1.210391043e+00,1.24490e-20,9.99999e-01,1.33060e-20,9.86132e-01,9.42868e-01,9.99999e-01
1.216442998e+00,4.18887e-18,9.99999e-01,4.47025e-18,9.88213e-01,9.43964e-01,9.99999e-01
1.222525213e+00,7.67873e-18,9.99999e-01,8.16470e-18,9.90809e-01,9.45040e-01,9.99999e-01
1.228637839e+00,1.01013e-13,9.99999e-01,1.07257e-13,9.93607e-01,9.46096e-01,9.99999e-01
