#,Wave/freq,Total,O2,CO2,H2O,Rayleigh,CIA
4.000000000e-01,1.14867e-06,9.99999e-01,9.99999e-01,9.99972e-01,1.14870e-06,9.99999e-01
4.020000000e-01,1.50538e-06,9.99999e-01,9.99999e-01,9.99982e-01,1.50541e-06,9.99999e-01
4.040100000e-01,1.96181e-06,9.99999e-01,9.99999e-01,9.99992e-01,1.96182e-06,9.99999e-01
4.060300500e-01,2.54327e-06,9.99999e-01,9.99999e-01,9.99997e-01,2.54328e-06,9.99999e-01
4.080602003e-01,3.28020e-06,9.99999e-01,9.99999e-01,9.99998e-01,3.28020e-06,9.99999e-01
4.101005013e-01,4.20945e-06,9.99999e-01,9.99999e-01,9.99999e-01,4.20945e-06,9.99999e-01
4.121510038e-01,5.37539e-06,9.99999e-01,9.99999e-01,9.99998e-01,5.37539e-06,9.99999e-01
4.142117588e-01,6.83116e-06,9.99999e-01,9.99999e-01,9.99992e-01,6.83121e-06,9.99999e-01
4.162828176e-01,8.64002e-06,9.99999e-01,9.99999e-01,9.99966e-01,8.64031e-06,9.99999e-01
4.183642317e-01,1.08777e-05,9.99999e-01,9.99999e-01,9.99979e-01,1.08779e-05,9.99999e-01
4.204560528e-01,1.36327e-05,9.99999e-01,9.99999e-01,9.99987e-01,1.36328e-05,9.99999e-01
4.225583331e-01,1.70094e-05,9.99999e-01,9.99999e-01,9.99994e-01,1.70094e-05,9.99999e-01
4.246711247e-01,2.11297e-05,9.99999e-01,9.99999e-01,9.99995e-01,2.11298e-05,9.99999e-01
4.267944804e-01,2.61359e-05,9.99999e-01,9.99999e-01,9.99994e-01,2.61361e-05,9.99999e-01
4.289284528e-01,3.21929e-05,9.99999e-01,9.99999e-01,9.99995e-01,3.21930e-05,9.99999e-01
4.310730950e-01,3.94906e-05,9.99999e-01,9.99999e-01,9.99997e-01,3.94906e-05,9.99999e-01
4.332284605e-01,4.82474e-05,9.99999e-01,9.99999e-01,9.99999e-01,4.82474e-05,9.99999e-01
4.353946028e-01,5.87133e-05,9.99999e-01,9.99999e-01,9.99999e-01,5.87133e-05,9.99999e-01
4.375715758e-01,7.11726e-05,9.99999e-01,9.99999e-01,9.99996e-01,7.11728e-05,9.99999e-01
4.397594337e-01,8.59466e-05,9.99999e-01,9.99999e-01,9.99970e-01,8.59491e-05,9.99999e-01
4.419582309e-01,1.03392e-04,9.99999e-01,9.99999e-01,9.99853e-01,1.03407e-04,9.99999e-01
4.441680220e-01,1.23943e-04,9.99999e-01,9.99999e-01,9.99883e-01,1.23957e-04,9.99999e-01
4.463888621e-01,1.48043e-04,9.99999e-01,9.99999e-01,9.99879e-01,1.48061e-04,9.99999e-01
4.486208064e-01,1.76218e-04,9.99999e-01,9.99999e-01,9.99924e-01,1.76231e-04,9.99999e-01
4.508639105e-01,2.09034e-04,9.99999e-01,9.99999e-01,9.99964e-01,2.09042e-04,9.99999e-01
4.531182300e-01,2.47122e-04,9.99999e-01,9.99999e-01,9.99985e-01,2.47125e-04,9.99999e-01
4.553838212e-01,2.91180e-04,9.99999e-01,9.99999e-01,9.99990e-01,2.91183e-04,9.99999e-01
4.576607403e-01,3.41984e-04,9.99999e-01,9.99999e-01,9.99995e-01,3.41985e-04,9.99999e-01
4.599490440e-01,4.00376e-04,9.99999e-01,9.99999e-01,9.99996e-01,4.00377e-04,9.99999e-01
4.622487892e-01,4.67282e-04,9.99999e-01,9.99999e-01,9.99998e-01,4.67282e-04,9.99999e-01
4.645600332e-01,5.43704e-04,9.99999e-01,9.99999e-01,9.99997e-01,5.43705e-04,9.99999e-01
4.668828333e-01,6.30714e-04,9.99999e-01,9.99999e-01,9.99964e-01,6.30736e-04,9.99999e-01
4.692172475e-01,7.29501e-04,9.99999e-01,9.99999e-01,9.99924e-01,7.29556e-04,9.99999e-01
4.715633337e-01,8.41394e-04,9.99999e-01,9.99999e-01,9.99950e-01,8.41436e-04,9.99999e-01
4.739211504e-01,9.67696e-04,9.99999e-01,9.99999e-01,9.99952e-01,9.67742e-04,9.99999e-01
4.762907561e-01,1.10991e-03,9.99999e-01,9.99999e-01,9.99974e-01,1.10994e-03,9.99999e-01
4.786722099e-01,1.26957e-03,9.99999e-01,9.99999e-01,9.99989e-01,1.26958e-03,9.99999e-01
4.810655710e-01,1.44834e-03,9.99999e-01,9.99999e-01,9.99996e-01,1.44834e-03,9.99999e-01
4.834708988e-01,1.64793e-03,9.99999e-01,9.99999e-01,9.99971e-01,1.64797e-03,9.99999e-01
4.858882533e-01,1.87025e-03,9.99999e-01,9.99999e-01,9.99946e-01,1.87035e-03,9.99999e-01
4.883176946e-01,2.11734e-03,9.99999e-01,9.99999e-01,9.99955e-01,2.11743e-03,9.99999e-01
4.907592831e-01,2.39119e-03,9.99999e-01,9.99999e-01,9.99959e-01,2.39128e-03,9.99999e-01
4.932130795e-01,2.69400e-03,9.99999e-01,9.99999e-01,9.99970e-01,2.69407e-03,9.99999e-01
4.956791449e-01,3.02802e-03,9.99999e-01,9.99999e-01,9.99984e-01,3.02806e-03,9.99999e-01
4.981575406e-01,3.39536e-03,9.99999e-01,9.99999e-01,9.99924e-01,3.39561e-03,9.99999e-01
5.006483283e-01,3.79843e-03,9.99999e-01,9.99999e-01,9.99804e-01,3.79917e-03,9.99999e-01
5.031515699e-01,4.23706e-03,9.99999e-01,9.99999e-01,9.99006e-01,4.24127e-03,9.99999e-01
5.056673278e-01,4.72205e-03,9.99999e-01,9.99999e-01,9.99473e-01,4.72453e-03,9.99999e-01
5.081956644e-01,5.24817e-03,9.99999e-01,9.99999e-01,9.99336e-01,5.25165e-03,9.99999e-01
5.107366428e-01,5.82279e-03,9.99999e-01,9.99999e-01,9.99551e-01,5.82540e-03,9.99999e-01
5.132903260e-01,6.44696e-03,9.99999e-01,9.99999e-01,9.99743e-01,6.44861e-03,9.99999e-01
5.158567776e-01,7.12340e-03,9.99999e-01,9.99999e-01,9.99891e-01,7.12417e-03,9.99999e-01
5.184360615e-01,7.85470e-03,9.99999e-01,9.99999e-01,9.99956e-01,7.85504e-03,9.99999e-01
5.210282418e-01,8.64405e-03,9.99999e-01,9.99999e-01,9.99983e-01,8.64419e-03,9.99999e-01
5.236333830e-01,9.49404e-03,9.99999e-01,9.99999e-01,9.99934e-01,9.49466e-03,9.99999e-01
5.262515499e-01,1.04091e-02,9.99999e-01,9.99999e-01,9.99958e-01,1.04095e-02,9.99999e-01
5.288828077e-01,1.13913e-02,9.99999e-01,9.99999e-01,9.99962e-01,1.13917e-02,9.99999e-01
5.315272217e-01,1.24441e-02,9.99999e-01,9.99999e-01,9.99966e-01,1.24445e-02,9.99999e-01
5.341848578e-01,1.35705e-02,9.99999e-01,9.99999e-01,9.99978e-01,1.35708e-02,9.99999e-01
5.368557821e-01,1.47727e-02,9.99999e-01,9.99999e-01,9.99924e-01,1.47738e-02,9.99999e-01
5.395400610e-01,1.60521e-02,9.99999e-01,9.99999e-01,9.99729e-01,1.60564e-02,9.99999e-01
5.422377613e-01,1.74156e-02,9.99999e-01,9.99999e-01,9.99646e-01,1.74217e-02,9.99999e-01
5.449489501e-01,1.88665e-02,9.99999e-01,9.99999e-01,9.99673e-01,1.88727e-02,9.99999e-01
5.476736949e-01,2.04063e-02,9.99999e-01,9.99999e-01,9.99708e-01,2.04122e-02,9.99999e-01
5.504120634e-01,2.20385e-02,9.99999e-01,9.99999e-01,9.99788e-01,2.20432e-02,9.99999e-01
5.531641237e-01,2.37658e-02,9.99999e-01,9.99999e-01,9.99893e-01,2.37683e-02,9.99999e-01
5.559299443e-01,2.55891e-02,9.99999e-01,9.99999e-01,9.99948e-01,2.55904e-02,9.99999e-01
5.587095940e-01,2.75111e-02,9.99999e-01,9.99999e-01,9.99967e-01,2.75120e-02,9.99999e-01
5.615031420e-01,2.95345e-02,9.99999e-01,9.99999e-01,9.99963e-01,2.95355e-02,9.99999e-01
5.643106577e-01,3.16623e-02,9.99999e-01,9.99999e-01,9.99959e-01,3.16635e-02,9.99999e-01
5.671322110e-01,3.38818e-02,9.99999e-01,9.99999e-01,9.99514e-01,3.38982e-02,9.99999e-01
5.699678720e-01,3.62227e-02,9.99999e-01,9.99999e-01,9.99472e-01,3.62418e-02,9.99999e-01
5.728177114e-01,3.86752e-02,9.99999e-01,9.99999e-01,9.99455e-01,3.86962e-02,9.99999e-01
5.756818000e-01,4.12428e-02,9.99999e-01,9.99999e-01,9.99499e-01,4.12635e-02,9.99999e-01
5.785602090e-01,4.39260e-02,9.99999e-01,9.99999e-01,9.99562e-01,4.39452e-02,9.99999e-01
5.814530100e-01,4.67226e-02,9.99999e-01,9.99999e-01,9.99561e-01,4.67431e-02,9.99999e-01
5.843602750e-01,4.96328e-02,9.99999e-01,9.99999e-01,9.99481e-01,4.96585e-02,9.99999e-01
5.872820764e-01,5.24572e-02,9.99999e-01,9.99999e-01,9.95528e-01,5.26928e-02,9.99999e-01
5.902184868e-01,5.55425e-02,9.99999e-01,9.99999e-01,9.94547e-01,5.58470e-02,9.99999e-01
5.931695792e-01,5.88948e-02,9.99999e-01,9.99999e-01,9.96154e-01,5.91221e-02,9.99999e-01
5.961354271e-01,6.22549e-02,9.99999e-01,9.99999e-01,9.95778e-01,6.25188e-02,9.99999e-01
5.991161043e-01,6.58342e-02,9.99999e-01,9.99999e-01,9.96917e-01,6.60378e-02,9.99999e-01
6.021116848e-01,6.95574e-02,9.99999e-01,9.99999e-01,9.98247e-01,6.96794e-02,9.99999e-01
6.051222432e-01,7.33788e-02,9.99999e-01,9.99999e-01,9.99112e-01,7.34439e-02,9.99999e-01
6.081478544e-01,7.73019e-02,9.99999e-01,9.99999e-01,9.99617e-01,7.73315e-02,9.99999e-01
6.111885937e-01,8.13286e-02,9.99999e-01,9.99999e-01,9.99837e-01,8.13418e-02,9.99999e-01
6.142445367e-01,8.54686e-02,9.99999e-01,9.99999e-01,9.99927e-01,8.54748e-02,9.99999e-01
6.173157594e-01,8.97262e-02,9.99999e-01,9.99999e-01,9.99959e-01,8.97298e-02,9.99999e-01
6.204023382e-01,9.41032e-02,9.99999e-01,9.99999e-01,9.99965e-01,9.41063e-02,9.99999e-01
6.235043498e-01,9.85891e-02,9.99999e-01,9.99999e-01,9.99853e-01,9.86035e-02,9.99999e-01
6.266218716e-01,1.03139e-01,9.99999e-01,9.99999e-01,9.99215e-01,1.03220e-01,9.99999e-01
6.297549810e-01,1.07925e-01,9.99999e-01,9.99999e-01,9.99712e-01,1.07956e-01,9.99999e-01
6.329037559e-01,1.12744e-01,9.99999e-01,9.99999e-01,9.99430e-01,1.12808e-01,9.99999e-01
6.360682746e-01,1.17720e-01,9.99999e-01,9.99999e-01,9.99516e-01,1.17777e-01,9.99999e-01
6.392486160e-01,1.22783e-01,9.99999e-01,9.99999e-01,9.99372e-01,1.22860e-01,9.99999e-01
6.424448591e-01,1.27948e-01,9.99999e-01,9.99999e-01,9.99165e-01,1.28055e-01,9.99999e-01
6.456570834e-01,1.32844e-01,9.99999e-01,9.99999e-01,9.96127e-01,1.33360e-01,9.99999e-01
6.488853688e-01,1.38310e-01,9.99999e-01,9.99999e-01,9.96652e-01,1.38775e-01,9.99999e-01
6.521297956e-01,1.43875e-01,9.99999e-01,9.99999e-01,9.97086e-01,1.44295e-01,9.99999e-01
6.553904446e-01,1.49488e-01,9.99999e-01,9.99999e-01,9.97121e-01,1.49919e-01,9.99999e-01
6.586673968e-01,1.55259e-01,9.99999e-01,9.99999e-01,9.97514e-01,1.55646e-01,9.99999e-01
6.619607338e-01,1.61239e-01,9.99999e-01,9.99999e-01,9.98562e-01,1.61471e-01,9.99999e-01
6.652705375e-01,1.67253e-01,9.99999e-01,9.99999e-01,9.99166e-01,1.67393e-01,9.99999e-01
6.685968902e-01,1.73341e-01,9.99999e-01,9.99999e-01,9.99612e-01,1.73408e-01,9.99999e-01
6.719398746e-01,1.79482e-01,9.99999e-01,9.99999e-01,9.99820e-01,1.79515e-01,9.99999e-01
6.752995740e-01,1.85691e-01,9.99999e-01,9.99999e-01,9.99902e-01,1.85709e-01,9.99999e-01
6.786760719e-01,1.91962e-01,9.99999e-01,9.99999e-01,9.99860e-01,1.91989e-01,9.99999e-01
6.820694522e-01,1.98303e-01,9.99999e-01,9.99999e-01,9.99760e-01,1.98350e-01,9.99999e-01
6.854797995e-01,2.04728e-01,9.99999e-01,9.99999e-01,9.99691e-01,2.04791e-01,9.99999e-01
6.889071985e-01,2.11151e-01,9.99999e-01,9.99999e-01,9.99262e-01,2.11307e-01,9.99999e-01
6.923517345e-01,2.15261e-01,9.99999e-01,9.99999e-01,9.87911e-01,2.17895e-01,9.99999e-01
6.958134932e-01,2.23117e-01,9.99999e-01,9.99999e-01,9.93604e-01,2.24553e-01,9.99999e-01
6.992925606e-01,2.29892e-01,9.99999e-01,9.99999e-01,9.94010e-01,2.31277e-01,9.99999e-01
7.027890234e-01,2.36293e-01,9.99999e-01,9.99999e-01,9.92565e-01,2.38063e-01,9.99999e-01
7.063029686e-01,2.43378e-01,9.99999e-01,9.99999e-01,9.93751e-01,2.44909e-01,9.99999e-01
7.098344834e-01,2.50300e-01,9.99999e-01,9.99999e-01,9.94003e-01,2.51810e-01,9.99999e-01
7.133836558e-01,2.56717e-01,9.99999e-01,9.99999e-01,9.92089e-01,2.58763e-01,9.99999e-01
7.169505741e-01,2.49236e-01,9.99999e-01,9.99999e-01,9.37803e-01,2.65766e-01,9.99998e-01
7.205353270e-01,2.64264e-01,9.99999e-01,9.99999e-01,9.68660e-01,2.72814e-01,9.99998e-01
7.241380036e-01,2.68930e-01,9.99999e-01,9.99999e-01,9.60791e-01,2.79905e-01,9.99998e-01
7.277586936e-01,2.76852e-01,9.99999e-01,9.99999e-01,9.64527e-01,2.87034e-01,9.99998e-01
7.313974871e-01,2.83060e-01,9.99999e-01,9.99999e-01,9.62139e-01,2.94198e-01,9.99998e-01
7.350544745e-01,2.95117e-01,9.99999e-01,9.99999e-01,9.79172e-01,3.01395e-01,9.99999e-01
7.387297469e-01,3.03875e-01,9.99999e-01,9.99999e-01,9.84625e-01,3.08620e-01,9.99999e-01
7.424233956e-01,3.13482e-01,9.99999e-01,9.99999e-01,9.92436e-01,3.15871e-01,9.99999e-01
7.461355126e-01,3.21662e-01,9.99999e-01,9.99999e-01,9.95416e-01,3.23143e-01,9.99999e-01
7.498661902e-01,3.29728e-01,9.99999e-01,9.99999e-01,9.97859e-01,3.30435e-01,9.99999e-01
7.536155211e-01,3.37388e-01,9.99999e-01,9.99999e-01,9.98951e-01,3.37742e-01,9.99999e-01
7.573835987e-01,3.44876e-01,9.99999e-01,9.99999e-01,9.99459e-01,3.45062e-01,9.99999e-01
7.611705167e-01,3.52273e-01,9.99999e-01,9.99999e-01,9.99664e-01,3.52391e-01,9.99999e-01
7.649763693e-01,3.59651e-01,9.99999e-01,9.99999e-01,9.99789e-01,3.59726e-01,9.99999e-01
7.688012511e-01,3.67011e-01,9.99999e-01,9.99999e-01,9.99853e-01,3.67065e-01,9.99999e-01
7.726452574e-01,3.74359e-01,9.99999e-01,9.99999e-01,9.99879e-01,3.74403e-01,9.99999e-01
7.765084837e-01,3.81675e-01,9.99999e-01,9.99999e-01,9.99829e-01,3.81740e-01,9.99999e-01
7.803910261e-01,3.72552e-01,9.99999e-01,9.58217e-01,9.99267e-01,3.89071e-01,9.99999e-01
7.842929812e-01,3.24307e-01,9.99999e-01,8.20109e-01,9.97444e-01,3.96393e-01,9.99999e-01
7.882144461e-01,3.25296e-01,9.99999e-01,8.09845e-01,9.94708e-01,4.03705e-01,9.99999e-01
7.921555184e-01,3.62021e-01,9.99999e-01,8.83318e-01,9.97084e-01,4.11004e-01,9.99999e-01
7.961162960e-01,3.82777e-01,9.99999e-01,9.19746e-01,9.94893e-01,4.18286e-01,9.99999e-01
8.000968774e-01,4.04303e-01,9.99999e-01,9.55710e-01,9.94078e-01,4.25549e-01,9.99999e-01
8.040973618e-01,4.20228e-01,9.99999e-01,9.76734e-01,9.94082e-01,4.32792e-01,9.99999e-01
8.081178486e-01,4.29548e-01,9.99999e-01,9.89285e-01,9.86768e-01,4.40011e-01,9.99999e-01
8.121584379e-01,4.21609e-01,9.99999e-01,9.96658e-01,9.45885e-01,4.47204e-01,9.99998e-01
8.162192301e-01,4.24816e-01,9.99999e-01,9.99261e-01,9.35631e-01,4.54370e-01,9.99998e-01
8.203003262e-01,4.46668e-01,9.99999e-01,9.99987e-01,9.67861e-01,4.61505e-01,9.99998e-01
8.244018279e-01,4.47325e-01,9.99999e-01,9.99999e-01,9.54583e-01,4.68608e-01,9.99998e-01
8.285238370e-01,4.57247e-01,9.99999e-01,9.99999e-01,9.61255e-01,4.75677e-01,9.99998e-01
8.326664562e-01,4.63752e-01,9.99999e-01,9.99999e-01,9.60726e-01,4.82710e-01,9.99998e-01
8.368297885e-01,4.75871e-01,9.99999e-01,9.99999e-01,9.71751e-01,4.89704e-01,9.99999e-01
8.410139374e-01,4.88275e-01,9.99999e-01,9.99999e-01,9.83117e-01,4.96659e-01,9.99999e-01
8.452190071e-01,4.99384e-01,9.99999e-01,9.99999e-01,9.91681e-01,5.03573e-01,9.99999e-01
8.494451021e-01,5.07983e-01,9.99999e-01,9.99999e-01,9.95179e-01,5.10443e-01,9.99999e-01
8.536923276e-01,5.15789e-01,9.99999e-01,9.99999e-01,9.97140e-01,5.17268e-01,9.99999e-01
8.579607893e-01,5.23127e-01,9.99999e-01,9.99999e-01,9.98242e-01,5.24047e-01,9.99999e-01
8.622505932e-01,5.30185e-01,9.99999e-01,9.99999e-01,9.98880e-01,5.30779e-01,9.99999e-01
8.665618462e-01,4.91355e-01,9.99999e-01,9.14816e-01,9.99309e-01,5.37462e-01,9.99999e-01
8.708946554e-01,3.30331e-01,9.99999e-01,6.07580e-01,9.99210e-01,5.44094e-01,9.99999e-01
8.752491287e-01,3.66828e-01,9.99999e-01,6.66821e-01,9.98943e-01,5.50674e-01,9.99999e-01
8.796253743e-01,4.44736e-01,9.99999e-01,7.99281e-01,9.98540e-01,5.57202e-01,9.99999e-01
8.840235012e-01,5.00875e-01,9.99999e-01,8.90042e-01,9.98332e-01,5.63676e-01,9.99999e-01
8.884436187e-01,5.41195e-01,9.99999e-01,9.54962e-01,9.94002e-01,5.70095e-01,9.99999e-01
8.928858368e-01,5.30868e-01,9.99999e-01,9.81538e-01,9.38037e-01,5.76458e-01,9.99998e-01
8.973502660e-01,5.17719e-01,9.99999e-01,9.95464e-01,8.92325e-01,5.82765e-01,9.99998e-01
9.018370173e-01,5.55299e-01,9.99999e-01,9.99498e-01,9.43216e-01,5.89014e-01,9.99997e-01
9.063462024e-01,5.58924e-01,9.99999e-01,9.87540e-01,9.50407e-01,5.95204e-01,9.99997e-01
9.108779334e-01,5.39495e-01,9.99999e-01,9.71073e-01,9.23455e-01,6.01336e-01,9.99997e-01
9.154323231e-01,5.51050e-01,9.99999e-01,9.93087e-01,9.13355e-01,6.07407e-01,9.99997e-01
9.200094847e-01,5.21025e-01,9.99999e-01,9.07660e-01,9.31381e-01,6.13418e-01,9.99996e-01
9.246095321e-01,4.82699e-01,9.99999e-01,8.66382e-01,8.96677e-01,6.19368e-01,9.99994e-01
9.292325798e-01,2.73961e-01,9.99999e-01,8.94720e-01,4.82817e-01,6.25257e-01,9.99989e-01
9.338787427e-01,2.23474e-01,9.99999e-01,8.97170e-01,3.89216e-01,6.31084e-01,9.99985e-01
9.385481364e-01,4.03692e-01,9.99999e-01,9.23275e-01,6.82584e-01,6.36848e-01,9.99985e-01
9.432408771e-01,3.64024e-01,9.99999e-01,9.52157e-01,5.93017e-01,6.42549e-01,9.99983e-01
9.479570815e-01,3.09200e-01,9.99999e-01,9.75211e-01,4.88346e-01,6.48188e-01,9.99985e-01
9.526968669e-01,3.74828e-01,9.99999e-01,9.87957e-01,5.79568e-01,6.53763e-01,9.99989e-01
9.574603512e-01,3.95110e-01,9.99999e-01,9.94830e-01,6.02164e-01,6.59274e-01,9.99991e-01
9.622476530e-01,4.38209e-01,9.99999e-01,9.98383e-01,6.60225e-01,6.64722e-01,9.99994e-01
9.670588912e-01,5.27173e-01,9.99999e-01,9.99514e-01,7.87061e-01,6.70106e-01,9.99996e-01
9.718941857e-01,5.81227e-01,9.99999e-01,9.99964e-01,8.60563e-01,6.75425e-01,9.99997e-01
9.767536566e-01,6.00908e-01,9.99999e-01,9.99999e-01,8.82805e-01,6.80681e-01,9.99998e-01
9.816374249e-01,6.25212e-01,9.99999e-01,9.99999e-01,9.11558e-01,6.85872e-01,9.99998e-01
9.865456120e-01,6.52136e-01,9.99999e-01,9.99999e-01,9.43756e-01,6.91000e-01,9.99999e-01
9.914783401e-01,6.71606e-01,9.99999e-01,9.99999e-01,9.64862e-01,6.96063e-01,9.99999e-01
9.964357318e-01,6.87537e-01,9.99999e-01,9.99999e-01,9.80707e-01,7.01062e-01,9.99999e-01
1.001417910e+00,6.97803e-01,9.99999e-01,9.99999e-01,9.88391e-01,7.05998e-01,9.99999e-01
1.006425000e+00,7.06162e-01,9.99999e-01,9.99999e-01,9.93376e-01,7.10870e-01,9.99999e-01
1.011457125e+00,7.12727e-01,9.99999e-01,9.99999e-01,9.95876e-01,7.15678e-01,9.99999e-01
1.016514411e+00,7.18407e-01,9.99999e-01,9.99999e-01,9.97202e-01,7.20422e-01,9.99999e-01
1.021596983e+00,7.23443e-01,9.99999e-01,9.99937e-01,9.97771e-01,7.25104e-01,9.99999e-01
1.026704968e+00,7.24909e-01,9.99999e-01,9.95129e-01,9.98262e-01,7.29722e-01,9.99999e-01
1.031838492e+00,6.96096e-01,9.99999e-01,9.49161e-01,9.98734e-01,7.34278e-01,9.99999e-01
1.036997685e+00,8.84057e-02,9.99999e-01,1.19736e-01,9.99249e-01,7.38771e-01,9.99999e-01
1.042182673e+00,4.82492e-02,9.99999e-01,6.49705e-02,9.99107e-01,7.43203e-01,9.99999e-01
1.047393587e+00,6.78156e-02,9.99999e-01,9.08083e-02,9.98815e-01,7.47572e-01,9.99999e-01
1.052630555e+00,7.35995e-04,9.99999e-01,9.79998e-04,9.98375e-01,7.51881e-01,9.99999e-01
1.057893707e+00,2.11545e-03,9.99999e-01,2.80253e-03,9.97292e-01,7.56128e-01,9.99999e-01
1.063183176e+00,9.69209e-03,9.99999e-01,1.27861e-02,9.95544e-01,7.60315e-01,9.99999e-01
1.068499092e+00,3.48554e-02,9.99999e-01,4.58716e-02,9.92541e-01,7.64441e-01,9.99999e-01
1.073841587e+00,1.07850e-01,9.99999e-01,1.41350e-01,9.91289e-01,7.68508e-01,9.99999e-01
1.079210795e+00,2.21526e-01,9.99999e-01,2.89632e-01,9.88822e-01,7.72515e-01,9.99999e-01
1.084606849e+00,3.84581e-01,9.99999e-01,5.03277e-01,9.83147e-01,7.76463e-01,9.99998e-01
1.090029883e+00,5.33507e-01,9.99999e-01,6.99897e-01,9.75976e-01,7.80354e-01,9.99998e-01
1.095480033e+00,6.15924e-01,9.99999e-01,8.38528e-01,9.35797e-01,7.84186e-01,9.99997e-01
1.100957433e+00,6.12385e-01,9.99999e-01,9.18604e-01,8.45072e-01,7.87960e-01,9.99996e-01
1.106462220e+00,5.00939e-01,9.99999e-01,9.65464e-01,6.54344e-01,7.91678e-01,9.99993e-01
1.111994531e+00,3.23140e-01,9.99999e-01,9.87056e-01,4.11144e-01,7.95340e-01,9.99986e-01
1.117554504e+00,1.91151e-01,9.99999e-01,9.96814e-01,2.39847e-01,7.98945e-01,9.99981e-01
1.123142276e+00,2.86097e-01,9.99999e-01,9.99789e-01,3.56546e-01,8.02495e-01,9.99978e-01
1.128757988e+00,4.11691e-01,9.99999e-01,9.99999e-01,5.10800e-01,8.05991e-01,9.99976e-01
1.134401778e+00,2.13608e-01,9.99999e-01,9.99999e-01,2.63905e-01,8.09432e-01,9.99973e-01
1.140073787e+00,5.41794e-01,9.99999e-01,9.99999e-01,6.66575e-01,8.12819e-01,9.99978e-01
1.145774156e+00,3.53940e-01,9.99999e-01,9.99999e-01,4.33676e-01,8.16153e-01,9.99981e-01
1.151503026e+00,3.24934e-01,9.99999e-01,9.99999e-01,3.96539e-01,8.19435e-01,9.99984e-01
1.157260541e+00,3.74362e-01,9.99999e-01,9.99999e-01,4.55065e-01,8.22664e-01,9.99988e-01
1.163046844e+00,4.60225e-01,9.99999e-01,9.99999e-01,5.57282e-01,8.25842e-01,9.99992e-01
1.168862078e+00,5.50695e-01,9.99999e-01,9.99999e-01,6.64314e-01,8.28970e-01,9.99995e-01
1.174706389e+00,6.46412e-01,9.99999e-01,9.99999e-01,7.76895e-01,8.32047e-01,9.99997e-01
1.180579921e+00,7.15916e-01,9.99999e-01,9.99999e-01,8.57308e-01,8.35074e-01,9.99998e-01
1.186482820e+00,7.68196e-01,9.99999e-01,9.99992e-01,9.16650e-01,8.38052e-01,9.99998e-01
1.192415234e+00,7.85863e-01,9.99999e-01,9.82873e-01,9.50498e-01,8.40982e-01,9.99998e-01
1.198377311e+00,4.51532e-01,9.99999e-01,5.54525e-01,9.58173e-01,8.43864e-01,9.99998e-01
1.204369197e+00,4.05883e-14,9.99999e-01,4.90700e-14,9.60368e-01,8.46698e-01,9.99998e-01
1.210391043e+00,3.32993e-53,9.99999e-01,4.00501e-53,9.62051e-01,8.49486e-01,9.99999e-01
1.216442998e+00,3.25002e-46,9.99999e-01,3.89195e-46,9.67577e-01,8.52227e-01,9.99999e-01
1.222525213e+00,1.54736e-45,9.99999e-01,1.83395e-45,9.74678e-01,8.54923e-01,9.99999e-01
1.228637839e+00,2.87431e-35,9.99999e-01,3.39280e-35,9.82359e-01,8.57574e-01,9.99999e-01
