#,Wave/freq,Total,O2,CO2,H2O,Rayleigh,CIA
4.000000000e-01,1.63389e-19,9.99999e-01,9.99999e-01,9.99914e-01,1.63403e-19,9.99999e-01
4.020000000e-01,3.84333e-19,9.99999e-01,9.99999e-01,9.99946e-01,3.84353e-19,9.99999e-01
4.040100000e-01,8.88113e-19,9.99999e-01,9.99999e-01,9.99977e-01,8.88133e-19,9.99999e-01
4.060300500e-01,2.01854e-18,9.99999e-01,9.99999e-01,9.99994e-01,2.01855e-18,9.99999e-01
4.080602003e-01,4.51397e-18,9.99999e-01,9.99999e-01,9.99997e-01,4.51398e-18,9.99999e-01
4.101005013e-01,9.93516e-18,9.99999e-01,9.99999e-01,9.99999e-01,9.93516e-18,9.99999e-01
4.121510038e-01,2.15289e-17,9.99999e-01,9.99999e-01,9.99996e-01,2.15289e-17,9.99999e-01
4.142117588e-01,4.59438e-17,9.99999e-01,9.99999e-01,9.99976e-01,4.59449e-17,9.99999e-01
4.162828176e-01,9.65834e-17,9.99999e-01,9.99999e-01,9.99894e-01,9.65936e-17,9.99999e-01
4.183642317e-01,2.00105e-16,9.99999e-01,9.99999e-01,9.99937e-01,2.00118e-16,9.99999e-01
4.204560528e-01,4.08655e-16,9.99999e-01,9.99999e-01,9.99961e-01,4.08671e-16,9.99999e-01
4.225583331e-01,8.22869e-16,9.99999e-01,9.99999e-01,9.99985e-01,8.22881e-16,9.99999e-01
4.246711247e-01,1.63415e-15,9.99999e-01,9.99999e-01,9.99988e-01,1.63417e-15,9.99999e-01
4.267944804e-01,3.20157e-15,9.99999e-01,9.99999e-01,9.99982e-01,3.20163e-15,9.99999e-01
4.289284528e-01,6.18970e-15,9.99999e-01,9.99999e-01,9.99986e-01,6.18978e-15,9.99999e-01
4.310730950e-01,1.18120e-14,9.99999e-01,9.99999e-01,9.99993e-01,1.18120e-14,9.99999e-01
4.332284605e-01,2.22552e-14,9.99999e-01,9.99999e-01,9.99998e-01,2.22552e-14,9.99999e-01
4.353946028e-01,4.14098e-14,9.99999e-01,9.99999e-01,9.99998e-01,4.14098e-14,9.99999e-01
4.375715758e-01,7.61104e-14,9.99999e-01,9.99999e-01,9.99989e-01,7.61112e-14,9.99999e-01
4.397594337e-01,1.38208e-13,9.99999e-01,9.99999e-01,9.99908e-01,1.38221e-13,9.99999e-01
4.419582309e-01,2.47957e-13,9.99999e-01,9.99999e-01,9.99535e-01,2.48072e-13,9.99999e-01
4.441680220e-01,4.39954e-13,9.99999e-01,9.99999e-01,9.99633e-01,4.40115e-13,9.99999e-01
4.463888621e-01,7.71741e-13,9.99999e-01,9.99999e-01,9.99619e-01,7.72034e-13,9.99999e-01
4.486208064e-01,1.33901e-12,9.99999e-01,9.99999e-01,9.99762e-01,1.33932e-12,9.99999e-01
4.508639105e-01,2.29806e-12,9.99999e-01,9.99999e-01,9.99888e-01,2.29831e-12,9.99999e-01
4.531182300e-01,3.90195e-12,9.99999e-01,9.99999e-01,9.99955e-01,3.90212e-12,9.99999e-01
4.553838212e-01,6.55598e-12,9.99999e-01,9.99999e-01,9.99969e-01,6.55617e-12,9.99999e-01
4.576607403e-01,1.09029e-11,9.99999e-01,9.99999e-01,9.99985e-01,1.09031e-11,9.99999e-01
4.599490440e-01,1.79507e-11,9.99999e-01,9.99999e-01,9.99989e-01,1.79508e-11,9.99999e-01
4.622487892e-01,2.92646e-11,9.99999e-01,9.99999e-01,9.99997e-01,2.92646e-11,9.99999e-01
4.645600332e-01,4.72505e-11,9.99999e-01,9.99999e-01,9.99992e-01,4.72508e-11,9.99999e-01
4.668828333e-01,7.55643e-11,9.99999e-01,9.99999e-01,9.99888e-01,7.55727e-11,9.99999e-01
4.692172475e-01,1.19726e-10,9.99999e-01,9.99999e-01,9.99761e-01,1.19755e-10,9.99999e-01
4.715633337e-01,1.88020e-10,9.99999e-01,9.99999e-01,9.99843e-01,1.88049e-10,9.99999e-01
4.739211504e-01,2.92626e-10,9.99999e-01,9.99999e-01,9.99850e-01,2.92670e-10,9.99999e-01
4.762907561e-01,4.51499e-10,9.99999e-01,9.99999e-01,9.99922e-01,4.51534e-10,9.99999e-01
4.786722099e-01,6.90669e-10,9.99999e-01,9.99999e-01,9.99967e-01,6.90691e-10,9.99999e-01
4.810655710e-01,1.04767e-09,9.99999e-01,9.99999e-01,9.99990e-01,1.04768e-09,9.99999e-01
4.834708988e-01,1.57603e-09,9.99999e-01,9.99999e-01,9.99909e-01,1.57617e-09,9.99999e-01
4.858882533e-01,2.35179e-09,9.99999e-01,9.99999e-01,9.99830e-01,2.35219e-09,9.99999e-01
4.883176946e-01,3.48214e-09,9.99999e-01,9.99999e-01,9.99858e-01,3.48263e-09,9.99999e-01
4.907592831e-01,5.11587e-09,9.99999e-01,9.99999e-01,9.99871e-01,5.11653e-09,9.99999e-01
4.932130795e-01,7.45941e-09,9.99999e-01,9.99999e-01,9.99908e-01,7.46008e-09,9.99999e-01
4.956791449e-01,1.07958e-08,9.99999e-01,9.99999e-01,9.99951e-01,1.07964e-08,9.99999e-01
4.981575406e-01,1.55073e-08,9.99999e-01,9.99999e-01,9.99760e-01,1.55110e-08,9.99999e-01
5.006483283e-01,2.21119e-08,9.99999e-01,9.99999e-01,9.99381e-01,2.21255e-08,9.99999e-01
5.031515699e-01,3.12418e-08,9.99999e-01,9.99999e-01,9.96859e-01,3.13402e-08,9.99999e-01
5.056673278e-01,4.40149e-08,9.99999e-01,9.99999e-01,9.98338e-01,4.40881e-08,9.99999e-01
5.081956644e-01,6.14757e-08,9.99999e-01,9.99999e-01,9.97904e-01,6.16048e-08,9.99999e-01
5.107366428e-01,8.53930e-08,9.99999e-01,9.99999e-01,9.98583e-01,8.55141e-08,9.99999e-01
5.132903260e-01,1.17841e-07,9.99999e-01,9.99999e-01,9.99189e-01,1.17936e-07,9.99999e-01
5.158567776e-01,1.61566e-07,9.99999e-01,9.99999e-01,9.99657e-01,1.61622e-07,9.99999e-01
5.184360615e-01,2.20084e-07,9.99999e-01,9.99999e-01,9.99862e-01,2.20114e-07,9.99999e-01
5.210282418e-01,2.97938e-07,9.99999e-01,9.99999e-01,9.99948e-01,2.97953e-07,9.99999e-01
5.236333830e-01,4.00830e-07,9.99999e-01,9.99999e-01,9.99794e-01,4.00912e-07,9.99999e-01
5.262515499e-01,5.36228e-07,9.99999e-01,9.99999e-01,9.99871e-01,5.36296e-07,9.99999e-01
5.288828077e-01,7.13204e-07,9.99999e-01,9.99999e-01,9.99882e-01,7.13288e-07,9.99999e-01
5.315272217e-01,9.43263e-07,9.99999e-01,9.99999e-01,9.99895e-01,9.43361e-07,9.99999e-01
5.341848578e-01,1.24069e-06,9.99999e-01,9.99999e-01,9.99932e-01,1.24077e-06,9.99999e-01
5.368557821e-01,1.62276e-06,9.99999e-01,9.99999e-01,9.99761e-01,1.62314e-06,9.99999e-01
5.395400610e-01,2.11030e-06,9.99999e-01,9.99999e-01,9.99142e-01,2.11211e-06,9.99999e-01
5.422377613e-01,2.73107e-06,9.99999e-01,9.99999e-01,9.98884e-01,2.73412e-06,9.99999e-01
5.449489501e-01,3.51767e-06,9.99999e-01,9.99999e-01,9.98965e-01,3.52131e-06,9.99999e-01
5.476736949e-01,4.50839e-06,9.99999e-01,9.99999e-01,9.99080e-01,4.51254e-06,9.99999e-01
5.504120634e-01,5.75068e-06,9.99999e-01,9.99999e-01,9.99332e-01,5.75452e-06,9.99999e-01
5.531641237e-01,7.30073e-06,9.99999e-01,9.99999e-01,9.99664e-01,7.30318e-06,9.99999e-01
5.559299443e-01,9.22359e-06,9.99999e-01,9.99999e-01,9.99837e-01,9.22508e-06,9.99999e-01
5.587095940e-01,1.15979e-05,9.99999e-01,9.99999e-01,9.99898e-01,1.15991e-05,9.99999e-01
5.615031420e-01,1.45166e-05,9.99999e-01,9.99999e-01,9.99886e-01,1.45183e-05,9.99999e-01
5.643106577e-01,1.80894e-05,9.99999e-01,9.99999e-01,9.99872e-01,1.80917e-05,9.99999e-01
5.671322110e-01,2.24122e-05,9.99999e-01,9.99999e-01,9.98457e-01,2.24468e-05,9.99999e-01
5.699678720e-01,2.76860e-05,9.99999e-01,9.99999e-01,9.98339e-01,2.77320e-05,9.99999e-01
5.728177114e-01,3.40601e-05,9.99999e-01,9.99999e-01,9.98278e-01,3.41188e-05,9.99999e-01
5.756818000e-01,4.17389e-05,9.99999e-01,9.99999e-01,9.98418e-01,4.18050e-05,9.99999e-01
5.785602090e-01,5.09472e-05,9.99999e-01,9.99999e-01,9.98620e-01,5.10176e-05,9.99999e-01
5.814530100e-01,6.19300e-05,9.99999e-01,9.99999e-01,9.98615e-01,6.20159e-05,9.99999e-01
5.843602750e-01,7.49716e-05,9.99999e-01,9.99999e-01,9.98356e-01,7.50951e-05,9.99999e-01
5.872820764e-01,8.93148e-05,9.99999e-01,9.99999e-01,9.85927e-01,9.05896e-05,9.99999e-01
5.902184868e-01,1.07013e-04,9.99999e-01,9.99999e-01,9.82878e-01,1.08877e-04,9.99999e-01
5.931695792e-01,1.28805e-04,9.99999e-01,9.99999e-01,9.87905e-01,1.30382e-04,9.99999e-01
5.961354271e-01,1.53514e-04,9.99999e-01,9.99999e-01,9.86726e-01,1.55579e-04,9.99999e-01
5.991161043e-01,1.83203e-04,9.99999e-01,9.99999e-01,9.90293e-01,1.84999e-04,9.99999e-01
6.021116848e-01,2.18020e-04,9.99999e-01,9.99999e-01,9.94478e-01,2.19231e-04,9.99999e-01
6.051222432e-01,2.58203e-04,9.99999e-01,9.99999e-01,9.97201e-01,2.58927e-04,9.99999e-01
6.081478544e-01,3.04440e-04,9.99999e-01,9.99999e-01,9.98792e-01,3.04808e-04,9.99999e-01
6.111885937e-01,3.57481e-04,9.99999e-01,9.99999e-01,9.99488e-01,3.57664e-04,9.99999e-01
6.142445367e-01,4.18267e-04,9.99999e-01,9.99999e-01,9.99771e-01,4.18363e-04,9.99999e-01
6.173157594e-01,4.87788e-04,9.99999e-01,9.99999e-01,9.99873e-01,4.87849e-04,9.99999e-01
6.204023382e-01,5.67093e-04,9.99999e-01,9.99999e-01,9.99893e-01,5.67153e-04,9.99999e-01
6.235043498e-01,6.57084e-04,9.99999e-01,9.99999e-01,9.99534e-01,6.57389e-04,9.99999e-01
6.266218716e-01,7.57882e-04,9.99999e-01,9.99999e-01,9.97523e-01,7.59764e-04,9.99999e-01
6.297549810e-01,8.74778e-04,9.99999e-01,9.99999e-01,9.99091e-01,8.75574e-04,9.99999e-01
6.329037559e-01,1.00440e-03,9.99999e-01,9.99999e-01,9.98201e-01,1.00621e-03,9.99999e-01
6.360682746e-01,1.15141e-03,9.99999e-01,9.99999e-01,9.98471e-01,1.15317e-03,9.99999e-01
6.392486160e-01,1.31543e-03,9.99999e-01,9.99999e-01,9.98017e-01,1.31804e-03,9.99999e-01
6.424448591e-01,1.49854e-03,9.99999e-01,9.99999e-01,9.97357e-01,1.50251e-03,9.99999e-01
6.456570834e-01,1.68751e-03,9.99999e-01,9.99999e-01,9.87787e-01,1.70837e-03,9.99999e-01
6.488853688e-01,1.92010e-03,9.99999e-01,9.99999e-01,9.91008e-01,1.93752e-03,9.99999e-01
6.521297956e-01,2.17186e-03,9.99999e-01,9.99999e-01,9.90837e-01,2.19194e-03,9.99999e-01
6.553904446e-01,2.45130e-03,9.99999e-01,9.99999e-01,9.90926e-01,2.47374e-03,9.99999e-01
6.586673968e-01,2.76333e-03,9.99999e-01,9.99999e-01,9.92178e-01,2.78511e-03,9.99999e-01
6.619607338e-01,3.11416e-03,9.99999e-01,9.99999e-01,9.95469e-01,3.12833e-03,9.99999e-01
6.652705375e-01,3.49659e-03,9.99999e-01,9.99999e-01,9.97372e-01,3.50580e-03,9.99999e-01
6.685968902e-01,3.91519e-03,9.99999e-01,9.99999e-01,9.98778e-01,3.91998e-03,9.99999e-01
6.719398746e-01,4.37095e-03,9.99999e-01,9.99999e-01,9.99433e-01,4.37343e-03,9.99999e-01
6.752995740e-01,4.86731e-03,9.99999e-01,9.99999e-01,9.99693e-01,4.86880e-03,9.99999e-01
6.786760719e-01,5.40641e-03,9.99999e-01,9.99999e-01,9.99558e-01,5.40880e-03,9.99999e-01
6.820694522e-01,5.99169e-03,9.99999e-01,9.99999e-01,9.99244e-01,5.99622e-03,9.99999e-01
6.854797995e-01,6.62746e-03,9.99999e-01,9.99999e-01,9.99025e-01,6.63392e-03,9.99999e-01
6.889071985e-01,7.30764e-03,9.99999e-01,9.99999e-01,9.97658e-01,7.32480e-03,9.99999e-01
6.923517345e-01,7.76760e-03,9.99999e-01,9.99999e-01,9.62311e-01,8.07181e-03,9.99999e-01
6.958134932e-01,8.70109e-03,9.99999e-01,9.99999e-01,9.80076e-01,8.87797e-03,9.99999e-01
6.992925606e-01,9.56284e-03,9.99999e-01,9.99999e-01,9.81177e-01,9.74629e-03,9.99998e-01
7.027890234e-01,1.04313e-02,9.99999e-01,9.99999e-01,9.76726e-01,1.06798e-02,9.99999e-01
7.063029686e-01,1.14526e-02,9.99999e-01,9.99999e-01,9.80390e-01,1.16817e-02,9.99999e-01
7.098344834e-01,1.25147e-02,9.99999e-01,9.99999e-01,9.81171e-01,1.27549e-02,9.99998e-01
7.133836558e-01,1.35574e-02,9.99999e-01,9.99999e-01,9.75170e-01,1.39026e-02,9.99998e-01
7.169505741e-01,1.23915e-02,9.99999e-01,9.99999e-01,8.19127e-01,1.51277e-02,9.99997e-01
7.205353270e-01,1.48856e-02,9.99999e-01,9.99999e-01,9.05819e-01,1.64334e-02,9.99996e-01
7.241380036e-01,1.57256e-02,9.99999e-01,9.99999e-01,8.82343e-01,1.78226e-02,9.99996e-01
7.277586936e-01,1.72370e-02,9.99999e-01,9.99999e-01,8.93189e-01,1.92983e-02,9.99997e-01
7.313974871e-01,1.84859e-02,9.99999e-01,9.99999e-01,8.86048e-01,2.08633e-02,9.99997e-01
7.350544745e-01,2.10781e-02,9.99999e-01,9.99999e-01,9.35946e-01,2.25206e-02,9.99998e-01
7.387297469e-01,2.31160e-02,9.99999e-01,9.99999e-01,9.52340e-01,2.42729e-02,9.99999e-01
7.424233956e-01,2.55049e-02,9.99999e-01,9.99999e-01,9.76347e-01,2.61227e-02,9.99999e-01
7.461355126e-01,2.76687e-02,9.99999e-01,9.99999e-01,9.85604e-01,2.80728e-02,9.99999e-01
7.498661902e-01,2.99228e-02,9.99999e-01,9.99999e-01,9.93264e-01,3.01257e-02,9.99999e-01
7.536155211e-01,3.21769e-02,9.99999e-01,9.99999e-01,9.96694e-01,3.22836e-02,9.99999e-01
7.573835987e-01,3.44900e-02,9.99999e-01,9.99999e-01,9.98296e-01,3.45488e-02,9.99999e-01
7.611705167e-01,3.68844e-02,9.99999e-01,9.99999e-01,9.98941e-01,3.69234e-02,9.99999e-01
7.649763693e-01,3.93834e-02,9.99999e-01,9.99999e-01,9.99336e-01,3.94096e-02,9.99999e-01
7.688012511e-01,4.19896e-02,9.99999e-01,9.99999e-01,9.99538e-01,4.20090e-02,9.99999e-01
7.726452574e-01,4.47064e-02,9.99999e-01,9.99999e-01,9.99620e-01,4.47233e-02,9.99999e-01
7.765084837e-01,4.75287e-02,9.99999e-01,9.99999e-01,9.99462e-01,4.75543e-02,9.99999e-01
7.803910261e-01,4.50835e-02,9.99999e-01,8.94563e-01,9.97679e-01,5.05031e-02,9.99999e-01
7.842929812e-01,2.96688e-02,9.99999e-01,5.57655e-01,9.91926e-01,5.35712e-02,9.99999e-01
7.882144461e-01,3.03559e-02,9.99999e-01,5.42736e-01,9.83372e-01,5.67594e-02,9.99999e-01
7.921555184e-01,4.05798e-02,9.99999e-01,6.81282e-01,9.90833e-01,6.00688e-02,9.99999e-01
7.961162960e-01,4.81083e-02,9.99999e-01,7.69532e-01,9.83932e-01,6.34999e-02,9.99999e-01
8.000968774e-01,5.70917e-02,9.99999e-01,8.67388e-01,9.81396e-01,6.70535e-02,9.99999e-01
8.040973618e-01,6.44709e-02,9.99999e-01,9.28638e-01,9.81407e-01,7.07298e-02,9.99999e-01
8.081178486e-01,6.90875e-02,9.99999e-01,9.66591e-01,9.58796e-01,7.45291e-02,9.99998e-01
8.121584379e-01,6.52525e-02,9.99999e-01,9.89525e-01,8.40212e-01,7.84513e-02,9.99997e-01
8.162192301e-01,6.69288e-02,9.99999e-01,9.97676e-01,8.13048e-01,8.24963e-02,9.99996e-01
8.203003262e-01,7.84025e-02,9.99999e-01,9.99963e-01,9.04698e-01,8.66638e-02,9.99996e-01
8.244018279e-01,7.90920e-02,9.99999e-01,9.99999e-01,8.69592e-01,9.09532e-02,9.99996e-01
8.285238370e-01,8.42466e-02,9.99999e-01,9.99999e-01,8.83424e-01,9.53639e-02,9.99997e-01
8.326664562e-01,8.81342e-02,9.99999e-01,9.99999e-01,8.82270e-01,9.98950e-02,9.99997e-01
8.368297885e-01,9.55359e-02,9.99999e-01,9.99999e-01,9.13822e-01,1.04545e-01,9.99998e-01
8.410139374e-01,1.03605e-01,9.99999e-01,9.99999e-01,9.47772e-01,1.09314e-01,9.99999e-01
8.452190071e-01,1.11230e-01,9.99999e-01,9.99999e-01,9.73998e-01,1.14200e-01,9.99999e-01
8.494451021e-01,1.17394e-01,9.99999e-01,9.99999e-01,9.84848e-01,1.19201e-01,9.99999e-01
8.536923276e-01,1.23197e-01,9.99999e-01,9.99999e-01,9.91001e-01,1.24315e-01,9.99999e-01
8.579607893e-01,1.28824e-01,9.99999e-01,9.99999e-01,9.94456e-01,1.29542e-01,9.99999e-01
8.622505932e-01,1.34402e-01,9.99999e-01,9.99999e-01,9.96471e-01,1.34878e-01,9.99999e-01
8.665618462e-01,1.19661e-01,9.99999e-01,8.54487e-01,9.97819e-01,1.40322e-01,9.99999e-01
8.708946554e-01,3.53398e-02,9.99999e-01,2.42807e-01,9.97505e-01,1.45873e-01,9.99999e-01
8.752491287e-01,4.54939e-02,9.99999e-01,3.01158e-01,9.96663e-01,1.51526e-01,9.99999e-01
8.796253743e-01,7.93368e-02,9.99999e-01,5.06530e-01,9.95388e-01,1.57280e-01,9.99999e-01
8.840235012e-01,1.13018e-01,9.99999e-01,6.96252e-01,9.94732e-01,1.63133e-01,9.99999e-01
8.884436187e-01,1.43693e-01,9.99999e-01,8.65546e-01,9.81139e-01,1.69082e-01,9.99998e-01
8.928858368e-01,1.35623e-01,9.99999e-01,9.43017e-01,8.19551e-01,1.75123e-01,9.99996e-01
8.973502660e-01,1.25894e-01,9.99999e-01,9.85806e-01,7.03781e-01,1.81255e-01,9.99995e-01
9.018370173e-01,1.56404e-01,9.99999e-01,9.98424e-01,8.35441e-01,1.87474e-01,9.99994e-01
9.063462024e-01,1.59911e-01,9.99999e-01,9.61914e-01,8.53865e-01,1.93777e-01,9.99993e-01
9.108779334e-01,1.43242e-01,9.99999e-01,9.11926e-01,7.81452e-01,2.00161e-01,9.99992e-01
9.154323231e-01,1.52811e-01,9.99999e-01,9.78484e-01,7.54498e-01,2.06623e-01,9.99992e-01
9.200094847e-01,1.36926e-01,9.99999e-01,7.73274e-01,8.02602e-01,2.13160e-01,9.99990e-01
9.246095321e-01,1.03585e-01,9.99999e-01,6.39558e-01,7.20803e-01,2.19768e-01,9.99983e-01
9.292325798e-01,2.35751e-02,9.99999e-01,7.11574e-01,1.34729e-01,2.26445e-01,9.99966e-01
9.338787427e-01,1.29350e-02,9.99999e-01,7.14904e-01,7.18485e-02,2.33187e-01,9.99956e-01
9.385481364e-01,6.64509e-02,9.99999e-01,7.79164e-01,3.41488e-01,2.39990e-01,9.99955e-01
9.432408771e-01,5.23142e-02,9.99999e-01,8.57067e-01,2.41675e-01,2.46852e-01,9.99949e-01
9.479570815e-01,3.24748e-02,9.99999e-01,9.23879e-01,1.36929e-01,2.53768e-01,9.99956e-01
9.526968669e-01,5.37344e-02,9.99999e-01,9.62566e-01,2.12344e-01,2.60736e-01,9.99966e-01
9.574603512e-01,5.99758e-02,9.99999e-01,9.83790e-01,2.26917e-01,2.67752e-01,9.99975e-01
9.622476530e-01,7.96047e-02,9.99999e-01,9.94911e-01,2.90855e-01,2.74812e-01,9.99983e-01
9.670588912e-01,1.36951e-01,9.99999e-01,9.98471e-01,4.86401e-01,2.81914e-01,9.99989e-01
9.718941857e-01,1.81278e-01,9.99999e-01,9.99890e-01,6.27198e-01,2.89053e-01,9.99993e-01
9.767536566e-01,2.00955e-01,9.99999e-01,9.99999e-01,6.78385e-01,2.96227e-01,9.99995e-01
9.816374249e-01,2.27075e-01,9.99999e-01,9.99999e-01,7.48358e-01,3.03432e-01,9.99996e-01
9.865456120e-01,2.58991e-01,9.99999e-01,9.99999e-01,8.33667e-01,3.10665e-01,9.99998e-01
9.914783401e-01,2.84016e-01,9.99999e-01,9.99999e-01,8.93352e-01,3.17922e-01,9.99999e-01
9.964357318e-01,3.05820e-01,9.99999e-01,9.99999e-01,9.40405e-01,3.25200e-01,9.99999e-01
1.001417910e+00,3.20465e-01,9.99999e-01,9.99999e-01,9.63813e-01,3.32497e-01,9.99999e-01
1.006425000e+00,3.32746e-01,9.99999e-01,9.99999e-01,9.79218e-01,3.39808e-01,9.99999e-01
1.011457125e+00,3.42631e-01,9.99999e-01,9.99999e-01,9.87039e-01,3.47130e-01,9.99999e-01
1.016514411e+00,3.51338e-01,9.99999e-01,9.99999e-01,9.91187e-01,3.54461e-01,9.99999e-01
1.021596983e+00,3.59184e-01,9.99999e-01,9.99797e-01,9.92974e-01,3.61798e-01,9.99999e-01
1.026704968e+00,3.61508e-01,9.99999e-01,9.84703e-01,9.94518e-01,3.69137e-01,9.99999e-01
1.031838492e+00,3.33091e-01,9.99999e-01,8.88090e-01,9.96009e-01,3.76475e-01,9.99999e-01
1.036997685e+00,1.39564e-02,9.99999e-01,3.64275e-02,9.97630e-01,3.83810e-01,9.99999e-01
1.042182673e+00,3.52791e-04,9.99999e-01,9.03828e-04,9.97179e-01,3.91139e-01,9.99999e-01
1.047393587e+00,1.04373e-03,9.99999e-01,2.62744e-03,9.96258e-01,3.98459e-01,9.99999e-01
1.052630555e+00,1.15303e-08,9.99999e-01,2.85065e-08,9.94871e-01,4.05767e-01,9.99999e-01
1.057893707e+00,4.28531e-08,9.99999e-01,1.04177e-07,9.91458e-01,4.13061e-01,9.99999e-01
1.063183176e+00,3.33041e-06,9.99999e-01,7.98430e-06,9.85979e-01,4.20339e-01,9.99999e-01
1.068499092e+00,5.19587e-05,9.99999e-01,1.23237e-04,9.76626e-01,4.27597e-01,9.99999e-01
1.073841587e+00,1.20889e-03,9.99999e-01,2.83242e-03,9.72759e-01,4.34833e-01,9.99999e-01
1.079210795e+00,1.10770e-02,9.99999e-01,2.57293e-02,9.65147e-01,4.42045e-01,9.99998e-01
1.084606849e+00,5.22960e-02,9.99999e-01,1.21827e-01,9.47815e-01,4.49230e-01,9.99997e-01
1.090029883e+00,1.40895e-01,9.99999e-01,3.30712e-01,9.26245e-01,4.56387e-01,9.99996e-01
1.095480033e+00,2.19235e-01,9.99999e-01,5.77604e-01,8.11674e-01,4.63514e-01,9.99994e-01
1.100957433e+00,2.16131e-01,9.99999e-01,7.66010e-01,5.93073e-01,4.70607e-01,9.99990e-01
1.106462220e+00,1.22390e-01,9.99999e-01,8.95316e-01,2.82473e-01,4.77666e-01,9.99979e-01
1.111994531e+00,3.53904e-02,9.99999e-01,9.59763e-01,7.54205e-02,4.84688e-01,9.99959e-01
1.117554504e+00,8.89022e-03,9.99999e-01,9.90006e-01,1.81787e-02,4.91672e-01,9.99943e-01
1.123142276e+00,3.27824e-02,9.99999e-01,9.99339e-01,6.57552e-02,4.98615e-01,9.99932e-01
1.128757988e+00,7.35822e-02,9.99999e-01,9.99999e-01,1.45569e-01,5.05517e-01,9.99926e-01
1.134401778e+00,3.29614e-02,9.99999e-01,9.99999e-01,6.43358e-02,5.12374e-01,9.99918e-01
1.140073787e+00,1.54452e-01,9.99999e-01,9.99999e-01,2.97507e-01,5.19187e-01,9.99933e-01
1.145774156e+00,5.14199e-02,9.99999e-01,9.99999e-01,9.77706e-02,5.25953e-01,9.99943e-01
1.151503026e+00,4.05598e-02,9.99999e-01,9.99999e-01,7.61478e-02,5.32671e-01,9.99951e-01
1.157260541e+00,5.20692e-02,9.99999e-01,9.99999e-01,9.65460e-02,5.39339e-01,9.99963e-01
1.163046844e+00,9.50368e-02,9.99999e-01,9.99999e-01,1.74078e-01,5.45957e-01,9.99976e-01
1.168862078e+00,1.56754e-01,9.99999e-01,9.99999e-01,2.83709e-01,5.52523e-01,9.99987e-01
1.174706389e+00,2.56001e-01,9.99999e-01,9.99999e-01,4.57935e-01,5.59035e-01,9.99993e-01
1.180579921e+00,3.50092e-01,9.99999e-01,9.99999e-01,6.19093e-01,5.65494e-01,9.99995e-01
1.186482820e+00,4.35048e-01,9.99999e-01,9.99974e-01,7.60725e-01,5.71897e-01,9.99996e-01
1.192415234e+00,4.68668e-01,9.99999e-01,9.49059e-01,8.52012e-01,5.78245e-01,9.99996e-01
1.198377311e+00,2.60758e-01,9.99999e-01,4.98973e-01,8.73906e-01,5.84535e-01,9.99997e-01
1.204369197e+00,8.75539e-40,9.99999e-01,1.59567e-39,8.80691e-01,5.90768e-01,9.99997e-01
1.210391043e+00,2.10953e-163,9.99999e-01,3.78222e-163,8.85300e-01,5.96941e-01,9.99997e-01
1.216442998e+00,2.69698e-141,9.99999e-01,4.76946e-141,9.01472e-01,6.03056e-01,9.99998e-01
1.222525213e+00,3.74399e-139,9.99999e-01,6.40833e-139,9.22275e-01,6.09111e-01,9.99998e-01
1.228637839e+00,3.49025e-107,9.99999e-01,5.89260e-107,9.45351e-01,6.15104e-01,9.99999e-01
