#,Wave/freq,Total,O2,CO2,H2O,Rayleigh,CIA
4.000000000e-01,2.12991e-07,9.99999e-01,9.99999e-01,9.99969e-01,2.12997e-07,9.99999e-01
4.020000000e-01,2.88592e-07,9.99999e-01,9.99999e-01,9.99980e-01,2.88598e-07,9.99999e-01
4.040100000e-01,3.88566e-07,9.99999e-01,9.99999e-01,9.99991e-01,3.88569e-07,9.99999e-01
4.060300500e-01,5.20105e-07,9.99999e-01,9.99999e-01,9.99997e-01,5.20106e-07,9.99999e-01
4.080602003e-01,6.92173e-07,9.99999e-01,9.99999e-01,9.99998e-01,6.92173e-07,9.99999e-01
4.101005013e-01,9.15979e-07,9.99999e-01,9.99999e-01,9.99999e-01,9.15979e-07,9.99999e-01
4.121510038e-01,1.20546e-06,9.99999e-01,9.99999e-01,9.99998e-01,1.20546e-06,9.99999e-01
4.142117588e-01,1.57784e-06,9.99999e-01,9.99999e-01,9.99991e-01,1.57785e-06,9.99999e-01
4.162828176e-01,2.05424e-06,9.99999e-01,9.99999e-01,9.99962e-01,2.05432e-06,9.99999e-01
4.183642317e-01,2.66071e-06,9.99999e-01,9.99999e-01,9.99977e-01,2.66077e-06,9.99999e-01
4.204560528e-01,3.42863e-06,9.99999e-01,9.99999e-01,9.99985e-01,3.42868e-06,9.99999e-01
4.225583331e-01,4.39612e-06,9.99999e-01,9.99999e-01,9.99994e-01,4.39614e-06,9.99999e-01
4.246711247e-01,5.60896e-06,9.99999e-01,9.99999e-01,9.99995e-01,5.60898e-06,9.99999e-01
4.267944804e-01,7.12203e-06,9.99999e-01,9.99999e-01,9.99993e-01,7.12208e-06,9.99999e-01
4.289284528e-01,9.00074e-06,9.99999e-01,9.99999e-01,9.99994e-01,9.00079e-06,9.99999e-01
4.310730950e-01,1.13226e-05,9.99999e-01,9.99999e-01,9.99997e-01,1.13226e-05,9.99999e-01
4.332284605e-01,1.41789e-05,9.99999e-01,9.99999e-01,9.99998e-01,1.41789e-05,9.99999e-01
4.353946028e-01,1.76770e-05,9.99999e-01,9.99999e-01,9.99999e-01,1.76770e-05,9.99999e-01
4.375715758e-01,2.19424e-05,9.99999e-01,9.99999e-01,9.99995e-01,2.19425e-05,9.99999e-01
4.397594337e-01,2.71202e-05,9.99999e-01,9.99999e-01,9.99967e-01,2.71210e-05,9.99999e-01
4.419582309e-01,3.33763e-05,9.99999e-01,9.99999e-01,9.99835e-01,3.33818e-05,9.99999e-01
4.441680220e-01,4.09143e-05,9.99999e-01,9.99999e-01,9.99869e-01,4.09196e-05,9.99999e-01
4.463888621e-01,4.99515e-05,9.99999e-01,9.99999e-01,9.99864e-01,4.99582e-05,9.99999e-01
4.486208064e-01,6.07482e-05,9.99999e-01,9.99999e-01,9.99915e-01,6.07533e-05,9.99999e-01
4.508639105e-01,7.35932e-05,9.99999e-01,9.99999e-01,9.99960e-01,7.35961e-05,9.99999e-01
4.531182300e-01,8.88153e-05,9.99999e-01,9.99999e-01,9.99983e-01,8.88167e-05,9.99999e-01
4.553838212e-01,1.06787e-04,9.99999e-01,9.99999e-01,9.99988e-01,1.06788e-04,9.99999e-01
4.576607403e-01,1.27928e-04,9.99999e-01,9.99999e-01,9.99994e-01,1.27929e-04,9.99999e-01
4.599490440e-01,1.52709e-04,9.99999e-01,9.99999e-01,9.99996e-01,1.52709e-04,9.99999e-01
4.622487892e-01,1.81653e-04,9.99999e-01,9.99999e-01,9.99998e-01,1.81653e-04,9.99999e-01
4.645600332e-01,2.15344e-04,9.99999e-01,9.99999e-01,9.99997e-01,2.15344e-04,9.99999e-01
4.668828333e-01,2.54417e-04,9.99999e-01,9.99999e-01,9.99960e-01,2.54427e-04,9.99999e-01
4.692172475e-01,2.99588e-04,9.99999e-01,9.99999e-01,9.99914e-01,2.99614e-04,9.99999e-01
4.715633337e-01,3.51669e-04,9.99999e-01,9.99999e-01,9.99944e-01,3.51689e-04,9.99999e-01
4.739211504e-01,4.11488e-04,9.99999e-01,9.99999e-01,9.99946e-01,4.11510e-04,9.99999e-01
4.762907561e-01,4.80002e-04,9.99999e-01,9.99999e-01,9.99971e-01,4.80015e-04,9.99999e-01
4.786722099e-01,5.58217e-04,9.99999e-01,9.99999e-01,9.99988e-01,5.58223e-04,9.99999e-01
4.810655710e-01,6.47240e-04,9.99999e-01,9.99999e-01,9.99996e-01,6.47242e-04,9.99999e-01
4.834708988e-01,7.48242e-04,9.99999e-01,9.99999e-01,9.99967e-01,7.48266e-04,9.99999e-01
4.858882533e-01,8.62532e-04,9.99999e-01,9.99999e-01,9.99939e-01,8.62583e-04,9.99999e-01
4.883176946e-01,9.91528e-04,9.99999e-01,9.99999e-01,9.99949e-01,9.91577e-04,9.99999e-01
4.907592831e-01,1.13668e-03,9.99999e-01,9.99999e-01,9.99954e-01,1.13673e-03,9.99999e-01
4.932130795e-01,1.29957e-03,9.99999e-01,9.99999e-01,9.99967e-01,1.29961e-03,9.99999e-01
4.956791449e-01,1.48189e-03,9.99999e-01,9.99999e-01,9.99982e-01,1.48192e-03,9.99999e-01
4.981575406e-01,1.68527e-03,9.99999e-01,9.99999e-01,9.99914e-01,1.68542e-03,9.99999e-01
5.006483283e-01,1.91158e-03,9.99999e-01,9.99999e-01,9.99780e-01,1.91199e-03,9.99999e-01
5.031515699e-01,2.16122e-03,9.99999e-01,9.99999e-01,9.98883e-01,2.16363e-03,9.99999e-01
5.056673278e-01,2.44098e-03,9.99999e-01,9.99999e-01,9.99409e-01,2.44242e-03,9.99999e-01
5.081956644e-01,2.74849e-03,9.99999e-01,9.99999e-01,9.99254e-01,2.75054e-03,9.99999e-01
5.107366428e-01,3.08871e-03,9.99999e-01,9.99999e-01,9.99496e-01,3.09026e-03,9.99999e-01
5.132903260e-01,3.46297e-03,9.99999e-01,9.99999e-01,9.99711e-01,3.46397e-03,9.99999e-01
5.158567776e-01,3.87365e-03,9.99999e-01,9.99999e-01,9.99877e-01,3.87413e-03,9.99999e-01
5.184360615e-01,4.32307e-03,9.99999e-01,9.99999e-01,9.99950e-01,4.32328e-03,9.99999e-01
5.210282418e-01,4.81398e-03,9.99999e-01,9.99999e-01,9.99981e-01,4.81406e-03,9.99999e-01
5.236333830e-01,5.34880e-03,9.99999e-01,9.99999e-01,9.99926e-01,5.34919e-03,9.99999e-01
5.262515499e-01,5.93117e-03,9.99999e-01,9.99999e-01,9.99953e-01,5.93144e-03,9.99999e-01
5.288828077e-01,6.56338e-03,9.99999e-01,9.99999e-01,9.99957e-01,6.56365e-03,9.99999e-01
5.315272217e-01,7.24847e-03,9.99999e-01,9.99999e-01,9.99962e-01,7.24874e-03,9.99999e-01
5.341848578e-01,7.98945e-03,9.99999e-01,9.99999e-01,9.99975e-01,7.98964e-03,9.99999e-01
5.368557821e-01,8.78863e-03,9.99999e-01,9.99999e-01,9.99915e-01,8.78937e-03,9.99999e-01
5.395400610e-01,9.64801e-03,9.99999e-01,9.99999e-01,9.99695e-01,9.65094e-03,9.99999e-01
5.422377613e-01,1.05732e-02,9.99999e-01,9.99999e-01,9.99603e-01,1.05774e-02,9.99999e-01
5.449489501e-01,1.15676e-02,9.99999e-01,9.99999e-01,9.99632e-01,1.15718e-02,9.99999e-01
5.476736949e-01,1.26332e-02,9.99999e-01,9.99999e-01,9.99672e-01,1.26373e-02,9.99999e-01
5.504120634e-01,1.37737e-02,9.99999e-01,9.99999e-01,9.99762e-01,1.37769e-02,9.99999e-01
5.531641237e-01,1.49919e-02,9.99999e-01,9.99999e-01,9.99880e-01,1.49937e-02,9.99999e-01
5.559299443e-01,1.62897e-02,9.99999e-01,9.99999e-01,9.99941e-01,1.62907e-02,9.99999e-01
5.587095940e-01,1.76702e-02,9.99999e-01,9.99999e-01,9.99963e-01,1.76709e-02,9.99999e-01
5.615031420e-01,1.91364e-02,9.99999e-01,9.99999e-01,9.99959e-01,1.91372e-02,9.99999e-01
5.643106577e-01,2.06917e-02,9.99999e-01,9.99999e-01,9.99954e-01,2.06926e-02,9.99999e-01
5.671322110e-01,2.23278e-02,9.99999e-01,9.99999e-01,9.99453e-01,2.23400e-02,9.99999e-01
5.699678720e-01,2.40678e-02,9.99999e-01,9.99999e-01,9.99408e-01,2.40820e-02,9.99999e-01
5.728177114e-01,2.59055e-02,9.99999e-01,9.99999e-01,9.99388e-01,2.59214e-02,9.99999e-01
5.756818000e-01,2.78451e-02,9.99999e-01,9.99999e-01,9.99437e-01,2.78607e-02,9.99999e-01
5.785602090e-01,2.98878e-02,9.99999e-01,9.99999e-01,9.99509e-01,2.99025e-02,9.99999e-01
5.814530100e-01,3.20333e-02,9.99999e-01,9.99999e-01,9.99507e-01,3.20491e-02,9.99999e-01
5.843602750e-01,3.42828e-02,9.99999e-01,9.99999e-01,9.99416e-01,3.43028e-02,9.99999e-01
5.872820764e-01,3.64815e-02,9.99999e-01,9.99999e-01,9.94975e-01,3.66657e-02,9.99999e-01
5.902184868e-01,3.89004e-02,9.99999e-01,9.99999e-01,9.93879e-01,3.91399e-02,9.99999e-01
5.931695792e-01,4.15470e-02,9.99999e-01,9.99999e-01,9.95681e-01,4.17272e-02,9.99999e-01
5.961354271e-01,4.42187e-02,9.99999e-01,9.99999e-01,9.95260e-01,4.44293e-02,9.99999e-01
5.991161043e-01,4.70842e-02,9.99999e-01,9.99999e-01,9.96538e-01,4.72478e-02,9.99999e-01
6.021116848e-01,5.00853e-02,9.99999e-01,9.99999e-01,9.98033e-01,5.01840e-02,9.99999e-01
6.051222432e-01,5.31863e-02,9.99999e-01,9.99999e-01,9.99004e-01,5.32393e-02,9.99999e-01
6.081478544e-01,5.63905e-02,9.99999e-01,9.99999e-01,9.99570e-01,5.64147e-02,9.99999e-01
6.111885937e-01,5.97003e-02,9.99999e-01,9.99999e-01,9.99817e-01,5.97112e-02,9.99999e-01
6.142445367e-01,6.31243e-02,9.99999e-01,9.99999e-01,9.99918e-01,6.31294e-02,9.99999e-01
6.173157594e-01,6.66669e-02,9.99999e-01,9.99999e-01,9.99954e-01,6.66699e-02,9.99999e-01
6.204023382e-01,7.03305e-02,9.99999e-01,9.99999e-01,9.99961e-01,7.03332e-02,9.99999e-01
6.235043498e-01,7.41072e-02,9.99999e-01,9.99999e-01,9.99834e-01,7.41194e-02,9.99999e-01
6.266218716e-01,7.79598e-02,9.99999e-01,9.99999e-01,9.99119e-01,7.80285e-02,9.99999e-01
6.297549810e-01,8.20340e-02,9.99999e-01,9.99999e-01,9.99676e-01,8.20605e-02,9.99999e-01
6.329037559e-01,8.61598e-02,9.99999e-01,9.99999e-01,9.99360e-01,8.62149e-02,9.99999e-01
6.360682746e-01,9.04423e-02,9.99999e-01,9.99999e-01,9.99456e-01,9.04914e-02,9.99999e-01
6.392486160e-01,9.48224e-02,9.99999e-01,9.99999e-01,9.99295e-01,9.48892e-02,9.99999e-01
6.424448591e-01,9.93144e-02,9.99999e-01,9.99999e-01,9.99061e-01,9.94076e-02,9.99999e-01
6.456570834e-01,1.03593e-01,9.99999e-01,9.99999e-01,9.95647e-01,1.04045e-01,9.99999e-01
6.488853688e-01,1.08453e-01,9.99999e-01,9.99999e-01,9.96791e-01,1.08802e-01,9.99999e-01
6.521297956e-01,1.13303e-01,9.99999e-01,9.99999e-01,9.96728e-01,1.13675e-01,9.99999e-01
6.553904446e-01,1.18280e-01,9.99999e-01,9.99999e-01,9.96767e-01,1.18663e-01,9.99999e-01
6.586673968e-01,1.23421e-01,9.99999e-01,9.99999e-01,9.97210e-01,1.23766e-01,9.99999e-01
6.619607338e-01,1.28773e-01,9.99999e-01,9.99999e-01,9.98386e-01,1.28981e-01,9.99999e-01
6.652705375e-01,1.34180e-01,9.99999e-01,9.99999e-01,9.99064e-01,1.34306e-01,9.99999e-01
6.685968902e-01,1.39678e-01,9.99999e-01,9.99999e-01,9.99565e-01,1.39739e-01,9.99999e-01
6.719398746e-01,1.45248e-01,9.99999e-01,9.99999e-01,9.99798e-01,1.45278e-01,9.99999e-01
6.752995740e-01,1.50904e-01,9.99999e-01,9.99999e-01,9.99890e-01,1.50920e-01,9.99999e-01
6.786760719e-01,1.56639e-01,9.99999e-01,9.99999e-01,9.99843e-01,1.56664e-01,9.99999e-01
6.820694522e-01,1.62463e-01,9.99999e-01,9.99999e-01,9.99731e-01,1.62506e-01,9.99999e-01
6.854797995e-01,1.68387e-01,9.99999e-01,9.99999e-01,9.99653e-01,1.68445e-01,9.99999e-01
6.889071985e-01,1.74332e-01,9.99999e-01,9.99999e-01,9.99169e-01,1.74477e-01,9.99999e-01
6.923517345e-01,1.78147e-01,9.99999e-01,9.99999e-01,9.86423e-01,1.80599e-01,9.99999e-01
6.958134932e-01,1.85470e-01,9.99999e-01,9.99999e-01,9.92833e-01,1.86808e-01,9.99999e-01
6.992925606e-01,1.91803e-01,9.99999e-01,9.99999e-01,9.93270e-01,1.93103e-01,9.99999e-01
7.027890234e-01,1.97814e-01,9.99999e-01,9.99999e-01,9.91656e-01,1.99478e-01,9.99999e-01
7.063029686e-01,2.04488e-01,9.99999e-01,9.99999e-01,9.92984e-01,2.05932e-01,9.99999e-01
7.098344834e-01,2.11031e-01,9.99999e-01,9.99999e-01,9.93268e-01,2.12461e-01,9.99999e-01
7.133836558e-01,2.17114e-01,9.99999e-01,9.99999e-01,9.91106e-01,2.19062e-01,9.99999e-01
7.169505741e-01,2.10030e-01,9.99999e-01,9.99999e-01,9.30437e-01,2.25732e-01,9.99998e-01
7.205353270e-01,2.24319e-01,9.99999e-01,9.99999e-01,9.64951e-01,2.32467e-01,9.99998e-01
7.241380036e-01,2.28756e-01,9.99999e-01,9.99999e-01,9.56080e-01,2.39264e-01,9.99998e-01
7.277586936e-01,2.36339e-01,9.99999e-01,9.99999e-01,9.60261e-01,2.46119e-01,9.99998e-01
7.313974871e-01,2.42306e-01,9.99999e-01,9.99999e-01,9.57616e-01,2.53030e-01,9.99998e-01
7.350544745e-01,2.53922e-01,9.99999e-01,9.99999e-01,9.76650e-01,2.59993e-01,9.99999e-01
7.387297469e-01,2.62400e-01,9.99999e-01,9.99999e-01,9.82757e-01,2.67004e-01,9.99999e-01
7.424233956e-01,2.71735e-01,9.99999e-01,9.99999e-01,9.91516e-01,2.74059e-01,9.99999e-01
7.461355126e-01,2.79711e-01,9.99999e-01,9.99999e-01,9.94856e-01,2.81157e-01,9.99999e-01
7.498661902e-01,2.87600e-01,9.99999e-01,9.99999e-01,9.97598e-01,2.88293e-01,9.99999e-01
7.536155211e-01,2.95115e-01,9.99999e-01,9.99999e-01,9.98823e-01,2.95463e-01,9.99999e-01
7.573835987e-01,3.02481e-01,9.99999e-01,9.99999e-01,9.99393e-01,3.02665e-01,9.99999e-01
7.611705167e-01,3.09778e-01,9.99999e-01,9.99999e-01,9.99623e-01,3.09895e-01,9.99999e-01
7.649763693e-01,3.17075e-01,9.99999e-01,9.99999e-01,9.99763e-01,3.17149e-01,9.99999e-01
7.688012511e-01,3.24372e-01,9.99999e-01,9.99999e-01,9.99835e-01,3.24426e-01,9.99999e-01
7.726452574e-01,3.31675e-01,9.99999e-01,9.99999e-01,9.99864e-01,3.31720e-01,9.99999e-01
7.765084837e-01,3.38965e-01,9.99999e-01,9.99999e-01,9.99808e-01,3.39030e-01,9.99999e-01
7.803910261e-01,3.30013e-01,9.99999e-01,9.53577e-01,9.99176e-01,3.46351e-01,9.99999e-01
7.842929812e-01,2.82640e-01,9.99999e-01,8.01281e-01,9.97127e-01,3.53682e-01,9.99999e-01
7.882144461e-01,2.83652e-01,9.99999e-01,7.90136e-01,9.94058e-01,3.61018e-01,9.99999e-01
7.921555184e-01,3.19478e-01,9.99999e-01,8.70058e-01,9.96728e-01,3.68357e-01,9.99999e-01
7.961162960e-01,3.40105e-01,9.99999e-01,9.10420e-01,9.94262e-01,3.75695e-01,9.99999e-01
8.000968774e-01,3.61635e-01,9.99999e-01,9.50433e-01,9.93351e-01,3.83031e-01,9.99999e-01
8.040973618e-01,3.77668e-01,9.99999e-01,9.73937e-01,9.93355e-01,3.90360e-01,9.99999e-01
8.081178486e-01,3.87075e-01,9.99999e-01,9.87980e-01,9.85138e-01,3.97681e-01,9.99999e-01
8.121584379e-01,3.79053e-01,9.99999e-01,9.96254e-01,9.39421e-01,4.04991e-01,9.99998e-01
8.162192301e-01,3.82330e-01,9.99999e-01,9.99171e-01,9.28088e-01,4.12287e-01,9.99998e-01
8.203003262e-01,4.04453e-01,9.99999e-01,9.99986e-01,9.63990e-01,4.19566e-01,9.99998e-01
8.244018279e-01,4.05205e-01,9.99999e-01,9.99999e-01,9.49346e-01,4.26826e-01,9.99998e-01
8.285238370e-01,4.15224e-01,9.99999e-01,9.99999e-01,9.56595e-01,4.34065e-01,9.99998e-01
8.326664562e-01,4.21877e-01,9.99999e-01,9.99999e-01,9.56032e-01,4.41279e-01,9.99998e-01
8.368297885e-01,4.34273e-01,9.99999e-01,9.99999e-01,9.68348e-01,4.48468e-01,9.99999e-01
8.410139374e-01,4.47003e-01,9.99999e-01,9.99999e-01,9.81069e-01,4.55628e-01,9.99999e-01
8.452190071e-01,4.58440e-01,9.99999e-01,9.99999e-01,9.90668e-01,4.62758e-01,9.99999e-01
8.494451021e-01,4.67313e-01,9.99999e-01,9.99999e-01,9.94588e-01,4.69855e-01,9.99999e-01
8.536923276e-01,4.75387e-01,9.99999e-01,9.99999e-01,9.96790e-01,4.76918e-01,9.99999e-01
8.579607893e-01,4.82989e-01,9.99999e-01,9.99999e-01,9.98026e-01,4.83944e-01,9.99999e-01
8.622505932e-01,4.90315e-01,9.99999e-01,9.99999e-01,9.98743e-01,4.90932e-01,9.99999e-01
8.665618462e-01,4.52231e-01,9.99999e-01,9.08984e-01,9.99224e-01,4.97879e-01,9.99999e-01
8.708946554e-01,2.89471e-01,9.99999e-01,5.73938e-01,9.99113e-01,5.04785e-01,9.99999e-01
8.752491287e-01,3.25002e-01,9.99999e-01,6.35928e-01,9.98813e-01,5.11648e-01,9.99999e-01
8.796253743e-01,4.02801e-01,9.99999e-01,7.78133e-01,9.98360e-01,5.18465e-01,9.99999e-01
8.840235012e-01,4.60070e-01,9.99999e-01,8.77537e-01,9.98126e-01,5.25236e-01,9.99999e-01
8.884436187e-01,5.01804e-01,9.99999e-01,9.49634e-01,9.93250e-01,5.31959e-01,9.99999e-01
8.928858368e-01,4.91049e-01,9.99999e-01,9.79307e-01,9.30676e-01,5.38633e-01,9.99998e-01
8.973502660e-01,4.77494e-01,9.99999e-01,9.94916e-01,8.80067e-01,5.45256e-01,9.99997e-01
9.018370173e-01,5.16566e-01,9.99999e-01,9.99437e-01,9.36604e-01,5.51827e-01,9.99997e-01
9.063462024e-01,5.20302e-01,9.99999e-01,9.86003e-01,9.44484e-01,5.58346e-01,9.99997e-01
9.108779334e-01,5.00086e-01,9.99999e-01,9.67596e-01,9.14521e-01,5.64810e-01,9.99997e-01
9.154323231e-01,5.12114e-01,9.99999e-01,9.92255e-01,9.03307e-01,5.71219e-01,9.99996e-01
9.200094847e-01,4.81623e-01,9.99999e-01,8.97807e-01,9.23375e-01,5.77573e-01,9.99996e-01
9.246095321e-01,4.41606e-01,9.99999e-01,8.51381e-01,8.84892e-01,5.83869e-01,9.99993e-01
9.292325798e-01,2.35335e-01,9.99999e-01,8.82694e-01,4.44067e-01,5.90108e-01,9.99987e-01
9.338787427e-01,1.87873e-01,9.99999e-01,8.85441e-01,3.49879e-01,5.96288e-01,9.99984e-01
9.385481364e-01,3.62549e-01,9.99999e-01,9.14320e-01,6.53535e-01,6.02409e-01,9.99983e-01
9.432408771e-01,3.23550e-01,9.99999e-01,9.46477e-01,5.59520e-01,6.08470e-01,9.99981e-01
9.479570815e-01,2.70067e-01,9.99999e-01,9.72214e-01,4.51166e-01,6.14470e-01,9.99984e-01
9.526968669e-01,3.34079e-01,9.99999e-01,9.86494e-01,5.44986e-01,6.20410e-01,9.99987e-01
9.574603512e-01,3.53469e-01,9.99999e-01,9.94200e-01,5.67375e-01,6.26287e-01,9.99990e-01
9.622476530e-01,3.96627e-01,9.99999e-01,9.98186e-01,6.28518e-01,6.32103e-01,9.99993e-01
9.670588912e-01,4.87610e-01,9.99999e-01,9.99455e-01,7.64840e-01,6.37856e-01,9.99995e-01
9.718941857e-01,5.43745e-01,9.99999e-01,9.99960e-01,8.44950e-01,6.43546e-01,9.99997e-01
9.767536566e-01,5.64435e-01,9.99999e-01,9.99999e-01,8.69467e-01,6.49174e-01,9.99997e-01
9.816374249e-01,5.90116e-01,9.99999e-01,9.99999e-01,9.01302e-01,6.54738e-01,9.99998e-01
9.865456120e-01,6.18705e-01,9.99999e-01,9.99999e-01,9.37093e-01,6.60238e-01,9.99999e-01
9.914783401e-01,6.39472e-01,9.99999e-01,9.99999e-01,9.60637e-01,6.65674e-01,9.99999e-01
9.964357318e-01,6.56530e-01,9.99999e-01,9.99999e-01,9.78366e-01,6.71047e-01,9.99999e-01
1.001417910e+00,6.67547e-01,9.99999e-01,9.99999e-01,9.86976e-01,6.76355e-01,9.99999e-01
1.006425000e+00,6.76532e-01,9.99999e-01,9.99999e-01,9.92565e-01,6.81599e-01,9.99999e-01
1.011457125e+00,6.83602e-01,9.99999e-01,9.99999e-01,9.95372e-01,6.86780e-01,9.99999e-01
1.016514411e+00,6.89723e-01,9.99999e-01,9.99999e-01,9.96859e-01,6.91896e-01,9.99999e-01
1.021596983e+00,6.95156e-01,9.99999e-01,9.99929e-01,9.97497e-01,6.96948e-01,9.99999e-01
1.026704968e+00,6.96729e-01,9.99999e-01,9.94517e-01,9.98048e-01,7.01936e-01,9.99999e-01
1.031838492e+00,6.66710e-01,9.99999e-01,9.44491e-01,9.98579e-01,7.06860e-01,9.99999e-01
1.036997685e+00,7.64443e-02,9.99999e-01,1.07478e-01,9.99157e-01,7.11721e-01,9.99999e-01
1.042182673e+00,3.45732e-02,9.99999e-01,4.82929e-02,9.98997e-01,7.16517e-01,9.99999e-01
1.047393587e+00,5.22975e-02,9.99999e-01,7.25933e-02,9.98669e-01,7.21251e-01,9.99999e-01
1.052630555e+00,3.60918e-04,9.99999e-01,4.97819e-04,9.98175e-01,7.25921e-01,9.99999e-01
1.057893707e+00,1.09815e-03,9.99999e-01,1.50604e-03,9.96958e-01,7.30529e-01,9.99999e-01
1.063183176e+00,5.85246e-03,9.99999e-01,7.98829e-03,9.94995e-01,7.35073e-01,9.99999e-01
1.068499092e+00,2.35005e-02,9.99999e-01,3.19881e-02,9.91626e-01,7.39556e-01,9.99999e-01
1.073841587e+00,8.28118e-02,9.99999e-01,1.12200e-01,9.90218e-01,7.43976e-01,9.99999e-01
1.079210795e+00,1.85244e-01,9.99999e-01,2.50292e-01,9.87455e-01,7.48335e-01,9.99999e-01
1.084606849e+00,3.42548e-01,9.99999e-01,4.63321e-01,9.81090e-01,7.52633e-01,9.99998e-01
1.090029883e+00,4.94109e-01,9.99999e-01,6.70192e-01,9.73041e-01,7.56869e-01,9.99998e-01
1.095480033e+00,5.80440e-01,9.99999e-01,8.20748e-01,9.28161e-01,7.61045e-01,9.99997e-01
1.100957433e+00,5.76669e-01,9.99999e-01,9.09122e-01,8.27799e-01,7.65161e-01,9.99996e-01
1.106462220e+00,4.60785e-01,9.99999e-01,9.61326e-01,6.21890e-01,7.69217e-01,9.99992e-01
1.111994531e+00,2.82772e-01,9.99999e-01,9.85484e-01,3.70564e-01,7.73214e-01,9.99985e-01
1.117554504e+00,1.57961e-01,9.99999e-01,9.96427e-01,2.03806e-01,7.77152e-01,9.99979e-01
1.123142276e+00,2.49357e-01,9.99999e-01,9.99763e-01,3.19299e-01,7.81032e-01,9.99975e-01
1.128757988e+00,3.71206e-01,9.99999e-01,9.99999e-01,4.72974e-01,7.84854e-01,9.99973e-01
1.134401778e+00,1.86896e-01,9.99999e-01,9.99999e-01,2.36998e-01,7.88619e-01,9.99970e-01
1.140073787e+00,5.03291e-01,9.99999e-01,9.99999e-01,6.35220e-01,7.92327e-01,9.99976e-01
1.145774156e+00,3.14067e-01,9.99999e-01,9.99999e-01,3.94575e-01,7.95978e-01,9.99979e-01
1.151503026e+00,2.85889e-01,9.99999e-01,9.99999e-01,3.57558e-01,7.99574e-01,9.99982e-01
1.157260541e+00,3.33028e-01,9.99999e-01,9.99999e-01,4.14676e-01,8.03114e-01,9.99986e-01
1.163046844e+00,4.19353e-01,9.99999e-01,9.99999e-01,5.19906e-01,8.06600e-01,9.99991e-01
1.168862078e+00,5.12087e-01,9.99999e-01,9.99999e-01,6.32183e-01,8.10032e-01,9.99995e-01
1.174706389e+00,6.12850e-01,9.99999e-01,9.99999e-01,7.53434e-01,8.13410e-01,9.99997e-01
1.180579921e+00,6.87181e-01,9.99999e-01,9.99999e-01,8.41377e-01,8.16735e-01,9.99998e-01
1.186482820e+00,7.43680e-01,9.99999e-01,9.99991e-01,9.06925e-01,8.20007e-01,9.99998e-01
1.192415234e+00,7.62901e-01,9.99999e-01,9.80769e-01,9.44585e-01,8.23227e-01,9.99998e-01
1.198377311e+00,4.37368e-01,9.99999e-01,5.50889e-01,9.53144e-01,8.26397e-01,9.99998e-01
1.204369197e+00,1.40040e-15,9.99999e-01,1.73309e-15,9.55612e-01,8.29515e-01,9.99998e-01
1.210391043e+00,1.75584e-59,9.99999e-01,2.16039e-59,9.57488e-01,8.32583e-01,9.99998e-01
1.216442998e+00,1.24504e-51,9.99999e-01,1.52444e-51,9.63675e-01,8.35602e-01,9.99999e-01
1.222525213e+00,7.18301e-51,9.99999e-01,8.69354e-51,9.71612e-01,8.38572e-01,9.99999e-01
1.228637839e+00,2.18828e-39,9.99999e-01,2.63620e-39,9.80211e-01,8.41493e-01,9.99999e-01
