#,Wave/freq,Total,O2,CO2,H2O,Rayleigh,CIA
4.000000000e-01,1.65072e-04,9.99999e-01,9.99999e-01,9.99982e-01,1.65075e-04,9.99999e-01
4.020000000e-01,1.96094e-04,9.99999e-01,9.99999e-01,9.99988e-01,1.96096e-04,9.99999e-01
4.040100000e-01,2.32113e-04,9.99999e-01,9.99999e-01,9.99995e-01,2.32114e-04,9.99999e-01
4.060300500e-01,2.73834e-04,9.99999e-01,9.99999e-01,9.99998e-01,2.73834e-04,9.99999e-01
4.080602003e-01,3.22000e-04,9.99999e-01,9.99999e-01,9.99999e-01,3.22000e-04,9.99999e-01
4.101005013e-01,3.77428e-04,9.99999e-01,9.99999e-01,9.99999e-01,3.77428e-04,9.99999e-01
4.121510038e-01,4.41012e-04,9.99999e-01,9.99999e-01,9.99998e-01,4.41012e-04,9.99999e-01
4.142117588e-01,5.13723e-04,9.99999e-01,9.99999e-01,9.99994e-01,5.13725e-04,9.99999e-01
4.162828176e-01,5.96614e-04,9.99999e-01,9.99999e-01,9.99978e-01,5.96626e-04,9.99999e-01
4.183642317e-01,6.90851e-04,9.99999e-01,9.99999e-01,9.99986e-01,6.90860e-04,9.99999e-01
4.204560528e-01,7.97658e-04,9.99999e-01,9.99999e-01,9.99991e-01,7.97664e-04,9.99999e-01
4.225583331e-01,9.18365e-04,9.99999e-01,9.99999e-01,9.99996e-01,9.18368e-04,9.99999e-01
4.246711247e-01,1.05440e-03,9.99999e-01,9.99999e-01,9.99997e-01,1.05440e-03,9.99999e-01
4.267944804e-01,1.20728e-03,9.99999e-01,9.99999e-01,9.99996e-01,1.20728e-03,9.99999e-01
4.289284528e-01,1.37863e-03,9.99999e-01,9.99999e-01,9.99996e-01,1.37863e-03,9.99999e-01
4.310730950e-01,1.57019e-03,9.99999e-01,9.99999e-01,9.99998e-01,1.57019e-03,9.99999e-01
4.332284605e-01,1.78377e-03,9.99999e-01,9.99999e-01,9.99999e-01,1.78377e-03,9.99999e-01
4.353946028e-01,2.02131e-03,9.99999e-01,9.99999e-01,9.99999e-01,2.02131e-03,9.99999e-01
4.375715758e-01,2.28482e-03,9.99999e-01,9.99999e-01,9.99997e-01,2.28482e-03,9.99999e-01
4.397594337e-01,2.57640e-03,9.99999e-01,9.99999e-01,9.99981e-01,2.57645e-03,9.99999e-01
4.419582309e-01,2.89814e-03,9.99999e-01,9.99999e-01,9.99906e-01,2.89841e-03,9.99999e-01
4.441680220e-01,3.25280e-03,9.99999e-01,9.99999e-01,9.99925e-01,3.25304e-03,9.99999e-01
4.463888621e-01,3.64245e-03,9.99999e-01,9.99999e-01,9.99923e-01,3.64273e-03,9.99999e-01
4.486208064e-01,4.06981e-03,9.99999e-01,9.99999e-01,9.99951e-01,4.07001e-03,9.99999e-01
4.508639105e-01,4.53735e-03,9.99999e-01,9.99999e-01,9.99977e-01,4.53745e-03,9.99999e-01
4.531182300e-01,5.04768e-03,9.99999e-01,9.99999e-01,9.99990e-01,5.04772e-03,9.99999e-01
4.553838212e-01,5.60354e-03,9.99999e-01,9.99999e-01,9.99993e-01,5.60357e-03,9.99999e-01
4.576607403e-01,6.20779e-03,9.99999e-01,9.99999e-01,9.99996e-01,6.20781e-03,9.99999e-01
4.599490440e-01,6.86329e-03,9.99999e-01,9.99999e-01,9.99997e-01,6.86330e-03,9.99999e-01
4.622487892e-01,7.57298e-03,9.99999e-01,9.99999e-01,9.99999e-01,7.57298e-03,9.99999e-01
4.645600332e-01,8.33981e-03,9.99999e-01,9.99999e-01,9.99998e-01,8.33982e-03,9.99999e-01
4.668828333e-01,9.16662e-03,9.99999e-01,9.99999e-01,9.99977e-01,9.16683e-03,9.99999e-01
4.692172475e-01,1.00566e-02,9.99999e-01,9.99999e-01,9.99951e-01,1.00570e-02,9.99999e-01
4.715633337e-01,1.10132e-02,9.99999e-01,9.99999e-01,9.99968e-01,1.10135e-02,9.99999e-01
4.739211504e-01,1.20390e-02,9.99999e-01,9.99999e-01,9.99969e-01,1.20394e-02,9.99999e-01
4.762907561e-01,1.31374e-02,9.99999e-01,9.99999e-01,9.99983e-01,1.31376e-02,9.99999e-01
4.786722099e-01,1.43112e-02,9.99999e-01,9.99999e-01,9.99993e-01,1.43113e-02,9.99999e-01
4.810655710e-01,1.55636e-02,9.99999e-01,9.99999e-01,9.99997e-01,1.55636e-02,9.99999e-01
4.834708988e-01,1.68971e-02,9.99999e-01,9.99999e-01,9.99981e-01,1.68974e-02,9.99999e-01
4.858882533e-01,1.83151e-02,9.99999e-01,9.99999e-01,9.99965e-01,1.83158e-02,9.99999e-01
4.883176946e-01,1.98210e-02,9.99999e-01,9.99999e-01,9.99971e-01,1.98216e-02,9.99999e-01
4.907592831e-01,2.14172e-02,9.99999e-01,9.99999e-01,9.99973e-01,2.14178e-02,9.99999e-01
4.932130795e-01,2.31067e-02,9.99999e-01,9.99999e-01,9.99981e-01,2.31071e-02,9.99999e-01
4.956791449e-01,2.48921e-02,9.99999e-01,9.99999e-01,9.99989e-01,2.48923e-02,9.99999e-01
4.981575406e-01,2.67748e-02,9.99999e-01,9.99999e-01,9.99951e-01,2.67761e-02,9.99999e-01
5.006483283e-01,2.87574e-02,9.99999e-01,9.99999e-01,9.99875e-01,2.87610e-02,9.99999e-01
5.031515699e-01,3.08298e-02,9.99999e-01,9.99999e-01,9.99366e-01,3.08493e-02,9.99999e-01
5.056673278e-01,3.30325e-02,9.99999e-01,9.99999e-01,9.99664e-01,3.30436e-02,9.99999e-01
5.081956644e-01,3.53309e-02,9.99999e-01,9.99999e-01,9.99577e-01,3.53459e-02,9.99999e-01
5.107366428e-01,3.77475e-02,9.99999e-01,9.99999e-01,9.99714e-01,3.77583e-02,9.99999e-01
5.132903260e-01,4.02763e-02,9.99999e-01,9.99999e-01,9.99836e-01,4.02828e-02,9.99999e-01
5.158567776e-01,4.29183e-02,9.99999e-01,9.99999e-01,9.99930e-01,4.29212e-02,9.99999e-01
5.184360615e-01,4.56739e-02,9.99999e-01,9.99999e-01,9.99971e-01,4.56752e-02,9.99999e-01
5.210282418e-01,4.85457e-02,9.99999e-01,9.99999e-01,9.99989e-01,4.85462e-02,9.99999e-01
5.236333830e-01,5.15334e-02,9.99999e-01,9.99999e-01,9.99958e-01,5.15355e-02,9.99999e-01
5.262515499e-01,5.46430e-02,9.99999e-01,9.99999e-01,9.99973e-01,5.46444e-02,9.99999e-01
5.288828077e-01,5.78725e-02,9.99999e-01,9.99999e-01,9.99975e-01,5.78739e-02,9.99999e-01
5.315272217e-01,6.12234e-02,9.99999e-01,9.99999e-01,9.99978e-01,6.12247e-02,9.99999e-01
5.341848578e-01,6.46966e-02,9.99999e-01,9.99999e-01,9.99985e-01,6.46975e-02,9.99999e-01
5.368557821e-01,6.82896e-02,9.99999e-01,9.99999e-01,9.99951e-01,6.82929e-02,9.99999e-01
5.395400610e-01,7.19987e-02,9.99999e-01,9.99999e-01,9.99827e-01,7.20111e-02,9.99999e-01
5.422377613e-01,7.58352e-02,9.99999e-01,9.99999e-01,9.99774e-01,7.58523e-02,9.99999e-01
5.449489501e-01,7.97998e-02,9.99999e-01,9.99999e-01,9.99791e-01,7.98164e-02,9.99999e-01
5.476736949e-01,8.38876e-02,9.99999e-01,9.99999e-01,9.99814e-01,8.39032e-02,9.99999e-01
5.504120634e-01,8.81005e-02,9.99999e-01,9.99999e-01,9.99865e-01,8.81123e-02,9.99999e-01
5.531641237e-01,9.24369e-02,9.99999e-01,9.99999e-01,9.99931e-01,9.24431e-02,9.99999e-01
5.559299443e-01,9.68918e-02,9.99999e-01,9.99999e-01,9.99966e-01,9.68950e-02,9.99999e-01
5.587095940e-01,1.01465e-01,9.99999e-01,9.99999e-01,9.99979e-01,1.01467e-01,9.99999e-01
5.615031420e-01,1.06155e-01,9.99999e-01,9.99999e-01,9.99976e-01,1.06158e-01,9.99999e-01
5.643106577e-01,1.10964e-01,9.99999e-01,9.99999e-01,9.99974e-01,1.10966e-01,9.99999e-01
5.671322110e-01,1.15856e-01,9.99999e-01,9.99999e-01,9.99690e-01,1.15891e-01,9.99999e-01
5.699678720e-01,1.20891e-01,9.99999e-01,9.99999e-01,9.99664e-01,1.20931e-01,9.99999e-01
5.728177114e-01,1.26041e-01,9.99999e-01,9.99999e-01,9.99653e-01,1.26084e-01,9.99999e-01
5.756818000e-01,1.31307e-01,9.99999e-01,9.99999e-01,9.99681e-01,1.31348e-01,9.99999e-01
5.785602090e-01,1.36684e-01,9.99999e-01,9.99999e-01,9.99721e-01,1.36722e-01,9.99999e-01
5.814530100e-01,1.42163e-01,9.99999e-01,9.99999e-01,9.99720e-01,1.42203e-01,9.99999e-01
5.843602750e-01,1.47739e-01,9.99999e-01,9.99999e-01,9.99669e-01,1.47788e-01,9.99999e-01
5.872820764e-01,1.53039e-01,9.99999e-01,9.99999e-01,9.97149e-01,1.53476e-01,9.99999e-01
5.902184868e-01,1.58711e-01,9.99999e-01,9.99999e-01,9.96523e-01,1.59265e-01,9.99999e-01
5.931695792e-01,1.64746e-01,9.99999e-01,9.99999e-01,9.97548e-01,1.65150e-01,9.99999e-01
5.961354271e-01,1.70670e-01,9.99999e-01,9.99999e-01,9.97308e-01,1.71131e-01,9.99999e-01
5.991161043e-01,1.76855e-01,9.99999e-01,9.99999e-01,9.98035e-01,1.77203e-01,9.99999e-01
6.021116848e-01,1.83160e-01,9.99999e-01,9.99999e-01,9.98883e-01,1.83365e-01,9.99999e-01
6.051222432e-01,1.89506e-01,9.99999e-01,9.99999e-01,9.99434e-01,1.89613e-01,9.99999e-01
6.081478544e-01,1.95896e-01,9.99999e-01,9.99999e-01,9.99756e-01,1.95944e-01,9.99999e-01
6.111885937e-01,2.02334e-01,9.99999e-01,9.99999e-01,9.99896e-01,2.02355e-01,9.99999e-01
6.142445367e-01,2.08833e-01,9.99999e-01,9.99999e-01,9.99953e-01,2.08843e-01,9.99999e-01
6.173157594e-01,2.15399e-01,9.99999e-01,9.99999e-01,9.99974e-01,2.15405e-01,9.99999e-01
6.204023382e-01,2.22032e-01,9.99999e-01,9.99999e-01,9.99978e-01,2.22037e-01,9.99999e-01
6.235043498e-01,2.28715e-01,9.99999e-01,9.99999e-01,9.99906e-01,2.28736e-01,9.99999e-01
6.266218716e-01,2.35382e-01,9.99999e-01,9.99999e-01,9.99500e-01,2.35499e-01,9.99999e-01
6.297549810e-01,2.42278e-01,9.99999e-01,9.99999e-01,9.99816e-01,2.42323e-01,9.99999e-01
6.329037559e-01,2.49113e-01,9.99999e-01,9.99999e-01,9.99636e-01,2.49203e-01,9.99999e-01
6.360682746e-01,2.56059e-01,9.99999e-01,9.99999e-01,9.99691e-01,2.56138e-01,9.99999e-01
6.392486160e-01,2.63017e-01,9.99999e-01,9.99999e-01,9.99600e-01,2.63122e-01,9.99999e-01
6.424448591e-01,2.70010e-01,9.99999e-01,9.99999e-01,9.99468e-01,2.70154e-01,9.99999e-01
6.456570834e-01,2.76544e-01,9.99999e-01,9.99999e-01,9.97531e-01,2.77228e-01,9.99999e-01
6.488853688e-01,2.83737e-01,9.99999e-01,9.99999e-01,9.97866e-01,2.84343e-01,9.99999e-01
6.521297956e-01,2.90954e-01,9.99999e-01,9.99999e-01,9.98142e-01,2.91495e-01,9.99999e-01
6.553904446e-01,2.98132e-01,9.99999e-01,9.99999e-01,9.98165e-01,2.98680e-01,9.99999e-01
6.586673968e-01,3.05410e-01,9.99999e-01,9.99999e-01,9.98416e-01,3.05895e-01,9.99999e-01
6.619607338e-01,3.12850e-01,9.99999e-01,9.99999e-01,9.99084e-01,3.13136e-01,9.99999e-01
6.652705375e-01,3.20231e-01,9.99999e-01,9.99999e-01,9.99468e-01,3.20401e-01,9.99999e-01
6.685968902e-01,3.27605e-01,9.99999e-01,9.99999e-01,9.99753e-01,3.27686e-01,9.99999e-01
6.719398746e-01,3.34949e-01,9.99999e-01,9.99999e-01,9.99885e-01,3.34987e-01,9.99999e-01
6.752995740e-01,3.42281e-01,9.99999e-01,9.99999e-01,9.99937e-01,3.42303e-01,9.99999e-01
6.786760719e-01,3.49597e-01,9.99999e-01,9.99999e-01,9.99910e-01,3.49628e-01,9.99999e-01
6.820694522e-01,3.56907e-01,9.99999e-01,9.99999e-01,9.99847e-01,3.56962e-01,9.99999e-01
6.854797995e-01,3.64228e-01,9.99999e-01,9.99999e-01,9.99803e-01,3.64299e-01,9.99999e-01
6.889071985e-01,3.71464e-01,9.99999e-01,9.99999e-01,9.99530e-01,3.71638e-01,9.99999e-01
6.923517345e-01,3.76051e-01,9.99999e-01,9.99999e-01,9.92280e-01,3.78976e-01,9.99999e-01
6.958134932e-01,3.84733e-01,9.99999e-01,9.99999e-01,9.95919e-01,3.86309e-01,9.99999e-01
6.992925606e-01,3.92132e-01,9.99999e-01,9.99999e-01,9.96180e-01,3.93636e-01,9.99999e-01
7.027890234e-01,3.99051e-01,9.99999e-01,9.99999e-01,9.95258e-01,4.00952e-01,9.99999e-01
7.063029686e-01,4.06629e-01,9.99999e-01,9.99999e-01,9.96015e-01,4.08256e-01,9.99999e-01
7.098344834e-01,4.13956e-01,9.99999e-01,9.99999e-01,9.96176e-01,4.15544e-01,9.99999e-01
7.133836558e-01,4.20681e-01,9.99999e-01,9.99999e-01,9.94952e-01,4.22815e-01,9.99999e-01
7.169505741e-01,4.12779e-01,9.99999e-01,9.99999e-01,9.59803e-01,4.30066e-01,9.99999e-01
7.205353270e-01,4.28496e-01,9.99999e-01,9.99999e-01,9.79880e-01,4.37294e-01,9.99998e-01
7.241380036e-01,4.33297e-01,9.99999e-01,9.99999e-01,9.74802e-01,4.44497e-01,9.99998e-01
7.277586936e-01,4.41384e-01,9.99999e-01,9.99999e-01,9.77218e-01,4.51673e-01,9.99999e-01
7.313974871e-01,4.47667e-01,9.99999e-01,9.99999e-01,9.75691e-01,4.58820e-01,9.99999e-01
7.350544745e-01,4.59728e-01,9.99999e-01,9.99999e-01,9.86675e-01,4.65936e-01,9.99999e-01
7.387297469e-01,4.68372e-01,9.99999e-01,9.99999e-01,9.90177e-01,4.73018e-01,9.99999e-01
7.424233956e-01,4.77749e-01,9.99999e-01,9.99999e-01,9.95176e-01,4.80064e-01,9.99999e-01
7.461355126e-01,4.85651e-01,9.99999e-01,9.99999e-01,9.97078e-01,4.87073e-01,9.99999e-01
7.498661902e-01,4.93370e-01,9.99999e-01,9.99999e-01,9.98636e-01,4.94044e-01,9.99999e-01
7.536155211e-01,5.00638e-01,9.99999e-01,9.99999e-01,9.99332e-01,5.00973e-01,9.99999e-01
7.573835987e-01,5.07685e-01,9.99999e-01,9.99999e-01,9.99655e-01,5.07859e-01,9.99999e-01
7.611705167e-01,5.14592e-01,9.99999e-01,9.99999e-01,9.99786e-01,5.14702e-01,9.99999e-01
7.649763693e-01,5.21429e-01,9.99999e-01,9.99999e-01,9.99865e-01,5.21499e-01,9.99999e-01
7.688012511e-01,5.28199e-01,9.99999e-01,9.99999e-01,9.99906e-01,5.28248e-01,9.99999e-01
7.726452574e-01,5.34909e-01,9.99999e-01,9.99999e-01,9.99923e-01,5.34950e-01,9.99999e-01
7.765084837e-01,5.41542e-01,9.99999e-01,9.99999e-01,9.99891e-01,5.41601e-01,9.99999e-01
7.803910261e-01,5.32630e-01,9.99999e-01,9.72037e-01,9.99533e-01,5.48201e-01,9.99999e-01
7.842929812e-01,4.87255e-01,9.99999e-01,8.79706e-01,9.98371e-01,5.54749e-01,9.99999e-01
7.882144461e-01,4.87915e-01,9.99999e-01,8.72188e-01,9.96626e-01,5.61243e-01,9.99999e-01
7.921555184e-01,5.23433e-01,9.99999e-01,9.23732e-01,9.98142e-01,5.67683e-01,9.99999e-01
7.961162960e-01,5.42486e-01,9.99999e-01,9.48047e-01,9.96744e-01,5.74068e-01,9.99999e-01
8.000968774e-01,5.61753e-01,9.99999e-01,9.71538e-01,9.96224e-01,5.80396e-01,9.99999e-01
8.040973618e-01,5.75757e-01,9.99999e-01,9.85114e-01,9.96227e-01,5.86666e-01,9.99999e-01
8.081178486e-01,5.83855e-01,9.99999e-01,9.93162e-01,9.91548e-01,5.92879e-01,9.99999e-01
8.121584379e-01,5.76918e-01,9.99999e-01,9.97870e-01,9.65120e-01,5.99033e-01,9.99999e-01
8.162192301e-01,5.79691e-01,9.99999e-01,9.99529e-01,9.58410e-01,6.05127e-01,9.99998e-01
8.203003262e-01,5.98493e-01,9.99999e-01,9.99991e-01,9.79280e-01,6.11161e-01,9.99998e-01
8.244018279e-01,5.98983e-01,9.99999e-01,9.99999e-01,9.70588e-01,6.17134e-01,9.99998e-01
8.285238370e-01,6.07540e-01,9.99999e-01,9.99999e-01,9.75113e-01,6.23046e-01,9.99999e-01
8.326664562e-01,6.13024e-01,9.99999e-01,9.99999e-01,9.74762e-01,6.28896e-01,9.99999e-01
8.368297885e-01,6.23199e-01,9.99999e-01,9.99999e-01,9.81904e-01,6.34683e-01,9.99999e-01
8.410139374e-01,6.33500e-01,9.99999e-01,9.99999e-01,9.89211e-01,6.40409e-01,9.99999e-01
8.452190071e-01,6.42643e-01,9.99999e-01,9.99999e-01,9.94693e-01,6.46071e-01,9.99999e-01
8.494451021e-01,6.49668e-01,9.99999e-01,9.99999e-01,9.96927e-01,6.51670e-01,9.99999e-01
8.536923276e-01,6.56008e-01,9.99999e-01,9.99999e-01,9.98177e-01,6.57205e-01,9.99999e-01
8.579607893e-01,6.61935e-01,9.99999e-01,9.99999e-01,9.98880e-01,6.62677e-01,9.99999e-01
8.622505932e-01,6.67609e-01,9.99999e-01,9.99999e-01,9.99287e-01,6.68085e-01,9.99999e-01
8.665618462e-01,6.29174e-01,9.99999e-01,9.34681e-01,9.99560e-01,6.73428e-01,9.99999e-01
8.708946554e-01,4.89777e-01,9.99999e-01,7.21983e-01,9.99497e-01,6.78708e-01,9.99999e-01
8.752491287e-01,5.25823e-01,9.99999e-01,7.69336e-01,9.99327e-01,6.83924e-01,9.99999e-01
8.796253743e-01,5.96288e-01,9.99999e-01,8.66129e-01,9.99070e-01,6.89075e-01,9.99999e-01
8.840235012e-01,6.43731e-01,9.99999e-01,9.28322e-01,9.98937e-01,6.94163e-01,9.99999e-01
8.884436187e-01,6.76369e-01,9.99999e-01,9.71051e-01,9.96173e-01,6.99186e-01,9.99999e-01
8.928858368e-01,6.68033e-01,9.99999e-01,9.88199e-01,9.59960e-01,7.04146e-01,9.99998e-01
8.973502660e-01,6.57344e-01,9.99999e-01,9.97108e-01,9.29730e-01,7.09041e-01,9.99998e-01
9.018370173e-01,6.87459e-01,9.99999e-01,9.99680e-01,9.63298e-01,7.13873e-01,9.99998e-01
9.063462024e-01,6.90246e-01,9.99999e-01,9.92011e-01,9.68017e-01,7.18642e-01,9.99998e-01
9.108779334e-01,6.74837e-01,9.99999e-01,9.81464e-01,9.50372e-01,7.23347e-01,9.99998e-01
9.154323231e-01,6.84068e-01,9.99999e-01,9.95589e-01,9.43755e-01,7.27989e-01,9.99998e-01
9.200094847e-01,6.58115e-01,9.99999e-01,9.38224e-01,9.55579e-01,7.32569e-01,9.99997e-01
9.246095321e-01,6.27816e-01,9.99999e-01,9.12505e-01,9.32125e-01,7.37086e-01,9.99996e-01
9.292325798e-01,4.32169e-01,9.99999e-01,9.31161e-01,6.21829e-01,7.41540e-01,9.99992e-01
9.338787427e-01,3.77793e-01,9.99999e-01,9.32974e-01,5.39341e-01,7.45933e-01,9.99990e-01
9.385481364e-01,5.57229e-01,9.99999e-01,9.50346e-01,7.79529e-01,7.50265e-01,9.99990e-01
9.432408771e-01,5.18749e-01,9.99999e-01,9.69248e-01,7.08273e-01,7.54535e-01,9.99989e-01
9.479570815e-01,4.64259e-01,9.99999e-01,9.84138e-01,6.21279e-01,7.58744e-01,9.99990e-01
9.526968669e-01,5.29341e-01,9.99999e-01,9.92311e-01,6.98818e-01,7.62893e-01,9.99992e-01
9.574603512e-01,5.50730e-01,9.99999e-01,9.96704e-01,7.20290e-01,7.66982e-01,9.99994e-01
9.622476530e-01,5.89575e-01,9.99999e-01,9.98970e-01,7.65426e-01,7.71012e-01,9.99996e-01
9.670588912e-01,6.64295e-01,9.99999e-01,9.99690e-01,8.57429e-01,7.74983e-01,9.99997e-01
9.718941857e-01,7.07637e-01,9.99999e-01,9.99977e-01,9.08533e-01,7.78895e-01,9.99998e-01
9.767536566e-01,7.22864e-01,9.99999e-01,9.99999e-01,9.23494e-01,7.82749e-01,9.99998e-01
9.816374249e-01,7.41436e-01,9.99999e-01,9.99999e-01,9.42648e-01,7.86545e-01,9.99998e-01
9.865456120e-01,7.61658e-01,9.99999e-01,9.99999e-01,9.63777e-01,7.90284e-01,9.99999e-01
9.914783401e-01,7.76080e-01,9.99999e-01,9.99999e-01,9.77471e-01,7.93967e-01,9.99999e-01
9.964357318e-01,7.87757e-01,9.99999e-01,9.99999e-01,9.87667e-01,7.97593e-01,9.99999e-01
1.001417910e+00,7.95228e-01,9.99999e-01,9.99999e-01,9.92590e-01,8.01164e-01,9.99999e-01
1.006425000e+00,8.01282e-01,9.99999e-01,9.99999e-01,9.95777e-01,8.04680e-01,9.99999e-01
1.011457125e+00,8.06018e-01,9.99999e-01,9.99999e-01,9.97372e-01,8.08141e-01,9.99999e-01
1.016514411e+00,8.10103e-01,9.99999e-01,9.99999e-01,9.98217e-01,8.11549e-01,9.99999e-01
1.021596983e+00,8.13714e-01,9.99999e-01,9.99960e-01,9.98580e-01,8.14903e-01,9.99999e-01
1.026704968e+00,8.14759e-01,9.99999e-01,9.96890e-01,9.98892e-01,8.18204e-01,9.99999e-01
1.031838492e+00,7.90336e-01,9.99999e-01,9.62874e-01,9.99194e-01,8.21454e-01,9.99999e-01
1.036997685e+00,1.48501e-01,9.99999e-01,1.80147e-01,9.99521e-01,8.24651e-01,9.99999e-01
1.042182673e+00,1.35125e-01,9.99999e-01,1.63318e-01,9.99431e-01,8.27797e-01,9.99999e-01
1.047393587e+00,1.50057e-01,9.99999e-01,1.80718e-01,9.99245e-01,8.30893e-01,9.99999e-01
1.052630555e+00,6.81982e-03,9.99999e-01,8.18416e-03,9.98965e-01,8.33939e-01,9.99999e-01
1.057893707e+00,1.58480e-02,9.99999e-01,1.89586e-02,9.98275e-01,8.36936e-01,9.99999e-01
1.063183176e+00,4.56371e-02,9.99999e-01,5.44516e-02,9.97160e-01,8.39884e-01,9.99999e-01
1.068499092e+00,1.13766e-01,9.99999e-01,1.35542e-01,9.95243e-01,8.42784e-01,9.99999e-01
1.073841587e+00,2.37584e-01,9.99999e-01,2.82312e-01,9.94441e-01,8.45636e-01,9.99999e-01
1.079210795e+00,3.78687e-01,9.99999e-01,4.49294e-01,9.92864e-01,8.48441e-01,9.99999e-01
1.084606849e+00,5.42628e-01,9.99999e-01,6.44149e-01,9.89228e-01,8.51200e-01,9.99999e-01
1.090029883e+00,6.69624e-01,9.99999e-01,7.96149e-01,9.84618e-01,8.53913e-01,9.99998e-01
1.095480033e+00,7.34082e-01,9.99999e-01,8.93680e-01,9.58575e-01,8.56581e-01,9.99998e-01
1.100957433e+00,7.31277e-01,9.99999e-01,9.47321e-01,8.98017e-01,8.59204e-01,9.99997e-01
1.106462220e+00,6.41686e-01,9.99999e-01,9.77855e-01,7.60953e-01,8.61783e-01,9.99995e-01
1.111994531e+00,4.81852e-01,9.99999e-01,9.91735e-01,5.61858e-01,8.64319e-01,9.99991e-01
1.117554504e+00,3.40332e-01,9.99999e-01,9.97969e-01,3.93298e-01,8.66812e-01,9.99988e-01
1.123142276e+00,4.36960e-01,9.99999e-01,9.99865e-01,5.02722e-01,8.69263e-01,9.99986e-01
1.128757988e+00,5.61763e-01,9.99999e-01,9.99999e-01,6.44475e-01,8.71672e-01,9.99984e-01
1.134401778e+00,3.33240e-01,9.99999e-01,9.99999e-01,3.81270e-01,8.74040e-01,9.99983e-01
1.140073787e+00,6.74461e-01,9.99999e-01,9.99999e-01,7.69620e-01,8.76367e-01,9.99986e-01
1.145774156e+00,5.08303e-01,9.99999e-01,9.99999e-01,5.78507e-01,8.78654e-01,9.99988e-01
1.151503026e+00,4.78976e-01,9.99999e-01,9.99999e-01,5.43739e-01,8.80902e-01,9.99989e-01
1.157260541e+00,5.31017e-01,9.99999e-01,9.99999e-01,6.01306e-01,8.83112e-01,9.99992e-01
1.163046844e+00,6.07498e-01,9.99999e-01,9.99999e-01,6.86222e-01,8.85283e-01,9.99994e-01
1.168862078e+00,6.83187e-01,9.99999e-01,9.99999e-01,7.69862e-01,8.87416e-01,9.99997e-01
1.174706389e+00,7.56962e-01,9.99999e-01,9.99999e-01,8.50986e-01,8.89512e-01,9.99998e-01
1.180579921e+00,8.08115e-01,9.99999e-01,9.99999e-01,9.06393e-01,8.91572e-01,9.99998e-01
1.186482820e+00,8.45370e-01,9.99999e-01,9.99995e-01,9.46036e-01,8.93595e-01,9.99998e-01
1.192415234e+00,8.57599e-01,9.99999e-01,9.88958e-01,9.68176e-01,8.95583e-01,9.99998e-01
1.198377311e+00,4.97288e-01,9.99999e-01,5.66827e-01,9.73146e-01,8.97536e-01,9.99999e-01
1.204369197e+00,8.30499e-10,9.99999e-01,9.37173e-10,9.74549e-01,8.99454e-01,9.99999e-01
1.210391043e+00,1.07183e-34,9.99999e-01,1.20553e-34,9.75648e-01,9.01339e-01,9.99999e-01
1.216442998e+00,3.02635e-30,9.99999e-01,3.39443e-30,9.79215e-01,9.03190e-01,9.99999e-01
1.222525213e+00,8.19348e-30,9.99999e-01,9.12985e-30,9.83795e-01,9.05009e-01,9.99999e-01
1.228637839e+00,4.46526e-23,9.99999e-01,4.96328e-23,9.88727e-01,9.06795e-01,9.99999e-01
