#,Wave/freq,Total,O2,CO2,H2O,Rayleigh,CIA
4.000000000e-01,1.86715e-09,9.99999e-01,9.99999e-01,9.99960e-01,1.86722e-09,9.99999e-01
4.020000000e-01,2.77831e-09,9.99999e-01,9.99999e-01,9.99975e-01,2.77838e-09,9.99999e-01
4.040100000e-01,4.10009e-09,9.99999e-01,9.99999e-01,9.99989e-01,4.10014e-09,9.99999e-01
4.060300500e-01,6.00434e-09,9.99999e-01,9.99999e-01,9.99997e-01,6.00436e-09,9.99999e-01
4.080602003e-01,8.72693e-09,9.99999e-01,9.99999e-01,9.99998e-01,8.72694e-09,9.99999e-01
4.101005013e-01,1.25907e-08,9.99999e-01,9.99999e-01,9.99999e-01,1.25907e-08,9.99999e-01
4.121510038e-01,1.80340e-08,9.99999e-01,9.99999e-01,9.99998e-01,1.80341e-08,9.99999e-01
4.142117588e-01,2.56478e-08,9.99999e-01,9.99999e-01,9.99988e-01,2.56481e-08,9.99999e-01
4.162828176e-01,3.62221e-08,9.99999e-01,9.99999e-01,9.99950e-01,3.62239e-08,9.99999e-01
4.183642317e-01,5.08113e-08,9.99999e-01,9.99999e-01,9.99970e-01,5.08128e-08,9.99999e-01
4.204560528e-01,7.08012e-08,9.99999e-01,9.99999e-01,9.99981e-01,7.08024e-08,9.99999e-01
4.225583331e-01,9.80110e-08,9.99999e-01,9.99999e-01,9.99992e-01,9.80116e-08,9.99999e-01
4.246711247e-01,1.34808e-07,9.99999e-01,9.99999e-01,9.99994e-01,1.34808e-07,9.99999e-01
4.267944804e-01,1.84255e-07,9.99999e-01,9.99999e-01,9.99991e-01,1.84256e-07,9.99999e-01
4.289284528e-01,2.50290e-07,9.99999e-01,9.99999e-01,9.99993e-01,2.50292e-07,9.99999e-01
4.310730950e-01,3.37942e-07,9.99999e-01,9.99999e-01,9.99996e-01,3.37943e-07,9.99999e-01
4.332284605e-01,4.53592e-07,9.99999e-01,9.99999e-01,9.99998e-01,4.53592e-07,9.99999e-01
4.353946028e-01,6.05287e-07,9.99999e-01,9.99999e-01,9.99999e-01,6.05288e-07,9.99999e-01
4.375715758e-01,8.03122e-07,9.99999e-01,9.99999e-01,9.99994e-01,8.03126e-07,9.99999e-01
4.397594337e-01,1.05965e-06,9.99999e-01,9.99999e-01,9.99957e-01,1.05969e-06,9.99999e-01
4.419582309e-01,1.39028e-06,9.99999e-01,9.99999e-01,9.99784e-01,1.39058e-06,9.99999e-01
4.441680220e-01,1.81472e-06,9.99999e-01,9.99999e-01,9.99829e-01,1.81503e-06,9.99999e-01
4.463888621e-01,2.35618e-06,9.99999e-01,9.99999e-01,9.99823e-01,2.35659e-06,9.99999e-01
4.486208064e-01,3.04367e-06,9.99999e-01,9.99999e-01,9.99889e-01,3.04401e-06,9.99999e-01
4.508639105e-01,3.91191e-06,9.99999e-01,9.99999e-01,9.99948e-01,3.91211e-06,9.99999e-01
4.531182300e-01,5.00283e-06,9.99999e-01,9.99999e-01,9.99979e-01,5.00293e-06,9.99999e-01
4.553838212e-01,6.36681e-06,9.99999e-01,9.99999e-01,9.99985e-01,6.36690e-06,9.99999e-01
4.576607403e-01,8.06418e-06,9.99999e-01,9.99999e-01,9.99993e-01,8.06424e-06,9.99999e-01
4.599490440e-01,1.01664e-05,9.99999e-01,9.99999e-01,9.99995e-01,1.01665e-05,9.99999e-01
4.622487892e-01,1.27583e-05,9.99999e-01,9.99999e-01,9.99998e-01,1.27583e-05,9.99999e-01
4.645600332e-01,1.59391e-05,9.99999e-01,9.99999e-01,9.99996e-01,1.59391e-05,9.99999e-01
4.668828333e-01,1.98246e-05,9.99999e-01,9.99999e-01,9.99947e-01,1.98257e-05,9.99999e-01
4.692172475e-01,2.45511e-05,9.99999e-01,9.99999e-01,9.99888e-01,2.45538e-05,9.99999e-01
4.715633337e-01,3.02792e-05,9.99999e-01,9.99999e-01,9.99927e-01,3.02814e-05,9.99999e-01
4.739211504e-01,3.71881e-05,9.99999e-01,9.99999e-01,9.99930e-01,3.71907e-05,9.99999e-01
4.762907561e-01,4.54897e-05,9.99999e-01,9.99999e-01,9.99963e-01,4.54913e-05,9.99999e-01
4.786722099e-01,5.54229e-05,9.99999e-01,9.99999e-01,9.99984e-01,5.54237e-05,9.99999e-01
4.810655710e-01,6.72614e-05,9.99999e-01,9.99999e-01,9.99995e-01,6.72617e-05,9.99999e-01
4.834708988e-01,8.13133e-05,9.99999e-01,9.99999e-01,9.99957e-01,8.13167e-05,9.99999e-01
4.858882533e-01,9.79332e-05,9.99999e-01,9.99999e-01,9.99920e-01,9.79409e-05,9.99999e-01
4.883176946e-01,1.17523e-04,9.99999e-01,9.99999e-01,9.99934e-01,1.17531e-04,9.99999e-01
4.907592831e-01,1.40524e-04,9.99999e-01,9.99999e-01,9.99940e-01,1.40532e-04,9.99999e-01
4.932130795e-01,1.67436e-04,9.99999e-01,9.99999e-01,9.99957e-01,1.67443e-04,9.99999e-01
4.956791449e-01,1.98813e-04,9.99999e-01,9.99999e-01,9.99977e-01,1.98818e-04,9.99999e-01
4.981575406e-01,2.35246e-04,9.99999e-01,9.99999e-01,9.99888e-01,2.35272e-04,9.99999e-01
5.006483283e-01,2.77406e-04,9.99999e-01,9.99999e-01,9.99713e-01,2.77486e-04,9.99999e-01
5.031515699e-01,3.25732e-04,9.99999e-01,9.99999e-01,9.98539e-01,3.26209e-04,9.99999e-01
5.056673278e-01,3.81968e-04,9.99999e-01,9.99999e-01,9.99227e-01,3.82263e-04,9.99999e-01
5.081956644e-01,4.46114e-04,9.99999e-01,9.99999e-01,9.99025e-01,4.46549e-04,9.99999e-01
5.107366428e-01,5.19705e-04,9.99999e-01,9.99999e-01,9.99341e-01,5.20047e-04,9.99999e-01
5.132903260e-01,6.03595e-04,9.99999e-01,9.99999e-01,9.99622e-01,6.03822e-04,9.99999e-01
5.158567776e-01,6.98916e-04,9.99999e-01,9.99999e-01,9.99840e-01,6.99027e-04,9.99999e-01
5.184360615e-01,8.06855e-04,9.99999e-01,9.99999e-01,9.99935e-01,8.06906e-04,9.99999e-01
5.210282418e-01,9.28775e-04,9.99999e-01,9.99999e-01,9.99975e-01,9.28797e-04,9.99999e-01
5.236333830e-01,1.06603e-03,9.99999e-01,9.99999e-01,9.99904e-01,1.06613e-03,9.99999e-01
5.262515499e-01,1.22038e-03,9.99999e-01,9.99999e-01,9.99939e-01,1.22045e-03,9.99999e-01
5.288828077e-01,1.39330e-03,9.99999e-01,9.99999e-01,9.99945e-01,1.39338e-03,9.99999e-01
5.315272217e-01,1.58657e-03,9.99999e-01,9.99999e-01,9.99951e-01,1.58665e-03,9.99999e-01
5.341848578e-01,1.80204e-03,9.99999e-01,9.99999e-01,9.99968e-01,1.80209e-03,9.99999e-01
5.368557821e-01,2.04143e-03,9.99999e-01,9.99999e-01,9.99889e-01,2.04166e-03,9.99999e-01
5.395400610e-01,2.30645e-03,9.99999e-01,9.99999e-01,9.99602e-01,2.30737e-03,9.99999e-01
5.422377613e-01,2.60002e-03,9.99999e-01,9.99999e-01,9.99481e-01,2.60137e-03,9.99999e-01
5.449489501e-01,2.92449e-03,9.99999e-01,9.99999e-01,9.99519e-01,2.92589e-03,9.99999e-01
5.476736949e-01,3.28186e-03,9.99999e-01,9.99999e-01,9.99572e-01,3.28327e-03,9.99999e-01
5.504120634e-01,3.67477e-03,9.99999e-01,9.99999e-01,9.99689e-01,3.67591e-03,9.99999e-01
5.531641237e-01,4.10570e-03,9.99999e-01,9.99999e-01,9.99843e-01,4.10634e-03,9.99999e-01
5.559299443e-01,4.57681e-03,9.99999e-01,9.99999e-01,9.99924e-01,4.57715e-03,9.99999e-01
5.587095940e-01,5.09078e-03,9.99999e-01,9.99999e-01,9.99952e-01,5.09102e-03,9.99999e-01
5.615031420e-01,5.65038e-03,9.99999e-01,9.99999e-01,9.99947e-01,5.65068e-03,9.99999e-01
5.643106577e-01,6.25859e-03,9.99999e-01,9.99999e-01,9.99940e-01,6.25896e-03,9.99999e-01
5.671322110e-01,6.91380e-03,9.99999e-01,9.99999e-01,9.99286e-01,6.91874e-03,9.99999e-01
5.699678720e-01,7.62703e-03,9.99999e-01,9.99999e-01,9.99226e-01,7.63294e-03,9.99999e-01
5.728177114e-01,8.39782e-03,9.99999e-01,9.99999e-01,9.99200e-01,8.40454e-03,9.99999e-01
5.756818000e-01,9.22976e-03,9.99999e-01,9.99999e-01,9.99264e-01,9.23655e-03,9.99999e-01
5.785602090e-01,1.01255e-02,9.99999e-01,9.99999e-01,9.99358e-01,1.01320e-02,9.99999e-01
5.814530100e-01,1.10869e-02,9.99999e-01,9.99999e-01,9.99356e-01,1.10940e-02,9.99999e-01
5.843602750e-01,1.21163e-02,9.99999e-01,9.99999e-01,9.99237e-01,1.21256e-02,9.99999e-01
5.872820764e-01,1.31430e-02,9.99999e-01,9.99999e-01,9.93436e-01,1.32298e-02,9.99999e-01
5.902184868e-01,1.42945e-02,9.99999e-01,9.99999e-01,9.91999e-01,1.44098e-02,9.99999e-01
5.931695792e-01,1.55801e-02,9.99999e-01,9.99999e-01,9.94356e-01,1.56686e-02,9.99999e-01
5.961354271e-01,1.69037e-02,9.99999e-01,9.99999e-01,9.93803e-01,1.70091e-02,9.99999e-01
5.991161043e-01,1.83510e-02,9.99999e-01,9.99999e-01,9.95474e-01,1.84345e-02,9.99999e-01
6.021116848e-01,1.98962e-02,9.99999e-01,9.99999e-01,9.97427e-01,1.99475e-02,9.99999e-01
6.051222432e-01,2.15231e-02,9.99999e-01,9.99999e-01,9.98697e-01,2.15511e-02,9.99999e-01
6.081478544e-01,2.32351e-02,9.99999e-01,9.99999e-01,9.99438e-01,2.32481e-02,9.99999e-01
6.111885937e-01,2.50353e-02,9.99999e-01,9.99999e-01,9.99761e-01,2.50412e-02,9.99999e-01
6.142445367e-01,2.69302e-02,9.99999e-01,9.99999e-01,9.99893e-01,2.69331e-02,9.99999e-01
6.173157594e-01,2.89246e-02,9.99999e-01,9.99999e-01,9.99941e-01,2.89262e-02,9.99999e-01
6.204023382e-01,3.10216e-02,9.99999e-01,9.99999e-01,9.99950e-01,3.10231e-02,9.99999e-01
6.235043498e-01,3.32189e-02,9.99999e-01,9.99999e-01,9.99784e-01,3.32260e-02,9.99999e-01
6.266218716e-01,3.54962e-02,9.99999e-01,9.99999e-01,9.98848e-01,3.55372e-02,9.99999e-01
6.297549810e-01,3.79426e-02,9.99999e-01,9.99999e-01,9.99577e-01,3.79586e-02,9.99999e-01
6.329037559e-01,4.04584e-02,9.99999e-01,9.99999e-01,9.99163e-01,4.04923e-02,9.99999e-01
6.360682746e-01,4.31094e-02,9.99999e-01,9.99999e-01,9.99289e-01,4.31400e-02,9.99999e-01
6.392486160e-01,4.58611e-02,9.99999e-01,9.99999e-01,9.99078e-01,4.59034e-02,9.99999e-01
6.424448591e-01,4.87241e-02,9.99999e-01,9.99999e-01,9.98773e-01,4.87839e-02,9.99999e-01
6.456570834e-01,5.14885e-02,9.99999e-01,9.99999e-01,9.94313e-01,5.17829e-02,9.99999e-01
6.488853688e-01,5.46319e-02,9.99999e-01,9.99999e-01,9.95088e-01,5.49015e-02,9.99999e-01
6.521297956e-01,5.78921e-02,9.99999e-01,9.99999e-01,9.95722e-01,5.81408e-02,9.99999e-01
6.553904446e-01,6.12415e-02,9.99999e-01,9.99999e-01,9.95773e-01,6.15015e-02,9.99999e-01
6.586673968e-01,6.47472e-02,9.99999e-01,9.99999e-01,9.96351e-01,6.49842e-02,9.99999e-01
6.619607338e-01,6.84448e-02,9.99999e-01,9.99999e-01,9.97889e-01,6.85895e-02,9.99999e-01
6.652705375e-01,7.22292e-02,9.99999e-01,9.99999e-01,9.98775e-01,7.23177e-02,9.99999e-01
6.685968902e-01,7.61256e-02,9.99999e-01,9.99999e-01,9.99431e-01,7.61688e-02,9.99999e-01
6.719398746e-01,8.01218e-02,9.99999e-01,9.99999e-01,9.99735e-01,8.01429e-02,9.99999e-01
6.752995740e-01,8.42276e-02,9.99999e-01,9.99999e-01,9.99857e-01,8.42396e-02,9.99999e-01
6.786760719e-01,8.84405e-02,9.99999e-01,9.99999e-01,9.99794e-01,8.84586e-02,9.99999e-01
6.820694522e-01,9.27667e-02,9.99999e-01,9.99999e-01,9.99648e-01,9.27993e-02,9.99999e-01
6.854797995e-01,9.72169e-02,9.99999e-01,9.99999e-01,9.99547e-01,9.72609e-02,9.99999e-01
6.889071985e-01,1.01732e-01,9.99999e-01,9.99999e-01,9.98915e-01,1.01842e-01,9.99999e-01
6.923517345e-01,1.04656e-01,9.99999e-01,9.99999e-01,9.82291e-01,1.06543e-01,9.99999e-01
6.958134932e-01,1.10318e-01,9.99999e-01,9.99999e-01,9.90631e-01,1.11361e-01,9.99999e-01
6.992925606e-01,1.15273e-01,9.99999e-01,9.99999e-01,9.91211e-01,1.16295e-01,9.99999e-01
7.027890234e-01,1.20022e-01,9.99999e-01,9.99999e-01,9.89099e-01,1.21345e-01,9.99999e-01
7.063029686e-01,1.25347e-01,9.99999e-01,9.99999e-01,9.90832e-01,1.26507e-01,9.99999e-01
7.098344834e-01,1.30620e-01,9.99999e-01,9.99999e-01,9.91201e-01,1.31780e-01,9.99999e-01
7.133836558e-01,1.35570e-01,9.99999e-01,9.99999e-01,9.88394e-01,1.37162e-01,9.99999e-01
7.169505741e-01,1.29853e-01,9.99999e-01,9.99999e-01,9.10283e-01,1.42651e-01,9.99998e-01
7.205353270e-01,1.41494e-01,9.99999e-01,9.99999e-01,9.54460e-01,1.48245e-01,9.99998e-01
7.241380036e-01,1.45174e-01,9.99999e-01,9.99999e-01,9.43045e-01,1.53942e-01,9.99998e-01
7.277586936e-01,1.51501e-01,9.99999e-01,9.99999e-01,9.48433e-01,1.59738e-01,9.99998e-01
7.313974871e-01,1.56515e-01,9.99999e-01,9.99999e-01,9.44963e-01,1.65631e-01,9.99998e-01
7.350544745e-01,1.66399e-01,9.99999e-01,9.99999e-01,9.69579e-01,1.71619e-01,9.99999e-01
7.387297469e-01,1.73702e-01,9.99999e-01,9.99999e-01,9.77504e-01,1.77699e-01,9.99999e-01
7.424233956e-01,1.81829e-01,9.99999e-01,9.99999e-01,9.88912e-01,1.83868e-01,9.99999e-01
7.461355126e-01,1.88844e-01,9.99999e-01,9.99999e-01,9.93274e-01,1.90123e-01,9.99999e-01
7.498661902e-01,1.95843e-01,9.99999e-01,9.99999e-01,9.96858e-01,1.96460e-01,9.99999e-01
7.536155211e-01,2.02565e-01,9.99999e-01,9.99999e-01,9.98460e-01,2.02878e-01,9.99999e-01
7.573835987e-01,2.09206e-01,9.99999e-01,9.99999e-01,9.99207e-01,2.09372e-01,9.99999e-01
7.611705167e-01,2.15833e-01,9.99999e-01,9.99999e-01,9.99507e-01,2.15939e-01,9.99999e-01
7.649763693e-01,2.22508e-01,9.99999e-01,9.99999e-01,9.99691e-01,2.22577e-01,9.99999e-01
7.688012511e-01,2.29232e-01,9.99999e-01,9.99999e-01,9.99785e-01,2.29282e-01,9.99999e-01
7.726452574e-01,2.36008e-01,9.99999e-01,9.99999e-01,9.99823e-01,2.36050e-01,9.99999e-01
7.765084837e-01,2.42817e-01,9.99999e-01,9.99999e-01,9.99750e-01,2.42878e-01,9.99999e-01
7.803910261e-01,2.35034e-01,9.99999e-01,9.41984e-01,9.98923e-01,2.49763e-01,9.99999e-01
7.842929812e-01,1.92138e-01,9.99999e-01,7.51067e-01,9.96246e-01,2.56702e-01,9.99999e-01
7.882144461e-01,1.93297e-01,9.99999e-01,7.38383e-01,9.92234e-01,2.63690e-01,9.99999e-01
7.921555184e-01,2.24888e-01,9.99999e-01,8.34103e-01,9.95721e-01,2.70725e-01,9.99999e-01
7.961162960e-01,2.43926e-01,9.99999e-01,8.84564e-01,9.92504e-01,2.77803e-01,9.99999e-01
8.000968774e-01,2.64295e-01,9.99999e-01,9.35692e-01,9.91311e-01,2.84921e-01,9.99999e-01
8.040973618e-01,2.79716e-01,9.99999e-01,9.66037e-01,9.91317e-01,2.92076e-01,9.99999e-01
8.081178486e-01,2.88873e-01,9.99999e-01,9.84303e-01,9.80622e-01,2.99263e-01,9.99999e-01
8.121584379e-01,2.81117e-01,9.99999e-01,9.95098e-01,9.21674e-01,3.06480e-01,9.99998e-01
8.162192301e-01,2.84304e-01,9.99999e-01,9.98915e-01,9.07174e-01,3.13724e-01,9.99998e-01
8.203003262e-01,3.06047e-01,9.99999e-01,9.99982e-01,9.53461e-01,3.20990e-01,9.99998e-01
8.244018279e-01,3.06843e-01,9.99999e-01,9.99999e-01,9.34708e-01,3.28277e-01,9.99998e-01
8.285238370e-01,3.16681e-01,9.99999e-01,9.99999e-01,9.43685e-01,3.35579e-01,9.99998e-01
8.326664562e-01,3.23338e-01,9.99999e-01,9.99999e-01,9.42964e-01,3.42896e-01,9.99998e-01
8.368297885e-01,3.35798e-01,9.99999e-01,9.99999e-01,9.58813e-01,3.50222e-01,9.99999e-01
8.410139374e-01,3.48728e-01,9.99999e-01,9.99999e-01,9.75309e-01,3.57556e-01,9.99999e-01
8.452190071e-01,3.60445e-01,9.99999e-01,9.99999e-01,9.87806e-01,3.64894e-01,9.99999e-01
8.494451021e-01,3.69600e-01,9.99999e-01,9.99999e-01,9.92926e-01,3.72233e-01,9.99999e-01
8.536923276e-01,3.77977e-01,9.99999e-01,9.99999e-01,9.95802e-01,3.79570e-01,9.99999e-01
8.579607893e-01,3.85905e-01,9.99999e-01,9.99999e-01,9.97418e-01,3.86903e-01,9.99999e-01
8.622505932e-01,3.93581e-01,9.99999e-01,9.99999e-01,9.98356e-01,3.94229e-01,9.99999e-01
8.665618462e-01,3.59502e-01,9.99999e-01,8.96159e-01,9.98985e-01,4.01544e-01,9.99999e-01
8.708946554e-01,2.00472e-01,9.99999e-01,4.90871e-01,9.98840e-01,4.08847e-01,9.99999e-01
8.752491287e-01,2.31545e-01,9.99999e-01,5.57239e-01,9.98448e-01,4.16134e-01,9.99999e-01
8.796253743e-01,3.04960e-01,9.99999e-01,7.21723e-01,9.97856e-01,4.23403e-01,9.99999e-01
8.840235012e-01,3.62268e-01,9.99999e-01,8.43216e-01,9.97550e-01,4.30652e-01,9.99999e-01
8.884436187e-01,4.05725e-01,9.99999e-01,9.34648e-01,9.91198e-01,4.37878e-01,9.99999e-01
8.928858368e-01,3.94527e-01,9.99999e-01,9.73013e-01,9.10594e-01,4.45080e-01,9.99998e-01
8.973502660e-01,3.80447e-01,9.99999e-01,9.93349e-01,8.46641e-01,4.52253e-01,9.99997e-01
9.018370173e-01,4.21510e-01,9.99999e-01,9.99263e-01,9.18165e-01,4.59398e-01,9.99997e-01
9.063462024e-01,4.25636e-01,9.99999e-01,9.81829e-01,9.28261e-01,4.66511e-01,9.99996e-01
9.108779334e-01,4.04148e-01,9.99999e-01,9.57843e-01,8.90053e-01,4.73590e-01,9.99996e-01
9.154323231e-01,4.16826e-01,9.99999e-01,9.89877e-01,8.75756e-01,4.80633e-01,9.99996e-01
9.200094847e-01,3.86997e-01,9.99999e-01,8.72229e-01,9.01271e-01,4.87640e-01,9.99995e-01
9.246095321e-01,3.44404e-01,9.99999e-01,8.10529e-01,8.53714e-01,4.94606e-01,9.99992e-01
9.292325798e-01,1.55119e-01,9.99999e-01,8.50291e-01,3.54199e-01,5.01532e-01,9.99984e-01
9.338787427e-01,1.16222e-01,9.99999e-01,8.53314e-01,2.61071e-01,5.08415e-01,9.99979e-01
9.385481364e-01,2.68796e-01,9.99999e-01,8.89579e-01,5.79746e-01,5.15254e-01,9.99978e-01
9.432408771e-01,2.33917e-01,9.99999e-01,9.30565e-01,4.78392e-01,5.22047e-01,9.99976e-01
9.479570815e-01,1.85985e-01,9.99999e-01,9.63805e-01,3.63768e-01,5.28793e-01,9.99979e-01
9.526968669e-01,2.42561e-01,9.99999e-01,9.82369e-01,4.59954e-01,5.35490e-01,9.99984e-01
9.574603512e-01,2.59179e-01,9.99999e-01,9.92417e-01,4.81296e-01,5.42137e-01,9.99988e-01
9.622476530e-01,3.00045e-01,9.99999e-01,9.97627e-01,5.47959e-01,5.48733e-01,9.99991e-01
9.670588912e-01,3.91843e-01,9.99999e-01,9.99287e-01,7.06130e-01,5.55277e-01,9.99994e-01
9.718941857e-01,4.50902e-01,9.99999e-01,9.99948e-01,8.02686e-01,5.61767e-01,9.99996e-01
9.767536566e-01,4.73398e-01,9.99999e-01,9.99999e-01,8.33151e-01,5.68202e-01,9.99997e-01
9.816374249e-01,5.01634e-01,9.99999e-01,9.99999e-01,8.73042e-01,5.74582e-01,9.99998e-01
9.865456120e-01,5.33596e-01,9.99999e-01,9.99999e-01,9.18559e-01,5.80906e-01,9.99998e-01
9.914783401e-01,5.57124e-01,9.99999e-01,9.99999e-01,9.48827e-01,5.87172e-01,9.99999e-01
9.964357318e-01,5.76643e-01,9.99999e-01,9.99999e-01,9.71794e-01,5.93379e-01,9.99999e-01
1.001417910e+00,5.89333e-01,9.99999e-01,9.99999e-01,9.82994e-01,5.99528e-01,9.99999e-01
1.006425000e+00,5.99734e-01,9.99999e-01,9.99999e-01,9.90284e-01,6.05618e-01,9.99999e-01
1.011457125e+00,6.07946e-01,9.99999e-01,9.99999e-01,9.93948e-01,6.11647e-01,9.99999e-01
1.016514411e+00,6.15078e-01,9.99999e-01,9.99999e-01,9.95892e-01,6.17615e-01,9.99999e-01
1.021596983e+00,6.21425e-01,9.99999e-01,9.99908e-01,9.96727e-01,6.23522e-01,9.99999e-01
1.026704968e+00,6.23279e-01,9.99999e-01,9.92853e-01,9.97448e-01,6.29367e-01,9.99999e-01
1.031838492e+00,5.91886e-01,9.99999e-01,9.33546e-01,9.98142e-01,6.35150e-01,9.99999e-01
1.036997685e+00,5.37492e-02,9.99999e-01,8.39400e-02,9.98897e-01,6.40870e-01,9.99999e-01
1.042182673e+00,1.40129e-02,9.99999e-01,2.16975e-02,9.98688e-01,6.46527e-01,9.99999e-01
1.047393587e+00,2.58365e-02,9.99999e-01,3.96783e-02,9.98259e-01,6.52120e-01,9.99999e-01
1.052630555e+00,5.32772e-05,9.99999e-01,8.11411e-05,9.97614e-01,6.57651e-01,9.99999e-01
1.057893707e+00,1.80501e-04,9.99999e-01,2.72827e-04,9.96024e-01,6.63117e-01,9.99999e-01
1.063183176e+00,1.47274e-03,9.99999e-01,2.21214e-03,9.93460e-01,6.68520e-01,9.99999e-01
1.068499092e+00,7.89530e-03,9.99999e-01,1.18135e-02,9.89062e-01,6.73859e-01,9.99999e-01
1.073841587e+00,3.96035e-02,9.99999e-01,5.89022e-02,9.87230e-01,6.79133e-01,9.99999e-01
1.079210795e+00,1.12642e-01,9.99999e-01,1.66913e-01,9.83624e-01,6.84344e-01,9.99999e-01
1.084606849e+00,2.47539e-01,9.99999e-01,3.67329e-01,9.75348e-01,6.89490e-01,9.99998e-01
1.090029883e+00,3.98362e-01,9.99999e-01,5.93300e-01,9.64926e-01,6.94572e-01,9.99998e-01
1.095480033e+00,4.91354e-01,9.99999e-01,7.72638e-01,9.07203e-01,6.99590e-01,9.99997e-01
1.100957433e+00,4.87400e-01,9.99999e-01,8.82882e-01,7.81650e-01,7.04545e-01,9.99995e-01
1.106462220e+00,3.65568e-01,9.99999e-01,9.49718e-01,5.40794e-01,7.09435e-01,9.99990e-01
1.111994531e+00,1.95574e-01,9.99999e-01,9.81050e-01,2.78452e-01,7.14262e-01,9.99980e-01
1.117554504e+00,9.36256e-02,9.99999e-01,9.95326e-01,1.30642e-01,7.19025e-01,9.99973e-01
1.123142276e+00,1.71344e-01,9.99999e-01,9.99691e-01,2.36779e-01,7.23726e-01,9.99968e-01
1.128757988e+00,2.78843e-01,9.99999e-01,9.99999e-01,3.82849e-01,7.28363e-01,9.99965e-01
1.134401778e+00,1.31644e-01,9.99999e-01,9.99999e-01,1.79619e-01,7.32937e-01,9.99961e-01
1.140073787e+00,4.09987e-01,9.99999e-01,9.99999e-01,5.55970e-01,7.37449e-01,9.99969e-01
1.145774156e+00,2.26116e-01,9.99999e-01,9.99999e-01,3.04788e-01,7.41899e-01,9.99973e-01
1.151503026e+00,2.01173e-01,9.99999e-01,9.99999e-01,2.69571e-01,7.46286e-01,9.99977e-01
1.157260541e+00,2.40578e-01,9.99999e-01,9.99999e-01,3.20514e-01,7.50613e-01,9.99982e-01
1.163046844e+00,3.23478e-01,9.99999e-01,9.99999e-01,4.28521e-01,7.54878e-01,9.99988e-01
1.168862078e+00,4.17574e-01,9.99999e-01,9.99999e-01,5.50107e-01,7.59083e-01,9.99994e-01
1.174706389e+00,5.27629e-01,9.99999e-01,9.99999e-01,6.91315e-01,7.63227e-01,9.99996e-01
1.180579921e+00,6.12415e-01,9.99999e-01,9.99999e-01,7.98132e-01,7.67311e-01,9.99997e-01
1.186482820e+00,6.78852e-01,9.99999e-01,9.99989e-01,8.80108e-01,7.71336e-01,9.99998e-01
1.192415234e+00,7.02112e-01,9.99999e-01,9.75177e-01,9.28147e-01,7.75302e-01,9.99998e-01
1.198377311e+00,4.00447e-01,9.99999e-01,5.41544e-01,9.39176e-01,7.79209e-01,9.99998e-01
1.204369197e+00,1.08678e-19,9.99999e-01,1.43633e-19,9.42388e-01,7.83058e-01,9.99998e-01
1.210391043e+00,3.96752e-77,9.99999e-01,5.20393e-77,9.44784e-01,7.86850e-01,9.99998e-01
1.216442998e+00,7.40957e-67,9.99999e-01,9.65675e-67,9.52768e-01,7.90584e-01,9.99999e-01
1.222525213e+00,7.33749e-66,9.99999e-01,9.41883e-66,9.63031e-01,7.94262e-01,9.99999e-01
1.228637839e+00,6.19130e-51,9.99999e-01,7.89834e-51,9.74193e-01,7.97884e-01,9.99999e-01
