#,Wave/freq,Total,O2,CO2,H2O,Rayleigh,CIA
4.000000000e-01,2.65743e-06,9.99999e-01,9.99999e-01,9.99974e-01,2.65749e-06,9.99999e-01
4.020000000e-01,3.42537e-06,9.99999e-01,9.99999e-01,9.99983e-01,3.42542e-06,9.99999e-01
4.040100000e-01,4.39202e-06,9.99999e-01,9.99999e-01,9.99992e-01,4.39205e-06,9.99999e-01
4.060300500e-01,5.60385e-06,9.99999e-01,9.99999e-01,9.99998e-01,5.60386e-06,9.99999e-01
4.080602003e-01,7.11570e-06,9.99999e-01,9.99999e-01,9.99999e-01,7.11570e-06,9.99999e-01
4.101005013e-01,8.99289e-06,9.99999e-01,9.99999e-01,9.99999e-01,8.99289e-06,9.99999e-01
4.121510038e-01,1.13128e-05,9.99999e-01,9.99999e-01,9.99998e-01,1.13129e-05,9.99999e-01
4.142117588e-01,1.41669e-05,9.99999e-01,9.99999e-01,9.99992e-01,1.41670e-05,9.99999e-01
4.162828176e-01,1.76619e-05,9.99999e-01,9.99999e-01,9.99968e-01,1.76624e-05,9.99999e-01
4.183642317e-01,2.19243e-05,9.99999e-01,9.99999e-01,9.99981e-01,2.19247e-05,9.99999e-01
4.204560528e-01,2.70992e-05,9.99999e-01,9.99999e-01,9.99988e-01,2.70995e-05,9.99999e-01
4.225583331e-01,3.33557e-05,9.99999e-01,9.99999e-01,9.99995e-01,3.33558e-05,9.99999e-01
4.246711247e-01,4.08883e-05,9.99999e-01,9.99999e-01,9.99996e-01,4.08884e-05,9.99999e-01
4.267944804e-01,4.99206e-05,9.99999e-01,9.99999e-01,9.99994e-01,4.99209e-05,9.99999e-01
4.289284528e-01,6.07086e-05,9.99999e-01,9.99999e-01,9.99995e-01,6.07088e-05,9.99999e-01
4.310730950e-01,7.35431e-05,9.99999e-01,9.99999e-01,9.99997e-01,7.35432e-05,9.99999e-01
4.332284605e-01,8.87541e-05,9.99999e-01,9.99999e-01,9.99999e-01,8.87542e-05,9.99999e-01
4.353946028e-01,1.06714e-04,9.99999e-01,9.99999e-01,9.99999e-01,1.06714e-04,9.99999e-01
4.375715758e-01,1.27842e-04,9.99999e-01,9.99999e-01,9.99996e-01,1.27842e-04,9.99999e-01
4.397594337e-01,1.52604e-04,9.99999e-01,9.99999e-01,9.99971e-01,1.52608e-04,9.99999e-01
4.419582309e-01,1.81510e-04,9.99999e-01,9.99999e-01,9.99859e-01,1.81535e-04,9.99999e-01
4.441680220e-01,2.15184e-04,9.99999e-01,9.99999e-01,9.99891e-01,2.15207e-04,9.99999e-01
4.463888621e-01,2.54239e-04,9.99999e-01,9.99999e-01,9.99886e-01,2.54268e-04,9.99999e-01
4.486208064e-01,2.99409e-04,9.99999e-01,9.99999e-01,9.99929e-01,2.99430e-04,9.99999e-01
4.508639105e-01,3.51466e-04,9.99999e-01,9.99999e-01,9.99966e-01,3.51477e-04,9.99999e-01
4.531182300e-01,4.11262e-04,9.99999e-01,9.99999e-01,9.99986e-01,4.11268e-04,9.99999e-01
4.553838212e-01,4.79734e-04,9.99999e-01,9.99999e-01,9.99990e-01,4.79738e-04,9.99999e-01
4.576607403e-01,5.57905e-04,9.99999e-01,9.99999e-01,9.99995e-01,5.57908e-04,9.99999e-01
4.599490440e-01,6.46881e-04,9.99999e-01,9.99999e-01,9.99996e-01,6.46883e-04,9.99999e-01
4.622487892e-01,7.47859e-04,9.99999e-01,9.99999e-01,9.99999e-01,7.47859e-04,9.99999e-01
4.645600332e-01,8.62122e-04,9.99999e-01,9.99999e-01,9.99997e-01,8.62124e-04,9.99999e-01
4.668828333e-01,9.91027e-04,9.99999e-01,9.99999e-01,9.99966e-01,9.91059e-04,9.99999e-01
4.692172475e-01,1.13607e-03,9.99999e-01,9.99999e-01,9.99928e-01,1.13615e-03,9.99999e-01
4.715633337e-01,1.29890e-03,9.99999e-01,9.99999e-01,9.99953e-01,1.29896e-03,9.99999e-01
4.739211504e-01,1.48112e-03,9.99999e-01,9.99999e-01,9.99955e-01,1.48119e-03,9.99999e-01
4.762907561e-01,1.68457e-03,9.99999e-01,9.99999e-01,9.99976e-01,1.68460e-03,9.99999e-01
4.786722099e-01,1.91107e-03,9.99999e-01,9.99999e-01,9.99990e-01,1.91109e-03,9.99999e-01
4.810655710e-01,2.16263e-03,9.99999e-01,9.99999e-01,9.99996e-01,2.16263e-03,9.99999e-01
4.834708988e-01,2.44125e-03,9.99999e-01,9.99999e-01,9.99972e-01,2.44131e-03,9.99999e-01
4.858882533e-01,2.74918e-03,9.99999e-01,9.99999e-01,9.99949e-01,2.74931e-03,9.99999e-01
4.883176946e-01,3.08879e-03,9.99999e-01,9.99999e-01,9.99957e-01,3.08891e-03,9.99999e-01
4.907592831e-01,3.46236e-03,9.99999e-01,9.99999e-01,9.99961e-01,3.46249e-03,9.99999e-01
4.932130795e-01,3.87240e-03,9.99999e-01,9.99999e-01,9.99972e-01,3.87250e-03,9.99999e-01
4.956791449e-01,4.32144e-03,9.99999e-01,9.99999e-01,9.99985e-01,4.32150e-03,9.99999e-01
4.981575406e-01,4.81178e-03,9.99999e-01,9.99999e-01,9.99928e-01,4.81212e-03,9.99999e-01
5.006483283e-01,5.34608e-03,9.99999e-01,9.99999e-01,9.99813e-01,5.34708e-03,9.99999e-01
5.031515699e-01,5.92359e-03,9.99999e-01,9.99999e-01,9.99063e-01,5.92914e-03,9.99999e-01
5.056673278e-01,6.55793e-03,9.99999e-01,9.99999e-01,9.99507e-01,6.56116e-03,9.99999e-01
5.081956644e-01,7.24154e-03,9.99999e-01,9.99999e-01,9.99378e-01,7.24604e-03,9.99999e-01
5.107366428e-01,7.98338e-03,9.99999e-01,9.99999e-01,9.99580e-01,7.98673e-03,9.99999e-01
5.132903260e-01,8.78412e-03,9.99999e-01,9.99999e-01,9.99760e-01,8.78623e-03,9.99999e-01
5.158567776e-01,9.64658e-03,9.99999e-01,9.99999e-01,9.99898e-01,9.64756e-03,9.99999e-01
5.184360615e-01,1.05733e-02,9.99999e-01,9.99999e-01,9.99959e-01,1.05738e-02,9.99999e-01
5.210282418e-01,1.15678e-02,9.99999e-01,9.99999e-01,9.99984e-01,1.15680e-02,9.99999e-01
5.236333830e-01,1.26324e-02,9.99999e-01,9.99999e-01,9.99938e-01,1.26332e-02,9.99999e-01
5.262515499e-01,1.37719e-02,9.99999e-01,9.99999e-01,9.99961e-01,1.37725e-02,9.99999e-01
5.288828077e-01,1.49884e-02,9.99999e-01,9.99999e-01,9.99964e-01,1.49889e-02,9.99999e-01
5.315272217e-01,1.62851e-02,9.99999e-01,9.99999e-01,9.99968e-01,1.62856e-02,9.99999e-01
5.341848578e-01,1.76651e-02,9.99999e-01,9.99999e-01,9.99979e-01,1.76655e-02,9.99999e-01
5.368557821e-01,1.91301e-02,9.99999e-01,9.99999e-01,9.99928e-01,1.91315e-02,9.99999e-01
5.395400610e-01,2.06812e-02,9.99999e-01,9.99999e-01,9.99741e-01,2.06866e-02,9.99999e-01
5.422377613e-01,2.23262e-02,9.99999e-01,9.99999e-01,9.99669e-01,2.23336e-02,9.99999e-01
5.449489501e-01,2.40678e-02,9.99999e-01,9.99999e-01,9.99691e-01,2.40752e-02,9.99999e-01
5.476736949e-01,2.59072e-02,9.99999e-01,9.99999e-01,9.99727e-01,2.59142e-02,9.99999e-01
5.504120634e-01,2.78477e-02,9.99999e-01,9.99999e-01,9.99802e-01,2.78532e-02,9.99999e-01
5.531641237e-01,2.98916e-02,9.99999e-01,9.99999e-01,9.99900e-01,2.98946e-02,9.99999e-01
5.559299443e-01,3.20392e-02,9.99999e-01,9.99999e-01,9.99951e-01,3.20408e-02,9.99999e-01
5.587095940e-01,3.42930e-02,9.99999e-01,9.99999e-01,9.99969e-01,3.42941e-02,9.99999e-01
5.615031420e-01,3.66554e-02,9.99999e-01,9.99999e-01,9.99966e-01,3.66566e-02,9.99999e-01
5.643106577e-01,3.91288e-02,9.99999e-01,9.99999e-01,9.99961e-01,3.91303e-02,9.99999e-01
5.671322110e-01,4.16977e-02,9.99999e-01,9.99999e-01,9.99531e-01,4.17172e-02,9.99999e-01
5.699678720e-01,4.43971e-02,9.99999e-01,9.99999e-01,9.99511e-01,4.44188e-02,9.99999e-01
5.728177114e-01,4.72127e-02,9.99999e-01,9.99999e-01,9.99487e-01,4.72369e-02,9.99999e-01
5.756818000e-01,5.01491e-02,9.99999e-01,9.99999e-01,9.99530e-01,5.01727e-02,9.99999e-01
5.785602090e-01,5.32058e-02,9.99999e-01,9.99999e-01,9.99590e-01,5.32275e-02,9.99999e-01
5.814530100e-01,5.63793e-02,9.99999e-01,9.99999e-01,9.99588e-01,5.64025e-02,9.99999e-01
5.843602750e-01,5.96691e-02,9.99999e-01,9.99999e-01,9.99506e-01,5.96985e-02,9.99999e-01
5.872820764e-01,6.28486e-02,9.99999e-01,9.99999e-01,9.95759e-01,6.31162e-02,9.99999e-01
5.902184868e-01,6.63160e-02,9.99999e-01,9.99999e-01,9.94894e-01,6.66563e-02,9.99999e-01
5.931695792e-01,7.00648e-02,9.99999e-01,9.99999e-01,9.96384e-01,7.03191e-02,9.99999e-01
5.961354271e-01,7.38116e-02,9.99999e-01,9.99999e-01,9.96042e-01,7.41048e-02,9.99999e-01
5.991161043e-01,7.77885e-02,9.99999e-01,9.99999e-01,9.97115e-01,7.80135e-02,9.99999e-01
6.021116848e-01,8.19108e-02,9.99999e-01,9.99999e-01,9.98363e-01,8.20450e-02,9.99999e-01
6.051222432e-01,8.61276e-02,9.99999e-01,9.99999e-01,9.99171e-01,8.61990e-02,9.99999e-01
6.081478544e-01,9.04427e-02,9.99999e-01,9.99999e-01,9.99642e-01,9.04750e-02,9.99999e-01
6.111885937e-01,9.48581e-02,9.99999e-01,9.99999e-01,9.99848e-01,9.48724e-02,9.99999e-01
6.142445367e-01,9.93835e-02,9.99999e-01,9.99999e-01,9.99932e-01,9.93903e-02,9.99999e-01
6.173157594e-01,1.04024e-01,9.99999e-01,9.99999e-01,9.99962e-01,1.04028e-01,9.99999e-01
6.204023382e-01,1.08780e-01,9.99999e-01,9.99999e-01,9.99967e-01,1.08783e-01,9.99999e-01
6.235043498e-01,1.13640e-01,9.99999e-01,9.99999e-01,9.99858e-01,1.13656e-01,9.99999e-01
6.266218716e-01,1.18557e-01,9.99999e-01,9.99999e-01,9.99263e-01,1.18644e-01,9.99999e-01
6.297549810e-01,1.23713e-01,9.99999e-01,9.99999e-01,9.99729e-01,1.23747e-01,9.99999e-01
6.329037559e-01,1.28892e-01,9.99999e-01,9.99999e-01,9.99466e-01,1.28961e-01,9.99999e-01
6.360682746e-01,1.34224e-01,9.99999e-01,9.99999e-01,9.99544e-01,1.34285e-01,9.99999e-01
6.392486160e-01,1.39636e-01,9.99999e-01,9.99999e-01,9.99410e-01,1.39718e-01,9.99999e-01
6.424448591e-01,1.45141e-01,9.99999e-01,9.99999e-01,9.99206e-01,1.45256e-01,9.99999e-01
6.456570834e-01,1.50344e-01,9.99999e-01,9.99999e-01,9.96322e-01,1.50899e-01,9.99999e-01
6.488853688e-01,1.56223e-01,9.99999e-01,9.99999e-01,9.97326e-01,1.56642e-01,9.99999e-01
6.521297956e-01,1.62041e-01,9.99999e-01,9.99999e-01,9.97275e-01,1.62484e-01,9.99999e-01
6.553904446e-01,1.67964e-01,9.99999e-01,9.99999e-01,9.97279e-01,1.68422e-01,9.99999e-01
6.586673968e-01,1.74048e-01,9.99999e-01,9.99999e-01,9.97676e-01,1.74454e-01,9.99999e-01
6.619607338e-01,1.80342e-01,9.99999e-01,9.99999e-01,9.98704e-01,1.80575e-01,9.99999e-01
6.652705375e-01,1.86640e-01,9.99999e-01,9.99999e-01,9.99222e-01,1.86785e-01,9.99999e-01
6.685968902e-01,1.93015e-01,9.99999e-01,9.99999e-01,9.99669e-01,1.93079e-01,9.99999e-01
6.719398746e-01,1.99421e-01,9.99999e-01,9.99999e-01,9.99832e-01,1.99454e-01,9.99999e-01
6.752995740e-01,2.05889e-01,9.99999e-01,9.99999e-01,9.99911e-01,2.05908e-01,9.99999e-01
6.786760719e-01,2.12408e-01,9.99999e-01,9.99999e-01,9.99867e-01,2.12436e-01,9.99999e-01
6.820694522e-01,2.18988e-01,9.99999e-01,9.99999e-01,9.99774e-01,2.19037e-01,9.99999e-01
6.854797995e-01,2.25641e-01,9.99999e-01,9.99999e-01,9.99709e-01,2.25707e-01,9.99999e-01
6.889071985e-01,2.32277e-01,9.99999e-01,9.99999e-01,9.99290e-01,2.32441e-01,9.99999e-01
6.923517345e-01,2.36497e-01,9.99999e-01,9.99999e-01,9.88539e-01,2.39238e-01,9.99999e-01
6.958134932e-01,2.44644e-01,9.99999e-01,9.99999e-01,9.94110e-01,2.46093e-01,9.99999e-01
6.992925606e-01,2.51569e-01,9.99999e-01,9.99999e-01,9.94326e-01,2.53004e-01,9.99999e-01
7.027890234e-01,2.58156e-01,9.99999e-01,9.99999e-01,9.93035e-01,2.59966e-01,9.99999e-01
7.063029686e-01,2.65412e-01,9.99999e-01,9.99999e-01,9.94138e-01,2.66977e-01,9.99999e-01
7.098344834e-01,2.72492e-01,9.99999e-01,9.99999e-01,9.94375e-01,2.74033e-01,9.99999e-01
7.133836558e-01,2.79007e-01,9.99999e-01,9.99999e-01,9.92447e-01,2.81130e-01,9.99999e-01
7.169505741e-01,2.71264e-01,9.99999e-01,9.99999e-01,9.41022e-01,2.88265e-01,9.99998e-01
7.205353270e-01,2.86885e-01,9.99999e-01,9.99999e-01,9.71057e-01,2.95436e-01,9.99998e-01
7.241380036e-01,2.91437e-01,9.99999e-01,9.99999e-01,9.62990e-01,3.02637e-01,9.99998e-01
7.277586936e-01,2.99507e-01,9.99999e-01,9.99999e-01,9.66565e-01,3.09867e-01,9.99998e-01
7.313974871e-01,3.05906e-01,9.99999e-01,9.99999e-01,9.64633e-01,3.17122e-01,9.99999e-01
7.350544745e-01,3.18075e-01,9.99999e-01,9.99999e-01,9.80507e-01,3.24398e-01,9.99999e-01
7.387297469e-01,3.26926e-01,9.99999e-01,9.99999e-01,9.85629e-01,3.31693e-01,9.99999e-01
7.424233956e-01,3.36614e-01,9.99999e-01,9.99999e-01,9.92955e-01,3.39002e-01,9.99999e-01
7.461355126e-01,3.44842e-01,9.99999e-01,9.99999e-01,9.95721e-01,3.46324e-01,9.99999e-01
7.498661902e-01,3.52950e-01,9.99999e-01,9.99999e-01,9.98010e-01,3.53654e-01,9.99999e-01
7.536155211e-01,3.60637e-01,9.99999e-01,9.99999e-01,9.99021e-01,3.60990e-01,9.99999e-01
7.573835987e-01,3.68143e-01,9.99999e-01,9.99999e-01,9.99496e-01,3.68329e-01,9.99999e-01
7.611705167e-01,3.75550e-01,9.99999e-01,9.99999e-01,9.99686e-01,3.75667e-01,9.99999e-01
7.649763693e-01,3.82928e-01,9.99999e-01,9.99999e-01,9.99803e-01,3.83003e-01,9.99999e-01
7.688012511e-01,3.90279e-01,9.99999e-01,9.99999e-01,9.99862e-01,3.90333e-01,9.99999e-01
7.726452574e-01,3.97609e-01,9.99999e-01,9.99999e-01,9.99886e-01,3.97654e-01,9.99999e-01
7.765084837e-01,4.04898e-01,9.99999e-01,9.99999e-01,9.99838e-01,4.04963e-01,9.99999e-01
7.803910261e-01,3.94739e-01,9.99999e-01,9.58142e-01,9.99303e-01,4.12259e-01,9.99999e-01
7.842929812e-01,3.47810e-01,9.99999e-01,8.30930e-01,9.97571e-01,4.19538e-01,9.99999e-01
7.882144461e-01,3.48146e-01,9.99999e-01,8.19593e-01,9.95031e-01,4.26799e-01,9.99999e-01
7.921555184e-01,3.85151e-01,9.99999e-01,8.89717e-01,9.97282e-01,4.34037e-01,9.99999e-01
7.961162960e-01,4.06226e-01,9.99999e-01,9.25046e-01,9.95163e-01,4.41252e-01,9.99999e-01
8.000968774e-01,4.27487e-01,9.99999e-01,9.58586e-01,9.94437e-01,4.48441e-01,9.99999e-01
8.040973618e-01,4.43278e-01,9.99999e-01,9.78388e-01,9.94430e-01,4.55601e-01,9.99999e-01
8.081178486e-01,4.52352e-01,9.99999e-01,9.89992e-01,9.87429e-01,4.62731e-01,9.99999e-01
8.121584379e-01,4.44356e-01,9.99999e-01,9.96920e-01,9.48670e-01,4.69828e-01,9.99998e-01
8.162192301e-01,4.47859e-01,9.99999e-01,9.99318e-01,9.39746e-01,4.76891e-01,9.99998e-01
8.203003262e-01,4.69007e-01,9.99999e-01,9.99990e-01,9.69197e-01,4.83917e-01,9.99998e-01
8.244018279e-01,4.70249e-01,9.99999e-01,9.99999e-01,9.57922e-01,4.90905e-01,9.99998e-01
8.285238370e-01,4.79658e-01,9.99999e-01,9.99999e-01,9.63452e-01,4.97853e-01,9.99998e-01
8.326664562e-01,4.86165e-01,9.99999e-01,9.99999e-01,9.63162e-01,5.04759e-01,9.99998e-01
8.368297885e-01,4.98106e-01,9.99999e-01,9.99999e-01,9.73582e-01,5.11622e-01,9.99999e-01
8.410139374e-01,5.10263e-01,9.99999e-01,9.99999e-01,9.84228e-01,5.18439e-01,9.99999e-01
8.452190071e-01,5.21137e-01,9.99999e-01,9.99999e-01,9.92244e-01,5.25210e-01,9.99999e-01
8.494451021e-01,5.29531e-01,9.99999e-01,9.99999e-01,9.95483e-01,5.31934e-01,9.99999e-01
8.536923276e-01,5.37171e-01,9.99999e-01,9.99999e-01,9.97333e-01,5.38608e-01,9.99999e-01
8.579607893e-01,5.44334e-01,9.99999e-01,9.99999e-01,9.98353e-01,5.45231e-01,9.99999e-01
8.622505932e-01,5.51226e-01,9.99999e-01,9.99999e-01,9.98955e-01,5.51802e-01,9.99999e-01
8.665618462e-01,5.09791e-01,9.99999e-01,9.13642e-01,9.99352e-01,5.58321e-01,9.99999e-01
8.708946554e-01,3.52807e-01,9.99999e-01,6.25118e-01,9.99257e-01,5.64786e-01,9.99999e-01
8.752491287e-01,3.90543e-01,9.99999e-01,6.84385e-01,9.99007e-01,5.71195e-01,9.99999e-01
8.796253743e-01,4.68006e-01,9.99999e-01,8.11408e-01,9.98622e-01,5.77549e-01,9.99999e-01
8.840235012e-01,5.22943e-01,9.99999e-01,8.97072e-01,9.98427e-01,5.83845e-01,9.99999e-01
8.884436187e-01,5.62186e-01,9.99999e-01,9.58208e-01,9.94204e-01,5.90084e-01,9.99999e-01
8.928858368e-01,5.51566e-01,9.99999e-01,9.82823e-01,9.41027e-01,5.96265e-01,9.99998e-01
8.973502660e-01,5.39134e-01,9.99999e-01,9.95818e-01,8.98662e-01,6.02386e-01,9.99998e-01
9.018370173e-01,5.76050e-01,9.99999e-01,9.99539e-01,9.47175e-01,6.08447e-01,9.99998e-01
9.063462024e-01,5.78721e-01,9.99999e-01,9.87974e-01,9.52880e-01,6.14448e-01,9.99997e-01
9.108779334e-01,5.60234e-01,9.99999e-01,9.72992e-01,9.27726e-01,6.20387e-01,9.99997e-01
9.154323231e-01,5.71598e-01,9.99999e-01,9.93641e-01,9.18397e-01,6.26265e-01,9.99997e-01
9.200094847e-01,5.41090e-01,9.99999e-01,9.11113e-01,9.35623e-01,6.32081e-01,9.99996e-01
9.246095321e-01,5.03613e-01,9.99999e-01,8.74564e-01,9.00184e-01,6.37834e-01,9.99994e-01
9.292325798e-01,2.93737e-01,9.99999e-01,8.99815e-01,5.00628e-01,6.43525e-01,9.99989e-01
9.338787427e-01,2.45033e-01,9.99999e-01,9.03498e-01,4.12634e-01,6.49153e-01,9.99986e-01
9.385481364e-01,4.27171e-01,9.99999e-01,9.28046e-01,6.99447e-01,6.54717e-01,9.99986e-01
9.432408771e-01,3.84959e-01,9.99999e-01,9.55372e-01,6.08496e-01,6.60217e-01,9.99984e-01
9.479570815e-01,3.29457e-01,9.99999e-01,9.76815e-01,5.05918e-01,6.65654e-01,9.99986e-01
9.526968669e-01,3.97753e-01,9.99999e-01,9.88772e-01,5.98794e-01,6.71026e-01,9.99989e-01
9.574603512e-01,4.18020e-01,9.99999e-01,9.95186e-01,6.20819e-01,6.76335e-01,9.99992e-01
9.622476530e-01,4.61583e-01,9.99999e-01,9.98497e-01,6.78174e-01,6.81580e-01,9.99994e-01
9.670588912e-01,5.48483e-01,9.99999e-01,9.99550e-01,7.98992e-01,6.86760e-01,9.99996e-01
9.718941857e-01,6.00933e-01,9.99999e-01,9.99968e-01,8.68580e-01,6.91877e-01,9.99997e-01
9.767536566e-01,6.19975e-01,9.99999e-01,9.99999e-01,8.89582e-01,6.96929e-01,9.99998e-01
9.816374249e-01,6.43689e-01,9.99999e-01,9.99999e-01,9.17044e-01,7.01917e-01,9.99998e-01
9.865456120e-01,6.69614e-01,9.99999e-01,9.99999e-01,9.47332e-01,7.06842e-01,9.99999e-01
9.914783401e-01,6.88284e-01,9.99999e-01,9.99999e-01,9.67095e-01,7.11702e-01,9.99999e-01
9.964357318e-01,7.03567e-01,9.99999e-01,9.99999e-01,9.81950e-01,7.16499e-01,9.99999e-01
1.001417910e+00,7.13406e-01,9.99999e-01,9.99999e-01,9.89146e-01,7.21233e-01,9.99999e-01
1.006425000e+00,7.21397e-01,9.99999e-01,9.99999e-01,9.93791e-01,7.25904e-01,9.99999e-01
1.011457125e+00,7.27698e-01,9.99999e-01,9.99999e-01,9.96149e-01,7.30511e-01,9.99999e-01
1.016514411e+00,7.33132e-01,9.99999e-01,9.99999e-01,9.97381e-01,7.35056e-01,9.99999e-01
1.021596983e+00,7.37944e-01,9.99999e-01,9.99929e-01,9.97912e-01,7.39539e-01,9.99999e-01
1.026704968e+00,7.39242e-01,9.99999e-01,9.95276e-01,9.98371e-01,7.43960e-01,9.99999e-01
1.031838492e+00,7.07326e-01,9.99999e-01,9.46298e-01,9.98817e-01,7.48319e-01,9.99999e-01
1.036997685e+00,9.33426e-02,9.99999e-01,1.24092e-01,9.99296e-01,7.52617e-01,9.99999e-01
1.042182673e+00,5.77601e-02,9.99999e-01,7.63718e-02,9.99159e-01,7.56853e-01,9.99999e-01
1.047393587e+00,7.59395e-02,9.99999e-01,9.98824e-02,9.98886e-01,7.61030e-01,9.99999e-01
1.052630555e+00,1.04712e-03,9.99999e-01,1.37002e-03,9.98470e-01,7.65146e-01,9.99999e-01
1.057893707e+00,3.00620e-03,9.99999e-01,3.91464e-03,9.97445e-01,7.69202e-01,9.99999e-01
1.063183176e+00,1.26520e-02,9.99999e-01,1.64106e-02,9.95802e-01,7.73199e-01,9.99999e-01
1.068499092e+00,4.23998e-02,9.99999e-01,5.48721e-02,9.92985e-01,7.77138e-01,9.99999e-01
1.073841587e+00,1.23817e-01,9.99999e-01,1.59625e-01,9.91784e-01,7.81018e-01,9.99999e-01
1.079210795e+00,2.43162e-01,9.99999e-01,3.12758e-01,9.89506e-01,7.84840e-01,9.99999e-01
1.084606849e+00,4.08877e-01,9.99999e-01,5.26372e-01,9.84137e-01,7.88605e-01,9.99999e-01
1.090029883e+00,5.54923e-01,9.99999e-01,7.16168e-01,9.77200e-01,7.92313e-01,9.99998e-01
1.095480033e+00,6.34743e-01,9.99999e-01,8.48403e-01,9.39163e-01,7.95965e-01,9.99998e-01
1.100957433e+00,6.30488e-01,9.99999e-01,9.23785e-01,8.52732e-01,7.99560e-01,9.99996e-01
1.106462220e+00,5.20178e-01,9.99999e-01,9.67778e-01,6.68316e-01,8.03101e-01,9.99993e-01
1.111994531e+00,3.44599e-01,9.99999e-01,9.87932e-01,4.32001e-01,8.06587e-01,9.99987e-01
1.117554504e+00,2.09934e-01,9.99999e-01,9.97051e-01,2.59774e-01,8.10019e-01,9.99982e-01
1.123142276e+00,3.08020e-01,9.99999e-01,9.99806e-01,3.78721e-01,8.13397e-01,9.99979e-01
1.128757988e+00,4.33061e-01,9.99999e-01,9.99999e-01,5.30254e-01,8.16722e-01,9.99977e-01
1.134401778e+00,2.32125e-01,9.99999e-01,9.99999e-01,2.83087e-01,8.19995e-01,9.99975e-01
1.140073787e+00,5.61223e-01,9.99999e-01,9.99999e-01,6.81757e-01,8.23215e-01,9.99980e-01
1.145774156e+00,3.76091e-01,9.99999e-01,9.99999e-01,4.55111e-01,8.26385e-01,9.99982e-01
1.151503026e+00,3.46253e-01,9.99999e-01,9.99999e-01,4.17428e-01,8.29503e-01,9.99985e-01
1.157260541e+00,3.96959e-01,9.99999e-01,9.99999e-01,4.76791e-01,8.32572e-01,9.99988e-01
1.163046844e+00,4.83012e-01,9.99999e-01,9.99999e-01,5.78052e-01,8.35591e-01,9.99992e-01
1.168862078e+00,5.71838e-01,9.99999e-01,9.99999e-01,6.81930e-01,8.38560e-01,9.99996e-01
1.174706389e+00,6.64328e-01,9.99999e-01,9.99999e-01,7.89475e-01,8.41482e-01,9.99997e-01
1.180579921e+00,7.31098e-01,9.99999e-01,9.99999e-01,8.65866e-01,8.44355e-01,9.99998e-01
1.186482820e+00,7.80871e-01,9.99999e-01,9.99989e-01,9.21736e-01,8.47182e-01,9.99998e-01
1.192415234e+00,7.97068e-01,9.99999e-01,9.83254e-01,9.53518e-01,8.49961e-01,9.99998e-01
1.198377311e+00,4.57539e-01,9.99999e-01,5.54872e-01,9.60637e-01,8.52695e-01,9.99998e-01
1.204369197e+00,2.15451e-13,9.99999e-01,2.57462e-13,9.62747e-01,8.55383e-01,9.99998e-01
1.210391043e+00,4.31212e-50,9.99999e-01,5.12798e-50,9.64345e-01,8.58026e-01,9.99999e-01
1.216442998e+00,1.57485e-43,9.99999e-01,1.86519e-43,9.69631e-01,8.60626e-01,9.99999e-01
1.222525213e+00,6.81658e-43,9.99999e-01,7.99540e-43,9.76261e-01,8.63181e-01,9.99999e-01
1.228637839e+00,3.16887e-33,9.99999e-01,3.70270e-33,9.83450e-01,8.65693e-01,9.99999e-01
