#,Wave/freq,Total,O2,CO2,H2O,Rayleigh,CIA
4.000000000e-01,5.15437e-03,9.99999e-01,9.99999e-01,9.99989e-01,5.15442e-03,9.99999e-01
4.020000000e-01,5.72024e-03,9.99999e-01,9.99999e-01,9.99993e-01,5.72027e-03,9.99999e-01
4.040100000e-01,6.33450e-03,9.99999e-01,9.99999e-01,9.99996e-01,6.33451e-03,9.99999e-01
4.060300500e-01,7.00059e-03,9.99999e-01,9.99999e-01,9.99998e-01,7.00060e-03,9.99999e-01
4.080602003e-01,7.72145e-03,9.99999e-01,9.99999e-01,9.99999e-01,7.72145e-03,9.99999e-01
4.101005013e-01,8.50006e-03,9.99999e-01,9.99999e-01,9.99999e-01,8.50006e-03,9.99999e-01
4.121510038e-01,9.33944e-03,9.99999e-01,9.99999e-01,9.99999e-01,9.33945e-03,9.99999e-01
4.142117588e-01,1.02426e-02,9.99999e-01,9.99999e-01,9.99996e-01,1.02426e-02,9.99999e-01
4.162828176e-01,1.12126e-02,9.99999e-01,9.99999e-01,9.99986e-01,1.12127e-02,9.99999e-01
4.183642317e-01,1.22527e-02,9.99999e-01,9.99999e-01,9.99991e-01,1.22528e-02,9.99999e-01
4.204560528e-01,1.33658e-02,9.99999e-01,9.99999e-01,9.99994e-01,1.33659e-02,9.99999e-01
4.225583331e-01,1.45550e-02,9.99999e-01,9.99999e-01,9.99997e-01,1.45550e-02,9.99999e-01
4.246711247e-01,1.58233e-02,9.99999e-01,9.99999e-01,9.99998e-01,1.58233e-02,9.99999e-01
4.267944804e-01,1.71738e-02,9.99999e-01,9.99999e-01,9.99997e-01,1.71738e-02,9.99999e-01
4.289284528e-01,1.86094e-02,9.99999e-01,9.99999e-01,9.99997e-01,1.86094e-02,9.99999e-01
4.310730950e-01,2.01330e-02,9.99999e-01,9.99999e-01,9.99998e-01,2.01330e-02,9.99999e-01
4.332284605e-01,2.17476e-02,9.99999e-01,9.99999e-01,9.99999e-01,2.17476e-02,9.99999e-01
4.353946028e-01,2.34559e-02,9.99999e-01,9.99999e-01,9.99999e-01,2.34559e-02,9.99999e-01
4.375715758e-01,2.52605e-02,9.99999e-01,9.99999e-01,9.99998e-01,2.52606e-02,9.99999e-01
4.397594337e-01,2.71640e-02,9.99999e-01,9.99999e-01,9.99988e-01,2.71643e-02,9.99999e-01
4.419582309e-01,2.91680e-02,9.99999e-01,9.99999e-01,9.99942e-01,2.91696e-02,9.99999e-01
4.441680220e-01,3.12776e-02,9.99999e-01,9.99999e-01,9.99955e-01,3.12790e-02,9.99999e-01
4.463888621e-01,3.34931e-02,9.99999e-01,9.99999e-01,9.99953e-01,3.34946e-02,9.99999e-01
4.486208064e-01,3.58177e-02,9.99999e-01,9.99999e-01,9.99970e-01,3.58187e-02,9.99999e-01
4.508639105e-01,3.82529e-02,9.99999e-01,9.99999e-01,9.99986e-01,3.82534e-02,9.99999e-01
4.531182300e-01,4.08003e-02,9.99999e-01,9.99999e-01,9.99994e-01,4.08005e-02,9.99999e-01
4.553838212e-01,4.34617e-02,9.99999e-01,9.99999e-01,9.99995e-01,4.34619e-02,9.99999e-01
4.576607403e-01,4.62390e-02,9.99999e-01,9.99999e-01,9.99997e-01,4.62391e-02,9.99999e-01
4.599490440e-01,4.91336e-02,9.99999e-01,9.99999e-01,9.99998e-01,4.91336e-02,9.99999e-01
4.622487892e-01,5.21467e-02,9.99999e-01,9.99999e-01,9.99999e-01,5.21468e-02,9.99999e-01
4.645600332e-01,5.52796e-02,9.99999e-01,9.99999e-01,9.99998e-01,5.52796e-02,9.99999e-01
4.668828333e-01,5.85325e-02,9.99999e-01,9.99999e-01,9.99985e-01,5.85333e-02,9.99999e-01
4.692172475e-01,6.19066e-02,9.99999e-01,9.99999e-01,9.99970e-01,6.19084e-02,9.99999e-01
4.715633337e-01,6.54044e-02,9.99999e-01,9.99999e-01,9.99980e-01,6.54057e-02,9.99999e-01
4.739211504e-01,6.90243e-02,9.99999e-01,9.99999e-01,9.99981e-01,6.90256e-02,9.99999e-01
4.762907561e-01,7.27676e-02,9.99999e-01,9.99999e-01,9.99990e-01,7.27683e-02,9.99999e-01
4.786722099e-01,7.66338e-02,9.99999e-01,9.99999e-01,9.99995e-01,7.66341e-02,9.99999e-01
4.810655710e-01,8.06226e-02,9.99999e-01,9.99999e-01,9.99998e-01,8.06227e-02,9.99999e-01
4.834708988e-01,8.47330e-02,9.99999e-01,9.99999e-01,9.99988e-01,8.47339e-02,9.99999e-01
4.858882533e-01,8.89656e-02,9.99999e-01,9.99999e-01,9.99978e-01,8.89674e-02,9.99999e-01
4.883176946e-01,9.33209e-02,9.99999e-01,9.99999e-01,9.99982e-01,9.33225e-02,9.99999e-01
4.907592831e-01,9.77968e-02,9.99999e-01,9.99999e-01,9.99983e-01,9.77984e-02,9.99999e-01
4.932130795e-01,1.02393e-01,9.99999e-01,9.99999e-01,9.99988e-01,1.02394e-01,9.99999e-01
4.956791449e-01,1.07108e-01,9.99999e-01,9.99999e-01,9.99993e-01,1.07109e-01,9.99999e-01
4.981575406e-01,1.11937e-01,9.99999e-01,9.99999e-01,9.99970e-01,1.11941e-01,9.99999e-01
5.006483283e-01,1.16880e-01,9.99999e-01,9.99999e-01,9.99924e-01,1.16889e-01,9.99999e-01
5.031515699e-01,1.21905e-01,9.99999e-01,9.99999e-01,9.99616e-01,1.21951e-01,9.99999e-01
5.056673278e-01,1.27101e-01,9.99999e-01,9.99999e-01,9.99797e-01,1.27127e-01,9.99999e-01
5.081956644e-01,1.32379e-01,9.99999e-01,9.99999e-01,9.99744e-01,1.32413e-01,9.99999e-01
5.107366428e-01,1.37784e-01,9.99999e-01,9.99999e-01,9.99827e-01,1.37808e-01,9.99999e-01
5.132903260e-01,1.43296e-01,9.99999e-01,9.99999e-01,9.99900e-01,1.43310e-01,9.99999e-01
5.158567776e-01,1.48910e-01,9.99999e-01,9.99999e-01,9.99957e-01,1.48916e-01,9.99999e-01
5.184360615e-01,1.54622e-01,9.99999e-01,9.99999e-01,9.99982e-01,1.54624e-01,9.99999e-01
5.210282418e-01,1.60431e-01,9.99999e-01,9.99999e-01,9.99993e-01,1.60432e-01,9.99999e-01
5.236333830e-01,1.66333e-01,9.99999e-01,9.99999e-01,9.99974e-01,1.66337e-01,9.99999e-01
5.262515499e-01,1.72333e-01,9.99999e-01,9.99999e-01,9.99983e-01,1.72336e-01,9.99999e-01
5.288828077e-01,1.78424e-01,9.99999e-01,9.99999e-01,9.99985e-01,1.78427e-01,9.99999e-01
5.315272217e-01,1.84603e-01,9.99999e-01,9.99999e-01,9.99986e-01,1.84606e-01,9.99999e-01
5.341848578e-01,1.90869e-01,9.99999e-01,9.99999e-01,9.99991e-01,1.90870e-01,9.99999e-01
5.368557821e-01,1.97212e-01,9.99999e-01,9.99999e-01,9.99970e-01,1.97218e-01,9.99999e-01
5.395400610e-01,2.03623e-01,9.99999e-01,9.99999e-01,9.99894e-01,2.03644e-01,9.99999e-01
5.422377613e-01,2.10119e-01,9.99999e-01,9.99999e-01,9.99863e-01,2.10147e-01,9.99999e-01
5.449489501e-01,2.16696e-01,9.99999e-01,9.99999e-01,9.99873e-01,2.16723e-01,9.99999e-01
5.476736949e-01,2.23344e-01,9.99999e-01,9.99999e-01,9.99887e-01,2.23369e-01,9.99999e-01
5.504120634e-01,2.30063e-01,9.99999e-01,9.99999e-01,9.99918e-01,2.30081e-01,9.99999e-01
5.531641237e-01,2.36847e-01,9.99999e-01,9.99999e-01,9.99958e-01,2.36857e-01,9.99999e-01
5.559299443e-01,2.43687e-01,9.99999e-01,9.99999e-01,9.99979e-01,2.43692e-01,9.99999e-01
5.587095940e-01,2.50581e-01,9.99999e-01,9.99999e-01,9.99987e-01,2.50584e-01,9.99999e-01
5.615031420e-01,2.57525e-01,9.99999e-01,9.99999e-01,9.99985e-01,2.57528e-01,9.99999e-01
5.643106577e-01,2.64518e-01,9.99999e-01,9.99999e-01,9.99983e-01,2.64523e-01,9.99999e-01
5.671322110e-01,2.71512e-01,9.99999e-01,9.99999e-01,9.99810e-01,2.71563e-01,9.99999e-01
5.699678720e-01,2.78590e-01,9.99999e-01,9.99999e-01,9.99797e-01,2.78646e-01,9.99999e-01
5.728177114e-01,2.85709e-01,9.99999e-01,9.99999e-01,9.99789e-01,2.85769e-01,9.99999e-01
5.756818000e-01,2.92871e-01,9.99999e-01,9.99999e-01,9.99806e-01,2.92927e-01,9.99999e-01
5.785602090e-01,3.00068e-01,9.99999e-01,9.99999e-01,9.99831e-01,3.00118e-01,9.99999e-01
5.814530100e-01,3.07287e-01,9.99999e-01,9.99999e-01,9.99830e-01,3.07339e-01,9.99999e-01
5.843602750e-01,3.14522e-01,9.99999e-01,9.99999e-01,9.99798e-01,3.14585e-01,9.99999e-01
5.872820764e-01,3.21297e-01,9.99999e-01,9.99999e-01,9.98267e-01,3.21854e-01,9.99999e-01
5.902184868e-01,3.28451e-01,9.99999e-01,9.99999e-01,9.97897e-01,3.29142e-01,9.99999e-01
5.931695792e-01,3.35948e-01,9.99999e-01,9.99999e-01,9.98515e-01,3.36447e-01,9.99999e-01
5.961354271e-01,3.43205e-01,9.99999e-01,9.99999e-01,9.98371e-01,3.43765e-01,9.99999e-01
5.991161043e-01,3.50675e-01,9.99999e-01,9.99999e-01,9.98812e-01,3.51092e-01,9.99999e-01
6.021116848e-01,3.58185e-01,9.99999e-01,9.99999e-01,9.99325e-01,3.58427e-01,9.99999e-01
6.051222432e-01,3.65640e-01,9.99999e-01,9.99999e-01,9.99658e-01,3.65765e-01,9.99999e-01
6.081478544e-01,3.73049e-01,9.99999e-01,9.99999e-01,9.99852e-01,3.73104e-01,9.99999e-01
6.111885937e-01,3.80417e-01,9.99999e-01,9.99999e-01,9.99937e-01,3.80441e-01,9.99999e-01
6.142445367e-01,3.87762e-01,9.99999e-01,9.99999e-01,9.99971e-01,3.87773e-01,9.99999e-01
6.173157594e-01,3.95091e-01,9.99999e-01,9.99999e-01,9.99984e-01,3.95097e-01,9.99999e-01
6.204023382e-01,4.02406e-01,9.99999e-01,9.99999e-01,9.99986e-01,4.02411e-01,9.99999e-01
6.235043498e-01,4.09689e-01,9.99999e-01,9.99999e-01,9.99942e-01,4.09712e-01,9.99999e-01
6.266218716e-01,4.16872e-01,9.99999e-01,9.99999e-01,9.99697e-01,4.16998e-01,9.99999e-01
6.297549810e-01,4.24218e-01,9.99999e-01,9.99999e-01,9.99888e-01,4.24265e-01,9.99999e-01
6.329037559e-01,4.31416e-01,9.99999e-01,9.99999e-01,9.99780e-01,4.31511e-01,9.99999e-01
6.360682746e-01,4.38653e-01,9.99999e-01,9.99999e-01,9.99813e-01,4.38734e-01,9.99999e-01
6.392486160e-01,4.45825e-01,9.99999e-01,9.99999e-01,9.99757e-01,4.45932e-01,9.99999e-01
6.424448591e-01,4.52957e-01,9.99999e-01,9.99999e-01,9.99676e-01,4.53103e-01,9.99999e-01
6.456570834e-01,4.59554e-01,9.99999e-01,9.99999e-01,9.98499e-01,4.60244e-01,9.99999e-01
6.488853688e-01,4.66838e-01,9.99999e-01,9.99999e-01,9.98898e-01,4.67353e-01,9.99999e-01
6.521297956e-01,4.73895e-01,9.99999e-01,9.99999e-01,9.98877e-01,4.74428e-01,9.99999e-01
6.553904446e-01,4.80930e-01,9.99999e-01,9.99999e-01,9.98884e-01,4.81467e-01,9.99999e-01
6.586673968e-01,4.88001e-01,9.99999e-01,9.99999e-01,9.99043e-01,4.88468e-01,9.99999e-01
6.619607338e-01,4.95157e-01,9.99999e-01,9.99999e-01,9.99446e-01,4.95431e-01,9.99999e-01
6.652705375e-01,5.02191e-01,9.99999e-01,9.99999e-01,9.99679e-01,5.02351e-01,9.99999e-01
6.685968902e-01,5.09154e-01,9.99999e-01,9.99999e-01,9.99850e-01,5.09229e-01,9.99999e-01
6.719398746e-01,5.16027e-01,9.99999e-01,9.99999e-01,9.99930e-01,5.16063e-01,9.99999e-01
6.752995740e-01,5.22831e-01,9.99999e-01,9.99999e-01,9.99962e-01,5.22850e-01,9.99999e-01
6.786760719e-01,5.29562e-01,9.99999e-01,9.99999e-01,9.99945e-01,5.29590e-01,9.99999e-01
6.820694522e-01,5.36232e-01,9.99999e-01,9.99999e-01,9.99907e-01,5.36282e-01,9.99999e-01
6.854797995e-01,5.42858e-01,9.99999e-01,9.99999e-01,9.99880e-01,5.42923e-01,9.99999e-01
6.889071985e-01,5.49355e-01,9.99999e-01,9.99999e-01,9.99712e-01,5.49513e-01,9.99999e-01
6.923517345e-01,5.53440e-01,9.99999e-01,9.99999e-01,9.95306e-01,5.56050e-01,9.99999e-01
6.958134932e-01,5.61153e-01,9.99999e-01,9.99999e-01,9.97545e-01,5.62534e-01,9.99999e-01
6.992925606e-01,5.67643e-01,9.99999e-01,9.99999e-01,9.97679e-01,5.68962e-01,9.99999e-01
7.027890234e-01,5.73685e-01,9.99999e-01,9.99999e-01,9.97130e-01,5.75336e-01,9.99999e-01
7.063029686e-01,5.80250e-01,9.99999e-01,9.99999e-01,9.97588e-01,5.81652e-01,9.99999e-01
7.098344834e-01,5.86551e-01,9.99999e-01,9.99999e-01,9.97686e-01,5.87911e-01,9.99999e-01
7.133836558e-01,5.92285e-01,9.99999e-01,9.99999e-01,9.96923e-01,5.94112e-01,9.99999e-01
7.169505741e-01,5.85467e-01,9.99999e-01,9.99999e-01,9.75364e-01,6.00254e-01,9.99999e-01
7.205353270e-01,5.98963e-01,9.99999e-01,9.99999e-01,9.87839e-01,6.06336e-01,9.99999e-01
7.241380036e-01,6.02952e-01,9.99999e-01,9.99999e-01,9.84638e-01,6.12358e-01,9.99999e-01
7.277586936e-01,6.09740e-01,9.99999e-01,9.99999e-01,9.86124e-01,6.18319e-01,9.99999e-01
7.313974871e-01,6.15009e-01,9.99999e-01,9.99999e-01,9.85245e-01,6.24219e-01,9.99999e-01
7.350544745e-01,6.24969e-01,9.99999e-01,9.99999e-01,9.91925e-01,6.30056e-01,9.99999e-01
7.387297469e-01,6.32052e-01,9.99999e-01,9.99999e-01,9.94055e-01,6.35832e-01,9.99999e-01
7.424233956e-01,6.39676e-01,9.99999e-01,9.99999e-01,9.97087e-01,6.41544e-01,9.99999e-01
7.461355126e-01,6.46052e-01,9.99999e-01,9.99999e-01,9.98235e-01,6.47194e-01,9.99999e-01
7.498661902e-01,6.52243e-01,9.99999e-01,9.99999e-01,9.99177e-01,6.52780e-01,9.99999e-01
7.536155211e-01,6.58038e-01,9.99999e-01,9.99999e-01,9.99596e-01,6.58303e-01,9.99999e-01
7.573835987e-01,6.63624e-01,9.99999e-01,9.99999e-01,9.99792e-01,6.63762e-01,9.99999e-01
7.611705167e-01,6.69071e-01,9.99999e-01,9.99999e-01,9.99870e-01,6.69157e-01,9.99999e-01
7.649763693e-01,6.74433e-01,9.99999e-01,9.99999e-01,9.99918e-01,6.74488e-01,9.99999e-01
7.688012511e-01,6.79717e-01,9.99999e-01,9.99999e-01,9.99943e-01,6.79755e-01,9.99999e-01
7.726452574e-01,6.84926e-01,9.99999e-01,9.99999e-01,9.99953e-01,6.84958e-01,9.99999e-01
7.765084837e-01,6.90051e-01,9.99999e-01,9.99999e-01,9.99933e-01,6.90097e-01,9.99999e-01
7.803910261e-01,6.82515e-01,9.99999e-01,9.82067e-01,9.99716e-01,6.95171e-01,9.99999e-01
7.842929812e-01,6.46918e-01,9.99999e-01,9.24819e-01,9.99010e-01,7.00182e-01,9.99999e-01
7.882144461e-01,6.47108e-01,9.99999e-01,9.19553e-01,9.97957e-01,7.05129e-01,9.99999e-01
7.921555184e-01,6.75868e-01,9.99999e-01,9.52966e-01,9.98878e-01,7.10011e-01,9.99999e-01
7.961162960e-01,6.90812e-01,9.99999e-01,9.68303e-01,9.98022e-01,7.14831e-01,9.99999e-01
8.000968774e-01,7.05532e-01,9.99999e-01,9.82710e-01,9.97714e-01,7.19587e-01,9.99999e-01
8.040973618e-01,7.16125e-01,9.99999e-01,9.91004e-01,9.97713e-01,7.24279e-01,9.99999e-01
8.081178486e-01,7.22164e-01,9.99999e-01,9.95865e-01,9.94854e-01,7.28909e-01,9.99999e-01
8.121584379e-01,7.16908e-01,9.99999e-01,9.98719e-01,9.78657e-01,7.33476e-01,9.99999e-01
8.162192301e-01,7.19061e-01,9.99999e-01,9.99716e-01,9.74636e-01,7.37980e-01,9.99999e-01
8.203003262e-01,7.32967e-01,9.99999e-01,9.99995e-01,9.87268e-01,7.42423e-01,9.99999e-01
8.244018279e-01,7.33436e-01,9.99999e-01,9.99999e-01,9.82101e-01,7.46803e-01,9.99999e-01
8.285238370e-01,7.39732e-01,9.99999e-01,9.99999e-01,9.84836e-01,7.51122e-01,9.99999e-01
8.326664562e-01,7.43785e-01,9.99999e-01,9.99999e-01,9.84649e-01,7.55380e-01,9.99999e-01
8.368297885e-01,7.51244e-01,9.99999e-01,9.99999e-01,9.89027e-01,7.59578e-01,9.99999e-01
8.410139374e-01,7.58729e-01,9.99999e-01,9.99999e-01,9.93470e-01,7.63715e-01,9.99999e-01
8.452190071e-01,7.65331e-01,9.99999e-01,9.99999e-01,9.96794e-01,7.67792e-01,9.99999e-01
8.494451021e-01,7.70376e-01,9.99999e-01,9.99999e-01,9.98141e-01,7.71810e-01,9.99999e-01
8.536923276e-01,7.74915e-01,9.99999e-01,9.99999e-01,9.98899e-01,7.75769e-01,9.99999e-01
8.579607893e-01,7.79141e-01,9.99999e-01,9.99999e-01,9.99322e-01,7.79669e-01,9.99999e-01
8.622505932e-01,7.83174e-01,9.99999e-01,9.99999e-01,9.99569e-01,7.83511e-01,9.99999e-01
8.665618462e-01,7.50025e-01,9.99999e-01,9.52906e-01,9.99733e-01,7.87296e-01,9.99999e-01
8.708946554e-01,6.46641e-01,9.99999e-01,8.17716e-01,9.99695e-01,7.91024e-01,9.99999e-01
8.752491287e-01,6.76755e-01,9.99999e-01,8.51930e-01,9.99592e-01,7.94695e-01,9.99999e-01
8.796253743e-01,7.31277e-01,9.99999e-01,9.16538e-01,9.99436e-01,7.98311e-01,9.99999e-01
8.840235012e-01,7.66126e-01,9.99999e-01,9.56034e-01,9.99355e-01,8.01871e-01,9.99999e-01
8.884436187e-01,7.89402e-01,9.99999e-01,9.82455e-01,9.97657e-01,8.05375e-01,9.99999e-01
8.928858368e-01,7.83348e-01,9.99999e-01,9.92866e-01,9.75427e-01,8.08826e-01,9.99999e-01
8.973502660e-01,7.75782e-01,9.99999e-01,9.98261e-01,9.56780e-01,8.12223e-01,9.99998e-01
9.018370173e-01,7.97197e-01,9.99999e-01,9.99807e-01,9.77661e-01,8.15566e-01,9.99998e-01
9.063462024e-01,7.98941e-01,9.99999e-01,9.95096e-01,9.80408e-01,8.18857e-01,9.99998e-01
9.108779334e-01,7.88180e-01,9.99999e-01,9.88765e-01,9.69568e-01,8.22096e-01,9.99998e-01
9.154323231e-01,7.94735e-01,9.99999e-01,9.97348e-01,9.65517e-01,8.25283e-01,9.99998e-01
9.200094847e-01,7.75141e-01,9.99999e-01,9.61054e-01,9.72852e-01,8.28420e-01,9.99998e-01
9.246095321e-01,7.53778e-01,9.99999e-01,9.46126e-01,9.57620e-01,8.31505e-01,9.99997e-01
9.292325798e-01,5.97494e-01,9.99999e-01,9.57419e-01,7.45825e-01,8.34542e-01,9.99995e-01
9.338787427e-01,5.50373e-01,9.99999e-01,9.58851e-01,6.83550e-01,8.37528e-01,9.99994e-01
9.385481364e-01,7.00055e-01,9.99999e-01,9.69667e-01,8.58151e-01,8.40467e-01,9.99994e-01
9.432408771e-01,6.67908e-01,9.99999e-01,9.81336e-01,8.06558e-01,8.43357e-01,9.99993e-01
9.479570815e-01,6.21137e-01,9.99999e-01,9.90389e-01,7.40931e-01,8.46200e-01,9.99994e-01
9.526968669e-01,6.76768e-01,9.99999e-01,9.95352e-01,8.00669e-01,8.48996e-01,9.99995e-01
9.574603512e-01,6.95568e-01,9.99999e-01,9.98010e-01,8.18210e-01,8.51745e-01,9.99996e-01
9.622476530e-01,7.25740e-01,9.99999e-01,9.99378e-01,8.49878e-01,8.54449e-01,9.99997e-01
9.670588912e-01,7.80452e-01,9.99999e-01,9.99813e-01,9.10729e-01,8.57108e-01,9.99998e-01
9.718941857e-01,8.11163e-01,9.99999e-01,9.99986e-01,9.43529e-01,8.59723e-01,9.99998e-01
9.767536566e-01,8.21696e-01,9.99999e-01,9.99999e-01,9.52920e-01,8.62293e-01,9.99998e-01
9.816374249e-01,8.34479e-01,9.99999e-01,9.99999e-01,9.64916e-01,8.64820e-01,9.99999e-01
9.865456120e-01,8.48182e-01,9.99999e-01,9.99999e-01,9.77951e-01,8.67305e-01,9.99999e-01
9.914783401e-01,8.57854e-01,9.99999e-01,9.99999e-01,9.86325e-01,8.69747e-01,9.99999e-01
9.964357318e-01,8.65634e-01,9.99999e-01,9.99999e-01,9.92531e-01,8.72148e-01,9.99999e-01
1.001417910e+00,8.70589e-01,9.99999e-01,9.99999e-01,9.95518e-01,8.74508e-01,9.99999e-01
1.006425000e+00,8.74587e-01,9.99999e-01,9.99999e-01,9.97444e-01,8.76827e-01,9.99999e-01
1.011457125e+00,8.77711e-01,9.99999e-01,9.99999e-01,9.98412e-01,8.79106e-01,9.99999e-01
1.016514411e+00,8.80397e-01,9.99999e-01,9.99999e-01,9.98922e-01,8.81347e-01,9.99999e-01
1.021596983e+00,8.82768e-01,9.99999e-01,9.99974e-01,9.99141e-01,8.83548e-01,9.99999e-01
1.026704968e+00,8.83433e-01,9.99999e-01,9.98094e-01,9.99330e-01,8.85712e-01,9.99999e-01
1.031838492e+00,8.63235e-01,9.99999e-01,9.72753e-01,9.99512e-01,8.87837e-01,9.99999e-01
1.036997685e+00,2.45713e-01,9.99999e-01,2.76172e-01,9.99710e-01,8.89926e-01,9.99999e-01
1.042182673e+00,2.88564e-01,9.99999e-01,3.23613e-01,9.99655e-01,8.91978e-01,9.99999e-01
1.047393587e+00,2.71977e-01,9.99999e-01,3.04353e-01,9.99542e-01,8.93995e-01,9.99999e-01
1.052630555e+00,3.73548e-02,9.99999e-01,4.17124e-02,9.99373e-01,8.95976e-01,9.99999e-01
1.057893707e+00,7.14924e-02,9.99999e-01,7.96847e-02,9.98954e-01,8.97922e-01,9.99999e-01
1.063183176e+00,1.43519e-01,9.99999e-01,1.59717e-01,9.98278e-01,8.99833e-01,9.99999e-01
1.068499092e+00,2.63709e-01,9.99999e-01,2.93219e-01,9.97117e-01,9.01711e-01,9.99999e-01
1.073841587e+00,4.15385e-01,9.99999e-01,4.61133e-01,9.96627e-01,9.03556e-01,9.99999e-01
1.079210795e+00,5.53329e-01,9.99999e-01,6.13690e-01,9.95677e-01,9.05368e-01,9.99999e-01
1.084606849e+00,6.90386e-01,9.99999e-01,7.65934e-01,9.93463e-01,9.07147e-01,9.99999e-01
1.090029883e+00,7.84405e-01,9.99999e-01,8.71080e-01,9.90627e-01,9.08895e-01,9.99999e-01
1.095480033e+00,8.29331e-01,9.99999e-01,9.34298e-01,9.74646e-01,9.10612e-01,9.99998e-01
1.100957433e+00,8.27195e-01,9.99999e-01,9.67836e-01,9.36686e-01,9.12298e-01,9.99998e-01
1.106462220e+00,7.63007e-01,9.99999e-01,9.86574e-01,8.45987e-01,9.13953e-01,9.99997e-01
1.111994531e+00,6.39499e-01,9.99999e-01,9.95004e-01,7.01836e-01,9.15579e-01,9.99994e-01
1.117554504e+00,5.15023e-01,9.99999e-01,9.98777e-01,5.62149e-01,9.17175e-01,9.99992e-01
1.123142276e+00,5.97113e-01,9.99999e-01,9.99919e-01,6.49964e-01,9.18743e-01,9.99991e-01
1.128757988e+00,7.01065e-01,9.99999e-01,9.99999e-01,7.61800e-01,9.20282e-01,9.99990e-01
1.134401778e+00,4.82694e-01,9.99999e-01,9.99999e-01,5.23651e-01,9.21793e-01,9.99989e-01
1.140073787e+00,7.86465e-01,9.99999e-01,9.99999e-01,8.51825e-01,9.23277e-01,9.99991e-01
1.145774156e+00,6.59382e-01,9.99999e-01,9.99999e-01,7.13054e-01,9.24734e-01,9.99992e-01
1.151503026e+00,6.34070e-01,9.99999e-01,9.99999e-01,6.84622e-01,9.26165e-01,9.99993e-01
1.157260541e+00,6.79621e-01,9.99999e-01,9.99999e-01,7.32693e-01,9.27569e-01,9.99995e-01
1.163046844e+00,7.38534e-01,9.99999e-01,9.99999e-01,7.95024e-01,9.28948e-01,9.99996e-01
1.168862078e+00,7.93967e-01,9.99999e-01,9.99999e-01,8.53452e-01,9.30301e-01,9.99998e-01
1.174706389e+00,8.44870e-01,9.99999e-01,9.99999e-01,9.06874e-01,9.31629e-01,9.99998e-01
1.180579921e+00,8.79070e-01,9.99999e-01,9.99999e-01,9.42264e-01,9.32934e-01,9.99999e-01
1.186482820e+00,9.03390e-01,9.99999e-01,9.99996e-01,9.67008e-01,9.34214e-01,9.99999e-01
1.192415234e+00,9.11116e-01,9.99999e-01,9.93163e-01,9.80631e-01,9.35470e-01,9.99999e-01
1.198377311e+00,5.39217e-01,9.99999e-01,5.83683e-01,9.83656e-01,9.36704e-01,9.99999e-01
1.204369197e+00,8.06106e-07,9.99999e-01,8.67235e-07,9.84515e-01,9.37914e-01,9.99999e-01
1.210391043e+00,7.05964e-22,9.99999e-01,7.57987e-22,9.85192e-01,9.39102e-01,9.99999e-01
1.216442998e+00,3.50555e-19,9.99999e-01,3.75760e-19,9.87384e-01,9.40269e-01,9.99999e-01
1.222525213e+00,6.61767e-19,9.99999e-01,7.06578e-19,9.90171e-01,9.41413e-01,9.99999e-01
1.228637839e+00,1.48520e-14,9.99999e-01,1.58346e-14,9.93168e-01,9.42536e-01,9.99999e-01
