#,Wave/freq,Total,O2,CO2,H2O,Rayleigh,CIA
4.000000000e-01,3.45572e-04,9.99999e-01,9.99999e-01,9.99983e-01,3.45578e-04,9.99999e-01
4.020000000e-01,4.04560e-04,9.99999e-01,9.99999e-01,9.99989e-01,4.04564e-04,9.99999e-01
4.040100000e-01,4.72069e-04,9.99999e-01,9.99999e-01,9.99995e-01,4.72071e-04,9.99999e-01
4.060300500e-01,5.49166e-04,9.99999e-01,9.99999e-01,9.99998e-01,5.49167e-04,9.99999e-01
4.080602003e-01,6.36946e-04,9.99999e-01,9.99999e-01,9.99999e-01,6.36947e-04,9.99999e-01
4.101005013e-01,7.36597e-04,9.99999e-01,9.99999e-01,9.99999e-01,7.36597e-04,9.99999e-01
4.121510038e-01,8.49395e-04,9.99999e-01,9.99999e-01,9.99998e-01,8.49395e-04,9.99999e-01
4.142117588e-01,9.76710e-04,9.99999e-01,9.99999e-01,9.99995e-01,9.76714e-04,9.99999e-01
4.162828176e-01,1.12000e-03,9.99999e-01,9.99999e-01,9.99980e-01,1.12002e-03,9.99999e-01
4.183642317e-01,1.28088e-03,9.99999e-01,9.99999e-01,9.99988e-01,1.28089e-03,9.99999e-01
4.204560528e-01,1.46098e-03,9.99999e-01,9.99999e-01,9.99992e-01,1.46099e-03,9.99999e-01
4.225583331e-01,1.66207e-03,9.99999e-01,9.99999e-01,9.99996e-01,1.66208e-03,9.99999e-01
4.246711247e-01,1.88603e-03,9.99999e-01,9.99999e-01,9.99997e-01,1.88604e-03,9.99999e-01
4.267944804e-01,2.13483e-03,9.99999e-01,9.99999e-01,9.99996e-01,2.13484e-03,9.99999e-01
4.289284528e-01,2.41055e-03,9.99999e-01,9.99999e-01,9.99997e-01,2.41055e-03,9.99999e-01
4.310730950e-01,2.71535e-03,9.99999e-01,9.99999e-01,9.99998e-01,2.71535e-03,9.99999e-01
4.332284605e-01,3.05151e-03,9.99999e-01,9.99999e-01,9.99999e-01,3.05151e-03,9.99999e-01
4.353946028e-01,3.42138e-03,9.99999e-01,9.99999e-01,9.99999e-01,3.42138e-03,9.99999e-01
4.375715758e-01,3.82742e-03,9.99999e-01,9.99999e-01,9.99997e-01,3.82743e-03,9.99999e-01
4.397594337e-01,4.27212e-03,9.99999e-01,9.99999e-01,9.99982e-01,4.27219e-03,9.99999e-01
4.419582309e-01,4.75788e-03,9.99999e-01,9.99999e-01,9.99912e-01,4.75829e-03,9.99999e-01
4.441680220e-01,5.28808e-03,9.99999e-01,9.99999e-01,9.99932e-01,5.28844e-03,9.99999e-01
4.463888621e-01,5.86498e-03,9.99999e-01,9.99999e-01,9.99929e-01,5.86540e-03,9.99999e-01
4.486208064e-01,6.49173e-03,9.99999e-01,9.99999e-01,9.99956e-01,6.49201e-03,9.99999e-01
4.508639105e-01,7.17102e-03,9.99999e-01,9.99999e-01,9.99979e-01,7.17117e-03,9.99999e-01
4.531182300e-01,7.90576e-03,9.99999e-01,9.99999e-01,9.99991e-01,7.90583e-03,9.99999e-01
4.553838212e-01,8.69893e-03,9.99999e-01,9.99999e-01,9.99994e-01,8.69897e-03,9.99999e-01
4.576607403e-01,9.55361e-03,9.99999e-01,9.99999e-01,9.99997e-01,9.55363e-03,9.99999e-01
4.599490440e-01,1.04728e-02,9.99999e-01,9.99999e-01,9.99997e-01,1.04729e-02,9.99999e-01
4.622487892e-01,1.14597e-02,9.99999e-01,9.99999e-01,9.99999e-01,1.14597e-02,9.99999e-01
4.645600332e-01,1.25173e-02,9.99999e-01,9.99999e-01,9.99998e-01,1.25173e-02,9.99999e-01
4.668828333e-01,1.36483e-02,9.99999e-01,9.99999e-01,9.99978e-01,1.36486e-02,9.99999e-01
4.692172475e-01,1.48562e-02,9.99999e-01,9.99999e-01,9.99955e-01,1.48568e-02,9.99999e-01
4.715633337e-01,1.61444e-02,9.99999e-01,9.99999e-01,9.99970e-01,1.61449e-02,9.99999e-01
4.739211504e-01,1.75153e-02,9.99999e-01,9.99999e-01,9.99972e-01,1.75158e-02,9.99999e-01
4.762907561e-01,1.89723e-02,9.99999e-01,9.99999e-01,9.99985e-01,1.89726e-02,9.99999e-01
4.786722099e-01,2.05180e-02,9.99999e-01,9.99999e-01,9.99993e-01,2.05181e-02,9.99999e-01
4.810655710e-01,2.21553e-02,9.99999e-01,9.99999e-01,9.99997e-01,2.21553e-02,9.99999e-01
4.834708988e-01,2.38864e-02,9.99999e-01,9.99999e-01,9.99982e-01,2.38868e-02,9.99999e-01
4.858882533e-01,2.57146e-02,9.99999e-01,9.99999e-01,9.99968e-01,2.57154e-02,9.99999e-01
4.883176946e-01,2.76430e-02,9.99999e-01,9.99999e-01,9.99973e-01,2.76437e-02,9.99999e-01
4.907592831e-01,2.96735e-02,9.99999e-01,9.99999e-01,9.99976e-01,2.96742e-02,9.99999e-01
4.932130795e-01,3.18087e-02,9.99999e-01,9.99999e-01,9.99982e-01,3.18092e-02,9.99999e-01
4.956791449e-01,3.40508e-02,9.99999e-01,9.99999e-01,9.99990e-01,3.40511e-02,9.99999e-01
4.981575406e-01,3.64004e-02,9.99999e-01,9.99999e-01,9.99955e-01,3.64020e-02,9.99999e-01
5.006483283e-01,3.88594e-02,9.99999e-01,9.99999e-01,9.99884e-01,3.88639e-02,9.99999e-01
5.031515699e-01,4.14147e-02,9.99999e-01,9.99999e-01,9.99418e-01,4.14387e-02,9.99999e-01
5.056673278e-01,4.41147e-02,9.99999e-01,9.99999e-01,9.99693e-01,4.41282e-02,9.99999e-01
5.081956644e-01,4.69158e-02,9.99999e-01,9.99999e-01,9.99613e-01,4.69339e-02,9.99999e-01
5.107366428e-01,4.98442e-02,9.99999e-01,9.99999e-01,9.99739e-01,4.98572e-02,9.99999e-01
5.132903260e-01,5.28916e-02,9.99999e-01,9.99999e-01,9.99850e-01,5.28994e-02,9.99999e-01
5.158567776e-01,5.60582e-02,9.99999e-01,9.99999e-01,9.99936e-01,5.60617e-02,9.99999e-01
5.184360615e-01,5.93433e-02,9.99999e-01,9.99999e-01,9.99974e-01,5.93448e-02,9.99999e-01
5.210282418e-01,6.27491e-02,9.99999e-01,9.99999e-01,9.99990e-01,6.27497e-02,9.99999e-01
5.236333830e-01,6.62743e-02,9.99999e-01,9.99999e-01,9.99961e-01,6.62768e-02,9.99999e-01
5.262515499e-01,6.99250e-02,9.99999e-01,9.99999e-01,9.99975e-01,6.99267e-02,9.99999e-01
5.288828077e-01,7.36978e-02,9.99999e-01,9.99999e-01,9.99977e-01,7.36994e-02,9.99999e-01
5.315272217e-01,7.75936e-02,9.99999e-01,9.99999e-01,9.99980e-01,7.75951e-02,9.99999e-01
5.341848578e-01,8.16126e-02,9.99999e-01,9.99999e-01,9.99986e-01,8.16137e-02,9.99999e-01
5.368557821e-01,8.57510e-02,9.99999e-01,9.99999e-01,9.99955e-01,8.57548e-02,9.99999e-01
5.395400610e-01,9.00035e-02,9.99999e-01,9.99999e-01,9.99839e-01,9.00179e-02,9.99999e-01
5.422377613e-01,9.43832e-02,9.99999e-01,9.99999e-01,9.99794e-01,9.44025e-02,9.99999e-01
5.449489501e-01,9.88888e-02,9.99999e-01,9.99999e-01,9.99807e-01,9.89077e-02,9.99999e-01
5.476736949e-01,1.03515e-01,9.99999e-01,9.99999e-01,9.99830e-01,1.03533e-01,9.99999e-01
5.504120634e-01,1.08263e-01,9.99999e-01,9.99999e-01,9.99877e-01,1.08276e-01,9.99999e-01
5.531641237e-01,1.13129e-01,9.99999e-01,9.99999e-01,9.99937e-01,1.13136e-01,9.99999e-01
5.559299443e-01,1.18109e-01,9.99999e-01,9.99999e-01,9.99969e-01,1.18112e-01,9.99999e-01
5.587095940e-01,1.23200e-01,9.99999e-01,9.99999e-01,9.99980e-01,1.23203e-01,9.99999e-01
5.615031420e-01,1.28403e-01,9.99999e-01,9.99999e-01,9.99978e-01,1.28405e-01,9.99999e-01
5.643106577e-01,1.33715e-01,9.99999e-01,9.99999e-01,9.99975e-01,1.33718e-01,9.99999e-01
5.671322110e-01,1.39099e-01,9.99999e-01,9.99999e-01,9.99708e-01,1.39139e-01,9.99999e-01
5.699678720e-01,1.44623e-01,9.99999e-01,9.99999e-01,9.99696e-01,1.44667e-01,9.99999e-01
5.728177114e-01,1.50250e-01,9.99999e-01,9.99999e-01,9.99681e-01,1.50298e-01,9.99999e-01
5.756818000e-01,1.55986e-01,9.99999e-01,9.99999e-01,9.99708e-01,1.56031e-01,9.99999e-01
5.785602090e-01,1.61822e-01,9.99999e-01,9.99999e-01,9.99745e-01,1.61863e-01,9.99999e-01
5.814530100e-01,1.67748e-01,9.99999e-01,9.99999e-01,9.99744e-01,1.67791e-01,9.99999e-01
5.843602750e-01,1.73759e-01,9.99999e-01,9.99999e-01,9.99693e-01,1.73813e-01,9.99999e-01
5.872820764e-01,1.79451e-01,9.99999e-01,9.99999e-01,9.97362e-01,1.79925e-01,9.99999e-01
5.902184868e-01,1.85535e-01,9.99999e-01,9.99999e-01,9.96827e-01,1.86125e-01,9.99999e-01
5.931695792e-01,1.91978e-01,9.99999e-01,9.99999e-01,9.97752e-01,1.92410e-01,9.99999e-01
5.961354271e-01,1.98289e-01,9.99999e-01,9.99999e-01,9.97540e-01,1.98777e-01,9.99999e-01
5.991161043e-01,2.04855e-01,9.99999e-01,9.99999e-01,9.98207e-01,2.05223e-01,9.99999e-01
6.021116848e-01,2.11529e-01,9.99999e-01,9.99999e-01,9.98983e-01,2.11744e-01,9.99999e-01
6.051222432e-01,2.18225e-01,9.99999e-01,9.99999e-01,9.99485e-01,2.18337e-01,9.99999e-01
6.081478544e-01,2.24950e-01,9.99999e-01,9.99999e-01,9.99777e-01,2.25000e-01,9.99999e-01
6.111885937e-01,2.31706e-01,9.99999e-01,9.99999e-01,9.99905e-01,2.31728e-01,9.99999e-01
6.142445367e-01,2.38508e-01,9.99999e-01,9.99999e-01,9.99957e-01,2.38518e-01,9.99999e-01
6.173157594e-01,2.45361e-01,9.99999e-01,9.99999e-01,9.99976e-01,2.45367e-01,9.99999e-01
6.204023382e-01,2.52267e-01,9.99999e-01,9.99999e-01,9.99979e-01,2.52272e-01,9.99999e-01
6.235043498e-01,2.59206e-01,9.99999e-01,9.99999e-01,9.99912e-01,2.59229e-01,9.99999e-01
6.266218716e-01,2.66113e-01,9.99999e-01,9.99999e-01,9.99542e-01,2.66235e-01,9.99999e-01
6.297549810e-01,2.73240e-01,9.99999e-01,9.99999e-01,9.99831e-01,2.73286e-01,9.99999e-01
6.329037559e-01,2.80286e-01,9.99999e-01,9.99999e-01,9.99668e-01,2.80379e-01,9.99999e-01
6.360682746e-01,2.87429e-01,9.99999e-01,9.99999e-01,9.99716e-01,2.87511e-01,9.99999e-01
6.392486160e-01,2.94570e-01,9.99999e-01,9.99999e-01,9.99633e-01,2.94677e-01,9.99999e-01
6.424448591e-01,3.01727e-01,9.99999e-01,9.99999e-01,9.99507e-01,3.01876e-01,9.99999e-01
6.456570834e-01,3.08396e-01,9.99999e-01,9.99999e-01,9.97713e-01,3.09103e-01,9.99999e-01
6.488853688e-01,3.15830e-01,9.99999e-01,9.99999e-01,9.98339e-01,3.16355e-01,9.99999e-01
6.521297956e-01,3.23081e-01,9.99999e-01,9.99999e-01,9.98307e-01,3.23629e-01,9.99999e-01
6.553904446e-01,3.30363e-01,9.99999e-01,9.99999e-01,9.98309e-01,3.30922e-01,9.99999e-01
6.586673968e-01,3.37742e-01,9.99999e-01,9.99999e-01,9.98556e-01,3.38230e-01,9.99999e-01
6.619607338e-01,3.45272e-01,9.99999e-01,9.99999e-01,9.99195e-01,3.45550e-01,9.99999e-01
6.652705375e-01,3.52710e-01,9.99999e-01,9.99999e-01,9.99517e-01,3.52880e-01,9.99999e-01
6.685968902e-01,3.60142e-01,9.99999e-01,9.99999e-01,9.99794e-01,3.60215e-01,9.99999e-01
6.719398746e-01,3.67516e-01,9.99999e-01,9.99999e-01,9.99895e-01,3.67554e-01,9.99999e-01
6.752995740e-01,3.74872e-01,9.99999e-01,9.99999e-01,9.99944e-01,3.74893e-01,9.99999e-01
6.786760719e-01,3.82198e-01,9.99999e-01,9.99999e-01,9.99917e-01,3.82229e-01,9.99999e-01
6.820694522e-01,3.89505e-01,9.99999e-01,9.99999e-01,9.99859e-01,3.89559e-01,9.99999e-01
6.854797995e-01,3.96810e-01,9.99999e-01,9.99999e-01,9.99819e-01,3.96882e-01,9.99999e-01
6.889071985e-01,4.04014e-01,9.99999e-01,9.99999e-01,9.99558e-01,4.04193e-01,9.99999e-01
6.923517345e-01,4.08553e-01,9.99999e-01,9.99999e-01,9.92862e-01,4.11490e-01,9.99999e-01
6.958134932e-01,4.17238e-01,9.99999e-01,9.99999e-01,9.96339e-01,4.18771e-01,9.99999e-01
6.992925606e-01,4.24530e-01,9.99999e-01,9.99999e-01,9.96471e-01,4.26033e-01,9.99999e-01
7.027890234e-01,4.31398e-01,9.99999e-01,9.99999e-01,9.95669e-01,4.33274e-01,9.99999e-01
7.063029686e-01,4.38887e-01,9.99999e-01,9.99999e-01,9.96356e-01,4.40492e-01,9.99999e-01
7.098344834e-01,4.46118e-01,9.99999e-01,9.99999e-01,9.96504e-01,4.47683e-01,9.99999e-01
7.133836558e-01,4.52708e-01,9.99999e-01,9.99999e-01,9.95298e-01,4.54847e-01,9.99999e-01
7.169505741e-01,4.44810e-01,9.99999e-01,9.99999e-01,9.62835e-01,4.61980e-01,9.99999e-01
7.205353270e-01,4.60593e-01,9.99999e-01,9.99999e-01,9.81905e-01,4.69081e-01,9.99999e-01
7.241380036e-01,4.65106e-01,9.99999e-01,9.99999e-01,9.76810e-01,4.76147e-01,9.99998e-01
7.277586936e-01,4.73062e-01,9.99999e-01,9.99999e-01,9.79065e-01,4.83177e-01,9.99999e-01
7.313974871e-01,4.79323e-01,9.99999e-01,9.99999e-01,9.77872e-01,4.90169e-01,9.99999e-01
7.350544745e-01,4.91080e-01,9.99999e-01,9.99999e-01,9.87846e-01,4.97122e-01,9.99999e-01
7.387297469e-01,4.99522e-01,9.99999e-01,9.99999e-01,9.91052e-01,5.04032e-01,9.99999e-01
7.424233956e-01,5.08663e-01,9.99999e-01,9.99999e-01,9.95621e-01,5.10899e-01,9.99999e-01
7.461355126e-01,5.16346e-01,9.99999e-01,9.99999e-01,9.97342e-01,5.17722e-01,9.99999e-01
7.498661902e-01,5.23850e-01,9.99999e-01,9.99999e-01,9.98764e-01,5.24498e-01,9.99999e-01
7.536155211e-01,5.30904e-01,9.99999e-01,9.99999e-01,9.99392e-01,5.31226e-01,9.99999e-01
7.573835987e-01,5.37737e-01,9.99999e-01,9.99999e-01,9.99687e-01,5.37905e-01,9.99999e-01
7.611705167e-01,5.44428e-01,9.99999e-01,9.99999e-01,9.99805e-01,5.44534e-01,9.99999e-01
7.649763693e-01,5.51044e-01,9.99999e-01,9.99999e-01,9.99877e-01,5.51111e-01,9.99999e-01
7.688012511e-01,5.57588e-01,9.99999e-01,9.99999e-01,9.99914e-01,5.57636e-01,9.99999e-01
7.726452574e-01,5.64067e-01,9.99999e-01,9.99999e-01,9.99929e-01,5.64106e-01,9.99999e-01
7.765084837e-01,5.70464e-01,9.99999e-01,9.99999e-01,9.99899e-01,5.70521e-01,9.99999e-01
7.803910261e-01,5.60833e-01,9.99999e-01,9.72590e-01,9.99567e-01,5.76881e-01,9.99999e-01
7.842929812e-01,5.18236e-01,9.99999e-01,8.89924e-01,9.98490e-01,5.83184e-01,9.99999e-01
7.882144461e-01,5.18227e-01,9.99999e-01,8.81839e-01,9.96911e-01,5.89429e-01,9.99999e-01
7.921555184e-01,5.52847e-01,9.99999e-01,9.29735e-01,9.98312e-01,5.95615e-01,9.99999e-01
7.961162960e-01,5.71591e-01,9.99999e-01,9.52737e-01,9.96992e-01,6.01743e-01,9.99999e-01
8.000968774e-01,5.90005e-01,9.99999e-01,9.74065e-01,9.96542e-01,6.07810e-01,9.99999e-01
8.040973618e-01,6.03454e-01,9.99999e-01,9.86527e-01,9.96537e-01,6.13817e-01,9.99999e-01
8.081178486e-01,6.11087e-01,9.99999e-01,9.93775e-01,9.92168e-01,6.19763e-01,9.99999e-01
8.121584379e-01,6.04314e-01,9.99999e-01,9.98088e-01,9.67736e-01,6.25648e-01,9.99999e-01
8.162192301e-01,6.07263e-01,9.99999e-01,9.99577e-01,9.62065e-01,6.31470e-01,9.99998e-01
8.203003262e-01,6.24874e-01,9.99999e-01,9.99993e-01,9.80615e-01,6.37230e-01,9.99998e-01
8.244018279e-01,6.25868e-01,9.99999e-01,9.99999e-01,9.73465e-01,6.42927e-01,9.99998e-01
8.285238370e-01,6.33717e-01,9.99999e-01,9.99999e-01,9.77111e-01,6.48562e-01,9.99999e-01
8.326664562e-01,6.39040e-01,9.99999e-01,9.99999e-01,9.76926e-01,6.54132e-01,9.99999e-01
8.368297885e-01,6.48761e-01,9.99999e-01,9.99999e-01,9.83507e-01,6.59639e-01,9.99999e-01
8.410139374e-01,6.58550e-01,9.99999e-01,9.99999e-01,9.90177e-01,6.65083e-01,9.99999e-01
8.452190071e-01,6.67230e-01,9.99999e-01,9.99999e-01,9.95178e-01,6.70462e-01,9.99999e-01
8.494451021e-01,6.73882e-01,9.99999e-01,9.99999e-01,9.97193e-01,6.75778e-01,9.99999e-01
8.536923276e-01,6.79902e-01,9.99999e-01,9.99999e-01,9.98343e-01,6.81029e-01,9.99999e-01
8.579607893e-01,6.85515e-01,9.99999e-01,9.99999e-01,9.98977e-01,6.86216e-01,9.99999e-01
8.622505932e-01,6.90891e-01,9.99999e-01,9.99999e-01,9.99351e-01,6.91340e-01,9.99999e-01
8.665618462e-01,6.50926e-01,9.99999e-01,9.35065e-01,9.99597e-01,6.96399e-01,9.99999e-01
8.708946554e-01,5.19739e-01,9.99999e-01,7.41340e-01,9.99538e-01,7.01394e-01,9.99999e-01
8.752491287e-01,5.55776e-01,9.99999e-01,7.87329e-01,9.99383e-01,7.06325e-01,9.99999e-01
8.796253743e-01,6.23575e-01,9.99999e-01,8.77536e-01,9.99144e-01,7.11192e-01,9.99999e-01
8.840235012e-01,6.68555e-01,9.99999e-01,9.34643e-01,9.99022e-01,7.15996e-01,9.99999e-01
8.884436187e-01,6.99361e-01,9.99999e-01,9.73831e-01,9.96389e-01,7.20736e-01,9.99999e-01
8.928858368e-01,6.91029e-01,9.99999e-01,9.89301e-01,9.62832e-01,7.25414e-01,9.99999e-01
8.973502660e-01,6.81236e-01,9.99999e-01,9.97403e-01,9.35554e-01,7.30028e-01,9.99998e-01
9.018370173e-01,7.09954e-01,9.99999e-01,9.99713e-01,9.66747e-01,7.34580e-01,9.99998e-01
9.063462024e-01,7.11896e-01,9.99999e-01,9.92474e-01,9.70362e-01,7.39069e-01,9.99998e-01
9.108779334e-01,6.97680e-01,9.99999e-01,9.83135e-01,9.54321e-01,7.43496e-01,9.99998e-01
9.154323231e-01,7.06495e-01,9.99999e-01,9.96048e-01,9.48372e-01,7.47862e-01,9.99998e-01
9.200094847e-01,6.80945e-01,9.99999e-01,9.42021e-01,9.59390e-01,7.52166e-01,9.99997e-01
9.246095321e-01,6.52085e-01,9.99999e-01,9.19993e-01,9.35915e-01,7.56409e-01,9.99996e-01
9.292325798e-01,4.61111e-01,9.99999e-01,9.36105e-01,6.43921e-01,7.60592e-01,9.99993e-01
9.338787427e-01,4.10368e-01,9.99999e-01,9.38725e-01,5.68545e-01,7.64714e-01,9.99991e-01
9.385481364e-01,5.86004e-01,9.99999e-01,9.54625e-01,7.96791e-01,7.68777e-01,9.99991e-01
9.432408771e-01,5.46312e-01,9.99999e-01,9.72048e-01,7.26359e-01,7.72780e-01,9.99990e-01
9.479570815e-01,4.92176e-01,9.99999e-01,9.85541e-01,6.42531e-01,7.76725e-01,9.99991e-01
9.526968669e-01,5.58553e-01,9.99999e-01,9.93014e-01,7.20208e-01,7.80611e-01,9.99993e-01
9.574603512e-01,5.79153e-01,9.99999e-01,9.97009e-01,7.40403e-01,7.84439e-01,9.99995e-01
9.622476530e-01,6.17199e-01,9.99999e-01,9.99067e-01,7.83737e-01,7.88210e-01,9.99996e-01
9.670588912e-01,6.87938e-01,9.99999e-01,9.99720e-01,8.68925e-01,7.91924e-01,9.99997e-01
9.718941857e-01,7.28743e-01,9.99999e-01,9.99980e-01,9.16004e-01,7.95582e-01,9.99998e-01
9.767536566e-01,7.43048e-01,9.99999e-01,9.99999e-01,9.29759e-01,7.99184e-01,9.99998e-01
9.816374249e-01,7.60655e-01,9.99999e-01,9.99999e-01,9.47585e-01,8.02730e-01,9.99998e-01
9.865456120e-01,7.79573e-01,9.99999e-01,9.99999e-01,9.66945e-01,8.06222e-01,9.99999e-01
9.914783401e-01,7.93011e-01,9.99999e-01,9.99999e-01,9.79437e-01,8.09659e-01,9.99999e-01
9.964357318e-01,8.03900e-01,9.99999e-01,9.99999e-01,9.88754e-01,8.13043e-01,9.99999e-01
1.001417910e+00,8.10862e-01,9.99999e-01,9.99999e-01,9.93248e-01,8.16374e-01,9.99999e-01
1.006425000e+00,8.16489e-01,9.99999e-01,9.99999e-01,9.96140e-01,8.19652e-01,9.99999e-01
1.011457125e+00,8.20910e-01,9.99999e-01,9.99999e-01,9.97607e-01,8.22878e-01,9.99999e-01
1.016514411e+00,8.24710e-01,9.99999e-01,9.99999e-01,9.98373e-01,8.26053e-01,9.99999e-01
1.021596983e+00,8.28066e-01,9.99999e-01,9.99955e-01,9.98703e-01,8.29177e-01,9.99999e-01
1.026704968e+00,8.28962e-01,9.99999e-01,9.97055e-01,9.98988e-01,8.32250e-01,9.99999e-01
1.031838492e+00,8.01929e-01,9.99999e-01,9.60763e-01,9.99265e-01,8.35274e-01,9.99999e-01
1.036997685e+00,1.60988e-01,9.99999e-01,1.92120e-01,9.99562e-01,8.38249e-01,9.99999e-01
1.042182673e+00,1.59727e-01,9.99999e-01,1.89975e-01,9.99477e-01,8.41176e-01,9.99999e-01
1.047393587e+00,1.67288e-01,9.99999e-01,1.98318e-01,9.99308e-01,8.44054e-01,9.99999e-01
1.052630555e+00,9.64587e-03,9.99999e-01,1.13980e-02,9.99050e-01,8.46886e-01,9.99999e-01
1.057893707e+00,2.20382e-02,9.99999e-01,2.59669e-02,9.98412e-01,8.49670e-01,9.99999e-01
1.063183176e+00,5.85037e-02,9.99999e-01,6.87682e-02,9.97390e-01,8.52409e-01,9.99999e-01
1.068499092e+00,1.35874e-01,9.99999e-01,1.59502e-01,9.95637e-01,8.55102e-01,9.99999e-01
1.073841587e+00,2.68795e-01,9.99999e-01,3.14783e-01,9.94888e-01,8.57750e-01,9.99999e-01
1.079210795e+00,4.11547e-01,9.99999e-01,4.81269e-01,9.93469e-01,8.60353e-01,9.99999e-01
1.084606849e+00,5.72578e-01,9.99999e-01,6.69926e-01,9.90115e-01,8.62913e-01,9.99999e-01
1.090029883e+00,6.93188e-01,9.99999e-01,8.12297e-01,9.85761e-01,8.65430e-01,9.99998e-01
1.095480033e+00,7.53787e-01,9.99999e-01,9.02790e-01,9.61721e-01,8.67904e-01,9.99998e-01
1.100957433e+00,7.50502e-01,9.99999e-01,9.51939e-01,9.05490e-01,8.70336e-01,9.99997e-01
1.106462220e+00,6.64186e-01,9.99999e-01,9.79867e-01,7.76236e-01,8.72727e-01,9.99995e-01
1.111994531e+00,5.10936e-01,9.99999e-01,9.92491e-01,5.88042e-01,8.75077e-01,9.99992e-01
1.117554504e+00,3.71078e-01,9.99999e-01,9.98169e-01,4.23599e-01,8.77386e-01,9.99989e-01
1.123142276e+00,4.67825e-01,9.99999e-01,9.99880e-01,5.31869e-01,8.79656e-01,9.99987e-01
1.128757988e+00,5.88220e-01,9.99999e-01,9.99999e-01,6.67010e-01,8.81887e-01,9.99986e-01
1.134401778e+00,3.62065e-01,9.99999e-01,9.99999e-01,4.09544e-01,8.84079e-01,9.99984e-01
1.140073787e+00,6.96236e-01,9.99999e-01,9.99999e-01,7.85621e-01,8.86233e-01,9.99987e-01
1.145774156e+00,5.37333e-01,9.99999e-01,9.99999e-01,6.04872e-01,8.88350e-01,9.99989e-01
1.151503026e+00,5.08012e-01,9.99999e-01,9.99999e-01,5.70529e-01,8.90430e-01,9.99990e-01
1.157260541e+00,5.59766e-01,9.99999e-01,9.99999e-01,6.27211e-01,8.92473e-01,9.99992e-01
1.163046844e+00,6.34101e-01,9.99999e-01,9.99999e-01,7.08906e-01,8.94481e-01,9.99995e-01
1.168862078e+00,7.06141e-01,9.99999e-01,9.99999e-01,7.87706e-01,8.96453e-01,9.99997e-01
1.174706389e+00,7.75361e-01,9.99999e-01,9.99999e-01,8.63055e-01,8.98391e-01,9.99998e-01
1.180579921e+00,8.23119e-01,9.99999e-01,9.99999e-01,9.14277e-01,9.00294e-01,9.99998e-01
1.186482820e+00,8.57611e-01,9.99999e-01,9.99993e-01,9.50621e-01,9.02164e-01,9.99998e-01
1.192415234e+00,8.68494e-01,9.99999e-01,9.89453e-01,9.70873e-01,9.04001e-01,9.99999e-01
1.198377311e+00,5.03675e-01,9.99999e-01,5.67775e-01,9.75363e-01,9.05805e-01,9.99999e-01
1.204369197e+00,3.61937e-09,9.99999e-01,4.04262e-09,9.76680e-01,9.07576e-01,9.99999e-01
1.210391043e+00,5.95092e-32,9.99999e-01,6.62682e-32,9.77696e-01,9.09317e-01,9.99999e-01
1.216442998e+00,7.06346e-28,9.99999e-01,7.84582e-28,9.81025e-01,9.11026e-01,9.99999e-01
1.222525213e+00,1.76097e-27,9.99999e-01,1.94430e-27,9.85191e-01,9.12704e-01,9.99999e-01
1.228637839e+00,2.91508e-21,9.99999e-01,3.21132e-21,9.89691e-01,9.14352e-01,9.99999e-01
