#,Wave/freq,Total,O2,CO2,H2O,Rayleigh,CIA
4.000000000e-01,5.76334e-03,9.99999e-01,9.99999e-01,9.99989e-01,5.76340e-03,9.99999e-01
4.020000000e-01,6.38196e-03,9.99999e-01,9.99999e-01,9.99993e-01,6.38200e-03,9.99999e-01
4.040100000e-01,7.05202e-03,9.99999e-01,9.99999e-01,9.99996e-01,7.05204e-03,9.99999e-01
4.060300500e-01,7.77706e-03,9.99999e-01,9.99999e-01,9.99998e-01,7.77706e-03,9.99999e-01
4.080602003e-01,8.56007e-03,9.99999e-01,9.99999e-01,9.99999e-01,8.56007e-03,9.99999e-01
4.101005013e-01,9.40407e-03,9.99999e-01,9.99999e-01,9.99999e-01,9.40407e-03,9.99999e-01
4.121510038e-01,1.03121e-02,9.99999e-01,9.99999e-01,9.99999e-01,1.03121e-02,9.99999e-01
4.142117588e-01,1.12872e-02,9.99999e-01,9.99999e-01,9.99996e-01,1.12873e-02,9.99999e-01
4.162828176e-01,1.23325e-02,9.99999e-01,9.99999e-01,9.99987e-01,1.23326e-02,9.99999e-01
4.183642317e-01,1.34511e-02,9.99999e-01,9.99999e-01,9.99992e-01,1.34512e-02,9.99999e-01
4.204560528e-01,1.46461e-02,9.99999e-01,9.99999e-01,9.99994e-01,1.46461e-02,9.99999e-01
4.225583331e-01,1.59204e-02,9.99999e-01,9.99999e-01,9.99997e-01,1.59204e-02,9.99999e-01
4.246711247e-01,1.72771e-02,9.99999e-01,9.99999e-01,9.99998e-01,1.72771e-02,9.99999e-01
4.267944804e-01,1.87191e-02,9.99999e-01,9.99999e-01,9.99997e-01,1.87191e-02,9.99999e-01
4.289284528e-01,2.02493e-02,9.99999e-01,9.99999e-01,9.99997e-01,2.02494e-02,9.99999e-01
4.310730950e-01,2.18708e-02,9.99999e-01,9.99999e-01,9.99998e-01,2.18708e-02,9.99999e-01
4.332284605e-01,2.35861e-02,9.99999e-01,9.99999e-01,9.99999e-01,2.35861e-02,9.99999e-01
4.353946028e-01,2.53980e-02,9.99999e-01,9.99999e-01,9.99999e-01,2.53980e-02,9.99999e-01
4.375715758e-01,2.73092e-02,9.99999e-01,9.99999e-01,9.99998e-01,2.73092e-02,9.99999e-01
4.397594337e-01,2.93218e-02,9.99999e-01,9.99999e-01,9.99988e-01,2.93222e-02,9.99999e-01
4.419582309e-01,3.14375e-02,9.99999e-01,9.99999e-01,9.99944e-01,3.14393e-02,9.99999e-01
4.441680220e-01,3.36614e-02,9.99999e-01,9.99999e-01,9.99955e-01,3.36629e-02,9.99999e-01
4.463888621e-01,3.59935e-02,9.99999e-01,9.99999e-01,9.99954e-01,3.59951e-02,9.99999e-01
4.486208064e-01,3.84370e-02,9.99999e-01,9.99999e-01,9.99971e-01,3.84381e-02,9.99999e-01
4.508639105e-01,4.09930e-02,9.99999e-01,9.99999e-01,9.99986e-01,4.09936e-02,9.99999e-01
4.531182300e-01,4.36632e-02,9.99999e-01,9.99999e-01,9.99994e-01,4.36635e-02,9.99999e-01
4.553838212e-01,4.64491e-02,9.99999e-01,9.99999e-01,9.99995e-01,4.64493e-02,9.99999e-01
4.576607403e-01,4.93525e-02,9.99999e-01,9.99999e-01,9.99997e-01,4.93526e-02,9.99999e-01
4.599490440e-01,5.23745e-02,9.99999e-01,9.99999e-01,9.99998e-01,5.23745e-02,9.99999e-01
4.622487892e-01,5.55163e-02,9.99999e-01,9.99999e-01,9.99999e-01,5.55163e-02,9.99999e-01
4.645600332e-01,5.87788e-02,9.99999e-01,9.99999e-01,9.99998e-01,5.87789e-02,9.99999e-01
4.668828333e-01,6.21622e-02,9.99999e-01,9.99999e-01,9.99986e-01,6.21630e-02,9.99999e-01
4.692172475e-01,6.56675e-02,9.99999e-01,9.99999e-01,9.99971e-01,6.56694e-02,9.99999e-01
4.715633337e-01,6.92971e-02,9.99999e-01,9.99999e-01,9.99980e-01,6.92984e-02,9.99999e-01
4.739211504e-01,7.30489e-02,9.99999e-01,9.99999e-01,9.99981e-01,7.30502e-02,9.99999e-01
4.762907561e-01,7.69244e-02,9.99999e-01,9.99999e-01,9.99990e-01,7.69251e-02,9.99999e-01
4.786722099e-01,8.09225e-02,9.99999e-01,9.99999e-01,9.99995e-01,8.09228e-02,9.99999e-01
4.810655710e-01,8.50430e-02,9.99999e-01,9.99999e-01,9.99998e-01,8.50431e-02,9.99999e-01
4.834708988e-01,8.92846e-02,9.99999e-01,9.99999e-01,9.99988e-01,8.92856e-02,9.99999e-01
4.858882533e-01,9.36477e-02,9.99999e-01,9.99999e-01,9.99979e-01,9.36496e-02,9.99999e-01
4.883176946e-01,9.81328e-02,9.99999e-01,9.99999e-01,9.99982e-01,9.81344e-02,9.99999e-01
4.907592831e-01,1.02737e-01,9.99999e-01,9.99999e-01,9.99984e-01,1.02739e-01,9.99999e-01
4.932130795e-01,1.07461e-01,9.99999e-01,9.99999e-01,9.99988e-01,1.07462e-01,9.99999e-01
4.956791449e-01,1.12302e-01,9.99999e-01,9.99999e-01,9.99993e-01,1.12303e-01,9.99999e-01
4.981575406e-01,1.17256e-01,9.99999e-01,9.99999e-01,9.99970e-01,1.17260e-01,9.99999e-01
5.006483283e-01,1.22322e-01,9.99999e-01,9.99999e-01,9.99925e-01,1.22331e-01,9.99999e-01
5.031515699e-01,1.27466e-01,9.99999e-01,9.99999e-01,9.99624e-01,1.27514e-01,9.99999e-01
5.056673278e-01,1.32782e-01,9.99999e-01,9.99999e-01,9.99801e-01,1.32808e-01,9.99999e-01
5.081956644e-01,1.38177e-01,9.99999e-01,9.99999e-01,9.99749e-01,1.38211e-01,9.99999e-01
5.107366428e-01,1.43697e-01,9.99999e-01,9.99999e-01,9.99830e-01,1.43721e-01,9.99999e-01
5.132903260e-01,1.49321e-01,9.99999e-01,9.99999e-01,9.99902e-01,1.49335e-01,9.99999e-01
5.158567776e-01,1.55044e-01,9.99999e-01,9.99999e-01,9.99958e-01,1.55051e-01,9.99999e-01
5.184360615e-01,1.60863e-01,9.99999e-01,9.99999e-01,9.99983e-01,1.60866e-01,9.99999e-01
5.210282418e-01,1.66777e-01,9.99999e-01,9.99999e-01,9.99993e-01,1.66778e-01,9.99999e-01
5.236333830e-01,1.72780e-01,9.99999e-01,9.99999e-01,9.99975e-01,1.72784e-01,9.99999e-01
5.262515499e-01,1.78878e-01,9.99999e-01,9.99999e-01,9.99984e-01,1.78881e-01,9.99999e-01
5.288828077e-01,1.85064e-01,9.99999e-01,9.99999e-01,9.99985e-01,1.85067e-01,9.99999e-01
5.315272217e-01,1.91335e-01,9.99999e-01,9.99999e-01,9.99987e-01,1.91337e-01,9.99999e-01
5.341848578e-01,1.97689e-01,9.99999e-01,9.99999e-01,9.99991e-01,1.97691e-01,9.99999e-01
5.368557821e-01,2.04117e-01,9.99999e-01,9.99999e-01,9.99971e-01,2.04123e-01,9.99999e-01
5.395400610e-01,2.10610e-01,9.99999e-01,9.99999e-01,9.99897e-01,2.10632e-01,9.99999e-01
5.422377613e-01,2.17184e-01,9.99999e-01,9.99999e-01,9.99866e-01,2.17213e-01,9.99999e-01
5.449489501e-01,2.23836e-01,9.99999e-01,9.99999e-01,9.99876e-01,2.23864e-01,9.99999e-01
5.476736949e-01,2.30556e-01,9.99999e-01,9.99999e-01,9.99889e-01,2.30581e-01,9.99999e-01
5.504120634e-01,2.37342e-01,9.99999e-01,9.99999e-01,9.99920e-01,2.37361e-01,9.99999e-01
5.531641237e-01,2.44191e-01,9.99999e-01,9.99999e-01,9.99959e-01,2.44200e-01,9.99999e-01
5.559299443e-01,2.51091e-01,9.99999e-01,9.99999e-01,9.99980e-01,2.51096e-01,9.99999e-01
5.587095940e-01,2.58041e-01,9.99999e-01,9.99999e-01,9.99987e-01,2.58044e-01,9.99999e-01
5.615031420e-01,2.65039e-01,9.99999e-01,9.99999e-01,9.99986e-01,2.65042e-01,9.99999e-01
5.643106577e-01,2.72082e-01,9.99999e-01,9.99999e-01,9.99984e-01,2.72086e-01,9.99999e-01
5.671322110e-01,2.79121e-01,9.99999e-01,9.99999e-01,9.99815e-01,2.79172e-01,9.99999e-01
5.699678720e-01,2.86241e-01,9.99999e-01,9.99999e-01,9.99801e-01,2.86297e-01,9.99999e-01
5.728177114e-01,2.93398e-01,9.99999e-01,9.99999e-01,9.99794e-01,2.93458e-01,9.99999e-01
5.756818000e-01,3.00595e-01,9.99999e-01,9.99999e-01,9.99810e-01,3.00652e-01,9.99999e-01
5.785602090e-01,3.07823e-01,9.99999e-01,9.99999e-01,9.99835e-01,3.07874e-01,9.99999e-01
5.814530100e-01,3.15070e-01,9.99999e-01,9.99999e-01,9.99834e-01,3.15122e-01,9.99999e-01
5.843602750e-01,3.22330e-01,9.99999e-01,9.99999e-01,9.99803e-01,3.22393e-01,9.99999e-01
5.872820764e-01,3.29124e-01,9.99999e-01,9.99999e-01,9.98305e-01,3.29683e-01,9.99999e-01
5.902184868e-01,3.36295e-01,9.99999e-01,9.99999e-01,9.97941e-01,3.36988e-01,9.99999e-01
5.931695792e-01,3.43807e-01,9.99999e-01,9.99999e-01,9.98546e-01,3.44307e-01,9.99999e-01
5.961354271e-01,3.51075e-01,9.99999e-01,9.99999e-01,9.98406e-01,3.51635e-01,9.99999e-01
5.991161043e-01,3.58552e-01,9.99999e-01,9.99999e-01,9.98837e-01,3.58970e-01,9.99999e-01
6.021116848e-01,3.66066e-01,9.99999e-01,9.99999e-01,9.99339e-01,3.66308e-01,9.99999e-01
6.051222432e-01,3.73522e-01,9.99999e-01,9.99999e-01,9.99665e-01,3.73647e-01,9.99999e-01
6.081478544e-01,3.80929e-01,9.99999e-01,9.99999e-01,9.99855e-01,3.80984e-01,9.99999e-01
6.111885937e-01,3.88292e-01,9.99999e-01,9.99999e-01,9.99938e-01,3.88315e-01,9.99999e-01
6.142445367e-01,3.95628e-01,9.99999e-01,9.99999e-01,9.99972e-01,3.95639e-01,9.99999e-01
6.173157594e-01,4.02946e-01,9.99999e-01,9.99999e-01,9.99984e-01,4.02952e-01,9.99999e-01
6.204023382e-01,4.10247e-01,9.99999e-01,9.99999e-01,9.99986e-01,4.10252e-01,9.99999e-01
6.235043498e-01,4.17513e-01,9.99999e-01,9.99999e-01,9.99944e-01,4.17536e-01,9.99999e-01
6.266218716e-01,4.24676e-01,9.99999e-01,9.99999e-01,9.99703e-01,4.24802e-01,9.99999e-01
6.297549810e-01,4.32000e-01,9.99999e-01,9.99999e-01,9.99891e-01,4.32046e-01,9.99999e-01
6.329037559e-01,4.39174e-01,9.99999e-01,9.99999e-01,9.99785e-01,4.39268e-01,9.99999e-01
6.360682746e-01,4.46383e-01,9.99999e-01,9.99999e-01,9.99817e-01,4.46464e-01,9.99999e-01
6.392486160e-01,4.53525e-01,9.99999e-01,9.99999e-01,9.99763e-01,4.53633e-01,9.99999e-01
6.424448591e-01,4.60626e-01,9.99999e-01,9.99999e-01,9.99683e-01,4.60771e-01,9.99999e-01
6.456570834e-01,4.67191e-01,9.99999e-01,9.99999e-01,9.98533e-01,4.67877e-01,9.99999e-01
6.488853688e-01,4.74438e-01,9.99999e-01,9.99999e-01,9.98921e-01,4.74950e-01,9.99999e-01
6.521297956e-01,4.81457e-01,9.99999e-01,9.99999e-01,9.98900e-01,4.81986e-01,9.99999e-01
6.553904446e-01,4.88454e-01,9.99999e-01,9.99999e-01,9.98912e-01,4.88985e-01,9.99999e-01
6.586673968e-01,4.95480e-01,9.99999e-01,9.99999e-01,9.99063e-01,4.95944e-01,9.99999e-01
6.619607338e-01,5.02590e-01,9.99999e-01,9.99999e-01,9.99458e-01,5.02862e-01,9.99999e-01
6.652705375e-01,5.09577e-01,9.99999e-01,9.99999e-01,9.99686e-01,5.09737e-01,9.99999e-01
6.685968902e-01,5.16492e-01,9.99999e-01,9.99999e-01,9.99853e-01,5.16567e-01,9.99999e-01
6.719398746e-01,5.23316e-01,9.99999e-01,9.99999e-01,9.99932e-01,5.23351e-01,9.99999e-01
6.752995740e-01,5.30068e-01,9.99999e-01,9.99999e-01,9.99963e-01,5.30087e-01,9.99999e-01
6.786760719e-01,5.36747e-01,9.99999e-01,9.99999e-01,9.99946e-01,5.36775e-01,9.99999e-01
6.820694522e-01,5.43363e-01,9.99999e-01,9.99999e-01,9.99909e-01,5.43412e-01,9.99999e-01
6.854797995e-01,5.49934e-01,9.99999e-01,9.99999e-01,9.99883e-01,5.49998e-01,9.99999e-01
6.889071985e-01,5.56376e-01,9.99999e-01,9.99999e-01,9.99719e-01,5.56532e-01,9.99999e-01
6.923517345e-01,5.60427e-01,9.99999e-01,9.99999e-01,9.95409e-01,5.63011e-01,9.99999e-01
6.958134932e-01,5.68066e-01,9.99999e-01,9.99999e-01,9.97593e-01,5.69436e-01,9.99999e-01
6.992925606e-01,5.74499e-01,9.99999e-01,9.99999e-01,9.97730e-01,5.75805e-01,9.99999e-01
7.027890234e-01,5.80483e-01,9.99999e-01,9.99999e-01,9.97190e-01,5.82118e-01,9.99999e-01
7.063029686e-01,5.86984e-01,9.99999e-01,9.99999e-01,9.97639e-01,5.88372e-01,9.99999e-01
7.098344834e-01,5.93223e-01,9.99999e-01,9.99999e-01,9.97735e-01,5.94569e-01,9.99999e-01
7.133836558e-01,5.98900e-01,9.99999e-01,9.99999e-01,9.96993e-01,6.00706e-01,9.99999e-01
7.169505741e-01,5.92158e-01,9.99999e-01,9.99999e-01,9.75895e-01,6.06784e-01,9.99999e-01
7.205353270e-01,6.05495e-01,9.99999e-01,9.99999e-01,9.88076e-01,6.12802e-01,9.99999e-01
7.241380036e-01,6.09456e-01,9.99999e-01,9.99999e-01,9.84966e-01,6.18758e-01,9.99999e-01
7.277586936e-01,6.16170e-01,9.99999e-01,9.99999e-01,9.86419e-01,6.24653e-01,9.99999e-01
7.313974871e-01,6.21374e-01,9.99999e-01,9.99999e-01,9.85547e-01,6.30486e-01,9.99999e-01
7.350544745e-01,6.31226e-01,9.99999e-01,9.99999e-01,9.92093e-01,6.36257e-01,9.99999e-01
7.387297469e-01,6.38228e-01,9.99999e-01,9.99999e-01,9.94178e-01,6.41965e-01,9.99999e-01
7.424233956e-01,6.45762e-01,9.99999e-01,9.99999e-01,9.97147e-01,6.47609e-01,9.99999e-01
7.461355126e-01,6.52062e-01,9.99999e-01,9.99999e-01,9.98271e-01,6.53191e-01,9.99999e-01
7.498661902e-01,6.58179e-01,9.99999e-01,9.99999e-01,9.99194e-01,6.58709e-01,9.99999e-01
7.536155211e-01,6.63901e-01,9.99999e-01,9.99999e-01,9.99604e-01,6.64163e-01,9.99999e-01
7.573835987e-01,6.69418e-01,9.99999e-01,9.99999e-01,9.99796e-01,6.69554e-01,9.99999e-01
7.611705167e-01,6.74795e-01,9.99999e-01,9.99999e-01,9.99873e-01,6.74880e-01,9.99999e-01
7.649763693e-01,6.80088e-01,9.99999e-01,9.99999e-01,9.99920e-01,6.80142e-01,9.99999e-01
7.688012511e-01,6.85303e-01,9.99999e-01,9.99999e-01,9.99944e-01,6.85340e-01,9.99999e-01
7.726452574e-01,6.90443e-01,9.99999e-01,9.99999e-01,9.99954e-01,6.90474e-01,9.99999e-01
7.765084837e-01,6.95500e-01,9.99999e-01,9.99999e-01,9.99935e-01,6.95544e-01,9.99999e-01
7.803910261e-01,6.88118e-01,9.99999e-01,9.82521e-01,9.99722e-01,7.00550e-01,9.99999e-01
7.842929812e-01,6.52865e-01,9.99999e-01,9.26277e-01,9.99032e-01,7.05492e-01,9.99999e-01
7.882144461e-01,6.53091e-01,9.99999e-01,9.21169e-01,9.98000e-01,7.10370e-01,9.99999e-01
7.921555184e-01,6.81508e-01,9.99999e-01,9.53946e-01,9.98901e-01,7.15185e-01,9.99999e-01
7.961162960e-01,6.96234e-01,9.99999e-01,9.68941e-01,9.98066e-01,7.19936e-01,9.99999e-01
8.000968774e-01,7.10761e-01,9.99999e-01,9.83064e-01,9.97762e-01,7.24624e-01,9.99999e-01
8.040973618e-01,7.21205e-01,9.99999e-01,9.91184e-01,9.97762e-01,7.29249e-01,9.99999e-01
8.081178486e-01,7.27166e-01,9.99999e-01,9.95951e-01,9.94969e-01,7.33811e-01,9.99999e-01
8.121584379e-01,7.21993e-01,9.99999e-01,9.98744e-01,9.79120e-01,7.38311e-01,9.99999e-01
8.162192301e-01,7.24095e-01,9.99999e-01,9.99722e-01,9.75153e-01,7.42749e-01,9.99999e-01
8.203003262e-01,7.37825e-01,9.99999e-01,9.99995e-01,9.87556e-01,7.47125e-01,9.99999e-01
8.244018279e-01,7.38250e-01,9.99999e-01,9.99999e-01,9.82448e-01,7.51439e-01,9.99999e-01
8.285238370e-01,7.44478e-01,9.99999e-01,9.99999e-01,9.85159e-01,7.55693e-01,9.99999e-01
8.326664562e-01,7.48464e-01,9.99999e-01,9.99999e-01,9.84968e-01,7.59886e-01,9.99999e-01
8.368297885e-01,7.55809e-01,9.99999e-01,9.99999e-01,9.89254e-01,7.64018e-01,9.99999e-01
8.410139374e-01,7.63180e-01,9.99999e-01,9.99999e-01,9.93605e-01,7.68091e-01,9.99999e-01
8.452190071e-01,7.69681e-01,9.99999e-01,9.99999e-01,9.96860e-01,7.72105e-01,9.99999e-01
8.494451021e-01,7.74648e-01,9.99999e-01,9.99999e-01,9.98180e-01,7.76059e-01,9.99999e-01
8.536923276e-01,7.79115e-01,9.99999e-01,9.99999e-01,9.98922e-01,7.79955e-01,9.99999e-01
8.579607893e-01,7.83274e-01,9.99999e-01,9.99999e-01,9.99336e-01,7.83793e-01,9.99999e-01
8.622505932e-01,7.87242e-01,9.99999e-01,9.99999e-01,9.99578e-01,7.87574e-01,9.99999e-01
8.665618462e-01,7.54591e-01,9.99999e-01,9.53853e-01,9.99739e-01,7.91298e-01,9.99999e-01
8.708946554e-01,6.52536e-01,9.99999e-01,8.21075e-01,9.99701e-01,7.94965e-01,9.99999e-01
8.752491287e-01,6.82275e-01,9.99999e-01,8.54698e-01,9.99601e-01,7.98576e-01,9.99999e-01
8.796253743e-01,7.36090e-01,9.99999e-01,9.18165e-01,9.99448e-01,8.02132e-01,9.99999e-01
8.840235012e-01,7.70442e-01,9.99999e-01,9.56917e-01,9.99369e-01,8.05633e-01,9.99999e-01
8.884436187e-01,7.93357e-01,9.99999e-01,9.82804e-01,9.97712e-01,8.09079e-01,9.99999e-01
8.928858368e-01,7.87428e-01,9.99999e-01,9.93011e-01,9.75966e-01,8.12472e-01,9.99999e-01
8.973502660e-01,7.79958e-01,9.99999e-01,9.98295e-01,9.57667e-01,8.15812e-01,9.99998e-01
9.018370173e-01,8.01016e-01,9.99999e-01,9.99811e-01,9.78104e-01,8.19099e-01,9.99998e-01
9.063462024e-01,8.02773e-01,9.99999e-01,9.95211e-01,9.80836e-01,8.22334e-01,9.99998e-01
9.108779334e-01,7.92165e-01,9.99999e-01,9.88996e-01,9.70209e-01,8.25517e-01,9.99998e-01
9.154323231e-01,7.98609e-01,9.99999e-01,9.97399e-01,9.66233e-01,8.28650e-01,9.99998e-01
9.200094847e-01,7.79342e-01,9.99999e-01,9.61894e-01,9.73410e-01,8.31732e-01,9.99998e-01
9.246095321e-01,7.58344e-01,9.99999e-01,9.47210e-01,9.58583e-01,8.34764e-01,9.99997e-01
9.292325798e-01,6.04070e-01,9.99999e-01,9.58334e-01,7.50515e-01,8.37748e-01,9.99995e-01
9.338787427e-01,5.57121e-01,9.99999e-01,9.59686e-01,6.88802e-01,8.40682e-01,9.99994e-01
9.385481364e-01,7.05220e-01,9.99999e-01,9.70289e-01,8.60785e-01,8.43569e-01,9.99994e-01
9.432408771e-01,6.73581e-01,9.99999e-01,9.81714e-01,8.10183e-01,8.46408e-01,9.99993e-01
9.479570815e-01,6.27323e-01,9.99999e-01,9.90588e-01,7.45525e-01,8.49201e-01,9.99994e-01
9.526968669e-01,6.82171e-01,9.99999e-01,9.95447e-01,8.04196e-01,8.51947e-01,9.99995e-01
9.574603512e-01,7.00870e-01,9.99999e-01,9.98051e-01,8.21616e-01,8.54648e-01,9.99996e-01
9.622476530e-01,7.30602e-01,9.99999e-01,9.99391e-01,8.52713e-01,8.57303e-01,9.99997e-01
9.670588912e-01,7.84529e-01,9.99999e-01,9.99817e-01,9.12496e-01,8.59914e-01,9.99998e-01
9.718941857e-01,8.14763e-01,9.99999e-01,9.99986e-01,9.44684e-01,8.62482e-01,9.99998e-01
9.767536566e-01,8.25120e-01,9.99999e-01,9.99999e-01,9.53890e-01,8.65006e-01,9.99998e-01
9.816374249e-01,8.37675e-01,9.99999e-01,9.99999e-01,9.65633e-01,8.67487e-01,9.99999e-01
9.865456120e-01,8.51140e-01,9.99999e-01,9.99999e-01,9.78404e-01,8.69926e-01,9.99999e-01
9.914783401e-01,8.60643e-01,9.99999e-01,9.99999e-01,9.86608e-01,8.72324e-01,9.99999e-01
9.964357318e-01,8.68284e-01,9.99999e-01,9.99999e-01,9.92686e-01,8.74681e-01,9.99999e-01
1.001417910e+00,8.73149e-01,9.99999e-01,9.99999e-01,9.95611e-01,8.76997e-01,9.99999e-01
1.006425000e+00,8.77074e-01,9.99999e-01,9.99999e-01,9.97498e-01,8.79274e-01,9.99999e-01
1.011457125e+00,8.80141e-01,9.99999e-01,9.99999e-01,9.98445e-01,8.81511e-01,9.99999e-01
1.016514411e+00,8.82778e-01,9.99999e-01,9.99999e-01,9.98944e-01,8.83710e-01,9.99999e-01
1.021596983e+00,8.85104e-01,9.99999e-01,9.99975e-01,9.99159e-01,8.85870e-01,9.99999e-01
1.026704968e+00,8.85762e-01,9.99999e-01,9.98139e-01,9.99344e-01,8.87993e-01,9.99999e-01
1.031838492e+00,8.66076e-01,9.99999e-01,9.73486e-01,9.99523e-01,8.90079e-01,9.99999e-01
1.036997685e+00,2.50785e-01,9.99999e-01,2.81175e-01,9.99716e-01,8.92129e-01,9.99999e-01
1.042182673e+00,2.95781e-01,9.99999e-01,3.30903e-01,9.99662e-01,8.94143e-01,9.99999e-01
1.047393587e+00,2.77970e-01,9.99999e-01,3.10318e-01,9.99552e-01,8.96121e-01,9.99999e-01
1.052630555e+00,3.96087e-02,9.99999e-01,4.41259e-02,9.99386e-01,8.98064e-01,9.99999e-01
1.057893707e+00,7.51447e-02,9.99999e-01,8.35634e-02,9.98976e-01,8.99974e-01,9.99999e-01
1.063183176e+00,1.49058e-01,9.99999e-01,1.65506e-01,9.98315e-01,9.01849e-01,9.99999e-01
1.068499092e+00,2.71126e-01,9.99999e-01,3.00790e-01,9.97178e-01,9.03691e-01,9.99999e-01
1.073841587e+00,4.22917e-01,9.99999e-01,4.68457e-01,9.96700e-01,9.05501e-01,9.99999e-01
1.079210795e+00,5.60148e-01,9.99999e-01,6.19893e-01,9.95768e-01,9.07278e-01,9.99999e-01
1.084606849e+00,6.95712e-01,9.99999e-01,7.70148e-01,9.93602e-01,9.09023e-01,9.99999e-01
1.090029883e+00,7.88412e-01,9.99999e-01,8.73582e-01,9.90832e-01,9.10738e-01,9.99999e-01
1.095480033e+00,8.32605e-01,9.99999e-01,9.35608e-01,9.75192e-01,9.12421e-01,9.99998e-01
1.100957433e+00,8.30544e-01,9.99999e-01,9.68491e-01,9.38022e-01,9.14074e-01,9.99998e-01
1.106462220e+00,7.67469e-01,9.99999e-01,9.86848e-01,8.49086e-01,9.15698e-01,9.99997e-01
1.111994531e+00,6.45549e-01,9.99999e-01,9.95107e-01,7.07086e-01,9.17292e-01,9.99994e-01
1.117554504e+00,5.22166e-01,9.99999e-01,9.98801e-01,5.68891e-01,9.18858e-01,9.99992e-01
1.123142276e+00,6.03260e-01,9.99999e-01,9.99920e-01,6.55476e-01,9.20395e-01,9.99991e-01
1.128757988e+00,7.06262e-01,9.99999e-01,9.99999e-01,7.66097e-01,9.21904e-01,9.99990e-01
1.134401778e+00,4.88794e-01,9.99999e-01,9.99999e-01,5.29354e-01,9.23386e-01,9.99989e-01
1.140073787e+00,7.90485e-01,9.99999e-01,9.99999e-01,8.54731e-01,9.24841e-01,9.99991e-01
1.145774156e+00,6.65053e-01,9.99999e-01,9.99999e-01,7.17995e-01,9.26269e-01,9.99992e-01
1.151503026e+00,6.40013e-01,9.99999e-01,9.99999e-01,6.89917e-01,9.27672e-01,9.99993e-01
1.157260541e+00,6.85127e-01,9.99999e-01,9.99999e-01,7.37453e-01,9.29049e-01,9.99995e-01
1.163046844e+00,7.43199e-01,9.99999e-01,9.99999e-01,7.98796e-01,9.30400e-01,9.99996e-01
1.168862078e+00,7.97810e-01,9.99999e-01,9.99999e-01,8.56270e-01,9.31727e-01,9.99998e-01
1.174706389e+00,8.47866e-01,9.99999e-01,9.99999e-01,9.08723e-01,9.33029e-01,9.99998e-01
1.180579921e+00,8.81455e-01,9.99999e-01,9.99999e-01,9.43431e-01,9.34307e-01,9.99999e-01
1.186482820e+00,9.05330e-01,9.99999e-01,9.99996e-01,9.67688e-01,9.35562e-01,9.99999e-01
1.192415234e+00,9.12933e-01,9.99999e-01,9.93329e-01,9.81035e-01,9.36794e-01,9.99999e-01
1.198377311e+00,5.41227e-01,9.99999e-01,5.84879e-01,9.84001e-01,9.38003e-01,9.99999e-01
1.204369197e+00,1.00846e-06,9.99999e-01,1.08325e-06,9.84840e-01,9.39189e-01,9.99999e-01
1.210391043e+00,1.84239e-21,9.99999e-01,1.97517e-21,9.85503e-01,9.40354e-01,9.99999e-01
1.216442998e+00,8.03015e-19,9.99999e-01,8.59486e-19,9.87646e-01,9.41497e-01,9.99999e-01
1.222525213e+00,1.50161e-18,9.99999e-01,1.60108e-18,9.90377e-01,9.42619e-01,9.99999e-01
1.228637839e+00,2.82399e-14,9.99999e-01,3.00674e-14,9.93311e-01,9.43720e-01,9.99999e-01
