#,Wave/freq,Total,O2,CO2,H2O,Rayleigh,CIA
4.000000000e-01,3.69272e-03,9.99999e-01,9.99999e-01,9.99988e-01,3.69276e-03,9.99999e-01
4.020000000e-01,4.12523e-03,9.99999e-01,9.99999e-01,9.99992e-01,4.12526e-03,9.99999e-01
4.040100000e-01,4.59781e-03,9.99999e-01,9.99999e-01,9.99996e-01,4.59782e-03,9.99999e-01
4.060300500e-01,5.11354e-03,9.99999e-01,9.99999e-01,9.99998e-01,5.11355e-03,9.99999e-01
4.080602003e-01,5.67519e-03,9.99999e-01,9.99999e-01,9.99999e-01,5.67519e-03,9.99999e-01
4.101005013e-01,6.28558e-03,9.99999e-01,9.99999e-01,9.99999e-01,6.28558e-03,9.99999e-01
4.121510038e-01,6.94757e-03,9.99999e-01,9.99999e-01,9.99999e-01,6.94757e-03,9.99999e-01
4.142117588e-01,7.66410e-03,9.99999e-01,9.99999e-01,9.99996e-01,7.66412e-03,9.99999e-01
4.162828176e-01,8.43808e-03,9.99999e-01,9.99999e-01,9.99985e-01,8.43819e-03,9.99999e-01
4.183642317e-01,9.27273e-03,9.99999e-01,9.99999e-01,9.99991e-01,9.27280e-03,9.99999e-01
4.204560528e-01,1.01710e-02,9.99999e-01,9.99999e-01,9.99994e-01,1.01710e-02,9.99999e-01
4.225583331e-01,1.11358e-02,9.99999e-01,9.99999e-01,9.99997e-01,1.11358e-02,9.99999e-01
4.246711247e-01,1.21704e-02,9.99999e-01,9.99999e-01,9.99998e-01,1.21704e-02,9.99999e-01
4.267944804e-01,1.32777e-02,9.99999e-01,9.99999e-01,9.99997e-01,1.32778e-02,9.99999e-01
4.289284528e-01,1.44610e-02,9.99999e-01,9.99999e-01,9.99997e-01,1.44610e-02,9.99999e-01
4.310730950e-01,1.57231e-02,9.99999e-01,9.99999e-01,9.99998e-01,1.57231e-02,9.99999e-01
4.332284605e-01,1.70672e-02,9.99999e-01,9.99999e-01,9.99999e-01,1.70672e-02,9.99999e-01
4.353946028e-01,1.84961e-02,9.99999e-01,9.99999e-01,9.99999e-01,1.84961e-02,9.99999e-01
4.375715758e-01,2.00129e-02,9.99999e-01,9.99999e-01,9.99998e-01,2.00129e-02,9.99999e-01
4.397594337e-01,2.16201e-02,9.99999e-01,9.99999e-01,9.99987e-01,2.16204e-02,9.99999e-01
4.419582309e-01,2.33200e-02,9.99999e-01,9.99999e-01,9.99938e-01,2.33214e-02,9.99999e-01
4.441680220e-01,2.51174e-02,9.99999e-01,9.99999e-01,9.99952e-01,2.51186e-02,9.99999e-01
4.463888621e-01,2.70133e-02,9.99999e-01,9.99999e-01,9.99950e-01,2.70146e-02,9.99999e-01
4.486208064e-01,2.90112e-02,9.99999e-01,9.99999e-01,9.99968e-01,2.90121e-02,9.99999e-01
4.508639105e-01,3.11129e-02,9.99999e-01,9.99999e-01,9.99985e-01,3.11133e-02,9.99999e-01
4.531182300e-01,3.33206e-02,9.99999e-01,9.99999e-01,9.99993e-01,3.33207e-02,9.99999e-01
4.553838212e-01,3.56363e-02,9.99999e-01,9.99999e-01,9.99995e-01,3.56365e-02,9.99999e-01
4.576607403e-01,3.80625e-02,9.99999e-01,9.99999e-01,9.99997e-01,3.80626e-02,9.99999e-01
4.599490440e-01,4.06010e-02,9.99999e-01,9.99999e-01,9.99998e-01,4.06010e-02,9.99999e-01
4.622487892e-01,4.32536e-02,9.99999e-01,9.99999e-01,9.99999e-01,4.32536e-02,9.99999e-01
4.645600332e-01,4.60218e-02,9.99999e-01,9.99999e-01,9.99998e-01,4.60218e-02,9.99999e-01
4.668828333e-01,4.89066e-02,9.99999e-01,9.99999e-01,9.99985e-01,4.89073e-02,9.99999e-01
4.692172475e-01,5.19097e-02,9.99999e-01,9.99999e-01,9.99968e-01,5.19113e-02,9.99999e-01
4.715633337e-01,5.50338e-02,9.99999e-01,9.99999e-01,9.99979e-01,5.50349e-02,9.99999e-01
4.739211504e-01,5.82781e-02,9.99999e-01,9.99999e-01,9.99980e-01,5.82793e-02,9.99999e-01
4.762907561e-01,6.16444e-02,9.99999e-01,9.99999e-01,9.99989e-01,6.16450e-02,9.99999e-01
4.786722099e-01,6.51327e-02,9.99999e-01,9.99999e-01,9.99995e-01,6.51329e-02,9.99999e-01
4.810655710e-01,6.87433e-02,9.99999e-01,9.99999e-01,9.99998e-01,6.87434e-02,9.99999e-01
4.834708988e-01,7.24759e-02,9.99999e-01,9.99999e-01,9.99987e-01,7.24767e-02,9.99999e-01
4.858882533e-01,7.63314e-02,9.99999e-01,9.99999e-01,9.99977e-01,7.63330e-02,9.99999e-01
4.883176946e-01,8.03108e-02,9.99999e-01,9.99999e-01,9.99981e-01,8.03122e-02,9.99999e-01
4.907592831e-01,8.44127e-02,9.99999e-01,9.99999e-01,9.99982e-01,8.44141e-02,9.99999e-01
4.932130795e-01,8.86372e-02,9.99999e-01,9.99999e-01,9.99987e-01,8.86382e-02,9.99999e-01
4.956791449e-01,9.29834e-02,9.99999e-01,9.99999e-01,9.99993e-01,9.29839e-02,9.99999e-01
4.981575406e-01,9.74476e-02,9.99999e-01,9.99999e-01,9.99968e-01,9.74506e-02,9.99999e-01
5.006483283e-01,1.02029e-01,9.99999e-01,9.99999e-01,9.99918e-01,1.02037e-01,9.99999e-01
5.031515699e-01,1.06699e-01,9.99999e-01,9.99999e-01,9.99591e-01,1.06743e-01,9.99999e-01
5.056673278e-01,1.11542e-01,9.99999e-01,9.99999e-01,9.99784e-01,1.11566e-01,9.99999e-01
5.081956644e-01,1.16473e-01,9.99999e-01,9.99999e-01,9.99728e-01,1.16505e-01,9.99999e-01
5.107366428e-01,1.21537e-01,9.99999e-01,9.99999e-01,9.99816e-01,1.21559e-01,9.99999e-01
5.132903260e-01,1.26712e-01,9.99999e-01,9.99999e-01,9.99894e-01,1.26726e-01,9.99999e-01
5.158567776e-01,1.31997e-01,9.99999e-01,9.99999e-01,9.99955e-01,1.32003e-01,9.99999e-01
5.184360615e-01,1.37388e-01,9.99999e-01,9.99999e-01,9.99981e-01,1.37390e-01,9.99999e-01
5.210282418e-01,1.42883e-01,9.99999e-01,9.99999e-01,9.99992e-01,1.42884e-01,9.99999e-01
5.236333830e-01,1.48478e-01,9.99999e-01,9.99999e-01,9.99972e-01,1.48482e-01,9.99999e-01
5.262515499e-01,1.54180e-01,9.99999e-01,9.99999e-01,9.99982e-01,1.54183e-01,9.99999e-01
5.288828077e-01,1.59981e-01,9.99999e-01,9.99999e-01,9.99984e-01,1.59983e-01,9.99999e-01
5.315272217e-01,1.65878e-01,9.99999e-01,9.99999e-01,9.99986e-01,1.65880e-01,9.99999e-01
5.341848578e-01,1.71871e-01,9.99999e-01,9.99999e-01,9.99990e-01,1.71872e-01,9.99999e-01
5.368557821e-01,1.77951e-01,9.99999e-01,9.99999e-01,9.99968e-01,1.77956e-01,9.99999e-01
5.395400610e-01,1.84108e-01,9.99999e-01,9.99999e-01,9.99887e-01,1.84128e-01,9.99999e-01
5.422377613e-01,1.90359e-01,9.99999e-01,9.99999e-01,9.99855e-01,1.90387e-01,9.99999e-01
5.449489501e-01,1.96701e-01,9.99999e-01,9.99999e-01,9.99865e-01,1.96728e-01,9.99999e-01
5.476736949e-01,2.03124e-01,9.99999e-01,9.99999e-01,9.99880e-01,2.03148e-01,9.99999e-01
5.504120634e-01,2.09628e-01,9.99999e-01,9.99999e-01,9.99913e-01,2.09646e-01,9.99999e-01
5.531641237e-01,2.16207e-01,9.99999e-01,9.99999e-01,9.99956e-01,2.16216e-01,9.99999e-01
5.559299443e-01,2.22852e-01,9.99999e-01,9.99999e-01,9.99978e-01,2.22857e-01,9.99999e-01
5.587095940e-01,2.29561e-01,9.99999e-01,9.99999e-01,9.99986e-01,2.29564e-01,9.99999e-01
5.615031420e-01,2.36331e-01,9.99999e-01,9.99999e-01,9.99984e-01,2.36335e-01,9.99999e-01
5.643106577e-01,2.43161e-01,9.99999e-01,9.99999e-01,9.99982e-01,2.43166e-01,9.99999e-01
5.671322110e-01,2.50002e-01,9.99999e-01,9.99999e-01,9.99797e-01,2.50053e-01,9.99999e-01
5.699678720e-01,2.56939e-01,9.99999e-01,9.99999e-01,9.99785e-01,2.56994e-01,9.99999e-01
5.728177114e-01,2.63925e-01,9.99999e-01,9.99999e-01,9.99776e-01,2.63984e-01,9.99999e-01
5.756818000e-01,2.70966e-01,9.99999e-01,9.99999e-01,9.99794e-01,2.71021e-01,9.99999e-01
5.785602090e-01,2.78051e-01,9.99999e-01,9.99999e-01,9.99820e-01,2.78101e-01,9.99999e-01
5.814530100e-01,2.85170e-01,9.99999e-01,9.99999e-01,9.99820e-01,2.85221e-01,9.99999e-01
5.843602750e-01,2.92314e-01,9.99999e-01,9.99999e-01,9.99785e-01,2.92377e-01,9.99999e-01
5.872820764e-01,2.99012e-01,9.99999e-01,9.99999e-01,9.98152e-01,2.99565e-01,9.99999e-01
5.902184868e-01,3.06098e-01,9.99999e-01,9.99999e-01,9.97766e-01,3.06784e-01,9.99999e-01
5.931695792e-01,3.13532e-01,9.99999e-01,9.99999e-01,9.98420e-01,3.14028e-01,9.99999e-01
5.961354271e-01,3.20740e-01,9.99999e-01,9.99999e-01,9.98269e-01,3.21295e-01,9.99999e-01
5.991161043e-01,3.28168e-01,9.99999e-01,9.99999e-01,9.98738e-01,3.28582e-01,9.99999e-01
6.021116848e-01,3.35646e-01,9.99999e-01,9.99999e-01,9.99284e-01,3.35886e-01,9.99999e-01
6.051222432e-01,3.43078e-01,9.99999e-01,9.99999e-01,9.99637e-01,3.43203e-01,9.99999e-01
6.081478544e-01,3.50475e-01,9.99999e-01,9.99999e-01,9.99843e-01,3.50530e-01,9.99999e-01
6.111885937e-01,3.57840e-01,9.99999e-01,9.99999e-01,9.99933e-01,3.57864e-01,9.99999e-01
6.142445367e-01,3.65191e-01,9.99999e-01,9.99999e-01,9.99970e-01,3.65202e-01,9.99999e-01
6.173157594e-01,3.72535e-01,9.99999e-01,9.99999e-01,9.99983e-01,3.72541e-01,9.99999e-01
6.204023382e-01,3.79873e-01,9.99999e-01,9.99999e-01,9.99985e-01,3.79878e-01,9.99999e-01
6.235043498e-01,3.87187e-01,9.99999e-01,9.99999e-01,9.99938e-01,3.87211e-01,9.99999e-01
6.266218716e-01,3.94409e-01,9.99999e-01,9.99999e-01,9.99678e-01,3.94536e-01,9.99999e-01
6.297549810e-01,4.01803e-01,9.99999e-01,9.99999e-01,9.99881e-01,4.01851e-01,9.99999e-01
6.329037559e-01,4.09057e-01,9.99999e-01,9.99999e-01,9.99766e-01,4.09153e-01,9.99999e-01
6.360682746e-01,4.16356e-01,9.99999e-01,9.99999e-01,9.99801e-01,4.16439e-01,9.99999e-01
6.392486160e-01,4.23599e-01,9.99999e-01,9.99999e-01,9.99742e-01,4.23708e-01,9.99999e-01
6.424448591e-01,4.30807e-01,9.99999e-01,9.99999e-01,9.99655e-01,4.30956e-01,9.99999e-01
6.456570834e-01,4.37480e-01,9.99999e-01,9.99999e-01,9.98400e-01,4.38181e-01,9.99999e-01
6.488853688e-01,4.44860e-01,9.99999e-01,9.99999e-01,9.98830e-01,4.45381e-01,9.99999e-01
6.521297956e-01,4.52014e-01,9.99999e-01,9.99999e-01,9.98807e-01,4.52554e-01,9.99999e-01
6.553904446e-01,4.59151e-01,9.99999e-01,9.99999e-01,9.98812e-01,4.59697e-01,9.99999e-01
6.586673968e-01,4.66334e-01,9.99999e-01,9.99999e-01,9.98983e-01,4.66808e-01,9.99999e-01
6.619607338e-01,4.73618e-01,9.99999e-01,9.99999e-01,9.99433e-01,4.73886e-01,9.99999e-01
6.652705375e-01,4.80765e-01,9.99999e-01,9.99999e-01,9.99659e-01,4.80928e-01,9.99999e-01
6.685968902e-01,4.87856e-01,9.99999e-01,9.99999e-01,9.99841e-01,4.87932e-01,9.99999e-01
6.719398746e-01,4.94862e-01,9.99999e-01,9.99999e-01,9.99926e-01,4.94898e-01,9.99999e-01
6.752995740e-01,5.01802e-01,9.99999e-01,9.99999e-01,9.99959e-01,5.01822e-01,9.99999e-01
6.786760719e-01,5.08674e-01,9.99999e-01,9.99999e-01,9.99942e-01,5.08703e-01,9.99999e-01
6.820694522e-01,5.15490e-01,9.99999e-01,9.99999e-01,9.99901e-01,5.15540e-01,9.99999e-01
6.854797995e-01,5.22265e-01,9.99999e-01,9.99999e-01,9.99873e-01,5.22331e-01,9.99999e-01
6.889071985e-01,5.28913e-01,9.99999e-01,9.99999e-01,9.99692e-01,5.29075e-01,9.99999e-01
6.923517345e-01,5.33090e-01,9.99999e-01,9.99999e-01,9.94996e-01,5.35770e-01,9.99999e-01
6.958134932e-01,5.41008e-01,9.99999e-01,9.99999e-01,9.97404e-01,5.42415e-01,9.99999e-01
6.992925606e-01,5.47652e-01,9.99999e-01,9.99999e-01,9.97527e-01,5.49009e-01,9.99999e-01
7.027890234e-01,5.53857e-01,9.99999e-01,9.99999e-01,9.96951e-01,5.55550e-01,9.99999e-01
7.063029686e-01,5.60598e-01,9.99999e-01,9.99999e-01,9.97436e-01,5.62038e-01,9.99999e-01
7.098344834e-01,5.67073e-01,9.99999e-01,9.99999e-01,9.97540e-01,5.68471e-01,9.99999e-01
7.133836558e-01,5.72960e-01,9.99999e-01,9.99999e-01,9.96714e-01,5.74849e-01,9.99999e-01
7.169505741e-01,5.65929e-01,9.99999e-01,9.99999e-01,9.73775e-01,5.81170e-01,9.99999e-01
7.205353270e-01,5.79878e-01,9.99999e-01,9.99999e-01,9.87138e-01,5.87433e-01,9.99999e-01
7.241380036e-01,5.83938e-01,9.99999e-01,9.99999e-01,9.83658e-01,5.93639e-01,9.99999e-01
7.277586936e-01,5.90934e-01,9.99999e-01,9.99999e-01,9.85243e-01,5.99785e-01,9.99999e-01
7.313974871e-01,5.96388e-01,9.99999e-01,9.99999e-01,9.84346e-01,6.05872e-01,9.99999e-01
7.350544745e-01,6.06652e-01,9.99999e-01,9.99999e-01,9.91425e-01,6.11898e-01,9.99999e-01
7.387297469e-01,6.13965e-01,9.99999e-01,9.99999e-01,9.93689e-01,6.17864e-01,9.99999e-01
7.424233956e-01,6.21841e-01,9.99999e-01,9.99999e-01,9.96910e-01,6.23768e-01,9.99999e-01
7.461355126e-01,6.28431e-01,9.99999e-01,9.99999e-01,9.98126e-01,6.29611e-01,9.99999e-01
7.498661902e-01,6.34837e-01,9.99999e-01,9.99999e-01,9.99127e-01,6.35391e-01,9.99999e-01
7.536155211e-01,6.40834e-01,9.99999e-01,9.99999e-01,9.99571e-01,6.41108e-01,9.99999e-01
7.573835987e-01,6.46620e-01,9.99999e-01,9.99999e-01,9.99779e-01,6.46762e-01,9.99999e-01
7.611705167e-01,6.52264e-01,9.99999e-01,9.99999e-01,9.99862e-01,6.52354e-01,9.99999e-01
7.649763693e-01,6.57825e-01,9.99999e-01,9.99999e-01,9.99913e-01,6.57881e-01,9.99999e-01
7.688012511e-01,6.63305e-01,9.99999e-01,9.99999e-01,9.99939e-01,6.63345e-01,9.99999e-01
7.726452574e-01,6.68712e-01,9.99999e-01,9.99999e-01,9.99950e-01,6.68745e-01,9.99999e-01
7.765084837e-01,6.74034e-01,9.99999e-01,9.99999e-01,9.99929e-01,6.74081e-01,9.99999e-01
7.803910261e-01,6.66041e-01,9.99999e-01,9.80694e-01,9.99697e-01,6.79353e-01,9.99999e-01
7.842929812e-01,6.29492e-01,9.99999e-01,9.20501e-01,9.98944e-01,6.84561e-01,9.99999e-01
7.882144461e-01,6.29567e-01,9.99999e-01,9.14748e-01,9.97828e-01,6.89704e-01,9.99999e-01
7.921555184e-01,6.59299e-01,9.99999e-01,9.50041e-01,9.98809e-01,6.94784e-01,9.99999e-01
7.961162960e-01,6.74877e-01,9.99999e-01,9.66411e-01,9.97893e-01,6.99800e-01,9.99999e-01
8.000968774e-01,6.90144e-01,9.99999e-01,9.81654e-01,9.97569e-01,7.04751e-01,9.99999e-01
8.040973618e-01,7.01167e-01,9.99999e-01,9.90467e-01,9.97567e-01,7.09639e-01,9.99999e-01
8.081178486e-01,7.07428e-01,9.99999e-01,9.95611e-01,9.94512e-01,7.14463e-01,9.99999e-01
8.121584379e-01,7.01931e-01,9.99999e-01,9.98645e-01,9.77272e-01,7.19224e-01,9.99999e-01
8.162192301e-01,7.04236e-01,9.99999e-01,9.99700e-01,9.73095e-01,7.23921e-01,9.99999e-01
8.203003262e-01,7.18646e-01,9.99999e-01,9.99995e-01,9.86402e-01,7.28556e-01,9.99999e-01
8.244018279e-01,7.19253e-01,9.99999e-01,9.99999e-01,9.81074e-01,7.33127e-01,9.99999e-01
8.285238370e-01,7.25739e-01,9.99999e-01,9.99999e-01,9.83870e-01,7.37637e-01,9.99999e-01
8.326664562e-01,7.29987e-01,9.99999e-01,9.99999e-01,9.83698e-01,7.42084e-01,9.99999e-01
8.368297885e-01,7.37775e-01,9.99999e-01,9.99999e-01,9.88353e-01,7.46469e-01,9.99999e-01
8.410139374e-01,7.45590e-01,9.99999e-01,9.99999e-01,9.93069e-01,7.50793e-01,9.99999e-01
8.452190071e-01,7.52488e-01,9.99999e-01,9.99999e-01,9.96598e-01,7.55056e-01,9.99999e-01
8.494451021e-01,7.57758e-01,9.99999e-01,9.99999e-01,9.98024e-01,7.59258e-01,9.99999e-01
8.536923276e-01,7.62508e-01,9.99999e-01,9.99999e-01,9.98832e-01,7.63399e-01,9.99999e-01
8.579607893e-01,7.66929e-01,9.99999e-01,9.99999e-01,9.99280e-01,7.67481e-01,9.99999e-01
8.622505932e-01,7.71151e-01,9.99999e-01,9.99999e-01,9.99542e-01,7.71503e-01,9.99999e-01
8.665618462e-01,7.36554e-01,9.99999e-01,9.50080e-01,9.99716e-01,7.75467e-01,9.99999e-01
8.708946554e-01,6.29369e-01,9.99999e-01,8.07789e-01,9.99675e-01,7.79372e-01,9.99999e-01
8.752491287e-01,6.60561e-01,9.99999e-01,8.43751e-01,9.99566e-01,7.83218e-01,9.99999e-01
8.796253743e-01,7.17105e-01,9.99999e-01,9.11716e-01,9.99399e-01,7.87008e-01,9.99999e-01
8.840235012e-01,7.53388e-01,9.99999e-01,9.53411e-01,9.99314e-01,7.90740e-01,9.99999e-01
8.884436187e-01,7.77709e-01,9.99999e-01,9.81419e-01,9.97490e-01,7.94415e-01,9.99999e-01
8.928858368e-01,7.71288e-01,9.99999e-01,9.92435e-01,9.73816e-01,7.98035e-01,9.99999e-01
8.973502660e-01,7.63447e-01,9.99999e-01,9.98160e-01,9.54140e-01,8.01599e-01,9.99998e-01
9.018370173e-01,7.85909e-01,9.99999e-01,9.99796e-01,9.76347e-01,8.05108e-01,9.99998e-01
9.063462024e-01,7.87602e-01,9.99999e-01,9.94750e-01,9.79129e-01,8.08563e-01,9.99998e-01
9.108779334e-01,7.76399e-01,9.99999e-01,9.88080e-01,9.67655e-01,8.11964e-01,9.99998e-01
9.154323231e-01,7.83279e-01,9.99999e-01,9.97196e-01,9.63381e-01,8.15312e-01,9.99998e-01
9.200094847e-01,7.62727e-01,9.99999e-01,9.58542e-01,9.71193e-01,8.18607e-01,9.99998e-01
9.246095321e-01,7.40296e-01,9.99999e-01,9.42900e-01,9.54729e-01,8.21849e-01,9.99997e-01
9.292325798e-01,5.78269e-01,9.99999e-01,9.54685e-01,7.31979e-01,8.25041e-01,9.99995e-01
9.338787427e-01,5.30754e-01,9.99999e-01,9.56370e-01,6.68155e-01,8.28181e-01,9.99993e-01
9.385481364e-01,6.84893e-01,9.99999e-01,9.67814e-01,8.50377e-01,8.31270e-01,9.99993e-01
9.432408771e-01,6.51253e-01,9.99999e-01,9.80209e-01,7.95831e-01,8.34310e-01,9.99993e-01
9.479570815e-01,6.03053e-01,9.99999e-01,9.89796e-01,7.27410e-01,8.37301e-01,9.99993e-01
9.526968669e-01,6.60930e-01,9.99999e-01,9.95069e-01,7.90281e-01,8.40243e-01,9.99995e-01
9.574603512e-01,6.79990e-01,9.99999e-01,9.97889e-01,8.08143e-01,8.43137e-01,9.99996e-01
9.622476530e-01,7.11437e-01,9.99999e-01,9.99341e-01,8.41495e-01,8.45983e-01,9.99997e-01
9.670588912e-01,7.68411e-01,9.99999e-01,9.99802e-01,9.05484e-01,8.48783e-01,9.99998e-01
9.718941857e-01,8.00512e-01,9.99999e-01,9.99985e-01,9.40093e-01,8.51536e-01,9.99998e-01
9.767536566e-01,8.11558e-01,9.99999e-01,9.99999e-01,9.50031e-01,8.54243e-01,9.99998e-01
9.816374249e-01,8.25013e-01,9.99999e-01,9.99999e-01,9.62781e-01,8.56906e-01,9.99999e-01
9.865456120e-01,8.39412e-01,9.99999e-01,9.99999e-01,9.76601e-01,8.59523e-01,9.99999e-01
9.914783401e-01,8.49580e-01,9.99999e-01,9.99999e-01,9.85480e-01,8.62097e-01,9.99999e-01
9.964357318e-01,8.57771e-01,9.99999e-01,9.99999e-01,9.92068e-01,8.64628e-01,9.99999e-01
1.001417910e+00,8.62989e-01,9.99999e-01,9.99999e-01,9.95240e-01,8.67116e-01,9.99999e-01
1.006425000e+00,8.67200e-01,9.99999e-01,9.99999e-01,9.97284e-01,8.69561e-01,9.99999e-01
1.011457125e+00,8.70496e-01,9.99999e-01,9.99999e-01,9.98314e-01,8.71965e-01,9.99999e-01
1.016514411e+00,8.73327e-01,9.99999e-01,9.99999e-01,9.98855e-01,8.74328e-01,9.99999e-01
1.021596983e+00,8.75826e-01,9.99999e-01,9.99971e-01,9.99087e-01,8.76650e-01,9.99999e-01
1.026704968e+00,8.76513e-01,9.99999e-01,9.97955e-01,9.99288e-01,8.78933e-01,9.99999e-01
1.031838492e+00,8.54806e-01,9.99999e-01,9.70563e-01,9.99482e-01,8.81176e-01,9.99999e-01
1.036997685e+00,2.31437e-01,9.99999e-01,2.62057e-01,9.99692e-01,8.83381e-01,9.99999e-01
1.042182673e+00,2.68142e-01,9.99999e-01,3.02901e-01,9.99633e-01,8.85547e-01,9.99999e-01
1.047393587e+00,2.54955e-01,9.99999e-01,2.87342e-01,9.99513e-01,8.87676e-01,9.99999e-01
1.052630555e+00,3.14002e-02,9.99999e-01,3.53088e-02,9.99332e-01,8.89767e-01,9.99999e-01
1.057893707e+00,6.16817e-02,9.99999e-01,6.92229e-02,9.98886e-01,8.91822e-01,9.99999e-01
1.063183176e+00,1.28263e-01,9.99999e-01,1.43707e-01,9.98168e-01,8.93841e-01,9.99999e-01
1.068499092e+00,2.42776e-01,9.99999e-01,2.71759e-01,9.96933e-01,8.95825e-01,9.99999e-01
1.073841587e+00,3.93726e-01,9.99999e-01,4.39984e-01,9.96410e-01,8.97774e-01,9.99999e-01
1.079210795e+00,5.33501e-01,9.99999e-01,5.95582e-01,9.95404e-01,8.99688e-01,9.99999e-01
1.084606849e+00,6.74754e-01,9.99999e-01,7.53525e-01,9.93047e-01,9.01568e-01,9.99999e-01
1.090029883e+00,7.72572e-01,9.99999e-01,8.63666e-01,9.90010e-01,9.03416e-01,9.99999e-01
1.095480033e+00,8.19638e-01,9.99999e-01,9.30408e-01,9.73014e-01,9.05230e-01,9.99998e-01
1.100957433e+00,8.17271e-01,9.99999e-01,9.65887e-01,9.32698e-01,9.07012e-01,9.99998e-01
1.106462220e+00,7.49779e-01,9.99999e-01,9.85760e-01,8.36732e-01,9.08762e-01,9.99996e-01
1.111994531e+00,6.21778e-01,9.99999e-01,9.94700e-01,6.86402e-01,9.10481e-01,9.99994e-01
1.117554504e+00,4.94302e-01,9.99999e-01,9.98704e-01,5.42525e-01,9.12169e-01,9.99992e-01
1.123142276e+00,5.79221e-01,9.99999e-01,9.99914e-01,6.33881e-01,9.13827e-01,9.99990e-01
1.128757988e+00,6.85794e-01,9.99999e-01,9.99999e-01,7.49135e-01,9.15455e-01,9.99990e-01
1.134401778e+00,4.65206e-01,9.99999e-01,9.99999e-01,5.07289e-01,9.17054e-01,9.99988e-01
1.140073787e+00,7.74575e-01,9.99999e-01,9.99999e-01,8.43197e-01,9.18624e-01,9.99990e-01
1.145774156e+00,6.42775e-01,9.99999e-01,9.99999e-01,6.98547e-01,9.20165e-01,9.99992e-01
1.151503026e+00,6.16691e-01,9.99999e-01,9.99999e-01,6.69099e-01,9.21678e-01,9.99993e-01
1.157260541e+00,6.63460e-01,9.99999e-01,9.99999e-01,7.18683e-01,9.23164e-01,9.99994e-01
1.163046844e+00,7.24801e-01,9.99999e-01,9.99999e-01,7.83890e-01,9.24623e-01,9.99996e-01
1.168862078e+00,7.82617e-01,9.99999e-01,9.99999e-01,8.45108e-01,9.26056e-01,9.99997e-01
1.174706389e+00,8.35998e-01,9.99999e-01,9.99999e-01,9.01383e-01,9.27462e-01,9.99998e-01
1.180579921e+00,8.71993e-01,9.99999e-01,9.99999e-01,9.38795e-01,9.28843e-01,9.99999e-01
1.186482820e+00,8.97622e-01,9.99999e-01,9.99995e-01,9.64983e-01,9.30198e-01,9.99999e-01
1.192415234e+00,9.05707e-01,9.99999e-01,9.92659e-01,9.79425e-01,9.31528e-01,9.99999e-01
1.198377311e+00,5.33532e-01,9.99999e-01,5.80425e-01,9.82625e-01,9.32834e-01,9.99999e-01
1.204369197e+00,4.13181e-07,9.99999e-01,4.46576e-07,9.83544e-01,9.34116e-01,9.99999e-01
1.210391043e+00,4.02505e-23,9.99999e-01,4.34116e-23,9.84265e-01,9.35375e-01,9.99999e-01
1.216442998e+00,2.95269e-20,9.99999e-01,3.17893e-20,9.86604e-01,9.36610e-01,9.99999e-01
1.222525213e+00,5.74291e-20,9.99999e-01,6.15715e-20,9.89559e-01,9.37822e-01,9.99999e-01
1.228637839e+00,2.18427e-15,9.99999e-01,2.33820e-15,9.92739e-01,9.39012e-01,9.99999e-01
