#,Wave/freq,Total,O2,CO2,H2O,Rayleigh,CIA
4.000000000e-01,4.40198e-02,9.99999e-01,9.99999e-01,9.99993e-01,4.40201e-02,9.99999e-01
4.020000000e-01,4.68240e-02,9.99999e-01,9.99999e-01,9.99995e-01,4.68242e-02,9.99999e-01
4.040100000e-01,4.97429e-02,9.99999e-01,9.99999e-01,9.99997e-01,4.97430e-02,9.99999e-01
4.060300500e-01,5.27806e-02,9.99999e-01,9.99999e-01,9.99999e-01,5.27806e-02,9.99999e-01
4.080602003e-01,5.59382e-02,9.99999e-01,9.99999e-01,9.99999e-01,5.59382e-02,9.99999e-01
4.101005013e-01,5.92167e-02,9.99999e-01,9.99999e-01,9.99999e-01,5.92167e-02,9.99999e-01
4.121510038e-01,6.26169e-02,9.99999e-01,9.99999e-01,9.99999e-01,6.26169e-02,9.99999e-01
4.142117588e-01,6.61393e-02,9.99999e-01,9.99999e-01,9.99997e-01,6.61394e-02,9.99999e-01
4.162828176e-01,6.97840e-02,9.99999e-01,9.99999e-01,9.99991e-01,6.97845e-02,9.99999e-01
4.183642317e-01,7.35522e-02,9.99999e-01,9.99999e-01,9.99995e-01,7.35525e-02,9.99999e-01
4.204560528e-01,7.74433e-02,9.99999e-01,9.99999e-01,9.99996e-01,7.74435e-02,9.99999e-01
4.225583331e-01,8.14573e-02,9.99999e-01,9.99999e-01,9.99998e-01,8.14573e-02,9.99999e-01
4.246711247e-01,8.55937e-02,9.99999e-01,9.99999e-01,9.99998e-01,8.55938e-02,9.99999e-01
4.267944804e-01,8.98521e-02,9.99999e-01,9.99999e-01,9.99998e-01,8.98523e-02,9.99999e-01
4.289284528e-01,9.42321e-02,9.99999e-01,9.99999e-01,9.99998e-01,9.42322e-02,9.99999e-01
4.310730950e-01,9.87328e-02,9.99999e-01,9.99999e-01,9.99999e-01,9.87328e-02,9.99999e-01
4.332284605e-01,1.03353e-01,9.99999e-01,9.99999e-01,9.99999e-01,1.03353e-01,9.99999e-01
4.353946028e-01,1.08092e-01,9.99999e-01,9.99999e-01,9.99999e-01,1.08092e-01,9.99999e-01
4.375715758e-01,1.12948e-01,9.99999e-01,9.99999e-01,9.99998e-01,1.12948e-01,9.99999e-01
4.397594337e-01,1.17919e-01,9.99999e-01,9.99999e-01,9.99992e-01,1.17920e-01,9.99999e-01
4.419582309e-01,1.23001e-01,9.99999e-01,9.99999e-01,9.99966e-01,1.23005e-01,9.99999e-01
4.441680220e-01,1.28200e-01,9.99999e-01,9.99999e-01,9.99973e-01,1.28204e-01,9.99999e-01
4.463888621e-01,1.33509e-01,9.99999e-01,9.99999e-01,9.99972e-01,1.33512e-01,9.99999e-01
4.486208064e-01,1.38927e-01,9.99999e-01,9.99999e-01,9.99982e-01,1.38930e-01,9.99999e-01
4.508639105e-01,1.44452e-01,9.99999e-01,9.99999e-01,9.99991e-01,1.44453e-01,9.99999e-01
4.531182300e-01,1.50080e-01,9.99999e-01,9.99999e-01,9.99996e-01,1.50080e-01,9.99999e-01
4.553838212e-01,1.55809e-01,9.99999e-01,9.99999e-01,9.99997e-01,1.55809e-01,9.99999e-01
4.576607403e-01,1.61637e-01,9.99999e-01,9.99999e-01,9.99998e-01,1.61638e-01,9.99999e-01
4.599490440e-01,1.67562e-01,9.99999e-01,9.99999e-01,9.99998e-01,1.67562e-01,9.99999e-01
4.622487892e-01,1.73580e-01,9.99999e-01,9.99999e-01,9.99999e-01,1.73580e-01,9.99999e-01
4.645600332e-01,1.79689e-01,9.99999e-01,9.99999e-01,9.99999e-01,1.79689e-01,9.99999e-01
4.668828333e-01,1.85884e-01,9.99999e-01,9.99999e-01,9.99991e-01,1.85886e-01,9.99999e-01
4.692172475e-01,1.92165e-01,9.99999e-01,9.99999e-01,9.99982e-01,1.92168e-01,9.99999e-01
4.715633337e-01,1.98529e-01,9.99999e-01,9.99999e-01,9.99988e-01,1.98532e-01,9.99999e-01
4.739211504e-01,2.04972e-01,9.99999e-01,9.99999e-01,9.99988e-01,2.04974e-01,9.99999e-01
4.762907561e-01,2.11491e-01,9.99999e-01,9.99999e-01,9.99993e-01,2.11493e-01,9.99999e-01
4.786722099e-01,2.18083e-01,9.99999e-01,9.99999e-01,9.99997e-01,2.18083e-01,9.99999e-01
4.810655710e-01,2.24743e-01,9.99999e-01,9.99999e-01,9.99998e-01,2.24743e-01,9.99999e-01
4.834708988e-01,2.31467e-01,9.99999e-01,9.99999e-01,9.99993e-01,2.31468e-01,9.99999e-01
4.858882533e-01,2.38254e-01,9.99999e-01,9.99999e-01,9.99987e-01,2.38256e-01,9.99999e-01
4.883176946e-01,2.45101e-01,9.99999e-01,9.99999e-01,9.99989e-01,2.45104e-01,9.99999e-01
4.907592831e-01,2.52004e-01,9.99999e-01,9.99999e-01,9.99990e-01,2.52006e-01,9.99999e-01
4.932130795e-01,2.58960e-01,9.99999e-01,9.99999e-01,9.99992e-01,2.58961e-01,9.99999e-01
4.956791449e-01,2.65964e-01,9.99999e-01,9.99999e-01,9.99996e-01,2.65965e-01,9.99999e-01
4.981575406e-01,2.73010e-01,9.99999e-01,9.99999e-01,9.99982e-01,2.73015e-01,9.99999e-01
5.006483283e-01,2.80094e-01,9.99999e-01,9.99999e-01,9.99954e-01,2.80106e-01,9.99999e-01
5.031515699e-01,2.87171e-01,9.99999e-01,9.99999e-01,9.99772e-01,2.87237e-01,9.99999e-01
5.056673278e-01,2.94367e-01,9.99999e-01,9.99999e-01,9.99879e-01,2.94402e-01,9.99999e-01
5.081956644e-01,3.01554e-01,9.99999e-01,9.99999e-01,9.99848e-01,3.01599e-01,9.99999e-01
5.107366428e-01,3.08794e-01,9.99999e-01,9.99999e-01,9.99897e-01,3.08825e-01,9.99999e-01
5.132903260e-01,3.16058e-01,9.99999e-01,9.99999e-01,9.99940e-01,3.16077e-01,9.99999e-01
5.158567776e-01,3.23342e-01,9.99999e-01,9.99999e-01,9.99974e-01,3.23350e-01,9.99999e-01
5.184360615e-01,3.30639e-01,9.99999e-01,9.99999e-01,9.99989e-01,3.30642e-01,9.99999e-01
5.210282418e-01,3.37948e-01,9.99999e-01,9.99999e-01,9.99995e-01,3.37949e-01,9.99999e-01
5.236333830e-01,3.45264e-01,9.99999e-01,9.99999e-01,9.99984e-01,3.45269e-01,9.99999e-01
5.262515499e-01,3.52595e-01,9.99999e-01,9.99999e-01,9.99990e-01,3.52599e-01,9.99999e-01
5.288828077e-01,3.59931e-01,9.99999e-01,9.99999e-01,9.99991e-01,3.59934e-01,9.99999e-01
5.315272217e-01,3.67270e-01,9.99999e-01,9.99999e-01,9.99992e-01,3.67273e-01,9.99999e-01
5.341848578e-01,3.74610e-01,9.99999e-01,9.99999e-01,9.99994e-01,3.74612e-01,9.99999e-01
5.368557821e-01,3.81941e-01,9.99999e-01,9.99999e-01,9.99982e-01,3.81948e-01,9.99999e-01
5.395400610e-01,3.89255e-01,9.99999e-01,9.99999e-01,9.99937e-01,3.89279e-01,9.99999e-01
5.422377613e-01,3.96569e-01,9.99999e-01,9.99999e-01,9.99918e-01,3.96601e-01,9.99999e-01
5.449489501e-01,4.03882e-01,9.99999e-01,9.99999e-01,9.99924e-01,4.03913e-01,9.99999e-01
5.476736949e-01,4.11183e-01,9.99999e-01,9.99999e-01,9.99933e-01,4.11210e-01,9.99999e-01
5.504120634e-01,4.18472e-01,9.99999e-01,9.99999e-01,9.99951e-01,4.18492e-01,9.99999e-01
5.531641237e-01,4.25745e-01,9.99999e-01,9.99999e-01,9.99975e-01,4.25755e-01,9.99999e-01
5.559299443e-01,4.32992e-01,9.99999e-01,9.99999e-01,9.99987e-01,4.32997e-01,9.99999e-01
5.587095940e-01,4.40212e-01,9.99999e-01,9.99999e-01,9.99992e-01,4.40215e-01,9.99999e-01
5.615031420e-01,4.47404e-01,9.99999e-01,9.99999e-01,9.99991e-01,4.47408e-01,9.99999e-01
5.643106577e-01,4.54568e-01,9.99999e-01,9.99999e-01,9.99990e-01,4.54573e-01,9.99999e-01
5.671322110e-01,4.61656e-01,9.99999e-01,9.99999e-01,9.99888e-01,4.61707e-01,9.99999e-01
5.699678720e-01,4.68753e-01,9.99999e-01,9.99999e-01,9.99879e-01,4.68809e-01,9.99999e-01
5.728177114e-01,4.75818e-01,9.99999e-01,9.99999e-01,9.99875e-01,4.75877e-01,9.99999e-01
5.756818000e-01,4.82853e-01,9.99999e-01,9.99999e-01,9.99885e-01,4.82908e-01,9.99999e-01
5.785602090e-01,4.89853e-01,9.99999e-01,9.99999e-01,9.99899e-01,4.89902e-01,9.99999e-01
5.814530100e-01,4.96806e-01,9.99999e-01,9.99999e-01,9.99899e-01,4.96856e-01,9.99999e-01
5.843602750e-01,5.03708e-01,9.99999e-01,9.99999e-01,9.99881e-01,5.03768e-01,9.99999e-01
5.872820764e-01,5.10114e-01,9.99999e-01,9.99999e-01,9.98975e-01,5.10637e-01,9.99999e-01
5.902184868e-01,5.16815e-01,9.99999e-01,9.99999e-01,9.98751e-01,5.17461e-01,9.99999e-01
5.931695792e-01,5.23778e-01,9.99999e-01,9.99999e-01,9.99119e-01,5.24239e-01,9.99999e-01
5.961354271e-01,5.30456e-01,9.99999e-01,9.99999e-01,9.99033e-01,5.30969e-01,9.99999e-01
5.991161043e-01,5.37271e-01,9.99999e-01,9.99999e-01,9.99294e-01,5.37650e-01,9.99999e-01
6.021116848e-01,5.44063e-01,9.99999e-01,9.99999e-01,9.99599e-01,5.44281e-01,9.99999e-01
6.051222432e-01,5.50749e-01,9.99999e-01,9.99999e-01,9.99796e-01,5.50860e-01,9.99999e-01
6.081478544e-01,5.57338e-01,9.99999e-01,9.99999e-01,9.99912e-01,5.57386e-01,9.99999e-01
6.111885937e-01,5.63838e-01,9.99999e-01,9.99999e-01,9.99962e-01,5.63859e-01,9.99999e-01
6.142445367e-01,5.70267e-01,9.99999e-01,9.99999e-01,9.99983e-01,5.70276e-01,9.99999e-01
6.173157594e-01,5.76633e-01,9.99999e-01,9.99999e-01,9.99990e-01,5.76638e-01,9.99999e-01
6.204023382e-01,5.82939e-01,9.99999e-01,9.99999e-01,9.99991e-01,5.82943e-01,9.99999e-01
6.235043498e-01,5.89171e-01,9.99999e-01,9.99999e-01,9.99966e-01,5.89190e-01,9.99999e-01
6.266218716e-01,5.95272e-01,9.99999e-01,9.99999e-01,9.99820e-01,5.95379e-01,9.99999e-01
6.297549810e-01,6.01469e-01,9.99999e-01,9.99999e-01,9.99933e-01,6.01509e-01,9.99999e-01
6.329037559e-01,6.07500e-01,9.99999e-01,9.99999e-01,9.99869e-01,6.07579e-01,9.99999e-01
6.360682746e-01,6.13520e-01,9.99999e-01,9.99999e-01,9.99889e-01,6.13588e-01,9.99999e-01
6.392486160e-01,6.19448e-01,9.99999e-01,9.99999e-01,9.99856e-01,6.19536e-01,9.99999e-01
6.424448591e-01,6.25304e-01,9.99999e-01,9.99999e-01,9.99808e-01,6.25423e-01,9.99999e-01
6.456570834e-01,6.30689e-01,9.99999e-01,9.99999e-01,9.99113e-01,6.31248e-01,9.99999e-01
6.488853688e-01,6.36523e-01,9.99999e-01,9.99999e-01,9.99234e-01,6.37010e-01,9.99999e-01
6.521297956e-01,6.42282e-01,9.99999e-01,9.99999e-01,9.99333e-01,6.42710e-01,9.99999e-01
6.553904446e-01,6.47920e-01,9.99999e-01,9.99999e-01,9.99341e-01,6.48347e-01,9.99999e-01
6.586673968e-01,6.53548e-01,9.99999e-01,9.99999e-01,9.99431e-01,6.53920e-01,9.99999e-01
6.619607338e-01,6.59213e-01,9.99999e-01,9.99999e-01,9.99671e-01,6.59430e-01,9.99999e-01
6.652705375e-01,6.64749e-01,9.99999e-01,9.99999e-01,9.99809e-01,6.64875e-01,9.99999e-01
6.685968902e-01,6.70198e-01,9.99999e-01,9.99999e-01,9.99911e-01,6.70257e-01,9.99999e-01
6.719398746e-01,6.75548e-01,9.99999e-01,9.99999e-01,9.99958e-01,6.75575e-01,9.99999e-01
6.752995740e-01,6.80814e-01,9.99999e-01,9.99999e-01,9.99977e-01,6.80829e-01,9.99999e-01
6.786760719e-01,6.85997e-01,9.99999e-01,9.99999e-01,9.99967e-01,6.86019e-01,9.99999e-01
6.820694522e-01,6.91107e-01,9.99999e-01,9.99999e-01,9.99944e-01,6.91144e-01,9.99999e-01
6.854797995e-01,6.96157e-01,9.99999e-01,9.99999e-01,9.99929e-01,6.96206e-01,9.99999e-01
6.889071985e-01,7.01085e-01,9.99999e-01,9.99999e-01,9.99830e-01,7.01203e-01,9.99999e-01
6.923517345e-01,7.04175e-01,9.99999e-01,9.99999e-01,9.97221e-01,7.06137e-01,9.99999e-01
6.958134932e-01,7.09965e-01,9.99999e-01,9.99999e-01,9.98534e-01,7.11007e-01,9.99999e-01
6.992925606e-01,7.14831e-01,9.99999e-01,9.99999e-01,9.98627e-01,7.15813e-01,9.99999e-01
7.027890234e-01,7.19329e-01,9.99999e-01,9.99999e-01,9.98296e-01,7.20556e-01,9.99999e-01
7.063029686e-01,7.24198e-01,9.99999e-01,9.99999e-01,9.98568e-01,7.25235e-01,9.99999e-01
7.098344834e-01,7.28850e-01,9.99999e-01,9.99999e-01,9.98626e-01,7.29852e-01,9.99999e-01
7.133836558e-01,7.33073e-01,9.99999e-01,9.99999e-01,9.98184e-01,7.34406e-01,9.99999e-01
7.169505741e-01,7.28063e-01,9.99999e-01,9.99999e-01,9.85335e-01,7.38898e-01,9.99999e-01
7.205353270e-01,7.37919e-01,9.99999e-01,9.99999e-01,9.92723e-01,7.43328e-01,9.99999e-01
7.241380036e-01,7.40868e-01,9.99999e-01,9.99999e-01,9.90867e-01,7.47695e-01,9.99999e-01
7.277586936e-01,7.45798e-01,9.99999e-01,9.99999e-01,9.91749e-01,7.52002e-01,9.99999e-01
7.313974871e-01,7.49595e-01,9.99999e-01,9.99999e-01,9.91203e-01,7.56247e-01,9.99999e-01
7.350544745e-01,7.56781e-01,9.99999e-01,9.99999e-01,9.95197e-01,7.60432e-01,9.99999e-01
7.387297469e-01,7.61855e-01,9.99999e-01,9.99999e-01,9.96465e-01,7.64557e-01,9.99999e-01
7.424233956e-01,7.67291e-01,9.99999e-01,9.99999e-01,9.98267e-01,7.68622e-01,9.99999e-01
7.461355126e-01,7.71818e-01,9.99999e-01,9.99999e-01,9.98951e-01,7.72628e-01,9.99999e-01
7.498661902e-01,7.76195e-01,9.99999e-01,9.99999e-01,9.99510e-01,7.76575e-01,9.99999e-01
7.536155211e-01,7.80276e-01,9.99999e-01,9.99999e-01,9.99760e-01,7.80463e-01,9.99999e-01
7.573835987e-01,7.84197e-01,9.99999e-01,9.99999e-01,9.99876e-01,7.84294e-01,9.99999e-01
7.611705167e-01,7.88006e-01,9.99999e-01,9.99999e-01,9.99922e-01,7.88067e-01,9.99999e-01
7.649763693e-01,7.91745e-01,9.99999e-01,9.99999e-01,9.99951e-01,7.91783e-01,9.99999e-01
7.688012511e-01,7.95416e-01,9.99999e-01,9.99999e-01,9.99966e-01,7.95443e-01,9.99999e-01
7.726452574e-01,7.99025e-01,9.99999e-01,9.99999e-01,9.99972e-01,7.99046e-01,9.99999e-01
7.765084837e-01,8.02564e-01,9.99999e-01,9.99999e-01,9.99960e-01,8.02595e-01,9.99999e-01
7.803910261e-01,7.97345e-01,9.99999e-01,9.89315e-01,9.99832e-01,8.06089e-01,9.99999e-01
7.842929812e-01,7.72084e-01,9.99999e-01,9.54294e-01,9.99415e-01,8.09528e-01,9.99999e-01
7.882144461e-01,7.72255e-01,9.99999e-01,9.51120e-01,9.98788e-01,8.12914e-01,9.99999e-01
7.921555184e-01,7.92717e-01,9.99999e-01,9.71815e-01,9.99333e-01,8.16247e-01,9.99999e-01
7.961162960e-01,8.03039e-01,9.99999e-01,9.81024e-01,9.98830e-01,8.19527e-01,9.99999e-01
8.000968774e-01,8.13170e-01,9.99999e-01,9.89689e-01,9.98644e-01,8.22755e-01,9.99999e-01
8.040973618e-01,8.20390e-01,9.99999e-01,9.94635e-01,9.98644e-01,8.25932e-01,9.99999e-01
8.081178486e-01,8.24505e-01,9.99999e-01,9.97542e-01,9.96956e-01,8.29058e-01,9.99999e-01
8.121584379e-01,8.20952e-01,9.99999e-01,9.99235e-01,9.87314e-01,8.32133e-01,9.99999e-01
8.162192301e-01,8.22362e-01,9.99999e-01,9.99830e-01,9.84841e-01,8.35159e-01,9.99999e-01
8.203003262e-01,8.31811e-01,9.99999e-01,9.99996e-01,9.92456e-01,8.38136e-01,9.99999e-01
8.244018279e-01,8.32026e-01,9.99999e-01,9.99999e-01,9.89253e-01,8.41064e-01,9.99999e-01
8.285238370e-01,8.36337e-01,9.99999e-01,9.99999e-01,9.90985e-01,8.43945e-01,9.99999e-01
8.326664562e-01,8.39036e-01,9.99999e-01,9.99999e-01,9.90856e-01,8.46778e-01,9.99999e-01
8.368297885e-01,8.44016e-01,9.99999e-01,9.99999e-01,9.93468e-01,8.49564e-01,9.99999e-01
8.410139374e-01,8.48995e-01,9.99999e-01,9.99999e-01,9.96116e-01,8.52304e-01,9.99999e-01
8.452190071e-01,8.53370e-01,9.99999e-01,9.99999e-01,9.98093e-01,8.54999e-01,9.99999e-01
8.494451021e-01,8.56703e-01,9.99999e-01,9.99999e-01,9.98896e-01,8.57649e-01,9.99999e-01
8.536923276e-01,8.59692e-01,9.99999e-01,9.99999e-01,9.99345e-01,8.60254e-01,9.99999e-01
8.579607893e-01,8.62469e-01,9.99999e-01,9.99999e-01,9.99597e-01,8.62816e-01,9.99999e-01
8.622505932e-01,8.65113e-01,9.99999e-01,9.99999e-01,9.99744e-01,8.65334e-01,9.99999e-01
8.665618462e-01,8.40945e-01,9.99999e-01,9.69192e-01,9.99841e-01,8.67810e-01,9.99999e-01
8.708946554e-01,7.70804e-01,9.99999e-01,8.85890e-01,9.99819e-01,8.70244e-01,9.99999e-01
8.752491287e-01,7.92578e-01,9.99999e-01,9.08473e-01,9.99758e-01,8.72636e-01,9.99999e-01
8.796253743e-01,8.30406e-01,9.99999e-01,9.49361e-01,9.99666e-01,8.74987e-01,9.99999e-01
8.840235012e-01,8.53822e-01,9.99999e-01,9.73609e-01,9.99618e-01,8.77299e-01,9.99999e-01
8.884436187e-01,8.69152e-01,9.99999e-01,9.89514e-01,9.98622e-01,8.79570e-01,9.99999e-01
8.928858368e-01,8.65240e-01,9.99999e-01,9.95751e-01,9.85392e-01,8.81802e-01,9.99999e-01
8.973502660e-01,8.60201e-01,9.99999e-01,9.98962e-01,9.74086e-01,8.83996e-01,9.99999e-01
9.018370173e-01,8.74195e-01,9.99999e-01,9.99885e-01,9.86619e-01,8.86151e-01,9.99999e-01
9.063462024e-01,8.75415e-01,9.99999e-01,9.97109e-01,9.88358e-01,8.88270e-01,9.99999e-01
9.108779334e-01,8.68347e-01,9.99999e-01,9.93307e-01,9.81831e-01,8.90351e-01,9.99999e-01
9.154323231e-01,8.72623e-01,9.99999e-01,9.98416e-01,9.79383e-01,8.92396e-01,9.99998e-01
9.200094847e-01,8.59457e-01,9.99999e-01,9.76507e-01,9.83771e-01,8.94405e-01,9.99998e-01
9.246095321e-01,8.45584e-01,9.99999e-01,9.67614e-01,9.74715e-01,8.96378e-01,9.99998e-01
9.292325798e-01,7.35366e-01,9.99999e-01,9.74534e-01,8.39176e-01,8.98317e-01,9.99997e-01
9.338787427e-01,6.99031e-01,9.99999e-01,9.75317e-01,7.95375e-01,9.00222e-01,9.99996e-01
9.385481364e-01,8.08225e-01,9.99999e-01,9.81867e-01,9.12164e-01,9.02093e-01,9.99996e-01
9.432408771e-01,7.85405e-01,9.99999e-01,9.88859e-01,8.78479e-01,9.03931e-01,9.99995e-01
9.479570815e-01,7.50493e-01,9.99999e-01,9.94282e-01,8.33271e-01,9.05736e-01,9.99996e-01
9.526968669e-01,7.90980e-01,9.99999e-01,9.97235e-01,8.73931e-01,9.07509e-01,9.99997e-01
9.574603512e-01,8.05596e-01,9.99999e-01,9.98816e-01,8.87027e-01,9.09250e-01,9.99997e-01
9.622476530e-01,8.26383e-01,9.99999e-01,9.99630e-01,9.07484e-01,9.10961e-01,9.99998e-01
9.670588912e-01,8.63095e-01,9.99999e-01,9.99888e-01,9.45815e-01,9.12640e-01,9.99998e-01
9.718941857e-01,8.83260e-01,9.99999e-01,9.99991e-01,9.66069e-01,9.14290e-01,9.99999e-01
9.767536566e-01,8.90060e-01,9.99999e-01,9.99999e-01,9.71777e-01,9.15909e-01,9.99999e-01
9.816374249e-01,8.98240e-01,9.99999e-01,9.99999e-01,9.79008e-01,9.17500e-01,9.99999e-01
9.865456120e-01,9.06972e-01,9.99999e-01,9.99999e-01,9.86845e-01,9.19061e-01,9.99999e-01
9.914783401e-01,9.13101e-01,9.99999e-01,9.99999e-01,9.91859e-01,9.20595e-01,9.99999e-01
9.964357318e-01,9.18006e-01,9.99999e-01,9.99999e-01,9.95558e-01,9.22101e-01,9.99999e-01
1.001417910e+00,9.21119e-01,9.99999e-01,9.99999e-01,9.97336e-01,9.23579e-01,9.99999e-01
1.006425000e+00,9.23628e-01,9.99999e-01,9.99999e-01,9.98483e-01,9.25030e-01,9.99999e-01
1.011457125e+00,9.25582e-01,9.99999e-01,9.99999e-01,9.99056e-01,9.26455e-01,9.99999e-01
1.016514411e+00,9.27261e-01,9.99999e-01,9.99999e-01,9.99360e-01,9.27854e-01,9.99999e-01
1.021596983e+00,9.28741e-01,9.99999e-01,9.99985e-01,9.99490e-01,9.29228e-01,9.99999e-01
1.026704968e+00,9.29165e-01,9.99999e-01,9.98880e-01,9.99602e-01,9.30576e-01,9.99999e-01
1.031838492e+00,9.15053e-01,9.99999e-01,9.82202e-01,9.99710e-01,9.31899e-01,9.99999e-01
1.036997685e+00,3.78575e-01,9.99999e-01,4.05735e-01,9.99828e-01,9.33198e-01,9.99999e-01
1.042182673e+00,4.71487e-01,9.99999e-01,5.04646e-01,9.99795e-01,9.34474e-01,9.99999e-01
1.047393587e+00,4.14599e-01,9.99999e-01,4.43188e-01,9.99728e-01,9.35725e-01,9.99999e-01
1.052630555e+00,1.21022e-01,9.99999e-01,1.29205e-01,9.99628e-01,9.36954e-01,9.99999e-01
1.057893707e+00,1.95802e-01,9.99999e-01,2.08818e-01,9.99380e-01,9.38160e-01,9.99999e-01
1.063183176e+00,3.05030e-01,9.99999e-01,3.25014e-01,9.98980e-01,9.39344e-01,9.99999e-01
1.068499092e+00,4.50480e-01,9.99999e-01,4.79747e-01,9.98290e-01,9.40505e-01,9.99999e-01
1.073841587e+00,5.90863e-01,9.99999e-01,6.28658e-01,9.98001e-01,9.41646e-01,9.99999e-01
1.079210795e+00,7.02539e-01,9.99999e-01,7.47050e-01,9.97434e-01,9.42765e-01,9.99999e-01
1.084606849e+00,8.02190e-01,9.99999e-01,8.53160e-01,9.96120e-01,9.43863e-01,9.99999e-01
1.090029883e+00,8.65716e-01,9.99999e-01,9.21230e-01,9.94447e-01,9.44941e-01,9.99999e-01
1.095480033e+00,8.94876e-01,9.99999e-01,9.60397e-01,9.84916e-01,9.45998e-01,9.99999e-01
1.100957433e+00,8.93578e-01,9.99999e-01,9.80763e-01,9.62000e-01,9.47036e-01,9.99998e-01
1.106462220e+00,8.51611e-01,9.99999e-01,9.91998e-01,9.05436e-01,9.48055e-01,9.99998e-01
1.111994531e+00,7.65810e-01,9.99999e-01,9.97028e-01,8.09268e-01,9.49054e-01,9.99996e-01
1.117554504e+00,6.71865e-01,9.99999e-01,9.99271e-01,7.07685e-01,9.50035e-01,9.99995e-01
1.123142276e+00,7.31591e-01,9.99999e-01,9.99951e-01,7.69321e-01,9.50997e-01,9.99994e-01
1.128757988e+00,8.08098e-01,9.99999e-01,9.99999e-01,8.48898e-01,9.51941e-01,9.99994e-01
1.134401778e+00,6.29526e-01,9.99999e-01,9.99999e-01,6.60668e-01,9.52868e-01,9.99993e-01
1.140073787e+00,8.66779e-01,9.99999e-01,9.99999e-01,9.08789e-01,9.53777e-01,9.99994e-01
1.145774156e+00,7.78909e-01,9.99999e-01,9.99999e-01,8.15896e-01,9.54669e-01,9.99995e-01
1.151503026e+00,7.60045e-01,9.99999e-01,9.99999e-01,7.95408e-01,9.55544e-01,9.99996e-01
1.157260541e+00,7.94274e-01,9.99999e-01,9.99999e-01,8.30482e-01,9.56403e-01,9.99996e-01
1.163046844e+00,8.34805e-01,9.99999e-01,9.99999e-01,8.72092e-01,9.57245e-01,9.99997e-01
1.168862078e+00,8.71924e-01,9.99999e-01,9.99999e-01,9.10082e-01,9.58072e-01,9.99998e-01
1.174706389e+00,9.04755e-01,9.99999e-01,9.99999e-01,9.43551e-01,9.58883e-01,9.99999e-01
1.180579921e+00,9.26357e-01,9.99999e-01,9.99999e-01,9.65279e-01,9.59678e-01,9.99999e-01
1.186482820e+00,9.41520e-01,9.99999e-01,9.99997e-01,9.80282e-01,9.60459e-01,9.99999e-01
1.192415234e+00,9.46327e-01,9.99999e-01,9.95975e-01,9.88464e-01,9.61224e-01,9.99999e-01
1.198377311e+00,5.89106e-01,9.99999e-01,6.17509e-01,9.90279e-01,9.61975e-01,9.99999e-01
1.204369197e+00,6.11227e-05,9.99999e-01,6.38301e-05,9.90785e-01,9.62712e-01,9.99999e-01
1.210391043e+00,6.93976e-14,9.99999e-01,7.23854e-14,9.91190e-01,9.63435e-01,9.99999e-01
1.216442998e+00,3.07715e-12,9.99999e-01,3.20662e-12,9.92491e-01,9.64144e-01,9.99999e-01
1.222525213e+00,5.23194e-12,9.99999e-01,5.44064e-12,9.94156e-01,9.64840e-01,9.99999e-01
1.228637839e+00,3.60030e-09,9.99999e-01,3.73991e-09,9.95941e-01,9.65522e-01,9.99999e-01
