#,Wave/freq,Total,O2,CO2,H2O,Rayleigh,CIA
4.000000000e-01,1.57431e-09,9.99999e-01,9.99999e-01,9.99959e-01,1.57437e-09,9.99999e-01
4.020000000e-01,2.35045e-09,9.99999e-01,9.99999e-01,9.99974e-01,2.35051e-09,9.99999e-01
4.040100000e-01,3.48015e-09,9.99999e-01,9.99999e-01,9.99989e-01,3.48019e-09,9.99999e-01
4.060300500e-01,5.11300e-09,9.99999e-01,9.99999e-01,9.99997e-01,5.11302e-09,9.99999e-01
4.080602003e-01,7.45506e-09,9.99999e-01,9.99999e-01,9.99998e-01,7.45506e-09,9.99999e-01
4.101005013e-01,1.07892e-08,9.99999e-01,9.99999e-01,9.99999e-01,1.07892e-08,9.99999e-01
4.121510038e-01,1.55009e-08,9.99999e-01,9.99999e-01,9.99998e-01,1.55010e-08,9.99999e-01
4.142117588e-01,2.21113e-08,9.99999e-01,9.99999e-01,9.99988e-01,2.21115e-08,9.99999e-01
4.162828176e-01,3.13191e-08,9.99999e-01,9.99999e-01,9.99950e-01,3.13207e-08,9.99999e-01
4.183642317e-01,4.40600e-08,9.99999e-01,9.99999e-01,9.99970e-01,4.40613e-08,9.99999e-01
4.204560528e-01,6.15669e-08,9.99999e-01,9.99999e-01,9.99981e-01,6.15680e-08,9.99999e-01
4.225583331e-01,8.54635e-08,9.99999e-01,9.99999e-01,9.99992e-01,8.54640e-08,9.99999e-01
4.246711247e-01,1.17868e-07,9.99999e-01,9.99999e-01,9.99994e-01,1.17869e-07,9.99999e-01
4.267944804e-01,1.61529e-07,9.99999e-01,9.99999e-01,9.99991e-01,1.61531e-07,9.99999e-01
4.289284528e-01,2.19992e-07,9.99999e-01,9.99999e-01,9.99993e-01,2.19993e-07,9.99999e-01
4.310730950e-01,2.97791e-07,9.99999e-01,9.99999e-01,9.99996e-01,2.97792e-07,9.99999e-01
4.332284605e-01,4.00700e-07,9.99999e-01,9.99999e-01,9.99998e-01,4.00700e-07,9.99999e-01
4.353946028e-01,5.36018e-07,9.99999e-01,9.99999e-01,9.99999e-01,5.36018e-07,9.99999e-01
4.375715758e-01,7.12921e-07,9.99999e-01,9.99999e-01,9.99994e-01,7.12925e-07,9.99999e-01
4.397594337e-01,9.42850e-07,9.99999e-01,9.99999e-01,9.99956e-01,9.42891e-07,9.99999e-01
4.419582309e-01,1.23989e-06,9.99999e-01,9.99999e-01,9.99778e-01,1.24017e-06,9.99999e-01
4.441680220e-01,1.62209e-06,9.99999e-01,9.99999e-01,9.99829e-01,1.62237e-06,9.99999e-01
4.463888621e-01,2.11074e-06,9.99999e-01,9.99999e-01,9.99821e-01,2.11112e-06,9.99999e-01
4.486208064e-01,2.73256e-06,9.99999e-01,9.99999e-01,9.99889e-01,2.73286e-06,9.99999e-01
4.508639105e-01,3.51954e-06,9.99999e-01,9.99999e-01,9.99947e-01,3.51972e-06,9.99999e-01
4.531182300e-01,4.51045e-06,9.99999e-01,9.99999e-01,9.99979e-01,4.51054e-06,9.99999e-01
4.553838212e-01,5.75194e-06,9.99999e-01,9.99999e-01,9.99985e-01,5.75202e-06,9.99999e-01
4.576607403e-01,7.30003e-06,9.99999e-01,9.99999e-01,9.99993e-01,7.30007e-06,9.99999e-01
4.599490440e-01,9.22119e-06,9.99999e-01,9.99999e-01,9.99995e-01,9.22124e-06,9.99999e-01
4.622487892e-01,1.15944e-05,9.99999e-01,9.99999e-01,9.99998e-01,1.15944e-05,9.99999e-01
4.645600332e-01,1.45124e-05,9.99999e-01,9.99999e-01,9.99996e-01,1.45124e-05,9.99999e-01
4.668828333e-01,1.80836e-05,9.99999e-01,9.99999e-01,9.99947e-01,1.80846e-05,9.99999e-01
4.692172475e-01,2.24357e-05,9.99999e-01,9.99999e-01,9.99887e-01,2.24382e-05,9.99999e-01
4.715633337e-01,2.77195e-05,9.99999e-01,9.99999e-01,9.99926e-01,2.77215e-05,9.99999e-01
4.739211504e-01,3.41038e-05,9.99999e-01,9.99999e-01,9.99929e-01,3.41062e-05,9.99999e-01
4.762907561e-01,4.17883e-05,9.99999e-01,9.99999e-01,9.99963e-01,4.17898e-05,9.99999e-01
4.786722099e-01,5.09987e-05,9.99999e-01,9.99999e-01,9.99984e-01,5.09994e-05,9.99999e-01
4.810655710e-01,6.19940e-05,9.99999e-01,9.99999e-01,9.99995e-01,6.19943e-05,9.99999e-01
4.834708988e-01,7.50662e-05,9.99999e-01,9.99999e-01,9.99956e-01,7.50694e-05,9.99999e-01
4.858882533e-01,9.05521e-05,9.99999e-01,9.99999e-01,9.99920e-01,9.05593e-05,9.99999e-01
4.883176946e-01,1.08834e-04,9.99999e-01,9.99999e-01,9.99933e-01,1.08841e-04,9.99999e-01
4.907592831e-01,1.30332e-04,9.99999e-01,9.99999e-01,9.99939e-01,1.30340e-04,9.99999e-01
4.932130795e-01,1.55523e-04,9.99999e-01,9.99999e-01,9.99957e-01,1.55530e-04,9.99999e-01
4.956791449e-01,1.84937e-04,9.99999e-01,9.99999e-01,9.99977e-01,1.84942e-04,9.99999e-01
4.981575406e-01,2.19140e-04,9.99999e-01,9.99999e-01,9.99887e-01,2.19164e-04,9.99999e-01
5.006483283e-01,2.58775e-04,9.99999e-01,9.99999e-01,9.99706e-01,2.58850e-04,9.99999e-01
5.031515699e-01,3.04269e-04,9.99999e-01,9.99999e-01,9.98523e-01,3.04719e-04,9.99999e-01
5.056673278e-01,3.57284e-04,9.99999e-01,9.99999e-01,9.99221e-01,3.57562e-04,9.99999e-01
5.081956644e-01,4.17835e-04,9.99999e-01,9.99999e-01,9.99018e-01,4.18246e-04,9.99999e-01
5.107366428e-01,4.87393e-04,9.99999e-01,9.99999e-01,9.99337e-01,4.87715e-04,9.99999e-01
5.132903260e-01,5.66786e-04,9.99999e-01,9.99999e-01,9.99621e-01,5.67000e-04,9.99999e-01
5.158567776e-01,6.57111e-04,9.99999e-01,9.99999e-01,9.99840e-01,6.57216e-04,9.99999e-01
5.184360615e-01,7.59519e-04,9.99999e-01,9.99999e-01,9.99935e-01,7.59567e-04,9.99999e-01
5.210282418e-01,8.75331e-04,9.99999e-01,9.99999e-01,9.99975e-01,8.75352e-04,9.99999e-01
5.236333830e-01,1.00587e-03,9.99999e-01,9.99999e-01,9.99903e-01,1.00596e-03,9.99999e-01
5.262515499e-01,1.15282e-03,9.99999e-01,9.99999e-01,9.99939e-01,1.15289e-03,9.99999e-01
5.288828077e-01,1.31765e-03,9.99999e-01,9.99999e-01,9.99944e-01,1.31773e-03,9.99999e-01
5.315272217e-01,1.50209e-03,9.99999e-01,9.99999e-01,9.99951e-01,1.50216e-03,9.99999e-01
5.341848578e-01,1.70793e-03,9.99999e-01,9.99999e-01,9.99967e-01,1.70798e-03,9.99999e-01
5.368557821e-01,1.93687e-03,9.99999e-01,9.99999e-01,9.99887e-01,1.93708e-03,9.99999e-01
5.395400610e-01,2.19057e-03,9.99999e-01,9.99999e-01,9.99593e-01,2.19146e-03,9.99999e-01
5.422377613e-01,2.47192e-03,9.99999e-01,9.99999e-01,9.99478e-01,2.47321e-03,9.99999e-01
5.449489501e-01,2.78317e-03,9.99999e-01,9.99999e-01,9.99512e-01,2.78452e-03,9.99999e-01
5.476736949e-01,3.12634e-03,9.99999e-01,9.99999e-01,9.99570e-01,3.12769e-03,9.99999e-01
5.504120634e-01,3.50399e-03,9.99999e-01,9.99999e-01,9.99688e-01,3.50509e-03,9.99999e-01
5.531641237e-01,3.91858e-03,9.99999e-01,9.99999e-01,9.99842e-01,3.91920e-03,9.99999e-01
5.559299443e-01,4.37224e-03,9.99999e-01,9.99999e-01,9.99923e-01,4.37257e-03,9.99999e-01
5.587095940e-01,4.86763e-03,9.99999e-01,9.99999e-01,9.99952e-01,4.86786e-03,9.99999e-01
5.615031420e-01,5.40750e-03,9.99999e-01,9.99999e-01,9.99946e-01,5.40778e-03,9.99999e-01
5.643106577e-01,5.99476e-03,9.99999e-01,9.99999e-01,9.99939e-01,5.99512e-03,9.99999e-01
5.671322110e-01,6.62783e-03,9.99999e-01,9.99999e-01,9.99262e-01,6.63272e-03,9.99999e-01
5.699678720e-01,7.31785e-03,9.99999e-01,9.99999e-01,9.99227e-01,7.32350e-03,9.99999e-01
5.728177114e-01,8.06389e-03,9.99999e-01,9.99999e-01,9.99190e-01,8.07041e-03,9.99999e-01
5.756818000e-01,8.86988e-03,9.99999e-01,9.99999e-01,9.99258e-01,8.87646e-03,9.99999e-01
5.785602090e-01,9.73838e-03,9.99999e-01,9.99999e-01,9.99354e-01,9.74467e-03,9.99999e-01
5.814530100e-01,1.06712e-02,9.99999e-01,9.99999e-01,9.99350e-01,1.06781e-02,9.99999e-01
5.843602750e-01,1.16707e-02,9.99999e-01,9.99999e-01,9.99222e-01,1.16798e-02,9.99999e-01
5.872820764e-01,1.26678e-02,9.99999e-01,9.99999e-01,9.93323e-01,1.27529e-02,9.99999e-01
5.902184868e-01,1.37885e-02,9.99999e-01,9.99999e-01,9.91951e-01,1.39004e-02,9.99999e-01
5.931695792e-01,1.50392e-02,9.99999e-01,9.99999e-01,9.94300e-01,1.51254e-02,9.99999e-01
5.961354271e-01,1.63284e-02,9.99999e-01,9.99999e-01,9.93760e-01,1.64310e-02,9.99999e-01
5.991161043e-01,1.77389e-02,9.99999e-01,9.99999e-01,9.95448e-01,1.78200e-02,9.99999e-01
6.021116848e-01,1.92457e-02,9.99999e-01,9.99999e-01,9.97416e-01,1.92955e-02,9.99999e-01
6.051222432e-01,2.08332e-02,9.99999e-01,9.99999e-01,9.98692e-01,2.08604e-02,9.99999e-01
6.081478544e-01,2.25048e-02,9.99999e-01,9.99999e-01,9.99435e-01,2.25175e-02,9.99999e-01
6.111885937e-01,2.42638e-02,9.99999e-01,9.99999e-01,9.99761e-01,2.42696e-02,9.99999e-01
6.142445367e-01,2.61165e-02,9.99999e-01,9.99999e-01,9.99892e-01,2.61193e-02,9.99999e-01
6.173157594e-01,2.80676e-02,9.99999e-01,9.99999e-01,9.99940e-01,2.80692e-02,9.99999e-01
6.204023382e-01,3.01204e-02,9.99999e-01,9.99999e-01,9.99949e-01,3.01219e-02,9.99999e-01
6.235043498e-01,3.22724e-02,9.99999e-01,9.99999e-01,9.99778e-01,3.22796e-02,9.99999e-01
6.266218716e-01,3.45044e-02,9.99999e-01,9.99999e-01,9.98837e-01,3.45446e-02,9.99999e-01
6.297549810e-01,3.69033e-02,9.99999e-01,9.99999e-01,9.99573e-01,3.69191e-02,9.99999e-01
6.329037559e-01,3.93718e-02,9.99999e-01,9.99999e-01,9.99158e-01,3.94050e-02,9.99999e-01
6.360682746e-01,4.19740e-02,9.99999e-01,9.99999e-01,9.99281e-01,4.20042e-02,9.99999e-01
6.392486160e-01,4.46768e-02,9.99999e-01,9.99999e-01,9.99069e-01,4.47184e-02,9.99999e-01
6.424448591e-01,4.74896e-02,9.99999e-01,9.99999e-01,9.98749e-01,4.75491e-02,9.99999e-01
6.456570834e-01,5.02053e-02,9.99999e-01,9.99999e-01,9.94208e-01,5.04977e-02,9.99999e-01
6.488853688e-01,5.33397e-02,9.99999e-01,9.99999e-01,9.95783e-01,5.35655e-02,9.99999e-01
6.521297956e-01,5.65096e-02,9.99999e-01,9.99999e-01,9.95702e-01,5.67535e-02,9.99999e-01
6.553904446e-01,5.98050e-02,9.99999e-01,9.99999e-01,9.95709e-01,6.00627e-02,9.99999e-01
6.586673968e-01,6.32609e-02,9.99999e-01,9.99999e-01,9.96333e-01,6.34936e-02,9.99999e-01
6.619607338e-01,6.69100e-02,9.99999e-01,9.99999e-01,9.97955e-01,6.70470e-02,9.99999e-01
6.652705375e-01,7.06363e-02,9.99999e-01,9.99999e-01,9.98772e-01,7.07231e-02,9.99999e-01
6.685968902e-01,7.44833e-02,9.99999e-01,9.99999e-01,9.99478e-01,7.45221e-02,9.99999e-01
6.719398746e-01,7.84234e-02,9.99999e-01,9.99999e-01,9.99735e-01,7.84441e-02,9.99999e-01
6.752995740e-01,8.24771e-02,9.99999e-01,9.99999e-01,9.99856e-01,8.24889e-02,9.99999e-01
6.786760719e-01,8.66382e-02,9.99999e-01,9.99999e-01,9.99791e-01,8.66562e-02,9.99999e-01
6.820694522e-01,9.09131e-02,9.99999e-01,9.99999e-01,9.99644e-01,9.09454e-02,9.99999e-01
6.854797995e-01,9.53122e-02,9.99999e-01,9.99999e-01,9.99541e-01,9.53558e-02,9.99999e-01
6.889071985e-01,9.97751e-02,9.99999e-01,9.99999e-01,9.98882e-01,9.98867e-02,9.99999e-01
6.923517345e-01,1.02655e-01,9.99999e-01,9.99999e-01,9.81997e-01,1.04537e-01,9.99999e-01
6.958134932e-01,1.08290e-01,9.99999e-01,9.99999e-01,9.90709e-01,1.09305e-01,9.99999e-01
6.992925606e-01,1.13171e-01,9.99999e-01,9.99999e-01,9.91068e-01,1.14191e-01,9.99999e-01
7.027890234e-01,1.17884e-01,9.99999e-01,9.99999e-01,9.89029e-01,1.19191e-01,9.99999e-01
7.063029686e-01,1.23158e-01,9.99999e-01,9.99999e-01,9.90763e-01,1.24306e-01,9.99999e-01
7.098344834e-01,1.28384e-01,9.99999e-01,9.99999e-01,9.91135e-01,1.29532e-01,9.99999e-01
7.133836558e-01,1.33267e-01,9.99999e-01,9.99999e-01,9.88128e-01,1.34868e-01,9.99999e-01
7.169505741e-01,1.27540e-01,9.99999e-01,9.99999e-01,9.08971e-01,1.40313e-01,9.99998e-01
7.205353270e-01,1.39265e-01,9.99999e-01,9.99999e-01,9.54767e-01,1.45862e-01,9.99998e-01
7.241380036e-01,1.42786e-01,9.99999e-01,9.99999e-01,9.42382e-01,1.51516e-01,9.99998e-01
7.277586936e-01,1.49075e-01,9.99999e-01,9.99999e-01,9.47891e-01,1.57270e-01,9.99998e-01
7.313974871e-01,1.54119e-01,9.99999e-01,9.99999e-01,9.44807e-01,1.63123e-01,9.99998e-01
7.350544745e-01,1.63901e-01,9.99999e-01,9.99999e-01,9.69424e-01,1.69071e-01,9.99999e-01
7.387297469e-01,1.71156e-01,9.99999e-01,9.99999e-01,9.77409e-01,1.75112e-01,9.99999e-01
7.424233956e-01,1.79231e-01,9.99999e-01,9.99999e-01,9.88896e-01,1.81244e-01,9.99999e-01
7.461355126e-01,1.86197e-01,9.99999e-01,9.99999e-01,9.93251e-01,1.87462e-01,9.99999e-01
7.498661902e-01,1.93156e-01,9.99999e-01,9.99999e-01,9.96857e-01,1.93765e-01,9.99999e-01
7.536155211e-01,1.99840e-01,9.99999e-01,9.99999e-01,9.98455e-01,2.00149e-01,9.99999e-01
7.573835987e-01,2.06447e-01,9.99999e-01,9.99999e-01,9.99204e-01,2.06611e-01,9.99999e-01
7.611705167e-01,2.13043e-01,9.99999e-01,9.99999e-01,9.99505e-01,2.13148e-01,9.99999e-01
7.649763693e-01,2.19688e-01,9.99999e-01,9.99999e-01,9.99689e-01,2.19756e-01,9.99999e-01
7.688012511e-01,2.26384e-01,9.99999e-01,9.99999e-01,9.99783e-01,2.26433e-01,9.99999e-01
7.726452574e-01,2.33133e-01,9.99999e-01,9.99999e-01,9.99821e-01,2.33174e-01,9.99999e-01
7.765084837e-01,2.39917e-01,9.99999e-01,9.99999e-01,9.99745e-01,2.39978e-01,9.99999e-01
7.803910261e-01,2.31477e-01,9.99999e-01,9.38733e-01,9.98902e-01,2.46839e-01,9.99999e-01
7.842929812e-01,1.89824e-01,9.99999e-01,7.50687e-01,9.96174e-01,2.53755e-01,9.99999e-01
7.882144461e-01,1.90555e-01,9.99999e-01,7.36233e-01,9.92168e-01,2.60723e-01,9.99999e-01
7.921555184e-01,2.21979e-01,9.99999e-01,8.32504e-01,9.95711e-01,2.67739e-01,9.99999e-01
7.961162960e-01,2.41211e-01,9.99999e-01,8.84393e-01,9.92384e-01,2.74799e-01,9.99999e-01
8.000968774e-01,2.61409e-01,9.99999e-01,9.35463e-01,9.91233e-01,2.81901e-01,9.99999e-01
8.040973618e-01,2.76797e-01,9.99999e-01,9.66085e-01,9.91224e-01,2.89040e-01,9.99999e-01
8.081178486e-01,2.85809e-01,9.99999e-01,9.84243e-01,9.80265e-01,2.96214e-01,9.99999e-01
8.121584379e-01,2.77956e-01,9.99999e-01,9.95134e-01,9.20473e-01,3.03419e-01,9.99998e-01
8.162192301e-01,2.81422e-01,9.99999e-01,9.98923e-01,9.06851e-01,3.10652e-01,9.99998e-01
8.203003262e-01,3.02757e-01,9.99999e-01,9.99984e-01,9.52351e-01,3.17909e-01,9.99998e-01
8.244018279e-01,3.04072e-01,9.99999e-01,9.99999e-01,9.35069e-01,3.25187e-01,9.99998e-01
8.285238370e-01,3.13551e-01,9.99999e-01,9.99999e-01,9.43056e-01,3.32483e-01,9.99998e-01
8.326664562e-01,3.20293e-01,9.99999e-01,9.99999e-01,9.42609e-01,3.39794e-01,9.99998e-01
8.368297885e-01,3.32760e-01,9.99999e-01,9.99999e-01,9.58640e-01,3.47117e-01,9.99999e-01
8.410139374e-01,3.45664e-01,9.99999e-01,9.99999e-01,9.75218e-01,3.54448e-01,9.99999e-01
8.452190071e-01,3.57363e-01,9.99999e-01,9.99999e-01,9.87778e-01,3.61785e-01,9.99999e-01
8.494451021e-01,3.66495e-01,9.99999e-01,9.99999e-01,9.92878e-01,3.69123e-01,9.99999e-01
8.536923276e-01,3.74878e-01,9.99999e-01,9.99999e-01,9.95790e-01,3.76462e-01,9.99999e-01
8.579607893e-01,3.82800e-01,9.99999e-01,9.99999e-01,9.97402e-01,3.83797e-01,9.99999e-01
8.622505932e-01,3.90481e-01,9.99999e-01,9.99999e-01,9.98350e-01,3.91126e-01,9.99999e-01
8.665618462e-01,3.54807e-01,9.99999e-01,8.91337e-01,9.98977e-01,3.98446e-01,9.99999e-01
8.708946554e-01,1.97740e-01,9.99999e-01,4.87876e-01,9.98828e-01,4.05754e-01,9.99999e-01
8.752491287e-01,2.29340e-01,9.99999e-01,5.56065e-01,9.98433e-01,4.13048e-01,9.99999e-01
8.796253743e-01,3.02558e-01,9.99999e-01,7.21300e-01,9.97827e-01,4.20326e-01,9.99999e-01
8.840235012e-01,3.59538e-01,9.99999e-01,8.42891e-01,9.97519e-01,4.27583e-01,9.99999e-01
8.884436187e-01,4.02840e-01,9.99999e-01,9.34800e-01,9.90903e-01,4.34820e-01,9.99999e-01
8.928858368e-01,3.91144e-01,9.99999e-01,9.73007e-01,9.09006e-01,4.42032e-01,9.99998e-01
8.973502660e-01,3.77476e-01,9.99999e-01,9.93398e-01,8.45665e-01,4.49217e-01,9.99997e-01
9.018370173e-01,4.18810e-01,9.99999e-01,9.99271e-01,9.18321e-01,4.56375e-01,9.99997e-01
9.063462024e-01,4.22114e-01,9.99999e-01,9.81252e-01,9.27066e-01,4.63501e-01,9.99996e-01
9.108779334e-01,4.01037e-01,9.99999e-01,9.57727e-01,8.88922e-01,4.70595e-01,9.99996e-01
9.154323231e-01,4.13814e-01,9.99999e-01,9.89969e-01,8.74772e-01,4.77654e-01,9.99996e-01
9.200094847e-01,3.83253e-01,9.99999e-01,8.69436e-01,9.00765e-01,4.84676e-01,9.99995e-01
9.246095321e-01,3.40596e-01,9.99999e-01,8.09807e-01,8.49892e-01,4.91659e-01,9.99992e-01
9.292325798e-01,1.51633e-01,9.99999e-01,8.48019e-01,3.48819e-01,4.98603e-01,9.99983e-01
9.338787427e-01,1.15028e-01,9.99999e-01,8.52668e-01,2.60067e-01,5.05504e-01,9.99979e-01
9.385481364e-01,2.66829e-01,9.99999e-01,8.89041e-01,5.79087e-01,5.12362e-01,9.99978e-01
9.432408771e-01,2.30281e-01,9.99999e-01,9.30467e-01,4.73551e-01,5.19175e-01,9.99976e-01
9.479570815e-01,1.82752e-01,9.99999e-01,9.63642e-01,3.59399e-01,5.25941e-01,9.99979e-01
9.526968669e-01,2.40146e-01,9.99999e-01,9.82332e-01,4.57815e-01,5.32659e-01,9.99984e-01
9.574603512e-01,2.56542e-01,9.99999e-01,9.92407e-01,4.78882e-01,5.39327e-01,9.99988e-01
9.622476530e-01,2.97892e-01,9.99999e-01,9.97627e-01,5.46806e-01,5.45945e-01,9.99991e-01
9.670588912e-01,3.89140e-01,9.99999e-01,9.99289e-01,7.04768e-01,5.52511e-01,9.99994e-01
9.718941857e-01,4.47954e-01,9.99999e-01,9.99950e-01,8.01352e-01,5.59024e-01,9.99996e-01
9.767536566e-01,4.70445e-01,9.99999e-01,9.99999e-01,8.31936e-01,5.65482e-01,9.99997e-01
9.816374249e-01,4.98941e-01,9.99999e-01,9.99999e-01,8.72448e-01,5.71886e-01,9.99998e-01
9.865456120e-01,5.30933e-01,9.99999e-01,9.99999e-01,9.18198e-01,5.78233e-01,9.99998e-01
9.914783401e-01,5.54455e-01,9.99999e-01,9.99999e-01,9.48558e-01,5.84524e-01,9.99999e-01
9.964357318e-01,5.74011e-01,9.99999e-01,9.99999e-01,9.71654e-01,5.90756e-01,9.99999e-01
1.001417910e+00,5.86732e-01,9.99999e-01,9.99999e-01,9.82915e-01,5.96930e-01,9.99999e-01
1.006425000e+00,5.97144e-01,9.99999e-01,9.99999e-01,9.90214e-01,6.03045e-01,9.99999e-01
1.011457125e+00,6.05400e-01,9.99999e-01,9.99999e-01,9.93924e-01,6.09100e-01,9.99999e-01
1.016514411e+00,6.12553e-01,9.99999e-01,9.99999e-01,9.95868e-01,6.15094e-01,9.99999e-01
1.021596983e+00,6.18914e-01,9.99999e-01,9.99891e-01,9.96705e-01,6.21027e-01,9.99999e-01
1.026704968e+00,6.20659e-01,9.99999e-01,9.92591e-01,9.97429e-01,6.26898e-01,9.99999e-01
1.031838492e+00,5.86147e-01,9.99999e-01,9.28066e-01,9.98133e-01,6.32707e-01,9.99999e-01
1.036997685e+00,5.18392e-02,9.99999e-01,8.12639e-02,9.98889e-01,6.38454e-01,9.99999e-01
1.042182673e+00,1.37348e-02,9.99999e-01,2.13461e-02,9.98673e-01,6.44137e-01,9.99999e-01
1.047393587e+00,2.47722e-02,9.99999e-01,3.81826e-02,9.98242e-01,6.49758e-01,9.99999e-01
1.052630555e+00,4.93327e-05,9.99999e-01,7.54025e-05,9.97587e-01,6.55315e-01,9.99999e-01
1.057893707e+00,1.72497e-04,9.99999e-01,2.61649e-04,9.95972e-01,6.60809e-01,9.99999e-01
1.063183176e+00,1.41912e-03,9.99999e-01,2.13899e-03,9.93384e-01,6.66239e-01,9.99999e-01
1.068499092e+00,7.58454e-03,9.99999e-01,1.13874e-02,9.88953e-01,6.71604e-01,9.99999e-01
1.073841587e+00,3.88093e-02,9.99999e-01,5.79190e-02,9.87074e-01,6.76906e-01,9.99999e-01
1.079210795e+00,1.11128e-01,9.99999e-01,1.65220e-01,9.83491e-01,6.82144e-01,9.99999e-01
1.084606849e+00,2.45720e-01,9.99999e-01,3.65876e-01,9.75097e-01,6.87317e-01,9.99998e-01
1.090029883e+00,3.95855e-01,9.99999e-01,5.91725e-01,9.64330e-01,6.92427e-01,9.99998e-01
1.095480033e+00,4.88743e-01,9.99999e-01,7.71961e-01,9.05889e-01,6.97472e-01,9.99997e-01
1.100957433e+00,4.83961e-01,9.99999e-01,8.82468e-01,7.78769e-01,7.02453e-01,9.99995e-01
1.106462220e+00,3.60813e-01,9.99999e-01,9.49614e-01,5.35335e-01,7.07371e-01,9.99990e-01
1.111994531e+00,1.92463e-01,9.99999e-01,9.81009e-01,2.74806e-01,7.12225e-01,9.99980e-01
1.117554504e+00,9.16757e-02,9.99999e-01,9.95344e-01,1.28278e-01,7.17015e-01,9.99973e-01
1.123142276e+00,1.70050e-01,9.99999e-01,9.99694e-01,2.35636e-01,7.21742e-01,9.99968e-01
1.128757988e+00,2.75692e-01,9.99999e-01,9.99999e-01,3.79541e-01,7.26406e-01,9.99965e-01
1.134401778e+00,1.32316e-01,9.99999e-01,9.99999e-01,1.81012e-01,7.31007e-01,9.99961e-01
1.140073787e+00,4.06262e-01,9.99999e-01,9.99999e-01,5.52345e-01,7.35545e-01,9.99968e-01
1.145774156e+00,2.23686e-01,9.99999e-01,9.99999e-01,3.02277e-01,7.40021e-01,9.99973e-01
1.151503026e+00,1.98460e-01,9.99999e-01,9.99999e-01,2.66598e-01,7.44435e-01,9.99977e-01
1.157260541e+00,2.37804e-01,9.99999e-01,9.99999e-01,3.17590e-01,7.48787e-01,9.99982e-01
1.163046844e+00,3.21223e-01,9.99999e-01,9.99999e-01,4.26551e-01,7.53078e-01,9.99988e-01
1.168862078e+00,4.15308e-01,9.99999e-01,9.99999e-01,5.48402e-01,7.57309e-01,9.99994e-01
1.174706389e+00,5.25315e-01,9.99999e-01,9.99999e-01,6.89863e-01,7.61478e-01,9.99996e-01
1.180579921e+00,6.10343e-01,9.99999e-01,9.99999e-01,7.97222e-01,7.65588e-01,9.99997e-01
1.186482820e+00,6.76815e-01,9.99999e-01,9.99984e-01,8.79406e-01,7.69638e-01,9.99998e-01
1.192415234e+00,6.99485e-01,9.99999e-01,9.74139e-01,9.27639e-01,7.73629e-01,9.99998e-01
1.198377311e+00,3.97906e-01,9.99999e-01,5.39485e-01,9.38615e-01,7.77561e-01,9.99998e-01
1.204369197e+00,7.65152e-20,9.99999e-01,1.01366e-19,9.41917e-01,7.81434e-01,9.99998e-01
1.210391043e+00,8.80326e-78,9.99999e-01,1.15734e-77,9.44347e-01,7.85250e-01,9.99998e-01
1.216442998e+00,2.02088e-67,9.99999e-01,2.63973e-67,9.52511e-01,7.89009e-01,9.99999e-01
1.222525213e+00,2.04191e-66,9.99999e-01,2.62668e-66,9.62791e-01,7.92711e-01,9.99999e-01
1.228637839e+00,2.30931e-51,9.99999e-01,2.95209e-51,9.74002e-01,7.96357e-01,9.99999e-01
