#,Wave/freq,Total,O2,CO2,H2O,Rayleigh,CIA
4.000000000e-01,1.38607e-13,9.99999e-01,9.99999e-01,9.99941e-01,1.38615e-13,9.99999e-01
4.020000000e-01,2.48907e-13,9.99999e-01,9.99999e-01,9.99963e-01,2.48916e-13,9.99999e-01
4.040100000e-01,4.41576e-13,9.99999e-01,9.99999e-01,9.99984e-01,4.41583e-13,9.99999e-01
4.060300500e-01,7.74555e-13,9.99999e-01,9.99999e-01,9.99996e-01,7.74557e-13,9.99999e-01
4.080602003e-01,1.34361e-12,9.99999e-01,9.99999e-01,9.99998e-01,1.34361e-12,9.99999e-01
4.101005013e-01,2.30553e-12,9.99999e-01,9.99999e-01,9.99999e-01,2.30553e-12,9.99999e-01
4.121510038e-01,3.91412e-12,9.99999e-01,9.99999e-01,9.99997e-01,3.91413e-12,9.99999e-01
4.142117588e-01,6.57585e-12,9.99999e-01,9.99999e-01,9.99983e-01,6.57595e-12,9.99999e-01
4.162828176e-01,1.09345e-11,9.99999e-01,9.99999e-01,9.99927e-01,1.09353e-11,9.99999e-01
4.183642317e-01,1.80021e-11,9.99999e-01,9.99999e-01,9.99956e-01,1.80029e-11,9.99999e-01
4.204560528e-01,2.93470e-11,9.99999e-01,9.99999e-01,9.99973e-01,2.93478e-11,9.99999e-01
4.225583331e-01,4.73819e-11,9.99999e-01,9.99999e-01,9.99989e-01,4.73824e-11,9.99999e-01
4.246711247e-01,7.57785e-11,9.99999e-01,9.99999e-01,9.99991e-01,7.57790e-11,9.99999e-01
4.267944804e-01,1.20074e-10,9.99999e-01,9.99999e-01,9.99988e-01,1.20075e-10,9.99999e-01
4.289284528e-01,1.88540e-10,9.99999e-01,9.99999e-01,9.99990e-01,1.88542e-10,9.99999e-01
4.310730950e-01,2.93421e-10,9.99999e-01,9.99999e-01,9.99995e-01,2.93422e-10,9.99999e-01
4.332284605e-01,4.52672e-10,9.99999e-01,9.99999e-01,9.99998e-01,4.52672e-10,9.99999e-01
4.353946028e-01,6.92397e-10,9.99999e-01,9.99999e-01,9.99999e-01,6.92397e-10,9.99999e-01
4.375715758e-01,1.05021e-09,9.99999e-01,9.99999e-01,9.99992e-01,1.05022e-09,9.99999e-01
4.397594337e-01,1.57981e-09,9.99999e-01,9.99999e-01,9.99936e-01,1.57991e-09,9.99999e-01
4.419582309e-01,2.35691e-09,9.99999e-01,9.99999e-01,9.99678e-01,2.35766e-09,9.99999e-01
4.441680220e-01,3.48970e-09,9.99999e-01,9.99999e-01,9.99750e-01,3.49057e-09,9.99999e-01
4.463888621e-01,5.12664e-09,9.99999e-01,9.99999e-01,9.99739e-01,5.12797e-09,9.99999e-01
4.486208064e-01,7.47523e-09,9.99999e-01,9.99999e-01,9.99838e-01,7.47643e-09,9.99999e-01
4.508639105e-01,1.08187e-08,9.99999e-01,9.99999e-01,9.99923e-01,1.08195e-08,9.99999e-01
4.531182300e-01,1.55432e-08,9.99999e-01,9.99999e-01,9.99969e-01,1.55437e-08,9.99999e-01
4.553838212e-01,2.21708e-08,9.99999e-01,9.99999e-01,9.99979e-01,2.21712e-08,9.99999e-01
4.576607403e-01,3.14033e-08,9.99999e-01,9.99999e-01,9.99990e-01,3.14036e-08,9.99999e-01
4.599490440e-01,4.41753e-08,9.99999e-01,9.99999e-01,9.99992e-01,4.41756e-08,9.99999e-01
4.622487892e-01,6.17245e-08,9.99999e-01,9.99999e-01,9.99998e-01,6.17246e-08,9.99999e-01
4.645600332e-01,8.56766e-08,9.99999e-01,9.99999e-01,9.99994e-01,8.56770e-08,9.99999e-01
4.668828333e-01,1.18148e-07,9.99999e-01,9.99999e-01,9.99923e-01,1.18157e-07,9.99999e-01
4.692172475e-01,1.61891e-07,9.99999e-01,9.99999e-01,9.99836e-01,1.61918e-07,9.99999e-01
4.715633337e-01,2.20486e-07,9.99999e-01,9.99999e-01,9.99892e-01,2.20509e-07,9.99999e-01
4.739211504e-01,2.98447e-07,9.99999e-01,9.99999e-01,9.99897e-01,2.98477e-07,9.99999e-01
4.762907561e-01,4.01583e-07,9.99999e-01,9.99999e-01,9.99946e-01,4.01604e-07,9.99999e-01
4.786722099e-01,5.37192e-07,9.99999e-01,9.99999e-01,9.99977e-01,5.37203e-07,9.99999e-01
4.810655710e-01,7.14465e-07,9.99999e-01,9.99999e-01,9.99993e-01,7.14470e-07,9.99999e-01
4.834708988e-01,9.44834e-07,9.99999e-01,9.99999e-01,9.99936e-01,9.44894e-07,9.99999e-01
4.858882533e-01,1.24261e-06,9.99999e-01,9.99999e-01,9.99884e-01,1.24275e-06,9.99999e-01
4.883176946e-01,1.62552e-06,9.99999e-01,9.99999e-01,9.99902e-01,1.62568e-06,9.99999e-01
4.907592831e-01,2.11516e-06,9.99999e-01,9.99999e-01,9.99912e-01,2.11534e-06,9.99999e-01
4.932130795e-01,2.73805e-06,9.99999e-01,9.99999e-01,9.99937e-01,2.73822e-06,9.99999e-01
4.956791449e-01,3.52637e-06,9.99999e-01,9.99999e-01,9.99966e-01,3.52649e-06,9.99999e-01
4.981575406e-01,4.51830e-06,9.99999e-01,9.99999e-01,9.99835e-01,4.51904e-06,9.99999e-01
5.006483283e-01,5.76019e-06,9.99999e-01,9.99999e-01,9.99573e-01,5.76265e-06,9.99999e-01
5.031515699e-01,7.29754e-06,9.99999e-01,9.99999e-01,9.97846e-01,7.31329e-06,9.99999e-01
5.056673278e-01,9.22711e-06,9.99999e-01,9.99999e-01,9.98863e-01,9.23760e-06,9.99999e-01
5.081956644e-01,1.15979e-05,9.99999e-01,9.99999e-01,9.98566e-01,1.16145e-05,9.99999e-01
5.107366428e-01,1.45231e-05,9.99999e-01,9.99999e-01,9.99031e-01,1.45372e-05,9.99999e-01
5.132903260e-01,1.81048e-05,9.99999e-01,9.99999e-01,9.99446e-01,1.81148e-05,9.99999e-01
5.158567776e-01,2.24697e-05,9.99999e-01,9.99999e-01,9.99766e-01,2.24750e-05,9.99999e-01
5.184360615e-01,2.77635e-05,9.99999e-01,9.99999e-01,9.99906e-01,2.77661e-05,9.99999e-01
5.210282418e-01,3.41587e-05,9.99999e-01,9.99999e-01,9.99964e-01,3.41599e-05,9.99999e-01
5.236333830e-01,4.18485e-05,9.99999e-01,9.99999e-01,9.99859e-01,4.18543e-05,9.99999e-01
5.262515499e-01,5.10721e-05,9.99999e-01,9.99999e-01,9.99911e-01,5.10766e-05,9.99999e-01
5.288828077e-01,6.20812e-05,9.99999e-01,9.99999e-01,9.99918e-01,6.20862e-05,9.99999e-01
5.315272217e-01,7.51732e-05,9.99999e-01,9.99999e-01,9.99928e-01,7.51785e-05,9.99999e-01
5.341848578e-01,9.06841e-05,9.99999e-01,9.99999e-01,9.99953e-01,9.06883e-05,9.99999e-01
5.368557821e-01,1.08975e-04,9.99999e-01,9.99999e-01,9.99835e-01,1.08993e-04,9.99999e-01
5.395400610e-01,1.30441e-04,9.99999e-01,9.99999e-01,9.99408e-01,1.30518e-04,9.99999e-01
5.422377613e-01,1.55620e-04,9.99999e-01,9.99999e-01,9.99237e-01,1.55738e-04,9.99999e-01
5.449489501e-01,1.85053e-04,9.99999e-01,9.99999e-01,9.99289e-01,1.85185e-04,9.99999e-01
5.476736949e-01,2.19309e-04,9.99999e-01,9.99999e-01,9.99372e-01,2.19447e-04,9.99999e-01
5.504120634e-01,2.59060e-04,9.99999e-01,9.99999e-01,9.99544e-01,2.59178e-04,9.99999e-01
5.531641237e-01,3.05027e-04,9.99999e-01,9.99999e-01,9.99770e-01,3.05097e-04,9.99999e-01
5.559299443e-01,3.57957e-04,9.99999e-01,9.99999e-01,9.99888e-01,3.57996e-04,9.99999e-01
5.587095940e-01,4.18715e-04,9.99999e-01,9.99999e-01,9.99930e-01,4.18744e-04,9.99999e-01
5.615031420e-01,4.88247e-04,9.99999e-01,9.99999e-01,9.99922e-01,4.88285e-04,9.99999e-01
5.643106577e-01,5.67599e-04,9.99999e-01,9.99999e-01,9.99911e-01,5.67649e-04,9.99999e-01
5.671322110e-01,6.57249e-04,9.99999e-01,9.99999e-01,9.98930e-01,6.57953e-04,9.99999e-01
5.699678720e-01,7.59543e-04,9.99999e-01,9.99999e-01,9.98869e-01,7.60402e-04,9.99999e-01
5.728177114e-01,8.75262e-04,9.99999e-01,9.99999e-01,9.98819e-01,8.76295e-04,9.99999e-01
5.756818000e-01,1.00594e-03,9.99999e-01,9.99999e-01,9.98917e-01,1.00703e-03,9.99999e-01
5.785602090e-01,1.15300e-03,9.99999e-01,9.99999e-01,9.99056e-01,1.15409e-03,9.99999e-01
5.814530100e-01,1.31781e-03,9.99999e-01,9.99999e-01,9.99051e-01,1.31906e-03,9.99999e-01
5.843602750e-01,1.50195e-03,9.99999e-01,9.99999e-01,9.98868e-01,1.50365e-03,9.99999e-01
5.872820764e-01,1.69305e-03,9.99999e-01,9.99999e-01,9.90291e-01,1.70965e-03,9.99999e-01
5.902184868e-01,1.91617e-03,9.99999e-01,9.99999e-01,9.88260e-01,1.93894e-03,9.99999e-01
5.931695792e-01,2.17530e-03,9.99999e-01,9.99999e-01,9.91694e-01,2.19352e-03,9.99999e-01
5.961354271e-01,2.45295e-03,9.99999e-01,9.99999e-01,9.90898e-01,2.47548e-03,9.99999e-01
5.991161043e-01,2.76851e-03,9.99999e-01,9.99999e-01,9.93354e-01,2.78703e-03,9.99999e-01
6.021116848e-01,3.11863e-03,9.99999e-01,9.99999e-01,9.96225e-01,3.13045e-03,9.99999e-01
6.051222432e-01,3.50141e-03,9.99999e-01,9.99999e-01,9.98088e-01,3.50812e-03,9.99999e-01
6.081478544e-01,3.91928e-03,9.99999e-01,9.99999e-01,9.99174e-01,3.92252e-03,9.99999e-01
6.111885937e-01,4.37468e-03,9.99999e-01,9.99999e-01,9.99650e-01,4.37621e-03,9.99999e-01
6.142445367e-01,4.87107e-03,9.99999e-01,9.99999e-01,9.99843e-01,4.87183e-03,9.99999e-01
6.173157594e-01,5.41164e-03,9.99999e-01,9.99999e-01,9.99913e-01,5.41210e-03,9.99999e-01
6.204023382e-01,5.99938e-03,9.99999e-01,9.99999e-01,9.99926e-01,5.99981e-03,9.99999e-01
6.235043498e-01,6.63568e-03,9.99999e-01,9.99999e-01,9.99677e-01,6.63781e-03,9.99999e-01
6.266218716e-01,7.31657e-03,9.99999e-01,9.99999e-01,9.98302e-01,7.32901e-03,9.99999e-01
6.297549810e-01,8.07134e-03,9.99999e-01,9.99999e-01,9.99377e-01,8.07637e-03,9.99999e-01
6.329037559e-01,8.87196e-03,9.99999e-01,9.99999e-01,9.98770e-01,8.88288e-03,9.99999e-01
6.360682746e-01,9.74136e-03,9.99999e-01,9.99999e-01,9.98951e-01,9.75157e-03,9.99999e-01
6.392486160e-01,1.06710e-02,9.99999e-01,9.99999e-01,9.98642e-01,1.06855e-02,9.99999e-01
6.424448591e-01,1.16665e-02,9.99999e-01,9.99999e-01,9.98179e-01,1.16878e-02,9.99999e-01
6.456570834e-01,1.26539e-02,9.99999e-01,9.99999e-01,9.91577e-01,1.27614e-02,9.99999e-01
6.488853688e-01,1.38239e-02,9.99999e-01,9.99999e-01,9.93843e-01,1.39095e-02,9.99999e-01
6.521297956e-01,1.50402e-02,9.99999e-01,9.99999e-01,9.93726e-01,1.51351e-02,9.99999e-01
6.553904446e-01,1.63385e-02,9.99999e-01,9.99999e-01,9.93744e-01,1.64413e-02,9.99999e-01
6.586673968e-01,1.77355e-02,9.99999e-01,9.99999e-01,9.94646e-01,1.78310e-02,9.99999e-01
6.619607338e-01,1.92495e-02,9.99999e-01,9.99999e-01,9.97013e-01,1.93072e-02,9.99999e-01
6.652705375e-01,2.08354e-02,9.99999e-01,9.99999e-01,9.98206e-01,2.08728e-02,9.99999e-01
6.685968902e-01,2.25118e-02,9.99999e-01,9.99999e-01,9.99166e-01,2.25306e-02,9.99999e-01
6.719398746e-01,2.42740e-02,9.99999e-01,9.99999e-01,9.99613e-01,2.42834e-02,9.99999e-01
6.752995740e-01,2.61284e-02,9.99999e-01,9.99999e-01,9.99790e-01,2.61339e-02,9.99999e-01
6.786760719e-01,2.80761e-02,9.99999e-01,9.99999e-01,9.99696e-01,2.80846e-02,9.99999e-01
6.820694522e-01,3.01224e-02,9.99999e-01,9.99999e-01,9.99481e-01,3.01380e-02,9.99999e-01
6.854797995e-01,3.22750e-02,9.99999e-01,9.99999e-01,9.99331e-01,3.22965e-02,9.99999e-01
6.889071985e-01,3.45063e-02,9.99999e-01,9.99999e-01,9.98377e-01,3.45624e-02,9.99999e-01
6.923517345e-01,3.59735e-02,9.99999e-01,9.99999e-01,9.73897e-01,3.69377e-02,9.99999e-01
6.958134932e-01,3.88889e-02,9.99999e-01,9.99999e-01,9.86415e-01,3.94245e-02,9.99999e-01
6.992925606e-01,4.14789e-02,9.99999e-01,9.99999e-01,9.87015e-01,4.20245e-02,9.99999e-01
7.027890234e-01,4.40245e-02,9.99999e-01,9.99999e-01,9.84016e-01,4.47396e-02,9.99999e-01
7.063029686e-01,4.69308e-02,9.99999e-01,9.99999e-01,9.86537e-01,4.75712e-02,9.99999e-01
7.098344834e-01,4.98679e-02,9.99999e-01,9.99999e-01,9.87077e-01,5.05208e-02,9.99999e-01
7.133836558e-01,5.26671e-02,9.99999e-01,9.99999e-01,9.82787e-01,5.35895e-02,9.99998e-01
7.169505741e-01,4.94445e-02,9.99999e-01,9.99999e-01,8.70832e-01,5.67785e-02,9.99997e-01
7.205353270e-01,5.61608e-02,9.99999e-01,9.99999e-01,9.34635e-01,6.00885e-02,9.99997e-01
7.241380036e-01,5.82693e-02,9.99999e-01,9.99999e-01,9.17332e-01,6.35204e-02,9.99997e-01
7.277586936e-01,6.20525e-02,9.99999e-01,9.99999e-01,9.25125e-01,6.70747e-02,9.99997e-01
7.313974871e-01,6.51260e-02,9.99999e-01,9.99999e-01,9.20487e-01,7.07517e-02,9.99998e-01
7.350544745e-01,7.12478e-02,9.99999e-01,9.99999e-01,9.55683e-01,7.45517e-02,9.99998e-01
7.387297469e-01,7.58979e-02,9.99999e-01,9.99999e-01,9.67164e-01,7.84747e-02,9.99999e-01
7.424233956e-01,8.11835e-02,9.99999e-01,9.99999e-01,9.83799e-01,8.25204e-02,9.99999e-01
7.461355126e-01,8.58345e-02,9.99999e-01,9.99999e-01,9.90147e-01,8.66886e-02,9.99999e-01
7.498661902e-01,9.05606e-02,9.99999e-01,9.99999e-01,9.95403e-01,9.09787e-02,9.99999e-01
7.536155211e-01,9.51747e-02,9.99999e-01,9.99999e-01,9.97741e-01,9.53901e-02,9.99999e-01
7.573835987e-01,9.98057e-02,9.99999e-01,9.99999e-01,9.98837e-01,9.99219e-02,9.99999e-01
7.611705167e-01,1.04498e-01,9.99999e-01,9.99999e-01,9.99277e-01,1.04573e-01,9.99999e-01
7.649763693e-01,1.09293e-01,9.99999e-01,9.99999e-01,9.99546e-01,1.09342e-01,9.99999e-01
7.688012511e-01,1.14193e-01,9.99999e-01,9.99999e-01,9.99684e-01,1.14229e-01,9.99999e-01
7.726452574e-01,1.19199e-01,9.99999e-01,9.99999e-01,9.99739e-01,1.19230e-01,9.99999e-01
7.765084837e-01,1.24299e-01,9.99999e-01,9.99999e-01,9.99630e-01,1.24345e-01,9.99999e-01
7.803910261e-01,1.18814e-01,9.99999e-01,9.18323e-01,9.98402e-01,1.29573e-01,9.99999e-01
7.842929812e-01,8.90774e-02,9.99999e-01,6.63549e-01,9.94434e-01,1.34910e-01,9.99999e-01
7.882144461e-01,8.99618e-02,9.99999e-01,6.47659e-01,9.88585e-01,1.40355e-01,9.99999e-01
7.921555184e-01,1.11209e-01,9.99999e-01,7.66712e-01,9.93734e-01,1.45905e-01,9.99999e-01
7.961162960e-01,1.25310e-01,9.99999e-01,8.35832e-01,9.88923e-01,1.51559e-01,9.99999e-01
8.000968774e-01,1.40907e-01,9.99999e-01,9.07203e-01,9.87223e-01,1.57314e-01,9.99999e-01
8.040973618e-01,1.53164e-01,9.99999e-01,9.50775e-01,9.87218e-01,1.63168e-01,9.99999e-01
8.081178486e-01,1.60530e-01,9.99999e-01,9.77051e-01,9.71412e-01,1.69117e-01,9.99998e-01
8.121584379e-01,1.54225e-01,9.99999e-01,9.92873e-01,8.86631e-01,1.75159e-01,9.99998e-01
8.162192301e-01,1.57010e-01,9.99999e-01,9.98422e-01,8.67364e-01,1.81291e-01,9.99997e-01
8.203003262e-01,1.74799e-01,9.99999e-01,9.99976e-01,9.32225e-01,1.87510e-01,9.99997e-01
8.244018279e-01,1.75904e-01,9.99999e-01,9.99999e-01,9.07596e-01,1.93814e-01,9.99997e-01
8.285238370e-01,1.83825e-01,9.99999e-01,9.99999e-01,9.18215e-01,2.00198e-01,9.99997e-01
8.326664562e-01,1.89617e-01,9.99999e-01,9.99999e-01,9.17527e-01,2.06661e-01,9.99998e-01
8.368297885e-01,2.00446e-01,9.99999e-01,9.99999e-01,9.40186e-01,2.13198e-01,9.99998e-01
8.410139374e-01,2.11893e-01,9.99999e-01,9.99999e-01,9.63995e-01,2.19807e-01,9.99999e-01
8.452190071e-01,2.22448e-01,9.99999e-01,9.99999e-01,9.82176e-01,2.26484e-01,9.99999e-01
8.494451021e-01,2.30804e-01,9.99999e-01,9.99999e-01,9.89611e-01,2.33226e-01,9.99999e-01
8.536923276e-01,2.38554e-01,9.99999e-01,9.99999e-01,9.93849e-01,2.40030e-01,9.99999e-01
8.579607893e-01,2.45955e-01,9.99999e-01,9.99999e-01,9.96205e-01,2.46892e-01,9.99999e-01
8.622505932e-01,2.53197e-01,9.99999e-01,9.99999e-01,9.97589e-01,2.53809e-01,9.99999e-01
8.665618462e-01,2.27236e-01,9.99999e-01,8.72602e-01,9.98507e-01,2.60777e-01,9.99999e-01
8.708946554e-01,9.71527e-02,9.99999e-01,3.63362e-01,9.98289e-01,2.67793e-01,9.99999e-01
8.752491287e-01,1.18383e-01,9.99999e-01,4.31636e-01,9.97713e-01,2.74854e-01,9.99999e-01
8.796253743e-01,1.75352e-01,9.99999e-01,6.23743e-01,9.96832e-01,2.81955e-01,9.99999e-01
8.840235012e-01,2.24630e-01,9.99999e-01,7.79717e-01,9.96383e-01,2.89095e-01,9.99999e-01
8.884436187e-01,2.65024e-01,9.99999e-01,9.06134e-01,9.86853e-01,2.96269e-01,9.99998e-01
8.928858368e-01,2.54191e-01,9.99999e-01,9.60750e-01,8.70974e-01,3.03474e-01,9.99997e-01
8.973502660e-01,2.41454e-01,9.99999e-01,9.90337e-01,7.84273e-01,3.10707e-01,9.99996e-01
9.018370173e-01,2.80666e-01,9.99999e-01,9.98931e-01,8.83566e-01,3.17965e-01,9.99996e-01
9.063462024e-01,2.84295e-01,9.99999e-01,9.73125e-01,8.96156e-01,3.25243e-01,9.99995e-01
9.108779334e-01,2.63765e-01,9.99999e-01,9.38873e-01,8.43089e-01,3.32539e-01,9.99995e-01
9.154323231e-01,2.75954e-01,9.99999e-01,9.85330e-01,8.23378e-01,3.39850e-01,9.99994e-01
9.200094847e-01,2.50765e-01,9.99999e-01,8.25182e-01,8.59215e-01,3.47173e-01,9.99993e-01
9.246095321e-01,2.09379e-01,9.99999e-01,7.35542e-01,7.93209e-01,3.54504e-01,9.99988e-01
9.292325798e-01,6.89657e-02,9.99999e-01,7.88616e-01,2.30146e-01,3.61841e-01,9.99976e-01
9.338787427e-01,4.62810e-02,9.99999e-01,7.93372e-01,1.50995e-01,3.69180e-01,9.99969e-01
9.385481364e-01,1.50154e-01,9.99999e-01,8.42527e-01,4.63140e-01,3.76518e-01,9.99969e-01
9.432408771e-01,1.24093e-01,9.99999e-01,9.00017e-01,3.54740e-01,3.83853e-01,9.99965e-01
9.479570815e-01,8.94017e-02,9.99999e-01,9.47316e-01,2.39762e-01,3.91182e-01,9.99969e-01
9.526968669e-01,1.29488e-01,9.99999e-01,9.74277e-01,3.31990e-01,3.98502e-01,9.99977e-01
9.574603512e-01,1.40849e-01,9.99999e-01,9.88912e-01,3.50353e-01,4.05810e-01,9.99982e-01
9.622476530e-01,1.73258e-01,9.99999e-01,9.96529e-01,4.20651e-01,4.13104e-01,9.99988e-01
9.670588912e-01,2.53849e-01,9.99999e-01,9.98959e-01,6.04404e-01,4.20381e-01,9.99992e-01
9.718941857e-01,3.09974e-01,9.99999e-01,9.99926e-01,7.24895e-01,4.27639e-01,9.99995e-01
9.767536566e-01,3.32819e-01,9.99999e-01,9.99999e-01,7.65324e-01,4.34875e-01,9.99996e-01
9.816374249e-01,3.62347e-01,9.99999e-01,9.99999e-01,8.19629e-01,4.42087e-01,9.99997e-01
9.865456120e-01,3.96651e-01,9.99999e-01,9.99999e-01,8.82875e-01,4.49272e-01,9.99998e-01
9.914783401e-01,4.22541e-01,9.99999e-01,9.99999e-01,9.25753e-01,4.56429e-01,9.99999e-01
9.964357318e-01,4.44483e-01,9.99999e-01,9.99999e-01,9.58854e-01,4.63555e-01,9.99999e-01
1.001417910e+00,4.58942e-01,9.99999e-01,9.99999e-01,9.75126e-01,4.70649e-01,9.99999e-01
1.006425000e+00,4.70894e-01,9.99999e-01,9.99999e-01,9.85736e-01,4.77708e-01,9.99999e-01
1.011457125e+00,4.80430e-01,9.99999e-01,9.99999e-01,9.91129e-01,4.84729e-01,9.99999e-01
1.016514411e+00,4.88747e-01,9.99999e-01,9.99999e-01,9.93967e-01,4.91713e-01,9.99999e-01
1.021596983e+00,4.96184e-01,9.99999e-01,9.99849e-01,9.95190e-01,4.98656e-01,9.99999e-01
1.026704968e+00,4.98281e-01,9.99999e-01,9.89306e-01,9.96246e-01,5.05557e-01,9.99999e-01
1.031838492e+00,4.64858e-01,9.99999e-01,9.09541e-01,9.97272e-01,5.12415e-01,9.99999e-01
1.036997685e+00,2.90588e-02,9.99999e-01,5.60342e-02,9.98378e-01,5.19227e-01,9.99999e-01
1.042182673e+00,2.70715e-03,9.99999e-01,5.15449e-03,9.98064e-01,5.25992e-01,9.99999e-01
1.047393587e+00,6.57405e-03,9.99999e-01,1.23673e-02,9.97435e-01,5.32710e-01,9.99999e-01
1.052630555e+00,1.47270e-06,9.99999e-01,2.73650e-06,9.96481e-01,5.39378e-01,9.99999e-01
1.057893707e+00,5.54191e-06,9.99999e-01,1.01817e-05,9.94130e-01,5.45996e-01,9.99999e-01
1.063183176e+00,1.08408e-04,9.99999e-01,1.97309e-04,9.90362e-01,5.52561e-01,9.99999e-01
1.068499092e+00,9.45008e-04,9.99999e-01,1.70908e-03,9.83919e-01,5.59073e-01,9.99999e-01
1.073841587e+00,9.29880e-03,9.99999e-01,1.66724e-02,9.81212e-01,5.65532e-01,9.99999e-01
1.079210795e+00,4.27563e-02,9.99999e-01,7.62205e-02,9.75992e-01,5.71935e-01,9.99998e-01
1.084606849e+00,1.30454e-01,9.99999e-01,2.33074e-01,9.63891e-01,5.78282e-01,9.99998e-01
1.090029883e+00,2.59664e-01,9.99999e-01,4.66482e-01,9.48548e-01,5.84572e-01,9.99997e-01
1.095480033e+00,3.52478e-01,9.99999e-01,6.85932e-01,8.66089e-01,5.90804e-01,9.99996e-01
1.100957433e+00,3.48062e-01,9.99999e-01,8.33179e-01,6.96125e-01,5.96978e-01,9.99993e-01
1.106462220e+00,2.30584e-01,9.99999e-01,9.27222e-01,4.09595e-01,6.03092e-01,9.99985e-01
1.111994531e+00,9.50834e-02,9.99999e-01,9.72350e-01,1.59795e-01,6.09146e-01,9.99972e-01
1.117554504e+00,3.42690e-02,9.99999e-01,9.93187e-01,5.59471e-02,6.15139e-01,9.99960e-01
1.123142276e+00,8.48289e-02,9.99999e-01,9.99552e-01,1.36601e-01,6.21072e-01,9.99953e-01
1.128757988e+00,1.59399e-01,9.99999e-01,9.99999e-01,2.54260e-01,6.26943e-01,9.99949e-01
1.134401778e+00,7.22540e-02,9.99999e-01,9.99999e-01,1.14196e-01,6.32751e-01,9.99943e-01
1.140073787e+00,2.72911e-01,9.99999e-01,9.99999e-01,4.27446e-01,6.38498e-01,9.99954e-01
1.145774156e+00,1.20478e-01,9.99999e-01,9.99999e-01,1.87033e-01,6.44181e-01,9.99961e-01
1.151503026e+00,1.02094e-01,9.99999e-01,9.99999e-01,1.57121e-01,6.49801e-01,9.99966e-01
1.157260541e+00,1.27014e-01,9.99999e-01,9.99999e-01,1.93813e-01,6.55358e-01,9.99974e-01
1.163046844e+00,1.94487e-01,9.99999e-01,9.99999e-01,2.94302e-01,6.60851e-01,9.99983e-01
1.168862078e+00,2.78821e-01,9.99999e-01,9.99999e-01,4.18477e-01,6.66280e-01,9.99991e-01
1.174706389e+00,3.91790e-01,9.99999e-01,9.99999e-01,5.83331e-01,6.71645e-01,9.99995e-01
1.180579921e+00,4.86779e-01,9.99999e-01,9.99999e-01,7.19081e-01,6.76947e-01,9.99996e-01
1.186482820e+00,5.65556e-01,9.99999e-01,9.99978e-01,8.29053e-01,6.82184e-01,9.99997e-01
1.192415234e+00,5.94100e-01,9.99999e-01,9.63388e-01,8.96131e-01,6.87357e-01,9.99997e-01
1.198377311e+00,3.34662e-01,9.99999e-01,5.21939e-01,9.11719e-01,6.92466e-01,9.99997e-01
1.204369197e+00,6.04264e-28,9.99999e-01,9.11253e-28,9.16474e-01,6.97511e-01,9.99998e-01
1.210391043e+00,1.43744e-112,9.99999e-01,2.14358e-112,9.19860e-01,7.02491e-01,9.99998e-01
1.216442998e+00,1.95184e-97,9.99999e-01,2.88342e-97,9.31438e-01,7.07408e-01,9.99998e-01
1.222525213e+00,5.72088e-96,9.99999e-01,8.26453e-96,9.46127e-01,7.12262e-01,9.99999e-01
1.228637839e+00,4.59724e-74,9.99999e-01,6.57963e-74,9.62261e-01,7.17051e-01,9.99999e-01
