#,Wave/freq,Total,O2,CO2,H2O,Rayleigh,CIA
4.000000000e-01,1.65318e-02,9.99999e-01,9.99999e-01,9.99991e-01,1.65319e-02,9.99999e-01
4.020000000e-01,1.79288e-02,9.99999e-01,9.99999e-01,9.99994e-01,1.79289e-02,9.99999e-01
4.040100000e-01,1.94110e-02,9.99999e-01,9.99999e-01,9.99997e-01,1.94111e-02,9.99999e-01
4.060300500e-01,2.09828e-02,9.99999e-01,9.99999e-01,9.99999e-01,2.09828e-02,9.99999e-01
4.080602003e-01,2.26471e-02,9.99999e-01,9.99999e-01,9.99999e-01,2.26471e-02,9.99999e-01
4.101005013e-01,2.44064e-02,9.99999e-01,9.99999e-01,9.99999e-01,2.44064e-02,9.99999e-01
4.121510038e-01,2.62636e-02,9.99999e-01,9.99999e-01,9.99999e-01,2.62636e-02,9.99999e-01
4.142117588e-01,2.82212e-02,9.99999e-01,9.99999e-01,9.99997e-01,2.82213e-02,9.99999e-01
4.162828176e-01,3.02815e-02,9.99999e-01,9.99999e-01,9.99989e-01,3.02818e-02,9.99999e-01
4.183642317e-01,3.24474e-02,9.99999e-01,9.99999e-01,9.99993e-01,3.24476e-02,9.99999e-01
4.204560528e-01,3.47207e-02,9.99999e-01,9.99999e-01,9.99995e-01,3.47208e-02,9.99999e-01
4.225583331e-01,3.71036e-02,9.99999e-01,9.99999e-01,9.99998e-01,3.71037e-02,9.99999e-01
4.246711247e-01,3.95981e-02,9.99999e-01,9.99999e-01,9.99998e-01,3.95981e-02,9.99999e-01
4.267944804e-01,4.22059e-02,9.99999e-01,9.99999e-01,9.99997e-01,4.22060e-02,9.99999e-01
4.289284528e-01,4.49289e-02,9.99999e-01,9.99999e-01,9.99998e-01,4.49289e-02,9.99999e-01
4.310730950e-01,4.77685e-02,9.99999e-01,9.99999e-01,9.99998e-01,4.77685e-02,9.99999e-01
4.332284605e-01,5.07262e-02,9.99999e-01,9.99999e-01,9.99999e-01,5.07262e-02,9.99999e-01
4.353946028e-01,5.38031e-02,9.99999e-01,9.99999e-01,9.99999e-01,5.38031e-02,9.99999e-01
4.375715758e-01,5.70002e-02,9.99999e-01,9.99999e-01,9.99998e-01,5.70003e-02,9.99999e-01
4.397594337e-01,6.03181e-02,9.99999e-01,9.99999e-01,9.99990e-01,6.03186e-02,9.99999e-01
4.419582309e-01,6.37561e-02,9.99999e-01,9.99999e-01,9.99955e-01,6.37588e-02,9.99999e-01
4.441680220e-01,6.73191e-02,9.99999e-01,9.99999e-01,9.99964e-01,6.73215e-02,9.99999e-01
4.463888621e-01,7.10043e-02,9.99999e-01,9.99999e-01,9.99963e-01,7.10069e-02,9.99999e-01
4.486208064e-01,7.48136e-02,9.99999e-01,9.99999e-01,9.99977e-01,7.48153e-02,9.99999e-01
4.508639105e-01,7.87457e-02,9.99999e-01,9.99999e-01,9.99988e-01,7.87466e-02,9.99999e-01
4.531182300e-01,8.28003e-02,9.99999e-01,9.99999e-01,9.99995e-01,8.28007e-02,9.99999e-01
4.553838212e-01,8.69769e-02,9.99999e-01,9.99999e-01,9.99996e-01,8.69772e-02,9.99999e-01
4.576607403e-01,9.12755e-02,9.99999e-01,9.99999e-01,9.99998e-01,9.12756e-02,9.99999e-01
4.599490440e-01,9.56951e-02,9.99999e-01,9.99999e-01,9.99998e-01,9.56952e-02,9.99999e-01
4.622487892e-01,1.00235e-01,9.99999e-01,9.99999e-01,9.99999e-01,1.00235e-01,9.99999e-01
4.645600332e-01,1.04894e-01,9.99999e-01,9.99999e-01,9.99998e-01,1.04894e-01,9.99999e-01
4.668828333e-01,1.09671e-01,9.99999e-01,9.99999e-01,9.99988e-01,1.09672e-01,9.99999e-01
4.692172475e-01,1.14563e-01,9.99999e-01,9.99999e-01,9.99976e-01,1.14566e-01,9.99999e-01
4.715633337e-01,1.19574e-01,9.99999e-01,9.99999e-01,9.99984e-01,1.19575e-01,9.99999e-01
4.739211504e-01,1.24696e-01,9.99999e-01,9.99999e-01,9.99985e-01,1.24698e-01,9.99999e-01
4.762907561e-01,1.29932e-01,9.99999e-01,9.99999e-01,9.99992e-01,1.29933e-01,9.99999e-01
4.786722099e-01,1.35277e-01,9.99999e-01,9.99999e-01,9.99996e-01,1.35278e-01,9.99999e-01
4.810655710e-01,1.40730e-01,9.99999e-01,9.99999e-01,9.99998e-01,1.40730e-01,9.99999e-01
4.834708988e-01,1.46286e-01,9.99999e-01,9.99999e-01,9.99991e-01,1.46288e-01,9.99999e-01
4.858882533e-01,1.51946e-01,9.99999e-01,9.99999e-01,9.99983e-01,1.51949e-01,9.99999e-01
4.883176946e-01,1.57708e-01,9.99999e-01,9.99999e-01,9.99986e-01,1.57710e-01,9.99999e-01
4.907592831e-01,1.63568e-01,9.99999e-01,9.99999e-01,9.99987e-01,1.63570e-01,9.99999e-01
4.932130795e-01,1.69524e-01,9.99999e-01,9.99999e-01,9.99990e-01,1.69526e-01,9.99999e-01
4.956791449e-01,1.75573e-01,9.99999e-01,9.99999e-01,9.99994e-01,1.75574e-01,9.99999e-01
4.981575406e-01,1.81708e-01,9.99999e-01,9.99999e-01,9.99976e-01,1.81712e-01,9.99999e-01
5.006483283e-01,1.87926e-01,9.99999e-01,9.99999e-01,9.99941e-01,1.87937e-01,9.99999e-01
5.031515699e-01,1.94189e-01,9.99999e-01,9.99999e-01,9.99701e-01,1.94246e-01,9.99999e-01
5.056673278e-01,2.00605e-01,9.99999e-01,9.99999e-01,9.99841e-01,2.00636e-01,9.99999e-01
5.081956644e-01,2.07063e-01,9.99999e-01,9.99999e-01,9.99800e-01,2.07104e-01,9.99999e-01
5.107366428e-01,2.13618e-01,9.99999e-01,9.99999e-01,9.99864e-01,2.13647e-01,9.99999e-01
5.132903260e-01,2.20243e-01,9.99999e-01,9.99999e-01,9.99922e-01,2.20260e-01,9.99999e-01
5.158567776e-01,2.26935e-01,9.99999e-01,9.99999e-01,9.99966e-01,2.26942e-01,9.99999e-01
5.184360615e-01,2.33685e-01,9.99999e-01,9.99999e-01,9.99986e-01,2.33688e-01,9.99999e-01
5.210282418e-01,2.40495e-01,9.99999e-01,9.99999e-01,9.99994e-01,2.40496e-01,9.99999e-01
5.236333830e-01,2.47357e-01,9.99999e-01,9.99999e-01,9.99980e-01,2.47362e-01,9.99999e-01
5.262515499e-01,2.54279e-01,9.99999e-01,9.99999e-01,9.99987e-01,2.54282e-01,9.99999e-01
5.288828077e-01,2.61251e-01,9.99999e-01,9.99999e-01,9.99988e-01,2.61254e-01,9.99999e-01
5.315272217e-01,2.68270e-01,9.99999e-01,9.99999e-01,9.99989e-01,2.68273e-01,9.99999e-01
5.341848578e-01,2.75335e-01,9.99999e-01,9.99999e-01,9.99993e-01,2.75336e-01,9.99999e-01
5.368557821e-01,2.82435e-01,9.99999e-01,9.99999e-01,9.99976e-01,2.82441e-01,9.99999e-01
5.395400610e-01,2.89560e-01,9.99999e-01,9.99999e-01,9.99918e-01,2.89583e-01,9.99999e-01
5.422377613e-01,2.96728e-01,9.99999e-01,9.99999e-01,9.99893e-01,2.96760e-01,9.99999e-01
5.449489501e-01,3.03937e-01,9.99999e-01,9.99999e-01,9.99901e-01,3.03967e-01,9.99999e-01
5.476736949e-01,3.11174e-01,9.99999e-01,9.99999e-01,9.99912e-01,3.11201e-01,9.99999e-01
5.504120634e-01,3.18440e-01,9.99999e-01,9.99999e-01,9.99936e-01,3.18460e-01,9.99999e-01
5.531641237e-01,3.25730e-01,9.99999e-01,9.99999e-01,9.99967e-01,3.25740e-01,9.99999e-01
5.559299443e-01,3.33032e-01,9.99999e-01,9.99999e-01,9.99984e-01,3.33037e-01,9.99999e-01
5.587095940e-01,3.40346e-01,9.99999e-01,9.99999e-01,9.99989e-01,3.40349e-01,9.99999e-01
5.615031420e-01,3.47669e-01,9.99999e-01,9.99999e-01,9.99988e-01,3.47673e-01,9.99999e-01
5.643106577e-01,3.55000e-01,9.99999e-01,9.99999e-01,9.99987e-01,3.55004e-01,9.99999e-01
5.671322110e-01,3.62289e-01,9.99999e-01,9.99999e-01,9.99854e-01,3.62341e-01,9.99999e-01
5.699678720e-01,3.69622e-01,9.99999e-01,9.99999e-01,9.99841e-01,3.69680e-01,9.99999e-01
5.728177114e-01,3.76957e-01,9.99999e-01,9.99999e-01,9.99836e-01,3.77018e-01,9.99999e-01
5.756818000e-01,3.84295e-01,9.99999e-01,9.99999e-01,9.99849e-01,3.84353e-01,9.99999e-01
5.785602090e-01,3.91630e-01,9.99999e-01,9.99999e-01,9.99868e-01,3.91681e-01,9.99999e-01
5.814530100e-01,3.98948e-01,9.99999e-01,9.99999e-01,9.99868e-01,3.99001e-01,9.99999e-01
5.843602750e-01,4.06245e-01,9.99999e-01,9.99999e-01,9.99844e-01,4.06308e-01,9.99999e-01
5.872820764e-01,4.13046e-01,9.99999e-01,9.99999e-01,9.98657e-01,4.13601e-01,9.99999e-01
5.902184868e-01,4.20187e-01,9.99999e-01,9.99999e-01,9.98359e-01,4.20877e-01,9.99999e-01
5.931695792e-01,4.27638e-01,9.99999e-01,9.99999e-01,9.98844e-01,4.28133e-01,9.99999e-01
5.961354271e-01,4.34815e-01,9.99999e-01,9.99999e-01,9.98730e-01,4.35367e-01,9.99999e-01
5.991161043e-01,4.42168e-01,9.99999e-01,9.99999e-01,9.99073e-01,4.42578e-01,9.99999e-01
6.021116848e-01,4.49525e-01,9.99999e-01,9.99999e-01,9.99473e-01,4.49761e-01,9.99999e-01
6.051222432e-01,4.56794e-01,9.99999e-01,9.99999e-01,9.99733e-01,4.56916e-01,9.99999e-01
6.081478544e-01,4.63987e-01,9.99999e-01,9.99999e-01,9.99884e-01,4.64040e-01,9.99999e-01
6.111885937e-01,4.71108e-01,9.99999e-01,9.99999e-01,9.99950e-01,4.71131e-01,9.99999e-01
6.142445367e-01,4.78177e-01,9.99999e-01,9.99999e-01,9.99977e-01,4.78187e-01,9.99999e-01
6.173157594e-01,4.85201e-01,9.99999e-01,9.99999e-01,9.99987e-01,4.85207e-01,9.99999e-01
6.204023382e-01,4.92183e-01,9.99999e-01,9.99999e-01,9.99989e-01,4.92187e-01,9.99999e-01
6.235043498e-01,4.99106e-01,9.99999e-01,9.99999e-01,9.99955e-01,4.99128e-01,9.99999e-01
6.266218716e-01,5.05907e-01,9.99999e-01,9.99999e-01,9.99764e-01,5.06026e-01,9.99999e-01
6.297549810e-01,5.12836e-01,9.99999e-01,9.99999e-01,9.99913e-01,5.12880e-01,9.99999e-01
6.329037559e-01,5.19601e-01,9.99999e-01,9.99999e-01,9.99828e-01,5.19690e-01,9.99999e-01
6.360682746e-01,5.26376e-01,9.99999e-01,9.99999e-01,9.99854e-01,5.26452e-01,9.99999e-01
6.392486160e-01,5.33066e-01,9.99999e-01,9.99999e-01,9.99811e-01,5.33166e-01,9.99999e-01
6.424448591e-01,5.39696e-01,9.99999e-01,9.99999e-01,9.99749e-01,5.39831e-01,9.99999e-01
6.456570834e-01,5.45810e-01,9.99999e-01,9.99999e-01,9.98837e-01,5.46445e-01,9.99999e-01
6.488853688e-01,5.52449e-01,9.99999e-01,9.99999e-01,9.98991e-01,5.53007e-01,9.99999e-01
6.521297956e-01,5.59026e-01,9.99999e-01,9.99999e-01,9.99124e-01,5.59515e-01,9.99999e-01
6.553904446e-01,5.65481e-01,9.99999e-01,9.99999e-01,9.99135e-01,5.65970e-01,9.99999e-01
6.586673968e-01,5.71942e-01,9.99999e-01,9.99999e-01,9.99252e-01,5.72369e-01,9.99999e-01
6.619607338e-01,5.78463e-01,9.99999e-01,9.99999e-01,9.99568e-01,5.78712e-01,9.99999e-01
6.652705375e-01,5.84852e-01,9.99999e-01,9.99999e-01,9.99749e-01,5.84999e-01,9.99999e-01
6.685968902e-01,5.91158e-01,9.99999e-01,9.99999e-01,9.99883e-01,5.91227e-01,9.99999e-01
6.719398746e-01,5.97364e-01,9.99999e-01,9.99999e-01,9.99945e-01,5.97396e-01,9.99999e-01
6.752995740e-01,6.03489e-01,9.99999e-01,9.99999e-01,9.99970e-01,6.03506e-01,9.99999e-01
6.786760719e-01,6.09531e-01,9.99999e-01,9.99999e-01,9.99957e-01,6.09556e-01,9.99999e-01
6.820694522e-01,6.15502e-01,9.99999e-01,9.99999e-01,9.99927e-01,6.15546e-01,9.99999e-01
6.854797995e-01,6.21417e-01,9.99999e-01,9.99999e-01,9.99907e-01,6.21474e-01,9.99999e-01
6.889071985e-01,6.27202e-01,9.99999e-01,9.99999e-01,9.99779e-01,6.27341e-01,9.99999e-01
6.923517345e-01,6.30840e-01,9.99999e-01,9.99999e-01,9.96358e-01,6.33145e-01,9.99999e-01
6.958134932e-01,6.37654e-01,9.99999e-01,9.99999e-01,9.98069e-01,6.38887e-01,9.99999e-01
6.992925606e-01,6.43406e-01,9.99999e-01,9.99999e-01,9.98200e-01,6.44566e-01,9.99999e-01
7.027890234e-01,6.48727e-01,9.99999e-01,9.99999e-01,9.97762e-01,6.50182e-01,9.99999e-01
7.063029686e-01,6.54502e-01,9.99999e-01,9.99999e-01,9.98120e-01,6.55734e-01,9.99999e-01
7.098344834e-01,6.60031e-01,9.99999e-01,9.99999e-01,9.98196e-01,6.61223e-01,9.99999e-01
7.133836558e-01,6.65064e-01,9.99999e-01,9.99999e-01,9.97623e-01,6.66648e-01,9.99999e-01
7.169505741e-01,6.59122e-01,9.99999e-01,9.99999e-01,9.80823e-01,6.72009e-01,9.99999e-01
7.205353270e-01,6.70822e-01,9.99999e-01,9.99999e-01,9.90426e-01,6.77306e-01,9.99999e-01
7.241380036e-01,6.74372e-01,9.99999e-01,9.99999e-01,9.88034e-01,6.82538e-01,9.99999e-01
7.277586936e-01,6.80271e-01,9.99999e-01,9.99999e-01,9.89186e-01,6.87707e-01,9.99999e-01
7.313974871e-01,6.84811e-01,9.99999e-01,9.99999e-01,9.88451e-01,6.92812e-01,9.99999e-01
7.350544745e-01,6.93451e-01,9.99999e-01,9.99999e-01,9.93693e-01,6.97852e-01,9.99999e-01
7.387297469e-01,6.99565e-01,9.99999e-01,9.99999e-01,9.95356e-01,7.02829e-01,9.99999e-01
7.424233956e-01,7.06129e-01,9.99999e-01,9.99999e-01,9.97721e-01,7.07741e-01,9.99999e-01
7.461355126e-01,7.11608e-01,9.99999e-01,9.99999e-01,9.98621e-01,7.12590e-01,9.99999e-01
7.498661902e-01,7.16914e-01,9.99999e-01,9.99999e-01,9.99356e-01,7.17376e-01,9.99999e-01
7.536155211e-01,7.21871e-01,9.99999e-01,9.99999e-01,9.99684e-01,7.22098e-01,9.99999e-01
7.573835987e-01,7.26639e-01,9.99999e-01,9.99999e-01,9.99837e-01,7.26757e-01,9.99999e-01
7.611705167e-01,7.31279e-01,9.99999e-01,9.99999e-01,9.99898e-01,7.31353e-01,9.99999e-01
7.649763693e-01,7.35840e-01,9.99999e-01,9.99999e-01,9.99936e-01,7.35886e-01,9.99999e-01
7.688012511e-01,7.40325e-01,9.99999e-01,9.99999e-01,9.99955e-01,7.40358e-01,9.99999e-01
7.726452574e-01,7.44740e-01,9.99999e-01,9.99999e-01,9.99963e-01,7.44767e-01,9.99999e-01
7.765084837e-01,7.49077e-01,9.99999e-01,9.99999e-01,9.99948e-01,7.49115e-01,9.99999e-01
7.803910261e-01,7.42898e-01,9.99999e-01,9.86271e-01,9.99780e-01,7.53401e-01,9.99999e-01
7.842929812e-01,7.12017e-01,9.99999e-01,9.40504e-01,9.99233e-01,7.57627e-01,9.99999e-01
7.882144461e-01,7.12341e-01,9.99999e-01,9.36550e-01,9.98408e-01,7.61792e-01,9.99999e-01
7.921555184e-01,7.37065e-01,9.99999e-01,9.63191e-01,9.99123e-01,7.65897e-01,9.99999e-01
7.961162960e-01,7.49640e-01,9.99999e-01,9.75120e-01,9.98466e-01,7.69943e-01,9.99999e-01
8.000968774e-01,7.62099e-01,9.99999e-01,9.86467e-01,9.98219e-01,7.73929e-01,9.99999e-01
8.040973618e-01,7.70997e-01,9.99999e-01,9.92945e-01,9.98221e-01,7.77856e-01,9.99999e-01
8.081178486e-01,7.76097e-01,9.99999e-01,9.96769e-01,9.96013e-01,7.81726e-01,9.99999e-01
8.121584379e-01,7.71725e-01,9.99999e-01,9.98993e-01,9.83401e-01,7.85537e-01,9.99999e-01
8.162192301e-01,7.73435e-01,9.99999e-01,9.99777e-01,9.80125e-01,7.89292e-01,9.99999e-01
8.203003262e-01,7.85177e-01,9.99999e-01,9.99995e-01,9.90150e-01,7.92989e-01,9.99999e-01
8.244018279e-01,7.85392e-01,9.99999e-01,9.99999e-01,9.85891e-01,7.96631e-01,9.99999e-01
8.285238370e-01,7.90764e-01,9.99999e-01,9.99999e-01,9.88186e-01,8.00217e-01,9.99999e-01
8.326664562e-01,7.94107e-01,9.99999e-01,9.99999e-01,9.88005e-01,8.03747e-01,9.99999e-01
8.368297885e-01,8.00300e-01,9.99999e-01,9.99999e-01,9.91423e-01,8.07223e-01,9.99999e-01
8.410139374e-01,8.06509e-01,9.99999e-01,9.99999e-01,9.94897e-01,8.10645e-01,9.99999e-01
8.452190071e-01,8.11974e-01,9.99999e-01,9.99999e-01,9.97493e-01,8.14013e-01,9.99999e-01
8.494451021e-01,8.16145e-01,9.99999e-01,9.99999e-01,9.98550e-01,8.17329e-01,9.99999e-01
8.536923276e-01,8.19886e-01,9.99999e-01,9.99999e-01,9.99140e-01,8.20592e-01,9.99999e-01
8.579607893e-01,8.23368e-01,9.99999e-01,9.99999e-01,9.99471e-01,8.23803e-01,9.99999e-01
8.622505932e-01,8.26685e-01,9.99999e-01,9.99999e-01,9.99663e-01,8.26963e-01,9.99999e-01
8.665618462e-01,7.98364e-01,9.99999e-01,9.61995e-01,9.99792e-01,8.30072e-01,9.99999e-01
8.708946554e-01,7.11163e-01,9.99999e-01,8.53801e-01,9.99762e-01,8.33131e-01,9.99999e-01
8.752491287e-01,7.37115e-01,9.99999e-01,8.81843e-01,9.99682e-01,8.36141e-01,9.99999e-01
8.796253743e-01,7.83406e-01,9.99999e-01,9.34027e-01,9.99562e-01,8.39102e-01,9.99999e-01
8.840235012e-01,8.12525e-01,9.99999e-01,9.65457e-01,9.99499e-01,8.42014e-01,9.99999e-01
8.884436187e-01,8.31744e-01,9.99999e-01,9.86219e-01,9.98201e-01,8.44879e-01,9.99999e-01
8.928858368e-01,8.26886e-01,9.99999e-01,9.94414e-01,9.80908e-01,8.47697e-01,9.99999e-01
8.973502660e-01,8.20540e-01,9.99999e-01,9.98632e-01,9.66119e-01,8.50468e-01,9.99999e-01
9.018370173e-01,8.38087e-01,9.99999e-01,9.99848e-01,9.82440e-01,8.53193e-01,9.99999e-01
9.063462024e-01,8.39703e-01,9.99999e-01,9.96227e-01,9.84775e-01,8.55873e-01,9.99998e-01
9.108779334e-01,8.30774e-01,9.99999e-01,9.91209e-01,9.76233e-01,8.58508e-01,9.99998e-01
9.154323231e-01,8.36136e-01,9.99999e-01,9.97912e-01,9.73023e-01,8.61099e-01,9.99998e-01
9.200094847e-01,8.19931e-01,9.99999e-01,9.69545e-01,9.78739e-01,8.63647e-01,9.99998e-01
9.246095321e-01,8.02509e-01,9.99999e-01,9.57659e-01,9.67166e-01,8.66151e-01,9.99998e-01
9.292325798e-01,6.69104e-01,9.99999e-01,9.66791e-01,7.95479e-01,8.68613e-01,9.99996e-01
9.338787427e-01,6.25992e-01,9.99999e-01,9.67705e-01,7.41432e-01,8.71033e-01,9.99995e-01
9.385481364e-01,7.56500e-01,9.99999e-01,9.76241e-01,8.86682e-01,8.73412e-01,9.99995e-01
9.432408771e-01,7.29349e-01,9.99999e-01,9.85368e-01,8.44891e-01,8.75750e-01,9.99994e-01
9.479570815e-01,6.88405e-01,9.99999e-01,9.92490e-01,7.89802e-01,8.78048e-01,9.99995e-01
9.526968669e-01,7.36043e-01,9.99999e-01,9.96365e-01,8.39043e-01,8.80306e-01,9.99996e-01
9.574603512e-01,7.53172e-01,9.99999e-01,9.98443e-01,8.54721e-01,8.82526e-01,9.99997e-01
9.622476530e-01,7.78549e-01,9.99999e-01,9.99513e-01,8.80426e-01,8.84707e-01,9.99997e-01
9.670588912e-01,8.24226e-01,9.99999e-01,9.99853e-01,9.29519e-01,8.86850e-01,9.99998e-01
9.718941857e-01,8.49555e-01,9.99999e-01,9.99989e-01,9.55687e-01,8.88956e-01,9.99998e-01
9.767536566e-01,8.58155e-01,9.99999e-01,9.99999e-01,9.63108e-01,8.91026e-01,9.99999e-01
9.816374249e-01,8.68505e-01,9.99999e-01,9.99999e-01,9.72506e-01,8.93059e-01,9.99999e-01
9.865456120e-01,8.79613e-01,9.99999e-01,9.99999e-01,9.82745e-01,8.95056e-01,9.99999e-01
9.914783401e-01,8.87434e-01,9.99999e-01,9.99999e-01,9.89314e-01,8.97018e-01,9.99999e-01
9.964357318e-01,8.93702e-01,9.99999e-01,9.99999e-01,9.94166e-01,8.98946e-01,9.99999e-01
1.001417910e+00,8.97687e-01,9.99999e-01,9.99999e-01,9.96500e-01,9.00839e-01,9.99999e-01
1.006425000e+00,9.00902e-01,9.99999e-01,9.99999e-01,9.98007e-01,9.02699e-01,9.99999e-01
1.011457125e+00,9.03405e-01,9.99999e-01,9.99999e-01,9.98760e-01,9.04527e-01,9.99999e-01
1.016514411e+00,9.05560e-01,9.99999e-01,9.99999e-01,9.99159e-01,9.06321e-01,9.99999e-01
1.021596983e+00,9.07460e-01,9.99999e-01,9.99981e-01,9.99330e-01,9.08084e-01,9.99999e-01
1.026704968e+00,9.08012e-01,9.99999e-01,9.98538e-01,9.99478e-01,9.09815e-01,9.99999e-01
1.031838492e+00,8.91780e-01,9.99999e-01,9.78714e-01,9.99619e-01,9.11515e-01,9.99999e-01
1.036997685e+00,3.06801e-01,9.99999e-01,3.36033e-01,9.99774e-01,9.13184e-01,9.99999e-01
1.042182673e+00,3.75375e-01,9.99999e-01,4.10429e-01,9.99731e-01,9.14824e-01,9.99999e-01
1.047393587e+00,3.41155e-01,9.99999e-01,3.72385e-01,9.99644e-01,9.16434e-01,9.99999e-01
1.052630555e+00,6.96980e-02,9.99999e-01,7.59524e-02,9.99512e-01,9.18015e-01,9.99999e-01
1.057893707e+00,1.22064e-01,9.99999e-01,1.32829e-01,9.99187e-01,9.19568e-01,9.99999e-01
1.063183176e+00,2.14774e-01,9.99999e-01,2.33434e-01,9.98661e-01,9.21092e-01,9.99999e-01
1.068499092e+00,3.52472e-01,9.99999e-01,3.82840e-01,9.97756e-01,9.22588e-01,9.99999e-01
1.073841587e+00,5.02224e-01,9.99999e-01,5.44816e-01,9.97377e-01,9.24058e-01,9.99999e-01
1.079210795e+00,6.29500e-01,9.99999e-01,6.82383e-01,9.96631e-01,9.25501e-01,9.99999e-01
1.084606849e+00,7.48683e-01,9.99999e-01,8.11763e-01,9.94910e-01,9.26917e-01,9.99999e-01
1.090029883e+00,8.27469e-01,9.99999e-01,8.97830e-01,9.92728e-01,9.28308e-01,9.99999e-01
1.095480033e+00,8.64264e-01,9.99999e-01,9.48275e-01,9.80265e-01,9.29673e-01,9.99999e-01
1.100957433e+00,8.62697e-01,9.99999e-01,9.74786e-01,9.50489e-01,9.31013e-01,9.99998e-01
1.106462220e+00,8.10264e-01,9.99999e-01,9.89490e-01,8.78170e-01,9.32328e-01,9.99997e-01
1.111994531e+00,7.05321e-01,9.99999e-01,9.96093e-01,7.58344e-01,9.33619e-01,9.99995e-01
1.117554504e+00,5.94794e-01,9.99999e-01,9.99040e-01,6.36782e-01,9.34887e-01,9.99994e-01
1.123142276e+00,6.65785e-01,9.99999e-01,9.99936e-01,7.11246e-01,9.36131e-01,9.99993e-01
1.128757988e+00,7.57233e-01,9.99999e-01,9.99999e-01,8.07847e-01,9.37352e-01,9.99992e-01
1.134401778e+00,5.54344e-01,9.99999e-01,9.99999e-01,5.90643e-01,9.38551e-01,9.99991e-01
1.140073787e+00,8.29220e-01,9.99999e-01,9.99999e-01,8.82410e-01,9.39727e-01,9.99993e-01
1.145774156e+00,7.21472e-01,9.99999e-01,9.99999e-01,7.66807e-01,9.40882e-01,9.99994e-01
1.151503026e+00,6.99285e-01,9.99999e-01,9.99999e-01,7.42331e-01,9.42015e-01,9.99994e-01
1.157260541e+00,7.39524e-01,9.99999e-01,9.99999e-01,7.84121e-01,9.43127e-01,9.99996e-01
1.163046844e+00,7.89116e-01,9.99999e-01,9.99999e-01,8.35735e-01,9.44219e-01,9.99997e-01
1.168862078e+00,8.35266e-01,9.99999e-01,9.99999e-01,8.83609e-01,9.45290e-01,9.99998e-01
1.174706389e+00,8.76813e-01,9.99999e-01,9.99999e-01,9.26529e-01,9.46341e-01,9.99998e-01
1.180579921e+00,9.04392e-01,9.99999e-01,9.99999e-01,9.54632e-01,9.47372e-01,9.99999e-01
1.186482820e+00,9.23890e-01,9.99999e-01,9.99997e-01,9.74174e-01,9.48384e-01,9.99999e-01
1.192415234e+00,9.30147e-01,9.99999e-01,9.94768e-01,9.84872e-01,9.49378e-01,9.99999e-01
1.198377311e+00,5.62528e-01,9.99999e-01,5.98370e-01,9.87255e-01,9.50352e-01,9.99999e-01
1.204369197e+00,8.37713e-06,9.99999e-01,8.86783e-06,9.87916e-01,9.51309e-01,9.99999e-01
1.210391043e+00,1.56045e-17,9.99999e-01,1.64929e-17,9.88445e-01,9.52247e-01,9.99999e-01
1.216442998e+00,2.01644e-15,9.99999e-01,2.12850e-15,9.90143e-01,9.53168e-01,9.99999e-01
1.222525213e+00,3.51044e-15,9.99999e-01,3.69462e-15,9.92328e-01,9.54071e-01,9.99999e-01
1.228637839e+00,1.22871e-11,9.99999e-01,1.29161e-11,9.94671e-01,9.54958e-01,9.99999e-01
