#,Wave/freq,Total,O2,CO2,H2O,Rayleigh,CIA
4.000000000e-01,7.19209e-10,9.99999e-01,9.99999e-01,9.99958e-01,7.19239e-10,9.99999e-01
4.020000000e-01,1.09055e-09,9.99999e-01,9.99999e-01,9.99974e-01,1.09057e-09,9.99999e-01
4.040100000e-01,1.63938e-09,9.99999e-01,9.99999e-01,9.99988e-01,1.63939e-09,9.99999e-01
4.060300500e-01,2.44463e-09,9.99999e-01,9.99999e-01,9.99997e-01,2.44464e-09,9.99999e-01
4.080602003e-01,3.61675e-09,9.99999e-01,9.99999e-01,9.99998e-01,3.61675e-09,9.99999e-01
4.101005013e-01,5.30962e-09,9.99999e-01,9.99999e-01,9.99999e-01,5.30962e-09,9.99999e-01
4.121510038e-01,7.73594e-09,9.99999e-01,9.99999e-01,9.99997e-01,7.73595e-09,9.99999e-01
4.142117588e-01,1.11874e-08,9.99999e-01,9.99999e-01,9.99988e-01,1.11876e-08,9.99999e-01
4.162828176e-01,1.60609e-08,9.99999e-01,9.99999e-01,9.99948e-01,1.60617e-08,9.99999e-01
4.183642317e-01,2.28947e-08,9.99999e-01,9.99999e-01,9.99969e-01,2.28954e-08,9.99999e-01
4.204560528e-01,3.24081e-08,9.99999e-01,9.99999e-01,9.99980e-01,3.24087e-08,9.99999e-01
4.225583331e-01,4.55608e-08,9.99999e-01,9.99999e-01,9.99992e-01,4.55611e-08,9.99999e-01
4.246711247e-01,6.36214e-08,9.99999e-01,9.99999e-01,9.99993e-01,6.36217e-08,9.99999e-01
4.267944804e-01,8.82569e-08,9.99999e-01,9.99999e-01,9.99991e-01,8.82576e-08,9.99999e-01
4.289284528e-01,1.21643e-07,9.99999e-01,9.99999e-01,9.99993e-01,1.21644e-07,9.99999e-01
4.310730950e-01,1.66601e-07,9.99999e-01,9.99999e-01,9.99996e-01,1.66601e-07,9.99999e-01
4.332284605e-01,2.26760e-07,9.99999e-01,9.99999e-01,9.99998e-01,2.26760e-07,9.99999e-01
4.353946028e-01,3.06768e-07,9.99999e-01,9.99999e-01,9.99999e-01,3.06768e-07,9.99999e-01
4.375715758e-01,4.12534e-07,9.99999e-01,9.99999e-01,9.99994e-01,4.12536e-07,9.99999e-01
4.397594337e-01,5.51509e-07,9.99999e-01,9.99999e-01,9.99954e-01,5.51534e-07,9.99999e-01
4.419582309e-01,7.32979e-07,9.99999e-01,9.99999e-01,9.99768e-01,7.33148e-07,9.99999e-01
4.441680220e-01,9.68931e-07,9.99999e-01,9.99999e-01,9.99823e-01,9.69102e-07,9.99999e-01
4.463888621e-01,1.27372e-06,9.99999e-01,9.99999e-01,9.99814e-01,1.27395e-06,9.99999e-01
4.486208064e-01,1.66549e-06,9.99999e-01,9.99999e-01,9.99885e-01,1.66568e-06,9.99999e-01
4.508639105e-01,2.16624e-06,9.99999e-01,9.99999e-01,9.99945e-01,2.16635e-06,9.99999e-01
4.531182300e-01,2.80287e-06,9.99999e-01,9.99999e-01,9.99978e-01,2.80293e-06,9.99999e-01
4.553838212e-01,3.60811e-06,9.99999e-01,9.99999e-01,9.99985e-01,3.60816e-06,9.99999e-01
4.576607403e-01,4.62158e-06,9.99999e-01,9.99999e-01,9.99992e-01,4.62161e-06,9.99999e-01
4.599490440e-01,5.89081e-06,9.99999e-01,9.99999e-01,9.99994e-01,5.89083e-06,9.99999e-01
4.622487892e-01,7.47271e-06,9.99999e-01,9.99999e-01,9.99998e-01,7.47272e-06,9.99999e-01
4.645600332e-01,9.43493e-06,9.99999e-01,9.99999e-01,9.99996e-01,9.43496e-06,9.99999e-01
4.668828333e-01,1.18571e-05,9.99999e-01,9.99999e-01,9.99944e-01,1.18577e-05,9.99999e-01
4.692172475e-01,1.48338e-05,9.99999e-01,9.99999e-01,9.99883e-01,1.48355e-05,9.99999e-01
4.715633337e-01,1.84777e-05,9.99999e-01,9.99999e-01,9.99923e-01,1.84791e-05,9.99999e-01
4.739211504e-01,2.29163e-05,9.99999e-01,9.99999e-01,9.99927e-01,2.29179e-05,9.99999e-01
4.762907561e-01,2.83014e-05,9.99999e-01,9.99999e-01,9.99962e-01,2.83024e-05,9.99999e-01
4.786722099e-01,3.48061e-05,9.99999e-01,9.99999e-01,9.99984e-01,3.48066e-05,9.99999e-01
4.810655710e-01,4.26307e-05,9.99999e-01,9.99999e-01,9.99994e-01,4.26309e-05,9.99999e-01
4.834708988e-01,5.20030e-05,9.99999e-01,9.99999e-01,9.99954e-01,5.20054e-05,9.99999e-01
4.858882533e-01,6.31876e-05,9.99999e-01,9.99999e-01,9.99917e-01,6.31927e-05,9.99999e-01
4.883176946e-01,7.64864e-05,9.99999e-01,9.99999e-01,9.99930e-01,7.64917e-05,9.99999e-01
4.907592831e-01,9.22351e-05,9.99999e-01,9.99999e-01,9.99937e-01,9.22408e-05,9.99999e-01
4.932130795e-01,1.10817e-04,9.99999e-01,9.99999e-01,9.99955e-01,1.10822e-04,9.99999e-01
4.956791449e-01,1.32661e-04,9.99999e-01,9.99999e-01,9.99976e-01,1.32664e-04,9.99999e-01
4.981575406e-01,1.58230e-04,9.99999e-01,9.99999e-01,9.99882e-01,1.58248e-04,9.99999e-01
5.006483283e-01,1.88053e-04,9.99999e-01,9.99999e-01,9.99694e-01,1.88110e-04,9.99999e-01
5.031515699e-01,2.22502e-04,9.99999e-01,9.99999e-01,9.98465e-01,2.22844e-04,9.99999e-01
5.056673278e-01,2.62898e-04,9.99999e-01,9.99999e-01,9.99192e-01,2.63110e-04,9.99999e-01
5.081956644e-01,3.09319e-04,9.99999e-01,9.99999e-01,9.98981e-01,3.09634e-04,9.99999e-01
5.107366428e-01,3.62965e-04,9.99999e-01,9.99999e-01,9.99312e-01,3.63214e-04,9.99999e-01
5.132903260e-01,4.24559e-04,9.99999e-01,9.99999e-01,9.99607e-01,4.24726e-04,9.99999e-01
5.158567776e-01,4.95039e-04,9.99999e-01,9.99999e-01,9.99834e-01,4.95121e-04,9.99999e-01
5.184360615e-01,5.75401e-04,9.99999e-01,9.99999e-01,9.99933e-01,5.75439e-04,9.99999e-01
5.210282418e-01,6.66786e-04,9.99999e-01,9.99999e-01,9.99974e-01,6.66803e-04,9.99999e-01
5.236333830e-01,7.70350e-04,9.99999e-01,9.99999e-01,9.99899e-01,7.70426e-04,9.99999e-01
5.262515499e-01,8.87562e-04,9.99999e-01,9.99999e-01,9.99937e-01,8.87618e-04,9.99999e-01
5.288828077e-01,1.01972e-03,9.99999e-01,9.99999e-01,9.99941e-01,1.01978e-03,9.99999e-01
5.315272217e-01,1.16835e-03,9.99999e-01,9.99999e-01,9.99949e-01,1.16841e-03,9.99999e-01
5.341848578e-01,1.33507e-03,9.99999e-01,9.99999e-01,9.99966e-01,1.33511e-03,9.99999e-01
5.368557821e-01,1.52141e-03,9.99999e-01,9.99999e-01,9.99882e-01,1.52158e-03,9.99999e-01
5.395400610e-01,1.72889e-03,9.99999e-01,9.99999e-01,9.99575e-01,1.72963e-03,9.99999e-01
5.422377613e-01,1.96008e-03,9.99999e-01,9.99999e-01,9.99458e-01,1.96115e-03,9.99999e-01
5.449489501e-01,2.21702e-03,9.99999e-01,9.99999e-01,9.99493e-01,2.21814e-03,9.99999e-01
5.476736949e-01,2.50161e-03,9.99999e-01,9.99999e-01,9.99554e-01,2.50272e-03,9.99999e-01
5.504120634e-01,2.81618e-03,9.99999e-01,9.99999e-01,9.99676e-01,2.81709e-03,9.99999e-01
5.531641237e-01,3.16303e-03,9.99999e-01,9.99999e-01,9.99837e-01,3.16354e-03,9.99999e-01
5.559299443e-01,3.54419e-03,9.99999e-01,9.99999e-01,9.99921e-01,3.54447e-03,9.99999e-01
5.587095940e-01,3.96216e-03,9.99999e-01,9.99999e-01,9.99950e-01,3.96236e-03,9.99999e-01
5.615031420e-01,4.41953e-03,9.99999e-01,9.99999e-01,9.99944e-01,4.41977e-03,9.99999e-01
5.643106577e-01,4.91905e-03,9.99999e-01,9.99999e-01,9.99936e-01,4.91936e-03,9.99999e-01
5.671322110e-01,5.45965e-03,9.99999e-01,9.99999e-01,9.99229e-01,5.46386e-03,9.99999e-01
5.699678720e-01,6.05121e-03,9.99999e-01,9.99999e-01,9.99200e-01,6.05605e-03,9.99999e-01
5.728177114e-01,6.69317e-03,9.99999e-01,9.99999e-01,9.99159e-01,6.69880e-03,9.99999e-01
5.756818000e-01,7.38932e-03,9.99999e-01,9.99999e-01,9.99229e-01,7.39501e-03,9.99999e-01
5.785602090e-01,8.14219e-03,9.99999e-01,9.99999e-01,9.99329e-01,8.14765e-03,9.99999e-01
5.814530100e-01,8.95368e-03,9.99999e-01,9.99999e-01,9.99325e-01,8.95972e-03,9.99999e-01
5.843602750e-01,9.82631e-03,9.99999e-01,9.99999e-01,9.99190e-01,9.83426e-03,9.99999e-01
5.872820764e-01,1.06995e-02,9.99999e-01,9.99999e-01,9.93050e-01,1.07743e-02,9.99999e-01
5.902184868e-01,1.16846e-02,9.99999e-01,9.99999e-01,9.91646e-01,1.17830e-02,9.99999e-01
5.931695792e-01,1.27872e-02,9.99999e-01,9.99999e-01,9.94079e-01,1.28633e-02,9.99999e-01
5.961354271e-01,1.39276e-02,9.99999e-01,9.99999e-01,9.93522e-01,1.40184e-02,9.99999e-01
5.991161043e-01,1.51792e-02,9.99999e-01,9.99999e-01,9.95276e-01,1.52512e-02,9.99999e-01
6.021116848e-01,1.65205e-02,9.99999e-01,9.99999e-01,9.97320e-01,1.65649e-02,9.99999e-01
6.051222432e-01,1.79381e-02,9.99999e-01,9.99999e-01,9.98643e-01,1.79624e-02,9.99999e-01
6.081478544e-01,1.94353e-02,9.99999e-01,9.99999e-01,9.99414e-01,1.94467e-02,9.99999e-01
6.111885937e-01,2.10154e-02,9.99999e-01,9.99999e-01,9.99752e-01,2.10206e-02,9.99999e-01
6.142445367e-01,2.26845e-02,9.99999e-01,9.99999e-01,9.99889e-01,2.26870e-02,9.99999e-01
6.173157594e-01,2.44471e-02,9.99999e-01,9.99999e-01,9.99938e-01,2.44486e-02,9.99999e-01
6.204023382e-01,2.63068e-02,9.99999e-01,9.99999e-01,9.99947e-01,2.63081e-02,9.99999e-01
6.235043498e-01,2.82616e-02,9.99999e-01,9.99999e-01,9.99768e-01,2.82681e-02,9.99999e-01
6.266218716e-01,3.02945e-02,9.99999e-01,9.99999e-01,9.98792e-01,3.03311e-02,9.99999e-01
6.297549810e-01,3.24849e-02,9.99999e-01,9.99999e-01,9.99556e-01,3.24993e-02,9.99999e-01
6.329037559e-01,3.47448e-02,9.99999e-01,9.99999e-01,9.99126e-01,3.47751e-02,9.99999e-01
6.360682746e-01,3.71328e-02,9.99999e-01,9.99999e-01,9.99253e-01,3.71606e-02,9.99999e-01
6.392486160e-01,3.96193e-02,9.99999e-01,9.99999e-01,9.99033e-01,3.96576e-02,9.99999e-01
6.424448591e-01,4.22131e-02,9.99999e-01,9.99999e-01,9.98697e-01,4.22681e-02,9.99999e-01
6.456570834e-01,4.47225e-02,9.99999e-01,9.99999e-01,9.93969e-01,4.49938e-02,9.99999e-01
6.488853688e-01,4.76269e-02,9.99999e-01,9.99999e-01,9.95624e-01,4.78362e-02,9.99999e-01
6.521297956e-01,5.05701e-02,9.99999e-01,9.99999e-01,9.95540e-01,5.07966e-02,9.99999e-01
6.553904446e-01,5.36361e-02,9.99999e-01,9.99999e-01,9.95541e-01,5.38763e-02,9.99999e-01
6.586673968e-01,5.68591e-02,9.99999e-01,9.99999e-01,9.96195e-01,5.70763e-02,9.99999e-01
6.619607338e-01,6.02694e-02,9.99999e-01,9.99999e-01,9.97878e-01,6.03974e-02,9.99999e-01
6.652705375e-01,6.37593e-02,9.99999e-01,9.99999e-01,9.98726e-01,6.38405e-02,9.99999e-01
6.685968902e-01,6.73696e-02,9.99999e-01,9.99999e-01,9.99458e-01,6.74060e-02,9.99999e-01
6.719398746e-01,7.10748e-02,9.99999e-01,9.99999e-01,9.99725e-01,7.10943e-02,9.99999e-01
6.752995740e-01,7.48947e-02,9.99999e-01,9.99999e-01,9.99854e-01,7.49055e-02,9.99999e-01
6.786760719e-01,7.88226e-02,9.99999e-01,9.99999e-01,9.99782e-01,7.88397e-02,9.99999e-01
6.820694522e-01,8.28661e-02,9.99999e-01,9.99999e-01,9.99630e-01,8.28967e-02,9.99999e-01
6.854797995e-01,8.70346e-02,9.99999e-01,9.99999e-01,9.99523e-01,8.70760e-02,9.99999e-01
6.889071985e-01,9.12707e-02,9.99999e-01,9.99999e-01,9.98833e-01,9.13773e-02,9.99999e-01
6.923517345e-01,9.40053e-02,9.99999e-01,9.99999e-01,9.81268e-01,9.57997e-02,9.99999e-01
6.958134932e-01,9.93788e-02,9.99999e-01,9.99999e-01,9.90396e-01,1.00342e-01,9.99999e-01
6.992925606e-01,1.04029e-01,9.99999e-01,9.99999e-01,9.90705e-01,1.05005e-01,9.99999e-01
7.027890234e-01,1.08535e-01,9.99999e-01,9.99999e-01,9.88613e-01,1.09785e-01,9.99999e-01
7.063029686e-01,1.13582e-01,9.99999e-01,9.99999e-01,9.90410e-01,1.14681e-01,9.99999e-01
7.098344834e-01,1.18592e-01,9.99999e-01,9.99999e-01,9.90796e-01,1.19693e-01,9.99999e-01
7.133836558e-01,1.23275e-01,9.99999e-01,9.99999e-01,9.87628e-01,1.24819e-01,9.99999e-01
7.169505741e-01,1.17768e-01,9.99999e-01,9.99999e-01,9.05512e-01,1.30056e-01,9.99998e-01
7.205353270e-01,1.29076e-01,9.99999e-01,9.99999e-01,9.53267e-01,1.35403e-01,9.99998e-01
7.241380036e-01,1.32433e-01,9.99999e-01,9.99999e-01,9.40183e-01,1.40858e-01,9.99998e-01
7.277586936e-01,1.38499e-01,9.99999e-01,9.99999e-01,9.45915e-01,1.46418e-01,9.99998e-01
7.313974871e-01,1.43387e-01,9.99999e-01,9.99999e-01,9.42829e-01,1.52082e-01,9.99998e-01
7.350544745e-01,1.52841e-01,9.99999e-01,9.99999e-01,9.68294e-01,1.57846e-01,9.99999e-01
7.387297469e-01,1.59873e-01,9.99999e-01,9.99999e-01,9.76574e-01,1.63708e-01,9.99999e-01
7.424233956e-01,1.67713e-01,9.99999e-01,9.99999e-01,9.88491e-01,1.69666e-01,9.99999e-01
7.461355126e-01,1.74486e-01,9.99999e-01,9.99999e-01,9.93001e-01,1.75716e-01,9.99999e-01
7.498661902e-01,1.81264e-01,9.99999e-01,9.99999e-01,9.96744e-01,1.81856e-01,9.99999e-01
7.536155211e-01,1.87782e-01,9.99999e-01,9.99999e-01,9.98397e-01,1.88083e-01,9.99999e-01
7.573835987e-01,1.94234e-01,9.99999e-01,9.99999e-01,9.99175e-01,1.94395e-01,9.99999e-01
7.611705167e-01,2.00684e-01,9.99999e-01,9.99999e-01,9.99487e-01,2.00786e-01,9.99999e-01
7.649763693e-01,2.07189e-01,9.99999e-01,9.99999e-01,9.99678e-01,2.07256e-01,9.99999e-01
7.688012511e-01,2.13752e-01,9.99999e-01,9.99999e-01,9.99775e-01,2.13800e-01,9.99999e-01
7.726452574e-01,2.20375e-01,9.99999e-01,9.99999e-01,9.99815e-01,2.20415e-01,9.99999e-01
7.765084837e-01,2.27039e-01,9.99999e-01,9.99999e-01,9.99735e-01,2.27099e-01,9.99999e-01
7.803910261e-01,2.18650e-01,9.99999e-01,9.36023e-01,9.98857e-01,2.33846e-01,9.99999e-01
7.842929812e-01,1.78209e-01,9.99999e-01,7.43218e-01,9.96016e-01,2.40656e-01,9.99999e-01
7.882144461e-01,1.78850e-01,9.99999e-01,7.28053e-01,9.91867e-01,2.47523e-01,9.99999e-01
7.921555184e-01,2.09440e-01,9.99999e-01,8.26638e-01,9.95553e-01,2.54444e-01,9.99999e-01
7.961162960e-01,2.28367e-01,9.99999e-01,8.80430e-01,9.92075e-01,2.61417e-01,9.99999e-01
8.000968774e-01,2.48223e-01,9.99999e-01,9.33144e-01,9.90894e-01,2.68437e-01,9.99999e-01
8.040973618e-01,2.63413e-01,9.99999e-01,9.64885e-01,9.90881e-01,2.75502e-01,9.99999e-01
8.081178486e-01,2.72296e-01,9.99999e-01,9.83660e-01,9.79461e-01,2.82607e-01,9.99999e-01
8.121584379e-01,2.64506e-01,9.99999e-01,9.94970e-01,9.17398e-01,2.89750e-01,9.99998e-01
8.162192301e-01,2.68011e-01,9.99999e-01,9.98886e-01,9.03582e-01,2.96927e-01,9.99998e-01
8.203003262e-01,2.89045e-01,9.99999e-01,9.99984e-01,9.50396e-01,3.04135e-01,9.99998e-01
8.244018279e-01,2.90499e-01,9.99999e-01,9.99999e-01,9.32971e-01,3.11370e-01,9.99997e-01
8.285238370e-01,2.99795e-01,9.99999e-01,9.99999e-01,9.40888e-01,3.18630e-01,9.99998e-01
8.326664562e-01,3.06520e-01,9.99999e-01,9.99999e-01,9.40505e-01,3.25910e-01,9.99998e-01
8.368297885e-01,3.18923e-01,9.99999e-01,9.99999e-01,9.57128e-01,3.33208e-01,9.99999e-01
8.410139374e-01,3.31771e-01,9.99999e-01,9.99999e-01,9.74306e-01,3.40520e-01,9.99999e-01
8.452190071e-01,3.43437e-01,9.99999e-01,9.99999e-01,9.87331e-01,3.47844e-01,9.99999e-01
8.494451021e-01,3.52550e-01,9.99999e-01,9.99999e-01,9.92607e-01,3.55175e-01,9.99999e-01
8.536923276e-01,3.60930e-01,9.99999e-01,9.99999e-01,9.95635e-01,3.62512e-01,9.99999e-01
8.579607893e-01,3.68854e-01,9.99999e-01,9.99999e-01,9.97303e-01,3.69851e-01,9.99999e-01
8.622505932e-01,3.76545e-01,9.99999e-01,9.99999e-01,9.98289e-01,3.77189e-01,9.99999e-01
8.665618462e-01,3.41177e-01,9.99999e-01,8.88160e-01,9.98938e-01,3.84524e-01,9.99999e-01
8.708946554e-01,1.86137e-01,9.99999e-01,4.75561e-01,9.98782e-01,3.91852e-01,9.99999e-01
8.752491287e-01,2.17066e-01,9.99999e-01,5.44631e-01,9.98372e-01,3.99171e-01,9.99999e-01
8.796253743e-01,2.89168e-01,9.99999e-01,7.12920e-01,9.97740e-01,4.06478e-01,9.99999e-01
8.840235012e-01,3.45734e-01,9.99999e-01,8.37664e-01,9.97421e-01,4.13771e-01,9.99999e-01
8.884436187e-01,3.89011e-01,9.99999e-01,9.32612e-01,9.90491e-01,4.21046e-01,9.99999e-01
8.928858368e-01,3.77161e-01,9.99999e-01,9.72047e-01,9.05469e-01,4.28302e-01,9.99998e-01
8.973502660e-01,3.63605e-01,9.99999e-01,9.93172e-01,8.40354e-01,4.35536e-01,9.99997e-01
9.018370173e-01,4.05107e-01,9.99999e-01,9.99247e-01,9.15638e-01,4.42745e-01,9.99997e-01
9.063462024e-01,4.08193e-01,9.99999e-01,9.80431e-01,9.24225e-01,4.49928e-01,9.99996e-01
9.108779334e-01,3.87158e-01,9.99999e-01,9.56199e-01,8.84874e-01,4.57083e-01,9.99996e-01
9.154323231e-01,3.99990e-01,9.99999e-01,9.89636e-01,8.70313e-01,4.64206e-01,9.99996e-01
9.200094847e-01,3.69499e-01,9.99999e-01,8.64813e-01,8.97264e-01,4.71296e-01,9.99995e-01
9.246095321e-01,3.26669e-01,9.99999e-01,8.03490e-01,8.43994e-01,4.78352e-01,9.99991e-01
9.292325798e-01,1.41349e-01,9.99999e-01,8.42478e-01,3.35583e-01,4.85370e-01,9.99982e-01
9.338787427e-01,1.06599e-01,9.99999e-01,8.47644e-01,2.48554e-01,4.92350e-01,9.99978e-01
9.385481364e-01,2.54369e-01,9.99999e-01,8.85133e-01,5.68583e-01,4.99289e-01,9.99977e-01
9.432408771e-01,2.18150e-01,9.99999e-01,9.27998e-01,4.61134e-01,5.06186e-01,9.99975e-01
9.479570815e-01,1.71747e-01,9.99999e-01,9.62304e-01,3.46649e-01,5.13040e-01,9.99978e-01
9.526968669e-01,2.27965e-01,9.99999e-01,9.81688e-01,4.45529e-01,5.19848e-01,9.99983e-01
9.574603512e-01,2.43883e-01,9.99999e-01,9.92131e-01,4.66347e-01,5.26609e-01,9.99987e-01
9.622476530e-01,2.84797e-01,9.99999e-01,9.97541e-01,5.35178e-01,5.33322e-01,9.99991e-01
9.670588912e-01,3.75480e-01,9.99999e-01,9.99264e-01,6.95817e-01,5.39986e-01,9.99994e-01
9.718941857e-01,4.34334e-01,9.99999e-01,9.99948e-01,7.94650e-01,5.46598e-01,9.99996e-01
9.767536566e-01,4.56978e-01,9.99999e-01,9.99999e-01,8.26126e-01,5.53159e-01,9.99997e-01
9.816374249e-01,4.85793e-01,9.99999e-01,9.99999e-01,8.68005e-01,5.59667e-01,9.99998e-01
9.865456120e-01,5.18153e-01,9.99999e-01,9.99999e-01,9.15270e-01,5.66120e-01,9.99998e-01
9.914783401e-01,5.41988e-01,9.99999e-01,9.99999e-01,9.46673e-01,5.72518e-01,9.99999e-01
9.964357318e-01,5.61844e-01,9.99999e-01,9.99999e-01,9.70604e-01,5.78860e-01,9.99999e-01
1.001417910e+00,5.74777e-01,9.99999e-01,9.99999e-01,9.82281e-01,5.85144e-01,9.99999e-01
1.006425000e+00,5.85365e-01,9.99999e-01,9.99999e-01,9.89842e-01,5.91371e-01,9.99999e-01
1.011457125e+00,5.93774e-01,9.99999e-01,9.99999e-01,9.93698e-01,5.97539e-01,9.99999e-01
1.016514411e+00,6.01060e-01,9.99999e-01,9.99999e-01,9.95712e-01,6.03648e-01,9.99999e-01
1.021596983e+00,6.07541e-01,9.99999e-01,9.99882e-01,9.96580e-01,6.09697e-01,9.99999e-01
1.026704968e+00,6.09288e-01,9.99999e-01,9.92250e-01,9.97331e-01,6.15685e-01,9.99999e-01
1.031838492e+00,5.73931e-01,9.99999e-01,9.25003e-01,9.98063e-01,6.21612e-01,9.99999e-01
1.036997685e+00,4.88064e-02,9.99999e-01,7.78505e-02,9.98846e-01,6.27477e-01,9.99999e-01
1.042182673e+00,1.19339e-02,9.99999e-01,1.88659e-02,9.98621e-01,6.33280e-01,9.99999e-01
1.047393587e+00,2.19945e-02,9.99999e-01,3.44727e-02,9.98174e-01,6.39020e-01,9.99999e-01
1.052630555e+00,3.62500e-05,9.99999e-01,5.63217e-05,9.97493e-01,6.44698e-01,9.99999e-01
1.057893707e+00,1.29326e-04,9.99999e-01,1.99347e-04,9.95812e-01,6.50312e-01,9.99999e-01
1.063183176e+00,1.13988e-03,9.99999e-01,1.74552e-03,9.93123e-01,6.55863e-01,9.99999e-01
1.068499092e+00,6.34684e-03,9.99999e-01,9.67932e-03,9.88525e-01,6.61350e-01,9.99999e-01
1.073841587e+00,3.44530e-02,9.99999e-01,5.22173e-02,9.86566e-01,6.66774e-01,9.99999e-01
1.079210795e+00,1.02592e-01,9.99999e-01,1.54875e-01,9.82861e-01,6.72133e-01,9.99999e-01
1.084606849e+00,2.33255e-01,9.99999e-01,3.52684e-01,9.74136e-01,6.77428e-01,9.99998e-01
1.090029883e+00,3.82224e-01,9.99999e-01,5.80302e-01,9.62892e-01,6.82660e-01,9.99998e-01
1.095480033e+00,4.75589e-01,9.99999e-01,7.64641e-01,9.02282e-01,6.87827e-01,9.99997e-01
1.100957433e+00,4.70571e-01,9.99999e-01,8.78377e-01,7.71053e-01,6.92930e-01,9.99995e-01
1.106462220e+00,3.46864e-01,9.99999e-01,9.47814e-01,5.22431e-01,6.97969e-01,9.99989e-01
1.111994531e+00,1.81068e-01,9.99999e-01,9.80317e-01,2.62090e-01,7.02944e-01,9.99980e-01
1.117554504e+00,8.41606e-02,9.99999e-01,9.95181e-01,1.19296e-01,7.07855e-01,9.99972e-01
1.123142276e+00,1.60371e-01,9.99999e-01,9.99684e-01,2.25043e-01,7.12703e-01,9.99967e-01
1.128757988e+00,2.63021e-01,9.99999e-01,9.99999e-01,3.66599e-01,7.17487e-01,9.99964e-01
1.134401778e+00,1.26003e-01,9.99999e-01,9.99999e-01,1.74476e-01,7.22207e-01,9.99959e-01
1.140073787e+00,3.92595e-01,9.99999e-01,9.99999e-01,5.40138e-01,7.26865e-01,9.99967e-01
1.145774156e+00,2.12137e-01,9.99999e-01,9.99999e-01,2.90026e-01,7.31459e-01,9.99972e-01
1.151503026e+00,1.87393e-01,9.99999e-01,9.99999e-01,2.54619e-01,7.35991e-01,9.99976e-01
1.157260541e+00,2.25473e-01,9.99999e-01,9.99999e-01,3.04509e-01,7.40461e-01,9.99981e-01
1.163046844e+00,3.08061e-01,9.99999e-01,9.99999e-01,4.13582e-01,7.44869e-01,9.99988e-01
1.168862078e+00,4.01827e-01,9.99999e-01,9.99999e-01,5.36333e-01,7.49215e-01,9.99993e-01
1.174706389e+00,5.12668e-01,9.99999e-01,9.99999e-01,6.80383e-01,7.53500e-01,9.99996e-01
1.180579921e+00,5.98989e-01,9.99999e-01,9.99999e-01,7.90510e-01,7.57725e-01,9.99997e-01
1.186482820e+00,6.66750e-01,9.99999e-01,9.99982e-01,8.75142e-01,7.61888e-01,9.99997e-01
1.192415234e+00,6.89783e-01,9.99999e-01,9.72950e-01,9.24978e-01,7.65992e-01,9.99998e-01
1.198377311e+00,3.91734e-01,9.99999e-01,5.37394e-01,9.36309e-01,7.70036e-01,9.99998e-01
1.204369197e+00,1.59920e-20,9.99999e-01,2.14176e-20,9.39752e-01,7.74021e-01,9.99998e-01
1.210391043e+00,1.05738e-80,9.99999e-01,1.40489e-80,9.42272e-01,7.77947e-01,9.99998e-01
1.216442998e+00,6.10920e-70,9.99999e-01,8.06282e-70,9.50764e-01,7.81815e-01,9.99999e-01
1.222525213e+00,6.74776e-69,9.99999e-01,8.76514e-69,9.61402e-01,7.85626e-01,9.99999e-01
1.228637839e+00,2.85090e-53,9.99999e-01,3.67913e-53,9.73020e-01,7.89379e-01,9.99999e-01
