#,Wave/freq,Total,O2,CO2,H2O,Rayleigh,CIA
4.000000000e-01,6.70404e-06,9.99999e-01,9.99999e-01,9.99976e-01,6.70420e-06,9.99999e-01
4.020000000e-01,8.48471e-06,9.99999e-01,9.99999e-01,9.99985e-01,8.48484e-06,9.99999e-01
4.040100000e-01,1.06859e-05,9.99999e-01,9.99999e-01,9.99993e-01,1.06860e-05,9.99999e-01
4.060300500e-01,1.33970e-05,9.99999e-01,9.99999e-01,9.99998e-01,1.33970e-05,9.99999e-01
4.080602003e-01,1.67210e-05,9.99999e-01,9.99999e-01,9.99999e-01,1.67210e-05,9.99999e-01
4.101005013e-01,2.07785e-05,9.99999e-01,9.99999e-01,9.99999e-01,2.07785e-05,9.99999e-01
4.121510038e-01,2.57101e-05,9.99999e-01,9.99999e-01,9.99998e-01,2.57101e-05,9.99999e-01
4.142117588e-01,3.16783e-05,9.99999e-01,9.99999e-01,9.99993e-01,3.16785e-05,9.99999e-01
4.162828176e-01,3.88708e-05,9.99999e-01,9.99999e-01,9.99970e-01,3.88719e-05,9.99999e-01
4.183642317e-01,4.75055e-05,9.99999e-01,9.99999e-01,9.99982e-01,4.75064e-05,9.99999e-01
4.204560528e-01,5.78285e-05,9.99999e-01,9.99999e-01,9.99989e-01,5.78291e-05,9.99999e-01
4.225583331e-01,7.01218e-05,9.99999e-01,9.99999e-01,9.99995e-01,7.01221e-05,9.99999e-01
4.246711247e-01,8.47048e-05,9.99999e-01,9.99999e-01,9.99996e-01,8.47051e-05,9.99999e-01
4.267944804e-01,1.01939e-04,9.99999e-01,9.99999e-01,9.99994e-01,1.01940e-04,9.99999e-01
4.289284528e-01,1.22233e-04,9.99999e-01,9.99999e-01,9.99995e-01,1.22233e-04,9.99999e-01
4.310730950e-01,1.46041e-04,9.99999e-01,9.99999e-01,9.99997e-01,1.46041e-04,9.99999e-01
4.332284605e-01,1.73875e-04,9.99999e-01,9.99999e-01,9.99999e-01,1.73875e-04,9.99999e-01
4.353946028e-01,2.06301e-04,9.99999e-01,9.99999e-01,9.99999e-01,2.06301e-04,9.99999e-01
4.375715758e-01,2.43949e-04,9.99999e-01,9.99999e-01,9.99996e-01,2.43949e-04,9.99999e-01
4.397594337e-01,2.87507e-04,9.99999e-01,9.99999e-01,9.99974e-01,2.87514e-04,9.99999e-01
4.419582309e-01,3.37717e-04,9.99999e-01,9.99999e-01,9.99869e-01,3.37761e-04,9.99999e-01
4.441680220e-01,3.95489e-04,9.99999e-01,9.99999e-01,9.99899e-01,3.95529e-04,9.99999e-01
4.463888621e-01,4.61686e-04,9.99999e-01,9.99999e-01,9.99894e-01,4.61734e-04,9.99999e-01
4.486208064e-01,5.37342e-04,9.99999e-01,9.99999e-01,9.99934e-01,5.37377e-04,9.99999e-01
4.508639105e-01,6.23520e-04,9.99999e-01,9.99999e-01,9.99969e-01,6.23539e-04,9.99999e-01
4.531182300e-01,7.21387e-04,9.99999e-01,9.99999e-01,9.99987e-01,7.21395e-04,9.99999e-01
4.553838212e-01,8.32202e-04,9.99999e-01,9.99999e-01,9.99991e-01,8.32208e-04,9.99999e-01
4.576607403e-01,9.57334e-04,9.99999e-01,9.99999e-01,9.99995e-01,9.57338e-04,9.99999e-01
4.599490440e-01,1.09824e-03,9.99999e-01,9.99999e-01,9.99996e-01,1.09824e-03,9.99999e-01
4.622487892e-01,1.25646e-03,9.99999e-01,9.99999e-01,9.99999e-01,1.25646e-03,9.99999e-01
4.645600332e-01,1.43367e-03,9.99999e-01,9.99999e-01,9.99997e-01,1.43367e-03,9.99999e-01
4.668828333e-01,1.63156e-03,9.99999e-01,9.99999e-01,9.99968e-01,1.63161e-03,9.99999e-01
4.692172475e-01,1.85202e-03,9.99999e-01,9.99999e-01,9.99933e-01,1.85214e-03,9.99999e-01
4.715633337e-01,2.09713e-03,9.99999e-01,9.99999e-01,9.99956e-01,2.09722e-03,9.99999e-01
4.739211504e-01,2.36881e-03,9.99999e-01,9.99999e-01,9.99958e-01,2.36891e-03,9.99999e-01
4.762907561e-01,2.66931e-03,9.99999e-01,9.99999e-01,9.99978e-01,2.66936e-03,9.99999e-01
4.786722099e-01,3.00081e-03,9.99999e-01,9.99999e-01,9.99990e-01,3.00084e-03,9.99999e-01
4.810655710e-01,3.36567e-03,9.99999e-01,9.99999e-01,9.99996e-01,3.36568e-03,9.99999e-01
4.834708988e-01,3.76624e-03,9.99999e-01,9.99999e-01,9.99974e-01,3.76634e-03,9.99999e-01
4.858882533e-01,4.20514e-03,9.99999e-01,9.99999e-01,9.99953e-01,4.20534e-03,9.99999e-01
4.883176946e-01,4.68511e-03,9.99999e-01,9.99999e-01,9.99960e-01,4.68529e-03,9.99999e-01
4.907592831e-01,5.20871e-03,9.99999e-01,9.99999e-01,9.99964e-01,5.20889e-03,9.99999e-01
4.932130795e-01,5.77876e-03,9.99999e-01,9.99999e-01,9.99974e-01,5.77890e-03,9.99999e-01
4.956791449e-01,6.39807e-03,9.99999e-01,9.99999e-01,9.99986e-01,6.39815e-03,9.99999e-01
4.981575406e-01,7.06906e-03,9.99999e-01,9.99999e-01,9.99933e-01,7.06953e-03,9.99999e-01
5.006483283e-01,7.79463e-03,9.99999e-01,9.99999e-01,9.99827e-01,7.79597e-03,9.99999e-01
5.031515699e-01,8.57302e-03,9.99999e-01,9.99999e-01,9.99131e-01,8.58047e-03,9.99999e-01
5.056673278e-01,9.42173e-03,9.99999e-01,9.99999e-01,9.99542e-01,9.42604e-03,9.99999e-01
5.081956644e-01,1.03298e-02,9.99999e-01,9.99999e-01,9.99422e-01,1.03357e-02,9.99999e-01
5.107366428e-01,1.13082e-02,9.99999e-01,9.99999e-01,9.99610e-01,1.13126e-02,9.99999e-01
5.132903260e-01,1.23570e-02,9.99999e-01,9.99999e-01,9.99777e-01,1.23598e-02,9.99999e-01
5.158567776e-01,1.34790e-02,9.99999e-01,9.99999e-01,9.99905e-01,1.34802e-02,9.99999e-01
5.184360615e-01,1.46766e-02,9.99999e-01,9.99999e-01,9.99961e-01,1.46771e-02,9.99999e-01
5.210282418e-01,1.59532e-02,9.99999e-01,9.99999e-01,9.99985e-01,1.59534e-02,9.99999e-01
5.236333830e-01,1.73112e-02,9.99999e-01,9.99999e-01,9.99943e-01,1.73122e-02,9.99999e-01
5.262515499e-01,1.87557e-02,9.99999e-01,9.99999e-01,9.99964e-01,1.87564e-02,9.99999e-01
5.288828077e-01,2.02882e-02,9.99999e-01,9.99999e-01,9.99967e-01,2.02889e-02,9.99999e-01
5.315272217e-01,2.19120e-02,9.99999e-01,9.99999e-01,9.99971e-01,2.19126e-02,9.99999e-01
5.341848578e-01,2.36299e-02,9.99999e-01,9.99999e-01,9.99980e-01,2.36303e-02,9.99999e-01
5.368557821e-01,2.54430e-02,9.99999e-01,9.99999e-01,9.99933e-01,2.54447e-02,9.99999e-01
5.395400610e-01,2.73519e-02,9.99999e-01,9.99999e-01,9.99760e-01,2.73584e-02,9.99999e-01
5.422377613e-01,2.93650e-02,9.99999e-01,9.99999e-01,9.99693e-01,2.93740e-02,9.99999e-01
5.449489501e-01,3.14847e-02,9.99999e-01,9.99999e-01,9.99713e-01,3.14937e-02,9.99999e-01
5.476736949e-01,3.37115e-02,9.99999e-01,9.99999e-01,9.99747e-01,3.37200e-02,9.99999e-01
5.504120634e-01,3.60484e-02,9.99999e-01,9.99999e-01,9.99816e-01,3.60550e-02,9.99999e-01
5.531641237e-01,3.84972e-02,9.99999e-01,9.99999e-01,9.99907e-01,3.85007e-02,9.99999e-01
5.559299443e-01,4.10573e-02,9.99999e-01,9.99999e-01,9.99955e-01,4.10591e-02,9.99999e-01
5.587095940e-01,4.37307e-02,9.99999e-01,9.99999e-01,9.99971e-01,4.37319e-02,9.99999e-01
5.615031420e-01,4.65192e-02,9.99999e-01,9.99999e-01,9.99968e-01,4.65207e-02,9.99999e-01
5.643106577e-01,4.94251e-02,9.99999e-01,9.99999e-01,9.99964e-01,4.94269e-02,9.99999e-01
5.671322110e-01,5.24291e-02,9.99999e-01,9.99999e-01,9.99567e-01,5.24518e-02,9.99999e-01
5.699678720e-01,5.55714e-02,9.99999e-01,9.99999e-01,9.99545e-01,5.55966e-02,9.99999e-01
5.728177114e-01,5.88343e-02,9.99999e-01,9.99999e-01,9.99524e-01,5.88622e-02,9.99999e-01
5.756818000e-01,6.22223e-02,9.99999e-01,9.99999e-01,9.99563e-01,6.22495e-02,9.99999e-01
5.785602090e-01,6.57339e-02,9.99999e-01,9.99999e-01,9.99620e-01,6.57589e-02,9.99999e-01
5.814530100e-01,6.93645e-02,9.99999e-01,9.99999e-01,9.99618e-01,6.93909e-02,9.99999e-01
5.843602750e-01,7.31125e-02,9.99999e-01,9.99999e-01,9.99543e-01,7.31459e-02,9.99999e-01
5.872820764e-01,7.67212e-02,9.99999e-01,9.99999e-01,9.96071e-01,7.70238e-02,9.99999e-01
5.902184868e-01,8.06405e-02,9.99999e-01,9.99999e-01,9.95259e-01,8.10246e-02,9.99999e-01
5.931695792e-01,8.48624e-02,9.99999e-01,9.99999e-01,9.96645e-01,8.51480e-02,9.99999e-01
5.961354271e-01,8.90651e-02,9.99999e-01,9.99999e-01,9.96326e-01,8.93935e-02,9.99999e-01
5.991161043e-01,9.35095e-02,9.99999e-01,9.99999e-01,9.97321e-01,9.37606e-02,9.99999e-01
6.021116848e-01,9.80991e-02,9.99999e-01,9.99999e-01,9.98479e-01,9.82484e-02,9.99999e-01
6.051222432e-01,1.02777e-01,9.99999e-01,9.99999e-01,9.99230e-01,1.02856e-01,9.99999e-01
6.081478544e-01,1.07547e-01,9.99999e-01,9.99999e-01,9.99667e-01,1.07582e-01,9.99999e-01
6.111885937e-01,1.12410e-01,9.99999e-01,9.99999e-01,9.99859e-01,1.12426e-01,9.99999e-01
6.142445367e-01,1.17378e-01,9.99999e-01,9.99999e-01,9.99936e-01,1.17385e-01,9.99999e-01
6.173157594e-01,1.22455e-01,9.99999e-01,9.99999e-01,9.99964e-01,1.22459e-01,9.99999e-01
6.204023382e-01,1.27642e-01,9.99999e-01,9.99999e-01,9.99970e-01,1.27646e-01,9.99999e-01
6.235043498e-01,1.32925e-01,9.99999e-01,9.99999e-01,9.99869e-01,1.32943e-01,9.99999e-01
6.266218716e-01,1.38254e-01,9.99999e-01,9.99999e-01,9.99316e-01,1.38348e-01,9.99999e-01
6.297549810e-01,1.43825e-01,9.99999e-01,9.99999e-01,9.99748e-01,1.43861e-01,9.99999e-01
6.329037559e-01,1.49403e-01,9.99999e-01,9.99999e-01,9.99504e-01,1.49477e-01,9.99999e-01
6.360682746e-01,1.55130e-01,9.99999e-01,9.99999e-01,9.99577e-01,1.55195e-01,9.99999e-01
6.392486160e-01,1.60925e-01,9.99999e-01,9.99999e-01,9.99453e-01,1.61013e-01,9.99999e-01
6.424448591e-01,1.66805e-01,9.99999e-01,9.99999e-01,9.99265e-01,1.66927e-01,9.99999e-01
6.456570834e-01,1.72347e-01,9.99999e-01,9.99999e-01,9.96594e-01,1.72936e-01,9.99999e-01
6.488853688e-01,1.78591e-01,9.99999e-01,9.99999e-01,9.97517e-01,1.79035e-01,9.99999e-01
6.521297956e-01,1.84754e-01,9.99999e-01,9.99999e-01,9.97469e-01,1.85223e-01,9.99999e-01
6.553904446e-01,1.91013e-01,9.99999e-01,9.99999e-01,9.97476e-01,1.91496e-01,9.99999e-01
6.586673968e-01,1.97424e-01,9.99999e-01,9.99999e-01,9.97842e-01,1.97851e-01,9.99999e-01
6.619607338e-01,2.04040e-01,9.99999e-01,9.99999e-01,9.98797e-01,2.04285e-01,9.99999e-01
6.652705375e-01,2.10644e-01,9.99999e-01,9.99999e-01,9.99277e-01,2.10796e-01,9.99999e-01
6.685968902e-01,2.17312e-01,9.99999e-01,9.99999e-01,9.99692e-01,2.17379e-01,9.99999e-01
6.719398746e-01,2.23997e-01,9.99999e-01,9.99999e-01,9.99844e-01,2.24031e-01,9.99999e-01
6.752995740e-01,2.30731e-01,9.99999e-01,9.99999e-01,9.99915e-01,2.30750e-01,9.99999e-01
6.786760719e-01,2.37503e-01,9.99999e-01,9.99999e-01,9.99877e-01,2.37532e-01,9.99999e-01
6.820694522e-01,2.44322e-01,9.99999e-01,9.99999e-01,9.99791e-01,2.44373e-01,9.99999e-01
6.854797995e-01,2.51202e-01,9.99999e-01,9.99999e-01,9.99730e-01,2.51270e-01,9.99999e-01
6.889071985e-01,2.58050e-01,9.99999e-01,9.99999e-01,9.99344e-01,2.58219e-01,9.99999e-01
6.923517345e-01,2.62401e-01,9.99999e-01,9.99999e-01,9.89379e-01,2.65218e-01,9.99999e-01
6.958134932e-01,2.70769e-01,9.99999e-01,9.99999e-01,9.94513e-01,2.72263e-01,9.99999e-01
6.992925606e-01,2.77882e-01,9.99999e-01,9.99999e-01,9.94742e-01,2.79350e-01,9.99999e-01
7.027890234e-01,2.84624e-01,9.99999e-01,9.99999e-01,9.93532e-01,2.86476e-01,9.99999e-01
7.063029686e-01,2.92041e-01,9.99999e-01,9.99999e-01,9.94558e-01,2.93638e-01,9.99999e-01
7.098344834e-01,2.99262e-01,9.99999e-01,9.99999e-01,9.94779e-01,3.00832e-01,9.99999e-01
7.133836558e-01,3.05902e-01,9.99999e-01,9.99999e-01,9.93009e-01,3.08056e-01,9.99999e-01
7.169505741e-01,2.98025e-01,9.99999e-01,9.99999e-01,9.45196e-01,3.15304e-01,9.99998e-01
7.205353270e-01,3.13870e-01,9.99999e-01,9.99999e-01,9.73012e-01,3.22575e-01,9.99998e-01
7.241380036e-01,3.18526e-01,9.99999e-01,9.99999e-01,9.65624e-01,3.29866e-01,9.99998e-01
7.277586936e-01,3.26699e-01,9.99999e-01,9.99999e-01,9.68940e-01,3.37172e-01,9.99998e-01
7.313974871e-01,3.33155e-01,9.99999e-01,9.99999e-01,9.67094e-01,3.44490e-01,9.99999e-01
7.350544745e-01,3.45445e-01,9.99999e-01,9.99999e-01,9.81884e-01,3.51819e-01,9.99999e-01
7.387297469e-01,3.54357e-01,9.99999e-01,9.99999e-01,9.86645e-01,3.59154e-01,9.99999e-01
7.424233956e-01,3.64093e-01,9.99999e-01,9.99999e-01,9.93452e-01,3.66492e-01,9.99999e-01
7.461355126e-01,3.72345e-01,9.99999e-01,9.99999e-01,9.96025e-01,3.73831e-01,9.99999e-01
7.498661902e-01,3.80463e-01,9.99999e-01,9.99999e-01,9.98150e-01,3.81168e-01,9.99999e-01
7.536155211e-01,3.88146e-01,9.99999e-01,9.99999e-01,9.99091e-01,3.88499e-01,9.99999e-01
7.573835987e-01,3.95638e-01,9.99999e-01,9.99999e-01,9.99531e-01,3.95823e-01,9.99999e-01
7.611705167e-01,4.03018e-01,9.99999e-01,9.99999e-01,9.99708e-01,4.03135e-01,9.99999e-01
7.649763693e-01,4.10360e-01,9.99999e-01,9.99999e-01,9.99817e-01,4.10435e-01,9.99999e-01
7.688012511e-01,4.17665e-01,9.99999e-01,9.99999e-01,9.99872e-01,4.17718e-01,9.99999e-01
7.726452574e-01,4.24939e-01,9.99999e-01,9.99999e-01,9.99895e-01,4.24984e-01,9.99999e-01
7.765084837e-01,4.32163e-01,9.99999e-01,9.99999e-01,9.99850e-01,4.32228e-01,9.99999e-01
7.803910261e-01,4.22135e-01,9.99999e-01,9.61196e-01,9.99355e-01,4.39449e-01,9.99999e-01
7.842929812e-01,3.75056e-01,9.99999e-01,8.41508e-01,9.97751e-01,4.46644e-01,9.99999e-01
7.882144461e-01,3.75446e-01,9.99999e-01,8.30976e-01,9.95388e-01,4.53812e-01,9.99999e-01
7.921555184e-01,4.12554e-01,9.99999e-01,8.97214e-01,9.97474e-01,4.60950e-01,9.99999e-01
7.961162960e-01,4.33427e-01,9.99999e-01,9.30141e-01,9.95518e-01,4.68055e-01,9.99999e-01
8.000968774e-01,4.54470e-01,9.99999e-01,9.61470e-01,9.94837e-01,4.75127e-01,9.99999e-01
8.040973618e-01,4.70031e-01,9.99999e-01,9.79890e-01,9.94833e-01,4.82162e-01,9.99999e-01
8.081178486e-01,4.78976e-01,9.99999e-01,9.90701e-01,9.88352e-01,4.89160e-01,9.99999e-01
8.121584379e-01,4.71131e-01,9.99999e-01,9.97131e-01,9.52335e-01,4.96118e-01,9.99998e-01
8.162192301e-01,4.74512e-01,9.99999e-01,9.99365e-01,9.43885e-01,5.03035e-01,9.99998e-01
8.203003262e-01,4.95347e-01,9.99999e-01,9.99990e-01,9.71450e-01,5.09908e-01,9.99998e-01
8.244018279e-01,4.96440e-01,9.99999e-01,9.99999e-01,9.60719e-01,5.16737e-01,9.99998e-01
8.285238370e-01,5.05748e-01,9.99999e-01,9.99999e-01,9.66053e-01,5.23520e-01,9.99998e-01
8.326664562e-01,5.12092e-01,9.99999e-01,9.99999e-01,9.65745e-01,5.30256e-01,9.99999e-01
8.368297885e-01,5.23754e-01,9.99999e-01,9.99999e-01,9.75438e-01,5.36942e-01,9.99999e-01
8.410139374e-01,5.35610e-01,9.99999e-01,9.99999e-01,9.85341e-01,5.43578e-01,9.99999e-01
8.452190071e-01,5.46197e-01,9.99999e-01,9.99999e-01,9.92791e-01,5.50163e-01,9.99999e-01
8.494451021e-01,5.54361e-01,9.99999e-01,9.99999e-01,9.95806e-01,5.56695e-01,9.99999e-01
8.536923276e-01,5.61778e-01,9.99999e-01,9.99999e-01,9.97522e-01,5.63173e-01,9.99999e-01
8.579607893e-01,5.68726e-01,9.99999e-01,9.99999e-01,9.98471e-01,5.69596e-01,9.99999e-01
8.622505932e-01,5.75406e-01,9.99999e-01,9.99999e-01,9.99029e-01,5.75964e-01,9.99999e-01
8.665618462e-01,5.34177e-01,9.99999e-01,9.17924e-01,9.99398e-01,5.82275e-01,9.99999e-01
8.708946554e-01,3.79563e-01,9.99999e-01,6.45362e-01,9.99311e-01,5.88528e-01,9.99999e-01
8.752491287e-01,4.17356e-01,9.99999e-01,7.02389e-01,9.99078e-01,5.94724e-01,9.99999e-01
8.796253743e-01,4.94074e-01,9.99999e-01,8.23295e-01,9.98722e-01,6.00860e-01,9.99999e-01
8.840235012e-01,5.47856e-01,9.99999e-01,9.03954e-01,9.98541e-01,6.06936e-01,9.99999e-01
8.884436187e-01,5.85951e-01,9.99999e-01,9.61036e-01,9.94648e-01,6.12952e-01,9.99999e-01
8.928858368e-01,5.75759e-01,9.99999e-01,9.84019e-01,9.45240e-01,6.18907e-01,9.99998e-01
8.973502660e-01,5.63611e-01,9.99999e-01,9.96106e-01,9.05510e-01,6.24800e-01,9.99998e-01
9.018370173e-01,5.99322e-01,9.99999e-01,9.99570e-01,9.50746e-01,6.30631e-01,9.99998e-01
9.063462024e-01,6.02031e-01,9.99999e-01,9.88880e-01,9.56252e-01,6.36400e-01,9.99997e-01
9.108779334e-01,5.84084e-01,9.99999e-01,9.74880e-01,9.32744e-01,6.42107e-01,9.99997e-01
9.154323231e-01,5.95066e-01,9.99999e-01,9.94074e-01,9.24010e-01,6.47750e-01,9.99997e-01
9.200094847e-01,5.65265e-01,9.99999e-01,9.17030e-01,9.40045e-01,6.53330e-01,9.99996e-01
9.246095321e-01,5.29088e-01,9.99999e-01,8.82905e-01,9.07257e-01,6.58847e-01,9.99995e-01
9.292325798e-01,3.20029e-01,9.99999e-01,9.06731e-01,5.25215e-01,6.64299e-01,9.99990e-01
9.338787427e-01,2.69686e-01,9.99999e-01,9.09999e-01,4.37700e-01,6.69688e-01,9.99987e-01
9.385481364e-01,4.53172e-01,9.99999e-01,9.32989e-01,7.16355e-01,6.75013e-01,9.99987e-01
9.432408771e-01,4.11295e-01,9.99999e-01,9.58464e-01,6.29156e-01,6.80273e-01,9.99985e-01
9.479570815e-01,3.55445e-01,9.99999e-01,9.78450e-01,5.29262e-01,6.85470e-01,9.99987e-01
9.526968669e-01,4.23868e-01,9.99999e-01,9.89563e-01,6.19609e-01,6.90602e-01,9.99990e-01
9.574603512e-01,4.44516e-01,9.99999e-01,9.95525e-01,6.41633e-01,6.95671e-01,9.99992e-01
9.622476530e-01,4.87492e-01,9.99999e-01,9.98603e-01,6.96656e-01,7.00675e-01,9.99995e-01
9.670588912e-01,5.72487e-01,9.99999e-01,9.99581e-01,8.11652e-01,7.05615e-01,9.99996e-01
9.718941857e-01,6.23341e-01,9.99999e-01,9.99970e-01,8.77361e-01,7.10492e-01,9.99997e-01
9.767536566e-01,6.41670e-01,9.99999e-01,9.99999e-01,8.97059e-01,7.15305e-01,9.99998e-01
9.816374249e-01,6.64401e-01,9.99999e-01,9.99999e-01,9.22709e-01,7.20054e-01,9.99998e-01
9.865456120e-01,6.89220e-01,9.99999e-01,9.99999e-01,9.50987e-01,7.24741e-01,9.99999e-01
9.914783401e-01,7.07052e-01,9.99999e-01,9.99999e-01,9.69408e-01,7.29364e-01,9.99999e-01
9.964357318e-01,7.21615e-01,9.99999e-01,9.99999e-01,9.83227e-01,7.33925e-01,9.99999e-01
1.001417910e+00,7.30978e-01,9.99999e-01,9.99999e-01,9.89916e-01,7.38423e-01,9.99999e-01
1.006425000e+00,7.38578e-01,9.99999e-01,9.99999e-01,9.94235e-01,7.42859e-01,9.99999e-01
1.011457125e+00,7.44561e-01,9.99999e-01,9.99999e-01,9.96422e-01,7.47234e-01,9.99999e-01
1.016514411e+00,7.49720e-01,9.99999e-01,9.99999e-01,9.97568e-01,7.51547e-01,9.99999e-01
1.021596983e+00,7.54287e-01,9.99999e-01,9.99936e-01,9.98061e-01,7.55799e-01,9.99999e-01
1.026704968e+00,7.55536e-01,9.99999e-01,9.95640e-01,9.98487e-01,7.59990e-01,9.99999e-01
1.031838492e+00,7.24959e-01,9.99999e-01,9.49754e-01,9.98901e-01,7.64121e-01,9.99999e-01
1.036997685e+00,1.02508e-01,9.99999e-01,1.33509e-01,9.99346e-01,7.68193e-01,9.99999e-01
1.042182673e+00,6.95986e-02,9.99999e-01,9.01911e-02,9.99220e-01,7.72205e-01,9.99999e-01
1.047393587e+00,8.81253e-02,9.99999e-01,1.13643e-01,9.98966e-01,7.76158e-01,9.99999e-01
1.052630555e+00,1.57347e-03,9.99999e-01,2.01919e-03,9.98581e-01,7.80052e-01,9.99999e-01
1.057893707e+00,4.33050e-03,9.99999e-01,5.53295e-03,9.97631e-01,7.83889e-01,9.99999e-01
1.063183176e+00,1.67690e-02,9.99999e-01,2.13474e-02,9.96106e-01,7.87668e-01,9.99999e-01
1.068499092e+00,5.27898e-02,9.99999e-01,6.70645e-02,9.93491e-01,7.91390e-01,9.99999e-01
1.073841587e+00,1.43164e-01,9.99999e-01,1.81226e-01,9.92379e-01,7.95056e-01,9.99999e-01
1.079210795e+00,2.68339e-01,9.99999e-01,3.38957e-01,9.90257e-01,7.98666e-01,9.99999e-01
1.084606849e+00,4.35557e-01,9.99999e-01,5.50628e-01,9.85276e-01,8.02220e-01,9.99999e-01
1.090029883e+00,5.78745e-01,9.99999e-01,7.33315e-01,9.78862e-01,8.05720e-01,9.99998e-01
1.095480033e+00,6.55743e-01,9.99999e-01,8.58319e-01,9.43488e-01,8.09165e-01,9.99998e-01
1.100957433e+00,6.51774e-01,9.99999e-01,9.29001e-01,8.62673e-01,8.12557e-01,9.99996e-01
1.106462220e+00,5.45135e-01,9.99999e-01,9.70022e-01,6.87936e-01,8.15895e-01,9.99994e-01
1.111994531e+00,3.71253e-01,9.99999e-01,9.88781e-01,4.57929e-01,8.19181e-01,9.99988e-01
1.117554504e+00,2.33610e-01,9.99999e-01,9.97256e-01,2.84677e-01,8.22414e-01,9.99983e-01
1.123142276e+00,3.32562e-01,9.99999e-01,9.99819e-01,4.02853e-01,8.25596e-01,9.99981e-01
1.128757988e+00,4.58788e-01,9.99999e-01,9.99999e-01,5.53616e-01,8.28728e-01,9.99979e-01
1.134401778e+00,2.50435e-01,9.99999e-01,9.99999e-01,3.01079e-01,8.31809e-01,9.99977e-01
1.140073787e+00,5.84708e-01,9.99999e-01,9.99999e-01,7.00396e-01,8.34840e-01,9.99981e-01
1.145774156e+00,4.01994e-01,9.99999e-01,9.99999e-01,4.79816e-01,8.37822e-01,9.99984e-01
1.151503026e+00,3.71982e-01,9.99999e-01,9.99999e-01,4.42444e-01,8.40755e-01,9.99986e-01
1.157260541e+00,4.23525e-01,9.99999e-01,9.99999e-01,5.02025e-01,8.43641e-01,9.99989e-01
1.163046844e+00,5.08337e-01,9.99999e-01,9.99999e-01,6.00534e-01,8.46479e-01,9.99993e-01
1.168862078e+00,5.95040e-01,9.99999e-01,9.99999e-01,7.00650e-01,8.49270e-01,9.99996e-01
1.174706389e+00,6.84015e-01,9.99999e-01,9.99999e-01,8.02820e-01,8.52015e-01,9.99997e-01
1.180579921e+00,7.47676e-01,9.99999e-01,9.99999e-01,8.74767e-01,8.54715e-01,9.99998e-01
1.186482820e+00,7.94877e-01,9.99999e-01,9.99990e-01,9.27119e-01,8.57369e-01,9.99998e-01
1.192415234e+00,8.10249e-01,9.99999e-01,9.84532e-01,9.56782e-01,8.59979e-01,9.99998e-01
1.198377311e+00,4.65929e-01,9.99999e-01,5.57251e-01,9.63426e-01,8.62545e-01,9.99998e-01
1.204369197e+00,1.37184e-12,9.99999e-01,1.61842e-12,9.65378e-01,8.65068e-01,9.99998e-01
1.210391043e+00,1.21876e-46,9.99999e-01,1.43136e-46,9.66865e-01,8.67549e-01,9.99999e-01
1.216442998e+00,1.49662e-40,9.99999e-01,1.75105e-40,9.71768e-01,8.69987e-01,9.99999e-01
1.222525213e+00,5.82838e-40,9.99999e-01,6.75815e-40,9.77943e-01,8.72383e-01,9.99999e-01
1.228637839e+00,5.89245e-31,9.99999e-01,6.80847e-31,9.84630e-01,8.74739e-01,9.99999e-01
