#,Wave/freq,Total,O2,CO2,H2O,Rayleigh,CIA
4.000000000e-01,8.43045e-13,9.99999e-01,9.99999e-01,9.99945e-01,8.43090e-13,9.99999e-01
4.020000000e-01,1.46082e-12,9.99999e-01,9.99999e-01,9.99965e-01,1.46087e-12,9.99999e-01
4.040100000e-01,2.50255e-12,9.99999e-01,9.99999e-01,9.99985e-01,2.50258e-12,9.99999e-01
4.060300500e-01,4.24178e-12,9.99999e-01,9.99999e-01,9.99996e-01,4.24179e-12,9.99999e-01
4.080602003e-01,7.11513e-12,9.99999e-01,9.99999e-01,9.99998e-01,7.11514e-12,9.99999e-01
4.101005013e-01,1.18135e-11,9.99999e-01,9.99999e-01,9.99999e-01,1.18135e-11,9.99999e-01
4.121510038e-01,1.94190e-11,9.99999e-01,9.99999e-01,9.99997e-01,1.94190e-11,9.99999e-01
4.142117588e-01,3.16086e-11,9.99999e-01,9.99999e-01,9.99984e-01,3.16091e-11,9.99999e-01
4.162828176e-01,5.09551e-11,9.99999e-01,9.99999e-01,9.99932e-01,5.09585e-11,9.99999e-01
4.183642317e-01,8.13780e-11,9.99999e-01,9.99999e-01,9.99959e-01,8.13813e-11,9.99999e-01
4.204560528e-01,1.28767e-10,9.99999e-01,9.99999e-01,9.99975e-01,1.28771e-10,9.99999e-01
4.225583331e-01,2.01915e-10,9.99999e-01,9.99999e-01,9.99990e-01,2.01917e-10,9.99999e-01
4.246711247e-01,3.13809e-10,9.99999e-01,9.99999e-01,9.99992e-01,3.13812e-10,9.99999e-01
4.267944804e-01,4.83480e-10,9.99999e-01,9.99999e-01,9.99988e-01,4.83486e-10,9.99999e-01
4.289284528e-01,7.38561e-10,9.99999e-01,9.99999e-01,9.99991e-01,7.38567e-10,9.99999e-01
4.310730950e-01,1.11882e-09,9.99999e-01,9.99999e-01,9.99995e-01,1.11882e-09,9.99999e-01
4.332284605e-01,1.68101e-09,9.99999e-01,9.99999e-01,9.99998e-01,1.68101e-09,9.99999e-01
4.353946028e-01,2.50546e-09,9.99999e-01,9.99999e-01,9.99999e-01,2.50546e-09,9.99999e-01
4.375715758e-01,3.70491e-09,9.99999e-01,9.99999e-01,9.99992e-01,3.70494e-09,9.99999e-01
4.397594337e-01,5.43617e-09,9.99999e-01,9.99999e-01,9.99940e-01,5.43649e-09,9.99999e-01
4.419582309e-01,7.91471e-09,9.99999e-01,9.99999e-01,9.99696e-01,7.91711e-09,9.99999e-01
4.441680220e-01,1.14416e-08,9.99999e-01,9.99999e-01,9.99765e-01,1.14443e-08,9.99999e-01
4.463888621e-01,1.64190e-08,9.99999e-01,9.99999e-01,9.99755e-01,1.64230e-08,9.99999e-01
4.486208064e-01,2.33965e-08,9.99999e-01,9.99999e-01,9.99848e-01,2.34000e-08,9.99999e-01
4.508639105e-01,3.31065e-08,9.99999e-01,9.99999e-01,9.99928e-01,3.31088e-08,9.99999e-01
4.531182300e-01,4.65244e-08,9.99999e-01,9.99999e-01,9.99971e-01,4.65257e-08,9.99999e-01
4.553838212e-01,6.49406e-08,9.99999e-01,9.99999e-01,9.99980e-01,6.49418e-08,9.99999e-01
4.576607403e-01,9.00515e-08,9.99999e-01,9.99999e-01,9.99990e-01,9.00523e-08,9.99999e-01
4.599490440e-01,1.24068e-07,9.99999e-01,9.99999e-01,9.99993e-01,1.24068e-07,9.99999e-01
4.622487892e-01,1.69855e-07,9.99999e-01,9.99999e-01,9.99998e-01,1.69855e-07,9.99999e-01
4.645600332e-01,2.31100e-07,9.99999e-01,9.99999e-01,9.99995e-01,2.31101e-07,9.99999e-01
4.668828333e-01,3.12501e-07,9.99999e-01,9.99999e-01,9.99927e-01,3.12523e-07,9.99999e-01
4.692172475e-01,4.20057e-07,9.99999e-01,9.99999e-01,9.99846e-01,4.20121e-07,9.99999e-01
4.715633337e-01,5.61416e-07,9.99999e-01,9.99999e-01,9.99899e-01,5.61473e-07,9.99999e-01
4.739211504e-01,7.46025e-07,9.99999e-01,9.99999e-01,9.99903e-01,7.46096e-07,9.99999e-01
4.762907561e-01,9.85827e-07,9.99999e-01,9.99999e-01,9.99950e-01,9.85876e-07,9.99999e-01
4.786722099e-01,1.29554e-06,9.99999e-01,9.99999e-01,9.99979e-01,1.29557e-06,9.99999e-01
4.810655710e-01,1.69336e-06,9.99999e-01,9.99999e-01,9.99993e-01,1.69337e-06,9.99999e-01
4.834708988e-01,2.20152e-06,9.99999e-01,9.99999e-01,9.99940e-01,2.20165e-06,9.99999e-01
4.858882533e-01,2.84739e-06,9.99999e-01,9.99999e-01,9.99891e-01,2.84770e-06,9.99999e-01
4.883176946e-01,3.66431e-06,9.99999e-01,9.99999e-01,9.99908e-01,3.66464e-06,9.99999e-01
4.907592831e-01,4.69213e-06,9.99999e-01,9.99999e-01,9.99917e-01,4.69251e-06,9.99999e-01
4.932130795e-01,5.97906e-06,9.99999e-01,9.99999e-01,9.99941e-01,5.97941e-06,9.99999e-01
4.956791449e-01,7.58261e-06,9.99999e-01,9.99999e-01,9.99968e-01,7.58284e-06,9.99999e-01
4.981575406e-01,9.56976e-06,9.99999e-01,9.99999e-01,9.99845e-01,9.57124e-06,9.99999e-01
5.006483283e-01,1.20208e-05,9.99999e-01,9.99999e-01,9.99598e-01,1.20256e-05,9.99999e-01
5.031515699e-01,1.50109e-05,9.99999e-01,9.99999e-01,9.97975e-01,1.50413e-05,9.99999e-01
5.056673278e-01,1.87104e-05,9.99999e-01,9.99999e-01,9.98933e-01,1.87304e-05,9.99999e-01
5.081956644e-01,2.31922e-05,9.99999e-01,9.99999e-01,9.98654e-01,2.32234e-05,9.99999e-01
5.107366428e-01,2.86461e-05,9.99999e-01,9.99999e-01,9.99091e-01,2.86722e-05,9.99999e-01
5.132903260e-01,3.52340e-05,9.99999e-01,9.99999e-01,9.99481e-01,3.52522e-05,9.99999e-01
5.158567776e-01,4.31565e-05,9.99999e-01,9.99999e-01,9.99780e-01,4.31659e-05,9.99999e-01
5.184360615e-01,5.26405e-05,9.99999e-01,9.99999e-01,9.99911e-01,5.26451e-05,9.99999e-01
5.210282418e-01,6.39524e-05,9.99999e-01,9.99999e-01,9.99966e-01,6.39545e-05,9.99999e-01
5.236333830e-01,7.73853e-05,9.99999e-01,9.99999e-01,9.99867e-01,7.73955e-05,9.99999e-01
5.262515499e-01,9.33014e-05,9.99999e-01,9.99999e-01,9.99917e-01,9.33091e-05,9.99999e-01
5.288828077e-01,1.12071e-04,9.99999e-01,9.99999e-01,9.99923e-01,1.12080e-04,9.99999e-01
5.315272217e-01,1.34131e-04,9.99999e-01,9.99999e-01,9.99933e-01,1.34140e-04,9.99999e-01
5.341848578e-01,1.59967e-04,9.99999e-01,9.99999e-01,9.99955e-01,1.59974e-04,9.99999e-01
5.368557821e-01,1.90091e-04,9.99999e-01,9.99999e-01,9.99845e-01,1.90121e-04,9.99999e-01
5.395400610e-01,2.25053e-04,9.99999e-01,9.99999e-01,9.99442e-01,2.25179e-04,9.99999e-01
5.422377613e-01,2.65622e-04,9.99999e-01,9.99999e-01,9.99284e-01,2.65812e-04,9.99999e-01
5.449489501e-01,3.12542e-04,9.99999e-01,9.99999e-01,9.99332e-01,3.12750e-04,9.99999e-01
5.476736949e-01,3.66582e-04,9.99999e-01,9.99999e-01,9.99411e-01,3.66797e-04,9.99999e-01
5.504120634e-01,4.28649e-04,9.99999e-01,9.99999e-01,9.99572e-01,4.28832e-04,9.99999e-01
5.531641237e-01,4.99706e-04,9.99999e-01,9.99999e-01,9.99784e-01,4.99813e-04,9.99999e-01
5.559299443e-01,5.80724e-04,9.99999e-01,9.99999e-01,9.99895e-01,5.80784e-04,9.99999e-01
5.587095940e-01,6.72830e-04,9.99999e-01,9.99999e-01,9.99934e-01,6.72873e-04,9.99999e-01
5.615031420e-01,7.77245e-04,9.99999e-01,9.99999e-01,9.99926e-01,7.77302e-04,9.99999e-01
5.643106577e-01,8.95307e-04,9.99999e-01,9.99999e-01,9.99916e-01,8.95382e-04,9.99999e-01
5.671322110e-01,1.02748e-03,9.99999e-01,9.99999e-01,9.98989e-01,1.02852e-03,9.99999e-01
5.699678720e-01,1.17698e-03,9.99999e-01,9.99999e-01,9.98941e-01,1.17823e-03,9.99999e-01
5.728177114e-01,1.34462e-03,9.99999e-01,9.99999e-01,9.98890e-01,1.34611e-03,9.99999e-01
5.756818000e-01,1.53231e-03,9.99999e-01,9.99999e-01,9.98983e-01,1.53387e-03,9.99999e-01
5.785602090e-01,1.74177e-03,9.99999e-01,9.99999e-01,9.99114e-01,1.74331e-03,9.99999e-01
5.814530100e-01,1.97460e-03,9.99999e-01,9.99999e-01,9.99109e-01,1.97636e-03,9.99999e-01
5.843602750e-01,2.23262e-03,9.99999e-01,9.99999e-01,9.98934e-01,2.23501e-03,9.99999e-01
5.872820764e-01,2.49832e-03,9.99999e-01,9.99999e-01,9.90858e-01,2.52137e-03,9.99999e-01
5.902184868e-01,2.80639e-03,9.99999e-01,9.99999e-01,9.88978e-01,2.83766e-03,9.99999e-01
5.931695792e-01,3.16132e-03,9.99999e-01,9.99999e-01,9.92194e-01,3.18619e-03,9.99999e-01
5.961354271e-01,3.53884e-03,9.99999e-01,9.99999e-01,9.91453e-01,3.56934e-03,9.99999e-01
5.991161043e-01,3.96473e-03,9.99999e-01,9.99999e-01,9.93763e-01,3.98961e-03,9.99999e-01
6.021116848e-01,4.43381e-03,9.99999e-01,9.99999e-01,9.96459e-01,4.44957e-03,9.99999e-01
6.051222432e-01,4.94300e-03,9.99999e-01,9.99999e-01,9.98207e-01,4.95187e-03,9.99999e-01
6.081478544e-01,5.49500e-03,9.99999e-01,9.99999e-01,9.99225e-01,5.49925e-03,9.99999e-01
6.111885937e-01,6.09251e-03,9.99999e-01,9.99999e-01,9.99672e-01,6.09450e-03,9.99999e-01
6.142445367e-01,6.73950e-03,9.99999e-01,9.99999e-01,9.99853e-01,6.74048e-03,9.99999e-01
6.173157594e-01,7.43952e-03,9.99999e-01,9.99999e-01,9.99918e-01,7.44012e-03,9.99999e-01
6.204023382e-01,8.19580e-03,9.99999e-01,9.99999e-01,9.99931e-01,8.19637e-03,9.99999e-01
6.235043498e-01,9.00950e-03,9.99999e-01,9.99999e-01,9.99695e-01,9.01223e-03,9.99999e-01
6.266218716e-01,9.87499e-03,9.99999e-01,9.99999e-01,9.98405e-01,9.89076e-03,9.99999e-01
6.297549810e-01,1.08287e-02,9.99999e-01,9.99999e-01,9.99414e-01,1.08350e-02,9.99999e-01
6.329037559e-01,1.18344e-02,9.99999e-01,9.99999e-01,9.98845e-01,1.18480e-02,9.99999e-01
6.360682746e-01,1.29202e-02,9.99999e-01,9.99999e-01,9.99014e-01,1.29329e-02,9.99999e-01
6.392486160e-01,1.40748e-02,9.99999e-01,9.99999e-01,9.98724e-01,1.40927e-02,9.99999e-01
6.424448591e-01,1.53042e-02,9.99999e-01,9.99999e-01,9.98285e-01,1.53305e-02,9.99999e-01
6.456570834e-01,1.65172e-02,9.99999e-01,9.99999e-01,9.92067e-01,1.66493e-02,9.99999e-01
6.488853688e-01,1.79478e-02,9.99999e-01,9.99999e-01,9.94222e-01,1.80521e-02,9.99999e-01
6.521297956e-01,1.94268e-02,9.99999e-01,9.99999e-01,9.94112e-01,1.95419e-02,9.99999e-01
6.553904446e-01,2.09973e-02,9.99999e-01,9.99999e-01,9.94121e-01,2.11214e-02,9.99999e-01
6.586673968e-01,2.26792e-02,9.99999e-01,9.99999e-01,9.94976e-01,2.27937e-02,9.99999e-01
6.619607338e-01,2.44925e-02,9.99999e-01,9.99999e-01,9.97197e-01,2.45613e-02,9.99999e-01
6.652705375e-01,2.63826e-02,9.99999e-01,9.99999e-01,9.98317e-01,2.64270e-02,9.99999e-01
6.685968902e-01,2.83731e-02,9.99999e-01,9.99999e-01,9.99284e-01,2.83934e-02,9.99999e-01
6.719398746e-01,3.04518e-02,9.99999e-01,9.99999e-01,9.99637e-01,3.04628e-02,9.99999e-01
6.752995740e-01,3.26312e-02,9.99999e-01,9.99999e-01,9.99803e-01,3.26376e-02,9.99999e-01
6.786760719e-01,3.49102e-02,9.99999e-01,9.99999e-01,9.99714e-01,3.49202e-02,9.99999e-01
6.820694522e-01,3.72944e-02,9.99999e-01,9.99999e-01,9.99513e-01,3.73125e-02,9.99999e-01
6.854797995e-01,3.97916e-02,9.99999e-01,9.99999e-01,9.99371e-01,3.98166e-02,9.99999e-01
6.889071985e-01,4.23692e-02,9.99999e-01,9.99999e-01,9.98468e-01,4.24342e-02,9.99999e-01
6.923517345e-01,4.40565e-02,9.99999e-01,9.99999e-01,9.75410e-01,4.51671e-02,9.99999e-01
6.958134932e-01,4.74065e-02,9.99999e-01,9.99999e-01,9.87292e-01,4.80167e-02,9.99999e-01
6.992925606e-01,5.03613e-02,9.99999e-01,9.99999e-01,9.87775e-01,5.09845e-02,9.99999e-01
7.027890234e-01,5.32600e-02,9.99999e-01,9.99999e-01,9.84989e-01,5.40717e-02,9.99999e-01
7.063029686e-01,5.65549e-02,9.99999e-01,9.99999e-01,9.87355e-01,5.72792e-02,9.99999e-01
7.098344834e-01,5.98723e-02,9.99999e-01,9.99999e-01,9.87863e-01,6.06079e-02,9.99999e-01
7.133836558e-01,6.30187e-02,9.99999e-01,9.99999e-01,9.83766e-01,6.40586e-02,9.99998e-01
7.169505741e-01,5.93714e-02,9.99999e-01,9.99999e-01,8.77863e-01,6.76317e-02,9.99998e-01
7.205353270e-01,6.69544e-02,9.99999e-01,9.99999e-01,9.38689e-01,7.13276e-02,9.99997e-01
7.241380036e-01,6.92885e-02,9.99999e-01,9.99999e-01,9.22047e-01,7.51465e-02,9.99997e-01
7.277586936e-01,7.35073e-02,9.99999e-01,9.99999e-01,9.29433e-01,7.90883e-02,9.99998e-01
7.313974871e-01,7.69348e-02,9.99999e-01,9.99999e-01,9.25221e-01,8.31529e-02,9.99998e-01
7.350544745e-01,8.37024e-02,9.99999e-01,9.99999e-01,9.58352e-01,8.73398e-02,9.99998e-01
7.387297469e-01,8.88227e-02,9.99999e-01,9.99999e-01,9.69164e-01,9.16487e-02,9.99999e-01
7.424233956e-01,9.46188e-02,9.99999e-01,9.99999e-01,9.84806e-01,9.60786e-02,9.99999e-01
7.461355126e-01,9.96988e-02,9.99999e-01,9.99999e-01,9.90757e-01,1.00629e-01,9.99999e-01
7.498661902e-01,1.04845e-01,9.99999e-01,9.99999e-01,9.95693e-01,1.05298e-01,9.99999e-01
7.536155211e-01,1.09853e-01,9.99999e-01,9.99999e-01,9.97881e-01,1.10086e-01,9.99999e-01
7.573835987e-01,1.14864e-01,9.99999e-01,9.99999e-01,9.98909e-01,1.14990e-01,9.99999e-01
7.611705167e-01,1.19928e-01,9.99999e-01,9.99999e-01,9.99322e-01,1.20009e-01,9.99999e-01
7.649763693e-01,1.25088e-01,9.99999e-01,9.99999e-01,9.99574e-01,1.25141e-01,9.99999e-01
7.688012511e-01,1.30347e-01,9.99999e-01,9.99999e-01,9.99703e-01,1.30386e-01,9.99999e-01
7.726452574e-01,1.35706e-01,9.99999e-01,9.99999e-01,9.99755e-01,1.35739e-01,9.99999e-01
7.765084837e-01,1.41152e-01,9.99999e-01,9.99999e-01,9.99651e-01,1.41201e-01,9.99999e-01
7.803910261e-01,1.35019e-01,9.99999e-01,9.21238e-01,9.98495e-01,1.46768e-01,9.99999e-01
7.842929812e-01,1.03123e-01,9.99999e-01,6.79676e-01,9.94757e-01,1.52437e-01,9.99999e-01
7.882144461e-01,1.03942e-01,9.99999e-01,6.63475e-01,9.89276e-01,1.58207e-01,9.99999e-01
7.921555184e-01,1.27083e-01,9.99999e-01,7.78854e-01,9.94124e-01,1.64076e-01,9.99999e-01
7.961162960e-01,1.42254e-01,9.99999e-01,8.45207e-01,9.89573e-01,1.70039e-01,9.99999e-01
8.000968774e-01,1.58804e-01,9.99999e-01,9.12680e-01,9.87996e-01,1.76095e-01,9.99999e-01
8.040973618e-01,1.71746e-01,9.99999e-01,9.53813e-01,9.87985e-01,1.82241e-01,9.99999e-01
8.081178486e-01,1.79463e-01,9.99999e-01,9.78460e-01,9.73058e-01,1.88473e-01,9.99998e-01
8.121584379e-01,1.72795e-01,9.99999e-01,9.93335e-01,8.92882e-01,1.94790e-01,9.99998e-01
8.162192301e-01,1.75782e-01,9.99999e-01,9.98524e-01,8.74956e-01,2.01186e-01,9.99997e-01
8.203003262e-01,1.94331e-01,9.99999e-01,9.99978e-01,9.35828e-01,2.07661e-01,9.99997e-01
8.244018279e-01,1.95582e-01,9.99999e-01,9.99999e-01,9.13045e-01,2.14209e-01,9.99997e-01
8.285238370e-01,2.03804e-01,9.99999e-01,9.99999e-01,9.22903e-01,2.20829e-01,9.99998e-01
8.326664562e-01,2.09848e-01,9.99999e-01,9.99999e-01,9.22344e-01,2.27516e-01,9.99998e-01
8.368297885e-01,2.21096e-01,9.99999e-01,9.99999e-01,9.43774e-01,2.34268e-01,9.99998e-01
8.410139374e-01,2.32930e-01,9.99999e-01,9.99999e-01,9.66189e-01,2.41081e-01,9.99999e-01
8.452190071e-01,2.43806e-01,9.99999e-01,9.99999e-01,9.83280e-01,2.47951e-01,9.99999e-01
8.494451021e-01,2.52390e-01,9.99999e-01,9.99999e-01,9.90246e-01,2.54876e-01,9.99999e-01
8.536923276e-01,2.60342e-01,9.99999e-01,9.99999e-01,9.94232e-01,2.61852e-01,9.99999e-01
8.579607893e-01,2.67918e-01,9.99999e-01,9.99999e-01,9.96438e-01,2.68875e-01,9.99999e-01
8.622505932e-01,2.75318e-01,9.99999e-01,9.99999e-01,9.97739e-01,2.75942e-01,9.99999e-01
8.665618462e-01,2.47244e-01,9.99999e-01,8.74648e-01,9.98598e-01,2.83050e-01,9.99999e-01
8.708946554e-01,1.11294e-01,9.99999e-01,3.84086e-01,9.98393e-01,2.90195e-01,9.99999e-01
8.752491287e-01,1.34548e-01,9.99999e-01,4.53366e-01,9.97852e-01,2.97374e-01,9.99999e-01
8.796253743e-01,1.94928e-01,9.99999e-01,6.41757e-01,9.97021e-01,3.04584e-01,9.99999e-01
8.840235012e-01,2.46086e-01,9.99999e-01,7.91778e-01,9.96600e-01,3.11821e-01,9.99999e-01
8.884436187e-01,2.87414e-01,9.99999e-01,9.11810e-01,9.87563e-01,3.19082e-01,9.99998e-01
8.928858368e-01,2.76207e-01,9.99999e-01,9.63188e-01,8.77906e-01,3.26363e-01,9.99997e-01
8.973502660e-01,2.63242e-01,9.99999e-01,9.90960e-01,7.95770e-01,3.33662e-01,9.99996e-01
9.018370173e-01,3.03317e-01,9.99999e-01,9.99001e-01,8.90379e-01,3.40975e-01,9.99996e-01
9.063462024e-01,3.06748e-01,9.99999e-01,9.74551e-01,9.01834e-01,3.48299e-01,9.99995e-01
9.108779334e-01,2.85990e-01,9.99999e-01,9.42555e-01,8.51634e-01,3.55631e-01,9.99995e-01
9.154323231e-01,2.98437e-01,9.99999e-01,9.86282e-01,8.33028e-01,3.62968e-01,9.99994e-01
9.200094847e-01,2.71857e-01,9.99999e-01,8.32598e-01,8.67134e-01,3.70307e-01,9.99993e-01
9.246095321e-01,2.29814e-01,9.99999e-01,7.49500e-01,8.02965e-01,3.77646e-01,9.99989e-01
9.292325798e-01,7.98600e-02,9.99999e-01,7.99359e-01,2.48113e-01,3.84980e-01,9.99978e-01
9.338787427e-01,5.51304e-02,9.99999e-01,8.04588e-01,1.67581e-01,3.92308e-01,9.99971e-01
9.385481364e-01,1.67756e-01,9.99999e-01,8.51402e-01,4.83490e-01,3.99626e-01,9.99970e-01
9.432408771e-01,1.39405e-01,9.99999e-01,9.05954e-01,3.73903e-01,4.06932e-01,9.99967e-01
9.479570815e-01,1.02389e-01,9.99999e-01,9.50493e-01,2.58602e-01,4.14223e-01,9.99971e-01
9.526968669e-01,1.45780e-01,9.99999e-01,9.75863e-01,3.52954e-01,4.21498e-01,9.99978e-01
9.574603512e-01,1.58028e-01,9.99999e-01,9.89604e-01,3.71862e-01,4.28752e-01,9.99983e-01
9.622476530e-01,1.92422e-01,9.99999e-01,9.96747e-01,4.42590e-01,4.35985e-01,9.99989e-01
9.670588912e-01,2.75686e-01,9.99999e-01,9.99025e-01,6.22579e-01,4.43193e-01,9.99992e-01
9.718941857e-01,3.32836e-01,9.99999e-01,9.99931e-01,7.39065e-01,4.50374e-01,9.99995e-01
9.767536566e-01,3.55837e-01,9.99999e-01,9.99999e-01,7.77742e-01,4.57526e-01,9.99996e-01
9.816374249e-01,3.85510e-01,9.99999e-01,9.99999e-01,8.29684e-01,4.64648e-01,9.99997e-01
9.865456120e-01,4.19694e-01,9.99999e-01,9.99999e-01,8.89679e-01,4.71736e-01,9.99998e-01
9.914783401e-01,4.45353e-01,9.99999e-01,9.99999e-01,9.30166e-01,4.78789e-01,9.99999e-01
9.964357318e-01,4.67027e-01,9.99999e-01,9.99999e-01,9.61346e-01,4.85805e-01,9.99999e-01
1.001417910e+00,4.81275e-01,9.99999e-01,9.99999e-01,9.76647e-01,4.92782e-01,9.99999e-01
1.006425000e+00,4.93025e-01,9.99999e-01,9.99999e-01,9.86604e-01,4.99719e-01,9.99999e-01
1.011457125e+00,5.02398e-01,9.99999e-01,9.99999e-01,9.91677e-01,5.06614e-01,9.99999e-01
1.016514411e+00,5.10558e-01,9.99999e-01,9.99999e-01,9.94338e-01,5.13464e-01,9.99999e-01
1.021596983e+00,5.17844e-01,9.99999e-01,9.99850e-01,9.95484e-01,5.20269e-01,9.99999e-01
1.026704968e+00,5.19861e-01,9.99999e-01,9.89876e-01,9.96476e-01,5.27028e-01,9.99999e-01
1.031838492e+00,4.85464e-01,9.99999e-01,9.11765e-01,9.97440e-01,5.33738e-01,9.99999e-01
1.036997685e+00,3.20910e-02,9.99999e-01,5.94526e-02,9.98477e-01,5.40398e-01,9.99999e-01
1.042182673e+00,3.65817e-03,9.99999e-01,6.69715e-03,9.98181e-01,5.47008e-01,9.99999e-01
1.047393587e+00,8.42092e-03,9.99999e-01,1.52430e-02,9.97591e-01,5.53565e-01,9.99999e-01
1.052630555e+00,2.84657e-06,9.99999e-01,5.09332e-06,9.96693e-01,5.60069e-01,9.99999e-01
1.057893707e+00,1.07191e-05,9.99999e-01,1.89773e-05,9.94480e-01,5.66519e-01,9.99999e-01
1.063183176e+00,1.76336e-04,9.99999e-01,3.09457e-04,9.90939e-01,5.72914e-01,9.99999e-01
1.068499092e+00,1.40445e-03,9.99999e-01,2.45033e-03,9.84886e-01,5.79252e-01,9.99999e-01
1.073841587e+00,1.22495e-02,9.99999e-01,2.11985e-02,9.82327e-01,5.85533e-01,9.99999e-01
1.079210795e+00,5.13754e-02,9.99999e-01,8.84311e-02,9.77438e-01,5.91756e-01,9.99998e-01
1.084606849e+00,1.47543e-01,9.99999e-01,2.54497e-01,9.66031e-01,5.97921e-01,9.99998e-01
1.090029883e+00,2.81776e-01,9.99999e-01,4.88602e-01,9.51477e-01,6.04026e-01,9.99997e-01
1.095480033e+00,3.75493e-01,9.99999e-01,7.02021e-01,8.73450e-01,6.10071e-01,9.99996e-01
1.100957433e+00,3.70779e-01,9.99999e-01,8.42632e-01,7.10959e-01,6.16055e-01,9.99993e-01
1.106462220e+00,2.50880e-01,9.99999e-01,9.31606e-01,4.30387e-01,6.21978e-01,9.99986e-01
1.111994531e+00,1.08673e-01,9.99999e-01,9.74056e-01,1.76967e-01,6.27839e-01,9.99973e-01
1.117554504e+00,4.12453e-02,9.99999e-01,9.93622e-01,6.53588e-02,6.33638e-01,9.99963e-01
1.123142276e+00,9.68540e-02,9.99999e-01,9.99581e-01,1.51500e-01,6.39375e-01,9.99956e-01
1.128757988e+00,1.76917e-01,9.99999e-01,9.99999e-01,2.74282e-01,6.45048e-01,9.99952e-01
1.134401778e+00,8.11461e-02,9.99999e-01,9.99999e-01,1.24720e-01,6.50659e-01,9.99947e-01
1.140073787e+00,2.94423e-01,9.99999e-01,9.99999e-01,4.48694e-01,6.56206e-01,9.99957e-01
1.145774156e+00,1.35473e-01,9.99999e-01,9.99999e-01,2.04745e-01,6.61689e-01,9.99963e-01
1.151503026e+00,1.15776e-01,9.99999e-01,9.99999e-01,1.73554e-01,6.67109e-01,9.99968e-01
1.157260541e+00,1.43211e-01,9.99999e-01,9.99999e-01,2.12969e-01,6.72464e-01,9.99976e-01
1.163046844e+00,2.14259e-01,9.99999e-01,9.99999e-01,3.16134e-01,6.77755e-01,9.99984e-01
1.168862078e+00,3.01232e-01,9.99999e-01,9.99999e-01,4.41057e-01,6.82983e-01,9.99992e-01
1.174706389e+00,4.14708e-01,9.99999e-01,9.99999e-01,6.02648e-01,6.88146e-01,9.99995e-01
1.180579921e+00,5.08626e-01,9.99999e-01,9.99999e-01,7.33690e-01,6.93245e-01,9.99997e-01
1.186482820e+00,5.85582e-01,9.99999e-01,9.99978e-01,8.38622e-01,6.98280e-01,9.99997e-01
1.192415234e+00,6.12990e-01,9.99999e-01,9.65181e-01,9.02161e-01,7.03251e-01,9.99997e-01
1.198377311e+00,3.45680e-01,9.99999e-01,5.24724e-01,9.16838e-01,7.08158e-01,9.99998e-01
1.204369197e+00,2.22628e-26,9.99999e-01,3.27427e-26,9.21332e-01,7.13002e-01,9.99998e-01
1.210391043e+00,7.60505e-106,9.99999e-01,1.10680e-105,9.24545e-01,7.17782e-01,9.99998e-01
1.216442998e+00,1.23557e-91,9.99999e-01,1.78236e-91,9.35512e-01,7.22498e-01,9.99998e-01
1.222525213e+00,2.94684e-90,9.99999e-01,4.16266e-90,9.49346e-01,7.27152e-01,9.99999e-01
1.228637839e+00,1.11217e-69,9.99999e-01,1.55736e-69,9.64528e-01,7.31743e-01,9.99999e-01
