#,Wave/freq,Total,O2,CO2,H2O,Rayleigh,CIA
4.000000000e-01,1.59266e-13,9.99999e-01,9.99999e-01,9.99941e-01,1.59275e-13,9.99999e-01
4.020000000e-01,2.85226e-13,9.99999e-01,9.99999e-01,9.99963e-01,2.85236e-13,9.99999e-01
4.040100000e-01,5.04648e-13,9.99999e-01,9.99999e-01,9.99984e-01,5.04655e-13,9.99999e-01
4.060300500e-01,8.82856e-13,9.99999e-01,9.99999e-01,9.99995e-01,8.82859e-13,9.99999e-01
4.080602003e-01,1.52753e-12,9.99999e-01,9.99999e-01,9.99998e-01,1.52753e-12,9.99999e-01
4.101005013e-01,2.61448e-12,9.99999e-01,9.99999e-01,9.99999e-01,2.61448e-12,9.99999e-01
4.121510038e-01,4.42761e-12,9.99999e-01,9.99999e-01,9.99997e-01,4.42762e-12,9.99999e-01
4.142117588e-01,7.42045e-12,9.99999e-01,9.99999e-01,9.99983e-01,7.42056e-12,9.99999e-01
4.162828176e-01,1.23096e-11,9.99999e-01,9.99999e-01,9.99928e-01,1.23104e-11,9.99999e-01
4.183642317e-01,2.02185e-11,9.99999e-01,9.99999e-01,9.99957e-01,2.02194e-11,9.99999e-01
4.204560528e-01,3.28847e-11,9.99999e-01,9.99999e-01,9.99973e-01,3.28855e-11,9.99999e-01
4.225583331e-01,5.29744e-11,9.99999e-01,9.99999e-01,9.99989e-01,5.29749e-11,9.99999e-01
4.246711247e-01,8.45360e-11,9.99999e-01,9.99999e-01,9.99991e-01,8.45367e-11,9.99999e-01
4.267944804e-01,1.33661e-10,9.99999e-01,9.99999e-01,9.99988e-01,1.33663e-10,9.99999e-01
4.289284528e-01,2.09432e-10,9.99999e-01,9.99999e-01,9.99990e-01,2.09434e-10,9.99999e-01
4.310730950e-01,3.25258e-10,9.99999e-01,9.99999e-01,9.99995e-01,3.25260e-10,9.99999e-01
4.332284605e-01,5.00768e-10,9.99999e-01,9.99999e-01,9.99998e-01,5.00769e-10,9.99999e-01
4.353946028e-01,7.64438e-10,9.99999e-01,9.99999e-01,9.99999e-01,7.64438e-10,9.99999e-01
4.375715758e-01,1.15722e-09,9.99999e-01,9.99999e-01,9.99992e-01,1.15723e-09,9.99999e-01
4.397594337e-01,1.73745e-09,9.99999e-01,9.99999e-01,9.99937e-01,1.73755e-09,9.99999e-01
4.419582309e-01,2.58723e-09,9.99999e-01,9.99999e-01,9.99686e-01,2.58804e-09,9.99999e-01
4.441680220e-01,3.82365e-09,9.99999e-01,9.99999e-01,9.99749e-01,3.82460e-09,9.99999e-01
4.463888621e-01,5.60711e-09,9.99999e-01,9.99999e-01,9.99740e-01,5.60856e-09,9.99999e-01
4.486208064e-01,8.16134e-09,9.99999e-01,9.99999e-01,9.99837e-01,8.16266e-09,9.99999e-01
4.508639105e-01,1.17913e-08,9.99999e-01,9.99999e-01,9.99923e-01,1.17922e-08,9.99999e-01
4.531182300e-01,1.69116e-08,9.99999e-01,9.99999e-01,9.99969e-01,1.69122e-08,9.99999e-01
4.553838212e-01,2.40825e-08,9.99999e-01,9.99999e-01,9.99979e-01,2.40830e-08,9.99999e-01
4.576607403e-01,3.40555e-08,9.99999e-01,9.99999e-01,9.99990e-01,3.40558e-08,9.99999e-01
4.599490440e-01,4.78295e-08,9.99999e-01,9.99999e-01,9.99992e-01,4.78298e-08,9.99999e-01
4.622487892e-01,6.67256e-08,9.99999e-01,9.99999e-01,9.99998e-01,6.67257e-08,9.99999e-01
4.645600332e-01,9.24760e-08,9.99999e-01,9.99999e-01,9.99995e-01,9.24764e-08,9.99999e-01
4.668828333e-01,1.27332e-07,9.99999e-01,9.99999e-01,9.99924e-01,1.27341e-07,9.99999e-01
4.692172475e-01,1.74218e-07,9.99999e-01,9.99999e-01,9.99837e-01,1.74246e-07,9.99999e-01
4.715633337e-01,2.36931e-07,9.99999e-01,9.99999e-01,9.99893e-01,2.36956e-07,9.99999e-01
4.739211504e-01,3.20250e-07,9.99999e-01,9.99999e-01,9.99897e-01,3.20283e-07,9.99999e-01
4.762907561e-01,4.30321e-07,9.99999e-01,9.99999e-01,9.99946e-01,4.30344e-07,9.99999e-01
4.786722099e-01,5.74849e-07,9.99999e-01,9.99999e-01,9.99977e-01,5.74862e-07,9.99999e-01
4.810655710e-01,7.63528e-07,9.99999e-01,9.99999e-01,9.99993e-01,7.63533e-07,9.99999e-01
4.834708988e-01,1.00839e-06,9.99999e-01,9.99999e-01,9.99938e-01,1.00846e-06,9.99999e-01
4.858882533e-01,1.32449e-06,9.99999e-01,9.99999e-01,9.99884e-01,1.32465e-06,9.99999e-01
4.883176946e-01,1.73046e-06,9.99999e-01,9.99999e-01,9.99903e-01,1.73062e-06,9.99999e-01
4.907592831e-01,2.24892e-06,9.99999e-01,9.99999e-01,9.99912e-01,2.24912e-06,9.99999e-01
4.932130795e-01,2.90768e-06,9.99999e-01,9.99999e-01,9.99937e-01,2.90786e-06,9.99999e-01
4.956791449e-01,3.74040e-06,9.99999e-01,9.99999e-01,9.99966e-01,3.74052e-06,9.99999e-01
4.981575406e-01,4.78696e-06,9.99999e-01,9.99999e-01,9.99837e-01,4.78774e-06,9.99999e-01
5.006483283e-01,6.09578e-06,9.99999e-01,9.99999e-01,9.99581e-01,6.09833e-06,9.99999e-01
5.031515699e-01,7.71413e-06,9.99999e-01,9.99999e-01,9.97862e-01,7.73065e-06,9.99999e-01
5.056673278e-01,9.74303e-06,9.99999e-01,9.99999e-01,9.98867e-01,9.75408e-06,9.99999e-01
5.081956644e-01,1.22332e-05,9.99999e-01,9.99999e-01,9.98570e-01,1.22507e-05,9.99999e-01
5.107366428e-01,1.53025e-05,9.99999e-01,9.99999e-01,9.99033e-01,1.53173e-05,9.99999e-01
5.132903260e-01,1.90567e-05,9.99999e-01,9.99999e-01,9.99446e-01,1.90672e-05,9.99999e-01
5.158567776e-01,2.36272e-05,9.99999e-01,9.99999e-01,9.99765e-01,2.36327e-05,9.99999e-01
5.184360615e-01,2.91647e-05,9.99999e-01,9.99999e-01,9.99905e-01,2.91674e-05,9.99999e-01
5.210282418e-01,3.58478e-05,9.99999e-01,9.99999e-01,9.99964e-01,3.58491e-05,9.99999e-01
5.236333830e-01,4.38760e-05,9.99999e-01,9.99999e-01,9.99860e-01,4.38821e-05,9.99999e-01
5.262515499e-01,5.34965e-05,9.99999e-01,9.99999e-01,9.99912e-01,5.35012e-05,9.99999e-01
5.288828077e-01,6.49687e-05,9.99999e-01,9.99999e-01,9.99919e-01,6.49739e-05,9.99999e-01
5.315272217e-01,7.85990e-05,9.99999e-01,9.99999e-01,9.99928e-01,7.86045e-05,9.99999e-01
5.341848578e-01,9.47333e-05,9.99999e-01,9.99999e-01,9.99953e-01,9.47377e-05,9.99999e-01
5.368557821e-01,1.13743e-04,9.99999e-01,9.99999e-01,9.99837e-01,1.13762e-04,9.99999e-01
5.395400610e-01,1.36034e-04,9.99999e-01,9.99999e-01,9.99419e-01,1.36113e-04,9.99999e-01
5.422377613e-01,1.62157e-04,9.99999e-01,9.99999e-01,9.99238e-01,1.62280e-04,9.99999e-01
5.449489501e-01,1.92671e-04,9.99999e-01,9.99999e-01,9.99297e-01,1.92807e-04,9.99999e-01
5.476736949e-01,2.28154e-04,9.99999e-01,9.99999e-01,9.99372e-01,2.28297e-04,9.99999e-01
5.504120634e-01,2.69297e-04,9.99999e-01,9.99999e-01,9.99544e-01,2.69419e-04,9.99999e-01
5.531641237e-01,3.16838e-04,9.99999e-01,9.99999e-01,9.99770e-01,3.16910e-04,9.99999e-01
5.559299443e-01,3.71538e-04,9.99999e-01,9.99999e-01,9.99888e-01,3.71579e-04,9.99999e-01
5.587095940e-01,4.34282e-04,9.99999e-01,9.99999e-01,9.99930e-01,4.34312e-04,9.99999e-01
5.615031420e-01,5.06034e-04,9.99999e-01,9.99999e-01,9.99922e-01,5.06073e-04,9.99999e-01
5.643106577e-01,5.87863e-04,9.99999e-01,9.99999e-01,9.99913e-01,5.87913e-04,9.99999e-01
5.671322110e-01,6.80262e-04,9.99999e-01,9.99999e-01,9.98961e-01,6.80969e-04,9.99999e-01
5.699678720e-01,7.85573e-04,9.99999e-01,9.99999e-01,9.98862e-01,7.86468e-04,9.99999e-01
5.728177114e-01,9.04670e-04,9.99999e-01,9.99999e-01,9.98828e-01,9.05730e-04,9.99999e-01
5.756818000e-01,1.03905e-03,9.99999e-01,9.99999e-01,9.98922e-01,1.04017e-03,9.99999e-01
5.785602090e-01,1.19019e-03,9.99999e-01,9.99999e-01,9.99058e-01,1.19131e-03,9.99999e-01
5.814530100e-01,1.35948e-03,9.99999e-01,9.99999e-01,9.99056e-01,1.36076e-03,9.99999e-01
5.843602750e-01,1.54850e-03,9.99999e-01,9.99999e-01,9.98886e-01,1.55023e-03,9.99999e-01
5.872820764e-01,1.74467e-03,9.99999e-01,9.99999e-01,9.90425e-01,1.76154e-03,9.99999e-01
5.902184868e-01,1.97322e-03,9.99999e-01,9.99999e-01,9.88285e-01,1.99661e-03,9.99999e-01
5.931695792e-01,2.23882e-03,9.99999e-01,9.99999e-01,9.91744e-01,2.25745e-03,9.99999e-01
5.961354271e-01,2.52309e-03,9.99999e-01,9.99999e-01,9.90927e-01,2.54619e-03,9.99999e-01
5.991161043e-01,2.84604e-03,9.99999e-01,9.99999e-01,9.93366e-01,2.86505e-03,9.99999e-01
6.021116848e-01,3.20418e-03,9.99999e-01,9.99999e-01,9.96225e-01,3.21632e-03,9.99999e-01
6.051222432e-01,3.59554e-03,9.99999e-01,9.99999e-01,9.98087e-01,3.60243e-03,9.99999e-01
6.081478544e-01,4.02254e-03,9.99999e-01,9.99999e-01,9.99175e-01,4.02586e-03,9.99999e-01
6.111885937e-01,4.48763e-03,9.99999e-01,9.99999e-01,9.99649e-01,4.48920e-03,9.99999e-01
6.142445367e-01,4.99432e-03,9.99999e-01,9.99999e-01,9.99843e-01,4.99510e-03,9.99999e-01
6.173157594e-01,5.54583e-03,9.99999e-01,9.99999e-01,9.99913e-01,5.54630e-03,9.99999e-01
6.204023382e-01,6.14517e-03,9.99999e-01,9.99999e-01,9.99927e-01,6.14561e-03,9.99999e-01
6.235043498e-01,6.79376e-03,9.99999e-01,9.99999e-01,9.99686e-01,6.79589e-03,9.99999e-01
6.266218716e-01,7.48741e-03,9.99999e-01,9.99999e-01,9.98312e-01,7.50006e-03,9.99999e-01
6.297549810e-01,8.25598e-03,9.99999e-01,9.99999e-01,9.99380e-01,8.26109e-03,9.99999e-01
6.329037559e-01,9.07085e-03,9.99999e-01,9.99999e-01,9.98772e-01,9.08199e-03,9.99999e-01
6.360682746e-01,9.95544e-03,9.99999e-01,9.99999e-01,9.98959e-01,9.96580e-03,9.99999e-01
6.392486160e-01,1.09008e-02,9.99999e-01,9.99999e-01,9.98648e-01,1.09156e-02,9.99999e-01
6.424448591e-01,1.19151e-02,9.99999e-01,9.99999e-01,9.98381e-01,1.19344e-02,9.99999e-01
6.456570834e-01,1.29181e-02,9.99999e-01,9.99999e-01,9.91766e-01,1.30253e-02,9.99999e-01
6.488853688e-01,1.40890e-02,9.99999e-01,9.99999e-01,9.92783e-01,1.41914e-02,9.99999e-01
6.521297956e-01,1.53391e-02,9.99999e-01,9.99999e-01,9.93737e-01,1.54357e-02,9.99999e-01
6.553904446e-01,1.66577e-02,9.99999e-01,9.99999e-01,9.93814e-01,1.67613e-02,9.99999e-01
6.586673968e-01,1.80740e-02,9.99999e-01,9.99999e-01,9.94649e-01,1.81712e-02,9.99999e-01
6.619607338e-01,1.96073e-02,9.99999e-01,9.99999e-01,9.96904e-01,1.96682e-02,9.99999e-01
6.652705375e-01,2.12171e-02,9.99999e-01,9.99999e-01,9.98201e-01,2.12553e-02,9.99999e-01
6.685968902e-01,2.29161e-02,9.99999e-01,9.99999e-01,9.99164e-01,2.29352e-02,9.99999e-01
6.719398746e-01,2.47013e-02,9.99999e-01,9.99999e-01,9.99612e-01,2.47108e-02,9.99999e-01
6.752995740e-01,2.65792e-02,9.99999e-01,9.99999e-01,9.99790e-01,2.65847e-02,9.99999e-01
6.786760719e-01,2.85509e-02,9.99999e-01,9.99999e-01,9.99700e-01,2.85594e-02,9.99999e-01
6.820694522e-01,3.06217e-02,9.99999e-01,9.99999e-01,9.99485e-01,3.06374e-02,9.99999e-01
6.854797995e-01,3.27993e-02,9.99999e-01,9.99999e-01,9.99337e-01,3.28210e-02,9.99999e-01
6.889071985e-01,3.50571e-02,9.99999e-01,9.99999e-01,9.98421e-01,3.51125e-02,9.99999e-01
6.923517345e-01,3.65474e-02,9.99999e-01,9.99999e-01,9.74233e-01,3.75140e-02,9.99999e-01
6.958134932e-01,3.94768e-02,9.99999e-01,9.99999e-01,9.86246e-01,4.00273e-02,9.99999e-01
6.992925606e-01,4.21075e-02,9.99999e-01,9.99999e-01,9.87179e-01,4.26543e-02,9.99999e-01
7.027890234e-01,4.46730e-02,9.99999e-01,9.99999e-01,9.84058e-01,4.53967e-02,9.99999e-01
7.063029686e-01,4.76089e-02,9.99999e-01,9.99999e-01,9.86588e-01,4.82560e-02,9.99999e-01
7.098344834e-01,5.05740e-02,9.99999e-01,9.99999e-01,9.87125e-01,5.12336e-02,9.99999e-01
7.133836558e-01,5.34140e-02,9.99999e-01,9.99999e-01,9.83129e-01,5.43306e-02,9.99998e-01
7.169505741e-01,5.01986e-02,9.99999e-01,9.99999e-01,8.72292e-01,5.75480e-02,9.99997e-01
7.205353270e-01,5.68639e-02,9.99999e-01,9.99999e-01,9.33931e-01,6.08867e-02,9.99997e-01
7.241380036e-01,5.90703e-02,9.99999e-01,9.99999e-01,9.17991e-01,6.43475e-02,9.99997e-01
7.277586936e-01,6.28789e-02,9.99999e-01,9.99999e-01,9.25634e-01,6.79307e-02,9.99997e-01
7.313974871e-01,6.59349e-02,9.99999e-01,9.99999e-01,9.20407e-01,7.16367e-02,9.99998e-01
7.350544745e-01,7.21255e-02,9.99999e-01,9.99999e-01,9.55739e-01,7.54657e-02,9.99998e-01
7.387297469e-01,7.68107e-02,9.99999e-01,9.99999e-01,9.67174e-01,7.94176e-02,9.99999e-01
7.424233956e-01,8.21359e-02,9.99999e-01,9.99999e-01,9.83755e-01,8.34922e-02,9.99999e-01
7.461355126e-01,8.68248e-02,9.99999e-01,9.99999e-01,9.90141e-01,8.76892e-02,9.99999e-01
7.498661902e-01,9.15835e-02,9.99999e-01,9.99999e-01,9.95385e-01,9.20080e-02,9.99999e-01
7.536155211e-01,9.62300e-02,9.99999e-01,9.99999e-01,9.97741e-01,9.64478e-02,9.99999e-01
7.573835987e-01,1.00890e-01,9.99999e-01,9.99999e-01,9.98835e-01,1.01008e-01,9.99999e-01
7.611705167e-01,1.05611e-01,9.99999e-01,9.99999e-01,9.99276e-01,1.05687e-01,9.99999e-01
7.649763693e-01,1.10434e-01,9.99999e-01,9.99999e-01,9.99547e-01,1.10484e-01,9.99999e-01
7.688012511e-01,1.15361e-01,9.99999e-01,9.99999e-01,9.99684e-01,1.15398e-01,9.99999e-01
7.726452574e-01,1.20395e-01,9.99999e-01,9.99999e-01,9.99740e-01,1.20426e-01,9.99999e-01
7.765084837e-01,1.25522e-01,9.99999e-01,9.99999e-01,9.99634e-01,1.25568e-01,9.99999e-01
7.803910261e-01,1.20503e-01,9.99999e-01,9.22469e-01,9.98426e-01,1.30821e-01,9.99999e-01
7.842929812e-01,8.98575e-02,9.99999e-01,6.63042e-01,9.94520e-01,1.36184e-01,9.99999e-01
7.882144461e-01,9.10379e-02,9.99999e-01,6.49366e-01,9.88638e-01,1.41654e-01,9.99999e-01
7.921555184e-01,1.12419e-01,9.99999e-01,7.68095e-01,9.93723e-01,1.47229e-01,9.99999e-01
7.961162960e-01,1.26394e-01,9.99999e-01,8.35505e-01,9.89059e-01,1.52907e-01,9.99999e-01
8.000968774e-01,1.42140e-01,9.99999e-01,9.07168e-01,9.87290e-01,1.58686e-01,9.99999e-01
8.040973618e-01,1.54440e-01,9.99999e-01,9.50491e-01,9.87307e-01,1.64562e-01,9.99999e-01
8.081178486e-01,1.61945e-01,9.99999e-01,9.77044e-01,9.71841e-01,1.70533e-01,9.99998e-01
8.121584379e-01,1.55711e-01,9.99999e-01,9.92791e-01,8.87960e-01,1.76597e-01,9.99998e-01
8.162192301e-01,1.58260e-01,9.99999e-01,9.98402e-01,8.67312e-01,1.82750e-01,9.99997e-01
8.203003262e-01,1.76428e-01,9.99999e-01,9.99972e-01,9.33557e-01,1.88989e-01,9.99997e-01
8.244018279e-01,1.77094e-01,9.99999e-01,9.99999e-01,9.06727e-01,1.95312e-01,9.99997e-01
8.285238370e-01,1.85342e-01,9.99999e-01,9.99999e-01,9.18829e-01,2.01715e-01,9.99997e-01
8.326664562e-01,1.91067e-01,9.99999e-01,9.99999e-01,9.17729e-01,2.08196e-01,9.99998e-01
8.368297885e-01,2.01910e-01,9.99999e-01,9.99999e-01,9.40208e-01,2.14750e-01,9.99998e-01
8.410139374e-01,2.13403e-01,9.99999e-01,9.99999e-01,9.63987e-01,2.21376e-01,9.99999e-01
8.452190071e-01,2.23997e-01,9.99999e-01,9.99999e-01,9.82147e-01,2.28068e-01,9.99999e-01
8.494451021e-01,2.32393e-01,9.99999e-01,9.99999e-01,9.89641e-01,2.34825e-01,9.99999e-01
8.536923276e-01,2.40155e-01,9.99999e-01,9.99999e-01,9.93840e-01,2.41643e-01,9.99999e-01
8.579607893e-01,2.47578e-01,9.99999e-01,9.99999e-01,9.96215e-01,2.48518e-01,9.99999e-01
8.622505932e-01,2.54831e-01,9.99999e-01,9.99999e-01,9.97588e-01,2.55447e-01,9.99999e-01
8.665618462e-01,2.30145e-01,9.99999e-01,8.78212e-01,9.98513e-01,2.62427e-01,9.99999e-01
8.708946554e-01,9.82915e-02,9.99999e-01,3.65352e-01,9.98302e-01,2.69454e-01,9.99999e-01
8.752491287e-01,1.19129e-01,9.99999e-01,4.31724e-01,9.97726e-01,2.76525e-01,9.99999e-01
8.796253743e-01,1.76224e-01,9.99999e-01,6.23115e-01,9.96864e-01,2.83636e-01,9.99999e-01
8.840235012e-01,2.25863e-01,9.99999e-01,7.79420e-01,9.96415e-01,2.90784e-01,9.99999e-01
8.884436187e-01,2.66460e-01,9.99999e-01,9.05505e-01,9.87256e-01,2.97966e-01,9.99998e-01
8.928858368e-01,2.56114e-01,9.99999e-01,9.60619e-01,8.72798e-01,3.05178e-01,9.99997e-01
8.973502660e-01,2.42936e-01,9.99999e-01,9.90220e-01,7.84860e-01,3.12416e-01,9.99996e-01
9.018370173e-01,2.81957e-01,9.99999e-01,9.98915e-01,8.82883e-01,3.19679e-01,9.99996e-01
9.063462024e-01,2.86439e-01,9.99999e-01,9.73902e-01,8.97511e-01,3.26962e-01,9.99995e-01
9.108779334e-01,2.65438e-01,9.99999e-01,9.38803e-01,8.44129e-01,3.34262e-01,9.99995e-01
9.154323231e-01,2.77555e-01,9.99999e-01,9.85128e-01,8.24131e-01,3.41576e-01,9.99994e-01
9.200094847e-01,2.53022e-01,9.99999e-01,8.28425e-01,8.59417e-01,3.48901e-01,9.99993e-01
9.246095321e-01,2.11494e-01,9.99999e-01,7.35630e-01,7.97536e-01,3.56234e-01,9.99988e-01
9.292325798e-01,7.05406e-02,9.99999e-01,7.90980e-01,2.33971e-01,3.63571e-01,9.99976e-01
9.338787427e-01,4.63282e-02,9.99999e-01,7.93596e-01,1.50382e-01,3.70910e-01,9.99970e-01
9.385481364e-01,1.50723e-01,9.99999e-01,8.42708e-01,4.62616e-01,3.78248e-01,9.99969e-01
9.432408771e-01,1.25955e-01,9.99999e-01,8.99707e-01,3.58665e-01,3.85582e-01,9.99965e-01
9.479570815e-01,9.07834e-02,9.99999e-01,9.47344e-01,2.42435e-01,3.92909e-01,9.99970e-01
9.526968669e-01,1.30495e-01,9.99999e-01,9.74228e-01,3.33137e-01,4.00226e-01,9.99977e-01
9.574603512e-01,1.41918e-01,9.99999e-01,9.88881e-01,3.51534e-01,4.07531e-01,9.99982e-01
9.622476530e-01,1.73932e-01,9.99999e-01,9.96514e-01,4.20543e-01,4.14822e-01,9.99988e-01
9.670588912e-01,2.55106e-01,9.99999e-01,9.98951e-01,6.04935e-01,4.22094e-01,9.99992e-01
9.718941857e-01,3.11593e-01,9.99999e-01,9.99924e-01,7.25784e-01,4.29347e-01,9.99995e-01
9.767536566e-01,3.34501e-01,9.99999e-01,9.99999e-01,7.66190e-01,4.36578e-01,9.99996e-01
9.816374249e-01,3.63822e-01,9.99999e-01,9.99999e-01,8.19819e-01,4.43784e-01,9.99997e-01
9.865456120e-01,3.98179e-01,9.99999e-01,9.99999e-01,8.82953e-01,4.50963e-01,9.99998e-01
9.914783401e-01,4.24148e-01,9.99999e-01,9.99999e-01,9.25860e-01,4.58112e-01,9.99999e-01
9.964357318e-01,4.46109e-01,9.99999e-01,9.99999e-01,9.58898e-01,4.65231e-01,9.99999e-01
1.001417910e+00,4.60577e-01,9.99999e-01,9.99999e-01,9.75144e-01,4.72316e-01,9.99999e-01
1.006425000e+00,4.72552e-01,9.99999e-01,9.99999e-01,9.85783e-01,4.79367e-01,9.99999e-01
1.011457125e+00,4.82065e-01,9.99999e-01,9.99999e-01,9.91128e-01,4.86380e-01,9.99999e-01
1.016514411e+00,4.90384e-01,9.99999e-01,9.99999e-01,9.93979e-01,4.93354e-01,9.99999e-01
1.021596983e+00,4.97824e-01,9.99999e-01,9.99871e-01,9.95203e-01,5.00287e-01,9.99999e-01
1.026704968e+00,5.00063e-01,9.99999e-01,9.89659e-01,9.96259e-01,5.07178e-01,9.99999e-01
1.031838492e+00,4.69364e-01,9.99999e-01,9.15488e-01,9.97274e-01,5.14025e-01,9.99999e-01
1.036997685e+00,3.01106e-02,9.99999e-01,5.78837e-02,9.98383e-01,5.20826e-01,9.99999e-01
1.042182673e+00,2.73652e-03,9.99999e-01,5.19468e-03,9.98080e-01,5.27581e-01,9.99999e-01
1.047393587e+00,6.83463e-03,9.99999e-01,1.28194e-02,9.97450e-01,5.34287e-01,9.99999e-01
1.052630555e+00,1.56399e-06,9.99999e-01,2.89769e-06,9.96507e-01,5.40943e-01,9.99999e-01
1.057893707e+00,5.71600e-06,9.99999e-01,1.04713e-05,9.94185e-01,5.47548e-01,9.99999e-01
1.063183176e+00,1.11261e-04,9.99999e-01,2.01931e-04,9.90438e-01,5.54101e-01,9.99999e-01
1.068499092e+00,9.75170e-04,9.99999e-01,1.75873e-03,9.84019e-01,5.60601e-01,9.99999e-01
1.073841587e+00,9.42401e-03,9.99999e-01,1.68494e-02,9.81373e-01,5.67047e-01,9.99999e-01
1.079210795e+00,4.31226e-02,9.99999e-01,7.66637e-02,9.76097e-01,5.73437e-01,9.99998e-01
1.084606849e+00,1.30878e-01,9.99999e-01,2.33170e-01,9.64125e-01,5.79770e-01,9.99998e-01
1.090029883e+00,2.60730e-01,9.99999e-01,4.66923e-01,9.49236e-01,5.86047e-01,9.99997e-01
1.095480033e+00,3.53851e-01,9.99999e-01,6.85823e-01,8.67485e-01,5.92265e-01,9.99996e-01
1.100957433e+00,3.50318e-01,9.99999e-01,8.33126e-01,6.99043e-01,5.98425e-01,9.99993e-01
1.106462220e+00,2.33639e-01,9.99999e-01,9.27091e-01,4.14129e-01,6.04525e-01,9.99986e-01
1.111994531e+00,9.64392e-02,9.99999e-01,9.72300e-01,1.61713e-01,6.10565e-01,9.99972e-01
1.117554504e+00,3.48813e-02,9.99999e-01,9.93133e-01,5.68191e-02,6.16544e-01,9.99961e-01
1.123142276e+00,8.49489e-02,9.99999e-01,9.99544e-01,1.36489e-01,6.22462e-01,9.99954e-01
1.128757988e+00,1.60900e-01,9.99999e-01,9.99999e-01,2.56093e-01,6.28318e-01,9.99949e-01
1.134401778e+00,7.12146e-02,9.99999e-01,9.99999e-01,1.12312e-01,6.34112e-01,9.99943e-01
1.140073787e+00,2.75148e-01,9.99999e-01,9.99999e-01,4.30043e-01,6.39843e-01,9.99952e-01
1.145774156e+00,1.21417e-01,9.99999e-01,9.99999e-01,1.88102e-01,6.45512e-01,9.99961e-01
1.151503026e+00,1.03289e-01,9.99999e-01,9.99999e-01,1.58638e-01,6.51117e-01,9.99966e-01
1.157260541e+00,1.28201e-01,9.99999e-01,9.99999e-01,1.95237e-01,6.56659e-01,9.99974e-01
1.163046844e+00,1.95280e-01,9.99999e-01,9.99999e-01,2.94929e-01,6.62137e-01,9.99983e-01
1.168862078e+00,2.79644e-01,9.99999e-01,9.99999e-01,4.18914e-01,6.67551e-01,9.99991e-01
1.174706389e+00,3.92912e-01,9.99999e-01,9.99999e-01,5.83909e-01,6.72901e-01,9.99995e-01
1.180579921e+00,4.87837e-01,9.99999e-01,9.99999e-01,7.19326e-01,6.78187e-01,9.99996e-01
1.186482820e+00,5.66831e-01,9.99999e-01,9.99986e-01,8.29427e-01,6.83409e-01,9.99997e-01
1.192415234e+00,5.96230e-01,9.99999e-01,9.64815e-01,8.96475e-01,6.88567e-01,9.99997e-01
1.198377311e+00,3.37009e-01,9.99999e-01,5.24516e-01,9.12209e-01,6.93661e-01,9.99997e-01
1.204369197e+00,8.08611e-28,9.99999e-01,1.21705e-27,9.16846e-01,6.98691e-01,9.99998e-01
1.210391043e+00,5.02490e-112,9.99999e-01,7.47924e-112,9.20194e-01,7.03657e-01,9.99998e-01
1.216442998e+00,5.74618e-97,9.99999e-01,8.47311e-97,9.31545e-01,7.08559e-01,9.99998e-01
1.222525213e+00,1.65651e-95,9.99999e-01,2.38889e-95,9.46270e-01,7.13397e-01,9.99999e-01
1.228637839e+00,1.04067e-73,9.99999e-01,1.48692e-73,9.62395e-01,7.18172e-01,9.99999e-01
