#,Wave/freq,Total,O2,CO2,H2O,Rayleigh,CIA
4.000000000e-01,1.24262e-02,9.99999e-01,9.99999e-01,9.99990e-01,1.24263e-02,9.99999e-01
4.020000000e-01,1.35525e-02,9.99999e-01,9.99999e-01,9.99994e-01,1.35525e-02,9.99999e-01
4.040100000e-01,1.47542e-02,9.99999e-01,9.99999e-01,9.99997e-01,1.47543e-02,9.99999e-01
4.060300500e-01,1.60356e-02,9.99999e-01,9.99999e-01,9.99998e-01,1.60356e-02,9.99999e-01
4.080602003e-01,1.73996e-02,9.99999e-01,9.99999e-01,9.99999e-01,1.73996e-02,9.99999e-01
4.101005013e-01,1.88492e-02,9.99999e-01,9.99999e-01,9.99999e-01,1.88492e-02,9.99999e-01
4.121510038e-01,2.03874e-02,9.99999e-01,9.99999e-01,9.99999e-01,2.03874e-02,9.99999e-01
4.142117588e-01,2.20168e-02,9.99999e-01,9.99999e-01,9.99997e-01,2.20169e-02,9.99999e-01
4.162828176e-01,2.37403e-02,9.99999e-01,9.99999e-01,9.99988e-01,2.37405e-02,9.99999e-01
4.183642317e-01,2.55609e-02,9.99999e-01,9.99999e-01,9.99993e-01,2.55610e-02,9.99999e-01
4.204560528e-01,2.74809e-02,9.99999e-01,9.99999e-01,9.99995e-01,2.74810e-02,9.99999e-01
4.225583331e-01,2.95029e-02,9.99999e-01,9.99999e-01,9.99998e-01,2.95030e-02,9.99999e-01
4.246711247e-01,3.16293e-02,9.99999e-01,9.99999e-01,9.99998e-01,3.16293e-02,9.99999e-01
4.267944804e-01,3.38622e-02,9.99999e-01,9.99999e-01,9.99997e-01,3.38623e-02,9.99999e-01
4.289284528e-01,3.62041e-02,9.99999e-01,9.99999e-01,9.99998e-01,3.62041e-02,9.99999e-01
4.310730950e-01,3.86568e-02,9.99999e-01,9.99999e-01,9.99998e-01,3.86568e-02,9.99999e-01
4.332284605e-01,4.12223e-02,9.99999e-01,9.99999e-01,9.99999e-01,4.12223e-02,9.99999e-01
4.353946028e-01,4.39022e-02,9.99999e-01,9.99999e-01,9.99999e-01,4.39022e-02,9.99999e-01
4.375715758e-01,4.66982e-02,9.99999e-01,9.99999e-01,9.99998e-01,4.66983e-02,9.99999e-01
4.397594337e-01,4.96114e-02,9.99999e-01,9.99999e-01,9.99990e-01,4.96119e-02,9.99999e-01
4.419582309e-01,5.26417e-02,9.99999e-01,9.99999e-01,9.99951e-01,5.26442e-02,9.99999e-01
4.441680220e-01,5.57945e-02,9.99999e-01,9.99999e-01,9.99962e-01,5.57965e-02,9.99999e-01
4.463888621e-01,5.90674e-02,9.99999e-01,9.99999e-01,9.99960e-01,5.90697e-02,9.99999e-01
4.486208064e-01,6.24630e-02,9.99999e-01,9.99999e-01,9.99975e-01,6.24645e-02,9.99999e-01
4.508639105e-01,6.59808e-02,9.99999e-01,9.99999e-01,9.99988e-01,6.59816e-02,9.99999e-01
4.531182300e-01,6.96210e-02,9.99999e-01,9.99999e-01,9.99995e-01,6.96213e-02,9.99999e-01
4.553838212e-01,7.33837e-02,9.99999e-01,9.99999e-01,9.99996e-01,7.33839e-02,9.99999e-01
4.576607403e-01,7.72694e-02,9.99999e-01,9.99999e-01,9.99998e-01,7.72695e-02,9.99999e-01
4.599490440e-01,8.12778e-02,9.99999e-01,9.99999e-01,9.99998e-01,8.12779e-02,9.99999e-01
4.622487892e-01,8.54089e-02,9.99999e-01,9.99999e-01,9.99999e-01,8.54089e-02,9.99999e-01
4.645600332e-01,8.96620e-02,9.99999e-01,9.99999e-01,9.99998e-01,8.96621e-02,9.99999e-01
4.668828333e-01,9.40356e-02,9.99999e-01,9.99999e-01,9.99988e-01,9.40367e-02,9.99999e-01
4.692172475e-01,9.85296e-02,9.99999e-01,9.99999e-01,9.99975e-01,9.85320e-02,9.99999e-01
4.715633337e-01,1.03145e-01,9.99999e-01,9.99999e-01,9.99983e-01,1.03147e-01,9.99999e-01
4.739211504e-01,1.07879e-01,9.99999e-01,9.99999e-01,9.99984e-01,1.07881e-01,9.99999e-01
4.762907561e-01,1.12731e-01,9.99999e-01,9.99999e-01,9.99991e-01,1.12731e-01,9.99999e-01
4.786722099e-01,1.17698e-01,9.99999e-01,9.99999e-01,9.99996e-01,1.17698e-01,9.99999e-01
4.810655710e-01,1.22779e-01,9.99999e-01,9.99999e-01,9.99998e-01,1.22779e-01,9.99999e-01
4.834708988e-01,1.27971e-01,9.99999e-01,9.99999e-01,9.99990e-01,1.27972e-01,9.99999e-01
4.858882533e-01,1.33274e-01,9.99999e-01,9.99999e-01,9.99982e-01,1.33276e-01,9.99999e-01
4.883176946e-01,1.38687e-01,9.99999e-01,9.99999e-01,9.99985e-01,1.38689e-01,9.99999e-01
4.907592831e-01,1.44206e-01,9.99999e-01,9.99999e-01,9.99986e-01,1.44207e-01,9.99999e-01
4.932130795e-01,1.49829e-01,9.99999e-01,9.99999e-01,9.99990e-01,1.49830e-01,9.99999e-01
4.956791449e-01,1.55554e-01,9.99999e-01,9.99999e-01,9.99994e-01,1.55555e-01,9.99999e-01
4.981575406e-01,1.61375e-01,9.99999e-01,9.99999e-01,9.99975e-01,1.61379e-01,9.99999e-01
5.006483283e-01,1.67288e-01,9.99999e-01,9.99999e-01,9.99935e-01,1.67299e-01,9.99999e-01
5.031515699e-01,1.73257e-01,9.99999e-01,9.99999e-01,9.99679e-01,1.73313e-01,9.99999e-01
5.056673278e-01,1.79388e-01,9.99999e-01,9.99999e-01,9.99831e-01,1.79418e-01,9.99999e-01
5.081956644e-01,1.85572e-01,9.99999e-01,9.99999e-01,9.99787e-01,1.85611e-01,9.99999e-01
5.107366428e-01,1.91862e-01,9.99999e-01,9.99999e-01,9.99856e-01,1.91889e-01,9.99999e-01
5.132903260e-01,1.98233e-01,9.99999e-01,9.99999e-01,9.99917e-01,1.98250e-01,9.99999e-01
5.158567776e-01,2.04682e-01,9.99999e-01,9.99999e-01,9.99965e-01,2.04689e-01,9.99999e-01
5.184360615e-01,2.11201e-01,9.99999e-01,9.99999e-01,9.99985e-01,2.11204e-01,9.99999e-01
5.210282418e-01,2.17790e-01,9.99999e-01,9.99999e-01,9.99994e-01,2.17791e-01,9.99999e-01
5.236333830e-01,2.24443e-01,9.99999e-01,9.99999e-01,9.99978e-01,2.24448e-01,9.99999e-01
5.262515499e-01,2.31168e-01,9.99999e-01,9.99999e-01,9.99986e-01,2.31171e-01,9.99999e-01
5.288828077e-01,2.37953e-01,9.99999e-01,9.99999e-01,9.99987e-01,2.37956e-01,9.99999e-01
5.315272217e-01,2.44798e-01,9.99999e-01,9.99999e-01,9.99989e-01,2.44801e-01,9.99999e-01
5.341848578e-01,2.51699e-01,9.99999e-01,9.99999e-01,9.99992e-01,2.51701e-01,9.99999e-01
5.368557821e-01,2.58648e-01,9.99999e-01,9.99999e-01,9.99975e-01,2.58654e-01,9.99999e-01
5.395400610e-01,2.65632e-01,9.99999e-01,9.99999e-01,9.99910e-01,2.65656e-01,9.99999e-01
5.422377613e-01,2.72673e-01,9.99999e-01,9.99999e-01,9.99886e-01,2.72703e-01,9.99999e-01
5.449489501e-01,2.79763e-01,9.99999e-01,9.99999e-01,9.99893e-01,2.79793e-01,9.99999e-01
5.476736949e-01,2.86895e-01,9.99999e-01,9.99999e-01,9.99906e-01,2.86922e-01,9.99999e-01
5.504120634e-01,2.94066e-01,9.99999e-01,9.99999e-01,9.99932e-01,2.94086e-01,9.99999e-01
5.531641237e-01,3.01271e-01,9.99999e-01,9.99999e-01,9.99965e-01,3.01282e-01,9.99999e-01
5.559299443e-01,3.08501e-01,9.99999e-01,9.99999e-01,9.99983e-01,3.08506e-01,9.99999e-01
5.587095940e-01,3.15753e-01,9.99999e-01,9.99999e-01,9.99989e-01,3.15757e-01,9.99999e-01
5.615031420e-01,3.23025e-01,9.99999e-01,9.99999e-01,9.99988e-01,3.23029e-01,9.99999e-01
5.643106577e-01,3.30316e-01,9.99999e-01,9.99999e-01,9.99986e-01,3.30320e-01,9.99999e-01
5.671322110e-01,3.37573e-01,9.99999e-01,9.99999e-01,9.99838e-01,3.37627e-01,9.99999e-01
5.699678720e-01,3.44889e-01,9.99999e-01,9.99999e-01,9.99833e-01,3.44947e-01,9.99999e-01
5.728177114e-01,3.52214e-01,9.99999e-01,9.99999e-01,9.99824e-01,3.52276e-01,9.99999e-01
5.756818000e-01,3.59553e-01,9.99999e-01,9.99999e-01,9.99839e-01,3.59611e-01,9.99999e-01
5.785602090e-01,3.66898e-01,9.99999e-01,9.99999e-01,9.99859e-01,3.66949e-01,9.99999e-01
5.814530100e-01,3.74236e-01,9.99999e-01,9.99999e-01,9.99858e-01,3.74288e-01,9.99999e-01
5.843602750e-01,3.81560e-01,9.99999e-01,9.99999e-01,9.99830e-01,3.81625e-01,9.99999e-01
5.872820764e-01,3.88389e-01,9.99999e-01,9.99999e-01,9.98543e-01,3.88956e-01,9.99999e-01
5.902184868e-01,3.95586e-01,9.99999e-01,9.99999e-01,9.98252e-01,3.96279e-01,9.99999e-01
5.931695792e-01,4.03091e-01,9.99999e-01,9.99999e-01,9.98761e-01,4.03591e-01,9.99999e-01
5.961354271e-01,4.10333e-01,9.99999e-01,9.99999e-01,9.98645e-01,4.10889e-01,9.99999e-01
5.991161043e-01,4.17759e-01,9.99999e-01,9.99999e-01,9.99013e-01,4.18172e-01,9.99999e-01
6.021116848e-01,4.25198e-01,9.99999e-01,9.99999e-01,9.99440e-01,4.25436e-01,9.99999e-01
6.051222432e-01,4.32556e-01,9.99999e-01,9.99999e-01,9.99716e-01,4.32678e-01,9.99999e-01
6.081478544e-01,4.39844e-01,9.99999e-01,9.99999e-01,9.99877e-01,4.39898e-01,9.99999e-01
6.111885937e-01,4.47069e-01,9.99999e-01,9.99999e-01,9.99948e-01,4.47092e-01,9.99999e-01
6.142445367e-01,4.54247e-01,9.99999e-01,9.99999e-01,9.99976e-01,4.54257e-01,9.99999e-01
6.173157594e-01,4.61387e-01,9.99999e-01,9.99999e-01,9.99986e-01,4.61393e-01,9.99999e-01
6.204023382e-01,4.68492e-01,9.99999e-01,9.99999e-01,9.99988e-01,4.68497e-01,9.99999e-01
6.235043498e-01,4.75543e-01,9.99999e-01,9.99999e-01,9.99951e-01,4.75566e-01,9.99999e-01
6.266218716e-01,4.82478e-01,9.99999e-01,9.99999e-01,9.99747e-01,4.82599e-01,9.99999e-01
6.297549810e-01,4.89550e-01,9.99999e-01,9.99999e-01,9.99907e-01,4.89595e-01,9.99999e-01
6.329037559e-01,4.96460e-01,9.99999e-01,9.99999e-01,9.99817e-01,4.96550e-01,9.99999e-01
6.360682746e-01,5.03386e-01,9.99999e-01,9.99999e-01,9.99843e-01,5.03464e-01,9.99999e-01
6.392486160e-01,5.10233e-01,9.99999e-01,9.99999e-01,9.99798e-01,5.10335e-01,9.99999e-01
6.424448591e-01,5.17021e-01,9.99999e-01,9.99999e-01,9.99727e-01,5.17161e-01,9.99999e-01
6.456570834e-01,5.23280e-01,9.99999e-01,9.99999e-01,9.98736e-01,5.23941e-01,9.99999e-01
6.488853688e-01,5.30189e-01,9.99999e-01,9.99999e-01,9.99085e-01,5.30674e-01,9.99999e-01
6.521297956e-01,5.36856e-01,9.99999e-01,9.99999e-01,9.99068e-01,5.37357e-01,9.99999e-01
6.553904446e-01,5.43483e-01,9.99999e-01,9.99999e-01,9.99068e-01,5.43990e-01,9.99999e-01
6.586673968e-01,5.50134e-01,9.99999e-01,9.99999e-01,9.99205e-01,5.50571e-01,9.99999e-01
6.619607338e-01,5.56854e-01,9.99999e-01,9.99999e-01,9.99557e-01,5.57100e-01,9.99999e-01
6.652705375e-01,5.63425e-01,9.99999e-01,9.99999e-01,9.99734e-01,5.63575e-01,9.99999e-01
6.685968902e-01,5.69931e-01,9.99999e-01,9.99999e-01,9.99886e-01,5.69995e-01,9.99999e-01
6.719398746e-01,5.76326e-01,9.99999e-01,9.99999e-01,9.99942e-01,5.76359e-01,9.99999e-01
6.752995740e-01,5.82649e-01,9.99999e-01,9.99999e-01,9.99969e-01,5.82666e-01,9.99999e-01
6.786760719e-01,5.88890e-01,9.99999e-01,9.99999e-01,9.99954e-01,5.88916e-01,9.99999e-01
6.820694522e-01,5.95061e-01,9.99999e-01,9.99999e-01,9.99921e-01,5.95108e-01,9.99999e-01
6.854797995e-01,6.01180e-01,9.99999e-01,9.99999e-01,9.99900e-01,6.01240e-01,9.99999e-01
6.889071985e-01,6.07164e-01,9.99999e-01,9.99999e-01,9.99755e-01,6.07312e-01,9.99999e-01
6.923517345e-01,6.10904e-01,9.99999e-01,9.99999e-01,9.96053e-01,6.13324e-01,9.99999e-01
6.958134932e-01,6.18032e-01,9.99999e-01,9.99999e-01,9.97991e-01,6.19276e-01,9.99999e-01
6.992925606e-01,6.23947e-01,9.99999e-01,9.99999e-01,9.98050e-01,6.25165e-01,9.99999e-01
7.027890234e-01,6.29488e-01,9.99999e-01,9.99999e-01,9.97614e-01,6.30993e-01,9.99999e-01
7.063029686e-01,6.35480e-01,9.99999e-01,9.99999e-01,9.97992e-01,6.36758e-01,9.99999e-01
7.098344834e-01,6.41223e-01,9.99999e-01,9.99999e-01,9.98074e-01,6.42460e-01,9.99999e-01
7.133836558e-01,6.46413e-01,9.99999e-01,9.99999e-01,9.97397e-01,6.48100e-01,9.99999e-01
7.169505741e-01,6.40133e-01,9.99999e-01,9.99999e-01,9.79282e-01,6.53676e-01,9.99999e-01
7.205353270e-01,6.52612e-01,9.99999e-01,9.99999e-01,9.90024e-01,6.59188e-01,9.99999e-01
7.241380036e-01,6.56087e-01,9.99999e-01,9.99999e-01,9.87135e-01,6.64637e-01,9.99999e-01
7.277586936e-01,6.62246e-01,9.99999e-01,9.99999e-01,9.88395e-01,6.70022e-01,9.99999e-01
7.313974871e-01,6.67078e-01,9.99999e-01,9.99999e-01,9.87763e-01,6.75342e-01,9.99999e-01
7.350544745e-01,6.76034e-01,9.99999e-01,9.99999e-01,9.93292e-01,6.80599e-01,9.99999e-01
7.387297469e-01,6.82409e-01,9.99999e-01,9.99999e-01,9.95067e-01,6.85791e-01,9.99999e-01
7.424233956e-01,6.89256e-01,9.99999e-01,9.99999e-01,9.97591e-01,6.90920e-01,9.99999e-01
7.461355126e-01,6.94967e-01,9.99999e-01,9.99999e-01,9.98537e-01,6.95984e-01,9.99999e-01
7.498661902e-01,7.00509e-01,9.99999e-01,9.99999e-01,9.99320e-01,7.00984e-01,9.99999e-01
7.536155211e-01,7.05685e-01,9.99999e-01,9.99999e-01,9.99665e-01,7.05921e-01,9.99999e-01
7.573835987e-01,7.10671e-01,9.99999e-01,9.99999e-01,9.99827e-01,7.10794e-01,9.99999e-01
7.611705167e-01,7.15526e-01,9.99999e-01,9.99999e-01,9.99892e-01,7.15603e-01,9.99999e-01
7.649763693e-01,7.20300e-01,9.99999e-01,9.99999e-01,9.99932e-01,7.20348e-01,9.99999e-01
7.688012511e-01,7.24997e-01,9.99999e-01,9.99999e-01,9.99952e-01,7.25031e-01,9.99999e-01
7.726452574e-01,7.29622e-01,9.99999e-01,9.99999e-01,9.99961e-01,7.29650e-01,9.99999e-01
7.765084837e-01,7.34166e-01,9.99999e-01,9.99999e-01,9.99944e-01,7.34207e-01,9.99999e-01
7.803910261e-01,7.26775e-01,9.99999e-01,9.84085e-01,9.99760e-01,7.38701e-01,9.99999e-01
7.842929812e-01,6.95925e-01,9.99999e-01,9.37237e-01,9.99166e-01,7.43134e-01,9.99999e-01
7.882144461e-01,6.95651e-01,9.99999e-01,9.32188e-01,9.98298e-01,7.47504e-01,9.99999e-01
7.921555184e-01,7.21483e-01,9.99999e-01,9.60539e-01,9.99071e-01,7.51813e-01,9.99999e-01
7.961162960e-01,7.34976e-01,9.99999e-01,9.73721e-01,9.98339e-01,7.56062e-01,9.99999e-01
8.000968774e-01,7.47910e-01,9.99999e-01,9.85644e-01,9.98094e-01,7.60249e-01,9.99999e-01
8.040973618e-01,7.57254e-01,9.99999e-01,9.92574e-01,9.98090e-01,7.64377e-01,9.99999e-01
8.081178486e-01,7.62494e-01,9.99999e-01,9.96571e-01,9.95667e-01,7.68444e-01,9.99999e-01
8.121584379e-01,7.57792e-01,9.99999e-01,9.98951e-01,9.82044e-01,7.72453e-01,9.99999e-01
8.162192301e-01,7.59862e-01,9.99999e-01,9.99768e-01,9.78920e-01,7.76402e-01,9.99999e-01
8.203003262e-01,7.71845e-01,9.99999e-01,9.99996e-01,9.89175e-01,7.80293e-01,9.99999e-01
8.244018279e-01,7.72574e-01,9.99999e-01,9.99999e-01,9.85267e-01,7.84126e-01,9.99999e-01
8.285238370e-01,7.77903e-01,9.99999e-01,9.99999e-01,9.87309e-01,7.87902e-01,9.99999e-01
8.326664562e-01,7.81503e-01,9.99999e-01,9.99999e-01,9.87219e-01,7.91620e-01,9.99999e-01
8.368297885e-01,7.88039e-01,9.99999e-01,9.99999e-01,9.90891e-01,7.95283e-01,9.99999e-01
8.410139374e-01,7.94563e-01,9.99999e-01,9.99999e-01,9.94584e-01,7.98889e-01,9.99999e-01
8.452190071e-01,8.00311e-01,9.99999e-01,9.99999e-01,9.97346e-01,8.02440e-01,9.99999e-01
8.494451021e-01,8.04691e-01,9.99999e-01,9.99999e-01,9.98454e-01,8.05936e-01,9.99999e-01
8.536923276e-01,8.08641e-01,9.99999e-01,9.99999e-01,9.99088e-01,8.09378e-01,9.99999e-01
8.579607893e-01,8.12309e-01,9.99999e-01,9.99999e-01,9.99437e-01,8.12766e-01,9.99999e-01
8.622505932e-01,8.15810e-01,9.99999e-01,9.99999e-01,9.99643e-01,8.16101e-01,9.99999e-01
8.665618462e-01,7.84040e-01,9.99999e-01,9.57071e-01,9.99778e-01,8.19384e-01,9.99999e-01
8.708946554e-01,6.94921e-01,9.99999e-01,8.44981e-01,9.99745e-01,8.22614e-01,9.99999e-01
8.752491287e-01,7.22592e-01,9.99999e-01,8.75320e-01,9.99660e-01,8.25793e-01,9.99999e-01
8.796253743e-01,7.70831e-01,9.99999e-01,9.30354e-01,9.99527e-01,8.28921e-01,9.99999e-01
8.840235012e-01,8.01172e-01,9.99999e-01,9.63463e-01,9.99461e-01,8.31999e-01,9.99999e-01
8.884436187e-01,8.21303e-01,9.99999e-01,9.85532e-01,9.97994e-01,8.35027e-01,9.99999e-01
8.928858368e-01,8.15810e-01,9.99999e-01,9.94108e-01,9.79260e-01,8.38006e-01,9.99999e-01
8.973502660e-01,8.09425e-01,9.99999e-01,9.98574e-01,9.63889e-01,8.40936e-01,9.99999e-01
9.018370173e-01,8.28127e-01,9.99999e-01,9.99843e-01,9.81554e-01,8.43819e-01,9.99998e-01
9.063462024e-01,8.29234e-01,9.99999e-01,9.95810e-01,9.83490e-01,8.46654e-01,9.99998e-01
9.108779334e-01,8.20114e-01,9.99999e-01,9.90687e-01,9.74500e-01,8.49442e-01,9.99998e-01
9.154323231e-01,8.25843e-01,9.99999e-01,9.97832e-01,9.71174e-01,8.52185e-01,9.99998e-01
9.200094847e-01,8.08204e-01,9.99999e-01,9.66746e-01,9.77390e-01,8.54881e-01,9.99998e-01
9.246095321e-01,7.89521e-01,9.99999e-01,9.55103e-01,9.63591e-01,8.57533e-01,9.99997e-01
9.292325798e-01,6.48802e-01,9.99999e-01,9.64033e-01,7.80928e-01,8.60140e-01,9.99996e-01
9.338787427e-01,6.07656e-01,9.99999e-01,9.65725e-01,7.28025e-01,8.62704e-01,9.99995e-01
9.385481364e-01,7.43159e-01,9.99999e-01,9.74746e-01,8.80574e-01,8.65224e-01,9.99994e-01
9.432408771e-01,7.12788e-01,9.99999e-01,9.84530e-01,8.34033e-01,8.67702e-01,9.99994e-01
9.479570815e-01,6.69307e-01,9.99999e-01,9.92020e-01,7.75212e-01,8.70137e-01,9.99995e-01
9.526968669e-01,7.22004e-01,9.99999e-01,9.96152e-01,8.30539e-01,8.72531e-01,9.99996e-01
9.574603512e-01,7.38844e-01,9.99999e-01,9.98355e-01,8.45855e-01,8.74885e-01,9.99997e-01
9.622476530e-01,7.65970e-01,9.99999e-01,9.99487e-01,8.73637e-01,8.77198e-01,9.99997e-01
9.670588912e-01,8.13525e-01,9.99999e-01,9.99846e-01,9.25156e-01,8.79471e-01,9.99998e-01
9.718941857e-01,8.40038e-01,9.99999e-01,9.99988e-01,9.52753e-01,8.81705e-01,9.99998e-01
9.767536566e-01,8.49098e-01,9.99999e-01,9.99999e-01,9.60626e-01,8.83900e-01,9.99999e-01
9.816374249e-01,8.60175e-01,9.99999e-01,9.99999e-01,9.70788e-01,8.86057e-01,9.99999e-01
9.865456120e-01,8.71898e-01,9.99999e-01,9.99999e-01,9.81671e-01,8.88177e-01,9.99999e-01
9.914783401e-01,8.80141e-01,9.99999e-01,9.99999e-01,9.88633e-01,8.90260e-01,9.99999e-01
9.964357318e-01,8.86772e-01,9.99999e-01,9.99999e-01,9.93796e-01,8.92306e-01,9.99999e-01
1.001417910e+00,8.90991e-01,9.99999e-01,9.99999e-01,9.96281e-01,8.94317e-01,9.99999e-01
1.006425000e+00,8.94387e-01,9.99999e-01,9.99999e-01,9.97873e-01,8.96292e-01,9.99999e-01
1.011457125e+00,8.97050e-01,9.99999e-01,9.99999e-01,9.98683e-01,8.98233e-01,9.99999e-01
1.016514411e+00,8.99333e-01,9.99999e-01,9.99999e-01,9.99104e-01,9.00139e-01,9.99999e-01
1.021596983e+00,9.01345e-01,9.99999e-01,9.99974e-01,9.99286e-01,9.02011e-01,9.99999e-01
1.026704968e+00,9.01870e-01,9.99999e-01,9.98363e-01,9.99442e-01,9.03851e-01,9.99999e-01
1.031838492e+00,8.81107e-01,9.99999e-01,9.73276e-01,9.99595e-01,9.05657e-01,9.99999e-01
1.036997685e+00,2.87484e-01,9.99999e-01,3.16875e-01,9.99759e-01,9.07432e-01,9.99999e-01
1.042182673e+00,3.53863e-01,9.99999e-01,3.89319e-01,9.99711e-01,9.09174e-01,9.99999e-01
1.047393587e+00,3.17399e-01,9.99999e-01,3.48572e-01,9.99618e-01,9.10886e-01,9.99999e-01
1.052630555e+00,5.96073e-02,9.99999e-01,6.53457e-02,9.99476e-01,9.12567e-01,9.99999e-01
1.057893707e+00,1.08282e-01,9.99999e-01,1.18526e-01,9.99124e-01,9.14217e-01,9.99999e-01
1.063183176e+00,1.95593e-01,9.99999e-01,2.13823e-01,9.98560e-01,9.15838e-01,9.99999e-01
1.068499092e+00,3.27836e-01,9.99999e-01,3.58133e-01,9.97594e-01,9.17430e-01,9.99999e-01
1.073841587e+00,4.81120e-01,9.99999e-01,5.24894e-01,9.97178e-01,9.18993e-01,9.99999e-01
1.079210795e+00,6.10926e-01,9.99999e-01,6.65970e-01,9.96398e-01,9.20528e-01,9.99999e-01
1.084606849e+00,7.35100e-01,9.99999e-01,8.01545e-01,9.94540e-01,9.22035e-01,9.99999e-01
1.090029883e+00,8.17078e-01,9.99999e-01,8.91702e-01,9.92107e-01,9.23514e-01,9.99999e-01
1.095480033e+00,8.55762e-01,9.99999e-01,9.45240e-01,9.78681e-01,9.24967e-01,9.99998e-01
1.100957433e+00,8.53569e-01,9.99999e-01,9.73259e-01,9.46590e-01,9.26393e-01,9.99998e-01
1.106462220e+00,7.96897e-01,9.99999e-01,9.88879e-01,8.68418e-01,9.27793e-01,9.99997e-01
1.111994531e+00,6.87665e-01,9.99999e-01,9.95865e-01,7.43059e-01,9.29168e-01,9.99995e-01
1.117554504e+00,5.73512e-01,9.99999e-01,9.98994e-01,6.16905e-01,9.30517e-01,9.99993e-01
1.123142276e+00,6.49332e-01,9.99999e-01,9.99934e-01,6.96863e-01,9.31841e-01,9.99992e-01
1.128757988e+00,7.42267e-01,9.99999e-01,9.99999e-01,7.95454e-01,9.33142e-01,9.99992e-01
1.134401778e+00,5.38612e-01,9.99999e-01,9.99999e-01,5.76419e-01,9.34418e-01,9.99991e-01
1.140073787e+00,8.17852e-01,9.99999e-01,9.99999e-01,8.74086e-01,9.35671e-01,9.99992e-01
1.145774156e+00,7.05854e-01,9.99999e-01,9.99999e-01,7.53396e-01,9.36900e-01,9.99993e-01
1.151503026e+00,6.82411e-01,9.99999e-01,9.99999e-01,7.27437e-01,9.38107e-01,9.99994e-01
1.157260541e+00,7.24406e-01,9.99999e-01,9.99999e-01,7.71227e-01,9.39292e-01,9.99995e-01
1.163046844e+00,7.77017e-01,9.99999e-01,9.99999e-01,8.26215e-01,9.40455e-01,9.99997e-01
1.168862078e+00,8.25427e-01,9.99999e-01,9.99999e-01,8.76625e-01,9.41596e-01,9.99998e-01
1.174706389e+00,8.69153e-01,9.99999e-01,9.99999e-01,9.21967e-01,9.42716e-01,9.99998e-01
1.180579921e+00,8.98334e-01,9.99999e-01,9.99999e-01,9.51811e-01,9.43815e-01,9.99999e-01
1.186482820e+00,9.18909e-01,9.99999e-01,9.99995e-01,9.72503e-01,9.44893e-01,9.99999e-01
1.192415234e+00,9.25204e-01,9.99999e-01,9.94083e-01,9.83858e-01,9.45952e-01,9.99999e-01
1.198377311e+00,5.52756e-01,9.99999e-01,5.90490e-01,9.86351e-01,9.46991e-01,9.99999e-01
1.204369197e+00,4.68872e-06,9.99999e-01,4.98308e-06,9.87083e-01,9.48010e-01,9.99999e-01
1.210391043e+00,1.32916e-18,9.99999e-01,1.41026e-18,9.87653e-01,9.49010e-01,9.99999e-01
1.216442998e+00,2.38553e-16,9.99999e-01,2.52760e-16,9.89511e-01,9.49992e-01,9.99999e-01
1.222525213e+00,4.20264e-16,9.99999e-01,4.43867e-16,9.91822e-01,9.50955e-01,9.99999e-01
1.228637839e+00,2.32099e-12,9.99999e-01,2.44826e-12,9.94311e-01,9.51900e-01,9.99999e-01
