#,Wave/freq,Total,CO2,Rayleigh,CIA
4.000000000e-01,5.52545e-09,9.99999e-01,5.52545e-09,9.99999e-01
4.020000000e-01,8.04732e-09,9.99999e-01,8.04732e-09,9.99999e-01
4.040100000e-01,1.16288e-08,9.99999e-01,1.16288e-08,9.99999e-01
4.060300500e-01,1.66825e-08,9.99999e-01,1.66825e-08,9.99999e-01
4.080602003e-01,2.37624e-08,9.99999e-01,2.37624e-08,9.99999e-01
4.101005013e-01,3.36112e-08,9.99999e-01,3.36112e-08,9.99999e-01
4.121510038e-01,4.72177e-08,9.99999e-01,4.72177e-08,9.99999e-01
4.142117588e-01,6.58885e-08,9.99999e-01,6.58885e-08,9.99999e-01
4.162828176e-01,9.13389e-08,9.99999e-01,9.13389e-08,9.99999e-01
4.183642317e-01,1.25806e-07,9.99999e-01,1.25806e-07,9.99999e-01
4.204560528e-01,1.72186e-07,9.99999e-01,1.72186e-07,9.99999e-01
4.225583331e-01,2.34209e-07,9.99999e-01,2.34209e-07,9.99999e-01
4.246711247e-01,3.16644e-07,9.99999e-01,3.16644e-07,9.99999e-01
4.267944804e-01,4.25550e-07,9.99999e-01,4.25550e-07,9.99999e-01
4.289284528e-01,5.68584e-07,9.99999e-01,5.68584e-07,9.99999e-01
4.310730950e-01,7.55358e-07,9.99999e-01,7.55358e-07,9.99999e-01
4.332284605e-01,9.97872e-07,9.99999e-01,9.97872e-07,9.99999e-01
4.353946028e-01,1.31102e-06,9.99999e-01,1.31102e-06,9.99999e-01
4.375715758e-01,1.71317e-06,9.99999e-01,1.71317e-06,9.99999e-01
4.397594337e-01,2.22688e-06,9.99999e-01,2.22688e-06,9.99999e-01
4.419582309e-01,2.87967e-06,9.99999e-01,2.87967e-06,9.99999e-01
4.441680220e-01,3.70497e-06,9.99999e-01,3.70497e-06,9.99999e-01
4.463888621e-01,4.74313e-06,9.99999e-01,4.74313e-06,9.99999e-01
4.486208064e-01,6.04263e-06,9.99999e-01,6.04263e-06,9.99999e-01
4.508639105e-01,7.66143e-06,9.99999e-01,7.66143e-06,9.99999e-01
4.531182300e-01,9.66846e-06,9.99999e-01,9.66846e-06,9.99999e-01
4.553838212e-01,1.21453e-05,9.99999e-01,1.21453e-05,9.99999e-01
4.576607403e-01,1.51881e-05,9.99999e-01,1.51881e-05,9.99999e-01
4.599490440e-01,1.89095e-05,9.99999e-01,1.89095e-05,9.99999e-01
4.622487892e-01,2.34411e-05,9.99999e-01,2.34411e-05,9.99999e-01
4.645600332e-01,2.89356e-05,9.99999e-01,2.89356e-05,9.99999e-01
4.668828333e-01,3.55697e-05,9.99999e-01,3.55697e-05,9.99999e-01
4.692172475e-01,4.35470e-05,9.99999e-01,4.35470e-05,9.99999e-01
4.715633337e-01,5.31006e-05,9.99999e-01,5.31006e-05,9.99999e-01
4.739211504e-01,6.44969e-05,9.99999e-01,6.44969e-05,9.99999e-01
4.762907561e-01,7.80389e-05,9.99999e-01,7.80389e-05,9.99999e-01
4.786722099e-01,9.40694e-05,9.99999e-01,9.40694e-05,9.99999e-01
4.810655710e-01,1.12975e-04,9.99999e-01,1.12975e-04,9.99999e-01
4.834708988e-01,1.35190e-04,9.99999e-01,1.35190e-04,9.99999e-01
4.858882533e-01,1.61202e-04,9.99999e-01,1.61202e-04,9.99999e-01
4.883176946e-01,1.91550e-04,9.99999e-01,1.91550e-04,9.99999e-01
4.907592831e-01,2.26839e-04,9.99999e-01,2.26839e-04,9.99999e-01
4.932130795e-01,2.67732e-04,9.99999e-01,2.67732e-04,9.99999e-01
4.956791449e-01,3.14965e-04,9.99999e-01,3.14965e-04,9.99999e-01
4.981575406e-01,3.69344e-04,9.99999e-01,3.69344e-04,9.99999e-01
5.006483283e-01,4.31750e-04,9.99999e-01,4.31750e-04,9.99999e-01
5.031515699e-01,5.03147e-04,9.99999e-01,5.03147e-04,9.99999e-01
5.056673278e-01,5.84581e-04,9.99999e-01,5.84581e-04,9.99999e-01
5.081956644e-01,6.77185e-04,9.99999e-01,6.77185e-04,9.99999e-01
5.107366428e-01,7.82184e-04,9.99999e-01,7.82184e-04,9.99999e-01
5.132903260e-01,9.00894e-04,9.99999e-01,9.00894e-04,9.99999e-01
5.158567776e-01,1.03473e-03,9.99999e-01,1.03473e-03,9.99999e-01
5.184360615e-01,1.18520e-03,9.99999e-01,1.18520e-03,9.99999e-01
5.210282418e-01,1.35391e-03,9.99999e-01,1.35391e-03,9.99999e-01
5.236333830e-01,1.54258e-03,9.99999e-01,1.54258e-03,9.99999e-01
5.262515499e-01,1.75302e-03,9.99999e-01,1.75302e-03,9.99999e-01
5.288828077e-01,1.98715e-03,9.99999e-01,1.98715e-03,9.99999e-01
5.315272217e-01,2.24697e-03,9.99999e-01,2.24697e-03,9.99999e-01
5.341848578e-01,2.53460e-03,9.99999e-01,2.53460e-03,9.99999e-01
5.368557821e-01,2.85226e-03,9.99999e-01,2.85226e-03,9.99999e-01
5.395400610e-01,3.20225e-03,9.99999e-01,3.20225e-03,9.99999e-01
5.422377613e-01,3.58697e-03,9.99999e-01,3.58697e-03,9.99999e-01
5.449489501e-01,4.00893e-03,9.99999e-01,4.00893e-03,9.99999e-01
5.476736949e-01,4.47069e-03,9.99999e-01,4.47069e-03,9.99999e-01
5.504120634e-01,4.97491e-03,9.99999e-01,4.97491e-03,9.99999e-01
5.531641237e-01,5.52433e-03,9.99999e-01,5.52433e-03,9.99999e-01
5.559299443e-01,6.12174e-03,9.99999e-01,6.12174e-03,9.99999e-01
5.587095940e-01,6.77002e-03,9.99999e-01,6.77002e-03,9.99999e-01
5.615031420e-01,7.47207e-03,9.99999e-01,7.47207e-03,9.99999e-01
5.643106577e-01,8.23087e-03,9.99999e-01,8.23087e-03,9.99999e-01
5.671322110e-01,9.04942e-03,9.99999e-01,9.04942e-03,9.99999e-01
5.699678720e-01,9.93077e-03,9.99999e-01,9.93077e-03,9.99999e-01
5.728177114e-01,1.08780e-02,9.99999e-01,1.08780e-02,9.99999e-01
5.756818000e-01,1.18941e-02,9.99999e-01,1.18941e-02,9.99999e-01
5.785602090e-01,1.29822e-02,9.99999e-01,1.29822e-02,9.99999e-01
5.814530100e-01,1.41453e-02,9.99999e-01,1.41453e-02,9.99999e-01
5.843602750e-01,1.53866e-02,9.99999e-01,1.53866e-02,9.99999e-01
5.872820764e-01,1.67090e-02,9.99999e-01,1.67090e-02,9.99999e-01
5.902184868e-01,1.81156e-02,9.99999e-01,1.81156e-02,9.99999e-01
5.931695792e-01,1.96092e-02,9.99999e-01,1.96092e-02,9.99999e-01
5.961354271e-01,2.11928e-02,9.99999e-01,2.11928e-02,9.99999e-01
5.991161043e-01,2.28692e-02,9.99999e-01,2.28692e-02,9.99999e-01
6.021116848e-01,2.46411e-02,9.99999e-01,2.46411e-02,9.99999e-01
6.051222432e-01,2.65111e-02,9.99999e-01,2.65111e-02,9.99999e-01
6.081478544e-01,2.84819e-02,9.99999e-01,2.84819e-02,9.99999e-01
6.111885937e-01,3.05559e-02,9.99999e-01,3.05559e-02,9.99999e-01
6.142445367e-01,3.27355e-02,9.99999e-01,3.27355e-02,9.99999e-01
6.173157594e-01,3.50228e-02,9.99999e-01,3.50228e-02,9.99999e-01
6.204023382e-01,3.74200e-02,9.99999e-01,3.74200e-02,9.99999e-01
6.235043498e-01,3.99290e-02,9.99999e-01,3.99290e-02,9.99999e-01
6.266218716e-01,4.25516e-02,9.99999e-01,4.25516e-02,9.99999e-01
6.297549810e-01,4.52896e-02,9.99999e-01,4.52896e-02,9.99999e-01
6.329037559e-01,4.81444e-02,9.99999e-01,4.81444e-02,9.99999e-01
6.360682746e-01,5.11174e-02,9.99999e-01,5.11174e-02,9.99999e-01
6.392486160e-01,5.42098e-02,9.99999e-01,5.42098e-02,9.99999e-01
6.424448591e-01,5.74226e-02,9.99999e-01,5.74226e-02,9.99999e-01
6.456570834e-01,6.07567e-02,9.99999e-01,6.07567e-02,9.99999e-01
6.488853688e-01,6.42127e-02,9.99999e-01,6.42127e-02,9.99999e-01
6.521297956e-01,6.77912e-02,9.99999e-01,6.77912e-02,9.99999e-01
6.553904446e-01,7.14925e-02,9.99999e-01,7.14925e-02,9.99999e-01
6.586673968e-01,7.53168e-02,9.99999e-01,7.53168e-02,9.99999e-01
6.619607338e-01,7.92640e-02,9.99999e-01,7.92640e-02,9.99999e-01
6.652705375e-01,8.33339e-02,9.99999e-01,8.33339e-02,9.99999e-01
6.685968902e-01,8.75263e-02,9.99999e-01,8.75263e-02,9.99999e-01
6.719398746e-01,9.18404e-02,9.99999e-01,9.18404e-02,9.99999e-01
6.752995740e-01,9.62756e-02,9.99999e-01,9.62756e-02,9.99999e-01
6.786760719e-01,1.00831e-01,9.99999e-01,1.00831e-01,9.99999e-01
6.820694522e-01,1.05506e-01,9.99999e-01,1.05506e-01,9.99999e-01
6.854797995e-01,1.10298e-01,9.99999e-01,1.10298e-01,9.99999e-01
6.889071985e-01,1.15207e-01,9.99999e-01,1.15207e-01,9.99999e-01
6.923517345e-01,1.20232e-01,9.99999e-01,1.20232e-01,9.99999e-01
6.958134932e-01,1.25369e-01,9.99999e-01,1.25369e-01,9.99999e-01
6.992925606e-01,1.30618e-01,9.99999e-01,1.30618e-01,9.99999e-01
7.027890234e-01,1.35977e-01,9.99999e-01,1.35977e-01,9.99999e-01
7.063029686e-01,1.41443e-01,9.99999e-01,1.41443e-01,9.99999e-01
7.098344834e-01,1.47014e-01,9.99999e-01,1.47014e-01,9.99999e-01
7.133836558e-01,1.52688e-01,9.99999e-01,1.52688e-01,9.99999e-01
7.169505741e-01,1.58463e-01,9.99999e-01,1.58463e-01,9.99999e-01
7.205353270e-01,1.64335e-01,9.99999e-01,1.64335e-01,9.99999e-01
7.241380036e-01,1.70303e-01,9.99999e-01,1.70303e-01,9.99999e-01
7.277586936e-01,1.76363e-01,9.99999e-01,1.76363e-01,9.99999e-01
7.313974871e-01,1.82512e-01,9.99999e-01,1.82512e-01,9.99999e-01
7.350544745e-01,1.88749e-01,9.99999e-01,1.88749e-01,9.99999e-01
7.387297469e-01,1.95068e-01,9.99999e-01,1.95068e-01,9.99999e-01
7.424233956e-01,2.01469e-01,9.99999e-01,2.01469e-01,9.99999e-01
7.461355126e-01,2.07946e-01,9.99999e-01,2.07946e-01,9.99999e-01
7.498661902e-01,2.14498e-01,9.99999e-01,2.14498e-01,9.99999e-01
7.536155211e-01,2.21121e-01,9.99999e-01,2.21121e-01,9.99999e-01
7.573835987e-01,2.27811e-01,9.99999e-01,2.27811e-01,9.99999e-01
7.611705167e-01,2.34565e-01,9.99999e-01,2.34565e-01,9.99999e-01
7.649763693e-01,2.41381e-01,9.99999e-01,2.41381e-01,9.99999e-01
7.688012511e-01,2.48254e-01,9.99999e-01,2.48254e-01,9.99999e-01
7.726452574e-01,2.55181e-01,9.99999e-01,2.55181e-01,9.99999e-01
7.765084837e-01,2.62159e-01,9.99999e-01,2.62159e-01,9.99999e-01
7.803910261e-01,2.54943e-01,9.47093e-01,2.69184e-01,9.99999e-01
7.842929812e-01,2.10216e-01,7.60954e-01,2.76253e-01,9.99999e-01
7.882144461e-01,2.12559e-01,7.50130e-01,2.83363e-01,9.99999e-01
7.921555184e-01,2.44751e-01,8.42487e-01,2.90509e-01,9.99999e-01
7.961162960e-01,2.64876e-01,8.89771e-01,2.97690e-01,9.99999e-01
8.000968774e-01,2.86235e-01,9.38779e-01,3.04901e-01,9.99999e-01
8.040973618e-01,3.02003e-01,9.67528e-01,3.12139e-01,9.99999e-01
8.081178486e-01,3.14633e-01,9.85073e-01,3.19401e-01,9.99999e-01
8.121584379e-01,3.25147e-01,9.95298e-01,3.26683e-01,9.99999e-01
8.162192301e-01,3.33635e-01,9.98958e-01,3.33982e-01,9.99999e-01
8.203003262e-01,3.41290e-01,9.99981e-01,3.41296e-01,9.99999e-01
8.244018279e-01,3.48620e-01,9.99999e-01,3.48620e-01,9.99999e-01
8.285238370e-01,3.55953e-01,9.99999e-01,3.55953e-01,9.99999e-01
8.326664562e-01,3.63290e-01,9.99999e-01,3.63290e-01,9.99999e-01
8.368297885e-01,3.70629e-01,9.99999e-01,3.70629e-01,9.99999e-01
8.410139374e-01,3.77967e-01,9.99999e-01,3.77967e-01,9.99999e-01
8.452190071e-01,3.85301e-01,9.99999e-01,3.85301e-01,9.99999e-01
8.494451021e-01,3.92629e-01,9.99999e-01,3.92629e-01,9.99999e-01
8.536923276e-01,3.99946e-01,9.99999e-01,3.99946e-01,9.99999e-01
8.579607893e-01,4.07252e-01,9.99999e-01,4.07252e-01,9.99999e-01
8.622505932e-01,4.14543e-01,9.99999e-01,4.14543e-01,9.99999e-01
8.665618462e-01,3.80979e-01,9.03187e-01,4.21816e-01,9.99999e-01
8.708946554e-01,2.18322e-01,5.08826e-01,4.29070e-01,9.99999e-01
8.752491287e-01,2.49950e-01,5.72884e-01,4.36301e-01,9.99999e-01
8.796253743e-01,3.25008e-01,7.32811e-01,4.43508e-01,9.99999e-01
8.840235012e-01,3.83174e-01,8.50196e-01,4.50688e-01,9.99999e-01
8.884436187e-01,4.29173e-01,9.37388e-01,4.57839e-01,9.99999e-01
8.928858368e-01,4.52995e-01,9.74268e-01,4.64959e-01,9.99999e-01
8.973502660e-01,4.69032e-01,9.93613e-01,4.72046e-01,9.99999e-01
9.018370173e-01,4.78758e-01,9.99291e-01,4.79097e-01,9.99999e-01
9.063462024e-01,4.77937e-01,9.83183e-01,4.86112e-01,9.99999e-01
9.108779334e-01,4.73294e-01,9.59858e-01,4.93087e-01,9.99999e-01
9.154323231e-01,4.95152e-01,9.90258e-01,5.00022e-01,9.99999e-01
9.200094847e-01,4.45808e-01,8.79452e-01,5.06915e-01,9.99999e-01
9.246095321e-01,4.20795e-01,8.19043e-01,5.13764e-01,9.99999e-01
9.292325798e-01,4.46957e-01,8.58597e-01,5.20567e-01,9.99999e-01
9.338787427e-01,4.53571e-01,8.60137e-01,5.27323e-01,9.99999e-01
9.385481364e-01,4.77886e-01,8.94865e-01,5.34031e-01,9.99999e-01
9.432408771e-01,5.04836e-01,9.33690e-01,5.40689e-01,9.99999e-01
9.479570815e-01,5.28465e-01,9.65590e-01,5.47296e-01,9.99999e-01
9.526968669e-01,5.44554e-01,9.83212e-01,5.53852e-01,9.99999e-01
9.574603512e-01,5.56306e-01,9.92776e-01,5.60353e-01,9.99999e-01
9.622476530e-01,5.65519e-01,9.97737e-01,5.66801e-01,9.99999e-01
9.670588912e-01,5.72802e-01,9.99318e-01,5.73193e-01,9.99999e-01
9.718941857e-01,5.79500e-01,9.99949e-01,5.79529e-01,9.99999e-01
9.767536566e-01,5.85807e-01,9.99999e-01,5.85807e-01,9.99999e-01
9.816374249e-01,5.92028e-01,9.99999e-01,5.92028e-01,9.99999e-01
9.865456120e-01,5.98190e-01,9.99999e-01,5.98190e-01,9.99999e-01
9.914783401e-01,6.04292e-01,9.99999e-01,6.04292e-01,9.99999e-01
9.964357318e-01,6.10334e-01,9.99999e-01,6.10334e-01,9.99999e-01
1.001417910e+00,6.16316e-01,9.99999e-01,6.16316e-01,9.99999e-01
1.006425000e+00,6.22236e-01,9.99999e-01,6.22236e-01,9.99999e-01
1.011457125e+00,6.28095e-01,9.99999e-01,6.28095e-01,9.99999e-01
1.016514411e+00,6.33891e-01,9.99999e-01,6.33891e-01,9.99999e-01
1.021596983e+00,6.39577e-01,9.99924e-01,6.39625e-01,9.99999e-01
1.026704968e+00,6.41047e-01,9.93415e-01,6.45296e-01,9.99999e-01
1.031838492e+00,6.11995e-01,9.40223e-01,6.50903e-01,9.99999e-01
1.036997685e+00,5.92716e-02,9.02913e-02,6.56448e-01,9.99999e-01
1.042182673e+00,1.69879e-02,2.56642e-02,6.61928e-01,9.99999e-01
1.047393587e+00,3.08189e-02,4.61814e-02,6.67345e-01,9.99999e-01
1.052630555e+00,8.26287e-05,1.22832e-04,6.72697e-01,9.99999e-01
1.057893707e+00,2.67361e-04,3.94345e-04,6.77986e-01,9.99999e-01
1.063183176e+00,1.99687e-03,2.92277e-03,6.83211e-01,9.99999e-01
1.068499092e+00,1.02066e-02,1.48271e-02,6.88371e-01,9.99999e-01
1.073841587e+00,4.70389e-02,6.78314e-02,6.93467e-01,9.99999e-01
1.079210795e+00,1.27346e-01,1.82314e-01,6.98499e-01,9.99999e-01
1.084606849e+00,2.71398e-01,3.85801e-01,7.03468e-01,9.99999e-01
1.090029883e+00,4.31475e-01,6.09108e-01,7.08372e-01,9.99999e-01
1.095480033e+00,5.58076e-01,7.82481e-01,7.13213e-01,9.99999e-01
1.100957433e+00,6.37805e-01,8.88320e-01,7.17990e-01,9.99999e-01
1.106462220e+00,6.88075e-01,9.52083e-01,7.22704e-01,9.99999e-01
1.111994531e+00,7.14234e-01,9.81960e-01,7.27355e-01,9.99999e-01
1.117554504e+00,7.28670e-01,9.95528e-01,7.31943e-01,9.99999e-01
1.123142276e+00,7.36249e-01,9.99702e-01,7.36468e-01,9.99999e-01
1.128757988e+00,7.40931e-01,9.99999e-01,7.40931e-01,9.99999e-01
1.134401778e+00,7.45333e-01,9.99999e-01,7.45333e-01,9.99999e-01
1.140073787e+00,7.49673e-01,9.99999e-01,7.49673e-01,9.99999e-01
1.145774156e+00,7.53951e-01,9.99999e-01,7.53951e-01,9.99999e-01
1.151503026e+00,7.58169e-01,9.99999e-01,7.58169e-01,9.99999e-01
1.157260541e+00,7.62326e-01,9.99999e-01,7.62326e-01,9.99999e-01
1.163046844e+00,7.66424e-01,9.99999e-01,7.66424e-01,9.99999e-01
1.168862078e+00,7.70461e-01,9.99999e-01,7.70461e-01,9.99999e-01
1.174706389e+00,7.74440e-01,9.99999e-01,7.74440e-01,9.99999e-01
1.180579921e+00,7.78360e-01,9.99999e-01,7.78360e-01,9.99999e-01
1.186482820e+00,7.82218e-01,9.99993e-01,7.82222e-01,9.99999e-01
1.192415234e+00,7.68145e-01,9.77250e-01,7.86026e-01,9.99999e-01
1.198377311e+00,4.30448e-01,5.45027e-01,7.89773e-01,9.99999e-01
1.204369197e+00,9.88395e-19,1.24567e-18,7.93464e-01,9.99999e-01
1.210391043e+00,4.65062e-73,5.83444e-73,7.97098e-01,9.99999e-01
1.216442998e+00,2.40825e-63,3.00777e-63,8.00676e-01,9.99999e-01
1.222525213e+00,2.08030e-62,2.58679e-62,8.04200e-01,9.99999e-01
1.228637839e+00,2.82893e-48,3.50259e-48,8.07669e-01,9.99999e-01
1.234781029e+00,7.78821e-37,9.60222e-37,8.11083e-01,9.99999e-01
1.240954934e+00,2.21122e-20,2.71500e-20,8.14445e-01,9.99999e-01
1.247159708e+00,3.28528e-13,4.01744e-13,8.17754e-01,9.99999e-01
1.253395507e+00,5.97080e-07,7.27250e-07,8.21010e-01,9.99999e-01
1.259662485e+00,1.49309e-04,1.81153e-04,8.24214e-01,9.99999e-01
1.265960797e+00,8.02730e-03,9.70221e-03,8.27368e-01,9.99999e-01
1.272290601e+00,9.20052e-02,1.10787e-01,8.30471e-01,9.99999e-01
1.278652054e+00,9.58648e-02,1.15011e-01,8.33523e-01,9.99999e-01
1.285045314e+00,7.20486e-04,8.61282e-04,8.36527e-01,9.99999e-01
1.291470541e+00,4.34788e-09,5.17924e-09,8.39481e-01,9.99999e-01
1.297927893e+00,1.95019e-04,2.31507e-04,8.42388e-01,9.99999e-01
1.304417533e+00,2.00926e-02,2.37713e-02,8.45246e-01,9.99999e-01
1.310939621e+00,5.12581e-03,6.04417e-03,8.48058e-01,9.99999e-01
1.317494319e+00,2.50784e-25,2.94754e-25,8.50823e-01,9.99999e-01
1.324081790e+00,6.04730e-17,7.08494e-17,8.53543e-01,9.99999e-01
1.330702199e+00,4.70306e-10,5.49284e-10,8.56217e-01,9.99999e-01
1.337355710e+00,1.84134e-09,2.14397e-09,8.58846e-01,9.99999e-01
1.344042489e+00,7.61070e-10,8.83494e-10,8.61431e-01,9.99999e-01
1.350762701e+00,2.45948e-10,2.84670e-10,8.63973e-01,9.99999e-01
1.357516515e+00,1.12563e-06,1.29910e-06,8.66472e-01,9.99999e-01
1.364304097e+00,7.97122e-05,9.17362e-05,8.68928e-01,9.99999e-01
1.371125618e+00,7.27937e-03,8.35419e-03,8.71343e-01,9.99999e-01
1.377981246e+00,1.53989e-02,1.76246e-02,8.73716e-01,9.99999e-01
1.384871152e+00,8.35219e-02,9.53391e-02,8.76049e-01,9.99999e-01
1.391795508e+00,9.95715e-02,1.13363e-01,8.78342e-01,9.99999e-01
1.398754485e+00,2.27563e-01,2.58420e-01,8.80596e-01,9.99999e-01
1.405748258e+00,3.26828e-01,3.70212e-01,8.82810e-01,9.99999e-01
1.412776999e+00,4.70942e-01,5.32146e-01,8.84986e-01,9.99999e-01
1.419840884e+00,4.33645e-01,4.88820e-01,8.87125e-01,9.99999e-01
1.426940089e+00,2.51696e-02,2.83050e-02,8.89226e-01,9.99999e-01
1.434074789e+00,0.00000e+00,0.00000e+00,8.91290e-01,9.99999e-01
1.441245163e+00,0.00000e+00,0.00000e+00,8.93319e-01,9.99999e-01
1.448451389e+00,0.00000e+00,0.00000e+00,8.95312e-01,9.99999e-01
1.455693646e+00,0.00000e+00,0.00000e+00,8.97269e-01,9.99999e-01
1.462972114e+00,1.16010e-289,1.29016e-289,8.99193e-01,9.99999e-01
1.470286975e+00,1.63378e-120,1.81313e-120,9.01082e-01,9.99999e-01
1.477638409e+00,6.29301e-76,6.96948e-76,9.02938e-01,9.99999e-01
1.485026601e+00,1.65866e-42,1.83326e-42,9.04760e-01,9.99999e-01
1.492451734e+00,3.08533e-36,3.40337e-36,9.06551e-01,9.99999e-01
1.499913993e+00,4.76646e-16,5.24761e-16,9.08309e-01,9.99999e-01
1.507413563e+00,8.50297e-15,9.34354e-15,9.10036e-01,9.99999e-01
1.514950631e+00,3.05061e-16,3.34594e-16,9.11733e-01,9.99999e-01
1.522525384e+00,4.06887e-54,4.45465e-54,9.13398e-01,9.99999e-01
1.530138011e+00,1.43504e-128,1.56829e-128,9.15034e-01,9.99999e-01
1.537788701e+00,3.12266e-95,3.40664e-95,9.16640e-01,9.99999e-01
1.545477645e+00,1.72174e-20,1.87509e-20,9.18217e-01,9.99999e-01
1.553205033e+00,7.58018e-15,8.24141e-15,9.19766e-01,9.99999e-01
1.560971058e+00,3.29956e-15,3.58146e-15,9.21287e-01,9.99999e-01
1.568775913e+00,0.00000e+00,0.00000e+00,9.22780e-01,9.99999e-01
1.576619793e+00,0.00000e+00,0.00000e+00,9.24246e-01,9.99999e-01
1.584502892e+00,0.00000e+00,0.00000e+00,9.25685e-01,9.99999e-01
1.592425406e+00,8.72583e-290,9.41197e-290,9.27098e-01,9.99999e-01
1.600387533e+00,0.00000e+00,0.00000e+00,9.28485e-01,9.99999e-01
1.608389471e+00,0.00000e+00,0.00000e+00,9.29847e-01,9.99999e-01
1.616431418e+00,0.00000e+00,0.00000e+00,9.31184e-01,9.99999e-01
1.624513575e+00,0.00000e+00,0.00000e+00,9.32496e-01,9.99999e-01
1.632636143e+00,2.25839e-273,2.41853e-273,9.33785e-01,9.99999e-01
1.640799324e+00,1.10193e-111,1.17847e-111,9.35049e-01,9.99999e-01
1.649003321e+00,1.10334e-111,1.17841e-111,9.36290e-01,9.99999e-01
1.657248337e+00,2.06350e-86,2.20104e-86,9.37508e-01,9.99999e-01
1.665534579e+00,5.50710e-87,5.86670e-87,9.38704e-01,9.99999e-01
1.673862252e+00,1.23094e-55,1.30968e-55,9.39878e-01,9.99999e-01
1.682231563e+00,1.15024e-38,1.22232e-38,9.41030e-01,9.99999e-01
1.690642721e+00,1.08097e-21,1.14733e-21,9.42160e-01,9.99999e-01
1.699095934e+00,5.79075e-14,6.13901e-14,9.43269e-01,9.99999e-01
1.707591414e+00,1.67275e-07,1.77131e-07,9.44358e-01,9.99999e-01
1.716129371e+00,1.20667e-04,1.27632e-04,9.45427e-01,9.99999e-01
1.724710018e+00,5.72749e-03,6.05138e-03,9.46475e-01,9.99999e-01
1.733333568e+00,3.32821e-02,3.51260e-02,9.47504e-01,9.99999e-01
1.742000236e+00,1.34151e-01,1.41433e-01,9.48514e-01,9.99999e-01
1.750710237e+00,1.17809e-03,1.24074e-03,9.49505e-01,9.99999e-01
1.759463788e+00,4.01108e-53,4.22006e-53,9.50477e-01,9.99999e-01
1.768261107e+00,1.34390e-55,1.41250e-55,9.51431e-01,9.99999e-01
1.777102413e+00,4.62353e-54,4.85477e-54,9.52367e-01,9.99999e-01
1.785987925e+00,9.08807e-51,9.53341e-51,9.53286e-01,9.99999e-01
1.794917864e+00,1.73899e-48,1.82248e-48,9.54187e-01,9.99999e-01
1.803892454e+00,1.23729e-46,1.29549e-46,9.55071e-01,9.99999e-01
1.812911916e+00,8.32215e-45,8.70572e-45,9.55939e-01,9.99999e-01
1.821976476e+00,7.07309e-45,7.39251e-45,9.56790e-01,9.99999e-01
1.831086358e+00,4.01621e-36,4.19392e-36,9.57625e-01,9.99999e-01
1.840241790e+00,8.33402e-31,8.69536e-31,9.58444e-01,9.99999e-01
1.849442999e+00,1.88690e-21,1.96706e-21,9.59248e-01,9.99999e-01
1.858690214e+00,3.89764e-20,4.05988e-20,9.60037e-01,9.99999e-01
1.867983665e+00,9.57220e-21,9.96262e-21,9.60811e-01,9.99999e-01
1.877323583e+00,3.60034e-101,3.74423e-101,9.61570e-01,9.99999e-01
