#,Wave/freq,Total,CO2,Rayleigh,CIA
4.000000000e-01,8.51507e-04,9.99999e-01,8.51507e-04,9.99999e-01
4.020000000e-01,9.79241e-04,9.99999e-01,9.79241e-04,9.99999e-01
4.040100000e-01,1.12286e-03,9.99999e-01,1.12286e-03,9.99999e-01
4.060300500e-01,1.28407e-03,9.99999e-01,1.28407e-03,9.99999e-01
4.080602003e-01,1.46455e-03,9.99999e-01,1.46455e-03,9.99999e-01
4.101005013e-01,1.66605e-03,9.99999e-01,1.66605e-03,9.99999e-01
4.121510038e-01,1.89045e-03,9.99999e-01,1.89045e-03,9.99999e-01
4.142117588e-01,2.13974e-03,9.99999e-01,2.13974e-03,9.99999e-01
4.162828176e-01,2.41597e-03,9.99999e-01,2.41597e-03,9.99999e-01
4.183642317e-01,2.72134e-03,9.99999e-01,2.72134e-03,9.99999e-01
4.204560528e-01,3.05810e-03,9.99999e-01,3.05810e-03,9.99999e-01
4.225583331e-01,3.42863e-03,9.99999e-01,3.42863e-03,9.99999e-01
4.246711247e-01,3.83538e-03,9.99999e-01,3.83538e-03,9.99999e-01
4.267944804e-01,4.28089e-03,9.99999e-01,4.28089e-03,9.99999e-01
4.289284528e-01,4.76779e-03,9.99999e-01,4.76779e-03,9.99999e-01
4.310730950e-01,5.29878e-03,9.99999e-01,5.29878e-03,9.99999e-01
4.332284605e-01,5.87664e-03,9.99999e-01,5.87664e-03,9.99999e-01
4.353946028e-01,6.50421e-03,9.99999e-01,6.50421e-03,9.99999e-01
4.375715758e-01,7.18438e-03,9.99999e-01,7.18438e-03,9.99999e-01
4.397594337e-01,7.92010e-03,9.99999e-01,7.92010e-03,9.99999e-01
4.419582309e-01,8.71437e-03,9.99999e-01,8.71437e-03,9.99999e-01
4.441680220e-01,9.57021e-03,9.99999e-01,9.57021e-03,9.99999e-01
4.463888621e-01,1.04907e-02,9.99999e-01,1.04907e-02,9.99999e-01
4.486208064e-01,1.14788e-02,9.99999e-01,1.14788e-02,9.99999e-01
4.508639105e-01,1.25377e-02,9.99999e-01,1.25377e-02,9.99999e-01
4.531182300e-01,1.36705e-02,9.99999e-01,1.36705e-02,9.99999e-01
4.553838212e-01,1.48801e-02,9.99999e-01,1.48801e-02,9.99999e-01
4.576607403e-01,1.61697e-02,9.99999e-01,1.61697e-02,9.99999e-01
4.599490440e-01,1.75422e-02,9.99999e-01,1.75422e-02,9.99999e-01
4.622487892e-01,1.90007e-02,9.99999e-01,1.90007e-02,9.99999e-01
4.645600332e-01,2.05479e-02,9.99999e-01,2.05479e-02,9.99999e-01
4.668828333e-01,2.21868e-02,9.99999e-01,2.21868e-02,9.99999e-01
4.692172475e-01,2.39201e-02,9.99999e-01,2.39201e-02,9.99999e-01
4.715633337e-01,2.57505e-02,9.99999e-01,2.57505e-02,9.99999e-01
4.739211504e-01,2.76807e-02,9.99999e-01,2.76807e-02,9.99999e-01
4.762907561e-01,2.97131e-02,9.99999e-01,2.97131e-02,9.99999e-01
4.786722099e-01,3.18501e-02,9.99999e-01,3.18501e-02,9.99999e-01
4.810655710e-01,3.40940e-02,9.99999e-01,3.40940e-02,9.99999e-01
4.834708988e-01,3.64470e-02,9.99999e-01,3.64470e-02,9.99999e-01
4.858882533e-01,3.89110e-02,9.99999e-01,3.89110e-02,9.99999e-01
4.883176946e-01,4.14879e-02,9.99999e-01,4.14879e-02,9.99999e-01
4.907592831e-01,4.41796e-02,9.99999e-01,4.41796e-02,9.99999e-01
4.932130795e-01,4.69874e-02,9.99999e-01,4.69874e-02,9.99999e-01
4.956791449e-01,4.99130e-02,9.99999e-01,4.99130e-02,9.99999e-01
4.981575406e-01,5.29574e-02,9.99999e-01,5.29574e-02,9.99999e-01
5.006483283e-01,5.61219e-02,9.99999e-01,5.61219e-02,9.99999e-01
5.031515699e-01,5.94073e-02,9.99999e-01,5.94073e-02,9.99999e-01
5.056673278e-01,6.28145e-02,9.99999e-01,6.28145e-02,9.99999e-01
5.081956644e-01,6.63439e-02,9.99999e-01,6.63439e-02,9.99999e-01
5.107366428e-01,6.99960e-02,9.99999e-01,6.99960e-02,9.99999e-01
5.132903260e-01,7.37711e-02,9.99999e-01,7.37711e-02,9.99999e-01
5.158567776e-01,7.76691e-02,9.99999e-01,7.76691e-02,9.99999e-01
5.184360615e-01,8.16899e-02,9.99999e-01,8.16899e-02,9.99999e-01
5.210282418e-01,8.58333e-02,9.99999e-01,8.58333e-02,9.99999e-01
5.236333830e-01,9.00987e-02,9.99999e-01,9.00987e-02,9.99999e-01
5.262515499e-01,9.44856e-02,9.99999e-01,9.44856e-02,9.99999e-01
5.288828077e-01,9.89930e-02,9.99999e-01,9.89930e-02,9.99999e-01
5.315272217e-01,1.03620e-01,9.99999e-01,1.03620e-01,9.99999e-01
5.341848578e-01,1.08366e-01,9.99999e-01,1.08366e-01,9.99999e-01
5.368557821e-01,1.13228e-01,9.99999e-01,1.13228e-01,9.99999e-01
5.395400610e-01,1.18207e-01,9.99999e-01,1.18207e-01,9.99999e-01
5.422377613e-01,1.23299e-01,9.99999e-01,1.23299e-01,9.99999e-01
5.449489501e-01,1.28503e-01,9.99999e-01,1.28503e-01,9.99999e-01
5.476736949e-01,1.33818e-01,9.99999e-01,1.33818e-01,9.99999e-01
5.504120634e-01,1.39242e-01,9.99999e-01,1.39242e-01,9.99999e-01
5.531641237e-01,1.44771e-01,9.99999e-01,1.44771e-01,9.99999e-01
5.559299443e-01,1.50404e-01,9.99999e-01,1.50404e-01,9.99999e-01
5.587095940e-01,1.56139e-01,9.99999e-01,1.56139e-01,9.99999e-01
5.615031420e-01,1.61973e-01,9.99999e-01,1.61973e-01,9.99999e-01
5.643106577e-01,1.67903e-01,9.99999e-01,1.67903e-01,9.99999e-01
5.671322110e-01,1.73926e-01,9.99999e-01,1.73926e-01,9.99999e-01
5.699678720e-01,1.80040e-01,9.99999e-01,1.80040e-01,9.99999e-01
5.728177114e-01,1.86242e-01,9.99999e-01,1.86242e-01,9.99999e-01
5.756818000e-01,1.92529e-01,9.99999e-01,1.92529e-01,9.99999e-01
5.785602090e-01,1.98897e-01,9.99999e-01,1.98897e-01,9.99999e-01
5.814530100e-01,2.05344e-01,9.99999e-01,2.05344e-01,9.99999e-01
5.843602750e-01,2.11866e-01,9.99999e-01,2.11866e-01,9.99999e-01
5.872820764e-01,2.18461e-01,9.99999e-01,2.18461e-01,9.99999e-01
5.902184868e-01,2.25125e-01,9.99999e-01,2.25125e-01,9.99999e-01
5.931695792e-01,2.31854e-01,9.99999e-01,2.31854e-01,9.99999e-01
5.961354271e-01,2.38645e-01,9.99999e-01,2.38645e-01,9.99999e-01
5.991161043e-01,2.45496e-01,9.99999e-01,2.45496e-01,9.99999e-01
6.021116848e-01,2.52402e-01,9.99999e-01,2.52402e-01,9.99999e-01
6.051222432e-01,2.59359e-01,9.99999e-01,2.59359e-01,9.99999e-01
6.081478544e-01,2.66366e-01,9.99999e-01,2.66366e-01,9.99999e-01
6.111885937e-01,2.73418e-01,9.99999e-01,2.73418e-01,9.99999e-01
6.142445367e-01,2.80512e-01,9.99999e-01,2.80512e-01,9.99999e-01
6.173157594e-01,2.87644e-01,9.99999e-01,2.87644e-01,9.99999e-01
6.204023382e-01,2.94812e-01,9.99999e-01,2.94812e-01,9.99999e-01
6.235043498e-01,3.02011e-01,9.99999e-01,3.02011e-01,9.99999e-01
6.266218716e-01,3.09238e-01,9.99999e-01,3.09238e-01,9.99999e-01
6.297549810e-01,3.16491e-01,9.99999e-01,3.16491e-01,9.99999e-01
6.329037559e-01,3.23765e-01,9.99999e-01,3.23765e-01,9.99999e-01
6.360682746e-01,3.31058e-01,9.99999e-01,3.31058e-01,9.99999e-01
6.392486160e-01,3.38367e-01,9.99999e-01,3.38367e-01,9.99999e-01
6.424448591e-01,3.45687e-01,9.99999e-01,3.45687e-01,9.99999e-01
6.456570834e-01,3.53017e-01,9.99999e-01,3.53017e-01,9.99999e-01
6.488853688e-01,3.60352e-01,9.99999e-01,3.60352e-01,9.99999e-01
6.521297956e-01,3.67691e-01,9.99999e-01,3.67691e-01,9.99999e-01
6.553904446e-01,3.75030e-01,9.99999e-01,3.75030e-01,9.99999e-01
6.586673968e-01,3.82366e-01,9.99999e-01,3.82366e-01,9.99999e-01
6.619607338e-01,3.89696e-01,9.99999e-01,3.89696e-01,9.99999e-01
6.652705375e-01,3.97018e-01,9.99999e-01,3.97018e-01,9.99999e-01
6.685968902e-01,4.04329e-01,9.99999e-01,4.04329e-01,9.99999e-01
6.719398746e-01,4.11626e-01,9.99999e-01,4.11626e-01,9.99999e-01
6.752995740e-01,4.18907e-01,9.99999e-01,4.18907e-01,9.99999e-01
6.786760719e-01,4.26169e-01,9.99999e-01,4.26169e-01,9.99999e-01
6.820694522e-01,4.33409e-01,9.99999e-01,4.33409e-01,9.99999e-01
6.854797995e-01,4.40626e-01,9.99999e-01,4.40626e-01,9.99999e-01
6.889071985e-01,4.47817e-01,9.99999e-01,4.47817e-01,9.99999e-01
6.923517345e-01,4.54980e-01,9.99999e-01,4.54980e-01,9.99999e-01
6.958134932e-01,4.62113e-01,9.99999e-01,4.62113e-01,9.99999e-01
6.992925606e-01,4.69213e-01,9.99999e-01,4.69213e-01,9.99999e-01
7.027890234e-01,4.76279e-01,9.99999e-01,4.76279e-01,9.99999e-01
7.063029686e-01,4.83308e-01,9.99999e-01,4.83308e-01,9.99999e-01
7.098344834e-01,4.90300e-01,9.99999e-01,4.90300e-01,9.99999e-01
7.133836558e-01,4.97251e-01,9.99999e-01,4.97251e-01,9.99999e-01
7.169505741e-01,5.04161e-01,9.99999e-01,5.04161e-01,9.99999e-01
7.205353270e-01,5.11027e-01,9.99999e-01,5.11027e-01,9.99999e-01
7.241380036e-01,5.17849e-01,9.99999e-01,5.17849e-01,9.99999e-01
7.277586936e-01,5.24624e-01,9.99999e-01,5.24624e-01,9.99999e-01
7.313974871e-01,5.31352e-01,9.99999e-01,5.31352e-01,9.99999e-01
7.350544745e-01,5.38030e-01,9.99999e-01,5.38030e-01,9.99999e-01
7.387297469e-01,5.44658e-01,9.99999e-01,5.44658e-01,9.99999e-01
7.424233956e-01,5.51234e-01,9.99999e-01,5.51234e-01,9.99999e-01
7.461355126e-01,5.57757e-01,9.99999e-01,5.57757e-01,9.99999e-01
7.498661902e-01,5.64226e-01,9.99999e-01,5.64226e-01,9.99999e-01
7.536155211e-01,5.70641e-01,9.99999e-01,5.70641e-01,9.99999e-01
7.573835987e-01,5.76999e-01,9.99999e-01,5.76999e-01,9.99999e-01
7.611705167e-01,5.83301e-01,9.99999e-01,5.83301e-01,9.99999e-01
7.649763693e-01,5.89545e-01,9.99999e-01,5.89545e-01,9.99999e-01
7.688012511e-01,5.95730e-01,9.99999e-01,5.95730e-01,9.99999e-01
7.726452574e-01,6.01856e-01,9.99999e-01,6.01856e-01,9.99999e-01
7.765084837e-01,6.07923e-01,9.99999e-01,6.07923e-01,9.99999e-01
7.803910261e-01,6.00397e-01,9.77957e-01,6.13929e-01,9.99999e-01
7.842929812e-01,5.57988e-01,9.00163e-01,6.19874e-01,9.99999e-01
7.882144461e-01,5.59722e-01,8.94470e-01,6.25757e-01,9.99999e-01
7.921555184e-01,5.92221e-01,9.37684e-01,6.31578e-01,9.99999e-01
7.961162960e-01,6.10155e-01,9.57350e-01,6.37337e-01,9.99999e-01
8.000968774e-01,6.28072e-01,9.76732e-01,6.43033e-01,9.99999e-01
8.040973618e-01,6.40745e-01,9.87788e-01,6.48666e-01,9.99999e-01
8.081178486e-01,6.50586e-01,9.94421e-01,6.54236e-01,9.99999e-01
8.121584379e-01,6.58587e-01,9.98248e-01,6.59742e-01,9.99999e-01
8.162192301e-01,6.64926e-01,9.99612e-01,6.65184e-01,9.99999e-01
8.203003262e-01,6.70558e-01,9.99992e-01,6.70562e-01,9.99999e-01
8.244018279e-01,6.75877e-01,9.99999e-01,6.75877e-01,9.99999e-01
8.285238370e-01,6.81127e-01,9.99999e-01,6.81127e-01,9.99999e-01
8.326664562e-01,6.86313e-01,9.99999e-01,6.86313e-01,9.99999e-01
8.368297885e-01,6.91435e-01,9.99999e-01,6.91435e-01,9.99999e-01
8.410139374e-01,6.96493e-01,9.99999e-01,6.96493e-01,9.99999e-01
8.452190071e-01,7.01486e-01,9.99999e-01,7.01486e-01,9.99999e-01
8.494451021e-01,7.06416e-01,9.99999e-01,7.06416e-01,9.99999e-01
8.536923276e-01,7.11283e-01,9.99999e-01,7.11283e-01,9.99999e-01
8.579607893e-01,7.16085e-01,9.99999e-01,7.16085e-01,9.99999e-01
8.622505932e-01,7.20824e-01,9.99999e-01,7.20824e-01,9.99999e-01
8.665618462e-01,6.85850e-01,9.45347e-01,7.25500e-01,9.99999e-01
8.708946554e-01,5.59011e-01,7.65649e-01,7.30114e-01,9.99999e-01
8.752491287e-01,5.92518e-01,8.06515e-01,7.34664e-01,9.99999e-01
8.796253743e-01,6.57130e-01,8.89031e-01,7.39152e-01,9.99999e-01
8.840235012e-01,6.99769e-01,9.41083e-01,7.43578e-01,9.99999e-01
8.884436187e-01,7.30134e-01,9.76189e-01,7.47943e-01,9.99999e-01
8.928858368e-01,7.44984e-01,9.90346e-01,7.52246e-01,9.99999e-01
8.973502660e-01,7.54687e-01,9.97619e-01,7.56488e-01,9.99999e-01
9.018370173e-01,7.60469e-01,9.99736e-01,7.60669e-01,9.99999e-01
9.063462024e-01,7.59930e-01,9.93644e-01,7.64791e-01,9.99999e-01
9.108779334e-01,7.57205e-01,9.84850e-01,7.68852e-01,9.99999e-01
9.154323231e-01,7.70043e-01,9.96361e-01,7.72854e-01,9.99999e-01
9.200094847e-01,7.37662e-01,9.49618e-01,7.76798e-01,9.99999e-01
9.246095321e-01,7.24518e-01,9.28055e-01,7.80683e-01,9.99999e-01
9.292325798e-01,7.40619e-01,9.44052e-01,7.84510e-01,9.99999e-01
9.338787427e-01,7.44926e-01,9.45001e-01,7.88280e-01,9.99999e-01
9.385481364e-01,7.59810e-01,9.59363e-01,7.91993e-01,9.99999e-01
9.432408771e-01,7.75587e-01,9.74784e-01,7.95650e-01,9.99999e-01
9.479570815e-01,7.88907e-01,9.87058e-01,7.99250e-01,9.99999e-01
9.526968669e-01,7.97754e-01,9.93718e-01,8.02796e-01,9.99999e-01
9.574603512e-01,8.04115e-01,9.97306e-01,8.06286e-01,9.99999e-01
9.622476530e-01,8.09041e-01,9.99157e-01,8.09723e-01,9.99999e-01
9.670588912e-01,8.12900e-01,9.99746e-01,8.13106e-01,9.99999e-01
9.718941857e-01,8.16420e-01,9.99980e-01,8.16435e-01,9.99999e-01
9.767536566e-01,8.19712e-01,9.99999e-01,8.19712e-01,9.99999e-01
9.816374249e-01,8.22938e-01,9.99999e-01,8.22938e-01,9.99999e-01
9.865456120e-01,8.26111e-01,9.99999e-01,8.26111e-01,9.99999e-01
9.914783401e-01,8.29234e-01,9.99999e-01,8.29234e-01,9.99999e-01
9.964357318e-01,8.32307e-01,9.99999e-01,8.32307e-01,9.99999e-01
1.001417910e+00,8.35330e-01,9.99999e-01,8.35330e-01,9.99999e-01
1.006425000e+00,8.38304e-01,9.99999e-01,8.38304e-01,9.99999e-01
1.011457125e+00,8.41230e-01,9.99999e-01,8.41230e-01,9.99999e-01
1.016514411e+00,8.44108e-01,9.99999e-01,8.44108e-01,9.99999e-01
1.021596983e+00,8.46914e-01,9.99971e-01,8.46938e-01,9.99999e-01
1.026704968e+00,8.47630e-01,9.97538e-01,8.49722e-01,9.99999e-01
1.031838492e+00,8.27528e-01,9.70753e-01,8.52459e-01,9.99999e-01
1.036997685e+00,1.86747e-01,2.18379e-01,8.55151e-01,9.99999e-01
1.042182673e+00,1.91950e-01,2.23770e-01,8.57799e-01,9.99999e-01
1.047393587e+00,2.00481e-01,2.33008e-01,8.60401e-01,9.99999e-01
1.052630555e+00,1.50750e-02,1.74689e-02,8.62961e-01,9.99999e-01
1.057893707e+00,3.16191e-02,3.65337e-02,8.65477e-01,9.99999e-01
1.063183176e+00,7.77318e-02,8.95579e-02,8.67950e-01,9.99999e-01
1.068499092e+00,1.70200e-01,1.95546e-01,8.70381e-01,9.99999e-01
1.073841587e+00,3.09829e-01,3.54994e-01,8.72771e-01,9.99999e-01
1.079210795e+00,4.55042e-01,5.19976e-01,8.75120e-01,9.99999e-01
1.084606849e+00,6.12662e-01,6.98246e-01,8.77429e-01,9.99999e-01
1.090029883e+00,7.30555e-01,8.30460e-01,8.79698e-01,9.99999e-01
1.095480033e+00,8.04639e-01,9.12362e-01,8.81928e-01,9.99999e-01
1.100957433e+00,8.45950e-01,9.56826e-01,8.84120e-01,9.99999e-01
1.106462220e+00,8.70218e-01,9.81884e-01,8.86273e-01,9.99999e-01
1.111994531e+00,8.82393e-01,9.93250e-01,8.88389e-01,9.99999e-01
1.117554504e+00,8.88985e-01,9.98333e-01,8.90468e-01,9.99999e-01
1.123142276e+00,8.92412e-01,9.99888e-01,8.92511e-01,9.99999e-01
1.128757988e+00,8.94518e-01,9.99999e-01,8.94518e-01,9.99999e-01
1.134401778e+00,8.96490e-01,9.99999e-01,8.96490e-01,9.99999e-01
1.140073787e+00,8.98427e-01,9.99999e-01,8.98427e-01,9.99999e-01
1.145774156e+00,9.00330e-01,9.99999e-01,9.00330e-01,9.99999e-01
1.151503026e+00,9.02199e-01,9.99999e-01,9.02199e-01,9.99999e-01
1.157260541e+00,9.04035e-01,9.99999e-01,9.04035e-01,9.99999e-01
1.163046844e+00,9.05838e-01,9.99999e-01,9.05838e-01,9.99999e-01
1.168862078e+00,9.07609e-01,9.99999e-01,9.07609e-01,9.99999e-01
1.174706389e+00,9.09349e-01,9.99999e-01,9.09349e-01,9.99999e-01
1.180579921e+00,9.11057e-01,9.99999e-01,9.11057e-01,9.99999e-01
1.186482820e+00,9.12733e-01,9.99997e-01,9.12735e-01,9.99999e-01
1.192415234e+00,9.06422e-01,9.91293e-01,9.14383e-01,9.99999e-01
1.198377311e+00,5.26206e-01,5.74460e-01,9.16001e-01,9.99999e-01
1.204369197e+00,2.23705e-08,2.43796e-08,9.17590e-01,9.99999e-01
1.210391043e+00,1.42034e-28,1.54527e-28,9.19150e-01,9.99999e-01
1.216442998e+00,5.80948e-25,6.30997e-25,9.20682e-01,9.99999e-01
1.222525213e+00,1.31443e-24,1.42534e-24,9.22186e-01,9.99999e-01
1.228637839e+00,5.12711e-19,5.55084e-19,9.23662e-01,9.99999e-01
1.234781029e+00,7.02357e-15,7.59212e-15,9.25112e-01,9.99999e-01
1.240954934e+00,1.12663e-08,1.21596e-08,9.26536e-01,9.99999e-01
1.247159708e+00,1.02465e-05,1.10422e-05,9.27933e-01,9.99999e-01
1.253395507e+00,3.07111e-03,3.30473e-03,9.29305e-01,9.99999e-01
1.259662485e+00,2.74653e-02,2.95119e-02,9.30652e-01,9.99999e-01
1.265960797e+00,1.38777e-01,1.48906e-01,9.31974e-01,9.99999e-01
1.272290601e+00,3.98819e-01,4.27334e-01,9.33272e-01,9.99999e-01
1.278652054e+00,3.77155e-01,4.03570e-01,9.34546e-01,9.99999e-01
1.285045314e+00,1.94323e-02,2.07655e-02,9.35796e-01,9.99999e-01
1.291470541e+00,4.65254e-04,4.96523e-04,9.37024e-01,9.99999e-01
1.297927893e+00,1.60285e-02,1.70838e-02,9.38228e-01,9.99999e-01
1.304417533e+00,2.25030e-01,2.39543e-01,9.39411e-01,9.99999e-01
1.310939621e+00,6.24289e-02,6.63733e-02,9.40571e-01,9.99999e-01
1.317494319e+00,2.71214e-10,2.88001e-10,9.41710e-01,9.99999e-01
1.324081790e+00,2.19548e-07,2.32861e-07,9.42828e-01,9.99999e-01
1.330702199e+00,2.35344e-04,2.49324e-04,9.43925e-01,9.99999e-01
1.337355710e+00,1.99963e-04,2.11600e-04,9.45001e-01,9.99999e-01
1.344042489e+00,6.41745e-05,6.78335e-05,9.46058e-01,9.99999e-01
1.350762701e+00,1.59369e-04,1.68271e-04,9.47095e-01,9.99999e-01
1.357516515e+00,3.23859e-03,3.41583e-03,9.48112e-01,9.99999e-01
1.364304097e+00,2.61292e-02,2.75302e-02,9.49110e-01,9.99999e-01
1.371125618e+00,1.42742e-01,1.50241e-01,9.50090e-01,9.99999e-01
1.377981246e+00,2.07438e-01,2.18115e-01,9.51051e-01,9.99999e-01
1.384871152e+00,3.91893e-01,4.11654e-01,9.51995e-01,9.99999e-01
1.391795508e+00,4.19503e-01,4.40228e-01,9.52920e-01,9.99999e-01
1.398754485e+00,5.75816e-01,6.03689e-01,9.53828e-01,9.99999e-01
1.405748258e+00,6.57543e-01,6.88729e-01,9.54719e-01,9.99999e-01
1.412776999e+00,7.55075e-01,7.90163e-01,9.55593e-01,9.99999e-01
1.419840884e+00,6.96855e-01,7.28583e-01,9.56451e-01,9.99999e-01
1.426940089e+00,8.18285e-02,8.54790e-02,9.57293e-01,9.99999e-01
1.434074789e+00,0.00000e+00,0.00000e+00,9.58118e-01,9.99999e-01
1.441245163e+00,0.00000e+00,0.00000e+00,9.58928e-01,9.99999e-01
1.448451389e+00,0.00000e+00,0.00000e+00,9.59723e-01,9.99999e-01
1.455693646e+00,2.06313e-224,2.14797e-224,9.60503e-01,9.99999e-01
1.462972114e+00,4.21166e-109,4.38136e-109,9.61268e-01,9.99999e-01
1.470286975e+00,3.23287e-46,3.36051e-46,9.62018e-01,9.99999e-01
1.477638409e+00,1.22880e-29,1.27633e-29,9.62754e-01,9.99999e-01
1.485026601e+00,3.78423e-17,3.92768e-17,9.63476e-01,9.99999e-01
1.492451734e+00,1.35562e-14,1.40598e-14,9.64184e-01,9.99999e-01
1.499913993e+00,2.98957e-07,3.09838e-07,9.64879e-01,9.99999e-01
1.507413563e+00,4.72920e-06,4.89788e-06,9.65561e-01,9.99999e-01
1.514950631e+00,1.93288e-07,2.00044e-07,9.66229e-01,9.99999e-01
1.522525384e+00,1.56674e-21,1.62040e-21,9.66885e-01,9.99999e-01
1.530138011e+00,3.77077e-49,3.89731e-49,9.67529e-01,9.99999e-01
1.537788701e+00,9.07298e-37,9.37135e-37,9.68160e-01,9.99999e-01
1.545477645e+00,4.96355e-09,5.12351e-09,9.68779e-01,9.99999e-01
1.553205033e+00,3.64092e-06,3.75591e-06,9.69386e-01,9.99999e-01
1.560971058e+00,1.07753e-06,1.11088e-06,9.69981e-01,9.99999e-01
1.568775913e+00,2.73424e-122,2.81716e-122,9.70565e-01,9.99999e-01
1.576619793e+00,2.04169e-285,2.10237e-285,9.71138e-01,9.99999e-01
1.584502892e+00,4.73716e-156,4.87512e-156,9.71700e-01,9.99999e-01
1.592425406e+00,4.55024e-109,4.68010e-109,9.72251e-01,9.99999e-01
1.600387533e+00,4.03030e-175,4.14301e-175,9.72792e-01,9.99999e-01
1.608389471e+00,1.05536e-293,1.08429e-293,9.73322e-01,9.99999e-01
1.616431418e+00,1.50003e-295,1.54032e-295,9.73842e-01,9.99999e-01
1.624513575e+00,2.70797e-138,2.77925e-138,9.74352e-01,9.99999e-01
1.632636143e+00,4.85336e-103,4.97855e-103,9.74852e-01,9.99999e-01
1.640799324e+00,6.19771e-43,6.35438e-43,9.75343e-01,9.99999e-01
1.649003321e+00,6.70744e-43,6.87361e-43,9.75824e-01,9.99999e-01
1.657248337e+00,1.80728e-33,1.85115e-33,9.76296e-01,9.99999e-01
1.665534579e+00,1.12825e-33,1.15509e-33,9.76758e-01,9.99999e-01
1.673862252e+00,5.02666e-22,5.14388e-22,9.77212e-01,9.99999e-01
1.682231563e+00,1.15684e-15,1.18327e-15,9.77657e-01,9.99999e-01
1.690642721e+00,2.03996e-09,2.08565e-09,9.78094e-01,9.99999e-01
1.699095934e+00,3.83449e-06,3.91865e-06,9.78522e-01,9.99999e-01
1.707591414e+00,1.19742e-03,1.22317e-03,9.78941e-01,9.99999e-01
1.716129371e+00,2.47459e-02,2.52675e-02,9.79353e-01,9.99999e-01
1.724710018e+00,1.34327e-01,1.37102e-01,9.79757e-01,9.99999e-01
1.733333568e+00,2.74895e-01,2.80461e-01,9.80153e-01,9.99999e-01
1.742000236e+00,4.53373e-01,4.62369e-01,9.80541e-01,9.99999e-01
1.750710237e+00,2.20425e-02,2.24712e-02,9.80921e-01,9.99999e-01
1.759463788e+00,6.25615e-21,6.37539e-21,9.81295e-01,9.99999e-01
1.768261107e+00,4.41198e-22,4.49440e-22,9.81661e-01,9.99999e-01
1.777102413e+00,5.43080e-21,5.53023e-21,9.82020e-01,9.99999e-01
1.785987925e+00,3.44800e-20,3.50987e-20,9.82372e-01,9.99999e-01
1.794917864e+00,4.15580e-19,4.22888e-19,9.82717e-01,9.99999e-01
1.803892454e+00,9.64473e-19,9.81097e-19,9.83055e-01,9.99999e-01
1.812911916e+00,7.75596e-18,7.88698e-18,9.83387e-01,9.99999e-01
1.821976476e+00,4.71052e-18,4.78851e-18,9.83713e-01,9.99999e-01
1.831086358e+00,8.51305e-15,8.65119e-15,9.84032e-01,9.99999e-01
1.840241790e+00,1.48256e-12,1.50614e-12,9.84345e-01,9.99999e-01
1.849442999e+00,7.67118e-09,7.79075e-09,9.84651e-01,9.99999e-01
1.858690214e+00,4.46697e-08,4.53521e-08,9.84952e-01,9.99999e-01
1.867983665e+00,7.81190e-09,7.92886e-09,9.85247e-01,9.99999e-01
1.877323583e+00,5.76418e-39,5.84877e-39,9.85537e-01,9.99999e-01
