#,Wave/freq,Total,CO2,Rayleigh,CIA
4.000000000e-01,2.88422e-03,9.99999e-01,2.88422e-03,9.99999e-01
4.020000000e-01,3.23782e-03,9.99999e-01,3.23782e-03,9.99999e-01
4.040100000e-01,3.62603e-03,9.99999e-01,3.62603e-03,9.99999e-01
4.060300500e-01,4.05171e-03,9.99999e-01,4.05171e-03,9.99999e-01
4.080602003e-01,4.51746e-03,9.99999e-01,4.51746e-03,9.99999e-01
4.101005013e-01,5.02592e-03,9.99999e-01,5.02592e-03,9.99999e-01
4.121510038e-01,5.57985e-03,9.99999e-01,5.57985e-03,9.99999e-01
4.142117588e-01,6.18204e-03,9.99999e-01,6.18204e-03,9.99999e-01
4.162828176e-01,6.83538e-03,9.99999e-01,6.83538e-03,9.99999e-01
4.183642317e-01,7.54278e-03,9.99999e-01,7.54278e-03,9.99999e-01
4.204560528e-01,8.30721e-03,9.99999e-01,8.30721e-03,9.99999e-01
4.225583331e-01,9.13169e-03,9.99999e-01,9.13169e-03,9.99999e-01
4.246711247e-01,1.00193e-02,9.99999e-01,1.00193e-02,9.99999e-01
4.267944804e-01,1.09730e-02,9.99999e-01,1.09730e-02,9.99999e-01
4.289284528e-01,1.19959e-02,9.99999e-01,1.19959e-02,9.99999e-01
4.310730950e-01,1.30911e-02,9.99999e-01,1.30911e-02,9.99999e-01
4.332284605e-01,1.42617e-02,9.99999e-01,1.42617e-02,9.99999e-01
4.353946028e-01,1.55107e-02,9.99999e-01,1.55107e-02,9.99999e-01
4.375715758e-01,1.68411e-02,9.99999e-01,1.68411e-02,9.99999e-01
4.397594337e-01,1.82559e-02,9.99999e-01,1.82559e-02,9.99999e-01
4.419582309e-01,1.97581e-02,9.99999e-01,1.97581e-02,9.99999e-01
4.441680220e-01,2.13505e-02,9.99999e-01,2.13505e-02,9.99999e-01
4.463888621e-01,2.30360e-02,9.99999e-01,2.30360e-02,9.99999e-01
4.486208064e-01,2.48172e-02,9.99999e-01,2.48172e-02,9.99999e-01
4.508639105e-01,2.66969e-02,9.99999e-01,2.66969e-02,9.99999e-01
4.531182300e-01,2.86775e-02,9.99999e-01,2.86775e-02,9.99999e-01
4.553838212e-01,3.07616e-02,9.99999e-01,3.07616e-02,9.99999e-01
4.576607403e-01,3.29515e-02,9.99999e-01,3.29515e-02,9.99999e-01
4.599490440e-01,3.52493e-02,9.99999e-01,3.52493e-02,9.99999e-01
4.622487892e-01,3.76572e-02,9.99999e-01,3.76572e-02,9.99999e-01
4.645600332e-01,4.01771e-02,9.99999e-01,4.01771e-02,9.99999e-01
4.668828333e-01,4.28108e-02,9.99999e-01,4.28108e-02,9.99999e-01
4.692172475e-01,4.55600e-02,9.99999e-01,4.55600e-02,9.99999e-01
4.715633337e-01,4.84261e-02,9.99999e-01,4.84261e-02,9.99999e-01
4.739211504e-01,5.14106e-02,9.99999e-01,5.14106e-02,9.99999e-01
4.762907561e-01,5.45146e-02,9.99999e-01,5.45146e-02,9.99999e-01
4.786722099e-01,5.77390e-02,9.99999e-01,5.77390e-02,9.99999e-01
4.810655710e-01,6.10849e-02,9.99999e-01,6.10849e-02,9.99999e-01
4.834708988e-01,6.45527e-02,9.99999e-01,6.45527e-02,9.99999e-01
4.858882533e-01,6.81431e-02,9.99999e-01,6.81431e-02,9.99999e-01
4.883176946e-01,7.18562e-02,9.99999e-01,7.18562e-02,9.99999e-01
4.907592831e-01,7.56924e-02,9.99999e-01,7.56924e-02,9.99999e-01
4.932130795e-01,7.96514e-02,9.99999e-01,7.96514e-02,9.99999e-01
4.956791449e-01,8.37332e-02,9.99999e-01,8.37332e-02,9.99999e-01
4.981575406e-01,8.79373e-02,9.99999e-01,8.79373e-02,9.99999e-01
5.006483283e-01,9.22632e-02,9.99999e-01,9.22632e-02,9.99999e-01
5.031515699e-01,9.67100e-02,9.99999e-01,9.67100e-02,9.99999e-01
5.056673278e-01,1.01277e-01,9.99999e-01,1.01277e-01,9.99999e-01
5.081956644e-01,1.05963e-01,9.99999e-01,1.05963e-01,9.99999e-01
5.107366428e-01,1.10767e-01,9.99999e-01,1.10767e-01,9.99999e-01
5.132903260e-01,1.15687e-01,9.99999e-01,1.15687e-01,9.99999e-01
5.158567776e-01,1.20722e-01,9.99999e-01,1.20722e-01,9.99999e-01
5.184360615e-01,1.25871e-01,9.99999e-01,1.25871e-01,9.99999e-01
5.210282418e-01,1.31130e-01,9.99999e-01,1.31130e-01,9.99999e-01
5.236333830e-01,1.36500e-01,9.99999e-01,1.36500e-01,9.99999e-01
5.262515499e-01,1.41976e-01,9.99999e-01,1.41976e-01,9.99999e-01
5.288828077e-01,1.47557e-01,9.99999e-01,1.47557e-01,9.99999e-01
5.315272217e-01,1.53241e-01,9.99999e-01,1.53241e-01,9.99999e-01
5.341848578e-01,1.59025e-01,9.99999e-01,1.59025e-01,9.99999e-01
5.368557821e-01,1.64907e-01,9.99999e-01,1.64907e-01,9.99999e-01
5.395400610e-01,1.70884e-01,9.99999e-01,1.70884e-01,9.99999e-01
5.422377613e-01,1.76952e-01,9.99999e-01,1.76952e-01,9.99999e-01
5.449489501e-01,1.83111e-01,9.99999e-01,1.83111e-01,9.99999e-01
5.476736949e-01,1.89355e-01,9.99999e-01,1.89355e-01,9.99999e-01
5.504120634e-01,1.95683e-01,9.99999e-01,1.95683e-01,9.99999e-01
5.531641237e-01,2.02090e-01,9.99999e-01,2.02090e-01,9.99999e-01
5.559299443e-01,2.08575e-01,9.99999e-01,2.08575e-01,9.99999e-01
5.587095940e-01,2.15134e-01,9.99999e-01,2.15134e-01,9.99999e-01
5.615031420e-01,2.21763e-01,9.99999e-01,2.21763e-01,9.99999e-01
5.643106577e-01,2.28460e-01,9.99999e-01,2.28460e-01,9.99999e-01
5.671322110e-01,2.35221e-01,9.99999e-01,2.35221e-01,9.99999e-01
5.699678720e-01,2.42042e-01,9.99999e-01,2.42042e-01,9.99999e-01
5.728177114e-01,2.48920e-01,9.99999e-01,2.48920e-01,9.99999e-01
5.756818000e-01,2.55852e-01,9.99999e-01,2.55852e-01,9.99999e-01
5.785602090e-01,2.62835e-01,9.99999e-01,2.62835e-01,9.99999e-01
5.814530100e-01,2.69864e-01,9.99999e-01,2.69864e-01,9.99999e-01
5.843602750e-01,2.76937e-01,9.99999e-01,2.76937e-01,9.99999e-01
5.872820764e-01,2.84051e-01,9.99999e-01,2.84051e-01,9.99999e-01
5.902184868e-01,2.91201e-01,9.99999e-01,2.91201e-01,9.99999e-01
5.931695792e-01,2.98385e-01,9.99999e-01,2.98385e-01,9.99999e-01
5.961354271e-01,3.05598e-01,9.99999e-01,3.05598e-01,9.99999e-01
5.991161043e-01,3.12839e-01,9.99999e-01,3.12839e-01,9.99999e-01
6.021116848e-01,3.20102e-01,9.99999e-01,3.20102e-01,9.99999e-01
6.051222432e-01,3.27387e-01,9.99999e-01,3.27387e-01,9.99999e-01
6.081478544e-01,3.34688e-01,9.99999e-01,3.34688e-01,9.99999e-01
6.111885937e-01,3.42002e-01,9.99999e-01,3.42002e-01,9.99999e-01
6.142445367e-01,3.49328e-01,9.99999e-01,3.49328e-01,9.99999e-01
6.173157594e-01,3.56661e-01,9.99999e-01,3.56661e-01,9.99999e-01
6.204023382e-01,3.63998e-01,9.99999e-01,3.63998e-01,9.99999e-01
6.235043498e-01,3.71338e-01,9.99999e-01,3.71338e-01,9.99999e-01
6.266218716e-01,3.78675e-01,9.99999e-01,3.78675e-01,9.99999e-01
6.297549810e-01,3.86009e-01,9.99999e-01,3.86009e-01,9.99999e-01
6.329037559e-01,3.93335e-01,9.99999e-01,3.93335e-01,9.99999e-01
6.360682746e-01,4.00652e-01,9.99999e-01,4.00652e-01,9.99999e-01
6.392486160e-01,4.07956e-01,9.99999e-01,4.07956e-01,9.99999e-01
6.424448591e-01,4.15246e-01,9.99999e-01,4.15246e-01,9.99999e-01
6.456570834e-01,4.22517e-01,9.99999e-01,4.22517e-01,9.99999e-01
6.488853688e-01,4.29769e-01,9.99999e-01,4.29769e-01,9.99999e-01
6.521297956e-01,4.36998e-01,9.99999e-01,4.36998e-01,9.99999e-01
6.553904446e-01,4.44202e-01,9.99999e-01,4.44202e-01,9.99999e-01
6.586673968e-01,4.51380e-01,9.99999e-01,4.51380e-01,9.99999e-01
6.619607338e-01,4.58528e-01,9.99999e-01,4.58528e-01,9.99999e-01
6.652705375e-01,4.65645e-01,9.99999e-01,4.65645e-01,9.99999e-01
6.685968902e-01,4.72728e-01,9.99999e-01,4.72728e-01,9.99999e-01
6.719398746e-01,4.79776e-01,9.99999e-01,4.79776e-01,9.99999e-01
6.752995740e-01,4.86787e-01,9.99999e-01,4.86787e-01,9.99999e-01
6.786760719e-01,4.93758e-01,9.99999e-01,4.93758e-01,9.99999e-01
6.820694522e-01,5.00689e-01,9.99999e-01,5.00689e-01,9.99999e-01
6.854797995e-01,5.07578e-01,9.99999e-01,5.07578e-01,9.99999e-01
6.889071985e-01,5.14422e-01,9.99999e-01,5.14422e-01,9.99999e-01
6.923517345e-01,5.21221e-01,9.99999e-01,5.21221e-01,9.99999e-01
6.958134932e-01,5.27973e-01,9.99999e-01,5.27973e-01,9.99999e-01
6.992925606e-01,5.34676e-01,9.99999e-01,5.34676e-01,9.99999e-01
7.027890234e-01,5.41329e-01,9.99999e-01,5.41329e-01,9.99999e-01
7.063029686e-01,5.47931e-01,9.99999e-01,5.47931e-01,9.99999e-01
7.098344834e-01,5.54481e-01,9.99999e-01,5.54481e-01,9.99999e-01
7.133836558e-01,5.60978e-01,9.99999e-01,5.60978e-01,9.99999e-01
7.169505741e-01,5.67420e-01,9.99999e-01,5.67420e-01,9.99999e-01
7.205353270e-01,5.73807e-01,9.99999e-01,5.73807e-01,9.99999e-01
7.241380036e-01,5.80137e-01,9.99999e-01,5.80137e-01,9.99999e-01
7.277586936e-01,5.86410e-01,9.99999e-01,5.86410e-01,9.99999e-01
7.313974871e-01,5.92625e-01,9.99999e-01,5.92625e-01,9.99999e-01
7.350544745e-01,5.98781e-01,9.99999e-01,5.98781e-01,9.99999e-01
7.387297469e-01,6.04878e-01,9.99999e-01,6.04878e-01,9.99999e-01
7.424233956e-01,6.10914e-01,9.99999e-01,6.10914e-01,9.99999e-01
7.461355126e-01,6.16890e-01,9.99999e-01,6.16890e-01,9.99999e-01
7.498661902e-01,6.22804e-01,9.99999e-01,6.22804e-01,9.99999e-01
7.536155211e-01,6.28657e-01,9.99999e-01,6.28657e-01,9.99999e-01
7.573835987e-01,6.34447e-01,9.99999e-01,6.34447e-01,9.99999e-01
7.611705167e-01,6.40175e-01,9.99999e-01,6.40175e-01,9.99999e-01
7.649763693e-01,6.45840e-01,9.99999e-01,6.45840e-01,9.99999e-01
7.688012511e-01,6.51441e-01,9.99999e-01,6.51441e-01,9.99999e-01
7.726452574e-01,6.56979e-01,9.99999e-01,6.56979e-01,9.99999e-01
7.765084837e-01,6.62454e-01,9.99999e-01,6.62454e-01,9.99999e-01
7.803910261e-01,6.55527e-01,9.81526e-01,6.67864e-01,9.99999e-01
7.842929812e-01,6.16889e-01,9.16337e-01,6.73211e-01,9.99999e-01
7.882144461e-01,6.18419e-01,9.11458e-01,6.78493e-01,9.99999e-01
7.921555184e-01,6.48229e-01,9.48103e-01,6.83711e-01,9.99999e-01
7.961162960e-01,6.64456e-01,9.64565e-01,6.88865e-01,9.99999e-01
8.000968774e-01,6.80566e-01,9.80704e-01,6.93956e-01,9.99999e-01
8.040973618e-01,6.91911e-01,9.89884e-01,6.98982e-01,9.99999e-01
8.081178486e-01,7.00693e-01,9.95381e-01,7.03944e-01,9.99999e-01
8.121584379e-01,7.07815e-01,9.98550e-01,7.08842e-01,9.99999e-01
8.162192301e-01,7.13448e-01,9.99679e-01,7.13677e-01,9.99999e-01
8.203003262e-01,7.18444e-01,9.99993e-01,7.18448e-01,9.99999e-01
8.244018279e-01,7.23155e-01,9.99999e-01,7.23155e-01,9.99999e-01
8.285238370e-01,7.27800e-01,9.99999e-01,7.27800e-01,9.99999e-01
8.326664562e-01,7.32382e-01,9.99999e-01,7.32382e-01,9.99999e-01
8.368297885e-01,7.36902e-01,9.99999e-01,7.36902e-01,9.99999e-01
8.410139374e-01,7.41359e-01,9.99999e-01,7.41359e-01,9.99999e-01
8.452190071e-01,7.45754e-01,9.99999e-01,7.45754e-01,9.99999e-01
8.494451021e-01,7.50088e-01,9.99999e-01,7.50088e-01,9.99999e-01
8.536923276e-01,7.54361e-01,9.99999e-01,7.54361e-01,9.99999e-01
8.579607893e-01,7.58573e-01,9.99999e-01,7.58573e-01,9.99999e-01
8.622505932e-01,7.62724e-01,9.99999e-01,7.62724e-01,9.99999e-01
8.665618462e-01,7.30094e-01,9.52110e-01,7.66816e-01,9.99999e-01
8.708946554e-01,6.16952e-01,8.00354e-01,7.70848e-01,9.99999e-01
8.752491287e-01,6.48007e-01,8.36331e-01,7.74821e-01,9.99999e-01
8.796253743e-01,7.06390e-01,9.07098e-01,7.78735e-01,9.99999e-01
8.840235012e-01,7.44219e-01,9.50966e-01,7.82592e-01,9.99999e-01
8.884436187e-01,7.70862e-01,9.80252e-01,7.86390e-01,9.99999e-01
8.928858368e-01,7.83815e-01,9.92004e-01,7.90132e-01,9.99999e-01
8.973502660e-01,7.92253e-01,9.98029e-01,7.93817e-01,9.99999e-01
9.018370173e-01,7.97272e-01,9.99781e-01,7.97445e-01,9.99999e-01
9.063462024e-01,7.96800e-01,9.94732e-01,8.01019e-01,9.99999e-01
9.108779334e-01,7.94437e-01,9.87445e-01,8.04537e-01,9.99999e-01
9.154323231e-01,8.05567e-01,9.96987e-01,8.08001e-01,9.99999e-01
9.200094847e-01,7.77156e-01,9.57784e-01,8.11410e-01,9.99999e-01
9.246095321e-01,7.65926e-01,9.40055e-01,8.14767e-01,9.99999e-01
9.292325798e-01,7.79951e-01,9.53403e-01,8.18070e-01,9.99999e-01
9.338787427e-01,7.83727e-01,9.54225e-01,8.21321e-01,9.99999e-01
9.385481364e-01,7.96687e-01,9.66241e-01,8.24521e-01,9.99999e-01
9.432408771e-01,8.10362e-01,9.79088e-01,8.27669e-01,9.99999e-01
9.479570815e-01,8.21862e-01,9.89279e-01,8.30767e-01,9.99999e-01
9.526968669e-01,8.29480e-01,9.94799e-01,8.33815e-01,9.99999e-01
9.574603512e-01,8.34949e-01,9.97771e-01,8.36814e-01,9.99999e-01
9.622476530e-01,8.39179e-01,9.99303e-01,8.39764e-01,9.99999e-01
9.670588912e-01,8.42489e-01,9.99789e-01,8.42666e-01,9.99999e-01
9.718941857e-01,8.45507e-01,9.99984e-01,8.45520e-01,9.99999e-01
9.767536566e-01,8.48327e-01,9.99999e-01,8.48327e-01,9.99999e-01
9.816374249e-01,8.51088e-01,9.99999e-01,8.51088e-01,9.99999e-01
9.865456120e-01,8.53803e-01,9.99999e-01,8.53803e-01,9.99999e-01
9.914783401e-01,8.56472e-01,9.99999e-01,8.56472e-01,9.99999e-01
9.964357318e-01,8.59097e-01,9.99999e-01,8.59097e-01,9.99999e-01
1.001417910e+00,8.61678e-01,9.99999e-01,8.61678e-01,9.99999e-01
1.006425000e+00,8.64216e-01,9.99999e-01,8.64216e-01,9.99999e-01
1.011457125e+00,8.66711e-01,9.99999e-01,8.66711e-01,9.99999e-01
1.016514411e+00,8.69163e-01,9.99999e-01,8.69163e-01,9.99999e-01
1.021596983e+00,8.71554e-01,9.99976e-01,8.71574e-01,9.99999e-01
1.026704968e+00,8.72162e-01,9.97961e-01,8.73943e-01,9.99999e-01
1.031838492e+00,8.53981e-01,9.74560e-01,8.76272e-01,9.99999e-01
1.036997685e+00,2.24900e-01,2.55986e-01,8.78561e-01,9.99999e-01
1.042182673e+00,2.51712e-01,2.85773e-01,8.80811e-01,9.99999e-01
1.047393587e+00,2.48457e-01,2.81371e-01,8.83022e-01,9.99999e-01
1.052630555e+00,2.77544e-02,3.13540e-02,8.85194e-01,9.99999e-01
1.057893707e+00,5.42506e-02,6.11391e-02,8.87329e-01,9.99999e-01
1.063183176e+00,1.17095e-01,1.31652e-01,8.89427e-01,9.99999e-01
1.068499092e+00,2.29426e-01,2.57352e-01,8.91488e-01,9.99999e-01
1.073841587e+00,3.77635e-01,4.22640e-01,8.93513e-01,9.99999e-01
1.079210795e+00,5.20263e-01,5.80972e-01,8.95502e-01,9.99999e-01
1.084606849e+00,6.66410e-01,7.42554e-01,8.97456e-01,9.99999e-01
1.090029883e+00,7.71136e-01,8.57411e-01,8.99376e-01,9.99999e-01
1.095480033e+00,8.35360e-01,9.26877e-01,9.01262e-01,9.99999e-01
1.100957433e+00,8.70724e-01,9.64133e-01,9.03115e-01,9.99999e-01
1.106462220e+00,8.91348e-01,9.84985e-01,9.04935e-01,9.99999e-01
1.111994531e+00,9.01655e-01,9.94411e-01,9.06722e-01,9.99999e-01
1.117554504e+00,9.07225e-01,9.98621e-01,9.08477e-01,9.99999e-01
1.123142276e+00,9.10118e-01,9.99908e-01,9.10201e-01,9.99999e-01
1.128757988e+00,9.11895e-01,9.99999e-01,9.11895e-01,9.99999e-01
1.134401778e+00,9.13557e-01,9.99999e-01,9.13557e-01,9.99999e-01
1.140073787e+00,9.15190e-01,9.99999e-01,9.15190e-01,9.99999e-01
1.145774156e+00,9.16794e-01,9.99999e-01,9.16794e-01,9.99999e-01
1.151503026e+00,9.18368e-01,9.99999e-01,9.18368e-01,9.99999e-01
1.157260541e+00,9.19914e-01,9.99999e-01,9.19914e-01,9.99999e-01
1.163046844e+00,9.21432e-01,9.99999e-01,9.21432e-01,9.99999e-01
1.168862078e+00,9.22923e-01,9.99999e-01,9.22923e-01,9.99999e-01
1.174706389e+00,9.24386e-01,9.99999e-01,9.24386e-01,9.99999e-01
1.180579921e+00,9.25823e-01,9.99999e-01,9.25823e-01,9.99999e-01
1.186482820e+00,9.27232e-01,9.99997e-01,9.27233e-01,9.99999e-01
1.192415234e+00,9.21909e-01,9.92774e-01,9.28618e-01,9.99999e-01
1.198377311e+00,5.40954e-01,5.81684e-01,9.29977e-01,9.99999e-01
1.204369197e+00,2.55794e-07,2.74660e-07,9.31312e-01,9.99999e-01
1.210391043e+00,4.96430e-24,5.32294e-24,9.32622e-01,9.99999e-01
1.216442998e+00,4.84850e-21,5.19162e-21,9.33908e-01,9.99999e-01
1.222525213e+00,9.74814e-21,1.04239e-20,9.35170e-01,9.99999e-01
1.228637839e+00,5.43828e-16,5.80758e-16,9.36409e-01,9.99999e-01
1.234781029e+00,1.33793e-12,1.42693e-12,9.37625e-01,9.99999e-01
1.240954934e+00,1.86850e-07,1.99026e-07,9.38818e-01,9.99999e-01
1.247159708e+00,6.45544e-05,6.86756e-05,9.39990e-01,9.99999e-01
1.253395507e+00,7.76568e-03,8.25135e-03,9.41140e-01,9.99999e-01
1.259662485e+00,4.91490e-02,5.21603e-02,9.42268e-01,9.99999e-01
1.265960797e+00,1.91752e-01,2.03261e-01,9.43375e-01,9.99999e-01
1.272290601e+00,4.65937e-01,4.93335e-01,9.44462e-01,9.99999e-01
1.278652054e+00,4.39607e-01,4.64933e-01,9.45529e-01,9.99999e-01
1.285045314e+00,3.00577e-02,3.17542e-02,9.46575e-01,9.99999e-01
1.291470541e+00,1.60861e-03,1.69756e-03,9.47602e-01,9.99999e-01
1.297927893e+00,2.79267e-02,2.94396e-02,9.48610e-01,9.99999e-01
1.304417533e+00,2.89867e-01,3.05252e-01,9.49599e-01,9.99999e-01
1.310939621e+00,8.38956e-02,8.82581e-02,9.50570e-01,9.99999e-01
1.317494319e+00,1.02810e-08,1.08048e-08,9.51522e-01,9.99999e-01
1.324081790e+00,2.26959e-06,2.38288e-06,9.52457e-01,9.99999e-01
1.330702199e+00,9.32317e-04,9.77912e-04,9.53373e-01,9.99999e-01
1.337355710e+00,6.96819e-04,7.30208e-04,9.54273e-01,9.99999e-01
1.344042489e+00,2.38323e-04,2.49512e-04,9.55156e-01,9.99999e-01
1.350762701e+00,6.71624e-04,7.02519e-04,9.56022e-01,9.99999e-01
1.357516515e+00,8.05378e-03,8.41678e-03,9.56871e-01,9.99999e-01
1.364304097e+00,4.83098e-02,5.04432e-02,9.57705e-01,9.99999e-01
1.371125618e+00,1.96991e-01,2.05515e-01,9.58523e-01,9.99999e-01
1.377981246e+00,2.71656e-01,2.83174e-01,9.59325e-01,9.99999e-01
1.384871152e+00,4.60059e-01,4.79171e-01,9.60112e-01,9.99999e-01
1.391795508e+00,4.86926e-01,5.06747e-01,9.60885e-01,9.99999e-01
1.398754485e+00,6.33277e-01,6.58537e-01,9.61642e-01,9.99999e-01
1.405748258e+00,7.06668e-01,7.34287e-01,9.62385e-01,9.99999e-01
1.412776999e+00,7.92523e-01,8.22875e-01,9.63114e-01,9.99999e-01
1.419840884e+00,7.36644e-01,7.64288e-01,9.63830e-01,9.99999e-01
1.426940089e+00,9.42875e-02,9.77547e-02,9.64531e-01,9.99999e-01
1.434074789e+00,0.00000e+00,0.00000e+00,9.65219e-01,9.99999e-01
1.441245163e+00,0.00000e+00,0.00000e+00,9.65895e-01,9.99999e-01
1.448451389e+00,0.00000e+00,0.00000e+00,9.66557e-01,9.99999e-01
1.455693646e+00,4.54923e-186,4.70347e-186,9.67206e-01,9.99999e-01
1.462972114e+00,1.16485e-90,1.20355e-90,9.67844e-01,9.99999e-01
1.470286975e+00,1.25341e-38,1.29422e-38,9.68469e-01,9.99999e-01
1.477638409e+00,6.65554e-25,6.86787e-25,9.69082e-01,9.99999e-01
1.485026601e+00,1.56713e-14,1.61613e-14,9.69683e-01,9.99999e-01
1.492451734e+00,2.32581e-12,2.39706e-12,9.70273e-01,9.99999e-01
1.499913993e+00,2.54626e-06,2.62270e-06,9.70851e-01,9.99999e-01
1.507413563e+00,3.77625e-05,3.88736e-05,9.71419e-01,9.99999e-01
1.514950631e+00,1.58564e-06,1.63136e-06,9.71975e-01,9.99999e-01
1.522525384e+00,3.34860e-18,3.44321e-18,9.72521e-01,9.99999e-01
1.530138011e+00,5.19984e-41,5.34381e-41,9.73057e-01,9.99999e-01
1.537788701e+00,9.03082e-31,9.27586e-31,9.73582e-01,9.99999e-01
1.545477645e+00,7.35804e-08,7.55370e-08,9.74097e-01,9.99999e-01
1.553205033e+00,2.91215e-05,2.98804e-05,9.74602e-01,9.99999e-01
1.560971058e+00,8.38777e-06,8.60198e-06,9.75097e-01,9.99999e-01
1.568775913e+00,1.42829e-101,1.46404e-101,9.75583e-01,9.99999e-01
1.576619793e+00,1.52406e-236,1.56144e-236,9.76059e-01,9.99999e-01
1.584502892e+00,1.66165e-129,1.70159e-129,9.76527e-01,9.99999e-01
1.592425406e+00,1.40581e-90,1.43893e-90,9.76985e-01,9.99999e-01
1.600387533e+00,2.76533e-145,2.82917e-145,9.77434e-01,9.99999e-01
1.608389471e+00,2.12087e-243,2.16885e-243,9.77875e-01,9.99999e-01
1.616431418e+00,6.27933e-245,6.41856e-245,9.78307e-01,9.99999e-01
1.624513575e+00,8.18168e-115,8.35947e-115,9.78731e-01,9.99999e-01
1.632636143e+00,1.22863e-85,1.25479e-85,9.79147e-01,9.99999e-01
1.640799324e+00,6.51786e-36,6.65390e-36,9.79555e-01,9.99999e-01
1.649003321e+00,7.46517e-36,7.61787e-36,9.79954e-01,9.99999e-01
1.657248337e+00,4.94221e-28,5.04129e-28,9.80346e-01,9.99999e-01
1.665534579e+00,3.35744e-28,3.42340e-28,9.80731e-01,9.99999e-01
1.673862252e+00,1.46084e-18,1.48897e-18,9.81108e-01,9.99999e-01
1.682231563e+00,2.82703e-13,2.88038e-13,9.81477e-01,9.99999e-01
1.690642721e+00,4.03543e-08,4.11006e-08,9.81840e-01,9.99999e-01
1.699095934e+00,2.67761e-05,2.72614e-05,9.82195e-01,9.99999e-01
1.707591414e+00,3.41508e-03,3.47575e-03,9.82544e-01,9.99999e-01
1.716129371e+00,4.50344e-02,4.58185e-02,9.82886e-01,9.99999e-01
1.724710018e+00,1.88293e-01,1.91506e-01,9.83221e-01,9.99999e-01
1.733333568e+00,3.42724e-01,3.48456e-01,9.83550e-01,9.99999e-01
1.742000236e+00,5.15901e-01,5.24357e-01,9.83872e-01,9.99999e-01
1.750710237e+00,3.19634e-02,3.24769e-02,9.84188e-01,9.99999e-01
1.759463788e+00,1.31734e-17,1.33808e-17,9.84498e-01,9.99999e-01
1.768261107e+00,1.17564e-18,1.19379e-18,9.84802e-01,9.99999e-01
1.777102413e+00,1.41102e-17,1.43236e-17,9.85100e-01,9.99999e-01
1.785987925e+00,4.89290e-17,4.96543e-17,9.85392e-01,9.99999e-01
1.794917864e+00,4.89337e-16,4.96446e-16,9.85678e-01,9.99999e-01
1.803892454e+00,6.98991e-16,7.08944e-16,9.85959e-01,9.99999e-01
1.812911916e+00,4.77197e-15,4.83857e-15,9.86234e-01,9.99999e-01
1.821976476e+00,2.73711e-15,2.77455e-15,9.86505e-01,9.99999e-01
1.831086358e+00,1.38637e-12,1.40495e-12,9.86769e-01,9.99999e-01
1.840241790e+00,1.18353e-10,1.19908e-10,9.87029e-01,9.99999e-01
1.849442999e+00,1.57756e-07,1.59788e-07,9.87283e-01,9.99999e-01
1.858690214e+00,8.00363e-07,8.10466e-07,9.87533e-01,9.99999e-01
1.867983665e+00,1.39543e-07,1.41269e-07,9.87778e-01,9.99999e-01
1.877323583e+00,1.40197e-32,1.41897e-32,9.88018e-01,9.99999e-01
