#,Wave/freq,Total,CO2,Rayleigh,CIA
4.000000000e-01,7.13193e-26,9.99999e-01,7.13193e-26,9.99999e-01
4.020000000e-01,2.23723e-25,9.99999e-01,2.23723e-25,9.99999e-01
4.040100000e-01,6.86458e-25,9.99999e-01,6.86458e-25,9.99999e-01
4.060300500e-01,2.06016e-24,9.99999e-01,2.06016e-24,9.99999e-01
4.080602003e-01,6.05007e-24,9.99999e-01,6.05007e-24,9.99999e-01
4.101005013e-01,1.73931e-23,9.99999e-01,1.73931e-23,9.99999e-01
4.121510038e-01,4.89708e-23,9.99999e-01,4.89708e-23,9.99999e-01
4.142117588e-01,1.35088e-22,9.99999e-01,1.35088e-22,9.99999e-01
4.162828176e-01,3.65250e-22,9.99999e-01,3.65250e-22,9.99999e-01
4.183642317e-01,9.68350e-22,9.99999e-01,9.68350e-22,9.99999e-01
4.204560528e-01,2.51832e-21,9.99999e-01,2.51832e-21,9.99999e-01
4.225583331e-01,6.42672e-21,9.99999e-01,6.42672e-21,9.99999e-01
4.246711247e-01,1.61002e-20,9.99999e-01,1.61002e-20,9.99999e-01
4.267944804e-01,3.96092e-20,9.99999e-01,3.96092e-20,9.99999e-01
4.289284528e-01,9.57276e-20,9.99999e-01,9.57276e-20,9.99999e-01
4.310730950e-01,2.27357e-19,9.99999e-01,2.27357e-19,9.99999e-01
4.332284605e-01,5.30836e-19,9.99999e-01,5.30836e-19,9.99999e-01
4.353946028e-01,1.21881e-18,9.99999e-01,1.21881e-18,9.99999e-01
4.375715758e-01,2.75286e-18,9.99999e-01,2.75286e-18,9.99999e-01
4.397594337e-01,6.11846e-18,9.99999e-01,6.11846e-18,9.99999e-01
4.419582309e-01,1.33859e-17,9.99999e-01,1.33859e-17,9.99999e-01
4.441680220e-01,2.88363e-17,9.99999e-01,2.88363e-17,9.99999e-01
4.463888621e-01,6.11852e-17,9.99999e-01,6.11852e-17,9.99999e-01
4.486208064e-01,1.27909e-16,9.99999e-01,1.27909e-16,9.99999e-01
4.508639105e-01,2.63529e-16,9.99999e-01,2.63529e-16,9.99999e-01
4.531182300e-01,5.35249e-16,9.99999e-01,5.35249e-16,9.99999e-01
4.553838212e-01,1.07202e-15,9.99999e-01,1.07202e-15,9.99999e-01
4.576607403e-01,2.11785e-15,9.99999e-01,2.11785e-15,9.99999e-01
4.599490440e-01,4.12805e-15,9.99999e-01,4.12805e-15,9.99999e-01
4.622487892e-01,7.94090e-15,9.99999e-01,7.94090e-15,9.99999e-01
4.645600332e-01,1.50793e-14,9.99999e-01,1.50793e-14,9.99999e-01
4.668828333e-01,2.82744e-14,9.99999e-01,2.82744e-14,9.99999e-01
4.692172475e-01,5.23615e-14,9.99999e-01,5.23615e-14,9.99999e-01
4.715633337e-01,9.57954e-14,9.99999e-01,9.57954e-14,9.99999e-01
4.739211504e-01,1.73179e-13,9.99999e-01,1.73179e-13,9.99999e-01
4.762907561e-01,3.09433e-13,9.99999e-01,3.09433e-13,9.99999e-01
4.786722099e-01,5.46586e-13,9.99999e-01,5.46586e-13,9.99999e-01
4.810655710e-01,9.54708e-13,9.99999e-01,9.54708e-13,9.99999e-01
4.834708988e-01,1.64929e-12,9.99999e-01,1.64929e-12,9.99999e-01
4.858882533e-01,2.81861e-12,9.99999e-01,2.81861e-12,9.99999e-01
4.883176946e-01,4.76624e-12,9.99999e-01,4.76624e-12,9.99999e-01
4.907592831e-01,7.97645e-12,9.99999e-01,7.97645e-12,9.99999e-01
4.932130795e-01,1.32138e-11,9.99999e-01,1.32138e-11,9.99999e-01
4.956791449e-01,2.16727e-11,9.99999e-01,2.16727e-11,9.99999e-01
4.981575406e-01,3.52010e-11,9.99999e-01,3.52010e-11,9.99999e-01
5.006483283e-01,5.66287e-11,9.99999e-01,5.66287e-11,9.99999e-01
5.031515699e-01,9.02484e-11,9.99999e-01,9.02484e-11,9.99999e-01
5.056673278e-01,1.42510e-10,9.99999e-01,1.42510e-10,9.99999e-01
5.081956644e-01,2.23013e-10,9.99999e-01,2.23013e-10,9.99999e-01
5.107366428e-01,3.45919e-10,9.99999e-01,3.45919e-10,9.99999e-01
5.132903260e-01,5.31929e-10,9.99999e-01,5.31929e-10,9.99999e-01
5.158567776e-01,8.11038e-10,9.99999e-01,8.11038e-10,9.99999e-01
5.184360615e-01,1.22634e-09,9.99999e-01,1.22634e-09,9.99999e-01
5.210282418e-01,1.83921e-09,9.99999e-01,1.83921e-09,9.99999e-01
5.236333830e-01,2.73638e-09,9.99999e-01,2.73638e-09,9.99999e-01
5.262515499e-01,4.03937e-09,9.99999e-01,4.03937e-09,9.99999e-01
5.288828077e-01,5.91712e-09,9.99999e-01,5.91712e-09,9.99999e-01
5.315272217e-01,8.60263e-09,9.99999e-01,8.60263e-09,9.99999e-01
5.341848578e-01,1.24149e-08,9.99999e-01,1.24149e-08,9.99999e-01
5.368557821e-01,1.77872e-08,9.99999e-01,1.77872e-08,9.99999e-01
5.395400610e-01,2.53038e-08,9.99999e-01,2.53038e-08,9.99999e-01
5.422377613e-01,3.57472e-08,9.99999e-01,3.57472e-08,9.99999e-01
5.449489501e-01,5.01573e-08,9.99999e-01,5.01573e-08,9.99999e-01
5.476736949e-01,6.99070e-08,9.99999e-01,6.99070e-08,9.99999e-01
5.504120634e-01,9.67964e-08,9.99999e-01,9.67964e-08,9.99999e-01
5.531641237e-01,1.33170e-07,9.99999e-01,1.33170e-07,9.99999e-01
5.559299443e-01,1.82060e-07,9.99999e-01,1.82060e-07,9.99999e-01
5.587095940e-01,2.47368e-07,9.99999e-01,2.47368e-07,9.99999e-01
5.615031420e-01,3.34073e-07,9.99999e-01,3.34073e-07,9.99999e-01
5.643106577e-01,4.48499e-07,9.99999e-01,4.48499e-07,9.99999e-01
5.671322110e-01,5.98625e-07,9.99999e-01,5.98625e-07,9.99999e-01
5.699678720e-01,7.94458e-07,9.99999e-01,7.94458e-07,9.99999e-01
5.728177114e-01,1.04848e-06,9.99999e-01,1.04848e-06,9.99999e-01
5.756818000e-01,1.37616e-06,9.99999e-01,1.37616e-06,9.99999e-01
5.785602090e-01,1.79657e-06,9.99999e-01,1.79657e-06,9.99999e-01
5.814530100e-01,2.33310e-06,9.99999e-01,2.33310e-06,9.99999e-01
5.843602750e-01,3.01426e-06,9.99999e-01,3.01426e-06,9.99999e-01
5.872820764e-01,3.87463e-06,9.99999e-01,3.87463e-06,9.99999e-01
5.902184868e-01,4.95594e-06,9.99999e-01,4.95594e-06,9.99999e-01
5.931695792e-01,6.30828e-06,9.99999e-01,6.30828e-06,9.99999e-01
5.961354271e-01,7.99145e-06,9.99999e-01,7.99145e-06,9.99999e-01
5.991161043e-01,1.00765e-05,9.99999e-01,1.00765e-05,9.99999e-01
6.021116848e-01,1.26476e-05,9.99999e-01,1.26476e-05,9.99999e-01
6.051222432e-01,1.58036e-05,9.99999e-01,1.58036e-05,9.99999e-01
6.081478544e-01,1.96604e-05,9.99999e-01,1.96604e-05,9.99999e-01
6.111885937e-01,2.43532e-05,9.99999e-01,2.43532e-05,9.99999e-01
6.142445367e-01,3.00388e-05,9.99999e-01,3.00388e-05,9.99999e-01
6.173157594e-01,3.68985e-05,9.99999e-01,3.68985e-05,9.99999e-01
6.204023382e-01,4.51411e-05,9.99999e-01,4.51411e-05,9.99999e-01
6.235043498e-01,5.50053e-05,9.99999e-01,5.50053e-05,9.99999e-01
6.266218716e-01,6.67640e-05,9.99999e-01,6.67640e-05,9.99999e-01
6.297549810e-01,8.07268e-05,9.99999e-01,8.07268e-05,9.99999e-01
6.329037559e-01,9.72444e-05,9.99999e-01,9.72444e-05,9.99999e-01
6.360682746e-01,1.16712e-04,9.99999e-01,1.16712e-04,9.99999e-01
6.392486160e-01,1.39572e-04,9.99999e-01,1.39572e-04,9.99999e-01
6.424448591e-01,1.66321e-04,9.99999e-01,1.66321e-04,9.99999e-01
6.456570834e-01,1.97512e-04,9.99999e-01,1.97512e-04,9.99999e-01
6.488853688e-01,2.33757e-04,9.99999e-01,2.33757e-04,9.99999e-01
6.521297956e-01,2.75734e-04,9.99999e-01,2.75734e-04,9.99999e-01
6.553904446e-01,3.24190e-04,9.99999e-01,3.24190e-04,9.99999e-01
6.586673968e-01,3.79945e-04,9.99999e-01,3.79945e-04,9.99999e-01
6.619607338e-01,4.43894e-04,9.99999e-01,4.43894e-04,9.99999e-01
6.652705375e-01,5.17016e-04,9.99999e-01,5.17016e-04,9.99999e-01
6.685968902e-01,6.00372e-04,9.99999e-01,6.00372e-04,9.99999e-01
6.719398746e-01,6.95111e-04,9.99999e-01,6.95111e-04,9.99999e-01
6.752995740e-01,8.02475e-04,9.99999e-01,8.02475e-04,9.99999e-01
6.786760719e-01,9.23798e-04,9.99999e-01,9.23798e-04,9.99999e-01
6.820694522e-01,1.06051e-03,9.99999e-01,1.06051e-03,9.99999e-01
6.854797995e-01,1.21414e-03,9.99999e-01,1.21414e-03,9.99999e-01
6.889071985e-01,1.38631e-03,9.99999e-01,1.38631e-03,9.99999e-01
6.923517345e-01,1.57876e-03,9.99999e-01,1.57876e-03,9.99999e-01
6.958134932e-01,1.79331e-03,9.99999e-01,1.79331e-03,9.99999e-01
6.992925606e-01,2.03190e-03,9.99999e-01,2.03190e-03,9.99999e-01
7.027890234e-01,2.29656e-03,9.99999e-01,2.29656e-03,9.99999e-01
7.063029686e-01,2.58943e-03,9.99999e-01,2.58943e-03,9.99999e-01
7.098344834e-01,2.91273e-03,9.99999e-01,2.91273e-03,9.99999e-01
7.133836558e-01,3.26878e-03,9.99999e-01,3.26878e-03,9.99999e-01
7.169505741e-01,3.66002e-03,9.99999e-01,3.66002e-03,9.99999e-01
7.205353270e-01,4.08894e-03,9.99999e-01,4.08894e-03,9.99999e-01
7.241380036e-01,4.55813e-03,9.99999e-01,4.55813e-03,9.99999e-01
7.277586936e-01,5.07028e-03,9.99999e-01,5.07028e-03,9.99999e-01
7.313974871e-01,5.62811e-03,9.99999e-01,5.62811e-03,9.99999e-01
7.350544745e-01,6.23446e-03,9.99999e-01,6.23446e-03,9.99999e-01
7.387297469e-01,6.89219e-03,9.99999e-01,6.89219e-03,9.99999e-01
7.424233956e-01,7.60422e-03,9.99999e-01,7.60422e-03,9.99999e-01
7.461355126e-01,8.37354e-03,9.99999e-01,8.37354e-03,9.99999e-01
7.498661902e-01,9.20316e-03,9.99999e-01,9.20316e-03,9.99999e-01
7.536155211e-01,1.00961e-02,9.99999e-01,1.00961e-02,9.99999e-01
7.573835987e-01,1.10555e-02,9.99999e-01,1.10555e-02,9.99999e-01
7.611705167e-01,1.20843e-02,9.99999e-01,1.20843e-02,9.99999e-01
7.649763693e-01,1.31857e-02,9.99999e-01,1.31857e-02,9.99999e-01
7.688012511e-01,1.43627e-02,9.99999e-01,1.43627e-02,9.99999e-01
7.726452574e-01,1.56183e-02,9.99999e-01,1.56183e-02,9.99999e-01
7.765084837e-01,1.67674e-02,9.88897e-01,1.69556e-02,9.99999e-01
7.803910261e-01,9.48838e-03,5.16300e-01,1.83776e-02,9.99999e-01
7.842929812e-01,1.09617e-02,5.51193e-01,1.98872e-02,9.99999e-01
7.882144461e-01,1.12930e-02,5.25568e-01,2.14873e-02,9.99999e-01
7.921555184e-01,1.48052e-02,6.38688e-01,2.31806e-02,9.99999e-01
7.961162960e-01,1.91483e-02,7.66854e-01,2.49700e-02,9.99999e-01
8.000968774e-01,2.34031e-02,8.71363e-01,2.68579e-02,9.99999e-01
8.040973618e-01,2.70819e-02,9.38805e-01,2.88471e-02,9.99999e-01
8.081178486e-01,3.01787e-02,9.75396e-01,3.09399e-02,9.99999e-01
8.121584379e-01,3.29199e-02,9.93396e-01,3.31387e-02,9.99999e-01
8.162192301e-01,3.54297e-02,9.99552e-01,3.54456e-02,9.99999e-01
8.203003262e-01,3.78627e-02,9.99999e-01,3.78627e-02,9.99999e-01
8.244018279e-01,4.03920e-02,9.99999e-01,4.03920e-02,9.99999e-01
8.285238370e-01,4.30353e-02,9.99999e-01,4.30353e-02,9.99999e-01
8.326664562e-01,4.57942e-02,9.99999e-01,4.57942e-02,9.99999e-01
8.368297885e-01,4.86701e-02,9.99999e-01,4.86701e-02,9.99999e-01
8.410139374e-01,5.16645e-02,9.99999e-01,5.16645e-02,9.99999e-01
8.452190071e-01,5.47785e-02,9.99999e-01,5.47785e-02,9.99999e-01
8.494451021e-01,5.80130e-02,9.99999e-01,5.80130e-02,9.99999e-01
8.536923276e-01,6.13690e-02,9.99999e-01,6.13690e-02,9.99999e-01
8.579607893e-01,6.48470e-02,9.99999e-01,6.48470e-02,9.99999e-01
8.622505932e-01,6.80988e-02,9.94903e-01,6.84476e-02,9.99999e-01
8.665618462e-01,1.97033e-02,2.73008e-01,7.21710e-02,9.99999e-01
8.708946554e-01,1.15638e-02,1.52121e-01,7.60174e-02,9.99999e-01
8.752491287e-01,2.20324e-02,2.75451e-01,7.99867e-02,9.99999e-01
8.796253743e-01,4.38867e-02,5.21972e-01,8.40786e-02,9.99999e-01
8.840235012e-01,6.60817e-02,7.48437e-01,8.82929e-02,9.99999e-01
8.884436187e-01,8.25474e-02,8.91162e-01,9.26289e-02,9.99999e-01
8.928858368e-01,9.37620e-02,9.65763e-01,9.70858e-02,9.99999e-01
8.973502660e-01,1.00981e-01,9.93290e-01,1.01663e-01,9.99999e-01
9.018370173e-01,1.05836e-01,9.95086e-01,1.06359e-01,9.99999e-01
9.063462024e-01,9.72293e-02,8.74582e-01,1.11172e-01,9.99999e-01
9.108779334e-01,1.09272e-01,9.41166e-01,1.16102e-01,9.99999e-01
9.154323231e-01,1.12815e-01,9.31227e-01,1.21147e-01,9.99999e-01
9.200094847e-01,6.50635e-02,5.15131e-01,1.26305e-01,9.99999e-01
9.246095321e-01,8.26385e-02,6.28078e-01,1.31573e-01,9.99999e-01
9.292325798e-01,8.38069e-02,6.11945e-01,1.36952e-01,9.99999e-01
9.338787427e-01,9.36793e-02,6.57691e-01,1.42437e-01,9.99999e-01
9.385481364e-01,1.17268e-01,7.92206e-01,1.48027e-01,9.99999e-01
9.432408771e-01,1.33442e-01,8.68090e-01,1.53719e-01,9.99999e-01
9.479570815e-01,1.47836e-01,9.26802e-01,1.59511e-01,9.99999e-01
9.526968669e-01,1.60065e-01,9.67735e-01,1.65401e-01,9.99999e-01
9.574603512e-01,1.69432e-01,9.88600e-01,1.71386e-01,9.99999e-01
9.622476530e-01,1.76806e-01,9.96303e-01,1.77462e-01,9.99999e-01
9.670588912e-01,1.83522e-01,9.99427e-01,1.83627e-01,9.99999e-01
9.718941857e-01,1.89878e-01,9.99998e-01,1.89879e-01,9.99999e-01
9.767536566e-01,1.96213e-01,9.99999e-01,1.96213e-01,9.99999e-01
9.816374249e-01,2.02628e-01,9.99999e-01,2.02628e-01,9.99999e-01
9.865456120e-01,2.09119e-01,9.99999e-01,2.09119e-01,9.99999e-01
9.914783401e-01,2.15683e-01,9.99999e-01,2.15683e-01,9.99999e-01
9.964357318e-01,2.22319e-01,9.99999e-01,2.22319e-01,9.99999e-01
1.001417910e+00,2.29021e-01,9.99999e-01,2.29021e-01,9.99999e-01
1.006425000e+00,2.35786e-01,9.99999e-01,2.35786e-01,9.99999e-01
1.011457125e+00,2.42612e-01,9.99999e-01,2.42612e-01,9.99999e-01
1.016514411e+00,2.49494e-01,9.99995e-01,2.49495e-01,9.99999e-01
1.021596983e+00,2.55017e-01,9.94483e-01,2.56432e-01,9.99999e-01
1.026704968e+00,2.52275e-01,9.57698e-01,2.63418e-01,9.99999e-01
1.031838492e+00,7.14704e-02,2.64263e-01,2.70452e-01,9.99999e-01
1.036997685e+00,1.17399e-06,4.23016e-06,2.77528e-01,9.99999e-01
1.042182673e+00,2.33473e-04,8.20226e-04,2.84645e-01,9.99999e-01
1.047393587e+00,1.02057e-05,3.49752e-05,2.91798e-01,9.99999e-01
1.052630555e+00,1.02766e-10,3.43717e-10,2.98984e-01,9.99999e-01
1.057893707e+00,3.63444e-09,1.18695e-08,3.06200e-01,9.99999e-01
1.063183176e+00,5.84372e-07,1.86436e-06,3.13443e-01,9.99999e-01
1.068499092e+00,9.49003e-05,2.95908e-04,3.20708e-01,9.99999e-01
1.073841587e+00,8.73062e-04,2.66182e-03,3.27994e-01,9.99999e-01
1.079210795e+00,1.14486e-02,3.41448e-02,3.35296e-01,9.99999e-01
1.084606849e+00,4.66031e-02,1.36023e-01,3.42612e-01,9.99999e-01
1.090029883e+00,1.29251e-01,3.69352e-01,3.49938e-01,9.99999e-01
1.095480033e+00,2.17483e-01,6.08732e-01,3.57272e-01,9.99999e-01
1.100957433e+00,2.95090e-01,8.09331e-01,3.64610e-01,9.99999e-01
1.106462220e+00,3.40848e-01,9.16385e-01,3.71949e-01,9.99999e-01
1.111994531e+00,3.69778e-01,9.74930e-01,3.79286e-01,9.99999e-01
1.117554504e+00,3.85010e-01,9.95836e-01,3.86619e-01,9.99999e-01
1.123142276e+00,3.93936e-01,9.99975e-01,3.93945e-01,9.99999e-01
1.128757988e+00,4.01261e-01,9.99999e-01,4.01261e-01,9.99999e-01
1.134401778e+00,4.08564e-01,9.99999e-01,4.08564e-01,9.99999e-01
1.140073787e+00,4.15852e-01,9.99999e-01,4.15852e-01,9.99999e-01
1.145774156e+00,4.23122e-01,9.99999e-01,4.23122e-01,9.99999e-01
1.151503026e+00,4.30372e-01,9.99999e-01,4.30372e-01,9.99999e-01
1.157260541e+00,4.37599e-01,9.99999e-01,4.37599e-01,9.99999e-01
1.163046844e+00,4.44801e-01,9.99999e-01,4.44801e-01,9.99999e-01
1.168862078e+00,4.51976e-01,9.99999e-01,4.51976e-01,9.99999e-01
1.174706389e+00,4.59122e-01,9.99999e-01,4.59122e-01,9.99999e-01
1.180579921e+00,4.66236e-01,9.99999e-01,4.66236e-01,9.99999e-01
1.186482820e+00,4.69903e-01,9.92787e-01,4.73316e-01,9.99999e-01
1.192415234e+00,4.01353e-01,8.35523e-01,4.80361e-01,9.99999e-01
1.198377311e+00,2.79514e-02,5.73516e-02,4.87369e-01,9.99999e-01
1.204369197e+00,1.17616e-283,2.37927e-283,4.94337e-01,9.99999e-01
1.210391043e+00,3.51596e-215,7.01418e-215,5.01265e-01,9.99999e-01
1.216442998e+00,2.41934e-187,4.76107e-187,5.08150e-01,9.99999e-01
1.222525213e+00,2.48709e-144,4.82938e-144,5.14990e-01,9.99999e-01
1.228637839e+00,6.51125e-109,1.24788e-108,5.21785e-01,9.99999e-01
1.234781029e+00,2.33089e-71,4.41011e-71,5.28533e-01,9.99999e-01
1.240954934e+00,1.21774e-42,2.27516e-42,5.35232e-01,9.99999e-01
1.247159708e+00,2.07381e-19,3.82705e-19,5.41881e-01,9.99999e-01
1.253395507e+00,2.93787e-14,5.35639e-14,5.48479e-01,9.99999e-01
1.259662485e+00,1.27744e-07,2.30159e-07,5.55024e-01,9.99999e-01
1.265960797e+00,2.18022e-04,3.88274e-04,5.61517e-01,9.99999e-01
1.272290601e+00,3.71569e-03,6.54223e-03,5.67954e-01,9.99999e-01
1.278652054e+00,1.28137e-04,2.23104e-04,5.74336e-01,9.99999e-01
1.285045314e+00,5.09840e-18,8.78032e-18,5.80662e-01,9.99999e-01
1.291470541e+00,3.13843e-19,5.34719e-19,5.86930e-01,9.99999e-01
1.297927893e+00,3.15844e-06,5.32495e-06,5.93140e-01,9.99999e-01
1.304417533e+00,1.22429e-05,2.04289e-05,5.99291e-01,9.99999e-01
1.310939621e+00,1.88333e-09,3.11096e-09,6.05383e-01,9.99999e-01
1.317494319e+00,6.16890e-68,1.00895e-67,6.11414e-01,9.99999e-01
1.324081790e+00,9.35486e-29,1.51524e-28,6.17385e-01,9.99999e-01
1.330702199e+00,1.06143e-28,1.70294e-28,6.23294e-01,9.99999e-01
1.337355710e+00,1.22194e-25,1.94224e-25,6.29142e-01,9.99999e-01
1.344042489e+00,1.41148e-32,2.22306e-32,6.34927e-01,9.99999e-01
1.350762701e+00,2.11823e-20,3.30638e-20,6.40649e-01,9.99999e-01
1.357516515e+00,3.28710e-14,5.08596e-14,6.46309e-01,9.99999e-01
1.364304097e+00,1.50869e-07,2.31428e-07,6.51905e-01,9.99999e-01
1.371125618e+00,1.62664e-06,2.47421e-06,6.57438e-01,9.99999e-01
1.377981246e+00,4.21035e-04,6.35135e-04,6.62907e-01,9.99999e-01
1.384871152e+00,4.63741e-04,6.93899e-04,6.68312e-01,9.99999e-01
1.391795508e+00,7.31836e-03,1.08637e-02,6.73653e-01,9.99999e-01
1.398754485e+00,1.85074e-02,2.72596e-02,6.78930e-01,9.99999e-01
1.405748258e+00,6.99808e-02,1.02290e-01,6.84143e-01,9.99999e-01
1.412776999e+00,1.45159e-01,2.10591e-01,6.89292e-01,9.99999e-01
1.419840884e+00,1.16664e-02,1.68012e-02,6.94377e-01,9.99999e-01
1.426940089e+00,0.00000e+00,0.00000e+00,6.99397e-01,9.99999e-01
1.434074789e+00,0.00000e+00,0.00000e+00,7.04354e-01,9.99999e-01
1.441245163e+00,0.00000e+00,0.00000e+00,7.09247e-01,9.99999e-01
1.448451389e+00,0.00000e+00,0.00000e+00,7.14076e-01,9.99999e-01
1.455693646e+00,0.00000e+00,0.00000e+00,7.18842e-01,9.99999e-01
1.462972114e+00,0.00000e+00,0.00000e+00,7.23545e-01,9.99999e-01
1.470286975e+00,0.00000e+00,0.00000e+00,7.28184e-01,9.99999e-01
1.477638409e+00,2.23202e-162,3.04604e-162,7.32761e-01,9.99999e-01
1.485026601e+00,3.21744e-126,4.36396e-126,7.37275e-01,9.99999e-01
1.492451734e+00,3.84905e-64,5.18931e-64,7.41727e-01,9.99999e-01
1.499913993e+00,1.07050e-43,1.43476e-43,7.46118e-01,9.99999e-01
1.507413563e+00,4.88742e-44,6.51268e-44,7.50446e-01,9.99999e-01
1.514950631e+00,1.24880e-93,1.65467e-93,7.54714e-01,9.99999e-01
1.522525384e+00,2.07022e-262,2.72785e-262,7.58921e-01,9.99999e-01
1.530138011e+00,2.38479e-290,3.12526e-290,7.63067e-01,9.99999e-01
1.537788701e+00,6.30802e-125,8.22261e-125,7.67154e-01,9.99999e-01
1.545477645e+00,1.77696e-44,2.30420e-44,7.71181e-01,9.99999e-01
1.553205033e+00,1.60860e-42,2.07522e-42,7.75149e-01,9.99999e-01
1.560971058e+00,5.32511e-121,6.83530e-121,7.79059e-01,9.99999e-01
1.568775913e+00,0.00000e+00,0.00000e+00,7.82910e-01,9.99999e-01
1.576619793e+00,0.00000e+00,0.00000e+00,7.86704e-01,9.99999e-01
1.584502892e+00,0.00000e+00,0.00000e+00,7.90441e-01,9.99999e-01
1.592425406e+00,0.00000e+00,0.00000e+00,7.94121e-01,9.99999e-01
1.600387533e+00,0.00000e+00,0.00000e+00,7.97745e-01,9.99999e-01
1.608389471e+00,0.00000e+00,0.00000e+00,8.01314e-01,9.99999e-01
1.616431418e+00,0.00000e+00,0.00000e+00,8.04827e-01,9.99999e-01
1.624513575e+00,0.00000e+00,0.00000e+00,8.08287e-01,9.99999e-01
1.632636143e+00,0.00000e+00,0.00000e+00,8.11692e-01,9.99999e-01
1.640799324e+00,0.00000e+00,0.00000e+00,8.15044e-01,9.99999e-01
1.649003321e+00,1.05842e-264,1.29337e-264,8.18343e-01,9.99999e-01
1.657248337e+00,1.40734e-261,1.71295e-261,8.21590e-01,9.99999e-01
1.665534579e+00,2.27077e-184,2.75317e-184,8.24785e-01,9.99999e-01
1.673862252e+00,3.03672e-146,3.66785e-146,8.27929e-01,9.99999e-01
1.682231563e+00,1.75682e-77,2.11404e-77,8.31023e-01,9.99999e-01
1.690642721e+00,3.42172e-49,4.10244e-49,8.34067e-01,9.99999e-01
1.699095934e+00,1.29902e-23,1.55188e-23,8.37061e-01,9.99999e-01
1.707591414e+00,2.29098e-14,2.72733e-14,8.40007e-01,9.99999e-01
1.716129371e+00,3.83402e-08,4.54857e-08,8.42905e-01,9.99999e-01
1.724710018e+00,1.23887e-05,1.46481e-05,8.45755e-01,9.99999e-01
1.733333568e+00,1.44662e-03,1.70479e-03,8.48559e-01,9.99999e-01
1.742000236e+00,9.19849e-04,1.08050e-03,8.51315e-01,9.99999e-01
1.750710237e+00,2.93879e-21,3.44110e-21,8.54027e-01,9.99999e-01
1.759463788e+00,3.10636e-165,3.62599e-165,8.56693e-01,9.99999e-01
1.768261107e+00,1.54548e-162,1.79850e-162,8.59314e-01,9.99999e-01
1.777102413e+00,1.60897e-162,1.86678e-162,8.61891e-01,9.99999e-01
1.785987925e+00,9.21350e-145,1.06585e-144,8.64425e-01,9.99999e-01
1.794917864e+00,1.16767e-147,1.34692e-147,8.66916e-01,9.99999e-01
1.803892454e+00,1.80280e-133,2.07370e-133,8.69365e-01,9.99999e-01
1.812911916e+00,3.74457e-160,4.29535e-160,8.71773e-01,9.99999e-01
1.821976476e+00,1.08804e-115,1.24470e-115,8.74139e-01,9.99999e-01
1.831086358e+00,1.71823e-106,1.96040e-106,8.76465e-01,9.99999e-01
1.840241790e+00,4.30882e-63,4.90334e-63,8.78750e-01,9.99999e-01
1.849442999e+00,1.52071e-61,1.72612e-61,8.80997e-01,9.99999e-01
1.858690214e+00,5.38532e-59,6.09747e-59,8.83204e-01,9.99999e-01
1.867983665e+00,4.84979e-94,5.47767e-94,8.85374e-01,9.99999e-01
1.877323583e+00,1.40917e-310,1.58778e-310,8.87505e-01,9.99999e-01
