#,Wave/freq,Total,CO2,Rayleigh,CIA
4.000000000e-01,1.23259e-15,9.99999e-01,1.23259e-15,9.99999e-01
4.020000000e-01,2.43013e-15,9.99999e-01,2.43013e-15,9.99999e-01
4.040100000e-01,4.72388e-15,9.99999e-01,4.72388e-15,9.99999e-01
4.060300500e-01,9.06290e-15,9.99999e-01,9.06290e-15,9.99999e-01
4.080602003e-01,1.71651e-14,9.99999e-01,1.71651e-14,9.99999e-01
4.101005013e-01,3.21030e-14,9.99999e-01,3.21030e-14,9.99999e-01
4.121510038e-01,5.93027e-14,9.99999e-01,5.93027e-14,9.99999e-01
4.142117588e-01,1.08228e-13,9.99999e-01,1.08228e-13,9.99999e-01
4.162828176e-01,1.95184e-13,9.99999e-01,1.95184e-13,9.99999e-01
4.183642317e-01,3.47927e-13,9.99999e-01,3.47927e-13,9.99999e-01
4.204560528e-01,6.13162e-13,9.99999e-01,6.13162e-13,9.99999e-01
4.225583331e-01,1.06856e-12,9.99999e-01,1.06856e-12,9.99999e-01
4.246711247e-01,1.84188e-12,9.99999e-01,1.84188e-12,9.99999e-01
4.267944804e-01,3.14088e-12,9.99999e-01,3.14088e-12,9.99999e-01
4.289284528e-01,5.29985e-12,9.99999e-01,5.29985e-12,9.99999e-01
4.310730950e-01,8.85089e-12,9.99999e-01,8.85089e-12,9.99999e-01
4.332284605e-01,1.46323e-11,9.99999e-01,1.46323e-11,9.99999e-01
4.353946028e-01,2.39510e-11,9.99999e-01,2.39510e-11,9.99999e-01
4.375715758e-01,3.88247e-11,9.99999e-01,3.88247e-11,9.99999e-01
4.397594337e-01,6.23374e-11,9.99999e-01,6.23374e-11,9.99999e-01
4.419582309e-01,9.91580e-11,9.99999e-01,9.91580e-11,9.99999e-01
4.441680220e-01,1.56288e-10,9.99999e-01,1.56288e-10,9.99999e-01
4.463888621e-01,2.44129e-10,9.99999e-01,2.44129e-10,9.99999e-01
4.486208064e-01,3.77997e-10,9.99999e-01,3.77997e-10,9.99999e-01
4.508639105e-01,5.80238e-10,9.99999e-01,5.80238e-10,9.99999e-01
4.531182300e-01,8.83176e-10,9.99999e-01,8.83176e-10,9.99999e-01
4.553838212e-01,1.33317e-09,9.99999e-01,1.33317e-09,9.99999e-01
4.576607403e-01,1.99614e-09,9.99999e-01,1.99614e-09,9.99999e-01
4.599490440e-01,2.96506e-09,9.99999e-01,2.96506e-09,9.99999e-01
4.622487892e-01,4.37001e-09,9.99999e-01,4.37001e-09,9.99999e-01
4.645600332e-01,6.39151e-09,9.99999e-01,6.39151e-09,9.99999e-01
4.668828333e-01,9.27818e-09,9.99999e-01,9.27818e-09,9.99999e-01
4.692172475e-01,1.33698e-08,9.99999e-01,1.33698e-08,9.99999e-01
4.715633337e-01,1.91273e-08,9.99999e-01,1.91273e-08,9.99999e-01
4.739211504e-01,2.71713e-08,9.99999e-01,2.71713e-08,9.99999e-01
4.762907561e-01,3.83315e-08,9.99999e-01,3.83315e-08,9.99999e-01
4.786722099e-01,5.37092e-08,9.99999e-01,5.37092e-08,9.99999e-01
4.810655710e-01,7.47564e-08,9.99999e-01,7.47564e-08,9.99999e-01
4.834708988e-01,1.03374e-07,9.99999e-01,1.03374e-07,9.99999e-01
4.858882533e-01,1.42035e-07,9.99999e-01,1.42035e-07,9.99999e-01
4.883176946e-01,1.93933e-07,9.99999e-01,1.93933e-07,9.99999e-01
4.907592831e-01,2.63170e-07,9.99999e-01,2.63170e-07,9.99999e-01
4.932130795e-01,3.54980e-07,9.99999e-01,3.54980e-07,9.99999e-01
4.956791449e-01,4.75995e-07,9.99999e-01,4.75995e-07,9.99999e-01
4.981575406e-01,6.34579e-07,9.99999e-01,6.34579e-07,9.99999e-01
5.006483283e-01,8.41205e-07,9.99999e-01,8.41205e-07,9.99999e-01
5.031515699e-01,1.10892e-06,9.99999e-01,1.10892e-06,9.99999e-01
5.056673278e-01,1.45388e-06,9.99999e-01,1.45388e-06,9.99999e-01
5.081956644e-01,1.89598e-06,9.99999e-01,1.89598e-06,9.99999e-01
5.107366428e-01,2.45957e-06,9.99999e-01,2.45957e-06,9.99999e-01
5.132903260e-01,3.17435e-06,9.99999e-01,3.17435e-06,9.99999e-01
5.158567776e-01,4.07624e-06,9.99999e-01,4.07624e-06,9.99999e-01
5.184360615e-01,5.20860e-06,9.99999e-01,5.20860e-06,9.99999e-01
5.210282418e-01,6.62337e-06,9.99999e-01,6.62337e-06,9.99999e-01
5.236333830e-01,8.38253e-06,9.99999e-01,8.38253e-06,9.99999e-01
5.262515499e-01,1.05597e-05,9.99999e-01,1.05597e-05,9.99999e-01
5.288828077e-01,1.32418e-05,9.99999e-01,1.32418e-05,9.99999e-01
5.315272217e-01,1.65310e-05,9.99999e-01,1.65310e-05,9.99999e-01
5.341848578e-01,2.05471e-05,9.99999e-01,2.05471e-05,9.99999e-01
5.368557821e-01,2.54293e-05,9.99999e-01,2.54293e-05,9.99999e-01
5.395400610e-01,3.13394e-05,9.99999e-01,3.13394e-05,9.99999e-01
5.422377613e-01,3.84640e-05,9.99999e-01,3.84640e-05,9.99999e-01
5.449489501e-01,4.70176e-05,9.99999e-01,4.70176e-05,9.99999e-01
5.476736949e-01,5.72459e-05,9.99999e-01,5.72459e-05,9.99999e-01
5.504120634e-01,6.94287e-05,9.99999e-01,6.94287e-05,9.99999e-01
5.531641237e-01,8.38840e-05,9.99999e-01,8.38840e-05,9.99999e-01
5.559299443e-01,1.00971e-04,9.99999e-01,1.00971e-04,9.99999e-01
5.587095940e-01,1.21094e-04,9.99999e-01,1.21094e-04,9.99999e-01
5.615031420e-01,1.44708e-04,9.99999e-01,1.44708e-04,9.99999e-01
5.643106577e-01,1.72318e-04,9.99999e-01,1.72318e-04,9.99999e-01
5.671322110e-01,2.04491e-04,9.99999e-01,2.04491e-04,9.99999e-01
5.699678720e-01,2.41850e-04,9.99999e-01,2.41850e-04,9.99999e-01
5.728177114e-01,2.85089e-04,9.99999e-01,2.85089e-04,9.99999e-01
5.756818000e-01,3.34968e-04,9.99999e-01,3.34968e-04,9.99999e-01
5.785602090e-01,3.92322e-04,9.99999e-01,3.92322e-04,9.99999e-01
5.814530100e-01,4.58065e-04,9.99999e-01,4.58065e-04,9.99999e-01
5.843602750e-01,5.33190e-04,9.99999e-01,5.33190e-04,9.99999e-01
5.872820764e-01,6.18777e-04,9.99999e-01,6.18777e-04,9.99999e-01
5.902184868e-01,7.15994e-04,9.99999e-01,7.15994e-04,9.99999e-01
5.931695792e-01,8.26100e-04,9.99999e-01,8.26100e-04,9.99999e-01
5.961354271e-01,9.50449e-04,9.99999e-01,9.50449e-04,9.99999e-01
5.991161043e-01,1.09049e-03,9.99999e-01,1.09049e-03,9.99999e-01
6.021116848e-01,1.24778e-03,9.99999e-01,1.24778e-03,9.99999e-01
6.051222432e-01,1.42395e-03,9.99999e-01,1.42395e-03,9.99999e-01
6.081478544e-01,1.62077e-03,9.99999e-01,1.62077e-03,9.99999e-01
6.111885937e-01,1.84008e-03,9.99999e-01,1.84008e-03,9.99999e-01
6.142445367e-01,2.08383e-03,9.99999e-01,2.08383e-03,9.99999e-01
6.173157594e-01,2.35408e-03,9.99999e-01,2.35408e-03,9.99999e-01
6.204023382e-01,2.65298e-03,9.99999e-01,2.65298e-03,9.99999e-01
6.235043498e-01,2.98278e-03,9.99999e-01,2.98278e-03,9.99999e-01
6.266218716e-01,3.34583e-03,9.99999e-01,3.34583e-03,9.99999e-01
6.297549810e-01,3.74456e-03,9.99999e-01,3.74456e-03,9.99999e-01
6.329037559e-01,4.18150e-03,9.99999e-01,4.18150e-03,9.99999e-01
6.360682746e-01,4.65926e-03,9.99999e-01,4.65926e-03,9.99999e-01
6.392486160e-01,5.18052e-03,9.99999e-01,5.18052e-03,9.99999e-01
6.424448591e-01,5.74805e-03,9.99999e-01,5.74805e-03,9.99999e-01
6.456570834e-01,6.36466e-03,9.99999e-01,6.36466e-03,9.99999e-01
6.488853688e-01,7.03325e-03,9.99999e-01,7.03325e-03,9.99999e-01
6.521297956e-01,7.75676e-03,9.99999e-01,7.75676e-03,9.99999e-01
6.553904446e-01,8.53816e-03,9.99999e-01,8.53816e-03,9.99999e-01
6.586673968e-01,9.38048e-03,9.99999e-01,9.38048e-03,9.99999e-01
6.619607338e-01,1.02868e-02,9.99999e-01,1.02868e-02,9.99999e-01
6.652705375e-01,1.12601e-02,9.99999e-01,1.12601e-02,9.99999e-01
6.685968902e-01,1.23035e-02,9.99999e-01,1.23035e-02,9.99999e-01
6.719398746e-01,1.34201e-02,9.99999e-01,1.34201e-02,9.99999e-01
6.752995740e-01,1.46129e-02,9.99999e-01,1.46129e-02,9.99999e-01
6.786760719e-01,1.58850e-02,9.99999e-01,1.58850e-02,9.99999e-01
6.820694522e-01,1.72394e-02,9.99999e-01,1.72394e-02,9.99999e-01
6.854797995e-01,1.86791e-02,9.99999e-01,1.86791e-02,9.99999e-01
6.889071985e-01,2.02069e-02,9.99999e-01,2.02069e-02,9.99999e-01
6.923517345e-01,2.18258e-02,9.99999e-01,2.18258e-02,9.99999e-01
6.958134932e-01,2.35386e-02,9.99999e-01,2.35386e-02,9.99999e-01
6.992925606e-01,2.53479e-02,9.99999e-01,2.53479e-02,9.99999e-01
7.027890234e-01,2.72563e-02,9.99999e-01,2.72563e-02,9.99999e-01
7.063029686e-01,2.92665e-02,9.99999e-01,2.92665e-02,9.99999e-01
7.098344834e-01,3.13808e-02,9.99999e-01,3.13808e-02,9.99999e-01
7.133836558e-01,3.36015e-02,9.99999e-01,3.36015e-02,9.99999e-01
7.169505741e-01,3.59308e-02,9.99999e-01,3.59308e-02,9.99999e-01
7.205353270e-01,3.83707e-02,9.99999e-01,3.83707e-02,9.99999e-01
7.241380036e-01,4.09232e-02,9.99999e-01,4.09232e-02,9.99999e-01
7.277586936e-01,4.35899e-02,9.99999e-01,4.35899e-02,9.99999e-01
7.313974871e-01,4.63726e-02,9.99999e-01,4.63726e-02,9.99999e-01
7.350544745e-01,4.92727e-02,9.99999e-01,4.92727e-02,9.99999e-01
7.387297469e-01,5.22914e-02,9.99999e-01,5.22914e-02,9.99999e-01
7.424233956e-01,5.54300e-02,9.99999e-01,5.54300e-02,9.99999e-01
7.461355126e-01,5.86893e-02,9.99999e-01,5.86893e-02,9.99999e-01
7.498661902e-01,6.20702e-02,9.99999e-01,6.20702e-02,9.99999e-01
7.536155211e-01,6.55732e-02,9.99999e-01,6.55732e-02,9.99999e-01
7.573835987e-01,6.91989e-02,9.99999e-01,6.91989e-02,9.99999e-01
7.611705167e-01,7.29474e-02,9.99999e-01,7.29474e-02,9.99999e-01
7.649763693e-01,7.68189e-02,9.99999e-01,7.68189e-02,9.99999e-01
7.688012511e-01,8.08133e-02,9.99999e-01,8.08133e-02,9.99999e-01
7.726452574e-01,8.49304e-02,9.99999e-01,8.49304e-02,9.99999e-01
7.765084837e-01,8.91696e-02,9.99999e-01,8.91696e-02,9.99999e-01
7.803910261e-01,8.56211e-02,9.15436e-01,9.35303e-02,9.99999e-01
7.842929812e-01,6.09375e-02,6.21735e-01,9.80119e-02,9.99999e-01
7.882144461e-01,6.25148e-02,6.09226e-01,1.02613e-01,9.99999e-01
7.921555184e-01,7.90504e-02,7.36494e-01,1.07333e-01,9.99999e-01
7.961162960e-01,9.09344e-02,8.10677e-01,1.12171e-01,9.99999e-01
8.000968774e-01,1.04535e-01,8.92512e-01,1.17124e-01,9.99999e-01
8.040973618e-01,1.15133e-01,9.42228e-01,1.22192e-01,9.99999e-01
8.081178486e-01,1.23963e-01,9.73231e-01,1.27373e-01,9.99999e-01
8.121584379e-01,1.31541e-01,9.91533e-01,1.32664e-01,9.99999e-01
8.162192301e-01,1.37805e-01,9.98121e-01,1.38064e-01,9.99999e-01
8.203003262e-01,1.43566e-01,9.99966e-01,1.43571e-01,9.99999e-01
8.244018279e-01,1.49182e-01,9.99999e-01,1.49182e-01,9.99999e-01
8.285238370e-01,1.54895e-01,9.99999e-01,1.54895e-01,9.99999e-01
8.326664562e-01,1.60708e-01,9.99999e-01,1.60708e-01,9.99999e-01
8.368297885e-01,1.66617e-01,9.99999e-01,1.66617e-01,9.99999e-01
8.410139374e-01,1.72621e-01,9.99999e-01,1.72621e-01,9.99999e-01
8.452190071e-01,1.78715e-01,9.99999e-01,1.78715e-01,9.99999e-01
8.494451021e-01,1.84899e-01,9.99999e-01,1.84899e-01,9.99999e-01
8.536923276e-01,1.91167e-01,9.99999e-01,1.91167e-01,9.99999e-01
8.579607893e-01,1.97518e-01,9.99999e-01,1.97518e-01,9.99999e-01
8.622505932e-01,2.03949e-01,9.99999e-01,2.03949e-01,9.99999e-01
8.665618462e-01,1.83946e-01,8.74037e-01,2.10455e-01,9.99999e-01
8.708946554e-01,6.85064e-02,3.15647e-01,2.17034e-01,9.99999e-01
8.752491287e-01,8.46755e-02,3.78550e-01,2.23683e-01,9.99999e-01
8.796253743e-01,1.32961e-01,5.77092e-01,2.30399e-01,9.99999e-01
8.840235012e-01,1.77363e-01,7.47809e-01,2.37177e-01,9.99999e-01
8.884436187e-01,2.17212e-01,8.90158e-01,2.44015e-01,9.99999e-01
8.928858368e-01,2.39388e-01,9.54080e-01,2.50909e-01,9.99999e-01
8.973502660e-01,2.54893e-01,9.88508e-01,2.57856e-01,9.99999e-01
9.018370173e-01,2.64514e-01,9.98722e-01,2.64853e-01,9.99999e-01
9.063462024e-01,2.63810e-01,9.70261e-01,2.71895e-01,9.99999e-01
9.108779334e-01,2.59144e-01,9.28896e-01,2.78980e-01,9.99999e-01
9.154323231e-01,2.81103e-01,9.82518e-01,2.86105e-01,9.99999e-01
9.200094847e-01,2.37478e-01,8.09771e-01,2.93265e-01,9.99999e-01
9.246095321e-01,2.10090e-01,6.99233e-01,3.00457e-01,9.99999e-01
9.292325798e-01,2.34793e-01,7.63109e-01,3.07679e-01,9.99999e-01
9.338787427e-01,2.40677e-01,7.64232e-01,3.14926e-01,9.99999e-01
9.385481364e-01,2.63947e-01,8.19210e-01,3.22196e-01,9.99999e-01
9.432408771e-01,2.91155e-01,8.83664e-01,3.29486e-01,9.99999e-01
9.479570815e-01,3.16175e-01,9.38787e-01,3.36791e-01,9.99999e-01
9.526968669e-01,3.33765e-01,9.69938e-01,3.44109e-01,9.99999e-01
9.574603512e-01,3.46870e-01,9.87004e-01,3.51437e-01,9.99999e-01
9.622476530e-01,3.57308e-01,9.95920e-01,3.58772e-01,9.99999e-01
9.670588912e-01,3.65660e-01,9.98769e-01,3.66110e-01,9.99999e-01
9.718941857e-01,3.73416e-01,9.99909e-01,3.73449e-01,9.99999e-01
9.767536566e-01,3.80786e-01,9.99999e-01,3.80786e-01,9.99999e-01
9.816374249e-01,3.88118e-01,9.99999e-01,3.88118e-01,9.99999e-01
9.865456120e-01,3.95442e-01,9.99999e-01,3.95442e-01,9.99999e-01
9.914783401e-01,4.02755e-01,9.99999e-01,4.02755e-01,9.99999e-01
9.964357318e-01,4.10055e-01,9.99999e-01,4.10055e-01,9.99999e-01
1.001417910e+00,4.17340e-01,9.99999e-01,4.17340e-01,9.99999e-01
1.006425000e+00,4.24606e-01,9.99999e-01,4.24606e-01,9.99999e-01
1.011457125e+00,4.31851e-01,9.99999e-01,4.31851e-01,9.99999e-01
1.016514411e+00,4.39074e-01,9.99999e-01,4.39074e-01,9.99999e-01
1.021596983e+00,4.46210e-01,9.99863e-01,4.46270e-01,9.99999e-01
1.026704968e+00,4.48088e-01,9.88197e-01,4.53440e-01,9.99999e-01
1.031838492e+00,4.18926e-01,9.09563e-01,4.60579e-01,9.99999e-01
1.036997685e+00,2.32455e-02,4.97032e-02,4.67686e-01,9.99999e-01
1.042182673e+00,1.26528e-03,2.66510e-03,4.74760e-01,9.99999e-01
1.047393587e+00,3.54890e-03,7.36596e-03,4.81797e-01,9.99999e-01
1.052630555e+00,2.72706e-07,5.57913e-07,4.88797e-01,9.99999e-01
1.057893707e+00,9.89628e-07,1.99619e-06,4.95757e-01,9.99999e-01
1.063183176e+00,3.11990e-05,6.20657e-05,5.02676e-01,9.99999e-01
1.068499092e+00,3.44546e-04,6.76174e-04,5.09552e-01,9.99999e-01
1.073841587e+00,4.58024e-03,8.86983e-03,5.16383e-01,9.99999e-01
1.079210795e+00,2.70129e-02,5.16333e-02,5.23169e-01,9.99999e-01
1.084606849e+00,9.75560e-02,1.84100e-01,5.29906e-01,9.99999e-01
1.090029883e+00,2.21174e-01,4.12179e-01,5.36595e-01,9.99999e-01
1.095480033e+00,3.49969e-01,6.44231e-01,5.43234e-01,9.99999e-01
1.100957433e+00,4.44278e-01,8.08039e-01,5.49821e-01,9.99999e-01
1.106462220e+00,5.09243e-01,9.15317e-01,5.56356e-01,9.99999e-01
1.111994531e+00,5.44655e-01,9.67694e-01,5.62837e-01,9.99999e-01
1.117554504e+00,5.64679e-01,9.91946e-01,5.69264e-01,9.99999e-01
1.123142276e+00,5.75325e-01,9.99462e-01,5.75634e-01,9.99999e-01
1.128757988e+00,5.81948e-01,9.99999e-01,5.81948e-01,9.99999e-01
1.134401778e+00,5.88204e-01,9.99999e-01,5.88204e-01,9.99999e-01
1.140073787e+00,5.94403e-01,9.99999e-01,5.94403e-01,9.99999e-01
1.145774156e+00,6.00542e-01,9.99999e-01,6.00542e-01,9.99999e-01
1.151503026e+00,6.06621e-01,9.99999e-01,6.06621e-01,9.99999e-01
1.157260541e+00,6.12640e-01,9.99999e-01,6.12640e-01,9.99999e-01
1.163046844e+00,6.18598e-01,9.99999e-01,6.18598e-01,9.99999e-01
1.168862078e+00,6.24495e-01,9.99999e-01,6.24495e-01,9.99999e-01
1.174706389e+00,6.30329e-01,9.99999e-01,6.30329e-01,9.99999e-01
1.180579921e+00,6.36102e-01,9.99999e-01,6.36102e-01,9.99999e-01
1.186482820e+00,6.41805e-01,9.99989e-01,6.41811e-01,9.99999e-01
1.192415234e+00,6.21800e-01,9.60370e-01,6.47458e-01,9.99999e-01
1.198377311e+00,3.37774e-01,5.17232e-01,6.53041e-01,9.99999e-01
1.204369197e+00,5.25870e-32,7.98512e-32,6.58561e-01,9.99999e-01
1.210391043e+00,4.33799e-130,6.53295e-130,6.64017e-01,9.99999e-01
1.216442998e+00,1.49904e-112,2.23934e-112,6.69409e-01,9.99999e-01
1.222525213e+00,7.34715e-111,1.08889e-110,6.74737e-01,9.99999e-01
1.228637839e+00,1.74584e-85,2.56740e-85,6.80001e-01,9.99999e-01
1.234781029e+00,9.59897e-65,1.40090e-64,6.85201e-01,9.99999e-01
1.240954934e+00,3.27770e-35,4.74797e-35,6.90337e-01,9.99999e-01
1.247159708e+00,1.83371e-22,2.63688e-22,6.95408e-01,9.99999e-01
1.253395507e+00,1.68181e-11,2.40115e-11,7.00416e-01,9.99999e-01
1.259662485e+00,3.27842e-07,4.64787e-07,7.05360e-01,9.99999e-01
1.265960797e+00,3.52884e-04,4.96852e-04,7.10240e-01,9.99999e-01
1.272290601e+00,1.56722e-02,2.19175e-02,7.15056e-01,9.99999e-01
1.278652054e+00,1.96303e-02,2.72715e-02,7.19809e-01,9.99999e-01
1.285045314e+00,1.80951e-05,2.49760e-05,7.24498e-01,9.99999e-01
1.291470541e+00,2.88059e-15,3.95074e-15,7.29125e-01,9.99999e-01
1.297927893e+00,1.41199e-06,1.92450e-06,7.33689e-01,9.99999e-01
1.304417533e+00,1.03019e-03,1.39556e-03,7.38191e-01,9.99999e-01
1.310939621e+00,2.93834e-04,3.95667e-04,7.42630e-01,9.99999e-01
1.317494319e+00,3.96935e-44,5.31366e-44,7.47008e-01,9.99999e-01
1.324081790e+00,6.64525e-29,8.84472e-29,7.51324e-01,9.99999e-01
1.330702199e+00,3.34693e-17,4.42962e-17,7.55579e-01,9.99999e-01
1.337355710e+00,1.01136e-15,1.33114e-15,7.59774e-01,9.99999e-01
1.344042489e+00,5.72879e-16,7.49931e-16,7.63908e-01,9.99999e-01
1.350762701e+00,1.57749e-17,2.05407e-17,7.67982e-01,9.99999e-01
1.357516515e+00,1.15796e-10,1.49995e-10,7.71997e-01,9.99999e-01
1.364304097e+00,7.04579e-08,9.08017e-08,7.75953e-01,9.99999e-01
1.371125618e+00,2.02313e-04,2.59425e-04,7.79851e-01,9.99999e-01
1.377981246e+00,6.12582e-04,7.81663e-04,7.83691e-01,9.99999e-01
1.384871152e+00,1.21185e-02,1.53891e-02,7.87473e-01,9.99999e-01
1.391795508e+00,1.67430e-02,2.11615e-02,7.91198e-01,9.99999e-01
1.398754485e+00,6.97052e-02,8.76941e-02,7.94867e-01,9.99999e-01
1.405748258e+00,1.35443e-01,1.69626e-01,7.98479e-01,9.99999e-01
1.412776999e+00,2.58373e-01,3.22146e-01,8.02037e-01,9.99999e-01
1.419840884e+00,2.52871e-01,3.13914e-01,8.05539e-01,9.99999e-01
1.426940089e+00,8.80161e-03,1.08798e-02,8.08987e-01,9.99999e-01
1.434074789e+00,0.00000e+00,0.00000e+00,8.12381e-01,9.99999e-01
1.441245163e+00,0.00000e+00,0.00000e+00,8.15722e-01,9.99999e-01
1.448451389e+00,0.00000e+00,0.00000e+00,8.19011e-01,9.99999e-01
1.455693646e+00,0.00000e+00,0.00000e+00,8.22247e-01,9.99999e-01
1.462972114e+00,0.00000e+00,0.00000e+00,8.25432e-01,9.99999e-01
1.470286975e+00,9.31795e-216,1.12459e-215,8.28566e-01,9.99999e-01
1.477638409e+00,2.88971e-135,3.47467e-135,8.31649e-01,9.99999e-01
1.485026601e+00,6.24896e-75,7.48661e-75,8.34683e-01,9.99999e-01
1.492451734e+00,8.84437e-64,1.05583e-63,8.37668e-01,9.99999e-01
1.499913993e+00,3.57921e-27,4.25790e-27,8.40604e-01,9.99999e-01
1.507413563e+00,6.49578e-26,7.70105e-26,8.43492e-01,9.99999e-01
1.514950631e+00,1.64155e-27,1.93960e-27,8.46332e-01,9.99999e-01
1.522525384e+00,6.85783e-96,8.07634e-96,8.49126e-01,9.99999e-01
1.530138011e+00,2.58871e-230,3.03884e-230,8.51873e-01,9.99999e-01
1.537788701e+00,4.01347e-170,4.69645e-170,8.54575e-01,9.99999e-01
1.545477645e+00,3.50452e-35,4.08818e-35,8.57232e-01,9.99999e-01
1.553205033e+00,9.08865e-26,1.05701e-25,8.59844e-01,9.99999e-01
1.560971058e+00,6.46456e-26,7.49589e-26,8.62413e-01,9.99999e-01
1.568775913e+00,0.00000e+00,0.00000e+00,8.64938e-01,9.99999e-01
1.576619793e+00,0.00000e+00,0.00000e+00,8.67421e-01,9.99999e-01
1.584502892e+00,0.00000e+00,0.00000e+00,8.69861e-01,9.99999e-01
1.592425406e+00,0.00000e+00,0.00000e+00,8.72260e-01,9.99999e-01
1.600387533e+00,0.00000e+00,0.00000e+00,8.74618e-01,9.99999e-01
1.608389471e+00,0.00000e+00,0.00000e+00,8.76935e-01,9.99999e-01
1.616431418e+00,0.00000e+00,0.00000e+00,8.79213e-01,9.99999e-01
1.624513575e+00,0.00000e+00,0.00000e+00,8.81451e-01,9.99999e-01
1.632636143e+00,0.00000e+00,0.00000e+00,8.83651e-01,9.99999e-01
1.640799324e+00,8.06565e-200,9.10536e-200,8.85812e-01,9.99999e-01
1.649003321e+00,8.07982e-200,9.09954e-200,8.87937e-01,9.99999e-01
1.657248337e+00,3.37555e-154,3.79265e-154,8.90024e-01,9.99999e-01
1.665534579e+00,3.10068e-155,3.47581e-155,8.92074e-01,9.99999e-01
1.673862252e+00,1.23375e-98,1.37990e-98,8.94089e-01,9.99999e-01
1.682231563e+00,5.29843e-68,5.91297e-68,8.96068e-01,9.99999e-01
1.690642721e+00,2.36834e-37,2.63731e-37,8.98012e-01,9.99999e-01
1.699095934e+00,1.11607e-23,1.24018e-23,8.99923e-01,9.99999e-01
1.707591414e+00,7.06666e-12,7.83617e-12,9.01799e-01,9.99999e-01
1.716129371e+00,2.55198e-07,2.82410e-07,9.03642e-01,9.99999e-01
1.724710018e+00,1.36642e-04,1.50910e-04,9.05452e-01,9.99999e-01
1.733333568e+00,2.49086e-03,2.74556e-03,9.07230e-01,9.99999e-01
1.742000236e+00,2.97505e-02,3.27296e-02,9.08977e-01,9.99999e-01
1.750710237e+00,5.24660e-05,5.76111e-05,9.10692e-01,9.99999e-01
1.759463788e+00,3.74437e-94,4.10397e-94,9.12376e-01,9.99999e-01
1.768261107e+00,1.45569e-98,1.59261e-98,9.14030e-01,9.99999e-01
1.777102413e+00,4.16274e-96,4.54619e-96,9.15655e-01,9.99999e-01
1.785987925e+00,7.56869e-90,8.25150e-90,9.17250e-01,9.99999e-01
1.794917864e+00,9.17230e-86,9.98272e-86,9.18816e-01,9.99999e-01
1.803892454e+00,2.22746e-82,2.42022e-82,9.20354e-01,9.99999e-01
1.812911916e+00,3.86136e-79,4.18864e-79,9.21864e-01,9.99999e-01
1.821976476e+00,3.30879e-79,3.58347e-79,9.23347e-01,9.99999e-01
1.831086358e+00,2.10987e-63,2.28143e-63,9.24802e-01,9.99999e-01
1.840241790e+00,6.14085e-54,6.62993e-54,9.26231e-01,9.99999e-01
1.849442999e+00,2.14556e-37,2.31294e-37,9.27634e-01,9.99999e-01
1.858690214e+00,2.94324e-35,3.16813e-35,9.29012e-01,9.99999e-01
1.867983665e+00,9.19362e-36,9.88173e-36,9.30364e-01,9.99999e-01
1.877323583e+00,7.61157e-181,8.16962e-181,9.31691e-01,9.99999e-01
