#,Wave/freq,Total,CO2,Rayleigh,CIA
4.000000000e-01,6.55267e-21,9.99999e-01,6.55267e-21,9.99999e-01
4.020000000e-01,1.64256e-20,9.99999e-01,1.64256e-20,9.99999e-01
4.040100000e-01,4.03937e-20,9.99999e-01,4.03937e-20,9.99999e-01
4.060300500e-01,9.75859e-20,9.99999e-01,9.75859e-20,9.99999e-01
4.080602003e-01,2.31683e-19,9.99999e-01,2.31683e-19,9.99999e-01
4.101005013e-01,5.40733e-19,9.99999e-01,5.40733e-19,9.99999e-01
4.121510038e-01,1.24109e-18,9.99999e-01,1.24109e-18,9.99999e-01
4.142117588e-01,2.80217e-18,9.99999e-01,2.80217e-18,9.99999e-01
4.162828176e-01,6.22586e-18,9.99999e-01,6.22586e-18,9.99999e-01
4.183642317e-01,1.36162e-17,9.99999e-01,1.36162e-17,9.99999e-01
4.204560528e-01,2.93225e-17,9.99999e-01,2.93225e-17,9.99999e-01
4.225583331e-01,6.21963e-17,9.99999e-01,6.21963e-17,9.99999e-01
4.246711247e-01,1.29980e-16,9.99999e-01,1.29980e-16,9.99999e-01
4.267944804e-01,2.67712e-16,9.99999e-01,2.67712e-16,9.99999e-01
4.289284528e-01,5.43576e-16,9.99999e-01,5.43576e-16,9.99999e-01
4.310730950e-01,1.08837e-15,9.99999e-01,1.08837e-15,9.99999e-01
4.332284605e-01,2.14950e-15,9.99999e-01,2.14950e-15,9.99999e-01
4.353946028e-01,4.18851e-15,9.99999e-01,4.18851e-15,9.99999e-01
4.375715758e-01,8.05490e-15,9.99999e-01,8.05490e-15,9.99999e-01
4.397594337e-01,1.52915e-14,9.99999e-01,1.52915e-14,9.99999e-01
4.419582309e-01,2.86643e-14,9.99999e-01,2.86643e-14,9.99999e-01
4.441680220e-01,5.30692e-14,9.99999e-01,5.30692e-14,9.99999e-01
4.463888621e-01,9.70644e-14,9.99999e-01,9.70644e-14,9.99999e-01
4.486208064e-01,1.75428e-13,9.99999e-01,1.75428e-13,9.99999e-01
4.508639105e-01,3.13371e-13,9.99999e-01,3.13371e-13,9.99999e-01
4.531182300e-01,5.53404e-13,9.99999e-01,5.53404e-13,9.99999e-01
4.553838212e-01,9.66379e-13,9.99999e-01,9.66379e-13,9.99999e-01
4.576607403e-01,1.66905e-12,9.99999e-01,1.66905e-12,9.99999e-01
4.599490440e-01,2.85171e-12,9.99999e-01,2.85171e-12,9.99999e-01
4.622487892e-01,4.82110e-12,9.99999e-01,4.82110e-12,9.99999e-01
4.645600332e-01,8.06644e-12,9.99999e-01,8.06644e-12,9.99999e-01
4.668828333e-01,1.33599e-11,9.99999e-01,1.33599e-11,9.99999e-01
4.692172475e-01,2.19076e-11,9.99999e-01,2.19076e-11,9.99999e-01
4.715633337e-01,3.55750e-11,9.99999e-01,3.55750e-11,9.99999e-01
4.739211504e-01,5.72184e-11,9.99999e-01,5.72184e-11,9.99999e-01
4.762907561e-01,9.11695e-11,9.99999e-01,9.11695e-11,9.99999e-01
4.786722099e-01,1.43935e-10,9.99999e-01,1.43935e-10,9.99999e-01
4.810655710e-01,2.25200e-10,9.99999e-01,2.25200e-10,9.99999e-01
4.834708988e-01,3.49244e-10,9.99999e-01,3.49244e-10,9.99999e-01
4.858882533e-01,5.36939e-10,9.99999e-01,5.36939e-10,9.99999e-01
4.883176946e-01,8.18525e-10,9.99999e-01,8.18525e-10,9.99999e-01
4.907592831e-01,1.23743e-09,9.99999e-01,1.23743e-09,9.99999e-01
4.932130795e-01,1.85553e-09,9.99999e-01,1.85553e-09,9.99999e-01
4.956791449e-01,2.76017e-09,9.99999e-01,2.76017e-09,9.99999e-01
4.981575406e-01,4.07379e-09,9.99999e-01,4.07379e-09,9.99999e-01
5.006483283e-01,5.96654e-09,9.99999e-01,5.96654e-09,9.99999e-01
5.031515699e-01,8.67306e-09,9.99999e-01,8.67306e-09,9.99999e-01
5.056673278e-01,1.25145e-08,9.99999e-01,1.25145e-08,9.99999e-01
5.081956644e-01,1.79271e-08,9.99999e-01,1.79271e-08,9.99999e-01
5.107366428e-01,2.54989e-08,9.99999e-01,2.54989e-08,9.99999e-01
5.132903260e-01,3.60173e-08,9.99999e-01,3.60173e-08,9.99999e-01
5.158567776e-01,5.05288e-08,9.99999e-01,5.05288e-08,9.99999e-01
5.184360615e-01,7.04145e-08,9.99999e-01,7.04145e-08,9.99999e-01
5.210282418e-01,9.74851e-08,9.99999e-01,9.74851e-08,9.99999e-01
5.236333830e-01,1.34099e-07,9.99999e-01,1.34099e-07,9.99999e-01
5.262515499e-01,1.83305e-07,9.99999e-01,1.83305e-07,9.99999e-01
5.288828077e-01,2.49025e-07,9.99999e-01,2.49025e-07,9.99999e-01
5.315272217e-01,3.36267e-07,9.99999e-01,3.36267e-07,9.99999e-01
5.341848578e-01,4.51386e-07,9.99999e-01,4.51386e-07,9.99999e-01
5.368557821e-01,6.02402e-07,9.99999e-01,6.02402e-07,9.99999e-01
5.395400610e-01,7.99372e-07,9.99999e-01,7.99372e-07,9.99999e-01
5.422377613e-01,1.05484e-06,9.99999e-01,1.05484e-06,9.99999e-01
5.449489501e-01,1.38434e-06,9.99999e-01,1.38434e-06,9.99999e-01
5.476736949e-01,1.80704e-06,9.99999e-01,1.80704e-06,9.99999e-01
5.504120634e-01,2.34642e-06,9.99999e-01,2.34642e-06,9.99999e-01
5.531641237e-01,3.03113e-06,9.99999e-01,3.03113e-06,9.99999e-01
5.559299443e-01,3.89589e-06,9.99999e-01,3.89589e-06,9.99999e-01
5.587095940e-01,4.98259e-06,9.99999e-01,4.98259e-06,9.99999e-01
5.615031420e-01,6.34153e-06,9.99999e-01,6.34153e-06,9.99999e-01
5.643106577e-01,8.03273e-06,9.99999e-01,8.03273e-06,9.99999e-01
5.671322110e-01,1.01276e-05,9.99999e-01,1.01276e-05,9.99999e-01
5.699678720e-01,1.27104e-05,9.99999e-01,1.27104e-05,9.99999e-01
5.728177114e-01,1.58805e-05,9.99999e-01,1.58805e-05,9.99999e-01
5.756818000e-01,1.97541e-05,9.99999e-01,1.97541e-05,9.99999e-01
5.785602090e-01,2.44670e-05,9.99999e-01,2.44670e-05,9.99999e-01
5.814530100e-01,3.01764e-05,9.99999e-01,3.01764e-05,9.99999e-01
5.843602750e-01,3.70643e-05,9.99999e-01,3.70643e-05,9.99999e-01
5.872820764e-01,4.53398e-05,9.99999e-01,4.53398e-05,9.99999e-01
5.902184868e-01,5.52427e-05,9.99999e-01,5.52427e-05,9.99999e-01
5.931695792e-01,6.70464e-05,9.99999e-01,6.70464e-05,9.99999e-01
5.961354271e-01,8.10615e-05,9.99999e-01,8.10615e-05,9.99999e-01
5.991161043e-01,9.76396e-05,9.99999e-01,9.76396e-05,9.99999e-01
6.021116848e-01,1.17177e-04,9.99999e-01,1.17177e-04,9.99999e-01
6.051222432e-01,1.40117e-04,9.99999e-01,1.40117e-04,9.99999e-01
6.081478544e-01,1.66958e-04,9.99999e-01,1.66958e-04,9.99999e-01
6.111885937e-01,1.98253e-04,9.99999e-01,1.98253e-04,9.99999e-01
6.142445367e-01,2.34617e-04,9.99999e-01,2.34617e-04,9.99999e-01
6.173157594e-01,2.76728e-04,9.99999e-01,2.76728e-04,9.99999e-01
6.204023382e-01,3.25336e-04,9.99999e-01,3.25336e-04,9.99999e-01
6.235043498e-01,3.81261e-04,9.99999e-01,3.81261e-04,9.99999e-01
6.266218716e-01,4.45401e-04,9.99999e-01,4.45401e-04,9.99999e-01
6.297549810e-01,5.18736e-04,9.99999e-01,5.18736e-04,9.99999e-01
6.329037559e-01,6.02330e-04,9.99999e-01,6.02330e-04,9.99999e-01
6.360682746e-01,6.97334e-04,9.99999e-01,6.97334e-04,9.99999e-01
6.392486160e-01,8.04990e-04,9.99999e-01,8.04990e-04,9.99999e-01
6.424448591e-01,9.26636e-04,9.99999e-01,9.26636e-04,9.99999e-01
6.456570834e-01,1.06370e-03,9.99999e-01,1.06370e-03,9.99999e-01
6.488853688e-01,1.21772e-03,9.99999e-01,1.21772e-03,9.99999e-01
6.521297956e-01,1.39032e-03,9.99999e-01,1.39032e-03,9.99999e-01
6.553904446e-01,1.58324e-03,9.99999e-01,1.58324e-03,9.99999e-01
6.586673968e-01,1.79830e-03,9.99999e-01,1.79830e-03,9.99999e-01
6.619607338e-01,2.03744e-03,9.99999e-01,2.03744e-03,9.99999e-01
6.652705375e-01,2.30270e-03,9.99999e-01,2.30270e-03,9.99999e-01
6.685968902e-01,2.59621e-03,9.99999e-01,2.59621e-03,9.99999e-01
6.719398746e-01,2.92020e-03,9.99999e-01,2.92020e-03,9.99999e-01
6.752995740e-01,3.27701e-03,9.99999e-01,3.27701e-03,9.99999e-01
6.786760719e-01,3.66904e-03,9.99999e-01,3.66904e-03,9.99999e-01
6.820694522e-01,4.09882e-03,9.99999e-01,4.09882e-03,9.99999e-01
6.854797995e-01,4.56893e-03,9.99999e-01,4.56893e-03,9.99999e-01
6.889071985e-01,5.08205e-03,9.99999e-01,5.08205e-03,9.99999e-01
6.923517345e-01,5.64093e-03,9.99999e-01,5.64093e-03,9.99999e-01
6.958134932e-01,6.24837e-03,9.99999e-01,6.24837e-03,9.99999e-01
6.992925606e-01,6.90726e-03,9.99999e-01,6.90726e-03,9.99999e-01
7.027890234e-01,7.62053e-03,9.99999e-01,7.62053e-03,9.99999e-01
7.063029686e-01,8.39114e-03,9.99999e-01,8.39114e-03,9.99999e-01
7.098344834e-01,9.22212e-03,9.99999e-01,9.22212e-03,9.99999e-01
7.133836558e-01,1.01165e-02,9.99999e-01,1.01165e-02,9.99999e-01
7.169505741e-01,1.10774e-02,9.99999e-01,1.10774e-02,9.99999e-01
7.205353270e-01,1.21077e-02,9.99999e-01,1.21077e-02,9.99999e-01
7.241380036e-01,1.32107e-02,9.99999e-01,1.32107e-02,9.99999e-01
7.277586936e-01,1.43894e-02,9.99999e-01,1.43894e-02,9.99999e-01
7.313974871e-01,1.56469e-02,9.99999e-01,1.56469e-02,9.99999e-01
7.350544745e-01,1.69860e-02,9.99999e-01,1.69860e-02,9.99999e-01
7.387297469e-01,1.84099e-02,9.99999e-01,1.84099e-02,9.99999e-01
7.424233956e-01,1.99215e-02,9.99999e-01,1.99215e-02,9.99999e-01
7.461355126e-01,2.15235e-02,9.99999e-01,2.15235e-02,9.99999e-01
7.498661902e-01,2.32190e-02,9.99999e-01,2.32190e-02,9.99999e-01
7.536155211e-01,2.50104e-02,9.99999e-01,2.50104e-02,9.99999e-01
7.573835987e-01,2.69006e-02,9.99999e-01,2.69006e-02,9.99999e-01
7.611705167e-01,2.88921e-02,9.99999e-01,2.88921e-02,9.99999e-01
7.649763693e-01,3.09872e-02,9.99999e-01,3.09872e-02,9.99999e-01
7.688012511e-01,3.31883e-02,9.99999e-01,3.31883e-02,9.99999e-01
7.726452574e-01,3.54976e-02,9.99999e-01,3.54976e-02,9.99999e-01
7.765084837e-01,3.79172e-02,9.99999e-01,3.79172e-02,9.99999e-01
7.803910261e-01,3.61852e-02,8.94588e-01,4.04490e-02,9.99999e-01
7.842929812e-01,2.30078e-02,5.33887e-01,4.30948e-02,9.99999e-01
7.882144461e-01,2.39362e-02,5.21982e-01,4.58562e-02,9.99999e-01
7.921555184e-01,3.23277e-02,6.63339e-01,4.87348e-02,9.99999e-01
7.961162960e-01,3.89747e-02,7.53400e-01,5.17318e-02,9.99999e-01
8.000968774e-01,4.70394e-02,8.57625e-01,5.48484e-02,9.99999e-01
8.040973618e-01,5.35949e-02,9.22687e-01,5.80856e-02,9.99999e-01
8.081178486e-01,5.92294e-02,9.63952e-01,6.14442e-02,9.99999e-01
8.121584379e-01,6.41823e-02,9.88560e-01,6.49250e-02,9.99999e-01
8.162192301e-01,6.83541e-02,9.97458e-01,6.85282e-02,9.99999e-01
8.203003262e-01,7.22511e-02,9.99955e-01,7.22543e-02,9.99999e-01
8.244018279e-01,7.61034e-02,9.99999e-01,7.61034e-02,9.99999e-01
8.285238370e-01,8.00754e-02,9.99999e-01,8.00754e-02,9.99999e-01
8.326664562e-01,8.41701e-02,9.99999e-01,8.41701e-02,9.99999e-01
8.368297885e-01,8.83870e-02,9.99999e-01,8.83870e-02,9.99999e-01
8.410139374e-01,9.27257e-02,9.99999e-01,9.27257e-02,9.99999e-01
8.452190071e-01,9.71853e-02,9.99999e-01,9.71853e-02,9.99999e-01
8.494451021e-01,1.01765e-01,9.99999e-01,1.01765e-01,9.99999e-01
8.536923276e-01,1.06463e-01,9.99999e-01,1.06463e-01,9.99999e-01
8.579607893e-01,1.11280e-01,9.99999e-01,1.11280e-01,9.99999e-01
8.622505932e-01,1.16212e-01,9.99999e-01,1.16212e-01,9.99999e-01
8.665618462e-01,1.04024e-01,8.57867e-01,1.21259e-01,9.99999e-01
8.708946554e-01,2.80952e-02,2.22238e-01,1.26419e-01,9.99999e-01
8.752491287e-01,3.63203e-02,2.75800e-01,1.31691e-01,9.99999e-01
8.796253743e-01,6.58483e-02,4.80395e-01,1.37071e-01,9.99999e-01
8.840235012e-01,9.64329e-02,6.76444e-01,1.42559e-01,9.99999e-01
8.884436187e-01,1.26610e-01,8.54602e-01,1.48151e-01,9.99999e-01
8.928858368e-01,1.44369e-01,9.38400e-01,1.53845e-01,9.99999e-01
8.973502660e-01,1.57163e-01,9.84483e-01,1.59640e-01,9.99999e-01
9.018370173e-01,1.65246e-01,9.98270e-01,1.65532e-01,9.99999e-01
9.063462024e-01,1.64725e-01,9.60391e-01,1.71518e-01,9.99999e-01
9.108779334e-01,1.60756e-01,9.05176e-01,1.77597e-01,9.99999e-01
9.154323231e-01,1.79436e-01,9.76446e-01,1.83764e-01,9.99999e-01
9.200094847e-01,1.45569e-01,7.66082e-01,1.90017e-01,9.99999e-01
9.246095321e-01,1.21297e-01,6.17746e-01,1.96354e-01,9.99999e-01
9.292325798e-01,1.41274e-01,6.96722e-01,2.02770e-01,9.99999e-01
9.338787427e-01,1.45858e-01,6.97011e-01,2.09262e-01,9.99999e-01
9.385481364e-01,1.64961e-01,7.64314e-01,2.15829e-01,9.99999e-01
9.432408771e-01,1.88208e-01,8.46009e-01,2.22465e-01,9.99999e-01
9.479570815e-01,2.10398e-01,9.18090e-01,2.29169e-01,9.99999e-01
9.526968669e-01,2.26396e-01,9.59563e-01,2.35936e-01,9.99999e-01
9.574603512e-01,2.38504e-01,9.82454e-01,2.42763e-01,9.99999e-01
9.622476530e-01,2.48270e-01,9.94482e-01,2.49647e-01,9.99999e-01
9.670588912e-01,2.56158e-01,9.98335e-01,2.56585e-01,9.99999e-01
9.718941857e-01,2.63541e-01,9.99877e-01,2.63573e-01,9.99999e-01
9.767536566e-01,2.70607e-01,9.99999e-01,2.70607e-01,9.99999e-01
9.816374249e-01,2.77685e-01,9.99999e-01,2.77685e-01,9.99999e-01
9.865456120e-01,2.84802e-01,9.99999e-01,2.84802e-01,9.99999e-01
9.914783401e-01,2.91956e-01,9.99999e-01,2.91956e-01,9.99999e-01
9.964357318e-01,2.99143e-01,9.99999e-01,2.99143e-01,9.99999e-01
1.001417910e+00,3.06359e-01,9.99999e-01,3.06359e-01,9.99999e-01
1.006425000e+00,3.13602e-01,9.99999e-01,3.13602e-01,9.99999e-01
1.011457125e+00,3.20869e-01,9.99999e-01,3.20869e-01,9.99999e-01
1.016514411e+00,3.28154e-01,9.99999e-01,3.28154e-01,9.99999e-01
1.021596983e+00,3.35395e-01,9.99815e-01,3.35457e-01,9.99999e-01
1.026704968e+00,3.37327e-01,9.84111e-01,3.42773e-01,9.99999e-01
1.031838492e+00,3.11234e-01,8.88987e-01,3.50100e-01,9.99999e-01
1.036997685e+00,1.21740e-02,3.40594e-02,3.57433e-01,9.99999e-01
1.042182673e+00,2.28190e-04,6.25568e-04,3.64771e-01,9.99999e-01
1.047393587e+00,7.00934e-04,1.88367e-03,3.72110e-01,9.99999e-01
1.052630555e+00,3.79156e-09,9.99230e-09,3.79448e-01,9.99999e-01
1.057893707e+00,1.37076e-08,3.54403e-08,3.86781e-01,9.99999e-01
1.063183176e+00,1.52836e-06,3.87805e-06,3.94106e-01,9.99999e-01
1.068499092e+00,2.72709e-05,6.79358e-05,4.01422e-01,9.99999e-01
1.073841587e+00,7.61102e-04,1.86214e-03,4.08725e-01,9.99999e-01
1.079210795e+00,8.28625e-03,1.99183e-02,4.16012e-01,9.99999e-01
1.084606849e+00,4.39432e-02,1.03815e-01,4.23282e-01,9.99999e-01
1.090029883e+00,1.30861e-01,3.03951e-01,4.30531e-01,9.99999e-01
1.095480033e+00,2.42165e-01,5.53194e-01,4.37758e-01,9.99999e-01
1.100957433e+00,3.33659e-01,7.49864e-01,4.44959e-01,9.99999e-01
1.106462220e+00,4.01161e-01,8.87261e-01,4.52134e-01,9.99999e-01
1.111994531e+00,4.39320e-01,9.56543e-01,4.59279e-01,9.99999e-01
1.117554504e+00,4.61317e-01,9.89119e-01,4.66392e-01,9.99999e-01
1.123142276e+00,4.73128e-01,9.99273e-01,4.73472e-01,9.99999e-01
1.128757988e+00,4.80516e-01,9.99999e-01,4.80516e-01,9.99999e-01
1.134401778e+00,4.87523e-01,9.99999e-01,4.87523e-01,9.99999e-01
1.140073787e+00,4.94490e-01,9.99999e-01,4.94490e-01,9.99999e-01
1.145774156e+00,5.01417e-01,9.99999e-01,5.01417e-01,9.99999e-01
1.151503026e+00,5.08301e-01,9.99999e-01,5.08301e-01,9.99999e-01
1.157260541e+00,5.15140e-01,9.99999e-01,5.15140e-01,9.99999e-01
1.163046844e+00,5.21934e-01,9.99999e-01,5.21934e-01,9.99999e-01
1.168862078e+00,5.28681e-01,9.99999e-01,5.28681e-01,9.99999e-01
1.174706389e+00,5.35379e-01,9.99999e-01,5.35379e-01,9.99999e-01
1.180579921e+00,5.42027e-01,9.99999e-01,5.42027e-01,9.99999e-01
1.186482820e+00,5.48616e-01,9.99985e-01,5.48623e-01,9.99999e-01
1.192415234e+00,5.26185e-01,9.47794e-01,5.55168e-01,9.99999e-01
1.198377311e+00,2.79041e-01,4.96815e-01,5.61659e-01,9.99999e-01
1.204369197e+00,1.56273e-42,2.75082e-42,5.68095e-01,9.99999e-01
1.210391043e+00,2.57680e-175,4.48547e-175,5.74476e-01,9.99999e-01
1.216442998e+00,1.42632e-151,2.45577e-151,5.80800e-01,9.99999e-01
1.222525213e+00,2.77030e-149,4.71888e-149,5.87067e-01,9.99999e-01
1.228637839e+00,6.04036e-115,1.01813e-114,5.93276e-01,9.99999e-01
1.234781029e+00,7.42480e-87,1.23865e-86,5.99426e-01,9.99999e-01
1.240954934e+00,6.48366e-47,1.07076e-46,6.05516e-01,9.99999e-01
1.247159708e+00,1.03552e-29,1.69328e-29,6.11546e-01,9.99999e-01
1.253395507e+00,4.78085e-15,7.74206e-15,6.17516e-01,9.99999e-01
1.259662485e+00,3.00097e-09,4.81369e-09,6.23424e-01,9.99999e-01
1.265960797e+00,3.63723e-05,5.78008e-05,6.29270e-01,9.99999e-01
1.272290601e+00,4.08184e-03,6.42754e-03,6.35053e-01,9.99999e-01
1.278652054e+00,5.97070e-03,9.31793e-03,6.40774e-01,9.99999e-01
1.285045314e+00,1.10926e-06,1.71598e-06,6.46433e-01,9.99999e-01
1.291470541e+00,4.59649e-20,7.04953e-20,6.52027e-01,9.99999e-01
1.297927893e+00,3.32607e-08,5.05820e-08,6.57559e-01,9.99999e-01
1.304417533e+00,1.05047e-04,1.58436e-04,6.63026e-01,9.99999e-01
1.310939621e+00,3.31933e-05,4.96585e-05,6.68430e-01,9.99999e-01
1.317494319e+00,5.82562e-59,8.64630e-59,6.73770e-01,9.99999e-01
1.324081790e+00,2.40672e-38,3.54427e-38,6.79045e-01,9.99999e-01
1.330702199e+00,8.13037e-23,1.18820e-22,6.84257e-01,9.99999e-01
1.337355710e+00,1.24076e-20,1.79976e-20,6.89404e-01,9.99999e-01
1.344042489e+00,8.02769e-21,1.15591e-20,6.94488e-01,9.99999e-01
1.350762701e+00,3.56822e-23,5.10104e-23,6.99507e-01,9.99999e-01
1.357516515e+00,1.00547e-13,1.42729e-13,7.04462e-01,9.99999e-01
1.364304097e+00,3.22388e-10,4.54480e-10,7.09354e-01,9.99999e-01
1.371125618e+00,1.27556e-05,1.78604e-05,7.14182e-01,9.99999e-01
1.377981246e+00,5.18249e-05,7.20845e-05,7.18946e-01,9.99999e-01
1.384871152e+00,2.70592e-03,3.73928e-03,7.23647e-01,9.99999e-01
1.391795508e+00,4.28837e-03,5.88831e-03,7.28286e-01,9.99999e-01
1.398754485e+00,2.74110e-02,3.74027e-02,7.32861e-01,9.99999e-01
1.405748258e+00,6.80741e-02,9.23196e-02,7.37374e-01,9.99999e-01
1.412776999e+00,1.61130e-01,2.17207e-01,7.41825e-01,9.99999e-01
1.419840884e+00,1.67584e-01,2.24579e-01,7.46214e-01,9.99999e-01
1.426940089e+00,4.67426e-03,6.22786e-03,7.50541e-01,9.99999e-01
1.434074789e+00,0.00000e+00,0.00000e+00,7.54807e-01,9.99999e-01
1.441245163e+00,0.00000e+00,0.00000e+00,7.59013e-01,9.99999e-01
1.448451389e+00,0.00000e+00,0.00000e+00,7.63158e-01,9.99999e-01
1.455693646e+00,0.00000e+00,0.00000e+00,7.67243e-01,9.99999e-01
1.462972114e+00,0.00000e+00,0.00000e+00,7.71269e-01,9.99999e-01
1.470286975e+00,2.72746e-291,3.51823e-291,7.75236e-01,9.99999e-01
1.477638409e+00,2.53044e-182,3.24772e-182,7.79144e-01,9.99999e-01
1.485026601e+00,1.21083e-100,1.54641e-100,7.82994e-01,9.99999e-01
1.492451734e+00,1.43061e-85,1.81829e-85,7.86787e-01,9.99999e-01
1.499913993e+00,5.45014e-36,6.89434e-36,7.90522e-01,9.99999e-01
1.507413563e+00,1.07870e-34,1.35822e-34,7.94201e-01,9.99999e-01
1.514950631e+00,1.89780e-36,2.37871e-36,7.97824e-01,9.99999e-01
1.522525384e+00,5.11136e-129,6.37810e-129,8.01392e-01,9.99999e-01
1.530138011e+00,5.37747e-311,6.68088e-311,8.04904e-01,9.99999e-01
1.537788701e+00,1.63909e-229,2.02766e-229,8.08362e-01,9.99999e-01
1.545477645e+00,7.83437e-47,9.65101e-47,8.11766e-01,9.99999e-01
1.553205033e+00,2.41596e-34,2.96394e-34,8.15117e-01,9.99999e-01
1.560971058e+00,2.38593e-34,2.91531e-34,8.18415e-01,9.99999e-01
1.568775913e+00,0.00000e+00,0.00000e+00,8.21661e-01,9.99999e-01
1.576619793e+00,0.00000e+00,0.00000e+00,8.24855e-01,9.99999e-01
1.584502892e+00,0.00000e+00,0.00000e+00,8.27998e-01,9.99999e-01
1.592425406e+00,0.00000e+00,0.00000e+00,8.31091e-01,9.99999e-01
1.600387533e+00,0.00000e+00,0.00000e+00,8.34133e-01,9.99999e-01
1.608389471e+00,0.00000e+00,0.00000e+00,8.37127e-01,9.99999e-01
1.616431418e+00,0.00000e+00,0.00000e+00,8.40072e-01,9.99999e-01
1.624513575e+00,0.00000e+00,0.00000e+00,8.42968e-01,9.99999e-01
1.632636143e+00,0.00000e+00,0.00000e+00,8.45817e-01,9.99999e-01
1.640799324e+00,1.02665e-269,1.20978e-269,8.48620e-01,9.99999e-01
1.649003321e+00,1.02909e-269,1.20873e-269,8.51376e-01,9.99999e-01
1.657248337e+00,5.92990e-208,6.94297e-208,8.54086e-01,9.99999e-01
1.665534579e+00,2.34076e-209,2.73213e-209,8.56751e-01,9.99999e-01
1.673862252e+00,9.82870e-133,1.14371e-132,8.59371e-01,9.99999e-01
1.682231563e+00,2.89998e-91,3.36444e-91,8.61948e-01,9.99999e-01
1.690642721e+00,9.03684e-50,1.04535e-49,8.64481e-01,9.99999e-01
1.699095934e+00,2.57730e-31,2.97276e-31,8.66971e-01,9.99999e-01
1.707591414e+00,2.72396e-15,3.13308e-15,8.69419e-01,9.99999e-01
1.716129371e+00,2.29303e-09,2.63014e-09,8.71825e-01,9.99999e-01
1.724710018e+00,8.53203e-06,9.75991e-06,8.74190e-01,9.99999e-01
1.733333568e+00,3.45654e-04,3.94350e-04,8.76515e-01,9.99999e-01
1.742000236e+00,9.21348e-03,1.04842e-02,8.78800e-01,9.99999e-01
1.750710237e+00,5.12603e-06,5.81811e-06,8.81046e-01,9.99999e-01
1.759463788e+00,1.14091e-126,1.29171e-126,8.83252e-01,9.99999e-01
1.768261107e+00,1.22939e-132,1.38847e-132,8.85421e-01,9.99999e-01
1.777102413e+00,2.25510e-129,2.54081e-129,8.87552e-01,9.99999e-01
1.785987925e+00,7.74483e-121,8.70551e-121,8.89646e-01,9.99999e-01
1.794917864e+00,2.60611e-115,2.92262e-115,8.91703e-01,9.99999e-01
1.803892454e+00,1.00019e-110,1.11912e-110,8.93724e-01,9.99999e-01
1.812911916e+00,2.40822e-106,2.68862e-106,8.95710e-01,9.99999e-01
1.821976476e+00,1.96814e-106,2.19252e-106,8.97660e-01,9.99999e-01
1.831086358e+00,4.89661e-85,5.44324e-85,8.99577e-01,9.99999e-01
1.840241790e+00,3.07166e-72,3.40743e-72,9.01459e-01,9.99999e-01
1.849442999e+00,5.63209e-50,6.23496e-50,9.03308e-01,9.99999e-01
1.858690214e+00,3.78285e-47,4.17936e-47,9.05124e-01,9.99999e-01
1.867983665e+00,1.24498e-47,1.37277e-47,9.06908e-01,9.99999e-01
1.877323583e+00,5.00560e-244,5.50876e-244,9.08660e-01,9.99999e-01
