#,Wave/freq,Total,CO2,Rayleigh,CIA
4.000000000e-01,3.32102e-05,9.99999e-01,3.32102e-05,9.99999e-01
4.020000000e-01,4.07099e-05,9.99999e-01,4.07099e-05,9.99999e-01
4.040100000e-01,4.97073e-05,9.99999e-01,4.97073e-05,9.99999e-01
4.060300500e-01,6.04542e-05,9.99999e-01,6.04542e-05,9.99999e-01
4.080602003e-01,7.32409e-05,9.99999e-01,7.32409e-05,9.99999e-01
4.101005013e-01,8.83964e-05,9.99999e-01,8.83964e-05,9.99999e-01
4.121510038e-01,1.06293e-04,9.99999e-01,1.06293e-04,9.99999e-01
4.142117588e-01,1.27347e-04,9.99999e-01,1.27347e-04,9.99999e-01
4.162828176e-01,1.52029e-04,9.99999e-01,1.52029e-04,9.99999e-01
4.183642317e-01,1.80860e-04,9.99999e-01,1.80860e-04,9.99999e-01
4.204560528e-01,2.14422e-04,9.99999e-01,2.14422e-04,9.99999e-01
4.225583331e-01,2.53358e-04,9.99999e-01,2.53358e-04,9.99999e-01
4.246711247e-01,2.98380e-04,9.99999e-01,2.98380e-04,9.99999e-01
4.267944804e-01,3.50269e-04,9.99999e-01,3.50269e-04,9.99999e-01
4.289284528e-01,4.09882e-04,9.99999e-01,4.09882e-04,9.99999e-01
4.310730950e-01,4.78153e-04,9.99999e-01,4.78153e-04,9.99999e-01
4.332284605e-01,5.56101e-04,9.99999e-01,5.56101e-04,9.99999e-01
4.353946028e-01,6.44830e-04,9.99999e-01,6.44830e-04,9.99999e-01
4.375715758e-01,7.45532e-04,9.99999e-01,7.45532e-04,9.99999e-01
4.397594337e-01,8.59494e-04,9.99999e-01,8.59494e-04,9.99999e-01
4.419582309e-01,9.88096e-04,9.99999e-01,9.88096e-04,9.99999e-01
4.441680220e-01,1.13282e-03,9.99999e-01,1.13282e-03,9.99999e-01
4.463888621e-01,1.29523e-03,9.99999e-01,1.29523e-03,9.99999e-01
4.486208064e-01,1.47702e-03,9.99999e-01,1.47702e-03,9.99999e-01
4.508639105e-01,1.67995e-03,9.99999e-01,1.67995e-03,9.99999e-01
4.531182300e-01,1.90592e-03,9.99999e-01,1.90592e-03,9.99999e-01
4.553838212e-01,2.15689e-03,9.99999e-01,2.15689e-03,9.99999e-01
4.576607403e-01,2.43496e-03,9.99999e-01,2.43496e-03,9.99999e-01
4.599490440e-01,2.74230e-03,9.99999e-01,2.74230e-03,9.99999e-01
4.622487892e-01,3.08120e-03,9.99999e-01,3.08120e-03,9.99999e-01
4.645600332e-01,3.45401e-03,9.99999e-01,3.45401e-03,9.99999e-01
4.668828333e-01,3.86320e-03,9.99999e-01,3.86320e-03,9.99999e-01
4.692172475e-01,4.31133e-03,9.99999e-01,4.31133e-03,9.99999e-01
4.715633337e-01,4.80102e-03,9.99999e-01,4.80102e-03,9.99999e-01
4.739211504e-01,5.33498e-03,9.99999e-01,5.33498e-03,9.99999e-01
4.762907561e-01,5.91599e-03,9.99999e-01,5.91599e-03,9.99999e-01
4.786722099e-01,6.54690e-03,9.99999e-01,6.54690e-03,9.99999e-01
4.810655710e-01,7.23060e-03,9.99999e-01,7.23060e-03,9.99999e-01
4.834708988e-01,7.97005e-03,9.99999e-01,7.97005e-03,9.99999e-01
4.858882533e-01,8.76824e-03,9.99999e-01,8.76824e-03,9.99999e-01
4.883176946e-01,9.62819e-03,9.99999e-01,9.62819e-03,9.99999e-01
4.907592831e-01,1.05530e-02,9.99999e-01,1.05530e-02,9.99999e-01
4.932130795e-01,1.15456e-02,9.99999e-01,1.15456e-02,9.99999e-01
4.956791449e-01,1.26093e-02,9.99999e-01,1.26093e-02,9.99999e-01
4.981575406e-01,1.37469e-02,9.99999e-01,1.37469e-02,9.99999e-01
5.006483283e-01,1.49617e-02,9.99999e-01,1.49617e-02,9.99999e-01
5.031515699e-01,1.62566e-02,9.99999e-01,1.62566e-02,9.99999e-01
5.056673278e-01,1.76346e-02,9.99999e-01,1.76346e-02,9.99999e-01
5.081956644e-01,1.90988e-02,9.99999e-01,1.90988e-02,9.99999e-01
5.107366428e-01,2.06519e-02,9.99999e-01,2.06519e-02,9.99999e-01
5.132903260e-01,2.22968e-02,9.99999e-01,2.22968e-02,9.99999e-01
5.158567776e-01,2.40364e-02,9.99999e-01,2.40364e-02,9.99999e-01
5.184360615e-01,2.58733e-02,9.99999e-01,2.58733e-02,9.99999e-01
5.210282418e-01,2.78100e-02,9.99999e-01,2.78100e-02,9.99999e-01
5.236333830e-01,2.98492e-02,9.99999e-01,2.98492e-02,9.99999e-01
5.262515499e-01,3.19931e-02,9.99999e-01,3.19931e-02,9.99999e-01
5.288828077e-01,3.42440e-02,9.99999e-01,3.42440e-02,9.99999e-01
5.315272217e-01,3.66042e-02,9.99999e-01,3.66042e-02,9.99999e-01
5.341848578e-01,3.90755e-02,9.99999e-01,3.90755e-02,9.99999e-01
5.368557821e-01,4.16599e-02,9.99999e-01,4.16599e-02,9.99999e-01
5.395400610e-01,4.43590e-02,9.99999e-01,4.43590e-02,9.99999e-01
5.422377613e-01,4.71745e-02,9.99999e-01,4.71745e-02,9.99999e-01
5.449489501e-01,5.01077e-02,9.99999e-01,5.01077e-02,9.99999e-01
5.476736949e-01,5.31600e-02,9.99999e-01,5.31600e-02,9.99999e-01
5.504120634e-01,5.63323e-02,9.99999e-01,5.63323e-02,9.99999e-01
5.531641237e-01,5.96257e-02,9.99999e-01,5.96257e-02,9.99999e-01
5.559299443e-01,6.30408e-02,9.99999e-01,6.30408e-02,9.99999e-01
5.587095940e-01,6.65782e-02,9.99999e-01,6.65782e-02,9.99999e-01
5.615031420e-01,7.02383e-02,9.99999e-01,7.02383e-02,9.99999e-01
5.643106577e-01,7.40214e-02,9.99999e-01,7.40214e-02,9.99999e-01
5.671322110e-01,7.79274e-02,9.99999e-01,7.79274e-02,9.99999e-01
5.699678720e-01,8.19562e-02,9.99999e-01,8.19562e-02,9.99999e-01
5.728177114e-01,8.61076e-02,9.99999e-01,8.61076e-02,9.99999e-01
5.756818000e-01,9.03810e-02,9.99999e-01,9.03810e-02,9.99999e-01
5.785602090e-01,9.47757e-02,9.99999e-01,9.47757e-02,9.99999e-01
5.814530100e-01,9.92910e-02,9.99999e-01,9.92910e-02,9.99999e-01
5.843602750e-01,1.03926e-01,9.99999e-01,1.03926e-01,9.99999e-01
5.872820764e-01,1.08679e-01,9.99999e-01,1.08679e-01,9.99999e-01
5.902184868e-01,1.13549e-01,9.99999e-01,1.13549e-01,9.99999e-01
5.931695792e-01,1.18535e-01,9.99999e-01,1.18535e-01,9.99999e-01
5.961354271e-01,1.23635e-01,9.99999e-01,1.23635e-01,9.99999e-01
5.991161043e-01,1.28847e-01,9.99999e-01,1.28847e-01,9.99999e-01
6.021116848e-01,1.34169e-01,9.99999e-01,1.34169e-01,9.99999e-01
6.051222432e-01,1.39599e-01,9.99999e-01,1.39599e-01,9.99999e-01
6.081478544e-01,1.45135e-01,9.99999e-01,1.45135e-01,9.99999e-01
6.111885937e-01,1.50775e-01,9.99999e-01,1.50775e-01,9.99999e-01
6.142445367e-01,1.56516e-01,9.99999e-01,1.56516e-01,9.99999e-01
6.173157594e-01,1.62356e-01,9.99999e-01,1.62356e-01,9.99999e-01
6.204023382e-01,1.68292e-01,9.99999e-01,1.68292e-01,9.99999e-01
6.235043498e-01,1.74322e-01,9.99999e-01,1.74322e-01,9.99999e-01
6.266218716e-01,1.80442e-01,9.99999e-01,1.80442e-01,9.99999e-01
6.297549810e-01,1.86649e-01,9.99999e-01,1.86649e-01,9.99999e-01
6.329037559e-01,1.92941e-01,9.99999e-01,1.92941e-01,9.99999e-01
6.360682746e-01,1.99315e-01,9.99999e-01,1.99315e-01,9.99999e-01
6.392486160e-01,2.05767e-01,9.99999e-01,2.05767e-01,9.99999e-01
6.424448591e-01,2.12294e-01,9.99999e-01,2.12294e-01,9.99999e-01
6.456570834e-01,2.18893e-01,9.99999e-01,2.18893e-01,9.99999e-01
6.488853688e-01,2.25561e-01,9.99999e-01,2.25561e-01,9.99999e-01
6.521297956e-01,2.32295e-01,9.99999e-01,2.32295e-01,9.99999e-01
6.553904446e-01,2.39090e-01,9.99999e-01,2.39090e-01,9.99999e-01
6.586673968e-01,2.45944e-01,9.99999e-01,2.45944e-01,9.99999e-01
6.619607338e-01,2.52853e-01,9.99999e-01,2.52853e-01,9.99999e-01
6.652705375e-01,2.59815e-01,9.99999e-01,2.59815e-01,9.99999e-01
6.685968902e-01,2.66824e-01,9.99999e-01,2.66824e-01,9.99999e-01
6.719398746e-01,2.73879e-01,9.99999e-01,2.73879e-01,9.99999e-01
6.752995740e-01,2.80976e-01,9.99999e-01,2.80976e-01,9.99999e-01
6.786760719e-01,2.88110e-01,9.99999e-01,2.88110e-01,9.99999e-01
6.820694522e-01,2.95280e-01,9.99999e-01,2.95280e-01,9.99999e-01
6.854797995e-01,3.02481e-01,9.99999e-01,3.02481e-01,9.99999e-01
6.889071985e-01,3.09710e-01,9.99999e-01,3.09710e-01,9.99999e-01
6.923517345e-01,3.16964e-01,9.99999e-01,3.16964e-01,9.99999e-01
6.958134932e-01,3.24240e-01,9.99999e-01,3.24240e-01,9.99999e-01
6.992925606e-01,3.31534e-01,9.99999e-01,3.31534e-01,9.99999e-01
7.027890234e-01,3.38843e-01,9.99999e-01,3.38843e-01,9.99999e-01
7.063029686e-01,3.46165e-01,9.99999e-01,3.46165e-01,9.99999e-01
7.098344834e-01,3.53495e-01,9.99999e-01,3.53495e-01,9.99999e-01
7.133836558e-01,3.60831e-01,9.99999e-01,3.60831e-01,9.99999e-01
7.169505741e-01,3.68169e-01,9.99999e-01,3.68169e-01,9.99999e-01
7.205353270e-01,3.75508e-01,9.99999e-01,3.75508e-01,9.99999e-01
7.241380036e-01,3.82844e-01,9.99999e-01,3.82844e-01,9.99999e-01
7.277586936e-01,3.90174e-01,9.99999e-01,3.90174e-01,9.99999e-01
7.313974871e-01,3.97495e-01,9.99999e-01,3.97495e-01,9.99999e-01
7.350544745e-01,4.04805e-01,9.99999e-01,4.04805e-01,9.99999e-01
7.387297469e-01,4.12101e-01,9.99999e-01,4.12101e-01,9.99999e-01
7.424233956e-01,4.19381e-01,9.99999e-01,4.19381e-01,9.99999e-01
7.461355126e-01,4.26641e-01,9.99999e-01,4.26641e-01,9.99999e-01
7.498661902e-01,4.33880e-01,9.99999e-01,4.33880e-01,9.99999e-01
7.536155211e-01,4.41096e-01,9.99999e-01,4.41096e-01,9.99999e-01
7.573835987e-01,4.48285e-01,9.99999e-01,4.48285e-01,9.99999e-01
7.611705167e-01,4.55446e-01,9.99999e-01,4.55446e-01,9.99999e-01
7.649763693e-01,4.62576e-01,9.99999e-01,4.62576e-01,9.99999e-01
7.688012511e-01,4.69675e-01,9.99999e-01,4.69675e-01,9.99999e-01
7.726452574e-01,4.76738e-01,9.99999e-01,4.76738e-01,9.99999e-01
7.765084837e-01,4.82659e-01,9.97713e-01,4.83765e-01,9.99999e-01
7.803910261e-01,4.20907e-01,8.57673e-01,4.90754e-01,9.99999e-01
7.842929812e-01,4.44687e-01,8.93479e-01,4.97703e-01,9.99999e-01
7.882144461e-01,4.45617e-01,8.83093e-01,5.04610e-01,9.99999e-01
7.921555184e-01,4.70781e-01,9.20440e-01,5.11473e-01,9.99999e-01
7.961162960e-01,4.94062e-01,9.53250e-01,5.18292e-01,9.99999e-01
8.000968774e-01,5.12282e-01,9.75656e-01,5.25064e-01,9.99999e-01
8.040973618e-01,5.25824e-01,9.88783e-01,5.31788e-01,9.99999e-01
8.081178486e-01,5.36073e-01,9.95561e-01,5.38463e-01,9.99999e-01
8.121584379e-01,5.44444e-01,9.98818e-01,5.45088e-01,9.99999e-01
8.162192301e-01,5.51616e-01,9.99919e-01,5.51660e-01,9.99999e-01
8.203003262e-01,5.58180e-01,9.99999e-01,5.58180e-01,9.99999e-01
8.244018279e-01,5.64646e-01,9.99999e-01,5.64646e-01,9.99999e-01
8.285238370e-01,5.71057e-01,9.99999e-01,5.71057e-01,9.99999e-01
8.326664562e-01,5.77412e-01,9.99999e-01,5.77412e-01,9.99999e-01
8.368297885e-01,5.83709e-01,9.99999e-01,5.83709e-01,9.99999e-01
8.410139374e-01,5.89950e-01,9.99999e-01,5.89950e-01,9.99999e-01
8.452190071e-01,5.96131e-01,9.99999e-01,5.96131e-01,9.99999e-01
8.494451021e-01,6.02254e-01,9.99999e-01,6.02254e-01,9.99999e-01
8.536923276e-01,6.08316e-01,9.99999e-01,6.08316e-01,9.99999e-01
8.579607893e-01,6.14318e-01,9.99999e-01,6.14318e-01,9.99999e-01
8.622505932e-01,6.19671e-01,9.99051e-01,6.20259e-01,9.99999e-01
8.665618462e-01,4.24033e-01,6.77219e-01,6.26138e-01,9.99999e-01
8.708946554e-01,4.25514e-01,6.73328e-01,6.31955e-01,9.99999e-01
8.752491287e-01,5.00704e-01,7.85158e-01,6.37710e-01,9.99999e-01
8.796253743e-01,5.72064e-01,8.89122e-01,6.43402e-01,9.99999e-01
8.840235012e-01,6.16084e-01,9.49235e-01,6.49031e-01,9.99999e-01
8.884436187e-01,6.41251e-01,9.79611e-01,6.54597e-01,9.99999e-01
8.928858368e-01,6.56001e-01,9.93791e-01,6.60098e-01,9.99999e-01
8.973502660e-01,6.64737e-01,9.98798e-01,6.65536e-01,9.99999e-01
9.018370173e-01,6.70293e-01,9.99078e-01,6.70911e-01,9.99999e-01
9.063462024e-01,6.59954e-01,9.75944e-01,6.76221e-01,9.99999e-01
9.108779334e-01,6.74096e-01,9.89183e-01,6.81467e-01,9.99999e-01
9.154323231e-01,6.74310e-01,9.82031e-01,6.86648e-01,9.99999e-01
9.200094847e-01,6.10529e-01,8.82565e-01,6.91766e-01,9.99999e-01
9.246095321e-01,6.40786e-01,9.19586e-01,6.96820e-01,9.99999e-01
9.292325798e-01,6.38899e-01,9.10358e-01,7.01810e-01,9.99999e-01
9.338787427e-01,6.54630e-01,9.26272e-01,7.06735e-01,9.99999e-01
9.385481364e-01,6.82438e-01,9.59022e-01,7.11597e-01,9.99999e-01
9.432408771e-01,6.98448e-01,9.74947e-01,7.16396e-01,9.99999e-01
9.479570815e-01,7.11403e-01,9.86509e-01,7.21131e-01,9.99999e-01
9.526968669e-01,7.21570e-01,9.94167e-01,7.25803e-01,9.99999e-01
9.574603512e-01,7.28921e-01,9.97957e-01,7.30412e-01,9.99999e-01
9.622476530e-01,7.34474e-01,9.99339e-01,7.34958e-01,9.99999e-01
9.670588912e-01,7.39367e-01,9.99897e-01,7.39443e-01,9.99999e-01
9.718941857e-01,7.43864e-01,9.99999e-01,7.43865e-01,9.99999e-01
9.767536566e-01,7.48225e-01,9.99999e-01,7.48225e-01,9.99999e-01
9.816374249e-01,7.52524e-01,9.99999e-01,7.52524e-01,9.99999e-01
9.865456120e-01,7.56762e-01,9.99999e-01,7.56762e-01,9.99999e-01
9.914783401e-01,7.60940e-01,9.99999e-01,7.60940e-01,9.99999e-01
9.964357318e-01,7.65057e-01,9.99999e-01,7.65057e-01,9.99999e-01
1.001417910e+00,7.69115e-01,9.99999e-01,7.69115e-01,9.99999e-01
1.006425000e+00,7.73113e-01,9.99999e-01,7.73113e-01,9.99999e-01
1.011457125e+00,7.77053e-01,9.99999e-01,7.77053e-01,9.99999e-01
1.016514411e+00,7.80934e-01,9.99998e-01,7.80934e-01,9.99999e-01
1.021596983e+00,7.83982e-01,9.99011e-01,7.84758e-01,9.99999e-01
1.026704968e+00,7.82285e-01,9.92087e-01,7.88524e-01,9.99999e-01
1.031838492e+00,3.96566e-01,5.00566e-01,7.92233e-01,9.99999e-01
1.036997685e+00,4.71694e-02,5.92664e-02,7.95886e-01,9.99999e-01
1.042182673e+00,1.67268e-01,2.09220e-01,7.99483e-01,9.99999e-01
1.047393587e+00,1.52864e-02,1.90360e-02,8.03025e-01,9.99999e-01
1.052630555e+00,3.23047e-03,4.00548e-03,8.06512e-01,9.99999e-01
1.057893707e+00,1.09315e-02,1.34966e-02,8.09945e-01,9.99999e-01
1.063183176e+00,5.65694e-02,6.95532e-02,8.13324e-01,9.99999e-01
1.068499092e+00,1.48876e-01,1.82301e-01,8.16650e-01,9.99999e-01
1.073841587e+00,2.37954e-01,2.90214e-01,8.19924e-01,9.99999e-01
1.079210795e+00,4.27052e-01,5.18804e-01,8.23146e-01,9.99999e-01
1.084606849e+00,5.69438e-01,6.89128e-01,8.26317e-01,9.99999e-01
1.090029883e+00,6.91279e-01,8.33431e-01,8.29436e-01,9.99999e-01
1.095480033e+00,7.61219e-01,9.14369e-01,8.32506e-01,9.99999e-01
1.100957433e+00,8.04360e-01,9.62699e-01,8.35526e-01,9.99999e-01
1.106462220e+00,8.25503e-01,9.84503e-01,8.38496e-01,9.99999e-01
1.111994531e+00,8.37611e-01,9.95473e-01,8.41419e-01,9.99999e-01
1.117554504e+00,8.43665e-01,9.99255e-01,8.44294e-01,9.99999e-01
1.123142276e+00,8.47117e-01,9.99995e-01,8.47121e-01,9.99999e-01
1.128757988e+00,8.49902e-01,9.99999e-01,8.49902e-01,9.99999e-01
1.134401778e+00,8.52636e-01,9.99999e-01,8.52636e-01,9.99999e-01
1.140073787e+00,8.55325e-01,9.99999e-01,8.55325e-01,9.99999e-01
1.145774156e+00,8.57970e-01,9.99999e-01,8.57970e-01,9.99999e-01
1.151503026e+00,8.60570e-01,9.99999e-01,8.60570e-01,9.99999e-01
1.157260541e+00,8.63126e-01,9.99999e-01,8.63126e-01,9.99999e-01
1.163046844e+00,8.65639e-01,9.99999e-01,8.65639e-01,9.99999e-01
1.168862078e+00,8.68110e-01,9.99999e-01,8.68110e-01,9.99999e-01
1.174706389e+00,8.70538e-01,9.99999e-01,8.70538e-01,9.99999e-01
1.180579921e+00,8.72926e-01,9.99999e-01,8.72926e-01,9.99999e-01
1.186482820e+00,8.74127e-01,9.98691e-01,8.75272e-01,9.99999e-01
1.192415234e+00,8.44627e-01,9.62452e-01,8.77578e-01,9.99999e-01
1.198377311e+00,7.74227e-02,8.79958e-02,8.79845e-01,9.99999e-01
1.204369197e+00,2.20759e-52,2.50272e-52,8.82072e-01,9.99999e-01
1.210391043e+00,3.67183e-40,4.15242e-40,8.84261e-01,9.99999e-01
1.216442998e+00,3.19333e-35,3.60253e-35,8.86412e-01,9.99999e-01
1.222525213e+00,1.49515e-27,1.68273e-27,8.88526e-01,9.99999e-01
1.228637839e+00,2.97140e-21,3.33639e-21,8.90603e-01,9.99999e-01
1.234781029e+00,1.46459e-14,1.64073e-14,8.92643e-01,9.99999e-01
1.240954934e+00,3.75603e-09,4.19833e-09,8.94648e-01,9.99999e-01
1.247159708e+00,5.30099e-05,5.91220e-05,8.96617e-01,9.99999e-01
1.253395507e+00,1.46854e-03,1.63434e-03,8.98552e-01,9.99999e-01
1.259662485e+00,2.59170e-02,2.87822e-02,9.00452e-01,9.99999e-01
1.265960797e+00,1.64713e-01,1.82543e-01,9.02319e-01,9.99999e-01
1.272290601e+00,3.50597e-01,3.87763e-01,9.04153e-01,9.99999e-01
1.278652054e+00,5.94207e-02,6.55890e-02,9.05954e-01,9.99999e-01
1.285045314e+00,5.04412e-05,5.55688e-05,9.07723e-01,9.99999e-01
1.291470541e+00,9.91630e-05,1.09035e-04,9.09461e-01,9.99999e-01
1.297927893e+00,6.70312e-02,7.35662e-02,9.11167e-01,9.99999e-01
1.304417533e+00,9.00870e-02,9.86882e-02,9.12843e-01,9.99999e-01
1.310939621e+00,1.56251e-03,1.70861e-03,9.14489e-01,9.99999e-01
1.317494319e+00,7.73754e-14,8.44612e-14,9.16105e-01,9.99999e-01
1.324081790e+00,1.61580e-06,1.76072e-06,9.17692e-01,9.99999e-01
1.330702199e+00,2.15652e-06,2.34595e-06,9.19250e-01,9.99999e-01
1.337355710e+00,6.31456e-06,6.85783e-06,9.20780e-01,9.99999e-01
1.344042489e+00,5.33675e-07,5.78645e-07,9.22283e-01,9.99999e-01
1.350762701e+00,4.25810e-05,4.60953e-05,9.23758e-01,9.99999e-01
1.357516515e+00,1.99035e-03,2.15125e-03,9.25206e-01,9.99999e-01
1.364304097e+00,2.48314e-02,2.67975e-02,9.26628e-01,9.99999e-01
1.371125618e+00,8.56146e-02,9.22547e-02,9.28023e-01,9.99999e-01
1.377981246e+00,2.06145e-01,2.21805e-01,9.29394e-01,9.99999e-01
1.384871152e+00,2.49288e-01,2.67839e-01,9.30739e-01,9.99999e-01
1.391795508e+00,4.01776e-01,4.31062e-01,9.32059e-01,9.99999e-01
1.398754485e+00,4.79990e-01,5.14262e-01,9.33356e-01,9.99999e-01
1.405748258e+00,6.19064e-01,6.62363e-01,9.34628e-01,9.99999e-01
1.412776999e+00,7.06741e-01,7.55164e-01,9.35877e-01,9.99999e-01
1.419840884e+00,1.91168e-01,2.03999e-01,9.37103e-01,9.99999e-01
1.426940089e+00,1.13168e-87,1.20609e-87,9.38306e-01,9.99999e-01
1.434074789e+00,0.00000e+00,0.00000e+00,9.39487e-01,9.99999e-01
1.441245163e+00,0.00000e+00,0.00000e+00,9.40646e-01,9.99999e-01
1.448451389e+00,0.00000e+00,0.00000e+00,9.41783e-01,9.99999e-01
1.455693646e+00,4.20776e-205,4.46256e-205,9.42900e-01,9.99999e-01
1.462972114e+00,6.20598e-95,6.57415e-95,9.43996e-01,9.99999e-01
1.470286975e+00,7.30653e-63,7.73119e-63,9.45071e-01,9.99999e-01
1.477638409e+00,8.83772e-31,9.34095e-31,9.46126e-01,9.99999e-01
1.485026601e+00,8.02459e-24,8.47224e-24,9.47162e-01,9.99999e-01
1.492451734e+00,2.81702e-13,2.97098e-13,9.48178e-01,9.99999e-01
1.499913993e+00,1.01137e-08,1.06553e-08,9.49175e-01,9.99999e-01
1.507413563e+00,3.17688e-09,3.34355e-09,9.50153e-01,9.99999e-01
1.514950631e+00,1.58145e-18,1.66273e-18,9.51113e-01,9.99999e-01
1.522525384e+00,1.33622e-48,1.40351e-48,9.52055e-01,9.99999e-01
1.530138011e+00,1.41988e-53,1.48993e-53,9.52980e-01,9.99999e-01
1.537788701e+00,4.19117e-24,4.39377e-24,9.53887e-01,9.99999e-01
1.545477645e+00,2.84554e-09,2.98032e-09,9.54777e-01,9.99999e-01
1.553205033e+00,1.29012e-08,1.35000e-08,9.55650e-01,9.99999e-01
1.560971058e+00,2.06541e-23,2.15932e-23,9.56507e-01,9.99999e-01
1.568775913e+00,0.00000e+00,0.00000e+00,9.57347e-01,9.99999e-01
1.576619793e+00,0.00000e+00,0.00000e+00,9.58172e-01,9.99999e-01
1.584502892e+00,4.21524e-160,4.39554e-160,9.58981e-01,9.99999e-01
1.592425406e+00,4.14446e-160,4.31815e-160,9.59774e-01,9.99999e-01
1.600387533e+00,0.00000e+00,0.00000e+00,9.60553e-01,9.99999e-01
1.608389471e+00,0.00000e+00,0.00000e+00,9.61317e-01,9.99999e-01
1.616431418e+00,4.63929e-274,4.82221e-274,9.62066e-01,9.99999e-01
1.624513575e+00,3.46253e-166,3.59630e-166,9.62801e-01,9.99999e-01
1.632636143e+00,5.32389e-82,5.52544e-82,9.63523e-01,9.99999e-01
1.640799324e+00,3.32761e-62,3.45105e-62,9.64230e-01,9.99999e-01
1.649003321e+00,5.21013e-49,5.39951e-49,9.64924e-01,9.99999e-01
1.657248337e+00,2.59245e-48,2.68479e-48,9.65605e-01,9.99999e-01
1.665534579e+00,1.06779e-34,1.10506e-34,9.66273e-01,9.99999e-01
1.673862252e+00,6.93345e-28,7.17059e-28,9.66928e-01,9.99999e-01
1.682231563e+00,1.18805e-15,1.22787e-15,9.67570e-01,9.99999e-01
1.690642721e+00,2.78454e-10,2.87600e-10,9.68200e-01,9.99999e-01
1.699095934e+00,6.78490e-06,7.00326e-06,9.68819e-01,9.99999e-01
1.707591414e+00,1.11813e-03,1.15339e-03,9.69425e-01,9.99999e-01
1.716129371e+00,2.64649e-02,2.72829e-02,9.70020e-01,9.99999e-01
1.724710018e+00,1.09238e-01,1.12547e-01,9.70603e-01,9.99999e-01
1.733333568e+00,2.66433e-01,2.74341e-01,9.71175e-01,9.99999e-01
1.742000236e+00,9.77027e-02,1.00544e-01,9.71737e-01,9.99999e-01
1.750710237e+00,1.22869e-05,1.26371e-05,9.72287e-01,9.99999e-01
1.759463788e+00,3.41153e-31,3.50682e-31,9.72827e-01,9.99999e-01
1.768261107e+00,8.30321e-31,8.53048e-31,9.73356e-01,9.99999e-01
1.777102413e+00,1.43062e-30,1.46900e-30,9.73876e-01,9.99999e-01
1.785987925e+00,2.67566e-27,2.74600e-27,9.74385e-01,9.99999e-01
1.794917864e+00,6.89799e-28,7.07569e-28,9.74885e-01,9.99999e-01
1.803892454e+00,2.75909e-25,2.82875e-25,9.75374e-01,9.99999e-01
1.812911916e+00,4.87423e-30,4.99482e-30,9.75855e-01,9.99999e-01
1.821976476e+00,1.83632e-22,1.88084e-22,9.76326e-01,9.99999e-01
1.831086358e+00,3.26944e-20,3.34713e-20,9.76788e-01,9.99999e-01
1.840241790e+00,4.30518e-13,4.40544e-13,9.77241e-01,9.99999e-01
1.849442999e+00,5.88213e-12,6.01637e-12,9.77686e-01,9.99999e-01
1.858690214e+00,1.15338e-11,1.17918e-11,9.78122e-01,9.99999e-01
1.867983665e+00,1.31789e-18,1.34678e-18,9.78549e-01,9.99999e-01
1.877323583e+00,3.54001e-57,3.61606e-57,9.78968e-01,9.99999e-01
