#,Wave/freq,Total,CO2,Rayleigh,CIA
4.000000000e-01,4.29202e-17,9.99999e-01,4.29202e-17,9.99999e-01
4.020000000e-01,9.03278e-17,9.99999e-01,9.03278e-17,9.99999e-01
4.040100000e-01,1.87385e-16,9.99999e-01,1.87385e-16,9.99999e-01
4.060300500e-01,3.83165e-16,9.99999e-01,3.83165e-16,9.99999e-01
4.080602003e-01,7.72507e-16,9.99999e-01,7.72507e-16,9.99999e-01
4.101005013e-01,1.53604e-15,9.99999e-01,1.53604e-15,9.99999e-01
4.121510038e-01,3.01307e-15,9.99999e-01,3.01307e-15,9.99999e-01
4.142117588e-01,5.83223e-15,9.99999e-01,5.83223e-15,9.99999e-01
4.162828176e-01,1.11428e-14,9.99999e-01,1.11428e-14,9.99999e-01
4.183642317e-01,2.10185e-14,9.99999e-01,2.10185e-14,9.99999e-01
4.204560528e-01,3.91529e-14,9.99999e-01,3.91529e-14,9.99999e-01
4.225583331e-01,7.20427e-14,9.99999e-01,7.20427e-14,9.99999e-01
4.246711247e-01,1.30974e-13,9.99999e-01,1.30974e-13,9.99999e-01
4.267944804e-01,2.35317e-13,9.99999e-01,2.35317e-13,9.99999e-01
4.289284528e-01,4.17920e-13,9.99999e-01,4.17920e-13,9.99999e-01
4.310730950e-01,7.33851e-13,9.99999e-01,7.33851e-13,9.99999e-01
4.332284605e-01,1.27436e-12,9.99999e-01,1.27436e-12,9.99999e-01
4.353946028e-01,2.18898e-12,9.99999e-01,2.18898e-12,9.99999e-01
4.375715758e-01,3.72007e-12,9.99999e-01,3.72007e-12,9.99999e-01
4.397594337e-01,6.25621e-12,9.99999e-01,6.25621e-12,9.99999e-01
4.419582309e-01,1.04139e-11,9.99999e-01,1.04139e-11,9.99999e-01
4.441680220e-01,1.71609e-11,9.99999e-01,1.71609e-11,9.99999e-01
4.463888621e-01,2.80018e-11,9.99999e-01,2.80018e-11,9.99999e-01
4.486208064e-01,4.52512e-11,9.99999e-01,4.52512e-11,9.99999e-01
4.508639105e-01,7.24364e-11,9.99999e-01,7.24364e-11,9.99999e-01
4.531182300e-01,1.14881e-10,9.99999e-01,1.14881e-10,9.99999e-01
4.553838212e-01,1.80544e-10,9.99999e-01,1.80544e-10,9.99999e-01
4.576607403e-01,2.81215e-10,9.99999e-01,2.81215e-10,9.99999e-01
4.599490440e-01,4.34204e-10,9.99999e-01,4.34204e-10,9.99999e-01
4.622487892e-01,6.64696e-10,9.99999e-01,6.64696e-10,9.99999e-01
4.645600332e-01,1.00902e-09,9.99999e-01,1.00902e-09,9.99999e-01
4.668828333e-01,1.51913e-09,9.99999e-01,1.51913e-09,9.99999e-01
4.692172475e-01,2.26871e-09,9.99999e-01,2.26871e-09,9.99999e-01
4.715633337e-01,3.36143e-09,9.99999e-01,3.36143e-09,9.99999e-01
4.739211504e-01,4.94193e-09,9.99999e-01,4.94193e-09,9.99999e-01
4.762907561e-01,7.21045e-09,9.99999e-01,7.21045e-09,9.99999e-01
4.786722099e-01,1.04421e-08,9.99999e-01,1.04421e-08,9.99999e-01
4.810655710e-01,1.50119e-08,9.99999e-01,1.50119e-08,9.99999e-01
4.834708988e-01,2.14275e-08,9.99999e-01,2.14275e-08,9.99999e-01
4.858882533e-01,3.03706e-08,9.99999e-01,3.03706e-08,9.99999e-01
4.883176946e-01,4.27508e-08,9.99999e-01,4.27508e-08,9.99999e-01
4.907592831e-01,5.97724e-08,9.99999e-01,5.97724e-08,9.99999e-01
4.932130795e-01,8.30200e-08,9.99999e-01,8.30200e-08,9.99999e-01
4.956791449e-01,1.14564e-07,9.99999e-01,1.14564e-07,9.99999e-01
4.981575406e-01,1.57090e-07,9.99999e-01,1.57090e-07,9.99999e-01
5.006483283e-01,2.14063e-07,9.99999e-01,2.14063e-07,9.99999e-01
5.031515699e-01,2.89921e-07,9.99999e-01,2.89921e-07,9.99999e-01
5.056673278e-01,3.90315e-07,9.99999e-01,3.90315e-07,9.99999e-01
5.081956644e-01,5.22397e-07,9.99999e-01,5.22397e-07,9.99999e-01
5.107366428e-01,6.95161e-07,9.99999e-01,6.95161e-07,9.99999e-01
5.132903260e-01,9.19856e-07,9.99999e-01,9.19856e-07,9.99999e-01
5.158567776e-01,1.21046e-06,9.99999e-01,1.21046e-06,9.99999e-01
5.184360615e-01,1.58426e-06,9.99999e-01,1.58426e-06,9.99999e-01
5.210282418e-01,2.06251e-06,9.99999e-01,2.06251e-06,9.99999e-01
5.236333830e-01,2.67116e-06,9.99999e-01,2.67116e-06,9.99999e-01
5.262515499e-01,3.44181e-06,9.99999e-01,3.44181e-06,9.99999e-01
5.288828077e-01,4.41264e-06,9.99999e-01,4.41264e-06,9.99999e-01
5.315272217e-01,5.62962e-06,9.99999e-01,5.62962e-06,9.99999e-01
5.341848578e-01,7.14776e-06,9.99999e-01,7.14776e-06,9.99999e-01
5.368557821e-01,9.03260e-06,9.99999e-01,9.03260e-06,9.99999e-01
5.395400610e-01,1.13618e-05,9.99999e-01,1.13618e-05,9.99999e-01
5.422377613e-01,1.42271e-05,9.99999e-01,1.42271e-05,9.99999e-01
5.449489501e-01,1.77359e-05,9.99999e-01,1.77359e-05,9.99999e-01
5.476736949e-01,2.20141e-05,9.99999e-01,2.20141e-05,9.99999e-01
5.504120634e-01,2.72078e-05,9.99999e-01,2.72078e-05,9.99999e-01
5.531641237e-01,3.34865e-05,9.99999e-01,3.34865e-05,9.99999e-01
5.559299443e-01,4.10454e-05,9.99999e-01,4.10454e-05,9.99999e-01
5.587095940e-01,5.01087e-05,9.99999e-01,5.01087e-05,9.99999e-01
5.615031420e-01,6.09327e-05,9.99999e-01,6.09327e-05,9.99999e-01
5.643106577e-01,7.38092e-05,9.99999e-01,7.38092e-05,9.99999e-01
5.671322110e-01,8.90687e-05,9.99999e-01,8.90687e-05,9.99999e-01
5.699678720e-01,1.07085e-04,9.99999e-01,1.07085e-04,9.99999e-01
5.728177114e-01,1.28278e-04,9.99999e-01,1.28278e-04,9.99999e-01
5.756818000e-01,1.53117e-04,9.99999e-01,1.53117e-04,9.99999e-01
5.785602090e-01,1.82129e-04,9.99999e-01,1.82129e-04,9.99999e-01
5.814530100e-01,2.15897e-04,9.99999e-01,2.15897e-04,9.99999e-01
5.843602750e-01,2.55067e-04,9.99999e-01,2.55067e-04,9.99999e-01
5.872820764e-01,3.00353e-04,9.99999e-01,3.00353e-04,9.99999e-01
5.902184868e-01,3.52539e-04,9.99999e-01,3.52539e-04,9.99999e-01
5.931695792e-01,4.12485e-04,9.99999e-01,4.12485e-04,9.99999e-01
5.961354271e-01,4.81130e-04,9.99999e-01,4.81130e-04,9.99999e-01
5.991161043e-01,5.59495e-04,9.99999e-01,5.59495e-04,9.99999e-01
6.021116848e-01,6.48687e-04,9.99999e-01,6.48687e-04,9.99999e-01
6.051222432e-01,7.49903e-04,9.99999e-01,7.49903e-04,9.99999e-01
6.081478544e-01,8.64434e-04,9.99999e-01,8.64434e-04,9.99999e-01
6.111885937e-01,9.93662e-04,9.99999e-01,9.93662e-04,9.99999e-01
6.142445367e-01,1.13907e-03,9.99999e-01,1.13907e-03,9.99999e-01
6.173157594e-01,1.30224e-03,9.99999e-01,1.30224e-03,9.99999e-01
6.204023382e-01,1.48485e-03,9.99999e-01,1.48485e-03,9.99999e-01
6.235043498e-01,1.68869e-03,9.99999e-01,1.68869e-03,9.99999e-01
6.266218716e-01,1.91563e-03,9.99999e-01,1.91563e-03,9.99999e-01
6.297549810e-01,2.16767e-03,9.99999e-01,2.16767e-03,9.99999e-01
6.329037559e-01,2.44689e-03,9.99999e-01,2.44689e-03,9.99999e-01
6.360682746e-01,2.75547e-03,9.99999e-01,2.75547e-03,9.99999e-01
6.392486160e-01,3.09569e-03,9.99999e-01,3.09569e-03,9.99999e-01
6.424448591e-01,3.46994e-03,9.99999e-01,3.46994e-03,9.99999e-01
6.456570834e-01,3.88067e-03,9.99999e-01,3.88067e-03,9.99999e-01
6.488853688e-01,4.33043e-03,9.99999e-01,4.33043e-03,9.99999e-01
6.521297956e-01,4.82187e-03,9.99999e-01,4.82187e-03,9.99999e-01
6.553904446e-01,5.35769e-03,9.99999e-01,5.35769e-03,9.99999e-01
6.586673968e-01,5.94068e-03,9.99999e-01,5.94068e-03,9.99999e-01
6.619607338e-01,6.57368e-03,9.99999e-01,6.57368e-03,9.99999e-01
6.652705375e-01,7.25959e-03,9.99999e-01,7.25959e-03,9.99999e-01
6.685968902e-01,8.00137e-03,9.99999e-01,8.00137e-03,9.99999e-01
6.719398746e-01,8.80202e-03,9.99999e-01,8.80202e-03,9.99999e-01
6.752995740e-01,9.66455e-03,9.99999e-01,9.66455e-03,9.99999e-01
6.786760719e-01,1.05920e-02,9.99999e-01,1.05920e-02,9.99999e-01
6.820694522e-01,1.15875e-02,9.99999e-01,1.15875e-02,9.99999e-01
6.854797995e-01,1.26541e-02,9.99999e-01,1.26541e-02,9.99999e-01
6.889071985e-01,1.37949e-02,9.99999e-01,1.37949e-02,9.99999e-01
6.923517345e-01,1.50128e-02,9.99999e-01,1.50128e-02,9.99999e-01
6.958134932e-01,1.63111e-02,9.99999e-01,1.63111e-02,9.99999e-01
6.992925606e-01,1.76925e-02,9.99999e-01,1.76925e-02,9.99999e-01
7.027890234e-01,1.91602e-02,9.99999e-01,1.91602e-02,9.99999e-01
7.063029686e-01,2.07170e-02,9.99999e-01,2.07170e-02,9.99999e-01
7.098344834e-01,2.23658e-02,9.99999e-01,2.23658e-02,9.99999e-01
7.133836558e-01,2.41093e-02,9.99999e-01,2.41093e-02,9.99999e-01
7.169505741e-01,2.59501e-02,9.99999e-01,2.59501e-02,9.99999e-01
7.205353270e-01,2.78910e-02,9.99999e-01,2.78910e-02,9.99999e-01
7.241380036e-01,2.99344e-02,9.99999e-01,2.99344e-02,9.99999e-01
7.277586936e-01,3.20826e-02,9.99999e-01,3.20826e-02,9.99999e-01
7.313974871e-01,3.43380e-02,9.99999e-01,3.43380e-02,9.99999e-01
7.350544745e-01,3.67026e-02,9.99999e-01,3.67026e-02,9.99999e-01
7.387297469e-01,3.91785e-02,9.99999e-01,3.91785e-02,9.99999e-01
7.424233956e-01,4.17675e-02,9.99999e-01,4.17675e-02,9.99999e-01
7.461355126e-01,4.44713e-02,9.99999e-01,4.44713e-02,9.99999e-01
7.498661902e-01,4.72916e-02,9.99999e-01,4.72916e-02,9.99999e-01
7.536155211e-01,5.02296e-02,9.99999e-01,5.02296e-02,9.99999e-01
7.573835987e-01,5.32868e-02,9.99999e-01,5.32868e-02,9.99999e-01
7.611705167e-01,5.64640e-02,9.99999e-01,5.64640e-02,9.99999e-01
7.649763693e-01,5.97623e-02,9.99999e-01,5.97623e-02,9.99999e-01
7.688012511e-01,6.31824e-02,9.99999e-01,6.31824e-02,9.99999e-01
7.726452574e-01,6.67248e-02,9.99999e-01,6.67248e-02,9.99999e-01
7.765084837e-01,6.98503e-02,9.92332e-01,7.03899e-02,9.99999e-01
7.803910261e-01,4.61223e-02,6.21778e-01,7.41780e-02,9.99999e-01
7.842929812e-01,5.25378e-02,6.72793e-01,7.80890e-02,9.99999e-01
7.882144461e-01,5.33774e-02,6.49970e-01,8.21228e-02,9.99999e-01
7.921555184e-01,6.41625e-02,7.43661e-01,8.62791e-02,9.99999e-01
7.961162960e-01,7.61166e-02,8.40532e-01,9.05575e-02,9.99999e-01
8.000968774e-01,8.68000e-02,9.14095e-01,9.49571e-02,9.99999e-01
8.040973618e-01,9.54662e-02,9.59677e-01,9.94773e-02,9.99999e-01
8.081178486e-01,1.02440e-01,9.83896e-01,1.04117e-01,9.99999e-01
8.121584379e-01,1.08406e-01,9.95694e-01,1.08875e-01,9.99999e-01
8.162192301e-01,1.13717e-01,9.99708e-01,1.13750e-01,9.99999e-01
8.203003262e-01,1.18740e-01,9.99999e-01,1.18740e-01,9.99999e-01
8.244018279e-01,1.23845e-01,9.99999e-01,1.23845e-01,9.99999e-01
8.285238370e-01,1.29061e-01,9.99999e-01,1.29061e-01,9.99999e-01
8.326664562e-01,1.34388e-01,9.99999e-01,1.34388e-01,9.99999e-01
8.368297885e-01,1.39822e-01,9.99999e-01,1.39822e-01,9.99999e-01
8.410139374e-01,1.45363e-01,9.99999e-01,1.45363e-01,9.99999e-01
8.452190071e-01,1.51007e-01,9.99999e-01,1.51007e-01,9.99999e-01
8.494451021e-01,1.56752e-01,9.99999e-01,1.56752e-01,9.99999e-01
8.536923276e-01,1.62596e-01,9.99999e-01,1.62596e-01,9.99999e-01
8.579607893e-01,1.68536e-01,9.99999e-01,1.68536e-01,9.99999e-01
8.622505932e-01,1.73979e-01,9.96620e-01,1.74569e-01,9.99999e-01
8.665618462e-01,6.58296e-02,3.64318e-01,1.80693e-01,9.99999e-01
8.708946554e-01,5.13719e-02,2.74858e-01,1.86904e-01,9.99999e-01
8.752491287e-01,8.19711e-02,4.24283e-01,1.93199e-01,9.99999e-01
8.796253743e-01,1.30358e-01,6.53172e-01,1.99576e-01,9.99999e-01
8.840235012e-01,1.70486e-01,8.27478e-01,2.06031e-01,9.99999e-01
8.884436187e-01,1.97177e-01,9.27621e-01,2.12561e-01,9.99999e-01
8.928858368e-01,2.14242e-01,9.77541e-01,2.19163e-01,9.99999e-01
8.973502660e-01,2.24846e-01,9.95622e-01,2.25834e-01,9.99999e-01
9.018370173e-01,2.31810e-01,9.96732e-01,2.32570e-01,9.99999e-01
9.063462024e-01,2.19212e-01,9.15796e-01,2.39368e-01,9.99999e-01
9.108779334e-01,2.36668e-01,9.61189e-01,2.46224e-01,9.99999e-01
9.154323231e-01,2.40107e-01,9.48529e-01,2.53136e-01,9.99999e-01
9.200094847e-01,1.67267e-01,6.43089e-01,2.60099e-01,9.99999e-01
9.246095321e-01,1.97042e-01,7.37677e-01,2.67111e-01,9.99999e-01
9.292325798e-01,1.97416e-01,7.20055e-01,2.74167e-01,9.99999e-01
9.338787427e-01,2.13492e-01,7.59040e-01,2.81265e-01,9.99999e-01
9.385481364e-01,2.47692e-01,8.58844e-01,2.88401e-01,9.99999e-01
9.432408771e-01,2.69498e-01,9.11782e-01,2.95572e-01,9.99999e-01
9.479570815e-01,2.88138e-01,9.51658e-01,3.02775e-01,9.99999e-01
9.526968669e-01,3.03453e-01,9.78864e-01,3.10005e-01,9.99999e-01
9.574603512e-01,3.14900e-01,9.92561e-01,3.17260e-01,9.99999e-01
9.622476530e-01,3.23755e-01,9.97591e-01,3.24537e-01,9.99999e-01
9.670588912e-01,3.31708e-01,9.99626e-01,3.31831e-01,9.99999e-01
9.718941857e-01,3.39141e-01,9.99998e-01,3.39141e-01,9.99999e-01
9.767536566e-01,3.46463e-01,9.99999e-01,3.46463e-01,9.99999e-01
9.816374249e-01,3.53793e-01,9.99999e-01,3.53793e-01,9.99999e-01
9.865456120e-01,3.61129e-01,9.99999e-01,3.61129e-01,9.99999e-01
9.914783401e-01,3.68468e-01,9.99999e-01,3.68468e-01,9.99999e-01
9.964357318e-01,3.75807e-01,9.99999e-01,3.75807e-01,9.99999e-01
1.001417910e+00,3.83142e-01,9.99999e-01,3.83142e-01,9.99999e-01
1.006425000e+00,3.90472e-01,9.99999e-01,3.90472e-01,9.99999e-01
1.011457125e+00,3.97793e-01,9.99999e-01,3.97793e-01,9.99999e-01
1.016514411e+00,4.05101e-01,9.99996e-01,4.05102e-01,9.99999e-01
1.021596983e+00,4.10913e-01,9.96399e-01,4.12398e-01,9.99999e-01
1.026704968e+00,4.07892e-01,9.71919e-01,4.19677e-01,9.99999e-01
1.031838492e+00,1.34009e-01,3.13885e-01,4.26936e-01,9.99999e-01
1.036997685e+00,6.78405e-05,1.56251e-04,4.34175e-01,9.99999e-01
1.042182673e+00,3.23231e-03,7.32304e-03,4.41389e-01,9.99999e-01
1.047393587e+00,1.69434e-04,3.77714e-04,4.48577e-01,9.99999e-01
1.052630555e+00,9.74739e-08,2.13882e-07,4.55737e-01,9.99999e-01
1.057893707e+00,1.13569e-06,2.45359e-06,4.62866e-01,9.99999e-01
1.063183176e+00,6.33577e-05,1.34814e-04,4.69963e-01,9.99999e-01
1.068499092e+00,1.97358e-03,4.13728e-03,4.77025e-01,9.99999e-01
1.073841587e+00,7.84000e-03,1.61966e-02,4.84050e-01,9.99999e-01
1.079210795e+00,5.07082e-02,1.03267e-01,4.91038e-01,9.99999e-01
1.084606849e+00,1.32429e-01,2.65930e-01,4.97985e-01,9.99999e-01
1.090029883e+00,2.62104e-01,5.19130e-01,5.04890e-01,9.99999e-01
1.095480033e+00,3.69806e-01,7.22626e-01,5.11752e-01,9.99999e-01
1.100957433e+00,4.51618e-01,8.70892e-01,5.18568e-01,9.99999e-01
1.106462220e+00,4.96258e-01,9.44643e-01,5.25339e-01,9.99999e-01
1.111994531e+00,5.23328e-01,9.83585e-01,5.32061e-01,9.99999e-01
1.117554504e+00,5.37272e-01,9.97285e-01,5.38734e-01,9.99999e-01
1.123142276e+00,5.45348e-01,9.99984e-01,5.45356e-01,9.99999e-01
1.128757988e+00,5.51927e-01,9.99999e-01,5.51927e-01,9.99999e-01
1.134401778e+00,5.58444e-01,9.99999e-01,5.58444e-01,9.99999e-01
1.140073787e+00,5.64908e-01,9.99999e-01,5.64908e-01,9.99999e-01
1.145774156e+00,5.71317e-01,9.99999e-01,5.71317e-01,9.99999e-01
1.151503026e+00,5.77669e-01,9.99999e-01,5.77669e-01,9.99999e-01
1.157260541e+00,5.83965e-01,9.99999e-01,5.83965e-01,9.99999e-01
1.163046844e+00,5.90202e-01,9.99999e-01,5.90202e-01,9.99999e-01
1.168862078e+00,5.96382e-01,9.99999e-01,5.96382e-01,9.99999e-01
1.174706389e+00,6.02502e-01,9.99999e-01,6.02502e-01,9.99999e-01
1.180579921e+00,6.08562e-01,9.99999e-01,6.08562e-01,9.99999e-01
1.186482820e+00,6.11654e-01,9.95268e-01,6.14561e-01,9.99999e-01
1.192415234e+00,5.49578e-01,8.85701e-01,6.20499e-01,9.99999e-01
1.198377311e+00,4.26726e-02,6.81260e-02,6.26376e-01,9.99999e-01
1.204369197e+00,1.89838e-185,3.00285e-185,6.32191e-01,9.99999e-01
1.210391043e+00,7.01008e-141,1.09886e-140,6.37943e-01,9.99999e-01
1.216442998e+00,9.35765e-123,1.45388e-122,6.43633e-01,9.99999e-01
1.222525213e+00,9.45092e-95,1.45565e-94,6.49259e-01,9.99999e-01
1.228637839e+00,1.07853e-71,1.64706e-71,6.54822e-01,9.99999e-01
1.234781029e+00,3.03633e-47,4.59826e-47,6.60321e-01,9.99999e-01
1.240954934e+00,1.57975e-28,2.37287e-28,6.65756e-01,9.99999e-01
1.247159708e+00,2.06679e-13,3.07957e-13,6.71128e-01,9.99999e-01
1.253395507e+00,7.34086e-10,1.08523e-09,6.76435e-01,9.99999e-01
1.259662485e+00,1.29947e-05,1.90627e-05,6.81679e-01,9.99999e-01
1.265960797e+00,2.98552e-03,4.34663e-03,6.86858e-01,9.99999e-01
1.272290601e+00,2.47350e-02,3.57456e-02,6.91973e-01,9.99999e-01
1.278652054e+00,1.37349e-03,1.97050e-03,6.97024e-01,9.99999e-01
1.285045314e+00,1.62341e-12,2.31251e-12,7.02011e-01,9.99999e-01
1.291470541e+00,3.12265e-13,4.41716e-13,7.06935e-01,9.99999e-01
1.297927893e+00,1.71490e-04,2.40926e-04,7.11794e-01,9.99999e-01
1.304417533e+00,4.88770e-04,6.82078e-04,7.16590e-01,9.99999e-01
1.310939621e+00,6.13420e-07,8.50409e-07,7.21322e-01,9.99999e-01
1.317494319e+00,5.17237e-45,7.12454e-45,7.25992e-01,9.99999e-01
1.324081790e+00,1.97374e-19,2.70154e-19,7.30598e-01,9.99999e-01
1.330702199e+00,2.39373e-19,3.25614e-19,7.35142e-01,9.99999e-01
1.337355710e+00,2.25074e-17,3.04309e-17,7.39624e-01,9.99999e-01
1.344042489e+00,6.39503e-22,8.59496e-22,7.44043e-01,9.99999e-01
1.350762701e+00,4.73334e-14,6.32460e-14,7.48401e-01,9.99999e-01
1.357516515e+00,9.51529e-10,1.26416e-09,7.52698e-01,9.99999e-01
1.364304097e+00,1.64460e-05,2.17271e-05,7.56933e-01,9.99999e-01
1.371125618e+00,1.53754e-04,2.02013e-04,7.61108e-01,9.99999e-01
1.377981246e+00,5.12527e-03,6.69773e-03,7.65223e-01,9.99999e-01
1.384871152e+00,6.52367e-03,8.48023e-03,7.69279e-01,9.99999e-01
1.391795508e+00,3.88618e-02,5.02561e-02,7.73275e-01,9.99999e-01
1.398754485e+00,7.17928e-02,9.23721e-02,7.77212e-01,9.99999e-01
1.405748258e+00,1.75460e-01,2.24635e-01,7.81091e-01,9.99999e-01
1.412776999e+00,2.83255e-01,3.60875e-01,7.84912e-01,9.99999e-01
1.419840884e+00,2.97347e-02,3.77020e-02,7.88676e-01,9.99999e-01
1.426940089e+00,2.17258e-314,2.74183e-314,7.92383e-01,9.99999e-01
1.434074789e+00,0.00000e+00,0.00000e+00,7.96033e-01,9.99999e-01
1.441245163e+00,0.00000e+00,0.00000e+00,7.99628e-01,9.99999e-01
1.448451389e+00,0.00000e+00,0.00000e+00,8.03168e-01,9.99999e-01
1.455693646e+00,0.00000e+00,0.00000e+00,8.06653e-01,9.99999e-01
1.462972114e+00,0.00000e+00,0.00000e+00,8.10084e-01,9.99999e-01
1.470286975e+00,5.38155e-224,6.61561e-224,8.13461e-01,9.99999e-01
1.477638409e+00,1.66609e-106,2.03982e-106,8.16785e-01,9.99999e-01
1.485026601e+00,7.44337e-83,9.07664e-83,8.20056e-01,9.99999e-01
1.492451734e+00,1.51533e-42,1.84061e-42,8.23276e-01,9.99999e-01
1.499913993e+00,6.42101e-29,7.76943e-29,8.26444e-01,9.99999e-01
1.507413563e+00,2.16606e-29,2.61109e-29,8.29562e-01,9.99999e-01
1.514950631e+00,9.51282e-62,1.14250e-61,8.32630e-01,9.99999e-01
1.522525384e+00,1.26184e-171,1.51001e-171,8.35647e-01,9.99999e-01
1.530138011e+00,8.33722e-190,9.94163e-190,8.38616e-01,9.99999e-01
1.537788701e+00,4.11258e-82,4.88699e-82,8.41537e-01,9.99999e-01
1.545477645e+00,1.30892e-29,1.55010e-29,8.44410e-01,9.99999e-01
1.553205033e+00,3.08117e-28,3.63673e-28,8.47235e-01,9.99999e-01
1.560971058e+00,1.41545e-79,1.66521e-79,8.50014e-01,9.99999e-01
1.568775913e+00,0.00000e+00,0.00000e+00,8.52747e-01,9.99999e-01
1.576619793e+00,0.00000e+00,0.00000e+00,8.55434e-01,9.99999e-01
1.584502892e+00,0.00000e+00,0.00000e+00,8.58076e-01,9.99999e-01
1.592425406e+00,0.00000e+00,0.00000e+00,8.60674e-01,9.99999e-01
1.600387533e+00,0.00000e+00,0.00000e+00,8.63229e-01,9.99999e-01
1.608389471e+00,0.00000e+00,0.00000e+00,8.65740e-01,9.99999e-01
1.616431418e+00,0.00000e+00,0.00000e+00,8.68209e-01,9.99999e-01
1.624513575e+00,0.00000e+00,0.00000e+00,8.70636e-01,9.99999e-01
1.632636143e+00,1.12995e-293,1.29429e-293,8.73022e-01,9.99999e-01
1.640799324e+00,8.90608e-222,1.01741e-221,8.75367e-01,9.99999e-01
1.649003321e+00,4.04562e-173,4.60949e-173,8.77671e-01,9.99999e-01
1.657248337e+00,4.39004e-171,4.98904e-171,8.79936e-01,9.99999e-01
1.665534579e+00,8.03140e-121,9.10421e-121,8.82162e-01,9.99999e-01
1.673862252e+00,5.30685e-96,6.00084e-96,8.84350e-01,9.99999e-01
1.682231563e+00,3.10384e-51,3.50123e-51,8.86499e-01,9.99999e-01
1.690642721e+00,8.74808e-33,9.84465e-33,8.88611e-01,9.99999e-01
1.699095934e+00,3.68177e-16,4.13363e-16,8.90686e-01,9.99999e-01
1.707591414e+00,5.58228e-10,6.25307e-10,8.92725e-01,9.99999e-01
1.716129371e+00,7.06385e-06,7.89496e-06,8.94729e-01,9.99999e-01
1.724710018e+00,4.94596e-04,5.51575e-04,8.96697e-01,9.99999e-01
1.733333568e+00,1.21309e-02,1.34993e-02,8.98630e-01,9.99999e-01
1.742000236e+00,5.96710e-03,6.62621e-03,9.00529e-01,9.99999e-01
1.750710237e+00,1.25502e-14,1.39077e-14,9.02395e-01,9.99999e-01
1.759463788e+00,2.27445e-108,2.51535e-108,9.04227e-01,9.99999e-01
1.768261107e+00,1.27667e-106,1.40908e-106,9.06027e-01,9.99999e-01
1.777102413e+00,1.33005e-106,1.46515e-106,9.07795e-01,9.99999e-01
1.785987925e+00,5.13057e-95,5.64090e-95,9.09531e-01,9.99999e-01
1.794917864e+00,6.52468e-97,7.16025e-97,9.11236e-01,9.99999e-01
1.803892454e+00,1.15134e-87,1.26117e-87,9.12911e-01,9.99999e-01
1.812911916e+00,4.88201e-105,5.33812e-105,9.14555e-01,9.99999e-01
1.821976476e+00,4.06489e-76,4.43682e-76,9.16170e-01,9.99999e-01
1.831086358e+00,5.47649e-70,5.96725e-70,9.17756e-01,9.99999e-01
1.840241790e+00,7.18941e-42,7.82041e-42,9.19313e-01,9.99999e-01
1.849442999e+00,1.30242e-40,1.41438e-40,9.20842e-01,9.99999e-01
1.858690214e+00,5.23812e-39,5.67914e-39,9.22343e-01,9.99999e-01
1.867983665e+00,5.09801e-62,5.51841e-62,9.23817e-01,9.99999e-01
1.877323583e+00,5.69703e-203,6.15719e-203,9.25264e-01,9.99999e-01
