#,Wave/freq,Total,N2,CO2,H2O,Rayleigh,CIA
4.000000000e-01,2.95138e-10,9.99999e-01,9.99999e-01,9.99957e-01,2.95151e-10,9.99999e-01
4.020000000e-01,4.55482e-10,9.99999e-01,9.99999e-01,9.99973e-01,4.55494e-10,9.99999e-01
4.040100000e-01,6.96620e-10,9.99999e-01,9.99999e-01,9.99988e-01,6.96628e-10,9.99999e-01
4.060300500e-01,1.05651e-09,9.99999e-01,9.99999e-01,9.99996e-01,1.05651e-09,9.99999e-01
4.080602003e-01,1.58919e-09,9.99999e-01,9.99999e-01,9.99998e-01,1.58919e-09,9.99999e-01
4.101005013e-01,2.37123e-09,9.99999e-01,9.99999e-01,9.99999e-01,2.37123e-09,9.99999e-01
4.121510038e-01,3.51025e-09,9.99999e-01,9.99999e-01,9.99997e-01,3.51026e-09,9.99999e-01
4.142117588e-01,5.15626e-09,9.99999e-01,9.99999e-01,9.99988e-01,5.15632e-09,9.99999e-01
4.162828176e-01,7.51655e-09,9.99999e-01,9.99999e-01,9.99947e-01,7.51695e-09,9.99999e-01
4.183642317e-01,1.08767e-08,9.99999e-01,9.99999e-01,9.99968e-01,1.08770e-08,9.99999e-01
4.204560528e-01,1.56243e-08,9.99999e-01,9.99999e-01,9.99980e-01,1.56246e-08,9.99999e-01
4.225583331e-01,2.22842e-08,9.99999e-01,9.99999e-01,9.99992e-01,2.22844e-08,9.99999e-01
4.246711247e-01,3.15605e-08,9.99999e-01,9.99999e-01,9.99993e-01,3.15607e-08,9.99999e-01
4.267944804e-01,4.43918e-08,9.99999e-01,9.99999e-01,9.99991e-01,4.43922e-08,9.99999e-01
4.289284528e-01,6.20208e-08,9.99999e-01,9.99999e-01,9.99993e-01,6.20212e-08,9.99999e-01
4.310730950e-01,8.60804e-08,9.99999e-01,9.99999e-01,9.99996e-01,8.60806e-08,9.99999e-01
4.332284605e-01,1.18702e-07,9.99999e-01,9.99999e-01,9.99998e-01,1.18702e-07,9.99999e-01
4.353946028e-01,1.62650e-07,9.99999e-01,9.99999e-01,9.99999e-01,1.62650e-07,9.99999e-01
4.375715758e-01,2.21487e-07,9.99999e-01,9.99999e-01,9.99994e-01,2.21488e-07,9.99999e-01
4.397594337e-01,2.99762e-07,9.99999e-01,9.99999e-01,9.99954e-01,2.99775e-07,9.99999e-01
4.419582309e-01,4.03223e-07,9.99999e-01,9.99999e-01,9.99770e-01,4.03316e-07,9.99999e-01
4.441680220e-01,5.39349e-07,9.99999e-01,9.99999e-01,9.99816e-01,5.39448e-07,9.99999e-01
4.463888621e-01,7.17260e-07,9.99999e-01,9.99999e-01,9.99810e-01,7.17396e-07,9.99999e-01
4.486208064e-01,9.48575e-07,9.99999e-01,9.99999e-01,9.99881e-01,9.48687e-07,9.99999e-01
4.508639105e-01,1.24757e-06,9.99999e-01,9.99999e-01,9.99944e-01,1.24764e-06,9.99999e-01
4.531182300e-01,1.63191e-06,9.99999e-01,9.99999e-01,9.99977e-01,1.63195e-06,9.99999e-01
4.553838212e-01,2.12331e-06,9.99999e-01,9.99999e-01,9.99984e-01,2.12334e-06,9.99999e-01
4.576607403e-01,2.74835e-06,9.99999e-01,9.99999e-01,9.99992e-01,2.74837e-06,9.99999e-01
4.599490440e-01,3.53928e-06,9.99999e-01,9.99999e-01,9.99994e-01,3.53930e-06,9.99999e-01
4.622487892e-01,4.53513e-06,9.99999e-01,9.99999e-01,9.99998e-01,4.53513e-06,9.99999e-01
4.645600332e-01,5.78274e-06,9.99999e-01,9.99999e-01,9.99996e-01,5.78276e-06,9.99999e-01
4.668828333e-01,7.33791e-06,9.99999e-01,9.99999e-01,9.99944e-01,7.33831e-06,9.99999e-01
4.692172475e-01,9.26748e-06,9.99999e-01,9.99999e-01,9.99880e-01,9.26858e-06,9.99999e-01
4.715633337e-01,1.16518e-05,9.99999e-01,9.99999e-01,9.99922e-01,1.16527e-05,9.99999e-01
4.739211504e-01,1.45829e-05,9.99999e-01,9.99999e-01,9.99924e-01,1.45840e-05,9.99999e-01
4.762907561e-01,1.81713e-05,9.99999e-01,9.99999e-01,9.99960e-01,1.81720e-05,9.99999e-01
4.786722099e-01,2.25442e-05,9.99999e-01,9.99999e-01,9.99983e-01,2.25445e-05,9.99999e-01
4.810655710e-01,2.78502e-05,9.99999e-01,9.99999e-01,9.99994e-01,2.78503e-05,9.99999e-01
4.834708988e-01,3.42600e-05,9.99999e-01,9.99999e-01,9.99955e-01,3.42615e-05,9.99999e-01
4.858882533e-01,4.19728e-05,9.99999e-01,9.99999e-01,9.99915e-01,4.19764e-05,9.99999e-01
4.883176946e-01,5.12190e-05,9.99999e-01,9.99999e-01,9.99929e-01,5.12226e-05,9.99999e-01
4.907592831e-01,6.22562e-05,9.99999e-01,9.99999e-01,9.99935e-01,6.22601e-05,9.99999e-01
4.932130795e-01,7.53816e-05,9.99999e-01,9.99999e-01,9.99954e-01,7.53850e-05,9.99999e-01
4.956791449e-01,9.09302e-05,9.99999e-01,9.99999e-01,9.99975e-01,9.09324e-05,9.99999e-01
4.981575406e-01,1.09268e-04,9.99999e-01,9.99999e-01,9.99880e-01,1.09281e-04,9.99999e-01
5.006483283e-01,1.30815e-04,9.99999e-01,9.99999e-01,9.99693e-01,1.30856e-04,9.99997e-01
5.031515699e-01,1.55886e-04,9.99999e-01,9.99999e-01,9.98434e-01,1.56133e-04,9.99983e-01
5.056673278e-01,1.85488e-04,9.99999e-01,9.99999e-01,9.99170e-01,1.85645e-04,9.99980e-01
5.081956644e-01,2.19749e-04,9.99999e-01,9.99999e-01,9.98952e-01,2.19982e-04,9.99987e-01
5.107366428e-01,2.59612e-04,9.99999e-01,9.99999e-01,9.99292e-01,2.59796e-04,9.99997e-01
5.132903260e-01,3.05687e-04,9.99999e-01,9.99999e-01,9.99594e-01,3.05811e-04,9.99999e-01
5.158567776e-01,3.58756e-04,9.99999e-01,9.99999e-01,9.99828e-01,3.58818e-04,9.99999e-01
5.184360615e-01,4.19657e-04,9.99999e-01,9.99999e-01,9.99931e-01,4.19685e-04,9.99999e-01
5.210282418e-01,4.89349e-04,9.99999e-01,9.99999e-01,9.99974e-01,4.89361e-04,9.99999e-01
5.236333830e-01,5.68817e-04,9.99999e-01,9.99999e-01,9.99897e-01,5.68876e-04,9.99998e-01
5.262515499e-01,6.59304e-04,9.99999e-01,9.99999e-01,9.99935e-01,6.59347e-04,9.99998e-01
5.288828077e-01,7.61936e-04,9.99999e-01,9.99999e-01,9.99941e-01,7.61981e-04,9.99998e-01
5.315272217e-01,8.78033e-04,9.99999e-01,9.99999e-01,9.99947e-01,8.78079e-04,9.99999e-01
5.341848578e-01,1.00900e-03,9.99999e-01,9.99999e-01,9.99965e-01,1.00904e-03,9.99999e-01
5.368557821e-01,1.15621e-03,9.99999e-01,9.99999e-01,9.99881e-01,1.15634e-03,9.99999e-01
5.395400610e-01,1.32103e-03,9.99999e-01,9.99999e-01,9.99575e-01,1.32159e-03,9.99995e-01
5.422377613e-01,1.50563e-03,9.99999e-01,9.99999e-01,9.99442e-01,1.50648e-03,9.99989e-01
5.449489501e-01,1.71190e-03,9.99999e-01,9.99999e-01,9.99485e-01,1.71280e-03,9.99989e-01
5.476736949e-01,1.94153e-03,9.99999e-01,9.99999e-01,9.99540e-01,1.94244e-03,9.99994e-01
5.504120634e-01,2.19666e-03,9.99999e-01,9.99999e-01,9.99666e-01,2.19740e-03,9.99998e-01
5.531641237e-01,2.47936e-03,9.99999e-01,9.99999e-01,9.99831e-01,2.47978e-03,9.99999e-01
5.559299443e-01,2.79154e-03,9.99999e-01,9.99999e-01,9.99918e-01,2.79177e-03,9.99999e-01
5.587095940e-01,3.13551e-03,9.99999e-01,9.99999e-01,9.99949e-01,3.13566e-03,9.99999e-01
5.615031420e-01,3.51365e-03,9.99999e-01,9.99999e-01,9.99943e-01,3.51385e-03,9.99999e-01
5.643106577e-01,3.92855e-03,9.99999e-01,9.99999e-01,9.99936e-01,3.92880e-03,9.99999e-01
5.671322110e-01,4.37973e-03,9.99999e-01,9.99999e-01,9.99240e-01,4.38308e-03,9.99993e-01
5.699678720e-01,4.87516e-03,9.99999e-01,9.99999e-01,9.99166e-01,4.87933e-03,9.99978e-01
5.728177114e-01,5.41553e-03,9.99999e-01,9.99999e-01,9.99142e-01,5.42027e-03,9.99981e-01
5.756818000e-01,6.00388e-03,9.99999e-01,9.99999e-01,9.99211e-01,6.00868e-03,9.99988e-01
5.785602090e-01,6.64283e-03,9.99999e-01,9.99999e-01,9.99310e-01,6.64743e-03,9.99996e-01
5.814530100e-01,7.33435e-03,9.99999e-01,9.99999e-01,9.99309e-01,7.33942e-03,9.99998e-01
5.843602750e-01,8.08099e-03,9.99999e-01,9.99999e-01,9.99184e-01,8.08761e-03,9.99994e-01
5.872820764e-01,8.83213e-03,9.99999e-01,9.99999e-01,9.92981e-01,8.89500e-03,9.99949e-01
5.902184868e-01,9.67943e-03,9.99999e-01,9.99999e-01,9.91408e-01,9.76462e-03,9.99863e-01
5.931695792e-01,1.06334e-02,9.99999e-01,9.99999e-01,9.93947e-01,1.06995e-02,9.99867e-01
5.961354271e-01,1.16240e-02,9.99999e-01,9.99999e-01,9.93348e-01,1.17028e-02,9.99919e-01
5.991161043e-01,1.27151e-02,9.99999e-01,9.99999e-01,9.95138e-01,1.27775e-02,9.99976e-01
6.021116848e-01,1.38882e-02,9.99999e-01,9.99999e-01,9.97235e-01,1.39267e-02,9.99996e-01
6.051222432e-01,1.51322e-02,9.99999e-01,9.99999e-01,9.98599e-01,1.51535e-02,9.99999e-01
6.081478544e-01,1.64509e-02,9.99999e-01,9.99999e-01,9.99396e-01,1.64608e-02,9.99999e-01
6.111885937e-01,1.78472e-02,9.99999e-01,9.99999e-01,9.99743e-01,1.78517e-02,9.99999e-01
6.142445367e-01,1.93270e-02,9.99999e-01,9.99999e-01,9.99885e-01,1.93292e-02,9.99999e-01
6.173157594e-01,2.08948e-02,9.99999e-01,9.99999e-01,9.99936e-01,2.08961e-02,9.99999e-01
6.204023382e-01,2.25541e-02,9.99999e-01,9.99999e-01,9.99946e-01,2.25553e-02,9.99999e-01
6.235043498e-01,2.43039e-02,9.99999e-01,9.99999e-01,9.99770e-01,2.43095e-02,9.99998e-01
6.266218716e-01,2.61289e-02,9.99999e-01,9.99999e-01,9.98764e-01,2.61614e-02,9.99990e-01
6.297549810e-01,2.81004e-02,9.99999e-01,9.99999e-01,9.99546e-01,2.81136e-02,9.99982e-01
6.329037559e-01,3.01410e-02,9.99999e-01,9.99999e-01,9.99101e-01,3.01685e-02,9.99985e-01
6.360682746e-01,3.23037e-02,9.99999e-01,9.99999e-01,9.99238e-01,3.23286e-02,9.99991e-01
6.392486160e-01,3.45617e-02,9.99999e-01,9.99999e-01,9.99010e-01,3.45960e-02,9.99995e-01
6.424448591e-01,3.69289e-02,9.99999e-01,9.99999e-01,9.98815e-01,3.69729e-02,9.99993e-01
6.456570834e-01,3.92220e-02,9.99999e-01,9.99999e-01,9.93970e-01,3.94613e-02,9.99965e-01
6.488853688e-01,4.18364e-02,9.99999e-01,9.99999e-01,9.94706e-01,4.20630e-02,9.99904e-01
6.521297956e-01,4.45707e-02,9.99999e-01,9.99999e-01,9.95409e-01,4.47798e-02,9.99919e-01
6.553904446e-01,4.73945e-02,9.99999e-01,9.99999e-01,9.95468e-01,4.76131e-02,9.99939e-01
6.586673968e-01,5.03651e-02,9.99999e-01,9.99999e-01,9.96078e-01,5.05644e-02,9.99979e-01
6.619607338e-01,5.35130e-02,9.99999e-01,9.99999e-01,9.97732e-01,5.36348e-02,9.99995e-01
6.652705375e-01,5.67506e-02,9.99999e-01,9.99999e-01,9.98682e-01,5.68255e-02,9.99997e-01
6.685968902e-01,6.01006e-02,9.99999e-01,9.99999e-01,9.99388e-01,6.01373e-02,9.99999e-01
6.719398746e-01,6.35530e-02,9.99999e-01,9.99999e-01,9.99715e-01,6.35710e-02,9.99999e-01
6.752995740e-01,6.71168e-02,9.99999e-01,9.99999e-01,9.99846e-01,6.71271e-02,9.99999e-01
6.786760719e-01,7.07904e-02,9.99999e-01,9.99999e-01,9.99780e-01,7.08059e-02,9.99999e-01
6.820694522e-01,7.45794e-02,9.99999e-01,9.99999e-01,9.99623e-01,7.46077e-02,9.99997e-01
6.854797995e-01,7.84940e-02,9.99999e-01,9.99999e-01,9.99514e-01,7.85324e-02,9.99995e-01
6.889071985e-01,8.24837e-02,9.99999e-01,9.99999e-01,9.98845e-01,8.25799e-02,9.99988e-01
6.923517345e-01,8.50993e-02,9.99999e-01,9.99999e-01,9.81064e-01,8.67498e-02,9.99907e-01
6.958134932e-01,9.01031e-02,9.99999e-01,9.99999e-01,9.89895e-01,9.10417e-02,9.99791e-01
6.992925606e-01,9.45401e-02,9.99999e-01,9.99999e-01,9.90597e-01,9.54548e-02,9.99816e-01
7.027890234e-01,9.88046e-02,9.99999e-01,9.99999e-01,9.88298e-01,9.99884e-02,9.99859e-01
7.063029686e-01,1.03605e-01,9.99999e-01,9.99999e-01,9.90162e-01,1.04641e-01,9.99929e-01
7.098344834e-01,1.08375e-01,9.99999e-01,9.99999e-01,9.90558e-01,1.09412e-01,9.99958e-01
7.133836558e-01,1.12876e-01,9.99999e-01,9.99999e-01,9.87624e-01,1.14300e-01,9.99917e-01
7.169505741e-01,1.07827e-01,9.99999e-01,9.99999e-01,9.04385e-01,1.19303e-01,9.99353e-01
7.205353270e-01,1.18186e-01,9.99999e-01,9.99999e-01,9.50976e-01,1.24420e-01,9.98860e-01
7.241380036e-01,1.21634e-01,9.99999e-01,9.99999e-01,9.39112e-01,1.29649e-01,9.99008e-01
7.277586936e-01,1.27437e-01,9.99999e-01,9.99999e-01,9.44839e-01,1.34988e-01,9.99175e-01
7.313974871e-01,1.32094e-01,9.99999e-01,9.99999e-01,9.40964e-01,1.40434e-01,9.99622e-01
7.350544745e-01,1.41203e-01,9.99999e-01,9.99999e-01,9.67361e-01,1.45987e-01,9.99868e-01
7.387297469e-01,1.47971e-01,9.99999e-01,9.99999e-01,9.75846e-01,1.51642e-01,9.99939e-01
7.424233956e-01,1.55520e-01,9.99999e-01,9.99999e-01,9.88076e-01,1.57398e-01,9.99987e-01
7.461355126e-01,1.62073e-01,9.99999e-01,9.99999e-01,9.92772e-01,1.63253e-01,9.99997e-01
7.498661902e-01,1.68632e-01,9.99999e-01,9.99999e-01,9.96619e-01,1.69204e-01,9.99998e-01
7.536155211e-01,1.74957e-01,9.99999e-01,9.99999e-01,9.98345e-01,1.75247e-01,9.99999e-01
7.573835987e-01,1.81226e-01,9.99999e-01,9.99999e-01,9.99147e-01,1.81380e-01,9.99999e-01
7.611705167e-01,1.87502e-01,9.99999e-01,9.99999e-01,9.99470e-01,1.87601e-01,9.99999e-01
7.649763693e-01,1.93841e-01,9.99999e-01,9.99999e-01,9.99668e-01,1.93906e-01,9.99999e-01
7.688012511e-01,2.00245e-01,9.99999e-01,9.99999e-01,9.99769e-01,2.00291e-01,9.99999e-01
7.726452574e-01,2.06716e-01,9.99999e-01,9.99999e-01,9.99810e-01,2.06755e-01,9.99999e-01
7.765084837e-01,2.13236e-01,9.99999e-01,9.99999e-01,9.99732e-01,2.13293e-01,9.99999e-01
7.803910261e-01,2.06401e-01,9.99999e-01,9.39618e-01,9.98848e-01,2.19903e-01,9.99998e-01
7.842929812e-01,1.66118e-01,9.99999e-01,7.35839e-01,9.95987e-01,2.26581e-01,9.99992e-01
7.882144461e-01,1.67483e-01,9.99999e-01,7.23434e-01,9.91668e-01,2.33324e-01,9.99948e-01
7.921555184e-01,1.96842e-01,9.99999e-01,8.23431e-01,9.95398e-01,2.40129e-01,9.99900e-01
7.961162960e-01,2.14752e-01,9.99999e-01,8.76446e-01,9.91979e-01,2.46992e-01,9.99904e-01
8.000968774e-01,2.34191e-01,9.99999e-01,9.31061e-01,9.90679e-01,2.53909e-01,9.99898e-01
8.040973618e-01,2.49000e-01,9.99999e-01,9.63474e-01,9.90692e-01,2.60878e-01,9.99919e-01
8.081178486e-01,2.57923e-01,9.99999e-01,9.83138e-01,9.79301e-01,2.67895e-01,9.99924e-01
8.121584379e-01,2.50608e-01,9.99999e-01,9.94713e-01,9.16460e-01,2.74956e-01,9.99704e-01
8.162192301e-01,2.53463e-01,9.99999e-01,9.98829e-01,9.00627e-01,2.82059e-01,9.98891e-01
8.203003262e-01,2.74526e-01,9.99999e-01,9.99979e-01,9.50512e-01,2.89199e-01,9.98701e-01
8.244018279e-01,2.75323e-01,9.99999e-01,9.99999e-01,9.29932e-01,2.96373e-01,9.98966e-01
8.285238370e-01,2.85066e-01,9.99999e-01,9.99999e-01,9.39780e-01,3.03579e-01,9.99188e-01
8.326664562e-01,2.91727e-01,9.99999e-01,9.99999e-01,9.38909e-01,3.10812e-01,9.99663e-01
8.368297885e-01,3.03993e-01,9.99999e-01,9.99999e-01,9.55814e-01,3.18070e-01,9.99922e-01
8.410139374e-01,3.16709e-01,9.99999e-01,9.99999e-01,9.73487e-01,3.25349e-01,9.99954e-01
8.452190071e-01,3.28277e-01,9.99999e-01,9.99999e-01,9.86894e-01,3.32645e-01,9.99972e-01
8.494451021e-01,3.37368e-01,9.99999e-01,9.99999e-01,9.92407e-01,3.39956e-01,9.99978e-01
8.536923276e-01,3.45707e-01,9.99999e-01,9.99999e-01,9.95486e-01,3.47279e-01,9.99985e-01
8.579607893e-01,3.53626e-01,9.99999e-01,9.99999e-01,9.97228e-01,3.54610e-01,9.99995e-01
8.622505932e-01,3.61308e-01,9.99999e-01,9.99999e-01,9.98233e-01,3.61947e-01,9.99998e-01
8.665618462e-01,3.29908e-01,9.99999e-01,8.94287e-01,9.98911e-01,3.69286e-01,9.99999e-01
8.708946554e-01,1.76126e-01,9.99999e-01,4.68190e-01,9.98757e-01,3.76624e-01,9.99998e-01
8.752491287e-01,2.04955e-01,9.99999e-01,5.34637e-01,9.98335e-01,3.83959e-01,9.99997e-01
8.796253743e-01,2.75127e-01,9.99999e-01,7.04660e-01,9.97703e-01,3.91288e-01,9.99994e-01
8.840235012e-01,3.31030e-01,9.99999e-01,8.32599e-01,9.97375e-01,3.98608e-01,9.99983e-01
8.884436187e-01,3.73936e-01,9.99999e-01,9.29776e-01,9.90658e-01,4.05916e-01,9.99953e-01
8.928858368e-01,3.63123e-01,9.99999e-01,9.70998e-01,9.04805e-01,4.13210e-01,9.99736e-01
8.973502660e-01,3.48844e-01,9.99999e-01,9.92825e-01,8.36496e-01,4.20486e-01,9.98651e-01
9.018370173e-01,3.89088e-01,9.99999e-01,9.99204e-01,9.12241e-01,4.27744e-01,9.97880e-01
9.063462024e-01,3.93724e-01,9.99999e-01,9.80719e-01,9.23528e-01,4.34980e-01,9.98137e-01
9.108779334e-01,3.72369e-01,9.99999e-01,9.54748e-01,8.82717e-01,4.42191e-01,9.98065e-01
9.154323231e-01,3.85098e-01,9.99999e-01,9.89072e-01,8.67407e-01,4.49376e-01,9.98400e-01
9.200094847e-01,3.56883e-01,9.99999e-01,8.65397e-01,8.94443e-01,4.56533e-01,9.99104e-01
9.246095321e-01,3.14688e-01,9.99999e-01,7.98014e-01,8.45406e-01,4.63658e-01,9.98967e-01
9.292325798e-01,1.34734e-01,9.99999e-01,8.40976e-01,3.31795e-01,4.70751e-01,9.95982e-01
9.338787427e-01,9.71466e-02,9.99999e-01,8.43457e-01,2.38127e-01,4.77809e-01,9.83496e-01
9.385481364e-01,2.37175e-01,9.99999e-01,8.81929e-01,5.58449e-01,4.84831e-01,9.80402e-01
9.432408771e-01,2.06050e-01,9.99999e-01,9.25471e-01,4.57144e-01,4.91814e-01,9.83070e-01
9.479570815e-01,1.61944e-01,9.99999e-01,9.61161e-01,3.41322e-01,4.98756e-01,9.86199e-01
9.526968669e-01,2.15363e-01,9.99999e-01,9.81053e-01,4.36594e-01,5.05657e-01,9.91559e-01
9.574603512e-01,2.31841e-01,9.99999e-01,9.91845e-01,4.57581e-01,5.12514e-01,9.95703e-01
9.622476530e-01,2.71160e-01,9.99999e-01,9.97446e-01,5.24882e-01,5.19325e-01,9.97026e-01
9.670588912e-01,3.61377e-01,9.99999e-01,9.99232e-01,6.88787e-01,5.26090e-01,9.97965e-01
9.718941857e-01,4.20270e-01,9.99999e-01,9.99944e-01,7.90005e-01,5.32807e-01,9.98501e-01
9.767536566e-01,4.43053e-01,9.99999e-01,9.99999e-01,8.22209e-01,5.39474e-01,9.98854e-01
9.816374249e-01,4.71814e-01,9.99999e-01,9.99999e-01,8.64325e-01,5.46091e-01,9.99603e-01
9.865456120e-01,5.04413e-01,9.99999e-01,9.99999e-01,9.12782e-01,5.52656e-01,9.99916e-01
9.914783401e-01,5.28480e-01,9.99999e-01,9.99999e-01,9.45140e-01,5.59167e-01,9.99976e-01
9.964357318e-01,5.48497e-01,9.99999e-01,9.99999e-01,9.69731e-01,5.65625e-01,9.99986e-01
1.001417910e+00,5.61571e-01,9.99999e-01,9.99999e-01,9.81740e-01,5.72027e-01,9.99979e-01
1.006425000e+00,5.72327e-01,9.99999e-01,9.99999e-01,9.89574e-01,5.78373e-01,9.99970e-01
1.011457125e+00,5.80845e-01,9.99999e-01,9.99999e-01,9.93497e-01,5.84662e-01,9.99972e-01
1.016514411e+00,5.88277e-01,9.99999e-01,9.99999e-01,9.95589e-01,5.90894e-01,9.99980e-01
1.021596983e+00,5.94902e-01,9.99999e-01,9.99906e-01,9.96486e-01,5.97066e-01,9.99980e-01
1.026704968e+00,5.96962e-01,9.99999e-01,9.92414e-01,9.97260e-01,6.03180e-01,9.99986e-01
1.031838492e+00,5.66686e-01,9.99999e-01,9.31948e-01,9.98003e-01,6.09233e-01,9.99995e-01
1.036997685e+00,4.86940e-02,9.99999e-01,7.92196e-02,9.98816e-01,6.15226e-01,9.99998e-01
1.042182673e+00,1.05764e-02,9.99999e-01,1.70464e-02,9.98594e-01,6.21157e-01,9.99999e-01
1.047393587e+00,2.08267e-02,9.99999e-01,3.32680e-02,9.98133e-01,6.27027e-01,9.99999e-01
1.052630555e+00,2.99422e-05,9.99999e-01,4.73949e-05,9.97442e-01,6.32835e-01,9.99998e-01
1.057893707e+00,1.02715e-04,9.99999e-01,1.61238e-04,9.95741e-01,6.38580e-01,9.99998e-01
1.063183176e+00,9.59989e-04,9.99999e-01,1.49660e-03,9.92992e-01,6.44263e-01,9.99995e-01
1.068499092e+00,5.61803e-03,9.99999e-01,8.72035e-03,9.88274e-01,6.49882e-01,9.99991e-01
1.073841587e+00,3.12698e-02,9.99999e-01,4.82180e-02,9.86324e-01,6.55438e-01,9.99982e-01
1.079210795e+00,9.58950e-02,9.99999e-01,1.47265e-01,9.82437e-01,6.60930e-01,9.99952e-01
1.084606849e+00,2.22022e-01,9.99999e-01,3.41453e-01,9.73591e-01,6.66358e-01,9.99886e-01
1.090029883e+00,3.69904e-01,9.99999e-01,5.71054e-01,9.62546e-01,6.71723e-01,9.99764e-01
1.095480033e+00,4.63271e-01,9.99999e-01,7.58012e-01,9.01035e-01,6.77023e-01,9.99574e-01
1.100957433e+00,4.59522e-01,9.99999e-01,8.74722e-01,7.68436e-01,6.82259e-01,9.99217e-01
1.106462220e+00,3.38409e-01,9.99999e-01,9.46042e-01,5.19098e-01,6.87431e-01,9.98673e-01
1.111994531e+00,1.73194e-01,9.99999e-01,9.79639e-01,2.55504e-01,6.92539e-01,9.96481e-01
1.117554504e+00,7.84541e-02,9.99999e-01,9.94965e-01,1.14300e-01,6.97583e-01,9.87357e-01
1.123142276e+00,1.47266e-01,9.99999e-01,9.99666e-01,2.16051e-01,7.02563e-01,9.70278e-01
1.128757988e+00,2.45348e-01,9.99999e-01,9.99999e-01,3.59110e-01,7.07479e-01,9.65698e-01
1.134401778e+00,1.14000e-01,9.99999e-01,9.99999e-01,1.64975e-01,7.12332e-01,9.70075e-01
1.140073787e+00,3.73752e-01,9.99999e-01,9.99999e-01,5.34028e-01,7.17120e-01,9.75949e-01
1.145774156e+00,1.99060e-01,9.99999e-01,9.99999e-01,2.81816e-01,7.21846e-01,9.78527e-01
1.151503026e+00,1.77731e-01,9.99999e-01,9.99999e-01,2.47614e-01,7.26508e-01,9.87980e-01
1.157260541e+00,2.15775e-01,9.99999e-01,9.99999e-01,2.96204e-01,7.31108e-01,9.96390e-01
1.163046844e+00,2.96549e-01,9.99999e-01,9.99999e-01,4.03527e-01,7.35645e-01,9.98975e-01
1.168862078e+00,3.89566e-01,9.99999e-01,9.99999e-01,5.26633e-01,7.40119e-01,9.99471e-01
1.174706389e+00,5.00685e-01,9.99999e-01,9.99999e-01,6.72953e-01,7.44532e-01,9.99300e-01
1.180579921e+00,5.87240e-01,9.99999e-01,9.99999e-01,7.84984e-01,7.48883e-01,9.98942e-01
1.186482820e+00,6.55953e-01,9.99999e-01,9.99990e-01,8.71873e-01,7.53173e-01,9.98914e-01
1.192415234e+00,6.80700e-01,9.99999e-01,9.73812e-01,9.23082e-01,7.57402e-01,9.99186e-01
1.198377311e+00,3.87981e-01,9.99999e-01,5.39298e-01,9.34914e-01,7.61570e-01,9.99231e-01
1.204369197e+00,5.79835e-21,9.99999e-01,7.86237e-21,9.38325e-01,7.65678e-01,9.99304e-01
1.210391043e+00,1.36737e-82,9.99999e-01,1.83838e-82,9.40873e-01,7.69727e-01,9.99576e-01
1.216442998e+00,1.43611e-71,9.99999e-01,1.91713e-71,9.49357e-01,7.73716e-01,9.99740e-01
1.222525213e+00,1.67925e-70,9.99999e-01,2.20510e-70,9.60359e-01,7.77647e-01,9.99838e-01
1.228637839e+00,1.66852e-54,9.99999e-01,2.17604e-54,9.72324e-01,7.81520e-01,9.99924e-01
