#,Wave/freq,Total,N2,CO2,H2O,Rayleigh,CIA
4.000000000e-01,1.96128e-02,9.99999e-01,9.99999e-01,9.99991e-01,1.96130e-02,9.99999e-01
4.020000000e-01,2.11984e-02,9.99999e-01,9.99999e-01,9.99994e-01,2.11985e-02,9.99999e-01
4.040100000e-01,2.28751e-02,9.99999e-01,9.99999e-01,9.99997e-01,2.28752e-02,9.99999e-01
4.060300500e-01,2.46474e-02,9.99999e-01,9.99999e-01,9.99999e-01,2.46474e-02,9.99999e-01
4.080602003e-01,2.65178e-02,9.99999e-01,9.99999e-01,9.99999e-01,2.65178e-02,9.99999e-01
4.101005013e-01,2.84889e-02,9.99999e-01,9.99999e-01,9.99999e-01,2.84889e-02,9.99999e-01
4.121510038e-01,3.05633e-02,9.99999e-01,9.99999e-01,9.99999e-01,3.05633e-02,9.99999e-01
4.142117588e-01,3.27431e-02,9.99999e-01,9.99999e-01,9.99997e-01,3.27432e-02,9.99999e-01
4.162828176e-01,3.50306e-02,9.99999e-01,9.99999e-01,9.99990e-01,3.50309e-02,9.99999e-01
4.183642317e-01,3.74282e-02,9.99999e-01,9.99999e-01,9.99993e-01,3.74285e-02,9.99999e-01
4.204560528e-01,3.99377e-02,9.99999e-01,9.99999e-01,9.99996e-01,3.99379e-02,9.99999e-01
4.225583331e-01,4.25608e-02,9.99999e-01,9.99999e-01,9.99998e-01,4.25609e-02,9.99999e-01
4.246711247e-01,4.52992e-02,9.99999e-01,9.99999e-01,9.99998e-01,4.52993e-02,9.99999e-01
4.267944804e-01,4.81544e-02,9.99999e-01,9.99999e-01,9.99998e-01,4.81545e-02,9.99999e-01
4.289284528e-01,5.11278e-02,9.99999e-01,9.99999e-01,9.99998e-01,5.11279e-02,9.99999e-01
4.310730950e-01,5.42207e-02,9.99999e-01,9.99999e-01,9.99999e-01,5.42207e-02,9.99999e-01
4.332284605e-01,5.74339e-02,9.99999e-01,9.99999e-01,9.99999e-01,5.74339e-02,9.99999e-01
4.353946028e-01,6.07684e-02,9.99999e-01,9.99999e-01,9.99999e-01,6.07684e-02,9.99999e-01
4.375715758e-01,6.42248e-02,9.99999e-01,9.99999e-01,9.99998e-01,6.42249e-02,9.99999e-01
4.397594337e-01,6.78033e-02,9.99999e-01,9.99999e-01,9.99991e-01,6.78038e-02,9.99999e-01
4.419582309e-01,7.15026e-02,9.99999e-01,9.99999e-01,9.99957e-01,7.15056e-02,9.99999e-01
4.441680220e-01,7.53278e-02,9.99999e-01,9.99999e-01,9.99966e-01,7.53302e-02,9.99999e-01
4.463888621e-01,7.92752e-02,9.99999e-01,9.99999e-01,9.99965e-01,7.92779e-02,9.99999e-01
4.486208064e-01,8.33465e-02,9.99999e-01,9.99999e-01,9.99978e-01,8.33483e-02,9.99999e-01
4.508639105e-01,8.75401e-02,9.99999e-01,9.99999e-01,9.99989e-01,8.75410e-02,9.99999e-01
4.531182300e-01,9.18552e-02,9.99999e-01,9.99999e-01,9.99995e-01,9.18555e-02,9.99999e-01
4.553838212e-01,9.62909e-02,9.99999e-01,9.99999e-01,9.99996e-01,9.62912e-02,9.99999e-01
4.576607403e-01,1.00847e-01,9.99999e-01,9.99999e-01,9.99998e-01,1.00847e-01,9.99999e-01
4.599490440e-01,1.05522e-01,9.99999e-01,9.99999e-01,9.99998e-01,1.05522e-01,9.99999e-01
4.622487892e-01,1.10315e-01,9.99999e-01,9.99999e-01,9.99999e-01,1.10315e-01,9.99999e-01
4.645600332e-01,1.15225e-01,9.99999e-01,9.99999e-01,9.99998e-01,1.15225e-01,9.99999e-01
4.668828333e-01,1.20248e-01,9.99999e-01,9.99999e-01,9.99989e-01,1.20249e-01,9.99999e-01
4.692172475e-01,1.25384e-01,9.99999e-01,9.99999e-01,9.99978e-01,1.25387e-01,9.99999e-01
4.715633337e-01,1.30635e-01,9.99999e-01,9.99999e-01,9.99985e-01,1.30636e-01,9.99999e-01
4.739211504e-01,1.35994e-01,9.99999e-01,9.99999e-01,9.99986e-01,1.35995e-01,9.99999e-01
4.762907561e-01,1.41461e-01,9.99999e-01,9.99999e-01,9.99992e-01,1.41462e-01,9.99999e-01
4.786722099e-01,1.47033e-01,9.99999e-01,9.99999e-01,9.99996e-01,1.47033e-01,9.99999e-01
4.810655710e-01,1.52708e-01,9.99999e-01,9.99999e-01,9.99998e-01,1.52708e-01,9.99999e-01
4.834708988e-01,1.58482e-01,9.99999e-01,9.99999e-01,9.99991e-01,1.58483e-01,9.99999e-01
4.858882533e-01,1.64353e-01,9.99999e-01,9.99999e-01,9.99984e-01,1.64356e-01,9.99999e-01
4.883176946e-01,1.70322e-01,9.99999e-01,9.99999e-01,9.99986e-01,1.70324e-01,9.99999e-01
4.907592831e-01,1.76382e-01,9.99999e-01,9.99999e-01,9.99988e-01,1.76384e-01,9.99999e-01
4.932130795e-01,1.82532e-01,9.99999e-01,9.99999e-01,9.99991e-01,1.82534e-01,9.99999e-01
4.956791449e-01,1.88770e-01,9.99999e-01,9.99999e-01,9.99995e-01,1.88770e-01,9.99999e-01
4.981575406e-01,1.95086e-01,9.99999e-01,9.99999e-01,9.99978e-01,1.95090e-01,9.99999e-01
5.006483283e-01,2.01480e-01,9.99999e-01,9.99999e-01,9.99943e-01,2.01491e-01,9.99999e-01
5.031515699e-01,2.07910e-01,9.99999e-01,9.99999e-01,9.99718e-01,2.07969e-01,9.99996e-01
5.056673278e-01,2.14488e-01,9.99999e-01,9.99999e-01,9.99851e-01,2.14521e-01,9.99996e-01
5.081956644e-01,2.21102e-01,9.99999e-01,9.99999e-01,9.99812e-01,2.21144e-01,9.99997e-01
5.107366428e-01,2.27805e-01,9.99999e-01,9.99999e-01,9.99873e-01,2.27834e-01,9.99999e-01
5.132903260e-01,2.34572e-01,9.99999e-01,9.99999e-01,9.99927e-01,2.34589e-01,9.99999e-01
5.158567776e-01,2.41397e-01,9.99999e-01,9.99999e-01,9.99969e-01,2.41405e-01,9.99999e-01
5.184360615e-01,2.48275e-01,9.99999e-01,9.99999e-01,9.99987e-01,2.48278e-01,9.99999e-01
5.210282418e-01,2.55204e-01,9.99999e-01,9.99999e-01,9.99994e-01,2.55205e-01,9.99999e-01
5.236333830e-01,2.62178e-01,9.99999e-01,9.99999e-01,9.99981e-01,2.62183e-01,9.99999e-01
5.262515499e-01,2.69205e-01,9.99999e-01,9.99999e-01,9.99988e-01,2.69208e-01,9.99999e-01
5.288828077e-01,2.76275e-01,9.99999e-01,9.99999e-01,9.99988e-01,2.76278e-01,9.99999e-01
5.315272217e-01,2.83385e-01,9.99999e-01,9.99999e-01,9.99990e-01,2.83387e-01,9.99999e-01
5.341848578e-01,2.90533e-01,9.99999e-01,9.99999e-01,9.99993e-01,2.90534e-01,9.99999e-01
5.368557821e-01,2.97709e-01,9.99999e-01,9.99999e-01,9.99978e-01,2.97715e-01,9.99999e-01
5.395400610e-01,3.04902e-01,9.99999e-01,9.99999e-01,9.99922e-01,3.04926e-01,9.99998e-01
5.422377613e-01,3.12132e-01,9.99999e-01,9.99999e-01,9.99900e-01,3.12164e-01,9.99997e-01
5.449489501e-01,3.19396e-01,9.99999e-01,9.99999e-01,9.99906e-01,3.19426e-01,9.99997e-01
5.476736949e-01,3.26681e-01,9.99999e-01,9.99999e-01,9.99917e-01,3.26708e-01,9.99998e-01
5.504120634e-01,3.33988e-01,9.99999e-01,9.99999e-01,9.99940e-01,3.34008e-01,9.99999e-01
5.531641237e-01,3.41311e-01,9.99999e-01,9.99999e-01,9.99969e-01,3.41321e-01,9.99999e-01
5.559299443e-01,3.48641e-01,9.99999e-01,9.99999e-01,9.99985e-01,3.48646e-01,9.99999e-01
5.587095940e-01,3.55975e-01,9.99999e-01,9.99999e-01,9.99990e-01,3.55978e-01,9.99999e-01
5.615031420e-01,3.63312e-01,9.99999e-01,9.99999e-01,9.99989e-01,3.63316e-01,9.99999e-01
5.643106577e-01,3.70650e-01,9.99999e-01,9.99999e-01,9.99988e-01,3.70655e-01,9.99999e-01
5.671322110e-01,3.77939e-01,9.99999e-01,9.99999e-01,9.99859e-01,3.77993e-01,9.99998e-01
5.699678720e-01,3.85268e-01,9.99999e-01,9.99999e-01,9.99851e-01,3.85327e-01,9.99995e-01
5.728177114e-01,3.92592e-01,9.99999e-01,9.99999e-01,9.99845e-01,3.92654e-01,9.99996e-01
5.756818000e-01,3.99914e-01,9.99999e-01,9.99999e-01,9.99858e-01,3.99972e-01,9.99997e-01
5.785602090e-01,4.07227e-01,9.99999e-01,9.99999e-01,9.99876e-01,4.07277e-01,9.99998e-01
5.814530100e-01,4.14517e-01,9.99999e-01,9.99999e-01,9.99875e-01,4.14568e-01,9.99999e-01
5.843602750e-01,4.21779e-01,9.99999e-01,9.99999e-01,9.99851e-01,4.21841e-01,9.99998e-01
5.872820764e-01,4.28544e-01,9.99999e-01,9.99999e-01,9.98724e-01,4.29095e-01,9.99990e-01
5.902184868e-01,4.35643e-01,9.99999e-01,9.99999e-01,9.98458e-01,4.36326e-01,9.99975e-01
5.931695792e-01,4.43039e-01,9.99999e-01,9.99999e-01,9.98909e-01,4.43533e-01,9.99976e-01
5.961354271e-01,4.50169e-01,9.99999e-01,9.99999e-01,9.98805e-01,4.50713e-01,9.99986e-01
5.991161043e-01,4.57464e-01,9.99999e-01,9.99999e-01,9.99129e-01,4.57864e-01,9.99995e-01
6.021116848e-01,4.64754e-01,9.99999e-01,9.99999e-01,9.99505e-01,4.64984e-01,9.99999e-01
6.051222432e-01,4.71952e-01,9.99999e-01,9.99999e-01,9.99749e-01,4.72070e-01,9.99999e-01
6.081478544e-01,4.79070e-01,9.99999e-01,9.99999e-01,9.99891e-01,4.79122e-01,9.99999e-01
6.111885937e-01,4.86114e-01,9.99999e-01,9.99999e-01,9.99953e-01,4.86136e-01,9.99999e-01
6.142445367e-01,4.93101e-01,9.99999e-01,9.99999e-01,9.99979e-01,4.93112e-01,9.99999e-01
6.173157594e-01,5.00041e-01,9.99999e-01,9.99999e-01,9.99988e-01,5.00046e-01,9.99999e-01
6.204023382e-01,5.06934e-01,9.99999e-01,9.99999e-01,9.99990e-01,5.06939e-01,9.99999e-01
6.235043498e-01,5.13766e-01,9.99999e-01,9.99999e-01,9.99957e-01,5.13787e-01,9.99999e-01
6.266218716e-01,5.20474e-01,9.99999e-01,9.99999e-01,9.99777e-01,5.20590e-01,9.99997e-01
6.297549810e-01,5.27302e-01,9.99999e-01,9.99999e-01,9.99918e-01,5.27346e-01,9.99996e-01
6.329037559e-01,5.33967e-01,9.99999e-01,9.99999e-01,9.99838e-01,5.34054e-01,9.99997e-01
6.360682746e-01,5.40637e-01,9.99999e-01,9.99999e-01,9.99862e-01,5.40712e-01,9.99998e-01
6.392486160e-01,5.47222e-01,9.99999e-01,9.99999e-01,9.99822e-01,5.47319e-01,9.99998e-01
6.424448591e-01,5.53742e-01,9.99999e-01,9.99999e-01,9.99761e-01,5.53874e-01,9.99998e-01
6.456570834e-01,5.59753e-01,9.99999e-01,9.99999e-01,9.98895e-01,5.60376e-01,9.99993e-01
6.488853688e-01,5.66356e-01,9.99999e-01,9.99999e-01,9.99192e-01,5.66823e-01,9.99982e-01
6.521297956e-01,5.72735e-01,9.99999e-01,9.99999e-01,9.99177e-01,5.73215e-01,9.99985e-01
6.553904446e-01,5.79070e-01,9.99999e-01,9.99999e-01,9.99180e-01,5.79551e-01,9.99989e-01
6.586673968e-01,5.85416e-01,9.99999e-01,9.99999e-01,9.99298e-01,5.85829e-01,9.99995e-01
6.619607338e-01,5.91818e-01,9.99999e-01,9.99999e-01,9.99609e-01,5.92049e-01,9.99998e-01
6.652705375e-01,5.98071e-01,9.99999e-01,9.99999e-01,9.99765e-01,5.98211e-01,9.99999e-01
6.685968902e-01,6.04247e-01,9.99999e-01,9.99999e-01,9.99890e-01,6.04313e-01,9.99999e-01
6.719398746e-01,6.10325e-01,9.99999e-01,9.99999e-01,9.99949e-01,6.10355e-01,9.99999e-01
6.752995740e-01,6.16320e-01,9.99999e-01,9.99999e-01,9.99972e-01,6.16337e-01,9.99999e-01
6.786760719e-01,6.22232e-01,9.99999e-01,9.99999e-01,9.99959e-01,6.22257e-01,9.99999e-01
6.820694522e-01,6.28072e-01,9.99999e-01,9.99999e-01,9.99931e-01,6.28115e-01,9.99999e-01
6.854797995e-01,6.33855e-01,9.99999e-01,9.99999e-01,9.99912e-01,6.33911e-01,9.99998e-01
6.889071985e-01,6.39508e-01,9.99999e-01,9.99999e-01,9.99787e-01,6.39645e-01,9.99997e-01
6.923517345e-01,6.43074e-01,9.99999e-01,9.99999e-01,9.96543e-01,6.45315e-01,9.99983e-01
6.958134932e-01,6.49734e-01,9.99999e-01,9.99999e-01,9.98209e-01,6.50923e-01,9.99962e-01
6.992925606e-01,6.55324e-01,9.99999e-01,9.99999e-01,9.98292e-01,6.56467e-01,9.99966e-01
7.027890234e-01,6.60538e-01,9.99999e-01,9.99999e-01,9.97895e-01,6.61947e-01,9.99974e-01
7.063029686e-01,6.66175e-01,9.99999e-01,9.99999e-01,9.98230e-01,6.67363e-01,9.99986e-01
7.098344834e-01,6.71569e-01,9.99999e-01,9.99999e-01,9.98302e-01,6.72716e-01,9.99992e-01
7.133836558e-01,6.76455e-01,9.99999e-01,9.99999e-01,9.97729e-01,6.78004e-01,9.99984e-01
7.169505741e-01,6.70720e-01,9.99999e-01,9.99999e-01,9.81805e-01,6.83228e-01,9.99883e-01
7.205353270e-01,6.82128e-01,9.99999e-01,9.99999e-01,9.91107e-01,6.88389e-01,9.99795e-01
7.241380036e-01,6.85518e-01,9.99999e-01,9.99999e-01,9.88685e-01,6.93485e-01,9.99823e-01
7.277586936e-01,6.91283e-01,9.99999e-01,9.99999e-01,9.89786e-01,6.98517e-01,9.99855e-01
7.313974871e-01,6.95821e-01,9.99999e-01,9.99999e-01,9.89172e-01,7.03485e-01,9.99931e-01
7.350544745e-01,7.04176e-01,9.99999e-01,9.99999e-01,9.94075e-01,7.08389e-01,9.99976e-01
7.387297469e-01,7.10114e-01,9.99999e-01,9.99999e-01,9.95642e-01,7.13229e-01,9.99988e-01
7.424233956e-01,7.16475e-01,9.99999e-01,9.99999e-01,9.97868e-01,7.18006e-01,9.99997e-01
7.461355126e-01,7.21786e-01,9.99999e-01,9.99999e-01,9.98707e-01,7.22720e-01,9.99999e-01
7.498661902e-01,7.26933e-01,9.99999e-01,9.99999e-01,9.99398e-01,7.27371e-01,9.99999e-01
7.536155211e-01,7.31743e-01,9.99999e-01,9.99999e-01,9.99704e-01,7.31959e-01,9.99999e-01
7.573835987e-01,7.36372e-01,9.99999e-01,9.99999e-01,9.99847e-01,7.36484e-01,9.99999e-01
7.611705167e-01,7.40877e-01,9.99999e-01,9.99999e-01,9.99905e-01,7.40947e-01,9.99999e-01
7.649763693e-01,7.45304e-01,9.99999e-01,9.99999e-01,9.99940e-01,7.45348e-01,9.99999e-01
7.688012511e-01,7.49657e-01,9.99999e-01,9.99999e-01,9.99958e-01,7.49688e-01,9.99999e-01
7.726452574e-01,7.53940e-01,9.99999e-01,9.99999e-01,9.99965e-01,7.53966e-01,9.99999e-01
7.765084837e-01,7.58147e-01,9.99999e-01,9.99999e-01,9.99951e-01,7.58183e-01,9.99999e-01
7.803910261e-01,7.51804e-01,9.99999e-01,9.86381e-01,9.99790e-01,7.62341e-01,9.99999e-01
7.842929812e-01,7.23122e-01,9.99999e-01,9.44159e-01,9.99270e-01,7.66438e-01,9.99998e-01
7.882144461e-01,7.23150e-01,9.99999e-01,9.39972e-01,9.98500e-01,7.70475e-01,9.99989e-01
7.921555184e-01,7.46885e-01,9.99999e-01,9.65204e-01,9.99178e-01,7.74454e-01,9.99981e-01
7.961162960e-01,7.59126e-01,9.99999e-01,9.76703e-01,9.98544e-01,7.78374e-01,9.99982e-01
8.000968774e-01,7.70998e-01,9.99999e-01,9.87306e-01,9.98321e-01,7.82235e-01,9.99981e-01
8.040973618e-01,7.79544e-01,9.99999e-01,9.93416e-01,9.98320e-01,7.86039e-01,9.99985e-01
8.081178486e-01,7.84400e-01,9.99999e-01,9.96970e-01,9.96208e-01,7.89786e-01,9.99986e-01
8.121584379e-01,7.80209e-01,9.99999e-01,9.99065e-01,9.84246e-01,7.93476e-01,9.99946e-01
8.162192301e-01,7.81925e-01,9.99999e-01,9.99793e-01,9.81345e-01,7.97110e-01,9.99800e-01
8.203003262e-01,7.92949e-01,9.99999e-01,9.99996e-01,9.90566e-01,8.00689e-01,9.99766e-01
8.244018279e-01,7.93508e-01,9.99999e-01,9.99999e-01,9.86873e-01,8.04212e-01,9.99814e-01
8.285238370e-01,7.98547e-01,9.99999e-01,9.99999e-01,9.88835e-01,8.07681e-01,9.99854e-01
8.326664562e-01,8.01896e-01,9.99999e-01,9.99999e-01,9.88717e-01,8.11095e-01,9.99939e-01
8.368297885e-01,8.07889e-01,9.99999e-01,9.99999e-01,9.91949e-01,8.14457e-01,9.99985e-01
8.410139374e-01,8.13845e-01,9.99999e-01,9.99999e-01,9.95213e-01,8.17765e-01,9.99991e-01
8.452190071e-01,8.19090e-01,9.99999e-01,9.99999e-01,9.97652e-01,8.21021e-01,9.99994e-01
8.494451021e-01,8.23099e-01,9.99999e-01,9.99999e-01,9.98637e-01,8.24225e-01,9.99995e-01
8.536923276e-01,8.26711e-01,9.99999e-01,9.99999e-01,9.99194e-01,8.27379e-01,9.99997e-01
8.579607893e-01,8.30069e-01,9.99999e-01,9.99999e-01,9.99503e-01,8.30481e-01,9.99998e-01
8.622505932e-01,8.33271e-01,9.99999e-01,9.99999e-01,9.99684e-01,8.33534e-01,9.99999e-01
8.665618462e-01,8.04794e-01,9.99999e-01,9.62237e-01,9.99804e-01,8.36537e-01,9.99999e-01
8.708946554e-01,7.23124e-01,9.99999e-01,8.61572e-01,9.99776e-01,8.39491e-01,9.99999e-01
8.752491287e-01,7.48448e-01,9.99999e-01,8.88735e-01,9.99700e-01,8.42398e-01,9.99999e-01
8.796253743e-01,7.92602e-01,9.99999e-01,9.38090e-01,9.99585e-01,8.45256e-01,9.99998e-01
8.840235012e-01,8.20207e-01,9.99999e-01,9.67605e-01,9.99526e-01,8.48068e-01,9.99996e-01
8.884436187e-01,8.38440e-01,9.99999e-01,9.87148e-01,9.98264e-01,8.50833e-01,9.99991e-01
8.928858368e-01,8.33643e-01,9.99999e-01,9.94777e-01,9.81831e-01,8.53552e-01,9.99952e-01
8.973502660e-01,8.27654e-01,9.99999e-01,9.98731e-01,9.68082e-01,8.56226e-01,9.99757e-01
9.018370173e-01,8.44334e-01,9.99999e-01,9.99859e-01,9.83601e-01,8.58855e-01,9.99619e-01
9.063462024e-01,8.45641e-01,9.99999e-01,9.96365e-01,9.85527e-01,8.61440e-01,9.99665e-01
9.108779334e-01,8.37357e-01,9.99999e-01,9.91760e-01,9.77536e-01,8.63982e-01,9.99652e-01
9.154323231e-01,8.42578e-01,9.99999e-01,9.98066e-01,9.74561e-01,8.66480e-01,9.99712e-01
9.200094847e-01,8.26960e-01,9.99999e-01,9.70848e-01,9.80011e-01,8.68937e-01,9.99838e-01
9.246095321e-01,8.10307e-01,9.99999e-01,9.60221e-01,9.68353e-01,8.71351e-01,9.99814e-01
9.292325798e-01,6.81424e-01,9.99999e-01,9.68418e-01,8.04716e-01,8.73725e-01,9.99278e-01
9.338787427e-01,6.40282e-01,9.99999e-01,9.69654e-01,7.54885e-01,8.76057e-01,9.97021e-01
9.385481364e-01,7.64812e-01,9.99999e-01,9.77672e-01,8.93304e-01,8.78350e-01,9.96458e-01
9.432408771e-01,7.38144e-01,9.99999e-01,9.86306e-01,8.52189e-01,8.80603e-01,9.96943e-01
9.479570815e-01,6.98586e-01,9.99999e-01,9.92950e-01,7.98778e-01,8.82818e-01,9.97511e-01
9.526968669e-01,7.46889e-01,9.99999e-01,9.96596e-01,8.48002e-01,8.84994e-01,9.98481e-01
9.574603512e-01,7.63550e-01,9.99999e-01,9.98544e-01,8.62581e-01,8.87132e-01,9.99228e-01
9.622476530e-01,7.88294e-01,9.99999e-01,9.99545e-01,8.87353e-01,8.89233e-01,9.99466e-01
9.670588912e-01,8.31705e-01,9.99999e-01,9.99863e-01,9.33604e-01,8.91298e-01,9.99634e-01
9.718941857e-01,8.55777e-01,9.99999e-01,9.99989e-01,9.58233e-01,8.93326e-01,9.99730e-01
9.767536566e-01,8.64004e-01,9.99999e-01,9.99999e-01,9.65221e-01,8.95318e-01,9.99794e-01
9.816374249e-01,8.74031e-01,9.99999e-01,9.99999e-01,9.74162e-01,8.97276e-01,9.99928e-01
9.865456120e-01,8.84617e-01,9.99999e-01,9.99999e-01,9.83796e-01,8.99199e-01,9.99984e-01
9.914783401e-01,8.92039e-01,9.99999e-01,9.99999e-01,9.89960e-01,9.01088e-01,9.99995e-01
9.964357318e-01,8.97996e-01,9.99999e-01,9.99999e-01,9.94522e-01,9.02944e-01,9.99997e-01
1.001417910e+00,9.01792e-01,9.99999e-01,9.99999e-01,9.96714e-01,9.04767e-01,9.99995e-01
1.006425000e+00,9.04854e-01,9.99999e-01,9.99999e-01,9.98125e-01,9.06557e-01,9.99994e-01
1.011457125e+00,9.07255e-01,9.99999e-01,9.99999e-01,9.98837e-01,9.08315e-01,9.99994e-01
1.016514411e+00,9.09321e-01,9.99999e-01,9.99999e-01,9.99210e-01,9.10042e-01,9.99996e-01
1.021596983e+00,9.11144e-01,9.99999e-01,9.99979e-01,9.99370e-01,9.11738e-01,9.99996e-01
1.026704968e+00,9.11664e-01,9.99999e-01,9.98586e-01,9.99508e-01,9.13404e-01,9.99997e-01
1.031838492e+00,8.93917e-01,9.99999e-01,9.77258e-01,9.99643e-01,9.15040e-01,9.99998e-01
1.036997685e+00,3.20332e-01,9.99999e-01,3.49525e-01,9.99787e-01,9.16646e-01,9.99999e-01
1.042182673e+00,3.97335e-01,9.99999e-01,4.32825e-01,9.99746e-01,9.18223e-01,9.99999e-01
1.047393587e+00,3.53625e-01,9.99999e-01,3.84588e-01,9.99664e-01,9.19772e-01,9.99999e-01
1.052630555e+00,7.93693e-02,9.99999e-01,8.61822e-02,9.99539e-01,9.21292e-01,9.99999e-01
1.057893707e+00,1.37529e-01,9.99999e-01,1.49131e-01,9.99231e-01,9.22785e-01,9.99999e-01
1.063183176e+00,2.34180e-01,9.99999e-01,2.53643e-01,9.98735e-01,9.24251e-01,9.99998e-01
1.068499092e+00,3.73346e-01,9.99999e-01,4.04109e-01,9.97883e-01,9.25690e-01,9.99998e-01
1.073841587e+00,5.22783e-01,9.99999e-01,5.65190e-01,9.97520e-01,9.27103e-01,9.99996e-01
1.079210795e+00,6.46270e-01,9.99999e-01,6.98185e-01,9.96826e-01,9.28490e-01,9.99991e-01
1.084606849e+00,7.61040e-01,9.99999e-01,8.22347e-01,9.95196e-01,9.29852e-01,9.99979e-01
1.090029883e+00,8.35773e-01,9.99999e-01,9.03748e-01,9.93091e-01,9.31189e-01,9.99957e-01
1.095480033e+00,8.70616e-01,9.99999e-01,9.51435e-01,9.81289e-01,9.32501e-01,9.99923e-01
1.100957433e+00,8.68807e-01,9.99999e-01,9.76340e-01,9.52999e-01,9.33789e-01,9.99859e-01
1.106462220e+00,8.18146e-01,9.99999e-01,9.90157e-01,8.83755e-01,9.35053e-01,9.99761e-01
1.111994531e+00,7.17766e-01,9.99999e-01,9.96342e-01,7.69820e-01,9.36295e-01,9.99368e-01
1.117554504e+00,6.10188e-01,9.99999e-01,9.99106e-01,6.52880e-01,9.37513e-01,9.97721e-01
1.123142276e+00,6.77380e-01,9.99999e-01,9.99941e-01,7.25552e-01,9.38708e-01,9.94606e-01
1.128757988e+00,7.63219e-01,9.99999e-01,9.99999e-01,8.17132e-01,9.39882e-01,9.93763e-01
1.134401778e+00,5.69541e-01,9.99999e-01,9.99999e-01,6.08457e-01,9.41034e-01,9.94694e-01
1.140073787e+00,8.33410e-01,9.99999e-01,9.99999e-01,8.88337e-01,9.42164e-01,9.95758e-01
1.145774156e+00,7.31481e-01,9.99999e-01,9.99999e-01,7.78492e-01,9.43273e-01,9.96116e-01
1.151503026e+00,7.11149e-01,9.99999e-01,9.99999e-01,7.54680e-01,9.44362e-01,9.97834e-01
1.157260541e+00,7.51275e-01,9.99999e-01,9.99999e-01,7.95153e-01,9.45430e-01,9.99351e-01
1.163046844e+00,7.99426e-01,9.99999e-01,9.99999e-01,8.44785e-01,9.46479e-01,9.99815e-01
1.168862078e+00,8.43441e-01,9.99999e-01,9.99999e-01,8.90251e-01,9.47508e-01,9.99904e-01
1.174706389e+00,8.82769e-01,9.99999e-01,9.99999e-01,9.30799e-01,9.48517e-01,9.99874e-01
1.180579921e+00,9.08825e-01,9.99999e-01,9.99999e-01,9.57334e-01,9.49508e-01,9.99809e-01
1.186482820e+00,9.27205e-01,9.99999e-01,9.99996e-01,9.75703e-01,9.50480e-01,9.99804e-01
1.192415234e+00,9.32992e-01,9.99999e-01,9.94904e-01,9.85759e-01,9.51434e-01,9.99853e-01
1.198377311e+00,5.65201e-01,9.99999e-01,5.99648e-01,9.87978e-01,9.52370e-01,9.99861e-01
1.204369197e+00,1.34902e-05,9.99999e-01,1.42467e-05,9.88613e-01,9.53289e-01,9.99874e-01
1.210391043e+00,1.19687e-16,9.99999e-01,1.26206e-16,9.89114e-01,9.54190e-01,9.99923e-01
1.216442998e+00,1.18479e-14,9.99999e-01,1.24776e-14,9.90737e-01,9.55074e-01,9.99953e-01
1.222525213e+00,2.03444e-14,9.99999e-01,2.13660e-14,9.92784e-01,9.55942e-01,9.99970e-01
1.228637839e+00,4.82581e-11,9.99999e-01,5.06211e-11,9.94985e-01,9.56793e-01,9.99986e-01
