#,Wave/freq,Total,N2,CO2,H2O,Rayleigh,CIA
4.000000000e-01,1.87276e-06,9.99999e-01,9.99999e-01,9.99974e-01,1.87281e-06,9.99999e-01
4.020000000e-01,2.43072e-06,9.99999e-01,9.99999e-01,9.99983e-01,2.43075e-06,9.99999e-01
4.040100000e-01,3.13786e-06,9.99999e-01,9.99999e-01,9.99992e-01,3.13788e-06,9.99999e-01
4.060300500e-01,4.03033e-06,9.99999e-01,9.99999e-01,9.99997e-01,4.03034e-06,9.99999e-01
4.080602003e-01,5.15109e-06,9.99999e-01,9.99999e-01,9.99999e-01,5.15109e-06,9.99999e-01
4.101005013e-01,6.55168e-06,9.99999e-01,9.99999e-01,9.99999e-01,6.55168e-06,9.99999e-01
4.121510038e-01,8.29358e-06,9.99999e-01,9.99999e-01,9.99998e-01,8.29359e-06,9.99999e-01
4.142117588e-01,1.04498e-05,9.99999e-01,9.99999e-01,9.99992e-01,1.04498e-05,9.99999e-01
4.162828176e-01,1.31063e-05,9.99999e-01,9.99999e-01,9.99968e-01,1.31067e-05,9.99999e-01
4.183642317e-01,1.63655e-05,9.99999e-01,9.99999e-01,9.99980e-01,1.63658e-05,9.99999e-01
4.204560528e-01,2.03455e-05,9.99999e-01,9.99999e-01,9.99988e-01,2.03457e-05,9.99999e-01
4.225583331e-01,2.51849e-05,9.99999e-01,9.99999e-01,9.99995e-01,2.51850e-05,9.99999e-01
4.246711247e-01,3.10441e-05,9.99999e-01,9.99999e-01,9.99996e-01,3.10442e-05,9.99999e-01
4.267944804e-01,3.81086e-05,9.99999e-01,9.99999e-01,9.99994e-01,3.81088e-05,9.99999e-01
4.289284528e-01,4.65918e-05,9.99999e-01,9.99999e-01,9.99995e-01,4.65920e-05,9.99999e-01
4.310730950e-01,5.67377e-05,9.99999e-01,9.99999e-01,9.99997e-01,5.67378e-05,9.99999e-01
4.332284605e-01,6.88247e-05,9.99999e-01,9.99999e-01,9.99999e-01,6.88247e-05,9.99999e-01
4.353946028e-01,8.31685e-05,9.99999e-01,9.99999e-01,9.99999e-01,8.31686e-05,9.99999e-01
4.375715758e-01,1.00126e-04,9.99999e-01,9.99999e-01,9.99996e-01,1.00127e-04,9.99999e-01
4.397594337e-01,1.20098e-04,9.99999e-01,9.99999e-01,9.99971e-01,1.20102e-04,9.99999e-01
4.419582309e-01,1.43525e-04,9.99999e-01,9.99999e-01,9.99858e-01,1.43545e-04,9.99999e-01
4.441680220e-01,1.70942e-04,9.99999e-01,9.99999e-01,9.99890e-01,1.70961e-04,9.99999e-01
4.463888621e-01,2.02888e-04,9.99999e-01,9.99999e-01,9.99885e-01,2.02911e-04,9.99999e-01
4.486208064e-01,2.40002e-04,9.99999e-01,9.99999e-01,9.99928e-01,2.40019e-04,9.99999e-01
4.508639105e-01,2.82964e-04,9.99999e-01,9.99999e-01,9.99966e-01,2.82973e-04,9.99999e-01
4.531182300e-01,3.32527e-04,9.99999e-01,9.99999e-01,9.99986e-01,3.32531e-04,9.99999e-01
4.553838212e-01,3.89521e-04,9.99999e-01,9.99999e-01,9.99990e-01,3.89524e-04,9.99999e-01
4.576607403e-01,4.54860e-04,9.99999e-01,9.99999e-01,9.99995e-01,4.54862e-04,9.99999e-01
4.599490440e-01,5.29534e-04,9.99999e-01,9.99999e-01,9.99996e-01,5.29535e-04,9.99999e-01
4.622487892e-01,6.14619e-04,9.99999e-01,9.99999e-01,9.99999e-01,6.14619e-04,9.99999e-01
4.645600332e-01,7.11276e-04,9.99999e-01,9.99999e-01,9.99997e-01,7.11278e-04,9.99999e-01
4.668828333e-01,8.20738e-04,9.99999e-01,9.99999e-01,9.99966e-01,8.20766e-04,9.99999e-01
4.692172475e-01,9.44365e-04,9.99999e-01,9.99999e-01,9.99928e-01,9.44433e-04,9.99999e-01
4.715633337e-01,1.08367e-03,9.99999e-01,9.99999e-01,9.99952e-01,1.08372e-03,9.99999e-01
4.739211504e-01,1.24013e-03,9.99999e-01,9.99999e-01,9.99954e-01,1.24019e-03,9.99999e-01
4.762907561e-01,1.41543e-03,9.99999e-01,9.99999e-01,9.99976e-01,1.41546e-03,9.99999e-01
4.786722099e-01,1.61128e-03,9.99999e-01,9.99999e-01,9.99990e-01,1.61129e-03,9.99999e-01
4.810655710e-01,1.82952e-03,9.99999e-01,9.99999e-01,9.99996e-01,1.82953e-03,9.99999e-01
4.834708988e-01,2.07206e-03,9.99999e-01,9.99999e-01,9.99971e-01,2.07212e-03,9.99999e-01
4.858882533e-01,2.34100e-03,9.99999e-01,9.99999e-01,9.99949e-01,2.34111e-03,9.99999e-01
4.883176946e-01,2.63855e-03,9.99999e-01,9.99999e-01,9.99957e-01,2.63866e-03,9.99999e-01
4.907592831e-01,2.96688e-03,9.99999e-01,9.99999e-01,9.99961e-01,2.96700e-03,9.99999e-01
4.932130795e-01,3.32838e-03,9.99999e-01,9.99999e-01,9.99972e-01,3.32847e-03,9.99999e-01
4.956791449e-01,3.72547e-03,9.99999e-01,9.99999e-01,9.99985e-01,3.72552e-03,9.99999e-01
4.981575406e-01,4.16036e-03,9.99999e-01,9.99999e-01,9.99927e-01,4.16066e-03,9.99999e-01
5.006483283e-01,4.63562e-03,9.99999e-01,9.99999e-01,9.99812e-01,4.63649e-03,9.99998e-01
5.031515699e-01,5.15078e-03,9.99999e-01,9.99999e-01,9.99055e-01,5.15570e-03,9.99989e-01
5.056673278e-01,5.71814e-03,9.99999e-01,9.99999e-01,9.99501e-01,5.72105e-03,9.99988e-01
5.081956644e-01,6.33134e-03,9.99999e-01,9.99999e-01,9.99371e-01,6.33536e-03,9.99992e-01
5.107366428e-01,6.99853e-03,9.99999e-01,9.99999e-01,9.99575e-01,7.00151e-03,9.99998e-01
5.132903260e-01,7.72057e-03,9.99999e-01,9.99999e-01,9.99757e-01,7.72244e-03,9.99999e-01
5.158567776e-01,8.50026e-03,9.99999e-01,9.99999e-01,9.99897e-01,8.50113e-03,9.99999e-01
5.184360615e-01,9.34021e-03,9.99999e-01,9.99999e-01,9.99958e-01,9.34059e-03,9.99999e-01
5.210282418e-01,1.02437e-02,9.99999e-01,9.99999e-01,9.99984e-01,1.02439e-02,9.99999e-01
5.236333830e-01,1.12134e-02,9.99999e-01,9.99999e-01,9.99938e-01,1.12141e-02,9.99999e-01
5.262515499e-01,1.22537e-02,9.99999e-01,9.99999e-01,9.99961e-01,1.22542e-02,9.99998e-01
5.288828077e-01,1.33669e-02,9.99999e-01,9.99999e-01,9.99964e-01,1.33674e-02,9.99999e-01
5.315272217e-01,1.45562e-02,9.99999e-01,9.99999e-01,9.99968e-01,1.45566e-02,9.99999e-01
5.341848578e-01,1.58247e-02,9.99999e-01,9.99999e-01,9.99979e-01,1.58251e-02,9.99999e-01
5.368557821e-01,1.71744e-02,9.99999e-01,9.99999e-01,9.99927e-01,1.71756e-02,9.99999e-01
5.395400610e-01,1.86065e-02,9.99999e-01,9.99999e-01,9.99740e-01,1.86113e-02,9.99997e-01
5.422377613e-01,2.01283e-02,9.99999e-01,9.99999e-01,9.99665e-01,2.01351e-02,9.99993e-01
5.449489501e-01,2.17429e-02,9.99999e-01,9.99999e-01,9.99688e-01,2.17498e-02,9.99993e-01
5.476736949e-01,2.34517e-02,9.99999e-01,9.99999e-01,9.99724e-01,2.34582e-02,9.99996e-01
5.504120634e-01,2.52579e-02,9.99999e-01,9.99999e-01,9.99800e-01,2.52630e-02,9.99998e-01
5.531641237e-01,2.71642e-02,9.99999e-01,9.99999e-01,9.99899e-01,2.71669e-02,9.99999e-01
5.559299443e-01,2.91709e-02,9.99999e-01,9.99999e-01,9.99951e-01,2.91723e-02,9.99999e-01
5.587095940e-01,3.12809e-02,9.99999e-01,9.99999e-01,9.99969e-01,3.12818e-02,9.99999e-01
5.615031420e-01,3.34965e-02,9.99999e-01,9.99999e-01,9.99965e-01,3.34976e-02,9.99999e-01
5.643106577e-01,3.58205e-02,9.99999e-01,9.99999e-01,9.99961e-01,3.58219e-02,9.99999e-01
5.671322110e-01,3.82386e-02,9.99999e-01,9.99999e-01,9.99530e-01,3.82567e-02,9.99995e-01
5.699678720e-01,4.07833e-02,9.99999e-01,9.99999e-01,9.99504e-01,4.08040e-02,9.99986e-01
5.728177114e-01,4.34426e-02,9.99999e-01,9.99999e-01,9.99482e-01,4.34655e-02,9.99988e-01
5.756818000e-01,4.62206e-02,9.99999e-01,9.99999e-01,9.99525e-01,4.62428e-02,9.99993e-01
5.785602090e-01,4.91171e-02,9.99999e-01,9.99999e-01,9.99586e-01,4.91375e-02,9.99997e-01
5.814530100e-01,5.21291e-02,9.99999e-01,9.99999e-01,9.99584e-01,5.21508e-02,9.99998e-01
5.843602750e-01,5.52563e-02,9.99999e-01,9.99999e-01,9.99503e-01,5.52839e-02,9.99996e-01
5.872820764e-01,5.82859e-02,9.99999e-01,9.99999e-01,9.95729e-01,5.85376e-02,9.99969e-01
5.902184868e-01,6.15885e-02,9.99999e-01,9.99999e-01,9.94840e-01,6.19129e-02,9.99917e-01
5.931695792e-01,6.51666e-02,9.99999e-01,9.99999e-01,9.96350e-01,6.54104e-02,9.99921e-01
5.961354271e-01,6.87514e-02,9.99999e-01,9.99999e-01,9.96002e-01,6.90304e-02,9.99954e-01
5.991161043e-01,7.25602e-02,9.99999e-01,9.99999e-01,9.97084e-01,7.27733e-02,9.99985e-01
6.021116848e-01,7.65124e-02,9.99999e-01,9.99999e-01,9.98345e-01,7.66392e-02,9.99997e-01
6.051222432e-01,8.05605e-02,9.99999e-01,9.99999e-01,9.99162e-01,8.06280e-02,9.99999e-01
6.081478544e-01,8.47088e-02,9.99999e-01,9.99999e-01,9.99638e-01,8.47394e-02,9.99999e-01
6.111885937e-01,8.89595e-02,9.99999e-01,9.99999e-01,9.99846e-01,8.89731e-02,9.99999e-01
6.142445367e-01,9.33219e-02,9.99999e-01,9.99999e-01,9.99931e-01,9.33283e-02,9.99999e-01
6.173157594e-01,9.78007e-02,9.99999e-01,9.99999e-01,9.99961e-01,9.78043e-02,9.99999e-01
6.204023382e-01,1.02397e-01,9.99999e-01,9.99999e-01,9.99967e-01,1.02400e-01,9.99999e-01
6.235043498e-01,1.07100e-01,9.99999e-01,9.99999e-01,9.99858e-01,1.07115e-01,9.99999e-01
6.266218716e-01,1.11863e-01,9.99999e-01,9.99999e-01,9.99256e-01,1.11947e-01,9.99994e-01
6.297549810e-01,1.16862e-01,9.99999e-01,9.99999e-01,9.99726e-01,1.16895e-01,9.99989e-01
6.329037559e-01,1.21891e-01,9.99999e-01,9.99999e-01,9.99461e-01,1.21958e-01,9.99991e-01
6.360682746e-01,1.27075e-01,9.99999e-01,9.99999e-01,9.99540e-01,1.27134e-01,9.99994e-01
6.392486160e-01,1.32341e-01,9.99999e-01,9.99999e-01,9.99404e-01,1.32420e-01,9.99997e-01
6.424448591e-01,1.37705e-01,9.99999e-01,9.99999e-01,9.99201e-01,1.37815e-01,9.99996e-01
6.456570834e-01,1.42784e-01,9.99999e-01,9.99999e-01,9.96298e-01,1.43317e-01,9.99979e-01
6.488853688e-01,1.48513e-01,9.99999e-01,9.99999e-01,9.97297e-01,1.48923e-01,9.99942e-01
6.521297956e-01,1.54199e-01,9.99999e-01,9.99999e-01,9.97245e-01,1.54632e-01,9.99952e-01
6.553904446e-01,1.59994e-01,9.99999e-01,9.99999e-01,9.97254e-01,1.60440e-01,9.99964e-01
6.586673968e-01,1.65952e-01,9.99999e-01,9.99999e-01,9.97651e-01,1.66345e-01,9.99987e-01
6.619607338e-01,1.72118e-01,9.99999e-01,9.99999e-01,9.98690e-01,1.72344e-01,9.99996e-01
6.652705375e-01,1.78294e-01,9.99999e-01,9.99999e-01,9.99214e-01,1.78435e-01,9.99998e-01
6.685968902e-01,1.84547e-01,9.99999e-01,9.99999e-01,9.99634e-01,1.84614e-01,9.99999e-01
6.719398746e-01,1.90847e-01,9.99999e-01,9.99999e-01,9.99830e-01,1.90879e-01,9.99999e-01
6.752995740e-01,1.97208e-01,9.99999e-01,9.99999e-01,9.99907e-01,1.97226e-01,9.99999e-01
6.786760719e-01,2.03626e-01,9.99999e-01,9.99999e-01,9.99866e-01,2.03653e-01,9.99999e-01
6.820694522e-01,2.10108e-01,9.99999e-01,9.99999e-01,9.99772e-01,2.10156e-01,9.99998e-01
6.854797995e-01,2.16668e-01,9.99999e-01,9.99999e-01,9.99707e-01,2.16732e-01,9.99996e-01
6.889071985e-01,2.23218e-01,9.99999e-01,9.99999e-01,9.99288e-01,2.23378e-01,9.99993e-01
6.923517345e-01,2.27422e-01,9.99999e-01,9.99999e-01,9.88459e-01,2.30090e-01,9.99944e-01
6.958134932e-01,2.35421e-01,9.99999e-01,9.99999e-01,9.94020e-01,2.36866e-01,9.99876e-01
6.992925606e-01,2.42282e-01,9.99999e-01,9.99999e-01,9.94284e-01,2.43701e-01,9.99889e-01
7.027890234e-01,2.48809e-01,9.99999e-01,9.99999e-01,9.92963e-01,2.50593e-01,9.99915e-01
7.063029686e-01,2.56002e-01,9.99999e-01,9.99999e-01,9.94080e-01,2.57538e-01,9.99957e-01
7.098344834e-01,2.63023e-01,9.99999e-01,9.99999e-01,9.94319e-01,2.64532e-01,9.99974e-01
7.133836558e-01,2.69497e-01,9.99999e-01,9.99999e-01,9.92407e-01,2.71572e-01,9.99950e-01
7.169505741e-01,2.61999e-01,9.99999e-01,9.99999e-01,9.40590e-01,2.78655e-01,9.99611e-01
7.205353270e-01,2.77196e-01,9.99999e-01,9.99999e-01,9.70633e-01,2.85778e-01,9.99314e-01
7.241380036e-01,2.81837e-01,9.99999e-01,9.99999e-01,9.62677e-01,2.92937e-01,9.99407e-01
7.277586936e-01,2.89864e-01,9.99999e-01,9.99999e-01,9.66269e-01,3.00128e-01,9.99515e-01
7.313974871e-01,2.96288e-01,9.99999e-01,9.99999e-01,9.64233e-01,3.07348e-01,9.99772e-01
7.350544745e-01,3.08373e-01,9.99999e-01,9.99999e-01,9.80299e-01,3.14595e-01,9.99920e-01
7.387297469e-01,3.17176e-01,9.99999e-01,9.99999e-01,9.85471e-01,3.21864e-01,9.99963e-01
7.424233956e-01,3.26804e-01,9.99999e-01,9.99999e-01,9.92872e-01,3.29152e-01,9.99992e-01
7.461355126e-01,3.35001e-01,9.99999e-01,9.99999e-01,9.95673e-01,3.36457e-01,9.99998e-01
7.498661902e-01,3.43082e-01,9.99999e-01,9.99999e-01,9.97985e-01,3.43774e-01,9.99999e-01
7.536155211e-01,3.50755e-01,9.99999e-01,9.99999e-01,9.99010e-01,3.51102e-01,9.99999e-01
7.573835987e-01,3.58254e-01,9.99999e-01,9.99999e-01,9.99490e-01,3.58436e-01,9.99999e-01
7.611705167e-01,3.65659e-01,9.99999e-01,9.99999e-01,9.99683e-01,3.65775e-01,9.99999e-01
7.649763693e-01,3.73040e-01,9.99999e-01,9.99999e-01,9.99801e-01,3.73114e-01,9.99999e-01
7.688012511e-01,3.80398e-01,9.99999e-01,9.99999e-01,9.99861e-01,3.80451e-01,9.99999e-01
7.726452574e-01,3.87739e-01,9.99999e-01,9.99999e-01,9.99885e-01,3.87783e-01,9.99999e-01
7.765084837e-01,3.95043e-01,9.99999e-01,9.99999e-01,9.99837e-01,3.95107e-01,9.99999e-01
7.803910261e-01,3.85433e-01,9.99999e-01,9.58431e-01,9.99299e-01,4.02421e-01,9.99998e-01
7.842929812e-01,3.38941e-01,9.99999e-01,8.29157e-01,9.97556e-01,4.09722e-01,9.99995e-01
7.882144461e-01,3.39539e-01,9.99999e-01,8.18162e-01,9.94982e-01,4.17007e-01,9.99965e-01
7.921555184e-01,3.76064e-01,9.99999e-01,8.88795e-01,9.97250e-01,4.24274e-01,9.99939e-01
7.961162960e-01,3.96865e-01,9.99999e-01,9.24192e-01,9.95128e-01,4.31521e-01,9.99942e-01
8.000968774e-01,4.18000e-01,9.99999e-01,9.58138e-01,9.94384e-01,4.38744e-01,9.99938e-01
8.040973618e-01,4.33720e-01,9.99999e-01,9.78119e-01,9.94380e-01,4.45942e-01,9.99953e-01
8.081178486e-01,4.42843e-01,9.99999e-01,9.89882e-01,9.87347e-01,4.53112e-01,9.99952e-01
8.121584379e-01,4.35036e-01,9.99999e-01,9.96874e-01,9.48305e-01,4.60253e-01,9.99822e-01
8.162192301e-01,4.38307e-01,9.99999e-01,9.99308e-01,9.39091e-01,4.67362e-01,9.99332e-01
8.203003262e-01,4.59399e-01,9.99999e-01,9.99989e-01,9.69068e-01,4.74437e-01,9.99219e-01
8.244018279e-01,4.60651e-01,9.99999e-01,9.99999e-01,9.57342e-01,4.81476e-01,9.99378e-01
8.285238370e-01,4.70242e-01,9.99999e-01,9.99999e-01,9.63137e-01,4.88478e-01,9.99511e-01
8.326664562e-01,4.76907e-01,9.99999e-01,9.99999e-01,9.62787e-01,4.95440e-01,9.99797e-01
8.368297885e-01,4.88923e-01,9.99999e-01,9.99999e-01,9.73294e-01,5.02360e-01,9.99953e-01
8.410139374e-01,5.01105e-01,9.99999e-01,9.99999e-01,9.84053e-01,5.09238e-01,9.99972e-01
8.452190071e-01,5.12015e-01,9.99999e-01,9.99999e-01,9.92154e-01,5.16072e-01,9.99983e-01
8.494451021e-01,5.20467e-01,9.99999e-01,9.99999e-01,9.95437e-01,5.22859e-01,9.99986e-01
8.536923276e-01,5.28167e-01,9.99999e-01,9.99999e-01,9.97302e-01,5.29599e-01,9.99991e-01
8.579607893e-01,5.35398e-01,9.99999e-01,9.99999e-01,9.98336e-01,5.36291e-01,9.99997e-01
8.622505932e-01,5.42358e-01,9.99999e-01,9.99999e-01,9.98943e-01,5.42932e-01,9.99999e-01
8.665618462e-01,5.02125e-01,9.99999e-01,9.14319e-01,9.99345e-01,5.49521e-01,9.99999e-01
8.708946554e-01,3.45874e-01,9.99999e-01,6.22455e-01,9.99250e-01,5.56059e-01,9.99999e-01
8.752491287e-01,3.83037e-01,9.99999e-01,6.81563e-01,9.98997e-01,5.62542e-01,9.99998e-01
8.796253743e-01,4.59942e-01,9.99999e-01,8.09461e-01,9.98611e-01,5.68971e-01,9.99996e-01
8.840235012e-01,5.14669e-01,9.99999e-01,8.95944e-01,9.98414e-01,5.75344e-01,9.99989e-01
8.884436187e-01,5.53814e-01,9.99999e-01,9.57643e-01,9.94195e-01,5.81661e-01,9.99972e-01
8.928858368e-01,5.43433e-01,9.99999e-01,9.82610e-01,9.40661e-01,5.87920e-01,9.99841e-01
8.973502660e-01,5.30700e-01,9.99999e-01,9.95758e-01,8.97690e-01,5.94120e-01,9.99188e-01
9.018370173e-01,5.67176e-01,9.99999e-01,9.99531e-01,9.46511e-01,6.00262e-01,9.98724e-01
9.063462024e-01,5.70248e-01,9.99999e-01,9.87946e-01,9.52562e-01,6.06344e-01,9.98879e-01
9.108779334e-01,5.51811e-01,9.99999e-01,9.72684e-01,9.27107e-01,6.12366e-01,9.98836e-01
9.154323231e-01,5.63294e-01,9.99999e-01,9.93542e-01,9.17643e-01,6.18327e-01,9.99037e-01
9.200094847e-01,5.33548e-01,9.99999e-01,9.10776e-01,9.34963e-01,6.24226e-01,9.99461e-01
9.246095321e-01,4.96337e-01,9.99999e-01,8.73268e-01,8.99980e-01,6.30064e-01,9.99379e-01
9.292325798e-01,2.87992e-01,9.99999e-01,8.99166e-01,4.98278e-01,6.35839e-01,9.97582e-01
9.338787427e-01,2.37361e-01,9.99999e-01,9.02500e-01,4.08852e-01,6.41552e-01,9.90045e-01
9.385481364e-01,4.15339e-01,9.99999e-01,9.27307e-01,6.96673e-01,6.47201e-01,9.88171e-01
9.432408771e-01,3.75264e-01,9.99999e-01,9.54864e-01,6.06393e-01,6.52787e-01,9.89786e-01
9.479570815e-01,3.21505e-01,9.99999e-01,9.76567e-01,5.03518e-01,6.58310e-01,9.91679e-01
9.526968669e-01,3.89438e-01,9.99999e-01,9.88642e-01,5.95771e-01,6.63769e-01,9.94916e-01
9.574603512e-01,4.10597e-01,9.99999e-01,9.95129e-01,6.17953e-01,6.69164e-01,9.97414e-01
9.622476530e-01,4.54025e-01,9.99999e-01,9.98478e-01,6.75291e-01,6.74495e-01,9.98211e-01
9.670588912e-01,5.40973e-01,9.99999e-01,9.99544e-01,7.97141e-01,6.79762e-01,9.98776e-01
9.718941857e-01,5.93568e-01,9.99999e-01,9.99967e-01,8.67373e-01,6.84965e-01,9.99098e-01
9.767536566e-01,6.12780e-01,9.99999e-01,9.99999e-01,8.88565e-01,6.90103e-01,9.99311e-01
9.816374249e-01,6.36763e-01,9.99999e-01,9.99999e-01,9.16188e-01,6.95178e-01,9.99761e-01
9.865456120e-01,6.62889e-01,9.99999e-01,9.99999e-01,9.46775e-01,7.00188e-01,9.99949e-01
9.914783401e-01,6.81681e-01,9.99999e-01,9.99999e-01,9.66751e-01,7.05135e-01,9.99985e-01
9.964357318e-01,6.97061e-01,9.99999e-01,9.99999e-01,9.81758e-01,7.10018e-01,9.99991e-01
1.001417910e+00,7.06987e-01,9.99999e-01,9.99999e-01,9.89029e-01,7.14837e-01,9.99987e-01
1.006425000e+00,7.15068e-01,9.99999e-01,9.99999e-01,9.93729e-01,7.19593e-01,9.99982e-01
1.011457125e+00,7.21454e-01,9.99999e-01,9.99999e-01,9.96106e-01,7.24285e-01,9.99983e-01
1.016514411e+00,7.26979e-01,9.99999e-01,9.99999e-01,9.97354e-01,7.28915e-01,9.99988e-01
1.021596983e+00,7.31878e-01,9.99999e-01,9.99933e-01,9.97890e-01,7.33482e-01,9.99987e-01
1.026704968e+00,7.33287e-01,9.99999e-01,9.95273e-01,9.98354e-01,7.37986e-01,9.99991e-01
1.031838492e+00,7.02487e-01,9.99999e-01,9.47295e-01,9.98804e-01,7.42428e-01,9.99997e-01
1.036997685e+00,9.23760e-02,9.99999e-01,1.23763e-01,9.99289e-01,7.46809e-01,9.99999e-01
1.042182673e+00,5.58885e-02,9.99999e-01,7.44607e-02,9.99151e-01,7.51128e-01,9.99999e-01
1.047393587e+00,7.44853e-02,9.99999e-01,9.87026e-02,9.98876e-01,7.55386e-01,9.99999e-01
1.052630555e+00,9.89926e-04,9.99999e-01,1.30468e-03,9.98457e-01,7.59583e-01,9.99999e-01
1.057893707e+00,2.83354e-03,9.99999e-01,3.71632e-03,9.97424e-01,7.63720e-01,9.99998e-01
1.063183176e+00,1.20897e-02,9.99999e-01,1.57919e-02,9.95766e-01,7.67797e-01,9.99997e-01
1.068499092e+00,4.10139e-02,9.99999e-01,5.34472e-02,9.92921e-01,7.71815e-01,9.99994e-01
1.073841587e+00,1.20696e-01,9.99999e-01,1.56661e-01,9.91715e-01,7.75774e-01,9.99989e-01
1.079210795e+00,2.38704e-01,9.99999e-01,3.09091e-01,9.89404e-01,7.79674e-01,9.99971e-01
1.084606849e+00,4.03325e-01,9.99999e-01,5.22698e-01,9.83993e-01,7.83516e-01,9.99931e-01
1.090029883e+00,5.49318e-01,9.99999e-01,7.13650e-01,9.77048e-01,7.87301e-01,9.99858e-01
1.095480033e+00,6.29209e-01,9.99999e-01,8.46851e-01,9.38725e-01,7.91029e-01,9.99743e-01
1.100957433e+00,6.25083e-01,9.99999e-01,9.22983e-01,8.51715e-01,7.94700e-01,9.99529e-01
1.106462220e+00,5.15130e-01,9.99999e-01,9.67411e-01,6.66565e-01,7.98315e-01,9.99201e-01
1.111994531e+00,3.39421e-01,9.99999e-01,9.87794e-01,4.28965e-01,8.01875e-01,9.97883e-01
1.117554504e+00,2.04733e-01,9.99999e-01,9.97011e-01,2.56756e-01,8.05380e-01,9.92379e-01
1.123142276e+00,2.97945e-01,9.99999e-01,9.99803e-01,3.75138e-01,8.08831e-01,9.82024e-01
1.128757988e+00,4.19457e-01,9.99999e-01,9.99999e-01,5.27379e-01,8.12227e-01,9.79234e-01
1.134401778e+00,2.24026e-01,9.99999e-01,9.99999e-01,2.79631e-01,8.15571e-01,9.82315e-01
1.140073787e+00,5.48620e-01,9.99999e-01,9.99999e-01,6.79597e-01,8.18862e-01,9.85844e-01
1.145774156e+00,3.66604e-01,9.99999e-01,9.99999e-01,4.51793e-01,8.22100e-01,9.87034e-01
1.151503026e+00,3.39421e-01,9.99999e-01,9.99999e-01,4.14276e-01,8.25288e-01,9.92756e-01
1.157260541e+00,3.91396e-01,9.99999e-01,9.99999e-01,4.73487e-01,8.28424e-01,9.97828e-01
1.163046844e+00,4.77659e-01,9.99999e-01,9.99999e-01,5.74801e-01,8.31510e-01,9.99383e-01
1.168862078e+00,5.66631e-01,9.99999e-01,9.99999e-01,6.79184e-01,8.34546e-01,9.99682e-01
1.174706389e+00,6.59307e-01,9.99999e-01,9.99999e-01,7.87533e-01,8.37532e-01,9.99578e-01
1.180579921e+00,7.26159e-01,9.99999e-01,9.99999e-01,8.64540e-01,8.40471e-01,9.99363e-01
1.186482820e+00,7.76185e-01,9.99999e-01,9.99990e-01,9.20956e-01,8.43361e-01,9.99346e-01
1.192415234e+00,7.92796e-01,9.99999e-01,9.83272e-01,9.53064e-01,8.46203e-01,9.99510e-01
1.198377311e+00,4.55320e-01,9.99999e-01,5.55019e-01,9.60275e-01,8.48999e-01,9.99537e-01
1.204369197e+00,1.68451e-13,9.99999e-01,2.02283e-13,9.62392e-01,8.51749e-01,9.99581e-01
1.210391043e+00,1.50389e-50,9.99999e-01,1.79670e-50,9.64001e-01,8.54453e-01,9.99745e-01
1.216442998e+00,6.35204e-44,9.99999e-01,7.55648e-44,9.69313e-01,8.57112e-01,9.99843e-01
1.222525213e+00,2.78647e-43,9.99999e-01,3.28219e-43,9.76020e-01,8.59726e-01,9.99902e-01
1.228637839e+00,1.58632e-33,9.99999e-01,1.86115e-33,9.83286e-01,8.62296e-01,9.99954e-01
