#,Wave/freq,Total,N2,CO2,H2O,Rayleigh,CIA
4.000000000e-01,1.34781e-03,9.99999e-01,9.99999e-01,9.99986e-01,1.34783e-03,9.99999e-01
4.020000000e-01,1.53597e-03,9.99999e-01,9.99999e-01,9.99991e-01,1.53599e-03,9.99999e-01
4.040100000e-01,1.74567e-03,9.99999e-01,9.99999e-01,9.99996e-01,1.74567e-03,9.99999e-01
4.060300500e-01,1.97898e-03,9.99999e-01,9.99999e-01,9.99998e-01,1.97898e-03,9.99999e-01
4.080602003e-01,2.23791e-03,9.99999e-01,9.99999e-01,9.99999e-01,2.23791e-03,9.99999e-01
4.101005013e-01,2.52459e-03,9.99999e-01,9.99999e-01,9.99999e-01,2.52459e-03,9.99999e-01
4.121510038e-01,2.84121e-03,9.99999e-01,9.99999e-01,9.99999e-01,2.84121e-03,9.99999e-01
4.142117588e-01,3.19008e-03,9.99999e-01,9.99999e-01,9.99995e-01,3.19009e-03,9.99999e-01
4.162828176e-01,3.57357e-03,9.99999e-01,9.99999e-01,9.99983e-01,3.57362e-03,9.99999e-01
4.183642317e-01,3.99427e-03,9.99999e-01,9.99999e-01,9.99990e-01,3.99430e-03,9.99999e-01
4.204560528e-01,4.45468e-03,9.99999e-01,9.99999e-01,9.99993e-01,4.45470e-03,9.99999e-01
4.225583331e-01,4.95746e-03,9.99999e-01,9.99999e-01,9.99997e-01,4.95747e-03,9.99999e-01
4.246711247e-01,5.50534e-03,9.99999e-01,9.99999e-01,9.99997e-01,5.50534e-03,9.99999e-01
4.267944804e-01,6.10111e-03,9.99999e-01,9.99999e-01,9.99997e-01,6.10112e-03,9.99999e-01
4.289284528e-01,6.74765e-03,9.99999e-01,9.99999e-01,9.99997e-01,6.74766e-03,9.99999e-01
4.310730950e-01,7.44788e-03,9.99999e-01,9.99999e-01,9.99998e-01,7.44788e-03,9.99999e-01
4.332284605e-01,8.20475e-03,9.99999e-01,9.99999e-01,9.99999e-01,8.20475e-03,9.99999e-01
4.353946028e-01,9.02127e-03,9.99999e-01,9.99999e-01,9.99999e-01,9.02127e-03,9.99999e-01
4.375715758e-01,9.90047e-03,9.99999e-01,9.99999e-01,9.99997e-01,9.90048e-03,9.99999e-01
4.397594337e-01,1.08453e-02,9.99999e-01,9.99999e-01,9.99985e-01,1.08454e-02,9.99999e-01
4.419582309e-01,1.18584e-02,9.99999e-01,9.99999e-01,9.99927e-01,1.18592e-02,9.99999e-01
4.441680220e-01,1.29442e-02,9.99999e-01,9.99999e-01,9.99945e-01,1.29449e-02,9.99999e-01
4.463888621e-01,1.41047e-02,9.99999e-01,9.99999e-01,9.99942e-01,1.41055e-02,9.99999e-01
4.486208064e-01,1.53436e-02,9.99999e-01,9.99999e-01,9.99964e-01,1.53442e-02,9.99999e-01
4.508639105e-01,1.66636e-02,9.99999e-01,9.99999e-01,9.99983e-01,1.66638e-02,9.99999e-01
4.531182300e-01,1.80674e-02,9.99999e-01,9.99999e-01,9.99993e-01,1.80676e-02,9.99999e-01
4.553838212e-01,1.95582e-02,9.99999e-01,9.99999e-01,9.99995e-01,1.95582e-02,9.99999e-01
4.576607403e-01,2.11388e-02,9.99999e-01,9.99999e-01,9.99997e-01,2.11388e-02,9.99999e-01
4.599490440e-01,2.28120e-02,9.99999e-01,9.99999e-01,9.99998e-01,2.28120e-02,9.99999e-01
4.622487892e-01,2.45807e-02,9.99999e-01,9.99999e-01,9.99999e-01,2.45807e-02,9.99999e-01
4.645600332e-01,2.64474e-02,9.99999e-01,9.99999e-01,9.99998e-01,2.64475e-02,9.99999e-01
4.668828333e-01,2.84144e-02,9.99999e-01,9.99999e-01,9.99982e-01,2.84149e-02,9.99999e-01
4.692172475e-01,3.04843e-02,9.99999e-01,9.99999e-01,9.99963e-01,3.04854e-02,9.99999e-01
4.715633337e-01,3.26607e-02,9.99999e-01,9.99999e-01,9.99976e-01,3.26614e-02,9.99999e-01
4.739211504e-01,3.49444e-02,9.99999e-01,9.99999e-01,9.99977e-01,3.49451e-02,9.99999e-01
4.762907561e-01,3.73382e-02,9.99999e-01,9.99999e-01,9.99987e-01,3.73386e-02,9.99999e-01
4.786722099e-01,3.98437e-02,9.99999e-01,9.99999e-01,9.99994e-01,3.98439e-02,9.99999e-01
4.810655710e-01,4.24627e-02,9.99999e-01,9.99999e-01,9.99998e-01,4.24628e-02,9.99999e-01
4.834708988e-01,4.51962e-02,9.99999e-01,9.99999e-01,9.99985e-01,4.51969e-02,9.99999e-01
4.858882533e-01,4.80466e-02,9.99999e-01,9.99999e-01,9.99974e-01,4.80478e-02,9.99999e-01
4.883176946e-01,5.10158e-02,9.99999e-01,9.99999e-01,9.99978e-01,5.10168e-02,9.99999e-01
4.907592831e-01,5.41042e-02,9.99999e-01,9.99999e-01,9.99980e-01,5.41052e-02,9.99999e-01
4.932130795e-01,5.73133e-02,9.99999e-01,9.99999e-01,9.99985e-01,5.73140e-02,9.99999e-01
4.956791449e-01,6.06436e-02,9.99999e-01,9.99999e-01,9.99992e-01,6.06441e-02,9.99999e-01
4.981575406e-01,6.40937e-02,9.99999e-01,9.99999e-01,9.99963e-01,6.40961e-02,9.99999e-01
5.006483283e-01,6.76641e-02,9.99999e-01,9.99999e-01,9.99904e-01,6.76705e-02,9.99998e-01
5.031515699e-01,7.13335e-02,9.99999e-01,9.99999e-01,9.99525e-01,7.13677e-02,9.99994e-01
5.056673278e-01,7.51688e-02,9.99999e-01,9.99999e-01,9.99750e-01,7.51879e-02,9.99993e-01
5.081956644e-01,7.91059e-02,9.99999e-01,9.99999e-01,9.99685e-01,7.91311e-02,9.99996e-01
5.107366428e-01,8.31793e-02,9.99999e-01,9.99999e-01,9.99787e-01,8.31969e-02,9.99998e-01
5.132903260e-01,8.73746e-02,9.99999e-01,9.99999e-01,9.99878e-01,8.73852e-02,9.99999e-01
5.158567776e-01,9.16906e-02,9.99999e-01,9.99999e-01,9.99948e-01,9.16953e-02,9.99999e-01
5.184360615e-01,9.61246e-02,9.99999e-01,9.99999e-01,9.99979e-01,9.61265e-02,9.99999e-01
5.210282418e-01,1.00677e-01,9.99999e-01,9.99999e-01,9.99991e-01,1.00678e-01,9.99999e-01
5.236333830e-01,1.05345e-01,9.99999e-01,9.99999e-01,9.99968e-01,1.05349e-01,9.99999e-01
5.262515499e-01,1.10135e-01,9.99999e-01,9.99999e-01,9.99980e-01,1.10137e-01,9.99999e-01
5.288828077e-01,1.15041e-01,9.99999e-01,9.99999e-01,9.99981e-01,1.15043e-01,9.99999e-01
5.315272217e-01,1.20061e-01,9.99999e-01,9.99999e-01,9.99984e-01,1.20063e-01,9.99999e-01
5.341848578e-01,1.25195e-01,9.99999e-01,9.99999e-01,9.99989e-01,1.25197e-01,9.99999e-01
5.368557821e-01,1.30437e-01,9.99999e-01,9.99999e-01,9.99963e-01,1.30442e-01,9.99999e-01
5.395400610e-01,1.35779e-01,9.99999e-01,9.99999e-01,9.99867e-01,1.35797e-01,9.99998e-01
5.422377613e-01,1.41236e-01,9.99999e-01,9.99999e-01,9.99832e-01,1.41260e-01,9.99996e-01
5.449489501e-01,1.46804e-01,9.99999e-01,9.99999e-01,9.99842e-01,1.46827e-01,9.99996e-01
5.476736949e-01,1.52477e-01,9.99999e-01,9.99999e-01,9.99862e-01,1.52498e-01,9.99997e-01
5.504120634e-01,1.58254e-01,9.99999e-01,9.99999e-01,9.99899e-01,1.58270e-01,9.99999e-01
5.531641237e-01,1.64131e-01,9.99999e-01,9.99999e-01,9.99949e-01,1.64139e-01,9.99999e-01
5.559299443e-01,1.70099e-01,9.99999e-01,9.99999e-01,9.99975e-01,1.70103e-01,9.99999e-01
5.587095940e-01,1.76158e-01,9.99999e-01,9.99999e-01,9.99984e-01,1.76160e-01,9.99999e-01
5.615031420e-01,1.82304e-01,9.99999e-01,9.99999e-01,9.99982e-01,1.82307e-01,9.99999e-01
5.643106577e-01,1.88537e-01,9.99999e-01,9.99999e-01,9.99979e-01,1.88540e-01,9.99999e-01
5.671322110e-01,1.94810e-01,9.99999e-01,9.99999e-01,9.99759e-01,1.94857e-01,9.99997e-01
5.699678720e-01,2.01204e-01,9.99999e-01,9.99999e-01,9.99753e-01,2.01255e-01,9.99993e-01
5.728177114e-01,2.07675e-01,9.99999e-01,9.99999e-01,9.99739e-01,2.07730e-01,9.99994e-01
5.756818000e-01,2.14228e-01,9.99999e-01,9.99999e-01,9.99761e-01,2.14279e-01,9.99996e-01
5.785602090e-01,2.20854e-01,9.99999e-01,9.99999e-01,9.99792e-01,2.20900e-01,9.99998e-01
5.814530100e-01,2.27540e-01,9.99999e-01,9.99999e-01,9.99791e-01,2.27588e-01,9.99999e-01
5.843602750e-01,2.34281e-01,9.99999e-01,9.99999e-01,9.99748e-01,2.34340e-01,9.99998e-01
5.872820764e-01,2.40629e-01,9.99999e-01,9.99999e-01,9.97839e-01,2.41154e-01,9.99984e-01
5.902184868e-01,2.47374e-01,9.99999e-01,9.99999e-01,9.97416e-01,2.48025e-01,9.99958e-01
5.931695792e-01,2.54473e-01,9.99999e-01,9.99999e-01,9.98166e-01,2.54950e-01,9.99960e-01
5.961354271e-01,2.61396e-01,9.99999e-01,9.99999e-01,9.97996e-01,2.61926e-01,9.99976e-01
5.991161043e-01,2.68556e-01,9.99999e-01,9.99999e-01,9.98541e-01,2.68950e-01,9.99992e-01
6.021116848e-01,2.75790e-01,9.99999e-01,9.99999e-01,9.99173e-01,2.76018e-01,9.99998e-01
6.051222432e-01,2.83008e-01,9.99999e-01,9.99999e-01,9.99581e-01,2.83126e-01,9.99999e-01
6.081478544e-01,2.90219e-01,9.99999e-01,9.99999e-01,9.99819e-01,2.90272e-01,9.99999e-01
6.111885937e-01,2.97429e-01,9.99999e-01,9.99999e-01,9.99923e-01,2.97451e-01,9.99999e-01
6.142445367e-01,3.04651e-01,9.99999e-01,9.99999e-01,9.99965e-01,3.04661e-01,9.99999e-01
6.173157594e-01,3.11892e-01,9.99999e-01,9.99999e-01,9.99980e-01,3.11898e-01,9.99999e-01
6.204023382e-01,3.19154e-01,9.99999e-01,9.99999e-01,9.99983e-01,3.19159e-01,9.99999e-01
6.235043498e-01,3.26417e-01,9.99999e-01,9.99999e-01,9.99927e-01,3.26441e-01,9.99999e-01
6.266218716e-01,3.33614e-01,9.99999e-01,9.99999e-01,9.99626e-01,3.33740e-01,9.99996e-01
6.297549810e-01,3.41005e-01,9.99999e-01,9.99999e-01,9.99862e-01,3.41053e-01,9.99994e-01
6.329037559e-01,3.48282e-01,9.99999e-01,9.99999e-01,9.99730e-01,3.48377e-01,9.99995e-01
6.360682746e-01,3.55627e-01,9.99999e-01,9.99999e-01,9.99768e-01,3.55710e-01,9.99997e-01
6.392486160e-01,3.62938e-01,9.99999e-01,9.99999e-01,9.99701e-01,3.63047e-01,9.99998e-01
6.424448591e-01,3.70236e-01,9.99999e-01,9.99999e-01,9.99596e-01,3.70386e-01,9.99997e-01
6.456570834e-01,3.77012e-01,9.99999e-01,9.99999e-01,9.98125e-01,3.77724e-01,9.99988e-01
6.488853688e-01,3.84527e-01,9.99999e-01,9.99999e-01,9.98648e-01,3.85058e-01,9.99970e-01
6.521297956e-01,3.91836e-01,9.99999e-01,9.99999e-01,9.98622e-01,3.92386e-01,9.99975e-01
6.553904446e-01,3.99145e-01,9.99999e-01,9.99999e-01,9.98620e-01,3.99704e-01,9.99981e-01
6.586673968e-01,4.06530e-01,9.99999e-01,9.99999e-01,9.98825e-01,4.07010e-01,9.99993e-01
6.619607338e-01,4.14030e-01,9.99999e-01,9.99999e-01,9.99345e-01,4.14301e-01,9.99998e-01
6.652705375e-01,4.21410e-01,9.99999e-01,9.99999e-01,9.99607e-01,4.21575e-01,9.99998e-01
6.685968902e-01,4.28758e-01,9.99999e-01,9.99999e-01,9.99833e-01,4.28830e-01,9.99999e-01
6.719398746e-01,4.36025e-01,9.99999e-01,9.99999e-01,9.99915e-01,4.36062e-01,9.99999e-01
6.752995740e-01,4.43250e-01,9.99999e-01,9.99999e-01,9.99954e-01,4.43270e-01,9.99999e-01
6.786760719e-01,4.50420e-01,9.99999e-01,9.99999e-01,9.99932e-01,4.50450e-01,9.99999e-01
6.820694522e-01,4.57550e-01,9.99999e-01,9.99999e-01,9.99884e-01,4.57602e-01,9.99998e-01
6.854797995e-01,4.64655e-01,9.99999e-01,9.99999e-01,9.99852e-01,4.64723e-01,9.99998e-01
6.889071985e-01,4.71585e-01,9.99999e-01,9.99999e-01,9.99522e-01,4.71811e-01,9.99996e-01
6.923517345e-01,4.76040e-01,9.99999e-01,9.99999e-01,9.94130e-01,4.78864e-01,9.99971e-01
6.958134932e-01,4.84413e-01,9.99999e-01,9.99999e-01,9.97041e-01,4.85880e-01,9.99938e-01
6.992925606e-01,4.91405e-01,9.99999e-01,9.99999e-01,9.97109e-01,4.92857e-01,9.99944e-01
7.027890234e-01,4.98009e-01,9.99999e-01,9.99999e-01,9.96472e-01,4.99793e-01,9.99957e-01
7.063029686e-01,5.05172e-01,9.99999e-01,9.99999e-01,9.97030e-01,5.06687e-01,9.99978e-01
7.098344834e-01,5.12068e-01,9.99999e-01,9.99999e-01,9.97150e-01,5.13537e-01,9.99987e-01
7.133836558e-01,5.18318e-01,9.99999e-01,9.99999e-01,9.96135e-01,5.20342e-01,9.99974e-01
7.169505741e-01,5.10907e-01,9.99999e-01,9.99999e-01,9.69468e-01,5.27100e-01,9.99804e-01
7.205353270e-01,5.25804e-01,9.99999e-01,9.99999e-01,9.85342e-01,5.33809e-01,9.99656e-01
7.241380036e-01,5.30047e-01,9.99999e-01,9.99999e-01,9.81007e-01,5.40469e-01,9.99702e-01
7.277586936e-01,5.37581e-01,9.99999e-01,9.99999e-01,9.82869e-01,5.47078e-01,9.99766e-01
7.313974871e-01,5.43598e-01,9.99999e-01,9.99999e-01,9.81972e-01,5.53635e-01,9.99896e-01
7.350544745e-01,5.54570e-01,9.99999e-01,9.99999e-01,9.90097e-01,5.60138e-01,9.99960e-01
7.387297469e-01,5.62451e-01,9.99999e-01,9.99999e-01,9.92716e-01,5.66588e-01,9.99981e-01
7.424233956e-01,5.70942e-01,9.99999e-01,9.99999e-01,9.96443e-01,5.72982e-01,9.99996e-01
7.461355126e-01,5.78067e-01,9.99999e-01,9.99999e-01,9.97838e-01,5.79319e-01,9.99998e-01
7.498661902e-01,5.85013e-01,9.99999e-01,9.99999e-01,9.98997e-01,5.85600e-01,9.99999e-01
7.536155211e-01,5.91530e-01,9.99999e-01,9.99999e-01,9.99506e-01,5.91822e-01,9.99999e-01
7.573835987e-01,5.97835e-01,9.99999e-01,9.99999e-01,9.99745e-01,5.97986e-01,9.99999e-01
7.611705167e-01,6.03995e-01,9.99999e-01,9.99999e-01,9.99841e-01,6.04091e-01,9.99999e-01
7.649763693e-01,6.10075e-01,9.99999e-01,9.99999e-01,9.99900e-01,6.10135e-01,9.99999e-01
7.688012511e-01,6.16076e-01,9.99999e-01,9.99999e-01,9.99930e-01,6.16119e-01,9.99999e-01
7.726452574e-01,6.22005e-01,9.99999e-01,9.99999e-01,9.99942e-01,6.22041e-01,9.99999e-01
7.765084837e-01,6.27850e-01,9.99999e-01,9.99999e-01,9.99917e-01,6.27901e-01,9.99999e-01
7.803910261e-01,6.18709e-01,9.99999e-01,9.76681e-01,9.99645e-01,6.33700e-01,9.99999e-01
7.842929812e-01,5.80698e-01,9.99999e-01,9.09231e-01,9.98762e-01,6.39436e-01,9.99997e-01
7.882144461e-01,5.80437e-01,9.99999e-01,9.01978e-01,9.97481e-01,6.45109e-01,9.99982e-01
7.921555184e-01,6.12264e-01,9.99999e-01,9.42205e-01,9.98628e-01,6.50718e-01,9.99969e-01
7.961162960e-01,6.29397e-01,9.99999e-01,9.61440e-01,9.97537e-01,6.56265e-01,9.99970e-01
8.000968774e-01,6.45913e-01,9.99999e-01,9.78857e-01,9.97179e-01,6.61747e-01,9.99969e-01
8.040973618e-01,6.57987e-01,9.99999e-01,9.89055e-01,9.97173e-01,6.67166e-01,9.99976e-01
8.081178486e-01,6.64807e-01,9.99999e-01,9.94936e-01,9.93578e-01,6.72521e-01,9.99976e-01
8.121584379e-01,6.58781e-01,9.99999e-01,9.98456e-01,9.73502e-01,6.77812e-01,9.99910e-01
8.162192301e-01,6.61436e-01,9.99999e-01,9.99658e-01,9.69023e-01,6.83038e-01,9.99665e-01
8.203003262e-01,6.76915e-01,9.99999e-01,9.99995e-01,9.83989e-01,6.88201e-01,9.99608e-01
8.244018279e-01,6.78131e-01,9.99999e-01,9.99999e-01,9.78426e-01,6.93299e-01,9.99688e-01
8.285238370e-01,6.85082e-01,9.99999e-01,9.99999e-01,9.81264e-01,6.98333e-01,9.99754e-01
8.326664562e-01,6.89985e-01,9.99999e-01,9.99999e-01,9.81161e-01,7.03304e-01,9.99898e-01
8.368297885e-01,6.98679e-01,9.99999e-01,9.99999e-01,9.86563e-01,7.08210e-01,9.99976e-01
8.410139374e-01,7.07344e-01,9.99999e-01,9.99999e-01,9.92005e-01,7.13053e-01,9.99985e-01
8.452190071e-01,7.15014e-01,9.99999e-01,9.99999e-01,9.96081e-01,7.17832e-01,9.99991e-01
8.494451021e-01,7.20892e-01,9.99999e-01,9.99999e-01,9.97714e-01,7.22548e-01,9.99993e-01
8.536923276e-01,7.26220e-01,9.99999e-01,9.99999e-01,9.98653e-01,7.27201e-01,9.99995e-01
8.579607893e-01,7.31182e-01,9.99999e-01,9.99999e-01,9.99167e-01,7.31792e-01,9.99998e-01
8.622505932e-01,7.35931e-01,9.99999e-01,9.99999e-01,9.99472e-01,7.36319e-01,9.99999e-01
8.665618462e-01,6.97695e-01,9.99999e-01,9.42131e-01,9.99672e-01,7.40784e-01,9.99999e-01
8.708946554e-01,5.82432e-01,9.99999e-01,7.81877e-01,9.99623e-01,7.45188e-01,9.99999e-01
8.752491287e-01,6.16215e-01,9.99999e-01,8.22541e-01,9.99496e-01,7.49530e-01,9.99998e-01
8.796253743e-01,6.77295e-01,9.99999e-01,8.99113e-01,9.99300e-01,7.53810e-01,9.99997e-01
8.840235012e-01,7.16939e-01,9.99999e-01,9.46544e-01,9.99201e-01,7.58030e-01,9.99994e-01
8.884436187e-01,7.43742e-01,9.99999e-01,9.78717e-01,9.97010e-01,7.62189e-01,9.99985e-01
8.928858368e-01,7.36374e-01,9.99999e-01,9.91315e-01,9.69409e-01,7.66289e-01,9.99920e-01
8.973502660e-01,7.27782e-01,9.99999e-01,9.97899e-01,9.47115e-01,7.70328e-01,9.99592e-01
9.018370173e-01,7.52705e-01,9.99999e-01,9.99769e-01,9.72939e-01,7.74309e-01,9.99360e-01
9.063462024e-01,7.54212e-01,9.99999e-01,9.93777e-01,9.75632e-01,7.78231e-01,9.99438e-01
9.108779334e-01,7.42087e-01,9.99999e-01,9.86269e-01,9.62512e-01,7.82095e-01,9.99416e-01
9.154323231e-01,7.49907e-01,9.99999e-01,9.96813e-01,9.57671e-01,7.85901e-01,9.99517e-01
9.200094847e-01,7.27147e-01,9.99999e-01,9.51639e-01,9.66786e-01,7.89650e-01,9.99729e-01
9.246095321e-01,7.02052e-01,9.99999e-01,9.34391e-01,9.46568e-01,7.93342e-01,9.99688e-01
9.292325798e-01,5.26531e-01,9.99999e-01,9.47262e-01,6.95674e-01,7.96978e-01,9.98498e-01
9.338787427e-01,4.77601e-01,9.99999e-01,9.49812e-01,6.29155e-01,8.00558e-01,9.94585e-01
9.385481364e-01,6.40012e-01,9.99999e-01,9.62901e-01,8.30363e-01,8.04084e-01,9.94052e-01
9.432408771e-01,6.03185e-01,9.99999e-01,9.77223e-01,7.67617e-01,8.07554e-01,9.94867e-01
9.479570815e-01,5.52734e-01,9.99999e-01,9.88222e-01,6.92264e-01,8.10971e-01,9.95820e-01
9.526968669e-01,6.16823e-01,9.99999e-01,9.94320e-01,7.63467e-01,8.14334e-01,9.97448e-01
9.574603512e-01,6.37008e-01,9.99999e-01,9.97571e-01,7.81905e-01,8.17645e-01,9.98702e-01
9.622476530e-01,6.71828e-01,9.99999e-01,9.99243e-01,8.19731e-01,8.20903e-01,9.99102e-01
9.670588912e-01,7.34245e-01,9.99999e-01,9.99773e-01,8.91674e-01,8.24109e-01,9.99411e-01
9.718941857e-01,7.69789e-01,9.99999e-01,9.99984e-01,9.30956e-01,8.27264e-01,9.99549e-01
9.767536566e-01,7.82215e-01,9.99999e-01,9.99999e-01,9.42334e-01,8.30368e-01,9.99654e-01
9.816374249e-01,7.97599e-01,9.99999e-01,9.99999e-01,9.57129e-01,8.33423e-01,9.99880e-01
9.865456120e-01,8.13844e-01,9.99999e-01,9.99999e-01,9.73023e-01,8.36428e-01,9.99974e-01
9.914783401e-01,8.25308e-01,9.99999e-01,9.99999e-01,9.83236e-01,8.39384e-01,9.99992e-01
9.964357318e-01,8.34574e-01,9.99999e-01,9.99999e-01,9.90840e-01,8.42292e-01,9.99995e-01
1.001417910e+00,8.40505e-01,9.99999e-01,9.99999e-01,9.94506e-01,8.45152e-01,9.99993e-01
1.006425000e+00,8.45292e-01,9.99999e-01,9.99999e-01,9.96855e-01,8.47965e-01,9.99990e-01
1.011457125e+00,8.49070e-01,9.99999e-01,9.99999e-01,9.98054e-01,8.50732e-01,9.99991e-01
1.016514411e+00,8.52319e-01,9.99999e-01,9.99999e-01,9.98676e-01,8.53453e-01,9.99993e-01
1.021596983e+00,8.55187e-01,9.99999e-01,9.99961e-01,9.98943e-01,8.56129e-01,9.99993e-01
1.026704968e+00,8.55958e-01,9.99999e-01,9.97562e-01,9.99175e-01,8.58759e-01,9.99995e-01
1.031838492e+00,8.30002e-01,9.99999e-01,9.64171e-01,9.99402e-01,8.61346e-01,9.99998e-01
1.036997685e+00,1.97781e-01,9.99999e-01,2.29010e-01,9.99643e-01,8.63889e-01,9.99999e-01
1.042182673e+00,2.20438e-01,9.99999e-01,2.54532e-01,9.99573e-01,8.66390e-01,9.99999e-01
1.047393587e+00,2.14077e-01,9.99999e-01,2.46517e-01,9.99435e-01,8.68847e-01,9.99999e-01
1.052630555e+00,1.98192e-02,9.99999e-01,2.27613e-02,9.99224e-01,8.71263e-01,9.99999e-01
1.057893707e+00,4.18374e-02,9.99999e-01,4.79353e-02,9.98702e-01,8.73638e-01,9.99999e-01
1.063183176e+00,9.52182e-02,9.99999e-01,1.08881e-01,9.97868e-01,8.75973e-01,9.99998e-01
1.068499092e+00,1.94180e-01,9.99999e-01,2.21796e-01,9.96440e-01,8.78267e-01,9.99997e-01
1.073841587e+00,3.40878e-01,9.99999e-01,3.88586e-01,9.95822e-01,8.80522e-01,9.99994e-01
1.079210795e+00,4.83160e-01,9.99999e-01,5.50110e-01,9.94674e-01,8.82737e-01,9.99985e-01
1.084606849e+00,6.33600e-01,9.99999e-01,7.21682e-01,9.91925e-01,8.84915e-01,9.99965e-01
1.090029883e+00,7.40261e-01,9.99999e-01,8.44272e-01,9.88309e-01,8.87054e-01,9.99928e-01
1.095480033e+00,7.92557e-01,9.99999e-01,9.20208e-01,9.68561e-01,8.89157e-01,9.99871e-01
1.100957433e+00,7.89418e-01,9.99999e-01,9.60736e-01,9.21942e-01,8.91223e-01,9.99763e-01
1.106462220e+00,7.13447e-01,9.99999e-01,9.83617e-01,8.12015e-01,8.93252e-01,9.99599e-01
1.111994531e+00,5.74879e-01,9.99999e-01,9.93896e-01,6.46585e-01,8.95246e-01,9.98938e-01
1.117554504e+00,4.40349e-01,9.99999e-01,9.98517e-01,4.93324e-01,8.97205e-01,9.96172e-01
1.123142276e+00,5.28766e-01,9.99999e-01,9.99903e-01,5.93493e-01,8.99129e-01,9.90948e-01
1.128757988e+00,6.38566e-01,9.99999e-01,9.99999e-01,7.16208e-01,9.01020e-01,9.89535e-01
1.134401778e+00,4.19224e-01,9.99999e-01,9.99999e-01,4.68492e-01,9.02877e-01,9.91095e-01
1.140073787e+00,7.36890e-01,9.99999e-01,9.99999e-01,8.20353e-01,9.04701e-01,9.92878e-01
1.145774156e+00,5.95614e-01,9.99999e-01,9.99999e-01,6.61365e-01,9.06492e-01,9.93479e-01
1.151503026e+00,5.69611e-01,9.99999e-01,9.99999e-01,6.29440e-01,9.08251e-01,9.96362e-01
1.157260541e+00,6.20416e-01,9.99999e-01,9.99999e-01,6.82534e-01,9.09980e-01,9.98910e-01
1.163046844e+00,6.88157e-01,9.99999e-01,9.99999e-01,7.55059e-01,9.11677e-01,9.99690e-01
1.168862078e+00,7.51853e-01,9.99999e-01,9.99999e-01,8.23319e-01,9.13343e-01,9.99838e-01
1.174706389e+00,8.11340e-01,9.99999e-01,9.99999e-01,8.86925e-01,9.14980e-01,9.99777e-01
1.180579921e+00,8.51810e-01,9.99999e-01,9.99999e-01,9.29623e-01,9.16587e-01,9.99680e-01
1.186482820e+00,8.80783e-01,9.99999e-01,9.99993e-01,9.59604e-01,9.18166e-01,9.99672e-01
1.192415234e+00,8.89777e-01,9.99999e-01,9.91206e-01,9.76207e-01,9.19715e-01,9.99754e-01
1.198377311e+00,5.19123e-01,9.99999e-01,5.73318e-01,9.79859e-01,9.21237e-01,9.99766e-01
1.204369197e+00,6.88204e-08,9.99999e-01,7.54309e-08,9.80945e-01,9.22731e-01,9.99796e-01
1.210391043e+00,1.84517e-26,9.99999e-01,2.01724e-26,9.81782e-01,9.24198e-01,9.99872e-01
1.216442998e+00,3.87343e-23,9.99999e-01,4.22559e-23,9.84527e-01,9.25638e-01,9.99921e-01
1.222525213e+00,8.22800e-23,9.99999e-01,8.93186e-23,9.87924e-01,9.27052e-01,9.99951e-01
1.228637839e+00,1.28915e-17,9.99999e-01,1.39683e-17,9.91593e-01,9.28440e-01,9.99976e-01
