#,Wave/freq,Total,N2,CO2,H2O,Rayleigh,CIA
4.000000000e-01,1.68281e-05,9.99999e-01,9.99999e-01,9.99978e-01,1.68284e-05,9.99999e-01
4.020000000e-01,2.09138e-05,9.99999e-01,9.99999e-01,9.99986e-01,2.09141e-05,9.99999e-01
4.040100000e-01,2.58744e-05,9.99999e-01,9.99999e-01,9.99993e-01,2.58745e-05,9.99999e-01
4.060300500e-01,3.18771e-05,9.99999e-01,9.99999e-01,9.99998e-01,3.18771e-05,9.99999e-01
4.080602003e-01,3.91108e-05,9.99999e-01,9.99999e-01,9.99999e-01,3.91108e-05,9.99999e-01
4.101005013e-01,4.77925e-05,9.99999e-01,9.99999e-01,9.99999e-01,4.77925e-05,9.99999e-01
4.121510038e-01,5.81705e-05,9.99999e-01,9.99999e-01,9.99998e-01,5.81706e-05,9.99999e-01
4.142117588e-01,7.05275e-05,9.99999e-01,9.99999e-01,9.99993e-01,7.05279e-05,9.99999e-01
4.162828176e-01,8.51833e-05,9.99999e-01,9.99999e-01,9.99973e-01,8.51856e-05,9.99999e-01
4.183642317e-01,1.02505e-04,9.99999e-01,9.99999e-01,9.99983e-01,1.02506e-04,9.99999e-01
4.204560528e-01,1.22898e-04,9.99999e-01,9.99999e-01,9.99989e-01,1.22899e-04,9.99999e-01
4.225583331e-01,1.46821e-04,9.99999e-01,9.99999e-01,9.99995e-01,1.46822e-04,9.99999e-01
4.246711247e-01,1.74785e-04,9.99999e-01,9.99999e-01,9.99996e-01,1.74785e-04,9.99999e-01
4.267944804e-01,2.07359e-04,9.99999e-01,9.99999e-01,9.99995e-01,2.07360e-04,9.99999e-01
4.289284528e-01,2.45176e-04,9.99999e-01,9.99999e-01,9.99996e-01,2.45177e-04,9.99999e-01
4.310730950e-01,2.88932e-04,9.99999e-01,9.99999e-01,9.99998e-01,2.88932e-04,9.99999e-01
4.332284605e-01,3.39394e-04,9.99999e-01,9.99999e-01,9.99999e-01,3.39394e-04,9.99999e-01
4.353946028e-01,3.97403e-04,9.99999e-01,9.99999e-01,9.99999e-01,3.97403e-04,9.99999e-01
4.375715758e-01,4.63878e-04,9.99999e-01,9.99999e-01,9.99996e-01,4.63879e-04,9.99999e-01
4.397594337e-01,5.39811e-04,9.99999e-01,9.99999e-01,9.99976e-01,5.39823e-04,9.99999e-01
4.419582309e-01,6.26250e-04,9.99999e-01,9.99999e-01,9.99884e-01,6.26322e-04,9.99999e-01
4.441680220e-01,7.24484e-04,9.99999e-01,9.99999e-01,9.99907e-01,7.24550e-04,9.99999e-01
4.463888621e-01,8.35697e-04,9.99999e-01,9.99999e-01,9.99904e-01,8.35776e-04,9.99999e-01
4.486208064e-01,9.61304e-04,9.99999e-01,9.99999e-01,9.99940e-01,9.61361e-04,9.99999e-01
4.508639105e-01,1.10273e-03,9.99999e-01,9.99999e-01,9.99971e-01,1.10276e-03,9.99999e-01
4.531182300e-01,1.26152e-03,9.99999e-01,9.99999e-01,9.99988e-01,1.26154e-03,9.99999e-01
4.553838212e-01,1.43933e-03,9.99999e-01,9.99999e-01,9.99992e-01,1.43934e-03,9.99999e-01
4.576607403e-01,1.63793e-03,9.99999e-01,9.99999e-01,9.99996e-01,1.63794e-03,9.99999e-01
4.599490440e-01,1.85918e-03,9.99999e-01,9.99999e-01,9.99997e-01,1.85918e-03,9.99999e-01
4.622487892e-01,2.10504e-03,9.99999e-01,9.99999e-01,9.99999e-01,2.10504e-03,9.99999e-01
4.645600332e-01,2.37756e-03,9.99999e-01,9.99999e-01,9.99997e-01,2.37756e-03,9.99999e-01
4.668828333e-01,2.67885e-03,9.99999e-01,9.99999e-01,9.99971e-01,2.67892e-03,9.99999e-01
4.692172475e-01,3.01119e-03,9.99999e-01,9.99999e-01,9.99939e-01,3.01137e-03,9.99999e-01
4.715633337e-01,3.37713e-03,9.99999e-01,9.99999e-01,9.99960e-01,3.37726e-03,9.99999e-01
4.739211504e-01,3.77890e-03,9.99999e-01,9.99999e-01,9.99962e-01,3.77904e-03,9.99999e-01
4.762907561e-01,4.21916e-03,9.99999e-01,9.99999e-01,9.99980e-01,4.21924e-03,9.99999e-01
4.786722099e-01,4.70044e-03,9.99999e-01,9.99999e-01,9.99991e-01,4.70048e-03,9.99999e-01
4.810655710e-01,5.22543e-03,9.99999e-01,9.99999e-01,9.99997e-01,5.22544e-03,9.99999e-01
4.834708988e-01,5.79677e-03,9.99999e-01,9.99999e-01,9.99977e-01,5.79690e-03,9.99999e-01
4.858882533e-01,6.41741e-03,9.99999e-01,9.99999e-01,9.99957e-01,6.41768e-03,9.99999e-01
4.883176946e-01,7.09043e-03,9.99999e-01,9.99999e-01,9.99964e-01,7.09068e-03,9.99999e-01
4.907592831e-01,7.81859e-03,9.99999e-01,9.99999e-01,9.99967e-01,7.81884e-03,9.99999e-01
4.932130795e-01,8.60494e-03,9.99999e-01,9.99999e-01,9.99976e-01,8.60514e-03,9.99999e-01
4.956791449e-01,9.45249e-03,9.99999e-01,9.99999e-01,9.99987e-01,9.45260e-03,9.99999e-01
4.981575406e-01,1.03637e-02,9.99999e-01,9.99999e-01,9.99939e-01,1.03643e-02,9.99999e-01
5.006483283e-01,1.13415e-02,9.99999e-01,9.99999e-01,9.99845e-01,1.13432e-02,9.99998e-01
5.031515699e-01,1.23827e-02,9.99999e-01,9.99999e-01,9.99214e-01,1.23926e-02,9.99991e-01
5.056673278e-01,1.35096e-02,9.99999e-01,9.99999e-01,9.99584e-01,1.35153e-02,9.99990e-01
5.081956644e-01,1.47067e-02,9.99999e-01,9.99999e-01,9.99475e-01,1.47145e-02,9.99993e-01
5.107366428e-01,1.59876e-02,9.99999e-01,9.99999e-01,9.99645e-01,1.59933e-02,9.99998e-01
5.132903260e-01,1.73511e-02,9.99999e-01,9.99999e-01,9.99796e-01,1.73546e-02,9.99999e-01
5.158567776e-01,1.87998e-02,9.99999e-01,9.99999e-01,9.99913e-01,1.88014e-02,9.99999e-01
5.184360615e-01,2.03360e-02,9.99999e-01,9.99999e-01,9.99965e-01,2.03367e-02,9.99999e-01
5.210282418e-01,2.19629e-02,9.99999e-01,9.99999e-01,9.99986e-01,2.19632e-02,9.99999e-01
5.236333830e-01,2.36826e-02,9.99999e-01,9.99999e-01,9.99948e-01,2.36838e-02,9.99999e-01
5.262515499e-01,2.55003e-02,9.99999e-01,9.99999e-01,9.99967e-01,2.55011e-02,9.99999e-01
5.288828077e-01,2.74171e-02,9.99999e-01,9.99999e-01,9.99970e-01,2.74179e-02,9.99999e-01
5.315272217e-01,2.94358e-02,9.99999e-01,9.99999e-01,9.99973e-01,2.94365e-02,9.99999e-01
5.341848578e-01,3.15590e-02,9.99999e-01,9.99999e-01,9.99982e-01,3.15595e-02,9.99999e-01
5.368557821e-01,3.37870e-02,9.99999e-01,9.99999e-01,9.99940e-01,3.37890e-02,9.99999e-01
5.395400610e-01,3.61196e-02,9.99999e-01,9.99999e-01,9.99786e-01,3.61274e-02,9.99997e-01
5.422377613e-01,3.85655e-02,9.99999e-01,9.99999e-01,9.99720e-01,3.85765e-02,9.99994e-01
5.449489501e-01,4.11275e-02,9.99999e-01,9.99999e-01,9.99741e-01,4.11383e-02,9.99994e-01
5.476736949e-01,4.38043e-02,9.99999e-01,9.99999e-01,9.99769e-01,4.38145e-02,9.99996e-01
5.504120634e-01,4.65990e-02,9.99999e-01,9.99999e-01,9.99832e-01,4.66068e-02,9.99998e-01
5.531641237e-01,4.95125e-02,9.99999e-01,9.99999e-01,9.99915e-01,4.95166e-02,9.99999e-01
5.559299443e-01,5.25431e-02,9.99999e-01,9.99999e-01,9.99958e-01,5.25452e-02,9.99999e-01
5.587095940e-01,5.56922e-02,9.99999e-01,9.99999e-01,9.99974e-01,5.56936e-02,9.99999e-01
5.615031420e-01,5.89613e-02,9.99999e-01,9.99999e-01,9.99971e-01,5.89629e-02,9.99999e-01
5.643106577e-01,6.23518e-02,9.99999e-01,9.99999e-01,9.99967e-01,6.23538e-02,9.99999e-01
5.671322110e-01,6.58415e-02,9.99999e-01,9.99999e-01,9.99617e-01,6.58669e-02,9.99996e-01
5.699678720e-01,6.94730e-02,9.99999e-01,9.99999e-01,9.99582e-01,6.95027e-02,9.99988e-01
5.728177114e-01,7.32293e-02,9.99999e-01,9.99999e-01,9.99569e-01,7.32614e-02,9.99990e-01
5.756818000e-01,7.71121e-02,9.99999e-01,9.99999e-01,9.99604e-01,7.71430e-02,9.99994e-01
5.785602090e-01,8.11194e-02,9.99999e-01,9.99999e-01,9.99654e-01,8.11475e-02,9.99997e-01
5.814530100e-01,8.52451e-02,9.99999e-01,9.99999e-01,9.99653e-01,8.52746e-02,9.99998e-01
5.843602750e-01,8.94870e-02,9.99999e-01,9.99999e-01,9.99590e-01,8.95238e-02,9.99997e-01
5.872820764e-01,9.35607e-02,9.99999e-01,9.99999e-01,9.96468e-01,9.38946e-02,9.99974e-01
5.902184868e-01,9.79552e-02,9.99999e-01,9.99999e-01,9.95687e-01,9.83860e-02,9.99931e-01
5.931695792e-01,1.02677e-01,9.99999e-01,9.99999e-01,9.96960e-01,1.02997e-01,9.99933e-01
5.961354271e-01,1.07363e-01,9.99999e-01,9.99999e-01,9.96661e-01,1.07727e-01,9.99959e-01
5.991161043e-01,1.12298e-01,9.99999e-01,9.99999e-01,9.97562e-01,1.12574e-01,9.99987e-01
6.021116848e-01,1.17374e-01,9.99999e-01,9.99999e-01,9.98614e-01,1.17537e-01,9.99998e-01
6.051222432e-01,1.22528e-01,9.99999e-01,9.99999e-01,9.99298e-01,1.22614e-01,9.99999e-01
6.081478544e-01,1.27766e-01,9.99999e-01,9.99999e-01,9.99697e-01,1.27804e-01,9.99999e-01
6.111885937e-01,1.33087e-01,9.99999e-01,9.99999e-01,9.99871e-01,1.33105e-01,9.99999e-01
6.142445367e-01,1.38506e-01,9.99999e-01,9.99999e-01,9.99942e-01,1.38514e-01,9.99999e-01
6.173157594e-01,1.44024e-01,9.99999e-01,9.99999e-01,9.99968e-01,1.44029e-01,9.99999e-01
6.204023382e-01,1.49645e-01,9.99999e-01,9.99999e-01,9.99973e-01,1.49649e-01,9.99999e-01
6.235043498e-01,1.55352e-01,9.99999e-01,9.99999e-01,9.99884e-01,1.55370e-01,9.99999e-01
6.266218716e-01,1.61090e-01,9.99999e-01,9.99999e-01,9.99380e-01,1.61190e-01,9.99995e-01
6.297549810e-01,1.67068e-01,9.99999e-01,9.99999e-01,9.99772e-01,1.67108e-01,9.99990e-01
6.329037559e-01,1.73040e-01,9.99999e-01,9.99999e-01,9.99549e-01,1.73119e-01,9.99992e-01
6.360682746e-01,1.79152e-01,9.99999e-01,9.99999e-01,9.99617e-01,1.79221e-01,9.99995e-01
6.392486160e-01,1.85319e-01,9.99999e-01,9.99999e-01,9.99504e-01,1.85411e-01,9.99997e-01
6.424448591e-01,1.91560e-01,9.99999e-01,9.99999e-01,9.99341e-01,1.91687e-01,9.99996e-01
6.456570834e-01,1.97436e-01,9.99999e-01,9.99999e-01,9.96942e-01,1.98045e-01,9.99982e-01
6.488853688e-01,2.03930e-01,9.99999e-01,9.99999e-01,9.97350e-01,2.04481e-01,9.99951e-01
6.521297956e-01,2.10499e-01,9.99999e-01,9.99999e-01,9.97696e-01,2.10994e-01,9.99959e-01
6.553904446e-01,2.17078e-01,9.99999e-01,9.99999e-01,9.97725e-01,2.17579e-01,9.99969e-01
6.586673968e-01,2.23791e-01,9.99999e-01,9.99999e-01,9.98034e-01,2.24234e-01,9.99989e-01
6.619607338e-01,2.30692e-01,9.99999e-01,9.99999e-01,9.98864e-01,2.30954e-01,9.99997e-01
6.652705375e-01,2.37581e-01,9.99999e-01,9.99999e-01,9.99340e-01,2.37738e-01,9.99998e-01
6.685968902e-01,2.44506e-01,9.99999e-01,9.99999e-01,9.99693e-01,2.44580e-01,9.99999e-01
6.719398746e-01,2.51443e-01,9.99999e-01,9.99999e-01,9.99857e-01,2.51479e-01,9.99999e-01
6.752995740e-01,2.58410e-01,9.99999e-01,9.99999e-01,9.99922e-01,2.58430e-01,9.99999e-01
6.786760719e-01,2.65401e-01,9.99999e-01,9.99999e-01,9.99889e-01,2.65431e-01,9.99999e-01
6.820694522e-01,2.72425e-01,9.99999e-01,9.99999e-01,9.99810e-01,2.72477e-01,9.99998e-01
6.854797995e-01,2.79497e-01,9.99999e-01,9.99999e-01,9.99756e-01,2.79565e-01,9.99997e-01
6.889071985e-01,2.86524e-01,9.99999e-01,9.99999e-01,9.99418e-01,2.86693e-01,9.99994e-01
6.923517345e-01,2.91033e-01,9.99999e-01,9.99999e-01,9.90441e-01,2.93855e-01,9.99953e-01
6.958134932e-01,2.99494e-01,9.99999e-01,9.99999e-01,9.94932e-01,3.01051e-01,9.99895e-01
6.992925606e-01,3.06788e-01,9.99999e-01,9.99999e-01,9.95267e-01,3.08274e-01,9.99907e-01
7.027890234e-01,3.13647e-01,9.99999e-01,9.99999e-01,9.94119e-01,3.15524e-01,9.99929e-01
7.063029686e-01,3.21190e-01,9.99999e-01,9.99999e-01,9.95058e-01,3.22796e-01,9.99964e-01
7.098344834e-01,3.28515e-01,9.99999e-01,9.99999e-01,9.95258e-01,3.30086e-01,9.99978e-01
7.133836558e-01,3.35272e-01,9.99999e-01,9.99999e-01,9.93754e-01,3.37393e-01,9.99958e-01
7.169505741e-01,3.27535e-01,9.99999e-01,9.99999e-01,9.50476e-01,3.44712e-01,9.99675e-01
7.205353270e-01,3.43073e-01,9.99999e-01,9.99999e-01,9.75082e-01,3.52041e-01,9.99428e-01
7.241380036e-01,3.48016e-01,9.99999e-01,9.99999e-01,9.68868e-01,3.59376e-01,9.99506e-01
7.277586936e-01,3.56245e-01,9.99999e-01,9.99999e-01,9.71842e-01,3.66714e-01,9.99596e-01
7.313974871e-01,3.62737e-01,9.99999e-01,9.99999e-01,9.69928e-01,3.74053e-01,9.99810e-01
7.350544745e-01,3.75071e-01,9.99999e-01,9.99999e-01,9.83496e-01,3.81390e-01,9.99933e-01
7.387297469e-01,3.83977e-01,9.99999e-01,9.99999e-01,9.87825e-01,3.88721e-01,9.99969e-01
7.424233956e-01,3.93672e-01,9.99999e-01,9.99999e-01,9.94015e-01,3.96044e-01,9.99993e-01
7.461355126e-01,4.01894e-01,9.99999e-01,9.99999e-01,9.96375e-01,4.03356e-01,9.99998e-01
7.498661902e-01,4.09960e-01,9.99999e-01,9.99999e-01,9.98307e-01,4.10655e-01,9.99999e-01
7.536155211e-01,4.17592e-01,9.99999e-01,9.99999e-01,9.99171e-01,4.17939e-01,9.99999e-01
7.573835987e-01,4.25022e-01,9.99999e-01,9.99999e-01,9.99573e-01,4.25203e-01,9.99999e-01
7.611705167e-01,4.32332e-01,9.99999e-01,9.99999e-01,9.99734e-01,4.32447e-01,9.99999e-01
7.649763693e-01,4.39594e-01,9.99999e-01,9.99999e-01,9.99833e-01,4.39667e-01,9.99999e-01
7.688012511e-01,4.46810e-01,9.99999e-01,9.99999e-01,9.99884e-01,4.46861e-01,9.99999e-01
7.726452574e-01,4.53985e-01,9.99999e-01,9.99999e-01,9.99904e-01,4.54028e-01,9.99999e-01
7.765084837e-01,4.61103e-01,9.99999e-01,9.99999e-01,9.99865e-01,4.61165e-01,9.99999e-01
7.803910261e-01,4.52200e-01,9.99999e-01,9.66222e-01,9.99421e-01,4.68270e-01,9.99998e-01
7.842929812e-01,4.05043e-01,9.99999e-01,8.53749e-01,9.97982e-01,4.75340e-01,9.99995e-01
7.882144461e-01,4.05998e-01,9.99999e-01,8.45078e-01,9.95816e-01,4.82375e-01,9.99973e-01
7.921555184e-01,4.42569e-01,9.99999e-01,9.06446e-01,9.97694e-01,4.89371e-01,9.99950e-01
7.961162960e-01,4.62663e-01,9.99999e-01,9.35954e-01,9.95965e-01,4.96328e-01,9.99952e-01
8.000968774e-01,4.83245e-01,9.99999e-01,9.64811e-01,9.95318e-01,5.03243e-01,9.99949e-01
8.040973618e-01,4.98349e-01,9.99999e-01,9.81552e-01,9.95323e-01,5.10116e-01,9.99959e-01
8.081178486e-01,5.07188e-01,9.99999e-01,9.91521e-01,9.89540e-01,5.16943e-01,9.99961e-01
8.121584379e-01,4.99809e-01,9.99999e-01,9.97355e-01,9.56981e-01,5.23725e-01,9.99851e-01
8.162192301e-01,5.02673e-01,9.99999e-01,9.99415e-01,9.48689e-01,5.30459e-01,9.99444e-01
8.203003262e-01,5.23086e-01,9.99999e-01,9.99989e-01,9.74470e-01,5.37144e-01,9.99349e-01
8.244018279e-01,5.23778e-01,9.99999e-01,9.99999e-01,9.63717e-01,5.43778e-01,9.99481e-01
8.285238370e-01,5.33218e-01,9.99999e-01,9.99999e-01,9.69244e-01,5.50361e-01,9.99592e-01
8.326664562e-01,5.39427e-01,9.99999e-01,9.99999e-01,9.68802e-01,5.56892e-01,9.99831e-01
8.368297885e-01,5.50726e-01,9.99999e-01,9.99999e-01,9.77597e-01,5.63368e-01,9.99961e-01
8.410139374e-01,5.62159e-01,9.99999e-01,9.99999e-01,9.86629e-01,5.69790e-01,9.99977e-01
8.452190071e-01,5.72356e-01,9.99999e-01,9.99999e-01,9.93418e-01,5.76156e-01,9.99986e-01
8.494451021e-01,5.80240e-01,9.99999e-01,9.99999e-01,9.96189e-01,5.82465e-01,9.99988e-01
8.536923276e-01,5.87382e-01,9.99999e-01,9.99999e-01,9.97738e-01,5.88717e-01,9.99992e-01
8.579607893e-01,5.94083e-01,9.99999e-01,9.99999e-01,9.98610e-01,5.94910e-01,9.99997e-01
8.622505932e-01,6.00513e-01,9.99999e-01,9.99999e-01,9.99115e-01,6.01044e-01,9.99999e-01
8.665618462e-01,5.61770e-01,9.99999e-01,9.25790e-01,9.99454e-01,6.07119e-01,9.99999e-01
8.708946554e-01,4.10965e-01,9.99999e-01,6.70673e-01,9.99376e-01,6.13133e-01,9.99999e-01
8.752491287e-01,4.47748e-01,9.99999e-01,7.23825e-01,9.99165e-01,6.19086e-01,9.99998e-01
8.796253743e-01,5.22563e-01,9.99999e-01,8.37068e-01,9.98847e-01,6.24977e-01,9.99996e-01
8.840235012e-01,5.74492e-01,9.99999e-01,9.11916e-01,9.98682e-01,6.30807e-01,9.99991e-01
8.884436187e-01,6.10892e-01,9.99999e-01,9.64192e-01,9.95270e-01,6.36574e-01,9.99976e-01
8.928858368e-01,6.01674e-01,9.99999e-01,9.85375e-01,9.50685e-01,6.42278e-01,9.99867e-01
8.973502660e-01,5.89529e-01,9.99999e-01,9.96409e-01,9.13705e-01,6.47920e-01,9.99323e-01
9.018370173e-01,6.22994e-01,9.99999e-01,9.99602e-01,9.54702e-01,6.53498e-01,9.98937e-01
9.063462024e-01,6.26402e-01,9.99999e-01,9.90142e-01,9.60565e-01,6.59012e-01,9.99066e-01
9.108779334e-01,6.09142e-01,9.99999e-01,9.77050e-01,9.38908e-01,6.64463e-01,9.99029e-01
9.154323231e-01,6.19650e-01,9.99999e-01,9.94523e-01,9.30784e-01,6.69850e-01,9.99197e-01
9.200094847e-01,5.91920e-01,9.99999e-01,9.25060e-01,9.45254e-01,6.75173e-01,9.99550e-01
9.246095321e-01,5.57915e-01,9.99999e-01,8.92678e-01,9.17093e-01,6.80431e-01,9.99482e-01
9.292325798e-01,3.53096e-01,9.99999e-01,9.15626e-01,5.58276e-01,6.85626e-01,9.97984e-01
9.338787427e-01,2.97511e-01,9.99999e-01,9.17633e-01,4.68840e-01,6.90756e-01,9.91697e-01
9.385481364e-01,4.78098e-01,9.99999e-01,9.38799e-01,7.36371e-01,6.95823e-01,9.90132e-01
9.432408771e-01,4.39705e-01,9.99999e-01,9.61970e-01,6.56371e-01,7.00825e-01,9.91481e-01
9.479570815e-01,3.85536e-01,9.99999e-01,9.80356e-01,5.60492e-01,7.05764e-01,9.93061e-01
9.526968669e-01,4.52462e-01,9.99999e-01,9.90466e-01,6.44991e-01,7.10638e-01,9.95762e-01
9.574603512e-01,4.74645e-01,9.99999e-01,9.95910e-01,6.67395e-01,7.15449e-01,9.97844e-01
9.622476530e-01,5.16251e-01,9.99999e-01,9.98721e-01,7.18751e-01,7.20197e-01,9.98509e-01
9.670588912e-01,5.98517e-01,9.99999e-01,9.99615e-01,8.26818e-01,7.24882e-01,9.98980e-01
9.718941857e-01,6.47250e-01,9.99999e-01,9.99971e-01,8.87937e-01,7.29503e-01,9.99248e-01
9.767536566e-01,6.64735e-01,9.99999e-01,9.99999e-01,9.06076e-01,7.34062e-01,9.99425e-01
9.816374249e-01,6.86259e-01,9.99999e-01,9.99999e-01,9.29371e-01,7.38558e-01,9.99800e-01
9.865456120e-01,7.09723e-01,9.99999e-01,9.99999e-01,9.55261e-01,7.42993e-01,9.99958e-01
9.914783401e-01,7.26524e-01,9.99999e-01,9.99999e-01,9.72124e-01,7.47365e-01,9.99988e-01
9.964357318e-01,7.40187e-01,9.99999e-01,9.99999e-01,9.84721e-01,7.51676e-01,9.99992e-01
1.001417910e+00,7.48976e-01,9.99999e-01,9.99999e-01,9.90814e-01,7.55926e-01,9.99989e-01
1.006425000e+00,7.56125e-01,9.99999e-01,9.99999e-01,9.94763e-01,7.60116e-01,9.99984e-01
1.011457125e+00,7.61744e-01,9.99999e-01,9.99999e-01,9.96739e-01,7.64245e-01,9.99985e-01
1.016514411e+00,7.66609e-01,9.99999e-01,9.99999e-01,9.97788e-01,7.68315e-01,9.99989e-01
1.021596983e+00,7.70921e-01,9.99999e-01,9.99951e-01,9.98238e-01,7.72325e-01,9.99989e-01
1.026704968e+00,7.72229e-01,9.99999e-01,9.96158e-01,9.98626e-01,7.76276e-01,9.99993e-01
1.031838492e+00,7.46070e-01,9.99999e-01,9.57222e-01,9.99000e-01,7.80169e-01,9.99997e-01
1.036997685e+00,1.16436e-01,9.99999e-01,1.48585e-01,9.99406e-01,7.84004e-01,9.99999e-01
1.042182673e+00,8.63618e-02,9.99999e-01,1.09695e-01,9.99295e-01,7.87781e-01,9.99999e-01
1.047393587e+00,1.06312e-01,9.99999e-01,1.34428e-01,9.99063e-01,7.91502e-01,9.99999e-01
1.052630555e+00,2.58836e-03,9.99999e-01,3.25816e-03,9.98717e-01,7.95166e-01,9.99999e-01
1.057893707e+00,6.63088e-03,9.99999e-01,8.31314e-03,9.97861e-01,7.98774e-01,9.99998e-01
1.063183176e+00,2.33507e-02,9.99999e-01,2.91766e-02,9.96479e-01,8.02327e-01,9.99997e-01
1.068499092e+00,6.85561e-02,9.99999e-01,8.54971e-02,9.94103e-01,8.05825e-01,9.99995e-01
1.073841587e+00,1.69277e-01,9.99999e-01,2.10401e-01,9.93112e-01,8.09268e-01,9.99990e-01
1.079210795e+00,3.00470e-01,9.99999e-01,3.72738e-01,9.91156e-01,8.12658e-01,9.99975e-01
1.084606849e+00,4.67370e-01,9.99999e-01,5.80160e-01,9.86660e-01,8.15995e-01,9.99942e-01
1.090029883e+00,6.06177e-01,9.99999e-01,7.53914e-01,9.80980e-01,8.19279e-01,9.99881e-01
1.095480033e+00,6.79231e-01,9.99999e-01,8.69914e-01,9.48930e-01,8.22511e-01,9.99786e-01
1.100957433e+00,6.76055e-01,9.99999e-01,9.35072e-01,8.75338e-01,8.25692e-01,9.99607e-01
1.106462220e+00,5.75730e-01,9.99999e-01,9.72595e-01,7.13954e-01,8.28822e-01,9.99334e-01
1.111994531e+00,4.04678e-01,9.99999e-01,9.89754e-01,4.91981e-01,8.31901e-01,9.98235e-01
1.117554504e+00,2.63577e-01,9.99999e-01,9.97479e-01,3.18354e-01,8.34931e-01,9.93645e-01
1.123142276e+00,3.57583e-01,9.99999e-01,9.99833e-01,4.33288e-01,8.37911e-01,9.84997e-01
1.128757988e+00,4.82235e-01,9.99999e-01,9.99999e-01,5.83630e-01,8.40843e-01,9.82664e-01
1.134401778e+00,2.68411e-01,9.99999e-01,9.99999e-01,3.22891e-01,8.43727e-01,9.85240e-01
1.140073787e+00,6.05771e-01,9.99999e-01,9.99999e-01,7.24116e-01,8.46564e-01,9.88189e-01
1.145774156e+00,4.29595e-01,9.99999e-01,9.99999e-01,5.11320e-01,8.49354e-01,9.89183e-01
1.151503026e+00,4.02250e-01,9.99999e-01,9.99999e-01,4.74939e-01,8.52098e-01,9.93959e-01
1.157260541e+00,4.55755e-01,9.99999e-01,9.99999e-01,5.34141e-01,8.54796e-01,9.98189e-01
1.163046844e+00,5.38312e-01,9.99999e-01,9.99999e-01,6.28128e-01,8.57449e-01,9.99486e-01
1.168862078e+00,6.21884e-01,9.99999e-01,9.99999e-01,7.23263e-01,8.60057e-01,9.99735e-01
1.174706389e+00,7.06073e-01,9.99999e-01,9.99999e-01,8.18805e-01,8.62622e-01,9.99649e-01
1.180579921e+00,7.65499e-01,9.99999e-01,9.99999e-01,8.85291e-01,8.65144e-01,9.99469e-01
1.186482820e+00,8.09489e-01,9.99999e-01,9.99994e-01,9.33508e-01,8.67623e-01,9.99455e-01
1.192415234e+00,8.24297e-01,9.99999e-01,9.86426e-01,9.60675e-01,8.70060e-01,9.99592e-01
1.198377311e+00,4.75753e-01,9.99999e-01,5.61132e-01,9.66804e-01,8.72455e-01,9.99614e-01
1.204369197e+00,1.26343e-11,9.99999e-01,1.47164e-11,9.68537e-01,8.74810e-01,9.99651e-01
1.210391043e+00,1.68703e-42,9.99999e-01,1.95668e-42,9.69885e-01,8.77124e-01,9.99787e-01
1.216442998e+00,5.60462e-37,9.99999e-01,6.47735e-37,9.74279e-01,8.79398e-01,9.99869e-01
1.222525213e+00,1.92236e-36,9.99999e-01,2.20345e-36,9.79934e-01,8.81634e-01,9.99918e-01
1.228637839e+00,3.14934e-28,9.99999e-01,3.59822e-28,9.86034e-01,8.83830e-01,9.99962e-01
