#,Wave/freq,Total,N2,CO2,H2O,Rayleigh,CIA
4.000000000e-01,1.78758e-14,9.99999e-01,9.99999e-01,9.99938e-01,1.78769e-14,9.99999e-01
4.020000000e-01,3.34276e-14,9.99999e-01,9.99999e-01,9.99961e-01,3.34289e-14,9.99999e-01
4.040100000e-01,6.17016e-14,9.99999e-01,9.99999e-01,9.99983e-01,6.17026e-14,9.99999e-01
4.060300500e-01,1.12519e-13,9.99999e-01,9.99999e-01,9.99995e-01,1.12519e-13,9.99999e-01
4.080602003e-01,2.02767e-13,9.99999e-01,9.99999e-01,9.99998e-01,2.02767e-13,9.99999e-01
4.101005013e-01,3.61174e-13,9.99999e-01,9.99999e-01,9.99999e-01,3.61174e-13,9.99999e-01
4.121510038e-01,6.36035e-13,9.99999e-01,9.99999e-01,9.99997e-01,6.36037e-13,9.99999e-01
4.142117588e-01,1.10761e-12,9.99999e-01,9.99999e-01,9.99982e-01,1.10763e-12,9.99999e-01
4.162828176e-01,1.90772e-12,9.99999e-01,9.99999e-01,9.99924e-01,1.90786e-12,9.99999e-01
4.183642317e-01,3.25099e-12,9.99999e-01,9.99999e-01,9.99954e-01,3.25113e-12,9.99999e-01
4.204560528e-01,5.48199e-12,9.99999e-01,9.99999e-01,9.99972e-01,5.48214e-12,9.99999e-01
4.225583331e-01,9.14913e-12,9.99999e-01,9.99999e-01,9.99989e-01,9.14922e-12,9.99999e-01
4.246711247e-01,1.51154e-11,9.99999e-01,9.99999e-01,9.99991e-01,1.51156e-11,9.99999e-01
4.267944804e-01,2.47259e-11,9.99999e-01,9.99999e-01,9.99987e-01,2.47262e-11,9.99999e-01
4.289284528e-01,4.00557e-11,9.99999e-01,9.99999e-01,9.99990e-01,4.00561e-11,9.99999e-01
4.310730950e-01,6.42747e-11,9.99999e-01,9.99999e-01,9.99995e-01,6.42750e-11,9.99999e-01
4.332284605e-01,1.02178e-10,9.99999e-01,9.99999e-01,9.99998e-01,1.02178e-10,9.99999e-01
4.353946028e-01,1.60953e-10,9.99999e-01,9.99999e-01,9.99999e-01,1.60953e-10,9.99999e-01
4.375715758e-01,2.51268e-10,9.99999e-01,9.99999e-01,9.99992e-01,2.51270e-10,9.99999e-01
4.397594337e-01,3.88805e-10,9.99999e-01,9.99999e-01,9.99933e-01,3.88831e-10,9.99999e-01
4.419582309e-01,5.96335e-10,9.99999e-01,9.99999e-01,9.99662e-01,5.96536e-10,9.99999e-01
4.441680220e-01,9.07250e-10,9.99999e-01,9.99999e-01,9.99737e-01,9.07488e-10,9.99999e-01
4.463888621e-01,1.36876e-09,9.99999e-01,9.99999e-01,9.99726e-01,1.36913e-09,9.99999e-01
4.486208064e-01,2.04856e-09,9.99999e-01,9.99999e-01,9.99829e-01,2.04891e-09,9.99999e-01
4.508639105e-01,3.04164e-09,9.99999e-01,9.99999e-01,9.99920e-01,3.04188e-09,9.99999e-01
4.531182300e-01,4.48082e-09,9.99999e-01,9.99999e-01,9.99968e-01,4.48096e-09,9.99999e-01
4.553838212e-01,6.55040e-09,9.99999e-01,9.99999e-01,9.99978e-01,6.55054e-09,9.99999e-01
4.576607403e-01,9.50433e-09,9.99999e-01,9.99999e-01,9.99989e-01,9.50442e-09,9.99999e-01
4.599490440e-01,1.36892e-08,9.99999e-01,9.99999e-01,9.99992e-01,1.36893e-08,9.99999e-01
4.622487892e-01,1.95752e-08,9.99999e-01,9.99999e-01,9.99998e-01,1.95753e-08,9.99999e-01
4.645600332e-01,2.77948e-08,9.99999e-01,9.99999e-01,9.99994e-01,2.77949e-08,9.99999e-01
4.668828333e-01,3.91905e-08,9.99999e-01,9.99999e-01,9.99919e-01,3.91937e-08,9.99999e-01
4.692172475e-01,5.48838e-08,9.99999e-01,9.99999e-01,9.99828e-01,5.48932e-08,9.99999e-01
4.715633337e-01,7.63628e-08,9.99999e-01,9.99999e-01,9.99887e-01,7.63714e-08,9.99999e-01
4.739211504e-01,1.05551e-07,9.99999e-01,9.99999e-01,9.99892e-01,1.05563e-07,9.99999e-01
4.762907561e-01,1.44974e-07,9.99999e-01,9.99999e-01,9.99943e-01,1.44982e-07,9.99999e-01
4.786722099e-01,1.97872e-07,9.99999e-01,9.99999e-01,9.99976e-01,1.97877e-07,9.99999e-01
4.810655710e-01,2.68413e-07,9.99999e-01,9.99999e-01,9.99992e-01,2.68415e-07,9.99999e-01
4.834708988e-01,3.61890e-07,9.99999e-01,9.99999e-01,9.99933e-01,3.61913e-07,9.99999e-01
4.858882533e-01,4.85049e-07,9.99999e-01,9.99999e-01,9.99878e-01,4.85108e-07,9.99999e-01
4.883176946e-01,6.46419e-07,9.99999e-01,9.99999e-01,9.99898e-01,6.46485e-07,9.99999e-01
4.907592831e-01,8.56595e-07,9.99999e-01,9.99999e-01,9.99907e-01,8.56673e-07,9.99999e-01
4.932130795e-01,1.12883e-06,9.99999e-01,9.99999e-01,9.99934e-01,1.12890e-06,9.99999e-01
4.956791449e-01,1.47951e-06,9.99999e-01,9.99999e-01,9.99965e-01,1.47956e-06,9.99999e-01
4.981575406e-01,1.92846e-06,9.99999e-01,9.99999e-01,9.99827e-01,1.92880e-06,9.99999e-01
5.006483283e-01,2.50018e-06,9.99999e-01,9.99999e-01,9.99552e-01,2.50130e-06,9.99996e-01
5.031515699e-01,3.21975e-06,9.99999e-01,9.99999e-01,9.97736e-01,3.22713e-06,9.99975e-01
5.056673278e-01,4.13761e-06,9.99999e-01,9.99999e-01,9.98805e-01,4.14267e-06,9.99972e-01
5.081956644e-01,5.28373e-06,9.99999e-01,9.99999e-01,9.98493e-01,5.29179e-06,9.99981e-01
5.107366428e-01,6.72018e-06,9.99999e-01,9.99999e-01,9.98982e-01,6.72705e-06,9.99996e-01
5.132903260e-01,8.50619e-06,9.99999e-01,9.99999e-01,9.99418e-01,8.51114e-06,9.99999e-01
5.158567776e-01,1.07158e-05,9.99999e-01,9.99999e-01,9.99754e-01,1.07185e-05,9.99999e-01
5.184360615e-01,1.34356e-05,9.99999e-01,9.99999e-01,9.99901e-01,1.34369e-05,9.99999e-01
5.210282418e-01,1.67692e-05,9.99999e-01,9.99999e-01,9.99962e-01,1.67698e-05,9.99999e-01
5.236333830e-01,2.08349e-05,9.99999e-01,9.99999e-01,9.99852e-01,2.08380e-05,9.99998e-01
5.262515499e-01,2.57798e-05,9.99999e-01,9.99999e-01,9.99907e-01,2.57822e-05,9.99998e-01
5.288828077e-01,3.17629e-05,9.99999e-01,9.99999e-01,9.99914e-01,3.17657e-05,9.99998e-01
5.315272217e-01,3.89738e-05,9.99999e-01,9.99999e-01,9.99925e-01,3.89767e-05,9.99999e-01
5.341848578e-01,4.76296e-05,9.99999e-01,9.99999e-01,9.99950e-01,4.76319e-05,9.99999e-01
5.368557821e-01,5.79689e-05,9.99999e-01,9.99999e-01,9.99827e-01,5.79789e-05,9.99999e-01
5.395400610e-01,7.02561e-05,9.99999e-01,9.99999e-01,9.99379e-01,7.03001e-05,9.99994e-01
5.422377613e-01,8.48466e-05,9.99999e-01,9.99999e-01,9.99198e-01,8.49159e-05,9.99985e-01
5.449489501e-01,1.02111e-04,9.99999e-01,9.99999e-01,9.99254e-01,1.02188e-04,9.99984e-01
5.476736949e-01,1.22444e-04,9.99999e-01,9.99999e-01,9.99339e-01,1.22525e-04,9.99992e-01
5.504120634e-01,1.46313e-04,9.99999e-01,9.99999e-01,9.99520e-01,1.46384e-04,9.99997e-01
5.531641237e-01,1.74232e-04,9.99999e-01,9.99999e-01,9.99758e-01,1.74274e-04,9.99999e-01
5.559299443e-01,2.06742e-04,9.99999e-01,9.99999e-01,9.99883e-01,2.06766e-04,9.99999e-01
5.587095940e-01,2.44470e-04,9.99999e-01,9.99999e-01,9.99926e-01,2.44488e-04,9.99999e-01
5.615031420e-01,2.88113e-04,9.99999e-01,9.99999e-01,9.99918e-01,2.88136e-04,9.99999e-01
5.643106577e-01,3.38446e-04,9.99999e-01,9.99999e-01,9.99907e-01,3.38477e-04,9.99998e-01
5.671322110e-01,3.95903e-04,9.99999e-01,9.99999e-01,9.98878e-01,3.96351e-04,9.99989e-01
5.699678720e-01,4.62111e-04,9.99999e-01,9.99999e-01,9.98810e-01,4.62675e-04,9.99969e-01
5.728177114e-01,5.37769e-04,9.99999e-01,9.99999e-01,9.98759e-01,5.38450e-04,9.99974e-01
5.756818000e-01,6.24040e-04,9.99999e-01,9.99999e-01,9.98862e-01,6.24760e-04,9.99983e-01
5.785602090e-01,7.22060e-04,9.99999e-01,9.99999e-01,9.99008e-01,7.22780e-04,9.99994e-01
5.814530100e-01,8.32942e-04,9.99999e-01,9.99999e-01,9.99003e-01,8.33774e-04,9.99997e-01
5.843602750e-01,9.57958e-04,9.99999e-01,9.99999e-01,9.98811e-01,9.59103e-04,9.99992e-01
5.872820764e-01,1.08893e-03,9.99999e-01,9.99999e-01,9.89809e-01,1.10022e-03,9.99927e-01
5.902184868e-01,1.24292e-03,9.99999e-01,9.99999e-01,9.87662e-01,1.25869e-03,9.99803e-01
5.931695792e-01,1.42336e-03,9.99999e-01,9.99999e-01,9.91273e-01,1.43616e-03,9.99811e-01
5.961354271e-01,1.61858e-03,9.99999e-01,9.99999e-01,9.90435e-01,1.63439e-03,9.99891e-01
5.991161043e-01,1.84221e-03,9.99999e-01,9.99999e-01,9.93015e-01,1.85523e-03,9.99966e-01
6.021116848e-01,2.09231e-03,9.99999e-01,9.99999e-01,9.96031e-01,2.10065e-03,9.99995e-01
6.051222432e-01,2.36794e-03,9.99999e-01,9.99999e-01,9.97990e-01,2.37271e-03,9.99999e-01
6.081478544e-01,2.67124e-03,9.99999e-01,9.99999e-01,9.99132e-01,2.67356e-03,9.99999e-01
6.111885937e-01,3.00436e-03,9.99999e-01,9.99999e-01,9.99632e-01,3.00546e-03,9.99999e-01
6.142445367e-01,3.37021e-03,9.99999e-01,9.99999e-01,9.99835e-01,3.37077e-03,9.99999e-01
6.173157594e-01,3.77158e-03,9.99999e-01,9.99999e-01,9.99909e-01,3.77192e-03,9.99999e-01
6.204023382e-01,4.21112e-03,9.99999e-01,9.99999e-01,9.99923e-01,4.21144e-03,9.99999e-01
6.235043498e-01,4.69037e-03,9.99999e-01,9.99999e-01,9.99662e-01,4.69196e-03,9.99998e-01
6.266218716e-01,5.20679e-03,9.99999e-01,9.99999e-01,9.98216e-01,5.21616e-03,9.99987e-01
6.297549810e-01,5.78287e-03,9.99999e-01,9.99999e-01,9.99345e-01,5.78680e-03,9.99974e-01
6.329037559e-01,6.39832e-03,9.99999e-01,9.99999e-01,9.98707e-01,6.40673e-03,9.99979e-01
6.360682746e-01,7.07094e-03,9.99999e-01,9.99999e-01,9.98898e-01,7.07881e-03,9.99987e-01
6.392486160e-01,7.79483e-03,9.99999e-01,9.99999e-01,9.98573e-01,7.80601e-03,9.99994e-01
6.424448591e-01,8.57482e-03,9.99999e-01,9.99999e-01,9.98089e-01,8.59130e-03,9.99991e-01
6.456570834e-01,9.35382e-03,9.99999e-01,9.99999e-01,9.91159e-01,9.43770e-03,9.99950e-01
6.488853688e-01,1.02799e-02,9.99999e-01,9.99999e-01,9.93528e-01,1.03483e-02,9.99862e-01
6.521297956e-01,1.12501e-02,9.99999e-01,9.99999e-01,9.93405e-01,1.13261e-02,9.99886e-01
6.553904446e-01,1.22918e-02,9.99999e-01,9.99999e-01,9.93428e-01,1.23742e-02,9.99915e-01
6.586673968e-01,1.34193e-02,9.99999e-01,9.99999e-01,9.94373e-01,1.34956e-02,9.99971e-01
6.619607338e-01,1.46473e-02,9.99999e-01,9.99999e-01,9.96860e-01,1.46935e-02,9.99993e-01
6.652705375e-01,1.59408e-02,9.99999e-01,9.99999e-01,9.98114e-01,1.59709e-02,9.99996e-01
6.685968902e-01,1.73156e-02,9.99999e-01,9.99999e-01,9.99123e-01,1.73308e-02,9.99998e-01
6.719398746e-01,1.87685e-02,9.99999e-01,9.99999e-01,9.99593e-01,1.87762e-02,9.99999e-01
6.752995740e-01,2.03054e-02,9.99999e-01,9.99999e-01,9.99779e-01,2.03099e-02,9.99999e-01
6.786760719e-01,2.19278e-02,9.99999e-01,9.99999e-01,9.99681e-01,2.19348e-02,9.99999e-01
6.820694522e-01,2.36409e-02,9.99999e-01,9.99999e-01,9.99455e-01,2.36538e-02,9.99996e-01
6.854797995e-01,2.54515e-02,9.99999e-01,9.99999e-01,9.99297e-01,2.54695e-02,9.99993e-01
6.889071985e-01,2.73376e-02,9.99999e-01,9.99999e-01,9.98299e-01,2.73845e-02,9.99984e-01
6.923517345e-01,2.85924e-02,9.99999e-01,9.99999e-01,9.72613e-01,2.94014e-02,9.99866e-01
6.958134932e-01,3.10629e-02,9.99999e-01,9.99999e-01,9.85704e-01,3.15226e-02,9.99705e-01
6.992925606e-01,3.32815e-02,9.99999e-01,9.99999e-01,9.86368e-01,3.37503e-02,9.99734e-01
7.027890234e-01,3.54736e-02,9.99999e-01,9.99999e-01,9.83205e-01,3.60868e-02,9.99797e-01
7.063029686e-01,3.79851e-02,9.99999e-01,9.99999e-01,9.85855e-01,3.85340e-02,9.99898e-01
7.098344834e-01,4.05336e-02,9.99999e-01,9.99999e-01,9.86422e-01,4.10939e-02,9.99939e-01
7.133836558e-01,4.29730e-02,9.99999e-01,9.99999e-01,9.81948e-01,4.37682e-02,9.99881e-01
7.169505741e-01,4.02324e-02,9.99999e-01,9.99999e-01,8.64931e-01,4.65585e-02,9.99067e-01
7.205353270e-01,4.59952e-02,9.99999e-01,9.99999e-01,9.31358e-01,4.94663e-02,9.98356e-01
7.241380036e-01,4.78778e-02,9.99999e-01,9.99999e-01,9.13378e-01,5.24928e-02,9.98580e-01
7.277586936e-01,5.12132e-02,9.99999e-01,9.99999e-01,9.21520e-01,5.56392e-02,9.98839e-01
7.313974871e-01,5.39638e-02,9.99999e-01,9.99999e-01,9.16591e-01,5.89065e-02,9.99455e-01
7.350544745e-01,5.93859e-02,9.99999e-01,9.99999e-01,9.53475e-01,6.22953e-02,9.99810e-01
7.387297469e-01,6.35313e-02,9.99999e-01,9.99999e-01,9.65511e-01,6.58063e-02,9.99912e-01
7.424233956e-01,6.82565e-02,9.99999e-01,9.99999e-01,9.82971e-01,6.94400e-02,9.99982e-01
7.461355126e-01,7.24384e-02,9.99999e-01,9.99999e-01,9.89644e-01,7.31966e-02,9.99996e-01
7.498661902e-01,7.67036e-02,9.99999e-01,9.99999e-01,9.95167e-01,7.70762e-02,9.99998e-01
7.536155211e-01,8.08861e-02,9.99999e-01,9.99999e-01,9.97626e-01,8.10786e-02,9.99998e-01
7.573835987e-01,8.50995e-02,9.99999e-01,9.99999e-01,9.98777e-01,8.52036e-02,9.99999e-01
7.611705167e-01,8.93828e-02,9.99999e-01,9.99999e-01,9.99240e-01,8.94508e-02,9.99999e-01
7.649763693e-01,9.37748e-02,9.99999e-01,9.99999e-01,9.99523e-01,9.38194e-02,9.99999e-01
7.688012511e-01,9.82762e-02,9.99999e-01,9.99999e-01,9.99668e-01,9.83088e-02,9.99999e-01
7.726452574e-01,1.02890e-01,9.99999e-01,9.99999e-01,9.99726e-01,1.02918e-01,9.99999e-01
7.765084837e-01,1.07604e-01,9.99999e-01,9.99999e-01,9.99611e-01,1.07646e-01,9.99999e-01
7.803910261e-01,1.02836e-01,9.99999e-01,9.15589e-01,9.98323e-01,1.12491e-01,9.99997e-01
7.842929812e-01,7.60186e-02,9.99999e-01,6.50592e-01,9.94158e-01,1.17452e-01,9.99988e-01
7.882144461e-01,7.69317e-02,9.99999e-01,6.34796e-01,9.88006e-01,1.22527e-01,9.99916e-01
7.921555184e-01,9.60333e-02,9.99999e-01,7.56712e-01,9.93411e-01,1.27715e-01,9.99855e-01
7.961162960e-01,1.08900e-01,9.99999e-01,8.28202e-01,9.88372e-01,1.33014e-01,9.99862e-01
8.000968774e-01,1.23274e-01,9.99999e-01,9.02715e-01,9.86577e-01,1.38421e-01,9.99854e-01
8.040973618e-01,1.34656e-01,9.99999e-01,9.48300e-01,9.86575e-01,1.43935e-01,9.99884e-01
8.081178486e-01,1.41574e-01,9.99999e-01,9.75892e-01,9.70017e-01,1.49552e-01,9.99891e-01
8.121584379e-01,1.35798e-01,9.99999e-01,9.92501e-01,8.81373e-01,1.55272e-01,9.99574e-01
8.162192301e-01,1.38280e-01,9.99999e-01,9.98339e-01,8.61122e-01,1.61091e-01,9.98400e-01
8.203003262e-01,1.54878e-01,9.99999e-01,9.99975e-01,9.29129e-01,1.67007e-01,9.98127e-01
8.244018279e-01,1.56036e-01,9.99999e-01,9.99999e-01,9.03205e-01,1.73016e-01,9.98509e-01
8.285238370e-01,1.63573e-01,9.99999e-01,9.99999e-01,9.14291e-01,1.79117e-01,9.98829e-01
8.326664562e-01,1.69202e-01,9.99999e-01,9.99999e-01,9.13538e-01,1.85306e-01,9.99515e-01
8.368297885e-01,1.79534e-01,9.99999e-01,9.99999e-01,9.37226e-01,1.91580e-01,9.99888e-01
8.410139374e-01,1.90439e-01,9.99999e-01,9.99999e-01,9.62186e-01,1.97936e-01,9.99934e-01
8.452190071e-01,2.00536e-01,9.99999e-01,9.99999e-01,9.81269e-01,2.04371e-01,9.99960e-01
8.494451021e-01,2.08575e-01,9.99999e-01,9.99999e-01,9.89084e-01,2.10883e-01,9.99968e-01
8.536923276e-01,2.16057e-01,9.99999e-01,9.99999e-01,9.93534e-01,2.17467e-01,9.99980e-01
8.579607893e-01,2.23226e-01,9.99999e-01,9.99999e-01,9.96012e-01,2.24120e-01,9.99994e-01
8.622505932e-01,2.30255e-01,9.99999e-01,9.99999e-01,9.97465e-01,2.30840e-01,9.99998e-01
8.665618462e-01,2.06539e-01,9.99999e-01,8.70468e-01,9.98431e-01,2.37622e-01,9.99999e-01
8.708946554e-01,8.46910e-02,9.99999e-01,3.47008e-01,9.98203e-01,2.44464e-01,9.99998e-01
8.752491287e-01,1.03964e-01,9.99999e-01,4.14532e-01,9.97597e-01,2.51362e-01,9.99996e-01
8.796253743e-01,1.56920e-01,9.99999e-01,6.09359e-01,9.96673e-01,2.58312e-01,9.99992e-01
8.840235012e-01,2.03535e-01,9.99999e-01,7.69971e-01,9.96201e-01,2.65311e-01,9.99976e-01
8.884436187e-01,2.42241e-01,9.99999e-01,9.01550e-01,9.86230e-01,2.72357e-01,9.99933e-01
8.928858368e-01,2.31952e-01,9.99999e-01,9.58779e-01,8.65131e-01,2.79445e-01,9.99619e-01
8.973502660e-01,2.19490e-01,9.99999e-01,9.89835e-01,7.74832e-01,2.86571e-01,9.98054e-01
9.018370173e-01,2.56852e-01,9.99999e-01,9.98875e-01,8.78021e-01,2.93734e-01,9.96943e-01
9.063462024e-01,2.60655e-01,9.99999e-01,9.71883e-01,8.91350e-01,3.00928e-01,9.97314e-01
9.108779334e-01,2.40955e-01,9.99999e-01,9.35838e-01,8.35983e-01,3.08152e-01,9.97209e-01
9.154323231e-01,2.52865e-01,9.99999e-01,9.84565e-01,8.15411e-01,3.15401e-01,9.97693e-01
9.200094847e-01,2.29620e-01,9.99999e-01,8.18905e-01,8.52702e-01,3.22672e-01,9.98708e-01
9.246095321e-01,1.89765e-01,9.99999e-01,7.24178e-01,7.84861e-01,3.29963e-01,9.98511e-01
9.292325798e-01,5.95623e-02,9.99999e-01,7.79661e-01,2.16178e-01,3.37269e-01,9.94209e-01
9.338787427e-01,3.84120e-02,9.99999e-01,7.84206e-01,1.38659e-01,3.44588e-01,9.76277e-01
9.385481364e-01,1.30801e-01,9.99999e-01,8.35251e-01,4.47171e-01,3.51916e-01,9.71849e-01
9.432408771e-01,1.07969e-01,9.99999e-01,8.95163e-01,3.39472e-01,3.59251e-01,9.75666e-01
9.479570815e-01,7.69260e-02,9.99999e-01,9.44701e-01,2.25099e-01,3.66590e-01,9.80150e-01
9.526968669e-01,1.13998e-01,9.99999e-01,9.72976e-01,3.15612e-01,3.73929e-01,9.87845e-01
9.574603512e-01,1.25145e-01,9.99999e-01,9.88345e-01,3.33527e-01,3.81265e-01,9.93807e-01
9.622476530e-01,1.55627e-01,9.99999e-01,9.96350e-01,4.03452e-01,3.88597e-01,9.95713e-01
9.670588912e-01,2.32612e-01,9.99999e-01,9.98905e-01,5.89806e-01,3.95920e-01,9.97066e-01
9.718941857e-01,2.86999e-01,9.99999e-01,9.99922e-01,7.13330e-01,4.03233e-01,9.97839e-01
9.767536566e-01,3.09498e-01,9.99999e-01,9.99999e-01,7.55141e-01,4.10532e-01,9.98348e-01
9.816374249e-01,3.38821e-01,9.99999e-01,9.99999e-01,8.11399e-01,4.17815e-01,9.99427e-01
9.865456120e-01,3.72874e-01,9.99999e-01,9.99999e-01,8.77289e-01,4.25080e-01,9.99880e-01
9.914783401e-01,3.98641e-01,9.99999e-01,9.99999e-01,9.22119e-01,4.32324e-01,9.99966e-01
9.964357318e-01,4.20549e-01,9.99999e-01,9.99999e-01,9.56802e-01,4.39545e-01,9.99980e-01
1.001417910e+00,4.35055e-01,9.99999e-01,9.99999e-01,9.73872e-01,4.46740e-01,9.99970e-01
1.006425000e+00,4.47087e-01,9.99999e-01,9.99999e-01,9.85016e-01,4.53907e-01,9.99957e-01
1.011457125e+00,4.56729e-01,9.99999e-01,9.99999e-01,9.90677e-01,4.61044e-01,9.99960e-01
1.016514411e+00,4.65169e-01,9.99999e-01,9.99999e-01,9.93660e-01,4.68149e-01,9.99972e-01
1.021596983e+00,4.72733e-01,9.99999e-01,9.99845e-01,9.94945e-01,4.75220e-01,9.99971e-01
1.026704968e+00,4.74975e-01,9.99999e-01,9.88805e-01,9.96055e-01,4.82256e-01,9.99981e-01
1.031838492e+00,4.42646e-01,9.99999e-01,9.07203e-01,9.97132e-01,4.89253e-01,9.99994e-01
1.036997685e+00,2.64038e-02,9.99999e-01,5.32795e-02,9.98295e-01,4.96210e-01,9.99998e-01
1.042182673e+00,2.09673e-03,9.99999e-01,4.17394e-03,9.97967e-01,5.03126e-01,9.99999e-01
1.047393587e+00,5.28673e-03,9.99999e-01,1.03895e-02,9.97306e-01,5.10000e-01,9.99998e-01
1.052630555e+00,8.44477e-07,9.99999e-01,1.63780e-06,9.96304e-01,5.16828e-01,9.99998e-01
1.057893707e+00,3.18102e-06,9.99999e-01,6.09481e-06,9.93836e-01,5.23610e-01,9.99997e-01
1.063183176e+00,7.19598e-05,9.99999e-01,1.36490e-04,9.89879e-01,5.30345e-01,9.99994e-01
1.068499092e+00,6.73835e-04,9.99999e-01,1.26918e-03,9.83112e-01,5.37031e-01,9.99988e-01
1.073841587e+00,7.32746e-03,9.99999e-01,1.36742e-02,9.80277e-01,5.43666e-01,9.99974e-01
1.079210795e+00,3.63723e-02,9.99999e-01,6.74542e-02,9.74787e-01,5.50250e-01,9.99931e-01
1.084606849e+00,1.16661e-01,9.99999e-01,2.16833e-01,9.62100e-01,5.56781e-01,9.99835e-01
1.090029883e+00,2.40215e-01,9.99999e-01,4.49030e-01,9.46068e-01,5.63259e-01,9.99660e-01
1.095480033e+00,3.31039e-01,9.99999e-01,6.73009e-01,8.59924e-01,5.69681e-01,9.99386e-01
1.100957433e+00,3.26717e-01,9.99999e-01,8.25495e-01,6.83886e-01,5.76048e-01,9.98871e-01
1.106462220e+00,2.12479e-01,9.99999e-01,9.23651e-01,3.92887e-01,5.82359e-01,9.98086e-01
1.111994531e+00,8.38980e-02,9.99999e-01,9.70957e-01,1.46806e-01,5.88611e-01,9.94928e-01
1.117554504e+00,2.86057e-02,9.99999e-01,9.92836e-01,4.91975e-02,5.94805e-01,9.81811e-01
1.123142276e+00,7.22296e-02,9.99999e-01,9.99528e-01,1.25550e-01,6.00941e-01,9.57404e-01
1.128757988e+00,1.37805e-01,9.99999e-01,9.99999e-01,2.38744e-01,6.07016e-01,9.50890e-01
1.134401778e+00,6.25872e-02,9.99999e-01,9.99999e-01,1.06561e-01,6.13031e-01,9.58085e-01
1.140073787e+00,2.45528e-01,9.99999e-01,9.99999e-01,4.10466e-01,6.18985e-01,9.66367e-01
1.145774156e+00,1.05131e-01,9.99999e-01,9.99999e-01,1.73595e-01,6.24878e-01,9.69169e-01
1.151503026e+00,8.96899e-02,9.99999e-01,9.99999e-01,1.44707e-01,6.30708e-01,9.82705e-01
1.157260541e+00,1.13490e-01,9.99999e-01,9.99999e-01,1.79242e-01,6.36477e-01,9.94797e-01
1.163046844e+00,1.77908e-01,9.99999e-01,9.99999e-01,2.77446e-01,6.42182e-01,9.98522e-01
1.168862078e+00,2.59399e-01,9.99999e-01,9.99999e-01,4.00721e-01,6.47825e-01,9.99238e-01
1.174706389e+00,3.70653e-01,9.99999e-01,9.99999e-01,5.67837e-01,6.53404e-01,9.98990e-01
1.180579921e+00,4.65296e-01,9.99999e-01,9.99999e-01,7.07228e-01,6.58919e-01,9.98474e-01
1.186482820e+00,5.44719e-01,9.99999e-01,9.99978e-01,8.21200e-01,6.64371e-01,9.98433e-01
1.192415234e+00,5.74114e-01,9.99999e-01,9.61798e-01,8.91153e-01,6.69759e-01,9.98826e-01
1.198377311e+00,3.23057e-01,9.99999e-01,5.19394e-01,9.07465e-01,6.75083e-01,9.98891e-01
1.204369197e+00,3.00733e-29,9.99999e-01,4.66620e-29,9.12441e-01,6.80343e-01,9.98997e-01
1.210391043e+00,3.64759e-118,9.99999e-01,5.59052e-118,9.15970e-01,6.85538e-01,9.99389e-01
1.216442998e+00,2.91120e-102,9.99999e-01,4.41637e-102,9.28070e-01,6.90670e-01,9.99626e-01
1.222525213e+00,1.01026e-100,9.99999e-01,1.49662e-100,9.43461e-01,6.95737e-01,9.99767e-01
1.228637839e+00,1.03347e-77,9.99999e-01,1.51568e-77,9.60379e-01,7.00741e-01,9.99891e-01
