#,Wave/freq,Total,N2,CO2,H2O,Rayleigh,CIA
4.000000000e-01,1.08648e-06,9.99999e-01,9.99999e-01,9.99973e-01,1.08651e-06,9.99999e-01
4.020000000e-01,1.42544e-06,9.99999e-01,9.99999e-01,9.99983e-01,1.42547e-06,9.99999e-01
4.040100000e-01,1.85963e-06,9.99999e-01,9.99999e-01,9.99992e-01,1.85965e-06,9.99999e-01
4.060300500e-01,2.41336e-06,9.99999e-01,9.99999e-01,9.99997e-01,2.41337e-06,9.99999e-01
4.080602003e-01,3.11588e-06,9.99999e-01,9.99999e-01,9.99998e-01,3.11588e-06,9.99999e-01
4.101005013e-01,4.00264e-06,9.99999e-01,9.99999e-01,9.99999e-01,4.00264e-06,9.99999e-01
4.121510038e-01,5.11638e-06,9.99999e-01,9.99999e-01,9.99998e-01,5.11638e-06,9.99999e-01
4.142117588e-01,6.50835e-06,9.99999e-01,9.99999e-01,9.99992e-01,6.50840e-06,9.99999e-01
4.162828176e-01,8.23961e-06,9.99999e-01,9.99999e-01,9.99966e-01,8.23988e-06,9.99999e-01
4.183642317e-01,1.03833e-05,9.99999e-01,9.99999e-01,9.99980e-01,1.03835e-05,9.99999e-01
4.204560528e-01,1.30250e-05,9.99999e-01,9.99999e-01,9.99987e-01,1.30252e-05,9.99999e-01
4.225583331e-01,1.62659e-05,9.99999e-01,9.99999e-01,9.99995e-01,1.62659e-05,9.99999e-01
4.246711247e-01,2.02240e-05,9.99999e-01,9.99999e-01,9.99995e-01,2.02240e-05,9.99999e-01
4.267944804e-01,2.50372e-05,9.99999e-01,9.99999e-01,9.99994e-01,2.50374e-05,9.99999e-01
4.289284528e-01,3.08657e-05,9.99999e-01,9.99999e-01,9.99995e-01,3.08658e-05,9.99999e-01
4.310730950e-01,3.78941e-05,9.99999e-01,9.99999e-01,9.99997e-01,3.78941e-05,9.99999e-01
4.332284605e-01,4.63346e-05,9.99999e-01,9.99999e-01,9.99999e-01,4.63347e-05,9.99999e-01
4.353946028e-01,5.64306e-05,9.99999e-01,9.99999e-01,9.99999e-01,5.64306e-05,9.99999e-01
4.375715758e-01,6.84592e-05,9.99999e-01,9.99999e-01,9.99996e-01,6.84594e-05,9.99999e-01
4.397594337e-01,8.27334e-05,9.99999e-01,9.99999e-01,9.99970e-01,8.27358e-05,9.99999e-01
4.419582309e-01,9.96013e-05,9.99999e-01,9.99999e-01,9.99851e-01,9.96160e-05,9.99999e-01
4.441680220e-01,1.19488e-04,9.99999e-01,9.99999e-01,9.99886e-01,1.19501e-04,9.99999e-01
4.463888621e-01,1.42824e-04,9.99999e-01,9.99999e-01,9.99880e-01,1.42841e-04,9.99999e-01
4.486208064e-01,1.70127e-04,9.99999e-01,9.99999e-01,9.99926e-01,1.70139e-04,9.99999e-01
4.508639105e-01,2.01949e-04,9.99999e-01,9.99999e-01,9.99965e-01,2.01956e-04,9.99999e-01
4.531182300e-01,2.38908e-04,9.99999e-01,9.99999e-01,9.99985e-01,2.38911e-04,9.99999e-01
4.553838212e-01,2.81690e-04,9.99999e-01,9.99999e-01,9.99990e-01,2.81692e-04,9.99999e-01
4.576607403e-01,3.31054e-04,9.99999e-01,9.99999e-01,9.99995e-01,3.31055e-04,9.99999e-01
4.599490440e-01,3.87829e-04,9.99999e-01,9.99999e-01,9.99996e-01,3.87830e-04,9.99999e-01
4.622487892e-01,4.52923e-04,9.99999e-01,9.99999e-01,9.99998e-01,4.52923e-04,9.99999e-01
4.645600332e-01,5.27321e-04,9.99999e-01,9.99999e-01,9.99997e-01,5.27322e-04,9.99999e-01
4.668828333e-01,6.12080e-04,9.99999e-01,9.99999e-01,9.99964e-01,6.12101e-04,9.99999e-01
4.692172475e-01,7.08368e-04,9.99999e-01,9.99999e-01,9.99925e-01,7.08421e-04,9.99999e-01
4.715633337e-01,8.17494e-04,9.99999e-01,9.99999e-01,9.99950e-01,8.17534e-04,9.99999e-01
4.739211504e-01,9.40744e-04,9.99999e-01,9.99999e-01,9.99953e-01,9.40787e-04,9.99999e-01
4.762907561e-01,1.07960e-03,9.99999e-01,9.99999e-01,9.99975e-01,1.07962e-03,9.99999e-01
4.786722099e-01,1.23557e-03,9.99999e-01,9.99999e-01,9.99989e-01,1.23559e-03,9.99999e-01
4.810655710e-01,1.41031e-03,9.99999e-01,9.99999e-01,9.99996e-01,1.41031e-03,9.99999e-01
4.834708988e-01,1.60550e-03,9.99999e-01,9.99999e-01,9.99970e-01,1.60555e-03,9.99999e-01
4.858882533e-01,1.82304e-03,9.99999e-01,9.99999e-01,9.99947e-01,1.82314e-03,9.99999e-01
4.883176946e-01,2.06493e-03,9.99999e-01,9.99999e-01,9.99955e-01,2.06502e-03,9.99999e-01
4.907592831e-01,2.33316e-03,9.99999e-01,9.99999e-01,9.99959e-01,2.33325e-03,9.99999e-01
4.932130795e-01,2.62990e-03,9.99999e-01,9.99999e-01,9.99971e-01,2.62997e-03,9.99999e-01
4.956791449e-01,2.95738e-03,9.99999e-01,9.99999e-01,9.99984e-01,2.95742e-03,9.99999e-01
4.981575406e-01,3.31770e-03,9.99999e-01,9.99999e-01,9.99924e-01,3.31794e-03,9.99999e-01
5.006483283e-01,3.71324e-03,9.99999e-01,9.99999e-01,9.99804e-01,3.71397e-03,9.99998e-01
5.031515699e-01,4.14389e-03,9.99999e-01,9.99999e-01,9.99015e-01,4.14801e-03,9.99989e-01
5.056673278e-01,4.62023e-03,9.99999e-01,9.99999e-01,9.99481e-01,4.62268e-03,9.99987e-01
5.081956644e-01,5.13725e-03,9.99999e-01,9.99999e-01,9.99346e-01,5.14064e-03,9.99992e-01
5.107366428e-01,5.70215e-03,9.99999e-01,9.99999e-01,9.99558e-01,5.70467e-03,9.99998e-01
5.132903260e-01,6.31599e-03,9.99999e-01,9.99999e-01,9.99748e-01,6.31758e-03,9.99999e-01
5.158567776e-01,6.98151e-03,9.99999e-01,9.99999e-01,9.99893e-01,6.98225e-03,9.99999e-01
5.184360615e-01,7.70128e-03,9.99999e-01,9.99999e-01,9.99957e-01,7.70161e-03,9.99999e-01
5.210282418e-01,8.47852e-03,9.99999e-01,9.99999e-01,9.99983e-01,8.47865e-03,9.99999e-01
5.236333830e-01,9.31579e-03,9.99999e-01,9.99999e-01,9.99935e-01,9.31639e-03,9.99999e-01
5.262515499e-01,1.02174e-02,9.99999e-01,9.99999e-01,9.99959e-01,1.02179e-02,9.99998e-01
5.288828077e-01,1.11857e-02,9.99999e-01,9.99999e-01,9.99962e-01,1.11861e-02,9.99999e-01
5.315272217e-01,1.22239e-02,9.99999e-01,9.99999e-01,9.99967e-01,1.22243e-02,9.99999e-01
5.341848578e-01,1.33351e-02,9.99999e-01,9.99999e-01,9.99978e-01,1.33354e-02,9.99999e-01
5.368557821e-01,1.45214e-02,9.99999e-01,9.99999e-01,9.99924e-01,1.45225e-02,9.99999e-01
5.395400610e-01,1.57843e-02,9.99999e-01,9.99999e-01,9.99728e-01,1.57887e-02,9.99996e-01
5.422377613e-01,1.71309e-02,9.99999e-01,9.99999e-01,9.99652e-01,1.71369e-02,9.99993e-01
5.449489501e-01,1.85641e-02,9.99999e-01,9.99999e-01,9.99675e-01,1.85702e-02,9.99992e-01
5.476736949e-01,2.00857e-02,9.99999e-01,9.99999e-01,9.99714e-01,2.00915e-02,9.99996e-01
5.504120634e-01,2.16991e-02,9.99999e-01,9.99999e-01,9.99792e-01,2.17036e-02,9.99998e-01
5.531641237e-01,2.34069e-02,9.99999e-01,9.99999e-01,9.99895e-01,2.34093e-02,9.99999e-01
5.559299443e-01,2.52102e-02,9.99999e-01,9.99999e-01,9.99949e-01,2.52115e-02,9.99999e-01
5.587095940e-01,2.71117e-02,9.99999e-01,9.99999e-01,9.99967e-01,2.71125e-02,9.99999e-01
5.615031420e-01,2.91141e-02,9.99999e-01,9.99999e-01,9.99964e-01,2.91151e-02,9.99999e-01
5.643106577e-01,3.12204e-02,9.99999e-01,9.99999e-01,9.99959e-01,3.12217e-02,9.99999e-01
5.671322110e-01,3.34179e-02,9.99999e-01,9.99999e-01,9.99506e-01,3.34345e-02,9.99995e-01
5.699678720e-01,3.57369e-02,9.99999e-01,9.99999e-01,9.99486e-01,3.57557e-02,9.99986e-01
5.728177114e-01,3.81664e-02,9.99999e-01,9.99999e-01,9.99460e-01,3.81874e-02,9.99988e-01
5.756818000e-01,4.07112e-02,9.99999e-01,9.99999e-01,9.99505e-01,4.07316e-02,9.99993e-01
5.785602090e-01,4.33711e-02,9.99999e-01,9.99999e-01,9.99569e-01,4.33899e-02,9.99997e-01
5.814530100e-01,4.61440e-02,9.99999e-01,9.99999e-01,9.99567e-01,4.61640e-02,9.99998e-01
5.843602750e-01,4.90298e-02,9.99999e-01,9.99999e-01,9.99481e-01,4.90554e-02,9.99996e-01
5.872820764e-01,5.18315e-02,9.99999e-01,9.99999e-01,9.95539e-01,5.20653e-02,9.99968e-01
5.902184868e-01,5.48942e-02,9.99999e-01,9.99999e-01,9.94633e-01,5.51950e-02,9.99914e-01
5.931695792e-01,5.82185e-02,9.99999e-01,9.99999e-01,9.96198e-01,5.84454e-02,9.99917e-01
5.961354271e-01,6.15573e-02,9.99999e-01,9.99999e-01,9.95839e-01,6.18174e-02,9.99952e-01
5.991161043e-01,6.51124e-02,9.99999e-01,9.99999e-01,9.96967e-01,6.53114e-02,9.99984e-01
6.021116848e-01,6.88094e-02,9.99999e-01,9.99999e-01,9.98279e-01,6.89280e-02,9.99997e-01
6.051222432e-01,7.26043e-02,9.99999e-01,9.99999e-01,9.99129e-01,7.26675e-02,9.99999e-01
6.081478544e-01,7.65013e-02,9.99999e-01,9.99999e-01,9.99624e-01,7.65300e-02,9.99999e-01
6.111885937e-01,8.05026e-02,9.99999e-01,9.99999e-01,9.99841e-01,8.05154e-02,9.99999e-01
6.142445367e-01,8.46174e-02,9.99999e-01,9.99999e-01,9.99928e-01,8.46234e-02,9.99999e-01
6.173157594e-01,8.88501e-02,9.99999e-01,9.99999e-01,9.99960e-01,8.88536e-02,9.99999e-01
6.204023382e-01,9.32024e-02,9.99999e-01,9.99999e-01,9.99966e-01,9.32055e-02,9.99999e-01
6.235043498e-01,9.76637e-02,9.99999e-01,9.99999e-01,9.99851e-01,9.76782e-02,9.99999e-01
6.266218716e-01,1.02191e-01,9.99999e-01,9.99999e-01,9.99225e-01,1.02271e-01,9.99994e-01
6.297549810e-01,1.06951e-01,9.99999e-01,9.99999e-01,9.99715e-01,1.06982e-01,9.99988e-01
6.329037559e-01,1.11747e-01,9.99999e-01,9.99999e-01,9.99439e-01,1.11811e-01,9.99990e-01
6.360682746e-01,1.16700e-01,9.99999e-01,9.99999e-01,9.99520e-01,1.16756e-01,9.99994e-01
6.392486160e-01,1.21740e-01,9.99999e-01,9.99999e-01,9.99380e-01,1.21816e-01,9.99997e-01
6.424448591e-01,1.26882e-01,9.99999e-01,9.99999e-01,9.99165e-01,1.26988e-01,9.99995e-01
6.456570834e-01,1.31757e-01,9.99999e-01,9.99999e-01,9.96132e-01,1.32271e-01,9.99976e-01
6.488853688e-01,1.37269e-01,9.99999e-01,9.99999e-01,9.97189e-01,1.37664e-01,9.99939e-01
6.521297956e-01,1.42746e-01,9.99999e-01,9.99999e-01,9.97135e-01,1.43163e-01,9.99950e-01
6.553904446e-01,1.48335e-01,9.99999e-01,9.99999e-01,9.97139e-01,1.48766e-01,9.99962e-01
6.586673968e-01,1.54093e-01,9.99999e-01,9.99999e-01,9.97557e-01,1.54472e-01,9.99987e-01
6.619607338e-01,1.60058e-01,9.99999e-01,9.99999e-01,9.98638e-01,1.60277e-01,9.99996e-01
6.652705375e-01,1.66043e-01,9.99999e-01,9.99999e-01,9.99182e-01,1.66179e-01,9.99998e-01
6.685968902e-01,1.72116e-01,9.99999e-01,9.99999e-01,9.99652e-01,1.72176e-01,9.99999e-01
6.719398746e-01,1.78233e-01,9.99999e-01,9.99999e-01,9.99823e-01,1.78264e-01,9.99999e-01
6.752995740e-01,1.84424e-01,9.99999e-01,9.99999e-01,9.99906e-01,1.84441e-01,9.99999e-01
6.786760719e-01,1.90677e-01,9.99999e-01,9.99999e-01,9.99860e-01,1.90703e-01,9.99999e-01
6.820694522e-01,1.97002e-01,9.99999e-01,9.99999e-01,9.99763e-01,1.97048e-01,9.99998e-01
6.854797995e-01,2.03410e-01,9.99999e-01,9.99999e-01,9.99694e-01,2.03473e-01,9.99996e-01
6.889071985e-01,2.09816e-01,9.99999e-01,9.99999e-01,9.99253e-01,2.09974e-01,9.99992e-01
6.923517345e-01,2.13926e-01,9.99999e-01,9.99999e-01,9.87949e-01,2.16548e-01,9.99941e-01
6.958134932e-01,2.21783e-01,9.99999e-01,9.99999e-01,9.93813e-01,2.23192e-01,9.99871e-01
6.992925606e-01,2.28505e-01,9.99999e-01,9.99999e-01,9.94032e-01,2.29903e-01,9.99884e-01
7.027890234e-01,2.34923e-01,9.99999e-01,9.99999e-01,9.92679e-01,2.36677e-01,9.99911e-01
7.063029686e-01,2.41999e-01,9.99999e-01,9.99999e-01,9.93838e-01,2.43510e-01,9.99955e-01
7.098344834e-01,2.48914e-01,9.99999e-01,9.99999e-01,9.94087e-01,2.50400e-01,9.99973e-01
7.133836558e-01,2.55286e-01,9.99999e-01,9.99999e-01,9.92055e-01,2.57344e-01,9.99948e-01
7.169505741e-01,2.47871e-01,9.99999e-01,9.99999e-01,9.38088e-01,2.64337e-01,9.99595e-01
7.205353270e-01,2.62945e-01,9.99999e-01,9.99999e-01,9.69623e-01,2.71376e-01,9.99286e-01
7.241380036e-01,2.67468e-01,9.99999e-01,9.99999e-01,9.61123e-01,2.78458e-01,9.99383e-01
7.277586936e-01,2.75411e-01,9.99999e-01,9.99999e-01,9.64878e-01,2.85579e-01,9.99495e-01
7.313974871e-01,2.81800e-01,9.99999e-01,9.99999e-01,9.62864e-01,2.92737e-01,9.99763e-01
7.350544745e-01,2.93761e-01,9.99999e-01,9.99999e-01,9.79522e-01,2.99927e-01,9.99917e-01
7.387297469e-01,3.02498e-01,9.99999e-01,9.99999e-01,9.84900e-01,3.07147e-01,9.99961e-01
7.424233956e-01,3.12064e-01,9.99999e-01,9.99999e-01,9.92598e-01,3.14393e-01,9.99992e-01
7.461355126e-01,3.20215e-01,9.99999e-01,9.99999e-01,9.95504e-01,3.21661e-01,9.99998e-01
7.498661902e-01,3.28261e-01,9.99999e-01,9.99999e-01,9.97909e-01,3.28949e-01,9.99999e-01
7.536155211e-01,3.35908e-01,9.99999e-01,9.99999e-01,9.98971e-01,3.36253e-01,9.99999e-01
7.573835987e-01,3.43389e-01,9.99999e-01,9.99999e-01,9.99470e-01,3.43571e-01,9.99999e-01
7.611705167e-01,3.50783e-01,9.99999e-01,9.99999e-01,9.99670e-01,3.50898e-01,9.99999e-01
7.649763693e-01,3.58158e-01,9.99999e-01,9.99999e-01,9.99793e-01,3.58232e-01,9.99999e-01
7.688012511e-01,3.65518e-01,9.99999e-01,9.99999e-01,9.99855e-01,3.65570e-01,9.99999e-01
7.726452574e-01,3.72865e-01,9.99999e-01,9.99999e-01,9.99881e-01,3.72909e-01,9.99999e-01
7.765084837e-01,3.80182e-01,9.99999e-01,9.99999e-01,9.99830e-01,3.80247e-01,9.99999e-01
7.803910261e-01,3.70329e-01,9.99999e-01,9.56165e-01,9.99267e-01,3.87579e-01,9.99998e-01
7.842929812e-01,3.24381e-01,9.99999e-01,8.23398e-01,9.97446e-01,3.94903e-01,9.99994e-01
7.882144461e-01,3.24819e-01,9.99999e-01,8.11627e-01,9.94776e-01,4.02218e-01,9.99963e-01
7.921555184e-01,3.61169e-01,9.99999e-01,8.84438e-01,9.97143e-01,4.09519e-01,9.99937e-01
7.961162960e-01,3.82089e-01,9.99999e-01,9.21396e-01,9.94913e-01,4.16805e-01,9.99940e-01
8.000968774e-01,4.03248e-01,9.99999e-01,9.56525e-01,9.94151e-01,4.24072e-01,9.99936e-01
8.040973618e-01,4.19049e-01,9.99999e-01,9.77305e-01,9.94144e-01,4.31319e-01,9.99951e-01
8.081178486e-01,4.28187e-01,9.99999e-01,9.89485e-01,9.86782e-01,4.38543e-01,9.99950e-01
8.121584379e-01,4.20291e-01,9.99999e-01,9.96765e-01,9.46096e-01,4.45742e-01,9.99814e-01
8.162192301e-01,4.23690e-01,9.99999e-01,9.99284e-01,9.36779e-01,4.52913e-01,9.99305e-01
8.203003262e-01,4.44801e-01,9.99999e-01,9.99989e-01,9.67637e-01,4.60055e-01,9.99186e-01
8.244018279e-01,4.46268e-01,9.99999e-01,9.99999e-01,9.55886e-01,4.67165e-01,9.99352e-01
8.285238370e-01,4.55802e-01,9.99999e-01,9.99999e-01,9.61608e-01,4.74241e-01,9.99491e-01
8.326664562e-01,4.62567e-01,9.99999e-01,9.99999e-01,9.61317e-01,4.81281e-01,9.99789e-01
8.368297885e-01,4.74712e-01,9.99999e-01,9.99999e-01,9.72252e-01,4.88283e-01,9.99951e-01
8.410139374e-01,4.87027e-01,9.99999e-01,9.99999e-01,9.83430e-01,4.95247e-01,9.99971e-01
8.452190071e-01,4.98068e-01,9.99999e-01,9.99999e-01,9.91851e-01,5.02168e-01,9.99982e-01
8.494451021e-01,5.06625e-01,9.99999e-01,9.99999e-01,9.95252e-01,5.09048e-01,9.99986e-01
8.536923276e-01,5.14433e-01,9.99999e-01,9.99999e-01,9.97197e-01,5.15882e-01,9.99991e-01
8.579607893e-01,5.21766e-01,9.99999e-01,9.99999e-01,9.98269e-01,5.22671e-01,9.99997e-01
8.622505932e-01,5.28831e-01,9.99999e-01,9.99999e-01,9.98902e-01,5.29412e-01,9.99999e-01
8.665618462e-01,4.88091e-01,9.99999e-01,9.11030e-01,9.99319e-01,5.36105e-01,9.99999e-01
8.708946554e-01,3.31445e-01,9.99999e-01,6.11136e-01,9.99219e-01,5.42748e-01,9.99999e-01
8.752491287e-01,3.68661e-01,9.99999e-01,6.71774e-01,9.98956e-01,5.49339e-01,9.99998e-01
8.796253743e-01,4.45737e-01,9.99999e-01,8.02984e-01,9.98551e-01,5.55877e-01,9.99996e-01
8.840235012e-01,5.00901e-01,9.99999e-01,8.92165e-01,9.98346e-01,5.62362e-01,9.99989e-01
8.884436187e-01,5.40558e-01,9.99999e-01,9.56146e-01,9.93900e-01,5.68793e-01,9.99970e-01
8.928858368e-01,5.29847e-01,9.99999e-01,9.81962e-01,9.38087e-01,5.75167e-01,9.99834e-01
8.973502660e-01,5.17071e-01,9.99999e-01,9.95609e-01,8.93795e-01,5.81486e-01,9.99155e-01
9.018370173e-01,5.54192e-01,9.99999e-01,9.99516e-01,9.44602e-01,5.87746e-01,9.98672e-01
9.063462024e-01,5.57050e-01,9.99999e-01,9.87352e-01,9.50512e-01,5.93949e-01,9.98833e-01
9.108779334e-01,5.38450e-01,9.99999e-01,9.71633e-01,9.24174e-01,6.00092e-01,9.98787e-01
9.154323231e-01,5.50146e-01,9.99999e-01,9.93323e-01,9.14416e-01,6.06176e-01,9.98998e-01
9.200094847e-01,5.19903e-01,9.99999e-01,9.07060e-01,9.32468e-01,6.12199e-01,9.99438e-01
9.246095321e-01,4.82002e-01,9.99999e-01,8.68621e-01,8.95379e-01,6.18162e-01,9.99353e-01
9.292325798e-01,2.73469e-01,9.99999e-01,8.94996e-01,4.84137e-01,6.24063e-01,9.96884e-01
9.338787427e-01,2.24501e-01,9.99999e-01,8.98862e-01,3.95632e-01,6.29902e-01,9.88785e-01
9.385481364e-01,4.01366e-01,9.99999e-01,9.24525e-01,6.87582e-01,6.35679e-01,9.87685e-01
9.432408771e-01,3.60733e-01,9.99999e-01,9.53155e-01,5.94449e-01,6.41394e-01,9.89367e-01
9.479570815e-01,3.07293e-01,9.99999e-01,9.75647e-01,4.90207e-01,6.47045e-01,9.91337e-01
9.526968669e-01,3.75374e-01,9.99999e-01,9.88205e-01,5.84391e-01,6.52633e-01,9.94707e-01
9.574603512e-01,3.96205e-01,9.99999e-01,9.94942e-01,6.06426e-01,6.58157e-01,9.97307e-01
9.622476530e-01,4.39997e-01,9.99999e-01,9.98421e-01,6.65235e-01,6.63618e-01,9.98137e-01
9.670588912e-01,5.27665e-01,9.99999e-01,9.99527e-01,7.90074e-01,6.69015e-01,9.98725e-01
9.718941857e-01,5.80978e-01,9.99999e-01,9.99966e-01,8.62375e-01,6.74347e-01,9.99061e-01
9.767536566e-01,6.00548e-01,9.99999e-01,9.99999e-01,8.84291e-01,6.79616e-01,9.99282e-01
9.816374249e-01,6.25091e-01,9.99999e-01,9.99999e-01,9.13006e-01,6.84821e-01,9.99751e-01
9.865456120e-01,6.51789e-01,9.99999e-01,9.99999e-01,9.44722e-01,6.89961e-01,9.99947e-01
9.914783401e-01,6.71011e-01,9.99999e-01,9.99999e-01,9.65444e-01,6.95037e-01,9.99985e-01
9.964357318e-01,6.86770e-01,9.99999e-01,9.99999e-01,9.81038e-01,7.00050e-01,9.99991e-01
1.001417910e+00,6.96950e-01,9.99999e-01,9.99999e-01,9.88596e-01,7.04998e-01,9.99986e-01
1.006425000e+00,7.05238e-01,9.99999e-01,9.99999e-01,9.93474e-01,7.09883e-01,9.99981e-01
1.011457125e+00,7.11800e-01,9.99999e-01,9.99999e-01,9.95953e-01,7.14704e-01,9.99982e-01
1.016514411e+00,7.17473e-01,9.99999e-01,9.99999e-01,9.97248e-01,7.19461e-01,9.99987e-01
1.021596983e+00,7.22505e-01,9.99999e-01,9.99925e-01,9.97805e-01,7.24156e-01,9.99987e-01
1.026704968e+00,7.23919e-01,9.99999e-01,9.95028e-01,9.98287e-01,7.28787e-01,9.99992e-01
1.031838492e+00,6.91658e-01,9.99999e-01,9.44273e-01,9.98757e-01,7.33355e-01,9.99997e-01
1.036997685e+00,8.72760e-02,9.99999e-01,1.18351e-01,9.99260e-01,7.37862e-01,9.99999e-01
1.042182673e+00,5.03467e-02,9.99999e-01,6.78766e-02,9.99115e-01,7.42306e-01,9.99999e-01
1.047393587e+00,6.81364e-02,9.99999e-01,9.13447e-02,9.98829e-01,7.46688e-01,9.99999e-01
1.052630555e+00,7.83261e-04,9.99999e-01,1.04413e-03,9.98392e-01,7.51008e-01,9.99999e-01
1.057893707e+00,2.30874e-03,9.99999e-01,3.06208e-03,9.97314e-01,7.55268e-01,9.99998e-01
1.063183176e+00,1.03140e-02,9.99999e-01,1.36216e-02,9.95586e-01,7.59467e-01,9.99997e-01
1.068499092e+00,3.61369e-02,9.99999e-01,4.76077e-02,9.92626e-01,7.63606e-01,9.99994e-01
1.073841587e+00,1.11136e-01,9.99999e-01,1.45811e-01,9.91363e-01,7.67685e-01,9.99988e-01
1.079210795e+00,2.25686e-01,9.99999e-01,2.95358e-01,9.88970e-01,7.71704e-01,9.99970e-01
1.084606849e+00,3.89108e-01,9.99999e-01,5.09690e-01,9.83327e-01,7.75664e-01,9.99928e-01
1.090029883e+00,5.36182e-01,9.99999e-01,7.04182e-01,9.76035e-01,7.79566e-01,9.99852e-01
1.095480033e+00,6.17448e-01,9.99999e-01,8.41380e-01,9.36129e-01,7.83410e-01,9.99733e-01
1.100957433e+00,6.12991e-01,9.99999e-01,9.20076e-01,8.45806e-01,7.87197e-01,9.99509e-01
1.106462220e+00,5.00862e-01,9.99999e-01,9.66173e-01,6.54937e-01,7.90926e-01,9.99168e-01
1.111994531e+00,3.24918e-01,9.99999e-01,9.87324e-01,4.14596e-01,7.94599e-01,9.97795e-01
1.117554504e+00,1.92366e-01,9.99999e-01,9.96903e-01,2.43505e-01,7.98215e-01,9.92066e-01
1.123142276e+00,2.85170e-01,9.99999e-01,9.99797e-01,3.62483e-01,8.01777e-01,9.81288e-01
1.128757988e+00,4.05233e-01,9.99999e-01,9.99999e-01,5.14335e-01,8.05283e-01,9.78385e-01
1.134401778e+00,2.15161e-01,9.99999e-01,9.99999e-01,2.71035e-01,8.08735e-01,9.81590e-01
1.140073787e+00,5.35223e-01,9.99999e-01,9.99999e-01,6.68890e-01,8.12134e-01,9.85263e-01
1.145774156e+00,3.52652e-01,9.99999e-01,9.99999e-01,4.38364e-01,8.15479e-01,9.86502e-01
1.151503026e+00,3.25540e-01,9.99999e-01,9.99999e-01,4.00616e-01,8.18771e-01,9.92458e-01
1.157260541e+00,3.76978e-01,9.99999e-01,9.99999e-01,4.59643e-01,8.22011e-01,9.97738e-01
1.163046844e+00,4.63904e-01,9.99999e-01,9.99999e-01,5.62532e-01,8.25200e-01,9.99358e-01
1.168862078e+00,5.53860e-01,9.99999e-01,9.99999e-01,6.68861e-01,8.28337e-01,9.99669e-01
1.174706389e+00,6.48295e-01,9.99999e-01,9.99999e-01,7.80081e-01,8.31424e-01,9.99561e-01
1.180579921e+00,7.16791e-01,9.99999e-01,9.99999e-01,8.59555e-01,8.34462e-01,9.99337e-01
1.186482820e+00,7.68172e-01,9.99999e-01,9.99988e-01,9.17907e-01,8.37450e-01,9.99319e-01
1.192415234e+00,7.85104e-01,9.99999e-01,9.82391e-01,9.51197e-01,8.40389e-01,9.99490e-01
1.198377311e+00,4.50248e-01,9.99999e-01,5.53337e-01,9.58657e-01,8.43281e-01,9.99518e-01
1.204369197e+00,5.77386e-14,9.99999e-01,6.98607e-14,9.60876e-01,8.46125e-01,9.99564e-01
1.210391043e+00,1.51451e-52,9.99999e-01,1.82273e-52,9.62551e-01,8.48922e-01,9.99734e-01
1.216442998e+00,1.20227e-45,9.99999e-01,1.44053e-45,9.68103e-01,8.51673e-01,9.99837e-01
1.222525213e+00,5.60559e-45,9.99999e-01,6.64761e-45,9.75061e-01,8.54378e-01,9.99898e-01
1.228637839e+00,7.73009e-35,9.99999e-01,9.12911e-35,9.82609e-01,8.57038e-01,9.99952e-01
