#,Wave/freq,Total,N2,CO2,H2O,Rayleigh,CIA
4.000000000e-01,3.54126e-03,9.99999e-01,9.99999e-01,9.99988e-01,3.54130e-03,9.99999e-01
4.020000000e-01,3.95932e-03,9.99999e-01,9.99999e-01,9.99992e-01,3.95935e-03,9.99999e-01
4.040100000e-01,4.41647e-03,9.99999e-01,9.99999e-01,9.99996e-01,4.41649e-03,9.99999e-01
4.060300500e-01,4.91578e-03,9.99999e-01,9.99999e-01,9.99998e-01,4.91578e-03,9.99999e-01
4.080602003e-01,5.45995e-03,9.99999e-01,9.99999e-01,9.99999e-01,5.45996e-03,9.99999e-01
4.101005013e-01,6.05181e-03,9.99999e-01,9.99999e-01,9.99999e-01,6.05181e-03,9.99999e-01
4.121510038e-01,6.69419e-03,9.99999e-01,9.99999e-01,9.99999e-01,6.69420e-03,9.99999e-01
4.142117588e-01,7.39001e-03,9.99999e-01,9.99999e-01,9.99996e-01,7.39003e-03,9.99999e-01
4.162828176e-01,8.14217e-03,9.99999e-01,9.99999e-01,9.99986e-01,8.14228e-03,9.99999e-01
4.183642317e-01,8.95386e-03,9.99999e-01,9.99999e-01,9.99991e-01,8.95393e-03,9.99999e-01
4.204560528e-01,9.82798e-03,9.99999e-01,9.99999e-01,9.99994e-01,9.82803e-03,9.99999e-01
4.225583331e-01,1.07676e-02,9.99999e-01,9.99999e-01,9.99997e-01,1.07676e-02,9.99999e-01
4.246711247e-01,1.17758e-02,9.99999e-01,9.99999e-01,9.99998e-01,1.17758e-02,9.99999e-01
4.267944804e-01,1.28556e-02,9.99999e-01,9.99999e-01,9.99997e-01,1.28556e-02,9.99999e-01
4.289284528e-01,1.40102e-02,9.99999e-01,9.99999e-01,9.99997e-01,1.40102e-02,9.99999e-01
4.310730950e-01,1.52425e-02,9.99999e-01,9.99999e-01,9.99998e-01,1.52425e-02,9.99999e-01
4.332284605e-01,1.65556e-02,9.99999e-01,9.99999e-01,9.99999e-01,1.65556e-02,9.99999e-01
4.353946028e-01,1.79525e-02,9.99999e-01,9.99999e-01,9.99999e-01,1.79525e-02,9.99999e-01
4.375715758e-01,1.94361e-02,9.99999e-01,9.99999e-01,9.99998e-01,1.94362e-02,9.99999e-01
4.397594337e-01,2.10092e-02,9.99999e-01,9.99999e-01,9.99987e-01,2.10095e-02,9.99999e-01
4.419582309e-01,2.26739e-02,9.99999e-01,9.99999e-01,9.99940e-01,2.26752e-02,9.99999e-01
4.441680220e-01,2.44350e-02,9.99999e-01,9.99999e-01,9.99952e-01,2.44362e-02,9.99999e-01
4.463888621e-01,2.62937e-02,9.99999e-01,9.99999e-01,9.99950e-01,2.62950e-02,9.99999e-01
4.486208064e-01,2.82535e-02,9.99999e-01,9.99999e-01,9.99969e-01,2.82543e-02,9.99999e-01
4.508639105e-01,3.03161e-02,9.99999e-01,9.99999e-01,9.99985e-01,3.03166e-02,9.99999e-01
4.531182300e-01,3.24839e-02,9.99999e-01,9.99999e-01,9.99993e-01,3.24841e-02,9.99999e-01
4.553838212e-01,3.47590e-02,9.99999e-01,9.99999e-01,9.99995e-01,3.47591e-02,9.99999e-01
4.576607403e-01,3.71437e-02,9.99999e-01,9.99999e-01,9.99997e-01,3.71438e-02,9.99999e-01
4.599490440e-01,3.96400e-02,9.99999e-01,9.99999e-01,9.99998e-01,3.96401e-02,9.99999e-01
4.622487892e-01,4.22498e-02,9.99999e-01,9.99999e-01,9.99999e-01,4.22498e-02,9.99999e-01
4.645600332e-01,4.49746e-02,9.99999e-01,9.99999e-01,9.99998e-01,4.49747e-02,9.99999e-01
4.668828333e-01,4.78155e-02,9.99999e-01,9.99999e-01,9.99985e-01,4.78162e-02,9.99999e-01
4.692172475e-01,5.07743e-02,9.99999e-01,9.99999e-01,9.99968e-01,5.07758e-02,9.99999e-01
4.715633337e-01,5.38536e-02,9.99999e-01,9.99999e-01,9.99979e-01,5.38547e-02,9.99999e-01
4.739211504e-01,5.70527e-02,9.99999e-01,9.99999e-01,9.99980e-01,5.70538e-02,9.99999e-01
4.762907561e-01,6.03736e-02,9.99999e-01,9.99999e-01,9.99989e-01,6.03742e-02,9.99999e-01
4.786722099e-01,6.38162e-02,9.99999e-01,9.99999e-01,9.99995e-01,6.38164e-02,9.99999e-01
4.810655710e-01,6.73810e-02,9.99999e-01,9.99999e-01,9.99998e-01,6.73811e-02,9.99999e-01
4.834708988e-01,7.10677e-02,9.99999e-01,9.99999e-01,9.99988e-01,7.10685e-02,9.99999e-01
4.858882533e-01,7.48773e-02,9.99999e-01,9.99999e-01,9.99977e-01,7.48789e-02,9.99999e-01
4.883176946e-01,7.88108e-02,9.99999e-01,9.99999e-01,9.99981e-01,7.88122e-02,9.99999e-01
4.907592831e-01,8.28670e-02,9.99999e-01,9.99999e-01,9.99983e-01,8.28684e-02,9.99999e-01
4.932130795e-01,8.70459e-02,9.99999e-01,9.99999e-01,9.99987e-01,8.70469e-02,9.99999e-01
4.956791449e-01,9.13467e-02,9.99999e-01,9.99999e-01,9.99993e-01,9.13473e-02,9.99999e-01
4.981575406e-01,9.57660e-02,9.99999e-01,9.99999e-01,9.99968e-01,9.57689e-02,9.99999e-01
5.006483283e-01,1.00303e-01,9.99999e-01,9.99999e-01,9.99920e-01,1.00311e-01,9.99998e-01
5.031515699e-01,1.04929e-01,9.99999e-01,9.99999e-01,9.99596e-01,1.04972e-01,9.99995e-01
5.056673278e-01,1.09727e-01,9.99999e-01,9.99999e-01,9.99786e-01,1.09751e-01,9.99994e-01
5.081956644e-01,1.14616e-01,9.99999e-01,9.99999e-01,9.99730e-01,1.14647e-01,9.99996e-01
5.107366428e-01,1.19637e-01,9.99999e-01,9.99999e-01,9.99817e-01,1.19659e-01,9.99998e-01
5.132903260e-01,1.24770e-01,9.99999e-01,9.99999e-01,9.99895e-01,1.24783e-01,9.99999e-01
5.158567776e-01,1.30014e-01,9.99999e-01,9.99999e-01,9.99955e-01,1.30020e-01,9.99999e-01
5.184360615e-01,1.35364e-01,9.99999e-01,9.99999e-01,9.99981e-01,1.35366e-01,9.99999e-01
5.210282418e-01,1.40819e-01,9.99999e-01,9.99999e-01,9.99992e-01,1.40820e-01,9.99999e-01
5.236333830e-01,1.46376e-01,9.99999e-01,9.99999e-01,9.99973e-01,1.46380e-01,9.99999e-01
5.262515499e-01,1.52040e-01,9.99999e-01,9.99999e-01,9.99983e-01,1.52043e-01,9.99999e-01
5.288828077e-01,1.57804e-01,9.99999e-01,9.99999e-01,9.99984e-01,1.57806e-01,9.99999e-01
5.315272217e-01,1.63665e-01,9.99999e-01,9.99999e-01,9.99986e-01,1.63667e-01,9.99999e-01
5.341848578e-01,1.69623e-01,9.99999e-01,9.99999e-01,9.99990e-01,1.69624e-01,9.99999e-01
5.368557821e-01,1.75669e-01,9.99999e-01,9.99999e-01,9.99969e-01,1.75674e-01,9.99999e-01
5.395400610e-01,1.81794e-01,9.99999e-01,9.99999e-01,9.99890e-01,1.81814e-01,9.99998e-01
5.422377613e-01,1.88013e-01,9.99999e-01,9.99999e-01,9.99856e-01,1.88040e-01,9.99996e-01
5.449489501e-01,1.94325e-01,9.99999e-01,9.99999e-01,9.99867e-01,1.94351e-01,9.99996e-01
5.476736949e-01,2.00718e-01,9.99999e-01,9.99999e-01,9.99881e-01,2.00742e-01,9.99998e-01
5.504120634e-01,2.07193e-01,9.99999e-01,9.99999e-01,9.99913e-01,2.07211e-01,9.99999e-01
5.531641237e-01,2.13746e-01,9.99999e-01,9.99999e-01,9.99956e-01,2.13755e-01,9.99999e-01
5.559299443e-01,2.20365e-01,9.99999e-01,9.99999e-01,9.99978e-01,2.20370e-01,9.99999e-01
5.587095940e-01,2.27049e-01,9.99999e-01,9.99999e-01,9.99986e-01,2.27052e-01,9.99999e-01
5.615031420e-01,2.33796e-01,9.99999e-01,9.99999e-01,9.99985e-01,2.33800e-01,9.99999e-01
5.643106577e-01,2.40605e-01,9.99999e-01,9.99999e-01,9.99983e-01,2.40608e-01,9.99999e-01
5.671322110e-01,2.47427e-01,9.99999e-01,9.99999e-01,9.99804e-01,2.47475e-01,9.99997e-01
5.699678720e-01,2.54340e-01,9.99999e-01,9.99999e-01,9.99784e-01,2.54396e-01,9.99994e-01
5.728177114e-01,2.61310e-01,9.99999e-01,9.99999e-01,9.99779e-01,2.61369e-01,9.99994e-01
5.756818000e-01,2.68333e-01,9.99999e-01,9.99999e-01,9.99796e-01,2.68389e-01,9.99996e-01
5.785602090e-01,2.75404e-01,9.99999e-01,9.99999e-01,9.99822e-01,2.75453e-01,9.99998e-01
5.814530100e-01,2.82508e-01,9.99999e-01,9.99999e-01,9.99821e-01,2.82558e-01,9.99999e-01
5.843602750e-01,2.89640e-01,9.99999e-01,9.99999e-01,9.99790e-01,2.89701e-01,9.99998e-01
5.872820764e-01,2.96336e-01,9.99999e-01,9.99999e-01,9.98188e-01,2.96878e-01,9.99986e-01
5.902184868e-01,3.03401e-01,9.99999e-01,9.99999e-01,9.97782e-01,3.04085e-01,9.99964e-01
5.931695792e-01,3.10824e-01,9.99999e-01,9.99999e-01,9.98438e-01,3.11320e-01,9.99965e-01
5.961354271e-01,3.18027e-01,9.99999e-01,9.99999e-01,9.98283e-01,3.18580e-01,9.99978e-01
5.991161043e-01,3.25450e-01,9.99999e-01,9.99999e-01,9.98746e-01,3.25860e-01,9.99993e-01
6.021116848e-01,3.32920e-01,9.99999e-01,9.99999e-01,9.99287e-01,3.33157e-01,9.99998e-01
6.051222432e-01,3.40347e-01,9.99999e-01,9.99999e-01,9.99639e-01,3.40470e-01,9.99999e-01
6.081478544e-01,3.47739e-01,9.99999e-01,9.99999e-01,9.99844e-01,3.47793e-01,9.99999e-01
6.111885937e-01,3.55101e-01,9.99999e-01,9.99999e-01,9.99933e-01,3.55125e-01,9.99999e-01
6.142445367e-01,3.62451e-01,9.99999e-01,9.99999e-01,9.99970e-01,3.62462e-01,9.99999e-01
6.173157594e-01,3.69795e-01,9.99999e-01,9.99999e-01,9.99983e-01,3.69801e-01,9.99999e-01
6.204023382e-01,3.77134e-01,9.99999e-01,9.99999e-01,9.99985e-01,3.77139e-01,9.99999e-01
6.235043498e-01,3.84451e-01,9.99999e-01,9.99999e-01,9.99940e-01,3.84474e-01,9.99999e-01
6.266218716e-01,3.91677e-01,9.99999e-01,9.99999e-01,9.99681e-01,3.91802e-01,9.99997e-01
6.297549810e-01,3.99073e-01,9.99999e-01,9.99999e-01,9.99883e-01,3.99121e-01,9.99995e-01
6.329037559e-01,4.06333e-01,9.99999e-01,9.99999e-01,9.99768e-01,4.06428e-01,9.99995e-01
6.360682746e-01,4.13639e-01,9.99999e-01,9.99999e-01,9.99803e-01,4.13721e-01,9.99997e-01
6.392486160e-01,4.20889e-01,9.99999e-01,9.99999e-01,9.99745e-01,4.20996e-01,9.99998e-01
6.424448591e-01,4.28121e-01,9.99999e-01,9.99999e-01,9.99694e-01,4.28252e-01,9.99998e-01
6.456570834e-01,4.34806e-01,9.99999e-01,9.99999e-01,9.98445e-01,4.35486e-01,9.99990e-01
6.488853688e-01,4.42081e-01,9.99999e-01,9.99999e-01,9.98633e-01,4.42696e-01,9.99975e-01
6.521297956e-01,4.49337e-01,9.99999e-01,9.99999e-01,9.98815e-01,4.49879e-01,9.99978e-01
6.553904446e-01,4.56493e-01,9.99999e-01,9.99999e-01,9.98831e-01,4.57034e-01,9.99984e-01
6.586673968e-01,4.63686e-01,9.99999e-01,9.99999e-01,9.98988e-01,4.64157e-01,9.99994e-01
6.619607338e-01,4.70972e-01,9.99999e-01,9.99999e-01,9.99415e-01,4.71248e-01,9.99998e-01
6.652705375e-01,4.78141e-01,9.99999e-01,9.99999e-01,9.99660e-01,4.78303e-01,9.99998e-01
6.685968902e-01,4.85246e-01,9.99999e-01,9.99999e-01,9.99842e-01,4.85322e-01,9.99999e-01
6.719398746e-01,4.92266e-01,9.99999e-01,9.99999e-01,9.99926e-01,4.92302e-01,9.99999e-01
6.752995740e-01,4.99222e-01,9.99999e-01,9.99999e-01,9.99960e-01,4.99242e-01,9.99999e-01
6.786760719e-01,5.06111e-01,9.99999e-01,9.99999e-01,9.99943e-01,5.06139e-01,9.99999e-01
6.820694522e-01,5.12943e-01,9.99999e-01,9.99999e-01,9.99902e-01,5.12993e-01,9.99998e-01
6.854797995e-01,5.19736e-01,9.99999e-01,9.99999e-01,9.99874e-01,5.19801e-01,9.99998e-01
6.889071985e-01,5.26405e-01,9.99999e-01,9.99999e-01,9.99702e-01,5.26563e-01,9.99996e-01
6.923517345e-01,5.30645e-01,9.99999e-01,9.99999e-01,9.95088e-01,5.33276e-01,9.99975e-01
6.958134932e-01,5.38499e-01,9.99999e-01,9.99999e-01,9.97384e-01,5.39940e-01,9.99946e-01
6.992925606e-01,5.45201e-01,9.99999e-01,9.99999e-01,9.97571e-01,5.46553e-01,9.99952e-01
7.027890234e-01,5.51421e-01,9.99999e-01,9.99999e-01,9.96974e-01,5.53114e-01,9.99963e-01
7.063029686e-01,5.58190e-01,9.99999e-01,9.99999e-01,9.97459e-01,5.59622e-01,9.99981e-01
7.098344834e-01,5.64690e-01,9.99999e-01,9.99999e-01,9.97562e-01,5.66076e-01,9.99988e-01
7.133836558e-01,5.70630e-01,9.99999e-01,9.99999e-01,9.96799e-01,5.72474e-01,9.99978e-01
7.169505741e-01,5.63803e-01,9.99999e-01,9.99999e-01,9.74223e-01,5.78816e-01,9.99833e-01
7.205353270e-01,5.77352e-01,9.99999e-01,9.99999e-01,9.87044e-01,5.85101e-01,9.99706e-01
7.241380036e-01,5.81646e-01,9.99999e-01,9.99999e-01,9.83875e-01,5.91329e-01,9.99744e-01
7.277586936e-01,5.88662e-01,9.99999e-01,9.99999e-01,9.85421e-01,5.97497e-01,9.99787e-01
7.313974871e-01,5.94136e-01,9.99999e-01,9.99999e-01,9.84404e-01,6.03606e-01,9.99902e-01
7.350544745e-01,6.04440e-01,9.99999e-01,9.99999e-01,9.91478e-01,6.09655e-01,9.99965e-01
7.387297469e-01,6.11770e-01,9.99999e-01,9.99999e-01,9.93721e-01,6.15644e-01,9.99984e-01
7.424233956e-01,6.19653e-01,9.99999e-01,9.99999e-01,9.96916e-01,6.21571e-01,9.99996e-01
7.461355126e-01,6.26266e-01,9.99999e-01,9.99999e-01,9.98134e-01,6.27437e-01,9.99998e-01
7.498661902e-01,6.32688e-01,9.99999e-01,9.99999e-01,9.99128e-01,6.33240e-01,9.99999e-01
7.536155211e-01,6.38709e-01,9.99999e-01,9.99999e-01,9.99573e-01,6.38981e-01,9.99999e-01
7.573835987e-01,6.44517e-01,9.99999e-01,9.99999e-01,9.99780e-01,6.44659e-01,9.99999e-01
7.611705167e-01,6.50185e-01,9.99999e-01,9.99999e-01,9.99863e-01,6.50274e-01,9.99999e-01
7.649763693e-01,6.55769e-01,9.99999e-01,9.99999e-01,9.99914e-01,6.55825e-01,9.99999e-01
7.688012511e-01,6.61273e-01,9.99999e-01,9.99999e-01,9.99940e-01,6.61313e-01,9.99999e-01
7.726452574e-01,6.66704e-01,9.99999e-01,9.99999e-01,9.99950e-01,6.66736e-01,9.99999e-01
7.765084837e-01,6.72050e-01,9.99999e-01,9.99999e-01,9.99930e-01,6.72096e-01,9.99999e-01
7.803910261e-01,6.64958e-01,9.99999e-01,9.81929e-01,9.99703e-01,6.77392e-01,9.99999e-01
7.842929812e-01,6.27832e-01,9.99999e-01,9.20659e-01,9.98966e-01,6.82624e-01,9.99997e-01
7.882144461e-01,6.28453e-01,9.99999e-01,9.15662e-01,9.97849e-01,6.87792e-01,9.99986e-01
7.921555184e-01,6.57907e-01,9.99999e-01,9.50641e-01,9.98813e-01,6.92895e-01,9.99974e-01
7.961162960e-01,6.73134e-01,9.99999e-01,9.66478e-01,9.97929e-01,6.97934e-01,9.99975e-01
8.000968774e-01,6.88396e-01,9.99999e-01,9.81734e-01,9.97593e-01,7.02910e-01,9.99973e-01
8.040973618e-01,6.99369e-01,9.99999e-01,9.90455e-01,9.97597e-01,7.07822e-01,9.99978e-01
8.081178486e-01,7.05733e-01,9.99999e-01,9.95631e-01,9.94626e-01,7.12669e-01,9.99980e-01
8.121584379e-01,7.00430e-01,9.99999e-01,9.98635e-01,9.77671e-01,7.17454e-01,9.99923e-01
8.162192301e-01,7.02421e-01,9.99999e-01,9.99698e-01,9.73213e-01,7.22175e-01,9.99714e-01
8.203003262e-01,7.16980e-01,9.99999e-01,9.99994e-01,9.86778e-01,7.26833e-01,9.99665e-01
8.244018279e-01,7.17317e-01,9.99999e-01,9.99999e-01,9.80967e-01,7.31428e-01,9.99733e-01
8.285238370e-01,7.24091e-01,9.99999e-01,9.99999e-01,9.84077e-01,7.35960e-01,9.99790e-01
8.326664562e-01,7.28387e-01,9.99999e-01,9.99999e-01,9.83818e-01,7.40431e-01,9.99913e-01
8.368297885e-01,7.36195e-01,9.99999e-01,9.99999e-01,9.88413e-01,7.44839e-01,9.99979e-01
8.410139374e-01,7.44009e-01,9.99999e-01,9.99999e-01,9.93101e-01,7.49186e-01,9.99987e-01
8.452190071e-01,7.50912e-01,9.99999e-01,9.99999e-01,9.96609e-01,7.53471e-01,9.99992e-01
8.494451021e-01,7.56208e-01,9.99999e-01,9.99999e-01,9.98040e-01,7.57696e-01,9.99993e-01
8.536923276e-01,7.60971e-01,9.99999e-01,9.99999e-01,9.98836e-01,7.61860e-01,9.99995e-01
8.579607893e-01,7.65417e-01,9.99999e-01,9.99999e-01,9.99285e-01,7.65964e-01,9.99998e-01
8.622505932e-01,7.69658e-01,9.99999e-01,9.99999e-01,9.99544e-01,7.70009e-01,9.99999e-01
8.665618462e-01,7.37198e-01,9.99999e-01,9.52719e-01,9.99719e-01,7.73994e-01,9.99999e-01
8.708946554e-01,6.29346e-01,9.99999e-01,8.09264e-01,9.99679e-01,7.77921e-01,9.99999e-01
8.752491287e-01,6.59784e-01,9.99999e-01,8.44296e-01,9.99571e-01,7.81789e-01,9.99999e-01
8.796253743e-01,7.15993e-01,9.99999e-01,9.11928e-01,9.99408e-01,7.85600e-01,9.99998e-01
8.840235012e-01,7.52197e-01,9.99999e-01,9.53570e-01,9.99323e-01,7.89353e-01,9.99995e-01
8.884436187e-01,7.76399e-01,9.99999e-01,9.81372e-01,9.97585e-01,7.93050e-01,9.99987e-01
8.928858368e-01,7.70369e-01,9.99999e-01,9.92446e-01,9.74352e-01,7.96690e-01,9.99931e-01
8.973502660e-01,7.62203e-01,9.99999e-01,9.98146e-01,9.54506e-01,8.00275e-01,9.99652e-01
9.018370173e-01,7.84178e-01,9.99999e-01,9.99794e-01,9.76311e-01,8.03805e-01,9.99454e-01
9.063462024e-01,7.86440e-01,9.99999e-01,9.94937e-01,9.79526e-01,8.07280e-01,9.99520e-01
9.108779334e-01,7.75153e-01,9.99999e-01,9.88122e-01,9.68049e-01,8.10701e-01,9.99501e-01
9.154323231e-01,7.82026e-01,9.99999e-01,9.97168e-01,9.63731e-01,8.14068e-01,9.99587e-01
9.200094847e-01,7.62345e-01,9.99999e-01,9.59550e-01,9.71374e-01,8.17383e-01,9.99769e-01
9.246095321e-01,7.40380e-01,9.99999e-01,9.43170e-01,9.56242e-01,8.20645e-01,9.99734e-01
9.292325798e-01,5.80375e-01,9.99999e-01,9.55535e-01,7.35913e-01,8.23855e-01,9.98964e-01
9.338787427e-01,5.28850e-01,9.99999e-01,9.56603e-01,6.69393e-01,8.27014e-01,9.95728e-01
9.385481364e-01,6.80951e-01,9.99999e-01,9.68007e-01,8.50804e-01,8.30123e-01,9.94922e-01
9.432408771e-01,6.49800e-01,9.99999e-01,9.80234e-01,7.98617e-01,8.33181e-01,9.95617e-01
9.479570815e-01,6.03404e-01,9.99999e-01,9.89852e-01,7.31377e-01,8.36190e-01,9.96431e-01
9.526968669e-01,6.59288e-01,9.99999e-01,9.95083e-01,7.91050e-01,8.39150e-01,9.97821e-01
9.574603512e-01,6.79563e-01,9.99999e-01,9.97894e-01,8.09557e-01,8.42062e-01,9.98892e-01
9.622476530e-01,7.10575e-01,9.99999e-01,9.99341e-01,8.42170e-01,8.44926e-01,9.99234e-01
9.670588912e-01,7.67582e-01,9.99999e-01,9.99801e-01,9.06089e-01,8.47743e-01,9.99476e-01
9.718941857e-01,7.99675e-01,9.99999e-01,9.99985e-01,9.40601e-01,8.50513e-01,9.99614e-01
9.767536566e-01,8.10748e-01,9.99999e-01,9.99999e-01,9.50480e-01,8.53238e-01,9.99704e-01
9.816374249e-01,8.24165e-01,9.99999e-01,9.99999e-01,9.63000e-01,8.55917e-01,9.99897e-01
9.865456120e-01,8.38556e-01,9.99999e-01,9.99999e-01,9.76731e-01,8.58551e-01,9.99978e-01
9.914783401e-01,8.48714e-01,9.99999e-01,9.99999e-01,9.85573e-01,8.61142e-01,9.99993e-01
9.964357318e-01,8.56877e-01,9.99999e-01,9.99999e-01,9.92116e-01,8.63688e-01,9.99996e-01
1.001417910e+00,8.62089e-01,9.99999e-01,9.99999e-01,9.95268e-01,8.66192e-01,9.99994e-01
1.006425000e+00,8.66308e-01,9.99999e-01,9.99999e-01,9.97307e-01,8.68653e-01,9.99992e-01
1.011457125e+00,8.69606e-01,9.99999e-01,9.99999e-01,9.98322e-01,8.71072e-01,9.99992e-01
1.016514411e+00,8.72454e-01,9.99999e-01,9.99999e-01,9.98863e-01,8.73451e-01,9.99994e-01
1.021596983e+00,8.74970e-01,9.99999e-01,9.99975e-01,9.99094e-01,8.75788e-01,9.99994e-01
1.026704968e+00,8.75742e-01,9.99999e-01,9.98036e-01,9.99294e-01,8.78085e-01,9.99996e-01
1.031838492e+00,8.57083e-01,9.99999e-01,9.74069e-01,9.99485e-01,8.80343e-01,9.99998e-01
1.036997685e+00,2.34978e-01,9.99999e-01,2.66313e-01,9.99695e-01,8.82562e-01,9.99999e-01
1.042182673e+00,2.69405e-01,9.99999e-01,3.04603e-01,9.99638e-01,8.84743e-01,9.99999e-01
1.047393587e+00,2.60182e-01,9.99999e-01,2.93493e-01,9.99519e-01,8.86885e-01,9.99999e-01
1.052630555e+00,3.22899e-02,9.99999e-01,3.63407e-02,9.99341e-01,8.88991e-01,9.99999e-01
1.057893707e+00,6.23508e-02,9.99999e-01,7.00329e-02,9.98902e-01,8.91059e-01,9.99999e-01
1.063183176e+00,1.29695e-01,9.99999e-01,1.45430e-01,9.98192e-01,8.93092e-01,9.99998e-01
1.068499092e+00,2.45865e-01,9.99999e-01,2.75435e-01,9.96968e-01,8.95088e-01,9.99997e-01
1.073841587e+00,3.95262e-01,9.99999e-01,4.42037e-01,9.96459e-01,8.97050e-01,9.99995e-01
1.079210795e+00,5.34951e-01,9.99999e-01,5.97655e-01,9.95448e-01,8.98977e-01,9.99987e-01
1.084606849e+00,6.75153e-01,9.99999e-01,7.54515e-01,9.93128e-01,9.00870e-01,9.99970e-01
1.090029883e+00,7.72790e-01,9.99999e-01,8.64455e-01,9.90202e-01,9.02730e-01,9.99939e-01
1.095480033e+00,8.19566e-01,9.99999e-01,9.30698e-01,9.73459e-01,9.04556e-01,9.99890e-01
1.100957433e+00,8.17613e-01,9.99999e-01,9.66043e-01,9.33810e-01,9.06350e-01,9.99798e-01
1.106462220e+00,7.51660e-01,9.99999e-01,9.85803e-01,8.39687e-01,9.08112e-01,9.99658e-01
1.111994531e+00,6.23772e-01,9.99999e-01,9.94716e-01,6.89699e-01,9.09843e-01,9.99093e-01
1.117554504e+00,4.95643e-01,9.99999e-01,9.98700e-01,5.46154e-01,9.11543e-01,9.96732e-01
1.123142276e+00,5.75724e-01,9.99999e-01,9.99913e-01,6.35386e-01,9.13212e-01,9.92269e-01
1.128757988e+00,6.81592e-01,9.99999e-01,9.99999e-01,7.51748e-01,9.14851e-01,9.91062e-01
1.134401778e+00,4.61182e-01,9.99999e-01,9.99999e-01,5.07168e-01,9.16460e-01,9.92216e-01
1.140073787e+00,7.71071e-01,9.99999e-01,9.99999e-01,8.45184e-01,9.18041e-01,9.93757e-01
1.145774156e+00,6.40782e-01,9.99999e-01,9.99999e-01,7.00711e-01,9.19593e-01,9.94432e-01
1.151503026e+00,6.16883e-01,9.99999e-01,9.99999e-01,6.71797e-01,9.21117e-01,9.96894e-01
1.157260541e+00,6.64494e-01,9.99999e-01,9.99999e-01,7.20900e-01,9.22613e-01,9.99070e-01
1.163046844e+00,7.25342e-01,9.99999e-01,9.99999e-01,7.85139e-01,9.24082e-01,9.99736e-01
1.168862078e+00,7.82913e-01,9.99999e-01,9.99999e-01,8.46027e-01,9.25524e-01,9.99863e-01
1.174706389e+00,8.35974e-01,9.99999e-01,9.99999e-01,9.02026e-01,9.26940e-01,9.99819e-01
1.180579921e+00,8.71612e-01,9.99999e-01,9.99999e-01,9.39157e-01,9.28330e-01,9.99727e-01
1.186482820e+00,8.97124e-01,9.99999e-01,9.99997e-01,9.65237e-01,9.29695e-01,9.99720e-01
1.192415234e+00,9.05515e-01,9.99999e-01,9.93008e-01,9.79600e-01,9.31034e-01,9.99790e-01
1.198377311e+00,5.35525e-01,9.99999e-01,5.82931e-01,9.82815e-01,9.32350e-01,9.99801e-01
1.204369197e+00,4.62561e-07,9.99999e-01,5.00242e-07,9.83702e-01,9.33640e-01,9.99820e-01
1.210391043e+00,6.52575e-23,9.99999e-01,7.04190e-23,9.84411e-01,9.34908e-01,9.99890e-01
1.216442998e+00,4.48266e-20,9.99999e-01,4.82840e-20,9.86690e-01,9.36151e-01,9.99932e-01
1.222525213e+00,8.68036e-20,9.99999e-01,9.31088e-20,9.89639e-01,9.37372e-01,9.99958e-01
1.228637839e+00,3.03205e-15,9.99999e-01,3.24717e-15,9.92802e-01,9.38570e-01,9.99980e-01
