#,Wave/freq,Total,N2,CO2,H2O,Rayleigh,CIA
4.000000000e-01,1.53173e-03,9.99999e-01,9.99999e-01,9.99987e-01,1.53175e-03,9.99999e-01
4.020000000e-01,1.74118e-03,9.99999e-01,9.99999e-01,9.99991e-01,1.74119e-03,9.99999e-01
4.040100000e-01,1.97399e-03,9.99999e-01,9.99999e-01,9.99996e-01,1.97400e-03,9.99999e-01
4.060300500e-01,2.23239e-03,9.99999e-01,9.99999e-01,9.99998e-01,2.23239e-03,9.99999e-01
4.080602003e-01,2.51848e-03,9.99999e-01,9.99999e-01,9.99999e-01,2.51848e-03,9.99999e-01
4.101005013e-01,2.83448e-03,9.99999e-01,9.99999e-01,9.99999e-01,2.83448e-03,9.99999e-01
4.121510038e-01,3.18268e-03,9.99999e-01,9.99999e-01,9.99999e-01,3.18268e-03,9.99999e-01
4.142117588e-01,3.56548e-03,9.99999e-01,9.99999e-01,9.99996e-01,3.56549e-03,9.99999e-01
4.162828176e-01,3.98533e-03,9.99999e-01,9.99999e-01,9.99984e-01,3.98539e-03,9.99999e-01
4.183642317e-01,4.44491e-03,9.99999e-01,9.99999e-01,9.99990e-01,4.44495e-03,9.99999e-01
4.204560528e-01,4.94681e-03,9.99999e-01,9.99999e-01,9.99993e-01,4.94684e-03,9.99999e-01
4.225583331e-01,5.49376e-03,9.99999e-01,9.99999e-01,9.99997e-01,5.49377e-03,9.99999e-01
4.246711247e-01,6.08854e-03,9.99999e-01,9.99999e-01,9.99997e-01,6.08855e-03,9.99999e-01
4.267944804e-01,6.73401e-03,9.99999e-01,9.99999e-01,9.99997e-01,6.73403e-03,9.99999e-01
4.289284528e-01,7.43312e-03,9.99999e-01,9.99999e-01,9.99997e-01,7.43313e-03,9.99999e-01
4.310730950e-01,8.18882e-03,9.99999e-01,9.99999e-01,9.99998e-01,8.18882e-03,9.99999e-01
4.332284605e-01,9.00410e-03,9.99999e-01,9.99999e-01,9.99999e-01,9.00410e-03,9.99999e-01
4.353946028e-01,9.88201e-03,9.99999e-01,9.99999e-01,9.99999e-01,9.88201e-03,9.99999e-01
4.375715758e-01,1.08256e-02,9.99999e-01,9.99999e-01,9.99998e-01,1.08256e-02,9.99999e-01
4.397594337e-01,1.18378e-02,9.99999e-01,9.99999e-01,9.99986e-01,1.18380e-02,9.99999e-01
4.419582309e-01,1.29213e-02,9.99999e-01,9.99999e-01,9.99931e-01,1.29221e-02,9.99999e-01
4.441680220e-01,1.40804e-02,9.99999e-01,9.99999e-01,9.99945e-01,1.40812e-02,9.99999e-01
4.463888621e-01,1.53174e-02,9.99999e-01,9.99999e-01,9.99943e-01,1.53182e-02,9.99999e-01
4.486208064e-01,1.66357e-02,9.99999e-01,9.99999e-01,9.99964e-01,1.66363e-02,9.99999e-01
4.508639105e-01,1.80379e-02,9.99999e-01,9.99999e-01,9.99983e-01,1.80382e-02,9.99999e-01
4.531182300e-01,1.95270e-02,9.99999e-01,9.99999e-01,9.99993e-01,1.95271e-02,9.99999e-01
4.553838212e-01,2.11057e-02,9.99999e-01,9.99999e-01,9.99995e-01,2.11058e-02,9.99999e-01
4.576607403e-01,2.27771e-02,9.99999e-01,9.99999e-01,9.99997e-01,2.27772e-02,9.99999e-01
4.599490440e-01,2.45438e-02,9.99999e-01,9.99999e-01,9.99998e-01,2.45439e-02,9.99999e-01
4.622487892e-01,2.64086e-02,9.99999e-01,9.99999e-01,9.99999e-01,2.64086e-02,9.99999e-01
4.645600332e-01,2.83740e-02,9.99999e-01,9.99999e-01,9.99998e-01,2.83740e-02,9.99999e-01
4.668828333e-01,3.04419e-02,9.99999e-01,9.99999e-01,9.99983e-01,3.04424e-02,9.99999e-01
4.692172475e-01,3.26151e-02,9.99999e-01,9.99999e-01,9.99964e-01,3.26162e-02,9.99999e-01
4.715633337e-01,3.48969e-02,9.99999e-01,9.99999e-01,9.99976e-01,3.48977e-02,9.99999e-01
4.739211504e-01,3.72882e-02,9.99999e-01,9.99999e-01,9.99977e-01,3.72890e-02,9.99999e-01
4.762907561e-01,3.97915e-02,9.99999e-01,9.99999e-01,9.99988e-01,3.97920e-02,9.99999e-01
4.786722099e-01,4.24083e-02,9.99999e-01,9.99999e-01,9.99994e-01,4.24085e-02,9.99999e-01
4.810655710e-01,4.51402e-02,9.99999e-01,9.99999e-01,9.99998e-01,4.51403e-02,9.99999e-01
4.834708988e-01,4.79882e-02,9.99999e-01,9.99999e-01,9.99986e-01,4.79888e-02,9.99999e-01
4.858882533e-01,5.09542e-02,9.99999e-01,9.99999e-01,9.99974e-01,5.09554e-02,9.99999e-01
4.883176946e-01,5.40403e-02,9.99999e-01,9.99999e-01,9.99978e-01,5.40414e-02,9.99999e-01
4.907592831e-01,5.72467e-02,9.99999e-01,9.99999e-01,9.99980e-01,5.72478e-02,9.99999e-01
4.932130795e-01,6.05745e-02,9.99999e-01,9.99999e-01,9.99986e-01,6.05753e-02,9.99999e-01
4.956791449e-01,6.40244e-02,9.99999e-01,9.99999e-01,9.99992e-01,6.40249e-02,9.99999e-01
4.981575406e-01,6.75944e-02,9.99999e-01,9.99999e-01,9.99964e-01,6.75968e-02,9.99999e-01
5.006483283e-01,7.12851e-02,9.99999e-01,9.99999e-01,9.99909e-01,7.12915e-02,9.99998e-01
5.031515699e-01,7.50741e-02,9.99999e-01,9.99999e-01,9.99536e-01,7.51092e-02,9.99994e-01
5.056673278e-01,7.90301e-02,9.99999e-01,9.99999e-01,9.99754e-01,7.90499e-02,9.99993e-01
5.081956644e-01,8.30873e-02,9.99999e-01,9.99999e-01,9.99690e-01,8.31133e-02,9.99995e-01
5.107366428e-01,8.72807e-02,9.99999e-01,9.99999e-01,9.99790e-01,8.72991e-02,9.99998e-01
5.132903260e-01,9.15957e-02,9.99999e-01,9.99999e-01,9.99879e-01,9.16067e-02,9.99999e-01
5.158567776e-01,9.60306e-02,9.99999e-01,9.99999e-01,9.99948e-01,9.60355e-02,9.99999e-01
5.184360615e-01,1.00582e-01,9.99999e-01,9.99999e-01,9.99979e-01,1.00585e-01,9.99999e-01
5.210282418e-01,1.05252e-01,9.99999e-01,9.99999e-01,9.99991e-01,1.05253e-01,9.99999e-01
5.236333830e-01,1.10036e-01,9.99999e-01,9.99999e-01,9.99969e-01,1.10039e-01,9.99999e-01
5.262515499e-01,1.14940e-01,9.99999e-01,9.99999e-01,9.99980e-01,1.14942e-01,9.99999e-01
5.288828077e-01,1.19958e-01,9.99999e-01,9.99999e-01,9.99982e-01,1.19960e-01,9.99999e-01
5.315272217e-01,1.25090e-01,9.99999e-01,9.99999e-01,9.99984e-01,1.25092e-01,9.99999e-01
5.341848578e-01,1.30333e-01,9.99999e-01,9.99999e-01,9.99989e-01,1.30335e-01,9.99999e-01
5.368557821e-01,1.35683e-01,9.99999e-01,9.99999e-01,9.99964e-01,1.35687e-01,9.99999e-01
5.395400610e-01,1.41130e-01,9.99999e-01,9.99999e-01,9.99874e-01,1.41148e-01,9.99998e-01
5.422377613e-01,1.46689e-01,9.99999e-01,9.99999e-01,9.99834e-01,1.46714e-01,9.99996e-01
5.449489501e-01,1.52359e-01,9.99999e-01,9.99999e-01,9.99847e-01,1.52382e-01,9.99996e-01
5.476736949e-01,1.58130e-01,9.99999e-01,9.99999e-01,9.99863e-01,1.58152e-01,9.99997e-01
5.504120634e-01,1.64003e-01,9.99999e-01,9.99999e-01,9.99901e-01,1.64019e-01,9.99999e-01
5.531641237e-01,1.69973e-01,9.99999e-01,9.99999e-01,9.99949e-01,1.69981e-01,9.99999e-01
5.559299443e-01,1.76032e-01,9.99999e-01,9.99999e-01,9.99975e-01,1.76037e-01,9.99999e-01
5.587095940e-01,1.82179e-01,9.99999e-01,9.99999e-01,9.99984e-01,1.82181e-01,9.99999e-01
5.615031420e-01,1.88410e-01,9.99999e-01,9.99999e-01,9.99982e-01,1.88413e-01,9.99999e-01
5.643106577e-01,1.94725e-01,9.99999e-01,9.99999e-01,9.99980e-01,1.94728e-01,9.99999e-01
5.671322110e-01,2.01079e-01,9.99999e-01,9.99999e-01,9.99775e-01,2.01125e-01,9.99997e-01
5.699678720e-01,2.07546e-01,9.99999e-01,9.99999e-01,9.99753e-01,2.07598e-01,9.99993e-01
5.728177114e-01,2.14091e-01,9.99999e-01,9.99999e-01,9.99746e-01,2.14146e-01,9.99994e-01
5.756818000e-01,2.20713e-01,9.99999e-01,9.99999e-01,9.99766e-01,2.20765e-01,9.99996e-01
5.785602090e-01,2.27405e-01,9.99999e-01,9.99999e-01,9.99795e-01,2.27452e-01,9.99998e-01
5.814530100e-01,2.34155e-01,9.99999e-01,9.99999e-01,9.99795e-01,2.34203e-01,9.99999e-01
5.843602750e-01,2.40957e-01,9.99999e-01,9.99999e-01,9.99758e-01,2.41015e-01,9.99998e-01
5.872820764e-01,2.47366e-01,9.99999e-01,9.99999e-01,9.97919e-01,2.47885e-01,9.99984e-01
5.902184868e-01,2.54150e-01,9.99999e-01,9.99999e-01,9.97453e-01,2.54809e-01,9.99959e-01
5.931695792e-01,2.61305e-01,9.99999e-01,9.99999e-01,9.98206e-01,2.61785e-01,9.99960e-01
5.961354271e-01,2.68271e-01,9.99999e-01,9.99999e-01,9.98029e-01,2.68807e-01,9.99975e-01
5.991161043e-01,2.75475e-01,9.99999e-01,9.99999e-01,9.98560e-01,2.75874e-01,9.99992e-01
6.021116848e-01,2.82750e-01,9.99999e-01,9.99999e-01,9.99181e-01,2.82982e-01,9.99998e-01
6.051222432e-01,2.90006e-01,9.99999e-01,9.99999e-01,9.99585e-01,2.90127e-01,9.99999e-01
6.081478544e-01,2.97252e-01,9.99999e-01,9.99999e-01,9.99821e-01,2.97305e-01,9.99999e-01
6.111885937e-01,3.04492e-01,9.99999e-01,9.99999e-01,9.99923e-01,3.04515e-01,9.99999e-01
6.142445367e-01,3.11741e-01,9.99999e-01,9.99999e-01,9.99965e-01,3.11751e-01,9.99999e-01
6.173157594e-01,3.19006e-01,9.99999e-01,9.99999e-01,9.99980e-01,3.19012e-01,9.99999e-01
6.204023382e-01,3.26288e-01,9.99999e-01,9.99999e-01,9.99983e-01,3.26293e-01,9.99999e-01
6.235043498e-01,3.33569e-01,9.99999e-01,9.99999e-01,9.99931e-01,3.33592e-01,9.99999e-01
6.266218716e-01,3.40779e-01,9.99999e-01,9.99999e-01,9.99634e-01,3.40905e-01,9.99996e-01
6.297549810e-01,3.48180e-01,9.99999e-01,9.99999e-01,9.99865e-01,3.48229e-01,9.99994e-01
6.329037559e-01,3.55465e-01,9.99999e-01,9.99999e-01,9.99734e-01,3.55561e-01,9.99995e-01
6.360682746e-01,3.62815e-01,9.99999e-01,9.99999e-01,9.99774e-01,3.62898e-01,9.99997e-01
6.392486160e-01,3.70128e-01,9.99999e-01,9.99999e-01,9.99707e-01,3.70237e-01,9.99998e-01
6.424448591e-01,3.77442e-01,9.99999e-01,9.99999e-01,9.99649e-01,3.77575e-01,9.99997e-01
6.456570834e-01,3.84219e-01,9.99999e-01,9.99999e-01,9.98215e-01,3.84909e-01,9.99989e-01
6.488853688e-01,3.91611e-01,9.99999e-01,9.99999e-01,9.98431e-01,3.92237e-01,9.99971e-01
6.521297956e-01,3.99003e-01,9.99999e-01,9.99999e-01,9.98640e-01,3.99556e-01,9.99975e-01
6.553904446e-01,4.06309e-01,9.99999e-01,9.99999e-01,9.98658e-01,4.06862e-01,9.99981e-01
6.586673968e-01,4.13671e-01,9.99999e-01,9.99999e-01,9.98839e-01,4.14154e-01,9.99993e-01
6.619607338e-01,4.21145e-01,9.99999e-01,9.99999e-01,9.99329e-01,4.21428e-01,9.99998e-01
6.652705375e-01,4.28516e-01,9.99999e-01,9.99999e-01,9.99610e-01,4.28683e-01,9.99998e-01
6.685968902e-01,4.35837e-01,9.99999e-01,9.99999e-01,9.99818e-01,4.35915e-01,9.99999e-01
6.719398746e-01,4.43086e-01,9.99999e-01,9.99999e-01,9.99915e-01,4.43124e-01,9.99999e-01
6.752995740e-01,4.50285e-01,9.99999e-01,9.99999e-01,9.99954e-01,4.50305e-01,9.99999e-01
6.786760719e-01,4.57428e-01,9.99999e-01,9.99999e-01,9.99934e-01,4.57458e-01,9.99999e-01
6.820694522e-01,4.64527e-01,9.99999e-01,9.99999e-01,9.99888e-01,4.64579e-01,9.99998e-01
6.854797995e-01,4.71600e-01,9.99999e-01,9.99999e-01,9.99856e-01,4.71668e-01,9.99998e-01
6.889071985e-01,4.78557e-01,9.99999e-01,9.99999e-01,9.99658e-01,4.78721e-01,9.99996e-01
6.923517345e-01,4.82986e-01,9.99999e-01,9.99999e-01,9.94361e-01,4.85738e-01,9.99972e-01
6.958134932e-01,4.91206e-01,9.99999e-01,9.99999e-01,9.96996e-01,4.92716e-01,9.99938e-01
6.992925606e-01,4.98233e-01,9.99999e-01,9.99999e-01,9.97211e-01,4.99653e-01,9.99945e-01
7.027890234e-01,5.04767e-01,9.99999e-01,9.99999e-01,9.96525e-01,5.06548e-01,9.99958e-01
7.063029686e-01,5.11891e-01,9.99999e-01,9.99999e-01,9.97082e-01,5.13399e-01,9.99978e-01
7.098344834e-01,5.18742e-01,9.99999e-01,9.99999e-01,9.97200e-01,5.20204e-01,9.99987e-01
7.133836558e-01,5.25014e-01,9.99999e-01,9.99999e-01,9.96325e-01,5.26963e-01,9.99975e-01
7.169505741e-01,5.17815e-01,9.99999e-01,9.99999e-01,9.70469e-01,5.33674e-01,9.99808e-01
7.205353270e-01,5.32127e-01,9.99999e-01,9.99999e-01,9.85140e-01,5.40335e-01,9.99662e-01
7.241380036e-01,5.36674e-01,9.99999e-01,9.99999e-01,9.81509e-01,5.46945e-01,9.99706e-01
7.277586936e-01,5.44116e-01,9.99999e-01,9.99999e-01,9.83280e-01,5.53502e-01,9.99756e-01
7.313974871e-01,5.49929e-01,9.99999e-01,9.99999e-01,9.82113e-01,5.60007e-01,9.99888e-01
7.350544745e-01,5.60897e-01,9.99999e-01,9.99999e-01,9.90220e-01,5.66458e-01,9.99960e-01
7.387297469e-01,5.68714e-01,9.99999e-01,9.99999e-01,9.92793e-01,5.72853e-01,9.99981e-01
7.424233956e-01,5.77139e-01,9.99999e-01,9.99999e-01,9.96459e-01,5.79191e-01,9.99996e-01
7.461355126e-01,5.84219e-01,9.99999e-01,9.99999e-01,9.97858e-01,5.85473e-01,9.99998e-01
7.498661902e-01,5.91105e-01,9.99999e-01,9.99999e-01,9.98999e-01,5.91697e-01,9.99999e-01
7.536155211e-01,5.97570e-01,9.99999e-01,9.99999e-01,9.99510e-01,5.97862e-01,9.99999e-01
7.573835987e-01,6.03815e-01,9.99999e-01,9.99999e-01,9.99747e-01,6.03967e-01,9.99999e-01
7.611705167e-01,6.09918e-01,9.99999e-01,9.99999e-01,9.99843e-01,6.10013e-01,9.99999e-01
7.649763693e-01,6.15938e-01,9.99999e-01,9.99999e-01,9.99901e-01,6.15998e-01,9.99999e-01
7.688012511e-01,6.21879e-01,9.99999e-01,9.99999e-01,9.99931e-01,6.21921e-01,9.99999e-01
7.726452574e-01,6.27748e-01,9.99999e-01,9.99999e-01,9.99943e-01,6.27783e-01,9.99999e-01
7.765084837e-01,6.33533e-01,9.99999e-01,9.99999e-01,9.99920e-01,6.33583e-01,9.99999e-01
7.803910261e-01,6.25960e-01,9.99999e-01,9.79428e-01,9.99659e-01,6.39320e-01,9.99999e-01
7.842929812e-01,5.86048e-01,9.99999e-01,9.09657e-01,9.98813e-01,6.44994e-01,9.99997e-01
7.882144461e-01,5.86756e-01,9.99999e-01,9.04050e-01,9.97530e-01,6.50605e-01,9.99984e-01
7.921555184e-01,6.18271e-01,9.99999e-01,9.43560e-01,9.98637e-01,6.56153e-01,9.99970e-01
7.961162960e-01,6.34714e-01,9.99999e-01,9.61606e-01,9.97623e-01,6.61637e-01,9.99971e-01
8.000968774e-01,6.51265e-01,9.99999e-01,9.79054e-01,9.97237e-01,6.67057e-01,9.99969e-01
8.040973618e-01,6.63200e-01,9.99999e-01,9.89046e-01,9.97240e-01,6.72413e-01,9.99975e-01
8.081178486e-01,6.70136e-01,9.99999e-01,9.94984e-01,9.93831e-01,6.77705e-01,9.99977e-01
8.121584379e-01,6.64361e-01,9.99999e-01,9.98433e-01,9.74406e-01,6.82933e-01,9.99912e-01
8.162192301e-01,6.66533e-01,9.99999e-01,9.99653e-01,9.69310e-01,6.88097e-01,9.99671e-01
8.203003262e-01,6.82427e-01,9.99999e-01,9.99993e-01,9.84846e-01,6.93196e-01,9.99615e-01
8.244018279e-01,6.82805e-01,9.99999e-01,9.99999e-01,9.78203e-01,6.98232e-01,9.99694e-01
8.285238370e-01,6.90197e-01,9.99999e-01,9.99999e-01,9.81738e-01,7.03204e-01,9.99759e-01
8.326664562e-01,6.94903e-01,9.99999e-01,9.99999e-01,9.81444e-01,7.08111e-01,9.99900e-01
8.368297885e-01,7.03462e-01,9.99999e-01,9.99999e-01,9.86706e-01,7.12956e-01,9.99976e-01
8.410139374e-01,7.12044e-01,9.99999e-01,9.99999e-01,9.92081e-01,7.17736e-01,9.99986e-01
8.452190071e-01,7.19636e-01,9.99999e-01,9.99999e-01,9.96107e-01,7.22453e-01,9.99991e-01
8.494451021e-01,7.25468e-01,9.99999e-01,9.99999e-01,9.97750e-01,7.27108e-01,9.99993e-01
8.536923276e-01,7.30719e-01,9.99999e-01,9.99999e-01,9.98663e-01,7.31699e-01,9.99995e-01
8.579607893e-01,7.35624e-01,9.99999e-01,9.99999e-01,9.99179e-01,7.36228e-01,9.99998e-01
8.622505932e-01,7.40308e-01,9.99999e-01,9.99999e-01,9.99477e-01,7.40694e-01,9.99999e-01
8.665618462e-01,7.05995e-01,9.99999e-01,9.47814e-01,9.99677e-01,7.45099e-01,9.99999e-01
8.708946554e-01,5.88292e-01,9.99999e-01,7.85254e-01,9.99632e-01,7.49442e-01,9.99999e-01
8.752491287e-01,6.20643e-01,9.99999e-01,8.23833e-01,9.99507e-01,7.53724e-01,9.99998e-01
8.796253743e-01,6.81429e-01,9.99999e-01,8.99648e-01,9.99320e-01,7.57945e-01,9.99997e-01
8.840235012e-01,7.21069e-01,9.99999e-01,9.46885e-01,9.99223e-01,7.62106e-01,9.99994e-01
8.884436187e-01,7.47764e-01,9.99999e-01,9.78639e-01,9.97227e-01,7.66206e-01,9.99986e-01
8.928858368e-01,7.41109e-01,9.99999e-01,9.91330e-01,9.70615e-01,7.70247e-01,9.99921e-01
8.973502660e-01,7.32109e-01,9.99999e-01,9.97871e-01,9.47965e-01,7.74229e-01,9.99601e-01
9.018370173e-01,7.56386e-01,9.99999e-01,9.99764e-01,9.72861e-01,7.78152e-01,9.99373e-01
9.063462024e-01,7.58901e-01,9.99999e-01,9.94192e-01,9.76536e-01,7.82017e-01,9.99449e-01
9.108779334e-01,7.46410e-01,9.99999e-01,9.86372e-01,9.63415e-01,7.85824e-01,9.99427e-01
9.154323231e-01,7.54008e-01,9.99999e-01,9.96749e-01,9.58479e-01,7.89574e-01,9.99526e-01
9.200094847e-01,7.32544e-01,9.99999e-01,9.53939e-01,9.67214e-01,7.93268e-01,9.99734e-01
9.246095321e-01,7.08216e-01,9.99999e-01,9.35038e-01,9.50011e-01,7.96905e-01,9.99694e-01
9.292325798e-01,5.36358e-01,9.99999e-01,9.49161e-01,7.04183e-01,8.00486e-01,9.98811e-01
9.338787427e-01,4.82414e-01,9.99999e-01,9.50356e-01,6.32090e-01,8.04013e-01,9.95096e-01
9.385481364e-01,6.43808e-01,9.99999e-01,9.63355e-01,8.31295e-01,8.07485e-01,9.94170e-01
9.432408771e-01,6.10629e-01,9.99999e-01,9.77334e-01,7.73739e-01,8.10902e-01,9.94968e-01
9.479570815e-01,5.61723e-01,9.99999e-01,9.88355e-01,7.00553e-01,8.14267e-01,9.95903e-01
9.526968669e-01,6.20931e-01,9.99999e-01,9.94356e-01,7.65434e-01,8.17578e-01,9.97498e-01
9.574603512e-01,6.42112e-01,9.99999e-01,9.97581e-01,7.85078e-01,8.20837e-01,9.98728e-01
9.622476530e-01,6.75673e-01,9.99999e-01,9.99244e-01,8.21265e-01,8.24044e-01,9.99120e-01
9.670588912e-01,7.38138e-01,9.99999e-01,9.99772e-01,8.93065e-01,8.27200e-01,9.99398e-01
9.718941857e-01,7.73591e-01,9.99999e-01,9.99983e-01,9.32120e-01,8.30306e-01,9.99556e-01
9.767536566e-01,7.85898e-01,9.99999e-01,9.99999e-01,9.43363e-01,8.33361e-01,9.99661e-01
9.816374249e-01,8.00841e-01,9.99999e-01,9.99999e-01,9.57634e-01,8.36367e-01,9.99882e-01
9.865456120e-01,8.16917e-01,9.99999e-01,9.99999e-01,9.73326e-01,8.39325e-01,9.99975e-01
9.914783401e-01,8.28290e-01,9.99999e-01,9.99999e-01,9.83450e-01,8.42233e-01,9.99992e-01
9.964357318e-01,8.37445e-01,9.99999e-01,9.99999e-01,9.90951e-01,8.45095e-01,9.99995e-01
1.001417910e+00,8.43298e-01,9.99999e-01,9.99999e-01,9.94567e-01,8.47909e-01,9.99993e-01
1.006425000e+00,8.48039e-01,9.99999e-01,9.99999e-01,9.96907e-01,8.50677e-01,9.99990e-01
1.011457125e+00,8.51748e-01,9.99999e-01,9.99999e-01,9.98073e-01,8.53398e-01,9.99991e-01
1.016514411e+00,8.54953e-01,9.99999e-01,9.99999e-01,9.98694e-01,8.56075e-01,9.99993e-01
1.021596983e+00,8.57786e-01,9.99999e-01,9.99972e-01,9.98960e-01,8.58706e-01,9.99993e-01
1.026704968e+00,8.58655e-01,9.99999e-01,9.97746e-01,9.99189e-01,8.61294e-01,9.99995e-01
1.031838492e+00,8.38590e-01,9.99999e-01,9.71334e-01,9.99409e-01,8.63838e-01,9.99998e-01
1.036997685e+00,2.05659e-01,9.99999e-01,2.37457e-01,9.99649e-01,8.66339e-01,9.99999e-01
1.042182673e+00,2.24021e-01,9.99999e-01,2.57950e-01,9.99584e-01,8.68798e-01,9.99999e-01
1.047393587e+00,2.24422e-01,9.99999e-01,2.57725e-01,9.99447e-01,8.71215e-01,9.99999e-01
1.052630555e+00,2.12260e-02,9.99999e-01,2.43117e-02,9.99243e-01,8.73591e-01,9.99999e-01
1.057893707e+00,4.31116e-02,9.99999e-01,4.92648e-02,9.98739e-01,8.75926e-01,9.99999e-01
1.063183176e+00,9.80717e-02,9.99999e-01,1.11852e-01,9.97923e-01,8.78221e-01,9.99998e-01
1.068499092e+00,2.00692e-01,9.99999e-01,2.28645e-01,9.96519e-01,8.80476e-01,9.99997e-01
1.073841587e+00,3.45495e-01,9.99999e-01,3.92835e-01,9.95935e-01,8.82693e-01,9.99994e-01
1.079210795e+00,4.88209e-01,9.99999e-01,5.54467e-01,9.94774e-01,8.84871e-01,9.99985e-01
1.084606849e+00,6.37130e-01,9.99999e-01,7.23851e-01,9.92112e-01,8.87011e-01,9.99966e-01
1.090029883e+00,7.43857e-01,9.99999e-01,8.46035e-01,9.88758e-01,8.89115e-01,9.99930e-01
1.095480033e+00,7.95754e-01,9.99999e-01,9.20854e-01,9.69585e-01,8.91181e-01,9.99873e-01
1.100957433e+00,7.93592e-01,9.99999e-01,9.61106e-01,9.24403e-01,8.93211e-01,9.99768e-01
1.106462220e+00,7.20774e-01,9.99999e-01,9.83713e-01,8.18499e-01,8.95206e-01,9.99607e-01
1.111994531e+00,5.82408e-01,9.99999e-01,9.93935e-01,6.53623e-01,8.97166e-01,9.98959e-01
1.117554504e+00,4.48075e-01,9.99999e-01,9.98507e-01,5.00895e-01,8.99091e-01,9.96248e-01
1.123142276e+00,5.32898e-01,9.99999e-01,9.99900e-01,5.96795e-01,9.00982e-01,9.91126e-01
1.128757988e+00,6.45059e-01,9.99999e-01,9.99999e-01,7.21882e-01,9.02839e-01,9.89742e-01
1.134401778e+00,4.19625e-01,9.99999e-01,9.99999e-01,4.68027e-01,9.04664e-01,9.91065e-01
1.140073787e+00,7.42246e-01,9.99999e-01,9.99999e-01,8.24753e-01,9.06456e-01,9.92834e-01
1.145774156e+00,6.01096e-01,9.99999e-01,9.99999e-01,6.66099e-01,9.08216e-01,9.93608e-01
1.151503026e+00,5.75966e-01,9.99999e-01,9.99999e-01,6.35233e-01,9.09945e-01,9.96434e-01
1.157260541e+00,6.25989e-01,9.99999e-01,9.99999e-01,6.87394e-01,9.11643e-01,9.98932e-01
1.163046844e+00,6.91949e-01,9.99999e-01,9.99999e-01,7.57857e-01,9.13310e-01,9.99696e-01
1.168862078e+00,7.55069e-01,9.99999e-01,9.99999e-01,8.25388e-01,9.14947e-01,9.99843e-01
1.174706389e+00,8.14086e-01,9.99999e-01,9.99999e-01,8.88385e-01,9.16555e-01,9.99792e-01
1.180579921e+00,8.54031e-01,9.99999e-01,9.99999e-01,9.30471e-01,9.18134e-01,9.99687e-01
1.186482820e+00,8.82783e-01,9.99999e-01,9.99996e-01,9.60185e-01,9.19684e-01,9.99678e-01
1.192415234e+00,8.92285e-01,9.99999e-01,9.91986e-01,9.76607e-01,9.21206e-01,9.99759e-01
1.198377311e+00,5.23744e-01,9.99999e-01,5.77316e-01,9.80289e-01,9.22701e-01,9.99772e-01
1.204369197e+00,8.90698e-08,9.99999e-01,9.74524e-08,9.81308e-01,9.24168e-01,9.99794e-01
1.210391043e+00,5.57320e-26,9.99999e-01,6.08239e-26,9.82119e-01,9.25609e-01,9.99874e-01
1.216442998e+00,1.00548e-22,9.99999e-01,1.09505e-22,9.84730e-01,9.27023e-01,9.99923e-01
1.222525213e+00,2.11010e-22,9.99999e-01,2.28698e-22,9.88110e-01,9.28412e-01,9.99952e-01
1.228637839e+00,2.72005e-17,9.99999e-01,2.94273e-17,9.91737e-01,9.29775e-01,9.99977e-01
