#,Wave/freq,Total,N2,CO2,H2O,Rayleigh,CIA
4.000000000e-01,2.48833e-02,9.99999e-01,9.99999e-01,9.99992e-01,2.48834e-02,9.99999e-01
4.020000000e-01,2.67686e-02,9.99999e-01,9.99999e-01,9.99995e-01,2.67687e-02,9.99999e-01
4.040100000e-01,2.87531e-02,9.99999e-01,9.99999e-01,9.99997e-01,2.87532e-02,9.99999e-01
4.060300500e-01,3.08411e-02,9.99999e-01,9.99999e-01,9.99999e-01,3.08411e-02,9.99999e-01
4.080602003e-01,3.30350e-02,9.99999e-01,9.99999e-01,9.99999e-01,3.30350e-02,9.99999e-01
4.101005013e-01,3.53369e-02,9.99999e-01,9.99999e-01,9.99999e-01,3.53369e-02,9.99999e-01
4.121510038e-01,3.77489e-02,9.99999e-01,9.99999e-01,9.99999e-01,3.77489e-02,9.99999e-01
4.142117588e-01,4.02729e-02,9.99999e-01,9.99999e-01,9.99997e-01,4.02730e-02,9.99999e-01
4.162828176e-01,4.29106e-02,9.99999e-01,9.99999e-01,9.99990e-01,4.29109e-02,9.99999e-01
4.183642317e-01,4.56642e-02,9.99999e-01,9.99999e-01,9.99994e-01,4.56644e-02,9.99999e-01
4.204560528e-01,4.85348e-02,9.99999e-01,9.99999e-01,9.99996e-01,4.85350e-02,9.99999e-01
4.225583331e-01,5.15238e-02,9.99999e-01,9.99999e-01,9.99998e-01,5.15239e-02,9.99999e-01
4.246711247e-01,5.46323e-02,9.99999e-01,9.99999e-01,9.99998e-01,5.46323e-02,9.99999e-01
4.267944804e-01,5.78612e-02,9.99999e-01,9.99999e-01,9.99998e-01,5.78613e-02,9.99999e-01
4.289284528e-01,6.12116e-02,9.99999e-01,9.99999e-01,9.99998e-01,6.12116e-02,9.99999e-01
4.310730950e-01,6.46840e-02,9.99999e-01,9.99999e-01,9.99999e-01,6.46840e-02,9.99999e-01
4.332284605e-01,6.82789e-02,9.99999e-01,9.99999e-01,9.99999e-01,6.82789e-02,9.99999e-01
4.353946028e-01,7.19967e-02,9.99999e-01,9.99999e-01,9.99999e-01,7.19967e-02,9.99999e-01
4.375715758e-01,7.58373e-02,9.99999e-01,9.99999e-01,9.99998e-01,7.58374e-02,9.99999e-01
4.397594337e-01,7.98004e-02,9.99999e-01,9.99999e-01,9.99991e-01,7.98010e-02,9.99999e-01
4.419582309e-01,8.38840e-02,9.99999e-01,9.99999e-01,9.99960e-01,8.38873e-02,9.99999e-01
4.441680220e-01,8.80933e-02,9.99999e-01,9.99999e-01,9.99968e-01,8.80960e-02,9.99999e-01
4.463888621e-01,9.24234e-02,9.99999e-01,9.99999e-01,9.99967e-01,9.24263e-02,9.99999e-01
4.486208064e-01,9.68758e-02,9.99999e-01,9.99999e-01,9.99979e-01,9.68777e-02,9.99999e-01
4.508639105e-01,1.01448e-01,9.99999e-01,9.99999e-01,9.99990e-01,1.01449e-01,9.99999e-01
4.531182300e-01,1.06139e-01,9.99999e-01,9.99999e-01,9.99995e-01,1.06140e-01,9.99999e-01
4.553838212e-01,1.10948e-01,9.99999e-01,9.99999e-01,9.99997e-01,1.10948e-01,9.99999e-01
4.576607403e-01,1.15872e-01,9.99999e-01,9.99999e-01,9.99998e-01,1.15872e-01,9.99999e-01
4.599490440e-01,1.20912e-01,9.99999e-01,9.99999e-01,9.99998e-01,1.20912e-01,9.99999e-01
4.622487892e-01,1.26064e-01,9.99999e-01,9.99999e-01,9.99999e-01,1.26064e-01,9.99999e-01
4.645600332e-01,1.31328e-01,9.99999e-01,9.99999e-01,9.99998e-01,1.31328e-01,9.99999e-01
4.668828333e-01,1.36700e-01,9.99999e-01,9.99999e-01,9.99990e-01,1.36701e-01,9.99999e-01
4.692172475e-01,1.42179e-01,9.99999e-01,9.99999e-01,9.99979e-01,1.42181e-01,9.99999e-01
4.715633337e-01,1.47765e-01,9.99999e-01,9.99999e-01,9.99986e-01,1.47767e-01,9.99999e-01
4.739211504e-01,1.53452e-01,9.99999e-01,9.99999e-01,9.99987e-01,1.53454e-01,9.99999e-01
4.762907561e-01,1.59241e-01,9.99999e-01,9.99999e-01,9.99993e-01,1.59242e-01,9.99999e-01
4.786722099e-01,1.65127e-01,9.99999e-01,9.99999e-01,9.99996e-01,1.65128e-01,9.99999e-01
4.810655710e-01,1.71108e-01,9.99999e-01,9.99999e-01,9.99998e-01,1.71108e-01,9.99999e-01
4.834708988e-01,1.77179e-01,9.99999e-01,9.99999e-01,9.99991e-01,1.77180e-01,9.99999e-01
4.858882533e-01,1.83339e-01,9.99999e-01,9.99999e-01,9.99985e-01,1.83341e-01,9.99999e-01
4.883176946e-01,1.89586e-01,9.99999e-01,9.99999e-01,9.99987e-01,1.89589e-01,9.99999e-01
4.907592831e-01,1.95917e-01,9.99999e-01,9.99999e-01,9.99988e-01,1.95919e-01,9.99999e-01
4.932130795e-01,2.02329e-01,9.99999e-01,9.99999e-01,9.99991e-01,2.02330e-01,9.99999e-01
4.956791449e-01,2.08817e-01,9.99999e-01,9.99999e-01,9.99995e-01,2.08818e-01,9.99999e-01
4.981575406e-01,2.15375e-01,9.99999e-01,9.99999e-01,9.99979e-01,2.15379e-01,9.99999e-01
5.006483283e-01,2.22000e-01,9.99999e-01,9.99999e-01,9.99947e-01,2.22011e-01,9.99999e-01
5.031515699e-01,2.28649e-01,9.99999e-01,9.99999e-01,9.99734e-01,2.28710e-01,9.99996e-01
5.056673278e-01,2.35440e-01,9.99999e-01,9.99999e-01,9.99860e-01,2.35473e-01,9.99996e-01
5.081956644e-01,2.42253e-01,9.99999e-01,9.99999e-01,9.99823e-01,2.42296e-01,9.99997e-01
5.107366428e-01,2.49147e-01,9.99999e-01,9.99999e-01,9.99880e-01,2.49177e-01,9.99999e-01
5.132903260e-01,2.56094e-01,9.99999e-01,9.99999e-01,9.99931e-01,2.56111e-01,9.99999e-01
5.158567776e-01,2.63088e-01,9.99999e-01,9.99999e-01,9.99970e-01,2.63095e-01,9.99999e-01
5.184360615e-01,2.70123e-01,9.99999e-01,9.99999e-01,9.99988e-01,2.70127e-01,9.99999e-01
5.210282418e-01,2.77200e-01,9.99999e-01,9.99999e-01,9.99995e-01,2.77201e-01,9.99999e-01
5.236333830e-01,2.84311e-01,9.99999e-01,9.99999e-01,9.99982e-01,2.84316e-01,9.99999e-01
5.262515499e-01,2.91464e-01,9.99999e-01,9.99999e-01,9.99988e-01,2.91468e-01,9.99999e-01
5.288828077e-01,2.98649e-01,9.99999e-01,9.99999e-01,9.99989e-01,2.98652e-01,9.99999e-01
5.315272217e-01,3.05864e-01,9.99999e-01,9.99999e-01,9.99990e-01,3.05867e-01,9.99999e-01
5.341848578e-01,3.13107e-01,9.99999e-01,9.99999e-01,9.99993e-01,3.13108e-01,9.99999e-01
5.368557821e-01,3.20367e-01,9.99999e-01,9.99999e-01,9.99979e-01,3.20373e-01,9.99999e-01
5.395400610e-01,3.27634e-01,9.99999e-01,9.99999e-01,9.99926e-01,3.27658e-01,9.99998e-01
5.422377613e-01,3.34927e-01,9.99999e-01,9.99999e-01,9.99906e-01,3.34959e-01,9.99997e-01
5.449489501e-01,3.42244e-01,9.99999e-01,9.99999e-01,9.99912e-01,3.42275e-01,9.99997e-01
5.476736949e-01,3.49573e-01,9.99999e-01,9.99999e-01,9.99922e-01,3.49600e-01,9.99998e-01
5.504120634e-01,3.56914e-01,9.99999e-01,9.99999e-01,9.99943e-01,3.56934e-01,9.99999e-01
5.531641237e-01,3.64261e-01,9.99999e-01,9.99999e-01,9.99971e-01,3.64271e-01,9.99999e-01
5.559299443e-01,3.71605e-01,9.99999e-01,9.99999e-01,9.99985e-01,3.71610e-01,9.99999e-01
5.587095940e-01,3.78945e-01,9.99999e-01,9.99999e-01,9.99990e-01,3.78948e-01,9.99999e-01
5.615031420e-01,3.86278e-01,9.99999e-01,9.99999e-01,9.99990e-01,3.86281e-01,9.99999e-01
5.643106577e-01,3.93603e-01,9.99999e-01,9.99999e-01,9.99988e-01,3.93608e-01,9.99999e-01
5.671322110e-01,4.00871e-01,9.99999e-01,9.99999e-01,9.99867e-01,4.00924e-01,9.99998e-01
5.699678720e-01,4.08170e-01,9.99999e-01,9.99999e-01,9.99860e-01,4.08228e-01,9.99995e-01
5.728177114e-01,4.15455e-01,9.99999e-01,9.99999e-01,9.99854e-01,4.15516e-01,9.99996e-01
5.756818000e-01,4.22730e-01,9.99999e-01,9.99999e-01,9.99866e-01,4.22787e-01,9.99997e-01
5.785602090e-01,4.29988e-01,9.99999e-01,9.99999e-01,9.99883e-01,4.30038e-01,9.99999e-01
5.814530100e-01,4.37215e-01,9.99999e-01,9.99999e-01,9.99883e-01,4.37266e-01,9.99999e-01
5.843602750e-01,4.44408e-01,9.99999e-01,9.99999e-01,9.99860e-01,4.44470e-01,9.99998e-01
5.872820764e-01,4.51101e-01,9.99999e-01,9.99999e-01,9.98800e-01,4.51646e-01,9.99991e-01
5.902184868e-01,4.58118e-01,9.99999e-01,9.99999e-01,9.98551e-01,4.58793e-01,9.99976e-01
5.931695792e-01,4.65421e-01,9.99999e-01,9.99999e-01,9.98975e-01,4.65909e-01,9.99977e-01
5.961354271e-01,4.72454e-01,9.99999e-01,9.99999e-01,9.98878e-01,4.72991e-01,9.99986e-01
5.991161043e-01,4.79643e-01,9.99999e-01,9.99999e-01,9.99182e-01,4.80037e-01,9.99995e-01
6.021116848e-01,4.86821e-01,9.99999e-01,9.99999e-01,9.99536e-01,4.87047e-01,9.99999e-01
6.051222432e-01,4.93901e-01,9.99999e-01,9.99999e-01,9.99765e-01,4.94017e-01,9.99999e-01
6.081478544e-01,5.00896e-01,9.99999e-01,9.99999e-01,9.99898e-01,5.00946e-01,9.99999e-01
6.111885937e-01,5.07811e-01,9.99999e-01,9.99999e-01,9.99956e-01,5.07833e-01,9.99999e-01
6.142445367e-01,5.14666e-01,9.99999e-01,9.99999e-01,9.99980e-01,5.14676e-01,9.99999e-01
6.173157594e-01,5.21467e-01,9.99999e-01,9.99999e-01,9.99988e-01,5.21473e-01,9.99999e-01
6.204023382e-01,5.28218e-01,9.99999e-01,9.99999e-01,9.99990e-01,5.28223e-01,9.99999e-01
6.235043498e-01,5.34903e-01,9.99999e-01,9.99999e-01,9.99959e-01,5.34924e-01,9.99999e-01
6.266218716e-01,5.41462e-01,9.99999e-01,9.99999e-01,9.99791e-01,5.41575e-01,9.99998e-01
6.297549810e-01,5.48132e-01,9.99999e-01,9.99999e-01,9.99923e-01,5.48176e-01,9.99996e-01
6.329037559e-01,5.54639e-01,9.99999e-01,9.99999e-01,9.99848e-01,5.54724e-01,9.99997e-01
6.360682746e-01,5.61146e-01,9.99999e-01,9.99999e-01,9.99870e-01,5.61218e-01,9.99998e-01
6.392486160e-01,5.67564e-01,9.99999e-01,9.99999e-01,9.99832e-01,5.67659e-01,9.99998e-01
6.424448591e-01,5.73914e-01,9.99999e-01,9.99999e-01,9.99775e-01,5.74043e-01,9.99998e-01
6.456570834e-01,5.79765e-01,9.99999e-01,9.99999e-01,9.98960e-01,5.80371e-01,9.99993e-01
6.488853688e-01,5.86188e-01,9.99999e-01,9.99999e-01,9.99241e-01,5.86642e-01,9.99983e-01
6.521297956e-01,5.92389e-01,9.99999e-01,9.99999e-01,9.99227e-01,5.92855e-01,9.99986e-01
6.553904446e-01,5.98542e-01,9.99999e-01,9.99999e-01,9.99229e-01,5.99009e-01,9.99989e-01
6.586673968e-01,6.04703e-01,9.99999e-01,9.99999e-01,9.99341e-01,6.05103e-01,9.99996e-01
6.619607338e-01,6.10913e-01,9.99999e-01,9.99999e-01,9.99632e-01,6.11138e-01,9.99998e-01
6.652705375e-01,6.16975e-01,9.99999e-01,9.99999e-01,9.99779e-01,6.17111e-01,9.99999e-01
6.685968902e-01,6.22965e-01,9.99999e-01,9.99999e-01,9.99906e-01,6.23023e-01,9.99999e-01
6.719398746e-01,6.28844e-01,9.99999e-01,9.99999e-01,9.99952e-01,6.28873e-01,9.99999e-01
6.752995740e-01,6.34645e-01,9.99999e-01,9.99999e-01,9.99973e-01,6.34661e-01,9.99999e-01
6.786760719e-01,6.40363e-01,9.99999e-01,9.99999e-01,9.99962e-01,6.40387e-01,9.99999e-01
6.820694522e-01,6.46008e-01,9.99999e-01,9.99999e-01,9.99935e-01,6.46049e-01,9.99999e-01
6.854797995e-01,6.51594e-01,9.99999e-01,9.99999e-01,9.99917e-01,6.51648e-01,9.99998e-01
6.889071985e-01,6.57052e-01,9.99999e-01,9.99999e-01,9.99799e-01,6.57184e-01,9.99997e-01
6.923517345e-01,6.60492e-01,9.99999e-01,9.99999e-01,9.96749e-01,6.62656e-01,9.99983e-01
6.958134932e-01,6.66920e-01,9.99999e-01,9.99999e-01,9.98320e-01,6.68064e-01,9.99965e-01
6.992925606e-01,6.72306e-01,9.99999e-01,9.99999e-01,9.98394e-01,6.73408e-01,9.99968e-01
7.027890234e-01,6.77331e-01,9.99999e-01,9.99999e-01,9.98023e-01,6.78688e-01,9.99975e-01
7.063029686e-01,6.82760e-01,9.99999e-01,9.99999e-01,9.98337e-01,6.83904e-01,9.99987e-01
7.098344834e-01,6.87953e-01,9.99999e-01,9.99999e-01,9.98405e-01,6.89056e-01,9.99992e-01
7.133836558e-01,6.92652e-01,9.99999e-01,9.99999e-01,9.97863e-01,6.94144e-01,9.99985e-01
7.169505741e-01,6.87125e-01,9.99999e-01,9.99999e-01,9.82882e-01,6.99167e-01,9.99890e-01
7.205353270e-01,6.98119e-01,9.99999e-01,9.99999e-01,9.91656e-01,7.04127e-01,9.99807e-01
7.241380036e-01,7.01364e-01,9.99999e-01,9.99999e-01,9.89362e-01,7.09023e-01,9.99833e-01
7.277586936e-01,7.06905e-01,9.99999e-01,9.99999e-01,9.90398e-01,7.13855e-01,9.99864e-01
7.313974871e-01,7.11270e-01,9.99999e-01,9.99999e-01,9.89829e-01,7.18624e-01,9.99936e-01
7.350544745e-01,7.19289e-01,9.99999e-01,9.99999e-01,9.94435e-01,7.23329e-01,9.99977e-01
7.387297469e-01,7.24985e-01,9.99999e-01,9.99999e-01,9.95907e-01,7.27972e-01,9.99989e-01
7.424233956e-01,7.31084e-01,9.99999e-01,9.99999e-01,9.97998e-01,7.32551e-01,9.99997e-01
7.461355126e-01,7.36174e-01,9.99999e-01,9.99999e-01,9.98786e-01,7.37069e-01,9.99999e-01
7.498661902e-01,7.41105e-01,9.99999e-01,9.99999e-01,9.99435e-01,7.41523e-01,9.99999e-01
7.536155211e-01,7.45710e-01,9.99999e-01,9.99999e-01,9.99722e-01,7.45917e-01,9.99999e-01
7.573835987e-01,7.50141e-01,9.99999e-01,9.99999e-01,9.99856e-01,7.50248e-01,9.99999e-01
7.611705167e-01,7.54452e-01,9.99999e-01,9.99999e-01,9.99910e-01,7.54519e-01,9.99999e-01
7.649763693e-01,7.58686e-01,9.99999e-01,9.99999e-01,9.99943e-01,7.58728e-01,9.99999e-01
7.688012511e-01,7.62848e-01,9.99999e-01,9.99999e-01,9.99960e-01,7.62878e-01,9.99999e-01
7.726452574e-01,7.66942e-01,9.99999e-01,9.99999e-01,9.99967e-01,7.66967e-01,9.99999e-01
7.765084837e-01,7.70962e-01,9.99999e-01,9.99999e-01,9.99954e-01,7.70997e-01,9.99999e-01
7.803910261e-01,7.64824e-01,9.99999e-01,9.87102e-01,9.99803e-01,7.74968e-01,9.99999e-01
7.842929812e-01,7.37450e-01,9.99999e-01,9.47446e-01,9.99314e-01,7.78880e-01,9.99998e-01
7.882144461e-01,7.37432e-01,9.99999e-01,9.43441e-01,9.98591e-01,7.82734e-01,9.99989e-01
7.921555184e-01,7.60187e-01,9.99999e-01,9.67261e-01,9.99228e-01,7.86530e-01,9.99982e-01
7.961162960e-01,7.71908e-01,9.99999e-01,9.78113e-01,9.98631e-01,7.90270e-01,9.99983e-01
8.000968774e-01,7.83237e-01,9.99999e-01,9.88075e-01,9.98423e-01,7.93953e-01,9.99982e-01
8.040973618e-01,7.91391e-01,9.99999e-01,9.93820e-01,9.98422e-01,7.97579e-01,9.99986e-01
8.081178486e-01,7.96014e-01,9.99999e-01,9.97155e-01,9.96433e-01,8.01150e-01,9.99986e-01
8.121584379e-01,7.92010e-01,9.99999e-01,9.99123e-01,9.85179e-01,8.04667e-01,9.99949e-01
8.162192301e-01,7.93662e-01,9.99999e-01,9.99806e-01,9.82470e-01,8.08128e-01,9.99812e-01
8.203003262e-01,8.04149e-01,9.99999e-01,9.99996e-01,9.91115e-01,8.11536e-01,9.99780e-01
8.244018279e-01,8.04708e-01,9.99999e-01,9.99999e-01,9.87676e-01,8.14890e-01,9.99825e-01
8.285238370e-01,8.09493e-01,9.99999e-01,9.99999e-01,9.89503e-01,8.18192e-01,9.99862e-01
8.326664562e-01,8.12687e-01,9.99999e-01,9.99999e-01,9.89398e-01,8.21441e-01,9.99942e-01
8.368297885e-01,8.18393e-01,9.99999e-01,9.99999e-01,9.92438e-01,8.24639e-01,9.99986e-01
8.410139374e-01,8.24059e-01,9.99999e-01,9.99999e-01,9.95505e-01,8.27785e-01,9.99991e-01
8.452190071e-01,8.29047e-01,9.99999e-01,9.99999e-01,9.97796e-01,8.30882e-01,9.99994e-01
8.494451021e-01,8.32857e-01,9.99999e-01,9.99999e-01,9.98719e-01,8.33928e-01,9.99995e-01
8.536923276e-01,8.36290e-01,9.99999e-01,9.99999e-01,9.99243e-01,8.36925e-01,9.99997e-01
8.579607893e-01,8.39481e-01,9.99999e-01,9.99999e-01,9.99533e-01,8.39873e-01,9.99998e-01
8.622505932e-01,8.42523e-01,9.99999e-01,9.99999e-01,9.99703e-01,8.42773e-01,9.99999e-01
8.665618462e-01,8.14957e-01,9.99999e-01,9.63906e-01,9.99816e-01,8.45625e-01,9.99999e-01
8.708946554e-01,7.37299e-01,9.99999e-01,8.69194e-01,9.99789e-01,8.48430e-01,9.99999e-01
8.752491287e-01,7.61664e-01,9.99999e-01,8.95071e-01,9.99718e-01,8.51189e-01,9.99999e-01
8.796253743e-01,8.03850e-01,9.99999e-01,9.41746e-01,9.99610e-01,8.53903e-01,9.99998e-01
8.840235012e-01,8.30122e-01,9.99999e-01,9.69553e-01,9.99555e-01,8.56571e-01,9.99996e-01
8.884436187e-01,8.47439e-01,9.99999e-01,9.87934e-01,9.98365e-01,8.59194e-01,9.99991e-01
8.928858368e-01,8.42862e-01,9.99999e-01,9.95097e-01,9.82901e-01,8.61773e-01,9.99955e-01
8.973502660e-01,8.37186e-01,9.99999e-01,9.98810e-01,9.69983e-01,8.64309e-01,9.99772e-01
9.018370173e-01,8.53039e-01,9.99999e-01,9.99868e-01,9.84599e-01,8.66803e-01,9.99642e-01
9.063462024e-01,8.54245e-01,9.99999e-01,9.96575e-01,9.86382e-01,8.69253e-01,9.99685e-01
9.108779334e-01,8.46398e-01,9.99999e-01,9.92261e-01,9.78872e-01,8.71663e-01,9.99673e-01
9.154323231e-01,8.51359e-01,9.99999e-01,9.98186e-01,9.76079e-01,8.74031e-01,9.99730e-01
9.200094847e-01,8.36436e-01,9.99999e-01,9.72502e-01,9.81212e-01,8.76358e-01,9.99848e-01
9.246095321e-01,8.20611e-01,9.99999e-01,9.62596e-01,9.70147e-01,8.78646e-01,9.99825e-01
9.292325798e-01,6.97073e-01,9.99999e-01,9.70264e-01,8.15041e-01,8.80894e-01,9.99321e-01
9.338787427e-01,6.57561e-01,9.99999e-01,9.71471e-01,7.67620e-01,8.83103e-01,9.97201e-01
9.385481364e-01,7.77258e-01,9.99999e-01,9.79015e-01,8.99368e-01,8.85274e-01,9.96672e-01
9.432408771e-01,7.51532e-01,9.99999e-01,9.87139e-01,8.60140e-01,8.87408e-01,9.97128e-01
9.479570815e-01,7.13299e-01,9.99999e-01,9.93378e-01,8.09016e-01,8.89504e-01,9.97662e-01
9.526968669e-01,7.60000e-01,9.99999e-01,9.96804e-01,8.56285e-01,8.91564e-01,9.98573e-01
9.574603512e-01,7.76049e-01,9.99999e-01,9.98633e-01,8.70253e-01,8.93587e-01,9.99274e-01
9.622476530e-01,7.99724e-01,9.99999e-01,9.99573e-01,8.93791e-01,8.95575e-01,9.99498e-01
9.670588912e-01,8.41028e-01,9.99999e-01,9.99872e-01,9.37486e-01,8.97528e-01,9.99656e-01
9.718941857e-01,8.63882e-01,9.99999e-01,9.99990e-01,9.60709e-01,8.99447e-01,9.99747e-01
9.767536566e-01,8.71681e-01,9.99999e-01,9.99999e-01,9.67289e-01,9.01332e-01,9.99806e-01
9.816374249e-01,8.81190e-01,9.99999e-01,9.99999e-01,9.75714e-01,9.03183e-01,9.99932e-01
9.865456120e-01,8.91212e-01,9.99999e-01,9.99999e-01,9.84775e-01,9.05002e-01,9.99985e-01
9.914783401e-01,8.98233e-01,9.99999e-01,9.99999e-01,9.90568e-01,9.06788e-01,9.99995e-01
9.964357318e-01,9.03866e-01,9.99999e-01,9.99999e-01,9.94854e-01,9.08542e-01,9.99997e-01
1.001417910e+00,9.07454e-01,9.99999e-01,9.99999e-01,9.96914e-01,9.10265e-01,9.99996e-01
1.006425000e+00,9.10347e-01,9.99999e-01,9.99999e-01,9.98239e-01,9.11957e-01,9.99994e-01
1.011457125e+00,9.12617e-01,9.99999e-01,9.99999e-01,9.98907e-01,9.13619e-01,9.99994e-01
1.016514411e+00,9.14569e-01,9.99999e-01,9.99999e-01,9.99258e-01,9.15250e-01,9.99996e-01
1.021596983e+00,9.16291e-01,9.99999e-01,9.99980e-01,9.99408e-01,9.16853e-01,9.99996e-01
1.026704968e+00,9.16779e-01,9.99999e-01,9.98667e-01,9.99538e-01,9.18426e-01,9.99997e-01
1.031838492e+00,8.99445e-01,9.99999e-01,9.78010e-01,9.99664e-01,9.19971e-01,9.99998e-01
1.036997685e+00,3.36559e-01,9.99999e-01,3.65296e-01,9.99800e-01,9.21488e-01,9.99999e-01
1.042182673e+00,4.19565e-01,9.99999e-01,4.54680e-01,9.99761e-01,9.22978e-01,9.99999e-01
1.047393587e+00,3.70199e-01,9.99999e-01,4.00573e-01,9.99684e-01,9.24440e-01,9.99999e-01
1.052630555e+00,9.04803e-02,9.99999e-01,9.77586e-02,9.99567e-01,9.25876e-01,9.99999e-01
1.057893707e+00,1.53899e-01,9.99999e-01,1.66067e-01,9.99277e-01,9.27285e-01,9.99999e-01
1.063183176e+00,2.54602e-01,9.99999e-01,2.74436e-01,9.98811e-01,9.28669e-01,9.99998e-01
1.068499092e+00,3.95881e-01,9.99999e-01,4.26456e-01,9.98010e-01,9.30027e-01,9.99998e-01
1.073841587e+00,5.43521e-01,9.99999e-01,5.84848e-01,9.97669e-01,9.31361e-01,9.99996e-01
1.079210795e+00,6.63487e-01,9.99999e-01,7.13445e-01,9.97018e-01,9.32670e-01,9.99991e-01
1.084606849e+00,7.73751e-01,9.99999e-01,8.32175e-01,9.95485e-01,9.33955e-01,9.99980e-01
1.090029883e+00,8.44906e-01,9.99999e-01,9.09320e-01,9.93501e-01,9.35216e-01,9.99959e-01
1.095480033e+00,8.77951e-01,9.99999e-01,9.54327e-01,9.82398e-01,9.36454e-01,9.99927e-01
1.100957433e+00,8.76206e-01,9.99999e-01,9.77766e-01,9.55744e-01,9.37670e-01,9.99867e-01
1.106462220e+00,8.27987e-01,9.99999e-01,9.90756e-01,8.90220e-01,9.38862e-01,9.99776e-01
1.111994531e+00,7.32073e-01,9.99999e-01,9.96565e-01,7.81846e-01,9.40033e-01,9.99406e-01
1.117554504e+00,6.28310e-01,9.99999e-01,9.99162e-01,6.69525e-01,9.41182e-01,9.97859e-01
1.123142276e+00,6.93037e-01,9.99999e-01,9.99944e-01,7.39243e-01,9.42310e-01,9.94931e-01
1.128757988e+00,7.75476e-01,9.99999e-01,9.99999e-01,8.26831e-01,9.43416e-01,9.94139e-01
1.134401778e+00,5.87195e-01,9.99999e-01,9.99999e-01,6.24811e-01,9.44502e-01,9.95014e-01
1.140073787e+00,8.42535e-01,9.99999e-01,9.99999e-01,8.94600e-01,9.45568e-01,9.96014e-01
1.145774156e+00,7.45190e-01,9.99999e-01,9.99999e-01,7.90098e-01,9.46614e-01,9.96351e-01
1.151503026e+00,7.25557e-01,9.99999e-01,9.99999e-01,7.67205e-01,9.47640e-01,9.97965e-01
1.157260541e+00,7.64268e-01,9.99999e-01,9.99999e-01,8.06130e-01,9.48647e-01,9.99390e-01
1.163046844e+00,8.10298e-01,9.99999e-01,9.99999e-01,8.53418e-01,9.49636e-01,9.99826e-01
1.168862078e+00,8.52191e-01,9.99999e-01,9.99999e-01,8.96550e-01,9.50606e-01,9.99910e-01
1.174706389e+00,8.89465e-01,9.99999e-01,9.99999e-01,9.34855e-01,9.51557e-01,9.99881e-01
1.180579921e+00,9.14108e-01,9.99999e-01,9.99999e-01,9.59873e-01,9.52491e-01,9.99821e-01
1.186482820e+00,9.31461e-01,9.99999e-01,9.99996e-01,9.77161e-01,9.53407e-01,9.99816e-01
1.192415234e+00,9.36900e-01,9.99999e-01,9.95193e-01,9.86617e-01,9.54306e-01,9.99862e-01
1.198377311e+00,5.70896e-01,9.99999e-01,6.03534e-01,9.88700e-01,9.55188e-01,9.99870e-01
1.204369197e+00,2.16385e-05,9.99999e-01,2.27767e-05,9.89298e-01,9.56054e-01,9.99882e-01
1.210391043e+00,8.90070e-16,9.99999e-01,9.35541e-16,9.89770e-01,9.56903e-01,9.99928e-01
1.216442998e+00,6.79863e-14,9.99999e-01,7.13762e-14,9.91298e-01,9.57736e-01,9.99955e-01
1.222525213e+00,1.15792e-13,9.99999e-01,1.21251e-13,9.93221e-01,9.58553e-01,9.99972e-01
1.228637839e+00,1.87042e-10,9.99999e-01,1.95635e-10,9.95288e-01,9.59355e-01,9.99986e-01
