#,Wave/freq,Total,N2,CO2,H2O,Rayleigh,CIA
4.000000000e-01,1.44180e-07,9.99999e-01,9.99999e-01,9.99969e-01,1.44184e-07,9.99999e-01
4.020000000e-01,1.96870e-07,9.99999e-01,9.99999e-01,9.99980e-01,1.96874e-07,9.99999e-01
4.040100000e-01,2.67080e-07,9.99999e-01,9.99999e-01,9.99991e-01,2.67082e-07,9.99999e-01
4.060300500e-01,3.60150e-07,9.99999e-01,9.99999e-01,9.99997e-01,3.60151e-07,9.99999e-01
4.080602003e-01,4.82791e-07,9.99999e-01,9.99999e-01,9.99998e-01,4.82792e-07,9.99999e-01
4.101005013e-01,6.43459e-07,9.99999e-01,9.99999e-01,9.99999e-01,6.43459e-07,9.99999e-01
4.121510038e-01,8.52742e-07,9.99999e-01,9.99999e-01,9.99998e-01,8.52743e-07,9.99999e-01
4.142117588e-01,1.12382e-06,9.99999e-01,9.99999e-01,9.99991e-01,1.12383e-06,9.99999e-01
4.162828176e-01,1.47298e-06,9.99999e-01,9.99999e-01,9.99961e-01,1.47303e-06,9.99999e-01
4.183642317e-01,1.92042e-06,9.99999e-01,9.99999e-01,9.99977e-01,1.92046e-06,9.99999e-01
4.204560528e-01,2.49067e-06,9.99999e-01,9.99999e-01,9.99985e-01,2.49070e-06,9.99999e-01
4.225583331e-01,3.21371e-06,9.99999e-01,9.99999e-01,9.99994e-01,3.21372e-06,9.99999e-01
4.246711247e-01,4.12579e-06,9.99999e-01,9.99999e-01,9.99995e-01,4.12581e-06,9.99999e-01
4.267944804e-01,5.27064e-06,9.99999e-01,9.99999e-01,9.99993e-01,5.27067e-06,9.99999e-01
4.289284528e-01,6.70070e-06,9.99999e-01,9.99999e-01,9.99994e-01,6.70073e-06,9.99999e-01
4.310730950e-01,8.47848e-06,9.99999e-01,9.99999e-01,9.99997e-01,8.47850e-06,9.99999e-01
4.332284605e-01,1.06782e-05,9.99999e-01,9.99999e-01,9.99998e-01,1.06782e-05,9.99999e-01
4.353946028e-01,1.33874e-05,9.99999e-01,9.99999e-01,9.99999e-01,1.33874e-05,9.99999e-01
4.375715758e-01,1.67092e-05,9.99999e-01,9.99999e-01,9.99995e-01,1.67092e-05,9.99999e-01
4.397594337e-01,2.07635e-05,9.99999e-01,9.99999e-01,9.99967e-01,2.07642e-05,9.99999e-01
4.419582309e-01,2.56885e-05,9.99999e-01,9.99999e-01,9.99835e-01,2.56927e-05,9.99999e-01
4.441680220e-01,3.16534e-05,9.99999e-01,9.99999e-01,9.99867e-01,3.16575e-05,9.99999e-01
4.463888621e-01,3.88414e-05,9.99999e-01,9.99999e-01,9.99863e-01,3.88467e-05,9.99999e-01
4.486208064e-01,4.74721e-05,9.99999e-01,9.99999e-01,9.99914e-01,4.74761e-05,9.99999e-01
4.508639105e-01,5.77907e-05,9.99999e-01,9.99999e-01,9.99959e-01,5.77930e-05,9.99999e-01
4.531182300e-01,7.00781e-05,9.99999e-01,9.99999e-01,9.99983e-01,7.00792e-05,9.99999e-01
4.553838212e-01,8.46534e-05,9.99999e-01,9.99999e-01,9.99988e-01,8.46543e-05,9.99999e-01
4.576607403e-01,1.01879e-04,9.99999e-01,9.99999e-01,9.99994e-01,1.01880e-04,9.99999e-01
4.599490440e-01,1.22162e-04,9.99999e-01,9.99999e-01,9.99996e-01,1.22163e-04,9.99999e-01
4.622487892e-01,1.45959e-04,9.99999e-01,9.99999e-01,9.99998e-01,1.45959e-04,9.99999e-01
4.645600332e-01,1.73778e-04,9.99999e-01,9.99999e-01,9.99997e-01,1.73779e-04,9.99999e-01
4.668828333e-01,2.06181e-04,9.99999e-01,9.99999e-01,9.99959e-01,2.06189e-04,9.99999e-01
4.692172475e-01,2.43799e-04,9.99999e-01,9.99999e-01,9.99914e-01,2.43819e-04,9.99999e-01
4.715633337e-01,2.87348e-04,9.99999e-01,9.99999e-01,9.99943e-01,2.87364e-04,9.99999e-01
4.739211504e-01,3.37570e-04,9.99999e-01,9.99999e-01,9.99945e-01,3.37588e-04,9.99999e-01
4.762907561e-01,3.95320e-04,9.99999e-01,9.99999e-01,9.99971e-01,3.95331e-04,9.99999e-01
4.786722099e-01,4.61502e-04,9.99999e-01,9.99999e-01,9.99988e-01,4.61508e-04,9.99999e-01
4.810655710e-01,5.37116e-04,9.99999e-01,9.99999e-01,9.99996e-01,5.37118e-04,9.99999e-01
4.834708988e-01,6.23225e-04,9.99999e-01,9.99999e-01,9.99967e-01,6.23245e-04,9.99999e-01
4.858882533e-01,7.21018e-04,9.99999e-01,9.99999e-01,9.99938e-01,7.21061e-04,9.99999e-01
4.883176946e-01,8.31789e-04,9.99999e-01,9.99999e-01,9.99949e-01,8.31831e-04,9.99999e-01
4.907592831e-01,9.56868e-04,9.99999e-01,9.99999e-01,9.99953e-01,9.56912e-04,9.99999e-01
4.932130795e-01,1.09772e-03,9.99999e-01,9.99999e-01,9.99967e-01,1.09776e-03,9.99999e-01
4.956791449e-01,1.25591e-03,9.99999e-01,9.99999e-01,9.99982e-01,1.25593e-03,9.99999e-01
4.981575406e-01,1.43295e-03,9.99999e-01,9.99999e-01,9.99914e-01,1.43307e-03,9.99999e-01
5.006483283e-01,1.63058e-03,9.99999e-01,9.99999e-01,9.99780e-01,1.63094e-03,9.99998e-01
5.031515699e-01,1.84929e-03,9.99999e-01,9.99999e-01,9.98875e-01,1.85140e-03,9.99987e-01
5.056673278e-01,2.09512e-03,9.99999e-01,9.99999e-01,9.99404e-01,2.09639e-03,9.99985e-01
5.081956644e-01,2.36619e-03,9.99999e-01,9.99999e-01,9.99247e-01,2.36799e-03,9.99990e-01
5.107366428e-01,2.66699e-03,9.99999e-01,9.99999e-01,9.99491e-01,2.66835e-03,9.99997e-01
5.132903260e-01,2.99885e-03,9.99999e-01,9.99999e-01,9.99708e-01,2.99972e-03,9.99999e-01
5.158567776e-01,3.36404e-03,9.99999e-01,9.99999e-01,9.99876e-01,3.36446e-03,9.99999e-01
5.184360615e-01,3.76481e-03,9.99999e-01,9.99999e-01,9.99950e-01,3.76499e-03,9.99999e-01
5.210282418e-01,4.20379e-03,9.99999e-01,9.99999e-01,9.99981e-01,4.20387e-03,9.99999e-01
5.236333830e-01,4.68334e-03,9.99999e-01,9.99999e-01,9.99926e-01,4.68369e-03,9.99998e-01
5.262515499e-01,5.20690e-03,9.99999e-01,9.99999e-01,9.99953e-01,5.20714e-03,9.99998e-01
5.288828077e-01,5.77675e-03,9.99999e-01,9.99999e-01,9.99957e-01,5.77700e-03,9.99999e-01
5.315272217e-01,6.39585e-03,9.99999e-01,9.99999e-01,9.99962e-01,6.39608e-03,9.99999e-01
5.341848578e-01,7.06712e-03,9.99999e-01,9.99999e-01,9.99975e-01,7.06729e-03,9.99999e-01
5.368557821e-01,7.79289e-03,9.99999e-01,9.99999e-01,9.99914e-01,7.79355e-03,9.99999e-01
5.395400610e-01,8.57523e-03,9.99999e-01,9.99999e-01,9.99695e-01,8.57786e-03,9.99996e-01
5.422377613e-01,9.41939e-03,9.99999e-01,9.99999e-01,9.99599e-01,9.42323e-03,9.99992e-01
5.449489501e-01,1.03288e-02,9.99999e-01,9.99999e-01,9.99630e-01,1.03327e-02,9.99992e-01
5.476736949e-01,1.13056e-02,9.99999e-01,9.99999e-01,9.99669e-01,1.13094e-02,9.99995e-01
5.504120634e-01,1.23533e-02,9.99999e-01,9.99999e-01,9.99760e-01,1.23563e-02,9.99998e-01
5.531641237e-01,1.34749e-02,9.99999e-01,9.99999e-01,9.99879e-01,1.34765e-02,9.99999e-01
5.559299443e-01,1.46723e-02,9.99999e-01,9.99999e-01,9.99941e-01,1.46731e-02,9.99999e-01
5.587095940e-01,1.59486e-02,9.99999e-01,9.99999e-01,9.99963e-01,1.59492e-02,9.99999e-01
5.615031420e-01,1.73070e-02,9.99999e-01,9.99999e-01,9.99959e-01,1.73077e-02,9.99999e-01
5.643106577e-01,1.87508e-02,9.99999e-01,9.99999e-01,9.99954e-01,1.87516e-02,9.99999e-01
5.671322110e-01,2.02727e-02,9.99999e-01,9.99999e-01,9.99455e-01,2.02838e-02,9.99995e-01
5.699678720e-01,2.18938e-02,9.99999e-01,9.99999e-01,9.99400e-01,2.19073e-02,9.99984e-01
5.728177114e-01,2.36098e-02,9.99999e-01,9.99999e-01,9.99384e-01,2.36247e-02,9.99986e-01
5.756818000e-01,2.54242e-02,9.99999e-01,9.99999e-01,9.99433e-01,2.54387e-02,9.99991e-01
5.785602090e-01,2.73385e-02,9.99999e-01,9.99999e-01,9.99504e-01,2.73521e-02,9.99997e-01
5.814530100e-01,2.93527e-02,9.99999e-01,9.99999e-01,9.99504e-01,2.93673e-02,9.99998e-01
5.843602750e-01,3.14682e-02,9.99999e-01,9.99999e-01,9.99414e-01,3.14868e-02,9.99996e-01
5.872820764e-01,3.35415e-02,9.99999e-01,9.99999e-01,9.94956e-01,3.37127e-02,9.99963e-01
5.902184868e-01,3.58212e-02,9.99999e-01,9.99999e-01,9.93823e-01,3.60473e-02,9.99902e-01
5.931695792e-01,3.83217e-02,9.99999e-01,9.99999e-01,9.95649e-01,3.84927e-02,9.99904e-01
5.961354271e-01,4.08522e-02,9.99999e-01,9.99999e-01,9.95219e-01,4.10507e-02,9.99942e-01
5.991161043e-01,4.35697e-02,9.99999e-01,9.99999e-01,9.96507e-01,4.37231e-02,9.99982e-01
6.021116848e-01,4.64191e-02,9.99999e-01,9.99999e-01,9.98013e-01,4.65115e-02,9.99997e-01
6.051222432e-01,4.93677e-02,9.99999e-01,9.99999e-01,9.98994e-01,4.94174e-02,9.99999e-01
6.081478544e-01,5.24192e-02,9.99999e-01,9.99999e-01,9.99566e-01,5.24419e-02,9.99999e-01
6.111885937e-01,5.55761e-02,9.99999e-01,9.99999e-01,9.99815e-01,5.55863e-02,9.99999e-01
6.142445367e-01,5.88468e-02,9.99999e-01,9.99999e-01,9.99917e-01,5.88516e-02,9.99999e-01
6.173157594e-01,6.22356e-02,9.99999e-01,9.99999e-01,9.99954e-01,6.22384e-02,9.99999e-01
6.204023382e-01,6.57449e-02,9.99999e-01,9.99999e-01,9.99961e-01,6.57474e-02,9.99999e-01
6.235043498e-01,6.93677e-02,9.99999e-01,9.99999e-01,9.99835e-01,6.93791e-02,9.99999e-01
6.266218716e-01,7.30683e-02,9.99999e-01,9.99999e-01,9.99112e-01,7.31336e-02,9.99993e-01
6.297549810e-01,7.69852e-02,9.99999e-01,9.99999e-01,9.99674e-01,7.70112e-02,9.99987e-01
6.329037559e-01,8.09585e-02,9.99999e-01,9.99999e-01,9.99354e-01,8.10116e-02,9.99989e-01
6.360682746e-01,8.50875e-02,9.99999e-01,9.99999e-01,9.99453e-01,8.51346e-02,9.99993e-01
6.392486160e-01,8.93160e-02,9.99999e-01,9.99999e-01,9.99289e-01,8.93797e-02,9.99996e-01
6.424448591e-01,9.36663e-02,9.99999e-01,9.99999e-01,9.99149e-01,9.37464e-02,9.99995e-01
6.456570834e-01,9.78062e-02,9.99999e-01,9.99999e-01,9.95670e-01,9.82338e-02,9.99975e-01
6.488853688e-01,1.02443e-01,9.99999e-01,9.99999e-01,9.96193e-01,1.02841e-01,9.99931e-01
6.521297956e-01,1.07206e-01,9.99999e-01,9.99999e-01,9.96700e-01,1.07567e-01,9.99942e-01
6.553904446e-01,1.12039e-01,9.99999e-01,9.99999e-01,9.96744e-01,1.12410e-01,9.99956e-01
6.586673968e-01,1.17037e-01,9.99999e-01,9.99999e-01,9.97182e-01,1.17369e-01,9.99985e-01
6.619607338e-01,1.22243e-01,9.99999e-01,9.99999e-01,9.98371e-01,1.22443e-01,9.99996e-01
6.652705375e-01,1.27508e-01,9.99999e-01,9.99999e-01,9.99053e-01,1.27629e-01,9.99997e-01
6.685968902e-01,1.32867e-01,9.99999e-01,9.99999e-01,9.99560e-01,1.32925e-01,9.99999e-01
6.719398746e-01,1.38303e-01,9.99999e-01,9.99999e-01,9.99795e-01,1.38331e-01,9.99999e-01
6.752995740e-01,1.43827e-01,9.99999e-01,9.99999e-01,9.99889e-01,1.43843e-01,9.99999e-01
6.786760719e-01,1.49435e-01,9.99999e-01,9.99999e-01,9.99842e-01,1.49459e-01,9.99999e-01
6.820694522e-01,1.55135e-01,9.99999e-01,9.99999e-01,9.99729e-01,1.55177e-01,9.99998e-01
6.854797995e-01,1.60938e-01,9.99999e-01,9.99999e-01,9.99651e-01,1.60994e-01,9.99996e-01
6.889071985e-01,1.66769e-01,9.99999e-01,9.99999e-01,9.99171e-01,1.66908e-01,9.99991e-01
6.923517345e-01,1.70547e-01,9.99999e-01,9.99999e-01,9.86366e-01,1.72916e-01,9.99933e-01
6.958134932e-01,1.77687e-01,9.99999e-01,9.99999e-01,9.92725e-01,1.79015e-01,9.99850e-01
6.992925606e-01,1.83927e-01,9.99999e-01,9.99999e-01,9.93241e-01,1.85203e-01,9.99868e-01
7.027890234e-01,1.89845e-01,9.99999e-01,9.99999e-01,9.91582e-01,1.91476e-01,9.99898e-01
7.063029686e-01,1.96421e-01,9.99999e-01,9.99999e-01,9.92926e-01,1.97831e-01,9.99949e-01
7.098344834e-01,2.02872e-01,9.99999e-01,9.99999e-01,9.93212e-01,2.04265e-01,9.99969e-01
7.133836558e-01,2.08887e-01,9.99999e-01,9.99999e-01,9.91101e-01,2.10775e-01,9.99940e-01
7.169505741e-01,2.02082e-01,9.99999e-01,9.99999e-01,9.30151e-01,2.17358e-01,9.99535e-01
7.205353270e-01,2.15865e-01,9.99999e-01,9.99999e-01,9.64428e-01,2.24010e-01,9.99181e-01
7.241380036e-01,2.20376e-01,9.99999e-01,9.99999e-01,9.55810e-01,2.30728e-01,9.99287e-01
7.277586936e-01,2.27874e-01,9.99999e-01,9.99999e-01,9.59996e-01,2.37510e-01,9.99408e-01
7.313974871e-01,2.33825e-01,9.99999e-01,9.99999e-01,9.57182e-01,2.44351e-01,9.99729e-01
7.350544745e-01,2.45303e-01,9.99999e-01,9.99999e-01,9.76433e-01,2.51247e-01,9.99905e-01
7.387297469e-01,2.53691e-01,9.99999e-01,9.99999e-01,9.82589e-01,2.58197e-01,9.99956e-01
7.424233956e-01,2.62918e-01,9.99999e-01,9.99999e-01,9.91420e-01,2.65196e-01,9.99991e-01
7.461355126e-01,2.70825e-01,9.99999e-01,9.99999e-01,9.94803e-01,2.72240e-01,9.99998e-01
7.498661902e-01,2.78649e-01,9.99999e-01,9.99999e-01,9.97570e-01,2.79327e-01,9.99998e-01
7.536155211e-01,2.86113e-01,9.99999e-01,9.99999e-01,9.98811e-01,2.86453e-01,9.99999e-01
7.573835987e-01,2.93436e-01,9.99999e-01,9.99999e-01,9.99387e-01,2.93615e-01,9.99999e-01
7.611705167e-01,3.00695e-01,9.99999e-01,9.99999e-01,9.99619e-01,3.00809e-01,9.99999e-01
7.649763693e-01,3.07959e-01,9.99999e-01,9.99999e-01,9.99761e-01,3.08032e-01,9.99999e-01
7.688012511e-01,3.15229e-01,9.99999e-01,9.99999e-01,9.99834e-01,3.15281e-01,9.99999e-01
7.726452574e-01,3.22508e-01,9.99999e-01,9.99999e-01,9.99863e-01,3.22552e-01,9.99999e-01
7.765084837e-01,3.29779e-01,9.99999e-01,9.99999e-01,9.99808e-01,3.29842e-01,9.99999e-01
7.803910261e-01,3.21502e-01,9.99999e-01,9.54346e-01,9.99173e-01,3.37148e-01,9.99998e-01
7.842929812e-01,2.74625e-01,9.99999e-01,7.99394e-01,9.97119e-01,3.44467e-01,9.99994e-01
7.882144461e-01,2.75946e-01,9.99999e-01,7.88882e-01,9.94011e-01,3.51795e-01,9.99962e-01
7.921555184e-01,3.11154e-01,9.99999e-01,8.69248e-01,9.96692e-01,3.59130e-01,9.99928e-01
7.961162960e-01,3.31382e-01,9.99999e-01,9.09484e-01,9.94236e-01,3.66469e-01,9.99931e-01
8.000968774e-01,3.52702e-01,9.99999e-01,9.49944e-01,9.93300e-01,3.73808e-01,9.99927e-01
8.040973618e-01,3.68590e-01,9.99999e-01,9.73612e-01,9.93309e-01,3.81144e-01,9.99942e-01
8.081178486e-01,3.78031e-01,9.99999e-01,9.87859e-01,9.85093e-01,3.88476e-01,9.99945e-01
8.121584379e-01,3.70251e-01,9.99999e-01,9.96198e-01,9.39166e-01,3.95799e-01,9.99787e-01
8.162192301e-01,3.73235e-01,9.99999e-01,9.99158e-01,9.27380e-01,4.03112e-01,9.99203e-01
8.203003262e-01,3.95258e-01,9.99999e-01,9.99985e-01,9.63987e-01,4.10412e-01,9.99067e-01
8.244018279e-01,3.95952e-01,9.99999e-01,9.99999e-01,9.48648e-01,4.17695e-01,9.99257e-01
8.285238370e-01,4.06162e-01,9.99999e-01,9.99999e-01,9.56320e-01,4.24960e-01,9.99417e-01
8.326664562e-01,4.12938e-01,9.99999e-01,9.99999e-01,9.55653e-01,4.32205e-01,9.99758e-01
8.368297885e-01,4.25360e-01,9.99999e-01,9.99999e-01,9.68043e-01,4.39426e-01,9.99944e-01
8.410139374e-01,4.38068e-01,9.99999e-01,9.99999e-01,9.80880e-01,4.46621e-01,9.99967e-01
8.452190071e-01,4.49501e-01,9.99999e-01,9.99999e-01,9.90569e-01,4.53789e-01,9.99980e-01
8.494451021e-01,4.58404e-01,9.99999e-01,9.99999e-01,9.94542e-01,4.60927e-01,9.99984e-01
8.536923276e-01,4.66510e-01,9.99999e-01,9.99999e-01,9.96756e-01,4.68032e-01,9.99989e-01
8.579607893e-01,4.74157e-01,9.99999e-01,9.99999e-01,9.98008e-01,4.75104e-01,9.99996e-01
8.622505932e-01,4.81528e-01,9.99999e-01,9.99999e-01,9.98731e-01,4.82140e-01,9.99999e-01
8.665618462e-01,4.44990e-01,9.99999e-01,9.10422e-01,9.99218e-01,4.89138e-01,9.99999e-01
8.708946554e-01,2.83368e-01,9.99999e-01,5.71681e-01,9.99107e-01,4.96096e-01,9.99999e-01
8.752491287e-01,3.18112e-01,9.99999e-01,6.33139e-01,9.98804e-01,5.03013e-01,9.99998e-01
8.796253743e-01,3.95068e-01,9.99999e-01,7.76043e-01,9.98351e-01,5.09886e-01,9.99995e-01
8.840235012e-01,4.51985e-01,9.99999e-01,8.76352e-01,9.98115e-01,5.16716e-01,9.99988e-01
8.884436187e-01,4.93483e-01,9.99999e-01,9.48975e-01,9.93287e-01,5.23499e-01,9.99966e-01
8.928858368e-01,4.83085e-01,9.99999e-01,9.79075e-01,9.30477e-01,5.30234e-01,9.99810e-01
8.973502660e-01,4.69195e-01,9.99999e-01,9.94838e-01,8.79112e-01,5.36921e-01,9.99031e-01
9.018370173e-01,5.07625e-01,9.99999e-01,9.99428e-01,9.35828e-01,5.43557e-01,9.98477e-01
9.063462024e-01,5.11897e-01,9.99999e-01,9.86062e-01,9.44284e-01,5.50142e-01,9.98662e-01
9.108779334e-01,4.91739e-01,9.99999e-01,9.67258e-01,9.13975e-01,5.56674e-01,9.98610e-01
9.154323231e-01,5.03841e-01,9.99999e-01,9.92129e-01,9.02589e-01,5.63152e-01,9.98851e-01
9.200094847e-01,4.74327e-01,9.99999e-01,8.97777e-01,9.22695e-01,5.69576e-01,9.99356e-01
9.246095321e-01,4.34736e-01,9.99999e-01,8.50026e-01,8.85165e-01,5.75944e-01,9.99258e-01
9.292325798e-01,2.30674e-01,9.99999e-01,8.82281e-01,4.42623e-01,5.82255e-01,9.97114e-01
9.338787427e-01,1.81145e-01,9.99999e-01,8.84423e-01,3.46204e-01,5.88509e-01,9.88124e-01
9.385481364e-01,3.51122e-01,9.99999e-01,9.13550e-01,6.50755e-01,5.94704e-01,9.85892e-01
9.432408771e-01,3.14612e-01,9.99999e-01,9.45855e-01,5.58107e-01,6.00840e-01,9.87816e-01
9.479570815e-01,2.63061e-01,9.99999e-01,9.71948e-01,4.49507e-01,6.06916e-01,9.90073e-01
9.526968669e-01,3.26346e-01,9.99999e-01,9.86350e-01,5.42209e-01,6.12932e-01,9.93933e-01
9.574603512e-01,3.46609e-01,9.99999e-01,9.94135e-01,5.64785e-01,6.18888e-01,9.96913e-01
9.622476530e-01,3.89429e-01,9.99999e-01,9.98165e-01,6.25687e-01,6.24781e-01,9.97864e-01
9.670588912e-01,4.80218e-01,9.99999e-01,9.99448e-01,7.63014e-01,6.30613e-01,9.98539e-01
9.718941857e-01,5.36374e-01,9.99999e-01,9.99959e-01,8.43786e-01,6.36382e-01,9.98924e-01
9.767536566e-01,5.57192e-01,9.99999e-01,9.99999e-01,8.68494e-01,6.42089e-01,9.99177e-01
9.816374249e-01,5.83066e-01,9.99999e-01,9.99999e-01,9.00421e-01,6.47732e-01,9.99715e-01
9.865456120e-01,6.11797e-01,9.99999e-01,9.99999e-01,9.36508e-01,6.53312e-01,9.99940e-01
9.914783401e-01,6.32651e-01,9.99999e-01,9.99999e-01,9.60281e-01,6.58829e-01,9.99983e-01
9.964357318e-01,6.49771e-01,9.99999e-01,9.99999e-01,9.78164e-01,6.64282e-01,9.99989e-01
1.001417910e+00,6.60857e-01,9.99999e-01,9.99999e-01,9.86852e-01,6.69671e-01,9.99984e-01
1.006425000e+00,6.69922e-01,9.99999e-01,9.99999e-01,9.92503e-01,6.74996e-01,9.99978e-01
1.011457125e+00,6.77064e-01,9.99999e-01,9.99999e-01,9.95326e-01,6.80257e-01,9.99980e-01
1.016514411e+00,6.83272e-01,9.99999e-01,9.99999e-01,9.96830e-01,6.85453e-01,9.99985e-01
1.021596983e+00,6.88788e-01,9.99999e-01,9.99933e-01,9.97476e-01,6.90586e-01,9.99985e-01
1.026704968e+00,6.90497e-01,9.99999e-01,9.94546e-01,9.98032e-01,6.95654e-01,9.99990e-01
1.031838492e+00,6.62012e-01,9.99999e-01,9.46153e-01,9.98566e-01,7.00659e-01,9.99996e-01
1.036997685e+00,7.59787e-02,9.99999e-01,1.07750e-01,9.99150e-01,7.05599e-01,9.99999e-01
1.042182673e+00,3.34058e-02,9.99999e-01,4.70592e-02,9.98990e-01,7.10476e-01,9.99999e-01
1.047393587e+00,5.14356e-02,9.99999e-01,7.19925e-02,9.98659e-01,7.15289e-01,9.99999e-01
1.052630555e+00,3.42715e-04,9.99999e-01,4.76577e-04,9.98163e-01,7.20039e-01,9.99999e-01
1.057893707e+00,1.03346e-03,9.99999e-01,1.42868e-03,9.96941e-01,7.24726e-01,9.99998e-01
1.063183176e+00,5.58918e-03,9.99999e-01,7.68894e-03,9.94964e-01,7.29349e-01,9.99996e-01
1.068499092e+00,2.27450e-02,9.99999e-01,3.11994e-02,9.91566e-01,7.33910e-01,9.99993e-01
1.073841587e+00,8.06397e-02,9.99999e-01,1.10085e-01,9.90159e-01,7.38409e-01,9.99987e-01
1.079210795e+00,1.81682e-01,9.99999e-01,2.47320e-01,9.87355e-01,7.42845e-01,9.99965e-01
1.084606849e+00,3.37491e-01,9.99999e-01,4.59875e-01,9.80959e-01,7.47220e-01,9.99918e-01
1.090029883e+00,4.88694e-01,9.99999e-01,6.67724e-01,9.72948e-01,7.51533e-01,9.99830e-01
1.095480033e+00,5.74928e-01,9.99999e-01,8.19130e-01,9.27840e-01,7.55785e-01,9.99694e-01
1.100957433e+00,5.71426e-01,9.99999e-01,9.08254e-01,8.27106e-01,7.59977e-01,9.99437e-01
1.106462220e+00,4.56309e-01,9.99999e-01,9.60921e-01,6.20801e-01,7.64108e-01,9.99047e-01
1.111994531e+00,2.78442e-01,9.99999e-01,9.85331e-01,3.68258e-01,7.68180e-01,9.97472e-01
1.117554504e+00,1.53875e-01,9.99999e-01,9.96379e-01,2.01645e-01,7.72192e-01,9.90907e-01
1.123142276e+00,2.40093e-01,9.99999e-01,9.99759e-01,3.16140e-01,7.76145e-01,9.78572e-01
1.128757988e+00,3.58011e-01,9.99999e-01,9.99999e-01,4.70610e-01,7.80040e-01,9.75254e-01
1.134401778e+00,1.79288e-01,9.99999e-01,9.99999e-01,2.33762e-01,7.83877e-01,9.78425e-01
1.140073787e+00,4.90303e-01,9.99999e-01,9.99999e-01,6.33458e-01,7.87656e-01,9.82675e-01
1.145774156e+00,3.05265e-01,9.99999e-01,9.99999e-01,3.91795e-01,7.91378e-01,9.84538e-01
1.151503026e+00,2.79876e-01,9.99999e-01,9.99999e-01,3.55094e-01,7.95044e-01,9.91356e-01
1.157260541e+00,3.28125e-01,9.99999e-01,9.99999e-01,4.11915e-01,7.98654e-01,9.97407e-01
1.163046844e+00,4.14355e-01,9.99999e-01,9.99999e-01,5.16897e-01,8.02209e-01,9.99264e-01
1.168862078e+00,5.07013e-01,9.99999e-01,9.99999e-01,6.29514e-01,8.05709e-01,9.99620e-01
1.174706389e+00,6.07792e-01,9.99999e-01,9.99999e-01,7.51521e-01,8.09154e-01,9.99497e-01
1.180579921e+00,6.82027e-01,9.99999e-01,9.99999e-01,8.40007e-01,8.12546e-01,9.99240e-01
1.186482820e+00,7.38728e-01,9.99999e-01,9.99992e-01,9.06142e-01,8.15884e-01,9.99220e-01
1.192415234e+00,7.58483e-01,9.99999e-01,9.80958e-01,9.44135e-01,8.19170e-01,9.99415e-01
1.198377311e+00,4.35155e-01,9.99999e-01,5.51238e-01,9.52811e-01,8.22404e-01,9.99448e-01
1.204369197e+00,1.10382e-15,9.99999e-01,1.37351e-15,9.55270e-01,8.25586e-01,9.99500e-01
1.210391043e+00,6.35114e-60,9.99999e-01,7.85473e-60,9.57154e-01,8.28718e-01,9.99696e-01
1.216442998e+00,5.18245e-52,9.99999e-01,6.37675e-52,9.63343e-01,8.31799e-01,9.99813e-01
1.222525213e+00,3.02869e-51,9.99999e-01,3.68288e-51,9.71367e-01,8.34830e-01,9.99884e-01
1.228637839e+00,1.12411e-39,9.99999e-01,1.36037e-39,9.80047e-01,8.37812e-01,9.99945e-01
