#,Wave/freq,Total,N2,CO2,H2O,Rayleigh,CIA
4.000000000e-01,1.58685e-03,9.99999e-01,9.99999e-01,9.99987e-01,1.58687e-03,9.99999e-01
4.020000000e-01,1.80256e-03,9.99999e-01,9.99999e-01,9.99991e-01,1.80258e-03,9.99999e-01
4.040100000e-01,2.04219e-03,9.99999e-01,9.99999e-01,9.99996e-01,2.04219e-03,9.99999e-01
4.060300500e-01,2.30796e-03,9.99999e-01,9.99999e-01,9.99998e-01,2.30797e-03,9.99999e-01
4.080602003e-01,2.60203e-03,9.99999e-01,9.99999e-01,9.99999e-01,2.60203e-03,9.99999e-01
4.101005013e-01,2.92662e-03,9.99999e-01,9.99999e-01,9.99999e-01,2.92662e-03,9.99999e-01
4.121510038e-01,3.28406e-03,9.99999e-01,9.99999e-01,9.99999e-01,3.28406e-03,9.99999e-01
4.142117588e-01,3.67678e-03,9.99999e-01,9.99999e-01,9.99996e-01,3.67679e-03,9.99999e-01
4.162828176e-01,4.10724e-03,9.99999e-01,9.99999e-01,9.99984e-01,4.10730e-03,9.99999e-01
4.183642317e-01,4.57816e-03,9.99999e-01,9.99999e-01,9.99990e-01,4.57820e-03,9.99999e-01
4.204560528e-01,5.09213e-03,9.99999e-01,9.99999e-01,9.99993e-01,5.09216e-03,9.99999e-01
4.225583331e-01,5.65191e-03,9.99999e-01,9.99999e-01,9.99997e-01,5.65192e-03,9.99999e-01
4.246711247e-01,6.26030e-03,9.99999e-01,9.99999e-01,9.99997e-01,6.26031e-03,9.99999e-01
4.267944804e-01,6.92018e-03,9.99999e-01,9.99999e-01,9.99997e-01,6.92020e-03,9.99999e-01
4.289284528e-01,7.63450e-03,9.99999e-01,9.99999e-01,9.99997e-01,7.63452e-03,9.99999e-01
4.310730950e-01,8.40624e-03,9.99999e-01,9.99999e-01,9.99998e-01,8.40624e-03,9.99999e-01
4.332284605e-01,9.23839e-03,9.99999e-01,9.99999e-01,9.99999e-01,9.23839e-03,9.99999e-01
4.353946028e-01,1.01340e-02,9.99999e-01,9.99999e-01,9.99999e-01,1.01340e-02,9.99999e-01
4.375715758e-01,1.10961e-02,9.99999e-01,9.99999e-01,9.99997e-01,1.10961e-02,9.99999e-01
4.397594337e-01,1.21277e-02,9.99999e-01,9.99999e-01,9.99986e-01,1.21279e-02,9.99999e-01
4.419582309e-01,1.32314e-02,9.99999e-01,9.99999e-01,9.99931e-01,1.32323e-02,9.99999e-01
4.441680220e-01,1.44116e-02,9.99999e-01,9.99999e-01,9.99945e-01,1.44124e-02,9.99999e-01
4.463888621e-01,1.56705e-02,9.99999e-01,9.99999e-01,9.99943e-01,1.56713e-02,9.99999e-01
4.486208064e-01,1.70115e-02,9.99999e-01,9.99999e-01,9.99964e-01,1.70121e-02,9.99999e-01
4.508639105e-01,1.84373e-02,9.99999e-01,9.99999e-01,9.99983e-01,1.84376e-02,9.99999e-01
4.531182300e-01,1.99507e-02,9.99999e-01,9.99999e-01,9.99993e-01,1.99508e-02,9.99999e-01
4.553838212e-01,2.15545e-02,9.99999e-01,9.99999e-01,9.99995e-01,2.15546e-02,9.99999e-01
4.576607403e-01,2.32518e-02,9.99999e-01,9.99999e-01,9.99997e-01,2.32518e-02,9.99999e-01
4.599490440e-01,2.50451e-02,9.99999e-01,9.99999e-01,9.99998e-01,2.50452e-02,9.99999e-01
4.622487892e-01,2.69372e-02,9.99999e-01,9.99999e-01,9.99999e-01,2.69372e-02,9.99999e-01
4.645600332e-01,2.89306e-02,9.99999e-01,9.99999e-01,9.99998e-01,2.89306e-02,9.99999e-01
4.668828333e-01,3.10272e-02,9.99999e-01,9.99999e-01,9.99983e-01,3.10277e-02,9.99999e-01
4.692172475e-01,3.32297e-02,9.99999e-01,9.99999e-01,9.99964e-01,3.32308e-02,9.99999e-01
4.715633337e-01,3.55414e-02,9.99999e-01,9.99999e-01,9.99976e-01,3.55422e-02,9.99999e-01
4.739211504e-01,3.79631e-02,9.99999e-01,9.99999e-01,9.99977e-01,3.79639e-02,9.99999e-01
4.762907561e-01,4.04974e-02,9.99999e-01,9.99999e-01,9.99988e-01,4.04978e-02,9.99999e-01
4.786722099e-01,4.31456e-02,9.99999e-01,9.99999e-01,9.99994e-01,4.31458e-02,9.99999e-01
4.810655710e-01,4.59093e-02,9.99999e-01,9.99999e-01,9.99998e-01,4.59094e-02,9.99999e-01
4.834708988e-01,4.87895e-02,9.99999e-01,9.99999e-01,9.99986e-01,4.87902e-02,9.99999e-01
4.858882533e-01,5.17881e-02,9.99999e-01,9.99999e-01,9.99974e-01,5.17894e-02,9.99999e-01
4.883176946e-01,5.49072e-02,9.99999e-01,9.99999e-01,9.99978e-01,5.49083e-02,9.99999e-01
4.907592831e-01,5.81467e-02,9.99999e-01,9.99999e-01,9.99980e-01,5.81478e-02,9.99999e-01
4.932130795e-01,6.15079e-02,9.99999e-01,9.99999e-01,9.99986e-01,6.15087e-02,9.99999e-01
4.956791449e-01,6.49913e-02,9.99999e-01,9.99999e-01,9.99992e-01,6.49918e-02,9.99999e-01
4.981575406e-01,6.85949e-02,9.99999e-01,9.99999e-01,9.99964e-01,6.85973e-02,9.99999e-01
5.006483283e-01,7.23192e-02,9.99999e-01,9.99999e-01,9.99908e-01,7.23258e-02,9.99998e-01
5.031515699e-01,7.61417e-02,9.99999e-01,9.99999e-01,9.99538e-01,7.61772e-02,9.99994e-01
5.056673278e-01,8.01315e-02,9.99999e-01,9.99999e-01,9.99756e-01,8.01515e-02,9.99993e-01
5.081956644e-01,8.42223e-02,9.99999e-01,9.99999e-01,9.99692e-01,8.42485e-02,9.99995e-01
5.107366428e-01,8.84493e-02,9.99999e-01,9.99999e-01,9.99792e-01,8.84677e-02,9.99998e-01
5.132903260e-01,9.27976e-02,9.99999e-01,9.99999e-01,9.99880e-01,9.28086e-02,9.99999e-01
5.158567776e-01,9.72656e-02,9.99999e-01,9.99999e-01,9.99949e-01,9.72705e-02,9.99999e-01
5.184360615e-01,1.01850e-01,9.99999e-01,9.99999e-01,9.99979e-01,1.01852e-01,9.99999e-01
5.210282418e-01,1.06552e-01,9.99999e-01,9.99999e-01,9.99992e-01,1.06553e-01,9.99999e-01
5.236333830e-01,1.11368e-01,9.99999e-01,9.99999e-01,9.99969e-01,1.11371e-01,9.99999e-01
5.262515499e-01,1.16304e-01,9.99999e-01,9.99999e-01,9.99980e-01,1.16306e-01,9.99999e-01
5.288828077e-01,1.21353e-01,9.99999e-01,9.99999e-01,9.99982e-01,1.21355e-01,9.99999e-01
5.315272217e-01,1.26516e-01,9.99999e-01,9.99999e-01,9.99984e-01,1.26518e-01,9.99999e-01
5.341848578e-01,1.31790e-01,9.99999e-01,9.99999e-01,9.99989e-01,1.31791e-01,9.99999e-01
5.368557821e-01,1.37169e-01,9.99999e-01,9.99999e-01,9.99964e-01,1.37174e-01,9.99999e-01
5.395400610e-01,1.42645e-01,9.99999e-01,9.99999e-01,9.99873e-01,1.42663e-01,9.99998e-01
5.422377613e-01,1.48233e-01,9.99999e-01,9.99999e-01,9.99836e-01,1.48257e-01,9.99996e-01
5.449489501e-01,1.53930e-01,9.99999e-01,9.99999e-01,9.99847e-01,1.53954e-01,9.99996e-01
5.476736949e-01,1.59728e-01,9.99999e-01,9.99999e-01,9.99864e-01,1.59750e-01,9.99998e-01
5.504120634e-01,1.65628e-01,9.99999e-01,9.99999e-01,9.99901e-01,1.65644e-01,9.99999e-01
5.531641237e-01,1.71624e-01,9.99999e-01,9.99999e-01,9.99950e-01,1.71632e-01,9.99999e-01
5.559299443e-01,1.77708e-01,9.99999e-01,9.99999e-01,9.99975e-01,1.77712e-01,9.99999e-01
5.587095940e-01,1.83878e-01,9.99999e-01,9.99999e-01,9.99984e-01,1.83881e-01,9.99999e-01
5.615031420e-01,1.90133e-01,9.99999e-01,9.99999e-01,9.99982e-01,1.90136e-01,9.99999e-01
5.643106577e-01,1.96470e-01,9.99999e-01,9.99999e-01,9.99980e-01,1.96474e-01,9.99999e-01
5.671322110e-01,2.02845e-01,9.99999e-01,9.99999e-01,9.99772e-01,2.02891e-01,9.99997e-01
5.699678720e-01,2.09333e-01,9.99999e-01,9.99999e-01,9.99756e-01,2.09386e-01,9.99993e-01
5.728177114e-01,2.15898e-01,9.99999e-01,9.99999e-01,9.99747e-01,2.15953e-01,9.99994e-01
5.756818000e-01,2.22539e-01,9.99999e-01,9.99999e-01,9.99767e-01,2.22591e-01,9.99996e-01
5.785602090e-01,2.29249e-01,9.99999e-01,9.99999e-01,9.99797e-01,2.29296e-01,9.99998e-01
5.814530100e-01,2.36016e-01,9.99999e-01,9.99999e-01,9.99796e-01,2.36064e-01,9.99999e-01
5.843602750e-01,2.42834e-01,9.99999e-01,9.99999e-01,9.99758e-01,2.42893e-01,9.99998e-01
5.872820764e-01,2.49254e-01,9.99999e-01,9.99999e-01,9.97916e-01,2.49778e-01,9.99984e-01
5.902184868e-01,2.56057e-01,9.99999e-01,9.99999e-01,9.97471e-01,2.56716e-01,9.99959e-01
5.931695792e-01,2.63224e-01,9.99999e-01,9.99999e-01,9.98214e-01,2.63705e-01,9.99961e-01
5.961354271e-01,2.70204e-01,9.99999e-01,9.99999e-01,9.98042e-01,2.70740e-01,9.99977e-01
5.991161043e-01,2.77420e-01,9.99999e-01,9.99999e-01,9.98571e-01,2.77818e-01,9.99992e-01
6.021116848e-01,2.84705e-01,9.99999e-01,9.99999e-01,9.99189e-01,2.84937e-01,9.99998e-01
6.051222432e-01,2.91971e-01,9.99999e-01,9.99999e-01,9.99589e-01,2.92091e-01,9.99999e-01
6.081478544e-01,2.99226e-01,9.99999e-01,9.99999e-01,9.99822e-01,2.99279e-01,9.99999e-01
6.111885937e-01,3.06473e-01,9.99999e-01,9.99999e-01,9.99924e-01,3.06496e-01,9.99999e-01
6.142445367e-01,3.13729e-01,9.99999e-01,9.99999e-01,9.99966e-01,3.13739e-01,9.99999e-01
6.173157594e-01,3.21000e-01,9.99999e-01,9.99999e-01,9.99981e-01,3.21006e-01,9.99999e-01
6.204023382e-01,3.28287e-01,9.99999e-01,9.99999e-01,9.99983e-01,3.28292e-01,9.99999e-01
6.235043498e-01,3.35572e-01,9.99999e-01,9.99999e-01,9.99931e-01,3.35595e-01,9.99999e-01
6.266218716e-01,3.42786e-01,9.99999e-01,9.99999e-01,9.99636e-01,3.42911e-01,9.99996e-01
6.297549810e-01,3.50189e-01,9.99999e-01,9.99999e-01,9.99866e-01,3.50238e-01,9.99994e-01
6.329037559e-01,3.57476e-01,9.99999e-01,9.99999e-01,9.99736e-01,3.57572e-01,9.99995e-01
6.360682746e-01,3.64827e-01,9.99999e-01,9.99999e-01,9.99775e-01,3.64909e-01,9.99997e-01
6.392486160e-01,3.72140e-01,9.99999e-01,9.99999e-01,9.99708e-01,3.72249e-01,9.99998e-01
6.424448591e-01,3.79438e-01,9.99999e-01,9.99999e-01,9.99611e-01,3.79586e-01,9.99997e-01
6.456570834e-01,3.86217e-01,9.99999e-01,9.99999e-01,9.98196e-01,3.86919e-01,9.99989e-01
6.488853688e-01,3.93711e-01,9.99999e-01,9.99999e-01,9.98675e-01,3.94244e-01,9.99971e-01
6.521297956e-01,4.01008e-01,9.99999e-01,9.99999e-01,9.98649e-01,4.01560e-01,9.99976e-01
6.553904446e-01,4.08307e-01,9.99999e-01,9.99999e-01,9.98658e-01,4.08862e-01,9.99982e-01
6.586673968e-01,4.15668e-01,9.99999e-01,9.99999e-01,9.98849e-01,4.16149e-01,9.99993e-01
6.619607338e-01,4.23137e-01,9.99999e-01,9.99999e-01,9.99334e-01,4.23419e-01,9.99998e-01
6.652705375e-01,4.30502e-01,9.99999e-01,9.99999e-01,9.99614e-01,4.30668e-01,9.99998e-01
6.685968902e-01,4.37815e-01,9.99999e-01,9.99999e-01,9.99820e-01,4.37894e-01,9.99999e-01
6.719398746e-01,4.45058e-01,9.99999e-01,9.99999e-01,9.99916e-01,4.45095e-01,9.99999e-01
6.752995740e-01,4.52248e-01,9.99999e-01,9.99999e-01,9.99954e-01,4.52269e-01,9.99999e-01
6.786760719e-01,4.59383e-01,9.99999e-01,9.99999e-01,9.99934e-01,4.59413e-01,9.99999e-01
6.820694522e-01,4.66474e-01,9.99999e-01,9.99999e-01,9.99888e-01,4.66526e-01,9.99998e-01
6.854797995e-01,4.73537e-01,9.99999e-01,9.99999e-01,9.99856e-01,4.73605e-01,9.99998e-01
6.889071985e-01,4.80481e-01,9.99999e-01,9.99999e-01,9.99654e-01,4.80648e-01,9.99996e-01
6.923517345e-01,4.84890e-01,9.99999e-01,9.99999e-01,9.94357e-01,4.87654e-01,9.99972e-01
6.958134932e-01,4.93132e-01,9.99999e-01,9.99999e-01,9.97049e-01,4.94621e-01,9.99938e-01
6.992925606e-01,5.00121e-01,9.99999e-01,9.99999e-01,9.97210e-01,5.01547e-01,9.99945e-01
7.027890234e-01,5.06655e-01,9.99999e-01,9.99999e-01,9.96550e-01,5.08430e-01,9.99958e-01
7.063029686e-01,5.13764e-01,9.99999e-01,9.99999e-01,9.97100e-01,5.15269e-01,9.99978e-01
7.098344834e-01,5.20603e-01,9.99999e-01,9.99999e-01,9.97217e-01,5.22062e-01,9.99987e-01
7.133836558e-01,5.26839e-01,9.99999e-01,9.99999e-01,9.96301e-01,5.28807e-01,9.99975e-01
7.169505741e-01,5.19589e-01,9.99999e-01,9.99999e-01,9.70463e-01,5.35504e-01,9.99809e-01
7.205353270e-01,5.34057e-01,9.99999e-01,9.99999e-01,9.85398e-01,5.42151e-01,9.99664e-01
7.241380036e-01,5.38472e-01,9.99999e-01,9.99999e-01,9.81558e-01,5.48747e-01,9.99710e-01
7.277586936e-01,5.45911e-01,9.99999e-01,9.99999e-01,9.83340e-01,5.55291e-01,9.99763e-01
7.313974871e-01,5.51768e-01,9.99999e-01,9.99999e-01,9.82284e-01,5.61781e-01,9.99888e-01
7.350544745e-01,5.62682e-01,9.99999e-01,9.99999e-01,9.90298e-01,5.68216e-01,9.99961e-01
7.387297469e-01,5.70481e-01,9.99999e-01,9.99999e-01,9.92855e-01,5.74596e-01,9.99981e-01
7.424233956e-01,5.78884e-01,9.99999e-01,9.99999e-01,9.96498e-01,5.80919e-01,9.99996e-01
7.461355126e-01,5.85939e-01,9.99999e-01,9.99999e-01,9.97878e-01,5.87185e-01,9.99998e-01
7.498661902e-01,5.92806e-01,9.99999e-01,9.99999e-01,9.99011e-01,5.93393e-01,9.99999e-01
7.536155211e-01,5.99251e-01,9.99999e-01,9.99999e-01,9.99515e-01,5.99541e-01,9.99999e-01
7.573835987e-01,6.05480e-01,9.99999e-01,9.99999e-01,9.99750e-01,6.05631e-01,9.99999e-01
7.611705167e-01,6.11565e-01,9.99999e-01,9.99999e-01,9.99844e-01,6.11660e-01,9.99999e-01
7.649763693e-01,6.17568e-01,9.99999e-01,9.99999e-01,9.99902e-01,6.17628e-01,9.99999e-01
7.688012511e-01,6.23492e-01,9.99999e-01,9.99999e-01,9.99931e-01,6.23534e-01,9.99999e-01
7.726452574e-01,6.29344e-01,9.99999e-01,9.99999e-01,9.99943e-01,6.29379e-01,9.99999e-01
7.765084837e-01,6.35112e-01,9.99999e-01,9.99999e-01,9.99920e-01,6.35162e-01,9.99999e-01
7.803910261e-01,6.27011e-01,9.99999e-01,9.78682e-01,9.99658e-01,6.40882e-01,9.99999e-01
7.842929812e-01,5.88037e-01,9.99999e-01,9.10566e-01,9.98809e-01,6.46539e-01,9.99997e-01
7.882144461e-01,5.88382e-01,9.99999e-01,9.04421e-01,9.97544e-01,6.52132e-01,9.99984e-01
7.921555184e-01,6.19829e-01,9.99999e-01,9.43754e-01,9.98651e-01,6.57662e-01,9.99970e-01
7.961162960e-01,6.36415e-01,9.99999e-01,9.62015e-01,9.97622e-01,6.63129e-01,9.99971e-01
8.000968774e-01,6.52843e-01,9.99999e-01,9.79248e-01,9.97251e-01,6.68531e-01,9.99969e-01
8.040973618e-01,6.64742e-01,9.99999e-01,9.89192e-01,9.97251e-01,6.73870e-01,9.99976e-01
8.081178486e-01,6.71580e-01,9.99999e-01,9.95030e-01,9.93816e-01,6.79144e-01,9.99977e-01
8.121584379e-01,6.65756e-01,9.99999e-01,9.98460e-01,9.74397e-01,6.84355e-01,9.99912e-01
8.162192301e-01,6.68089e-01,9.99999e-01,9.99659e-01,9.69586e-01,6.89501e-01,9.99673e-01
8.203003262e-01,6.83712e-01,9.99999e-01,9.99994e-01,9.84728e-01,6.94583e-01,9.99618e-01
8.244018279e-01,6.84388e-01,9.99999e-01,9.99999e-01,9.78550e-01,6.99601e-01,9.99695e-01
8.285238370e-01,6.91564e-01,9.99999e-01,9.99999e-01,9.81794e-01,7.04555e-01,9.99761e-01
8.326664562e-01,6.96304e-01,9.99999e-01,9.99999e-01,9.81572e-01,7.09446e-01,9.99900e-01
8.368297885e-01,7.04843e-01,9.99999e-01,9.99999e-01,9.86820e-01,7.14272e-01,9.99976e-01
8.410139374e-01,7.13385e-01,9.99999e-01,9.99999e-01,9.92153e-01,7.19036e-01,9.99986e-01
8.452190071e-01,7.20941e-01,9.99999e-01,9.99999e-01,9.96146e-01,7.23736e-01,9.99991e-01
8.494451021e-01,7.26741e-01,9.99999e-01,9.99999e-01,9.97765e-01,7.28372e-01,9.99993e-01
8.536923276e-01,7.31975e-01,9.99999e-01,9.99999e-01,9.98677e-01,7.32947e-01,9.99995e-01
8.579607893e-01,7.36858e-01,9.99999e-01,9.99999e-01,9.99185e-01,7.37458e-01,9.99998e-01
8.622505932e-01,7.41524e-01,9.99999e-01,9.99999e-01,9.99482e-01,7.41908e-01,9.99999e-01
8.665618462e-01,7.05946e-01,9.99999e-01,9.46227e-01,9.99679e-01,7.46296e-01,9.99999e-01
8.708946554e-01,5.90015e-01,9.99999e-01,7.86316e-01,9.99633e-01,7.50622e-01,9.99999e-01
8.752491287e-01,6.22729e-01,9.99999e-01,8.25325e-01,9.99510e-01,7.54887e-01,9.99998e-01
8.796253743e-01,6.83218e-01,9.99999e-01,9.00647e-01,9.99322e-01,7.59091e-01,9.99997e-01
8.840235012e-01,7.22529e-01,9.99999e-01,9.47396e-01,9.99225e-01,7.63236e-01,9.99994e-01
8.884436187e-01,7.49052e-01,9.99999e-01,9.78945e-01,9.97183e-01,7.67320e-01,9.99986e-01
8.928858368e-01,7.42182e-01,9.99999e-01,9.91428e-01,9.70541e-01,7.71344e-01,9.99922e-01
8.973502660e-01,7.33413e-01,9.99999e-01,9.97909e-01,9.48291e-01,7.75310e-01,9.99603e-01
9.018370173e-01,7.57704e-01,9.99999e-01,9.99769e-01,9.73216e-01,7.79217e-01,9.99376e-01
9.063462024e-01,7.59831e-01,9.99999e-01,9.94110e-01,9.76498e-01,7.83066e-01,9.99452e-01
9.108779334e-01,7.47589e-01,9.99999e-01,9.86505e-01,9.63538e-01,7.86858e-01,9.99430e-01
9.154323231e-01,7.55200e-01,9.99999e-01,9.96811e-01,9.58697e-01,7.90592e-01,9.99529e-01
9.200094847e-01,7.33444e-01,9.99999e-01,9.53671e-01,9.67464e-01,7.94270e-01,9.99736e-01
9.246095321e-01,7.09060e-01,9.99999e-01,9.35593e-01,9.49395e-01,7.97892e-01,9.99696e-01
9.292325798e-01,5.36948e-01,9.99999e-01,9.49088e-01,7.04117e-01,8.01458e-01,9.98817e-01
9.338787427e-01,4.85135e-01,9.99999e-01,9.50759e-01,6.34659e-01,8.04970e-01,9.95121e-01
9.385481364e-01,6.45913e-01,9.99999e-01,9.63646e-01,8.32786e-01,8.08427e-01,9.94201e-01
9.432408771e-01,6.11632e-01,9.99999e-01,9.77599e-01,7.73898e-01,8.11830e-01,9.94995e-01
9.479570815e-01,5.62312e-01,9.99999e-01,9.88454e-01,7.00412e-01,8.15180e-01,9.95924e-01
9.526968669e-01,6.23088e-01,9.99999e-01,9.94414e-01,7.67202e-01,8.18477e-01,9.97512e-01
9.574603512e-01,6.43801e-01,9.99999e-01,9.97608e-01,7.86271e-01,8.21721e-01,9.98735e-01
9.622476530e-01,6.77578e-01,9.99999e-01,9.99253e-01,8.22701e-01,8.24915e-01,9.99125e-01
9.670588912e-01,7.39531e-01,9.99999e-01,9.99775e-01,8.93820e-01,8.28057e-01,9.99401e-01
9.718941857e-01,7.74712e-01,9.99999e-01,9.99983e-01,9.32522e-01,8.31148e-01,9.99559e-01
9.767536566e-01,7.86945e-01,9.99999e-01,9.99999e-01,9.43681e-01,8.34190e-01,9.99663e-01
9.816374249e-01,8.01903e-01,9.99999e-01,9.99999e-01,9.57969e-01,8.37183e-01,9.99883e-01
9.865456120e-01,8.17884e-01,9.99999e-01,9.99999e-01,9.73547e-01,8.40127e-01,9.99975e-01
9.914783401e-01,8.29174e-01,9.99999e-01,9.99999e-01,9.83578e-01,8.43022e-01,9.99992e-01
9.964357318e-01,8.38276e-01,9.99999e-01,9.99999e-01,9.91025e-01,8.45871e-01,9.99995e-01
1.001417910e+00,8.44096e-01,9.99999e-01,9.99999e-01,9.94612e-01,8.48672e-01,9.99993e-01
1.006425000e+00,8.48805e-01,9.99999e-01,9.99999e-01,9.96927e-01,8.51427e-01,9.99990e-01
1.011457125e+00,8.52500e-01,9.99999e-01,9.99999e-01,9.98091e-01,8.54136e-01,9.99991e-01
1.016514411e+00,8.55686e-01,9.99999e-01,9.99999e-01,9.98704e-01,8.56801e-01,9.99993e-01
1.021596983e+00,8.58502e-01,9.99999e-01,9.99969e-01,9.98967e-01,8.59420e-01,9.99993e-01
1.026704968e+00,8.59327e-01,9.99999e-01,9.97709e-01,9.99194e-01,8.61996e-01,9.99995e-01
1.031838492e+00,8.37219e-01,9.99999e-01,9.68966e-01,9.99414e-01,8.64528e-01,9.99998e-01
1.036997685e+00,2.05373e-01,9.99999e-01,2.36940e-01,9.99652e-01,8.67017e-01,9.99999e-01
1.042182673e+00,2.26741e-01,9.99999e-01,2.60882e-01,9.99585e-01,8.69465e-01,9.99999e-01
1.047393587e+00,2.23754e-01,9.99999e-01,2.56764e-01,9.99450e-01,8.71870e-01,9.99999e-01
1.052630555e+00,2.15594e-02,9.99999e-01,2.46753e-02,9.99246e-01,8.74235e-01,9.99999e-01
1.057893707e+00,4.41957e-02,9.99999e-01,5.04672e-02,9.98742e-01,8.76559e-01,9.99999e-01
1.063183176e+00,9.96730e-02,9.99999e-01,1.13598e-01,9.97930e-01,8.78843e-01,9.99998e-01
1.068499092e+00,2.02256e-01,9.99999e-01,2.30263e-01,9.96534e-01,8.81088e-01,9.99997e-01
1.073841587e+00,3.48334e-01,9.99999e-01,3.95793e-01,9.95945e-01,8.83294e-01,9.99994e-01
1.079210795e+00,4.90695e-01,9.99999e-01,5.56905e-01,9.94803e-01,8.85461e-01,9.99985e-01
1.084606849e+00,6.39431e-01,9.99999e-01,7.25970e-01,9.92143e-01,8.87592e-01,9.99966e-01
1.090029883e+00,7.45317e-01,9.99999e-01,8.47167e-01,9.88740e-01,8.89685e-01,9.99930e-01
1.095480033e+00,7.96876e-01,9.99999e-01,9.21566e-01,9.69594e-01,8.91741e-01,9.99874e-01
1.100957433e+00,7.94374e-01,9.99999e-01,9.61459e-01,9.24406e-01,8.93762e-01,9.99769e-01
1.106462220e+00,7.21086e-01,9.99999e-01,9.83880e-01,8.18218e-01,8.95747e-01,9.99609e-01
1.111994531e+00,5.83547e-01,9.99999e-01,9.93996e-01,6.54470e-01,8.97697e-01,9.98964e-01
1.117554504e+00,4.49644e-01,9.99999e-01,9.98530e-01,5.02339e-01,8.99612e-01,9.96268e-01
1.123142276e+00,5.35399e-01,9.99999e-01,9.99902e-01,5.99226e-01,9.01494e-01,9.91173e-01
1.128757988e+00,6.46157e-01,9.99999e-01,9.99999e-01,7.22669e-01,9.03343e-01,9.89796e-01
1.134401778e+00,4.23280e-01,9.99999e-01,9.99999e-01,4.71726e-01,9.05158e-01,9.91316e-01
1.140073787e+00,7.43146e-01,9.99999e-01,9.99999e-01,8.25126e-01,9.06942e-01,9.93056e-01
1.145774156e+00,6.02829e-01,9.99999e-01,9.99999e-01,6.67646e-01,9.08693e-01,9.93642e-01
1.151503026e+00,5.77476e-01,9.99999e-01,9.99999e-01,6.36557e-01,9.10413e-01,9.96452e-01
1.157260541e+00,6.27598e-01,9.99999e-01,9.99999e-01,6.88809e-01,9.12103e-01,9.98937e-01
1.163046844e+00,6.93745e-01,9.99999e-01,9.99999e-01,7.59447e-01,9.13762e-01,9.99698e-01
1.168862078e+00,7.56565e-01,9.99999e-01,9.99999e-01,8.26622e-01,9.15391e-01,9.99844e-01
1.174706389e+00,8.15194e-01,9.99999e-01,9.99999e-01,8.89171e-01,9.16991e-01,9.99793e-01
1.180579921e+00,8.54927e-01,9.99999e-01,9.99999e-01,9.31012e-01,9.18562e-01,9.99688e-01
1.186482820e+00,8.83442e-01,9.99999e-01,9.99995e-01,9.60463e-01,9.20104e-01,9.99680e-01
1.192415234e+00,8.92652e-01,9.99999e-01,9.91800e-01,9.76754e-01,9.21619e-01,9.99760e-01
1.198377311e+00,5.23037e-01,9.99999e-01,5.76229e-01,9.80378e-01,9.23106e-01,9.99773e-01
1.204369197e+00,9.52477e-08,9.99999e-01,1.04161e-07,9.81409e-01,9.24566e-01,9.99795e-01
1.210391043e+00,7.43586e-26,9.99999e-01,8.11137e-26,9.82220e-01,9.25999e-01,9.99875e-01
1.216442998e+00,1.28971e-22,9.99999e-01,1.40395e-22,9.84848e-01,9.27407e-01,9.99923e-01
1.222525213e+00,2.69602e-22,9.99999e-01,2.92074e-22,9.88192e-01,9.28788e-01,9.99952e-01
1.228637839e+00,3.28302e-17,9.99999e-01,3.55026e-17,9.91789e-01,9.30144e-01,9.99977e-01
