#,Wave/freq,Total,N2,CO2,H2O,Rayleigh,CIA
4.000000000e-01,1.59634e-11,9.99999e-01,9.99999e-01,9.99951e-01,1.59641e-11,9.99999e-01
4.020000000e-01,2.60985e-11,9.99999e-01,9.99999e-01,9.99969e-01,2.60993e-11,9.99999e-01
4.040100000e-01,4.22349e-11,9.99999e-01,9.99999e-01,9.99986e-01,4.22354e-11,9.99999e-01
4.060300500e-01,6.77009e-11,9.99999e-01,9.99999e-01,9.99996e-01,6.77011e-11,9.99999e-01
4.080602003e-01,1.07514e-10,9.99999e-01,9.99999e-01,9.99998e-01,1.07514e-10,9.99999e-01
4.101005013e-01,1.69188e-10,9.99999e-01,9.99999e-01,9.99999e-01,1.69188e-10,9.99999e-01
4.121510038e-01,2.63866e-10,9.99999e-01,9.99999e-01,9.99997e-01,2.63866e-10,9.99999e-01
4.142117588e-01,4.07924e-10,9.99999e-01,9.99999e-01,9.99986e-01,4.07929e-10,9.99999e-01
4.162828176e-01,6.25207e-10,9.99999e-01,9.99999e-01,9.99940e-01,6.25244e-10,9.99999e-01
4.183642317e-01,9.50243e-10,9.99999e-01,9.99999e-01,9.99964e-01,9.50277e-10,9.99999e-01
4.204560528e-01,1.43235e-09,9.99999e-01,9.99999e-01,9.99977e-01,1.43239e-09,9.99999e-01
4.225583331e-01,2.14164e-09,9.99999e-01,9.99999e-01,9.99991e-01,2.14166e-09,9.99999e-01
4.246711247e-01,3.17677e-09,9.99999e-01,9.99999e-01,9.99993e-01,3.17679e-09,9.99999e-01
4.267944804e-01,4.67564e-09,9.99999e-01,9.99999e-01,9.99990e-01,4.67569e-09,9.99999e-01
4.289284528e-01,6.82942e-09,9.99999e-01,9.99999e-01,9.99992e-01,6.82947e-09,9.99999e-01
4.310730950e-01,9.90094e-09,9.99999e-01,9.99999e-01,9.99996e-01,9.90097e-09,9.99999e-01
4.332284605e-01,1.42489e-08,9.99999e-01,9.99999e-01,9.99998e-01,1.42490e-08,9.99999e-01
4.353946028e-01,2.03594e-08,9.99999e-01,9.99999e-01,9.99999e-01,2.03594e-08,9.99999e-01
4.375715758e-01,2.88857e-08,9.99999e-01,9.99999e-01,9.99993e-01,2.88859e-08,9.99999e-01
4.397594337e-01,4.06990e-08,9.99999e-01,9.99999e-01,9.99947e-01,4.07011e-08,9.99999e-01
4.419582309e-01,5.69469e-08,9.99999e-01,9.99999e-01,9.99734e-01,5.69620e-08,9.99999e-01
4.441680220e-01,7.91755e-08,9.99999e-01,9.99999e-01,9.99793e-01,7.91918e-08,9.99999e-01
4.463888621e-01,1.09359e-07,9.99999e-01,9.99999e-01,9.99784e-01,1.09383e-07,9.99999e-01
4.486208064e-01,1.50103e-07,9.99999e-01,9.99999e-01,9.99866e-01,1.50123e-07,9.99999e-01
4.508639105e-01,2.04740e-07,9.99999e-01,9.99999e-01,9.99937e-01,2.04752e-07,9.99999e-01
4.531182300e-01,2.77548e-07,9.99999e-01,9.99999e-01,9.99974e-01,2.77555e-07,9.99999e-01
4.553838212e-01,3.73983e-07,9.99999e-01,9.99999e-01,9.99982e-01,3.73989e-07,9.99999e-01
4.576607403e-01,5.00965e-07,9.99999e-01,9.99999e-01,9.99991e-01,5.00969e-07,9.99999e-01
4.599490440e-01,6.67195e-07,9.99999e-01,9.99999e-01,9.99994e-01,6.67198e-07,9.99999e-01
4.622487892e-01,8.83570e-07,9.99999e-01,9.99999e-01,9.99998e-01,8.83571e-07,9.99999e-01
4.645600332e-01,1.16363e-06,9.99999e-01,9.99999e-01,9.99995e-01,1.16364e-06,9.99999e-01
4.668828333e-01,1.52407e-06,9.99999e-01,9.99999e-01,9.99936e-01,1.52417e-06,9.99999e-01
4.692172475e-01,1.98552e-06,9.99999e-01,9.99999e-01,9.99864e-01,1.98579e-06,9.99999e-01
4.715633337e-01,2.57350e-06,9.99999e-01,9.99999e-01,9.99911e-01,2.57373e-06,9.99999e-01
4.739211504e-01,3.31842e-06,9.99999e-01,9.99999e-01,9.99915e-01,3.31870e-06,9.99999e-01
4.762907561e-01,4.25768e-06,9.99999e-01,9.99999e-01,9.99955e-01,4.25787e-06,9.99999e-01
4.786722099e-01,5.43589e-06,9.99999e-01,9.99999e-01,9.99981e-01,5.43599e-06,9.99999e-01
4.810655710e-01,6.90665e-06,9.99999e-01,9.99999e-01,9.99994e-01,6.90669e-06,9.99999e-01
4.834708988e-01,8.73343e-06,9.99999e-01,9.99999e-01,9.99947e-01,8.73388e-06,9.99999e-01
4.858882533e-01,1.09923e-05,9.99999e-01,9.99999e-01,9.99904e-01,1.09934e-05,9.99999e-01
4.883176946e-01,1.37736e-05,9.99999e-01,9.99999e-01,9.99919e-01,1.37747e-05,9.99999e-01
4.907592831e-01,1.71816e-05,9.99999e-01,9.99999e-01,9.99927e-01,1.71829e-05,9.99999e-01
4.932130795e-01,2.13399e-05,9.99999e-01,9.99999e-01,9.99948e-01,2.13410e-05,9.99999e-01
4.956791449e-01,2.63914e-05,9.99999e-01,9.99999e-01,9.99972e-01,2.63921e-05,9.99999e-01
4.981575406e-01,3.24977e-05,9.99999e-01,9.99999e-01,9.99864e-01,3.25021e-05,9.99999e-01
5.006483283e-01,3.98482e-05,9.99999e-01,9.99999e-01,9.99648e-01,3.98623e-05,9.99997e-01
5.031515699e-01,4.86050e-05,9.99999e-01,9.99999e-01,9.98221e-01,4.86925e-05,9.99980e-01
5.056673278e-01,5.91873e-05,9.99999e-01,9.99999e-01,9.99061e-01,5.92441e-05,9.99978e-01
5.081956644e-01,7.17176e-05,9.99999e-01,9.99999e-01,9.98816e-01,7.18036e-05,9.99985e-01
5.107366428e-01,8.66262e-05,9.99999e-01,9.99999e-01,9.99200e-01,8.66957e-05,9.99996e-01
5.132903260e-01,1.04240e-04,9.99999e-01,9.99999e-01,9.99543e-01,1.04287e-04,9.99999e-01
5.158567776e-01,1.24968e-04,9.99999e-01,9.99999e-01,9.99806e-01,1.24992e-04,9.99999e-01
5.184360615e-01,1.49260e-04,9.99999e-01,9.99999e-01,9.99922e-01,1.49272e-04,9.99999e-01
5.210282418e-01,1.77639e-04,9.99999e-01,9.99999e-01,9.99970e-01,1.77644e-04,9.99999e-01
5.236333830e-01,2.10660e-04,9.99999e-01,9.99999e-01,9.99883e-01,2.10684e-04,9.99998e-01
5.262515499e-01,2.49010e-04,9.99999e-01,9.99999e-01,9.99927e-01,2.49029e-04,9.99998e-01
5.288828077e-01,2.93362e-04,9.99999e-01,9.99999e-01,9.99933e-01,2.93381e-04,9.99998e-01
5.315272217e-01,3.44496e-04,9.99999e-01,9.99999e-01,9.99941e-01,3.44516e-04,9.99999e-01
5.341848578e-01,4.03266e-04,9.99999e-01,9.99999e-01,9.99961e-01,4.03281e-04,9.99999e-01
5.368557821e-01,4.70541e-04,9.99999e-01,9.99999e-01,9.99864e-01,4.70604e-04,9.99999e-01
5.395400610e-01,5.47225e-04,9.99999e-01,9.99999e-01,9.99512e-01,5.47494e-04,9.99995e-01
5.422377613e-01,6.34638e-04,9.99999e-01,9.99999e-01,9.99370e-01,6.35045e-04,9.99988e-01
5.449489501e-01,7.34002e-04,9.99999e-01,9.99999e-01,9.99414e-01,7.34441e-04,9.99987e-01
5.476736949e-01,8.46514e-04,9.99999e-01,9.99999e-01,9.99481e-01,8.46958e-04,9.99993e-01
5.504120634e-01,9.73599e-04,9.99999e-01,9.99999e-01,9.99623e-01,9.73967e-04,9.99997e-01
5.531641237e-01,1.11672e-03,9.99999e-01,9.99999e-01,9.99810e-01,1.11693e-03,9.99999e-01
5.559299443e-01,1.27731e-03,9.99999e-01,9.99999e-01,9.99908e-01,1.27743e-03,9.99999e-01
5.587095940e-01,1.45703e-03,9.99999e-01,9.99999e-01,9.99942e-01,1.45711e-03,9.99999e-01
5.615031420e-01,1.65765e-03,9.99999e-01,9.99999e-01,9.99935e-01,1.65776e-03,9.99999e-01
5.643106577e-01,1.88110e-03,9.99999e-01,9.99999e-01,9.99927e-01,1.88123e-03,9.99998e-01
5.671322110e-01,2.12762e-03,9.99999e-01,9.99999e-01,9.99118e-01,2.12951e-03,9.99991e-01
5.699678720e-01,2.40235e-03,9.99999e-01,9.99999e-01,9.99065e-01,2.40465e-03,9.99975e-01
5.728177114e-01,2.70615e-03,9.99999e-01,9.99999e-01,9.99025e-01,2.70884e-03,9.99979e-01
5.756818000e-01,3.04158e-03,9.99999e-01,9.99999e-01,9.99106e-01,3.04433e-03,9.99987e-01
5.785602090e-01,3.41083e-03,9.99999e-01,9.99999e-01,9.99220e-01,3.41350e-03,9.99995e-01
5.814530100e-01,3.81579e-03,9.99999e-01,9.99999e-01,9.99217e-01,3.81878e-03,9.99997e-01
5.843602750e-01,4.25873e-03,9.99999e-01,9.99999e-01,9.99066e-01,4.26273e-03,9.99994e-01
5.872820764e-01,4.70964e-03,9.99999e-01,9.99999e-01,9.91983e-01,4.74796e-03,9.99943e-01
5.902184868e-01,5.22517e-03,9.99999e-01,9.99999e-01,9.90296e-01,5.27718e-03,9.99845e-01
5.931695792e-01,5.81213e-03,9.99999e-01,9.99999e-01,9.93137e-01,5.85316e-03,9.99851e-01
5.961354271e-01,6.42946e-03,9.99999e-01,9.99999e-01,9.92478e-01,6.47873e-03,9.99914e-01
5.991161043e-01,7.11732e-03,9.99999e-01,9.99999e-01,9.94509e-01,7.15679e-03,9.99973e-01
6.021116848e-01,7.86567e-03,9.99999e-01,9.99999e-01,9.96881e-01,7.89029e-03,9.99996e-01
6.051222432e-01,8.66851e-03,9.99999e-01,9.99999e-01,9.98421e-01,8.68222e-03,9.99999e-01
6.081478544e-01,9.52910e-03,9.99999e-01,9.99999e-01,9.99318e-01,9.53559e-03,9.99999e-01
6.111885937e-01,1.04505e-02,9.99999e-01,9.99999e-01,9.99711e-01,1.04535e-02,9.99999e-01
6.142445367e-01,1.14375e-02,9.99999e-01,9.99999e-01,9.99870e-01,1.14389e-02,9.99999e-01
6.173157594e-01,1.24941e-02,9.99999e-01,9.99999e-01,9.99928e-01,1.24950e-02,9.99999e-01
6.204023382e-01,1.36240e-02,9.99999e-01,9.99999e-01,9.99939e-01,1.36248e-02,9.99999e-01
6.235043498e-01,1.48275e-02,9.99999e-01,9.99999e-01,9.99734e-01,1.48314e-02,9.99998e-01
6.266218716e-01,1.60951e-02,9.99999e-01,9.99999e-01,9.98598e-01,1.61178e-02,9.99989e-01
6.297549810e-01,1.74777e-02,9.99999e-01,9.99999e-01,9.99485e-01,1.74870e-02,9.99979e-01
6.329037559e-01,1.89225e-02,9.99999e-01,9.99999e-01,9.98984e-01,1.89421e-02,9.99983e-01
6.360682746e-01,2.04679e-02,9.99999e-01,9.99999e-01,9.99134e-01,2.04858e-02,9.99990e-01
6.392486160e-01,2.20961e-02,9.99999e-01,9.99999e-01,9.98879e-01,2.21210e-02,9.99995e-01
6.424448591e-01,2.38147e-02,9.99999e-01,9.99999e-01,9.98499e-01,2.38506e-02,9.99992e-01
6.456570834e-01,2.54977e-02,9.99999e-01,9.99999e-01,9.93048e-01,2.56772e-02,9.99960e-01
6.488853688e-01,2.74600e-02,9.99999e-01,9.99999e-01,9.94912e-01,2.76034e-02,9.99891e-01
6.521297956e-01,2.94755e-02,9.99999e-01,9.99999e-01,9.94815e-01,2.96318e-02,9.99910e-01
6.553904446e-01,3.15985e-02,9.99999e-01,9.99999e-01,9.94834e-01,3.17647e-02,9.99933e-01
6.586673968e-01,3.38532e-02,9.99999e-01,9.99999e-01,9.95577e-01,3.40044e-02,9.99977e-01
6.619607338e-01,3.62632e-02,9.99999e-01,9.99999e-01,9.97533e-01,3.63530e-02,9.99994e-01
6.652705375e-01,3.87551e-02,9.99999e-01,9.99999e-01,9.98518e-01,3.88127e-02,9.99997e-01
6.685968902e-01,4.13567e-02,9.99999e-01,9.99999e-01,9.99311e-01,4.13852e-02,9.99999e-01
6.719398746e-01,4.40582e-02,9.99999e-01,9.99999e-01,9.99680e-01,4.40723e-02,9.99999e-01
6.752995740e-01,4.68675e-02,9.99999e-01,9.99999e-01,9.99826e-01,4.68756e-02,9.99999e-01
6.786760719e-01,4.97840e-02,9.99999e-01,9.99999e-01,9.99749e-01,4.97965e-02,9.99999e-01
6.820694522e-01,5.28136e-02,9.99999e-01,9.99999e-01,9.99572e-01,5.28363e-02,9.99997e-01
6.854797995e-01,5.59649e-02,9.99999e-01,9.99999e-01,9.99448e-01,5.59961e-02,9.99994e-01
6.889071985e-01,5.91969e-02,9.99999e-01,9.99999e-01,9.98663e-01,5.92768e-02,9.99987e-01
6.923517345e-01,6.13196e-02,9.99999e-01,9.99999e-01,9.78411e-01,6.26791e-02,9.99895e-01
6.958134932e-01,6.54436e-02,9.99999e-01,9.99999e-01,9.88745e-01,6.62038e-02,9.99768e-01
6.992925606e-01,6.90876e-02,9.99999e-01,9.99999e-01,9.89274e-01,6.98511e-02,9.99791e-01
7.027890234e-01,7.26366e-02,9.99999e-01,9.99999e-01,9.86781e-01,7.36213e-02,9.99840e-01
7.063029686e-01,7.66460e-02,9.99999e-01,9.99999e-01,9.88872e-01,7.75145e-02,9.99920e-01
7.098344834e-01,8.06561e-02,9.99999e-01,9.99999e-01,9.89320e-01,8.15306e-02,9.99952e-01
7.133836558e-01,8.44436e-02,9.99999e-01,9.99999e-01,9.85785e-01,8.56692e-02,9.99906e-01
7.169505741e-01,8.01449e-02,9.99999e-01,9.99999e-01,8.91845e-01,8.99299e-02,9.99267e-01
7.205353270e-01,8.90589e-02,9.99999e-01,9.99999e-01,9.45520e-01,9.43120e-02,9.98708e-01
7.241380036e-01,9.19083e-02,9.99999e-01,9.99999e-01,9.31144e-01,9.88148e-02,9.98884e-01
7.277586936e-01,9.69014e-02,9.99999e-01,9.99999e-01,9.37668e-01,1.03437e-01,9.99088e-01
7.313974871e-01,1.00971e-01,9.99999e-01,9.99999e-01,9.33778e-01,1.08178e-01,9.99572e-01
7.350544745e-01,1.08864e-01,9.99999e-01,9.99999e-01,9.63236e-01,1.13036e-01,9.99851e-01
7.387297469e-01,1.14792e-01,9.99999e-01,9.99999e-01,9.72797e-01,1.18010e-01,9.99931e-01
7.424233956e-01,1.21447e-01,9.99999e-01,9.99999e-01,9.86598e-01,1.23098e-01,9.99986e-01
7.461355126e-01,1.27253e-01,9.99999e-01,9.99999e-01,9.91856e-01,1.28298e-01,9.99997e-01
7.498661902e-01,1.33101e-01,9.99999e-01,9.99999e-01,9.96201e-01,1.33609e-01,9.99998e-01
7.536155211e-01,1.38769e-01,9.99999e-01,9.99999e-01,9.98134e-01,1.39028e-01,9.99999e-01
7.573835987e-01,1.44414e-01,9.99999e-01,9.99999e-01,9.99039e-01,1.44553e-01,9.99999e-01
7.611705167e-01,1.50093e-01,9.99999e-01,9.99999e-01,9.99403e-01,1.50183e-01,9.99999e-01
7.649763693e-01,1.55855e-01,9.99999e-01,9.99999e-01,9.99625e-01,1.55913e-01,9.99999e-01
7.688012511e-01,1.61701e-01,9.99999e-01,9.99999e-01,9.99739e-01,1.61743e-01,9.99999e-01
7.726452574e-01,1.67633e-01,9.99999e-01,9.99999e-01,9.99785e-01,1.67669e-01,9.99999e-01
7.765084837e-01,1.73636e-01,9.99999e-01,9.99999e-01,9.99694e-01,1.73689e-01,9.99999e-01
7.803910261e-01,1.67008e-01,9.99999e-01,9.30002e-01,9.98682e-01,1.79800e-01,9.99998e-01
7.842929812e-01,1.31453e-01,9.99999e-01,7.09689e-01,9.95408e-01,1.85998e-01,9.99991e-01
7.882144461e-01,1.32437e-01,9.99999e-01,6.94831e-01,9.90566e-01,1.92282e-01,9.99934e-01
7.921555184e-01,1.58604e-01,9.99999e-01,8.02453e-01,9.94820e-01,1.98647e-01,9.99886e-01
7.961162960e-01,1.75220e-01,9.99999e-01,8.62167e-01,9.90853e-01,2.05091e-01,9.99892e-01
8.000968774e-01,1.93176e-01,9.99999e-01,9.22667e-01,9.89442e-01,2.11610e-01,9.99885e-01
8.040973618e-01,2.07068e-01,9.99999e-01,9.59138e-01,9.89439e-01,2.18202e-01,9.99908e-01
8.081178486e-01,2.15376e-01,9.99999e-01,9.81010e-01,9.76355e-01,2.24863e-01,9.99914e-01
8.121584379e-01,2.08389e-01,9.99999e-01,9.94104e-01,9.05333e-01,2.31590e-01,9.99665e-01
8.162192301e-01,2.11351e-01,9.99999e-01,9.98695e-01,8.88842e-01,2.38379e-01,9.98743e-01
8.203003262e-01,2.31018e-01,9.99999e-01,9.99980e-01,9.43458e-01,2.45227e-01,9.98529e-01
8.244018279e-01,2.32286e-01,9.99999e-01,9.99999e-01,9.22371e-01,2.52131e-01,9.98829e-01
8.285238370e-01,2.41224e-01,9.99999e-01,9.99999e-01,9.31912e-01,2.59087e-01,9.99080e-01
8.326664562e-01,2.47711e-01,9.99999e-01,9.99999e-01,9.31278e-01,2.66092e-01,9.99619e-01
8.368297885e-01,2.59547e-01,9.99999e-01,9.99999e-01,9.50309e-01,2.73142e-01,9.99912e-01
8.410139374e-01,2.71859e-01,9.99999e-01,9.99999e-01,9.70161e-01,2.80234e-01,9.99948e-01
8.452190071e-01,2.83119e-01,9.99999e-01,9.99999e-01,9.85255e-01,2.87365e-01,9.99969e-01
8.494451021e-01,2.91996e-01,9.99999e-01,9.99999e-01,9.91416e-01,2.94531e-01,9.99975e-01
8.536923276e-01,3.00191e-01,9.99999e-01,9.99999e-01,9.94917e-01,3.01729e-01,9.99984e-01
8.579607893e-01,3.07987e-01,9.99999e-01,9.99999e-01,9.96866e-01,3.08955e-01,9.99995e-01
8.622505932e-01,3.15578e-01,9.99999e-01,9.99999e-01,9.98008e-01,3.16207e-01,9.99998e-01
8.665618462e-01,2.85416e-01,9.99999e-01,8.83352e-01,9.98767e-01,3.23481e-01,9.99999e-01
8.708946554e-01,1.41036e-01,9.99999e-01,4.26943e-01,9.98588e-01,3.30773e-01,9.99998e-01
8.752491287e-01,1.67326e-01,9.99999e-01,4.95812e-01,9.98112e-01,3.38081e-01,9.99997e-01
8.796253743e-01,2.32700e-01,9.99999e-01,6.75367e-01,9.97386e-01,3.45401e-01,9.99993e-01
8.840235012e-01,2.86219e-01,9.99999e-01,8.13798e-01,9.97015e-01,3.52730e-01,9.99981e-01
8.884436187e-01,3.28342e-01,9.99999e-01,9.21717e-01,9.89155e-01,3.60066e-01,9.99947e-01
8.928858368e-01,3.17182e-01,9.99999e-01,9.67461e-01,8.92013e-01,3.67405e-01,9.99701e-01
8.973502660e-01,3.03556e-01,9.99999e-01,9.92005e-01,8.17510e-01,3.74743e-01,9.98471e-01
9.018370173e-01,3.43660e-01,9.99999e-01,9.99116e-01,9.02352e-01,3.82080e-01,9.97598e-01
9.063462024e-01,3.47527e-01,9.99999e-01,9.77715e-01,9.13247e-01,3.89410e-01,9.97890e-01
9.108779334e-01,3.26676e-01,9.99999e-01,9.49192e-01,8.68152e-01,3.96732e-01,9.97807e-01
9.154323231e-01,3.39399e-01,9.99999e-01,9.87846e-01,8.51381e-01,4.04044e-01,9.98187e-01
9.200094847e-01,3.11895e-01,9.99999e-01,8.49263e-01,8.81835e-01,4.11341e-01,9.98985e-01
9.246095321e-01,2.69788e-01,9.99999e-01,7.75516e-01,8.24621e-01,4.18623e-01,9.98830e-01
9.292325798e-01,1.04340e-01,9.99999e-01,8.21123e-01,2.88941e-01,4.25885e-01,9.95448e-01
9.338787427e-01,7.36263e-02,9.99999e-01,8.25453e-01,2.02748e-01,4.33127e-01,9.81319e-01
9.385481364e-01,1.98456e-01,9.99999e-01,8.67855e-01,5.22708e-01,4.40345e-01,9.77822e-01
9.432408771e-01,1.68753e-01,9.99999e-01,9.16637e-01,4.15597e-01,4.47537e-01,9.80837e-01
9.479570815e-01,1.28805e-01,9.99999e-01,9.56289e-01,2.99569e-01,4.54701e-01,9.84376e-01
9.526968669e-01,1.77787e-01,9.99999e-01,9.78700e-01,3.95782e-01,4.61835e-01,9.90441e-01
9.574603512e-01,1.92466e-01,9.99999e-01,9.90832e-01,4.15725e-01,4.68936e-01,9.95132e-01
9.622476530e-01,2.29727e-01,9.99999e-01,9.97131e-01,4.85461e-01,4.76004e-01,9.96631e-01
9.670588912e-01,3.16640e-01,9.99999e-01,9.99140e-01,6.57539e-01,4.83034e-01,9.97695e-01
9.718941857e-01,3.74781e-01,9.99999e-01,9.99939e-01,7.66154e-01,4.90027e-01,9.98302e-01
9.767536566e-01,3.97779e-01,9.99999e-01,9.99999e-01,8.01430e-01,4.96980e-01,9.98702e-01
9.816374249e-01,4.27274e-01,9.99999e-01,9.99999e-01,8.48328e-01,5.03892e-01,9.99550e-01
9.865456120e-01,4.60753e-01,9.99999e-01,9.99999e-01,9.02176e-01,5.10760e-01,9.99905e-01
9.914783401e-01,4.85623e-01,9.99999e-01,9.99999e-01,9.38273e-01,5.17583e-01,9.99973e-01
9.964357318e-01,5.06472e-01,9.99999e-01,9.99999e-01,9.65898e-01,5.24360e-01,9.99984e-01
1.001417910e+00,5.20146e-01,9.99999e-01,9.99999e-01,9.79416e-01,5.31090e-01,9.99976e-01
1.006425000e+00,5.31413e-01,9.99999e-01,9.99999e-01,9.88211e-01,5.37770e-01,9.99966e-01
1.011457125e+00,5.40393e-01,9.99999e-01,9.99999e-01,9.92670e-01,5.44400e-01,9.99968e-01
1.016514411e+00,5.48221e-01,9.99999e-01,9.99999e-01,9.95017e-01,5.50978e-01,9.99977e-01
1.021596983e+00,5.55210e-01,9.99999e-01,9.99878e-01,9.96027e-01,5.57503e-01,9.99977e-01
1.026704968e+00,5.57265e-01,9.99999e-01,9.91179e-01,9.96900e-01,5.63975e-01,9.99984e-01
1.031838492e+00,5.24034e-01,9.99999e-01,9.20706e-01,9.97747e-01,5.70391e-01,9.99995e-01
1.036997685e+00,3.94410e-02,9.99999e-01,6.84544e-02,9.98661e-01,5.76752e-01,9.99998e-01
1.042182673e+00,6.41607e-03,9.99999e-01,1.10183e-02,9.98403e-01,5.83056e-01,9.99999e-01
1.047393587e+00,1.35356e-02,9.99999e-01,2.30101e-02,9.97883e-01,5.89302e-01,9.99999e-01
1.052630555e+00,9.91985e-06,9.99999e-01,1.66899e-05,9.97096e-01,5.95490e-01,9.99998e-01
1.057893707e+00,3.61715e-05,9.99999e-01,6.02853e-05,9.95155e-01,6.01618e-01,9.99997e-01
1.063183176e+00,4.36045e-04,9.99999e-01,7.21051e-04,9.92041e-01,6.07687e-01,9.99995e-01
1.068499092e+00,2.94187e-03,9.99999e-01,4.83995e-03,9.86708e-01,6.13695e-01,9.99990e-01
1.073841587e+00,2.02443e-02,9.99999e-01,3.30611e-02,9.84467e-01,6.19643e-01,9.99979e-01
1.079210795e+00,7.16478e-02,9.99999e-01,1.16452e-01,9.80135e-01,6.25528e-01,9.99946e-01
1.084606849e+00,1.83404e-01,9.99999e-01,2.98612e-01,9.70089e-01,6.31352e-01,9.99871e-01
1.090029883e+00,3.25134e-01,9.99999e-01,5.31782e-01,9.57335e-01,6.37113e-01,9.99733e-01
1.095480033e+00,4.18898e-01,9.99999e-01,7.32020e-01,8.88053e-01,6.42812e-01,9.99517e-01
1.100957433e+00,4.14327e-01,9.99999e-01,8.59998e-01,7.40954e-01,6.48447e-01,9.99113e-01
1.106462220e+00,2.92898e-01,9.99999e-01,9.39480e-01,4.75151e-01,6.54019e-01,9.98496e-01
1.111994531e+00,1.38629e-01,9.99999e-01,9.77108e-01,2.15263e-01,6.59528e-01,9.96014e-01
1.117554504e+00,5.74886e-02,9.99999e-01,9.94367e-01,8.80353e-02,6.64973e-01,9.85685e-01
1.123142276e+00,1.18785e-01,9.99999e-01,9.99629e-01,1.83375e-01,6.70353e-01,9.66388e-01
1.128757988e+00,2.05741e-01,9.99999e-01,9.99999e-01,3.16784e-01,6.75670e-01,9.61220e-01
1.134401778e+00,9.55564e-02,9.99999e-01,9.99999e-01,1.45133e-01,6.80923e-01,9.66928e-01
1.140073787e+00,3.28897e-01,9.99999e-01,9.99999e-01,4.92419e-01,6.86111e-01,9.73486e-01
1.145774156e+00,1.63819e-01,9.99999e-01,9.99999e-01,2.42896e-01,6.91236e-01,9.75703e-01
1.151503026e+00,1.44101e-01,9.99999e-01,9.99999e-01,2.09808e-01,6.96296e-01,9.86391e-01
1.157260541e+00,1.77592e-01,9.99999e-01,9.99999e-01,2.54275e-01,7.01293e-01,9.95911e-01
1.163046844e+00,2.54460e-01,9.99999e-01,9.99999e-01,3.60728e-01,7.06225e-01,9.98839e-01
1.168862078e+00,3.45086e-01,9.99999e-01,9.99999e-01,4.85579e-01,7.11094e-01,9.99401e-01
1.174706389e+00,4.57662e-01,9.99999e-01,9.99999e-01,6.39790e-01,7.15899e-01,9.99206e-01
1.180579921e+00,5.47843e-01,9.99999e-01,9.99999e-01,7.61128e-01,7.20640e-01,9.98801e-01
1.186482820e+00,6.20455e-01,9.99999e-01,9.99982e-01,8.56487e-01,7.25319e-01,9.98769e-01
1.192415234e+00,6.46335e-01,9.99999e-01,9.69509e-01,9.13425e-01,7.29935e-01,9.99078e-01
1.198377311e+00,3.66365e-01,9.99999e-01,5.32011e-01,9.26528e-01,7.34488e-01,9.99129e-01
1.204369197e+00,1.86833e-23,9.99999e-01,2.63808e-23,9.30463e-01,7.38978e-01,9.99212e-01
1.210391043e+00,2.73452e-93,9.99999e-01,3.82405e-93,9.33327e-01,7.43407e-01,9.99520e-01
1.216442998e+00,8.43424e-81,9.99999e-01,1.17002e-80,9.43006e-01,7.47773e-01,9.99706e-01
1.222525213e+00,1.36802e-79,9.99999e-01,1.86267e-79,9.55300e-01,7.52079e-01,9.99817e-01
1.228637839e+00,1.72324e-61,9.99999e-01,2.32803e-61,9.68738e-01,7.56323e-01,9.99914e-01
