#,Wave/freq,Total,N2,CO2,H2O,Rayleigh,CIA
4.000000000e-01,3.91946e-12,9.99999e-01,9.99999e-01,9.99949e-01,3.91966e-12,9.99999e-01
4.020000000e-01,6.58840e-12,9.99999e-01,9.99999e-01,9.99968e-01,6.58861e-12,9.99999e-01
4.040100000e-01,1.09558e-11,9.99999e-01,9.99999e-01,9.99986e-01,1.09560e-11,9.99999e-01
4.060300500e-01,1.80361e-11,9.99999e-01,9.99999e-01,9.99996e-01,1.80362e-11,9.99999e-01
4.080602003e-01,2.94010e-11,9.99999e-01,9.99999e-01,9.99998e-01,2.94010e-11,9.99999e-01
4.101005013e-01,4.74666e-11,9.99999e-01,9.99999e-01,9.99999e-01,4.74666e-11,9.99999e-01
4.121510038e-01,7.59109e-11,9.99999e-01,9.99999e-01,9.99997e-01,7.59110e-11,9.99999e-01
4.142117588e-01,1.20278e-10,9.99999e-01,9.99999e-01,9.99985e-01,1.20280e-10,9.99999e-01
4.162828176e-01,1.88846e-10,9.99999e-01,9.99999e-01,9.99936e-01,1.88858e-10,9.99999e-01
4.183642317e-01,2.93893e-10,9.99999e-01,9.99999e-01,9.99962e-01,2.93904e-10,9.99999e-01
4.204560528e-01,4.53390e-10,9.99999e-01,9.99999e-01,9.99976e-01,4.53400e-10,9.99999e-01
4.225583331e-01,6.93483e-10,9.99999e-01,9.99999e-01,9.99990e-01,6.93488e-10,9.99999e-01
4.246711247e-01,1.05184e-09,9.99999e-01,9.99999e-01,9.99992e-01,1.05184e-09,9.99999e-01
4.267944804e-01,1.58229e-09,9.99999e-01,9.99999e-01,9.99989e-01,1.58230e-09,9.99999e-01
4.289284528e-01,2.36114e-09,9.99999e-01,9.99999e-01,9.99991e-01,2.36116e-09,9.99999e-01
4.310730950e-01,3.49564e-09,9.99999e-01,9.99999e-01,9.99996e-01,3.49565e-09,9.99999e-01
4.332284605e-01,5.13528e-09,9.99999e-01,9.99999e-01,9.99998e-01,5.13528e-09,9.99999e-01
4.353946028e-01,7.48688e-09,9.99999e-01,9.99999e-01,9.99999e-01,7.48689e-09,9.99999e-01
4.375715758e-01,1.08343e-08,9.99999e-01,9.99999e-01,9.99993e-01,1.08344e-08,9.99999e-01
4.397594337e-01,1.55637e-08,9.99999e-01,9.99999e-01,9.99944e-01,1.55645e-08,9.99999e-01
4.419582309e-01,2.21942e-08,9.99999e-01,9.99999e-01,9.99721e-01,2.22004e-08,9.99999e-01
4.441680220e-01,3.14372e-08,9.99999e-01,9.99999e-01,9.99781e-01,3.14441e-08,9.99999e-01
4.463888621e-01,4.42214e-08,9.99999e-01,9.99999e-01,9.99772e-01,4.42315e-08,9.99999e-01
4.486208064e-01,6.17924e-08,9.99999e-01,9.99999e-01,9.99858e-01,6.18011e-08,9.99999e-01
4.508639105e-01,8.57755e-08,9.99999e-01,9.99999e-01,9.99933e-01,8.57812e-08,9.99999e-01
4.531182300e-01,1.18294e-07,9.99999e-01,9.99999e-01,9.99973e-01,1.18297e-07,9.99999e-01
4.553838212e-01,1.62104e-07,9.99999e-01,9.99999e-01,9.99981e-01,1.62107e-07,9.99999e-01
4.576607403e-01,2.20760e-07,9.99999e-01,9.99999e-01,9.99991e-01,2.20762e-07,9.99999e-01
4.599490440e-01,2.98810e-07,9.99999e-01,9.99999e-01,9.99993e-01,2.98812e-07,9.99999e-01
4.622487892e-01,4.02045e-07,9.99999e-01,9.99999e-01,9.99998e-01,4.02046e-07,9.99999e-01
4.645600332e-01,5.37780e-07,9.99999e-01,9.99999e-01,9.99995e-01,5.37783e-07,9.99999e-01
4.668828333e-01,7.15178e-07,9.99999e-01,9.99999e-01,9.99933e-01,7.15225e-07,9.99999e-01
4.692172475e-01,9.45738e-07,9.99999e-01,9.99999e-01,9.99857e-01,9.45873e-07,9.99999e-01
4.715633337e-01,1.24390e-06,9.99999e-01,9.99999e-01,9.99906e-01,1.24401e-06,9.99999e-01
4.739211504e-01,1.62715e-06,9.99999e-01,9.99999e-01,9.99910e-01,1.62730e-06,9.99999e-01
4.762907561e-01,2.11731e-06,9.99999e-01,9.99999e-01,9.99953e-01,2.11741e-06,9.99999e-01
4.786722099e-01,2.74079e-06,9.99999e-01,9.99999e-01,9.99980e-01,2.74084e-06,9.99999e-01
4.810655710e-01,3.52978e-06,9.99999e-01,9.99999e-01,9.99993e-01,3.52980e-06,9.99999e-01
4.834708988e-01,4.52295e-06,9.99999e-01,9.99999e-01,9.99945e-01,4.52319e-06,9.99999e-01
4.858882533e-01,5.76726e-06,9.99999e-01,9.99999e-01,9.99898e-01,5.76784e-06,9.99999e-01
4.883176946e-01,7.31913e-06,9.99999e-01,9.99999e-01,9.99915e-01,7.31975e-06,9.99999e-01
4.907592831e-01,9.24490e-06,9.99999e-01,9.99999e-01,9.99923e-01,9.24560e-06,9.99999e-01
4.932130795e-01,1.16238e-05,9.99999e-01,9.99999e-01,9.99945e-01,1.16244e-05,9.99999e-01
4.956791449e-01,1.45489e-05,9.99999e-01,9.99999e-01,9.99970e-01,1.45493e-05,9.99999e-01
4.981575406e-01,1.81270e-05,9.99999e-01,9.99999e-01,9.99856e-01,1.81296e-05,9.99999e-01
5.006483283e-01,2.24846e-05,9.99999e-01,9.99999e-01,9.99630e-01,2.24929e-05,9.99997e-01
5.031515699e-01,2.77351e-05,9.99999e-01,9.99999e-01,9.98123e-01,2.77878e-05,9.99979e-01
5.056673278e-01,3.41515e-05,9.99999e-01,9.99999e-01,9.99008e-01,3.41861e-05,9.99976e-01
5.081956644e-01,4.18328e-05,9.99999e-01,9.99999e-01,9.98748e-01,4.18858e-05,9.99984e-01
5.107366428e-01,5.10710e-05,9.99999e-01,9.99999e-01,9.99154e-01,5.11143e-05,9.99996e-01
5.132903260e-01,6.21011e-05,9.99999e-01,9.99999e-01,9.99516e-01,6.21311e-05,9.99999e-01
5.158567776e-01,7.52165e-05,9.99999e-01,9.99999e-01,9.99795e-01,7.52319e-05,9.99999e-01
5.184360615e-01,9.07439e-05,9.99999e-01,9.99999e-01,9.99917e-01,9.07513e-05,9.99999e-01
5.210282418e-01,1.09064e-04,9.99999e-01,9.99999e-01,9.99969e-01,1.09068e-04,9.99999e-01
5.236333830e-01,1.30589e-04,9.99999e-01,9.99999e-01,9.99877e-01,1.30605e-04,9.99998e-01
5.262515499e-01,1.55828e-04,9.99999e-01,9.99999e-01,9.99922e-01,1.55840e-04,9.99998e-01
5.288828077e-01,1.85291e-04,9.99999e-01,9.99999e-01,9.99929e-01,1.85304e-04,9.99998e-01
5.315272217e-01,2.19571e-04,9.99999e-01,9.99999e-01,9.99937e-01,2.19585e-04,9.99999e-01
5.341848578e-01,2.59327e-04,9.99999e-01,9.99999e-01,9.99959e-01,2.59337e-04,9.99999e-01
5.368557821e-01,3.05238e-04,9.99999e-01,9.99999e-01,9.99857e-01,3.05281e-04,9.99999e-01
5.395400610e-01,3.58023e-04,9.99999e-01,9.99999e-01,9.99486e-01,3.58209e-04,9.99995e-01
5.422377613e-01,4.18703e-04,9.99999e-01,9.99999e-01,9.99334e-01,4.18987e-04,9.99987e-01
5.449489501e-01,4.88255e-04,9.99999e-01,9.99999e-01,9.99382e-01,4.88563e-04,9.99987e-01
5.476736949e-01,5.67651e-04,9.99999e-01,9.99999e-01,9.99451e-01,5.67966e-04,9.99993e-01
5.504120634e-01,6.58050e-04,9.99999e-01,9.99999e-01,9.99601e-01,6.58313e-04,9.99997e-01
5.531641237e-01,7.60658e-04,9.99999e-01,9.99999e-01,9.99799e-01,7.60810e-04,9.99999e-01
5.559299443e-01,8.76671e-04,9.99999e-01,9.99999e-01,9.99902e-01,8.76756e-04,9.99999e-01
5.587095940e-01,1.00748e-03,9.99999e-01,9.99999e-01,9.99939e-01,1.00755e-03,9.99999e-01
5.615031420e-01,1.15459e-03,9.99999e-01,9.99999e-01,9.99932e-01,1.15467e-03,9.99999e-01
5.643106577e-01,1.31962e-03,9.99999e-01,9.99999e-01,9.99923e-01,1.31972e-03,9.99998e-01
5.671322110e-01,1.50298e-03,9.99999e-01,9.99999e-01,9.99076e-01,1.50438e-03,9.99991e-01
5.699678720e-01,1.70872e-03,9.99999e-01,9.99999e-01,9.99009e-01,1.71046e-03,9.99974e-01
5.728177114e-01,1.93781e-03,9.99999e-01,9.99999e-01,9.98971e-01,1.93984e-03,9.99978e-01
5.756818000e-01,2.19242e-03,9.99999e-01,9.99999e-01,9.99055e-01,2.19452e-03,9.99986e-01
5.785602090e-01,2.47454e-03,9.99999e-01,9.99999e-01,9.99176e-01,2.47659e-03,9.99995e-01
5.814530100e-01,2.78594e-03,9.99999e-01,9.99999e-01,9.99173e-01,2.78825e-03,9.99997e-01
5.843602750e-01,3.12870e-03,9.99999e-01,9.99999e-01,9.99017e-01,3.13179e-03,9.99994e-01
5.872820764e-01,3.47976e-03,9.99999e-01,9.99999e-01,9.91557e-01,3.50960e-03,9.99939e-01
5.902184868e-01,3.88326e-03,9.99999e-01,9.99999e-01,9.89743e-01,3.92414e-03,9.99837e-01
5.931695792e-01,4.34559e-03,9.99999e-01,9.99999e-01,9.92754e-01,4.37798e-03,9.99843e-01
5.961354271e-01,4.83460e-03,9.99999e-01,9.99999e-01,9.92052e-01,4.87377e-03,9.99909e-01
5.991161043e-01,5.38264e-03,9.99999e-01,9.99999e-01,9.94195e-01,5.41421e-03,9.99971e-01
6.021116848e-01,5.98229e-03,9.99999e-01,9.99999e-01,9.96701e-01,6.00210e-03,9.99996e-01
6.051222432e-01,6.62921e-03,9.99999e-01,9.99999e-01,9.98329e-01,6.64030e-03,9.99999e-01
6.081478544e-01,7.32642e-03,9.99999e-01,9.99999e-01,9.99279e-01,7.33170e-03,9.99999e-01
6.111885937e-01,8.07681e-03,9.99999e-01,9.99999e-01,9.99694e-01,8.07927e-03,9.99999e-01
6.142445367e-01,8.88480e-03,9.99999e-01,9.99999e-01,9.99863e-01,8.88601e-03,9.99999e-01
6.173157594e-01,9.75422e-03,9.99999e-01,9.99999e-01,9.99924e-01,9.75495e-03,9.99999e-01
6.204023382e-01,1.06885e-02,9.99999e-01,9.99999e-01,9.99936e-01,1.06891e-02,9.99999e-01
6.235043498e-01,1.16884e-02,9.99999e-01,9.99999e-01,9.99721e-01,1.16917e-02,9.99998e-01
6.266218716e-01,1.27466e-02,9.99999e-01,9.99999e-01,9.98520e-01,1.27656e-02,9.99989e-01
6.297549810e-01,1.39061e-02,9.99999e-01,9.99999e-01,9.99457e-01,1.39140e-02,9.99978e-01
6.329037559e-01,1.51234e-02,9.99999e-01,9.99999e-01,9.98926e-01,1.51399e-02,9.99982e-01
6.360682746e-01,1.64312e-02,9.99999e-01,9.99999e-01,9.99086e-01,1.64463e-02,9.99989e-01
6.392486160e-01,1.78152e-02,9.99999e-01,9.99999e-01,9.98815e-01,1.78364e-02,9.99995e-01
6.424448591e-01,1.92822e-02,9.99999e-01,9.99999e-01,9.98419e-01,1.93129e-02,9.99992e-01
6.456570834e-01,2.07252e-02,9.99999e-01,9.99999e-01,9.92680e-01,2.08788e-02,9.99958e-01
6.488853688e-01,2.24132e-02,9.99999e-01,9.99999e-01,9.94620e-01,2.25370e-02,9.99885e-01
6.521297956e-01,2.41547e-02,9.99999e-01,9.99999e-01,9.94517e-01,2.42902e-02,9.99903e-01
6.553904446e-01,2.59966e-02,9.99999e-01,9.99999e-01,9.94547e-01,2.61410e-02,9.99927e-01
6.586673968e-01,2.79601e-02,9.99999e-01,9.99999e-01,9.95323e-01,2.80921e-02,9.99976e-01
6.619607338e-01,3.00642e-02,9.99999e-01,9.99999e-01,9.97293e-01,3.01459e-02,9.99994e-01
6.652705375e-01,3.22541e-02,9.99999e-01,9.99999e-01,9.98432e-01,3.23048e-02,9.99996e-01
6.685968902e-01,3.45459e-02,9.99999e-01,9.99999e-01,9.99271e-01,3.45711e-02,9.99999e-01
6.719398746e-01,3.69343e-02,9.99999e-01,9.99999e-01,9.99661e-01,3.69468e-02,9.99999e-01
6.752995740e-01,3.94268e-02,9.99999e-01,9.99999e-01,9.99816e-01,3.94340e-02,9.99999e-01
6.786760719e-01,4.20234e-02,9.99999e-01,9.99999e-01,9.99736e-01,4.20345e-02,9.99999e-01
6.820694522e-01,4.47297e-02,9.99999e-01,9.99999e-01,9.99548e-01,4.47500e-02,9.99997e-01
6.854797995e-01,4.75541e-02,9.99999e-01,9.99999e-01,9.99417e-01,4.75820e-02,9.99994e-01
6.889071985e-01,5.04606e-02,9.99999e-01,9.99999e-01,9.98597e-01,5.05320e-02,9.99986e-01
6.923517345e-01,5.23770e-02,9.99999e-01,9.99999e-01,9.77268e-01,5.36012e-02,9.99889e-01
6.958134932e-01,5.60982e-02,9.99999e-01,9.99999e-01,9.88053e-01,5.67906e-02,9.99750e-01
6.992925606e-01,5.94091e-02,9.99999e-01,9.99999e-01,9.88700e-01,6.01011e-02,9.99780e-01
7.027890234e-01,6.26356e-02,9.99999e-01,9.99999e-01,9.86032e-01,6.35335e-02,9.99831e-01
7.063029686e-01,6.62941e-02,9.99999e-01,9.99999e-01,9.88244e-01,6.70882e-02,9.99915e-01
7.098344834e-01,6.99639e-02,9.99999e-01,9.99999e-01,9.88717e-01,7.07657e-02,9.99950e-01
7.133836558e-01,7.34448e-02,9.99999e-01,9.99999e-01,9.85057e-01,7.45662e-02,9.99901e-01
7.169505741e-01,6.95217e-02,9.99999e-01,9.99999e-01,8.86428e-01,7.84896e-02,9.99226e-01
7.205353270e-01,7.76679e-02,9.99999e-01,9.99999e-01,9.42306e-01,8.25358e-02,9.98635e-01
7.241380036e-01,8.03249e-02,9.99999e-01,9.99999e-01,9.27513e-01,8.67044e-02,9.98821e-01
7.277586936e-01,8.49391e-02,9.99999e-01,9.99999e-01,9.34347e-01,9.09950e-02,9.99036e-01
7.313974871e-01,8.86958e-02,9.99999e-01,9.99999e-01,9.30078e-01,9.54068e-02,9.99548e-01
7.350544745e-01,9.60434e-02,9.99999e-01,9.99999e-01,9.61170e-01,9.99391e-02,9.99842e-01
7.387297469e-01,1.01576e-01,9.99999e-01,9.99999e-01,9.71249e-01,1.04591e-01,9.99927e-01
7.424233956e-01,1.07808e-01,9.99999e-01,9.99999e-01,9.85818e-01,1.09360e-01,9.99985e-01
7.461355126e-01,1.13263e-01,9.99999e-01,9.99999e-01,9.91385e-01,1.14247e-01,9.99997e-01
7.498661902e-01,1.18769e-01,9.99999e-01,9.99999e-01,9.95977e-01,1.19249e-01,9.99998e-01
7.536155211e-01,1.24119e-01,9.99999e-01,9.99999e-01,9.98026e-01,1.24365e-01,9.99998e-01
7.573835987e-01,1.29461e-01,9.99999e-01,9.99999e-01,9.98983e-01,1.29592e-01,9.99999e-01
7.611705167e-01,1.34845e-01,9.99999e-01,9.99999e-01,9.99368e-01,1.34930e-01,9.99999e-01
7.649763693e-01,1.40320e-01,9.99999e-01,9.99999e-01,9.99604e-01,1.40375e-01,9.99999e-01
7.688012511e-01,1.45886e-01,9.99999e-01,9.99999e-01,9.99724e-01,1.45926e-01,9.99999e-01
7.726452574e-01,1.51546e-01,9.99999e-01,9.99999e-01,9.99773e-01,1.51581e-01,9.99999e-01
7.765084837e-01,1.57286e-01,9.99999e-01,9.99999e-01,9.99678e-01,1.57336e-01,9.99999e-01
7.803910261e-01,1.51239e-01,9.99999e-01,9.27967e-01,9.98612e-01,1.63190e-01,9.99998e-01
7.842929812e-01,1.17282e-01,9.99999e-01,6.96434e-01,9.95165e-01,1.69139e-01,9.99990e-01
7.882144461e-01,1.18366e-01,9.99999e-01,6.81937e-01,9.90037e-01,1.75182e-01,9.99938e-01
7.921555184e-01,1.42995e-01,9.99999e-01,7.92865e-01,9.94518e-01,1.81314e-01,9.99881e-01
7.961162960e-01,1.58764e-01,9.99999e-01,8.54741e-01,9.90362e-01,1.87534e-01,9.99886e-01
8.000968774e-01,1.76026e-01,9.99999e-01,9.18388e-01,9.88851e-01,1.93837e-01,9.99878e-01
8.040973618e-01,1.89421e-01,9.99999e-01,9.56754e-01,9.88854e-01,2.00222e-01,9.99903e-01
8.081178486e-01,1.97496e-01,9.99999e-01,9.79922e-01,9.75119e-01,2.06685e-01,9.99909e-01
8.121584379e-01,1.90776e-01,9.99999e-01,9.93742e-01,9.00541e-01,2.13223e-01,9.99646e-01
8.162192301e-01,1.93567e-01,9.99999e-01,9.98614e-01,8.82860e-01,2.19832e-01,9.98672e-01
8.203003262e-01,2.12753e-01,9.99999e-01,9.99978e-01,9.40742e-01,2.26509e-01,9.98446e-01
8.244018279e-01,2.13861e-01,9.99999e-01,9.99999e-01,9.18002e-01,2.33252e-01,9.98763e-01
8.285238370e-01,2.22628e-01,9.99999e-01,9.99999e-01,9.28302e-01,2.40056e-01,9.99028e-01
8.326664562e-01,2.28932e-01,9.99999e-01,9.99999e-01,9.27532e-01,2.46918e-01,9.99597e-01
8.368297885e-01,2.40492e-01,9.99999e-01,9.99999e-01,9.47522e-01,2.53835e-01,9.99907e-01
8.410139374e-01,2.52564e-01,9.99999e-01,9.99999e-01,9.68461e-01,2.60803e-01,9.99945e-01
8.452190071e-01,2.63633e-01,9.99999e-01,9.99999e-01,9.84400e-01,2.67819e-01,9.99967e-01
8.494451021e-01,2.72380e-01,9.99999e-01,9.99999e-01,9.90929e-01,2.74880e-01,9.99973e-01
8.536923276e-01,2.80461e-01,9.99999e-01,9.99999e-01,9.94622e-01,2.81982e-01,9.99983e-01
8.579607893e-01,2.88163e-01,9.99999e-01,9.99999e-01,9.96688e-01,2.89122e-01,9.99995e-01
8.622505932e-01,2.95672e-01,9.99999e-01,9.99999e-01,9.97893e-01,2.96296e-01,9.99998e-01
8.665618462e-01,2.67365e-01,9.99999e-01,8.82013e-01,9.98697e-01,3.03501e-01,9.99999e-01
8.708946554e-01,1.26878e-01,9.99999e-01,4.08882e-01,9.98510e-01,3.10734e-01,9.99998e-01
8.752491287e-01,1.51460e-01,9.99999e-01,4.77195e-01,9.98006e-01,3.17992e-01,9.99997e-01
8.796253743e-01,2.14293e-01,9.99999e-01,6.60519e-01,9.97243e-01,3.25270e-01,9.99993e-01
8.840235012e-01,2.66630e-01,9.99999e-01,8.04191e-01,9.96850e-01,3.32567e-01,9.99980e-01
8.884436187e-01,3.08273e-01,9.99999e-01,9.17244e-01,9.88635e-01,3.39878e-01,9.99944e-01
8.928858368e-01,2.97396e-01,9.99999e-01,9.65578e-01,8.86710e-01,3.47201e-01,9.99684e-01
8.973502660e-01,2.83824e-01,9.99999e-01,9.91514e-01,8.08382e-01,3.54532e-01,9.98385e-01
9.018370173e-01,3.23465e-01,9.99999e-01,9.99060e-01,8.96927e-01,3.61868e-01,9.97463e-01
9.063462024e-01,3.27594e-01,9.99999e-01,9.76669e-01,9.08901e-01,3.69207e-01,9.97771e-01
9.108779334e-01,3.06752e-01,9.99999e-01,9.46322e-01,8.61478e-01,3.76546e-01,9.97684e-01
9.154323231e-01,3.19338e-01,9.99999e-01,9.87097e-01,8.43799e-01,3.83881e-01,9.98085e-01
9.200094847e-01,2.92882e-01,9.99999e-01,8.43425e-01,8.75603e-01,3.91210e-01,9.98927e-01
9.246095321e-01,2.51014e-01,9.99999e-01,7.64325e-01,8.17126e-01,3.98529e-01,9.98764e-01
9.292325798e-01,9.30423e-02,9.99999e-01,8.12747e-01,2.72464e-01,4.05838e-01,9.95192e-01
9.338787427e-01,6.40879e-02,9.99999e-01,8.16546e-01,1.86672e-01,4.13131e-01,9.80277e-01
9.385481364e-01,1.81719e-01,9.99999e-01,8.60873e-01,5.05219e-01,4.20408e-01,9.76587e-01
9.432408771e-01,1.53977e-01,9.99999e-01,9.11974e-01,3.98951e-01,4.27666e-01,9.79768e-01
9.479570815e-01,1.15856e-01,9.99999e-01,9.53828e-01,2.82585e-01,4.34902e-01,9.83503e-01
9.526968669e-01,1.62021e-01,9.99999e-01,9.77470e-01,3.77329e-01,4.42114e-01,9.89905e-01
9.574603512e-01,1.75922e-01,9.99999e-01,9.90296e-01,3.96869e-01,4.49299e-01,9.94859e-01
9.622476530e-01,2.11644e-01,9.99999e-01,9.96962e-01,4.66550e-01,4.56456e-01,9.96442e-01
9.670588912e-01,2.96922e-01,9.99999e-01,9.99088e-01,6.42575e-01,4.63582e-01,9.97565e-01
9.718941857e-01,3.54629e-01,9.99999e-01,9.99934e-01,7.54840e-01,4.70675e-01,9.98207e-01
9.767536566e-01,3.77650e-01,9.99999e-01,9.99999e-01,7.91587e-01,4.77734e-01,9.98629e-01
9.816374249e-01,4.07193e-01,9.99999e-01,9.99999e-01,8.40393e-01,4.84756e-01,9.99525e-01
9.865456120e-01,4.40975e-01,9.99999e-01,9.99999e-01,8.96854e-01,4.91739e-01,9.99900e-01
9.914783401e-01,4.66181e-01,9.99999e-01,9.99999e-01,9.34850e-01,4.98682e-01,9.99972e-01
9.964357318e-01,4.87361e-01,9.99999e-01,9.99999e-01,9.63973e-01,5.05583e-01,9.99983e-01
1.001417910e+00,5.01279e-01,9.99999e-01,9.99999e-01,9.78242e-01,5.12440e-01,9.99975e-01
1.006425000e+00,5.12768e-01,9.99999e-01,9.99999e-01,9.87545e-01,5.19252e-01,9.99964e-01
1.011457125e+00,5.21923e-01,9.99999e-01,9.99999e-01,9.92247e-01,5.26018e-01,9.99967e-01
1.016514411e+00,5.29917e-01,9.99999e-01,9.99999e-01,9.94732e-01,5.32735e-01,9.99976e-01
1.021596983e+00,5.37061e-01,9.99999e-01,9.99877e-01,9.95801e-01,5.39403e-01,9.99976e-01
1.026704968e+00,5.39206e-01,9.99999e-01,9.90769e-01,9.96724e-01,5.46020e-01,9.99984e-01
1.031838492e+00,5.06973e-01,9.99999e-01,9.19546e-01,9.97617e-01,5.52586e-01,9.99995e-01
1.036997685e+00,3.64850e-02,9.99999e-01,6.53271e-02,9.98585e-01,5.59098e-01,9.99998e-01
1.042182673e+00,5.03143e-03,9.99999e-01,8.90834e-03,9.98315e-01,5.65556e-01,9.99999e-01
1.047393587e+00,1.11818e-02,9.99999e-01,1.95869e-02,9.97764e-01,5.71959e-01,9.99999e-01
1.052630555e+00,5.92903e-06,9.99999e-01,1.02728e-05,9.96935e-01,5.78306e-01,9.99998e-01
1.057893707e+00,2.16622e-05,9.99999e-01,3.71585e-05,9.94890e-01,5.84595e-01,9.99997e-01
1.063183176e+00,2.97356e-04,9.99999e-01,5.05851e-04,9.91602e-01,5.90827e-01,9.99995e-01
1.068499092e+00,2.16296e-03,9.99999e-01,3.65946e-03,9.85970e-01,5.97001e-01,9.99990e-01
1.073841587e+00,1.63553e-02,9.99999e-01,2.74565e-02,9.83618e-01,6.03114e-01,9.99978e-01
1.079210795e+00,6.21145e-02,9.99999e-01,1.03749e-01,9.79025e-01,6.09168e-01,9.99943e-01
1.084606849e+00,1.66706e-01,9.99999e-01,2.78953e-01,9.68449e-01,6.15162e-01,9.99863e-01
1.090029883e+00,3.05201e-01,9.99999e-01,5.13109e-01,9.55110e-01,6.21094e-01,9.99718e-01
1.095480033e+00,3.98870e-01,9.99999e-01,7.19022e-01,8.82368e-01,6.26965e-01,9.99490e-01
1.100957433e+00,3.94593e-01,9.99999e-01,8.52547e-01,7.29207e-01,6.32773e-01,9.99063e-01
1.106462220e+00,2.74481e-01,9.99999e-01,9.36064e-01,4.57564e-01,6.38519e-01,9.98411e-01
1.111994531e+00,1.24967e-01,9.99999e-01,9.75787e-01,1.98914e-01,6.44202e-01,9.95790e-01
1.117554504e+00,4.97032e-02,9.99999e-01,9.94027e-01,7.79629e-02,6.49822e-01,9.84885e-01
1.123142276e+00,1.06744e-01,9.99999e-01,9.99606e-01,1.68876e-01,6.55378e-01,9.64528e-01
1.128757988e+00,1.89326e-01,9.99999e-01,9.99999e-01,2.98701e-01,6.60871e-01,9.59080e-01
1.134401778e+00,8.67550e-02,9.99999e-01,9.99999e-01,1.34913e-01,6.66300e-01,9.65097e-01
1.140073787e+00,3.09725e-01,9.99999e-01,9.99999e-01,4.74405e-01,6.71665e-01,9.72014e-01
1.145774156e+00,1.49217e-01,9.99999e-01,9.99999e-01,2.26222e-01,6.76966e-01,9.74352e-01
1.151503026e+00,1.30550e-01,9.99999e-01,9.99999e-01,1.94155e-01,6.82203e-01,9.85629e-01
1.157260541e+00,1.61795e-01,9.99999e-01,9.99999e-01,2.36401e-01,6.87376e-01,9.95681e-01
1.163046844e+00,2.36000e-01,9.99999e-01,9.99999e-01,3.41219e-01,6.92485e-01,9.98773e-01
1.168862078e+00,3.25013e-01,9.99999e-01,9.99999e-01,4.66243e-01,6.97529e-01,9.99367e-01
1.174706389e+00,4.37934e-01,9.99999e-01,9.99999e-01,6.23906e-01,7.02510e-01,9.99162e-01
1.180579921e+00,5.29480e-01,9.99999e-01,9.99999e-01,7.49407e-01,7.07427e-01,9.98733e-01
1.186482820e+00,6.03912e-01,9.99999e-01,9.99984e-01,8.48970e-01,7.12280e-01,9.98700e-01
1.192415234e+00,6.30870e-01,9.99999e-01,9.68221e-01,9.08745e-01,7.17069e-01,9.99026e-01
1.198377311e+00,3.57389e-01,9.99999e-01,5.30016e-01,9.22578e-01,7.21795e-01,9.99080e-01
1.204369197e+00,1.19229e-24,9.99999e-01,1.71664e-24,9.26705e-01,7.26458e-01,9.99167e-01
1.210391043e+00,2.01666e-98,9.99999e-01,2.87408e-98,9.29704e-01,7.31059e-01,9.99493e-01
1.216442998e+00,3.14847e-85,9.99999e-01,4.44911e-85,9.39845e-01,7.35596e-01,9.99689e-01
1.222525213e+00,5.97322e-84,9.99999e-01,8.27605e-84,9.52814e-01,7.40072e-01,9.99807e-01
1.228637839e+00,7.72373e-65,9.99999e-01,1.06130e-64,9.66994e-01,7.44485e-01,9.99909e-01
