#,Wave/freq,Total,N2,CO2,H2O,Rayleigh,CIA
4.000000000e-01,5.54435e-16,9.99999e-01,9.99999e-01,9.99931e-01,5.54473e-16,9.99999e-01
4.020000000e-01,1.11051e-15,9.99999e-01,9.99999e-01,9.99957e-01,1.11056e-15,9.99999e-01
4.040100000e-01,2.19241e-15,9.99999e-01,9.99999e-01,9.99981e-01,2.19245e-15,9.99999e-01
4.060300500e-01,4.27052e-15,9.99999e-01,9.99999e-01,9.99995e-01,4.27053e-15,9.99999e-01
4.080602003e-01,8.20947e-15,9.99999e-01,9.99999e-01,9.99998e-01,8.20948e-15,9.99999e-01
4.101005013e-01,1.55791e-14,9.99999e-01,9.99999e-01,9.99999e-01,1.55791e-14,9.99999e-01
4.121510038e-01,2.91926e-14,9.99999e-01,9.99999e-01,9.99997e-01,2.91927e-14,9.99999e-01
4.142117588e-01,5.40270e-14,9.99999e-01,9.99999e-01,9.99981e-01,5.40280e-14,9.99999e-01
4.162828176e-01,9.87748e-14,9.99999e-01,9.99999e-01,9.99915e-01,9.87830e-14,9.99999e-01
4.183642317e-01,1.78463e-13,9.99999e-01,9.99999e-01,9.99949e-01,1.78472e-13,9.99999e-01
4.204560528e-01,3.18691e-13,9.99999e-01,9.99999e-01,9.99968e-01,3.18700e-13,9.99999e-01
4.225583331e-01,5.62622e-13,9.99999e-01,9.99999e-01,9.99988e-01,5.62629e-13,9.99999e-01
4.246711247e-01,9.82158e-13,9.99999e-01,9.99999e-01,9.99990e-01,9.82167e-13,9.99999e-01
4.267944804e-01,1.69576e-12,9.99999e-01,9.99999e-01,9.99986e-01,1.69578e-12,9.99999e-01
4.289284528e-01,2.89644e-12,9.99999e-01,9.99999e-01,9.99989e-01,2.89647e-12,9.99999e-01
4.310730950e-01,4.89523e-12,9.99999e-01,9.99999e-01,9.99995e-01,4.89525e-12,9.99999e-01
4.332284605e-01,8.18803e-12,9.99999e-01,9.99999e-01,9.99998e-01,8.18804e-12,9.99999e-01
4.353946028e-01,1.35573e-11,9.99999e-01,9.99999e-01,9.99999e-01,1.35573e-11,9.99999e-01
4.375715758e-01,2.22247e-11,9.99999e-01,9.99999e-01,9.99991e-01,2.22249e-11,9.99999e-01
4.397594337e-01,3.60773e-11,9.99999e-01,9.99999e-01,9.99926e-01,3.60799e-11,9.99999e-01
4.419582309e-01,5.79929e-11,9.99999e-01,9.99999e-01,9.99630e-01,5.80143e-11,9.99999e-01
4.441680220e-01,9.23854e-11,9.99999e-01,9.99999e-01,9.99706e-01,9.24125e-11,9.99999e-01
4.463888621e-01,1.45814e-10,9.99999e-01,9.99999e-01,9.99696e-01,1.45859e-10,9.99999e-01
4.486208064e-01,2.28106e-10,9.99999e-01,9.99999e-01,9.99810e-01,2.28149e-10,9.99999e-01
4.508639105e-01,3.53696e-10,9.99999e-01,9.99999e-01,9.99911e-01,3.53727e-10,9.99999e-01
4.531182300e-01,5.43676e-10,9.99999e-01,9.99999e-01,9.99964e-01,5.43695e-10,9.99999e-01
4.553838212e-01,8.28600e-10,9.99999e-01,9.99999e-01,9.99975e-01,8.28619e-10,9.99999e-01
4.576607403e-01,1.25238e-09,9.99999e-01,9.99999e-01,9.99988e-01,1.25239e-09,9.99999e-01
4.599490440e-01,1.87749e-09,9.99999e-01,9.99999e-01,9.99991e-01,1.87751e-09,9.99999e-01
4.622487892e-01,2.79222e-09,9.99999e-01,9.99999e-01,9.99998e-01,2.79222e-09,9.99999e-01
4.645600332e-01,4.12013e-09,9.99999e-01,9.99999e-01,9.99994e-01,4.12016e-09,9.99999e-01
4.668828333e-01,6.03256e-09,9.99999e-01,9.99999e-01,9.99910e-01,6.03309e-09,9.99999e-01
4.692172475e-01,8.76621e-09,9.99999e-01,9.99999e-01,9.99809e-01,8.76788e-09,9.99999e-01
4.715633337e-01,1.26470e-08,9.99999e-01,9.99999e-01,9.99875e-01,1.26486e-08,9.99999e-01
4.739211504e-01,1.81132e-08,9.99999e-01,9.99999e-01,9.99880e-01,1.81153e-08,9.99999e-01
4.762907561e-01,2.57598e-08,9.99999e-01,9.99999e-01,9.99937e-01,2.57614e-08,9.99999e-01
4.786722099e-01,3.63798e-08,9.99999e-01,9.99999e-01,9.99974e-01,3.63807e-08,9.99999e-01
4.810655710e-01,5.10281e-08,9.99999e-01,9.99999e-01,9.99991e-01,5.10285e-08,9.99999e-01
4.834708988e-01,7.10920e-08,9.99999e-01,9.99999e-01,9.99927e-01,7.10970e-08,9.99999e-01
4.858882533e-01,9.83981e-08,9.99999e-01,9.99999e-01,9.99864e-01,9.84113e-08,9.99999e-01
4.883176946e-01,1.35332e-07,9.99999e-01,9.99999e-01,9.99887e-01,1.35347e-07,9.99999e-01
4.907592831e-01,1.84959e-07,9.99999e-01,9.99999e-01,9.99897e-01,1.84978e-07,9.99999e-01
4.932130795e-01,2.51235e-07,9.99999e-01,9.99999e-01,9.99927e-01,2.51253e-07,9.99999e-01
4.956791449e-01,3.39203e-07,9.99999e-01,9.99999e-01,9.99961e-01,3.39216e-07,9.99999e-01
4.981575406e-01,4.55179e-07,9.99999e-01,9.99999e-01,9.99808e-01,4.55266e-07,9.99999e-01
5.006483283e-01,6.07177e-07,9.99999e-01,9.99999e-01,9.99507e-01,6.07477e-07,9.99996e-01
5.031515699e-01,8.03933e-07,9.99999e-01,9.99999e-01,9.97493e-01,8.05973e-07,9.99973e-01
5.056673278e-01,1.06193e-06,9.99999e-01,9.99999e-01,9.98673e-01,1.06337e-06,9.99969e-01
5.081956644e-01,1.39296e-06,9.99999e-01,9.99999e-01,9.98325e-01,1.39532e-06,9.99980e-01
5.107366428e-01,1.81902e-06,9.99999e-01,9.99999e-01,9.98868e-01,1.82109e-06,9.99995e-01
5.132903260e-01,2.36277e-06,9.99999e-01,9.99999e-01,9.99352e-01,2.36431e-06,9.99999e-01
5.158567776e-01,3.05294e-06,9.99999e-01,9.99999e-01,9.99725e-01,3.05377e-06,9.99999e-01
5.184360615e-01,3.92399e-06,9.99999e-01,9.99999e-01,9.99890e-01,3.92442e-06,9.99999e-01
5.210282418e-01,5.01815e-06,9.99999e-01,9.99999e-01,9.99958e-01,5.01835e-06,9.99999e-01
5.236333830e-01,6.38509e-06,9.99999e-01,9.99999e-01,9.99836e-01,6.38614e-06,9.99998e-01
5.262515499e-01,8.08728e-06,9.99999e-01,9.99999e-01,9.99897e-01,8.08812e-06,9.99997e-01
5.288828077e-01,1.01950e-05,9.99999e-01,9.99999e-01,9.99905e-01,1.01960e-05,9.99998e-01
5.315272217e-01,1.27935e-05,9.99999e-01,9.99999e-01,9.99916e-01,1.27946e-05,9.99999e-01
5.341848578e-01,1.59827e-05,9.99999e-01,9.99999e-01,9.99945e-01,1.59836e-05,9.99999e-01
5.368557821e-01,1.98761e-05,9.99999e-01,9.99999e-01,9.99809e-01,1.98799e-05,9.99999e-01
5.395400610e-01,2.46027e-05,9.99999e-01,9.99999e-01,9.99317e-01,2.46197e-05,9.99993e-01
5.422377613e-01,3.03334e-05,9.99999e-01,9.99999e-01,9.99108e-01,3.03610e-05,9.99983e-01
5.449489501e-01,3.72551e-05,9.99999e-01,9.99999e-01,9.99175e-01,3.72864e-05,9.99982e-01
5.476736949e-01,4.55723e-05,9.99999e-01,9.99999e-01,9.99265e-01,4.56062e-05,9.99991e-01
5.504120634e-01,5.55311e-05,9.99999e-01,9.99999e-01,9.99466e-01,5.55608e-05,9.99997e-01
5.531641237e-01,6.74068e-05,9.99999e-01,9.99999e-01,9.99731e-01,6.74249e-05,9.99999e-01
5.559299443e-01,8.14995e-05,9.99999e-01,9.99999e-01,9.99870e-01,8.15101e-05,9.99999e-01
5.587095940e-01,9.81612e-05,9.99999e-01,9.99999e-01,9.99918e-01,9.81691e-05,9.99999e-01
5.615031420e-01,1.17789e-04,9.99999e-01,9.99999e-01,9.99909e-01,1.17799e-04,9.99999e-01
5.643106577e-01,1.40833e-04,9.99999e-01,9.99999e-01,9.99898e-01,1.40847e-04,9.99998e-01
5.671322110e-01,1.67604e-04,9.99999e-01,9.99999e-01,9.98775e-01,1.67811e-04,9.99988e-01
5.699678720e-01,1.98974e-04,9.99999e-01,9.99999e-01,9.98670e-01,1.99246e-04,9.99965e-01
5.728177114e-01,2.35438e-04,9.99999e-01,9.99999e-01,9.98626e-01,2.35768e-04,9.99971e-01
5.756818000e-01,2.77704e-04,9.99999e-01,9.99999e-01,9.98737e-01,2.78059e-04,9.99982e-01
5.785602090e-01,3.26508e-04,9.99999e-01,9.99999e-01,9.98897e-01,3.26870e-04,9.99994e-01
5.814530100e-01,3.82599e-04,9.99999e-01,9.99999e-01,9.98894e-01,3.83023e-04,9.99997e-01
5.843602750e-01,4.46830e-04,9.99999e-01,9.99999e-01,9.98691e-01,4.47419e-04,9.99992e-01
5.872820764e-01,5.15147e-04,9.99999e-01,9.99999e-01,9.88768e-01,5.21040e-04,9.99919e-01
5.902184868e-01,5.96532e-04,9.99999e-01,9.99999e-01,9.86296e-01,6.04952e-04,9.99782e-01
5.931695792e-01,6.93392e-04,9.99999e-01,9.99999e-01,9.90331e-01,7.00309e-04,9.99788e-01
5.961354271e-01,7.99672e-04,9.99999e-01,9.99999e-01,9.89382e-01,8.08357e-04,9.99871e-01
5.991161043e-01,9.23178e-04,9.99999e-01,9.99999e-01,9.92237e-01,9.30434e-04,9.99962e-01
6.021116848e-01,1.06326e-03,9.99999e-01,9.99999e-01,9.95584e-01,1.06798e-03,9.99994e-01
6.051222432e-01,1.21978e-03,9.99999e-01,9.99999e-01,9.97763e-01,1.22252e-03,9.99999e-01
6.081478544e-01,1.39434e-03,9.99999e-01,9.99999e-01,9.99035e-01,1.39569e-03,9.99999e-01
6.111885937e-01,1.58858e-03,9.99999e-01,9.99999e-01,9.99590e-01,1.58923e-03,9.99999e-01
6.142445367e-01,1.80464e-03,9.99999e-01,9.99999e-01,9.99817e-01,1.80497e-03,9.99999e-01
6.173157594e-01,2.04464e-03,9.99999e-01,9.99999e-01,9.99899e-01,2.04485e-03,9.99999e-01
6.204023382e-01,2.31071e-03,9.99999e-01,9.99999e-01,9.99914e-01,2.31091e-03,9.99999e-01
6.235043498e-01,2.60432e-03,9.99999e-01,9.99999e-01,9.99630e-01,2.60528e-03,9.99998e-01
6.266218716e-01,2.92437e-03,9.99999e-01,9.99999e-01,9.98022e-01,2.93020e-03,9.99985e-01
6.297549810e-01,3.28553e-03,9.99999e-01,9.99999e-01,9.99274e-01,3.28801e-03,9.99971e-01
6.329037559e-01,3.67574e-03,9.99999e-01,9.99999e-01,9.98562e-01,3.68111e-03,9.99977e-01
6.360682746e-01,4.10697e-03,9.99999e-01,9.99999e-01,9.98780e-01,4.11204e-03,9.99986e-01
6.392486160e-01,4.57610e-03,9.99999e-01,9.99999e-01,9.98417e-01,4.58338e-03,9.99993e-01
6.424448591e-01,5.08703e-03,9.99999e-01,9.99999e-01,9.97895e-01,5.09780e-03,9.99990e-01
6.456570834e-01,5.60265e-03,9.99999e-01,9.99999e-01,9.90260e-01,5.65806e-03,9.99945e-01
6.488853688e-01,6.21325e-03,9.99999e-01,9.99999e-01,9.91577e-01,6.26698e-03,9.99847e-01
6.521297956e-01,6.87576e-03,9.99999e-01,9.99999e-01,9.92669e-01,6.92742e-03,9.99871e-01
6.553904446e-01,7.58622e-03,9.99999e-01,9.99999e-01,9.92752e-01,7.64233e-03,9.99903e-01
6.586673968e-01,8.36176e-03,9.99999e-01,9.99999e-01,9.93741e-01,8.41467e-03,9.99968e-01
6.619607338e-01,9.21392e-03,9.99999e-01,9.99999e-01,9.96377e-01,9.24747e-03,9.99992e-01
6.652705375e-01,1.01224e-02,9.99999e-01,9.99999e-01,9.97897e-01,1.01438e-02,9.99996e-01
6.685968902e-01,1.10958e-02,9.99999e-01,9.99999e-01,9.99023e-01,1.11066e-02,9.99998e-01
6.719398746e-01,1.21336e-02,9.99999e-01,9.99999e-01,9.99546e-01,1.21391e-02,9.99999e-01
6.752995740e-01,1.32410e-02,9.99999e-01,9.99999e-01,9.99755e-01,1.32443e-02,9.99999e-01
6.786760719e-01,1.44202e-02,9.99999e-01,9.99999e-01,9.99648e-01,1.44252e-02,9.99999e-01
6.820694522e-01,1.56755e-02,9.99999e-01,9.99999e-01,9.99396e-01,1.56850e-02,9.99996e-01
6.854797995e-01,1.70133e-02,9.99999e-01,9.99999e-01,9.99222e-01,1.70266e-02,9.99992e-01
6.889071985e-01,1.84184e-02,9.99999e-01,9.99999e-01,9.98140e-01,1.84530e-02,9.99982e-01
6.923517345e-01,1.93620e-02,9.99999e-01,9.99999e-01,9.69831e-01,1.99672e-02,9.99852e-01
6.958134932e-01,2.12192e-02,9.99999e-01,9.99999e-01,9.83973e-01,2.15720e-02,9.99666e-01
6.992925606e-01,2.29137e-02,9.99999e-01,9.99999e-01,9.84965e-01,2.32702e-02,9.99706e-01
7.027890234e-01,2.45918e-02,9.99999e-01,9.99999e-01,9.81358e-01,2.50645e-02,9.99774e-01
7.063029686e-01,2.65317e-02,9.99999e-01,9.99999e-01,9.84308e-01,2.69577e-02,9.99887e-01
7.098344834e-01,2.85141e-02,9.99999e-01,9.99999e-01,9.84936e-01,2.89521e-02,9.99933e-01
7.133836558e-01,3.04313e-02,9.99999e-01,9.99999e-01,9.80192e-01,3.10503e-02,9.99868e-01
7.169505741e-01,2.83116e-02,9.99999e-01,9.99999e-01,8.52239e-01,3.32546e-02,9.98966e-01
7.205353270e-01,3.27859e-02,9.99999e-01,9.99999e-01,9.23487e-01,3.55671e-02,9.98176e-01
7.241380036e-01,3.43147e-02,9.99999e-01,9.99999e-01,9.04680e-01,3.79899e-02,9.98425e-01
7.277586936e-01,3.69735e-02,9.99999e-01,9.99999e-01,9.13535e-01,4.05251e-02,9.98712e-01
7.313974871e-01,3.91623e-02,9.99999e-01,9.99999e-01,9.07622e-01,4.31742e-02,9.99396e-01
7.350544745e-01,4.35605e-02,9.99999e-01,9.99999e-01,9.48422e-01,4.59391e-02,9.99789e-01
7.387297469e-01,4.69470e-02,9.99999e-01,9.99999e-01,9.61705e-01,4.88211e-02,9.99903e-01
7.424233956e-01,5.08378e-02,9.99999e-01,9.99999e-01,9.81033e-01,5.18216e-02,9.99981e-01
7.461355126e-01,5.43085e-02,9.99999e-01,9.99999e-01,9.88477e-01,5.49417e-02,9.99996e-01
7.498661902e-01,5.78688e-02,9.99999e-01,9.99999e-01,9.94608e-01,5.81825e-02,9.99998e-01
7.536155211e-01,6.13821e-02,9.99999e-01,9.99999e-01,9.97358e-01,6.15447e-02,9.99998e-01
7.573835987e-01,6.49405e-02,9.99999e-01,9.99999e-01,9.98638e-01,6.50290e-02,9.99999e-01
7.611705167e-01,6.85779e-02,9.99999e-01,9.99999e-01,9.99153e-01,6.86359e-02,9.99999e-01
7.649763693e-01,7.23273e-02,9.99999e-01,9.99999e-01,9.99470e-01,7.23656e-02,9.99999e-01
7.688012511e-01,7.61902e-02,9.99999e-01,9.99999e-01,9.99631e-01,7.62183e-02,9.99999e-01
7.726452574e-01,8.01696e-02,9.99999e-01,9.99999e-01,9.99696e-01,8.01939e-02,9.99999e-01
7.765084837e-01,8.42561e-02,9.99999e-01,9.99999e-01,9.99571e-01,8.42922e-02,9.99998e-01
7.803910261e-01,8.05446e-02,9.99999e-01,9.11525e-01,9.98152e-01,8.85127e-02,9.99997e-01
7.842929812e-01,5.73993e-02,9.99999e-01,6.21658e-01,9.93566e-01,9.28549e-02,9.99987e-01
7.882144461e-01,5.83829e-02,9.99999e-01,6.07195e-01,9.86700e-01,9.73180e-02,9.99917e-01
7.921555184e-01,7.43563e-02,9.99999e-01,7.34828e-01,9.92661e-01,1.01901e-01,9.99841e-01
7.961162960e-01,8.53303e-02,9.99999e-01,8.10660e-01,9.87170e-01,1.06603e-01,9.99848e-01
8.000968774e-01,9.79493e-02,9.99999e-01,8.92373e-01,9.85121e-01,1.11423e-01,9.99838e-01
8.040973618e-01,1.08027e-01,9.99999e-01,9.42433e-01,9.85136e-01,1.16359e-01,9.99871e-01
8.081178486e-01,1.14264e-01,9.99999e-01,9.73205e-01,9.67025e-01,1.21409e-01,9.99879e-01
8.121584379e-01,1.09177e-01,9.99999e-01,9.91595e-01,8.70047e-01,1.26573e-01,9.99527e-01
8.162192301e-01,1.11267e-01,9.99999e-01,9.98137e-01,8.46894e-01,1.31847e-01,9.98226e-01
8.203003262e-01,1.26361e-01,9.99999e-01,9.99969e-01,9.22726e-01,1.37231e-01,9.97923e-01
8.244018279e-01,1.27206e-01,9.99999e-01,9.99999e-01,8.92767e-01,1.42721e-01,9.98346e-01
8.285238370e-01,1.34145e-01,9.99999e-01,9.99999e-01,9.05624e-01,1.48317e-01,9.98701e-01
8.326664562e-01,1.39233e-01,9.99999e-01,9.99999e-01,9.04511e-01,1.54014e-01,9.99462e-01
8.368297885e-01,1.48676e-01,9.99999e-01,9.99999e-01,9.30432e-01,1.59812e-01,9.99876e-01
8.410139374e-01,1.58737e-01,9.99999e-01,9.99999e-01,9.58008e-01,1.65706e-01,9.99927e-01
8.452190071e-01,1.68109e-01,9.99999e-01,9.99999e-01,9.79154e-01,1.71696e-01,9.99956e-01
8.494451021e-01,1.75616e-01,9.99999e-01,9.99999e-01,9.87882e-01,1.77777e-01,9.99965e-01
8.536923276e-01,1.82618e-01,9.99999e-01,9.99999e-01,9.92799e-01,1.83946e-01,9.99976e-01
8.579607893e-01,1.89359e-01,9.99999e-01,9.99999e-01,9.95570e-01,1.90202e-01,9.99993e-01
8.622505932e-01,1.95986e-01,9.99999e-01,9.99999e-01,9.97179e-01,1.96541e-01,9.99998e-01
8.665618462e-01,1.75974e-01,9.99999e-01,8.68455e-01,9.98259e-01,2.02959e-01,9.99998e-01
8.708946554e-01,6.55118e-02,9.99999e-01,3.13342e-01,9.98010e-01,2.09454e-01,9.99998e-01
8.752491287e-01,8.14166e-02,9.99999e-01,3.77822e-01,9.97336e-01,2.16023e-01,9.99996e-01
8.796253743e-01,1.28081e-01,9.99999e-01,5.77174e-01,9.96322e-01,2.22661e-01,9.99991e-01
8.840235012e-01,1.70815e-01,9.99999e-01,7.47736e-01,9.95797e-01,2.29367e-01,9.99973e-01
8.884436187e-01,2.07246e-01,9.99999e-01,8.90679e-01,9.84992e-01,2.36136e-01,9.99926e-01
8.928858368e-01,1.97861e-01,9.99999e-01,9.54144e-01,8.52738e-01,2.42965e-01,9.99578e-01
8.973502660e-01,1.85936e-01,9.99999e-01,9.88607e-01,7.53841e-01,2.49850e-01,9.97842e-01
9.018370173e-01,2.21129e-01,9.99999e-01,9.98736e-01,8.65048e-01,2.56790e-01,9.96609e-01
9.063462024e-01,2.25334e-01,9.99999e-01,9.69430e-01,8.81108e-01,2.63779e-01,9.97021e-01
9.108779334e-01,2.06296e-01,9.99999e-01,9.28834e-01,8.20392e-01,2.70814e-01,9.96905e-01
9.154323231e-01,2.17541e-01,9.99999e-01,9.82692e-01,7.97726e-01,2.77893e-01,9.97441e-01
9.200094847e-01,1.97057e-01,9.99999e-01,8.06656e-01,8.37993e-01,2.85012e-01,9.98566e-01
9.246095321e-01,1.58958e-01,9.99999e-01,6.98687e-01,7.68010e-01,2.92166e-01,9.98348e-01
9.292325798e-01,4.54617e-02,9.99999e-01,7.60583e-01,1.89275e-01,2.99354e-01,9.93577e-01
9.338787427e-01,2.74922e-02,9.99999e-01,7.63615e-01,1.13939e-01,3.06572e-01,9.73716e-01
9.385481364e-01,1.05661e-01,9.99999e-01,8.18765e-01,4.12656e-01,3.13815e-01,9.68818e-01
9.432408771e-01,8.66795e-02,9.99999e-01,8.83852e-01,3.08937e-01,3.21082e-01,9.73040e-01
9.479570815e-01,5.95102e-02,9.99999e-01,9.38680e-01,1.95854e-01,3.28369e-01,9.78003e-01
9.526968669e-01,9.10015e-02,9.99999e-01,9.69940e-01,2.81653e-01,3.35672e-01,9.86525e-01
9.574603512e-01,1.00599e-01,9.99999e-01,9.87014e-01,2.98518e-01,3.42988e-01,9.93132e-01
9.622476530e-01,1.27375e-01,9.99999e-01,9.95927e-01,3.66578e-01,3.50315e-01,9.95245e-01
9.670588912e-01,1.98660e-01,9.99999e-01,9.98776e-01,5.57853e-01,3.57649e-01,9.96746e-01
9.718941857e-01,2.50410e-01,9.99999e-01,9.99911e-01,6.87774e-01,3.64987e-01,9.97603e-01
9.767536566e-01,2.72262e-01,9.99999e-01,9.99999e-01,7.32588e-01,3.72326e-01,9.98168e-01
9.816374249e-01,3.00803e-01,9.99999e-01,9.99999e-01,7.92791e-01,3.79663e-01,9.99365e-01
9.865456120e-01,3.34528e-01,9.99999e-01,9.99999e-01,8.64536e-01,3.86996e-01,9.99867e-01
9.914783401e-01,3.60321e-01,9.99999e-01,9.99999e-01,9.13808e-01,3.94321e-01,9.99962e-01
9.964357318e-01,3.82383e-01,9.99999e-01,9.99999e-01,9.52081e-01,4.01636e-01,9.99978e-01
1.001417910e+00,3.97058e-01,9.99999e-01,9.99999e-01,9.70979e-01,4.08939e-01,9.99966e-01
1.006425000e+00,4.09287e-01,9.99999e-01,9.99999e-01,9.83373e-01,4.16226e-01,9.99952e-01
1.011457125e+00,4.19085e-01,9.99999e-01,9.99999e-01,9.89629e-01,4.23495e-01,9.99956e-01
1.016514411e+00,4.27697e-01,9.99999e-01,9.99999e-01,9.92955e-01,4.30744e-01,9.99969e-01
1.021596983e+00,4.35430e-01,9.99999e-01,9.99843e-01,9.94386e-01,4.37970e-01,9.99968e-01
1.026704968e+00,4.37825e-01,9.99999e-01,9.87828e-01,9.95621e-01,4.45170e-01,9.99979e-01
1.031838492e+00,4.08016e-01,9.99999e-01,9.04739e-01,9.96811e-01,4.52344e-01,9.99993e-01
1.036997685e+00,2.21571e-02,9.99999e-01,4.82902e-02,9.98107e-01,4.59488e-01,9.99998e-01
1.042182673e+00,1.22129e-03,9.99999e-01,2.62189e-03,9.97750e-01,4.66600e-01,9.99999e-01
1.047393587e+00,3.34868e-03,9.99999e-01,7.08705e-03,9.97013e-01,4.73679e-01,9.99998e-01
1.052630555e+00,2.49012e-07,9.99999e-01,5.19332e-07,9.95907e-01,4.80722e-01,9.99998e-01
1.057893707e+00,9.24409e-07,9.99999e-01,1.90193e-06,9.93184e-01,4.87728e-01,9.99997e-01
1.063183176e+00,2.93779e-05,9.99999e-01,5.97679e-05,9.88800e-01,4.94694e-01,9.99993e-01
1.068499092e+00,3.22566e-04,9.99999e-01,6.50984e-04,9.81299e-01,5.01620e-01,9.99986e-01
1.073841587e+00,4.36048e-03,9.99999e-01,8.71038e-03,9.78200e-01,5.08502e-01,9.99971e-01
1.079210795e+00,2.57625e-02,9.99999e-01,5.11055e-02,9.72063e-01,5.15340e-01,9.99924e-01
1.084606849e+00,9.23110e-02,9.99999e-01,1.83550e-01,9.58098e-01,5.22133e-01,9.99818e-01
1.090029883e+00,2.05595e-01,9.99999e-01,4.11287e-01,9.40710e-01,5.28878e-01,9.99623e-01
1.095480033e+00,2.93419e-01,9.99999e-01,6.43925e-01,8.46522e-01,5.35575e-01,9.99319e-01
1.100957433e+00,2.89855e-01,9.99999e-01,8.07889e-01,6.57878e-01,5.42221e-01,9.98747e-01
1.106462220e+00,1.81578e-01,9.99999e-01,9.15338e-01,3.59051e-01,5.48816e-01,9.97877e-01
1.111994531e+00,6.53880e-02,9.99999e-01,9.67698e-01,1.21627e-01,5.55359e-01,9.94375e-01
1.117554504e+00,2.02717e-02,9.99999e-01,9.91989e-01,3.69953e-02,5.61849e-01,9.79841e-01
1.123142276e+00,5.60901e-02,9.99999e-01,9.99469e-01,1.03591e-01,5.68283e-01,9.52855e-01
1.128757988e+00,1.12731e-01,9.99999e-01,9.99999e-01,2.07440e-01,5.74663e-01,9.45666e-01
1.134401778e+00,5.02017e-02,9.99999e-01,9.99999e-01,9.06114e-02,5.80985e-01,9.53607e-01
1.140073787e+00,2.12073e-01,9.99999e-01,9.99999e-01,3.75097e-01,5.87251e-01,9.62756e-01
1.145774156e+00,8.42342e-02,9.99999e-01,9.99999e-01,1.46956e-01,5.93458e-01,9.65854e-01
1.151503026e+00,7.08677e-02,9.99999e-01,9.99999e-01,1.20500e-01,5.99606e-01,9.80831e-01
1.157260541e+00,9.05386e-02,9.99999e-01,9.99999e-01,1.50346e-01,6.05694e-01,9.94229e-01
1.163046844e+00,1.48122e-01,9.99999e-01,9.99999e-01,2.42536e-01,6.11723e-01,9.98360e-01
1.168862078e+00,2.23889e-01,9.99999e-01,9.99999e-01,3.62768e-01,6.17690e-01,9.99155e-01
1.174706389e+00,3.32555e-01,9.99999e-01,9.99999e-01,5.33883e-01,6.23596e-01,9.98880e-01
1.180579921e+00,4.27729e-01,9.99999e-01,9.99999e-01,6.80689e-01,6.29440e-01,9.98307e-01
1.186482820e+00,5.09513e-01,9.99999e-01,9.99982e-01,8.03508e-01,6.35222e-01,9.98262e-01
1.192415234e+00,5.40900e-01,9.99999e-01,9.58885e-01,8.79905e-01,6.40941e-01,9.98698e-01
1.198377311e+00,3.03999e-01,9.99999e-01,5.14857e-01,8.97951e-01,6.46598e-01,9.98770e-01
1.204369197e+00,3.34346e-32,9.99999e-01,5.44383e-32,9.03384e-01,6.52191e-01,9.98887e-01
1.210391043e+00,7.49488e-131,9.99999e-01,1.20379e-130,9.07217e-01,6.57720e-01,9.99323e-01
1.216442998e+00,3.29699e-113,9.99999e-01,5.23557e-113,9.20391e-01,6.63186e-01,9.99585e-01
1.222525213e+00,1.68503e-111,9.99999e-01,2.60621e-111,9.37394e-01,6.68588e-01,9.99742e-01
1.228637839e+00,5.57666e-86,9.99999e-01,8.52934e-86,9.56107e-01,6.73926e-01,9.99879e-01
