#,Wave/freq,Total,N2,CO2,H2O,Rayleigh,CIA
4.000000000e-01,1.53652e-05,9.99999e-01,9.99999e-01,9.99978e-01,1.53655e-05,9.99999e-01
4.020000000e-01,1.91302e-05,9.99999e-01,9.99999e-01,9.99986e-01,1.91305e-05,9.99999e-01
4.040100000e-01,2.37094e-05,9.99999e-01,9.99999e-01,9.99993e-01,2.37095e-05,9.99999e-01
4.060300500e-01,2.92603e-05,9.99999e-01,9.99999e-01,9.99998e-01,2.92604e-05,9.99999e-01
4.080602003e-01,3.59610e-05,9.99999e-01,9.99999e-01,9.99999e-01,3.59610e-05,9.99999e-01
4.101005013e-01,4.40165e-05,9.99999e-01,9.99999e-01,9.99999e-01,4.40165e-05,9.99999e-01
4.121510038e-01,5.36617e-05,9.99999e-01,9.99999e-01,9.99998e-01,5.36617e-05,9.99999e-01
4.142117588e-01,6.51646e-05,9.99999e-01,9.99999e-01,9.99993e-01,6.51650e-05,9.99999e-01
4.162828176e-01,7.88291e-05,9.99999e-01,9.99999e-01,9.99973e-01,7.88311e-05,9.99999e-01
4.183642317e-01,9.50039e-05,9.99999e-01,9.99999e-01,9.99983e-01,9.50054e-05,9.99999e-01
4.204560528e-01,1.14076e-04,9.99999e-01,9.99999e-01,9.99989e-01,1.14077e-04,9.99999e-01
4.225583331e-01,1.36482e-04,9.99999e-01,9.99999e-01,9.99995e-01,1.36483e-04,9.99999e-01
4.246711247e-01,1.62712e-04,9.99999e-01,9.99999e-01,9.99996e-01,1.62712e-04,9.99999e-01
4.267944804e-01,1.93309e-04,9.99999e-01,9.99999e-01,9.99995e-01,1.93310e-04,9.99999e-01
4.289284528e-01,2.28880e-04,9.99999e-01,9.99999e-01,9.99996e-01,2.28881e-04,9.99999e-01
4.310730950e-01,2.70094e-04,9.99999e-01,9.99999e-01,9.99998e-01,2.70095e-04,9.99999e-01
4.332284605e-01,3.17689e-04,9.99999e-01,9.99999e-01,9.99999e-01,3.17689e-04,9.99999e-01
4.353946028e-01,3.72474e-04,9.99999e-01,9.99999e-01,9.99999e-01,3.72474e-04,9.99999e-01
4.375715758e-01,4.35336e-04,9.99999e-01,9.99999e-01,9.99996e-01,4.35337e-04,9.99999e-01
4.397594337e-01,5.07233e-04,9.99999e-01,9.99999e-01,9.99976e-01,5.07244e-04,9.99999e-01
4.419582309e-01,5.89178e-04,9.99999e-01,9.99999e-01,9.99883e-01,5.89247e-04,9.99999e-01
4.441680220e-01,6.82420e-04,9.99999e-01,9.99999e-01,9.99907e-01,6.82483e-04,9.99999e-01
4.463888621e-01,7.88106e-04,9.99999e-01,9.99999e-01,9.99903e-01,7.88182e-04,9.99999e-01
4.486208064e-01,9.07611e-04,9.99999e-01,9.99999e-01,9.99939e-01,9.07665e-04,9.99999e-01
4.508639105e-01,1.04232e-03,9.99999e-01,9.99999e-01,9.99971e-01,1.04235e-03,9.99999e-01
4.531182300e-01,1.19374e-03,9.99999e-01,9.99999e-01,9.99988e-01,1.19376e-03,9.99999e-01
4.553838212e-01,1.36349e-03,9.99999e-01,9.99999e-01,9.99992e-01,1.36350e-03,9.99999e-01
4.576607403e-01,1.55328e-03,9.99999e-01,9.99999e-01,9.99996e-01,1.55329e-03,9.99999e-01
4.599490440e-01,1.76494e-03,9.99999e-01,9.99999e-01,9.99997e-01,1.76495e-03,9.99999e-01
4.622487892e-01,2.00039e-03,9.99999e-01,9.99999e-01,9.99999e-01,2.00039e-03,9.99999e-01
4.645600332e-01,2.26164e-03,9.99999e-01,9.99999e-01,9.99997e-01,2.26165e-03,9.99999e-01
4.668828333e-01,2.55076e-03,9.99999e-01,9.99999e-01,9.99971e-01,2.55083e-03,9.99999e-01
4.692172475e-01,2.86999e-03,9.99999e-01,9.99999e-01,9.99939e-01,2.87016e-03,9.99999e-01
4.715633337e-01,3.22182e-03,9.99999e-01,9.99999e-01,9.99960e-01,3.22195e-03,9.99999e-01
4.739211504e-01,3.60847e-03,9.99999e-01,9.99999e-01,9.99961e-01,3.60861e-03,9.99999e-01
4.762907561e-01,4.03255e-03,9.99999e-01,9.99999e-01,9.99979e-01,4.03263e-03,9.99999e-01
4.786722099e-01,4.49656e-03,9.99999e-01,9.99999e-01,9.99991e-01,4.49659e-03,9.99999e-01
4.810655710e-01,5.00315e-03,9.99999e-01,9.99999e-01,9.99997e-01,5.00317e-03,9.99999e-01
4.834708988e-01,5.55496e-03,9.99999e-01,9.99999e-01,9.99976e-01,5.55508e-03,9.99999e-01
4.858882533e-01,6.15489e-03,9.99999e-01,9.99999e-01,9.99956e-01,6.15515e-03,9.99999e-01
4.883176946e-01,6.80599e-03,9.99999e-01,9.99999e-01,9.99964e-01,6.80623e-03,9.99999e-01
4.907592831e-01,7.51100e-03,9.99999e-01,9.99999e-01,9.99967e-01,7.51125e-03,9.99999e-01
4.932130795e-01,8.27298e-03,9.99999e-01,9.99999e-01,9.99976e-01,8.27317e-03,9.99999e-01
4.956791449e-01,9.09490e-03,9.99999e-01,9.99999e-01,9.99987e-01,9.09501e-03,9.99999e-01
4.981575406e-01,9.97920e-03,9.99999e-01,9.99999e-01,9.99939e-01,9.97980e-03,9.99999e-01
5.006483283e-01,1.09289e-02,9.99999e-01,9.99999e-01,9.99844e-01,1.09306e-02,9.99998e-01
5.031515699e-01,1.19409e-02,9.99999e-01,9.99999e-01,9.99208e-01,1.19505e-02,9.99991e-01
5.056673278e-01,1.30370e-02,9.99999e-01,9.99999e-01,9.99580e-01,1.30425e-02,9.99989e-01
5.081956644e-01,1.42022e-02,9.99999e-01,9.99999e-01,9.99471e-01,1.42098e-02,9.99993e-01
5.107366428e-01,1.54498e-02,9.99999e-01,9.99999e-01,9.99642e-01,1.54554e-02,9.99998e-01
5.132903260e-01,1.67788e-02,9.99999e-01,9.99999e-01,9.99795e-01,1.67822e-02,9.99999e-01
5.158567776e-01,1.81918e-02,9.99999e-01,9.99999e-01,9.99913e-01,1.81934e-02,9.99999e-01
5.184360615e-01,1.96911e-02,9.99999e-01,9.99999e-01,9.99964e-01,1.96917e-02,9.99999e-01
5.210282418e-01,2.12800e-02,9.99999e-01,9.99999e-01,9.99986e-01,2.12802e-02,9.99999e-01
5.236333830e-01,2.29604e-02,9.99999e-01,9.99999e-01,9.99947e-01,2.29616e-02,9.99999e-01
5.262515499e-01,2.47379e-02,9.99999e-01,9.99999e-01,9.99967e-01,2.47387e-02,9.99998e-01
5.288828077e-01,2.66133e-02,9.99999e-01,9.99999e-01,9.99969e-01,2.66141e-02,9.99999e-01
5.315272217e-01,2.85896e-02,9.99999e-01,9.99999e-01,9.99973e-01,2.85904e-02,9.99999e-01
5.341848578e-01,3.06694e-02,9.99999e-01,9.99999e-01,9.99982e-01,3.06700e-02,9.99999e-01
5.368557821e-01,3.28533e-02,9.99999e-01,9.99999e-01,9.99939e-01,3.28552e-02,9.99999e-01
5.395400610e-01,3.51407e-02,9.99999e-01,9.99999e-01,9.99784e-01,3.51484e-02,9.99997e-01
5.422377613e-01,3.75407e-02,9.99999e-01,9.99999e-01,9.99718e-01,3.75515e-02,9.99994e-01
5.449489501e-01,4.00559e-02,9.99999e-01,9.99999e-01,9.99739e-01,4.00665e-02,9.99994e-01
5.476736949e-01,4.26853e-02,9.99999e-01,9.99999e-01,9.99767e-01,4.26953e-02,9.99996e-01
5.504120634e-01,4.54318e-02,9.99999e-01,9.99999e-01,9.99831e-01,4.54395e-02,9.99998e-01
5.531641237e-01,4.82965e-02,9.99999e-01,9.99999e-01,9.99914e-01,4.83006e-02,9.99999e-01
5.559299443e-01,5.12779e-02,9.99999e-01,9.99999e-01,9.99958e-01,5.12800e-02,9.99999e-01
5.587095940e-01,5.43774e-02,9.99999e-01,9.99999e-01,9.99973e-01,5.43788e-02,9.99999e-01
5.615031420e-01,5.75964e-02,9.99999e-01,9.99999e-01,9.99971e-01,5.75981e-02,9.99999e-01
5.643106577e-01,6.09367e-02,9.99999e-01,9.99999e-01,9.99967e-01,6.09387e-02,9.99999e-01
5.671322110e-01,6.43762e-02,9.99999e-01,9.99999e-01,9.99613e-01,6.44013e-02,9.99996e-01
5.699678720e-01,6.79571e-02,9.99999e-01,9.99999e-01,9.99579e-01,6.79863e-02,9.99988e-01
5.728177114e-01,7.16625e-02,9.99999e-01,9.99999e-01,9.99566e-01,7.16942e-02,9.99990e-01
5.756818000e-01,7.54946e-02,9.99999e-01,9.99999e-01,9.99601e-01,7.55251e-02,9.99994e-01
5.785602090e-01,7.94511e-02,9.99999e-01,9.99999e-01,9.99651e-01,7.94789e-02,9.99997e-01
5.814530100e-01,8.35262e-02,9.99999e-01,9.99999e-01,9.99650e-01,8.35554e-02,9.99998e-01
5.843602750e-01,8.77178e-02,9.99999e-01,9.99999e-01,9.99586e-01,8.77542e-02,9.99997e-01
5.872820764e-01,9.17446e-02,9.99999e-01,9.99999e-01,9.96437e-01,9.20749e-02,9.99974e-01
5.902184868e-01,9.60905e-02,9.99999e-01,9.99999e-01,9.95652e-01,9.65166e-02,9.99930e-01
5.931695792e-01,1.00762e-01,9.99999e-01,9.99999e-01,9.96935e-01,1.01078e-01,9.99932e-01
5.961354271e-01,1.05399e-01,9.99999e-01,9.99999e-01,9.96634e-01,1.05759e-01,9.99959e-01
5.991161043e-01,1.10285e-01,9.99999e-01,9.99999e-01,9.97542e-01,1.10558e-01,9.99987e-01
6.021116848e-01,1.15312e-01,9.99999e-01,9.99999e-01,9.98603e-01,1.15474e-01,9.99998e-01
6.051222432e-01,1.20419e-01,9.99999e-01,9.99999e-01,9.99292e-01,1.20504e-01,9.99999e-01
6.081478544e-01,1.25609e-01,9.99999e-01,9.99999e-01,9.99695e-01,1.25647e-01,9.99999e-01
6.111885937e-01,1.30885e-01,9.99999e-01,9.99999e-01,9.99870e-01,1.30902e-01,9.99999e-01
6.142445367e-01,1.36259e-01,9.99999e-01,9.99999e-01,9.99941e-01,1.36267e-01,9.99999e-01
6.173157594e-01,1.41734e-01,9.99999e-01,9.99999e-01,9.99967e-01,1.41738e-01,9.99999e-01
6.204023382e-01,1.47311e-01,9.99999e-01,9.99999e-01,9.99972e-01,1.47315e-01,9.99999e-01
6.235043498e-01,1.52977e-01,9.99999e-01,9.99999e-01,9.99883e-01,1.52995e-01,9.99999e-01
6.266218716e-01,1.58675e-01,9.99999e-01,9.99999e-01,9.99375e-01,1.58775e-01,9.99995e-01
6.297549810e-01,1.64613e-01,9.99999e-01,9.99999e-01,9.99770e-01,1.64652e-01,9.99990e-01
6.329037559e-01,1.70547e-01,9.99999e-01,9.99999e-01,9.99545e-01,1.70625e-01,9.99992e-01
6.360682746e-01,1.76621e-01,9.99999e-01,9.99999e-01,9.99614e-01,1.76690e-01,9.99995e-01
6.392486160e-01,1.82753e-01,9.99999e-01,9.99999e-01,9.99499e-01,1.82844e-01,9.99997e-01
6.424448591e-01,1.88959e-01,9.99999e-01,9.99999e-01,9.99335e-01,1.89085e-01,9.99996e-01
6.456570834e-01,1.94803e-01,9.99999e-01,9.99999e-01,9.96915e-01,1.95409e-01,9.99982e-01
6.488853688e-01,2.01265e-01,9.99999e-01,9.99999e-01,9.97329e-01,2.01814e-01,9.99951e-01
6.521297956e-01,2.07803e-01,9.99999e-01,9.99999e-01,9.97677e-01,2.08295e-01,9.99959e-01
6.553904446e-01,2.14352e-01,9.99999e-01,9.99999e-01,9.97706e-01,2.14851e-01,9.99969e-01
6.586673968e-01,2.21036e-01,9.99999e-01,9.99999e-01,9.98019e-01,2.21477e-01,9.99989e-01
6.619607338e-01,2.27909e-01,9.99999e-01,9.99999e-01,9.98854e-01,2.28171e-01,9.99997e-01
6.652705375e-01,2.34773e-01,9.99999e-01,9.99999e-01,9.99335e-01,2.34929e-01,9.99998e-01
6.685968902e-01,2.41673e-01,9.99999e-01,9.99999e-01,9.99691e-01,2.41747e-01,9.99999e-01
6.719398746e-01,2.48588e-01,9.99999e-01,9.99999e-01,9.99856e-01,2.48623e-01,9.99999e-01
6.752995740e-01,2.55534e-01,9.99999e-01,9.99999e-01,9.99922e-01,2.55553e-01,9.99999e-01
6.786760719e-01,2.62505e-01,9.99999e-01,9.99999e-01,9.99888e-01,2.62534e-01,9.99999e-01
6.820694522e-01,2.69510e-01,9.99999e-01,9.99999e-01,9.99809e-01,2.69561e-01,9.99998e-01
6.854797995e-01,2.76564e-01,9.99999e-01,9.99999e-01,9.99754e-01,2.76633e-01,9.99997e-01
6.889071985e-01,2.83577e-01,9.99999e-01,9.99999e-01,9.99412e-01,2.83745e-01,9.99994e-01
6.923517345e-01,2.88076e-01,9.99999e-01,9.99999e-01,9.90359e-01,2.90893e-01,9.99953e-01
6.958134932e-01,2.96523e-01,9.99999e-01,9.99999e-01,9.94895e-01,2.98075e-01,9.99894e-01
6.992925606e-01,3.03803e-01,9.99999e-01,9.99999e-01,9.95226e-01,3.05288e-01,9.99907e-01
7.027890234e-01,3.10653e-01,9.99999e-01,9.99999e-01,9.94071e-01,3.12527e-01,9.99928e-01
7.063029686e-01,3.18186e-01,9.99999e-01,9.99999e-01,9.95018e-01,3.19790e-01,9.99964e-01
7.098344834e-01,3.25503e-01,9.99999e-01,9.99999e-01,9.95220e-01,3.27073e-01,9.99978e-01
7.133836558e-01,3.32253e-01,9.99999e-01,9.99999e-01,9.93697e-01,3.34374e-01,9.99958e-01
7.169505741e-01,3.24519e-01,9.99999e-01,9.99999e-01,9.50061e-01,3.41688e-01,9.99673e-01
7.205353270e-01,3.40057e-01,9.99999e-01,9.99999e-01,9.74900e-01,3.49013e-01,9.99423e-01
7.241380036e-01,3.44989e-01,9.99999e-01,9.99999e-01,9.68610e-01,3.56346e-01,9.99502e-01
7.277586936e-01,3.53215e-01,9.99999e-01,9.99999e-01,9.71610e-01,3.63683e-01,9.99593e-01
7.313974871e-01,3.59709e-01,9.99999e-01,9.99999e-01,9.69693e-01,3.71022e-01,9.99809e-01
7.350544745e-01,3.72041e-01,9.99999e-01,9.99999e-01,9.83363e-01,3.78360e-01,9.99933e-01
7.387297469e-01,3.80950e-01,9.99999e-01,9.99999e-01,9.87728e-01,3.85694e-01,9.99969e-01
7.424233956e-01,3.90648e-01,9.99999e-01,9.99999e-01,9.93968e-01,3.93021e-01,9.99993e-01
7.461355126e-01,3.98875e-01,9.99999e-01,9.99999e-01,9.96346e-01,4.00338e-01,9.99998e-01
7.498661902e-01,4.06948e-01,9.99999e-01,9.99999e-01,9.98294e-01,4.07643e-01,9.99999e-01
7.536155211e-01,4.14586e-01,9.99999e-01,9.99999e-01,9.99164e-01,4.14933e-01,9.99999e-01
7.573835987e-01,4.22024e-01,9.99999e-01,9.99999e-01,9.99569e-01,4.22205e-01,9.99999e-01
7.611705167e-01,4.29343e-01,9.99999e-01,9.99999e-01,9.99732e-01,4.29458e-01,9.99999e-01
7.649763693e-01,4.36615e-01,9.99999e-01,9.99999e-01,9.99832e-01,4.36688e-01,9.99999e-01
7.688012511e-01,4.43842e-01,9.99999e-01,9.99999e-01,9.99883e-01,4.43893e-01,9.99999e-01
7.726452574e-01,4.51029e-01,9.99999e-01,9.99999e-01,9.99903e-01,4.51072e-01,9.99999e-01
7.765084837e-01,4.58159e-01,9.99999e-01,9.99999e-01,9.99864e-01,4.58221e-01,9.99999e-01
7.803910261e-01,4.49210e-01,9.99999e-01,9.65883e-01,9.99416e-01,4.65340e-01,9.99998e-01
7.842929812e-01,4.02064e-01,9.99999e-01,8.52715e-01,9.97965e-01,4.72424e-01,9.99995e-01
7.882144461e-01,4.02999e-01,9.99999e-01,8.43936e-01,9.95781e-01,4.79474e-01,9.99973e-01
7.921555184e-01,4.39593e-01,9.99999e-01,9.05706e-01,9.97675e-01,4.86486e-01,9.99949e-01
7.961162960e-01,4.59734e-01,9.99999e-01,9.35465e-01,9.95930e-01,4.93460e-01,9.99951e-01
8.000968774e-01,4.80351e-01,9.99999e-01,9.64535e-01,9.95280e-01,5.00393e-01,9.99948e-01
8.040973618e-01,4.95490e-01,9.99999e-01,9.81410e-01,9.95283e-01,5.07283e-01,9.99959e-01
8.081178486e-01,5.04346e-01,9.99999e-01,9.91453e-01,9.89448e-01,5.14129e-01,9.99961e-01
8.121584379e-01,4.96943e-01,9.99999e-01,9.97335e-01,9.56618e-01,5.20930e-01,9.99850e-01
8.162192301e-01,4.99829e-01,9.99999e-01,9.99410e-01,9.48291e-01,5.27684e-01,9.99439e-01
8.203003262e-01,5.20279e-01,9.99999e-01,9.99989e-01,9.74243e-01,5.34389e-01,9.99343e-01
8.244018279e-01,5.21000e-01,9.99999e-01,9.99999e-01,9.63454e-01,5.41044e-01,9.99477e-01
8.285238370e-01,5.30449e-01,9.99999e-01,9.99999e-01,9.68990e-01,5.47649e-01,9.99589e-01
8.326664562e-01,5.36682e-01,9.99999e-01,9.99999e-01,9.68552e-01,5.54201e-01,9.99829e-01
8.368297885e-01,5.48018e-01,9.99999e-01,9.99999e-01,9.77419e-01,5.60700e-01,9.99960e-01
8.410139374e-01,5.59489e-01,9.99999e-01,9.99999e-01,9.86523e-01,5.67145e-01,9.99976e-01
8.452190071e-01,5.69721e-01,9.99999e-01,9.99999e-01,9.93366e-01,5.73534e-01,9.99985e-01
8.494451021e-01,5.77633e-01,9.99999e-01,9.99999e-01,9.96158e-01,5.79866e-01,9.99988e-01
8.536923276e-01,5.84802e-01,9.99999e-01,9.99999e-01,9.97720e-01,5.86142e-01,9.99992e-01
8.579607893e-01,5.91529e-01,9.99999e-01,9.99999e-01,9.98599e-01,5.92359e-01,9.99997e-01
8.622505932e-01,5.97985e-01,9.99999e-01,9.99999e-01,9.99108e-01,5.98518e-01,9.99999e-01
8.665618462e-01,5.59134e-01,9.99999e-01,9.25262e-01,9.99449e-01,6.04617e-01,9.99999e-01
8.708946554e-01,4.08029e-01,9.99999e-01,6.68585e-01,9.99371e-01,6.10656e-01,9.99999e-01
8.752491287e-01,4.44861e-01,9.99999e-01,7.22022e-01,9.99158e-01,6.16635e-01,9.99998e-01
8.796253743e-01,5.19809e-01,9.99999e-01,8.35908e-01,9.98837e-01,6.22552e-01,9.99996e-01
8.840235012e-01,5.71882e-01,9.99999e-01,9.11249e-01,9.98671e-01,6.28407e-01,9.99991e-01
8.884436187e-01,6.08416e-01,9.99999e-01,9.63923e-01,9.95224e-01,6.34200e-01,9.99976e-01
8.928858368e-01,5.99141e-01,9.99999e-01,9.85261e-01,9.50265e-01,6.39930e-01,9.99866e-01
8.973502660e-01,5.86967e-01,9.99999e-01,9.96382e-01,9.13035e-01,6.45598e-01,9.99318e-01
9.018370173e-01,6.20578e-01,9.99999e-01,9.99599e-01,9.54363e-01,6.51202e-01,9.98928e-01
9.063462024e-01,6.23967e-01,9.99999e-01,9.90049e-01,9.60230e-01,6.56743e-01,9.99058e-01
9.108779334e-01,6.06652e-01,9.99999e-01,9.76869e-01,9.38414e-01,6.62220e-01,9.99021e-01
9.154323231e-01,6.17208e-01,9.99999e-01,9.94483e-01,9.30236e-01,6.67633e-01,9.99191e-01
9.200094847e-01,5.89372e-01,9.99999e-01,9.24453e-01,9.44826e-01,6.72982e-01,9.99547e-01
9.246095321e-01,5.55209e-01,9.99999e-01,8.91867e-01,9.16361e-01,6.78267e-01,9.99478e-01
9.292325798e-01,3.50099e-01,9.99999e-01,9.14933e-01,5.55615e-01,6.83489e-01,9.97968e-01
9.338787427e-01,2.94738e-01,9.99999e-01,9.17002e-01,4.66187e-01,6.88645e-01,9.91628e-01
9.385481364e-01,4.75312e-01,9.99999e-01,9.38322e-01,7.34673e-01,6.93738e-01,9.90051e-01
9.432408771e-01,4.36806e-01,9.99999e-01,9.61678e-01,6.54187e-01,6.98767e-01,9.91411e-01
9.479570815e-01,3.82614e-01,9.99999e-01,9.80199e-01,5.57962e-01,7.03732e-01,9.93004e-01
9.526968669e-01,4.49654e-01,9.99999e-01,9.90391e-01,6.42866e-01,7.08633e-01,9.95727e-01
9.574603512e-01,4.71796e-01,9.99999e-01,9.95878e-01,6.65260e-01,7.13470e-01,9.97827e-01
9.622476530e-01,5.13510e-01,9.99999e-01,9.98711e-01,7.16893e-01,7.18244e-01,9.98496e-01
9.670588912e-01,5.96015e-01,9.99999e-01,9.99613e-01,8.25565e-01,7.22955e-01,9.98971e-01
9.718941857e-01,6.44933e-01,9.99999e-01,9.99971e-01,8.87075e-01,7.27602e-01,9.99242e-01
9.767536566e-01,6.62498e-01,9.99999e-01,9.99999e-01,9.05343e-01,7.32187e-01,9.99421e-01
9.816374249e-01,6.84135e-01,9.99999e-01,9.99999e-01,9.28822e-01,7.36709e-01,9.99799e-01
9.865456120e-01,7.07720e-01,9.99999e-01,9.99999e-01,9.54909e-01,7.41169e-01,9.99957e-01
9.914783401e-01,7.24610e-01,9.99999e-01,9.99999e-01,9.71902e-01,7.45567e-01,9.99987e-01
9.964357318e-01,7.38349e-01,9.99999e-01,9.99999e-01,9.84598e-01,7.49903e-01,9.99992e-01
1.001417910e+00,7.47188e-01,9.99999e-01,9.99999e-01,9.90740e-01,7.54179e-01,9.99989e-01
1.006425000e+00,7.54379e-01,9.99999e-01,9.99999e-01,9.94720e-01,7.58393e-01,9.99984e-01
1.011457125e+00,7.60031e-01,9.99999e-01,9.99999e-01,9.96713e-01,7.62547e-01,9.99985e-01
1.016514411e+00,7.64925e-01,9.99999e-01,9.99999e-01,9.97770e-01,7.66641e-01,9.99989e-01
1.021596983e+00,7.69263e-01,9.99999e-01,9.99950e-01,9.98224e-01,7.70676e-01,9.99989e-01
1.026704968e+00,7.70575e-01,9.99999e-01,9.96120e-01,9.98615e-01,7.74652e-01,9.99993e-01
1.031838492e+00,7.44191e-01,9.99999e-01,9.56782e-01,9.98991e-01,7.78568e-01,9.99997e-01
1.036997685e+00,1.15245e-01,9.99999e-01,1.47362e-01,9.99402e-01,7.82427e-01,9.99999e-01
1.042182673e+00,8.48042e-02,9.99999e-01,1.07930e-01,9.99289e-01,7.86228e-01,9.99999e-01
1.047393587e+00,1.04722e-01,9.99999e-01,1.32674e-01,9.99056e-01,7.89972e-01,9.99999e-01
1.052630555e+00,2.48540e-03,9.99999e-01,3.13453e-03,9.98706e-01,7.93660e-01,9.99999e-01
1.057893707e+00,6.39974e-03,9.99999e-01,8.03837e-03,9.97843e-01,7.97291e-01,9.99998e-01
1.063183176e+00,2.27166e-02,9.99999e-01,2.84366e-02,9.96450e-01,8.00866e-01,9.99997e-01
1.068499092e+00,6.71046e-02,9.99999e-01,8.38395e-02,9.94054e-01,8.04387e-01,9.99995e-01
1.073841587e+00,1.66922e-01,9.99999e-01,2.07846e-01,9.93054e-01,8.07853e-01,9.99990e-01
1.079210795e+00,2.97614e-01,9.99999e-01,3.69852e-01,9.91084e-01,8.11265e-01,9.99975e-01
1.084606849e+00,4.64530e-01,9.99999e-01,5.77664e-01,9.86549e-01,8.14623e-01,9.99942e-01
1.090029883e+00,6.03711e-01,9.99999e-01,7.52206e-01,9.80815e-01,8.17929e-01,9.99880e-01
1.095480033e+00,6.77082e-01,9.99999e-01,8.68950e-01,9.48502e-01,8.21183e-01,9.99784e-01
1.100957433e+00,6.73859e-01,9.99999e-01,9.34572e-01,8.74339e-01,8.24385e-01,9.99604e-01
1.106462220e+00,5.73068e-01,9.99999e-01,9.72381e-01,7.11906e-01,8.27535e-01,9.99329e-01
1.111994531e+00,4.01722e-01,9.99999e-01,9.89673e-01,4.89173e-01,8.30635e-01,9.98221e-01
1.117554504e+00,2.60808e-01,9.99999e-01,9.97460e-01,3.15500e-01,8.33685e-01,9.93593e-01
1.123142276e+00,3.54862e-01,9.99999e-01,9.99831e-01,4.30675e-01,8.36686e-01,9.84874e-01
1.128757988e+00,4.79434e-01,9.99999e-01,9.99999e-01,5.81157e-01,8.39638e-01,9.82522e-01
1.134401778e+00,2.66347e-01,9.99999e-01,9.99999e-01,3.20898e-01,8.42542e-01,9.85119e-01
1.140073787e+00,6.03278e-01,9.99999e-01,9.99999e-01,7.22201e-01,8.45398e-01,9.88092e-01
1.145774156e+00,4.26760e-01,9.99999e-01,9.99999e-01,5.08678e-01,8.48207e-01,9.89094e-01
1.151503026e+00,3.99402e-01,9.99999e-01,9.99999e-01,4.72225e-01,8.50970e-01,9.93910e-01
1.157260541e+00,4.52880e-01,9.99999e-01,9.99999e-01,5.31468e-01,8.53687e-01,9.98174e-01
1.163046844e+00,5.35649e-01,9.99999e-01,9.99999e-01,6.25820e-01,8.56359e-01,9.99482e-01
1.168862078e+00,6.19494e-01,9.99999e-01,9.99999e-01,7.21384e-01,8.58985e-01,9.99732e-01
1.174706389e+00,7.04073e-01,9.99999e-01,9.99999e-01,8.17487e-01,8.61568e-01,9.99646e-01
1.180579921e+00,7.63830e-01,9.99999e-01,9.99999e-01,8.84424e-01,8.64108e-01,9.99465e-01
1.186482820e+00,8.08083e-01,9.99999e-01,9.99994e-01,9.32985e-01,8.66604e-01,9.99451e-01
1.192415234e+00,8.22964e-01,9.99999e-01,9.86291e-01,9.60359e-01,8.69059e-01,9.99588e-01
1.198377311e+00,4.74869e-01,9.99999e-01,5.60855e-01,9.66532e-01,8.71471e-01,9.99611e-01
1.204369197e+00,1.05684e-11,9.99999e-01,1.23256e-11,9.68282e-01,8.73842e-01,9.99648e-01
1.210391043e+00,7.83518e-43,9.99999e-01,9.09868e-43,9.69641e-01,8.76173e-01,9.99785e-01
1.216442998e+00,2.89195e-37,9.99999e-01,3.34627e-37,9.74073e-01,8.78464e-01,9.99868e-01
1.222525213e+00,1.00202e-36,9.99999e-01,1.14983e-36,9.79772e-01,8.80715e-01,9.99918e-01
1.228637839e+00,1.89957e-28,9.99999e-01,2.17269e-28,9.85920e-01,8.82928e-01,9.99961e-01
