#,Wave/freq,Total,N2,CO2,H2O,Rayleigh,CIA
4.000000000e-01,6.63707e-20,9.99999e-01,9.99999e-01,9.99914e-01,6.63763e-20,9.99999e-01
4.020000000e-01,1.58924e-19,9.99999e-01,9.99999e-01,9.99946e-01,1.58932e-19,9.99999e-01
4.040100000e-01,3.73702e-19,9.99999e-01,9.99999e-01,9.99977e-01,3.73710e-19,9.99999e-01
4.060300500e-01,8.64014e-19,9.99999e-01,9.99999e-01,9.99994e-01,8.64019e-19,9.99999e-01
4.080602003e-01,1.96481e-18,9.99999e-01,9.99999e-01,9.99997e-01,1.96481e-18,9.99999e-01
4.101005013e-01,4.39615e-18,9.99999e-01,9.99999e-01,9.99999e-01,4.39615e-18,9.99999e-01
4.121510038e-01,9.68085e-18,9.99999e-01,9.99999e-01,9.99996e-01,9.68088e-18,9.99999e-01
4.142117588e-01,2.09882e-17,9.99999e-01,9.99999e-01,9.99976e-01,2.09887e-17,9.99999e-01
4.162828176e-01,4.48096e-17,9.99999e-01,9.99999e-01,9.99894e-01,4.48144e-17,9.99999e-01
4.183642317e-01,9.42573e-17,9.99999e-01,9.99999e-01,9.99937e-01,9.42632e-17,9.99999e-01
4.204560528e-01,1.95376e-16,9.99999e-01,9.99999e-01,9.99961e-01,1.95384e-16,9.99999e-01
4.225583331e-01,3.99187e-16,9.99999e-01,9.99999e-01,9.99985e-01,3.99193e-16,9.99999e-01
4.246711247e-01,8.04160e-16,9.99999e-01,9.99999e-01,9.99988e-01,8.04169e-16,9.99999e-01
4.267944804e-01,1.59771e-15,9.99999e-01,9.99999e-01,9.99982e-01,1.59773e-15,9.99999e-01
4.289284528e-01,3.13160e-15,9.99999e-01,9.99999e-01,9.99986e-01,3.13164e-15,9.99999e-01
4.310730950e-01,6.05708e-15,9.99999e-01,9.99999e-01,9.99994e-01,6.05712e-15,9.99999e-01
4.332284605e-01,1.15638e-14,9.99999e-01,9.99999e-01,9.99998e-01,1.15638e-14,9.99999e-01
4.353946028e-01,2.17966e-14,9.99999e-01,9.99999e-01,9.99998e-01,2.17966e-14,9.99999e-01
4.375715758e-01,4.05729e-14,9.99999e-01,9.99999e-01,9.99989e-01,4.05733e-14,9.99999e-01
4.397594337e-01,7.45969e-14,9.99999e-01,9.99999e-01,9.99906e-01,7.46038e-14,9.99999e-01
4.419582309e-01,1.35473e-13,9.99999e-01,9.99999e-01,9.99527e-01,1.35537e-13,9.99999e-01
4.441680220e-01,2.43260e-13,9.99999e-01,9.99999e-01,9.99634e-01,2.43349e-13,9.99999e-01
4.463888621e-01,4.31735e-13,9.99999e-01,9.99999e-01,9.99618e-01,4.31900e-13,9.99999e-01
4.486208064e-01,7.57726e-13,9.99999e-01,9.99999e-01,9.99763e-01,7.57906e-13,9.99999e-01
4.508639105e-01,1.31515e-12,9.99999e-01,9.99999e-01,9.99888e-01,1.31529e-12,9.99999e-01
4.531182300e-01,2.25778e-12,9.99999e-01,9.99999e-01,9.99955e-01,2.25788e-12,9.99999e-01
4.553838212e-01,3.83470e-12,9.99999e-01,9.99999e-01,9.99969e-01,3.83482e-12,9.99999e-01
4.576607403e-01,6.44523e-12,9.99999e-01,9.99999e-01,9.99985e-01,6.44531e-12,9.99999e-01
4.599490440e-01,1.07222e-11,9.99999e-01,9.99999e-01,9.99989e-01,1.07223e-11,9.99999e-01
4.622487892e-01,1.76591e-11,9.99999e-01,9.99999e-01,9.99997e-01,1.76591e-11,9.99999e-01
4.645600332e-01,2.87981e-11,9.99999e-01,9.99999e-01,9.99992e-01,2.87983e-11,9.99999e-01
4.668828333e-01,4.65074e-11,9.99999e-01,9.99999e-01,9.99887e-01,4.65126e-11,9.99999e-01
4.692172475e-01,7.43975e-11,9.99999e-01,9.99999e-01,9.99760e-01,7.44152e-11,9.99999e-01
4.715633337e-01,1.17938e-10,9.99999e-01,9.99999e-01,9.99843e-01,1.17956e-10,9.99999e-01
4.739211504e-01,1.85253e-10,9.99999e-01,9.99999e-01,9.99850e-01,1.85281e-10,9.99999e-01
4.762907561e-01,2.88423e-10,9.99999e-01,9.99999e-01,9.99922e-01,2.88446e-10,9.99999e-01
4.786722099e-01,4.45131e-10,9.99999e-01,9.99999e-01,9.99967e-01,4.45145e-10,9.99999e-01
4.810655710e-01,6.81103e-10,9.99999e-01,9.99999e-01,9.99990e-01,6.81109e-10,9.99999e-01
4.834708988e-01,1.03334e-09,9.99999e-01,9.99999e-01,9.99907e-01,1.03344e-09,9.99999e-01
4.858882533e-01,1.55489e-09,9.99999e-01,9.99999e-01,9.99830e-01,1.55515e-09,9.99999e-01
4.883176946e-01,2.32111e-09,9.99999e-01,9.99999e-01,9.99857e-01,2.32144e-09,9.99999e-01
4.907592831e-01,3.43756e-09,9.99999e-01,9.99999e-01,9.99871e-01,3.43800e-09,9.99999e-01
4.932130795e-01,5.05179e-09,9.99999e-01,9.99999e-01,9.99908e-01,5.05225e-09,9.99999e-01
4.956791449e-01,7.36784e-09,9.99999e-01,9.99999e-01,9.99951e-01,7.36820e-09,9.99999e-01
4.981575406e-01,1.06634e-08,9.99999e-01,9.99999e-01,9.99758e-01,1.06660e-08,9.99999e-01
5.006483283e-01,1.53177e-08,9.99999e-01,9.99999e-01,9.99374e-01,1.53274e-08,9.99995e-01
5.031515699e-01,2.17990e-08,9.99999e-01,9.99999e-01,9.96843e-01,2.18688e-08,9.99966e-01
5.056673278e-01,3.09308e-08,9.99999e-01,9.99999e-01,9.98334e-01,3.09836e-08,9.99961e-01
5.081956644e-01,4.35038e-08,9.99999e-01,9.99999e-01,9.97899e-01,4.35964e-08,9.99976e-01
5.107366428e-01,6.08445e-08,9.99999e-01,9.99999e-01,9.98581e-01,6.09312e-08,9.99995e-01
5.132903260e-01,8.45288e-08,9.99999e-01,9.99999e-01,9.99189e-01,8.45973e-08,9.99998e-01
5.158567776e-01,1.16657e-07,9.99999e-01,9.99999e-01,9.99657e-01,1.16697e-07,9.99999e-01
5.184360615e-01,1.59935e-07,9.99999e-01,9.99999e-01,9.99862e-01,1.59956e-07,9.99999e-01
5.210282418e-01,2.17880e-07,9.99999e-01,9.99999e-01,9.99948e-01,2.17891e-07,9.99999e-01
5.236333830e-01,2.94941e-07,9.99999e-01,9.99999e-01,9.99793e-01,2.95003e-07,9.99998e-01
5.262515499e-01,3.96969e-07,9.99999e-01,9.99999e-01,9.99870e-01,3.97020e-07,9.99997e-01
5.288828077e-01,5.31129e-07,9.99999e-01,9.99999e-01,9.99881e-01,5.31193e-07,9.99998e-01
5.315272217e-01,7.06560e-07,9.99999e-01,9.99999e-01,9.99895e-01,7.06633e-07,9.99999e-01
5.341848578e-01,9.34670e-07,9.99999e-01,9.99999e-01,9.99931e-01,9.34733e-07,9.99999e-01
5.368557821e-01,1.22935e-06,9.99999e-01,9.99999e-01,9.99759e-01,1.22965e-06,9.99998e-01
5.395400610e-01,1.60747e-06,9.99999e-01,9.99999e-01,9.99131e-01,1.60888e-06,9.99992e-01
5.422377613e-01,2.09153e-06,9.99999e-01,9.99999e-01,9.98883e-01,2.09391e-06,9.99979e-01
5.449489501e-01,2.70815e-06,9.99999e-01,9.99999e-01,9.98958e-01,2.71103e-06,9.99978e-01
5.476736949e-01,3.48891e-06,9.99999e-01,9.99999e-01,9.99080e-01,3.49215e-06,9.99989e-01
5.504120634e-01,4.47290e-06,9.99999e-01,9.99999e-01,9.99332e-01,4.47590e-06,9.99996e-01
5.531641237e-01,5.70680e-06,9.99999e-01,9.99999e-01,9.99663e-01,5.70872e-06,9.99999e-01
5.559299443e-01,7.24502e-06,9.99999e-01,9.99999e-01,9.99837e-01,7.24620e-06,9.99999e-01
5.587095940e-01,9.15359e-06,9.99999e-01,9.99999e-01,9.99897e-01,9.15452e-06,9.99999e-01
5.615031420e-01,1.15108e-05,9.99999e-01,9.99999e-01,9.99886e-01,1.15121e-05,9.99999e-01
5.643106577e-01,1.44097e-05,9.99999e-01,9.99999e-01,9.99870e-01,1.44115e-05,9.99998e-01
5.671322110e-01,1.79328e-05,9.99999e-01,9.99999e-01,9.98428e-01,1.79613e-05,9.99985e-01
5.699678720e-01,2.22504e-05,9.99999e-01,9.99999e-01,9.98345e-01,2.22883e-05,9.99957e-01
5.728177114e-01,2.74913e-05,9.99999e-01,9.99999e-01,9.98269e-01,2.75400e-05,9.99964e-01
5.756818000e-01,3.38327e-05,9.99999e-01,9.99999e-01,9.98413e-01,3.38872e-05,9.99978e-01
5.785602090e-01,4.14692e-05,9.99999e-01,9.99999e-01,9.98617e-01,4.15268e-05,9.99993e-01
5.814530100e-01,5.06142e-05,9.99999e-01,9.99999e-01,9.98610e-01,5.06847e-05,9.99996e-01
5.843602750e-01,6.15164e-05,9.99999e-01,9.99999e-01,9.98339e-01,6.16193e-05,9.99990e-01
5.872820764e-01,7.35573e-05,9.99999e-01,9.99999e-01,9.85801e-01,7.46242e-05,9.99899e-01
5.902184868e-01,8.84641e-05,9.99999e-01,9.99999e-01,9.82844e-01,9.00328e-05,9.99726e-01
5.931695792e-01,1.06878e-04,9.99999e-01,9.99999e-01,9.87853e-01,1.08221e-04,9.99736e-01
5.961354271e-01,1.27867e-04,9.99999e-01,9.99999e-01,9.86691e-01,1.29612e-04,9.99848e-01
5.991161043e-01,1.53167e-04,9.99999e-01,9.99999e-01,9.90277e-01,1.54678e-04,9.99952e-01
6.021116848e-01,1.82932e-04,9.99999e-01,9.99999e-01,9.94474e-01,1.83949e-04,9.99994e-01
6.051222432e-01,2.17401e-04,9.99999e-01,9.99999e-01,9.97201e-01,2.18011e-04,9.99999e-01
6.081478544e-01,2.57204e-04,9.99999e-01,9.99999e-01,9.98791e-01,2.57515e-04,9.99999e-01
6.111885937e-01,3.03023e-04,9.99999e-01,9.99999e-01,9.99488e-01,3.03178e-04,9.99999e-01
6.142445367e-01,3.55708e-04,9.99999e-01,9.99999e-01,9.99771e-01,3.55789e-04,9.99999e-01
6.173157594e-01,4.16160e-04,9.99999e-01,9.99999e-01,9.99873e-01,4.16213e-04,9.99999e-01
6.204023382e-01,4.85340e-04,9.99999e-01,9.99999e-01,9.99892e-01,4.85392e-04,9.99999e-01
6.235043498e-01,5.64085e-04,9.99999e-01,9.99999e-01,9.99527e-01,5.64352e-04,9.99998e-01
6.266218716e-01,6.52569e-04,9.99999e-01,9.99999e-01,9.97512e-01,6.54207e-04,9.99982e-01
6.297549810e-01,7.55442e-04,9.99999e-01,9.99999e-01,9.99087e-01,7.56158e-04,9.99964e-01
6.329037559e-01,8.69907e-04,9.99999e-01,9.99999e-01,9.98198e-01,8.71501e-04,9.99971e-01
6.360682746e-01,1.00007e-03,9.99999e-01,9.99999e-01,9.98463e-01,1.00162e-03,9.99982e-01
6.392486160e-01,1.14573e-03,9.99999e-01,9.99999e-01,9.98010e-01,1.14802e-03,9.99992e-01
6.424448591e-01,1.30875e-03,9.99999e-01,9.99999e-01,9.97330e-01,1.31227e-03,9.99987e-01
6.456570834e-01,1.47751e-03,9.99999e-01,9.99999e-01,9.87668e-01,1.49606e-03,9.99931e-01
6.488853688e-01,1.68554e-03,9.99999e-01,9.99999e-01,9.90995e-01,1.70118e-03,9.99807e-01
6.521297956e-01,1.91152e-03,9.99999e-01,9.99999e-01,9.90826e-01,1.92952e-03,9.99841e-01
6.553904446e-01,2.16283e-03,9.99999e-01,9.99999e-01,9.90841e-01,2.18307e-03,9.99881e-01
6.586673968e-01,2.44454e-03,9.99999e-01,9.99999e-01,9.92167e-01,2.46393e-03,9.99960e-01
6.619607338e-01,2.76213e-03,9.99999e-01,9.99999e-01,9.95627e-01,2.77428e-03,9.99991e-01
6.652705375e-01,3.10821e-03,9.99999e-01,9.99999e-01,9.97373e-01,3.11641e-03,9.99995e-01
6.685968902e-01,3.48879e-03,9.99999e-01,9.99999e-01,9.98882e-01,3.49270e-03,9.99998e-01
6.719398746e-01,3.90341e-03,9.99999e-01,9.99999e-01,9.99434e-01,3.90562e-03,9.99999e-01
6.752995740e-01,4.35639e-03,9.99999e-01,9.99999e-01,9.99692e-01,4.35772e-03,9.99999e-01
6.786760719e-01,4.84950e-03,9.99999e-01,9.99999e-01,9.99555e-01,4.85166e-03,9.99998e-01
6.820694522e-01,5.38602e-03,9.99999e-01,9.99999e-01,9.99240e-01,5.39013e-03,9.99995e-01
6.854797995e-01,5.97004e-03,9.99999e-01,9.99999e-01,9.99020e-01,5.97594e-03,9.99991e-01
6.889071985e-01,6.59604e-03,9.99999e-01,9.99999e-01,9.97618e-01,6.61192e-03,9.99978e-01
6.923517345e-01,7.02217e-03,9.99999e-01,9.99999e-01,9.61988e-01,7.30098e-03,9.99814e-01
6.958134932e-01,7.88368e-03,9.99999e-01,9.99999e-01,9.80216e-01,8.04609e-03,9.99589e-01
6.992925606e-01,8.67904e-03,9.99999e-01,9.99999e-01,9.81018e-01,8.85024e-03,9.99629e-01
7.027890234e-01,9.48714e-03,9.99999e-01,9.99999e-01,9.76674e-01,9.71645e-03,9.99717e-01
7.063029686e-01,1.04369e-02,9.99999e-01,9.99999e-01,9.80333e-01,1.06478e-02,9.99859e-01
7.098344834e-01,1.14265e-02,9.99999e-01,9.99999e-01,9.81118e-01,1.16473e-02,9.99916e-01
7.133836558e-01,1.23964e-02,9.99999e-01,9.99999e-01,9.74867e-01,1.27181e-02,9.99834e-01
7.169505741e-01,1.13232e-02,9.99999e-01,9.99999e-01,8.17844e-01,1.38632e-02,9.98700e-01
7.205353270e-01,1.36415e-02,9.99999e-01,9.99999e-01,9.06340e-01,1.50858e-02,9.97708e-01
7.241380036e-01,1.44215e-02,9.99999e-01,9.99999e-01,8.81707e-01,1.63887e-02,9.98020e-01
7.277586936e-01,1.58420e-02,9.99999e-01,9.99999e-01,8.92691e-01,1.77751e-02,9.98381e-01
7.313974871e-01,1.70418e-02,9.99999e-01,9.99999e-01,8.86056e-01,1.92479e-02,9.99241e-01
7.350544745e-01,1.94702e-02,9.99999e-01,9.99999e-01,9.35867e-01,2.08099e-02,9.99736e-01
7.387297469e-01,2.13902e-02,9.99999e-01,9.99999e-01,9.52307e-01,2.24641e-02,9.99878e-01
7.424233956e-01,2.36405e-02,9.99999e-01,9.99999e-01,9.76370e-01,2.42132e-02,9.99976e-01
7.461355126e-01,2.56845e-02,9.99999e-01,9.99999e-01,9.85603e-01,2.60598e-02,9.99995e-01
7.498661902e-01,2.78182e-02,9.99999e-01,9.99999e-01,9.93278e-01,2.80065e-02,9.99998e-01
7.536155211e-01,2.99565e-02,9.99999e-01,9.99999e-01,9.96694e-01,3.00559e-02,9.99998e-01
7.573835987e-01,3.21554e-02,9.99999e-01,9.99999e-01,9.98297e-01,3.22102e-02,9.99999e-01
7.611705167e-01,3.44354e-02,9.99999e-01,9.99999e-01,9.98941e-01,3.44719e-02,9.99999e-01
7.649763693e-01,3.68184e-02,9.99999e-01,9.99999e-01,9.99336e-01,3.68429e-02,9.99999e-01
7.688012511e-01,3.93071e-02,9.99999e-01,9.99999e-01,9.99537e-01,3.93253e-02,9.99999e-01
7.726452574e-01,4.19049e-02,9.99999e-01,9.99999e-01,9.99619e-01,4.19209e-02,9.99999e-01
7.765084837e-01,4.46072e-02,9.99999e-01,9.99999e-01,9.99457e-01,4.46314e-02,9.99998e-01
7.803910261e-01,4.22138e-02,9.99999e-01,8.91374e-01,9.97657e-01,4.74585e-02,9.99997e-01
7.842929812e-01,2.79183e-02,9.99999e-01,5.57782e-01,9.91845e-01,5.04034e-02,9.99984e-01
7.882144461e-01,2.85184e-02,9.99999e-01,5.41362e-01,9.83314e-01,5.34674e-02,9.99884e-01
7.921555184e-01,3.81987e-02,9.99999e-01,6.80118e-01,9.90836e-01,5.66517e-02,9.99799e-01
7.961162960e-01,4.54186e-02,9.99999e-01,7.69697e-01,9.83800e-01,5.99570e-02,9.99809e-01
8.000968774e-01,5.39511e-02,9.99999e-01,8.67361e-01,9.81326e-01,6.33841e-02,9.99796e-01
8.040973618e-01,6.10098e-02,9.99999e-01,9.28852e-01,9.81319e-01,6.69336e-02,9.99844e-01
8.081178486e-01,6.54136e-02,9.99999e-01,9.66584e-01,9.58405e-01,7.06059e-02,9.99842e-01
8.121584379e-01,6.17635e-02,9.99999e-01,9.89596e-01,8.39019e-01,7.44010e-02,9.99406e-01
8.162192301e-01,6.33944e-02,9.99999e-01,9.97692e-01,8.12983e-01,7.83192e-02,9.97770e-01
8.203003262e-01,7.42219e-02,9.99999e-01,9.99966e-01,9.03564e-01,8.23601e-02,9.97389e-01
8.244018279e-01,7.51402e-02,9.99999e-01,9.99999e-01,8.70244e-01,8.65235e-02,9.97921e-01
8.285238370e-01,8.00384e-02,9.99999e-01,9.99999e-01,8.82834e-01,9.08089e-02,9.98367e-01
8.326664562e-01,8.39267e-02,9.99999e-01,9.99999e-01,8.82034e-01,9.52156e-02,9.99324e-01
8.368297885e-01,9.11270e-02,9.99999e-01,9.99999e-01,9.13761e-01,9.97427e-02,9.99845e-01
8.410139374e-01,9.89266e-02,9.99999e-01,9.99999e-01,9.47755e-01,1.04389e-01,9.99909e-01
8.452190071e-01,1.06312e-01,9.99999e-01,9.99999e-01,9.74014e-01,1.09154e-01,9.99945e-01
8.494451021e-01,1.12299e-01,9.99999e-01,9.99999e-01,9.84815e-01,1.14036e-01,9.99956e-01
8.536923276e-01,1.17959e-01,9.99999e-01,9.99999e-01,9.91004e-01,1.19033e-01,9.99973e-01
8.579607893e-01,1.23453e-01,9.99999e-01,9.99999e-01,9.94445e-01,1.24144e-01,9.99993e-01
8.622505932e-01,1.28910e-01,9.99999e-01,9.99999e-01,9.96470e-01,1.29366e-01,9.99998e-01
8.665618462e-01,1.14336e-01,9.99999e-01,8.50546e-01,9.97813e-01,1.34699e-01,9.99998e-01
8.708946554e-01,3.37675e-02,9.99999e-01,2.41497e-01,9.97494e-01,1.40140e-01,9.99998e-01
8.752491287e-01,4.36944e-02,9.99999e-01,3.00844e-01,9.96650e-01,1.45687e-01,9.99995e-01
8.796253743e-01,7.63813e-02,9.99999e-01,5.06832e-01,9.95358e-01,1.51337e-01,9.99989e-01
8.840235012e-01,1.08854e-01,9.99999e-01,6.96449e-01,9.94702e-01,1.57088e-01,9.99967e-01
8.884436187e-01,1.38486e-01,9.99999e-01,8.66007e-01,9.80791e-01,1.62937e-01,9.99907e-01
8.928858368e-01,1.30490e-01,9.99999e-01,9.43132e-01,8.17980e-01,1.68883e-01,9.99469e-01
8.973502660e-01,1.21076e-01,9.99999e-01,9.85905e-01,7.03189e-01,1.74921e-01,9.97288e-01
9.018370173e-01,1.50492e-01,9.99999e-01,9.98438e-01,8.35925e-01,1.81050e-01,9.95739e-01
9.063462024e-01,1.53649e-01,9.99999e-01,9.61242e-01,8.52655e-01,1.87266e-01,9.96256e-01
9.108779334e-01,1.37818e-01,9.99999e-01,9.11931e-01,7.80493e-01,1.93566e-01,9.96110e-01
9.154323231e-01,1.47282e-01,9.99999e-01,9.78649e-01,7.53774e-01,1.99948e-01,9.96783e-01
9.200094847e-01,1.31882e-01,9.99999e-01,7.70600e-01,8.02336e-01,2.06407e-01,9.98198e-01
9.246095321e-01,9.97185e-02,9.99999e-01,6.39297e-01,7.17618e-01,2.12942e-01,9.97924e-01
9.292325798e-01,2.23366e-02,9.99999e-01,7.09700e-01,1.32855e-01,2.19548e-01,9.91931e-01
9.338787427e-01,1.21531e-02,9.99999e-01,7.14570e-01,7.19889e-02,2.26222e-01,9.67066e-01
9.385481364e-01,6.19892e-02,9.99999e-01,7.78912e-01,3.41632e-01,2.32962e-01,9.60953e-01
9.432408771e-01,4.86313e-02,9.99999e-01,8.57215e-01,2.39268e-01,2.39763e-01,9.66222e-01
9.479570815e-01,3.04171e-02,9.99999e-01,9.23825e-01,1.35686e-01,2.46623e-01,9.72421e-01
9.526968669e-01,5.11571e-02,9.99999e-01,9.62596e-01,2.11468e-01,2.53538e-01,9.83087e-01
9.574603512e-01,5.76507e-02,9.99999e-01,9.83812e-01,2.26127e-01,2.60504e-01,9.91372e-01
9.622476530e-01,7.70130e-02,9.99999e-01,9.94923e-01,2.90787e-01,2.67518e-01,9.94026e-01
9.670588912e-01,1.32702e-01,9.99999e-01,9.98477e-01,4.85884e-01,2.74577e-01,9.95910e-01
9.718941857e-01,1.75893e-01,9.99999e-01,9.99893e-01,6.26385e-01,2.81677e-01,9.96988e-01
9.767536566e-01,1.95246e-01,9.99999e-01,9.99999e-01,6.77582e-01,2.88816e-01,9.97697e-01
9.816374249e-01,2.21253e-01,9.99999e-01,9.99999e-01,7.48101e-01,2.95989e-01,9.99202e-01
9.865456120e-01,2.52681e-01,9.99999e-01,9.99999e-01,8.33538e-01,3.03193e-01,9.99833e-01
9.914783401e-01,2.77266e-01,9.99999e-01,9.99999e-01,8.93223e-01,3.10424e-01,9.99953e-01
9.964357318e-01,2.98722e-01,9.99999e-01,9.99999e-01,9.40347e-01,3.17681e-01,9.99972e-01
1.001417910e+00,3.13178e-01,9.99999e-01,9.99999e-01,9.63785e-01,3.24958e-01,9.99958e-01
1.006425000e+00,3.25315e-01,9.99999e-01,9.99999e-01,9.79170e-01,3.32254e-01,9.99940e-01
1.011457125e+00,3.35144e-01,9.99999e-01,9.99999e-01,9.87034e-01,3.39565e-01,9.99945e-01
1.016514411e+00,3.43813e-01,9.99999e-01,9.99999e-01,9.91174e-01,3.46887e-01,9.99961e-01
1.021596983e+00,3.51633e-01,9.99999e-01,9.99774e-01,9.92960e-01,3.54218e-01,9.99961e-01
1.026704968e+00,3.53955e-01,9.99999e-01,9.84384e-01,9.94504e-01,3.61554e-01,9.99975e-01
1.031838492e+00,3.24913e-01,9.99999e-01,8.84088e-01,9.96006e-01,3.68893e-01,9.99992e-01
1.036997685e+00,1.34135e-02,9.99999e-01,3.57159e-02,9.97624e-01,3.76232e-01,9.99998e-01
1.042182673e+00,3.42078e-04,9.99999e-01,8.93689e-04,9.97164e-01,3.83567e-01,9.99999e-01
1.047393587e+00,9.95851e-04,9.99999e-01,2.55543e-03,9.96243e-01,3.90896e-01,9.99998e-01
1.052630555e+00,1.07648e-08,9.99999e-01,2.71188e-08,9.94846e-01,3.98216e-01,9.99998e-01
1.057893707e+00,4.06042e-08,9.99999e-01,1.00548e-07,9.91406e-01,4.05525e-01,9.99996e-01
1.063183176e+00,3.18317e-06,9.99999e-01,7.77061e-06,9.85906e-01,4.12820e-01,9.99992e-01
1.068499092e+00,4.97206e-05,9.99999e-01,1.20040e-04,9.76528e-01,4.20097e-01,9.99983e-01
1.073841587e+00,1.17353e-03,9.99999e-01,2.79806e-03,9.72606e-01,4.27356e-01,9.99964e-01
1.079210795e+00,1.08146e-02,9.99999e-01,2.55558e-02,9.65038e-01,4.34593e-01,9.99904e-01
1.084606849e+00,5.13434e-02,9.99999e-01,1.21676e-01,9.47583e-01,4.41806e-01,9.99771e-01
1.090029883e+00,1.38316e-01,9.99999e-01,3.30343e-01,9.25626e-01,4.48992e-01,9.99526e-01
1.095480033e+00,2.15253e-01,9.99999e-01,5.77600e-01,8.10462e-01,4.56150e-01,9.99144e-01
1.100957433e+00,2.11650e-01,9.99999e-01,7.65998e-01,5.90838e-01,4.63278e-01,9.98426e-01
1.106462220e+00,1.19088e-01,9.99999e-01,8.95413e-01,2.79804e-01,4.70373e-01,9.97331e-01
1.111994531e+00,3.42495e-02,9.99999e-01,9.59803e-01,7.46160e-02,4.77433e-01,9.92932e-01
1.117554504e+00,8.42032e-03,9.99999e-01,9.90053e-01,1.79260e-02,4.84456e-01,9.74720e-01
1.123142276e+00,3.04166e-02,9.99999e-01,9.99345e-01,6.57707e-02,4.91441e-01,9.41088e-01
1.128757988e+00,6.71767e-02,9.99999e-01,9.99999e-01,1.44597e-01,4.98386e-01,9.32168e-01
1.134401778e+00,3.10223e-02,9.99999e-01,9.99999e-01,6.51738e-02,5.05288e-01,9.42022e-01
1.140073787e+00,1.44472e-01,9.99999e-01,9.99999e-01,2.95879e-01,5.12148e-01,9.53399e-01
1.145774156e+00,4.82981e-02,9.99999e-01,9.99999e-01,9.72221e-02,5.18962e-01,9.57258e-01
1.151503026e+00,3.87182e-02,9.99999e-01,9.99999e-01,7.54606e-02,5.25729e-01,9.75959e-01
1.157260541e+00,5.06604e-02,9.99999e-01,9.99999e-01,9.58408e-02,5.32449e-01,9.92750e-01
1.163046844e+00,9.34127e-02,9.99999e-01,9.99999e-01,1.73627e-01,5.39119e-01,9.97939e-01
1.168862078e+00,1.54471e-01,9.99999e-01,9.99999e-01,2.83350e-01,5.45738e-01,9.98937e-01
1.174706389e+00,2.52275e-01,9.99999e-01,9.99999e-01,4.57410e-01,5.52306e-01,9.98592e-01
1.180579921e+00,3.45055e-01,9.99999e-01,9.99999e-01,6.18785e-01,5.58820e-01,9.97872e-01
1.186482820e+00,4.28854e-01,9.99999e-01,9.99968e-01,7.60334e-01,5.65281e-01,9.97816e-01
1.192415234e+00,4.61862e-01,9.99999e-01,9.47887e-01,8.51666e-01,5.71686e-01,9.98364e-01
1.198377311e+00,2.56270e-01,9.99999e-01,4.96824e-01,8.73440e-01,5.78035e-01,9.98454e-01
1.204369197e+00,6.55423e-40,9.99999e-01,1.20965e-39,8.80315e-01,5.84327e-01,9.98601e-01
1.210391043e+00,6.05232e-164,9.99999e-01,1.09804e-163,8.84959e-01,5.90562e-01,9.99149e-01
1.216442998e+00,9.23379e-142,9.99999e-01,1.65144e-141,9.01328e-01,5.96738e-01,9.99478e-01
1.222525213e+00,1.29872e-139,9.99999e-01,2.24703e-139,9.22112e-01,6.02854e-01,9.99675e-01
1.228637839e+00,1.54413e-107,9.99999e-01,2.63419e-107,9.45208e-01,6.08911e-01,9.99849e-01
