#,Wave/freq,Total,N2,CO2,H2O,Rayleigh,CIA
4.000000000e-01,5.77621e-09,9.99999e-01,9.99999e-01,9.99962e-01,5.77642e-09,9.99999e-01
4.020000000e-01,8.40520e-09,9.99999e-01,9.99999e-01,9.99976e-01,8.40539e-09,9.99999e-01
4.040100000e-01,1.21357e-08,9.99999e-01,9.99999e-01,9.99989e-01,1.21358e-08,9.99999e-01
4.060300500e-01,1.73951e-08,9.99999e-01,9.99999e-01,9.99997e-01,1.73951e-08,9.99999e-01
4.080602003e-01,2.47570e-08,9.99999e-01,9.99999e-01,9.99998e-01,2.47570e-08,9.99999e-01
4.101005013e-01,3.49898e-08,9.99999e-01,9.99999e-01,9.99999e-01,3.49898e-08,9.99999e-01
4.121510038e-01,4.91152e-08,9.99999e-01,9.99999e-01,9.99998e-01,4.91153e-08,9.99999e-01
4.142117588e-01,6.84824e-08,9.99999e-01,9.99999e-01,9.99989e-01,6.84831e-08,9.99999e-01
4.162828176e-01,9.48590e-08,9.99999e-01,9.99999e-01,9.99954e-01,9.48633e-08,9.99999e-01
4.183642317e-01,1.30559e-07,9.99999e-01,9.99999e-01,9.99972e-01,1.30562e-07,9.99999e-01
4.204560528e-01,1.78563e-07,9.99999e-01,9.99999e-01,9.99982e-01,1.78566e-07,9.99999e-01
4.225583331e-01,2.42711e-07,9.99999e-01,9.99999e-01,9.99993e-01,2.42712e-07,9.99999e-01
4.246711247e-01,3.27907e-07,9.99999e-01,9.99999e-01,9.99994e-01,3.27908e-07,9.99999e-01
4.267944804e-01,4.40382e-07,9.99999e-01,9.99999e-01,9.99992e-01,4.40385e-07,9.99999e-01
4.289284528e-01,5.88003e-07,9.99999e-01,9.99999e-01,9.99993e-01,5.88007e-07,9.99999e-01
4.310730950e-01,7.80641e-07,9.99999e-01,9.99999e-01,9.99997e-01,7.80643e-07,9.99999e-01
4.332284605e-01,1.03060e-06,9.99999e-01,9.99999e-01,9.99998e-01,1.03060e-06,9.99999e-01
4.353946028e-01,1.35316e-06,9.99999e-01,9.99999e-01,9.99999e-01,1.35316e-06,9.99999e-01
4.375715758e-01,1.76712e-06,9.99999e-01,9.99999e-01,9.99995e-01,1.76713e-06,9.99999e-01
4.397594337e-01,2.29552e-06,9.99999e-01,9.99999e-01,9.99960e-01,2.29561e-06,9.99999e-01
4.419582309e-01,2.96619e-06,9.99999e-01,9.99999e-01,9.99801e-01,2.96678e-06,9.99999e-01
4.441680220e-01,3.81419e-06,9.99999e-01,9.99999e-01,9.99841e-01,3.81480e-06,9.99999e-01
4.463888621e-01,4.88011e-06,9.99999e-01,9.99999e-01,9.99835e-01,4.88091e-06,9.99999e-01
4.486208064e-01,6.21400e-06,9.99999e-01,9.99999e-01,9.99897e-01,6.21464e-06,9.99999e-01
4.508639105e-01,7.87477e-06,9.99999e-01,9.99999e-01,9.99951e-01,7.87515e-06,9.99999e-01
4.531182300e-01,9.93258e-06,9.99999e-01,9.99999e-01,9.99980e-01,9.93277e-06,9.99999e-01
4.553838212e-01,1.24705e-05,9.99999e-01,9.99999e-01,9.99986e-01,1.24707e-05,9.99999e-01
4.576607403e-01,1.55868e-05,9.99999e-01,9.99999e-01,9.99993e-01,1.55869e-05,9.99999e-01
4.599490440e-01,1.93960e-05,9.99999e-01,9.99999e-01,9.99995e-01,1.93961e-05,9.99999e-01
4.622487892e-01,2.40322e-05,9.99999e-01,9.99999e-01,9.99998e-01,2.40322e-05,9.99999e-01
4.645600332e-01,2.96505e-05,9.99999e-01,9.99999e-01,9.99996e-01,2.96506e-05,9.99999e-01
4.668828333e-01,3.64294e-05,9.99999e-01,9.99999e-01,9.99951e-01,3.64311e-05,9.99999e-01
4.692172475e-01,4.45759e-05,9.99999e-01,9.99999e-01,9.99896e-01,4.45804e-05,9.99999e-01
4.715633337e-01,5.43320e-05,9.99999e-01,9.99999e-01,9.99932e-01,5.43356e-05,9.99999e-01
4.739211504e-01,6.59628e-05,9.99999e-01,9.99999e-01,9.99935e-01,6.59671e-05,9.99999e-01
4.762907561e-01,7.97795e-05,9.99999e-01,9.99999e-01,9.99966e-01,7.97822e-05,9.99999e-01
4.786722099e-01,9.61274e-05,9.99999e-01,9.99999e-01,9.99985e-01,9.61288e-05,9.99999e-01
4.810655710e-01,1.15399e-04,9.99999e-01,9.99999e-01,9.99995e-01,1.15399e-04,9.99999e-01
4.834708988e-01,1.38028e-04,9.99999e-01,9.99999e-01,9.99961e-01,1.38033e-04,9.99999e-01
4.858882533e-01,1.64512e-04,9.99999e-01,9.99999e-01,9.99926e-01,1.64524e-04,9.99999e-01
4.883176946e-01,1.95407e-04,9.99999e-01,9.99999e-01,9.99938e-01,1.95419e-04,9.99999e-01
4.907592831e-01,2.31316e-04,9.99999e-01,9.99999e-01,9.99944e-01,2.31329e-04,9.99999e-01
4.932130795e-01,2.72915e-04,9.99999e-01,9.99999e-01,9.99960e-01,2.72926e-04,9.99999e-01
4.956791449e-01,3.20947e-04,9.99999e-01,9.99999e-01,9.99978e-01,3.20953e-04,9.99999e-01
4.981575406e-01,3.76187e-04,9.99999e-01,9.99999e-01,9.99896e-01,3.76226e-04,9.99999e-01
5.006483283e-01,4.39517e-04,9.99999e-01,9.99999e-01,9.99734e-01,4.39634e-04,9.99997e-01
5.031515699e-01,5.11452e-04,9.99999e-01,9.99999e-01,9.98646e-01,5.12152e-04,9.99985e-01
5.056673278e-01,5.94399e-04,9.99999e-01,9.99999e-01,9.99282e-01,5.94835e-04,9.99983e-01
5.081956644e-01,6.88197e-04,9.99999e-01,9.99999e-01,9.99094e-01,6.88827e-04,9.99988e-01
5.107366428e-01,7.94875e-04,9.99999e-01,9.99999e-01,9.99388e-01,7.95363e-04,9.99997e-01
5.132903260e-01,9.15450e-04,9.99999e-01,9.99999e-01,9.99649e-01,9.15771e-04,9.99999e-01
5.158567776e-01,1.05132e-03,9.99999e-01,9.99999e-01,9.99851e-01,1.05148e-03,9.99999e-01
5.184360615e-01,1.20393e-03,9.99999e-01,9.99999e-01,9.99940e-01,1.20400e-03,9.99999e-01
5.210282418e-01,1.37493e-03,9.99999e-01,9.99999e-01,9.99977e-01,1.37496e-03,9.99999e-01
5.236333830e-01,1.56595e-03,9.99999e-01,9.99999e-01,9.99911e-01,1.56609e-03,9.99998e-01
5.262515499e-01,1.77910e-03,9.99999e-01,9.99999e-01,9.99944e-01,1.77920e-03,9.99998e-01
5.288828077e-01,2.01613e-03,9.99999e-01,9.99999e-01,9.99949e-01,2.01623e-03,9.99998e-01
5.315272217e-01,2.27910e-03,9.99999e-01,9.99999e-01,9.99954e-01,2.27920e-03,9.99999e-01
5.341848578e-01,2.57016e-03,9.99999e-01,9.99999e-01,9.99970e-01,2.57024e-03,9.99999e-01
5.368557821e-01,2.89127e-03,9.99999e-01,9.99999e-01,9.99897e-01,2.89156e-03,9.99999e-01
5.395400610e-01,3.24430e-03,9.99999e-01,9.99999e-01,9.99632e-01,3.24550e-03,9.99996e-01
5.422377613e-01,3.63268e-03,9.99999e-01,9.99999e-01,9.99517e-01,3.63446e-03,9.99990e-01
5.449489501e-01,4.05910e-03,9.99999e-01,9.99999e-01,9.99555e-01,4.06095e-03,9.99990e-01
5.476736949e-01,4.52573e-03,9.99999e-01,9.99999e-01,9.99602e-01,4.52754e-03,9.99995e-01
5.504120634e-01,5.03546e-03,9.99999e-01,9.99999e-01,9.99711e-01,5.03692e-03,9.99998e-01
5.531641237e-01,5.59101e-03,9.99999e-01,9.99999e-01,9.99854e-01,5.59182e-03,9.99999e-01
5.559299443e-01,6.19461e-03,9.99999e-01,9.99999e-01,9.99929e-01,6.19505e-03,9.99999e-01
5.587095940e-01,6.84917e-03,9.99999e-01,9.99999e-01,9.99955e-01,6.84947e-03,9.99999e-01
5.615031420e-01,7.55766e-03,9.99999e-01,9.99999e-01,9.99950e-01,7.55802e-03,9.99999e-01
5.643106577e-01,8.32322e-03,9.99999e-01,9.99999e-01,9.99945e-01,8.32367e-03,9.99999e-01
5.671322110e-01,9.14336e-03,9.99999e-01,9.99999e-01,9.99341e-01,9.14943e-03,9.99994e-01
5.699678720e-01,1.00309e-02,9.99999e-01,9.99999e-01,9.99279e-01,1.00383e-02,9.99981e-01
5.728177114e-01,1.09851e-02,9.99999e-01,9.99999e-01,9.99258e-01,1.09934e-02,9.99984e-01
5.756818000e-01,1.20095e-02,9.99999e-01,9.99999e-01,9.99317e-01,1.20178e-02,9.99990e-01
5.785602090e-01,1.31067e-02,9.99999e-01,9.99999e-01,9.99404e-01,1.31146e-02,9.99996e-01
5.814530100e-01,1.42782e-02,9.99999e-01,9.99999e-01,9.99402e-01,1.42867e-02,9.99998e-01
5.843602750e-01,1.55264e-02,9.99999e-01,9.99999e-01,9.99294e-01,1.55374e-02,9.99995e-01
5.872820764e-01,1.67663e-02,9.99999e-01,9.99999e-01,9.93922e-01,1.68695e-02,9.99956e-01
5.902184868e-01,1.81481e-02,9.99999e-01,9.99999e-01,9.92570e-01,1.82861e-02,9.99882e-01
5.931695792e-01,1.96843e-02,9.99999e-01,9.99999e-01,9.94763e-01,1.97901e-02,9.99885e-01
5.961354271e-01,2.12600e-02,9.99999e-01,9.99999e-01,9.94247e-01,2.13845e-02,9.99930e-01
5.991161043e-01,2.29745e-02,9.99999e-01,9.99999e-01,9.95797e-01,2.30719e-02,9.99979e-01
6.021116848e-01,2.47957e-02,9.99999e-01,9.99999e-01,9.97610e-01,2.48551e-02,9.99997e-01
6.051222432e-01,2.67045e-02,9.99999e-01,9.99999e-01,9.98789e-01,2.67369e-02,9.99999e-01
6.081478544e-01,2.87047e-02,9.99999e-01,9.99999e-01,9.99478e-01,2.87197e-02,9.99999e-01
6.111885937e-01,3.07991e-02,9.99999e-01,9.99999e-01,9.99778e-01,3.08059e-02,9.99999e-01
6.142445367e-01,3.29947e-02,9.99999e-01,9.99999e-01,9.99900e-01,3.29980e-02,9.99999e-01
6.173157594e-01,3.52961e-02,9.99999e-01,9.99999e-01,9.99945e-01,3.52981e-02,9.99999e-01
6.204023382e-01,3.77065e-02,9.99999e-01,9.99999e-01,9.99953e-01,3.77082e-02,9.99999e-01
6.235043498e-01,4.02225e-02,9.99999e-01,9.99999e-01,9.99801e-01,4.02305e-02,9.99999e-01
6.266218716e-01,4.28205e-02,9.99999e-01,9.99999e-01,9.98931e-01,4.28666e-02,9.99992e-01
6.297549810e-01,4.55996e-02,9.99999e-01,9.99999e-01,9.99607e-01,4.56181e-02,9.99984e-01
6.329037559e-01,4.84485e-02,9.99999e-01,9.99999e-01,9.99223e-01,4.84867e-02,9.99987e-01
6.360682746e-01,5.14394e-02,9.99999e-01,9.99999e-01,9.99341e-01,5.14737e-02,9.99992e-01
6.392486160e-01,5.45333e-02,9.99999e-01,9.99999e-01,9.99144e-01,5.45801e-02,9.99996e-01
6.424448591e-01,5.77476e-02,9.99999e-01,9.99999e-01,9.98974e-01,5.78071e-02,9.99994e-01
6.456570834e-01,6.08342e-02,9.99999e-01,9.99999e-01,9.94775e-01,6.11555e-02,9.99970e-01
6.488853688e-01,6.43251e-02,9.99999e-01,9.99999e-01,9.95427e-01,6.46258e-02,9.99917e-01
6.521297956e-01,6.79432e-02,9.99999e-01,9.99999e-01,9.96029e-01,6.82187e-02,9.99930e-01
6.553904446e-01,7.16488e-02,9.99999e-01,9.99999e-01,9.96079e-01,7.19344e-02,9.99947e-01
6.586673968e-01,7.55150e-02,9.99999e-01,9.99999e-01,9.96610e-01,7.57731e-02,9.99982e-01
6.619607338e-01,7.95782e-02,9.99999e-01,9.99999e-01,9.98040e-01,7.97347e-02,9.99995e-01
6.652705375e-01,8.37235e-02,9.99999e-01,9.99999e-01,9.98861e-01,8.38190e-02,9.99997e-01
6.685968902e-01,8.79792e-02,9.99999e-01,9.99999e-01,9.99471e-01,8.80257e-02,9.99999e-01
6.719398746e-01,9.23314e-02,9.99999e-01,9.99999e-01,9.99754e-01,9.23540e-02,9.99999e-01
6.752995740e-01,9.67906e-02,9.99999e-01,9.99999e-01,9.99867e-01,9.68034e-02,9.99999e-01
6.786760719e-01,1.01354e-01,9.99999e-01,9.99999e-01,9.99810e-01,1.01373e-01,9.99999e-01
6.820694522e-01,1.06027e-01,9.99999e-01,9.99999e-01,9.99674e-01,1.06061e-01,9.99997e-01
6.854797995e-01,1.10821e-01,9.99999e-01,9.99999e-01,9.99580e-01,1.10868e-01,9.99995e-01
6.889071985e-01,1.15674e-01,9.99999e-01,9.99999e-01,9.98999e-01,1.15790e-01,9.99990e-01
6.923517345e-01,1.18836e-01,9.99999e-01,9.99999e-01,9.83590e-01,1.20828e-01,9.99919e-01
6.958134932e-01,1.24856e-01,9.99999e-01,9.99999e-01,9.91267e-01,1.25979e-01,9.99819e-01
6.992925606e-01,1.30152e-01,9.99999e-01,9.99999e-01,9.91858e-01,1.31241e-01,9.99841e-01
7.027890234e-01,1.35213e-01,9.99999e-01,9.99999e-01,9.89876e-01,1.36612e-01,9.99878e-01
7.063029686e-01,1.40873e-01,9.99999e-01,9.99999e-01,9.91490e-01,1.42090e-01,9.99939e-01
7.098344834e-01,1.46463e-01,9.99999e-01,9.99999e-01,9.91833e-01,1.47674e-01,9.99963e-01
7.133836558e-01,1.51704e-01,9.99999e-01,9.99999e-01,9.89272e-01,1.53360e-01,9.99928e-01
7.169505741e-01,1.45787e-01,9.99999e-01,9.99999e-01,9.16566e-01,1.59146e-01,9.99441e-01
7.205353270e-01,1.57858e-01,9.99999e-01,9.99999e-01,9.57483e-01,1.65030e-01,9.99014e-01
7.241380036e-01,1.61817e-01,9.99999e-01,9.99999e-01,9.47063e-01,1.71008e-01,9.99142e-01
7.277586936e-01,1.68471e-01,9.99999e-01,9.99999e-01,9.52066e-01,1.77079e-01,9.99287e-01
7.313974871e-01,1.73791e-01,9.99999e-01,9.99999e-01,9.48747e-01,1.83239e-01,9.99673e-01
7.350544745e-01,1.84105e-01,9.99999e-01,9.99999e-01,9.71717e-01,1.89485e-01,9.99886e-01
7.387297469e-01,1.91710e-01,9.99999e-01,9.99999e-01,9.79089e-01,1.95815e-01,9.99947e-01
7.424233956e-01,2.00137e-01,9.99999e-01,9.99999e-01,9.89690e-01,2.02224e-01,9.99989e-01
7.461355126e-01,2.07406e-01,9.99999e-01,9.99999e-01,9.93751e-01,2.08710e-01,9.99997e-01
7.498661902e-01,2.14642e-01,9.99999e-01,9.99999e-01,9.97078e-01,2.15271e-01,9.99998e-01
7.536155211e-01,2.21584e-01,9.99999e-01,9.99999e-01,9.98570e-01,2.21901e-01,9.99999e-01
7.573835987e-01,2.28431e-01,9.99999e-01,9.99999e-01,9.99263e-01,2.28599e-01,9.99999e-01
7.611705167e-01,2.35254e-01,9.99999e-01,9.99999e-01,9.99542e-01,2.35361e-01,9.99999e-01
7.649763693e-01,2.42114e-01,9.99999e-01,9.99999e-01,9.99713e-01,2.42184e-01,9.99999e-01
7.688012511e-01,2.49013e-01,9.99999e-01,9.99999e-01,9.99800e-01,2.49063e-01,9.99999e-01
7.726452574e-01,2.55954e-01,9.99999e-01,9.99999e-01,9.99835e-01,2.55996e-01,9.99999e-01
7.765084837e-01,2.62919e-01,9.99999e-01,9.99999e-01,9.99768e-01,2.62980e-01,9.99999e-01
7.803910261e-01,2.55234e-01,9.99999e-01,9.46170e-01,9.99003e-01,2.70010e-01,9.99998e-01
7.842929812e-01,2.11468e-01,9.99999e-01,7.65641e-01,9.96526e-01,2.77084e-01,9.99993e-01
7.882144461e-01,2.12782e-01,9.99999e-01,7.53820e-01,9.92793e-01,2.84199e-01,9.99955e-01
7.921555184e-01,2.45240e-01,9.99999e-01,8.45036e-01,9.96023e-01,2.91349e-01,9.99914e-01
7.961162960e-01,2.64522e-01,9.99999e-01,8.92234e-01,9.93056e-01,2.98534e-01,9.99917e-01
8.000968774e-01,2.85108e-01,9.99999e-01,9.40115e-01,9.91937e-01,3.05748e-01,9.99912e-01
8.040973618e-01,3.00636e-01,9.99999e-01,9.68370e-01,9.91946e-01,3.12989e-01,9.99930e-01
8.081178486e-01,3.09913e-01,9.99999e-01,9.85412e-01,9.82056e-01,3.20253e-01,9.99934e-01
8.121584379e-01,3.02260e-01,9.99999e-01,9.95434e-01,9.27217e-01,3.27538e-01,9.99744e-01
8.162192301e-01,3.05254e-01,9.99999e-01,9.98989e-01,9.13410e-01,3.34839e-01,9.99041e-01
8.203003262e-01,3.27019e-01,9.99999e-01,9.99982e-01,9.56850e-01,3.42154e-01,9.98877e-01
8.244018279e-01,3.27843e-01,9.99999e-01,9.99999e-01,9.38926e-01,3.49480e-01,9.99106e-01
8.285238370e-01,3.37901e-01,9.99999e-01,9.99999e-01,9.47661e-01,3.56813e-01,9.99298e-01
8.326664562e-01,3.44721e-01,9.99999e-01,9.99999e-01,9.46918e-01,3.64150e-01,9.99709e-01
8.368297885e-01,3.57233e-01,9.99999e-01,9.99999e-01,9.61685e-01,3.71490e-01,9.99933e-01
8.410139374e-01,3.70117e-01,9.99999e-01,9.99999e-01,9.77044e-01,3.78827e-01,9.99960e-01
8.452190071e-01,3.81775e-01,9.99999e-01,9.99999e-01,9.88666e-01,3.86161e-01,9.99976e-01
8.494451021e-01,3.90896e-01,9.99999e-01,9.99999e-01,9.93433e-01,3.93487e-01,9.99980e-01
8.536923276e-01,3.99235e-01,9.99999e-01,9.99999e-01,9.96099e-01,4.00803e-01,9.99987e-01
8.579607893e-01,4.07128e-01,9.99999e-01,9.99999e-01,9.97603e-01,4.08107e-01,9.99996e-01
8.622505932e-01,4.14762e-01,9.99999e-01,9.99999e-01,9.98473e-01,4.15396e-01,9.99999e-01
8.665618462e-01,3.80463e-01,9.99999e-01,9.00951e-01,9.99058e-01,4.22668e-01,9.99999e-01
8.708946554e-01,2.21081e-01,9.99999e-01,5.14760e-01,9.98925e-01,4.29919e-01,9.99998e-01
8.752491287e-01,2.53084e-01,9.99999e-01,5.79738e-01,9.98560e-01,4.37147e-01,9.99997e-01
8.796253743e-01,3.27369e-01,9.99999e-01,7.38130e-01,9.98013e-01,4.44351e-01,9.99995e-01
8.840235012e-01,3.84475e-01,9.99999e-01,8.53396e-01,9.97729e-01,4.51528e-01,9.99985e-01
8.884436187e-01,4.27263e-01,9.99999e-01,9.39039e-01,9.91889e-01,4.58675e-01,9.99960e-01
8.928858368e-01,4.16437e-01,9.99999e-01,9.74893e-01,9.16921e-01,4.65792e-01,9.99772e-01
8.973502660e-01,4.02207e-01,9.99999e-01,9.93804e-01,8.56669e-01,4.72874e-01,9.98833e-01
9.018370173e-01,4.42136e-01,9.99999e-01,9.99313e-01,9.23557e-01,4.79922e-01,9.98167e-01
9.063462024e-01,4.46548e-01,9.99999e-01,9.83218e-01,9.33347e-01,4.86932e-01,9.98389e-01
9.108779334e-01,4.25550e-01,9.99999e-01,9.60761e-01,8.97530e-01,4.93902e-01,9.98326e-01
9.154323231e-01,4.38156e-01,9.99999e-01,9.90559e-01,8.84099e-01,5.00833e-01,9.98616e-01
9.200094847e-01,4.08845e-01,9.99999e-01,8.80281e-01,9.07905e-01,5.07720e-01,9.99225e-01
9.246095321e-01,3.67340e-01,9.99999e-01,8.22636e-01,8.63828e-01,5.14563e-01,9.99107e-01
9.292325798e-01,1.73859e-01,9.99999e-01,8.60361e-01,3.79929e-01,5.21361e-01,9.96525e-01
9.338787427e-01,1.30839e-01,9.99999e-01,8.62900e-01,2.84633e-01,5.28112e-01,9.85716e-01
9.385481364e-01,2.86160e-01,9.99999e-01,8.97003e-01,6.00684e-01,5.34814e-01,9.83035e-01
9.432408771e-01,2.51978e-01,9.99999e-01,9.35279e-01,5.02085e-01,5.41466e-01,9.85347e-01
9.479570815e-01,2.04010e-01,9.99999e-01,9.66344e-01,3.88766e-01,5.48068e-01,9.88058e-01
9.526968669e-01,2.62722e-01,9.99999e-01,9.83606e-01,4.84060e-01,5.54616e-01,9.92699e-01
9.574603512e-01,2.81028e-01,9.99999e-01,9.92951e-01,5.05882e-01,5.61112e-01,9.96284e-01
9.622476530e-01,3.22576e-01,9.99999e-01,9.97793e-01,5.70958e-01,5.67553e-01,9.97429e-01
9.670588912e-01,4.14197e-01,9.99999e-01,9.99336e-01,7.23384e-01,5.73939e-01,9.98241e-01
9.718941857e-01,4.72498e-01,9.99999e-01,9.99951e-01,8.15366e-01,5.80268e-01,9.98704e-01
9.767536566e-01,4.94606e-01,9.99999e-01,9.99999e-01,8.44096e-01,5.86540e-01,9.99009e-01
9.816374249e-01,5.22339e-01,9.99999e-01,9.99999e-01,8.81509e-01,5.92753e-01,9.99656e-01
9.865456120e-01,5.53431e-01,9.99999e-01,9.99999e-01,9.24132e-01,5.98908e-01,9.99928e-01
9.914783401e-01,5.76194e-01,9.99999e-01,9.99999e-01,9.52399e-01,6.05004e-01,9.99979e-01
9.964357318e-01,5.95013e-01,9.99999e-01,9.99999e-01,9.73784e-01,6.11039e-01,9.99987e-01
1.001417910e+00,6.07254e-01,9.99999e-01,9.99999e-01,9.84200e-01,6.17013e-01,9.99981e-01
1.006425000e+00,6.17293e-01,9.99999e-01,9.99999e-01,9.90981e-01,6.22926e-01,9.99974e-01
1.011457125e+00,6.25229e-01,9.99999e-01,9.99999e-01,9.94378e-01,6.28778e-01,9.99976e-01
1.016514411e+00,6.32137e-01,9.99999e-01,9.99999e-01,9.96186e-01,6.34567e-01,9.99983e-01
1.021596983e+00,6.38286e-01,9.99999e-01,9.99917e-01,9.96962e-01,6.40293e-01,9.99982e-01
1.026704968e+00,6.40180e-01,9.99999e-01,9.93414e-01,9.97631e-01,6.45956e-01,9.99988e-01
1.031838492e+00,6.10147e-01,9.99999e-01,9.38004e-01,9.98274e-01,6.51557e-01,9.99996e-01
1.036997685e+00,5.94773e-02,9.99999e-01,9.05868e-02,9.98977e-01,6.57093e-01,9.99999e-01
1.042182673e+00,1.81995e-02,9.99999e-01,2.74958e-02,9.98784e-01,6.62566e-01,9.99999e-01
1.047393587e+00,3.19254e-02,9.99999e-01,4.78607e-02,9.98385e-01,6.67975e-01,9.99999e-01
1.052630555e+00,9.43311e-05,9.99999e-01,1.40309e-04,9.97788e-01,6.73321e-01,9.99998e-01
1.057893707e+00,3.08789e-04,9.99999e-01,4.56022e-04,9.96315e-01,6.78602e-01,9.99998e-01
1.063183176e+00,2.21515e-03,9.99999e-01,3.25202e-03,9.93936e-01,6.83819e-01,9.99996e-01
1.068499092e+00,1.09431e-02,9.99999e-01,1.60072e-02,9.89852e-01,6.88972e-01,9.99992e-01
1.073841587e+00,4.92328e-02,9.99999e-01,7.16044e-02,9.88158e-01,6.94060e-01,9.99984e-01
1.079210795e+00,1.30167e-01,9.99999e-01,1.88656e-01,9.84796e-01,6.99085e-01,9.99958e-01
1.084606849e+00,2.71493e-01,9.99999e-01,3.93974e-01,9.77116e-01,7.04046e-01,9.99901e-01
1.090029883e+00,4.22844e-01,9.99999e-01,6.15642e-01,9.67488e-01,7.08943e-01,9.99796e-01
1.095480033e+00,5.13887e-01,9.99999e-01,7.86855e-01,9.13732e-01,7.13776e-01,9.99632e-01
1.100957433e+00,5.10105e-01,9.99999e-01,8.90729e-01,7.95859e-01,7.18546e-01,9.99323e-01
1.106462220e+00,3.90224e-01,9.99999e-01,9.53195e-01,5.65063e-01,7.23252e-01,9.98852e-01
1.111994531e+00,2.17142e-01,9.99999e-01,9.82383e-01,3.03966e-01,7.27896e-01,9.96957e-01
1.117554504e+00,1.08016e-01,9.99999e-01,9.95651e-01,1.49562e-01,7.32476e-01,9.89060e-01
1.123142276e+00,1.85728e-01,9.99999e-01,9.99711e-01,2.58688e-01,7.36995e-01,9.74253e-01
1.128757988e+00,2.93777e-01,9.99999e-01,9.99999e-01,4.08357e-01,7.41451e-01,9.70276e-01
1.134401778e+00,1.40933e-01,9.99999e-01,9.99999e-01,1.93986e-01,7.45845e-01,9.74077e-01
1.140073787e+00,4.25514e-01,9.99999e-01,9.99999e-01,5.79281e-01,7.50177e-01,9.79174e-01
1.145774156e+00,2.43941e-01,9.99999e-01,9.99999e-01,3.29461e-01,7.54449e-01,9.81410e-01
1.151503026e+00,2.20527e-01,9.99999e-01,9.99999e-01,2.93734e-01,7.58659e-01,9.89600e-01
1.157260541e+00,2.63627e-01,9.99999e-01,9.99999e-01,3.46682e-01,7.62810e-01,9.96878e-01
1.163046844e+00,3.48087e-01,9.99999e-01,9.99999e-01,4.54290e-01,7.66900e-01,9.99114e-01
1.168862078e+00,4.42132e-01,9.99999e-01,9.99999e-01,5.73766e-01,7.70931e-01,9.99543e-01
1.174706389e+00,5.49544e-01,9.99999e-01,9.99999e-01,7.09607e-01,7.74903e-01,9.99394e-01
1.180579921e+00,6.31031e-01,9.99999e-01,9.99999e-01,8.10985e-01,7.78816e-01,9.99085e-01
1.186482820e+00,6.94502e-01,9.99999e-01,9.99990e-01,8.88188e-01,7.82671e-01,9.99061e-01
1.192415234e+00,7.16921e-01,9.99999e-01,9.77113e-01,9.33143e-01,7.86468e-01,9.99296e-01
1.198377311e+00,4.09791e-01,9.99999e-01,5.44770e-01,9.43457e-01,7.90209e-01,9.99335e-01
1.204369197e+00,1.99178e-18,9.99999e-01,2.59160e-18,9.46421e-01,7.93892e-01,9.99398e-01
1.210391043e+00,1.05446e-71,9.99999e-01,1.36193e-71,9.48657e-01,7.97520e-01,9.99634e-01
1.216442998e+00,3.55484e-62,9.99999e-01,4.56331e-62,9.56064e-01,8.01092e-01,9.99775e-01
1.222525213e+00,2.97874e-61,9.99999e-01,3.76974e-61,9.65638e-01,8.04609e-01,9.99860e-01
1.228637839e+00,2.17873e-47,9.99999e-01,2.74115e-47,9.76029e-01,8.08072e-01,9.99934e-01
