#,Wave/freq,Total,N2,CO2,H2O,Rayleigh,CIA
4.000000000e-01,5.33582e-16,9.99999e-01,9.99999e-01,9.99931e-01,5.33618e-16,9.99999e-01
4.020000000e-01,1.06956e-15,9.99999e-01,9.99999e-01,9.99957e-01,1.06960e-15,9.99999e-01
4.040100000e-01,2.11312e-15,9.99999e-01,9.99999e-01,9.99981e-01,2.11316e-15,9.99999e-01
4.060300500e-01,4.11907e-15,9.99999e-01,9.99999e-01,9.99995e-01,4.11908e-15,9.99999e-01
4.080602003e-01,7.92398e-15,9.99999e-01,9.99999e-01,9.99998e-01,7.92399e-15,9.99999e-01
4.101005013e-01,1.50479e-14,9.99999e-01,9.99999e-01,9.99999e-01,1.50479e-14,9.99999e-01
4.121510038e-01,2.82165e-14,9.99999e-01,9.99999e-01,9.99997e-01,2.82165e-14,9.99999e-01
4.142117588e-01,5.22555e-14,9.99999e-01,9.99999e-01,9.99981e-01,5.22565e-14,9.99999e-01
4.162828176e-01,9.55990e-14,9.99999e-01,9.99999e-01,9.99915e-01,9.56070e-14,9.99999e-01
4.183642317e-01,1.72837e-13,9.99999e-01,9.99999e-01,9.99949e-01,1.72845e-13,9.99999e-01
4.204560528e-01,3.08839e-13,9.99999e-01,9.99999e-01,9.99968e-01,3.08848e-13,9.99999e-01
4.225583331e-01,5.45568e-13,9.99999e-01,9.99999e-01,9.99988e-01,5.45574e-13,9.99999e-01
4.246711247e-01,9.52966e-13,9.99999e-01,9.99999e-01,9.99990e-01,9.52974e-13,9.99999e-01
4.267944804e-01,1.64634e-12,9.99999e-01,9.99999e-01,9.99986e-01,1.64636e-12,9.99999e-01
4.289284528e-01,2.81367e-12,9.99999e-01,9.99999e-01,9.99989e-01,2.81369e-12,9.99999e-01
4.310730950e-01,4.75807e-12,9.99999e-01,9.99999e-01,9.99995e-01,4.75809e-12,9.99999e-01
4.332284605e-01,7.96307e-12,9.99999e-01,9.99999e-01,9.99998e-01,7.96308e-12,9.99999e-01
4.353946028e-01,1.31920e-11,9.99999e-01,9.99999e-01,9.99999e-01,1.31920e-11,9.99999e-01
4.375715758e-01,2.16376e-11,9.99999e-01,9.99999e-01,9.99991e-01,2.16378e-11,9.99999e-01
4.397594337e-01,3.51429e-11,9.99999e-01,9.99999e-01,9.99926e-01,3.51454e-11,9.99999e-01
4.419582309e-01,5.65202e-11,9.99999e-01,9.99999e-01,9.99630e-01,5.65411e-11,9.99999e-01
4.441680220e-01,9.00851e-11,9.99999e-01,9.99999e-01,9.99706e-01,9.01115e-11,9.99999e-01
4.463888621e-01,1.42255e-10,9.99999e-01,9.99999e-01,9.99695e-01,1.42298e-10,9.99999e-01
4.486208064e-01,2.22646e-10,9.99999e-01,9.99999e-01,9.99810e-01,2.22688e-10,9.99999e-01
4.508639105e-01,3.45394e-10,9.99999e-01,9.99999e-01,9.99910e-01,3.45425e-10,9.99999e-01
4.531182300e-01,5.31165e-10,9.99999e-01,9.99999e-01,9.99964e-01,5.31184e-10,9.99999e-01
4.553838212e-01,8.09905e-10,9.99999e-01,9.99999e-01,9.99975e-01,8.09924e-10,9.99999e-01
4.576607403e-01,1.22467e-09,9.99999e-01,9.99999e-01,9.99988e-01,1.22469e-09,9.99999e-01
4.599490440e-01,1.83677e-09,9.99999e-01,9.99999e-01,9.99991e-01,1.83679e-09,9.99999e-01
4.622487892e-01,2.73284e-09,9.99999e-01,9.99999e-01,9.99998e-01,2.73284e-09,9.99999e-01
4.645600332e-01,4.03423e-09,9.99999e-01,9.99999e-01,9.99994e-01,4.03425e-09,9.99999e-01
4.668828333e-01,5.90924e-09,9.99999e-01,9.99999e-01,9.99910e-01,5.90976e-09,9.99999e-01
4.692172475e-01,8.59051e-09,9.99999e-01,9.99999e-01,9.99809e-01,8.59215e-09,9.99999e-01
4.715633337e-01,1.23985e-08,9.99999e-01,9.99999e-01,9.99875e-01,1.24000e-08,9.99999e-01
4.739211504e-01,1.77642e-08,9.99999e-01,9.99999e-01,9.99880e-01,1.77663e-08,9.99999e-01
4.762907561e-01,2.52732e-08,9.99999e-01,9.99999e-01,9.99937e-01,2.52748e-08,9.99999e-01
4.786722099e-01,3.57061e-08,9.99999e-01,9.99999e-01,9.99974e-01,3.57070e-08,9.99999e-01
4.810655710e-01,5.01016e-08,9.99999e-01,9.99999e-01,9.99991e-01,5.01020e-08,9.99999e-01
4.834708988e-01,6.98264e-08,9.99999e-01,9.99999e-01,9.99927e-01,6.98314e-08,9.99999e-01
4.858882533e-01,9.66807e-08,9.99999e-01,9.99999e-01,9.99864e-01,9.66938e-08,9.99999e-01
4.883176946e-01,1.33016e-07,9.99999e-01,9.99999e-01,9.99887e-01,1.33031e-07,9.99999e-01
4.907592831e-01,1.81856e-07,9.99999e-01,9.99999e-01,9.99897e-01,1.81875e-07,9.99999e-01
4.932130795e-01,2.47103e-07,9.99999e-01,9.99999e-01,9.99927e-01,2.47121e-07,9.99999e-01
4.956791449e-01,3.33733e-07,9.99999e-01,9.99999e-01,9.99961e-01,3.33746e-07,9.99999e-01
4.981575406e-01,4.47983e-07,9.99999e-01,9.99999e-01,9.99808e-01,4.48068e-07,9.99999e-01
5.006483283e-01,5.97766e-07,9.99999e-01,9.99999e-01,9.99507e-01,5.98062e-07,9.99996e-01
5.031515699e-01,7.91714e-07,9.99999e-01,9.99999e-01,9.97491e-01,7.93726e-07,9.99973e-01
5.056673278e-01,1.04611e-06,9.99999e-01,9.99999e-01,9.98671e-01,1.04753e-06,9.99969e-01
5.081956644e-01,1.37261e-06,9.99999e-01,9.99999e-01,9.98323e-01,1.37494e-06,9.99980e-01
5.107366428e-01,1.79297e-06,9.99999e-01,9.99999e-01,9.98867e-01,1.79501e-06,9.99995e-01
5.132903260e-01,2.32960e-06,9.99999e-01,9.99999e-01,9.99351e-01,2.33111e-06,9.99999e-01
5.158567776e-01,3.01092e-06,9.99999e-01,9.99999e-01,9.99725e-01,3.01174e-06,9.99999e-01
5.184360615e-01,3.87104e-06,9.99999e-01,9.99999e-01,9.99889e-01,3.87146e-06,9.99999e-01
5.210282418e-01,4.95177e-06,9.99999e-01,9.99999e-01,9.99958e-01,4.95197e-06,9.99999e-01
5.236333830e-01,6.30228e-06,9.99999e-01,9.99999e-01,9.99835e-01,6.30332e-06,9.99998e-01
5.262515499e-01,7.98446e-06,9.99999e-01,9.99999e-01,9.99896e-01,7.98529e-06,9.99997e-01
5.288828077e-01,1.00680e-05,9.99999e-01,9.99999e-01,9.99905e-01,1.00689e-05,9.99998e-01
5.315272217e-01,1.26372e-05,9.99999e-01,9.99999e-01,9.99916e-01,1.26382e-05,9.99999e-01
5.341848578e-01,1.57913e-05,9.99999e-01,9.99999e-01,9.99945e-01,1.57921e-05,9.99999e-01
5.368557821e-01,1.96427e-05,9.99999e-01,9.99999e-01,9.99809e-01,1.96464e-05,9.99999e-01
5.395400610e-01,2.43194e-05,9.99999e-01,9.99999e-01,9.99317e-01,2.43362e-05,9.99993e-01
5.422377613e-01,2.99910e-05,9.99999e-01,9.99999e-01,9.99107e-01,3.00182e-05,9.99983e-01
5.449489501e-01,3.68428e-05,9.99999e-01,9.99999e-01,9.99174e-01,3.68738e-05,9.99982e-01
5.476736949e-01,4.50779e-05,9.99999e-01,9.99999e-01,9.99264e-01,4.51114e-05,9.99991e-01
5.504120634e-01,5.49405e-05,9.99999e-01,9.99999e-01,9.99466e-01,5.49699e-05,9.99997e-01
5.531641237e-01,6.67039e-05,9.99999e-01,9.99999e-01,9.99731e-01,6.67219e-05,9.99999e-01
5.559299443e-01,8.06664e-05,9.99999e-01,9.99999e-01,9.99869e-01,8.06769e-05,9.99999e-01
5.587095940e-01,9.71775e-05,9.99999e-01,9.99999e-01,9.99918e-01,9.71854e-05,9.99999e-01
5.615031420e-01,1.16632e-04,9.99999e-01,9.99999e-01,9.99909e-01,1.16642e-04,9.99999e-01
5.643106577e-01,1.39476e-04,9.99999e-01,9.99999e-01,9.99898e-01,1.39491e-04,9.99998e-01
5.671322110e-01,1.66021e-04,9.99999e-01,9.99999e-01,9.98776e-01,1.66226e-04,9.99988e-01
5.699678720e-01,1.97132e-04,9.99999e-01,9.99999e-01,9.98668e-01,1.97402e-04,9.99965e-01
5.728177114e-01,2.33301e-04,9.99999e-01,9.99999e-01,9.98625e-01,2.33629e-04,9.99971e-01
5.756818000e-01,2.75233e-04,9.99999e-01,9.99999e-01,9.98736e-01,2.75586e-04,9.99982e-01
5.785602090e-01,3.23660e-04,9.99999e-01,9.99999e-01,9.98896e-01,3.24019e-04,9.99994e-01
5.814530100e-01,3.79327e-04,9.99999e-01,9.99999e-01,9.98893e-01,3.79748e-04,9.99997e-01
5.843602750e-01,4.43085e-04,9.99999e-01,9.99999e-01,9.98690e-01,4.43669e-04,9.99992e-01
5.872820764e-01,5.10911e-04,9.99999e-01,9.99999e-01,9.88761e-01,5.16759e-04,9.99919e-01
5.902184868e-01,5.91718e-04,9.99999e-01,9.99999e-01,9.86279e-01,6.00079e-04,9.99782e-01
5.931695792e-01,6.87910e-04,9.99999e-01,9.99999e-01,9.90321e-01,6.94780e-04,9.99787e-01
5.961354271e-01,7.93472e-04,9.99999e-01,9.99999e-01,9.89369e-01,8.02100e-04,9.99871e-01
5.991161043e-01,9.16164e-04,9.99999e-01,9.99999e-01,9.92228e-01,9.23374e-04,9.99962e-01
6.021116848e-01,1.05534e-03,9.99999e-01,9.99999e-01,9.95578e-01,1.06003e-03,9.99994e-01
6.051222432e-01,1.21088e-03,9.99999e-01,9.99999e-01,9.97759e-01,1.21360e-03,9.99999e-01
6.081478544e-01,1.38437e-03,9.99999e-01,9.99999e-01,9.99033e-01,1.38571e-03,9.99999e-01
6.111885937e-01,1.57744e-03,9.99999e-01,9.99999e-01,9.99590e-01,1.57809e-03,9.99999e-01
6.142445367e-01,1.79224e-03,9.99999e-01,9.99999e-01,9.99816e-01,1.79257e-03,9.99999e-01
6.173157594e-01,2.03087e-03,9.99999e-01,9.99999e-01,9.99898e-01,2.03108e-03,9.99999e-01
6.204023382e-01,2.29545e-03,9.99999e-01,9.99999e-01,9.99914e-01,2.29565e-03,9.99999e-01
6.235043498e-01,2.58746e-03,9.99999e-01,9.99999e-01,9.99630e-01,2.58842e-03,9.99998e-01
6.266218716e-01,2.90581e-03,9.99999e-01,9.99999e-01,9.98020e-01,2.91161e-03,9.99985e-01
6.297549810e-01,3.26509e-03,9.99999e-01,9.99999e-01,9.99273e-01,3.26755e-03,9.99971e-01
6.329037559e-01,3.65332e-03,9.99999e-01,9.99999e-01,9.98561e-01,3.65867e-03,9.99977e-01
6.360682746e-01,4.08242e-03,9.99999e-01,9.99999e-01,9.98779e-01,4.08746e-03,9.99986e-01
6.392486160e-01,4.54927e-03,9.99999e-01,9.99999e-01,9.98415e-01,4.55652e-03,9.99993e-01
6.424448591e-01,5.05780e-03,9.99999e-01,9.99999e-01,9.97894e-01,5.06852e-03,9.99990e-01
6.456570834e-01,5.57107e-03,9.99999e-01,9.99999e-01,9.90255e-01,5.62620e-03,9.99945e-01
6.488853688e-01,6.17886e-03,9.99999e-01,9.99999e-01,9.91562e-01,6.23238e-03,9.99846e-01
6.521297956e-01,6.83850e-03,9.99999e-01,9.99999e-01,9.92661e-01,6.88993e-03,9.99871e-01
6.553904446e-01,7.54592e-03,9.99999e-01,9.99999e-01,9.92745e-01,7.60179e-03,9.99903e-01
6.586673968e-01,8.31820e-03,9.99999e-01,9.99999e-01,9.93733e-01,8.37091e-03,9.99968e-01
6.619607338e-01,9.16690e-03,9.99999e-01,9.99999e-01,9.96373e-01,9.20032e-03,9.99992e-01
6.652705375e-01,1.00718e-02,9.99999e-01,9.99999e-01,9.97894e-01,1.00931e-02,9.99996e-01
6.685968902e-01,1.10414e-02,9.99999e-01,9.99999e-01,9.99021e-01,1.10522e-02,9.99998e-01
6.719398746e-01,1.20753e-02,9.99999e-01,9.99999e-01,9.99545e-01,1.20808e-02,9.99999e-01
6.752995740e-01,1.31787e-02,9.99999e-01,9.99999e-01,9.99754e-01,1.31819e-02,9.99999e-01
6.786760719e-01,1.43536e-02,9.99999e-01,9.99999e-01,9.99648e-01,1.43587e-02,9.99999e-01
6.820694522e-01,1.56046e-02,9.99999e-01,9.99999e-01,9.99396e-01,1.56140e-02,9.99996e-01
6.854797995e-01,1.69378e-02,9.99999e-01,9.99999e-01,9.99221e-01,1.69511e-02,9.99992e-01
6.889071985e-01,1.83384e-02,9.99999e-01,9.99999e-01,9.98140e-01,1.83728e-02,9.99982e-01
6.923517345e-01,1.92791e-02,9.99999e-01,9.99999e-01,9.69811e-01,1.98821e-02,9.99852e-01
6.958134932e-01,2.11299e-02,9.99999e-01,9.99999e-01,9.83942e-01,2.14819e-02,9.99666e-01
6.992925606e-01,2.28196e-02,9.99999e-01,9.99999e-01,9.84955e-01,2.31749e-02,9.99706e-01
7.027890234e-01,2.44925e-02,9.99999e-01,9.99999e-01,9.81336e-01,2.49639e-02,9.99774e-01
7.063029686e-01,2.64268e-02,9.99999e-01,9.99999e-01,9.84290e-01,2.68516e-02,9.99887e-01
7.098344834e-01,2.84036e-02,9.99999e-01,9.99999e-01,9.84919e-01,2.88404e-02,9.99933e-01
7.133836558e-01,3.03160e-02,9.99999e-01,9.99999e-01,9.80186e-01,3.09329e-02,9.99868e-01
7.169505741e-01,2.82035e-02,9.99999e-01,9.99999e-01,8.52146e-01,3.31313e-02,9.98964e-01
7.205353270e-01,3.26619e-02,9.99999e-01,9.99999e-01,9.23351e-01,3.54378e-02,9.98174e-01
7.241380036e-01,3.41894e-02,9.99999e-01,9.99999e-01,9.04601e-01,3.78546e-02,9.98423e-01
7.277586936e-01,3.68412e-02,9.99999e-01,9.99999e-01,9.13457e-01,4.03835e-02,9.98711e-01
7.313974871e-01,3.90230e-02,9.99999e-01,9.99999e-01,9.07502e-01,4.30264e-02,9.99395e-01
7.350544745e-01,4.34114e-02,9.99999e-01,9.99999e-01,9.48358e-01,4.57849e-02,9.99789e-01
7.387297469e-01,4.67902e-02,9.99999e-01,9.99999e-01,9.61656e-01,4.86605e-02,9.99903e-01
7.424233956e-01,5.06724e-02,9.99999e-01,9.99999e-01,9.81005e-01,5.16545e-02,9.99980e-01
7.461355126e-01,5.41359e-02,9.99999e-01,9.99999e-01,9.88461e-01,5.47680e-02,9.99996e-01
7.498661902e-01,5.76890e-02,9.99999e-01,9.99999e-01,9.94600e-01,5.80022e-02,9.99998e-01
7.536155211e-01,6.11954e-02,9.99999e-01,9.99999e-01,9.97354e-01,6.13578e-02,9.99998e-01
7.573835987e-01,6.47470e-02,9.99999e-01,9.99999e-01,9.98636e-01,6.48354e-02,9.99999e-01
7.611705167e-01,6.83776e-02,9.99999e-01,9.99999e-01,9.99152e-01,6.84355e-02,9.99999e-01
7.649763693e-01,7.21203e-02,9.99999e-01,9.99999e-01,9.99469e-01,7.21585e-02,9.99999e-01
7.688012511e-01,7.59765e-02,9.99999e-01,9.99999e-01,9.99630e-01,7.60045e-02,9.99999e-01
7.726452574e-01,7.99491e-02,9.99999e-01,9.99999e-01,9.99696e-01,7.99734e-02,9.99999e-01
7.765084837e-01,8.40289e-02,9.99999e-01,9.99999e-01,9.99571e-01,8.40650e-02,9.99998e-01
7.803910261e-01,8.03438e-02,9.99999e-01,9.11662e-01,9.98151e-01,8.82788e-02,9.99997e-01
7.842929812e-01,5.72150e-02,9.99999e-01,6.21272e-01,9.93562e-01,9.26144e-02,9.99987e-01
7.882144461e-01,5.82077e-02,9.99999e-01,6.06922e-01,9.86686e-01,9.70709e-02,9.99917e-01
7.921555184e-01,7.41484e-02,9.99999e-01,7.34608e-01,9.92650e-01,1.01647e-01,9.99841e-01
7.961162960e-01,8.50958e-02,9.99999e-01,8.10416e-01,9.87161e-01,1.06343e-01,9.99847e-01
8.000968774e-01,9.76981e-02,9.99999e-01,8.92233e-01,9.85106e-01,1.11156e-01,9.99838e-01
8.040973618e-01,1.07761e-01,9.99999e-01,9.42340e-01,9.85121e-01,1.16086e-01,9.99871e-01
8.081178486e-01,1.13995e-01,9.99999e-01,9.73168e-01,9.67006e-01,1.21130e-01,9.99879e-01
8.121584379e-01,1.08919e-01,9.99999e-01,9.91579e-01,8.69964e-01,1.26287e-01,9.99527e-01
8.162192301e-01,1.10997e-01,9.99999e-01,9.98133e-01,8.46710e-01,1.31556e-01,9.98224e-01
8.203003262e-01,1.26084e-01,9.99999e-01,9.99969e-01,9.22706e-01,1.36934e-01,9.97920e-01
8.244018279e-01,1.26911e-01,9.99999e-01,9.99999e-01,8.92590e-01,1.42418e-01,9.98344e-01
8.285238370e-01,1.33854e-01,9.99999e-01,9.99999e-01,9.05543e-01,1.48008e-01,9.98699e-01
8.326664562e-01,1.38932e-01,9.99999e-01,9.99999e-01,9.04404e-01,1.53700e-01,9.99461e-01
8.368297885e-01,1.48365e-01,9.99999e-01,9.99999e-01,9.30344e-01,1.59492e-01,9.99876e-01
8.410139374e-01,1.58416e-01,9.99999e-01,9.99999e-01,9.57952e-01,1.65382e-01,9.99927e-01
8.452190071e-01,1.67781e-01,9.99999e-01,9.99999e-01,9.79124e-01,1.71366e-01,9.99956e-01
8.494451021e-01,1.75283e-01,9.99999e-01,9.99999e-01,9.87867e-01,1.77442e-01,9.99965e-01
8.536923276e-01,1.82279e-01,9.99999e-01,9.99999e-01,9.92789e-01,1.83607e-01,9.99976e-01
8.579607893e-01,1.89015e-01,9.99999e-01,9.99999e-01,9.95564e-01,1.89858e-01,9.99993e-01
8.622505932e-01,1.95638e-01,9.99999e-01,9.99999e-01,9.97175e-01,1.96192e-01,9.99998e-01
8.665618462e-01,1.75712e-01,9.99999e-01,8.68670e-01,9.98257e-01,2.02606e-01,9.99998e-01
8.708946554e-01,6.53316e-02,9.99999e-01,3.13015e-01,9.98008e-01,2.09097e-01,9.99998e-01
8.752491287e-01,8.11830e-02,9.99999e-01,3.77369e-01,9.97333e-01,2.15662e-01,9.99996e-01
8.796253743e-01,1.27772e-01,9.99999e-01,5.76731e-01,9.96319e-01,2.22297e-01,9.99991e-01
8.840235012e-01,1.70470e-01,9.99999e-01,7.47432e-01,9.95793e-01,2.28998e-01,9.99973e-01
8.884436187e-01,2.06879e-01,9.99999e-01,8.90500e-01,9.84996e-01,2.35764e-01,9.99926e-01
8.928858368e-01,1.97524e-01,9.99999e-01,9.54074e-01,8.52663e-01,2.42590e-01,9.99577e-01
8.973502660e-01,1.85591e-01,9.99999e-01,9.88584e-01,7.53601e-01,2.49473e-01,9.97839e-01
9.018370173e-01,2.20749e-01,9.99999e-01,9.98733e-01,8.64850e-01,2.56409e-01,9.96606e-01
9.063462024e-01,2.24991e-01,9.99999e-01,9.69435e-01,8.81044e-01,2.63395e-01,9.97017e-01
9.108779334e-01,2.05945e-01,9.99999e-01,9.28741e-01,8.20243e-01,2.70429e-01,9.96901e-01
9.154323231e-01,2.17178e-01,9.99999e-01,9.82657e-01,7.97534e-01,2.77505e-01,9.97438e-01
9.200094847e-01,1.96750e-01,9.99999e-01,8.06649e-01,8.37813e-01,2.84621e-01,9.98565e-01
9.246095321e-01,1.58668e-01,9.99999e-01,6.98365e-01,7.67990e-01,2.91774e-01,9.98347e-01
9.292325798e-01,4.53502e-02,9.99999e-01,7.60443e-01,1.89094e-01,2.98961e-01,9.93570e-01
9.338787427e-01,2.73700e-02,9.99999e-01,7.63363e-01,1.13609e-01,3.06176e-01,9.73687e-01
9.385481364e-01,1.05389e-01,9.99999e-01,8.18557e-01,4.12207e-01,3.13419e-01,9.68783e-01
9.432408771e-01,8.64925e-02,9.99999e-01,8.83683e-01,3.08717e-01,3.20684e-01,9.73010e-01
9.479570815e-01,5.93531e-02,9.99999e-01,9.38600e-01,1.95595e-01,3.27970e-01,9.77978e-01
9.526968669e-01,9.07700e-02,9.99999e-01,9.69897e-01,2.81284e-01,3.35272e-01,9.86509e-01
9.574603512e-01,1.00350e-01,9.99999e-01,9.86995e-01,2.98133e-01,3.42588e-01,9.93124e-01
9.622476530e-01,1.27068e-01,9.99999e-01,9.95921e-01,3.66115e-01,3.49914e-01,9.95240e-01
9.670588912e-01,1.98299e-01,9.99999e-01,9.98774e-01,5.57468e-01,3.57248e-01,9.96742e-01
9.718941857e-01,2.50028e-01,9.99999e-01,9.99911e-01,6.87484e-01,3.64585e-01,9.97600e-01
9.767536566e-01,2.71875e-01,9.99999e-01,9.99999e-01,7.32336e-01,3.71925e-01,9.98165e-01
9.816374249e-01,3.00396e-01,9.99999e-01,9.99999e-01,7.92557e-01,3.79262e-01,9.99364e-01
9.865456120e-01,3.34118e-01,9.99999e-01,9.99999e-01,8.64372e-01,3.86595e-01,9.99867e-01
9.914783401e-01,3.59914e-01,9.99999e-01,9.99999e-01,9.13702e-01,3.93921e-01,9.99962e-01
9.964357318e-01,3.81978e-01,9.99999e-01,9.99999e-01,9.52020e-01,4.01237e-01,9.99978e-01
1.001417910e+00,3.96656e-01,9.99999e-01,9.99999e-01,9.70941e-01,4.08540e-01,9.99966e-01
1.006425000e+00,4.08887e-01,9.99999e-01,9.99999e-01,9.83353e-01,4.15828e-01,9.99952e-01
1.011457125e+00,4.18687e-01,9.99999e-01,9.99999e-01,9.89615e-01,4.23098e-01,9.99956e-01
1.016514411e+00,4.27300e-01,9.99999e-01,9.99999e-01,9.92947e-01,4.30348e-01,9.99968e-01
1.021596983e+00,4.35036e-01,9.99999e-01,9.99844e-01,9.94379e-01,4.37575e-01,9.99968e-01
1.026704968e+00,4.37438e-01,9.99999e-01,9.87831e-01,9.95616e-01,4.44777e-01,9.99978e-01
1.031838492e+00,4.07741e-01,9.99999e-01,9.04915e-01,9.96806e-01,4.51953e-01,9.99993e-01
1.036997685e+00,2.21389e-02,9.99999e-01,4.82915e-02,9.98105e-01,4.59098e-01,9.99998e-01
1.042182673e+00,1.21346e-03,9.99999e-01,2.60726e-03,9.97748e-01,4.66212e-01,9.99999e-01
1.047393587e+00,3.33419e-03,9.99999e-01,7.06215e-03,9.97010e-01,4.73293e-01,9.99998e-01
1.052630555e+00,2.45680e-07,9.99999e-01,5.12795e-07,9.95903e-01,4.80338e-01,9.99998e-01
1.057893707e+00,9.10806e-07,9.99999e-01,1.87542e-06,9.93178e-01,4.87346e-01,9.99997e-01
1.063183176e+00,2.90720e-05,9.99999e-01,5.91911e-05,9.88789e-01,4.94314e-01,9.99993e-01
1.068499092e+00,3.19903e-04,9.99999e-01,6.46099e-04,9.81280e-01,5.01242e-01,9.99986e-01
1.073841587e+00,4.33343e-03,9.99999e-01,8.66282e-03,9.78180e-01,5.08127e-01,9.99971e-01
1.079210795e+00,2.56556e-02,9.99999e-01,5.09311e-02,9.72032e-01,5.14968e-01,9.99924e-01
1.084606849e+00,9.20380e-02,9.99999e-01,1.83142e-01,9.58058e-01,5.21763e-01,9.99817e-01
1.090029883e+00,2.05210e-01,9.99999e-01,4.10817e-01,9.40673e-01,5.28511e-01,9.99623e-01
1.095480033e+00,2.93007e-01,9.99999e-01,6.43534e-01,8.46414e-01,5.35210e-01,9.99318e-01
1.100957433e+00,2.89490e-01,9.99999e-01,8.07646e-01,6.57677e-01,5.41859e-01,9.98746e-01
1.106462220e+00,1.81316e-01,9.99999e-01,9.15218e-01,3.58808e-01,5.48457e-01,9.97874e-01
1.111994531e+00,6.52177e-02,9.99999e-01,9.67651e-01,1.21393e-01,5.55003e-01,9.94368e-01
1.117554504e+00,2.01975e-02,9.99999e-01,9.91975e-01,3.68842e-02,5.61495e-01,9.79818e-01
1.123142276e+00,5.59078e-02,9.99999e-01,9.99468e-01,1.03324e-01,5.67933e-01,9.52803e-01
1.128757988e+00,1.12487e-01,9.99999e-01,9.99999e-01,2.07130e-01,5.74315e-01,9.45605e-01
1.134401778e+00,5.00266e-02,9.99999e-01,9.99999e-01,9.03539e-02,5.80641e-01,9.53555e-01
1.140073787e+00,2.11750e-01,9.99999e-01,9.99999e-01,3.74760e-01,5.86909e-01,9.62715e-01
1.145774156e+00,8.40240e-02,9.99999e-01,9.99999e-01,1.46678e-01,5.93120e-01,9.65816e-01
1.151503026e+00,7.06909e-02,9.99999e-01,9.99999e-01,1.20269e-01,5.99271e-01,9.80810e-01
1.157260541e+00,9.03109e-02,9.99999e-01,9.99999e-01,1.50051e-01,6.05363e-01,9.94223e-01
1.163046844e+00,1.47794e-01,9.99999e-01,9.99999e-01,2.42129e-01,6.11395e-01,9.98358e-01
1.168862078e+00,2.23486e-01,9.99999e-01,9.99999e-01,3.62305e-01,6.17365e-01,9.99154e-01
1.174706389e+00,3.32127e-01,9.99999e-01,9.99999e-01,5.33471e-01,6.23275e-01,9.98878e-01
1.180579921e+00,4.27300e-01,9.99999e-01,9.99999e-01,6.80353e-01,6.29122e-01,9.98305e-01
1.186482820e+00,5.09125e-01,9.99999e-01,9.99982e-01,8.03294e-01,6.34908e-01,9.98260e-01
1.192415234e+00,5.40574e-01,9.99999e-01,9.58918e-01,8.79772e-01,6.40630e-01,9.98697e-01
1.198377311e+00,3.03855e-01,9.99999e-01,5.14912e-01,8.97851e-01,6.46290e-01,9.98769e-01
1.204369197e+00,3.09068e-32,9.99999e-01,5.03495e-32,9.03284e-01,6.51887e-01,9.98886e-01
1.210391043e+00,5.37777e-131,9.99999e-01,8.64201e-131,9.07119e-01,6.57420e-01,9.99322e-01
1.216442998e+00,2.47377e-113,9.99999e-01,3.93030e-113,9.20296e-01,6.62889e-01,9.99584e-01
1.222525213e+00,1.27056e-111,9.99999e-01,1.96608e-111,9.37321e-01,6.68294e-01,9.99741e-01
1.228637839e+00,4.49218e-86,9.99999e-01,6.87386e-86,9.56057e-01,6.73635e-01,9.99879e-01
