#,Wave/freq,Total,N2,CO2,H2O,Rayleigh,CIA
4.000000000e-01,1.76050e-05,9.99999e-01,9.99999e-01,9.99978e-01,1.76054e-05,9.99999e-01
4.020000000e-01,2.18599e-05,9.99999e-01,9.99999e-01,9.99986e-01,2.18602e-05,9.99999e-01
4.040100000e-01,2.70212e-05,9.99999e-01,9.99999e-01,9.99993e-01,2.70214e-05,9.99999e-01
4.060300500e-01,3.32615e-05,9.99999e-01,9.99999e-01,9.99998e-01,3.32615e-05,9.99999e-01
4.080602003e-01,4.07751e-05,9.99999e-01,9.99999e-01,9.99999e-01,4.07751e-05,9.99999e-01
4.101005013e-01,4.97852e-05,9.99999e-01,9.99999e-01,9.99999e-01,4.97852e-05,9.99999e-01
4.121510038e-01,6.05471e-05,9.99999e-01,9.99999e-01,9.99998e-01,6.05471e-05,9.99999e-01
4.142117588e-01,7.33508e-05,9.99999e-01,9.99999e-01,9.99993e-01,7.33513e-05,9.99999e-01
4.162828176e-01,8.85248e-05,9.99999e-01,9.99999e-01,9.99973e-01,8.85271e-05,9.99999e-01
4.183642317e-01,1.06445e-04,9.99999e-01,9.99999e-01,9.99984e-01,1.06446e-04,9.99999e-01
4.204560528e-01,1.27527e-04,9.99999e-01,9.99999e-01,9.99989e-01,1.27528e-04,9.99999e-01
4.225583331e-01,1.52240e-04,9.99999e-01,9.99999e-01,9.99995e-01,1.52240e-04,9.99999e-01
4.246711247e-01,1.81106e-04,9.99999e-01,9.99999e-01,9.99996e-01,1.81106e-04,9.99999e-01
4.267944804e-01,2.14707e-04,9.99999e-01,9.99999e-01,9.99995e-01,2.14708e-04,9.99999e-01
4.289284528e-01,2.53690e-04,9.99999e-01,9.99999e-01,9.99996e-01,2.53690e-04,9.99999e-01
4.310730950e-01,2.98763e-04,9.99999e-01,9.99999e-01,9.99998e-01,2.98764e-04,9.99999e-01
4.332284605e-01,3.50710e-04,9.99999e-01,9.99999e-01,9.99999e-01,3.50711e-04,9.99999e-01
4.353946028e-01,4.10388e-04,9.99999e-01,9.99999e-01,9.99999e-01,4.10388e-04,9.99999e-01
4.375715758e-01,4.78731e-04,9.99999e-01,9.99999e-01,9.99996e-01,4.78732e-04,9.99999e-01
4.397594337e-01,5.56748e-04,9.99999e-01,9.99999e-01,9.99976e-01,5.56761e-04,9.99999e-01
4.419582309e-01,6.45505e-04,9.99999e-01,9.99999e-01,9.99883e-01,6.45580e-04,9.99999e-01
4.441680220e-01,7.46314e-04,9.99999e-01,9.99999e-01,9.99908e-01,7.46382e-04,9.99999e-01
4.463888621e-01,8.60373e-04,9.99999e-01,9.99999e-01,9.99905e-01,8.60455e-04,9.99999e-01
4.486208064e-01,9.89121e-04,9.99999e-01,9.99999e-01,9.99940e-01,9.89179e-04,9.99999e-01
4.508639105e-01,1.13400e-03,9.99999e-01,9.99999e-01,9.99971e-01,1.13403e-03,9.99999e-01
4.531182300e-01,1.29658e-03,9.99999e-01,9.99999e-01,9.99988e-01,1.29659e-03,9.99999e-01
4.553838212e-01,1.47853e-03,9.99999e-01,9.99999e-01,9.99992e-01,1.47854e-03,9.99999e-01
4.576607403e-01,1.68165e-03,9.99999e-01,9.99999e-01,9.99996e-01,1.68165e-03,9.99999e-01
4.599490440e-01,1.90780e-03,9.99999e-01,9.99999e-01,9.99997e-01,1.90781e-03,9.99999e-01
4.622487892e-01,2.15899e-03,9.99999e-01,9.99999e-01,9.99999e-01,2.15899e-03,9.99999e-01
4.645600332e-01,2.43728e-03,9.99999e-01,9.99999e-01,9.99997e-01,2.43728e-03,9.99999e-01
4.668828333e-01,2.74479e-03,9.99999e-01,9.99999e-01,9.99971e-01,2.74487e-03,9.99999e-01
4.692172475e-01,3.08383e-03,9.99999e-01,9.99999e-01,9.99940e-01,3.08402e-03,9.99999e-01
4.715633337e-01,3.45697e-03,9.99999e-01,9.99999e-01,9.99960e-01,3.45711e-03,9.99999e-01
4.739211504e-01,3.86646e-03,9.99999e-01,9.99999e-01,9.99962e-01,3.86660e-03,9.99999e-01
4.762907561e-01,4.31496e-03,9.99999e-01,9.99999e-01,9.99980e-01,4.31505e-03,9.99999e-01
4.786722099e-01,4.80504e-03,9.99999e-01,9.99999e-01,9.99991e-01,4.80508e-03,9.99999e-01
4.810655710e-01,5.33939e-03,9.99999e-01,9.99999e-01,9.99997e-01,5.33940e-03,9.99999e-01
4.834708988e-01,5.92066e-03,9.99999e-01,9.99999e-01,9.99977e-01,5.92080e-03,9.99999e-01
4.858882533e-01,6.55183e-03,9.99999e-01,9.99999e-01,9.99957e-01,6.55211e-03,9.99999e-01
4.883176946e-01,7.23599e-03,9.99999e-01,9.99999e-01,9.99964e-01,7.23624e-03,9.99999e-01
4.907592831e-01,7.97589e-03,9.99999e-01,9.99999e-01,9.99967e-01,7.97614e-03,9.99999e-01
4.932130795e-01,8.77461e-03,9.99999e-01,9.99999e-01,9.99976e-01,8.77481e-03,9.99999e-01
4.956791449e-01,9.63515e-03,9.99999e-01,9.99999e-01,9.99987e-01,9.63527e-03,9.99999e-01
4.981575406e-01,1.05599e-02,9.99999e-01,9.99999e-01,9.99940e-01,1.05606e-02,9.99999e-01
5.006483283e-01,1.15520e-02,9.99999e-01,9.99999e-01,9.99845e-01,1.15538e-02,9.99998e-01
5.031515699e-01,1.26080e-02,9.99999e-01,9.99999e-01,9.99217e-01,1.26180e-02,9.99991e-01
5.056673278e-01,1.37505e-02,9.99999e-01,9.99999e-01,9.99586e-01,1.37563e-02,9.99990e-01
5.081956644e-01,1.49638e-02,9.99999e-01,9.99999e-01,9.99477e-01,1.49717e-02,9.99993e-01
5.107366428e-01,1.62615e-02,9.99999e-01,9.99999e-01,9.99647e-01,1.62672e-02,9.99998e-01
5.132903260e-01,1.76423e-02,9.99999e-01,9.99999e-01,9.99798e-01,1.76459e-02,9.99999e-01
5.158567776e-01,1.91091e-02,9.99999e-01,9.99999e-01,9.99914e-01,1.91107e-02,9.99999e-01
5.184360615e-01,2.06638e-02,9.99999e-01,9.99999e-01,9.99965e-01,2.06646e-02,9.99999e-01
5.210282418e-01,2.23100e-02,9.99999e-01,9.99999e-01,9.99986e-01,2.23103e-02,9.99999e-01
5.236333830e-01,2.40493e-02,9.99999e-01,9.99999e-01,9.99948e-01,2.40506e-02,9.99999e-01
5.262515499e-01,2.58874e-02,9.99999e-01,9.99999e-01,9.99967e-01,2.58882e-02,9.99999e-01
5.288828077e-01,2.78250e-02,9.99999e-01,9.99999e-01,9.99970e-01,2.78258e-02,9.99999e-01
5.315272217e-01,2.98650e-02,9.99999e-01,9.99999e-01,9.99973e-01,2.98658e-02,9.99999e-01
5.341848578e-01,3.20100e-02,9.99999e-01,9.99999e-01,9.99982e-01,3.20105e-02,9.99999e-01
5.368557821e-01,3.42603e-02,9.99999e-01,9.99999e-01,9.99940e-01,3.42623e-02,9.99999e-01
5.395400610e-01,3.66154e-02,9.99999e-01,9.99999e-01,9.99785e-01,3.66233e-02,9.99997e-01
5.422377613e-01,3.90845e-02,9.99999e-01,9.99999e-01,9.99722e-01,3.90955e-02,9.99994e-01
5.449489501e-01,4.16699e-02,9.99999e-01,9.99999e-01,9.99742e-01,4.16808e-02,9.99994e-01
5.476736949e-01,4.43706e-02,9.99999e-01,9.99999e-01,9.99770e-01,4.43809e-02,9.99996e-01
5.504120634e-01,4.71894e-02,9.99999e-01,9.99999e-01,9.99833e-01,4.71973e-02,9.99998e-01
5.531641237e-01,5.01273e-02,9.99999e-01,9.99999e-01,9.99916e-01,5.01315e-02,9.99999e-01
5.559299443e-01,5.31825e-02,9.99999e-01,9.99999e-01,9.99959e-01,5.31847e-02,9.99999e-01
5.587095940e-01,5.63565e-02,9.99999e-01,9.99999e-01,9.99974e-01,5.63580e-02,9.99999e-01
5.615031420e-01,5.96506e-02,9.99999e-01,9.99999e-01,9.99971e-01,5.96523e-02,9.99999e-01
5.643106577e-01,6.30663e-02,9.99999e-01,9.99999e-01,9.99967e-01,6.30683e-02,9.99999e-01
5.671322110e-01,6.65809e-02,9.99999e-01,9.99999e-01,9.99614e-01,6.66067e-02,9.99996e-01
5.699678720e-01,7.02381e-02,9.99999e-01,9.99999e-01,9.99586e-01,7.02678e-02,9.99988e-01
5.728177114e-01,7.40195e-02,9.99999e-01,9.99999e-01,9.99571e-01,7.40519e-02,9.99990e-01
5.756818000e-01,7.79277e-02,9.99999e-01,9.99999e-01,9.99606e-01,7.79588e-02,9.99994e-01
5.785602090e-01,8.19604e-02,9.99999e-01,9.99999e-01,9.99656e-01,8.19887e-02,9.99997e-01
5.814530100e-01,8.61112e-02,9.99999e-01,9.99999e-01,9.99655e-01,8.61410e-02,9.99998e-01
5.843602750e-01,9.03781e-02,9.99999e-01,9.99999e-01,9.99590e-01,9.04153e-02,9.99997e-01
5.872820764e-01,9.44740e-02,9.99999e-01,9.99999e-01,9.96469e-01,9.48110e-02,9.99974e-01
5.902184868e-01,9.88945e-02,9.99999e-01,9.99999e-01,9.95709e-01,9.93273e-02,9.99931e-01
5.931695792e-01,1.03641e-01,9.99999e-01,9.99999e-01,9.96971e-01,1.03963e-01,9.99934e-01
5.961354271e-01,1.08352e-01,9.99999e-01,9.99999e-01,9.96677e-01,1.08717e-01,9.99962e-01
5.991161043e-01,1.13312e-01,9.99999e-01,9.99999e-01,9.97575e-01,1.13588e-01,9.99987e-01
6.021116848e-01,1.18412e-01,9.99999e-01,9.99999e-01,9.98623e-01,1.18575e-01,9.99998e-01
6.051222432e-01,1.23589e-01,9.99999e-01,9.99999e-01,9.99302e-01,1.23676e-01,9.99999e-01
6.081478544e-01,1.28850e-01,9.99999e-01,9.99999e-01,9.99699e-01,1.28888e-01,9.99999e-01
6.111885937e-01,1.34194e-01,9.99999e-01,9.99999e-01,9.99872e-01,1.34211e-01,9.99999e-01
6.142445367e-01,1.39634e-01,9.99999e-01,9.99999e-01,9.99942e-01,1.39642e-01,9.99999e-01
6.173157594e-01,1.45175e-01,9.99999e-01,9.99999e-01,9.99968e-01,1.45179e-01,9.99999e-01
6.204023382e-01,1.50816e-01,9.99999e-01,9.99999e-01,9.99973e-01,1.50820e-01,9.99999e-01
6.235043498e-01,1.56544e-01,9.99999e-01,9.99999e-01,9.99883e-01,1.56562e-01,9.99999e-01
6.266218716e-01,1.62302e-01,9.99999e-01,9.99999e-01,9.99382e-01,1.62403e-01,9.99995e-01
6.297549810e-01,1.68300e-01,9.99999e-01,9.99999e-01,9.99773e-01,1.68340e-01,9.99990e-01
6.329037559e-01,1.74291e-01,9.99999e-01,9.99999e-01,9.99551e-01,1.74370e-01,9.99992e-01
6.360682746e-01,1.80421e-01,9.99999e-01,9.99999e-01,9.99619e-01,1.80490e-01,9.99995e-01
6.392486160e-01,1.86606e-01,9.99999e-01,9.99999e-01,9.99506e-01,1.86699e-01,9.99997e-01
6.424448591e-01,1.92864e-01,9.99999e-01,9.99999e-01,9.99341e-01,1.92991e-01,9.99996e-01
6.456570834e-01,1.98753e-01,9.99999e-01,9.99999e-01,9.96942e-01,1.99366e-01,9.99982e-01
6.488853688e-01,2.05346e-01,9.99999e-01,9.99999e-01,9.97751e-01,2.05818e-01,9.99951e-01
6.521297956e-01,2.11851e-01,9.99999e-01,9.99999e-01,9.97708e-01,2.12346e-01,9.99959e-01
6.553904446e-01,2.18443e-01,9.99999e-01,9.99999e-01,9.97733e-01,2.18946e-01,9.99969e-01
6.586673968e-01,2.25172e-01,9.99999e-01,9.99999e-01,9.98046e-01,2.25614e-01,9.99989e-01
6.619607338e-01,2.32085e-01,9.99999e-01,9.99999e-01,9.98870e-01,2.32348e-01,9.99997e-01
6.652705375e-01,2.38987e-01,9.99999e-01,9.99999e-01,9.99345e-01,2.39144e-01,9.99998e-01
6.685968902e-01,2.45924e-01,9.99999e-01,9.99999e-01,9.99695e-01,2.45999e-01,9.99999e-01
6.719398746e-01,2.52873e-01,9.99999e-01,9.99999e-01,9.99858e-01,2.52908e-01,9.99999e-01
6.752995740e-01,2.59850e-01,9.99999e-01,9.99999e-01,9.99923e-01,2.59870e-01,9.99999e-01
6.786760719e-01,2.66851e-01,9.99999e-01,9.99999e-01,9.99889e-01,2.66880e-01,9.99999e-01
6.820694522e-01,2.73883e-01,9.99999e-01,9.99999e-01,9.99811e-01,2.73935e-01,9.99998e-01
6.854797995e-01,2.80963e-01,9.99999e-01,9.99999e-01,9.99757e-01,2.81032e-01,9.99997e-01
6.889071985e-01,2.87997e-01,9.99999e-01,9.99999e-01,9.99415e-01,2.88167e-01,9.99994e-01
6.923517345e-01,2.92503e-01,9.99999e-01,9.99999e-01,9.90449e-01,2.95337e-01,9.99953e-01
6.958134932e-01,3.00991e-01,9.99999e-01,9.99999e-01,9.94988e-01,3.02538e-01,9.99895e-01
6.992925606e-01,3.08275e-01,9.99999e-01,9.99999e-01,9.95272e-01,3.09768e-01,9.99908e-01
7.027890234e-01,3.15145e-01,9.99999e-01,9.99999e-01,9.94148e-01,3.17022e-01,9.99929e-01
7.063029686e-01,3.22691e-01,9.99999e-01,9.99999e-01,9.95080e-01,3.24298e-01,9.99964e-01
7.098344834e-01,3.30020e-01,9.99999e-01,9.99999e-01,9.95280e-01,3.31592e-01,9.99978e-01
7.133836558e-01,3.36766e-01,9.99999e-01,9.99999e-01,9.93739e-01,3.38901e-01,9.99958e-01
7.169505741e-01,3.28990e-01,9.99999e-01,9.99999e-01,9.50532e-01,3.46223e-01,9.99677e-01
7.205353270e-01,3.44639e-01,9.99999e-01,9.99999e-01,9.75341e-01,3.53553e-01,9.99430e-01
7.241380036e-01,3.49511e-01,9.99999e-01,9.99999e-01,9.68948e-01,3.60889e-01,9.99508e-01
7.277586936e-01,3.57748e-01,9.99999e-01,9.99999e-01,9.71928e-01,3.68228e-01,9.99598e-01
7.313974871e-01,3.64275e-01,9.99999e-01,9.99999e-01,9.70116e-01,3.75566e-01,9.99811e-01
7.350544745e-01,3.76592e-01,9.99999e-01,9.99999e-01,9.83585e-01,3.82902e-01,9.99934e-01
7.387297469e-01,3.85497e-01,9.99999e-01,9.99999e-01,9.87896e-01,3.90232e-01,9.99969e-01
7.424233956e-01,3.95189e-01,9.99999e-01,9.99999e-01,9.94058e-01,3.97553e-01,9.99993e-01
7.461355126e-01,4.03404e-01,9.99999e-01,9.99999e-01,9.96397e-01,4.04863e-01,9.99998e-01
7.498661902e-01,4.11467e-01,9.99999e-01,9.99999e-01,9.98320e-01,4.12159e-01,9.99999e-01
7.536155211e-01,4.19093e-01,9.99999e-01,9.99999e-01,9.99176e-01,4.19438e-01,9.99999e-01
7.573835987e-01,4.26518e-01,9.99999e-01,9.99999e-01,9.99575e-01,4.26699e-01,9.99999e-01
7.611705167e-01,4.33823e-01,9.99999e-01,9.99999e-01,9.99736e-01,4.33938e-01,9.99999e-01
7.649763693e-01,4.41080e-01,9.99999e-01,9.99999e-01,9.99834e-01,4.41153e-01,9.99999e-01
7.688012511e-01,4.48290e-01,9.99999e-01,9.99999e-01,9.99884e-01,4.48342e-01,9.99999e-01
7.726452574e-01,4.55460e-01,9.99999e-01,9.99999e-01,9.99905e-01,4.55503e-01,9.99999e-01
7.765084837e-01,4.62571e-01,9.99999e-01,9.99999e-01,9.99865e-01,4.62633e-01,9.99999e-01
7.803910261e-01,4.53331e-01,9.99999e-01,9.65627e-01,9.99421e-01,4.69731e-01,9.99998e-01
7.842929812e-01,4.06711e-01,9.99999e-01,8.54653e-01,9.97982e-01,4.76794e-01,9.99995e-01
7.882144461e-01,4.07446e-01,9.99999e-01,8.45543e-01,9.95833e-01,4.83821e-01,9.99974e-01
7.921555184e-01,4.44011e-01,9.99999e-01,9.06721e-01,9.97709e-01,4.90809e-01,9.99950e-01
7.961162960e-01,4.64211e-01,9.99999e-01,9.36385e-01,9.95970e-01,4.97758e-01,9.99952e-01
8.000968774e-01,4.84726e-01,9.99999e-01,9.65025e-01,9.95337e-01,5.04664e-01,9.99949e-01
8.040973618e-01,4.99813e-01,9.99999e-01,9.81704e-01,9.95337e-01,5.11528e-01,9.99959e-01
8.081178486e-01,5.08590e-01,9.99999e-01,9.91573e-01,9.89538e-01,5.18346e-01,9.99962e-01
8.121584379e-01,5.01174e-01,9.99999e-01,9.97382e-01,9.57022e-01,5.25118e-01,9.99852e-01
8.162192301e-01,5.04148e-01,9.99999e-01,9.99421e-01,9.48992e-01,5.31841e-01,9.99446e-01
8.203003262e-01,5.24386e-01,9.99999e-01,9.99990e-01,9.74400e-01,5.38516e-01,9.99351e-01
8.244018279e-01,5.25281e-01,9.99999e-01,9.99999e-01,9.64067e-01,5.45140e-01,9.99483e-01
8.285238370e-01,5.34575e-01,9.99999e-01,9.99999e-01,9.69330e-01,5.51712e-01,9.99594e-01
8.326664562e-01,5.40810e-01,9.99999e-01,9.99999e-01,9.68953e-01,5.58232e-01,9.99832e-01
8.368297885e-01,5.52098e-01,9.99999e-01,9.99999e-01,9.77725e-01,5.64697e-01,9.99961e-01
8.410139374e-01,5.63505e-01,9.99999e-01,9.99999e-01,9.86709e-01,5.71107e-01,9.99977e-01
8.452190071e-01,5.73679e-01,9.99999e-01,9.99999e-01,9.93461e-01,5.77462e-01,9.99986e-01
8.494451021e-01,5.81539e-01,9.99999e-01,9.99999e-01,9.96207e-01,5.83759e-01,9.99988e-01
8.536923276e-01,5.88670e-01,9.99999e-01,9.99999e-01,9.97753e-01,5.89999e-01,9.99992e-01
8.579607893e-01,5.95355e-01,9.99999e-01,9.99999e-01,9.98617e-01,5.96180e-01,9.99997e-01
8.622505932e-01,6.01773e-01,9.99999e-01,9.99999e-01,9.99120e-01,6.02302e-01,9.99999e-01
8.665618462e-01,5.62234e-01,9.99999e-01,9.24655e-01,9.99456e-01,6.08364e-01,9.99999e-01
8.708946554e-01,4.12418e-01,9.99999e-01,6.71692e-01,9.99378e-01,6.14365e-01,9.99999e-01
8.752491287e-01,4.49502e-01,9.99999e-01,7.25229e-01,9.99168e-01,6.20306e-01,9.99998e-01
8.796253743e-01,5.24201e-01,9.99999e-01,8.38070e-01,9.98849e-01,6.26185e-01,9.99996e-01
8.840235012e-01,5.75927e-01,9.99999e-01,9.12462e-01,9.98685e-01,6.32001e-01,9.99991e-01
8.884436187e-01,6.12202e-01,9.99999e-01,9.64500e-01,9.95238e-01,6.37756e-01,9.99976e-01
8.928858368e-01,6.02828e-01,9.99999e-01,9.85481e-01,9.50676e-01,6.43447e-01,9.99868e-01
8.973502660e-01,5.90851e-01,9.99999e-01,9.96448e-01,9.14086e-01,6.49075e-01,9.99326e-01
9.018370173e-01,6.24329e-01,9.99999e-01,9.99607e-01,9.55070e-01,6.54640e-01,9.98941e-01
9.063462024e-01,6.27449e-01,9.99999e-01,9.90084e-01,9.60577e-01,6.60142e-01,9.99070e-01
9.108779334e-01,6.10372e-01,9.99999e-01,9.77196e-01,9.39086e-01,6.65579e-01,9.99033e-01
9.154323231e-01,6.20890e-01,9.99999e-01,9.94585e-01,9.31054e-01,6.70953e-01,9.99201e-01
9.200094847e-01,5.92931e-01,9.99999e-01,9.24890e-01,9.45537e-01,6.76263e-01,9.99552e-01
9.246095321e-01,5.58928e-01,9.99999e-01,8.93273e-01,9.16688e-01,6.81508e-01,9.99484e-01
9.292325798e-01,3.53876e-01,9.99999e-01,9.15665e-01,5.58588e-01,6.86689e-01,9.97992e-01
9.338787427e-01,2.99414e-01,9.99999e-01,9.18074e-01,4.70933e-01,6.91807e-01,9.91730e-01
9.385481364e-01,4.79887e-01,9.99999e-01,9.39126e-01,7.37776e-01,6.96860e-01,9.90172e-01
9.432408771e-01,4.40737e-01,9.99999e-01,9.62245e-01,6.56749e-01,7.01849e-01,9.91515e-01
9.479570815e-01,3.86415e-01,9.99999e-01,9.80468e-01,5.60885e-01,7.06774e-01,9.93089e-01
9.526968669e-01,4.54165e-01,9.99999e-01,9.90530e-01,6.46468e-01,7.11636e-01,9.95779e-01
9.574603512e-01,4.76171e-01,9.99999e-01,9.95939e-01,6.68598e-01,7.16434e-01,9.97853e-01
9.622476530e-01,5.17960e-01,9.99999e-01,9.98731e-01,7.20148e-01,7.21168e-01,9.98515e-01
9.670588912e-01,5.99898e-01,9.99999e-01,9.99619e-01,8.27626e-01,7.25840e-01,9.98984e-01
9.718941857e-01,6.48433e-01,9.99999e-01,9.99972e-01,8.88405e-01,7.30448e-01,9.99251e-01
9.767536566e-01,6.65860e-01,9.99999e-01,9.99999e-01,9.06456e-01,7.34994e-01,9.99428e-01
9.816374249e-01,6.87391e-01,9.99999e-01,9.99999e-01,9.29745e-01,7.39478e-01,9.99801e-01
9.865456120e-01,7.10774e-01,9.99999e-01,9.99999e-01,9.55509e-01,7.43899e-01,9.99958e-01
9.914783401e-01,7.27504e-01,9.99999e-01,9.99999e-01,9.72272e-01,7.48259e-01,9.99988e-01
9.964357318e-01,7.41118e-01,9.99999e-01,9.99999e-01,9.84805e-01,7.52558e-01,9.99992e-01
1.001417910e+00,7.49876e-01,9.99999e-01,9.99999e-01,9.90866e-01,7.56795e-01,9.99989e-01
1.006425000e+00,7.56996e-01,9.99999e-01,9.99999e-01,9.94788e-01,7.60973e-01,9.99984e-01
1.011457125e+00,7.62600e-01,9.99999e-01,9.99999e-01,9.96759e-01,7.65089e-01,9.99986e-01
1.016514411e+00,7.67448e-01,9.99999e-01,9.99999e-01,9.97800e-01,7.69147e-01,9.99989e-01
1.021596983e+00,7.71743e-01,9.99999e-01,9.99948e-01,9.98247e-01,7.73145e-01,9.99989e-01
1.026704968e+00,7.73015e-01,9.99999e-01,9.96129e-01,9.98633e-01,7.77084e-01,9.99993e-01
1.031838492e+00,7.45626e-01,9.99999e-01,9.55671e-01,9.99005e-01,7.80965e-01,9.99997e-01
1.036997685e+00,1.16220e-01,9.99999e-01,1.48161e-01,9.99409e-01,7.84788e-01,9.99999e-01
1.042182673e+00,8.74695e-02,9.99999e-01,1.10993e-01,9.99297e-01,7.88553e-01,9.99999e-01
1.047393587e+00,1.06453e-01,9.99999e-01,1.34477e-01,9.99067e-01,7.92262e-01,9.99999e-01
1.052630555e+00,2.63378e-03,9.99999e-01,3.31222e-03,9.98721e-01,7.95915e-01,9.99999e-01
1.057893707e+00,6.79827e-03,9.99999e-01,8.51515e-03,9.97866e-01,7.99511e-01,9.99998e-01
1.063183176e+00,2.37639e-02,9.99999e-01,2.96659e-02,9.96489e-01,8.03053e-01,9.99997e-01
1.068499092e+00,6.92505e-02,9.99999e-01,8.62852e-02,9.94124e-01,8.06539e-01,9.99995e-01
1.073841587e+00,1.70803e-01,9.99999e-01,2.12112e-01,9.93130e-01,8.09972e-01,9.99990e-01
1.079210795e+00,3.02238e-01,9.99999e-01,3.74601e-01,9.91193e-01,8.13351e-01,9.99976e-01
1.084606849e+00,4.69298e-01,9.99999e-01,5.82046e-01,9.86704e-01,8.16677e-01,9.99942e-01
1.090029883e+00,6.07610e-01,9.99999e-01,7.55073e-01,9.80987e-01,8.19950e-01,9.99882e-01
1.095480033e+00,6.80408e-01,9.99999e-01,8.70662e-01,9.49000e-01,8.23171e-01,9.99787e-01
1.100957433e+00,6.76971e-01,9.99999e-01,9.35457e-01,8.75478e-01,8.26341e-01,9.99609e-01
1.106462220e+00,5.76341e-01,9.99999e-01,9.72776e-01,7.14029e-01,8.29461e-01,9.99337e-01
1.111994531e+00,4.05824e-01,9.99999e-01,9.89822e-01,4.92965e-01,8.32530e-01,9.98242e-01
1.117554504e+00,2.64786e-01,9.99999e-01,9.97502e-01,3.19564e-01,8.35549e-01,9.93671e-01
1.123142276e+00,3.59434e-01,9.99999e-01,9.99835e-01,4.35188e-01,8.38520e-01,9.85057e-01
1.128757988e+00,4.83419e-01,9.99999e-01,9.99999e-01,5.84605e-01,8.41442e-01,9.82733e-01
1.134401778e+00,2.70597e-01,9.99999e-01,9.99999e-01,3.25273e-01,8.44316e-01,9.85299e-01
1.140073787e+00,6.06709e-01,9.99999e-01,9.99999e-01,7.24706e-01,8.47143e-01,9.88236e-01
1.145774156e+00,4.31090e-01,9.99999e-01,9.99999e-01,5.12733e-01,8.49923e-01,9.89227e-01
1.151503026e+00,4.03567e-01,9.99999e-01,9.99999e-01,4.76168e-01,8.52658e-01,9.93984e-01
1.157260541e+00,4.57206e-01,9.99999e-01,9.99999e-01,5.35492e-01,8.55346e-01,9.98197e-01
1.163046844e+00,5.39947e-01,9.99999e-01,9.99999e-01,6.29637e-01,8.57990e-01,9.99488e-01
1.168862078e+00,6.23346e-01,9.99999e-01,9.99999e-01,7.24514e-01,8.60590e-01,9.99736e-01
1.174706389e+00,7.07233e-01,9.99999e-01,9.99999e-01,8.19652e-01,8.63146e-01,9.99650e-01
1.180579921e+00,7.66469e-01,9.99999e-01,9.99999e-01,8.85884e-01,8.65659e-01,9.99471e-01
1.186482820e+00,8.10241e-01,9.99999e-01,9.99993e-01,9.33829e-01,8.68129e-01,9.99457e-01
1.192415234e+00,8.24797e-01,9.99999e-01,9.86277e-01,9.60851e-01,8.70557e-01,9.99593e-01
1.198377311e+00,4.75761e-01,9.99999e-01,5.60763e-01,9.66923e-01,8.72944e-01,9.99616e-01
1.204369197e+00,1.37786e-11,9.99999e-01,1.60392e-11,9.68664e-01,8.75290e-01,9.99652e-01
1.210391043e+00,2.44732e-42,9.99999e-01,2.83676e-42,9.70010e-01,8.77596e-01,9.99788e-01
1.216442998e+00,7.72612e-37,9.99999e-01,8.92390e-37,9.74413e-01,8.79863e-01,9.99870e-01
1.222525213e+00,2.63692e-36,9.99999e-01,3.02081e-36,9.80032e-01,8.82090e-01,9.99919e-01
1.228637839e+00,4.01751e-28,9.99999e-01,4.58760e-28,9.86097e-01,8.84278e-01,9.99962e-01
