#,Wave/freq,Total,N2,CO2,H2O,Rayleigh,CIA
4.000000000e-01,2.17634e-07,9.99999e-01,9.99999e-01,9.99970e-01,2.17640e-07,9.99999e-01
4.020000000e-01,2.94753e-07,9.99999e-01,9.99999e-01,9.99981e-01,2.94759e-07,9.99999e-01
4.040100000e-01,3.96696e-07,9.99999e-01,9.99999e-01,9.99991e-01,3.96699e-07,9.99999e-01
4.060300500e-01,5.30770e-07,9.99999e-01,9.99999e-01,9.99997e-01,5.30771e-07,9.99999e-01
4.080602003e-01,7.06083e-07,9.99999e-01,9.99999e-01,9.99998e-01,7.06083e-07,9.99999e-01
4.101005013e-01,9.34020e-07,9.99999e-01,9.99999e-01,9.99999e-01,9.34020e-07,9.99999e-01
4.121510038e-01,1.22873e-06,9.99999e-01,9.99999e-01,9.99998e-01,1.22873e-06,9.99999e-01
4.142117588e-01,1.60768e-06,9.99999e-01,9.99999e-01,9.99991e-01,1.60770e-06,9.99999e-01
4.162828176e-01,2.09233e-06,9.99999e-01,9.99999e-01,9.99963e-01,2.09241e-06,9.99999e-01
4.183642317e-01,2.70906e-06,9.99999e-01,9.99999e-01,9.99977e-01,2.70912e-06,9.99999e-01
4.204560528e-01,3.48969e-06,9.99999e-01,9.99999e-01,9.99986e-01,3.48974e-06,9.99999e-01
4.225583331e-01,4.47285e-06,9.99999e-01,9.99999e-01,9.99994e-01,4.47287e-06,9.99999e-01
4.246711247e-01,5.70491e-06,9.99999e-01,9.99999e-01,9.99995e-01,5.70493e-06,9.99999e-01
4.267944804e-01,7.24144e-06,9.99999e-01,9.99999e-01,9.99993e-01,7.24148e-06,9.99999e-01
4.289284528e-01,9.14864e-06,9.99999e-01,9.99999e-01,9.99994e-01,9.14869e-06,9.99999e-01
4.310730950e-01,1.15049e-05,9.99999e-01,9.99999e-01,9.99997e-01,1.15049e-05,9.99999e-01
4.332284605e-01,1.44027e-05,9.99999e-01,9.99999e-01,9.99999e-01,1.44027e-05,9.99999e-01
4.353946028e-01,1.79505e-05,9.99999e-01,9.99999e-01,9.99999e-01,1.79505e-05,9.99999e-01
4.375715758e-01,2.22751e-05,9.99999e-01,9.99999e-01,9.99995e-01,2.22751e-05,9.99999e-01
4.397594337e-01,2.75232e-05,9.99999e-01,9.99999e-01,9.99966e-01,2.75241e-05,9.99999e-01
4.419582309e-01,3.38624e-05,9.99999e-01,9.99999e-01,9.99833e-01,3.38680e-05,9.99999e-01
4.441680220e-01,4.14985e-05,9.99999e-01,9.99999e-01,9.99873e-01,4.15037e-05,9.99999e-01
4.463888621e-01,5.06505e-05,9.99999e-01,9.99999e-01,9.99867e-01,5.06572e-05,9.99999e-01
4.486208064e-01,6.15814e-05,9.99999e-01,9.99999e-01,9.99917e-01,6.15864e-05,9.99999e-01
4.508639105e-01,7.45824e-05,9.99999e-01,9.99999e-01,9.99961e-01,7.45853e-05,9.99999e-01
4.531182300e-01,8.99853e-05,9.99999e-01,9.99999e-01,9.99984e-01,8.99867e-05,9.99999e-01
4.553838212e-01,1.08166e-04,9.99999e-01,9.99999e-01,9.99989e-01,1.08167e-04,9.99999e-01
4.576607403e-01,1.29547e-04,9.99999e-01,9.99999e-01,9.99994e-01,1.29548e-04,9.99999e-01
4.599490440e-01,1.54603e-04,9.99999e-01,9.99999e-01,9.99996e-01,1.54603e-04,9.99999e-01
4.622487892e-01,1.83862e-04,9.99999e-01,9.99999e-01,9.99998e-01,1.83862e-04,9.99999e-01
4.645600332e-01,2.17909e-04,9.99999e-01,9.99999e-01,9.99997e-01,2.17910e-04,9.99999e-01
4.668828333e-01,2.57388e-04,9.99999e-01,9.99999e-01,9.99960e-01,2.57398e-04,9.99999e-01
4.692172475e-01,3.03018e-04,9.99999e-01,9.99999e-01,9.99916e-01,3.03043e-04,9.99999e-01
4.715633337e-01,3.55615e-04,9.99999e-01,9.99999e-01,9.99945e-01,3.55634e-04,9.99999e-01
4.739211504e-01,4.16013e-04,9.99999e-01,9.99999e-01,9.99947e-01,4.16035e-04,9.99999e-01
4.762907561e-01,4.85175e-04,9.99999e-01,9.99999e-01,9.99972e-01,4.85188e-04,9.99999e-01
4.786722099e-01,5.64114e-04,9.99999e-01,9.99999e-01,9.99988e-01,5.64120e-04,9.99999e-01
4.810655710e-01,6.53941e-04,9.99999e-01,9.99999e-01,9.99996e-01,6.53943e-04,9.99999e-01
4.834708988e-01,7.55835e-04,9.99999e-01,9.99999e-01,9.99966e-01,7.55859e-04,9.99999e-01
4.858882533e-01,8.71112e-04,9.99999e-01,9.99999e-01,9.99940e-01,8.71163e-04,9.99999e-01
4.883176946e-01,1.00120e-03,9.99999e-01,9.99999e-01,9.99950e-01,1.00124e-03,9.99999e-01
4.907592831e-01,1.14754e-03,9.99999e-01,9.99999e-01,9.99955e-01,1.14759e-03,9.99999e-01
4.932130795e-01,1.31175e-03,9.99999e-01,9.99999e-01,9.99968e-01,1.31179e-03,9.99999e-01
4.956791449e-01,1.49550e-03,9.99999e-01,9.99999e-01,9.99982e-01,1.49552e-03,9.99999e-01
4.981575406e-01,1.70044e-03,9.99999e-01,9.99999e-01,9.99915e-01,1.70058e-03,9.99999e-01
5.006483283e-01,1.92843e-03,9.99999e-01,9.99999e-01,9.99780e-01,1.92886e-03,9.99998e-01
5.031515699e-01,2.17991e-03,9.99999e-01,9.99999e-01,9.98899e-01,2.18234e-03,9.99987e-01
5.056673278e-01,2.46166e-03,9.99999e-01,9.99999e-01,9.99421e-01,2.46312e-03,9.99986e-01
5.081956644e-01,2.77134e-03,9.99999e-01,9.99999e-01,9.99270e-01,2.77338e-03,9.99991e-01
5.107366428e-01,3.11388e-03,9.99999e-01,9.99999e-01,9.99507e-01,3.11542e-03,9.99998e-01
5.132903260e-01,3.49063e-03,9.99999e-01,9.99999e-01,9.99719e-01,3.49161e-03,9.99999e-01
5.158567776e-01,3.90396e-03,9.99999e-01,9.99999e-01,9.99881e-01,3.90443e-03,9.99999e-01
5.184360615e-01,4.35621e-03,9.99999e-01,9.99999e-01,9.99952e-01,4.35642e-03,9.99999e-01
5.210282418e-01,4.85015e-03,9.99999e-01,9.99999e-01,9.99981e-01,4.85024e-03,9.99999e-01
5.236333830e-01,5.38820e-03,9.99999e-01,9.99999e-01,9.99927e-01,5.38859e-03,9.99998e-01
5.262515499e-01,5.97398e-03,9.99999e-01,9.99999e-01,9.99954e-01,5.97426e-03,9.99998e-01
5.288828077e-01,6.60982e-03,9.99999e-01,9.99999e-01,9.99958e-01,6.61009e-03,9.99999e-01
5.315272217e-01,7.29875e-03,9.99999e-01,9.99999e-01,9.99963e-01,7.29901e-03,9.99999e-01
5.341848578e-01,8.04377e-03,9.99999e-01,9.99999e-01,9.99975e-01,8.04396e-03,9.99999e-01
5.368557821e-01,8.84719e-03,9.99999e-01,9.99999e-01,9.99915e-01,8.84794e-03,9.99999e-01
5.395400610e-01,9.71098e-03,9.99999e-01,9.99999e-01,9.99694e-01,9.71397e-03,9.99996e-01
5.422377613e-01,1.06409e-02,9.99999e-01,9.99999e-01,9.99612e-01,1.06451e-02,9.99992e-01
5.449489501e-01,1.16401e-02,9.99999e-01,9.99999e-01,9.99636e-01,1.16445e-02,9.99992e-01
5.476736949e-01,1.27110e-02,9.99999e-01,9.99999e-01,9.99681e-01,1.27151e-02,9.99995e-01
5.504120634e-01,1.38568e-02,9.99999e-01,9.99999e-01,9.99768e-01,1.38600e-02,9.99998e-01
5.531641237e-01,1.50805e-02,9.99999e-01,9.99999e-01,9.99883e-01,1.50823e-02,9.99999e-01
5.559299443e-01,1.63841e-02,9.99999e-01,9.99999e-01,9.99943e-01,1.63850e-02,9.99999e-01
5.587095940e-01,1.77706e-02,9.99999e-01,9.99999e-01,9.99964e-01,1.77712e-02,9.99999e-01
5.615031420e-01,1.92430e-02,9.99999e-01,9.99999e-01,9.99960e-01,1.92437e-02,9.99999e-01
5.643106577e-01,2.08046e-02,9.99999e-01,9.99999e-01,9.99954e-01,2.08055e-02,9.99999e-01
5.671322110e-01,2.24468e-02,9.99999e-01,9.99999e-01,9.99444e-01,2.24594e-02,9.99994e-01
5.699678720e-01,2.41940e-02,9.99999e-01,9.99999e-01,9.99428e-01,2.42082e-02,9.99984e-01
5.728177114e-01,2.60385e-02,9.99999e-01,9.99999e-01,9.99396e-01,2.60545e-02,9.99987e-01
5.756818000e-01,2.79854e-02,9.99999e-01,9.99999e-01,9.99448e-01,2.80010e-02,9.99992e-01
5.785602090e-01,3.00356e-02,9.99999e-01,9.99999e-01,9.99520e-01,3.00501e-02,9.99997e-01
5.814530100e-01,3.21886e-02,9.99999e-01,9.99999e-01,9.99516e-01,3.22042e-02,9.99998e-01
5.843602750e-01,3.44453e-02,9.99999e-01,9.99999e-01,9.99418e-01,3.44655e-02,9.99996e-01
5.872820764e-01,3.66508e-02,9.99999e-01,9.99999e-01,9.95001e-01,3.68362e-02,9.99964e-01
5.902184868e-01,3.90792e-02,9.99999e-01,9.99999e-01,9.94013e-01,3.93183e-02,9.99904e-01
5.931695792e-01,4.17317e-02,9.99999e-01,9.99999e-01,9.95752e-01,4.19136e-02,9.99908e-01
5.961354271e-01,4.44143e-02,9.99999e-01,9.99999e-01,9.95357e-01,4.46238e-02,9.99947e-01
5.991161043e-01,4.72892e-02,9.99999e-01,9.99999e-01,9.96617e-01,4.74505e-02,9.99983e-01
6.021116848e-01,5.02984e-02,9.99999e-01,9.99999e-01,9.98082e-01,5.03951e-02,9.99997e-01
6.051222432e-01,5.34070e-02,9.99999e-01,9.99999e-01,9.99029e-01,5.34588e-02,9.99999e-01
6.081478544e-01,5.66190e-02,9.99999e-01,9.99999e-01,9.99580e-01,5.66427e-02,9.99999e-01
6.111885937e-01,5.99371e-02,9.99999e-01,9.99999e-01,9.99823e-01,5.99477e-02,9.99999e-01
6.142445367e-01,6.33695e-02,9.99999e-01,9.99999e-01,9.99920e-01,6.33745e-02,9.99999e-01
6.173157594e-01,6.69207e-02,9.99999e-01,9.99999e-01,9.99955e-01,6.69237e-02,9.99999e-01
6.204023382e-01,7.05929e-02,9.99999e-01,9.99999e-01,9.99962e-01,7.05956e-02,9.99999e-01
6.235043498e-01,7.43780e-02,9.99999e-01,9.99999e-01,9.99832e-01,7.43904e-02,9.99999e-01
6.266218716e-01,7.82400e-02,9.99999e-01,9.99999e-01,9.99134e-01,7.83082e-02,9.99993e-01
6.297549810e-01,8.23217e-02,9.99999e-01,9.99999e-01,9.99682e-01,8.23488e-02,9.99987e-01
6.329037559e-01,8.64570e-02,9.99999e-01,9.99999e-01,9.99374e-01,8.65119e-02,9.99989e-01
6.360682746e-01,9.07478e-02,9.99999e-01,9.99999e-01,9.99464e-01,9.07969e-02,9.99993e-01
6.392486160e-01,9.51372e-02,9.99999e-01,9.99999e-01,9.99307e-01,9.52033e-02,9.99996e-01
6.424448591e-01,9.96363e-02,9.99999e-01,9.99999e-01,9.99064e-01,9.97300e-02,9.99994e-01
6.456570834e-01,1.03921e-01,9.99999e-01,9.99999e-01,9.95661e-01,1.04376e-01,9.99973e-01
6.488853688e-01,1.08791e-01,9.99999e-01,9.99999e-01,9.96866e-01,1.09141e-01,9.99932e-01
6.521297956e-01,1.13652e-01,9.99999e-01,9.99999e-01,9.96806e-01,1.14022e-01,9.99944e-01
6.553904446e-01,1.18633e-01,9.99999e-01,9.99999e-01,9.96802e-01,1.19019e-01,9.99958e-01
6.586673968e-01,1.23790e-01,9.99999e-01,9.99999e-01,9.97275e-01,1.24129e-01,9.99985e-01
6.619607338e-01,1.29155e-01,9.99999e-01,9.99999e-01,9.98481e-01,1.29352e-01,9.99996e-01
6.652705375e-01,1.34562e-01,9.99999e-01,9.99999e-01,9.99088e-01,1.34684e-01,9.99998e-01
6.685968902e-01,1.40071e-01,9.99999e-01,9.99999e-01,9.99612e-01,1.40125e-01,9.99999e-01
6.719398746e-01,1.45643e-01,9.99999e-01,9.99999e-01,9.99803e-01,1.45671e-01,9.99999e-01
6.752995740e-01,1.51305e-01,9.99999e-01,9.99999e-01,9.99895e-01,1.51321e-01,9.99999e-01
6.786760719e-01,1.57047e-01,9.99999e-01,9.99999e-01,9.99844e-01,1.57072e-01,9.99999e-01
6.820694522e-01,1.62877e-01,9.99999e-01,9.99999e-01,9.99732e-01,1.62921e-01,9.99998e-01
6.854797995e-01,1.68808e-01,9.99999e-01,9.99999e-01,9.99658e-01,1.68866e-01,9.99996e-01
6.889071985e-01,1.74756e-01,9.99999e-01,9.99999e-01,9.99159e-01,1.74904e-01,9.99992e-01
6.923517345e-01,1.78578e-01,9.99999e-01,9.99999e-01,9.86502e-01,1.81033e-01,9.99935e-01
6.958134932e-01,1.85938e-01,9.99999e-01,9.99999e-01,9.93142e-01,1.87249e-01,9.99856e-01
6.992925606e-01,1.92230e-01,9.99999e-01,9.99999e-01,9.93314e-01,1.93549e-01,9.99870e-01
7.027890234e-01,1.98278e-01,9.99999e-01,9.99999e-01,9.91833e-01,1.99930e-01,9.99901e-01
7.063029686e-01,2.04960e-01,9.99999e-01,9.99999e-01,9.93122e-01,2.06389e-01,9.99950e-01
7.098344834e-01,2.11512e-01,9.99999e-01,9.99999e-01,9.93400e-01,2.12924e-01,9.99970e-01
7.133836558e-01,2.17558e-01,9.99999e-01,9.99999e-01,9.91076e-01,2.19529e-01,9.99942e-01
7.169505741e-01,2.10496e-01,9.99999e-01,9.99999e-01,9.30977e-01,2.26204e-01,9.99547e-01
7.205353270e-01,2.24932e-01,9.99999e-01,9.99999e-01,9.66379e-01,2.32943e-01,9.99202e-01
7.241380036e-01,2.29189e-01,9.99999e-01,9.99999e-01,9.56630e-01,2.39744e-01,9.99311e-01
7.277586936e-01,2.36812e-01,9.99999e-01,9.99999e-01,9.60833e-01,2.46604e-01,9.99436e-01
7.313974871e-01,2.42989e-01,9.99999e-01,9.99999e-01,9.58719e-01,2.53518e-01,9.99735e-01
7.350544745e-01,2.54520e-01,9.99999e-01,9.99999e-01,9.77190e-01,2.60484e-01,9.99907e-01
7.387297469e-01,2.62989e-01,9.99999e-01,9.99999e-01,9.83180e-01,2.67499e-01,9.99957e-01
7.424233956e-01,2.72293e-01,9.99999e-01,9.99999e-01,9.91760e-01,2.74558e-01,9.99992e-01
7.461355126e-01,2.80247e-01,9.99999e-01,9.99999e-01,9.94990e-01,2.81658e-01,9.99998e-01
7.498661902e-01,2.88124e-01,9.99999e-01,9.99999e-01,9.97673e-01,2.88796e-01,9.99998e-01
7.536155211e-01,2.95630e-01,9.99999e-01,9.99999e-01,9.98853e-01,2.95969e-01,9.99999e-01
7.573835987e-01,3.02994e-01,9.99999e-01,9.99999e-01,9.99410e-01,3.03173e-01,9.99999e-01
7.611705167e-01,3.10291e-01,9.99999e-01,9.99999e-01,9.99633e-01,3.10404e-01,9.99999e-01
7.649763693e-01,3.17588e-01,9.99999e-01,9.99999e-01,9.99769e-01,3.17661e-01,9.99999e-01
7.688012511e-01,3.24886e-01,9.99999e-01,9.99999e-01,9.99839e-01,3.24938e-01,9.99999e-01
7.726452574e-01,3.32190e-01,9.99999e-01,9.99999e-01,9.99867e-01,3.32234e-01,9.99999e-01
7.765084837e-01,3.39480e-01,9.99999e-01,9.99999e-01,9.99810e-01,3.39545e-01,9.99999e-01
7.803910261e-01,3.29539e-01,9.99999e-01,9.50790e-01,9.99178e-01,3.46867e-01,9.99998e-01
7.842929812e-01,2.84763e-01,9.99999e-01,8.06127e-01,9.97134e-01,3.54198e-01,9.99994e-01
7.882144461e-01,2.85076e-01,9.99999e-01,7.92920e-01,9.94166e-01,3.61534e-01,9.99959e-01
7.921555184e-01,3.20594e-01,9.99999e-01,8.71858e-01,9.96818e-01,3.68873e-01,9.99929e-01
7.961162960e-01,3.41486e-01,9.99999e-01,9.12893e-01,9.94301e-01,3.76211e-01,9.99933e-01
8.000968774e-01,3.62609e-01,9.99999e-01,9.51667e-01,9.93468e-01,3.83547e-01,9.99929e-01
8.040973618e-01,3.78511e-01,9.99999e-01,9.74780e-01,9.93454e-01,3.90876e-01,9.99945e-01
8.081178486e-01,3.87695e-01,9.99999e-01,9.88285e-01,9.85190e-01,3.98196e-01,9.99945e-01
8.121584379e-01,3.79682e-01,9.99999e-01,9.96415e-01,9.39832e-01,4.05505e-01,9.99793e-01
8.162192301e-01,3.83247e-01,9.99999e-01,9.99206e-01,9.29846e-01,4.12800e-01,9.99224e-01
8.203003262e-01,4.04474e-01,9.99999e-01,9.99988e-01,9.63738e-01,4.20077e-01,9.99091e-01
8.244018279e-01,4.06217e-01,9.99999e-01,9.99999e-01,9.51267e-01,4.27336e-01,9.99276e-01
8.285238370e-01,4.15727e-01,9.99999e-01,9.99999e-01,9.57177e-01,4.34573e-01,9.99431e-01
8.326664562e-01,4.22667e-01,9.99999e-01,9.99999e-01,9.56948e-01,4.41786e-01,9.99764e-01
8.368297885e-01,4.35084e-01,9.99999e-01,9.99999e-01,9.69117e-01,4.48973e-01,9.99945e-01
8.410139374e-01,4.47701e-01,9.99999e-01,9.99999e-01,9.81548e-01,4.56131e-01,9.99968e-01
8.452190071e-01,4.59047e-01,9.99999e-01,9.99999e-01,9.90926e-01,4.63258e-01,9.99980e-01
8.494451021e-01,4.67855e-01,9.99999e-01,9.99999e-01,9.94702e-01,4.70353e-01,9.99984e-01
8.536923276e-01,4.75918e-01,9.99999e-01,9.99999e-01,9.96877e-01,4.77413e-01,9.99990e-01
8.579607893e-01,4.83500e-01,9.99999e-01,9.99999e-01,9.98069e-01,4.84437e-01,9.99997e-01
8.622505932e-01,4.90821e-01,9.99999e-01,9.99999e-01,9.98776e-01,4.91422e-01,9.99999e-01
8.665618462e-01,4.50160e-01,9.99999e-01,9.03924e-01,9.99239e-01,4.98367e-01,9.99999e-01
8.708946554e-01,2.92394e-01,9.99999e-01,5.79171e-01,9.99126e-01,5.05269e-01,9.99999e-01
8.752491287e-01,3.28971e-01,9.99999e-01,6.43079e-01,9.98833e-01,5.12129e-01,9.99998e-01
8.796253743e-01,4.05994e-01,9.99999e-01,7.83568e-01,9.98378e-01,5.18943e-01,9.99995e-01
8.840235012e-01,4.62167e-01,9.99999e-01,8.80731e-01,9.98149e-01,5.25711e-01,9.99988e-01
8.884436187e-01,5.03066e-01,9.99999e-01,9.51341e-01,9.93110e-01,5.32430e-01,9.99967e-01
8.928858368e-01,4.91812e-01,9.99999e-01,9.79953e-01,9.30876e-01,5.39100e-01,9.99815e-01
8.973502660e-01,4.78781e-01,9.99999e-01,9.95127e-01,8.82340e-01,5.45720e-01,9.99056e-01
9.018370173e-01,5.17404e-01,9.99999e-01,9.99464e-01,9.38709e-01,5.52288e-01,9.98516e-01
9.063462024e-01,5.20061e-01,9.99999e-01,9.85764e-01,9.44738e-01,5.58802e-01,9.98697e-01
9.108779334e-01,5.00878e-01,9.99999e-01,9.68450e-01,9.15690e-01,5.65263e-01,9.98646e-01
9.154323231e-01,5.13060e-01,9.99999e-01,9.92609e-01,9.04968e-01,5.71668e-01,9.98880e-01
9.200094847e-01,4.82085e-01,9.99999e-01,8.97096e-01,9.25041e-01,5.78018e-01,9.99373e-01
9.246095321e-01,4.42559e-01,9.99999e-01,8.54761e-01,8.83255e-01,5.84310e-01,9.99277e-01
9.292325798e-01,2.36123e-01,9.99999e-01,8.83307e-01,4.46366e-01,5.90545e-01,9.96520e-01
9.338787427e-01,1.90708e-01,9.99999e-01,8.88007e-01,3.58650e-01,5.96721e-01,9.87479e-01
9.385481364e-01,3.62451e-01,9.99999e-01,9.16225e-01,6.60844e-01,6.02837e-01,9.86252e-01
9.432408771e-01,3.21778e-01,9.99999e-01,9.47948e-01,5.61934e-01,6.08894e-01,9.88128e-01
9.479570815e-01,2.69726e-01,9.99999e-01,9.72880e-01,4.54363e-01,6.14890e-01,9.90327e-01
9.526968669e-01,3.36589e-01,9.99999e-01,9.86870e-01,5.51807e-01,6.20825e-01,9.94088e-01
9.574603512e-01,3.56577e-01,9.99999e-01,9.94370e-01,5.73624e-01,6.26698e-01,9.96992e-01
9.622476530e-01,4.00681e-01,9.99999e-01,9.98244e-01,6.35821e-01,6.32510e-01,9.97919e-01
9.670588912e-01,4.90142e-01,9.99999e-01,9.99474e-01,7.69359e-01,6.38259e-01,9.98636e-01
9.718941857e-01,5.45310e-01,9.99999e-01,9.99963e-01,8.47739e-01,6.43944e-01,9.98955e-01
9.767536566e-01,5.65823e-01,9.99999e-01,9.99999e-01,8.71774e-01,6.49567e-01,9.99198e-01
9.816374249e-01,5.91754e-01,9.99999e-01,9.99999e-01,9.03517e-01,6.55127e-01,9.99722e-01
9.865456120e-01,6.20004e-01,9.99999e-01,9.99999e-01,9.38568e-01,6.60622e-01,9.99941e-01
9.914783401e-01,6.40425e-01,9.99999e-01,9.99999e-01,9.61535e-01,6.66054e-01,9.99983e-01
9.964357318e-01,6.57232e-01,9.99999e-01,9.99999e-01,9.78873e-01,6.71422e-01,9.99990e-01
1.001417910e+00,6.68119e-01,9.99999e-01,9.99999e-01,9.87294e-01,6.76726e-01,9.99985e-01
1.006425000e+00,6.76986e-01,9.99999e-01,9.99999e-01,9.92717e-01,6.81966e-01,9.99979e-01
1.011457125e+00,6.84029e-01,9.99999e-01,9.99999e-01,9.95488e-01,6.87142e-01,9.99980e-01
1.016514411e+00,6.90119e-01,9.99999e-01,9.99999e-01,9.96930e-01,6.92253e-01,9.99986e-01
1.021596983e+00,6.95523e-01,9.99999e-01,9.99911e-01,9.97550e-01,6.97301e-01,9.99986e-01
1.026704968e+00,6.97002e-01,9.99999e-01,9.94382e-01,9.98088e-01,7.02284e-01,9.99991e-01
1.031838492e+00,6.62637e-01,9.99999e-01,9.38230e-01,9.98613e-01,7.07204e-01,9.99997e-01
1.036997685e+00,7.52861e-02,9.99999e-01,1.05798e-01,9.99174e-01,7.12060e-01,9.99999e-01
1.042182673e+00,3.69225e-02,9.99999e-01,5.15498e-02,9.99011e-01,7.16853e-01,9.99999e-01
1.047393587e+00,5.30278e-02,9.99999e-01,7.35718e-02,9.98691e-01,7.21582e-01,9.99999e-01
1.052630555e+00,3.98751e-04,9.99999e-01,5.49745e-04,9.98202e-01,7.26247e-01,9.99999e-01
1.057893707e+00,1.25405e-03,9.99999e-01,1.71910e-03,9.96994e-01,7.30850e-01,9.99998e-01
1.063183176e+00,6.44288e-03,9.99999e-01,8.79015e-03,9.95064e-01,7.35391e-01,9.99996e-01
1.068499092e+00,2.49334e-02,9.99999e-01,3.39214e-02,9.91762e-01,7.39869e-01,9.99993e-01
1.073841587e+00,8.68793e-02,9.99999e-01,1.17659e-01,9.90342e-01,7.44285e-01,9.99987e-01
1.079210795e+00,1.90994e-01,9.99999e-01,2.57921e-01,9.87690e-01,7.48640e-01,9.99966e-01
1.084606849e+00,3.49423e-01,9.99999e-01,4.72363e-01,9.81382e-01,7.52933e-01,9.99920e-01
1.090029883e+00,4.98929e-01,9.99999e-01,6.76506e-01,9.73155e-01,7.57165e-01,9.99835e-01
1.095480033e+00,5.83849e-01,9.99999e-01,8.25011e-01,9.28744e-01,7.61337e-01,9.99702e-01
1.100957433e+00,5.78886e-01,9.99999e-01,9.11335e-01,8.29139e-01,7.65449e-01,9.99452e-01
1.106462220e+00,4.62082e-01,9.99999e-01,9.62399e-01,6.23316e-01,7.69501e-01,9.99071e-01
1.111994531e+00,2.86171e-01,9.99999e-01,9.85890e-01,3.75663e-01,7.73493e-01,9.97537e-01
1.117554504e+00,1.60448e-01,9.99999e-01,9.96560e-01,2.08769e-01,7.77427e-01,9.91140e-01
1.123142276e+00,2.50392e-01,9.99999e-01,9.99775e-01,3.27340e-01,7.81303e-01,9.79118e-01
1.128757988e+00,3.66449e-01,9.99999e-01,9.99999e-01,4.78275e-01,7.85121e-01,9.75883e-01
1.134401778e+00,1.90346e-01,9.99999e-01,9.99999e-01,2.46347e-01,7.88882e-01,9.79456e-01
1.140073787e+00,4.98058e-01,9.99999e-01,9.99999e-01,6.38905e-01,7.92586e-01,9.83551e-01
1.145774156e+00,3.14658e-01,9.99999e-01,9.99999e-01,4.01228e-01,7.96233e-01,9.84933e-01
1.151503026e+00,2.88175e-01,9.99999e-01,9.99999e-01,3.63357e-01,7.99825e-01,9.91578e-01
1.157260541e+00,3.37552e-01,9.99999e-01,9.99999e-01,4.21238e-01,8.03361e-01,9.97474e-01
1.163046844e+00,4.25267e-01,9.99999e-01,9.99999e-01,5.27452e-01,8.06843e-01,9.99283e-01
1.168862078e+00,5.17473e-01,9.99999e-01,9.99999e-01,6.38879e-01,8.10271e-01,9.99626e-01
1.174706389e+00,6.16605e-01,9.99999e-01,9.99999e-01,7.58219e-01,8.13645e-01,9.99485e-01
1.180579921e+00,6.89638e-01,9.99999e-01,9.99999e-01,8.44769e-01,8.16967e-01,9.99259e-01
1.186482820e+00,7.44907e-01,9.99999e-01,9.99985e-01,9.08863e-01,8.20235e-01,9.99240e-01
1.192415234e+00,7.63044e-01,9.99999e-01,9.80113e-01,9.45673e-01,8.23452e-01,9.99430e-01
1.198377311e+00,4.36271e-01,9.99999e-01,5.49250e-01,9.53919e-01,8.26618e-01,9.99459e-01
1.204369197e+00,2.44694e-15,9.99999e-01,3.02743e-15,9.56412e-01,8.29733e-01,9.99529e-01
1.210391043e+00,1.93303e-58,9.99999e-01,2.37744e-58,9.58274e-01,8.32797e-01,9.99703e-01
1.216442998e+00,9.87513e-51,9.99999e-01,1.20853e-50,9.64487e-01,8.35812e-01,9.99818e-01
1.222525213e+00,5.51415e-50,9.99999e-01,6.67103e-50,9.72206e-01,8.38779e-01,9.99887e-01
1.228637839e+00,1.04833e-38,9.99999e-01,1.26235e-38,9.80603e-01,8.41696e-01,9.99947e-01
