#,Wave/freq,Total,N2,CO2,H2O,Rayleigh,CIA
4.000000000e-01,4.18220e-05,9.99999e-01,9.99999e-01,9.99980e-01,4.18229e-05,9.99999e-01
4.020000000e-01,5.10489e-05,9.99999e-01,9.99999e-01,9.99987e-01,5.10495e-05,9.99999e-01
4.040100000e-01,6.20536e-05,9.99999e-01,9.99999e-01,9.99994e-01,6.20540e-05,9.99999e-01
4.060300500e-01,7.51402e-05,9.99999e-01,9.99999e-01,9.99998e-01,7.51403e-05,9.99999e-01
4.080602003e-01,9.06430e-05,9.99999e-01,9.99999e-01,9.99999e-01,9.06430e-05,9.99999e-01
4.101005013e-01,1.08940e-04,9.99999e-01,9.99999e-01,9.99999e-01,1.08940e-04,9.99999e-01
4.121510038e-01,1.30455e-04,9.99999e-01,9.99999e-01,9.99998e-01,1.30456e-04,9.99999e-01
4.142117588e-01,1.55664e-04,9.99999e-01,9.99999e-01,9.99994e-01,1.55665e-04,9.99999e-01
4.162828176e-01,1.85095e-04,9.99999e-01,9.99999e-01,9.99975e-01,1.85100e-04,9.99999e-01
4.183642317e-01,2.19345e-04,9.99999e-01,9.99999e-01,9.99985e-01,2.19348e-04,9.99999e-01
4.204560528e-01,2.59060e-04,9.99999e-01,9.99999e-01,9.99990e-01,2.59063e-04,9.99999e-01
4.225583331e-01,3.04963e-04,9.99999e-01,9.99999e-01,9.99996e-01,3.04964e-04,9.99999e-01
4.246711247e-01,3.57843e-04,9.99999e-01,9.99999e-01,9.99996e-01,3.57844e-04,9.99999e-01
4.267944804e-01,4.18567e-04,9.99999e-01,9.99999e-01,9.99995e-01,4.18569e-04,9.99999e-01
4.289284528e-01,4.88084e-04,9.99999e-01,9.99999e-01,9.99996e-01,4.88085e-04,9.99999e-01
4.310730950e-01,5.67421e-04,9.99999e-01,9.99999e-01,9.99998e-01,5.67422e-04,9.99999e-01
4.332284605e-01,6.57694e-04,9.99999e-01,9.99999e-01,9.99999e-01,6.57695e-04,9.99999e-01
4.353946028e-01,7.60109e-04,9.99999e-01,9.99999e-01,9.99999e-01,7.60109e-04,9.99999e-01
4.375715758e-01,8.75963e-04,9.99999e-01,9.99999e-01,9.99997e-01,8.75965e-04,9.99999e-01
4.397594337e-01,1.00663e-03,9.99999e-01,9.99999e-01,9.99978e-01,1.00665e-03,9.99999e-01
4.419582309e-01,1.15354e-03,9.99999e-01,9.99999e-01,9.99893e-01,1.15367e-03,9.99999e-01
4.441680220e-01,1.31849e-03,9.99999e-01,9.99999e-01,9.99915e-01,1.31860e-03,9.99999e-01
4.463888621e-01,1.50300e-03,9.99999e-01,9.99999e-01,9.99912e-01,1.50313e-03,9.99999e-01
4.486208064e-01,1.70897e-03,9.99999e-01,9.99999e-01,9.99945e-01,1.70906e-03,9.99999e-01
4.508639105e-01,1.93824e-03,9.99999e-01,9.99999e-01,9.99974e-01,1.93829e-03,9.99999e-01
4.531182300e-01,2.19277e-03,9.99999e-01,9.99999e-01,9.99989e-01,2.19280e-03,9.99999e-01
4.553838212e-01,2.47467e-03,9.99999e-01,9.99999e-01,9.99992e-01,2.47469e-03,9.99999e-01
4.576607403e-01,2.78614e-03,9.99999e-01,9.99999e-01,9.99996e-01,2.78615e-03,9.99999e-01
4.599490440e-01,3.12947e-03,9.99999e-01,9.99999e-01,9.99997e-01,3.12948e-03,9.99999e-01
4.622487892e-01,3.50705e-03,9.99999e-01,9.99999e-01,9.99999e-01,3.50705e-03,9.99999e-01
4.645600332e-01,3.92135e-03,9.99999e-01,9.99999e-01,9.99998e-01,3.92135e-03,9.99999e-01
4.668828333e-01,4.37482e-03,9.99999e-01,9.99999e-01,9.99974e-01,4.37493e-03,9.99999e-01
4.692172475e-01,4.87017e-03,9.99999e-01,9.99999e-01,9.99944e-01,4.87044e-03,9.99999e-01
4.715633337e-01,5.41039e-03,9.99999e-01,9.99999e-01,9.99963e-01,5.41059e-03,9.99999e-01
4.739211504e-01,5.99796e-03,9.99999e-01,9.99999e-01,9.99965e-01,5.99817e-03,9.99999e-01
4.762907561e-01,6.63591e-03,9.99999e-01,9.99999e-01,9.99981e-01,6.63603e-03,9.99999e-01
4.786722099e-01,7.32702e-03,9.99999e-01,9.99999e-01,9.99992e-01,7.32708e-03,9.99999e-01
4.810655710e-01,8.07426e-03,9.99999e-01,9.99999e-01,9.99997e-01,8.07428e-03,9.99999e-01
4.834708988e-01,8.88044e-03,9.99999e-01,9.99999e-01,9.99978e-01,8.88063e-03,9.99999e-01
4.858882533e-01,9.74878e-03,9.99999e-01,9.99999e-01,9.99960e-01,9.74915e-03,9.99999e-01
4.883176946e-01,1.06826e-02,9.99999e-01,9.99999e-01,9.99967e-01,1.06829e-02,9.99999e-01
4.907592831e-01,1.16846e-02,9.99999e-01,9.99999e-01,9.99970e-01,1.16850e-02,9.99999e-01
4.932130795e-01,1.27582e-02,9.99999e-01,9.99999e-01,9.99978e-01,1.27584e-02,9.99999e-01
4.956791449e-01,1.39062e-02,9.99999e-01,9.99999e-01,9.99988e-01,1.39063e-02,9.99999e-01
4.981575406e-01,1.51309e-02,9.99999e-01,9.99999e-01,9.99944e-01,1.51317e-02,9.99999e-01
5.006483283e-01,1.64353e-02,9.99999e-01,9.99999e-01,9.99858e-01,1.64377e-02,9.99998e-01
5.031515699e-01,1.78142e-02,9.99999e-01,9.99999e-01,9.99279e-01,1.78271e-02,9.99991e-01
5.056673278e-01,1.92956e-02,9.99999e-01,9.99999e-01,9.99618e-01,1.93031e-02,9.99990e-01
5.081956644e-01,2.08583e-02,9.99999e-01,9.99999e-01,9.99518e-01,2.08685e-02,9.99993e-01
5.107366428e-01,2.25187e-02,9.99999e-01,9.99999e-01,9.99674e-01,2.25260e-02,9.99998e-01
5.132903260e-01,2.42741e-02,9.99999e-01,9.99999e-01,9.99813e-01,2.42786e-02,9.99999e-01
5.158567776e-01,2.61267e-02,9.99999e-01,9.99999e-01,9.99921e-01,2.61288e-02,9.99999e-01
5.184360615e-01,2.80783e-02,9.99999e-01,9.99999e-01,9.99968e-01,2.80792e-02,9.99999e-01
5.210282418e-01,3.01320e-02,9.99999e-01,9.99999e-01,9.99987e-01,3.01324e-02,9.99999e-01
5.236333830e-01,3.22891e-02,9.99999e-01,9.99999e-01,9.99952e-01,3.22906e-02,9.99999e-01
5.262515499e-01,3.45551e-02,9.99999e-01,9.99999e-01,9.99970e-01,3.45561e-02,9.99999e-01
5.288828077e-01,3.69302e-02,9.99999e-01,9.99999e-01,9.99972e-01,3.69312e-02,9.99999e-01
5.315272217e-01,3.94167e-02,9.99999e-01,9.99999e-01,9.99975e-01,3.94176e-02,9.99999e-01
5.341848578e-01,4.20167e-02,9.99999e-01,9.99999e-01,9.99984e-01,4.20174e-02,9.99999e-01
5.368557821e-01,4.47297e-02,9.99999e-01,9.99999e-01,9.99944e-01,4.47322e-02,9.99999e-01
5.395400610e-01,4.75540e-02,9.99999e-01,9.99999e-01,9.99803e-01,4.75635e-02,9.99997e-01
5.422377613e-01,5.04996e-02,9.99999e-01,9.99999e-01,9.99743e-01,5.05127e-02,9.99994e-01
5.449489501e-01,5.35682e-02,9.99999e-01,9.99999e-01,9.99762e-01,5.35811e-02,9.99994e-01
5.476736949e-01,5.67576e-02,9.99999e-01,9.99999e-01,9.99788e-01,5.67697e-02,9.99997e-01
5.504120634e-01,6.00702e-02,9.99999e-01,9.99999e-01,9.99846e-01,6.00795e-02,9.99998e-01
5.531641237e-01,6.35061e-02,9.99999e-01,9.99999e-01,9.99922e-01,6.35110e-02,9.99999e-01
5.559299443e-01,6.70625e-02,9.99999e-01,9.99999e-01,9.99962e-01,6.70650e-02,9.99999e-01
5.587095940e-01,7.07401e-02,9.99999e-01,9.99999e-01,9.99976e-01,7.07417e-02,9.99999e-01
5.615031420e-01,7.45394e-02,9.99999e-01,9.99999e-01,9.99973e-01,7.45413e-02,9.99999e-01
5.643106577e-01,7.84617e-02,9.99999e-01,9.99999e-01,9.99970e-01,7.84640e-02,9.99999e-01
5.671322110e-01,8.24800e-02,9.99999e-01,9.99999e-01,9.99646e-01,8.25094e-02,9.99996e-01
5.699678720e-01,8.66433e-02,9.99999e-01,9.99999e-01,9.99618e-01,8.66772e-02,9.99989e-01
5.728177114e-01,9.09304e-02,9.99999e-01,9.99999e-01,9.99605e-01,9.09670e-02,9.99991e-01
5.756818000e-01,9.53430e-02,9.99999e-01,9.99999e-01,9.99637e-01,9.53781e-02,9.99994e-01
5.785602090e-01,9.98778e-02,9.99999e-01,9.99999e-01,9.99683e-01,9.99095e-02,9.99998e-01
5.814530100e-01,1.04527e-01,9.99999e-01,9.99999e-01,9.99682e-01,1.04560e-01,9.99998e-01
5.843602750e-01,1.09288e-01,9.99999e-01,9.99999e-01,9.99623e-01,1.09329e-01,9.99997e-01
5.872820764e-01,1.13842e-01,9.99999e-01,9.99999e-01,9.96752e-01,1.14215e-01,9.99976e-01
5.902184868e-01,1.18738e-01,9.99999e-01,9.99999e-01,9.96046e-01,1.19217e-01,9.99937e-01
5.931695792e-01,1.23977e-01,9.99999e-01,9.99999e-01,9.97210e-01,1.24332e-01,9.99938e-01
5.961354271e-01,1.29157e-01,9.99999e-01,9.99999e-01,9.96938e-01,1.29558e-01,9.99962e-01
5.991161043e-01,1.34592e-01,9.99999e-01,9.99999e-01,9.97765e-01,1.34895e-01,9.99988e-01
6.021116848e-01,1.40162e-01,9.99999e-01,9.99999e-01,9.98730e-01,1.40340e-01,9.99998e-01
6.051222432e-01,1.45797e-01,9.99999e-01,9.99999e-01,9.99357e-01,1.45890e-01,9.99999e-01
6.081478544e-01,1.51502e-01,9.99999e-01,9.99999e-01,9.99722e-01,1.51544e-01,9.99999e-01
6.111885937e-01,1.57280e-01,9.99999e-01,9.99999e-01,9.99882e-01,1.57299e-01,9.99999e-01
6.142445367e-01,1.63143e-01,9.99999e-01,9.99999e-01,9.99947e-01,1.63152e-01,9.99999e-01
6.173157594e-01,1.69096e-01,9.99999e-01,9.99999e-01,9.99970e-01,1.69101e-01,9.99999e-01
6.204023382e-01,1.75138e-01,9.99999e-01,9.99999e-01,9.99975e-01,1.75142e-01,9.99999e-01
6.235043498e-01,1.81255e-01,9.99999e-01,9.99999e-01,9.99893e-01,1.81274e-01,9.99999e-01
6.266218716e-01,1.87386e-01,9.99999e-01,9.99999e-01,9.99431e-01,1.87493e-01,9.99995e-01
6.297549810e-01,1.93755e-01,9.99999e-01,9.99999e-01,9.99791e-01,1.93797e-01,9.99991e-01
6.329037559e-01,2.00097e-01,9.99999e-01,9.99999e-01,9.99587e-01,2.00181e-01,9.99993e-01
6.360682746e-01,2.06570e-01,9.99999e-01,9.99999e-01,9.99649e-01,2.06643e-01,9.99995e-01
6.392486160e-01,2.13083e-01,9.99999e-01,9.99999e-01,9.99545e-01,2.13181e-01,9.99997e-01
6.424448591e-01,2.19656e-01,9.99999e-01,9.99999e-01,9.99394e-01,2.19789e-01,9.99996e-01
6.456570834e-01,2.25826e-01,9.99999e-01,9.99999e-01,9.97187e-01,2.26466e-01,9.99983e-01
6.488853688e-01,2.32715e-01,9.99999e-01,9.99999e-01,9.97928e-01,2.33208e-01,9.99955e-01
6.521297956e-01,2.39496e-01,9.99999e-01,9.99999e-01,9.97887e-01,2.40012e-01,9.99962e-01
6.553904446e-01,2.46351e-01,9.99999e-01,9.99999e-01,9.97912e-01,2.46873e-01,9.99971e-01
6.586673968e-01,2.53331e-01,9.99999e-01,9.99999e-01,9.98199e-01,2.53790e-01,9.99990e-01
6.619607338e-01,2.60486e-01,9.99999e-01,9.99999e-01,9.98959e-01,2.60758e-01,9.99997e-01
6.652705375e-01,2.67612e-01,9.99999e-01,9.99999e-01,9.99396e-01,2.67774e-01,9.99998e-01
6.685968902e-01,2.74758e-01,9.99999e-01,9.99999e-01,9.99719e-01,2.74835e-01,9.99999e-01
6.719398746e-01,2.81900e-01,9.99999e-01,9.99999e-01,9.99869e-01,2.81936e-01,9.99999e-01
6.752995740e-01,2.89056e-01,9.99999e-01,9.99999e-01,9.99929e-01,2.89076e-01,9.99999e-01
6.786760719e-01,2.96220e-01,9.99999e-01,9.99999e-01,9.99898e-01,2.96250e-01,9.99999e-01
6.820694522e-01,3.03402e-01,9.99999e-01,9.99999e-01,9.99826e-01,3.03455e-01,9.99998e-01
6.854797995e-01,3.10618e-01,9.99999e-01,9.99999e-01,9.99776e-01,3.10688e-01,9.99997e-01
6.889071985e-01,3.17773e-01,9.99999e-01,9.99999e-01,9.99463e-01,3.17945e-01,9.99994e-01
6.923517345e-01,3.22352e-01,9.99999e-01,9.99999e-01,9.91211e-01,3.25223e-01,9.99957e-01
6.958134932e-01,3.30949e-01,9.99999e-01,9.99999e-01,9.95370e-01,3.32520e-01,9.99903e-01
6.992925606e-01,3.38324e-01,9.99999e-01,9.99999e-01,9.95650e-01,3.39831e-01,9.99915e-01
7.027890234e-01,3.45259e-01,9.99999e-01,9.99999e-01,9.94607e-01,3.47153e-01,9.99935e-01
7.063029686e-01,3.52867e-01,9.99999e-01,9.99999e-01,9.95468e-01,3.54485e-01,9.99967e-01
7.098344834e-01,3.60241e-01,9.99999e-01,9.99999e-01,9.95651e-01,3.61821e-01,9.99980e-01
7.133836558e-01,3.67022e-01,9.99999e-01,9.99999e-01,9.94245e-01,3.69160e-01,9.99961e-01
7.169505741e-01,3.59214e-01,9.99999e-01,9.99999e-01,9.54373e-01,3.76498e-01,9.99702e-01
7.205353270e-01,3.74887e-01,9.99999e-01,9.99999e-01,9.77204e-01,3.83834e-01,9.99475e-01
7.241380036e-01,3.79793e-01,9.99999e-01,9.99999e-01,9.71373e-01,3.91162e-01,9.99547e-01
7.277586936e-01,3.88026e-01,9.99999e-01,9.99999e-01,9.74118e-01,3.98482e-01,9.99629e-01
7.313974871e-01,3.94529e-01,9.99999e-01,9.99999e-01,9.72416e-01,4.05791e-01,9.99826e-01
7.350544745e-01,4.06807e-01,9.99999e-01,9.99999e-01,9.84863e-01,4.13085e-01,9.99939e-01
7.387297469e-01,4.15659e-01,9.99999e-01,9.99999e-01,9.88839e-01,4.20362e-01,9.99971e-01
7.424233956e-01,4.25274e-01,9.99999e-01,9.99999e-01,9.94519e-01,4.27620e-01,9.99994e-01
7.461355126e-01,4.33411e-01,9.99999e-01,9.99999e-01,9.96679e-01,4.34856e-01,9.99998e-01
7.498661902e-01,4.41383e-01,9.99999e-01,9.99999e-01,9.98450e-01,4.42068e-01,9.99999e-01
7.536155211e-01,4.48912e-01,9.99999e-01,9.99999e-01,9.99240e-01,4.49253e-01,9.99999e-01
7.573835987e-01,4.56232e-01,9.99999e-01,9.99999e-01,9.99608e-01,4.56410e-01,9.99999e-01
7.611705167e-01,4.63424e-01,9.99999e-01,9.99999e-01,9.99756e-01,4.63536e-01,9.99999e-01
7.649763693e-01,4.70558e-01,9.99999e-01,9.99999e-01,9.99847e-01,4.70630e-01,9.99999e-01
7.688012511e-01,4.77638e-01,9.99999e-01,9.99999e-01,9.99893e-01,4.77689e-01,9.99999e-01
7.726452574e-01,4.84668e-01,9.99999e-01,9.99999e-01,9.99912e-01,4.84711e-01,9.99999e-01
7.765084837e-01,4.91634e-01,9.99999e-01,9.99999e-01,9.99876e-01,4.91694e-01,9.99999e-01
7.803910261e-01,4.82592e-01,9.99999e-01,9.68320e-01,9.99468e-01,4.98637e-01,9.99998e-01
7.842929812e-01,4.36455e-01,9.99999e-01,8.64878e-01,9.98144e-01,5.05539e-01,9.99996e-01
7.882144461e-01,4.37211e-01,9.99999e-01,8.56450e-01,9.96161e-01,5.12396e-01,9.99976e-01
7.921555184e-01,4.73419e-01,9.99999e-01,9.13737e-01,9.97888e-01,5.19209e-01,9.99954e-01
7.961162960e-01,4.93199e-01,9.99999e-01,9.41184e-01,9.96292e-01,5.25974e-01,9.99956e-01
8.000968774e-01,5.13262e-01,9.99999e-01,9.67713e-01,9.95705e-01,5.32692e-01,9.99953e-01
8.040973618e-01,5.27959e-01,9.99999e-01,9.83109e-01,9.95706e-01,5.39360e-01,9.99962e-01
8.081178486e-01,5.36511e-01,9.99999e-01,9.92230e-01,9.90375e-01,5.45978e-01,9.99965e-01
8.121584379e-01,5.29311e-01,9.99999e-01,9.97583e-01,9.60382e-01,5.52543e-01,9.99864e-01
8.162192301e-01,5.32159e-01,9.99999e-01,9.99465e-01,9.52872e-01,5.59056e-01,9.99489e-01
8.203003262e-01,5.51854e-01,9.99999e-01,9.99991e-01,9.76432e-01,5.65514e-01,9.99402e-01
8.244018279e-01,5.52634e-01,9.99999e-01,9.99999e-01,9.66740e-01,5.71918e-01,9.99524e-01
8.285238370e-01,5.61706e-01,9.99999e-01,9.99999e-01,9.71725e-01,5.78265e-01,9.99626e-01
8.326664562e-01,5.67722e-01,9.99999e-01,9.99999e-01,9.71353e-01,5.84555e-01,9.99845e-01
8.368297885e-01,5.78628e-01,9.99999e-01,9.99999e-01,9.79452e-01,5.90787e-01,9.99964e-01
8.410139374e-01,5.89633e-01,9.99999e-01,9.99999e-01,9.87743e-01,5.96961e-01,9.99978e-01
8.452190071e-01,5.99432e-01,9.99999e-01,9.99999e-01,9.93970e-01,6.03075e-01,9.99987e-01
8.494451021e-01,6.06996e-01,9.99999e-01,9.99999e-01,9.96506e-01,6.09130e-01,9.99989e-01
8.536923276e-01,6.13846e-01,9.99999e-01,9.99999e-01,9.97928e-01,6.15123e-01,9.99992e-01
8.579607893e-01,6.20264e-01,9.99999e-01,9.99999e-01,9.98726e-01,6.21056e-01,9.99997e-01
8.622505932e-01,6.26419e-01,9.99999e-01,9.99999e-01,9.99189e-01,6.26927e-01,9.99999e-01
8.665618462e-01,5.87372e-01,9.99999e-01,9.28752e-01,9.99499e-01,6.32736e-01,9.99999e-01
8.708946554e-01,4.41576e-01,9.99999e-01,6.91985e-01,9.99427e-01,6.38482e-01,9.99999e-01
8.752491287e-01,4.78318e-01,9.99999e-01,7.43091e-01,9.99234e-01,6.44166e-01,9.99998e-01
8.796253743e-01,5.51448e-01,9.99999e-01,8.49536e-01,9.98941e-01,6.49786e-01,9.99997e-01
8.840235012e-01,6.01527e-01,9.99999e-01,9.18983e-01,9.98790e-01,6.55343e-01,9.99992e-01
8.884436187e-01,6.36378e-01,9.99999e-01,9.67197e-01,9.95630e-01,6.60836e-01,9.99978e-01
8.928858368e-01,6.27445e-01,9.99999e-01,9.86603e-01,9.54531e-01,6.66265e-01,9.99878e-01
8.973502660e-01,6.15884e-01,9.99999e-01,9.96719e-01,9.20527e-01,6.71631e-01,9.99379e-01
9.018370173e-01,6.47946e-01,9.99999e-01,9.99637e-01,9.58449e-01,6.76932e-01,9.99025e-01
9.063462024e-01,6.51016e-01,9.99999e-01,9.90891e-01,9.63665e-01,6.82170e-01,9.99143e-01
9.108779334e-01,6.34623e-01,9.99999e-01,9.78957e-01,9.43749e-01,6.87343e-01,9.99110e-01
9.154323231e-01,6.44689e-01,9.99999e-01,9.94998e-01,9.36295e-01,6.92452e-01,9.99264e-01
9.200094847e-01,6.17635e-01,9.99999e-01,9.30393e-01,9.49676e-01,6.97497e-01,9.99587e-01
9.246095321e-01,5.85139e-01,9.99999e-01,9.01174e-01,9.23104e-01,7.02478e-01,9.99525e-01
9.292325798e-01,3.83311e-01,9.99999e-01,9.22076e-01,5.83927e-01,7.07395e-01,9.98151e-01
9.338787427e-01,3.27920e-01,9.99999e-01,9.24204e-01,4.97920e-01,7.12249e-01,9.92381e-01
9.385481364e-01,5.07700e-01,9.99999e-01,9.43752e-01,7.54656e-01,7.17039e-01,9.90945e-01
9.432408771e-01,4.69162e-01,9.99999e-01,9.65132e-01,6.77529e-01,7.21765e-01,9.92183e-01
9.479570815e-01,4.15076e-01,9.99999e-01,9.81986e-01,5.85048e-01,7.26429e-01,9.93633e-01
9.526968669e-01,4.82195e-01,9.99999e-01,9.91266e-01,6.67514e-01,7.31029e-01,9.96112e-01
9.574603512e-01,5.04375e-01,9.99999e-01,9.96255e-01,6.89471e-01,7.35567e-01,9.98022e-01
9.622476530e-01,5.45166e-01,9.99999e-01,9.98830e-01,7.38491e-01,7.40043e-01,9.98632e-01
9.670588912e-01,6.24411e-01,9.99999e-01,9.99648e-01,8.39812e-01,7.44457e-01,9.99064e-01
9.718941857e-01,6.70969e-01,9.99999e-01,9.99974e-01,8.96687e-01,7.48809e-01,9.99311e-01
9.767536566e-01,6.87577e-01,9.99999e-01,9.99999e-01,9.13476e-01,7.53100e-01,9.99473e-01
9.816374249e-01,7.08022e-01,9.99999e-01,9.99999e-01,9.35062e-01,7.57329e-01,9.99817e-01
9.865456120e-01,7.30191e-01,9.99999e-01,9.99999e-01,9.58922e-01,7.61499e-01,9.99961e-01
9.914783401e-01,7.46018e-01,9.99999e-01,9.99999e-01,9.74421e-01,7.65608e-01,9.99988e-01
9.964357318e-01,7.58870e-01,9.99999e-01,9.99999e-01,9.85989e-01,7.69658e-01,9.99993e-01
1.001417910e+00,7.67127e-01,9.99999e-01,9.99999e-01,9.91579e-01,7.73648e-01,9.99990e-01
1.006425000e+00,7.73836e-01,9.99999e-01,9.99999e-01,9.95197e-01,7.77580e-01,9.99986e-01
1.011457125e+00,7.79110e-01,9.99999e-01,9.99999e-01,9.97012e-01,7.81454e-01,9.99987e-01
1.016514411e+00,7.83671e-01,9.99999e-01,9.99999e-01,9.97972e-01,7.85269e-01,9.99990e-01
1.021596983e+00,7.87711e-01,9.99999e-01,9.99953e-01,9.98385e-01,7.89028e-01,9.99990e-01
1.026704968e+00,7.88917e-01,9.99999e-01,9.96449e-01,9.98740e-01,7.92729e-01,9.99993e-01
1.031838492e+00,7.62872e-01,9.99999e-01,9.58785e-01,9.99083e-01,7.96375e-01,9.99997e-01
1.036997685e+00,1.27976e-01,9.99999e-01,1.60046e-01,9.99456e-01,7.99964e-01,9.99999e-01
1.042182673e+00,1.04425e-01,9.99999e-01,1.30038e-01,9.99352e-01,8.03499e-01,9.99999e-01
1.047393587e+00,1.22453e-01,9.99999e-01,1.51858e-01,9.99141e-01,8.06978e-01,9.99999e-01
1.052630555e+00,3.88377e-03,9.99999e-01,4.79655e-03,9.98822e-01,8.10404e-01,9.99999e-01
1.057893707e+00,9.60706e-03,9.99999e-01,1.18213e-02,9.98036e-01,8.13776e-01,9.99998e-01
1.063183176e+00,3.10289e-02,9.99999e-01,3.80634e-02,9.96768e-01,8.17095e-01,9.99997e-01
1.068499092e+00,8.49155e-02,9.99999e-01,1.03986e-01,9.94588e-01,8.20362e-01,9.99995e-01
1.073841587e+00,1.95518e-01,9.99999e-01,2.38693e-01,9.93674e-01,8.23577e-01,9.99991e-01
1.079210795e+00,3.31356e-01,9.99999e-01,4.03803e-01,9.91886e-01,8.26741e-01,9.99977e-01
1.084606849e+00,4.97759e-01,9.99999e-01,6.06951e-01,9.87750e-01,8.29853e-01,9.99947e-01
1.090029883e+00,6.31823e-01,9.99999e-01,7.71808e-01,9.82497e-01,8.32916e-01,9.99891e-01
1.095480033e+00,7.01322e-01,9.99999e-01,8.80109e-01,9.52969e-01,8.35929e-01,9.99804e-01
1.100957433e+00,6.98131e-01,9.99999e-01,9.40348e-01,8.84776e-01,8.38894e-01,9.99639e-01
1.106462220e+00,6.01822e-01,9.99999e-01,9.74873e-01,7.33151e-01,8.41810e-01,9.99389e-01
1.111994531e+00,4.34987e-01,9.99999e-01,9.90613e-01,5.20360e-01,8.44678e-01,9.98381e-01
1.117554504e+00,2.92761e-01,9.99999e-01,9.97695e-01,3.48125e-01,8.47499e-01,9.94169e-01
1.123142276e+00,3.87110e-01,9.99999e-01,9.99847e-01,4.61668e-01,8.50273e-01,9.86230e-01
1.128757988e+00,5.10878e-01,9.99999e-01,9.99999e-01,6.08601e-01,8.53002e-01,9.84087e-01
1.134401778e+00,2.92567e-01,9.99999e-01,9.99999e-01,3.46604e-01,8.55685e-01,9.86453e-01
1.140073787e+00,6.30802e-01,9.99999e-01,9.99999e-01,7.42976e-01,8.58323e-01,9.89161e-01
1.145774156e+00,4.59303e-01,9.99999e-01,9.99999e-01,5.38852e-01,8.60917e-01,9.90074e-01
1.151503026e+00,4.31837e-01,9.99999e-01,9.99999e-01,5.02906e-01,8.63468e-01,9.94458e-01
1.157260541e+00,4.85668e-01,9.99999e-01,9.99999e-01,5.61766e-01,8.65975e-01,9.98339e-01
1.163046844e+00,5.66318e-01,9.99999e-01,9.99999e-01,6.52416e-01,8.68440e-01,9.99528e-01
1.168862078e+00,6.46841e-01,9.99999e-01,9.99999e-01,7.42938e-01,8.70863e-01,9.99756e-01
1.174706389e+00,7.26721e-01,9.99999e-01,9.99999e-01,8.32474e-01,8.73245e-01,9.99678e-01
1.180579921e+00,7.82668e-01,9.99999e-01,9.99999e-01,8.94313e-01,8.75586e-01,9.99513e-01
1.186482820e+00,8.23802e-01,9.99999e-01,9.99994e-01,9.38865e-01,8.77886e-01,9.99500e-01
1.192415234e+00,8.37472e-01,9.99999e-01,9.87402e-01,9.63880e-01,8.80148e-01,9.99625e-01
1.198377311e+00,4.84016e-01,9.99999e-01,5.63135e-01,9.69499e-01,8.82370e-01,9.99646e-01
1.204369197e+00,7.54064e-11,9.99999e-01,8.67306e-11,9.71099e-01,8.84554e-01,9.99680e-01
1.210391043e+00,3.61445e-39,9.99999e-01,4.14101e-39,9.72343e-01,8.86700e-01,9.99805e-01
1.216442998e+00,4.19301e-34,9.99999e-01,4.78820e-34,9.76398e-01,8.88808e-01,9.99880e-01
1.222525213e+00,1.29938e-33,9.99999e-01,1.47264e-33,9.81589e-01,8.90880e-01,9.99925e-01
1.228637839e+00,4.94669e-26,9.99999e-01,5.58987e-26,9.87186e-01,8.92916e-01,9.99965e-01
