#,Wave/freq,Total,N2,CO2,H2O,Rayleigh,CIA
4.000000000e-01,2.52119e-14,9.99999e-01,9.99999e-01,9.99939e-01,2.52135e-14,9.99999e-01
4.020000000e-01,4.68274e-14,9.99999e-01,9.99999e-01,9.99961e-01,4.68292e-14,9.99999e-01
4.040100000e-01,8.58618e-14,9.99999e-01,9.99999e-01,9.99983e-01,8.58631e-14,9.99999e-01
4.060300500e-01,1.55559e-13,9.99999e-01,9.99999e-01,9.99995e-01,1.55559e-13,9.99999e-01
4.080602003e-01,2.78540e-13,9.99999e-01,9.99999e-01,9.99998e-01,2.78540e-13,9.99999e-01
4.101005013e-01,4.93041e-13,9.99999e-01,9.99999e-01,9.99999e-01,4.93041e-13,9.99999e-01
4.121510038e-01,8.62935e-13,9.99999e-01,9.99999e-01,9.99997e-01,8.62936e-13,9.99999e-01
4.142117588e-01,1.49371e-12,9.99999e-01,9.99999e-01,9.99983e-01,1.49373e-12,9.99999e-01
4.162828176e-01,2.55757e-12,9.99999e-01,9.99999e-01,9.99924e-01,2.55776e-12,9.99999e-01
4.183642317e-01,4.33326e-12,9.99999e-01,9.99999e-01,9.99955e-01,4.33345e-12,9.99999e-01
4.204560528e-01,7.26562e-12,9.99999e-01,9.99999e-01,9.99972e-01,7.26582e-12,9.99999e-01
4.225583331e-01,1.20586e-11,9.99999e-01,9.99999e-01,9.99989e-01,1.20587e-11,9.99999e-01
4.246711247e-01,1.98139e-11,9.99999e-01,9.99999e-01,9.99991e-01,1.98141e-11,9.99999e-01
4.267944804e-01,3.22388e-11,9.99999e-01,9.99999e-01,9.99987e-01,3.22392e-11,9.99999e-01
4.289284528e-01,5.19536e-11,9.99999e-01,9.99999e-01,9.99990e-01,5.19541e-11,9.99999e-01
4.310730950e-01,8.29393e-11,9.99999e-01,9.99999e-01,9.99995e-01,8.29396e-11,9.99999e-01
4.332284605e-01,1.31187e-10,9.99999e-01,9.99999e-01,9.99998e-01,1.31187e-10,9.99999e-01
4.353946028e-01,2.05630e-10,9.99999e-01,9.99999e-01,9.99999e-01,2.05630e-10,9.99999e-01
4.375715758e-01,3.19466e-10,9.99999e-01,9.99999e-01,9.99992e-01,3.19468e-10,9.99999e-01
4.397594337e-01,4.91995e-10,9.99999e-01,9.99999e-01,9.99934e-01,4.92027e-10,9.99999e-01
4.419582309e-01,7.51109e-10,9.99999e-01,9.99999e-01,9.99671e-01,7.51355e-10,9.99999e-01
4.441680220e-01,1.13751e-09,9.99999e-01,9.99999e-01,9.99738e-01,1.13781e-09,9.99999e-01
4.463888621e-01,1.70851e-09,9.99999e-01,9.99999e-01,9.99729e-01,1.70897e-09,9.99999e-01
4.486208064e-01,2.54587e-09,9.99999e-01,9.99999e-01,9.99830e-01,2.54630e-09,9.99999e-01
4.508639105e-01,3.76383e-09,9.99999e-01,9.99999e-01,9.99920e-01,3.76413e-09,9.99999e-01
4.531182300e-01,5.52144e-09,9.99999e-01,9.99999e-01,9.99968e-01,5.52161e-09,9.99999e-01
4.553838212e-01,8.03844e-09,9.99999e-01,9.99999e-01,9.99978e-01,8.03861e-09,9.99999e-01
4.576607403e-01,1.16163e-08,9.99999e-01,9.99999e-01,9.99989e-01,1.16165e-08,9.99999e-01
4.599490440e-01,1.66650e-08,9.99999e-01,9.99999e-01,9.99992e-01,1.66651e-08,9.99999e-01
4.622487892e-01,2.37381e-08,9.99999e-01,9.99999e-01,9.99998e-01,2.37381e-08,9.99999e-01
4.645600332e-01,3.35775e-08,9.99999e-01,9.99999e-01,9.99994e-01,3.35776e-08,9.99999e-01
4.668828333e-01,4.71677e-08,9.99999e-01,9.99999e-01,9.99920e-01,4.71715e-08,9.99999e-01
4.692172475e-01,6.58141e-08,9.99999e-01,9.99999e-01,9.99829e-01,6.58252e-08,9.99999e-01
4.715633337e-01,9.12428e-08,9.99999e-01,9.99999e-01,9.99888e-01,9.12529e-08,9.99999e-01
4.739211504e-01,1.25676e-07,9.99999e-01,9.99999e-01,9.99893e-01,1.25690e-07,9.99999e-01
4.762907561e-01,1.72021e-07,9.99999e-01,9.99999e-01,9.99944e-01,1.72030e-07,9.99999e-01
4.786722099e-01,2.33996e-07,9.99999e-01,9.99999e-01,9.99976e-01,2.34002e-07,9.99999e-01
4.810655710e-01,3.16366e-07,9.99999e-01,9.99999e-01,9.99992e-01,3.16368e-07,9.99999e-01
4.834708988e-01,4.25161e-07,9.99999e-01,9.99999e-01,9.99936e-01,4.25188e-07,9.99999e-01
4.858882533e-01,5.68041e-07,9.99999e-01,9.99999e-01,9.99879e-01,5.68109e-07,9.99999e-01
4.883176946e-01,7.54664e-07,9.99999e-01,9.99999e-01,9.99899e-01,7.54740e-07,9.99999e-01
4.907592831e-01,9.96980e-07,9.99999e-01,9.99999e-01,9.99908e-01,9.97071e-07,9.99999e-01
4.932130795e-01,1.30990e-06,9.99999e-01,9.99999e-01,9.99934e-01,1.30998e-06,9.99999e-01
4.956791449e-01,1.71179e-06,9.99999e-01,9.99999e-01,9.99965e-01,1.71185e-06,9.99999e-01
4.981575406e-01,2.22482e-06,9.99999e-01,9.99999e-01,9.99829e-01,2.22519e-06,9.99999e-01
5.006483283e-01,2.87627e-06,9.99999e-01,9.99999e-01,9.99562e-01,2.87754e-06,9.99996e-01
5.031515699e-01,3.69393e-06,9.99999e-01,9.99999e-01,9.97766e-01,3.70228e-06,9.99976e-01
5.056673278e-01,4.73402e-06,9.99999e-01,9.99999e-01,9.98816e-01,4.73975e-06,9.99972e-01
5.081956644e-01,6.02929e-06,9.99999e-01,9.99999e-01,9.98506e-01,6.03841e-06,9.99982e-01
5.107366428e-01,7.64843e-06,9.99999e-01,9.99999e-01,9.98990e-01,7.65618e-06,9.99996e-01
5.132903260e-01,9.65639e-06,9.99999e-01,9.99999e-01,9.99421e-01,9.66197e-06,9.99999e-01
5.158567776e-01,1.21344e-05,9.99999e-01,9.99999e-01,9.99755e-01,1.21373e-05,9.99999e-01
5.184360615e-01,1.51768e-05,9.99999e-01,9.99999e-01,9.99901e-01,1.51783e-05,9.99999e-01
5.210282418e-01,1.88969e-05,9.99999e-01,9.99999e-01,9.99963e-01,1.88976e-05,9.99999e-01
5.236333830e-01,2.34232e-05,9.99999e-01,9.99999e-01,9.99853e-01,2.34266e-05,9.99998e-01
5.262515499e-01,2.89154e-05,9.99999e-01,9.99999e-01,9.99908e-01,2.89180e-05,9.99998e-01
5.288828077e-01,3.55456e-05,9.99999e-01,9.99999e-01,9.99916e-01,3.55486e-05,9.99998e-01
5.315272217e-01,4.35183e-05,9.99999e-01,9.99999e-01,9.99925e-01,4.35216e-05,9.99999e-01
5.341848578e-01,5.30677e-05,9.99999e-01,9.99999e-01,9.99951e-01,5.30702e-05,9.99999e-01
5.368557821e-01,6.44499e-05,9.99999e-01,9.99999e-01,9.99830e-01,6.44608e-05,9.99999e-01
5.395400610e-01,7.79483e-05,9.99999e-01,9.99999e-01,9.99393e-01,7.79960e-05,9.99994e-01
5.422377613e-01,9.39426e-05,9.99999e-01,9.99999e-01,9.99204e-01,9.40187e-05,9.99985e-01
5.449489501e-01,1.12831e-04,9.99999e-01,9.99999e-01,9.99265e-01,1.12915e-04,9.99984e-01
5.476736949e-01,1.35031e-04,9.99999e-01,9.99999e-01,9.99344e-01,1.35120e-04,9.99992e-01
5.504120634e-01,1.61043e-04,9.99999e-01,9.99999e-01,9.99524e-01,1.61120e-04,9.99997e-01
5.531641237e-01,1.91409e-04,9.99999e-01,9.99999e-01,9.99760e-01,1.91455e-04,9.99999e-01
5.559299443e-01,2.26702e-04,9.99999e-01,9.99999e-01,9.99883e-01,2.26728e-04,9.99999e-01
5.587095940e-01,2.67585e-04,9.99999e-01,9.99999e-01,9.99927e-01,2.67604e-04,9.99999e-01
5.615031420e-01,3.14792e-04,9.99999e-01,9.99999e-01,9.99919e-01,3.14818e-04,9.99999e-01
5.643106577e-01,3.69141e-04,9.99999e-01,9.99999e-01,9.99909e-01,3.69174e-04,9.99998e-01
5.671322110e-01,4.31084e-04,9.99999e-01,9.99999e-01,9.98914e-01,4.31556e-04,9.99990e-01
5.699678720e-01,5.02313e-04,9.99999e-01,9.99999e-01,9.98812e-01,5.02925e-04,9.99969e-01
5.728177114e-01,5.83599e-04,9.99999e-01,9.99999e-01,9.98776e-01,5.84328e-04,9.99974e-01
5.756818000e-01,6.76126e-04,9.99999e-01,9.99999e-01,9.98874e-01,6.76898e-04,9.99984e-01
5.785602090e-01,7.81087e-04,9.99999e-01,9.99999e-01,9.99016e-01,7.81859e-04,9.99994e-01
5.814530100e-01,8.99638e-04,9.99999e-01,9.99999e-01,9.99014e-01,9.00527e-04,9.99997e-01
5.843602750e-01,1.03310e-03,9.99999e-01,9.99999e-01,9.98835e-01,1.03431e-03,9.99992e-01
5.872820764e-01,1.17280e-03,9.99999e-01,9.99999e-01,9.89998e-01,1.18473e-03,9.99928e-01
5.902184868e-01,1.33658e-03,9.99999e-01,9.99999e-01,9.87769e-01,1.35339e-03,9.99805e-01
5.931695792e-01,1.52842e-03,9.99999e-01,9.99999e-01,9.91378e-01,1.54200e-03,9.99811e-01
5.961354271e-01,1.73558e-03,9.99999e-01,9.99999e-01,9.90526e-01,1.75238e-03,9.99885e-01
5.991161043e-01,1.97261e-03,9.99999e-01,9.99999e-01,9.93073e-01,1.98643e-03,9.99966e-01
6.021116848e-01,2.23731e-03,9.99999e-01,9.99999e-01,9.96059e-01,2.24617e-03,9.99995e-01
6.051222432e-01,2.52866e-03,9.99999e-01,9.99999e-01,9.98003e-01,2.53372e-03,9.99999e-01
6.081478544e-01,2.84883e-03,9.99999e-01,9.99999e-01,9.99139e-01,2.85128e-03,9.99999e-01
6.111885937e-01,3.20001e-03,9.99999e-01,9.99999e-01,9.99634e-01,3.20118e-03,9.99999e-01
6.142445367e-01,3.58522e-03,9.99999e-01,9.99999e-01,9.99836e-01,3.58580e-03,9.99999e-01
6.173157594e-01,4.00728e-03,9.99999e-01,9.99999e-01,9.99909e-01,4.00764e-03,9.99999e-01
6.204023382e-01,4.46895e-03,9.99999e-01,9.99999e-01,9.99924e-01,4.46928e-03,9.99999e-01
6.235043498e-01,4.97175e-03,9.99999e-01,9.99999e-01,9.99672e-01,4.97338e-03,9.99998e-01
6.266218716e-01,5.51286e-03,9.99999e-01,9.99999e-01,9.98237e-01,5.52266e-03,9.99987e-01
6.297549810e-01,6.11582e-03,9.99999e-01,9.99999e-01,9.99353e-01,6.11993e-03,9.99974e-01
6.329037559e-01,6.75925e-03,9.99999e-01,9.99999e-01,9.98718e-01,6.76805e-03,9.99979e-01
6.360682746e-01,7.46175e-03,9.99999e-01,9.99999e-01,9.98913e-01,7.46995e-03,9.99987e-01
6.392486160e-01,8.21693e-03,9.99999e-01,9.99999e-01,9.98588e-01,8.22858e-03,9.99994e-01
6.424448591e-01,9.03158e-03,9.99999e-01,9.99999e-01,9.98308e-01,9.04695e-03,9.99991e-01
6.456570834e-01,9.84220e-03,9.99999e-01,9.99999e-01,9.91395e-01,9.92810e-03,9.99951e-01
6.488853688e-01,1.07917e-02,9.99999e-01,9.99999e-01,9.92468e-01,1.08751e-02,9.99863e-01
6.521297956e-01,1.18119e-02,9.99999e-01,9.99999e-01,9.93460e-01,1.18910e-02,9.99885e-01
6.553904446e-01,1.28939e-02,9.99999e-01,9.99999e-01,9.93539e-01,1.29789e-02,9.99914e-01
6.586673968e-01,1.40625e-02,9.99999e-01,9.99999e-01,9.94413e-01,1.41418e-02,9.99971e-01
6.619607338e-01,1.53331e-02,9.99999e-01,9.99999e-01,9.96768e-01,1.53829e-02,9.99993e-01
6.652705375e-01,1.66737e-02,9.99999e-01,9.99999e-01,9.98122e-01,1.67051e-02,9.99996e-01
6.685968902e-01,1.80956e-02,9.99999e-01,9.99999e-01,9.99128e-01,1.81114e-02,9.99999e-01
6.719398746e-01,1.95968e-02,9.99999e-01,9.99999e-01,9.99595e-01,1.96048e-02,9.99999e-01
6.752995740e-01,2.11835e-02,9.99999e-01,9.99999e-01,9.99781e-01,2.11881e-02,9.99999e-01
6.786760719e-01,2.28570e-02,9.99999e-01,9.99999e-01,9.99686e-01,2.28642e-02,9.99999e-01
6.820694522e-01,2.46225e-02,9.99999e-01,9.99999e-01,9.99462e-01,2.46358e-02,9.99996e-01
6.854797995e-01,2.64870e-02,9.99999e-01,9.99999e-01,9.99307e-01,2.65055e-02,9.99993e-01
6.889071985e-01,2.84286e-02,9.99999e-01,9.99999e-01,9.98349e-01,2.84760e-02,9.99984e-01
6.923517345e-01,2.97240e-02,9.99999e-01,9.99999e-01,9.73096e-01,3.05497e-02,9.99868e-01
6.958134932e-01,3.22497e-02,9.99999e-01,9.99999e-01,9.85649e-01,3.27290e-02,9.99702e-01
6.992925606e-01,3.45380e-02,9.99999e-01,9.99999e-01,9.86607e-01,3.50160e-02,9.99738e-01
7.027890234e-01,3.67828e-02,9.99999e-01,9.99999e-01,9.83357e-01,3.74128e-02,9.99799e-01
7.063029686e-01,3.93586e-02,9.99999e-01,9.99999e-01,9.85997e-01,3.99215e-02,9.99899e-01
7.098344834e-01,4.19695e-02,9.99999e-01,9.99999e-01,9.86558e-01,4.25438e-02,9.99940e-01
7.133836558e-01,4.44782e-02,9.99999e-01,9.99999e-01,9.82376e-01,4.52814e-02,9.99882e-01
7.169505741e-01,4.16986e-02,9.99999e-01,9.99999e-01,8.67066e-01,4.81359e-02,9.99078e-01
7.205353270e-01,4.75143e-02,9.99999e-01,9.99999e-01,9.31186e-01,5.11086e-02,9.98374e-01
7.241380036e-01,4.94978e-02,9.99999e-01,9.99999e-01,9.14526e-01,5.42006e-02,9.98585e-01
7.277586936e-01,5.29004e-02,9.99999e-01,9.99999e-01,9.22484e-01,5.74130e-02,9.98824e-01
7.313974871e-01,5.56790e-02,9.99999e-01,9.99999e-01,9.17067e-01,6.07468e-02,9.99461e-01
7.350544745e-01,6.12273e-02,9.99999e-01,9.99999e-01,9.53837e-01,6.42025e-02,9.99812e-01
7.387297469e-01,6.54538e-02,9.99999e-01,9.99999e-01,9.65754e-01,6.77806e-02,9.99913e-01
7.424233956e-01,7.02687e-02,9.99999e-01,9.99999e-01,9.83048e-01,7.14816e-02,9.99983e-01
7.461355126e-01,7.45304e-02,9.99999e-01,9.99999e-01,9.89710e-01,7.53055e-02,9.99996e-01
7.498661902e-01,7.88706e-02,9.99999e-01,9.99999e-01,9.95184e-01,7.92523e-02,9.99998e-01
7.536155211e-01,8.31254e-02,9.99999e-01,9.99999e-01,9.97642e-01,8.33219e-02,9.99998e-01
7.573835987e-01,8.74075e-02,9.99999e-01,9.99999e-01,9.98784e-01,8.75139e-02,9.99999e-01
7.611705167e-01,9.17583e-02,9.99999e-01,9.99999e-01,9.99244e-01,9.18276e-02,9.99999e-01
7.649763693e-01,9.62171e-02,9.99999e-01,9.99999e-01,9.99527e-01,9.62625e-02,9.99999e-01
7.688012511e-01,1.00785e-01,9.99999e-01,9.99999e-01,9.99671e-01,1.00818e-01,9.99999e-01
7.726452574e-01,1.05463e-01,9.99999e-01,9.99999e-01,9.99729e-01,1.05492e-01,9.99999e-01
7.765084837e-01,1.10242e-01,9.99999e-01,9.99999e-01,9.99618e-01,1.10284e-01,9.99999e-01
7.803910261e-01,1.05776e-01,9.99999e-01,9.19651e-01,9.98356e-01,1.15193e-01,9.99997e-01
7.842929812e-01,7.79795e-02,9.99999e-01,6.51957e-01,9.94275e-01,1.20217e-01,9.99988e-01
7.882144461e-01,7.91245e-02,9.99999e-01,6.38094e-01,9.88136e-01,1.25354e-01,9.99926e-01
7.921555184e-01,9.85486e-02,9.99999e-01,7.59341e-01,9.93447e-01,1.30603e-01,9.99858e-01
7.961162960e-01,1.11442e-01,9.99999e-01,8.28988e-01,9.88572e-01,1.35961e-01,9.99864e-01
8.000968774e-01,1.26053e-01,9.99999e-01,9.03314e-01,9.86728e-01,1.41427e-01,9.99855e-01
8.040973618e-01,1.37559e-01,9.99999e-01,9.48393e-01,9.86745e-01,1.46998e-01,9.99885e-01
8.081178486e-01,1.44637e-01,9.99999e-01,9.76050e-01,9.70600e-01,1.52671e-01,9.99892e-01
8.121584379e-01,1.38875e-01,9.99999e-01,9.92480e-01,8.83304e-01,1.58446e-01,9.99578e-01
8.162192301e-01,1.41187e-01,9.99999e-01,9.98333e-01,8.61951e-01,1.64318e-01,9.98418e-01
8.203003262e-01,1.58197e-01,9.99999e-01,9.99971e-01,9.30753e-01,1.70285e-01,9.98148e-01
8.244018279e-01,1.59013e-01,9.99999e-01,9.99999e-01,9.03042e-01,1.76345e-01,9.98525e-01
8.285238370e-01,1.66861e-01,9.99999e-01,9.99999e-01,9.15393e-01,1.82494e-01,9.98842e-01
8.326664562e-01,1.72470e-01,9.99999e-01,9.99999e-01,9.14281e-01,1.88730e-01,9.99520e-01
8.368297885e-01,1.82871e-01,9.99999e-01,9.99999e-01,9.37664e-01,1.95050e-01,9.99890e-01
8.410139374e-01,1.93870e-01,9.99999e-01,9.99999e-01,9.62433e-01,2.01450e-01,9.99935e-01
8.452190071e-01,2.04046e-01,9.99999e-01,9.99999e-01,9.81370e-01,2.07927e-01,9.99961e-01
8.494451021e-01,2.12153e-01,9.99999e-01,9.99999e-01,9.89186e-01,2.14479e-01,9.99968e-01
8.536923276e-01,2.19675e-01,9.99999e-01,9.99999e-01,9.93570e-01,2.21101e-01,9.99979e-01
8.579607893e-01,2.26890e-01,9.99999e-01,9.99999e-01,9.96048e-01,2.27791e-01,9.99994e-01
8.622505932e-01,2.33955e-01,9.99999e-01,9.99999e-01,9.97482e-01,2.34546e-01,9.99998e-01
8.665618462e-01,2.11048e-01,9.99999e-01,8.75680e-01,9.98447e-01,2.41361e-01,9.99999e-01
8.708946554e-01,8.69832e-02,9.99999e-01,3.50980e-01,9.98226e-01,2.48234e-01,9.99998e-01
8.752491287e-01,1.06164e-01,9.99999e-01,4.16990e-01,9.97626e-01,2.55161e-01,9.99997e-01
8.796253743e-01,1.59634e-01,9.99999e-01,6.10819e-01,9.96724e-01,2.62138e-01,9.99992e-01
8.840235012e-01,2.06798e-01,9.99999e-01,7.71080e-01,9.96255e-01,2.69163e-01,9.99976e-01
8.884436187e-01,2.45817e-01,9.99999e-01,9.01634e-01,9.86678e-01,2.76232e-01,9.99934e-01
8.928858368e-01,2.35888e-01,9.99999e-01,9.58939e-01,8.67585e-01,2.83342e-01,9.99624e-01
8.973502660e-01,2.23016e-01,9.99999e-01,9.89801e-01,7.76675e-01,2.90489e-01,9.98076e-01
9.018370173e-01,2.60349e-01,9.99999e-01,9.98868e-01,8.78186e-01,2.97669e-01,9.96977e-01
9.063462024e-01,2.64860e-01,9.99999e-01,9.72754e-01,8.93243e-01,3.04880e-01,9.97344e-01
9.108779334e-01,2.44713e-01,9.99999e-01,9.36202e-01,8.37909e-01,3.12118e-01,9.97240e-01
9.154323231e-01,2.56604e-01,9.99999e-01,9.84491e-01,8.17201e-01,3.19379e-01,9.97718e-01
9.200094847e-01,2.33740e-01,9.99999e-01,8.22667e-01,8.53798e-01,3.26662e-01,9.98722e-01
9.246095321e-01,1.93635e-01,9.99999e-01,7.25849e-01,7.89830e-01,3.33961e-01,9.98527e-01
9.292325798e-01,6.18459e-02,9.99999e-01,7.83013e-01,2.21316e-01,3.41275e-01,9.94272e-01
9.338787427e-01,3.92487e-02,9.99999e-01,7.85697e-01,1.39797e-01,3.48599e-01,9.76536e-01
9.385481364e-01,1.33023e-01,9.99999e-01,8.36435e-01,4.48932e-01,3.55932e-01,9.72155e-01
9.432408771e-01,1.10976e-01,9.99999e-01,8.95567e-01,3.44955e-01,3.63269e-01,9.75931e-01
9.479570815e-01,7.92674e-02,9.99999e-01,9.45095e-01,2.29345e-01,3.70608e-01,9.80367e-01
9.526968669e-01,1.16443e-01,9.99999e-01,9.73116e-01,3.18872e-01,3.77946e-01,9.87978e-01
9.574603512e-01,1.27738e-01,9.99999e-01,9.88397e-01,3.36859e-01,3.85280e-01,9.93875e-01
9.622476530e-01,1.58132e-01,9.99999e-01,9.96362e-01,4.05734e-01,3.92607e-01,9.95760e-01
9.670588912e-01,2.35968e-01,9.99999e-01,9.98906e-01,5.92307e-01,3.99925e-01,9.97098e-01
9.718941857e-01,2.90830e-01,9.99999e-01,9.99920e-01,7.15739e-01,4.07231e-01,9.97863e-01
9.767536566e-01,3.13421e-01,9.99999e-01,9.99999e-01,7.57340e-01,4.14522e-01,9.98366e-01
9.816374249e-01,3.42610e-01,9.99999e-01,9.99999e-01,8.12725e-01,4.21795e-01,9.99434e-01
9.865456120e-01,3.76723e-01,9.99999e-01,9.99999e-01,8.78145e-01,4.29049e-01,9.99881e-01
9.914783401e-01,4.02555e-01,9.99999e-01,9.99999e-01,9.22727e-01,4.36280e-01,9.99966e-01
9.964357318e-01,4.24468e-01,9.99999e-01,9.99999e-01,9.57130e-01,4.43487e-01,9.99980e-01
1.001417910e+00,4.38967e-01,9.99999e-01,9.99999e-01,9.74065e-01,4.50667e-01,9.99970e-01
1.006425000e+00,4.51006e-01,9.99999e-01,9.99999e-01,9.85160e-01,4.57818e-01,9.99957e-01
1.011457125e+00,4.60616e-01,9.99999e-01,9.99999e-01,9.90740e-01,4.64938e-01,9.99960e-01
1.016514411e+00,4.69046e-01,9.99999e-01,9.99999e-01,9.93714e-01,4.72025e-01,9.99972e-01
1.021596983e+00,4.76601e-01,9.99999e-01,9.99864e-01,9.94992e-01,4.79077e-01,9.99972e-01
1.026704968e+00,4.78959e-01,9.99999e-01,9.89192e-01,9.96094e-01,4.86091e-01,9.99981e-01
1.031838492e+00,4.48819e-01,9.99999e-01,9.12731e-01,9.97154e-01,4.93067e-01,9.99994e-01
1.036997685e+00,2.75589e-02,9.99999e-01,5.51880e-02,9.98312e-01,5.00002e-01,9.99998e-01
1.042182673e+00,2.19159e-03,9.99999e-01,4.33026e-03,9.97995e-01,5.06895e-01,9.99999e-01
1.047393587e+00,5.63353e-03,9.99999e-01,1.09901e-02,9.97337e-01,5.13744e-01,9.99999e-01
1.052630555e+00,9.61838e-07,9.99999e-01,1.85204e-06,9.96352e-01,5.20547e-01,9.99998e-01
1.057893707e+00,3.53432e-06,9.99999e-01,6.72393e-06,9.93927e-01,5.27303e-01,9.99997e-01
1.063183176e+00,7.79551e-05,9.99999e-01,1.46835e-04,9.90015e-01,5.34012e-01,9.99994e-01
1.068499092e+00,7.25824e-04,9.99999e-01,1.35776e-03,9.83316e-01,5.40670e-01,9.99988e-01
1.073841587e+00,7.65994e-03,9.99999e-01,1.41974e-02,9.80553e-01,5.47277e-01,9.99974e-01
1.079210795e+00,3.74508e-02,9.99999e-01,6.89904e-02,9.75051e-01,5.53833e-01,9.99932e-01
1.084606849e+00,1.18709e-01,9.99999e-01,2.19142e-01,9.62563e-01,5.60334e-01,9.99837e-01
1.090029883e+00,2.43445e-01,9.99999e-01,4.51839e-01,9.47035e-01,5.66782e-01,9.99664e-01
1.095480033e+00,3.34710e-01,9.99999e-01,6.74726e-01,8.62035e-01,5.73174e-01,9.99393e-01
1.100957433e+00,3.31115e-01,9.99999e-01,8.26528e-01,6.88186e-01,5.79510e-01,9.98883e-01
1.106462220e+00,2.17174e-01,9.99999e-01,9.24038e-01,3.99105e-01,5.85789e-01,9.98107e-01
1.111994531e+00,8.63197e-02,9.99999e-01,9.71109e-01,1.50160e-01,5.92010e-01,9.94984e-01
1.117554504e+00,2.97048e-02,9.99999e-01,9.92836e-01,5.07905e-02,5.98172e-01,9.82010e-01
1.123142276e+00,7.34710e-02,9.99999e-01,9.99525e-01,1.26943e-01,6.04275e-01,9.57863e-01
1.128757988e+00,1.40764e-01,9.99999e-01,9.99999e-01,2.42417e-01,6.10317e-01,9.51418e-01
1.134401778e+00,6.25801e-02,9.99999e-01,9.99999e-01,1.06040e-01,6.16299e-01,9.57577e-01
1.140073787e+00,2.49438e-01,9.99999e-01,9.99999e-01,4.15054e-01,6.22219e-01,9.65861e-01
1.145774156e+00,1.07364e-01,9.99999e-01,9.99999e-01,1.76318e-01,6.28078e-01,9.69504e-01
1.151503026e+00,9.19965e-02,9.99999e-01,9.99999e-01,1.47659e-01,6.33874e-01,9.82894e-01
1.157260541e+00,1.16079e-01,9.99999e-01,9.99999e-01,1.82423e-01,6.39608e-01,9.94854e-01
1.163046844e+00,1.80606e-01,9.99999e-01,9.99999e-01,2.80298e-01,6.45279e-01,9.98538e-01
1.168862078e+00,2.62472e-01,9.99999e-01,9.99999e-01,4.03556e-01,6.50887e-01,9.99246e-01
1.174706389e+00,3.74124e-01,9.99999e-01,9.99999e-01,5.70505e-01,6.56432e-01,9.99001e-01
1.180579921e+00,4.68656e-01,9.99999e-01,9.99999e-01,7.09103e-01,6.61912e-01,9.98491e-01
1.186482820e+00,5.48115e-01,9.99999e-01,9.99985e-01,8.22638e-01,6.67329e-01,9.98451e-01
1.192415234e+00,5.78150e-01,9.99999e-01,9.63301e-01,8.92162e-01,6.72682e-01,9.98839e-01
1.198377311e+00,3.26375e-01,9.99999e-01,5.22044e-01,9.08503e-01,6.77971e-01,9.98904e-01
1.204369197e+00,5.96794e-29,9.99999e-01,9.21575e-29,9.13342e-01,6.83195e-01,9.99008e-01
1.210391043e+00,6.94141e-117,9.99999e-01,1.05895e-116,9.16818e-01,6.88356e-01,9.99396e-01
1.216442998e+00,3.69626e-101,9.99999e-01,5.58196e-101,9.28642e-01,6.93452e-01,9.99630e-01
1.222525213e+00,1.23385e-99,9.99999e-01,1.82005e-99,9.43964e-01,6.98485e-01,9.99770e-01
1.228637839e+00,7.05690e-77,9.99999e-01,1.03066e-76,9.60765e-01,7.03453e-01,9.99892e-01
