#,Wave/freq,Total,N2,CO2,H2O,Rayleigh,CIA
4.000000000e-01,3.84778e-13,9.99999e-01,9.99999e-01,9.99944e-01,3.84799e-13,9.99999e-01
4.020000000e-01,6.77159e-13,9.99999e-01,9.99999e-01,9.99965e-01,6.77182e-13,9.99999e-01
4.040100000e-01,1.17780e-12,9.99999e-01,9.99999e-01,9.99985e-01,1.17782e-12,9.99999e-01
4.060300500e-01,2.02630e-12,9.99999e-01,9.99999e-01,9.99996e-01,2.02631e-12,9.99999e-01
4.080602003e-01,3.44886e-12,9.99999e-01,9.99999e-01,9.99998e-01,3.44887e-12,9.99999e-01
4.101005013e-01,5.80879e-12,9.99999e-01,9.99999e-01,9.99999e-01,5.80879e-12,9.99999e-01
4.121510038e-01,9.68327e-12,9.99999e-01,9.99999e-01,9.99997e-01,9.68329e-12,9.99999e-01
4.142117588e-01,1.59797e-11,9.99999e-01,9.99999e-01,9.99984e-01,1.59800e-11,9.99999e-01
4.162828176e-01,2.61098e-11,9.99999e-01,9.99999e-01,9.99931e-01,2.61115e-11,9.99999e-01
4.183642317e-01,4.22531e-11,9.99999e-01,9.99999e-01,9.99959e-01,4.22548e-11,9.99999e-01
4.204560528e-01,6.77298e-11,9.99999e-01,9.99999e-01,9.99974e-01,6.77315e-11,9.99999e-01
4.225583331e-01,1.07561e-10,9.99999e-01,9.99999e-01,9.99990e-01,1.07562e-10,9.99999e-01
4.246711247e-01,1.69260e-10,9.99999e-01,9.99999e-01,9.99992e-01,1.69261e-10,9.99999e-01
4.267944804e-01,2.63975e-10,9.99999e-01,9.99999e-01,9.99988e-01,2.63978e-10,9.99999e-01
4.289284528e-01,4.08095e-10,9.99999e-01,9.99999e-01,9.99991e-01,4.08099e-10,9.99999e-01
4.310730950e-01,6.25496e-10,9.99999e-01,9.99999e-01,9.99995e-01,6.25498e-10,9.99999e-01
4.332284605e-01,9.50655e-10,9.99999e-01,9.99999e-01,9.99998e-01,9.50656e-10,9.99999e-01
4.353946028e-01,1.43294e-09,9.99999e-01,9.99999e-01,9.99999e-01,1.43295e-09,9.99999e-01
4.375715758e-01,2.14246e-09,9.99999e-01,9.99999e-01,9.99992e-01,2.14248e-09,9.99999e-01
4.397594337e-01,3.17779e-09,9.99999e-01,9.99999e-01,9.99939e-01,3.17799e-09,9.99999e-01
4.419582309e-01,4.67598e-09,9.99999e-01,9.99999e-01,9.99693e-01,4.67741e-09,9.99999e-01
4.441680220e-01,6.83032e-09,9.99999e-01,9.99999e-01,9.99763e-01,6.83193e-09,9.99999e-01
4.463888621e-01,9.90203e-09,9.99999e-01,9.99999e-01,9.99752e-01,9.90447e-09,9.99999e-01
4.486208064e-01,1.42517e-08,9.99999e-01,9.99999e-01,9.99846e-01,1.42539e-08,9.99999e-01
4.508639105e-01,2.03649e-08,9.99999e-01,9.99999e-01,9.99927e-01,2.03663e-08,9.99999e-01
4.531182300e-01,2.88947e-08,9.99999e-01,9.99999e-01,9.99971e-01,2.88955e-08,9.99999e-01
4.553838212e-01,4.07136e-08,9.99999e-01,9.99999e-01,9.99980e-01,4.07144e-08,9.99999e-01
4.576607403e-01,5.69797e-08,9.99999e-01,9.99999e-01,9.99990e-01,5.69802e-08,9.99999e-01
4.599490440e-01,7.92161e-08,9.99999e-01,9.99999e-01,9.99993e-01,7.92166e-08,9.99999e-01
4.622487892e-01,1.09416e-07,9.99999e-01,9.99999e-01,9.99998e-01,1.09416e-07,9.99999e-01
4.645600332e-01,1.50167e-07,9.99999e-01,9.99999e-01,9.99995e-01,1.50168e-07,9.99999e-01
4.668828333e-01,2.04798e-07,9.99999e-01,9.99999e-01,9.99926e-01,2.04813e-07,9.99999e-01
4.692172475e-01,2.77592e-07,9.99999e-01,9.99999e-01,9.99844e-01,2.77635e-07,9.99999e-01
4.715633337e-01,3.74057e-07,9.99999e-01,9.99999e-01,9.99898e-01,3.74095e-07,9.99999e-01
4.739211504e-01,5.01060e-07,9.99999e-01,9.99999e-01,9.99902e-01,5.01108e-07,9.99999e-01
4.762907561e-01,6.67347e-07,9.99999e-01,9.99999e-01,9.99949e-01,6.67381e-07,9.99999e-01
4.786722099e-01,8.83789e-07,9.99999e-01,9.99999e-01,9.99979e-01,8.83807e-07,9.99999e-01
4.810655710e-01,1.16394e-06,9.99999e-01,9.99999e-01,9.99993e-01,1.16394e-06,9.99999e-01
4.834708988e-01,1.52447e-06,9.99999e-01,9.99999e-01,9.99939e-01,1.52456e-06,9.99999e-01
4.858882533e-01,1.98607e-06,9.99999e-01,9.99999e-01,9.99890e-01,1.98629e-06,9.99999e-01
4.883176946e-01,2.57413e-06,9.99999e-01,9.99999e-01,9.99907e-01,2.57436e-06,9.99999e-01
4.907592831e-01,3.31923e-06,9.99999e-01,9.99999e-01,9.99916e-01,3.31950e-06,9.99999e-01
4.932130795e-01,4.25863e-06,9.99999e-01,9.99999e-01,9.99940e-01,4.25888e-06,9.99999e-01
4.956791449e-01,5.43709e-06,9.99999e-01,9.99999e-01,9.99968e-01,5.43726e-06,9.99999e-01
4.981575406e-01,6.90719e-06,9.99999e-01,9.99999e-01,9.99843e-01,6.90827e-06,9.99999e-01
5.006483283e-01,8.73227e-06,9.99999e-01,9.99999e-01,9.99593e-01,8.73583e-06,9.99996e-01
5.031515699e-01,1.09731e-05,9.99999e-01,9.99999e-01,9.97953e-01,1.09958e-05,9.99978e-01
5.056673278e-01,1.37624e-05,9.99999e-01,9.99999e-01,9.98921e-01,1.37776e-05,9.99974e-01
5.081956644e-01,1.71629e-05,9.99999e-01,9.99999e-01,9.98640e-01,1.71865e-05,9.99984e-01
5.107366428e-01,2.13258e-05,9.99999e-01,9.99999e-01,9.99081e-01,2.13454e-05,9.99996e-01
5.132903260e-01,2.63836e-05,9.99999e-01,9.99999e-01,9.99475e-01,2.63975e-05,9.99999e-01
5.158567776e-01,3.25014e-05,9.99999e-01,9.99999e-01,9.99778e-01,3.25086e-05,9.99999e-01
5.184360615e-01,3.98665e-05,9.99999e-01,9.99999e-01,9.99910e-01,3.98700e-05,9.99999e-01
5.210282418e-01,4.87002e-05,9.99999e-01,9.99999e-01,9.99966e-01,4.87018e-05,9.99999e-01
5.236333830e-01,5.92473e-05,9.99999e-01,9.99999e-01,9.99866e-01,5.92552e-05,9.99998e-01
5.262515499e-01,7.18107e-05,9.99999e-01,9.99999e-01,9.99916e-01,7.18167e-05,9.99998e-01
5.288828077e-01,8.67045e-05,9.99999e-01,9.99999e-01,9.99922e-01,8.67113e-05,9.99998e-01
5.315272217e-01,1.04299e-04,9.99999e-01,9.99999e-01,9.99932e-01,1.04306e-04,9.99999e-01
5.341848578e-01,1.25008e-04,9.99999e-01,9.99999e-01,9.99955e-01,1.25013e-04,9.99999e-01
5.368557821e-01,1.49274e-04,9.99999e-01,9.99999e-01,9.99843e-01,1.49297e-04,9.99999e-01
5.395400610e-01,1.77573e-04,9.99999e-01,9.99999e-01,9.99436e-01,1.77674e-04,9.99994e-01
5.422377613e-01,2.10564e-04,9.99999e-01,9.99999e-01,9.99277e-01,2.10719e-04,9.99986e-01
5.449489501e-01,2.48897e-04,9.99999e-01,9.99999e-01,9.99324e-01,2.49068e-04,9.99985e-01
5.476736949e-01,2.93251e-04,9.99999e-01,9.99999e-01,9.99404e-01,2.93427e-04,9.99992e-01
5.504120634e-01,3.44419e-04,9.99999e-01,9.99999e-01,9.99567e-01,3.44569e-04,9.99997e-01
5.531641237e-01,4.03254e-04,9.99999e-01,9.99999e-01,9.99782e-01,4.03342e-04,9.99999e-01
5.559299443e-01,4.70624e-04,9.99999e-01,9.99999e-01,9.99894e-01,4.70673e-04,9.99999e-01
5.587095940e-01,5.47537e-04,9.99999e-01,9.99999e-01,9.99933e-01,5.47573e-04,9.99999e-01
5.615031420e-01,6.35088e-04,9.99999e-01,9.99999e-01,9.99926e-01,6.35134e-04,9.99999e-01
5.643106577e-01,7.34480e-04,9.99999e-01,9.99999e-01,9.99915e-01,7.34542e-04,9.99998e-01
5.671322110e-01,8.46200e-04,9.99999e-01,9.99999e-01,9.98978e-01,8.47073e-04,9.99990e-01
5.699678720e-01,9.73028e-04,9.99999e-01,9.99999e-01,9.98929e-01,9.74097e-04,9.99972e-01
5.728177114e-01,1.11580e-03,9.99999e-01,9.99999e-01,9.98878e-01,1.11708e-03,9.99976e-01
5.756818000e-01,1.27626e-03,9.99999e-01,9.99999e-01,9.98972e-01,1.27759e-03,9.99986e-01
5.785602090e-01,1.45599e-03,9.99999e-01,9.99999e-01,9.99105e-01,1.45730e-03,9.99995e-01
5.814530100e-01,1.65647e-03,9.99999e-01,9.99999e-01,9.99100e-01,1.65796e-03,9.99997e-01
5.843602750e-01,1.87942e-03,9.99999e-01,9.99999e-01,9.98922e-01,1.88146e-03,9.99993e-01
5.872820764e-01,2.10995e-03,9.99999e-01,9.99999e-01,9.90761e-01,2.12976e-03,9.99934e-01
5.902184868e-01,2.37773e-03,9.99999e-01,9.99999e-01,9.88861e-01,2.40493e-03,9.99822e-01
5.931695792e-01,2.68732e-03,9.99999e-01,9.99999e-01,9.92111e-01,2.70915e-03,9.99829e-01
5.961354271e-01,3.01808e-03,9.99999e-01,9.99999e-01,9.91362e-01,3.04467e-03,9.99901e-01
5.991161043e-01,3.39225e-03,9.99999e-01,9.99999e-01,9.93696e-01,3.41387e-03,9.99969e-01
6.021116848e-01,3.80551e-03,9.99999e-01,9.99999e-01,9.96421e-01,3.81919e-03,9.99996e-01
6.051222432e-01,4.25545e-03,9.99999e-01,9.99999e-01,9.98188e-01,4.26318e-03,9.99999e-01
6.081478544e-01,4.74474e-03,9.99999e-01,9.99999e-01,9.99217e-01,4.74845e-03,9.99999e-01
6.111885937e-01,5.27597e-03,9.99999e-01,9.99999e-01,9.99669e-01,5.27771e-03,9.99999e-01
6.142445367e-01,5.85287e-03,9.99999e-01,9.99999e-01,9.99851e-01,5.85374e-03,9.99999e-01
6.173157594e-01,6.47883e-03,9.99999e-01,9.99999e-01,9.99918e-01,6.47936e-03,9.99999e-01
6.204023382e-01,7.15697e-03,9.99999e-01,9.99999e-01,9.99930e-01,7.15747e-03,9.99999e-01
6.235043498e-01,7.88860e-03,9.99999e-01,9.99999e-01,9.99692e-01,7.89102e-03,9.99998e-01
6.266218716e-01,8.66892e-03,9.99999e-01,9.99999e-01,9.98388e-01,8.68301e-03,9.99988e-01
6.297549810e-01,9.53059e-03,9.99999e-01,9.99999e-01,9.99408e-01,9.53644e-03,9.99976e-01
6.329037559e-01,1.04420e-02,9.99999e-01,9.99999e-01,9.98833e-01,1.04544e-02,9.99981e-01
6.360682746e-01,1.14284e-02,9.99999e-01,9.99999e-01,9.99004e-01,1.14399e-02,9.99988e-01
6.392486160e-01,1.24799e-02,9.99999e-01,9.99999e-01,9.98711e-01,1.24961e-02,9.99994e-01
6.424448591e-01,1.36022e-02,9.99999e-01,9.99999e-01,9.98267e-01,1.36259e-02,9.99991e-01
6.456570834e-01,1.47130e-02,9.99999e-01,9.99999e-01,9.91982e-01,1.48326e-02,9.99951e-01
6.488853688e-01,1.60230e-02,9.99999e-01,9.99999e-01,9.94160e-01,1.61191e-02,9.99875e-01
6.521297956e-01,1.73826e-02,9.99999e-01,9.99999e-01,9.94049e-01,1.74884e-02,9.99897e-01
6.553904446e-01,1.88295e-02,9.99999e-01,9.99999e-01,9.94058e-01,1.89435e-02,9.99923e-01
6.586673968e-01,2.03828e-02,9.99999e-01,9.99999e-01,9.94922e-01,2.04873e-02,9.99974e-01
6.619607338e-01,2.20599e-02,9.99999e-01,9.99999e-01,9.97167e-01,2.21226e-02,9.99994e-01
6.652705375e-01,2.38117e-02,9.99999e-01,9.99999e-01,9.98299e-01,2.38523e-02,9.99996e-01
6.685968902e-01,2.56604e-02,9.99999e-01,9.99999e-01,9.99277e-01,2.56790e-02,9.99999e-01
6.719398746e-01,2.75952e-02,9.99999e-01,9.99999e-01,9.99633e-01,2.76053e-02,9.99999e-01
6.752995740e-01,2.96279e-02,9.99999e-01,9.99999e-01,9.99801e-01,2.96338e-02,9.99999e-01
6.786760719e-01,3.17576e-02,9.99999e-01,9.99999e-01,9.99711e-01,3.17668e-02,9.99999e-01
6.820694522e-01,3.39898e-02,9.99999e-01,9.99999e-01,9.99507e-01,3.40066e-02,9.99996e-01
6.854797995e-01,3.63321e-02,9.99999e-01,9.99999e-01,9.99365e-01,3.63553e-02,9.99994e-01
6.889071985e-01,3.87545e-02,9.99999e-01,9.99999e-01,9.98451e-01,3.88151e-02,9.99985e-01
6.923517345e-01,4.03545e-02,9.99999e-01,9.99999e-01,9.75151e-01,4.13877e-02,9.99879e-01
6.958134932e-01,4.34973e-02,9.99999e-01,9.99999e-01,9.87156e-01,4.40749e-02,9.99733e-01
6.992925606e-01,4.62881e-02,9.99999e-01,9.99999e-01,9.87644e-01,4.68783e-02,9.99760e-01
7.027890234e-01,4.90349e-02,9.99999e-01,9.99999e-01,9.84829e-01,4.97993e-02,9.99816e-01
7.063029686e-01,5.21593e-02,9.99999e-01,9.99999e-01,9.87220e-01,5.28393e-02,9.99908e-01
7.098344834e-01,5.53093e-02,9.99999e-01,9.99999e-01,9.87734e-01,5.59992e-02,9.99945e-01
7.133836558e-01,5.83013e-02,9.99999e-01,9.99999e-01,9.83595e-01,5.92800e-02,9.99892e-01
7.169505741e-01,5.49052e-02,9.99999e-01,9.99999e-01,8.76663e-01,6.26825e-02,9.99158e-01
7.205353270e-01,6.20142e-02,9.99999e-01,9.99999e-01,9.38060e-01,6.62072e-02,9.98515e-01
7.241380036e-01,6.42713e-02,9.99999e-01,9.99999e-01,9.21251e-01,6.98547e-02,9.98717e-01
7.277586936e-01,6.83048e-02,9.99999e-01,9.99999e-01,9.28711e-01,7.36250e-02,9.98951e-01
7.313974871e-01,7.16273e-02,9.99999e-01,9.99999e-01,9.24457e-01,7.75183e-02,9.99508e-01
7.350544745e-01,7.80903e-02,9.99999e-01,9.99999e-01,9.57920e-01,8.15345e-02,9.99828e-01
7.387297469e-01,8.29974e-02,9.99999e-01,9.99999e-01,9.68842e-01,8.56732e-02,9.99921e-01
7.424233956e-01,8.85521e-02,9.99999e-01,9.99999e-01,9.84646e-01,8.99340e-02,9.99985e-01
7.461355126e-01,9.34352e-02,9.99999e-01,9.99999e-01,9.90659e-01,9.43163e-02,9.99997e-01
7.498661902e-01,9.83891e-02,9.99999e-01,9.99999e-01,9.95648e-01,9.88192e-02,9.99998e-01
7.536155211e-01,1.03220e-01,9.99999e-01,9.99999e-01,9.97859e-01,1.03442e-01,9.99998e-01
7.573835987e-01,1.08063e-01,9.99999e-01,9.99999e-01,9.98897e-01,1.08183e-01,9.99999e-01
7.611705167e-01,1.12963e-01,9.99999e-01,9.99999e-01,9.99314e-01,1.13041e-01,9.99999e-01
7.649763693e-01,1.17964e-01,9.99999e-01,9.99999e-01,9.99570e-01,1.18015e-01,9.99999e-01
7.688012511e-01,1.23066e-01,9.99999e-01,9.99999e-01,9.99700e-01,1.23103e-01,9.99999e-01
7.726452574e-01,1.28272e-01,9.99999e-01,9.99999e-01,9.99753e-01,1.28303e-01,9.99999e-01
7.765084837e-01,1.33567e-01,9.99999e-01,9.99999e-01,9.99648e-01,1.33614e-01,9.99999e-01
7.803910261e-01,1.27812e-01,9.99999e-01,9.20593e-01,9.98479e-01,1.39033e-01,9.99998e-01
7.842929812e-01,9.74105e-02,9.99999e-01,6.77051e-01,9.94702e-01,1.44559e-01,9.99989e-01
7.882144461e-01,9.82608e-02,9.99999e-01,6.60815e-01,9.89162e-01,1.50188e-01,9.99924e-01
7.921555184e-01,1.20429e-01,9.99999e-01,7.76831e-01,9.94061e-01,1.55919e-01,9.99869e-01
7.961162960e-01,1.35048e-01,9.99999e-01,8.43713e-01,9.89462e-01,1.61749e-01,9.99876e-01
8.000968774e-01,1.51026e-01,9.99999e-01,9.11804e-01,9.87868e-01,1.67675e-01,9.99868e-01
8.040973618e-01,1.63574e-01,9.99999e-01,9.53339e-01,9.87857e-01,1.73695e-01,9.99899e-01
8.081178486e-01,1.71104e-01,9.99999e-01,9.78236e-01,9.72776e-01,1.79806e-01,9.99898e-01
8.121584379e-01,1.64730e-01,9.99999e-01,9.93265e-01,8.91816e-01,1.86004e-01,9.99615e-01
8.162192301e-01,1.67525e-01,9.99999e-01,9.98508e-01,8.73720e-01,1.92288e-01,9.98555e-01
8.203003262e-01,1.85461e-01,9.99999e-01,9.99978e-01,9.35186e-01,1.98653e-01,9.98308e-01
8.244018279e-01,1.86837e-01,9.99999e-01,9.99999e-01,9.12196e-01,2.05097e-01,9.98653e-01
8.285238370e-01,1.94929e-01,9.99999e-01,9.99999e-01,9.22116e-01,2.11617e-01,9.98942e-01
8.326664562e-01,2.01003e-01,9.99999e-01,9.99999e-01,9.21554e-01,2.18209e-01,9.99562e-01
8.368297885e-01,2.12075e-01,9.99999e-01,9.99999e-01,9.43195e-01,2.24870e-01,9.99899e-01
8.410139374e-01,2.23672e-01,9.99999e-01,9.99999e-01,9.65837e-01,2.31596e-01,9.99941e-01
8.452190071e-01,2.34350e-01,9.99999e-01,9.99999e-01,9.83104e-01,2.38386e-01,9.99964e-01
8.494451021e-01,2.42810e-01,9.99999e-01,9.99999e-01,9.90143e-01,2.45234e-01,9.99971e-01
8.536923276e-01,2.50664e-01,9.99999e-01,9.99999e-01,9.94171e-01,2.52138e-01,9.99982e-01
8.579607893e-01,2.58160e-01,9.99999e-01,9.99999e-01,9.96401e-01,2.59094e-01,9.99995e-01
8.622505932e-01,2.65490e-01,9.99999e-01,9.99999e-01,9.97715e-01,2.66098e-01,9.99998e-01
8.665618462e-01,2.38436e-01,9.99999e-01,8.74078e-01,9.98583e-01,2.73149e-01,9.99999e-01
8.708946554e-01,1.06487e-01,9.99999e-01,3.80553e-01,9.98376e-01,2.80241e-01,9.99998e-01
8.752491287e-01,1.28994e-01,9.99999e-01,4.49790e-01,9.97829e-01,2.87372e-01,9.99997e-01
8.796253743e-01,1.87642e-01,9.99999e-01,6.38863e-01,9.96990e-01,2.94538e-01,9.99992e-01
8.840235012e-01,2.37538e-01,9.99999e-01,7.89862e-01,9.96564e-01,3.01736e-01,9.99978e-01
8.884436187e-01,2.77980e-01,9.99999e-01,9.10932e-01,9.87433e-01,3.08962e-01,9.99940e-01
8.928858368e-01,2.67063e-01,9.99999e-01,9.62810e-01,8.76713e-01,3.16214e-01,9.99656e-01
8.973502660e-01,2.54138e-01,9.99999e-01,9.90866e-01,7.93868e-01,3.23488e-01,9.98242e-01
9.018370173e-01,2.93077e-01,9.99999e-01,9.98990e-01,8.89295e-01,3.30780e-01,9.97239e-01
9.063462024e-01,2.96644e-01,9.99999e-01,9.74290e-01,9.00852e-01,3.38088e-01,9.97574e-01
9.108779334e-01,2.76439e-01,9.99999e-01,9.41960e-01,8.50197e-01,3.45408e-01,9.97479e-01
9.154323231e-01,2.88829e-01,9.99999e-01,9.86138e-01,8.31428e-01,3.52737e-01,9.97916e-01
9.200094847e-01,2.63295e-01,9.99999e-01,8.31242e-01,8.65840e-01,3.60073e-01,9.98832e-01
9.246095321e-01,2.22165e-01,9.99999e-01,7.47221e-01,8.01202e-01,3.67412e-01,9.98655e-01
9.292325798e-01,7.62255e-02,9.99999e-01,7.97525e-01,2.44945e-01,3.74750e-01,9.94767e-01
9.338787427e-01,5.15836e-02,9.99999e-01,8.02759e-01,1.64786e-01,3.82087e-01,9.78548e-01
9.385481364e-01,1.58002e-01,9.99999e-01,8.49963e-01,4.80156e-01,3.89417e-01,9.74539e-01
9.432408771e-01,1.31627e-01,9.99999e-01,9.05010e-01,3.70557e-01,3.96740e-01,9.77995e-01
9.479570815e-01,9.68105e-02,9.99999e-01,9.49984e-01,2.55354e-01,4.04051e-01,9.82054e-01
9.526968669e-01,1.39279e-01,9.99999e-01,9.75612e-01,3.49429e-01,4.11348e-01,9.89015e-01
9.574603512e-01,1.51935e-01,9.99999e-01,9.89495e-01,3.68252e-01,4.18630e-01,9.94404e-01
9.622476530e-01,1.85711e-01,9.99999e-01,9.96713e-01,4.38983e-01,4.25892e-01,9.96127e-01
9.670588912e-01,2.67426e-01,9.99999e-01,9.99015e-01,6.19595e-01,4.33134e-01,9.97350e-01
9.718941857e-01,3.23771e-01,9.99999e-01,9.99930e-01,7.36733e-01,4.40352e-01,9.98048e-01
9.767536566e-01,3.46640e-01,9.99999e-01,9.99999e-01,7.75694e-01,4.47544e-01,9.98508e-01
9.816374249e-01,3.76328e-01,9.99999e-01,9.99999e-01,8.28052e-01,4.54708e-01,9.99483e-01
9.865456120e-01,4.10341e-01,9.99999e-01,9.99999e-01,8.88583e-01,4.61842e-01,9.99891e-01
9.914783401e-01,4.35849e-01,9.99999e-01,9.99999e-01,9.29455e-01,4.68943e-01,9.99969e-01
9.964357318e-01,4.57413e-01,9.99999e-01,9.99999e-01,9.60946e-01,4.76010e-01,9.99982e-01
1.001417910e+00,4.71631e-01,9.99999e-01,9.99999e-01,9.76404e-01,4.83041e-01,9.99972e-01
1.006425000e+00,4.83383e-01,9.99999e-01,9.99999e-01,9.86464e-01,4.90034e-01,9.99961e-01
1.011457125e+00,4.92791e-01,9.99999e-01,9.99999e-01,9.91590e-01,4.96987e-01,9.99964e-01
1.016514411e+00,5.01003e-01,9.99999e-01,9.99999e-01,9.94279e-01,5.03898e-01,9.99974e-01
1.021596983e+00,5.08348e-01,9.99999e-01,9.99849e-01,9.95437e-01,5.10767e-01,9.99975e-01
1.026704968e+00,5.10470e-01,9.99999e-01,9.89770e-01,9.96439e-01,5.17590e-01,9.99984e-01
1.031838492e+00,4.76616e-01,9.99999e-01,9.11173e-01,9.97413e-01,5.24367e-01,9.99994e-01
1.036997685e+00,3.11970e-02,9.99999e-01,5.88093e-02,9.98461e-01,5.31096e-01,9.99998e-01
1.042182673e+00,3.44607e-03,9.99999e-01,6.41724e-03,9.98162e-01,5.37776e-01,9.99999e-01
1.047393587e+00,7.99754e-03,9.99999e-01,1.47204e-02,9.97565e-01,5.44406e-01,9.99999e-01
1.052630555e+00,2.52860e-06,9.99999e-01,4.59909e-06,9.96658e-01,5.50984e-01,9.99998e-01
1.057893707e+00,9.53660e-06,9.99999e-01,1.71571e-05,9.94422e-01,5.57509e-01,9.99997e-01
1.063183176e+00,1.61327e-04,9.99999e-01,2.87615e-04,9.90843e-01,5.63981e-01,9.99994e-01
1.068499092e+00,1.30376e-03,9.99999e-01,2.31018e-03,9.84726e-01,5.70397e-01,9.99989e-01
1.073841587e+00,1.16044e-02,9.99999e-01,2.03903e-02,9.82141e-01,5.76758e-01,9.99976e-01
1.079210795e+00,4.94105e-02,9.99999e-01,8.63365e-02,9.77201e-01,5.83062e-01,9.99938e-01
1.084606849e+00,1.43330e-01,9.99999e-01,2.50956e-01,9.65676e-01,5.89308e-01,9.99851e-01
1.090029883e+00,2.75541e-01,9.99999e-01,4.85002e-01,9.50977e-01,5.95496e-01,9.99693e-01
1.095480033e+00,3.68240e-01,9.99999e-01,6.99452e-01,8.72207e-01,6.01624e-01,9.99445e-01
1.100957433e+00,3.63470e-01,9.99999e-01,8.41131e-01,7.08444e-01,6.07693e-01,9.98980e-01
1.106462220e+00,2.44896e-01,9.99999e-01,9.30919e-01,4.26785e-01,6.13701e-01,9.98271e-01
1.111994531e+00,1.04956e-01,9.99999e-01,9.73789e-01,1.74001e-01,6.19648e-01,9.95418e-01
1.117554504e+00,3.90308e-02,9.99999e-01,9.93556e-01,6.36977e-02,6.25534e-01,9.83557e-01
1.123142276e+00,9.04344e-02,9.99999e-01,9.99577e-01,1.48992e-01,6.31358e-01,9.61446e-01
1.128757988e+00,1.64899e-01,9.99999e-01,9.99999e-01,2.70862e-01,6.37119e-01,9.55535e-01
1.134401778e+00,7.60965e-02,9.99999e-01,9.99999e-01,1.23047e-01,6.42817e-01,9.62063e-01
1.140073787e+00,2.79835e-01,9.99999e-01,9.99999e-01,4.45085e-01,6.48453e-01,9.69572e-01
1.145774156e+00,1.28249e-01,9.99999e-01,9.99999e-01,2.01717e-01,6.54025e-01,9.72111e-01
1.151503026e+00,1.10839e-01,9.99999e-01,9.99999e-01,1.70726e-01,6.59533e-01,9.84366e-01
1.157260541e+00,1.38791e-01,9.99999e-01,9.99999e-01,2.09701e-01,6.64978e-01,9.95299e-01
1.163046844e+00,2.09205e-01,9.99999e-01,9.99999e-01,3.12496e-01,6.70359e-01,9.98665e-01
1.168862078e+00,2.95298e-01,9.99999e-01,9.99999e-01,4.37341e-01,6.75675e-01,9.99311e-01
1.174706389e+00,4.07837e-01,9.99999e-01,9.99999e-01,5.99489e-01,6.80928e-01,9.99088e-01
1.180579921e+00,5.01078e-01,9.99999e-01,9.99999e-01,7.31317e-01,6.86116e-01,9.98621e-01
1.186482820e+00,5.77786e-01,9.99999e-01,9.99978e-01,8.37065e-01,6.91241e-01,9.98585e-01
1.192415234e+00,6.05428e-01,9.99999e-01,9.64838e-01,9.01179e-01,6.96301e-01,9.98940e-01
1.198377311e+00,3.41363e-01,9.99999e-01,5.24161e-01,9.15993e-01,7.01297e-01,9.98998e-01
1.204369197e+00,1.23405e-26,9.99999e-01,1.83494e-26,9.20532e-01,7.06230e-01,9.99094e-01
1.210391043e+00,6.08802e-107,9.99999e-01,8.95251e-107,9.23775e-01,7.11098e-01,9.99448e-01
1.216442998e+00,1.40100e-92,9.99999e-01,2.04120e-92,9.34851e-01,7.15903e-01,9.99662e-01
1.222525213e+00,3.45137e-91,9.99999e-01,4.92179e-91,9.48822e-01,7.20645e-01,9.99789e-01
1.228637839e+00,2.14008e-70,9.99999e-01,3.02432e-70,9.64158e-01,7.25323e-01,9.99902e-01
