#,Wave/freq,Total,N2,CO2,H2O,Rayleigh,CIA
4.000000000e-01,1.25928e-06,9.99999e-01,9.99999e-01,9.99973e-01,1.25932e-06,9.99999e-01
4.020000000e-01,1.64736e-06,9.99999e-01,9.99999e-01,9.99983e-01,1.64738e-06,9.99999e-01
4.040100000e-01,2.14301e-06,9.99999e-01,9.99999e-01,9.99992e-01,2.14302e-06,9.99999e-01
4.060300500e-01,2.77334e-06,9.99999e-01,9.99999e-01,9.99997e-01,2.77334e-06,9.99999e-01
4.080602003e-01,3.57082e-06,9.99999e-01,9.99999e-01,9.99998e-01,3.57082e-06,9.99999e-01
4.101005013e-01,4.57472e-06,9.99999e-01,9.99999e-01,9.99999e-01,4.57472e-06,9.99999e-01
4.121510038e-01,5.83223e-06,9.99999e-01,9.99999e-01,9.99998e-01,5.83224e-06,9.99999e-01
4.142117588e-01,7.39980e-06,9.99999e-01,9.99999e-01,9.99992e-01,7.39985e-06,9.99999e-01
4.162828176e-01,9.34447e-06,9.99999e-01,9.99999e-01,9.99967e-01,9.34477e-06,9.99999e-01
4.183642317e-01,1.17464e-05,9.99999e-01,9.99999e-01,9.99980e-01,1.17466e-05,9.99999e-01
4.204560528e-01,1.46990e-05,9.99999e-01,9.99999e-01,9.99987e-01,1.46992e-05,9.99999e-01
4.225583331e-01,1.83126e-05,9.99999e-01,9.99999e-01,9.99995e-01,1.83127e-05,9.99999e-01
4.246711247e-01,2.27155e-05,9.99999e-01,9.99999e-01,9.99996e-01,2.27156e-05,9.99999e-01
4.267944804e-01,2.80573e-05,9.99999e-01,9.99999e-01,9.99994e-01,2.80574e-05,9.99999e-01
4.289284528e-01,3.45111e-05,9.99999e-01,9.99999e-01,9.99995e-01,3.45112e-05,9.99999e-01
4.310730950e-01,4.22762e-05,9.99999e-01,9.99999e-01,9.99997e-01,4.22763e-05,9.99999e-01
4.332284605e-01,5.15813e-05,9.99999e-01,9.99999e-01,9.99999e-01,5.15813e-05,9.99999e-01
4.353946028e-01,6.26875e-05,9.99999e-01,9.99999e-01,9.99999e-01,6.26875e-05,9.99999e-01
4.375715758e-01,7.58920e-05,9.99999e-01,9.99999e-01,9.99996e-01,7.58922e-05,9.99999e-01
4.397594337e-01,9.15295e-05,9.99999e-01,9.99999e-01,9.99971e-01,9.15321e-05,9.99999e-01
4.419582309e-01,1.09972e-04,9.99999e-01,9.99999e-01,9.99857e-01,1.09987e-04,9.99999e-01
4.441680220e-01,1.31670e-04,9.99999e-01,9.99999e-01,9.99886e-01,1.31685e-04,9.99999e-01
4.463888621e-01,1.57085e-04,9.99999e-01,9.99999e-01,9.99882e-01,1.57103e-04,9.99999e-01
4.486208064e-01,1.86762e-04,9.99999e-01,9.99999e-01,9.99926e-01,1.86775e-04,9.99999e-01
4.508639105e-01,2.21287e-04,9.99999e-01,9.99999e-01,9.99965e-01,2.21294e-04,9.99999e-01
4.531182300e-01,2.61312e-04,9.99999e-01,9.99999e-01,9.99985e-01,2.61316e-04,9.99999e-01
4.553838212e-01,3.07561e-04,9.99999e-01,9.99999e-01,9.99990e-01,3.07564e-04,9.99999e-01
4.576607403e-01,3.60833e-04,9.99999e-01,9.99999e-01,9.99995e-01,3.60834e-04,9.99999e-01
4.599490440e-01,4.21996e-04,9.99999e-01,9.99999e-01,9.99996e-01,4.21997e-04,9.99999e-01
4.622487892e-01,4.92003e-04,9.99999e-01,9.99999e-01,9.99998e-01,4.92003e-04,9.99999e-01
4.645600332e-01,5.71885e-04,9.99999e-01,9.99999e-01,9.99997e-01,5.71886e-04,9.99999e-01
4.668828333e-01,6.62744e-04,9.99999e-01,9.99999e-01,9.99965e-01,6.62767e-04,9.99999e-01
4.692172475e-01,7.65799e-04,9.99999e-01,9.99999e-01,9.99925e-01,7.65855e-04,9.99999e-01
4.715633337e-01,8.82413e-04,9.99999e-01,9.99999e-01,9.99951e-01,8.82455e-04,9.99999e-01
4.739211504e-01,1.01392e-03,9.99999e-01,9.99999e-01,9.99953e-01,1.01396e-03,9.99999e-01
4.762907561e-01,1.16185e-03,9.99999e-01,9.99999e-01,9.99975e-01,1.16188e-03,9.99999e-01
4.786722099e-01,1.32778e-03,9.99999e-01,9.99999e-01,9.99989e-01,1.32780e-03,9.99999e-01
4.810655710e-01,1.51341e-03,9.99999e-01,9.99999e-01,9.99996e-01,1.51341e-03,9.99999e-01
4.834708988e-01,1.72047e-03,9.99999e-01,9.99999e-01,9.99971e-01,1.72052e-03,9.99999e-01
4.858882533e-01,1.95092e-03,9.99999e-01,9.99999e-01,9.99947e-01,1.95102e-03,9.99999e-01
4.883176946e-01,2.20682e-03,9.99999e-01,9.99999e-01,9.99956e-01,2.20692e-03,9.99999e-01
4.907592831e-01,2.49021e-03,9.99999e-01,9.99999e-01,9.99960e-01,2.49031e-03,9.99999e-01
4.932130795e-01,2.80331e-03,9.99999e-01,9.99999e-01,9.99971e-01,2.80339e-03,9.99999e-01
4.956791449e-01,3.14841e-03,9.99999e-01,9.99999e-01,9.99984e-01,3.14846e-03,9.99999e-01
4.981575406e-01,3.52764e-03,9.99999e-01,9.99999e-01,9.99925e-01,3.52790e-03,9.99999e-01
5.006483283e-01,3.94345e-03,9.99999e-01,9.99999e-01,9.99809e-01,3.94420e-03,9.99998e-01
5.031515699e-01,4.39561e-03,9.99999e-01,9.99999e-01,9.99029e-01,4.39992e-03,9.99989e-01
5.056673278e-01,4.89514e-03,9.99999e-01,9.99999e-01,9.99486e-01,4.89771e-03,9.99987e-01
5.081956644e-01,5.43671e-03,9.99999e-01,9.99999e-01,9.99351e-01,5.44028e-03,9.99991e-01
5.107366428e-01,6.02778e-03,9.99999e-01,9.99999e-01,9.99561e-01,6.03043e-03,9.99998e-01
5.132903260e-01,6.66934e-03,9.99999e-01,9.99999e-01,9.99748e-01,6.67102e-03,9.99999e-01
5.158567776e-01,7.36417e-03,9.99999e-01,9.99999e-01,9.99893e-01,7.36495e-03,9.99999e-01
5.184360615e-01,8.11484e-03,9.99999e-01,9.99999e-01,9.99957e-01,8.11518e-03,9.99999e-01
5.210282418e-01,8.92458e-03,9.99999e-01,9.99999e-01,9.99983e-01,8.92472e-03,9.99999e-01
5.236333830e-01,9.79598e-03,9.99999e-01,9.99999e-01,9.99936e-01,9.79661e-03,9.99999e-01
5.262515499e-01,1.07335e-02,9.99999e-01,9.99999e-01,9.99959e-01,1.07339e-02,9.99998e-01
5.288828077e-01,1.17392e-02,9.99999e-01,9.99999e-01,9.99963e-01,1.17396e-02,9.99999e-01
5.315272217e-01,1.28165e-02,9.99999e-01,9.99999e-01,9.99967e-01,1.28169e-02,9.99999e-01
5.341848578e-01,1.39685e-02,9.99999e-01,9.99999e-01,9.99978e-01,1.39688e-02,9.99999e-01
5.368557821e-01,1.51973e-02,9.99999e-01,9.99999e-01,9.99926e-01,1.51984e-02,9.99999e-01
5.395400610e-01,1.65043e-02,9.99999e-01,9.99999e-01,9.99736e-01,1.65086e-02,9.99997e-01
5.422377613e-01,1.78963e-02,9.99999e-01,9.99999e-01,9.99654e-01,1.79026e-02,9.99993e-01
5.449489501e-01,1.93769e-02,9.99999e-01,9.99999e-01,9.99681e-01,1.93832e-02,9.99993e-01
5.476736949e-01,2.09473e-02,9.99999e-01,9.99999e-01,9.99715e-01,2.09533e-02,9.99996e-01
5.504120634e-01,2.26111e-02,9.99999e-01,9.99999e-01,9.99793e-01,2.26158e-02,9.99998e-01
5.531641237e-01,2.43709e-02,9.99999e-01,9.99999e-01,9.99895e-01,2.43734e-02,9.99999e-01
5.559299443e-01,2.62275e-02,9.99999e-01,9.99999e-01,9.99949e-01,2.62288e-02,9.99999e-01
5.587095940e-01,2.81837e-02,9.99999e-01,9.99999e-01,9.99968e-01,2.81846e-02,9.99999e-01
5.615031420e-01,3.02422e-02,9.99999e-01,9.99999e-01,9.99964e-01,3.02432e-02,9.99999e-01
5.643106577e-01,3.24058e-02,9.99999e-01,9.99999e-01,9.99960e-01,3.24070e-02,9.99999e-01
5.671322110e-01,3.46618e-02,9.99999e-01,9.99999e-01,9.99528e-01,3.46783e-02,9.99995e-01
5.699678720e-01,3.70395e-02,9.99999e-01,9.99999e-01,9.99484e-01,3.70591e-02,9.99986e-01
5.728177114e-01,3.95301e-02,9.99999e-01,9.99999e-01,9.99468e-01,3.95515e-02,9.99988e-01
5.756818000e-01,4.21364e-02,9.99999e-01,9.99999e-01,9.99511e-01,4.21573e-02,9.99992e-01
5.785602090e-01,4.48589e-02,9.99999e-01,9.99999e-01,9.99573e-01,4.48781e-02,9.99997e-01
5.814530100e-01,4.76952e-02,9.99999e-01,9.99999e-01,9.99572e-01,4.77156e-02,9.99998e-01
5.843602750e-01,5.06453e-02,9.99999e-01,9.99999e-01,9.99494e-01,5.06711e-02,9.99996e-01
5.872820764e-01,5.35099e-02,9.99999e-01,9.99999e-01,9.95641e-01,5.37458e-02,9.99968e-01
5.902184868e-01,5.66327e-02,9.99999e-01,9.99999e-01,9.94672e-01,5.69407e-02,9.99915e-01
5.931695792e-01,6.00258e-02,9.99999e-01,9.99999e-01,9.96246e-01,6.02569e-02,9.99917e-01
5.961354271e-01,6.34291e-02,9.99999e-01,9.99999e-01,9.95876e-01,6.36949e-02,9.99950e-01
5.991161043e-01,6.70518e-02,9.99999e-01,9.99999e-01,9.96988e-01,6.72553e-02,9.99985e-01
6.021116848e-01,7.08169e-02,9.99999e-01,9.99999e-01,9.98287e-01,7.09385e-02,9.99997e-01
6.051222432e-01,7.46798e-02,9.99999e-01,9.99999e-01,9.99132e-01,7.47446e-02,9.99999e-01
6.081478544e-01,7.86443e-02,9.99999e-01,9.99999e-01,9.99626e-01,7.86736e-02,9.99999e-01
6.111885937e-01,8.27124e-02,9.99999e-01,9.99999e-01,9.99841e-01,8.27255e-02,9.99999e-01
6.142445367e-01,8.68936e-02,9.99999e-01,9.99999e-01,9.99928e-01,8.68998e-02,9.99999e-01
6.173157594e-01,9.11924e-02,9.99999e-01,9.99999e-01,9.99960e-01,9.11960e-02,9.99999e-01
6.204023382e-01,9.56102e-02,9.99999e-01,9.99999e-01,9.99966e-01,9.56134e-02,9.99999e-01
6.235043498e-01,1.00137e-01,9.99999e-01,9.99999e-01,9.99857e-01,1.00151e-01,9.99999e-01
6.266218716e-01,1.04728e-01,9.99999e-01,9.99999e-01,9.99234e-01,1.04808e-01,9.99994e-01
6.297549810e-01,1.09552e-01,9.99999e-01,9.99999e-01,9.99719e-01,1.09583e-01,9.99988e-01
6.329037559e-01,1.14411e-01,9.99999e-01,9.99999e-01,9.99443e-01,1.14475e-01,9.99990e-01
6.360682746e-01,1.19426e-01,9.99999e-01,9.99999e-01,9.99528e-01,1.19483e-01,9.99994e-01
6.392486160e-01,1.24527e-01,9.99999e-01,9.99999e-01,9.99387e-01,1.24604e-01,9.99997e-01
6.424448591e-01,1.29741e-01,9.99999e-01,9.99999e-01,9.99265e-01,1.29836e-01,9.99995e-01
6.456570834e-01,1.34670e-01,9.99999e-01,9.99999e-01,9.96254e-01,1.35179e-01,9.99978e-01
6.488853688e-01,1.40160e-01,9.99999e-01,9.99999e-01,9.96722e-01,1.40629e-01,9.99940e-01
6.521297956e-01,1.45762e-01,9.99999e-01,9.99999e-01,9.97154e-01,1.46185e-01,9.99950e-01
6.553904446e-01,1.51412e-01,9.99999e-01,9.99999e-01,9.97190e-01,1.51844e-01,9.99962e-01
6.586673968e-01,1.57220e-01,9.99999e-01,9.99999e-01,9.97570e-01,1.57604e-01,9.99987e-01
6.619607338e-01,1.63233e-01,9.99999e-01,9.99999e-01,9.98595e-01,1.63462e-01,9.99996e-01
6.652705375e-01,1.69278e-01,9.99999e-01,9.99999e-01,9.99184e-01,1.69416e-01,9.99998e-01
6.685968902e-01,1.75396e-01,9.99999e-01,9.99999e-01,9.99621e-01,1.75463e-01,9.99999e-01
6.719398746e-01,1.81567e-01,9.99999e-01,9.99999e-01,9.99824e-01,1.81599e-01,9.99999e-01
6.752995740e-01,1.87805e-01,9.99999e-01,9.99999e-01,9.99904e-01,1.87823e-01,9.99999e-01
6.786760719e-01,1.94104e-01,9.99999e-01,9.99999e-01,9.99863e-01,1.94130e-01,9.99999e-01
6.820694522e-01,2.00472e-01,9.99999e-01,9.99999e-01,9.99766e-01,2.00519e-01,9.99998e-01
6.854797995e-01,2.06923e-01,9.99999e-01,9.99999e-01,9.99699e-01,2.06985e-01,9.99996e-01
6.889071985e-01,2.13372e-01,9.99999e-01,9.99999e-01,9.99283e-01,2.13526e-01,9.99992e-01
6.923517345e-01,2.17532e-01,9.99999e-01,9.99999e-01,9.88213e-01,2.20139e-01,9.99942e-01
6.958134932e-01,2.25369e-01,9.99999e-01,9.99999e-01,9.93733e-01,2.26819e-01,9.99870e-01
6.992925606e-01,2.32174e-01,9.99999e-01,9.99999e-01,9.94160e-01,2.33564e-01,9.99886e-01
7.027890234e-01,2.38605e-01,9.99999e-01,9.99999e-01,9.92737e-01,2.40371e-01,9.99912e-01
7.063029686e-01,2.45717e-01,9.99999e-01,9.99999e-01,9.93897e-01,2.47236e-01,9.99956e-01
7.098344834e-01,2.52660e-01,9.99999e-01,9.99999e-01,9.94143e-01,2.54155e-01,9.99973e-01
7.133836558e-01,2.59102e-01,9.99999e-01,9.99999e-01,9.92301e-01,2.61126e-01,9.99948e-01
7.169505741e-01,2.51769e-01,9.99999e-01,9.99999e-01,9.39307e-01,2.68144e-01,9.99599e-01
7.205353270e-01,2.66566e-01,9.99999e-01,9.99999e-01,9.69286e-01,2.75207e-01,9.99294e-01
7.241380036e-01,2.71337e-01,9.99999e-01,9.99999e-01,9.61720e-01,2.82311e-01,9.99385e-01
7.277586936e-01,2.79284e-01,9.99999e-01,9.99999e-01,9.65361e-01,2.89452e-01,9.99489e-01
7.313974871e-01,2.85578e-01,9.99999e-01,9.99999e-01,9.62973e-01,2.96628e-01,9.99766e-01
7.350544745e-01,2.97626e-01,9.99999e-01,9.99999e-01,9.79645e-01,3.03835e-01,9.99918e-01
7.387297469e-01,3.06383e-01,9.99999e-01,9.99999e-01,9.84973e-01,3.11069e-01,9.99962e-01
7.424233956e-01,3.15971e-01,9.99999e-01,9.99999e-01,9.92604e-01,3.18327e-01,9.99992e-01
7.461355126e-01,3.24148e-01,9.99999e-01,9.99999e-01,9.95520e-01,3.25607e-01,9.99998e-01
7.498661902e-01,3.32207e-01,9.99999e-01,9.99999e-01,9.97906e-01,3.32904e-01,9.99999e-01
7.536155211e-01,3.39867e-01,9.99999e-01,9.99999e-01,9.98975e-01,3.40216e-01,9.99999e-01
7.573835987e-01,3.47355e-01,9.99999e-01,9.99999e-01,9.99472e-01,3.47539e-01,9.99999e-01
7.611705167e-01,3.54754e-01,9.99999e-01,9.99999e-01,9.99671e-01,3.54870e-01,9.99999e-01
7.649763693e-01,3.62133e-01,9.99999e-01,9.99999e-01,9.99794e-01,3.62207e-01,9.99999e-01
7.688012511e-01,3.69493e-01,9.99999e-01,9.99999e-01,9.99856e-01,3.69546e-01,9.99999e-01
7.726452574e-01,3.76840e-01,9.99999e-01,9.99999e-01,9.99882e-01,3.76884e-01,9.99999e-01
7.765084837e-01,3.84156e-01,9.99999e-01,9.99999e-01,9.99834e-01,3.84219e-01,9.99999e-01
7.803910261e-01,3.75435e-01,9.99999e-01,9.59506e-01,9.99286e-01,3.91548e-01,9.99998e-01
7.842929812e-01,3.27735e-01,9.99999e-01,8.23593e-01,9.97510e-01,3.98867e-01,9.99994e-01
7.882144461e-01,3.28893e-01,9.99999e-01,8.13757e-01,9.94832e-01,4.06175e-01,9.99967e-01
7.921555184e-01,3.65273e-01,9.99999e-01,8.85943e-01,9.97149e-01,4.13468e-01,9.99938e-01
7.961162960e-01,3.85771e-01,9.99999e-01,9.21464e-01,9.95021e-01,4.20744e-01,9.99940e-01
8.000968774e-01,4.07082e-01,9.99999e-01,9.56694e-01,9.94218e-01,4.28001e-01,9.99937e-01
8.040973618e-01,4.22856e-01,9.99999e-01,9.77232e-01,9.94224e-01,4.35235e-01,9.99949e-01
8.081178486e-01,4.32159e-01,9.99999e-01,9.89528e-01,9.87107e-01,4.42446e-01,9.99953e-01
8.121584379e-01,4.24439e-01,9.99999e-01,9.96727e-01,9.47204e-01,4.49630e-01,9.99816e-01
8.162192301e-01,4.27425e-01,9.99999e-01,9.99276e-01,9.37028e-01,4.56786e-01,9.99313e-01
8.203003262e-01,4.49025e-01,9.99999e-01,9.99987e-01,9.68701e-01,4.63910e-01,9.99195e-01
8.244018279e-01,4.49747e-01,9.99999e-01,9.99999e-01,9.55484e-01,4.71002e-01,9.99359e-01
8.285238370e-01,4.59744e-01,9.99999e-01,9.99999e-01,9.62171e-01,4.78059e-01,9.99497e-01
8.326664562e-01,4.66363e-01,9.99999e-01,9.99999e-01,9.61616e-01,4.85079e-01,9.99791e-01
8.368297885e-01,4.78451e-01,9.99999e-01,9.99999e-01,9.72386e-01,4.92060e-01,9.99952e-01
8.410139374e-01,4.90754e-01,9.99999e-01,9.99999e-01,9.83498e-01,4.99001e-01,9.99971e-01
8.452190071e-01,5.01778e-01,9.99999e-01,9.99999e-01,9.91868e-01,5.05900e-01,9.99982e-01
8.494451021e-01,5.10335e-01,9.99999e-01,9.99999e-01,9.95292e-01,5.12756e-01,9.99986e-01
8.536923276e-01,5.18109e-01,9.99999e-01,9.99999e-01,9.97204e-01,5.19566e-01,9.99990e-01
8.579607893e-01,5.25424e-01,9.99999e-01,9.99999e-01,9.98283e-01,5.26329e-01,9.99997e-01
8.622505932e-01,5.32461e-01,9.99999e-01,9.99999e-01,9.98906e-01,5.33044e-01,9.99999e-01
8.665618462e-01,4.94416e-01,9.99999e-01,9.16668e-01,9.99325e-01,5.39710e-01,9.99999e-01
8.708946554e-01,3.35373e-01,9.99999e-01,6.14323e-01,9.99229e-01,5.46324e-01,9.99999e-01
8.752491287e-01,3.71574e-01,9.99999e-01,6.72729e-01,9.98968e-01,5.52887e-01,9.99998e-01
8.796253743e-01,4.48707e-01,9.99999e-01,8.03228e-01,9.98576e-01,5.59397e-01,9.99996e-01
8.840235012e-01,5.04147e-01,9.99999e-01,8.92383e-01,9.98373e-01,5.65853e-01,9.99989e-01
8.884436187e-01,5.43858e-01,9.99999e-01,9.55904e-01,9.94178e-01,5.72253e-01,9.99971e-01
8.928858368e-01,5.33840e-01,9.99999e-01,9.81946e-01,9.39574e-01,5.78597e-01,9.99836e-01
8.973502660e-01,5.20580e-01,9.99999e-01,9.95557e-01,8.94671e-01,5.84884e-01,9.99164e-01
9.018370173e-01,5.57245e-01,9.99999e-01,9.99508e-01,9.44389e-01,5.91113e-01,9.98686e-01
9.063462024e-01,5.61135e-01,9.99999e-01,9.87894e-01,9.51624e-01,5.97284e-01,9.98846e-01
9.108779334e-01,5.42069e-01,9.99999e-01,9.71712e-01,9.25212e-01,6.03395e-01,9.98801e-01
9.154323231e-01,5.53601e-01,9.99999e-01,9.93225e-01,9.15299e-01,6.09446e-01,9.99009e-01
9.200094847e-01,5.24434e-01,9.99999e-01,9.09813e-01,9.32891e-01,6.15437e-01,9.99445e-01
9.246095321e-01,4.86901e-01,9.99999e-01,8.69194e-01,8.99362e-01,6.21366e-01,9.99360e-01
9.292325798e-01,2.79493e-01,9.99999e-01,8.97213e-01,4.91180e-01,6.27234e-01,9.97510e-01
9.338787427e-01,2.26708e-01,9.99999e-01,8.99382e-01,3.96923e-01,6.33040e-01,9.89749e-01
9.385481364e-01,4.03861e-01,9.99999e-01,9.24965e-01,6.88083e-01,6.38783e-01,9.87820e-01
9.432408771e-01,3.65919e-01,9.99999e-01,9.53186e-01,6.00080e-01,6.44463e-01,9.89483e-01
9.479570815e-01,3.12596e-01,9.99999e-01,9.75773e-01,4.96271e-01,6.50080e-01,9.91432e-01
9.526968669e-01,3.78397e-01,9.99999e-01,9.88226e-01,5.86349e-01,6.55633e-01,9.94765e-01
9.574603512e-01,3.99734e-01,9.99999e-01,9.94945e-01,6.09065e-01,6.61123e-01,9.97337e-01
9.622476530e-01,4.42660e-01,9.99999e-01,9.98419e-01,6.66305e-01,6.66549e-01,9.98158e-01
9.670588912e-01,5.30801e-01,9.99999e-01,9.99524e-01,7.91334e-01,6.71911e-01,9.98739e-01
9.718941857e-01,5.84268e-01,9.99999e-01,9.99965e-01,8.63585e-01,6.77209e-01,9.99072e-01
9.767536566e-01,6.03799e-01,9.99999e-01,9.99999e-01,8.85388e-01,6.82443e-01,9.99290e-01
9.816374249e-01,6.27978e-01,9.99999e-01,9.99999e-01,9.13495e-01,6.87613e-01,9.99754e-01
9.865456120e-01,6.54593e-01,9.99999e-01,9.99999e-01,9.45009e-01,6.92719e-01,9.99948e-01
9.914783401e-01,6.73791e-01,9.99999e-01,9.99999e-01,9.65661e-01,6.97761e-01,9.99985e-01
9.964357318e-01,6.89485e-01,9.99999e-01,9.99999e-01,9.81148e-01,7.02738e-01,9.99991e-01
1.001417910e+00,6.99617e-01,9.99999e-01,9.99999e-01,9.88657e-01,7.07652e-01,9.99986e-01
1.006425000e+00,7.07882e-01,9.99999e-01,9.99999e-01,9.93532e-01,7.12502e-01,9.99981e-01
1.011457125e+00,7.14387e-01,9.99999e-01,9.99999e-01,9.95970e-01,7.17289e-01,9.99982e-01
1.016514411e+00,7.20031e-01,9.99999e-01,9.99999e-01,9.97267e-01,7.22012e-01,9.99987e-01
1.021596983e+00,7.25040e-01,9.99999e-01,9.99940e-01,9.97823e-01,7.26672e-01,9.99987e-01
1.026704968e+00,7.26574e-01,9.99999e-01,9.95271e-01,9.98303e-01,7.31269e-01,9.99991e-01
1.031838492e+00,6.98790e-01,9.99999e-01,9.50835e-01,9.98763e-01,7.35804e-01,9.99997e-01
1.036997685e+00,9.09015e-02,9.99999e-01,1.22864e-01,9.99267e-01,7.40277e-01,9.99999e-01
1.042182673e+00,5.11412e-02,9.99999e-01,6.87264e-02,9.99129e-01,7.44687e-01,9.99999e-01
1.047393587e+00,7.11917e-02,9.99999e-01,9.51405e-02,9.98843e-01,7.49036e-01,9.99999e-01
1.052630555e+00,8.43268e-04,9.99999e-01,1.12066e-03,9.98415e-01,7.53323e-01,9.99999e-01
1.057893707e+00,2.38420e-03,9.99999e-01,3.15252e-03,9.97359e-01,7.57550e-01,9.99998e-01
1.063183176e+00,1.06247e-02,9.99999e-01,1.39899e-02,9.95653e-01,7.61716e-01,9.99997e-01
1.068499092e+00,3.74615e-02,9.99999e-01,4.92067e-02,9.92720e-01,7.65823e-01,9.99994e-01
1.073841587e+00,1.12893e-01,9.99999e-01,1.47676e-01,9.91501e-01,7.69869e-01,9.99988e-01
1.079210795e+00,2.28206e-01,9.99999e-01,2.97794e-01,9.89084e-01,7.73857e-01,9.99970e-01
1.084606849e+00,3.91365e-01,9.99999e-01,5.11133e-01,9.83548e-01,7.77785e-01,9.99929e-01
1.090029883e+00,5.39033e-01,9.99999e-01,7.05663e-01,9.76582e-01,7.81656e-01,9.99854e-01
1.095480033e+00,6.20246e-01,9.99999e-01,8.41891e-01,9.37352e-01,7.85468e-01,9.99736e-01
1.100957433e+00,6.16814e-01,9.99999e-01,9.20386e-01,8.48631e-01,7.89224e-01,9.99515e-01
1.106462220e+00,5.06978e-01,9.99999e-01,9.66231e-01,6.61257e-01,7.92922e-01,9.99178e-01
1.111994531e+00,3.29719e-01,9.99999e-01,9.87347e-01,4.19676e-01,7.96565e-01,9.97820e-01
1.117554504e+00,1.96106e-01,9.99999e-01,9.96882e-01,2.47621e-01,8.00152e-01,9.92153e-01
1.123142276e+00,2.87136e-01,9.99999e-01,9.99793e-01,3.64042e-01,8.03683e-01,9.81492e-01
1.128757988e+00,4.09612e-01,9.99999e-01,9.99999e-01,5.18558e-01,8.07160e-01,9.78621e-01
1.134401778e+00,2.14026e-01,9.99999e-01,9.99999e-01,2.69053e-01,8.10583e-01,9.81365e-01
1.140073787e+00,5.39564e-01,9.99999e-01,9.99999e-01,6.72961e-01,8.13952e-01,9.85040e-01
1.145774156e+00,3.56120e-01,9.99999e-01,9.99999e-01,4.41639e-01,8.17268e-01,9.86650e-01
1.151503026e+00,3.29552e-01,9.99999e-01,9.99999e-01,4.04649e-01,8.20532e-01,9.92541e-01
1.157260541e+00,3.80794e-01,9.99999e-01,9.99999e-01,4.63307e-01,8.23745e-01,9.97763e-01
1.163046844e+00,4.66618e-01,9.99999e-01,9.99999e-01,5.64652e-01,8.26905e-01,9.99365e-01
1.168862078e+00,5.56390e-01,9.99999e-01,9.99999e-01,6.70555e-01,8.30016e-01,9.99672e-01
1.174706389e+00,6.50698e-01,9.99999e-01,9.99999e-01,7.81417e-01,8.33076e-01,9.99566e-01
1.180579921e+00,7.18843e-01,9.99999e-01,9.99999e-01,8.60334e-01,8.36086e-01,9.99344e-01
1.186482820e+00,7.70149e-01,9.99999e-01,9.99993e-01,9.18506e-01,8.39048e-01,9.99327e-01
1.192415234e+00,7.87730e-01,9.99999e-01,9.83395e-01,9.51632e-01,8.41962e-01,9.99496e-01
1.198377311e+00,4.52979e-01,9.99999e-01,5.55462e-01,9.59153e-01,8.44827e-01,9.99524e-01
1.204369197e+00,7.77834e-14,9.99999e-01,9.39206e-14,9.61285e-01,8.47646e-01,9.99569e-01
1.210391043e+00,5.44879e-52,9.99999e-01,6.54461e-52,9.62928e-01,8.50418e-01,9.99737e-01
1.216442998e+00,3.62828e-45,9.99999e-01,4.33884e-45,9.68311e-01,8.53144e-01,9.99839e-01
1.222525213e+00,1.66328e-44,9.99999e-01,1.96885e-44,9.75261e-01,8.55825e-01,9.99899e-01
1.228637839e+00,1.80082e-34,9.99999e-01,2.12297e-34,9.82770e-01,8.58461e-01,9.99953e-01
