#,Wave/freq,Total,N2,CO2,H2O,Rayleigh,CIA
4.000000000e-01,5.81311e-08,9.99999e-01,9.99999e-01,9.99967e-01,5.81330e-08,9.99999e-01
4.020000000e-01,8.08129e-08,9.99999e-01,9.99999e-01,9.99979e-01,8.08145e-08,9.99999e-01
4.040100000e-01,1.11579e-07,9.99999e-01,9.99999e-01,9.99991e-01,1.11579e-07,9.99999e-01
4.060300500e-01,1.53077e-07,9.99999e-01,9.99999e-01,9.99997e-01,1.53078e-07,9.99999e-01
4.080602003e-01,2.08702e-07,9.99999e-01,9.99999e-01,9.99998e-01,2.08702e-07,9.99999e-01
4.101005013e-01,2.82802e-07,9.99999e-01,9.99999e-01,9.99999e-01,2.82802e-07,9.99999e-01
4.121510038e-01,3.80918e-07,9.99999e-01,9.99999e-01,9.99998e-01,3.80918e-07,9.99999e-01
4.142117588e-01,5.10061e-07,9.99999e-01,9.99999e-01,9.99990e-01,5.10066e-07,9.99999e-01
4.162828176e-01,6.79046e-07,9.99999e-01,9.99999e-01,9.99959e-01,6.79073e-07,9.99999e-01
4.183642317e-01,8.98961e-07,9.99999e-01,9.99999e-01,9.99975e-01,8.98982e-07,9.99999e-01
4.204560528e-01,1.18351e-06,9.99999e-01,9.99999e-01,9.99985e-01,1.18353e-06,9.99999e-01
4.225583331e-01,1.54970e-06,9.99999e-01,9.99999e-01,9.99994e-01,1.54970e-06,9.99999e-01
4.246711247e-01,2.01839e-06,9.99999e-01,9.99999e-01,9.99995e-01,2.01839e-06,9.99999e-01
4.267944804e-01,2.61513e-06,9.99999e-01,9.99999e-01,9.99993e-01,2.61515e-06,9.99999e-01
4.289284528e-01,3.37103e-06,9.99999e-01,9.99999e-01,9.99994e-01,3.37104e-06,9.99999e-01
4.310730950e-01,4.32368e-06,9.99999e-01,9.99999e-01,9.99997e-01,4.32369e-06,9.99999e-01
4.332284605e-01,5.51835e-06,9.99999e-01,9.99999e-01,9.99998e-01,5.51836e-06,9.99999e-01
4.353946028e-01,7.00926e-06,9.99999e-01,9.99999e-01,9.99999e-01,7.00926e-06,9.99999e-01
4.375715758e-01,8.86097e-06,9.99999e-01,9.99999e-01,9.99995e-01,8.86100e-06,9.99999e-01
4.397594337e-01,1.11498e-05,9.99999e-01,9.99999e-01,9.99964e-01,1.11502e-05,9.99999e-01
4.419582309e-01,1.39648e-05,9.99999e-01,9.99999e-01,9.99822e-01,1.39673e-05,9.99999e-01
4.441680220e-01,1.74159e-05,9.99999e-01,9.99999e-01,9.99861e-01,1.74184e-05,9.99999e-01
4.463888621e-01,2.16245e-05,9.99999e-01,9.99999e-01,9.99855e-01,2.16276e-05,9.99999e-01
4.486208064e-01,2.67372e-05,9.99999e-01,9.99999e-01,9.99910e-01,2.67396e-05,9.99999e-01
4.508639105e-01,3.29201e-05,9.99999e-01,9.99999e-01,9.99957e-01,3.29215e-05,9.99999e-01
4.531182300e-01,4.03657e-05,9.99999e-01,9.99999e-01,9.99983e-01,4.03664e-05,9.99999e-01
4.553838212e-01,4.92955e-05,9.99999e-01,9.99999e-01,9.99988e-01,4.92960e-05,9.99999e-01
4.576607403e-01,5.99636e-05,9.99999e-01,9.99999e-01,9.99994e-01,5.99639e-05,9.99999e-01
4.599490440e-01,7.26583e-05,9.99999e-01,9.99999e-01,9.99995e-01,7.26586e-05,9.99999e-01
4.622487892e-01,8.77074e-05,9.99999e-01,9.99999e-01,9.99998e-01,8.77075e-05,9.99999e-01
4.645600332e-01,1.05480e-04,9.99999e-01,9.99999e-01,9.99996e-01,1.05480e-04,9.99999e-01
4.668828333e-01,1.26388e-04,9.99999e-01,9.99999e-01,9.99957e-01,1.26393e-04,9.99999e-01
4.692172475e-01,1.50899e-04,9.99999e-01,9.99999e-01,9.99909e-01,1.50912e-04,9.99999e-01
4.715633337e-01,1.79547e-04,9.99999e-01,9.99999e-01,9.99940e-01,1.79558e-04,9.99999e-01
4.739211504e-01,2.12896e-04,9.99999e-01,9.99999e-01,9.99943e-01,2.12908e-04,9.99999e-01
4.762907561e-01,2.51598e-04,9.99999e-01,9.99999e-01,9.99970e-01,2.51606e-04,9.99999e-01
4.786722099e-01,2.96353e-04,9.99999e-01,9.99999e-01,9.99987e-01,2.96357e-04,9.99999e-01
4.810655710e-01,3.47939e-04,9.99999e-01,9.99999e-01,9.99995e-01,3.47941e-04,9.99999e-01
4.834708988e-01,4.07197e-04,9.99999e-01,9.99999e-01,9.99964e-01,4.07211e-04,9.99999e-01
4.858882533e-01,4.75068e-04,9.99999e-01,9.99999e-01,9.99935e-01,4.75098e-04,9.99999e-01
4.883176946e-01,5.52589e-04,9.99999e-01,9.99999e-01,9.99946e-01,5.52618e-04,9.99999e-01
4.907592831e-01,6.40840e-04,9.99999e-01,9.99999e-01,9.99951e-01,6.40871e-04,9.99999e-01
4.932130795e-01,7.41020e-04,9.99999e-01,9.99999e-01,9.99965e-01,7.41045e-04,9.99999e-01
4.956791449e-01,8.54408e-04,9.99999e-01,9.99999e-01,9.99981e-01,8.54423e-04,9.99999e-01
4.981575406e-01,9.82292e-04,9.99999e-01,9.99999e-01,9.99908e-01,9.82381e-04,9.99999e-01
5.006483283e-01,1.12613e-03,9.99999e-01,9.99999e-01,9.99764e-01,1.12639e-03,9.99997e-01
5.031515699e-01,1.28648e-03,9.99999e-01,9.99999e-01,9.98807e-01,1.28803e-03,9.99986e-01
5.056673278e-01,1.46802e-03,9.99999e-01,9.99999e-01,9.99370e-01,1.46897e-03,9.99985e-01
5.081956644e-01,1.66964e-03,9.99999e-01,9.99999e-01,9.99206e-01,1.67098e-03,9.99990e-01
5.107366428e-01,1.89492e-03,9.99999e-01,9.99999e-01,9.99464e-01,1.89594e-03,9.99997e-01
5.132903260e-01,2.14517e-03,9.99999e-01,9.99999e-01,9.99693e-01,2.14582e-03,9.99999e-01
5.158567776e-01,2.42240e-03,9.99999e-01,9.99999e-01,9.99870e-01,2.42271e-03,9.99999e-01
5.184360615e-01,2.72864e-03,9.99999e-01,9.99999e-01,9.99947e-01,2.72878e-03,9.99999e-01
5.210282418e-01,3.06624e-03,9.99999e-01,9.99999e-01,9.99980e-01,3.06630e-03,9.99999e-01
5.236333830e-01,3.43737e-03,9.99999e-01,9.99999e-01,9.99921e-01,3.43763e-03,9.99998e-01
5.262515499e-01,3.84506e-03,9.99999e-01,9.99999e-01,9.99950e-01,3.84525e-03,9.99998e-01
5.288828077e-01,4.29150e-03,9.99999e-01,9.99999e-01,9.99954e-01,4.29169e-03,9.99999e-01
5.315272217e-01,4.77939e-03,9.99999e-01,9.99999e-01,9.99960e-01,4.77958e-03,9.99999e-01
5.341848578e-01,5.31149e-03,9.99999e-01,9.99999e-01,9.99973e-01,5.31163e-03,9.99999e-01
5.368557821e-01,5.89007e-03,9.99999e-01,9.99999e-01,9.99909e-01,5.89061e-03,9.99999e-01
5.395400610e-01,6.51721e-03,9.99999e-01,9.99999e-01,9.99672e-01,6.51936e-03,9.99996e-01
5.422377613e-01,7.19769e-03,9.99999e-01,9.99999e-01,9.99577e-01,7.20078e-03,9.99991e-01
5.449489501e-01,7.93465e-03,9.99999e-01,9.99999e-01,9.99607e-01,7.93783e-03,9.99991e-01
5.476736949e-01,8.73042e-03,9.99999e-01,9.99999e-01,9.99652e-01,8.73349e-03,9.99995e-01
5.504120634e-01,9.58836e-03,9.99999e-01,9.99999e-01,9.99747e-01,9.59079e-03,9.99998e-01
5.531641237e-01,1.05115e-02,9.99999e-01,9.99999e-01,9.99872e-01,1.05128e-02,9.99999e-01
5.559299443e-01,1.15018e-02,9.99999e-01,9.99999e-01,9.99938e-01,1.15025e-02,9.99999e-01
5.587095940e-01,1.25626e-02,9.99999e-01,9.99999e-01,9.99961e-01,1.25631e-02,9.99999e-01
5.615031420e-01,1.36970e-02,9.99999e-01,9.99999e-01,9.99956e-01,1.36976e-02,9.99999e-01
5.643106577e-01,1.49084e-02,9.99999e-01,9.99999e-01,9.99951e-01,1.49091e-02,9.99999e-01
5.671322110e-01,1.61909e-02,9.99999e-01,9.99999e-01,9.99408e-01,1.62006e-02,9.99994e-01
5.699678720e-01,1.75638e-02,9.99999e-01,9.99999e-01,9.99373e-01,1.75750e-02,9.99983e-01
5.728177114e-01,1.90228e-02,9.99999e-01,9.99999e-01,9.99346e-01,1.90355e-02,9.99986e-01
5.756818000e-01,2.05723e-02,9.99999e-01,9.99999e-01,9.99400e-01,2.05848e-02,9.99991e-01
5.785602090e-01,2.22142e-02,9.99999e-01,9.99999e-01,9.99477e-01,2.22259e-02,9.99997e-01
5.814530100e-01,2.39488e-02,9.99999e-01,9.99999e-01,9.99475e-01,2.39614e-02,9.99998e-01
5.843602750e-01,2.57779e-02,9.99999e-01,9.99999e-01,9.99373e-01,2.57941e-02,9.99996e-01
5.872820764e-01,2.75763e-02,9.99999e-01,9.99999e-01,9.94614e-01,2.77266e-02,9.99961e-01
5.902184868e-01,2.95645e-02,9.99999e-01,9.99999e-01,9.93485e-01,2.97614e-02,9.99896e-01
5.931695792e-01,3.17508e-02,9.99999e-01,9.99999e-01,9.95393e-01,3.19009e-02,9.99900e-01
5.961354271e-01,3.39730e-02,9.99999e-01,9.99999e-01,9.94952e-01,3.41473e-02,9.99942e-01
5.991161043e-01,3.63678e-02,9.99999e-01,9.99999e-01,9.96317e-01,3.65028e-02,9.99981e-01
6.021116848e-01,3.88879e-02,9.99999e-01,9.99999e-01,9.97909e-01,3.89694e-02,9.99997e-01
6.051222432e-01,4.15050e-02,9.99999e-01,9.99999e-01,9.98941e-01,4.15490e-02,9.99999e-01
6.081478544e-01,4.42231e-02,9.99999e-01,9.99999e-01,9.99543e-01,4.42433e-02,9.99999e-01
6.111885937e-01,4.70448e-02,9.99999e-01,9.99999e-01,9.99806e-01,4.70539e-02,9.99999e-01
6.142445367e-01,4.99778e-02,9.99999e-01,9.99999e-01,9.99913e-01,4.99821e-02,9.99999e-01
6.173157594e-01,5.30268e-02,9.99999e-01,9.99999e-01,9.99951e-01,5.30294e-02,9.99999e-01
6.204023382e-01,5.61944e-02,9.99999e-01,9.99999e-01,9.99959e-01,5.61966e-02,9.99999e-01
6.235043498e-01,5.94743e-02,9.99999e-01,9.99999e-01,9.99821e-01,5.94849e-02,9.99999e-01
6.266218716e-01,6.28354e-02,9.99999e-01,9.99999e-01,9.99060e-01,6.28949e-02,9.99992e-01
6.297549810e-01,6.64034e-02,9.99999e-01,9.99999e-01,9.99655e-01,6.64271e-02,9.99986e-01
6.329037559e-01,7.00337e-02,9.99999e-01,9.99999e-01,9.99319e-01,7.00821e-02,9.99988e-01
6.360682746e-01,7.38167e-02,9.99999e-01,9.99999e-01,9.99419e-01,7.38600e-02,9.99993e-01
6.392486160e-01,7.77022e-02,9.99999e-01,9.99999e-01,9.99248e-01,7.77608e-02,9.99996e-01
6.424448591e-01,8.17019e-02,9.99999e-01,9.99999e-01,9.98993e-01,8.17845e-02,9.99995e-01
6.456570834e-01,8.55275e-02,9.99999e-01,9.99999e-01,9.95332e-01,8.59307e-02,9.99973e-01
6.488853688e-01,8.98847e-02,9.99999e-01,9.99999e-01,9.96586e-01,9.01990e-02,9.99927e-01
6.521297956e-01,9.42540e-02,9.99999e-01,9.99999e-01,9.96520e-01,9.45887e-02,9.99939e-01
6.553904446e-01,9.87511e-02,9.99999e-01,9.99999e-01,9.96534e-01,9.90989e-02,9.99955e-01
6.586673968e-01,1.03420e-01,9.99999e-01,9.99999e-01,9.97033e-01,1.03729e-01,9.99984e-01
6.619607338e-01,1.08297e-01,9.99999e-01,9.99999e-01,9.98346e-01,1.08477e-01,9.99996e-01
6.652705375e-01,1.13230e-01,9.99999e-01,9.99999e-01,9.99007e-01,1.13342e-01,9.99997e-01
6.685968902e-01,1.18269e-01,9.99999e-01,9.99999e-01,9.99538e-01,1.18323e-01,9.99999e-01
6.719398746e-01,1.23392e-01,9.99999e-01,9.99999e-01,9.99786e-01,1.23418e-01,9.99999e-01
6.752995740e-01,1.28610e-01,9.99999e-01,9.99999e-01,9.99883e-01,1.28625e-01,9.99999e-01
6.786760719e-01,1.33920e-01,9.99999e-01,9.99999e-01,9.99832e-01,1.33943e-01,9.99999e-01
6.820694522e-01,1.39329e-01,9.99999e-01,9.99999e-01,9.99713e-01,1.39369e-01,9.99998e-01
6.854797995e-01,1.44847e-01,9.99999e-01,9.99999e-01,9.99630e-01,1.44901e-01,9.99996e-01
6.889071985e-01,1.50400e-01,9.99999e-01,9.99999e-01,9.99102e-01,1.50536e-01,9.99991e-01
6.923517345e-01,1.53990e-01,9.99999e-01,9.99999e-01,9.85460e-01,1.56273e-01,9.99929e-01
6.958134932e-01,1.60859e-01,9.99999e-01,9.99999e-01,9.92442e-01,1.62109e-01,9.99844e-01
6.992925606e-01,1.66807e-01,9.99999e-01,9.99999e-01,9.92792e-01,1.68041e-01,9.99859e-01
7.027890234e-01,1.72502e-01,9.99999e-01,9.99999e-01,9.91118e-01,1.74067e-01,9.99892e-01
7.063029686e-01,1.78827e-01,9.99999e-01,9.99999e-01,9.92527e-01,1.80183e-01,9.99946e-01
7.098344834e-01,1.85044e-01,9.99999e-01,9.99999e-01,9.92829e-01,1.86387e-01,9.99968e-01
7.133836558e-01,1.90821e-01,9.99999e-01,9.99999e-01,9.90436e-01,1.92675e-01,9.99937e-01
7.169505741e-01,1.84177e-01,9.99999e-01,9.99999e-01,9.25755e-01,1.99045e-01,9.99508e-01
7.205353270e-01,1.97729e-01,9.99999e-01,9.99999e-01,9.63045e-01,2.05494e-01,9.99134e-01
7.241380036e-01,2.01937e-01,9.99999e-01,9.99999e-01,9.53162e-01,2.12018e-01,9.99252e-01
7.277586936e-01,2.09228e-01,9.99999e-01,9.99999e-01,9.57646e-01,2.18615e-01,9.99388e-01
7.313974871e-01,2.15091e-01,9.99999e-01,9.99999e-01,9.55043e-01,2.25280e-01,9.99713e-01
7.350544745e-01,2.26230e-01,9.99999e-01,9.99999e-01,9.75182e-01,2.32011e-01,9.99900e-01
7.387297469e-01,2.34418e-01,9.99999e-01,9.99999e-01,9.81678e-01,2.38803e-01,9.99953e-01
7.424233956e-01,2.43442e-01,9.99999e-01,9.99999e-01,9.90999e-01,2.45655e-01,9.99990e-01
7.461355126e-01,2.51182e-01,9.99999e-01,9.99999e-01,9.94535e-01,2.52562e-01,9.99997e-01
7.498661902e-01,2.58860e-01,9.99999e-01,9.99999e-01,9.97453e-01,2.59521e-01,9.99998e-01
7.536155211e-01,2.66196e-01,9.99999e-01,9.99999e-01,9.98749e-01,2.66529e-01,9.99999e-01
7.573835987e-01,2.73406e-01,9.99999e-01,9.99999e-01,9.99356e-01,2.73582e-01,9.99999e-01
7.611705167e-01,2.80565e-01,9.99999e-01,9.99999e-01,9.99599e-01,2.80677e-01,9.99999e-01
7.649763693e-01,2.87738e-01,9.99999e-01,9.99999e-01,9.99748e-01,2.87810e-01,9.99999e-01
7.688012511e-01,2.94927e-01,9.99999e-01,9.99999e-01,9.99825e-01,2.94978e-01,9.99999e-01
7.726452574e-01,3.02134e-01,9.99999e-01,9.99999e-01,9.99855e-01,3.02178e-01,9.99999e-01
7.765084837e-01,3.09343e-01,9.99999e-01,9.99999e-01,9.99795e-01,3.09406e-01,9.99999e-01
7.803910261e-01,3.00400e-01,9.99999e-01,9.49453e-01,9.99116e-01,3.16659e-01,9.99998e-01
7.842929812e-01,2.55466e-01,9.99999e-01,7.90903e-01,9.96917e-01,3.23934e-01,9.99993e-01
7.882144461e-01,2.56283e-01,9.99999e-01,7.78412e-01,9.93666e-01,3.31227e-01,9.99956e-01
7.921555184e-01,2.90827e-01,9.99999e-01,8.62026e-01,9.96526e-01,3.38536e-01,9.99923e-01
7.961162960e-01,3.11160e-01,9.99999e-01,9.05225e-01,9.93856e-01,3.45857e-01,9.99927e-01
8.000968774e-01,3.32230e-01,9.99999e-01,9.47421e-01,9.92911e-01,3.53187e-01,9.99923e-01
8.040973618e-01,3.48080e-01,9.99999e-01,9.72420e-01,9.92908e-01,3.60522e-01,9.99938e-01
8.081178486e-01,3.57370e-01,9.99999e-01,9.87232e-01,9.84066e-01,3.67861e-01,9.99942e-01
8.121584379e-01,3.49475e-01,9.99999e-01,9.96047e-01,9.35285e-01,3.75200e-01,9.99775e-01
8.162192301e-01,3.52781e-01,9.99999e-01,9.99125e-01,9.23776e-01,3.82536e-01,9.99157e-01
8.203003262e-01,3.74414e-01,9.99999e-01,9.99986e-01,9.61323e-01,3.89866e-01,9.99013e-01
8.244018279e-01,3.75699e-01,9.99999e-01,9.99999e-01,9.46639e-01,3.97188e-01,9.99214e-01
8.285238370e-01,3.85541e-01,9.99999e-01,9.99999e-01,9.53722e-01,4.04498e-01,9.99383e-01
8.326664562e-01,3.92453e-01,9.99999e-01,9.99999e-01,9.53272e-01,4.11795e-01,9.99744e-01
8.368297885e-01,4.04965e-01,9.99999e-01,9.99999e-01,9.66386e-01,4.19075e-01,9.99941e-01
8.410139374e-01,4.17751e-01,9.99999e-01,9.99999e-01,9.79894e-01,4.26337e-01,9.99965e-01
8.452190071e-01,4.29273e-01,9.99999e-01,9.99999e-01,9.90094e-01,4.33577e-01,9.99979e-01
8.494451021e-01,4.38247e-01,9.99999e-01,9.99999e-01,9.94239e-01,4.40793e-01,9.99983e-01
8.536923276e-01,4.46453e-01,9.99999e-01,9.99999e-01,9.96591e-01,4.47984e-01,9.99989e-01
8.579607893e-01,4.54189e-01,9.99999e-01,9.99999e-01,9.97899e-01,4.55146e-01,9.99997e-01
8.622505932e-01,4.61661e-01,9.99999e-01,9.99999e-01,9.98665e-01,4.62278e-01,9.99999e-01
8.665618462e-01,4.23716e-01,9.99999e-01,9.03428e-01,9.99173e-01,4.69377e-01,9.99999e-01
8.708946554e-01,2.64024e-01,9.99999e-01,5.54656e-01,9.99053e-01,4.76442e-01,9.99998e-01
8.752491287e-01,2.98875e-01,9.99999e-01,6.18936e-01,9.98734e-01,4.83471e-01,9.99998e-01
8.796253743e-01,3.75310e-01,9.99999e-01,7.66505e-01,9.98246e-01,4.90461e-01,9.99995e-01
8.840235012e-01,4.32165e-01,9.99999e-01,8.70540e-01,9.97997e-01,4.97412e-01,9.99987e-01
8.884436187e-01,4.74027e-01,9.99999e-01,9.46774e-01,9.92697e-01,5.04320e-01,9.99964e-01
8.928858368e-01,4.62957e-01,9.99999e-01,9.78069e-01,9.25866e-01,5.11186e-01,9.99799e-01
8.973502660e-01,4.49346e-01,9.99999e-01,9.94637e-01,8.72874e-01,5.18006e-01,9.98975e-01
9.018370173e-01,4.88576e-01,9.99999e-01,9.99407e-01,9.33037e-01,5.24781e-01,9.98389e-01
9.063462024e-01,4.92067e-01,9.99999e-01,9.84881e-01,9.40643e-01,5.31507e-01,9.98585e-01
9.108779334e-01,4.72041e-01,9.99999e-01,9.65618e-01,9.09063e-01,5.38184e-01,9.98530e-01
9.154323231e-01,4.84418e-01,9.99999e-01,9.91837e-01,8.97313e-01,5.44811e-01,9.98784e-01
9.200094847e-01,4.54079e-01,9.99999e-01,8.91104e-01,9.18730e-01,5.51385e-01,9.99319e-01
9.246095321e-01,4.13710e-01,9.99999e-01,8.42834e-01,8.76582e-01,5.57907e-01,9.99215e-01
9.292325798e-01,2.11395e-01,9.99999e-01,8.75003e-01,4.21076e-01,5.64376e-01,9.96947e-01
9.338787427e-01,1.66185e-01,9.99999e-01,8.78704e-01,3.29374e-01,5.70789e-01,9.87441e-01
9.385481364e-01,3.32285e-01,9.99999e-01,9.09145e-01,6.37759e-01,5.77146e-01,9.85081e-01
9.432408771e-01,2.94387e-01,9.99999e-01,9.43305e-01,5.39382e-01,5.83446e-01,9.87116e-01
9.479570815e-01,2.43717e-01,9.99999e-01,9.70484e-01,4.29400e-01,5.89689e-01,9.89501e-01
9.526968669e-01,3.07373e-01,9.99999e-01,9.85669e-01,5.25787e-01,5.95873e-01,9.93583e-01
9.574603512e-01,3.26864e-01,9.99999e-01,9.93847e-01,5.47780e-01,6.01998e-01,9.96735e-01
9.622476530e-01,3.70086e-01,9.99999e-01,9.98077e-01,6.11077e-01,6.08063e-01,9.97741e-01
9.670588912e-01,4.60920e-01,9.99999e-01,9.99423e-01,7.52162e-01,6.14067e-01,9.98454e-01
9.718941857e-01,5.17587e-01,9.99999e-01,9.99959e-01,8.35784e-01,6.20011e-01,9.98861e-01
9.767536566e-01,5.38789e-01,9.99999e-01,9.99999e-01,8.61581e-01,6.25893e-01,9.99130e-01
9.816374249e-01,5.65458e-01,9.99999e-01,9.99999e-01,8.95388e-01,6.31712e-01,9.99698e-01
9.865456120e-01,5.94884e-01,9.99999e-01,9.99999e-01,9.33254e-01,6.37470e-01,9.99936e-01
9.914783401e-01,6.16257e-01,9.99999e-01,9.99999e-01,9.58180e-01,6.43164e-01,9.99982e-01
9.964357318e-01,6.33873e-01,9.99999e-01,9.99999e-01,9.77008e-01,6.48796e-01,9.99989e-01
1.001417910e+00,6.45296e-01,9.99999e-01,9.99999e-01,9.86157e-01,6.54364e-01,9.99983e-01
1.006425000e+00,6.54631e-01,9.99999e-01,9.99999e-01,9.92084e-01,6.59869e-01,9.99977e-01
1.011457125e+00,6.62024e-01,9.99999e-01,9.99999e-01,9.95082e-01,6.65309e-01,9.99978e-01
1.016514411e+00,6.68436e-01,9.99999e-01,9.99999e-01,9.96658e-01,6.70686e-01,9.99985e-01
1.021596983e+00,6.74134e-01,9.99999e-01,9.99917e-01,9.97336e-01,6.75999e-01,9.99984e-01
1.026704968e+00,6.75788e-01,9.99999e-01,9.94056e-01,9.97921e-01,6.81248e-01,9.99989e-01
1.031838492e+00,6.43560e-01,9.99999e-01,9.38908e-01,9.98489e-01,6.86432e-01,9.99996e-01
1.036997685e+00,6.90997e-02,9.99999e-01,9.99889e-02,9.99102e-01,6.91553e-01,9.99999e-01
1.042182673e+00,2.83888e-02,9.99999e-01,4.07897e-02,9.98929e-01,6.96609e-01,9.99999e-01
1.047393587e+00,4.41523e-02,9.99999e-01,6.30081e-02,9.98580e-01,7.01601e-01,9.99999e-01
1.052630555e+00,2.34503e-04,9.99999e-01,3.32354e-04,9.98052e-01,7.06530e-01,9.99998e-01
1.057893707e+00,7.47220e-04,9.99999e-01,1.05244e-03,9.96749e-01,7.11395e-01,9.99998e-01
1.063183176e+00,4.34165e-03,9.99999e-01,6.08347e-03,9.94656e-01,7.16196e-01,9.99996e-01
1.068499092e+00,1.84542e-02,9.99999e-01,2.57777e-02,9.91068e-01,7.20933e-01,9.99993e-01
1.073841587e+00,7.05306e-02,9.99999e-01,9.80284e-02,9.89553e-01,7.25608e-01,9.99986e-01
1.079210795e+00,1.65904e-01,9.99999e-01,2.29878e-01,9.86636e-01,7.30220e-01,9.99963e-01
1.084606849e+00,3.18530e-01,9.99999e-01,4.41849e-01,9.79833e-01,7.34769e-01,9.99913e-01
1.090029883e+00,4.69679e-01,9.99999e-01,6.53526e-01,9.71141e-01,7.39255e-01,9.99821e-01
1.095480033e+00,5.57298e-01,9.99999e-01,8.10767e-01,9.23344e-01,7.43680e-01,9.99676e-01
1.100957433e+00,5.52886e-01,9.99999e-01,9.03733e-01,8.16982e-01,7.48043e-01,9.99405e-01
1.106462220e+00,4.34714e-01,9.99999e-01,9.58999e-01,6.01758e-01,7.52345e-01,9.98991e-01
1.111994531e+00,2.58795e-01,9.99999e-01,9.84598e-01,3.47770e-01,7.56585e-01,9.97326e-01
1.117554504e+00,1.38822e-01,9.99999e-01,9.96222e-01,1.84763e-01,7.60765e-01,9.90383e-01
1.123142276e+00,2.24208e-01,9.99999e-01,9.99751e-01,2.99944e-01,7.64885e-01,9.77346e-01
1.128757988e+00,3.38079e-01,9.99999e-01,9.99999e-01,4.51475e-01,7.68946e-01,9.73840e-01
1.134401778e+00,1.69741e-01,9.99999e-01,9.99999e-01,2.24608e-01,7.72946e-01,9.77712e-01
1.140073787e+00,4.70489e-01,9.99999e-01,9.99999e-01,6.16611e-01,7.76889e-01,9.82152e-01
1.145774156e+00,2.86590e-01,9.99999e-01,9.99999e-01,3.73161e-01,7.80772e-01,9.83650e-01
1.151503026e+00,2.61268e-01,9.99999e-01,9.99999e-01,3.36068e-01,7.84598e-01,9.90858e-01
1.157260541e+00,3.08407e-01,9.99999e-01,9.99999e-01,3.92272e-01,7.88367e-01,9.97257e-01
1.163046844e+00,3.95181e-01,9.99999e-01,9.99999e-01,4.99304e-01,7.92078e-01,9.99221e-01
1.168862078e+00,4.88540e-01,9.99999e-01,9.99999e-01,6.14194e-01,7.95734e-01,9.99598e-01
1.174706389e+00,5.91226e-01,9.99999e-01,9.99999e-01,7.40041e-01,7.99333e-01,9.99468e-01
1.180579921e+00,6.67654e-01,9.99999e-01,9.99999e-01,8.32245e-01,8.02877e-01,9.99196e-01
1.186482820e+00,7.26130e-01,9.99999e-01,9.99988e-01,9.01248e-01,8.06367e-01,9.99175e-01
1.192415234e+00,7.45998e-01,9.99999e-01,9.79120e-01,9.41086e-01,8.09802e-01,9.99382e-01
1.198377311e+00,4.26689e-01,9.99999e-01,5.47928e-01,9.50103e-01,8.13183e-01,9.99416e-01
1.204369197e+00,1.84090e-16,9.99999e-01,2.31976e-16,9.52763e-01,8.16512e-01,9.99471e-01
1.210391043e+00,2.90265e-63,9.99999e-01,3.63412e-63,9.54761e-01,8.19788e-01,9.99678e-01
1.216442998e+00,6.80376e-55,9.99999e-01,8.47246e-55,9.61398e-01,8.23012e-01,9.99802e-01
1.222525213e+00,4.40370e-54,9.99999e-01,5.41562e-54,9.69804e-01,8.26184e-01,9.99877e-01
1.228637839e+00,7.26017e-42,9.99999e-01,8.88296e-42,9.78933e-01,8.29306e-01,9.99942e-01
