#,Wave/freq,Total,N2,CO2,H2O,Rayleigh,CIA
4.000000000e-01,2.05116e-23,9.99999e-01,9.99999e-01,9.99898e-01,2.05137e-23,9.99999e-01
4.020000000e-01,5.76279e-23,9.99999e-01,9.99999e-01,9.99936e-01,5.76315e-23,9.99999e-01
4.040100000e-01,1.58464e-22,9.99999e-01,9.99999e-01,9.99972e-01,1.58468e-22,9.99999e-01
4.060300500e-01,4.27115e-22,9.99999e-01,9.99999e-01,9.99993e-01,4.27117e-22,9.99999e-01
4.080602003e-01,1.12887e-21,9.99999e-01,9.99999e-01,9.99997e-01,1.12888e-21,9.99999e-01
4.101005013e-01,2.92691e-21,9.99999e-01,9.99999e-01,9.99999e-01,2.92691e-21,9.99999e-01
4.121510038e-01,7.44726e-21,9.99999e-01,9.99999e-01,9.99995e-01,7.44729e-21,9.99999e-01
4.142117588e-01,1.86022e-20,9.99999e-01,9.99999e-01,9.99972e-01,1.86027e-20,9.99999e-01
4.162828176e-01,4.56296e-20,9.99999e-01,9.99999e-01,9.99874e-01,4.56353e-20,9.99999e-01
4.183642317e-01,1.09975e-19,9.99999e-01,9.99999e-01,9.99925e-01,1.09983e-19,9.99999e-01
4.204560528e-01,2.60488e-19,9.99999e-01,9.99999e-01,9.99953e-01,2.60500e-19,9.99999e-01
4.225583331e-01,6.06575e-19,9.99999e-01,9.99999e-01,9.99982e-01,6.06586e-19,9.99999e-01
4.246711247e-01,1.38905e-18,9.99999e-01,9.99999e-01,9.99986e-01,1.38907e-18,9.99999e-01
4.267944804e-01,3.12926e-18,9.99999e-01,9.99999e-01,9.99979e-01,3.12932e-18,9.99999e-01
4.289284528e-01,6.93749e-18,9.99999e-01,9.99999e-01,9.99984e-01,6.93759e-18,9.99999e-01
4.310730950e-01,1.51403e-17,9.99999e-01,9.99999e-01,9.99992e-01,1.51404e-17,9.99999e-01
4.332284605e-01,3.25365e-17,9.99999e-01,9.99999e-01,9.99997e-01,3.25365e-17,9.99999e-01
4.353946028e-01,6.88720e-17,9.99999e-01,9.99999e-01,9.99998e-01,6.88720e-17,9.99999e-01
4.375715758e-01,1.43640e-16,9.99999e-01,9.99999e-01,9.99987e-01,1.43642e-16,9.99999e-01
4.397594337e-01,2.95235e-16,9.99999e-01,9.99999e-01,9.99891e-01,2.95267e-16,9.99999e-01
4.419582309e-01,5.98039e-16,9.99999e-01,9.99999e-01,9.99454e-01,5.98365e-16,9.99999e-01
4.441680220e-01,1.19528e-15,9.99999e-01,9.99999e-01,9.99562e-01,1.19580e-15,9.99999e-01
4.463888621e-01,2.35622e-15,9.99999e-01,9.99999e-01,9.99548e-01,2.35729e-15,9.99999e-01
4.486208064e-01,4.58375e-15,9.99999e-01,9.99999e-01,9.99717e-01,4.58504e-15,9.99999e-01
4.508639105e-01,8.80055e-15,9.99999e-01,9.99999e-01,9.99867e-01,8.80171e-15,9.99999e-01
4.531182300e-01,1.66792e-14,9.99999e-01,9.99999e-01,9.99947e-01,1.66800e-14,9.99999e-01
4.553838212e-01,3.12124e-14,9.99999e-01,9.99999e-01,9.99964e-01,3.12135e-14,9.99999e-01
4.576607403e-01,5.76907e-14,9.99999e-01,9.99999e-01,9.99983e-01,5.76916e-14,9.99999e-01
4.599490440e-01,1.05344e-13,9.99999e-01,9.99999e-01,9.99987e-01,1.05345e-13,9.99999e-01
4.622487892e-01,1.90085e-13,9.99999e-01,9.99999e-01,9.99997e-01,1.90086e-13,9.99999e-01
4.645600332e-01,3.39014e-13,9.99999e-01,9.99999e-01,9.99991e-01,3.39017e-13,9.99999e-01
4.668828333e-01,5.97686e-13,9.99999e-01,9.99999e-01,9.99868e-01,5.97765e-13,9.99999e-01
4.692172475e-01,1.04196e-12,9.99999e-01,9.99999e-01,9.99716e-01,1.04226e-12,9.99999e-01
4.715633337e-01,1.79709e-12,9.99999e-01,9.99999e-01,9.99815e-01,1.79742e-12,9.99999e-01
4.739211504e-01,3.06600e-12,9.99999e-01,9.99999e-01,9.99821e-01,3.06654e-12,9.99999e-01
4.762907561e-01,5.17638e-12,9.99999e-01,9.99999e-01,9.99907e-01,5.17685e-12,9.99999e-01
4.786722099e-01,8.64918e-12,9.99999e-01,9.99999e-01,9.99961e-01,8.64950e-12,9.99999e-01
4.810655710e-01,1.43057e-11,9.99999e-01,9.99999e-01,9.99988e-01,1.43058e-11,9.99999e-01
4.834708988e-01,2.34246e-11,9.99999e-01,9.99999e-01,9.99894e-01,2.34271e-11,9.99999e-01
4.858882533e-01,3.79844e-11,9.99999e-01,9.99999e-01,9.99798e-01,3.79921e-11,9.99999e-01
4.883176946e-01,6.10165e-11,9.99999e-01,9.99999e-01,9.99832e-01,6.10267e-11,9.99999e-01
4.907592831e-01,9.70991e-11,9.99999e-01,9.99999e-01,9.99847e-01,9.71138e-11,9.99999e-01
4.932130795e-01,1.53112e-10,9.99999e-01,9.99999e-01,9.99891e-01,1.53129e-10,9.99999e-01
4.956791449e-01,2.39277e-10,9.99999e-01,9.99999e-01,9.99942e-01,2.39291e-10,9.99999e-01
4.981575406e-01,3.70547e-10,9.99999e-01,9.99999e-01,9.99716e-01,3.70652e-10,9.99999e-01
5.006483283e-01,5.68767e-10,9.99999e-01,9.99999e-01,9.99271e-01,5.69184e-10,9.99994e-01
5.031515699e-01,8.63423e-10,9.99999e-01,9.99999e-01,9.96279e-01,8.66681e-10,9.99960e-01
5.056673278e-01,1.30612e-09,9.99999e-01,9.99999e-01,9.98026e-01,1.30876e-09,9.99954e-01
5.081956644e-01,1.95537e-09,9.99999e-01,9.99999e-01,9.97509e-01,1.96030e-09,9.99970e-01
5.107366428e-01,2.90795e-09,9.99999e-01,9.99999e-01,9.98316e-01,2.91287e-09,9.99994e-01
5.132903260e-01,4.29045e-09,9.99999e-01,9.99999e-01,9.99035e-01,4.29459e-09,9.99998e-01
5.158567776e-01,6.28081e-09,9.99999e-01,9.99999e-01,9.99591e-01,6.28337e-09,9.99999e-01
5.184360615e-01,9.12280e-09,9.99999e-01,9.99999e-01,9.99836e-01,9.12428e-09,9.99999e-01
5.210282418e-01,1.31516e-08,9.99999e-01,9.99999e-01,9.99939e-01,1.31524e-08,9.99999e-01
5.236333830e-01,1.88177e-08,9.99999e-01,9.99999e-01,9.99756e-01,1.88224e-08,9.99997e-01
5.262515499e-01,2.67424e-08,9.99999e-01,9.99999e-01,9.99847e-01,2.67466e-08,9.99997e-01
5.288828077e-01,3.77387e-08,9.99999e-01,9.99999e-01,9.99860e-01,3.77440e-08,9.99997e-01
5.315272217e-01,5.28957e-08,9.99999e-01,9.99999e-01,9.99876e-01,5.29022e-08,9.99999e-01
5.341848578e-01,7.36493e-08,9.99999e-01,9.99999e-01,9.99919e-01,7.36552e-08,9.99999e-01
5.368557821e-01,1.01852e-07,9.99999e-01,9.99999e-01,9.99717e-01,1.01881e-07,9.99998e-01
5.395400610e-01,1.39881e-07,9.99999e-01,9.99999e-01,9.98989e-01,1.40024e-07,9.99991e-01
5.422377613e-01,1.90983e-07,9.99999e-01,9.99999e-01,9.98673e-01,1.91241e-07,9.99975e-01
5.449489501e-01,2.59265e-07,9.99999e-01,9.99999e-01,9.98776e-01,2.59589e-07,9.99974e-01
5.476736949e-01,3.49857e-07,9.99999e-01,9.99999e-01,9.98905e-01,3.50244e-07,9.99987e-01
5.504120634e-01,4.69396e-07,9.99999e-01,9.99999e-01,9.99206e-01,4.69770e-07,9.99996e-01
5.531641237e-01,6.26192e-07,9.99999e-01,9.99999e-01,9.99600e-01,6.26442e-07,9.99999e-01
5.559299443e-01,8.30471e-07,9.99999e-01,9.99999e-01,9.99806e-01,8.30631e-07,9.99999e-01
5.587095940e-01,1.09512e-06,9.99999e-01,9.99999e-01,9.99879e-01,1.09525e-06,9.99999e-01
5.615031420e-01,1.43612e-06,9.99999e-01,9.99999e-01,9.99865e-01,1.43631e-06,9.99999e-01
5.643106577e-01,1.87324e-06,9.99999e-01,9.99999e-01,9.99849e-01,1.87352e-06,9.99998e-01
5.671322110e-01,2.42659e-06,9.99999e-01,9.99999e-01,9.98195e-01,2.43101e-06,9.99984e-01
5.699678720e-01,3.13183e-06,9.99999e-01,9.99999e-01,9.98017e-01,3.13821e-06,9.99949e-01
5.728177114e-01,4.02236e-06,9.99999e-01,9.99999e-01,9.97960e-01,4.03075e-06,9.99957e-01
5.756818000e-01,5.14181e-06,9.99999e-01,9.99999e-01,9.98123e-01,5.15161e-06,9.99973e-01
5.785602090e-01,6.54153e-06,9.99999e-01,9.99999e-01,9.98360e-01,6.55232e-06,9.99991e-01
5.814530100e-01,8.28074e-06,9.99999e-01,9.99999e-01,9.98357e-01,8.29438e-06,9.99996e-01
5.843602750e-01,1.04305e-05,9.99999e-01,9.99999e-01,9.98061e-01,1.04508e-05,9.99988e-01
5.872820764e-01,1.28890e-05,9.99999e-01,9.99999e-01,9.83410e-01,1.31080e-05,9.99880e-01
5.902184868e-01,1.60295e-05,9.99999e-01,9.99999e-01,9.79680e-01,1.63672e-05,9.99676e-01
5.931695792e-01,2.00497e-05,9.99999e-01,9.99999e-01,9.85674e-01,2.03475e-05,9.99685e-01
5.961354271e-01,2.47859e-05,9.99999e-01,9.99999e-01,9.84252e-01,2.51872e-05,9.99809e-01
5.991161043e-01,3.06873e-05,9.99999e-01,9.99999e-01,9.88471e-01,3.10469e-05,9.99944e-01
6.021116848e-01,3.78615e-05,9.99999e-01,9.99999e-01,9.93433e-01,3.81120e-05,9.99992e-01
6.051222432e-01,4.64407e-05,9.99999e-01,9.99999e-01,9.96671e-01,4.65958e-05,9.99999e-01
6.081478544e-01,5.66610e-05,9.99999e-01,9.99999e-01,9.98564e-01,5.67424e-05,9.99999e-01
6.111885937e-01,6.87882e-05,9.99999e-01,9.99999e-01,9.99390e-01,6.88301e-05,9.99999e-01
6.142445367e-01,8.31524e-05,9.99999e-01,9.99999e-01,9.99728e-01,8.31750e-05,9.99999e-01
6.173157594e-01,1.00119e-04,9.99999e-01,9.99999e-01,9.99850e-01,1.00134e-04,9.99999e-01
6.204023382e-01,1.20096e-04,9.99999e-01,9.99999e-01,9.99873e-01,1.20111e-04,9.99999e-01
6.235043498e-01,1.43477e-04,9.99999e-01,9.99999e-01,9.99454e-01,1.43555e-04,9.99998e-01
6.266218716e-01,1.70467e-04,9.99999e-01,9.99999e-01,9.97062e-01,1.70973e-04,9.99978e-01
6.297549810e-01,2.02698e-04,9.99999e-01,9.99999e-01,9.98921e-01,2.02926e-04,9.99958e-01
6.329037559e-01,2.39515e-04,9.99999e-01,9.99999e-01,9.97862e-01,2.40036e-04,9.99966e-01
6.360682746e-01,2.82474e-04,9.99999e-01,9.99999e-01,9.98188e-01,2.82992e-04,9.99979e-01
6.392486160e-01,3.31768e-04,9.99999e-01,9.99999e-01,9.97647e-01,3.32553e-04,9.99990e-01
6.424448591e-01,3.88447e-04,9.99999e-01,9.99999e-01,9.97182e-01,3.89549e-04,9.99985e-01
6.456570834e-01,4.48359e-04,9.99999e-01,9.99999e-01,9.85720e-01,4.54891e-04,9.99918e-01
6.488853688e-01,5.22810e-04,9.99999e-01,9.99999e-01,9.87461e-01,5.29568e-04,9.99772e-01
6.521297956e-01,6.07858e-04,9.99999e-01,9.99999e-01,9.89126e-01,6.14657e-04,9.99809e-01
6.553904446e-01,7.03573e-04,9.99999e-01,9.99999e-01,9.89249e-01,7.11320e-04,9.99857e-01
6.586673968e-01,8.13142e-04,9.99999e-01,9.99999e-01,9.90698e-01,8.20814e-04,9.99952e-01
6.619607338e-01,9.39391e-04,9.99999e-01,9.99999e-01,9.94613e-01,9.44487e-04,9.99989e-01
6.652705375e-01,1.08039e-03,9.99999e-01,9.99999e-01,9.96868e-01,1.08379e-03,9.99994e-01
6.685968902e-01,1.23845e-03,9.99999e-01,9.99999e-01,9.98545e-01,1.24025e-03,9.99998e-01
6.719398746e-01,1.41458e-03,9.99999e-01,9.99999e-01,9.99324e-01,1.41554e-03,9.99999e-01
6.752995740e-01,1.61079e-03,9.99999e-01,9.99999e-01,9.99635e-01,1.61138e-03,9.99999e-01
6.786760719e-01,1.82867e-03,9.99999e-01,9.99999e-01,9.99478e-01,1.82962e-03,9.99998e-01
6.820694522e-01,2.07036e-03,9.99999e-01,9.99999e-01,9.99103e-01,2.07223e-03,9.99994e-01
6.854797995e-01,2.33851e-03,9.99999e-01,9.99999e-01,9.98845e-01,2.34123e-03,9.99989e-01
6.889071985e-01,2.63148e-03,9.99999e-01,9.99999e-01,9.97256e-01,2.63879e-03,9.99974e-01
6.923517345e-01,2.83494e-03,9.99999e-01,9.99999e-01,9.55654e-01,2.96714e-03,9.99780e-01
6.958134932e-01,3.24781e-03,9.99999e-01,9.99999e-01,9.76203e-01,3.32863e-03,9.99505e-01
6.992925606e-01,3.64139e-03,9.99999e-01,9.99999e-01,9.77797e-01,3.72569e-03,9.99564e-01
7.027890234e-01,4.04471e-03,9.99999e-01,9.99999e-01,9.72412e-01,4.16084e-03,9.99665e-01
7.063029686e-01,4.52818e-03,9.99999e-01,9.99999e-01,9.76758e-01,4.63669e-03,9.99833e-01
7.098344834e-01,5.04036e-03,9.99999e-01,9.99999e-01,9.77682e-01,5.15593e-03,9.99901e-01
7.133836558e-01,5.55358e-03,9.99999e-01,9.99999e-01,9.70875e-01,5.72129e-03,9.99804e-01
7.169505741e-01,5.00345e-03,9.99999e-01,9.99999e-01,7.90947e-01,6.33562e-03,9.98463e-01
7.205353270e-01,6.20560e-03,9.99999e-01,9.99999e-01,8.88694e-01,7.00179e-03,9.97290e-01
7.241380036e-01,6.64560e-03,9.99999e-01,9.99999e-01,8.62555e-01,7.72275e-03,9.97642e-01
7.277586936e-01,7.42439e-03,9.99999e-01,9.99999e-01,8.75021e-01,8.50146e-03,9.98041e-01
7.313974871e-01,8.08277e-03,9.99999e-01,9.99999e-01,8.66080e-01,9.34095e-03,9.99103e-01
7.350544745e-01,9.46681e-03,9.99999e-01,9.99999e-01,9.24395e-01,1.02443e-02,9.99688e-01
7.387297469e-01,1.05804e-02,9.99999e-01,9.99999e-01,9.43593e-01,1.12145e-02,9.99856e-01
7.424233956e-01,1.19098e-02,9.99999e-01,9.99999e-01,9.71882e-01,1.22546e-02,9.99971e-01
7.461355126e-01,1.31391e-02,9.99999e-01,9.99999e-01,9.82893e-01,1.33678e-02,9.99994e-01
7.498661902e-01,1.44403e-02,9.99999e-01,9.99999e-01,9.91975e-01,1.45571e-02,9.99997e-01
7.536155211e-01,1.57634e-02,9.99999e-01,9.99999e-01,9.96069e-01,1.58256e-02,9.99998e-01
7.573835987e-01,1.71414e-02,9.99999e-01,9.99999e-01,9.97972e-01,1.71762e-02,9.99999e-01
7.611705167e-01,1.85885e-02,9.99999e-01,9.99999e-01,9.98740e-01,1.86119e-02,9.99999e-01
7.649763693e-01,2.01199e-02,9.99999e-01,9.99999e-01,9.99211e-01,2.01357e-02,9.99999e-01
7.688012511e-01,2.17385e-02,9.99999e-01,9.99999e-01,9.99451e-01,2.17505e-02,9.99999e-01
7.726452574e-01,2.34483e-02,9.99999e-01,9.99999e-01,9.99549e-01,2.34589e-02,9.99999e-01
7.765084837e-01,2.52477e-02,9.99999e-01,9.99999e-01,9.99365e-01,2.52638e-02,9.99998e-01
7.803910261e-01,2.39625e-02,9.99999e-01,8.84188e-01,9.97263e-01,2.71677e-02,9.99996e-01
7.842929812e-01,1.45885e-02,9.99999e-01,5.04072e-01,9.90484e-01,2.91732e-02,9.99981e-01
7.882144461e-01,1.51049e-02,9.99999e-01,4.91267e-01,9.80294e-01,3.12827e-02,9.99878e-01
7.921555184e-01,2.10930e-02,9.99999e-01,6.36096e-01,9.89090e-01,3.34985e-02,9.99764e-01
7.961162960e-01,2.57581e-02,9.99999e-01,7.32490e-01,9.81039e-01,3.58229e-02,9.99774e-01
8.000968774e-01,3.15979e-02,9.99999e-01,8.44482e-01,9.77962e-01,3.82577e-02,9.99759e-01
8.040973618e-01,3.65355e-02,9.99999e-01,9.15491e-01,9.77999e-01,4.08050e-02,9.99809e-01
8.081178486e-01,3.97315e-02,9.99999e-01,9.60392e-01,9.51614e-01,4.34666e-02,9.99821e-01
8.121584379e-01,3.71945e-02,9.99999e-01,9.87479e-01,8.14595e-01,4.62440e-02,9.99298e-01
8.162192301e-01,3.82462e-02,9.99999e-01,9.97219e-01,7.82378e-01,4.91387e-02,9.97364e-01
8.203003262e-01,4.62525e-02,9.99999e-01,9.99952e-01,8.89647e-01,5.21521e-02,9.96914e-01
8.244018279e-01,4.67532e-02,9.99999e-01,9.99999e-01,8.47754e-01,5.52852e-02,9.97543e-01
8.285238370e-01,5.04623e-02,9.99999e-01,9.99999e-01,8.63694e-01,5.85390e-02,9.98070e-01
8.326664562e-01,5.33315e-02,9.99999e-01,9.99999e-01,8.62063e-01,6.19143e-02,9.99201e-01
8.368297885e-01,5.87586e-02,9.99999e-01,9.99999e-01,8.98450e-01,6.54118e-02,9.99817e-01
8.410139374e-01,6.47591e-02,9.99999e-01,9.99999e-01,9.38203e-01,6.90319e-02,9.99892e-01
8.452190071e-01,7.05235e-02,9.99999e-01,9.99999e-01,9.69125e-01,7.27749e-02,9.99935e-01
8.494451021e-01,7.52598e-02,9.99999e-01,9.99999e-01,9.82029e-01,7.66409e-02,9.99948e-01
8.536923276e-01,7.97638e-02,9.99999e-01,9.99999e-01,9.89294e-01,8.06297e-02,9.99965e-01
8.579607893e-01,8.41826e-02,9.99999e-01,9.99999e-01,9.93417e-01,8.47412e-02,9.99990e-01
8.622505932e-01,8.86013e-02,9.99999e-01,9.99999e-01,9.95802e-01,8.89748e-02,9.99998e-01
8.665618462e-01,7.89637e-02,9.99999e-01,8.48101e-01,9.97412e-01,9.33301e-02,9.99998e-01
8.708946554e-01,1.89235e-02,9.99999e-01,1.93985e-01,9.97045e-01,9.78062e-02,9.99997e-01
8.752491287e-01,2.49072e-02,9.99999e-01,2.44104e-01,9.96044e-01,1.02402e-01,9.99995e-01
8.796253743e-01,4.77860e-02,9.99999e-01,4.48282e-01,9.94545e-01,1.07117e-01,9.99987e-01
8.840235012e-01,7.24600e-02,9.99999e-01,6.51064e-01,9.93765e-01,1.11949e-01,9.99961e-01
8.884436187e-01,9.63321e-02,9.99999e-01,8.41839e-01,9.78030e-01,1.16897e-01,9.99891e-01
8.928858368e-01,9.02423e-02,9.99999e-01,9.32522e-01,7.91692e-01,1.21960e-01,9.99373e-01
8.973502660e-01,8.24216e-02,9.99999e-01,9.83038e-01,6.60568e-01,1.27136e-01,9.96794e-01
9.018370173e-01,1.06270e-01,9.99999e-01,9.98111e-01,8.07890e-01,1.32422e-01,9.94964e-01
9.063462024e-01,1.09645e-01,9.99999e-01,9.55910e-01,8.30592e-01,1.37817e-01,9.95575e-01
9.108779334e-01,9.61547e-02,9.99999e-01,8.96152e-01,7.47753e-01,1.43319e-01,9.95402e-01
9.154323231e-01,1.03876e-01,9.99999e-01,9.74287e-01,7.16863e-01,1.48926e-01,9.96198e-01
9.200094847e-01,9.31710e-02,9.99999e-01,7.48821e-01,7.71053e-01,1.54634e-01,9.97870e-01
9.246095321e-01,6.62748e-02,9.99999e-01,5.88651e-01,6.83657e-01,1.60442e-01,9.97546e-01
9.292325798e-01,1.25247e-02,9.99999e-01,6.71076e-01,1.02270e-01,1.66347e-01,9.90467e-01
9.338787427e-01,5.75412e-03,9.99999e-01,6.72391e-01,4.68967e-02,1.72347e-01,9.61178e-01
9.385481364e-01,3.83445e-02,9.99999e-01,7.43896e-01,2.87492e-01,1.78437e-01,9.53999e-01
9.432408771e-01,2.98050e-02,9.99999e-01,8.32127e-01,1.96170e-01,1.84617e-01,9.60187e-01
9.479570815e-01,1.70065e-02,9.99999e-01,9.10167e-01,9.96552e-02,1.90881e-01,9.67475e-01
9.526968669e-01,3.07235e-02,9.99999e-01,9.55614e-01,1.64558e-01,1.97229e-01,9.80034e-01
9.574603512e-01,3.51966e-02,9.99999e-01,9.80723e-01,1.77228e-01,2.03656e-01,9.89807e-01
9.622476530e-01,4.88354e-02,9.99999e-01,9.93937e-01,2.35124e-01,2.10159e-01,9.92941e-01
9.670588912e-01,9.24229e-02,9.99999e-01,9.98175e-01,4.29123e-01,2.16735e-01,9.95166e-01
9.718941857e-01,1.28241e-01,9.99999e-01,9.99867e-01,5.76198e-01,2.23381e-01,9.96439e-01
9.767536566e-01,1.45046e-01,9.99999e-01,9.99999e-01,6.32098e-01,2.30093e-01,9.97278e-01
9.816374249e-01,1.67795e-01,9.99999e-01,9.99999e-01,7.09058e-01,2.36869e-01,9.99057e-01
9.865456120e-01,1.96313e-01,9.99999e-01,9.99999e-01,8.05695e-01,2.43704e-01,9.99803e-01
9.914783401e-01,2.19163e-01,9.99999e-01,9.99999e-01,8.74613e-01,2.50596e-01,9.99945e-01
9.964357318e-01,2.39398e-01,9.99999e-01,9.99999e-01,9.29586e-01,2.57540e-01,9.99967e-01
1.001417910e+00,2.53182e-01,9.99999e-01,9.99999e-01,9.57128e-01,2.64535e-01,9.99950e-01
1.006425000e+00,2.64869e-01,9.99999e-01,9.99999e-01,9.75375e-01,2.71575e-01,9.99930e-01
1.011457125e+00,2.74350e-01,9.99999e-01,9.99999e-01,9.84600e-01,2.78658e-01,9.99935e-01
1.016514411e+00,2.82778e-01,9.99999e-01,9.99999e-01,9.89537e-01,2.85781e-01,9.99954e-01
1.021596983e+00,2.90420e-01,9.99999e-01,9.99778e-01,9.91660e-01,2.92940e-01,9.99953e-01
1.026704968e+00,2.92873e-01,9.99999e-01,9.82198e-01,9.93494e-01,3.00131e-01,9.99969e-01
1.031838492e+00,2.68782e-01,9.99999e-01,8.78415e-01,9.95257e-01,3.07351e-01,9.99991e-01
1.036997685e+00,9.18233e-03,9.99999e-01,2.92491e-02,9.97187e-01,3.14598e-01,9.99998e-01
1.042182673e+00,1.20028e-04,9.99999e-01,3.73812e-04,9.96659e-01,3.21867e-01,9.99998e-01
1.047393587e+00,3.60120e-04,9.99999e-01,1.09800e-03,9.95564e-01,3.29155e-01,9.99998e-01
1.052630555e+00,6.84449e-10,9.99999e-01,2.04190e-09,9.93926e-01,3.36460e-01,9.99998e-01
1.057893707e+00,2.50220e-09,9.99999e-01,7.31317e-09,9.89899e-01,3.43777e-01,9.99996e-01
1.063183176e+00,4.69376e-07,9.99999e-01,1.34874e-06,9.83415e-01,3.51105e-01,9.99990e-01
1.068499092e+00,9.92005e-06,9.99999e-01,2.81059e-05,9.72355e-01,3.58439e-01,9.99980e-01
1.073841587e+00,3.63550e-04,9.99999e-01,1.01516e-03,9.67844e-01,3.65778e-01,9.99958e-01
1.079210795e+00,4.99070e-03,9.99999e-01,1.37887e-02,9.58784e-01,3.73117e-01,9.99887e-01
1.084606849e+00,3.00617e-02,9.99999e-01,8.32955e-02,9.38481e-01,3.80454e-01,9.99729e-01
1.090029883e+00,9.66813e-02,9.99999e-01,2.70160e-01,9.13640e-01,3.87786e-01,9.99440e-01
1.095480033e+00,1.62975e-01,9.99999e-01,5.21738e-01,7.81759e-01,3.95110e-01,9.98988e-01
1.100957433e+00,1.60771e-01,9.99999e-01,7.28621e-01,5.41140e-01,4.02424e-01,9.98139e-01
1.106462220e+00,8.36177e-02,9.99999e-01,8.76770e-01,2.29439e-01,4.09725e-01,9.96846e-01
1.111994531e+00,1.96576e-02,9.99999e-01,9.52310e-01,4.93466e-02,4.17010e-01,9.91649e-01
1.117554504e+00,3.98528e-03,9.99999e-01,9.88079e-01,9.73807e-03,4.24277e-01,9.70180e-01
1.123142276e+00,1.75178e-02,9.99999e-01,9.99207e-01,4.36191e-02,4.31524e-01,9.30726e-01
1.128757988e+00,4.27662e-02,9.99999e-01,9.99999e-01,1.05914e-01,4.38747e-01,9.20305e-01
1.134401778e+00,1.94810e-02,9.99999e-01,9.99999e-01,4.69596e-02,4.45945e-01,9.30262e-01
1.140073787e+00,1.03271e-01,9.99999e-01,9.99999e-01,2.41505e-01,4.53115e-01,9.43720e-01
1.145774156e+00,2.98078e-02,9.99999e-01,9.99999e-01,6.81961e-02,4.60256e-01,9.49664e-01
1.151503026e+00,2.30179e-02,9.99999e-01,9.99999e-01,5.06879e-02,4.67365e-01,9.71638e-01
1.157260541e+00,3.03949e-02,9.99999e-01,9.99999e-01,6.46183e-02,4.74440e-01,9.91434e-01
1.163046844e+00,6.17046e-02,9.99999e-01,9.99999e-01,1.28469e-01,4.81479e-01,9.97564e-01
1.168862078e+00,1.10239e-01,9.99999e-01,9.99999e-01,2.25961e-01,4.88481e-01,9.98744e-01
1.174706389e+00,1.96506e-01,9.99999e-01,9.99999e-01,3.97288e-01,4.95443e-01,9.98336e-01
1.180579921e+00,2.83939e-01,9.99999e-01,9.99999e-01,5.66631e-01,5.02363e-01,9.97485e-01
1.186482820e+00,3.67184e-01,9.99999e-01,9.99977e-01,7.22918e-01,5.09241e-01,9.97418e-01
1.192415234e+00,4.02403e-01,9.99999e-01,9.41808e-01,8.26904e-01,5.16075e-01,9.98066e-01
1.198377311e+00,2.22724e-01,9.99999e-01,4.87308e-01,8.52361e-01,5.22862e-01,9.98173e-01
1.204369197e+00,8.88318e-47,9.99999e-01,1.83399e-46,8.60248e-01,5.29602e-01,9.98347e-01
1.210391043e+00,1.89758e-193,9.99999e-01,3.83905e-193,8.65482e-01,5.36293e-01,9.98994e-01
1.216442998e+00,3.25025e-167,9.99999e-01,6.46534e-167,8.84098e-01,5.42934e-01,9.99383e-01
1.222525213e+00,1.12314e-164,9.99999e-01,2.14829e-164,9.08383e-01,5.49524e-01,9.99616e-01
1.228637839e+00,9.42060e-127,9.99999e-01,1.77206e-126,9.35462e-01,5.56061e-01,9.99821e-01
