#,Wave/freq,Total,N2,CO2,H2O,Rayleigh,CIA
4.000000000e-01,2.30370e-15,9.99999e-01,9.99999e-01,9.99934e-01,2.30385e-15,9.99999e-01
4.020000000e-01,4.48601e-15,9.99999e-01,9.99999e-01,9.99959e-01,4.48619e-15,9.99999e-01
4.040100000e-01,8.61552e-15,9.99999e-01,9.99999e-01,9.99982e-01,8.61566e-15,9.99999e-01
4.060300500e-01,1.63343e-14,9.99999e-01,9.99999e-01,9.99995e-01,1.63343e-14,9.99999e-01
4.080602003e-01,3.05792e-14,9.99999e-01,9.99999e-01,9.99998e-01,3.05793e-14,9.99999e-01
4.101005013e-01,5.65423e-14,9.99999e-01,9.99999e-01,9.99999e-01,5.65423e-14,9.99999e-01
4.121510038e-01,1.03287e-13,9.99999e-01,9.99999e-01,9.99997e-01,1.03287e-13,9.99999e-01
4.142117588e-01,1.86442e-13,9.99999e-01,9.99999e-01,9.99981e-01,1.86445e-13,9.99999e-01
4.162828176e-01,3.32625e-13,9.99999e-01,9.99999e-01,9.99919e-01,3.32652e-13,9.99999e-01
4.183642317e-01,5.86733e-13,9.99999e-01,9.99999e-01,9.99951e-01,5.86761e-13,9.99999e-01
4.204560528e-01,1.02341e-12,9.99999e-01,9.99999e-01,9.99970e-01,1.02344e-12,9.99999e-01
4.225583331e-01,1.76559e-12,9.99999e-01,9.99999e-01,9.99988e-01,1.76561e-12,9.99999e-01
4.246711247e-01,3.01331e-12,9.99999e-01,9.99999e-01,9.99990e-01,3.01334e-12,9.99999e-01
4.267944804e-01,5.08874e-12,9.99999e-01,9.99999e-01,9.99986e-01,5.08880e-12,9.99999e-01
4.289284528e-01,8.50518e-12,9.99999e-01,9.99999e-01,9.99989e-01,8.50527e-12,9.99999e-01
4.310730950e-01,1.40719e-11,9.99999e-01,9.99999e-01,9.99995e-01,1.40719e-11,9.99999e-01
4.332284605e-01,2.30516e-11,9.99999e-01,9.99999e-01,9.99998e-01,2.30516e-11,9.99999e-01
4.353946028e-01,3.73950e-11,9.99999e-01,9.99999e-01,9.99999e-01,3.73950e-11,9.99999e-01
4.375715758e-01,6.00860e-11,9.99999e-01,9.99999e-01,9.99991e-01,6.00865e-11,9.99999e-01
4.397594337e-01,9.56402e-11,9.99999e-01,9.99999e-01,9.99928e-01,9.56470e-11,9.99999e-01
4.419582309e-01,1.50807e-10,9.99999e-01,9.99999e-01,9.99640e-01,1.50861e-10,9.99999e-01
4.441680220e-01,2.35751e-10,9.99999e-01,9.99999e-01,9.99720e-01,2.35817e-10,9.99999e-01
4.463888621e-01,3.65270e-10,9.99999e-01,9.99999e-01,9.99708e-01,3.65377e-10,9.99999e-01
4.486208064e-01,5.61140e-10,9.99999e-01,9.99999e-01,9.99818e-01,5.61242e-10,9.99999e-01
4.508639105e-01,8.54753e-10,9.99999e-01,9.99999e-01,9.99914e-01,8.54825e-10,9.99999e-01
4.531182300e-01,1.29116e-09,9.99999e-01,9.99999e-01,9.99966e-01,1.29120e-09,9.99999e-01
4.553838212e-01,1.93448e-09,9.99999e-01,9.99999e-01,9.99976e-01,1.93453e-09,9.99999e-01
4.576607403e-01,2.87529e-09,9.99999e-01,9.99999e-01,9.99989e-01,2.87532e-09,9.99999e-01
4.599490440e-01,4.24029e-09,9.99999e-01,9.99999e-01,9.99992e-01,4.24032e-09,9.99999e-01
4.622487892e-01,6.20551e-09,9.99999e-01,9.99999e-01,9.99998e-01,6.20552e-09,9.99999e-01
4.645600332e-01,9.01341e-09,9.99999e-01,9.99999e-01,9.99994e-01,9.01346e-09,9.99999e-01
4.668828333e-01,1.29947e-08,9.99999e-01,9.99999e-01,9.99914e-01,1.29958e-08,9.99999e-01
4.692172475e-01,1.85992e-08,9.99999e-01,9.99999e-01,9.99817e-01,1.86026e-08,9.99999e-01
4.715633337e-01,2.64373e-08,9.99999e-01,9.99999e-01,9.99880e-01,2.64405e-08,9.99999e-01
4.739211504e-01,3.73163e-08,9.99999e-01,9.99999e-01,9.99885e-01,3.73206e-08,9.99999e-01
4.762907561e-01,5.23172e-08,9.99999e-01,9.99999e-01,9.99940e-01,5.23203e-08,9.99999e-01
4.786722099e-01,7.28592e-08,9.99999e-01,9.99999e-01,9.99975e-01,7.28609e-08,9.99999e-01
4.810655710e-01,1.00803e-07,9.99999e-01,9.99999e-01,9.99992e-01,1.00804e-07,9.99999e-01
4.834708988e-01,1.38563e-07,9.99999e-01,9.99999e-01,9.99929e-01,1.38572e-07,9.99999e-01
4.858882533e-01,1.89273e-07,9.99999e-01,9.99999e-01,9.99870e-01,1.89298e-07,9.99999e-01
4.883176946e-01,2.56976e-07,9.99999e-01,9.99999e-01,9.99891e-01,2.57003e-07,9.99999e-01
4.907592831e-01,3.46790e-07,9.99999e-01,9.99999e-01,9.99901e-01,3.46824e-07,9.99999e-01
4.932130795e-01,4.65241e-07,9.99999e-01,9.99999e-01,9.99930e-01,4.65273e-07,9.99999e-01
4.956791449e-01,6.20541e-07,9.99999e-01,9.99999e-01,9.99962e-01,6.20563e-07,9.99999e-01
4.981575406e-01,8.22838e-07,9.99999e-01,9.99999e-01,9.99815e-01,8.22989e-07,9.99999e-01
5.006483283e-01,1.08486e-06,9.99999e-01,9.99999e-01,9.99523e-01,1.08538e-06,9.99996e-01
5.031515699e-01,1.42015e-06,9.99999e-01,9.99999e-01,9.97590e-01,1.42361e-06,9.99974e-01
5.056673278e-01,1.85486e-06,9.99999e-01,9.99999e-01,9.98728e-01,1.85728e-06,9.99970e-01
5.081956644e-01,2.40644e-06,9.99999e-01,9.99999e-01,9.98396e-01,2.41035e-06,9.99980e-01
5.107366428e-01,3.10869e-06,9.99999e-01,9.99999e-01,9.98916e-01,3.11207e-06,9.99996e-01
5.132903260e-01,3.99536e-06,9.99999e-01,9.99999e-01,9.99380e-01,3.99783e-06,9.99999e-01
5.158567776e-01,5.10903e-06,9.99999e-01,9.99999e-01,9.99738e-01,5.11037e-06,9.99999e-01
5.184360615e-01,6.50022e-06,9.99999e-01,9.99999e-01,9.99894e-01,6.50090e-06,9.99999e-01
5.210282418e-01,8.23025e-06,9.99999e-01,9.99999e-01,9.99960e-01,8.23057e-06,9.99999e-01
5.236333830e-01,1.03704e-05,9.99999e-01,9.99999e-01,9.99842e-01,1.03720e-05,9.99998e-01
5.262515499e-01,1.30097e-05,9.99999e-01,9.99999e-01,9.99901e-01,1.30110e-05,9.99997e-01
5.288828077e-01,1.62471e-05,9.99999e-01,9.99999e-01,9.99909e-01,1.62486e-05,9.99998e-01
5.315272217e-01,2.02013e-05,9.99999e-01,9.99999e-01,9.99920e-01,2.02029e-05,9.99999e-01
5.341848578e-01,2.50105e-05,9.99999e-01,9.99999e-01,9.99947e-01,2.50118e-05,9.99999e-01
5.368557821e-01,3.08292e-05,9.99999e-01,9.99999e-01,9.99816e-01,3.08349e-05,9.99999e-01
5.395400610e-01,3.78316e-05,9.99999e-01,9.99999e-01,9.99338e-01,3.78569e-05,9.99994e-01
5.422377613e-01,4.62498e-05,9.99999e-01,9.99999e-01,9.99146e-01,4.62900e-05,9.99984e-01
5.449489501e-01,5.63317e-05,9.99999e-01,9.99999e-01,9.99205e-01,5.63774e-05,9.99983e-01
5.476736949e-01,6.83475e-05,9.99999e-01,9.99999e-01,9.99297e-01,6.83960e-05,9.99991e-01
5.504120634e-01,8.26185e-05,9.99999e-01,9.99999e-01,9.99489e-01,8.26607e-05,9.99997e-01
5.531641237e-01,9.95019e-05,9.99999e-01,9.99999e-01,9.99743e-01,9.95274e-05,9.99999e-01
5.559299443e-01,1.19382e-04,9.99999e-01,9.99999e-01,9.99875e-01,1.19397e-04,9.99999e-01
5.587095940e-01,1.42708e-04,9.99999e-01,9.99999e-01,9.99921e-01,1.42719e-04,9.99999e-01
5.615031420e-01,1.69982e-04,9.99999e-01,9.99999e-01,9.99913e-01,1.69997e-04,9.99999e-01
5.643106577e-01,2.01770e-04,9.99999e-01,9.99999e-01,9.99901e-01,2.01790e-04,9.99998e-01
5.671322110e-01,2.38431e-04,9.99999e-01,9.99999e-01,9.98804e-01,2.38719e-04,9.99988e-01
5.699678720e-01,2.81105e-04,9.99999e-01,9.99999e-01,9.98734e-01,2.81470e-04,9.99967e-01
5.728177114e-01,3.30354e-04,9.99999e-01,9.99999e-01,9.98679e-01,3.30799e-04,9.99972e-01
5.756818000e-01,3.87060e-04,9.99999e-01,9.99999e-01,9.98788e-01,3.87536e-04,9.99982e-01
5.785602090e-01,4.52106e-04,9.99999e-01,9.99999e-01,9.98944e-01,4.52586e-04,9.99994e-01
5.814530100e-01,5.26378e-04,9.99999e-01,9.99999e-01,9.98939e-01,5.26938e-04,9.99997e-01
5.843602750e-01,6.10885e-04,9.99999e-01,9.99999e-01,9.98734e-01,6.11664e-04,9.99992e-01
5.872820764e-01,7.00191e-04,9.99999e-01,9.99999e-01,9.89150e-01,7.07925e-04,9.99922e-01
5.902184868e-01,8.06079e-04,9.99999e-01,9.99999e-01,9.86871e-01,8.16973e-04,9.99791e-01
5.931695792e-01,9.31236e-04,9.99999e-01,9.99999e-01,9.90711e-01,9.40154e-04,9.99798e-01
5.961354271e-01,1.06781e-03,9.99999e-01,9.99999e-01,9.89820e-01,1.07891e-03,9.99884e-01
5.991161043e-01,1.22556e-03,9.99999e-01,9.99999e-01,9.92566e-01,1.23479e-03,9.99963e-01
6.021116848e-01,1.40346e-03,9.99999e-01,9.99999e-01,9.95776e-01,1.40942e-03,9.99995e-01
6.051222432e-01,1.60112e-03,9.99999e-01,9.99999e-01,9.97861e-01,1.60455e-03,9.99999e-01
6.081478544e-01,1.82035e-03,9.99999e-01,9.99999e-01,9.99076e-01,1.82203e-03,9.99999e-01
6.111885937e-01,2.06299e-03,9.99999e-01,9.99999e-01,9.99609e-01,2.06379e-03,9.99999e-01
6.142445367e-01,2.33148e-03,9.99999e-01,9.99999e-01,9.99825e-01,2.33189e-03,9.99999e-01
6.173157594e-01,2.62821e-03,9.99999e-01,9.99999e-01,9.99903e-01,2.62846e-03,9.99999e-01
6.204023382e-01,2.95552e-03,9.99999e-01,9.99999e-01,9.99918e-01,2.95576e-03,9.99999e-01
6.235043498e-01,3.31492e-03,9.99999e-01,9.99999e-01,9.99640e-01,3.31612e-03,9.99998e-01
6.266218716e-01,3.70487e-03,9.99999e-01,9.99999e-01,9.98101e-01,3.71196e-03,9.99986e-01
6.297549810e-01,4.14282e-03,9.99999e-01,9.99999e-01,9.99303e-01,4.14581e-03,9.99972e-01
6.329037559e-01,4.61382e-03,9.99999e-01,9.99999e-01,9.98623e-01,4.62028e-03,9.99978e-01
6.360682746e-01,5.13194e-03,9.99999e-01,9.99999e-01,9.98827e-01,5.13803e-03,9.99986e-01
6.392486160e-01,5.69313e-03,9.99999e-01,9.99999e-01,9.98480e-01,5.70182e-03,9.99993e-01
6.424448591e-01,6.30158e-03,9.99999e-01,9.99999e-01,9.97964e-01,6.31449e-03,9.99990e-01
6.456570834e-01,6.91284e-03,9.99999e-01,9.99999e-01,9.90585e-01,6.97890e-03,9.99947e-01
6.488853688e-01,7.64386e-03,9.99999e-01,9.99999e-01,9.93113e-01,7.69799e-03,9.99853e-01
6.521297956e-01,8.41426e-03,9.99999e-01,9.99999e-01,9.92982e-01,8.47475e-03,9.99878e-01
6.553904446e-01,9.24620e-03,9.99999e-01,9.99999e-01,9.93003e-01,9.31218e-03,9.99909e-01
6.586673968e-01,1.01519e-02,9.99999e-01,9.99999e-01,9.94011e-01,1.02133e-02,9.99969e-01
6.619607338e-01,1.11438e-02,9.99999e-01,9.99999e-01,9.96658e-01,1.11813e-02,9.99993e-01
6.652705375e-01,1.21945e-02,9.99999e-01,9.99999e-01,9.97993e-01,1.22191e-02,9.99996e-01
6.685968902e-01,1.33174e-02,9.99999e-01,9.99999e-01,9.99067e-01,1.33298e-02,9.99998e-01
6.719398746e-01,1.45103e-02,9.99999e-01,9.99999e-01,9.99567e-01,1.45166e-02,9.99999e-01
6.752995740e-01,1.57786e-02,9.99999e-01,9.99999e-01,9.99765e-01,1.57823e-02,9.99999e-01
6.786760719e-01,1.71244e-02,9.99999e-01,9.99999e-01,9.99661e-01,1.71302e-02,9.99999e-01
6.820694522e-01,1.85523e-02,9.99999e-01,9.99999e-01,9.99420e-01,1.85631e-02,9.99996e-01
6.854797995e-01,2.00688e-02,9.99999e-01,9.99999e-01,9.99252e-01,2.00839e-02,9.99993e-01
6.889071985e-01,2.16559e-02,9.99999e-01,9.99999e-01,9.98187e-01,2.16956e-02,9.99983e-01
6.923517345e-01,2.27158e-02,9.99999e-01,9.99999e-01,9.70860e-01,2.34009e-02,9.99858e-01
6.958134932e-01,2.48117e-02,9.99999e-01,9.99999e-01,9.84803e-01,2.52025e-02,9.99686e-01
6.992925606e-01,2.67023e-02,9.99999e-01,9.99999e-01,9.85488e-01,2.71031e-02,9.99717e-01
7.027890234e-01,2.85790e-02,9.99999e-01,9.99999e-01,9.82131e-01,2.91052e-02,9.99784e-01
7.063029686e-01,3.07382e-02,9.99999e-01,9.99999e-01,9.84948e-01,3.12112e-02,9.99892e-01
7.098344834e-01,3.29385e-02,9.99999e-01,9.99999e-01,9.85551e-01,3.34235e-02,9.99936e-01
7.133836558e-01,3.50529e-02,9.99999e-01,9.99999e-01,9.80781e-01,3.57442e-02,9.99873e-01
7.169505741e-01,3.26828e-02,9.99999e-01,9.99999e-01,8.56972e-01,3.81754e-02,9.99007e-01
7.205353270e-01,3.76886e-02,9.99999e-01,9.99999e-01,9.27199e-01,4.07190e-02,9.98250e-01
7.241380036e-01,3.93304e-02,9.99999e-01,9.99999e-01,9.08087e-01,4.33767e-02,9.98488e-01
7.277586936e-01,4.22542e-02,9.99999e-01,9.99999e-01,9.16711e-01,4.61503e-02,9.98764e-01
7.313974871e-01,4.46754e-02,9.99999e-01,9.99999e-01,9.11506e-01,4.90411e-02,9.99420e-01
7.350544745e-01,4.94674e-02,9.99999e-01,9.99999e-01,9.50564e-01,5.20505e-02,9.99798e-01
7.387297469e-01,5.31516e-02,9.99999e-01,9.99999e-01,9.63335e-01,5.51796e-02,9.99907e-01
7.424233956e-01,5.73701e-02,9.99999e-01,9.99999e-01,9.81887e-01,5.84294e-02,9.99981e-01
7.461355126e-01,6.11196e-02,9.99999e-01,9.99999e-01,9.88981e-01,6.18007e-02,9.99996e-01
7.498661902e-01,6.49584e-02,9.99999e-01,9.99999e-01,9.94857e-01,6.52942e-02,9.99998e-01
7.536155211e-01,6.87361e-02,9.99999e-01,9.99999e-01,9.97473e-01,6.89102e-02,9.99998e-01
7.573835987e-01,7.25546e-02,9.99999e-01,9.99999e-01,9.98698e-01,7.26491e-02,9.99999e-01
7.611705167e-01,7.64492e-02,9.99999e-01,9.99999e-01,9.99191e-01,7.65110e-02,9.99999e-01
7.649763693e-01,8.04550e-02,9.99999e-01,9.99999e-01,9.99492e-01,8.04958e-02,9.99999e-01
7.688012511e-01,8.45734e-02,9.99999e-01,9.99999e-01,9.99646e-01,8.46032e-02,9.99999e-01
7.726452574e-01,8.88070e-02,9.99999e-01,9.99999e-01,9.99709e-01,8.88329e-02,9.99999e-01
7.765084837e-01,9.31456e-02,9.99999e-01,9.99999e-01,9.99586e-01,9.31841e-02,9.99999e-01
7.803910261e-01,8.88484e-02,9.99999e-01,9.11304e-01,9.98214e-01,9.76562e-02,9.99997e-01
7.842929812e-01,6.44830e-02,9.99999e-01,6.34119e-01,9.93778e-01,1.02248e-01,9.99988e-01
7.882144461e-01,6.53447e-02,9.99999e-01,6.18070e-01,9.87235e-01,1.06959e-01,9.99911e-01
7.921555184e-01,8.25574e-02,9.99999e-01,7.43499e-01,9.92989e-01,1.11787e-01,9.99846e-01
7.961162960e-01,9.43591e-02,9.99999e-01,8.18309e-01,9.87620e-01,1.16732e-01,9.99854e-01
8.000968774e-01,1.07661e-01,9.99999e-01,8.96820e-01,9.85714e-01,1.21791e-01,9.99844e-01
8.040973618e-01,1.18273e-01,9.99999e-01,9.45089e-01,9.85711e-01,1.26963e-01,9.99876e-01
8.081178486e-01,1.24748e-01,9.99999e-01,9.74362e-01,9.68100e-01,1.32245e-01,9.99884e-01
8.121584379e-01,1.19345e-01,9.99999e-01,9.92025e-01,8.74252e-01,1.37637e-01,9.99546e-01
8.162192301e-01,1.21684e-01,9.99999e-01,9.98233e-01,8.53003e-01,1.43136e-01,9.98297e-01
8.203003262e-01,1.37282e-01,9.99999e-01,9.99973e-01,9.24834e-01,1.48739e-01,9.98006e-01
8.244018279e-01,1.38417e-01,9.99999e-01,9.99999e-01,8.97649e-01,1.54444e-01,9.98413e-01
8.285238370e-01,1.45491e-01,9.99999e-01,9.99999e-01,9.09041e-01,1.60249e-01,9.98753e-01
8.326664562e-01,1.50834e-01,9.99999e-01,9.99999e-01,9.08281e-01,1.66150e-01,9.99484e-01
8.368297885e-01,1.60652e-01,9.99999e-01,9.99999e-01,9.33337e-01,1.72147e-01,9.99881e-01
8.410139374e-01,1.71059e-01,9.99999e-01,9.99999e-01,9.59806e-01,1.78234e-01,9.99930e-01
8.452190071e-01,1.80729e-01,9.99999e-01,9.99999e-01,9.80077e-01,1.84411e-01,9.99958e-01
8.494451021e-01,1.88452e-01,9.99999e-01,9.99999e-01,9.88384e-01,1.90673e-01,9.99966e-01
8.536923276e-01,1.95658e-01,9.99999e-01,9.99999e-01,9.93119e-01,1.97018e-01,9.99979e-01
8.579607893e-01,2.02577e-01,9.99999e-01,9.99999e-01,9.95755e-01,2.03442e-01,9.99994e-01
8.622505932e-01,2.09376e-01,9.99999e-01,9.99999e-01,9.97302e-01,2.09942e-01,9.99998e-01
8.665618462e-01,1.87373e-01,9.99999e-01,8.66752e-01,9.98330e-01,2.16516e-01,9.99999e-01
8.708946554e-01,7.27231e-02,9.99999e-01,3.26450e-01,9.98087e-01,2.23160e-01,9.99998e-01
8.752491287e-01,9.01441e-02,9.99999e-01,3.93087e-01,9.97442e-01,2.29870e-01,9.99996e-01
8.796253743e-01,1.39413e-01,9.99999e-01,5.91056e-01,9.96458e-01,2.36644e-01,9.99991e-01
8.840235012e-01,1.83684e-01,9.99999e-01,7.57362e-01,9.95955e-01,2.43477e-01,9.99974e-01
8.884436187e-01,2.21029e-01,9.99999e-01,8.95627e-01,9.85333e-01,2.50367e-01,9.99929e-01
8.928858368e-01,2.11067e-01,9.99999e-01,9.56198e-01,8.57161e-01,2.57310e-01,9.99595e-01
8.973502660e-01,1.99075e-01,9.99999e-01,9.89191e-01,7.62508e-01,2.64303e-01,9.97929e-01
9.018370173e-01,2.35295e-01,9.99999e-01,9.98803e-01,8.70930e-01,2.71342e-01,9.96746e-01
9.063462024e-01,2.39001e-01,9.99999e-01,9.70110e-01,8.84839e-01,2.78423e-01,9.97141e-01
9.108779334e-01,2.19847e-01,9.99999e-01,9.31872e-01,8.26554e-01,2.85545e-01,9.97029e-01
9.154323231e-01,2.31411e-01,9.99999e-01,9.83594e-01,8.04916e-01,2.92702e-01,9.97544e-01
9.200094847e-01,2.09498e-01,9.99999e-01,8.10274e-01,8.44182e-01,2.99892e-01,9.98624e-01
9.246095321e-01,1.70701e-01,9.99999e-01,7.09480e-01,7.73219e-01,3.07112e-01,9.98415e-01
9.292325798e-01,5.04777e-02,9.99999e-01,7.67608e-01,1.98714e-01,3.14357e-01,9.93835e-01
9.338787427e-01,3.17002e-02,9.99999e-01,7.72280e-01,1.24131e-01,3.21626e-01,9.74763e-01
9.385481364e-01,1.15560e-01,9.99999e-01,8.25720e-01,4.27297e-01,3.28914e-01,9.70057e-01
9.432408771e-01,9.45364e-02,9.99999e-01,8.88832e-01,3.19903e-01,3.36218e-01,9.74114e-01
9.479570815e-01,6.59572e-02,9.99999e-01,9.41250e-01,2.06823e-01,3.43535e-01,9.78881e-01
9.526968669e-01,9.98420e-02,9.99999e-01,9.71268e-01,2.95194e-01,3.50862e-01,9.87065e-01
9.574603512e-01,1.10067e-01,9.99999e-01,9.87601e-01,3.12525e-01,3.58197e-01,9.93408e-01
9.622476530e-01,1.38547e-01,9.99999e-01,9.96116e-01,3.82002e-01,3.65535e-01,9.95437e-01
9.670588912e-01,2.12069e-01,9.99999e-01,9.98835e-01,5.71091e-01,3.72874e-01,9.96877e-01
9.718941857e-01,2.64842e-01,9.99999e-01,9.99917e-01,6.98217e-01,3.80211e-01,9.97700e-01
9.767536566e-01,2.86968e-01,9.99999e-01,9.99999e-01,7.41782e-01,3.87543e-01,9.98241e-01
9.816374249e-01,3.15957e-01,9.99999e-01,9.99999e-01,8.00645e-01,3.94868e-01,9.99390e-01
9.865456120e-01,3.49838e-01,9.99999e-01,9.99999e-01,8.69959e-01,4.02182e-01,9.99872e-01
9.914783401e-01,3.75615e-01,9.99999e-01,9.99999e-01,9.17321e-01,4.09484e-01,9.99964e-01
9.964357318e-01,3.97626e-01,9.99999e-01,9.99999e-01,9.54087e-01,4.16769e-01,9.99978e-01
1.001417910e+00,4.12242e-01,9.99999e-01,9.99999e-01,9.72213e-01,4.24037e-01,9.99968e-01
1.006425000e+00,4.24389e-01,9.99999e-01,9.99999e-01,9.84056e-01,4.31284e-01,9.99954e-01
1.011457125e+00,4.34141e-01,9.99999e-01,9.99999e-01,9.90080e-01,4.38508e-01,9.99958e-01
1.016514411e+00,4.42688e-01,9.99999e-01,9.99999e-01,9.93253e-01,4.45707e-01,9.99970e-01
1.021596983e+00,4.50355e-01,9.99999e-01,9.99833e-01,9.94620e-01,4.52879e-01,9.99970e-01
1.026704968e+00,4.52625e-01,9.99999e-01,9.88075e-01,9.95801e-01,4.60020e-01,9.99979e-01
1.031838492e+00,4.20639e-01,9.99999e-01,9.03082e-01,9.96948e-01,4.67130e-01,9.99994e-01
1.036997685e+00,2.35086e-02,9.99999e-01,4.96426e-02,9.98185e-01,4.74206e-01,9.99998e-01
1.042182673e+00,1.52685e-03,9.99999e-01,3.17795e-03,9.97835e-01,4.81247e-01,9.99999e-01
1.047393587e+00,4.00000e-03,9.99999e-01,8.21209e-03,9.97131e-01,4.88250e-01,9.99998e-01
1.052630555e+00,4.08538e-07,9.99999e-01,8.27023e-07,9.96065e-01,4.95213e-01,9.99998e-01
1.057893707e+00,1.54492e-06,9.99999e-01,3.08716e-06,9.93438e-01,5.02135e-01,9.99997e-01
1.063183176e+00,4.24982e-05,9.99999e-01,8.40118e-05,9.89227e-01,5.09014e-01,9.99993e-01
1.068499092e+00,4.35609e-04,9.99999e-01,8.54595e-04,9.82030e-01,5.15849e-01,9.99987e-01
1.073841587e+00,5.41167e-03,9.99999e-01,1.05132e-02,9.79014e-01,5.22638e-01,9.99972e-01
1.079210795e+00,2.97399e-02,9.99999e-01,5.73904e-02,9.73182e-01,5.29380e-01,9.99927e-01
1.084606849e+00,1.01906e-01,9.99999e-01,1.97113e-01,9.59703e-01,5.36073e-01,9.99825e-01
1.090029883e+00,2.19370e-01,9.99999e-01,4.26897e-01,9.42679e-01,5.42716e-01,9.99638e-01
1.095480033e+00,3.08440e-01,9.99999e-01,6.56315e-01,8.51596e-01,5.49307e-01,9.99346e-01
1.100957433e+00,3.04190e-01,9.99999e-01,8.15433e-01,6.67569e-01,5.55846e-01,9.98798e-01
1.106462220e+00,1.93014e-01,9.99999e-01,9.18967e-01,3.71213e-01,5.62331e-01,9.97962e-01
1.111994531e+00,7.22659e-02,9.99999e-01,9.69123e-01,1.31082e-01,5.68762e-01,9.94601e-01
1.117554504e+00,2.32899e-02,9.99999e-01,9.92380e-01,4.14811e-02,5.75137e-01,9.80646e-01
1.123142276e+00,6.24516e-02,9.99999e-01,9.99498e-01,1.12508e-01,5.81455e-01,9.54713e-01
1.128757988e+00,1.22304e-01,9.99999e-01,9.99999e-01,2.19562e-01,5.87716e-01,9.47799e-01
1.134401778e+00,5.55164e-02,9.99999e-01,9.99999e-01,9.78344e-02,5.93919e-01,9.55436e-01
1.140073787e+00,2.24934e-01,9.99999e-01,9.99999e-01,3.88756e-01,6.00063e-01,9.64231e-01
1.145774156e+00,9.22598e-02,9.99999e-01,9.99999e-01,1.57367e-01,6.06147e-01,9.67209e-01
1.151503026e+00,7.79478e-02,9.99999e-01,9.99999e-01,1.29717e-01,6.12170e-01,9.81597e-01
1.157260541e+00,9.92998e-02,9.99999e-01,9.99999e-01,1.61539e-01,6.18133e-01,9.94461e-01
1.163046844e+00,1.59914e-01,9.99999e-01,9.99999e-01,2.56662e-01,6.24035e-01,9.98426e-01
1.168862078e+00,2.38160e-01,9.99999e-01,9.99999e-01,3.78414e-01,6.29874e-01,9.99189e-01
1.174706389e+00,3.47929e-01,9.99999e-01,9.99999e-01,5.47946e-01,6.35652e-01,9.98925e-01
1.180579921e+00,4.43010e-01,9.99999e-01,9.99999e-01,6.91852e-01,6.41366e-01,9.98375e-01
1.186482820e+00,5.23776e-01,9.99999e-01,9.99976e-01,8.10888e-01,6.47018e-01,9.98332e-01
1.192415234e+00,5.53965e-01,9.99999e-01,9.59453e-01,8.84557e-01,6.52606e-01,9.98751e-01
1.198377311e+00,3.10980e-01,9.99999e-01,5.15556e-01,9.01794e-01,6.58131e-01,9.98820e-01
1.204369197e+00,5.40056e-31,9.99999e-01,8.62123e-31,9.07086e-01,6.63592e-01,9.98932e-01
1.210391043e+00,1.15906e-125,9.99999e-01,1.82622e-125,9.10808e-01,6.68989e-01,9.99350e-01
1.216442998e+00,9.89078e-109,9.99999e-01,1.54148e-108,9.23630e-01,6.74322e-01,9.99601e-01
1.222525213e+00,4.31477e-107,9.99999e-01,6.55666e-107,9.39928e-01,6.79591e-01,9.99752e-01
1.228637839e+00,1.34175e-82,9.99999e-01,2.01714e-82,9.57876e-01,6.84796e-01,9.99884e-01
