#,Wave/freq,Total,N2,CO2,H2O,Rayleigh,CIA
4.000000000e-01,1.08362e-05,9.99999e-01,9.99999e-01,9.99977e-01,1.08364e-05,9.99999e-01
4.020000000e-01,1.35848e-05,9.99999e-01,9.99999e-01,9.99985e-01,1.35850e-05,9.99999e-01
4.040100000e-01,1.69508e-05,9.99999e-01,9.99999e-01,9.99993e-01,1.69509e-05,9.99999e-01
4.060300500e-01,2.10585e-05,9.99999e-01,9.99999e-01,9.99998e-01,2.10585e-05,9.99999e-01
4.080602003e-01,2.60496e-05,9.99999e-01,9.99999e-01,9.99999e-01,2.60497e-05,9.99999e-01
4.101005013e-01,3.20886e-05,9.99999e-01,9.99999e-01,9.99999e-01,3.20886e-05,9.99999e-01
4.121510038e-01,3.93651e-05,9.99999e-01,9.99999e-01,9.99998e-01,3.93652e-05,9.99999e-01
4.142117588e-01,4.80969e-05,9.99999e-01,9.99999e-01,9.99993e-01,4.80972e-05,9.99999e-01
4.162828176e-01,5.85324e-05,9.99999e-01,9.99999e-01,9.99972e-01,5.85340e-05,9.99999e-01
4.183642317e-01,7.09587e-05,9.99999e-01,9.99999e-01,9.99983e-01,7.09598e-05,9.99999e-01
4.204560528e-01,8.56961e-05,9.99999e-01,9.99999e-01,9.99989e-01,8.56969e-05,9.99999e-01
4.225583331e-01,1.03109e-04,9.99999e-01,9.99999e-01,9.99995e-01,1.03110e-04,9.99999e-01
4.246711247e-01,1.23608e-04,9.99999e-01,9.99999e-01,9.99996e-01,1.23608e-04,9.99999e-01
4.267944804e-01,1.47651e-04,9.99999e-01,9.99999e-01,9.99995e-01,1.47652e-04,9.99999e-01
4.289284528e-01,1.75753e-04,9.99999e-01,9.99999e-01,9.99996e-01,1.75754e-04,9.99999e-01
4.310730950e-01,2.08486e-04,9.99999e-01,9.99999e-01,9.99998e-01,2.08486e-04,9.99999e-01
4.332284605e-01,2.46482e-04,9.99999e-01,9.99999e-01,9.99999e-01,2.46482e-04,9.99999e-01
4.353946028e-01,2.90440e-04,9.99999e-01,9.99999e-01,9.99999e-01,2.90440e-04,9.99999e-01
4.375715758e-01,3.41129e-04,9.99999e-01,9.99999e-01,9.99996e-01,3.41130e-04,9.99999e-01
4.397594337e-01,3.99386e-04,9.99999e-01,9.99999e-01,9.99975e-01,3.99395e-04,9.99999e-01
4.419582309e-01,4.66102e-04,9.99999e-01,9.99999e-01,9.99877e-01,4.66159e-04,9.99999e-01
4.441680220e-01,5.42372e-04,9.99999e-01,9.99999e-01,9.99904e-01,5.42423e-04,9.99999e-01
4.463888621e-01,6.29217e-04,9.99999e-01,9.99999e-01,9.99900e-01,6.29279e-04,9.99999e-01
4.486208064e-01,7.27859e-04,9.99999e-01,9.99999e-01,9.99938e-01,7.27904e-04,9.99999e-01
4.508639105e-01,8.39544e-04,9.99999e-01,9.99999e-01,9.99970e-01,8.39568e-04,9.99999e-01
4.531182300e-01,9.65625e-04,9.99999e-01,9.99999e-01,9.99988e-01,9.65636e-04,9.99999e-01
4.553838212e-01,1.10756e-03,9.99999e-01,9.99999e-01,9.99991e-01,1.10757e-03,9.99999e-01
4.576607403e-01,1.26692e-03,9.99999e-01,9.99999e-01,9.99995e-01,1.26693e-03,9.99999e-01
4.599490440e-01,1.44537e-03,9.99999e-01,9.99999e-01,9.99997e-01,1.44537e-03,9.99999e-01
4.622487892e-01,1.64466e-03,9.99999e-01,9.99999e-01,9.99999e-01,1.64466e-03,9.99999e-01
4.645600332e-01,1.86666e-03,9.99999e-01,9.99999e-01,9.99997e-01,1.86666e-03,9.99999e-01
4.668828333e-01,2.11328e-03,9.99999e-01,9.99999e-01,9.99970e-01,2.11334e-03,9.99999e-01
4.692172475e-01,2.38661e-03,9.99999e-01,9.99999e-01,9.99937e-01,2.38676e-03,9.99999e-01
4.715633337e-01,2.68897e-03,9.99999e-01,9.99999e-01,9.99959e-01,2.68907e-03,9.99999e-01
4.739211504e-01,3.02244e-03,9.99999e-01,9.99999e-01,9.99960e-01,3.02256e-03,9.99999e-01
4.762907561e-01,3.38949e-03,9.99999e-01,9.99999e-01,9.99979e-01,3.38956e-03,9.99999e-01
4.786722099e-01,3.79250e-03,9.99999e-01,9.99999e-01,9.99991e-01,3.79253e-03,9.99999e-01
4.810655710e-01,4.23399e-03,9.99999e-01,9.99999e-01,9.99997e-01,4.23400e-03,9.99999e-01
4.834708988e-01,4.71649e-03,9.99999e-01,9.99999e-01,9.99975e-01,4.71660e-03,9.99999e-01
4.858882533e-01,5.24278e-03,9.99999e-01,9.99999e-01,9.99955e-01,5.24301e-03,9.99999e-01
4.883176946e-01,5.81579e-03,9.99999e-01,9.99999e-01,9.99962e-01,5.81600e-03,9.99999e-01
4.907592831e-01,6.43820e-03,9.99999e-01,9.99999e-01,9.99966e-01,6.43841e-03,9.99999e-01
4.932130795e-01,7.11296e-03,9.99999e-01,9.99999e-01,9.99975e-01,7.11313e-03,9.99999e-01
4.956791449e-01,7.84300e-03,9.99999e-01,9.99999e-01,9.99987e-01,7.84310e-03,9.99999e-01
4.981575406e-01,8.63077e-03,9.99999e-01,9.99999e-01,9.99937e-01,8.63131e-03,9.99999e-01
5.006483283e-01,9.47924e-03,9.99999e-01,9.99999e-01,9.99837e-01,9.48079e-03,9.99998e-01
5.031515699e-01,1.03860e-02,9.99999e-01,9.99999e-01,9.99181e-01,1.03946e-02,9.99990e-01
5.056673278e-01,1.13707e-02,9.99999e-01,9.99999e-01,9.99568e-01,1.13757e-02,9.99989e-01
5.081956644e-01,1.24205e-02,9.99999e-01,9.99999e-01,9.99455e-01,1.24274e-02,9.99993e-01
5.107366428e-01,1.35475e-02,9.99999e-01,9.99999e-01,9.99632e-01,1.35525e-02,9.99998e-01
5.132903260e-01,1.47511e-02,9.99999e-01,9.99999e-01,9.99789e-01,1.47542e-02,9.99999e-01
5.158567776e-01,1.60342e-02,9.99999e-01,9.99999e-01,9.99910e-01,1.60356e-02,9.99999e-01
5.184360615e-01,1.73990e-02,9.99999e-01,9.99999e-01,9.99964e-01,1.73996e-02,9.99999e-01
5.210282418e-01,1.88490e-02,9.99999e-01,9.99999e-01,9.99986e-01,1.88492e-02,9.99999e-01
5.236333830e-01,2.03862e-02,9.99999e-01,9.99999e-01,9.99946e-01,2.03873e-02,9.99999e-01
5.262515499e-01,2.20161e-02,9.99999e-01,9.99999e-01,9.99966e-01,2.20168e-02,9.99998e-01
5.288828077e-01,2.37397e-02,9.99999e-01,9.99999e-01,9.99968e-01,2.37405e-02,9.99999e-01
5.315272217e-01,2.55603e-02,9.99999e-01,9.99999e-01,9.99972e-01,2.55610e-02,9.99999e-01
5.341848578e-01,2.74805e-02,9.99999e-01,9.99999e-01,9.99981e-01,2.74809e-02,9.99999e-01
5.368557821e-01,2.95011e-02,9.99999e-01,9.99999e-01,9.99937e-01,2.95029e-02,9.99999e-01
5.395400610e-01,3.16221e-02,9.99999e-01,9.99999e-01,9.99775e-01,3.16292e-02,9.99997e-01
5.422377613e-01,3.38523e-02,9.99999e-01,9.99999e-01,9.99710e-01,3.38622e-02,9.99994e-01
5.449489501e-01,3.61941e-02,9.99999e-01,9.99999e-01,9.99730e-01,3.62041e-02,9.99994e-01
5.476736949e-01,3.86474e-02,9.99999e-01,9.99999e-01,9.99761e-01,3.86568e-02,9.99996e-01
5.504120634e-01,4.12150e-02,9.99999e-01,9.99999e-01,9.99826e-01,4.12222e-02,9.99998e-01
5.531641237e-01,4.38983e-02,9.99999e-01,9.99999e-01,9.99912e-01,4.39021e-02,9.99999e-01
5.559299443e-01,4.66962e-02,9.99999e-01,9.99999e-01,9.99957e-01,4.66982e-02,9.99999e-01
5.587095940e-01,4.96105e-02,9.99999e-01,9.99999e-01,9.99973e-01,4.96118e-02,9.99999e-01
5.615031420e-01,5.26426e-02,9.99999e-01,9.99999e-01,9.99970e-01,5.26441e-02,9.99999e-01
5.643106577e-01,5.57946e-02,9.99999e-01,9.99999e-01,9.99966e-01,5.57964e-02,9.99999e-01
5.671322110e-01,5.90454e-02,9.99999e-01,9.99999e-01,9.99593e-01,5.90696e-02,9.99995e-01
5.699678720e-01,6.24369e-02,9.99999e-01,9.99999e-01,9.99570e-01,6.24644e-02,9.99988e-01
5.728177114e-01,6.59513e-02,9.99999e-01,9.99999e-01,9.99551e-01,6.59815e-02,9.99990e-01
5.756818000e-01,6.95922e-02,9.99999e-01,9.99999e-01,9.99588e-01,6.96212e-02,9.99993e-01
5.785602090e-01,7.33574e-02,9.99999e-01,9.99999e-01,9.99641e-01,7.33838e-02,9.99997e-01
5.814530100e-01,7.72415e-02,9.99999e-01,9.99999e-01,9.99639e-01,7.72693e-02,9.99998e-01
5.843602750e-01,8.12427e-02,9.99999e-01,9.99999e-01,9.99569e-01,8.12778e-02,9.99997e-01
5.872820764e-01,8.50905e-02,9.99999e-01,9.99999e-01,9.96298e-01,8.54088e-02,9.99973e-01
5.902184868e-01,8.92544e-02,9.99999e-01,9.99999e-01,9.95525e-01,8.96619e-02,9.99928e-01
5.931695792e-01,9.37326e-02,9.99999e-01,9.99999e-01,9.96835e-01,9.40365e-02,9.99931e-01
5.961354271e-01,9.81864e-02,9.99999e-01,9.99999e-01,9.96532e-01,9.85318e-02,9.99960e-01
5.991161043e-01,1.02885e-01,9.99999e-01,9.99999e-01,9.97471e-01,1.03147e-01,9.99987e-01
6.021116848e-01,1.07726e-01,9.99999e-01,9.99999e-01,9.98565e-01,1.07880e-01,9.99998e-01
6.051222432e-01,1.12649e-01,9.99999e-01,9.99999e-01,9.99273e-01,1.12731e-01,9.99999e-01
6.081478544e-01,1.17661e-01,9.99999e-01,9.99999e-01,9.99686e-01,1.17698e-01,9.99999e-01
6.111885937e-01,1.22763e-01,9.99999e-01,9.99999e-01,9.99867e-01,1.22779e-01,9.99999e-01
6.142445367e-01,1.27965e-01,9.99999e-01,9.99999e-01,9.99940e-01,1.27972e-01,9.99999e-01
6.173157594e-01,1.33272e-01,9.99999e-01,9.99999e-01,9.99966e-01,1.33276e-01,9.99999e-01
6.204023382e-01,1.38685e-01,9.99999e-01,9.99999e-01,9.99971e-01,1.38689e-01,9.99999e-01
6.235043498e-01,1.44190e-01,9.99999e-01,9.99999e-01,9.99877e-01,1.44207e-01,9.99999e-01
6.266218716e-01,1.49733e-01,9.99999e-01,9.99999e-01,9.99355e-01,1.49830e-01,9.99994e-01
6.297549810e-01,1.55517e-01,9.99999e-01,9.99999e-01,9.99763e-01,1.55555e-01,9.99990e-01
6.329037559e-01,1.61302e-01,9.99999e-01,9.99999e-01,9.99532e-01,1.61378e-01,9.99992e-01
6.360682746e-01,1.67231e-01,9.99999e-01,9.99999e-01,9.99601e-01,1.67299e-01,9.99995e-01
6.392486160e-01,1.73223e-01,9.99999e-01,9.99999e-01,9.99484e-01,1.73313e-01,9.99997e-01
6.424448591e-01,1.79293e-01,9.99999e-01,9.99999e-01,9.99308e-01,1.79418e-01,9.99996e-01
6.456570834e-01,1.85012e-01,9.99999e-01,9.99999e-01,9.96792e-01,1.85611e-01,9.99981e-01
6.488853688e-01,1.91430e-01,9.99999e-01,9.99999e-01,9.97656e-01,1.91889e-01,9.99949e-01
6.521297956e-01,1.97768e-01,9.99999e-01,9.99999e-01,9.97610e-01,1.98249e-01,9.99958e-01
6.553904446e-01,2.04195e-01,9.99999e-01,9.99999e-01,9.97620e-01,2.04689e-01,9.99969e-01
6.586673968e-01,2.10771e-01,9.99999e-01,9.99999e-01,9.97963e-01,2.11204e-01,9.99989e-01
6.619607338e-01,2.17543e-01,9.99999e-01,9.99999e-01,9.98864e-01,2.17791e-01,9.99997e-01
6.652705375e-01,2.24295e-01,9.99999e-01,9.99999e-01,9.99318e-01,2.24448e-01,9.99998e-01
6.685968902e-01,2.31097e-01,9.99999e-01,9.99999e-01,9.99683e-01,2.31171e-01,9.99999e-01
6.719398746e-01,2.37921e-01,9.99999e-01,9.99999e-01,9.99853e-01,2.37956e-01,9.99999e-01
6.752995740e-01,2.44781e-01,9.99999e-01,9.99999e-01,9.99920e-01,2.44800e-01,9.99999e-01
6.786760719e-01,2.51672e-01,9.99999e-01,9.99999e-01,9.99884e-01,2.51701e-01,9.99999e-01
6.820694522e-01,2.58603e-01,9.99999e-01,9.99999e-01,9.99802e-01,2.58654e-01,9.99998e-01
6.854797995e-01,2.65588e-01,9.99999e-01,9.99999e-01,9.99745e-01,2.65656e-01,9.99997e-01
6.889071985e-01,2.72534e-01,9.99999e-01,9.99999e-01,9.99383e-01,2.72703e-01,9.99994e-01
6.923517345e-01,2.76979e-01,9.99999e-01,9.99999e-01,9.89990e-01,2.79793e-01,9.99951e-01
6.958134932e-01,2.85402e-01,9.99999e-01,9.99999e-01,9.94808e-01,2.86921e-01,9.99893e-01
6.992925606e-01,2.92600e-01,9.99999e-01,9.99999e-01,9.95045e-01,2.94085e-01,9.99903e-01
7.027890234e-01,2.99421e-01,9.99999e-01,9.99999e-01,9.93895e-01,3.01281e-01,9.99926e-01
7.063029686e-01,3.06911e-01,9.99999e-01,9.99999e-01,9.94865e-01,3.08506e-01,9.99963e-01
7.098344834e-01,3.14194e-01,9.99999e-01,9.99999e-01,9.95073e-01,3.15756e-01,9.99977e-01
7.133836558e-01,3.20889e-01,9.99999e-01,9.99999e-01,9.93418e-01,3.23029e-01,9.99956e-01
7.169505741e-01,3.13121e-01,9.99999e-01,9.99999e-01,9.48250e-01,3.30320e-01,9.99662e-01
7.205353270e-01,3.28806e-01,9.99999e-01,9.99999e-01,9.74450e-01,3.37627e-01,9.99405e-01
7.241380036e-01,3.33581e-01,9.99999e-01,9.99999e-01,9.67547e-01,3.44946e-01,9.99486e-01
7.277586936e-01,3.41802e-01,9.99999e-01,9.99999e-01,9.70675e-01,3.52275e-01,9.99580e-01
7.313974871e-01,3.48357e-01,9.99999e-01,9.99999e-01,9.68896e-01,3.59611e-01,9.99803e-01
7.350544745e-01,3.60647e-01,9.99999e-01,9.99999e-01,9.82891e-01,3.66949e-01,9.99931e-01
7.387297469e-01,3.69556e-01,9.99999e-01,9.99999e-01,9.87388e-01,3.74288e-01,9.99968e-01
7.424233956e-01,3.79262e-01,9.99999e-01,9.99999e-01,9.93815e-01,3.81624e-01,9.99993e-01
7.461355126e-01,3.87496e-01,9.99999e-01,9.99999e-01,9.96247e-01,3.88955e-01,9.99998e-01
7.498661902e-01,3.95586e-01,9.99999e-01,9.99999e-01,9.98252e-01,3.96278e-01,9.99999e-01
7.536155211e-01,4.03244e-01,9.99999e-01,9.99999e-01,9.99141e-01,4.03590e-01,9.99999e-01
7.573835987e-01,4.10708e-01,9.99999e-01,9.99999e-01,9.99558e-01,4.10889e-01,9.99999e-01
7.611705167e-01,4.18057e-01,9.99999e-01,9.99999e-01,9.99725e-01,4.18171e-01,9.99999e-01
7.649763693e-01,4.25362e-01,9.99999e-01,9.99999e-01,9.99827e-01,4.25435e-01,9.99999e-01
7.688012511e-01,4.32626e-01,9.99999e-01,9.99999e-01,9.99879e-01,4.32678e-01,9.99999e-01
7.726452574e-01,4.39854e-01,9.99999e-01,9.99999e-01,9.99900e-01,4.39898e-01,9.99999e-01
7.765084837e-01,4.47029e-01,9.99999e-01,9.99999e-01,9.99859e-01,4.47091e-01,9.99999e-01
7.803910261e-01,4.37387e-01,9.99999e-01,9.63427e-01,9.99393e-01,4.54257e-01,9.99998e-01
7.842929812e-01,3.91097e-01,9.99999e-01,8.49351e-01,9.97882e-01,4.61393e-01,9.99995e-01
7.882144461e-01,3.91615e-01,9.99999e-01,8.39418e-01,9.95649e-01,4.68497e-01,9.99969e-01
7.921555184e-01,4.28288e-01,9.99999e-01,9.02730e-01,9.97615e-01,4.75566e-01,9.99947e-01
7.961162960e-01,4.48787e-01,9.99999e-01,9.33887e-01,9.95777e-01,4.82599e-01,9.99950e-01
8.000968774e-01,4.69453e-01,9.99999e-01,9.63587e-01,9.95129e-01,4.89595e-01,9.99947e-01
8.040973618e-01,4.84723e-01,9.99999e-01,9.80991e-01,9.95126e-01,4.96550e-01,9.99957e-01
8.081178486e-01,4.93557e-01,9.99999e-01,9.91220e-01,9.89025e-01,5.03464e-01,9.99960e-01
8.121584379e-01,4.85995e-01,9.99999e-01,9.97287e-01,9.55014e-01,5.10335e-01,9.99845e-01
8.162192301e-01,4.89140e-01,9.99999e-01,9.99400e-01,9.46919e-01,5.17161e-01,9.99421e-01
8.203003262e-01,5.09494e-01,9.99999e-01,9.99990e-01,9.73090e-01,5.23941e-01,9.99322e-01
8.244018279e-01,5.10647e-01,9.99999e-01,9.99999e-01,9.62779e-01,5.30674e-01,9.99461e-01
8.285238370e-01,5.19916e-01,9.99999e-01,9.99999e-01,9.67952e-01,5.37357e-01,9.99576e-01
8.326664562e-01,5.26292e-01,9.99999e-01,9.99999e-01,9.67635e-01,5.43990e-01,9.99824e-01
8.368297885e-01,5.37775e-01,9.99999e-01,9.99999e-01,9.76796e-01,5.50571e-01,9.99959e-01
8.410139374e-01,5.49375e-01,9.99999e-01,9.99999e-01,9.86156e-01,5.57100e-01,9.99976e-01
8.452190071e-01,5.59731e-01,9.99999e-01,9.99999e-01,9.93192e-01,5.63575e-01,9.99985e-01
8.494451021e-01,5.67733e-01,9.99999e-01,9.99999e-01,9.96043e-01,5.69995e-01,9.99988e-01
8.536923276e-01,5.75007e-01,9.99999e-01,9.99999e-01,9.97660e-01,5.76359e-01,9.99992e-01
8.579607893e-01,5.81825e-01,9.99999e-01,9.99999e-01,9.98557e-01,5.82666e-01,9.99997e-01
8.622505932e-01,5.88377e-01,9.99999e-01,9.99999e-01,9.99084e-01,5.88916e-01,9.99999e-01
8.665618462e-01,5.47890e-01,9.99999e-01,9.21157e-01,9.99432e-01,5.95107e-01,9.99999e-01
8.708946554e-01,3.96947e-01,9.99999e-01,6.60627e-01,9.99350e-01,6.01240e-01,9.99999e-01
8.752491287e-01,4.34411e-01,9.99999e-01,7.15902e-01,9.99131e-01,6.07312e-01,9.99998e-01
8.796253743e-01,5.09764e-01,9.99999e-01,8.32121e-01,9.98796e-01,6.13324e-01,9.99996e-01
8.840235012e-01,5.62177e-01,9.99999e-01,9.09035e-01,9.98625e-01,6.19275e-01,9.99991e-01
8.884436187e-01,5.99113e-01,9.99999e-01,9.63143e-01,9.94971e-01,6.25165e-01,9.99975e-01
8.928858368e-01,5.89351e-01,9.99999e-01,9.84898e-01,9.48322e-01,6.30992e-01,9.99862e-01
8.973502660e-01,5.77303e-01,9.99999e-01,9.96318e-01,9.10544e-01,6.36758e-01,9.99296e-01
9.018370173e-01,6.11584e-01,9.99999e-01,9.99593e-01,9.53367e-01,6.42460e-01,9.98894e-01
9.063462024e-01,6.14462e-01,9.99999e-01,9.89538e-01,9.58712e-01,6.48099e-01,9.99028e-01
9.108779334e-01,5.97173e-01,9.99999e-01,9.76262e-01,9.36421e-01,6.53676e-01,9.98990e-01
9.154323231e-01,6.07952e-01,9.99999e-01,9.94393e-01,9.28128e-01,6.59188e-01,9.99165e-01
9.200094847e-01,5.79287e-01,9.99999e-01,9.21387e-01,9.43290e-01,6.64637e-01,9.99532e-01
9.246095321e-01,5.44459e-01,9.99999e-01,8.89052e-01,9.12422e-01,6.70021e-01,9.99461e-01
9.292325798e-01,3.37795e-01,9.99999e-01,9.11813e-01,5.44022e-01,6.75342e-01,9.97903e-01
9.338787427e-01,2.84976e-01,9.99999e-01,9.14780e-01,4.57118e-01,6.80599e-01,9.91364e-01
9.385481364e-01,4.65367e-01,9.99999e-01,9.36620e-01,7.29055e-01,6.85791e-01,9.89738e-01
9.432408771e-01,4.25226e-01,9.99999e-01,9.60732e-01,6.44801e-01,6.90920e-01,9.91140e-01
9.479570815e-01,3.70795e-01,9.99999e-01,9.79648e-01,5.47127e-01,6.95984e-01,9.92783e-01
9.526968669e-01,4.39450e-01,9.99999e-01,9.90142e-01,6.35357e-01,7.00984e-01,9.95591e-01
9.574603512e-01,4.61174e-01,9.99999e-01,9.95774e-01,6.57341e-01,7.05921e-01,9.97758e-01
9.622476530e-01,5.03637e-01,9.99999e-01,9.98680e-01,7.10533e-01,7.10793e-01,9.98449e-01
9.670588912e-01,5.86706e-01,9.99999e-01,9.99604e-01,8.21054e-01,7.15602e-01,9.98939e-01
9.718941857e-01,6.36156e-01,9.99999e-01,9.99971e-01,8.83835e-01,7.20348e-01,9.99218e-01
9.767536566e-01,6.53995e-01,9.99999e-01,9.99999e-01,9.02561e-01,7.25030e-01,9.99402e-01
9.816374249e-01,6.76154e-01,9.99999e-01,9.99999e-01,9.26874e-01,7.29650e-01,9.99792e-01
9.865456120e-01,7.00161e-01,9.99999e-01,9.99999e-01,9.53670e-01,7.34207e-01,9.99956e-01
9.914783401e-01,7.17347e-01,9.99999e-01,9.99999e-01,9.71103e-01,7.38701e-01,9.99987e-01
9.964357318e-01,7.31360e-01,9.99999e-01,9.99999e-01,9.84163e-01,7.43134e-01,9.99992e-01
1.001417910e+00,7.40381e-01,9.99999e-01,9.99999e-01,9.90480e-01,7.47504e-01,9.99988e-01
1.006425000e+00,7.47713e-01,9.99999e-01,9.99999e-01,9.94561e-01,7.51813e-01,9.99984e-01
1.011457125e+00,7.53498e-01,9.99999e-01,9.99999e-01,9.96623e-01,7.56062e-01,9.99985e-01
1.016514411e+00,7.58498e-01,9.99999e-01,9.99999e-01,9.97705e-01,7.60249e-01,9.99989e-01
1.021596983e+00,7.62928e-01,9.99999e-01,9.99942e-01,9.98171e-01,7.64377e-01,9.99989e-01
1.026704968e+00,7.64203e-01,9.99999e-01,9.95905e-01,9.98573e-01,7.68444e-01,9.99992e-01
1.031838492e+00,7.34888e-01,9.99999e-01,9.52326e-01,9.98963e-01,7.72452e-01,9.99997e-01
1.036997685e+00,1.09641e-01,9.99999e-01,1.41285e-01,9.99383e-01,7.76402e-01,9.99999e-01
1.042182673e+00,7.95316e-02,9.99999e-01,1.01991e-01,9.99264e-01,7.80293e-01,9.99999e-01
1.047393587e+00,9.79508e-02,9.99999e-01,1.25024e-01,9.99025e-01,7.84126e-01,9.99999e-01
1.052630555e+00,2.11868e-03,9.99999e-01,2.69162e-03,9.98662e-01,7.87901e-01,9.99999e-01
1.057893707e+00,5.64594e-03,9.99999e-01,7.14270e-03,9.97767e-01,7.91620e-01,9.99998e-01
1.063183176e+00,2.05624e-02,9.99999e-01,2.59226e-02,9.96329e-01,7.95282e-01,9.99997e-01
1.068499092e+00,6.17626e-02,9.99999e-01,7.77071e-02,9.93860e-01,7.98889e-01,9.99995e-01
1.073841587e+00,1.58638e-01,9.99999e-01,1.98904e-01,9.92814e-01,8.02440e-01,9.99990e-01
1.079210795e+00,2.87387e-01,9.99999e-01,3.59588e-01,9.90806e-01,8.05936e-01,9.99974e-01
1.084606849e+00,4.54528e-01,9.99999e-01,5.69128e-01,9.86107e-01,8.09378e-01,9.99940e-01
1.090029883e+00,5.94639e-01,9.99999e-01,7.46144e-01,9.80075e-01,8.12766e-01,9.99877e-01
1.095480033e+00,6.69065e-01,9.99999e-01,8.65666e-01,9.46656e-01,8.16101e-01,9.99777e-01
1.100957433e+00,6.65242e-01,9.99999e-01,9.32844e-01,8.70002e-01,8.19383e-01,9.99591e-01
1.106462220e+00,5.61876e-01,9.99999e-01,9.71672e-01,7.02652e-01,8.22614e-01,9.99307e-01
1.111994531e+00,3.90094e-01,9.99999e-01,9.89405e-01,4.77932e-01,8.25793e-01,9.98164e-01
1.117554504e+00,2.50205e-01,9.99999e-01,9.97407e-01,3.04486e-01,8.28921e-01,9.93390e-01
1.123142276e+00,3.45345e-01,9.99999e-01,9.99829e-01,4.21689e-01,8.31999e-01,9.84398e-01
1.128757988e+00,4.68547e-01,9.99999e-01,9.99999e-01,5.71416e-01,8.35027e-01,9.81973e-01
1.134401778e+00,2.60321e-01,9.99999e-01,9.99999e-01,3.15486e-01,8.38006e-01,9.84651e-01
1.140073787e+00,5.93350e-01,9.99999e-01,9.99999e-01,7.14355e-01,8.40936e-01,9.87717e-01
1.145774156e+00,4.16189e-01,9.99999e-01,9.99999e-01,4.98831e-01,8.43819e-01,9.88751e-01
1.151503026e+00,3.88532e-01,9.99999e-01,9.99999e-01,4.61803e-01,8.46654e-01,9.93717e-01
1.157260541e+00,4.42034e-01,9.99999e-01,9.99999e-01,5.21362e-01,8.49442e-01,9.98117e-01
1.163046844e+00,5.26006e-01,9.99999e-01,9.99999e-01,6.17574e-01,8.52185e-01,9.99465e-01
1.168862078e+00,6.10801e-01,9.99999e-01,9.99999e-01,7.14682e-01,8.54881e-01,9.99724e-01
1.174706389e+00,6.96691e-01,9.99999e-01,9.99999e-01,8.12732e-01,8.57533e-01,9.99634e-01
1.180579921e+00,7.57657e-01,9.99999e-01,9.99999e-01,8.81338e-01,8.60140e-01,9.99448e-01
1.186482820e+00,8.02782e-01,9.99999e-01,9.99991e-01,9.31075e-01,8.62704e-01,9.99433e-01
1.192415234e+00,8.17635e-01,9.99999e-01,9.85461e-01,9.59175e-01,8.65224e-01,9.99575e-01
1.198377311e+00,4.70855e-01,9.99999e-01,5.59036e-01,9.65467e-01,8.67702e-01,9.99599e-01
1.204369197e+00,5.30011e-12,9.99999e-01,6.21140e-12,9.67303e-01,8.70137e-01,9.99637e-01
1.210391043e+00,4.04834e-44,9.99999e-01,4.72339e-44,9.68709e-01,8.72531e-01,9.99779e-01
1.216442998e+00,2.24355e-38,9.99999e-01,2.60798e-38,9.73332e-01,8.74885e-01,9.99864e-01
1.222525213e+00,8.08495e-38,9.99999e-01,9.31796e-38,9.79174e-01,8.77197e-01,9.99915e-01
1.228637839e+00,2.68937e-29,9.99999e-01,3.08905e-29,9.85492e-01,8.79471e-01,9.99960e-01
