#,Wave/freq,Total,N2,CO2,H2O,Rayleigh,CIA
4.000000000e-01,2.59070e-04,9.99999e-01,9.99999e-01,9.99983e-01,2.59074e-04,9.99999e-01
4.020000000e-01,3.05025e-04,9.99999e-01,9.99999e-01,9.99989e-01,3.05028e-04,9.99999e-01
4.040100000e-01,3.57915e-04,9.99999e-01,9.99999e-01,9.99995e-01,3.57917e-04,9.99999e-01
4.060300500e-01,4.18652e-04,9.99999e-01,9.99999e-01,9.99998e-01,4.18652e-04,9.99999e-01
4.080602003e-01,4.88180e-04,9.99999e-01,9.99999e-01,9.99999e-01,4.88180e-04,9.99999e-01
4.101005013e-01,5.67530e-04,9.99999e-01,9.99999e-01,9.99999e-01,5.67530e-04,9.99999e-01
4.121510038e-01,6.57818e-04,9.99999e-01,9.99999e-01,9.99998e-01,6.57818e-04,9.99999e-01
4.142117588e-01,7.60246e-04,9.99999e-01,9.99999e-01,9.99995e-01,7.60249e-04,9.99999e-01
4.162828176e-01,8.76105e-04,9.99999e-01,9.99999e-01,9.99979e-01,8.76123e-04,9.99999e-01
4.183642317e-01,1.00682e-03,9.99999e-01,9.99999e-01,9.99987e-01,1.00683e-03,9.99999e-01
4.204560528e-01,1.15386e-03,9.99999e-01,9.99999e-01,9.99992e-01,1.15387e-03,9.99999e-01
4.225583331e-01,1.31882e-03,9.99999e-01,9.99999e-01,9.99996e-01,1.31882e-03,9.99999e-01
4.246711247e-01,1.50338e-03,9.99999e-01,9.99999e-01,9.99997e-01,1.50338e-03,9.99999e-01
4.267944804e-01,1.70934e-03,9.99999e-01,9.99999e-01,9.99996e-01,1.70934e-03,9.99999e-01
4.289284528e-01,1.93859e-03,9.99999e-01,9.99999e-01,9.99997e-01,1.93860e-03,9.99999e-01
4.310730950e-01,2.19314e-03,9.99999e-01,9.99999e-01,9.99998e-01,2.19314e-03,9.99999e-01
4.332284605e-01,2.47507e-03,9.99999e-01,9.99999e-01,9.99999e-01,2.47507e-03,9.99999e-01
4.353946028e-01,2.78657e-03,9.99999e-01,9.99999e-01,9.99999e-01,2.78657e-03,9.99999e-01
4.375715758e-01,3.12993e-03,9.99999e-01,9.99999e-01,9.99997e-01,3.12994e-03,9.99999e-01
4.397594337e-01,3.50750e-03,9.99999e-01,9.99999e-01,9.99981e-01,3.50756e-03,9.99999e-01
4.419582309e-01,3.92156e-03,9.99999e-01,9.99999e-01,9.99910e-01,3.92191e-03,9.99999e-01
4.441680220e-01,4.37525e-03,9.99999e-01,9.99999e-01,9.99931e-01,4.37554e-03,9.99999e-01
4.463888621e-01,4.87076e-03,9.99999e-01,9.99999e-01,9.99928e-01,4.87110e-03,9.99999e-01
4.486208064e-01,5.41107e-03,9.99999e-01,9.99999e-01,9.99955e-01,5.41131e-03,9.99999e-01
4.508639105e-01,5.99883e-03,9.99999e-01,9.99999e-01,9.99978e-01,5.99895e-03,9.99999e-01
4.531182300e-01,6.63683e-03,9.99999e-01,9.99999e-01,9.99991e-01,6.63688e-03,9.99999e-01
4.553838212e-01,7.32796e-03,9.99999e-01,9.99999e-01,9.99993e-01,7.32800e-03,9.99999e-01
4.576607403e-01,8.07525e-03,9.99999e-01,9.99999e-01,9.99996e-01,8.07528e-03,9.99999e-01
4.599490440e-01,8.88169e-03,9.99999e-01,9.99999e-01,9.99997e-01,8.88170e-03,9.99999e-01
4.622487892e-01,9.75031e-03,9.99999e-01,9.99999e-01,9.99999e-01,9.75031e-03,9.99999e-01
4.645600332e-01,1.06841e-02,9.99999e-01,9.99999e-01,9.99998e-01,1.06842e-02,9.99999e-01
4.668828333e-01,1.16861e-02,9.99999e-01,9.99999e-01,9.99978e-01,1.16863e-02,9.99999e-01
4.692172475e-01,1.27593e-02,9.99999e-01,9.99999e-01,9.99954e-01,1.27599e-02,9.99999e-01
4.715633337e-01,1.39074e-02,9.99999e-01,9.99999e-01,9.99970e-01,1.39078e-02,9.99999e-01
4.739211504e-01,1.51329e-02,9.99999e-01,9.99999e-01,9.99971e-01,1.51334e-02,9.99999e-01
4.762907561e-01,1.64392e-02,9.99999e-01,9.99999e-01,9.99985e-01,1.64394e-02,9.99999e-01
4.786722099e-01,1.78289e-02,9.99999e-01,9.99999e-01,9.99993e-01,1.78290e-02,9.99999e-01
4.810655710e-01,1.93050e-02,9.99999e-01,9.99999e-01,9.99997e-01,1.93051e-02,9.99999e-01
4.834708988e-01,2.08702e-02,9.99999e-01,9.99999e-01,9.99981e-01,2.08705e-02,9.99999e-01
4.858882533e-01,2.25275e-02,9.99999e-01,9.99999e-01,9.99967e-01,2.25282e-02,9.99999e-01
4.883176946e-01,2.42802e-02,9.99999e-01,9.99999e-01,9.99972e-01,2.42809e-02,9.99999e-01
4.907592831e-01,2.61306e-02,9.99999e-01,9.99999e-01,9.99975e-01,2.61312e-02,9.99999e-01
4.932130795e-01,2.80813e-02,9.99999e-01,9.99999e-01,9.99982e-01,2.80818e-02,9.99999e-01
4.956791449e-01,3.01348e-02,9.99999e-01,9.99999e-01,9.99990e-01,3.01351e-02,9.99999e-01
4.981575406e-01,3.22920e-02,9.99999e-01,9.99999e-01,9.99954e-01,3.22934e-02,9.99999e-01
5.006483283e-01,3.45550e-02,9.99999e-01,9.99999e-01,9.99881e-01,3.45591e-02,9.99998e-01
5.031515699e-01,3.69122e-02,9.99999e-01,9.99999e-01,9.99407e-01,3.69343e-02,9.99993e-01
5.056673278e-01,3.94084e-02,9.99999e-01,9.99999e-01,9.99688e-01,3.94209e-02,9.99992e-01
5.081956644e-01,4.20041e-02,9.99999e-01,9.99999e-01,9.99607e-01,4.20208e-02,9.99995e-01
5.107366428e-01,4.47238e-02,9.99999e-01,9.99999e-01,9.99734e-01,4.47357e-02,9.99998e-01
5.132903260e-01,4.75600e-02,9.99999e-01,9.99999e-01,9.99848e-01,4.75672e-02,9.99999e-01
5.158567776e-01,5.05133e-02,9.99999e-01,9.99999e-01,9.99935e-01,5.05166e-02,9.99999e-01
5.184360615e-01,5.35837e-02,9.99999e-01,9.99999e-01,9.99974e-01,5.35851e-02,9.99999e-01
5.210282418e-01,5.67733e-02,9.99999e-01,9.99999e-01,9.99989e-01,5.67739e-02,9.99999e-01
5.236333830e-01,6.00815e-02,9.99999e-01,9.99999e-01,9.99961e-01,6.00838e-02,9.99999e-01
5.262515499e-01,6.35140e-02,9.99999e-01,9.99999e-01,9.99975e-01,6.35155e-02,9.99999e-01
5.288828077e-01,6.70681e-02,9.99999e-01,9.99999e-01,9.99977e-01,6.70696e-02,9.99999e-01
5.315272217e-01,7.07451e-02,9.99999e-01,9.99999e-01,9.99980e-01,7.07465e-02,9.99999e-01
5.341848578e-01,7.45454e-02,9.99999e-01,9.99999e-01,9.99986e-01,7.45463e-02,9.99999e-01
5.368557821e-01,7.84655e-02,9.99999e-01,9.99999e-01,9.99954e-01,7.84691e-02,9.99999e-01
5.395400610e-01,8.25010e-02,9.99999e-01,9.99999e-01,9.99835e-01,8.25146e-02,9.99997e-01
5.422377613e-01,8.66642e-02,9.99999e-01,9.99999e-01,9.99791e-01,8.66826e-02,9.99995e-01
5.449489501e-01,9.09545e-02,9.99999e-01,9.99999e-01,9.99804e-01,9.09726e-02,9.99995e-01
5.476736949e-01,9.53673e-02,9.99999e-01,9.99999e-01,9.99828e-01,9.53838e-02,9.99997e-01
5.504120634e-01,9.99029e-02,9.99999e-01,9.99999e-01,9.99875e-01,9.99154e-02,9.99998e-01
5.531641237e-01,1.04560e-01,9.99999e-01,9.99999e-01,9.99936e-01,1.04566e-01,9.99999e-01
5.559299443e-01,1.09332e-01,9.99999e-01,9.99999e-01,9.99969e-01,1.09336e-01,9.99999e-01
5.587095940e-01,1.14220e-01,9.99999e-01,9.99999e-01,9.99980e-01,1.14222e-01,9.99999e-01
5.615031420e-01,1.19221e-01,9.99999e-01,9.99999e-01,9.99978e-01,1.19223e-01,9.99999e-01
5.643106577e-01,1.24335e-01,9.99999e-01,9.99999e-01,9.99975e-01,1.24338e-01,9.99999e-01
5.671322110e-01,1.29526e-01,9.99999e-01,9.99999e-01,9.99701e-01,1.29565e-01,9.99996e-01
5.699678720e-01,1.34860e-01,9.99999e-01,9.99999e-01,9.99691e-01,1.34902e-01,9.99991e-01
5.728177114e-01,1.40301e-01,9.99999e-01,9.99999e-01,9.99675e-01,1.40347e-01,9.99992e-01
5.756818000e-01,1.45854e-01,9.99999e-01,9.99999e-01,9.99702e-01,1.45898e-01,9.99995e-01
5.785602090e-01,1.51512e-01,9.99999e-01,9.99999e-01,9.99741e-01,1.51551e-01,9.99998e-01
5.814530100e-01,1.57265e-01,9.99999e-01,9.99999e-01,9.99739e-01,1.57306e-01,9.99998e-01
5.843602750e-01,1.63108e-01,9.99999e-01,9.99999e-01,9.99686e-01,1.63159e-01,9.99997e-01
5.872820764e-01,1.68650e-01,9.99999e-01,9.99999e-01,9.97306e-01,1.69108e-01,9.99980e-01
5.902184868e-01,1.74576e-01,9.99999e-01,9.99999e-01,9.96771e-01,1.75150e-01,9.99948e-01
5.931695792e-01,1.80858e-01,9.99999e-01,9.99999e-01,9.97710e-01,1.81282e-01,9.99950e-01
5.961354271e-01,1.87027e-01,9.99999e-01,9.99999e-01,9.97496e-01,1.87501e-01,9.99971e-01
5.991161043e-01,1.93450e-01,9.99999e-01,9.99999e-01,9.98176e-01,1.93805e-01,9.99990e-01
6.021116848e-01,1.99982e-01,9.99999e-01,9.99999e-01,9.98966e-01,2.00189e-01,9.99998e-01
6.051222432e-01,2.06544e-01,9.99999e-01,9.99999e-01,9.99477e-01,2.06652e-01,9.99999e-01
6.081478544e-01,2.13141e-01,9.99999e-01,9.99999e-01,9.99773e-01,2.13189e-01,9.99999e-01
6.111885937e-01,2.19777e-01,9.99999e-01,9.99999e-01,9.99904e-01,2.19798e-01,9.99999e-01
6.142445367e-01,2.26465e-01,9.99999e-01,9.99999e-01,9.99956e-01,2.26475e-01,9.99999e-01
6.173157594e-01,2.33211e-01,9.99999e-01,9.99999e-01,9.99976e-01,2.33217e-01,9.99999e-01
6.204023382e-01,2.40016e-01,9.99999e-01,9.99999e-01,9.99979e-01,2.40020e-01,9.99999e-01
6.235043498e-01,2.46860e-01,9.99999e-01,9.99999e-01,9.99909e-01,2.46882e-01,9.99999e-01
6.266218716e-01,2.53680e-01,9.99999e-01,9.99999e-01,9.99533e-01,2.53799e-01,9.99996e-01
6.297549810e-01,2.60721e-01,9.99999e-01,9.99999e-01,9.99828e-01,2.60767e-01,9.99992e-01
6.329037559e-01,2.67691e-01,9.99999e-01,9.99999e-01,9.99662e-01,2.67783e-01,9.99994e-01
6.360682746e-01,2.74764e-01,9.99999e-01,9.99999e-01,9.99711e-01,2.74844e-01,9.99996e-01
6.392486160e-01,2.81840e-01,9.99999e-01,9.99999e-01,9.99627e-01,2.81945e-01,9.99998e-01
6.424448591e-01,2.88939e-01,9.99999e-01,9.99999e-01,9.99496e-01,2.89085e-01,9.99997e-01
6.456570834e-01,2.95563e-01,9.99999e-01,9.99999e-01,9.97663e-01,2.96259e-01,9.99985e-01
6.488853688e-01,3.02941e-01,9.99999e-01,9.99999e-01,9.98310e-01,3.03464e-01,9.99963e-01
6.521297956e-01,3.10153e-01,9.99999e-01,9.99999e-01,9.98277e-01,3.10697e-01,9.99969e-01
6.553904446e-01,3.17400e-01,9.99999e-01,9.99999e-01,9.98277e-01,3.17954e-01,9.99977e-01
6.586673968e-01,3.24753e-01,9.99999e-01,9.99999e-01,9.98531e-01,3.25233e-01,9.99992e-01
6.619607338e-01,3.32257e-01,9.99999e-01,9.99999e-01,9.99181e-01,3.32529e-01,9.99997e-01
6.652705375e-01,3.39673e-01,9.99999e-01,9.99999e-01,9.99508e-01,3.39840e-01,9.99998e-01
6.685968902e-01,3.47090e-01,9.99999e-01,9.99999e-01,9.99791e-01,3.47163e-01,9.99999e-01
6.719398746e-01,3.54457e-01,9.99999e-01,9.99999e-01,9.99894e-01,3.54494e-01,9.99999e-01
6.752995740e-01,3.61810e-01,9.99999e-01,9.99999e-01,9.99943e-01,3.61830e-01,9.99999e-01
6.786760719e-01,3.69139e-01,9.99999e-01,9.99999e-01,9.99915e-01,3.69169e-01,9.99999e-01
6.820694522e-01,3.76454e-01,9.99999e-01,9.99999e-01,9.99855e-01,3.76508e-01,9.99998e-01
6.854797995e-01,3.83772e-01,9.99999e-01,9.99999e-01,9.99815e-01,3.83843e-01,9.99997e-01
6.889071985e-01,3.90994e-01,9.99999e-01,9.99999e-01,9.99547e-01,3.91172e-01,9.99995e-01
6.923517345e-01,3.95574e-01,9.99999e-01,9.99999e-01,9.92711e-01,3.98492e-01,9.99964e-01
6.958134932e-01,4.04265e-01,9.99999e-01,9.99999e-01,9.96292e-01,4.05800e-01,9.99922e-01
6.992925606e-01,4.11577e-01,9.99999e-01,9.99999e-01,9.96396e-01,4.13094e-01,9.99930e-01
7.027890234e-01,4.18496e-01,9.99999e-01,9.99999e-01,9.95592e-01,4.20371e-01,9.99946e-01
7.063029686e-01,4.26032e-01,9.99999e-01,9.99999e-01,9.96290e-01,4.27629e-01,9.99973e-01
7.098344834e-01,4.33311e-01,9.99999e-01,9.99999e-01,9.96440e-01,4.34865e-01,9.99983e-01
7.133836558e-01,4.39937e-01,9.99999e-01,9.99999e-01,9.95189e-01,4.42077e-01,9.99968e-01
7.169505741e-01,4.32125e-01,9.99999e-01,9.99999e-01,9.62087e-01,4.49262e-01,9.99756e-01
7.205353270e-01,4.47861e-01,9.99999e-01,9.99999e-01,9.81669e-01,4.56419e-01,9.99570e-01
7.241380036e-01,4.52419e-01,9.99999e-01,9.99999e-01,9.76359e-01,4.63546e-01,9.99628e-01
7.277586936e-01,4.60459e-01,9.99999e-01,9.99999e-01,9.78665e-01,4.70639e-01,9.99696e-01
7.313974871e-01,4.66887e-01,9.99999e-01,9.99999e-01,9.77507e-01,4.77698e-01,9.99857e-01
7.350544745e-01,4.78703e-01,9.99999e-01,9.99999e-01,9.87636e-01,4.84720e-01,9.99950e-01
7.387297469e-01,4.87218e-01,9.99999e-01,9.99999e-01,9.90900e-01,4.91703e-01,9.99976e-01
7.424233956e-01,4.96426e-01,9.99999e-01,9.99999e-01,9.95551e-01,4.98646e-01,9.99995e-01
7.461355126e-01,5.04181e-01,9.99999e-01,9.99999e-01,9.97297e-01,5.05547e-01,9.99998e-01
7.498661902e-01,5.11762e-01,9.99999e-01,9.99999e-01,9.98745e-01,5.12405e-01,9.99999e-01
7.536155211e-01,5.18897e-01,9.99999e-01,9.99999e-01,9.99382e-01,5.19217e-01,9.99999e-01
7.573835987e-01,5.25816e-01,9.99999e-01,9.99999e-01,9.99681e-01,5.25983e-01,9.99999e-01
7.611705167e-01,5.32595e-01,9.99999e-01,9.99999e-01,9.99802e-01,5.32701e-01,9.99999e-01
7.649763693e-01,5.39302e-01,9.99999e-01,9.99999e-01,9.99875e-01,5.39369e-01,9.99999e-01
7.688012511e-01,5.45939e-01,9.99999e-01,9.99999e-01,9.99913e-01,5.45986e-01,9.99999e-01
7.726452574e-01,5.52513e-01,9.99999e-01,9.99999e-01,9.99928e-01,5.52552e-01,9.99999e-01
7.765084837e-01,5.59007e-01,9.99999e-01,9.99999e-01,9.99897e-01,5.59064e-01,9.99999e-01
7.803910261e-01,5.49273e-01,9.99999e-01,9.71684e-01,9.99558e-01,5.65523e-01,9.99999e-01
7.842929812e-01,5.07273e-01,9.99999e-01,8.88275e-01,9.98457e-01,5.71926e-01,9.99996e-01
7.882144461e-01,5.07200e-01,9.99999e-01,8.79792e-01,9.96854e-01,5.78273e-01,9.99977e-01
7.921555184e-01,5.41800e-01,9.99999e-01,9.28444e-01,9.98284e-01,5.84563e-01,9.99962e-01
7.961162960e-01,5.60702e-01,9.99999e-01,9.51999e-01,9.96929e-01,5.90795e-01,9.99963e-01
8.000968774e-01,5.79165e-01,9.99999e-01,9.73634e-01,9.96477e-01,5.96969e-01,9.99961e-01
8.040973618e-01,5.92721e-01,9.99999e-01,9.86320e-01,9.96470e-01,6.03083e-01,9.99970e-01
8.081178486e-01,6.00428e-01,9.99999e-01,9.93670e-01,9.92000e-01,6.09137e-01,9.99970e-01
8.121584379e-01,5.93670e-01,9.99999e-01,9.98064e-01,9.67075e-01,6.15131e-01,9.99888e-01
8.162192301e-01,5.96614e-01,9.99999e-01,9.99571e-01,9.61438e-01,6.21064e-01,9.99582e-01
8.203003262e-01,6.14190e-01,9.99999e-01,9.99993e-01,9.80155e-01,6.26934e-01,9.99510e-01
8.244018279e-01,6.15489e-01,9.99999e-01,9.99999e-01,9.73109e-01,6.32743e-01,9.99610e-01
8.285238370e-01,6.23404e-01,9.99999e-01,9.99999e-01,9.76671e-01,6.38489e-01,9.99693e-01
8.326664562e-01,6.28969e-01,9.99999e-01,9.99999e-01,9.76520e-01,6.44173e-01,9.99873e-01
8.368297885e-01,6.38877e-01,9.99999e-01,9.99999e-01,9.83228e-01,6.49793e-01,9.99970e-01
8.410139374e-01,6.48794e-01,9.99999e-01,9.99999e-01,9.90012e-01,6.55350e-01,9.99982e-01
8.452190071e-01,6.57599e-01,9.99999e-01,9.99999e-01,9.95100e-01,6.60843e-01,9.99989e-01
8.494451021e-01,6.64364e-01,9.99999e-01,9.99999e-01,9.97143e-01,6.66272e-01,9.99991e-01
8.536923276e-01,6.70504e-01,9.99999e-01,9.99999e-01,9.98316e-01,6.71638e-01,9.99994e-01
8.579607893e-01,6.76234e-01,9.99999e-01,9.99999e-01,9.98959e-01,6.76939e-01,9.99998e-01
8.622505932e-01,6.81727e-01,9.99999e-01,9.99999e-01,9.99340e-01,6.82176e-01,9.99999e-01
8.665618462e-01,6.41316e-01,9.99999e-01,9.33396e-01,9.99590e-01,6.87350e-01,9.99999e-01
8.708946554e-01,5.10416e-01,9.99999e-01,7.37443e-01,9.99529e-01,6.92459e-01,9.99999e-01
8.752491287e-01,5.46696e-01,9.99999e-01,7.84271e-01,9.99371e-01,6.97504e-01,9.99998e-01
8.796253743e-01,6.14637e-01,9.99999e-01,8.75694e-01,9.99126e-01,7.02484e-01,9.99997e-01
8.840235012e-01,6.59793e-01,9.99999e-01,9.33623e-01,9.99003e-01,7.07402e-01,9.99993e-01
8.884436187e-01,6.90773e-01,9.99999e-01,9.73439e-01,9.96290e-01,7.12255e-01,9.99982e-01
8.928858368e-01,6.82321e-01,9.99999e-01,9.89139e-01,9.62044e-01,7.17045e-01,9.99900e-01
8.973502660e-01,6.72361e-01,9.99999e-01,9.97368e-01,9.34435e-01,7.21771e-01,9.99491e-01
9.018370173e-01,7.01179e-01,9.99999e-01,9.99710e-01,9.66276e-01,7.26435e-01,9.99201e-01
9.063462024e-01,7.03080e-01,9.99999e-01,9.92280e-01,9.69738e-01,7.31035e-01,9.99298e-01
9.108779334e-01,6.88931e-01,9.99999e-01,9.82857e-01,9.53461e-01,7.35573e-01,9.99270e-01
9.154323231e-01,6.97978e-01,9.99999e-01,9.96001e-01,9.47445e-01,7.40049e-01,9.99397e-01
9.200094847e-01,6.72393e-01,9.99999e-01,9.40754e-01,9.58697e-01,7.44462e-01,9.99662e-01
9.246095321e-01,6.43303e-01,9.99999e-01,9.18690e-01,9.34310e-01,7.48814e-01,9.99610e-01
9.292325798e-01,4.51197e-01,9.99999e-01,9.34809e-01,6.38256e-01,7.53105e-01,9.98124e-01
9.338787427e-01,3.99566e-01,9.99999e-01,9.37712e-01,5.63294e-01,7.57335e-01,9.93239e-01
9.385481364e-01,5.73694e-01,9.99999e-01,9.53858e-01,7.93971e-01,7.61504e-01,9.92574e-01
9.432408771e-01,5.34262e-01,9.99999e-01,9.71594e-01,7.21911e-01,7.65613e-01,9.93590e-01
9.479570815e-01,4.80997e-01,9.99999e-01,9.85295e-01,6.37158e-01,7.69663e-01,9.94780e-01
9.526968669e-01,5.48823e-01,9.99999e-01,9.92900e-01,7.16376e-01,7.73653e-01,9.96813e-01
9.574603512e-01,5.70118e-01,9.99999e-01,9.96962e-01,7.36497e-01,7.77585e-01,9.98379e-01
9.622476530e-01,6.08758e-01,9.99999e-01,9.99052e-01,7.80580e-01,7.81459e-01,9.98879e-01
9.670588912e-01,6.79981e-01,9.99999e-01,9.99716e-01,8.66814e-01,7.85274e-01,9.99233e-01
9.718941857e-01,7.21193e-01,9.99999e-01,9.99980e-01,9.14554e-01,7.89032e-01,9.99435e-01
9.767536566e-01,7.35757e-01,9.99999e-01,9.99999e-01,9.28526e-01,7.92734e-01,9.99568e-01
9.816374249e-01,7.53826e-01,9.99999e-01,9.99999e-01,9.46707e-01,7.96379e-01,9.99850e-01
9.865456120e-01,7.73057e-01,9.99999e-01,9.99999e-01,9.66389e-01,7.99969e-01,9.99968e-01
9.914783401e-01,7.86692e-01,9.99999e-01,9.99999e-01,9.79086e-01,8.03503e-01,9.99990e-01
9.964357318e-01,7.97748e-01,9.99999e-01,9.99999e-01,9.88561e-01,8.06983e-01,9.99994e-01
1.001417910e+00,8.04839e-01,9.99999e-01,9.99999e-01,9.93134e-01,8.10409e-01,9.99991e-01
1.006425000e+00,8.10575e-01,9.99999e-01,9.99999e-01,9.96071e-01,8.13781e-01,9.99988e-01
1.011457125e+00,8.15104e-01,9.99999e-01,9.99999e-01,9.97567e-01,8.17100e-01,9.99989e-01
1.016514411e+00,8.19003e-01,9.99999e-01,9.99999e-01,9.98345e-01,8.20366e-01,9.99992e-01
1.021596983e+00,8.22450e-01,9.99999e-01,9.99952e-01,9.98680e-01,8.23581e-01,9.99992e-01
1.026704968e+00,8.23392e-01,9.99999e-01,9.96974e-01,9.98970e-01,8.26745e-01,9.99995e-01
1.031838492e+00,7.95396e-01,9.99999e-01,9.59168e-01,9.99252e-01,8.29857e-01,9.99998e-01
1.036997685e+00,1.56713e-01,9.99999e-01,1.88217e-01,9.99555e-01,8.32920e-01,9.99999e-01
1.042182673e+00,1.54600e-01,9.99999e-01,1.85032e-01,9.99467e-01,8.35933e-01,9.99999e-01
1.047393587e+00,1.62039e-01,9.99999e-01,1.93278e-01,9.99295e-01,8.38897e-01,9.99999e-01
1.052630555e+00,8.94954e-03,9.99999e-01,1.06390e-02,9.99031e-01,8.41813e-01,9.99999e-01
1.057893707e+00,2.07407e-02,9.99999e-01,2.45828e-02,9.98381e-01,8.44681e-01,9.99998e-01
1.063183176e+00,5.57551e-02,9.99999e-01,6.59189e-02,9.97339e-01,8.47502e-01,9.99998e-01
1.068499092e+00,1.30715e-01,9.99999e-01,1.54326e-01,9.95555e-01,8.50277e-01,9.99996e-01
1.073841587e+00,2.62164e-01,9.99999e-01,3.08754e-01,9.94787e-01,8.53005e-01,9.99992e-01
1.079210795e+00,4.04208e-01,9.99999e-01,4.75323e-01,9.93350e-01,8.55688e-01,9.99981e-01
1.084606849e+00,5.65649e-01,9.99999e-01,6.65502e-01,9.89927e-01,8.58326e-01,9.99956e-01
1.090029883e+00,6.86862e-01,9.99999e-01,8.09414e-01,9.85452e-01,8.60920e-01,9.99911e-01
1.095480033e+00,7.47959e-01,9.99999e-01,9.01269e-01,9.60944e-01,8.63471e-01,9.99839e-01
1.100957433e+00,7.44414e-01,9.99999e-01,9.51153e-01,9.03662e-01,8.65978e-01,9.99704e-01
1.106462220e+00,6.56894e-01,9.99999e-01,9.79546e-01,7.72118e-01,8.68443e-01,9.99499e-01
1.111994531e+00,5.02727e-01,9.99999e-01,9.92370e-01,5.82222e-01,8.70866e-01,9.98673e-01
1.117554504e+00,3.61887e-01,9.99999e-01,9.98143e-01,4.17061e-01,8.73248e-01,9.95220e-01
1.123142276e+00,4.55839e-01,9.99999e-01,9.99878e-01,5.26592e-01,8.75589e-01,9.88703e-01
1.128757988e+00,5.73650e-01,9.99999e-01,9.99999e-01,6.62086e-01,8.77889e-01,9.86943e-01
1.134401778e+00,3.52896e-01,9.99999e-01,9.99999e-01,4.05455e-01,8.80151e-01,9.88886e-01
1.140073787e+00,6.83863e-01,9.99999e-01,9.99999e-01,7.81978e-01,8.82373e-01,9.91110e-01
1.145774156e+00,5.26068e-01,9.99999e-01,9.99999e-01,5.99605e-01,8.84557e-01,9.91859e-01
1.151503026e+00,4.98655e-01,9.99999e-01,9.99999e-01,5.64936e-01,8.86702e-01,9.95456e-01
1.157260541e+00,5.52074e-01,9.99999e-01,9.99999e-01,6.21984e-01,8.88811e-01,9.98639e-01
1.163046844e+00,6.27596e-01,9.99999e-01,9.99999e-01,7.04736e-01,8.90883e-01,9.99613e-01
1.168862078e+00,7.00326e-01,9.99999e-01,9.99999e-01,7.84467e-01,8.92918e-01,9.99800e-01
1.174706389e+00,7.70186e-01,9.99999e-01,9.99999e-01,8.60848e-01,8.94918e-01,9.99736e-01
1.180579921e+00,8.18405e-01,9.99999e-01,9.99999e-01,9.12862e-01,8.96883e-01,9.99601e-01
1.186482820e+00,8.53315e-01,9.99999e-01,9.99992e-01,9.49773e-01,8.98813e-01,9.99590e-01
1.192415234e+00,8.64338e-01,9.99999e-01,9.89142e-01,9.70356e-01,9.00709e-01,9.99693e-01
1.198377311e+00,5.00717e-01,9.99999e-01,5.66842e-01,9.74907e-01,9.02571e-01,9.99708e-01
1.204369197e+00,2.69628e-09,9.99999e-01,3.02368e-09,9.76256e-01,9.04400e-01,9.99746e-01
1.210391043e+00,1.68481e-32,9.99999e-01,1.88335e-32,9.77292e-01,9.06197e-01,9.99840e-01
1.216442998e+00,2.37888e-28,9.99999e-01,2.65212e-28,9.80696e-01,9.07962e-01,9.99902e-01
1.222525213e+00,6.02591e-28,9.99999e-01,6.67660e-28,9.84929e-01,9.09695e-01,9.99938e-01
1.228637839e+00,1.26050e-21,9.99999e-01,1.39331e-21,9.89505e-01,9.11398e-01,9.99971e-01
