#,Wave/freq,Total,N2,CO2,H2O,Rayleigh,CIA
4.000000000e-01,4.72203e-05,9.99999e-01,9.99999e-01,9.99980e-01,4.72212e-05,9.99999e-01
4.020000000e-01,5.75001e-05,9.99999e-01,9.99999e-01,9.99987e-01,5.75008e-05,9.99999e-01
4.040100000e-01,6.97314e-05,9.99999e-01,9.99999e-01,9.99994e-01,6.97317e-05,9.99999e-01
4.060300500e-01,8.42427e-05,9.99999e-01,9.99999e-01,9.99998e-01,8.42428e-05,9.99999e-01
4.080602003e-01,1.01394e-04,9.99999e-01,9.99999e-01,9.99999e-01,1.01394e-04,9.99999e-01
4.101005013e-01,1.21592e-04,9.99999e-01,9.99999e-01,9.99999e-01,1.21592e-04,9.99999e-01
4.121510038e-01,1.45291e-04,9.99999e-01,9.99999e-01,9.99998e-01,1.45291e-04,9.99999e-01
4.142117588e-01,1.72998e-04,9.99999e-01,9.99999e-01,9.99994e-01,1.72999e-04,9.99999e-01
4.162828176e-01,2.05277e-04,9.99999e-01,9.99999e-01,9.99975e-01,2.05282e-04,9.99999e-01
4.183642317e-01,2.42764e-04,9.99999e-01,9.99999e-01,9.99985e-01,2.42768e-04,9.99999e-01
4.204560528e-01,2.86147e-04,9.99999e-01,9.99999e-01,9.99990e-01,2.86149e-04,9.99999e-01
4.225583331e-01,3.36188e-04,9.99999e-01,9.99999e-01,9.99996e-01,3.36189e-04,9.99999e-01
4.246711247e-01,3.93723e-04,9.99999e-01,9.99999e-01,9.99996e-01,3.93724e-04,9.99999e-01
4.267944804e-01,4.59668e-04,9.99999e-01,9.99999e-01,9.99995e-01,4.59669e-04,9.99999e-01
4.289284528e-01,5.35019e-04,9.99999e-01,9.99999e-01,9.99996e-01,5.35021e-04,9.99999e-01
4.310730950e-01,6.20859e-04,9.99999e-01,9.99999e-01,9.99998e-01,6.20860e-04,9.99999e-01
4.332284605e-01,7.18356e-04,9.99999e-01,9.99999e-01,9.99999e-01,7.18356e-04,9.99999e-01
4.353946028e-01,8.28771e-04,9.99999e-01,9.99999e-01,9.99999e-01,8.28772e-04,9.99999e-01
4.375715758e-01,9.53460e-04,9.99999e-01,9.99999e-01,9.99997e-01,9.53462e-04,9.99999e-01
4.397594337e-01,1.09386e-03,9.99999e-01,9.99999e-01,9.99978e-01,1.09388e-03,9.99999e-01
4.419582309e-01,1.25145e-03,9.99999e-01,9.99999e-01,9.99895e-01,1.25158e-03,9.99999e-01
4.441680220e-01,1.42808e-03,9.99999e-01,9.99999e-01,9.99916e-01,1.42820e-03,9.99999e-01
4.463888621e-01,1.62537e-03,9.99999e-01,9.99999e-01,9.99913e-01,1.62551e-03,9.99999e-01
4.486208064e-01,1.84525e-03,9.99999e-01,9.99999e-01,9.99945e-01,1.84535e-03,9.99999e-01
4.508639105e-01,2.08963e-03,9.99999e-01,9.99999e-01,9.99974e-01,2.08969e-03,9.99999e-01
4.531182300e-01,2.36054e-03,9.99999e-01,9.99999e-01,9.99989e-01,2.36057e-03,9.99999e-01
4.553838212e-01,2.66013e-03,9.99999e-01,9.99999e-01,9.99992e-01,2.66015e-03,9.99999e-01
4.576607403e-01,2.99067e-03,9.99999e-01,9.99999e-01,9.99996e-01,2.99068e-03,9.99999e-01
4.599490440e-01,3.35451e-03,9.99999e-01,9.99999e-01,9.99997e-01,3.35452e-03,9.99999e-01
4.622487892e-01,3.75409e-03,9.99999e-01,9.99999e-01,9.99999e-01,3.75409e-03,9.99999e-01
4.645600332e-01,4.19193e-03,9.99999e-01,9.99999e-01,9.99998e-01,4.19193e-03,9.99999e-01
4.668828333e-01,4.67054e-03,9.99999e-01,9.99999e-01,9.99974e-01,4.67065e-03,9.99999e-01
4.692172475e-01,5.19266e-03,9.99999e-01,9.99999e-01,9.99945e-01,5.19294e-03,9.99999e-01
4.715633337e-01,5.76135e-03,9.99999e-01,9.99999e-01,9.99964e-01,5.76155e-03,9.99999e-01
4.739211504e-01,6.37910e-03,9.99999e-01,9.99999e-01,9.99965e-01,6.37932e-03,9.99999e-01
4.762907561e-01,7.04900e-03,9.99999e-01,9.99999e-01,9.99981e-01,7.04913e-03,9.99999e-01
4.786722099e-01,7.77386e-03,9.99999e-01,9.99999e-01,9.99992e-01,7.77392e-03,9.99999e-01
4.810655710e-01,8.55666e-03,9.99999e-01,9.99999e-01,9.99997e-01,8.55668e-03,9.99999e-01
4.834708988e-01,9.40023e-03,9.99999e-01,9.99999e-01,9.99979e-01,9.40042e-03,9.99999e-01
4.858882533e-01,1.03078e-02,9.99999e-01,9.99999e-01,9.99961e-01,1.03082e-02,9.99999e-01
4.883176946e-01,1.12827e-02,9.99999e-01,9.99999e-01,9.99967e-01,1.12831e-02,9.99999e-01
4.907592831e-01,1.23278e-02,9.99999e-01,9.99999e-01,9.99970e-01,1.23281e-02,9.99999e-01
4.932130795e-01,1.34461e-02,9.99999e-01,9.99999e-01,9.99978e-01,1.34464e-02,9.99999e-01
4.956791449e-01,1.46408e-02,9.99999e-01,9.99999e-01,9.99988e-01,1.46410e-02,9.99999e-01
4.981575406e-01,1.59141e-02,9.99999e-01,9.99999e-01,9.99945e-01,1.59149e-02,9.99999e-01
5.006483283e-01,1.72688e-02,9.99999e-01,9.99999e-01,9.99860e-01,1.72713e-02,9.99998e-01
5.031515699e-01,1.86995e-02,9.99999e-01,9.99999e-01,9.99288e-01,1.87129e-02,9.99992e-01
5.056673278e-01,2.02350e-02,9.99999e-01,9.99999e-01,9.99623e-01,2.02428e-02,9.99990e-01
5.081956644e-01,2.18533e-02,9.99999e-01,9.99999e-01,9.99524e-01,2.18638e-02,9.99993e-01
5.107366428e-01,2.35711e-02,9.99999e-01,9.99999e-01,9.99678e-01,2.35787e-02,9.99998e-01
5.132903260e-01,2.53856e-02,9.99999e-01,9.99999e-01,9.99815e-01,2.53903e-02,9.99999e-01
5.158567776e-01,2.72989e-02,9.99999e-01,9.99999e-01,9.99921e-01,2.73010e-02,9.99999e-01
5.184360615e-01,2.93126e-02,9.99999e-01,9.99999e-01,9.99968e-01,2.93135e-02,9.99999e-01
5.210282418e-01,3.14299e-02,9.99999e-01,9.99999e-01,9.99987e-01,3.14302e-02,9.99999e-01
5.236333830e-01,3.36518e-02,9.99999e-01,9.99999e-01,9.99953e-01,3.36534e-02,9.99999e-01
5.262515499e-01,3.59841e-02,9.99999e-01,9.99999e-01,9.99970e-01,3.59852e-02,9.99999e-01
5.288828077e-01,3.84266e-02,9.99999e-01,9.99999e-01,9.99972e-01,3.84276e-02,9.99999e-01
5.315272217e-01,4.09817e-02,9.99999e-01,9.99999e-01,9.99975e-01,4.09827e-02,9.99999e-01
5.341848578e-01,4.36514e-02,9.99999e-01,9.99999e-01,9.99984e-01,4.36521e-02,9.99999e-01
5.368557821e-01,4.64349e-02,9.99999e-01,9.99999e-01,9.99945e-01,4.64374e-02,9.99999e-01
5.395400610e-01,4.93306e-02,9.99999e-01,9.99999e-01,9.99806e-01,4.93402e-02,9.99997e-01
5.422377613e-01,5.23482e-02,9.99999e-01,9.99999e-01,9.99746e-01,5.23617e-02,9.99994e-01
5.449489501e-01,5.54897e-02,9.99999e-01,9.99999e-01,9.99766e-01,5.55030e-02,9.99994e-01
5.476736949e-01,5.87526e-02,9.99999e-01,9.99999e-01,9.99791e-01,5.87650e-02,9.99997e-01
5.504120634e-01,6.21392e-02,9.99999e-01,9.99999e-01,9.99848e-01,6.21487e-02,9.99998e-01
5.531641237e-01,6.56495e-02,9.99999e-01,9.99999e-01,9.99923e-01,6.56545e-02,9.99999e-01
5.559299443e-01,6.92804e-02,9.99999e-01,9.99999e-01,9.99962e-01,6.92830e-02,9.99999e-01
5.587095940e-01,7.30327e-02,9.99999e-01,9.99999e-01,9.99976e-01,7.30343e-02,9.99999e-01
5.615031420e-01,7.69067e-02,9.99999e-01,9.99999e-01,9.99973e-01,7.69086e-02,9.99999e-01
5.643106577e-01,8.09035e-02,9.99999e-01,9.99999e-01,9.99970e-01,8.09058e-02,9.99999e-01
5.671322110e-01,8.49960e-02,9.99999e-01,9.99999e-01,9.99653e-01,8.50257e-02,9.99996e-01
5.699678720e-01,8.92331e-02,9.99999e-01,9.99999e-01,9.99621e-01,8.92676e-02,9.99989e-01
5.728177114e-01,9.35940e-02,9.99999e-01,9.99999e-01,9.99610e-01,9.36312e-02,9.99991e-01
5.756818000e-01,9.80798e-02,9.99999e-01,9.99999e-01,9.99641e-01,9.81155e-02,9.99994e-01
5.785602090e-01,1.02687e-01,9.99999e-01,9.99999e-01,9.99686e-01,1.02720e-01,9.99998e-01
5.814530100e-01,1.07409e-01,9.99999e-01,9.99999e-01,9.99686e-01,1.07442e-01,9.99998e-01
5.843602750e-01,1.12241e-01,9.99999e-01,9.99999e-01,9.99628e-01,1.12282e-01,9.99997e-01
5.872820764e-01,1.16861e-01,9.99999e-01,9.99999e-01,9.96800e-01,1.17239e-01,9.99976e-01
5.902184868e-01,1.21824e-01,9.99999e-01,9.99999e-01,9.96091e-01,1.22309e-01,9.99937e-01
5.931695792e-01,1.27133e-01,9.99999e-01,9.99999e-01,9.97245e-01,1.27492e-01,9.99939e-01
5.961354271e-01,1.32380e-01,9.99999e-01,9.99999e-01,9.96974e-01,1.32786e-01,9.99963e-01
5.991161043e-01,1.37882e-01,9.99999e-01,9.99999e-01,9.97790e-01,1.38189e-01,9.99988e-01
6.021116848e-01,1.43517e-01,9.99999e-01,9.99999e-01,9.98744e-01,1.43698e-01,9.99998e-01
6.051222432e-01,1.49216e-01,9.99999e-01,9.99999e-01,9.99364e-01,1.49311e-01,9.99999e-01
6.081478544e-01,1.54984e-01,9.99999e-01,9.99999e-01,9.99725e-01,1.55027e-01,9.99999e-01
6.111885937e-01,1.60823e-01,9.99999e-01,9.99999e-01,9.99883e-01,1.60841e-01,9.99999e-01
6.142445367e-01,1.66744e-01,9.99999e-01,9.99999e-01,9.99947e-01,1.66753e-01,9.99999e-01
6.173157594e-01,1.72754e-01,9.99999e-01,9.99999e-01,9.99971e-01,1.72759e-01,9.99999e-01
6.204023382e-01,1.78851e-01,9.99999e-01,9.99999e-01,9.99975e-01,1.78855e-01,9.99999e-01
6.235043498e-01,1.85021e-01,9.99999e-01,9.99999e-01,9.99895e-01,1.85041e-01,9.99999e-01
6.266218716e-01,1.91203e-01,9.99999e-01,9.99999e-01,9.99438e-01,1.91311e-01,9.99995e-01
6.297549810e-01,1.97622e-01,9.99999e-01,9.99999e-01,9.99793e-01,1.97664e-01,9.99991e-01
6.329037559e-01,2.04012e-01,9.99999e-01,9.99999e-01,9.99591e-01,2.04096e-01,9.99993e-01
6.360682746e-01,2.10531e-01,9.99999e-01,9.99999e-01,9.99653e-01,2.10604e-01,9.99995e-01
6.392486160e-01,2.17087e-01,9.99999e-01,9.99999e-01,9.99550e-01,2.17185e-01,9.99997e-01
6.424448591e-01,2.23702e-01,9.99999e-01,9.99999e-01,9.99403e-01,2.23836e-01,9.99996e-01
6.456570834e-01,2.29911e-01,9.99999e-01,9.99999e-01,9.97230e-01,2.30553e-01,9.99984e-01
6.488853688e-01,2.36752e-01,9.99999e-01,9.99999e-01,9.97596e-01,2.37332e-01,9.99956e-01
6.521297956e-01,2.43653e-01,9.99999e-01,9.99999e-01,9.97912e-01,2.44172e-01,9.99963e-01
6.553904446e-01,2.50543e-01,9.99999e-01,9.99999e-01,9.97938e-01,2.51067e-01,9.99972e-01
6.586673968e-01,2.57553e-01,9.99999e-01,9.99999e-01,9.98218e-01,2.58015e-01,9.99990e-01
6.619607338e-01,2.64740e-01,9.99999e-01,9.99999e-01,9.98970e-01,2.65013e-01,9.99997e-01
6.652705375e-01,2.71894e-01,9.99999e-01,9.99999e-01,9.99402e-01,2.72056e-01,9.99998e-01
6.685968902e-01,2.79065e-01,9.99999e-01,9.99999e-01,9.99722e-01,2.79142e-01,9.99999e-01
6.719398746e-01,2.86231e-01,9.99999e-01,9.99999e-01,9.99870e-01,2.86267e-01,9.99999e-01
6.752995740e-01,2.93408e-01,9.99999e-01,9.99999e-01,9.99930e-01,2.93428e-01,9.99999e-01
6.786760719e-01,3.00592e-01,9.99999e-01,9.99999e-01,9.99899e-01,3.00622e-01,9.99999e-01
6.820694522e-01,3.07791e-01,9.99999e-01,9.99999e-01,9.99828e-01,3.07844e-01,9.99998e-01
6.854797995e-01,3.15022e-01,9.99999e-01,9.99999e-01,9.99779e-01,3.15092e-01,9.99997e-01
6.889071985e-01,3.22191e-01,9.99999e-01,9.99999e-01,9.99473e-01,3.22362e-01,9.99994e-01
6.923517345e-01,3.26783e-01,9.99999e-01,9.99999e-01,9.91337e-01,3.29652e-01,9.99957e-01
6.958134932e-01,3.35377e-01,9.99999e-01,9.99999e-01,9.95402e-01,3.36958e-01,9.99905e-01
6.992925606e-01,3.42772e-01,9.99999e-01,9.99999e-01,9.95712e-01,3.44276e-01,9.99916e-01
7.027890234e-01,3.49708e-01,9.99999e-01,9.99999e-01,9.94669e-01,3.51604e-01,9.99935e-01
7.063029686e-01,3.57320e-01,9.99999e-01,9.99999e-01,9.95521e-01,3.58939e-01,9.99967e-01
7.098344834e-01,3.64697e-01,9.99999e-01,9.99999e-01,9.95702e-01,3.66277e-01,9.99980e-01
7.133836558e-01,3.71489e-01,9.99999e-01,9.99999e-01,9.94342e-01,3.73616e-01,9.99962e-01
7.169505741e-01,3.63706e-01,9.99999e-01,9.99999e-01,9.55007e-01,3.80953e-01,9.99706e-01
7.205353270e-01,3.79300e-01,9.99999e-01,9.99999e-01,9.77365e-01,3.88285e-01,9.99482e-01
7.241380036e-01,3.84258e-01,9.99999e-01,9.99999e-01,9.71742e-01,3.95609e-01,9.99552e-01
7.277586936e-01,3.92481e-01,9.99999e-01,9.99999e-01,9.74443e-01,4.02922e-01,9.99634e-01
7.313974871e-01,3.98954e-01,9.99999e-01,9.99999e-01,9.72697e-01,4.10222e-01,9.99828e-01
7.350544745e-01,4.11231e-01,9.99999e-01,9.99999e-01,9.85028e-01,4.17506e-01,9.99940e-01
7.387297469e-01,4.20070e-01,9.99999e-01,9.99999e-01,9.88958e-01,4.24771e-01,9.99972e-01
7.424233956e-01,4.29670e-01,9.99999e-01,9.99999e-01,9.94573e-01,4.32016e-01,9.99994e-01
7.461355126e-01,4.37794e-01,9.99999e-01,9.99999e-01,9.96714e-01,4.39238e-01,9.99998e-01
7.498661902e-01,4.45749e-01,9.99999e-01,9.99999e-01,9.98465e-01,4.46434e-01,9.99999e-01
7.536155211e-01,4.53262e-01,9.99999e-01,9.99999e-01,9.99249e-01,4.53603e-01,9.99999e-01
7.573835987e-01,4.60563e-01,9.99999e-01,9.99999e-01,9.99612e-01,4.60741e-01,9.99999e-01
7.611705167e-01,4.67736e-01,9.99999e-01,9.99999e-01,9.99759e-01,4.67848e-01,9.99999e-01
7.649763693e-01,4.74849e-01,9.99999e-01,9.99999e-01,9.99849e-01,4.74920e-01,9.99999e-01
7.688012511e-01,4.81907e-01,9.99999e-01,9.99999e-01,9.99894e-01,4.81957e-01,9.99999e-01
7.726452574e-01,4.88914e-01,9.99999e-01,9.99999e-01,9.99913e-01,4.88956e-01,9.99999e-01
7.765084837e-01,4.95855e-01,9.99999e-01,9.99999e-01,9.99878e-01,4.95915e-01,9.99999e-01
7.803910261e-01,4.87079e-01,9.99999e-01,9.69160e-01,9.99476e-01,5.02833e-01,9.99998e-01
7.842929812e-01,4.40683e-01,9.99999e-01,8.66090e-01,9.98172e-01,5.09708e-01,9.99996e-01
7.882144461e-01,4.41592e-01,9.99999e-01,8.58058e-01,9.96208e-01,5.16538e-01,9.99976e-01
7.921555184e-01,4.77727e-01,9.99999e-01,9.14783e-01,9.97909e-01,5.23323e-01,9.99954e-01
7.961162960e-01,4.97354e-01,9.99999e-01,9.41749e-01,9.96344e-01,5.30059e-01,9.99956e-01
8.000968774e-01,5.17375e-01,9.99999e-01,9.68046e-01,9.95757e-01,5.36747e-01,9.99953e-01
8.040973618e-01,5.32008e-01,9.99999e-01,9.83258e-01,9.95761e-01,5.43385e-01,9.99963e-01
8.081178486e-01,5.40559e-01,9.99999e-01,9.92311e-01,9.90521e-01,5.49971e-01,9.99965e-01
8.121584379e-01,5.33424e-01,9.99999e-01,9.97601e-01,9.60937e-01,5.56505e-01,9.99865e-01
8.162192301e-01,5.36175e-01,9.99999e-01,9.99469e-01,9.53355e-01,5.62984e-01,9.99496e-01
8.203003262e-01,5.55884e-01,9.99999e-01,9.99990e-01,9.76828e-01,5.69409e-01,9.99410e-01
8.244018279e-01,5.56509e-01,9.99999e-01,9.99999e-01,9.66985e-01,5.75779e-01,9.99530e-01
8.285238370e-01,5.65635e-01,9.99999e-01,9.99999e-01,9.72086e-01,5.82091e-01,9.99631e-01
8.326664562e-01,5.71594e-01,9.99999e-01,9.99999e-01,9.71674e-01,5.88346e-01,9.99847e-01
8.368297885e-01,5.82437e-01,9.99999e-01,9.99999e-01,9.79671e-01,5.94543e-01,9.99964e-01
8.410139374e-01,5.93385e-01,9.99999e-01,9.99999e-01,9.87872e-01,6.00681e-01,9.99979e-01
8.452190071e-01,6.03131e-01,9.99999e-01,9.99999e-01,9.94031e-01,6.06759e-01,9.99987e-01
8.494451021e-01,6.10655e-01,9.99999e-01,9.99999e-01,9.96546e-01,6.12777e-01,9.99989e-01
8.536923276e-01,6.17461e-01,9.99999e-01,9.99999e-01,9.97949e-01,6.18733e-01,9.99993e-01
8.579607893e-01,6.23841e-01,9.99999e-01,9.99999e-01,9.98740e-01,6.24628e-01,9.99997e-01
8.622505932e-01,6.29956e-01,9.99999e-01,9.99999e-01,9.99198e-01,6.30462e-01,9.99999e-01
8.665618462e-01,5.91550e-01,9.99999e-01,9.30212e-01,9.99505e-01,6.36233e-01,9.99999e-01
8.708946554e-01,4.45841e-01,9.99999e-01,6.94898e-01,9.99435e-01,6.41941e-01,9.99999e-01
8.752491287e-01,4.82309e-01,9.99999e-01,7.45327e-01,9.99243e-01,6.47586e-01,9.99998e-01
8.796253743e-01,5.55218e-01,9.99999e-01,8.50904e-01,9.98955e-01,6.53168e-01,9.99997e-01
8.840235012e-01,6.05128e-01,9.99999e-01,9.19778e-01,9.98806e-01,6.58686e-01,9.99992e-01
8.884436187e-01,6.39798e-01,9.99999e-01,9.67470e-01,9.95718e-01,6.64141e-01,9.99978e-01
8.928858368e-01,6.31046e-01,9.99999e-01,9.86732e-01,9.55203e-01,6.69531e-01,9.99880e-01
8.973502660e-01,6.19452e-01,9.99999e-01,9.96742e-01,9.21406e-01,6.74858e-01,9.99387e-01
9.018370173e-01,6.51250e-01,9.99999e-01,9.99639e-01,9.58808e-01,6.80120e-01,9.99036e-01
9.063462024e-01,6.54495e-01,9.99999e-01,9.91067e-01,9.64190e-01,6.85319e-01,9.99153e-01
9.108779334e-01,6.38108e-01,9.99999e-01,9.79171e-01,9.44445e-01,6.90453e-01,9.99120e-01
9.154323231e-01,6.48085e-01,9.99999e-01,9.95030e-01,9.37034e-01,6.95523e-01,9.99273e-01
9.200094847e-01,6.21345e-01,9.99999e-01,9.31449e-01,9.50218e-01,7.00529e-01,9.99592e-01
9.246095321e-01,5.89132e-01,9.99999e-01,9.02172e-01,9.24480e-01,7.05472e-01,9.99531e-01
9.292325798e-01,3.88117e-01,9.99999e-01,9.23163e-01,5.88227e-01,7.10350e-01,9.98173e-01
9.338787427e-01,3.31794e-01,9.99999e-01,9.24993e-01,5.01343e-01,7.15165e-01,9.92473e-01
9.385481364e-01,5.11483e-01,9.99999e-01,9.44350e-01,7.56723e-01,7.19916e-01,9.91054e-01
9.432408771e-01,4.73567e-01,9.99999e-01,9.65458e-01,6.80948e-01,7.24605e-01,9.92278e-01
9.479570815e-01,4.19673e-01,9.99999e-01,9.82178e-01,5.89110e-01,7.29230e-01,9.93710e-01
9.526968669e-01,4.86069e-01,9.99999e-01,9.91353e-01,6.70260e-01,7.33792e-01,9.96159e-01
9.574603512e-01,5.08404e-01,9.99999e-01,9.96292e-01,6.92374e-01,7.38292e-01,9.98046e-01
9.622476530e-01,5.48887e-01,9.99999e-01,9.98841e-01,7.40821e-01,7.42730e-01,9.98648e-01
9.670588912e-01,6.27848e-01,9.99999e-01,9.99651e-01,8.41428e-01,7.47107e-01,9.99075e-01
9.718941857e-01,6.74176e-01,9.99999e-01,9.99974e-01,8.97831e-01,7.51422e-01,9.99319e-01
9.767536566e-01,6.90673e-01,9.99999e-01,9.99999e-01,9.14456e-01,7.55675e-01,9.99479e-01
9.816374249e-01,7.10920e-01,9.99999e-01,9.99999e-01,9.35751e-01,7.59868e-01,9.99819e-01
9.865456120e-01,7.32924e-01,9.99999e-01,9.99999e-01,9.59358e-01,7.64001e-01,9.99962e-01
9.914783401e-01,7.48636e-01,9.99999e-01,9.99999e-01,9.74701e-01,7.68074e-01,9.99989e-01
9.964357318e-01,7.61384e-01,9.99999e-01,9.99999e-01,9.86141e-01,7.72088e-01,9.99993e-01
1.001417910e+00,7.69572e-01,9.99999e-01,9.99999e-01,9.91670e-01,7.76043e-01,9.99990e-01
1.006425000e+00,7.76227e-01,9.99999e-01,9.99999e-01,9.95253e-01,7.79939e-01,9.99986e-01
1.011457125e+00,7.81452e-01,9.99999e-01,9.99999e-01,9.97044e-01,7.83777e-01,9.99987e-01
1.016514411e+00,7.85973e-01,9.99999e-01,9.99999e-01,9.97995e-01,7.87558e-01,9.99990e-01
1.021596983e+00,7.89978e-01,9.99999e-01,9.99956e-01,9.98403e-01,7.91282e-01,9.99990e-01
1.026704968e+00,7.91196e-01,9.99999e-01,9.96521e-01,9.98755e-01,7.94950e-01,9.99993e-01
1.031838492e+00,7.66155e-01,9.99999e-01,9.60266e-01,9.99093e-01,7.98561e-01,9.99997e-01
1.036997685e+00,1.30318e-01,9.99999e-01,1.62537e-01,9.99462e-01,8.02117e-01,9.99999e-01
1.042182673e+00,1.06831e-01,9.99999e-01,1.32683e-01,9.99361e-01,8.05618e-01,9.99999e-01
1.047393587e+00,1.25392e-01,9.99999e-01,1.55101e-01,9.99151e-01,8.09065e-01,9.99999e-01
1.052630555e+00,4.11012e-03,9.99999e-01,5.06321e-03,9.98837e-01,8.12458e-01,9.99999e-01
1.057893707e+00,1.00425e-02,9.99999e-01,1.23263e-02,9.98062e-01,8.15798e-01,9.99998e-01
1.063183176e+00,3.21452e-02,9.99999e-01,3.93360e-02,9.96809e-01,8.19085e-01,9.99997e-01
1.068499092e+00,8.74193e-02,9.99999e-01,1.06792e-01,9.94655e-01,8.22320e-01,9.99995e-01
1.073841587e+00,1.99023e-01,9.99999e-01,2.42389e-01,9.93757e-01,8.25504e-01,9.99991e-01
1.079210795e+00,3.35445e-01,9.99999e-01,4.07817e-01,9.91982e-01,8.28637e-01,9.99978e-01
1.084606849e+00,5.01569e-01,9.99999e-01,6.10136e-01,9.87904e-01,8.31719e-01,9.99948e-01
1.090029883e+00,6.35174e-01,9.99999e-01,7.74002e-01,9.82754e-01,8.34752e-01,9.99892e-01
1.095480033e+00,7.04245e-01,9.99999e-01,8.81284e-01,9.53614e-01,8.37735e-01,9.99806e-01
1.100957433e+00,7.01267e-01,9.99999e-01,9.40956e-01,8.86308e-01,8.40670e-01,9.99644e-01
1.106462220e+00,6.05949e-01,9.99999e-01,9.75124e-01,7.36472e-01,8.43557e-01,9.99397e-01
1.111994531e+00,4.39471e-01,9.99999e-01,9.90708e-01,5.24604e-01,8.46396e-01,9.98401e-01
1.117554504e+00,2.97053e-01,9.99999e-01,9.97714e-01,3.52496e-01,8.49189e-01,9.94240e-01
1.123142276e+00,3.90868e-01,9.99999e-01,9.99848e-01,4.65162e-01,8.51936e-01,9.86395e-01
1.128757988e+00,5.15011e-01,9.99999e-01,9.99999e-01,6.12232e-01,8.54636e-01,9.84279e-01
1.134401778e+00,2.95106e-01,9.99999e-01,9.99999e-01,3.48900e-01,8.57292e-01,9.86616e-01
1.140073787e+00,6.34453e-01,9.99999e-01,9.99999e-01,7.45804e-01,8.59904e-01,9.89292e-01
1.145774156e+00,4.63373e-01,9.99999e-01,9.99999e-01,5.42581e-01,8.62471e-01,9.90194e-01
1.151503026e+00,4.36050e-01,9.99999e-01,9.99999e-01,5.06881e-01,8.64995e-01,9.94525e-01
1.157260541e+00,4.89799e-01,9.99999e-01,9.99999e-01,5.65551e-01,8.67477e-01,9.98359e-01
1.163046844e+00,5.69933e-01,9.99999e-01,9.99999e-01,6.55463e-01,8.69916e-01,9.99534e-01
1.168862078e+00,6.50042e-01,9.99999e-01,9.99999e-01,7.45371e-01,8.72314e-01,9.99759e-01
1.174706389e+00,7.29399e-01,9.99999e-01,9.99999e-01,8.34177e-01,8.74671e-01,9.99681e-01
1.180579921e+00,7.84882e-01,9.99999e-01,9.99999e-01,8.95405e-01,8.76987e-01,9.99519e-01
1.186482820e+00,8.25692e-01,9.99999e-01,9.99994e-01,9.39537e-01,8.79264e-01,9.99506e-01
1.192415234e+00,8.39369e-01,9.99999e-01,9.87693e-01,9.64294e-01,8.81502e-01,9.99630e-01
1.198377311e+00,4.85489e-01,9.99999e-01,5.63820e-01,9.69871e-01,8.83701e-01,9.99650e-01
1.204369197e+00,9.58502e-11,9.99999e-01,1.10059e-10,9.71441e-01,8.85861e-01,9.99684e-01
1.210391043e+00,1.01225e-38,9.99999e-01,1.15782e-38,9.72668e-01,8.87985e-01,9.99807e-01
1.216442998e+00,1.01959e-33,9.99999e-01,1.16246e-33,9.76657e-01,8.90071e-01,9.99881e-01
1.222525213e+00,3.11697e-33,9.99999e-01,3.52727e-33,9.81797e-01,8.92120e-01,9.99926e-01
1.228637839e+00,9.77425e-26,9.99999e-01,1.10289e-25,9.87335e-01,8.94134e-01,9.99965e-01
