#,Wave/freq,Total,N2,CO2,H2O,Rayleigh,CIA
4.000000000e-01,1.14273e-03,9.99999e-01,9.99999e-01,9.99986e-01,1.14275e-03,9.99999e-01
4.020000000e-01,1.30653e-03,9.99999e-01,9.99999e-01,9.99991e-01,1.30654e-03,9.99999e-01
4.040100000e-01,1.48965e-03,9.99999e-01,9.99999e-01,9.99996e-01,1.48966e-03,9.99999e-01
4.060300500e-01,1.69405e-03,9.99999e-01,9.99999e-01,9.99998e-01,1.69405e-03,9.99999e-01
4.080602003e-01,1.92159e-03,9.99999e-01,9.99999e-01,9.99999e-01,1.92159e-03,9.99999e-01
4.101005013e-01,2.17428e-03,9.99999e-01,9.99999e-01,9.99999e-01,2.17428e-03,9.99999e-01
4.121510038e-01,2.45420e-03,9.99999e-01,9.99999e-01,9.99999e-01,2.45420e-03,9.99999e-01
4.142117588e-01,2.76353e-03,9.99999e-01,9.99999e-01,9.99995e-01,2.76354e-03,9.99999e-01
4.162828176e-01,3.10453e-03,9.99999e-01,9.99999e-01,9.99983e-01,3.10458e-03,9.99999e-01
4.183642317e-01,3.47967e-03,9.99999e-01,9.99999e-01,9.99989e-01,3.47970e-03,9.99999e-01
4.204560528e-01,3.89135e-03,9.99999e-01,9.99999e-01,9.99993e-01,3.89137e-03,9.99999e-01
4.225583331e-01,4.34214e-03,9.99999e-01,9.99999e-01,9.99997e-01,4.34215e-03,9.99999e-01
4.246711247e-01,4.83465e-03,9.99999e-01,9.99999e-01,9.99997e-01,4.83466e-03,9.99999e-01
4.267944804e-01,5.37160e-03,9.99999e-01,9.99999e-01,9.99996e-01,5.37162e-03,9.99999e-01
4.289284528e-01,5.95580e-03,9.99999e-01,9.99999e-01,9.99997e-01,5.95582e-03,9.99999e-01
4.310730950e-01,6.59009e-03,9.99999e-01,9.99999e-01,9.99998e-01,6.59009e-03,9.99999e-01
4.332284605e-01,7.27736e-03,9.99999e-01,9.99999e-01,9.99999e-01,7.27736e-03,9.99999e-01
4.353946028e-01,8.02057e-03,9.99999e-01,9.99999e-01,9.99999e-01,8.02057e-03,9.99999e-01
4.375715758e-01,8.82270e-03,9.99999e-01,9.99999e-01,9.99997e-01,8.82272e-03,9.99999e-01
4.397594337e-01,9.68670e-03,9.99999e-01,9.99999e-01,9.99985e-01,9.68683e-03,9.99999e-01
4.419582309e-01,1.06152e-02,9.99999e-01,9.99999e-01,9.99928e-01,1.06160e-02,9.99999e-01
4.441680220e-01,1.16125e-02,9.99999e-01,9.99999e-01,9.99943e-01,1.16132e-02,9.99999e-01
4.463888621e-01,1.26809e-02,9.99999e-01,9.99999e-01,9.99941e-01,1.26816e-02,9.99999e-01
4.486208064e-01,1.38237e-02,9.99999e-01,9.99999e-01,9.99963e-01,1.38242e-02,9.99999e-01
4.508639105e-01,1.50439e-02,9.99999e-01,9.99999e-01,9.99982e-01,1.50442e-02,9.99999e-01
4.531182300e-01,1.63443e-02,9.99999e-01,9.99999e-01,9.99992e-01,1.63444e-02,9.99999e-01
4.553838212e-01,1.77279e-02,9.99999e-01,9.99999e-01,9.99994e-01,1.77280e-02,9.99999e-01
4.576607403e-01,1.91978e-02,9.99999e-01,9.99999e-01,9.99997e-01,1.91979e-02,9.99999e-01
4.599490440e-01,2.07569e-02,9.99999e-01,9.99999e-01,9.99998e-01,2.07569e-02,9.99999e-01
4.622487892e-01,2.24080e-02,9.99999e-01,9.99999e-01,9.99999e-01,2.24080e-02,9.99999e-01
4.645600332e-01,2.41538e-02,9.99999e-01,9.99999e-01,9.99998e-01,2.41539e-02,9.99999e-01
4.668828333e-01,2.59968e-02,9.99999e-01,9.99999e-01,9.99982e-01,2.59972e-02,9.99999e-01
4.692172475e-01,2.79396e-02,9.99999e-01,9.99999e-01,9.99962e-01,2.79406e-02,9.99999e-01
4.715633337e-01,2.99858e-02,9.99999e-01,9.99999e-01,9.99975e-01,2.99866e-02,9.99999e-01
4.739211504e-01,3.21367e-02,9.99999e-01,9.99999e-01,9.99976e-01,3.21374e-02,9.99999e-01
4.762907561e-01,3.43951e-02,9.99999e-01,9.99999e-01,9.99987e-01,3.43955e-02,9.99999e-01
4.786722099e-01,3.67627e-02,9.99999e-01,9.99999e-01,9.99994e-01,3.67628e-02,9.99999e-01
4.810655710e-01,3.92415e-02,9.99999e-01,9.99999e-01,9.99998e-01,3.92415e-02,9.99999e-01
4.834708988e-01,4.18328e-02,9.99999e-01,9.99999e-01,9.99985e-01,4.18334e-02,9.99999e-01
4.858882533e-01,4.45389e-02,9.99999e-01,9.99999e-01,9.99973e-01,4.45401e-02,9.99999e-01
4.883176946e-01,4.73622e-02,9.99999e-01,9.99999e-01,9.99977e-01,4.73633e-02,9.99999e-01
4.907592831e-01,5.03033e-02,9.99999e-01,9.99999e-01,9.99979e-01,5.03043e-02,9.99999e-01
4.932130795e-01,5.33636e-02,9.99999e-01,9.99999e-01,9.99985e-01,5.33644e-02,9.99999e-01
4.956791449e-01,5.65442e-02,9.99999e-01,9.99999e-01,9.99992e-01,5.65446e-02,9.99999e-01
4.981575406e-01,5.98437e-02,9.99999e-01,9.99999e-01,9.99962e-01,5.98459e-02,9.99999e-01
5.006483283e-01,6.32630e-02,9.99999e-01,9.99999e-01,9.99904e-01,6.32690e-02,9.99998e-01
5.031515699e-01,6.67818e-02,9.99999e-01,9.99999e-01,9.99515e-01,6.68145e-02,9.99994e-01
5.056673278e-01,7.04642e-02,9.99999e-01,9.99999e-01,9.99743e-01,7.04827e-02,9.99993e-01
5.081956644e-01,7.42495e-02,9.99999e-01,9.99999e-01,9.99676e-01,7.42738e-02,9.99995e-01
5.107366428e-01,7.81708e-02,9.99999e-01,9.99999e-01,9.99781e-01,7.81879e-02,9.99998e-01
5.132903260e-01,8.22145e-02,9.99999e-01,9.99999e-01,9.99874e-01,8.22248e-02,9.99999e-01
5.158567776e-01,8.63796e-02,9.99999e-01,9.99999e-01,9.99946e-01,8.63841e-02,9.99999e-01
5.184360615e-01,9.06636e-02,9.99999e-01,9.99999e-01,9.99978e-01,9.06655e-02,9.99999e-01
5.210282418e-01,9.50674e-02,9.99999e-01,9.99999e-01,9.99991e-01,9.50682e-02,9.99999e-01
5.236333830e-01,9.95882e-02,9.99999e-01,9.99999e-01,9.99967e-01,9.95913e-02,9.99999e-01
5.262515499e-01,1.04232e-01,9.99999e-01,9.99999e-01,9.99979e-01,1.04234e-01,9.99999e-01
5.288828077e-01,1.08993e-01,9.99999e-01,9.99999e-01,9.99981e-01,1.08995e-01,9.99999e-01
5.315272217e-01,1.13871e-01,9.99999e-01,9.99999e-01,9.99983e-01,1.13873e-01,9.99999e-01
5.341848578e-01,1.18865e-01,9.99999e-01,9.99999e-01,9.99989e-01,1.18866e-01,9.99999e-01
5.368557821e-01,1.23969e-01,9.99999e-01,9.99999e-01,9.99962e-01,1.23973e-01,9.99999e-01
5.395400610e-01,1.29175e-01,9.99999e-01,9.99999e-01,9.99867e-01,1.29192e-01,9.99998e-01
5.422377613e-01,1.34498e-01,9.99999e-01,9.99999e-01,9.99827e-01,1.34521e-01,9.99996e-01
5.449489501e-01,1.39936e-01,9.99999e-01,9.99999e-01,9.99840e-01,1.39959e-01,9.99996e-01
5.476736949e-01,1.45481e-01,9.99999e-01,9.99999e-01,9.99857e-01,1.45502e-01,9.99997e-01
5.504120634e-01,1.51133e-01,9.99999e-01,9.99999e-01,9.99896e-01,1.51149e-01,9.99999e-01
5.531641237e-01,1.56888e-01,9.99999e-01,9.99999e-01,9.99947e-01,1.56896e-01,9.99999e-01
5.559299443e-01,1.62739e-01,9.99999e-01,9.99999e-01,9.99974e-01,1.62743e-01,9.99999e-01
5.587095940e-01,1.68682e-01,9.99999e-01,9.99999e-01,9.99983e-01,1.68685e-01,9.99999e-01
5.615031420e-01,1.74717e-01,9.99999e-01,9.99999e-01,9.99982e-01,1.74720e-01,9.99999e-01
5.643106577e-01,1.80843e-01,9.99999e-01,9.99999e-01,9.99979e-01,1.80846e-01,9.99999e-01
5.671322110e-01,1.87014e-01,9.99999e-01,9.99999e-01,9.99762e-01,1.87059e-01,9.99997e-01
5.699678720e-01,1.93306e-01,9.99999e-01,9.99999e-01,9.99743e-01,1.93357e-01,9.99992e-01
5.728177114e-01,1.99682e-01,9.99999e-01,9.99999e-01,9.99734e-01,1.99736e-01,9.99994e-01
5.756818000e-01,2.06142e-01,9.99999e-01,9.99999e-01,9.99755e-01,2.06193e-01,9.99996e-01
5.785602090e-01,2.12679e-01,9.99999e-01,9.99999e-01,9.99786e-01,2.12725e-01,9.99998e-01
5.814530100e-01,2.19282e-01,9.99999e-01,9.99999e-01,9.99786e-01,2.19329e-01,9.99999e-01
5.843602750e-01,2.25943e-01,9.99999e-01,9.99999e-01,9.99746e-01,2.26001e-01,9.99998e-01
5.872820764e-01,2.32227e-01,9.99999e-01,9.99999e-01,9.97815e-01,2.32738e-01,9.99984e-01
5.902184868e-01,2.38891e-01,9.99999e-01,9.99999e-01,9.97341e-01,2.39538e-01,9.99957e-01
5.931695792e-01,2.45924e-01,9.99999e-01,9.99999e-01,9.98124e-01,2.46396e-01,9.99958e-01
5.961354271e-01,2.52781e-01,9.99999e-01,9.99999e-01,9.97941e-01,2.53308e-01,9.99974e-01
5.991161043e-01,2.59880e-01,9.99999e-01,9.99999e-01,9.98498e-01,2.60273e-01,9.99992e-01
6.021116848e-01,2.67058e-01,9.99999e-01,9.99999e-01,9.99146e-01,2.67286e-01,9.99998e-01
6.051222432e-01,2.74225e-01,9.99999e-01,9.99999e-01,9.99568e-01,2.74343e-01,9.99999e-01
6.081478544e-01,2.81390e-01,9.99999e-01,9.99999e-01,9.99813e-01,2.81442e-01,9.99999e-01
6.111885937e-01,2.88557e-01,9.99999e-01,9.99999e-01,9.99920e-01,2.88579e-01,9.99999e-01
6.142445367e-01,2.95741e-01,9.99999e-01,9.99999e-01,9.99964e-01,2.95751e-01,9.99999e-01
6.173157594e-01,3.02948e-01,9.99999e-01,9.99999e-01,9.99980e-01,3.02954e-01,9.99999e-01
6.204023382e-01,3.10180e-01,9.99999e-01,9.99999e-01,9.99983e-01,3.10185e-01,9.99999e-01
6.235043498e-01,3.17418e-01,9.99999e-01,9.99999e-01,9.99928e-01,3.17441e-01,9.99999e-01
6.266218716e-01,3.24593e-01,9.99999e-01,9.99999e-01,9.99617e-01,3.24718e-01,9.99996e-01
6.297549810e-01,3.31965e-01,9.99999e-01,9.99999e-01,9.99859e-01,3.32013e-01,9.99994e-01
6.329037559e-01,3.39228e-01,9.99999e-01,9.99999e-01,9.99722e-01,3.39323e-01,9.99995e-01
6.360682746e-01,3.46563e-01,9.99999e-01,9.99999e-01,9.99764e-01,3.46645e-01,9.99996e-01
6.392486160e-01,3.53867e-01,9.99999e-01,9.99999e-01,9.99694e-01,3.53976e-01,9.99998e-01
6.424448591e-01,3.61164e-01,9.99999e-01,9.99999e-01,9.99592e-01,3.61312e-01,9.99997e-01
6.456570834e-01,3.67950e-01,9.99999e-01,9.99999e-01,9.98109e-01,3.68651e-01,9.99989e-01
6.488853688e-01,3.75455e-01,9.99999e-01,9.99999e-01,9.98607e-01,3.75989e-01,9.99970e-01
6.521297956e-01,3.82771e-01,9.99999e-01,9.99999e-01,9.98579e-01,3.83325e-01,9.99974e-01
6.553904446e-01,3.90099e-01,9.99999e-01,9.99999e-01,9.98596e-01,3.90654e-01,9.99981e-01
6.586673968e-01,3.97491e-01,9.99999e-01,9.99999e-01,9.98789e-01,3.97975e-01,9.99993e-01
6.619607338e-01,4.05000e-01,9.99999e-01,9.99999e-01,9.99300e-01,4.05284e-01,9.99998e-01
6.652705375e-01,4.12412e-01,9.99999e-01,9.99999e-01,9.99594e-01,4.12579e-01,9.99998e-01
6.685968902e-01,4.19778e-01,9.99999e-01,9.99999e-01,9.99811e-01,4.19858e-01,9.99999e-01
6.719398746e-01,4.27079e-01,9.99999e-01,9.99999e-01,9.99912e-01,4.27117e-01,9.99999e-01
6.752995740e-01,4.34334e-01,9.99999e-01,9.99999e-01,9.99952e-01,4.34354e-01,9.99999e-01
6.786760719e-01,4.41538e-01,9.99999e-01,9.99999e-01,9.99931e-01,4.41568e-01,9.99999e-01
6.820694522e-01,4.48703e-01,9.99999e-01,9.99999e-01,9.99883e-01,4.48756e-01,9.99998e-01
6.854797995e-01,4.55846e-01,9.99999e-01,9.99999e-01,9.99849e-01,4.55915e-01,9.99998e-01
6.889071985e-01,4.62875e-01,9.99999e-01,9.99999e-01,9.99639e-01,4.63043e-01,9.99996e-01
6.923517345e-01,4.67344e-01,9.99999e-01,9.99999e-01,9.94083e-01,4.70139e-01,9.99971e-01
6.958134932e-01,4.75684e-01,9.99999e-01,9.99999e-01,9.96885e-01,4.77200e-01,9.99935e-01
6.992925606e-01,4.82781e-01,9.99999e-01,9.99999e-01,9.97074e-01,4.84225e-01,9.99943e-01
7.027890234e-01,4.89408e-01,9.99999e-01,9.99999e-01,9.96372e-01,4.91211e-01,9.99956e-01
7.063029686e-01,4.96628e-01,9.99999e-01,9.99999e-01,9.96952e-01,4.98157e-01,9.99977e-01
7.098344834e-01,5.03578e-01,9.99999e-01,9.99999e-01,9.97075e-01,5.05061e-01,9.99986e-01
7.133836558e-01,5.09927e-01,9.99999e-01,9.99999e-01,9.96128e-01,5.11922e-01,9.99974e-01
7.169505741e-01,5.02579e-01,9.99999e-01,9.99999e-01,9.69042e-01,5.18738e-01,9.99800e-01
7.205353270e-01,5.17232e-01,9.99999e-01,9.99999e-01,9.84600e-01,5.25507e-01,9.99647e-01
7.241380036e-01,5.21770e-01,9.99999e-01,9.99999e-01,9.80648e-01,5.32228e-01,9.99695e-01
7.277586936e-01,5.29344e-01,9.99999e-01,9.99999e-01,9.82512e-01,5.38899e-01,9.99751e-01
7.313974871e-01,5.35293e-01,9.99999e-01,9.99999e-01,9.81365e-01,5.45520e-01,9.99883e-01
7.350544745e-01,5.46436e-01,9.99999e-01,9.99999e-01,9.89798e-01,5.52090e-01,9.99959e-01
7.387297469e-01,5.54398e-01,9.99999e-01,9.99999e-01,9.92485e-01,5.58606e-01,9.99980e-01
7.424233956e-01,5.62984e-01,9.99999e-01,9.99999e-01,9.96313e-01,5.65068e-01,9.99995e-01
7.461355126e-01,5.70199e-01,9.99999e-01,9.99999e-01,9.97767e-01,5.71475e-01,9.99998e-01
7.498661902e-01,5.77225e-01,9.99999e-01,9.99999e-01,9.98958e-01,5.77826e-01,9.99999e-01
7.536155211e-01,5.83823e-01,9.99999e-01,9.99999e-01,9.99489e-01,5.84121e-01,9.99999e-01
7.573835987e-01,5.90202e-01,9.99999e-01,9.99999e-01,9.99737e-01,5.90357e-01,9.99999e-01
7.611705167e-01,5.96437e-01,9.99999e-01,9.99999e-01,9.99836e-01,5.96535e-01,9.99999e-01
7.649763693e-01,6.02592e-01,9.99999e-01,9.99999e-01,9.99897e-01,6.02653e-01,9.99999e-01
7.688012511e-01,6.08668e-01,9.99999e-01,9.99999e-01,9.99928e-01,6.08712e-01,9.99999e-01
7.726452574e-01,6.14674e-01,9.99999e-01,9.99999e-01,9.99941e-01,6.14710e-01,9.99999e-01
7.765084837e-01,6.20595e-01,9.99999e-01,9.99999e-01,9.99916e-01,6.20646e-01,9.99999e-01
7.803910261e-01,6.12508e-01,9.99999e-01,9.77974e-01,9.99642e-01,6.26522e-01,9.99999e-01
7.842929812e-01,5.72308e-01,9.99999e-01,9.06166e-01,9.98752e-01,6.32335e-01,9.99997e-01
7.882144461e-01,5.72802e-01,9.99999e-01,8.99963e-01,9.97419e-01,6.38086e-01,9.99983e-01
7.921555184e-01,6.04943e-01,9.99999e-01,9.41027e-01,9.98580e-01,6.43773e-01,9.99969e-01
7.961162960e-01,6.21892e-01,9.99999e-01,9.60050e-01,9.97506e-01,6.49398e-01,9.99970e-01
8.000968774e-01,6.38799e-01,9.99999e-01,9.78175e-01,9.97111e-01,6.54959e-01,9.99968e-01
8.040973618e-01,6.51040e-01,9.99999e-01,9.88615e-01,9.97113e-01,6.60457e-01,9.99974e-01
8.081178486e-01,6.58106e-01,9.99999e-01,9.94771e-01,9.93520e-01,6.65891e-01,9.99976e-01
8.121584379e-01,6.52135e-01,9.99999e-01,9.98375e-01,9.73166e-01,6.71261e-01,9.99908e-01
8.162192301e-01,6.54481e-01,9.99999e-01,9.99640e-01,9.68029e-01,6.76567e-01,9.99657e-01
8.203003262e-01,6.70650e-01,9.99999e-01,9.99993e-01,9.84033e-01,6.81808e-01,9.99598e-01
8.244018279e-01,6.71247e-01,9.99999e-01,9.99999e-01,9.77401e-01,6.86986e-01,9.99680e-01
8.285238370e-01,6.78706e-01,9.99999e-01,9.99999e-01,9.80893e-01,6.92100e-01,9.99748e-01
8.326664562e-01,6.83579e-01,9.99999e-01,9.99999e-01,9.80635e-01,6.97149e-01,9.99895e-01
8.368297885e-01,6.92387e-01,9.99999e-01,9.99999e-01,9.86139e-01,7.02135e-01,9.99975e-01
8.410139374e-01,7.01211e-01,9.99999e-01,9.99999e-01,9.91745e-01,7.07056e-01,9.99985e-01
8.452190071e-01,7.09021e-01,9.99999e-01,9.99999e-01,9.95944e-01,7.11914e-01,9.99991e-01
8.494451021e-01,7.15020e-01,9.99999e-01,9.99999e-01,9.97650e-01,7.16708e-01,9.99992e-01
8.536923276e-01,7.20432e-01,9.99999e-01,9.99999e-01,9.98607e-01,7.21439e-01,9.99995e-01
8.579607893e-01,7.25485e-01,9.99999e-01,9.99999e-01,9.99143e-01,7.26107e-01,9.99998e-01
8.622505932e-01,7.30314e-01,9.99999e-01,9.99999e-01,9.99455e-01,7.30712e-01,9.99999e-01
8.665618462e-01,6.94557e-01,9.99999e-01,9.44955e-01,9.99663e-01,7.35254e-01,9.99999e-01
8.708946554e-01,5.74644e-01,9.99999e-01,7.77115e-01,9.99615e-01,7.39734e-01,9.99999e-01
8.752491287e-01,6.07863e-01,9.99999e-01,8.17264e-01,9.99485e-01,7.44152e-01,9.99998e-01
8.796253743e-01,6.70000e-01,9.99999e-01,8.95739e-01,9.99288e-01,7.48509e-01,9.99997e-01
8.840235012e-01,7.10611e-01,9.99999e-01,9.44717e-01,9.99186e-01,7.52804e-01,9.99994e-01
8.884436187e-01,7.38076e-01,9.99999e-01,9.77823e-01,9.97059e-01,7.57038e-01,9.99985e-01
8.928858368e-01,7.31050e-01,9.99999e-01,9.90976e-01,9.69151e-01,7.61212e-01,9.99918e-01
8.973502660e-01,7.21913e-01,9.99999e-01,9.97794e-01,9.45727e-01,7.65325e-01,9.99582e-01
9.018370173e-01,7.47019e-01,9.99999e-01,9.99756e-01,9.71805e-01,7.69379e-01,9.99344e-01
9.063462024e-01,7.49358e-01,9.99999e-01,9.93852e-01,9.75380e-01,7.73373e-01,9.99424e-01
9.108779334e-01,7.36610e-01,9.99999e-01,9.85803e-01,9.61752e-01,7.77309e-01,9.99401e-01
9.154323231e-01,7.44474e-01,9.99999e-01,9.96634e-01,9.56649e-01,7.81187e-01,9.99505e-01
9.200094847e-01,7.22198e-01,9.99999e-01,9.51656e-01,9.65817e-01,7.85006e-01,9.99722e-01
9.246095321e-01,6.96979e-01,9.99999e-01,9.32363e-01,9.47231e-01,7.88769e-01,9.99680e-01
9.292325798e-01,5.21024e-01,9.99999e-01,9.46709e-01,6.92537e-01,7.92474e-01,9.98757e-01
9.338787427e-01,4.67834e-01,9.99999e-01,9.48280e-01,6.20377e-01,7.96124e-01,9.94874e-01
9.385481364e-01,6.31740e-01,9.99999e-01,9.61801e-01,8.25089e-01,7.99717e-01,9.93906e-01
9.432408771e-01,5.97161e-01,9.99999e-01,9.76427e-01,7.64704e-01,8.03255e-01,9.94741e-01
9.479570815e-01,5.47189e-01,9.99999e-01,9.87857e-01,6.89240e-01,8.06739e-01,9.95717e-01
9.526968669e-01,6.08504e-01,9.99999e-01,9.94121e-01,7.57221e-01,8.10168e-01,9.97385e-01
9.574603512e-01,6.29643e-01,9.99999e-01,9.97481e-01,7.76849e-01,8.13544e-01,9.98670e-01
9.622476530e-01,6.64213e-01,9.99999e-01,9.99213e-01,8.14485e-01,8.16867e-01,9.99080e-01
9.670588912e-01,7.28242e-01,9.99999e-01,9.99763e-01,8.88711e-01,8.20137e-01,9.99371e-01
9.718941857e-01,7.64703e-01,9.99999e-01,9.99982e-01,9.29207e-01,8.23356e-01,9.99536e-01
9.767536566e-01,7.77403e-01,9.99999e-01,9.99999e-01,9.40902e-01,8.26523e-01,9.99645e-01
9.816374249e-01,7.92908e-01,9.99999e-01,9.99999e-01,9.55842e-01,8.29639e-01,9.99877e-01
9.865456120e-01,8.09530e-01,9.99999e-01,9.99999e-01,9.72192e-01,8.32705e-01,9.99974e-01
9.914783401e-01,8.21289e-01,9.99999e-01,9.99999e-01,9.82735e-01,8.35722e-01,9.99992e-01
9.964357318e-01,8.30771e-01,9.99999e-01,9.99999e-01,9.90562e-01,8.38690e-01,9.99995e-01
1.001417910e+00,8.36835e-01,9.99999e-01,9.99999e-01,9.94333e-01,8.41609e-01,9.99993e-01
1.006425000e+00,8.41746e-01,9.99999e-01,9.99999e-01,9.96770e-01,8.44480e-01,9.99990e-01
1.011457125e+00,8.45596e-01,9.99999e-01,9.99999e-01,9.97991e-01,8.47305e-01,9.99991e-01
1.016514411e+00,8.48919e-01,9.99999e-01,9.99999e-01,9.98637e-01,8.50082e-01,9.99993e-01
1.021596983e+00,8.51857e-01,9.99999e-01,9.99968e-01,9.98914e-01,8.52814e-01,9.99993e-01
1.026704968e+00,8.52731e-01,9.99999e-01,9.97610e-01,9.99153e-01,8.55500e-01,9.99995e-01
1.031838492e+00,8.30861e-01,9.99999e-01,9.68792e-01,9.99384e-01,8.58142e-01,9.99998e-01
1.036997685e+00,1.95878e-01,9.99999e-01,2.27638e-01,9.99634e-01,8.60739e-01,9.99999e-01
1.042182673e+00,2.10776e-01,9.99999e-01,2.44251e-01,9.99564e-01,8.63292e-01,9.99999e-01
1.047393587e+00,2.12009e-01,9.99999e-01,2.44997e-01,9.99422e-01,8.65802e-01,9.99999e-01
1.052630555e+00,1.83526e-02,9.99999e-01,2.11499e-02,9.99208e-01,8.68270e-01,9.99999e-01
1.057893707e+00,3.82121e-02,9.99999e-01,4.39298e-02,9.98679e-01,8.70696e-01,9.99999e-01
1.063183176e+00,8.93148e-02,9.99999e-01,1.02471e-01,9.97826e-01,8.73081e-01,9.99998e-01
1.068499092e+00,1.86895e-01,9.99999e-01,2.14182e-01,9.96359e-01,8.75424e-01,9.99997e-01
1.073841587e+00,3.30238e-01,9.99999e-01,3.77673e-01,9.95743e-01,8.77728e-01,9.99994e-01
1.079210795e+00,4.73296e-01,9.99999e-01,5.40624e-01,9.94539e-01,8.79992e-01,9.99984e-01
1.084606849e+00,6.24865e-01,9.99999e-01,7.14023e-01,9.91749e-01,8.82217e-01,9.99964e-01
1.090029883e+00,7.34184e-01,9.99999e-01,8.39944e-01,9.88197e-01,8.84403e-01,9.99926e-01
1.095480033e+00,7.87684e-01,9.99999e-01,9.17645e-01,9.68124e-01,8.86552e-01,9.99868e-01
1.100957433e+00,7.85212e-01,9.99999e-01,9.59489e-01,9.20861e-01,8.88663e-01,9.99757e-01
1.106462220e+00,7.09639e-01,9.99999e-01,9.83039e-01,8.10437e-01,8.90738e-01,9.99589e-01
1.111994531e+00,5.68286e-01,9.99999e-01,9.93682e-01,6.41087e-01,8.92776e-01,9.98911e-01
1.117554504e+00,4.32404e-01,9.99999e-01,9.98450e-01,4.85810e-01,8.94778e-01,9.96078e-01
1.123142276e+00,5.19342e-01,9.99999e-01,9.99897e-01,5.84598e-01,8.96745e-01,9.90726e-01
1.128757988e+00,6.32547e-01,9.99999e-01,9.99999e-01,7.11491e-01,8.98678e-01,9.89279e-01
1.134401778e+00,4.07761e-01,9.99999e-01,9.99999e-01,4.56946e-01,9.00576e-01,9.90877e-01
1.140073787e+00,7.32297e-01,9.99999e-01,9.99999e-01,8.17426e-01,9.02441e-01,9.92704e-01
1.145774156e+00,5.87959e-01,9.99999e-01,9.99999e-01,6.54573e-01,9.04272e-01,9.93319e-01
1.151503026e+00,5.62293e-01,9.99999e-01,9.99999e-01,6.22904e-01,9.06071e-01,9.96272e-01
1.157260541e+00,6.13118e-01,9.99999e-01,9.99999e-01,6.76114e-01,9.07838e-01,9.98883e-01
1.163046844e+00,6.80951e-01,9.99999e-01,9.99999e-01,7.48885e-01,9.09574e-01,9.99683e-01
1.168862078e+00,7.45815e-01,9.99999e-01,9.99999e-01,8.18560e-01,9.11278e-01,9.99836e-01
1.174706389e+00,8.06710e-01,9.99999e-01,9.99999e-01,8.83818e-01,9.12952e-01,9.99783e-01
1.180579921e+00,8.48084e-01,9.99999e-01,9.99999e-01,9.27579e-01,9.14596e-01,9.99672e-01
1.186482820e+00,8.77864e-01,9.99999e-01,9.99995e-01,9.58471e-01,9.16210e-01,9.99664e-01
1.192415234e+00,8.87573e-01,9.99999e-01,9.91465e-01,9.75578e-01,9.17795e-01,9.99748e-01
1.198377311e+00,5.19257e-01,9.99999e-01,5.74889e-01,9.79395e-01,9.19352e-01,9.99762e-01
1.204369197e+00,5.00032e-08,9.99999e-01,5.49321e-08,9.80473e-01,9.20880e-01,9.99784e-01
1.210391043e+00,4.68114e-27,9.99999e-01,5.12906e-27,9.81322e-01,9.22380e-01,9.99868e-01
1.216442998e+00,1.18558e-23,9.99999e-01,1.29618e-23,9.84072e-01,9.23853e-01,9.99919e-01
1.222525213e+00,2.56300e-23,9.99999e-01,2.78795e-23,9.87588e-01,9.25300e-01,9.99949e-01
1.228637839e+00,5.21552e-18,9.99999e-01,5.66253e-18,9.91370e-01,9.26720e-01,9.99976e-01
