#,Wave/freq,Total,N2,CO2,H2O,Rayleigh,CIA
4.000000000e-01,1.16496e-03,9.99999e-01,9.99999e-01,9.99986e-01,1.16497e-03,9.99999e-01
4.020000000e-01,1.33143e-03,9.99999e-01,9.99999e-01,9.99991e-01,1.33144e-03,9.99999e-01
4.040100000e-01,1.51747e-03,9.99999e-01,9.99999e-01,9.99996e-01,1.51748e-03,9.99999e-01
4.060300500e-01,1.72505e-03,9.99999e-01,9.99999e-01,9.99998e-01,1.72505e-03,9.99999e-01
4.080602003e-01,1.95606e-03,9.99999e-01,9.99999e-01,9.99999e-01,1.95606e-03,9.99999e-01
4.101005013e-01,2.21251e-03,9.99999e-01,9.99999e-01,9.99999e-01,2.21251e-03,9.99999e-01
4.121510038e-01,2.49649e-03,9.99999e-01,9.99999e-01,9.99999e-01,2.49649e-03,9.99999e-01
4.142117588e-01,2.81020e-03,9.99999e-01,9.99999e-01,9.99995e-01,2.81021e-03,9.99999e-01
4.162828176e-01,3.15592e-03,9.99999e-01,9.99999e-01,9.99983e-01,3.15597e-03,9.99999e-01
4.183642317e-01,3.53612e-03,9.99999e-01,9.99999e-01,9.99989e-01,3.53615e-03,9.99999e-01
4.204560528e-01,3.95322e-03,9.99999e-01,9.99999e-01,9.99993e-01,3.95324e-03,9.99999e-01
4.225583331e-01,4.40980e-03,9.99999e-01,9.99999e-01,9.99997e-01,4.40981e-03,9.99999e-01
4.246711247e-01,4.90848e-03,9.99999e-01,9.99999e-01,9.99997e-01,4.90849e-03,9.99999e-01
4.267944804e-01,5.45201e-03,9.99999e-01,9.99999e-01,9.99996e-01,5.45202e-03,9.99999e-01
4.289284528e-01,6.04318e-03,9.99999e-01,9.99999e-01,9.99997e-01,6.04319e-03,9.99999e-01
4.310730950e-01,6.68484e-03,9.99999e-01,9.99999e-01,9.99998e-01,6.68485e-03,9.99999e-01
4.332284605e-01,7.37992e-03,9.99999e-01,9.99999e-01,9.99999e-01,7.37992e-03,9.99999e-01
4.353946028e-01,8.13135e-03,9.99999e-01,9.99999e-01,9.99999e-01,8.13135e-03,9.99999e-01
4.375715758e-01,8.94214e-03,9.99999e-01,9.99999e-01,9.99997e-01,8.94215e-03,9.99999e-01
4.397594337e-01,9.81522e-03,9.99999e-01,9.99999e-01,9.99985e-01,9.81536e-03,9.99999e-01
4.419582309e-01,1.07532e-02,9.99999e-01,9.99999e-01,9.99926e-01,1.07540e-02,9.99999e-01
4.441680220e-01,1.17606e-02,9.99999e-01,9.99999e-01,9.99943e-01,1.17612e-02,9.99999e-01
4.463888621e-01,1.28393e-02,9.99999e-01,9.99999e-01,9.99941e-01,1.28400e-02,9.99999e-01
4.486208064e-01,1.39930e-02,9.99999e-01,9.99999e-01,9.99963e-01,1.39935e-02,9.99999e-01
4.508639105e-01,1.52244e-02,9.99999e-01,9.99999e-01,9.99982e-01,1.52247e-02,9.99999e-01
4.531182300e-01,1.65366e-02,9.99999e-01,9.99999e-01,9.99992e-01,1.65367e-02,9.99999e-01
4.553838212e-01,1.79323e-02,9.99999e-01,9.99999e-01,9.99994e-01,1.79324e-02,9.99999e-01
4.576607403e-01,1.94148e-02,9.99999e-01,9.99999e-01,9.99997e-01,1.94148e-02,9.99999e-01
4.599490440e-01,2.09868e-02,9.99999e-01,9.99999e-01,9.99998e-01,2.09868e-02,9.99999e-01
4.622487892e-01,2.26513e-02,9.99999e-01,9.99999e-01,9.99999e-01,2.26513e-02,9.99999e-01
4.645600332e-01,2.44108e-02,9.99999e-01,9.99999e-01,9.99998e-01,2.44109e-02,9.99999e-01
4.668828333e-01,2.62679e-02,9.99999e-01,9.99999e-01,9.99982e-01,2.62683e-02,9.99999e-01
4.692172475e-01,2.82252e-02,9.99999e-01,9.99999e-01,9.99962e-01,2.82262e-02,9.99999e-01
4.715633337e-01,3.02863e-02,9.99999e-01,9.99999e-01,9.99975e-01,3.02870e-02,9.99999e-01
4.739211504e-01,3.24523e-02,9.99999e-01,9.99999e-01,9.99976e-01,3.24530e-02,9.99999e-01
4.762907561e-01,3.47261e-02,9.99999e-01,9.99999e-01,9.99987e-01,3.47265e-02,9.99999e-01
4.786722099e-01,3.71095e-02,9.99999e-01,9.99999e-01,9.99994e-01,3.71097e-02,9.99999e-01
4.810655710e-01,3.96043e-02,9.99999e-01,9.99999e-01,9.99998e-01,3.96044e-02,9.99999e-01
4.834708988e-01,4.22119e-02,9.99999e-01,9.99999e-01,9.99985e-01,4.22125e-02,9.99999e-01
4.858882533e-01,4.49346e-02,9.99999e-01,9.99999e-01,9.99973e-01,4.49358e-02,9.99999e-01
4.883176946e-01,4.77746e-02,9.99999e-01,9.99999e-01,9.99977e-01,4.77757e-02,9.99999e-01
4.907592831e-01,5.07326e-02,9.99999e-01,9.99999e-01,9.99979e-01,5.07336e-02,9.99999e-01
4.932130795e-01,5.38100e-02,9.99999e-01,9.99999e-01,9.99985e-01,5.38108e-02,9.99999e-01
4.956791449e-01,5.70078e-02,9.99999e-01,9.99999e-01,9.99992e-01,5.70083e-02,9.99999e-01
4.981575406e-01,6.03247e-02,9.99999e-01,9.99999e-01,9.99962e-01,6.03269e-02,9.99999e-01
5.006483283e-01,6.37612e-02,9.99999e-01,9.99999e-01,9.99902e-01,6.37674e-02,9.99998e-01
5.031515699e-01,6.72974e-02,9.99999e-01,9.99999e-01,9.99514e-01,6.73304e-02,9.99994e-01
5.056673278e-01,7.09976e-02,9.99999e-01,9.99999e-01,9.99744e-01,7.10161e-02,9.99993e-01
5.081956644e-01,7.48005e-02,9.99999e-01,9.99999e-01,9.99678e-01,7.48248e-02,9.99995e-01
5.107366428e-01,7.87393e-02,9.99999e-01,9.99999e-01,9.99782e-01,7.87564e-02,9.99998e-01
5.132903260e-01,8.28005e-02,9.99999e-01,9.99999e-01,9.99876e-01,8.28108e-02,9.99999e-01
5.158567776e-01,8.69831e-02,9.99999e-01,9.99999e-01,9.99947e-01,8.69876e-02,9.99999e-01
5.184360615e-01,9.12844e-02,9.99999e-01,9.99999e-01,9.99978e-01,9.12863e-02,9.99999e-01
5.210282418e-01,9.57055e-02,9.99999e-01,9.99999e-01,9.99991e-01,9.57062e-02,9.99999e-01
5.236333830e-01,1.00243e-01,9.99999e-01,9.99999e-01,9.99968e-01,1.00246e-01,9.99999e-01
5.262515499e-01,1.04904e-01,9.99999e-01,9.99999e-01,9.99979e-01,1.04906e-01,9.99999e-01
5.288828077e-01,1.09682e-01,9.99999e-01,9.99999e-01,9.99981e-01,1.09684e-01,9.99999e-01
5.315272217e-01,1.14576e-01,9.99999e-01,9.99999e-01,9.99983e-01,1.14578e-01,9.99999e-01
5.341848578e-01,1.19587e-01,9.99999e-01,9.99999e-01,9.99989e-01,1.19588e-01,9.99999e-01
5.368557821e-01,1.24706e-01,9.99999e-01,9.99999e-01,9.99962e-01,1.24711e-01,9.99999e-01
5.395400610e-01,1.29928e-01,9.99999e-01,9.99999e-01,9.99865e-01,1.29946e-01,9.99998e-01
5.422377613e-01,1.35267e-01,9.99999e-01,9.99999e-01,9.99829e-01,1.35291e-01,9.99996e-01
5.449489501e-01,1.40720e-01,9.99999e-01,9.99999e-01,9.99839e-01,1.40743e-01,9.99996e-01
5.476736949e-01,1.46281e-01,9.99999e-01,9.99999e-01,9.99859e-01,1.46301e-01,9.99997e-01
5.504120634e-01,1.51947e-01,9.99999e-01,9.99999e-01,9.99897e-01,1.51963e-01,9.99999e-01
5.531641237e-01,1.57717e-01,9.99999e-01,9.99999e-01,9.99948e-01,1.57725e-01,9.99999e-01
5.559299443e-01,1.63581e-01,9.99999e-01,9.99999e-01,9.99974e-01,1.63585e-01,9.99999e-01
5.587095940e-01,1.69538e-01,9.99999e-01,9.99999e-01,9.99983e-01,1.69541e-01,9.99999e-01
5.615031420e-01,1.75586e-01,9.99999e-01,9.99999e-01,9.99982e-01,1.75589e-01,9.99999e-01
5.643106577e-01,1.81724e-01,9.99999e-01,9.99999e-01,9.99979e-01,1.81727e-01,9.99999e-01
5.671322110e-01,1.87906e-01,9.99999e-01,9.99999e-01,9.99755e-01,1.87953e-01,9.99997e-01
5.699678720e-01,1.94212e-01,9.99999e-01,9.99999e-01,9.99748e-01,1.94262e-01,9.99993e-01
5.728177114e-01,2.00598e-01,9.99999e-01,9.99999e-01,9.99734e-01,2.00652e-01,9.99994e-01
5.756818000e-01,2.07069e-01,9.99999e-01,9.99999e-01,9.99756e-01,2.07120e-01,9.99996e-01
5.785602090e-01,2.13617e-01,9.99999e-01,9.99999e-01,9.99788e-01,2.13663e-01,9.99998e-01
5.814530100e-01,2.20230e-01,9.99999e-01,9.99999e-01,9.99786e-01,2.20277e-01,9.99999e-01
5.843602750e-01,2.26900e-01,9.99999e-01,9.99999e-01,9.99743e-01,2.26958e-01,9.99998e-01
5.872820764e-01,2.33186e-01,9.99999e-01,9.99999e-01,9.97795e-01,2.33705e-01,9.99984e-01
5.902184868e-01,2.39868e-01,9.99999e-01,9.99999e-01,9.97358e-01,2.40513e-01,9.99957e-01
5.931695792e-01,2.46905e-01,9.99999e-01,9.99999e-01,9.98126e-01,2.47379e-01,9.99959e-01
5.961354271e-01,2.53773e-01,9.99999e-01,9.99999e-01,9.97951e-01,2.54299e-01,9.99976e-01
5.991161043e-01,2.60879e-01,9.99999e-01,9.99999e-01,9.98508e-01,2.61271e-01,9.99992e-01
6.021116848e-01,2.68063e-01,9.99999e-01,9.99999e-01,9.99154e-01,2.68290e-01,9.99998e-01
6.051222432e-01,2.75236e-01,9.99999e-01,9.99999e-01,9.99572e-01,2.75354e-01,9.99999e-01
6.081478544e-01,2.82406e-01,9.99999e-01,9.99999e-01,9.99815e-01,2.82459e-01,9.99999e-01
6.111885937e-01,2.89578e-01,9.99999e-01,9.99999e-01,9.99921e-01,2.89601e-01,9.99999e-01
6.142445367e-01,2.96767e-01,9.99999e-01,9.99999e-01,9.99964e-01,2.96777e-01,9.99999e-01
6.173157594e-01,3.03979e-01,9.99999e-01,9.99999e-01,9.99980e-01,3.03984e-01,9.99999e-01
6.204023382e-01,3.11214e-01,9.99999e-01,9.99999e-01,9.99983e-01,3.11219e-01,9.99999e-01
6.235043498e-01,3.18455e-01,9.99999e-01,9.99999e-01,9.99926e-01,3.18478e-01,9.99999e-01
6.266218716e-01,3.25633e-01,9.99999e-01,9.99999e-01,9.99618e-01,3.25758e-01,9.99996e-01
6.297549810e-01,3.33007e-01,9.99999e-01,9.99999e-01,9.99859e-01,3.33055e-01,9.99994e-01
6.329037559e-01,3.40272e-01,9.99999e-01,9.99999e-01,9.99724e-01,3.40367e-01,9.99995e-01
6.360682746e-01,3.47608e-01,9.99999e-01,9.99999e-01,9.99763e-01,3.47691e-01,9.99996e-01
6.392486160e-01,3.54914e-01,9.99999e-01,9.99999e-01,9.99694e-01,3.55022e-01,9.99998e-01
6.424448591e-01,3.62209e-01,9.99999e-01,9.99999e-01,9.99587e-01,3.62359e-01,9.99997e-01
6.456570834e-01,3.68987e-01,9.99999e-01,9.99999e-01,9.98087e-01,3.69698e-01,9.99988e-01
6.488853688e-01,3.76504e-01,9.99999e-01,9.99999e-01,9.98617e-01,3.77036e-01,9.99970e-01
6.521297956e-01,3.83821e-01,9.99999e-01,9.99999e-01,9.98591e-01,3.84371e-01,9.99975e-01
6.553904446e-01,3.91140e-01,9.99999e-01,9.99999e-01,9.98590e-01,3.91699e-01,9.99981e-01
6.586673968e-01,3.98537e-01,9.99999e-01,9.99999e-01,9.98798e-01,3.99019e-01,9.99993e-01
6.619607338e-01,4.06054e-01,9.99999e-01,9.99999e-01,9.99330e-01,4.06326e-01,9.99998e-01
6.652705375e-01,4.13452e-01,9.99999e-01,9.99999e-01,9.99598e-01,4.13619e-01,9.99998e-01
6.685968902e-01,4.20823e-01,9.99999e-01,9.99999e-01,9.99829e-01,4.20895e-01,9.99999e-01
6.719398746e-01,4.28114e-01,9.99999e-01,9.99999e-01,9.99913e-01,4.28151e-01,9.99999e-01
6.752995740e-01,4.35365e-01,9.99999e-01,9.99999e-01,9.99953e-01,4.35385e-01,9.99999e-01
6.786760719e-01,4.42565e-01,9.99999e-01,9.99999e-01,9.99931e-01,4.42595e-01,9.99999e-01
6.820694522e-01,4.49726e-01,9.99999e-01,9.99999e-01,9.99882e-01,4.49779e-01,9.99998e-01
6.854797995e-01,4.56864e-01,9.99999e-01,9.99999e-01,9.99849e-01,4.56934e-01,9.99998e-01
6.889071985e-01,4.63884e-01,9.99999e-01,9.99999e-01,9.99629e-01,4.64058e-01,9.99996e-01
6.923517345e-01,4.68323e-01,9.99999e-01,9.99999e-01,9.94030e-01,4.71149e-01,9.99971e-01
6.958134932e-01,4.76725e-01,9.99999e-01,9.99999e-01,9.96968e-01,4.78205e-01,9.99936e-01
6.992925606e-01,4.83765e-01,9.99999e-01,9.99999e-01,9.97049e-01,4.85224e-01,9.99942e-01
7.027890234e-01,4.90408e-01,9.99999e-01,9.99999e-01,9.96393e-01,4.92205e-01,9.99956e-01
7.063029686e-01,4.97619e-01,9.99999e-01,9.99999e-01,9.96964e-01,4.99145e-01,9.99977e-01
7.098344834e-01,5.04563e-01,9.99999e-01,9.99999e-01,9.97087e-01,5.06043e-01,9.99986e-01
7.133836558e-01,5.10864e-01,9.99999e-01,9.99999e-01,9.96059e-01,5.12897e-01,9.99974e-01
7.169505741e-01,5.03412e-01,9.99999e-01,9.99999e-01,9.68839e-01,5.19706e-01,9.99800e-01
7.205353270e-01,5.18381e-01,9.99999e-01,9.99999e-01,9.84983e-01,5.26469e-01,9.99648e-01
7.241380036e-01,5.22683e-01,9.99999e-01,9.99999e-01,9.80605e-01,5.33183e-01,9.99696e-01
7.277586936e-01,5.30270e-01,9.99999e-01,9.99999e-01,9.82502e-01,5.39847e-01,9.99751e-01
7.313974871e-01,5.36324e-01,9.99999e-01,9.99999e-01,9.81562e-01,5.46461e-01,9.99883e-01
7.350544745e-01,5.47402e-01,9.99999e-01,9.99999e-01,9.89875e-01,5.53023e-01,9.99959e-01
7.387297469e-01,5.55354e-01,9.99999e-01,9.99999e-01,9.92551e-01,5.59531e-01,9.99981e-01
7.424233956e-01,5.63924e-01,9.99999e-01,9.99999e-01,9.96360e-01,5.65986e-01,9.99996e-01
7.461355126e-01,5.71120e-01,9.99999e-01,9.99999e-01,9.97789e-01,5.72385e-01,9.99998e-01
7.498661902e-01,5.78134e-01,9.99999e-01,9.99999e-01,9.98973e-01,5.78728e-01,9.99999e-01
7.536155211e-01,5.84719e-01,9.99999e-01,9.99999e-01,9.99494e-01,5.85014e-01,9.99999e-01
7.573835987e-01,5.91088e-01,9.99999e-01,9.99999e-01,9.99739e-01,5.91242e-01,9.99999e-01
7.611705167e-01,5.97315e-01,9.99999e-01,9.99999e-01,9.99838e-01,5.97411e-01,9.99999e-01
7.649763693e-01,6.03460e-01,9.99999e-01,9.99999e-01,9.99898e-01,6.03521e-01,9.99999e-01
7.688012511e-01,6.09528e-01,9.99999e-01,9.99999e-01,9.99928e-01,6.09571e-01,9.99999e-01
7.726452574e-01,6.15525e-01,9.99999e-01,9.99999e-01,9.99941e-01,6.15560e-01,9.99999e-01
7.765084837e-01,6.21437e-01,9.99999e-01,9.99999e-01,9.99916e-01,6.21489e-01,9.99999e-01
7.803910261e-01,6.12330e-01,9.99999e-01,9.76395e-01,9.99638e-01,6.27355e-01,9.99999e-01
7.842929812e-01,5.73742e-01,9.99999e-01,9.07268e-01,9.98737e-01,6.33159e-01,9.99997e-01
7.882144461e-01,5.73563e-01,9.99999e-01,9.00005e-01,9.97426e-01,6.38901e-01,9.99981e-01
7.921555184e-01,6.05691e-01,9.99999e-01,9.40997e-01,9.98596e-01,6.44580e-01,9.99968e-01
7.961162960e-01,6.22975e-01,9.99999e-01,9.60562e-01,9.97486e-01,6.50196e-01,9.99970e-01
8.000968774e-01,6.39706e-01,9.99999e-01,9.78380e-01,9.97117e-01,6.55748e-01,9.99968e-01
8.040973618e-01,6.51930e-01,9.99999e-01,9.88800e-01,9.97111e-01,6.61236e-01,9.99975e-01
8.081178486e-01,6.58851e-01,9.99999e-01,9.94820e-01,9.93447e-01,6.66661e-01,9.99975e-01
8.121584379e-01,6.52764e-01,9.99999e-01,9.98417e-01,9.72959e-01,6.72022e-01,9.99908e-01
8.162192301e-01,6.55417e-01,9.99999e-01,9.99649e-01,9.68328e-01,6.77319e-01,9.99657e-01
8.203003262e-01,6.71147e-01,9.99999e-01,9.99994e-01,9.83688e-01,6.82551e-01,9.99599e-01
8.244018279e-01,6.72315e-01,9.99999e-01,9.99999e-01,9.77911e-01,6.87720e-01,9.99681e-01
8.285238370e-01,6.79397e-01,9.99999e-01,9.99999e-01,9.80865e-01,6.92824e-01,9.99749e-01
8.326664562e-01,6.84356e-01,9.99999e-01,9.99999e-01,9.80744e-01,6.97864e-01,9.99896e-01
8.368297885e-01,6.93168e-01,9.99999e-01,9.99999e-01,9.86260e-01,7.02841e-01,9.99975e-01
8.410139374e-01,7.01957e-01,9.99999e-01,9.99999e-01,9.91823e-01,7.07753e-01,9.99985e-01
8.452190071e-01,7.09740e-01,9.99999e-01,9.99999e-01,9.95991e-01,7.12602e-01,9.99991e-01
8.494451021e-01,7.15707e-01,9.99999e-01,9.99999e-01,9.97663e-01,7.17387e-01,9.99992e-01
8.536923276e-01,7.21112e-01,9.99999e-01,9.99999e-01,9.98622e-01,7.22109e-01,9.99995e-01
8.579607893e-01,7.26149e-01,9.99999e-01,9.99999e-01,9.99148e-01,7.26768e-01,9.99998e-01
8.622505932e-01,7.30970e-01,9.99999e-01,9.99999e-01,9.99460e-01,7.31364e-01,9.99999e-01
8.665618462e-01,6.92728e-01,9.99999e-01,9.41643e-01,9.99664e-01,7.35898e-01,9.99999e-01
8.708946554e-01,5.75644e-01,9.99999e-01,7.77801e-01,9.99615e-01,7.40369e-01,9.99999e-01
8.752491287e-01,6.09628e-01,9.99999e-01,8.18949e-01,9.99485e-01,7.44778e-01,9.99998e-01
8.796253743e-01,6.71440e-01,9.99999e-01,8.96928e-01,9.99285e-01,7.49125e-01,9.99997e-01
8.840235012e-01,7.11656e-01,9.99999e-01,9.45345e-01,9.99184e-01,7.53412e-01,9.99994e-01
8.884436187e-01,7.38890e-01,9.99999e-01,9.78224e-01,9.96959e-01,7.57637e-01,9.99985e-01
8.928858368e-01,7.31450e-01,9.99999e-01,9.91111e-01,9.68798e-01,7.61802e-01,9.99918e-01
8.973502660e-01,7.22692e-01,9.99999e-01,9.97848e-01,9.45976e-01,7.65907e-01,9.99584e-01
9.018370173e-01,7.47969e-01,9.99999e-01,9.99763e-01,9.72307e-01,7.69952e-01,9.99346e-01
9.063462024e-01,7.49582e-01,9.99999e-01,9.93664e-01,9.75139e-01,7.73939e-01,9.99425e-01
9.108779334e-01,7.37227e-01,9.99999e-01,9.85956e-01,9.61720e-01,7.77866e-01,9.99403e-01
9.154323231e-01,7.45157e-01,9.99999e-01,9.96730e-01,9.56762e-01,7.81735e-01,9.99506e-01
9.200094847e-01,7.22186e-01,9.99999e-01,9.50762e-01,9.66054e-01,7.85547e-01,9.99723e-01
9.246095321e-01,6.96737e-01,9.99999e-01,9.32951e-01,9.45644e-01,7.89301e-01,9.99681e-01
9.292325798e-01,5.19575e-01,9.99999e-01,9.46213e-01,6.90615e-01,7.92998e-01,9.98465e-01
9.338787427e-01,4.69940e-01,9.99999e-01,9.48706e-01,6.22808e-01,7.96640e-01,9.94466e-01
9.385481364e-01,6.33705e-01,9.99999e-01,9.62081e-01,8.26904e-01,8.00225e-01,9.93922e-01
9.432408771e-01,5.96829e-01,9.99999e-01,9.76707e-01,7.63579e-01,8.03756e-01,9.94754e-01
9.479570815e-01,5.46115e-01,9.99999e-01,9.87957e-01,6.87380e-01,8.07231e-01,9.95728e-01
9.526968669e-01,6.10356e-01,9.99999e-01,9.94190e-01,7.59024e-01,8.10653e-01,9.97392e-01
9.574603512e-01,6.30748e-01,9.99999e-01,9.97515e-01,7.77729e-01,8.14021e-01,9.98674e-01
9.622476530e-01,6.65898e-01,9.99999e-01,9.99225e-01,8.16070e-01,8.17337e-01,9.99083e-01
9.670588912e-01,7.29244e-01,9.99999e-01,9.99768e-01,8.89404e-01,8.20600e-01,9.99398e-01
9.718941857e-01,7.65357e-01,9.99999e-01,9.99983e-01,9.29485e-01,8.23811e-01,9.99539e-01
9.767536566e-01,7.77989e-01,9.99999e-01,9.99999e-01,9.41101e-01,8.26970e-01,9.99646e-01
9.816374249e-01,7.93610e-01,9.99999e-01,9.99999e-01,9.56180e-01,8.30080e-01,9.99877e-01
9.865456120e-01,8.10141e-01,9.99999e-01,9.99999e-01,9.72420e-01,8.33139e-01,9.99974e-01
9.914783401e-01,8.21813e-01,9.99999e-01,9.99999e-01,9.82861e-01,8.36148e-01,9.99992e-01
9.964357318e-01,8.31247e-01,9.99999e-01,9.99999e-01,9.90634e-01,8.39109e-01,9.99995e-01
1.001417910e+00,8.37286e-01,9.99999e-01,9.99999e-01,9.94381e-01,8.42022e-01,9.99993e-01
1.006425000e+00,8.42163e-01,9.99999e-01,9.99999e-01,9.96785e-01,8.44886e-01,9.99990e-01
1.011457125e+00,8.46010e-01,9.99999e-01,9.99999e-01,9.98010e-01,8.47704e-01,9.99991e-01
1.016514411e+00,8.49319e-01,9.99999e-01,9.99999e-01,9.98646e-01,8.50475e-01,9.99993e-01
1.021596983e+00,8.52242e-01,9.99999e-01,9.99960e-01,9.98920e-01,8.53200e-01,9.99993e-01
1.026704968e+00,8.53036e-01,9.99999e-01,9.97519e-01,9.99157e-01,8.55880e-01,9.99995e-01
1.031838492e+00,8.27241e-01,9.99999e-01,9.64145e-01,9.99388e-01,8.58515e-01,9.99998e-01
1.036997685e+00,1.93733e-01,9.99999e-01,2.25049e-01,9.99635e-01,8.61106e-01,9.99999e-01
1.042182673e+00,2.13392e-01,9.99999e-01,2.47179e-01,9.99564e-01,8.63653e-01,9.99999e-01
1.047393587e+00,2.09122e-01,9.99999e-01,2.41562e-01,9.99423e-01,8.66157e-01,9.99999e-01
1.052630555e+00,1.84534e-02,9.99999e-01,2.12575e-02,9.99207e-01,8.68619e-01,9.99999e-01
1.057893707e+00,3.92141e-02,9.99999e-01,4.50645e-02,9.98675e-01,8.71039e-01,9.99999e-01
1.063183176e+00,9.06821e-02,9.99999e-01,1.04000e-01,9.97823e-01,8.73418e-01,9.99998e-01
1.068499092e+00,1.87496e-01,9.99999e-01,2.14789e-01,9.96362e-01,8.75756e-01,9.99997e-01
1.073841587e+00,3.32877e-01,9.99999e-01,3.80560e-01,9.95732e-01,8.78054e-01,9.99994e-01
1.079210795e+00,4.75459e-01,9.99999e-01,5.42891e-01,9.94557e-01,8.80312e-01,9.99985e-01
1.084606849e+00,6.27124e-01,9.99999e-01,7.16353e-01,9.91751e-01,8.82531e-01,9.99964e-01
1.090029883e+00,7.35327e-01,9.99999e-01,8.41060e-01,9.88074e-01,8.84712e-01,9.99927e-01
1.095480033e+00,7.88480e-01,9.99999e-01,9.18456e-01,9.67915e-01,8.86856e-01,9.99868e-01
1.100957433e+00,7.85366e-01,9.99999e-01,9.59861e-01,9.20375e-01,8.88961e-01,9.99758e-01
1.106462220e+00,7.08423e-01,9.99999e-01,9.83241e-01,8.08611e-01,8.91031e-01,9.99590e-01
1.111994531e+00,5.68170e-01,9.99999e-01,9.93756e-01,6.40698e-01,8.93063e-01,9.98914e-01
1.117554504e+00,4.32784e-01,9.99999e-01,9.98481e-01,4.86065e-01,8.95061e-01,9.96088e-01
1.123142276e+00,5.21662e-01,9.99999e-01,9.99900e-01,5.87012e-01,8.97023e-01,9.90749e-01
1.128757988e+00,6.32581e-01,9.99999e-01,9.99999e-01,7.11293e-01,8.98950e-01,9.89306e-01
1.134401778e+00,4.12285e-01,9.99999e-01,9.99999e-01,4.61868e-01,9.00844e-01,9.90900e-01
1.140073787e+00,7.32108e-01,9.99999e-01,9.99999e-01,8.16960e-01,9.02704e-01,9.92722e-01
1.145774156e+00,5.89044e-01,9.99999e-01,9.99999e-01,6.55583e-01,9.04531e-01,9.93336e-01
1.151503026e+00,5.62919e-01,9.99999e-01,9.99999e-01,6.23418e-01,9.06325e-01,9.96282e-01
1.157260541e+00,6.14020e-01,9.99999e-01,9.99999e-01,6.76921e-01,9.08088e-01,9.98886e-01
1.163046844e+00,6.82484e-01,9.99999e-01,9.99999e-01,7.50368e-01,9.09819e-01,9.99683e-01
1.168862078e+00,7.47078e-01,9.99999e-01,9.99999e-01,8.19731e-01,9.11519e-01,9.99835e-01
1.174706389e+00,8.07574e-01,9.99999e-01,9.99999e-01,8.84545e-01,9.13189e-01,9.99773e-01
1.180579921e+00,8.48774e-01,9.99999e-01,9.99999e-01,9.28098e-01,9.14828e-01,9.99673e-01
1.186482820e+00,8.78307e-01,9.99999e-01,9.99993e-01,9.58718e-01,9.16438e-01,9.99665e-01
1.192415234e+00,8.87533e-01,9.99999e-01,9.91067e-01,9.75685e-01,9.18019e-01,9.99749e-01
1.198377311e+00,5.17542e-01,9.99999e-01,5.72823e-01,9.79423e-01,9.19571e-01,9.99761e-01
1.204369197e+00,5.17037e-08,9.99999e-01,5.67849e-08,9.80529e-01,9.21096e-01,9.99792e-01
1.210391043e+00,5.40673e-27,9.99999e-01,5.92256e-27,9.81383e-01,9.22592e-01,9.99869e-01
1.216442998e+00,1.34274e-23,9.99999e-01,1.46763e-23,9.84181e-01,9.24062e-01,9.99919e-01
1.222525213e+00,2.89558e-23,9.99999e-01,3.14897e-23,9.87656e-01,9.25504e-01,9.99949e-01
1.228637839e+00,5.69963e-18,9.99999e-01,6.18662e-18,9.91407e-01,9.26920e-01,9.99976e-01
