#,Wave/freq,Total,N2,CO2,H2O,Rayleigh,CIA
4.000000000e-01,5.81744e-05,9.99999e-01,9.99999e-01,9.99980e-01,5.81755e-05,9.99999e-01
4.020000000e-01,7.05466e-05,9.99999e-01,9.99999e-01,9.99987e-01,7.05474e-05,9.99999e-01
4.040100000e-01,8.52082e-05,9.99999e-01,9.99999e-01,9.99994e-01,8.52087e-05,9.99999e-01
4.060300500e-01,1.02534e-04,9.99999e-01,9.99999e-01,9.99998e-01,1.02534e-04,9.99999e-01
4.080602003e-01,1.22931e-04,9.99999e-01,9.99999e-01,9.99999e-01,1.22931e-04,9.99999e-01
4.101005013e-01,1.46859e-04,9.99999e-01,9.99999e-01,9.99999e-01,1.46859e-04,9.99999e-01
4.121510038e-01,1.74829e-04,9.99999e-01,9.99999e-01,9.99998e-01,1.74829e-04,9.99999e-01
4.142117588e-01,2.07410e-04,9.99999e-01,9.99999e-01,9.99994e-01,2.07411e-04,9.99999e-01
4.162828176e-01,2.45230e-04,9.99999e-01,9.99999e-01,9.99976e-01,2.45236e-04,9.99999e-01
4.183642317e-01,2.88996e-04,9.99999e-01,9.99999e-01,9.99985e-01,2.89000e-04,9.99999e-01
4.204560528e-01,3.39469e-04,9.99999e-01,9.99999e-01,9.99991e-01,3.39472e-04,9.99999e-01
4.225583331e-01,3.97492e-04,9.99999e-01,9.99999e-01,9.99996e-01,3.97493e-04,9.99999e-01
4.246711247e-01,4.63981e-04,9.99999e-01,9.99999e-01,9.99996e-01,4.63982e-04,9.99999e-01
4.267944804e-01,5.39938e-04,9.99999e-01,9.99999e-01,9.99995e-01,5.39940e-04,9.99999e-01
4.289284528e-01,6.26454e-04,9.99999e-01,9.99999e-01,9.99996e-01,6.26455e-04,9.99999e-01
4.310730950e-01,7.24701e-04,9.99999e-01,9.99999e-01,9.99998e-01,7.24702e-04,9.99999e-01
4.332284605e-01,8.35947e-04,9.99999e-01,9.99999e-01,9.99999e-01,8.35948e-04,9.99999e-01
4.353946028e-01,9.61554e-04,9.99999e-01,9.99999e-01,9.99999e-01,9.61554e-04,9.99999e-01
4.375715758e-01,1.10298e-03,9.99999e-01,9.99999e-01,9.99997e-01,1.10298e-03,9.99999e-01
4.397594337e-01,1.26176e-03,9.99999e-01,9.99999e-01,9.99978e-01,1.26178e-03,9.99999e-01
4.419582309e-01,1.43947e-03,9.99999e-01,9.99999e-01,9.99894e-01,1.43962e-03,9.99999e-01
4.441680220e-01,1.63811e-03,9.99999e-01,9.99999e-01,9.99919e-01,1.63824e-03,9.99999e-01
4.463888621e-01,1.85937e-03,9.99999e-01,9.99999e-01,9.99915e-01,1.85952e-03,9.99999e-01
4.486208064e-01,2.10530e-03,9.99999e-01,9.99999e-01,9.99947e-01,2.10541e-03,9.99999e-01
4.508639105e-01,2.37792e-03,9.99999e-01,9.99999e-01,9.99975e-01,2.37798e-03,9.99999e-01
4.531182300e-01,2.67936e-03,9.99999e-01,9.99999e-01,9.99989e-01,2.67938e-03,9.99999e-01
4.553838212e-01,3.01186e-03,9.99999e-01,9.99999e-01,9.99992e-01,3.01188e-03,9.99999e-01
4.576607403e-01,3.37781e-03,9.99999e-01,9.99999e-01,9.99996e-01,3.37782e-03,9.99999e-01
4.599490440e-01,3.77965e-03,9.99999e-01,9.99999e-01,9.99997e-01,3.77965e-03,9.99999e-01
4.622487892e-01,4.21991e-03,9.99999e-01,9.99999e-01,9.99999e-01,4.21991e-03,9.99999e-01
4.645600332e-01,4.70120e-03,9.99999e-01,9.99999e-01,9.99998e-01,4.70121e-03,9.99999e-01
4.668828333e-01,5.22611e-03,9.99999e-01,9.99999e-01,9.99974e-01,5.22624e-03,9.99999e-01
4.692172475e-01,5.79746e-03,9.99999e-01,9.99999e-01,9.99946e-01,5.79776e-03,9.99999e-01
4.715633337e-01,6.41840e-03,9.99999e-01,9.99999e-01,9.99964e-01,6.41862e-03,9.99999e-01
4.739211504e-01,7.09146e-03,9.99999e-01,9.99999e-01,9.99966e-01,7.09170e-03,9.99999e-01
4.762907561e-01,7.81980e-03,9.99999e-01,9.99999e-01,9.99982e-01,7.81993e-03,9.99999e-01
4.786722099e-01,8.60626e-03,9.99999e-01,9.99999e-01,9.99992e-01,8.60632e-03,9.99999e-01
4.810655710e-01,9.45386e-03,9.99999e-01,9.99999e-01,9.99997e-01,9.45388e-03,9.99999e-01
4.834708988e-01,1.03654e-02,9.99999e-01,9.99999e-01,9.99978e-01,1.03657e-02,9.99999e-01
4.858882533e-01,1.13443e-02,9.99999e-01,9.99999e-01,9.99962e-01,1.13447e-02,9.99999e-01
4.883176946e-01,1.23937e-02,9.99999e-01,9.99999e-01,9.99968e-01,1.23941e-02,9.99999e-01
4.907592831e-01,1.35166e-02,9.99999e-01,9.99999e-01,9.99971e-01,1.35170e-02,9.99999e-01
4.932130795e-01,1.47160e-02,9.99999e-01,9.99999e-01,9.99979e-01,1.47163e-02,9.99999e-01
4.956791449e-01,1.59950e-02,9.99999e-01,9.99999e-01,9.99988e-01,1.59952e-02,9.99999e-01
4.981575406e-01,1.73557e-02,9.99999e-01,9.99999e-01,9.99946e-01,1.73566e-02,9.99999e-01
5.006483283e-01,1.88010e-02,9.99999e-01,9.99999e-01,9.99860e-01,1.88036e-02,9.99998e-01
5.031515699e-01,2.03246e-02,9.99999e-01,9.99999e-01,9.99300e-01,2.03390e-02,9.99992e-01
5.056673278e-01,2.19574e-02,9.99999e-01,9.99999e-01,9.99631e-01,2.19656e-02,9.99991e-01
5.081956644e-01,2.36752e-02,9.99999e-01,9.99999e-01,9.99535e-01,2.36863e-02,9.99994e-01
5.107366428e-01,2.54958e-02,9.99999e-01,9.99999e-01,9.99686e-01,2.55038e-02,9.99998e-01
5.132903260e-01,2.74158e-02,9.99999e-01,9.99999e-01,9.99821e-01,2.74207e-02,9.99999e-01
5.158567776e-01,2.94373e-02,9.99999e-01,9.99999e-01,9.99924e-01,2.94395e-02,9.99999e-01
5.184360615e-01,3.15617e-02,9.99999e-01,9.99999e-01,9.99969e-01,3.15626e-02,9.99999e-01
5.210282418e-01,3.37920e-02,9.99999e-01,9.99999e-01,9.99988e-01,3.37924e-02,9.99999e-01
5.236333830e-01,3.61292e-02,9.99999e-01,9.99999e-01,9.99954e-01,3.61308e-02,9.99999e-01
5.262515499e-01,3.85790e-02,9.99999e-01,9.99999e-01,9.99971e-01,3.85801e-02,9.99999e-01
5.288828077e-01,4.11410e-02,9.99999e-01,9.99999e-01,9.99973e-01,4.11421e-02,9.99999e-01
5.315272217e-01,4.38175e-02,9.99999e-01,9.99999e-01,9.99976e-01,4.38185e-02,9.99999e-01
5.341848578e-01,4.66103e-02,9.99999e-01,9.99999e-01,9.99984e-01,4.66110e-02,9.99999e-01
5.368557821e-01,4.95183e-02,9.99999e-01,9.99999e-01,9.99946e-01,4.95209e-02,9.99999e-01
5.395400610e-01,5.25394e-02,9.99999e-01,9.99999e-01,9.99806e-01,5.25497e-02,9.99997e-01
5.422377613e-01,5.56843e-02,9.99999e-01,9.99999e-01,9.99753e-01,5.56983e-02,9.99994e-01
5.449489501e-01,5.89539e-02,9.99999e-01,9.99999e-01,9.99768e-01,5.89677e-02,9.99994e-01
5.476736949e-01,6.23461e-02,9.99999e-01,9.99999e-01,9.99796e-01,6.23588e-02,9.99997e-01
5.504120634e-01,6.58624e-02,9.99999e-01,9.99999e-01,9.99852e-01,6.58721e-02,9.99998e-01
5.531641237e-01,6.95029e-02,9.99999e-01,9.99999e-01,9.99925e-01,6.95081e-02,9.99999e-01
5.559299443e-01,7.32643e-02,9.99999e-01,9.99999e-01,9.99963e-01,7.32669e-02,9.99999e-01
5.587095940e-01,7.71470e-02,9.99999e-01,9.99999e-01,9.99977e-01,7.71487e-02,9.99999e-01
5.615031420e-01,8.11514e-02,9.99999e-01,9.99999e-01,9.99974e-01,8.11534e-02,9.99999e-01
5.643106577e-01,8.52782e-02,9.99999e-01,9.99999e-01,9.99970e-01,8.52807e-02,9.99999e-01
5.671322110e-01,8.94984e-02,9.99999e-01,9.99999e-01,9.99648e-01,8.95301e-02,9.99996e-01
5.699678720e-01,9.38660e-02,9.99999e-01,9.99999e-01,9.99635e-01,9.39010e-02,9.99990e-01
5.728177114e-01,9.83542e-02,9.99999e-01,9.99999e-01,9.99616e-01,9.83926e-02,9.99991e-01
5.756818000e-01,1.02967e-01,9.99999e-01,9.99999e-01,9.99648e-01,1.03004e-01,9.99994e-01
5.785602090e-01,1.07701e-01,9.99999e-01,9.99999e-01,9.99694e-01,1.07734e-01,9.99998e-01
5.814530100e-01,1.12547e-01,9.99999e-01,9.99999e-01,9.99692e-01,1.12581e-01,9.99998e-01
5.843602750e-01,1.17501e-01,9.99999e-01,9.99999e-01,9.99630e-01,1.17544e-01,9.99997e-01
5.872820764e-01,1.22230e-01,9.99999e-01,9.99999e-01,9.96825e-01,1.22622e-01,9.99977e-01
5.902184868e-01,1.27317e-01,9.99999e-01,9.99999e-01,9.96186e-01,1.27812e-01,9.99939e-01
5.931695792e-01,1.32745e-01,9.99999e-01,9.99999e-01,9.97297e-01,1.33112e-01,9.99941e-01
5.961354271e-01,1.38107e-01,9.99999e-01,9.99999e-01,9.97044e-01,1.38521e-01,9.99966e-01
5.991161043e-01,1.43725e-01,9.99999e-01,9.99999e-01,9.97846e-01,1.44037e-01,9.99989e-01
6.021116848e-01,1.49474e-01,9.99999e-01,9.99999e-01,9.98778e-01,1.49657e-01,9.99998e-01
6.051222432e-01,1.55282e-01,9.99999e-01,9.99999e-01,9.99382e-01,1.55378e-01,9.99999e-01
6.081478544e-01,1.61156e-01,9.99999e-01,9.99999e-01,9.99732e-01,1.61199e-01,9.99999e-01
6.111885937e-01,1.67098e-01,9.99999e-01,9.99999e-01,9.99887e-01,1.67116e-01,9.99999e-01
6.142445367e-01,1.73119e-01,9.99999e-01,9.99999e-01,9.99949e-01,1.73128e-01,9.99999e-01
6.173157594e-01,1.79225e-01,9.99999e-01,9.99999e-01,9.99971e-01,1.79230e-01,9.99999e-01
6.204023382e-01,1.85416e-01,9.99999e-01,9.99999e-01,9.99975e-01,1.85420e-01,9.99999e-01
6.235043498e-01,1.91676e-01,9.99999e-01,9.99999e-01,9.99894e-01,1.91696e-01,9.99999e-01
6.266218716e-01,1.97944e-01,9.99999e-01,9.99999e-01,9.99449e-01,1.98054e-01,9.99995e-01
6.297549810e-01,2.04448e-01,9.99999e-01,9.99999e-01,9.99797e-01,2.04491e-01,9.99991e-01
6.329037559e-01,2.10918e-01,9.99999e-01,9.99999e-01,9.99601e-01,2.11003e-01,9.99993e-01
6.360682746e-01,2.17514e-01,9.99999e-01,9.99999e-01,9.99659e-01,2.17589e-01,9.99995e-01
6.392486160e-01,2.24144e-01,9.99999e-01,9.99999e-01,9.99559e-01,2.24243e-01,9.99997e-01
6.424448591e-01,2.30826e-01,9.99999e-01,9.99999e-01,9.99406e-01,2.30964e-01,9.99996e-01
6.456570834e-01,2.37089e-01,9.99999e-01,9.99999e-01,9.97246e-01,2.37748e-01,9.99982e-01
6.488853688e-01,2.44092e-01,9.99999e-01,9.99999e-01,9.98004e-01,2.44590e-01,9.99957e-01
6.521297956e-01,2.50969e-01,9.99999e-01,9.99999e-01,9.97965e-01,2.51489e-01,9.99964e-01
6.553904446e-01,2.57908e-01,9.99999e-01,9.99999e-01,9.97966e-01,2.58440e-01,9.99973e-01
6.586673968e-01,2.64978e-01,9.99999e-01,9.99999e-01,9.98265e-01,2.65441e-01,9.99990e-01
6.619607338e-01,2.72223e-01,9.99999e-01,9.99999e-01,9.99033e-01,2.72487e-01,9.99997e-01
6.652705375e-01,2.79413e-01,9.99999e-01,9.99999e-01,9.99419e-01,2.79575e-01,9.99998e-01
6.685968902e-01,2.86632e-01,9.99999e-01,9.99999e-01,9.99753e-01,2.86703e-01,9.99999e-01
6.719398746e-01,2.93829e-01,9.99999e-01,9.99999e-01,9.99874e-01,2.93866e-01,9.99999e-01
6.752995740e-01,3.01041e-01,9.99999e-01,9.99999e-01,9.99933e-01,3.01061e-01,9.99999e-01
6.786760719e-01,3.08255e-01,9.99999e-01,9.99999e-01,9.99900e-01,3.08285e-01,9.99999e-01
6.820694522e-01,3.15481e-01,9.99999e-01,9.99999e-01,9.99831e-01,3.15534e-01,9.99998e-01
6.854797995e-01,3.22736e-01,9.99999e-01,9.99999e-01,9.99782e-01,3.22806e-01,9.99997e-01
6.889071985e-01,3.29920e-01,9.99999e-01,9.99999e-01,9.99467e-01,3.30097e-01,9.99994e-01
6.923517345e-01,3.34492e-01,9.99999e-01,9.99999e-01,9.91412e-01,3.37403e-01,9.99958e-01
6.958134932e-01,3.43179e-01,9.99999e-01,9.99999e-01,9.95612e-01,3.44723e-01,9.99908e-01
6.992925606e-01,3.50527e-01,9.99999e-01,9.99999e-01,9.95752e-01,3.52051e-01,9.99917e-01
7.027890234e-01,3.57494e-01,9.99999e-01,9.99999e-01,9.94796e-01,3.59386e-01,9.99937e-01
7.063029686e-01,3.65108e-01,9.99999e-01,9.99999e-01,9.95620e-01,3.66725e-01,9.99968e-01
7.098344834e-01,3.72485e-01,9.99999e-01,9.99999e-01,9.95798e-01,3.74064e-01,9.99981e-01
7.133836558e-01,3.79226e-01,9.99999e-01,9.99999e-01,9.94336e-01,3.81400e-01,9.99963e-01
7.169505741e-01,3.71316e-01,9.99999e-01,9.99999e-01,9.55471e-01,3.88731e-01,9.99712e-01
7.205353270e-01,3.87283e-01,9.99999e-01,9.99999e-01,9.78348e-01,3.96055e-01,9.99492e-01
7.241380036e-01,3.91972e-01,9.99999e-01,9.99999e-01,9.72175e-01,4.03367e-01,9.99561e-01
7.277586936e-01,4.00207e-01,9.99999e-01,9.99999e-01,9.74880e-01,4.10666e-01,9.99641e-01
7.313974871e-01,4.06798e-01,9.99999e-01,9.99999e-01,9.73481e-01,4.17949e-01,9.99831e-01
7.350544745e-01,4.18987e-01,9.99999e-01,9.99999e-01,9.85412e-01,4.25214e-01,9.99941e-01
7.387297469e-01,4.27800e-01,9.99999e-01,9.99999e-01,9.89257e-01,4.32457e-01,9.99972e-01
7.424233956e-01,4.37364e-01,9.99999e-01,9.99999e-01,9.94743e-01,4.39677e-01,9.99994e-01
7.461355126e-01,4.45445e-01,9.99999e-01,9.99999e-01,9.96807e-01,4.46872e-01,9.99998e-01
7.498661902e-01,4.53365e-01,9.99999e-01,9.99999e-01,9.98516e-01,4.54039e-01,9.99999e-01
7.536155211e-01,4.60839e-01,9.99999e-01,9.99999e-01,9.99270e-01,4.61175e-01,9.99999e-01
7.573835987e-01,4.68104e-01,9.99999e-01,9.99999e-01,9.99624e-01,4.68280e-01,9.99999e-01
7.611705167e-01,4.75239e-01,9.99999e-01,9.99999e-01,9.99766e-01,4.75350e-01,9.99999e-01
7.649763693e-01,4.82314e-01,9.99999e-01,9.99999e-01,9.99853e-01,4.82385e-01,9.99999e-01
7.688012511e-01,4.89331e-01,9.99999e-01,9.99999e-01,9.99897e-01,4.89381e-01,9.99999e-01
7.726452574e-01,4.96296e-01,9.99999e-01,9.99999e-01,9.99915e-01,4.96338e-01,9.99999e-01
7.765084837e-01,5.03193e-01,9.99999e-01,9.99999e-01,9.99879e-01,5.03253e-01,9.99999e-01
7.803910261e-01,4.93218e-01,9.99999e-01,9.67343e-01,9.99479e-01,5.10126e-01,9.99999e-01
7.842929812e-01,4.48892e-01,9.99999e-01,8.69855e-01,9.98182e-01,5.16953e-01,9.99996e-01
7.882144461e-01,4.48995e-01,9.99999e-01,8.60392e-01,9.96287e-01,5.23735e-01,9.99974e-01
7.921555184e-01,4.85026e-01,9.99999e-01,9.16191e-01,9.97972e-01,5.30468e-01,9.99955e-01
7.961162960e-01,5.04977e-01,9.99999e-01,9.43525e-01,9.96379e-01,5.37153e-01,9.99957e-01
8.000968774e-01,5.24683e-01,9.99999e-01,9.68927e-01,9.95842e-01,5.43788e-01,9.99954e-01
8.040973618e-01,5.39212e-01,9.99999e-01,9.83846e-01,9.95835e-01,5.50371e-01,9.99965e-01
8.081178486e-01,5.47518e-01,9.99999e-01,9.92525e-01,9.90576e-01,5.56901e-01,9.99964e-01
8.121584379e-01,5.40278e-01,9.99999e-01,9.97708e-01,9.61306e-01,5.63377e-01,9.99868e-01
8.162192301e-01,5.43405e-01,9.99999e-01,9.99493e-01,9.54623e-01,5.69799e-01,9.99506e-01
8.203003262e-01,5.62425e-01,9.99999e-01,9.99992e-01,9.76721e-01,5.76165e-01,9.99422e-01
8.244018279e-01,5.63770e-01,9.99999e-01,9.99999e-01,9.68331e-01,5.82474e-01,9.99540e-01
8.285238370e-01,5.72351e-01,9.99999e-01,9.99999e-01,9.72536e-01,5.88726e-01,9.99638e-01
8.326664562e-01,5.78378e-01,9.99999e-01,9.99999e-01,9.72340e-01,5.94919e-01,9.99850e-01
8.368297885e-01,5.89142e-01,9.99999e-01,9.99999e-01,9.80216e-01,6.01053e-01,9.99965e-01
8.410139374e-01,5.99957e-01,9.99999e-01,9.99999e-01,9.88209e-01,6.07127e-01,9.99979e-01
8.452190071e-01,6.09585e-01,9.99999e-01,9.99999e-01,9.94211e-01,6.13141e-01,9.99987e-01
8.494451021e-01,6.17001e-01,9.99999e-01,9.99999e-01,9.96627e-01,6.19094e-01,9.99989e-01
8.536923276e-01,6.23739e-01,9.99999e-01,9.99999e-01,9.98010e-01,6.24986e-01,9.99993e-01
8.579607893e-01,6.30039e-01,9.99999e-01,9.99999e-01,9.98771e-01,6.30815e-01,9.99998e-01
8.622505932e-01,6.36087e-01,9.99999e-01,9.99999e-01,9.99220e-01,6.36582e-01,9.99999e-01
8.665618462e-01,5.94818e-01,9.99999e-01,9.26523e-01,9.99516e-01,6.42287e-01,9.99999e-01
8.708946554e-01,4.53280e-01,9.99999e-01,6.99958e-01,9.99445e-01,6.47928e-01,9.99999e-01
8.752491287e-01,4.90711e-01,9.99999e-01,7.51432e-01,9.99258e-01,6.53506e-01,9.99998e-01
8.796253743e-01,5.62950e-01,9.99999e-01,8.55080e-01,9.98969e-01,6.59020e-01,9.99997e-01
8.840235012e-01,6.11982e-01,9.99999e-01,9.22081e-01,9.98824e-01,6.64471e-01,9.99992e-01
8.884436187e-01,6.46062e-01,9.99999e-01,9.68677e-01,9.95642e-01,6.69858e-01,9.99979e-01
8.928858368e-01,6.36815e-01,9.99999e-01,9.87170e-01,9.55446e-01,6.75180e-01,9.99882e-01
8.973502660e-01,6.25836e-01,9.99999e-01,9.96886e-01,9.23124e-01,6.80439e-01,9.99399e-01
9.018370173e-01,6.57564e-01,9.99999e-01,9.99657e-01,9.60285e-01,6.85633e-01,9.99056e-01
9.063462024e-01,6.59796e-01,9.99999e-01,9.90936e-01,9.64451e-01,6.90764e-01,9.99171e-01
9.108779334e-01,6.44101e-01,9.99999e-01,9.79775e-01,9.45360e-01,6.95830e-01,9.99138e-01
9.154323231e-01,6.54070e-01,9.99999e-01,9.95265e-01,9.38295e-01,7.00832e-01,9.99288e-01
9.200094847e-01,6.26594e-01,9.99999e-01,9.31231e-01,9.51441e-01,7.05771e-01,9.99601e-01
9.246095321e-01,5.94481e-01,9.99999e-01,9.04708e-01,9.23483e-01,7.10645e-01,9.99540e-01
9.292325798e-01,3.92942e-01,9.99999e-01,9.23737e-01,5.91119e-01,7.15456e-01,9.97786e-01
9.338787427e-01,3.40610e-01,9.99999e-01,9.26905e-01,5.10471e-01,7.20204e-01,9.92022e-01
9.385481364e-01,5.19933e-01,9.99999e-01,9.45745e-01,7.62815e-01,7.24888e-01,9.91238e-01
9.432408771e-01,4.79303e-01,9.99999e-01,9.66519e-01,6.83747e-01,7.29510e-01,9.92436e-01
9.479570815e-01,4.24906e-01,9.99999e-01,9.82650e-01,5.92161e-01,7.34068e-01,9.93840e-01
9.526968669e-01,4.94226e-01,9.99999e-01,9.91615e-01,6.76905e-01,7.38565e-01,9.96238e-01
9.574603512e-01,5.15886e-01,9.99999e-01,9.96409e-01,6.98010e-01,7.42999e-01,9.98087e-01
9.622476530e-01,5.56911e-01,9.99999e-01,9.98880e-01,7.46936e-01,7.47371e-01,9.98676e-01
9.670588912e-01,6.34398e-01,9.99999e-01,9.99664e-01,8.45004e-01,7.51683e-01,9.99094e-01
9.718941857e-01,6.79852e-01,9.99999e-01,9.99976e-01,8.99973e-01,7.55933e-01,9.99333e-01
9.767536566e-01,6.96080e-01,9.99999e-01,9.99999e-01,9.16214e-01,7.60122e-01,9.99490e-01
9.816374249e-01,7.16260e-01,9.99999e-01,9.99999e-01,9.37369e-01,7.64251e-01,9.99823e-01
9.865456120e-01,7.37883e-01,9.99999e-01,9.99999e-01,9.60418e-01,7.68321e-01,9.99962e-01
9.914783401e-01,7.53278e-01,9.99999e-01,9.99999e-01,9.75340e-01,7.72331e-01,9.99989e-01
9.964357318e-01,7.65798e-01,9.99999e-01,9.99999e-01,9.86500e-01,7.76282e-01,9.99993e-01
1.001417910e+00,7.73843e-01,9.99999e-01,9.99999e-01,9.91892e-01,7.80175e-01,9.99990e-01
1.006425000e+00,7.80364e-01,9.99999e-01,9.99999e-01,9.95362e-01,7.84010e-01,9.99986e-01
1.011457125e+00,7.85514e-01,9.99999e-01,9.99999e-01,9.97126e-01,7.87787e-01,9.99987e-01
1.016514411e+00,7.89954e-01,9.99999e-01,9.99999e-01,9.98045e-01,7.91507e-01,9.99991e-01
1.021596983e+00,7.93883e-01,9.99999e-01,9.99945e-01,9.98441e-01,7.95171e-01,9.99991e-01
1.026704968e+00,7.94970e-01,9.99999e-01,9.96446e-01,9.98783e-01,7.98779e-01,9.99994e-01
1.031838492e+00,7.65571e-01,9.99999e-01,9.54998e-01,9.99117e-01,8.02332e-01,9.99997e-01
1.036997685e+00,1.30500e-01,9.99999e-01,1.62013e-01,9.99474e-01,8.05830e-01,9.99999e-01
1.042182673e+00,1.12882e-01,9.99999e-01,1.39564e-01,9.99371e-01,8.09273e-01,9.99999e-01
1.047393587e+00,1.27039e-01,9.99999e-01,1.56439e-01,9.99168e-01,8.12663e-01,9.99999e-01
1.052630555e+00,4.48059e-03,9.99999e-01,5.49556e-03,9.98857e-01,8.16000e-01,9.99999e-01
1.057893707e+00,1.11928e-02,9.99999e-01,1.36796e-02,9.98090e-01,8.19284e-01,9.99998e-01
1.063183176e+00,3.47467e-02,9.99999e-01,4.23410e-02,9.96861e-01,8.22516e-01,9.99997e-01
1.068499092e+00,9.16700e-02,9.99999e-01,1.11518e-01,9.94755e-01,8.25696e-01,9.99995e-01
1.073841587e+00,2.07012e-01,9.99999e-01,2.51096e-01,9.93852e-01,8.28826e-01,9.99991e-01
1.079210795e+00,3.44269e-01,9.99999e-01,4.16843e-01,9.92153e-01,8.31905e-01,9.99978e-01
1.084606849e+00,5.10532e-01,9.99999e-01,6.18531e-01,9.88122e-01,8.34935e-01,9.99949e-01
1.090029883e+00,6.41884e-01,9.99999e-01,7.79130e-01,9.82879e-01,8.37915e-01,9.99895e-01
1.095480033e+00,7.09772e-01,9.99999e-01,8.84465e-01,9.54112e-01,8.40847e-01,9.99810e-01
1.100957433e+00,7.05934e-01,9.99999e-01,9.42555e-01,8.87473e-01,8.43731e-01,9.99651e-01
1.106462220e+00,6.09817e-01,9.99999e-01,9.75871e-01,7.37974e-01,8.46568e-01,9.99409e-01
1.111994531e+00,4.45736e-01,9.99999e-01,9.90988e-01,5.30069e-01,8.49358e-01,9.98433e-01
1.117554504e+00,3.03717e-01,9.99999e-01,9.97803e-01,3.59106e-01,8.52101e-01,9.94358e-01
1.123142276e+00,3.99698e-01,9.99999e-01,9.99856e-01,4.73941e-01,8.54800e-01,9.86674e-01
1.128757988e+00,5.21153e-01,9.99999e-01,9.99999e-01,6.17297e-01,8.57453e-01,9.84600e-01
1.134401778e+00,3.05077e-01,9.99999e-01,9.99999e-01,3.59426e-01,8.60061e-01,9.86890e-01
1.140073787e+00,6.39389e-01,9.99999e-01,9.99999e-01,7.49068e-01,8.62626e-01,9.89511e-01
1.145774156e+00,4.70836e-01,9.99999e-01,9.99999e-01,5.49503e-01,8.65148e-01,9.90395e-01
1.151503026e+00,4.42932e-01,9.99999e-01,9.99999e-01,5.13261e-01,8.67627e-01,9.94637e-01
1.157260541e+00,4.97065e-01,9.99999e-01,9.99999e-01,5.72215e-01,8.70063e-01,9.98393e-01
1.163046844e+00,5.77591e-01,9.99999e-01,9.99999e-01,6.62327e-01,8.72459e-01,9.99544e-01
1.168862078e+00,6.56775e-01,9.99999e-01,9.99999e-01,7.50936e-01,8.74813e-01,9.99764e-01
1.174706389e+00,7.34746e-01,9.99999e-01,9.99999e-01,8.37933e-01,8.77127e-01,9.99688e-01
1.180579921e+00,7.89294e-01,9.99999e-01,9.99999e-01,8.97957e-01,8.79402e-01,9.99529e-01
1.186482820e+00,8.29177e-01,9.99999e-01,9.99991e-01,9.40958e-01,8.81637e-01,9.99516e-01
1.192415234e+00,8.41951e-01,9.99999e-01,9.87298e-01,9.65088e-01,8.83833e-01,9.99637e-01
1.198377311e+00,4.85906e-01,9.99999e-01,5.62541e-01,9.70445e-01,8.85992e-01,9.99656e-01
1.204369197e+00,1.43452e-10,9.99999e-01,1.64240e-10,9.72031e-01,8.88113e-01,9.99700e-01
1.210391043e+00,5.71340e-38,9.99999e-01,6.51669e-38,9.73245e-01,8.90197e-01,9.99811e-01
1.216442998e+00,4.53890e-33,9.99999e-01,5.16073e-33,9.77240e-01,8.92244e-01,9.99884e-01
1.222525213e+00,1.35609e-32,9.99999e-01,1.53064e-32,9.82225e-01,8.94256e-01,9.99928e-01
1.228637839e+00,3.04421e-25,9.99999e-01,3.42629e-25,9.87618e-01,8.96232e-01,9.99966e-01
