#,Wave/freq,Total,N2,CO2,H2O,Rayleigh,CIA
4.000000000e-01,8.03206e-09,9.99999e-01,9.99999e-01,9.99963e-01,8.03235e-09,9.99999e-01
4.020000000e-01,1.16117e-08,9.99999e-01,9.99999e-01,9.99977e-01,1.16119e-08,9.99999e-01
4.040100000e-01,1.66586e-08,9.99999e-01,9.99999e-01,9.99990e-01,1.66587e-08,9.99999e-01
4.060300500e-01,2.37292e-08,9.99999e-01,9.99999e-01,9.99997e-01,2.37292e-08,9.99999e-01
4.080602003e-01,3.35653e-08,9.99999e-01,9.99999e-01,9.99998e-01,3.35653e-08,9.99999e-01
4.101005013e-01,4.71544e-08,9.99999e-01,9.99999e-01,9.99999e-01,4.71544e-08,9.99999e-01
4.121510038e-01,6.58018e-08,9.99999e-01,9.99999e-01,9.99998e-01,6.58019e-08,9.99999e-01
4.142117588e-01,9.12204e-08,9.99999e-01,9.99999e-01,9.99989e-01,9.12213e-08,9.99999e-01
4.162828176e-01,1.25641e-07,9.99999e-01,9.99999e-01,9.99955e-01,1.25647e-07,9.99999e-01
4.183642317e-01,1.71969e-07,9.99999e-01,9.99999e-01,9.99973e-01,1.71973e-07,9.99999e-01
4.204560528e-01,2.33921e-07,9.99999e-01,9.99999e-01,9.99983e-01,2.33925e-07,9.99999e-01
4.225583331e-01,3.16265e-07,9.99999e-01,9.99999e-01,9.99993e-01,3.16267e-07,9.99999e-01
4.246711247e-01,4.25052e-07,9.99999e-01,9.99999e-01,9.99994e-01,4.25054e-07,9.99999e-01
4.267944804e-01,5.67930e-07,9.99999e-01,9.99999e-01,9.99992e-01,5.67934e-07,9.99999e-01
4.289284528e-01,7.54508e-07,9.99999e-01,9.99999e-01,9.99994e-01,7.54512e-07,9.99999e-01
4.310730950e-01,9.96774e-07,9.99999e-01,9.99999e-01,9.99997e-01,9.96776e-07,9.99999e-01
4.332284605e-01,1.30960e-06,9.99999e-01,9.99999e-01,9.99998e-01,1.30960e-06,9.99999e-01
4.353946028e-01,1.71136e-06,9.99999e-01,9.99999e-01,9.99999e-01,1.71136e-06,9.99999e-01
4.375715758e-01,2.22456e-06,9.99999e-01,9.99999e-01,9.99995e-01,2.22457e-06,9.99999e-01
4.397594337e-01,2.87664e-06,9.99999e-01,9.99999e-01,9.99960e-01,2.87675e-06,9.99999e-01
4.419582309e-01,3.70055e-06,9.99999e-01,9.99999e-01,9.99799e-01,3.70129e-06,9.99999e-01
4.441680220e-01,4.73778e-06,9.99999e-01,9.99999e-01,9.99845e-01,4.73851e-06,9.99999e-01
4.463888621e-01,6.03589e-06,9.99999e-01,9.99999e-01,9.99838e-01,6.03686e-06,9.99999e-01
4.486208064e-01,7.65349e-06,9.99999e-01,9.99999e-01,9.99899e-01,7.65425e-06,9.99999e-01
4.508639105e-01,9.65913e-06,9.99999e-01,9.99999e-01,9.99952e-01,9.65958e-06,9.99999e-01
4.531182300e-01,1.21342e-05,9.99999e-01,9.99999e-01,9.99981e-01,1.21344e-05,9.99999e-01
4.553838212e-01,1.51745e-05,9.99999e-01,9.99999e-01,9.99986e-01,1.51747e-05,9.99999e-01
4.576607403e-01,1.88931e-05,9.99999e-01,9.99999e-01,9.99993e-01,1.88932e-05,9.99999e-01
4.599490440e-01,2.34212e-05,9.99999e-01,9.99999e-01,9.99995e-01,2.34213e-05,9.99999e-01
4.622487892e-01,2.89116e-05,9.99999e-01,9.99999e-01,9.99998e-01,2.89116e-05,9.99999e-01
4.645600332e-01,3.55407e-05,9.99999e-01,9.99999e-01,9.99996e-01,3.55408e-05,9.99999e-01
4.668828333e-01,4.35101e-05,9.99999e-01,9.99999e-01,9.99952e-01,4.35122e-05,9.99999e-01
4.692172475e-01,5.30537e-05,9.99999e-01,9.99999e-01,9.99898e-01,5.30590e-05,9.99999e-01
4.715633337e-01,6.44432e-05,9.99999e-01,9.99999e-01,9.99933e-01,6.44475e-05,9.99999e-01
4.739211504e-01,7.79753e-05,9.99999e-01,9.99999e-01,9.99936e-01,7.79802e-05,9.99999e-01
4.762907561e-01,9.39970e-05,9.99999e-01,9.99999e-01,9.99966e-01,9.40000e-05,9.99999e-01
4.786722099e-01,1.12892e-04,9.99999e-01,9.99999e-01,9.99986e-01,1.12893e-04,9.99999e-01
4.810655710e-01,1.35094e-04,9.99999e-01,9.99999e-01,9.99995e-01,1.35095e-04,9.99999e-01
4.834708988e-01,1.61083e-04,9.99999e-01,9.99999e-01,9.99960e-01,1.61090e-04,9.99999e-01
4.858882533e-01,1.91406e-04,9.99999e-01,9.99999e-01,9.99928e-01,1.91420e-04,9.99999e-01
4.883176946e-01,2.26674e-04,9.99999e-01,9.99999e-01,9.99939e-01,2.26687e-04,9.99999e-01
4.907592831e-01,2.67543e-04,9.99999e-01,9.99999e-01,9.99945e-01,2.67557e-04,9.99999e-01
4.932130795e-01,3.14751e-04,9.99999e-01,9.99999e-01,9.99961e-01,3.14763e-04,9.99999e-01
4.956791449e-01,3.69104e-04,9.99999e-01,9.99999e-01,9.99979e-01,3.69112e-04,9.99999e-01
4.981575406e-01,4.31440e-04,9.99999e-01,9.99999e-01,9.99897e-01,4.31484e-04,9.99999e-01
5.006483283e-01,5.02709e-04,9.99999e-01,9.99999e-01,9.99734e-01,5.02843e-04,9.99997e-01
5.031515699e-01,5.83447e-04,9.99999e-01,9.99999e-01,9.98664e-01,5.84235e-04,9.99985e-01
5.056673278e-01,6.76306e-04,9.99999e-01,9.99999e-01,9.99296e-01,6.76792e-04,9.99983e-01
5.081956644e-01,7.81038e-04,9.99999e-01,9.99999e-01,9.99113e-01,7.81739e-04,9.99989e-01
5.107366428e-01,8.99852e-04,9.99999e-01,9.99999e-01,9.99401e-01,9.00392e-04,9.99997e-01
5.132903260e-01,1.03381e-03,9.99999e-01,9.99999e-01,9.99658e-01,1.03416e-03,9.99999e-01
5.158567776e-01,1.18439e-03,9.99999e-01,9.99999e-01,9.99855e-01,1.18456e-03,9.99999e-01
5.184360615e-01,1.35312e-03,9.99999e-01,9.99999e-01,9.99941e-01,1.35320e-03,9.99999e-01
5.210282418e-01,1.54176e-03,9.99999e-01,9.99999e-01,9.99977e-01,1.54179e-03,9.99999e-01
5.236333830e-01,1.75199e-03,9.99999e-01,9.99999e-01,9.99912e-01,1.75214e-03,9.99998e-01
5.262515499e-01,1.98605e-03,9.99999e-01,9.99999e-01,9.99945e-01,1.98616e-03,9.99998e-01
5.288828077e-01,2.24576e-03,9.99999e-01,9.99999e-01,9.99949e-01,2.24588e-03,9.99998e-01
5.315272217e-01,2.53328e-03,9.99999e-01,9.99999e-01,9.99955e-01,2.53339e-03,9.99999e-01
5.341848578e-01,2.85084e-03,9.99999e-01,9.99999e-01,9.99970e-01,2.85093e-03,9.99999e-01
5.368557821e-01,3.20046e-03,9.99999e-01,9.99999e-01,9.99897e-01,3.20078e-03,9.99999e-01
5.395400610e-01,3.58403e-03,9.99999e-01,9.99999e-01,9.99631e-01,3.58537e-03,9.99996e-01
5.422377613e-01,4.00525e-03,9.99999e-01,9.99999e-01,9.99528e-01,4.00717e-03,9.99990e-01
5.449489501e-01,4.46676e-03,9.99999e-01,9.99999e-01,9.99559e-01,4.46877e-03,9.99990e-01
5.476736949e-01,4.97087e-03,9.99999e-01,9.99999e-01,9.99612e-01,4.97281e-03,9.99995e-01
5.504120634e-01,5.52049e-03,9.99999e-01,9.99999e-01,9.99718e-01,5.52205e-03,9.99998e-01
5.531641237e-01,6.11840e-03,9.99999e-01,9.99999e-01,9.99858e-01,6.11926e-03,9.99999e-01
5.559299443e-01,6.76687e-03,9.99999e-01,9.99999e-01,9.99931e-01,6.76733e-03,9.99999e-01
5.587095940e-01,7.46884e-03,9.99999e-01,9.99999e-01,9.99956e-01,7.46916e-03,9.99999e-01
5.615031420e-01,8.22734e-03,9.99999e-01,9.99999e-01,9.99951e-01,8.22773e-03,9.99999e-01
5.643106577e-01,9.04554e-03,9.99999e-01,9.99999e-01,9.99944e-01,9.04604e-03,9.99999e-01
5.671322110e-01,9.92043e-03,9.99999e-01,9.99999e-01,9.99330e-01,9.92712e-03,9.99993e-01
5.699678720e-01,1.08663e-02,9.99999e-01,9.99999e-01,9.99303e-01,1.08740e-02,9.99981e-01
5.728177114e-01,1.18810e-02,9.99999e-01,9.99999e-01,9.99268e-01,1.18899e-02,9.99984e-01
5.756818000e-01,1.29689e-02,9.99999e-01,9.99999e-01,9.99329e-01,1.29777e-02,9.99990e-01
5.785602090e-01,1.41323e-02,9.99999e-01,9.99999e-01,9.99416e-01,1.41405e-02,9.99997e-01
5.814530100e-01,1.53725e-02,9.99999e-01,9.99999e-01,9.99412e-01,1.53815e-02,9.99998e-01
5.843602750e-01,1.66918e-02,9.99999e-01,9.99999e-01,9.99296e-01,1.67036e-02,9.99995e-01
5.872820764e-01,1.79996e-02,9.99999e-01,9.99999e-01,9.93953e-01,1.81098e-02,9.99957e-01
5.902184868e-01,1.94582e-02,9.99999e-01,9.99999e-01,9.92723e-01,1.96031e-02,9.99884e-01
5.931695792e-01,2.10748e-02,9.99999e-01,9.99999e-01,9.94844e-01,2.11863e-02,9.99888e-01
5.961354271e-01,2.27319e-02,9.99999e-01,9.99999e-01,9.94358e-01,2.28623e-02,9.99935e-01
5.991161043e-01,2.45320e-02,9.99999e-01,9.99999e-01,9.95886e-01,2.46338e-02,9.99979e-01
6.021116848e-01,2.64416e-02,9.99999e-01,9.99999e-01,9.97666e-01,2.65035e-02,9.99997e-01
6.051222432e-01,2.84403e-02,9.99999e-01,9.99999e-01,9.98818e-01,2.84739e-02,9.99999e-01
6.081478544e-01,3.05319e-02,9.99999e-01,9.99999e-01,9.99489e-01,3.05475e-02,9.99999e-01
6.111885937e-01,3.27195e-02,9.99999e-01,9.99999e-01,9.99784e-01,3.27266e-02,9.99999e-01
6.142445367e-01,3.50101e-02,9.99999e-01,9.99999e-01,9.99903e-01,3.50134e-02,9.99999e-01
6.173157594e-01,3.74082e-02,9.99999e-01,9.99999e-01,9.99946e-01,3.74102e-02,9.99999e-01
6.204023382e-01,3.99169e-02,9.99999e-01,9.99999e-01,9.99954e-01,3.99187e-02,9.99999e-01
6.235043498e-01,4.25324e-02,9.99999e-01,9.99999e-01,9.99798e-01,4.25409e-02,9.99999e-01
6.266218716e-01,4.52305e-02,9.99999e-01,9.99999e-01,9.98948e-01,4.52784e-02,9.99992e-01
6.297549810e-01,4.81135e-02,9.99999e-01,9.99999e-01,9.99614e-01,4.81328e-02,9.99984e-01
6.329037559e-01,5.10659e-02,9.99999e-01,9.99999e-01,9.99239e-01,5.11053e-02,9.99987e-01
6.360682746e-01,5.41616e-02,9.99999e-01,9.99999e-01,9.99350e-01,5.41972e-02,9.99992e-01
6.392486160e-01,5.73611e-02,9.99999e-01,9.99999e-01,9.99159e-01,5.74095e-02,9.99996e-01
6.424448591e-01,6.06741e-02,9.99999e-01,9.99999e-01,9.98867e-01,6.07431e-02,9.99993e-01
6.456570834e-01,6.38599e-02,9.99999e-01,9.99999e-01,9.94754e-01,6.41987e-02,9.99967e-01
6.488853688e-01,6.75130e-02,9.99999e-01,9.99999e-01,9.96188e-01,6.77767e-02,9.99918e-01
6.521297956e-01,7.11952e-02,9.99999e-01,9.99999e-01,9.96115e-01,7.14775e-02,9.99932e-01
6.553904446e-01,7.50054e-02,9.99999e-01,9.99999e-01,9.96119e-01,7.53013e-02,9.99949e-01
6.586673968e-01,7.89842e-02,9.99999e-01,9.99999e-01,9.96686e-01,7.92480e-02,9.99982e-01
6.619607338e-01,8.31633e-02,9.99999e-01,9.99999e-01,9.98153e-01,8.33175e-02,9.99995e-01
6.652705375e-01,8.74122e-02,9.99999e-01,9.99999e-01,9.98891e-01,8.75093e-02,9.99997e-01
6.685968902e-01,9.17797e-02,9.99999e-01,9.99999e-01,9.99528e-01,9.18230e-02,9.99999e-01
6.719398746e-01,9.62348e-02,9.99999e-01,9.99999e-01,9.99761e-01,9.62577e-02,9.99999e-01
6.752995740e-01,1.00800e-01,9.99999e-01,9.99999e-01,9.99873e-01,1.00813e-01,9.99999e-01
6.786760719e-01,1.05467e-01,9.99999e-01,9.99999e-01,9.99811e-01,1.05487e-01,9.99999e-01
6.820694522e-01,1.10243e-01,9.99999e-01,9.99999e-01,9.99678e-01,1.10279e-01,9.99997e-01
6.854797995e-01,1.15139e-01,9.99999e-01,9.99999e-01,9.99585e-01,1.15188e-01,9.99995e-01
6.889071985e-01,1.20088e-01,9.99999e-01,9.99999e-01,9.98986e-01,1.20211e-01,9.99990e-01
6.923517345e-01,1.23294e-01,9.99999e-01,9.99999e-01,9.83687e-01,1.25348e-01,9.99921e-01
6.958134932e-01,1.29480e-01,9.99999e-01,9.99999e-01,9.91617e-01,1.30597e-01,9.99826e-01
6.992925606e-01,1.34834e-01,9.99999e-01,9.99999e-01,9.91911e-01,1.35955e-01,9.99843e-01
7.027890234e-01,1.40001e-01,9.99999e-01,9.99999e-01,9.90079e-01,1.41421e-01,9.99880e-01
7.063029686e-01,1.45755e-01,9.99999e-01,9.99999e-01,9.91647e-01,1.46992e-01,9.99940e-01
7.098344834e-01,1.51436e-01,9.99999e-01,9.99999e-01,9.91984e-01,1.52665e-01,9.99964e-01
7.133836558e-01,1.56724e-01,9.99999e-01,9.99999e-01,9.89238e-01,1.58440e-01,9.99929e-01
7.169505741e-01,1.50617e-01,9.99999e-01,9.99999e-01,9.17157e-01,1.64312e-01,9.99450e-01
7.205353270e-01,1.63154e-01,9.99999e-01,9.99999e-01,9.59083e-01,1.70279e-01,9.99031e-01
7.241380036e-01,1.66976e-01,9.99999e-01,9.99999e-01,9.47697e-01,1.76339e-01,9.99163e-01
7.277586936e-01,1.73741e-01,9.99999e-01,9.99999e-01,9.52719e-01,1.82488e-01,9.99316e-01
7.313974871e-01,1.79229e-01,9.99999e-01,9.99999e-01,9.49992e-01,1.88724e-01,9.99679e-01
7.350544745e-01,1.89625e-01,9.99999e-01,9.99999e-01,9.72328e-01,1.95043e-01,9.99888e-01
7.387297469e-01,1.97317e-01,9.99999e-01,9.99999e-01,9.79569e-01,2.01443e-01,9.99948e-01
7.424233956e-01,2.05833e-01,9.99999e-01,9.99999e-01,9.89968e-01,2.07920e-01,9.99990e-01
7.461355126e-01,2.13164e-01,9.99999e-01,9.99999e-01,9.93903e-01,2.14472e-01,9.99997e-01
7.498661902e-01,2.20467e-01,9.99999e-01,9.99999e-01,9.97163e-01,2.21094e-01,9.99998e-01
7.536155211e-01,2.27466e-01,9.99999e-01,9.99999e-01,9.98604e-01,2.27784e-01,9.99999e-01
7.573835987e-01,2.34370e-01,9.99999e-01,9.99999e-01,9.99281e-01,2.34538e-01,9.99999e-01
7.611705167e-01,2.41246e-01,9.99999e-01,9.99999e-01,9.99553e-01,2.41354e-01,9.99999e-01
7.649763693e-01,2.48157e-01,9.99999e-01,9.99999e-01,9.99719e-01,2.48226e-01,9.99999e-01
7.688012511e-01,2.55103e-01,9.99999e-01,9.99999e-01,9.99804e-01,2.55153e-01,9.99999e-01
7.726452574e-01,2.62089e-01,9.99999e-01,9.99999e-01,9.99838e-01,2.62131e-01,9.99999e-01
7.765084837e-01,2.69094e-01,9.99999e-01,9.99999e-01,9.99770e-01,2.69156e-01,9.99999e-01
7.803910261e-01,2.60290e-01,9.99999e-01,9.43199e-01,9.99006e-01,2.76225e-01,9.99998e-01
7.842929812e-01,2.17702e-01,9.99999e-01,7.70826e-01,9.96535e-01,2.83334e-01,9.99993e-01
7.882144461e-01,2.18371e-01,9.99999e-01,7.56806e-01,9.92917e-01,2.90481e-01,9.99950e-01
7.921555184e-01,2.51170e-01,9.99999e-01,8.47032e-01,9.96125e-01,2.97661e-01,9.99914e-01
7.961162960e-01,2.70974e-01,9.99999e-01,8.94960e-01,9.93104e-01,3.04872e-01,9.99919e-01
8.000968774e-01,2.91511e-01,9.99999e-01,9.41507e-01,9.92070e-01,3.12110e-01,9.99913e-01
8.040973618e-01,3.07109e-01,9.99999e-01,9.69337e-01,9.92060e-01,3.19372e-01,9.99934e-01
8.081178486e-01,3.16236e-01,9.99999e-01,9.85758e-01,9.82113e-01,3.26654e-01,9.99933e-01
8.121584379e-01,3.08393e-01,9.99999e-01,9.95613e-01,9.27690e-01,3.33953e-01,9.99748e-01
8.162192301e-01,3.11801e-01,9.99999e-01,9.99029e-01,9.15379e-01,3.41267e-01,9.99057e-01
8.203003262e-01,3.33094e-01,9.99999e-01,9.99986e-01,9.56606e-01,3.48591e-01,9.98896e-01
8.244018279e-01,3.34653e-01,9.99999e-01,9.99999e-01,9.41063e-01,3.55924e-01,9.99121e-01
8.285238370e-01,3.44252e-01,9.99999e-01,9.99999e-01,9.48325e-01,3.63261e-01,9.99310e-01
8.326664562e-01,3.51212e-01,9.99999e-01,9.99999e-01,9.47953e-01,3.70600e-01,9.99714e-01
8.368297885e-01,3.63762e-01,9.99999e-01,9.99999e-01,9.62553e-01,3.77938e-01,9.99934e-01
8.410139374e-01,3.76623e-01,9.99999e-01,9.99999e-01,9.77586e-01,3.85272e-01,9.99961e-01
8.452190071e-01,3.88256e-01,9.99999e-01,9.99999e-01,9.88957e-01,3.92599e-01,9.99976e-01
8.494451021e-01,3.97336e-01,9.99999e-01,9.99999e-01,9.93562e-01,3.99917e-01,9.99981e-01
8.536923276e-01,4.05670e-01,9.99999e-01,9.99999e-01,9.96198e-01,4.07223e-01,9.99988e-01
8.579607893e-01,4.13540e-01,9.99999e-01,9.99999e-01,9.97652e-01,4.14514e-01,9.99996e-01
8.622505932e-01,4.21159e-01,9.99999e-01,9.99999e-01,9.98510e-01,4.21787e-01,9.99999e-01
8.665618462e-01,3.84009e-01,9.99999e-01,8.95823e-01,9.99076e-01,4.29041e-01,9.99999e-01
8.708946554e-01,2.26598e-01,9.99999e-01,5.19915e-01,9.98940e-01,4.36273e-01,9.99998e-01
8.752491287e-01,2.59966e-01,9.99999e-01,5.86990e-01,9.98583e-01,4.43480e-01,9.99998e-01
8.796253743e-01,3.34641e-01,9.99999e-01,7.43951e-01,9.98034e-01,4.50660e-01,9.99995e-01
8.840235012e-01,3.91421e-01,9.99999e-01,8.56869e-01,9.97756e-01,4.57811e-01,9.99985e-01
8.884436187e-01,4.33933e-01,9.99999e-01,9.41007e-01,9.91737e-01,4.64931e-01,9.99960e-01
8.928858368e-01,4.22418e-01,9.99999e-01,9.75606e-01,9.17155e-01,4.72018e-01,9.99775e-01
8.973502660e-01,4.08781e-01,9.99999e-01,9.94046e-01,8.59194e-01,4.79069e-01,9.98853e-01
9.018370173e-01,4.48960e-01,9.99999e-01,9.99343e-01,9.25867e-01,4.86084e-01,9.98198e-01
9.063462024e-01,4.52199e-01,9.99999e-01,9.82947e-01,9.33651e-01,4.93060e-01,9.98417e-01
9.108779334e-01,4.31863e-01,9.99999e-01,9.61727e-01,8.98848e-01,4.99995e-01,9.98355e-01
9.154323231e-01,4.44563e-01,9.99999e-01,9.90954e-01,8.85959e-01,5.06888e-01,9.98640e-01
9.200094847e-01,4.14083e-01,9.99999e-01,8.79526e-01,9.09769e-01,5.13736e-01,9.99238e-01
9.246095321e-01,3.72613e-01,9.99999e-01,8.26346e-01,8.62252e-01,5.20540e-01,9.99122e-01
9.292325798e-01,1.76925e-01,9.99999e-01,8.61067e-01,3.82148e-01,5.27296e-01,9.95773e-01
9.338787427e-01,1.36308e-01,9.99999e-01,8.65716e-01,2.92866e-01,5.34004e-01,9.84809e-01
9.385481364e-01,2.93477e-01,9.99999e-01,8.99131e-01,6.08047e-01,5.40663e-01,9.83322e-01
9.432408771e-01,2.56378e-01,9.99999e-01,9.36986e-01,5.04448e-01,5.47270e-01,9.85595e-01
9.479570815e-01,2.08124e-01,9.99999e-01,9.67099e-01,3.92091e-01,5.53826e-01,9.88261e-01
9.526968669e-01,2.69158e-01,9.99999e-01,9.84032e-01,4.90644e-01,5.60328e-01,9.92823e-01
9.574603512e-01,2.87438e-01,9.99999e-01,9.93143e-01,5.12134e-01,5.66775e-01,9.96347e-01
9.622476530e-01,3.30042e-01,9.99999e-01,9.97858e-01,5.78395e-01,5.73168e-01,9.97473e-01
9.670588912e-01,4.21022e-01,9.99999e-01,9.99358e-01,7.28206e-01,5.79504e-01,9.98271e-01
9.718941857e-01,4.78789e-01,9.99999e-01,9.99955e-01,8.18422e-01,5.85782e-01,9.98726e-01
9.767536566e-01,5.00728e-01,9.99999e-01,9.99999e-01,8.46642e-01,5.92003e-01,9.99026e-01
9.816374249e-01,5.28577e-01,9.99999e-01,9.99999e-01,8.83960e-01,5.98165e-01,9.99662e-01
9.865456120e-01,5.59383e-01,9.99999e-01,9.99999e-01,9.25783e-01,6.04268e-01,9.99929e-01
9.914783401e-01,5.81863e-01,9.99999e-01,9.99999e-01,9.53406e-01,6.10310e-01,9.99980e-01
9.964357318e-01,6.00483e-01,9.99999e-01,9.99999e-01,9.74358e-01,6.16292e-01,9.99988e-01
1.001417910e+00,6.12593e-01,9.99999e-01,9.99999e-01,9.84555e-01,6.22213e-01,9.99982e-01
1.006425000e+00,6.22501e-01,9.99999e-01,9.99999e-01,9.91153e-01,6.28072e-01,9.99974e-01
1.011457125e+00,6.30375e-01,9.99999e-01,9.99999e-01,9.94511e-01,6.33868e-01,9.99976e-01
1.016514411e+00,6.37205e-01,9.99999e-01,9.99999e-01,9.96267e-01,6.39602e-01,9.99983e-01
1.021596983e+00,6.43278e-01,9.99999e-01,9.99899e-01,9.97022e-01,6.45273e-01,9.99983e-01
1.026704968e+00,6.44995e-01,9.99999e-01,9.93267e-01,9.97676e-01,6.50881e-01,9.99989e-01
1.031838492e+00,6.10757e-01,9.99999e-01,9.31933e-01,9.98313e-01,6.56426e-01,9.99996e-01
1.036997685e+00,5.89088e-02,9.99999e-01,8.90673e-02,9.98996e-01,6.61906e-01,9.99999e-01
1.042182673e+00,1.96580e-02,9.99999e-01,2.94874e-02,9.98800e-01,6.67323e-01,9.99999e-01
1.047393587e+00,3.27211e-02,9.99999e-01,4.87096e-02,9.98411e-01,6.72676e-01,9.99999e-01
1.052630555e+00,1.05929e-04,9.99999e-01,1.56477e-04,9.97818e-01,6.77965e-01,9.99998e-01
1.057893707e+00,3.58590e-04,9.99999e-01,5.26015e-04,9.96356e-01,6.83190e-01,9.99998e-01
1.063183176e+00,2.47275e-03,9.99999e-01,3.60619e-03,9.94015e-01,6.88350e-01,9.99996e-01
1.068499092e+00,1.17681e-02,9.99999e-01,1.71012e-02,9.90007e-01,6.93447e-01,9.99992e-01
1.073841587e+00,5.22183e-02,9.99999e-01,7.54624e-02,9.88300e-01,6.98479e-01,9.99984e-01
1.079210795e+00,1.35433e-01,9.99999e-01,1.95036e-01,9.85064e-01,7.03448e-01,9.99959e-01
1.084606849e+00,2.79177e-01,9.99999e-01,4.02559e-01,9.77450e-01,7.08353e-01,9.99903e-01
1.090029883e+00,4.29955e-01,9.99999e-01,6.22175e-01,9.67644e-01,7.13194e-01,9.99799e-01
1.095480033e+00,5.20276e-01,9.99999e-01,7.91436e-01,9.14411e-01,7.17971e-01,9.99638e-01
1.100957433e+00,5.15368e-01,9.99999e-01,8.93195e-01,7.97293e-01,7.22685e-01,9.99334e-01
1.106462220e+00,3.94007e-01,9.99999e-01,9.54392e-01,5.66648e-01,7.27336e-01,9.98872e-01
1.111994531e+00,2.21855e-01,9.99999e-01,9.82839e-01,3.08711e-01,7.31925e-01,9.97009e-01
1.117554504e+00,1.11592e-01,9.99999e-01,9.95800e-01,1.53637e-01,7.36450e-01,9.89246e-01
1.123142276e+00,1.92012e-01,9.99999e-01,9.99725e-01,2.65907e-01,7.40914e-01,9.74688e-01
1.128757988e+00,2.99258e-01,9.99999e-01,9.99999e-01,4.13604e-01,7.45315e-01,9.70776e-01
1.134401778e+00,1.47702e-01,9.99999e-01,9.99999e-01,2.02058e-01,7.49655e-01,9.75096e-01
1.140073787e+00,4.30919e-01,9.99999e-01,9.99999e-01,5.83194e-01,7.53934e-01,9.80051e-01
1.145774156e+00,2.49823e-01,9.99999e-01,9.99999e-01,3.35649e-01,7.58152e-01,9.81724e-01
1.151503026e+00,2.25595e-01,9.99999e-01,9.99999e-01,2.98992e-01,7.62310e-01,9.89777e-01
1.157260541e+00,2.69595e-01,9.99999e-01,9.99999e-01,3.52847e-01,7.66407e-01,9.96932e-01
1.163046844e+00,3.55402e-01,9.99999e-01,9.99999e-01,4.61695e-01,7.70445e-01,9.99129e-01
1.168862078e+00,4.49468e-01,9.99999e-01,9.99999e-01,5.80649e-01,7.74424e-01,9.99551e-01
1.174706389e+00,5.55955e-01,9.99999e-01,9.99999e-01,7.14702e-01,7.78345e-01,9.99405e-01
1.180579921e+00,6.36702e-01,9.99999e-01,9.99999e-01,8.14713e-01,7.82207e-01,9.99100e-01
1.186482820e+00,6.99162e-01,9.99999e-01,9.99984e-01,8.90338e-01,7.86011e-01,9.99077e-01
1.192415234e+00,7.20340e-01,9.99999e-01,9.76388e-01,9.34367e-01,7.89758e-01,9.99308e-01
1.198377311e+00,4.10603e-01,9.99999e-01,5.43156e-01,9.44329e-01,7.93449e-01,9.99346e-01
1.204369197e+00,3.76427e-18,9.99999e-01,4.87555e-18,9.47326e-01,7.97083e-01,9.99409e-01
1.210391043e+00,1.61870e-70,9.99999e-01,2.08146e-70,9.49547e-01,8.00662e-01,9.99640e-01
1.216442998e+00,3.75259e-61,9.99999e-01,4.79633e-61,9.56983e-01,8.04186e-01,9.99779e-01
1.222525213e+00,3.03197e-60,9.99999e-01,3.82145e-60,9.66312e-01,8.07655e-01,9.99862e-01
1.228637839e+00,1.29573e-46,9.99999e-01,1.62371e-46,9.76474e-01,8.11070e-01,9.99935e-01
