#,Wave/freq,Total,N2,CO2,H2O,Rayleigh,CIA
4.000000000e-01,1.46052e-07,9.99999e-01,9.99999e-01,9.99969e-01,1.46056e-07,9.99999e-01
4.020000000e-01,1.99373e-07,9.99999e-01,9.99999e-01,9.99980e-01,1.99377e-07,9.99999e-01
4.040100000e-01,2.70408e-07,9.99999e-01,9.99999e-01,9.99991e-01,2.70410e-07,9.99999e-01
4.060300500e-01,3.64549e-07,9.99999e-01,9.99999e-01,9.99997e-01,3.64550e-07,9.99999e-01
4.080602003e-01,4.88571e-07,9.99999e-01,9.99999e-01,9.99998e-01,4.88572e-07,9.99999e-01
4.101005013e-01,6.51010e-07,9.99999e-01,9.99999e-01,9.99999e-01,6.51010e-07,9.99999e-01
4.121510038e-01,8.62549e-07,9.99999e-01,9.99999e-01,9.99998e-01,8.62550e-07,9.99999e-01
4.142117588e-01,1.13649e-06,9.99999e-01,9.99999e-01,9.99991e-01,1.13650e-06,9.99999e-01
4.162828176e-01,1.48925e-06,9.99999e-01,9.99999e-01,9.99962e-01,1.48931e-06,9.99999e-01
4.183642317e-01,1.94121e-06,9.99999e-01,9.99999e-01,9.99977e-01,1.94126e-06,9.99999e-01
4.204560528e-01,2.51711e-06,9.99999e-01,9.99999e-01,9.99985e-01,2.51714e-06,9.99999e-01
4.225583331e-01,3.24714e-06,9.99999e-01,9.99999e-01,9.99994e-01,3.24716e-06,9.99999e-01
4.246711247e-01,4.16786e-06,9.99999e-01,9.99999e-01,9.99995e-01,4.16788e-06,9.99999e-01
4.267944804e-01,5.32332e-06,9.99999e-01,9.99999e-01,9.99993e-01,5.32335e-06,9.99999e-01
4.289284528e-01,6.76634e-06,9.99999e-01,9.99999e-01,9.99994e-01,6.76637e-06,9.99999e-01
4.310730950e-01,8.55989e-06,9.99999e-01,9.99999e-01,9.99997e-01,8.55991e-06,9.99999e-01
4.332284605e-01,1.07787e-05,9.99999e-01,9.99999e-01,9.99998e-01,1.07787e-05,9.99999e-01
4.353946028e-01,1.35109e-05,9.99999e-01,9.99999e-01,9.99999e-01,1.35109e-05,9.99999e-01
4.375715758e-01,1.68602e-05,9.99999e-01,9.99999e-01,9.99995e-01,1.68603e-05,9.99999e-01
4.397594337e-01,2.09475e-05,9.99999e-01,9.99999e-01,9.99966e-01,2.09482e-05,9.99999e-01
4.419582309e-01,2.59115e-05,9.99999e-01,9.99999e-01,9.99830e-01,2.59159e-05,9.99999e-01
4.441680220e-01,3.19229e-05,9.99999e-01,9.99999e-01,9.99869e-01,3.19271e-05,9.99999e-01
4.463888621e-01,3.91655e-05,9.99999e-01,9.99999e-01,9.99863e-01,3.91709e-05,9.99999e-01
4.486208064e-01,4.78604e-05,9.99999e-01,9.99999e-01,9.99915e-01,4.78644e-05,9.99999e-01
4.508639105e-01,5.82541e-05,9.99999e-01,9.99999e-01,9.99960e-01,5.82564e-05,9.99999e-01
4.531182300e-01,7.06288e-05,9.99999e-01,9.99999e-01,9.99983e-01,7.06299e-05,9.99999e-01
4.553838212e-01,8.53054e-05,9.99999e-01,9.99999e-01,9.99988e-01,8.53063e-05,9.99999e-01
4.576607403e-01,1.02648e-04,9.99999e-01,9.99999e-01,9.99994e-01,1.02649e-04,9.99999e-01
4.599490440e-01,1.23066e-04,9.99999e-01,9.99999e-01,9.99996e-01,1.23067e-04,9.99999e-01
4.622487892e-01,1.47018e-04,9.99999e-01,9.99999e-01,9.99998e-01,1.47018e-04,9.99999e-01
4.645600332e-01,1.75014e-04,9.99999e-01,9.99999e-01,9.99997e-01,1.75014e-04,9.99999e-01
4.668828333e-01,2.07618e-04,9.99999e-01,9.99999e-01,9.99959e-01,2.07626e-04,9.99999e-01
4.692172475e-01,2.45464e-04,9.99999e-01,9.99999e-01,9.99914e-01,2.45485e-04,9.99999e-01
4.715633337e-01,2.89272e-04,9.99999e-01,9.99999e-01,9.99943e-01,2.89288e-04,9.99999e-01
4.739211504e-01,3.39786e-04,9.99999e-01,9.99999e-01,9.99946e-01,3.39804e-04,9.99999e-01
4.762907561e-01,3.97863e-04,9.99999e-01,9.99999e-01,9.99971e-01,3.97873e-04,9.99999e-01
4.786722099e-01,4.64412e-04,9.99999e-01,9.99999e-01,9.99988e-01,4.64417e-04,9.99999e-01
4.810655710e-01,5.40435e-04,9.99999e-01,9.99999e-01,9.99996e-01,5.40437e-04,9.99999e-01
4.834708988e-01,6.27000e-04,9.99999e-01,9.99999e-01,9.99966e-01,6.27020e-04,9.99999e-01
4.858882533e-01,7.25299e-04,9.99999e-01,9.99999e-01,9.99939e-01,7.25343e-04,9.99999e-01
4.883176946e-01,8.36630e-04,9.99999e-01,9.99999e-01,9.99948e-01,8.36672e-04,9.99999e-01
4.907592831e-01,9.62327e-04,9.99999e-01,9.99999e-01,9.99953e-01,9.62371e-04,9.99999e-01
4.932130795e-01,1.10386e-03,9.99999e-01,9.99999e-01,9.99967e-01,1.10390e-03,9.99999e-01
4.956791449e-01,1.26279e-03,9.99999e-01,9.99999e-01,9.99982e-01,1.26281e-03,9.99999e-01
4.981575406e-01,1.44064e-03,9.99999e-01,9.99999e-01,9.99913e-01,1.44077e-03,9.99999e-01
5.006483283e-01,1.63916e-03,9.99999e-01,9.99999e-01,9.99775e-01,1.63953e-03,9.99998e-01
5.031515699e-01,1.85883e-03,9.99999e-01,9.99999e-01,9.98872e-01,1.86095e-03,9.99987e-01
5.056673278e-01,2.10572e-03,9.99999e-01,9.99999e-01,9.99405e-01,2.10700e-03,9.99985e-01
5.081956644e-01,2.37794e-03,9.99999e-01,9.99999e-01,9.99251e-01,2.37974e-03,9.99991e-01
5.107366428e-01,2.67996e-03,9.99999e-01,9.99999e-01,9.99494e-01,2.68132e-03,9.99998e-01
5.132903260e-01,3.01315e-03,9.99999e-01,9.99999e-01,9.99711e-01,3.01401e-03,9.99999e-01
5.158567776e-01,3.37976e-03,9.99999e-01,9.99999e-01,9.99877e-01,3.38017e-03,9.99999e-01
5.184360615e-01,3.78205e-03,9.99999e-01,9.99999e-01,9.99950e-01,3.78223e-03,9.99999e-01
5.210282418e-01,4.22265e-03,9.99999e-01,9.99999e-01,9.99981e-01,4.22273e-03,9.99999e-01
5.236333830e-01,4.70394e-03,9.99999e-01,9.99999e-01,9.99926e-01,4.70429e-03,9.99998e-01
5.262515499e-01,5.22935e-03,9.99999e-01,9.99999e-01,9.99953e-01,5.22959e-03,9.99998e-01
5.288828077e-01,5.80117e-03,9.99999e-01,9.99999e-01,9.99957e-01,5.80141e-03,9.99999e-01
5.315272217e-01,6.42234e-03,9.99999e-01,9.99999e-01,9.99962e-01,6.42258e-03,9.99999e-01
5.341848578e-01,7.09581e-03,9.99999e-01,9.99999e-01,9.99975e-01,7.09599e-03,9.99999e-01
5.368557821e-01,7.82390e-03,9.99999e-01,9.99999e-01,9.99913e-01,7.82457e-03,9.99999e-01
5.395400610e-01,8.60862e-03,9.99999e-01,9.99999e-01,9.99688e-01,8.61132e-03,9.99996e-01
5.422377613e-01,9.45544e-03,9.99999e-01,9.99999e-01,9.99601e-01,9.45927e-03,9.99992e-01
5.449489501e-01,1.03675e-02,9.99999e-01,9.99999e-01,9.99627e-01,1.03714e-02,9.99992e-01
5.476736949e-01,1.13472e-02,9.99999e-01,9.99999e-01,9.99672e-01,1.13509e-02,9.99995e-01
5.504120634e-01,1.23978e-02,9.99999e-01,9.99999e-01,9.99761e-01,1.24008e-02,9.99998e-01
5.531641237e-01,1.35225e-02,9.99999e-01,9.99999e-01,9.99880e-01,1.35241e-02,9.99999e-01
5.559299443e-01,1.47231e-02,9.99999e-01,9.99999e-01,9.99941e-01,1.47239e-02,9.99999e-01
5.587095940e-01,1.60027e-02,9.99999e-01,9.99999e-01,9.99963e-01,1.60033e-02,9.99999e-01
5.615031420e-01,1.73645e-02,9.99999e-01,9.99999e-01,9.99959e-01,1.73652e-02,9.99999e-01
5.643106577e-01,1.88118e-02,9.99999e-01,9.99999e-01,9.99953e-01,1.88127e-02,9.99999e-01
5.671322110e-01,2.03371e-02,9.99999e-01,9.99999e-01,9.99435e-01,2.03486e-02,9.99994e-01
5.699678720e-01,2.19626e-02,9.99999e-01,9.99999e-01,9.99411e-01,2.19759e-02,9.99984e-01
5.728177114e-01,2.36823e-02,9.99999e-01,9.99999e-01,9.99382e-01,2.36972e-02,9.99986e-01
5.756818000e-01,2.55007e-02,9.99999e-01,9.99999e-01,9.99433e-01,2.55153e-02,9.99992e-01
5.785602090e-01,2.74192e-02,9.99999e-01,9.99999e-01,9.99507e-01,2.74328e-02,9.99997e-01
5.814530100e-01,2.94376e-02,9.99999e-01,9.99999e-01,9.99504e-01,2.94522e-02,9.99998e-01
5.843602750e-01,3.15571e-02,9.99999e-01,9.99999e-01,9.99405e-01,3.15760e-02,9.99996e-01
5.872820764e-01,3.36325e-02,9.99999e-01,9.99999e-01,9.94892e-01,3.38063e-02,9.99963e-01
5.902184868e-01,3.59198e-02,9.99999e-01,9.99999e-01,9.93851e-01,3.61455e-02,9.99902e-01
5.931695792e-01,3.84238e-02,9.99999e-01,9.99999e-01,9.95644e-01,3.85955e-02,9.99905e-01
5.961354271e-01,4.09598e-02,9.99999e-01,9.99999e-01,9.95233e-01,4.11581e-02,9.99945e-01
5.991161043e-01,4.36822e-02,9.99999e-01,9.99999e-01,9.96524e-01,4.38353e-02,9.99982e-01
6.021116848e-01,4.65364e-02,9.99999e-01,9.99999e-01,9.98028e-01,4.66284e-02,9.99997e-01
6.051222432e-01,4.94897e-02,9.99999e-01,9.99999e-01,9.99002e-01,4.95391e-02,9.99999e-01
6.081478544e-01,5.25460e-02,9.99999e-01,9.99999e-01,9.99569e-01,5.25686e-02,9.99999e-01
6.111885937e-01,5.57078e-02,9.99999e-01,9.99999e-01,9.99817e-01,5.57179e-02,9.99999e-01
6.142445367e-01,5.89834e-02,9.99999e-01,9.99999e-01,9.99918e-01,5.89882e-02,9.99999e-01
6.173157594e-01,6.23772e-02,9.99999e-01,9.99999e-01,9.99954e-01,6.23800e-02,9.99999e-01
6.204023382e-01,6.58915e-02,9.99999e-01,9.99999e-01,9.99961e-01,6.58940e-02,9.99999e-01
6.235043498e-01,6.95189e-02,9.99999e-01,9.99999e-01,9.99830e-01,6.95307e-02,9.99999e-01
6.266218716e-01,7.32248e-02,9.99999e-01,9.99999e-01,9.99112e-01,7.32903e-02,9.99993e-01
6.297549810e-01,7.71468e-02,9.99999e-01,9.99999e-01,9.99674e-01,7.71729e-02,9.99987e-01
6.329037559e-01,8.11254e-02,9.99999e-01,9.99999e-01,9.99357e-01,8.11783e-02,9.99989e-01
6.360682746e-01,8.52591e-02,9.99999e-01,9.99999e-01,9.99451e-01,8.53063e-02,9.99993e-01
6.392486160e-01,8.94927e-02,9.99999e-01,9.99999e-01,9.99289e-01,8.95565e-02,9.99996e-01
6.424448591e-01,9.38380e-02,9.99999e-01,9.99999e-01,9.99044e-01,9.39282e-02,9.99994e-01
6.456570834e-01,9.79820e-02,9.99999e-01,9.99999e-01,9.95570e-01,9.84205e-02,9.99972e-01
6.488853688e-01,1.02694e-01,9.99999e-01,9.99999e-01,9.96779e-01,1.03033e-01,9.99931e-01
6.521297956e-01,1.07404e-01,9.99999e-01,9.99999e-01,9.96717e-01,1.07763e-01,9.99943e-01
6.553904446e-01,1.12238e-01,9.99999e-01,9.99999e-01,9.96722e-01,1.12611e-01,9.99957e-01
6.586673968e-01,1.17244e-01,9.99999e-01,9.99999e-01,9.97200e-01,1.17575e-01,9.99985e-01
6.619607338e-01,1.22462e-01,9.99999e-01,9.99999e-01,9.98439e-01,1.22653e-01,9.99996e-01
6.652705375e-01,1.27724e-01,9.99999e-01,9.99999e-01,9.99063e-01,1.27844e-01,9.99997e-01
6.685968902e-01,1.33092e-01,9.99999e-01,9.99999e-01,9.99601e-01,1.33145e-01,9.99999e-01
6.719398746e-01,1.38527e-01,9.99999e-01,9.99999e-01,9.99798e-01,1.38555e-01,9.99999e-01
6.752995740e-01,1.44056e-01,9.99999e-01,9.99999e-01,9.99893e-01,1.44071e-01,9.99999e-01
6.786760719e-01,1.49668e-01,9.99999e-01,9.99999e-01,9.99840e-01,1.49692e-01,9.99999e-01
6.820694522e-01,1.55371e-01,9.99999e-01,9.99999e-01,9.99728e-01,1.55414e-01,9.99998e-01
6.854797995e-01,1.61178e-01,9.99999e-01,9.99999e-01,9.99650e-01,1.61235e-01,9.99996e-01
6.889071985e-01,1.67009e-01,9.99999e-01,9.99999e-01,9.99144e-01,1.67153e-01,9.99991e-01
6.923517345e-01,1.70765e-01,9.99999e-01,9.99999e-01,9.86209e-01,1.73165e-01,9.99933e-01
6.958134932e-01,1.77970e-01,9.99999e-01,9.99999e-01,9.92908e-01,1.79267e-01,9.99853e-01
6.992925606e-01,1.84167e-01,9.99999e-01,9.99999e-01,9.93167e-01,1.85458e-01,9.99867e-01
7.027890234e-01,1.90108e-01,9.99999e-01,9.99999e-01,9.91614e-01,1.91735e-01,9.99898e-01
7.063029686e-01,1.96685e-01,9.99999e-01,9.99999e-01,9.92941e-01,1.98093e-01,9.99949e-01
7.098344834e-01,2.03139e-01,9.99999e-01,9.99999e-01,9.93226e-01,2.04530e-01,9.99969e-01
7.133836558e-01,2.09113e-01,9.99999e-01,9.99999e-01,9.90908e-01,2.11043e-01,9.99940e-01
7.169505741e-01,2.02188e-01,9.99999e-01,9.99999e-01,9.29479e-01,2.17629e-01,9.99536e-01
7.205353270e-01,2.16317e-01,9.99999e-01,9.99999e-01,9.65265e-01,2.24284e-01,9.99181e-01
7.241380036e-01,2.20596e-01,9.99999e-01,9.99999e-01,9.55613e-01,2.31005e-01,9.99293e-01
7.277586936e-01,2.28119e-01,9.99999e-01,9.99999e-01,9.59887e-01,2.37789e-01,9.99422e-01
7.313974871e-01,2.34188e-01,9.99999e-01,9.99999e-01,9.57563e-01,2.44632e-01,9.99729e-01
7.350544745e-01,2.45615e-01,9.99999e-01,9.99999e-01,9.76568e-01,2.51532e-01,9.99905e-01
7.387297469e-01,2.54004e-01,9.99999e-01,9.99999e-01,9.82712e-01,2.58483e-01,9.99956e-01
7.424233956e-01,2.63230e-01,9.99999e-01,9.99999e-01,9.91518e-01,2.65484e-01,9.99992e-01
7.461355126e-01,2.71126e-01,9.99999e-01,9.99999e-01,9.94847e-01,2.72530e-01,9.99998e-01
7.498661902e-01,2.78949e-01,9.99999e-01,9.99999e-01,9.97603e-01,2.79619e-01,9.99998e-01
7.536155211e-01,2.86409e-01,9.99999e-01,9.99999e-01,9.98821e-01,2.86747e-01,9.99999e-01
7.573835987e-01,2.93732e-01,9.99999e-01,9.99999e-01,9.99393e-01,2.93910e-01,9.99999e-01
7.611705167e-01,3.00992e-01,9.99999e-01,9.99999e-01,9.99622e-01,3.01105e-01,9.99999e-01
7.649763693e-01,3.08256e-01,9.99999e-01,9.99999e-01,9.99763e-01,3.08329e-01,9.99999e-01
7.688012511e-01,3.15527e-01,9.99999e-01,9.99999e-01,9.99834e-01,3.15579e-01,9.99999e-01
7.726452574e-01,3.22807e-01,9.99999e-01,9.99999e-01,9.99863e-01,3.22851e-01,9.99999e-01
7.765084837e-01,3.30078e-01,9.99999e-01,9.99999e-01,9.99805e-01,3.30142e-01,9.99999e-01
7.803910261e-01,3.20606e-01,9.99999e-01,9.50850e-01,9.99161e-01,3.37448e-01,9.99998e-01
7.842929812e-01,2.75496e-01,9.99999e-01,8.01267e-01,9.97075e-01,3.44767e-01,9.99994e-01
7.882144461e-01,2.76068e-01,9.99999e-01,7.88556e-01,9.94015e-01,3.52096e-01,9.99958e-01
7.921555184e-01,3.11309e-01,9.99999e-01,8.68925e-01,9.96726e-01,3.59431e-01,9.99928e-01
7.961162960e-01,3.31984e-01,9.99999e-01,9.10452e-01,9.94175e-01,3.66770e-01,9.99931e-01
8.000968774e-01,3.53133e-01,9.99999e-01,9.50339e-01,9.93300e-01,3.74109e-01,9.99927e-01
8.040973618e-01,3.69032e-01,9.99999e-01,9.74025e-01,9.93292e-01,3.81445e-01,9.99944e-01
8.081178486e-01,3.78277e-01,9.99999e-01,9.87956e-01,9.84877e-01,3.88776e-01,9.99943e-01
8.121584379e-01,3.70319e-01,9.99999e-01,9.96291e-01,9.38540e-01,3.96099e-01,9.99787e-01
8.162192301e-01,3.73746e-01,9.99999e-01,9.99179e-01,9.27938e-01,4.03412e-01,9.99204e-01
8.203003262e-01,3.95195e-01,9.99999e-01,9.99988e-01,9.63127e-01,4.10711e-01,9.99068e-01
8.244018279e-01,3.96688e-01,9.99999e-01,9.99999e-01,9.49731e-01,4.17994e-01,9.99258e-01
8.285238370e-01,4.06377e-01,9.99999e-01,9.99999e-01,9.56157e-01,4.25258e-01,9.99417e-01
8.326664562e-01,4.13294e-01,9.99999e-01,9.99999e-01,9.55819e-01,4.32501e-01,9.99758e-01
8.368297885e-01,4.25744e-01,9.99999e-01,9.99999e-01,9.68265e-01,4.39721e-01,9.99944e-01
8.410139374e-01,4.38425e-01,9.99999e-01,9.99999e-01,9.81031e-01,4.46916e-01,9.99967e-01
8.452190071e-01,4.49834e-01,9.99999e-01,9.99999e-01,9.90663e-01,4.54082e-01,9.99980e-01
8.494451021e-01,4.58703e-01,9.99999e-01,9.99999e-01,9.94560e-01,4.61219e-01,9.99984e-01
8.536923276e-01,4.66815e-01,9.99999e-01,9.99999e-01,9.96787e-01,4.68323e-01,9.99990e-01
8.579607893e-01,4.74450e-01,9.99999e-01,9.99999e-01,9.98016e-01,4.75394e-01,9.99997e-01
8.622505932e-01,4.81821e-01,9.99999e-01,9.99999e-01,9.98741e-01,4.82428e-01,9.99999e-01
8.665618462e-01,4.42382e-01,9.99999e-01,9.04554e-01,9.99219e-01,4.89424e-01,9.99999e-01
8.708946554e-01,2.83518e-01,9.99999e-01,5.71657e-01,9.99105e-01,4.96381e-01,9.99999e-01
8.752491287e-01,3.19434e-01,9.99999e-01,6.35413e-01,9.98803e-01,5.03296e-01,9.99998e-01
8.796253743e-01,3.96346e-01,9.99999e-01,7.78133e-01,9.98340e-01,5.10168e-01,9.99995e-01
8.840235012e-01,4.52815e-01,9.99999e-01,8.77494e-01,9.98105e-01,5.16995e-01,9.99988e-01
8.884436187e-01,4.94095e-01,9.99999e-01,9.49895e-01,9.93024e-01,5.23776e-01,9.99966e-01
8.928858368e-01,4.82958e-01,9.99999e-01,9.79347e-01,9.29490e-01,5.30509e-01,9.99810e-01
8.973502660e-01,4.69667e-01,9.99999e-01,9.94965e-01,8.79438e-01,5.37194e-01,9.99031e-01
9.018370173e-01,5.08432e-01,9.99999e-01,9.99444e-01,9.36832e-01,5.43828e-01,9.98478e-01
9.063462024e-01,5.11522e-01,9.99999e-01,9.85561e-01,9.43593e-01,5.50411e-01,9.98663e-01
9.108779334e-01,4.91988e-01,9.99999e-01,9.67559e-01,9.13722e-01,5.56941e-01,9.98611e-01
9.154323231e-01,5.04218e-01,9.99999e-01,9.92345e-01,9.02651e-01,5.63417e-01,9.98851e-01
9.200094847e-01,4.73577e-01,9.99999e-01,8.95575e-01,9.23087e-01,5.69838e-01,9.99356e-01
9.246095321e-01,4.33814e-01,9.99999e-01,8.51024e-01,8.81730e-01,5.76204e-01,9.99259e-01
9.292325798e-01,2.28578e-01,9.99999e-01,8.80959e-01,4.39041e-01,5.82513e-01,9.96430e-01
9.338787427e-01,1.82694e-01,9.99999e-01,8.85107e-01,3.49200e-01,5.88764e-01,9.87157e-01
9.385481364e-01,3.52827e-01,9.99999e-01,9.14029e-01,6.53385e-01,5.94957e-01,9.85898e-01
9.432408771e-01,3.13414e-01,9.99999e-01,9.46489e-01,5.55355e-01,6.01090e-01,9.87822e-01
9.479570815e-01,2.61769e-01,9.99999e-01,9.72135e-01,4.46994e-01,6.07164e-01,9.90078e-01
9.526968669e-01,3.27369e-01,9.99999e-01,9.86491e-01,5.43634e-01,6.13178e-01,9.93936e-01
9.574603512e-01,3.47267e-01,9.99999e-01,9.94204e-01,5.65599e-01,6.19131e-01,9.96915e-01
9.622476530e-01,3.91001e-01,9.99999e-01,9.98190e-01,6.27956e-01,6.25022e-01,9.97865e-01
9.670588912e-01,4.81031e-01,9.99999e-01,9.99458e-01,7.64009e-01,6.30851e-01,9.98539e-01
9.718941857e-01,5.36764e-01,9.99999e-01,9.99961e-01,8.44085e-01,6.36617e-01,9.98924e-01
9.767536566e-01,5.57507e-01,9.99999e-01,9.99999e-01,8.68670e-01,6.42321e-01,9.99178e-01
9.816374249e-01,5.83639e-01,9.99999e-01,9.99999e-01,9.00986e-01,6.47962e-01,9.99715e-01
9.865456120e-01,6.12275e-01,9.99999e-01,9.99999e-01,9.36914e-01,6.53540e-01,9.99940e-01
9.914783401e-01,6.33008e-01,9.99999e-01,9.99999e-01,9.60495e-01,6.59054e-01,9.99983e-01
9.964357318e-01,6.50076e-01,9.99999e-01,9.99999e-01,9.78296e-01,6.64504e-01,9.99989e-01
1.001417910e+00,6.61131e-01,9.99999e-01,9.99999e-01,9.86938e-01,6.69891e-01,9.99984e-01
1.006425000e+00,6.70151e-01,9.99999e-01,9.99999e-01,9.92524e-01,6.75213e-01,9.99978e-01
1.011457125e+00,6.77302e-01,9.99999e-01,9.99999e-01,9.95362e-01,6.80471e-01,9.99980e-01
1.016514411e+00,6.83494e-01,9.99999e-01,9.99999e-01,9.96846e-01,6.85665e-01,9.99985e-01
1.021596983e+00,6.88991e-01,9.99999e-01,9.99915e-01,9.97485e-01,6.90795e-01,9.99986e-01
1.026704968e+00,6.90545e-01,9.99999e-01,9.94316e-01,9.98037e-01,6.95861e-01,9.99991e-01
1.031838492e+00,6.57406e-01,9.99999e-01,9.39282e-01,9.98575e-01,7.00863e-01,9.99996e-01
1.036997685e+00,7.36446e-02,9.99999e-01,1.04410e-01,9.99152e-01,7.05801e-01,9.99999e-01
1.042182673e+00,3.40198e-02,9.99999e-01,4.79109e-02,9.98986e-01,7.10675e-01,9.99999e-01
1.047393587e+00,5.03196e-02,9.99999e-01,7.04111e-02,9.98658e-01,7.15486e-01,9.99999e-01
1.052630555e+00,3.39894e-04,9.99999e-01,4.72527e-04,9.98157e-01,7.20233e-01,9.99999e-01
1.057893707e+00,1.06788e-03,9.99999e-01,1.47591e-03,9.96923e-01,7.24917e-01,9.99998e-01
1.063183176e+00,5.70289e-03,9.99999e-01,7.84349e-03,9.94944e-01,7.29538e-01,9.99996e-01
1.068499092e+00,2.27673e-02,9.99999e-01,3.12222e-02,9.91554e-01,7.34096e-01,9.99993e-01
1.073841587e+00,8.14721e-02,9.99999e-01,1.11203e-01,9.90111e-01,7.38592e-01,9.99987e-01
1.079210795e+00,1.82891e-01,9.99999e-01,2.48906e-01,9.87370e-01,7.43026e-01,9.99965e-01
1.084606849e+00,3.39535e-01,9.99999e-01,4.62581e-01,9.80921e-01,7.47398e-01,9.99918e-01
1.090029883e+00,4.89799e-01,9.99999e-01,6.69298e-01,9.72605e-01,7.51709e-01,9.99830e-01
1.095480033e+00,5.75634e-01,9.99999e-01,8.20510e-01,9.27205e-01,7.55958e-01,9.99694e-01
1.100957433e+00,5.70984e-01,9.99999e-01,9.08956e-01,8.25633e-01,7.60148e-01,9.99438e-01
1.106462220e+00,4.53950e-01,9.99999e-01,9.61322e-01,6.17183e-01,7.64276e-01,9.99047e-01
1.111994531e+00,2.77714e-01,9.99999e-01,9.85481e-01,3.67156e-01,7.68345e-01,9.97474e-01
1.117554504e+00,1.53619e-01,9.99999e-01,9.96449e-01,2.01257e-01,7.72355e-01,9.90912e-01
1.123142276e+00,2.41943e-01,9.99999e-01,9.99767e-01,3.18505e-01,7.76306e-01,9.78583e-01
1.128757988e+00,3.57699e-01,9.99999e-01,9.99999e-01,4.70098e-01,7.80198e-01,9.75266e-01
1.134401778e+00,1.83296e-01,9.99999e-01,9.99999e-01,2.38818e-01,7.84033e-01,9.78929e-01
1.140073787e+00,4.89699e-01,9.99999e-01,9.99999e-01,6.32262e-01,7.87810e-01,9.83128e-01
1.145774156e+00,3.05834e-01,9.99999e-01,9.99999e-01,3.92448e-01,7.91530e-01,9.84545e-01
1.151503026e+00,2.79779e-01,9.99999e-01,9.99999e-01,3.54904e-01,7.95194e-01,9.91360e-01
1.157260541e+00,3.28447e-01,9.99999e-01,9.99999e-01,4.12242e-01,7.98801e-01,9.97408e-01
1.163046844e+00,4.15784e-01,9.99999e-01,9.99999e-01,5.18586e-01,8.02354e-01,9.99264e-01
1.168862078e+00,5.08405e-01,9.99999e-01,9.99999e-01,6.31131e-01,8.05851e-01,9.99620e-01
1.174706389e+00,6.08738e-01,9.99999e-01,9.99999e-01,7.52561e-01,8.09294e-01,9.99497e-01
1.180579921e+00,6.82846e-01,9.99999e-01,9.99999e-01,8.40873e-01,8.12684e-01,9.99240e-01
1.186482820e+00,7.39150e-01,9.99999e-01,9.99987e-01,9.06513e-01,8.16020e-01,9.99220e-01
1.192415234e+00,7.57953e-01,9.99999e-01,9.79956e-01,9.44273e-01,8.19304e-01,9.99416e-01
1.198377311e+00,4.33609e-01,9.99999e-01,5.49173e-01,9.52772e-01,8.22536e-01,9.99448e-01
1.204369197e+00,1.12070e-15,9.99999e-01,1.39429e-15,9.55308e-01,8.25716e-01,9.99500e-01
1.210391043e+00,6.77203e-60,9.99999e-01,8.37388e-60,9.57209e-01,8.28845e-01,9.99696e-01
1.216442998e+00,5.47817e-52,9.99999e-01,6.73952e-52,9.63532e-01,8.31924e-01,9.99813e-01
1.222525213e+00,3.19854e-51,9.99999e-01,3.88881e-51,9.71470e-01,8.34953e-01,9.99884e-01
1.228637839e+00,1.16692e-39,9.99999e-01,1.41194e-39,9.80094e-01,8.37934e-01,9.99945e-01
