#,Wave/freq,Total,N2,CO2,H2O,Rayleigh,CIA
4.000000000e-01,1.59873e-02,9.99999e-01,9.99999e-01,9.99991e-01,1.59875e-02,9.99999e-01
4.020000000e-01,1.73498e-02,9.99999e-01,9.99999e-01,9.99994e-01,1.73498e-02,9.99999e-01
4.040100000e-01,1.87963e-02,9.99999e-01,9.99999e-01,9.99997e-01,1.87964e-02,9.99999e-01
4.060300500e-01,2.03313e-02,9.99999e-01,9.99999e-01,9.99999e-01,2.03313e-02,9.99999e-01
4.080602003e-01,2.19575e-02,9.99999e-01,9.99999e-01,9.99999e-01,2.19575e-02,9.99999e-01
4.101005013e-01,2.36778e-02,9.99999e-01,9.99999e-01,9.99999e-01,2.36778e-02,9.99999e-01
4.121510038e-01,2.54948e-02,9.99999e-01,9.99999e-01,9.99999e-01,2.54948e-02,9.99999e-01
4.142117588e-01,2.74112e-02,9.99999e-01,9.99999e-01,9.99997e-01,2.74112e-02,9.99999e-01
4.162828176e-01,2.94292e-02,9.99999e-01,9.99999e-01,9.99989e-01,2.94295e-02,9.99999e-01
4.183642317e-01,3.15519e-02,9.99999e-01,9.99999e-01,9.99993e-01,3.15521e-02,9.99999e-01
4.204560528e-01,3.37812e-02,9.99999e-01,9.99999e-01,9.99995e-01,3.37813e-02,9.99999e-01
4.225583331e-01,3.61192e-02,9.99999e-01,9.99999e-01,9.99998e-01,3.61192e-02,9.99999e-01
4.246711247e-01,3.85679e-02,9.99999e-01,9.99999e-01,9.99998e-01,3.85680e-02,9.99999e-01
4.267944804e-01,4.11293e-02,9.99999e-01,9.99999e-01,9.99997e-01,4.11294e-02,9.99999e-01
4.289284528e-01,4.38052e-02,9.99999e-01,9.99999e-01,9.99998e-01,4.38053e-02,9.99999e-01
4.310730950e-01,4.65971e-02,9.99999e-01,9.99999e-01,9.99998e-01,4.65972e-02,9.99999e-01
4.332284605e-01,4.95065e-02,9.99999e-01,9.99999e-01,9.99999e-01,4.95065e-02,9.99999e-01
4.353946028e-01,5.25347e-02,9.99999e-01,9.99999e-01,9.99999e-01,5.25347e-02,9.99999e-01
4.375715758e-01,5.56827e-02,9.99999e-01,9.99999e-01,9.99998e-01,5.56827e-02,9.99999e-01
4.397594337e-01,5.89511e-02,9.99999e-01,9.99999e-01,9.99990e-01,5.89516e-02,9.99999e-01
4.419582309e-01,6.23394e-02,9.99999e-01,9.99999e-01,9.99955e-01,6.23421e-02,9.99999e-01
4.441680220e-01,6.58526e-02,9.99999e-01,9.99999e-01,9.99965e-01,6.58548e-02,9.99999e-01
4.463888621e-01,6.94877e-02,9.99999e-01,9.99999e-01,9.99963e-01,6.94902e-02,9.99999e-01
4.486208064e-01,7.32468e-02,9.99999e-01,9.99999e-01,9.99977e-01,7.32484e-02,9.99999e-01
4.508639105e-01,7.71288e-02,9.99999e-01,9.99999e-01,9.99989e-01,7.71296e-02,9.99999e-01
4.531182300e-01,8.11334e-02,9.99999e-01,9.99999e-01,9.99995e-01,8.11337e-02,9.99999e-01
4.553838212e-01,8.52602e-02,9.99999e-01,9.99999e-01,9.99996e-01,8.52604e-02,9.99999e-01
4.576607403e-01,8.95091e-02,9.99999e-01,9.99999e-01,9.99998e-01,8.95092e-02,9.99999e-01
4.599490440e-01,9.38795e-02,9.99999e-01,9.99999e-01,9.99998e-01,9.38795e-02,9.99999e-01
4.622487892e-01,9.83706e-02,9.99999e-01,9.99999e-01,9.99999e-01,9.83706e-02,9.99999e-01
4.645600332e-01,1.02981e-01,9.99999e-01,9.99999e-01,9.99998e-01,1.02981e-01,9.99999e-01
4.668828333e-01,1.07710e-01,9.99999e-01,9.99999e-01,9.99989e-01,1.07711e-01,9.99999e-01
4.692172475e-01,1.12555e-01,9.99999e-01,9.99999e-01,9.99977e-01,1.12557e-01,9.99999e-01
4.715633337e-01,1.17518e-01,9.99999e-01,9.99999e-01,9.99984e-01,1.17520e-01,9.99999e-01
4.739211504e-01,1.22595e-01,9.99999e-01,9.99999e-01,9.99985e-01,1.22597e-01,9.99999e-01
4.762907561e-01,1.27785e-01,9.99999e-01,9.99999e-01,9.99992e-01,1.27786e-01,9.99999e-01
4.786722099e-01,1.33086e-01,9.99999e-01,9.99999e-01,9.99996e-01,1.33086e-01,9.99999e-01
4.810655710e-01,1.38495e-01,9.99999e-01,9.99999e-01,9.99998e-01,1.38495e-01,9.99999e-01
4.834708988e-01,1.44009e-01,9.99999e-01,9.99999e-01,9.99990e-01,1.44010e-01,9.99999e-01
4.858882533e-01,1.49627e-01,9.99999e-01,9.99999e-01,9.99983e-01,1.49629e-01,9.99999e-01
4.883176946e-01,1.55348e-01,9.99999e-01,9.99999e-01,9.99986e-01,1.55350e-01,9.99999e-01
4.907592831e-01,1.61169e-01,9.99999e-01,9.99999e-01,9.99987e-01,1.61171e-01,9.99999e-01
4.932130795e-01,1.67086e-01,9.99999e-01,9.99999e-01,9.99990e-01,1.67087e-01,9.99999e-01
4.956791449e-01,1.73097e-01,9.99999e-01,9.99999e-01,9.99995e-01,1.73098e-01,9.99999e-01
4.981575406e-01,1.79196e-01,9.99999e-01,9.99999e-01,9.99976e-01,1.79200e-01,9.99999e-01
5.006483283e-01,1.85379e-01,9.99999e-01,9.99999e-01,9.99941e-01,1.85390e-01,9.99999e-01
5.031515699e-01,1.91608e-01,9.99999e-01,9.99999e-01,9.99703e-01,1.91665e-01,9.99996e-01
5.056673278e-01,1.97991e-01,9.99999e-01,9.99999e-01,9.99843e-01,1.98023e-01,9.99995e-01
5.081956644e-01,2.04419e-01,9.99999e-01,9.99999e-01,9.99802e-01,2.04459e-01,9.99997e-01
5.107366428e-01,2.10943e-01,9.99999e-01,9.99999e-01,9.99866e-01,2.10972e-01,9.99999e-01
5.132903260e-01,2.17540e-01,9.99999e-01,9.99999e-01,9.99923e-01,2.17557e-01,9.99999e-01
5.158567776e-01,2.24204e-01,9.99999e-01,9.99999e-01,9.99967e-01,2.24211e-01,9.99999e-01
5.184360615e-01,2.30928e-01,9.99999e-01,9.99999e-01,9.99986e-01,2.30931e-01,9.99999e-01
5.210282418e-01,2.37713e-01,9.99999e-01,9.99999e-01,9.99994e-01,2.37715e-01,9.99999e-01
5.236333830e-01,2.44552e-01,9.99999e-01,9.99999e-01,9.99980e-01,2.44557e-01,9.99999e-01
5.262515499e-01,2.51452e-01,9.99999e-01,9.99999e-01,9.99987e-01,2.51456e-01,9.99999e-01
5.288828077e-01,2.58404e-01,9.99999e-01,9.99999e-01,9.99988e-01,2.58407e-01,9.99999e-01
5.315272217e-01,2.65404e-01,9.99999e-01,9.99999e-01,9.99989e-01,2.65407e-01,9.99999e-01
5.341848578e-01,2.72451e-01,9.99999e-01,9.99999e-01,9.99993e-01,2.72453e-01,9.99999e-01
5.368557821e-01,2.79535e-01,9.99999e-01,9.99999e-01,9.99977e-01,2.79541e-01,9.99999e-01
5.395400610e-01,2.86645e-01,9.99999e-01,9.99999e-01,9.99918e-01,2.86668e-01,9.99998e-01
5.422377613e-01,2.93800e-01,9.99999e-01,9.99999e-01,9.99894e-01,2.93831e-01,9.99997e-01
5.449489501e-01,3.00996e-01,9.99999e-01,9.99999e-01,9.99902e-01,3.01026e-01,9.99997e-01
5.476736949e-01,3.08223e-01,9.99999e-01,9.99999e-01,9.99913e-01,3.08250e-01,9.99998e-01
5.504120634e-01,3.15479e-01,9.99999e-01,9.99999e-01,9.99936e-01,3.15499e-01,9.99999e-01
5.531641237e-01,3.22761e-01,9.99999e-01,9.99999e-01,9.99968e-01,3.22771e-01,9.99999e-01
5.559299443e-01,3.30057e-01,9.99999e-01,9.99999e-01,9.99984e-01,3.30062e-01,9.99999e-01
5.587095940e-01,3.37365e-01,9.99999e-01,9.99999e-01,9.99989e-01,3.37368e-01,9.99999e-01
5.615031420e-01,3.44683e-01,9.99999e-01,9.99999e-01,9.99988e-01,3.44687e-01,9.99999e-01
5.643106577e-01,3.52011e-01,9.99999e-01,9.99999e-01,9.99987e-01,3.52016e-01,9.99999e-01
5.671322110e-01,3.59297e-01,9.99999e-01,9.99999e-01,9.99852e-01,3.59351e-01,9.99998e-01
5.699678720e-01,3.66631e-01,9.99999e-01,9.99999e-01,9.99844e-01,3.66689e-01,9.99995e-01
5.728177114e-01,3.73966e-01,9.99999e-01,9.99999e-01,9.99837e-01,3.74028e-01,9.99996e-01
5.756818000e-01,3.81307e-01,9.99999e-01,9.99999e-01,9.99850e-01,3.81365e-01,9.99997e-01
5.785602090e-01,3.88645e-01,9.99999e-01,9.99999e-01,9.99869e-01,3.88696e-01,9.99998e-01
5.814530100e-01,3.95968e-01,9.99999e-01,9.99999e-01,9.99869e-01,3.96019e-01,9.99999e-01
5.843602750e-01,4.03269e-01,9.99999e-01,9.99999e-01,9.99844e-01,4.03332e-01,9.99998e-01
5.872820764e-01,4.10076e-01,9.99999e-01,9.99999e-01,9.98658e-01,4.10631e-01,9.99990e-01
5.902184868e-01,4.17226e-01,9.99999e-01,9.99999e-01,9.98378e-01,4.17914e-01,9.99973e-01
5.931695792e-01,4.24681e-01,9.99999e-01,9.99999e-01,9.98853e-01,4.25178e-01,9.99974e-01
5.961354271e-01,4.31873e-01,9.99999e-01,9.99999e-01,9.98743e-01,4.32422e-01,9.99985e-01
5.991161043e-01,4.39238e-01,9.99999e-01,9.99999e-01,9.99084e-01,4.39642e-01,9.99995e-01
6.021116848e-01,4.46605e-01,9.99999e-01,9.99999e-01,9.99480e-01,4.46837e-01,9.99999e-01
6.051222432e-01,4.53885e-01,9.99999e-01,9.99999e-01,9.99736e-01,4.54004e-01,9.99999e-01
6.081478544e-01,4.61089e-01,9.99999e-01,9.99999e-01,9.99886e-01,4.61141e-01,9.99999e-01
6.111885937e-01,4.68223e-01,9.99999e-01,9.99999e-01,9.99951e-01,4.68246e-01,9.99999e-01
6.142445367e-01,4.75306e-01,9.99999e-01,9.99999e-01,9.99978e-01,4.75316e-01,9.99999e-01
6.173157594e-01,4.82345e-01,9.99999e-01,9.99999e-01,9.99987e-01,4.82351e-01,9.99999e-01
6.204023382e-01,4.89343e-01,9.99999e-01,9.99999e-01,9.99989e-01,4.89347e-01,9.99999e-01
6.235043498e-01,4.96282e-01,9.99999e-01,9.99999e-01,9.99955e-01,4.96304e-01,9.99999e-01
6.266218716e-01,5.03102e-01,9.99999e-01,9.99999e-01,9.99766e-01,5.03220e-01,9.99997e-01
6.297549810e-01,5.10047e-01,9.99999e-01,9.99999e-01,9.99913e-01,5.10092e-01,9.99996e-01
6.329037559e-01,5.16832e-01,9.99999e-01,9.99999e-01,9.99830e-01,5.16920e-01,9.99996e-01
6.360682746e-01,5.23626e-01,9.99999e-01,9.99999e-01,9.99855e-01,5.23702e-01,9.99997e-01
6.392486160e-01,5.30337e-01,9.99999e-01,9.99999e-01,9.99813e-01,5.30436e-01,9.99998e-01
6.424448591e-01,5.36986e-01,9.99999e-01,9.99999e-01,9.99749e-01,5.37121e-01,9.99998e-01
6.456570834e-01,5.43120e-01,9.99999e-01,9.99999e-01,9.98837e-01,5.43756e-01,9.99993e-01
6.488853688e-01,5.49862e-01,9.99999e-01,9.99999e-01,9.99150e-01,5.50339e-01,9.99981e-01
6.521297956e-01,5.56379e-01,9.99999e-01,9.99999e-01,9.99134e-01,5.56869e-01,9.99984e-01
6.553904446e-01,5.62855e-01,9.99999e-01,9.99999e-01,9.99137e-01,5.63346e-01,9.99988e-01
6.586673968e-01,5.69346e-01,9.99999e-01,9.99999e-01,9.99262e-01,5.69768e-01,9.99995e-01
6.619607338e-01,5.75897e-01,9.99999e-01,9.99999e-01,9.99588e-01,5.76134e-01,9.99998e-01
6.652705375e-01,5.82300e-01,9.99999e-01,9.99999e-01,9.99753e-01,5.82444e-01,9.99999e-01
6.685968902e-01,5.88628e-01,9.99999e-01,9.99999e-01,9.99885e-01,5.88696e-01,9.99999e-01
6.719398746e-01,5.94858e-01,9.99999e-01,9.99999e-01,9.99946e-01,5.94889e-01,9.99999e-01
6.752995740e-01,6.01006e-01,9.99999e-01,9.99999e-01,9.99970e-01,6.01024e-01,9.99999e-01
6.786760719e-01,6.07073e-01,9.99999e-01,9.99999e-01,9.99957e-01,6.07098e-01,9.99999e-01
6.820694522e-01,6.13069e-01,9.99999e-01,9.99999e-01,9.99928e-01,6.13112e-01,9.99999e-01
6.854797995e-01,6.19008e-01,9.99999e-01,9.99999e-01,9.99907e-01,6.19066e-01,9.99998e-01
6.889071985e-01,6.24817e-01,9.99999e-01,9.99999e-01,9.99776e-01,6.24957e-01,9.99997e-01
6.923517345e-01,6.28483e-01,9.99999e-01,9.99999e-01,9.96363e-01,6.30787e-01,9.99982e-01
6.958134932e-01,6.35332e-01,9.99999e-01,9.99999e-01,9.98116e-01,6.36555e-01,9.99961e-01
6.992925606e-01,6.41084e-01,9.99999e-01,9.99999e-01,9.98203e-01,6.42259e-01,9.99964e-01
7.027890234e-01,6.46450e-01,9.99999e-01,9.99999e-01,9.97786e-01,6.47901e-01,9.99973e-01
7.063029686e-01,6.52255e-01,9.99999e-01,9.99999e-01,9.98138e-01,6.53479e-01,9.99986e-01
7.098344834e-01,6.57812e-01,9.99999e-01,9.99999e-01,9.98214e-01,6.58994e-01,9.99991e-01
7.133836558e-01,6.62848e-01,9.99999e-01,9.99999e-01,9.97611e-01,6.64445e-01,9.99984e-01
7.169505741e-01,6.56939e-01,9.99999e-01,9.99999e-01,9.80871e-01,6.69832e-01,9.99877e-01
7.205353270e-01,6.68698e-01,9.99999e-01,9.99999e-01,9.90648e-01,6.75155e-01,9.99784e-01
7.241380036e-01,6.72194e-01,9.99999e-01,9.99999e-01,9.88102e-01,6.80414e-01,9.99813e-01
7.277586936e-01,6.78142e-01,9.99999e-01,9.99999e-01,9.89258e-01,6.85608e-01,9.99847e-01
7.313974871e-01,6.82825e-01,9.99999e-01,9.99999e-01,9.88612e-01,6.90739e-01,9.99928e-01
7.350544745e-01,6.91454e-01,9.99999e-01,9.99999e-01,9.93769e-01,6.95806e-01,9.99974e-01
7.387297469e-01,6.97588e-01,9.99999e-01,9.99999e-01,9.95416e-01,7.00808e-01,9.99988e-01
7.424233956e-01,7.04163e-01,9.99999e-01,9.99999e-01,9.97757e-01,7.05747e-01,9.99997e-01
7.461355126e-01,7.09656e-01,9.99999e-01,9.99999e-01,9.98640e-01,7.10622e-01,9.99999e-01
7.498661902e-01,7.14981e-01,9.99999e-01,9.99999e-01,9.99367e-01,7.15433e-01,9.99999e-01
7.536155211e-01,7.19958e-01,9.99999e-01,9.99999e-01,9.99689e-01,7.20181e-01,9.99999e-01
7.573835987e-01,7.24750e-01,9.99999e-01,9.99999e-01,9.99839e-01,7.24866e-01,9.99999e-01
7.611705167e-01,7.29415e-01,9.99999e-01,9.99999e-01,9.99900e-01,7.29487e-01,9.99999e-01
7.649763693e-01,7.34001e-01,9.99999e-01,9.99999e-01,9.99937e-01,7.34046e-01,9.99999e-01
7.688012511e-01,7.38511e-01,9.99999e-01,9.99999e-01,9.99956e-01,7.38543e-01,9.99999e-01
7.726452574e-01,7.42951e-01,9.99999e-01,9.99999e-01,9.99963e-01,7.42978e-01,9.99999e-01
7.765084837e-01,7.47312e-01,9.99999e-01,9.99999e-01,9.99948e-01,7.47350e-01,9.99999e-01
7.803910261e-01,7.40758e-01,9.99999e-01,9.85706e-01,9.99780e-01,7.51662e-01,9.99999e-01
7.842929812e-01,7.11066e-01,9.99999e-01,9.41381e-01,9.99232e-01,7.55912e-01,9.99998e-01
7.882144461e-01,7.11105e-01,9.99999e-01,9.37000e-01,9.98423e-01,7.60102e-01,9.99988e-01
7.921555184e-01,7.35644e-01,9.99999e-01,9.63435e-01,9.99136e-01,7.64231e-01,9.99980e-01
7.961162960e-01,7.48329e-01,9.99999e-01,9.75508e-01,9.98469e-01,7.68301e-01,9.99981e-01
8.000968774e-01,7.60645e-01,9.99999e-01,9.86651e-01,9.98234e-01,7.72311e-01,9.99980e-01
8.040973618e-01,7.69517e-01,9.99999e-01,9.93075e-01,9.98233e-01,7.76263e-01,9.99984e-01
8.081178486e-01,7.74560e-01,9.99999e-01,9.96813e-01,9.96011e-01,7.80156e-01,9.99985e-01
8.121584379e-01,7.70208e-01,9.99999e-01,9.99017e-01,9.83435e-01,7.83991e-01,9.99943e-01
8.162192301e-01,7.71991e-01,9.99999e-01,9.99782e-01,9.80387e-01,7.87769e-01,9.99790e-01
8.203003262e-01,7.83445e-01,9.99999e-01,9.99996e-01,9.90081e-01,7.91489e-01,9.99754e-01
8.244018279e-01,7.84028e-01,9.99999e-01,9.99999e-01,9.86200e-01,7.95154e-01,9.99804e-01
8.285238370e-01,7.89263e-01,9.99999e-01,9.99999e-01,9.88258e-01,7.98762e-01,9.99846e-01
8.326664562e-01,7.92746e-01,9.99999e-01,9.99999e-01,9.88135e-01,8.02315e-01,9.99936e-01
8.368297885e-01,7.98979e-01,9.99999e-01,9.99999e-01,9.91533e-01,8.05813e-01,9.99985e-01
8.410139374e-01,8.05177e-01,9.99999e-01,9.99999e-01,9.94965e-01,8.09257e-01,9.99991e-01
8.452190071e-01,8.10637e-01,9.99999e-01,9.99999e-01,9.97530e-01,8.12647e-01,9.99994e-01
8.494451021e-01,8.14811e-01,9.99999e-01,9.99999e-01,9.98566e-01,8.15984e-01,9.99995e-01
8.536923276e-01,8.18572e-01,9.99999e-01,9.99999e-01,9.99152e-01,8.19268e-01,9.99997e-01
8.579607893e-01,8.22071e-01,9.99999e-01,9.99999e-01,9.99477e-01,8.22500e-01,9.99998e-01
8.622505932e-01,8.25407e-01,9.99999e-01,9.99999e-01,9.99668e-01,8.25681e-01,9.99999e-01
8.665618462e-01,7.96081e-01,9.99999e-01,9.60702e-01,9.99794e-01,8.28811e-01,9.99999e-01
8.708946554e-01,7.11195e-01,9.99999e-01,8.55111e-01,9.99764e-01,8.31891e-01,9.99999e-01
8.752491287e-01,7.37330e-01,9.99999e-01,8.83387e-01,9.99685e-01,8.34920e-01,9.99999e-01
8.796253743e-01,7.83099e-01,9.99999e-01,9.34998e-01,9.99563e-01,8.37901e-01,9.99998e-01
8.840235012e-01,8.11803e-01,9.99999e-01,9.65954e-01,9.99502e-01,8.40833e-01,9.99996e-01
8.884436187e-01,8.30795e-01,9.99999e-01,9.86485e-01,9.98174e-01,8.43718e-01,9.99990e-01
8.928858368e-01,8.25798e-01,9.99999e-01,9.94506e-01,9.80898e-01,8.46554e-01,9.99949e-01
8.973502660e-01,8.19561e-01,9.99999e-01,9.98665e-01,9.66457e-01,8.49344e-01,9.99745e-01
9.018370173e-01,8.36942e-01,9.99999e-01,9.99852e-01,9.82760e-01,8.52088e-01,9.99599e-01
9.063462024e-01,8.38307e-01,9.99999e-01,9.96177e-01,9.84783e-01,8.54787e-01,9.99648e-01
9.108779334e-01,8.29671e-01,9.99999e-01,9.91334e-01,9.76386e-01,8.57440e-01,9.99634e-01
9.154323231e-01,8.35112e-01,9.99999e-01,9.97965e-01,9.73260e-01,8.60049e-01,9.99697e-01
9.200094847e-01,8.18888e-01,9.99999e-01,9.69397e-01,9.78987e-01,8.62614e-01,9.99830e-01
9.246095321e-01,8.01527e-01,9.99999e-01,9.58201e-01,9.66754e-01,8.65136e-01,9.99804e-01
9.292325798e-01,6.68184e-01,9.99999e-01,9.66814e-01,7.95867e-01,8.67615e-01,9.99240e-01
9.338787427e-01,6.25895e-01,9.99999e-01,9.68107e-01,7.44209e-01,8.70052e-01,9.96866e-01
9.385481364e-01,7.54345e-01,9.99999e-01,9.76527e-01,8.88194e-01,8.72447e-01,9.96274e-01
9.432408771e-01,7.26808e-01,9.99999e-01,9.85600e-01,8.45379e-01,8.74802e-01,9.96785e-01
9.479570815e-01,6.86132e-01,9.99999e-01,9.92585e-01,7.90018e-01,8.77116e-01,9.97382e-01
9.526968669e-01,7.35887e-01,9.99999e-01,9.96419e-01,8.41038e-01,8.79391e-01,9.98402e-01
9.574603512e-01,7.52999e-01,9.99999e-01,9.98468e-01,8.56069e-01,8.81626e-01,9.99188e-01
9.622476530e-01,7.78651e-01,9.99999e-01,9.99522e-01,8.81909e-01,8.83823e-01,9.99438e-01
9.670588912e-01,8.23797e-01,9.99999e-01,9.99856e-01,9.30300e-01,8.85981e-01,9.99615e-01
9.718941857e-01,8.48881e-01,9.99999e-01,9.99989e-01,9.56115e-01,8.88103e-01,9.99716e-01
9.767536566e-01,8.57466e-01,9.99999e-01,9.99999e-01,9.63450e-01,8.90187e-01,9.99783e-01
9.816374249e-01,8.67936e-01,9.99999e-01,9.99999e-01,9.72839e-01,8.92234e-01,9.99924e-01
9.865456120e-01,8.78997e-01,9.99999e-01,9.99999e-01,9.82962e-01,8.94246e-01,9.99983e-01
9.914783401e-01,8.86757e-01,9.99999e-01,9.99999e-01,9.89441e-01,8.96223e-01,9.99995e-01
9.964357318e-01,8.92988e-01,9.99999e-01,9.99999e-01,9.94238e-01,8.98164e-01,9.99996e-01
1.001417910e+00,8.96959e-01,9.99999e-01,9.99999e-01,9.96544e-01,9.00072e-01,9.99995e-01
1.006425000e+00,9.00163e-01,9.99999e-01,9.99999e-01,9.98028e-01,9.01945e-01,9.99994e-01
1.011457125e+00,9.02676e-01,9.99999e-01,9.99999e-01,9.98776e-01,9.03786e-01,9.99994e-01
1.016514411e+00,9.04838e-01,9.99999e-01,9.99999e-01,9.99169e-01,9.05594e-01,9.99995e-01
1.021596983e+00,9.06747e-01,9.99999e-01,9.99978e-01,9.99337e-01,9.07369e-01,9.99995e-01
1.026704968e+00,9.07291e-01,9.99999e-01,9.98513e-01,9.99483e-01,9.09113e-01,9.99997e-01
1.031838492e+00,8.89015e-01,9.99999e-01,9.76413e-01,9.99624e-01,9.10826e-01,9.99998e-01
1.036997685e+00,3.07290e-01,9.99999e-01,3.36817e-01,9.99776e-01,9.12508e-01,9.99999e-01
1.042182673e+00,3.79368e-01,9.99999e-01,4.15095e-01,9.99733e-01,9.14159e-01,9.99999e-01
1.047393587e+00,3.39870e-01,9.99999e-01,3.71246e-01,9.99647e-01,9.15781e-01,9.99999e-01
1.052630555e+00,7.10146e-02,9.99999e-01,7.74410e-02,9.99515e-01,9.17374e-01,9.99999e-01
1.057893707e+00,1.25044e-01,9.99999e-01,1.36164e-01,9.99191e-01,9.18938e-01,9.99999e-01
1.063183176e+00,2.18112e-01,9.99999e-01,2.37221e-01,9.98669e-01,9.20474e-01,9.99998e-01
1.068499092e+00,3.55031e-01,9.99999e-01,3.85868e-01,9.97773e-01,9.21982e-01,9.99998e-01
1.073841587e+00,5.05735e-01,9.99999e-01,5.48976e-01,9.97392e-01,9.23462e-01,9.99996e-01
1.079210795e+00,6.31915e-01,9.99999e-01,6.85421e-01,9.96662e-01,9.24916e-01,9.99990e-01
1.084606849e+00,7.50355e-01,9.99999e-01,8.14070e-01,9.94947e-01,9.26343e-01,9.99978e-01
1.090029883e+00,8.28030e-01,9.99999e-01,8.99019e-01,9.92734e-01,9.27744e-01,9.99955e-01
1.095480033e+00,8.64376e-01,9.99999e-01,9.48981e-01,9.80327e-01,9.29119e-01,9.99919e-01
1.100957433e+00,8.62490e-01,9.99999e-01,9.75127e-01,9.50624e-01,9.30470e-01,9.99851e-01
1.106462220e+00,8.09714e-01,9.99999e-01,9.89648e-01,8.78154e-01,9.31795e-01,9.99749e-01
1.111994531e+00,7.05674e-01,9.99999e-01,9.96152e-01,7.59606e-01,9.33096e-01,9.99335e-01
1.117554504e+00,5.95046e-01,9.99999e-01,9.99060e-01,6.38919e-01,9.34373e-01,9.97603e-01
1.123142276e+00,6.64332e-01,9.99999e-01,9.99938e-01,7.14122e-01,9.35627e-01,9.94326e-01
1.128757988e+00,7.52828e-01,9.99999e-01,9.99999e-01,8.08872e-01,9.36857e-01,9.93440e-01
1.134401778e+00,5.55172e-01,9.99999e-01,9.99999e-01,5.95147e-01,9.38065e-01,9.94419e-01
1.140073787e+00,8.25626e-01,9.99999e-01,9.99999e-01,8.82964e-01,9.39250e-01,9.95538e-01
1.145774156e+00,7.19945e-01,9.99999e-01,9.99999e-01,7.68700e-01,9.40414e-01,9.95915e-01
1.151503026e+00,6.99031e-01,9.99999e-01,9.99999e-01,7.44115e-01,9.41556e-01,9.97722e-01
1.157260541e+00,7.40310e-01,9.99999e-01,9.99999e-01,7.85862e-01,9.42676e-01,9.99318e-01
1.163046844e+00,7.90246e-01,9.99999e-01,9.99999e-01,8.37484e-01,9.43776e-01,9.99806e-01
1.168862078e+00,8.36025e-01,9.99999e-01,9.99999e-01,8.84905e-01,9.44856e-01,9.99899e-01
1.174706389e+00,8.77076e-01,9.99999e-01,9.99999e-01,9.27347e-01,9.45915e-01,9.99867e-01
1.180579921e+00,9.04324e-01,9.99999e-01,9.99999e-01,9.55171e-01,9.46954e-01,9.99800e-01
1.186482820e+00,9.23570e-01,9.99999e-01,9.99996e-01,9.74457e-01,9.47974e-01,9.99794e-01
1.192415234e+00,9.29637e-01,9.99999e-01,9.94642e-01,9.85025e-01,9.48975e-01,9.99846e-01
1.198377311e+00,5.60491e-01,9.99999e-01,5.96475e-01,9.87357e-01,9.49957e-01,9.99854e-01
1.204369197e+00,8.99687e-06,9.99999e-01,9.52841e-06,9.88025e-01,9.50921e-01,9.99868e-01
1.210391043e+00,2.13549e-17,9.99999e-01,2.25802e-17,9.88552e-01,9.51867e-01,9.99919e-01
1.216442998e+00,2.65017e-15,9.99999e-01,2.79853e-15,9.90258e-01,9.52795e-01,9.99950e-01
1.222525213e+00,4.59124e-15,9.99999e-01,4.83394e-15,9.92411e-01,9.53705e-01,9.99969e-01
1.228637839e+00,1.50929e-11,9.99999e-01,1.58712e-11,9.94725e-01,9.54599e-01,9.99985e-01
