#,Wave/freq,Total,N2,CO2,H2O,Rayleigh,CIA
4.000000000e-01,5.76208e-14,9.99999e-01,9.99999e-01,9.99940e-01,5.76242e-14,9.99999e-01
4.020000000e-01,1.05285e-13,9.99999e-01,9.99999e-01,9.99963e-01,1.05288e-13,9.99999e-01
4.040100000e-01,1.89983e-13,9.99999e-01,9.99999e-01,9.99984e-01,1.89986e-13,9.99999e-01
4.060300500e-01,3.38841e-13,9.99999e-01,9.99999e-01,9.99996e-01,3.38842e-13,9.99999e-01
4.080602003e-01,5.97462e-13,9.99999e-01,9.99999e-01,9.99998e-01,5.97463e-13,9.99999e-01
4.101005013e-01,1.04174e-12,9.99999e-01,9.99999e-01,9.99999e-01,1.04174e-12,9.99999e-01
4.121510038e-01,1.79654e-12,9.99999e-01,9.99999e-01,9.99997e-01,1.79654e-12,9.99999e-01
4.142117588e-01,3.06503e-12,9.99999e-01,9.99999e-01,9.99983e-01,3.06508e-12,9.99999e-01
4.162828176e-01,5.17406e-12,9.99999e-01,9.99999e-01,9.99926e-01,5.17444e-12,9.99999e-01
4.183642317e-01,8.64517e-12,9.99999e-01,9.99999e-01,9.99956e-01,8.64554e-12,9.99999e-01
4.204560528e-01,1.42990e-11,9.99999e-01,9.99999e-01,9.99973e-01,1.42994e-11,9.99999e-01
4.225583331e-01,2.34166e-11,9.99999e-01,9.99999e-01,9.99989e-01,2.34168e-11,9.99999e-01
4.246711247e-01,3.79754e-11,9.99999e-01,9.99999e-01,9.99991e-01,3.79757e-11,9.99999e-01
4.267944804e-01,6.10002e-11,9.99999e-01,9.99999e-01,9.99987e-01,6.10009e-11,9.99999e-01
4.289284528e-01,9.70727e-11,9.99999e-01,9.99999e-01,9.99990e-01,9.70736e-11,9.99999e-01
4.310730950e-01,1.53066e-10,9.99999e-01,9.99999e-01,9.99995e-01,1.53067e-10,9.99999e-01
4.332284605e-01,2.39196e-10,9.99999e-01,9.99999e-01,9.99998e-01,2.39196e-10,9.99999e-01
4.353946028e-01,3.70507e-10,9.99999e-01,9.99999e-01,9.99999e-01,3.70508e-10,9.99999e-01
4.375715758e-01,5.68962e-10,9.99999e-01,9.99999e-01,9.99992e-01,5.68966e-10,9.99999e-01
4.397594337e-01,8.66301e-10,9.99999e-01,9.99999e-01,9.99935e-01,8.66356e-10,9.99999e-01
4.419582309e-01,1.30785e-09,9.99999e-01,9.99999e-01,9.99671e-01,1.30828e-09,9.99999e-01
4.441680220e-01,1.95910e-09,9.99999e-01,9.99999e-01,9.99748e-01,1.95960e-09,9.99999e-01
4.463888621e-01,2.91108e-09,9.99999e-01,9.99999e-01,9.99736e-01,2.91184e-09,9.99999e-01
4.486208064e-01,4.29241e-09,9.99999e-01,9.99999e-01,9.99836e-01,4.29311e-09,9.99999e-01
4.508639105e-01,6.28076e-09,9.99999e-01,9.99999e-01,9.99923e-01,6.28124e-09,9.99999e-01
4.531182300e-01,9.12097e-09,9.99999e-01,9.99999e-01,9.99969e-01,9.12125e-09,9.99999e-01
4.553838212e-01,1.31478e-08,9.99999e-01,9.99999e-01,9.99979e-01,1.31481e-08,9.99999e-01
4.576607403e-01,1.88162e-08,9.99999e-01,9.99999e-01,9.99990e-01,1.88163e-08,9.99999e-01
4.599490440e-01,2.67380e-08,9.99999e-01,9.99999e-01,9.99992e-01,2.67382e-08,9.99999e-01
4.622487892e-01,3.77324e-08,9.99999e-01,9.99999e-01,9.99998e-01,3.77325e-08,9.99999e-01
4.645600332e-01,5.28861e-08,9.99999e-01,9.99999e-01,9.99994e-01,5.28863e-08,9.99999e-01
4.668828333e-01,7.36278e-08,9.99999e-01,9.99999e-01,9.99921e-01,7.36335e-08,9.99999e-01
4.692172475e-01,1.01835e-07,9.99999e-01,9.99999e-01,9.99834e-01,1.01852e-07,9.99999e-01
4.715633337e-01,1.39969e-07,9.99999e-01,9.99999e-01,9.99891e-01,1.39984e-07,9.99999e-01
4.739211504e-01,1.91168e-07,9.99999e-01,9.99999e-01,9.99896e-01,1.91188e-07,9.99999e-01
4.762907561e-01,2.59504e-07,9.99999e-01,9.99999e-01,9.99946e-01,2.59518e-07,9.99999e-01
4.786722099e-01,3.50143e-07,9.99999e-01,9.99999e-01,9.99977e-01,3.50150e-07,9.99999e-01
4.810655710e-01,4.69644e-07,9.99999e-01,9.99999e-01,9.99992e-01,4.69647e-07,9.99999e-01
4.834708988e-01,6.26241e-07,9.99999e-01,9.99999e-01,9.99935e-01,6.26282e-07,9.99999e-01
4.858882533e-01,8.30325e-07,9.99999e-01,9.99999e-01,9.99883e-01,8.30422e-07,9.99999e-01
4.883176946e-01,1.09488e-06,9.99999e-01,9.99999e-01,9.99901e-01,1.09498e-06,9.99999e-01
4.907592831e-01,1.43584e-06,9.99999e-01,9.99999e-01,9.99911e-01,1.43597e-06,9.99999e-01
4.932130795e-01,1.87296e-06,9.99999e-01,9.99999e-01,9.99936e-01,1.87307e-06,9.99999e-01
4.956791449e-01,2.43037e-06,9.99999e-01,9.99999e-01,9.99966e-01,2.43045e-06,9.99999e-01
4.981575406e-01,3.13697e-06,9.99999e-01,9.99999e-01,9.99833e-01,3.13749e-06,9.99999e-01
5.006483283e-01,4.02809e-06,9.99999e-01,9.99999e-01,9.99566e-01,4.02985e-06,9.99996e-01
5.031515699e-01,5.13912e-06,9.99999e-01,9.99999e-01,9.97817e-01,5.15048e-06,9.99976e-01
5.056673278e-01,6.54322e-06,9.99999e-01,9.99999e-01,9.98850e-01,6.55091e-06,9.99973e-01
5.081956644e-01,8.28049e-06,9.99999e-01,9.99999e-01,9.98550e-01,8.29264e-06,9.99983e-01
5.107366428e-01,1.04384e-05,9.99999e-01,9.99999e-01,9.99021e-01,1.04487e-05,9.99996e-01
5.132903260e-01,1.30980e-05,9.99999e-01,9.99999e-01,9.99441e-01,1.31053e-05,9.99999e-01
5.158567776e-01,1.63602e-05,9.99999e-01,9.99999e-01,9.99764e-01,1.63640e-05,9.99999e-01
5.184360615e-01,2.03417e-05,9.99999e-01,9.99999e-01,9.99905e-01,2.03436e-05,9.99999e-01
5.210282418e-01,2.51815e-05,9.99999e-01,9.99999e-01,9.99964e-01,2.51824e-05,9.99999e-01
5.236333830e-01,3.10367e-05,9.99999e-01,9.99999e-01,9.99857e-01,3.10411e-05,9.99998e-01
5.262515499e-01,3.81016e-05,9.99999e-01,9.99999e-01,9.99910e-01,3.81050e-05,9.99998e-01
5.288828077e-01,4.65836e-05,9.99999e-01,9.99999e-01,9.99917e-01,4.65875e-05,9.99998e-01
5.315272217e-01,5.67284e-05,9.99999e-01,9.99999e-01,9.99928e-01,5.67324e-05,9.99999e-01
5.341848578e-01,6.88150e-05,9.99999e-01,9.99999e-01,9.99952e-01,6.88183e-05,9.99999e-01
5.368557821e-01,8.31471e-05,9.99999e-01,9.99999e-01,9.99833e-01,8.31609e-05,9.99999e-01
5.395400610e-01,1.00057e-04,9.99999e-01,9.99999e-01,9.99397e-01,1.00118e-04,9.99993e-01
5.422377613e-01,1.19997e-04,9.99999e-01,9.99999e-01,9.99229e-01,1.20091e-04,9.99985e-01
5.449489501e-01,1.43427e-04,9.99999e-01,9.99999e-01,9.99279e-01,1.43533e-04,9.99985e-01
5.476736949e-01,1.70837e-04,9.99999e-01,9.99999e-01,9.99365e-01,1.70946e-04,9.99992e-01
5.504120634e-01,2.02801e-04,9.99999e-01,9.99999e-01,9.99539e-01,2.02895e-04,9.99997e-01
5.531641237e-01,2.39944e-04,9.99999e-01,9.99999e-01,9.99768e-01,2.40000e-04,9.99999e-01
5.559299443e-01,2.82919e-04,9.99999e-01,9.99999e-01,9.99887e-01,2.82951e-04,9.99999e-01
5.587095940e-01,3.32482e-04,9.99999e-01,9.99999e-01,9.99929e-01,3.32505e-04,9.99999e-01
5.615031420e-01,3.89464e-04,9.99999e-01,9.99999e-01,9.99921e-01,3.89494e-04,9.99999e-01
5.643106577e-01,4.54787e-04,9.99999e-01,9.99999e-01,9.99909e-01,4.54828e-04,9.99998e-01
5.671322110e-01,5.28913e-04,9.99999e-01,9.99999e-01,9.98906e-01,5.29497e-04,9.99989e-01
5.699678720e-01,6.13857e-04,9.99999e-01,9.99999e-01,9.98860e-01,6.14575e-04,9.99970e-01
5.728177114e-01,7.10360e-04,9.99999e-01,9.99999e-01,9.98803e-01,7.11228e-04,9.99975e-01
5.756818000e-01,8.19798e-04,9.99999e-01,9.99999e-01,9.98904e-01,8.20709e-04,9.99985e-01
5.785602090e-01,9.43464e-04,9.99999e-01,9.99999e-01,9.99046e-01,9.44369e-04,9.99995e-01
5.814530100e-01,1.08261e-03,9.99999e-01,9.99999e-01,9.99040e-01,1.08365e-03,9.99997e-01
5.843602750e-01,1.23867e-03,9.99999e-01,9.99999e-01,9.98849e-01,1.24010e-03,9.99993e-01
5.872820764e-01,1.40132e-03,9.99999e-01,9.99999e-01,9.90138e-01,1.41537e-03,9.99930e-01
5.902184868e-01,1.59177e-03,9.99999e-01,9.99999e-01,9.88130e-01,1.61119e-03,9.99810e-01
5.931695792e-01,1.81370e-03,9.99999e-01,9.99999e-01,9.91588e-01,1.82942e-03,9.99818e-01
5.961354271e-01,2.05271e-03,9.99999e-01,9.99999e-01,9.90793e-01,2.07200e-03,9.99895e-01
5.991161043e-01,2.32518e-03,9.99999e-01,9.99999e-01,9.93282e-01,2.34098e-03,9.99967e-01
6.021116848e-01,2.62844e-03,9.99999e-01,9.99999e-01,9.96187e-01,2.63850e-03,9.99995e-01
6.051222432e-01,2.96110e-03,9.99999e-01,9.99999e-01,9.98069e-01,2.96683e-03,9.99999e-01
6.081478544e-01,3.32551e-03,9.99999e-01,9.99999e-01,9.99166e-01,3.32829e-03,9.99999e-01
6.111885937e-01,3.72401e-03,9.99999e-01,9.99999e-01,9.99647e-01,3.72532e-03,9.99999e-01
6.142445367e-01,4.15978e-03,9.99999e-01,9.99999e-01,9.99842e-01,4.16043e-03,9.99999e-01
6.173157594e-01,4.63584e-03,9.99999e-01,9.99999e-01,9.99912e-01,4.63625e-03,9.99999e-01
6.204023382e-01,5.15506e-03,9.99999e-01,9.99999e-01,9.99925e-01,5.15544e-03,9.99999e-01
6.235043498e-01,5.71888e-03,9.99999e-01,9.99999e-01,9.99671e-01,5.72076e-03,9.99998e-01
6.266218716e-01,6.32409e-03,9.99999e-01,9.99999e-01,9.98281e-01,6.33505e-03,9.99987e-01
6.297549810e-01,6.99659e-03,9.99999e-01,9.99999e-01,9.99369e-01,7.00117e-03,9.99975e-01
6.329037559e-01,7.71233e-03,9.99999e-01,9.99999e-01,9.98756e-01,7.72207e-03,9.99980e-01
6.360682746e-01,8.49161e-03,9.99999e-01,9.99999e-01,9.98937e-01,8.50073e-03,9.99988e-01
6.392486160e-01,9.32729e-03,9.99999e-01,9.99999e-01,9.98625e-01,9.34017e-03,9.99994e-01
6.424448591e-01,1.02244e-02,9.99999e-01,9.99999e-01,9.98149e-01,1.02434e-02,9.99990e-01
6.456570834e-01,1.11170e-02,9.99999e-01,9.99999e-01,9.91439e-01,1.12136e-02,9.99947e-01
6.488853688e-01,1.21758e-02,9.99999e-01,9.99999e-01,9.93777e-01,1.22537e-02,9.99867e-01
6.521297956e-01,1.32806e-02,9.99999e-01,9.99999e-01,9.93660e-01,1.33668e-02,9.99890e-01
6.553904446e-01,1.44626e-02,9.99999e-01,9.99999e-01,9.93662e-01,1.45560e-02,9.99918e-01
6.586673968e-01,1.57384e-02,9.99999e-01,9.99999e-01,9.94589e-01,1.58244e-02,9.99972e-01
6.619607338e-01,1.71230e-02,9.99999e-01,9.99999e-01,9.96981e-01,1.71750e-02,9.99993e-01
6.652705375e-01,1.85768e-02,9.99999e-01,9.99999e-01,9.98187e-01,1.86106e-02,9.99996e-01
6.685968902e-01,2.01188e-02,9.99999e-01,9.99999e-01,9.99229e-01,2.01343e-02,9.99999e-01
6.719398746e-01,2.17405e-02,9.99999e-01,9.99999e-01,9.99609e-01,2.17490e-02,9.99999e-01
6.752995740e-01,2.34525e-02,9.99999e-01,9.99999e-01,9.99793e-01,2.34573e-02,9.99999e-01
6.786760719e-01,2.52543e-02,9.99999e-01,9.99999e-01,9.99691e-01,2.52621e-02,9.99999e-01
6.820694522e-01,2.71516e-02,9.99999e-01,9.99999e-01,9.99475e-01,2.71659e-02,9.99996e-01
6.854797995e-01,2.91514e-02,9.99999e-01,9.99999e-01,9.99322e-01,2.91713e-02,9.99993e-01
6.889071985e-01,3.12285e-02,9.99999e-01,9.99999e-01,9.98343e-01,3.12808e-02,9.99984e-01
6.923517345e-01,3.26045e-02,9.99999e-01,9.99999e-01,9.73493e-01,3.34965e-02,9.99871e-01
6.958134932e-01,3.53217e-02,9.99999e-01,9.99999e-01,9.86348e-01,3.58207e-02,9.99716e-01
6.992925606e-01,3.77414e-02,9.99999e-01,9.99999e-01,9.86814e-01,3.82555e-02,9.99744e-01
7.027890234e-01,4.01354e-02,9.99999e-01,9.99999e-01,9.83836e-01,4.08027e-02,9.99804e-01
7.063029686e-01,4.28681e-02,9.99999e-01,9.99999e-01,9.86380e-01,4.34642e-02,9.99902e-01
7.098344834e-01,4.56344e-02,9.99999e-01,9.99999e-01,9.86927e-01,4.62415e-02,9.99942e-01
7.133836558e-01,4.82698e-02,9.99999e-01,9.99999e-01,9.82481e-01,4.91361e-02,9.99885e-01
7.169505741e-01,4.52797e-02,9.99999e-01,9.99999e-01,8.69050e-01,5.21493e-02,9.99102e-01
7.205353270e-01,5.15682e-02,9.99999e-01,9.99999e-01,9.34294e-01,5.52823e-02,9.98416e-01
7.241380036e-01,5.35607e-02,9.99999e-01,9.99999e-01,9.16255e-01,5.85360e-02,9.98632e-01
7.277586936e-01,5.71536e-02,9.99999e-01,9.99999e-01,9.24185e-01,6.19112e-02,9.98882e-01
7.313974871e-01,6.01282e-02,9.99999e-01,9.99999e-01,9.19751e-01,6.54086e-02,9.99476e-01
7.350544745e-01,6.59259e-02,9.99999e-01,9.99999e-01,9.55225e-01,6.90286e-02,9.99817e-01
7.387297469e-01,7.03522e-02,9.99999e-01,9.99999e-01,9.66834e-01,7.27715e-02,9.99916e-01
7.424233956e-01,7.53836e-02,9.99999e-01,9.99999e-01,9.83654e-01,7.66373e-02,9.99985e-01
7.461355126e-01,7.98238e-02,9.99999e-01,9.99999e-01,9.90051e-01,8.06261e-02,9.99997e-01
7.498661902e-01,8.43447e-02,9.99999e-01,9.99999e-01,9.95366e-01,8.47374e-02,9.99998e-01
7.536155211e-01,8.87681e-02,9.99999e-01,9.99999e-01,9.97719e-01,8.89710e-02,9.99998e-01
7.573835987e-01,9.32166e-02,9.99999e-01,9.99999e-01,9.98825e-01,9.33261e-02,9.99999e-01
7.611705167e-01,9.77308e-02,9.99999e-01,9.99999e-01,9.99270e-01,9.78021e-02,9.99999e-01
7.649763693e-01,1.02351e-01,9.99999e-01,9.99999e-01,9.99541e-01,1.02398e-01,9.99999e-01
7.688012511e-01,1.07078e-01,9.99999e-01,9.99999e-01,9.99680e-01,1.07113e-01,9.99999e-01
7.726452574e-01,1.11915e-01,9.99999e-01,9.99999e-01,9.99736e-01,1.11945e-01,9.99999e-01
7.765084837e-01,1.16849e-01,9.99999e-01,9.99999e-01,9.99624e-01,1.16893e-01,9.99999e-01
7.803910261e-01,1.11542e-01,9.99999e-01,9.15985e-01,9.98376e-01,1.21956e-01,9.99997e-01
7.842929812e-01,8.36325e-02,9.99999e-01,6.61166e-01,9.94342e-01,1.27131e-01,9.99989e-01
7.882144461e-01,8.44249e-02,9.99999e-01,6.44355e-01,9.88446e-01,1.32417e-01,9.99919e-01
7.921555184e-01,1.04669e-01,9.99999e-01,7.64145e-01,9.93674e-01,1.37812e-01,9.99861e-01
7.961162960e-01,1.18265e-01,9.99999e-01,8.34476e-01,9.88753e-01,1.43314e-01,9.99867e-01
8.000968774e-01,1.33221e-01,9.99999e-01,9.06331e-01,9.87067e-01,1.48921e-01,9.99859e-01
8.040973618e-01,1.45052e-01,9.99999e-01,9.50400e-01,9.87052e-01,1.54629e-01,9.99892e-01
8.081178486e-01,1.52170e-01,9.99999e-01,9.76828e-01,9.70958e-01,1.60437e-01,9.99891e-01
8.121584379e-01,1.46130e-01,9.99999e-01,9.92840e-01,8.85015e-01,1.66342e-01,9.99589e-01
8.162192301e-01,1.48817e-01,9.99999e-01,9.98414e-01,8.66133e-01,1.72341e-01,9.98459e-01
8.203003262e-01,1.65821e-01,9.99999e-01,9.99977e-01,9.31019e-01,1.78432e-01,9.98196e-01
8.244018279e-01,1.67221e-01,9.99999e-01,9.99999e-01,9.07101e-01,1.84611e-01,9.98564e-01
8.285238370e-01,1.74868e-01,9.99999e-01,9.99999e-01,9.17168e-01,1.90876e-01,9.98872e-01
8.326664562e-01,1.80700e-01,9.99999e-01,9.99999e-01,9.16648e-01,1.97223e-01,9.99533e-01
8.368297885e-01,1.91328e-01,9.99999e-01,9.99999e-01,9.39595e-01,2.03650e-01,9.99892e-01
8.410139374e-01,2.02500e-01,9.99999e-01,9.99999e-01,9.63644e-01,2.10153e-01,9.99937e-01
8.452190071e-01,2.12823e-01,9.99999e-01,9.99999e-01,9.82013e-01,2.16729e-01,9.99962e-01
8.494451021e-01,2.21022e-01,9.99999e-01,9.99999e-01,9.89495e-01,2.23375e-01,9.99969e-01
8.536923276e-01,2.28654e-01,9.99999e-01,9.99999e-01,9.93791e-01,2.30087e-01,9.99981e-01
8.579607893e-01,2.35953e-01,9.99999e-01,9.99999e-01,9.96164e-01,2.36863e-01,9.99995e-01
8.622505932e-01,2.43105e-01,9.99999e-01,9.99999e-01,9.97565e-01,2.43698e-01,9.99998e-01
8.665618462e-01,2.17638e-01,9.99999e-01,8.69734e-01,9.98489e-01,2.50590e-01,9.99999e-01
8.708946554e-01,9.23602e-02,9.99999e-01,3.59205e-01,9.98268e-01,2.57534e-01,9.99998e-01
8.752491287e-01,1.13021e-01,9.99999e-01,4.28180e-01,9.97685e-01,2.64528e-01,9.99997e-01
8.796253743e-01,1.68184e-01,9.99999e-01,6.21156e-01,9.96788e-01,2.71569e-01,9.99992e-01
8.840235012e-01,2.16022e-01,9.99999e-01,7.77992e-01,9.96334e-01,2.78652e-01,9.99977e-01
8.884436187e-01,2.55388e-01,9.99999e-01,9.05571e-01,9.86555e-01,2.85775e-01,9.99936e-01
8.928858368e-01,2.44660e-01,9.99999e-01,9.60454e-01,8.69040e-01,2.92933e-01,9.99633e-01
8.973502660e-01,2.32150e-01,9.99999e-01,9.90288e-01,7.82135e-01,3.00124e-01,9.98126e-01
9.018370173e-01,2.70249e-01,9.99999e-01,9.98927e-01,8.82764e-01,3.07345e-01,9.97056e-01
9.063462024e-01,2.73661e-01,9.99999e-01,9.72554e-01,8.94613e-01,3.14591e-01,9.97413e-01
9.108779334e-01,2.53901e-01,9.99999e-01,9.38300e-01,8.41220e-01,3.21860e-01,9.97312e-01
9.154323231e-01,2.66040e-01,9.99999e-01,9.85271e-01,8.21469e-01,3.29148e-01,9.97777e-01
9.200094847e-01,2.41630e-01,9.99999e-01,8.22468e-01,8.57832e-01,3.36453e-01,9.98755e-01
9.246095321e-01,2.01272e-01,9.99999e-01,7.33236e-01,7.89601e-01,3.43771e-01,9.98566e-01
9.292325798e-01,6.50330e-02,9.99999e-01,7.85837e-01,2.25684e-01,3.51098e-01,9.93098e-01
9.338787427e-01,4.30451e-02,9.99999e-01,7.91469e-01,1.48580e-01,3.58433e-01,9.75279e-01
9.385481364e-01,1.40809e-01,9.99999e-01,8.41010e-01,4.60211e-01,3.65771e-01,9.72872e-01
9.432408771e-01,1.16135e-01,9.99999e-01,8.99147e-01,3.49981e-01,3.73110e-01,9.76552e-01
9.479570815e-01,8.38072e-02,9.99999e-01,9.46792e-01,2.35687e-01,3.80447e-01,9.80875e-01
9.526968669e-01,1.23083e-01,9.99999e-01,9.74046e-01,3.28189e-01,3.87779e-01,9.88290e-01
9.574603512e-01,1.34797e-01,9.99999e-01,9.88816e-01,3.46468e-01,3.95104e-01,9.94034e-01
9.622476530e-01,1.66732e-01,9.99999e-01,9.96500e-01,4.17283e-01,4.02417e-01,9.95871e-01
9.670588912e-01,2.45436e-01,9.99999e-01,9.98952e-01,6.01279e-01,4.09718e-01,9.97174e-01
9.718941857e-01,3.00527e-01,9.99999e-01,9.99926e-01,7.22228e-01,4.17004e-01,9.97919e-01
9.767536566e-01,3.23178e-01,9.99999e-01,9.99999e-01,7.62938e-01,4.24271e-01,9.98409e-01
9.816374249e-01,3.52757e-01,9.99999e-01,9.99999e-01,8.17930e-01,4.31517e-01,9.99448e-01
9.865456120e-01,3.86814e-01,9.99999e-01,9.99999e-01,8.81747e-01,4.38740e-01,9.99884e-01
9.914783401e-01,4.12480e-01,9.99999e-01,9.99999e-01,9.25000e-01,4.45938e-01,9.99967e-01
9.964357318e-01,4.34269e-01,9.99999e-01,9.99999e-01,9.58437e-01,4.53109e-01,9.99980e-01
1.001417910e+00,4.48674e-01,9.99999e-01,9.99999e-01,9.74875e-01,4.60250e-01,9.99971e-01
1.006425000e+00,4.60599e-01,9.99999e-01,9.99999e-01,9.85576e-01,4.67358e-01,9.99959e-01
1.011457125e+00,4.70166e-01,9.99999e-01,9.99999e-01,9.91041e-01,4.74434e-01,9.99961e-01
1.016514411e+00,4.78525e-01,9.99999e-01,9.99999e-01,9.93903e-01,4.81473e-01,9.99973e-01
1.021596983e+00,4.86007e-01,9.99999e-01,9.99835e-01,9.95136e-01,4.88474e-01,9.99973e-01
1.026704968e+00,4.88152e-01,9.99999e-01,9.89052e-01,9.96203e-01,4.95436e-01,9.99983e-01
1.031838492e+00,4.54263e-01,9.99999e-01,9.06629e-01,9.97243e-01,5.02357e-01,9.99994e-01
1.036997685e+00,2.78270e-02,9.99999e-01,5.47125e-02,9.98359e-01,5.09235e-01,9.99998e-01
1.042182673e+00,2.53917e-03,9.99999e-01,4.92772e-03,9.98039e-01,5.16069e-01,9.99999e-01
1.047393587e+00,6.14188e-03,9.99999e-01,1.17723e-02,9.97404e-01,5.22856e-01,9.99999e-01
1.052630555e+00,1.27621e-06,9.99999e-01,2.41525e-06,9.96435e-01,5.29596e-01,9.99998e-01
1.057893707e+00,4.86432e-06,9.99999e-01,9.09903e-06,9.94049e-01,5.36287e-01,9.99997e-01
1.063183176e+00,9.81321e-05,9.99999e-01,1.81788e-04,9.90234e-01,5.42928e-01,9.99994e-01
1.068499092e+00,8.65624e-04,9.99999e-01,1.59291e-03,9.83718e-01,5.49518e-01,9.99988e-01
1.073841587e+00,8.75494e-03,9.99999e-01,1.59679e-02,9.80959e-01,5.56055e-01,9.99975e-01
1.079210795e+00,4.09585e-02,9.99999e-01,7.42555e-02,9.75710e-01,5.62539e-01,9.99934e-01
1.084606849e+00,1.26481e-01,9.99999e-01,2.29803e-01,9.63435e-01,5.68968e-01,9.99842e-01
1.090029883e+00,2.53323e-01,9.99999e-01,4.62878e-01,9.47755e-01,5.75341e-01,9.99673e-01
1.095480033e+00,3.44882e-01,9.99999e-01,6.83485e-01,8.64249e-01,5.81658e-01,9.99408e-01
1.100957433e+00,3.40064e-01,9.99999e-01,8.31705e-01,6.92491e-01,5.87917e-01,9.98912e-01
1.106462220e+00,2.23707e-01,9.99999e-01,9.26599e-01,4.04331e-01,5.94117e-01,9.98156e-01
1.111994531e+00,9.12194e-02,9.99999e-01,9.72107e-01,1.56354e-01,6.00259e-01,9.95114e-01
1.117554504e+00,3.21427e-02,9.99999e-01,9.93144e-01,5.41853e-02,6.06341e-01,9.82475e-01
1.123142276e+00,7.89087e-02,9.99999e-01,9.99550e-01,1.34386e-01,6.12363e-01,9.58941e-01
1.128757988e+00,1.47464e-01,9.99999e-01,9.99999e-01,2.50342e-01,6.18324e-01,9.52656e-01
1.134401778e+00,6.80387e-02,9.99999e-01,9.99999e-01,1.13586e-01,6.24224e-01,9.59598e-01
1.140073787e+00,2.57834e-01,9.99999e-01,9.99999e-01,4.22928e-01,6.30061e-01,9.67586e-01
1.145774156e+00,1.13422e-01,9.99999e-01,9.99999e-01,1.83845e-01,6.35836e-01,9.70288e-01
1.151503026e+00,9.71332e-02,9.99999e-01,9.99999e-01,1.53970e-01,6.41549e-01,9.83337e-01
1.157260541e+00,1.22519e-01,9.99999e-01,9.99999e-01,1.90260e-01,6.47198e-01,9.94988e-01
1.163046844e+00,1.89467e-01,9.99999e-01,9.99999e-01,2.90658e-01,6.52785e-01,9.98576e-01
1.168862078e+00,2.72844e-01,9.99999e-01,9.99999e-01,4.14766e-01,6.58307e-01,9.99266e-01
1.174706389e+00,3.84632e-01,9.99999e-01,9.99999e-01,5.80032e-01,6.63766e-01,9.99027e-01
1.180579921e+00,4.78838e-01,9.99999e-01,9.99999e-01,7.16631e-01,6.69161e-01,9.98530e-01
1.186482820e+00,5.57193e-01,9.99999e-01,9.99975e-01,8.27356e-01,6.74492e-01,9.98491e-01
1.192415234e+00,5.85604e-01,9.99999e-01,9.62476e-01,8.95008e-01,6.79759e-01,9.98870e-01
1.198377311e+00,3.29295e-01,9.99999e-01,5.20216e-01,9.10674e-01,6.84962e-01,9.98932e-01
1.204369197e+00,2.97281e-28,9.99999e-01,4.53836e-28,9.15517e-01,6.90101e-01,9.99034e-01
1.210391043e+00,6.82275e-114,9.99999e-01,1.02932e-113,9.18949e-01,6.95175e-01,9.99412e-01
1.216442998e+00,1.41233e-98,9.99999e-01,2.10979e-98,9.30726e-01,7.00186e-01,9.99639e-01
1.222525213e+00,4.30081e-97,9.99999e-01,6.27942e-97,9.45540e-01,7.05133e-01,9.99776e-01
1.228637839e+00,6.29127e-75,9.99999e-01,9.09709e-75,9.61834e-01,7.10015e-01,9.99895e-01
