#,Wave/freq,Total,N2,CO2,H2O,Rayleigh,CIA
4.000000000e-01,4.79406e-03,9.99999e-01,9.99999e-01,9.99989e-01,4.79411e-03,9.99999e-01
4.020000000e-01,5.32799e-03,9.99999e-01,9.99999e-01,9.99993e-01,5.32802e-03,9.99999e-01
4.040100000e-01,5.90841e-03,9.99999e-01,9.99999e-01,9.99996e-01,5.90843e-03,9.99999e-01
4.060300500e-01,6.53869e-03,9.99999e-01,9.99999e-01,9.99998e-01,6.53869e-03,9.99999e-01
4.080602003e-01,7.22171e-03,9.99999e-01,9.99999e-01,9.99999e-01,7.22171e-03,9.99999e-01
4.101005013e-01,7.96045e-03,9.99999e-01,9.99999e-01,9.99999e-01,7.96045e-03,9.99999e-01
4.121510038e-01,8.75788e-03,9.99999e-01,9.99999e-01,9.99999e-01,8.75788e-03,9.99999e-01
4.142117588e-01,9.61702e-03,9.99999e-01,9.99999e-01,9.99996e-01,9.61705e-03,9.99999e-01
4.162828176e-01,1.05409e-02,9.99999e-01,9.99999e-01,9.99986e-01,1.05410e-02,9.99999e-01
4.183642317e-01,1.15327e-02,9.99999e-01,9.99999e-01,9.99991e-01,1.15328e-02,9.99999e-01
4.204560528e-01,1.25955e-02,9.99999e-01,9.99999e-01,9.99994e-01,1.25955e-02,9.99999e-01
4.225583331e-01,1.37322e-02,9.99999e-01,9.99999e-01,9.99997e-01,1.37323e-02,9.99999e-01
4.246711247e-01,1.49460e-02,9.99999e-01,9.99999e-01,9.99998e-01,1.49460e-02,9.99999e-01
4.267944804e-01,1.62399e-02,9.99999e-01,9.99999e-01,9.99997e-01,1.62399e-02,9.99999e-01
4.289284528e-01,1.76169e-02,9.99999e-01,9.99999e-01,9.99997e-01,1.76169e-02,9.99999e-01
4.310730950e-01,1.90799e-02,9.99999e-01,9.99999e-01,9.99998e-01,1.90799e-02,9.99999e-01
4.332284605e-01,2.06319e-02,9.99999e-01,9.99999e-01,9.99999e-01,2.06319e-02,9.99999e-01
4.353946028e-01,2.22757e-02,9.99999e-01,9.99999e-01,9.99999e-01,2.22757e-02,9.99999e-01
4.375715758e-01,2.40140e-02,9.99999e-01,9.99999e-01,9.99998e-01,2.40141e-02,9.99999e-01
4.397594337e-01,2.58494e-02,9.99999e-01,9.99999e-01,9.99988e-01,2.58497e-02,9.99999e-01
4.419582309e-01,2.77836e-02,9.99999e-01,9.99999e-01,9.99942e-01,2.77852e-02,9.99999e-01
4.441680220e-01,2.98217e-02,9.99999e-01,9.99999e-01,9.99955e-01,2.98230e-02,9.99999e-01
4.463888621e-01,3.19641e-02,9.99999e-01,9.99999e-01,9.99953e-01,3.19656e-02,9.99999e-01
4.486208064e-01,3.42142e-02,9.99999e-01,9.99999e-01,9.99970e-01,3.42152e-02,9.99999e-01
4.508639105e-01,3.65735e-02,9.99999e-01,9.99999e-01,9.99986e-01,3.65740e-02,9.99999e-01
4.531182300e-01,3.90437e-02,9.99999e-01,9.99999e-01,9.99994e-01,3.90439e-02,9.99999e-01
4.553838212e-01,4.16267e-02,9.99999e-01,9.99999e-01,9.99995e-01,4.16268e-02,9.99999e-01
4.576607403e-01,4.43245e-02,9.99999e-01,9.99999e-01,9.99997e-01,4.43245e-02,9.99999e-01
4.599490440e-01,4.71385e-02,9.99999e-01,9.99999e-01,9.99998e-01,4.71386e-02,9.99999e-01
4.622487892e-01,5.00703e-02,9.99999e-01,9.99999e-01,9.99999e-01,5.00703e-02,9.99999e-01
4.645600332e-01,5.31210e-02,9.99999e-01,9.99999e-01,9.99998e-01,5.31211e-02,9.99999e-01
4.668828333e-01,5.62911e-02,9.99999e-01,9.99999e-01,9.99985e-01,5.62919e-02,9.99999e-01
4.692172475e-01,5.95820e-02,9.99999e-01,9.99999e-01,9.99970e-01,5.95837e-02,9.99999e-01
4.715633337e-01,6.29961e-02,9.99999e-01,9.99999e-01,9.99980e-01,6.29973e-02,9.99999e-01
4.739211504e-01,6.65320e-02,9.99999e-01,9.99999e-01,9.99981e-01,6.65332e-02,9.99999e-01
4.762907561e-01,7.01911e-02,9.99999e-01,9.99999e-01,9.99990e-01,7.01918e-02,9.99999e-01
4.786722099e-01,7.39730e-02,9.99999e-01,9.99999e-01,9.99995e-01,7.39733e-02,9.99999e-01
4.810655710e-01,7.78777e-02,9.99999e-01,9.99999e-01,9.99998e-01,7.78778e-02,9.99999e-01
4.834708988e-01,8.19042e-02,9.99999e-01,9.99999e-01,9.99988e-01,8.19051e-02,9.99999e-01
4.858882533e-01,8.60532e-02,9.99999e-01,9.99999e-01,9.99979e-01,8.60549e-02,9.99999e-01
4.883176946e-01,9.03252e-02,9.99999e-01,9.99999e-01,9.99982e-01,9.03268e-02,9.99999e-01
4.907592831e-01,9.47185e-02,9.99999e-01,9.99999e-01,9.99984e-01,9.47200e-02,9.99999e-01
4.932130795e-01,9.92327e-02,9.99999e-01,9.99999e-01,9.99988e-01,9.92338e-02,9.99999e-01
4.956791449e-01,1.03866e-01,9.99999e-01,9.99999e-01,9.99993e-01,1.03867e-01,9.99999e-01
4.981575406e-01,1.08616e-01,9.99999e-01,9.99999e-01,9.99970e-01,1.08619e-01,9.99999e-01
5.006483283e-01,1.13479e-01,9.99999e-01,9.99999e-01,9.99923e-01,1.13488e-01,9.99998e-01
5.031515699e-01,1.18426e-01,9.99999e-01,9.99999e-01,9.99616e-01,1.18472e-01,9.99995e-01
5.056673278e-01,1.23545e-01,9.99999e-01,9.99999e-01,9.99798e-01,1.23570e-01,9.99994e-01
5.081956644e-01,1.28748e-01,9.99999e-01,9.99999e-01,9.99745e-01,1.28781e-01,9.99996e-01
5.107366428e-01,1.34078e-01,9.99999e-01,9.99999e-01,9.99828e-01,1.34101e-01,9.99999e-01
5.132903260e-01,1.39517e-01,9.99999e-01,9.99999e-01,9.99901e-01,1.39530e-01,9.99999e-01
5.158567776e-01,1.45059e-01,9.99999e-01,9.99999e-01,9.99958e-01,1.45065e-01,9.99999e-01
5.184360615e-01,1.50701e-01,9.99999e-01,9.99999e-01,9.99982e-01,1.50704e-01,9.99999e-01
5.210282418e-01,1.56443e-01,9.99999e-01,9.99999e-01,9.99993e-01,1.56444e-01,9.99999e-01
5.236333830e-01,1.62279e-01,9.99999e-01,9.99999e-01,9.99974e-01,1.62283e-01,9.99999e-01
5.262515499e-01,1.68215e-01,9.99999e-01,9.99999e-01,9.99983e-01,1.68218e-01,9.99999e-01
5.288828077e-01,1.74243e-01,9.99999e-01,9.99999e-01,9.99985e-01,1.74246e-01,9.99999e-01
5.315272217e-01,1.80362e-01,9.99999e-01,9.99999e-01,9.99987e-01,1.80365e-01,9.99999e-01
5.341848578e-01,1.86569e-01,9.99999e-01,9.99999e-01,9.99991e-01,1.86571e-01,9.99999e-01
5.368557821e-01,1.92856e-01,9.99999e-01,9.99999e-01,9.99970e-01,1.92862e-01,9.99999e-01
5.395400610e-01,1.99213e-01,9.99999e-01,9.99999e-01,9.99894e-01,1.99235e-01,9.99998e-01
5.422377613e-01,2.05657e-01,9.99999e-01,9.99999e-01,9.99864e-01,2.05686e-01,9.99997e-01
5.449489501e-01,2.12185e-01,9.99999e-01,9.99999e-01,9.99873e-01,2.12212e-01,9.99996e-01
5.476736949e-01,2.18786e-01,9.99999e-01,9.99999e-01,9.99888e-01,2.18810e-01,9.99998e-01
5.504120634e-01,2.25459e-01,9.99999e-01,9.99999e-01,9.99918e-01,2.25477e-01,9.99999e-01
5.531641237e-01,2.32201e-01,9.99999e-01,9.99999e-01,9.99958e-01,2.32210e-01,9.99999e-01
5.559299443e-01,2.39000e-01,9.99999e-01,9.99999e-01,9.99979e-01,2.39005e-01,9.99999e-01
5.587095940e-01,2.45855e-01,9.99999e-01,9.99999e-01,9.99987e-01,2.45858e-01,9.99999e-01
5.615031420e-01,2.52763e-01,9.99999e-01,9.99999e-01,9.99985e-01,2.52767e-01,9.99999e-01
5.643106577e-01,2.59723e-01,9.99999e-01,9.99999e-01,9.99983e-01,2.59727e-01,9.99999e-01
5.671322110e-01,2.66685e-01,9.99999e-01,9.99999e-01,9.99808e-01,2.66736e-01,9.99997e-01
5.699678720e-01,2.73735e-01,9.99999e-01,9.99999e-01,9.99799e-01,2.73791e-01,9.99994e-01
5.728177114e-01,2.80827e-01,9.99999e-01,9.99999e-01,9.99789e-01,2.80887e-01,9.99995e-01
5.756818000e-01,2.87965e-01,9.99999e-01,9.99999e-01,9.99807e-01,2.88021e-01,9.99997e-01
5.785602090e-01,2.95140e-01,9.99999e-01,9.99999e-01,9.99832e-01,2.95190e-01,9.99998e-01
5.814530100e-01,3.02340e-01,9.99999e-01,9.99999e-01,9.99831e-01,3.02391e-01,9.99999e-01
5.843602750e-01,3.09557e-01,9.99999e-01,9.99999e-01,9.99798e-01,3.09620e-01,9.99998e-01
5.872820764e-01,3.16319e-01,9.99999e-01,9.99999e-01,9.98262e-01,3.16873e-01,9.99987e-01
5.902184868e-01,3.23460e-01,9.99999e-01,9.99999e-01,9.97908e-01,3.24149e-01,9.99966e-01
5.931695792e-01,3.30942e-01,9.99999e-01,9.99999e-01,9.98518e-01,3.31443e-01,9.99967e-01
5.961354271e-01,3.38197e-01,9.99999e-01,9.99999e-01,9.98379e-01,3.38752e-01,9.99981e-01
5.991161043e-01,3.45662e-01,9.99999e-01,9.99999e-01,9.98818e-01,3.46073e-01,9.99993e-01
6.021116848e-01,3.53166e-01,9.99999e-01,9.99999e-01,9.99330e-01,3.53403e-01,9.99998e-01
6.051222432e-01,3.60617e-01,9.99999e-01,9.99999e-01,9.99661e-01,3.60739e-01,9.99999e-01
6.081478544e-01,3.68024e-01,9.99999e-01,9.99999e-01,9.99853e-01,3.68078e-01,9.99999e-01
6.111885937e-01,3.75393e-01,9.99999e-01,9.99999e-01,9.99937e-01,3.75416e-01,9.99999e-01
6.142445367e-01,3.82742e-01,9.99999e-01,9.99999e-01,9.99971e-01,3.82752e-01,9.99999e-01
6.173157594e-01,3.90076e-01,9.99999e-01,9.99999e-01,9.99984e-01,3.90082e-01,9.99999e-01
6.204023382e-01,3.97398e-01,9.99999e-01,9.99999e-01,9.99986e-01,3.97404e-01,9.99999e-01
6.235043498e-01,4.04690e-01,9.99999e-01,9.99999e-01,9.99942e-01,4.04714e-01,9.99999e-01
6.266218716e-01,4.11885e-01,9.99999e-01,9.99999e-01,9.99698e-01,4.12010e-01,9.99997e-01
6.297549810e-01,4.19242e-01,9.99999e-01,9.99999e-01,9.99889e-01,4.19290e-01,9.99995e-01
6.329037559e-01,4.26456e-01,9.99999e-01,9.99999e-01,9.99781e-01,4.26551e-01,9.99996e-01
6.360682746e-01,4.33708e-01,9.99999e-01,9.99999e-01,9.99813e-01,4.33790e-01,9.99997e-01
6.392486160e-01,4.40899e-01,9.99999e-01,9.99999e-01,9.99758e-01,4.41006e-01,9.99998e-01
6.424448591e-01,4.48049e-01,9.99999e-01,9.99999e-01,9.99675e-01,4.48195e-01,9.99997e-01
6.456570834e-01,4.54667e-01,9.99999e-01,9.99999e-01,9.98494e-01,4.55357e-01,9.99990e-01
6.488853688e-01,4.61971e-01,9.99999e-01,9.99999e-01,9.98905e-01,4.62488e-01,9.99976e-01
6.521297956e-01,4.69053e-01,9.99999e-01,9.99999e-01,9.98884e-01,4.69586e-01,9.99980e-01
6.553904446e-01,4.76113e-01,9.99999e-01,9.99999e-01,9.98886e-01,4.76650e-01,9.99985e-01
6.586673968e-01,4.83215e-01,9.99999e-01,9.99999e-01,9.99048e-01,4.83678e-01,9.99994e-01
6.619607338e-01,4.90406e-01,9.99999e-01,9.99999e-01,9.99469e-01,4.90667e-01,9.99998e-01
6.652705375e-01,4.97458e-01,9.99999e-01,9.99999e-01,9.99681e-01,4.97616e-01,9.99998e-01
6.685968902e-01,5.04455e-01,9.99999e-01,9.99999e-01,9.99864e-01,5.04524e-01,9.99999e-01
6.719398746e-01,5.11353e-01,9.99999e-01,9.99999e-01,9.99931e-01,5.11388e-01,9.99999e-01
6.752995740e-01,5.18188e-01,9.99999e-01,9.99999e-01,9.99963e-01,5.18207e-01,9.99999e-01
6.786760719e-01,5.24951e-01,9.99999e-01,9.99999e-01,9.99945e-01,5.24980e-01,9.99999e-01
6.820694522e-01,5.31655e-01,9.99999e-01,9.99999e-01,9.99907e-01,5.31704e-01,9.99999e-01
6.854797995e-01,5.38316e-01,9.99999e-01,9.99999e-01,9.99880e-01,5.38380e-01,9.99998e-01
6.889071985e-01,5.44846e-01,9.99999e-01,9.99999e-01,9.99709e-01,5.45005e-01,9.99996e-01
6.923517345e-01,5.48971e-01,9.99999e-01,9.99999e-01,9.95293e-01,5.51579e-01,9.99977e-01
6.958134932e-01,5.56724e-01,9.99999e-01,9.99999e-01,9.97584e-01,5.58099e-01,9.99949e-01
6.992925606e-01,5.63228e-01,9.99999e-01,9.99999e-01,9.97674e-01,5.64566e-01,9.99954e-01
7.027890234e-01,5.69328e-01,9.99999e-01,9.99999e-01,9.97144e-01,5.70977e-01,9.99965e-01
7.063029686e-01,5.75936e-01,9.99999e-01,9.99999e-01,9.97598e-01,5.77332e-01,9.99982e-01
7.098344834e-01,5.82281e-01,9.99999e-01,9.99999e-01,9.97695e-01,5.83631e-01,9.99989e-01
7.133836558e-01,5.88033e-01,9.99999e-01,9.99999e-01,9.96902e-01,5.89872e-01,9.99979e-01
7.169505741e-01,5.81258e-01,9.99999e-01,9.99999e-01,9.75329e-01,5.96054e-01,9.99842e-01
7.205353270e-01,5.94798e-01,9.99999e-01,9.99999e-01,9.88019e-01,6.02177e-01,9.99722e-01
7.241380036e-01,5.98762e-01,9.99999e-01,9.99999e-01,9.84651e-01,6.08241e-01,9.99759e-01
7.277586936e-01,6.05616e-01,9.99999e-01,9.99999e-01,9.86147e-01,6.14243e-01,9.99803e-01
7.313974871e-01,6.11047e-01,9.99999e-01,9.99999e-01,9.85355e-01,6.20185e-01,9.99907e-01
7.350544745e-01,6.21021e-01,9.99999e-01,9.99999e-01,9.91973e-01,6.26065e-01,9.99967e-01
7.387297469e-01,6.28143e-01,9.99999e-01,9.99999e-01,9.94095e-01,6.31883e-01,9.99984e-01
7.424233956e-01,6.35796e-01,9.99999e-01,9.99999e-01,9.97112e-01,6.37639e-01,9.99996e-01
7.461355126e-01,6.42204e-01,9.99999e-01,9.99999e-01,9.98248e-01,6.43331e-01,9.99999e-01
7.498661902e-01,6.48433e-01,9.99999e-01,9.99999e-01,9.99185e-01,6.48961e-01,9.99999e-01
7.536155211e-01,6.54266e-01,9.99999e-01,9.99999e-01,9.99599e-01,6.54527e-01,9.99999e-01
7.573835987e-01,6.59894e-01,9.99999e-01,9.99999e-01,9.99793e-01,6.60030e-01,9.99999e-01
7.611705167e-01,6.65384e-01,9.99999e-01,9.99999e-01,9.99871e-01,6.65469e-01,9.99999e-01
7.649763693e-01,6.70790e-01,9.99999e-01,9.99999e-01,9.99919e-01,6.70844e-01,9.99999e-01
7.688012511e-01,6.76117e-01,9.99999e-01,9.99999e-01,9.99943e-01,6.76155e-01,9.99999e-01
7.726452574e-01,6.81370e-01,9.99999e-01,9.99999e-01,9.99953e-01,6.81401e-01,9.99999e-01
7.765084837e-01,6.86539e-01,9.99999e-01,9.99999e-01,9.99933e-01,6.86584e-01,9.99999e-01
7.803910261e-01,6.78680e-01,9.99999e-01,9.81447e-01,9.99715e-01,6.91703e-01,9.99999e-01
7.842929812e-01,6.44172e-01,9.99999e-01,9.25425e-01,9.99006e-01,6.96757e-01,9.99997e-01
7.882144461e-01,6.44120e-01,9.99999e-01,9.19724e-01,9.97964e-01,7.01748e-01,9.99985e-01
7.921555184e-01,6.72739e-01,9.99999e-01,9.53048e-01,9.98887e-01,7.06674e-01,9.99975e-01
7.961162960e-01,6.87808e-01,9.99999e-01,9.68583e-01,9.98018e-01,7.11537e-01,9.99976e-01
8.000968774e-01,7.02419e-01,9.99999e-01,9.82831e-01,9.97721e-01,7.16336e-01,9.99974e-01
8.040973618e-01,7.13013e-01,9.99999e-01,9.91100e-01,9.97718e-01,7.21072e-01,9.99980e-01
8.081178486e-01,7.19023e-01,9.99999e-01,9.95894e-01,9.94835e-01,7.25745e-01,9.99980e-01
8.121584379e-01,7.13790e-01,9.99999e-01,9.98739e-01,9.78616e-01,7.30355e-01,9.99927e-01
8.162192301e-01,7.15997e-01,9.99999e-01,9.99721e-01,9.74806e-01,7.34902e-01,9.99729e-01
8.203003262e-01,7.29654e-01,9.99999e-01,9.99995e-01,9.87151e-01,7.39387e-01,9.99683e-01
8.244018279e-01,7.30496e-01,9.99999e-01,9.99999e-01,9.82347e-01,7.43810e-01,9.99747e-01
8.285238370e-01,7.36694e-01,9.99999e-01,9.99999e-01,9.84854e-01,7.48171e-01,9.99801e-01
8.326664562e-01,7.40917e-01,9.99999e-01,9.99999e-01,9.84725e-01,7.52471e-01,9.99917e-01
8.368297885e-01,7.48448e-01,9.99999e-01,9.99999e-01,9.89100e-01,7.56709e-01,9.99980e-01
8.410139374e-01,7.55947e-01,9.99999e-01,9.99999e-01,9.93516e-01,7.60888e-01,9.99988e-01
8.452190071e-01,7.62569e-01,9.99999e-01,9.99999e-01,9.96820e-01,7.65006e-01,9.99992e-01
8.494451021e-01,7.67638e-01,9.99999e-01,9.99999e-01,9.98150e-01,7.69064e-01,9.99994e-01
8.536923276e-01,7.72218e-01,9.99999e-01,9.99999e-01,9.98908e-01,7.73064e-01,9.99996e-01
8.579607893e-01,7.76480e-01,9.99999e-01,9.99999e-01,9.99326e-01,7.77004e-01,9.99998e-01
8.622505932e-01,7.80552e-01,9.99999e-01,9.99999e-01,9.99572e-01,7.80886e-01,9.99999e-01
8.665618462e-01,7.46483e-01,9.99999e-01,9.51529e-01,9.99734e-01,7.84710e-01,9.99999e-01
8.708946554e-01,6.45077e-01,9.99999e-01,8.18373e-01,9.99695e-01,7.88477e-01,9.99999e-01
8.752491287e-01,6.75422e-01,9.99999e-01,8.52944e-01,9.99593e-01,7.92187e-01,9.99999e-01
8.796253743e-01,7.29549e-01,9.99999e-01,9.17212e-01,9.99436e-01,7.95841e-01,9.99998e-01
8.840235012e-01,7.64083e-01,9.99999e-01,9.56388e-01,9.99356e-01,7.99438e-01,9.99995e-01
8.884436187e-01,7.87191e-01,9.99999e-01,9.82671e-01,9.97622e-01,8.02981e-01,9.99988e-01
8.928858368e-01,7.80996e-01,9.99999e-01,9.92937e-01,9.75333e-01,8.06469e-01,9.99935e-01
8.973502660e-01,7.73483e-01,9.99999e-01,9.98287e-01,9.56967e-01,8.09902e-01,9.99671e-01
9.018370173e-01,7.94752e-01,9.99999e-01,9.99811e-01,9.77900e-01,8.13282e-01,9.99483e-01
9.063462024e-01,7.96286e-01,9.99999e-01,9.95030e-01,9.80348e-01,8.16609e-01,9.99545e-01
9.108779334e-01,7.85794e-01,9.99999e-01,9.88850e-01,9.69614e-01,8.19884e-01,9.99528e-01
9.154323231e-01,7.92460e-01,9.99999e-01,9.97392e-01,9.65633e-01,8.23106e-01,9.99609e-01
9.200094847e-01,7.72847e-01,9.99999e-01,9.60759e-01,9.73004e-01,8.26277e-01,9.99781e-01
9.246095321e-01,7.51515e-01,9.99999e-01,9.46476e-01,9.57050e-01,8.29398e-01,9.99748e-01
9.292325798e-01,5.94912e-01,9.99999e-01,9.57298e-01,7.45418e-01,8.32468e-01,9.98786e-01
9.338787427e-01,5.48020e-01,9.99999e-01,9.59113e-01,6.85130e-01,8.35488e-01,9.95623e-01
9.385481364e-01,6.95975e-01,9.99999e-01,9.69845e-01,8.59172e-01,8.38460e-01,9.95192e-01
9.432408771e-01,6.63560e-01,9.99999e-01,9.81492e-01,8.06404e-01,8.41383e-01,9.95850e-01
9.479570815e-01,6.17272e-01,9.99999e-01,9.90451e-01,7.40461e-01,8.44258e-01,9.96621e-01
9.526968669e-01,6.74885e-01,9.99999e-01,9.95391e-01,8.01865e-01,8.47086e-01,9.97937e-01
9.574603512e-01,6.93927e-01,9.99999e-01,9.98028e-01,8.18926e-01,8.49867e-01,9.98951e-01
9.622476530e-01,7.24470e-01,9.99999e-01,9.99385e-01,8.50839e-01,8.52602e-01,9.99274e-01
9.670588912e-01,7.78815e-01,9.99999e-01,9.99815e-01,9.11197e-01,8.55292e-01,9.99503e-01
9.718941857e-01,8.09383e-01,9.99999e-01,9.99986e-01,9.43761e-01,8.57937e-01,9.99634e-01
9.767536566e-01,8.19948e-01,9.99999e-01,9.99999e-01,9.53098e-01,8.60537e-01,9.99720e-01
9.816374249e-01,8.32916e-01,9.99999e-01,9.99999e-01,9.65127e-01,8.63094e-01,9.99903e-01
9.865456120e-01,8.46627e-01,9.99999e-01,9.99999e-01,9.78091e-01,8.65608e-01,9.99979e-01
9.914783401e-01,8.56274e-01,9.99999e-01,9.99999e-01,9.86405e-01,8.68079e-01,9.99993e-01
9.964357318e-01,8.64044e-01,9.99999e-01,9.99999e-01,9.92577e-01,8.70508e-01,9.99996e-01
1.001417910e+00,8.69005e-01,9.99999e-01,9.99999e-01,9.95547e-01,8.72896e-01,9.99994e-01
1.006425000e+00,8.73011e-01,9.99999e-01,9.99999e-01,9.97456e-01,8.75243e-01,9.99992e-01
1.011457125e+00,8.76161e-01,9.99999e-01,9.99999e-01,9.98423e-01,8.77550e-01,9.99992e-01
1.016514411e+00,8.78870e-01,9.99999e-01,9.99999e-01,9.98928e-01,8.79817e-01,9.99994e-01
1.021596983e+00,8.81262e-01,9.99999e-01,9.99970e-01,9.99145e-01,8.82045e-01,9.99994e-01
1.026704968e+00,8.81930e-01,9.99999e-01,9.98061e-01,9.99333e-01,8.84234e-01,9.99996e-01
1.031838492e+00,8.59970e-01,9.99999e-01,9.70657e-01,9.99516e-01,8.86386e-01,9.99998e-01
1.036997685e+00,2.44760e-01,9.99999e-01,2.75542e-01,9.99711e-01,8.88500e-01,9.99999e-01
1.042182673e+00,2.90219e-01,9.99999e-01,3.25981e-01,9.99655e-01,8.90577e-01,9.99999e-01
1.047393587e+00,2.70195e-01,9.99999e-01,3.02824e-01,9.99544e-01,8.92618e-01,9.99999e-01
1.052630555e+00,3.76120e-02,9.99999e-01,4.20631e-02,9.99374e-01,8.94623e-01,9.99999e-01
1.057893707e+00,7.25285e-02,9.99999e-01,8.09595e-02,9.98954e-01,8.96593e-01,9.99999e-01
1.063183176e+00,1.44735e-01,9.99999e-01,1.61304e-01,9.98280e-01,8.98528e-01,9.99998e-01
1.068499092e+00,2.64307e-01,9.99999e-01,2.94301e-01,9.97124e-01,9.00429e-01,9.99997e-01
1.073841587e+00,4.16820e-01,9.99999e-01,4.63376e-01,9.96629e-01,9.02296e-01,9.99995e-01
1.079210795e+00,5.54114e-01,9.99999e-01,6.15400e-01,9.95693e-01,9.04130e-01,9.99988e-01
1.084606849e+00,6.90775e-01,9.99999e-01,7.67406e-01,9.93477e-01,9.05932e-01,9.99971e-01
1.090029883e+00,7.83976e-01,9.99999e-01,8.71823e-01,9.90599e-01,9.07702e-01,9.99942e-01
1.095480033e+00,8.28577e-01,9.99999e-01,9.34779e-01,9.74615e-01,9.09439e-01,9.99896e-01
1.100957433e+00,8.26124e-01,9.99999e-01,9.68062e-01,9.36614e-01,9.11146e-01,9.99809e-01
1.106462220e+00,7.61430e-01,9.99999e-01,9.86688e-01,8.45457e-01,9.12823e-01,9.99676e-01
1.111994531e+00,6.38496e-01,9.99999e-01,9.95046e-01,7.02155e-01,9.14469e-01,9.99141e-01
1.117554504e+00,5.13522e-01,9.99999e-01,9.98792e-01,5.62908e-01,9.16085e-01,9.96906e-01
1.123142276e+00,5.93562e-01,9.99999e-01,9.99920e-01,6.51616e-01,9.17672e-01,9.92680e-01
1.128757988e+00,6.94593e-01,9.99999e-01,9.99999e-01,7.62072e-01,9.19231e-01,9.91537e-01
1.134401778e+00,4.81339e-01,9.99999e-01,9.99999e-01,5.26553e-01,9.20761e-01,9.92799e-01
1.140073787e+00,7.81142e-01,9.99999e-01,9.99999e-01,8.51886e-01,9.22264e-01,9.94242e-01
1.145774156e+00,6.56052e-01,9.99999e-01,9.99999e-01,7.13976e-01,9.23739e-01,9.94728e-01
1.151503026e+00,6.32233e-01,9.99999e-01,9.99999e-01,6.85370e-01,9.25188e-01,9.97059e-01
1.157260541e+00,6.79091e-01,9.99999e-01,9.99999e-01,7.33522e-01,9.26610e-01,9.99119e-01
1.163046844e+00,7.38558e-01,9.99999e-01,9.99999e-01,7.96053e-01,9.28006e-01,9.99750e-01
1.168862078e+00,7.93808e-01,9.99999e-01,9.99999e-01,8.54238e-01,9.29377e-01,9.99871e-01
1.174706389e+00,8.44365e-01,9.99999e-01,9.99999e-01,9.07368e-01,9.30722e-01,9.99829e-01
1.180579921e+00,8.78317e-01,9.99999e-01,9.99999e-01,9.42599e-01,9.32043e-01,9.99741e-01
1.186482820e+00,9.02464e-01,9.99999e-01,9.99995e-01,9.67178e-01,9.33339e-01,9.99735e-01
1.192415234e+00,9.10048e-01,9.99999e-01,9.93018e-01,9.80716e-01,9.34612e-01,9.99801e-01
1.198377311e+00,5.37493e-01,9.99999e-01,5.82418e-01,9.83701e-01,9.35861e-01,9.99812e-01
1.204369197e+00,8.35497e-07,9.99999e-01,8.99771e-07,9.84570e-01,9.37088e-01,9.99830e-01
1.210391043e+00,8.25673e-22,9.99999e-01,8.87350e-22,9.85248e-01,9.38291e-01,9.99896e-01
1.216442998e+00,4.01580e-19,9.99999e-01,4.30833e-19,9.87455e-01,9.39472e-01,9.99936e-01
1.222525213e+00,7.55911e-19,9.99999e-01,8.07782e-19,9.90219e-01,9.40632e-01,9.99960e-01
1.228637839e+00,1.64183e-14,9.99999e-01,1.75187e-14,9.93197e-01,9.41769e-01,9.99981e-01
