#,Wave/freq,Total,N2,CO2,H2O,Rayleigh,CIA
4.000000000e-01,2.02792e-02,9.99999e-01,9.99999e-01,9.99992e-01,2.02794e-02,9.99999e-01
4.020000000e-01,2.19042e-02,9.99999e-01,9.99999e-01,9.99994e-01,2.19043e-02,9.99999e-01
4.040100000e-01,2.36215e-02,9.99999e-01,9.99999e-01,9.99997e-01,2.36215e-02,9.99999e-01
4.060300500e-01,2.54354e-02,9.99999e-01,9.99999e-01,9.99999e-01,2.54354e-02,9.99999e-01
4.080602003e-01,2.73486e-02,9.99999e-01,9.99999e-01,9.99999e-01,2.73486e-02,9.99999e-01
4.101005013e-01,2.93636e-02,9.99999e-01,9.99999e-01,9.99999e-01,2.93636e-02,9.99999e-01
4.121510038e-01,3.14829e-02,9.99999e-01,9.99999e-01,9.99999e-01,3.14829e-02,9.99999e-01
4.142117588e-01,3.37086e-02,9.99999e-01,9.99999e-01,9.99997e-01,3.37086e-02,9.99999e-01
4.162828176e-01,3.60427e-02,9.99999e-01,9.99999e-01,9.99990e-01,3.60431e-02,9.99999e-01
4.183642317e-01,3.84880e-02,9.99999e-01,9.99999e-01,9.99993e-01,3.84882e-02,9.99999e-01
4.204560528e-01,4.10459e-02,9.99999e-01,9.99999e-01,9.99996e-01,4.10461e-02,9.99999e-01
4.225583331e-01,4.37182e-02,9.99999e-01,9.99999e-01,9.99998e-01,4.37182e-02,9.99999e-01
4.246711247e-01,4.65064e-02,9.99999e-01,9.99999e-01,9.99998e-01,4.65064e-02,9.99999e-01
4.267944804e-01,4.94120e-02,9.99999e-01,9.99999e-01,9.99998e-01,4.94121e-02,9.99999e-01
4.289284528e-01,5.24364e-02,9.99999e-01,9.99999e-01,9.99998e-01,5.24364e-02,9.99999e-01
4.310730950e-01,5.55806e-02,9.99999e-01,9.99999e-01,9.99999e-01,5.55806e-02,9.99999e-01
4.332284605e-01,5.88456e-02,9.99999e-01,9.99999e-01,9.99999e-01,5.88456e-02,9.99999e-01
4.353946028e-01,6.22322e-02,9.99999e-01,9.99999e-01,9.99999e-01,6.22322e-02,9.99999e-01
4.375715758e-01,6.57410e-02,9.99999e-01,9.99999e-01,9.99998e-01,6.57410e-02,9.99999e-01
4.397594337e-01,6.93719e-02,9.99999e-01,9.99999e-01,9.99991e-01,6.93725e-02,9.99999e-01
4.419582309e-01,7.31238e-02,9.99999e-01,9.99999e-01,9.99957e-01,7.31268e-02,9.99999e-01
4.441680220e-01,7.70016e-02,9.99999e-01,9.99999e-01,9.99967e-01,7.70041e-02,9.99999e-01
4.463888621e-01,8.10016e-02,9.99999e-01,9.99999e-01,9.99965e-01,8.10043e-02,9.99999e-01
4.486208064e-01,8.51253e-02,9.99999e-01,9.99999e-01,9.99978e-01,8.51271e-02,9.99999e-01
4.508639105e-01,8.93711e-02,9.99999e-01,9.99999e-01,9.99989e-01,8.93720e-02,9.99999e-01
4.531182300e-01,9.37381e-02,9.99999e-01,9.99999e-01,9.99995e-01,9.37385e-02,9.99999e-01
4.553838212e-01,9.82254e-02,9.99999e-01,9.99999e-01,9.99996e-01,9.82257e-02,9.99999e-01
4.576607403e-01,1.02833e-01,9.99999e-01,9.99999e-01,9.99998e-01,1.02833e-01,9.99999e-01
4.599490440e-01,1.07558e-01,9.99999e-01,9.99999e-01,9.99998e-01,1.07558e-01,9.99999e-01
4.622487892e-01,1.12401e-01,9.99999e-01,9.99999e-01,9.99999e-01,1.12401e-01,9.99999e-01
4.645600332e-01,1.17360e-01,9.99999e-01,9.99999e-01,9.99998e-01,1.17360e-01,9.99999e-01
4.668828333e-01,1.22432e-01,9.99999e-01,9.99999e-01,9.99989e-01,1.22433e-01,9.99999e-01
4.692172475e-01,1.27617e-01,9.99999e-01,9.99999e-01,9.99978e-01,1.27619e-01,9.99999e-01
4.715633337e-01,1.32914e-01,9.99999e-01,9.99999e-01,9.99985e-01,1.32916e-01,9.99999e-01
4.739211504e-01,1.38319e-01,9.99999e-01,9.99999e-01,9.99986e-01,1.38321e-01,9.99999e-01
4.762907561e-01,1.43832e-01,9.99999e-01,9.99999e-01,9.99992e-01,1.43833e-01,9.99999e-01
4.786722099e-01,1.49448e-01,9.99999e-01,9.99999e-01,9.99996e-01,1.49449e-01,9.99999e-01
4.810655710e-01,1.55166e-01,9.99999e-01,9.99999e-01,9.99998e-01,1.55167e-01,9.99999e-01
4.834708988e-01,1.60982e-01,9.99999e-01,9.99999e-01,9.99991e-01,1.60984e-01,9.99999e-01
4.858882533e-01,1.66895e-01,9.99999e-01,9.99999e-01,9.99984e-01,1.66898e-01,9.99999e-01
4.883176946e-01,1.72903e-01,9.99999e-01,9.99999e-01,9.99987e-01,1.72905e-01,9.99999e-01
4.907592831e-01,1.79002e-01,9.99999e-01,9.99999e-01,9.99988e-01,1.79004e-01,9.99999e-01
4.932130795e-01,1.85190e-01,9.99999e-01,9.99999e-01,9.99991e-01,1.85192e-01,9.99999e-01
4.956791449e-01,1.91463e-01,9.99999e-01,9.99999e-01,9.99995e-01,1.91464e-01,9.99999e-01
4.981575406e-01,1.97815e-01,9.99999e-01,9.99999e-01,9.99978e-01,1.97819e-01,9.99999e-01
5.006483283e-01,2.04242e-01,9.99999e-01,9.99999e-01,9.99944e-01,2.04253e-01,9.99999e-01
5.031515699e-01,2.10704e-01,9.99999e-01,9.99999e-01,9.99720e-01,2.10763e-01,9.99996e-01
5.056673278e-01,2.17313e-01,9.99999e-01,9.99999e-01,9.99852e-01,2.17346e-01,9.99996e-01
5.081956644e-01,2.23956e-01,9.99999e-01,9.99999e-01,9.99813e-01,2.23998e-01,9.99997e-01
5.107366428e-01,2.30687e-01,9.99999e-01,9.99999e-01,9.99874e-01,2.30716e-01,9.99999e-01
5.132903260e-01,2.37481e-01,9.99999e-01,9.99999e-01,9.99927e-01,2.37498e-01,9.99999e-01
5.158567776e-01,2.44331e-01,9.99999e-01,9.99999e-01,9.99969e-01,2.44338e-01,9.99999e-01
5.184360615e-01,2.51232e-01,9.99999e-01,9.99999e-01,9.99987e-01,2.51235e-01,9.99999e-01
5.210282418e-01,2.58183e-01,9.99999e-01,9.99999e-01,9.99994e-01,2.58184e-01,9.99999e-01
5.236333830e-01,2.65178e-01,9.99999e-01,9.99999e-01,9.99981e-01,2.65183e-01,9.99999e-01
5.262515499e-01,2.72224e-01,9.99999e-01,9.99999e-01,9.99988e-01,2.72228e-01,9.99999e-01
5.288828077e-01,2.79312e-01,9.99999e-01,9.99999e-01,9.99989e-01,2.79315e-01,9.99999e-01
5.315272217e-01,2.86438e-01,9.99999e-01,9.99999e-01,9.99990e-01,2.86441e-01,9.99999e-01
5.341848578e-01,2.93601e-01,9.99999e-01,9.99999e-01,9.99993e-01,2.93602e-01,9.99999e-01
5.368557821e-01,3.00790e-01,9.99999e-01,9.99999e-01,9.99978e-01,3.00796e-01,9.99999e-01
5.395400610e-01,3.07996e-01,9.99999e-01,9.99999e-01,9.99922e-01,3.08019e-01,9.99998e-01
5.422377613e-01,3.15236e-01,9.99999e-01,9.99999e-01,9.99900e-01,3.15268e-01,9.99997e-01
5.449489501e-01,3.22509e-01,9.99999e-01,9.99999e-01,9.99907e-01,3.22539e-01,9.99997e-01
5.476736949e-01,3.29802e-01,9.99999e-01,9.99999e-01,9.99918e-01,3.29829e-01,9.99998e-01
5.504120634e-01,3.37115e-01,9.99999e-01,9.99999e-01,9.99940e-01,3.37135e-01,9.99999e-01
5.531641237e-01,3.44444e-01,9.99999e-01,9.99999e-01,9.99969e-01,3.44454e-01,9.99999e-01
5.559299443e-01,3.51777e-01,9.99999e-01,9.99999e-01,9.99985e-01,3.51782e-01,9.99999e-01
5.587095940e-01,3.59114e-01,9.99999e-01,9.99999e-01,9.99990e-01,3.59117e-01,9.99999e-01
5.615031420e-01,3.66452e-01,9.99999e-01,9.99999e-01,9.99989e-01,3.66455e-01,9.99999e-01
5.643106577e-01,3.73790e-01,9.99999e-01,9.99999e-01,9.99988e-01,3.73794e-01,9.99999e-01
5.671322110e-01,3.81078e-01,9.99999e-01,9.99999e-01,9.99860e-01,3.81131e-01,9.99998e-01
5.699678720e-01,3.88404e-01,9.99999e-01,9.99999e-01,9.99853e-01,3.88463e-01,9.99995e-01
5.728177114e-01,3.95724e-01,9.99999e-01,9.99999e-01,9.99846e-01,3.95786e-01,9.99996e-01
5.756818000e-01,4.03042e-01,9.99999e-01,9.99999e-01,9.99859e-01,4.03099e-01,9.99997e-01
5.785602090e-01,4.10348e-01,9.99999e-01,9.99999e-01,9.99877e-01,4.10398e-01,9.99998e-01
5.814530100e-01,4.17631e-01,9.99999e-01,9.99999e-01,9.99876e-01,4.17682e-01,9.99999e-01
5.843602750e-01,4.24885e-01,9.99999e-01,9.99999e-01,9.99852e-01,4.24947e-01,9.99998e-01
5.872820764e-01,4.31641e-01,9.99999e-01,9.99999e-01,9.98734e-01,4.32192e-01,9.99990e-01
5.902184868e-01,4.38731e-01,9.99999e-01,9.99999e-01,9.98471e-01,4.39413e-01,9.99975e-01
5.931695792e-01,4.46115e-01,9.99999e-01,9.99999e-01,9.98918e-01,4.46608e-01,9.99976e-01
5.961354271e-01,4.53233e-01,9.99999e-01,9.99999e-01,9.98815e-01,4.53776e-01,9.99986e-01
5.991161043e-01,4.60514e-01,9.99999e-01,9.99999e-01,9.99136e-01,4.60914e-01,9.99995e-01
6.021116848e-01,4.67791e-01,9.99999e-01,9.99999e-01,9.99510e-01,4.68020e-01,9.99999e-01
6.051222432e-01,4.74974e-01,9.99999e-01,9.99999e-01,9.99752e-01,4.75092e-01,9.99999e-01
6.081478544e-01,4.82076e-01,9.99999e-01,9.99999e-01,9.99892e-01,4.82127e-01,9.99999e-01
6.111885937e-01,4.89103e-01,9.99999e-01,9.99999e-01,9.99954e-01,4.89125e-01,9.99999e-01
6.142445367e-01,4.96073e-01,9.99999e-01,9.99999e-01,9.99979e-01,4.96083e-01,9.99999e-01
6.173157594e-01,5.02995e-01,9.99999e-01,9.99999e-01,9.99988e-01,5.03000e-01,9.99999e-01
6.204023382e-01,5.09869e-01,9.99999e-01,9.99999e-01,9.99990e-01,5.09874e-01,9.99999e-01
6.235043498e-01,5.16682e-01,9.99999e-01,9.99999e-01,9.99957e-01,5.16703e-01,9.99999e-01
6.266218716e-01,5.23371e-01,9.99999e-01,9.99999e-01,9.99779e-01,5.23487e-01,9.99997e-01
6.297549810e-01,5.30178e-01,9.99999e-01,9.99999e-01,9.99918e-01,5.30222e-01,9.99996e-01
6.329037559e-01,5.36822e-01,9.99999e-01,9.99999e-01,9.99840e-01,5.36909e-01,9.99997e-01
6.360682746e-01,5.43471e-01,9.99999e-01,9.99999e-01,9.99863e-01,5.43545e-01,9.99998e-01
6.392486160e-01,5.50033e-01,9.99999e-01,9.99999e-01,9.99823e-01,5.50130e-01,9.99998e-01
6.424448591e-01,5.56530e-01,9.99999e-01,9.99999e-01,9.99763e-01,5.56662e-01,9.99998e-01
6.456570834e-01,5.62520e-01,9.99999e-01,9.99999e-01,9.98903e-01,5.63141e-01,9.99993e-01
6.488853688e-01,5.69099e-01,9.99999e-01,9.99999e-01,9.99199e-01,5.69565e-01,9.99982e-01
6.521297956e-01,5.75455e-01,9.99999e-01,9.99999e-01,9.99184e-01,5.75932e-01,9.99985e-01
6.553904446e-01,5.81765e-01,9.99999e-01,9.99999e-01,9.99187e-01,5.82244e-01,9.99989e-01
6.586673968e-01,5.88086e-01,9.99999e-01,9.99999e-01,9.99304e-01,5.88497e-01,9.99996e-01
6.619607338e-01,5.94462e-01,9.99999e-01,9.99999e-01,9.99612e-01,5.94693e-01,9.99998e-01
6.652705375e-01,6.00689e-01,9.99999e-01,9.99999e-01,9.99767e-01,6.00829e-01,9.99999e-01
6.685968902e-01,6.06840e-01,9.99999e-01,9.99999e-01,9.99891e-01,6.06906e-01,9.99999e-01
6.719398746e-01,6.12891e-01,9.99999e-01,9.99999e-01,9.99949e-01,6.12922e-01,9.99999e-01
6.752995740e-01,6.18860e-01,9.99999e-01,9.99999e-01,9.99972e-01,6.18877e-01,9.99999e-01
6.786760719e-01,6.24746e-01,9.99999e-01,9.99999e-01,9.99960e-01,6.24771e-01,9.99999e-01
6.820694522e-01,6.30560e-01,9.99999e-01,9.99999e-01,9.99932e-01,6.30602e-01,9.99999e-01
6.854797995e-01,6.36316e-01,9.99999e-01,9.99999e-01,9.99913e-01,6.36372e-01,9.99998e-01
6.889071985e-01,6.41942e-01,9.99999e-01,9.99999e-01,9.99789e-01,6.42079e-01,9.99997e-01
6.923517345e-01,6.45491e-01,9.99999e-01,9.99999e-01,9.96570e-01,6.47722e-01,9.99983e-01
6.958134932e-01,6.52120e-01,9.99999e-01,9.99999e-01,9.98226e-01,6.53302e-01,9.99963e-01
6.992925606e-01,6.57682e-01,9.99999e-01,9.99999e-01,9.98305e-01,6.58819e-01,9.99966e-01
7.027890234e-01,6.62870e-01,9.99999e-01,9.99999e-01,9.97913e-01,6.64272e-01,9.99974e-01
7.063029686e-01,6.68478e-01,9.99999e-01,9.99999e-01,9.98245e-01,6.69661e-01,9.99987e-01
7.098344834e-01,6.73846e-01,9.99999e-01,9.99999e-01,9.98317e-01,6.74986e-01,9.99992e-01
7.133836558e-01,6.78705e-01,9.99999e-01,9.99999e-01,9.97747e-01,6.80247e-01,9.99984e-01
7.169505741e-01,6.72996e-01,9.99999e-01,9.99999e-01,9.81951e-01,6.85444e-01,9.99884e-01
7.205353270e-01,6.84354e-01,9.99999e-01,9.99999e-01,9.91190e-01,6.90577e-01,9.99796e-01
7.241380036e-01,6.87720e-01,9.99999e-01,9.99999e-01,9.88779e-01,6.95645e-01,9.99824e-01
7.277586936e-01,6.93454e-01,9.99999e-01,9.99999e-01,9.89871e-01,7.00650e-01,9.99856e-01
7.313974871e-01,6.97971e-01,9.99999e-01,9.99999e-01,9.89266e-01,7.05591e-01,9.99932e-01
7.350544745e-01,7.06279e-01,9.99999e-01,9.99999e-01,9.94127e-01,7.10468e-01,9.99976e-01
7.387297469e-01,7.12184e-01,9.99999e-01,9.99999e-01,9.95679e-01,7.15281e-01,9.99988e-01
7.424233956e-01,7.18508e-01,9.99999e-01,9.99999e-01,9.97886e-01,7.20031e-01,9.99997e-01
7.461355126e-01,7.23789e-01,9.99999e-01,9.99999e-01,9.98718e-01,7.24717e-01,9.99999e-01
7.498661902e-01,7.28907e-01,9.99999e-01,9.99999e-01,9.99403e-01,7.29341e-01,9.99999e-01
7.536155211e-01,7.33688e-01,9.99999e-01,9.99999e-01,9.99707e-01,7.33902e-01,9.99999e-01
7.573835987e-01,7.38290e-01,9.99999e-01,9.99999e-01,9.99849e-01,7.38401e-01,9.99999e-01
7.611705167e-01,7.42768e-01,9.99999e-01,9.99999e-01,9.99906e-01,7.42837e-01,9.99999e-01
7.649763693e-01,7.47168e-01,9.99999e-01,9.99999e-01,9.99940e-01,7.47212e-01,9.99999e-01
7.688012511e-01,7.51495e-01,9.99999e-01,9.99999e-01,9.99958e-01,7.51525e-01,9.99999e-01
7.726452574e-01,7.55752e-01,9.99999e-01,9.99999e-01,9.99965e-01,7.55778e-01,9.99999e-01
7.765084837e-01,7.59933e-01,9.99999e-01,9.99999e-01,9.99951e-01,7.59969e-01,9.99999e-01
7.803910261e-01,7.53598e-01,9.99999e-01,9.86456e-01,9.99792e-01,7.64101e-01,9.99999e-01
7.842929812e-01,7.25127e-01,9.99999e-01,9.44633e-01,9.99276e-01,7.68172e-01,9.99998e-01
7.882144461e-01,7.25135e-01,9.99999e-01,9.40454e-01,9.98513e-01,7.72185e-01,9.99989e-01
7.921555184e-01,7.48736e-01,9.99999e-01,9.65489e-01,9.99185e-01,7.76138e-01,9.99981e-01
7.961162960e-01,7.60912e-01,9.99999e-01,9.76907e-01,9.98556e-01,7.80033e-01,9.99982e-01
8.000968774e-01,7.72707e-01,9.99999e-01,9.87416e-01,9.98336e-01,7.83870e-01,9.99981e-01
8.040973618e-01,7.81199e-01,9.99999e-01,9.93475e-01,9.98334e-01,7.87649e-01,9.99985e-01
8.081178486e-01,7.86019e-01,9.99999e-01,9.96997e-01,9.96238e-01,7.91372e-01,9.99985e-01
8.121584379e-01,7.81852e-01,9.99999e-01,9.99074e-01,9.84372e-01,7.95038e-01,9.99947e-01
8.162192301e-01,7.83565e-01,9.99999e-01,9.99795e-01,9.81506e-01,7.98648e-01,9.99802e-01
8.203003262e-01,7.94507e-01,9.99999e-01,9.99996e-01,9.90637e-01,8.02203e-01,9.99768e-01
8.244018279e-01,7.95077e-01,9.99999e-01,9.99999e-01,9.86992e-01,8.05702e-01,9.99815e-01
8.285238370e-01,8.00074e-01,9.99999e-01,9.99999e-01,9.88927e-01,8.09148e-01,9.99855e-01
8.326664562e-01,8.03403e-01,9.99999e-01,9.99999e-01,9.88813e-01,8.12540e-01,9.99939e-01
8.368297885e-01,8.09357e-01,9.99999e-01,9.99999e-01,9.92019e-01,8.15878e-01,9.99985e-01
8.410139374e-01,8.15272e-01,9.99999e-01,9.99999e-01,9.95255e-01,8.19164e-01,9.99991e-01
8.452190071e-01,8.20481e-01,9.99999e-01,9.99999e-01,9.97673e-01,8.22398e-01,9.99994e-01
8.494451021e-01,8.24462e-01,9.99999e-01,9.99999e-01,9.98648e-01,8.25581e-01,9.99995e-01
8.536923276e-01,8.28049e-01,9.99999e-01,9.99999e-01,9.99201e-01,8.28712e-01,9.99997e-01
8.579607893e-01,8.31384e-01,9.99999e-01,9.99999e-01,9.99507e-01,8.31793e-01,9.99998e-01
8.622505932e-01,8.34564e-01,9.99999e-01,9.99999e-01,9.99687e-01,8.34825e-01,9.99999e-01
8.665618462e-01,8.06160e-01,9.99999e-01,9.62408e-01,9.99806e-01,8.37807e-01,9.99999e-01
8.708946554e-01,7.25101e-01,9.99999e-01,8.62642e-01,9.99778e-01,8.40741e-01,9.99999e-01
8.752491287e-01,7.50307e-01,9.99999e-01,8.89643e-01,9.99703e-01,8.43626e-01,9.99999e-01
8.796253743e-01,7.94184e-01,9.99999e-01,9.38618e-01,9.99588e-01,8.46465e-01,9.99998e-01
8.840235012e-01,8.21599e-01,9.99999e-01,9.67886e-01,9.99530e-01,8.49256e-01,9.99996e-01
8.884436187e-01,8.39700e-01,9.99999e-01,9.87263e-01,9.98277e-01,8.52002e-01,9.99991e-01
8.928858368e-01,8.34927e-01,9.99999e-01,9.94823e-01,9.81975e-01,8.54701e-01,9.99952e-01
8.973502660e-01,8.28988e-01,9.99999e-01,9.98743e-01,9.68350e-01,8.57356e-01,9.99759e-01
9.018370173e-01,8.45556e-01,9.99999e-01,9.99861e-01,9.83748e-01,8.59966e-01,9.99622e-01
9.063462024e-01,8.46837e-01,9.99999e-01,9.96391e-01,9.85642e-01,8.62533e-01,9.99668e-01
9.108779334e-01,8.38620e-01,9.99999e-01,9.91832e-01,9.77721e-01,8.65056e-01,9.99655e-01
9.154323231e-01,8.43806e-01,9.99999e-01,9.98084e-01,9.74774e-01,8.67536e-01,9.99715e-01
9.200094847e-01,8.28272e-01,9.99999e-01,9.71063e-01,9.80182e-01,8.69975e-01,9.99840e-01
9.246095321e-01,8.11728e-01,9.99999e-01,9.60561e-01,9.68577e-01,8.72372e-01,9.99816e-01
9.292325798e-01,6.83550e-01,9.99999e-01,9.68667e-01,8.06108e-01,8.74728e-01,9.99284e-01
9.338787427e-01,6.42705e-01,9.99999e-01,9.69913e-01,7.56686e-01,8.77043e-01,9.97046e-01
9.385481364e-01,7.66568e-01,9.99999e-01,9.77863e-01,8.94175e-01,8.79319e-01,9.96488e-01
9.432408771e-01,7.39983e-01,9.99999e-01,9.86427e-01,8.53269e-01,8.81556e-01,9.96969e-01
9.479570815e-01,7.00584e-01,9.99999e-01,9.93011e-01,8.00151e-01,8.83753e-01,9.97533e-01
9.526968669e-01,7.48738e-01,9.99999e-01,9.96626e-01,8.49184e-01,8.85913e-01,9.98494e-01
9.574603512e-01,7.65297e-01,9.99999e-01,9.98557e-01,8.63659e-01,8.88036e-01,9.99234e-01
9.622476530e-01,7.89905e-01,9.99999e-01,9.99549e-01,8.88272e-01,8.90121e-01,9.99470e-01
9.670588912e-01,8.33013e-01,9.99999e-01,9.99864e-01,9.34154e-01,8.92170e-01,9.99637e-01
9.718941857e-01,8.56912e-01,9.99999e-01,9.99990e-01,9.58582e-01,8.94183e-01,9.99733e-01
9.767536566e-01,8.65078e-01,9.99999e-01,9.99999e-01,9.65512e-01,8.96160e-01,9.99795e-01
9.816374249e-01,8.75035e-01,9.99999e-01,9.99999e-01,9.74383e-01,8.98103e-01,9.99929e-01
9.865456120e-01,8.85542e-01,9.99999e-01,9.99999e-01,9.83936e-01,9.00012e-01,9.99984e-01
9.914783401e-01,8.92907e-01,9.99999e-01,9.99999e-01,9.90047e-01,9.01886e-01,9.99995e-01
9.964357318e-01,8.98819e-01,9.99999e-01,9.99999e-01,9.94569e-01,9.03728e-01,9.99997e-01
1.001417910e+00,9.02585e-01,9.99999e-01,9.99999e-01,9.96743e-01,9.05537e-01,9.99995e-01
1.006425000e+00,9.05623e-01,9.99999e-01,9.99999e-01,9.98141e-01,9.07313e-01,9.99994e-01
1.011457125e+00,9.08006e-01,9.99999e-01,9.99999e-01,9.98847e-01,9.09058e-01,9.99994e-01
1.016514411e+00,9.10056e-01,9.99999e-01,9.99999e-01,9.99216e-01,9.10772e-01,9.99996e-01
1.021596983e+00,9.11864e-01,9.99999e-01,9.99979e-01,9.99375e-01,9.12455e-01,9.99996e-01
1.026704968e+00,9.12379e-01,9.99999e-01,9.98596e-01,9.99513e-01,9.14107e-01,9.99997e-01
1.031838492e+00,8.94603e-01,9.99999e-01,9.77268e-01,9.99646e-01,9.15730e-01,9.99998e-01
1.036997685e+00,3.22477e-01,9.99999e-01,3.51605e-01,9.99789e-01,9.17324e-01,9.99999e-01
1.042182673e+00,4.00433e-01,9.99999e-01,4.35883e-01,9.99748e-01,9.18889e-01,9.99999e-01
1.047393587e+00,3.55756e-01,9.99999e-01,3.86631e-01,9.99667e-01,9.20426e-01,9.99999e-01
1.052630555e+00,8.08346e-02,9.99999e-01,8.77120e-02,9.99543e-01,9.21934e-01,9.99999e-01
1.057893707e+00,1.39753e-01,9.99999e-01,1.51439e-01,9.99237e-01,9.23416e-01,9.99999e-01
1.063183176e+00,2.36973e-01,9.99999e-01,2.56495e-01,9.98745e-01,9.24870e-01,9.99998e-01
1.068499092e+00,3.76418e-01,9.99999e-01,4.07161e-01,9.97901e-01,9.26298e-01,9.99998e-01
1.073841587e+00,5.25690e-01,9.99999e-01,5.67958e-01,9.97541e-01,9.27700e-01,9.99996e-01
1.079210795e+00,6.48685e-01,9.99999e-01,7.00335e-01,9.96853e-01,9.29076e-01,9.99991e-01
1.084606849e+00,7.62839e-01,9.99999e-01,8.23749e-01,9.95236e-01,9.30427e-01,9.99979e-01
1.090029883e+00,8.37058e-01,9.99999e-01,9.04540e-01,9.93146e-01,9.31753e-01,9.99957e-01
1.095480033e+00,8.71646e-01,9.99999e-01,9.51850e-01,9.81440e-01,9.33055e-01,9.99923e-01
1.100957433e+00,8.69835e-01,9.99999e-01,9.76545e-01,9.53373e-01,9.34333e-01,9.99860e-01
1.106462220e+00,8.19484e-01,9.99999e-01,9.90243e-01,8.84618e-01,9.35587e-01,9.99763e-01
1.111994531e+00,7.19735e-01,9.99999e-01,9.96374e-01,7.71472e-01,9.36818e-01,9.99373e-01
1.117554504e+00,6.12683e-01,9.99999e-01,9.99115e-01,6.55173e-01,9.38027e-01,9.97741e-01
1.123142276e+00,6.79581e-01,9.99999e-01,9.99941e-01,7.27485e-01,9.39213e-01,9.94652e-01
1.128757988e+00,7.64907e-01,9.99999e-01,9.99999e-01,8.18465e-01,9.40377e-01,9.93816e-01
1.134401778e+00,5.72053e-01,9.99999e-01,9.99999e-01,6.10797e-01,9.41520e-01,9.94739e-01
1.140073787e+00,8.34669e-01,9.99999e-01,9.99999e-01,8.89196e-01,9.42641e-01,9.95794e-01
1.145774156e+00,7.33392e-01,9.99999e-01,9.99999e-01,7.80114e-01,9.43742e-01,9.96149e-01
1.151503026e+00,7.13147e-01,9.99999e-01,9.99999e-01,7.56418e-01,9.44821e-01,9.97852e-01
1.157260541e+00,7.53086e-01,9.99999e-01,9.99999e-01,7.96685e-01,9.45881e-01,9.99357e-01
1.163046844e+00,8.00957e-01,9.99999e-01,9.99999e-01,8.46007e-01,9.46921e-01,9.99817e-01
1.168862078e+00,8.44675e-01,9.99999e-01,9.99999e-01,8.91144e-01,9.47942e-01,9.99905e-01
1.174706389e+00,8.83713e-01,9.99999e-01,9.99999e-01,9.31374e-01,9.48944e-01,9.99875e-01
1.180579921e+00,9.09570e-01,9.99999e-01,9.99999e-01,9.57695e-01,9.49926e-01,9.99811e-01
1.186482820e+00,9.27803e-01,9.99999e-01,9.99996e-01,9.75910e-01,9.50891e-01,9.99806e-01
1.192415234e+00,9.33534e-01,9.99999e-01,9.94938e-01,9.85880e-01,9.51837e-01,9.99854e-01
1.198377311e+00,5.65878e-01,9.99999e-01,6.00066e-01,9.88078e-01,9.52765e-01,9.99862e-01
1.204369197e+00,1.44121e-05,9.99999e-01,1.52133e-05,9.88709e-01,9.53677e-01,9.99876e-01
1.210391043e+00,1.58593e-16,9.99999e-01,1.67155e-16,9.89207e-01,9.54570e-01,9.99924e-01
1.216442998e+00,1.51350e-14,9.99999e-01,1.59324e-14,9.90817e-01,9.55447e-01,9.99953e-01
1.222525213e+00,2.59511e-14,9.99999e-01,2.72431e-14,9.92846e-01,9.56308e-01,9.99970e-01
1.228637839e+00,5.83374e-11,9.99999e-01,6.11692e-11,9.95027e-01,9.57152e-01,9.99986e-01
