#,Wave/freq,Total,N2,CO2,H2O,Rayleigh,CIA
4.000000000e-01,1.31544e-04,9.99999e-01,9.99999e-01,9.99982e-01,1.31546e-04,9.99999e-01
4.020000000e-01,1.56968e-04,9.99999e-01,9.99999e-01,9.99988e-01,1.56969e-04,9.99999e-01
4.040100000e-01,1.86618e-04,9.99999e-01,9.99999e-01,9.99994e-01,1.86619e-04,9.99999e-01
4.060300500e-01,2.21113e-04,9.99999e-01,9.99999e-01,9.99998e-01,2.21113e-04,9.99999e-01
4.080602003e-01,2.61106e-04,9.99999e-01,9.99999e-01,9.99999e-01,2.61106e-04,9.99999e-01
4.101005013e-01,3.07322e-04,9.99999e-01,9.99999e-01,9.99999e-01,3.07322e-04,9.99999e-01
4.121510038e-01,3.60556e-04,9.99999e-01,9.99999e-01,9.99998e-01,3.60556e-04,9.99999e-01
4.142117588e-01,4.21676e-04,9.99999e-01,9.99999e-01,9.99994e-01,4.21678e-04,9.99999e-01
4.162828176e-01,4.91628e-04,9.99999e-01,9.99999e-01,9.99978e-01,4.91639e-04,9.99999e-01
4.183642317e-01,5.71464e-04,9.99999e-01,9.99999e-01,9.99986e-01,5.71471e-04,9.99999e-01
4.204560528e-01,6.62290e-04,9.99999e-01,9.99999e-01,9.99991e-01,6.62295e-04,9.99999e-01
4.225583331e-01,7.65319e-04,9.99999e-01,9.99999e-01,9.99996e-01,7.65321e-04,9.99999e-01
4.246711247e-01,8.81849e-04,9.99999e-01,9.99999e-01,9.99997e-01,8.81851e-04,9.99999e-01
4.267944804e-01,1.01328e-03,9.99999e-01,9.99999e-01,9.99996e-01,1.01328e-03,9.99999e-01
4.289284528e-01,1.16111e-03,9.99999e-01,9.99999e-01,9.99996e-01,1.16112e-03,9.99999e-01
4.310730950e-01,1.32694e-03,9.99999e-01,9.99999e-01,9.99998e-01,1.32694e-03,9.99999e-01
4.332284605e-01,1.51245e-03,9.99999e-01,9.99999e-01,9.99999e-01,1.51245e-03,9.99999e-01
4.353946028e-01,1.71945e-03,9.99999e-01,9.99999e-01,9.99999e-01,1.71945e-03,9.99999e-01
4.375715758e-01,1.94983e-03,9.99999e-01,9.99999e-01,9.99997e-01,1.94984e-03,9.99999e-01
4.397594337e-01,2.20556e-03,9.99999e-01,9.99999e-01,9.99980e-01,2.20561e-03,9.99999e-01
4.419582309e-01,2.48862e-03,9.99999e-01,9.99999e-01,9.99904e-01,2.48886e-03,9.99999e-01
4.441680220e-01,2.80158e-03,9.99999e-01,9.99999e-01,9.99925e-01,2.80179e-03,9.99999e-01
4.463888621e-01,3.14645e-03,9.99999e-01,9.99999e-01,9.99922e-01,3.14669e-03,9.99999e-01
4.486208064e-01,3.52580e-03,9.99999e-01,9.99999e-01,9.99951e-01,3.52597e-03,9.99999e-01
4.508639105e-01,3.94199e-03,9.99999e-01,9.99999e-01,9.99977e-01,3.94208e-03,9.99999e-01
4.531182300e-01,4.39756e-03,9.99999e-01,9.99999e-01,9.99990e-01,4.39760e-03,9.99999e-01
4.553838212e-01,4.89515e-03,9.99999e-01,9.99999e-01,9.99993e-01,4.89517e-03,9.99999e-01
4.576607403e-01,5.43751e-03,9.99999e-01,9.99999e-01,9.99996e-01,5.43752e-03,9.99999e-01
4.599490440e-01,6.02742e-03,9.99999e-01,9.99999e-01,9.99997e-01,6.02743e-03,9.99999e-01
4.622487892e-01,6.66776e-03,9.99999e-01,9.99999e-01,9.99999e-01,6.66777e-03,9.99999e-01
4.645600332e-01,7.36142e-03,9.99999e-01,9.99999e-01,9.99998e-01,7.36143e-03,9.99999e-01
4.668828333e-01,8.11120e-03,9.99999e-01,9.99999e-01,9.99976e-01,8.11138e-03,9.99999e-01
4.692172475e-01,8.92020e-03,9.99999e-01,9.99999e-01,9.99951e-01,8.92063e-03,9.99999e-01
4.715633337e-01,9.79189e-03,9.99999e-01,9.99999e-01,9.99967e-01,9.79220e-03,9.99999e-01
4.739211504e-01,1.07288e-02,9.99999e-01,9.99999e-01,9.99969e-01,1.07291e-02,9.99999e-01
4.762907561e-01,1.17344e-02,9.99999e-01,9.99999e-01,9.99983e-01,1.17346e-02,9.99999e-01
4.786722099e-01,1.28114e-02,9.99999e-01,9.99999e-01,9.99993e-01,1.28115e-02,9.99999e-01
4.810655710e-01,1.39630e-02,9.99999e-01,9.99999e-01,9.99997e-01,1.39630e-02,9.99999e-01
4.834708988e-01,1.51919e-02,9.99999e-01,9.99999e-01,9.99980e-01,1.51922e-02,9.99999e-01
4.858882533e-01,1.65015e-02,9.99999e-01,9.99999e-01,9.99965e-01,1.65020e-02,9.99999e-01
4.883176946e-01,1.78951e-02,9.99999e-01,9.99999e-01,9.99970e-01,1.78956e-02,9.99999e-01
4.907592831e-01,1.93752e-02,9.99999e-01,9.99999e-01,9.99973e-01,1.93757e-02,9.99999e-01
4.932130795e-01,2.09450e-02,9.99999e-01,9.99999e-01,9.99981e-01,2.09454e-02,9.99999e-01
4.956791449e-01,2.26072e-02,9.99999e-01,9.99999e-01,9.99989e-01,2.26075e-02,9.99999e-01
4.981575406e-01,2.43634e-02,9.99999e-01,9.99999e-01,9.99950e-01,2.43646e-02,9.99999e-01
5.006483283e-01,2.62162e-02,9.99999e-01,9.99999e-01,9.99873e-01,2.62195e-02,9.99998e-01
5.031515699e-01,2.81566e-02,9.99999e-01,9.99999e-01,9.99360e-01,2.81748e-02,9.99992e-01
5.056673278e-01,3.02225e-02,9.99999e-01,9.99999e-01,9.99662e-01,3.02329e-02,9.99991e-01
5.081956644e-01,3.23823e-02,9.99999e-01,9.99999e-01,9.99574e-01,3.23962e-02,9.99994e-01
5.107366428e-01,3.46570e-02,9.99999e-01,9.99999e-01,9.99712e-01,3.46670e-02,9.99998e-01
5.132903260e-01,3.70412e-02,9.99999e-01,9.99999e-01,9.99835e-01,3.70473e-02,9.99999e-01
5.158567776e-01,3.95363e-02,9.99999e-01,9.99999e-01,9.99930e-01,3.95391e-02,9.99999e-01
5.184360615e-01,4.21431e-02,9.99999e-01,9.99999e-01,9.99971e-01,4.21443e-02,9.99999e-01
5.210282418e-01,4.48641e-02,9.99999e-01,9.99999e-01,9.99989e-01,4.48646e-02,9.99999e-01
5.236333830e-01,4.76995e-02,9.99999e-01,9.99999e-01,9.99957e-01,4.77015e-02,9.99999e-01
5.262515499e-01,5.06550e-02,9.99999e-01,9.99999e-01,9.99973e-01,5.06564e-02,9.99999e-01
5.288828077e-01,5.37292e-02,9.99999e-01,9.99999e-01,9.99975e-01,5.37305e-02,9.99999e-01
5.315272217e-01,5.69237e-02,9.99999e-01,9.99999e-01,9.99978e-01,5.69249e-02,9.99999e-01
5.341848578e-01,6.02396e-02,9.99999e-01,9.99999e-01,9.99985e-01,6.02404e-02,9.99999e-01
5.368557821e-01,6.36747e-02,9.99999e-01,9.99999e-01,9.99951e-01,6.36778e-02,9.99999e-01
5.395400610e-01,6.72257e-02,9.99999e-01,9.99999e-01,9.99824e-01,6.72376e-02,9.99998e-01
5.422377613e-01,7.09039e-02,9.99999e-01,9.99999e-01,9.99773e-01,7.09202e-02,9.99995e-01
5.449489501e-01,7.47097e-02,9.99999e-01,9.99999e-01,9.99789e-01,7.47257e-02,9.99995e-01
5.476736949e-01,7.86394e-02,9.99999e-01,9.99999e-01,9.99813e-01,7.86542e-02,9.99997e-01
5.504120634e-01,8.26942e-02,9.99999e-01,9.99999e-01,9.99864e-01,8.27054e-02,9.99998e-01
5.531641237e-01,8.68732e-02,9.99999e-01,9.99999e-01,9.99931e-01,8.68791e-02,9.99999e-01
5.559299443e-01,9.11717e-02,9.99999e-01,9.99999e-01,9.99966e-01,9.11747e-02,9.99999e-01
5.587095940e-01,9.55896e-02,9.99999e-01,9.99999e-01,9.99978e-01,9.55915e-02,9.99999e-01
5.615031420e-01,1.00126e-01,9.99999e-01,9.99999e-01,9.99976e-01,1.00129e-01,9.99999e-01
5.643106577e-01,1.04783e-01,9.99999e-01,9.99999e-01,9.99973e-01,1.04785e-01,9.99999e-01
5.671322110e-01,1.09525e-01,9.99999e-01,9.99999e-01,9.99682e-01,1.09560e-01,9.99996e-01
5.699678720e-01,1.14412e-01,9.99999e-01,9.99999e-01,9.99663e-01,1.14451e-01,9.99990e-01
5.728177114e-01,1.19415e-01,9.99999e-01,9.99999e-01,9.99649e-01,1.19458e-01,9.99992e-01
5.756818000e-01,1.24538e-01,9.99999e-01,9.99999e-01,9.99678e-01,1.24578e-01,9.99995e-01
5.785602090e-01,1.29774e-01,9.99999e-01,9.99999e-01,9.99719e-01,1.29811e-01,9.99998e-01
5.814530100e-01,1.35114e-01,9.99999e-01,9.99999e-01,9.99718e-01,1.35153e-01,9.99998e-01
5.843602750e-01,1.40555e-01,9.99999e-01,9.99999e-01,9.99663e-01,1.40602e-01,9.99997e-01
5.872820764e-01,1.45732e-01,9.99999e-01,9.99999e-01,9.97107e-01,1.46158e-01,9.99979e-01
5.902184868e-01,1.51277e-01,9.99999e-01,9.99999e-01,9.96499e-01,1.51816e-01,9.99944e-01
5.931695792e-01,1.57178e-01,9.99999e-01,9.99999e-01,9.97525e-01,1.57576e-01,9.99946e-01
5.961354271e-01,1.62985e-01,9.99999e-01,9.99999e-01,9.97288e-01,1.63434e-01,9.99968e-01
5.991161043e-01,1.69050e-01,9.99999e-01,9.99999e-01,9.98022e-01,1.69387e-01,9.99990e-01
6.021116848e-01,1.75236e-01,9.99999e-01,9.99999e-01,9.98877e-01,1.75433e-01,9.99998e-01
6.051222432e-01,1.81466e-01,9.99999e-01,9.99999e-01,9.99431e-01,1.81569e-01,9.99999e-01
6.081478544e-01,1.87746e-01,9.99999e-01,9.99999e-01,9.99754e-01,1.87792e-01,9.99999e-01
6.111885937e-01,1.94079e-01,9.99999e-01,9.99999e-01,9.99895e-01,1.94099e-01,9.99999e-01
6.142445367e-01,2.00478e-01,9.99999e-01,9.99999e-01,9.99953e-01,2.00488e-01,9.99999e-01
6.173157594e-01,2.06948e-01,9.99999e-01,9.99999e-01,9.99974e-01,2.06954e-01,9.99999e-01
6.204023382e-01,2.13490e-01,9.99999e-01,9.99999e-01,9.99977e-01,2.13494e-01,9.99999e-01
6.235043498e-01,2.20085e-01,9.99999e-01,9.99999e-01,9.99904e-01,2.20106e-01,9.99999e-01
6.266218716e-01,2.26671e-01,9.99999e-01,9.99999e-01,9.99495e-01,2.26786e-01,9.99995e-01
6.297549810e-01,2.33487e-01,9.99999e-01,9.99999e-01,9.99814e-01,2.33531e-01,9.99992e-01
6.329037559e-01,2.40249e-01,9.99999e-01,9.99999e-01,9.99634e-01,2.40338e-01,9.99993e-01
6.360682746e-01,2.47125e-01,9.99999e-01,9.99999e-01,9.99688e-01,2.47202e-01,9.99996e-01
6.392486160e-01,2.54019e-01,9.99999e-01,9.99999e-01,9.99596e-01,2.54121e-01,9.99998e-01
6.424448591e-01,2.60950e-01,9.99999e-01,9.99999e-01,9.99459e-01,2.61092e-01,9.99997e-01
6.456570834e-01,2.67434e-01,9.99999e-01,9.99999e-01,9.97494e-01,2.68110e-01,9.99985e-01
6.488853688e-01,2.74657e-01,9.99999e-01,9.99999e-01,9.98166e-01,2.75172e-01,9.99960e-01
6.521297956e-01,2.81740e-01,9.99999e-01,9.99999e-01,9.98130e-01,2.82276e-01,9.99967e-01
6.553904446e-01,2.88872e-01,9.99999e-01,9.99999e-01,9.98139e-01,2.89417e-01,9.99975e-01
6.586673968e-01,2.96118e-01,9.99999e-01,9.99999e-01,9.98406e-01,2.96593e-01,9.99991e-01
6.619607338e-01,3.03529e-01,9.99999e-01,9.99999e-01,9.99112e-01,3.03799e-01,9.99997e-01
6.652705375e-01,3.10868e-01,9.99999e-01,9.99999e-01,9.99466e-01,3.11034e-01,9.99998e-01
6.685968902e-01,3.18213e-01,9.99999e-01,9.99999e-01,9.99752e-01,3.18292e-01,9.99999e-01
6.719398746e-01,3.25534e-01,9.99999e-01,9.99999e-01,9.99884e-01,3.25571e-01,9.99999e-01
6.752995740e-01,3.32848e-01,9.99999e-01,9.99999e-01,9.99937e-01,3.32868e-01,9.99999e-01
6.786760719e-01,3.40149e-01,9.99999e-01,9.99999e-01,9.99909e-01,3.40180e-01,9.99999e-01
6.820694522e-01,3.47449e-01,9.99999e-01,9.99999e-01,9.99845e-01,3.47503e-01,9.99998e-01
6.854797995e-01,3.54764e-01,9.99999e-01,9.99999e-01,9.99801e-01,3.54834e-01,9.99997e-01
6.889071985e-01,3.61996e-01,9.99999e-01,9.99999e-01,9.99518e-01,3.62171e-01,9.99995e-01
6.923517345e-01,3.66604e-01,9.99999e-01,9.99999e-01,9.92171e-01,3.69510e-01,9.99962e-01
6.958134932e-01,3.75284e-01,9.99999e-01,9.99999e-01,9.95931e-01,3.76849e-01,9.99916e-01
6.992925606e-01,3.82667e-01,9.99999e-01,9.99999e-01,9.96127e-01,3.84183e-01,9.99924e-01
7.027890234e-01,3.89620e-01,9.99999e-01,9.99999e-01,9.95223e-01,3.91512e-01,9.99942e-01
7.063029686e-01,3.97218e-01,9.99999e-01,9.99999e-01,9.95983e-01,3.98831e-01,9.99971e-01
7.098344834e-01,4.04567e-01,9.99999e-01,9.99999e-01,9.96146e-01,4.06139e-01,9.99982e-01
7.133836558e-01,4.11293e-01,9.99999e-01,9.99999e-01,9.94858e-01,4.13432e-01,9.99966e-01
7.169505741e-01,4.03472e-01,9.99999e-01,9.99999e-01,9.59281e-01,4.20708e-01,9.99736e-01
7.205353270e-01,4.19177e-01,9.99999e-01,9.99999e-01,9.79918e-01,4.27965e-01,9.99535e-01
7.241380036e-01,4.23945e-01,9.99999e-01,9.99999e-01,9.74527e-01,4.35200e-01,9.99598e-01
7.277586936e-01,4.32089e-01,9.99999e-01,9.99999e-01,9.76987e-01,4.42411e-01,9.99671e-01
7.313974871e-01,4.38547e-01,9.99999e-01,9.99999e-01,9.75575e-01,4.49595e-01,9.99846e-01
7.350544745e-01,4.50603e-01,9.99999e-01,9.99999e-01,9.86592e-01,4.56751e-01,9.99946e-01
7.387297469e-01,4.59283e-01,9.99999e-01,9.99999e-01,9.90122e-01,4.63876e-01,9.99975e-01
7.424233956e-01,4.68685e-01,9.99999e-01,9.99999e-01,9.95158e-01,4.70967e-01,9.99994e-01
7.461355126e-01,4.76621e-01,9.99999e-01,9.99999e-01,9.97063e-01,4.78024e-01,9.99998e-01
7.498661902e-01,4.84382e-01,9.99999e-01,9.99999e-01,9.98632e-01,4.85045e-01,9.99999e-01
7.536155211e-01,4.91696e-01,9.99999e-01,9.99999e-01,9.99328e-01,4.92026e-01,9.99999e-01
7.573835987e-01,4.98795e-01,9.99999e-01,9.99999e-01,9.99654e-01,4.98968e-01,9.99999e-01
7.611705167e-01,5.05758e-01,9.99999e-01,9.99999e-01,9.99785e-01,5.05867e-01,9.99999e-01
7.649763693e-01,5.12653e-01,9.99999e-01,9.99999e-01,9.99865e-01,5.12722e-01,9.99999e-01
7.688012511e-01,5.19484e-01,9.99999e-01,9.99999e-01,9.99905e-01,5.19532e-01,9.99999e-01
7.726452574e-01,5.26255e-01,9.99999e-01,9.99999e-01,9.99922e-01,5.26296e-01,9.99999e-01
7.765084837e-01,5.32953e-01,9.99999e-01,9.99999e-01,9.99889e-01,5.33011e-01,9.99999e-01
7.803910261e-01,5.23693e-01,9.99999e-01,9.70829e-01,9.99525e-01,5.39677e-01,9.99999e-01
7.842929812e-01,4.79576e-01,9.99999e-01,8.79270e-01,9.98346e-01,5.46292e-01,9.99996e-01
7.882144461e-01,4.79978e-01,9.99999e-01,8.71063e-01,9.96597e-01,5.52855e-01,9.99976e-01
7.921555184e-01,5.15326e-01,9.99999e-01,9.22993e-01,9.98133e-01,5.59365e-01,9.99958e-01
7.961162960e-01,5.34546e-01,9.99999e-01,9.47865e-01,9.96699e-01,5.65821e-01,9.99960e-01
8.000968774e-01,5.53720e-01,9.99999e-01,9.71396e-01,9.96191e-01,5.72222e-01,9.99958e-01
8.040973618e-01,5.67755e-01,9.99999e-01,9.85091e-01,9.96189e-01,5.78566e-01,9.99966e-01
8.081178486e-01,5.75838e-01,9.99999e-01,9.93126e-01,9.91417e-01,5.84854e-01,9.99968e-01
8.121584379e-01,5.68921e-01,9.99999e-01,9.97875e-01,9.64652e-01,5.91083e-01,9.99879e-01
8.162192301e-01,5.71761e-01,9.99999e-01,9.99530e-01,9.58190e-01,5.97254e-01,9.99547e-01
8.203003262e-01,5.90301e-01,9.99999e-01,9.99992e-01,9.78870e-01,6.03366e-01,9.99470e-01
8.244018279e-01,5.91264e-01,9.99999e-01,9.99999e-01,9.70621e-01,6.09417e-01,9.99578e-01
8.285238370e-01,5.99733e-01,9.99999e-01,9.99999e-01,9.74850e-01,6.15408e-01,9.99668e-01
8.326664562e-01,6.05462e-01,9.99999e-01,9.99999e-01,9.74582e-01,6.21338e-01,9.99862e-01
8.368297885e-01,6.15773e-01,9.99999e-01,9.99999e-01,9.81802e-01,6.27206e-01,9.99968e-01
8.410139374e-01,6.26135e-01,9.99999e-01,9.99999e-01,9.89154e-01,6.33011e-01,9.99981e-01
8.452190071e-01,6.35344e-01,9.99999e-01,9.99999e-01,9.94671e-01,6.38755e-01,9.99988e-01
8.494451021e-01,6.42435e-01,9.99999e-01,9.99999e-01,9.96905e-01,6.44435e-01,9.99990e-01
8.536923276e-01,6.48859e-01,9.99999e-01,9.99999e-01,9.98169e-01,6.50052e-01,9.99994e-01
8.579607893e-01,6.54866e-01,9.99999e-01,9.99999e-01,9.98872e-01,6.55606e-01,9.99998e-01
8.622505932e-01,6.60623e-01,9.99999e-01,9.99999e-01,9.99283e-01,6.61097e-01,9.99999e-01
8.665618462e-01,6.21203e-01,9.99999e-01,9.32403e-01,9.99556e-01,6.66523e-01,9.99999e-01
8.708946554e-01,4.83580e-01,9.99999e-01,7.20089e-01,9.99492e-01,6.71885e-01,9.99999e-01
8.752491287e-01,5.19979e-01,9.99999e-01,7.68363e-01,9.99320e-01,6.77184e-01,9.99998e-01
8.796253743e-01,5.90192e-01,9.99999e-01,8.65649e-01,9.99059e-01,6.82418e-01,9.99997e-01
8.840235012e-01,6.37418e-01,9.99999e-01,9.28025e-01,9.98925e-01,6.87588e-01,9.99992e-01
8.884436187e-01,6.69994e-01,9.99999e-01,9.71026e-01,9.96075e-01,6.92694e-01,9.99980e-01
8.928858368e-01,6.61439e-01,9.99999e-01,9.88163e-01,9.59352e-01,6.97736e-01,9.99892e-01
8.973502660e-01,6.50762e-01,9.99999e-01,9.97116e-01,9.29211e-01,7.02714e-01,9.99450e-01
9.018370173e-01,6.80818e-01,9.99999e-01,9.99681e-01,9.63241e-01,7.07628e-01,9.99135e-01
9.063462024e-01,6.83348e-01,9.99999e-01,9.91814e-01,9.67551e-01,7.12479e-01,9.99240e-01
9.108779334e-01,6.68227e-01,9.99999e-01,9.81377e-01,9.49871e-01,7.17266e-01,9.99211e-01
9.154323231e-01,6.77661e-01,9.99999e-01,9.95604e-01,9.43285e-01,7.21989e-01,9.99347e-01
9.200094847e-01,6.51622e-01,9.99999e-01,9.37120e-01,9.55297e-01,7.26650e-01,9.99634e-01
9.246095321e-01,6.21271e-01,9.99999e-01,9.12038e-01,9.30597e-01,7.31247e-01,9.99579e-01
9.292325798e-01,4.25133e-01,9.99999e-01,9.30207e-01,6.17988e-01,7.35782e-01,9.98361e-01
9.338787427e-01,3.71042e-01,9.99999e-01,9.32591e-01,5.37591e-01,7.40255e-01,9.93243e-01
9.385481364e-01,5.47881e-01,9.99999e-01,9.50046e-01,7.78687e-01,7.44666e-01,9.91969e-01
9.432408771e-01,5.09232e-01,9.99999e-01,9.69143e-01,7.05341e-01,7.49015e-01,9.93068e-01
9.479570815e-01,4.55632e-01,9.99999e-01,9.84048e-01,6.17660e-01,7.53303e-01,9.94354e-01
9.526968669e-01,5.22762e-01,9.99999e-01,9.92279e-01,6.97440e-01,7.57530e-01,9.96552e-01
9.574603512e-01,5.44630e-01,9.99999e-01,9.96692e-01,7.18518e-01,7.61696e-01,9.98247e-01
9.622476530e-01,5.84062e-01,9.99999e-01,9.98967e-01,7.64353e-01,7.65803e-01,9.98787e-01
9.670588912e-01,6.58684e-01,9.99999e-01,9.99690e-01,8.56563e-01,7.69850e-01,9.99170e-01
9.718941857e-01,7.02084e-01,9.99999e-01,9.99977e-01,9.07848e-01,7.73837e-01,9.99389e-01
9.767536566e-01,7.17460e-01,9.99999e-01,9.99999e-01,9.22892e-01,7.77766e-01,9.99533e-01
9.816374249e-01,7.36423e-01,9.99999e-01,9.99999e-01,9.42306e-01,7.81637e-01,9.99838e-01
9.865456120e-01,7.56810e-01,9.99999e-01,9.99999e-01,9.63569e-01,7.85450e-01,9.99965e-01
9.914783401e-01,7.71307e-01,9.99999e-01,9.99999e-01,9.77329e-01,7.89206e-01,9.99990e-01
9.964357318e-01,7.83063e-01,9.99999e-01,9.99999e-01,9.87593e-01,7.92904e-01,9.99994e-01
1.001417910e+00,7.90605e-01,9.99999e-01,9.99999e-01,9.92547e-01,7.96547e-01,9.99991e-01
1.006425000e+00,7.96721e-01,9.99999e-01,9.99999e-01,9.95745e-01,8.00134e-01,9.99987e-01
1.011457125e+00,8.01534e-01,9.99999e-01,9.99999e-01,9.97358e-01,8.03666e-01,9.99988e-01
1.016514411e+00,8.05689e-01,9.99999e-01,9.99999e-01,9.98205e-01,8.07143e-01,9.99991e-01
1.021596983e+00,8.09366e-01,9.99999e-01,9.99955e-01,9.98569e-01,8.10566e-01,9.99991e-01
1.026704968e+00,8.10428e-01,9.99999e-01,9.96804e-01,9.98884e-01,8.13936e-01,9.99994e-01
1.031838492e+00,7.83984e-01,9.99999e-01,9.60048e-01,9.99189e-01,8.17252e-01,9.99998e-01
1.036997685e+00,1.45343e-01,9.99999e-01,1.77205e-01,9.99518e-01,8.20517e-01,9.99999e-01
1.042182673e+00,1.33206e-01,9.99999e-01,1.61795e-01,9.99425e-01,8.23729e-01,9.99999e-01
1.047393587e+00,1.46446e-01,9.99999e-01,1.77225e-01,9.99238e-01,8.26890e-01,9.99999e-01
1.052630555e+00,6.54319e-03,9.99999e-01,7.88951e-03,9.98954e-01,8.30001e-01,9.99999e-01
1.057893707e+00,1.54706e-02,9.99999e-01,1.85935e-02,9.98255e-01,8.33061e-01,9.99998e-01
1.063183176e+00,4.46588e-02,9.99999e-01,5.35284e-02,9.97130e-01,8.36072e-01,9.99998e-01
1.068499092e+00,1.11330e-01,9.99999e-01,1.33239e-01,9.95197e-01,8.39034e-01,9.99996e-01
1.073841587e+00,2.34720e-01,9.99999e-01,2.80149e-01,9.94379e-01,8.41948e-01,9.99992e-01
1.079210795e+00,3.75107e-01,9.99999e-01,4.46989e-01,9.92805e-01,8.44814e-01,9.99980e-01
1.084606849e+00,5.39057e-01,9.99999e-01,6.42700e-01,9.89123e-01,8.47632e-01,9.99953e-01
1.090029883e+00,6.65747e-01,9.99999e-01,7.95051e-01,9.84398e-01,8.50405e-01,9.99903e-01
1.095480033e+00,7.30215e-01,9.99999e-01,8.93197e-01,9.58058e-01,8.53131e-01,9.99826e-01
1.100957433e+00,7.26949e-01,9.99999e-01,9.47061e-01,8.96761e-01,8.55812e-01,9.99680e-01
1.106462220e+00,6.36261e-01,9.99999e-01,9.77767e-01,7.57912e-01,8.58448e-01,9.99458e-01
1.111994531e+00,4.76528e-01,9.99999e-01,9.91702e-01,5.58577e-01,8.61040e-01,9.98565e-01
1.117554504e+00,3.34462e-01,9.99999e-01,9.97969e-01,3.89968e-01,8.63588e-01,9.94830e-01
1.123142276e+00,4.28484e-01,9.99999e-01,9.99866e-01,5.00885e-01,8.66093e-01,9.87784e-01
1.128757988e+00,5.49548e-01,9.99999e-01,9.99999e-01,6.41774e-01,8.68556e-01,9.85882e-01
1.134401778e+00,3.27837e-01,9.99999e-01,9.99999e-01,3.80979e-01,8.70977e-01,9.87982e-01
1.140073787e+00,6.63795e-01,9.99999e-01,9.99999e-01,7.67426e-01,8.73357e-01,9.90386e-01
1.145774156e+00,5.00018e-01,9.99999e-01,9.99999e-01,5.76065e-01,8.75696e-01,9.91196e-01
1.151503026e+00,4.72601e-01,9.99999e-01,9.99999e-01,5.40930e-01,8.77995e-01,9.95085e-01
1.157260541e+00,5.26320e-01,9.99999e-01,9.99999e-01,5.98799e-01,8.80255e-01,9.98527e-01
1.163046844e+00,6.03863e-01,9.99999e-01,9.99999e-01,6.84568e-01,8.82475e-01,9.99582e-01
1.168862078e+00,6.79788e-01,9.99999e-01,9.99999e-01,7.68584e-01,8.84657e-01,9.99784e-01
1.174706389e+00,7.53638e-01,9.99999e-01,9.99999e-01,8.50080e-01,8.86801e-01,9.99714e-01
1.180579921e+00,8.04865e-01,9.99999e-01,9.99999e-01,9.05843e-01,8.88908e-01,9.99568e-01
1.186482820e+00,8.42194e-01,9.99999e-01,9.99993e-01,9.45669e-01,8.90978e-01,9.99557e-01
1.192415234e+00,8.54339e-01,9.99999e-01,9.88604e-01,9.67935e-01,8.93012e-01,9.99668e-01
1.198377311e+00,4.94694e-01,9.99999e-01,5.65747e-01,9.72900e-01,8.95010e-01,9.99686e-01
1.204369197e+00,7.14571e-10,9.99999e-01,8.08917e-10,9.74335e-01,8.96973e-01,9.99716e-01
1.210391043e+00,5.63105e-35,9.99999e-01,6.35244e-35,9.75447e-01,8.98902e-01,9.99827e-01
1.216442998e+00,1.73785e-30,9.99999e-01,1.95482e-30,9.79080e-01,9.00796e-01,9.99894e-01
1.222525213e+00,4.74238e-30,9.99999e-01,5.29884e-30,9.83678e-01,9.02657e-01,9.99934e-01
1.228637839e+00,2.90561e-23,9.99999e-01,3.23822e-23,9.88640e-01,9.04485e-01,9.99969e-01
