#,Wave/freq,Total,N2,CO2,H2O,Rayleigh,CIA
4.000000000e-01,2.21188e-05,9.99999e-01,9.99999e-01,9.99978e-01,2.21193e-05,9.99999e-01
4.020000000e-01,2.73409e-05,9.99999e-01,9.99999e-01,9.99986e-01,2.73412e-05,9.99999e-01
4.040100000e-01,3.36473e-05,9.99999e-01,9.99999e-01,9.99994e-01,3.36475e-05,9.99999e-01
4.060300500e-01,4.12387e-05,9.99999e-01,9.99999e-01,9.99998e-01,4.12388e-05,9.99999e-01
4.080602003e-01,5.03401e-05,9.99999e-01,9.99999e-01,9.99999e-01,5.03402e-05,9.99999e-01
4.101005013e-01,6.12086e-05,9.99999e-01,9.99999e-01,9.99999e-01,6.12086e-05,9.99999e-01
4.121510038e-01,7.41366e-05,9.99999e-01,9.99999e-01,9.99998e-01,7.41367e-05,9.99999e-01
4.142117588e-01,8.94557e-05,9.99999e-01,9.99999e-01,9.99993e-01,8.94562e-05,9.99999e-01
4.162828176e-01,1.07539e-04,9.99999e-01,9.99999e-01,9.99973e-01,1.07541e-04,9.99999e-01
4.183642317e-01,1.28812e-04,9.99999e-01,9.99999e-01,9.99984e-01,1.28814e-04,9.99999e-01
4.204560528e-01,1.53743e-04,9.99999e-01,9.99999e-01,9.99990e-01,1.53745e-04,9.99999e-01
4.225583331e-01,1.82860e-04,9.99999e-01,9.99999e-01,9.99996e-01,1.82861e-04,9.99999e-01
4.246711247e-01,2.16746e-04,9.99999e-01,9.99999e-01,9.99996e-01,2.16747e-04,9.99999e-01
4.267944804e-01,2.56050e-04,9.99999e-01,9.99999e-01,9.99995e-01,2.56051e-04,9.99999e-01
4.289284528e-01,3.01488e-04,9.99999e-01,9.99999e-01,9.99996e-01,3.01489e-04,9.99999e-01
4.310730950e-01,3.53845e-04,9.99999e-01,9.99999e-01,9.99998e-01,3.53846e-04,9.99999e-01
4.332284605e-01,4.13984e-04,9.99999e-01,9.99999e-01,9.99999e-01,4.13984e-04,9.99999e-01
4.353946028e-01,4.82844e-04,9.99999e-01,9.99999e-01,9.99999e-01,4.82844e-04,9.99999e-01
4.375715758e-01,5.61447e-04,9.99999e-01,9.99999e-01,9.99996e-01,5.61448e-04,9.99999e-01
4.397594337e-01,6.50892e-04,9.99999e-01,9.99999e-01,9.99977e-01,6.50907e-04,9.99999e-01
4.419582309e-01,7.52333e-04,9.99999e-01,9.99999e-01,9.99885e-01,7.52419e-04,9.99999e-01
4.441680220e-01,8.67199e-04,9.99999e-01,9.99999e-01,9.99910e-01,8.67276e-04,9.99999e-01
4.463888621e-01,9.96773e-04,9.99999e-01,9.99999e-01,9.99906e-01,9.96865e-04,9.99999e-01
4.486208064e-01,1.14260e-03,9.99999e-01,9.99999e-01,9.99941e-01,1.14267e-03,9.99999e-01
4.508639105e-01,1.30624e-03,9.99999e-01,9.99999e-01,9.99972e-01,1.30627e-03,9.99999e-01
4.531182300e-01,1.48934e-03,9.99999e-01,9.99999e-01,9.99988e-01,1.48936e-03,9.99999e-01
4.553838212e-01,1.69370e-03,9.99999e-01,9.99999e-01,9.99992e-01,1.69371e-03,9.99999e-01
4.576607403e-01,1.92121e-03,9.99999e-01,9.99999e-01,9.99996e-01,1.92122e-03,9.99999e-01
4.599490440e-01,2.17386e-03,9.99999e-01,9.99999e-01,9.99997e-01,2.17387e-03,9.99999e-01
4.622487892e-01,2.45374e-03,9.99999e-01,9.99999e-01,9.99999e-01,2.45374e-03,9.99999e-01
4.645600332e-01,2.76303e-03,9.99999e-01,9.99999e-01,9.99997e-01,2.76304e-03,9.99999e-01
4.668828333e-01,3.10394e-03,9.99999e-01,9.99999e-01,9.99972e-01,3.10403e-03,9.99999e-01
4.692172475e-01,3.47889e-03,9.99999e-01,9.99999e-01,9.99941e-01,3.47910e-03,9.99999e-01
4.715633337e-01,3.89056e-03,9.99999e-01,9.99999e-01,9.99961e-01,3.89071e-03,9.99999e-01
4.739211504e-01,4.34126e-03,9.99999e-01,9.99999e-01,9.99963e-01,4.34142e-03,9.99999e-01
4.762907561e-01,4.83377e-03,9.99999e-01,9.99999e-01,9.99980e-01,4.83386e-03,9.99999e-01
4.786722099e-01,5.37071e-03,9.99999e-01,9.99999e-01,9.99991e-01,5.37075e-03,9.99999e-01
4.810655710e-01,5.95486e-03,9.99999e-01,9.99999e-01,9.99997e-01,5.95487e-03,9.99999e-01
4.834708988e-01,6.58892e-03,9.99999e-01,9.99999e-01,9.99977e-01,6.58907e-03,9.99999e-01
4.858882533e-01,7.27595e-03,9.99999e-01,9.99999e-01,9.99958e-01,7.27625e-03,9.99999e-01
4.883176946e-01,8.01910e-03,9.99999e-01,9.99999e-01,9.99965e-01,8.01937e-03,9.99999e-01
4.907592831e-01,8.82115e-03,9.99999e-01,9.99999e-01,9.99968e-01,8.82142e-03,9.99999e-01
4.932130795e-01,9.68523e-03,9.99999e-01,9.99999e-01,9.99977e-01,9.68544e-03,9.99999e-01
4.956791449e-01,1.06144e-02,9.99999e-01,9.99999e-01,9.99987e-01,1.06145e-02,9.99999e-01
4.981575406e-01,1.16109e-02,9.99999e-01,9.99999e-01,9.99941e-01,1.16116e-02,9.99999e-01
5.006483283e-01,1.26780e-02,9.99999e-01,9.99999e-01,9.99848e-01,1.26799e-02,9.99998e-01
5.031515699e-01,1.38117e-02,9.99999e-01,9.99999e-01,9.99232e-01,1.38224e-02,9.99991e-01
5.056673278e-01,1.50360e-02,9.99999e-01,9.99999e-01,9.99594e-01,1.50422e-02,9.99990e-01
5.081956644e-01,1.63339e-02,9.99999e-01,9.99999e-01,9.99489e-01,1.63423e-02,9.99993e-01
5.107366428e-01,1.77197e-02,9.99999e-01,9.99999e-01,9.99654e-01,1.77258e-02,9.99998e-01
5.132903260e-01,1.91917e-02,9.99999e-01,9.99999e-01,9.99802e-01,1.91955e-02,9.99999e-01
5.158567776e-01,2.07527e-02,9.99999e-01,9.99999e-01,9.99916e-01,2.07544e-02,9.99999e-01
5.184360615e-01,2.24046e-02,9.99999e-01,9.99999e-01,9.99966e-01,2.24054e-02,9.99999e-01
5.210282418e-01,2.41508e-02,9.99999e-01,9.99999e-01,9.99987e-01,2.41511e-02,9.99999e-01
5.236333830e-01,2.59930e-02,9.99999e-01,9.99999e-01,9.99949e-01,2.59943e-02,9.99999e-01
5.262515499e-01,2.79366e-02,9.99999e-01,9.99999e-01,9.99968e-01,2.79375e-02,9.99999e-01
5.288828077e-01,2.99824e-02,9.99999e-01,9.99999e-01,9.99970e-01,2.99833e-02,9.99999e-01
5.315272217e-01,3.21332e-02,9.99999e-01,9.99999e-01,9.99974e-01,3.21340e-02,9.99999e-01
5.341848578e-01,3.43913e-02,9.99999e-01,9.99999e-01,9.99983e-01,3.43919e-02,9.99999e-01
5.368557821e-01,3.67569e-02,9.99999e-01,9.99999e-01,9.99941e-01,3.67591e-02,9.99999e-01
5.395400610e-01,3.92293e-02,9.99999e-01,9.99999e-01,9.99789e-01,3.92376e-02,9.99997e-01
5.422377613e-01,4.18177e-02,9.99999e-01,9.99999e-01,9.99728e-01,4.18292e-02,9.99994e-01
5.449489501e-01,4.45243e-02,9.99999e-01,9.99999e-01,9.99747e-01,4.45358e-02,9.99994e-01
5.476736949e-01,4.73481e-02,9.99999e-01,9.99999e-01,9.99775e-01,4.73588e-02,9.99997e-01
5.504120634e-01,5.02914e-02,9.99999e-01,9.99999e-01,9.99837e-01,5.02996e-02,9.99998e-01
5.531641237e-01,5.33552e-02,9.99999e-01,9.99999e-01,9.99917e-01,5.33595e-02,9.99999e-01
5.559299443e-01,5.65374e-02,9.99999e-01,9.99999e-01,9.99960e-01,5.65396e-02,9.99999e-01
5.587095940e-01,5.98392e-02,9.99999e-01,9.99999e-01,9.99974e-01,5.98407e-02,9.99999e-01
5.615031420e-01,6.32619e-02,9.99999e-01,9.99999e-01,9.99972e-01,6.32636e-02,9.99999e-01
5.643106577e-01,6.68068e-02,9.99999e-01,9.99999e-01,9.99968e-01,6.68089e-02,9.99999e-01
5.671322110e-01,7.04500e-02,9.99999e-01,9.99999e-01,9.99620e-01,7.04769e-02,9.99996e-01
5.699678720e-01,7.42371e-02,9.99999e-01,9.99999e-01,9.99595e-01,7.42678e-02,9.99989e-01
5.728177114e-01,7.81482e-02,9.99999e-01,9.99999e-01,9.99579e-01,7.81817e-02,9.99990e-01
5.756818000e-01,8.21863e-02,9.99999e-01,9.99999e-01,9.99614e-01,8.22184e-02,9.99994e-01
5.785602090e-01,8.63484e-02,9.99999e-01,9.99999e-01,9.99663e-01,8.63776e-02,9.99997e-01
5.814530100e-01,9.06281e-02,9.99999e-01,9.99999e-01,9.99662e-01,9.06588e-02,9.99998e-01
5.843602750e-01,9.50228e-02,9.99999e-01,9.99999e-01,9.99597e-01,9.50612e-02,9.99997e-01
5.872820764e-01,9.92369e-02,9.99999e-01,9.99999e-01,9.96536e-01,9.95842e-02,9.99975e-01
5.902184868e-01,1.03782e-01,9.99999e-01,9.99999e-01,9.95801e-01,1.04227e-01,9.99933e-01
5.931695792e-01,1.08657e-01,9.99999e-01,9.99999e-01,9.97033e-01,1.08987e-01,9.99935e-01
5.961354271e-01,1.13491e-01,9.99999e-01,9.99999e-01,9.96747e-01,1.13865e-01,9.99962e-01
5.991161043e-01,1.18575e-01,9.99999e-01,9.99999e-01,9.97627e-01,1.18858e-01,9.99988e-01
6.021116848e-01,1.23798e-01,9.99999e-01,9.99999e-01,9.98652e-01,1.23965e-01,9.99998e-01
6.051222432e-01,1.29096e-01,9.99999e-01,9.99999e-01,9.99318e-01,1.29184e-01,9.99999e-01
6.081478544e-01,1.34474e-01,9.99999e-01,9.99999e-01,9.99705e-01,1.34513e-01,9.99999e-01
6.111885937e-01,1.39933e-01,9.99999e-01,9.99999e-01,9.99875e-01,1.39950e-01,9.99999e-01
6.142445367e-01,1.45485e-01,9.99999e-01,9.99999e-01,9.99944e-01,1.45493e-01,9.99999e-01
6.173157594e-01,1.51135e-01,9.99999e-01,9.99999e-01,9.99968e-01,1.51140e-01,9.99999e-01
6.204023382e-01,1.56883e-01,9.99999e-01,9.99999e-01,9.99973e-01,1.56887e-01,9.99999e-01
6.235043498e-01,1.62715e-01,9.99999e-01,9.99999e-01,9.99885e-01,1.62734e-01,9.99999e-01
6.266218716e-01,1.68573e-01,9.99999e-01,9.99999e-01,9.99395e-01,1.68676e-01,9.99995e-01
6.297549810e-01,1.74671e-01,9.99999e-01,9.99999e-01,9.99778e-01,1.74711e-01,9.99991e-01
6.329037559e-01,1.80756e-01,9.99999e-01,9.99999e-01,9.99561e-01,1.80837e-01,9.99992e-01
6.360682746e-01,1.86979e-01,9.99999e-01,9.99999e-01,9.99626e-01,1.87050e-01,9.99995e-01
6.392486160e-01,1.93253e-01,9.99999e-01,9.99999e-01,9.99516e-01,1.93347e-01,9.99997e-01
6.424448591e-01,1.99596e-01,9.99999e-01,9.99999e-01,9.99353e-01,1.99726e-01,9.99996e-01
6.456570834e-01,2.05561e-01,9.99999e-01,9.99999e-01,9.96999e-01,2.06183e-01,9.99982e-01
6.488853688e-01,2.12237e-01,9.99999e-01,9.99999e-01,9.97800e-01,2.12715e-01,9.99952e-01
6.521297956e-01,2.18818e-01,9.99999e-01,9.99999e-01,9.97757e-01,2.19318e-01,9.99961e-01
6.553904446e-01,2.25480e-01,9.99999e-01,9.99999e-01,9.97769e-01,2.25991e-01,9.99970e-01
6.586673968e-01,2.32281e-01,9.99999e-01,9.99999e-01,9.98088e-01,2.32728e-01,9.99989e-01
6.619607338e-01,2.39262e-01,9.99999e-01,9.99999e-01,9.98894e-01,2.39527e-01,9.99997e-01
6.652705375e-01,2.46227e-01,9.99999e-01,9.99999e-01,9.99360e-01,2.46385e-01,9.99998e-01
6.685968902e-01,2.53222e-01,9.99999e-01,9.99999e-01,9.99702e-01,2.53298e-01,9.99999e-01
6.719398746e-01,2.60226e-01,9.99999e-01,9.99999e-01,9.99861e-01,2.60262e-01,9.99999e-01
6.752995740e-01,2.67255e-01,9.99999e-01,9.99999e-01,9.99924e-01,2.67275e-01,9.99999e-01
6.786760719e-01,2.74303e-01,9.99999e-01,9.99999e-01,9.99891e-01,2.74332e-01,9.99999e-01
6.820694522e-01,2.81379e-01,9.99999e-01,9.99999e-01,9.99815e-01,2.81431e-01,9.99998e-01
6.854797995e-01,2.88499e-01,9.99999e-01,9.99999e-01,9.99762e-01,2.88568e-01,9.99997e-01
6.889071985e-01,2.95569e-01,9.99999e-01,9.99999e-01,9.99425e-01,2.95740e-01,9.99994e-01
6.923517345e-01,3.00092e-01,9.99999e-01,9.99999e-01,9.90631e-01,3.02943e-01,9.99954e-01
6.958134932e-01,3.08627e-01,9.99999e-01,9.99999e-01,9.95109e-01,3.10174e-01,9.99899e-01
6.992925606e-01,3.15929e-01,9.99999e-01,9.99999e-01,9.95362e-01,3.17430e-01,9.99909e-01
7.027890234e-01,3.22825e-01,9.99999e-01,9.99999e-01,9.94272e-01,3.24707e-01,9.99930e-01
7.063029686e-01,3.30392e-01,9.99999e-01,9.99999e-01,9.95184e-01,3.32002e-01,9.99965e-01
7.098344834e-01,3.37737e-01,9.99999e-01,9.99999e-01,9.95379e-01,3.39312e-01,9.99979e-01
7.133836558e-01,3.44489e-01,9.99999e-01,9.99999e-01,9.93850e-01,3.46634e-01,9.99959e-01
7.169505741e-01,3.36678e-01,9.99999e-01,9.99999e-01,9.51463e-01,3.53964e-01,9.99683e-01
7.205353270e-01,3.52406e-01,9.99999e-01,9.99999e-01,9.75924e-01,3.61301e-01,9.99442e-01
7.241380036e-01,3.57247e-01,9.99999e-01,9.99999e-01,9.69561e-01,3.68640e-01,9.99518e-01
7.277586936e-01,3.65491e-01,9.99999e-01,9.99999e-01,9.72489e-01,3.75978e-01,9.99606e-01
7.313974871e-01,3.72038e-01,9.99999e-01,9.99999e-01,9.70762e-01,3.83314e-01,9.99815e-01
7.350544745e-01,3.84343e-01,9.99999e-01,9.99999e-01,9.83935e-01,3.90643e-01,9.99935e-01
7.387297469e-01,3.93239e-01,9.99999e-01,9.99999e-01,9.88157e-01,3.97964e-01,9.99970e-01
7.424233956e-01,4.02916e-01,9.99999e-01,9.99999e-01,9.94190e-01,4.05273e-01,9.99993e-01
7.461355126e-01,4.11114e-01,9.99999e-01,9.99999e-01,9.96476e-01,4.12568e-01,9.99998e-01
7.498661902e-01,4.19157e-01,9.99999e-01,9.99999e-01,9.98357e-01,4.19846e-01,9.99999e-01
7.536155211e-01,4.26762e-01,9.99999e-01,9.99999e-01,9.99194e-01,4.27105e-01,9.99999e-01
7.573835987e-01,4.34163e-01,9.99999e-01,9.99999e-01,9.99585e-01,4.34343e-01,9.99999e-01
7.611705167e-01,4.41443e-01,9.99999e-01,9.99999e-01,9.99742e-01,4.41557e-01,9.99999e-01
7.649763693e-01,4.48672e-01,9.99999e-01,9.99999e-01,9.99838e-01,4.48744e-01,9.99999e-01
7.688012511e-01,4.55852e-01,9.99999e-01,9.99999e-01,9.99887e-01,4.55904e-01,9.99999e-01
7.726452574e-01,4.62989e-01,9.99999e-01,9.99999e-01,9.99907e-01,4.63032e-01,9.99999e-01
7.765084837e-01,4.70066e-01,9.99999e-01,9.99999e-01,9.99868e-01,4.70128e-01,9.99999e-01
7.803910261e-01,4.60669e-01,9.99999e-01,9.65909e-01,9.99432e-01,4.77189e-01,9.99998e-01
7.842929812e-01,4.14454e-01,9.99999e-01,8.57549e-01,9.98019e-01,4.84214e-01,9.99995e-01
7.882144461e-01,4.15064e-01,9.99999e-01,8.48343e-01,9.95920e-01,4.91200e-01,9.99974e-01
7.921555184e-01,4.51562e-01,9.99999e-01,9.08515e-01,9.97760e-01,4.98146e-01,9.99951e-01
7.961162960e-01,4.71738e-01,9.99999e-01,9.37755e-01,9.96047e-01,5.05051e-01,9.99953e-01
8.000968774e-01,4.92117e-01,9.99999e-01,9.65776e-01,9.95433e-01,5.11911e-01,9.99950e-01
8.040973618e-01,5.07110e-01,9.99999e-01,9.82119e-01,9.95432e-01,5.18727e-01,9.99960e-01
8.081178486e-01,5.15802e-01,9.99999e-01,9.91756e-01,9.89732e-01,5.25496e-01,9.99962e-01
8.121584379e-01,5.08412e-01,9.99999e-01,9.97445e-01,9.57830e-01,5.32217e-01,9.99855e-01
8.162192301e-01,5.11422e-01,9.99999e-01,9.99435e-01,9.50070e-01,5.38889e-01,9.99457e-01
8.203003262e-01,5.31441e-01,9.99999e-01,9.99991e-01,9.74833e-01,5.45510e-01,9.99365e-01
8.244018279e-01,5.32428e-01,9.99999e-01,9.99999e-01,9.64891e-01,5.52080e-01,9.99494e-01
8.285238370e-01,5.41590e-01,9.99999e-01,9.99999e-01,9.69939e-01,5.58596e-01,9.99603e-01
8.326664562e-01,5.47791e-01,9.99999e-01,9.99999e-01,9.69600e-01,5.65058e-01,9.99835e-01
8.368297885e-01,5.58989e-01,9.99999e-01,9.99999e-01,9.78203e-01,5.71465e-01,9.99962e-01
8.410139374e-01,5.70291e-01,9.99999e-01,9.99999e-01,9.86997e-01,5.77817e-01,9.99977e-01
8.452190071e-01,5.80368e-01,9.99999e-01,9.99999e-01,9.93605e-01,5.84111e-01,9.99986e-01
8.494451021e-01,5.88150e-01,9.99999e-01,9.99999e-01,9.96287e-01,5.90347e-01,9.99989e-01
8.536923276e-01,5.95211e-01,9.99999e-01,9.99999e-01,9.97802e-01,5.96525e-01,9.99993e-01
8.579607893e-01,6.01828e-01,9.99999e-01,9.99999e-01,9.98646e-01,6.02644e-01,9.99997e-01
8.622505932e-01,6.08179e-01,9.99999e-01,9.99999e-01,9.99140e-01,6.08702e-01,9.99999e-01
8.665618462e-01,5.68262e-01,9.99999e-01,9.24924e-01,9.99468e-01,6.14700e-01,9.99999e-01
8.708946554e-01,4.19909e-01,9.99999e-01,6.76974e-01,9.99391e-01,6.20637e-01,9.99999e-01
8.752491287e-01,4.57102e-01,9.99999e-01,7.30174e-01,9.99185e-01,6.26513e-01,9.99998e-01
8.796253743e-01,5.31403e-01,9.99999e-01,8.41315e-01,9.98872e-01,6.32326e-01,9.99996e-01
8.840235012e-01,5.82649e-01,9.99999e-01,9.14298e-01,9.98712e-01,6.38077e-01,9.99991e-01
8.884436187e-01,6.18530e-01,9.99999e-01,9.65302e-01,9.95314e-01,6.43765e-01,9.99977e-01
8.928858368e-01,6.09166e-01,9.99999e-01,9.85803e-01,9.51571e-01,6.49389e-01,9.99870e-01
8.973502660e-01,5.97379e-01,9.99999e-01,9.96533e-01,9.15807e-01,6.54951e-01,9.99340e-01
9.018370173e-01,6.30547e-01,9.99999e-01,9.99617e-01,9.56069e-01,6.60449e-01,9.98963e-01
9.063462024e-01,6.33489e-01,9.99999e-01,9.90240e-01,9.61305e-01,6.65883e-01,9.99089e-01
9.108779334e-01,6.16672e-01,9.99999e-01,9.77691e-01,9.40276e-01,6.71253e-01,9.99053e-01
9.154323231e-01,6.27094e-01,9.99999e-01,9.94717e-01,9.32432e-01,6.76559e-01,9.99217e-01
9.200094847e-01,5.99194e-01,9.99999e-01,9.26064e-01,9.46665e-01,6.81800e-01,9.99561e-01
9.246095321e-01,5.65541e-01,9.99999e-01,8.95455e-01,9.17961e-01,6.86978e-01,9.99495e-01
9.292325798e-01,3.60994e-01,9.99999e-01,9.17182e-01,5.64578e-01,6.92092e-01,9.98034e-01
9.338787427e-01,3.06925e-01,9.99999e-01,9.19758e-01,4.78262e-01,6.97141e-01,9.91901e-01
9.385481364e-01,4.87285e-01,9.99999e-01,9.40391e-01,7.42490e-01,7.02127e-01,9.90375e-01
9.432408771e-01,4.47809e-01,9.99999e-01,9.63071e-01,6.61747e-01,7.07049e-01,9.91691e-01
9.479570815e-01,3.93433e-01,9.99999e-01,9.80886e-01,5.66650e-01,7.11907e-01,9.93232e-01
9.526968669e-01,4.61547e-01,9.99999e-01,9.90738e-01,6.52160e-01,7.16701e-01,9.95866e-01
9.574603512e-01,4.83505e-01,9.99999e-01,9.96029e-01,6.74109e-01,7.21432e-01,9.97898e-01
9.622476530e-01,5.25191e-01,9.99999e-01,9.98760e-01,7.25202e-01,7.26100e-01,9.98545e-01
9.670588912e-01,6.06342e-01,9.99999e-01,9.99628e-01,8.30922e-01,7.30705e-01,9.99005e-01
9.718941857e-01,6.54320e-01,9.99999e-01,9.99973e-01,8.90604e-01,7.35247e-01,9.99267e-01
9.767536566e-01,6.71528e-01,9.99999e-01,9.99999e-01,9.08312e-01,7.39728e-01,9.99440e-01
9.816374249e-01,6.92816e-01,9.99999e-01,9.99999e-01,9.31201e-01,7.44146e-01,9.99805e-01
9.865456120e-01,7.15876e-01,9.99999e-01,9.99999e-01,9.56449e-01,7.48502e-01,9.99959e-01
9.914783401e-01,7.32358e-01,9.99999e-01,9.99999e-01,9.72859e-01,7.52797e-01,9.99988e-01
9.964357318e-01,7.45770e-01,9.99999e-01,9.99999e-01,9.85129e-01,7.57031e-01,9.99992e-01
1.001417910e+00,7.54395e-01,9.99999e-01,9.99999e-01,9.91062e-01,7.61205e-01,9.99989e-01
1.006425000e+00,7.61403e-01,9.99999e-01,9.99999e-01,9.94897e-01,7.65319e-01,9.99985e-01
1.011457125e+00,7.66924e-01,9.99999e-01,9.99999e-01,9.96829e-01,7.69373e-01,9.99986e-01
1.016514411e+00,7.71696e-01,9.99999e-01,9.99999e-01,9.97847e-01,7.73367e-01,9.99990e-01
1.021596983e+00,7.75923e-01,9.99999e-01,9.99948e-01,9.98284e-01,7.77303e-01,9.99990e-01
1.026704968e+00,7.77159e-01,9.99999e-01,9.96187e-01,9.98661e-01,7.81181e-01,9.99993e-01
1.031838492e+00,7.49303e-01,9.99999e-01,9.55427e-01,9.99027e-01,7.85001e-01,9.99997e-01
1.036997685e+00,1.18679e-01,9.99999e-01,1.50531e-01,9.99422e-01,7.88763e-01,9.99999e-01
1.042182673e+00,9.18261e-02,9.99999e-01,1.15944e-01,9.99311e-01,7.92469e-01,9.99999e-01
1.047393587e+00,1.10058e-01,9.99999e-01,1.38354e-01,9.99086e-01,7.96118e-01,9.99999e-01
1.052630555e+00,2.91159e-03,9.99999e-01,3.64414e-03,9.98746e-01,7.99712e-01,9.99999e-01
1.057893707e+00,7.47475e-03,9.99999e-01,9.31871e-03,9.97909e-01,8.03250e-01,9.99998e-01
1.063183176e+00,2.55446e-02,9.99999e-01,3.17421e-02,9.96560e-01,8.06733e-01,9.99997e-01
1.068499092e+00,7.30483e-02,9.99999e-01,9.06024e-02,9.94244e-01,8.10163e-01,9.99995e-01
1.073841587e+00,1.77186e-01,9.99999e-01,2.19052e-01,9.93267e-01,8.13539e-01,9.99991e-01
1.079210795e+00,3.09842e-01,9.99999e-01,3.82317e-01,9.91377e-01,8.16862e-01,9.99976e-01
1.084606849e+00,4.76926e-01,9.99999e-01,5.88868e-01,9.86974e-01,8.20132e-01,9.99944e-01
1.090029883e+00,6.14021e-01,9.99999e-01,7.59624e-01,9.81346e-01,8.23351e-01,9.99884e-01
1.095480033e+00,6.85928e-01,9.99999e-01,8.73296e-01,9.49971e-01,8.26518e-01,9.99791e-01
1.100957433e+00,6.82398e-01,9.99999e-01,9.36817e-01,8.77735e-01,8.29634e-01,9.99617e-01
1.106462220e+00,5.82550e-01,9.99999e-01,9.73370e-01,7.18492e-01,8.32701e-01,9.99351e-01
1.111994531e+00,4.13122e-01,9.99999e-01,9.90046e-01,4.99799e-01,8.35717e-01,9.98279e-01
1.117554504e+00,2.71776e-01,9.99999e-01,9.97560e-01,3.26717e-01,8.38685e-01,9.93802e-01
1.123142276e+00,3.66781e-01,9.99999e-01,9.99839e-01,4.42317e-01,8.41604e-01,9.85365e-01
1.128757988e+00,4.90382e-01,9.99999e-01,9.99999e-01,5.90682e-01,8.44476e-01,9.83090e-01
1.134401778e+00,2.76810e-01,9.99999e-01,9.99999e-01,3.31468e-01,8.47300e-01,9.85602e-01
1.140073787e+00,6.12794e-01,9.99999e-01,9.99999e-01,7.29268e-01,8.50078e-01,9.88480e-01
1.145774156e+00,4.38387e-01,9.99999e-01,9.99999e-01,5.19530e-01,8.52810e-01,9.89450e-01
1.151503026e+00,4.10764e-01,9.99999e-01,9.99999e-01,4.82992e-01,8.55496e-01,9.94108e-01
1.157260541e+00,4.64548e-01,9.99999e-01,9.99999e-01,5.42301e-01,8.58137e-01,9.98234e-01
1.163046844e+00,5.46947e-01,9.99999e-01,9.99999e-01,6.35760e-01,8.60735e-01,9.99498e-01
1.168862078e+00,6.29607e-01,9.99999e-01,9.99999e-01,7.29500e-01,8.63288e-01,9.99741e-01
1.174706389e+00,7.12413e-01,9.99999e-01,9.99999e-01,8.23120e-01,8.65798e-01,9.99657e-01
1.180579921e+00,7.70784e-01,9.99999e-01,9.99999e-01,8.88185e-01,8.68266e-01,9.99482e-01
1.186482820e+00,8.13825e-01,9.99999e-01,9.99992e-01,9.35189e-01,8.70692e-01,9.99469e-01
1.192415234e+00,8.28037e-01,9.99999e-01,9.86461e-01,9.61660e-01,8.73077e-01,9.99602e-01
1.198377311e+00,4.77659e-01,9.99999e-01,5.61075e-01,9.67593e-01,8.75421e-01,9.99624e-01
1.204369197e+00,2.15520e-11,9.99999e-01,2.50087e-11,9.69306e-01,8.77725e-01,9.99659e-01
1.210391043e+00,1.66997e-41,9.99999e-01,1.92977e-41,9.70627e-01,8.79989e-01,9.99792e-01
1.216442998e+00,4.05116e-36,9.99999e-01,4.66518e-36,9.74954e-01,8.82214e-01,9.99873e-01
1.222525213e+00,1.34790e-35,9.99999e-01,1.53976e-35,9.80451e-01,8.84400e-01,9.99920e-01
1.228637839e+00,1.42329e-27,9.99999e-01,1.62077e-27,9.86388e-01,8.86549e-01,9.99962e-01
