#,Wave/freq,Total,N2,CO2,H2O,Rayleigh,CIA
4.000000000e-01,2.62240e-03,9.99999e-01,9.99999e-01,9.99988e-01,2.62243e-03,9.99999e-01
4.020000000e-01,2.94944e-03,9.99999e-01,9.99999e-01,9.99992e-01,2.94946e-03,9.99999e-01
4.040100000e-01,3.30918e-03,9.99999e-01,9.99999e-01,9.99996e-01,3.30919e-03,9.99999e-01
4.060300500e-01,3.70436e-03,9.99999e-01,9.99999e-01,9.99998e-01,3.70436e-03,9.99999e-01
4.080602003e-01,4.13749e-03,9.99999e-01,9.99999e-01,9.99999e-01,4.13749e-03,9.99999e-01
4.101005013e-01,4.61118e-03,9.99999e-01,9.99999e-01,9.99999e-01,4.61118e-03,9.99999e-01
4.121510038e-01,5.12811e-03,9.99999e-01,9.99999e-01,9.99999e-01,5.12812e-03,9.99999e-01
4.142117588e-01,5.69102e-03,9.99999e-01,9.99999e-01,9.99996e-01,5.69104e-03,9.99999e-01
4.162828176e-01,6.30269e-03,9.99999e-01,9.99999e-01,9.99985e-01,6.30278e-03,9.99999e-01
4.183642317e-01,6.96616e-03,9.99999e-01,9.99999e-01,9.99991e-01,6.96622e-03,9.99999e-01
4.204560528e-01,7.68424e-03,9.99999e-01,9.99999e-01,9.99994e-01,7.68428e-03,9.99999e-01
4.225583331e-01,8.45993e-03,9.99999e-01,9.99999e-01,9.99997e-01,8.45995e-03,9.99999e-01
4.246711247e-01,9.29623e-03,9.99999e-01,9.99999e-01,9.99997e-01,9.29624e-03,9.99999e-01
4.267944804e-01,1.01962e-02,9.99999e-01,9.99999e-01,9.99997e-01,1.01962e-02,9.99999e-01
4.289284528e-01,1.11629e-02,9.99999e-01,9.99999e-01,9.99997e-01,1.11629e-02,9.99999e-01
4.310730950e-01,1.21994e-02,9.99999e-01,9.99999e-01,9.99998e-01,1.21994e-02,9.99999e-01
4.332284605e-01,1.33088e-02,9.99999e-01,9.99999e-01,9.99999e-01,1.33088e-02,9.99999e-01
4.353946028e-01,1.44941e-02,9.99999e-01,9.99999e-01,9.99999e-01,1.44941e-02,9.99999e-01
4.375715758e-01,1.57584e-02,9.99999e-01,9.99999e-01,9.99998e-01,1.57584e-02,9.99999e-01
4.397594337e-01,1.71045e-02,9.99999e-01,9.99999e-01,9.99986e-01,1.71047e-02,9.99999e-01
4.419582309e-01,1.85348e-02,9.99999e-01,9.99999e-01,9.99935e-01,1.85360e-02,9.99999e-01
4.441680220e-01,2.00542e-02,9.99999e-01,9.99999e-01,9.99950e-01,2.00552e-02,9.99999e-01
4.463888621e-01,2.16640e-02,9.99999e-01,9.99999e-01,9.99948e-01,2.16651e-02,9.99999e-01
4.486208064e-01,2.33680e-02,9.99999e-01,9.99999e-01,9.99967e-01,2.33687e-02,9.99999e-01
4.508639105e-01,2.51682e-02,9.99999e-01,9.99999e-01,9.99984e-01,2.51685e-02,9.99999e-01
4.531182300e-01,2.70671e-02,9.99999e-01,9.99999e-01,9.99993e-01,2.70673e-02,9.99999e-01
4.553838212e-01,2.90674e-02,9.99999e-01,9.99999e-01,9.99995e-01,2.90675e-02,9.99999e-01
4.576607403e-01,3.11716e-02,9.99999e-01,9.99999e-01,9.99997e-01,3.11716e-02,9.99999e-01
4.599490440e-01,3.33819e-02,9.99999e-01,9.99999e-01,9.99998e-01,3.33819e-02,9.99999e-01
4.622487892e-01,3.57006e-02,9.99999e-01,9.99999e-01,9.99999e-01,3.57006e-02,9.99999e-01
4.645600332e-01,3.81297e-02,9.99999e-01,9.99999e-01,9.99998e-01,3.81298e-02,9.99999e-01
4.668828333e-01,4.06706e-02,9.99999e-01,9.99999e-01,9.99984e-01,4.06713e-02,9.99999e-01
4.692172475e-01,4.33255e-02,9.99999e-01,9.99999e-01,9.99967e-01,4.33269e-02,9.99999e-01
4.715633337e-01,4.60973e-02,9.99999e-01,9.99999e-01,9.99978e-01,4.60983e-02,9.99999e-01
4.739211504e-01,4.89860e-02,9.99999e-01,9.99999e-01,9.99979e-01,4.89870e-02,9.99999e-01
4.762907561e-01,5.19936e-02,9.99999e-01,9.99999e-01,9.99989e-01,5.19942e-02,9.99999e-01
4.786722099e-01,5.51208e-02,9.99999e-01,9.99999e-01,9.99995e-01,5.51211e-02,9.99999e-01
4.810655710e-01,5.83686e-02,9.99999e-01,9.99999e-01,9.99998e-01,5.83687e-02,9.99999e-01
4.834708988e-01,6.17370e-02,9.99999e-01,9.99999e-01,9.99986e-01,6.17377e-02,9.99999e-01
4.858882533e-01,6.52275e-02,9.99999e-01,9.99999e-01,9.99976e-01,6.52290e-02,9.99999e-01
4.883176946e-01,6.88414e-02,9.99999e-01,9.99999e-01,9.99980e-01,6.88427e-02,9.99999e-01
4.907592831e-01,7.25781e-02,9.99999e-01,9.99999e-01,9.99982e-01,7.25794e-02,9.99999e-01
4.932130795e-01,7.64381e-02,9.99999e-01,9.99999e-01,9.99987e-01,7.64390e-02,9.99999e-01
4.956791449e-01,8.04210e-02,9.99999e-01,9.99999e-01,9.99993e-01,8.04215e-02,9.99999e-01
4.981575406e-01,8.45240e-02,9.99999e-01,9.99999e-01,9.99966e-01,8.45267e-02,9.99999e-01
5.006483283e-01,8.87465e-02,9.99999e-01,9.99999e-01,9.99914e-01,8.87541e-02,9.99998e-01
5.031515699e-01,9.30630e-02,9.99999e-01,9.99999e-01,9.99572e-01,9.31031e-02,9.99995e-01
5.056673278e-01,9.75507e-02,9.99999e-01,9.99999e-01,9.99775e-01,9.75730e-02,9.99994e-01
5.081956644e-01,1.02134e-01,9.99999e-01,9.99999e-01,9.99717e-01,1.02163e-01,9.99996e-01
5.107366428e-01,1.06851e-01,9.99999e-01,9.99999e-01,9.99808e-01,1.06872e-01,9.99998e-01
5.132903260e-01,1.11686e-01,9.99999e-01,9.99999e-01,9.99890e-01,1.11698e-01,9.99999e-01
5.158567776e-01,1.16635e-01,9.99999e-01,9.99999e-01,9.99953e-01,1.16640e-01,9.99999e-01
5.184360615e-01,1.21695e-01,9.99999e-01,9.99999e-01,9.99981e-01,1.21697e-01,9.99999e-01
5.210282418e-01,1.26866e-01,9.99999e-01,9.99999e-01,9.99992e-01,1.26867e-01,9.99999e-01
5.236333830e-01,1.32144e-01,9.99999e-01,9.99999e-01,9.99971e-01,1.32148e-01,9.99999e-01
5.262515499e-01,1.37535e-01,9.99999e-01,9.99999e-01,9.99982e-01,1.37537e-01,9.99999e-01
5.288828077e-01,1.43031e-01,9.99999e-01,9.99999e-01,9.99983e-01,1.43034e-01,9.99999e-01
5.315272217e-01,1.48633e-01,9.99999e-01,9.99999e-01,9.99985e-01,1.48635e-01,9.99999e-01
5.341848578e-01,1.54337e-01,9.99999e-01,9.99999e-01,9.99990e-01,1.54338e-01,9.99999e-01
5.368557821e-01,1.60136e-01,9.99999e-01,9.99999e-01,9.99966e-01,1.60141e-01,9.99999e-01
5.395400610e-01,1.66021e-01,9.99999e-01,9.99999e-01,9.99881e-01,1.66041e-01,9.99998e-01
5.422377613e-01,1.72009e-01,9.99999e-01,9.99999e-01,9.99849e-01,1.72036e-01,9.99996e-01
5.449489501e-01,1.78096e-01,9.99999e-01,9.99999e-01,9.99858e-01,1.78122e-01,9.99996e-01
5.476736949e-01,1.84274e-01,9.99999e-01,9.99999e-01,9.99876e-01,1.84297e-01,9.99998e-01
5.504120634e-01,1.90540e-01,9.99999e-01,9.99999e-01,9.99909e-01,1.90557e-01,9.99999e-01
5.531641237e-01,1.96891e-01,9.99999e-01,9.99999e-01,9.99954e-01,1.96900e-01,9.99999e-01
5.559299443e-01,2.03319e-01,9.99999e-01,9.99999e-01,9.99977e-01,2.03323e-01,9.99999e-01
5.587095940e-01,2.09820e-01,9.99999e-01,9.99999e-01,9.99985e-01,2.09822e-01,9.99999e-01
5.615031420e-01,2.16392e-01,9.99999e-01,9.99999e-01,9.99984e-01,2.16395e-01,9.99999e-01
5.643106577e-01,2.23033e-01,9.99999e-01,9.99999e-01,9.99981e-01,2.23037e-01,9.99999e-01
5.671322110e-01,2.29696e-01,9.99999e-01,9.99999e-01,9.99784e-01,2.29746e-01,9.99997e-01
5.699678720e-01,2.36465e-01,9.99999e-01,9.99999e-01,9.99778e-01,2.36519e-01,9.99993e-01
5.728177114e-01,2.43293e-01,9.99999e-01,9.99999e-01,9.99765e-01,2.43351e-01,9.99994e-01
5.756818000e-01,2.50186e-01,9.99999e-01,9.99999e-01,9.99785e-01,2.50240e-01,9.99996e-01
5.785602090e-01,2.57134e-01,9.99999e-01,9.99999e-01,9.99813e-01,2.57182e-01,9.99998e-01
5.814530100e-01,2.64124e-01,9.99999e-01,9.99999e-01,9.99812e-01,2.64174e-01,9.99999e-01
5.843602750e-01,2.71151e-01,9.99999e-01,9.99999e-01,9.99774e-01,2.71212e-01,9.99998e-01
5.872820764e-01,2.77749e-01,9.99999e-01,9.99999e-01,9.98058e-01,2.78293e-01,9.99986e-01
5.902184868e-01,2.84740e-01,9.99999e-01,9.99999e-01,9.97675e-01,2.85414e-01,9.99962e-01
5.931695792e-01,2.92078e-01,9.99999e-01,9.99999e-01,9.98350e-01,2.92571e-01,9.99964e-01
5.961354271e-01,2.99214e-01,9.99999e-01,9.99999e-01,9.98197e-01,2.99760e-01,9.99979e-01
5.991161043e-01,3.06574e-01,9.99999e-01,9.99999e-01,9.98687e-01,3.06979e-01,9.99993e-01
6.021116848e-01,3.13990e-01,9.99999e-01,9.99999e-01,9.99256e-01,3.14224e-01,9.99998e-01
6.051222432e-01,3.21371e-01,9.99999e-01,9.99999e-01,9.99623e-01,3.21492e-01,9.99999e-01
6.081478544e-01,3.28726e-01,9.99999e-01,9.99999e-01,9.99837e-01,3.28780e-01,9.99999e-01
6.111885937e-01,3.36061e-01,9.99999e-01,9.99999e-01,9.99931e-01,3.36084e-01,9.99999e-01
6.142445367e-01,3.43390e-01,9.99999e-01,9.99999e-01,9.99968e-01,3.43401e-01,9.99999e-01
6.173157594e-01,3.50722e-01,9.99999e-01,9.99999e-01,9.99982e-01,3.50728e-01,9.99999e-01
6.204023382e-01,3.58057e-01,9.99999e-01,9.99999e-01,9.99985e-01,3.58062e-01,9.99999e-01
6.235043498e-01,3.65376e-01,9.99999e-01,9.99999e-01,9.99934e-01,3.65400e-01,9.99999e-01
6.266218716e-01,3.72613e-01,9.99999e-01,9.99999e-01,9.99664e-01,3.72739e-01,9.99997e-01
6.297549810e-01,3.80028e-01,9.99999e-01,9.99999e-01,9.99876e-01,3.80076e-01,9.99994e-01
6.329037559e-01,3.87313e-01,9.99999e-01,9.99999e-01,9.99757e-01,3.87409e-01,9.99995e-01
6.360682746e-01,3.94651e-01,9.99999e-01,9.99999e-01,9.99792e-01,3.94734e-01,9.99997e-01
6.392486160e-01,4.01940e-01,9.99999e-01,9.99999e-01,9.99731e-01,4.02048e-01,9.99998e-01
6.424448591e-01,4.09201e-01,9.99999e-01,9.99999e-01,9.99637e-01,4.09350e-01,9.99997e-01
6.456570834e-01,4.15930e-01,9.99999e-01,9.99999e-01,9.98316e-01,4.16636e-01,9.99989e-01
6.488853688e-01,4.23378e-01,9.99999e-01,9.99999e-01,9.98783e-01,4.23904e-01,9.99973e-01
6.521297956e-01,4.30608e-01,9.99999e-01,9.99999e-01,9.98760e-01,4.31151e-01,9.99978e-01
6.553904446e-01,4.37825e-01,9.99999e-01,9.99999e-01,9.98759e-01,4.38376e-01,9.99983e-01
6.586673968e-01,4.45102e-01,9.99999e-01,9.99999e-01,9.98942e-01,4.45575e-01,9.99994e-01
6.619607338e-01,4.52480e-01,9.99999e-01,9.99999e-01,9.99411e-01,4.52747e-01,9.99998e-01
6.652705375e-01,4.59727e-01,9.99999e-01,9.99999e-01,9.99646e-01,4.59889e-01,9.99998e-01
6.685968902e-01,4.66930e-01,9.99999e-01,9.99999e-01,9.99849e-01,4.67000e-01,9.99999e-01
6.719398746e-01,4.74041e-01,9.99999e-01,9.99999e-01,9.99923e-01,4.74077e-01,9.99999e-01
6.752995740e-01,4.81099e-01,9.99999e-01,9.99999e-01,9.99959e-01,4.81118e-01,9.99999e-01
6.786760719e-01,4.88092e-01,9.99999e-01,9.99999e-01,9.99939e-01,4.88121e-01,9.99999e-01
6.820694522e-01,4.95034e-01,9.99999e-01,9.99999e-01,9.99896e-01,4.95085e-01,9.99998e-01
6.854797995e-01,5.01941e-01,9.99999e-01,9.99999e-01,9.99867e-01,5.02008e-01,9.99998e-01
6.889071985e-01,5.08721e-01,9.99999e-01,9.99999e-01,9.99673e-01,5.08889e-01,9.99996e-01
6.923517345e-01,5.13001e-01,9.99999e-01,9.99999e-01,9.94743e-01,5.15724e-01,9.99974e-01
6.958134932e-01,5.21093e-01,9.99999e-01,9.99999e-01,9.97333e-01,5.22514e-01,9.99944e-01
6.992925606e-01,5.27856e-01,9.99999e-01,9.99999e-01,9.97402e-01,5.29257e-01,9.99949e-01
7.027890234e-01,5.34229e-01,9.99999e-01,9.99999e-01,9.96825e-01,5.35950e-01,9.99961e-01
7.063029686e-01,5.41135e-01,9.99999e-01,9.99999e-01,9.97328e-01,5.42594e-01,9.99980e-01
7.098344834e-01,5.47773e-01,9.99999e-01,9.99999e-01,9.97437e-01,5.49186e-01,9.99988e-01
7.133836558e-01,5.53785e-01,9.99999e-01,9.99999e-01,9.96529e-01,5.55726e-01,9.99977e-01
7.169505741e-01,5.46660e-01,9.99999e-01,9.99999e-01,9.72507e-01,5.62213e-01,9.99824e-01
7.205353270e-01,5.60955e-01,9.99999e-01,9.99999e-01,9.86781e-01,5.68644e-01,9.99690e-01
7.241380036e-01,5.65040e-01,9.99999e-01,9.99999e-01,9.82906e-01,5.75020e-01,9.99732e-01
7.277586936e-01,5.72251e-01,9.99999e-01,9.99999e-01,9.84580e-01,5.81340e-01,9.99781e-01
7.313974871e-01,5.78001e-01,9.99999e-01,9.99999e-01,9.83760e-01,5.87602e-01,9.99897e-01
7.350544745e-01,5.88492e-01,9.99999e-01,9.99999e-01,9.91086e-01,5.93806e-01,9.99964e-01
7.387297469e-01,5.96008e-01,9.99999e-01,9.99999e-01,9.93444e-01,5.99950e-01,9.99983e-01
7.424233956e-01,6.04094e-01,9.99999e-01,9.99999e-01,9.96798e-01,6.06036e-01,9.99996e-01
7.461355126e-01,6.10870e-01,9.99999e-01,9.99999e-01,9.98055e-01,6.12060e-01,9.99999e-01
7.498661902e-01,6.17467e-01,9.99999e-01,9.99999e-01,9.99097e-01,6.18024e-01,9.99999e-01
7.536155211e-01,6.23650e-01,9.99999e-01,9.99999e-01,9.99555e-01,6.23927e-01,9.99999e-01
7.573835987e-01,6.29624e-01,9.99999e-01,9.99999e-01,9.99771e-01,6.29768e-01,9.99999e-01
7.611705167e-01,6.35456e-01,9.99999e-01,9.99999e-01,9.99857e-01,6.35546e-01,9.99999e-01
7.649763693e-01,6.41205e-01,9.99999e-01,9.99999e-01,9.99910e-01,6.41262e-01,9.99999e-01
7.688012511e-01,6.46874e-01,9.99999e-01,9.99999e-01,9.99937e-01,6.46914e-01,9.99999e-01
7.726452574e-01,6.52470e-01,9.99999e-01,9.99999e-01,9.99948e-01,6.52504e-01,9.99999e-01
7.765084837e-01,6.57981e-01,9.99999e-01,9.99999e-01,9.99926e-01,6.58030e-01,9.99999e-01
7.803910261e-01,6.49349e-01,9.99999e-01,9.78988e-01,9.99681e-01,6.63492e-01,9.99999e-01
7.842929812e-01,6.13221e-01,9.99999e-01,9.17766e-01,9.98888e-01,6.68890e-01,9.99997e-01
7.882144461e-01,6.12985e-01,9.99999e-01,9.11199e-01,9.97734e-01,6.74224e-01,9.99983e-01
7.921555184e-01,6.43261e-01,9.99999e-01,9.47854e-01,9.98765e-01,6.79495e-01,9.99972e-01
7.961162960e-01,6.59417e-01,9.99999e-01,9.65222e-01,9.97786e-01,6.84701e-01,9.99973e-01
8.000968774e-01,6.74973e-01,9.99999e-01,9.80954e-01,9.97463e-01,6.89843e-01,9.99972e-01
8.040973618e-01,6.86310e-01,9.99999e-01,9.90142e-01,9.97457e-01,6.94920e-01,9.99978e-01
8.081178486e-01,6.92712e-01,9.99999e-01,9.95442e-01,9.94228e-01,6.99934e-01,9.99978e-01
8.121584379e-01,6.87068e-01,9.99999e-01,9.98608e-01,9.76151e-01,7.04884e-01,9.99919e-01
8.162192301e-01,6.89533e-01,9.99999e-01,9.99692e-01,9.72074e-01,7.09770e-01,9.99698e-01
8.203003262e-01,7.04055e-01,9.99999e-01,9.99995e-01,9.85603e-01,7.14593e-01,9.99647e-01
8.244018279e-01,7.05146e-01,9.99999e-01,9.99999e-01,9.80526e-01,7.19352e-01,9.99719e-01
8.285238370e-01,7.11682e-01,9.99999e-01,9.99999e-01,9.83137e-01,7.24047e-01,9.99779e-01
8.326664562e-01,7.16253e-01,9.99999e-01,9.99999e-01,9.83034e-01,7.28680e-01,9.99908e-01
8.368297885e-01,7.24365e-01,9.99999e-01,9.99999e-01,9.87901e-01,7.33250e-01,9.99978e-01
8.410139374e-01,7.32440e-01,9.99999e-01,9.99999e-01,9.92803e-01,7.37758e-01,9.99987e-01
8.452190071e-01,7.39580e-01,9.99999e-01,9.99999e-01,9.96473e-01,7.42203e-01,9.99992e-01
8.494451021e-01,7.45048e-01,9.99999e-01,9.99999e-01,9.97943e-01,7.46587e-01,9.99993e-01
8.536923276e-01,7.49997e-01,9.99999e-01,9.99999e-01,9.98788e-01,7.50909e-01,9.99995e-01
8.579607893e-01,7.54604e-01,9.99999e-01,9.99999e-01,9.99251e-01,7.55170e-01,9.99998e-01
8.622505932e-01,7.59010e-01,9.99999e-01,9.99999e-01,9.99525e-01,7.59370e-01,9.99999e-01
8.665618462e-01,7.22488e-01,9.99999e-01,9.46541e-01,9.99704e-01,7.63510e-01,9.99999e-01
8.708946554e-01,6.14463e-01,9.99999e-01,8.00774e-01,9.99661e-01,7.67591e-01,9.99999e-01
8.752491287e-01,6.46674e-01,9.99999e-01,8.38454e-01,9.99547e-01,7.71611e-01,9.99999e-01
8.796253743e-01,7.04287e-01,9.99999e-01,9.08648e-01,9.99371e-01,7.75573e-01,9.99998e-01
8.840235012e-01,7.41333e-01,9.99999e-01,9.51745e-01,9.99282e-01,7.79476e-01,9.99995e-01
8.884436187e-01,7.66240e-01,9.99999e-01,9.80819e-01,9.97319e-01,7.83322e-01,9.99987e-01
8.928858368e-01,7.59426e-01,9.99999e-01,9.92178e-01,9.72465e-01,7.87109e-01,9.99928e-01
8.973502660e-01,7.51417e-01,9.99999e-01,9.98108e-01,9.52278e-01,7.90840e-01,9.99633e-01
9.018370173e-01,7.74516e-01,9.99999e-01,9.99791e-01,9.75588e-01,7.94514e-01,9.99424e-01
9.063462024e-01,7.75953e-01,9.99999e-01,9.94412e-01,9.78069e-01,7.98132e-01,9.99494e-01
9.108779334e-01,7.64697e-01,9.99999e-01,9.87634e-01,9.66215e-01,8.01695e-01,9.99474e-01
9.154323231e-01,7.71941e-01,9.99999e-01,9.97126e-01,9.61836e-01,8.05203e-01,9.99565e-01
9.200094847e-01,7.50674e-01,9.99999e-01,9.56284e-01,9.70056e-01,8.08656e-01,9.99756e-01
9.246095321e-01,7.27448e-01,9.99999e-01,9.40752e-01,9.51844e-01,8.12055e-01,9.99719e-01
9.292325798e-01,5.61020e-01,9.99999e-01,9.52441e-01,7.20967e-01,8.15402e-01,9.98649e-01
9.338787427e-01,5.13379e-01,9.99999e-01,9.54707e-01,6.57984e-01,8.18695e-01,9.95129e-01
9.385481364e-01,6.68874e-01,9.99999e-01,9.66555e-01,8.45464e-01,8.21936e-01,9.94650e-01
9.432408771e-01,6.33928e-01,9.99999e-01,9.79480e-01,7.87455e-01,8.25126e-01,9.95382e-01
9.479570815e-01,5.85336e-01,9.99999e-01,9.89397e-01,7.16694e-01,8.28265e-01,9.96240e-01
9.526968669e-01,6.46687e-01,9.99999e-01,9.94887e-01,7.83444e-01,8.31353e-01,9.97705e-01
9.574603512e-01,6.66258e-01,9.99999e-01,9.97814e-01,8.01109e-01,8.34392e-01,9.98833e-01
9.622476530e-01,6.99030e-01,9.99999e-01,9.99318e-01,8.36004e-01,8.37381e-01,9.99193e-01
9.670588912e-01,7.57332e-01,9.99999e-01,9.99796e-01,9.01894e-01,8.40322e-01,9.99471e-01
9.718941857e-01,7.90317e-01,9.99999e-01,9.99985e-01,9.37658e-01,8.43214e-01,9.99594e-01
9.767536566e-01,8.01788e-01,9.99999e-01,9.99999e-01,9.47967e-01,8.46059e-01,9.99689e-01
9.816374249e-01,8.15953e-01,9.99999e-01,9.99999e-01,9.61338e-01,8.48858e-01,9.99892e-01
9.865456120e-01,8.30892e-01,9.99999e-01,9.99999e-01,9.75693e-01,8.51610e-01,9.99977e-01
9.914783401e-01,8.41416e-01,9.99999e-01,9.99999e-01,9.84906e-01,8.54316e-01,9.99993e-01
9.964357318e-01,8.49909e-01,9.99999e-01,9.99999e-01,9.91755e-01,8.56977e-01,9.99995e-01
1.001417910e+00,8.55340e-01,9.99999e-01,9.99999e-01,9.95055e-01,8.59594e-01,9.99993e-01
1.006425000e+00,8.59721e-01,9.99999e-01,9.99999e-01,9.97171e-01,8.62166e-01,9.99991e-01
1.011457125e+00,8.63176e-01,9.99999e-01,9.99999e-01,9.98249e-01,8.64696e-01,9.99992e-01
1.016514411e+00,8.66145e-01,9.99999e-01,9.99999e-01,9.98809e-01,8.67182e-01,9.99994e-01
1.021596983e+00,8.68767e-01,9.99999e-01,9.99965e-01,9.99050e-01,8.69627e-01,9.99994e-01
1.026704968e+00,8.69476e-01,9.99999e-01,9.97813e-01,9.99258e-01,8.72029e-01,9.99996e-01
1.031838492e+00,8.45060e-01,9.99999e-01,9.66961e-01,9.99462e-01,8.74391e-01,9.99998e-01
1.036997685e+00,2.20127e-01,9.99999e-01,2.51149e-01,9.99679e-01,8.76713e-01,9.99999e-01
1.042182673e+00,2.54704e-01,9.99999e-01,2.89870e-01,9.99616e-01,8.78994e-01,9.99999e-01
1.047393587e+00,2.41056e-01,9.99999e-01,2.73668e-01,9.99492e-01,8.81236e-01,9.99999e-01
1.052630555e+00,2.76359e-02,9.99999e-01,3.12992e-02,9.99302e-01,8.83440e-01,9.99999e-01
1.057893707e+00,5.58177e-02,9.99999e-01,6.30840e-02,9.98833e-01,8.85605e-01,9.99999e-01
1.063183176e+00,1.18565e-01,9.99999e-01,1.33763e-01,9.98083e-01,8.87733e-01,9.99998e-01
1.068499092e+00,2.28149e-01,9.99999e-01,2.57137e-01,9.96798e-01,8.89823e-01,9.99997e-01
1.073841587e+00,3.78969e-01,9.99999e-01,4.26359e-01,9.96243e-01,8.91877e-01,9.99994e-01
1.079210795e+00,5.19255e-01,9.99999e-01,5.83546e-01,9.95209e-01,8.93895e-01,9.99986e-01
1.084606849e+00,6.63125e-01,9.99999e-01,7.45489e-01,9.92736e-01,8.95878e-01,9.99968e-01
1.090029883e+00,7.62926e-01,9.99999e-01,8.58684e-01,9.89491e-01,8.97826e-01,9.99935e-01
1.095480033e+00,8.11275e-01,9.99999e-01,9.27883e-01,9.71697e-01,8.99739e-01,9.99884e-01
1.100957433e+00,8.08417e-01,9.99999e-01,9.64598e-01,9.29532e-01,9.01619e-01,9.99787e-01
1.106462220e+00,7.37993e-01,9.99999e-01,9.85243e-01,8.29114e-01,9.03465e-01,9.99639e-01
1.111994531e+00,6.07237e-01,9.99999e-01,9.94505e-01,6.74961e-01,9.05278e-01,9.99044e-01
1.117554504e+00,4.77145e-01,9.99999e-01,9.98664e-01,5.28475e-01,9.07060e-01,9.96557e-01
1.123142276e+00,5.61809e-01,9.99999e-01,9.99912e-01,6.23291e-01,9.08809e-01,9.91856e-01
1.128757988e+00,6.67188e-01,9.99999e-01,9.99999e-01,7.39712e-01,9.10527e-01,9.90585e-01
1.134401778e+00,4.50628e-01,9.99999e-01,9.99999e-01,4.97982e-01,9.12214e-01,9.91988e-01
1.140073787e+00,7.59659e-01,9.99999e-01,9.99999e-01,8.36612e-01,9.13872e-01,9.93593e-01
1.145774156e+00,6.26522e-01,9.99999e-01,9.99999e-01,6.88387e-01,9.15499e-01,9.94134e-01
1.151503026e+00,6.01498e-01,9.99999e-01,9.99999e-01,6.58024e-01,9.17097e-01,9.96727e-01
1.157260541e+00,6.50497e-01,9.99999e-01,9.99999e-01,7.08782e-01,9.18666e-01,9.99020e-01
1.163046844e+00,7.14212e-01,9.99999e-01,9.99999e-01,7.76358e-01,9.20206e-01,9.99721e-01
1.168862078e+00,7.73638e-01,9.99999e-01,9.99999e-01,8.39463e-01,9.21719e-01,9.99854e-01
1.174706389e+00,8.28533e-01,9.99999e-01,9.99999e-01,8.97631e-01,9.23204e-01,9.99800e-01
1.180579921e+00,8.65643e-01,9.99999e-01,9.99999e-01,9.36439e-01,9.24663e-01,9.99712e-01
1.186482820e+00,8.92103e-01,9.99999e-01,9.99994e-01,9.63584e-01,9.26094e-01,9.99705e-01
1.192415234e+00,9.00313e-01,9.99999e-01,9.92109e-01,9.78574e-01,9.27500e-01,9.99779e-01
1.198377311e+00,5.27922e-01,9.99999e-01,5.77245e-01,9.81870e-01,9.28880e-01,9.99790e-01
1.204369197e+00,2.54719e-07,9.99999e-01,2.76619e-07,9.82845e-01,9.30234e-01,9.99817e-01
1.210391043e+00,5.06791e-24,9.99999e-01,5.49099e-24,9.83599e-01,9.31564e-01,9.99884e-01
1.216442998e+00,4.93564e-21,9.99999e-01,5.33740e-21,9.86069e-01,9.32869e-01,9.99929e-01
1.222525213e+00,9.81261e-21,9.99999e-01,1.05645e-20,9.89131e-01,9.34151e-01,9.99955e-01
1.228637839e+00,5.44568e-16,9.99999e-01,5.85321e-16,9.92435e-01,9.35408e-01,9.99979e-01
