#,Wave/freq,Total,N2,CO2,H2O,Rayleigh,CIA
4.000000000e-01,1.02813e-16,9.99999e-01,9.99999e-01,9.99928e-01,1.02820e-16,9.99999e-01
4.020000000e-01,2.12908e-16,9.99999e-01,9.99999e-01,9.99955e-01,2.12917e-16,9.99999e-01
4.040100000e-01,4.34270e-16,9.99999e-01,9.99999e-01,9.99980e-01,4.34278e-16,9.99999e-01
4.060300500e-01,8.73389e-16,9.99999e-01,9.99999e-01,9.99995e-01,8.73393e-16,9.99999e-01
4.080602003e-01,1.73244e-15,9.99999e-01,9.99999e-01,9.99998e-01,1.73244e-15,9.99999e-01
4.101005013e-01,3.39025e-15,9.99999e-01,9.99999e-01,9.99999e-01,3.39025e-15,9.99999e-01
4.121510038e-01,6.54702e-15,9.99999e-01,9.99999e-01,9.99996e-01,6.54704e-15,9.99999e-01
4.142117588e-01,1.24797e-14,9.99999e-01,9.99999e-01,9.99980e-01,1.24800e-14,9.99999e-01
4.162828176e-01,2.34860e-14,9.99999e-01,9.99999e-01,9.99911e-01,2.34881e-14,9.99999e-01
4.183642317e-01,4.36550e-14,9.99999e-01,9.99999e-01,9.99947e-01,4.36573e-14,9.99999e-01
4.204560528e-01,8.01558e-14,9.99999e-01,9.99999e-01,9.99967e-01,8.01584e-14,9.99999e-01
4.225583331e-01,1.45420e-13,9.99999e-01,9.99999e-01,9.99987e-01,1.45421e-13,9.99999e-01
4.246711247e-01,2.60732e-13,9.99999e-01,9.99999e-01,9.99990e-01,2.60734e-13,9.99999e-01
4.267944804e-01,4.62119e-13,9.99999e-01,9.99999e-01,9.99985e-01,4.62125e-13,9.99999e-01
4.289284528e-01,8.09854e-13,9.99999e-01,9.99999e-01,9.99988e-01,8.09862e-13,9.99999e-01
4.310730950e-01,1.40362e-12,9.99999e-01,9.99999e-01,9.99994e-01,1.40362e-12,9.99999e-01
4.332284605e-01,2.40642e-12,9.99999e-01,9.99999e-01,9.99998e-01,2.40642e-12,9.99999e-01
4.353946028e-01,4.08195e-12,9.99999e-01,9.99999e-01,9.99998e-01,4.08195e-12,9.99999e-01
4.375715758e-01,6.85217e-12,9.99999e-01,9.99999e-01,9.99991e-01,6.85222e-12,9.99999e-01
4.397594337e-01,1.13846e-11,9.99999e-01,9.99999e-01,9.99923e-01,1.13855e-11,9.99999e-01
4.419582309e-01,1.87219e-11,9.99999e-01,9.99999e-01,9.99615e-01,1.87290e-11,9.99999e-01
4.441680220e-01,3.04984e-11,9.99999e-01,9.99999e-01,9.99691e-01,3.05077e-11,9.99999e-01
4.463888621e-01,4.92018e-11,9.99999e-01,9.99999e-01,9.99681e-01,4.92174e-11,9.99999e-01
4.486208064e-01,7.86392e-11,9.99999e-01,9.99999e-01,9.99800e-01,7.86548e-11,9.99999e-01
4.508639105e-01,1.24529e-10,9.99999e-01,9.99999e-01,9.99906e-01,1.24540e-10,9.99999e-01
4.531182300e-01,1.95405e-10,9.99999e-01,9.99999e-01,9.99962e-01,1.95412e-10,9.99999e-01
4.553838212e-01,3.03892e-10,9.99999e-01,9.99999e-01,9.99974e-01,3.03899e-10,9.99999e-01
4.576607403e-01,4.68505e-10,9.99999e-01,9.99999e-01,9.99988e-01,4.68510e-10,9.99999e-01
4.599490440e-01,7.16130e-10,9.99999e-01,9.99999e-01,9.99991e-01,7.16136e-10,9.99999e-01
4.622487892e-01,1.08550e-09,9.99999e-01,9.99999e-01,9.99998e-01,1.08551e-09,9.99999e-01
4.645600332e-01,1.63192e-09,9.99999e-01,9.99999e-01,9.99994e-01,1.63193e-09,9.99999e-01
4.668828333e-01,2.43350e-09,9.99999e-01,9.99999e-01,9.99906e-01,2.43373e-09,9.99999e-01
4.692172475e-01,3.60021e-09,9.99999e-01,9.99999e-01,9.99800e-01,3.60092e-09,9.99999e-01
4.715633337e-01,5.28615e-09,9.99999e-01,9.99999e-01,9.99869e-01,5.28684e-09,9.99999e-01
4.739211504e-01,7.70245e-09,9.99999e-01,9.99999e-01,9.99874e-01,7.70341e-09,9.99999e-01
4.762907561e-01,1.11407e-08,9.99999e-01,9.99999e-01,9.99934e-01,1.11414e-08,9.99999e-01
4.786722099e-01,1.59964e-08,9.99999e-01,9.99999e-01,9.99972e-01,1.59968e-08,9.99999e-01
4.810655710e-01,2.28045e-08,9.99999e-01,9.99999e-01,9.99991e-01,2.28047e-08,9.99999e-01
4.834708988e-01,3.22804e-08,9.99999e-01,9.99999e-01,9.99925e-01,3.22828e-08,9.99999e-01
4.858882533e-01,4.53812e-08,9.99999e-01,9.99999e-01,9.99857e-01,4.53877e-08,9.99999e-01
4.883176946e-01,6.33768e-08,9.99999e-01,9.99999e-01,9.99882e-01,6.33843e-08,9.99999e-01
4.907592831e-01,8.79253e-08,9.99999e-01,9.99999e-01,9.99892e-01,8.79347e-08,9.99999e-01
4.932130795e-01,1.21199e-07,9.99999e-01,9.99999e-01,9.99923e-01,1.21208e-07,9.99999e-01
4.956791449e-01,1.66009e-07,9.99999e-01,9.99999e-01,9.99959e-01,1.66015e-07,9.99999e-01
4.981575406e-01,2.25933e-07,9.99999e-01,9.99999e-01,9.99800e-01,2.25978e-07,9.99999e-01
5.006483283e-01,3.05574e-07,9.99999e-01,9.99999e-01,9.99486e-01,3.05732e-07,9.99996e-01
5.031515699e-01,4.10080e-07,9.99999e-01,9.99999e-01,9.97376e-01,4.11170e-07,9.99971e-01
5.056673278e-01,5.48962e-07,9.99999e-01,9.99999e-01,9.98608e-01,5.49743e-07,9.99967e-01
5.081956644e-01,7.29517e-07,9.99999e-01,9.99999e-01,9.98244e-01,7.30815e-07,9.99979e-01
5.107366428e-01,9.64929e-07,9.99999e-01,9.99999e-01,9.98813e-01,9.66078e-07,9.99995e-01
5.132903260e-01,1.26919e-06,9.99999e-01,9.99999e-01,9.99320e-01,1.27006e-06,9.99999e-01
5.158567776e-01,1.66021e-06,9.99999e-01,9.99999e-01,9.99712e-01,1.66069e-06,9.99999e-01
5.184360615e-01,2.15974e-06,9.99999e-01,9.99999e-01,9.99884e-01,2.15999e-06,9.99999e-01
5.210282418e-01,2.79474e-06,9.99999e-01,9.99999e-01,9.99956e-01,2.79486e-06,9.99999e-01
5.236333830e-01,3.59735e-06,9.99999e-01,9.99999e-01,9.99828e-01,3.59797e-06,9.99998e-01
5.262515499e-01,4.60831e-06,9.99999e-01,9.99999e-01,9.99892e-01,4.60881e-06,9.99997e-01
5.288828077e-01,5.87426e-06,9.99999e-01,9.99999e-01,9.99901e-01,5.87485e-06,9.99998e-01
5.315272217e-01,7.45219e-06,9.99999e-01,9.99999e-01,9.99912e-01,7.45284e-06,9.99999e-01
5.341848578e-01,9.40983e-06,9.99999e-01,9.99999e-01,9.99943e-01,9.41036e-06,9.99999e-01
5.368557821e-01,1.18251e-05,9.99999e-01,9.99999e-01,9.99801e-01,1.18274e-05,9.99999e-01
5.395400610e-01,1.47877e-05,9.99999e-01,9.99999e-01,9.99287e-01,1.47983e-05,9.99993e-01
5.422377613e-01,1.84162e-05,9.99999e-01,9.99999e-01,9.99064e-01,1.84337e-05,9.99982e-01
5.449489501e-01,2.28427e-05,9.99999e-01,9.99999e-01,9.99137e-01,2.28628e-05,9.99982e-01
5.476736949e-01,2.82136e-05,9.99999e-01,9.99999e-01,9.99228e-01,2.82356e-05,9.99990e-01
5.504120634e-01,3.47066e-05,9.99999e-01,9.99999e-01,9.99440e-01,3.47260e-05,9.99997e-01
5.531641237e-01,4.25222e-05,9.99999e-01,9.99999e-01,9.99718e-01,4.25342e-05,9.99999e-01
5.559299443e-01,5.18827e-05,9.99999e-01,9.99999e-01,9.99863e-01,5.18898e-05,9.99999e-01
5.587095940e-01,6.30496e-05,9.99999e-01,9.99999e-01,9.99914e-01,6.30550e-05,9.99999e-01
5.615031420e-01,7.63210e-05,9.99999e-01,9.99999e-01,9.99905e-01,7.63283e-05,9.99999e-01
5.643106577e-01,9.20378e-05,9.99999e-01,9.99999e-01,9.99894e-01,9.20476e-05,9.99998e-01
5.671322110e-01,1.10453e-04,9.99999e-01,9.99999e-01,9.98727e-01,1.10594e-04,9.99989e-01
5.699678720e-01,1.32208e-04,9.99999e-01,9.99999e-01,9.98602e-01,1.32397e-04,9.99964e-01
5.728177114e-01,1.57705e-04,9.99999e-01,9.99999e-01,9.98562e-01,1.57936e-04,9.99970e-01
5.756818000e-01,1.87495e-04,9.99999e-01,9.99999e-01,9.98677e-01,1.87746e-04,9.99981e-01
5.785602090e-01,2.22164e-04,9.99999e-01,9.99999e-01,9.98844e-01,2.22422e-04,9.99994e-01
5.814530100e-01,2.62317e-04,9.99999e-01,9.99999e-01,9.98842e-01,2.62621e-04,9.99997e-01
5.843602750e-01,3.08645e-04,9.99999e-01,9.99999e-01,9.98633e-01,3.09070e-04,9.99991e-01
5.872820764e-01,3.58282e-04,9.99999e-01,9.99999e-01,9.88266e-01,3.62566e-04,9.99915e-01
5.902184868e-01,4.17796e-04,9.99999e-01,9.99999e-01,9.85633e-01,4.23982e-04,9.99771e-01
5.931695792e-01,4.89159e-04,9.99999e-01,9.99999e-01,9.89875e-01,4.94272e-04,9.99777e-01
5.961354271e-01,5.68002e-04,9.99999e-01,9.99999e-01,9.88871e-01,5.74471e-04,9.99865e-01
5.991161043e-01,6.60259e-04,9.99999e-01,9.99999e-01,9.91860e-01,6.65703e-04,9.99960e-01
6.021116848e-01,7.65614e-04,9.99999e-01,9.99999e-01,9.95367e-01,7.69181e-04,9.99994e-01
6.051222432e-01,8.84131e-04,9.99999e-01,9.99999e-01,9.97652e-01,8.86211e-04,9.99999e-01
6.081478544e-01,1.01716e-03,9.99999e-01,9.99999e-01,9.98987e-01,1.01820e-03,9.99999e-01
6.111885937e-01,1.16613e-03,9.99999e-01,9.99999e-01,9.99570e-01,1.16663e-03,9.99999e-01
6.142445367e-01,1.33286e-03,9.99999e-01,9.99999e-01,9.99808e-01,1.33312e-03,9.99999e-01
6.173157594e-01,1.51920e-03,9.99999e-01,9.99999e-01,9.99894e-01,1.51936e-03,9.99999e-01
6.204023382e-01,1.72699e-03,9.99999e-01,9.99999e-01,9.99910e-01,1.72715e-03,9.99999e-01
6.235043498e-01,1.95763e-03,9.99999e-01,9.99999e-01,9.99615e-01,1.95839e-03,9.99998e-01
6.266218716e-01,2.21047e-03,9.99999e-01,9.99999e-01,9.97928e-01,2.21509e-03,9.99984e-01
6.297549810e-01,2.49737e-03,9.99999e-01,9.99999e-01,9.99239e-01,2.49934e-03,9.99970e-01
6.329037559e-01,2.80905e-03,9.99999e-01,9.99999e-01,9.98492e-01,2.81336e-03,9.99976e-01
6.360682746e-01,3.15536e-03,9.99999e-01,9.99999e-01,9.98723e-01,3.15943e-03,9.99985e-01
6.392486160e-01,3.53407e-03,9.99999e-01,9.99999e-01,9.98341e-01,3.53996e-03,9.99993e-01
6.424448591e-01,3.94951e-03,9.99999e-01,9.99999e-01,9.98013e-01,3.95741e-03,9.99989e-01
6.456570834e-01,4.36958e-03,9.99999e-01,9.99999e-01,9.89910e-01,4.41437e-03,9.99942e-01
6.488853688e-01,4.86917e-03,9.99999e-01,9.99999e-01,9.91142e-01,4.91347e-03,9.99839e-01
6.521297956e-01,5.41479e-03,9.99999e-01,9.99999e-01,9.92317e-01,5.45744e-03,9.99865e-01
6.553904446e-01,6.00257e-03,9.99999e-01,9.99999e-01,9.92410e-01,6.04907e-03,9.99899e-01
6.586673968e-01,6.64708e-03,9.99999e-01,9.99999e-01,9.93433e-01,6.69123e-03,9.99966e-01
6.619607338e-01,7.35871e-03,9.99999e-01,9.99999e-01,9.96200e-01,7.38682e-03,9.99992e-01
6.652705375e-01,8.12081e-03,9.99999e-01,9.99999e-01,9.97791e-01,8.13881e-03,9.99995e-01
6.685968902e-01,8.94102e-03,9.99999e-01,9.99999e-01,9.98974e-01,8.95020e-03,9.99998e-01
6.719398746e-01,9.81934e-03,9.99999e-01,9.99999e-01,9.99523e-01,9.82401e-03,9.99999e-01
6.752995740e-01,1.07606e-02,9.99999e-01,9.99999e-01,9.99743e-01,1.07633e-02,9.99999e-01
6.786760719e-01,1.17669e-02,9.99999e-01,9.99999e-01,9.99632e-01,1.17712e-02,9.99998e-01
6.820694522e-01,1.28425e-02,9.99999e-01,9.99999e-01,9.99368e-01,1.28507e-02,9.99996e-01
6.854797995e-01,1.39934e-02,9.99999e-01,9.99999e-01,9.99186e-01,1.40049e-02,9.99992e-01
6.889071985e-01,1.52071e-02,9.99999e-01,9.99999e-01,9.98065e-01,1.52368e-02,9.99981e-01
6.923517345e-01,1.60256e-02,9.99999e-01,9.99999e-01,9.68488e-01,1.65496e-02,9.99845e-01
6.958134932e-01,1.76374e-02,9.99999e-01,9.99999e-01,9.83139e-01,1.79461e-02,9.99650e-01
6.992925606e-01,1.91183e-02,9.99999e-01,9.99999e-01,9.84289e-01,1.94294e-02,9.99692e-01
7.027890234e-01,2.05871e-02,9.99999e-01,9.99999e-01,9.80463e-01,2.10023e-02,9.99764e-01
7.063029686e-01,2.22923e-02,9.99999e-01,9.99999e-01,9.83558e-01,2.26676e-02,9.99882e-01
7.098344834e-01,2.40409e-02,9.99999e-01,9.99999e-01,9.84215e-01,2.44281e-02,9.99930e-01
7.133836558e-01,2.57403e-02,9.99999e-01,9.99999e-01,9.79355e-01,2.62866e-02,9.99861e-01
7.169505741e-01,2.38764e-02,9.99999e-01,9.99999e-01,8.46235e-01,2.82454e-02,9.98916e-01
7.205353270e-01,2.78193e-02,9.99999e-01,9.99999e-01,9.19669e-01,3.03072e-02,9.98089e-01
7.241380036e-01,2.91948e-02,9.99999e-01,9.99999e-01,9.00511e-01,3.24742e-02,9.98337e-01
7.277586936e-01,3.15674e-02,9.99999e-01,9.99999e-01,9.09702e-01,3.47488e-02,9.98618e-01
7.313974871e-01,3.35209e-02,9.99999e-01,9.99999e-01,9.03295e-01,3.71330e-02,9.99367e-01
7.350544745e-01,3.74797e-02,9.99999e-01,9.99999e-01,9.45977e-01,3.96287e-02,9.99779e-01
7.387297469e-01,4.05385e-02,9.99999e-01,9.99999e-01,9.59859e-01,4.22380e-02,9.99898e-01
7.424233956e-01,4.40663e-02,9.99999e-01,9.99999e-01,9.80089e-01,4.49623e-02,9.99980e-01
7.461355126e-01,4.72252e-02,9.99999e-01,9.99999e-01,9.87908e-01,4.78034e-02,9.99996e-01
7.498661902e-01,5.04749e-02,9.99999e-01,9.99999e-01,9.94336e-01,5.07624e-02,9.99998e-01
7.536155211e-01,5.36915e-02,9.99999e-01,9.99999e-01,9.97227e-01,5.38408e-02,9.99998e-01
7.573835987e-01,5.69579e-02,9.99999e-01,9.99999e-01,9.98570e-01,5.70394e-02,9.99999e-01
7.611705167e-01,6.03056e-02,9.99999e-01,9.99999e-01,9.99111e-01,6.03592e-02,9.99999e-01
7.649763693e-01,6.37655e-02,9.99999e-01,9.99999e-01,9.99444e-01,6.38009e-02,9.99999e-01
7.688012511e-01,6.73390e-02,9.99999e-01,9.99999e-01,9.99613e-01,6.73650e-02,9.99999e-01
7.726452574e-01,7.10293e-02,9.99999e-01,9.99999e-01,9.99682e-01,7.10519e-02,9.99999e-01
7.765084837e-01,7.48282e-02,9.99999e-01,9.99999e-01,9.99552e-01,7.48617e-02,9.99998e-01
7.803910261e-01,7.15524e-02,9.99999e-01,9.09698e-01,9.98070e-01,7.87945e-02,9.99997e-01
7.842929812e-01,5.00930e-02,9.99999e-01,6.08175e-01,9.93281e-01,8.28501e-02,9.99987e-01
7.882144461e-01,5.10827e-02,9.99999e-01,5.94402e-01,9.86068e-01,8.70281e-02,9.99913e-01
7.921555184e-01,6.56812e-02,9.99999e-01,7.24482e-01,9.92296e-01,9.13280e-02,9.99833e-01
7.961162960e-01,7.58072e-02,9.99999e-01,8.02272e-01,9.86591e-01,9.57490e-02,9.99840e-01
8.000968774e-01,8.76073e-02,9.99999e-01,8.87378e-01,9.84416e-01,1.00290e-01,9.99830e-01
8.040973618e-01,9.70724e-02,9.99999e-01,9.39575e-01,9.84440e-01,1.04951e-01,9.99865e-01
8.081178486e-01,1.02980e-01,9.99999e-01,9.71896e-01,9.65584e-01,1.09730e-01,9.99873e-01
8.121584379e-01,9.82140e-02,9.99999e-01,9.91153e-01,8.64641e-01,1.14625e-01,9.99505e-01
8.162192301e-01,1.00131e-01,9.99999e-01,9.98038e-01,8.40069e-01,1.19636e-01,9.98141e-01
8.203003262e-01,1.14488e-01,9.99999e-01,9.99966e-01,9.19683e-01,1.24760e-01,9.97823e-01
8.244018279e-01,1.15206e-01,9.99999e-01,9.99999e-01,8.87757e-01,1.29997e-01,9.98267e-01
8.285238370e-01,1.21841e-01,9.99999e-01,9.99999e-01,9.01467e-01,1.35342e-01,9.98639e-01
8.326664562e-01,1.26669e-01,9.99999e-01,9.99999e-01,9.00167e-01,1.40796e-01,9.99436e-01
8.368297885e-01,1.35675e-01,9.99999e-01,9.99999e-01,9.27148e-01,1.46355e-01,9.99870e-01
8.410139374e-01,1.45315e-01,9.99999e-01,9.99999e-01,9.55981e-01,1.52017e-01,9.99924e-01
8.452190071e-01,1.54322e-01,9.99999e-01,9.99999e-01,9.78125e-01,1.57780e-01,9.99954e-01
8.494451021e-01,1.61557e-01,9.99999e-01,9.99999e-01,9.87298e-01,1.63641e-01,9.99963e-01
8.536923276e-01,1.68312e-01,9.99999e-01,9.99999e-01,9.92441e-01,1.69598e-01,9.99975e-01
8.579607893e-01,1.74830e-01,9.99999e-01,9.99999e-01,9.95355e-01,1.75647e-01,9.99993e-01
8.622505932e-01,1.81248e-01,9.99999e-01,9.99999e-01,9.97039e-01,1.81786e-01,9.99998e-01
8.665618462e-01,1.62846e-01,9.99999e-01,8.67624e-01,9.98175e-01,1.88013e-01,9.99998e-01
8.708946554e-01,5.78825e-02,9.99999e-01,2.98433e-01,9.97916e-01,1.94323e-01,9.99998e-01
8.752491287e-01,7.23262e-02,9.99999e-01,3.61277e-01,9.97209e-01,2.00714e-01,9.99996e-01
8.796253743e-01,1.16065e-01,9.99999e-01,5.62188e-01,9.96152e-01,2.07182e-01,9.99990e-01
8.840235012e-01,1.56891e-01,9.99999e-01,7.37180e-01,9.95601e-01,2.13726e-01,9.99972e-01
8.884436187e-01,1.92124e-01,9.99999e-01,8.85366e-01,9.84421e-01,2.20340e-01,9.99923e-01
8.928858368e-01,1.83186e-01,9.99999e-01,9.51887e-01,8.46845e-01,2.27023e-01,9.99558e-01
8.973502660e-01,1.71564e-01,9.99999e-01,9.88003e-01,7.43900e-01,2.33770e-01,9.97739e-01
9.018370173e-01,2.05633e-01,9.99999e-01,9.98667e-01,8.58822e-01,2.40578e-01,9.96447e-01
9.063462024e-01,2.09989e-01,9.99999e-01,9.68290e-01,8.76230e-01,2.47445e-01,9.96878e-01
9.108779334e-01,1.91336e-01,9.99999e-01,9.25448e-01,8.12976e-01,2.54366e-01,9.96756e-01
9.154323231e-01,2.02232e-01,9.99999e-01,9.81771e-01,7.89310e-01,2.61338e-01,9.97318e-01
9.200094847e-01,1.83024e-01,9.99999e-01,8.00981e-01,8.30962e-01,2.68357e-01,9.98498e-01
9.246095321e-01,1.45898e-01,9.99999e-01,6.86643e-01,7.60131e-01,2.75422e-01,9.98269e-01
9.292325798e-01,3.99567e-02,9.99999e-01,7.51567e-01,1.77793e-01,2.82527e-01,9.93270e-01
9.338787427e-01,2.33563e-02,9.99999e-01,7.53849e-01,1.03504e-01,2.89669e-01,9.72473e-01
9.385481364e-01,9.53203e-02,9.99999e-01,8.10873e-01,3.97080e-01,2.96846e-01,9.67347e-01
9.432408771e-01,7.79799e-02,9.99999e-01,8.78334e-01,2.95397e-01,3.04053e-01,9.71765e-01
9.479570815e-01,5.25745e-02,9.99999e-01,9.35758e-01,1.83180e-01,3.11288e-01,9.76960e-01
9.526968669e-01,8.16263e-02,9.99999e-01,9.68463e-01,2.66673e-01,3.18547e-01,9.85883e-01
9.574603512e-01,9.05353e-02,9.99999e-01,9.86366e-01,2.83026e-01,3.25827e-01,9.92803e-01
9.622476530e-01,1.15615e-01,9.99999e-01,9.95721e-01,3.50033e-01,3.33125e-01,9.95018e-01
9.670588912e-01,1.84048e-01,9.99999e-01,9.98712e-01,5.43061e-01,3.40437e-01,9.96590e-01
9.718941857e-01,2.34384e-01,9.99999e-01,9.99906e-01,6.75727e-01,3.47761e-01,9.97488e-01
9.767536566e-01,2.55853e-01,9.99999e-01,9.99999e-01,7.21910e-01,3.55092e-01,9.98080e-01
9.816374249e-01,2.83924e-01,9.99999e-01,9.99999e-01,7.83911e-01,3.62429e-01,9.99334e-01
9.865456120e-01,3.17366e-01,9.99999e-01,9.99999e-01,8.58402e-01,3.69768e-01,9.99861e-01
9.914783401e-01,3.43076e-01,9.99999e-01,9.99999e-01,9.09792e-01,3.77107e-01,9.99961e-01
9.964357318e-01,3.65131e-01,9.99999e-01,9.99999e-01,9.49791e-01,3.84441e-01,9.99977e-01
1.001417910e+00,3.79836e-01,9.99999e-01,9.99999e-01,9.69573e-01,3.91769e-01,9.99965e-01
1.006425000e+00,3.92116e-01,9.99999e-01,9.99999e-01,9.82575e-01,3.99088e-01,9.99950e-01
1.011457125e+00,4.01955e-01,9.99999e-01,9.99999e-01,9.89118e-01,4.06396e-01,9.99954e-01
1.016514411e+00,4.10620e-01,9.99999e-01,9.99999e-01,9.92613e-01,4.13688e-01,9.99967e-01
1.021596983e+00,4.18408e-01,9.99999e-01,9.99843e-01,9.94114e-01,4.20964e-01,9.99967e-01
1.026704968e+00,4.20868e-01,9.99999e-01,9.87363e-01,9.95410e-01,4.28220e-01,9.99978e-01
1.031838492e+00,3.92095e-01,9.99999e-01,9.03292e-01,9.96654e-01,4.35454e-01,9.99993e-01
1.036997685e+00,2.03756e-02,9.99999e-01,4.60982e-02,9.98016e-01,4.42664e-01,9.99998e-01
1.042182673e+00,9.48207e-04,9.99999e-01,2.11159e-03,9.97644e-01,4.49847e-01,9.99999e-01
1.047393587e+00,2.68752e-03,9.99999e-01,5.89601e-03,9.96871e-01,4.57002e-01,9.99998e-01
1.052630555e+00,1.38243e-07,9.99999e-01,2.98660e-07,9.95714e-01,4.64125e-01,9.99998e-01
1.057893707e+00,5.09163e-07,9.99999e-01,1.08442e-06,9.92868e-01,4.71216e-01,9.99997e-01
1.063183176e+00,1.91573e-05,9.99999e-01,4.03223e-05,9.88277e-01,4.78272e-01,9.99993e-01
1.068499092e+00,2.26348e-04,9.99999e-01,4.72347e-04,9.80422e-01,4.85291e-01,9.99986e-01
1.073841587e+00,3.39295e-03,9.99999e-01,7.00507e-03,9.77196e-01,4.92271e-01,9.99970e-01
1.079210795e+00,2.18127e-02,9.99999e-01,4.47061e-02,9.70743e-01,4.99211e-01,9.99920e-01
1.084606849e+00,8.24062e-02,9.99999e-01,1.69303e-01,9.56167e-01,5.06109e-01,9.99809e-01
1.090029883e+00,1.90642e-01,9.99999e-01,3.94115e-01,9.38148e-01,5.12962e-01,9.99605e-01
1.095480033e+00,2.76748e-01,9.99999e-01,6.30240e-01,8.40144e-01,5.19771e-01,9.99286e-01
1.100957433e+00,2.73540e-01,9.99999e-01,7.99429e-01,6.45729e-01,5.26533e-01,9.98687e-01
1.106462220e+00,1.68319e-01,9.99999e-01,9.11305e-01,3.43839e-01,5.33247e-01,9.97775e-01
1.111994531e+00,5.79937e-02,9.99999e-01,9.66111e-01,1.11118e-01,5.39911e-01,9.94106e-01
1.117554504e+00,1.71885e-02,9.99999e-01,9.91575e-01,3.22843e-02,5.46524e-01,9.78884e-01
1.123142276e+00,4.96728e-02,9.99999e-01,9.99440e-01,9.44788e-02,5.53085e-01,9.50650e-01
1.128757988e+00,1.02329e-01,9.99999e-01,9.99999e-01,1.93888e-01,5.59593e-01,9.43134e-01
1.134401778e+00,4.51469e-02,9.99999e-01,9.99999e-01,8.39279e-02,5.66047e-01,9.50316e-01
1.140073787e+00,1.97364e-01,9.99999e-01,9.99999e-01,3.59143e-01,5.72446e-01,9.59988e-01
1.145774156e+00,7.57455e-02,9.99999e-01,9.99999e-01,1.35721e-01,5.78788e-01,9.64246e-01
1.151503026e+00,6.32981e-02,9.99999e-01,9.99999e-01,1.10405e-01,5.85074e-01,9.79921e-01
1.157260541e+00,8.11831e-02,9.99999e-01,9.99999e-01,1.38131e-01,5.91301e-01,9.93953e-01
1.163046844e+00,1.35566e-01,9.99999e-01,9.99999e-01,2.27291e-01,5.97470e-01,9.98282e-01
1.168862078e+00,2.08456e-01,9.99999e-01,9.99999e-01,3.45673e-01,6.03579e-01,9.99114e-01
1.174706389e+00,3.15514e-01,9.99999e-01,9.99999e-01,5.18159e-01,6.09629e-01,9.98826e-01
1.180579921e+00,4.10595e-01,9.99999e-01,9.99999e-01,6.68148e-01,6.15617e-01,9.98226e-01
1.186482820e+00,4.93257e-01,9.99999e-01,9.99983e-01,7.95054e-01,6.21545e-01,9.98179e-01
1.192415234e+00,5.25526e-01,9.99999e-01,9.57555e-01,8.74490e-01,6.27411e-01,9.98636e-01
1.198377311e+00,2.95164e-01,9.99999e-01,5.12675e-01,8.93380e-01,6.33214e-01,9.98711e-01
1.204369197e+00,1.22248e-33,9.99999e-01,2.03754e-33,8.99027e-01,6.38956e-01,9.98834e-01
1.210391043e+00,5.11127e-137,9.99999e-01,8.39821e-137,9.03002e-01,6.44634e-01,9.99290e-01
1.216442998e+00,1.57523e-118,9.99999e-01,2.55754e-118,9.16676e-01,6.50249e-01,9.99565e-01
1.222525213e+00,9.72882e-117,9.99999e-01,1.53655e-116,9.34459e-01,6.55800e-01,9.99729e-01
1.228637839e+00,5.35588e-90,9.99999e-01,8.36026e-90,9.54039e-01,6.61288e-01,9.99874e-01
