#,Wave/freq,Total,N2,CO2,H2O,Rayleigh,CIA
4.000000000e-01,2.16403e-12,9.99999e-01,9.99999e-01,9.99947e-01,2.16414e-12,9.99999e-01
4.020000000e-01,3.68056e-12,9.99999e-01,9.99999e-01,9.99967e-01,3.68068e-12,9.99999e-01
4.040100000e-01,6.19118e-12,9.99999e-01,9.99999e-01,9.99985e-01,6.19127e-12,9.99999e-01
4.060300500e-01,1.03079e-11,9.99999e-01,9.99999e-01,9.99996e-01,1.03079e-11,9.99999e-01
4.080602003e-01,1.69897e-11,9.99999e-01,9.99999e-01,9.99998e-01,1.69897e-11,9.99999e-01
4.101005013e-01,2.77279e-11,9.99999e-01,9.99999e-01,9.99999e-01,2.77279e-11,9.99999e-01
4.121510038e-01,4.48172e-11,9.99999e-01,9.99999e-01,9.99997e-01,4.48173e-11,9.99999e-01
4.142117588e-01,7.17545e-11,9.99999e-01,9.99999e-01,9.99985e-01,7.17555e-11,9.99999e-01
4.162828176e-01,1.13815e-10,9.99999e-01,9.99999e-01,9.99935e-01,1.13822e-10,9.99999e-01
4.183642317e-01,1.78906e-10,9.99999e-01,9.99999e-01,9.99961e-01,1.78913e-10,9.99999e-01
4.204560528e-01,2.78719e-10,9.99999e-01,9.99999e-01,9.99976e-01,2.78725e-10,9.99999e-01
4.225583331e-01,4.30431e-10,9.99999e-01,9.99999e-01,9.99990e-01,4.30435e-10,9.99999e-01
4.246711247e-01,6.59034e-10,9.99999e-01,9.99999e-01,9.99992e-01,6.59039e-10,9.99999e-01
4.267944804e-01,1.00059e-09,9.99999e-01,9.99999e-01,9.99989e-01,1.00060e-09,9.99999e-01
4.289284528e-01,1.50669e-09,9.99999e-01,9.99999e-01,9.99991e-01,1.50670e-09,9.99999e-01
4.310730950e-01,2.25051e-09,9.99999e-01,9.99999e-01,9.99996e-01,2.25052e-09,9.99999e-01
4.332284605e-01,3.33501e-09,9.99999e-01,9.99999e-01,9.99998e-01,3.33501e-09,9.99999e-01
4.353946028e-01,4.90384e-09,9.99999e-01,9.99999e-01,9.99999e-01,4.90385e-09,9.99999e-01
4.375715758e-01,7.15594e-09,9.99999e-01,9.99999e-01,9.99993e-01,7.15598e-09,9.99999e-01
4.397594337e-01,1.03642e-08,9.99999e-01,9.99999e-01,9.99943e-01,1.03648e-08,9.99999e-01
4.419582309e-01,1.48987e-08,9.99999e-01,9.99999e-01,9.99713e-01,1.49029e-08,9.99999e-01
4.441680220e-01,2.12703e-08,9.99999e-01,9.99999e-01,9.99777e-01,2.12750e-08,9.99999e-01
4.463888621e-01,3.01517e-08,9.99999e-01,9.99999e-01,9.99767e-01,3.01587e-08,9.99999e-01
4.486208064e-01,4.24523e-08,9.99999e-01,9.99999e-01,9.99855e-01,4.24584e-08,9.99999e-01
4.508639105e-01,5.93677e-08,9.99999e-01,9.99999e-01,9.99932e-01,5.93717e-08,9.99999e-01
4.531182300e-01,8.24722e-08,9.99999e-01,9.99999e-01,9.99972e-01,8.24744e-08,9.99999e-01
4.553838212e-01,1.13823e-07,9.99999e-01,9.99999e-01,9.99981e-01,1.13825e-07,9.99999e-01
4.576607403e-01,1.56096e-07,9.99999e-01,9.99999e-01,9.99991e-01,1.56097e-07,9.99999e-01
4.599490440e-01,2.12736e-07,9.99999e-01,9.99999e-01,9.99993e-01,2.12737e-07,9.99999e-01
4.622487892e-01,2.88160e-07,9.99999e-01,9.99999e-01,9.99998e-01,2.88161e-07,9.99999e-01
4.645600332e-01,3.87991e-07,9.99999e-01,9.99999e-01,9.99995e-01,3.87992e-07,9.99999e-01
4.668828333e-01,5.19314e-07,9.99999e-01,9.99999e-01,9.99931e-01,5.19349e-07,9.99999e-01
4.692172475e-01,6.91086e-07,9.99999e-01,9.99999e-01,9.99854e-01,6.91186e-07,9.99999e-01
4.715633337e-01,9.14612e-07,9.99999e-01,9.99999e-01,9.99904e-01,9.14699e-07,9.99999e-01
4.739211504e-01,1.20370e-06,9.99999e-01,9.99999e-01,9.99908e-01,1.20381e-06,9.99999e-01
4.762907561e-01,1.57565e-06,9.99999e-01,9.99999e-01,9.99952e-01,1.57573e-06,9.99999e-01
4.786722099e-01,2.05157e-06,9.99999e-01,9.99999e-01,9.99980e-01,2.05161e-06,9.99999e-01
4.810655710e-01,2.65732e-06,9.99999e-01,9.99999e-01,9.99993e-01,2.65733e-06,9.99999e-01
4.834708988e-01,3.42415e-06,9.99999e-01,9.99999e-01,9.99943e-01,3.42434e-06,9.99999e-01
4.858882533e-01,4.39024e-06,9.99999e-01,9.99999e-01,9.99896e-01,4.39069e-06,9.99999e-01
4.883176946e-01,5.60168e-06,9.99999e-01,9.99999e-01,9.99913e-01,5.60216e-06,9.99999e-01
4.907592831e-01,7.11303e-06,9.99999e-01,9.99999e-01,9.99921e-01,7.11359e-06,9.99999e-01
4.932130795e-01,8.98977e-06,9.99999e-01,9.99999e-01,9.99944e-01,8.99027e-06,9.99999e-01
4.956791449e-01,1.13093e-05,9.99999e-01,9.99999e-01,9.99970e-01,1.13096e-05,9.99999e-01
4.981575406e-01,1.41609e-05,9.99999e-01,9.99999e-01,9.99853e-01,1.41630e-05,9.99999e-01
5.006483283e-01,1.76508e-05,9.99999e-01,9.99999e-01,9.99620e-01,1.76576e-05,9.99996e-01
5.031515699e-01,2.18762e-05,9.99999e-01,9.99999e-01,9.98079e-01,2.19188e-05,9.99979e-01
5.056673278e-01,2.70643e-05,9.99999e-01,9.99999e-01,9.98986e-01,2.70924e-05,9.99976e-01
5.081956644e-01,3.33041e-05,9.99999e-01,9.99999e-01,9.98721e-01,3.33472e-05,9.99984e-01
5.107366428e-01,4.08427e-05,9.99999e-01,9.99999e-01,9.99136e-01,4.08780e-05,9.99996e-01
5.132903260e-01,4.98838e-05,9.99999e-01,9.99999e-01,9.99506e-01,4.99084e-05,9.99999e-01
5.158567776e-01,6.06814e-05,9.99999e-01,9.99999e-01,9.99791e-01,6.06940e-05,9.99999e-01
5.184360615e-01,7.35196e-05,9.99999e-01,9.99999e-01,9.99916e-01,7.35257e-05,9.99999e-01
5.210282418e-01,8.87306e-05,9.99999e-01,9.99999e-01,9.99968e-01,8.87334e-05,9.99999e-01
5.236333830e-01,1.06676e-04,9.99999e-01,9.99999e-01,9.99874e-01,1.06690e-04,9.99998e-01
5.262515499e-01,1.27803e-04,9.99999e-01,9.99999e-01,9.99921e-01,1.27814e-04,9.99998e-01
5.288828077e-01,1.52563e-04,9.99999e-01,9.99999e-01,9.99927e-01,1.52574e-04,9.99998e-01
5.315272217e-01,1.81485e-04,9.99999e-01,9.99999e-01,9.99936e-01,1.81496e-04,9.99999e-01
5.341848578e-01,2.15152e-04,9.99999e-01,9.99999e-01,9.99958e-01,2.15161e-04,9.99999e-01
5.368557821e-01,2.54178e-04,9.99999e-01,9.99999e-01,9.99853e-01,2.54215e-04,9.99999e-01
5.395400610e-01,2.99210e-04,9.99999e-01,9.99999e-01,9.99472e-01,2.99369e-04,9.99995e-01
5.422377613e-01,3.51164e-04,9.99999e-01,9.99999e-01,9.99320e-01,3.51407e-04,9.99987e-01
5.449489501e-01,4.10922e-04,9.99999e-01,9.99999e-01,9.99366e-01,4.11187e-04,9.99986e-01
5.476736949e-01,4.79374e-04,9.99999e-01,9.99999e-01,9.99439e-01,4.79646e-04,9.99993e-01
5.504120634e-01,5.57575e-04,9.99999e-01,9.99999e-01,9.99593e-01,5.57803e-04,9.99997e-01
5.531641237e-01,6.46632e-04,9.99999e-01,9.99999e-01,9.99795e-01,6.46764e-04,9.99999e-01
5.559299443e-01,7.47650e-04,9.99999e-01,9.99999e-01,9.99900e-01,7.47724e-04,9.99999e-01
5.587095940e-01,8.61918e-04,9.99999e-01,9.99999e-01,9.99937e-01,8.61971e-04,9.99999e-01
5.615031420e-01,9.90819e-04,9.99999e-01,9.99999e-01,9.99930e-01,9.90887e-04,9.99999e-01
5.643106577e-01,1.13586e-03,9.99999e-01,9.99999e-01,9.99921e-01,1.13595e-03,9.99998e-01
5.671322110e-01,1.29750e-03,9.99999e-01,9.99999e-01,9.99046e-01,1.29875e-03,9.99991e-01
5.699678720e-01,1.47941e-03,9.99999e-01,9.99999e-01,9.98990e-01,1.48095e-03,9.99973e-01
5.728177114e-01,1.68253e-03,9.99999e-01,9.99999e-01,9.98947e-01,1.68433e-03,9.99978e-01
5.756818000e-01,1.90892e-03,9.99999e-01,9.99999e-01,9.99034e-01,1.91079e-03,9.99986e-01
5.785602090e-01,2.16047e-03,9.99999e-01,9.99999e-01,9.99158e-01,2.16230e-03,9.99995e-01
5.814530100e-01,2.43888e-03,9.99999e-01,9.99999e-01,9.99154e-01,2.44094e-03,9.99997e-01
5.843602750e-01,2.74612e-03,9.99999e-01,9.99999e-01,9.98990e-01,2.74891e-03,9.99993e-01
5.872820764e-01,3.06153e-03,9.99999e-01,9.99999e-01,9.91339e-01,3.08847e-03,9.99938e-01
5.902184868e-01,3.42515e-03,9.99999e-01,9.99999e-01,9.89521e-01,3.46200e-03,9.99833e-01
5.931695792e-01,3.84265e-03,9.99999e-01,9.99999e-01,9.92588e-01,3.87196e-03,9.99839e-01
5.961354271e-01,4.28543e-03,9.99999e-01,9.99999e-01,9.91877e-01,4.32091e-03,9.99907e-01
5.991161043e-01,4.78282e-03,9.99999e-01,9.99999e-01,9.94071e-01,4.81148e-03,9.99971e-01
6.021116848e-01,5.32836e-03,9.99999e-01,9.99999e-01,9.96632e-01,5.34637e-03,9.99996e-01
6.051222432e-01,5.91827e-03,9.99999e-01,9.99999e-01,9.98295e-01,5.92838e-03,9.99999e-01
6.081478544e-01,6.55551e-03,9.99999e-01,9.99999e-01,9.99264e-01,6.56033e-03,9.99999e-01
6.111885937e-01,7.24289e-03,9.99999e-01,9.99999e-01,9.99688e-01,7.24514e-03,9.99999e-01
6.142445367e-01,7.98465e-03,9.99999e-01,9.99999e-01,9.99860e-01,7.98576e-03,9.99999e-01
6.173157594e-01,8.78451e-03,9.99999e-01,9.99999e-01,9.99922e-01,8.78518e-03,9.99999e-01
6.204023382e-01,9.64581e-03,9.99999e-01,9.99999e-01,9.99934e-01,9.64643e-03,9.99999e-01
6.235043498e-01,1.05695e-02,9.99999e-01,9.99999e-01,9.99713e-01,1.05726e-02,9.99998e-01
6.266218716e-01,1.15490e-02,9.99999e-01,9.99999e-01,9.98486e-01,1.15667e-02,9.99988e-01
6.297549810e-01,1.26245e-02,9.99999e-01,9.99999e-01,9.99444e-01,1.26318e-02,9.99978e-01
6.329037559e-01,1.37557e-02,9.99999e-01,9.99999e-01,9.98903e-01,1.37710e-02,9.99982e-01
6.360682746e-01,1.49732e-02,9.99999e-01,9.99999e-01,9.99065e-01,1.49874e-02,9.99989e-01
6.392486160e-01,1.62641e-02,9.99999e-01,9.99999e-01,9.98789e-01,1.62839e-02,9.99995e-01
6.424448591e-01,1.76349e-02,9.99999e-01,9.99999e-01,9.98377e-01,1.76637e-02,9.99992e-01
6.456570834e-01,1.89851e-02,9.99999e-01,9.99999e-01,9.92488e-01,1.91296e-02,9.99957e-01
6.488853688e-01,2.05685e-02,9.99999e-01,9.99999e-01,9.94506e-01,2.06846e-02,9.99882e-01
6.521297956e-01,2.22043e-02,9.99999e-01,9.99999e-01,9.94401e-01,2.23314e-02,9.99903e-01
6.553904446e-01,2.39369e-02,9.99999e-01,9.99999e-01,9.94420e-01,2.40730e-02,9.99927e-01
6.586673968e-01,2.57875e-02,9.99999e-01,9.99999e-01,9.95223e-01,2.59118e-02,9.99975e-01
6.619607338e-01,2.77763e-02,9.99999e-01,9.99999e-01,9.97335e-01,2.78507e-02,9.99994e-01
6.652705375e-01,2.98440e-02,9.99999e-01,9.99999e-01,9.98400e-01,2.98919e-02,9.99996e-01
6.685968902e-01,3.20142e-02,9.99999e-01,9.99999e-01,9.99256e-01,3.20380e-02,9.99999e-01
6.719398746e-01,3.42794e-02,9.99999e-01,9.99999e-01,9.99655e-01,3.42912e-02,9.99999e-01
6.752995740e-01,3.66467e-02,9.99999e-01,9.99999e-01,9.99812e-01,3.66536e-02,9.99999e-01
6.786760719e-01,3.91166e-02,9.99999e-01,9.99999e-01,9.99729e-01,3.91272e-02,9.99999e-01
6.820694522e-01,4.16945e-02,9.99999e-01,9.99999e-01,9.99537e-01,4.17139e-02,9.99997e-01
6.854797995e-01,4.43887e-02,9.99999e-01,9.99999e-01,9.99404e-01,4.44154e-02,9.99994e-01
6.889071985e-01,4.71644e-02,9.99999e-01,9.99999e-01,9.98554e-01,4.72332e-02,9.99986e-01
6.923517345e-01,4.89941e-02,9.99999e-01,9.99999e-01,9.76691e-01,5.01689e-02,9.99886e-01
6.958134932e-01,5.25644e-02,9.99999e-01,9.99999e-01,9.87860e-01,5.32236e-02,9.99749e-01
6.992925606e-01,5.57325e-02,9.99999e-01,9.99999e-01,9.88413e-01,5.63984e-02,9.99774e-01
7.027890234e-01,5.88323e-02,9.99999e-01,9.99999e-01,9.85729e-01,5.96942e-02,9.99827e-01
7.063029686e-01,6.23482e-02,9.99999e-01,9.99999e-01,9.87984e-01,6.31118e-02,9.99914e-01
7.098344834e-01,6.58798e-02,9.99999e-01,9.99999e-01,9.88467e-01,6.66518e-02,9.99948e-01
7.133836558e-01,6.92277e-02,9.99999e-01,9.99999e-01,9.84643e-01,7.03144e-02,9.99899e-01
7.169505741e-01,6.54362e-02,9.99999e-01,9.99999e-01,8.83778e-01,7.41000e-02,9.99208e-01
7.205353270e-01,7.33323e-02,9.99999e-01,9.99999e-01,9.41368e-01,7.80085e-02,9.98605e-01
7.241380036e-01,7.58659e-02,9.99999e-01,9.99999e-01,9.25859e-01,8.20398e-02,9.98795e-01
7.277586936e-01,8.03286e-02,9.99999e-01,9.99999e-01,9.32872e-01,8.61937e-02,9.99015e-01
7.313974871e-01,8.39807e-02,9.99999e-01,9.99999e-01,9.28704e-01,9.04696e-02,9.99538e-01
7.350544745e-01,9.10917e-02,9.99999e-01,9.99999e-01,9.60360e-01,9.48668e-02,9.99839e-01
7.387297469e-01,9.64610e-02,9.99999e-01,9.99999e-01,9.70654e-01,9.93845e-02,9.99926e-01
7.424233956e-01,1.02516e-01,9.99999e-01,9.99999e-01,9.85535e-01,1.04022e-01,9.99985e-01
7.461355126e-01,1.07821e-01,9.99999e-01,9.99999e-01,9.91208e-01,1.08777e-01,9.99997e-01
7.498661902e-01,1.13184e-01,9.99999e-01,9.99999e-01,9.95899e-01,1.13650e-01,9.99998e-01
7.536155211e-01,1.18399e-01,9.99999e-01,9.99999e-01,9.97985e-01,1.18638e-01,9.99998e-01
7.573835987e-01,1.23612e-01,9.99999e-01,9.99999e-01,9.98962e-01,1.23740e-01,9.99999e-01
7.611705167e-01,1.28871e-01,9.99999e-01,9.99999e-01,9.99355e-01,1.28954e-01,9.99999e-01
7.649763693e-01,1.34224e-01,9.99999e-01,9.99999e-01,9.99595e-01,1.34279e-01,9.99999e-01
7.688012511e-01,1.39672e-01,9.99999e-01,9.99999e-01,9.99718e-01,1.39711e-01,9.99999e-01
7.726452574e-01,1.45216e-01,9.99999e-01,9.99999e-01,9.99768e-01,1.45249e-01,9.99999e-01
7.765084837e-01,1.50842e-01,9.99999e-01,9.99999e-01,9.99670e-01,1.50891e-01,9.99999e-01
7.803910261e-01,1.44762e-01,9.99999e-01,9.25428e-01,9.98576e-01,1.56635e-01,9.99998e-01
7.842929812e-01,1.11882e-01,9.99999e-01,6.91686e-01,9.95037e-01,1.62477e-01,9.99990e-01
7.882144461e-01,1.12841e-01,9.99999e-01,6.76362e-01,9.89812e-01,1.68415e-01,9.99929e-01
7.921555184e-01,1.36834e-01,9.99999e-01,7.88654e-01,9.94407e-01,1.74446e-01,9.99877e-01
7.961162960e-01,1.52353e-01,9.99999e-01,8.52076e-01,9.90119e-01,1.80568e-01,9.99883e-01
8.000968774e-01,1.69272e-01,9.99999e-01,9.16770e-01,9.88598e-01,1.86777e-01,9.99876e-01
8.040973618e-01,1.82456e-01,9.99999e-01,9.55961e-01,9.88595e-01,1.93071e-01,9.99901e-01
8.081178486e-01,1.90372e-01,9.99999e-01,9.79508e-01,9.74472e-01,1.99446e-01,9.99907e-01
8.121584379e-01,1.83718e-01,9.99999e-01,9.93638e-01,8.98167e-01,2.05899e-01,9.99638e-01
8.162192301e-01,1.86561e-01,9.99999e-01,9.98591e-01,8.80605e-01,2.12428e-01,9.98642e-01
8.203003262e-01,2.05371e-01,9.99999e-01,9.99978e-01,9.39149e-01,2.19029e-01,9.98411e-01
8.244018279e-01,2.06638e-01,9.99999e-01,9.99999e-01,9.16710e-01,2.25698e-01,9.98735e-01
8.285238370e-01,2.15176e-01,9.99999e-01,9.99999e-01,9.26675e-01,2.32433e-01,9.99006e-01
8.326664562e-01,2.21441e-01,9.99999e-01,9.99999e-01,9.26023e-01,2.39230e-01,9.99588e-01
8.368297885e-01,2.32886e-01,9.99999e-01,9.99999e-01,9.46451e-01,2.46085e-01,9.99905e-01
8.410139374e-01,2.44840e-01,9.99999e-01,9.99999e-01,9.67816e-01,2.52995e-01,9.99944e-01
8.452190071e-01,2.55812e-01,9.99999e-01,9.99999e-01,9.84086e-01,2.59957e-01,9.99966e-01
8.494451021e-01,2.64487e-01,9.99999e-01,9.99999e-01,9.90731e-01,2.66968e-01,9.99973e-01
8.536923276e-01,2.72516e-01,9.99999e-01,9.99999e-01,9.94512e-01,2.74024e-01,9.99983e-01
8.579607893e-01,2.80169e-01,9.99999e-01,9.99999e-01,9.96616e-01,2.81121e-01,9.99995e-01
8.622505932e-01,2.87637e-01,9.99999e-01,9.99999e-01,9.97849e-01,2.88256e-01,9.99998e-01
8.665618462e-01,2.59362e-01,9.99999e-01,8.79023e-01,9.98668e-01,2.95427e-01,9.99999e-01
8.708946554e-01,1.21283e-01,9.99999e-01,4.01334e-01,9.98475e-01,3.02628e-01,9.99998e-01
8.752491287e-01,1.45441e-01,9.99999e-01,4.70281e-01,9.97961e-01,3.09858e-01,9.99997e-01
8.796253743e-01,2.07234e-01,9.99999e-01,6.55231e-01,9.97176e-01,3.17113e-01,9.99993e-01
8.840235012e-01,2.58922e-01,9.99999e-01,8.00688e-01,9.96775e-01,3.24389e-01,9.99979e-01
8.884436187e-01,3.00257e-01,9.99999e-01,9.15782e-01,9.88278e-01,3.31683e-01,9.99943e-01
8.928858368e-01,2.89267e-01,9.99999e-01,9.64914e-01,8.83940e-01,3.38993e-01,9.99677e-01
8.973502660e-01,2.75932e-01,9.99999e-01,9.91373e-01,8.04681e-01,3.46314e-01,9.98349e-01
9.018370173e-01,3.15466e-01,9.99999e-01,9.99046e-01,8.95152e-01,3.53645e-01,9.97406e-01
9.063462024e-01,3.19297e-01,9.99999e-01,9.75960e-01,9.06690e-01,3.60981e-01,9.97720e-01
9.108779334e-01,2.98685e-01,9.99999e-01,9.45257e-01,8.58512e-01,3.68319e-01,9.97631e-01
9.154323231e-01,3.11246e-01,9.99999e-01,9.86892e-01,8.40610e-01,3.75658e-01,9.98042e-01
9.200094847e-01,2.84869e-01,9.99999e-01,8.39830e-01,8.73155e-01,3.82994e-01,9.98903e-01
9.246095321e-01,2.43179e-01,9.99999e-01,7.60064e-01,8.12456e-01,3.90324e-01,9.98736e-01
9.292325798e-01,8.82363e-02,9.99999e-01,8.08571e-01,2.64641e-01,3.97645e-01,9.95084e-01
9.338787427e-01,6.07095e-02,9.99999e-01,8.13095e-01,1.81053e-01,4.04954e-01,9.79834e-01
9.385481364e-01,1.75443e-01,9.99999e-01,8.58143e-01,4.98984e-01,4.12250e-01,9.76062e-01
9.432408771e-01,1.47759e-01,9.99999e-01,9.10296e-01,3.91010e-01,4.19529e-01,9.79314e-01
9.479570815e-01,1.10546e-01,9.99999e-01,9.52876e-01,2.75073e-01,4.26789e-01,9.83132e-01
9.526968669e-01,1.55898e-01,9.99999e-01,9.77021e-01,3.70044e-01,4.34028e-01,9.89677e-01
9.574603512e-01,1.69466e-01,9.99999e-01,9.90104e-01,3.89386e-01,4.41243e-01,9.94742e-01
9.622476530e-01,2.04803e-01,9.99999e-01,9.96903e-01,4.59607e-01,4.48432e-01,9.96361e-01
9.670588912e-01,2.89134e-01,9.99999e-01,9.99071e-01,6.36737e-01,4.55592e-01,9.97510e-01
9.718941857e-01,3.46476e-01,9.99999e-01,9.99934e-01,7.50193e-01,4.62722e-01,9.98166e-01
9.767536566e-01,3.69465e-01,9.99999e-01,9.99999e-01,7.87500e-01,4.69819e-01,9.98598e-01
9.816374249e-01,3.99104e-01,9.99999e-01,9.99999e-01,8.37308e-01,4.76882e-01,9.99514e-01
9.865456120e-01,4.32958e-01,9.99999e-01,9.99999e-01,8.94800e-01,4.83908e-01,9.99898e-01
9.914783401e-01,4.58241e-01,9.99999e-01,9.99999e-01,9.33503e-01,4.90896e-01,9.99971e-01
9.964357318e-01,4.79527e-01,9.99999e-01,9.99999e-01,9.63221e-01,4.97844e-01,9.99983e-01
1.001417910e+00,4.93527e-01,9.99999e-01,9.99999e-01,9.77787e-01,5.04750e-01,9.99974e-01
1.006425000e+00,5.05084e-01,9.99999e-01,9.99999e-01,9.87272e-01,5.11613e-01,9.99963e-01
1.011457125e+00,5.14311e-01,9.99999e-01,9.99999e-01,9.92085e-01,5.18431e-01,9.99966e-01
1.016514411e+00,5.22364e-01,9.99999e-01,9.99999e-01,9.94619e-01,5.25202e-01,9.99976e-01
1.021596983e+00,5.29561e-01,9.99999e-01,9.99867e-01,9.95709e-01,5.31925e-01,9.99976e-01
1.026704968e+00,5.31676e-01,9.99999e-01,9.90465e-01,9.96652e-01,5.38599e-01,9.99983e-01
1.031838492e+00,4.98436e-01,9.99999e-01,9.16309e-01,9.97567e-01,5.45223e-01,9.99995e-01
1.036997685e+00,3.48633e-02,9.99999e-01,6.32512e-02,9.98553e-01,5.51794e-01,9.99998e-01
1.042182673e+00,4.57265e-03,9.99999e-01,8.20131e-03,9.98274e-01,5.58313e-01,9.99999e-01
1.047393587e+00,1.02246e-02,9.99999e-01,1.81388e-02,9.97713e-01,5.64778e-01,9.99999e-01
1.052630555e+00,4.75336e-06,9.99999e-01,8.33879e-06,9.96862e-01,5.71187e-01,9.99998e-01
1.057893707e+00,1.76155e-05,9.99999e-01,3.05878e-05,9.94766e-01,5.77541e-01,9.99997e-01
1.063183176e+00,2.54641e-04,9.99999e-01,4.38418e-04,9.91403e-01,5.83838e-01,9.99995e-01
1.068499092e+00,1.89906e-03,9.99999e-01,3.25122e-03,9.85648e-01,5.90077e-01,9.99989e-01
1.073841587e+00,1.49975e-02,9.99999e-01,2.54731e-02,9.83229e-01,5.96257e-01,9.99978e-01
1.079210795e+00,5.86270e-02,9.99999e-01,9.90610e-02,9.78559e-01,6.02378e-01,9.99941e-01
1.084606849e+00,1.60538e-01,9.99999e-01,2.71771e-01,9.67728e-01,6.08439e-01,9.99860e-01
1.090029883e+00,2.97422e-01,9.99999e-01,5.05974e-01,9.53984e-01,6.14440e-01,9.99711e-01
1.095480033e+00,3.90864e-01,9.99999e-01,7.14184e-01,8.79642e-01,6.20380e-01,9.99479e-01
1.100957433e+00,3.86291e-01,9.99999e-01,8.49734e-01,7.23561e-01,6.26258e-01,9.99042e-01
1.106462220e+00,2.66280e-01,9.99999e-01,9.34819e-01,4.48931e-01,6.32074e-01,9.98375e-01
1.111994531e+00,1.19419e-01,9.99999e-01,9.75304e-01,1.92067e-01,6.37827e-01,9.95694e-01
1.117554504e+00,4.66823e-02,9.99999e-01,9.93920e-01,7.39703e-02,6.43518e-01,9.84545e-01
1.123142276e+00,1.02421e-01,9.99999e-01,9.99600e-01,1.63727e-01,6.49145e-01,9.63738e-01
1.128757988e+00,1.82690e-01,9.99999e-01,9.99999e-01,2.91220e-01,6.54710e-01,9.58171e-01
1.134401778e+00,8.41561e-02,9.99999e-01,9.99999e-01,1.32185e-01,6.60210e-01,9.64320e-01
1.140073787e+00,3.01657e-01,9.99999e-01,9.99999e-01,4.66526e-01,6.65647e-01,9.71388e-01
1.145774156e+00,1.43548e-01,9.99999e-01,9.99999e-01,2.19685e-01,6.71020e-01,9.73778e-01
1.151503026e+00,1.25141e-01,9.99999e-01,9.99999e-01,1.87789e-01,6.76329e-01,9.85306e-01
1.157260541e+00,1.55556e-01,9.99999e-01,9.99999e-01,2.29243e-01,6.81573e-01,9.95583e-01
1.163046844e+00,2.28942e-01,9.99999e-01,9.99999e-01,3.33786e-01,6.86754e-01,9.98745e-01
1.168862078e+00,3.17272e-01,9.99999e-01,9.99999e-01,4.58868e-01,6.91870e-01,9.99353e-01
1.174706389e+00,4.30125e-01,9.99999e-01,9.99999e-01,6.17706e-01,6.96923e-01,9.99143e-01
1.180579921e+00,5.22155e-01,9.99999e-01,9.99999e-01,7.44869e-01,7.01911e-01,9.98705e-01
1.186482820e+00,5.97154e-01,9.99999e-01,9.99981e-01,8.45964e-01,7.06835e-01,9.98670e-01
1.192415234e+00,6.24149e-01,9.99999e-01,9.67160e-01,9.06822e-01,7.11696e-01,9.99004e-01
1.198377311e+00,3.52964e-01,9.99999e-01,5.28131e-01,9.20874e-01,7.16493e-01,9.99059e-01
1.204369197e+00,3.70031e-25,9.99999e-01,5.37174e-25,9.25121e-01,7.21227e-01,9.99149e-01
1.210391043e+00,1.32585e-100,9.99999e-01,1.90478e-100,9.28187e-01,7.25898e-01,9.99482e-01
1.216442998e+00,4.12476e-87,9.99999e-01,5.87448e-87,9.38595e-01,7.30506e-01,9.99682e-01
1.222525213e+00,8.36489e-86,9.99999e-01,1.16756e-85,9.51806e-01,7.35051e-01,9.99802e-01
1.228637839e+00,2.91152e-66,9.99999e-01,4.02949e-66,9.66274e-01,7.39534e-01,9.99907e-01
