#,Wave/freq,Total,N2,CO2,H2O,Rayleigh,CIA
4.000000000e-01,3.68540e-02,9.99999e-01,9.99999e-01,9.99993e-01,3.68542e-02,9.99999e-01
4.020000000e-01,3.93396e-02,9.99999e-01,9.99999e-01,9.99995e-01,3.93397e-02,9.99999e-01
4.040100000e-01,4.19359e-02,9.99999e-01,9.99999e-01,9.99997e-01,4.19360e-02,9.99999e-01
4.060300500e-01,4.46472e-02,9.99999e-01,9.99999e-01,9.99999e-01,4.46472e-02,9.99999e-01
4.080602003e-01,4.74749e-02,9.99999e-01,9.99999e-01,9.99999e-01,4.74749e-02,9.99999e-01
4.101005013e-01,5.04205e-02,9.99999e-01,9.99999e-01,9.99999e-01,5.04205e-02,9.99999e-01
4.121510038e-01,5.34852e-02,9.99999e-01,9.99999e-01,9.99999e-01,5.34852e-02,9.99999e-01
4.142117588e-01,5.66701e-02,9.99999e-01,9.99999e-01,9.99997e-01,5.66702e-02,9.99999e-01
4.162828176e-01,5.99757e-02,9.99999e-01,9.99999e-01,9.99991e-01,5.99762e-02,9.99999e-01
4.183642317e-01,6.34037e-02,9.99999e-01,9.99999e-01,9.99994e-01,6.34040e-02,9.99999e-01
4.204560528e-01,6.69540e-02,9.99999e-01,9.99999e-01,9.99996e-01,6.69542e-02,9.99999e-01
4.225583331e-01,7.06271e-02,9.99999e-01,9.99999e-01,9.99998e-01,7.06272e-02,9.99999e-01
4.246711247e-01,7.44230e-02,9.99999e-01,9.99999e-01,9.99998e-01,7.44230e-02,9.99999e-01
4.267944804e-01,7.83418e-02,9.99999e-01,9.99999e-01,9.99998e-01,7.83419e-02,9.99999e-01
4.289284528e-01,8.23834e-02,9.99999e-01,9.99999e-01,9.99998e-01,8.23835e-02,9.99999e-01
4.310730950e-01,8.65476e-02,9.99999e-01,9.99999e-01,9.99999e-01,8.65476e-02,9.99999e-01
4.332284605e-01,9.08337e-02,9.99999e-01,9.99999e-01,9.99999e-01,9.08337e-02,9.99999e-01
4.353946028e-01,9.52410e-02,9.99999e-01,9.99999e-01,9.99999e-01,9.52410e-02,9.99999e-01
4.375715758e-01,9.97688e-02,9.99999e-01,9.99999e-01,9.99998e-01,9.97688e-02,9.99999e-01
4.397594337e-01,1.04415e-01,9.99999e-01,9.99999e-01,9.99992e-01,1.04416e-01,9.99999e-01
4.419582309e-01,1.09178e-01,9.99999e-01,9.99999e-01,9.99964e-01,1.09181e-01,9.99999e-01
4.441680220e-01,1.14061e-01,9.99999e-01,9.99999e-01,9.99972e-01,1.14064e-01,9.99999e-01
4.463888621e-01,1.19058e-01,9.99999e-01,9.99999e-01,9.99971e-01,1.19062e-01,9.99999e-01
4.486208064e-01,1.24171e-01,9.99999e-01,9.99999e-01,9.99981e-01,1.24173e-01,9.99999e-01
4.508639105e-01,1.29395e-01,9.99999e-01,9.99999e-01,9.99991e-01,1.29397e-01,9.99999e-01
4.531182300e-01,1.34730e-01,9.99999e-01,9.99999e-01,9.99996e-01,1.34730e-01,9.99999e-01
4.553838212e-01,1.40171e-01,9.99999e-01,9.99999e-01,9.99997e-01,1.40171e-01,9.99999e-01
4.576607403e-01,1.45718e-01,9.99999e-01,9.99999e-01,9.99998e-01,1.45719e-01,9.99999e-01
4.599490440e-01,1.51369e-01,9.99999e-01,9.99999e-01,9.99998e-01,1.51369e-01,9.99999e-01
4.622487892e-01,1.57121e-01,9.99999e-01,9.99999e-01,9.99999e-01,1.57121e-01,9.99999e-01
4.645600332e-01,1.62971e-01,9.99999e-01,9.99999e-01,9.99998e-01,1.62971e-01,9.99999e-01
4.668828333e-01,1.68915e-01,9.99999e-01,9.99999e-01,9.99991e-01,1.68917e-01,9.99999e-01
4.692172475e-01,1.74953e-01,9.99999e-01,9.99999e-01,9.99981e-01,1.74956e-01,9.99999e-01
4.715633337e-01,1.81083e-01,9.99999e-01,9.99999e-01,9.99987e-01,1.81085e-01,9.99999e-01
4.739211504e-01,1.87299e-01,9.99999e-01,9.99999e-01,9.99988e-01,1.87301e-01,9.99999e-01
4.762907561e-01,1.93601e-01,9.99999e-01,9.99999e-01,9.99993e-01,1.93602e-01,9.99999e-01
4.786722099e-01,1.99984e-01,9.99999e-01,9.99999e-01,9.99997e-01,1.99984e-01,9.99999e-01
4.810655710e-01,2.06444e-01,9.99999e-01,9.99999e-01,9.99998e-01,2.06444e-01,9.99999e-01
4.834708988e-01,2.12978e-01,9.99999e-01,9.99999e-01,9.99992e-01,2.12979e-01,9.99999e-01
4.858882533e-01,2.19583e-01,9.99999e-01,9.99999e-01,9.99986e-01,2.19586e-01,9.99999e-01
4.883176946e-01,2.26258e-01,9.99999e-01,9.99999e-01,9.99988e-01,2.26261e-01,9.99999e-01
4.907592831e-01,2.32998e-01,9.99999e-01,9.99999e-01,9.99989e-01,2.33001e-01,9.99999e-01
4.932130795e-01,2.39801e-01,9.99999e-01,9.99999e-01,9.99992e-01,2.39802e-01,9.99999e-01
4.956791449e-01,2.46661e-01,9.99999e-01,9.99999e-01,9.99995e-01,2.46662e-01,9.99999e-01
4.981575406e-01,2.53573e-01,9.99999e-01,9.99999e-01,9.99981e-01,2.53577e-01,9.99999e-01
5.006483283e-01,2.60531e-01,9.99999e-01,9.99999e-01,9.99952e-01,2.60544e-01,9.99999e-01
5.031515699e-01,2.67494e-01,9.99999e-01,9.99999e-01,9.99762e-01,2.67558e-01,9.99997e-01
5.056673278e-01,2.74582e-01,9.99999e-01,9.99999e-01,9.99875e-01,2.74617e-01,9.99996e-01
5.081956644e-01,2.81673e-01,9.99999e-01,9.99999e-01,9.99842e-01,2.81718e-01,9.99997e-01
5.107366428e-01,2.88826e-01,9.99999e-01,9.99999e-01,9.99893e-01,2.88856e-01,9.99999e-01
5.132903260e-01,2.96012e-01,9.99999e-01,9.99999e-01,9.99939e-01,2.96030e-01,9.99999e-01
5.158567776e-01,3.03226e-01,9.99999e-01,9.99999e-01,9.99973e-01,3.03234e-01,9.99999e-01
5.184360615e-01,3.10463e-01,9.99999e-01,9.99999e-01,9.99989e-01,3.10466e-01,9.99999e-01
5.210282418e-01,3.17721e-01,9.99999e-01,9.99999e-01,9.99995e-01,3.17722e-01,9.99999e-01
5.236333830e-01,3.24995e-01,9.99999e-01,9.99999e-01,9.99984e-01,3.25000e-01,9.99999e-01
5.262515499e-01,3.32293e-01,9.99999e-01,9.99999e-01,9.99989e-01,3.32296e-01,9.99999e-01
5.288828077e-01,3.39603e-01,9.99999e-01,9.99999e-01,9.99990e-01,3.39606e-01,9.99999e-01
5.315272217e-01,3.46926e-01,9.99999e-01,9.99999e-01,9.99991e-01,3.46929e-01,9.99999e-01
5.341848578e-01,3.54258e-01,9.99999e-01,9.99999e-01,9.99994e-01,3.54260e-01,9.99999e-01
5.368557821e-01,3.61590e-01,9.99999e-01,9.99999e-01,9.99981e-01,3.61596e-01,9.99999e-01
5.395400610e-01,3.68911e-01,9.99999e-01,9.99999e-01,9.99934e-01,3.68935e-01,9.99998e-01
5.422377613e-01,3.76242e-01,9.99999e-01,9.99999e-01,9.99916e-01,3.76274e-01,9.99997e-01
5.449489501e-01,3.83578e-01,9.99999e-01,9.99999e-01,9.99921e-01,3.83609e-01,9.99997e-01
5.476736949e-01,3.90911e-01,9.99999e-01,9.99999e-01,9.99930e-01,3.90938e-01,9.99998e-01
5.504120634e-01,3.98238e-01,9.99999e-01,9.99999e-01,9.99949e-01,3.98258e-01,9.99999e-01
5.531641237e-01,4.05557e-01,9.99999e-01,9.99999e-01,9.99974e-01,4.05567e-01,9.99999e-01
5.559299443e-01,4.12856e-01,9.99999e-01,9.99999e-01,9.99987e-01,4.12861e-01,9.99999e-01
5.587095940e-01,4.20136e-01,9.99999e-01,9.99999e-01,9.99991e-01,4.20139e-01,9.99999e-01
5.615031420e-01,4.27394e-01,9.99999e-01,9.99999e-01,9.99991e-01,4.27397e-01,9.99999e-01
5.643106577e-01,4.34630e-01,9.99999e-01,9.99999e-01,9.99989e-01,4.34634e-01,9.99999e-01
5.671322110e-01,4.41794e-01,9.99999e-01,9.99999e-01,9.99881e-01,4.41847e-01,9.99998e-01
5.699678720e-01,4.48976e-01,9.99999e-01,9.99999e-01,9.99876e-01,4.49033e-01,9.99996e-01
5.728177114e-01,4.56131e-01,9.99999e-01,9.99999e-01,9.99869e-01,4.56191e-01,9.99996e-01
5.756818000e-01,4.63263e-01,9.99999e-01,9.99999e-01,9.99880e-01,4.63318e-01,9.99997e-01
5.785602090e-01,4.70364e-01,9.99999e-01,9.99999e-01,9.99896e-01,4.70413e-01,9.99999e-01
5.814530100e-01,4.77423e-01,9.99999e-01,9.99999e-01,9.99895e-01,4.77473e-01,9.99999e-01
5.843602750e-01,4.84435e-01,9.99999e-01,9.99999e-01,9.99874e-01,4.84496e-01,9.99998e-01
5.872820764e-01,4.90949e-01,9.99999e-01,9.99999e-01,9.98924e-01,4.91481e-01,9.99992e-01
5.902184868e-01,4.97771e-01,9.99999e-01,9.99999e-01,9.98706e-01,4.98425e-01,9.99979e-01
5.931695792e-01,5.04855e-01,9.99999e-01,9.99999e-01,9.99083e-01,5.05328e-01,9.99979e-01
5.961354271e-01,5.11668e-01,9.99999e-01,9.99999e-01,9.98997e-01,5.12187e-01,9.99988e-01
5.991161043e-01,5.18620e-01,9.99999e-01,9.99999e-01,9.99269e-01,5.19000e-01,9.99996e-01
6.021116848e-01,5.25550e-01,9.99999e-01,9.99999e-01,9.99585e-01,5.25768e-01,9.99999e-01
6.051222432e-01,5.32375e-01,9.99999e-01,9.99999e-01,9.99790e-01,5.32487e-01,9.99999e-01
6.081478544e-01,5.39108e-01,9.99999e-01,9.99999e-01,9.99909e-01,5.39157e-01,9.99999e-01
6.111885937e-01,5.45755e-01,9.99999e-01,9.99999e-01,9.99961e-01,5.45776e-01,9.99999e-01
6.142445367e-01,5.52334e-01,9.99999e-01,9.99999e-01,9.99982e-01,5.52343e-01,9.99999e-01
6.173157594e-01,5.58852e-01,9.99999e-01,9.99999e-01,9.99990e-01,5.58857e-01,9.99999e-01
6.204023382e-01,5.65313e-01,9.99999e-01,9.99999e-01,9.99991e-01,5.65317e-01,9.99999e-01
6.235043498e-01,5.71702e-01,9.99999e-01,9.99999e-01,9.99963e-01,5.71722e-01,9.99999e-01
6.266218716e-01,5.77963e-01,9.99999e-01,9.99999e-01,9.99813e-01,5.78071e-01,9.99998e-01
6.297549810e-01,5.84322e-01,9.99999e-01,9.99999e-01,9.99931e-01,5.84363e-01,9.99996e-01
6.329037559e-01,5.90516e-01,9.99999e-01,9.99999e-01,9.99864e-01,5.90597e-01,9.99997e-01
6.360682746e-01,5.96703e-01,9.99999e-01,9.99999e-01,9.99884e-01,5.96773e-01,9.99998e-01
6.392486160e-01,6.02799e-01,9.99999e-01,9.99999e-01,9.99850e-01,6.02889e-01,9.99998e-01
6.424448591e-01,6.08822e-01,9.99999e-01,9.99999e-01,9.99798e-01,6.08945e-01,9.99998e-01
6.456570834e-01,6.14364e-01,9.99999e-01,9.99999e-01,9.99068e-01,6.14941e-01,9.99993e-01
6.488853688e-01,6.20446e-01,9.99999e-01,9.99999e-01,9.99323e-01,6.20875e-01,9.99985e-01
6.521297956e-01,6.26308e-01,9.99999e-01,9.99999e-01,9.99309e-01,6.26748e-01,9.99987e-01
6.553904446e-01,6.32118e-01,9.99999e-01,9.99999e-01,9.99311e-01,6.32559e-01,9.99990e-01
6.586673968e-01,6.37930e-01,9.99999e-01,9.99999e-01,9.99411e-01,6.38307e-01,9.99996e-01
6.619607338e-01,6.43781e-01,9.99999e-01,9.99999e-01,9.99672e-01,6.43992e-01,9.99998e-01
6.652705375e-01,6.49487e-01,9.99999e-01,9.99999e-01,9.99803e-01,6.49615e-01,9.99999e-01
6.685968902e-01,6.55119e-01,9.99999e-01,9.99999e-01,9.99916e-01,6.55173e-01,9.99999e-01
6.719398746e-01,6.60641e-01,9.99999e-01,9.99999e-01,9.99957e-01,6.60669e-01,9.99999e-01
6.752995740e-01,6.66085e-01,9.99999e-01,9.99999e-01,9.99977e-01,6.66100e-01,9.99999e-01
6.786760719e-01,6.71445e-01,9.99999e-01,9.99999e-01,9.99966e-01,6.71467e-01,9.99999e-01
6.820694522e-01,6.76732e-01,9.99999e-01,9.99999e-01,9.99942e-01,6.76771e-01,9.99999e-01
6.854797995e-01,6.81960e-01,9.99999e-01,9.99999e-01,9.99926e-01,6.82010e-01,9.99998e-01
6.889071985e-01,6.87061e-01,9.99999e-01,9.99999e-01,9.99819e-01,6.87185e-01,9.99997e-01
6.923517345e-01,6.90270e-01,9.99999e-01,9.99999e-01,9.97086e-01,6.92296e-01,9.99985e-01
6.958134932e-01,6.96281e-01,9.99999e-01,9.99999e-01,9.98507e-01,6.97343e-01,9.99968e-01
6.992925606e-01,7.01297e-01,9.99999e-01,9.99999e-01,9.98561e-01,7.02326e-01,9.99971e-01
7.027890234e-01,7.05982e-01,9.99999e-01,9.99999e-01,9.98234e-01,7.07246e-01,9.99978e-01
7.063029686e-01,7.11036e-01,9.99999e-01,9.99999e-01,9.98514e-01,7.12101e-01,9.99988e-01
7.098344834e-01,7.15867e-01,9.99999e-01,9.99999e-01,9.98575e-01,7.16893e-01,9.99993e-01
7.133836558e-01,7.20229e-01,9.99999e-01,9.99999e-01,9.98082e-01,7.21621e-01,9.99987e-01
7.169505741e-01,7.15071e-01,9.99999e-01,9.99999e-01,9.84653e-01,7.26287e-01,9.99902e-01
7.205353270e-01,7.25340e-01,9.99999e-01,9.99999e-01,9.92577e-01,7.30889e-01,9.99827e-01
7.241380036e-01,7.28317e-01,9.99999e-01,9.99999e-01,9.90475e-01,7.35429e-01,9.99851e-01
7.277586936e-01,7.33460e-01,9.99999e-01,9.99999e-01,9.91406e-01,7.39907e-01,9.99878e-01
7.313974871e-01,7.37523e-01,9.99999e-01,9.99999e-01,9.90921e-01,7.44322e-01,9.99942e-01
7.350544745e-01,7.44941e-01,9.99999e-01,9.99999e-01,9.95030e-01,7.48676e-01,9.99979e-01
7.387297469e-01,7.50211e-01,9.99999e-01,9.99999e-01,9.96346e-01,7.52969e-01,9.99990e-01
7.424233956e-01,7.55848e-01,9.99999e-01,9.99999e-01,9.98214e-01,7.57201e-01,9.99997e-01
7.461355126e-01,7.60547e-01,9.99999e-01,9.99999e-01,9.98916e-01,7.61372e-01,9.99999e-01
7.498661902e-01,7.65098e-01,9.99999e-01,9.99999e-01,9.99496e-01,7.65483e-01,9.99999e-01
7.536155211e-01,7.69344e-01,9.99999e-01,9.99999e-01,9.99752e-01,7.69535e-01,9.99999e-01
7.573835987e-01,7.73429e-01,9.99999e-01,9.99999e-01,9.99872e-01,7.73527e-01,9.99999e-01
7.611705167e-01,7.77399e-01,9.99999e-01,9.99999e-01,9.99920e-01,7.77460e-01,9.99999e-01
7.649763693e-01,7.81297e-01,9.99999e-01,9.99999e-01,9.99949e-01,7.81336e-01,9.99999e-01
7.688012511e-01,7.85126e-01,9.99999e-01,9.99999e-01,9.99964e-01,7.85153e-01,9.99999e-01
7.726452574e-01,7.88891e-01,9.99999e-01,9.99999e-01,9.99971e-01,7.88913e-01,9.99999e-01
7.765084837e-01,7.92584e-01,9.99999e-01,9.99999e-01,9.99958e-01,7.92617e-01,9.99999e-01
7.803910261e-01,7.86759e-01,9.99999e-01,9.88234e-01,9.99823e-01,7.96264e-01,9.99999e-01
7.842929812e-01,7.61755e-01,9.99999e-01,9.52942e-01,9.99384e-01,7.99855e-01,9.99998e-01
7.882144461e-01,7.61625e-01,9.99999e-01,9.49198e-01,9.98741e-01,8.03391e-01,9.99990e-01
7.921555184e-01,7.82653e-01,9.99999e-01,9.70659e-01,9.99312e-01,8.06873e-01,9.99984e-01
7.961162960e-01,7.93485e-01,9.99999e-01,9.80459e-01,9.98774e-01,8.10300e-01,9.99985e-01
8.000968774e-01,8.03864e-01,9.99999e-01,9.89351e-01,9.98590e-01,8.13674e-01,9.99984e-01
8.040973618e-01,8.11339e-01,9.99999e-01,9.94491e-01,9.98588e-01,8.16994e-01,9.99987e-01
8.081178486e-01,8.15556e-01,9.99999e-01,9.97460e-01,9.96802e-01,8.20263e-01,9.99987e-01
8.121584379e-01,8.11870e-01,9.99999e-01,9.99220e-01,9.86711e-01,8.23479e-01,9.99955e-01
8.162192301e-01,8.13424e-01,9.99999e-01,9.99827e-01,9.84339e-01,8.26644e-01,9.99832e-01
8.203003262e-01,8.22965e-01,9.99999e-01,9.99997e-01,9.92008e-01,8.29759e-01,9.99804e-01
8.244018279e-01,8.23552e-01,9.99999e-01,9.99999e-01,9.89021e-01,8.32823e-01,9.99843e-01
8.285238370e-01,8.27884e-01,9.99999e-01,9.99999e-01,9.90604e-01,8.35838e-01,9.99877e-01
8.326664562e-01,8.30814e-01,9.99999e-01,9.99999e-01,9.90524e-01,8.38804e-01,9.99948e-01
8.368297885e-01,8.36028e-01,9.99999e-01,9.99999e-01,9.93248e-01,8.41721e-01,9.99987e-01
8.410139374e-01,8.41197e-01,9.99999e-01,9.99999e-01,9.95987e-01,8.44591e-01,9.99992e-01
8.452190071e-01,8.45744e-01,9.99999e-01,9.99999e-01,9.98034e-01,8.47413e-01,9.99995e-01
8.494451021e-01,8.49214e-01,9.99999e-01,9.99999e-01,9.98856e-01,8.50189e-01,9.99996e-01
8.536923276e-01,8.52342e-01,9.99999e-01,9.99999e-01,9.99325e-01,8.52919e-01,9.99997e-01
8.579607893e-01,8.55247e-01,9.99999e-01,9.99999e-01,9.99583e-01,8.55603e-01,9.99999e-01
8.622505932e-01,8.58016e-01,9.99999e-01,9.99999e-01,9.99735e-01,8.58243e-01,9.99999e-01
8.665618462e-01,8.31950e-01,9.99999e-01,9.66596e-01,9.99835e-01,8.60838e-01,9.99999e-01
8.708946554e-01,7.61363e-01,9.99999e-01,8.81992e-01,9.99811e-01,8.63390e-01,9.99999e-01
8.752491287e-01,7.84056e-01,9.99999e-01,9.05706e-01,9.99748e-01,8.65899e-01,9.99999e-01
8.796253743e-01,8.22795e-01,9.99999e-01,9.47849e-01,9.99651e-01,8.68365e-01,9.99998e-01
8.840235012e-01,8.46763e-01,9.99999e-01,9.72795e-01,9.99601e-01,8.70789e-01,9.99997e-01
8.884436187e-01,8.62516e-01,9.99999e-01,9.89254e-01,9.98526e-01,8.73172e-01,9.99992e-01
8.928858368e-01,8.58288e-01,9.99999e-01,9.95630e-01,9.84653e-01,8.75514e-01,9.99959e-01
8.973502660e-01,8.53162e-01,9.99999e-01,9.98941e-01,9.73133e-01,8.77816e-01,9.99796e-01
9.018370173e-01,8.67616e-01,9.99999e-01,9.99883e-01,9.86267e-01,8.80079e-01,9.99680e-01
9.063462024e-01,8.68620e-01,9.99999e-01,9.96915e-01,9.87783e-01,8.82302e-01,9.99719e-01
9.108779334e-01,8.61530e-01,9.99999e-01,9.93093e-01,9.81076e-01,8.84487e-01,9.99708e-01
9.154323231e-01,8.66055e-01,9.99999e-01,9.98388e-01,9.78589e-01,8.86634e-01,9.99758e-01
9.200094847e-01,8.52296e-01,9.99999e-01,9.75209e-01,9.83204e-01,8.88744e-01,9.99864e-01
9.246095321e-01,8.37854e-01,9.99999e-01,9.66545e-01,9.73038e-01,8.90817e-01,9.99844e-01
9.292325798e-01,7.23521e-01,9.99999e-01,9.73295e-01,8.32300e-01,8.92854e-01,9.99249e-01
9.338787427e-01,6.87114e-01,9.99999e-01,9.74491e-01,7.89261e-01,8.94855e-01,9.97292e-01
9.385481364e-01,7.98336e-01,9.99999e-01,9.81242e-01,9.09559e-01,8.96821e-01,9.97025e-01
9.432408771e-01,7.74171e-01,9.99999e-01,9.88520e-01,8.73426e-01,8.98752e-01,9.97433e-01
9.479570815e-01,7.38255e-01,9.99999e-01,9.94087e-01,8.26187e-01,9.00649e-01,9.97910e-01
9.526968669e-01,7.82277e-01,9.99999e-01,9.97149e-01,8.70279e-01,9.02512e-01,9.98724e-01
9.574603512e-01,7.97163e-01,9.99999e-01,9.98781e-01,8.83106e-01,9.04343e-01,9.99351e-01
9.622476530e-01,8.19008e-01,9.99999e-01,9.99619e-01,9.04584e-01,9.06140e-01,9.99551e-01
9.670588912e-01,8.56663e-01,9.99999e-01,9.99885e-01,9.43952e-01,9.07906e-01,9.99693e-01
9.718941857e-01,8.77430e-01,9.99999e-01,9.99991e-01,9.64814e-01,9.09640e-01,9.99773e-01
9.767536566e-01,8.84502e-01,9.99999e-01,9.99999e-01,9.70714e-01,9.11344e-01,9.99827e-01
9.816374249e-01,8.93142e-01,9.99999e-01,9.99999e-01,9.78289e-01,9.13016e-01,9.99939e-01
9.865456120e-01,9.02208e-01,9.99999e-01,9.99999e-01,9.86399e-01,9.14659e-01,9.99987e-01
9.914783401e-01,9.08550e-01,9.99999e-01,9.99999e-01,9.91575e-01,9.16272e-01,9.99996e-01
9.964357318e-01,9.13638e-01,9.99999e-01,9.99999e-01,9.95405e-01,9.17856e-01,9.99997e-01
1.001417910e+00,9.16876e-01,9.99999e-01,9.99999e-01,9.97245e-01,9.19411e-01,9.99996e-01
1.006425000e+00,9.19486e-01,9.99999e-01,9.99999e-01,9.98426e-01,9.20938e-01,9.99995e-01
1.011457125e+00,9.21535e-01,9.99999e-01,9.99999e-01,9.99025e-01,9.22438e-01,9.99995e-01
1.016514411e+00,9.23296e-01,9.99999e-01,9.99999e-01,9.99337e-01,9.23910e-01,9.99996e-01
1.021596983e+00,9.24848e-01,9.99999e-01,9.99981e-01,9.99471e-01,9.25355e-01,9.99996e-01
1.026704968e+00,9.25279e-01,9.99999e-01,9.98798e-01,9.99587e-01,9.26774e-01,9.99997e-01
1.031838492e+00,9.08445e-01,9.99999e-01,9.79038e-01,9.99700e-01,9.28168e-01,9.99998e-01
1.036997685e+00,3.66373e-01,9.99999e-01,3.94208e-01,9.99821e-01,9.29535e-01,9.99999e-01
1.042182673e+00,4.59376e-01,9.99999e-01,4.93587e-01,9.99787e-01,9.30878e-01,9.99999e-01
1.047393587e+00,3.99449e-01,9.99999e-01,4.28614e-01,9.99718e-01,9.32196e-01,9.99999e-01
1.052630555e+00,1.12764e-01,9.99999e-01,1.20837e-01,9.99612e-01,9.33489e-01,9.99999e-01
1.057893707e+00,1.85802e-01,9.99999e-01,1.98879e-01,9.99353e-01,9.34759e-01,9.99999e-01
1.063183176e+00,2.92702e-01,9.99999e-01,3.13001e-01,9.98936e-01,9.36006e-01,9.99998e-01
1.068499092e+00,4.36159e-01,9.99999e-01,4.66149e-01,9.98221e-01,9.37229e-01,9.99998e-01
1.073841587e+00,5.79788e-01,9.99999e-01,6.19040e-01,9.97914e-01,9.38430e-01,9.99996e-01
1.079210795e+00,6.93025e-01,9.99999e-01,7.39483e-01,9.97335e-01,9.39609e-01,9.99992e-01
1.084606849e+00,7.95279e-01,9.99999e-01,8.48742e-01,9.95961e-01,9.40766e-01,9.99982e-01
1.090029883e+00,8.60224e-01,9.99999e-01,9.18622e-01,9.94173e-01,9.41901e-01,9.99964e-01
1.095480033e+00,8.90206e-01,9.99999e-01,9.59143e-01,9.84219e-01,9.43015e-01,9.99935e-01
1.100957433e+00,8.88539e-01,9.99999e-01,9.80134e-01,9.60264e-01,9.44109e-01,9.99881e-01
1.106462220e+00,8.44414e-01,9.99999e-01,9.91751e-01,9.00906e-01,9.45182e-01,9.99799e-01
1.111994531e+00,7.56304e-01,9.99999e-01,9.96936e-01,8.02097e-01,9.46235e-01,9.99469e-01
1.117554504e+00,6.59463e-01,9.99999e-01,9.99254e-01,6.97991e-01,9.47268e-01,9.98086e-01
1.123142276e+00,7.19903e-01,9.99999e-01,9.99950e-01,7.62648e-01,9.48283e-01,9.95469e-01
1.128757988e+00,7.96147e-01,9.99999e-01,9.99999e-01,8.43104e-01,9.49278e-01,9.94760e-01
1.134401778e+00,6.18335e-01,9.99999e-01,9.99999e-01,6.53617e-01,9.50254e-01,9.95543e-01
1.140073787e+00,8.57790e-01,9.99999e-01,9.99999e-01,9.05009e-01,9.51212e-01,9.96437e-01
1.145774156e+00,7.68466e-01,9.99999e-01,9.99999e-01,8.09723e-01,9.52153e-01,9.96738e-01
1.151503026e+00,7.50070e-01,9.99999e-01,9.99999e-01,7.88433e-01,9.53075e-01,9.98181e-01
1.157260541e+00,7.86244e-01,9.99999e-01,9.99999e-01,8.24619e-01,9.53980e-01,9.99455e-01
1.163046844e+00,8.28622e-01,9.99999e-01,9.99999e-01,8.67919e-01,9.54869e-01,9.99845e-01
1.168862078e+00,8.66862e-01,9.99999e-01,9.99999e-01,9.07077e-01,9.55740e-01,9.99920e-01
1.174706389e+00,9.00643e-01,9.99999e-01,9.99999e-01,9.41608e-01,9.56595e-01,9.99894e-01
1.180579921e+00,9.22907e-01,9.99999e-01,9.99999e-01,9.64091e-01,9.57434e-01,9.99840e-01
1.186482820e+00,9.38532e-01,9.99999e-01,9.99996e-01,9.79578e-01,9.58257e-01,9.99836e-01
1.192415234e+00,9.43372e-01,9.99999e-01,9.95654e-01,9.88035e-01,9.59064e-01,9.99877e-01
1.198377311e+00,5.81205e-01,9.99999e-01,6.10828e-01,9.89892e-01,9.59856e-01,9.99883e-01
1.204369197e+00,4.73411e-05,9.99999e-01,4.95605e-05,9.90430e-01,9.60633e-01,9.99894e-01
1.210391043e+00,2.43843e-14,9.99999e-01,2.54945e-14,9.90853e-01,9.61396e-01,9.99935e-01
1.216442998e+00,1.23007e-12,9.99999e-01,1.28477e-12,9.92226e-01,9.62144e-01,9.99960e-01
1.222525213e+00,2.07859e-12,9.99999e-01,2.16613e-12,9.93943e-01,9.62877e-01,9.99975e-01
1.228637839e+00,1.75783e-09,9.99999e-01,1.82986e-09,9.95789e-01,9.63597e-01,9.99988e-01
