#,Wave/freq,Total,N2,CO2,H2O,Rayleigh,CIA
4.000000000e-01,2.90918e-06,9.99999e-01,9.99999e-01,9.99974e-01,2.90925e-06,9.99999e-01
4.020000000e-01,3.74320e-06,9.99999e-01,9.99999e-01,9.99984e-01,3.74326e-06,9.99999e-01
4.040100000e-01,4.79114e-06,9.99999e-01,9.99999e-01,9.99993e-01,4.79117e-06,9.99999e-01
4.060300500e-01,6.10260e-06,9.99999e-01,9.99999e-01,9.99997e-01,6.10261e-06,9.99999e-01
4.080602003e-01,7.73597e-06,9.99999e-01,9.99999e-01,9.99999e-01,7.73597e-06,9.99999e-01
4.101005013e-01,9.76066e-06,9.99999e-01,9.99999e-01,9.99999e-01,9.76066e-06,9.99999e-01
4.121510038e-01,1.22588e-05,9.99999e-01,9.99999e-01,9.99998e-01,1.22588e-05,9.99999e-01
4.142117588e-01,1.53272e-05,9.99999e-01,9.99999e-01,9.99992e-01,1.53273e-05,9.99999e-01
4.162828176e-01,1.90788e-05,9.99999e-01,9.99999e-01,9.99969e-01,1.90794e-05,9.99999e-01
4.183642317e-01,2.36470e-05,9.99999e-01,9.99999e-01,9.99981e-01,2.36474e-05,9.99999e-01
4.204560528e-01,2.91849e-05,9.99999e-01,9.99999e-01,9.99988e-01,2.91853e-05,9.99999e-01
4.225583331e-01,3.58704e-05,9.99999e-01,9.99999e-01,9.99995e-01,3.58705e-05,9.99999e-01
4.246711247e-01,4.39078e-05,9.99999e-01,9.99999e-01,9.99996e-01,4.39079e-05,9.99999e-01
4.267944804e-01,5.35317e-05,9.99999e-01,9.99999e-01,9.99994e-01,5.35320e-05,9.99999e-01
4.289284528e-01,6.50103e-05,9.99999e-01,9.99999e-01,9.99995e-01,6.50105e-05,9.99999e-01
4.310730950e-01,7.86479e-05,9.99999e-01,9.99999e-01,9.99997e-01,7.86480e-05,9.99999e-01
4.332284605e-01,9.47890e-05,9.99999e-01,9.99999e-01,9.99999e-01,9.47890e-05,9.99999e-01
4.353946028e-01,1.13822e-04,9.99999e-01,9.99999e-01,9.99999e-01,1.13822e-04,9.99999e-01
4.375715758e-01,1.36184e-04,9.99999e-01,9.99999e-01,9.99996e-01,1.36184e-04,9.99999e-01
4.397594337e-01,1.62359e-04,9.99999e-01,9.99999e-01,9.99973e-01,1.62363e-04,9.99999e-01
4.419582309e-01,1.92877e-04,9.99999e-01,9.99999e-01,9.99866e-01,1.92903e-04,9.99999e-01
4.441680220e-01,2.28385e-04,9.99999e-01,9.99999e-01,9.99893e-01,2.28409e-04,9.99999e-01
4.463888621e-01,2.69519e-04,9.99999e-01,9.99999e-01,9.99889e-01,2.69549e-04,9.99999e-01
4.486208064e-01,3.17038e-04,9.99999e-01,9.99999e-01,9.99930e-01,3.17060e-04,9.99999e-01
4.508639105e-01,3.71739e-04,9.99999e-01,9.99999e-01,9.99967e-01,3.71751e-04,9.99999e-01
4.531182300e-01,4.34503e-04,9.99999e-01,9.99999e-01,9.99986e-01,4.34508e-04,9.99999e-01
4.553838212e-01,5.06293e-04,9.99999e-01,9.99999e-01,9.99990e-01,5.06298e-04,9.99999e-01
4.576607403e-01,5.88167e-04,9.99999e-01,9.99999e-01,9.99995e-01,5.88169e-04,9.99999e-01
4.599490440e-01,6.81258e-04,9.99999e-01,9.99999e-01,9.99996e-01,6.81259e-04,9.99999e-01
4.622487892e-01,7.86796e-04,9.99999e-01,9.99999e-01,9.99999e-01,7.86797e-04,9.99999e-01
4.645600332e-01,9.06100e-04,9.99999e-01,9.99999e-01,9.99997e-01,9.06102e-04,9.99999e-01
4.668828333e-01,1.04056e-03,9.99999e-01,9.99999e-01,9.99967e-01,1.04059e-03,9.99999e-01
4.692172475e-01,1.19170e-03,9.99999e-01,9.99999e-01,9.99930e-01,1.19178e-03,9.99999e-01
4.715633337e-01,1.36122e-03,9.99999e-01,9.99999e-01,9.99954e-01,1.36128e-03,9.99999e-01
4.739211504e-01,1.55075e-03,9.99999e-01,9.99999e-01,9.99956e-01,1.55082e-03,9.99999e-01
4.762907561e-01,1.76215e-03,9.99999e-01,9.99999e-01,9.99976e-01,1.76219e-03,9.99999e-01
4.786722099e-01,1.99732e-03,9.99999e-01,9.99999e-01,9.99990e-01,1.99733e-03,9.99999e-01
4.810655710e-01,2.25825e-03,9.99999e-01,9.99999e-01,9.99996e-01,2.25826e-03,9.99999e-01
4.834708988e-01,2.54702e-03,9.99999e-01,9.99999e-01,9.99973e-01,2.54708e-03,9.99999e-01
4.858882533e-01,2.86589e-03,9.99999e-01,9.99999e-01,9.99950e-01,2.86603e-03,9.99999e-01
4.883176946e-01,3.21727e-03,9.99999e-01,9.99999e-01,9.99958e-01,3.21740e-03,9.99999e-01
4.907592831e-01,3.60348e-03,9.99999e-01,9.99999e-01,9.99962e-01,3.60361e-03,9.99999e-01
4.932130795e-01,4.02705e-03,9.99999e-01,9.99999e-01,9.99973e-01,4.02716e-03,9.99999e-01
4.956791449e-01,4.49055e-03,9.99999e-01,9.99999e-01,9.99985e-01,4.49062e-03,9.99999e-01
4.981575406e-01,4.99630e-03,9.99999e-01,9.99999e-01,9.99930e-01,4.99665e-03,9.99999e-01
5.006483283e-01,5.54699e-03,9.99999e-01,9.99999e-01,9.99821e-01,5.54799e-03,9.99998e-01
5.031515699e-01,6.14179e-03,9.99999e-01,9.99999e-01,9.99089e-01,6.14744e-03,9.99989e-01
5.056673278e-01,6.79452e-03,9.99999e-01,9.99999e-01,9.99517e-01,6.79787e-03,9.99988e-01
5.081956644e-01,7.49759e-03,9.99999e-01,9.99999e-01,9.99391e-01,7.50221e-03,9.99992e-01
5.107366428e-01,8.26000e-03,9.99999e-01,9.99999e-01,9.99588e-01,8.26341e-03,9.99998e-01
5.132903260e-01,9.08235e-03,9.99999e-01,9.99999e-01,9.99764e-01,9.08449e-03,9.99999e-01
5.158567776e-01,9.96749e-03,9.99999e-01,9.99999e-01,9.99900e-01,9.96849e-03,9.99999e-01
5.184360615e-01,1.09180e-02,9.99999e-01,9.99999e-01,9.99959e-01,1.09185e-02,9.99999e-01
5.210282418e-01,1.19373e-02,9.99999e-01,9.99999e-01,9.99984e-01,1.19375e-02,9.99999e-01
5.236333830e-01,1.30278e-02,9.99999e-01,9.99999e-01,9.99940e-01,1.30286e-02,9.99999e-01
5.262515499e-01,1.41944e-02,9.99999e-01,9.99999e-01,9.99962e-01,1.41949e-02,9.99998e-01
5.288828077e-01,1.54390e-02,9.99999e-01,9.99999e-01,9.99965e-01,1.54395e-02,9.99999e-01
5.315272217e-01,1.67648e-02,9.99999e-01,9.99999e-01,9.99969e-01,1.67653e-02,9.99999e-01
5.341848578e-01,1.81751e-02,9.99999e-01,9.99999e-01,9.99980e-01,1.81754e-02,9.99999e-01
5.368557821e-01,1.96714e-02,9.99999e-01,9.99999e-01,9.99930e-01,1.96727e-02,9.99999e-01
5.395400610e-01,2.12548e-02,9.99999e-01,9.99999e-01,9.99752e-01,2.12601e-02,9.99997e-01
5.422377613e-01,2.29328e-02,9.99999e-01,9.99999e-01,9.99675e-01,2.29403e-02,9.99993e-01
5.449489501e-01,2.47087e-02,9.99999e-01,9.99999e-01,9.99700e-01,2.47162e-02,9.99993e-01
5.476736949e-01,2.65832e-02,9.99999e-01,9.99999e-01,9.99732e-01,2.65904e-02,9.99996e-01
5.504120634e-01,2.85598e-02,9.99999e-01,9.99999e-01,9.99805e-01,2.85654e-02,9.99998e-01
5.531641237e-01,3.06407e-02,9.99999e-01,9.99999e-01,9.99902e-01,3.06437e-02,9.99999e-01
5.559299443e-01,3.28261e-02,9.99999e-01,9.99999e-01,9.99952e-01,3.28276e-02,9.99999e-01
5.587095940e-01,3.51184e-02,9.99999e-01,9.99999e-01,9.99970e-01,3.51194e-02,9.99999e-01
5.615031420e-01,3.75199e-02,9.99999e-01,9.99999e-01,9.99966e-01,3.75212e-02,9.99999e-01
5.643106577e-01,4.00333e-02,9.99999e-01,9.99999e-01,9.99962e-01,4.00348e-02,9.99999e-01
5.671322110e-01,4.26432e-02,9.99999e-01,9.99999e-01,9.99557e-01,4.26622e-02,9.99995e-01
5.699678720e-01,4.53824e-02,9.99999e-01,9.99999e-01,9.99515e-01,4.54049e-02,9.99987e-01
5.728177114e-01,4.82401e-02,9.99999e-01,9.99999e-01,9.99501e-01,4.82646e-02,9.99989e-01
5.756818000e-01,5.12187e-02,9.99999e-01,9.99999e-01,9.99541e-01,5.12425e-02,9.99993e-01
5.785602090e-01,5.43180e-02,9.99999e-01,9.99999e-01,9.99599e-01,5.43398e-02,9.99997e-01
5.814530100e-01,5.75345e-02,9.99999e-01,9.99999e-01,9.99598e-01,5.75576e-02,9.99998e-01
5.843602750e-01,6.08677e-02,9.99999e-01,9.99999e-01,9.99525e-01,6.08967e-02,9.99996e-01
5.872820764e-01,6.40927e-02,9.99999e-01,9.99999e-01,9.95909e-01,6.43578e-02,9.99970e-01
5.902184868e-01,6.75964e-02,9.99999e-01,9.99999e-01,9.95000e-01,6.79413e-02,9.99920e-01
5.931695792e-01,7.13899e-02,9.99999e-01,9.99999e-01,9.96476e-01,7.16477e-02,9.99922e-01
5.961354271e-01,7.51815e-02,9.99999e-01,9.99999e-01,9.96129e-01,7.54771e-02,9.99953e-01
5.991161043e-01,7.92038e-02,9.99999e-01,9.99999e-01,9.97173e-01,7.94293e-02,9.99986e-01
6.021116848e-01,8.33701e-02,9.99999e-01,9.99999e-01,9.98393e-01,8.35043e-02,9.99997e-01
6.051222432e-01,8.76304e-02,9.99999e-01,9.99999e-01,9.99186e-01,8.77017e-02,9.99999e-01
6.081478544e-01,9.19886e-02,9.99999e-01,9.99999e-01,9.99649e-01,9.20208e-02,9.99999e-01
6.111885937e-01,9.64467e-02,9.99999e-01,9.99999e-01,9.99850e-01,9.64610e-02,9.99999e-01
6.142445367e-01,1.01015e-01,9.99999e-01,9.99999e-01,9.99933e-01,1.01021e-01,9.99999e-01
6.173157594e-01,1.05697e-01,9.99999e-01,9.99999e-01,9.99963e-01,1.05701e-01,9.99999e-01
6.204023382e-01,1.10495e-01,9.99999e-01,9.99999e-01,9.99968e-01,1.10498e-01,9.99999e-01
6.235043498e-01,1.15397e-01,9.99999e-01,9.99999e-01,9.99866e-01,1.15412e-01,9.99999e-01
6.266218716e-01,1.20354e-01,9.99999e-01,9.99999e-01,9.99281e-01,1.20441e-01,9.99994e-01
6.297549810e-01,1.25549e-01,9.99999e-01,9.99999e-01,9.99736e-01,1.25583e-01,9.99989e-01
6.329037559e-01,1.30767e-01,9.99999e-01,9.99999e-01,9.99477e-01,1.30837e-01,9.99991e-01
6.360682746e-01,1.36139e-01,9.99999e-01,9.99999e-01,9.99557e-01,1.36200e-01,9.99994e-01
6.392486160e-01,1.41589e-01,9.99999e-01,9.99999e-01,9.99424e-01,1.41670e-01,9.99997e-01
6.424448591e-01,1.47144e-01,9.99999e-01,9.99999e-01,9.99310e-01,1.47246e-01,9.99996e-01
6.456570834e-01,1.52384e-01,9.99999e-01,9.99999e-01,9.96485e-01,1.52924e-01,9.99979e-01
6.488853688e-01,1.58206e-01,9.99999e-01,9.99999e-01,9.96924e-01,1.58703e-01,9.99944e-01
6.521297956e-01,1.64132e-01,9.99999e-01,9.99999e-01,9.97329e-01,1.64579e-01,9.99953e-01
6.553904446e-01,1.70095e-01,9.99999e-01,9.99999e-01,9.97363e-01,1.70551e-01,9.99964e-01
6.586673968e-01,1.76210e-01,9.99999e-01,9.99999e-01,9.97720e-01,1.76615e-01,9.99988e-01
6.619607338e-01,1.82527e-01,9.99999e-01,9.99999e-01,9.98682e-01,1.82768e-01,9.99997e-01
6.652705375e-01,1.88863e-01,9.99999e-01,9.99999e-01,9.99234e-01,1.89007e-01,9.99998e-01
6.685968902e-01,1.95261e-01,9.99999e-01,9.99999e-01,9.99644e-01,1.95331e-01,9.99999e-01
6.719398746e-01,2.01701e-01,9.99999e-01,9.99999e-01,9.99834e-01,2.01734e-01,9.99999e-01
6.752995740e-01,2.08196e-01,9.99999e-01,9.99999e-01,9.99910e-01,2.08215e-01,9.99999e-01
6.786760719e-01,2.14742e-01,9.99999e-01,9.99999e-01,9.99872e-01,2.14770e-01,9.99999e-01
6.820694522e-01,2.21346e-01,9.99999e-01,9.99999e-01,9.99780e-01,2.21395e-01,9.99998e-01
6.854797995e-01,2.28023e-01,9.99999e-01,9.99999e-01,9.99717e-01,2.28088e-01,9.99997e-01
6.889071985e-01,2.34686e-01,9.99999e-01,9.99999e-01,9.99327e-01,2.34845e-01,9.99993e-01
6.923517345e-01,2.38976e-01,9.99999e-01,9.99999e-01,9.88935e-01,2.41663e-01,9.99946e-01
6.958134932e-01,2.47047e-01,9.99999e-01,9.99999e-01,9.94118e-01,2.48538e-01,9.99878e-01
6.992925606e-01,2.54041e-01,9.99999e-01,9.99999e-01,9.94519e-01,2.55468e-01,9.99893e-01
7.027890234e-01,2.60637e-01,9.99999e-01,9.99999e-01,9.93183e-01,2.62447e-01,9.99917e-01
7.063029686e-01,2.67920e-01,9.99999e-01,9.99999e-01,9.94272e-01,2.69475e-01,9.99958e-01
7.098344834e-01,2.75019e-01,9.99999e-01,9.99999e-01,9.94503e-01,2.76545e-01,9.99975e-01
7.133836558e-01,2.81593e-01,9.99999e-01,9.99999e-01,9.92773e-01,2.83657e-01,9.99951e-01
7.169505741e-01,2.74100e-01,9.99999e-01,9.99999e-01,9.42908e-01,2.90805e-01,9.99624e-01
7.205353270e-01,2.89195e-01,9.99999e-01,9.99999e-01,9.71140e-01,2.97987e-01,9.99337e-01
7.241380036e-01,2.94050e-01,9.99999e-01,9.99999e-01,9.64025e-01,3.05199e-01,9.99423e-01
7.277586936e-01,3.02124e-01,9.99999e-01,9.99999e-01,9.67450e-01,3.12438e-01,9.99520e-01
7.313974871e-01,3.08510e-01,9.99999e-01,9.99999e-01,9.65207e-01,3.19700e-01,9.99780e-01
7.350544745e-01,3.20709e-01,9.99999e-01,9.99999e-01,9.80885e-01,3.26983e-01,9.99923e-01
7.387297469e-01,3.29556e-01,9.99999e-01,9.99999e-01,9.85891e-01,3.34283e-01,9.99964e-01
7.424233956e-01,3.39224e-01,9.99999e-01,9.99999e-01,9.93058e-01,3.41598e-01,9.99992e-01
7.461355126e-01,3.47455e-01,9.99999e-01,9.99999e-01,9.95795e-01,3.48923e-01,9.99998e-01
7.498661902e-01,3.55556e-01,9.99999e-01,9.99999e-01,9.98035e-01,3.56255e-01,9.99999e-01
7.536155211e-01,3.63243e-01,9.99999e-01,9.99999e-01,9.99038e-01,3.63593e-01,9.99999e-01
7.573835987e-01,3.70748e-01,9.99999e-01,9.99999e-01,9.99504e-01,3.70932e-01,9.99999e-01
7.611705167e-01,3.78153e-01,9.99999e-01,9.99999e-01,9.99692e-01,3.78270e-01,9.99999e-01
7.649763693e-01,3.85529e-01,9.99999e-01,9.99999e-01,9.99807e-01,3.85604e-01,9.99999e-01
7.688012511e-01,3.92878e-01,9.99999e-01,9.99999e-01,9.99865e-01,3.92930e-01,9.99999e-01
7.726452574e-01,4.00204e-01,9.99999e-01,9.99999e-01,9.99889e-01,4.00248e-01,9.99999e-01
7.765084837e-01,4.07490e-01,9.99999e-01,9.99999e-01,9.99844e-01,4.07553e-01,9.99999e-01
7.803910261e-01,3.98696e-01,9.99999e-01,9.61697e-01,9.99330e-01,4.14843e-01,9.99998e-01
7.842929812e-01,3.50906e-01,9.99999e-01,8.33140e-01,9.97663e-01,4.22116e-01,9.99995e-01
7.882144461e-01,3.52022e-01,9.99999e-01,8.23693e-01,9.95150e-01,4.29368e-01,9.99969e-01
7.921555184e-01,3.88634e-01,9.99999e-01,8.92512e-01,9.97324e-01,4.36599e-01,9.99942e-01
7.961162960e-01,4.09088e-01,9.99999e-01,9.26103e-01,9.95327e-01,4.43805e-01,9.99944e-01
8.000968774e-01,4.30265e-01,9.99999e-01,9.59302e-01,9.94573e-01,4.50984e-01,9.99940e-01
8.040973618e-01,4.45893e-01,9.99999e-01,9.78619e-01,9.94579e-01,4.58133e-01,9.99953e-01
8.081178486e-01,4.55092e-01,9.99999e-01,9.90170e-01,9.87895e-01,4.65252e-01,9.99955e-01
8.121584379e-01,4.47452e-01,9.99999e-01,9.96928e-01,9.50359e-01,4.72337e-01,9.99828e-01
8.162192301e-01,4.50403e-01,9.99999e-01,9.99320e-01,9.40767e-01,4.79387e-01,9.99355e-01
8.203003262e-01,4.71726e-01,9.99999e-01,9.99988e-01,9.70571e-01,4.86400e-01,9.99245e-01
8.244018279e-01,4.72424e-01,9.99999e-01,9.99999e-01,9.58111e-01,4.93374e-01,9.99399e-01
8.285238370e-01,4.82295e-01,9.99999e-01,9.99999e-01,9.64452e-01,5.00307e-01,9.99528e-01
8.326664562e-01,4.88807e-01,9.99999e-01,9.99999e-01,9.63927e-01,5.07198e-01,9.99804e-01
8.368297885e-01,5.00690e-01,9.99999e-01,9.99999e-01,9.74063e-01,5.14045e-01,9.99954e-01
8.410139374e-01,5.12763e-01,9.99999e-01,9.99999e-01,9.84506e-01,5.20846e-01,9.99973e-01
8.452190071e-01,5.23566e-01,9.99999e-01,9.99999e-01,9.92367e-01,5.27601e-01,9.99983e-01
8.494451021e-01,5.31939e-01,9.99999e-01,9.99999e-01,9.95581e-01,5.34306e-01,9.99987e-01
8.536923276e-01,5.39539e-01,9.99999e-01,9.99999e-01,9.97376e-01,5.40963e-01,9.99991e-01
8.579607893e-01,5.46684e-01,9.99999e-01,9.99999e-01,9.98388e-01,5.47568e-01,9.99997e-01
8.622505932e-01,5.53552e-01,9.99999e-01,9.99999e-01,9.98973e-01,5.54121e-01,9.99999e-01
8.665618462e-01,5.15209e-01,9.99999e-01,9.19555e-01,9.99367e-01,5.60620e-01,9.99999e-01
8.708946554e-01,3.58057e-01,9.99999e-01,6.31858e-01,9.99277e-01,5.67065e-01,9.99999e-01
8.752491287e-01,3.94577e-01,9.99999e-01,6.88713e-01,9.99032e-01,5.73455e-01,9.99998e-01
8.796253743e-01,4.71308e-01,9.99999e-01,8.13946e-01,9.98664e-01,5.79789e-01,9.99996e-01
8.840235012e-01,5.25858e-01,9.99999e-01,8.98624e-01,9.98473e-01,5.86065e-01,9.99990e-01
8.884436187e-01,5.64656e-01,9.99999e-01,9.58557e-01,9.94535e-01,5.92283e-01,9.99973e-01
8.928858368e-01,5.54873e-01,9.99999e-01,9.83048e-01,9.43161e-01,5.98443e-01,9.99846e-01
8.973502660e-01,5.41909e-01,9.99999e-01,9.95830e-01,9.00762e-01,6.04542e-01,9.99215e-01
9.018370173e-01,5.77672e-01,9.99999e-01,9.99538e-01,9.47688e-01,6.10582e-01,9.98767e-01
9.063462024e-01,5.81442e-01,9.99999e-01,9.88627e-01,9.54511e-01,6.16561e-01,9.98917e-01
9.108779334e-01,5.62878e-01,9.99999e-01,9.73428e-01,9.29613e-01,6.22479e-01,9.98875e-01
9.154323231e-01,5.74120e-01,9.99999e-01,9.93640e-01,9.20267e-01,6.28335e-01,9.99070e-01
9.200094847e-01,5.45310e-01,9.99999e-01,9.14686e-01,9.36856e-01,6.34129e-01,9.99479e-01
9.246095321e-01,5.08789e-01,9.99999e-01,8.76690e-01,9.05089e-01,6.39860e-01,9.99400e-01
9.292325798e-01,3.01332e-01,9.99999e-01,9.03129e-01,5.11809e-01,6.45528e-01,9.97663e-01
9.338787427e-01,2.47344e-01,9.99999e-01,9.05219e-01,4.18604e-01,6.51133e-01,9.90378e-01
9.385481364e-01,4.26370e-01,9.99999e-01,9.29401e-01,7.03163e-01,6.56675e-01,9.88567e-01
9.432408771e-01,3.88183e-01,9.99999e-01,9.56003e-01,6.17567e-01,6.62153e-01,9.90128e-01
9.479570815e-01,3.34414e-01,9.99999e-01,9.77248e-01,5.16033e-01,6.67567e-01,9.91958e-01
9.526968669e-01,4.00772e-01,9.99999e-01,9.88947e-01,6.04513e-01,6.72917e-01,9.95087e-01
9.574603512e-01,4.22465e-01,9.99999e-01,9.95256e-01,6.27220e-01,6.78203e-01,9.97501e-01
9.622476530e-01,4.65136e-01,9.99999e-01,9.98516e-01,6.82715e-01,6.83424e-01,9.98271e-01
9.670588912e-01,5.51756e-01,9.99999e-01,9.99554e-01,8.02577e-01,6.88582e-01,9.98817e-01
9.718941857e-01,6.03901e-01,9.99999e-01,9.99967e-01,8.71365e-01,6.93676e-01,9.99129e-01
9.767536566e-01,6.22838e-01,9.99999e-01,9.99999e-01,8.92010e-01,6.98705e-01,9.99334e-01
9.816374249e-01,6.46231e-01,9.99999e-01,9.99999e-01,9.18582e-01,7.03671e-01,9.99769e-01
9.865456120e-01,6.71909e-01,9.99999e-01,9.99999e-01,9.48302e-01,7.08573e-01,9.99951e-01
9.914783401e-01,6.90388e-01,9.99999e-01,9.99999e-01,9.67741e-01,7.13411e-01,9.99986e-01
9.964357318e-01,7.05468e-01,9.99999e-01,9.99999e-01,9.82298e-01,7.18186e-01,9.99991e-01
1.001417910e+00,7.15191e-01,9.99999e-01,9.99999e-01,9.89352e-01,7.22897e-01,9.99987e-01
1.006425000e+00,7.23117e-01,9.99999e-01,9.99999e-01,9.93929e-01,7.27545e-01,9.99982e-01
1.011457125e+00,7.29351e-01,9.99999e-01,9.99999e-01,9.96218e-01,7.32131e-01,9.99983e-01
1.016514411e+00,7.34757e-01,9.99999e-01,9.99999e-01,9.97435e-01,7.36653e-01,9.99988e-01
1.021596983e+00,7.39552e-01,9.99999e-01,9.99944e-01,9.97957e-01,7.41114e-01,9.99988e-01
1.026704968e+00,7.41019e-01,9.99999e-01,9.95561e-01,9.98407e-01,7.45513e-01,9.99992e-01
1.031838492e+00,7.13783e-01,9.99999e-01,9.52973e-01,9.98840e-01,7.49850e-01,9.99997e-01
1.036997685e+00,9.81010e-02,9.99999e-01,1.30156e-01,9.99312e-01,7.54126e-01,9.99999e-01
1.042182673e+00,6.04386e-02,9.99999e-01,7.97549e-02,9.99182e-01,7.58341e-01,9.99999e-01
1.047393587e+00,8.09568e-02,9.99999e-01,1.06274e-01,9.98914e-01,7.62496e-01,9.99999e-01
1.052630555e+00,1.20485e-03,9.99999e-01,1.57337e-03,9.98512e-01,7.66591e-01,9.99999e-01
1.057893707e+00,3.30470e-03,9.99999e-01,4.29517e-03,9.97522e-01,7.70627e-01,9.99998e-01
1.063183176e+00,1.36622e-02,9.99999e-01,1.76875e-02,9.95920e-01,7.74603e-01,9.99997e-01
1.068499092e+00,4.54959e-02,9.99999e-01,5.87674e-02,9.93167e-01,7.78521e-01,9.99994e-01
1.073841587e+00,1.28602e-01,9.99999e-01,1.65472e-01,9.92022e-01,7.82380e-01,9.99989e-01
1.079210795e+00,2.49305e-01,9.99999e-01,3.20052e-01,9.89753e-01,7.86182e-01,9.99972e-01
1.084606849e+00,4.14385e-01,9.99999e-01,5.32392e-01,9.84552e-01,7.89926e-01,9.99933e-01
1.090029883e+00,5.59831e-01,9.99999e-01,7.20859e-01,9.78005e-01,7.93614e-01,9.99862e-01
1.095480033e+00,6.38695e-01,9.99999e-01,8.50814e-01,9.41086e-01,7.97246e-01,9.99752e-01
1.100957433e+00,6.35355e-01,9.99999e-01,9.25092e-01,8.57183e-01,8.00823e-01,9.99545e-01
1.106462220e+00,5.28228e-01,9.99999e-01,9.68275e-01,6.77841e-01,8.04344e-01,9.99228e-01
1.111994531e+00,3.52188e-01,9.99999e-01,9.88122e-01,4.41684e-01,8.07810e-01,9.97954e-01
1.117554504e+00,2.15626e-01,9.99999e-01,9.97074e-01,2.68391e-01,8.11223e-01,9.92635e-01
1.123142276e+00,3.07962e-01,9.99999e-01,9.99806e-01,3.84777e-01,8.14582e-01,9.82623e-01
1.128757988e+00,4.31687e-01,9.99999e-01,9.99999e-01,5.38618e-01,8.17889e-01,9.79925e-01
1.134401778e+00,2.29688e-01,9.99999e-01,9.99999e-01,2.84698e-01,8.21143e-01,9.82503e-01
1.140073787e+00,5.60028e-01,9.99999e-01,9.99999e-01,6.89036e-01,8.24345e-01,9.85955e-01
1.145774156e+00,3.78202e-01,9.99999e-01,9.99999e-01,4.62843e-01,8.27497e-01,9.87468e-01
1.151503026e+00,3.51307e-01,9.99999e-01,9.99999e-01,4.25939e-01,8.30597e-01,9.92999e-01
1.157260541e+00,4.03466e-01,9.99999e-01,9.99999e-01,4.84994e-01,8.33648e-01,9.97901e-01
1.163046844e+00,4.88580e-01,9.99999e-01,9.99999e-01,5.84320e-01,8.36649e-01,9.99404e-01
1.168862078e+00,5.76711e-01,9.99999e-01,9.99999e-01,6.87096e-01,8.39602e-01,9.99692e-01
1.174706389e+00,6.68066e-01,9.99999e-01,9.99999e-01,7.93272e-01,8.42506e-01,9.99593e-01
1.180579921e+00,7.33576e-01,9.99999e-01,9.99999e-01,8.68297e-01,8.45363e-01,9.99384e-01
1.186482820e+00,7.82636e-01,9.99999e-01,9.99993e-01,9.23318e-01,8.48173e-01,9.99368e-01
1.192415234e+00,7.99367e-01,9.99999e-01,9.84387e-01,9.54542e-01,8.50936e-01,9.99527e-01
1.198377311e+00,4.60179e-01,9.99999e-01,5.57246e-01,9.61618e-01,8.53654e-01,9.99553e-01
1.204369197e+00,4.02621e-13,9.99999e-01,4.80534e-13,9.63620e-01,8.56326e-01,9.99595e-01
1.210391043e+00,6.33541e-49,9.99999e-01,7.52408e-49,9.65169e-01,8.58953e-01,9.99753e-01
1.216442998e+00,1.60188e-42,9.99999e-01,1.89460e-42,9.70231e-01,8.61537e-01,9.99849e-01
1.222525213e+00,6.68627e-42,9.99999e-01,7.83278e-42,9.76766e-01,8.64077e-01,9.99906e-01
1.228637839e+00,1.86069e-32,9.99999e-01,2.17147e-32,9.83822e-01,8.66574e-01,9.99956e-01
