#,Wave/freq,Total,N2,CO2,H2O,Rayleigh,CIA
4.000000000e-01,2.87445e-03,9.99999e-01,9.99999e-01,9.99988e-01,2.87449e-03,9.99999e-01
4.020000000e-01,3.22707e-03,9.99999e-01,9.99999e-01,9.99992e-01,3.22710e-03,9.99999e-01
4.040100000e-01,3.61425e-03,9.99999e-01,9.99999e-01,9.99996e-01,3.61426e-03,9.99999e-01
4.060300500e-01,4.03881e-03,9.99999e-01,9.99999e-01,9.99998e-01,4.03882e-03,9.99999e-01
4.080602003e-01,4.50336e-03,9.99999e-01,9.99999e-01,9.99999e-01,4.50336e-03,9.99999e-01
4.101005013e-01,5.01055e-03,9.99999e-01,9.99999e-01,9.99999e-01,5.01055e-03,9.99999e-01
4.121510038e-01,5.56311e-03,9.99999e-01,9.99999e-01,9.99999e-01,5.56311e-03,9.99999e-01
4.142117588e-01,6.16385e-03,9.99999e-01,9.99999e-01,9.99996e-01,6.16387e-03,9.99999e-01
4.162828176e-01,6.81559e-03,9.99999e-01,9.99999e-01,9.99985e-01,6.81568e-03,9.99999e-01
4.183642317e-01,7.52141e-03,9.99999e-01,9.99999e-01,9.99991e-01,7.52147e-03,9.99999e-01
4.204560528e-01,8.28417e-03,9.99999e-01,9.99999e-01,9.99994e-01,8.28421e-03,9.99999e-01
4.225583331e-01,9.10689e-03,9.99999e-01,9.99999e-01,9.99997e-01,9.10691e-03,9.99999e-01
4.246711247e-01,9.99258e-03,9.99999e-01,9.99999e-01,9.99997e-01,9.99260e-03,9.99999e-01
4.267944804e-01,1.09443e-02,9.99999e-01,9.99999e-01,9.99997e-01,1.09443e-02,9.99999e-01
4.289284528e-01,1.19652e-02,9.99999e-01,9.99999e-01,9.99997e-01,1.19652e-02,9.99999e-01
4.310730950e-01,1.30583e-02,9.99999e-01,9.99999e-01,9.99998e-01,1.30583e-02,9.99999e-01
4.332284605e-01,1.42266e-02,9.99999e-01,9.99999e-01,9.99999e-01,1.42266e-02,9.99999e-01
4.353946028e-01,1.54733e-02,9.99999e-01,9.99999e-01,9.99999e-01,1.54733e-02,9.99999e-01
4.375715758e-01,1.68013e-02,9.99999e-01,9.99999e-01,9.99998e-01,1.68013e-02,9.99999e-01
4.397594337e-01,1.82134e-02,9.99999e-01,9.99999e-01,9.99987e-01,1.82137e-02,9.99999e-01
4.419582309e-01,1.97120e-02,9.99999e-01,9.99999e-01,9.99937e-01,1.97133e-02,9.99999e-01
4.441680220e-01,2.13020e-02,9.99999e-01,9.99999e-01,9.99950e-01,2.13030e-02,9.99999e-01
4.463888621e-01,2.29846e-02,9.99999e-01,9.99999e-01,9.99948e-01,2.29858e-02,9.99999e-01
4.486208064e-01,2.47634e-02,9.99999e-01,9.99999e-01,9.99968e-01,2.47642e-02,9.99999e-01
4.508639105e-01,2.66406e-02,9.99999e-01,9.99999e-01,9.99984e-01,2.66410e-02,9.99999e-01
4.531182300e-01,2.86185e-02,9.99999e-01,9.99999e-01,9.99993e-01,2.86187e-02,9.99999e-01
4.553838212e-01,3.06996e-02,9.99999e-01,9.99999e-01,9.99995e-01,3.06997e-02,9.99999e-01
4.576607403e-01,3.28864e-02,9.99999e-01,9.99999e-01,9.99997e-01,3.28865e-02,9.99999e-01
4.599490440e-01,3.51811e-02,9.99999e-01,9.99999e-01,9.99998e-01,3.51811e-02,9.99999e-01
4.622487892e-01,3.75858e-02,9.99999e-01,9.99999e-01,9.99999e-01,3.75858e-02,9.99999e-01
4.645600332e-01,4.01024e-02,9.99999e-01,9.99999e-01,9.99998e-01,4.01024e-02,9.99999e-01
4.668828333e-01,4.27322e-02,9.99999e-01,9.99999e-01,9.99984e-01,4.27328e-02,9.99999e-01
4.692172475e-01,4.54772e-02,9.99999e-01,9.99999e-01,9.99967e-01,4.54786e-02,9.99999e-01
4.715633337e-01,4.83403e-02,9.99999e-01,9.99999e-01,9.99978e-01,4.83413e-02,9.99999e-01
4.739211504e-01,5.13213e-02,9.99999e-01,9.99999e-01,9.99979e-01,5.13224e-02,9.99999e-01
4.762907561e-01,5.44223e-02,9.99999e-01,9.99999e-01,9.99989e-01,5.44229e-02,9.99999e-01
4.786722099e-01,5.76436e-02,9.99999e-01,9.99999e-01,9.99995e-01,5.76438e-02,9.99999e-01
4.810655710e-01,6.09860e-02,9.99999e-01,9.99999e-01,9.99998e-01,6.09861e-02,9.99999e-01
4.834708988e-01,6.44496e-02,9.99999e-01,9.99999e-01,9.99987e-01,6.44504e-02,9.99999e-01
4.858882533e-01,6.80357e-02,9.99999e-01,9.99999e-01,9.99977e-01,6.80372e-02,9.99999e-01
4.883176946e-01,7.17455e-02,9.99999e-01,9.99999e-01,9.99980e-01,7.17468e-02,9.99999e-01
4.907592831e-01,7.55781e-02,9.99999e-01,9.99999e-01,9.99982e-01,7.55794e-02,9.99999e-01
4.932130795e-01,7.95339e-02,9.99999e-01,9.99999e-01,9.99987e-01,7.95349e-02,9.99999e-01
4.956791449e-01,8.36126e-02,9.99999e-01,9.99999e-01,9.99993e-01,8.36131e-02,9.99999e-01
4.981575406e-01,8.78108e-02,9.99999e-01,9.99999e-01,9.99967e-01,8.78136e-02,9.99999e-01
5.006483283e-01,9.21283e-02,9.99999e-01,9.99999e-01,9.99917e-01,9.21360e-02,9.99998e-01
5.031515699e-01,9.65385e-02,9.99999e-01,9.99999e-01,9.99580e-01,9.65794e-02,9.99995e-01
5.056673278e-01,1.01120e-01,9.99999e-01,9.99999e-01,9.99778e-01,1.01143e-01,9.99994e-01
5.081956644e-01,1.05796e-01,9.99999e-01,9.99999e-01,9.99720e-01,1.05826e-01,9.99996e-01
5.107366428e-01,1.10605e-01,9.99999e-01,9.99999e-01,9.99811e-01,1.10626e-01,9.99998e-01
5.132903260e-01,1.15530e-01,9.99999e-01,9.99999e-01,9.99891e-01,1.15543e-01,9.99999e-01
5.158567776e-01,1.20569e-01,9.99999e-01,9.99999e-01,9.99954e-01,1.20575e-01,9.99999e-01
5.184360615e-01,1.25718e-01,9.99999e-01,9.99999e-01,9.99981e-01,1.25720e-01,9.99999e-01
5.210282418e-01,1.30975e-01,9.99999e-01,9.99999e-01,9.99992e-01,1.30976e-01,9.99999e-01
5.236333830e-01,1.36339e-01,9.99999e-01,9.99999e-01,9.99972e-01,1.36342e-01,9.99999e-01
5.262515499e-01,1.41813e-01,9.99999e-01,9.99999e-01,9.99982e-01,1.41815e-01,9.99999e-01
5.288828077e-01,1.47391e-01,9.99999e-01,9.99999e-01,9.99983e-01,1.47394e-01,9.99999e-01
5.315272217e-01,1.53073e-01,9.99999e-01,9.99999e-01,9.99985e-01,1.53075e-01,9.99999e-01
5.341848578e-01,1.58855e-01,9.99999e-01,9.99999e-01,9.99990e-01,1.58856e-01,9.99999e-01
5.368557821e-01,1.64730e-01,9.99999e-01,9.99999e-01,9.99967e-01,1.64735e-01,9.99999e-01
5.395400610e-01,1.70689e-01,9.99999e-01,9.99999e-01,9.99885e-01,1.70709e-01,9.99998e-01
5.422377613e-01,1.76749e-01,9.99999e-01,9.99999e-01,9.99851e-01,1.76775e-01,9.99996e-01
5.449489501e-01,1.82905e-01,9.99999e-01,9.99999e-01,9.99861e-01,1.82931e-01,9.99996e-01
5.476736949e-01,1.89149e-01,9.99999e-01,9.99999e-01,9.99877e-01,1.89173e-01,9.99998e-01
5.504120634e-01,1.95481e-01,9.99999e-01,9.99999e-01,9.99910e-01,1.95498e-01,9.99999e-01
5.531641237e-01,2.01894e-01,9.99999e-01,9.99999e-01,9.99954e-01,2.01903e-01,9.99999e-01
5.559299443e-01,2.08382e-01,9.99999e-01,9.99999e-01,9.99977e-01,2.08386e-01,9.99999e-01
5.587095940e-01,2.14940e-01,9.99999e-01,9.99999e-01,9.99986e-01,2.14943e-01,9.99999e-01
5.615031420e-01,2.21567e-01,9.99999e-01,9.99999e-01,9.99984e-01,2.21570e-01,9.99999e-01
5.643106577e-01,2.28261e-01,9.99999e-01,9.99999e-01,9.99982e-01,2.28265e-01,9.99999e-01
5.671322110e-01,2.34975e-01,9.99999e-01,9.99999e-01,9.99792e-01,2.35024e-01,9.99997e-01
5.699678720e-01,2.41788e-01,9.99999e-01,9.99999e-01,9.99779e-01,2.41843e-01,9.99993e-01
5.728177114e-01,2.48662e-01,9.99999e-01,9.99999e-01,9.99770e-01,2.48720e-01,9.99994e-01
5.756818000e-01,2.55596e-01,9.99999e-01,9.99999e-01,9.99789e-01,2.55650e-01,9.99996e-01
5.785602090e-01,2.62583e-01,9.99999e-01,9.99999e-01,9.99816e-01,2.62632e-01,9.99998e-01
5.814530100e-01,2.69610e-01,9.99999e-01,9.99999e-01,9.99815e-01,2.69660e-01,9.99999e-01
5.843602750e-01,2.76671e-01,9.99999e-01,9.99999e-01,9.99780e-01,2.76732e-01,9.99998e-01
5.872820764e-01,2.83303e-01,9.99999e-01,9.99999e-01,9.98106e-01,2.83844e-01,9.99986e-01
5.902184868e-01,2.90315e-01,9.99999e-01,9.99999e-01,9.97705e-01,2.90993e-01,9.99963e-01
5.931695792e-01,2.97682e-01,9.99999e-01,9.99999e-01,9.98378e-01,2.98176e-01,9.99964e-01
5.961354271e-01,3.04840e-01,9.99999e-01,9.99999e-01,9.98222e-01,3.05389e-01,9.99979e-01
5.991161043e-01,3.12221e-01,9.99999e-01,9.99999e-01,9.98703e-01,3.12628e-01,9.99993e-01
6.021116848e-01,3.19656e-01,9.99999e-01,9.99999e-01,9.99264e-01,3.19891e-01,9.99998e-01
6.051222432e-01,3.27053e-01,9.99999e-01,9.99999e-01,9.99627e-01,3.27175e-01,9.99999e-01
6.081478544e-01,3.34422e-01,9.99999e-01,9.99999e-01,9.99839e-01,3.34476e-01,9.99999e-01
6.111885937e-01,3.41767e-01,9.99999e-01,9.99999e-01,9.99931e-01,3.41790e-01,9.99999e-01
6.142445367e-01,3.49105e-01,9.99999e-01,9.99999e-01,9.99969e-01,3.49115e-01,9.99999e-01
6.173157594e-01,3.56442e-01,9.99999e-01,9.99999e-01,9.99982e-01,3.56448e-01,9.99999e-01
6.204023382e-01,3.63780e-01,9.99999e-01,9.99999e-01,9.99985e-01,3.63786e-01,9.99999e-01
6.235043498e-01,3.71102e-01,9.99999e-01,9.99999e-01,9.99937e-01,3.71125e-01,9.99999e-01
6.266218716e-01,3.78337e-01,9.99999e-01,9.99999e-01,9.99669e-01,3.78463e-01,9.99997e-01
6.297549810e-01,3.85748e-01,9.99999e-01,9.99999e-01,9.99878e-01,3.85796e-01,9.99994e-01
6.329037559e-01,3.93027e-01,9.99999e-01,9.99999e-01,9.99760e-01,3.93123e-01,9.99995e-01
6.360682746e-01,4.00358e-01,9.99999e-01,9.99999e-01,9.99795e-01,4.00440e-01,9.99997e-01
6.392486160e-01,4.07637e-01,9.99999e-01,9.99999e-01,9.99735e-01,4.07745e-01,9.99998e-01
6.424448591e-01,4.14887e-01,9.99999e-01,9.99999e-01,9.99646e-01,4.15034e-01,9.99997e-01
6.456570834e-01,4.21611e-01,9.99999e-01,9.99999e-01,9.98360e-01,4.22307e-01,9.99990e-01
6.488853688e-01,4.29032e-01,9.99999e-01,9.99999e-01,9.98798e-01,4.29559e-01,9.99974e-01
6.521297956e-01,4.36244e-01,9.99999e-01,9.99999e-01,9.98774e-01,4.36789e-01,9.99978e-01
6.553904446e-01,4.43446e-01,9.99999e-01,9.99999e-01,9.98781e-01,4.43994e-01,9.99983e-01
6.586673968e-01,4.50699e-01,9.99999e-01,9.99999e-01,9.98955e-01,4.51172e-01,9.99994e-01
6.619607338e-01,4.58044e-01,9.99999e-01,9.99999e-01,9.99396e-01,4.58321e-01,9.99998e-01
6.652705375e-01,4.65276e-01,9.99999e-01,9.99999e-01,9.99650e-01,4.65439e-01,9.99998e-01
6.685968902e-01,4.72446e-01,9.99999e-01,9.99999e-01,9.99837e-01,4.72523e-01,9.99999e-01
6.719398746e-01,4.79536e-01,9.99999e-01,9.99999e-01,9.99924e-01,4.79572e-01,9.99999e-01
6.752995740e-01,4.86564e-01,9.99999e-01,9.99999e-01,9.99958e-01,4.86584e-01,9.99999e-01
6.786760719e-01,4.93528e-01,9.99999e-01,9.99999e-01,9.99940e-01,4.93557e-01,9.99999e-01
6.820694522e-01,5.00438e-01,9.99999e-01,9.99999e-01,9.99898e-01,5.00489e-01,9.99998e-01
6.854797995e-01,5.07312e-01,9.99999e-01,9.99999e-01,9.99869e-01,5.07379e-01,9.99998e-01
6.889071985e-01,5.14062e-01,9.99999e-01,9.99999e-01,9.99685e-01,5.14224e-01,9.99996e-01
6.923517345e-01,5.18340e-01,9.99999e-01,9.99999e-01,9.94871e-01,5.21024e-01,9.99974e-01
6.958134932e-01,5.26337e-01,9.99999e-01,9.99999e-01,9.97325e-01,5.27777e-01,9.99945e-01
6.992925606e-01,5.33101e-01,9.99999e-01,9.99999e-01,9.97464e-01,5.34482e-01,9.99950e-01
7.027890234e-01,5.39422e-01,9.99999e-01,9.99999e-01,9.96868e-01,5.41137e-01,9.99962e-01
7.063029686e-01,5.46289e-01,9.99999e-01,9.99999e-01,9.97367e-01,5.47741e-01,9.99980e-01
7.098344834e-01,5.52886e-01,9.99999e-01,9.99999e-01,9.97474e-01,5.54292e-01,9.99988e-01
7.133836558e-01,5.58892e-01,9.99999e-01,9.99999e-01,9.96636e-01,5.60790e-01,9.99977e-01
7.169505741e-01,5.51892e-01,9.99999e-01,9.99999e-01,9.73119e-01,5.67234e-01,9.99827e-01
7.205353270e-01,5.65852e-01,9.99999e-01,9.99999e-01,9.86753e-01,5.73622e-01,9.99695e-01
7.241380036e-01,5.70082e-01,9.99999e-01,9.99999e-01,9.83234e-01,5.79954e-01,9.99736e-01
7.277586936e-01,5.77228e-01,9.99999e-01,9.99999e-01,9.84856e-01,5.86229e-01,9.99784e-01
7.313974871e-01,5.82855e-01,9.99999e-01,9.99999e-01,9.83910e-01,5.92446e-01,9.99898e-01
7.350544745e-01,5.93310e-01,9.99999e-01,9.99999e-01,9.91190e-01,5.98604e-01,9.99964e-01
7.387297469e-01,6.00771e-01,9.99999e-01,9.99999e-01,9.93514e-01,6.04702e-01,9.99983e-01
7.424233956e-01,6.08798e-01,9.99999e-01,9.99999e-01,9.96823e-01,6.10740e-01,9.99996e-01
7.461355126e-01,6.15530e-01,9.99999e-01,9.99999e-01,9.98074e-01,6.16718e-01,9.99998e-01
7.498661902e-01,6.22075e-01,9.99999e-01,9.99999e-01,9.99102e-01,6.22634e-01,9.99999e-01
7.536155211e-01,6.28212e-01,9.99999e-01,9.99999e-01,9.99559e-01,6.28488e-01,9.99999e-01
7.573835987e-01,6.34137e-01,9.99999e-01,9.99999e-01,9.99773e-01,6.34280e-01,9.99999e-01
7.611705167e-01,6.39920e-01,9.99999e-01,9.99999e-01,9.99858e-01,6.40010e-01,9.99999e-01
7.649763693e-01,6.45619e-01,9.99999e-01,9.99999e-01,9.99911e-01,6.45676e-01,9.99999e-01
7.688012511e-01,6.51240e-01,9.99999e-01,9.99999e-01,9.99938e-01,6.51280e-01,9.99999e-01
7.726452574e-01,6.56786e-01,9.99999e-01,9.99999e-01,9.99949e-01,6.56820e-01,9.99999e-01
7.765084837e-01,6.62248e-01,9.99999e-01,9.99999e-01,9.99927e-01,6.62296e-01,9.99999e-01
7.803910261e-01,6.54435e-01,9.99999e-01,9.80418e-01,9.99689e-01,6.67708e-01,9.99999e-01
7.842929812e-01,6.17466e-01,9.99999e-01,9.18372e-01,9.98918e-01,6.73056e-01,9.99997e-01
7.882144461e-01,6.17719e-01,9.99999e-01,9.12632e-01,9.97770e-01,6.78341e-01,9.99985e-01
7.921555184e-01,6.47739e-01,9.99999e-01,9.48765e-01,9.98776e-01,6.83561e-01,9.99973e-01
7.961162960e-01,6.63494e-01,9.99999e-01,9.65475e-01,9.97839e-01,6.88717e-01,9.99974e-01
8.000968774e-01,6.79017e-01,9.99999e-01,9.81150e-01,9.97504e-01,6.93809e-01,9.99972e-01
8.040973618e-01,6.90244e-01,9.99999e-01,9.90193e-01,9.97503e-01,6.98837e-01,9.99978e-01
8.081178486e-01,6.96677e-01,9.99999e-01,9.95489e-01,9.94377e-01,7.03801e-01,9.99979e-01
8.121584379e-01,6.91178e-01,9.99999e-01,9.98604e-01,9.76705e-01,7.08701e-01,9.99920e-01
8.162192301e-01,6.93395e-01,9.99999e-01,9.99691e-01,9.72355e-01,7.13537e-01,9.99703e-01
8.203003262e-01,7.08071e-01,9.99999e-01,9.99994e-01,9.86090e-01,7.18310e-01,9.99653e-01
8.244018279e-01,7.08738e-01,9.99999e-01,9.99999e-01,9.80516e-01,7.23020e-01,9.99723e-01
8.285238370e-01,7.15469e-01,9.99999e-01,9.99999e-01,9.83450e-01,7.27666e-01,9.99783e-01
8.326664562e-01,7.19926e-01,9.99999e-01,9.99999e-01,9.83256e-01,7.32250e-01,9.99909e-01
8.368297885e-01,7.27939e-01,9.99999e-01,9.99999e-01,9.88031e-01,7.36771e-01,9.99979e-01
8.410139374e-01,7.35942e-01,9.99999e-01,9.99999e-01,9.92877e-01,7.41231e-01,9.99987e-01
8.452190071e-01,7.43015e-01,9.99999e-01,9.99999e-01,9.96503e-01,7.45628e-01,9.99992e-01
8.494451021e-01,7.48438e-01,9.99999e-01,9.99999e-01,9.97971e-01,7.49963e-01,9.99993e-01
8.536923276e-01,7.53330e-01,9.99999e-01,9.99999e-01,9.98799e-01,7.54238e-01,9.99996e-01
8.579607893e-01,7.57891e-01,9.99999e-01,9.99999e-01,9.99260e-01,7.58451e-01,9.99998e-01
8.622505932e-01,7.62247e-01,9.99999e-01,9.99999e-01,9.99530e-01,7.62605e-01,9.99999e-01
8.665618462e-01,7.27826e-01,9.99999e-01,9.49566e-01,9.99709e-01,7.66698e-01,9.99999e-01
8.708946554e-01,6.18924e-01,9.99999e-01,8.03294e-01,9.99667e-01,7.70732e-01,9.99999e-01
8.752491287e-01,6.50333e-01,9.99999e-01,8.39824e-01,9.99555e-01,7.74707e-01,9.99999e-01
8.796253743e-01,7.07618e-01,9.99999e-01,9.09358e-01,9.99384e-01,7.78623e-01,9.99998e-01
8.840235012e-01,7.44509e-01,9.99999e-01,9.52139e-01,9.99296e-01,7.82481e-01,9.99995e-01
8.884436187e-01,7.69276e-01,9.99999e-01,9.80885e-01,9.97436e-01,7.86281e-01,9.99987e-01
8.928858368e-01,7.62832e-01,9.99999e-01,9.92221e-01,9.73181e-01,7.90024e-01,9.99929e-01
8.973502660e-01,7.54660e-01,9.99999e-01,9.98105e-01,9.52926e-01,7.93711e-01,9.99639e-01
9.018370173e-01,7.77341e-01,9.99999e-01,9.99790e-01,9.75667e-01,7.97341e-01,9.99433e-01
9.063462024e-01,7.79269e-01,9.99999e-01,9.94636e-01,9.78612e-01,8.00916e-01,9.99502e-01
9.108779334e-01,7.67884e-01,9.99999e-01,9.87747e-01,9.66819e-01,8.04436e-01,9.99483e-01
9.154323231e-01,7.74988e-01,9.99999e-01,9.97110e-01,9.62417e-01,8.07901e-01,9.99572e-01
9.200094847e-01,7.54454e-01,9.99999e-01,9.57621e-01,9.70414e-01,8.11312e-01,9.99760e-01
9.246095321e-01,7.31720e-01,9.99999e-01,9.41361e-01,9.53775e-01,8.14670e-01,9.99724e-01
9.292325798e-01,5.67758e-01,9.99999e-01,9.53590e-01,7.26395e-01,8.17975e-01,9.98926e-01
9.338787427e-01,5.17774e-01,9.99999e-01,9.55191e-01,6.60965e-01,8.21228e-01,9.95570e-01
9.385481364e-01,6.72122e-01,9.99999e-01,9.66944e-01,8.46606e-01,8.24429e-01,9.94733e-01
9.432408771e-01,6.39151e-01,9.99999e-01,9.79656e-01,7.91404e-01,8.27579e-01,9.95455e-01
9.479570815e-01,5.91479e-01,9.99999e-01,9.89516e-01,7.21998e-01,8.30678e-01,9.96299e-01
9.526968669e-01,6.50160e-01,9.99999e-01,9.94930e-01,7.85347e-01,8.33728e-01,9.97741e-01
9.574603512e-01,6.70196e-01,9.99999e-01,9.97830e-01,8.03569e-01,8.36728e-01,9.98851e-01
9.622476530e-01,7.02218e-01,9.99999e-01,9.99322e-01,8.37505e-01,8.39679e-01,9.99205e-01
9.670588912e-01,7.60327e-01,9.99999e-01,9.99796e-01,9.03044e-01,8.42582e-01,9.99456e-01
9.718941857e-01,7.93140e-01,9.99999e-01,9.99985e-01,9.38529e-01,8.45438e-01,9.99599e-01
9.767536566e-01,8.04505e-01,9.99999e-01,9.99999e-01,9.48722e-01,8.48246e-01,9.99694e-01
9.816374249e-01,8.18392e-01,9.99999e-01,9.99999e-01,9.61774e-01,8.51008e-01,9.99893e-01
9.865456120e-01,8.33185e-01,9.99999e-01,9.99999e-01,9.75962e-01,8.53724e-01,9.99977e-01
9.914783401e-01,8.43617e-01,9.99999e-01,9.99999e-01,9.85084e-01,8.56395e-01,9.99993e-01
9.964357318e-01,8.52020e-01,9.99999e-01,9.99999e-01,9.91851e-01,8.59022e-01,9.99995e-01
1.001417910e+00,8.57387e-01,9.99999e-01,9.99999e-01,9.95110e-01,8.61604e-01,9.99994e-01
1.006425000e+00,8.61726e-01,9.99999e-01,9.99999e-01,9.97210e-01,8.64143e-01,9.99991e-01
1.011457125e+00,8.65132e-01,9.99999e-01,9.99999e-01,9.98267e-01,8.66639e-01,9.99992e-01
1.016514411e+00,8.68066e-01,9.99999e-01,9.99999e-01,9.98823e-01,8.69093e-01,9.99994e-01
1.021596983e+00,8.70659e-01,9.99999e-01,9.99971e-01,9.99062e-01,8.71504e-01,9.99994e-01
1.026704968e+00,8.71413e-01,9.99999e-01,9.97913e-01,9.99268e-01,8.73875e-01,9.99996e-01
1.031838492e+00,8.50069e-01,9.99999e-01,9.70674e-01,9.99468e-01,8.76205e-01,9.99998e-01
1.036997685e+00,2.25527e-01,9.99999e-01,2.56786e-01,9.99684e-01,8.78496e-01,9.99999e-01
1.042182673e+00,2.58425e-01,9.99999e-01,2.93519e-01,9.99623e-01,8.80746e-01,9.99999e-01
1.047393587e+00,2.48172e-01,9.99999e-01,2.81195e-01,9.99501e-01,8.82958e-01,9.99999e-01
1.052630555e+00,2.90087e-02,9.99999e-01,3.27909e-02,9.99315e-01,8.85132e-01,9.99999e-01
1.057893707e+00,5.74026e-02,9.99999e-01,6.47526e-02,9.98857e-01,8.87268e-01,9.99999e-01
1.063183176e+00,1.21493e-01,9.99999e-01,1.36811e-01,9.98120e-01,8.89366e-01,9.99998e-01
1.068499092e+00,2.33527e-01,9.99999e-01,2.62713e-01,9.96852e-01,8.91429e-01,9.99997e-01
1.073841587e+00,3.83232e-01,9.99999e-01,4.30363e-01,9.96316e-01,8.93454e-01,9.99994e-01
1.079210795e+00,5.23562e-01,9.99999e-01,5.87329e-01,9.95281e-01,8.95445e-01,9.99986e-01
1.084606849e+00,6.66274e-01,9.99999e-01,7.47664e-01,9.92863e-01,8.97400e-01,9.99969e-01
1.090029883e+00,7.65760e-01,9.99999e-01,8.60210e-01,9.89762e-01,8.99321e-01,9.99936e-01
1.095480033e+00,8.13712e-01,9.99999e-01,9.28547e-01,9.72336e-01,9.01208e-01,9.99886e-01
1.100957433e+00,8.11338e-01,9.99999e-01,9.64961e-01,9.31055e-01,9.03062e-01,9.99790e-01
1.106462220e+00,7.42802e-01,9.99999e-01,9.85364e-01,8.33116e-01,9.04882e-01,9.99645e-01
1.111994531e+00,6.12589e-01,9.99999e-01,9.94551e-01,6.79828e-01,9.06671e-01,9.99059e-01
1.117554504e+00,4.82940e-01,9.99999e-01,9.98667e-01,5.34060e-01,9.08427e-01,9.96611e-01
1.123142276e+00,5.65535e-01,9.99999e-01,9.99912e-01,6.26420e-01,9.10152e-01,9.91983e-01
1.128757988e+00,6.71839e-01,9.99999e-01,9.99999e-01,7.43682e-01,9.11846e-01,9.90731e-01
1.134401778e+00,4.52498e-01,9.99999e-01,9.99999e-01,4.99277e-01,9.13510e-01,9.92113e-01
1.140073787e+00,7.63448e-01,9.99999e-01,9.99999e-01,8.39532e-01,9.15143e-01,9.93693e-01
1.145774156e+00,6.30760e-01,9.99999e-01,9.99999e-01,6.92036e-01,9.16748e-01,9.94226e-01
1.151503026e+00,6.06233e-01,9.99999e-01,9.99999e-01,6.62284e-01,9.18323e-01,9.96779e-01
1.157260541e+00,6.54717e-01,9.99999e-01,9.99999e-01,7.12435e-01,9.19870e-01,9.99035e-01
1.163046844e+00,7.17323e-01,9.99999e-01,9.99999e-01,7.78736e-01,9.21389e-01,9.99726e-01
1.168862078e+00,7.76245e-01,9.99999e-01,9.99999e-01,8.41229e-01,9.22880e-01,9.99858e-01
1.174706389e+00,8.30677e-01,9.99999e-01,9.99999e-01,8.98833e-01,9.24344e-01,9.99812e-01
1.180579921e+00,8.67369e-01,9.99999e-01,9.99999e-01,9.37168e-01,9.25781e-01,9.99717e-01
1.186482820e+00,8.93594e-01,9.99999e-01,9.99995e-01,9.64045e-01,9.27193e-01,9.99709e-01
1.192415234e+00,9.02010e-01,9.99999e-01,9.92518e-01,9.78875e-01,9.28578e-01,9.99782e-01
1.198377311e+00,5.30933e-01,9.99999e-01,5.79741e-01,9.82167e-01,9.29938e-01,9.99794e-01
1.204369197e+00,3.06073e-07,9.99999e-01,3.31967e-07,9.83106e-01,9.31273e-01,9.99814e-01
1.210391043e+00,1.11269e-23,9.99999e-01,1.20409e-23,9.83844e-01,9.32584e-01,9.99886e-01
1.216442998e+00,9.73133e-21,9.99999e-01,1.05107e-20,9.86238e-01,9.33871e-01,9.99930e-01
1.222525213e+00,1.91954e-20,9.99999e-01,2.06429e-20,9.89276e-01,9.35134e-01,9.99956e-01
1.228637839e+00,9.25872e-16,9.99999e-01,9.94064e-16,9.92543e-01,9.36373e-01,9.99979e-01
