#,Wave/freq,Total,N2,CO2,H2O,Rayleigh,CIA
4.000000000e-01,6.09666e-27,9.99999e-01,9.99999e-01,9.99883e-01,6.09737e-27,9.99999e-01
4.020000000e-01,2.01118e-26,9.99999e-01,9.99999e-01,9.99927e-01,2.01133e-26,9.99999e-01
4.040100000e-01,6.47201e-26,9.99999e-01,9.99999e-01,9.99969e-01,6.47220e-26,9.99999e-01
4.060300500e-01,2.03514e-25,9.99999e-01,9.99999e-01,9.99992e-01,2.03515e-25,9.99999e-01
4.080602003e-01,6.25622e-25,9.99999e-01,9.99999e-01,9.99997e-01,6.25623e-25,9.99999e-01
4.101005013e-01,1.88103e-24,9.99999e-01,9.99999e-01,9.99999e-01,1.88103e-24,9.99999e-01
4.121510038e-01,5.53392e-24,9.99999e-01,9.99999e-01,9.99995e-01,5.53395e-24,9.99999e-01
4.142117588e-01,1.59369e-23,9.99999e-01,9.99999e-01,9.99967e-01,1.59374e-23,9.99999e-01
4.162828176e-01,4.49432e-23,9.99999e-01,9.99999e-01,9.99855e-01,4.49497e-23,9.99999e-01
4.183642317e-01,1.24195e-22,9.99999e-01,9.99999e-01,9.99914e-01,1.24205e-22,9.99999e-01
4.204560528e-01,3.36366e-22,9.99999e-01,9.99999e-01,9.99947e-01,3.36384e-22,9.99999e-01
4.225583331e-01,8.93254e-22,9.99999e-01,9.99999e-01,9.99979e-01,8.93272e-22,9.99999e-01
4.246711247e-01,2.32674e-21,9.99999e-01,9.99999e-01,9.99983e-01,2.32677e-21,9.99999e-01
4.267944804e-01,5.94705e-21,9.99999e-01,9.99999e-01,9.99976e-01,5.94719e-21,9.99999e-01
4.289284528e-01,1.49215e-20,9.99999e-01,9.99999e-01,9.99981e-01,1.49217e-20,9.99999e-01
4.310730950e-01,3.67648e-20,9.99999e-01,9.99999e-01,9.99991e-01,3.67651e-20,9.99999e-01
4.332284605e-01,8.89847e-20,9.99999e-01,9.99999e-01,9.99997e-01,8.89849e-20,9.99999e-01
4.353946028e-01,2.11648e-19,9.99999e-01,9.99999e-01,9.99998e-01,2.11648e-19,9.99999e-01
4.375715758e-01,4.94850e-19,9.99999e-01,9.99999e-01,9.99985e-01,4.94857e-19,9.99999e-01
4.397594337e-01,1.13764e-18,9.99999e-01,9.99999e-01,9.99873e-01,1.13778e-18,9.99999e-01
4.419582309e-01,2.57168e-18,9.99999e-01,9.99999e-01,9.99357e-01,2.57334e-18,9.99999e-01
4.441680220e-01,5.72421e-18,9.99999e-01,9.99999e-01,9.99499e-01,5.72707e-18,9.99999e-01
4.463888621e-01,1.25395e-17,9.99999e-01,9.99999e-01,9.99478e-01,1.25460e-17,9.99999e-01
4.486208064e-01,2.70528e-17,9.99999e-01,9.99999e-01,9.99676e-01,2.70615e-17,9.99999e-01
4.508639105e-01,5.74829e-17,9.99999e-01,9.99999e-01,9.99848e-01,5.74916e-17,9.99999e-01
4.531182300e-01,1.20328e-16,9.99999e-01,9.99999e-01,9.99939e-01,1.20335e-16,9.99999e-01
4.553838212e-01,2.48214e-16,9.99999e-01,9.99999e-01,9.99958e-01,2.48224e-16,9.99999e-01
4.576607403e-01,5.04751e-16,9.99999e-01,9.99999e-01,9.99980e-01,5.04760e-16,9.99999e-01
4.599490440e-01,1.01212e-15,9.99999e-01,9.99999e-01,9.99986e-01,1.01213e-15,9.99999e-01
4.622487892e-01,2.00180e-15,9.99999e-01,9.99999e-01,9.99997e-01,2.00180e-15,9.99999e-01
4.645600332e-01,3.90616e-15,9.99999e-01,9.99999e-01,9.99990e-01,3.90620e-15,9.99999e-01
4.668828333e-01,7.52118e-15,9.99999e-01,9.99999e-01,9.99846e-01,7.52233e-15,9.99999e-01
4.692172475e-01,1.42951e-14,9.99999e-01,9.99999e-01,9.99672e-01,1.42998e-14,9.99999e-01
4.715633337e-01,2.68351e-14,9.99999e-01,9.99999e-01,9.99786e-01,2.68408e-14,9.99999e-01
4.739211504e-01,4.97476e-14,9.99999e-01,9.99999e-01,9.99795e-01,4.97578e-14,9.99999e-01
4.762907561e-01,9.11140e-14,9.99999e-01,9.99999e-01,9.99893e-01,9.11236e-14,9.99999e-01
4.786722099e-01,1.64889e-13,9.99999e-01,9.99999e-01,9.99956e-01,1.64896e-13,9.99999e-01
4.810655710e-01,2.94915e-13,9.99999e-01,9.99999e-01,9.99986e-01,2.94919e-13,9.99999e-01
4.834708988e-01,5.21378e-13,9.99999e-01,9.99999e-01,9.99874e-01,5.21443e-13,9.99999e-01
4.858882533e-01,9.11427e-13,9.99999e-01,9.99999e-01,9.99768e-01,9.11638e-13,9.99999e-01
4.883176946e-01,1.57602e-12,9.99999e-01,9.99999e-01,9.99806e-01,1.57632e-12,9.99999e-01
4.907592831e-01,2.69585e-12,9.99999e-01,9.99999e-01,9.99824e-01,2.69632e-12,9.99999e-01
4.932130795e-01,4.56287e-12,9.99999e-01,9.99999e-01,9.99875e-01,4.56344e-12,9.99999e-01
4.956791449e-01,7.64312e-12,9.99999e-01,9.99999e-01,9.99933e-01,7.64363e-12,9.99999e-01
4.981575406e-01,1.26689e-11,9.99999e-01,9.99999e-01,9.99670e-01,1.26731e-11,9.99999e-01
5.006483283e-01,2.07852e-11,9.99999e-01,9.99999e-01,9.99147e-01,2.08030e-11,9.99993e-01
5.031515699e-01,3.36687e-11,9.99999e-01,9.99999e-01,9.95691e-01,3.38159e-11,9.99954e-01
5.056673278e-01,5.43168e-11,9.99999e-01,9.99999e-01,9.97724e-01,5.44435e-11,9.99947e-01
5.081956644e-01,8.65813e-11,9.99999e-01,9.99999e-01,9.97129e-01,8.68334e-11,9.99966e-01
5.107366428e-01,1.36955e-10,9.99999e-01,9.99999e-01,9.98061e-01,1.37222e-10,9.99993e-01
5.132903260e-01,2.14660e-10,9.99999e-01,9.99999e-01,9.98891e-01,2.14898e-10,9.99998e-01
5.158567776e-01,3.33420e-10,9.99999e-01,9.99999e-01,9.99531e-01,3.33576e-10,9.99999e-01
5.184360615e-01,5.13221e-10,9.99999e-01,9.99999e-01,9.99812e-01,5.13317e-10,9.99999e-01
5.210282418e-01,7.83156e-10,9.99999e-01,9.99999e-01,9.99929e-01,7.83210e-10,9.99999e-01
5.236333830e-01,1.18474e-09,9.99999e-01,9.99999e-01,9.99718e-01,1.18508e-09,9.99997e-01
5.262515499e-01,1.77822e-09,9.99999e-01,9.99999e-01,9.99823e-01,1.77854e-09,9.99996e-01
5.288828077e-01,2.64743e-09,9.99999e-01,9.99999e-01,9.99838e-01,2.64786e-09,9.99997e-01
5.315272217e-01,3.91069e-09,9.99999e-01,9.99999e-01,9.99857e-01,3.91124e-09,9.99999e-01
5.341848578e-01,5.73254e-09,9.99999e-01,9.99999e-01,9.99906e-01,5.73307e-09,9.99999e-01
5.368557821e-01,8.33752e-09,9.99999e-01,9.99999e-01,9.99671e-01,8.34026e-09,9.99998e-01
5.395400610e-01,1.20292e-08,9.99999e-01,9.99999e-01,9.98816e-01,1.20436e-08,9.99989e-01
5.422377613e-01,1.72387e-08,9.99999e-01,9.99999e-01,9.98472e-01,1.72656e-08,9.99971e-01
5.449489501e-01,2.45406e-08,9.99999e-01,9.99999e-01,9.98578e-01,2.45763e-08,9.99970e-01
5.476736949e-01,3.46952e-08,9.99999e-01,9.99999e-01,9.98742e-01,3.47394e-08,9.99985e-01
5.504120634e-01,4.87260e-08,9.99999e-01,9.99999e-01,9.99086e-01,4.87707e-08,9.99995e-01
5.531641237e-01,6.79808e-08,9.99999e-01,9.99999e-01,9.99540e-01,6.80121e-08,9.99998e-01
5.559299443e-01,9.42029e-08,9.99999e-01,9.99999e-01,9.99777e-01,9.42237e-08,9.99999e-01
5.587095940e-01,1.29681e-07,9.99999e-01,9.99999e-01,9.99860e-01,1.29699e-07,9.99999e-01
5.615031420e-01,1.77381e-07,9.99999e-01,9.99999e-01,9.99844e-01,1.77409e-07,9.99999e-01
5.643106577e-01,2.41128e-07,9.99999e-01,9.99999e-01,9.99823e-01,2.41170e-07,9.99998e-01
5.671322110e-01,3.25164e-07,9.99999e-01,9.99999e-01,9.97863e-01,3.25866e-07,9.99980e-01
5.699678720e-01,4.36680e-07,9.99999e-01,9.99999e-01,9.97733e-01,4.37697e-07,9.99941e-01
5.728177114e-01,5.83079e-07,9.99999e-01,9.99999e-01,9.97637e-01,5.84488e-07,9.99951e-01
5.756818000e-01,7.74358e-07,9.99999e-01,9.99999e-01,9.97831e-01,7.76064e-07,9.99969e-01
5.785602090e-01,1.02273e-06,9.99999e-01,9.99999e-01,9.98110e-01,1.02468e-06,9.99990e-01
5.814530100e-01,1.34297e-06,9.99999e-01,9.99999e-01,9.98101e-01,1.34553e-06,9.99995e-01
5.843602750e-01,1.75336e-06,9.99999e-01,9.99999e-01,9.97736e-01,1.75736e-06,9.99986e-01
5.872820764e-01,2.23881e-06,9.99999e-01,9.99999e-01,9.80701e-01,2.28318e-06,9.99862e-01
5.902184868e-01,2.88096e-06,9.99999e-01,9.99999e-01,9.76621e-01,2.95102e-06,9.99626e-01
5.931695792e-01,3.73081e-06,9.99999e-01,9.99999e-01,9.83454e-01,3.79494e-06,9.99640e-01
5.961354271e-01,4.76692e-06,9.99999e-01,9.99999e-01,9.81857e-01,4.85600e-06,9.99793e-01
5.991161043e-01,6.10110e-06,9.99999e-01,9.99999e-01,9.86729e-01,6.18355e-06,9.99935e-01
6.021116848e-01,7.77731e-06,9.99999e-01,9.99999e-01,9.92449e-01,7.83653e-06,9.99992e-01
6.051222432e-01,9.84718e-06,9.99999e-01,9.99999e-01,9.96172e-01,9.88502e-06,9.99999e-01
6.081478544e-01,1.23914e-05,9.99999e-01,9.99999e-01,9.98347e-01,1.24119e-05,9.99999e-01
6.111885937e-01,1.55040e-05,9.99999e-01,9.99999e-01,9.99300e-01,1.55149e-05,9.99999e-01
6.142445367e-01,1.93022e-05,9.99999e-01,9.99999e-01,9.99687e-01,1.93082e-05,9.99999e-01
6.173157594e-01,2.39214e-05,9.99999e-01,9.99999e-01,9.99827e-01,2.39255e-05,9.99999e-01
6.204023382e-01,2.95173e-05,9.99999e-01,9.99999e-01,9.99853e-01,2.95216e-05,9.99999e-01
6.235043498e-01,3.62523e-05,9.99999e-01,9.99999e-01,9.99356e-01,3.62757e-05,9.99997e-01
6.266218716e-01,4.42422e-05,9.99999e-01,9.99999e-01,9.96603e-01,4.43940e-05,9.99975e-01
6.297549810e-01,5.40428e-05,9.99999e-01,9.99999e-01,9.98753e-01,5.41128e-05,9.99951e-01
6.329037559e-01,6.55376e-05,9.99999e-01,9.99999e-01,9.97536e-01,6.57019e-05,9.99961e-01
6.360682746e-01,7.92993e-05,9.99999e-01,9.99999e-01,9.97901e-01,7.94678e-05,9.99976e-01
6.392486160e-01,9.54963e-05,9.99999e-01,9.99999e-01,9.97281e-01,9.57575e-05,9.99989e-01
6.424448591e-01,1.14542e-04,9.99999e-01,9.99999e-01,9.96361e-01,1.14962e-04,9.99983e-01
6.456570834e-01,1.35202e-04,9.99999e-01,9.99999e-01,9.83227e-01,1.37521e-04,9.99906e-01
6.488853688e-01,1.61869e-04,9.99999e-01,9.99999e-01,9.87713e-01,1.63925e-04,9.99737e-01
6.521297956e-01,1.92244e-04,9.99999e-01,9.99999e-01,9.87485e-01,1.94722e-04,9.99783e-01
6.553904446e-01,2.27605e-04,9.99999e-01,9.99999e-01,9.87512e-01,2.30520e-04,9.99838e-01
6.586673968e-01,2.69068e-04,9.99999e-01,9.99999e-01,9.89307e-01,2.71991e-04,9.99945e-01
6.619607338e-01,3.17960e-04,9.99999e-01,9.99999e-01,9.94023e-01,3.19875e-04,9.99988e-01
6.652705375e-01,3.73638e-04,9.99999e-01,9.99999e-01,9.96408e-01,3.74987e-04,9.99993e-01
6.685968902e-01,4.37483e-04,9.99999e-01,9.99999e-01,9.98330e-01,4.38215e-04,9.99998e-01
6.719398746e-01,5.10136e-04,9.99999e-01,9.99999e-01,9.99226e-01,5.10531e-04,9.99999e-01
6.752995740e-01,5.92741e-04,9.99999e-01,9.99999e-01,9.99580e-01,5.92990e-04,9.99999e-01
6.786760719e-01,6.86315e-04,9.99999e-01,9.99999e-01,9.99393e-01,6.86732e-04,9.99998e-01
6.820694522e-01,7.92165e-04,9.99999e-01,9.99999e-01,9.98962e-01,7.92992e-04,9.99994e-01
6.854797995e-01,9.11863e-04,9.99999e-01,9.99999e-01,9.98662e-01,9.13095e-04,9.99987e-01
6.889071985e-01,1.04504e-03,9.99999e-01,9.99999e-01,9.96761e-01,1.04846e-03,9.99970e-01
6.923517345e-01,1.13860e-03,9.99999e-01,9.99999e-01,9.48585e-01,1.20062e-03,9.99746e-01
6.958134932e-01,1.33343e-03,9.99999e-01,9.99999e-01,9.73017e-01,1.37118e-03,9.99438e-01
6.992925606e-01,1.52082e-03,9.99999e-01,9.99999e-01,9.74212e-01,1.56186e-03,9.99494e-01
7.027890234e-01,1.71753e-03,9.99999e-01,9.99999e-01,9.68269e-01,1.77450e-03,9.99613e-01
7.063029686e-01,1.95678e-03,9.99999e-01,9.99999e-01,9.73222e-01,2.01100e-03,9.99807e-01
7.098344834e-01,2.21469e-03,9.99999e-01,9.99999e-01,9.74282e-01,2.27341e-03,9.99885e-01
7.133836558e-01,2.47600e-03,9.99999e-01,9.99999e-01,9.65957e-01,2.56383e-03,9.99773e-01
7.169505741e-01,2.19460e-03,9.99999e-01,9.99999e-01,7.62179e-01,2.88450e-03,9.98224e-01
7.205353270e-01,2.82315e-03,9.99999e-01,9.99999e-01,8.74691e-01,3.23773e-03,9.96868e-01
7.241380036e-01,3.04800e-03,9.99999e-01,9.99999e-01,8.42890e-01,3.62593e-03,9.97295e-01
7.277586936e-01,3.46524e-03,9.99999e-01,9.99999e-01,8.57170e-01,4.05160e-03,9.97788e-01
7.313974871e-01,3.82665e-03,9.99999e-01,9.99999e-01,8.47983e-01,4.51733e-03,9.98963e-01
7.350544745e-01,4.58956e-03,9.99999e-01,9.99999e-01,9.13531e-01,5.02578e-03,9.99639e-01
7.387297469e-01,5.21844e-03,9.99999e-01,9.99999e-01,9.35409e-01,5.57970e-03,9.99834e-01
7.424233956e-01,5.98273e-03,9.99999e-01,9.99999e-01,9.67814e-01,6.18188e-03,9.99967e-01
7.461355126e-01,6.70092e-03,9.99999e-01,9.99999e-01,9.80359e-01,6.83521e-03,9.99993e-01
7.498661902e-01,7.47325e-03,9.99999e-01,9.99999e-01,9.90808e-01,7.54259e-03,9.99997e-01
7.536155211e-01,8.26946e-03,9.99999e-01,9.99999e-01,9.95479e-01,8.30701e-03,9.99998e-01
7.573835987e-01,9.11021e-03,9.99999e-01,9.99999e-01,9.97670e-01,9.13148e-03,9.99999e-01
7.611705167e-01,1.00045e-02,9.99999e-01,9.99999e-01,9.98552e-01,1.00190e-02,9.99999e-01
7.649763693e-01,1.09628e-02,9.99999e-01,9.99999e-01,9.99092e-01,1.09727e-02,9.99999e-01
7.688012511e-01,1.19880e-02,9.99999e-01,9.99999e-01,9.99367e-01,1.19956e-02,9.99999e-01
7.726452574e-01,1.30840e-02,9.99999e-01,9.99999e-01,9.99479e-01,1.30908e-02,9.99999e-01
7.765084837e-01,1.42508e-02,9.99999e-01,9.99999e-01,9.99260e-01,1.42614e-02,9.99998e-01
7.803910261e-01,1.34093e-02,9.99999e-01,8.66982e-01,9.96806e-01,1.55103e-02,9.99996e-01
7.842929812e-01,7.67612e-03,9.99999e-01,4.60003e-01,9.88899e-01,1.68407e-02,9.99979e-01
7.882144461e-01,7.97551e-03,9.99999e-01,4.45565e-01,9.77272e-01,1.82555e-02,9.99842e-01
7.921555184e-01,1.16016e-02,9.99999e-01,5.93994e-01,9.87486e-01,1.97577e-02,9.99725e-01
7.961162960e-01,1.46240e-02,9.99999e-01,6.99831e-01,9.77975e-01,2.13501e-02,9.99739e-01
8.000968774e-01,1.84908e-02,9.99999e-01,8.23554e-01,9.74570e-01,2.30355e-02,9.99722e-01
8.040973618e-01,2.18650e-02,9.99999e-01,9.03988e-01,9.74574e-01,2.48168e-02,9.99779e-01
8.081178486e-01,2.40581e-02,9.99999e-01,9.54593e-01,9.43807e-01,2.66964e-02,9.99793e-01
8.121584379e-01,2.22816e-02,9.99999e-01,9.85765e-01,7.88241e-01,2.86770e-02,9.99188e-01
8.162192301e-01,2.30886e-02,9.99999e-01,9.96837e-01,7.55024e-01,3.07611e-02,9.96953e-01
8.203003262e-01,2.86615e-02,9.99999e-01,9.99953e-01,8.72959e-01,3.29509e-02,9.96433e-01
8.244018279e-01,2.91762e-02,9.99999e-01,9.99999e-01,8.30080e-01,3.52487e-02,9.97160e-01
8.285238370e-01,3.17169e-02,9.99999e-01,9.99999e-01,8.44149e-01,3.76566e-02,9.97769e-01
8.326664562e-01,3.38415e-02,9.99999e-01,9.99999e-01,8.43100e-01,4.01764e-02,9.99076e-01
8.368297885e-01,3.78442e-02,9.99999e-01,9.99999e-01,8.84187e-01,4.28101e-02,9.99788e-01
8.410139374e-01,4.23334e-02,9.99999e-01,9.99999e-01,9.29307e-01,4.55593e-02,9.99876e-01
8.452190071e-01,4.67090e-02,9.99999e-01,9.99999e-01,9.64626e-01,4.84254e-02,9.99925e-01
8.494451021e-01,5.03426e-02,9.99999e-01,9.99999e-01,9.79298e-01,5.14098e-02,9.99940e-01
8.536923276e-01,5.38420e-02,9.99999e-01,9.99999e-01,9.87712e-01,5.45138e-02,9.99963e-01
8.579607893e-01,5.72997e-02,9.99999e-01,9.99999e-01,9.92413e-01,5.77382e-02,9.99990e-01
8.622505932e-01,6.07892e-02,9.99999e-01,9.99999e-01,9.95174e-01,6.10840e-02,9.99998e-01
8.665618462e-01,5.36341e-02,9.99999e-01,8.33162e-01,9.97011e-01,6.45518e-02,9.99998e-01
8.708946554e-01,1.06267e-02,9.99999e-01,1.56414e-01,9.96578e-01,6.81421e-02,9.99997e-01
8.752491287e-01,1.43397e-02,9.99999e-01,2.00387e-01,9.95425e-01,7.18553e-02,9.99994e-01
8.796253743e-01,3.01922e-02,9.99999e-01,4.01110e-01,9.93669e-01,7.56914e-02,9.99985e-01
8.840235012e-01,4.84173e-02,9.99999e-01,6.11977e-01,9.92773e-01,7.96504e-02,9.99955e-01
8.884436187e-01,6.70975e-02,9.99999e-01,8.21658e-01,9.74050e-01,8.37321e-02,9.99874e-01
8.928858368e-01,6.20791e-02,9.99999e-01,9.23043e-01,7.62423e-01,8.79362e-02,9.99275e-01
8.973502660e-01,5.61601e-02,9.99999e-01,9.80733e-01,6.21702e-01,9.22620e-02,9.96295e-01
9.018370173e-01,7.53148e-02,9.99999e-01,9.97858e-01,7.84757e-01,9.67089e-02,9.94181e-01
9.063462024e-01,7.77193e-02,9.99999e-01,9.48384e-01,8.06373e-01,1.01276e-01,9.94886e-01
9.108779334e-01,6.69968e-02,9.99999e-01,8.81788e-01,7.15471e-01,1.05962e-01,9.94687e-01
9.154323231e-01,7.32343e-02,9.99999e-01,9.70881e-01,6.81839e-01,1.10766e-01,9.95606e-01
9.200094847e-01,6.53669e-02,9.99999e-01,7.21837e-01,7.42330e-01,1.15686e-01,9.97538e-01
9.246095321e-01,4.37097e-02,9.99999e-01,5.44460e-01,6.43194e-01,1.20721e-01,9.97164e-01
9.292325798e-01,6.93225e-03,9.99999e-01,6.30960e-01,7.78337e-02,1.25869e-01,9.88988e-01
9.338787427e-01,2.89627e-03,9.99999e-01,6.34347e-01,3.24705e-02,1.31129e-01,9.55258e-01
9.385481364e-01,2.41675e-02,9.99999e-01,7.11864e-01,2.46582e-01,1.36498e-01,9.47015e-01
9.432408771e-01,1.80329e-02,9.99999e-01,8.10152e-01,1.58226e-01,1.41974e-01,9.54119e-01
9.479570815e-01,9.44351e-03,9.99999e-01,8.97359e-01,7.26650e-02,1.47556e-01,9.62496e-01
9.526968669e-01,1.85387e-02,9.99999e-01,9.49229e-01,1.28770e-01,1.53240e-01,9.76954e-01
9.574603512e-01,2.16598e-02,9.99999e-01,9.77918e-01,1.40137e-01,1.59024e-01,9.88226e-01
9.622476530e-01,3.14968e-02,9.99999e-01,9.93056e-01,1.93575e-01,1.64906e-01,9.91844e-01
9.670588912e-01,6.47253e-02,9.99999e-01,9.97915e-01,3.81507e-01,1.70882e-01,9.94414e-01
9.718941857e-01,9.34871e-02,9.99999e-01,9.99852e-01,5.30557e-01,1.76951e-01,9.95885e-01
9.767536566e-01,1.07685e-01,9.99999e-01,9.99999e-01,5.89947e-01,1.83109e-01,9.96854e-01
9.816374249e-01,1.27418e-01,9.99999e-01,9.99999e-01,6.73642e-01,1.89353e-01,9.98910e-01
9.865456120e-01,1.52607e-01,9.99999e-01,9.99999e-01,7.80055e-01,1.95681e-01,9.99772e-01
9.914783401e-01,1.73189e-01,9.99999e-01,9.99999e-01,8.57047e-01,2.02089e-01,9.99936e-01
9.964357318e-01,1.91752e-01,9.99999e-01,9.99999e-01,9.19380e-01,2.08574e-01,9.99962e-01
1.001417910e+00,2.04540e-01,9.99999e-01,9.99999e-01,9.50814e-01,2.15132e-01,9.99943e-01
1.006425000e+00,2.15454e-01,9.99999e-01,9.99999e-01,9.71634e-01,2.21762e-01,9.99919e-01
1.011457125e+00,2.24399e-01,9.99999e-01,9.99999e-01,9.82306e-01,2.28458e-01,9.99925e-01
1.016514411e+00,2.32372e-01,9.99999e-01,9.99999e-01,9.87950e-01,2.35219e-01,9.99947e-01
1.021596983e+00,2.39631e-01,9.99999e-01,9.99705e-01,9.90387e-01,2.42040e-01,9.99946e-01
1.026704968e+00,2.41851e-01,9.99999e-01,9.78939e-01,9.92494e-01,2.48918e-01,9.99964e-01
1.031838492e+00,2.19168e-01,9.99999e-01,8.60992e-01,9.94541e-01,2.55850e-01,9.99989e-01
1.036997685e+00,6.03252e-03,9.99999e-01,2.30077e-02,9.96753e-01,2.62833e-01,9.99997e-01
1.042182673e+00,4.51320e-05,9.99999e-01,1.67702e-04,9.96129e-01,2.69863e-01,9.99998e-01
1.047393587e+00,1.26270e-04,9.99999e-01,4.57822e-04,9.94870e-01,2.76936e-01,9.99998e-01
1.052630555e+00,4.28706e-11,9.99999e-01,1.51579e-10,9.92966e-01,2.84049e-01,9.99997e-01
1.057893707e+00,1.60756e-10,9.99999e-01,5.55030e-10,9.88285e-01,2.91199e-01,9.99995e-01
1.063183176e+00,7.29551e-08,9.99999e-01,2.46972e-07,9.80807e-01,2.98383e-01,9.99989e-01
1.068499092e+00,2.06020e-06,9.99999e-01,6.85416e-06,9.68089e-01,3.05596e-01,9.99977e-01
1.073841587e+00,1.16141e-04,9.99999e-01,3.80115e-04,9.62829e-01,3.12837e-01,9.99951e-01
1.079210795e+00,2.34959e-03,9.99999e-01,7.59621e-03,9.52568e-01,3.20101e-01,9.99870e-01
1.084606849e+00,1.79673e-02,9.99999e-01,5.82606e-02,9.29200e-01,3.27385e-01,9.99687e-01
1.090029883e+00,6.80698e-02,9.99999e-01,2.22945e-01,9.00231e-01,3.34686e-01,9.99353e-01
1.095480033e+00,1.23706e-01,9.99999e-01,4.74221e-01,7.51478e-01,3.42000e-01,9.98830e-01
1.100957433e+00,1.21469e-01,9.99999e-01,6.95161e-01,4.91423e-01,3.49326e-01,9.97849e-01
1.106462220e+00,5.77622e-02,9.99999e-01,8.59906e-01,1.84852e-01,3.56659e-01,9.96354e-01
1.111994531e+00,1.12397e-02,9.99999e-01,9.45435e-01,3.25056e-02,3.63997e-01,9.90353e-01
1.117554504e+00,1.90358e-03,9.99999e-01,9.86402e-01,5.34132e-03,3.71336e-01,9.65608e-01
1.123142276e+00,1.05326e-02,9.99999e-01,9.99102e-01,3.02227e-02,3.78673e-01,9.20358e-01
1.128757988e+00,2.72534e-02,9.99999e-01,9.99999e-01,7.77179e-02,3.86007e-01,9.08455e-01
1.134401778e+00,1.32849e-02,9.99999e-01,9.99999e-01,3.66480e-02,3.93333e-01,9.21606e-01
1.140073787e+00,7.36706e-02,9.99999e-01,9.99999e-01,1.96271e-01,4.00650e-01,9.36854e-01
1.145774156e+00,1.86852e-02,9.99999e-01,9.99999e-01,4.86199e-02,4.07954e-01,9.42041e-01
1.151503026e+00,1.36887e-02,9.99999e-01,9.99999e-01,3.40803e-02,4.15244e-01,9.67285e-01
1.157260541e+00,1.82756e-02,9.99999e-01,9.99999e-01,4.36866e-02,4.22515e-01,9.90104e-01
1.163046844e+00,4.13046e-02,9.99999e-01,9.99999e-01,9.63804e-02,4.29767e-01,9.97185e-01
1.168862078e+00,7.96417e-02,9.99999e-01,9.99999e-01,1.82513e-01,4.36996e-01,9.98548e-01
1.174706389e+00,1.53862e-01,9.99999e-01,9.99999e-01,3.47046e-01,4.44201e-01,9.98076e-01
1.180579921e+00,2.34563e-01,9.99999e-01,9.99999e-01,5.21175e-01,4.51378e-01,9.97093e-01
1.186482820e+00,3.14640e-01,9.99999e-01,9.99959e-01,6.88270e-01,4.58526e-01,9.97016e-01
1.192415234e+00,3.49128e-01,9.99999e-01,9.31737e-01,8.03110e-01,4.65643e-01,9.97765e-01
1.198377311e+00,1.90819e-01,9.99999e-01,4.71366e-01,8.31401e-01,4.72726e-01,9.97888e-01
1.204369197e+00,1.00209e-53,9.99999e-01,2.31578e-53,8.40596e-01,4.79774e-01,9.98089e-01
1.210391043e+00,2.91202e-223,9.99999e-01,6.57369e-223,8.46461e-01,4.86785e-01,9.98837e-01
1.216442998e+00,6.10571e-193,9.99999e-01,1.35163e-192,8.67819e-01,4.93757e-01,9.99287e-01
1.222525213e+00,5.27044e-190,9.99999e-01,1.11507e-189,8.95150e-01,5.00688e-01,9.99557e-01
1.228637839e+00,3.62138e-146,9.99999e-01,7.51517e-146,9.25902e-01,5.07576e-01,9.99793e-01
