#,Wave/freq,Total,N2,CO2,H2O,Rayleigh,CIA
4.000000000e-01,3.03583e-08,9.99999e-01,9.99999e-01,9.99966e-01,3.03594e-08,9.99999e-01
4.020000000e-01,4.27494e-08,9.99999e-01,9.99999e-01,9.99978e-01,4.27503e-08,9.99999e-01
4.040100000e-01,5.97713e-08,9.99999e-01,9.99999e-01,9.99990e-01,5.97718e-08,9.99999e-01
4.060300500e-01,8.30191e-08,9.99999e-01,9.99999e-01,9.99997e-01,8.30192e-08,9.99999e-01
4.080602003e-01,1.14562e-07,9.99999e-01,9.99999e-01,9.99998e-01,1.14563e-07,9.99999e-01
4.101005013e-01,1.57088e-07,9.99999e-01,9.99999e-01,9.99999e-01,1.57088e-07,9.99999e-01
4.121510038e-01,2.14060e-07,9.99999e-01,9.99999e-01,9.99998e-01,2.14061e-07,9.99999e-01
4.142117588e-01,2.89915e-07,9.99999e-01,9.99999e-01,9.99990e-01,2.89918e-07,9.99999e-01
4.162828176e-01,3.90295e-07,9.99999e-01,9.99999e-01,9.99958e-01,3.90311e-07,9.99999e-01
4.183642317e-01,5.22380e-07,9.99999e-01,9.99999e-01,9.99974e-01,5.22392e-07,9.99999e-01
4.204560528e-01,6.95145e-07,9.99999e-01,9.99999e-01,9.99984e-01,6.95155e-07,9.99999e-01
4.225583331e-01,9.19843e-07,9.99999e-01,9.99999e-01,9.99993e-01,9.19848e-07,9.99999e-01
4.246711247e-01,1.21045e-06,9.99999e-01,9.99999e-01,9.99995e-01,1.21045e-06,9.99999e-01
4.267944804e-01,1.58424e-06,9.99999e-01,9.99999e-01,9.99992e-01,1.58425e-06,9.99999e-01
4.289284528e-01,2.06248e-06,9.99999e-01,9.99999e-01,9.99994e-01,2.06249e-06,9.99999e-01
4.310730950e-01,2.67113e-06,9.99999e-01,9.99999e-01,9.99997e-01,2.67114e-06,9.99999e-01
4.332284605e-01,3.44178e-06,9.99999e-01,9.99999e-01,9.99998e-01,3.44178e-06,9.99999e-01
4.353946028e-01,4.41261e-06,9.99999e-01,9.99999e-01,9.99999e-01,4.41261e-06,9.99999e-01
4.375715758e-01,5.62956e-06,9.99999e-01,9.99999e-01,9.99995e-01,5.62958e-06,9.99999e-01
4.397594337e-01,7.14745e-06,9.99999e-01,9.99999e-01,9.99963e-01,7.14771e-06,9.99999e-01
4.419582309e-01,9.03089e-06,9.99999e-01,9.99999e-01,9.99816e-01,9.03254e-06,9.99999e-01
4.441680220e-01,1.13601e-05,9.99999e-01,9.99999e-01,9.99855e-01,1.13617e-05,9.99999e-01
4.463888621e-01,1.42248e-05,9.99999e-01,9.99999e-01,9.99850e-01,1.42270e-05,9.99999e-01
4.486208064e-01,1.77341e-05,9.99999e-01,9.99999e-01,9.99906e-01,1.77358e-05,9.99999e-01
4.508639105e-01,2.20130e-05,9.99999e-01,9.99999e-01,9.99956e-01,2.20139e-05,9.99999e-01
4.531182300e-01,2.72072e-05,9.99999e-01,9.99999e-01,9.99982e-01,2.72076e-05,9.99999e-01
4.553838212e-01,3.34859e-05,9.99999e-01,9.99999e-01,9.99987e-01,3.34863e-05,9.99999e-01
4.576607403e-01,4.10449e-05,9.99999e-01,9.99999e-01,9.99994e-01,4.10451e-05,9.99999e-01
4.599490440e-01,5.01082e-05,9.99999e-01,9.99999e-01,9.99995e-01,5.01084e-05,9.99999e-01
4.622487892e-01,6.09323e-05,9.99999e-01,9.99999e-01,9.99998e-01,6.09324e-05,9.99999e-01
4.645600332e-01,7.38086e-05,9.99999e-01,9.99999e-01,9.99996e-01,7.38087e-05,9.99999e-01
4.668828333e-01,8.90643e-05,9.99999e-01,9.99999e-01,9.99955e-01,8.90682e-05,9.99999e-01
4.692172475e-01,1.07074e-04,9.99999e-01,9.99999e-01,9.99905e-01,1.07084e-04,9.99999e-01
4.715633337e-01,1.28269e-04,9.99999e-01,9.99999e-01,9.99938e-01,1.28277e-04,9.99999e-01
4.739211504e-01,1.53108e-04,9.99999e-01,9.99999e-01,9.99940e-01,1.53117e-04,9.99999e-01
4.762907561e-01,1.82123e-04,9.99999e-01,9.99999e-01,9.99969e-01,1.82128e-04,9.99999e-01
4.786722099e-01,2.15893e-04,9.99999e-01,9.99999e-01,9.99987e-01,2.15896e-04,9.99999e-01
4.810655710e-01,2.55065e-04,9.99999e-01,9.99999e-01,9.99995e-01,2.55066e-04,9.99999e-01
4.834708988e-01,3.00341e-04,9.99999e-01,9.99999e-01,9.99963e-01,3.00351e-04,9.99999e-01
4.858882533e-01,3.52514e-04,9.99999e-01,9.99999e-01,9.99933e-01,3.52537e-04,9.99999e-01
4.883176946e-01,4.12461e-04,9.99999e-01,9.99999e-01,9.99944e-01,4.12483e-04,9.99999e-01
4.907592831e-01,4.81104e-04,9.99999e-01,9.99999e-01,9.99949e-01,4.81128e-04,9.99999e-01
4.932130795e-01,5.59472e-04,9.99999e-01,9.99999e-01,9.99963e-01,5.59492e-04,9.99999e-01
4.956791449e-01,6.48672e-04,9.99999e-01,9.99999e-01,9.99980e-01,6.48684e-04,9.99999e-01
4.981575406e-01,7.49830e-04,9.99999e-01,9.99999e-01,9.99905e-01,7.49900e-04,9.99999e-01
5.006483283e-01,8.64218e-04,9.99999e-01,9.99999e-01,9.99755e-01,8.64430e-04,9.99997e-01
5.031515699e-01,9.92416e-04,9.99999e-01,9.99999e-01,9.98762e-01,9.93658e-04,9.99986e-01
5.056673278e-01,1.13831e-03,9.99999e-01,9.99999e-01,9.99346e-01,1.13907e-03,9.99984e-01
5.081956644e-01,1.30115e-03,9.99999e-01,9.99999e-01,9.99175e-01,1.30224e-03,9.99989e-01
5.107366428e-01,1.48402e-03,9.99999e-01,9.99999e-01,9.99442e-01,1.48485e-03,9.99997e-01
5.132903260e-01,1.68814e-03,9.99999e-01,9.99999e-01,9.99681e-01,1.68868e-03,9.99999e-01
5.158567776e-01,1.91537e-03,9.99999e-01,9.99999e-01,9.99865e-01,1.91563e-03,9.99999e-01
5.184360615e-01,2.16755e-03,9.99999e-01,9.99999e-01,9.99945e-01,2.16766e-03,9.99999e-01
5.210282418e-01,2.44683e-03,9.99999e-01,9.99999e-01,9.99979e-01,2.44688e-03,9.99999e-01
5.236333830e-01,2.75523e-03,9.99999e-01,9.99999e-01,9.99918e-01,2.75546e-03,9.99998e-01
5.262515499e-01,3.09552e-03,9.99999e-01,9.99999e-01,9.99949e-01,3.09568e-03,9.99998e-01
5.288828077e-01,3.46976e-03,9.99999e-01,9.99999e-01,9.99953e-01,3.46993e-03,9.99998e-01
5.315272217e-01,3.88050e-03,9.99999e-01,9.99999e-01,9.99958e-01,3.88065e-03,9.99999e-01
5.341848578e-01,4.33030e-03,9.99999e-01,9.99999e-01,9.99972e-01,4.33042e-03,9.99999e-01
5.368557821e-01,4.82140e-03,9.99999e-01,9.99999e-01,9.99905e-01,4.82186e-03,9.99999e-01
5.395400610e-01,5.35585e-03,9.99999e-01,9.99999e-01,9.99661e-01,5.35768e-03,9.99996e-01
5.422377613e-01,5.93801e-03,9.99999e-01,9.99999e-01,9.99561e-01,5.94066e-03,9.99991e-01
5.449489501e-01,6.57093e-03,9.99999e-01,9.99999e-01,9.99592e-01,6.57366e-03,9.99991e-01
5.476736949e-01,7.25692e-03,9.99999e-01,9.99999e-01,9.99638e-01,7.25957e-03,9.99995e-01
5.504120634e-01,7.99924e-03,9.99999e-01,9.99999e-01,9.99737e-01,8.00135e-03,9.99998e-01
5.531641237e-01,8.80083e-03,9.99999e-01,9.99999e-01,9.99867e-01,8.80199e-03,9.99999e-01
5.559299443e-01,9.66391e-03,9.99999e-01,9.99999e-01,9.99935e-01,9.66453e-03,9.99999e-01
5.587095940e-01,1.05916e-02,9.99999e-01,9.99999e-01,9.99959e-01,1.05920e-02,9.99999e-01
5.615031420e-01,1.15870e-02,9.99999e-01,9.99999e-01,9.99955e-01,1.15875e-02,9.99999e-01
5.643106577e-01,1.26534e-02,9.99999e-01,9.99999e-01,9.99949e-01,1.26541e-02,9.99999e-01
5.671322110e-01,1.37863e-02,9.99999e-01,9.99999e-01,9.99389e-01,1.37948e-02,9.99994e-01
5.699678720e-01,1.50028e-02,9.99999e-01,9.99999e-01,9.99347e-01,1.50128e-02,9.99982e-01
5.728177114e-01,1.62997e-02,9.99999e-01,9.99999e-01,9.99321e-01,1.63110e-02,9.99985e-01
5.756818000e-01,1.76813e-02,9.99999e-01,9.99999e-01,9.99377e-01,1.76925e-02,9.99991e-01
5.785602090e-01,1.91497e-02,9.99999e-01,9.99999e-01,9.99456e-01,1.91602e-02,9.99996e-01
5.814530100e-01,2.07057e-02,9.99999e-01,9.99999e-01,9.99454e-01,2.07170e-02,9.99998e-01
5.843602750e-01,2.23512e-02,9.99999e-01,9.99999e-01,9.99351e-01,2.23657e-02,9.99995e-01
5.872820764e-01,2.39738e-02,9.99999e-01,9.99999e-01,9.94421e-01,2.41092e-02,9.99960e-01
5.902184868e-01,2.57716e-02,9.99999e-01,9.99999e-01,9.93227e-01,2.59501e-02,9.99892e-01
5.931695792e-01,2.77547e-02,9.99999e-01,9.99999e-01,9.95216e-01,2.78910e-02,9.99896e-01
5.961354271e-01,2.97755e-02,9.99999e-01,9.99999e-01,9.94753e-01,2.99343e-02,9.99940e-01
5.991161043e-01,3.19591e-02,9.99999e-01,9.99999e-01,9.96170e-01,3.20825e-02,9.99981e-01
6.021116848e-01,3.42632e-02,9.99999e-01,9.99999e-01,9.97825e-01,3.43379e-02,9.99997e-01
6.051222432e-01,3.66621e-02,9.99999e-01,9.99999e-01,9.98898e-01,3.67025e-02,9.99999e-01
6.081478544e-01,3.91598e-02,9.99999e-01,9.99999e-01,9.99524e-01,3.91784e-02,9.99999e-01
6.111885937e-01,4.17590e-02,9.99999e-01,9.99999e-01,9.99798e-01,4.17674e-02,9.99999e-01
6.142445367e-01,4.44673e-02,9.99999e-01,9.99999e-01,9.99909e-01,4.44712e-02,9.99999e-01
6.173157594e-01,4.72892e-02,9.99999e-01,9.99999e-01,9.99950e-01,4.72915e-02,9.99999e-01
6.204023382e-01,5.02275e-02,9.99999e-01,9.99999e-01,9.99957e-01,5.02296e-02,9.99999e-01
6.235043498e-01,5.32769e-02,9.99999e-01,9.99999e-01,9.99815e-01,5.32867e-02,9.99999e-01
6.266218716e-01,5.64085e-02,9.99999e-01,9.99999e-01,9.99024e-01,5.64639e-02,9.99992e-01
6.297549810e-01,5.97400e-02,9.99999e-01,9.99999e-01,9.99641e-01,5.97622e-02,9.99985e-01
6.329037559e-01,6.31369e-02,9.99999e-01,9.99999e-01,9.99292e-01,6.31823e-02,9.99988e-01
6.360682746e-01,6.66841e-02,9.99999e-01,9.99999e-01,9.99397e-01,6.67247e-02,9.99993e-01
6.392486160e-01,7.03347e-02,9.99999e-01,9.99999e-01,9.99219e-01,7.03898e-02,9.99996e-01
6.424448591e-01,7.41002e-02,9.99999e-01,9.99999e-01,9.98957e-01,7.41778e-02,9.99994e-01
6.456570834e-01,7.77093e-02,9.99999e-01,9.99999e-01,9.95166e-01,7.80889e-02,9.99972e-01
6.488853688e-01,8.18251e-02,9.99999e-01,9.99999e-01,9.96450e-01,8.21227e-02,9.99924e-01
6.521297956e-01,8.59615e-02,9.99999e-01,9.99999e-01,9.96381e-01,8.62790e-02,9.99937e-01
6.553904446e-01,9.02274e-02,9.99999e-01,9.99999e-01,9.96402e-01,9.05574e-02,9.99953e-01
6.586673968e-01,9.46627e-02,9.99999e-01,9.99999e-01,9.96915e-01,9.49570e-02,9.99984e-01
6.619607338e-01,9.92994e-02,9.99999e-01,9.99999e-01,9.98215e-01,9.94772e-02,9.99996e-01
6.652705375e-01,1.04009e-01,9.99999e-01,9.99999e-01,9.98966e-01,1.04117e-01,9.99997e-01
6.685968902e-01,1.08822e-01,9.99999e-01,9.99999e-01,9.99519e-01,1.08875e-01,9.99999e-01
6.719398746e-01,1.13724e-01,9.99999e-01,9.99999e-01,9.99777e-01,1.13750e-01,9.99999e-01
6.752995740e-01,1.18726e-01,9.99999e-01,9.99999e-01,9.99879e-01,1.18740e-01,9.99999e-01
6.786760719e-01,1.23823e-01,9.99999e-01,9.99999e-01,9.99825e-01,1.23844e-01,9.99999e-01
6.820694522e-01,1.29022e-01,9.99999e-01,9.99999e-01,9.99702e-01,1.29061e-01,9.99997e-01
6.854797995e-01,1.34335e-01,9.99999e-01,9.99999e-01,9.99616e-01,1.34387e-01,9.99996e-01
6.889071985e-01,1.39691e-01,9.99999e-01,9.99999e-01,9.99074e-01,1.39822e-01,9.99991e-01
6.923517345e-01,1.43163e-01,9.99999e-01,9.99999e-01,9.84938e-01,1.45363e-01,9.99926e-01
6.958134932e-01,1.49790e-01,9.99999e-01,9.99999e-01,9.92107e-01,1.51007e-01,9.99835e-01
6.992925606e-01,1.55559e-01,9.99999e-01,9.99999e-01,9.92531e-01,1.56752e-01,9.99855e-01
7.027890234e-01,1.61077e-01,9.99999e-01,9.99999e-01,9.90768e-01,1.62596e-01,9.99888e-01
7.063029686e-01,1.67218e-01,9.99999e-01,9.99999e-01,9.92235e-01,1.68536e-01,9.99944e-01
7.098344834e-01,1.73263e-01,9.99999e-01,9.99999e-01,9.92548e-01,1.74569e-01,9.99966e-01
7.133836558e-01,1.78894e-01,9.99999e-01,9.99999e-01,9.90110e-01,1.80692e-01,9.99934e-01
7.169505741e-01,1.72455e-01,9.99999e-01,9.99999e-01,9.23166e-01,1.86903e-01,9.99489e-01
7.205353270e-01,1.85587e-01,9.99999e-01,9.99999e-01,9.61466e-01,1.93199e-01,9.99100e-01
7.241380036e-01,1.89738e-01,9.99999e-01,9.99999e-01,9.51446e-01,1.99576e-01,9.99223e-01
7.277586936e-01,1.96856e-01,9.99999e-01,9.99999e-01,9.56075e-01,2.06031e-01,9.99364e-01
7.313974871e-01,2.02566e-01,9.99999e-01,9.99999e-01,9.53260e-01,2.12561e-01,9.99702e-01
7.350544745e-01,2.13488e-01,9.99999e-01,9.99999e-01,9.74204e-01,2.19163e-01,9.99896e-01
7.387297469e-01,2.21521e-01,9.99999e-01,9.99999e-01,9.80947e-01,2.25834e-01,9.99952e-01
7.424233956e-01,2.30389e-01,9.99999e-01,9.99999e-01,9.90630e-01,2.32570e-01,9.99990e-01
7.461355126e-01,2.38006e-01,9.99999e-01,9.99999e-01,9.94314e-01,2.39368e-01,9.99997e-01
7.498661902e-01,2.45571e-01,9.99999e-01,9.99999e-01,9.97347e-01,2.46224e-01,9.99998e-01
7.536155211e-01,2.52806e-01,9.99999e-01,9.99999e-01,9.98699e-01,2.53136e-01,9.99999e-01
7.573835987e-01,2.59925e-01,9.99999e-01,9.99999e-01,9.99330e-01,2.60099e-01,9.99999e-01
7.611705167e-01,2.66999e-01,9.99999e-01,9.99999e-01,9.99583e-01,2.67110e-01,9.99999e-01
7.649763693e-01,2.74096e-01,9.99999e-01,9.99999e-01,9.99738e-01,2.74167e-01,9.99999e-01
7.688012511e-01,2.81214e-01,9.99999e-01,9.99999e-01,9.99818e-01,2.81265e-01,9.99999e-01
7.726452574e-01,2.88358e-01,9.99999e-01,9.99999e-01,9.99850e-01,2.88401e-01,9.99999e-01
7.765084837e-01,2.95509e-01,9.99999e-01,9.99999e-01,9.99787e-01,2.95572e-01,9.99999e-01
7.803910261e-01,2.86958e-01,9.99999e-01,9.48586e-01,9.99084e-01,3.02774e-01,9.99998e-01
7.842929812e-01,2.42217e-01,9.99999e-01,7.83652e-01,9.96808e-01,3.10005e-01,9.99993e-01
7.882144461e-01,2.43208e-01,9.99999e-01,7.71387e-01,9.93421e-01,3.17260e-01,9.99959e-01
7.921555184e-01,2.77206e-01,9.99999e-01,8.57212e-01,9.96384e-01,3.24536e-01,9.99921e-01
7.961162960e-01,2.97256e-01,9.99999e-01,9.01525e-01,9.93632e-01,3.31831e-01,9.99924e-01
8.000968774e-01,3.18234e-01,9.99999e-01,9.45355e-01,9.92637e-01,3.39141e-01,9.99920e-01
8.040973618e-01,3.34019e-01,9.99999e-01,9.71272e-01,9.92637e-01,3.46463e-01,9.99936e-01
8.081178486e-01,3.43328e-01,9.99999e-01,9.86718e-01,9.83503e-01,3.53793e-01,9.99940e-01
8.121584379e-01,3.35494e-01,9.99999e-01,9.95873e-01,9.33019e-01,3.61129e-01,9.99766e-01
8.162192301e-01,3.38703e-01,9.99999e-01,9.99087e-01,9.20839e-01,3.68468e-01,9.99124e-01
8.203003262e-01,3.60430e-01,9.99999e-01,9.99985e-01,9.60078e-01,3.75807e-01,9.98975e-01
8.244018279e-01,3.61559e-01,9.99999e-01,9.99999e-01,9.44437e-01,3.83142e-01,9.99184e-01
8.285238370e-01,3.71498e-01,9.99999e-01,9.99999e-01,9.52015e-01,3.90472e-01,9.99359e-01
8.326664562e-01,3.78390e-01,9.99999e-01,9.99999e-01,9.51476e-01,3.97793e-01,9.99734e-01
8.368297885e-01,3.90923e-01,9.99999e-01,9.99999e-01,9.65057e-01,4.05102e-01,9.99939e-01
8.410139374e-01,4.03760e-01,9.99999e-01,9.99999e-01,9.79088e-01,4.12398e-01,9.99964e-01
8.452190071e-01,4.15341e-01,9.99999e-01,9.99999e-01,9.89690e-01,4.19676e-01,9.99978e-01
8.494451021e-01,4.24373e-01,9.99999e-01,9.99999e-01,9.94012e-01,4.26936e-01,9.99982e-01
8.536923276e-01,4.32630e-01,9.99999e-01,9.99999e-01,9.96452e-01,4.34174e-01,9.99989e-01
8.579607893e-01,4.40424e-01,9.99999e-01,9.99999e-01,9.97815e-01,4.41389e-01,9.99997e-01
8.622505932e-01,4.47954e-01,9.99999e-01,9.99999e-01,9.98611e-01,4.48577e-01,9.99999e-01
8.665618462e-01,4.11117e-01,9.99999e-01,9.02829e-01,9.99141e-01,4.55737e-01,9.99999e-01
8.708946554e-01,2.51128e-01,9.99999e-01,5.43055e-01,9.99017e-01,4.62866e-01,9.99998e-01
8.752491287e-01,2.85172e-01,9.99999e-01,6.07561e-01,9.98685e-01,4.69963e-01,9.99998e-01
8.796253743e-01,3.61124e-01,9.99999e-01,7.58353e-01,9.98181e-01,4.77025e-01,9.99995e-01
8.840235012e-01,4.18165e-01,9.99999e-01,8.65652e-01,9.97922e-01,4.84050e-01,9.99986e-01
8.884436187e-01,4.60372e-01,9.99999e-01,9.44582e-01,9.92472e-01,4.91037e-01,9.99963e-01
8.928858368e-01,4.49371e-01,9.99999e-01,9.77169e-01,9.23355e-01,4.97984e-01,9.99791e-01
8.973502660e-01,4.35545e-01,9.99999e-01,9.94400e-01,8.68274e-01,5.04890e-01,9.98935e-01
9.018370173e-01,4.75027e-01,9.99999e-01,9.99381e-01,9.30339e-01,5.11752e-01,9.98327e-01
9.063462024e-01,4.78815e-01,9.99999e-01,9.84417e-01,9.38593e-01,5.18568e-01,9.98530e-01
9.108779334e-01,4.58467e-01,9.99999e-01,9.64244e-01,9.05805e-01,5.25338e-01,9.98472e-01
9.154323231e-01,4.70925e-01,9.99999e-01,9.91474e-01,8.93572e-01,5.32061e-01,9.98737e-01
9.200094847e-01,4.40868e-01,9.99999e-01,8.88066e-01,9.15662e-01,5.38734e-01,9.99293e-01
9.246095321e-01,4.00111e-01,9.99999e-01,8.37081e-01,8.73023e-01,5.45356e-01,9.99185e-01
9.292325798e-01,2.00067e-01,9.99999e-01,8.70876e-01,4.09043e-01,5.51927e-01,9.96828e-01
9.338787427e-01,1.55342e-01,9.99999e-01,8.74207e-01,3.16070e-01,5.58444e-01,9.86955e-01
9.385481364e-01,3.18535e-01,9.99999e-01,9.05705e-01,6.26984e-01,5.64908e-01,9.84505e-01
9.432408771e-01,2.81765e-01,9.99999e-01,9.41042e-01,5.28587e-01,5.71316e-01,9.86617e-01
9.479570815e-01,2.31814e-01,9.99999e-01,9.69315e-01,4.17543e-01,5.77669e-01,9.89095e-01
9.526968669e-01,2.94038e-01,9.99999e-01,9.85086e-01,5.13601e-01,5.83964e-01,9.93334e-01
9.574603512e-01,3.13221e-01,9.99999e-01,9.93593e-01,5.35588e-01,5.90202e-01,9.96608e-01
9.622476530e-01,3.56004e-01,9.99999e-01,9.97997e-01,5.99432e-01,5.96381e-01,9.97653e-01
9.670588912e-01,4.47242e-01,9.99999e-01,9.99399e-01,7.43913e-01,6.02501e-01,9.98394e-01
9.718941857e-01,5.04477e-01,9.99999e-01,9.99956e-01,8.29977e-01,6.08561e-01,9.98817e-01
9.767536566e-01,5.25969e-01,9.99999e-01,9.99999e-01,8.56619e-01,6.14561e-01,9.99096e-01
9.816374249e-01,5.52971e-01,9.99999e-01,9.99999e-01,8.91448e-01,6.20499e-01,9.99686e-01
9.865456120e-01,5.82912e-01,9.99999e-01,9.99999e-01,9.30670e-01,6.26376e-01,9.99934e-01
9.914783401e-01,6.04709e-01,9.99999e-01,9.99999e-01,9.56546e-01,6.32191e-01,9.99981e-01
9.964357318e-01,6.22688e-01,9.99999e-01,9.99999e-01,9.76097e-01,6.37943e-01,9.99988e-01
1.001417910e+00,6.34357e-01,9.99999e-01,9.99999e-01,9.85604e-01,6.43632e-01,9.99983e-01
1.006425000e+00,6.43903e-01,9.99999e-01,9.99999e-01,9.91773e-01,6.49259e-01,9.99976e-01
1.011457125e+00,6.51458e-01,9.99999e-01,9.99999e-01,9.94884e-01,6.54822e-01,9.99978e-01
1.016514411e+00,6.58017e-01,9.99999e-01,9.99999e-01,9.96525e-01,6.60321e-01,9.99984e-01
1.021596983e+00,6.63849e-01,9.99999e-01,9.99918e-01,9.97230e-01,6.65756e-01,9.99984e-01
1.026704968e+00,6.65577e-01,9.99999e-01,9.93881e-01,9.97840e-01,6.71128e-01,9.99989e-01
1.031838492e+00,6.34126e-01,9.99999e-01,9.38872e-01,9.98429e-01,6.76435e-01,9.99996e-01
1.036997685e+00,6.62110e-02,9.99999e-01,9.71992e-02,9.99067e-01,6.81679e-01,9.99999e-01
1.042182673e+00,2.50081e-02,9.99999e-01,3.64433e-02,9.98888e-01,6.86858e-01,9.99999e-01
1.047393587e+00,4.03043e-02,9.99999e-01,5.83197e-02,9.98525e-01,6.91973e-01,9.99999e-01
1.052630555e+00,1.81059e-04,9.99999e-01,2.60120e-04,9.97978e-01,6.97024e-01,9.99998e-01
1.057893707e+00,5.81431e-04,9.99999e-01,8.29918e-04,9.96627e-01,7.02011e-01,9.99998e-01
1.063183176e+00,3.58576e-03,9.99999e-01,5.09069e-03,9.94454e-01,7.06934e-01,9.99996e-01
1.068499092e+00,1.59224e-02,9.99999e-01,2.25316e-02,9.90726e-01,7.11794e-01,9.99993e-01
1.073841587e+00,6.37193e-02,9.99999e-01,8.96999e-02,9.89161e-01,7.16590e-01,9.99985e-01
1.079210795e+00,1.54902e-01,9.99999e-01,2.17368e-01,9.86118e-01,7.21322e-01,9.99962e-01
1.084606849e+00,3.04474e-01,9.99999e-01,4.27745e-01,9.79069e-01,7.25992e-01,9.99910e-01
1.090029883e+00,4.55969e-01,9.99999e-01,6.42592e-01,9.70116e-01,7.30598e-01,9.99814e-01
1.095480033e+00,5.44703e-01,9.99999e-01,8.03931e-01,9.20634e-01,7.35142e-01,9.99664e-01
1.100957433e+00,5.40494e-01,9.99999e-01,9.00044e-01,8.10990e-01,7.39624e-01,9.99382e-01
1.106462220e+00,4.21750e-01,9.99999e-01,9.57354e-01,5.91270e-01,7.44043e-01,9.98952e-01
1.111994531e+00,2.46300e-01,9.99999e-01,9.83971e-01,3.34809e-01,7.48401e-01,9.97222e-01
1.117554504e+00,1.29315e-01,9.99999e-01,9.96060e-01,1.74036e-01,7.52698e-01,9.90011e-01
1.123142276e+00,2.12528e-01,9.99999e-01,9.99740e-01,2.87563e-01,7.56933e-01,9.76474e-01
1.128757988e+00,3.24946e-01,9.99999e-01,9.99999e-01,4.38859e-01,7.61108e-01,9.72835e-01
1.134401778e+00,1.60899e-01,9.99999e-01,9.99999e-01,2.15246e-01,7.65223e-01,9.76854e-01
1.140073787e+00,4.57447e-01,9.99999e-01,9.99999e-01,6.05874e-01,7.69279e-01,9.81463e-01
1.145774156e+00,2.73812e-01,9.99999e-01,9.99999e-01,3.60210e-01,7.73275e-01,9.83019e-01
1.151503026e+00,2.49032e-01,9.99999e-01,9.99999e-01,3.23489e-01,7.77212e-01,9.90504e-01
1.157260541e+00,2.95050e-01,9.99999e-01,9.99999e-01,3.78820e-01,7.81091e-01,9.97151e-01
1.163046844e+00,3.81267e-01,9.99999e-01,9.99999e-01,4.86137e-01,7.84912e-01,9.99191e-01
1.168862078e+00,4.74979e-01,9.99999e-01,9.99999e-01,6.02499e-01,7.88676e-01,9.99583e-01
1.174706389e+00,5.79165e-01,9.99999e-01,9.99999e-01,7.31319e-01,7.92383e-01,9.99447e-01
1.180579921e+00,6.57128e-01,9.99999e-01,9.99999e-01,8.26192e-01,7.96033e-01,9.99165e-01
1.186482820e+00,7.17082e-01,9.99999e-01,9.99989e-01,8.97546e-01,7.99628e-01,9.99142e-01
1.192415234e+00,7.37703e-01,9.99999e-01,9.78562e-01,9.38842e-01,8.03168e-01,9.99358e-01
1.198377311e+00,4.21909e-01,9.99999e-01,5.47095e-01,9.48228e-01,8.06653e-01,9.99393e-01
1.204369197e+00,5.14905e-17,9.99999e-01,6.54718e-17,9.50974e-01,8.10083e-01,9.99451e-01
1.210391043e+00,1.22375e-65,9.99999e-01,1.54562e-65,9.53039e-01,8.13461e-01,9.99666e-01
1.216442998e+00,6.07323e-57,9.99999e-01,7.62771e-57,9.59892e-01,8.16785e-01,9.99795e-01
1.222525213e+00,4.22753e-56,9.99999e-01,5.24106e-56,9.68629e-01,8.20056e-01,9.99872e-01
1.228637839e+00,2.02325e-43,9.99999e-01,2.49499e-43,9.78114e-01,8.23276e-01,9.99940e-01
