#,Wave/freq,Total,N2,CO2,H2O,Rayleigh,CIA
4.000000000e-01,2.01274e-04,9.99999e-01,9.99999e-01,9.99983e-01,2.01277e-04,9.99999e-01
4.020000000e-01,2.38164e-04,9.99999e-01,9.99999e-01,9.99989e-01,2.38166e-04,9.99999e-01
4.040100000e-01,2.80831e-04,9.99999e-01,9.99999e-01,9.99995e-01,2.80832e-04,9.99999e-01
4.060300500e-01,3.30064e-04,9.99999e-01,9.99999e-01,9.99998e-01,3.30064e-04,9.99999e-01
4.080602003e-01,3.86691e-04,9.99999e-01,9.99999e-01,9.99999e-01,3.86691e-04,9.99999e-01
4.101005013e-01,4.51619e-04,9.99999e-01,9.99999e-01,9.99999e-01,4.51619e-04,9.99999e-01
4.121510038e-01,5.25834e-04,9.99999e-01,9.99999e-01,9.99998e-01,5.25834e-04,9.99999e-01
4.142117588e-01,6.10405e-04,9.99999e-01,9.99999e-01,9.99995e-01,6.10408e-04,9.99999e-01
4.162828176e-01,7.06486e-04,9.99999e-01,9.99999e-01,9.99979e-01,7.06500e-04,9.99999e-01
4.183642317e-01,8.15352e-04,9.99999e-01,9.99999e-01,9.99987e-01,8.15361e-04,9.99999e-01
4.204560528e-01,9.38330e-04,9.99999e-01,9.99999e-01,9.99992e-01,9.38336e-04,9.99999e-01
4.225583331e-01,1.07686e-03,9.99999e-01,9.99999e-01,9.99996e-01,1.07687e-03,9.99999e-01
4.246711247e-01,1.23249e-03,9.99999e-01,9.99999e-01,9.99997e-01,1.23249e-03,9.99999e-01
4.267944804e-01,1.40685e-03,9.99999e-01,9.99999e-01,9.99996e-01,1.40685e-03,9.99999e-01
4.289284528e-01,1.60168e-03,9.99999e-01,9.99999e-01,9.99996e-01,1.60169e-03,9.99999e-01
4.310730950e-01,1.81884e-03,9.99999e-01,9.99999e-01,9.99998e-01,1.81884e-03,9.99999e-01
4.332284605e-01,2.06025e-03,9.99999e-01,9.99999e-01,9.99999e-01,2.06025e-03,9.99999e-01
4.353946028e-01,2.32797e-03,9.99999e-01,9.99999e-01,9.99999e-01,2.32797e-03,9.99999e-01
4.375715758e-01,2.62412e-03,9.99999e-01,9.99999e-01,9.99997e-01,2.62413e-03,9.99999e-01
4.397594337e-01,2.95093e-03,9.99999e-01,9.99999e-01,9.99981e-01,2.95098e-03,9.99999e-01
4.419582309e-01,3.31057e-03,9.99999e-01,9.99999e-01,9.99910e-01,3.31086e-03,9.99999e-01
4.441680220e-01,3.70593e-03,9.99999e-01,9.99999e-01,9.99928e-01,3.70620e-03,9.99999e-01
4.463888621e-01,4.13920e-03,9.99999e-01,9.99999e-01,9.99926e-01,4.13950e-03,9.99999e-01
4.486208064e-01,4.61317e-03,9.99999e-01,9.99999e-01,9.99953e-01,4.61338e-03,9.99999e-01
4.508639105e-01,5.13040e-03,9.99999e-01,9.99999e-01,9.99978e-01,5.13051e-03,9.99999e-01
4.531182300e-01,5.69360e-03,9.99999e-01,9.99999e-01,9.99991e-01,5.69365e-03,9.99999e-01
4.553838212e-01,6.30558e-03,9.99999e-01,9.99999e-01,9.99993e-01,6.30561e-03,9.99999e-01
4.576607403e-01,6.96927e-03,9.99999e-01,9.99999e-01,9.99996e-01,6.96928e-03,9.99999e-01
4.599490440e-01,7.68758e-03,9.99999e-01,9.99999e-01,9.99997e-01,7.68760e-03,9.99999e-01
4.622487892e-01,8.46352e-03,9.99999e-01,9.99999e-01,9.99999e-01,8.46353e-03,9.99999e-01
4.645600332e-01,9.30008e-03,9.99999e-01,9.99999e-01,9.99998e-01,9.30009e-03,9.99999e-01
4.668828333e-01,1.02001e-02,9.99999e-01,9.99999e-01,9.99978e-01,1.02003e-02,9.99999e-01
4.692172475e-01,1.11668e-02,9.99999e-01,9.99999e-01,9.99953e-01,1.11673e-02,9.99999e-01
4.715633337e-01,1.22038e-02,9.99999e-01,9.99999e-01,9.99969e-01,1.22041e-02,9.99999e-01
4.739211504e-01,1.33135e-02,9.99999e-01,9.99999e-01,9.99970e-01,1.33138e-02,9.99999e-01
4.762907561e-01,1.44993e-02,9.99999e-01,9.99999e-01,9.99984e-01,1.44995e-02,9.99999e-01
4.786722099e-01,1.57641e-02,9.99999e-01,9.99999e-01,9.99993e-01,1.57642e-02,9.99999e-01
4.810655710e-01,1.71108e-02,9.99999e-01,9.99999e-01,9.99997e-01,1.71108e-02,9.99999e-01
4.834708988e-01,1.85422e-02,9.99999e-01,9.99999e-01,9.99982e-01,1.85425e-02,9.99999e-01
4.858882533e-01,2.00615e-02,9.99999e-01,9.99999e-01,9.99966e-01,2.00621e-02,9.99999e-01
4.883176946e-01,2.16719e-02,9.99999e-01,9.99999e-01,9.99972e-01,2.16725e-02,9.99999e-01
4.907592831e-01,2.33759e-02,9.99999e-01,9.99999e-01,9.99974e-01,2.33765e-02,9.99999e-01
4.932130795e-01,2.51763e-02,9.99999e-01,9.99999e-01,9.99981e-01,2.51767e-02,9.99999e-01
4.956791449e-01,2.70757e-02,9.99999e-01,9.99999e-01,9.99990e-01,2.70760e-02,9.99999e-01
4.981575406e-01,2.90753e-02,9.99999e-01,9.99999e-01,9.99953e-01,2.90766e-02,9.99999e-01
5.006483283e-01,3.11775e-02,9.99999e-01,9.99999e-01,9.99880e-01,3.11812e-02,9.99998e-01
5.031515699e-01,3.33715e-02,9.99999e-01,9.99999e-01,9.99391e-01,3.33920e-02,9.99993e-01
5.056673278e-01,3.56994e-02,9.99999e-01,9.99999e-01,9.99677e-01,3.57112e-02,9.99992e-01
5.081956644e-01,3.81251e-02,9.99999e-01,9.99999e-01,9.99593e-01,3.81408e-02,9.99994e-01
5.107366428e-01,4.06716e-02,9.99999e-01,9.99999e-01,9.99725e-01,4.06828e-02,9.99998e-01
5.132903260e-01,4.33321e-02,9.99999e-01,9.99999e-01,9.99842e-01,4.33389e-02,9.99999e-01
5.158567776e-01,4.61078e-02,9.99999e-01,9.99999e-01,9.99933e-01,4.61109e-02,9.99999e-01
5.184360615e-01,4.89987e-02,9.99999e-01,9.99999e-01,9.99972e-01,4.90000e-02,9.99999e-01
5.210282418e-01,5.20073e-02,9.99999e-01,9.99999e-01,9.99989e-01,5.20078e-02,9.99999e-01
5.236333830e-01,5.51330e-02,9.99999e-01,9.99999e-01,9.99959e-01,5.51352e-02,9.99999e-01
5.262515499e-01,5.83819e-02,9.99999e-01,9.99999e-01,9.99974e-01,5.83834e-02,9.99999e-01
5.288828077e-01,6.17516e-02,9.99999e-01,9.99999e-01,9.99976e-01,6.17530e-02,9.99999e-01
5.315272217e-01,6.52434e-02,9.99999e-01,9.99999e-01,9.99979e-01,6.52447e-02,9.99999e-01
5.341848578e-01,6.88582e-02,9.99999e-01,9.99999e-01,9.99986e-01,6.88591e-02,9.99999e-01
5.368557821e-01,7.25929e-02,9.99999e-01,9.99999e-01,9.99953e-01,7.25963e-02,9.99999e-01
5.395400610e-01,7.64437e-02,9.99999e-01,9.99999e-01,9.99834e-01,7.64564e-02,9.99998e-01
5.422377613e-01,8.04218e-02,9.99999e-01,9.99999e-01,9.99783e-01,8.04395e-02,9.99995e-01
5.449489501e-01,8.45280e-02,9.99999e-01,9.99999e-01,9.99800e-01,8.45452e-02,9.99995e-01
5.476736949e-01,8.87572e-02,9.99999e-01,9.99999e-01,9.99821e-01,8.87731e-02,9.99997e-01
5.504120634e-01,9.31106e-02,9.99999e-01,9.99999e-01,9.99870e-01,9.31227e-02,9.99998e-01
5.531641237e-01,9.75868e-02,9.99999e-01,9.99999e-01,9.99934e-01,9.75932e-02,9.99999e-01
5.559299443e-01,1.02180e-01,9.99999e-01,9.99999e-01,9.99968e-01,1.02184e-01,9.99999e-01
5.587095940e-01,1.06891e-01,9.99999e-01,9.99999e-01,9.99979e-01,1.06893e-01,9.99999e-01
5.615031420e-01,1.11717e-01,9.99999e-01,9.99999e-01,9.99977e-01,1.11719e-01,9.99999e-01
5.643106577e-01,1.16659e-01,9.99999e-01,9.99999e-01,9.99975e-01,1.16662e-01,9.99999e-01
5.671322110e-01,1.21683e-01,9.99999e-01,9.99999e-01,9.99704e-01,1.21720e-01,9.99997e-01
5.699678720e-01,1.26848e-01,9.99999e-01,9.99999e-01,9.99676e-01,1.26890e-01,9.99991e-01
5.728177114e-01,1.32126e-01,9.99999e-01,9.99999e-01,9.99666e-01,1.32171e-01,9.99992e-01
5.756818000e-01,1.37519e-01,9.99999e-01,9.99999e-01,9.99693e-01,1.37561e-01,9.99995e-01
5.785602090e-01,1.43020e-01,9.99999e-01,9.99999e-01,9.99732e-01,1.43058e-01,9.99998e-01
5.814530100e-01,1.48620e-01,9.99999e-01,9.99999e-01,9.99731e-01,1.48660e-01,9.99998e-01
5.843602750e-01,1.54315e-01,9.99999e-01,9.99999e-01,9.99683e-01,1.54364e-01,9.99997e-01
5.872820764e-01,1.59726e-01,9.99999e-01,9.99999e-01,9.97266e-01,1.60167e-01,9.99980e-01
5.902184868e-01,1.65504e-01,9.99999e-01,9.99999e-01,9.96658e-01,1.66068e-01,9.99946e-01
5.931695792e-01,1.71649e-01,9.99999e-01,9.99999e-01,9.97645e-01,1.72063e-01,9.99948e-01
5.961354271e-01,1.77683e-01,9.99999e-01,9.99999e-01,9.97413e-01,1.78149e-01,9.99968e-01
5.991161043e-01,1.83975e-01,9.99999e-01,9.99999e-01,9.98111e-01,1.84324e-01,9.99990e-01
6.021116848e-01,1.90380e-01,9.99999e-01,9.99999e-01,9.98926e-01,1.90585e-01,9.99998e-01
6.051222432e-01,1.96822e-01,9.99999e-01,9.99999e-01,9.99456e-01,1.96929e-01,9.99999e-01
6.081478544e-01,2.03304e-01,9.99999e-01,9.99999e-01,9.99765e-01,2.03352e-01,9.99999e-01
6.111885937e-01,2.09831e-01,9.99999e-01,9.99999e-01,9.99900e-01,2.09851e-01,9.99999e-01
6.142445367e-01,2.16415e-01,9.99999e-01,9.99999e-01,9.99955e-01,2.16424e-01,9.99999e-01
6.173157594e-01,2.23061e-01,9.99999e-01,9.99999e-01,9.99975e-01,2.23067e-01,9.99999e-01
6.204023382e-01,2.29772e-01,9.99999e-01,9.99999e-01,9.99979e-01,2.29776e-01,9.99999e-01
6.235043498e-01,2.36528e-01,9.99999e-01,9.99999e-01,9.99910e-01,2.36549e-01,9.99999e-01
6.266218716e-01,2.43264e-01,9.99999e-01,9.99999e-01,9.99520e-01,2.43382e-01,9.99996e-01
6.297549810e-01,2.50225e-01,9.99999e-01,9.99999e-01,9.99823e-01,2.50271e-01,9.99992e-01
6.329037559e-01,2.57122e-01,9.99999e-01,9.99999e-01,9.99651e-01,2.57213e-01,9.99994e-01
6.360682746e-01,2.64126e-01,9.99999e-01,9.99999e-01,9.99704e-01,2.64205e-01,9.99996e-01
6.392486160e-01,2.71139e-01,9.99999e-01,9.99999e-01,9.99615e-01,2.71243e-01,9.99998e-01
6.424448591e-01,2.78196e-01,9.99999e-01,9.99999e-01,9.99539e-01,2.78325e-01,9.99997e-01
6.456570834e-01,2.84771e-01,9.99999e-01,9.99999e-01,9.97651e-01,2.85445e-01,9.99986e-01
6.488853688e-01,2.91990e-01,9.99999e-01,9.99999e-01,9.97944e-01,2.92602e-01,9.99962e-01
6.521297956e-01,2.99248e-01,9.99999e-01,9.99999e-01,9.98215e-01,2.99792e-01,9.99968e-01
6.553904446e-01,3.06464e-01,9.99999e-01,9.99999e-01,9.98238e-01,3.07011e-01,9.99976e-01
6.586673968e-01,3.13776e-01,9.99999e-01,9.99999e-01,9.98477e-01,3.14256e-01,9.99991e-01
6.619607338e-01,3.21241e-01,9.99999e-01,9.99999e-01,9.99119e-01,3.21525e-01,9.99997e-01
6.652705375e-01,3.28644e-01,9.99999e-01,9.99999e-01,9.99488e-01,3.28812e-01,9.99998e-01
6.685968902e-01,3.36036e-01,9.99999e-01,9.99999e-01,9.99762e-01,3.36116e-01,9.99999e-01
6.719398746e-01,3.43395e-01,9.99999e-01,9.99999e-01,9.99889e-01,3.43433e-01,9.99999e-01
6.752995740e-01,3.50740e-01,9.99999e-01,9.99999e-01,9.99940e-01,3.50760e-01,9.99999e-01
6.786760719e-01,3.58064e-01,9.99999e-01,9.99999e-01,9.99914e-01,3.58095e-01,9.99999e-01
6.820694522e-01,3.65379e-01,9.99999e-01,9.99999e-01,9.99853e-01,3.65433e-01,9.99998e-01
6.854797995e-01,3.72701e-01,9.99999e-01,9.99999e-01,9.99811e-01,3.72772e-01,9.99997e-01
6.889071985e-01,3.79937e-01,9.99999e-01,9.99999e-01,9.99550e-01,3.80109e-01,9.99995e-01
6.923517345e-01,3.84559e-01,9.99999e-01,9.99999e-01,9.92595e-01,3.87441e-01,9.99963e-01
6.958134932e-01,3.93182e-01,9.99999e-01,9.99999e-01,9.96066e-01,3.94766e-01,9.99918e-01
6.992925606e-01,4.00579e-01,9.99999e-01,9.99999e-01,9.96336e-01,4.02081e-01,9.99928e-01
7.027890234e-01,4.07494e-01,9.99999e-01,9.99999e-01,9.95442e-01,4.09382e-01,9.99945e-01
7.063029686e-01,4.15062e-01,9.99999e-01,9.99999e-01,9.96171e-01,4.16668e-01,9.99972e-01
7.098344834e-01,4.22372e-01,9.99999e-01,9.99999e-01,9.96326e-01,4.23936e-01,9.99983e-01
7.133836558e-01,4.29086e-01,9.99999e-01,9.99999e-01,9.95167e-01,4.31183e-01,9.99967e-01
7.169505741e-01,4.21383e-01,9.99999e-01,9.99999e-01,9.61407e-01,4.38408e-01,9.99748e-01
7.205353270e-01,4.36769e-01,9.99999e-01,9.99999e-01,9.80599e-01,4.45607e-01,9.99557e-01
7.241380036e-01,4.41650e-01,9.99999e-01,9.99999e-01,9.75795e-01,4.52779e-01,9.99614e-01
7.277586936e-01,4.49711e-01,9.99999e-01,9.99999e-01,9.78112e-01,4.59921e-01,9.99679e-01
7.313974871e-01,4.56041e-01,9.99999e-01,9.99999e-01,9.76610e-01,4.67032e-01,9.99853e-01
7.350544745e-01,4.68011e-01,9.99999e-01,9.99999e-01,9.87188e-01,4.74108e-01,9.99948e-01
7.387297469e-01,4.76594e-01,9.99999e-01,9.99999e-01,9.90555e-01,4.81149e-01,9.99976e-01
7.424233956e-01,4.85885e-01,9.99999e-01,9.99999e-01,9.95359e-01,4.88152e-01,9.99995e-01
7.461355126e-01,4.93725e-01,9.99999e-01,9.99999e-01,9.97190e-01,4.95116e-01,9.99998e-01
7.498661902e-01,5.01380e-01,9.99999e-01,9.99999e-01,9.98687e-01,5.02039e-01,9.99999e-01
7.536155211e-01,5.08592e-01,9.99999e-01,9.99999e-01,9.99358e-01,5.08919e-01,9.99999e-01
7.573835987e-01,5.15584e-01,9.99999e-01,9.99999e-01,9.99669e-01,5.15755e-01,9.99999e-01
7.611705167e-01,5.22437e-01,9.99999e-01,9.99999e-01,9.99794e-01,5.22544e-01,9.99999e-01
7.649763693e-01,5.29218e-01,9.99999e-01,9.99999e-01,9.99871e-01,5.29286e-01,9.99999e-01
7.688012511e-01,5.35932e-01,9.99999e-01,9.99999e-01,9.99910e-01,5.35980e-01,9.99999e-01
7.726452574e-01,5.42584e-01,9.99999e-01,9.99999e-01,9.99926e-01,5.42623e-01,9.99999e-01
7.765084837e-01,5.49159e-01,9.99999e-01,9.99999e-01,9.99895e-01,5.49216e-01,9.99999e-01
7.803910261e-01,5.40699e-01,9.99999e-01,9.73331e-01,9.99552e-01,5.55755e-01,9.99999e-01
7.842929812e-01,4.96213e-01,9.99999e-01,8.83889e-01,9.98439e-01,5.62241e-01,9.99996e-01
7.882144461e-01,4.97034e-01,9.99999e-01,8.76791e-01,9.96759e-01,5.68673e-01,9.99979e-01
7.921555184e-01,5.31911e-01,9.99999e-01,9.26644e-01,9.98212e-01,5.75048e-01,9.99961e-01
7.961162960e-01,5.50553e-01,9.99999e-01,9.49973e-01,9.96876e-01,5.81368e-01,9.99962e-01
8.000968774e-01,5.69450e-01,9.99999e-01,9.72618e-01,9.96373e-01,5.87629e-01,9.99960e-01
8.040973618e-01,5.83188e-01,9.99999e-01,9.85667e-01,9.96377e-01,5.93833e-01,9.99968e-01
8.081178486e-01,5.91192e-01,9.99999e-01,9.93425e-01,9.91897e-01,5.99978e-01,9.99970e-01
8.121584379e-01,5.84512e-01,9.99999e-01,9.97948e-01,9.66518e-01,6.06062e-01,9.99885e-01
8.162192301e-01,5.87069e-01,9.99999e-01,9.99546e-01,9.59967e-01,6.12087e-01,9.99569e-01
8.203003262e-01,6.05472e-01,9.99999e-01,9.99991e-01,9.80148e-01,6.18051e-01,9.99495e-01
8.244018279e-01,6.06011e-01,9.99999e-01,9.99999e-01,9.71633e-01,6.23953e-01,9.99598e-01
8.285238370e-01,6.14544e-01,9.99999e-01,9.99999e-01,9.76093e-01,6.29793e-01,9.99684e-01
8.326664562e-01,6.20067e-01,9.99999e-01,9.99999e-01,9.75731e-01,6.35572e-01,9.99869e-01
8.368297885e-01,6.30108e-01,9.99999e-01,9.99999e-01,9.82596e-01,6.41287e-01,9.99969e-01
8.410139374e-01,6.40217e-01,9.99999e-01,9.99999e-01,9.89624e-01,6.46939e-01,9.99982e-01
8.452190071e-01,6.49192e-01,9.99999e-01,9.99999e-01,9.94896e-01,6.52529e-01,9.99989e-01
8.494451021e-01,6.56106e-01,9.99999e-01,9.99999e-01,9.97047e-01,6.58054e-01,9.99991e-01
8.536923276e-01,6.62350e-01,9.99999e-01,9.99999e-01,9.98247e-01,6.63516e-01,9.99993e-01
8.579607893e-01,6.68193e-01,9.99999e-01,9.99999e-01,9.98923e-01,6.68914e-01,9.99998e-01
8.622505932e-01,6.73786e-01,9.99999e-01,9.99999e-01,9.99314e-01,6.74248e-01,9.99999e-01
8.665618462e-01,6.36386e-01,9.99999e-01,9.36907e-01,9.99577e-01,6.79518e-01,9.99999e-01
8.708946554e-01,5.00190e-01,9.99999e-01,7.30840e-01,9.99517e-01,6.84724e-01,9.99999e-01
8.752491287e-01,5.35618e-01,9.99999e-01,7.76898e-01,9.99353e-01,6.89865e-01,9.99998e-01
8.796253743e-01,6.04655e-01,9.99999e-01,8.70837e-01,9.99107e-01,6.94943e-01,9.99997e-01
8.840235012e-01,6.50979e-01,9.99999e-01,9.30971e-01,9.98980e-01,6.99956e-01,9.99993e-01
8.884436187e-01,6.82751e-01,9.99999e-01,9.72112e-01,9.96345e-01,7.04906e-01,9.99981e-01
8.928858368e-01,6.74759e-01,9.99999e-01,9.88646e-01,9.61582e-01,7.09792e-01,9.99897e-01
8.973502660e-01,6.64107e-01,9.99999e-01,9.97213e-01,9.32363e-01,7.14614e-01,9.99476e-01
9.018370173e-01,6.93152e-01,9.99999e-01,9.99691e-01,9.64633e-01,7.19373e-01,9.99177e-01
9.063462024e-01,6.96115e-01,9.99999e-01,9.92363e-01,9.69304e-01,7.24068e-01,9.99276e-01
9.108779334e-01,6.81170e-01,9.99999e-01,9.82166e-01,9.52290e-01,7.28701e-01,9.99248e-01
9.154323231e-01,6.90274e-01,9.99999e-01,9.95747e-01,9.45900e-01,7.33270e-01,9.99378e-01
9.200094847e-01,6.65323e-01,9.99999e-01,9.40618e-01,9.57255e-01,7.37778e-01,9.99652e-01
9.246095321e-01,6.36025e-01,9.99999e-01,9.15716e-01,9.34962e-01,7.42223e-01,9.99599e-01
9.292325798e-01,4.43691e-01,9.99999e-01,9.33871e-01,6.33526e-01,7.46606e-01,9.98439e-01
9.338787427e-01,3.87339e-01,9.99999e-01,9.35464e-01,5.51606e-01,7.50928e-01,9.93565e-01
9.385481364e-01,5.62706e-01,9.99999e-01,9.52220e-01,7.86667e-01,7.55189e-01,9.92351e-01
9.432408771e-01,5.26048e-01,9.99999e-01,9.70393e-01,7.17612e-01,7.59389e-01,9.93398e-01
9.479570815e-01,4.73321e-01,9.99999e-01,9.84748e-01,6.32477e-01,7.63529e-01,9.94623e-01
9.526968669e-01,5.37951e-01,9.99999e-01,9.92604e-01,7.07960e-01,7.67609e-01,9.96717e-01
9.574603512e-01,5.60170e-01,9.99999e-01,9.96829e-01,7.29357e-01,7.71629e-01,9.98330e-01
9.622476530e-01,5.98431e-01,9.99999e-01,9.99009e-01,7.73201e-01,7.75591e-01,9.98845e-01
9.670588912e-01,6.71593e-01,9.99999e-01,9.99702e-01,8.62502e-01,7.79494e-01,9.99210e-01
9.718941857e-01,7.13934e-01,9.99999e-01,9.99978e-01,9.11947e-01,7.83339e-01,9.99418e-01
9.767536566e-01,7.28855e-01,9.99999e-01,9.99999e-01,9.26380e-01,7.87126e-01,9.99555e-01
9.816374249e-01,7.47091e-01,9.99999e-01,9.99999e-01,9.44805e-01,7.90856e-01,9.99845e-01
9.865456120e-01,7.66820e-01,9.99999e-01,9.99999e-01,9.65154e-01,7.94530e-01,9.99967e-01
9.914783401e-01,7.80852e-01,9.99999e-01,9.99999e-01,9.78338e-01,7.98148e-01,9.99990e-01
9.964357318e-01,7.92201e-01,9.99999e-01,9.99999e-01,9.88143e-01,8.01711e-01,9.99994e-01
1.001417910e+00,7.99477e-01,9.99999e-01,9.99999e-01,9.92877e-01,8.05218e-01,9.99991e-01
1.006425000e+00,8.05381e-01,9.99999e-01,9.99999e-01,9.95942e-01,8.08671e-01,9.99988e-01
1.011457125e+00,8.10011e-01,9.99999e-01,9.99999e-01,9.97473e-01,8.12070e-01,9.99989e-01
1.016514411e+00,8.14014e-01,9.99999e-01,9.99999e-01,9.98286e-01,8.15416e-01,9.99992e-01
1.021596983e+00,8.17557e-01,9.99999e-01,9.99962e-01,9.98635e-01,8.18710e-01,9.99992e-01
1.026704968e+00,8.18636e-01,9.99999e-01,9.97030e-01,9.98936e-01,8.21951e-01,9.99994e-01
1.031838492e+00,7.95342e-01,9.99999e-01,9.64616e-01,9.99225e-01,8.25140e-01,9.99998e-01
1.036997685e+00,1.55005e-01,9.99999e-01,1.87210e-01,9.99540e-01,8.28279e-01,9.99999e-01
1.042182673e+00,1.44821e-01,9.99999e-01,1.74282e-01,9.99454e-01,8.31367e-01,9.99999e-01
1.047393587e+00,1.58883e-01,9.99999e-01,1.90537e-01,9.99275e-01,8.34405e-01,9.99999e-01
1.052630555e+00,8.00835e-03,9.99999e-01,9.57055e-03,9.99006e-01,8.37394e-01,9.99999e-01
1.057893707e+00,1.82150e-02,9.99999e-01,2.17012e-02,9.98344e-01,8.40335e-01,9.99998e-01
1.063183176e+00,5.07860e-02,9.99999e-01,6.03506e-02,9.97273e-01,8.43227e-01,9.99998e-01
1.068499092e+00,1.23318e-01,9.99999e-01,1.46331e-01,9.95431e-01,8.46072e-01,9.99996e-01
1.073841587e+00,2.50191e-01,9.99999e-01,2.96109e-01,9.94664e-01,8.48870e-01,9.99992e-01
1.079210795e+00,3.91952e-01,9.99999e-01,4.63192e-01,9.93144e-01,8.51622e-01,9.99981e-01
1.084606849e+00,5.54061e-01,9.99999e-01,6.55080e-01,9.89654e-01,8.54328e-01,9.99955e-01
1.090029883e+00,6.78350e-01,9.99999e-01,8.03211e-01,9.85248e-01,8.56989e-01,9.99908e-01
1.095480033e+00,7.41000e-01,9.99999e-01,8.97553e-01,9.60230e-01,8.59605e-01,9.99834e-01
1.100957433e+00,7.38318e-01,9.99999e-01,9.49301e-01,9.01956e-01,8.62178e-01,9.99696e-01
1.106462220e+00,6.51226e-01,9.99999e-01,9.78695e-01,7.69428e-01,8.64707e-01,9.99484e-01
1.111994531e+00,4.93839e-01,9.99999e-01,9.92052e-01,5.74546e-01,8.67193e-01,9.98633e-01
1.117554504e+00,3.52005e-01,9.99999e-01,9.98045e-01,4.07445e-01,8.69637e-01,9.95076e-01
1.123142276e+00,4.43927e-01,9.99999e-01,9.99870e-01,5.15096e-01,8.72040e-01,9.88364e-01
1.128757988e+00,5.65276e-01,9.99999e-01,9.99999e-01,6.55283e-01,8.74402e-01,9.86551e-01
1.134401778e+00,3.39461e-01,9.99999e-01,9.99999e-01,3.91783e-01,8.76723e-01,9.88284e-01
1.140073787e+00,6.77050e-01,9.99999e-01,9.99999e-01,7.77554e-01,8.79004e-01,9.90601e-01
1.145774156e+00,5.15949e-01,9.99999e-01,9.99999e-01,5.90426e-01,8.81246e-01,9.91615e-01
1.151503026e+00,4.89057e-01,9.99999e-01,9.99999e-01,5.56179e-01,8.83449e-01,9.95320e-01
1.157260541e+00,5.42270e-01,9.99999e-01,9.99999e-01,6.13168e-01,8.85615e-01,9.98598e-01
1.163046844e+00,6.17758e-01,9.99999e-01,9.99999e-01,6.96151e-01,8.87742e-01,9.99602e-01
1.168862078e+00,6.91863e-01,9.99999e-01,9.99999e-01,7.77679e-01,8.89832e-01,9.99794e-01
1.174706389e+00,7.63536e-01,9.99999e-01,9.99999e-01,8.56322e-01,8.91886e-01,9.99728e-01
1.180579921e+00,8.12980e-01,9.99999e-01,9.99999e-01,9.09843e-01,8.93904e-01,9.99589e-01
1.186482820e+00,8.49017e-01,9.99999e-01,9.99995e-01,9.48085e-01,8.95887e-01,9.99578e-01
1.192415234e+00,8.61012e-01,9.99999e-01,9.89467e-01,9.69406e-01,8.97834e-01,9.99684e-01
1.198377311e+00,5.00044e-01,9.99999e-01,5.68229e-01,9.74198e-01,8.99748e-01,9.99701e-01
1.204369197e+00,1.65296e-09,9.99999e-01,1.86018e-09,9.75538e-01,9.01627e-01,9.99729e-01
1.210391043e+00,2.06202e-33,9.99999e-01,2.31288e-33,9.76594e-01,9.03473e-01,9.99835e-01
1.216442998e+00,3.88345e-29,9.99999e-01,4.34390e-29,9.80013e-01,9.05286e-01,9.99899e-01
1.222525213e+00,1.01121e-28,9.99999e-01,1.12391e-28,9.84423e-01,9.07068e-01,9.99937e-01
1.228637839e+00,3.16100e-22,9.99999e-01,3.50479e-22,9.89167e-01,9.08817e-01,9.99970e-01
