#,Wave/freq,Total,N2,CO2,H2O,Rayleigh,CIA
4.000000000e-01,4.20989e-05,9.99999e-01,9.99999e-01,9.99980e-01,4.20997e-05,9.99999e-01
4.020000000e-01,5.13800e-05,9.99999e-01,9.99999e-01,9.99987e-01,5.13806e-05,9.99999e-01
4.040100000e-01,6.24481e-05,9.99999e-01,9.99999e-01,9.99994e-01,6.24485e-05,9.99999e-01
4.060300500e-01,7.56084e-05,9.99999e-01,9.99999e-01,9.99998e-01,7.56085e-05,9.99999e-01
4.080602003e-01,9.11966e-05,9.99999e-01,9.99999e-01,9.99999e-01,9.11967e-05,9.99999e-01
4.101005013e-01,1.09592e-04,9.99999e-01,9.99999e-01,9.99999e-01,1.09592e-04,9.99999e-01
4.121510038e-01,1.31221e-04,9.99999e-01,9.99999e-01,9.99998e-01,1.31221e-04,9.99999e-01
4.142117588e-01,1.56560e-04,9.99999e-01,9.99999e-01,9.99994e-01,1.56561e-04,9.99999e-01
4.162828176e-01,1.86139e-04,9.99999e-01,9.99999e-01,9.99975e-01,1.86143e-04,9.99999e-01
4.183642317e-01,2.20557e-04,9.99999e-01,9.99999e-01,9.99985e-01,2.20560e-04,9.99999e-01
4.204560528e-01,2.60464e-04,9.99999e-01,9.99999e-01,9.99990e-01,2.60466e-04,9.99999e-01
4.225583331e-01,3.06583e-04,9.99999e-01,9.99999e-01,9.99996e-01,3.06584e-04,9.99999e-01
4.246711247e-01,3.59706e-04,9.99999e-01,9.99999e-01,9.99996e-01,3.59707e-04,9.99999e-01
4.267944804e-01,4.20703e-04,9.99999e-01,9.99999e-01,9.99995e-01,4.20704e-04,9.99999e-01
4.289284528e-01,4.90524e-04,9.99999e-01,9.99999e-01,9.99996e-01,4.90526e-04,9.99999e-01
4.310730950e-01,5.70202e-04,9.99999e-01,9.99999e-01,9.99998e-01,5.70203e-04,9.99999e-01
4.332284605e-01,6.60854e-04,9.99999e-01,9.99999e-01,9.99999e-01,6.60854e-04,9.99999e-01
4.353946028e-01,7.63689e-04,9.99999e-01,9.99999e-01,9.99999e-01,7.63689e-04,9.99999e-01
4.375715758e-01,8.80006e-04,9.99999e-01,9.99999e-01,9.99997e-01,8.80008e-04,9.99999e-01
4.397594337e-01,1.01119e-03,9.99999e-01,9.99999e-01,9.99978e-01,1.01121e-03,9.99999e-01
4.419582309e-01,1.15866e-03,9.99999e-01,9.99999e-01,9.99892e-01,1.15878e-03,9.99999e-01
4.441680220e-01,1.32422e-03,9.99999e-01,9.99999e-01,9.99916e-01,1.32433e-03,9.99999e-01
4.463888621e-01,1.50940e-03,9.99999e-01,9.99999e-01,9.99912e-01,1.50954e-03,9.99999e-01
4.486208064e-01,1.71611e-03,9.99999e-01,9.99999e-01,9.99945e-01,1.71620e-03,9.99999e-01
4.508639105e-01,1.94617e-03,9.99999e-01,9.99999e-01,9.99974e-01,1.94622e-03,9.99999e-01
4.531182300e-01,2.20157e-03,9.99999e-01,9.99999e-01,9.99989e-01,2.20160e-03,9.99999e-01
4.553838212e-01,2.48440e-03,9.99999e-01,9.99999e-01,9.99992e-01,2.48442e-03,9.99999e-01
4.576607403e-01,2.79688e-03,9.99999e-01,9.99999e-01,9.99996e-01,2.79689e-03,9.99999e-01
4.599490440e-01,3.14130e-03,9.99999e-01,9.99999e-01,9.99997e-01,3.14131e-03,9.99999e-01
4.622487892e-01,3.52005e-03,9.99999e-01,9.99999e-01,9.99999e-01,3.52005e-03,9.99999e-01
4.645600332e-01,3.93559e-03,9.99999e-01,9.99999e-01,9.99997e-01,3.93559e-03,9.99999e-01
4.668828333e-01,4.39040e-03,9.99999e-01,9.99999e-01,9.99973e-01,4.39051e-03,9.99999e-01
4.692172475e-01,4.88717e-03,9.99999e-01,9.99999e-01,9.99944e-01,4.88743e-03,9.99999e-01
4.715633337e-01,5.42890e-03,9.99999e-01,9.99999e-01,9.99963e-01,5.42909e-03,9.99999e-01
4.739211504e-01,6.01807e-03,9.99999e-01,9.99999e-01,9.99965e-01,6.01827e-03,9.99999e-01
4.762907561e-01,6.65772e-03,9.99999e-01,9.99999e-01,9.99981e-01,6.65783e-03,9.99999e-01
4.786722099e-01,7.35063e-03,9.99999e-01,9.99999e-01,9.99992e-01,7.35068e-03,9.99999e-01
4.810655710e-01,8.09975e-03,9.99999e-01,9.99999e-01,9.99997e-01,8.09977e-03,9.99999e-01
4.834708988e-01,8.90793e-03,9.99999e-01,9.99999e-01,9.99978e-01,8.90811e-03,9.99999e-01
4.858882533e-01,9.77835e-03,9.99999e-01,9.99999e-01,9.99960e-01,9.77873e-03,9.99999e-01
4.883176946e-01,1.07143e-02,9.99999e-01,9.99999e-01,9.99967e-01,1.07147e-02,9.99999e-01
4.907592831e-01,1.17187e-02,9.99999e-01,9.99999e-01,9.99970e-01,1.17190e-02,9.99999e-01
4.932130795e-01,1.27946e-02,9.99999e-01,9.99999e-01,9.99978e-01,1.27949e-02,9.99999e-01
4.956791449e-01,1.39451e-02,9.99999e-01,9.99999e-01,9.99988e-01,1.39453e-02,9.99999e-01
4.981575406e-01,1.51724e-02,9.99999e-01,9.99999e-01,9.99944e-01,1.51733e-02,9.99999e-01
5.006483283e-01,1.64795e-02,9.99999e-01,9.99999e-01,9.99857e-01,1.64819e-02,9.99998e-01
5.031515699e-01,1.78611e-02,9.99999e-01,9.99999e-01,9.99278e-01,1.78742e-02,9.99991e-01
5.056673278e-01,1.93455e-02,9.99999e-01,9.99999e-01,9.99619e-01,1.93530e-02,9.99990e-01
5.081956644e-01,2.09112e-02,9.99999e-01,9.99999e-01,9.99519e-01,2.09213e-02,9.99993e-01
5.107366428e-01,2.25747e-02,9.99999e-01,9.99999e-01,9.99675e-01,2.25820e-02,9.99998e-01
5.132903260e-01,2.43332e-02,9.99999e-01,9.99999e-01,9.99814e-01,2.43377e-02,9.99999e-01
5.158567776e-01,2.61891e-02,9.99999e-01,9.99999e-01,9.99921e-01,2.61911e-02,9.99999e-01
5.184360615e-01,2.81440e-02,9.99999e-01,9.99999e-01,9.99968e-01,2.81449e-02,9.99999e-01
5.210282418e-01,3.02011e-02,9.99999e-01,9.99999e-01,9.99987e-01,3.02015e-02,9.99999e-01
5.236333830e-01,3.23616e-02,9.99999e-01,9.99999e-01,9.99952e-01,3.23632e-02,9.99999e-01
5.262515499e-01,3.46313e-02,9.99999e-01,9.99999e-01,9.99970e-01,3.46323e-02,9.99999e-01
5.288828077e-01,3.70099e-02,9.99999e-01,9.99999e-01,9.99972e-01,3.70109e-02,9.99999e-01
5.315272217e-01,3.95002e-02,9.99999e-01,9.99999e-01,9.99975e-01,3.95011e-02,9.99999e-01
5.341848578e-01,4.21040e-02,9.99999e-01,9.99999e-01,9.99984e-01,4.21046e-02,9.99999e-01
5.368557821e-01,4.48207e-02,9.99999e-01,9.99999e-01,9.99944e-01,4.48232e-02,9.99999e-01
5.395400610e-01,4.76488e-02,9.99999e-01,9.99999e-01,9.99801e-01,4.76583e-02,9.99997e-01
5.422377613e-01,5.05983e-02,9.99999e-01,9.99999e-01,9.99744e-01,5.06114e-02,9.99994e-01
5.449489501e-01,5.36708e-02,9.99999e-01,9.99999e-01,9.99762e-01,5.36838e-02,9.99994e-01
5.476736949e-01,5.68643e-02,9.99999e-01,9.99999e-01,9.99789e-01,5.68764e-02,9.99997e-01
5.504120634e-01,6.01809e-02,9.99999e-01,9.99999e-01,9.99847e-01,6.01901e-02,9.99998e-01
5.531641237e-01,6.36208e-02,9.99999e-01,9.99999e-01,9.99922e-01,6.36257e-02,9.99999e-01
5.559299443e-01,6.71812e-02,9.99999e-01,9.99999e-01,9.99962e-01,6.71836e-02,9.99999e-01
5.587095940e-01,7.08627e-02,9.99999e-01,9.99999e-01,9.99976e-01,7.08644e-02,9.99999e-01
5.615031420e-01,7.46661e-02,9.99999e-01,9.99999e-01,9.99973e-01,7.46681e-02,9.99999e-01
5.643106577e-01,7.85924e-02,9.99999e-01,9.99999e-01,9.99970e-01,7.85947e-02,9.99999e-01
5.671322110e-01,8.26143e-02,9.99999e-01,9.99999e-01,9.99642e-01,8.26441e-02,9.99996e-01
5.699678720e-01,8.67823e-02,9.99999e-01,9.99999e-01,9.99620e-01,8.68160e-02,9.99989e-01
5.728177114e-01,9.10731e-02,9.99999e-01,9.99999e-01,9.99604e-01,9.11098e-02,9.99991e-01
5.756818000e-01,9.54897e-02,9.99999e-01,9.99999e-01,9.99637e-01,9.55248e-02,9.99994e-01
5.785602090e-01,1.00028e-01,9.99999e-01,9.99999e-01,9.99683e-01,1.00060e-01,9.99998e-01
5.814530100e-01,1.04682e-01,9.99999e-01,9.99999e-01,9.99682e-01,1.04715e-01,9.99998e-01
5.843602750e-01,1.09446e-01,9.99999e-01,9.99999e-01,9.99621e-01,1.09488e-01,9.99997e-01
5.872820764e-01,1.14002e-01,9.99999e-01,9.99999e-01,9.96739e-01,1.14378e-01,9.99976e-01
5.902184868e-01,1.18904e-01,9.99999e-01,9.99999e-01,9.96054e-01,1.19383e-01,9.99937e-01
5.931695792e-01,1.24147e-01,9.99999e-01,9.99999e-01,9.97210e-01,1.24501e-01,9.99939e-01
5.961354271e-01,1.29331e-01,9.99999e-01,9.99999e-01,9.96943e-01,1.29732e-01,9.99965e-01
5.991161043e-01,1.34770e-01,9.99999e-01,9.99999e-01,9.97770e-01,1.35072e-01,9.99988e-01
6.021116848e-01,1.40342e-01,9.99999e-01,9.99999e-01,9.98734e-01,1.40520e-01,9.99998e-01
6.051222432e-01,1.45981e-01,9.99999e-01,9.99999e-01,9.99359e-01,1.46074e-01,9.99999e-01
6.081478544e-01,1.51689e-01,9.99999e-01,9.99999e-01,9.99723e-01,1.51731e-01,9.99999e-01
6.111885937e-01,1.57471e-01,9.99999e-01,9.99999e-01,9.99882e-01,1.57489e-01,9.99999e-01
6.142445367e-01,1.63337e-01,9.99999e-01,9.99999e-01,9.99947e-01,1.63346e-01,9.99999e-01
6.173157594e-01,1.69293e-01,9.99999e-01,9.99999e-01,9.99970e-01,1.69297e-01,9.99999e-01
6.204023382e-01,1.75338e-01,9.99999e-01,9.99999e-01,9.99975e-01,1.75342e-01,9.99999e-01
6.235043498e-01,1.81457e-01,9.99999e-01,9.99999e-01,9.99892e-01,1.81477e-01,9.99999e-01
6.266218716e-01,1.87591e-01,9.99999e-01,9.99999e-01,9.99431e-01,1.87699e-01,9.99995e-01
6.297549810e-01,1.93963e-01,9.99999e-01,9.99999e-01,9.99791e-01,1.94005e-01,9.99991e-01
6.329037559e-01,2.00308e-01,9.99999e-01,9.99999e-01,9.99587e-01,2.00392e-01,9.99993e-01
6.360682746e-01,2.06783e-01,9.99999e-01,9.99999e-01,9.99648e-01,2.06857e-01,9.99995e-01
6.392486160e-01,2.13299e-01,9.99999e-01,9.99999e-01,9.99545e-01,2.13396e-01,9.99997e-01
6.424448591e-01,2.19873e-01,9.99999e-01,9.99999e-01,9.99391e-01,2.20007e-01,9.99996e-01
6.456570834e-01,2.26043e-01,9.99999e-01,9.99999e-01,9.97175e-01,2.26686e-01,9.99983e-01
6.488853688e-01,2.32938e-01,9.99999e-01,9.99999e-01,9.97933e-01,2.33430e-01,9.99955e-01
6.521297956e-01,2.39721e-01,9.99999e-01,9.99999e-01,9.97893e-01,2.40236e-01,9.99963e-01
6.553904446e-01,2.46575e-01,9.99999e-01,9.99999e-01,9.97902e-01,2.47099e-01,9.99972e-01
6.586673968e-01,2.53559e-01,9.99999e-01,9.99999e-01,9.98204e-01,2.54018e-01,9.99990e-01
6.619607338e-01,2.60726e-01,9.99999e-01,9.99999e-01,9.98999e-01,2.60987e-01,9.99997e-01
6.652705375e-01,2.67844e-01,9.99999e-01,9.99999e-01,9.99399e-01,2.68005e-01,9.99998e-01
6.685968902e-01,2.74990e-01,9.99999e-01,9.99999e-01,9.99720e-01,2.75067e-01,9.99999e-01
6.719398746e-01,2.82133e-01,9.99999e-01,9.99999e-01,9.99870e-01,2.82170e-01,9.99999e-01
6.752995740e-01,2.89290e-01,9.99999e-01,9.99999e-01,9.99929e-01,2.89311e-01,9.99999e-01
6.786760719e-01,2.96456e-01,9.99999e-01,9.99999e-01,9.99898e-01,2.96486e-01,9.99999e-01
6.820694522e-01,3.03639e-01,9.99999e-01,9.99999e-01,9.99826e-01,3.03692e-01,9.99998e-01
6.854797995e-01,3.10855e-01,9.99999e-01,9.99999e-01,9.99776e-01,3.10925e-01,9.99997e-01
6.889071985e-01,3.18010e-01,9.99999e-01,9.99999e-01,9.99457e-01,3.18183e-01,9.99994e-01
6.923517345e-01,3.22578e-01,9.99999e-01,9.99999e-01,9.91179e-01,3.25462e-01,9.99957e-01
6.958134932e-01,3.31203e-01,9.99999e-01,9.99999e-01,9.95414e-01,3.32759e-01,9.99905e-01
6.992925606e-01,3.38558e-01,9.99999e-01,9.99999e-01,9.95635e-01,3.40071e-01,9.99915e-01
7.027890234e-01,3.45502e-01,9.99999e-01,9.99999e-01,9.94616e-01,3.47394e-01,9.99935e-01
7.063029686e-01,3.53108e-01,9.99999e-01,9.99999e-01,9.95473e-01,3.54725e-01,9.99967e-01
7.098344834e-01,3.60482e-01,9.99999e-01,9.99999e-01,9.95656e-01,3.62062e-01,9.99980e-01
7.133836558e-01,3.67247e-01,9.99999e-01,9.99999e-01,9.94205e-01,3.69401e-01,9.99961e-01
7.169505741e-01,3.59394e-01,9.99999e-01,9.99999e-01,9.54243e-01,3.76739e-01,9.99702e-01
7.205353270e-01,3.75197e-01,9.99999e-01,9.99999e-01,9.77399e-01,3.84074e-01,9.99476e-01
7.241380036e-01,3.80013e-01,9.99999e-01,9.99999e-01,9.71339e-01,3.91403e-01,9.99547e-01
7.277586936e-01,3.88254e-01,9.99999e-01,9.99999e-01,9.74103e-01,3.98722e-01,9.99630e-01
7.313974871e-01,3.94801e-01,9.99999e-01,9.99999e-01,9.72512e-01,4.06030e-01,9.99826e-01
7.350544745e-01,4.07058e-01,9.99999e-01,9.99999e-01,9.84898e-01,4.13324e-01,9.99939e-01
7.387297469e-01,4.15908e-01,9.99999e-01,9.99999e-01,9.88871e-01,4.20600e-01,9.99971e-01
7.424233956e-01,4.25521e-01,9.99999e-01,9.99999e-01,9.94543e-01,4.27857e-01,9.99994e-01
7.461355126e-01,4.33652e-01,9.99999e-01,9.99999e-01,9.96690e-01,4.35093e-01,9.99998e-01
7.498661902e-01,4.41622e-01,9.99999e-01,9.99999e-01,9.98458e-01,4.42304e-01,9.99999e-01
7.536155211e-01,4.49148e-01,9.99999e-01,9.99999e-01,9.99243e-01,4.49488e-01,9.99999e-01
7.573835987e-01,4.56467e-01,9.99999e-01,9.99999e-01,9.99610e-01,4.56644e-01,9.99999e-01
7.611705167e-01,4.63657e-01,9.99999e-01,9.99999e-01,9.99757e-01,4.63770e-01,9.99999e-01
7.649763693e-01,4.70791e-01,9.99999e-01,9.99999e-01,9.99847e-01,4.70862e-01,9.99999e-01
7.688012511e-01,4.77869e-01,9.99999e-01,9.99999e-01,9.99893e-01,4.77920e-01,9.99999e-01
7.726452574e-01,4.84898e-01,9.99999e-01,9.99999e-01,9.99912e-01,4.84940e-01,9.99999e-01
7.765084837e-01,4.91862e-01,9.99999e-01,9.99999e-01,9.99876e-01,4.91923e-01,9.99999e-01
7.803910261e-01,4.82398e-01,9.99999e-01,9.67493e-01,9.99465e-01,4.98864e-01,9.99998e-01
7.842929812e-01,4.36904e-01,9.99999e-01,8.65391e-01,9.98135e-01,5.05764e-01,9.99996e-01
7.882144461e-01,4.37387e-01,9.99999e-01,8.56419e-01,9.96164e-01,5.12620e-01,9.99973e-01
7.921555184e-01,4.73602e-01,9.99999e-01,9.13690e-01,9.97896e-01,5.19431e-01,9.99953e-01
7.961162960e-01,4.93531e-01,9.99999e-01,9.41435e-01,9.96280e-01,5.26195e-01,9.99956e-01
8.000968774e-01,5.13529e-01,9.99999e-01,9.67816e-01,9.95706e-01,5.32912e-01,9.99953e-01
8.040973618e-01,5.28225e-01,9.99999e-01,9.83209e-01,9.95704e-01,5.39578e-01,9.99962e-01
8.081178486e-01,5.36712e-01,9.99999e-01,9.92254e-01,9.90330e-01,5.46194e-01,9.99965e-01
8.121584379e-01,5.29458e-01,9.99999e-01,9.97604e-01,9.60255e-01,5.52758e-01,9.99864e-01
8.162192301e-01,5.32443e-01,9.99999e-01,9.99470e-01,9.53014e-01,5.59269e-01,9.99490e-01
8.203003262e-01,5.51954e-01,9.99999e-01,9.99991e-01,9.76244e-01,5.65725e-01,9.99403e-01
8.244018279e-01,5.52985e-01,9.99999e-01,9.99999e-01,9.67001e-01,5.72127e-01,9.99524e-01
8.285238370e-01,5.61892e-01,9.99999e-01,9.99999e-01,9.71699e-01,5.78472e-01,9.99626e-01
8.326664562e-01,5.67950e-01,9.99999e-01,9.99999e-01,9.71401e-01,5.84760e-01,9.99845e-01
8.368297885e-01,5.78861e-01,9.99999e-01,9.99999e-01,9.79509e-01,5.90991e-01,9.99964e-01
8.410139374e-01,5.89854e-01,9.99999e-01,9.99999e-01,9.87781e-01,5.97162e-01,9.99978e-01
8.452190071e-01,5.99645e-01,9.99999e-01,9.99999e-01,9.93993e-01,6.03275e-01,9.99987e-01
8.494451021e-01,6.07196e-01,9.99999e-01,9.99999e-01,9.96511e-01,6.09327e-01,9.99989e-01
8.536923276e-01,6.14046e-01,9.99999e-01,9.99999e-01,9.97936e-01,6.15319e-01,9.99993e-01
8.579607893e-01,6.20459e-01,9.99999e-01,9.99999e-01,9.98728e-01,6.21250e-01,9.99998e-01
8.622505932e-01,6.26612e-01,9.99999e-01,9.99999e-01,9.99192e-01,6.27118e-01,9.99999e-01
8.665618462e-01,5.86556e-01,9.99999e-01,9.27183e-01,9.99500e-01,6.32925e-01,9.99999e-01
8.708946554e-01,4.41812e-01,9.99999e-01,6.92151e-01,9.99427e-01,6.38670e-01,9.99999e-01
8.752491287e-01,4.78917e-01,9.99999e-01,7.43808e-01,9.99234e-01,6.44351e-01,9.99998e-01
8.796253743e-01,5.51971e-01,9.99999e-01,8.50104e-01,9.98939e-01,6.49969e-01,9.99997e-01
8.840235012e-01,6.01884e-01,9.99999e-01,9.19276e-01,9.98788e-01,6.55524e-01,9.99992e-01
8.884436187e-01,6.36652e-01,9.99999e-01,9.67401e-01,9.95577e-01,6.61015e-01,9.99978e-01
8.928858368e-01,6.27515e-01,9.99999e-01,9.86666e-01,9.54323e-01,6.66443e-01,9.99878e-01
8.973502660e-01,6.16131e-01,9.99999e-01,9.96749e-01,9.20629e-01,6.71806e-01,9.99380e-01
9.018370173e-01,6.48279e-01,9.99999e-01,9.99641e-01,9.58694e-01,6.77105e-01,9.99025e-01
9.063462024e-01,6.51013e-01,9.99999e-01,9.90785e-01,9.63520e-01,6.82340e-01,9.99144e-01
9.108779334e-01,6.34801e-01,9.99999e-01,9.79032e-01,9.43710e-01,6.87512e-01,9.99110e-01
9.154323231e-01,6.44900e-01,9.99999e-01,9.95046e-01,9.36332e-01,6.92619e-01,9.99264e-01
9.200094847e-01,6.17520e-01,9.99999e-01,9.29899e-01,9.49785e-01,6.97661e-01,9.99588e-01
9.246095321e-01,5.84966e-01,9.99999e-01,9.01446e-01,9.22322e-01,7.02640e-01,9.99525e-01
9.292325798e-01,3.82687e-01,9.99999e-01,9.21786e-01,5.82959e-01,7.07556e-01,9.98152e-01
9.338787427e-01,3.28691e-01,9.99999e-01,9.24396e-01,4.98908e-01,7.12407e-01,9.92385e-01
9.385481364e-01,5.08386e-01,9.99999e-01,9.43882e-01,7.55421e-01,7.17195e-01,9.90950e-01
9.432408771e-01,4.68883e-01,9.99999e-01,9.65283e-01,6.76875e-01,7.21919e-01,9.92188e-01
9.479570815e-01,4.14602e-01,9.99999e-01,9.82034e-01,5.84219e-01,7.26581e-01,9.93637e-01
9.526968669e-01,4.82771e-01,9.99999e-01,9.91300e-01,6.68156e-01,7.31179e-01,9.96114e-01
9.574603512e-01,5.04720e-01,9.99999e-01,9.96271e-01,6.89791e-01,7.35715e-01,9.98024e-01
9.622476530e-01,5.45781e-01,9.99999e-01,9.98836e-01,7.39174e-01,7.40189e-01,9.98633e-01
9.670588912e-01,6.24756e-01,9.99999e-01,9.99651e-01,8.40112e-01,7.44600e-01,9.99064e-01
9.718941857e-01,6.71178e-01,9.99999e-01,9.99974e-01,8.96795e-01,7.48950e-01,9.99311e-01
9.767536566e-01,6.87759e-01,9.99999e-01,9.99999e-01,9.13548e-01,7.53239e-01,9.99473e-01
9.816374249e-01,7.08268e-01,9.99999e-01,9.99999e-01,9.35216e-01,7.57467e-01,9.99817e-01
9.865456120e-01,7.30403e-01,9.99999e-01,9.99999e-01,9.59029e-01,7.61635e-01,9.99961e-01
9.914783401e-01,7.46192e-01,9.99999e-01,9.99999e-01,9.74479e-01,7.65742e-01,9.99988e-01
9.964357318e-01,7.59026e-01,9.99999e-01,9.99999e-01,9.86023e-01,7.69790e-01,9.99993e-01
1.001417910e+00,7.67273e-01,9.99999e-01,9.99999e-01,9.91602e-01,7.73778e-01,9.99990e-01
1.006425000e+00,7.73968e-01,9.99999e-01,9.99999e-01,9.95204e-01,7.77708e-01,9.99986e-01
1.011457125e+00,7.79243e-01,9.99999e-01,9.99999e-01,9.97022e-01,7.81580e-01,9.99987e-01
1.016514411e+00,7.83798e-01,9.99999e-01,9.99999e-01,9.97977e-01,7.85393e-01,9.99990e-01
1.021596983e+00,7.87832e-01,9.99999e-01,9.99950e-01,9.98387e-01,7.89150e-01,9.99990e-01
1.026704968e+00,7.88999e-01,9.99999e-01,9.96399e-01,9.98742e-01,7.92850e-01,9.99993e-01
1.031838492e+00,7.61284e-01,9.99999e-01,9.56643e-01,9.99085e-01,7.96493e-01,9.99997e-01
1.036997685e+00,1.27075e-01,9.99999e-01,1.58896e-01,9.99456e-01,8.00081e-01,9.99999e-01
1.042182673e+00,1.05003e-01,9.99999e-01,1.30738e-01,9.99352e-01,8.03614e-01,9.99999e-01
1.047393587e+00,1.21716e-01,9.99999e-01,1.50923e-01,9.99141e-01,8.07092e-01,9.99999e-01
1.052630555e+00,3.88386e-03,9.99999e-01,4.79600e-03,9.98821e-01,8.10516e-01,9.99999e-01
1.057893707e+00,9.71266e-03,9.99999e-01,1.19497e-02,9.98033e-01,8.13886e-01,9.99998e-01
1.063183176e+00,3.12302e-02,9.99999e-01,3.83054e-02,9.96764e-01,8.17203e-01,9.99997e-01
1.068499092e+00,8.49952e-02,9.99999e-01,1.04070e-01,9.94587e-01,8.20468e-01,9.99995e-01
1.073841587e+00,1.96154e-01,9.99999e-01,2.39444e-01,9.93666e-01,8.23682e-01,9.99991e-01
1.079210795e+00,3.32002e-01,9.99999e-01,4.04538e-01,9.91892e-01,8.26843e-01,9.99977e-01
1.084606849e+00,4.98582e-01,9.99999e-01,6.07885e-01,9.87747e-01,8.29955e-01,9.99947e-01
1.090029883e+00,6.32252e-01,9.99999e-01,7.72290e-01,9.82430e-01,8.33016e-01,9.99891e-01
1.095480033e+00,7.01618e-01,9.99999e-01,8.80487e-01,9.52852e-01,8.36027e-01,9.99804e-01
1.100957433e+00,6.98110e-01,9.99999e-01,9.40530e-01,8.84475e-01,8.38990e-01,9.99640e-01
1.106462220e+00,6.01183e-01,9.99999e-01,9.74972e-01,7.32211e-01,8.41904e-01,9.99390e-01
1.111994531e+00,4.34824e-01,9.99999e-01,9.90650e-01,5.20086e-01,8.44771e-01,9.98382e-01
1.117554504e+00,2.92769e-01,9.99999e-01,9.97711e-01,3.48092e-01,8.47591e-01,9.94173e-01
1.123142276e+00,3.87907e-01,9.99999e-01,9.99849e-01,4.62565e-01,8.50364e-01,9.86237e-01
1.128757988e+00,5.10839e-01,9.99999e-01,9.99999e-01,6.08486e-01,8.53090e-01,9.84096e-01
1.134401778e+00,2.94117e-01,9.99999e-01,9.99999e-01,3.48403e-01,8.55772e-01,9.86461e-01
1.140073787e+00,6.30630e-01,9.99999e-01,9.99999e-01,7.42694e-01,8.58409e-01,9.89167e-01
1.145774156e+00,4.59622e-01,9.99999e-01,9.99999e-01,5.39171e-01,8.61001e-01,9.90079e-01
1.151503026e+00,4.31950e-01,9.99999e-01,9.99999e-01,5.02988e-01,8.63550e-01,9.94461e-01
1.157260541e+00,4.85913e-01,9.99999e-01,9.99999e-01,5.61996e-01,8.66056e-01,9.98340e-01
1.163046844e+00,5.66881e-01,9.99999e-01,9.99999e-01,6.53005e-01,8.68520e-01,9.99529e-01
1.168862078e+00,6.47330e-01,9.99999e-01,9.99999e-01,7.43432e-01,8.70942e-01,9.99757e-01
1.174706389e+00,7.27059e-01,9.99999e-01,9.99999e-01,8.32788e-01,8.73322e-01,9.99678e-01
1.180579921e+00,7.82944e-01,9.99999e-01,9.99999e-01,8.94551e-01,8.75662e-01,9.99513e-01
1.186482820e+00,8.23965e-01,9.99999e-01,9.99992e-01,9.38972e-01,8.77961e-01,9.99500e-01
1.192415234e+00,8.37401e-01,9.99999e-01,9.87187e-01,9.63924e-01,8.80221e-01,9.99626e-01
1.198377311e+00,4.83542e-01,9.99999e-01,5.62527e-01,9.69502e-01,8.82442e-01,9.99646e-01
1.204369197e+00,7.62420e-11,9.99999e-01,8.76837e-11,9.71118e-01,8.84625e-01,9.99680e-01
1.210391043e+00,3.78719e-39,9.99999e-01,4.33853e-39,9.72365e-01,8.86769e-01,9.99805e-01
1.216442998e+00,4.36575e-34,9.99999e-01,4.98504e-34,9.76449e-01,8.88877e-01,9.99880e-01
1.222525213e+00,1.35197e-33,9.99999e-01,1.53212e-33,9.81618e-01,8.90947e-01,9.99925e-01
1.228637839e+00,5.09000e-26,9.99999e-01,5.75133e-26,9.87201e-01,8.92982e-01,9.99965e-01
