#,Wave/freq,Total,N2,CO2,H2O,Rayleigh,CIA
4.000000000e-01,1.15297e-03,9.99999e-01,9.99999e-01,9.99986e-01,1.15299e-03,9.99999e-01
4.020000000e-01,1.31801e-03,9.99999e-01,9.99999e-01,9.99991e-01,1.31802e-03,9.99999e-01
4.040100000e-01,1.50248e-03,9.99999e-01,9.99999e-01,9.99996e-01,1.50248e-03,9.99999e-01
4.060300500e-01,1.70834e-03,9.99999e-01,9.99999e-01,9.99998e-01,1.70834e-03,9.99999e-01
4.080602003e-01,1.93748e-03,9.99999e-01,9.99999e-01,9.99999e-01,1.93748e-03,9.99999e-01
4.101005013e-01,2.19191e-03,9.99999e-01,9.99999e-01,9.99999e-01,2.19191e-03,9.99999e-01
4.121510038e-01,2.47370e-03,9.99999e-01,9.99999e-01,9.99999e-01,2.47370e-03,9.99999e-01
4.142117588e-01,2.78505e-03,9.99999e-01,9.99999e-01,9.99995e-01,2.78506e-03,9.99999e-01
4.162828176e-01,3.12823e-03,9.99999e-01,9.99999e-01,9.99983e-01,3.12828e-03,9.99999e-01
4.183642317e-01,3.50571e-03,9.99999e-01,9.99999e-01,9.99989e-01,3.50574e-03,9.99999e-01
4.204560528e-01,3.91989e-03,9.99999e-01,9.99999e-01,9.99993e-01,3.91991e-03,9.99999e-01
4.225583331e-01,4.37335e-03,9.99999e-01,9.99999e-01,9.99997e-01,4.37336e-03,9.99999e-01
4.246711247e-01,4.86871e-03,9.99999e-01,9.99999e-01,9.99997e-01,4.86872e-03,9.99999e-01
4.267944804e-01,5.40870e-03,9.99999e-01,9.99999e-01,9.99996e-01,5.40872e-03,9.99999e-01
4.289284528e-01,5.99612e-03,9.99999e-01,9.99999e-01,9.99997e-01,5.99613e-03,9.99999e-01
4.310730950e-01,6.63381e-03,9.99999e-01,9.99999e-01,9.99998e-01,6.63382e-03,9.99999e-01
4.332284605e-01,7.32469e-03,9.99999e-01,9.99999e-01,9.99999e-01,7.32469e-03,9.99999e-01
4.353946028e-01,8.07170e-03,9.99999e-01,9.99999e-01,9.99999e-01,8.07170e-03,9.99999e-01
4.375715758e-01,8.87783e-03,9.99999e-01,9.99999e-01,9.99997e-01,8.87784e-03,9.99999e-01
4.397594337e-01,9.74602e-03,9.99999e-01,9.99999e-01,9.99985e-01,9.74616e-03,9.99999e-01
4.419582309e-01,1.06789e-02,9.99999e-01,9.99999e-01,9.99927e-01,1.06797e-02,9.99999e-01
4.441680220e-01,1.16809e-02,9.99999e-01,9.99999e-01,9.99943e-01,1.16815e-02,9.99999e-01
4.463888621e-01,1.27540e-02,9.99999e-01,9.99999e-01,9.99941e-01,1.27547e-02,9.99999e-01
4.486208064e-01,1.39019e-02,9.99999e-01,9.99999e-01,9.99963e-01,1.39024e-02,9.99999e-01
4.508639105e-01,1.51273e-02,9.99999e-01,9.99999e-01,9.99982e-01,1.51275e-02,9.99999e-01
4.531182300e-01,1.64331e-02,9.99999e-01,9.99999e-01,9.99992e-01,1.64332e-02,9.99999e-01
4.553838212e-01,1.78223e-02,9.99999e-01,9.99999e-01,9.99994e-01,1.78224e-02,9.99999e-01
4.576607403e-01,1.92980e-02,9.99999e-01,9.99999e-01,9.99997e-01,1.92981e-02,9.99999e-01
4.599490440e-01,2.08631e-02,9.99999e-01,9.99999e-01,9.99998e-01,2.08631e-02,9.99999e-01
4.622487892e-01,2.25204e-02,9.99999e-01,9.99999e-01,9.99999e-01,2.25204e-02,9.99999e-01
4.645600332e-01,2.42726e-02,9.99999e-01,9.99999e-01,9.99998e-01,2.42726e-02,9.99999e-01
4.668828333e-01,2.61220e-02,9.99999e-01,9.99999e-01,9.99982e-01,2.61225e-02,9.99999e-01
4.692172475e-01,2.80715e-02,9.99999e-01,9.99999e-01,9.99962e-01,2.80726e-02,9.99999e-01
4.715633337e-01,3.01246e-02,9.99999e-01,9.99999e-01,9.99975e-01,3.01254e-02,9.99999e-01
4.739211504e-01,3.22825e-02,9.99999e-01,9.99999e-01,9.99976e-01,3.22832e-02,9.99999e-01
4.762907561e-01,3.45480e-02,9.99999e-01,9.99999e-01,9.99987e-01,3.45484e-02,9.99999e-01
4.786722099e-01,3.69229e-02,9.99999e-01,9.99999e-01,9.99994e-01,3.69231e-02,9.99999e-01
4.810655710e-01,3.94091e-02,9.99999e-01,9.99999e-01,9.99998e-01,3.94092e-02,9.99999e-01
4.834708988e-01,4.20080e-02,9.99999e-01,9.99999e-01,9.99985e-01,4.20086e-02,9.99999e-01
4.858882533e-01,4.47218e-02,9.99999e-01,9.99999e-01,9.99973e-01,4.47229e-02,9.99999e-01
4.883176946e-01,4.75528e-02,9.99999e-01,9.99999e-01,9.99977e-01,4.75539e-02,9.99999e-01
4.907592831e-01,5.05017e-02,9.99999e-01,9.99999e-01,9.99979e-01,5.05027e-02,9.99999e-01
4.932130795e-01,5.35700e-02,9.99999e-01,9.99999e-01,9.99985e-01,5.35707e-02,9.99999e-01
4.956791449e-01,5.67585e-02,9.99999e-01,9.99999e-01,9.99992e-01,5.67589e-02,9.99999e-01
4.981575406e-01,6.00661e-02,9.99999e-01,9.99999e-01,9.99962e-01,6.00683e-02,9.99999e-01
5.006483283e-01,6.34934e-02,9.99999e-01,9.99999e-01,9.99904e-01,6.34994e-02,9.99998e-01
5.031515699e-01,6.70202e-02,9.99999e-01,9.99999e-01,9.99515e-01,6.70530e-02,9.99994e-01
5.056673278e-01,7.07108e-02,9.99999e-01,9.99999e-01,9.99743e-01,7.07293e-02,9.99993e-01
5.081956644e-01,7.45042e-02,9.99999e-01,9.99999e-01,9.99677e-01,7.45285e-02,9.99995e-01
5.107366428e-01,7.84336e-02,9.99999e-01,9.99999e-01,9.99781e-01,7.84507e-02,9.99998e-01
5.132903260e-01,8.24854e-02,9.99999e-01,9.99999e-01,9.99875e-01,8.24957e-02,9.99999e-01
5.158567776e-01,8.66586e-02,9.99999e-01,9.99999e-01,9.99946e-01,8.66632e-02,9.99999e-01
5.184360615e-01,9.09506e-02,9.99999e-01,9.99999e-01,9.99978e-01,9.09526e-02,9.99999e-01
5.210282418e-01,9.53625e-02,9.99999e-01,9.99999e-01,9.99991e-01,9.53632e-02,9.99999e-01
5.236333830e-01,9.98911e-02,9.99999e-01,9.99999e-01,9.99968e-01,9.98943e-02,9.99999e-01
5.262515499e-01,1.04543e-01,9.99999e-01,9.99999e-01,9.99979e-01,1.04545e-01,9.99999e-01
5.288828077e-01,1.09311e-01,9.99999e-01,9.99999e-01,9.99981e-01,1.09313e-01,9.99999e-01
5.315272217e-01,1.14197e-01,9.99999e-01,9.99999e-01,9.99983e-01,1.14199e-01,9.99999e-01
5.341848578e-01,1.19199e-01,9.99999e-01,9.99999e-01,9.99989e-01,1.19200e-01,9.99999e-01
5.368557821e-01,1.24310e-01,9.99999e-01,9.99999e-01,9.99962e-01,1.24314e-01,9.99999e-01
5.395400610e-01,1.29524e-01,9.99999e-01,9.99999e-01,9.99867e-01,1.29541e-01,9.99998e-01
5.422377613e-01,1.34854e-01,9.99999e-01,9.99999e-01,9.99828e-01,1.34877e-01,9.99996e-01
5.449489501e-01,1.40299e-01,9.99999e-01,9.99999e-01,9.99840e-01,1.40322e-01,9.99996e-01
5.476736949e-01,1.45851e-01,9.99999e-01,9.99999e-01,9.99858e-01,1.45872e-01,9.99997e-01
5.504120634e-01,1.51510e-01,9.99999e-01,9.99999e-01,9.99897e-01,1.51525e-01,9.99999e-01
5.531641237e-01,1.57271e-01,9.99999e-01,9.99999e-01,9.99947e-01,1.57280e-01,9.99999e-01
5.559299443e-01,1.63128e-01,9.99999e-01,9.99999e-01,9.99974e-01,1.63132e-01,9.99999e-01
5.587095940e-01,1.69078e-01,9.99999e-01,9.99999e-01,9.99983e-01,1.69081e-01,9.99999e-01
5.615031420e-01,1.75119e-01,9.99999e-01,9.99999e-01,9.99982e-01,1.75122e-01,9.99999e-01
5.643106577e-01,1.81250e-01,9.99999e-01,9.99999e-01,9.99979e-01,1.81254e-01,9.99999e-01
5.671322110e-01,1.87428e-01,9.99999e-01,9.99999e-01,9.99761e-01,1.87473e-01,9.99997e-01
5.699678720e-01,1.93725e-01,9.99999e-01,9.99999e-01,9.99744e-01,1.93776e-01,9.99992e-01
5.728177114e-01,2.00106e-01,9.99999e-01,9.99999e-01,9.99734e-01,2.00160e-01,9.99994e-01
5.756818000e-01,2.06571e-01,9.99999e-01,9.99999e-01,9.99756e-01,2.06622e-01,9.99996e-01
5.785602090e-01,2.13113e-01,9.99999e-01,9.99999e-01,9.99787e-01,2.13159e-01,9.99998e-01
5.814530100e-01,2.19720e-01,9.99999e-01,9.99999e-01,9.99786e-01,2.19767e-01,9.99999e-01
5.843602750e-01,2.26386e-01,9.99999e-01,9.99999e-01,9.99746e-01,2.26444e-01,9.99998e-01
5.872820764e-01,2.32673e-01,9.99999e-01,9.99999e-01,9.97815e-01,2.33186e-01,9.99984e-01
5.902184868e-01,2.39342e-01,9.99999e-01,9.99999e-01,9.97346e-01,2.39989e-01,9.99957e-01
5.931695792e-01,2.46378e-01,9.99999e-01,9.99999e-01,9.98126e-01,2.46851e-01,9.99959e-01
5.961354271e-01,2.53240e-01,9.99999e-01,9.99999e-01,9.97944e-01,2.53767e-01,9.99976e-01
5.991161043e-01,2.60342e-01,9.99999e-01,9.99999e-01,9.98500e-01,2.60735e-01,9.99992e-01
6.021116848e-01,2.67522e-01,9.99999e-01,9.99999e-01,9.99148e-01,2.67751e-01,9.99998e-01
6.051222432e-01,2.74693e-01,9.99999e-01,9.99999e-01,9.99568e-01,2.74811e-01,9.99999e-01
6.081478544e-01,2.81860e-01,9.99999e-01,9.99999e-01,9.99813e-01,2.81913e-01,9.99999e-01
6.111885937e-01,2.89029e-01,9.99999e-01,9.99999e-01,9.99920e-01,2.89052e-01,9.99999e-01
6.142445367e-01,2.96216e-01,9.99999e-01,9.99999e-01,9.99964e-01,2.96226e-01,9.99999e-01
6.173157594e-01,3.03425e-01,9.99999e-01,9.99999e-01,9.99980e-01,3.03431e-01,9.99999e-01
6.204023382e-01,3.10659e-01,9.99999e-01,9.99999e-01,9.99983e-01,3.10664e-01,9.99999e-01
6.235043498e-01,3.17898e-01,9.99999e-01,9.99999e-01,9.99927e-01,3.17921e-01,9.99999e-01
6.266218716e-01,3.25074e-01,9.99999e-01,9.99999e-01,9.99618e-01,3.25199e-01,9.99996e-01
6.297549810e-01,3.32447e-01,9.99999e-01,9.99999e-01,9.99859e-01,3.32495e-01,9.99994e-01
6.329037559e-01,3.39711e-01,9.99999e-01,9.99999e-01,9.99722e-01,3.39806e-01,9.99995e-01
6.360682746e-01,3.47047e-01,9.99999e-01,9.99999e-01,9.99764e-01,3.47129e-01,9.99996e-01
6.392486160e-01,3.54352e-01,9.99999e-01,9.99999e-01,9.99694e-01,3.54460e-01,9.99998e-01
6.424448591e-01,3.61649e-01,9.99999e-01,9.99999e-01,9.99592e-01,3.61797e-01,9.99997e-01
6.456570834e-01,3.68434e-01,9.99999e-01,9.99999e-01,9.98108e-01,3.69136e-01,9.99989e-01
6.488853688e-01,3.75940e-01,9.99999e-01,9.99999e-01,9.98609e-01,3.76474e-01,9.99970e-01
6.521297956e-01,3.83256e-01,9.99999e-01,9.99999e-01,9.98582e-01,3.83809e-01,9.99974e-01
6.553904446e-01,3.90583e-01,9.99999e-01,9.99999e-01,9.98598e-01,3.91138e-01,9.99981e-01
6.586673968e-01,3.97975e-01,9.99999e-01,9.99999e-01,9.98792e-01,3.98458e-01,9.99993e-01
6.619607338e-01,4.05483e-01,9.99999e-01,9.99999e-01,9.99301e-01,4.05766e-01,9.99998e-01
6.652705375e-01,4.12893e-01,9.99999e-01,9.99999e-01,9.99595e-01,4.13060e-01,9.99998e-01
6.685968902e-01,4.20259e-01,9.99999e-01,9.99999e-01,9.99811e-01,4.20338e-01,9.99999e-01
6.719398746e-01,4.27558e-01,9.99999e-01,9.99999e-01,9.99912e-01,4.27595e-01,9.99999e-01
6.752995740e-01,4.34811e-01,9.99999e-01,9.99999e-01,9.99952e-01,4.34832e-01,9.99999e-01
6.786760719e-01,4.42014e-01,9.99999e-01,9.99999e-01,9.99931e-01,4.42044e-01,9.99999e-01
6.820694522e-01,4.49177e-01,9.99999e-01,9.99999e-01,9.99883e-01,4.49229e-01,9.99998e-01
6.854797995e-01,4.56317e-01,9.99999e-01,9.99999e-01,9.99849e-01,4.56386e-01,9.99998e-01
6.889071985e-01,4.63344e-01,9.99999e-01,9.99999e-01,9.99638e-01,4.63513e-01,9.99996e-01
6.923517345e-01,4.67809e-01,9.99999e-01,9.99999e-01,9.94084e-01,4.70606e-01,9.99971e-01
6.958134932e-01,4.76153e-01,9.99999e-01,9.99999e-01,9.96898e-01,4.77665e-01,9.99935e-01
6.992925606e-01,4.83242e-01,9.99999e-01,9.99999e-01,9.97074e-01,4.84687e-01,9.99943e-01
7.027890234e-01,4.89870e-01,9.99999e-01,9.99999e-01,9.96378e-01,4.91671e-01,9.99956e-01
7.063029686e-01,4.97086e-01,9.99999e-01,9.99999e-01,9.96956e-01,4.98614e-01,9.99977e-01
7.098344834e-01,5.04033e-01,9.99999e-01,9.99999e-01,9.97080e-01,5.05516e-01,9.99986e-01
7.133836558e-01,5.10375e-01,9.99999e-01,9.99999e-01,9.96124e-01,5.12373e-01,9.99974e-01
7.169505741e-01,5.03017e-01,9.99999e-01,9.99999e-01,9.69050e-01,5.19186e-01,9.99800e-01
7.205353270e-01,5.17701e-01,9.99999e-01,9.99999e-01,9.84658e-01,5.25952e-01,9.99648e-01
7.241380036e-01,5.22212e-01,9.99999e-01,9.99999e-01,9.80663e-01,5.32670e-01,9.99696e-01
7.277586936e-01,5.29784e-01,9.99999e-01,9.99999e-01,9.82528e-01,5.39338e-01,9.99751e-01
7.313974871e-01,5.35742e-01,9.99999e-01,9.99999e-01,9.81405e-01,5.45956e-01,9.99883e-01
7.350544745e-01,5.46873e-01,9.99999e-01,9.99999e-01,9.89816e-01,5.52522e-01,9.99959e-01
7.387297469e-01,5.54832e-01,9.99999e-01,9.99999e-01,9.92499e-01,5.59034e-01,9.99980e-01
7.424233956e-01,5.63412e-01,9.99999e-01,9.99999e-01,9.96323e-01,5.65493e-01,9.99995e-01
7.461355126e-01,5.70622e-01,9.99999e-01,9.99999e-01,9.97771e-01,5.71897e-01,9.99998e-01
7.498661902e-01,5.77643e-01,9.99999e-01,9.99999e-01,9.98961e-01,5.78244e-01,9.99999e-01
7.536155211e-01,5.84237e-01,9.99999e-01,9.99999e-01,9.99490e-01,5.84534e-01,9.99999e-01
7.573835987e-01,5.90612e-01,9.99999e-01,9.99999e-01,9.99737e-01,5.90767e-01,9.99999e-01
7.611705167e-01,5.96843e-01,9.99999e-01,9.99999e-01,9.99836e-01,5.96941e-01,9.99999e-01
7.649763693e-01,6.02994e-01,9.99999e-01,9.99999e-01,9.99897e-01,6.03055e-01,9.99999e-01
7.688012511e-01,6.09066e-01,9.99999e-01,9.99999e-01,9.99928e-01,6.09110e-01,9.99999e-01
7.726452574e-01,6.15068e-01,9.99999e-01,9.99999e-01,9.99941e-01,6.15104e-01,9.99999e-01
7.765084837e-01,6.20985e-01,9.99999e-01,9.99999e-01,9.99916e-01,6.21036e-01,9.99999e-01
7.803910261e-01,6.12790e-01,9.99999e-01,9.77822e-01,9.99642e-01,6.26908e-01,9.99999e-01
7.842929812e-01,5.72786e-01,9.99999e-01,9.06375e-01,9.98752e-01,6.32717e-01,9.99997e-01
7.882144461e-01,5.73205e-01,9.99999e-01,9.00061e-01,9.97422e-01,6.38463e-01,9.99983e-01
7.921555184e-01,6.05331e-01,9.99999e-01,9.41080e-01,9.98583e-01,6.44147e-01,9.99969e-01
7.961162960e-01,6.22308e-01,9.99999e-01,9.60145e-01,9.97506e-01,6.49767e-01,9.99970e-01
8.000968774e-01,6.39187e-01,9.99999e-01,9.78221e-01,9.97115e-01,6.55324e-01,9.99968e-01
8.040973618e-01,6.51419e-01,9.99999e-01,9.88648e-01,9.97115e-01,6.60818e-01,9.99974e-01
8.081178486e-01,6.58465e-01,9.99999e-01,9.94782e-01,9.93517e-01,6.66248e-01,9.99976e-01
8.121584379e-01,6.52484e-01,9.99999e-01,9.98381e-01,9.73170e-01,6.71613e-01,9.99908e-01
8.162192301e-01,6.54862e-01,9.99999e-01,9.99642e-01,9.68093e-01,6.76915e-01,9.99657e-01
8.203003262e-01,6.70975e-01,9.99999e-01,9.99993e-01,9.84012e-01,6.82152e-01,9.99599e-01
8.244018279e-01,6.71633e-01,9.99999e-01,9.99999e-01,9.77479e-01,6.87326e-01,9.99680e-01
8.285238370e-01,6.79046e-01,9.99999e-01,9.99999e-01,9.80909e-01,6.92435e-01,9.99749e-01
8.326664562e-01,6.83926e-01,9.99999e-01,9.99999e-01,9.80667e-01,6.97480e-01,9.99896e-01
8.368297885e-01,6.92728e-01,9.99999e-01,9.99999e-01,9.86166e-01,7.02462e-01,9.99975e-01
8.410139374e-01,7.01543e-01,9.99999e-01,9.99999e-01,9.91762e-01,7.07379e-01,9.99985e-01
8.452190071e-01,7.09345e-01,9.99999e-01,9.99999e-01,9.95953e-01,7.12233e-01,9.99991e-01
8.494451021e-01,7.15337e-01,9.99999e-01,9.99999e-01,9.97654e-01,7.17023e-01,9.99992e-01
8.536923276e-01,7.20744e-01,9.99999e-01,9.99999e-01,9.98610e-01,7.21750e-01,9.99995e-01
8.579607893e-01,7.25792e-01,9.99999e-01,9.99999e-01,9.99145e-01,7.26413e-01,9.99998e-01
8.622505932e-01,7.30617e-01,9.99999e-01,9.99999e-01,9.99456e-01,7.31014e-01,9.99999e-01
8.665618462e-01,6.94605e-01,9.99999e-01,9.44638e-01,9.99664e-01,7.35552e-01,9.99999e-01
8.708946554e-01,5.75066e-01,9.99999e-01,7.77377e-01,9.99615e-01,7.40028e-01,9.99999e-01
8.752491287e-01,6.08357e-01,9.99999e-01,8.17610e-01,9.99485e-01,7.44442e-01,9.99998e-01
8.796253743e-01,6.70428e-01,9.99999e-01,8.95968e-01,9.99288e-01,7.48794e-01,9.99997e-01
8.840235012e-01,7.10968e-01,9.99999e-01,9.44838e-01,9.99187e-01,7.53085e-01,9.99994e-01
8.884436187e-01,7.38392e-01,9.99999e-01,9.77890e-01,9.97052e-01,7.57315e-01,9.99985e-01
8.928858368e-01,7.31323e-01,9.99999e-01,9.90999e-01,9.69143e-01,7.61485e-01,9.99918e-01
8.973502660e-01,7.22235e-01,9.99999e-01,9.97802e-01,9.45807e-01,7.65595e-01,9.99583e-01
9.018370173e-01,7.47341e-01,9.99999e-01,9.99757e-01,9.71886e-01,7.69645e-01,9.99345e-01
9.063462024e-01,7.49599e-01,9.99999e-01,9.93837e-01,9.75377e-01,7.73635e-01,9.99425e-01
9.108779334e-01,7.36903e-01,9.99999e-01,9.85834e-01,9.61786e-01,7.77567e-01,9.99402e-01
9.154323231e-01,7.44770e-01,9.99999e-01,9.96648e-01,9.56704e-01,7.81441e-01,9.99506e-01
9.200094847e-01,7.22433e-01,9.99999e-01,9.51607e-01,9.65877e-01,7.85257e-01,9.99723e-01
9.246095321e-01,6.97212e-01,9.99999e-01,9.32493e-01,9.47118e-01,7.89015e-01,9.99681e-01
9.292325798e-01,5.21218e-01,9.99999e-01,9.46706e-01,6.92577e-01,7.92717e-01,9.98758e-01
9.338787427e-01,4.68450e-01,9.99999e-01,9.48376e-01,6.20951e-01,7.96363e-01,9.94881e-01
9.385481364e-01,6.32235e-01,9.99999e-01,9.61871e-01,8.25432e-01,7.99952e-01,9.93914e-01
9.432408771e-01,5.97429e-01,9.99999e-01,9.76486e-01,7.64776e-01,8.03487e-01,9.94747e-01
9.479570815e-01,5.47382e-01,9.99999e-01,9.87881e-01,6.89268e-01,8.06967e-01,9.95723e-01
9.526968669e-01,6.09012e-01,9.99999e-01,9.94134e-01,7.57632e-01,8.10393e-01,9.97389e-01
9.574603512e-01,6.30053e-01,9.99999e-01,9.97488e-01,7.77139e-01,8.13765e-01,9.98672e-01
9.622476530e-01,6.64667e-01,9.99999e-01,9.99215e-01,8.14823e-01,8.17084e-01,9.99081e-01
9.670588912e-01,7.28581e-01,9.99999e-01,9.99764e-01,8.88892e-01,8.20351e-01,9.99371e-01
9.718941857e-01,7.64980e-01,9.99999e-01,9.99982e-01,9.29306e-01,8.23566e-01,9.99537e-01
9.767536566e-01,7.77664e-01,9.99999e-01,9.99999e-01,9.40981e-01,8.26730e-01,9.99646e-01
9.816374249e-01,7.93169e-01,9.99999e-01,9.99999e-01,9.55922e-01,8.29843e-01,9.99877e-01
9.865456120e-01,8.09769e-01,9.99999e-01,9.99999e-01,9.72245e-01,8.32906e-01,9.99974e-01
9.914783401e-01,8.21508e-01,9.99999e-01,9.99999e-01,9.82766e-01,8.35919e-01,9.99992e-01
9.964357318e-01,8.30978e-01,9.99999e-01,9.99999e-01,9.90579e-01,8.38884e-01,9.99995e-01
1.001417910e+00,8.37034e-01,9.99999e-01,9.99999e-01,9.94344e-01,8.41800e-01,9.99993e-01
1.006425000e+00,8.41938e-01,9.99999e-01,9.99999e-01,9.96775e-01,8.44668e-01,9.99990e-01
1.011457125e+00,8.45784e-01,9.99999e-01,9.99999e-01,9.97995e-01,8.47490e-01,9.99991e-01
1.016514411e+00,8.49103e-01,9.99999e-01,9.99999e-01,9.98639e-01,8.50264e-01,9.99993e-01
1.021596983e+00,8.52037e-01,9.99999e-01,9.99968e-01,9.98916e-01,8.52993e-01,9.99993e-01
1.026704968e+00,8.52902e-01,9.99999e-01,9.97603e-01,9.99154e-01,8.55676e-01,9.99995e-01
1.031838492e+00,8.30574e-01,9.99999e-01,9.68261e-01,9.99385e-01,8.58314e-01,9.99998e-01
1.036997685e+00,1.95851e-01,9.99999e-01,2.27561e-01,9.99634e-01,8.60909e-01,9.99999e-01
1.042182673e+00,2.11378e-01,9.99999e-01,2.44901e-01,9.99565e-01,8.63459e-01,9.99999e-01
1.047393587e+00,2.11940e-01,9.99999e-01,2.44871e-01,9.99423e-01,8.65967e-01,9.99999e-01
1.052630555e+00,1.84252e-02,9.99999e-01,2.12296e-02,9.99209e-01,8.68432e-01,9.99999e-01
1.057893707e+00,3.84350e-02,9.99999e-01,4.41780e-02,9.98680e-01,8.70855e-01,9.99999e-01
1.063183176e+00,8.96626e-02,9.99999e-01,1.02852e-01,9.97828e-01,8.73237e-01,9.99998e-01
1.068499092e+00,1.87269e-01,9.99999e-01,2.14572e-01,9.96363e-01,8.75578e-01,9.99997e-01
1.073841587e+00,3.30886e-01,9.99999e-01,3.78348e-01,9.95746e-01,8.77879e-01,9.99994e-01
1.079210795e+00,4.73878e-01,9.99999e-01,5.41195e-01,9.94546e-01,8.80140e-01,9.99984e-01
1.084606849e+00,6.25405e-01,9.99999e-01,7.14517e-01,9.91758e-01,8.82363e-01,9.99964e-01
1.090029883e+00,7.34537e-01,9.99999e-01,8.40213e-01,9.88197e-01,8.84547e-01,9.99927e-01
1.095480033e+00,7.87961e-01,9.99999e-01,9.17812e-01,9.68135e-01,8.86693e-01,9.99868e-01
1.100957433e+00,7.85419e-01,9.99999e-01,9.59571e-01,9.20882e-01,8.88801e-01,9.99758e-01
1.106462220e+00,7.09756e-01,9.99999e-01,9.83078e-01,8.10415e-01,8.90873e-01,9.99590e-01
1.111994531e+00,5.68588e-01,9.99999e-01,9.93696e-01,6.41322e-01,8.92909e-01,9.98913e-01
1.117554504e+00,4.32798e-01,9.99999e-01,9.98455e-01,4.86177e-01,8.94909e-01,9.96083e-01
1.123142276e+00,5.19921e-01,9.99999e-01,9.99897e-01,5.85159e-01,8.96874e-01,9.90738e-01
1.128757988e+00,6.32836e-01,9.99999e-01,9.99999e-01,7.11705e-01,8.98804e-01,9.89293e-01
1.134401778e+00,4.08551e-01,9.99999e-01,9.99999e-01,4.57763e-01,9.00700e-01,9.90888e-01
1.140073787e+00,7.32503e-01,9.99999e-01,9.99999e-01,8.17537e-01,9.02563e-01,9.92713e-01
1.145774156e+00,5.88380e-01,9.99999e-01,9.99999e-01,6.54949e-01,9.04392e-01,9.93328e-01
1.151503026e+00,5.62672e-01,9.99999e-01,9.99999e-01,6.23240e-01,9.06189e-01,9.96277e-01
1.157260541e+00,6.13514e-01,9.99999e-01,9.99999e-01,6.76463e-01,9.07954e-01,9.98885e-01
1.163046844e+00,6.81379e-01,9.99999e-01,9.99999e-01,7.49262e-01,9.09687e-01,9.99683e-01
1.168862078e+00,7.46173e-01,9.99999e-01,9.99999e-01,8.18852e-01,9.11390e-01,9.99836e-01
1.174706389e+00,8.06979e-01,9.99999e-01,9.99999e-01,8.84006e-01,9.13062e-01,9.99783e-01
1.180579921e+00,8.48301e-01,9.99999e-01,9.99999e-01,9.27707e-01,9.14703e-01,9.99673e-01
1.186482820e+00,8.78027e-01,9.99999e-01,9.99995e-01,9.58539e-01,9.16316e-01,9.99664e-01
1.192415234e+00,8.87675e-01,9.99999e-01,9.91431e-01,9.75614e-01,9.17899e-01,9.99748e-01
1.198377311e+00,5.19146e-01,9.99999e-01,5.74690e-01,9.79418e-01,9.19453e-01,9.99762e-01
1.204369197e+00,5.08672e-08,9.99999e-01,5.58744e-08,9.80498e-01,9.20980e-01,9.99785e-01
1.210391043e+00,5.03801e-27,9.99999e-01,5.51941e-27,9.81347e-01,9.22478e-01,9.99869e-01
1.216442998e+00,1.26323e-23,9.99999e-01,1.38091e-23,9.84100e-01,9.23950e-01,9.99919e-01
1.222525213e+00,2.72816e-23,9.99999e-01,2.96728e-23,9.87608e-01,9.25395e-01,9.99949e-01
1.228637839e+00,5.47245e-18,9.99999e-01,5.94083e-18,9.91383e-01,9.26813e-01,9.99976e-01
