#,Wave/freq,Total,N2,CO2,H2O,Rayleigh,CIA
4.000000000e-01,1.90387e-04,9.99999e-01,9.99999e-01,9.99983e-01,1.90390e-04,9.99999e-01
4.020000000e-01,2.25528e-04,9.99999e-01,9.99999e-01,9.99989e-01,2.25530e-04,9.99999e-01
4.040100000e-01,2.66218e-04,9.99999e-01,9.99999e-01,9.99995e-01,2.66219e-04,9.99999e-01
4.060300500e-01,3.13219e-04,9.99999e-01,9.99999e-01,9.99998e-01,3.13220e-04,9.99999e-01
4.080602003e-01,3.67337e-04,9.99999e-01,9.99999e-01,9.99999e-01,3.67337e-04,9.99999e-01
4.101005013e-01,4.29450e-04,9.99999e-01,9.99999e-01,9.99999e-01,4.29450e-04,9.99999e-01
4.121510038e-01,5.00520e-04,9.99999e-01,9.99999e-01,9.99998e-01,5.00520e-04,9.99999e-01
4.142117588e-01,5.81586e-04,9.99999e-01,9.99999e-01,9.99994e-01,5.81589e-04,9.99999e-01
4.162828176e-01,6.73773e-04,9.99999e-01,9.99999e-01,9.99979e-01,6.73787e-04,9.99999e-01
4.183642317e-01,7.78327e-04,9.99999e-01,9.99999e-01,9.99987e-01,7.78336e-04,9.99999e-01
4.204560528e-01,8.96543e-04,9.99999e-01,9.99999e-01,9.99992e-01,8.96550e-04,9.99999e-01
4.225583331e-01,1.02983e-03,9.99999e-01,9.99999e-01,9.99996e-01,1.02984e-03,9.99999e-01
4.246711247e-01,1.17970e-03,9.99999e-01,9.99999e-01,9.99997e-01,1.17971e-03,9.99999e-01
4.267944804e-01,1.34776e-03,9.99999e-01,9.99999e-01,9.99996e-01,1.34776e-03,9.99999e-01
4.289284528e-01,1.53571e-03,9.99999e-01,9.99999e-01,9.99996e-01,1.53572e-03,9.99999e-01
4.310730950e-01,1.74537e-03,9.99999e-01,9.99999e-01,9.99998e-01,1.74537e-03,9.99999e-01
4.332284605e-01,1.97864e-03,9.99999e-01,9.99999e-01,9.99999e-01,1.97864e-03,9.99999e-01
4.353946028e-01,2.23754e-03,9.99999e-01,9.99999e-01,9.99999e-01,2.23754e-03,9.99999e-01
4.375715758e-01,2.52417e-03,9.99999e-01,9.99999e-01,9.99997e-01,2.52418e-03,9.99999e-01
4.397594337e-01,2.84071e-03,9.99999e-01,9.99999e-01,9.99981e-01,2.84076e-03,9.99999e-01
4.419582309e-01,3.18930e-03,9.99999e-01,9.99999e-01,9.99907e-01,3.18959e-03,9.99999e-01
4.441680220e-01,3.57283e-03,9.99999e-01,9.99999e-01,9.99928e-01,3.57308e-03,9.99999e-01
4.463888621e-01,3.99341e-03,9.99999e-01,9.99999e-01,9.99925e-01,3.99371e-03,9.99999e-01
4.486208064e-01,4.45384e-03,9.99999e-01,9.99999e-01,9.99953e-01,4.45405e-03,9.99999e-01
4.508639105e-01,4.95665e-03,9.99999e-01,9.99999e-01,9.99978e-01,4.95676e-03,9.99999e-01
4.531182300e-01,5.50452e-03,9.99999e-01,9.99999e-01,9.99991e-01,5.50457e-03,9.99999e-01
4.553838212e-01,6.10024e-03,9.99999e-01,9.99999e-01,9.99993e-01,6.10028e-03,9.99999e-01
4.576607403e-01,6.74673e-03,9.99999e-01,9.99999e-01,9.99996e-01,6.74675e-03,9.99999e-01
4.599490440e-01,7.44688e-03,9.99999e-01,9.99999e-01,9.99997e-01,7.44689e-03,9.99999e-01
4.622487892e-01,8.20368e-03,9.99999e-01,9.99999e-01,9.99999e-01,8.20368e-03,9.99999e-01
4.645600332e-01,9.02011e-03,9.99999e-01,9.99999e-01,9.99998e-01,9.02012e-03,9.99999e-01
4.668828333e-01,9.89903e-03,9.99999e-01,9.99999e-01,9.99977e-01,9.89924e-03,9.99999e-01
4.692172475e-01,1.08436e-02,9.99999e-01,9.99999e-01,9.99953e-01,1.08441e-02,9.99999e-01
4.715633337e-01,1.18574e-02,9.99999e-01,9.99999e-01,9.99969e-01,1.18578e-02,9.99999e-01
4.739211504e-01,1.29430e-02,9.99999e-01,9.99999e-01,9.99970e-01,1.29434e-02,9.99999e-01
4.762907561e-01,1.41037e-02,9.99999e-01,9.99999e-01,9.99984e-01,1.41039e-02,9.99999e-01
4.786722099e-01,1.53423e-02,9.99999e-01,9.99999e-01,9.99993e-01,1.53424e-02,9.99999e-01
4.810655710e-01,1.66620e-02,9.99999e-01,9.99999e-01,9.99997e-01,1.66620e-02,9.99999e-01
4.834708988e-01,1.80653e-02,9.99999e-01,9.99999e-01,9.99981e-01,1.80656e-02,9.99999e-01
4.858882533e-01,1.95555e-02,9.99999e-01,9.99999e-01,9.99966e-01,1.95562e-02,9.99999e-01
4.883176946e-01,2.11360e-02,9.99999e-01,9.99999e-01,9.99972e-01,2.11366e-02,9.99999e-01
4.907592831e-01,2.28091e-02,9.99999e-01,9.99999e-01,9.99974e-01,2.28097e-02,9.99999e-01
4.932130795e-01,2.45778e-02,9.99999e-01,9.99999e-01,9.99981e-01,2.45782e-02,9.99999e-01
4.956791449e-01,2.64446e-02,9.99999e-01,9.99999e-01,9.99990e-01,2.64449e-02,9.99999e-01
4.981575406e-01,2.84108e-02,9.99999e-01,9.99999e-01,9.99952e-01,2.84122e-02,9.99999e-01
5.006483283e-01,3.04788e-02,9.99999e-01,9.99999e-01,9.99878e-01,3.04825e-02,9.99998e-01
5.031515699e-01,3.26382e-02,9.99999e-01,9.99999e-01,9.99386e-01,3.26584e-02,9.99993e-01
5.056673278e-01,3.49304e-02,9.99999e-01,9.99999e-01,9.99676e-01,3.49420e-02,9.99992e-01
5.081956644e-01,3.73199e-02,9.99999e-01,9.99999e-01,9.99591e-01,3.73353e-02,9.99995e-01
5.107366428e-01,3.98294e-02,9.99999e-01,9.99999e-01,9.99724e-01,3.98404e-02,9.99998e-01
5.132903260e-01,4.24524e-02,9.99999e-01,9.99999e-01,9.99842e-01,4.24591e-02,9.99999e-01
5.158567776e-01,4.51901e-02,9.99999e-01,9.99999e-01,9.99933e-01,4.51931e-02,9.99999e-01
5.184360615e-01,4.80426e-02,9.99999e-01,9.99999e-01,9.99972e-01,4.80438e-02,9.99999e-01
5.210282418e-01,5.10122e-02,9.99999e-01,9.99999e-01,9.99989e-01,5.10127e-02,9.99999e-01
5.236333830e-01,5.40988e-02,9.99999e-01,9.99999e-01,9.99959e-01,5.41010e-02,9.99999e-01
5.262515499e-01,5.73081e-02,9.99999e-01,9.99999e-01,9.99974e-01,5.73096e-02,9.99999e-01
5.288828077e-01,6.06381e-02,9.99999e-01,9.99999e-01,9.99976e-01,6.06395e-02,9.99999e-01
5.315272217e-01,6.40900e-02,9.99999e-01,9.99999e-01,9.99979e-01,6.40913e-02,9.99999e-01
5.341848578e-01,6.76647e-02,9.99999e-01,9.99999e-01,9.99986e-01,6.76656e-02,9.99999e-01
5.368557821e-01,7.13593e-02,9.99999e-01,9.99999e-01,9.99952e-01,7.13626e-02,9.99999e-01
5.395400610e-01,7.51699e-02,9.99999e-01,9.99999e-01,9.99830e-01,7.51826e-02,9.99998e-01
5.422377613e-01,7.91082e-02,9.99999e-01,9.99999e-01,9.99782e-01,7.91256e-02,9.99995e-01
5.449489501e-01,8.31742e-02,9.99999e-01,9.99999e-01,9.99797e-01,8.31913e-02,9.99995e-01
5.476736949e-01,8.73637e-02,9.99999e-01,9.99999e-01,9.99821e-01,8.73794e-02,9.99997e-01
5.504120634e-01,9.16774e-02,9.99999e-01,9.99999e-01,9.99870e-01,9.16894e-02,9.99998e-01
5.531641237e-01,9.61142e-02,9.99999e-01,9.99999e-01,9.99934e-01,9.61204e-02,9.99999e-01
5.559299443e-01,1.00669e-01,9.99999e-01,9.99999e-01,9.99968e-01,1.00672e-01,9.99999e-01
5.587095940e-01,1.05340e-01,9.99999e-01,9.99999e-01,9.99979e-01,1.05342e-01,9.99999e-01
5.615031420e-01,1.10128e-01,9.99999e-01,9.99999e-01,9.99977e-01,1.10131e-01,9.99999e-01
5.643106577e-01,1.15033e-01,9.99999e-01,9.99999e-01,9.99974e-01,1.15036e-01,9.99999e-01
5.671322110e-01,1.20019e-01,9.99999e-01,9.99999e-01,9.99693e-01,1.20056e-01,9.99996e-01
5.699678720e-01,1.25148e-01,9.99999e-01,9.99999e-01,9.99678e-01,1.25190e-01,9.99991e-01
5.728177114e-01,1.30390e-01,9.99999e-01,9.99999e-01,9.99663e-01,1.30435e-01,9.99992e-01
5.756818000e-01,1.35747e-01,9.99999e-01,9.99999e-01,9.99691e-01,1.35790e-01,9.99995e-01
5.785602090e-01,1.41214e-01,9.99999e-01,9.99999e-01,9.99731e-01,1.41252e-01,9.99998e-01
5.814530100e-01,1.46780e-01,9.99999e-01,9.99999e-01,9.99729e-01,1.46820e-01,9.99998e-01
5.843602750e-01,1.52441e-01,9.99999e-01,9.99999e-01,9.99677e-01,1.52491e-01,9.99997e-01
5.872820764e-01,1.57819e-01,9.99999e-01,9.99999e-01,9.97220e-01,1.58262e-01,9.99980e-01
5.902184868e-01,1.63572e-01,9.99999e-01,9.99999e-01,9.96646e-01,1.64131e-01,9.99946e-01
5.931695792e-01,1.69683e-01,9.99999e-01,9.99999e-01,9.97626e-01,1.70095e-01,9.99948e-01
5.961354271e-01,1.75689e-01,9.99999e-01,9.99999e-01,9.97401e-01,1.76152e-01,9.99970e-01
5.991161043e-01,1.81952e-01,9.99999e-01,9.99999e-01,9.98105e-01,1.82299e-01,9.99990e-01
6.021116848e-01,1.88329e-01,9.99999e-01,9.99999e-01,9.98925e-01,1.88532e-01,9.99998e-01
6.051222432e-01,1.94743e-01,9.99999e-01,9.99999e-01,9.99456e-01,1.94849e-01,9.99999e-01
6.081478544e-01,2.01199e-01,9.99999e-01,9.99999e-01,9.99765e-01,2.01246e-01,9.99999e-01
6.111885937e-01,2.07701e-01,9.99999e-01,9.99999e-01,9.99900e-01,2.07721e-01,9.99999e-01
6.142445367e-01,2.14261e-01,9.99999e-01,9.99999e-01,9.99955e-01,2.14270e-01,9.99999e-01
6.173157594e-01,2.20885e-01,9.99999e-01,9.99999e-01,9.99975e-01,2.20891e-01,9.99999e-01
6.204023382e-01,2.27574e-01,9.99999e-01,9.99999e-01,9.99978e-01,2.27579e-01,9.99999e-01
6.235043498e-01,2.34309e-01,9.99999e-01,9.99999e-01,9.99907e-01,2.34331e-01,9.99999e-01
6.266218716e-01,2.41027e-01,9.99999e-01,9.99999e-01,9.99516e-01,2.41144e-01,9.99996e-01
6.297549810e-01,2.47970e-01,9.99999e-01,9.99999e-01,9.99822e-01,2.48015e-01,9.99992e-01
6.329037559e-01,2.54850e-01,9.99999e-01,9.99999e-01,9.99649e-01,2.54941e-01,9.99994e-01
6.360682746e-01,2.61838e-01,9.99999e-01,9.99999e-01,9.99701e-01,2.61917e-01,9.99996e-01
6.392486160e-01,2.68836e-01,9.99999e-01,9.99999e-01,9.99613e-01,2.68941e-01,9.99998e-01
6.424448591e-01,2.75864e-01,9.99999e-01,9.99999e-01,9.99480e-01,2.76008e-01,9.99996e-01
6.456570834e-01,2.82431e-01,9.99999e-01,9.99999e-01,9.97591e-01,2.83117e-01,9.99984e-01
6.488853688e-01,2.89742e-01,9.99999e-01,9.99999e-01,9.98243e-01,2.90262e-01,9.99962e-01
6.521297956e-01,2.96900e-01,9.99999e-01,9.99999e-01,9.98209e-01,2.97441e-01,9.99968e-01
6.553904446e-01,3.04101e-01,9.99999e-01,9.99999e-01,9.98215e-01,3.04651e-01,9.99976e-01
6.586673968e-01,3.11410e-01,9.99999e-01,9.99999e-01,9.98473e-01,3.11888e-01,9.99991e-01
6.619607338e-01,3.18878e-01,9.99999e-01,9.99999e-01,9.99149e-01,3.19149e-01,9.99997e-01
6.652705375e-01,3.26264e-01,9.99999e-01,9.99999e-01,9.99489e-01,3.26431e-01,9.99998e-01
6.685968902e-01,3.33658e-01,9.99999e-01,9.99999e-01,9.99782e-01,3.33730e-01,9.99999e-01
6.719398746e-01,3.41006e-01,9.99999e-01,9.99999e-01,9.99889e-01,3.41043e-01,9.99999e-01
6.752995740e-01,3.48347e-01,9.99999e-01,9.99999e-01,9.99940e-01,3.48367e-01,9.99999e-01
6.786760719e-01,3.55669e-01,9.99999e-01,9.99999e-01,9.99913e-01,3.55700e-01,9.99999e-01
6.820694522e-01,3.62983e-01,9.99999e-01,9.99999e-01,9.99852e-01,3.63037e-01,9.99998e-01
6.854797995e-01,3.70305e-01,9.99999e-01,9.99999e-01,9.99809e-01,3.70376e-01,9.99997e-01
6.889071985e-01,3.77537e-01,9.99999e-01,9.99999e-01,9.99536e-01,3.77714e-01,9.99995e-01
6.923517345e-01,3.82138e-01,9.99999e-01,9.99999e-01,9.92477e-01,3.85048e-01,9.99963e-01
6.958134932e-01,3.90821e-01,9.99999e-01,9.99999e-01,9.96116e-01,3.92376e-01,9.99919e-01
6.992925606e-01,3.98178e-01,9.99999e-01,9.99999e-01,9.96279e-01,3.99694e-01,9.99927e-01
7.027890234e-01,4.05115e-01,9.99999e-01,9.99999e-01,9.95423e-01,4.07000e-01,9.99944e-01
7.063029686e-01,4.12685e-01,9.99999e-01,9.99999e-01,9.96150e-01,4.14291e-01,9.99972e-01
7.098344834e-01,4.20002e-01,9.99999e-01,9.99999e-01,9.96306e-01,4.21565e-01,9.99983e-01
7.133836558e-01,4.26685e-01,9.99999e-01,9.99999e-01,9.95052e-01,4.28820e-01,9.99967e-01
7.169505741e-01,4.18877e-01,9.99999e-01,9.99999e-01,9.60855e-01,4.36052e-01,9.99747e-01
7.205353270e-01,4.34563e-01,9.99999e-01,9.99999e-01,9.80815e-01,4.43260e-01,9.99554e-01
7.241380036e-01,4.39255e-01,9.99999e-01,9.99999e-01,9.75542e-01,4.50441e-01,9.99615e-01
7.277586936e-01,4.47345e-01,9.99999e-01,9.99999e-01,9.77912e-01,4.57593e-01,9.99685e-01
7.313974871e-01,4.53776e-01,9.99999e-01,9.99999e-01,9.76605e-01,4.64714e-01,9.99852e-01
7.350544745e-01,4.65717e-01,9.99999e-01,9.99999e-01,9.87153e-01,4.71802e-01,9.99948e-01
7.387297469e-01,4.74313e-01,9.99999e-01,9.99999e-01,9.90539e-01,4.78854e-01,9.99976e-01
7.424233956e-01,4.83617e-01,9.99999e-01,9.99999e-01,9.95366e-01,4.85870e-01,9.99995e-01
7.461355126e-01,4.91462e-01,9.99999e-01,9.99999e-01,9.97188e-01,4.92847e-01,9.99998e-01
7.498661902e-01,4.99130e-01,9.99999e-01,9.99999e-01,9.98691e-01,4.99784e-01,9.99999e-01
7.536155211e-01,5.06352e-01,9.99999e-01,9.99999e-01,9.99357e-01,5.06678e-01,9.99999e-01
7.573835987e-01,5.13358e-01,9.99999e-01,9.99999e-01,9.99669e-01,5.13528e-01,9.99999e-01
7.611705167e-01,5.20226e-01,9.99999e-01,9.99999e-01,9.99794e-01,5.20333e-01,9.99999e-01
7.649763693e-01,5.27023e-01,9.99999e-01,9.99999e-01,9.99870e-01,5.27091e-01,9.99999e-01
7.688012511e-01,5.33752e-01,9.99999e-01,9.99999e-01,9.99909e-01,5.33800e-01,9.99999e-01
7.726452574e-01,5.40420e-01,9.99999e-01,9.99999e-01,9.99925e-01,5.40460e-01,9.99999e-01
7.765084837e-01,5.47011e-01,9.99999e-01,9.99999e-01,9.99894e-01,5.47069e-01,9.99999e-01
7.803910261e-01,5.37642e-01,9.99999e-01,9.71558e-01,9.99544e-01,5.53626e-01,9.99999e-01
7.842929812e-01,4.94416e-01,9.99999e-01,8.84033e-01,9.98410e-01,5.60130e-01,9.99996e-01
7.882144461e-01,4.94658e-01,9.99999e-01,8.75843e-01,9.96737e-01,5.66579e-01,9.99977e-01
7.921555184e-01,5.29619e-01,9.99999e-01,9.25992e-01,9.98213e-01,5.72973e-01,9.99960e-01
7.961162960e-01,5.48626e-01,9.99999e-01,9.50056e-01,9.96829e-01,5.79311e-01,9.99962e-01
8.000968774e-01,5.67446e-01,9.99999e-01,9.72594e-01,9.96347e-01,5.85591e-01,9.99960e-01
8.040973618e-01,5.81229e-01,9.99999e-01,9.85740e-01,9.96344e-01,5.91814e-01,9.99969e-01
8.081178486e-01,5.89129e-01,9.99999e-01,9.93418e-01,9.91749e-01,5.97978e-01,9.99969e-01
8.121584379e-01,5.82314e-01,9.99999e-01,9.97971e-01,9.66018e-01,6.04082e-01,9.99884e-01
8.162192301e-01,5.85164e-01,9.99999e-01,9.99551e-01,9.59925e-01,6.10127e-01,9.99566e-01
8.203003262e-01,6.03255e-01,9.99999e-01,9.99993e-01,9.79635e-01,6.16110e-01,9.99492e-01
8.244018279e-01,6.04313e-01,9.99999e-01,9.99999e-01,9.71905e-01,6.22033e-01,9.99595e-01
8.285238370e-01,6.12540e-01,9.99999e-01,9.99999e-01,9.75856e-01,6.27894e-01,9.99682e-01
8.326664562e-01,6.18169e-01,9.99999e-01,9.99999e-01,9.75630e-01,6.33692e-01,9.99868e-01
8.368297885e-01,6.28262e-01,9.99999e-01,9.99999e-01,9.82566e-01,6.39428e-01,9.99969e-01
8.410139374e-01,6.38390e-01,9.99999e-01,9.99999e-01,9.89613e-01,6.45101e-01,9.99981e-01
8.452190071e-01,6.47385e-01,9.99999e-01,9.99999e-01,9.94899e-01,6.50711e-01,9.99989e-01
8.494451021e-01,6.54306e-01,9.99999e-01,9.99999e-01,9.97034e-01,6.56257e-01,9.99991e-01
8.536923276e-01,6.60577e-01,9.99999e-01,9.99999e-01,9.98247e-01,6.61740e-01,9.99994e-01
8.579607893e-01,6.66437e-01,9.99999e-01,9.99999e-01,9.98919e-01,6.67159e-01,9.99998e-01
8.622505932e-01,6.72052e-01,9.99999e-01,9.99999e-01,9.99313e-01,6.72514e-01,9.99999e-01
8.665618462e-01,6.32446e-01,9.99999e-01,9.33462e-01,9.99574e-01,6.77804e-01,9.99999e-01
8.708946554e-01,4.98021e-01,9.99999e-01,7.29477e-01,9.99512e-01,6.83031e-01,9.99999e-01
8.752491287e-01,5.34256e-01,9.99999e-01,7.76809e-01,9.99348e-01,6.88194e-01,9.99998e-01
8.796253743e-01,6.03309e-01,9.99999e-01,8.70976e-01,9.99096e-01,6.93292e-01,9.99997e-01
8.840235012e-01,6.49474e-01,9.99999e-01,9.30996e-01,9.98968e-01,6.98327e-01,9.99993e-01
8.884436187e-01,6.81223e-01,9.99999e-01,9.72283e-01,9.96212e-01,7.03297e-01,9.99981e-01
8.928858368e-01,6.72786e-01,9.99999e-01,9.88677e-01,9.60890e-01,7.08204e-01,9.99896e-01
8.973502660e-01,6.62440e-01,9.99999e-01,9.97246e-01,9.32040e-01,7.13047e-01,9.99472e-01
9.018370173e-01,6.91793e-01,9.99999e-01,9.99696e-01,9.64816e-01,7.17826e-01,9.99171e-01
9.063462024e-01,6.94101e-01,9.99999e-01,9.92102e-01,9.68794e-01,7.22542e-01,9.99272e-01
9.108779334e-01,6.79445e-01,9.99999e-01,9.82166e-01,9.51849e-01,7.27195e-01,9.99243e-01
9.154323231e-01,6.88660e-01,9.99999e-01,9.95806e-01,9.45553e-01,7.31785e-01,9.99374e-01
9.200094847e-01,6.62971e-01,9.99999e-01,9.39265e-01,9.57127e-01,7.36313e-01,9.99649e-01
9.246095321e-01,6.33350e-01,9.99999e-01,9.15595e-01,9.32923e-01,7.40778e-01,9.99596e-01
9.292325798e-01,4.39539e-01,9.99999e-01,9.32814e-01,6.29339e-01,7.45182e-01,9.98428e-01
9.338787427e-01,3.86264e-01,9.99999e-01,9.35336e-01,5.51219e-01,7.49524e-01,9.93521e-01
9.385481364e-01,5.61626e-01,9.99999e-01,9.52096e-01,7.86745e-01,7.53804e-01,9.92300e-01
9.432408771e-01,5.22885e-01,9.99999e-01,9.70450e-01,7.14557e-01,7.58024e-01,9.93353e-01
9.479570815e-01,4.69534e-01,9.99999e-01,9.84718e-01,6.28545e-01,7.62184e-01,9.94587e-01
9.526968669e-01,5.36681e-01,9.99999e-01,9.92609e-01,7.07526e-01,7.66283e-01,9.96694e-01
9.574603512e-01,5.58341e-01,9.99999e-01,9.96835e-01,7.28212e-01,7.70323e-01,9.98319e-01
9.622476530e-01,5.97265e-01,9.99999e-01,9.99012e-01,7.72980e-01,7.74304e-01,9.98837e-01
9.670588912e-01,6.70166e-01,9.99999e-01,9.99704e-01,8.62075e-01,7.78226e-01,9.99204e-01
9.718941857e-01,7.12434e-01,9.99999e-01,9.99978e-01,9.11487e-01,7.82090e-01,9.99414e-01
9.767536566e-01,7.27379e-01,9.99999e-01,9.99999e-01,9.25954e-01,7.85896e-01,9.99552e-01
9.816374249e-01,7.45838e-01,9.99999e-01,9.99999e-01,9.44668e-01,7.89645e-01,9.99844e-01
9.865456120e-01,7.65611e-01,9.99999e-01,9.99999e-01,9.65082e-01,7.93337e-01,9.99967e-01
9.914783401e-01,7.79652e-01,9.99999e-01,9.99999e-01,9.78274e-01,7.96973e-01,9.99990e-01
9.964357318e-01,7.91034e-01,9.99999e-01,9.99999e-01,9.88113e-01,8.00554e-01,9.99994e-01
1.001417910e+00,7.98333e-01,9.99999e-01,9.99999e-01,9.92862e-01,8.04079e-01,9.99991e-01
1.006425000e+00,8.04248e-01,9.99999e-01,9.99999e-01,9.95922e-01,8.07550e-01,9.99988e-01
1.011457125e+00,8.08907e-01,9.99999e-01,9.99999e-01,9.97470e-01,8.10966e-01,9.99988e-01
1.016514411e+00,8.12924e-01,9.99999e-01,9.99999e-01,9.98281e-01,8.14330e-01,9.99992e-01
1.021596983e+00,8.16478e-01,9.99999e-01,9.99955e-01,9.98629e-01,8.17640e-01,9.99992e-01
1.026704968e+00,8.17488e-01,9.99999e-01,9.96913e-01,9.98930e-01,8.20898e-01,9.99994e-01
1.031838492e+00,7.90730e-01,9.99999e-01,9.60227e-01,9.99223e-01,8.24105e-01,9.99998e-01
1.036997685e+00,1.51714e-01,9.99999e-01,1.83462e-01,9.99538e-01,8.27260e-01,9.99999e-01
1.042182673e+00,1.44274e-01,9.99999e-01,1.73834e-01,9.99448e-01,8.30364e-01,9.99999e-01
1.047393587e+00,1.55113e-01,9.99999e-01,1.86237e-01,9.99269e-01,8.33419e-01,9.99999e-01
1.052630555e+00,7.76328e-03,9.99999e-01,9.28850e-03,9.98997e-01,8.36424e-01,9.99999e-01
1.057893707e+00,1.80966e-02,9.99999e-01,2.15851e-02,9.98325e-01,8.39380e-01,9.99998e-01
1.063183176e+00,5.03207e-02,9.99999e-01,5.98655e-02,9.97246e-01,8.42288e-01,9.99998e-01
1.068499092e+00,1.21534e-01,9.99999e-01,1.44376e-01,9.95394e-01,8.45148e-01,9.99996e-01
1.073841587e+00,2.49102e-01,9.99999e-01,2.95155e-01,9.94605e-01,8.47962e-01,9.99992e-01
1.079210795e+00,3.90542e-01,9.99999e-01,4.62029e-01,9.93102e-01,8.50728e-01,9.99981e-01
1.084606849e+00,5.53191e-01,9.99999e-01,6.54785e-01,9.89565e-01,8.53449e-01,9.99955e-01
1.090029883e+00,6.77110e-01,9.99999e-01,8.02744e-01,9.85002e-01,8.56125e-01,9.99907e-01
1.095480033e+00,7.39803e-01,9.99999e-01,8.97496e-01,9.59684e-01,8.58756e-01,9.99833e-01
1.100957433e+00,7.36482e-01,9.99999e-01,9.49251e-01,9.00628e-01,8.61343e-01,9.99693e-01
1.106462220e+00,6.47698e-01,9.99999e-01,9.78712e-01,7.65961e-01,8.63886e-01,9.99481e-01
1.111994531e+00,4.90769e-01,9.99999e-01,9.92057e-01,5.71503e-01,8.66386e-01,9.98624e-01
1.117554504e+00,3.49214e-01,9.99999e-01,9.98059e-01,4.04592e-01,8.68844e-01,9.95043e-01
1.123142276e+00,4.42974e-01,9.99999e-01,9.99872e-01,5.14491e-01,8.71260e-01,9.88285e-01
1.128757988e+00,5.62657e-01,9.99999e-01,9.99999e-01,6.52880e-01,8.73635e-01,9.86461e-01
1.134401778e+00,3.40698e-01,9.99999e-01,9.99999e-01,3.93472e-01,8.75969e-01,9.88476e-01
1.140073787e+00,6.74785e-01,9.99999e-01,9.99999e-01,7.75464e-01,8.78264e-01,9.90781e-01
1.145774156e+00,5.14013e-01,9.99999e-01,9.99999e-01,5.88731e-01,8.80518e-01,9.91558e-01
1.151503026e+00,4.86653e-01,9.99999e-01,9.99999e-01,5.53910e-01,8.82734e-01,9.95288e-01
1.157260541e+00,5.40199e-01,9.99999e-01,9.99999e-01,6.11317e-01,8.84912e-01,9.98588e-01
1.163046844e+00,6.16573e-01,9.99999e-01,9.99999e-01,6.95359e-01,8.87052e-01,9.99599e-01
1.168862078e+00,6.90817e-01,9.99999e-01,9.99999e-01,7.77097e-01,8.89154e-01,9.99793e-01
1.174706389e+00,7.62560e-01,9.99999e-01,9.99999e-01,8.55869e-01,8.91220e-01,9.99726e-01
1.180579921e+00,8.12178e-01,9.99999e-01,9.99999e-01,9.09614e-01,8.93249e-01,9.99586e-01
1.186482820e+00,8.48223e-01,9.99999e-01,9.99993e-01,9.47884e-01,8.95243e-01,9.99575e-01
1.192415234e+00,8.59836e-01,9.99999e-01,9.88970e-01,9.69249e-01,8.97202e-01,9.99681e-01
1.198377311e+00,4.98176e-01,9.99999e-01,5.66578e-01,9.73999e-01,8.99127e-01,9.99699e-01
1.204369197e+00,1.47555e-09,9.99999e-01,1.66182e-09,9.75382e-01,9.01017e-01,9.99728e-01
1.210391043e+00,1.26632e-33,9.99999e-01,1.42145e-33,9.76452e-01,9.02874e-01,9.99834e-01
1.216442998e+00,2.54994e-29,9.99999e-01,2.85437e-29,9.79951e-01,9.04698e-01,9.99898e-01
1.222525213e+00,6.68087e-29,9.99999e-01,7.43062e-29,9.84355e-01,9.06490e-01,9.99936e-01
1.228637839e+00,2.27690e-22,9.99999e-01,2.52621e-22,9.89110e-01,9.08249e-01,9.99970e-01
