#,Wave/freq,Total,N2,CO2,H2O,Rayleigh,CIA
4.000000000e-01,7.98111e-08,9.99999e-01,9.99999e-01,9.99968e-01,7.98137e-08,9.99999e-01
4.020000000e-01,1.10259e-07,9.99999e-01,9.99999e-01,9.99980e-01,1.10261e-07,9.99999e-01
4.040100000e-01,1.51303e-07,9.99999e-01,9.99999e-01,9.99991e-01,1.51305e-07,9.99999e-01
4.060300500e-01,2.06332e-07,9.99999e-01,9.99999e-01,9.99997e-01,2.06332e-07,9.99999e-01
4.080602003e-01,2.79654e-07,9.99999e-01,9.99999e-01,9.99998e-01,2.79654e-07,9.99999e-01
4.101005013e-01,3.76761e-07,9.99999e-01,9.99999e-01,9.99999e-01,3.76761e-07,9.99999e-01
4.121510038e-01,5.04608e-07,9.99999e-01,9.99999e-01,9.99998e-01,5.04609e-07,9.99999e-01
4.142117588e-01,6.71944e-07,9.99999e-01,9.99999e-01,9.99990e-01,6.71950e-07,9.99999e-01
4.162828176e-01,8.89704e-07,9.99999e-01,9.99999e-01,9.99960e-01,8.89739e-07,9.99999e-01
4.183642317e-01,1.17157e-06,9.99999e-01,9.99999e-01,9.99976e-01,1.17160e-06,9.99999e-01
4.204560528e-01,1.53437e-06,9.99999e-01,9.99999e-01,9.99985e-01,1.53439e-06,9.99999e-01
4.225583331e-01,1.99883e-06,9.99999e-01,9.99999e-01,9.99994e-01,1.99884e-06,9.99999e-01
4.246711247e-01,2.59030e-06,9.99999e-01,9.99999e-01,9.99995e-01,2.59031e-06,9.99999e-01
4.267944804e-01,3.33964e-06,9.99999e-01,9.99999e-01,9.99993e-01,3.33966e-06,9.99999e-01
4.289284528e-01,4.28420e-06,9.99999e-01,9.99999e-01,9.99994e-01,4.28423e-06,9.99999e-01
4.310730950e-01,5.46897e-06,9.99999e-01,9.99999e-01,9.99997e-01,5.46898e-06,9.99999e-01
4.332284605e-01,6.94777e-06,9.99999e-01,9.99999e-01,9.99998e-01,6.94777e-06,9.99999e-01
4.353946028e-01,8.78480e-06,9.99999e-01,9.99999e-01,9.99999e-01,8.78480e-06,9.99999e-01
4.375715758e-01,1.10562e-05,9.99999e-01,9.99999e-01,9.99995e-01,1.10562e-05,9.99999e-01
4.397594337e-01,1.38513e-05,9.99999e-01,9.99999e-01,9.99965e-01,1.38518e-05,9.99999e-01
4.419582309e-01,1.72742e-05,9.99999e-01,9.99999e-01,9.99825e-01,1.72772e-05,9.99999e-01
4.441680220e-01,2.14529e-05,9.99999e-01,9.99999e-01,9.99864e-01,2.14558e-05,9.99999e-01
4.463888621e-01,2.65276e-05,9.99999e-01,9.99999e-01,9.99858e-01,2.65313e-05,9.99999e-01
4.486208064e-01,3.26673e-05,9.99999e-01,9.99999e-01,9.99911e-01,3.26702e-05,9.99999e-01
4.508639105e-01,4.00627e-05,9.99999e-01,9.99999e-01,9.99958e-01,4.00643e-05,9.99999e-01
4.531182300e-01,4.89336e-05,9.99999e-01,9.99999e-01,9.99983e-01,4.89344e-05,9.99999e-01
4.553838212e-01,5.95320e-05,9.99999e-01,9.99999e-01,9.99988e-01,5.95326e-05,9.99999e-01
4.576607403e-01,7.21460e-05,9.99999e-01,9.99999e-01,9.99994e-01,7.21463e-05,9.99999e-01
4.599490440e-01,8.71010e-05,9.99999e-01,9.99999e-01,9.99995e-01,8.71013e-05,9.99999e-01
4.622487892e-01,1.04766e-04,9.99999e-01,9.99999e-01,9.99998e-01,1.04766e-04,9.99999e-01
4.645600332e-01,1.25553e-04,9.99999e-01,9.99999e-01,9.99997e-01,1.25554e-04,9.99999e-01
4.668828333e-01,1.49923e-04,9.99999e-01,9.99999e-01,9.99958e-01,1.49930e-04,9.99999e-01
4.692172475e-01,1.78396e-04,9.99999e-01,9.99999e-01,9.99911e-01,1.78412e-04,9.99999e-01
4.715633337e-01,2.11564e-04,9.99999e-01,9.99999e-01,9.99941e-01,2.11576e-04,9.99999e-01
4.739211504e-01,2.50048e-04,9.99999e-01,9.99999e-01,9.99944e-01,2.50062e-04,9.99999e-01
4.762907561e-01,2.94566e-04,9.99999e-01,9.99999e-01,9.99970e-01,2.94575e-04,9.99999e-01
4.786722099e-01,3.45886e-04,9.99999e-01,9.99999e-01,9.99987e-01,3.45890e-04,9.99999e-01
4.810655710e-01,4.04856e-04,9.99999e-01,9.99999e-01,9.99995e-01,4.04858e-04,9.99999e-01
4.834708988e-01,4.72391e-04,9.99999e-01,9.99999e-01,9.99965e-01,4.72407e-04,9.99999e-01
4.858882533e-01,5.49515e-04,9.99999e-01,9.99999e-01,9.99936e-01,5.49550e-04,9.99999e-01
4.883176946e-01,6.37349e-04,9.99999e-01,9.99999e-01,9.99947e-01,6.37382e-04,9.99999e-01
4.907592831e-01,7.37056e-04,9.99999e-01,9.99999e-01,9.99952e-01,7.37091e-04,9.99999e-01
4.932130795e-01,8.49925e-04,9.99999e-01,9.99999e-01,9.99965e-01,8.49953e-04,9.99999e-01
4.956791449e-01,9.77326e-04,9.99999e-01,9.99999e-01,9.99981e-01,9.77343e-04,9.99999e-01
4.981575406e-01,1.12063e-03,9.99999e-01,9.99999e-01,9.99910e-01,1.12073e-03,9.99999e-01
5.006483283e-01,1.28139e-03,9.99999e-01,9.99999e-01,9.99768e-01,1.28168e-03,9.99997e-01
5.031515699e-01,1.46014e-03,9.99999e-01,9.99999e-01,9.98830e-01,1.46187e-03,9.99987e-01
5.056673278e-01,1.66202e-03,9.99999e-01,9.99999e-01,9.99382e-01,1.66307e-03,9.99985e-01
5.081956644e-01,1.88565e-03,9.99999e-01,9.99999e-01,9.99221e-01,1.88714e-03,9.99990e-01
5.107366428e-01,2.13493e-03,9.99999e-01,9.99999e-01,9.99474e-01,2.13606e-03,9.99997e-01
5.132903260e-01,2.41118e-03,9.99999e-01,9.99999e-01,9.99699e-01,2.41190e-03,9.99999e-01
5.158567776e-01,2.71650e-03,9.99999e-01,9.99999e-01,9.99872e-01,2.71684e-03,9.99999e-01
5.184360615e-01,3.05299e-03,9.99999e-01,9.99999e-01,9.99948e-01,3.05315e-03,9.99999e-01
5.210282418e-01,3.42312e-03,9.99999e-01,9.99999e-01,9.99980e-01,3.42319e-03,9.99999e-01
5.236333830e-01,3.82911e-03,9.99999e-01,9.99999e-01,9.99923e-01,3.82941e-03,9.99998e-01
5.262515499e-01,4.27415e-03,9.99999e-01,9.99999e-01,9.99951e-01,4.27436e-03,9.99998e-01
5.288828077e-01,4.76045e-03,9.99999e-01,9.99999e-01,9.99955e-01,4.76066e-03,9.99999e-01
5.315272217e-01,5.29081e-03,9.99999e-01,9.99999e-01,9.99961e-01,5.29101e-03,9.99999e-01
5.341848578e-01,5.86805e-03,9.99999e-01,9.99999e-01,9.99974e-01,5.86819e-03,9.99999e-01
5.368557821e-01,6.49447e-03,9.99999e-01,9.99999e-01,9.99910e-01,6.49504e-03,9.99999e-01
5.395400610e-01,7.17214e-03,9.99999e-01,9.99999e-01,9.99679e-01,7.17446e-03,9.99996e-01
5.422377613e-01,7.90605e-03,9.99999e-01,9.99999e-01,9.99585e-01,7.90938e-03,9.99992e-01
5.449489501e-01,8.69939e-03,9.99999e-01,9.99999e-01,9.99614e-01,8.70281e-03,9.99991e-01
5.476736949e-01,9.55447e-03,9.99999e-01,9.99999e-01,9.99658e-01,9.55776e-03,9.99995e-01
5.504120634e-01,1.04747e-02,9.99999e-01,9.99999e-01,9.99752e-01,1.04773e-02,9.99998e-01
5.531641237e-01,1.14630e-02,9.99999e-01,9.99999e-01,9.99875e-01,1.14645e-02,9.99999e-01
5.559299443e-01,1.25216e-02,9.99999e-01,9.99999e-01,9.99939e-01,1.25224e-02,9.99999e-01
5.587095940e-01,1.36536e-02,9.99999e-01,9.99999e-01,9.99961e-01,1.36541e-02,9.99999e-01
5.615031420e-01,1.48620e-02,9.99999e-01,9.99999e-01,9.99957e-01,1.48626e-02,9.99999e-01
5.643106577e-01,1.61503e-02,9.99999e-01,9.99999e-01,9.99951e-01,1.61511e-02,9.99999e-01
5.671322110e-01,1.75122e-02,9.99999e-01,9.99999e-01,9.99420e-01,1.75224e-02,9.99994e-01
5.699678720e-01,1.89676e-02,9.99999e-01,9.99999e-01,9.99385e-01,1.89796e-02,9.99983e-01
5.728177114e-01,2.05121e-02,9.99999e-01,9.99999e-01,9.99359e-01,2.05256e-02,9.99986e-01
5.756818000e-01,2.21499e-02,9.99999e-01,9.99999e-01,9.99412e-01,2.21631e-02,9.99991e-01
5.785602090e-01,2.38828e-02,9.99999e-01,9.99999e-01,9.99487e-01,2.38951e-02,9.99997e-01
5.814530100e-01,2.57109e-02,9.99999e-01,9.99999e-01,9.99485e-01,2.57242e-02,9.99998e-01
5.843602750e-01,2.76359e-02,9.99999e-01,9.99999e-01,9.99385e-01,2.76529e-02,9.99996e-01
5.872820764e-01,2.95260e-02,9.99999e-01,9.99999e-01,9.94719e-01,2.96839e-02,9.99962e-01
5.902184868e-01,3.16129e-02,9.99999e-01,9.99999e-01,9.93608e-01,3.18194e-02,9.99898e-01
5.931695792e-01,3.39046e-02,9.99999e-01,9.99999e-01,9.95481e-01,3.40618e-02,9.99902e-01
5.961354271e-01,3.62309e-02,9.99999e-01,9.99999e-01,9.95047e-01,3.64132e-02,9.99943e-01
5.991161043e-01,3.87345e-02,9.99999e-01,9.99999e-01,9.96386e-01,3.88756e-02,9.99982e-01
6.021116848e-01,4.13659e-02,9.99999e-01,9.99999e-01,9.97948e-01,4.14510e-02,9.99997e-01
6.051222432e-01,4.40952e-02,9.99999e-01,9.99999e-01,9.98961e-01,4.41410e-02,9.99999e-01
6.081478544e-01,4.69262e-02,9.99999e-01,9.99999e-01,9.99551e-01,4.69472e-02,9.99999e-01
6.111885937e-01,4.98616e-02,9.99999e-01,9.99999e-01,9.99810e-01,4.98711e-02,9.99999e-01
6.142445367e-01,5.29094e-02,9.99999e-01,9.99999e-01,9.99914e-01,5.29139e-02,9.99999e-01
6.173157594e-01,5.60741e-02,9.99999e-01,9.99999e-01,9.99952e-01,5.60767e-02,9.99999e-01
6.204023382e-01,5.93581e-02,9.99999e-01,9.99999e-01,9.99960e-01,5.93604e-02,9.99999e-01
6.235043498e-01,6.27549e-02,9.99999e-01,9.99999e-01,9.99825e-01,6.27658e-02,9.99999e-01
6.266218716e-01,6.62321e-02,9.99999e-01,9.99999e-01,9.99078e-01,6.62935e-02,9.99993e-01
6.297549810e-01,6.99194e-02,9.99999e-01,9.99999e-01,9.99661e-01,6.99439e-02,9.99986e-01
6.329037559e-01,7.36673e-02,9.99999e-01,9.99999e-01,9.99332e-01,7.37173e-02,9.99989e-01
6.360682746e-01,7.75689e-02,9.99999e-01,9.99999e-01,9.99430e-01,7.76135e-02,9.99993e-01
6.392486160e-01,8.15723e-02,9.99999e-01,9.99999e-01,9.99262e-01,8.16327e-02,9.99996e-01
6.424448591e-01,8.56893e-02,9.99999e-01,9.99999e-01,9.99012e-01,8.57743e-02,9.99995e-01
6.456570834e-01,8.96238e-02,9.99999e-01,9.99999e-01,9.95423e-01,9.00381e-02,9.99974e-01
6.488853688e-01,9.41004e-02,9.99999e-01,9.99999e-01,9.96651e-01,9.44232e-02,9.99928e-01
6.521297956e-01,9.85855e-02,9.99999e-01,9.99999e-01,9.96586e-01,9.89290e-02,9.99940e-01
6.553904446e-01,1.03198e-01,9.99999e-01,9.99999e-01,9.96600e-01,1.03554e-01,9.99955e-01
6.586673968e-01,1.07981e-01,9.99999e-01,9.99999e-01,9.97089e-01,1.08298e-01,9.99984e-01
6.619607338e-01,1.12975e-01,9.99999e-01,9.99999e-01,9.98377e-01,1.13159e-01,9.99996e-01
6.652705375e-01,1.18021e-01,9.99999e-01,9.99999e-01,9.99025e-01,1.18136e-01,9.99997e-01
6.685968902e-01,1.23171e-01,9.99999e-01,9.99999e-01,9.99547e-01,1.23227e-01,9.99999e-01
6.719398746e-01,1.28403e-01,9.99999e-01,9.99999e-01,9.99790e-01,1.28430e-01,9.99999e-01
6.752995740e-01,1.33728e-01,9.99999e-01,9.99999e-01,9.99885e-01,1.33743e-01,9.99999e-01
6.786760719e-01,1.39142e-01,9.99999e-01,9.99999e-01,9.99835e-01,1.39165e-01,9.99999e-01
6.820694522e-01,1.44652e-01,9.99999e-01,9.99999e-01,9.99718e-01,1.44693e-01,9.99998e-01
6.854797995e-01,1.50270e-01,9.99999e-01,9.99999e-01,9.99637e-01,1.50325e-01,9.99996e-01
6.889071985e-01,1.55920e-01,9.99999e-01,9.99999e-01,9.99120e-01,1.56058e-01,9.99991e-01
6.923517345e-01,1.59571e-01,9.99999e-01,9.99999e-01,9.85741e-01,1.61890e-01,9.99930e-01
6.958134932e-01,1.66548e-01,9.99999e-01,9.99999e-01,9.92578e-01,1.67819e-01,9.99847e-01
6.992925606e-01,1.72589e-01,9.99999e-01,9.99999e-01,9.92932e-01,1.73841e-01,9.99862e-01
7.027890234e-01,1.78367e-01,9.99999e-01,9.99999e-01,9.91285e-01,1.79954e-01,9.99894e-01
7.063029686e-01,1.84780e-01,9.99999e-01,9.99999e-01,9.92668e-01,1.86154e-01,9.99947e-01
7.098344834e-01,1.91080e-01,9.99999e-01,9.99999e-01,9.92964e-01,1.92440e-01,9.99968e-01
7.133836558e-01,1.96931e-01,9.99999e-01,9.99999e-01,9.90623e-01,1.98807e-01,9.99938e-01
7.169505741e-01,1.90204e-01,9.99999e-01,9.99999e-01,9.27126e-01,2.05253e-01,9.99518e-01
7.205353270e-01,2.03914e-01,9.99999e-01,9.99999e-01,9.63702e-01,2.11774e-01,9.99150e-01
7.241380036e-01,2.08178e-01,9.99999e-01,9.99999e-01,9.54036e-01,2.18368e-01,9.99266e-01
7.277586936e-01,2.15548e-01,9.99999e-01,9.99999e-01,9.58435e-01,2.25031e-01,9.99400e-01
7.313974871e-01,2.21468e-01,9.99999e-01,9.99999e-01,9.55863e-01,2.31759e-01,9.99718e-01
7.350544745e-01,2.32717e-01,9.99999e-01,9.99999e-01,9.75643e-01,2.38550e-01,9.99901e-01
7.387297469e-01,2.40976e-01,9.99999e-01,9.99999e-01,9.82019e-01,2.45399e-01,9.99954e-01
7.424233956e-01,2.50073e-01,9.99999e-01,9.99999e-01,9.91166e-01,2.52304e-01,9.99990e-01
7.461355126e-01,2.57871e-01,9.99999e-01,9.99999e-01,9.94637e-01,2.59262e-01,9.99997e-01
7.498661902e-01,2.65602e-01,9.99999e-01,9.99999e-01,9.97501e-01,2.66268e-01,9.99998e-01
7.536155211e-01,2.72984e-01,9.99999e-01,9.99999e-01,9.98773e-01,2.73319e-01,9.99999e-01
7.573835987e-01,2.80235e-01,9.99999e-01,9.99999e-01,9.99368e-01,2.80412e-01,9.99999e-01
7.611705167e-01,2.87431e-01,9.99999e-01,9.99999e-01,9.99607e-01,2.87544e-01,9.99999e-01
7.649763693e-01,2.94638e-01,9.99999e-01,9.99999e-01,9.99753e-01,2.94711e-01,9.99999e-01
7.688012511e-01,3.01858e-01,9.99999e-01,9.99999e-01,9.99828e-01,3.01909e-01,9.99999e-01
7.726452574e-01,3.09093e-01,9.99999e-01,9.99999e-01,9.99858e-01,3.09137e-01,9.99999e-01
7.765084837e-01,3.16325e-01,9.99999e-01,9.99999e-01,9.99799e-01,3.16389e-01,9.99999e-01
7.803910261e-01,3.07354e-01,9.99999e-01,9.50395e-01,9.99133e-01,3.23663e-01,9.99998e-01
7.842929812e-01,2.62113e-01,9.99999e-01,7.94224e-01,9.96978e-01,3.30956e-01,9.99993e-01
7.882144461e-01,2.62944e-01,9.99999e-01,7.81943e-01,9.93787e-01,3.38264e-01,9.99956e-01
7.921555184e-01,2.97734e-01,9.99999e-01,8.64445e-01,9.96590e-01,3.45584e-01,9.99925e-01
7.961162960e-01,3.18134e-01,9.99999e-01,9.06898e-01,9.93975e-01,3.52914e-01,9.99928e-01
8.000968774e-01,3.39263e-01,9.99999e-01,9.48379e-01,9.93045e-01,3.60250e-01,9.99924e-01
8.040973618e-01,3.55133e-01,9.99999e-01,9.72922e-01,9.93043e-01,3.67588e-01,9.99939e-01
8.081178486e-01,3.64436e-01,9.99999e-01,9.87469e-01,9.84374e-01,3.74927e-01,9.99943e-01
8.121584379e-01,3.56540e-01,9.99999e-01,9.96118e-01,9.36492e-01,3.82263e-01,9.99779e-01
8.162192301e-01,3.59832e-01,9.99999e-01,9.99141e-01,9.25142e-01,3.89594e-01,9.99173e-01
8.203003262e-01,3.81484e-01,9.99999e-01,9.99986e-01,9.62062e-01,3.96916e-01,9.99032e-01
8.244018279e-01,3.82736e-01,9.99999e-01,9.99999e-01,9.47563e-01,4.04227e-01,9.99229e-01
8.285238370e-01,3.92597e-01,9.99999e-01,9.99999e-01,9.54585e-01,4.11524e-01,9.99394e-01
8.326664562e-01,3.99495e-01,9.99999e-01,9.99999e-01,9.54130e-01,4.18805e-01,9.99749e-01
8.368297885e-01,4.11986e-01,9.99999e-01,9.99999e-01,9.67005e-01,4.26067e-01,9.99942e-01
8.410139374e-01,4.24744e-01,9.99999e-01,9.99999e-01,9.80267e-01,4.33308e-01,9.99966e-01
8.452190071e-01,4.36234e-01,9.99999e-01,9.99999e-01,9.90278e-01,4.40525e-01,9.99979e-01
8.494451021e-01,4.45179e-01,9.99999e-01,9.99999e-01,9.94347e-01,4.47717e-01,9.99983e-01
8.536923276e-01,4.53354e-01,9.99999e-01,9.99999e-01,9.96655e-01,4.54880e-01,9.99989e-01
8.579607893e-01,4.61060e-01,9.99999e-01,9.99999e-01,9.97938e-01,4.62013e-01,9.99997e-01
8.622505932e-01,4.68499e-01,9.99999e-01,9.99999e-01,9.98690e-01,4.69114e-01,9.99999e-01
8.665618462e-01,4.30412e-01,9.99999e-01,9.04582e-01,9.99189e-01,4.76180e-01,9.99999e-01
8.708946554e-01,2.70586e-01,9.99999e-01,5.60469e-01,9.99071e-01,4.83210e-01,9.99998e-01
8.752491287e-01,3.05659e-01,9.99999e-01,6.24279e-01,9.98758e-01,4.90202e-01,9.99998e-01
8.796253743e-01,3.82291e-01,9.99999e-01,7.70228e-01,9.98280e-01,4.97154e-01,9.99995e-01
8.840235012e-01,4.39086e-01,9.99999e-01,8.72776e-01,9.98036e-01,5.04064e-01,9.99987e-01
8.884436187e-01,4.80793e-01,9.99999e-01,9.47726e-01,9.92844e-01,5.10931e-01,9.99965e-01
8.928858368e-01,4.69794e-01,9.99999e-01,9.78471e-01,9.27246e-01,5.17754e-01,9.99803e-01
8.973502660e-01,4.56213e-01,9.99999e-01,9.94734e-01,8.75096e-01,5.24529e-01,9.98994e-01
9.018370173e-01,4.95252e-01,9.99999e-01,9.99418e-01,9.34217e-01,5.31257e-01,9.98420e-01
9.063462024e-01,4.98757e-01,9.99999e-01,9.85180e-01,9.41752e-01,5.37936e-01,9.98612e-01
9.108779334e-01,4.78815e-01,9.99999e-01,9.66249e-01,9.10705e-01,5.44565e-01,9.98557e-01
9.154323231e-01,4.91128e-01,9.99999e-01,9.91984e-01,8.99147e-01,5.51142e-01,9.98807e-01
9.200094847e-01,4.60828e-01,9.99999e-01,8.92943e-01,9.20183e-01,5.57666e-01,9.99332e-01
9.246095321e-01,4.20680e-01,9.99999e-01,8.45527e-01,8.78825e-01,5.64136e-01,9.99230e-01
9.292325798e-01,2.17472e-01,9.99999e-01,8.77229e-01,4.27650e-01,5.70551e-01,9.97005e-01
9.338787427e-01,1.71577e-01,9.99999e-01,8.80820e-01,3.35748e-01,5.76910e-01,9.87678e-01
9.385481364e-01,3.39021e-01,9.99999e-01,9.10768e-01,6.42756e-01,5.83213e-01,9.85362e-01
9.432408771e-01,3.00984e-01,9.99999e-01,9.44332e-01,5.45201e-01,5.89457e-01,9.87359e-01
9.479570815e-01,2.49964e-01,9.99999e-01,9.71030e-01,4.35704e-01,5.95644e-01,9.89699e-01
9.526968669e-01,3.14014e-01,9.99999e-01,9.85934e-01,5.31703e-01,6.01771e-01,9.93704e-01
9.574603512e-01,3.33691e-01,9.99999e-01,9.93961e-01,5.53762e-01,6.07838e-01,9.96797e-01
9.622476530e-01,3.76981e-01,9.99999e-01,9.98113e-01,6.16554e-01,6.13845e-01,9.97784e-01
9.670588912e-01,4.67671e-01,9.99999e-01,9.99434e-01,7.56103e-01,6.19791e-01,9.98483e-01
9.718941857e-01,5.24090e-01,9.99999e-01,9.99959e-01,8.38604e-01,6.25675e-01,9.98883e-01
9.767536566e-01,5.45150e-01,9.99999e-01,9.99999e-01,8.64002e-01,6.31497e-01,9.99146e-01
9.816374249e-01,5.71606e-01,9.99999e-01,9.99999e-01,8.97243e-01,6.37257e-01,9.99704e-01
9.865456120e-01,6.00780e-01,9.99999e-01,9.99999e-01,9.34463e-01,6.42954e-01,9.99938e-01
9.914783401e-01,6.21953e-01,9.99999e-01,9.99999e-01,9.58951e-01,6.48588e-01,9.99982e-01
9.964357318e-01,6.39391e-01,9.99999e-01,9.99999e-01,9.77435e-01,6.54158e-01,9.99989e-01
1.001417910e+00,6.50695e-01,9.99999e-01,9.99999e-01,9.86416e-01,6.59665e-01,9.99984e-01
1.006425000e+00,6.59928e-01,9.99999e-01,9.99999e-01,9.92233e-01,6.65108e-01,9.99977e-01
1.011457125e+00,6.67239e-01,9.99999e-01,9.99999e-01,9.95174e-01,6.70487e-01,9.99979e-01
1.016514411e+00,6.73577e-01,9.99999e-01,9.99999e-01,9.96721e-01,6.75802e-01,9.99985e-01
1.021596983e+00,6.79210e-01,9.99999e-01,9.99919e-01,9.97386e-01,6.81053e-01,9.99985e-01
1.026704968e+00,6.80851e-01,9.99999e-01,9.94177e-01,9.97961e-01,6.86240e-01,9.99989e-01
1.031838492e+00,6.48908e-01,9.99999e-01,9.39933e-01,9.98518e-01,6.91363e-01,9.99996e-01
1.036997685e+00,7.09150e-02,9.99999e-01,1.01897e-01,9.99119e-01,6.96422e-01,9.99999e-01
1.042182673e+00,3.01429e-02,9.99999e-01,4.30125e-02,9.98949e-01,7.01417e-01,9.99999e-01
1.047393587e+00,4.63213e-02,9.99999e-01,6.56577e-02,9.98607e-01,7.06348e-01,9.99999e-01
1.052630555e+00,2.66758e-04,9.99999e-01,3.75570e-04,9.98089e-01,7.11215e-01,9.99998e-01
1.057893707e+00,8.41532e-04,9.99999e-01,1.17758e-03,9.96811e-01,7.16018e-01,9.99998e-01
1.063183176e+00,4.75670e-03,9.99999e-01,6.62247e-03,9.94758e-01,7.20758e-01,9.99996e-01
1.068499092e+00,1.98390e-02,9.99999e-01,2.75369e-02,9.91238e-01,7.25435e-01,9.99993e-01
1.073841587e+00,7.40310e-02,9.99999e-01,1.02253e-01,9.89752e-01,7.30049e-01,9.99986e-01
1.079210795e+00,1.71425e-01,9.99999e-01,2.36065e-01,9.86888e-01,7.34601e-01,9.99964e-01
1.084606849e+00,3.25372e-01,9.99999e-01,4.48548e-01,9.80214e-01,7.39090e-01,9.99915e-01
1.090029883e+00,4.76392e-01,9.99999e-01,6.58722e-01,9.71693e-01,7.43517e-01,9.99824e-01
1.095480033e+00,5.63476e-01,9.99999e-01,8.13934e-01,9.24762e-01,7.47882e-01,9.99682e-01
1.100957433e+00,5.59130e-01,9.99999e-01,9.05443e-01,8.20148e-01,7.52186e-01,9.99416e-01
1.106462220e+00,4.41578e-01,9.99999e-01,9.59747e-01,6.07523e-01,7.56429e-01,9.99011e-01
1.111994531e+00,2.65268e-01,9.99999e-01,9.84883e-01,3.54482e-01,7.60611e-01,9.97377e-01
1.117554504e+00,1.43791e-01,9.99999e-01,9.96291e-01,1.90343e-01,7.64733e-01,9.90565e-01
1.123142276e+00,2.29940e-01,9.99999e-01,9.99756e-01,3.05915e-01,7.68796e-01,9.77772e-01
1.128757988e+00,3.44771e-01,9.99999e-01,9.99999e-01,4.57886e-01,7.72799e-01,9.74330e-01
1.134401778e+00,1.73756e-01,9.99999e-01,9.99999e-01,2.28699e-01,7.76743e-01,9.78131e-01
1.140073787e+00,4.77150e-01,9.99999e-01,9.99999e-01,6.22131e-01,7.80629e-01,9.82488e-01
1.145774156e+00,2.93019e-01,9.99999e-01,9.99999e-01,3.79620e-01,7.84457e-01,9.83958e-01
1.151503026e+00,2.67523e-01,9.99999e-01,9.99999e-01,3.42469e-01,7.88228e-01,9.91031e-01
1.157260541e+00,3.15146e-01,9.99999e-01,9.99999e-01,3.99014e-01,7.91941e-01,9.97309e-01
1.163046844e+00,4.01997e-01,9.99999e-01,9.99999e-01,5.05661e-01,7.95599e-01,9.99236e-01
1.168862078e+00,4.95136e-01,9.99999e-01,9.99999e-01,6.19782e-01,7.99200e-01,9.99606e-01
1.174706389e+00,5.97097e-01,9.99999e-01,9.99999e-01,7.44205e-01,8.02746e-01,9.99478e-01
1.180579921e+00,6.72764e-01,9.99999e-01,9.99999e-01,8.35105e-01,8.06238e-01,9.99211e-01
1.186482820e+00,7.30550e-01,9.99999e-01,9.99988e-01,9.03014e-01,8.09675e-01,9.99190e-01
1.192415234e+00,7.50176e-01,9.99999e-01,9.79536e-01,9.42168e-01,8.13059e-01,9.99393e-01
1.198377311e+00,4.29285e-01,9.99999e-01,5.48648e-01,9.51030e-01,8.16389e-01,9.99427e-01
1.204369197e+00,3.42821e-16,9.99999e-01,4.30100e-16,9.53637e-01,8.19667e-01,9.99481e-01
1.210391043e+00,4.19554e-62,9.99999e-01,5.23039e-62,9.55599e-01,8.22893e-01,9.99684e-01
1.216442998e+00,6.81564e-54,9.99999e-01,8.45192e-54,9.62111e-01,8.26067e-01,9.99806e-01
1.222525213e+00,4.25816e-53,9.99999e-01,5.21607e-53,9.70367e-01,8.29191e-01,9.99879e-01
1.228637839e+00,4.17723e-41,9.99999e-01,5.09138e-41,9.79328e-01,8.32264e-01,9.99943e-01
