#,Wave/freq,Total,N2,CO2,H2O,Rayleigh,CIA
4.000000000e-01,1.81873e-03,9.99999e-01,9.99999e-01,9.99987e-01,1.81875e-03,9.99999e-01
4.020000000e-01,2.06040e-03,9.99999e-01,9.99999e-01,9.99991e-01,2.06042e-03,9.99999e-01
4.040100000e-01,2.32815e-03,9.99999e-01,9.99999e-01,9.99996e-01,2.32815e-03,9.99999e-01
4.060300500e-01,2.62434e-03,9.99999e-01,9.99999e-01,9.99998e-01,2.62434e-03,9.99999e-01
4.080602003e-01,2.95121e-03,9.99999e-01,9.99999e-01,9.99999e-01,2.95121e-03,9.99999e-01
4.101005013e-01,3.31112e-03,9.99999e-01,9.99999e-01,9.99999e-01,3.31112e-03,9.99999e-01
4.121510038e-01,3.70647e-03,9.99999e-01,9.99999e-01,9.99999e-01,3.70647e-03,9.99999e-01
4.142117588e-01,4.13979e-03,9.99999e-01,9.99999e-01,9.99996e-01,4.13981e-03,9.99999e-01
4.162828176e-01,4.61364e-03,9.99999e-01,9.99999e-01,9.99984e-01,4.61371e-03,9.99999e-01
4.183642317e-01,5.13083e-03,9.99999e-01,9.99999e-01,9.99990e-01,5.13087e-03,9.99999e-01
4.204560528e-01,5.69401e-03,9.99999e-01,9.99999e-01,9.99994e-01,5.69404e-03,9.99999e-01
4.225583331e-01,6.30603e-03,9.99999e-01,9.99999e-01,9.99997e-01,6.30604e-03,9.99999e-01
4.246711247e-01,6.96974e-03,9.99999e-01,9.99999e-01,9.99997e-01,6.96975e-03,9.99999e-01
4.267944804e-01,7.68808e-03,9.99999e-01,9.99999e-01,9.99997e-01,7.68810e-03,9.99999e-01
4.289284528e-01,8.46405e-03,9.99999e-01,9.99999e-01,9.99997e-01,8.46407e-03,9.99999e-01
4.310730950e-01,9.30067e-03,9.99999e-01,9.99999e-01,9.99998e-01,9.30068e-03,9.99999e-01
4.332284605e-01,1.02010e-02,9.99999e-01,9.99999e-01,9.99999e-01,1.02010e-02,9.99999e-01
4.353946028e-01,1.11680e-02,9.99999e-01,9.99999e-01,9.99999e-01,1.11680e-02,9.99999e-01
4.375715758e-01,1.22048e-02,9.99999e-01,9.99999e-01,9.99998e-01,1.22049e-02,9.99999e-01
4.397594337e-01,1.33144e-02,9.99999e-01,9.99999e-01,9.99986e-01,1.33146e-02,9.99999e-01
4.419582309e-01,1.44994e-02,9.99999e-01,9.99999e-01,9.99933e-01,1.45003e-02,9.99999e-01
4.441680220e-01,1.57642e-02,9.99999e-01,9.99999e-01,9.99946e-01,1.57650e-02,9.99999e-01
4.463888621e-01,1.71108e-02,9.99999e-01,9.99999e-01,9.99945e-01,1.71118e-02,9.99999e-01
4.486208064e-01,1.85429e-02,9.99999e-01,9.99999e-01,9.99965e-01,1.85435e-02,9.99999e-01
4.508639105e-01,2.00628e-02,9.99999e-01,9.99999e-01,9.99983e-01,2.00632e-02,9.99999e-01
4.531182300e-01,2.16735e-02,9.99999e-01,9.99999e-01,9.99993e-01,2.16736e-02,9.99999e-01
4.553838212e-01,2.33775e-02,9.99999e-01,9.99999e-01,9.99995e-01,2.33776e-02,9.99999e-01
4.576607403e-01,2.51779e-02,9.99999e-01,9.99999e-01,9.99997e-01,2.51780e-02,9.99999e-01
4.599490440e-01,2.70772e-02,9.99999e-01,9.99999e-01,9.99998e-01,2.70773e-02,9.99999e-01
4.622487892e-01,2.90780e-02,9.99999e-01,9.99999e-01,9.99999e-01,2.90780e-02,9.99999e-01
4.645600332e-01,3.11826e-02,9.99999e-01,9.99999e-01,9.99998e-01,3.11827e-02,9.99999e-01
4.668828333e-01,3.33930e-02,9.99999e-01,9.99999e-01,9.99983e-01,3.33935e-02,9.99999e-01
4.692172475e-01,3.57115e-02,9.99999e-01,9.99999e-01,9.99965e-01,3.57128e-02,9.99999e-01
4.715633337e-01,3.81416e-02,9.99999e-01,9.99999e-01,9.99977e-01,3.81425e-02,9.99999e-01
4.739211504e-01,4.06837e-02,9.99999e-01,9.99999e-01,9.99978e-01,4.06845e-02,9.99999e-01
4.762907561e-01,4.33403e-02,9.99999e-01,9.99999e-01,9.99988e-01,4.33408e-02,9.99999e-01
4.786722099e-01,4.61126e-02,9.99999e-01,9.99999e-01,9.99994e-01,4.61128e-02,9.99999e-01
4.810655710e-01,4.90020e-02,9.99999e-01,9.99999e-01,9.99998e-01,4.90020e-02,9.99999e-01
4.834708988e-01,5.20092e-02,9.99999e-01,9.99999e-01,9.99986e-01,5.20098e-02,9.99999e-01
4.858882533e-01,5.51360e-02,9.99999e-01,9.99999e-01,9.99975e-01,5.51374e-02,9.99999e-01
4.883176946e-01,5.83844e-02,9.99999e-01,9.99999e-01,9.99979e-01,5.83856e-02,9.99999e-01
4.907592831e-01,6.17541e-02,9.99999e-01,9.99999e-01,9.99981e-01,6.17553e-02,9.99999e-01
4.932130795e-01,6.52463e-02,9.99999e-01,9.99999e-01,9.99986e-01,6.52471e-02,9.99999e-01
4.956791449e-01,6.88610e-02,9.99999e-01,9.99999e-01,9.99992e-01,6.88615e-02,9.99999e-01
4.981575406e-01,7.25963e-02,9.99999e-01,9.99999e-01,9.99965e-01,7.25988e-02,9.99999e-01
5.006483283e-01,7.64523e-02,9.99999e-01,9.99999e-01,9.99911e-01,7.64590e-02,9.99998e-01
5.031515699e-01,8.04056e-02,9.99999e-01,9.99999e-01,9.99548e-01,8.04422e-02,9.99994e-01
5.056673278e-01,8.45274e-02,9.99999e-01,9.99999e-01,9.99761e-01,8.45480e-02,9.99994e-01
5.081956644e-01,8.87490e-02,9.99999e-01,9.99999e-01,9.99698e-01,8.87760e-02,9.99996e-01
5.107366428e-01,9.31067e-02,9.99999e-01,9.99999e-01,9.99796e-01,9.31257e-02,9.99998e-01
5.132903260e-01,9.75848e-02,9.99999e-01,9.99999e-01,9.99883e-01,9.75962e-02,9.99999e-01
5.158567776e-01,1.02182e-01,9.99999e-01,9.99999e-01,9.99950e-01,1.02187e-01,9.99999e-01
5.184360615e-01,1.06894e-01,9.99999e-01,9.99999e-01,9.99979e-01,1.06896e-01,9.99999e-01
5.210282418e-01,1.11722e-01,9.99999e-01,9.99999e-01,9.99992e-01,1.11723e-01,9.99999e-01
5.236333830e-01,1.16662e-01,9.99999e-01,9.99999e-01,9.99970e-01,1.16666e-01,9.99999e-01
5.262515499e-01,1.21721e-01,9.99999e-01,9.99999e-01,9.99981e-01,1.21723e-01,9.99999e-01
5.288828077e-01,1.26891e-01,9.99999e-01,9.99999e-01,9.99982e-01,1.26893e-01,9.99999e-01
5.315272217e-01,1.32173e-01,9.99999e-01,9.99999e-01,9.99984e-01,1.32175e-01,9.99999e-01
5.341848578e-01,1.37564e-01,9.99999e-01,9.99999e-01,9.99989e-01,1.37565e-01,9.99999e-01
5.368557821e-01,1.43057e-01,9.99999e-01,9.99999e-01,9.99965e-01,1.43062e-01,9.99999e-01
5.395400610e-01,1.48645e-01,9.99999e-01,9.99999e-01,9.99876e-01,1.48664e-01,9.99998e-01
5.422377613e-01,1.54342e-01,9.99999e-01,9.99999e-01,9.99839e-01,1.54368e-01,9.99996e-01
5.449489501e-01,1.60147e-01,9.99999e-01,9.99999e-01,9.99851e-01,1.60171e-01,9.99996e-01
5.476736949e-01,1.66050e-01,9.99999e-01,9.99999e-01,9.99867e-01,1.66072e-01,9.99998e-01
5.504120634e-01,1.72050e-01,9.99999e-01,9.99999e-01,9.99903e-01,1.72067e-01,9.99999e-01
5.531641237e-01,1.78145e-01,9.99999e-01,9.99999e-01,9.99951e-01,1.78153e-01,9.99999e-01
5.559299443e-01,1.84324e-01,9.99999e-01,9.99999e-01,9.99976e-01,1.84328e-01,9.99999e-01
5.587095940e-01,1.90587e-01,9.99999e-01,9.99999e-01,9.99984e-01,1.90589e-01,9.99999e-01
5.615031420e-01,1.96930e-01,9.99999e-01,9.99999e-01,9.99983e-01,1.96933e-01,9.99999e-01
5.643106577e-01,2.03352e-01,9.99999e-01,9.99999e-01,9.99981e-01,2.03356e-01,9.99999e-01
5.671322110e-01,2.09809e-01,9.99999e-01,9.99999e-01,9.99779e-01,2.09856e-01,9.99997e-01
5.699678720e-01,2.16376e-01,9.99999e-01,9.99999e-01,9.99760e-01,2.16429e-01,9.99993e-01
5.728177114e-01,2.23015e-01,9.99999e-01,9.99999e-01,9.99752e-01,2.23071e-01,9.99994e-01
5.756818000e-01,2.29728e-01,9.99999e-01,9.99999e-01,9.99772e-01,2.29781e-01,9.99996e-01
5.785602090e-01,2.36506e-01,9.99999e-01,9.99999e-01,9.99801e-01,2.36553e-01,9.99998e-01
5.814530100e-01,2.43338e-01,9.99999e-01,9.99999e-01,9.99800e-01,2.43386e-01,9.99999e-01
5.843602750e-01,2.50216e-01,9.99999e-01,9.99999e-01,9.99764e-01,2.50275e-01,9.99998e-01
5.872820764e-01,2.56691e-01,9.99999e-01,9.99999e-01,9.97968e-01,2.57218e-01,9.99985e-01
5.902184868e-01,2.63545e-01,9.99999e-01,9.99999e-01,9.97522e-01,2.64210e-01,9.99960e-01
5.931695792e-01,2.70764e-01,9.99999e-01,9.99999e-01,9.98253e-01,2.71248e-01,9.99961e-01
5.961354271e-01,2.77789e-01,9.99999e-01,9.99999e-01,9.98082e-01,2.78329e-01,9.99976e-01
5.991161043e-01,2.85049e-01,9.99999e-01,9.99999e-01,9.98600e-01,2.85450e-01,9.99992e-01
6.021116848e-01,2.92374e-01,9.99999e-01,9.99999e-01,9.99204e-01,2.92607e-01,9.99998e-01
6.051222432e-01,2.99676e-01,9.99999e-01,9.99999e-01,9.99597e-01,2.99797e-01,9.99999e-01
6.081478544e-01,3.06963e-01,9.99999e-01,9.99999e-01,9.99826e-01,3.07016e-01,9.99999e-01
6.111885937e-01,3.14238e-01,9.99999e-01,9.99999e-01,9.99926e-01,3.14261e-01,9.99999e-01
6.142445367e-01,3.21519e-01,9.99999e-01,9.99999e-01,9.99966e-01,3.21529e-01,9.99999e-01
6.173157594e-01,3.28811e-01,9.99999e-01,9.99999e-01,9.99981e-01,3.28817e-01,9.99999e-01
6.204023382e-01,3.36116e-01,9.99999e-01,9.99999e-01,9.99984e-01,3.36121e-01,9.99999e-01
6.235043498e-01,3.43415e-01,9.99999e-01,9.99999e-01,9.99933e-01,3.43438e-01,9.99999e-01
6.266218716e-01,3.50640e-01,9.99999e-01,9.99999e-01,9.99644e-01,3.50765e-01,9.99997e-01
6.297549810e-01,3.58051e-01,9.99999e-01,9.99999e-01,9.99869e-01,3.58099e-01,9.99994e-01
6.329037559e-01,3.65342e-01,9.99999e-01,9.99999e-01,9.99741e-01,3.65438e-01,9.99995e-01
6.360682746e-01,3.72694e-01,9.99999e-01,9.99999e-01,9.99780e-01,3.72777e-01,9.99997e-01
6.392486160e-01,3.80005e-01,9.99999e-01,9.99999e-01,9.99715e-01,3.80114e-01,9.99998e-01
6.424448591e-01,3.87299e-01,9.99999e-01,9.99999e-01,9.99621e-01,3.87446e-01,9.99997e-01
6.456570834e-01,3.94073e-01,9.99999e-01,9.99999e-01,9.98241e-01,3.94771e-01,9.99989e-01
6.488853688e-01,4.01463e-01,9.99999e-01,9.99999e-01,9.98479e-01,4.02085e-01,9.99972e-01
6.521297956e-01,4.08836e-01,9.99999e-01,9.99999e-01,9.98676e-01,4.09387e-01,9.99976e-01
6.553904446e-01,4.16122e-01,9.99999e-01,9.99999e-01,9.98693e-01,4.16673e-01,9.99982e-01
6.586673968e-01,4.23460e-01,9.99999e-01,9.99999e-01,9.98871e-01,4.23941e-01,9.99993e-01
6.619607338e-01,4.30907e-01,9.99999e-01,9.99999e-01,9.99347e-01,4.31188e-01,9.99998e-01
6.652705375e-01,4.38247e-01,9.99999e-01,9.99999e-01,9.99621e-01,4.38413e-01,9.99998e-01
6.685968902e-01,4.45534e-01,9.99999e-01,9.99999e-01,9.99824e-01,4.45612e-01,9.99999e-01
6.719398746e-01,4.52747e-01,9.99999e-01,9.99999e-01,9.99918e-01,4.52784e-01,9.99999e-01
6.752995740e-01,4.59906e-01,9.99999e-01,9.99999e-01,9.99955e-01,4.59926e-01,9.99999e-01
6.786760719e-01,4.67007e-01,9.99999e-01,9.99999e-01,9.99936e-01,4.67036e-01,9.99999e-01
6.820694522e-01,4.74061e-01,9.99999e-01,9.99999e-01,9.99891e-01,4.74113e-01,9.99998e-01
6.854797995e-01,4.81086e-01,9.99999e-01,9.99999e-01,9.99859e-01,4.81154e-01,9.99998e-01
6.889071985e-01,4.87992e-01,9.99999e-01,9.99999e-01,9.99665e-01,4.88157e-01,9.99996e-01
6.923517345e-01,4.92382e-01,9.99999e-01,9.99999e-01,9.94494e-01,4.95121e-01,9.99973e-01
6.958134932e-01,5.00554e-01,9.99999e-01,9.99999e-01,9.97091e-01,5.02044e-01,9.99939e-01
6.992925606e-01,5.07512e-01,9.99999e-01,9.99999e-01,9.97277e-01,5.08924e-01,9.99946e-01
7.027890234e-01,5.13995e-01,9.99999e-01,9.99999e-01,9.96620e-01,5.15759e-01,9.99959e-01
7.063029686e-01,5.21055e-01,9.99999e-01,9.99999e-01,9.97160e-01,5.22549e-01,9.99979e-01
7.098344834e-01,5.27843e-01,9.99999e-01,9.99999e-01,9.97275e-01,5.29291e-01,9.99987e-01
7.133836558e-01,5.34044e-01,9.99999e-01,9.99999e-01,9.96402e-01,5.35984e-01,9.99975e-01
7.169505741e-01,5.26880e-01,9.99999e-01,9.99999e-01,9.71158e-01,5.42628e-01,9.99813e-01
7.205353270e-01,5.41140e-01,9.99999e-01,9.99999e-01,9.85611e-01,5.49220e-01,9.99671e-01
7.241380036e-01,5.45585e-01,9.99999e-01,9.99999e-01,9.81970e-01,5.55760e-01,9.99716e-01
7.277586936e-01,5.52956e-01,9.99999e-01,9.99999e-01,9.83704e-01,5.62246e-01,9.99768e-01
7.313974871e-01,5.58731e-01,9.99999e-01,9.99999e-01,9.82616e-01,5.68677e-01,9.99891e-01
7.350544745e-01,5.69562e-01,9.99999e-01,9.99999e-01,9.90489e-01,5.75053e-01,9.99961e-01
7.387297469e-01,5.77289e-01,9.99999e-01,9.99999e-01,9.92994e-01,5.81372e-01,9.99982e-01
7.424233956e-01,5.85612e-01,9.99999e-01,9.99999e-01,9.96562e-01,5.87634e-01,9.99996e-01
7.461355126e-01,5.92601e-01,9.99999e-01,9.99999e-01,9.97918e-01,5.93837e-01,9.99998e-01
7.498661902e-01,5.99399e-01,9.99999e-01,9.99999e-01,9.99028e-01,5.99982e-01,9.99999e-01
7.536155211e-01,6.05778e-01,9.99999e-01,9.99999e-01,9.99524e-01,6.06066e-01,9.99999e-01
7.573835987e-01,6.11941e-01,9.99999e-01,9.99999e-01,9.99754e-01,6.12091e-01,9.99999e-01
7.611705167e-01,6.17961e-01,9.99999e-01,9.99999e-01,9.99847e-01,6.18055e-01,9.99999e-01
7.649763693e-01,6.23898e-01,9.99999e-01,9.99999e-01,9.99904e-01,6.23957e-01,9.99999e-01
7.688012511e-01,6.29756e-01,9.99999e-01,9.99999e-01,9.99933e-01,6.29797e-01,9.99999e-01
7.726452574e-01,6.35541e-01,9.99999e-01,9.99999e-01,9.99945e-01,6.35575e-01,9.99999e-01
7.765084837e-01,6.41241e-01,9.99999e-01,9.99999e-01,9.99922e-01,6.41291e-01,9.99999e-01
7.803910261e-01,6.33507e-01,9.99999e-01,9.79550e-01,9.99667e-01,6.46943e-01,9.99999e-01
7.842929812e-01,5.94506e-01,9.99999e-01,9.12101e-01,9.98840e-01,6.52532e-01,9.99997e-01
7.882144461e-01,5.95030e-01,9.99999e-01,9.06360e-01,9.97595e-01,6.58058e-01,9.99984e-01
7.921555184e-01,6.26163e-01,9.99999e-01,9.44958e-01,9.98676e-01,6.63520e-01,9.99971e-01
7.961162960e-01,6.42461e-01,9.99999e-01,9.62694e-01,9.97679e-01,6.68918e-01,9.99972e-01
8.000968774e-01,6.58731e-01,9.99999e-01,9.79639e-01,9.97309e-01,6.74252e-01,9.99970e-01
8.040973618e-01,6.70481e-01,9.99999e-01,9.89375e-01,9.97311e-01,6.79521e-01,9.99976e-01
8.081178486e-01,6.77272e-01,9.99999e-01,9.95125e-01,9.93972e-01,6.84727e-01,9.99977e-01
8.121584379e-01,6.71557e-01,9.99999e-01,9.98482e-01,9.75008e-01,6.89869e-01,9.99914e-01
8.162192301e-01,6.73772e-01,9.99999e-01,9.99664e-01,9.70160e-01,6.94946e-01,9.99680e-01
8.203003262e-01,6.89305e-01,9.99999e-01,9.99994e-01,9.85149e-01,6.99960e-01,9.99626e-01
8.244018279e-01,6.89811e-01,9.99999e-01,9.99999e-01,9.78872e-01,7.04909e-01,9.99702e-01
8.285238370e-01,6.96997e-01,9.99999e-01,9.99999e-01,9.82197e-01,7.09795e-01,9.99766e-01
8.326664562e-01,7.01646e-01,9.99999e-01,9.99999e-01,9.81943e-01,7.14617e-01,9.99902e-01
8.368297885e-01,7.10063e-01,9.99999e-01,9.99999e-01,9.87074e-01,7.19376e-01,9.99977e-01
8.410139374e-01,7.18490e-01,9.99999e-01,9.99999e-01,9.92303e-01,7.24071e-01,9.99986e-01
8.452190071e-01,7.25943e-01,9.99999e-01,9.99999e-01,9.96218e-01,7.28704e-01,9.99991e-01
8.494451021e-01,7.31664e-01,9.99999e-01,9.99999e-01,9.97811e-01,7.33273e-01,9.99993e-01
8.536923276e-01,7.36820e-01,9.99999e-01,9.99999e-01,9.98701e-01,7.37781e-01,9.99995e-01
8.579607893e-01,7.41633e-01,9.99999e-01,9.99999e-01,9.99202e-01,7.42226e-01,9.99998e-01
8.622505932e-01,7.46230e-01,9.99999e-01,9.99999e-01,9.99492e-01,7.46609e-01,9.99999e-01
8.665618462e-01,7.11639e-01,9.99999e-01,9.47964e-01,9.99686e-01,7.50931e-01,9.99999e-01
8.708946554e-01,5.96485e-01,9.99999e-01,7.90122e-01,9.99641e-01,7.55192e-01,9.99999e-01
8.752491287e-01,6.28685e-01,9.99999e-01,8.28269e-01,9.99520e-01,7.59392e-01,9.99998e-01
8.796253743e-01,6.88540e-01,9.99999e-01,9.02371e-01,9.99337e-01,7.63531e-01,9.99998e-01
8.840235012e-01,7.27416e-01,9.99999e-01,9.48351e-01,9.99243e-01,7.67611e-01,9.99994e-01
8.884436187e-01,7.53593e-01,9.99999e-01,9.79290e-01,9.97272e-01,7.71632e-01,9.99986e-01
8.928858368e-01,7.46949e-01,9.99999e-01,9.91582e-01,9.71274e-01,7.75593e-01,9.99923e-01
8.973502660e-01,7.38204e-01,9.99999e-01,9.97940e-01,9.49324e-01,7.79496e-01,9.99611e-01
9.018370173e-01,7.62074e-01,9.99999e-01,9.99772e-01,9.73661e-01,7.83341e-01,9.99389e-01
9.063462024e-01,7.64366e-01,9.99999e-01,9.94291e-01,9.77074e-01,7.87129e-01,9.99463e-01
9.108779334e-01,7.52206e-01,9.99999e-01,9.86757e-01,9.64330e-01,7.90859e-01,9.99442e-01
9.154323231e-01,7.59680e-01,9.99999e-01,9.96856e-01,9.59551e-01,7.94533e-01,9.99539e-01
9.200094847e-01,7.38402e-01,9.99999e-01,9.54859e-01,9.68099e-01,7.98151e-01,9.99741e-01
9.246095321e-01,7.14460e-01,9.99999e-01,9.36797e-01,9.50873e-01,8.01713e-01,9.99702e-01
9.292325798e-01,5.44527e-01,9.99999e-01,9.50307e-01,7.09922e-01,8.05220e-01,9.98842e-01
9.338787427e-01,4.91987e-01,9.99999e-01,9.51695e-01,6.40056e-01,8.08673e-01,9.95225e-01
9.385481364e-01,6.51507e-01,9.99999e-01,9.64350e-01,8.35555e-01,8.12073e-01,9.94323e-01
9.432408771e-01,6.18171e-01,9.99999e-01,9.77998e-01,7.78354e-01,8.15419e-01,9.95101e-01
9.479570815e-01,5.69479e-01,9.99999e-01,9.88678e-01,7.06072e-01,8.18712e-01,9.96011e-01
9.526968669e-01,6.28857e-01,9.99999e-01,9.94517e-01,7.70917e-01,8.21953e-01,9.97564e-01
9.574603512e-01,6.49677e-01,9.99999e-01,9.97651e-01,7.90104e-01,8.25142e-01,9.98762e-01
9.622476530e-01,6.82890e-01,9.99999e-01,9.99266e-01,8.25755e-01,8.28281e-01,9.99143e-01
9.670588912e-01,7.44156e-01,9.99999e-01,9.99779e-01,8.95811e-01,8.31369e-01,9.99414e-01
9.718941857e-01,7.78883e-01,9.99999e-01,9.99983e-01,9.33872e-01,8.34407e-01,9.99568e-01
9.767536566e-01,7.90933e-01,9.99999e-01,9.99999e-01,9.44825e-01,8.37396e-01,9.99670e-01
9.816374249e-01,8.05607e-01,9.99999e-01,9.99999e-01,9.58780e-01,8.40337e-01,9.99885e-01
9.865456120e-01,8.21335e-01,9.99999e-01,9.99999e-01,9.74058e-01,8.43229e-01,9.99975e-01
9.914783401e-01,8.32449e-01,9.99999e-01,9.99999e-01,9.83902e-01,8.46074e-01,9.99992e-01
9.964357318e-01,8.41400e-01,9.99999e-01,9.99999e-01,9.91201e-01,8.48872e-01,9.99995e-01
1.001417910e+00,8.47121e-01,9.99999e-01,9.99999e-01,9.94718e-01,8.51624e-01,9.99993e-01
1.006425000e+00,8.51752e-01,9.99999e-01,9.99999e-01,9.96991e-01,8.54330e-01,9.99991e-01
1.011457125e+00,8.55380e-01,9.99999e-01,9.99999e-01,9.98127e-01,8.56991e-01,9.99991e-01
1.016514411e+00,8.58511e-01,9.99999e-01,9.99999e-01,9.98730e-01,8.59607e-01,9.99994e-01
1.021596983e+00,8.61279e-01,9.99999e-01,9.99971e-01,9.98988e-01,8.62179e-01,9.99993e-01
1.026704968e+00,8.62109e-01,9.99999e-01,9.97783e-01,9.99211e-01,8.64709e-01,9.99995e-01
1.031838492e+00,8.41400e-01,9.99999e-01,9.70800e-01,9.99425e-01,8.67195e-01,9.99998e-01
1.036997685e+00,2.10517e-01,9.99999e-01,2.42142e-01,9.99659e-01,8.69639e-01,9.99999e-01
1.042182673e+00,2.33066e-01,9.99999e-01,2.67364e-01,9.99594e-01,8.72042e-01,9.99999e-01
1.047393587e+00,2.30280e-01,9.99999e-01,2.63484e-01,9.99462e-01,8.74403e-01,9.99999e-01
1.052630555e+00,2.30910e-02,9.99999e-01,2.63529e-02,9.99263e-01,8.76724e-01,9.99999e-01
1.057893707e+00,4.66688e-02,9.99999e-01,5.31419e-02,9.98771e-01,8.79006e-01,9.99999e-01
1.063183176e+00,1.04025e-01,9.99999e-01,1.18231e-01,9.97976e-01,8.81248e-01,9.99998e-01
1.068499092e+00,2.09122e-01,9.99999e-01,2.37429e-01,9.96609e-01,8.83451e-01,9.99997e-01
1.073841587e+00,3.55543e-01,9.99999e-01,4.02893e-01,9.96037e-01,8.85616e-01,9.99994e-01
1.079210795e+00,4.97706e-01,9.99999e-01,5.63354e-01,9.94912e-01,8.87743e-01,9.99985e-01
1.084606849e+00,6.45075e-01,9.99999e-01,7.30412e-01,9.92315e-01,8.89834e-01,9.99966e-01
1.090029883e+00,7.49813e-01,9.99999e-01,8.49941e-01,9.89016e-01,8.91888e-01,9.99931e-01
1.095480033e+00,8.00632e-01,9.99999e-01,9.22997e-01,9.70304e-01,8.93906e-01,9.99877e-01
1.100957433e+00,7.98353e-01,9.99999e-01,9.62183e-01,9.26140e-01,8.95888e-01,9.99774e-01
1.106462220e+00,7.26558e-01,9.99999e-01,9.84177e-01,8.22268e-01,8.97836e-01,9.99617e-01
1.111994531e+00,5.90391e-01,9.99999e-01,9.94108e-01,6.60555e-01,8.99749e-01,9.98986e-01
1.117554504e+00,4.57251e-01,9.99999e-01,9.98553e-01,5.09645e-01,9.01628e-01,9.96347e-01
1.123142276e+00,5.41717e-01,9.99999e-01,9.99904e-01,6.04855e-01,9.03474e-01,9.91360e-01
1.128757988e+00,6.52180e-01,9.99999e-01,9.99999e-01,7.27679e-01,9.05288e-01,9.90011e-01
1.134401778e+00,4.28657e-01,9.99999e-01,9.99999e-01,4.76624e-01,9.07069e-01,9.91500e-01
1.140073787e+00,7.47997e-01,9.99999e-01,9.99999e-01,8.28675e-01,9.08818e-01,9.93203e-01
1.145774156e+00,6.09051e-01,9.99999e-01,9.99999e-01,6.73081e-01,9.10536e-01,9.93776e-01
1.151503026e+00,5.84015e-01,9.99999e-01,9.99999e-01,6.42440e-01,9.12223e-01,9.96528e-01
1.157260541e+00,6.33696e-01,9.99999e-01,9.99999e-01,6.94134e-01,9.13880e-01,9.98960e-01
1.163046844e+00,6.98849e-01,9.99999e-01,9.99999e-01,7.63571e-01,9.15507e-01,9.99704e-01
1.168862078e+00,7.60850e-01,9.99999e-01,9.99999e-01,8.29747e-01,9.17105e-01,9.99847e-01
1.174706389e+00,8.18613e-01,9.99999e-01,9.99999e-01,8.91259e-01,9.18674e-01,9.99798e-01
1.180579921e+00,8.57679e-01,9.99999e-01,9.99999e-01,9.32325e-01,9.20214e-01,9.99695e-01
1.186482820e+00,8.85729e-01,9.99999e-01,9.99996e-01,9.61248e-01,9.21727e-01,9.99687e-01
1.192415234e+00,8.94891e-01,9.99999e-01,9.92087e-01,9.77229e-01,9.23212e-01,9.99765e-01
1.198377311e+00,5.25461e-01,9.99999e-01,5.77719e-01,9.80797e-01,9.24670e-01,9.99778e-01
1.204369197e+00,1.24678e-07,9.99999e-01,1.36087e-07,9.81798e-01,9.26101e-01,9.99799e-01
1.210391043e+00,2.36014e-25,9.99999e-01,2.56981e-25,9.82590e-01,9.27507e-01,9.99877e-01
1.216442998e+00,3.49494e-22,9.99999e-01,3.79766e-22,9.85149e-01,9.28887e-01,9.99925e-01
1.222525213e+00,7.20846e-22,9.99999e-01,7.79612e-22,9.88431e-01,9.30241e-01,9.99953e-01
1.228637839e+00,7.10267e-17,9.99999e-01,7.66818e-17,9.91958e-01,9.31571e-01,9.99977e-01
