#,Wave/freq,Total,N2,CO2,H2O,Rayleigh,CIA
4.000000000e-01,1.20063e-11,9.99999e-01,9.99999e-01,9.99951e-01,1.20069e-11,9.99999e-01
4.020000000e-01,1.97398e-11,9.99999e-01,9.99999e-01,9.99969e-01,1.97403e-11,9.99999e-01
4.040100000e-01,3.21212e-11,9.99999e-01,9.99999e-01,9.99986e-01,3.21217e-11,9.99999e-01
4.060300500e-01,5.17682e-11,9.99999e-01,9.99999e-01,9.99996e-01,5.17684e-11,9.99999e-01
4.080602003e-01,8.26489e-11,9.99999e-01,9.99999e-01,9.99998e-01,8.26490e-11,9.99999e-01
4.101005013e-01,1.30737e-10,9.99999e-01,9.99999e-01,9.99999e-01,1.30737e-10,9.99999e-01
4.121510038e-01,2.04938e-10,9.99999e-01,9.99999e-01,9.99997e-01,2.04938e-10,9.99999e-01
4.142117588e-01,3.18410e-10,9.99999e-01,9.99999e-01,9.99985e-01,3.18414e-10,9.99999e-01
4.162828176e-01,4.90406e-10,9.99999e-01,9.99999e-01,9.99939e-01,4.90435e-10,9.99999e-01
4.183642317e-01,7.48945e-10,9.99999e-01,9.99999e-01,9.99963e-01,7.48972e-10,9.99999e-01
4.204560528e-01,1.13425e-09,9.99999e-01,9.99999e-01,9.99977e-01,1.13427e-09,9.99999e-01
4.225583331e-01,1.70375e-09,9.99999e-01,9.99999e-01,9.99991e-01,1.70376e-09,9.99999e-01
4.246711247e-01,2.53868e-09,9.99999e-01,9.99999e-01,9.99992e-01,2.53869e-09,9.99999e-01
4.267944804e-01,3.75307e-09,9.99999e-01,9.99999e-01,9.99990e-01,3.75310e-09,9.99999e-01
4.289284528e-01,5.50572e-09,9.99999e-01,9.99999e-01,9.99992e-01,5.50576e-09,9.99999e-01
4.310730950e-01,8.01595e-09,9.99999e-01,9.99999e-01,9.99996e-01,8.01598e-09,9.99999e-01
4.332284605e-01,1.15844e-08,9.99999e-01,9.99999e-01,9.99998e-01,1.15844e-08,9.99999e-01
4.353946028e-01,1.66200e-08,9.99999e-01,9.99999e-01,9.99999e-01,1.66200e-08,9.99999e-01
4.375715758e-01,2.36750e-08,9.99999e-01,9.99999e-01,9.99993e-01,2.36752e-08,9.99999e-01
4.397594337e-01,3.34886e-08,9.99999e-01,9.99999e-01,9.99946e-01,3.34904e-08,9.99999e-01
4.419582309e-01,4.70385e-08,9.99999e-01,9.99999e-01,9.99727e-01,4.70513e-08,9.99999e-01
4.441680220e-01,6.56472e-08,9.99999e-01,9.99999e-01,9.99792e-01,6.56608e-08,9.99999e-01
4.463888621e-01,9.10098e-08,9.99999e-01,9.99999e-01,9.99782e-01,9.10295e-08,9.99999e-01
4.486208064e-01,1.25371e-07,9.99999e-01,9.99999e-01,9.99865e-01,1.25388e-07,9.99999e-01
4.508639105e-01,1.71615e-07,9.99999e-01,9.99999e-01,9.99936e-01,1.71626e-07,9.99999e-01
4.531182300e-01,2.33456e-07,9.99999e-01,9.99999e-01,9.99974e-01,2.33462e-07,9.99999e-01
4.553838212e-01,3.15648e-07,9.99999e-01,9.99999e-01,9.99982e-01,3.15653e-07,9.99999e-01
4.576607403e-01,4.24242e-07,9.99999e-01,9.99999e-01,9.99991e-01,4.24245e-07,9.99999e-01
4.599490440e-01,5.66872e-07,9.99999e-01,9.99999e-01,9.99994e-01,5.66875e-07,9.99999e-01
4.622487892e-01,7.53132e-07,9.99999e-01,9.99999e-01,9.99998e-01,7.53133e-07,9.99999e-01
4.645600332e-01,9.94985e-07,9.99999e-01,9.99999e-01,9.99995e-01,9.94989e-07,9.99999e-01
4.668828333e-01,1.30722e-06,9.99999e-01,9.99999e-01,9.99935e-01,1.30730e-06,9.99999e-01
4.692172475e-01,1.70818e-06,9.99999e-01,9.99999e-01,9.99863e-01,1.70841e-06,9.99999e-01
4.715633337e-01,2.22062e-06,9.99999e-01,9.99999e-01,9.99910e-01,2.22082e-06,9.99999e-01
4.739211504e-01,2.87175e-06,9.99999e-01,9.99999e-01,9.99914e-01,2.87199e-06,9.99999e-01
4.762907561e-01,3.69512e-06,9.99999e-01,9.99999e-01,9.99955e-01,3.69529e-06,9.99999e-01
4.786722099e-01,4.73089e-06,9.99999e-01,9.99999e-01,9.99981e-01,4.73097e-06,9.99999e-01
4.810655710e-01,6.02741e-06,9.99999e-01,9.99999e-01,9.99994e-01,6.02745e-06,9.99999e-01
4.834708988e-01,7.64215e-06,9.99999e-01,9.99999e-01,9.99946e-01,7.64256e-06,9.99999e-01
4.858882533e-01,9.64419e-06,9.99999e-01,9.99999e-01,9.99903e-01,9.64511e-06,9.99999e-01
4.883176946e-01,1.21156e-05,9.99999e-01,9.99999e-01,9.99918e-01,1.21166e-05,9.99999e-01
4.907592831e-01,1.51518e-05,9.99999e-01,9.99999e-01,9.99926e-01,1.51529e-05,9.99999e-01
4.932130795e-01,1.88656e-05,9.99999e-01,9.99999e-01,9.99947e-01,1.88665e-05,9.99999e-01
4.956791449e-01,2.33882e-05,9.99999e-01,9.99999e-01,9.99972e-01,2.33889e-05,9.99999e-01
4.981575406e-01,2.88684e-05,9.99999e-01,9.99999e-01,9.99861e-01,2.88724e-05,9.99999e-01
5.006483283e-01,3.54807e-05,9.99999e-01,9.99999e-01,9.99640e-01,3.54935e-05,9.99997e-01
5.031515699e-01,4.33764e-05,9.99999e-01,9.99999e-01,9.98197e-01,4.34555e-05,9.99980e-01
5.056673278e-01,5.29399e-05,9.99999e-01,9.99999e-01,9.99052e-01,5.29913e-05,9.99977e-01
5.081956644e-01,6.42891e-05,9.99999e-01,9.99999e-01,9.98804e-01,6.43668e-05,9.99986e-01
5.107366428e-01,7.78216e-05,9.99999e-01,9.99999e-01,9.99193e-01,7.78845e-05,9.99997e-01
5.132903260e-01,9.38438e-05,9.99999e-01,9.99999e-01,9.99539e-01,9.38869e-05,9.99999e-01
5.158567776e-01,1.12738e-04,9.99999e-01,9.99999e-01,9.99805e-01,1.12760e-04,9.99999e-01
5.184360615e-01,1.34928e-04,9.99999e-01,9.99999e-01,9.99921e-01,1.34938e-04,9.99999e-01
5.210282418e-01,1.60902e-04,9.99999e-01,9.99999e-01,9.99970e-01,1.60907e-04,9.99999e-01
5.236333830e-01,1.91185e-04,9.99999e-01,9.99999e-01,9.99882e-01,1.91207e-04,9.99998e-01
5.262515499e-01,2.26424e-04,9.99999e-01,9.99999e-01,9.99926e-01,2.26441e-04,9.99998e-01
5.288828077e-01,2.67253e-04,9.99999e-01,9.99999e-01,9.99931e-01,2.67272e-04,9.99998e-01
5.315272217e-01,3.14415e-04,9.99999e-01,9.99999e-01,9.99940e-01,3.14434e-04,9.99999e-01
5.341848578e-01,3.68719e-04,9.99999e-01,9.99999e-01,9.99960e-01,3.68733e-04,9.99999e-01
5.368557821e-01,4.30991e-04,9.99999e-01,9.99999e-01,9.99862e-01,4.31050e-04,9.99999e-01
5.395400610e-01,5.02094e-04,9.99999e-01,9.99999e-01,9.99500e-01,5.02348e-04,9.99994e-01
5.422377613e-01,5.83293e-04,9.99999e-01,9.99999e-01,9.99365e-01,5.83670e-04,9.99987e-01
5.449489501e-01,6.75741e-04,9.99999e-01,9.99999e-01,9.99404e-01,6.76151e-04,9.99987e-01
5.476736949e-01,7.80601e-04,9.99999e-01,9.99999e-01,9.99477e-01,7.81013e-04,9.99993e-01
5.504120634e-01,8.99230e-04,9.99999e-01,9.99999e-01,9.99620e-01,8.99572e-04,9.99997e-01
5.531641237e-01,1.03304e-03,9.99999e-01,9.99999e-01,9.99808e-01,1.03324e-03,9.99999e-01
5.559299443e-01,1.18342e-03,9.99999e-01,9.99999e-01,9.99907e-01,1.18353e-03,9.99999e-01
5.587095940e-01,1.35196e-03,9.99999e-01,9.99999e-01,9.99941e-01,1.35204e-03,9.99999e-01
5.615031420e-01,1.54040e-03,9.99999e-01,9.99999e-01,9.99935e-01,1.54049e-03,9.99999e-01
5.643106577e-01,1.75057e-03,9.99999e-01,9.99999e-01,9.99925e-01,1.75070e-03,9.99998e-01
5.671322110e-01,1.98274e-03,9.99999e-01,9.99999e-01,9.99091e-01,1.98456e-03,9.99991e-01
5.699678720e-01,2.24194e-03,9.99999e-01,9.99999e-01,9.99063e-01,2.24410e-03,9.99975e-01
5.728177114e-01,2.52888e-03,9.99999e-01,9.99999e-01,9.99012e-01,2.53143e-03,9.99979e-01
5.756818000e-01,2.84615e-03,9.99999e-01,9.99999e-01,9.99095e-01,2.84876e-03,9.99987e-01
5.785602090e-01,3.19587e-03,9.99999e-01,9.99999e-01,9.99213e-01,3.19840e-03,9.99996e-01
5.814530100e-01,3.57991e-03,9.99999e-01,9.99999e-01,9.99208e-01,3.58275e-03,9.99997e-01
5.843602750e-01,4.00047e-03,9.99999e-01,9.99999e-01,9.99048e-01,4.00430e-03,9.99994e-01
5.872820764e-01,4.42891e-03,9.99999e-01,9.99999e-01,9.91833e-01,4.46563e-03,9.99942e-01
5.902184868e-01,4.91996e-03,9.99999e-01,9.99999e-01,9.90205e-01,4.96939e-03,9.99843e-01
5.931695792e-01,5.47916e-03,9.99999e-01,9.99999e-01,9.93051e-01,5.51832e-03,9.99849e-01
5.961354271e-01,6.06823e-03,9.99999e-01,9.99999e-01,9.92402e-01,6.11522e-03,9.99913e-01
5.991161043e-01,6.72530e-03,9.99999e-01,9.99999e-01,9.94460e-01,6.76294e-03,9.99972e-01
6.021116848e-01,7.44094e-03,9.99999e-01,9.99999e-01,9.96857e-01,7.46442e-03,9.99996e-01
6.051222432e-01,8.20953e-03,9.99999e-01,9.99999e-01,9.98409e-01,8.22260e-03,9.99999e-01
6.081478544e-01,9.03431e-03,9.99999e-01,9.99999e-01,9.99312e-01,9.04051e-03,9.99999e-01
6.111885937e-01,9.91831e-03,9.99999e-01,9.99999e-01,9.99710e-01,9.92118e-03,9.99999e-01
6.142445367e-01,1.08663e-02,9.99999e-01,9.99999e-01,9.99869e-01,1.08677e-02,9.99999e-01
6.173157594e-01,1.18822e-02,9.99999e-01,9.99999e-01,9.99927e-01,1.18830e-02,9.99999e-01
6.204023382e-01,1.29696e-02,9.99999e-01,9.99999e-01,9.99938e-01,1.29704e-02,9.99999e-01
6.235043498e-01,1.41289e-02,9.99999e-01,9.99999e-01,9.99726e-01,1.41327e-02,9.99998e-01
6.266218716e-01,1.53512e-02,9.99999e-01,9.99999e-01,9.98581e-01,1.53732e-02,9.99989e-01
6.297549810e-01,1.66857e-02,9.99999e-01,9.99999e-01,9.99479e-01,1.66947e-02,9.99979e-01
6.329037559e-01,1.80816e-02,9.99999e-01,9.99999e-01,9.98975e-01,1.81004e-02,9.99983e-01
6.360682746e-01,1.95757e-02,9.99999e-01,9.99999e-01,9.99122e-01,1.95931e-02,9.99990e-01
6.392486160e-01,2.11516e-02,9.99999e-01,9.99999e-01,9.98865e-01,2.11757e-02,9.99995e-01
6.424448591e-01,2.28159e-02,9.99999e-01,9.99999e-01,9.98468e-01,2.28511e-02,9.99992e-01
6.456570834e-01,2.44463e-02,9.99999e-01,9.99999e-01,9.92909e-01,2.46220e-02,9.99956e-01
6.488853688e-01,2.63522e-02,9.99999e-01,9.99999e-01,9.94869e-01,2.64910e-02,9.99890e-01
6.521297956e-01,2.83094e-02,9.99999e-01,9.99999e-01,9.94771e-01,2.84607e-02,9.99909e-01
6.553904446e-01,3.03718e-02,9.99999e-01,9.99999e-01,9.94765e-01,3.05336e-02,9.99932e-01
6.586673968e-01,3.25654e-02,9.99999e-01,9.99999e-01,9.95538e-01,3.27120e-02,9.99977e-01
6.619607338e-01,3.49110e-02,9.99999e-01,9.99999e-01,9.97512e-01,3.49982e-02,9.99994e-01
6.652705375e-01,3.73383e-02,9.99999e-01,9.99999e-01,9.98506e-01,3.73942e-02,9.99997e-01
6.685968902e-01,3.98767e-02,9.99999e-01,9.99999e-01,9.99365e-01,3.99020e-02,9.99999e-01
6.719398746e-01,4.25098e-02,9.99999e-01,9.99999e-01,9.99678e-01,4.25235e-02,9.99999e-01
6.752995740e-01,4.52526e-02,9.99999e-01,9.99999e-01,9.99829e-01,4.52603e-02,9.99999e-01
6.786760719e-01,4.81016e-02,9.99999e-01,9.99999e-01,9.99745e-01,4.81138e-02,9.99999e-01
6.820694522e-01,5.10631e-02,9.99999e-01,9.99999e-01,9.99562e-01,5.10856e-02,9.99997e-01
6.854797995e-01,5.41462e-02,9.99999e-01,9.99999e-01,9.99440e-01,5.41767e-02,9.99994e-01
6.889071985e-01,5.73087e-02,9.99999e-01,9.99999e-01,9.98625e-01,5.73882e-02,9.99987e-01
6.923517345e-01,5.93798e-02,9.99999e-01,9.99999e-01,9.78013e-01,6.07210e-02,9.99893e-01
6.958134932e-01,6.34409e-02,9.99999e-01,9.99999e-01,9.88778e-01,6.41758e-02,9.99765e-01
6.992925606e-01,6.69991e-02,9.99999e-01,9.99999e-01,9.89080e-01,6.77530e-02,9.99788e-01
7.027890234e-01,7.04881e-02,9.99999e-01,9.99999e-01,9.86653e-01,7.14530e-02,9.99838e-01
7.063029686e-01,7.44235e-02,9.99999e-01,9.99999e-01,9.88753e-01,7.52760e-02,9.99919e-01
7.098344834e-01,7.83632e-02,9.99999e-01,9.99999e-01,9.89206e-01,7.92219e-02,9.99952e-01
7.133836558e-01,8.20713e-02,9.99999e-01,9.99999e-01,9.85452e-01,8.32906e-02,9.99905e-01
7.169505741e-01,7.78102e-02,9.99999e-01,9.99999e-01,8.90104e-01,8.74816e-02,9.99259e-01
7.205353270e-01,8.66899e-02,9.99999e-01,9.99999e-01,9.45624e-01,9.17945e-02,9.98693e-01
7.241380036e-01,8.94090e-02,9.99999e-01,9.99999e-01,9.30180e-01,9.62285e-02,9.98871e-01
7.277586936e-01,9.43323e-02,9.99999e-01,9.99999e-01,9.36860e-01,1.00783e-01,9.99077e-01
7.313974871e-01,9.83853e-02,9.99999e-01,9.99999e-01,9.33353e-01,1.05456e-01,9.99567e-01
7.350544745e-01,1.06144e-01,9.99999e-01,9.99999e-01,9.62928e-01,1.10247e-01,9.99849e-01
7.387297469e-01,1.11991e-01,9.99999e-01,9.99999e-01,9.72588e-01,1.15155e-01,9.99930e-01
7.424233956e-01,1.18557e-01,9.99999e-01,9.99999e-01,9.86524e-01,1.20178e-01,9.99987e-01
7.461355126e-01,1.24287e-01,9.99999e-01,9.99999e-01,9.91799e-01,1.25315e-01,9.99997e-01
7.498661902e-01,1.30064e-01,9.99999e-01,9.99999e-01,9.96186e-01,1.30562e-01,9.99998e-01
7.536155211e-01,1.35665e-01,9.99999e-01,9.99999e-01,9.98121e-01,1.35920e-01,9.99999e-01
7.573835987e-01,1.41248e-01,9.99999e-01,9.99999e-01,9.99033e-01,1.41385e-01,9.99999e-01
7.611705167e-01,1.46867e-01,9.99999e-01,9.99999e-01,9.99398e-01,1.46955e-01,9.99999e-01
7.649763693e-01,1.52571e-01,9.99999e-01,9.99999e-01,9.99622e-01,1.52628e-01,9.99999e-01
7.688012511e-01,1.58360e-01,9.99999e-01,9.99999e-01,9.99736e-01,1.58402e-01,9.99999e-01
7.726452574e-01,1.64238e-01,9.99999e-01,9.99999e-01,9.99783e-01,1.64273e-01,9.99999e-01
7.765084837e-01,1.70187e-01,9.99999e-01,9.99999e-01,9.99689e-01,1.70240e-01,9.99999e-01
7.803910261e-01,1.63145e-01,9.99999e-01,9.26548e-01,9.98656e-01,1.76299e-01,9.99998e-01
7.842929812e-01,1.28688e-01,9.99999e-01,7.08340e-01,9.95314e-01,1.82447e-01,9.99990e-01
7.882144461e-01,1.29377e-01,9.99999e-01,6.91790e-01,9.90458e-01,1.88683e-01,9.99933e-01
7.921555184e-01,1.55243e-01,9.99999e-01,8.00153e-01,9.94789e-01,1.95002e-01,9.99885e-01
7.961162960e-01,1.71896e-01,9.99999e-01,8.61454e-01,9.90688e-01,2.01401e-01,9.99891e-01
8.000968774e-01,1.89631e-01,9.99999e-01,9.22111e-01,9.89317e-01,2.07878e-01,9.99884e-01
8.040973618e-01,2.03428e-01,9.99999e-01,9.58998e-01,9.89298e-01,2.14429e-01,9.99911e-01
8.081178486e-01,2.11594e-01,9.99999e-01,9.80871e-01,9.75894e-01,2.21051e-01,9.99910e-01
8.121584379e-01,2.04565e-01,9.99999e-01,9.94122e-01,9.03732e-01,2.27740e-01,9.99661e-01
8.162192301e-01,2.07729e-01,9.99999e-01,9.98698e-01,8.88090e-01,2.34494e-01,9.98729e-01
8.203003262e-01,2.26993e-01,9.99999e-01,9.99982e-01,9.42088e-01,2.41309e-01,9.98512e-01
8.244018279e-01,2.28661e-01,9.99999e-01,9.99999e-01,9.22439e-01,2.48181e-01,9.98815e-01
8.285238370e-01,2.37283e-01,9.99999e-01,9.99999e-01,9.30991e-01,2.55108e-01,9.99069e-01
8.326664562e-01,2.43813e-01,9.99999e-01,9.99999e-01,9.30638e-01,2.62085e-01,9.99614e-01
8.368297885e-01,2.55614e-01,9.99999e-01,9.99999e-01,9.49931e-01,2.69110e-01,9.99911e-01
8.410139374e-01,2.67865e-01,9.99999e-01,9.99999e-01,9.69945e-01,2.76179e-01,9.99948e-01
8.452190071e-01,2.79077e-01,9.99999e-01,9.99999e-01,9.85166e-01,2.83288e-01,9.99968e-01
8.494451021e-01,2.87910e-01,9.99999e-01,9.99999e-01,9.91331e-01,2.90434e-01,9.99974e-01
8.536923276e-01,2.96088e-01,9.99999e-01,9.99999e-01,9.94884e-01,2.97614e-01,9.99984e-01
8.579607893e-01,3.03860e-01,9.99999e-01,9.99999e-01,9.96836e-01,3.04825e-01,9.99995e-01
8.622505932e-01,3.11437e-01,9.99999e-01,9.99999e-01,9.97994e-01,3.12063e-01,9.99998e-01
8.665618462e-01,2.80232e-01,9.99999e-01,8.78605e-01,9.98754e-01,3.19324e-01,9.99999e-01
8.708946554e-01,1.37931e-01,9.99999e-01,4.22877e-01,9.98570e-01,3.26606e-01,9.99998e-01
8.752491287e-01,1.64425e-01,9.99999e-01,4.93319e-01,9.98089e-01,3.33906e-01,9.99997e-01
8.796253743e-01,2.29362e-01,9.99999e-01,6.73862e-01,9.97345e-01,3.41219e-01,9.99993e-01
8.840235012e-01,2.82474e-01,9.99999e-01,8.12832e-01,9.96971e-01,3.48544e-01,9.99981e-01
8.884436187e-01,3.24358e-01,9.99999e-01,9.21580e-01,9.88789e-01,3.55876e-01,9.99947e-01
8.928858368e-01,3.12820e-01,9.99999e-01,9.67346e-01,8.89985e-01,3.63213e-01,9.99697e-01
8.973502660e-01,2.99556e-01,9.99999e-01,9.92017e-01,8.15863e-01,3.70552e-01,9.98454e-01
9.018370173e-01,3.39829e-01,9.99999e-01,9.99120e-01,9.02206e-01,3.77890e-01,9.97570e-01
9.063462024e-01,3.42976e-01,9.99999e-01,9.77031e-01,9.11687e-01,3.85224e-01,9.97865e-01
9.108779334e-01,3.22508e-01,9.99999e-01,9.48866e-01,8.66502e-01,3.92552e-01,9.97782e-01
9.154323231e-01,3.35289e-01,9.99999e-01,9.87901e-01,8.49822e-01,3.99870e-01,9.98166e-01
9.200094847e-01,3.07273e-01,9.99999e-01,8.45952e-01,8.80862e-01,4.07175e-01,9.98973e-01
9.246095321e-01,2.65204e-01,9.99999e-01,7.73978e-01,8.20084e-01,4.14466e-01,9.98817e-01
9.292325798e-01,1.00943e-01,9.99999e-01,8.18239e-01,2.83181e-01,4.21740e-01,9.94303e-01
9.338787427e-01,7.19695e-02,9.99999e-01,8.24148e-01,2.00725e-01,4.28994e-01,9.79562e-01
9.385481364e-01,1.95682e-01,9.99999e-01,8.66794e-01,5.20969e-01,4.36226e-01,9.77568e-01
9.432408771e-01,1.64874e-01,9.99999e-01,9.16147e-01,4.10034e-01,4.43433e-01,9.80617e-01
9.479570815e-01,1.25555e-01,9.99999e-01,9.55942e-01,2.94771e-01,4.50613e-01,9.84196e-01
9.526968669e-01,1.74673e-01,9.99999e-01,9.78575e-01,3.92394e-01,4.57764e-01,9.90330e-01
9.574603512e-01,1.89163e-01,9.99999e-01,9.90786e-01,4.12187e-01,4.64885e-01,9.95076e-01
9.622476530e-01,2.26651e-01,9.99999e-01,9.97121e-01,4.83076e-01,4.71972e-01,9.96592e-01
9.670588912e-01,3.12856e-01,9.99999e-01,9.99138e-01,6.55139e-01,4.79024e-01,9.97668e-01
9.718941857e-01,3.70674e-01,9.99999e-01,9.99940e-01,7.63992e-01,4.86038e-01,9.98283e-01
9.767536566e-01,3.93643e-01,9.99999e-01,9.99999e-01,7.99489e-01,4.93014e-01,9.98687e-01
9.816374249e-01,4.23346e-01,9.99999e-01,9.99999e-01,8.47160e-01,4.99950e-01,9.99545e-01
9.865456120e-01,4.56837e-01,9.99999e-01,9.99999e-01,9.01424e-01,5.06843e-01,9.99904e-01
9.914783401e-01,4.81705e-01,9.99999e-01,9.99999e-01,9.37755e-01,5.13692e-01,9.99973e-01
9.964357318e-01,5.02591e-01,9.99999e-01,9.99999e-01,9.65614e-01,5.20496e-01,9.99984e-01
1.001417910e+00,5.16303e-01,9.99999e-01,9.99999e-01,9.79255e-01,5.27252e-01,9.99976e-01
1.006425000e+00,5.27585e-01,9.99999e-01,9.99999e-01,9.88091e-01,5.33961e-01,9.99966e-01
1.011457125e+00,5.36610e-01,9.99999e-01,9.99999e-01,9.92614e-01,5.40620e-01,9.99968e-01
1.016514411e+00,5.44464e-01,9.99999e-01,9.99999e-01,9.94972e-01,5.47227e-01,9.99977e-01
1.021596983e+00,5.51472e-01,9.99999e-01,9.99857e-01,9.95988e-01,5.53783e-01,9.99978e-01
1.026704968e+00,5.53427e-01,9.99999e-01,9.90864e-01,9.96868e-01,5.60285e-01,9.99986e-01
1.031838492e+00,5.17924e-01,9.99999e-01,9.15853e-01,9.97728e-01,5.66733e-01,9.99995e-01
1.036997685e+00,3.78918e-02,9.99999e-01,6.61823e-02,9.98647e-01,5.73126e-01,9.99998e-01
1.042182673e+00,6.17112e-03,9.99999e-01,1.06635e-02,9.98380e-01,5.79463e-01,9.99999e-01
1.047393587e+00,1.28084e-02,9.99999e-01,2.19066e-02,9.97857e-01,5.85742e-01,9.99999e-01
1.052630555e+00,8.85431e-06,9.99999e-01,1.49862e-05,9.97056e-01,5.91963e-01,9.99998e-01
1.057893707e+00,3.31554e-05,9.99999e-01,5.55840e-05,9.95081e-01,5.98125e-01,9.99997e-01
1.063183176e+00,4.07734e-04,9.99999e-01,6.78138e-04,9.91928e-01,6.04228e-01,9.99995e-01
1.068499092e+00,2.76111e-03,9.99999e-01,4.56846e-03,9.86541e-01,6.10271e-01,9.99990e-01
1.073841587e+00,1.95108e-02,9.99999e-01,3.20444e-02,9.84240e-01,6.16254e-01,9.99979e-01
1.079210795e+00,6.99236e-02,9.99999e-01,1.14283e-01,9.79915e-01,6.22174e-01,9.99945e-01
1.084606849e+00,1.80744e-01,9.99999e-01,2.95947e-01,9.69705e-01,6.28034e-01,9.99869e-01
1.090029883e+00,3.21502e-01,9.99999e-01,5.28969e-01,9.56514e-01,6.33831e-01,9.99730e-01
1.095480033e+00,4.15056e-01,9.99999e-01,7.30434e-01,8.86233e-01,6.39565e-01,9.99512e-01
1.100957433e+00,4.09786e-01,9.99999e-01,8.59034e-01,7.37245e-01,6.45237e-01,9.99102e-01
1.106462220e+00,2.87597e-01,9.99999e-01,9.39140e-01,4.68951e-01,6.50845e-01,9.98479e-01
1.111994531e+00,1.35334e-01,9.99999e-01,9.76975e-01,2.11174e-01,6.56390e-01,9.95968e-01
1.117554504e+00,5.56622e-02,9.99999e-01,9.94363e-01,8.56515e-02,6.61871e-01,9.85521e-01
1.123142276e+00,1.16941e-01,9.99999e-01,9.99631e-01,1.81429e-01,6.67288e-01,9.66005e-01
1.128757988e+00,2.02063e-01,9.99999e-01,9.99999e-01,3.12664e-01,6.72642e-01,9.60779e-01
1.134401778e+00,9.54990e-02,9.99999e-01,9.99999e-01,1.45743e-01,6.77931e-01,9.66551e-01
1.140073787e+00,3.24304e-01,9.99999e-01,9.99999e-01,4.87794e-01,6.83156e-01,9.73183e-01
1.145774156e+00,1.60887e-01,9.99999e-01,9.99999e-01,2.39628e-01,6.88317e-01,9.75425e-01
1.151503026e+00,1.41058e-01,9.99999e-01,9.99999e-01,2.06264e-01,6.93414e-01,9.86234e-01
1.157260541e+00,1.74262e-01,9.99999e-01,9.99999e-01,2.50535e-01,6.98447e-01,9.95863e-01
1.163046844e+00,2.51228e-01,9.99999e-01,9.99999e-01,3.57574e-01,7.03416e-01,9.98825e-01
1.168862078e+00,3.41654e-01,9.99999e-01,9.99999e-01,4.82635e-01,7.08321e-01,9.99394e-01
1.174706389e+00,4.54099e-01,9.99999e-01,9.99999e-01,6.37250e-01,7.13162e-01,9.99197e-01
1.180579921e+00,5.44524e-01,9.99999e-01,9.99999e-01,7.59373e-01,7.17940e-01,9.98787e-01
1.186482820e+00,6.17264e-01,9.99999e-01,9.99977e-01,8.55240e-01,7.22655e-01,9.98755e-01
1.192415234e+00,6.42614e-01,9.99999e-01,9.68301e-01,9.12562e-01,7.27306e-01,9.99067e-01
1.198377311e+00,3.63154e-01,9.99999e-01,5.29599e-01,9.25663e-01,7.31895e-01,9.99115e-01
1.204369197e+00,1.06083e-23,9.99999e-01,1.50379e-23,9.29701e-01,7.36421e-01,9.99229e-01
1.210391043e+00,2.39733e-94,9.99999e-01,3.36543e-94,9.32612e-01,7.40885e-01,9.99515e-01
1.216442998e+00,1.03319e-81,9.99999e-01,1.43866e-81,9.42512e-01,7.45287e-01,9.99702e-01
1.222525213e+00,1.73028e-80,9.99999e-01,2.36428e-80,9.54870e-01,7.49627e-01,9.99815e-01
1.228637839e+00,3.51472e-62,9.99999e-01,4.76460e-62,9.68414e-01,7.53907e-01,9.99913e-01
