#,Wave/freq,Total,N2,CO2,H2O,Rayleigh,CIA
4.000000000e-01,2.71416e-04,9.99999e-01,9.99999e-01,9.99983e-01,2.71420e-04,9.99999e-01
4.020000000e-01,3.19267e-04,9.99999e-01,9.99999e-01,9.99989e-01,3.19270e-04,9.99999e-01
4.040100000e-01,3.74289e-04,9.99999e-01,9.99999e-01,9.99995e-01,3.74291e-04,9.99999e-01
4.060300500e-01,4.37418e-04,9.99999e-01,9.99999e-01,9.99998e-01,4.37418e-04,9.99999e-01
4.080602003e-01,5.09621e-04,9.99999e-01,9.99999e-01,9.99999e-01,5.09621e-04,9.99999e-01
4.101005013e-01,5.91953e-04,9.99999e-01,9.99999e-01,9.99999e-01,5.91953e-04,9.99999e-01
4.121510038e-01,6.85555e-04,9.99999e-01,9.99999e-01,9.99998e-01,6.85556e-04,9.99999e-01
4.142117588e-01,7.91656e-04,9.99999e-01,9.99999e-01,9.99995e-01,7.91660e-04,9.99999e-01
4.162828176e-01,9.11574e-04,9.99999e-01,9.99999e-01,9.99979e-01,9.11591e-04,9.99999e-01
4.183642317e-01,1.04676e-03,9.99999e-01,9.99999e-01,9.99987e-01,1.04677e-03,9.99999e-01
4.204560528e-01,1.19871e-03,9.99999e-01,9.99999e-01,9.99992e-01,1.19872e-03,9.99999e-01
4.225583331e-01,1.36905e-03,9.99999e-01,9.99999e-01,9.99996e-01,1.36905e-03,9.99999e-01
4.246711247e-01,1.55949e-03,9.99999e-01,9.99999e-01,9.99997e-01,1.55949e-03,9.99999e-01
4.267944804e-01,1.77185e-03,9.99999e-01,9.99999e-01,9.99996e-01,1.77185e-03,9.99999e-01
4.289284528e-01,2.00806e-03,9.99999e-01,9.99999e-01,9.99997e-01,2.00807e-03,9.99999e-01
4.310730950e-01,2.27015e-03,9.99999e-01,9.99999e-01,9.99998e-01,2.27015e-03,9.99999e-01
4.332284605e-01,2.56023e-03,9.99999e-01,9.99999e-01,9.99999e-01,2.56023e-03,9.99999e-01
4.353946028e-01,2.88053e-03,9.99999e-01,9.99999e-01,9.99999e-01,2.88053e-03,9.99999e-01
4.375715758e-01,3.23335e-03,9.99999e-01,9.99999e-01,9.99997e-01,3.23336e-03,9.99999e-01
4.397594337e-01,3.62107e-03,9.99999e-01,9.99999e-01,9.99982e-01,3.62113e-03,9.99999e-01
4.419582309e-01,4.04599e-03,9.99999e-01,9.99999e-01,9.99910e-01,4.04635e-03,9.99999e-01
4.441680220e-01,4.51129e-03,9.99999e-01,9.99999e-01,9.99931e-01,4.51159e-03,9.99999e-01
4.463888621e-01,5.01917e-03,9.99999e-01,9.99999e-01,9.99928e-01,5.01953e-03,9.99999e-01
4.486208064e-01,5.57264e-03,9.99999e-01,9.99999e-01,9.99955e-01,5.57289e-03,9.99999e-01
4.508639105e-01,6.17436e-03,9.99999e-01,9.99999e-01,9.99978e-01,6.17449e-03,9.99999e-01
4.531182300e-01,6.82713e-03,9.99999e-01,9.99999e-01,9.99991e-01,6.82719e-03,9.99999e-01
4.553838212e-01,7.53388e-03,9.99999e-01,9.99999e-01,9.99993e-01,7.53392e-03,9.99999e-01
4.576607403e-01,8.29763e-03,9.99999e-01,9.99999e-01,9.99996e-01,8.29765e-03,9.99999e-01
4.599490440e-01,9.12137e-03,9.99999e-01,9.99999e-01,9.99997e-01,9.12139e-03,9.99999e-01
4.622487892e-01,1.00082e-02,9.99999e-01,9.99999e-01,9.99999e-01,1.00082e-02,9.99999e-01
4.645600332e-01,1.09610e-02,9.99999e-01,9.99999e-01,9.99998e-01,1.09611e-02,9.99999e-01
4.668828333e-01,1.19829e-02,9.99999e-01,9.99999e-01,9.99978e-01,1.19831e-02,9.99999e-01
4.692172475e-01,1.30769e-02,9.99999e-01,9.99999e-01,9.99955e-01,1.30775e-02,9.99999e-01
4.715633337e-01,1.42467e-02,9.99999e-01,9.99999e-01,9.99970e-01,1.42471e-02,9.99999e-01
4.739211504e-01,1.54947e-02,9.99999e-01,9.99999e-01,9.99971e-01,1.54951e-02,9.99999e-01
4.762907561e-01,1.68243e-02,9.99999e-01,9.99999e-01,9.99985e-01,1.68245e-02,9.99999e-01
4.786722099e-01,1.82382e-02,9.99999e-01,9.99999e-01,9.99993e-01,1.82383e-02,9.99999e-01
4.810655710e-01,1.97394e-02,9.99999e-01,9.99999e-01,9.99997e-01,1.97395e-02,9.99999e-01
4.834708988e-01,2.13304e-02,9.99999e-01,9.99999e-01,9.99982e-01,2.13308e-02,9.99999e-01
4.858882533e-01,2.30144e-02,9.99999e-01,9.99999e-01,9.99968e-01,2.30151e-02,9.99999e-01
4.883176946e-01,2.47945e-02,9.99999e-01,9.99999e-01,9.99973e-01,2.47952e-02,9.99999e-01
4.907592831e-01,2.66730e-02,9.99999e-01,9.99999e-01,9.99975e-01,2.66736e-02,9.99999e-01
4.932130795e-01,2.86526e-02,9.99999e-01,9.99999e-01,9.99982e-01,2.86531e-02,9.99999e-01
4.956791449e-01,3.07356e-02,9.99999e-01,9.99999e-01,9.99990e-01,3.07359e-02,9.99999e-01
4.981575406e-01,3.29230e-02,9.99999e-01,9.99999e-01,9.99954e-01,3.29244e-02,9.99999e-01
5.006483283e-01,3.52168e-02,9.99999e-01,9.99999e-01,9.99882e-01,3.52210e-02,9.99998e-01
5.031515699e-01,3.76051e-02,9.99999e-01,9.99999e-01,9.99410e-01,3.76275e-02,9.99993e-01
5.056673278e-01,4.01333e-02,9.99999e-01,9.99999e-01,9.99689e-01,4.01460e-02,9.99992e-01
5.081956644e-01,4.27615e-02,9.99999e-01,9.99999e-01,9.99609e-01,4.27784e-02,9.99995e-01
5.107366428e-01,4.55141e-02,9.99999e-01,9.99999e-01,9.99736e-01,4.55261e-02,9.99998e-01
5.132903260e-01,4.83836e-02,9.99999e-01,9.99999e-01,9.99849e-01,4.83909e-02,9.99999e-01
5.158567776e-01,5.13707e-02,9.99999e-01,9.99999e-01,9.99936e-01,5.13739e-02,9.99999e-01
5.184360615e-01,5.44751e-02,9.99999e-01,9.99999e-01,9.99974e-01,5.44764e-02,9.99999e-01
5.210282418e-01,5.76989e-02,9.99999e-01,9.99999e-01,9.99989e-01,5.76995e-02,9.99999e-01
5.236333830e-01,6.10415e-02,9.99999e-01,9.99999e-01,9.99961e-01,6.10438e-02,9.99999e-01
5.262515499e-01,6.45086e-02,9.99999e-01,9.99999e-01,9.99975e-01,6.45102e-02,9.99999e-01
5.288828077e-01,6.80975e-02,9.99999e-01,9.99999e-01,9.99977e-01,6.80990e-02,9.99999e-01
5.315272217e-01,7.18094e-02,9.99999e-01,9.99999e-01,9.99980e-01,7.18107e-02,9.99999e-01
5.341848578e-01,7.56444e-02,9.99999e-01,9.99999e-01,9.99986e-01,7.56454e-02,9.99999e-01
5.368557821e-01,7.95994e-02,9.99999e-01,9.99999e-01,9.99954e-01,7.96030e-02,9.99999e-01
5.395400610e-01,8.36695e-02,9.99999e-01,9.99999e-01,9.99836e-01,8.36833e-02,9.99997e-01
5.422377613e-01,8.78673e-02,9.99999e-01,9.99999e-01,9.99792e-01,8.78859e-02,9.99995e-01
5.449489501e-01,9.21920e-02,9.99999e-01,9.99999e-01,9.99805e-01,9.22103e-02,9.99995e-01
5.476736949e-01,9.66391e-02,9.99999e-01,9.99999e-01,9.99828e-01,9.66557e-02,9.99997e-01
5.504120634e-01,1.01209e-01,9.99999e-01,9.99999e-01,9.99875e-01,1.01221e-01,9.99998e-01
5.531641237e-01,1.05899e-01,9.99999e-01,9.99999e-01,9.99937e-01,1.05906e-01,9.99999e-01
5.559299443e-01,1.10705e-01,9.99999e-01,9.99999e-01,9.99969e-01,1.10708e-01,9.99999e-01
5.587095940e-01,1.15625e-01,9.99999e-01,9.99999e-01,9.99980e-01,1.15627e-01,9.99999e-01
5.615031420e-01,1.20658e-01,9.99999e-01,9.99999e-01,9.99978e-01,1.20661e-01,9.99999e-01
5.643106577e-01,1.25805e-01,9.99999e-01,9.99999e-01,9.99975e-01,1.25808e-01,9.99999e-01
5.671322110e-01,1.31027e-01,9.99999e-01,9.99999e-01,9.99703e-01,1.31066e-01,9.99996e-01
5.699678720e-01,1.36391e-01,9.99999e-01,9.99999e-01,9.99693e-01,1.36434e-01,9.99991e-01
5.728177114e-01,1.41862e-01,9.99999e-01,9.99999e-01,9.99677e-01,1.41909e-01,9.99992e-01
5.756818000e-01,1.47445e-01,9.99999e-01,9.99999e-01,9.99704e-01,1.47489e-01,9.99995e-01
5.785602090e-01,1.53133e-01,9.99999e-01,9.99999e-01,9.99742e-01,1.53172e-01,9.99998e-01
5.814530100e-01,1.58914e-01,9.99999e-01,9.99999e-01,9.99740e-01,1.58955e-01,9.99998e-01
5.843602750e-01,1.64784e-01,9.99999e-01,9.99999e-01,9.99688e-01,1.64836e-01,9.99997e-01
5.872820764e-01,1.70351e-01,9.99999e-01,9.99999e-01,9.97324e-01,1.70811e-01,9.99980e-01
5.902184868e-01,1.76302e-01,9.99999e-01,9.99999e-01,9.96788e-01,1.76879e-01,9.99948e-01
5.931695792e-01,1.82610e-01,9.99999e-01,9.99999e-01,9.97723e-01,1.83036e-01,9.99950e-01
5.961354271e-01,1.88803e-01,9.99999e-01,9.99999e-01,9.97510e-01,1.89279e-01,9.99971e-01
5.991161043e-01,1.95249e-01,9.99999e-01,9.99999e-01,9.98186e-01,1.95606e-01,9.99990e-01
6.021116848e-01,2.01805e-01,9.99999e-01,9.99999e-01,9.98971e-01,2.02013e-01,9.99998e-01
6.051222432e-01,2.08388e-01,9.99999e-01,9.99999e-01,9.99479e-01,2.08497e-01,9.99999e-01
6.081478544e-01,2.15006e-01,9.99999e-01,9.99999e-01,9.99775e-01,2.15055e-01,9.99999e-01
6.111885937e-01,2.21662e-01,9.99999e-01,9.99999e-01,9.99904e-01,2.21683e-01,9.99999e-01
6.142445367e-01,2.28369e-01,9.99999e-01,9.99999e-01,9.99957e-01,2.28379e-01,9.99999e-01
6.173157594e-01,2.35133e-01,9.99999e-01,9.99999e-01,9.99976e-01,2.35139e-01,9.99999e-01
6.204023382e-01,2.41954e-01,9.99999e-01,9.99999e-01,9.99979e-01,2.41959e-01,9.99999e-01
6.235043498e-01,2.48815e-01,9.99999e-01,9.99999e-01,9.99910e-01,2.48837e-01,9.99999e-01
6.266218716e-01,2.55649e-01,9.99999e-01,9.99999e-01,9.99536e-01,2.55768e-01,9.99996e-01
6.297549810e-01,2.62704e-01,9.99999e-01,9.99999e-01,9.99829e-01,2.62750e-01,9.99993e-01
6.329037559e-01,2.69688e-01,9.99999e-01,9.99999e-01,9.99664e-01,2.69779e-01,9.99994e-01
6.360682746e-01,2.76772e-01,9.99999e-01,9.99999e-01,9.99713e-01,2.76852e-01,9.99996e-01
6.392486160e-01,2.83859e-01,9.99999e-01,9.99999e-01,9.99629e-01,2.83965e-01,9.99998e-01
6.424448591e-01,2.90968e-01,9.99999e-01,9.99999e-01,9.99499e-01,2.91115e-01,9.99997e-01
6.456570834e-01,2.97602e-01,9.99999e-01,9.99999e-01,9.97679e-01,2.98298e-01,9.99985e-01
6.488853688e-01,3.04987e-01,9.99999e-01,9.99999e-01,9.98319e-01,3.05511e-01,9.99963e-01
6.521297956e-01,3.12206e-01,9.99999e-01,9.99999e-01,9.98286e-01,3.12751e-01,9.99970e-01
6.553904446e-01,3.19460e-01,9.99999e-01,9.99999e-01,9.98287e-01,3.20015e-01,9.99977e-01
6.586673968e-01,3.26818e-01,9.99999e-01,9.99999e-01,9.98539e-01,3.27299e-01,9.99992e-01
6.619607338e-01,3.34327e-01,9.99999e-01,9.99999e-01,9.99186e-01,3.34599e-01,9.99997e-01
6.652705375e-01,3.41747e-01,9.99999e-01,9.99999e-01,9.99511e-01,3.41914e-01,9.99998e-01
6.685968902e-01,3.49167e-01,9.99999e-01,9.99999e-01,9.99792e-01,3.49239e-01,9.99999e-01
6.719398746e-01,3.56535e-01,9.99999e-01,9.99999e-01,9.99894e-01,3.56572e-01,9.99999e-01
6.752995740e-01,3.63890e-01,9.99999e-01,9.99999e-01,9.99944e-01,3.63910e-01,9.99999e-01
6.786760719e-01,3.71218e-01,9.99999e-01,9.99999e-01,9.99916e-01,3.71249e-01,9.99999e-01
6.820694522e-01,3.78533e-01,9.99999e-01,9.99999e-01,9.99856e-01,3.78587e-01,9.99998e-01
6.854797995e-01,3.85849e-01,9.99999e-01,9.99999e-01,9.99817e-01,3.85920e-01,9.99997e-01
6.889071985e-01,3.93069e-01,9.99999e-01,9.99999e-01,9.99551e-01,3.93247e-01,9.99995e-01
6.923517345e-01,3.97650e-01,9.99999e-01,9.99999e-01,9.92759e-01,4.00564e-01,9.99965e-01
6.958134932e-01,4.06331e-01,9.99999e-01,9.99999e-01,9.96306e-01,4.07868e-01,9.99923e-01
6.992925606e-01,4.13643e-01,9.99999e-01,9.99999e-01,9.96419e-01,4.15158e-01,9.99930e-01
7.027890234e-01,4.20556e-01,9.99999e-01,9.99999e-01,9.95616e-01,4.22430e-01,9.99946e-01
7.063029686e-01,4.28085e-01,9.99999e-01,9.99999e-01,9.96310e-01,4.29682e-01,9.99973e-01
7.098344834e-01,4.35358e-01,9.99999e-01,9.99999e-01,9.96460e-01,4.36911e-01,9.99984e-01
7.133836558e-01,4.41981e-01,9.99999e-01,9.99999e-01,9.95224e-01,4.44116e-01,9.99968e-01
7.169505741e-01,4.34184e-01,9.99999e-01,9.99999e-01,9.62321e-01,4.51293e-01,9.99757e-01
7.205353270e-01,4.49879e-01,9.99999e-01,9.99999e-01,9.81739e-01,4.58442e-01,9.99572e-01
7.241380036e-01,4.54451e-01,9.99999e-01,9.99999e-01,9.76499e-01,4.65559e-01,9.99631e-01
7.277586936e-01,4.62479e-01,9.99999e-01,9.99999e-01,9.78789e-01,4.72643e-01,9.99698e-01
7.313974871e-01,4.68890e-01,9.99999e-01,9.99999e-01,9.77619e-01,4.79691e-01,9.99858e-01
7.350544745e-01,4.80693e-01,9.99999e-01,9.99999e-01,9.87701e-01,4.86702e-01,9.99950e-01
7.387297469e-01,4.89195e-01,9.99999e-01,9.99999e-01,9.90947e-01,4.93675e-01,9.99977e-01
7.424233956e-01,4.98388e-01,9.99999e-01,9.99999e-01,9.95572e-01,5.00606e-01,9.99995e-01
7.461355126e-01,5.06131e-01,9.99999e-01,9.99999e-01,9.97311e-01,5.07495e-01,9.99998e-01
7.498661902e-01,5.13698e-01,9.99999e-01,9.99999e-01,9.98751e-01,5.14340e-01,9.99999e-01
7.536155211e-01,5.20819e-01,9.99999e-01,9.99999e-01,9.99385e-01,5.21139e-01,9.99999e-01
7.573835987e-01,5.27725e-01,9.99999e-01,9.99999e-01,9.99683e-01,5.27891e-01,9.99999e-01
7.611705167e-01,5.34490e-01,9.99999e-01,9.99999e-01,9.99803e-01,5.34595e-01,9.99999e-01
7.649763693e-01,5.41182e-01,9.99999e-01,9.99999e-01,9.99876e-01,5.41249e-01,9.99999e-01
7.688012511e-01,5.47805e-01,9.99999e-01,9.99999e-01,9.99913e-01,5.47852e-01,9.99999e-01
7.726452574e-01,5.54363e-01,9.99999e-01,9.99999e-01,9.99928e-01,5.54403e-01,9.99999e-01
7.765084837e-01,5.60843e-01,9.99999e-01,9.99999e-01,9.99898e-01,5.60900e-01,9.99999e-01
7.803910261e-01,5.51209e-01,9.99999e-01,9.71978e-01,9.99560e-01,5.67343e-01,9.99999e-01
7.842929812e-01,5.09167e-01,9.99999e-01,8.88779e-01,9.98468e-01,5.73730e-01,9.99996e-01
7.882144461e-01,5.09145e-01,9.99999e-01,8.80428e-01,9.96872e-01,5.80061e-01,9.99978e-01
7.921555184e-01,5.43683e-01,9.99999e-01,9.28847e-01,9.98292e-01,5.86335e-01,9.99962e-01
7.961162960e-01,5.62513e-01,9.99999e-01,9.52226e-01,9.96949e-01,5.92551e-01,9.99964e-01
8.000968774e-01,5.80944e-01,9.99999e-01,9.73768e-01,9.96497e-01,5.98707e-01,9.99961e-01
8.040973618e-01,5.94464e-01,9.99999e-01,9.86384e-01,9.96491e-01,6.04805e-01,9.99970e-01
8.081178486e-01,6.02160e-01,9.99999e-01,9.93703e-01,9.92053e-01,6.10842e-01,9.99970e-01
8.121584379e-01,5.95431e-01,9.99999e-01,9.98071e-01,9.67283e-01,6.16818e-01,9.99889e-01
8.162192301e-01,5.98340e-01,9.99999e-01,9.99573e-01,9.61630e-01,6.22733e-01,9.99584e-01
8.203003262e-01,6.15902e-01,9.99999e-01,9.99993e-01,9.80301e-01,6.28587e-01,9.99513e-01
8.244018279e-01,6.17149e-01,9.99999e-01,9.99999e-01,9.73216e-01,6.34378e-01,9.99612e-01
8.285238370e-01,6.25072e-01,9.99999e-01,9.99999e-01,9.76808e-01,6.40106e-01,9.99695e-01
8.326664562e-01,6.30612e-01,9.99999e-01,9.99999e-01,9.76646e-01,6.45772e-01,9.99873e-01
8.368297885e-01,6.40488e-01,9.99999e-01,9.99999e-01,9.83314e-01,6.51374e-01,9.99970e-01
8.410139374e-01,6.50375e-01,9.99999e-01,9.99999e-01,9.90063e-01,6.56913e-01,9.99982e-01
8.452190071e-01,6.59152e-01,9.99999e-01,9.99999e-01,9.95124e-01,6.62388e-01,9.99989e-01
8.494451021e-01,6.65897e-01,9.99999e-01,9.99999e-01,9.97159e-01,6.67799e-01,9.99991e-01
8.536923276e-01,6.72016e-01,9.99999e-01,9.99999e-01,9.98324e-01,6.73147e-01,9.99994e-01
8.579607893e-01,6.77727e-01,9.99999e-01,9.99999e-01,9.98965e-01,6.78430e-01,9.99998e-01
8.622505932e-01,6.83200e-01,9.99999e-01,9.99999e-01,9.99343e-01,6.83649e-01,9.99999e-01
8.665618462e-01,6.43046e-01,9.99999e-01,9.33935e-01,9.99592e-01,6.88804e-01,9.99999e-01
8.708946554e-01,5.12312e-01,9.99999e-01,7.38649e-01,9.99532e-01,6.93895e-01,9.99999e-01
8.752491287e-01,5.48467e-01,9.99999e-01,7.85212e-01,9.99375e-01,6.98921e-01,9.99998e-01
8.796253743e-01,6.16265e-01,9.99999e-01,8.76264e-01,9.99132e-01,7.03884e-01,9.99997e-01
8.840235012e-01,6.61309e-01,9.99999e-01,9.33939e-01,9.99009e-01,7.08783e-01,9.99993e-01
8.884436187e-01,6.92206e-01,9.99999e-01,9.73562e-01,9.96323e-01,7.13619e-01,9.99982e-01
8.928858368e-01,6.83812e-01,9.99999e-01,9.89189e-01,9.62292e-01,7.18391e-01,9.99900e-01
8.973502660e-01,6.73856e-01,9.99999e-01,9.97379e-01,9.34780e-01,7.23099e-01,9.99494e-01
9.018370173e-01,7.02554e-01,9.99999e-01,9.99711e-01,9.66423e-01,7.27745e-01,9.99205e-01
9.063462024e-01,7.04510e-01,9.99999e-01,9.92342e-01,9.69933e-01,7.32327e-01,9.99302e-01
9.108779334e-01,6.90379e-01,9.99999e-01,9.82942e-01,9.53728e-01,7.36848e-01,9.99274e-01
9.154323231e-01,6.99388e-01,9.99999e-01,9.96015e-01,9.47733e-01,7.41306e-01,9.99400e-01
9.200094847e-01,6.73937e-01,9.99999e-01,9.41153e-01,9.58911e-01,7.45702e-01,9.99664e-01
9.246095321e-01,6.44976e-01,9.99999e-01,9.19091e-01,9.34819e-01,7.50036e-01,9.99613e-01
9.292325798e-01,4.53342e-01,9.99999e-01,9.35216e-01,6.40031e-01,7.54310e-01,9.98135e-01
9.338787427e-01,4.01468e-01,9.99999e-01,9.38024e-01,5.64906e-01,7.58522e-01,9.93277e-01
9.385481364e-01,5.75356e-01,9.99999e-01,9.54096e-01,7.94833e-01,7.62675e-01,9.92616e-01
9.432408771e-01,5.36186e-01,9.99999e-01,9.71735e-01,7.23299e-01,7.66767e-01,9.93627e-01
9.479570815e-01,4.83023e-01,9.99999e-01,9.85372e-01,6.38836e-01,7.70800e-01,9.94810e-01
9.526968669e-01,5.50550e-01,9.99999e-01,9.92935e-01,7.17556e-01,7.74773e-01,9.96831e-01
9.574603512e-01,5.71877e-01,9.99999e-01,9.96976e-01,7.37706e-01,7.78689e-01,9.98388e-01
9.622476530e-01,6.10371e-01,9.99999e-01,9.99057e-01,7.81552e-01,7.82546e-01,9.98885e-01
9.670588912e-01,6.81425e-01,9.99999e-01,9.99717e-01,8.67468e-01,7.86345e-01,9.99237e-01
9.718941857e-01,7.22515e-01,9.99999e-01,9.99980e-01,9.15004e-01,7.90087e-01,9.99438e-01
9.767536566e-01,7.37027e-01,9.99999e-01,9.99999e-01,9.28909e-01,7.93773e-01,9.99570e-01
9.816374249e-01,7.55011e-01,9.99999e-01,9.99999e-01,9.46978e-01,7.97402e-01,9.99851e-01
9.865456120e-01,7.74169e-01,9.99999e-01,9.99999e-01,9.66561e-01,8.00976e-01,9.99968e-01
9.914783401e-01,7.87751e-01,9.99999e-01,9.99999e-01,9.79195e-01,8.04495e-01,9.99990e-01
9.964357318e-01,7.98762e-01,9.99999e-01,9.99999e-01,9.88621e-01,8.07959e-01,9.99994e-01
1.001417910e+00,8.05822e-01,9.99999e-01,9.99999e-01,9.93169e-01,8.11369e-01,9.99991e-01
1.006425000e+00,8.11535e-01,9.99999e-01,9.99999e-01,9.96093e-01,8.14726e-01,9.99988e-01
1.011457125e+00,8.16043e-01,9.99999e-01,9.99999e-01,9.97579e-01,8.18031e-01,9.99989e-01
1.016514411e+00,8.19925e-01,9.99999e-01,9.99999e-01,9.98354e-01,8.21282e-01,9.99992e-01
1.021596983e+00,8.23357e-01,9.99999e-01,9.99953e-01,9.98687e-01,8.24483e-01,9.99992e-01
1.026704968e+00,8.24302e-01,9.99999e-01,9.97000e-01,9.98975e-01,8.27632e-01,9.99995e-01
1.031838492e+00,7.96668e-01,9.99999e-01,9.59690e-01,9.99256e-01,8.30730e-01,9.99998e-01
1.036997685e+00,1.57896e-01,9.99999e-01,1.89442e-01,9.99557e-01,8.33779e-01,9.99999e-01
1.042182673e+00,1.56023e-01,9.99999e-01,1.86546e-01,9.99470e-01,8.36778e-01,9.99999e-01
1.047393587e+00,1.63525e-01,9.99999e-01,1.94857e-01,9.99299e-01,8.39729e-01,9.99999e-01
1.052630555e+00,9.15259e-03,9.99999e-01,1.08698e-02,9.99037e-01,8.42631e-01,9.99999e-01
1.057893707e+00,2.11158e-02,9.99999e-01,2.50035e-02,9.98391e-01,8.45486e-01,9.99998e-01
1.063183176e+00,5.65456e-02,9.99999e-01,6.67906e-02,9.97355e-01,8.48293e-01,9.99998e-01
1.068499092e+00,1.32191e-01,9.99999e-01,1.55924e-01,9.95581e-01,8.51055e-01,9.99996e-01
1.073841587e+00,2.63986e-01,9.99999e-01,3.10613e-01,9.94819e-01,8.53770e-01,9.99993e-01
1.079210795e+00,4.06145e-01,9.99999e-01,4.77166e-01,9.93387e-01,8.56440e-01,9.99981e-01
1.084606849e+00,5.67333e-01,9.99999e-01,6.66872e-01,9.89986e-01,8.59066e-01,9.99957e-01
1.090029883e+00,6.88271e-01,9.99999e-01,8.10312e-01,9.85550e-01,8.61648e-01,9.99911e-01
1.095480033e+00,7.49159e-01,9.99999e-01,9.01742e-01,9.61188e-01,8.64186e-01,9.99840e-01
1.100957433e+00,7.45682e-01,9.99999e-01,9.51398e-01,9.04236e-01,8.66681e-01,9.99706e-01
1.106462220e+00,6.58577e-01,9.99999e-01,9.79646e-01,7.73405e-01,8.69134e-01,9.99502e-01
1.111994531e+00,5.04705e-01,9.99999e-01,9.92408e-01,5.84034e-01,8.71545e-01,9.98680e-01
1.117554504e+00,3.63932e-01,9.99999e-01,9.98151e-01,4.19083e-01,8.73915e-01,9.95247e-01
1.123142276e+00,4.57616e-01,9.99999e-01,9.99879e-01,5.28214e-01,8.76245e-01,9.88766e-01
1.128757988e+00,5.75438e-01,9.99999e-01,9.99999e-01,6.63613e-01,8.78534e-01,9.87016e-01
1.134401778e+00,3.54244e-01,9.99999e-01,9.99999e-01,4.06685e-01,8.80784e-01,9.88949e-01
1.140073787e+00,6.85374e-01,9.99999e-01,9.99999e-01,7.83113e-01,8.82995e-01,9.91160e-01
1.145774156e+00,5.27883e-01,9.99999e-01,9.99999e-01,6.01230e-01,8.85168e-01,9.91905e-01
1.151503026e+00,5.00536e-01,9.99999e-01,9.99999e-01,5.66668e-01,8.87304e-01,9.95482e-01
1.157260541e+00,5.53885e-01,9.99999e-01,9.99999e-01,6.23604e-01,8.89402e-01,9.98646e-01
1.163046844e+00,6.29156e-01,9.99999e-01,9.99999e-01,7.06027e-01,8.91463e-01,9.99615e-01
1.168862078e+00,7.01669e-01,9.99999e-01,9.99999e-01,7.85469e-01,8.93489e-01,9.99801e-01
1.174706389e+00,7.71283e-01,9.99999e-01,9.99999e-01,8.61533e-01,8.95478e-01,9.99737e-01
1.180579921e+00,8.19303e-01,9.99999e-01,9.99999e-01,9.13301e-01,8.97433e-01,9.99603e-01
1.186482820e+00,8.54067e-01,9.99999e-01,9.99992e-01,9.50036e-01,8.99353e-01,9.99592e-01
1.192415234e+00,8.65079e-01,9.99999e-01,9.89242e-01,9.70517e-01,9.01240e-01,9.99695e-01
1.198377311e+00,5.01329e-01,9.99999e-01,5.67138e-01,9.75049e-01,9.03093e-01,9.99710e-01
1.204369197e+00,2.95550e-09,9.99999e-01,3.31224e-09,9.76388e-01,9.04913e-01,9.99747e-01
1.210391043e+00,2.49877e-32,9.99999e-01,2.79149e-32,9.77418e-01,9.06701e-01,9.99841e-01
1.216442998e+00,3.34248e-28,9.99999e-01,3.72412e-28,9.80798e-01,9.08456e-01,9.99902e-01
1.222525213e+00,8.42384e-28,9.99999e-01,9.32806e-28,9.85011e-01,9.10181e-01,9.99939e-01
1.228637839e+00,1.63744e-21,9.99999e-01,1.80895e-21,9.89563e-01,9.11874e-01,9.99971e-01
