#,Wave/freq,Total,N2,CO2,H2O,Rayleigh,CIA
4.000000000e-01,2.37134e-26,9.99999e-01,9.99999e-01,9.99886e-01,2.37161e-26,9.99999e-01
4.020000000e-01,7.61533e-26,9.99999e-01,9.99999e-01,9.99929e-01,7.61586e-26,9.99999e-01
4.040100000e-01,2.38701e-25,9.99999e-01,9.99999e-01,9.99969e-01,2.38708e-25,9.99999e-01
4.060300500e-01,7.31497e-25,9.99999e-01,9.99999e-01,9.99992e-01,7.31502e-25,9.99999e-01
4.080602003e-01,2.19258e-24,9.99999e-01,9.99999e-01,9.99997e-01,2.19259e-24,9.99999e-01
4.101005013e-01,6.43105e-24,9.99999e-01,9.99999e-01,9.99999e-01,6.43105e-24,9.99999e-01
4.121510038e-01,1.84660e-23,9.99999e-01,9.99999e-01,9.99995e-01,1.84661e-23,9.99999e-01
4.142117588e-01,5.19287e-23,9.99999e-01,9.99999e-01,9.99968e-01,5.19303e-23,9.99999e-01
4.162828176e-01,1.43066e-22,9.99999e-01,9.99999e-01,9.99859e-01,1.43086e-22,9.99999e-01
4.183642317e-01,3.86404e-22,9.99999e-01,9.99999e-01,9.99916e-01,3.86436e-22,9.99999e-01
4.204560528e-01,1.02333e-21,9.99999e-01,9.99999e-01,9.99948e-01,1.02338e-21,9.99999e-01
4.225583331e-01,2.65847e-21,9.99999e-01,9.99999e-01,9.99980e-01,2.65852e-21,9.99999e-01
4.246711247e-01,6.77716e-21,9.99999e-01,9.99999e-01,9.99984e-01,6.77726e-21,9.99999e-01
4.267944804e-01,1.69602e-20,9.99999e-01,9.99999e-01,9.99977e-01,1.69606e-20,9.99999e-01
4.289284528e-01,4.16822e-20,9.99999e-01,9.99999e-01,9.99982e-01,4.16830e-20,9.99999e-01
4.310730950e-01,1.00637e-19,9.99999e-01,9.99999e-01,9.99992e-01,1.00638e-19,9.99999e-01
4.332284605e-01,2.38783e-19,9.99999e-01,9.99999e-01,9.99997e-01,2.38784e-19,9.99999e-01
4.353946028e-01,5.56974e-19,9.99999e-01,9.99999e-01,9.99998e-01,5.56975e-19,9.99999e-01
4.375715758e-01,1.27760e-18,9.99999e-01,9.99999e-01,9.99985e-01,1.27762e-18,9.99999e-01
4.397594337e-01,2.88264e-18,9.99999e-01,9.99999e-01,9.99876e-01,2.88299e-18,9.99999e-01
4.419582309e-01,6.39782e-18,9.99999e-01,9.99999e-01,9.99371e-01,6.40184e-18,9.99999e-01
4.441680220e-01,1.39866e-17,9.99999e-01,9.99999e-01,9.99510e-01,1.39934e-17,9.99999e-01
4.463888621e-01,3.01031e-17,9.99999e-01,9.99999e-01,9.99490e-01,3.01185e-17,9.99999e-01
4.486208064e-01,6.38307e-17,9.99999e-01,9.99999e-01,9.99683e-01,6.38509e-17,9.99999e-01
4.508639105e-01,1.33349e-16,9.99999e-01,9.99999e-01,9.99851e-01,1.33369e-16,9.99999e-01
4.531182300e-01,2.74536e-16,9.99999e-01,9.99999e-01,9.99941e-01,2.74552e-16,9.99999e-01
4.553838212e-01,5.57164e-16,9.99999e-01,9.99999e-01,9.99959e-01,5.57186e-16,9.99999e-01
4.576607403e-01,1.11506e-15,9.99999e-01,9.99999e-01,9.99981e-01,1.11508e-15,9.99999e-01
4.599490440e-01,2.20116e-15,9.99999e-01,9.99999e-01,9.99986e-01,2.20119e-15,9.99999e-01
4.622487892e-01,4.28721e-15,9.99999e-01,9.99999e-01,9.99997e-01,4.28722e-15,9.99999e-01
4.645600332e-01,8.24085e-15,9.99999e-01,9.99999e-01,9.99990e-01,8.24093e-15,9.99999e-01
4.668828333e-01,1.56353e-14,9.99999e-01,9.99999e-01,9.99849e-01,1.56376e-14,9.99999e-01
4.692172475e-01,2.92908e-14,9.99999e-01,9.99999e-01,9.99680e-01,2.93001e-14,9.99999e-01
4.715633337e-01,5.42116e-14,9.99999e-01,9.99999e-01,9.99790e-01,5.42229e-14,9.99999e-01
4.739211504e-01,9.91126e-14,9.99999e-01,9.99999e-01,9.99799e-01,9.91324e-14,9.99999e-01
4.762907561e-01,1.79072e-13,9.99999e-01,9.99999e-01,9.99896e-01,1.79090e-13,9.99999e-01
4.786722099e-01,3.19770e-13,9.99999e-01,9.99999e-01,9.99957e-01,3.19783e-13,9.99999e-01
4.810655710e-01,5.64495e-13,9.99999e-01,9.99999e-01,9.99986e-01,5.64502e-13,9.99999e-01
4.834708988e-01,9.85253e-13,9.99999e-01,9.99999e-01,9.99877e-01,9.85373e-13,9.99999e-01
4.858882533e-01,1.70082e-12,9.99999e-01,9.99999e-01,9.99773e-01,1.70121e-12,9.99999e-01
4.883176946e-01,2.90500e-12,9.99999e-01,9.99999e-01,9.99810e-01,2.90555e-12,9.99999e-01
4.907592831e-01,4.90947e-12,9.99999e-01,9.99999e-01,9.99828e-01,4.91030e-12,9.99999e-01
4.932130795e-01,8.21172e-12,9.99999e-01,9.99999e-01,9.99878e-01,8.21272e-12,9.99999e-01
4.956791449e-01,1.35965e-11,9.99999e-01,9.99999e-01,9.99935e-01,1.35973e-11,9.99999e-01
4.981575406e-01,2.22820e-11,9.99999e-01,9.99999e-01,9.99678e-01,2.22892e-11,9.99999e-01
5.006483283e-01,3.61520e-11,9.99999e-01,9.99999e-01,9.99166e-01,3.61823e-11,9.99993e-01
5.031515699e-01,5.79282e-11,9.99999e-01,9.99999e-01,9.95788e-01,5.81757e-11,9.99955e-01
5.056673278e-01,9.24537e-11,9.99999e-01,9.99999e-01,9.97775e-01,9.26645e-11,9.99948e-01
5.081956644e-01,1.45834e-10,9.99999e-01,9.99999e-01,9.97193e-01,1.46249e-10,9.99966e-01
5.107366428e-01,2.28312e-10,9.99999e-01,9.99999e-01,9.98104e-01,2.28747e-10,9.99993e-01
5.132903260e-01,3.54251e-10,9.99999e-01,9.99999e-01,9.98916e-01,3.54635e-10,9.99998e-01
5.158567776e-01,5.44815e-10,9.99999e-01,9.99999e-01,9.99542e-01,5.45064e-10,9.99999e-01
5.184360615e-01,8.30512e-10,9.99999e-01,9.99999e-01,9.99816e-01,8.30664e-10,9.99999e-01
5.210282418e-01,1.25533e-09,9.99999e-01,9.99999e-01,9.99931e-01,1.25542e-09,9.99999e-01
5.236333830e-01,1.88144e-09,9.99999e-01,9.99999e-01,9.99724e-01,1.88196e-09,9.99997e-01
5.262515499e-01,2.79822e-09,9.99999e-01,9.99999e-01,9.99827e-01,2.79871e-09,9.99996e-01
5.288828077e-01,4.12889e-09,9.99999e-01,9.99999e-01,9.99841e-01,4.12954e-09,9.99997e-01
5.315272217e-01,6.04573e-09,9.99999e-01,9.99999e-01,9.99861e-01,6.04657e-09,9.99999e-01
5.341848578e-01,8.78628e-09,9.99999e-01,9.99999e-01,9.99908e-01,8.78708e-09,9.99999e-01
5.368557821e-01,1.26717e-08,9.99999e-01,9.99999e-01,9.99679e-01,1.26757e-08,9.99998e-01
5.395400610e-01,1.81323e-08,9.99999e-01,9.99999e-01,9.98843e-01,1.81535e-08,9.99990e-01
5.422377613e-01,2.57753e-08,9.99999e-01,9.99999e-01,9.98507e-01,2.58145e-08,9.99972e-01
5.449489501e-01,3.64026e-08,9.99999e-01,9.99999e-01,9.98610e-01,3.64543e-08,9.99971e-01
5.476736949e-01,5.10661e-08,9.99999e-01,9.99999e-01,9.98770e-01,5.11296e-08,9.99985e-01
5.504120634e-01,7.11713e-08,9.99999e-01,9.99999e-01,9.99107e-01,7.12351e-08,9.99995e-01
5.531641237e-01,9.85544e-08,9.99999e-01,9.99999e-01,9.99550e-01,9.85987e-08,9.99998e-01
5.559299443e-01,1.35571e-07,9.99999e-01,9.99999e-01,9.99782e-01,1.35600e-07,9.99999e-01
5.587095940e-01,1.85291e-07,9.99999e-01,9.99999e-01,9.99863e-01,1.85317e-07,9.99999e-01
5.615031420e-01,2.51666e-07,9.99999e-01,9.99999e-01,9.99848e-01,2.51704e-07,9.99999e-01
5.643106577e-01,3.39753e-07,9.99999e-01,9.99999e-01,9.99827e-01,3.39812e-07,9.99998e-01
5.671322110e-01,4.55090e-07,9.99999e-01,9.99999e-01,9.97911e-01,4.56050e-07,9.99981e-01
5.699678720e-01,6.07121e-07,9.99999e-01,9.99999e-01,9.97784e-01,6.08503e-07,9.99942e-01
5.728177114e-01,8.05405e-07,9.99999e-01,9.99999e-01,9.97690e-01,8.07308e-07,9.99952e-01
5.756818000e-01,1.06281e-06,9.99999e-01,9.99999e-01,9.97880e-01,1.06510e-06,9.99970e-01
5.785602090e-01,1.39495e-06,9.99999e-01,9.99999e-01,9.98152e-01,1.39754e-06,9.99990e-01
5.814530100e-01,1.82054e-06,9.99999e-01,9.99999e-01,9.98144e-01,1.82393e-06,9.99995e-01
5.843602750e-01,2.36265e-06,9.99999e-01,9.99999e-01,9.97787e-01,2.36792e-06,9.99987e-01
5.872820764e-01,3.00024e-06,9.99999e-01,9.99999e-01,9.81129e-01,3.05835e-06,9.99865e-01
5.902184868e-01,3.83894e-06,9.99999e-01,9.99999e-01,9.77140e-01,3.93018e-06,9.99634e-01
5.931695792e-01,4.94254e-06,9.99999e-01,9.99999e-01,9.83821e-01,5.02558e-06,9.99648e-01
5.961354271e-01,6.28044e-06,9.99999e-01,9.99999e-01,9.82261e-01,6.39515e-06,9.99797e-01
5.991161043e-01,7.99374e-06,9.99999e-01,9.99999e-01,9.87026e-01,8.09931e-06,9.99937e-01
6.021116848e-01,1.01344e-05,9.99999e-01,9.99999e-01,9.92619e-01,1.02098e-05,9.99992e-01
6.051222432e-01,1.27637e-05,9.99999e-01,9.99999e-01,9.96258e-01,1.28116e-05,9.99999e-01
6.081478544e-01,1.59786e-05,9.99999e-01,9.99999e-01,9.98384e-01,1.60044e-05,9.99999e-01
6.111885937e-01,1.98917e-05,9.99999e-01,9.99999e-01,9.99316e-01,1.99053e-05,9.99999e-01
6.142445367e-01,2.46429e-05,9.99999e-01,9.99999e-01,9.99694e-01,2.46505e-05,9.99999e-01
6.173157594e-01,3.03931e-05,9.99999e-01,9.99999e-01,9.99831e-01,3.03982e-05,9.99999e-01
6.204023382e-01,3.73260e-05,9.99999e-01,9.99999e-01,9.99857e-01,3.73313e-05,9.99999e-01
6.235043498e-01,4.56312e-05,9.99999e-01,9.99999e-01,9.99371e-01,4.56600e-05,9.99997e-01
6.266218716e-01,5.54391e-05,9.99999e-01,9.99999e-01,9.96679e-01,5.56251e-05,9.99976e-01
6.297549810e-01,6.74159e-05,9.99999e-01,9.99999e-01,9.98781e-01,6.75013e-05,9.99952e-01
6.329037559e-01,8.14011e-05,9.99999e-01,9.99999e-01,9.97592e-01,8.16006e-05,9.99962e-01
6.360682746e-01,9.80723e-05,9.99999e-01,9.99999e-01,9.97948e-01,9.82760e-05,9.99977e-01
6.392486160e-01,1.17611e-04,9.99999e-01,9.99999e-01,9.97342e-01,1.17925e-04,9.99989e-01
6.424448591e-01,1.40491e-04,9.99999e-01,9.99999e-01,9.96443e-01,1.40994e-04,9.99983e-01
6.456570834e-01,1.65213e-04,9.99999e-01,9.99999e-01,9.83600e-01,1.67983e-04,9.99908e-01
6.488853688e-01,1.97000e-04,9.99999e-01,9.99999e-01,9.87987e-01,1.99446e-04,9.99743e-01
6.521297956e-01,2.33064e-04,9.99999e-01,9.99999e-01,9.87764e-01,2.36000e-04,9.99788e-01
6.553904446e-01,2.74887e-04,9.99999e-01,9.99999e-01,9.87791e-01,2.78328e-04,9.99842e-01
6.586673968e-01,3.23742e-04,9.99999e-01,9.99999e-01,9.89546e-01,3.27179e-04,9.99946e-01
6.619607338e-01,3.81134e-04,9.99999e-01,9.99999e-01,9.94158e-01,3.83378e-04,9.99988e-01
6.652705375e-01,4.46251e-04,9.99999e-01,9.99999e-01,9.96489e-01,4.47826e-04,9.99993e-01
6.685968902e-01,5.20653e-04,9.99999e-01,9.99999e-01,9.98367e-01,5.21504e-04,9.99998e-01
6.719398746e-01,6.05023e-04,9.99999e-01,9.99999e-01,9.99243e-01,6.05481e-04,9.99999e-01
6.752995740e-01,7.00622e-04,9.99999e-01,9.99999e-01,9.99589e-01,7.00909e-04,9.99999e-01
6.786760719e-01,8.08556e-04,9.99999e-01,9.99999e-01,9.99407e-01,8.09036e-04,9.99998e-01
6.820694522e-01,9.30251e-04,9.99999e-01,9.99999e-01,9.98985e-01,9.31200e-04,9.99994e-01
6.854797995e-01,1.06743e-03,9.99999e-01,9.99999e-01,9.98692e-01,1.06884e-03,9.99988e-01
6.889071985e-01,1.21958e-03,9.99999e-01,9.99999e-01,9.96834e-01,1.22348e-03,9.99971e-01
6.923517345e-01,1.32619e-03,9.99999e-01,9.99999e-01,9.49705e-01,1.39677e-03,9.99752e-01
6.958134932e-01,1.54762e-03,9.99999e-01,9.99999e-01,9.73611e-01,1.59044e-03,9.99451e-01
6.992925606e-01,1.75989e-03,9.99999e-01,9.99999e-01,9.74782e-01,1.80631e-03,9.99505e-01
7.027890234e-01,1.98210e-03,9.99999e-01,9.99999e-01,9.68969e-01,2.04634e-03,9.99622e-01
7.063029686e-01,2.25159e-03,9.99999e-01,9.99999e-01,9.73815e-01,2.31256e-03,9.99811e-01
7.098344834e-01,2.54127e-03,9.99999e-01,9.99999e-01,9.74853e-01,2.60711e-03,9.99888e-01
7.133836558e-01,2.83397e-03,9.99999e-01,9.99999e-01,9.66707e-01,2.93222e-03,9.99778e-01
7.169505741e-01,2.51814e-03,9.99999e-01,9.99999e-01,7.66671e-01,3.29022e-03,9.98264e-01
7.205353270e-01,3.22154e-03,9.99999e-01,9.99999e-01,8.77260e-01,3.68355e-03,9.96939e-01
7.241380036e-01,3.47210e-03,9.99999e-01,9.99999e-01,8.46064e-01,4.11470e-03,9.97356e-01
7.277586936e-01,3.93604e-03,9.99999e-01,9.99999e-01,8.60077e-01,4.58629e-03,9.97838e-01
7.313974871e-01,4.33699e-03,9.99999e-01,9.99999e-01,8.51088e-01,5.10097e-03,9.98986e-01
7.350544745e-01,5.18060e-03,9.99999e-01,9.99999e-01,9.15376e-01,5.66151e-03,9.99647e-01
7.387297469e-01,5.87354e-03,9.99999e-01,9.99999e-01,9.36810e-01,6.27072e-03,9.99838e-01
7.424233956e-01,6.71312e-03,9.99999e-01,9.99999e-01,9.68526e-01,6.93148e-03,9.99968e-01
7.461355126e-01,7.49984e-03,9.99999e-01,9.99999e-01,9.80797e-01,7.64672e-03,9.99994e-01
7.498661902e-01,8.34375e-03,9.99999e-01,9.99999e-01,9.91014e-01,8.41941e-03,9.99997e-01
7.536155211e-01,9.21169e-03,9.99999e-01,9.99999e-01,9.95581e-01,9.25258e-03,9.99998e-01
7.573835987e-01,1.01261e-02,9.99999e-01,9.99999e-01,9.97723e-01,1.01493e-02,9.99999e-01
7.611705167e-01,1.10968e-02,9.99999e-01,9.99999e-01,9.98584e-01,1.11125e-02,9.99999e-01
7.649763693e-01,1.21346e-02,9.99999e-01,9.99999e-01,9.99112e-01,1.21454e-02,9.99999e-01
7.688012511e-01,1.32428e-02,9.99999e-01,9.99999e-01,9.99381e-01,1.32510e-02,9.99999e-01
7.726452574e-01,1.44251e-02,9.99999e-01,9.99999e-01,9.99491e-01,1.44324e-02,9.99999e-01
7.765084837e-01,1.56813e-02,9.99999e-01,9.99999e-01,9.99276e-01,1.56927e-02,9.99998e-01
7.803910261e-01,1.47615e-02,9.99999e-01,8.68947e-01,9.96878e-01,1.70348e-02,9.99996e-01
7.842929812e-01,8.55044e-03,9.99999e-01,4.67324e-01,9.89147e-01,1.84617e-02,9.99979e-01
7.882144461e-01,8.87120e-03,9.99999e-01,4.52731e-01,9.77776e-01,1.99764e-02,9.99845e-01
7.921555184e-01,1.28194e-02,9.99999e-01,6.00728e-01,9.87765e-01,2.15817e-02,9.99732e-01
7.961162960e-01,1.60807e-02,9.99999e-01,7.05407e-01,9.78464e-01,2.32805e-02,9.99745e-01
8.000968774e-01,2.02271e-02,9.99999e-01,8.27129e-01,9.75135e-01,2.50754e-02,9.99728e-01
8.040973618e-01,2.38288e-02,9.99999e-01,9.06037e-01,9.75138e-01,2.69691e-02,9.99784e-01
8.081178486e-01,2.61625e-02,9.99999e-01,9.55593e-01,9.45028e-01,2.89642e-02,9.99797e-01
8.121584379e-01,2.42695e-02,9.99999e-01,9.86084e-01,7.92372e-01,3.10630e-02,9.99207e-01
8.162192301e-01,2.51269e-02,9.99999e-01,9.96909e-01,7.59668e-01,3.32679e-02,9.97022e-01
8.203003262e-01,3.10409e-02,9.99999e-01,9.99954e-01,8.75473e-01,3.55811e-02,9.96514e-01
8.244018279e-01,3.15808e-02,9.99999e-01,9.99999e-01,8.33285e-01,3.80046e-02,9.97224e-01
8.285238370e-01,3.42757e-02,9.99999e-01,9.99999e-01,8.47317e-01,4.05404e-02,9.97819e-01
8.326664562e-01,3.65179e-02,9.99999e-01,9.99999e-01,8.46276e-01,4.31902e-02,9.99097e-01
8.368297885e-01,4.07369e-02,9.99999e-01,9.99999e-01,8.86620e-01,4.59558e-02,9.99793e-01
8.410139374e-01,4.54552e-02,9.99999e-01,9.99999e-01,9.30835e-01,4.88385e-02,9.99879e-01
8.452190071e-01,5.00429e-02,9.99999e-01,9.99999e-01,9.65407e-01,5.18397e-02,9.99927e-01
8.494451021e-01,5.38450e-02,9.99999e-01,9.99999e-01,9.79759e-01,5.49605e-02,9.99941e-01
8.536923276e-01,5.75009e-02,9.99999e-01,9.99999e-01,9.87987e-01,5.82020e-02,9.99964e-01
8.579607893e-01,6.11079e-02,9.99999e-01,9.99999e-01,9.92583e-01,6.15650e-02,9.99991e-01
8.622505932e-01,6.47431e-02,9.99999e-01,9.99999e-01,9.95283e-01,6.50500e-02,9.99998e-01
8.665618462e-01,5.71449e-02,9.99999e-01,8.34564e-01,9.97079e-01,6.86576e-02,9.99998e-01
8.708946554e-01,1.16913e-02,9.99999e-01,1.61980e-01,9.96655e-01,7.23880e-02,9.99997e-01
8.752491287e-01,1.57368e-02,9.99999e-01,2.07242e-01,9.95528e-01,7.62415e-02,9.99994e-01
8.796253743e-01,3.26251e-02,9.99999e-01,4.08929e-01,9.93811e-01,8.02178e-02,9.99985e-01
8.840235012e-01,5.18149e-02,9.99999e-01,6.18590e-01,9.92935e-01,8.43168e-02,9.99956e-01
8.884436187e-01,7.12979e-02,9.99999e-01,8.25266e-01,9.74621e-01,8.85380e-02,9.99876e-01
8.928858368e-01,6.60655e-02,9.99999e-01,9.24707e-01,7.66921e-01,9.28810e-02,9.99292e-01
8.973502660e-01,5.98872e-02,9.99999e-01,9.81164e-01,6.28072e-01,9.73448e-02,9.96378e-01
9.018370173e-01,7.98069e-02,9.99999e-01,9.97906e-01,7.88849e-01,1.01929e-01,9.94312e-01
9.063462024e-01,8.22844e-02,9.99999e-01,9.49456e-01,8.10135e-01,1.06631e-01,9.95002e-01
9.108779334e-01,7.11651e-02,9.99999e-01,8.84260e-01,7.20661e-01,1.11452e-01,9.94807e-01
9.154323231e-01,7.76454e-02,9.99999e-01,9.71523e-01,6.87552e-01,1.16388e-01,9.95705e-01
9.200094847e-01,6.92967e-02,9.99999e-01,7.25560e-01,7.47131e-01,1.21439e-01,9.97594e-01
9.246095321e-01,4.68294e-02,9.99999e-01,5.51781e-01,6.49105e-01,1.26603e-01,9.97228e-01
9.292325798e-01,7.62097e-03,9.99999e-01,6.37174e-01,8.11354e-02,1.31879e-01,9.89235e-01
9.338787427e-01,3.25816e-03,9.99999e-01,6.40652e-01,3.46302e-02,1.37263e-01,9.56246e-01
9.385481364e-01,2.61246e-02,9.99999e-01,7.17227e-01,2.53157e-01,1.42754e-01,9.48180e-01
9.432408771e-01,1.95750e-02,9.99999e-01,8.13983e-01,1.63642e-01,1.48350e-01,9.55131e-01
9.479570815e-01,1.04070e-02,9.99999e-01,8.99547e-01,7.65057e-02,1.54048e-01,9.63328e-01
9.526968669e-01,2.01687e-02,9.99999e-01,9.50340e-01,1.34130e-01,1.59846e-01,9.77469e-01
9.574603512e-01,2.34898e-02,9.99999e-01,9.78409e-01,1.45735e-01,1.65741e-01,9.88491e-01
9.622476530e-01,3.39190e-02,9.99999e-01,9.93212e-01,2.00121e-01,1.71731e-01,9.92027e-01
9.670588912e-01,6.87116e-02,9.99999e-01,9.97962e-01,3.89157e-01,1.77813e-01,9.94540e-01
9.718941857e-01,9.85648e-02,9.99999e-01,9.99856e-01,5.37942e-01,1.83983e-01,9.95978e-01
9.767536566e-01,1.13184e-01,9.99999e-01,9.99999e-01,5.96791e-01,1.90239e-01,9.96925e-01
9.816374249e-01,1.33444e-01,9.99999e-01,9.99999e-01,6.79557e-01,1.96579e-01,9.98934e-01
9.865456120e-01,1.59194e-01,9.99999e-01,9.99999e-01,7.84390e-01,2.02997e-01,9.99777e-01
9.914783401e-01,1.80157e-01,9.99999e-01,9.99999e-01,8.60019e-01,2.09493e-01,9.99938e-01
9.964357318e-01,1.99012e-01,9.99999e-01,9.99999e-01,9.21119e-01,2.16062e-01,9.99963e-01
1.001417910e+00,2.11976e-01,9.99999e-01,9.99999e-01,9.51894e-01,2.22701e-01,9.99944e-01
1.006425000e+00,2.23027e-01,9.99999e-01,9.99999e-01,9.72264e-01,2.29407e-01,9.99921e-01
1.011457125e+00,2.32074e-01,9.99999e-01,9.99999e-01,9.82701e-01,2.36176e-01,9.99926e-01
1.016514411e+00,2.40131e-01,9.99999e-01,9.99999e-01,9.88220e-01,2.43005e-01,9.99948e-01
1.021596983e+00,2.47460e-01,9.99999e-01,9.99712e-01,9.90602e-01,2.49891e-01,9.99948e-01
1.026704968e+00,2.49699e-01,9.99999e-01,9.79401e-01,9.92663e-01,2.56831e-01,9.99965e-01
1.031838492e+00,2.26519e-01,9.99999e-01,8.62892e-01,9.94663e-01,2.63820e-01,9.99990e-01
1.036997685e+00,6.44200e-03,9.99999e-01,2.38404e-02,9.96826e-01,2.70856e-01,9.99998e-01
1.042182673e+00,5.30223e-05,9.99999e-01,1.91287e-04,9.96216e-01,2.77935e-01,9.99998e-01
1.047393587e+00,1.49789e-04,9.99999e-01,5.27584e-04,9.94985e-01,2.85054e-01,9.99998e-01
1.052630555e+00,6.80515e-11,9.99999e-01,2.33871e-10,9.93124e-01,2.92209e-01,9.99997e-01
1.057893707e+00,2.54787e-10,9.99999e-01,8.55514e-10,9.88548e-01,2.99397e-01,9.99995e-01
1.063183176e+00,9.93767e-08,9.99999e-01,3.27319e-07,9.81235e-01,3.06614e-01,9.99989e-01
1.068499092e+00,2.67085e-06,9.99999e-01,8.65034e-06,9.68794e-01,3.13858e-01,9.99978e-01
1.073841587e+00,1.40639e-04,9.99999e-01,4.48240e-04,9.63646e-01,3.21125e-01,9.99952e-01
1.079210795e+00,2.66628e-03,9.99999e-01,8.39662e-03,9.53606e-01,3.28412e-01,9.99872e-01
1.084606849e+00,1.96071e-02,9.99999e-01,6.19311e-02,9.30727e-01,3.35715e-01,9.99694e-01
1.090029883e+00,7.22192e-02,9.99999e-01,2.30365e-01,9.02340e-01,3.43031e-01,9.99367e-01
1.095480033e+00,1.29567e-01,9.99999e-01,4.82087e-01,7.56262e-01,3.50358e-01,9.98857e-01
1.100957433e+00,1.27235e-01,9.99999e-01,7.00830e-01,4.99038e-01,3.57692e-01,9.97897e-01
1.106462220e+00,6.13331e-02,9.99999e-01,8.62824e-01,1.91274e-01,3.65030e-01,9.96437e-01
1.111994531e+00,1.23227e-02,9.99999e-01,9.46631e-01,3.48025e-02,3.72369e-01,9.90570e-01
1.117554504e+00,2.14918e-03,9.99999e-01,9.86706e-01,5.89253e-03,3.79706e-01,9.66371e-01
1.123142276e+00,1.14846e-02,9.99999e-01,9.99122e-01,3.21818e-02,3.87039e-01,9.22084e-01
1.128757988e+00,2.93671e-02,9.99999e-01,9.99999e-01,8.17932e-02,3.94364e-01,9.10427e-01
1.134401778e+00,1.42246e-02,9.99999e-01,9.99999e-01,3.83543e-02,4.01680e-01,9.23307e-01
1.140073787e+00,7.79207e-02,9.99999e-01,9.99999e-01,2.03066e-01,4.08982e-01,9.38236e-01
1.145774156e+00,2.01896e-02,9.99999e-01,9.99999e-01,5.14159e-02,4.16269e-01,9.43312e-01
1.151503026e+00,1.49124e-02,9.99999e-01,9.99999e-01,3.63724e-02,4.23538e-01,9.68012e-01
1.157260541e+00,1.98904e-02,9.99999e-01,9.99999e-01,4.66233e-02,4.30786e-01,9.90326e-01
1.163046844e+00,4.41955e-02,9.99999e-01,9.99999e-01,1.01178e-01,4.38012e-01,9.97248e-01
1.168862078e+00,8.41480e-02,9.99999e-01,9.99999e-01,1.89274e-01,4.45213e-01,9.98581e-01
1.174706389e+00,1.60340e-01,9.99999e-01,9.99999e-01,3.55099e-01,4.52386e-01,9.98120e-01
1.180579921e+00,2.42253e-01,9.99999e-01,9.99999e-01,5.28676e-01,4.59530e-01,9.97158e-01
1.186482820e+00,3.22909e-01,9.99999e-01,9.99960e-01,6.94025e-01,4.66642e-01,9.97083e-01
1.192415234e+00,3.57408e-01,9.99999e-01,9.33079e-01,8.07072e-01,4.73721e-01,9.97815e-01
1.198377311e+00,1.95601e-01,9.99999e-01,4.73467e-01,8.34846e-01,4.80764e-01,9.97936e-01
1.204369197e+00,1.45639e-52,9.99999e-01,3.30277e-52,8.43847e-01,4.87769e-01,9.98132e-01
1.210391043e+00,2.81490e-218,9.99999e-01,6.23902e-218,8.49617e-01,4.94735e-01,9.98863e-01
1.216442998e+00,1.22430e-188,9.99999e-01,2.66220e-188,8.70571e-01,5.01660e-01,9.99303e-01
1.222525213e+00,9.06273e-186,9.99999e-01,1.88534e-185,8.97377e-01,5.08543e-01,9.99567e-01
1.228637839e+00,6.38670e-143,9.99999e-01,1.30378e-142,9.27505e-01,5.15381e-01,9.99798e-01
