#,Wave/freq,Total,N2,CO2,H2O,Rayleigh,CIA
4.000000000e-01,1.38019e-24,9.99999e-01,9.99999e-01,9.99893e-01,1.38034e-24,9.99999e-01
4.020000000e-01,4.09023e-24,9.99999e-01,9.99999e-01,9.99933e-01,4.09050e-24,9.99999e-01
4.040100000e-01,1.18506e-23,9.99999e-01,9.99999e-01,9.99971e-01,1.18509e-23,9.99999e-01
4.060300500e-01,3.36201e-23,9.99999e-01,9.99999e-01,9.99992e-01,3.36204e-23,9.99999e-01
4.080602003e-01,9.34344e-23,9.99999e-01,9.99999e-01,9.99997e-01,9.34346e-23,9.99999e-01
4.101005013e-01,2.54475e-22,9.99999e-01,9.99999e-01,9.99999e-01,2.54475e-22,9.99999e-01
4.121510038e-01,6.79493e-22,9.99999e-01,9.99999e-01,9.99995e-01,6.79496e-22,9.99999e-01
4.142117588e-01,1.77947e-21,9.99999e-01,9.99999e-01,9.99970e-01,1.77952e-21,9.99999e-01
4.162828176e-01,4.57198e-21,9.99999e-01,9.99999e-01,9.99868e-01,4.57258e-21,9.99999e-01
4.183642317e-01,1.15316e-20,9.99999e-01,9.99999e-01,9.99921e-01,1.15325e-20,9.99999e-01
4.204560528e-01,2.85581e-20,9.99999e-01,9.99999e-01,9.99951e-01,2.85595e-20,9.99999e-01
4.225583331e-01,6.94688e-20,9.99999e-01,9.99999e-01,9.99981e-01,6.94700e-20,9.99999e-01
4.246711247e-01,1.66040e-19,9.99999e-01,9.99999e-01,9.99985e-01,1.66043e-19,9.99999e-01
4.267944804e-01,3.90083e-19,9.99999e-01,9.99999e-01,9.99978e-01,3.90092e-19,9.99999e-01
4.289284528e-01,9.01114e-19,9.99999e-01,9.99999e-01,9.99983e-01,9.01128e-19,9.99999e-01
4.310730950e-01,2.04749e-18,9.99999e-01,9.99999e-01,9.99992e-01,2.04750e-18,9.99999e-01
4.332284605e-01,4.57742e-18,9.99999e-01,9.99999e-01,9.99997e-01,4.57743e-18,9.99999e-01
4.353946028e-01,1.00720e-17,9.99999e-01,9.99999e-01,9.99998e-01,1.00720e-17,9.99999e-01
4.375715758e-01,2.18194e-17,9.99999e-01,9.99999e-01,9.99986e-01,2.18196e-17,9.99999e-01
4.397594337e-01,4.65476e-17,9.99999e-01,9.99999e-01,9.99886e-01,4.65529e-17,9.99999e-01
4.419582309e-01,9.77904e-17,9.99999e-01,9.99999e-01,9.99426e-01,9.78465e-17,9.99999e-01
4.441680220e-01,2.02569e-16,9.99999e-01,9.99999e-01,9.99540e-01,2.02662e-16,9.99999e-01
4.463888621e-01,4.13567e-16,9.99999e-01,9.99999e-01,9.99525e-01,4.13763e-16,9.99999e-01
4.486208064e-01,8.32684e-16,9.99999e-01,9.99999e-01,9.99703e-01,8.32931e-16,9.99999e-01
4.508639105e-01,1.65350e-15,9.99999e-01,9.99999e-01,9.99860e-01,1.65373e-15,9.99999e-01
4.531182300e-01,3.23901e-15,9.99999e-01,9.99999e-01,9.99944e-01,3.23919e-15,9.99999e-01
4.553838212e-01,6.26073e-15,9.99999e-01,9.99999e-01,9.99962e-01,6.26096e-15,9.99999e-01
4.576607403e-01,1.19450e-14,9.99999e-01,9.99999e-01,9.99982e-01,1.19452e-14,9.99999e-01
4.599490440e-01,2.25008e-14,9.99999e-01,9.99999e-01,9.99987e-01,2.25010e-14,9.99999e-01
4.622487892e-01,4.18581e-14,9.99999e-01,9.99999e-01,9.99997e-01,4.18582e-14,9.99999e-01
4.645600332e-01,7.69183e-14,9.99999e-01,9.99999e-01,9.99991e-01,7.69190e-14,9.99999e-01
4.668828333e-01,1.39639e-13,9.99999e-01,9.99999e-01,9.99861e-01,1.39658e-13,9.99999e-01
4.692172475e-01,2.50527e-13,9.99999e-01,9.99999e-01,9.99701e-01,2.50601e-13,9.99999e-01
4.715633337e-01,4.44427e-13,9.99999e-01,9.99999e-01,9.99805e-01,4.44513e-13,9.99999e-01
4.739211504e-01,7.79451e-13,9.99999e-01,9.99999e-01,9.99812e-01,7.79596e-13,9.99999e-01
4.762907561e-01,1.35205e-12,9.99999e-01,9.99999e-01,9.99902e-01,1.35218e-12,9.99999e-01
4.786722099e-01,2.31985e-12,9.99999e-01,9.99999e-01,9.99959e-01,2.31994e-12,9.99999e-01
4.810655710e-01,3.93806e-12,9.99999e-01,9.99999e-01,9.99987e-01,3.93811e-12,9.99999e-01
4.834708988e-01,6.61471e-12,9.99999e-01,9.99999e-01,9.99888e-01,6.61544e-12,9.99999e-01
4.858882533e-01,1.09974e-11,9.99999e-01,9.99999e-01,9.99788e-01,1.09997e-11,9.99999e-01
4.883176946e-01,1.81036e-11,9.99999e-01,9.99999e-01,9.99824e-01,1.81067e-11,9.99999e-01
4.907592831e-01,2.95090e-11,9.99999e-01,9.99999e-01,9.99839e-01,2.95138e-11,9.99999e-01
4.932130795e-01,4.76396e-11,9.99999e-01,9.99999e-01,9.99886e-01,4.76450e-11,9.99999e-01
4.956791449e-01,7.61862e-11,9.99999e-01,9.99999e-01,9.99939e-01,7.61908e-11,9.99999e-01
4.981575406e-01,1.20679e-10,9.99999e-01,9.99999e-01,9.99702e-01,1.20715e-10,9.99999e-01
5.006483283e-01,1.89380e-10,9.99999e-01,9.99999e-01,9.99234e-01,1.89526e-10,9.99994e-01
5.031515699e-01,2.93758e-10,9.99999e-01,9.99999e-01,9.96088e-01,2.94924e-10,9.99958e-01
5.056673278e-01,4.53978e-10,9.99999e-01,9.99999e-01,9.97925e-01,4.54943e-10,9.99952e-01
5.081956644e-01,6.93958e-10,9.99999e-01,9.99999e-01,9.97381e-01,6.95801e-10,9.99969e-01
5.107366428e-01,1.05341e-09,9.99999e-01,9.99999e-01,9.98229e-01,1.05528e-09,9.99993e-01
5.132903260e-01,1.58576e-09,9.99999e-01,9.99999e-01,9.98985e-01,1.58737e-09,9.99998e-01
5.158567776e-01,2.36756e-09,9.99999e-01,9.99999e-01,9.99570e-01,2.36858e-09,9.99999e-01
5.184360615e-01,3.50581e-09,9.99999e-01,9.99999e-01,9.99828e-01,3.50641e-09,9.99999e-01
5.210282418e-01,5.15045e-09,9.99999e-01,9.99999e-01,9.99935e-01,5.15078e-09,9.99999e-01
5.236333830e-01,7.50710e-09,9.99999e-01,9.99999e-01,9.99743e-01,7.50903e-09,9.99997e-01
5.262515499e-01,1.08640e-08,9.99999e-01,9.99999e-01,9.99839e-01,1.08658e-08,9.99997e-01
5.288828077e-01,1.56065e-08,9.99999e-01,9.99999e-01,9.99853e-01,1.56088e-08,9.99997e-01
5.315272217e-01,2.22594e-08,9.99999e-01,9.99999e-01,9.99869e-01,2.22623e-08,9.99999e-01
5.341848578e-01,3.15273e-08,9.99999e-01,9.99999e-01,9.99915e-01,3.15300e-08,9.99999e-01
5.368557821e-01,4.43367e-08,9.99999e-01,9.99999e-01,9.99703e-01,4.43499e-08,9.99998e-01
5.395400610e-01,6.18970e-08,9.99999e-01,9.99999e-01,9.98937e-01,6.19633e-08,9.99990e-01
5.422377613e-01,8.58798e-08,9.99999e-01,9.99999e-01,9.98605e-01,8.60018e-08,9.99974e-01
5.449489501e-01,1.18440e-07,9.99999e-01,9.99999e-01,9.98713e-01,1.18596e-07,9.99973e-01
5.476736949e-01,1.62318e-07,9.99999e-01,9.99999e-01,9.98849e-01,1.62507e-07,9.99986e-01
5.504120634e-01,2.21111e-07,9.99999e-01,9.99999e-01,9.99165e-01,2.21297e-07,9.99996e-01
5.531641237e-01,2.99396e-07,9.99999e-01,9.99999e-01,9.99579e-01,2.99522e-07,9.99999e-01
5.559299443e-01,4.02900e-07,9.99999e-01,9.99999e-01,9.99796e-01,4.02981e-07,9.99999e-01
5.587095940e-01,5.38941e-07,9.99999e-01,9.99999e-01,9.99873e-01,5.39010e-07,9.99999e-01
5.615031420e-01,7.16724e-07,9.99999e-01,9.99999e-01,9.99858e-01,7.16825e-07,9.99999e-01
5.643106577e-01,9.47796e-07,9.99999e-01,9.99999e-01,9.99842e-01,9.47946e-07,9.99998e-01
5.671322110e-01,1.24430e-06,9.99999e-01,9.99999e-01,9.98102e-01,1.24669e-06,9.99983e-01
5.699678720e-01,1.62724e-06,9.99999e-01,9.99999e-01,9.97915e-01,1.63072e-06,9.99946e-01
5.728177114e-01,2.11714e-06,9.99999e-01,9.99999e-01,9.97855e-01,2.12178e-06,9.99955e-01
5.756818000e-01,2.74090e-06,9.99999e-01,9.99999e-01,9.98026e-01,2.74639e-06,9.99972e-01
5.785602090e-01,3.53067e-06,9.99999e-01,9.99999e-01,9.98275e-01,3.53680e-06,9.99991e-01
5.814530100e-01,4.52415e-06,9.99999e-01,9.99999e-01,9.98272e-01,4.53199e-06,9.99995e-01
5.843602750e-01,5.76699e-06,9.99999e-01,9.99999e-01,9.97961e-01,5.77884e-06,9.99988e-01
5.872820764e-01,7.20467e-06,9.99999e-01,9.99999e-01,9.82565e-01,7.33343e-06,9.99874e-01
5.902184868e-01,9.06166e-06,9.99999e-01,9.99999e-01,9.78645e-01,9.26253e-06,9.99659e-01
5.931695792e-01,1.14661e-05,9.99999e-01,9.99999e-01,9.84943e-01,1.16453e-05,9.99668e-01
5.961354271e-01,1.43308e-05,9.99999e-01,9.99999e-01,9.83447e-01,1.45749e-05,9.99799e-01
5.991161043e-01,1.79397e-05,9.99999e-01,9.99999e-01,9.87880e-01,1.81608e-05,9.99941e-01
6.021116848e-01,2.23753e-05,9.99999e-01,9.99999e-01,9.93095e-01,2.25310e-05,9.99992e-01
6.051222432e-01,2.77364e-05,9.99999e-01,9.99999e-01,9.96498e-01,2.78339e-05,9.99999e-01
6.081478544e-01,3.41900e-05,9.99999e-01,9.99999e-01,9.98490e-01,3.42417e-05,9.99999e-01
6.111885937e-01,4.19257e-05,9.99999e-01,9.99999e-01,9.99358e-01,4.19526e-05,9.99999e-01
6.142445367e-01,5.11795e-05,9.99999e-01,9.99999e-01,9.99714e-01,5.11941e-05,9.99999e-01
6.173157594e-01,6.22164e-05,9.99999e-01,9.99999e-01,9.99842e-01,6.22262e-05,9.99999e-01
6.204023382e-01,7.53347e-05,9.99999e-01,9.99999e-01,9.99867e-01,7.53447e-05,9.99999e-01
6.235043498e-01,9.08326e-05,9.99999e-01,9.99999e-01,9.99426e-01,9.08848e-05,9.99998e-01
6.266218716e-01,1.08885e-04,9.99999e-01,9.99999e-01,9.96910e-01,1.09225e-04,9.99977e-01
6.297549810e-01,1.30636e-04,9.99999e-01,9.99999e-01,9.98866e-01,1.30790e-04,9.99956e-01
6.329037559e-01,1.55700e-04,9.99999e-01,9.99999e-01,9.97752e-01,1.56056e-04,9.99964e-01
6.360682746e-01,1.85198e-04,9.99999e-01,9.99999e-01,9.98095e-01,1.85555e-04,9.99978e-01
6.392486160e-01,2.19331e-04,9.99999e-01,9.99999e-01,9.97525e-01,2.19877e-04,9.99990e-01
6.424448591e-01,2.58903e-04,9.99999e-01,9.99999e-01,9.97037e-01,2.59676e-04,9.99984e-01
6.456570834e-01,3.01058e-04,9.99999e-01,9.99999e-01,9.84990e-01,3.05672e-04,9.99914e-01
6.488853688e-01,3.53847e-04,9.99999e-01,9.99999e-01,9.86820e-01,3.58658e-04,9.99761e-01
6.521297956e-01,4.14624e-04,9.99999e-01,9.99999e-01,9.88570e-01,4.19502e-04,9.99799e-01
6.553904446e-01,4.83551e-04,9.99999e-01,9.99999e-01,9.88699e-01,4.89151e-04,9.99849e-01
6.586673968e-01,5.63049e-04,9.99999e-01,9.99999e-01,9.90221e-01,5.68636e-04,9.99950e-01
6.619607338e-01,6.55335e-04,9.99999e-01,9.99999e-01,9.94335e-01,6.59075e-04,9.99989e-01
6.652705375e-01,7.59161e-04,9.99999e-01,9.99999e-01,9.96706e-01,7.61673e-04,9.99994e-01
6.685968902e-01,8.76388e-04,9.99999e-01,9.99999e-01,9.98470e-01,8.77731e-04,9.99998e-01
6.719398746e-01,1.00793e-03,9.99999e-01,9.99999e-01,9.99289e-01,1.00864e-03,9.99999e-01
6.752995740e-01,1.15546e-03,9.99999e-01,9.99999e-01,9.99617e-01,1.15590e-03,9.99999e-01
6.786760719e-01,1.32038e-03,9.99999e-01,9.99999e-01,9.99451e-01,1.32110e-03,9.99998e-01
6.820694522e-01,1.50450e-03,9.99999e-01,9.99999e-01,9.99057e-01,1.50593e-03,9.99994e-01
6.854797995e-01,1.71009e-03,9.99999e-01,9.99999e-01,9.98786e-01,1.71218e-03,9.99989e-01
6.889071985e-01,1.93610e-03,9.99999e-01,9.99999e-01,9.97115e-01,1.94175e-03,9.99973e-01
6.923517345e-01,2.09387e-03,9.99999e-01,9.99999e-01,9.53432e-01,2.19664e-03,9.99769e-01
6.958134932e-01,2.41571e-03,9.99999e-01,9.99999e-01,9.75001e-01,2.47894e-03,9.99479e-01
6.992925606e-01,2.72449e-03,9.99999e-01,9.99999e-01,9.76671e-01,2.79084e-03,9.99541e-01
7.027890234e-01,3.04272e-03,9.99999e-01,9.99999e-01,9.71014e-01,3.13465e-03,9.99648e-01
7.063029686e-01,3.42633e-03,9.99999e-01,9.99999e-01,9.75574e-01,3.51273e-03,9.99824e-01
7.098344834e-01,3.83505e-03,9.99999e-01,9.99999e-01,9.76543e-01,3.92758e-03,9.99896e-01
7.133836558e-01,4.24679e-03,9.99999e-01,9.99999e-01,9.69399e-01,4.38174e-03,9.99794e-01
7.169505741e-01,3.80720e-03,9.99999e-01,9.99999e-01,7.81768e-01,4.87787e-03,9.98383e-01
7.205353270e-01,4.77341e-03,9.99999e-01,9.99999e-01,8.83435e-01,5.41867e-03,9.97150e-01
7.241380036e-01,5.13004e-03,9.99999e-01,9.99999e-01,8.56138e-01,6.00695e-03,9.97520e-01
7.277586936e-01,5.76405e-03,9.99999e-01,9.99999e-01,8.69143e-01,6.64556e-03,9.97939e-01
7.313974871e-01,6.30246e-03,9.99999e-01,9.99999e-01,8.59761e-01,7.33739e-03,9.99056e-01
7.350544745e-01,7.44163e-03,9.99999e-01,9.99999e-01,9.20677e-01,8.08542e-03,9.99671e-01
7.387297469e-01,8.36473e-03,9.99999e-01,9.99999e-01,9.40775e-01,8.89264e-03,9.99849e-01
7.424233956e-01,9.47335e-03,9.99999e-01,9.99999e-01,9.70450e-01,9.76208e-03,9.99970e-01
7.461355126e-01,1.05044e-02,9.99999e-01,9.99999e-01,9.82016e-01,1.06968e-02,9.99994e-01
7.498661902e-01,1.16011e-02,9.99999e-01,9.99999e-01,9.91561e-01,1.16999e-02,9.99997e-01
7.536155211e-01,1.27215e-02,9.99999e-01,9.99999e-01,9.95865e-01,1.27744e-02,9.99998e-01
7.573835987e-01,1.38937e-02,9.99999e-01,9.99999e-01,9.97867e-01,1.39233e-02,9.99999e-01
7.611705167e-01,1.51298e-02,9.99999e-01,9.99999e-01,9.98675e-01,1.51499e-02,9.99999e-01
7.649763693e-01,1.64434e-02,9.99999e-01,9.99999e-01,9.99171e-01,1.64570e-02,9.99999e-01
7.688012511e-01,1.78374e-02,9.99999e-01,9.99999e-01,9.99423e-01,1.78477e-02,9.99999e-01
7.726452574e-01,1.93158e-02,9.99999e-01,9.99999e-01,9.99525e-01,1.93249e-02,9.99999e-01
7.765084837e-01,2.08776e-02,9.99999e-01,9.99999e-01,9.99332e-01,2.08916e-02,9.99998e-01
7.803910261e-01,1.97968e-02,9.99999e-01,8.80149e-01,9.97122e-01,2.25505e-02,9.99996e-01
7.842929812e-01,1.17670e-02,9.99999e-01,4.88206e-01,9.89995e-01,2.43044e-02,9.99980e-01
7.882144461e-01,1.22187e-02,9.99999e-01,4.75668e-01,9.79290e-01,2.61560e-02,9.99871e-01
7.921555184e-01,1.72958e-02,9.99999e-01,6.21914e-01,9.88532e-01,2.81079e-02,9.99752e-01
7.961162960e-01,2.13264e-02,9.99999e-01,7.20932e-01,9.80073e-01,3.01626e-02,9.99762e-01
8.000968774e-01,2.64351e-02,9.99999e-01,8.37183e-01,9.76838e-01,3.23223e-02,9.99747e-01
8.040973618e-01,3.07944e-02,9.99999e-01,9.11327e-01,9.76878e-01,3.45894e-02,9.99799e-01
8.081178486e-01,3.36339e-02,9.99999e-01,9.58383e-01,9.49191e-01,3.69660e-02,9.99811e-01
8.121584379e-01,3.13866e-02,9.99999e-01,9.86835e-01,8.06201e-01,3.94541e-02,9.99261e-01
8.162192301e-01,3.23242e-02,9.99999e-01,9.97075e-01,7.72803e-01,4.20555e-02,9.97227e-01
8.203003262e-01,3.94747e-02,9.99999e-01,9.99950e-01,8.84580e-01,4.47719e-02,9.96754e-01
8.244018279e-01,3.99374e-02,9.99999e-01,9.99999e-01,8.41106e-01,4.76049e-02,9.97415e-01
8.285238370e-01,4.32533e-02,9.99999e-01,9.99999e-01,8.57293e-01,5.05559e-02,9.97969e-01
8.326664562e-01,4.58443e-02,9.99999e-01,9.99999e-01,8.55608e-01,5.36260e-02,9.99159e-01
8.368297885e-01,5.07573e-02,9.99999e-01,9.99999e-01,8.93529e-01,5.68163e-02,9.99807e-01
8.410139374e-01,5.62207e-02,9.99999e-01,9.99999e-01,9.35124e-01,6.01278e-02,9.99887e-01
8.452190071e-01,6.14948e-02,9.99999e-01,9.99999e-01,9.67554e-01,6.35612e-02,9.99932e-01
8.494451021e-01,6.58454e-02,9.99999e-01,9.99999e-01,9.81107e-01,6.71169e-02,9.99945e-01
8.536923276e-01,6.99960e-02,9.99999e-01,9.99999e-01,9.88743e-01,7.07953e-02,9.99963e-01
8.579607893e-01,7.40797e-02,9.99999e-01,9.99999e-01,9.93077e-01,7.45967e-02,9.99989e-01
8.622505932e-01,7.81744e-02,9.99999e-01,9.99999e-01,9.95585e-01,7.85211e-02,9.99998e-01
8.665618462e-01,6.96075e-02,9.99999e-01,8.45158e-01,9.97278e-01,8.25683e-02,9.99998e-01
8.708946554e-01,1.56178e-02,9.99999e-01,1.80550e-01,9.96892e-01,8.67379e-02,9.99997e-01
8.752491287e-01,2.06899e-02,9.99999e-01,2.28146e-01,9.95839e-01,9.10294e-02,9.99995e-01
8.796253743e-01,4.09380e-02,9.99999e-01,4.31115e-01,9.94264e-01,9.54422e-02,9.99986e-01
8.840235012e-01,6.33059e-02,9.99999e-01,6.37118e-01,9.93444e-01,9.99754e-02,9.99959e-01
8.884436187e-01,8.53726e-02,9.99999e-01,8.34423e-01,9.76916e-01,1.04628e-01,9.99885e-01
8.928858368e-01,7.97409e-02,9.99999e-01,9.29153e-01,7.82507e-01,1.09399e-01,9.99340e-01
8.973502660e-01,7.25247e-02,9.99999e-01,9.82165e-01,6.47182e-01,1.14286e-01,9.96628e-01
9.018370173e-01,9.46959e-02,9.99999e-01,9.98013e-01,7.99426e-01,1.19289e-01,9.94703e-01
9.063462024e-01,9.78878e-02,9.99999e-01,9.53793e-01,8.22962e-01,1.24406e-01,9.95345e-01
9.108779334e-01,8.52747e-02,9.99999e-01,8.91146e-01,7.37038e-01,1.29634e-01,9.95164e-01
9.154323231e-01,9.24662e-02,9.99999e-01,9.72983e-01,7.05004e-01,1.34973e-01,9.96001e-01
9.200094847e-01,8.29096e-02,9.99999e-01,7.40871e-01,7.61140e-01,1.40419e-01,9.97759e-01
9.246095321e-01,5.77677e-02,9.99999e-01,5.73118e-01,6.71302e-01,1.45971e-01,9.97419e-01
9.292325798e-01,1.03188e-02,9.99999e-01,6.58067e-01,9.36671e-02,1.51626e-01,9.89974e-01
9.338787427e-01,4.53060e-03,9.99999e-01,6.59200e-01,4.10643e-02,1.57382e-01,9.59202e-01
9.385481364e-01,3.27879e-02,9.99999e-01,7.32801e-01,2.72388e-01,1.63237e-01,9.51666e-01
9.432408771e-01,2.52763e-02,9.99999e-01,8.24282e-01,1.83212e-01,1.69187e-01,9.58160e-01
9.479570815e-01,1.39964e-02,9.99999e-01,9.05747e-01,8.98153e-02,1.75230e-01,9.65813e-01
9.526968669e-01,2.59523e-02,9.99999e-01,9.53376e-01,1.51555e-01,1.81363e-01,9.79007e-01
9.574603512e-01,2.99079e-02,9.99999e-01,9.79736e-01,1.63689e-01,1.87583e-01,9.89280e-01
9.622476530e-01,4.20827e-02,9.99999e-01,9.93624e-01,2.19738e-01,1.93888e-01,9.92575e-01
9.670588912e-01,8.20096e-02,9.99999e-01,9.98080e-01,4.12200e-01,2.00273e-01,9.94916e-01
9.718941857e-01,1.15425e-01,9.99999e-01,9.99861e-01,5.60470e-01,2.06737e-01,9.96255e-01
9.767536566e-01,1.31359e-01,9.99999e-01,9.99999e-01,6.17680e-01,2.13275e-01,9.97136e-01
9.816374249e-01,1.53055e-01,9.99999e-01,9.99999e-01,6.96759e-01,2.19885e-01,9.99008e-01
9.865456120e-01,1.80491e-01,9.99999e-01,9.99999e-01,7.96812e-01,2.26563e-01,9.99792e-01
9.914783401e-01,2.02634e-01,9.99999e-01,9.99999e-01,8.68585e-01,2.33305e-01,9.99942e-01
9.964357318e-01,2.22354e-01,9.99999e-01,9.99999e-01,9.26082e-01,2.40110e-01,9.99966e-01
1.001417910e+00,2.35836e-01,9.99999e-01,9.99999e-01,9.54959e-01,2.46972e-01,9.99948e-01
1.006425000e+00,2.47300e-01,9.99999e-01,9.99999e-01,9.74114e-01,2.53890e-01,9.99926e-01
1.011457125e+00,2.56617e-01,9.99999e-01,9.99999e-01,9.83807e-01,2.60858e-01,9.99931e-01
1.016514411e+00,2.64915e-01,9.99999e-01,9.99999e-01,9.88997e-01,2.67875e-01,9.99951e-01
1.021596983e+00,2.72449e-01,9.99999e-01,9.99766e-01,9.91230e-01,2.74936e-01,9.99951e-01
1.026704968e+00,2.74873e-01,9.99999e-01,9.81298e-01,9.93158e-01,2.82038e-01,9.99967e-01
1.031838492e+00,2.51683e-01,9.99999e-01,8.74418e-01,9.95011e-01,2.89179e-01,9.99990e-01
1.036997685e+00,8.03056e-03,9.99999e-01,2.71580e-02,9.97041e-01,2.96353e-01,9.99998e-01
1.042182673e+00,8.60781e-05,9.99999e-01,2.84279e-04,9.96486e-01,3.03559e-01,9.99998e-01
1.047393587e+00,2.55147e-04,9.99999e-01,8.24044e-04,9.95334e-01,3.10792e-01,9.99998e-01
1.052630555e+00,2.72053e-10,9.99999e-01,8.58753e-10,9.93612e-01,3.18049e-01,9.99997e-01
1.057893707e+00,9.95322e-10,9.99999e-01,3.07462e-09,9.89378e-01,3.25328e-01,9.99995e-01
1.063183176e+00,2.51013e-07,9.99999e-01,7.61653e-07,9.82565e-01,3.32625e-01,9.99990e-01
1.068499092e+00,5.84453e-06,9.99999e-01,1.74672e-05,9.70948e-01,3.39936e-01,9.99979e-01
1.073841587e+00,2.47286e-04,9.99999e-01,7.27918e-04,9.66218e-01,3.47259e-01,9.99956e-01
1.079210795e+00,3.87032e-03,9.99999e-01,1.12663e-02,9.56708e-01,3.54590e-01,9.99881e-01
1.084606849e+00,2.52280e-02,9.99999e-01,7.36485e-02,9.35427e-01,3.61926e-01,9.99715e-01
1.090029883e+00,8.58858e-02,9.99999e-01,2.52951e-01,9.09425e-01,3.69265e-01,9.99411e-01
1.095480033e+00,1.48586e-01,9.99999e-01,5.04775e-01,7.71982e-01,3.76604e-01,9.98935e-01
1.100957433e+00,1.46560e-01,9.99999e-01,7.16843e-01,5.24810e-01,3.83939e-01,9.98042e-01
1.106462220e+00,7.41326e-02,9.99999e-01,8.70827e-01,2.14161e-01,3.91268e-01,9.96682e-01
1.111994531e+00,1.63320e-02,9.99999e-01,9.49897e-01,4.29795e-02,3.98587e-01,9.91217e-01
1.117554504e+00,3.11364e-03,9.99999e-01,9.87463e-01,7.96635e-03,4.05895e-01,9.68654e-01
1.123142276e+00,1.46854e-02,9.99999e-01,9.99165e-01,3.83318e-02,4.13189e-01,9.27258e-01
1.128757988e+00,3.68072e-02,9.99999e-01,9.99999e-01,9.55310e-02,4.20466e-01,9.16340e-01
1.134401778e+00,1.69338e-02,9.99999e-01,9.99999e-01,4.27186e-02,4.27723e-01,9.26772e-01
1.140073787e+00,9.23078e-02,9.99999e-01,9.99999e-01,2.25556e-01,4.34959e-01,9.40882e-01
1.145774156e+00,2.54660e-02,9.99999e-01,9.99999e-01,6.08088e-02,4.42171e-01,9.47117e-01
1.151503026e+00,1.93674e-02,9.99999e-01,9.99999e-01,4.44248e-02,4.49356e-01,9.70185e-01
1.157260541e+00,2.56497e-02,9.99999e-01,9.99999e-01,5.66968e-02,4.56513e-01,9.90990e-01
1.163046844e+00,5.38618e-02,9.99999e-01,9.99999e-01,1.16470e-01,4.63638e-01,9.97438e-01
1.168862078e+00,9.87028e-02,9.99999e-01,9.99999e-01,2.09957e-01,4.70731e-01,9.98679e-01
1.174706389e+00,1.80950e-01,9.99999e-01,9.99999e-01,3.79386e-01,4.77790e-01,9.98249e-01
1.180579921e+00,2.66233e-01,9.99999e-01,9.99999e-01,5.50604e-01,4.84811e-01,9.97354e-01
1.186482820e+00,3.48709e-01,9.99999e-01,9.99975e-01,7.10996e-01,4.91794e-01,9.97284e-01
1.192415234e+00,3.84079e-01,9.99999e-01,9.39148e-01,8.18833e-01,4.98737e-01,9.97965e-01
1.198377311e+00,2.12048e-01,9.99999e-01,4.83070e-01,8.45381e-01,5.05637e-01,9.98078e-01
1.204369197e+00,4.30469e-49,9.99999e-01,9.22665e-49,8.53658e-01,5.12494e-01,9.98261e-01
1.210391043e+00,2.28320e-203,9.99999e-01,4.79055e-203,8.59091e-01,5.19306e-01,9.98941e-01
1.216442998e+00,8.91986e-176,9.99999e-01,1.83854e-175,8.78527e-01,5.26071e-01,9.99351e-01
1.222525213e+00,4.19168e-173,9.99999e-01,8.29093e-173,9.03894e-01,5.32788e-01,9.99597e-01
1.228637839e+00,3.26712e-133,9.99999e-01,6.34958e-133,9.32246e-01,5.39456e-01,9.99812e-01
