#,Wave/freq,Total,N2,CO2,H2O,Rayleigh,CIA
4.000000000e-01,2.37107e-07,9.99999e-01,9.99999e-01,9.99970e-01,2.37114e-07,9.99999e-01
4.020000000e-01,3.20588e-07,9.99999e-01,9.99999e-01,9.99981e-01,3.20594e-07,9.99999e-01
4.040100000e-01,4.30750e-07,9.99999e-01,9.99999e-01,9.99991e-01,4.30753e-07,9.99999e-01
4.060300500e-01,5.75397e-07,9.99999e-01,9.99999e-01,9.99997e-01,5.75398e-07,9.99999e-01
4.080602003e-01,7.64230e-07,9.99999e-01,9.99999e-01,9.99998e-01,7.64230e-07,9.99999e-01
4.101005013e-01,1.00936e-06,9.99999e-01,9.99999e-01,9.99999e-01,1.00936e-06,9.99999e-01
4.121510038e-01,1.32581e-06,9.99999e-01,9.99999e-01,9.99998e-01,1.32581e-06,9.99999e-01
4.142117588e-01,1.73210e-06,9.99999e-01,9.99999e-01,9.99991e-01,1.73211e-06,9.99999e-01
4.162828176e-01,2.25093e-06,9.99999e-01,9.99999e-01,9.99963e-01,2.25102e-06,9.99999e-01
4.183642317e-01,2.91021e-06,9.99999e-01,9.99999e-01,9.99977e-01,2.91027e-06,9.99999e-01
4.204560528e-01,3.74351e-06,9.99999e-01,9.99999e-01,9.99986e-01,3.74355e-06,9.99999e-01
4.225583331e-01,4.79152e-06,9.99999e-01,9.99999e-01,9.99994e-01,4.79154e-06,9.99999e-01
4.246711247e-01,6.10306e-06,9.99999e-01,9.99999e-01,9.99995e-01,6.10308e-06,9.99999e-01
4.267944804e-01,7.73651e-06,9.99999e-01,9.99999e-01,9.99993e-01,7.73655e-06,9.99999e-01
4.289284528e-01,9.76134e-06,9.99999e-01,9.99999e-01,9.99995e-01,9.76138e-06,9.99999e-01
4.310730950e-01,1.22597e-05,9.99999e-01,9.99999e-01,9.99997e-01,1.22597e-05,9.99999e-01
4.332284605e-01,1.53283e-05,9.99999e-01,9.99999e-01,9.99999e-01,1.53284e-05,9.99999e-01
4.353946028e-01,1.90807e-05,9.99999e-01,9.99999e-01,9.99999e-01,1.90807e-05,9.99999e-01
4.375715758e-01,2.36490e-05,9.99999e-01,9.99999e-01,9.99995e-01,2.36491e-05,9.99999e-01
4.397594337e-01,2.91863e-05,9.99999e-01,9.99999e-01,9.99967e-01,2.91872e-05,9.99999e-01
4.419582309e-01,3.58671e-05,9.99999e-01,9.99999e-01,9.99839e-01,3.58729e-05,9.99999e-01
4.441680220e-01,4.39051e-05,9.99999e-01,9.99999e-01,9.99872e-01,4.39107e-05,9.99999e-01
4.463888621e-01,5.35283e-05,9.99999e-01,9.99999e-01,9.99867e-01,5.35353e-05,9.99999e-01
4.486208064e-01,6.50092e-05,9.99999e-01,9.99999e-01,9.99917e-01,6.50145e-05,9.99999e-01
4.508639105e-01,7.86497e-05,9.99999e-01,9.99999e-01,9.99961e-01,7.86527e-05,9.99999e-01
4.531182300e-01,9.47932e-05,9.99999e-01,9.99999e-01,9.99984e-01,9.47946e-05,9.99999e-01
4.553838212e-01,1.13828e-04,9.99999e-01,9.99999e-01,9.99989e-01,1.13829e-04,9.99999e-01
4.576607403e-01,1.36191e-04,9.99999e-01,9.99999e-01,9.99994e-01,1.36192e-04,9.99999e-01
4.599490440e-01,1.62371e-04,9.99999e-01,9.99999e-01,9.99996e-01,1.62372e-04,9.99999e-01
4.622487892e-01,1.92913e-04,9.99999e-01,9.99999e-01,9.99998e-01,1.92914e-04,9.99999e-01
4.645600332e-01,2.28421e-04,9.99999e-01,9.99999e-01,9.99997e-01,2.28421e-04,9.99999e-01
4.668828333e-01,2.69553e-04,9.99999e-01,9.99999e-01,9.99961e-01,2.69563e-04,9.99999e-01
4.692172475e-01,3.17050e-04,9.99999e-01,9.99999e-01,9.99916e-01,3.17076e-04,9.99999e-01
4.715633337e-01,3.71750e-04,9.99999e-01,9.99999e-01,9.99945e-01,3.71770e-04,9.99999e-01
4.739211504e-01,4.34507e-04,9.99999e-01,9.99999e-01,9.99947e-01,4.34530e-04,9.99999e-01
4.762907561e-01,5.06309e-04,9.99999e-01,9.99999e-01,9.99972e-01,5.06322e-04,9.99999e-01
4.786722099e-01,5.88191e-04,9.99999e-01,9.99999e-01,9.99988e-01,5.88197e-04,9.99999e-01
4.810655710e-01,6.81289e-04,9.99999e-01,9.99999e-01,9.99996e-01,6.81291e-04,9.99999e-01
4.834708988e-01,7.86808e-04,9.99999e-01,9.99999e-01,9.99968e-01,7.86832e-04,9.99999e-01
4.858882533e-01,9.06089e-04,9.99999e-01,9.99999e-01,9.99940e-01,9.06142e-04,9.99999e-01
4.883176946e-01,1.04059e-03,9.99999e-01,9.99999e-01,9.99950e-01,1.04064e-03,9.99999e-01
4.907592831e-01,1.19178e-03,9.99999e-01,9.99999e-01,9.99955e-01,1.19183e-03,9.99999e-01
4.932130795e-01,1.36130e-03,9.99999e-01,9.99999e-01,9.99968e-01,1.36134e-03,9.99999e-01
4.956791449e-01,1.55085e-03,9.99999e-01,9.99999e-01,9.99982e-01,1.55088e-03,9.99999e-01
4.981575406e-01,1.76212e-03,9.99999e-01,9.99999e-01,9.99916e-01,1.76226e-03,9.99999e-01
5.006483283e-01,1.99698e-03,9.99999e-01,9.99999e-01,9.99786e-01,1.99741e-03,9.99998e-01
5.031515699e-01,2.25586e-03,9.99999e-01,9.99999e-01,9.98910e-01,2.25835e-03,9.99988e-01
5.056673278e-01,2.54568e-03,9.99999e-01,9.99999e-01,9.99423e-01,2.54718e-03,9.99986e-01
5.081956644e-01,2.86403e-03,9.99999e-01,9.99999e-01,9.99272e-01,2.86613e-03,9.99991e-01
5.107366428e-01,3.21593e-03,9.99999e-01,9.99999e-01,9.99508e-01,3.21752e-03,9.99997e-01
5.132903260e-01,3.60273e-03,9.99999e-01,9.99999e-01,9.99718e-01,3.60374e-03,9.99999e-01
5.158567776e-01,4.02682e-03,9.99999e-01,9.99999e-01,9.99880e-01,4.02730e-03,9.99999e-01
5.184360615e-01,4.49056e-03,9.99999e-01,9.99999e-01,9.99951e-01,4.49077e-03,9.99999e-01
5.210282418e-01,4.99673e-03,9.99999e-01,9.99999e-01,9.99981e-01,4.99682e-03,9.99999e-01
5.236333830e-01,5.54777e-03,9.99999e-01,9.99999e-01,9.99928e-01,5.54817e-03,9.99998e-01
5.262515499e-01,6.14736e-03,9.99999e-01,9.99999e-01,9.99955e-01,6.14764e-03,9.99998e-01
5.288828077e-01,6.79781e-03,9.99999e-01,9.99999e-01,9.99958e-01,6.79809e-03,9.99999e-01
5.315272217e-01,7.50217e-03,9.99999e-01,9.99999e-01,9.99963e-01,7.50244e-03,9.99999e-01
5.341848578e-01,8.26347e-03,9.99999e-01,9.99999e-01,9.99976e-01,8.26366e-03,9.99999e-01
5.368557821e-01,9.08401e-03,9.99999e-01,9.99999e-01,9.99917e-01,9.08476e-03,9.99999e-01
5.395400610e-01,9.96580e-03,9.99999e-01,9.99999e-01,9.99703e-01,9.96878e-03,9.99997e-01
5.422377613e-01,1.09145e-02,9.99999e-01,9.99999e-01,9.99612e-01,1.09188e-02,9.99992e-01
5.449489501e-01,1.19335e-02,9.99999e-01,9.99999e-01,9.99641e-01,1.19378e-02,9.99992e-01
5.476736949e-01,1.30248e-02,9.99999e-01,9.99999e-01,9.99680e-01,1.30290e-02,9.99995e-01
5.504120634e-01,1.41920e-02,9.99999e-01,9.99999e-01,9.99768e-01,1.41953e-02,9.99998e-01
5.531641237e-01,1.54381e-02,9.99999e-01,9.99999e-01,9.99883e-01,1.54399e-02,9.99999e-01
5.559299443e-01,1.67648e-02,9.99999e-01,9.99999e-01,9.99943e-01,1.67658e-02,9.99999e-01
5.587095940e-01,1.81753e-02,9.99999e-01,9.99999e-01,9.99964e-01,1.81759e-02,9.99999e-01
5.615031420e-01,1.96724e-02,9.99999e-01,9.99999e-01,9.99960e-01,1.96732e-02,9.99999e-01
5.643106577e-01,2.12596e-02,9.99999e-01,9.99999e-01,9.99955e-01,2.12606e-02,9.99999e-01
5.671322110e-01,2.29286e-02,9.99999e-01,9.99999e-01,9.99467e-01,2.29409e-02,9.99994e-01
5.699678720e-01,2.47021e-02,9.99999e-01,9.99999e-01,9.99421e-01,2.47168e-02,9.99984e-01
5.728177114e-01,2.65748e-02,9.99999e-01,9.99999e-01,9.99403e-01,2.65910e-02,9.99987e-01
5.756818000e-01,2.85501e-02,9.99999e-01,9.99999e-01,9.99451e-01,2.85660e-02,9.99992e-01
5.785602090e-01,3.06296e-02,9.99999e-01,9.99999e-01,9.99520e-01,3.06443e-02,9.99997e-01
5.814530100e-01,3.28125e-02,9.99999e-01,9.99999e-01,9.99519e-01,3.28283e-02,9.99998e-01
5.843602750e-01,3.51001e-02,9.99999e-01,9.99999e-01,9.99431e-01,3.51202e-02,9.99996e-01
5.872820764e-01,3.73368e-02,9.99999e-01,9.99999e-01,9.95099e-01,3.75219e-02,9.99964e-01
5.902184868e-01,3.97926e-02,9.99999e-01,9.99999e-01,9.94023e-01,4.00356e-02,9.99905e-01
5.931695792e-01,4.24793e-02,9.99999e-01,9.99999e-01,9.95784e-01,4.26630e-02,9.99907e-01
5.961354271e-01,4.51932e-02,9.99999e-01,9.99999e-01,9.95372e-01,4.54058e-02,9.99944e-01
5.991161043e-01,4.81017e-02,9.99999e-01,9.99999e-01,9.96620e-01,4.82655e-02,9.99983e-01
6.021116848e-01,5.11450e-02,9.99999e-01,9.99999e-01,9.98079e-01,5.12435e-02,9.99997e-01
6.051222432e-01,5.42880e-02,9.99999e-01,9.99999e-01,9.99027e-01,5.43408e-02,9.99999e-01
6.081478544e-01,5.75345e-02,9.99999e-01,9.99999e-01,9.99580e-01,5.75587e-02,9.99999e-01
6.111885937e-01,6.08870e-02,9.99999e-01,9.99999e-01,9.99821e-01,6.08978e-02,9.99999e-01
6.142445367e-01,6.43538e-02,9.99999e-01,9.99999e-01,9.99920e-01,6.43589e-02,9.99999e-01
6.173157594e-01,6.79396e-02,9.99999e-01,9.99999e-01,9.99955e-01,6.79425e-02,9.99999e-01
6.204023382e-01,7.16463e-02,9.99999e-01,9.99999e-01,9.99962e-01,7.16489e-02,9.99999e-01
6.235043498e-01,7.54662e-02,9.99999e-01,9.99999e-01,9.99839e-01,7.54783e-02,9.99999e-01
6.266218716e-01,7.93619e-02,9.99999e-01,9.99999e-01,9.99140e-01,7.94306e-02,9.99993e-01
6.297549810e-01,8.34783e-02,9.99999e-01,9.99999e-01,9.99684e-01,8.35057e-02,9.99987e-01
6.329037559e-01,8.76475e-02,9.99999e-01,9.99999e-01,9.99375e-01,8.77030e-02,9.99989e-01
6.360682746e-01,9.19730e-02,9.99999e-01,9.99999e-01,9.99469e-01,9.20222e-02,9.99993e-01
6.392486160e-01,9.63959e-02,9.99999e-01,9.99999e-01,9.99311e-01,9.64625e-02,9.99996e-01
6.424448591e-01,1.00930e-01,9.99999e-01,9.99999e-01,9.99085e-01,1.01023e-01,9.99995e-01
6.456570834e-01,1.05251e-01,9.99999e-01,9.99999e-01,9.95755e-01,1.05702e-01,9.99975e-01
6.488853688e-01,1.10087e-01,9.99999e-01,9.99999e-01,9.96330e-01,1.10500e-01,9.99933e-01
6.521297956e-01,1.15039e-01,9.99999e-01,9.99999e-01,9.96805e-01,1.15414e-01,9.99943e-01
6.553904446e-01,1.20058e-01,9.99999e-01,9.99999e-01,9.96844e-01,1.20443e-01,9.99957e-01
6.586673968e-01,1.25241e-01,9.99999e-01,9.99999e-01,9.97275e-01,1.25585e-01,9.99985e-01
6.619607338e-01,1.30632e-01,9.99999e-01,9.99999e-01,9.98424e-01,1.30838e-01,9.99996e-01
6.652705375e-01,1.36077e-01,9.99999e-01,9.99999e-01,9.99085e-01,1.36202e-01,9.99998e-01
6.685968902e-01,1.41612e-01,9.99999e-01,9.99999e-01,9.99575e-01,1.41672e-01,9.99999e-01
6.719398746e-01,1.47219e-01,9.99999e-01,9.99999e-01,9.99802e-01,1.47248e-01,9.99999e-01
6.752995740e-01,1.52910e-01,9.99999e-01,9.99999e-01,9.99893e-01,1.52926e-01,9.99999e-01
6.786760719e-01,1.58681e-01,9.99999e-01,9.99999e-01,9.99846e-01,1.58705e-01,9.99999e-01
6.820694522e-01,1.64538e-01,9.99999e-01,9.99999e-01,9.99737e-01,1.64581e-01,9.99998e-01
6.854797995e-01,1.70495e-01,9.99999e-01,9.99999e-01,9.99662e-01,1.70553e-01,9.99996e-01
6.889071985e-01,1.76473e-01,9.99999e-01,9.99999e-01,9.99191e-01,1.76617e-01,9.99992e-01
6.923517345e-01,1.80338e-01,9.99999e-01,9.99999e-01,9.86756e-01,1.82770e-01,9.99935e-01
6.958134932e-01,1.87658e-01,9.99999e-01,9.99999e-01,9.92990e-01,1.89010e-01,9.99854e-01
6.992925606e-01,1.94026e-01,9.99999e-01,9.99999e-01,9.93435e-01,1.95333e-01,9.99872e-01
7.027890234e-01,2.00073e-01,9.99999e-01,9.99999e-01,9.91852e-01,2.01736e-01,9.99901e-01
7.063029686e-01,2.06781e-01,9.99999e-01,9.99999e-01,9.93151e-01,2.08217e-01,9.99950e-01
7.098344834e-01,2.13354e-01,9.99999e-01,9.99999e-01,9.93427e-01,2.14772e-01,9.99970e-01
7.133836558e-01,2.19466e-01,9.99999e-01,9.99999e-01,9.91332e-01,2.21397e-01,9.99942e-01
7.169505741e-01,2.12502e-01,9.99999e-01,9.99999e-01,9.32074e-01,2.28090e-01,9.99550e-01
7.205353270e-01,2.26616e-01,9.99999e-01,9.99999e-01,9.65713e-01,2.34847e-01,9.99207e-01
7.241380036e-01,2.31143e-01,9.99999e-01,9.99999e-01,9.57114e-01,2.41665e-01,9.99315e-01
7.277586936e-01,2.38762e-01,9.99999e-01,9.99999e-01,9.61194e-01,2.48540e-01,9.99440e-01
7.313974871e-01,2.44824e-01,9.99999e-01,9.99999e-01,9.58580e-01,2.55470e-01,9.99737e-01
7.350544745e-01,2.56441e-01,9.99999e-01,9.99999e-01,9.77193e-01,2.62450e-01,9.99908e-01
7.387297469e-01,2.64927e-01,9.99999e-01,9.99999e-01,9.83158e-01,2.69477e-01,9.99957e-01
7.424233956e-01,2.74254e-01,9.99999e-01,9.99999e-01,9.91712e-01,2.76548e-01,9.99991e-01
7.461355126e-01,2.82234e-01,9.99999e-01,9.99999e-01,9.94976e-01,2.83659e-01,9.99998e-01
7.498661902e-01,2.90125e-01,9.99999e-01,9.99999e-01,9.97654e-01,2.90807e-01,9.99998e-01
7.536155211e-01,2.97647e-01,9.99999e-01,9.99999e-01,9.98851e-01,2.97989e-01,9.99999e-01
7.573835987e-01,3.05020e-01,9.99999e-01,9.99999e-01,9.99408e-01,3.05201e-01,9.99999e-01
7.611705167e-01,3.12325e-01,9.99999e-01,9.99999e-01,9.99632e-01,3.12440e-01,9.99999e-01
7.649763693e-01,3.19629e-01,9.99999e-01,9.99999e-01,9.99769e-01,3.19703e-01,9.99999e-01
7.688012511e-01,3.26933e-01,9.99999e-01,9.99999e-01,9.99839e-01,3.26986e-01,9.99999e-01
7.726452574e-01,3.34242e-01,9.99999e-01,9.99999e-01,9.99867e-01,3.34286e-01,9.99999e-01
7.765084837e-01,3.41536e-01,9.99999e-01,9.99999e-01,9.99813e-01,3.41600e-01,9.99999e-01
7.803910261e-01,3.32886e-01,9.99999e-01,9.54766e-01,9.99196e-01,3.48925e-01,9.99998e-01
7.842929812e-01,2.86119e-01,9.99999e-01,8.05232e-01,9.97199e-01,3.56258e-01,9.99994e-01
7.882144461e-01,2.87244e-01,9.99999e-01,7.94395e-01,9.94199e-01,3.63595e-01,9.99964e-01
7.921555184e-01,3.22786e-01,9.99999e-01,8.72955e-01,9.96804e-01,3.70934e-01,9.99930e-01
7.961162960e-01,3.43209e-01,9.99999e-01,9.12403e-01,9.94403e-01,3.78272e-01,9.99933e-01
8.000968774e-01,3.64533e-01,9.99999e-01,9.51566e-01,9.93509e-01,3.85606e-01,9.99929e-01
8.040973618e-01,3.80427e-01,9.99999e-01,9.74528e-01,9.93514e-01,3.92933e-01,9.99943e-01
8.081178486e-01,3.89811e-01,9.99999e-01,9.88261e-01,9.85506e-01,4.00250e-01,9.99947e-01
8.121584379e-01,3.81991e-01,9.99999e-01,9.96337e-01,9.40862e-01,4.07555e-01,9.99794e-01
8.162192301e-01,3.85079e-01,9.99999e-01,9.99190e-01,9.29694e-01,4.14845e-01,9.99228e-01
8.203003262e-01,4.06920e-01,9.99999e-01,9.99986e-01,9.64876e-01,4.22118e-01,9.99097e-01
8.244018279e-01,4.07792e-01,9.99999e-01,9.99999e-01,9.50425e-01,4.29371e-01,9.99281e-01
8.285238370e-01,4.17861e-01,9.99999e-01,9.99999e-01,9.57617e-01,4.36601e-01,9.99435e-01
8.326664562e-01,4.24645e-01,9.99999e-01,9.99999e-01,9.57045e-01,4.43807e-01,9.99766e-01
8.368297885e-01,4.37018e-01,9.99999e-01,9.99999e-01,9.69079e-01,4.50986e-01,9.99946e-01
8.410139374e-01,4.49651e-01,9.99999e-01,9.99999e-01,9.81509e-01,4.58136e-01,9.99968e-01
8.452190071e-01,4.61005e-01,9.99999e-01,9.99999e-01,9.90885e-01,4.65254e-01,9.99980e-01
8.494451021e-01,4.69838e-01,9.99999e-01,9.99999e-01,9.94717e-01,4.72339e-01,9.99984e-01
8.536923276e-01,4.77882e-01,9.99999e-01,9.99999e-01,9.96865e-01,4.79389e-01,9.99989e-01
8.579607893e-01,4.85464e-01,9.99999e-01,9.99999e-01,9.98073e-01,4.86402e-01,9.99996e-01
8.622505932e-01,4.92771e-01,9.99999e-01,9.99999e-01,9.98773e-01,4.93376e-01,9.99999e-01
8.665618462e-01,4.55216e-01,9.99999e-01,9.10524e-01,9.99243e-01,5.00310e-01,9.99999e-01
8.708946554e-01,2.94479e-01,9.99999e-01,5.81075e-01,9.99134e-01,5.07200e-01,9.99999e-01
8.752491287e-01,3.29865e-01,9.99999e-01,6.42415e-01,9.98842e-01,5.14047e-01,9.99998e-01
8.796253743e-01,4.06990e-01,9.99999e-01,7.82600e-01,9.98400e-01,5.20848e-01,9.99995e-01
8.840235012e-01,4.63563e-01,9.99999e-01,8.80206e-01,9.98171e-01,5.27603e-01,9.99988e-01
8.884436187e-01,5.04688e-01,9.99999e-01,9.50755e-01,9.93429e-01,5.34309e-01,9.99967e-01
8.928858368e-01,4.94197e-01,9.99999e-01,9.79784e-01,9.32333e-01,5.40965e-01,9.99816e-01
8.973502660e-01,4.80558e-01,9.99999e-01,9.95030e-01,8.82704e-01,5.47570e-01,9.99061e-01
9.018370173e-01,5.18720e-01,9.99999e-01,9.99450e-01,9.37985e-01,5.54123e-01,9.98525e-01
9.063462024e-01,5.22654e-01,9.99999e-01,9.86365e-01,9.45806e-01,5.60622e-01,9.98704e-01
9.108779334e-01,5.02851e-01,9.99999e-01,9.68337e-01,9.16472e-01,5.67067e-01,9.98654e-01
9.154323231e-01,5.14871e-01,9.99999e-01,9.92426e-01,9.05485e-01,5.73457e-01,9.98887e-01
9.200094847e-01,4.85156e-01,9.99999e-01,9.00043e-01,9.25094e-01,5.79791e-01,9.99376e-01
9.246095321e-01,4.45914e-01,9.99999e-01,8.54576e-01,8.87632e-01,5.86067e-01,9.99282e-01
9.292325798e-01,2.40527e-01,9.99999e-01,8.85377e-01,4.52409e-01,5.92285e-01,9.97204e-01
9.338787427e-01,1.91073e-01,9.99999e-01,8.87951e-01,3.57884e-01,5.98444e-01,9.88496e-01
9.385481364e-01,3.62850e-01,9.99999e-01,9.16245e-01,6.59591e-01,6.04544e-01,9.86333e-01
9.432408771e-01,3.25357e-01,9.99999e-01,9.47683e-01,5.66758e-01,6.10584e-01,9.88198e-01
9.479570815e-01,2.73285e-01,9.99999e-01,9.72861e-01,4.59137e-01,6.16563e-01,9.90384e-01
9.526968669e-01,3.37752e-01,9.99999e-01,9.86808e-01,5.52241e-01,6.22481e-01,9.94123e-01
9.574603512e-01,3.58192e-01,9.99999e-01,9.94334e-01,5.74730e-01,6.28337e-01,9.97010e-01
9.622476530e-01,4.01300e-01,9.99999e-01,9.98228e-01,6.35177e-01,6.34131e-01,9.97931e-01
9.670588912e-01,4.91487e-01,9.99999e-01,9.99467e-01,7.69582e-01,6.39862e-01,9.98584e-01
9.718941857e-01,5.47030e-01,9.99999e-01,9.99961e-01,8.48324e-01,6.45530e-01,9.98958e-01
9.767536566e-01,5.67569e-01,9.99999e-01,9.99999e-01,8.72355e-01,6.51135e-01,9.99203e-01
9.816374249e-01,5.93147e-01,9.99999e-01,9.99999e-01,9.03505e-01,6.56677e-01,9.99724e-01
9.865456120e-01,6.21414e-01,9.99999e-01,9.99999e-01,9.38527e-01,6.62154e-01,9.99942e-01
9.914783401e-01,6.41891e-01,9.99999e-01,9.99999e-01,9.61551e-01,6.67568e-01,9.99983e-01
9.964357318e-01,6.58696e-01,9.99999e-01,9.99999e-01,9.78872e-01,6.72918e-01,9.99990e-01
1.001417910e+00,6.69570e-01,9.99999e-01,9.99999e-01,9.87282e-01,6.78204e-01,9.99985e-01
1.006425000e+00,6.78453e-01,9.99999e-01,9.99999e-01,9.92742e-01,6.83426e-01,9.99979e-01
1.011457125e+00,6.85460e-01,9.99999e-01,9.99999e-01,9.95481e-01,6.88584e-01,9.99980e-01
1.016514411e+00,6.91542e-01,9.99999e-01,9.99999e-01,9.96933e-01,6.93677e-01,9.99986e-01
1.021596983e+00,6.96944e-01,9.99999e-01,9.99931e-01,9.97557e-01,6.98707e-01,9.99986e-01
1.026704968e+00,6.98581e-01,9.99999e-01,9.94663e-01,9.98095e-01,7.03673e-01,9.99990e-01
1.031838492e+00,6.69296e-01,9.99999e-01,9.45834e-01,9.98613e-01,7.08574e-01,9.99997e-01
1.036997685e+00,7.85166e-02,9.99999e-01,1.10128e-01,9.99177e-01,7.13412e-01,9.99999e-01
1.042182673e+00,3.69219e-02,9.99999e-01,5.14527e-02,9.99021e-01,7.18187e-01,9.99999e-01
1.047393587e+00,5.51041e-02,9.99999e-01,7.63127e-02,9.98701e-01,7.22898e-01,9.99999e-01
1.052630555e+00,4.19085e-04,9.99999e-01,5.76743e-04,9.98219e-01,7.27547e-01,9.99999e-01
1.057893707e+00,1.25784e-03,9.99999e-01,1.72121e-03,9.97032e-01,7.32132e-01,9.99998e-01
1.063183176e+00,6.49102e-03,9.99999e-01,8.84030e-03,9.95117e-01,7.36655e-01,9.99996e-01
1.068499092e+00,2.54814e-02,9.99999e-01,3.46071e-02,9.91827e-01,7.41116e-01,9.99993e-01
1.073841587e+00,8.72483e-02,9.99999e-01,1.17948e-01,9.90455e-01,7.45514e-01,9.99987e-01
1.079210795e+00,1.91616e-01,9.99999e-01,2.58325e-01,9.87753e-01,7.49852e-01,9.99966e-01
1.084606849e+00,3.49517e-01,9.99999e-01,4.71656e-01,9.81541e-01,7.54128e-01,9.99920e-01
1.090029883e+00,4.99979e-01,9.99999e-01,6.76523e-01,9.73700e-01,7.58343e-01,9.99836e-01
1.095480033e+00,5.85109e-01,9.99999e-01,8.24552e-01,9.29861e-01,7.62498e-01,9.99703e-01
1.100957433e+00,5.81372e-01,9.99999e-01,9.11162e-01,8.31633e-01,7.66593e-01,9.99455e-01
1.106462220e+00,4.66894e-01,9.99999e-01,9.62215e-01,6.29034e-01,7.70628e-01,9.99077e-01
1.111994531e+00,2.89193e-01,9.99999e-01,9.85822e-01,3.79115e-01,7.74604e-01,9.97552e-01
1.117554504e+00,1.62520e-01,9.99999e-01,9.96509e-01,2.11166e-01,7.78522e-01,9.91192e-01
1.123142276e+00,2.50425e-01,9.99999e-01,9.99769e-01,3.26892e-01,7.82381e-01,9.79240e-01
1.128757988e+00,3.69070e-01,9.99999e-01,9.99999e-01,4.80976e-01,7.86183e-01,9.76024e-01
1.134401778e+00,1.87445e-01,9.99999e-01,9.99999e-01,2.42240e-01,7.89928e-01,9.79576e-01
1.140073787e+00,5.01159e-01,9.99999e-01,9.99999e-01,6.41986e-01,7.93616e-01,9.83647e-01
1.145774156e+00,3.16250e-01,9.99999e-01,9.99999e-01,4.02708e-01,7.97247e-01,9.85021e-01
1.151503026e+00,2.90409e-01,9.99999e-01,9.99999e-01,3.65699e-01,8.00824e-01,9.91627e-01
1.157260541e+00,3.39501e-01,9.99999e-01,9.99999e-01,4.23146e-01,8.04345e-01,9.97489e-01
1.163046844e+00,4.26024e-01,9.99999e-01,9.99999e-01,5.27755e-01,8.07812e-01,9.99287e-01
1.168862078e+00,5.18177e-01,9.99999e-01,9.99999e-01,6.38993e-01,8.11224e-01,9.99632e-01
1.174706389e+00,6.17523e-01,9.99999e-01,9.99999e-01,7.58453e-01,8.14583e-01,9.99513e-01
1.180579921e+00,6.90438e-01,9.99999e-01,9.99999e-01,8.44791e-01,8.17890e-01,9.99264e-01
1.186482820e+00,7.45873e-01,9.99999e-01,9.99991e-01,9.09025e-01,8.21144e-01,9.99244e-01
1.192415234e+00,7.64936e-01,9.99999e-01,9.81286e-01,9.45870e-01,8.24346e-01,9.99434e-01
1.198377311e+00,4.38845e-01,9.99999e-01,5.51780e-01,9.54244e-01,8.27498e-01,9.99465e-01
1.204369197e+00,2.92372e-15,9.99999e-01,3.61305e-15,9.56647e-01,8.30598e-01,9.99516e-01
1.210391043e+00,4.16035e-58,9.99999e-01,5.11089e-58,9.58480e-01,8.33649e-01,9.99705e-01
1.216442998e+00,1.91264e-50,9.99999e-01,2.33806e-50,9.64517e-01,8.36650e-01,9.99819e-01
1.222525213e+00,1.05737e-49,9.99999e-01,1.27784e-49,9.72276e-01,8.39603e-01,9.99887e-01
1.228637839e+00,1.74193e-38,9.99999e-01,2.09540e-38,9.80678e-01,8.42507e-01,9.99947e-01
