#,Wave/freq,Total,N2,CO2,H2O,Rayleigh,CIA
4.000000000e-01,3.19275e-04,9.99999e-01,9.99999e-01,9.99984e-01,3.19280e-04,9.99999e-01
4.020000000e-01,3.74360e-04,9.99999e-01,9.99999e-01,9.99989e-01,3.74364e-04,9.99999e-01
4.040100000e-01,4.37500e-04,9.99999e-01,9.99999e-01,9.99995e-01,4.37502e-04,9.99999e-01
4.060300500e-01,5.09716e-04,9.99999e-01,9.99999e-01,9.99998e-01,5.09717e-04,9.99999e-01
4.080602003e-01,5.92062e-04,9.99999e-01,9.99999e-01,9.99999e-01,5.92062e-04,9.99999e-01
4.101005013e-01,6.85679e-04,9.99999e-01,9.99999e-01,9.99999e-01,6.85679e-04,9.99999e-01
4.121510038e-01,7.91799e-04,9.99999e-01,9.99999e-01,9.99998e-01,7.91800e-04,9.99999e-01
4.142117588e-01,9.11745e-04,9.99999e-01,9.99999e-01,9.99995e-01,9.11749e-04,9.99999e-01
4.162828176e-01,1.04693e-03,9.99999e-01,9.99999e-01,9.99980e-01,1.04695e-03,9.99999e-01
4.183642317e-01,1.19890e-03,9.99999e-01,9.99999e-01,9.99988e-01,1.19892e-03,9.99999e-01
4.204560528e-01,1.36926e-03,9.99999e-01,9.99999e-01,9.99992e-01,1.36927e-03,9.99999e-01
4.225583331e-01,1.55973e-03,9.99999e-01,9.99999e-01,9.99996e-01,1.55974e-03,9.99999e-01
4.246711247e-01,1.77213e-03,9.99999e-01,9.99999e-01,9.99997e-01,1.77213e-03,9.99999e-01
4.267944804e-01,2.00837e-03,9.99999e-01,9.99999e-01,9.99996e-01,2.00838e-03,9.99999e-01
4.289284528e-01,2.27049e-03,9.99999e-01,9.99999e-01,9.99997e-01,2.27049e-03,9.99999e-01
4.310730950e-01,2.56061e-03,9.99999e-01,9.99999e-01,9.99998e-01,2.56061e-03,9.99999e-01
4.332284605e-01,2.88095e-03,9.99999e-01,9.99999e-01,9.99999e-01,2.88095e-03,9.99999e-01
4.353946028e-01,3.23382e-03,9.99999e-01,9.99999e-01,9.99999e-01,3.23382e-03,9.99999e-01
4.375715758e-01,3.62163e-03,9.99999e-01,9.99999e-01,9.99997e-01,3.62164e-03,9.99999e-01
4.397594337e-01,4.04683e-03,9.99999e-01,9.99999e-01,9.99982e-01,4.04690e-03,9.99999e-01
4.419582309e-01,4.51181e-03,9.99999e-01,9.99999e-01,9.99913e-01,4.51220e-03,9.99999e-01
4.441680220e-01,5.01985e-03,9.99999e-01,9.99999e-01,9.99932e-01,5.02018e-03,9.99999e-01
4.463888621e-01,5.57322e-03,9.99999e-01,9.99999e-01,9.99930e-01,5.57360e-03,9.99999e-01
4.486208064e-01,6.17500e-03,9.99999e-01,9.99999e-01,9.99956e-01,6.17526e-03,9.99999e-01
4.508639105e-01,6.82789e-03,9.99999e-01,9.99999e-01,9.99979e-01,6.82803e-03,9.99999e-01
4.531182300e-01,7.53477e-03,9.99999e-01,9.99999e-01,9.99991e-01,7.53483e-03,9.99999e-01
4.553838212e-01,8.29859e-03,9.99999e-01,9.99999e-01,9.99994e-01,8.29863e-03,9.99999e-01
4.576607403e-01,9.12242e-03,9.99999e-01,9.99999e-01,9.99997e-01,9.12245e-03,9.99999e-01
4.599490440e-01,1.00093e-02,9.99999e-01,9.99999e-01,9.99997e-01,1.00093e-02,9.99999e-01
4.622487892e-01,1.09623e-02,9.99999e-01,9.99999e-01,9.99999e-01,1.09623e-02,9.99999e-01
4.645600332e-01,1.19844e-02,9.99999e-01,9.99999e-01,9.99998e-01,1.19844e-02,9.99999e-01
4.668828333e-01,1.30786e-02,9.99999e-01,9.99999e-01,9.99979e-01,1.30789e-02,9.99999e-01
4.692172475e-01,1.42480e-02,9.99999e-01,9.99999e-01,9.99955e-01,1.42486e-02,9.99999e-01
4.715633337e-01,1.54963e-02,9.99999e-01,9.99999e-01,9.99971e-01,1.54967e-02,9.99999e-01
4.739211504e-01,1.68258e-02,9.99999e-01,9.99999e-01,9.99972e-01,1.68262e-02,9.99999e-01
4.762907561e-01,1.82399e-02,9.99999e-01,9.99999e-01,9.99985e-01,1.82401e-02,9.99999e-01
4.786722099e-01,1.97413e-02,9.99999e-01,9.99999e-01,9.99993e-01,1.97414e-02,9.99999e-01
4.810655710e-01,2.13328e-02,9.99999e-01,9.99999e-01,9.99997e-01,2.13328e-02,9.99999e-01
4.834708988e-01,2.30169e-02,9.99999e-01,9.99999e-01,9.99982e-01,2.30172e-02,9.99999e-01
4.858882533e-01,2.47967e-02,9.99999e-01,9.99999e-01,9.99968e-01,2.47974e-02,9.99999e-01
4.883176946e-01,2.66753e-02,9.99999e-01,9.99999e-01,9.99973e-01,2.66760e-02,9.99999e-01
4.907592831e-01,2.86549e-02,9.99999e-01,9.99999e-01,9.99976e-01,2.86556e-02,9.99999e-01
4.932130795e-01,3.07380e-02,9.99999e-01,9.99999e-01,9.99982e-01,3.07385e-02,9.99999e-01
4.956791449e-01,3.29269e-02,9.99999e-01,9.99999e-01,9.99990e-01,3.29272e-02,9.99999e-01
4.981575406e-01,3.52223e-02,9.99999e-01,9.99999e-01,9.99955e-01,3.52239e-02,9.99999e-01
5.006483283e-01,3.76262e-02,9.99999e-01,9.99999e-01,9.99885e-01,3.76306e-02,9.99998e-01
5.031515699e-01,4.01259e-02,9.99999e-01,9.99999e-01,9.99423e-01,4.01492e-02,9.99993e-01
5.056673278e-01,4.27684e-02,9.99999e-01,9.99999e-01,9.99695e-01,4.27817e-02,9.99992e-01
5.081956644e-01,4.55120e-02,9.99999e-01,9.99999e-01,9.99616e-01,4.55296e-02,9.99995e-01
5.107366428e-01,4.83819e-02,9.99999e-01,9.99999e-01,9.99740e-01,4.83945e-02,9.99998e-01
5.132903260e-01,5.13701e-02,9.99999e-01,9.99999e-01,9.99851e-01,5.13777e-02,9.99999e-01
5.158567776e-01,5.44770e-02,9.99999e-01,9.99999e-01,9.99937e-01,5.44804e-02,9.99999e-01
5.184360615e-01,5.77021e-02,9.99999e-01,9.99999e-01,9.99974e-01,5.77035e-02,9.99999e-01
5.210282418e-01,6.10475e-02,9.99999e-01,9.99999e-01,9.99990e-01,6.10480e-02,9.99999e-01
5.236333830e-01,6.45121e-02,9.99999e-01,9.99999e-01,9.99962e-01,6.45146e-02,9.99999e-01
5.262515499e-01,6.81019e-02,9.99999e-01,9.99999e-01,9.99976e-01,6.81036e-02,9.99999e-01
5.288828077e-01,7.18138e-02,9.99999e-01,9.99999e-01,9.99977e-01,7.18154e-02,9.99999e-01
5.315272217e-01,7.56488e-02,9.99999e-01,9.99999e-01,9.99980e-01,7.56502e-02,9.99999e-01
5.341848578e-01,7.96070e-02,9.99999e-01,9.99999e-01,9.99987e-01,7.96080e-02,9.99999e-01
5.368557821e-01,8.36847e-02,9.99999e-01,9.99999e-01,9.99955e-01,8.36884e-02,9.99999e-01
5.395400610e-01,8.78772e-02,9.99999e-01,9.99999e-01,9.99841e-01,8.78912e-02,9.99998e-01
5.422377613e-01,9.21966e-02,9.99999e-01,9.99999e-01,9.99795e-01,9.22157e-02,9.99995e-01
5.449489501e-01,9.66426e-02,9.99999e-01,9.99999e-01,9.99809e-01,9.66613e-02,9.99995e-01
5.476736949e-01,1.01210e-01,9.99999e-01,9.99999e-01,9.99831e-01,1.01227e-01,9.99997e-01
5.504120634e-01,1.05899e-01,9.99999e-01,9.99999e-01,9.99877e-01,1.05912e-01,9.99998e-01
5.531641237e-01,1.10708e-01,9.99999e-01,9.99999e-01,9.99938e-01,1.10714e-01,9.99999e-01
5.559299443e-01,1.15630e-01,9.99999e-01,9.99999e-01,9.99969e-01,1.15633e-01,9.99999e-01
5.587095940e-01,1.20665e-01,9.99999e-01,9.99999e-01,9.99980e-01,1.20667e-01,9.99999e-01
5.615031420e-01,1.25812e-01,9.99999e-01,9.99999e-01,9.99978e-01,1.25814e-01,9.99999e-01
5.643106577e-01,1.31070e-01,9.99999e-01,9.99999e-01,9.99976e-01,1.31073e-01,9.99999e-01
5.671322110e-01,1.36401e-01,9.99999e-01,9.99999e-01,9.99713e-01,1.36441e-01,9.99996e-01
5.699678720e-01,1.41872e-01,9.99999e-01,9.99999e-01,9.99697e-01,1.41916e-01,9.99991e-01
5.728177114e-01,1.47449e-01,9.99999e-01,9.99999e-01,9.99684e-01,1.47496e-01,9.99993e-01
5.756818000e-01,1.53134e-01,9.99999e-01,9.99999e-01,9.99710e-01,1.53179e-01,9.99995e-01
5.785602090e-01,1.58922e-01,9.99999e-01,9.99999e-01,9.99747e-01,1.58962e-01,9.99998e-01
5.814530100e-01,1.64801e-01,9.99999e-01,9.99999e-01,9.99746e-01,1.64843e-01,9.99998e-01
5.843602750e-01,1.70767e-01,9.99999e-01,9.99999e-01,9.99696e-01,1.70819e-01,9.99997e-01
5.872820764e-01,1.76422e-01,9.99999e-01,9.99999e-01,9.97391e-01,1.76886e-01,9.99981e-01
5.902184868e-01,1.82457e-01,9.99999e-01,9.99999e-01,9.96846e-01,1.83043e-01,9.99949e-01
5.931695792e-01,1.88856e-01,9.99999e-01,9.99999e-01,9.97770e-01,1.89287e-01,9.99951e-01
5.961354271e-01,1.95131e-01,9.99999e-01,9.99999e-01,9.97557e-01,1.95614e-01,9.99971e-01
5.991161043e-01,2.01659e-01,9.99999e-01,9.99999e-01,9.98218e-01,2.02021e-01,9.99990e-01
6.021116848e-01,2.08294e-01,9.99999e-01,9.99999e-01,9.98989e-01,2.08505e-01,9.99998e-01
6.051222432e-01,2.14953e-01,9.99999e-01,9.99999e-01,9.99488e-01,2.15063e-01,9.99999e-01
6.081478544e-01,2.21642e-01,9.99999e-01,9.99999e-01,9.99779e-01,2.21691e-01,9.99999e-01
6.111885937e-01,2.28366e-01,9.99999e-01,9.99999e-01,9.99906e-01,2.28387e-01,9.99999e-01
6.142445367e-01,2.35137e-01,9.99999e-01,9.99999e-01,9.99957e-01,2.35147e-01,9.99999e-01
6.173157594e-01,2.41962e-01,9.99999e-01,9.99999e-01,9.99976e-01,2.41968e-01,9.99999e-01
6.204023382e-01,2.48840e-01,9.99999e-01,9.99999e-01,9.99980e-01,2.48845e-01,9.99999e-01
6.235043498e-01,2.55755e-01,9.99999e-01,9.99999e-01,9.99913e-01,2.55777e-01,9.99999e-01
6.266218716e-01,2.62639e-01,9.99999e-01,9.99999e-01,9.99545e-01,2.62759e-01,9.99996e-01
6.297549810e-01,2.69741e-01,9.99999e-01,9.99999e-01,9.99833e-01,2.69788e-01,9.99993e-01
6.329037559e-01,2.76768e-01,9.99999e-01,9.99999e-01,9.99670e-01,2.76861e-01,9.99994e-01
6.360682746e-01,2.83893e-01,9.99999e-01,9.99999e-01,9.99719e-01,2.83974e-01,9.99996e-01
6.392486160e-01,2.91017e-01,9.99999e-01,9.99999e-01,9.99636e-01,2.91123e-01,9.99998e-01
6.424448591e-01,2.98161e-01,9.99999e-01,9.99999e-01,9.99512e-01,2.98307e-01,9.99997e-01
6.456570834e-01,3.04826e-01,9.99999e-01,9.99999e-01,9.97739e-01,3.05520e-01,9.99987e-01
6.488853688e-01,3.12233e-01,9.99999e-01,9.99999e-01,9.98348e-01,3.12760e-01,9.99964e-01
6.521297956e-01,3.19476e-01,9.99999e-01,9.99999e-01,9.98316e-01,3.20024e-01,9.99970e-01
6.553904446e-01,3.26752e-01,9.99999e-01,9.99999e-01,9.98323e-01,3.27308e-01,9.99978e-01
6.586673968e-01,3.34126e-01,9.99999e-01,9.99999e-01,9.98565e-01,3.34609e-01,9.99992e-01
6.619607338e-01,3.41649e-01,9.99999e-01,9.99999e-01,9.99200e-01,3.41923e-01,9.99997e-01
6.652705375e-01,3.49081e-01,9.99999e-01,9.99999e-01,9.99519e-01,3.49249e-01,9.99998e-01
6.685968902e-01,3.56502e-01,9.99999e-01,9.99999e-01,9.99776e-01,3.56582e-01,9.99999e-01
6.719398746e-01,3.63882e-01,9.99999e-01,9.99999e-01,9.99896e-01,3.63919e-01,9.99999e-01
6.752995740e-01,3.71237e-01,9.99999e-01,9.99999e-01,9.99943e-01,3.71258e-01,9.99999e-01
6.786760719e-01,3.78565e-01,9.99999e-01,9.99999e-01,9.99918e-01,3.78596e-01,9.99999e-01
6.820694522e-01,3.85876e-01,9.99999e-01,9.99999e-01,9.99861e-01,3.85930e-01,9.99998e-01
6.854797995e-01,3.93185e-01,9.99999e-01,9.99999e-01,9.99821e-01,3.93256e-01,9.99997e-01
6.889071985e-01,4.00398e-01,9.99999e-01,9.99999e-01,9.99565e-01,4.00573e-01,9.99995e-01
6.923517345e-01,4.04984e-01,9.99999e-01,9.99999e-01,9.92939e-01,4.07877e-01,9.99965e-01
6.958134932e-01,4.13617e-01,9.99999e-01,9.99999e-01,9.96340e-01,4.15167e-01,9.99924e-01
6.992925606e-01,4.20935e-01,9.99999e-01,9.99999e-01,9.96507e-01,4.22439e-01,9.99932e-01
7.027890234e-01,4.27820e-01,9.99999e-01,9.99999e-01,9.95697e-01,4.29691e-01,9.99948e-01
7.063029686e-01,4.35328e-01,9.99999e-01,9.99999e-01,9.96381e-01,4.36920e-01,9.99973e-01
7.098344834e-01,4.42576e-01,9.99999e-01,9.99999e-01,9.96528e-01,4.44125e-01,9.99984e-01
7.133836558e-01,4.49195e-01,9.99999e-01,9.99999e-01,9.95360e-01,4.51302e-01,9.99969e-01
7.169505741e-01,4.41475e-01,9.99999e-01,9.99999e-01,9.63200e-01,4.58451e-01,9.99762e-01
7.205353270e-01,4.56957e-01,9.99999e-01,9.99999e-01,9.81914e-01,4.65568e-01,9.99581e-01
7.241380036e-01,4.61619e-01,9.99999e-01,9.99999e-01,9.77009e-01,4.72651e-01,9.99638e-01
7.277586936e-01,4.69600e-01,9.99999e-01,9.99999e-01,9.79234e-01,4.79700e-01,9.99704e-01
7.313974871e-01,4.75928e-01,9.99999e-01,9.99999e-01,9.77979e-01,4.86711e-01,9.99861e-01
7.350544745e-01,4.87695e-01,9.99999e-01,9.99999e-01,9.87917e-01,4.93683e-01,9.99951e-01
7.387297469e-01,4.96149e-01,9.99999e-01,9.99999e-01,9.91101e-01,5.00615e-01,9.99977e-01
7.424233956e-01,5.05290e-01,9.99999e-01,9.99999e-01,9.95641e-01,5.07504e-01,9.99995e-01
7.461355126e-01,5.12988e-01,9.99999e-01,9.99999e-01,9.97356e-01,5.14348e-01,9.99998e-01
7.498661902e-01,5.20506e-01,9.99999e-01,9.99999e-01,9.98769e-01,5.21148e-01,9.99999e-01
7.536155211e-01,5.27581e-01,9.99999e-01,9.99999e-01,9.99395e-01,5.27900e-01,9.99999e-01
7.573835987e-01,5.34437e-01,9.99999e-01,9.99999e-01,9.99688e-01,5.34604e-01,9.99999e-01
7.611705167e-01,5.41153e-01,9.99999e-01,9.99999e-01,9.99806e-01,5.41257e-01,9.99999e-01
7.649763693e-01,5.47794e-01,9.99999e-01,9.99999e-01,9.99878e-01,5.47860e-01,9.99999e-01
7.688012511e-01,5.54364e-01,9.99999e-01,9.99999e-01,9.99915e-01,5.54411e-01,9.99999e-01
7.726452574e-01,5.60869e-01,9.99999e-01,9.99999e-01,9.99930e-01,5.60908e-01,9.99999e-01
7.765084837e-01,5.67295e-01,9.99999e-01,9.99999e-01,9.99900e-01,5.67351e-01,9.99999e-01
7.803910261e-01,5.58209e-01,9.99999e-01,9.73338e-01,9.99572e-01,5.73738e-01,9.99999e-01
7.842929812e-01,5.15730e-01,9.99999e-01,8.90362e-01,9.98508e-01,5.80069e-01,9.99996e-01
7.882144461e-01,5.16015e-01,9.99999e-01,8.82697e-01,9.96934e-01,5.86343e-01,9.99978e-01
7.921555184e-01,5.50325e-01,9.99999e-01,9.30294e-01,9.98319e-01,5.92558e-01,9.99962e-01
7.961162960e-01,5.68834e-01,9.99999e-01,9.52939e-01,9.97024e-01,5.98715e-01,9.99964e-01
8.000968774e-01,5.87173e-01,9.99999e-01,9.74205e-01,9.96568e-01,6.04812e-01,9.99962e-01
8.040973618e-01,6.00565e-01,9.99999e-01,9.86573e-01,9.96566e-01,6.10849e-01,9.99970e-01
8.081178486e-01,6.08250e-01,9.99999e-01,9.93809e-01,9.92256e-01,6.16826e-01,9.99971e-01
8.121584379e-01,6.01647e-01,9.99999e-01,9.98088e-01,9.68066e-01,6.22741e-01,9.99891e-01
8.162192301e-01,6.04374e-01,9.99999e-01,9.99577e-01,9.62260e-01,6.28594e-01,9.99592e-01
8.203003262e-01,6.21963e-01,9.99999e-01,9.99993e-01,9.80890e-01,6.34385e-01,9.99523e-01
8.244018279e-01,6.22912e-01,9.99999e-01,9.99999e-01,9.73496e-01,6.40113e-01,9.99620e-01
8.285238370e-01,6.30935e-01,9.99999e-01,9.99999e-01,9.77304e-01,6.45779e-01,9.99701e-01
8.326664562e-01,6.36369e-01,9.99999e-01,9.99999e-01,9.77072e-01,6.51381e-01,9.99876e-01
8.368297885e-01,6.46127e-01,9.99999e-01,9.99999e-01,9.83597e-01,6.56920e-01,9.99971e-01
8.410139374e-01,6.55912e-01,9.99999e-01,9.99999e-01,9.90229e-01,6.62395e-01,9.99983e-01
8.452190071e-01,6.64595e-01,9.99999e-01,9.99999e-01,9.95201e-01,6.67806e-01,9.99989e-01
8.494451021e-01,6.71272e-01,9.99999e-01,9.99999e-01,9.97212e-01,6.73153e-01,9.99991e-01
8.536923276e-01,6.77315e-01,9.99999e-01,9.99999e-01,9.98351e-01,6.78436e-01,9.99994e-01
8.579607893e-01,6.82960e-01,9.99999e-01,9.99999e-01,9.98984e-01,6.83655e-01,9.99998e-01
8.622505932e-01,6.88366e-01,9.99999e-01,9.99999e-01,9.99354e-01,6.88810e-01,9.99999e-01
8.665618462e-01,6.49599e-01,9.99999e-01,9.36515e-01,9.99600e-01,6.93901e-01,9.99999e-01
8.708946554e-01,5.18960e-01,9.99999e-01,7.42839e-01,9.99542e-01,6.98928e-01,9.99999e-01
8.752491287e-01,5.54515e-01,9.99999e-01,7.88257e-01,9.99388e-01,7.03890e-01,9.99998e-01
8.796253743e-01,6.21845e-01,9.99999e-01,8.78062e-01,9.99152e-01,7.08789e-01,9.99997e-01
8.840235012e-01,6.66555e-01,9.99999e-01,9.34941e-01,9.99031e-01,7.13625e-01,9.99993e-01
8.884436187e-01,6.97163e-01,9.99999e-01,9.73887e-01,9.96454e-01,7.18396e-01,9.99982e-01
8.928858368e-01,6.89090e-01,9.99999e-01,9.89339e-01,9.63252e-01,7.23105e-01,9.99902e-01
8.973502660e-01,6.79075e-01,9.99999e-01,9.97406e-01,9.35967e-01,7.27750e-01,9.99504e-01
9.018370173e-01,7.07299e-01,9.99999e-01,9.99713e-01,9.66837e-01,7.32333e-01,9.99221e-01
9.063462024e-01,7.09596e-01,9.99999e-01,9.92600e-01,9.70679e-01,7.36853e-01,9.99315e-01
9.108779334e-01,6.95461e-01,9.99999e-01,9.83216e-01,9.54689e-01,7.41311e-01,9.99289e-01
9.154323231e-01,7.04317e-01,9.99999e-01,9.96047e-01,9.48738e-01,7.45707e-01,9.99412e-01
9.200094847e-01,6.79492e-01,9.99999e-01,9.42768e-01,9.59628e-01,7.50042e-01,9.99670e-01
9.246095321e-01,6.51047e-01,9.99999e-01,9.20410e-01,9.36974e-01,7.54315e-01,9.99620e-01
9.292325798e-01,4.61487e-01,9.99999e-01,9.36776e-01,6.46778e-01,7.58528e-01,9.98523e-01
9.338787427e-01,4.08139e-01,9.99999e-01,9.39055e-01,5.70250e-01,7.62680e-01,9.93911e-01
9.385481364e-01,5.80978e-01,9.99999e-01,9.54889e-01,7.97581e-01,7.66772e-01,9.92763e-01
9.432408771e-01,5.43183e-01,9.99999e-01,9.72178e-01,7.28507e-01,7.70805e-01,9.93753e-01
9.479570815e-01,4.90529e-01,9.99999e-01,9.85624e-01,6.45222e-01,7.74778e-01,9.94913e-01
9.526968669e-01,5.56443e-01,9.99999e-01,9.93047e-01,7.21467e-01,7.78693e-01,9.96894e-01
9.574603512e-01,5.78003e-01,9.99999e-01,9.97022e-01,7.41875e-01,7.82550e-01,9.98420e-01
9.622476530e-01,6.15849e-01,9.99999e-01,9.99070e-01,7.84725e-01,7.86350e-01,9.98907e-01
9.670588912e-01,6.86423e-01,9.99999e-01,9.99721e-01,8.69670e-01,7.90092e-01,9.99252e-01
9.718941857e-01,7.27133e-01,9.99999e-01,9.99980e-01,9.16562e-01,7.93777e-01,9.99449e-01
9.767536566e-01,7.41469e-01,9.99999e-01,9.99999e-01,9.30240e-01,7.97407e-01,9.99579e-01
9.816374249e-01,7.59126e-01,9.99999e-01,9.99999e-01,9.47883e-01,8.00980e-01,9.99854e-01
9.865456120e-01,7.78034e-01,9.99999e-01,9.99999e-01,9.67131e-01,8.04499e-01,9.99969e-01
9.914783401e-01,7.91443e-01,9.99999e-01,9.99999e-01,9.79561e-01,8.07963e-01,9.99991e-01
9.964357318e-01,8.02300e-01,9.99999e-01,9.99999e-01,9.88820e-01,8.11374e-01,9.99994e-01
1.001417910e+00,8.09256e-01,9.99999e-01,9.99999e-01,9.93287e-01,8.14731e-01,9.99992e-01
1.006425000e+00,8.14891e-01,9.99999e-01,9.99999e-01,9.96167e-01,8.18035e-01,9.99988e-01
1.011457125e+00,8.19325e-01,9.99999e-01,9.99999e-01,9.97621e-01,8.21286e-01,9.99989e-01
1.016514411e+00,8.23149e-01,9.99999e-01,9.99999e-01,9.98383e-01,8.24487e-01,9.99992e-01
1.021596983e+00,8.26531e-01,9.99999e-01,9.99959e-01,9.98711e-01,8.27636e-01,9.99992e-01
1.026704968e+00,8.27500e-01,9.99999e-01,9.97112e-01,9.98995e-01,8.30734e-01,9.99994e-01
1.031838492e+00,8.01888e-01,9.99999e-01,9.62430e-01,9.99269e-01,8.33783e-01,9.99998e-01
1.036997685e+00,1.62615e-01,9.99999e-01,1.94402e-01,9.99565e-01,8.36782e-01,9.99999e-01
1.042182673e+00,1.60829e-01,9.99999e-01,1.91614e-01,9.99482e-01,8.39732e-01,9.99999e-01
1.047393587e+00,1.69393e-01,9.99999e-01,2.01151e-01,9.99313e-01,8.42634e-01,9.99999e-01
1.052630555e+00,9.90965e-03,9.99999e-01,1.17290e-02,9.99058e-01,8.45489e-01,9.99999e-01
1.057893707e+00,2.24016e-02,9.99999e-01,2.64375e-02,9.98427e-01,8.48297e-01,9.99998e-01
1.063183176e+00,5.92883e-02,9.99999e-01,6.98000e-02,9.97413e-01,8.51058e-01,9.99998e-01
1.068499092e+00,1.37520e-01,9.99999e-01,1.61681e-01,9.95672e-01,8.53773e-01,9.99996e-01
1.073841587e+00,2.70180e-01,9.99999e-01,3.16876e-01,9.94933e-01,8.56444e-01,9.99993e-01
1.079210795e+00,4.12761e-01,9.99999e-01,4.83399e-01,9.93516e-01,8.59069e-01,9.99982e-01
1.084606849e+00,5.72992e-01,9.99999e-01,6.71369e-01,9.90194e-01,8.61651e-01,9.99957e-01
1.090029883e+00,6.93107e-01,9.99999e-01,8.13313e-01,9.85919e-01,8.64189e-01,9.99913e-01
1.095480033e+00,7.53313e-01,9.99999e-01,9.03275e-01,9.62106e-01,8.66684e-01,9.99843e-01
1.100957433e+00,7.50203e-01,9.99999e-01,9.52200e-01,9.06394e-01,8.69137e-01,9.99712e-01
1.106462220e+00,6.64905e-01,9.99999e-01,9.79962e-01,7.78437e-01,8.71548e-01,9.99512e-01
1.111994531e+00,5.11867e-01,9.99999e-01,9.92527e-01,5.90637e-01,8.73918e-01,9.98707e-01
1.117554504e+00,3.71271e-01,9.99999e-01,9.98173e-01,4.26350e-01,8.76247e-01,9.95341e-01
1.123142276e+00,4.63605e-01,9.99999e-01,9.99879e-01,5.33612e-01,8.78537e-01,9.88989e-01
1.128757988e+00,5.81870e-01,9.99999e-01,9.99999e-01,6.69140e-01,8.80787e-01,9.87273e-01
1.134401778e+00,3.58338e-01,9.99999e-01,9.99999e-01,4.10263e-01,8.82998e-01,9.89168e-01
1.140073787e+00,6.90836e-01,9.99999e-01,9.99999e-01,7.87274e-01,8.85171e-01,9.91335e-01
1.145774156e+00,5.34223e-01,9.99999e-01,9.99999e-01,6.06886e-01,8.87306e-01,9.92066e-01
1.151503026e+00,5.07212e-01,9.99999e-01,9.99999e-01,5.72819e-01,8.89404e-01,9.95572e-01
1.157260541e+00,5.60239e-01,9.99999e-01,9.99999e-01,6.29281e-01,8.91466e-01,9.98673e-01
1.163046844e+00,6.34475e-01,9.99999e-01,9.99999e-01,7.10375e-01,8.93491e-01,9.99623e-01
1.168862078e+00,7.06257e-01,9.99999e-01,9.99999e-01,7.88842e-01,8.95481e-01,9.99805e-01
1.174706389e+00,7.75045e-01,9.99999e-01,9.99999e-01,8.63843e-01,8.97436e-01,9.99742e-01
1.180579921e+00,8.22382e-01,9.99999e-01,9.99999e-01,9.14767e-01,8.99356e-01,9.99611e-01
1.186482820e+00,8.56672e-01,9.99999e-01,9.99993e-01,9.50928e-01,9.01242e-01,9.99601e-01
1.192415234e+00,8.67736e-01,9.99999e-01,9.89676e-01,9.71071e-01,9.03095e-01,9.99701e-01
1.198377311e+00,5.03796e-01,9.99999e-01,5.68542e-01,9.75551e-01,9.04915e-01,9.99717e-01
1.204369197e+00,4.07613e-09,9.99999e-01,4.55787e-09,9.76848e-01,9.06703e-01,9.99744e-01
1.210391043e+00,9.93141e-32,9.99999e-01,1.10705e-31,9.77854e-01,9.08459e-01,9.99844e-01
1.216442998e+00,1.09946e-27,9.99999e-01,1.22237e-27,9.81139e-01,9.10183e-01,9.99904e-01
1.222525213e+00,2.72213e-27,9.99999e-01,3.00825e-27,9.85288e-01,9.11876e-01,9.99940e-01
1.228637839e+00,4.09822e-21,9.99999e-01,4.51862e-21,9.89762e-01,9.13540e-01,9.99972e-01
