#,Wave/freq,Total,N2,CO2,H2O,Rayleigh,CIA
4.000000000e-01,1.41925e-19,9.99999e-01,9.99999e-01,9.99916e-01,1.41937e-19,9.99999e-01
4.020000000e-01,3.34768e-19,9.99999e-01,9.99999e-01,9.99947e-01,3.34785e-19,9.99999e-01
4.040100000e-01,7.75691e-19,9.99999e-01,9.99999e-01,9.99977e-01,7.75708e-19,9.99999e-01
4.060300500e-01,1.76774e-18,9.99999e-01,9.99999e-01,9.99994e-01,1.76775e-18,9.99999e-01
4.080602003e-01,3.96349e-18,9.99999e-01,9.99999e-01,9.99997e-01,3.96350e-18,9.99999e-01
4.101005013e-01,8.74601e-18,9.99999e-01,9.99999e-01,9.99999e-01,8.74601e-18,9.99999e-01
4.121510038e-01,1.89999e-17,9.99999e-01,9.99999e-01,9.99996e-01,1.89999e-17,9.99999e-01
4.142117588e-01,4.06469e-17,9.99999e-01,9.99999e-01,9.99976e-01,4.06479e-17,9.99999e-01
4.162828176e-01,8.56554e-17,9.99999e-01,9.99999e-01,9.99896e-01,8.56643e-17,9.99999e-01
4.183642317e-01,1.77885e-16,9.99999e-01,9.99999e-01,9.99938e-01,1.77896e-16,9.99999e-01
4.204560528e-01,3.64123e-16,9.99999e-01,9.99999e-01,9.99961e-01,3.64137e-16,9.99999e-01
4.225583331e-01,7.34873e-16,9.99999e-01,9.99999e-01,9.99985e-01,7.34883e-16,9.99999e-01
4.246711247e-01,1.46266e-15,9.99999e-01,9.99999e-01,9.99988e-01,1.46268e-15,9.99999e-01
4.267944804e-01,2.87188e-15,9.99999e-01,9.99999e-01,9.99983e-01,2.87192e-15,9.99999e-01
4.289284528e-01,5.56422e-15,9.99999e-01,9.99999e-01,9.99986e-01,5.56430e-15,9.99999e-01
4.310730950e-01,1.06407e-14,9.99999e-01,9.99999e-01,9.99994e-01,1.06408e-14,9.99999e-01
4.332284605e-01,2.00898e-14,9.99999e-01,9.99999e-01,9.99998e-01,2.00898e-14,9.99999e-01
4.353946028e-01,3.74563e-14,9.99999e-01,9.99999e-01,9.99998e-01,3.74564e-14,9.99999e-01
4.375715758e-01,6.89807e-14,9.99999e-01,9.99999e-01,9.99989e-01,6.89814e-14,9.99999e-01
4.397594337e-01,1.25505e-13,9.99999e-01,9.99999e-01,9.99908e-01,1.25516e-13,9.99999e-01
4.419582309e-01,2.25596e-13,9.99999e-01,9.99999e-01,9.99535e-01,2.25700e-13,9.99999e-01
4.441680220e-01,4.01029e-13,9.99999e-01,9.99999e-01,9.99640e-01,4.01173e-13,9.99999e-01
4.463888621e-01,7.04747e-13,9.99999e-01,9.99999e-01,9.99624e-01,7.05011e-13,9.99999e-01
4.486208064e-01,1.22496e-12,9.99999e-01,9.99999e-01,9.99767e-01,1.22525e-12,9.99999e-01
4.508639105e-01,2.10603e-12,9.99999e-01,9.99999e-01,9.99890e-01,2.10626e-12,9.99999e-01
4.531182300e-01,3.58206e-12,9.99999e-01,9.99999e-01,9.99956e-01,3.58221e-12,9.99999e-01
4.553838212e-01,6.02868e-12,9.99999e-01,9.99999e-01,9.99970e-01,6.02886e-12,9.99999e-01
4.576607403e-01,1.00426e-11,9.99999e-01,9.99999e-01,9.99986e-01,1.00428e-11,9.99999e-01
4.599490440e-01,1.65611e-11,9.99999e-01,9.99999e-01,9.99990e-01,1.65613e-11,9.99999e-01
4.622487892e-01,2.70422e-11,9.99999e-01,9.99999e-01,9.99997e-01,2.70423e-11,9.99999e-01
4.645600332e-01,4.37304e-11,9.99999e-01,9.99999e-01,9.99992e-01,4.37307e-11,9.99999e-01
4.668828333e-01,7.00421e-11,9.99999e-01,9.99999e-01,9.99889e-01,7.00498e-11,9.99999e-01
4.692172475e-01,1.11143e-10,9.99999e-01,9.99999e-01,9.99764e-01,1.11169e-10,9.99999e-01
4.715633337e-01,1.74797e-10,9.99999e-01,9.99999e-01,9.99845e-01,1.74824e-10,9.99999e-01
4.739211504e-01,2.72440e-10,9.99999e-01,9.99999e-01,9.99852e-01,2.72480e-10,9.99999e-01
4.762907561e-01,4.20947e-10,9.99999e-01,9.99999e-01,9.99923e-01,4.20979e-10,9.99999e-01
4.786722099e-01,6.44823e-10,9.99999e-01,9.99999e-01,9.99968e-01,6.44843e-10,9.99999e-01
4.810655710e-01,9.79459e-10,9.99999e-01,9.99999e-01,9.99990e-01,9.79468e-10,9.99999e-01
4.834708988e-01,1.47537e-09,9.99999e-01,9.99999e-01,9.99908e-01,1.47550e-09,9.99999e-01
4.858882533e-01,2.20447e-09,9.99999e-01,9.99999e-01,9.99833e-01,2.20483e-09,9.99999e-01
4.883176946e-01,3.26817e-09,9.99999e-01,9.99999e-01,9.99860e-01,3.26863e-09,9.99999e-01
4.907592831e-01,4.80755e-09,9.99999e-01,9.99999e-01,9.99873e-01,4.80815e-09,9.99999e-01
4.932130795e-01,7.01844e-09,9.99999e-01,9.99999e-01,9.99910e-01,7.01907e-09,9.99999e-01
4.956791449e-01,1.01699e-08,9.99999e-01,9.99999e-01,9.99952e-01,1.01703e-08,9.99999e-01
4.981575406e-01,1.46254e-08,9.99999e-01,9.99999e-01,9.99762e-01,1.46289e-08,9.99999e-01
5.006483283e-01,2.08785e-08,9.99999e-01,9.99999e-01,9.99384e-01,2.08914e-08,9.99995e-01
5.031515699e-01,2.95327e-08,9.99999e-01,9.99999e-01,9.96897e-01,2.96256e-08,9.99966e-01
5.056673278e-01,4.16527e-08,9.99999e-01,9.99999e-01,9.98363e-01,4.17225e-08,9.99962e-01
5.081956644e-01,5.82410e-08,9.99999e-01,9.99999e-01,9.97936e-01,5.83628e-08,9.99976e-01
5.107366428e-01,8.09871e-08,9.99999e-01,9.99999e-01,9.98606e-01,8.11004e-08,9.99995e-01
5.132903260e-01,1.11877e-07,9.99999e-01,9.99999e-01,9.99203e-01,1.11966e-07,9.99998e-01
5.158567776e-01,1.53546e-07,9.99999e-01,9.99999e-01,9.99663e-01,1.53598e-07,9.99999e-01
5.184360615e-01,2.09369e-07,9.99999e-01,9.99999e-01,9.99865e-01,2.09397e-07,9.99999e-01
5.210282418e-01,2.83711e-07,9.99999e-01,9.99999e-01,9.99949e-01,2.83725e-07,9.99999e-01
5.236333830e-01,3.82060e-07,9.99999e-01,9.99999e-01,9.99797e-01,3.82137e-07,9.99998e-01
5.262515499e-01,5.11600e-07,9.99999e-01,9.99999e-01,9.99873e-01,5.11666e-07,9.99997e-01
5.288828077e-01,6.81081e-07,9.99999e-01,9.99999e-01,9.99883e-01,6.81161e-07,9.99998e-01
5.315272217e-01,9.01600e-07,9.99999e-01,9.99999e-01,9.99897e-01,9.01692e-07,9.99999e-01
5.341848578e-01,1.18695e-06,9.99999e-01,9.99999e-01,9.99932e-01,1.18703e-06,9.99999e-01
5.368557821e-01,1.55383e-06,9.99999e-01,9.99999e-01,9.99763e-01,1.55419e-06,9.99998e-01
5.395400610e-01,2.02238e-06,9.99999e-01,9.99999e-01,9.99145e-01,2.02412e-06,9.99992e-01
5.422377613e-01,2.61950e-06,9.99999e-01,9.99999e-01,9.98902e-01,2.62242e-06,9.99979e-01
5.449489501e-01,3.37671e-06,9.99999e-01,9.99999e-01,9.98976e-01,3.38024e-06,9.99978e-01
5.476736949e-01,4.33129e-06,9.99999e-01,9.99999e-01,9.99096e-01,4.33525e-06,9.99989e-01
5.504120634e-01,5.52918e-06,9.99999e-01,9.99999e-01,9.99344e-01,5.53282e-06,9.99996e-01
5.531641237e-01,7.02495e-06,9.99999e-01,9.99999e-01,9.99669e-01,7.02726e-06,9.99999e-01
5.559299443e-01,8.88190e-06,9.99999e-01,9.99999e-01,9.99840e-01,8.88331e-06,9.99999e-01
5.587095940e-01,1.11766e-05,9.99999e-01,9.99999e-01,9.99899e-01,1.11777e-05,9.99999e-01
5.615031420e-01,1.39995e-05,9.99999e-01,9.99999e-01,9.99888e-01,1.40010e-05,9.99999e-01
5.643106577e-01,1.74574e-05,9.99999e-01,9.99999e-01,9.99872e-01,1.74597e-05,9.99998e-01
5.671322110e-01,2.16441e-05,9.99999e-01,9.99999e-01,9.98453e-01,2.16779e-05,9.99985e-01
5.699678720e-01,2.67558e-05,9.99999e-01,9.99999e-01,9.98374e-01,2.68005e-05,9.99957e-01
5.728177114e-01,3.29377e-05,9.99999e-01,9.99999e-01,9.98298e-01,3.29950e-05,9.99964e-01
5.756818000e-01,4.03909e-05,9.99999e-01,9.99999e-01,9.98440e-01,4.04548e-05,9.99979e-01
5.785602090e-01,4.93345e-05,9.99999e-01,9.99999e-01,9.98641e-01,4.94018e-05,9.99993e-01
5.814530100e-01,6.00078e-05,9.99999e-01,9.99999e-01,9.98634e-01,6.00900e-05,9.99996e-01
5.843602750e-01,7.26889e-05,9.99999e-01,9.99999e-01,9.98367e-01,7.28084e-05,9.99990e-01
5.872820764e-01,8.66491e-05,9.99999e-01,9.99999e-01,9.86036e-01,8.78848e-05,9.99900e-01
5.902184868e-01,1.03880e-04,9.99999e-01,9.99999e-01,9.83138e-01,1.05689e-04,9.99731e-01
5.931695792e-01,1.25094e-04,9.99999e-01,9.99999e-01,9.88059e-01,1.26639e-04,9.99741e-01
5.961354271e-01,1.49200e-04,9.99999e-01,9.99999e-01,9.86919e-01,1.51200e-04,9.99851e-01
5.991161043e-01,1.78166e-04,9.99999e-01,9.99999e-01,9.90445e-01,1.79893e-04,9.99953e-01
6.021116848e-01,2.12139e-04,9.99999e-01,9.99999e-01,9.94571e-01,2.13298e-04,9.99994e-01
6.051222432e-01,2.51364e-04,9.99999e-01,9.99999e-01,9.97250e-01,2.52057e-04,9.99999e-01
6.081478544e-01,2.96525e-04,9.99999e-01,9.99999e-01,9.98812e-01,2.96878e-04,9.99999e-01
6.111885937e-01,3.48365e-04,9.99999e-01,9.99999e-01,9.99497e-01,3.48540e-04,9.99999e-01
6.142445367e-01,4.07807e-04,9.99999e-01,9.99999e-01,9.99775e-01,4.07898e-04,9.99999e-01
6.173157594e-01,4.75826e-04,9.99999e-01,9.99999e-01,9.99875e-01,4.75885e-04,9.99999e-01
6.204023382e-01,5.53457e-04,9.99999e-01,9.99999e-01,9.99894e-01,5.53515e-04,9.99999e-01
6.235043498e-01,6.41591e-04,9.99999e-01,9.99999e-01,9.99534e-01,6.41890e-04,9.99998e-01
6.266218716e-01,7.40374e-04,9.99999e-01,9.99999e-01,9.97555e-01,7.42201e-04,9.99982e-01
6.297549810e-01,8.54932e-04,9.99999e-01,9.99999e-01,9.99102e-01,8.55729e-04,9.99965e-01
6.329037559e-01,9.82085e-04,9.99999e-01,9.99999e-01,9.98229e-01,9.83853e-04,9.99972e-01
6.360682746e-01,1.12633e-03,9.99999e-01,9.99999e-01,9.98489e-01,1.12805e-03,9.99983e-01
6.392486160e-01,1.28735e-03,9.99999e-01,9.99999e-01,9.98044e-01,1.28989e-03,9.99992e-01
6.424448591e-01,1.46716e-03,9.99999e-01,9.99999e-01,9.97374e-01,1.47104e-03,9.99986e-01
6.456570834e-01,1.65288e-03,9.99999e-01,9.99999e-01,9.87872e-01,1.67329e-03,9.99925e-01
6.488853688e-01,1.88136e-03,9.99999e-01,9.99999e-01,9.91151e-01,1.89851e-03,9.99811e-01
6.521297956e-01,2.12898e-03,9.99999e-01,9.99999e-01,9.90985e-01,2.14868e-03,9.99844e-01
6.553904446e-01,2.40375e-03,9.99999e-01,9.99999e-01,9.90997e-01,2.42587e-03,9.99883e-01
6.586673968e-01,2.71113e-03,9.99999e-01,9.99999e-01,9.92302e-01,2.73226e-03,9.99960e-01
6.619607338e-01,3.05692e-03,9.99999e-01,9.99999e-01,9.95702e-01,3.07013e-03,9.99991e-01
6.652705375e-01,3.43296e-03,9.99999e-01,9.99999e-01,9.97418e-01,3.44185e-03,9.99995e-01
6.685968902e-01,3.84565e-03,9.99999e-01,9.99999e-01,9.98902e-01,3.84988e-03,9.99998e-01
6.719398746e-01,4.29436e-03,9.99999e-01,9.99999e-01,9.99444e-01,4.29675e-03,9.99999e-01
6.752995740e-01,4.78366e-03,9.99999e-01,9.99999e-01,9.99698e-01,4.78510e-03,9.99999e-01
6.786760719e-01,5.31532e-03,9.99999e-01,9.99999e-01,9.99563e-01,5.31764e-03,9.99998e-01
6.820694522e-01,5.89272e-03,9.99999e-01,9.99999e-01,9.99253e-01,5.89715e-03,9.99995e-01
6.854797995e-01,6.52012e-03,9.99999e-01,9.99999e-01,9.99037e-01,6.52645e-03,9.99991e-01
6.889071985e-01,7.19143e-03,9.99999e-01,9.99999e-01,9.97656e-01,7.20847e-03,9.99978e-01
6.923517345e-01,7.64764e-03,9.99999e-01,9.99999e-01,9.62610e-01,7.94613e-03,9.99817e-01
6.958134932e-01,8.56911e-03,9.99999e-01,9.99999e-01,9.80568e-01,8.74244e-03,9.99596e-01
6.992925606e-01,9.41780e-03,9.99999e-01,9.99999e-01,9.81332e-01,9.60043e-03,9.99636e-01
7.027890234e-01,1.02790e-02,9.99999e-01,9.99999e-01,9.77072e-01,1.05231e-02,9.99722e-01
7.063029686e-01,1.12895e-02,9.99999e-01,9.99999e-01,9.80669e-01,1.15136e-02,9.99861e-01
7.098344834e-01,1.23406e-02,9.99999e-01,9.99999e-01,9.81441e-01,1.25750e-02,9.99917e-01
7.133836558e-01,1.33692e-02,9.99999e-01,9.99999e-01,9.75275e-01,1.37103e-02,9.99837e-01
7.169505741e-01,1.22290e-02,9.99999e-01,9.99999e-01,8.20538e-01,1.49227e-02,9.98722e-01
7.205353270e-01,1.46887e-02,9.99999e-01,9.99999e-01,9.07914e-01,1.62150e-02,9.97747e-01
7.241380036e-01,1.55121e-02,9.99999e-01,9.99999e-01,8.83566e-01,1.75904e-02,9.98054e-01
7.277586936e-01,1.70127e-02,9.99999e-01,9.99999e-01,8.94393e-01,1.90518e-02,9.98409e-01
7.313974871e-01,1.82793e-02,9.99999e-01,9.99999e-01,8.87913e-01,2.06021e-02,9.99254e-01
7.350544745e-01,2.08360e-02,9.99999e-01,9.99999e-01,9.36939e-01,2.22442e-02,9.99740e-01
7.387297469e-01,2.28537e-02,9.99999e-01,9.99999e-01,9.53117e-01,2.39807e-02,9.99880e-01
7.424233956e-01,2.52146e-02,9.99999e-01,9.99999e-01,9.76781e-01,2.58145e-02,9.99978e-01
7.461355126e-01,2.73555e-02,9.99999e-01,9.99999e-01,9.85853e-01,2.77481e-02,9.99995e-01
7.498661902e-01,2.95874e-02,9.99999e-01,9.99999e-01,9.93396e-01,2.97840e-02,9.99998e-01
7.536155211e-01,3.18210e-02,9.99999e-01,9.99999e-01,9.96751e-01,3.19247e-02,9.99998e-01
7.573835987e-01,3.41151e-02,9.99999e-01,9.99999e-01,9.98327e-01,3.41722e-02,9.99999e-01
7.611705167e-01,3.64910e-02,9.99999e-01,9.99999e-01,9.98960e-01,3.65289e-02,9.99999e-01
7.649763693e-01,3.89713e-02,9.99999e-01,9.99999e-01,9.99347e-01,3.89968e-02,9.99999e-01
7.688012511e-01,4.15587e-02,9.99999e-01,9.99999e-01,9.99545e-01,4.15776e-02,9.99999e-01
7.726452574e-01,4.42566e-02,9.99999e-01,9.99999e-01,9.99625e-01,4.42731e-02,9.99999e-01
7.765084837e-01,4.70598e-02,9.99999e-01,9.99999e-01,9.99466e-01,4.70850e-02,9.99998e-01
7.803910261e-01,4.45427e-02,9.99999e-01,8.92452e-01,9.97696e-01,5.00145e-02,9.99997e-01
7.842929812e-01,2.96715e-02,9.99999e-01,5.63038e-01,9.91980e-01,5.30630e-02,9.99984e-01
7.882144461e-01,3.02824e-02,9.99999e-01,5.46464e-01,9.83598e-01,5.62316e-02,9.99886e-01
7.921555184e-01,4.03968e-02,9.99999e-01,6.84483e-01,9.90996e-01,5.95212e-02,9.99802e-01
7.961162960e-01,4.79024e-02,9.99999e-01,7.73209e-01,9.84069e-01,6.29325e-02,9.99812e-01
8.000968774e-01,5.67324e-02,9.99999e-01,8.69505e-01,9.81644e-01,6.64661e-02,9.99800e-01
8.040973618e-01,6.40203e-02,9.99999e-01,9.30065e-01,9.81635e-01,7.01224e-02,9.99847e-01
8.081178486e-01,6.85557e-02,9.99999e-01,9.67159e-01,9.59083e-01,7.39016e-02,9.99845e-01
8.121584379e-01,6.47877e-02,9.99999e-01,9.89783e-01,8.41455e-01,7.78038e-02,9.99416e-01
8.162192301e-01,6.64746e-02,9.99999e-01,9.97734e-01,8.15859e-01,8.18288e-02,9.97808e-01
8.203003262e-01,7.76070e-02,9.99999e-01,9.99967e-01,9.04995e-01,8.59763e-02,9.97434e-01
8.244018279e-01,7.85592e-02,9.99999e-01,9.99999e-01,8.72281e-01,9.02459e-02,9.97957e-01
8.285238370e-01,8.35897e-02,9.99999e-01,9.99999e-01,8.84686e-01,9.46369e-02,9.98395e-01
8.326664562e-01,8.75815e-02,9.99999e-01,9.99999e-01,8.83923e-01,9.91484e-02,9.99335e-01
8.368297885e-01,9.49637e-02,9.99999e-01,9.99999e-01,9.15190e-01,1.03780e-01,9.99847e-01
8.410139374e-01,1.02946e-01,9.99999e-01,9.99999e-01,9.48641e-01,1.08529e-01,9.99910e-01
8.452190071e-01,1.10494e-01,9.99999e-01,9.99999e-01,9.74464e-01,1.13396e-01,9.99946e-01
8.494451021e-01,1.16606e-01,9.99999e-01,9.99999e-01,9.85076e-01,1.18378e-01,9.99957e-01
8.536923276e-01,1.22380e-01,9.99999e-01,9.99999e-01,9.91161e-01,1.23474e-01,9.99973e-01
8.579607893e-01,1.27979e-01,9.99999e-01,9.99999e-01,9.94541e-01,1.28682e-01,9.99993e-01
8.622505932e-01,1.33536e-01,9.99999e-01,9.99999e-01,9.96532e-01,1.34001e-01,9.99998e-01
8.665618462e-01,1.18451e-01,9.99999e-01,8.51244e-01,9.97850e-01,1.39428e-01,9.99998e-01
8.708946554e-01,3.56803e-02,9.99999e-01,2.46682e-01,9.97537e-01,1.44961e-01,9.99998e-01
8.752491287e-01,4.60604e-02,9.99999e-01,3.06777e-01,9.96707e-01,1.50598e-01,9.99996e-01
8.796253743e-01,7.98088e-02,9.99999e-01,5.12608e-01,9.95437e-01,1.56336e-01,9.99989e-01
8.840235012e-01,1.13089e-01,9.99999e-01,7.00798e-01,9.94792e-01,1.62173e-01,9.99967e-01
8.884436187e-01,1.43284e-01,9.99999e-01,8.68214e-01,9.81091e-01,1.68106e-01,9.99909e-01
8.928858368e-01,1.35118e-01,9.99999e-01,9.44112e-01,8.20653e-01,1.74132e-01,9.99479e-01
8.973502660e-01,1.25532e-01,9.99999e-01,9.86158e-01,7.07329e-01,1.80250e-01,9.97334e-01
9.018370173e-01,1.55475e-01,9.99999e-01,9.98466e-01,8.38495e-01,1.86454e-01,9.95813e-01
9.063462024e-01,1.58636e-01,9.99999e-01,9.61826e-01,8.54865e-01,1.92744e-01,9.96320e-01
9.108779334e-01,1.42569e-01,9.99999e-01,9.13391e-01,7.83699e-01,1.99115e-01,9.96177e-01
9.154323231e-01,1.52198e-01,9.99999e-01,9.79032e-01,7.57360e-01,2.05565e-01,9.96839e-01
9.200094847e-01,1.36328e-01,9.99999e-01,7.73057e-01,8.05319e-01,2.12090e-01,9.98229e-01
9.246095321e-01,1.03658e-01,9.99999e-01,6.44205e-01,7.21229e-01,2.18687e-01,9.97960e-01
9.292325798e-01,2.36438e-02,9.99999e-01,7.13619e-01,1.36487e-01,2.25352e-01,9.92070e-01
9.338787427e-01,1.30276e-02,9.99999e-01,7.18641e-01,7.48842e-02,2.32084e-01,9.67625e-01
9.385481364e-01,6.48538e-02,9.99999e-01,7.82254e-01,3.47208e-01,2.38877e-01,9.61614e-01
9.432408771e-01,5.09797e-02,9.99999e-01,8.59530e-01,2.44081e-01,2.45730e-01,9.66795e-01
9.479570815e-01,3.21523e-02,9.99999e-01,9.25101e-01,1.39796e-01,2.52637e-01,9.72891e-01
9.526968669e-01,5.36877e-02,9.99999e-01,9.63240e-01,2.16587e-01,2.59597e-01,9.83376e-01
9.574603512e-01,6.04063e-02,9.99999e-01,9.84095e-01,2.31435e-01,2.66605e-01,9.91521e-01
9.622476530e-01,8.03750e-02,9.99999e-01,9.95012e-01,2.96624e-01,2.73659e-01,9.94129e-01
9.670588912e-01,1.37297e-01,9.99999e-01,9.98504e-01,4.91606e-01,2.80754e-01,9.95981e-01
9.718941857e-01,1.81203e-01,9.99999e-01,9.99895e-01,6.31342e-01,2.87887e-01,9.97039e-01
9.767536566e-01,2.00786e-01,9.99999e-01,9.99999e-01,6.82044e-01,2.95056e-01,9.97737e-01
9.816374249e-01,2.27070e-01,9.99999e-01,9.99999e-01,7.51840e-01,3.02256e-01,9.99216e-01
9.865456120e-01,2.58739e-01,9.99999e-01,9.99999e-01,8.36168e-01,3.09484e-01,9.99836e-01
9.914783401e-01,2.83460e-01,9.99999e-01,9.99999e-01,8.94975e-01,3.16738e-01,9.99954e-01
9.964357318e-01,3.05003e-01,9.99999e-01,9.99999e-01,9.41354e-01,3.24013e-01,9.99973e-01
1.001417910e+00,3.19501e-01,9.99999e-01,9.99999e-01,9.64405e-01,3.31307e-01,9.99959e-01
1.006425000e+00,3.31664e-01,9.99999e-01,9.99999e-01,9.79527e-01,3.38615e-01,9.99941e-01
1.011457125e+00,3.41511e-01,9.99999e-01,9.99999e-01,9.87259e-01,3.45936e-01,9.99946e-01
1.016514411e+00,3.50189e-01,9.99999e-01,9.99999e-01,9.91327e-01,3.53266e-01,9.99961e-01
1.021596983e+00,3.58015e-01,9.99999e-01,9.99775e-01,9.93081e-01,3.60602e-01,9.99962e-01
1.026704968e+00,3.60329e-01,9.99999e-01,9.84626e-01,9.94599e-01,3.67941e-01,9.99976e-01
1.031838492e+00,3.30917e-01,9.99999e-01,8.85046e-01,9.96075e-01,3.75280e-01,9.99992e-01
1.036997685e+00,1.39326e-02,9.99999e-01,3.64779e-02,9.97665e-01,3.82615e-01,9.99998e-01
1.042182673e+00,3.79263e-04,9.99999e-01,9.74599e-04,9.97212e-01,3.89945e-01,9.99999e-01
1.047393587e+00,1.09891e-03,9.99999e-01,2.77454e-03,9.96308e-01,3.97267e-01,9.99998e-01
1.052630555e+00,1.39860e-08,9.99999e-01,3.46781e-08,9.94934e-01,4.04577e-01,9.99998e-01
1.057893707e+00,5.28630e-08,9.99999e-01,1.28879e-07,9.91552e-01,4.11874e-01,9.99996e-01
1.063183176e+00,3.82732e-06,9.99999e-01,9.20090e-06,9.86145e-01,4.19154e-01,9.99992e-01
1.068499092e+00,5.80528e-05,9.99999e-01,1.38061e-04,9.76926e-01,4.26415e-01,9.99983e-01
1.073841587e+00,1.31109e-03,9.99999e-01,3.07990e-03,9.73064e-01,4.33655e-01,9.99965e-01
1.079210795e+00,1.16367e-02,9.99999e-01,2.70967e-02,9.65628e-01,4.40871e-01,9.99906e-01
1.084606849e+00,5.39842e-02,9.99999e-01,1.26063e-01,9.48452e-01,4.48061e-01,9.99775e-01
1.090029883e+00,1.43050e-01,9.99999e-01,3.36619e-01,9.26815e-01,4.55223e-01,9.99534e-01
1.095480033e+00,2.20967e-01,9.99999e-01,5.83084e-01,8.13313e-01,4.62355e-01,9.99159e-01
1.100957433e+00,2.17264e-01,9.99999e-01,7.69555e-01,5.95960e-01,4.69454e-01,9.98453e-01
1.106462220e+00,1.23239e-01,9.99999e-01,8.97150e-01,2.85367e-01,4.76518e-01,9.97377e-01
1.111994531e+00,3.61245e-02,9.99999e-01,9.60496e-01,7.76591e-02,4.83547e-01,9.93054e-01
1.117554504e+00,9.05025e-03,9.99999e-01,9.90230e-01,1.90188e-02,4.90537e-01,9.75151e-01
1.123142276e+00,3.20368e-02,9.99999e-01,9.99357e-01,6.83608e-02,4.97487e-01,9.42075e-01
1.128757988e+00,7.01287e-02,9.99999e-01,9.99999e-01,1.48971e-01,5.04395e-01,9.33300e-01
1.134401778e+00,3.23814e-02,9.99999e-01,9.99999e-01,6.71651e-02,5.11260e-01,9.42994e-01
1.140073787e+00,1.49144e-01,9.99999e-01,9.99999e-01,3.01699e-01,5.18080e-01,9.54185e-01
1.145774156e+00,5.05803e-02,9.99999e-01,9.99999e-01,1.00597e-01,5.24854e-01,9.57981e-01
1.151503026e+00,4.07006e-02,9.99999e-01,9.99999e-01,7.84183e-02,5.31579e-01,9.76369e-01
1.157260541e+00,5.31792e-02,9.99999e-01,9.99999e-01,9.95079e-02,5.38256e-01,9.92875e-01
1.163046844e+00,9.71320e-02,9.99999e-01,9.99999e-01,1.78624e-01,5.44882e-01,9.97975e-01
1.168862078e+00,1.59429e-01,9.99999e-01,9.99999e-01,2.89407e-01,5.51456e-01,9.98956e-01
1.174706389e+00,2.58259e-01,9.99999e-01,9.99999e-01,4.63488e-01,5.57978e-01,9.98616e-01
1.180579921e+00,3.51407e-01,9.99999e-01,9.99999e-01,6.23874e-01,5.64445e-01,9.97909e-01
1.186482820e+00,4.35149e-01,9.99999e-01,9.99968e-01,7.63928e-01,5.70858e-01,9.97854e-01
1.192415234e+00,4.67959e-01,9.99999e-01,9.48613e-01,8.54027e-01,5.77214e-01,9.98392e-01
1.198377311e+00,2.59792e-01,9.99999e-01,4.97954e-01,8.75464e-01,5.83514e-01,9.98481e-01
1.204369197e+00,2.92924e-39,9.99999e-01,5.34949e-39,8.82231e-01,5.89756e-01,9.98625e-01
1.210391043e+00,3.71855e-161,9.99999e-01,6.67751e-161,8.86814e-01,5.95939e-01,9.99163e-01
1.216442998e+00,2.35390e-139,9.99999e-01,4.16796e-139,9.02946e-01,6.02064e-01,9.99487e-01
1.222525213e+00,3.03782e-137,9.99999e-01,5.20664e-137,9.23405e-01,6.08128e-01,9.99681e-01
1.228637839e+00,1.01122e-105,9.99999e-01,1.70930e-105,9.46128e-01,6.14132e-01,9.99851e-01
