#,Wave/freq,Total,N2,CO2,H2O,Rayleigh,CIA
4.000000000e-01,3.66776e-09,9.99999e-01,9.99999e-01,9.99962e-01,3.66789e-09,9.99999e-01
4.020000000e-01,5.38516e-09,9.99999e-01,9.99999e-01,9.99976e-01,5.38528e-09,9.99999e-01
4.040100000e-01,7.84393e-09,9.99999e-01,9.99999e-01,9.99989e-01,7.84400e-09,9.99999e-01
4.060300500e-01,1.13407e-08,9.99999e-01,9.99999e-01,9.99997e-01,1.13407e-08,9.99999e-01
4.080602003e-01,1.62772e-08,9.99999e-01,9.99999e-01,9.99998e-01,1.62773e-08,9.99999e-01
4.101005013e-01,2.31965e-08,9.99999e-01,9.99999e-01,9.99999e-01,2.31965e-08,9.99999e-01
4.121510038e-01,3.28264e-08,9.99999e-01,9.99999e-01,9.99998e-01,3.28264e-08,9.99999e-01
4.142117588e-01,4.61362e-08,9.99999e-01,9.99999e-01,9.99989e-01,4.61367e-08,9.99999e-01
4.162828176e-01,6.44065e-08,9.99999e-01,9.99999e-01,9.99953e-01,6.44095e-08,9.99999e-01
4.183642317e-01,8.93263e-08,9.99999e-01,9.99999e-01,9.99972e-01,8.93287e-08,9.99999e-01
4.204560528e-01,1.23089e-07,9.99999e-01,9.99999e-01,9.99982e-01,1.23091e-07,9.99999e-01
4.225583331e-01,1.68542e-07,9.99999e-01,9.99999e-01,9.99993e-01,1.68543e-07,9.99999e-01
4.246711247e-01,2.29350e-07,9.99999e-01,9.99999e-01,9.99994e-01,2.29351e-07,9.99999e-01
4.267944804e-01,3.10202e-07,9.99999e-01,9.99999e-01,9.99992e-01,3.10204e-07,9.99999e-01
4.289284528e-01,4.17062e-07,9.99999e-01,9.99999e-01,9.99993e-01,4.17065e-07,9.99999e-01
4.310730950e-01,5.57467e-07,9.99999e-01,9.99999e-01,9.99997e-01,5.57468e-07,9.99999e-01
4.332284605e-01,7.40880e-07,9.99999e-01,9.99999e-01,9.99998e-01,7.40880e-07,9.99999e-01
4.353946028e-01,9.79119e-07,9.99999e-01,9.99999e-01,9.99999e-01,9.79119e-07,9.99999e-01
4.375715758e-01,1.28685e-06,9.99999e-01,9.99999e-01,9.99994e-01,1.28686e-06,9.99999e-01
4.397594337e-01,1.68215e-06,9.99999e-01,9.99999e-01,9.99958e-01,1.68222e-06,9.99999e-01
4.419582309e-01,2.18698e-06,9.99999e-01,9.99999e-01,9.99790e-01,2.18744e-06,9.99999e-01
4.441680220e-01,2.82922e-06,9.99999e-01,9.99999e-01,9.99839e-01,2.82967e-06,9.99999e-01
4.463888621e-01,3.64129e-06,9.99999e-01,9.99999e-01,9.99831e-01,3.64190e-06,9.99999e-01
4.486208064e-01,4.66348e-06,9.99999e-01,9.99999e-01,9.99895e-01,4.66397e-06,9.99999e-01
4.508639105e-01,5.94346e-06,9.99999e-01,9.99999e-01,9.99950e-01,5.94375e-06,9.99999e-01
4.531182300e-01,7.53837e-06,9.99999e-01,9.99999e-01,9.99980e-01,7.53852e-06,9.99999e-01
4.553838212e-01,9.51627e-06,9.99999e-01,9.99999e-01,9.99986e-01,9.51639e-06,9.99999e-01
4.576607403e-01,1.19580e-05,9.99999e-01,9.99999e-01,9.99993e-01,1.19580e-05,9.99999e-01
4.599490440e-01,1.49584e-05,9.99999e-01,9.99999e-01,9.99995e-01,1.49585e-05,9.99999e-01
4.622487892e-01,1.86293e-05,9.99999e-01,9.99999e-01,9.99998e-01,1.86293e-05,9.99999e-01
4.645600332e-01,2.31004e-05,9.99999e-01,9.99999e-01,9.99996e-01,2.31005e-05,9.99999e-01
4.668828333e-01,2.85220e-05,9.99999e-01,9.99999e-01,9.99950e-01,2.85234e-05,9.99999e-01
4.692172475e-01,3.50693e-05,9.99999e-01,9.99999e-01,9.99894e-01,3.50730e-05,9.99999e-01
4.715633337e-01,4.29478e-05,9.99999e-01,9.99999e-01,9.99930e-01,4.29507e-05,9.99999e-01
4.739211504e-01,5.23843e-05,9.99999e-01,9.99999e-01,9.99933e-01,5.23878e-05,9.99999e-01
4.762907561e-01,6.36460e-05,9.99999e-01,9.99999e-01,9.99965e-01,6.36481e-05,9.99999e-01
4.786722099e-01,7.70310e-05,9.99999e-01,9.99999e-01,9.99985e-01,7.70320e-05,9.99999e-01
4.810655710e-01,9.28791e-05,9.99999e-01,9.99999e-01,9.99995e-01,9.28795e-05,9.99999e-01
4.834708988e-01,1.11570e-04,9.99999e-01,9.99999e-01,9.99958e-01,1.11574e-04,9.99999e-01
4.858882533e-01,1.33537e-04,9.99999e-01,9.99999e-01,9.99925e-01,1.33547e-04,9.99999e-01
4.883176946e-01,1.59270e-04,9.99999e-01,9.99999e-01,9.99937e-01,1.59280e-04,9.99999e-01
4.907592831e-01,1.89302e-04,9.99999e-01,9.99999e-01,9.99943e-01,1.89312e-04,9.99999e-01
4.932130795e-01,2.24231e-04,9.99999e-01,9.99999e-01,9.99959e-01,2.24240e-04,9.99999e-01
4.956791449e-01,2.64720e-04,9.99999e-01,9.99999e-01,9.99978e-01,2.64726e-04,9.99999e-01
4.981575406e-01,3.11465e-04,9.99999e-01,9.99999e-01,9.99893e-01,3.11498e-04,9.99999e-01
5.006483283e-01,3.65256e-04,9.99999e-01,9.99999e-01,9.99723e-01,3.65357e-04,9.99997e-01
5.031515699e-01,4.26581e-04,9.99999e-01,9.99999e-01,9.98608e-01,4.27182e-04,9.99984e-01
5.056673278e-01,4.97555e-04,9.99999e-01,9.99999e-01,9.99267e-01,4.97928e-04,9.99982e-01
5.081956644e-01,5.78096e-04,9.99999e-01,9.99999e-01,9.99076e-01,5.78636e-04,9.99989e-01
5.107366428e-01,6.70015e-04,9.99999e-01,9.99999e-01,9.99376e-01,6.70434e-04,9.99997e-01
5.132903260e-01,7.74263e-04,9.99999e-01,9.99999e-01,9.99643e-01,7.74539e-04,9.99999e-01
5.158567776e-01,8.92128e-04,9.99999e-01,9.99999e-01,9.99849e-01,8.92262e-04,9.99999e-01
5.184360615e-01,1.02495e-03,9.99999e-01,9.99999e-01,9.99939e-01,1.02501e-03,9.99999e-01
5.210282418e-01,1.17426e-03,9.99999e-01,9.99999e-01,9.99976e-01,1.17428e-03,9.99999e-01
5.236333830e-01,1.34157e-03,9.99999e-01,9.99999e-01,9.99908e-01,1.34169e-03,9.99998e-01
5.262515499e-01,1.52885e-03,9.99999e-01,9.99999e-01,9.99942e-01,1.52893e-03,9.99998e-01
5.288828077e-01,1.73772e-03,9.99999e-01,9.99999e-01,9.99947e-01,1.73782e-03,9.99998e-01
5.315272217e-01,1.97016e-03,9.99999e-01,9.99999e-01,9.99954e-01,1.97025e-03,9.99999e-01
5.341848578e-01,2.22817e-03,9.99999e-01,9.99999e-01,9.99969e-01,2.22823e-03,9.99999e-01
5.368557821e-01,2.51361e-03,9.99999e-01,9.99999e-01,9.99893e-01,2.51388e-03,9.99999e-01
5.395400610e-01,2.82830e-03,9.99999e-01,9.99999e-01,9.99615e-01,2.82940e-03,9.99995e-01
5.422377613e-01,3.17550e-03,9.99999e-01,9.99999e-01,9.99509e-01,3.17709e-03,9.99990e-01
5.449489501e-01,3.55768e-03,9.99999e-01,9.99999e-01,9.99540e-01,3.55935e-03,9.99990e-01
5.476736949e-01,3.97704e-03,9.99999e-01,9.99999e-01,9.99595e-01,3.97866e-03,9.99994e-01
5.504120634e-01,4.43630e-03,9.99999e-01,9.99999e-01,9.99706e-01,4.43760e-03,9.99998e-01
5.531641237e-01,4.93809e-03,9.99999e-01,9.99999e-01,9.99852e-01,4.93882e-03,9.99999e-01
5.559299443e-01,5.48465e-03,9.99999e-01,9.99999e-01,9.99928e-01,5.48504e-03,9.99999e-01
5.587095940e-01,6.07879e-03,9.99999e-01,9.99999e-01,9.99954e-01,6.07906e-03,9.99999e-01
5.615031420e-01,6.72341e-03,9.99999e-01,9.99999e-01,9.99949e-01,6.72375e-03,9.99999e-01
5.643106577e-01,7.42158e-03,9.99999e-01,9.99999e-01,9.99942e-01,7.42201e-03,9.99999e-01
5.671322110e-01,8.17105e-03,9.99999e-01,9.99999e-01,9.99302e-01,8.17681e-03,9.99993e-01
5.699678720e-01,8.98446e-03,9.99999e-01,9.99999e-01,9.99274e-01,8.99115e-03,9.99980e-01
5.728177114e-01,9.86040e-03,9.99999e-01,9.99999e-01,9.99237e-01,9.86808e-03,9.99983e-01
5.756818000e-01,1.08030e-02,9.99999e-01,9.99999e-01,9.99301e-01,1.08106e-02,9.99990e-01
5.785602090e-01,1.18147e-02,9.99999e-01,9.99999e-01,9.99391e-01,1.18219e-02,9.99996e-01
5.814530100e-01,1.28971e-02,9.99999e-01,9.99999e-01,9.99388e-01,1.29050e-02,9.99998e-01
5.843602750e-01,1.40525e-02,9.99999e-01,9.99999e-01,9.99266e-01,1.40629e-02,9.99995e-01
5.872820764e-01,1.52016e-02,9.99999e-01,9.99999e-01,9.93697e-01,1.52987e-02,9.99955e-01
5.902184868e-01,1.64875e-02,9.99999e-01,9.99999e-01,9.92419e-01,1.66154e-02,9.99879e-01
5.931695792e-01,1.79173e-02,9.99999e-01,9.99999e-01,9.94628e-01,1.80161e-02,9.99883e-01
5.961354271e-01,1.93878e-02,9.99999e-01,9.99999e-01,9.94122e-01,1.95037e-02,9.99933e-01
5.991161043e-01,2.09902e-02,9.99999e-01,9.99999e-01,9.95714e-01,2.10810e-02,9.99978e-01
6.021116848e-01,2.26955e-02,9.99999e-01,9.99999e-01,9.97568e-01,2.27509e-02,9.99997e-01
6.051222432e-01,2.44859e-02,9.99999e-01,9.99999e-01,9.98769e-01,2.45161e-02,9.99999e-01
6.081478544e-01,2.63653e-02,9.99999e-01,9.99999e-01,9.99468e-01,2.63793e-02,9.99999e-01
6.111885937e-01,2.83368e-02,9.99999e-01,9.99999e-01,9.99775e-01,2.83431e-02,9.99999e-01
6.142445367e-01,3.04069e-02,9.99999e-01,9.99999e-01,9.99899e-01,3.04099e-02,9.99999e-01
6.173157594e-01,3.25803e-02,9.99999e-01,9.99999e-01,9.99944e-01,3.25821e-02,9.99999e-01
6.204023382e-01,3.48603e-02,9.99999e-01,9.99999e-01,9.99952e-01,3.48620e-02,9.99999e-01
6.235043498e-01,3.72437e-02,9.99999e-01,9.99999e-01,9.99789e-01,3.72515e-02,9.99998e-01
6.266218716e-01,3.97090e-02,9.99999e-01,9.99999e-01,9.98904e-01,3.97528e-02,9.99991e-01
6.297549810e-01,4.23499e-02,9.99999e-01,9.99999e-01,9.99597e-01,4.23676e-02,9.99984e-01
6.329037559e-01,4.50613e-02,9.99999e-01,9.99999e-01,9.99207e-01,4.50976e-02,9.99987e-01
6.360682746e-01,4.79115e-02,9.99999e-01,9.99999e-01,9.99322e-01,4.79443e-02,9.99992e-01
6.392486160e-01,5.08644e-02,9.99999e-01,9.99999e-01,9.99123e-01,5.09091e-02,9.99996e-01
6.424448591e-01,5.39292e-02,9.99999e-01,9.99999e-01,9.98819e-01,5.39933e-02,9.99993e-01
6.456570834e-01,5.68831e-02,9.99999e-01,9.99999e-01,9.94531e-01,5.71978e-02,9.99966e-01
6.488853688e-01,6.02781e-02,9.99999e-01,9.99999e-01,9.96029e-01,6.05235e-02,9.99915e-01
6.521297956e-01,6.37079e-02,9.99999e-01,9.99999e-01,9.95953e-01,6.39711e-02,9.99929e-01
6.553904446e-01,6.72646e-02,9.99999e-01,9.99999e-01,9.95956e-01,6.75412e-02,9.99947e-01
6.586673968e-01,7.09870e-02,9.99999e-01,9.99999e-01,9.96548e-01,7.12340e-02,9.99982e-01
6.619607338e-01,7.49052e-02,9.99999e-01,9.99999e-01,9.98075e-01,7.50498e-02,9.99995e-01
6.652705375e-01,7.88972e-02,9.99999e-01,9.99999e-01,9.98844e-01,7.89886e-02,9.99997e-01
6.685968902e-01,8.30094e-02,9.99999e-01,9.99999e-01,9.99509e-01,8.30501e-02,9.99999e-01
6.719398746e-01,8.72124e-02,9.99999e-01,9.99999e-01,9.99751e-01,8.72340e-02,9.99999e-01
6.752995740e-01,9.15278e-02,9.99999e-01,9.99999e-01,9.99868e-01,9.15398e-02,9.99999e-01
6.786760719e-01,9.59479e-02,9.99999e-01,9.99999e-01,9.99803e-01,9.59667e-02,9.99999e-01
6.820694522e-01,1.00480e-01,9.99999e-01,9.99999e-01,9.99665e-01,1.00514e-01,9.99997e-01
6.854797995e-01,1.05135e-01,9.99999e-01,9.99999e-01,9.99568e-01,1.05180e-01,9.99995e-01
6.889071985e-01,1.09848e-01,9.99999e-01,9.99999e-01,9.98942e-01,1.09965e-01,9.99990e-01
6.923517345e-01,1.12904e-01,9.99999e-01,9.99999e-01,9.83001e-01,1.14866e-01,9.99917e-01
6.958134932e-01,1.18815e-01,9.99999e-01,9.99999e-01,9.91275e-01,1.19882e-01,9.99818e-01
6.992925606e-01,1.23938e-01,9.99999e-01,9.99999e-01,9.91569e-01,1.25012e-01,9.99836e-01
7.027890234e-01,1.28892e-01,9.99999e-01,9.99999e-01,9.89665e-01,1.30254e-01,9.99875e-01
7.063029686e-01,1.34416e-01,9.99999e-01,9.99999e-01,9.91298e-01,1.35605e-01,9.99937e-01
7.098344834e-01,1.39880e-01,9.99999e-01,9.99999e-01,9.91649e-01,1.41063e-01,9.99962e-01
7.133836558e-01,1.44972e-01,9.99999e-01,9.99999e-01,9.88780e-01,1.46628e-01,9.99926e-01
7.169505741e-01,1.39094e-01,9.99999e-01,9.99999e-01,9.13841e-01,1.52295e-01,9.99427e-01
7.205353270e-01,1.51184e-01,9.99999e-01,9.99999e-01,9.57450e-01,1.58062e-01,9.98990e-01
7.241380036e-01,1.54870e-01,9.99999e-01,9.99999e-01,9.45565e-01,1.63928e-01,9.99128e-01
7.277586936e-01,1.61414e-01,9.99999e-01,9.99999e-01,9.50790e-01,1.69889e-01,9.99287e-01
7.313974871e-01,1.66733e-01,9.99999e-01,9.99999e-01,9.47970e-01,1.75943e-01,9.99665e-01
7.350544745e-01,1.76820e-01,9.99999e-01,9.99999e-01,9.71189e-01,1.82087e-01,9.99883e-01
7.387297469e-01,1.84301e-01,9.99999e-01,9.99999e-01,9.78725e-01,1.88317e-01,9.99946e-01
7.424233956e-01,1.92596e-01,9.99999e-01,9.99999e-01,9.89553e-01,1.94631e-01,9.99990e-01
7.461355126e-01,1.99749e-01,9.99999e-01,9.99999e-01,9.93649e-01,2.01026e-01,9.99997e-01
7.498661902e-01,2.06885e-01,9.99999e-01,9.99999e-01,9.97045e-01,2.07498e-01,9.99998e-01
7.536155211e-01,2.13734e-01,9.99999e-01,9.99999e-01,9.98546e-01,2.14045e-01,9.99999e-01
7.573835987e-01,2.20498e-01,9.99999e-01,9.99999e-01,9.99251e-01,2.20663e-01,9.99999e-01
7.611705167e-01,2.27243e-01,9.99999e-01,9.99999e-01,9.99534e-01,2.27349e-01,9.99999e-01
7.649763693e-01,2.34031e-01,9.99999e-01,9.99999e-01,9.99707e-01,2.34099e-01,9.99999e-01
7.688012511e-01,2.40861e-01,9.99999e-01,9.99999e-01,9.99796e-01,2.40910e-01,9.99999e-01
7.726452574e-01,2.47738e-01,9.99999e-01,9.99999e-01,9.99832e-01,2.47779e-01,9.99999e-01
7.765084837e-01,2.54642e-01,9.99999e-01,9.99999e-01,9.99760e-01,2.54703e-01,9.99999e-01
7.803910261e-01,2.46019e-01,9.99999e-01,9.41084e-01,9.98964e-01,2.61677e-01,9.99998e-01
7.842929812e-01,2.04315e-01,9.99999e-01,7.62924e-01,9.96388e-01,2.68699e-01,9.99992e-01
7.882144461e-01,2.04986e-01,9.99999e-01,7.48524e-01,9.92620e-01,2.75766e-01,9.99948e-01
7.921555184e-01,2.37015e-01,9.99999e-01,8.41213e-01,9.95964e-01,2.82873e-01,9.99911e-01
7.961162960e-01,2.56512e-01,9.99999e-01,8.90849e-01,9.92812e-01,2.90017e-01,9.99915e-01
8.000968774e-01,2.76791e-01,9.99999e-01,9.39145e-01,9.91738e-01,2.97195e-01,9.99910e-01
8.040973618e-01,2.92240e-01,9.99999e-01,9.68084e-01,9.91727e-01,3.04404e-01,9.99931e-01
8.081178486e-01,3.01289e-01,9.99999e-01,9.85167e-01,9.81361e-01,3.11640e-01,9.99930e-01
8.121584379e-01,2.93508e-01,9.99999e-01,9.95433e-01,9.24761e-01,3.18900e-01,9.99738e-01
8.162192301e-01,2.96908e-01,9.99999e-01,9.98989e-01,9.12038e-01,3.26181e-01,9.99017e-01
8.203003262e-01,3.18048e-01,9.99999e-01,9.99985e-01,9.54831e-01,3.33480e-01,9.98850e-01
8.244018279e-01,3.19638e-01,9.99999e-01,9.99999e-01,9.38782e-01,3.40793e-01,9.99084e-01
8.285238370e-01,3.29157e-01,9.99999e-01,9.99999e-01,9.46216e-01,3.48116e-01,9.99281e-01
8.326664562e-01,3.36100e-01,9.99999e-01,9.99999e-01,9.45846e-01,3.55448e-01,9.99702e-01
8.368297885e-01,3.48621e-01,9.99999e-01,9.99999e-01,9.61022e-01,3.62785e-01,9.99931e-01
8.410139374e-01,3.61473e-01,9.99999e-01,9.99999e-01,9.76662e-01,3.70125e-01,9.99959e-01
8.452190071e-01,3.73113e-01,9.99999e-01,9.99999e-01,9.88500e-01,3.77463e-01,9.99975e-01
8.494451021e-01,3.82209e-01,9.99999e-01,9.99999e-01,9.93293e-01,3.84797e-01,9.99980e-01
8.536923276e-01,3.90568e-01,9.99999e-01,9.99999e-01,9.96039e-01,3.92125e-01,9.99987e-01
8.579607893e-01,3.98466e-01,9.99999e-01,9.99999e-01,9.97553e-01,3.99444e-01,9.99996e-01
8.622505932e-01,4.06119e-01,9.99999e-01,9.99999e-01,9.98448e-01,4.06750e-01,9.99999e-01
8.665618462e-01,3.69601e-01,9.99999e-01,8.93478e-01,9.99037e-01,4.14042e-01,9.99999e-01
8.708946554e-01,2.13347e-01,9.99999e-01,5.06909e-01,9.98895e-01,4.21317e-01,9.99998e-01
8.752491287e-01,2.45953e-01,9.99999e-01,5.74698e-01,9.98524e-01,4.28572e-01,9.99997e-01
8.796253743e-01,3.19723e-01,9.99999e-01,7.35069e-01,9.97951e-01,4.35805e-01,9.99994e-01
8.840235012e-01,3.76327e-01,9.99999e-01,8.51420e-01,9.97661e-01,4.43013e-01,9.99985e-01
8.884436187e-01,4.18978e-01,9.99999e-01,9.38643e-01,9.91381e-01,4.50195e-01,9.99959e-01
8.928858368e-01,4.07394e-01,9.99999e-01,9.74605e-01,9.13822e-01,4.57348e-01,9.99766e-01
8.973502660e-01,3.93740e-01,9.99999e-01,9.93802e-01,8.53830e-01,4.64471e-01,9.98805e-01
9.018370173e-01,4.34150e-01,9.99999e-01,9.99316e-01,9.22993e-01,4.71560e-01,9.98122e-01
9.063462024e-01,4.37372e-01,9.99999e-01,9.82227e-01,9.30965e-01,4.78614e-01,9.98350e-01
9.108779334e-01,4.16922e-01,9.99999e-01,9.60168e-01,8.94871e-01,4.85631e-01,9.98286e-01
9.154323231e-01,4.29698e-01,9.99999e-01,9.90585e-01,8.81510e-01,4.92609e-01,9.98583e-01
9.200094847e-01,3.99364e-01,9.99999e-01,8.75259e-01,9.06223e-01,4.99547e-01,9.99206e-01
9.246095321e-01,3.57603e-01,9.99999e-01,8.19840e-01,8.56979e-01,5.06442e-01,9.99085e-01
9.292325798e-01,1.65162e-01,9.99999e-01,8.55747e-01,3.68210e-01,5.13294e-01,9.95596e-01
9.338787427e-01,1.26068e-01,9.99999e-01,8.60580e-01,2.79541e-01,5.20100e-01,9.84174e-01
9.385481364e-01,2.79361e-01,9.99999e-01,8.95164e-01,5.96596e-01,5.26860e-01,9.82626e-01
9.432408771e-01,2.42919e-01,9.99999e-01,9.34449e-01,4.91666e-01,5.33571e-01,9.84993e-01
9.479570815e-01,1.95684e-01,9.99999e-01,9.65746e-01,3.78570e-01,5.40233e-01,9.87769e-01
9.526968669e-01,2.55384e-01,9.99999e-01,9.83372e-01,4.77409e-01,5.46844e-01,9.92522e-01
9.574603512e-01,2.73199e-01,9.99999e-01,9.92859e-01,4.98718e-01,5.53402e-01,9.96194e-01
9.622476530e-01,3.15352e-01,9.99999e-01,9.97769e-01,5.65841e-01,5.59908e-01,9.97366e-01
9.670588912e-01,4.06176e-01,9.99999e-01,9.99332e-01,7.18901e-01,5.66359e-01,9.98198e-01
9.718941857e-01,4.64236e-01,9.99999e-01,9.99953e-01,8.11639e-01,5.72755e-01,9.98673e-01
9.767536566e-01,4.86409e-01,9.99999e-01,9.99999e-01,8.40798e-01,5.79095e-01,9.98985e-01
9.816374249e-01,5.14621e-01,9.99999e-01,9.99999e-01,8.79434e-01,5.85377e-01,9.99648e-01
9.865456120e-01,5.45897e-01,9.99999e-01,9.99999e-01,9.22810e-01,5.91602e-01,9.99926e-01
9.914783401e-01,5.68768e-01,9.99999e-01,9.99999e-01,9.51504e-01,5.97768e-01,9.99979e-01
9.964357318e-01,5.87744e-01,9.99999e-01,9.99999e-01,9.73299e-01,6.03874e-01,9.99987e-01
1.001417910e+00,6.00100e-01,9.99999e-01,9.99999e-01,9.83915e-01,6.09921e-01,9.99981e-01
1.006425000e+00,6.10215e-01,9.99999e-01,9.99999e-01,9.90784e-01,6.15907e-01,9.99973e-01
1.011457125e+00,6.18261e-01,9.99999e-01,9.99999e-01,9.94282e-01,6.21831e-01,9.99975e-01
1.016514411e+00,6.25243e-01,9.99999e-01,9.99999e-01,9.96110e-01,6.27694e-01,9.99982e-01
1.021596983e+00,6.31453e-01,9.99999e-01,9.99894e-01,9.96898e-01,6.33495e-01,9.99982e-01
1.026704968e+00,6.33204e-01,9.99999e-01,9.92976e-01,9.97579e-01,6.39233e-01,9.99989e-01
1.031838492e+00,5.98653e-01,9.99999e-01,9.29840e-01,9.98243e-01,6.44908e-01,9.99996e-01
1.036997685e+00,5.56167e-02,9.99999e-01,8.55645e-02,9.98954e-01,6.50520e-01,9.99999e-01
1.042182673e+00,1.70123e-02,9.99999e-01,2.59576e-02,9.98749e-01,6.56068e-01,9.99999e-01
1.047393587e+00,2.91548e-02,9.99999e-01,4.41328e-02,9.98344e-01,6.61553e-01,9.99999e-01
1.052630555e+00,7.78254e-05,9.99999e-01,1.16863e-04,9.97726e-01,6.66974e-01,9.99998e-01
1.057893707e+00,2.68067e-04,9.99999e-01,3.99605e-04,9.96202e-01,6.72331e-01,9.99998e-01
1.063183176e+00,1.98044e-03,9.99999e-01,2.93433e-03,9.93763e-01,6.77624e-01,9.99996e-01
1.068499092e+00,9.85899e-03,9.99999e-01,1.45529e-02,9.89588e-01,6.82853e-01,9.99992e-01
1.073841587e+00,4.63388e-02,9.99999e-01,6.80070e-02,9.87810e-01,6.88018e-01,9.99984e-01
1.079210795e+00,1.24958e-01,9.99999e-01,1.82719e-01,9.84442e-01,6.93119e-01,9.99957e-01
1.084606849e+00,2.64866e-01,9.99999e-01,3.87824e-01,9.76513e-01,6.98155e-01,9.99899e-01
1.090029883e+00,4.15113e-01,9.99999e-01,6.10074e-01,9.66295e-01,7.03128e-01,9.99791e-01
1.095480033e+00,5.06271e-01,9.99999e-01,7.83799e-01,9.10957e-01,7.08037e-01,9.99623e-01
1.100957433e+00,5.01285e-01,9.99999e-01,8.88999e-01,7.89767e-01,7.12882e-01,9.99306e-01
1.106462220e+00,3.79212e-01,9.99999e-01,9.52538e-01,5.53700e-01,7.17663e-01,9.98824e-01
1.111994531e+00,2.08868e-01,9.99999e-01,9.82129e-01,2.94684e-01,7.22382e-01,9.96883e-01
1.117554504e+00,1.02458e-01,9.99999e-01,9.95626e-01,1.42966e-01,7.27037e-01,9.88796e-01
1.123142276e+00,1.80615e-01,9.99999e-01,9.99713e-01,2.53571e-01,7.31629e-01,9.73636e-01
1.128757988e+00,2.85270e-01,9.99999e-01,9.99999e-01,3.99674e-01,7.36159e-01,9.69565e-01
1.134401778e+00,1.39752e-01,9.99999e-01,9.99999e-01,1.93718e-01,7.40627e-01,9.74061e-01
1.140073787e+00,4.16315e-01,9.99999e-01,9.99999e-01,5.70644e-01,7.45032e-01,9.79220e-01
1.145774156e+00,2.36698e-01,9.99999e-01,9.99999e-01,3.21989e-01,7.49376e-01,9.80962e-01
1.151503026e+00,2.12982e-01,9.99999e-01,9.99999e-01,2.85639e-01,7.53659e-01,9.89349e-01
1.157260541e+00,2.55666e-01,9.99999e-01,9.99999e-01,3.38425e-01,7.57881e-01,9.96803e-01
1.163046844e+00,3.40744e-01,9.99999e-01,9.99999e-01,4.47551e-01,7.62042e-01,9.99092e-01
1.168862078e+00,4.34804e-01,9.99999e-01,9.99999e-01,5.67788e-01,7.66144e-01,9.99532e-01
1.174706389e+00,5.42529e-01,9.99999e-01,9.99999e-01,7.04849e-01,7.70186e-01,9.99380e-01
1.180579921e+00,6.24801e-01,9.99999e-01,9.99999e-01,8.07816e-01,7.74168e-01,9.99063e-01
1.186482820e+00,6.88741e-01,9.99999e-01,9.99984e-01,8.86028e-01,7.78092e-01,9.99038e-01
1.192415234e+00,7.10482e-01,9.99999e-01,9.75396e-01,9.31710e-01,7.81958e-01,9.99279e-01
1.198377311e+00,4.04553e-01,9.99999e-01,5.41481e-01,9.42058e-01,7.85766e-01,9.99319e-01
1.204369197e+00,8.05545e-19,9.99999e-01,1.05477e-18,9.45182e-01,7.89517e-01,9.99384e-01
1.210391043e+00,2.16475e-73,9.99999e-01,2.81320e-73,9.47488e-01,7.93212e-01,9.99625e-01
1.216442998e+00,1.24354e-63,9.99999e-01,1.60590e-63,9.55226e-01,7.96850e-01,9.99770e-01
1.222525213e+00,1.09733e-62,9.99999e-01,1.39658e-62,9.64925e-01,8.00432e-01,9.99857e-01
1.228637839e+00,1.70996e-48,9.99999e-01,2.16319e-48,9.75499e-01,8.03959e-01,9.99933e-01
