#,Wave/freq,Total,N2,CO2,H2O,Rayleigh,CIA
4.000000000e-01,3.86336e-03,9.99999e-01,9.99999e-01,9.99988e-01,3.86340e-03,9.99999e-01
4.020000000e-01,4.31200e-03,9.99999e-01,9.99999e-01,9.99992e-01,4.31203e-03,9.99999e-01
4.040100000e-01,4.80177e-03,9.99999e-01,9.99999e-01,9.99996e-01,4.80178e-03,9.99999e-01
4.060300500e-01,5.33581e-03,9.99999e-01,9.99999e-01,9.99998e-01,5.33581e-03,9.99999e-01
4.080602003e-01,5.91690e-03,9.99999e-01,9.99999e-01,9.99999e-01,5.91690e-03,9.99999e-01
4.101005013e-01,6.54788e-03,9.99999e-01,9.99999e-01,9.99999e-01,6.54788e-03,9.99999e-01
4.121510038e-01,7.23166e-03,9.99999e-01,9.99999e-01,9.99999e-01,7.23166e-03,9.99999e-01
4.142117588e-01,7.97117e-03,9.99999e-01,9.99999e-01,9.99996e-01,7.97120e-03,9.99999e-01
4.162828176e-01,8.76936e-03,9.99999e-01,9.99999e-01,9.99986e-01,8.76948e-03,9.99999e-01
4.183642317e-01,9.62945e-03,9.99999e-01,9.99999e-01,9.99991e-01,9.62953e-03,9.99999e-01
4.204560528e-01,1.05544e-02,9.99999e-01,9.99999e-01,9.99994e-01,1.05544e-02,9.99999e-01
4.225583331e-01,1.15472e-02,9.99999e-01,9.99999e-01,9.99997e-01,1.15472e-02,9.99999e-01
4.246711247e-01,1.26109e-02,9.99999e-01,9.99999e-01,9.99998e-01,1.26109e-02,9.99999e-01
4.267944804e-01,1.37487e-02,9.99999e-01,9.99999e-01,9.99997e-01,1.37487e-02,9.99999e-01
4.289284528e-01,1.49636e-02,9.99999e-01,9.99999e-01,9.99997e-01,1.49636e-02,9.99999e-01
4.310730950e-01,1.62586e-02,9.99999e-01,9.99999e-01,9.99998e-01,1.62586e-02,9.99999e-01
4.332284605e-01,1.76368e-02,9.99999e-01,9.99999e-01,9.99999e-01,1.76368e-02,9.99999e-01
4.353946028e-01,1.91010e-02,9.99999e-01,9.99999e-01,9.99999e-01,1.91010e-02,9.99999e-01
4.375715758e-01,2.06542e-02,9.99999e-01,9.99999e-01,9.99998e-01,2.06543e-02,9.99999e-01
4.397594337e-01,2.22991e-02,9.99999e-01,9.99999e-01,9.99987e-01,2.22994e-02,9.99999e-01
4.419582309e-01,2.40377e-02,9.99999e-01,9.99999e-01,9.99940e-01,2.40391e-02,9.99999e-01
4.441680220e-01,2.58749e-02,9.99999e-01,9.99999e-01,9.99953e-01,2.58761e-02,9.99999e-01
4.463888621e-01,2.78117e-02,9.99999e-01,9.99999e-01,9.99951e-01,2.78130e-02,9.99999e-01
4.486208064e-01,2.98514e-02,9.99999e-01,9.99999e-01,9.99969e-01,2.98523e-02,9.99999e-01
4.508639105e-01,3.19959e-02,9.99999e-01,9.99999e-01,9.99985e-01,3.19964e-02,9.99999e-01
4.531182300e-01,3.42473e-02,9.99999e-01,9.99999e-01,9.99993e-01,3.42475e-02,9.99999e-01
4.553838212e-01,3.66076e-02,9.99999e-01,9.99999e-01,9.99995e-01,3.66078e-02,9.99999e-01
4.576607403e-01,3.90792e-02,9.99999e-01,9.99999e-01,9.99997e-01,3.90793e-02,9.99999e-01
4.599490440e-01,4.16638e-02,9.99999e-01,9.99999e-01,9.99998e-01,4.16638e-02,9.99999e-01
4.622487892e-01,4.43631e-02,9.99999e-01,9.99999e-01,9.99999e-01,4.43631e-02,9.99999e-01
4.645600332e-01,4.71787e-02,9.99999e-01,9.99999e-01,9.99998e-01,4.71788e-02,9.99999e-01
4.668828333e-01,5.01115e-02,9.99999e-01,9.99999e-01,9.99985e-01,5.01122e-02,9.99999e-01
4.692172475e-01,5.31630e-02,9.99999e-01,9.99999e-01,9.99969e-01,5.31646e-02,9.99999e-01
4.715633337e-01,5.63361e-02,9.99999e-01,9.99999e-01,9.99979e-01,5.63372e-02,9.99999e-01
4.739211504e-01,5.96296e-02,9.99999e-01,9.99999e-01,9.99980e-01,5.96307e-02,9.99999e-01
4.762907561e-01,6.30454e-02,9.99999e-01,9.99999e-01,9.99989e-01,6.30460e-02,9.99999e-01
4.786722099e-01,6.65833e-02,9.99999e-01,9.99999e-01,9.99995e-01,6.65836e-02,9.99999e-01
4.810655710e-01,7.02438e-02,9.99999e-01,9.99999e-01,9.99998e-01,7.02439e-02,9.99999e-01
4.834708988e-01,7.40263e-02,9.99999e-01,9.99999e-01,9.99987e-01,7.40271e-02,9.99999e-01
4.858882533e-01,7.79317e-02,9.99999e-01,9.99999e-01,9.99978e-01,7.79333e-02,9.99999e-01
4.883176946e-01,8.19609e-02,9.99999e-01,9.99999e-01,9.99981e-01,8.19623e-02,9.99999e-01
4.907592831e-01,8.61125e-02,9.99999e-01,9.99999e-01,9.99983e-01,8.61139e-02,9.99999e-01
4.932130795e-01,9.03864e-02,9.99999e-01,9.99999e-01,9.99988e-01,9.03874e-02,9.99999e-01
4.956791449e-01,9.47818e-02,9.99999e-01,9.99999e-01,9.99993e-01,9.47824e-02,9.99999e-01
4.981575406e-01,9.92948e-02,9.99999e-01,9.99999e-01,9.99969e-01,9.92978e-02,9.99999e-01
5.006483283e-01,1.03925e-01,9.99999e-01,9.99999e-01,9.99921e-01,1.03933e-01,9.99998e-01
5.031515699e-01,1.08642e-01,9.99999e-01,9.99999e-01,9.99601e-01,1.08686e-01,9.99995e-01
5.056673278e-01,1.13532e-01,9.99999e-01,9.99999e-01,9.99789e-01,1.13557e-01,9.99994e-01
5.081956644e-01,1.18511e-01,9.99999e-01,9.99999e-01,9.99734e-01,1.18542e-01,9.99996e-01
5.107366428e-01,1.23620e-01,9.99999e-01,9.99999e-01,9.99820e-01,1.23642e-01,9.99998e-01
5.132903260e-01,1.28841e-01,9.99999e-01,9.99999e-01,9.99897e-01,1.28854e-01,9.99999e-01
5.158567776e-01,1.34171e-01,9.99999e-01,9.99999e-01,9.99956e-01,1.34177e-01,9.99999e-01
5.184360615e-01,1.39605e-01,9.99999e-01,9.99999e-01,9.99982e-01,1.39607e-01,9.99999e-01
5.210282418e-01,1.45143e-01,9.99999e-01,9.99999e-01,9.99993e-01,1.45144e-01,9.99999e-01
5.236333830e-01,1.50780e-01,9.99999e-01,9.99999e-01,9.99973e-01,1.50784e-01,9.99999e-01
5.262515499e-01,1.56522e-01,9.99999e-01,9.99999e-01,9.99983e-01,1.56525e-01,9.99999e-01
5.288828077e-01,1.62363e-01,9.99999e-01,9.99999e-01,9.99984e-01,1.62365e-01,9.99999e-01
5.315272217e-01,1.68299e-01,9.99999e-01,9.99999e-01,9.99986e-01,1.68301e-01,9.99999e-01
5.341848578e-01,1.74329e-01,9.99999e-01,9.99999e-01,9.99990e-01,1.74331e-01,9.99999e-01
5.368557821e-01,1.80445e-01,9.99999e-01,9.99999e-01,9.99969e-01,1.80451e-01,9.99999e-01
5.395400610e-01,1.86638e-01,9.99999e-01,9.99999e-01,9.99890e-01,1.86658e-01,9.99998e-01
5.422377613e-01,1.92923e-01,9.99999e-01,9.99999e-01,9.99858e-01,1.92951e-01,9.99996e-01
5.449489501e-01,1.99298e-01,9.99999e-01,9.99999e-01,9.99868e-01,1.99324e-01,9.99996e-01
5.476736949e-01,2.05752e-01,9.99999e-01,9.99999e-01,9.99883e-01,2.05777e-01,9.99998e-01
5.504120634e-01,2.12286e-01,9.99999e-01,9.99999e-01,9.99915e-01,2.12304e-01,9.99999e-01
5.531641237e-01,2.18894e-01,9.99999e-01,9.99999e-01,9.99957e-01,2.18903e-01,9.99999e-01
5.559299443e-01,2.25567e-01,9.99999e-01,9.99999e-01,9.99979e-01,2.25571e-01,9.99999e-01
5.587095940e-01,2.32302e-01,9.99999e-01,9.99999e-01,9.99986e-01,2.32305e-01,9.99999e-01
5.615031420e-01,2.39097e-01,9.99999e-01,9.99999e-01,9.99985e-01,2.39100e-01,9.99999e-01
5.643106577e-01,2.45950e-01,9.99999e-01,9.99999e-01,9.99983e-01,2.45954e-01,9.99999e-01
5.671322110e-01,2.52814e-01,9.99999e-01,9.99999e-01,9.99803e-01,2.52864e-01,9.99997e-01
5.699678720e-01,2.59769e-01,9.99999e-01,9.99999e-01,9.99790e-01,2.59825e-01,9.99994e-01
5.728177114e-01,2.66776e-01,9.99999e-01,9.99999e-01,9.99781e-01,2.66835e-01,9.99995e-01
5.756818000e-01,2.73834e-01,9.99999e-01,9.99999e-01,9.99799e-01,2.73890e-01,9.99996e-01
5.785602090e-01,2.80937e-01,9.99999e-01,9.99999e-01,9.99825e-01,2.80986e-01,9.99998e-01
5.814530100e-01,2.88070e-01,9.99999e-01,9.99999e-01,9.99824e-01,2.88121e-01,9.99999e-01
5.843602750e-01,2.95229e-01,9.99999e-01,9.99999e-01,9.99791e-01,2.95291e-01,9.99998e-01
5.872820764e-01,3.01944e-01,9.99999e-01,9.99999e-01,9.98201e-01,3.02492e-01,9.99986e-01
5.902184868e-01,3.09036e-01,9.99999e-01,9.99999e-01,9.97821e-01,3.09721e-01,9.99965e-01
5.931695792e-01,3.16477e-01,9.99999e-01,9.99999e-01,9.98460e-01,3.16975e-01,9.99966e-01
5.961354271e-01,3.23698e-01,9.99999e-01,9.99999e-01,9.98312e-01,3.24251e-01,9.99980e-01
5.991161043e-01,3.31135e-01,9.99999e-01,9.99999e-01,9.98769e-01,3.31545e-01,9.99993e-01
6.021116848e-01,3.38617e-01,9.99999e-01,9.99999e-01,9.99301e-01,3.38854e-01,9.99998e-01
6.051222432e-01,3.46053e-01,9.99999e-01,9.99999e-01,9.99646e-01,3.46176e-01,9.99999e-01
6.081478544e-01,3.53452e-01,9.99999e-01,9.99999e-01,9.99847e-01,3.53506e-01,9.99999e-01
6.111885937e-01,3.60818e-01,9.99999e-01,9.99999e-01,9.99935e-01,3.60842e-01,9.99999e-01
6.142445367e-01,3.68170e-01,9.99999e-01,9.99999e-01,9.99970e-01,3.68180e-01,9.99999e-01
6.173157594e-01,3.75513e-01,9.99999e-01,9.99999e-01,9.99983e-01,3.75519e-01,9.99999e-01
6.204023382e-01,3.82850e-01,9.99999e-01,9.99999e-01,9.99986e-01,3.82855e-01,9.99999e-01
6.235043498e-01,3.90162e-01,9.99999e-01,9.99999e-01,9.99940e-01,3.90185e-01,9.99999e-01
6.266218716e-01,3.97381e-01,9.99999e-01,9.99999e-01,9.99686e-01,3.97506e-01,9.99997e-01
6.297549810e-01,4.04768e-01,9.99999e-01,9.99999e-01,9.99884e-01,4.04816e-01,9.99995e-01
6.329037559e-01,4.12017e-01,9.99999e-01,9.99999e-01,9.99772e-01,4.12112e-01,9.99995e-01
6.360682746e-01,4.19310e-01,9.99999e-01,9.99999e-01,9.99806e-01,4.19392e-01,9.99997e-01
6.392486160e-01,4.26545e-01,9.99999e-01,9.99999e-01,9.99748e-01,4.26652e-01,9.99998e-01
6.424448591e-01,4.33745e-01,9.99999e-01,9.99999e-01,9.99664e-01,4.33891e-01,9.99998e-01
6.456570834e-01,4.40416e-01,9.99999e-01,9.99999e-01,9.98442e-01,4.41106e-01,9.99990e-01
6.488853688e-01,4.47774e-01,9.99999e-01,9.99999e-01,9.98858e-01,4.48296e-01,9.99975e-01
6.521297956e-01,4.54918e-01,9.99999e-01,9.99999e-01,9.98836e-01,4.55457e-01,9.99979e-01
6.553904446e-01,4.62045e-01,9.99999e-01,9.99999e-01,9.98842e-01,4.62587e-01,9.99984e-01
6.586673968e-01,4.69217e-01,9.99999e-01,9.99999e-01,9.99008e-01,4.69685e-01,9.99994e-01
6.619607338e-01,4.76475e-01,9.99999e-01,9.99999e-01,9.99426e-01,4.76749e-01,9.99998e-01
6.652705375e-01,4.83615e-01,9.99999e-01,9.99999e-01,9.99668e-01,4.83776e-01,9.99998e-01
6.685968902e-01,4.90689e-01,9.99999e-01,9.99999e-01,9.99845e-01,4.90764e-01,9.99999e-01
6.719398746e-01,4.97678e-01,9.99999e-01,9.99999e-01,9.99928e-01,4.97713e-01,9.99999e-01
6.752995740e-01,5.04600e-01,9.99999e-01,9.99999e-01,9.99960e-01,5.04620e-01,9.99999e-01
6.786760719e-01,5.11455e-01,9.99999e-01,9.99999e-01,9.99943e-01,5.11483e-01,9.99999e-01
6.820694522e-01,5.18252e-01,9.99999e-01,9.99999e-01,9.99904e-01,5.18302e-01,9.99999e-01
6.854797995e-01,5.25009e-01,9.99999e-01,9.99999e-01,9.99876e-01,5.25074e-01,9.99998e-01
6.889071985e-01,5.31638e-01,9.99999e-01,9.99999e-01,9.99701e-01,5.31798e-01,9.99996e-01
6.923517345e-01,5.35837e-01,9.99999e-01,9.99999e-01,9.95127e-01,5.38473e-01,9.99976e-01
6.958134932e-01,5.43687e-01,9.99999e-01,9.99999e-01,9.97462e-01,5.45098e-01,9.99947e-01
6.992925606e-01,5.50316e-01,9.99999e-01,9.99999e-01,9.97591e-01,5.51670e-01,9.99952e-01
7.027890234e-01,5.56511e-01,9.99999e-01,9.99999e-01,9.97026e-01,5.58190e-01,9.99963e-01
7.063029686e-01,5.63234e-01,9.99999e-01,9.99999e-01,9.97500e-01,5.64656e-01,9.99981e-01
7.098344834e-01,5.69691e-01,9.99999e-01,9.99999e-01,9.97601e-01,5.71066e-01,9.99989e-01
7.133836558e-01,5.75564e-01,9.99999e-01,9.99999e-01,9.96803e-01,5.77421e-01,9.99978e-01
7.169505741e-01,5.68710e-01,9.99999e-01,9.99999e-01,9.74446e-01,5.83719e-01,9.99835e-01
7.205353270e-01,5.82373e-01,9.99999e-01,9.99999e-01,9.87426e-01,5.89959e-01,9.99710e-01
7.241380036e-01,5.86498e-01,9.99999e-01,9.99999e-01,9.84069e-01,5.96140e-01,9.99750e-01
7.277586936e-01,5.93477e-01,9.99999e-01,9.99999e-01,9.85612e-01,6.02263e-01,9.99795e-01
7.313974871e-01,5.98973e-01,9.99999e-01,9.99999e-01,9.84720e-01,6.08325e-01,9.99904e-01
7.350544745e-01,6.09168e-01,9.99999e-01,9.99999e-01,9.91634e-01,6.14327e-01,9.99966e-01
7.387297469e-01,6.16439e-01,9.99999e-01,9.99999e-01,9.93842e-01,6.20268e-01,9.99984e-01
7.424233956e-01,6.24257e-01,9.99999e-01,9.99999e-01,9.96984e-01,6.26147e-01,9.99996e-01
7.461355126e-01,6.30809e-01,9.99999e-01,9.99999e-01,9.98172e-01,6.31964e-01,9.99998e-01
7.498661902e-01,6.37176e-01,9.99999e-01,9.99999e-01,9.99148e-01,6.37719e-01,9.99999e-01
7.536155211e-01,6.43142e-01,9.99999e-01,9.99999e-01,9.99582e-01,6.43411e-01,9.99999e-01
7.573835987e-01,6.48900e-01,9.99999e-01,9.99999e-01,9.99784e-01,6.49039e-01,9.99999e-01
7.611705167e-01,6.54517e-01,9.99999e-01,9.99999e-01,9.99866e-01,6.54605e-01,9.99999e-01
7.649763693e-01,6.60051e-01,9.99999e-01,9.99999e-01,9.99915e-01,6.60107e-01,9.99999e-01
7.688012511e-01,6.65506e-01,9.99999e-01,9.99999e-01,9.99941e-01,6.65545e-01,9.99999e-01
7.726452574e-01,6.70886e-01,9.99999e-01,9.99999e-01,9.99951e-01,6.70919e-01,9.99999e-01
7.765084837e-01,6.76182e-01,9.99999e-01,9.99999e-01,9.99931e-01,6.76229e-01,9.99999e-01
7.803910261e-01,6.68536e-01,9.99999e-01,9.81298e-01,9.99705e-01,6.81474e-01,9.99999e-01
7.842929812e-01,6.32661e-01,9.99999e-01,9.22288e-01,9.98972e-01,6.86656e-01,9.99997e-01
7.882144461e-01,6.32870e-01,9.99999e-01,9.16760e-01,9.97882e-01,6.91774e-01,9.99986e-01
7.921555184e-01,6.62096e-01,9.99999e-01,9.51272e-01,9.98838e-01,6.96827e-01,9.99974e-01
7.961162960e-01,6.77396e-01,9.99999e-01,9.67200e-01,9.97947e-01,7.01817e-01,9.99975e-01
8.000968774e-01,6.92431e-01,9.99999e-01,9.82097e-01,9.97629e-01,7.06743e-01,9.99973e-01
8.040973618e-01,7.03297e-01,9.99999e-01,9.90691e-01,9.97629e-01,7.11605e-01,9.99979e-01
8.081178486e-01,7.09515e-01,9.99999e-01,9.95717e-01,9.94658e-01,7.16403e-01,9.99980e-01
8.121584379e-01,7.04190e-01,9.99999e-01,9.98675e-01,9.77858e-01,7.21138e-01,9.99924e-01
8.162192301e-01,7.06344e-01,9.99999e-01,9.99707e-01,9.73735e-01,7.25810e-01,9.99718e-01
8.203003262e-01,7.20517e-01,9.99999e-01,9.99995e-01,9.86771e-01,7.30419e-01,9.99670e-01
8.244018279e-01,7.21177e-01,9.99999e-01,9.99999e-01,9.81496e-01,7.34965e-01,9.99737e-01
8.285238370e-01,7.27673e-01,9.99999e-01,9.99999e-01,9.84276e-01,7.39449e-01,9.99793e-01
8.326664562e-01,7.31979e-01,9.99999e-01,9.99999e-01,9.84095e-01,7.43871e-01,9.99914e-01
8.368297885e-01,7.39714e-01,9.99999e-01,9.99999e-01,9.88634e-01,7.48231e-01,9.99980e-01
8.410139374e-01,7.47433e-01,9.99999e-01,9.99999e-01,9.93237e-01,7.52530e-01,9.99988e-01
8.452190071e-01,7.54252e-01,9.99999e-01,9.99999e-01,9.96680e-01,7.56768e-01,9.99992e-01
8.494451021e-01,7.59476e-01,9.99999e-01,9.99999e-01,9.98073e-01,7.60946e-01,9.99994e-01
8.536923276e-01,7.64189e-01,9.99999e-01,9.99999e-01,9.98860e-01,7.65063e-01,9.99996e-01
8.579607893e-01,7.68581e-01,9.99999e-01,9.99999e-01,9.99298e-01,7.69121e-01,9.99998e-01
8.622505932e-01,7.72775e-01,9.99999e-01,9.99999e-01,9.99553e-01,7.73119e-01,9.99999e-01
8.665618462e-01,7.39029e-01,9.99999e-01,9.51314e-01,9.99724e-01,7.77059e-01,9.99999e-01
8.708946554e-01,6.33867e-01,9.99999e-01,8.11921e-01,9.99684e-01,7.80940e-01,9.99999e-01
8.752491287e-01,6.64538e-01,9.99999e-01,8.47151e-01,9.99577e-01,7.84763e-01,9.99999e-01
8.796253743e-01,7.20086e-01,9.99999e-01,9.13727e-01,9.99415e-01,7.88529e-01,9.99998e-01
8.840235012e-01,7.55695e-01,9.99999e-01,9.54509e-01,9.99331e-01,7.92239e-01,9.99995e-01
8.884436187e-01,7.79544e-01,9.99999e-01,9.81851e-01,9.97562e-01,7.95891e-01,9.99987e-01
8.928858368e-01,7.73324e-01,9.99999e-01,9.92615e-01,9.74500e-01,7.99488e-01,9.99932e-01
8.973502660e-01,7.65464e-01,9.99999e-01,9.98202e-01,9.55242e-01,8.03030e-01,9.99657e-01
9.018370173e-01,7.87302e-01,9.99999e-01,9.99801e-01,9.76889e-01,8.06517e-01,9.99462e-01
9.063462024e-01,7.89130e-01,9.99999e-01,9.94899e-01,9.79668e-01,8.09950e-01,9.99527e-01
9.108779334e-01,7.78190e-01,9.99999e-01,9.88365e-01,9.68457e-01,8.13329e-01,9.99509e-01
9.154323231e-01,7.85029e-01,9.99999e-01,9.97258e-01,9.64275e-01,8.16655e-01,9.99594e-01
9.200094847e-01,7.65151e-01,9.99999e-01,9.59609e-01,9.71886e-01,8.19929e-01,9.99772e-01
9.246095321e-01,7.43277e-01,9.99999e-01,9.44244e-01,9.55974e-01,8.23151e-01,9.99738e-01
9.292325798e-01,5.83806e-01,9.99999e-01,9.55844e-01,7.37805e-01,8.26321e-01,9.98980e-01
9.338787427e-01,5.34883e-01,9.99999e-01,9.57405e-01,6.74519e-01,8.29441e-01,9.95793e-01
9.385481364e-01,6.85585e-01,9.99999e-01,9.68590e-01,8.53594e-01,8.32510e-01,9.94999e-01
9.432408771e-01,6.53361e-01,9.99999e-01,9.80680e-01,8.00331e-01,8.35530e-01,9.95684e-01
9.479570815e-01,6.06640e-01,9.99999e-01,9.90045e-01,7.33091e-01,8.38501e-01,9.96486e-01
9.526968669e-01,6.64114e-01,9.99999e-01,9.95187e-01,7.94589e-01,8.41423e-01,9.97855e-01
9.574603512e-01,6.83753e-01,9.99999e-01,9.97940e-01,8.12343e-01,8.44298e-01,9.98909e-01
9.622476530e-01,7.14822e-01,9.99999e-01,9.99357e-01,8.44982e-01,8.47125e-01,9.99245e-01
9.670588912e-01,7.70898e-01,9.99999e-01,9.99807e-01,9.07676e-01,8.49906e-01,9.99483e-01
9.718941857e-01,8.02476e-01,9.99999e-01,9.99985e-01,9.41534e-01,8.52640e-01,9.99619e-01
9.767536566e-01,8.13390e-01,9.99999e-01,9.99999e-01,9.51242e-01,8.55329e-01,9.99709e-01
9.816374249e-01,8.26724e-01,9.99999e-01,9.99999e-01,9.63673e-01,8.57974e-01,9.99899e-01
9.865456120e-01,8.40906e-01,9.99999e-01,9.99999e-01,9.77166e-01,8.60573e-01,9.99978e-01
9.914783401e-01,8.50899e-01,9.99999e-01,9.99999e-01,9.85834e-01,8.63130e-01,9.99993e-01
9.964357318e-01,8.58943e-01,9.99999e-01,9.99999e-01,9.92262e-01,8.65643e-01,9.99996e-01
1.001417910e+00,8.64079e-01,9.99999e-01,9.99999e-01,9.95357e-01,8.68113e-01,9.99994e-01
1.006425000e+00,8.68230e-01,9.99999e-01,9.99999e-01,9.97351e-01,8.70542e-01,9.99992e-01
1.011457125e+00,8.71488e-01,9.99999e-01,9.99999e-01,9.98355e-01,8.72929e-01,9.99992e-01
1.016514411e+00,8.74294e-01,9.99999e-01,9.99999e-01,9.98883e-01,8.75275e-01,9.99994e-01
1.021596983e+00,8.76773e-01,9.99999e-01,9.99972e-01,9.99110e-01,8.77582e-01,9.99994e-01
1.026704968e+00,8.77491e-01,9.99999e-01,9.98015e-01,9.99305e-01,8.79848e-01,9.99996e-01
1.031838492e+00,8.56570e-01,9.99999e-01,9.71564e-01,9.99495e-01,8.82076e-01,9.99998e-01
1.036997685e+00,2.36831e-01,9.99999e-01,2.67896e-01,9.99700e-01,8.84264e-01,9.99999e-01
1.042182673e+00,2.75921e-01,9.99999e-01,3.11381e-01,9.99642e-01,8.86415e-01,9.99999e-01
1.047393587e+00,2.61522e-01,9.99999e-01,2.94457e-01,9.99526e-01,8.88529e-01,9.99999e-01
1.052630555e+00,3.37024e-02,9.99999e-01,3.78615e-02,9.99349e-01,8.90606e-01,9.99999e-01
1.057893707e+00,6.54762e-02,9.99999e-01,7.34123e-02,9.98915e-01,8.92646e-01,9.99999e-01
1.063183176e+00,1.34187e-01,9.99999e-01,1.50203e-01,9.98214e-01,8.94651e-01,9.99998e-01
1.068499092e+00,2.50907e-01,9.99999e-01,2.80594e-01,9.97011e-01,8.96620e-01,9.99997e-01
1.073841587e+00,4.01927e-01,9.99999e-01,4.48726e-01,9.96501e-01,8.98555e-01,9.99995e-01
1.079210795e+00,5.40763e-01,9.99999e-01,6.03119e-01,9.95519e-01,9.00455e-01,9.99987e-01
1.084606849e+00,6.80058e-01,9.99999e-01,7.58708e-01,9.93221e-01,9.02322e-01,9.99970e-01
1.090029883e+00,7.76145e-01,9.99999e-01,8.66778e-01,9.90272e-01,9.04156e-01,9.99939e-01
1.095480033e+00,8.22225e-01,9.99999e-01,9.32041e-01,9.73705e-01,9.05957e-01,9.99891e-01
1.100957433e+00,8.19921e-01,9.99999e-01,9.66707e-01,9.34387e-01,9.07726e-01,9.99801e-01
1.106462220e+00,7.53875e-01,9.99999e-01,9.86102e-01,8.40655e-01,9.09464e-01,9.99663e-01
1.111994531e+00,6.27623e-01,9.99999e-01,9.94828e-01,6.92863e-01,9.11170e-01,9.99107e-01
1.117554504e+00,5.00496e-01,9.99999e-01,9.98735e-01,5.50670e-01,9.12846e-01,9.96782e-01
1.123142276e+00,5.81268e-01,9.99999e-01,9.99916e-01,6.40530e-01,9.14491e-01,9.92386e-01
1.128757988e+00,6.85051e-01,9.99999e-01,9.99999e-01,7.54423e-01,9.16107e-01,9.91198e-01
1.134401778e+00,4.68129e-01,9.99999e-01,9.99999e-01,5.13963e-01,9.17694e-01,9.92510e-01
1.140073787e+00,7.73779e-01,9.99999e-01,9.99999e-01,8.46818e-01,9.19253e-01,9.94011e-01
1.145774156e+00,6.45200e-01,9.99999e-01,9.99999e-01,7.04570e-01,9.20783e-01,9.94516e-01
1.151503026e+00,6.21156e-01,9.99999e-01,9.99999e-01,6.75562e-01,9.22285e-01,9.96941e-01
1.157260541e+00,6.68677e-01,9.99999e-01,9.99999e-01,7.24526e-01,9.23760e-01,9.99084e-01
1.163046844e+00,7.29369e-01,9.99999e-01,9.99999e-01,7.88534e-01,9.25208e-01,9.99740e-01
1.168862078e+00,7.86230e-01,9.99999e-01,9.99999e-01,8.48597e-01,9.26630e-01,9.99865e-01
1.174706389e+00,8.38493e-01,9.99999e-01,9.99999e-01,9.03683e-01,9.28025e-01,9.99822e-01
1.180579921e+00,8.73629e-01,9.99999e-01,9.99999e-01,9.40248e-01,9.29396e-01,9.99731e-01
1.186482820e+00,8.98690e-01,9.99999e-01,9.99995e-01,9.65832e-01,9.30741e-01,9.99724e-01
1.192415234e+00,9.06706e-01,9.99999e-01,9.92878e-01,9.79932e-01,9.32061e-01,9.99793e-01
1.198377311e+00,5.35182e-01,9.99999e-01,5.81795e-01,9.83059e-01,9.33357e-01,9.99804e-01
1.204369197e+00,5.47387e-07,9.99999e-01,5.91264e-07,9.83952e-01,9.34630e-01,9.99823e-01
1.210391043e+00,1.34581e-22,9.99999e-01,1.45056e-22,9.84654e-01,9.35879e-01,9.99892e-01
1.216442998e+00,8.37767e-20,9.99999e-01,9.01351e-20,9.86930e-01,9.37105e-01,9.99933e-01
1.222525213e+00,1.60816e-19,9.99999e-01,1.72311e-19,9.89816e-01,9.38308e-01,9.99958e-01
1.228637839e+00,4.89459e-15,9.99999e-01,5.23630e-15,9.92919e-01,9.39489e-01,9.99980e-01
