#,Wave/freq,Total,N2,CO2,H2O,Rayleigh,CIA
4.000000000e-01,4.35530e-03,9.99999e-01,9.99999e-01,9.99989e-01,4.35535e-03,9.99999e-01
4.020000000e-01,4.84957e-03,9.99999e-01,9.99999e-01,9.99993e-01,4.84960e-03,9.99999e-01
4.040100000e-01,5.38788e-03,9.99999e-01,9.99999e-01,9.99996e-01,5.38789e-03,9.99999e-01
4.060300500e-01,5.97350e-03,9.99999e-01,9.99999e-01,9.99998e-01,5.97350e-03,9.99999e-01
4.080602003e-01,6.60927e-03,9.99999e-01,9.99999e-01,9.99999e-01,6.60927e-03,9.99999e-01
4.101005013e-01,7.29812e-03,9.99999e-01,9.99999e-01,9.99999e-01,7.29812e-03,9.99999e-01
4.121510038e-01,8.04300e-03,9.99999e-01,9.99999e-01,9.99999e-01,8.04300e-03,9.99999e-01
4.142117588e-01,8.84688e-03,9.99999e-01,9.99999e-01,9.99996e-01,8.84690e-03,9.99999e-01
4.162828176e-01,9.71273e-03,9.99999e-01,9.99999e-01,9.99986e-01,9.71286e-03,9.99999e-01
4.183642317e-01,1.06438e-02,9.99999e-01,9.99999e-01,9.99991e-01,1.06439e-02,9.99999e-01
4.204560528e-01,1.16431e-02,9.99999e-01,9.99999e-01,9.99994e-01,1.16432e-02,9.99999e-01
4.225583331e-01,1.27137e-02,9.99999e-01,9.99999e-01,9.99997e-01,1.27137e-02,9.99999e-01
4.246711247e-01,1.38585e-02,9.99999e-01,9.99999e-01,9.99998e-01,1.38585e-02,9.99999e-01
4.267944804e-01,1.50807e-02,9.99999e-01,9.99999e-01,9.99997e-01,1.50807e-02,9.99999e-01
4.289284528e-01,1.63833e-02,9.99999e-01,9.99999e-01,9.99997e-01,1.63834e-02,9.99999e-01
4.310730950e-01,1.77694e-02,9.99999e-01,9.99999e-01,9.99998e-01,1.77694e-02,9.99999e-01
4.332284605e-01,1.92418e-02,9.99999e-01,9.99999e-01,9.99999e-01,1.92418e-02,9.99999e-01
4.353946028e-01,2.08035e-02,9.99999e-01,9.99999e-01,9.99999e-01,2.08035e-02,9.99999e-01
4.375715758e-01,2.24573e-02,9.99999e-01,9.99999e-01,9.99998e-01,2.24573e-02,9.99999e-01
4.397594337e-01,2.42057e-02,9.99999e-01,9.99999e-01,9.99988e-01,2.42060e-02,9.99999e-01
4.419582309e-01,2.60507e-02,9.99999e-01,9.99999e-01,9.99941e-01,2.60522e-02,9.99999e-01
4.441680220e-01,2.79973e-02,9.99999e-01,9.99999e-01,9.99954e-01,2.79985e-02,9.99999e-01
4.463888621e-01,3.00461e-02,9.99999e-01,9.99999e-01,9.99952e-01,3.00475e-02,9.99999e-01
4.486208064e-01,3.22005e-02,9.99999e-01,9.99999e-01,9.99970e-01,3.22014e-02,9.99999e-01
4.508639105e-01,3.44621e-02,9.99999e-01,9.99999e-01,9.99985e-01,3.44626e-02,9.99999e-01
4.531182300e-01,3.68330e-02,9.99999e-01,9.99999e-01,9.99994e-01,3.68332e-02,9.99999e-01
4.553838212e-01,3.93150e-02,9.99999e-01,9.99999e-01,9.99995e-01,3.93151e-02,9.99999e-01
4.576607403e-01,4.19102e-02,9.99999e-01,9.99999e-01,9.99997e-01,4.19103e-02,9.99999e-01
4.599490440e-01,4.46203e-02,9.99999e-01,9.99999e-01,9.99998e-01,4.46204e-02,9.99999e-01
4.622487892e-01,4.74469e-02,9.99999e-01,9.99999e-01,9.99999e-01,4.74469e-02,9.99999e-01
4.645600332e-01,5.03913e-02,9.99999e-01,9.99999e-01,9.99998e-01,5.03914e-02,9.99999e-01
4.668828333e-01,5.34542e-02,9.99999e-01,9.99999e-01,9.99985e-01,5.34549e-02,9.99999e-01
4.692172475e-01,5.66370e-02,9.99999e-01,9.99999e-01,9.99970e-01,5.66387e-02,9.99999e-01
4.715633337e-01,5.99424e-02,9.99999e-01,9.99999e-01,9.99980e-01,5.99435e-02,9.99999e-01
4.739211504e-01,6.33690e-02,9.99999e-01,9.99999e-01,9.99981e-01,6.33702e-02,9.99999e-01
4.762907561e-01,6.69186e-02,9.99999e-01,9.99999e-01,9.99989e-01,6.69192e-02,9.99999e-01
4.786722099e-01,7.05907e-02,9.99999e-01,9.99999e-01,9.99995e-01,7.05909e-02,9.99999e-01
4.810655710e-01,7.43855e-02,9.99999e-01,9.99999e-01,9.99998e-01,7.43856e-02,9.99999e-01
4.834708988e-01,7.83024e-02,9.99999e-01,9.99999e-01,9.99988e-01,7.83033e-02,9.99999e-01
4.858882533e-01,8.23420e-02,9.99999e-01,9.99999e-01,9.99978e-01,8.23437e-02,9.99999e-01
4.883176946e-01,8.65051e-02,9.99999e-01,9.99999e-01,9.99982e-01,8.65066e-02,9.99999e-01
4.907592831e-01,9.07901e-02,9.99999e-01,9.99999e-01,9.99983e-01,9.07915e-02,9.99999e-01
4.932130795e-01,9.51967e-02,9.99999e-01,9.99999e-01,9.99988e-01,9.51977e-02,9.99999e-01
4.956791449e-01,9.97238e-02,9.99999e-01,9.99999e-01,9.99993e-01,9.97243e-02,9.99999e-01
4.981575406e-01,1.04367e-01,9.99999e-01,9.99999e-01,9.99969e-01,1.04370e-01,9.99999e-01
5.006483283e-01,1.09126e-01,9.99999e-01,9.99999e-01,9.99922e-01,1.09135e-01,9.99998e-01
5.031515699e-01,1.13971e-01,9.99999e-01,9.99999e-01,9.99610e-01,1.14016e-01,9.99995e-01
5.056673278e-01,1.18988e-01,9.99999e-01,9.99999e-01,9.99794e-01,1.19013e-01,9.99994e-01
5.081956644e-01,1.24090e-01,9.99999e-01,9.99999e-01,9.99740e-01,1.24123e-01,9.99996e-01
5.107366428e-01,1.29323e-01,9.99999e-01,9.99999e-01,9.99824e-01,1.29345e-01,9.99999e-01
5.132903260e-01,1.34664e-01,9.99999e-01,9.99999e-01,9.99899e-01,1.34678e-01,9.99999e-01
5.158567776e-01,1.40112e-01,9.99999e-01,9.99999e-01,9.99957e-01,1.40118e-01,9.99999e-01
5.184360615e-01,1.45662e-01,9.99999e-01,9.99999e-01,9.99982e-01,1.45664e-01,9.99999e-01
5.210282418e-01,1.51313e-01,9.99999e-01,9.99999e-01,9.99993e-01,1.51314e-01,9.99999e-01
5.236333830e-01,1.57061e-01,9.99999e-01,9.99999e-01,9.99974e-01,1.57065e-01,9.99999e-01
5.262515499e-01,1.62911e-01,9.99999e-01,9.99999e-01,9.99983e-01,1.62914e-01,9.99999e-01
5.288828077e-01,1.68856e-01,9.99999e-01,9.99999e-01,9.99984e-01,1.68859e-01,9.99999e-01
5.315272217e-01,1.74895e-01,9.99999e-01,9.99999e-01,9.99986e-01,1.74897e-01,9.99999e-01
5.341848578e-01,1.81024e-01,9.99999e-01,9.99999e-01,9.99991e-01,1.81025e-01,9.99999e-01
5.368557821e-01,1.87235e-01,9.99999e-01,9.99999e-01,9.99969e-01,1.87241e-01,9.99999e-01
5.395400610e-01,1.93520e-01,9.99999e-01,9.99999e-01,9.99892e-01,1.93541e-01,9.99998e-01
5.422377613e-01,1.99894e-01,9.99999e-01,9.99999e-01,9.99862e-01,1.99922e-01,9.99997e-01
5.449489501e-01,2.06354e-01,9.99999e-01,9.99999e-01,9.99871e-01,2.06381e-01,9.99996e-01
5.476736949e-01,2.12891e-01,9.99999e-01,9.99999e-01,9.99886e-01,2.12915e-01,9.99998e-01
5.504120634e-01,2.19503e-01,9.99999e-01,9.99999e-01,9.99917e-01,2.19521e-01,9.99999e-01
5.531641237e-01,2.26186e-01,9.99999e-01,9.99999e-01,9.99958e-01,2.26196e-01,9.99999e-01
5.559299443e-01,2.32930e-01,9.99999e-01,9.99999e-01,9.99979e-01,2.32935e-01,9.99999e-01
5.587095940e-01,2.39733e-01,9.99999e-01,9.99999e-01,9.99986e-01,2.39736e-01,9.99999e-01
5.615031420e-01,2.46592e-01,9.99999e-01,9.99999e-01,9.99985e-01,2.46595e-01,9.99999e-01
5.643106577e-01,2.53506e-01,9.99999e-01,9.99999e-01,9.99983e-01,2.53510e-01,9.99999e-01
5.671322110e-01,2.60425e-01,9.99999e-01,9.99999e-01,9.99805e-01,2.60476e-01,9.99997e-01
5.699678720e-01,2.67434e-01,9.99999e-01,9.99999e-01,9.99795e-01,2.67490e-01,9.99994e-01
5.728177114e-01,2.74489e-01,9.99999e-01,9.99999e-01,9.99786e-01,2.74549e-01,9.99995e-01
5.756818000e-01,2.81593e-01,9.99999e-01,9.99999e-01,9.99804e-01,2.81649e-01,9.99996e-01
5.785602090e-01,2.88738e-01,9.99999e-01,9.99999e-01,9.99829e-01,2.88787e-01,9.99998e-01
5.814530100e-01,2.95909e-01,9.99999e-01,9.99999e-01,9.99828e-01,2.95960e-01,9.99999e-01
5.843602750e-01,3.03101e-01,9.99999e-01,9.99999e-01,9.99794e-01,3.03164e-01,9.99998e-01
5.872820764e-01,3.09844e-01,9.99999e-01,9.99999e-01,9.98234e-01,3.10395e-01,9.99987e-01
5.902184868e-01,3.16965e-01,9.99999e-01,9.99999e-01,9.97869e-01,3.17652e-01,9.99965e-01
5.931695792e-01,3.24429e-01,9.99999e-01,9.99999e-01,9.98492e-01,3.24929e-01,9.99967e-01
5.961354271e-01,3.31671e-01,9.99999e-01,9.99999e-01,9.98349e-01,3.32225e-01,9.99980e-01
5.991161043e-01,3.39125e-01,9.99999e-01,9.99999e-01,9.98797e-01,3.39535e-01,9.99993e-01
6.021116848e-01,3.46621e-01,9.99999e-01,9.99999e-01,9.99317e-01,3.46858e-01,9.99998e-01
6.051222432e-01,3.54066e-01,9.99999e-01,9.99999e-01,9.99654e-01,3.54189e-01,9.99999e-01
6.081478544e-01,3.61471e-01,9.99999e-01,9.99999e-01,9.99850e-01,3.61525e-01,9.99999e-01
6.111885937e-01,3.68841e-01,9.99999e-01,9.99999e-01,9.99936e-01,3.68864e-01,9.99999e-01
6.142445367e-01,3.76192e-01,9.99999e-01,9.99999e-01,9.99971e-01,3.76202e-01,9.99999e-01
6.173157594e-01,3.83532e-01,9.99999e-01,9.99999e-01,9.99984e-01,3.83538e-01,9.99999e-01
6.204023382e-01,3.90862e-01,9.99999e-01,9.99999e-01,9.99986e-01,3.90867e-01,9.99999e-01
6.235043498e-01,3.98164e-01,9.99999e-01,9.99999e-01,9.99941e-01,3.98187e-01,9.99999e-01
6.266218716e-01,4.05371e-01,9.99999e-01,9.99999e-01,9.99692e-01,4.05496e-01,9.99997e-01
6.297549810e-01,4.12742e-01,9.99999e-01,9.99999e-01,9.99887e-01,4.12791e-01,9.99995e-01
6.329037559e-01,4.19974e-01,9.99999e-01,9.99999e-01,9.99777e-01,4.20068e-01,9.99996e-01
6.360682746e-01,4.27245e-01,9.99999e-01,9.99999e-01,9.99810e-01,4.27327e-01,9.99997e-01
6.392486160e-01,4.34457e-01,9.99999e-01,9.99999e-01,9.99754e-01,4.34564e-01,9.99998e-01
6.424448591e-01,4.41631e-01,9.99999e-01,9.99999e-01,9.99670e-01,4.41777e-01,9.99997e-01
6.456570834e-01,4.48273e-01,9.99999e-01,9.99999e-01,9.98470e-01,4.48964e-01,9.99990e-01
6.488853688e-01,4.55603e-01,9.99999e-01,9.99999e-01,9.98884e-01,4.56122e-01,9.99975e-01
6.521297956e-01,4.62714e-01,9.99999e-01,9.99999e-01,9.98863e-01,4.63249e-01,9.99980e-01
6.553904446e-01,4.69805e-01,9.99999e-01,9.99999e-01,9.98866e-01,4.70344e-01,9.99985e-01
6.586673968e-01,4.76940e-01,9.99999e-01,9.99999e-01,9.99031e-01,4.77404e-01,9.99994e-01
6.619607338e-01,4.84166e-01,9.99999e-01,9.99999e-01,9.99460e-01,4.84428e-01,9.99998e-01
6.652705375e-01,4.91254e-01,9.99999e-01,9.99999e-01,9.99675e-01,4.91413e-01,9.99998e-01
6.685968902e-01,4.98289e-01,9.99999e-01,9.99999e-01,9.99861e-01,4.98358e-01,9.99999e-01
6.719398746e-01,5.05226e-01,9.99999e-01,9.99999e-01,9.99929e-01,5.05261e-01,9.99999e-01
6.752995740e-01,5.12101e-01,9.99999e-01,9.99999e-01,9.99961e-01,5.12120e-01,9.99999e-01
6.786760719e-01,5.18906e-01,9.99999e-01,9.99999e-01,9.99944e-01,5.18935e-01,9.99999e-01
6.820694522e-01,5.25653e-01,9.99999e-01,9.99999e-01,9.99906e-01,5.25702e-01,9.99999e-01
6.854797995e-01,5.32357e-01,9.99999e-01,9.99999e-01,9.99878e-01,5.32422e-01,9.99998e-01
6.889071985e-01,5.38932e-01,9.99999e-01,9.99999e-01,9.99705e-01,5.39092e-01,9.99996e-01
6.923517345e-01,5.43090e-01,9.99999e-01,9.99999e-01,9.95217e-01,5.45712e-01,9.99976e-01
6.958134932e-01,5.50889e-01,9.99999e-01,9.99999e-01,9.97532e-01,5.52280e-01,9.99948e-01
6.992925606e-01,5.57449e-01,9.99999e-01,9.99999e-01,9.97636e-01,5.58794e-01,9.99953e-01
7.027890234e-01,5.63592e-01,9.99999e-01,9.99999e-01,9.97092e-01,5.65255e-01,9.99964e-01
7.063029686e-01,5.70253e-01,9.99999e-01,9.99999e-01,9.97554e-01,5.71660e-01,9.99982e-01
7.098344834e-01,5.76648e-01,9.99999e-01,9.99999e-01,9.97654e-01,5.78010e-01,9.99989e-01
7.133836558e-01,5.82454e-01,9.99999e-01,9.99999e-01,9.96855e-01,5.84302e-01,9.99979e-01
7.169505741e-01,5.75639e-01,9.99999e-01,9.99999e-01,9.74927e-01,5.90537e-01,9.99839e-01
7.205353270e-01,5.89246e-01,9.99999e-01,9.99999e-01,9.87764e-01,5.96713e-01,9.99717e-01
7.241380036e-01,5.93275e-01,9.99999e-01,9.99999e-01,9.84389e-01,6.02830e-01,9.99755e-01
7.277586936e-01,6.00187e-01,9.99999e-01,9.99999e-01,9.85907e-01,6.08887e-01,9.99800e-01
7.313974871e-01,6.05651e-01,9.99999e-01,9.99999e-01,9.85077e-01,6.14883e-01,9.99906e-01
7.350544745e-01,6.15722e-01,9.99999e-01,9.99999e-01,9.91824e-01,6.20818e-01,9.99967e-01
7.387297469e-01,6.22912e-01,9.99999e-01,9.99999e-01,9.93984e-01,6.26691e-01,9.99984e-01
7.424233956e-01,6.30640e-01,9.99999e-01,9.99999e-01,9.97056e-01,6.32503e-01,9.99996e-01
7.461355126e-01,6.37112e-01,9.99999e-01,9.99999e-01,9.98214e-01,6.38251e-01,9.99999e-01
7.498661902e-01,6.43403e-01,9.99999e-01,9.99999e-01,9.99169e-01,6.43937e-01,9.99999e-01
7.536155211e-01,6.49296e-01,9.99999e-01,9.99999e-01,9.99591e-01,6.49560e-01,9.99999e-01
7.573835987e-01,6.54982e-01,9.99999e-01,9.99999e-01,9.99789e-01,6.55120e-01,9.99999e-01
7.611705167e-01,6.60530e-01,9.99999e-01,9.99999e-01,9.99869e-01,6.60616e-01,9.99999e-01
7.649763693e-01,6.65993e-01,9.99999e-01,9.99999e-01,9.99917e-01,6.66048e-01,9.99999e-01
7.688012511e-01,6.71377e-01,9.99999e-01,9.99999e-01,9.99942e-01,6.71416e-01,9.99999e-01
7.726452574e-01,6.76688e-01,9.99999e-01,9.99999e-01,9.99952e-01,6.76720e-01,9.99999e-01
7.765084837e-01,6.81914e-01,9.99999e-01,9.99999e-01,9.99932e-01,6.81960e-01,9.99999e-01
7.803910261e-01,6.74117e-01,9.99999e-01,9.81333e-01,9.99710e-01,6.87135e-01,9.99999e-01
7.842929812e-01,6.39045e-01,9.99999e-01,9.24054e-01,9.98990e-01,6.92247e-01,9.99997e-01
7.882144461e-01,6.39087e-01,9.99999e-01,9.18398e-01,9.97928e-01,6.97295e-01,9.99985e-01
7.921555184e-01,6.67981e-01,9.99999e-01,9.52252e-01,9.98865e-01,7.02278e-01,9.99974e-01
7.961162960e-01,6.83167e-01,9.99999e-01,9.67981e-01,9.97986e-01,7.07198e-01,9.99976e-01
8.000968774e-01,6.97962e-01,9.99999e-01,9.82508e-01,9.97680e-01,7.12054e-01,9.99974e-01
8.040973618e-01,7.08680e-01,9.99999e-01,9.90923e-01,9.97678e-01,7.16847e-01,9.99980e-01
8.081178486e-01,7.14778e-01,9.99999e-01,9.95817e-01,9.94754e-01,7.21576e-01,9.99980e-01
8.121584379e-01,7.09499e-01,9.99999e-01,9.98711e-01,9.78270e-01,7.26242e-01,9.99926e-01
8.162192301e-01,7.11693e-01,9.99999e-01,9.99715e-01,9.74336e-01,7.30845e-01,9.99724e-01
8.203003262e-01,7.25569e-01,9.99999e-01,9.99995e-01,9.86971e-01,7.35385e-01,9.99677e-01
8.244018279e-01,7.26347e-01,9.99999e-01,9.99999e-01,9.81981e-01,7.39864e-01,9.99743e-01
8.285238370e-01,7.32667e-01,9.99999e-01,9.99999e-01,9.84594e-01,7.44280e-01,9.99798e-01
8.326664562e-01,7.36930e-01,9.99999e-01,9.99999e-01,9.84446e-01,7.48634e-01,9.99916e-01
8.368297885e-01,7.44553e-01,9.99999e-01,9.99999e-01,9.88895e-01,7.52928e-01,9.99980e-01
8.410139374e-01,7.52150e-01,9.99999e-01,9.99999e-01,9.93394e-01,7.57160e-01,9.99988e-01
8.452190071e-01,7.58860e-01,9.99999e-01,9.99999e-01,9.96759e-01,7.61332e-01,9.99992e-01
8.494451021e-01,7.63998e-01,9.99999e-01,9.99999e-01,9.98116e-01,7.65443e-01,9.99994e-01
8.536923276e-01,7.68637e-01,9.99999e-01,9.99999e-01,9.98887e-01,7.69496e-01,9.99996e-01
8.579607893e-01,7.72958e-01,9.99999e-01,9.99999e-01,9.99313e-01,7.73488e-01,9.99998e-01
8.622505932e-01,7.77084e-01,9.99999e-01,9.99999e-01,9.99564e-01,7.77423e-01,9.99999e-01
8.665618462e-01,7.43077e-01,9.99999e-01,9.51328e-01,9.99730e-01,7.81298e-01,9.99999e-01
8.708946554e-01,6.40070e-01,9.99999e-01,8.15501e-01,9.99690e-01,7.85116e-01,9.99999e-01
8.752491287e-01,6.70589e-01,9.99999e-01,8.50400e-01,9.99586e-01,7.88877e-01,9.99999e-01
8.796253743e-01,7.25349e-01,9.99999e-01,9.15691e-01,9.99426e-01,7.92581e-01,9.99998e-01
8.840235012e-01,7.60352e-01,9.99999e-01,9.55566e-01,9.99345e-01,7.96229e-01,9.99995e-01
8.884436187e-01,7.83780e-01,9.99999e-01,9.82308e-01,9.97592e-01,7.99820e-01,9.99988e-01
8.928858368e-01,7.77567e-01,9.99999e-01,9.92797e-01,9.74950e-01,8.03357e-01,9.99934e-01
8.973502660e-01,7.69910e-01,9.99999e-01,9.98251e-01,9.56202e-01,8.06839e-01,9.99665e-01
9.018370173e-01,7.91441e-01,9.99999e-01,9.99807e-01,9.77463e-01,8.10267e-01,9.99473e-01
9.063462024e-01,7.93084e-01,9.99999e-01,9.94966e-01,9.80037e-01,8.13641e-01,9.99537e-01
9.108779334e-01,7.82402e-01,9.99999e-01,9.88638e-01,9.69095e-01,8.16962e-01,9.99519e-01
9.154323231e-01,7.89149e-01,9.99999e-01,9.97335e-01,9.65029e-01,8.20231e-01,9.99602e-01
9.200094847e-01,7.69395e-01,9.99999e-01,9.60218e-01,9.72511e-01,8.23448e-01,9.99777e-01
9.246095321e-01,7.47818e-01,9.99999e-01,9.45495e-01,9.56531e-01,8.26614e-01,9.99743e-01
9.292325798e-01,5.89949e-01,9.99999e-01,9.56631e-01,7.41941e-01,8.29729e-01,9.99002e-01
9.338787427e-01,5.42282e-01,9.99999e-01,9.58362e-01,6.80440e-01,8.32794e-01,9.95883e-01
9.385481364e-01,6.91369e-01,9.99999e-01,9.69292e-01,8.56726e-01,8.35809e-01,9.95106e-01
9.432408771e-01,6.58961e-01,9.99999e-01,9.81138e-01,8.03639e-01,8.38775e-01,9.95776e-01
9.479570815e-01,6.12449e-01,9.99999e-01,9.90272e-01,7.37086e-01,8.41693e-01,9.96561e-01
9.526968669e-01,6.70109e-01,9.99999e-01,9.95302e-01,7.98663e-01,8.44563e-01,9.97901e-01
9.574603512e-01,6.89393e-01,9.99999e-01,9.97990e-01,8.16001e-01,8.47386e-01,9.98933e-01
9.622476530e-01,7.20191e-01,9.99999e-01,9.99372e-01,8.48261e-01,8.50162e-01,9.99261e-01
9.670588912e-01,7.75294e-01,9.99999e-01,9.99812e-01,9.09641e-01,8.52893e-01,9.99495e-01
9.718941857e-01,8.06306e-01,9.99999e-01,9.99986e-01,9.42773e-01,8.55577e-01,9.99628e-01
9.767536566e-01,8.17026e-01,9.99999e-01,9.99999e-01,9.52273e-01,8.58217e-01,9.99715e-01
9.816374249e-01,8.30162e-01,9.99999e-01,9.99999e-01,9.64486e-01,8.60813e-01,9.99901e-01
9.865456120e-01,8.44082e-01,9.99999e-01,9.99999e-01,9.77684e-01,8.63365e-01,9.99979e-01
9.914783401e-01,8.53881e-01,9.99999e-01,9.99999e-01,9.86153e-01,8.65875e-01,9.99993e-01
9.964357318e-01,8.61773e-01,9.99999e-01,9.99999e-01,9.92438e-01,8.68341e-01,9.99996e-01
1.001417910e+00,8.66812e-01,9.99999e-01,9.99999e-01,9.95463e-01,8.70766e-01,9.99994e-01
1.006425000e+00,8.70882e-01,9.99999e-01,9.99999e-01,9.97410e-01,8.73149e-01,9.99992e-01
1.011457125e+00,8.74080e-01,9.99999e-01,9.99999e-01,9.98393e-01,8.75492e-01,9.99992e-01
1.016514411e+00,8.76833e-01,9.99999e-01,9.99999e-01,9.98908e-01,8.77794e-01,9.99994e-01
1.021596983e+00,8.79263e-01,9.99999e-01,9.99971e-01,9.99129e-01,8.80057e-01,9.99994e-01
1.026704968e+00,8.79951e-01,9.99999e-01,9.98038e-01,9.99321e-01,8.82281e-01,9.99996e-01
1.031838492e+00,8.58317e-01,9.99999e-01,9.70902e-01,9.99506e-01,8.84466e-01,9.99998e-01
1.036997685e+00,2.41084e-01,9.99999e-01,2.71982e-01,9.99706e-01,8.86614e-01,9.99999e-01
1.042182673e+00,2.83835e-01,9.99999e-01,3.19478e-01,9.99649e-01,8.88724e-01,9.99999e-01
1.047393587e+00,2.66149e-01,9.99999e-01,2.98902e-01,9.99536e-01,8.90797e-01,9.99999e-01
1.052630555e+00,3.58130e-02,9.99999e-01,4.01317e-02,9.99363e-01,8.92834e-01,9.99999e-01
1.057893707e+00,6.93348e-02,9.99999e-01,7.75474e-02,9.98936e-01,8.94835e-01,9.99999e-01
1.063183176e+00,1.39976e-01,9.99999e-01,1.56304e-01,9.98251e-01,8.96802e-01,9.99998e-01
1.068499092e+00,2.58247e-01,9.99999e-01,2.88108e-01,9.97074e-01,8.98733e-01,9.99997e-01
1.073841587e+00,4.10178e-01,9.99999e-01,4.56857e-01,9.96572e-01,9.00630e-01,9.99995e-01
1.079210795e+00,5.48173e-01,9.99999e-01,6.09948e-01,9.95615e-01,9.02494e-01,9.99987e-01
1.084606849e+00,6.86032e-01,9.99999e-01,7.63576e-01,9.93362e-01,9.04325e-01,9.99971e-01
1.090029883e+00,7.80500e-01,9.99999e-01,8.69597e-01,9.90449e-01,9.06123e-01,9.99941e-01
1.095480033e+00,8.25754e-01,9.99999e-01,9.33577e-01,9.74202e-01,9.07889e-01,9.99894e-01
1.100957433e+00,8.23348e-01,9.99999e-01,9.67467e-01,9.35602e-01,9.09624e-01,9.99805e-01
1.106462220e+00,7.57995e-01,9.99999e-01,9.86432e-01,8.43240e-01,9.11327e-01,9.99670e-01
1.111994531e+00,6.33602e-01,9.99999e-01,9.94951e-01,6.97967e-01,9.13000e-01,9.99126e-01
1.117554504e+00,5.07663e-01,9.99999e-01,9.98768e-01,5.57405e-01,9.14643e-01,9.96851e-01
1.123142276e+00,5.88106e-01,9.99999e-01,9.99918e-01,6.46709e-01,9.16256e-01,9.92549e-01
1.128757988e+00,6.90307e-01,9.99999e-01,9.99999e-01,7.58633e-01,9.17841e-01,9.91386e-01
1.134401778e+00,4.75524e-01,9.99999e-01,9.99999e-01,5.21031e-01,9.19396e-01,9.92670e-01
1.140073787e+00,7.77833e-01,9.99999e-01,9.99999e-01,8.49600e-01,9.20924e-01,9.94139e-01
1.145774156e+00,6.51209e-01,9.99999e-01,9.99999e-01,7.09783e-01,9.22423e-01,9.94634e-01
1.151503026e+00,6.27270e-01,9.99999e-01,9.99999e-01,6.80978e-01,9.23896e-01,9.97007e-01
1.157260541e+00,6.74441e-01,9.99999e-01,9.99999e-01,7.29509e-01,9.25341e-01,9.99103e-01
1.163046844e+00,7.34482e-01,9.99999e-01,9.99999e-01,7.92727e-01,9.26761e-01,9.99745e-01
1.168862078e+00,7.90449e-01,9.99999e-01,9.99999e-01,8.51746e-01,9.28154e-01,9.99868e-01
1.174706389e+00,8.41760e-01,9.99999e-01,9.99999e-01,9.05740e-01,9.29522e-01,9.99826e-01
1.180579921e+00,8.76238e-01,9.99999e-01,9.99999e-01,9.41562e-01,9.30865e-01,9.99737e-01
1.186482820e+00,9.00787e-01,9.99999e-01,9.99995e-01,9.66583e-01,9.32183e-01,9.99730e-01
1.192415234e+00,9.08551e-01,9.99999e-01,9.92944e-01,9.80369e-01,9.33477e-01,9.99797e-01
1.198377311e+00,5.36367e-01,9.99999e-01,5.82036e-01,9.83415e-01,9.34747e-01,9.99809e-01
1.204369197e+00,6.92143e-07,9.99999e-01,7.46382e-07,9.84295e-01,9.35994e-01,9.99827e-01
1.210391043e+00,3.68293e-22,9.99999e-01,3.96316e-22,9.84984e-01,9.37218e-01,9.99894e-01
1.216442998e+00,1.99906e-19,9.99999e-01,2.14740e-19,9.87224e-01,9.38419e-01,9.99935e-01
1.222525213e+00,3.79536e-19,9.99999e-01,4.06062e-19,9.90041e-01,9.39597e-01,9.99959e-01
1.228637839e+00,9.57727e-15,9.99999e-01,1.02310e-14,9.93074e-01,9.40754e-01,9.99980e-01
