#,Wave/freq,Total,N2,CO2,H2O,Rayleigh,CIA
4.000000000e-01,9.32600e-04,9.99999e-01,9.99999e-01,9.99986e-01,9.32612e-04,9.99999e-01
4.020000000e-01,1.07057e-03,9.99999e-01,9.99999e-01,9.99991e-01,1.07058e-03,9.99999e-01
4.040100000e-01,1.22543e-03,9.99999e-01,9.99999e-01,9.99995e-01,1.22544e-03,9.99999e-01
4.060300500e-01,1.39895e-03,9.99999e-01,9.99999e-01,9.99998e-01,1.39896e-03,9.99999e-01
4.080602003e-01,1.59287e-03,9.99999e-01,9.99999e-01,9.99999e-01,1.59287e-03,9.99999e-01
4.101005013e-01,1.80903e-03,9.99999e-01,9.99999e-01,9.99999e-01,1.80903e-03,9.99999e-01
4.121510038e-01,2.04936e-03,9.99999e-01,9.99999e-01,9.99999e-01,2.04936e-03,9.99999e-01
4.142117588e-01,2.31589e-03,9.99999e-01,9.99999e-01,9.99995e-01,2.31590e-03,9.99999e-01
4.162828176e-01,2.61075e-03,9.99999e-01,9.99999e-01,9.99982e-01,2.61080e-03,9.99999e-01
4.183642317e-01,2.93626e-03,9.99999e-01,9.99999e-01,9.99989e-01,2.93628e-03,9.99999e-01
4.204560528e-01,3.29468e-03,9.99999e-01,9.99999e-01,9.99993e-01,3.29470e-03,9.99999e-01
4.225583331e-01,3.68845e-03,9.99999e-01,9.99999e-01,9.99997e-01,3.68846e-03,9.99999e-01
4.246711247e-01,4.12007e-03,9.99999e-01,9.99999e-01,9.99997e-01,4.12008e-03,9.99999e-01
4.267944804e-01,4.59215e-03,9.99999e-01,9.99999e-01,9.99996e-01,4.59216e-03,9.99999e-01
4.289284528e-01,5.10737e-03,9.99999e-01,9.99999e-01,9.99997e-01,5.10738e-03,9.99999e-01
4.310730950e-01,5.66848e-03,9.99999e-01,9.99999e-01,9.99998e-01,5.66848e-03,9.99999e-01
4.332284605e-01,6.27829e-03,9.99999e-01,9.99999e-01,9.99999e-01,6.27829e-03,9.99999e-01
4.353946028e-01,6.93968e-03,9.99999e-01,9.99999e-01,9.99999e-01,6.93968e-03,9.99999e-01
4.375715758e-01,7.65557e-03,9.99999e-01,9.99999e-01,9.99997e-01,7.65558e-03,9.99999e-01
4.397594337e-01,8.42886e-03,9.99999e-01,9.99999e-01,9.99984e-01,8.42898e-03,9.99999e-01
4.419582309e-01,9.26219e-03,9.99999e-01,9.99999e-01,9.99924e-01,9.26288e-03,9.99999e-01
4.441680220e-01,1.01597e-02,9.99999e-01,9.99999e-01,9.99941e-01,1.01603e-02,9.99999e-01
4.463888621e-01,1.11237e-02,9.99999e-01,9.99999e-01,9.99939e-01,1.11244e-02,9.99999e-01
4.486208064e-01,1.21577e-02,9.99999e-01,9.99999e-01,9.99962e-01,1.21581e-02,9.99999e-01
4.508639105e-01,1.32644e-02,9.99999e-01,9.99999e-01,9.99982e-01,1.32647e-02,9.99999e-01
4.531182300e-01,1.44469e-02,9.99999e-01,9.99999e-01,9.99992e-01,1.44470e-02,9.99999e-01
4.553838212e-01,1.57081e-02,9.99999e-01,9.99999e-01,9.99994e-01,1.57082e-02,9.99999e-01
4.576607403e-01,1.70512e-02,9.99999e-01,9.99999e-01,9.99997e-01,1.70513e-02,9.99999e-01
4.599490440e-01,1.84792e-02,9.99999e-01,9.99999e-01,9.99997e-01,1.84792e-02,9.99999e-01
4.622487892e-01,1.99950e-02,9.99999e-01,9.99999e-01,9.99999e-01,1.99950e-02,9.99999e-01
4.645600332e-01,2.16014e-02,9.99999e-01,9.99999e-01,9.99998e-01,2.16014e-02,9.99999e-01
4.668828333e-01,2.33009e-02,9.99999e-01,9.99999e-01,9.99981e-01,2.33013e-02,9.99999e-01
4.692172475e-01,2.50965e-02,9.99999e-01,9.99999e-01,9.99961e-01,2.50974e-02,9.99999e-01
4.715633337e-01,2.69917e-02,9.99999e-01,9.99999e-01,9.99974e-01,2.69923e-02,9.99999e-01
4.739211504e-01,2.89879e-02,9.99999e-01,9.99999e-01,9.99975e-01,2.89886e-02,9.99999e-01
4.762907561e-01,3.10883e-02,9.99999e-01,9.99999e-01,9.99987e-01,3.10887e-02,9.99999e-01
4.786722099e-01,3.32947e-02,9.99999e-01,9.99999e-01,9.99994e-01,3.32948e-02,9.99999e-01
4.810655710e-01,3.56093e-02,9.99999e-01,9.99999e-01,9.99998e-01,3.56093e-02,9.99999e-01
4.834708988e-01,3.80336e-02,9.99999e-01,9.99999e-01,9.99984e-01,3.80341e-02,9.99999e-01
4.858882533e-01,4.05702e-02,9.99999e-01,9.99999e-01,9.99972e-01,4.05713e-02,9.99999e-01
4.883176946e-01,4.32215e-02,9.99999e-01,9.99999e-01,9.99977e-01,4.32225e-02,9.99999e-01
4.907592831e-01,4.59885e-02,9.99999e-01,9.99999e-01,9.99979e-01,4.59894e-02,9.99999e-01
4.932130795e-01,4.88728e-02,9.99999e-01,9.99999e-01,9.99985e-01,4.88735e-02,9.99999e-01
4.956791449e-01,5.18758e-02,9.99999e-01,9.99999e-01,9.99991e-01,5.18762e-02,9.99999e-01
4.981575406e-01,5.49964e-02,9.99999e-01,9.99999e-01,9.99961e-01,5.49984e-02,9.99999e-01
5.006483283e-01,5.82356e-02,9.99999e-01,9.99999e-01,9.99900e-01,5.82414e-02,9.99998e-01
5.031515699e-01,6.15747e-02,9.99999e-01,9.99999e-01,9.99499e-01,6.16058e-02,9.99994e-01
5.056673278e-01,6.50747e-02,9.99999e-01,9.99999e-01,9.99736e-01,6.50923e-02,9.99993e-01
5.081956644e-01,6.86782e-02,9.99999e-01,9.99999e-01,9.99667e-01,6.87013e-02,9.99995e-01
5.107366428e-01,7.24169e-02,9.99999e-01,9.99999e-01,9.99775e-01,7.24332e-02,9.99998e-01
5.132903260e-01,7.62783e-02,9.99999e-01,9.99999e-01,9.99871e-01,7.62881e-02,9.99999e-01
5.158567776e-01,8.02616e-02,9.99999e-01,9.99999e-01,9.99945e-01,8.02659e-02,9.99999e-01
5.184360615e-01,8.43645e-02,9.99999e-01,9.99999e-01,9.99977e-01,8.43664e-02,9.99999e-01
5.210282418e-01,8.85884e-02,9.99999e-01,9.99999e-01,9.99991e-01,8.85891e-02,9.99999e-01
5.236333830e-01,9.29304e-02,9.99999e-01,9.99999e-01,9.99966e-01,9.29334e-02,9.99999e-01
5.262515499e-01,9.73967e-02,9.99999e-01,9.99999e-01,9.99979e-01,9.73987e-02,9.99999e-01
5.288828077e-01,1.01982e-01,9.99999e-01,9.99999e-01,9.99980e-01,1.01984e-01,9.99999e-01
5.315272217e-01,1.06686e-01,9.99999e-01,9.99999e-01,9.99983e-01,1.06688e-01,9.99999e-01
5.341848578e-01,1.11509e-01,9.99999e-01,9.99999e-01,9.99988e-01,1.11510e-01,9.99999e-01
5.368557821e-01,1.16443e-01,9.99999e-01,9.99999e-01,9.99961e-01,1.16448e-01,9.99999e-01
5.395400610e-01,1.21483e-01,9.99999e-01,9.99999e-01,9.99862e-01,1.21500e-01,9.99998e-01
5.422377613e-01,1.26643e-01,9.99999e-01,9.99999e-01,9.99823e-01,1.26666e-01,9.99996e-01
5.449489501e-01,1.31920e-01,9.99999e-01,9.99999e-01,9.99834e-01,1.31942e-01,9.99996e-01
5.476736949e-01,1.37308e-01,9.99999e-01,9.99999e-01,9.99854e-01,1.37328e-01,9.99997e-01
5.504120634e-01,1.42805e-01,9.99999e-01,9.99999e-01,9.99894e-01,1.42820e-01,9.99999e-01
5.531641237e-01,1.48409e-01,9.99999e-01,9.99999e-01,9.99946e-01,1.48417e-01,9.99999e-01
5.559299443e-01,1.54113e-01,9.99999e-01,9.99999e-01,9.99973e-01,1.54117e-01,9.99999e-01
5.587095940e-01,1.59913e-01,9.99999e-01,9.99999e-01,9.99983e-01,1.59916e-01,9.99999e-01
5.615031420e-01,1.65809e-01,9.99999e-01,9.99999e-01,9.99981e-01,1.65812e-01,9.99999e-01
5.643106577e-01,1.71800e-01,9.99999e-01,9.99999e-01,9.99979e-01,1.71803e-01,9.99999e-01
5.671322110e-01,1.77841e-01,9.99999e-01,9.99999e-01,9.99750e-01,1.77886e-01,9.99997e-01
5.699678720e-01,1.84008e-01,9.99999e-01,9.99999e-01,9.99737e-01,1.84057e-01,9.99992e-01
5.728177114e-01,1.90261e-01,9.99999e-01,9.99999e-01,9.99725e-01,1.90314e-01,9.99993e-01
5.756818000e-01,1.96605e-01,9.99999e-01,9.99999e-01,9.99748e-01,1.96655e-01,9.99996e-01
5.785602090e-01,2.03030e-01,9.99999e-01,9.99999e-01,9.99781e-01,2.03074e-01,9.99998e-01
5.814530100e-01,2.09525e-01,9.99999e-01,9.99999e-01,9.99779e-01,2.09571e-01,9.99999e-01
5.843602750e-01,2.16083e-01,9.99999e-01,9.99999e-01,9.99736e-01,2.16140e-01,9.99998e-01
5.872820764e-01,2.22272e-01,9.99999e-01,9.99999e-01,9.97734e-01,2.22780e-01,9.99983e-01
5.902184868e-01,2.28850e-01,9.99999e-01,9.99999e-01,9.97267e-01,2.29487e-01,9.99956e-01
5.931695792e-01,2.35790e-01,9.99999e-01,9.99999e-01,9.98066e-01,2.36257e-01,9.99957e-01
5.961354271e-01,2.42566e-01,9.99999e-01,9.99999e-01,9.97882e-01,2.43087e-01,9.99975e-01
5.991161043e-01,2.49586e-01,9.99999e-01,9.99999e-01,9.98456e-01,2.49974e-01,9.99992e-01
6.021116848e-01,2.56689e-01,9.99999e-01,9.99999e-01,9.99124e-01,2.56914e-01,9.99998e-01
6.051222432e-01,2.63787e-01,9.99999e-01,9.99999e-01,9.99556e-01,2.63904e-01,9.99999e-01
6.081478544e-01,2.70888e-01,9.99999e-01,9.99999e-01,9.99808e-01,2.70940e-01,9.99999e-01
6.111885937e-01,2.77997e-01,9.99999e-01,9.99999e-01,9.99918e-01,2.78020e-01,9.99999e-01
6.142445367e-01,2.85129e-01,9.99999e-01,9.99999e-01,9.99963e-01,2.85139e-01,9.99999e-01
6.173157594e-01,2.92288e-01,9.99999e-01,9.99999e-01,9.99979e-01,2.92294e-01,9.99999e-01
6.204023382e-01,2.99478e-01,9.99999e-01,9.99999e-01,9.99982e-01,2.99483e-01,9.99999e-01
6.235043498e-01,3.06678e-01,9.99999e-01,9.99999e-01,9.99924e-01,3.06701e-01,9.99999e-01
6.266218716e-01,3.13820e-01,9.99999e-01,9.99999e-01,9.99606e-01,3.13945e-01,9.99996e-01
6.297549810e-01,3.21164e-01,9.99999e-01,9.99999e-01,9.99855e-01,3.21212e-01,9.99993e-01
6.329037559e-01,3.28404e-01,9.99999e-01,9.99999e-01,9.99714e-01,3.28499e-01,9.99995e-01
6.360682746e-01,3.35720e-01,9.99999e-01,9.99999e-01,9.99756e-01,3.35802e-01,9.99996e-01
6.392486160e-01,3.43010e-01,9.99999e-01,9.99999e-01,9.99684e-01,3.43119e-01,9.99998e-01
6.424448591e-01,3.50297e-01,9.99999e-01,9.99999e-01,9.99576e-01,3.50446e-01,9.99997e-01
6.456570834e-01,3.57073e-01,9.99999e-01,9.99999e-01,9.98037e-01,3.57779e-01,9.99987e-01
6.488853688e-01,3.64584e-01,9.99999e-01,9.99999e-01,9.98569e-01,3.65117e-01,9.99969e-01
6.521297956e-01,3.71904e-01,9.99999e-01,9.99999e-01,9.98541e-01,3.72457e-01,9.99974e-01
6.553904446e-01,3.79235e-01,9.99999e-01,9.99999e-01,9.98545e-01,3.79794e-01,9.99980e-01
6.586673968e-01,3.86643e-01,9.99999e-01,9.99999e-01,9.98756e-01,3.87127e-01,9.99993e-01
6.619607338e-01,3.94178e-01,9.99999e-01,9.99999e-01,9.99307e-01,3.94452e-01,9.99998e-01
6.652705375e-01,4.01600e-01,9.99999e-01,9.99999e-01,9.99584e-01,4.01767e-01,9.99998e-01
6.685968902e-01,4.08997e-01,9.99999e-01,9.99999e-01,9.99822e-01,4.09069e-01,9.99999e-01
6.719398746e-01,4.16318e-01,9.99999e-01,9.99999e-01,9.99910e-01,4.16356e-01,9.99999e-01
6.752995740e-01,4.23604e-01,9.99999e-01,9.99999e-01,9.99951e-01,4.23624e-01,9.99999e-01
6.786760719e-01,4.30842e-01,9.99999e-01,9.99999e-01,9.99929e-01,4.30873e-01,9.99999e-01
6.820694522e-01,4.38045e-01,9.99999e-01,9.99999e-01,9.99879e-01,4.38098e-01,9.99998e-01
6.854797995e-01,4.45229e-01,9.99999e-01,9.99999e-01,9.99844e-01,4.45299e-01,9.99998e-01
6.889071985e-01,4.52299e-01,9.99999e-01,9.99999e-01,9.99622e-01,4.52472e-01,9.99996e-01
6.923517345e-01,4.56783e-01,9.99999e-01,9.99999e-01,9.93867e-01,4.59615e-01,9.99970e-01
6.958134932e-01,4.65220e-01,9.99999e-01,9.99999e-01,9.96834e-01,4.66727e-01,9.99934e-01
6.992925606e-01,4.72341e-01,9.99999e-01,9.99999e-01,9.96968e-01,4.73805e-01,9.99941e-01
7.027890234e-01,4.79033e-01,9.99999e-01,9.99999e-01,9.96270e-01,4.80847e-01,9.99954e-01
7.063029686e-01,4.86311e-01,9.99999e-01,9.99999e-01,9.96863e-01,4.87852e-01,9.99977e-01
7.098344834e-01,4.93323e-01,9.99999e-01,9.99999e-01,9.96990e-01,4.94818e-01,9.99986e-01
7.133836558e-01,4.99706e-01,9.99999e-01,9.99999e-01,9.95967e-01,5.01743e-01,9.99973e-01
7.169505741e-01,4.92230e-01,9.99999e-01,9.99999e-01,9.67965e-01,5.08624e-01,9.99794e-01
7.205353270e-01,5.07203e-01,9.99999e-01,9.99999e-01,9.84334e-01,5.15462e-01,9.99636e-01
7.241380036e-01,5.11659e-01,9.99999e-01,9.99999e-01,9.80021e-01,5.22254e-01,9.99686e-01
7.277586936e-01,5.19322e-01,9.99999e-01,9.99999e-01,9.81960e-01,5.28998e-01,9.99743e-01
7.313974871e-01,5.25397e-01,9.99999e-01,9.99999e-01,9.80895e-01,5.35694e-01,9.99879e-01
7.350544745e-01,5.36634e-01,9.99999e-01,9.99999e-01,9.89521e-01,5.42339e-01,9.99957e-01
7.387297469e-01,5.44689e-01,9.99999e-01,9.99999e-01,9.92286e-01,5.48934e-01,9.99980e-01
7.424233956e-01,5.53377e-01,9.99999e-01,9.99999e-01,9.96224e-01,5.55475e-01,9.99996e-01
7.461355126e-01,5.60677e-01,9.99999e-01,9.99999e-01,9.97709e-01,5.61964e-01,9.99998e-01
7.498661902e-01,5.67792e-01,9.99999e-01,9.99999e-01,9.98934e-01,5.68398e-01,9.99999e-01
7.536155211e-01,5.74475e-01,9.99999e-01,9.99999e-01,9.99476e-01,5.74776e-01,9.99999e-01
7.573835987e-01,5.80941e-01,9.99999e-01,9.99999e-01,9.99730e-01,5.81097e-01,9.99999e-01
7.611705167e-01,5.87263e-01,9.99999e-01,9.99999e-01,9.99832e-01,5.87362e-01,9.99999e-01
7.649763693e-01,5.93505e-01,9.99999e-01,9.99999e-01,9.99894e-01,5.93568e-01,9.99999e-01
7.688012511e-01,5.99671e-01,9.99999e-01,9.99999e-01,9.99926e-01,5.99715e-01,9.99999e-01
7.726452574e-01,6.05766e-01,9.99999e-01,9.99999e-01,9.99939e-01,6.05802e-01,9.99999e-01
7.765084837e-01,6.11777e-01,9.99999e-01,9.99999e-01,9.99913e-01,6.11830e-01,9.99999e-01
7.803910261e-01,6.03022e-01,9.99999e-01,9.76439e-01,9.99628e-01,6.17796e-01,9.99999e-01
7.842929812e-01,5.63140e-01,9.99999e-01,9.04035e-01,9.98704e-01,6.23701e-01,9.99997e-01
7.882144461e-01,5.63276e-01,9.99999e-01,8.97071e-01,9.97341e-01,6.29544e-01,9.99981e-01
7.921555184e-01,5.95832e-01,9.99999e-01,9.39213e-01,9.98544e-01,6.35325e-01,9.99967e-01
7.961162960e-01,6.13234e-01,9.99999e-01,9.59110e-01,9.97416e-01,6.41043e-01,9.99969e-01
8.000968774e-01,6.30323e-01,9.99999e-01,9.77613e-01,9.97024e-01,6.46698e-01,9.99967e-01
8.040973618e-01,6.42769e-01,9.99999e-01,9.88367e-01,9.97021e-01,6.52290e-01,9.99975e-01
8.081178486e-01,6.49876e-01,9.99999e-01,9.94635e-01,9.93273e-01,6.57818e-01,9.99974e-01
8.121584379e-01,6.43735e-01,9.99999e-01,9.98347e-01,9.72215e-01,6.63283e-01,9.99905e-01
8.162192301e-01,6.46295e-01,9.99999e-01,9.99634e-01,9.67207e-01,6.68683e-01,9.99646e-01
8.203003262e-01,6.62518e-01,9.99999e-01,9.99994e-01,9.83345e-01,6.74020e-01,9.99586e-01
8.244018279e-01,6.63447e-01,9.99999e-01,9.99999e-01,9.76993e-01,6.79293e-01,9.99670e-01
8.285238370e-01,6.70830e-01,9.99999e-01,9.99999e-01,9.80280e-01,6.84501e-01,9.99741e-01
8.326664562e-01,6.75845e-01,9.99999e-01,9.99999e-01,9.80093e-01,6.89646e-01,9.99892e-01
8.368297885e-01,6.84826e-01,9.99999e-01,9.99999e-01,9.85773e-01,6.94726e-01,9.99975e-01
8.410139374e-01,6.93806e-01,9.99999e-01,9.99999e-01,9.91530e-01,6.99742e-01,9.99985e-01
8.452190071e-01,7.01760e-01,9.99999e-01,9.99999e-01,9.95842e-01,7.04695e-01,9.99990e-01
8.494451021e-01,7.07864e-01,9.99999e-01,9.99999e-01,9.97583e-01,7.09583e-01,9.99992e-01
8.536923276e-01,7.13386e-01,9.99999e-01,9.99999e-01,9.98572e-01,7.14408e-01,9.99995e-01
8.579607893e-01,7.18536e-01,9.99999e-01,9.99999e-01,9.99119e-01,7.19170e-01,9.99998e-01
8.622505932e-01,7.23463e-01,9.99999e-01,9.99999e-01,9.99441e-01,7.23868e-01,9.99999e-01
8.665618462e-01,6.85958e-01,9.99999e-01,9.41915e-01,9.99653e-01,7.28503e-01,9.99999e-01
8.708946554e-01,5.65419e-01,9.99999e-01,7.71595e-01,9.99603e-01,7.33075e-01,9.99999e-01
8.752491287e-01,5.99455e-01,9.99999e-01,8.13148e-01,9.99469e-01,7.37585e-01,9.99998e-01
8.796253743e-01,6.62412e-01,9.99999e-01,8.93344e-01,9.99264e-01,7.42033e-01,9.99997e-01
8.840235012e-01,7.03567e-01,9.99999e-01,9.43378e-01,9.99159e-01,7.46419e-01,9.99994e-01
8.884436187e-01,7.31484e-01,9.99999e-01,9.77357e-01,9.96912e-01,7.50744e-01,9.99984e-01
8.928858368e-01,7.24073e-01,9.99999e-01,9.90766e-01,9.67995e-01,7.55007e-01,9.99915e-01
8.973502660e-01,7.14962e-01,9.99999e-01,9.97756e-01,9.44212e-01,7.59210e-01,9.99570e-01
9.018370173e-01,7.40694e-01,9.99999e-01,9.99752e-01,9.71207e-01,7.63352e-01,9.99324e-01
9.063462024e-01,7.42687e-01,9.99999e-01,9.93552e-01,9.74479e-01,7.67435e-01,9.99406e-01
9.108779334e-01,7.29881e-01,9.99999e-01,9.85445e-01,9.60555e-01,7.71458e-01,9.99383e-01
9.154323231e-01,7.37952e-01,9.99999e-01,9.96582e-01,9.55380e-01,7.75422e-01,9.99490e-01
9.200094847e-01,7.14887e-01,9.99999e-01,9.49734e-01,9.64897e-01,7.79327e-01,9.99714e-01
9.246095321e-01,6.89012e-01,9.99999e-01,9.30641e-01,9.44785e-01,7.83175e-01,9.99671e-01
9.292325798e-01,5.09953e-01,9.99999e-01,9.44803e-01,6.83749e-01,7.86965e-01,9.98719e-01
9.338787427e-01,4.58366e-01,9.99999e-01,9.46940e-01,6.12848e-01,7.90697e-01,9.94720e-01
9.385481364e-01,6.23873e-01,9.99999e-01,9.60781e-01,8.21258e-01,7.94374e-01,9.93723e-01
9.432408771e-01,5.87609e-01,9.99999e-01,9.75860e-01,7.57955e-01,7.97994e-01,9.94582e-01
9.479570815e-01,5.36743e-01,9.99999e-01,9.87533e-01,6.80739e-01,8.01559e-01,9.95588e-01
9.526968669e-01,6.00357e-01,9.99999e-01,9.93975e-01,7.51975e-01,8.05069e-01,9.97307e-01
9.574603512e-01,6.21237e-01,9.99999e-01,9.97421e-01,7.71310e-01,8.08524e-01,9.98630e-01
9.622476530e-01,6.56684e-01,9.99999e-01,9.99195e-01,8.10190e-01,8.11925e-01,9.99052e-01
9.670588912e-01,7.21565e-01,9.99999e-01,9.99758e-01,8.85837e-01,8.15274e-01,9.99352e-01
9.718941857e-01,7.58622e-01,9.99999e-01,9.99982e-01,9.27222e-01,8.18569e-01,9.99522e-01
9.767536566e-01,7.71575e-01,9.99999e-01,9.99999e-01,9.39211e-01,8.21813e-01,9.99635e-01
9.816374249e-01,7.87510e-01,9.99999e-01,9.99999e-01,9.54672e-01,8.25004e-01,9.99873e-01
9.865456120e-01,8.04487e-01,9.99999e-01,9.99999e-01,9.71457e-01,8.28145e-01,9.99973e-01
9.914783401e-01,8.16489e-01,9.99999e-01,9.99999e-01,9.82265e-01,8.31235e-01,9.99992e-01
9.964357318e-01,8.26186e-01,9.99999e-01,9.99999e-01,9.90306e-01,8.34276e-01,9.99995e-01
1.001417910e+00,8.32391e-01,9.99999e-01,9.99999e-01,9.94181e-01,8.37267e-01,9.99993e-01
1.006425000e+00,8.37410e-01,9.99999e-01,9.99999e-01,9.96677e-01,8.40209e-01,9.99990e-01
1.011457125e+00,8.41359e-01,9.99999e-01,9.99999e-01,9.97938e-01,8.43104e-01,9.99990e-01
1.016514411e+00,8.44761e-01,9.99999e-01,9.99999e-01,9.98599e-01,8.45951e-01,9.99993e-01
1.021596983e+00,8.47768e-01,9.99999e-01,9.99963e-01,9.98883e-01,8.48751e-01,9.99993e-01
1.026704968e+00,8.48621e-01,9.99999e-01,9.97484e-01,9.99129e-01,8.51505e-01,9.99995e-01
1.031838492e+00,8.24166e-01,9.99999e-01,9.65420e-01,9.99367e-01,8.54213e-01,9.99998e-01
1.036997685e+00,1.88618e-01,9.99999e-01,2.20191e-01,9.99623e-01,8.56875e-01,9.99999e-01
1.042182673e+00,2.02622e-01,9.99999e-01,2.35843e-01,9.99550e-01,8.59494e-01,9.99999e-01
1.047393587e+00,2.02782e-01,9.99999e-01,2.35353e-01,9.99404e-01,8.62068e-01,9.99999e-01
1.052630555e+00,1.65795e-02,9.99999e-01,1.91880e-02,9.99183e-01,8.64599e-01,9.99999e-01
1.057893707e+00,3.53600e-02,9.99999e-01,4.08214e-02,9.98635e-01,8.67087e-01,9.99999e-01
1.063183176e+00,8.39757e-02,9.99999e-01,9.67432e-02,9.97756e-01,8.69533e-01,9.99998e-01
1.068499092e+00,1.77823e-01,9.99999e-01,2.04618e-01,9.96246e-01,8.71938e-01,9.99996e-01
1.073841587e+00,3.20547e-01,9.99999e-01,3.68072e-01,9.95603e-01,8.74301e-01,9.99993e-01
1.079210795e+00,4.63605e-01,9.99999e-01,5.31667e-01,9.94377e-01,8.76624e-01,9.99984e-01
1.084606849e+00,6.16960e-01,9.99999e-01,7.07822e-01,9.91491e-01,8.78907e-01,9.99963e-01
1.090029883e+00,7.27719e-01,9.99999e-01,8.35978e-01,9.87762e-01,8.81151e-01,9.99924e-01
1.095480033e+00,7.82231e-01,9.99999e-01,9.15621e-01,9.67024e-01,8.83356e-01,9.99864e-01
1.100957433e+00,7.79338e-01,9.99999e-01,9.58452e-01,9.18196e-01,8.85522e-01,9.99750e-01
1.106462220e+00,7.01380e-01,9.99999e-01,9.82623e-01,8.04117e-01,8.87651e-01,9.99577e-01
1.111994531e+00,5.58381e-01,9.99999e-01,9.93525e-01,6.32168e-01,8.89743e-01,9.98879e-01
1.117554504e+00,4.21685e-01,9.99999e-01,9.98419e-01,4.75417e-01,8.91799e-01,9.95960e-01
1.123142276e+00,5.10630e-01,9.99999e-01,9.99896e-01,5.76836e-01,8.93818e-01,9.90448e-01
1.128757988e+00,6.23794e-01,9.99999e-01,9.99999e-01,7.04126e-01,8.95802e-01,9.88958e-01
1.134401778e+00,4.00955e-01,9.99999e-01,9.99999e-01,4.50857e-01,8.97751e-01,9.90603e-01
1.140073787e+00,7.25117e-01,9.99999e-01,9.99999e-01,8.12086e-01,8.99666e-01,9.92484e-01
1.145774156e+00,5.79112e-01,9.99999e-01,9.99999e-01,6.46803e-01,9.01547e-01,9.93118e-01
1.151503026e+00,5.52954e-01,9.99999e-01,9.99999e-01,6.14443e-01,9.03395e-01,9.96160e-01
1.157260541e+00,6.04377e-01,9.99999e-01,9.99999e-01,6.68434e-01,9.05209e-01,9.98850e-01
1.163046844e+00,6.73692e-01,9.99999e-01,9.99999e-01,7.43018e-01,9.06992e-01,9.99673e-01
1.168862078e+00,7.39671e-01,9.99999e-01,9.99999e-01,8.14086e-01,9.08742e-01,9.99831e-01
1.174706389e+00,8.01759e-01,9.99999e-01,9.99999e-01,8.80803e-01,9.10462e-01,9.99776e-01
1.180579921e+00,8.44077e-01,9.99999e-01,9.99999e-01,9.25682e-01,9.12150e-01,9.99662e-01
1.186482820e+00,8.74508e-01,9.99999e-01,9.99994e-01,9.57327e-01,9.13808e-01,9.99654e-01
1.192415234e+00,8.84221e-01,9.99999e-01,9.90980e-01,9.74877e-01,9.15437e-01,9.99740e-01
1.198377311e+00,5.15702e-01,9.99999e-01,5.72695e-01,9.78766e-01,9.17036e-01,9.99755e-01
1.204369197e+00,3.34637e-08,9.99999e-01,3.68661e-08,9.79895e-01,9.18606e-01,9.99778e-01
1.210391043e+00,8.35259e-28,9.99999e-01,9.17695e-28,9.80773e-01,9.20147e-01,9.99865e-01
1.216442998e+00,2.67900e-24,9.99999e-01,2.93676e-24,9.83635e-01,9.21661e-01,9.99917e-01
1.222525213e+00,5.91362e-24,9.99999e-01,6.44888e-24,9.87237e-01,9.23148e-01,9.99948e-01
1.228637839e+00,1.65088e-18,9.99999e-01,1.79677e-18,9.91120e-01,9.24607e-01,9.99975e-01
