#,Wave/freq,Total,N2,CO2,H2O,Rayleigh,CIA
4.000000000e-01,2.05798e-02,9.99999e-01,9.99999e-01,9.99992e-01,2.05800e-02,9.99999e-01
4.020000000e-01,2.22224e-02,9.99999e-01,9.99999e-01,9.99994e-01,2.22225e-02,9.99999e-01
4.040100000e-01,2.39578e-02,9.99999e-01,9.99999e-01,9.99997e-01,2.39578e-02,9.99999e-01
4.060300500e-01,2.57903e-02,9.99999e-01,9.99999e-01,9.99999e-01,2.57904e-02,9.99999e-01
4.080602003e-01,2.77227e-02,9.99999e-01,9.99999e-01,9.99999e-01,2.77227e-02,9.99999e-01
4.101005013e-01,2.97573e-02,9.99999e-01,9.99999e-01,9.99999e-01,2.97573e-02,9.99999e-01
4.121510038e-01,3.18965e-02,9.99999e-01,9.99999e-01,9.99999e-01,3.18965e-02,9.99999e-01
4.142117588e-01,3.41426e-02,9.99999e-01,9.99999e-01,9.99997e-01,3.41427e-02,9.99999e-01
4.162828176e-01,3.64977e-02,9.99999e-01,9.99999e-01,9.99990e-01,3.64980e-02,9.99999e-01
4.183642317e-01,3.89642e-02,9.99999e-01,9.99999e-01,9.99994e-01,3.89644e-02,9.99999e-01
4.204560528e-01,4.15436e-02,9.99999e-01,9.99999e-01,9.99996e-01,4.15437e-02,9.99999e-01
4.225583331e-01,4.42377e-02,9.99999e-01,9.99999e-01,9.99998e-01,4.42378e-02,9.99999e-01
4.246711247e-01,4.70481e-02,9.99999e-01,9.99999e-01,9.99998e-01,4.70481e-02,9.99999e-01
4.267944804e-01,4.99761e-02,9.99999e-01,9.99999e-01,9.99998e-01,4.99762e-02,9.99999e-01
4.289284528e-01,5.30231e-02,9.99999e-01,9.99999e-01,9.99998e-01,5.30232e-02,9.99999e-01
4.310730950e-01,5.61902e-02,9.99999e-01,9.99999e-01,9.99999e-01,5.61902e-02,9.99999e-01
4.332284605e-01,5.94782e-02,9.99999e-01,9.99999e-01,9.99999e-01,5.94782e-02,9.99999e-01
4.353946028e-01,6.28879e-02,9.99999e-01,9.99999e-01,9.99999e-01,6.28879e-02,9.99999e-01
4.375715758e-01,6.64199e-02,9.99999e-01,9.99999e-01,9.99998e-01,6.64200e-02,9.99999e-01
4.397594337e-01,7.00741e-02,9.99999e-01,9.99999e-01,9.99991e-01,7.00747e-02,9.99999e-01
4.419582309e-01,7.38493e-02,9.99999e-01,9.99999e-01,9.99958e-01,7.38523e-02,9.99999e-01
4.441680220e-01,7.77504e-02,9.99999e-01,9.99999e-01,9.99967e-01,7.77529e-02,9.99999e-01
4.463888621e-01,8.17736e-02,9.99999e-01,9.99999e-01,9.99965e-01,8.17764e-02,9.99999e-01
4.486208064e-01,8.59205e-02,9.99999e-01,9.99999e-01,9.99978e-01,8.59223e-02,9.99999e-01
4.508639105e-01,9.01895e-02,9.99999e-01,9.99999e-01,9.99989e-01,9.01904e-02,9.99999e-01
4.531182300e-01,9.45794e-02,9.99999e-01,9.99999e-01,9.99995e-01,9.45798e-02,9.99999e-01
4.553838212e-01,9.90895e-02,9.99999e-01,9.99999e-01,9.99996e-01,9.90898e-02,9.99999e-01
4.576607403e-01,1.03719e-01,9.99999e-01,9.99999e-01,9.99998e-01,1.03719e-01,9.99999e-01
4.599490440e-01,1.08467e-01,9.99999e-01,9.99999e-01,9.99998e-01,1.08467e-01,9.99999e-01
4.622487892e-01,1.13332e-01,9.99999e-01,9.99999e-01,9.99999e-01,1.13332e-01,9.99999e-01
4.645600332e-01,1.18313e-01,9.99999e-01,9.99999e-01,9.99998e-01,1.18313e-01,9.99999e-01
4.668828333e-01,1.23407e-01,9.99999e-01,9.99999e-01,9.99989e-01,1.23408e-01,9.99999e-01
4.692172475e-01,1.28612e-01,9.99999e-01,9.99999e-01,9.99978e-01,1.28615e-01,9.99999e-01
4.715633337e-01,1.33930e-01,9.99999e-01,9.99999e-01,9.99985e-01,1.33932e-01,9.99999e-01
4.739211504e-01,1.39356e-01,9.99999e-01,9.99999e-01,9.99986e-01,1.39358e-01,9.99999e-01
4.762907561e-01,1.44888e-01,9.99999e-01,9.99999e-01,9.99992e-01,1.44889e-01,9.99999e-01
4.786722099e-01,1.50524e-01,9.99999e-01,9.99999e-01,9.99996e-01,1.50525e-01,9.99999e-01
4.810655710e-01,1.56262e-01,9.99999e-01,9.99999e-01,9.99998e-01,1.56262e-01,9.99999e-01
4.834708988e-01,1.62096e-01,9.99999e-01,9.99999e-01,9.99991e-01,1.62097e-01,9.99999e-01
4.858882533e-01,1.68027e-01,9.99999e-01,9.99999e-01,9.99984e-01,1.68029e-01,9.99999e-01
4.883176946e-01,1.74052e-01,9.99999e-01,9.99999e-01,9.99987e-01,1.74054e-01,9.99999e-01
4.907592831e-01,1.80168e-01,9.99999e-01,9.99999e-01,9.99988e-01,1.80170e-01,9.99999e-01
4.932130795e-01,1.86373e-01,9.99999e-01,9.99999e-01,9.99991e-01,1.86374e-01,9.99999e-01
4.956791449e-01,1.92662e-01,9.99999e-01,9.99999e-01,9.99995e-01,1.92663e-01,9.99999e-01
4.981575406e-01,1.99028e-01,9.99999e-01,9.99999e-01,9.99978e-01,1.99033e-01,9.99999e-01
5.006483283e-01,2.05470e-01,9.99999e-01,9.99999e-01,9.99944e-01,2.05481e-01,9.99999e-01
5.031515699e-01,2.11946e-01,9.99999e-01,9.99999e-01,9.99721e-01,2.12005e-01,9.99996e-01
5.056673278e-01,2.18569e-01,9.99999e-01,9.99999e-01,9.99852e-01,2.18601e-01,9.99996e-01
5.081956644e-01,2.25224e-01,9.99999e-01,9.99999e-01,9.99814e-01,2.25266e-01,9.99997e-01
5.107366428e-01,2.31968e-01,9.99999e-01,9.99999e-01,9.99874e-01,2.31997e-01,9.99999e-01
5.132903260e-01,2.38773e-01,9.99999e-01,9.99999e-01,9.99928e-01,2.38790e-01,9.99999e-01
5.158567776e-01,2.45634e-01,9.99999e-01,9.99999e-01,9.99969e-01,2.45641e-01,9.99999e-01
5.184360615e-01,2.52545e-01,9.99999e-01,9.99999e-01,9.99987e-01,2.52548e-01,9.99999e-01
5.210282418e-01,2.59506e-01,9.99999e-01,9.99999e-01,9.99994e-01,2.59507e-01,9.99999e-01
5.236333830e-01,2.66510e-01,9.99999e-01,9.99999e-01,9.99981e-01,2.66515e-01,9.99999e-01
5.262515499e-01,2.73565e-01,9.99999e-01,9.99999e-01,9.99988e-01,2.73568e-01,9.99999e-01
5.288828077e-01,2.80660e-01,9.99999e-01,9.99999e-01,9.99989e-01,2.80662e-01,9.99999e-01
5.315272217e-01,2.87793e-01,9.99999e-01,9.99999e-01,9.99990e-01,2.87796e-01,9.99999e-01
5.341848578e-01,2.94962e-01,9.99999e-01,9.99999e-01,9.99993e-01,2.94964e-01,9.99999e-01
5.368557821e-01,3.02157e-01,9.99999e-01,9.99999e-01,9.99978e-01,3.02163e-01,9.99999e-01
5.395400610e-01,3.09368e-01,9.99999e-01,9.99999e-01,9.99923e-01,3.09392e-01,9.99998e-01
5.422377613e-01,3.16613e-01,9.99999e-01,9.99999e-01,9.99901e-01,3.16645e-01,9.99997e-01
5.449489501e-01,3.23889e-01,9.99999e-01,9.99999e-01,9.99908e-01,3.23919e-01,9.99997e-01
5.476736949e-01,3.31186e-01,9.99999e-01,9.99999e-01,9.99918e-01,3.31213e-01,9.99998e-01
5.504120634e-01,3.38501e-01,9.99999e-01,9.99999e-01,9.99940e-01,3.38521e-01,9.99999e-01
5.531641237e-01,3.45832e-01,9.99999e-01,9.99999e-01,9.99969e-01,3.45842e-01,9.99999e-01
5.559299443e-01,3.53167e-01,9.99999e-01,9.99999e-01,9.99985e-01,3.53172e-01,9.99999e-01
5.587095940e-01,3.60505e-01,9.99999e-01,9.99999e-01,9.99990e-01,3.60508e-01,9.99999e-01
5.615031420e-01,3.67843e-01,9.99999e-01,9.99999e-01,9.99989e-01,3.67847e-01,9.99999e-01
5.643106577e-01,3.75181e-01,9.99999e-01,9.99999e-01,9.99988e-01,3.75185e-01,9.99999e-01
5.671322110e-01,3.82468e-01,9.99999e-01,9.99999e-01,9.99861e-01,3.82521e-01,9.99998e-01
5.699678720e-01,3.89793e-01,9.99999e-01,9.99999e-01,9.99853e-01,3.89851e-01,9.99995e-01
5.728177114e-01,3.97111e-01,9.99999e-01,9.99999e-01,9.99847e-01,3.97173e-01,9.99996e-01
5.756818000e-01,4.04426e-01,9.99999e-01,9.99999e-01,9.99859e-01,4.04484e-01,9.99997e-01
5.785602090e-01,4.11730e-01,9.99999e-01,9.99999e-01,9.99877e-01,4.11780e-01,9.99998e-01
5.814530100e-01,4.19009e-01,9.99999e-01,9.99999e-01,9.99877e-01,4.19061e-01,9.99999e-01
5.843602750e-01,4.26260e-01,9.99999e-01,9.99999e-01,9.99853e-01,4.26322e-01,9.99998e-01
5.872820764e-01,4.33013e-01,9.99999e-01,9.99999e-01,9.98741e-01,4.33562e-01,9.99990e-01
5.902184868e-01,4.40097e-01,9.99999e-01,9.99999e-01,9.98476e-01,4.40779e-01,9.99975e-01
5.931695792e-01,4.47477e-01,9.99999e-01,9.99999e-01,9.98923e-01,4.47969e-01,9.99976e-01
5.961354271e-01,4.54589e-01,9.99999e-01,9.99999e-01,9.98820e-01,4.55131e-01,9.99986e-01
5.991161043e-01,4.61864e-01,9.99999e-01,9.99999e-01,9.99139e-01,4.62263e-01,9.99995e-01
6.021116848e-01,4.69134e-01,9.99999e-01,9.99999e-01,9.99511e-01,4.69363e-01,9.99999e-01
6.051222432e-01,4.76310e-01,9.99999e-01,9.99999e-01,9.99752e-01,4.76428e-01,9.99999e-01
6.081478544e-01,4.83405e-01,9.99999e-01,9.99999e-01,9.99893e-01,4.83457e-01,9.99999e-01
6.111885937e-01,4.90425e-01,9.99999e-01,9.99999e-01,9.99954e-01,4.90447e-01,9.99999e-01
6.142445367e-01,4.97388e-01,9.99999e-01,9.99999e-01,9.99979e-01,4.97398e-01,9.99999e-01
6.173157594e-01,5.04301e-01,9.99999e-01,9.99999e-01,9.99988e-01,5.04307e-01,9.99999e-01
6.204023382e-01,5.11167e-01,9.99999e-01,9.99999e-01,9.99990e-01,5.11172e-01,9.99999e-01
6.235043498e-01,5.17971e-01,9.99999e-01,9.99999e-01,9.99958e-01,5.17993e-01,9.99999e-01
6.266218716e-01,5.24651e-01,9.99999e-01,9.99999e-01,9.99780e-01,5.24767e-01,9.99997e-01
6.297549810e-01,5.31449e-01,9.99999e-01,9.99999e-01,9.99919e-01,5.31493e-01,9.99996e-01
6.329037559e-01,5.38084e-01,9.99999e-01,9.99999e-01,9.99840e-01,5.38171e-01,9.99997e-01
6.360682746e-01,5.44723e-01,9.99999e-01,9.99999e-01,9.99864e-01,5.44797e-01,9.99998e-01
6.392486160e-01,5.51275e-01,9.99999e-01,9.99999e-01,9.99824e-01,5.51372e-01,9.99998e-01
6.424448591e-01,5.57763e-01,9.99999e-01,9.99999e-01,9.99764e-01,5.57894e-01,9.99998e-01
6.456570834e-01,5.63744e-01,9.99999e-01,9.99999e-01,9.98909e-01,5.64363e-01,9.99993e-01
6.488853688e-01,5.70311e-01,9.99999e-01,9.99999e-01,9.99202e-01,5.70776e-01,9.99982e-01
6.521297956e-01,5.76656e-01,9.99999e-01,9.99999e-01,9.99186e-01,5.77133e-01,9.99985e-01
6.553904446e-01,5.82956e-01,9.99999e-01,9.99999e-01,9.99190e-01,5.83434e-01,9.99989e-01
6.586673968e-01,5.89266e-01,9.99999e-01,9.99999e-01,9.99306e-01,5.89676e-01,9.99996e-01
6.619607338e-01,5.95630e-01,9.99999e-01,9.99999e-01,9.99613e-01,5.95860e-01,9.99998e-01
6.652705375e-01,6.01846e-01,9.99999e-01,9.99999e-01,9.99768e-01,6.01985e-01,9.99999e-01
6.685968902e-01,6.07985e-01,9.99999e-01,9.99999e-01,9.99891e-01,6.08051e-01,9.99999e-01
6.719398746e-01,6.14025e-01,9.99999e-01,9.99999e-01,9.99949e-01,6.14055e-01,9.99999e-01
6.752995740e-01,6.19982e-01,9.99999e-01,9.99999e-01,9.99972e-01,6.19999e-01,9.99999e-01
6.786760719e-01,6.25856e-01,9.99999e-01,9.99999e-01,9.99960e-01,6.25881e-01,9.99999e-01
6.820694522e-01,6.31658e-01,9.99999e-01,9.99999e-01,9.99932e-01,6.31701e-01,9.99999e-01
6.854797995e-01,6.37403e-01,9.99999e-01,9.99999e-01,9.99913e-01,6.37458e-01,9.99998e-01
6.889071985e-01,6.43018e-01,9.99999e-01,9.99999e-01,9.99790e-01,6.43153e-01,9.99997e-01
6.923517345e-01,6.46561e-01,9.99999e-01,9.99999e-01,9.96588e-01,6.48785e-01,9.99983e-01
6.958134932e-01,6.53170e-01,9.99999e-01,9.99999e-01,9.98228e-01,6.54353e-01,9.99963e-01
6.992925606e-01,6.58724e-01,9.99999e-01,9.99999e-01,9.98314e-01,6.59858e-01,9.99966e-01
7.027890234e-01,6.63899e-01,9.99999e-01,9.99999e-01,9.97920e-01,6.65299e-01,9.99974e-01
7.063029686e-01,6.69495e-01,9.99999e-01,9.99999e-01,9.98252e-01,6.70675e-01,9.99987e-01
7.098344834e-01,6.74850e-01,9.99999e-01,9.99999e-01,9.98323e-01,6.75988e-01,9.99992e-01
7.133836558e-01,6.79702e-01,9.99999e-01,9.99999e-01,9.97760e-01,6.81237e-01,9.99984e-01
7.169505741e-01,6.74016e-01,9.99999e-01,9.99999e-01,9.82038e-01,6.86422e-01,9.99885e-01
7.205353270e-01,6.85320e-01,9.99999e-01,9.99999e-01,9.91201e-01,6.91542e-01,9.99797e-01
7.241380036e-01,6.88696e-01,9.99999e-01,9.99999e-01,9.88827e-01,6.96599e-01,9.99825e-01
7.277586936e-01,6.94416e-01,9.99999e-01,9.99999e-01,9.89912e-01,7.01591e-01,9.99857e-01
7.313974871e-01,6.98912e-01,9.99999e-01,9.99999e-01,9.89297e-01,7.06520e-01,9.99932e-01
7.350544745e-01,7.07204e-01,9.99999e-01,9.99999e-01,9.94146e-01,7.11385e-01,9.99976e-01
7.387297469e-01,7.13095e-01,9.99999e-01,9.99999e-01,9.95693e-01,7.16186e-01,9.99988e-01
7.424233956e-01,7.19404e-01,9.99999e-01,9.99999e-01,9.97892e-01,7.20924e-01,9.99997e-01
7.461355126e-01,7.24672e-01,9.99999e-01,9.99999e-01,9.98722e-01,7.25599e-01,9.99999e-01
7.498661902e-01,7.29776e-01,9.99999e-01,9.99999e-01,9.99405e-01,7.30211e-01,9.99999e-01
7.536155211e-01,7.34545e-01,9.99999e-01,9.99999e-01,9.99707e-01,7.34760e-01,9.99999e-01
7.573835987e-01,7.39136e-01,9.99999e-01,9.99999e-01,9.99849e-01,7.39247e-01,9.99999e-01
7.611705167e-01,7.43602e-01,9.99999e-01,9.99999e-01,9.99906e-01,7.43671e-01,9.99999e-01
7.649763693e-01,7.47991e-01,9.99999e-01,9.99999e-01,9.99941e-01,7.48034e-01,9.99999e-01
7.688012511e-01,7.52305e-01,9.99999e-01,9.99999e-01,9.99958e-01,7.52336e-01,9.99999e-01
7.726452574e-01,7.56552e-01,9.99999e-01,9.99999e-01,9.99966e-01,7.56577e-01,9.99999e-01
7.765084837e-01,7.60721e-01,9.99999e-01,9.99999e-01,9.99951e-01,7.60757e-01,9.99999e-01
7.803910261e-01,7.54485e-01,9.99999e-01,9.86613e-01,9.99793e-01,7.64877e-01,9.99999e-01
7.842929812e-01,7.25961e-01,9.99999e-01,9.44776e-01,9.99280e-01,7.68937e-01,9.99998e-01
7.882144461e-01,7.26024e-01,9.99999e-01,9.40684e-01,9.98519e-01,7.72939e-01,9.99989e-01
7.921555184e-01,7.49563e-01,9.99999e-01,9.65630e-01,9.99188e-01,7.76881e-01,9.99981e-01
7.961162960e-01,7.61677e-01,9.99999e-01,9.76966e-01,9.98563e-01,7.80765e-01,9.99982e-01
8.000968774e-01,7.73452e-01,9.99999e-01,9.87454e-01,9.98342e-01,7.84591e-01,9.99981e-01
8.040973618e-01,7.81919e-01,9.99999e-01,9.93490e-01,9.98341e-01,7.88359e-01,9.99985e-01
8.081178486e-01,7.86737e-01,9.99999e-01,9.97006e-01,9.96258e-01,7.92071e-01,9.99986e-01
8.121584379e-01,7.82591e-01,9.99999e-01,9.99075e-01,9.84449e-01,7.95726e-01,9.99947e-01
8.162192301e-01,7.84276e-01,9.99999e-01,9.99795e-01,9.81562e-01,7.99326e-01,9.99803e-01
8.203003262e-01,7.95217e-01,9.99999e-01,9.99996e-01,9.90697e-01,8.02870e-01,9.99769e-01
8.244018279e-01,7.95742e-01,9.99999e-01,9.99999e-01,9.87012e-01,8.06360e-01,9.99816e-01
8.285238370e-01,8.00752e-01,9.99999e-01,9.99999e-01,9.88974e-01,8.09795e-01,9.99855e-01
8.326664562e-01,8.04064e-01,9.99999e-01,9.99999e-01,9.88852e-01,8.13177e-01,9.99940e-01
8.368297885e-01,8.09999e-01,9.99999e-01,9.99999e-01,9.92044e-01,8.16505e-01,9.99985e-01
8.410139374e-01,8.15898e-01,9.99999e-01,9.99999e-01,9.95269e-01,8.19781e-01,9.99991e-01
8.452190071e-01,8.21092e-01,9.99999e-01,9.99999e-01,9.97679e-01,8.23005e-01,9.99994e-01
8.494451021e-01,8.25063e-01,9.99999e-01,9.99999e-01,9.98653e-01,8.26178e-01,9.99995e-01
8.536923276e-01,8.28638e-01,9.99999e-01,9.99999e-01,9.99203e-01,8.29300e-01,9.99997e-01
8.579607893e-01,8.31963e-01,9.99999e-01,9.99999e-01,9.99509e-01,8.32372e-01,9.99998e-01
8.622505932e-01,8.35134e-01,9.99999e-01,9.99999e-01,9.99688e-01,8.35394e-01,9.99999e-01
8.665618462e-01,8.07004e-01,9.99999e-01,9.62771e-01,9.99806e-01,8.38367e-01,9.99999e-01
8.708946554e-01,7.25951e-01,9.99999e-01,8.63087e-01,9.99778e-01,8.41291e-01,9.99999e-01
8.752491287e-01,7.51040e-01,9.99999e-01,8.89940e-01,9.99704e-01,8.44168e-01,9.99999e-01
8.796253743e-01,7.94821e-01,9.99999e-01,9.38777e-01,9.99590e-01,8.46997e-01,9.99998e-01
8.840235012e-01,8.22181e-01,9.99999e-01,9.67973e-01,9.99532e-01,8.49780e-01,9.99996e-01
8.884436187e-01,8.40242e-01,9.99999e-01,9.87290e-01,9.98290e-01,8.52517e-01,9.99991e-01
8.928858368e-01,8.35513e-01,9.99999e-01,9.94836e-01,9.82070e-01,8.55208e-01,9.99952e-01
8.973502660e-01,8.29566e-01,9.99999e-01,9.98745e-01,9.68461e-01,8.57854e-01,9.99760e-01
9.018370173e-01,8.46069e-01,9.99999e-01,9.99861e-01,9.83782e-01,8.60456e-01,9.99624e-01
9.063462024e-01,8.47396e-01,9.99999e-01,9.96417e-01,9.85715e-01,8.63014e-01,9.99669e-01
9.108779334e-01,8.39179e-01,9.99999e-01,9.91856e-01,9.77813e-01,8.65529e-01,9.99656e-01
9.154323231e-01,8.44343e-01,9.99999e-01,9.98086e-01,9.74868e-01,8.68002e-01,9.99716e-01
9.200094847e-01,8.28906e-01,9.99999e-01,9.71234e-01,9.80247e-01,8.70432e-01,9.99840e-01
9.246095321e-01,8.12439e-01,9.99999e-01,9.60680e-01,9.68807e-01,8.72821e-01,9.99816e-01
9.292325798e-01,6.84711e-01,9.99999e-01,9.68825e-01,8.06949e-01,8.75170e-01,9.99287e-01
9.338787427e-01,6.43647e-01,9.99999e-01,9.70005e-01,7.57344e-01,8.77478e-01,9.97057e-01
9.385481364e-01,7.67240e-01,9.99999e-01,9.77934e-01,8.94450e-01,8.79746e-01,9.96501e-01
9.432408771e-01,7.40905e-01,9.99999e-01,9.86464e-01,8.53886e-01,8.81975e-01,9.96981e-01
9.479570815e-01,7.01683e-01,9.99999e-01,9.93034e-01,8.01009e-01,8.84166e-01,9.97542e-01
9.526968669e-01,7.49438e-01,9.99999e-01,9.96635e-01,8.49577e-01,8.86318e-01,9.98500e-01
9.574603512e-01,7.66042e-01,9.99999e-01,9.98560e-01,8.64106e-01,8.88434e-01,9.99237e-01
9.622476530e-01,7.90536e-01,9.99999e-01,9.99550e-01,8.88589e-01,8.90512e-01,9.99472e-01
9.670588912e-01,8.33562e-01,9.99999e-01,9.99865e-01,9.34366e-01,8.92554e-01,9.99639e-01
9.718941857e-01,8.57406e-01,9.99999e-01,9.99990e-01,9.58728e-01,8.94560e-01,9.99734e-01
9.767536566e-01,8.65549e-01,9.99999e-01,9.99999e-01,9.65637e-01,8.96531e-01,9.99796e-01
9.816374249e-01,8.75464e-01,9.99999e-01,9.99999e-01,9.74464e-01,8.98467e-01,9.99929e-01
9.865456120e-01,8.85939e-01,9.99999e-01,9.99999e-01,9.83986e-01,9.00370e-01,9.99984e-01
9.914783401e-01,8.93284e-01,9.99999e-01,9.99999e-01,9.90079e-01,9.02238e-01,9.99995e-01
9.964357318e-01,8.99178e-01,9.99999e-01,9.99999e-01,9.94587e-01,9.04073e-01,9.99997e-01
1.001417910e+00,9.02932e-01,9.99999e-01,9.99999e-01,9.96753e-01,9.05876e-01,9.99995e-01
1.006425000e+00,9.05961e-01,9.99999e-01,9.99999e-01,9.98148e-01,9.07646e-01,9.99994e-01
1.011457125e+00,9.08336e-01,9.99999e-01,9.99999e-01,9.98850e-01,9.09385e-01,9.99994e-01
1.016514411e+00,9.10379e-01,9.99999e-01,9.99999e-01,9.99219e-01,9.11093e-01,9.99996e-01
1.021596983e+00,9.12182e-01,9.99999e-01,9.99980e-01,9.99377e-01,9.12770e-01,9.99996e-01
1.026704968e+00,9.12700e-01,9.99999e-01,9.98607e-01,9.99514e-01,9.14417e-01,9.99997e-01
1.031838492e+00,8.95319e-01,9.99999e-01,9.77724e-01,9.99647e-01,9.16035e-01,9.99998e-01
1.036997685e+00,3.23681e-01,9.99999e-01,3.52802e-01,9.99790e-01,9.17623e-01,9.99999e-01
1.042182673e+00,4.01548e-01,9.99999e-01,4.36956e-01,9.99749e-01,9.19182e-01,9.99999e-01
1.047393587e+00,3.57347e-01,9.99999e-01,3.88237e-01,9.99668e-01,9.20714e-01,9.99999e-01
1.052630555e+00,8.14890e-02,9.99999e-01,8.83947e-02,9.99545e-01,9.22217e-01,9.99999e-01
1.057893707e+00,1.40543e-01,9.99999e-01,1.52248e-01,9.99241e-01,9.23693e-01,9.99999e-01
1.063183176e+00,2.38050e-01,9.99999e-01,2.57584e-01,9.98751e-01,9.25143e-01,9.99998e-01
1.068499092e+00,3.77826e-01,9.99999e-01,4.08564e-01,9.97909e-01,9.26566e-01,9.99998e-01
1.073841587e+00,5.26764e-01,9.99999e-01,5.68951e-01,9.97552e-01,9.27963e-01,9.99996e-01
1.079210795e+00,6.49627e-01,9.99999e-01,7.01149e-01,9.96865e-01,9.29334e-01,9.99991e-01
1.084606849e+00,7.63503e-01,9.99999e-01,8.24226e-01,9.95255e-01,9.30680e-01,9.99979e-01
1.090029883e+00,8.37582e-01,9.99999e-01,9.04833e-01,9.93182e-01,9.32002e-01,9.99957e-01
1.095480033e+00,8.72079e-01,9.99999e-01,9.51989e-01,9.81528e-01,9.33299e-01,9.99924e-01
1.100957433e+00,8.70319e-01,9.99999e-01,9.76615e-01,9.53590e-01,9.34572e-01,9.99860e-01
1.106462220e+00,8.20247e-01,9.99999e-01,9.90270e-01,8.85196e-01,9.35822e-01,9.99764e-01
1.111994531e+00,7.20705e-01,9.99999e-01,9.96384e-01,7.72313e-01,9.37049e-01,9.99375e-01
1.117554504e+00,6.13853e-01,9.99999e-01,9.99116e-01,6.56259e-01,9.38253e-01,9.97749e-01
1.123142276e+00,6.80417e-01,9.99999e-01,9.99941e-01,7.28193e-01,9.39435e-01,9.94672e-01
1.128757988e+00,7.65740e-01,9.99999e-01,9.99999e-01,8.19146e-01,9.40595e-01,9.93839e-01
1.134401778e+00,5.72784e-01,9.99999e-01,9.99999e-01,6.11426e-01,9.41734e-01,9.94759e-01
1.140073787e+00,8.35298e-01,9.99999e-01,9.99999e-01,8.89654e-01,9.42851e-01,9.95810e-01
1.145774156e+00,7.34215e-01,9.99999e-01,9.99999e-01,7.80807e-01,9.43948e-01,9.96164e-01
1.151503026e+00,7.14051e-01,9.99999e-01,9.99999e-01,7.57209e-01,9.45024e-01,9.97861e-01
1.157260541e+00,7.53878e-01,9.99999e-01,9.99999e-01,7.97354e-01,9.46080e-01,9.99359e-01
1.163046844e+00,8.01563e-01,9.99999e-01,9.99999e-01,8.46472e-01,9.47116e-01,9.99818e-01
1.168862078e+00,8.45166e-01,9.99999e-01,9.99999e-01,8.91482e-01,9.48133e-01,9.99906e-01
1.174706389e+00,8.84098e-01,9.99999e-01,9.99999e-01,9.31596e-01,9.49131e-01,9.99875e-01
1.180579921e+00,9.09875e-01,9.99999e-01,9.99999e-01,9.57830e-01,9.50111e-01,9.99812e-01
1.186482820e+00,9.28057e-01,9.99999e-01,9.99996e-01,9.75991e-01,9.51071e-01,9.99807e-01
1.192415234e+00,9.33799e-01,9.99999e-01,9.94984e-01,9.85931e-01,9.52014e-01,9.99855e-01
1.198377311e+00,5.66635e-01,9.99999e-01,6.00737e-01,9.88125e-01,9.52939e-01,9.99863e-01
1.204369197e+00,1.48494e-05,9.99999e-01,1.56717e-05,9.88751e-01,9.53847e-01,9.99876e-01
1.210391043e+00,1.79746e-16,9.99999e-01,1.89413e-16,9.89247e-01,9.54738e-01,9.99924e-01
1.216442998e+00,1.68740e-14,9.99999e-01,1.77596e-14,9.90847e-01,9.55612e-01,9.99953e-01
1.222525213e+00,2.89333e-14,9.99999e-01,3.03683e-14,9.92871e-01,9.56469e-01,9.99971e-01
1.228637839e+00,6.35379e-11,9.99999e-01,6.66102e-11,9.95045e-01,9.57310e-01,9.99986e-01
