#,Wave/freq,Total,N2,CO2,H2O,Rayleigh,CIA
4.000000000e-01,2.38091e-13,9.99999e-01,9.99999e-01,9.99943e-01,2.38104e-13,9.99999e-01
4.020000000e-01,4.23008e-13,9.99999e-01,9.99999e-01,9.99964e-01,4.23023e-13,9.99999e-01
4.040100000e-01,7.42621e-13,9.99999e-01,9.99999e-01,9.99984e-01,7.42632e-13,9.99999e-01
4.060300500e-01,1.28930e-12,9.99999e-01,9.99999e-01,9.99996e-01,1.28931e-12,9.99999e-01
4.080602003e-01,2.21414e-12,9.99999e-01,9.99999e-01,9.99998e-01,2.21414e-12,9.99999e-01
4.101005013e-01,3.76198e-12,9.99999e-01,9.99999e-01,9.99999e-01,3.76198e-12,9.99999e-01
4.121510038e-01,6.32528e-12,9.99999e-01,9.99999e-01,9.99997e-01,6.32530e-12,9.99999e-01
4.142117588e-01,1.05264e-11,9.99999e-01,9.99999e-01,9.99984e-01,1.05266e-11,9.99999e-01
4.162828176e-01,1.73418e-11,9.99999e-01,9.99999e-01,9.99930e-01,1.73430e-11,9.99999e-01
4.183642317e-01,2.82918e-11,9.99999e-01,9.99999e-01,9.99958e-01,2.82929e-11,9.99999e-01
4.204560528e-01,4.57112e-11,9.99999e-01,9.99999e-01,9.99974e-01,4.57124e-11,9.99999e-01
4.225583331e-01,7.31593e-11,9.99999e-01,9.99999e-01,9.99990e-01,7.31600e-11,9.99999e-01
4.246711247e-01,1.16005e-10,9.99999e-01,9.99999e-01,9.99992e-01,1.16006e-10,9.99999e-01
4.267944804e-01,1.82274e-10,9.99999e-01,9.99999e-01,9.99988e-01,1.82276e-10,9.99999e-01
4.289284528e-01,2.83858e-10,9.99999e-01,9.99999e-01,9.99990e-01,2.83861e-10,9.99999e-01
4.310730950e-01,4.38206e-10,9.99999e-01,9.99999e-01,9.99995e-01,4.38208e-10,9.99999e-01
4.332284605e-01,6.70702e-10,9.99999e-01,9.99999e-01,9.99998e-01,6.70703e-10,9.99999e-01
4.353946028e-01,1.01796e-09,9.99999e-01,9.99999e-01,9.99999e-01,1.01796e-09,9.99999e-01
4.375715758e-01,1.53231e-09,9.99999e-01,9.99999e-01,9.99992e-01,1.53232e-09,9.99999e-01
4.397594337e-01,2.28788e-09,9.99999e-01,9.99999e-01,9.99938e-01,2.28802e-09,9.99999e-01
4.419582309e-01,3.38842e-09,9.99999e-01,9.99999e-01,9.99690e-01,3.38947e-09,9.99999e-01
4.441680220e-01,4.98113e-09,9.99999e-01,9.99999e-01,9.99758e-01,4.98233e-09,9.99999e-01
4.463888621e-01,7.26641e-09,9.99999e-01,9.99999e-01,9.99748e-01,7.26823e-09,9.99999e-01
4.486208064e-01,1.05225e-08,9.99999e-01,9.99999e-01,9.99843e-01,1.05241e-08,9.99999e-01
4.508639105e-01,1.51264e-08,9.99999e-01,9.99999e-01,9.99926e-01,1.51275e-08,9.99999e-01
4.531182300e-01,2.15886e-08,9.99999e-01,9.99999e-01,9.99970e-01,2.15892e-08,9.99999e-01
4.553838212e-01,3.05947e-08,9.99999e-01,9.99999e-01,9.99979e-01,3.05953e-08,9.99999e-01
4.576607403e-01,4.30603e-08,9.99999e-01,9.99999e-01,9.99990e-01,4.30607e-08,9.99999e-01
4.599490440e-01,6.01968e-08,9.99999e-01,9.99999e-01,9.99993e-01,6.01972e-08,9.99999e-01
4.622487892e-01,8.35982e-08,9.99999e-01,9.99999e-01,9.99998e-01,8.35983e-08,9.99999e-01
4.645600332e-01,1.15345e-07,9.99999e-01,9.99999e-01,9.99995e-01,1.15346e-07,9.99999e-01
4.668828333e-01,1.58129e-07,9.99999e-01,9.99999e-01,9.99925e-01,1.58141e-07,9.99999e-01
4.692172475e-01,2.15433e-07,9.99999e-01,9.99999e-01,9.99842e-01,2.15467e-07,9.99999e-01
4.715633337e-01,2.91755e-07,9.99999e-01,9.99999e-01,9.99896e-01,2.91785e-07,9.99999e-01
4.739211504e-01,3.92736e-07,9.99999e-01,9.99999e-01,9.99901e-01,3.92775e-07,9.99999e-01
4.762907561e-01,5.25597e-07,9.99999e-01,9.99999e-01,9.99948e-01,5.25624e-07,9.99999e-01
4.786722099e-01,6.99356e-07,9.99999e-01,9.99999e-01,9.99978e-01,6.99370e-07,9.99999e-01
4.810655710e-01,9.25309e-07,9.99999e-01,9.99999e-01,9.99993e-01,9.25315e-07,9.99999e-01
4.834708988e-01,1.21743e-06,9.99999e-01,9.99999e-01,9.99939e-01,1.21750e-06,9.99999e-01
4.858882533e-01,1.59312e-06,9.99999e-01,9.99999e-01,9.99888e-01,1.59330e-06,9.99999e-01
4.883176946e-01,2.07384e-06,9.99999e-01,9.99999e-01,9.99906e-01,2.07403e-06,9.99999e-01
4.907592831e-01,2.68557e-06,9.99999e-01,9.99999e-01,9.99915e-01,2.68579e-06,9.99999e-01
4.932130795e-01,3.46008e-06,9.99999e-01,9.99999e-01,9.99939e-01,3.46029e-06,9.99999e-01
4.956791449e-01,4.43573e-06,9.99999e-01,9.99999e-01,9.99967e-01,4.43587e-06,9.99999e-01
4.981575406e-01,5.65777e-06,9.99999e-01,9.99999e-01,9.99841e-01,5.65866e-06,9.99999e-01
5.006483283e-01,7.18094e-06,9.99999e-01,9.99999e-01,9.99589e-01,7.18391e-06,9.99996e-01
5.031515699e-01,9.05832e-06,9.99999e-01,9.99999e-01,9.97922e-01,9.07738e-06,9.99977e-01
5.056673278e-01,1.14042e-05,9.99999e-01,9.99999e-01,9.98902e-01,1.14170e-05,9.99974e-01
5.081956644e-01,1.42748e-05,9.99999e-01,9.99999e-01,9.98616e-01,1.42948e-05,9.99983e-01
5.107366428e-01,1.78020e-05,9.99999e-01,9.99999e-01,9.99065e-01,1.78187e-05,9.99996e-01
5.132903260e-01,2.21030e-05,9.99999e-01,9.99999e-01,9.99465e-01,2.21148e-05,9.99999e-01
5.158567776e-01,2.73237e-05,9.99999e-01,9.99999e-01,9.99774e-01,2.73298e-05,9.99999e-01
5.184360615e-01,3.36307e-05,9.99999e-01,9.99999e-01,9.99909e-01,3.36337e-05,9.99999e-01
5.210282418e-01,4.12209e-05,9.99999e-01,9.99999e-01,9.99965e-01,4.12223e-05,9.99999e-01
5.236333830e-01,5.03135e-05,9.99999e-01,9.99999e-01,9.99864e-01,5.03204e-05,9.99998e-01
5.262515499e-01,6.11798e-05,9.99999e-01,9.99999e-01,9.99914e-01,6.11850e-05,9.99998e-01
5.288828077e-01,7.41029e-05,9.99999e-01,9.99999e-01,9.99921e-01,7.41087e-05,9.99998e-01
5.315272217e-01,8.94170e-05,9.99999e-01,9.99999e-01,9.99931e-01,8.94231e-05,9.99999e-01
5.341848578e-01,1.07498e-04,9.99999e-01,9.99999e-01,9.99954e-01,1.07503e-04,9.99999e-01
5.368557821e-01,1.28748e-04,9.99999e-01,9.99999e-01,9.99841e-01,1.28768e-04,9.99999e-01
5.395400610e-01,1.53603e-04,9.99999e-01,9.99999e-01,9.99430e-01,1.53691e-04,9.99994e-01
5.422377613e-01,1.82661e-04,9.99999e-01,9.99999e-01,9.99264e-01,1.82798e-04,9.99986e-01
5.449489501e-01,2.16523e-04,9.99999e-01,9.99999e-01,9.99315e-01,2.16674e-04,9.99985e-01
5.476736949e-01,2.55810e-04,9.99999e-01,9.99999e-01,9.99393e-01,2.55967e-04,9.99992e-01
5.504120634e-01,3.01259e-04,9.99999e-01,9.99999e-01,9.99559e-01,3.01392e-04,9.99997e-01
5.531641237e-01,3.53656e-04,9.99999e-01,9.99999e-01,9.99778e-01,3.53734e-04,9.99999e-01
5.559299443e-01,4.13812e-04,9.99999e-01,9.99999e-01,9.99892e-01,4.13856e-04,9.99999e-01
5.587095940e-01,4.82665e-04,9.99999e-01,9.99999e-01,9.99932e-01,4.82697e-04,9.99999e-01
5.615031420e-01,5.61240e-04,9.99999e-01,9.99999e-01,9.99924e-01,5.61281e-04,9.99999e-01
5.643106577e-01,6.50662e-04,9.99999e-01,9.99999e-01,9.99915e-01,6.50717e-04,9.99998e-01
5.671322110e-01,7.51424e-04,9.99999e-01,9.99999e-01,9.98971e-01,7.52204e-04,9.99990e-01
5.699678720e-01,8.66062e-04,9.99999e-01,9.99999e-01,9.98906e-01,8.67034e-04,9.99971e-01
5.728177114e-01,9.95434e-04,9.99999e-01,9.99999e-01,9.98861e-01,9.96592e-04,9.99976e-01
5.756818000e-01,1.14115e-03,9.99999e-01,9.99999e-01,9.98955e-01,1.14236e-03,9.99985e-01
5.785602090e-01,1.30473e-03,9.99999e-01,9.99999e-01,9.99089e-01,1.30593e-03,9.99995e-01
5.814530100e-01,1.48761e-03,9.99999e-01,9.99999e-01,9.99085e-01,1.48897e-03,9.99997e-01
5.843602750e-01,1.69143e-03,9.99999e-01,9.99999e-01,9.98909e-01,1.69328e-03,9.99993e-01
5.872820764e-01,1.90264e-03,9.99999e-01,9.99999e-01,9.90641e-01,1.92074e-03,9.99933e-01
5.902184868e-01,2.14832e-03,9.99999e-01,9.99999e-01,9.88663e-01,2.17334e-03,9.99819e-01
5.931695792e-01,2.43308e-03,9.99999e-01,9.99999e-01,9.91984e-01,2.45316e-03,9.99826e-01
5.961354271e-01,2.73785e-03,9.99999e-01,9.99999e-01,9.91212e-01,2.76239e-03,9.99900e-01
5.991161043e-01,3.08331e-03,9.99999e-01,9.99999e-01,9.93583e-01,3.10332e-03,9.99968e-01
6.021116848e-01,3.46562e-03,9.99999e-01,9.99999e-01,9.96354e-01,3.47831e-03,9.99996e-01
6.051222432e-01,3.88267e-03,9.99999e-01,9.99999e-01,9.98154e-01,3.88985e-03,9.99999e-01
6.081478544e-01,4.33702e-03,9.99999e-01,9.99999e-01,9.99203e-01,4.34048e-03,9.99999e-01
6.111885937e-01,4.83121e-03,9.99999e-01,9.99999e-01,9.99662e-01,4.83284e-03,9.99999e-01
6.142445367e-01,5.36883e-03,9.99999e-01,9.99999e-01,9.99849e-01,5.36964e-03,9.99999e-01
6.173157594e-01,5.95317e-03,9.99999e-01,9.99999e-01,9.99916e-01,5.95366e-03,9.99999e-01
6.204023382e-01,6.58729e-03,9.99999e-01,9.99999e-01,9.99929e-01,6.58776e-03,9.99999e-01
6.235043498e-01,7.27257e-03,9.99999e-01,9.99999e-01,9.99690e-01,7.27483e-03,9.99998e-01
6.266218716e-01,8.00462e-03,9.99999e-01,9.99999e-01,9.98362e-01,8.01784e-03,9.99988e-01
6.297549810e-01,8.81427e-03,9.99999e-01,9.99999e-01,9.99399e-01,8.81977e-03,9.99976e-01
6.329037559e-01,9.67199e-03,9.99999e-01,9.99999e-01,9.98812e-01,9.68366e-03,9.99981e-01
6.360682746e-01,1.06017e-02,9.99999e-01,9.99999e-01,9.98988e-01,1.06126e-02,9.99988e-01
6.392486160e-01,1.15943e-02,9.99999e-01,9.99999e-01,9.98689e-01,1.16095e-02,9.99994e-01
6.424448591e-01,1.26554e-02,9.99999e-01,9.99999e-01,9.98246e-01,1.26777e-02,9.99991e-01
6.456570834e-01,1.37073e-02,9.99999e-01,9.99999e-01,9.91883e-01,1.38200e-02,9.99954e-01
6.488853688e-01,1.49484e-02,9.99999e-01,9.99999e-01,9.94054e-01,1.50397e-02,9.99873e-01
6.521297956e-01,1.62390e-02,9.99999e-01,9.99999e-01,9.93941e-01,1.63397e-02,9.99895e-01
6.553904446e-01,1.76146e-02,9.99999e-01,9.99999e-01,9.93964e-01,1.77229e-02,9.99921e-01
6.586673968e-01,1.90928e-02,9.99999e-01,9.99999e-01,9.94830e-01,1.91925e-02,9.99973e-01
6.619607338e-01,2.06913e-02,9.99999e-01,9.99999e-01,9.97116e-01,2.07512e-02,9.99993e-01
6.652705375e-01,2.23631e-02,9.99999e-01,9.99999e-01,9.98268e-01,2.24020e-02,9.99996e-01
6.685968902e-01,2.41281e-02,9.99999e-01,9.99999e-01,9.99194e-01,2.41475e-02,9.99999e-01
6.719398746e-01,2.59808e-02,9.99999e-01,9.99999e-01,9.99626e-01,2.59905e-02,9.99999e-01
6.752995740e-01,2.79279e-02,9.99999e-01,9.99999e-01,9.99797e-01,2.79336e-02,9.99999e-01
6.786760719e-01,2.99704e-02,9.99999e-01,9.99999e-01,9.99707e-01,2.99791e-02,9.99999e-01
6.820694522e-01,3.21135e-02,9.99999e-01,9.99999e-01,9.99500e-01,3.21296e-02,9.99996e-01
6.854797995e-01,3.43649e-02,9.99999e-01,9.99999e-01,9.99355e-01,3.43873e-02,9.99993e-01
6.889071985e-01,3.66964e-02,9.99999e-01,9.99999e-01,9.98439e-01,3.67543e-02,9.99985e-01
6.923517345e-01,3.82404e-02,9.99999e-01,9.99999e-01,9.74828e-01,3.92325e-02,9.99877e-01
6.958134932e-01,4.12629e-02,9.99999e-01,9.99999e-01,9.86850e-01,4.18240e-02,9.99729e-01
6.992925606e-01,4.39621e-02,9.99999e-01,9.99999e-01,9.87480e-01,4.45303e-02,9.99756e-01
7.027890234e-01,4.66135e-02,9.99999e-01,9.99999e-01,9.84564e-01,4.73531e-02,9.99813e-01
7.063029686e-01,4.96354e-02,9.99999e-01,9.99999e-01,9.87003e-01,5.02936e-02,9.99907e-01
7.098344834e-01,5.26849e-02,9.99999e-01,9.99999e-01,9.87525e-01,5.33533e-02,9.99944e-01
7.133836558e-01,5.55898e-02,9.99999e-01,9.99999e-01,9.83420e-01,5.65331e-02,9.99890e-01
7.169505741e-01,5.23163e-02,9.99999e-01,9.99999e-01,8.75105e-01,5.98340e-02,9.99143e-01
7.205353270e-01,5.91615e-02,9.99999e-01,9.99999e-01,9.36673e-01,6.32567e-02,9.98490e-01
7.241380036e-01,6.13851e-02,9.99999e-01,9.99999e-01,9.20113e-01,6.68017e-02,9.98696e-01
7.277586936e-01,6.53008e-02,9.99999e-01,9.99999e-01,9.27641e-01,7.04695e-02,9.98934e-01
7.313974871e-01,6.85135e-02,9.99999e-01,9.99999e-01,9.23075e-01,7.42602e-02,9.99500e-01
7.350544745e-01,7.48129e-02,9.99999e-01,9.99999e-01,9.57173e-01,7.81738e-02,9.99826e-01
7.387297469e-01,7.95957e-02,9.99999e-01,9.99999e-01,9.68273e-01,8.22103e-02,9.99920e-01
7.424233956e-01,8.50159e-02,9.99999e-01,9.99999e-01,9.84346e-01,8.63692e-02,9.99984e-01
7.461355126e-01,8.97873e-02,9.99999e-01,9.99999e-01,9.90484e-01,9.06501e-02,9.99996e-01
7.498661902e-01,9.46302e-02,9.99999e-01,9.99999e-01,9.95559e-01,9.50524e-02,9.99998e-01
7.536155211e-01,9.93579e-02,9.99999e-01,9.99999e-01,9.97819e-01,9.95751e-02,9.99998e-01
7.573835987e-01,1.04100e-01,9.99999e-01,9.99999e-01,9.98877e-01,1.04217e-01,9.99999e-01
7.611705167e-01,1.08902e-01,9.99999e-01,9.99999e-01,9.99302e-01,1.08978e-01,9.99999e-01
7.649763693e-01,1.13805e-01,9.99999e-01,9.99999e-01,9.99562e-01,1.13855e-01,9.99999e-01
7.688012511e-01,1.18812e-01,9.99999e-01,9.99999e-01,9.99695e-01,1.18848e-01,9.99999e-01
7.726452574e-01,1.23924e-01,9.99999e-01,9.99999e-01,9.99749e-01,1.23955e-01,9.99999e-01
7.765084837e-01,1.29128e-01,9.99999e-01,9.99999e-01,9.99643e-01,1.29174e-01,9.99999e-01
7.803910261e-01,1.23713e-01,9.99999e-01,9.21100e-01,9.98461e-01,1.34502e-01,9.99998e-01
7.842929812e-01,9.36241e-02,9.99999e-01,6.72246e-01,9.94637e-01,1.39939e-01,9.99989e-01
7.882144461e-01,9.45926e-02,9.99999e-01,6.56820e-01,9.88981e-01,1.45482e-01,9.99931e-01
7.921555184e-01,1.16260e-01,9.99999e-01,7.73792e-01,9.93946e-01,1.51128e-01,9.99868e-01
7.961162960e-01,1.30528e-01,9.99999e-01,8.40913e-01,9.89321e-01,1.56876e-01,9.99874e-01
8.000968774e-01,1.46284e-01,9.99999e-01,9.10237e-01,9.87668e-01,1.62722e-01,9.99866e-01
8.040973618e-01,1.58646e-01,9.99999e-01,9.52387e-01,9.87667e-01,1.68664e-01,9.99893e-01
8.081178486e-01,1.66120e-01,9.99999e-01,9.77832e-01,9.72439e-01,1.74699e-01,9.99900e-01
8.121584379e-01,1.59872e-01,9.99999e-01,9.93105e-01,8.90452e-01,1.80824e-01,9.99608e-01
8.162192301e-01,1.62533e-01,9.99999e-01,9.98473e-01,8.71532e-01,1.87037e-01,9.98531e-01
8.203003262e-01,1.80375e-01,9.99999e-01,9.99976e-01,9.34590e-01,1.93334e-01,9.98280e-01
8.244018279e-01,1.81561e-01,9.99999e-01,9.99999e-01,9.10354e-01,1.99713e-01,9.98631e-01
8.285238370e-01,1.89672e-01,9.99999e-01,9.99999e-01,9.20971e-01,2.06170e-01,9.98924e-01
8.326664562e-01,1.95650e-01,9.99999e-01,9.99999e-01,9.20240e-01,2.12701e-01,9.99554e-01
8.368297885e-01,2.06603e-01,9.99999e-01,9.99999e-01,9.42174e-01,2.19305e-01,9.99897e-01
8.410139374e-01,2.18102e-01,9.99999e-01,9.99999e-01,9.65207e-01,2.25977e-01,9.99940e-01
8.452190071e-01,2.28699e-01,9.99999e-01,9.99999e-01,9.82779e-01,2.32715e-01,9.99964e-01
8.494451021e-01,2.37105e-01,9.99999e-01,9.99999e-01,9.89971e-01,2.39514e-01,9.99971e-01
8.536923276e-01,2.44904e-01,9.99999e-01,9.99999e-01,9.94059e-01,2.46371e-01,9.99982e-01
8.579607893e-01,2.52355e-01,9.99999e-01,9.99999e-01,9.96337e-01,2.53284e-01,9.99995e-01
8.622505932e-01,2.59642e-01,9.99999e-01,9.99999e-01,9.97672e-01,2.60248e-01,9.99998e-01
8.665618462e-01,2.33629e-01,9.99999e-01,8.75343e-01,9.98559e-01,2.67261e-01,9.99999e-01
8.708946554e-01,1.02769e-01,9.99999e-01,3.75206e-01,9.98350e-01,2.74318e-01,9.99998e-01
8.752491287e-01,1.24560e-01,9.99999e-01,4.43531e-01,9.97793e-01,2.81417e-01,9.99997e-01
8.796253743e-01,1.82274e-01,9.99999e-01,6.33480e-01,9.96946e-01,2.88554e-01,9.99992e-01
8.840235012e-01,2.31739e-01,9.99999e-01,7.86279e-01,9.96512e-01,2.95726e-01,9.99978e-01
8.884436187e-01,2.71990e-01,9.99999e-01,9.09121e-01,9.87358e-01,3.02929e-01,9.99939e-01
8.928858368e-01,2.61331e-01,9.99999e-01,9.62058e-01,8.75309e-01,3.10160e-01,9.99650e-01
8.973502660e-01,2.48334e-01,9.99999e-01,9.90652e-01,7.90758e-01,3.17415e-01,9.98213e-01
9.018370173e-01,2.86962e-01,9.99999e-01,9.98965e-01,8.87127e-01,3.24692e-01,9.97193e-01
9.063462024e-01,2.90856e-01,9.99999e-01,9.74123e-01,8.99653e-01,3.31987e-01,9.97533e-01
9.108779334e-01,2.70570e-01,9.99999e-01,9.40885e-01,8.48083e-01,3.39297e-01,9.97437e-01
9.154323231e-01,2.82860e-01,9.99999e-01,9.85800e-01,8.28904e-01,3.46619e-01,9.97881e-01
9.200094847e-01,2.57951e-01,9.99999e-01,8.30187e-01,8.63637e-01,3.53950e-01,9.98813e-01
9.246095321e-01,2.16970e-01,9.99999e-01,7.43246e-01,7.99846e-01,3.61286e-01,9.98633e-01
9.292325798e-01,7.35995e-02,9.99999e-01,7.95207e-01,2.41009e-01,3.68625e-01,9.94680e-01
9.338787427e-01,4.90859e-02,9.99999e-01,7.99600e-01,1.59851e-01,3.75964e-01,9.78194e-01
9.385481364e-01,1.53136e-01,9.99999e-01,8.47483e-01,4.74071e-01,3.83299e-01,9.74119e-01
9.432408771e-01,1.27864e-01,9.99999e-01,9.03247e-01,3.66334e-01,3.90628e-01,9.77632e-01
9.479570815e-01,9.35332e-02,9.99999e-01,9.49087e-01,2.50777e-01,3.97949e-01,9.81757e-01
9.526968669e-01,1.34910e-01,9.99999e-01,9.75143e-01,3.43736e-01,4.05258e-01,9.88833e-01
9.574603512e-01,1.47319e-01,9.99999e-01,9.89287e-01,3.62415e-01,4.12553e-01,9.94311e-01
9.622476530e-01,1.80382e-01,9.99999e-01,9.96646e-01,4.32590e-01,4.19832e-01,9.96063e-01
9.670588912e-01,2.61527e-01,9.99999e-01,9.98994e-01,6.14537e-01,4.27091e-01,9.97305e-01
9.718941857e-01,3.17693e-01,9.99999e-01,9.99928e-01,7.32953e-01,4.34329e-01,9.98015e-01
9.767536566e-01,3.40535e-01,9.99999e-01,9.99999e-01,7.72411e-01,4.41543e-01,9.98483e-01
9.816374249e-01,3.70111e-01,9.99999e-01,9.99999e-01,8.25228e-01,4.48730e-01,9.99474e-01
9.865456120e-01,4.04174e-01,9.99999e-01,9.99999e-01,8.86659e-01,4.55889e-01,9.99890e-01
9.914783401e-01,4.29772e-01,9.99999e-01,9.99999e-01,9.28225e-01,4.63018e-01,9.99969e-01
9.964357318e-01,4.51418e-01,9.99999e-01,9.99999e-01,9.60248e-01,4.70114e-01,9.99981e-01
1.001417910e+00,4.65699e-01,9.99999e-01,9.99999e-01,9.75975e-01,4.77175e-01,9.99972e-01
1.006425000e+00,4.77515e-01,9.99999e-01,9.99999e-01,9.86231e-01,4.84200e-01,9.99960e-01
1.011457125e+00,4.86962e-01,9.99999e-01,9.99999e-01,9.91434e-01,4.91186e-01,9.99963e-01
1.016514411e+00,4.95219e-01,9.99999e-01,9.99999e-01,9.94176e-01,4.98133e-01,9.99974e-01
1.021596983e+00,5.02609e-01,9.99999e-01,9.99858e-01,9.95357e-01,5.05037e-01,9.99974e-01
1.026704968e+00,5.04800e-01,9.99999e-01,9.89722e-01,9.96377e-01,5.11898e-01,9.99982e-01
1.031838492e+00,4.72131e-01,9.99999e-01,9.12479e-01,9.97366e-01,5.18713e-01,9.99994e-01
1.036997685e+00,3.06768e-02,9.99999e-01,5.84476e-02,9.98434e-01,5.25483e-01,9.99998e-01
1.042182673e+00,3.17077e-03,9.99999e-01,5.96651e-03,9.98133e-01,5.32204e-01,9.99999e-01
1.047393587e+00,7.54400e-03,9.99999e-01,1.40286e-02,9.97526e-01,5.38876e-01,9.99999e-01
1.052630555e+00,2.13461e-06,9.99999e-01,3.92165e-06,9.96606e-01,5.45497e-01,9.99998e-01
1.057893707e+00,7.97234e-06,9.99999e-01,1.44846e-05,9.94340e-01,5.52067e-01,9.99997e-01
1.063183176e+00,1.41446e-04,9.99999e-01,2.54625e-04,9.90703e-01,5.58583e-01,9.99994e-01
1.068499092e+00,1.17561e-03,9.99999e-01,2.10309e-03,9.84482e-01,5.65045e-01,9.99988e-01
1.073841587e+00,1.07684e-02,9.99999e-01,1.90998e-02,9.81874e-01,5.71453e-01,9.99976e-01
1.079210795e+00,4.69965e-02,9.99999e-01,8.28860e-02,9.76821e-01,5.77804e-01,9.99937e-01
1.084606849e+00,1.38491e-01,9.99999e-01,2.44750e-01,9.65138e-01,5.84098e-01,9.99849e-01
1.090029883e+00,2.69487e-01,9.99999e-01,4.78761e-01,9.50363e-01,5.90335e-01,9.99688e-01
1.095480033e+00,3.62034e-01,9.99999e-01,6.94789e-01,8.70559e-01,5.96513e-01,9.99436e-01
1.100957433e+00,3.57633e-01,9.99999e-01,8.38417e-01,7.05106e-01,6.02632e-01,9.98963e-01
1.106462220e+00,2.40042e-01,9.99999e-01,9.29620e-01,4.22297e-01,6.08690e-01,9.98242e-01
1.111994531e+00,1.01458e-01,9.99999e-01,9.73284e-01,1.69640e-01,6.14688e-01,9.95341e-01
1.117554504e+00,3.72096e-02,9.99999e-01,9.93414e-01,6.12267e-02,6.20626e-01,9.83284e-01
1.123142276e+00,8.70424e-02,9.99999e-01,9.99566e-01,1.44611e-01,6.26501e-01,9.60815e-01
1.128757988e+00,1.60391e-01,9.99999e-01,9.99999e-01,2.65662e-01,6.32314e-01,9.54810e-01
1.134401778e+00,7.31531e-02,9.99999e-01,9.99999e-01,1.19246e-01,6.38065e-01,9.61442e-01
1.140073787e+00,2.74375e-01,9.99999e-01,9.99999e-01,4.39813e-01,6.43753e-01,9.69072e-01
1.145774156e+00,1.24245e-01,9.99999e-01,9.99999e-01,1.96910e-01,6.49378e-01,9.71652e-01
1.151503026e+00,1.07272e-01,9.99999e-01,9.99999e-01,1.66434e-01,6.54940e-01,9.84107e-01
1.157260541e+00,1.34480e-01,9.99999e-01,9.99999e-01,2.04599e-01,6.60438e-01,9.95221e-01
1.163046844e+00,2.03726e-01,9.99999e-01,9.99999e-01,3.06370e-01,6.65872e-01,9.98642e-01
1.168862078e+00,2.89076e-01,9.99999e-01,9.99999e-01,4.30959e-01,6.71242e-01,9.99300e-01
1.174706389e+00,4.01575e-01,9.99999e-01,9.99999e-01,5.94115e-01,6.76548e-01,9.99072e-01
1.180579921e+00,4.95113e-01,9.99999e-01,9.99999e-01,7.27213e-01,6.81790e-01,9.98598e-01
1.186482820e+00,5.72401e-01,9.99999e-01,9.99980e-01,8.34440e-01,6.86968e-01,9.98561e-01
1.192415234e+00,6.00638e-01,9.99999e-01,9.64764e-01,8.99563e-01,6.92082e-01,9.98922e-01
1.198377311e+00,3.38977e-01,9.99999e-01,5.24259e-01,9.14682e-01,6.97131e-01,9.98982e-01
1.204369197e+00,4.83271e-27,9.99999e-01,7.23387e-27,9.19260e-01,7.02117e-01,9.99079e-01
1.210391043e+00,1.08803e-108,9.99999e-01,1.61035e-108,9.22540e-01,7.07039e-01,9.99439e-01
1.216442998e+00,4.34874e-94,9.99999e-01,6.37609e-94,9.33720e-01,7.11897e-01,9.99656e-01
1.222525213e+00,1.13020e-92,9.99999e-01,1.62134e-92,9.47948e-01,7.16692e-01,9.99786e-01
1.228637839e+00,1.55222e-71,9.99999e-01,2.20633e-71,9.63552e-01,7.21423e-01,9.99900e-01
