#,Wave/freq,Total,N2,CO2,H2O,Rayleigh,CIA
4.000000000e-01,6.77934e-05,9.99999e-01,9.99999e-01,9.99981e-01,6.77947e-05,9.99999e-01
4.020000000e-01,8.19635e-05,9.99999e-01,9.99999e-01,9.99988e-01,8.19644e-05,9.99999e-01
4.040100000e-01,9.87050e-05,9.99999e-01,9.99999e-01,9.99994e-01,9.87055e-05,9.99999e-01
4.060300500e-01,1.18430e-04,9.99999e-01,9.99999e-01,9.99998e-01,1.18430e-04,9.99999e-01
4.080602003e-01,1.41586e-04,9.99999e-01,9.99999e-01,9.99999e-01,1.41587e-04,9.99999e-01
4.101005013e-01,1.68674e-04,9.99999e-01,9.99999e-01,9.99999e-01,1.68674e-04,9.99999e-01
4.121510038e-01,2.00250e-04,9.99999e-01,9.99999e-01,9.99998e-01,2.00251e-04,9.99999e-01
4.142117588e-01,2.36933e-04,9.99999e-01,9.99999e-01,9.99994e-01,2.36934e-04,9.99999e-01
4.162828176e-01,2.79400e-04,9.99999e-01,9.99999e-01,9.99976e-01,2.79407e-04,9.99999e-01
4.183642317e-01,3.28418e-04,9.99999e-01,9.99999e-01,9.99985e-01,3.28422e-04,9.99999e-01
4.204560528e-01,3.84803e-04,9.99999e-01,9.99999e-01,9.99991e-01,3.84806e-04,9.99999e-01
4.225583331e-01,4.49459e-04,9.99999e-01,9.99999e-01,9.99996e-01,4.49461e-04,9.99999e-01
4.246711247e-01,5.23369e-04,9.99999e-01,9.99999e-01,9.99997e-01,5.23371e-04,9.99999e-01
4.267944804e-01,6.07602e-04,9.99999e-01,9.99999e-01,9.99995e-01,6.07604e-04,9.99999e-01
4.289284528e-01,7.03317e-04,9.99999e-01,9.99999e-01,9.99996e-01,7.03319e-04,9.99999e-01
4.310730950e-01,8.11761e-04,9.99999e-01,9.99999e-01,9.99998e-01,8.11762e-04,9.99999e-01
4.332284605e-01,9.34276e-04,9.99999e-01,9.99999e-01,9.99999e-01,9.34276e-04,9.99999e-01
4.353946028e-01,1.07230e-03,9.99999e-01,9.99999e-01,9.99999e-01,1.07230e-03,9.99999e-01
4.375715758e-01,1.22736e-03,9.99999e-01,9.99999e-01,9.99997e-01,1.22737e-03,9.99999e-01
4.397594337e-01,1.40109e-03,9.99999e-01,9.99999e-01,9.99979e-01,1.40112e-03,9.99999e-01
4.419582309e-01,1.59513e-03,9.99999e-01,9.99999e-01,9.99898e-01,1.59529e-03,9.99999e-01
4.441680220e-01,1.81157e-03,9.99999e-01,9.99999e-01,9.99919e-01,1.81171e-03,9.99999e-01
4.463888621e-01,2.05217e-03,9.99999e-01,9.99999e-01,9.99916e-01,2.05234e-03,9.99999e-01
4.486208064e-01,2.31908e-03,9.99999e-01,9.99999e-01,9.99947e-01,2.31920e-03,9.99999e-01
4.508639105e-01,2.61438e-03,9.99999e-01,9.99999e-01,9.99975e-01,2.61445e-03,9.99999e-01
4.531182300e-01,2.94028e-03,9.99999e-01,9.99999e-01,9.99989e-01,2.94031e-03,9.99999e-01
4.553838212e-01,3.29910e-03,9.99999e-01,9.99999e-01,9.99993e-01,3.29912e-03,9.99999e-01
4.576607403e-01,3.69330e-03,9.99999e-01,9.99999e-01,9.99996e-01,3.69331e-03,9.99999e-01
4.599490440e-01,4.12539e-03,9.99999e-01,9.99999e-01,9.99997e-01,4.12540e-03,9.99999e-01
4.622487892e-01,4.59797e-03,9.99999e-01,9.99999e-01,9.99999e-01,4.59797e-03,9.99999e-01
4.645600332e-01,5.11371e-03,9.99999e-01,9.99999e-01,9.99998e-01,5.11371e-03,9.99999e-01
4.668828333e-01,5.67524e-03,9.99999e-01,9.99999e-01,9.99975e-01,5.67537e-03,9.99999e-01
4.692172475e-01,6.28545e-03,9.99999e-01,9.99999e-01,9.99947e-01,6.28577e-03,9.99999e-01
4.715633337e-01,6.94755e-03,9.99999e-01,9.99999e-01,9.99965e-01,6.94779e-03,9.99999e-01
4.739211504e-01,7.66410e-03,9.99999e-01,9.99999e-01,9.99966e-01,7.66435e-03,9.99999e-01
4.762907561e-01,8.43830e-03,9.99999e-01,9.99999e-01,9.99982e-01,8.43844e-03,9.99999e-01
4.786722099e-01,9.27301e-03,9.99999e-01,9.99999e-01,9.99992e-01,9.27307e-03,9.99999e-01
4.810655710e-01,1.01713e-02,9.99999e-01,9.99999e-01,9.99997e-01,1.01713e-02,9.99999e-01
4.834708988e-01,1.11359e-02,9.99999e-01,9.99999e-01,9.99979e-01,1.11362e-02,9.99999e-01
4.858882533e-01,1.21703e-02,9.99999e-01,9.99999e-01,9.99962e-01,1.21707e-02,9.99999e-01
4.883176946e-01,1.32777e-02,9.99999e-01,9.99999e-01,9.99968e-01,1.32781e-02,9.99999e-01
4.907592831e-01,1.44610e-02,9.99999e-01,9.99999e-01,9.99971e-01,1.44614e-02,9.99999e-01
4.932130795e-01,1.57232e-02,9.99999e-01,9.99999e-01,9.99979e-01,1.57235e-02,9.99999e-01
4.956791449e-01,1.70674e-02,9.99999e-01,9.99999e-01,9.99989e-01,1.70676e-02,9.99999e-01
4.981575406e-01,1.84956e-02,9.99999e-01,9.99999e-01,9.99947e-01,1.84966e-02,9.99999e-01
5.006483283e-01,2.00107e-02,9.99999e-01,9.99999e-01,9.99864e-01,2.00134e-02,9.99998e-01
5.031515699e-01,2.16059e-02,9.99999e-01,9.99999e-01,9.99313e-01,2.16209e-02,9.99992e-01
5.056673278e-01,2.33133e-02,9.99999e-01,9.99999e-01,9.99636e-01,2.33219e-02,9.99991e-01
5.081956644e-01,2.51075e-02,9.99999e-01,9.99999e-01,9.99542e-01,2.51192e-02,9.99994e-01
5.107366428e-01,2.70069e-02,9.99999e-01,9.99999e-01,9.99690e-01,2.70152e-02,9.99998e-01
5.132903260e-01,2.90076e-02,9.99999e-01,9.99999e-01,9.99822e-01,2.90127e-02,9.99999e-01
5.158567776e-01,3.11117e-02,9.99999e-01,9.99999e-01,9.99924e-01,3.11140e-02,9.99999e-01
5.184360615e-01,3.33205e-02,9.99999e-01,9.99999e-01,9.99969e-01,3.33215e-02,9.99999e-01
5.210282418e-01,3.56368e-02,9.99999e-01,9.99999e-01,9.99988e-01,3.56372e-02,9.99999e-01
5.236333830e-01,3.80617e-02,9.99999e-01,9.99999e-01,9.99954e-01,3.80634e-02,9.99999e-01
5.262515499e-01,4.06007e-02,9.99999e-01,9.99999e-01,9.99971e-01,4.06018e-02,9.99999e-01
5.288828077e-01,4.32533e-02,9.99999e-01,9.99999e-01,9.99973e-01,4.32544e-02,9.99999e-01
5.315272217e-01,4.60217e-02,9.99999e-01,9.99999e-01,9.99976e-01,4.60227e-02,9.99999e-01
5.341848578e-01,4.89075e-02,9.99999e-01,9.99999e-01,9.99984e-01,4.89082e-02,9.99999e-01
5.368557821e-01,5.19095e-02,9.99999e-01,9.99999e-01,9.99947e-01,5.19122e-02,9.99999e-01
5.395400610e-01,5.50256e-02,9.99999e-01,9.99999e-01,9.99812e-01,5.50359e-02,9.99997e-01
5.422377613e-01,5.82659e-02,9.99999e-01,9.99999e-01,9.99756e-01,5.82803e-02,9.99995e-01
5.449489501e-01,6.16319e-02,9.99999e-01,9.99999e-01,9.99774e-01,6.16461e-02,9.99994e-01
5.476736949e-01,6.51208e-02,9.99999e-01,9.99999e-01,9.99798e-01,6.51340e-02,9.99997e-01
5.504120634e-01,6.87345e-02,9.99999e-01,9.99999e-01,9.99854e-01,6.87445e-02,9.99998e-01
5.531641237e-01,7.24726e-02,9.99999e-01,9.99999e-01,9.99926e-01,7.24779e-02,9.99999e-01
5.559299443e-01,7.63316e-02,9.99999e-01,9.99999e-01,9.99964e-01,7.63342e-02,9.99999e-01
5.587095940e-01,8.03117e-02,9.99999e-01,9.99999e-01,9.99977e-01,8.03135e-02,9.99999e-01
5.615031420e-01,8.44133e-02,9.99999e-01,9.99999e-01,9.99974e-01,8.44154e-02,9.99999e-01
5.643106577e-01,8.86371e-02,9.99999e-01,9.99999e-01,9.99971e-01,8.86395e-02,9.99999e-01
5.671322110e-01,9.29538e-02,9.99999e-01,9.99999e-01,9.99663e-01,9.29853e-02,9.99996e-01
5.699678720e-01,9.74158e-02,9.99999e-01,9.99999e-01,9.99636e-01,9.74520e-02,9.99990e-01
5.728177114e-01,1.02000e-01,9.99999e-01,9.99999e-01,9.99623e-01,1.02039e-01,9.99991e-01
5.756818000e-01,1.06707e-01,9.99999e-01,9.99999e-01,9.99654e-01,1.06744e-01,9.99994e-01
5.785602090e-01,1.11533e-01,9.99999e-01,9.99999e-01,9.99698e-01,1.11567e-01,9.99998e-01
5.814530100e-01,1.16471e-01,9.99999e-01,9.99999e-01,9.99697e-01,1.16506e-01,9.99998e-01
5.843602750e-01,1.21517e-01,9.99999e-01,9.99999e-01,9.99640e-01,1.21560e-01,9.99997e-01
5.872820764e-01,1.26332e-01,9.99999e-01,9.99999e-01,9.96906e-01,1.26727e-01,9.99977e-01
5.902184868e-01,1.31500e-01,9.99999e-01,9.99999e-01,9.96236e-01,1.32005e-01,9.99940e-01
5.931695792e-01,1.37019e-01,9.99999e-01,9.99999e-01,9.97343e-01,1.37392e-01,9.99942e-01
5.961354271e-01,1.42464e-01,9.99999e-01,9.99999e-01,9.97085e-01,1.42885e-01,9.99966e-01
5.991161043e-01,1.48167e-01,9.99999e-01,9.99999e-01,9.97873e-01,1.48484e-01,9.99989e-01
6.021116848e-01,1.53998e-01,9.99999e-01,9.99999e-01,9.98791e-01,1.54184e-01,9.99998e-01
6.051222432e-01,1.59887e-01,9.99999e-01,9.99999e-01,9.99388e-01,1.59985e-01,9.99999e-01
6.081478544e-01,1.65839e-01,9.99999e-01,9.99999e-01,9.99736e-01,1.65882e-01,9.99999e-01
6.111885937e-01,1.71855e-01,9.99999e-01,9.99999e-01,9.99887e-01,1.71874e-01,9.99999e-01
6.142445367e-01,1.77949e-01,9.99999e-01,9.99999e-01,9.99949e-01,1.77958e-01,9.99999e-01
6.173157594e-01,1.84125e-01,9.99999e-01,9.99999e-01,9.99972e-01,1.84130e-01,9.99999e-01
6.204023382e-01,1.90384e-01,9.99999e-01,9.99999e-01,9.99976e-01,1.90389e-01,9.99999e-01
6.235043498e-01,1.96710e-01,9.99999e-01,9.99999e-01,9.99898e-01,1.96730e-01,9.99999e-01
6.266218716e-01,2.03040e-01,9.99999e-01,9.99999e-01,9.99458e-01,2.03150e-01,9.99995e-01
6.297549810e-01,2.09605e-01,9.99999e-01,9.99999e-01,9.99801e-01,2.09648e-01,9.99991e-01
6.329037559e-01,2.16132e-01,9.99999e-01,9.99999e-01,9.99606e-01,2.16218e-01,9.99993e-01
6.360682746e-01,2.22784e-01,9.99999e-01,9.99999e-01,9.99665e-01,2.22859e-01,9.99995e-01
6.392486160e-01,2.29466e-01,9.99999e-01,9.99999e-01,9.99566e-01,2.29566e-01,9.99997e-01
6.424448591e-01,2.36200e-01,9.99999e-01,9.99999e-01,9.99422e-01,2.36337e-01,9.99996e-01
6.456570834e-01,2.42513e-01,9.99999e-01,9.99999e-01,9.97321e-01,2.43168e-01,9.99984e-01
6.488853688e-01,2.49552e-01,9.99999e-01,9.99999e-01,9.98027e-01,2.50055e-01,9.99957e-01
6.521297956e-01,2.56470e-01,9.99999e-01,9.99999e-01,9.97989e-01,2.56996e-01,9.99964e-01
6.553904446e-01,2.63455e-01,9.99999e-01,9.99999e-01,9.98012e-01,2.63986e-01,9.99973e-01
6.586673968e-01,2.70557e-01,9.99999e-01,9.99999e-01,9.98286e-01,2.71023e-01,9.99990e-01
6.619607338e-01,2.77827e-01,9.99999e-01,9.99999e-01,9.99009e-01,2.78103e-01,9.99997e-01
6.652705375e-01,2.85059e-01,9.99999e-01,9.99999e-01,9.99425e-01,2.85223e-01,9.99998e-01
6.685968902e-01,2.92301e-01,9.99999e-01,9.99999e-01,9.99732e-01,2.92379e-01,9.99999e-01
6.719398746e-01,2.99531e-01,9.99999e-01,9.99999e-01,9.99875e-01,2.99568e-01,9.99999e-01
6.752995740e-01,3.06765e-01,9.99999e-01,9.99999e-01,9.99932e-01,3.06786e-01,9.99999e-01
6.786760719e-01,3.14000e-01,9.99999e-01,9.99999e-01,9.99903e-01,3.14030e-01,9.99999e-01
6.820694522e-01,3.21244e-01,9.99999e-01,9.99999e-01,9.99834e-01,3.21298e-01,9.99998e-01
6.854797995e-01,3.28514e-01,9.99999e-01,9.99999e-01,9.99787e-01,3.28585e-01,9.99997e-01
6.889071985e-01,3.35715e-01,9.99999e-01,9.99999e-01,9.99488e-01,3.35888e-01,9.99994e-01
6.923517345e-01,3.40318e-01,9.99999e-01,9.99999e-01,9.91626e-01,3.43205e-01,9.99959e-01
6.958134932e-01,3.48957e-01,9.99999e-01,9.99999e-01,9.95595e-01,3.50532e-01,9.99908e-01
6.992925606e-01,3.56355e-01,9.99999e-01,9.99999e-01,9.95856e-01,3.57866e-01,9.99919e-01
7.027890234e-01,3.63307e-01,9.99999e-01,9.99999e-01,9.94865e-01,3.65204e-01,9.99938e-01
7.063029686e-01,3.70924e-01,9.99999e-01,9.99999e-01,9.95684e-01,3.72543e-01,9.99968e-01
7.098344834e-01,3.78301e-01,9.99999e-01,9.99999e-01,9.95859e-01,3.79880e-01,9.99981e-01
7.133836558e-01,3.85076e-01,9.99999e-01,9.99999e-01,9.94516e-01,3.87213e-01,9.99963e-01
7.169505741e-01,3.77262e-01,9.99999e-01,9.99999e-01,9.56482e-01,3.94538e-01,9.99716e-01
7.205353270e-01,3.92935e-01,9.99999e-01,9.99999e-01,9.78296e-01,4.01853e-01,9.99500e-01
7.241380036e-01,3.97820e-01,9.99999e-01,9.99999e-01,9.72715e-01,4.09155e-01,9.99568e-01
7.277586936e-01,4.06027e-01,9.99999e-01,9.99999e-01,9.75335e-01,4.16441e-01,9.99647e-01
7.313974871e-01,4.12509e-01,9.99999e-01,9.99999e-01,9.73724e-01,4.23710e-01,9.99834e-01
7.350544745e-01,4.24721e-01,9.99999e-01,9.99999e-01,9.85584e-01,4.30958e-01,9.99942e-01
7.387297469e-01,4.33516e-01,9.99999e-01,9.99999e-01,9.89373e-01,4.38183e-01,9.99973e-01
7.424233956e-01,4.43058e-01,9.99999e-01,9.99999e-01,9.94783e-01,4.45383e-01,9.99994e-01
7.461355126e-01,4.51125e-01,9.99999e-01,9.99999e-01,9.96839e-01,4.52556e-01,9.99998e-01
7.498661902e-01,4.59021e-01,9.99999e-01,9.99999e-01,9.98525e-01,4.59699e-01,9.99999e-01
7.536155211e-01,4.66473e-01,9.99999e-01,9.99999e-01,9.99277e-01,4.66810e-01,9.99999e-01
7.573835987e-01,4.73712e-01,9.99999e-01,9.99999e-01,9.99627e-01,4.73888e-01,9.99999e-01
7.611705167e-01,4.80819e-01,9.99999e-01,9.99999e-01,9.99768e-01,4.80930e-01,9.99999e-01
7.649763693e-01,4.87864e-01,9.99999e-01,9.99999e-01,9.99854e-01,4.87935e-01,9.99999e-01
7.688012511e-01,4.94850e-01,9.99999e-01,9.99999e-01,9.99898e-01,4.94900e-01,9.99999e-01
7.726452574e-01,5.01782e-01,9.99999e-01,9.99999e-01,9.99916e-01,5.01824e-01,9.99999e-01
7.765084837e-01,5.08646e-01,9.99999e-01,9.99999e-01,9.99882e-01,5.08705e-01,9.99999e-01
7.803910261e-01,4.99629e-01,9.99999e-01,9.69609e-01,9.99493e-01,5.15542e-01,9.99999e-01
7.842929812e-01,4.54069e-01,9.99999e-01,8.70782e-01,9.98232e-01,5.22333e-01,9.99996e-01
7.882144461e-01,4.54763e-01,9.99999e-01,8.62597e-01,9.96345e-01,5.29077e-01,9.99977e-01
7.921555184e-01,4.90665e-01,9.99999e-01,9.17653e-01,9.97989e-01,5.35772e-01,9.99956e-01
7.961162960e-01,5.10193e-01,9.99999e-01,9.43934e-01,9.96467e-01,5.42417e-01,9.99958e-01
8.000968774e-01,5.29931e-01,9.99999e-01,9.69241e-01,9.95910e-01,5.49011e-01,9.99955e-01
8.040973618e-01,5.44370e-01,9.99999e-01,9.83920e-01,9.95911e-01,5.55552e-01,9.99964e-01
8.081178486e-01,5.52755e-01,9.99999e-01,9.92602e-01,9.90829e-01,5.62040e-01,9.99966e-01
8.121584379e-01,5.45681e-01,9.99999e-01,9.97700e-01,9.62221e-01,5.68473e-01,9.99870e-01
8.162192301e-01,5.48487e-01,9.99999e-01,9.99491e-01,9.55078e-01,5.74851e-01,9.99514e-01
8.203003262e-01,5.67778e-01,9.99999e-01,9.99991e-01,9.77515e-01,5.81172e-01,9.99431e-01
8.244018279e-01,5.68560e-01,9.99999e-01,9.99999e-01,9.68305e-01,5.87435e-01,9.99547e-01
8.285238370e-01,5.77439e-01,9.99999e-01,9.99999e-01,9.73053e-01,5.93640e-01,9.99644e-01
8.326664562e-01,5.83330e-01,9.99999e-01,9.99999e-01,9.72704e-01,5.99787e-01,9.99852e-01
8.368297885e-01,5.93997e-01,9.99999e-01,9.99999e-01,9.80429e-01,6.05874e-01,9.99965e-01
8.410139374e-01,6.04748e-01,9.99999e-01,9.99999e-01,9.88330e-01,6.11900e-01,9.99979e-01
8.452190071e-01,6.14313e-01,9.99999e-01,9.99999e-01,9.94260e-01,6.17866e-01,9.99987e-01
8.494451021e-01,6.21689e-01,9.99999e-01,9.99999e-01,9.96673e-01,6.23770e-01,9.99990e-01
8.536923276e-01,6.28368e-01,9.99999e-01,9.99999e-01,9.98028e-01,6.29612e-01,9.99993e-01
8.579607893e-01,6.34621e-01,9.99999e-01,9.99999e-01,9.98787e-01,6.35392e-01,9.99997e-01
8.622505932e-01,6.40615e-01,9.99999e-01,9.99999e-01,9.99228e-01,6.41110e-01,9.99999e-01
8.665618462e-01,6.01674e-01,9.99999e-01,9.30709e-01,9.99523e-01,6.46764e-01,9.99999e-01
8.708946554e-01,4.58786e-01,9.99999e-01,7.03647e-01,9.99455e-01,6.52355e-01,9.99999e-01
8.752491287e-01,4.95334e-01,9.99999e-01,7.53454e-01,9.99270e-01,6.57883e-01,9.99998e-01
8.796253743e-01,5.67367e-01,9.99999e-01,8.56151e-01,9.98991e-01,6.63347e-01,9.99997e-01
8.840235012e-01,6.16358e-01,9.99999e-01,9.22715e-01,9.98848e-01,6.68747e-01,9.99992e-01
8.884436187e-01,6.50314e-01,9.99999e-01,9.68759e-01,9.95833e-01,6.74083e-01,9.99979e-01
8.928858368e-01,6.41590e-01,9.99999e-01,9.87246e-01,9.56626e-01,6.79355e-01,9.99884e-01
8.973502660e-01,6.30336e-01,9.99999e-01,9.96879e-01,9.24161e-01,6.84562e-01,9.99409e-01
9.018370173e-01,6.61561e-01,9.99999e-01,9.99655e-01,9.60404e-01,6.89706e-01,9.99071e-01
9.063462024e-01,6.64505e-01,9.99999e-01,9.91311e-01,9.65347e-01,6.94786e-01,9.99184e-01
9.108779334e-01,6.48579e-01,9.99999e-01,9.79959e-01,9.46344e-01,6.99801e-01,9.99152e-01
9.154323231e-01,6.58379e-01,9.99999e-01,9.95241e-01,9.39234e-01,7.04753e-01,9.99299e-01
9.200094847e-01,6.31814e-01,9.99999e-01,9.33360e-01,9.52019e-01,7.09640e-01,9.99607e-01
9.246095321e-01,6.00209e-01,9.99999e-01,9.05677e-01,9.26484e-01,7.14465e-01,9.99548e-01
9.292325798e-01,4.00628e-01,9.99999e-01,9.25587e-01,5.98338e-01,7.19225e-01,9.98239e-01
9.338787427e-01,3.45254e-01,9.99999e-01,9.27687e-01,5.14003e-01,7.23923e-01,9.92745e-01
9.385481364e-01,5.24105e-01,9.99999e-01,9.46373e-01,7.64483e-01,7.28557e-01,9.91377e-01
9.432408771e-01,4.85759e-01,9.99999e-01,9.66787e-01,6.89294e-01,7.33129e-01,9.92556e-01
9.479570815e-01,4.31882e-01,9.99999e-01,9.82844e-01,5.98824e-01,7.37638e-01,9.93937e-01
9.526968669e-01,4.98755e-01,9.99999e-01,9.91685e-01,6.79780e-01,7.42085e-01,9.96297e-01
9.574603512e-01,5.20914e-01,9.99999e-01,9.96435e-01,7.01499e-01,7.46470e-01,9.98117e-01
9.622476530e-01,5.61109e-01,9.99999e-01,9.98886e-01,7.49116e-01,7.50794e-01,9.98697e-01
9.670588912e-01,6.38586e-01,9.99999e-01,9.99665e-01,8.46768e-01,7.55057e-01,9.99109e-01
9.718941857e-01,6.83902e-01,9.99999e-01,9.99975e-01,9.01360e-01,7.59259e-01,9.99343e-01
9.767536566e-01,7.00014e-01,9.99999e-01,9.99999e-01,9.17427e-01,7.63401e-01,9.99498e-01
9.816374249e-01,7.19833e-01,9.99999e-01,9.99999e-01,9.38077e-01,7.67482e-01,9.99826e-01
9.865456120e-01,7.41278e-01,9.99999e-01,9.99999e-01,9.60855e-01,7.71505e-01,9.99963e-01
9.914783401e-01,7.56567e-01,9.99999e-01,9.99999e-01,9.75635e-01,7.75468e-01,9.99989e-01
9.964357318e-01,7.68970e-01,9.99999e-01,9.99999e-01,9.86657e-01,7.79373e-01,9.99993e-01
1.001417910e+00,7.76934e-01,9.99999e-01,9.99999e-01,9.91983e-01,7.83220e-01,9.99990e-01
1.006425000e+00,7.83401e-01,9.99999e-01,9.99999e-01,9.95427e-01,7.87009e-01,9.99986e-01
1.011457125e+00,7.88484e-01,9.99999e-01,9.99999e-01,9.97156e-01,7.90741e-01,9.99987e-01
1.016514411e+00,7.92877e-01,9.99999e-01,9.99999e-01,9.98070e-01,7.94417e-01,9.99991e-01
1.021596983e+00,7.96768e-01,9.99999e-01,9.99955e-01,9.98462e-01,7.98036e-01,9.99991e-01
1.026704968e+00,7.97926e-01,9.99999e-01,9.96613e-01,9.98801e-01,8.01600e-01,9.99993e-01
1.031838492e+00,7.72204e-01,9.99999e-01,9.59944e-01,9.99127e-01,8.05110e-01,9.99997e-01
1.036997685e+00,1.35124e-01,9.99999e-01,1.67185e-01,9.99482e-01,8.08564e-01,9.99999e-01
1.042182673e+00,1.15519e-01,9.99999e-01,1.42349e-01,9.99383e-01,8.11965e-01,9.99999e-01
1.047393587e+00,1.32272e-01,9.99999e-01,1.62353e-01,9.99182e-01,8.15313e-01,9.99999e-01
1.052630555e+00,4.83491e-03,9.99999e-01,5.91117e-03,9.98878e-01,8.18608e-01,9.99999e-01
1.057893707e+00,1.17028e-02,9.99999e-01,1.42579e-02,9.98129e-01,8.21850e-01,9.99998e-01
1.063183176e+00,3.61048e-02,9.99999e-01,4.38595e-02,9.96922e-01,8.25042e-01,9.99997e-01
1.068499092e+00,9.51828e-02,9.99999e-01,1.15436e-01,9.94846e-01,8.28182e-01,9.99996e-01
1.073841587e+00,2.11017e-01,9.99999e-01,2.55172e-01,9.93975e-01,8.31271e-01,9.99991e-01
1.079210795e+00,3.48991e-01,9.99999e-01,4.21296e-01,9.92273e-01,8.34311e-01,9.99978e-01
1.084606849e+00,5.14586e-01,9.99999e-01,6.21550e-01,9.88332e-01,8.37302e-01,9.99949e-01
1.090029883e+00,6.45836e-01,9.99999e-01,7.81420e-01,9.83319e-01,8.40244e-01,9.99896e-01
1.095480033e+00,7.13319e-01,9.99999e-01,8.85516e-01,9.55152e-01,8.43138e-01,9.99813e-01
1.100957433e+00,7.10185e-01,9.99999e-01,9.43132e-01,8.89909e-01,8.45984e-01,9.99657e-01
1.106462220e+00,6.16337e-01,9.99999e-01,9.76069e-01,7.43788e-01,8.48784e-01,9.99418e-01
1.111994531e+00,4.52123e-01,9.99999e-01,9.91064e-01,5.36247e-01,8.51537e-01,9.98458e-01
1.117554504e+00,3.09681e-01,9.99999e-01,9.97806e-01,3.65206e-01,8.54244e-01,9.94448e-01
1.123142276e+00,4.03796e-01,9.99999e-01,9.99855e-01,4.77522e-01,8.56906e-01,9.86885e-01
1.128757988e+00,5.26879e-01,9.99999e-01,9.99999e-01,6.22421e-01,8.59524e-01,9.84844e-01
1.134401778e+00,3.06358e-01,9.99999e-01,9.99999e-01,3.60007e-01,8.62098e-01,9.87098e-01
1.140073787e+00,6.44595e-01,9.99999e-01,9.99999e-01,7.53291e-01,8.64629e-01,9.89678e-01
1.145774156e+00,4.75970e-01,9.99999e-01,9.99999e-01,5.54148e-01,8.67116e-01,9.90547e-01
1.151503026e+00,4.48550e-01,9.99999e-01,9.99999e-01,5.18570e-01,8.69562e-01,9.94723e-01
1.157260541e+00,5.02376e-01,9.99999e-01,9.99999e-01,5.77054e-01,8.71966e-01,9.98418e-01
1.163046844e+00,5.81732e-01,9.99999e-01,9.99999e-01,6.65645e-01,8.74329e-01,9.99551e-01
1.168862078e+00,6.60439e-01,9.99999e-01,9.99999e-01,7.53539e-01,8.76651e-01,9.99768e-01
1.174706389e+00,7.37892e-01,9.99999e-01,9.99999e-01,8.39788e-01,8.78934e-01,9.99693e-01
1.180579921e+00,7.91906e-01,9.99999e-01,9.99999e-01,8.99106e-01,8.81177e-01,9.99536e-01
1.186482820e+00,8.31489e-01,9.99999e-01,9.99994e-01,9.41708e-01,8.83381e-01,9.99524e-01
1.192415234e+00,8.44587e-01,9.99999e-01,9.87970e-01,9.65581e-01,8.85548e-01,9.99643e-01
1.198377311e+00,4.88621e-01,9.99999e-01,5.64387e-01,9.70936e-01,8.87676e-01,9.99663e-01
1.204369197e+00,1.94720e-10,9.99999e-01,2.22466e-10,9.72462e-01,8.89768e-01,9.99695e-01
1.210391043e+00,2.12162e-37,9.99999e-01,2.41492e-37,9.73649e-01,8.91823e-01,9.99814e-01
1.216442998e+00,1.40787e-32,9.99999e-01,1.59752e-32,9.77518e-01,8.93842e-01,9.99886e-01
1.222525213e+00,4.13449e-32,9.99999e-01,4.65779e-32,9.82464e-01,8.95826e-01,9.99929e-01
1.228637839e+00,7.27689e-25,9.99999e-01,8.17516e-25,9.87797e-01,8.97774e-01,9.99966e-01
