#,Wave/freq,Total,N2,CO2,H2O,Rayleigh,CIA
4.000000000e-01,1.25597e-04,9.99999e-01,9.99999e-01,9.99982e-01,1.25599e-04,9.99999e-01
4.020000000e-01,1.50009e-04,9.99999e-01,9.99999e-01,9.99988e-01,1.50010e-04,9.99999e-01
4.040100000e-01,1.78505e-04,9.99999e-01,9.99999e-01,9.99994e-01,1.78506e-04,9.99999e-01
4.060300500e-01,2.11685e-04,9.99999e-01,9.99999e-01,9.99998e-01,2.11686e-04,9.99999e-01
4.080602003e-01,2.50189e-04,9.99999e-01,9.99999e-01,9.99999e-01,2.50189e-04,9.99999e-01
4.101005013e-01,2.94721e-04,9.99999e-01,9.99999e-01,9.99999e-01,2.94721e-04,9.99999e-01
4.121510038e-01,3.46058e-04,9.99999e-01,9.99999e-01,9.99998e-01,3.46058e-04,9.99999e-01
4.142117588e-01,4.05049e-04,9.99999e-01,9.99999e-01,9.99994e-01,4.05051e-04,9.99999e-01
4.162828176e-01,4.72618e-04,9.99999e-01,9.99999e-01,9.99978e-01,4.72628e-04,9.99999e-01
4.183642317e-01,5.49794e-04,9.99999e-01,9.99999e-01,9.99986e-01,5.49801e-04,9.99999e-01
4.204560528e-01,6.37663e-04,9.99999e-01,9.99999e-01,9.99991e-01,6.37668e-04,9.99999e-01
4.225583331e-01,7.37413e-04,9.99999e-01,9.99999e-01,9.99996e-01,7.37415e-04,9.99999e-01
4.246711247e-01,8.50318e-04,9.99999e-01,9.99999e-01,9.99997e-01,8.50320e-04,9.99999e-01
4.267944804e-01,9.77753e-04,9.99999e-01,9.99999e-01,9.99996e-01,9.77757e-04,9.99999e-01
4.289284528e-01,1.12119e-03,9.99999e-01,9.99999e-01,9.99996e-01,1.12120e-03,9.99999e-01
4.310730950e-01,1.28220e-03,9.99999e-01,9.99999e-01,9.99998e-01,1.28220e-03,9.99999e-01
4.332284605e-01,1.46245e-03,9.99999e-01,9.99999e-01,9.99999e-01,1.46245e-03,9.99999e-01
4.353946028e-01,1.66371e-03,9.99999e-01,9.99999e-01,9.99999e-01,1.66372e-03,9.99999e-01
4.375715758e-01,1.88785e-03,9.99999e-01,9.99999e-01,9.99997e-01,1.88786e-03,9.99999e-01
4.397594337e-01,2.13682e-03,9.99999e-01,9.99999e-01,9.99980e-01,2.13686e-03,9.99999e-01
4.419582309e-01,2.41256e-03,9.99999e-01,9.99999e-01,9.99904e-01,2.41279e-03,9.99999e-01
4.441680220e-01,2.71762e-03,9.99999e-01,9.99999e-01,9.99924e-01,2.71782e-03,9.99999e-01
4.463888621e-01,3.05399e-03,9.99999e-01,9.99999e-01,9.99921e-01,3.05423e-03,9.99999e-01
4.486208064e-01,3.42421e-03,9.99999e-01,9.99999e-01,9.99951e-01,3.42437e-03,9.99999e-01
4.508639105e-01,3.83062e-03,9.99999e-01,9.99999e-01,9.99976e-01,3.83071e-03,9.99999e-01
4.531182300e-01,4.27574e-03,9.99999e-01,9.99999e-01,9.99990e-01,4.27578e-03,9.99999e-01
4.553838212e-01,4.76218e-03,9.99999e-01,9.99999e-01,9.99993e-01,4.76221e-03,9.99999e-01
4.576607403e-01,5.29269e-03,9.99999e-01,9.99999e-01,9.99996e-01,5.29271e-03,9.99999e-01
4.599490440e-01,5.87002e-03,9.99999e-01,9.99999e-01,9.99997e-01,5.87004e-03,9.99999e-01
4.622487892e-01,6.49704e-03,9.99999e-01,9.99999e-01,9.99999e-01,6.49704e-03,9.99999e-01
4.645600332e-01,7.17661e-03,9.99999e-01,9.99999e-01,9.99998e-01,7.17662e-03,9.99999e-01
4.668828333e-01,7.91154e-03,9.99999e-01,9.99999e-01,9.99976e-01,7.91172e-03,9.99999e-01
4.692172475e-01,8.70490e-03,9.99999e-01,9.99999e-01,9.99950e-01,8.70533e-03,9.99999e-01
4.715633337e-01,9.56017e-03,9.99999e-01,9.99999e-01,9.99967e-01,9.56047e-03,9.99999e-01
4.739211504e-01,1.04799e-02,9.99999e-01,9.99999e-01,9.99969e-01,1.04802e-02,9.99999e-01
4.762907561e-01,1.14674e-02,9.99999e-01,9.99999e-01,9.99983e-01,1.14676e-02,9.99999e-01
4.786722099e-01,1.25256e-02,9.99999e-01,9.99999e-01,9.99993e-01,1.25257e-02,9.99999e-01
4.810655710e-01,1.36576e-02,9.99999e-01,9.99999e-01,9.99997e-01,1.36576e-02,9.99999e-01
4.834708988e-01,1.48662e-02,9.99999e-01,9.99999e-01,9.99980e-01,1.48664e-02,9.99999e-01
4.858882533e-01,1.61546e-02,9.99999e-01,9.99999e-01,9.99965e-01,1.61551e-02,9.99999e-01
4.883176946e-01,1.75262e-02,9.99999e-01,9.99999e-01,9.99970e-01,1.75267e-02,9.99999e-01
4.907592831e-01,1.89837e-02,9.99999e-01,9.99999e-01,9.99973e-01,1.89842e-02,9.99999e-01
4.932130795e-01,2.05300e-02,9.99999e-01,9.99999e-01,9.99981e-01,2.05304e-02,9.99999e-01
4.956791449e-01,2.21681e-02,9.99999e-01,9.99999e-01,9.99989e-01,2.21683e-02,9.99999e-01
4.981575406e-01,2.38994e-02,9.99999e-01,9.99999e-01,9.99950e-01,2.39006e-02,9.99999e-01
5.006483283e-01,2.57266e-02,9.99999e-01,9.99999e-01,9.99872e-01,2.57299e-02,9.99998e-01
5.031515699e-01,2.76410e-02,9.99999e-01,9.99999e-01,9.99357e-01,2.76590e-02,9.99992e-01
5.056673278e-01,2.96800e-02,9.99999e-01,9.99999e-01,9.99660e-01,2.96902e-02,9.99991e-01
5.081956644e-01,3.18123e-02,9.99999e-01,9.99999e-01,9.99571e-01,3.18261e-02,9.99994e-01
5.107366428e-01,3.40590e-02,9.99999e-01,9.99999e-01,9.99710e-01,3.40688e-02,9.99998e-01
5.132903260e-01,3.64146e-02,9.99999e-01,9.99999e-01,9.99834e-01,3.64206e-02,9.99999e-01
5.158567776e-01,3.88806e-02,9.99999e-01,9.99999e-01,9.99929e-01,3.88834e-02,9.99999e-01
5.184360615e-01,4.14579e-02,9.99999e-01,9.99999e-01,9.99971e-01,4.14591e-02,9.99999e-01
5.210282418e-01,4.41489e-02,9.99999e-01,9.99999e-01,9.99989e-01,4.41494e-02,9.99999e-01
5.236333830e-01,4.69540e-02,9.99999e-01,9.99999e-01,9.99957e-01,4.69560e-02,9.99999e-01
5.262515499e-01,4.98789e-02,9.99999e-01,9.99999e-01,9.99973e-01,4.98802e-02,9.99999e-01
5.288828077e-01,5.29221e-02,9.99999e-01,9.99999e-01,9.99975e-01,5.29234e-02,9.99999e-01
5.315272217e-01,5.60853e-02,9.99999e-01,9.99999e-01,9.99978e-01,5.60865e-02,9.99999e-01
5.341848578e-01,5.93698e-02,9.99999e-01,9.99999e-01,9.99985e-01,5.93706e-02,9.99999e-01
5.368557821e-01,6.27734e-02,9.99999e-01,9.99999e-01,9.99950e-01,6.27764e-02,9.99999e-01
5.395400610e-01,6.62928e-02,9.99999e-01,9.99999e-01,9.99823e-01,6.63045e-02,9.99998e-01
5.422377613e-01,6.99391e-02,9.99999e-01,9.99999e-01,9.99772e-01,6.99553e-02,9.99995e-01
5.449489501e-01,7.37131e-02,9.99999e-01,9.99999e-01,9.99788e-01,7.37290e-02,9.99995e-01
5.476736949e-01,7.76109e-02,9.99999e-01,9.99999e-01,9.99812e-01,7.76256e-02,9.99997e-01
5.504120634e-01,8.16340e-02,9.99999e-01,9.99999e-01,9.99863e-01,8.16451e-02,9.99998e-01
5.531641237e-01,8.57813e-02,9.99999e-01,9.99999e-01,9.99931e-01,8.57872e-02,9.99999e-01
5.559299443e-01,9.00483e-02,9.99999e-01,9.99999e-01,9.99966e-01,9.00513e-02,9.99999e-01
5.587095940e-01,9.44349e-02,9.99999e-01,9.99999e-01,9.99978e-01,9.44368e-02,9.99999e-01
5.615031420e-01,9.89407e-02,9.99999e-01,9.99999e-01,9.99976e-01,9.89429e-02,9.99999e-01
5.643106577e-01,1.03566e-01,9.99999e-01,9.99999e-01,9.99973e-01,1.03569e-01,9.99999e-01
5.671322110e-01,1.08278e-01,9.99999e-01,9.99999e-01,9.99682e-01,1.08313e-01,9.99996e-01
5.699678720e-01,1.13135e-01,9.99999e-01,9.99999e-01,9.99661e-01,1.13174e-01,9.99990e-01
5.728177114e-01,1.18109e-01,9.99999e-01,9.99999e-01,9.99647e-01,1.18151e-01,9.99992e-01
5.756818000e-01,1.23202e-01,9.99999e-01,9.99999e-01,9.99676e-01,1.23242e-01,9.99995e-01
5.785602090e-01,1.28409e-01,9.99999e-01,9.99999e-01,9.99717e-01,1.28446e-01,9.99998e-01
5.814530100e-01,1.33722e-01,9.99999e-01,9.99999e-01,9.99716e-01,1.33760e-01,9.99998e-01
5.843602750e-01,1.39135e-01,9.99999e-01,9.99999e-01,9.99662e-01,1.39182e-01,9.99997e-01
5.872820764e-01,1.44287e-01,9.99999e-01,9.99999e-01,9.97096e-01,1.44710e-01,9.99979e-01
5.902184868e-01,1.49805e-01,9.99999e-01,9.99999e-01,9.96480e-01,1.50342e-01,9.99943e-01
5.931695792e-01,1.55679e-01,9.99999e-01,9.99999e-01,9.97513e-01,1.56076e-01,9.99946e-01
5.961354271e-01,1.61462e-01,9.99999e-01,9.99999e-01,9.97273e-01,1.61908e-01,9.99968e-01
5.991161043e-01,1.67502e-01,9.99999e-01,9.99999e-01,9.98011e-01,1.67837e-01,9.99989e-01
6.021116848e-01,1.73663e-01,9.99999e-01,9.99999e-01,9.98870e-01,1.73859e-01,9.99998e-01
6.051222432e-01,1.79870e-01,9.99999e-01,9.99999e-01,9.99428e-01,1.79972e-01,9.99999e-01
6.081478544e-01,1.86128e-01,9.99999e-01,9.99999e-01,9.99753e-01,1.86173e-01,9.99999e-01
6.111885937e-01,1.92439e-01,9.99999e-01,9.99999e-01,9.99895e-01,1.92459e-01,9.99999e-01
6.142445367e-01,1.98817e-01,9.99999e-01,9.99999e-01,9.99952e-01,1.98827e-01,9.99999e-01
6.173157594e-01,2.05268e-01,9.99999e-01,9.99999e-01,9.99973e-01,2.05273e-01,9.99999e-01
6.204023382e-01,2.11790e-01,9.99999e-01,9.99999e-01,9.99977e-01,2.11794e-01,9.99999e-01
6.235043498e-01,2.18367e-01,9.99999e-01,9.99999e-01,9.99904e-01,2.18388e-01,9.99999e-01
6.266218716e-01,2.24936e-01,9.99999e-01,9.99999e-01,9.99493e-01,2.25051e-01,9.99995e-01
6.297549810e-01,2.31735e-01,9.99999e-01,9.99999e-01,9.99813e-01,2.31780e-01,9.99992e-01
6.329037559e-01,2.38482e-01,9.99999e-01,9.99999e-01,9.99632e-01,2.38570e-01,9.99993e-01
6.360682746e-01,2.45343e-01,9.99999e-01,9.99999e-01,9.99687e-01,2.45420e-01,9.99996e-01
6.392486160e-01,2.52223e-01,9.99999e-01,9.99999e-01,9.99594e-01,2.52325e-01,9.99998e-01
6.424448591e-01,2.59142e-01,9.99999e-01,9.99999e-01,9.99458e-01,2.59283e-01,9.99997e-01
6.456570834e-01,2.65616e-01,9.99999e-01,9.99999e-01,9.97485e-01,2.66289e-01,9.99985e-01
6.488853688e-01,2.72826e-01,9.99999e-01,9.99999e-01,9.98156e-01,2.73340e-01,9.99960e-01
6.521297956e-01,2.79898e-01,9.99999e-01,9.99999e-01,9.98120e-01,2.80434e-01,9.99967e-01
6.553904446e-01,2.87021e-01,9.99999e-01,9.99999e-01,9.98130e-01,2.87566e-01,9.99975e-01
6.586673968e-01,2.94258e-01,9.99999e-01,9.99999e-01,9.98397e-01,2.94733e-01,9.99991e-01
6.619607338e-01,3.01652e-01,9.99999e-01,9.99999e-01,9.99073e-01,3.01932e-01,9.99997e-01
6.652705375e-01,3.08993e-01,9.99999e-01,9.99999e-01,9.99463e-01,3.09159e-01,9.99998e-01
6.685968902e-01,3.16332e-01,9.99999e-01,9.99999e-01,9.99750e-01,3.16411e-01,9.99999e-01
6.719398746e-01,3.23648e-01,9.99999e-01,9.99999e-01,9.99884e-01,3.23685e-01,9.99999e-01
6.752995740e-01,3.30957e-01,9.99999e-01,9.99999e-01,9.99937e-01,3.30978e-01,9.99999e-01
6.786760719e-01,3.38256e-01,9.99999e-01,9.99999e-01,9.99909e-01,3.38286e-01,9.99999e-01
6.820694522e-01,3.45553e-01,9.99999e-01,9.99999e-01,9.99845e-01,3.45607e-01,9.99998e-01
6.854797995e-01,3.52865e-01,9.99999e-01,9.99999e-01,9.99800e-01,3.52936e-01,9.99997e-01
6.889071985e-01,3.60097e-01,9.99999e-01,9.99999e-01,9.99518e-01,3.60272e-01,9.99995e-01
6.923517345e-01,3.64708e-01,9.99999e-01,9.99999e-01,9.92141e-01,3.67611e-01,9.99961e-01
6.958134932e-01,3.73381e-01,9.99999e-01,9.99999e-01,9.95899e-01,3.74949e-01,9.99915e-01
6.992925606e-01,3.80771e-01,9.99999e-01,9.99999e-01,9.96112e-01,3.82286e-01,9.99924e-01
7.027890234e-01,3.87723e-01,9.99999e-01,9.99999e-01,9.95197e-01,3.89616e-01,9.99942e-01
7.063029686e-01,3.95324e-01,9.99999e-01,9.99999e-01,9.95962e-01,3.96938e-01,9.99970e-01
7.098344834e-01,4.02676e-01,9.99999e-01,9.99999e-01,9.96126e-01,4.04249e-01,9.99982e-01
7.133836558e-01,4.09410e-01,9.99999e-01,9.99999e-01,9.94843e-01,4.11546e-01,9.99965e-01
7.169505741e-01,4.01599e-01,9.99999e-01,9.99999e-01,9.59119e-01,4.18827e-01,9.99735e-01
7.205353270e-01,4.17274e-01,9.99999e-01,9.99999e-01,9.79768e-01,4.26089e-01,9.99532e-01
7.241380036e-01,4.22072e-01,9.99999e-01,9.99999e-01,9.74412e-01,4.33330e-01,9.99596e-01
7.277586936e-01,4.30220e-01,9.99999e-01,9.99999e-01,9.76878e-01,4.40547e-01,9.99670e-01
7.313974871e-01,4.36670e-01,9.99999e-01,9.99999e-01,9.75429e-01,4.47739e-01,9.99845e-01
7.350544745e-01,4.48744e-01,9.99999e-01,9.99999e-01,9.86516e-01,4.54902e-01,9.99945e-01
7.387297469e-01,4.57433e-01,9.99999e-01,9.99999e-01,9.90065e-01,4.62035e-01,9.99974e-01
7.424233956e-01,4.66848e-01,9.99999e-01,9.99999e-01,9.95128e-01,4.69135e-01,9.99994e-01
7.461355126e-01,4.74795e-01,9.99999e-01,9.99999e-01,9.97046e-01,4.76201e-01,9.99998e-01
7.498661902e-01,4.82566e-01,9.99999e-01,9.99999e-01,9.98623e-01,4.83231e-01,9.99999e-01
7.536155211e-01,4.89892e-01,9.99999e-01,9.99999e-01,9.99324e-01,4.90223e-01,9.99999e-01
7.573835987e-01,4.97002e-01,9.99999e-01,9.99999e-01,9.99652e-01,4.97175e-01,9.99999e-01
7.611705167e-01,5.03977e-01,9.99999e-01,9.99999e-01,9.99783e-01,5.04085e-01,9.99999e-01
7.649763693e-01,5.10883e-01,9.99999e-01,9.99999e-01,9.99864e-01,5.10952e-01,9.99999e-01
7.688012511e-01,5.17726e-01,9.99999e-01,9.99999e-01,9.99905e-01,5.17774e-01,9.99999e-01
7.726452574e-01,5.24509e-01,9.99999e-01,9.99999e-01,9.99922e-01,5.24550e-01,9.99999e-01
7.765084837e-01,5.31219e-01,9.99999e-01,9.99999e-01,9.99889e-01,5.31278e-01,9.99999e-01
7.803910261e-01,5.22073e-01,9.99999e-01,9.70922e-01,9.99524e-01,5.37957e-01,9.99999e-01
7.842929812e-01,4.77701e-01,9.99999e-01,8.78581e-01,9.98340e-01,5.44585e-01,9.99996e-01
7.882144461e-01,4.78188e-01,9.99999e-01,8.70492e-01,9.96579e-01,5.51162e-01,9.99978e-01
7.921555184e-01,5.13576e-01,9.99999e-01,9.22640e-01,9.98122e-01,5.57686e-01,9.99959e-01
7.961162960e-01,5.32785e-01,9.99999e-01,9.47544e-01,9.96686e-01,5.64156e-01,9.99960e-01
8.000968774e-01,5.52017e-01,9.99999e-01,9.71230e-01,9.96171e-01,5.70571e-01,9.99958e-01
8.040973618e-01,5.66081e-01,9.99999e-01,9.84991e-01,9.96171e-01,5.76930e-01,9.99966e-01
8.081178486e-01,5.74200e-01,9.99999e-01,9.93086e-01,9.91387e-01,5.83232e-01,9.99968e-01
8.121584379e-01,5.67284e-01,9.99999e-01,9.97859e-01,9.64514e-01,5.89477e-01,9.99878e-01
8.162192301e-01,5.70090e-01,9.99999e-01,9.99526e-01,9.57949e-01,5.95663e-01,9.99545e-01
8.203003262e-01,5.88726e-01,9.99999e-01,9.99992e-01,9.78818e-01,6.01790e-01,9.99467e-01
8.244018279e-01,5.89620e-01,9.99999e-01,9.99999e-01,9.70408e-01,6.07857e-01,9.99576e-01
8.285238370e-01,5.98155e-01,9.99999e-01,9.99999e-01,9.74734e-01,6.13863e-01,9.99667e-01
8.326664562e-01,6.03887e-01,9.99999e-01,9.99999e-01,9.74445e-01,6.19809e-01,9.99862e-01
8.368297885e-01,6.14222e-01,9.99999e-01,9.99999e-01,9.81697e-01,6.25693e-01,9.99968e-01
8.410139374e-01,6.24614e-01,9.99999e-01,9.99999e-01,9.89090e-01,6.31515e-01,9.99981e-01
8.452190071e-01,6.33851e-01,9.99999e-01,9.99999e-01,9.94638e-01,6.37274e-01,9.99988e-01
8.494451021e-01,6.40965e-01,9.99999e-01,9.99999e-01,9.96888e-01,6.42971e-01,9.99990e-01
8.536923276e-01,6.47407e-01,9.99999e-01,9.99999e-01,9.98158e-01,6.48605e-01,9.99994e-01
8.579607893e-01,6.53433e-01,9.99999e-01,9.99999e-01,9.98865e-01,6.54175e-01,9.99998e-01
8.622505932e-01,6.59206e-01,9.99999e-01,9.99999e-01,9.99279e-01,6.59682e-01,9.99999e-01
8.665618462e-01,6.20051e-01,9.99999e-01,9.32633e-01,9.99554e-01,6.65125e-01,9.99999e-01
8.708946554e-01,4.81800e-01,9.99999e-01,7.18919e-01,9.99489e-01,6.70504e-01,9.99999e-01
8.752491287e-01,5.18133e-01,9.99999e-01,7.67184e-01,9.99317e-01,6.75819e-01,9.99998e-01
8.796253743e-01,5.88500e-01,9.99999e-01,8.64880e-01,9.99055e-01,6.81069e-01,9.99997e-01
8.840235012e-01,6.35891e-01,9.99999e-01,9.27602e-01,9.98920e-01,6.86256e-01,9.99992e-01
8.884436187e-01,6.68583e-01,9.99999e-01,9.70830e-01,9.96070e-01,6.91379e-01,9.99980e-01
8.928858368e-01,6.60060e-01,9.99999e-01,9.88088e-01,9.59211e-01,6.96437e-01,9.99891e-01
8.973502660e-01,6.49304e-01,9.99999e-01,9.97094e-01,9.28846e-01,7.01432e-01,9.99447e-01
9.018370173e-01,6.79423e-01,9.99999e-01,9.99679e-01,9.62997e-01,7.06363e-01,9.99131e-01
9.063462024e-01,6.82054e-01,9.99999e-01,9.91802e-01,9.67431e-01,7.11229e-01,9.99236e-01
9.108779334e-01,6.66838e-01,9.99999e-01,9.81265e-01,9.49640e-01,7.16033e-01,9.99206e-01
9.154323231e-01,6.76291e-01,9.99999e-01,9.95569e-01,9.43002e-01,7.20773e-01,9.99344e-01
9.200094847e-01,6.50287e-01,9.99999e-01,9.36970e-01,9.55052e-01,7.25449e-01,9.99632e-01
9.246095321e-01,6.19862e-01,9.99999e-01,9.11547e-01,9.30485e-01,7.30063e-01,9.99576e-01
9.292325798e-01,4.23574e-01,9.99999e-01,9.29955e-01,6.16852e-01,7.34614e-01,9.98352e-01
9.338787427e-01,3.69061e-01,9.99999e-01,9.32217e-01,5.35747e-01,7.39103e-01,9.93209e-01
9.385481364e-01,5.46078e-01,9.99999e-01,9.49770e-01,7.77545e-01,7.43530e-01,9.91928e-01
9.432408771e-01,5.07671e-01,9.99999e-01,9.68954e-01,7.04385e-01,7.47895e-01,9.93032e-01
9.479570815e-01,4.54097e-01,9.99999e-01,9.83956e-01,6.16555e-01,7.52199e-01,9.94325e-01
9.526968669e-01,5.20961e-01,9.99999e-01,9.92232e-01,6.96077e-01,7.56442e-01,9.96535e-01
9.574603512e-01,5.42911e-01,9.99999e-01,9.96671e-01,7.17280e-01,7.60624e-01,9.98238e-01
9.622476530e-01,5.82339e-01,9.99999e-01,9.98960e-01,7.63161e-01,7.64746e-01,9.98781e-01
9.670588912e-01,6.57227e-01,9.99999e-01,9.99688e-01,8.55832e-01,7.68808e-01,9.99166e-01
9.718941857e-01,7.00792e-01,9.99999e-01,9.99977e-01,9.07384e-01,7.72811e-01,9.99386e-01
9.767536566e-01,7.16225e-01,9.99999e-01,9.99999e-01,9.22505e-01,7.76755e-01,9.99530e-01
9.816374249e-01,7.35234e-01,9.99999e-01,9.99999e-01,9.41986e-01,7.80641e-01,9.99837e-01
9.865456120e-01,7.55703e-01,9.99999e-01,9.99999e-01,9.63362e-01,7.84469e-01,9.99965e-01
9.914783401e-01,7.70263e-01,9.99999e-01,9.99999e-01,9.77202e-01,7.88239e-01,9.99990e-01
9.964357318e-01,7.82067e-01,9.99999e-01,9.99999e-01,9.87522e-01,7.91953e-01,9.99994e-01
1.001417910e+00,7.89640e-01,9.99999e-01,9.99999e-01,9.92504e-01,7.95610e-01,9.99991e-01
1.006425000e+00,7.95783e-01,9.99999e-01,9.99999e-01,9.95722e-01,7.99211e-01,9.99987e-01
1.011457125e+00,8.00616e-01,9.99999e-01,9.99999e-01,9.97342e-01,8.02757e-01,9.99988e-01
1.016514411e+00,8.04788e-01,9.99999e-01,9.99999e-01,9.98195e-01,8.06248e-01,9.99991e-01
1.021596983e+00,8.08481e-01,9.99999e-01,9.99956e-01,9.98562e-01,8.09685e-01,9.99991e-01
1.026704968e+00,8.09558e-01,9.99999e-01,9.96802e-01,9.98878e-01,8.13069e-01,9.99994e-01
1.031838492e+00,7.83537e-01,9.99999e-01,9.60509e-01,9.99184e-01,8.16399e-01,9.99998e-01
1.036997685e+00,1.44824e-01,9.99999e-01,1.76752e-01,9.99515e-01,8.19677e-01,9.99999e-01
1.042182673e+00,1.31767e-01,9.99999e-01,1.60207e-01,9.99422e-01,8.22903e-01,9.99999e-01
1.047393587e+00,1.45640e-01,9.99999e-01,1.76423e-01,9.99234e-01,8.26077e-01,9.99999e-01
1.052630555e+00,6.40927e-03,9.99999e-01,7.73553e-03,9.98949e-01,8.29200e-01,9.99999e-01
1.057893707e+00,1.51433e-02,9.99999e-01,1.82173e-02,9.98247e-01,8.32274e-01,9.99998e-01
1.063183176e+00,4.39562e-02,9.99999e-01,5.27356e-02,9.97116e-01,8.35297e-01,9.99998e-01
1.068499092e+00,1.10133e-01,9.99999e-01,1.31928e-01,9.95174e-01,8.38272e-01,9.99996e-01
1.073841587e+00,2.32871e-01,9.99999e-01,2.78195e-01,9.94354e-01,8.41198e-01,9.99992e-01
1.079210795e+00,3.73123e-01,9.99999e-01,4.45027e-01,9.92768e-01,8.44076e-01,9.99980e-01
1.084606849e+00,5.37176e-01,9.99999e-01,6.41036e-01,9.89070e-01,8.46907e-01,9.99953e-01
1.090029883e+00,6.64285e-01,9.99999e-01,7.94016e-01,9.84339e-01,8.49691e-01,9.99903e-01
1.095480033e+00,7.28993e-01,9.99999e-01,8.92594e-01,9.57885e-01,8.52430e-01,9.99825e-01
1.100957433e+00,7.25806e-01,9.99999e-01,9.46757e-01,8.96359e-01,8.55122e-01,9.99679e-01
1.106462220e+00,6.35048e-01,9.99999e-01,9.77631e-01,7.57169e-01,8.57770e-01,9.99456e-01
1.111994531e+00,4.74872e-01,9.99999e-01,9.91651e-01,5.57097e-01,8.60373e-01,9.98557e-01
1.117554504e+00,3.32718e-01,9.99999e-01,9.97955e-01,3.88243e-01,8.62933e-01,9.94803e-01
1.123142276e+00,4.26574e-01,9.99999e-01,9.99865e-01,4.99055e-01,8.65449e-01,9.87721e-01
1.128757988e+00,5.47993e-01,9.99999e-01,9.99999e-01,6.40471e-01,8.67923e-01,9.85809e-01
1.134401778e+00,3.25960e-01,9.99999e-01,9.99999e-01,3.79093e-01,8.70355e-01,9.87921e-01
1.140073787e+00,6.62516e-01,9.99999e-01,9.99999e-01,7.66523e-01,8.72745e-01,9.90337e-01
1.145774156e+00,4.98274e-01,9.99999e-01,9.99999e-01,5.74477e-01,8.75095e-01,9.91151e-01
1.151503026e+00,4.70901e-01,9.99999e-01,9.99999e-01,5.39361e-01,8.77404e-01,9.95060e-01
1.157260541e+00,5.24606e-01,9.99999e-01,9.99999e-01,5.97247e-01,8.79674e-01,9.98520e-01
1.163046844e+00,6.02211e-01,9.99999e-01,9.99999e-01,6.83139e-01,8.81904e-01,9.99580e-01
1.168862078e+00,6.78352e-01,9.99999e-01,9.99999e-01,7.67449e-01,8.84096e-01,9.99783e-01
1.174706389e+00,7.52487e-01,9.99999e-01,9.99999e-01,8.49312e-01,8.86250e-01,9.99713e-01
1.180579921e+00,8.03922e-01,9.99999e-01,9.99999e-01,9.05335e-01,8.88366e-01,9.99566e-01
1.186482820e+00,8.41430e-01,9.99999e-01,9.99993e-01,9.45378e-01,8.90446e-01,9.99554e-01
1.192415234e+00,8.53690e-01,9.99999e-01,9.88605e-01,9.67766e-01,8.92489e-01,9.99666e-01
1.198377311e+00,4.94401e-01,9.99999e-01,5.65804e-01,9.72767e-01,8.94496e-01,9.99685e-01
1.204369197e+00,6.52915e-10,9.99999e-01,7.39594e-10,9.74204e-01,8.96468e-01,9.99714e-01
1.210391043e+00,3.82257e-35,9.99999e-01,4.31497e-35,9.75321e-01,8.98406e-01,9.99826e-01
1.216442998e+00,1.24409e-30,9.99999e-01,1.40027e-30,9.78964e-01,9.00309e-01,9.99893e-01
1.222525213e+00,3.41231e-30,9.99999e-01,3.81489e-30,9.83590e-01,9.02178e-01,9.99933e-01
1.228637839e+00,2.25046e-23,9.99999e-01,2.50947e-23,9.88579e-01,9.04015e-01,9.99968e-01
