#,Wave/freq,Total,N2,CO2,H2O,Rayleigh,CIA
4.000000000e-01,1.59978e-09,9.99999e-01,9.99999e-01,9.99960e-01,1.59984e-09,9.99999e-01
4.020000000e-01,2.38775e-09,9.99999e-01,9.99999e-01,9.99975e-01,2.38780e-09,9.99999e-01
4.040100000e-01,3.53427e-09,9.99999e-01,9.99999e-01,9.99989e-01,3.53431e-09,9.99999e-01
4.060300500e-01,5.19093e-09,9.99999e-01,9.99999e-01,9.99997e-01,5.19095e-09,9.99999e-01
4.080602003e-01,7.56642e-09,9.99999e-01,9.99999e-01,9.99998e-01,7.56643e-09,9.99999e-01
4.101005013e-01,1.09472e-08,9.99999e-01,9.99999e-01,9.99999e-01,1.09472e-08,9.99999e-01
4.121510038e-01,1.57234e-08,9.99999e-01,9.99999e-01,9.99998e-01,1.57234e-08,9.99999e-01
4.142117588e-01,2.24223e-08,9.99999e-01,9.99999e-01,9.99988e-01,2.24225e-08,9.99999e-01
4.162828176e-01,3.17509e-08,9.99999e-01,9.99999e-01,9.99951e-01,3.17524e-08,9.99999e-01
4.183642317e-01,4.46553e-08,9.99999e-01,9.99999e-01,9.99970e-01,4.46566e-08,9.99999e-01
4.204560528e-01,6.23822e-08,9.99999e-01,9.99999e-01,9.99981e-01,6.23833e-08,9.99999e-01
4.225583331e-01,8.65727e-08,9.99999e-01,9.99999e-01,9.99992e-01,8.65732e-08,9.99999e-01
4.246711247e-01,1.19367e-07,9.99999e-01,9.99999e-01,9.99994e-01,1.19368e-07,9.99999e-01
4.267944804e-01,1.63543e-07,9.99999e-01,9.99999e-01,9.99991e-01,1.63545e-07,9.99999e-01
4.289284528e-01,2.22680e-07,9.99999e-01,9.99999e-01,9.99993e-01,2.22681e-07,9.99999e-01
4.310730950e-01,3.01358e-07,9.99999e-01,9.99999e-01,9.99996e-01,3.01359e-07,9.99999e-01
4.332284605e-01,4.05404e-07,9.99999e-01,9.99999e-01,9.99998e-01,4.05404e-07,9.99999e-01
4.353946028e-01,5.42185e-07,9.99999e-01,9.99999e-01,9.99999e-01,5.42186e-07,9.99999e-01
4.375715758e-01,7.20961e-07,9.99999e-01,9.99999e-01,9.99994e-01,7.20965e-07,9.99999e-01
4.397594337e-01,9.53273e-07,9.99999e-01,9.99999e-01,9.99957e-01,9.53313e-07,9.99999e-01
4.419582309e-01,1.25334e-06,9.99999e-01,9.99999e-01,9.99785e-01,1.25360e-06,9.99999e-01
4.441680220e-01,1.63932e-06,9.99999e-01,9.99999e-01,9.99831e-01,1.63959e-06,9.99999e-01
4.463888621e-01,2.13272e-06,9.99999e-01,9.99999e-01,9.99824e-01,2.13309e-06,9.99999e-01
4.486208064e-01,2.76044e-06,9.99999e-01,9.99999e-01,9.99890e-01,2.76074e-06,9.99999e-01
4.508639105e-01,3.55473e-06,9.99999e-01,9.99999e-01,9.99948e-01,3.55492e-06,9.99999e-01
4.531182300e-01,4.55465e-06,9.99999e-01,9.99999e-01,9.99979e-01,4.55474e-06,9.99999e-01
4.553838212e-01,5.80720e-06,9.99999e-01,9.99999e-01,9.99985e-01,5.80728e-06,9.99999e-01
4.576607403e-01,7.36876e-06,9.99999e-01,9.99999e-01,9.99993e-01,7.36880e-06,9.99999e-01
4.599490440e-01,9.30629e-06,9.99999e-01,9.99999e-01,9.99995e-01,9.30633e-06,9.99999e-01
4.622487892e-01,1.16992e-05,9.99999e-01,9.99999e-01,9.99998e-01,1.16992e-05,9.99999e-01
4.645600332e-01,1.46411e-05,9.99999e-01,9.99999e-01,9.99996e-01,1.46411e-05,9.99999e-01
4.668828333e-01,1.82408e-05,9.99999e-01,9.99999e-01,9.99948e-01,1.82417e-05,9.99999e-01
4.692172475e-01,2.26268e-05,9.99999e-01,9.99999e-01,9.99889e-01,2.26293e-05,9.99999e-01
4.715633337e-01,2.79510e-05,9.99999e-01,9.99999e-01,9.99927e-01,2.79530e-05,9.99999e-01
4.739211504e-01,3.43829e-05,9.99999e-01,9.99999e-01,9.99930e-01,3.43853e-05,9.99999e-01
4.762907561e-01,4.21235e-05,9.99999e-01,9.99999e-01,9.99963e-01,4.21250e-05,9.99999e-01
4.786722099e-01,5.13996e-05,9.99999e-01,9.99999e-01,9.99984e-01,5.14004e-05,9.99999e-01
4.810655710e-01,6.24717e-05,9.99999e-01,9.99999e-01,9.99995e-01,6.24720e-05,9.99999e-01
4.834708988e-01,7.56333e-05,9.99999e-01,9.99999e-01,9.99958e-01,7.56364e-05,9.99999e-01
4.858882533e-01,9.12226e-05,9.99999e-01,9.99999e-01,9.99921e-01,9.12297e-05,9.99999e-01
4.883176946e-01,1.09624e-04,9.99999e-01,9.99999e-01,9.99934e-01,1.09631e-04,9.99999e-01
4.907592831e-01,1.31259e-04,9.99999e-01,9.99999e-01,9.99940e-01,1.31267e-04,9.99999e-01
4.932130795e-01,1.56608e-04,9.99999e-01,9.99999e-01,9.99957e-01,1.56614e-04,9.99999e-01
4.956791449e-01,1.86201e-04,9.99999e-01,9.99999e-01,9.99977e-01,1.86205e-04,9.99999e-01
4.981575406e-01,2.20608e-04,9.99999e-01,9.99999e-01,9.99889e-01,2.20632e-04,9.99999e-01
5.006483283e-01,2.60475e-04,9.99999e-01,9.99999e-01,9.99715e-01,2.60550e-04,9.99997e-01
5.031515699e-01,3.06232e-04,9.99999e-01,9.99999e-01,9.98552e-01,3.06680e-04,9.99984e-01
5.056673278e-01,3.59536e-04,9.99999e-01,9.99999e-01,9.99234e-01,3.59818e-04,9.99982e-01
5.081956644e-01,4.20421e-04,9.99999e-01,9.99999e-01,9.99034e-01,4.20832e-04,9.99988e-01
5.107366428e-01,4.90350e-04,9.99999e-01,9.99999e-01,9.99347e-01,4.90671e-04,9.99997e-01
5.132903260e-01,5.70156e-04,9.99999e-01,9.99999e-01,9.99626e-01,5.70369e-04,9.99999e-01
5.158567776e-01,6.60939e-04,9.99999e-01,9.99999e-01,9.99841e-01,6.61043e-04,9.99999e-01
5.184360615e-01,7.63854e-04,9.99999e-01,9.99999e-01,9.99936e-01,7.63902e-04,9.99999e-01
5.210282418e-01,8.80228e-04,9.99999e-01,9.99999e-01,9.99976e-01,8.80249e-04,9.99999e-01
5.236333830e-01,1.01138e-03,9.99999e-01,9.99999e-01,9.99905e-01,1.01148e-03,9.99998e-01
5.262515499e-01,1.15902e-03,9.99999e-01,9.99999e-01,9.99940e-01,1.15909e-03,9.99998e-01
5.288828077e-01,1.32460e-03,9.99999e-01,9.99999e-01,9.99945e-01,1.32467e-03,9.99998e-01
5.315272217e-01,1.50985e-03,9.99999e-01,9.99999e-01,9.99951e-01,1.50992e-03,9.99999e-01
5.341848578e-01,1.71657e-03,9.99999e-01,9.99999e-01,9.99968e-01,1.71663e-03,9.99999e-01
5.368557821e-01,1.94648e-03,9.99999e-01,9.99999e-01,9.99889e-01,1.94669e-03,9.99999e-01
5.395400610e-01,2.20124e-03,9.99999e-01,9.99999e-01,9.99605e-01,2.20212e-03,9.99996e-01
5.422377613e-01,2.48370e-03,9.99999e-01,9.99999e-01,9.99486e-01,2.48500e-03,9.99990e-01
5.449489501e-01,2.79617e-03,9.99999e-01,9.99999e-01,9.99523e-01,2.79753e-03,9.99989e-01
5.476736949e-01,3.14067e-03,9.99999e-01,9.99999e-01,9.99576e-01,3.14201e-03,9.99994e-01
5.504120634e-01,3.51974e-03,9.99999e-01,9.99999e-01,9.99692e-01,3.52082e-03,9.99998e-01
5.531641237e-01,3.93583e-03,9.99999e-01,9.99999e-01,9.99845e-01,3.93644e-03,9.99999e-01
5.559299443e-01,4.39111e-03,9.99999e-01,9.99999e-01,9.99924e-01,4.39144e-03,9.99999e-01
5.587095940e-01,4.88822e-03,9.99999e-01,9.99999e-01,9.99952e-01,4.88845e-03,9.99999e-01
5.615031420e-01,5.42991e-03,9.99999e-01,9.99999e-01,9.99947e-01,5.43020e-03,9.99999e-01
5.643106577e-01,6.01912e-03,9.99999e-01,9.99999e-01,9.99941e-01,6.01947e-03,9.99999e-01
5.671322110e-01,6.65437e-03,9.99999e-01,9.99999e-01,9.99290e-01,6.65913e-03,9.99993e-01
5.699678720e-01,7.34632e-03,9.99999e-01,9.99999e-01,9.99234e-01,7.35209e-03,9.99980e-01
5.728177114e-01,8.09474e-03,9.99999e-01,9.99999e-01,9.99207e-01,8.10129e-03,9.99983e-01
5.756818000e-01,8.90318e-03,9.99999e-01,9.99999e-01,9.99271e-01,8.90975e-03,9.99989e-01
5.785602090e-01,9.77425e-03,9.99999e-01,9.99999e-01,9.99364e-01,9.78049e-03,9.99996e-01
5.814530100e-01,1.07097e-02,9.99999e-01,9.99999e-01,9.99362e-01,1.07166e-02,9.99998e-01
5.843602750e-01,1.17122e-02,9.99999e-01,9.99999e-01,9.99243e-01,1.17211e-02,9.99995e-01
5.872820764e-01,1.27132e-02,9.99999e-01,9.99999e-01,9.93489e-01,1.27971e-02,9.99953e-01
5.902184868e-01,1.38354e-02,9.99999e-01,9.99999e-01,9.92077e-01,1.39476e-02,9.99874e-01
5.931695792e-01,1.50891e-02,9.99999e-01,9.99999e-01,9.94407e-01,1.51757e-02,9.99878e-01
5.961354271e-01,1.63822e-02,9.99999e-01,9.99999e-01,9.93863e-01,1.64845e-02,9.99930e-01
5.991161043e-01,1.77965e-02,9.99999e-01,9.99999e-01,9.95518e-01,1.78770e-02,9.99978e-01
6.021116848e-01,1.93067e-02,9.99999e-01,9.99999e-01,9.97453e-01,1.93560e-02,9.99996e-01
6.051222432e-01,2.08975e-02,9.99999e-01,9.99999e-01,9.98710e-01,2.09245e-02,9.99999e-01
6.081478544e-01,2.25728e-02,9.99999e-01,9.99999e-01,9.99443e-01,2.25853e-02,9.99999e-01
6.111885937e-01,2.43355e-02,9.99999e-01,9.99999e-01,9.99764e-01,2.43412e-02,9.99999e-01
6.142445367e-01,2.61921e-02,9.99999e-01,9.99999e-01,9.99894e-01,2.61949e-02,9.99999e-01
6.173157594e-01,2.81472e-02,9.99999e-01,9.99999e-01,9.99941e-01,2.81488e-02,9.99999e-01
6.204023382e-01,3.02041e-02,9.99999e-01,9.99999e-01,9.99950e-01,3.02056e-02,9.99999e-01
6.235043498e-01,3.23606e-02,9.99999e-01,9.99999e-01,9.99785e-01,3.23675e-02,9.99998e-01
6.266218716e-01,3.45970e-02,9.99999e-01,9.99999e-01,9.98858e-01,3.46368e-02,9.99991e-01
6.297549810e-01,3.69996e-02,9.99999e-01,9.99999e-01,9.99581e-01,3.70157e-02,9.99983e-01
6.329037559e-01,3.94729e-02,9.99999e-01,9.99999e-01,9.99171e-01,3.95061e-02,9.99986e-01
6.360682746e-01,4.20799e-02,9.99999e-01,9.99999e-01,9.99295e-01,4.21098e-02,9.99991e-01
6.392486160e-01,4.47875e-02,9.99999e-01,9.99999e-01,9.99086e-01,4.48286e-02,9.99996e-01
6.424448591e-01,4.76057e-02,9.99999e-01,9.99999e-01,9.98783e-01,4.76640e-02,9.99994e-01
6.456570834e-01,5.03302e-02,9.99999e-01,9.99999e-01,9.94358e-01,5.06173e-02,9.99968e-01
6.488853688e-01,5.34622e-02,9.99999e-01,9.99999e-01,9.95845e-01,5.36899e-02,9.99911e-01
6.521297956e-01,5.66377e-02,9.99999e-01,9.99999e-01,9.95765e-01,5.68827e-02,9.99925e-01
6.553904446e-01,5.99413e-02,9.99999e-01,9.99999e-01,9.95812e-01,6.01967e-02,9.99944e-01
6.586673968e-01,6.34016e-02,9.99999e-01,9.99999e-01,9.96388e-01,6.36325e-02,9.99981e-01
6.619607338e-01,6.70501e-02,9.99999e-01,9.99999e-01,9.97911e-01,6.71907e-02,9.99995e-01
6.652705375e-01,7.07857e-02,9.99999e-01,9.99999e-01,9.98788e-01,7.08717e-02,9.99997e-01
6.685968902e-01,7.46336e-02,9.99999e-01,9.99999e-01,9.99437e-01,7.46756e-02,9.99999e-01
6.719398746e-01,7.85820e-02,9.99999e-01,9.99999e-01,9.99738e-01,7.86025e-02,9.99999e-01
6.752995740e-01,8.26405e-02,9.99999e-01,9.99999e-01,9.99858e-01,8.26521e-02,9.99999e-01
6.786760719e-01,8.68066e-02,9.99999e-01,9.99999e-01,9.99796e-01,8.68242e-02,9.99999e-01
6.820694522e-01,9.10864e-02,9.99999e-01,9.99999e-01,9.99651e-01,9.11183e-02,9.99997e-01
6.854797995e-01,9.54903e-02,9.99999e-01,9.99999e-01,9.99551e-01,9.55335e-02,9.99995e-01
6.889071985e-01,9.99604e-02,9.99999e-01,9.99999e-01,9.98921e-01,1.00069e-01,9.99989e-01
6.923517345e-01,1.02876e-01,9.99999e-01,9.99999e-01,9.82435e-01,1.04724e-01,9.99914e-01
6.958134932e-01,1.08463e-01,9.99999e-01,9.99999e-01,9.90743e-01,1.09497e-01,9.99807e-01
6.992925606e-01,1.13371e-01,9.99999e-01,9.99999e-01,9.91283e-01,1.14387e-01,9.99830e-01
7.027890234e-01,1.18088e-01,9.99999e-01,9.99999e-01,9.89205e-01,1.19392e-01,9.99869e-01
7.063029686e-01,1.23373e-01,9.99999e-01,9.99999e-01,9.90920e-01,1.24511e-01,9.99935e-01
7.098344834e-01,1.28607e-01,9.99999e-01,9.99999e-01,9.91286e-01,1.29742e-01,9.99961e-01
7.133836558e-01,1.33516e-01,9.99999e-01,9.99999e-01,9.88477e-01,1.35083e-01,9.99923e-01
7.169505741e-01,1.27946e-01,9.99999e-01,9.99999e-01,9.10987e-01,1.40531e-01,9.99403e-01
7.205353270e-01,1.39362e-01,9.99999e-01,9.99999e-01,9.54981e-01,1.46085e-01,9.98947e-01
7.241380036e-01,1.43044e-01,9.99999e-01,9.99999e-01,9.43531e-01,1.51742e-01,9.99091e-01
7.277586936e-01,1.49339e-01,9.99999e-01,9.99999e-01,9.48883e-01,1.57501e-01,9.99257e-01
7.313974871e-01,1.54402e-01,9.99999e-01,9.99999e-01,9.45512e-01,1.63357e-01,9.99651e-01
7.350544745e-01,1.64189e-01,9.99999e-01,9.99999e-01,9.69878e-01,1.69309e-01,9.99878e-01
7.387297469e-01,1.71440e-01,9.99999e-01,9.99999e-01,9.77730e-01,1.75354e-01,9.99944e-01
7.424233956e-01,1.79496e-01,9.99999e-01,9.99999e-01,9.89030e-01,1.81489e-01,9.99988e-01
7.461355126e-01,1.86461e-01,9.99999e-01,9.99999e-01,9.93344e-01,1.87711e-01,9.99997e-01
7.498661902e-01,1.93414e-01,9.99999e-01,9.99999e-01,9.96892e-01,1.94017e-01,9.99998e-01
7.536155211e-01,2.00099e-01,9.99999e-01,9.99999e-01,9.98476e-01,2.00404e-01,9.99999e-01
7.573835987e-01,2.06707e-01,9.99999e-01,9.99999e-01,9.99215e-01,2.06869e-01,9.99999e-01
7.611705167e-01,2.13305e-01,9.99999e-01,9.99999e-01,9.99512e-01,2.13409e-01,9.99999e-01
7.649763693e-01,2.19953e-01,9.99999e-01,9.99999e-01,9.99694e-01,2.20020e-01,9.99999e-01
7.688012511e-01,2.26651e-01,9.99999e-01,9.99999e-01,9.99787e-01,2.26699e-01,9.99999e-01
7.726452574e-01,2.33403e-01,9.99999e-01,9.99999e-01,9.99824e-01,2.33444e-01,9.99999e-01
7.765084837e-01,2.40190e-01,9.99999e-01,9.99999e-01,9.99752e-01,2.40249e-01,9.99999e-01
7.803910261e-01,2.32546e-01,9.99999e-01,9.42001e-01,9.98931e-01,2.47113e-01,9.99998e-01
7.842929812e-01,1.90683e-01,9.99999e-01,7.53202e-01,9.96275e-01,2.54031e-01,9.99992e-01
7.882144461e-01,1.91830e-01,9.99999e-01,7.40313e-01,9.92307e-01,2.61001e-01,9.99952e-01
7.921555184e-01,2.22994e-01,9.99999e-01,8.35471e-01,9.95765e-01,2.68019e-01,9.99908e-01
7.961162960e-01,2.41842e-01,9.99999e-01,8.85710e-01,9.92566e-01,2.75081e-01,9.99912e-01
8.000968774e-01,2.61933e-01,9.99999e-01,9.36337e-01,9.91392e-01,2.82184e-01,9.99906e-01
8.040973618e-01,2.77190e-01,9.99999e-01,9.66411e-01,9.91396e-01,2.89325e-01,9.99925e-01
8.081178486e-01,2.86277e-01,9.99999e-01,9.84465e-01,9.80775e-01,2.96500e-01,9.99930e-01
8.121584379e-01,2.78700e-01,9.99999e-01,9.95157e-01,9.22295e-01,3.03706e-01,9.99727e-01
8.162192301e-01,2.81773e-01,9.99999e-01,9.98928e-01,9.08064e-01,3.10940e-01,9.98976e-01
8.203003262e-01,3.03120e-01,9.99999e-01,9.99982e-01,9.53769e-01,3.18198e-01,9.98801e-01
8.244018279e-01,3.04168e-01,9.99999e-01,9.99999e-01,9.35421e-01,3.25477e-01,9.99045e-01
8.285238370e-01,3.13961e-01,9.99999e-01,9.99999e-01,9.44172e-01,3.32774e-01,9.99250e-01
8.326664562e-01,3.20772e-01,9.99999e-01,9.99999e-01,9.43501e-01,3.40085e-01,9.99689e-01
8.368297885e-01,3.33218e-01,9.99999e-01,9.99999e-01,9.59222e-01,3.47408e-01,9.99928e-01
8.410139374e-01,3.46055e-01,9.99999e-01,9.99999e-01,9.75560e-01,3.54739e-01,9.99958e-01
8.452190071e-01,3.57699e-01,9.99999e-01,9.99999e-01,9.87934e-01,3.62076e-01,9.99974e-01
8.494451021e-01,3.66820e-01,9.99999e-01,9.99999e-01,9.92995e-01,3.69415e-01,9.99979e-01
8.536923276e-01,3.75184e-01,9.99999e-01,9.99999e-01,9.95846e-01,3.76753e-01,9.99986e-01
8.579607893e-01,3.83106e-01,9.99999e-01,9.99999e-01,9.97444e-01,3.84088e-01,9.99995e-01
8.622505932e-01,3.90780e-01,9.99999e-01,9.99999e-01,9.98373e-01,3.91417e-01,9.99998e-01
8.665618462e-01,3.56914e-01,9.99999e-01,8.95963e-01,9.98995e-01,3.98737e-01,9.99999e-01
8.708946554e-01,2.00314e-01,9.99999e-01,4.93864e-01,9.98851e-01,4.06044e-01,9.99998e-01
8.752491287e-01,2.31303e-01,9.99999e-01,5.60416e-01,9.98462e-01,4.13338e-01,9.99997e-01
8.796253743e-01,3.03977e-01,9.99999e-01,7.24157e-01,9.97875e-01,4.20614e-01,9.99994e-01
8.840235012e-01,3.60575e-01,9.99999e-01,8.44723e-01,9.97571e-01,4.27871e-01,9.99984e-01
8.884436187e-01,4.03470e-01,9.99999e-01,9.35369e-01,9.91247e-01,4.35107e-01,9.99957e-01
8.928858368e-01,3.92385e-01,9.99999e-01,9.73304e-01,9.11261e-01,4.42318e-01,9.99756e-01
8.973502660e-01,3.78288e-01,9.99999e-01,9.93431e-01,8.47979e-01,4.49502e-01,9.98754e-01
9.018370173e-01,4.18569e-01,9.99999e-01,9.99273e-01,9.19017e-01,4.56658e-01,9.98043e-01
9.063462024e-01,4.22706e-01,9.99999e-01,9.81930e-01,9.28805e-01,4.63783e-01,9.98280e-01
9.108779334e-01,4.01702e-01,9.99999e-01,9.58267e-01,8.90975e-01,4.70876e-01,9.98213e-01
9.154323231e-01,4.14435e-01,9.99999e-01,9.90000e-01,8.76842e-01,4.77933e-01,9.98523e-01
9.200094847e-01,3.85189e-01,9.99999e-01,8.72927e-01,9.02189e-01,4.84954e-01,9.99172e-01
9.246095321e-01,3.43243e-01,9.99999e-01,8.12238e-01,8.54530e-01,4.91936e-01,9.99047e-01
9.292325798e-01,1.55097e-01,9.99999e-01,8.51400e-01,3.56987e-01,4.98878e-01,9.96290e-01
9.338787427e-01,1.15444e-01,9.99999e-01,8.54652e-01,2.64399e-01,5.05778e-01,9.84756e-01
9.385481364e-01,2.64214e-01,9.99999e-01,8.90621e-01,5.82762e-01,5.12634e-01,9.81896e-01
9.432408771e-01,2.30531e-01,9.99999e-01,9.31289e-01,4.81014e-01,5.19445e-01,9.84361e-01
9.479570815e-01,1.84227e-01,9.99999e-01,9.64169e-01,3.66642e-01,5.26209e-01,9.87253e-01
9.526968669e-01,2.41232e-01,9.99999e-01,9.82554e-01,4.63173e-01,5.32925e-01,9.92206e-01
9.574603512e-01,2.58683e-01,9.99999e-01,9.92498e-01,4.84527e-01,5.39591e-01,9.96033e-01
9.622476530e-01,2.99616e-01,9.99999e-01,9.97653e-01,5.51204e-01,5.46207e-01,9.97255e-01
9.670588912e-01,3.90653e-01,9.99999e-01,9.99295e-01,7.08499e-01,5.52771e-01,9.98121e-01
9.718941857e-01,4.49230e-01,9.99999e-01,9.99949e-01,8.04374e-01,5.59281e-01,9.98617e-01
9.767536566e-01,4.71664e-01,9.99999e-01,9.99999e-01,8.34596e-01,5.65738e-01,9.98942e-01
9.816374249e-01,4.99998e-01,9.99999e-01,9.99999e-01,8.74228e-01,5.72139e-01,9.99633e-01
9.865456120e-01,5.31789e-01,9.99999e-01,9.99999e-01,9.19350e-01,5.78484e-01,9.99923e-01
9.914783401e-01,5.55130e-01,9.99999e-01,9.99999e-01,9.49328e-01,5.84773e-01,9.99978e-01
9.964357318e-01,5.74493e-01,9.99999e-01,9.99999e-01,9.72076e-01,5.91003e-01,9.99987e-01
1.001417910e+00,5.87111e-01,9.99999e-01,9.99999e-01,9.83166e-01,5.97174e-01,9.99980e-01
1.006425000e+00,5.97467e-01,9.99999e-01,9.99999e-01,9.90379e-01,6.03287e-01,9.99972e-01
1.011457125e+00,6.05675e-01,9.99999e-01,9.99999e-01,9.94011e-01,6.09339e-01,9.99974e-01
1.016514411e+00,6.12818e-01,9.99999e-01,9.99999e-01,9.95933e-01,6.15331e-01,9.99981e-01
1.021596983e+00,6.19180e-01,9.99999e-01,9.99907e-01,9.96759e-01,6.21261e-01,9.99981e-01
1.026704968e+00,6.21095e-01,9.99999e-01,9.92891e-01,9.97472e-01,6.27130e-01,9.99987e-01
1.031838492e+00,5.89616e-01,9.99999e-01,9.33204e-01,9.98161e-01,6.32937e-01,9.99996e-01
1.036997685e+00,5.38569e-02,9.99999e-01,8.43957e-02,9.98908e-01,6.38681e-01,9.99998e-01
1.042182673e+00,1.44383e-02,9.99999e-01,2.24311e-02,9.98700e-01,6.44362e-01,9.99999e-01
1.047393587e+00,2.63147e-02,9.99999e-01,4.05453e-02,9.98276e-01,6.49980e-01,9.99999e-01
1.052630555e+00,5.69625e-05,9.99999e-01,8.70328e-05,9.97636e-01,6.55535e-01,9.99998e-01
1.057893707e+00,1.93276e-04,9.99999e-01,2.93057e-04,9.96059e-01,6.61026e-01,9.99998e-01
1.063183176e+00,1.54813e-03,9.99999e-01,2.33252e-03,9.93519e-01,6.66453e-01,9.99996e-01
1.068499092e+00,8.19252e-03,9.99999e-01,1.22949e-02,9.89163e-01,6.71816e-01,9.99992e-01
1.073841587e+00,4.05704e-02,9.99999e-01,6.05166e-02,9.87344e-01,6.77115e-01,9.99983e-01
1.079210795e+00,1.14249e-01,9.99999e-01,1.69777e-01,9.83779e-01,6.82351e-01,9.99956e-01
1.084606849e+00,2.49369e-01,9.99999e-01,3.71073e-01,9.75572e-01,6.87522e-01,9.99894e-01
1.090029883e+00,3.99357e-01,9.99999e-01,5.96424e-01,9.65206e-01,6.92628e-01,9.99782e-01
1.095480033e+00,4.91518e-01,9.99999e-01,7.74709e-01,9.07958e-01,6.97671e-01,9.99607e-01
1.100957433e+00,4.87355e-01,9.99999e-01,8.84030e-01,7.83264e-01,7.02650e-01,9.99277e-01
1.106462220e+00,3.66114e-01,9.99999e-01,9.50241e-01,5.43425e-01,7.07565e-01,9.98774e-01
1.111994531e+00,1.96618e-01,9.99999e-01,9.81251e-01,2.81526e-01,7.12416e-01,9.96751e-01
1.117554504e+00,9.39087e-02,9.99999e-01,9.95381e-01,1.32915e-01,7.17204e-01,9.88323e-01
1.123142276e+00,1.68346e-01,9.99999e-01,9.99695e-01,2.39794e-01,7.21928e-01,9.72532e-01
1.128757988e+00,2.71578e-01,9.99999e-01,9.99999e-01,3.86009e-01,7.26590e-01,9.68293e-01
1.134401778e+00,1.29466e-01,9.99999e-01,9.99999e-01,1.81980e-01,7.31188e-01,9.72975e-01
1.140073787e+00,4.02216e-01,9.99999e-01,9.99999e-01,5.58792e-01,7.35724e-01,9.78348e-01
1.145774156e+00,2.23419e-01,9.99999e-01,9.99999e-01,3.07945e-01,7.40197e-01,9.80162e-01
1.151503026e+00,2.00702e-01,9.99999e-01,9.99999e-01,2.72565e-01,7.44609e-01,9.88899e-01
1.157260541e+00,2.41737e-01,9.99999e-01,9.99999e-01,3.23843e-01,7.48959e-01,9.96667e-01
1.163046844e+00,3.25110e-01,9.99999e-01,9.99999e-01,4.32020e-01,7.53248e-01,9.99054e-01
1.168862078e+00,4.18963e-01,9.99999e-01,9.99999e-01,5.53374e-01,7.57475e-01,9.99512e-01
1.174706389e+00,5.28114e-01,9.99999e-01,9.99999e-01,6.93835e-01,7.61643e-01,9.99353e-01
1.180579921e+00,6.11954e-01,9.99999e-01,9.99999e-01,7.99937e-01,7.65750e-01,9.99023e-01
1.186482820e+00,6.77673e-01,9.99999e-01,9.99988e-01,8.81217e-01,7.69798e-01,9.98997e-01
1.192415234e+00,7.00784e-01,9.99999e-01,9.75268e-01,9.28822e-01,7.73786e-01,9.99249e-01
1.198377311e+00,3.99689e-01,9.99999e-01,5.41669e-01,9.39727e-01,7.77716e-01,9.99290e-01
1.204369197e+00,1.59433e-19,9.99999e-01,2.11175e-19,9.42917e-01,7.81587e-01,9.99358e-01
1.210391043e+00,2.06509e-76,9.99999e-01,2.71387e-76,9.45295e-01,7.85401e-01,9.99609e-01
1.216442998e+00,3.08020e-66,9.99999e-01,4.02143e-66,9.53226e-01,7.89157e-01,9.99760e-01
1.222525213e+00,2.98114e-65,9.99999e-01,3.83339e-65,9.63387e-01,7.92857e-01,9.99851e-01
1.228637839e+00,1.81707e-50,9.99999e-01,2.32187e-50,9.74440e-01,7.96500e-01,9.99930e-01
