#,Wave/freq,Total,N2,CO2,H2O,Rayleigh,CIA
4.000000000e-01,3.80308e-06,9.99999e-01,9.99999e-01,9.99975e-01,3.80317e-06,9.99999e-01
4.020000000e-01,4.86745e-06,9.99999e-01,9.99999e-01,9.99984e-01,4.86753e-06,9.99999e-01
4.040100000e-01,6.19790e-06,9.99999e-01,9.99999e-01,9.99993e-01,6.19794e-06,9.99999e-01
4.060300500e-01,7.85439e-06,9.99999e-01,9.99999e-01,9.99998e-01,7.85440e-06,9.99999e-01
4.080602003e-01,9.90711e-06,9.99999e-01,9.99999e-01,9.99999e-01,9.90712e-06,9.99999e-01
4.101005013e-01,1.24391e-05,9.99999e-01,9.99999e-01,9.99999e-01,1.24391e-05,9.99999e-01
4.121510038e-01,1.55482e-05,9.99999e-01,9.99999e-01,9.99998e-01,1.55482e-05,9.99999e-01
4.142117588e-01,1.93488e-05,9.99999e-01,9.99999e-01,9.99992e-01,1.93489e-05,9.99999e-01
4.162828176e-01,2.39742e-05,9.99999e-01,9.99999e-01,9.99969e-01,2.39749e-05,9.99999e-01
4.183642317e-01,2.95808e-05,9.99999e-01,9.99999e-01,9.99981e-01,2.95813e-05,9.99999e-01
4.204560528e-01,3.63472e-05,9.99999e-01,9.99999e-01,9.99988e-01,3.63476e-05,9.99999e-01
4.225583331e-01,4.44801e-05,9.99999e-01,9.99999e-01,9.99995e-01,4.44803e-05,9.99999e-01
4.246711247e-01,5.42158e-05,9.99999e-01,9.99999e-01,9.99996e-01,5.42160e-05,9.99999e-01
4.267944804e-01,6.58244e-05,9.99999e-01,9.99999e-01,9.99994e-01,6.58247e-05,9.99999e-01
4.289284528e-01,7.96131e-05,9.99999e-01,9.99999e-01,9.99995e-01,7.96133e-05,9.99999e-01
4.310730950e-01,9.59292e-05,9.99999e-01,9.99999e-01,9.99997e-01,9.59294e-05,9.99999e-01
4.332284605e-01,1.15164e-04,9.99999e-01,9.99999e-01,9.99999e-01,1.15164e-04,9.99999e-01
4.353946028e-01,1.37758e-04,9.99999e-01,9.99999e-01,9.99999e-01,1.37758e-04,9.99999e-01
4.375715758e-01,1.64202e-04,9.99999e-01,9.99999e-01,9.99996e-01,1.64202e-04,9.99999e-01
4.397594337e-01,1.95040e-04,9.99999e-01,9.99999e-01,9.99972e-01,1.95045e-04,9.99999e-01
4.419582309e-01,2.30863e-04,9.99999e-01,9.99999e-01,9.99864e-01,2.30894e-04,9.99999e-01
4.441680220e-01,2.72396e-04,9.99999e-01,9.99999e-01,9.99896e-01,2.72424e-04,9.99999e-01
4.463888621e-01,3.20340e-04,9.99999e-01,9.99999e-01,9.99891e-01,3.20374e-04,9.99999e-01
4.486208064e-01,3.75535e-04,9.99999e-01,9.99999e-01,9.99933e-01,3.75560e-04,9.99999e-01
4.508639105e-01,4.38859e-04,9.99999e-01,9.99999e-01,9.99968e-01,4.38872e-04,9.99999e-01
4.531182300e-01,5.11275e-04,9.99999e-01,9.99999e-01,9.99987e-01,5.11282e-04,9.99999e-01
4.553838212e-01,5.93839e-04,9.99999e-01,9.99999e-01,9.99991e-01,5.93844e-04,9.99999e-01
4.576607403e-01,6.87699e-04,9.99999e-01,9.99999e-01,9.99995e-01,6.87702e-04,9.99999e-01
4.599490440e-01,7.94087e-04,9.99999e-01,9.99999e-01,9.99996e-01,7.94090e-04,9.99999e-01
4.622487892e-01,9.14333e-04,9.99999e-01,9.99999e-01,9.99999e-01,9.14334e-04,9.99999e-01
4.645600332e-01,1.04986e-03,9.99999e-01,9.99999e-01,9.99997e-01,1.04986e-03,9.99999e-01
4.668828333e-01,1.20214e-03,9.99999e-01,9.99999e-01,9.99967e-01,1.20218e-03,9.99999e-01
4.692172475e-01,1.37284e-03,9.99999e-01,9.99999e-01,9.99932e-01,1.37293e-03,9.99999e-01
4.715633337e-01,1.56375e-03,9.99999e-01,9.99999e-01,9.99955e-01,1.56382e-03,9.99999e-01
4.739211504e-01,1.77660e-03,9.99999e-01,9.99999e-01,9.99957e-01,1.77668e-03,9.99999e-01
4.762907561e-01,2.01338e-03,9.99999e-01,9.99999e-01,9.99977e-01,2.01343e-03,9.99999e-01
4.786722099e-01,2.27607e-03,9.99999e-01,9.99999e-01,9.99990e-01,2.27609e-03,9.99999e-01
4.810655710e-01,2.56679e-03,9.99999e-01,9.99999e-01,9.99996e-01,2.56680e-03,9.99999e-01
4.834708988e-01,2.88769e-03,9.99999e-01,9.99999e-01,9.99972e-01,2.88777e-03,9.99999e-01
4.858882533e-01,3.24117e-03,9.99999e-01,9.99999e-01,9.99951e-01,3.24133e-03,9.99999e-01
4.883176946e-01,3.62973e-03,9.99999e-01,9.99999e-01,9.99959e-01,3.62988e-03,9.99999e-01
4.907592831e-01,4.05578e-03,9.99999e-01,9.99999e-01,9.99963e-01,4.05593e-03,9.99999e-01
4.932130795e-01,4.52195e-03,9.99999e-01,9.99999e-01,9.99973e-01,4.52206e-03,9.99999e-01
4.956791449e-01,5.03087e-03,9.99999e-01,9.99999e-01,9.99985e-01,5.03094e-03,9.99999e-01
4.981575406e-01,5.58493e-03,9.99999e-01,9.99999e-01,9.99931e-01,5.58531e-03,9.99999e-01
5.006483283e-01,6.18687e-03,9.99999e-01,9.99999e-01,9.99821e-01,6.18798e-03,9.99998e-01
5.031515699e-01,6.83562e-03,9.99999e-01,9.99999e-01,9.99104e-01,6.84181e-03,9.99990e-01
5.056673278e-01,7.54611e-03,9.99999e-01,9.99999e-01,9.99529e-01,7.54974e-03,9.99988e-01
5.081956644e-01,8.30974e-03,9.99999e-01,9.99999e-01,9.99406e-01,8.31473e-03,9.99992e-01
5.107366428e-01,9.13612e-03,9.99999e-01,9.99999e-01,9.99599e-01,9.13979e-03,9.99998e-01
5.132903260e-01,1.00257e-02,9.99999e-01,9.99999e-01,9.99771e-01,1.00280e-02,9.99999e-01
5.158567776e-01,1.09813e-02,9.99999e-01,9.99999e-01,9.99903e-01,1.09823e-02,9.99999e-01
5.184360615e-01,1.20054e-02,9.99999e-01,9.99999e-01,9.99960e-01,1.20059e-02,9.99999e-01
5.210282418e-01,1.31016e-02,9.99999e-01,9.99999e-01,9.99985e-01,1.31018e-02,9.99999e-01
5.236333830e-01,1.42723e-02,9.99999e-01,9.99999e-01,9.99941e-01,1.42731e-02,9.99999e-01
5.262515499e-01,1.55223e-02,9.99999e-01,9.99999e-01,9.99963e-01,1.55229e-02,9.99998e-01
5.288828077e-01,1.68535e-02,9.99999e-01,9.99999e-01,9.99965e-01,1.68541e-02,9.99999e-01
5.315272217e-01,1.82692e-02,9.99999e-01,9.99999e-01,9.99970e-01,1.82697e-02,9.99999e-01
5.341848578e-01,1.97723e-02,9.99999e-01,9.99999e-01,9.99980e-01,1.97727e-02,9.99999e-01
5.368557821e-01,2.13646e-02,9.99999e-01,9.99999e-01,9.99931e-01,2.13660e-02,9.99999e-01
5.395400610e-01,2.30466e-02,9.99999e-01,9.99999e-01,9.99751e-01,2.30524e-02,9.99997e-01
5.422377613e-01,2.48266e-02,9.99999e-01,9.99999e-01,9.99684e-01,2.48345e-02,9.99993e-01
5.449489501e-01,2.67071e-02,9.99999e-01,9.99999e-01,9.99703e-01,2.67152e-02,9.99993e-01
5.476736949e-01,2.86893e-02,9.99999e-01,9.99999e-01,9.99740e-01,2.86968e-02,9.99996e-01
5.504120634e-01,3.07760e-02,9.99999e-01,9.99999e-01,9.99811e-01,3.07818e-02,9.99998e-01
5.531641237e-01,3.29696e-02,9.99999e-01,9.99999e-01,9.99904e-01,3.29727e-02,9.99999e-01
5.559299443e-01,3.52700e-02,9.99999e-01,9.99999e-01,9.99953e-01,3.52716e-02,9.99999e-01
5.587095940e-01,3.76794e-02,9.99999e-01,9.99999e-01,9.99970e-01,3.76805e-02,9.99999e-01
5.615031420e-01,4.02002e-02,9.99999e-01,9.99999e-01,9.99967e-01,4.02015e-02,9.99999e-01
5.643106577e-01,4.28347e-02,9.99999e-01,9.99999e-01,9.99962e-01,4.28363e-02,9.99999e-01
5.671322110e-01,4.55658e-02,9.99999e-01,9.99999e-01,9.99547e-01,4.55865e-02,9.99995e-01
5.699678720e-01,4.84307e-02,9.99999e-01,9.99999e-01,9.99535e-01,4.84538e-02,9.99987e-01
5.728177114e-01,5.14137e-02,9.99999e-01,9.99999e-01,9.99509e-01,5.14394e-02,9.99989e-01
5.756818000e-01,5.45197e-02,9.99999e-01,9.99999e-01,9.99550e-01,5.45445e-02,9.99993e-01
5.785602090e-01,5.77475e-02,9.99999e-01,9.99999e-01,9.99609e-01,5.77701e-02,9.99997e-01
5.814530100e-01,6.10930e-02,9.99999e-01,9.99999e-01,9.99606e-01,6.11171e-02,9.99998e-01
5.843602750e-01,6.45554e-02,9.99999e-01,9.99999e-01,9.99526e-01,6.45861e-02,9.99996e-01
5.872820764e-01,6.78983e-02,9.99999e-01,9.99999e-01,9.95930e-01,6.81776e-02,9.99971e-01
5.902184868e-01,7.15361e-02,9.99999e-01,9.99999e-01,9.95126e-01,7.18919e-02,9.99922e-01
5.931695792e-01,7.54618e-02,9.99999e-01,9.99999e-01,9.96542e-01,7.57292e-02,9.99925e-01
5.961354271e-01,7.93850e-02,9.99999e-01,9.99999e-01,9.96220e-01,7.96895e-02,9.99956e-01
5.991161043e-01,8.35407e-02,9.99999e-01,9.99999e-01,9.97246e-01,8.37724e-02,9.99986e-01
6.021116848e-01,8.78403e-02,9.99999e-01,9.99999e-01,9.98439e-01,8.79777e-02,9.99998e-01
6.051222432e-01,9.22318e-02,9.99999e-01,9.99999e-01,9.99210e-01,9.23047e-02,9.99999e-01
6.081478544e-01,9.67197e-02,9.99999e-01,9.99999e-01,9.99658e-01,9.67527e-02,9.99999e-01
6.111885937e-01,1.01306e-01,9.99999e-01,9.99999e-01,9.99855e-01,1.01321e-01,9.99999e-01
6.142445367e-01,1.06001e-01,9.99999e-01,9.99999e-01,9.99935e-01,1.06008e-01,9.99999e-01
6.173157594e-01,1.10809e-01,9.99999e-01,9.99999e-01,9.99964e-01,1.10813e-01,9.99999e-01
6.204023382e-01,1.15731e-01,9.99999e-01,9.99999e-01,9.99969e-01,1.15734e-01,9.99999e-01
6.235043498e-01,1.20754e-01,9.99999e-01,9.99999e-01,9.99863e-01,1.20771e-01,9.99999e-01
6.266218716e-01,1.25831e-01,9.99999e-01,9.99999e-01,9.99295e-01,1.25920e-01,9.99994e-01
6.297549810e-01,1.31146e-01,9.99999e-01,9.99999e-01,9.99741e-01,1.31181e-01,9.99989e-01
6.329037559e-01,1.36480e-01,9.99999e-01,9.99999e-01,9.99491e-01,1.36551e-01,9.99991e-01
6.360682746e-01,1.41966e-01,9.99999e-01,9.99999e-01,9.99564e-01,1.42028e-01,9.99994e-01
6.392486160e-01,1.47527e-01,9.99999e-01,9.99999e-01,9.99436e-01,1.47610e-01,9.99997e-01
6.424448591e-01,1.53178e-01,9.99999e-01,9.99999e-01,9.99238e-01,1.53295e-01,9.99995e-01
6.456570834e-01,1.58515e-01,9.99999e-01,9.99999e-01,9.96468e-01,1.59080e-01,9.99978e-01
6.488853688e-01,1.64534e-01,9.99999e-01,9.99999e-01,9.97449e-01,1.64963e-01,9.99945e-01
6.521297956e-01,1.70489e-01,9.99999e-01,9.99999e-01,9.97400e-01,1.70941e-01,9.99954e-01
6.553904446e-01,1.76544e-01,9.99999e-01,9.99999e-01,9.97397e-01,1.77010e-01,9.99966e-01
6.586673968e-01,1.82761e-01,9.99999e-01,9.99999e-01,9.97782e-01,1.83169e-01,9.99988e-01
6.619607338e-01,1.89180e-01,9.99999e-01,9.99999e-01,9.98764e-01,1.89414e-01,9.99997e-01
6.652705375e-01,1.95598e-01,9.99999e-01,9.99999e-01,9.99258e-01,1.95743e-01,9.99998e-01
6.685968902e-01,2.02088e-01,9.99999e-01,9.99999e-01,9.99684e-01,2.02151e-01,9.99999e-01
6.719398746e-01,2.08604e-01,9.99999e-01,9.99999e-01,9.99840e-01,2.08637e-01,9.99999e-01
6.752995740e-01,2.15178e-01,9.99999e-01,9.99999e-01,9.99915e-01,2.15196e-01,9.99999e-01
6.786760719e-01,2.21798e-01,9.99999e-01,9.99999e-01,9.99873e-01,2.21826e-01,9.99999e-01
6.820694522e-01,2.28474e-01,9.99999e-01,9.99999e-01,9.99782e-01,2.28524e-01,9.99998e-01
6.854797995e-01,2.35219e-01,9.99999e-01,9.99999e-01,9.99722e-01,2.35285e-01,9.99997e-01
6.889071985e-01,2.41939e-01,9.99999e-01,9.99999e-01,9.99315e-01,2.42106e-01,9.99993e-01
6.923517345e-01,2.46234e-01,9.99999e-01,9.99999e-01,9.89002e-01,2.48985e-01,9.99947e-01
6.958134932e-01,2.54459e-01,9.99999e-01,9.99999e-01,9.94415e-01,2.55918e-01,9.99883e-01
6.992925606e-01,2.61443e-01,9.99999e-01,9.99999e-01,9.94556e-01,2.62901e-01,9.99894e-01
7.027890234e-01,2.68115e-01,9.99999e-01,9.99999e-01,9.93350e-01,2.69931e-01,9.99919e-01
7.063029686e-01,2.75443e-01,9.99999e-01,9.99999e-01,9.94400e-01,2.77005e-01,9.99959e-01
7.098344834e-01,2.82585e-01,9.99999e-01,9.99999e-01,9.94627e-01,2.84118e-01,9.99976e-01
7.133836558e-01,2.89139e-01,9.99999e-01,9.99999e-01,9.92732e-01,2.91269e-01,9.99952e-01
7.169505741e-01,2.81450e-01,9.99999e-01,9.99999e-01,9.43377e-01,2.98453e-01,9.99631e-01
7.205353270e-01,2.97077e-01,9.99999e-01,9.99999e-01,9.72527e-01,3.05667e-01,9.99351e-01
7.241380036e-01,3.01641e-01,9.99999e-01,9.99999e-01,9.64534e-01,3.12907e-01,9.99439e-01
7.277586936e-01,3.09779e-01,9.99999e-01,9.99999e-01,9.67983e-01,3.20171e-01,9.99541e-01
7.313974871e-01,3.16340e-01,9.99999e-01,9.99999e-01,9.66262e-01,3.27456e-01,9.99785e-01
7.350544745e-01,3.28504e-01,9.99999e-01,9.99999e-01,9.81395e-01,3.34757e-01,9.99925e-01
7.387297469e-01,3.37371e-01,9.99999e-01,9.99999e-01,9.86292e-01,3.42072e-01,9.99965e-01
7.424233956e-01,3.47051e-01,9.99999e-01,9.99999e-01,9.93291e-01,3.49397e-01,9.99993e-01
7.461355126e-01,3.55275e-01,9.99999e-01,9.99999e-01,9.95922e-01,3.56730e-01,9.99998e-01
7.498661902e-01,3.63379e-01,9.99999e-01,9.99999e-01,9.98106e-01,3.64068e-01,9.99999e-01
7.536155211e-01,3.71061e-01,9.99999e-01,9.99999e-01,9.99067e-01,3.71407e-01,9.99999e-01
7.573835987e-01,3.78563e-01,9.99999e-01,9.99999e-01,9.99520e-01,3.78745e-01,9.99999e-01
7.611705167e-01,3.85963e-01,9.99999e-01,9.99999e-01,9.99701e-01,3.86078e-01,9.99999e-01
7.649763693e-01,3.93331e-01,9.99999e-01,9.99999e-01,9.99812e-01,3.93405e-01,9.99999e-01
7.688012511e-01,4.00669e-01,9.99999e-01,9.99999e-01,9.99869e-01,4.00721e-01,9.99999e-01
7.726452574e-01,4.07982e-01,9.99999e-01,9.99999e-01,9.99892e-01,4.08025e-01,9.99999e-01
7.765084837e-01,4.15250e-01,9.99999e-01,9.99999e-01,9.99845e-01,4.15314e-01,9.99999e-01
7.803910261e-01,4.04925e-01,9.99999e-01,9.58823e-01,9.99331e-01,4.22586e-01,9.99998e-01
7.842929812e-01,3.59417e-01,9.99999e-01,8.38018e-01,9.97668e-01,4.29837e-01,9.99995e-01
7.882144461e-01,3.59557e-01,9.99999e-01,8.26430e-01,9.95251e-01,4.37066e-01,9.99966e-01
7.921555184e-01,3.96245e-01,9.99999e-01,8.94203e-01,9.97410e-01,4.44270e-01,9.99942e-01
7.961162960e-01,4.17218e-01,9.99999e-01,9.28490e-01,9.95360e-01,4.51447e-01,9.99945e-01
8.000968774e-01,4.38112e-01,9.99999e-01,9.60478e-01,9.94682e-01,4.58595e-01,9.99942e-01
8.040973618e-01,4.53687e-01,9.99999e-01,9.79428e-01,9.94671e-01,4.65712e-01,9.99955e-01
8.081178486e-01,4.62621e-01,9.99999e-01,9.90458e-01,9.87930e-01,4.72795e-01,9.99955e-01
8.121584379e-01,4.54801e-01,9.99999e-01,9.97082e-01,9.50713e-01,4.79842e-01,9.99831e-01
8.162192301e-01,4.58261e-01,9.99999e-01,9.99354e-01,9.42460e-01,4.86853e-01,9.99368e-01
8.203003262e-01,4.78793e-01,9.99999e-01,9.99990e-01,9.70284e-01,4.93824e-01,9.99260e-01
8.244018279e-01,4.80435e-01,9.99999e-01,9.99999e-01,9.59986e-01,5.00755e-01,9.99411e-01
8.285238370e-01,4.89645e-01,9.99999e-01,9.99999e-01,9.64991e-01,5.07643e-01,9.99537e-01
8.326664562e-01,4.96280e-01,9.99999e-01,9.99999e-01,9.64796e-01,5.14487e-01,9.99808e-01
8.368297885e-01,5.08123e-01,9.99999e-01,9.99999e-01,9.74792e-01,5.21285e-01,9.99955e-01
8.410139374e-01,5.20081e-01,9.99999e-01,9.99999e-01,9.84959e-01,5.28036e-01,9.99974e-01
8.452190071e-01,5.30780e-01,9.99999e-01,9.99999e-01,9.92611e-01,5.34739e-01,9.99984e-01
8.494451021e-01,5.39051e-01,9.99999e-01,9.99999e-01,9.95688e-01,5.41392e-01,9.99987e-01
8.536923276e-01,5.46597e-01,9.99999e-01,9.99999e-01,9.97458e-01,5.47994e-01,9.99992e-01
8.579607893e-01,5.53671e-01,9.99999e-01,9.99999e-01,9.98428e-01,5.54543e-01,9.99997e-01
8.622505932e-01,5.60481e-01,9.99999e-01,9.99999e-01,9.99004e-01,5.61039e-01,9.99999e-01
8.665618462e-01,5.18432e-01,9.99999e-01,9.14106e-01,9.99381e-01,5.67481e-01,9.99999e-01
8.708946554e-01,3.65569e-01,9.99999e-01,6.37462e-01,9.99289e-01,5.73867e-01,9.99999e-01
8.752491287e-01,4.03555e-01,9.99999e-01,6.96186e-01,9.99050e-01,5.80197e-01,9.99998e-01
8.796253743e-01,4.79919e-01,9.99999e-01,8.19365e-01,9.98680e-01,5.86469e-01,9.99996e-01
8.840235012e-01,5.33625e-01,9.99999e-01,9.01694e-01,9.98494e-01,5.92684e-01,9.99990e-01
8.884436187e-01,5.71805e-01,9.99999e-01,9.60207e-01,9.94387e-01,5.98839e-01,9.99973e-01
8.928858368e-01,5.61317e-01,9.99999e-01,9.83656e-01,9.43292e-01,6.04935e-01,9.99849e-01
8.973502660e-01,5.49121e-01,9.99999e-01,9.96033e-01,9.02952e-01,6.10971e-01,9.99232e-01
9.018370173e-01,5.84976e-01,9.99999e-01,9.99563e-01,9.49722e-01,6.16946e-01,9.98793e-01
9.063462024e-01,5.87370e-01,9.99999e-01,9.88373e-01,9.54717e-01,6.22860e-01,9.98939e-01
9.108779334e-01,5.69665e-01,9.99999e-01,9.74244e-01,9.30712e-01,6.28712e-01,9.98898e-01
9.154323231e-01,5.80953e-01,9.99999e-01,9.93981e-01,9.21849e-01,6.34502e-01,9.99089e-01
9.200094847e-01,5.50979e-01,9.99999e-01,9.13969e-01,9.38454e-01,6.40229e-01,9.99489e-01
9.246095321e-01,5.14491e-01,9.99999e-01,8.79996e-01,9.03256e-01,6.45893e-01,9.99412e-01
9.292325798e-01,3.05583e-01,9.99999e-01,9.03620e-01,5.14149e-01,6.51494e-01,9.97167e-01
9.338787427e-01,2.56036e-01,9.99999e-01,9.07709e-01,4.28800e-01,6.57031e-01,9.89801e-01
9.385481364e-01,4.35637e-01,9.99999e-01,9.31227e-01,7.10768e-01,6.62505e-01,9.88801e-01
9.432408771e-01,3.93782e-01,9.99999e-01,9.57431e-01,6.20077e-01,6.67915e-01,9.90331e-01
9.479570815e-01,3.39513e-01,9.99999e-01,9.77877e-01,5.19043e-01,6.73261e-01,9.92123e-01
9.526968669e-01,4.09311e-01,9.99999e-01,9.89302e-01,6.12039e-01,6.78543e-01,9.95188e-01
9.574603512e-01,4.30465e-01,9.99999e-01,9.95417e-01,6.33780e-01,6.83760e-01,9.97552e-01
9.622476530e-01,4.74097e-01,9.99999e-01,9.98571e-01,6.90265e-01,6.88914e-01,9.98306e-01
9.670588912e-01,5.59260e-01,9.99999e-01,9.99572e-01,8.07065e-01,6.94003e-01,9.98890e-01
9.718941857e-01,6.10454e-01,9.99999e-01,9.99970e-01,8.74054e-01,6.99029e-01,9.99149e-01
9.767536566e-01,6.29112e-01,9.99999e-01,9.99999e-01,8.94219e-01,7.03990e-01,9.99348e-01
9.816374249e-01,6.52531e-01,9.99999e-01,9.99999e-01,9.20705e-01,7.08888e-01,9.99774e-01
9.865456120e-01,6.77794e-01,9.99999e-01,9.99999e-01,9.49705e-01,7.13722e-01,9.99952e-01
9.914783401e-01,6.95914e-01,9.99999e-01,9.99999e-01,9.68587e-01,7.18492e-01,9.99986e-01
9.964357318e-01,7.10738e-01,9.99999e-01,9.99999e-01,9.82775e-01,7.23200e-01,9.99991e-01
1.001417910e+00,7.20303e-01,9.99999e-01,9.99999e-01,9.89650e-01,7.27844e-01,9.99987e-01
1.006425000e+00,7.28071e-01,9.99999e-01,9.99999e-01,9.94071e-01,7.32425e-01,9.99982e-01
1.011457125e+00,7.34227e-01,9.99999e-01,9.99999e-01,9.96328e-01,7.36944e-01,9.99984e-01
1.016514411e+00,7.39541e-01,9.99999e-01,9.99999e-01,9.97501e-01,7.41401e-01,9.99988e-01
1.021596983e+00,7.44249e-01,9.99999e-01,9.99927e-01,9.98007e-01,7.45796e-01,9.99988e-01
1.026704968e+00,7.45532e-01,9.99999e-01,9.95423e-01,9.98444e-01,7.50129e-01,9.99992e-01
1.031838492e+00,7.12857e-01,9.99999e-01,9.45960e-01,9.98872e-01,7.54401e-01,9.99997e-01
1.036997685e+00,9.72520e-02,9.99999e-01,1.28265e-01,9.99328e-01,7.58612e-01,9.99999e-01
1.042182673e+00,6.48492e-02,9.99999e-01,8.50784e-02,9.99195e-01,7.62763e-01,9.99999e-01
1.047393587e+00,8.21354e-02,9.99999e-01,1.07207e-01,9.98935e-01,7.66854e-01,9.99999e-01
1.052630555e+00,1.33364e-03,9.99999e-01,1.73183e-03,9.98537e-01,7.70886e-01,9.99999e-01
1.057893707e+00,3.78860e-03,9.99999e-01,4.89723e-03,9.97553e-01,7.74858e-01,9.99998e-01
1.063183176e+00,1.50809e-02,9.99999e-01,1.94191e-02,9.95982e-01,7.78772e-01,9.99997e-01
1.068499092e+00,4.83086e-02,9.99999e-01,6.20675e-02,9.93292e-01,7.82628e-01,9.99994e-01
1.073841587e+00,1.35308e-01,9.99999e-01,1.73198e-01,9.92134e-01,7.86426e-01,9.99989e-01
1.079210795e+00,2.57865e-01,9.99999e-01,3.29318e-01,9.89972e-01,7.90167e-01,9.99972e-01
1.084606849e+00,4.24228e-01,9.99999e-01,5.42225e-01,9.84822e-01,7.93851e-01,9.99935e-01
1.090029883e+00,5.67567e-01,9.99999e-01,7.27218e-01,9.78093e-01,7.97480e-01,9.99865e-01
1.095480033e+00,6.45209e-01,9.99999e-01,8.54967e-01,9.41594e-01,8.01052e-01,9.99757e-01
1.100957433e+00,6.40652e-01,9.99999e-01,9.27208e-01,8.58359e-01,8.04570e-01,9.99554e-01
1.106462220e+00,5.32091e-01,9.99999e-01,9.69291e-01,6.78975e-01,8.08033e-01,9.99244e-01
1.111994531e+00,3.58383e-01,9.99999e-01,9.88503e-01,4.47262e-01,8.11442e-01,9.97996e-01
1.117554504e+00,2.21610e-01,9.99999e-01,9.97200e-01,2.74563e-01,8.14798e-01,9.92786e-01
1.123142276e+00,3.16995e-01,9.99999e-01,9.99817e-01,3.94215e-01,8.18101e-01,9.82978e-01
1.128757988e+00,4.38171e-01,9.99999e-01,9.99999e-01,5.44176e-01,8.21352e-01,9.80335e-01
1.134401778e+00,2.40029e-01,9.99999e-01,9.99999e-01,2.96061e-01,8.24551e-01,9.83254e-01
1.140073787e+00,5.65624e-01,9.99999e-01,9.99999e-01,6.92652e-01,8.27699e-01,9.86597e-01
1.145774156e+00,3.85941e-01,9.99999e-01,9.99999e-01,4.70316e-01,8.30796e-01,9.87724e-01
1.151503026e+00,3.58177e-01,9.99999e-01,9.99999e-01,4.32515e-01,8.33844e-01,9.93142e-01
1.157260541e+00,4.11076e-01,9.99999e-01,9.99999e-01,4.92234e-01,8.36842e-01,9.97944e-01
1.163046844e+00,4.97173e-01,9.99999e-01,9.99999e-01,5.92364e-01,8.39792e-01,9.99416e-01
1.168862078e+00,5.84592e-01,9.99999e-01,9.99999e-01,6.93929e-01,8.42693e-01,9.99695e-01
1.174706389e+00,6.74464e-01,9.99999e-01,9.99999e-01,7.97999e-01,8.45547e-01,9.99581e-01
1.180579921e+00,7.38975e-01,9.99999e-01,9.99999e-01,8.71594e-01,8.48353e-01,9.99397e-01
1.186482820e+00,7.86925e-01,9.99999e-01,9.99988e-01,9.25163e-01,8.51114e-01,9.99381e-01
1.192415234e+00,8.02397e-01,9.99999e-01,9.83705e-01,9.55565e-01,8.53828e-01,9.99536e-01
1.198377311e+00,4.60589e-01,9.99999e-01,5.55507e-01,9.62337e-01,8.56497e-01,9.99560e-01
1.204369197e+00,6.74454e-13,9.99999e-01,8.01981e-13,9.64372e-01,8.59122e-01,9.99617e-01
1.210391043e+00,5.80175e-48,9.99999e-01,6.86549e-48,9.65907e-01,8.61703e-01,9.99758e-01
1.216442998e+00,1.08263e-41,9.99999e-01,1.27596e-41,9.71000e-01,8.64240e-01,9.99852e-01
1.222525213e+00,4.38786e-41,9.99999e-01,5.12322e-41,9.77325e-01,8.66734e-01,9.99908e-01
1.228637839e+00,7.92611e-32,9.99999e-01,9.21993e-32,9.84189e-01,8.69186e-01,9.99956e-01
