#,Wave/freq,Total,N2,CO2,H2O,Rayleigh,CIA
4.000000000e-01,4.45884e-07,9.99999e-01,9.99999e-01,9.99971e-01,4.45896e-07,9.99999e-01
4.020000000e-01,5.95387e-07,9.99999e-01,9.99999e-01,9.99982e-01,5.95397e-07,9.99999e-01
4.040100000e-01,7.90254e-07,9.99999e-01,9.99999e-01,9.99992e-01,7.90260e-07,9.99999e-01
4.060300500e-01,1.04305e-06,9.99999e-01,9.99999e-01,9.99997e-01,1.04305e-06,9.99999e-01
4.080602003e-01,1.36917e-06,9.99999e-01,9.99999e-01,9.99998e-01,1.36917e-06,9.99999e-01
4.101005013e-01,1.78763e-06,9.99999e-01,9.99999e-01,9.99999e-01,1.78763e-06,9.99999e-01
4.121510038e-01,2.32171e-06,9.99999e-01,9.99999e-01,9.99998e-01,2.32171e-06,9.99999e-01
4.142117588e-01,2.99982e-06,9.99999e-01,9.99999e-01,9.99991e-01,2.99984e-06,9.99999e-01
4.162828176e-01,3.85633e-06,9.99999e-01,9.99999e-01,9.99964e-01,3.85646e-06,9.99999e-01
4.183642317e-01,4.93306e-06,9.99999e-01,9.99999e-01,9.99978e-01,4.93316e-06,9.99999e-01
4.204560528e-01,6.27977e-06,9.99999e-01,9.99999e-01,9.99986e-01,6.27985e-06,9.99999e-01
4.225583331e-01,7.95610e-06,9.99999e-01,9.99999e-01,9.99994e-01,7.95614e-06,9.99999e-01
4.246711247e-01,1.00329e-05,9.99999e-01,9.99999e-01,9.99995e-01,1.00329e-05,9.99999e-01
4.267944804e-01,1.25938e-05,9.99999e-01,9.99999e-01,9.99993e-01,1.25939e-05,9.99999e-01
4.289284528e-01,1.57377e-05,9.99999e-01,9.99999e-01,9.99995e-01,1.57378e-05,9.99999e-01
4.310730950e-01,1.95801e-05,9.99999e-01,9.99999e-01,9.99997e-01,1.95802e-05,9.99999e-01
4.332284605e-01,2.42557e-05,9.99999e-01,9.99999e-01,9.99999e-01,2.42558e-05,9.99999e-01
4.353946028e-01,2.99210e-05,9.99999e-01,9.99999e-01,9.99999e-01,2.99210e-05,9.99999e-01
4.375715758e-01,3.67566e-05,9.99999e-01,9.99999e-01,9.99996e-01,3.67567e-05,9.99999e-01
4.397594337e-01,4.49696e-05,9.99999e-01,9.99999e-01,9.99969e-01,4.49710e-05,9.99999e-01
4.419582309e-01,5.47937e-05,9.99999e-01,9.99999e-01,9.99844e-01,5.48022e-05,9.99999e-01
4.441680220e-01,6.65142e-05,9.99999e-01,9.99999e-01,9.99878e-01,6.65223e-05,9.99999e-01
4.463888621e-01,8.04302e-05,9.99999e-01,9.99999e-01,9.99873e-01,8.04403e-05,9.99999e-01
4.486208064e-01,9.68984e-05,9.99999e-01,9.99999e-01,9.99921e-01,9.69060e-05,9.99999e-01
4.508639105e-01,1.16309e-04,9.99999e-01,9.99999e-01,9.99962e-01,1.16314e-04,9.99999e-01
4.531182300e-01,1.39103e-04,9.99999e-01,9.99999e-01,9.99984e-01,1.39105e-04,9.99999e-01
4.553838212e-01,1.65775e-04,9.99999e-01,9.99999e-01,9.99989e-01,1.65776e-04,9.99999e-01
4.576607403e-01,1.96877e-04,9.99999e-01,9.99999e-01,9.99994e-01,1.96878e-04,9.99999e-01
4.599490440e-01,2.33020e-04,9.99999e-01,9.99999e-01,9.99996e-01,2.33021e-04,9.99999e-01
4.622487892e-01,2.74883e-04,9.99999e-01,9.99999e-01,9.99998e-01,2.74883e-04,9.99999e-01
4.645600332e-01,3.23208e-04,9.99999e-01,9.99999e-01,9.99997e-01,3.23209e-04,9.99999e-01
4.668828333e-01,3.78803e-04,9.99999e-01,9.99999e-01,9.99962e-01,3.78817e-04,9.99999e-01
4.692172475e-01,4.42568e-04,9.99999e-01,9.99999e-01,9.99920e-01,4.42603e-04,9.99999e-01
4.715633337e-01,5.15515e-04,9.99999e-01,9.99999e-01,9.99947e-01,5.15542e-04,9.99999e-01
4.739211504e-01,5.98664e-04,9.99999e-01,9.99999e-01,9.99949e-01,5.98694e-04,9.99999e-01
4.762907561e-01,6.93189e-04,9.99999e-01,9.99999e-01,9.99973e-01,6.93207e-04,9.99999e-01
4.786722099e-01,8.00312e-04,9.99999e-01,9.99999e-01,9.99989e-01,8.00320e-04,9.99999e-01
4.810655710e-01,9.21363e-04,9.99999e-01,9.99999e-01,9.99996e-01,9.21366e-04,9.99999e-01
4.834708988e-01,1.05774e-03,9.99999e-01,9.99999e-01,9.99969e-01,1.05777e-03,9.99999e-01
4.858882533e-01,1.21100e-03,9.99999e-01,9.99999e-01,9.99943e-01,1.21107e-03,9.99999e-01
4.883176946e-01,1.38281e-03,9.99999e-01,9.99999e-01,9.99952e-01,1.38287e-03,9.99999e-01
4.907592831e-01,1.57485e-03,9.99999e-01,9.99999e-01,9.99957e-01,1.57492e-03,9.99999e-01
4.932130795e-01,1.78899e-03,9.99999e-01,9.99999e-01,9.99969e-01,1.78904e-03,9.99999e-01
4.956791449e-01,2.02713e-03,9.99999e-01,9.99999e-01,9.99983e-01,2.02716e-03,9.99999e-01
4.981575406e-01,2.29112e-03,9.99999e-01,9.99999e-01,9.99919e-01,2.29131e-03,9.99999e-01
5.006483283e-01,2.58308e-03,9.99999e-01,9.99999e-01,9.99793e-01,2.58362e-03,9.99998e-01
5.031515699e-01,2.90325e-03,9.99999e-01,9.99999e-01,9.98954e-01,2.90632e-03,9.99988e-01
5.056673278e-01,3.25989e-03,9.99999e-01,9.99999e-01,9.99447e-01,3.26173e-03,9.99986e-01
5.081956644e-01,3.64970e-03,9.99999e-01,9.99999e-01,9.99303e-01,3.65228e-03,9.99991e-01
5.107366428e-01,4.07853e-03,9.99999e-01,9.99999e-01,9.99529e-01,4.08046e-03,9.99997e-01
5.132903260e-01,4.54765e-03,9.99999e-01,9.99999e-01,9.99730e-01,4.54887e-03,9.99999e-01
5.158567776e-01,5.05960e-03,9.99999e-01,9.99999e-01,9.99885e-01,5.06018e-03,9.99999e-01
5.184360615e-01,5.61687e-03,9.99999e-01,9.99999e-01,9.99954e-01,5.61713e-03,9.99999e-01
5.210282418e-01,6.22242e-03,9.99999e-01,9.99999e-01,9.99982e-01,6.22253e-03,9.99999e-01
5.236333830e-01,6.87878e-03,9.99999e-01,9.99999e-01,9.99931e-01,6.87926e-03,9.99999e-01
5.262515499e-01,7.58991e-03,9.99999e-01,9.99999e-01,9.99956e-01,7.59024e-03,9.99998e-01
5.288828077e-01,8.35812e-03,9.99999e-01,9.99999e-01,9.99960e-01,8.35845e-03,9.99999e-01
5.315272217e-01,9.18658e-03,9.99999e-01,9.99999e-01,9.99965e-01,9.18689e-03,9.99999e-01
5.341848578e-01,1.00784e-02,9.99999e-01,9.99999e-01,9.99977e-01,1.00786e-02,9.99999e-01
5.368557821e-01,1.10358e-02,9.99999e-01,9.99999e-01,9.99920e-01,1.10367e-02,9.99999e-01
5.395400610e-01,1.20607e-02,9.99999e-01,9.99999e-01,9.99713e-01,1.20642e-02,9.99997e-01
5.422377613e-01,1.31592e-02,9.99999e-01,9.99999e-01,9.99629e-01,1.31642e-02,9.99992e-01
5.449489501e-01,1.43346e-02,9.99999e-01,9.99999e-01,9.99655e-01,1.43397e-02,9.99992e-01
5.476736949e-01,1.55890e-02,9.99999e-01,9.99999e-01,9.99694e-01,1.55938e-02,9.99996e-01
5.504120634e-01,1.69258e-02,9.99999e-01,9.99999e-01,9.99778e-01,1.69296e-02,9.99998e-01
5.531641237e-01,1.83479e-02,9.99999e-01,9.99999e-01,9.99888e-01,1.83499e-02,9.99999e-01
5.559299443e-01,1.98568e-02,9.99999e-01,9.99999e-01,9.99945e-01,1.98578e-02,9.99999e-01
5.587095940e-01,2.14555e-02,9.99999e-01,9.99999e-01,9.99965e-01,2.14562e-02,9.99999e-01
5.615031420e-01,2.31469e-02,9.99999e-01,9.99999e-01,9.99962e-01,2.31477e-02,9.99999e-01
5.643106577e-01,2.49342e-02,9.99999e-01,9.99999e-01,9.99957e-01,2.49352e-02,9.99999e-01
5.671322110e-01,2.68074e-02,9.99999e-01,9.99999e-01,9.99483e-01,2.68213e-02,9.99994e-01
5.699678720e-01,2.87923e-02,9.99999e-01,9.99999e-01,9.99448e-01,2.88086e-02,9.99985e-01
5.728177114e-01,3.08813e-02,9.99999e-01,9.99999e-01,9.99426e-01,3.08994e-02,9.99987e-01
5.756818000e-01,3.30785e-02,9.99999e-01,9.99999e-01,9.99473e-01,3.30961e-02,9.99992e-01
5.785602090e-01,3.53847e-02,9.99999e-01,9.99999e-01,9.99541e-01,3.54010e-02,9.99997e-01
5.814530100e-01,3.77986e-02,9.99999e-01,9.99999e-01,9.99539e-01,3.78160e-02,9.99998e-01
5.843602750e-01,4.03210e-02,9.99999e-01,9.99999e-01,9.99451e-01,4.03432e-02,9.99996e-01
5.872820764e-01,4.27801e-02,9.99999e-01,9.99999e-01,9.95281e-01,4.29843e-02,9.99966e-01
5.902184868e-01,4.54750e-02,9.99999e-01,9.99999e-01,9.94276e-01,4.57409e-02,9.99909e-01
5.931695792e-01,4.84139e-02,9.99999e-01,9.99999e-01,9.95956e-01,4.86147e-02,9.99912e-01
5.961354271e-01,5.13754e-02,9.99999e-01,9.99999e-01,9.95566e-01,5.16068e-02,9.99949e-01
5.991161043e-01,5.45406e-02,9.99999e-01,9.99999e-01,9.96764e-01,5.47185e-02,9.99984e-01
6.021116848e-01,5.78442e-02,9.99999e-01,9.99999e-01,9.98162e-01,5.79508e-02,9.99997e-01
6.051222432e-01,6.12474e-02,9.99999e-01,9.99999e-01,9.99069e-01,6.13044e-02,9.99999e-01
6.081478544e-01,6.47542e-02,9.99999e-01,9.99999e-01,9.99598e-01,6.47801e-02,9.99999e-01
6.111885937e-01,6.83668e-02,9.99999e-01,9.99999e-01,9.99829e-01,6.83784e-02,9.99999e-01
6.142445367e-01,7.20940e-02,9.99999e-01,9.99999e-01,9.99923e-01,7.20995e-02,9.99999e-01
6.173157594e-01,7.59403e-02,9.99999e-01,9.99999e-01,9.99957e-01,7.59435e-02,9.99999e-01
6.204023382e-01,7.99077e-02,9.99999e-01,9.99999e-01,9.99964e-01,7.99105e-02,9.99999e-01
6.235043498e-01,8.39871e-02,9.99999e-01,9.99999e-01,9.99844e-01,8.40001e-02,9.99999e-01
6.266218716e-01,8.81389e-02,9.99999e-01,9.99999e-01,9.99175e-01,8.82121e-02,9.99993e-01
6.297549810e-01,9.25167e-02,9.99999e-01,9.99999e-01,9.99697e-01,9.25458e-02,9.99987e-01
6.329037559e-01,9.69416e-02,9.99999e-01,9.99999e-01,9.99401e-01,9.70004e-02,9.99990e-01
6.360682746e-01,1.01523e-01,9.99999e-01,9.99999e-01,9.99491e-01,1.01575e-01,9.99994e-01
6.392486160e-01,1.06198e-01,9.99999e-01,9.99999e-01,9.99340e-01,1.06269e-01,9.99997e-01
6.424448591e-01,1.10982e-01,9.99999e-01,9.99999e-01,9.99118e-01,1.11080e-01,9.99995e-01
6.456570834e-01,1.15531e-01,9.99999e-01,9.99999e-01,9.95912e-01,1.16008e-01,9.99976e-01
6.488853688e-01,1.20680e-01,9.99999e-01,9.99999e-01,9.97000e-01,1.21050e-01,9.99936e-01
6.521297956e-01,1.25814e-01,9.99999e-01,9.99999e-01,9.96942e-01,1.26206e-01,9.99947e-01
6.553904446e-01,1.31068e-01,9.99999e-01,9.99999e-01,9.96959e-01,1.31473e-01,9.99960e-01
6.586673968e-01,1.36490e-01,9.99999e-01,9.99999e-01,9.97393e-01,1.36849e-01,9.99986e-01
6.619607338e-01,1.42117e-01,9.99999e-01,9.99999e-01,9.98492e-01,1.42332e-01,9.99996e-01
6.652705375e-01,1.47791e-01,9.99999e-01,9.99999e-01,9.99127e-01,1.47920e-01,9.99998e-01
6.685968902e-01,1.53548e-01,9.99999e-01,9.99999e-01,9.99594e-01,1.53610e-01,9.99999e-01
6.719398746e-01,1.59371e-01,9.99999e-01,9.99999e-01,9.99811e-01,1.59401e-01,9.99999e-01
6.752995740e-01,1.65272e-01,9.99999e-01,9.99999e-01,9.99897e-01,1.65289e-01,9.99999e-01
6.786760719e-01,1.71246e-01,9.99999e-01,9.99999e-01,9.99852e-01,1.71272e-01,9.99999e-01
6.820694522e-01,1.77301e-01,9.99999e-01,9.99999e-01,9.99748e-01,1.77346e-01,9.99998e-01
6.854797995e-01,1.83450e-01,9.99999e-01,9.99999e-01,9.99675e-01,1.83510e-01,9.99996e-01
6.889071985e-01,1.89610e-01,9.99999e-01,9.99999e-01,9.99216e-01,1.89760e-01,9.99992e-01
6.923517345e-01,1.93581e-01,9.99999e-01,9.99999e-01,9.87252e-01,1.96093e-01,9.99938e-01
6.958134932e-01,2.01128e-01,9.99999e-01,9.99999e-01,9.93332e-01,2.02506e-01,9.99863e-01
6.992925606e-01,2.07650e-01,9.99999e-01,9.99999e-01,9.93683e-01,2.08995e-01,9.99877e-01
7.027890234e-01,2.13857e-01,9.99999e-01,9.99999e-01,9.92195e-01,2.15559e-01,9.99905e-01
7.063029686e-01,2.20724e-01,9.99999e-01,9.99999e-01,9.93436e-01,2.22192e-01,9.99952e-01
7.098344834e-01,2.27445e-01,9.99999e-01,9.99999e-01,9.93701e-01,2.28893e-01,9.99971e-01
7.133836558e-01,2.33673e-01,9.99999e-01,9.99999e-01,9.91630e-01,2.35658e-01,9.99944e-01
7.169505741e-01,2.26517e-01,9.99999e-01,9.99999e-01,9.34560e-01,2.42483e-01,9.99568e-01
7.205353270e-01,2.41036e-01,9.99999e-01,9.99999e-01,9.67334e-01,2.49365e-01,9.99239e-01
7.241380036e-01,2.45573e-01,9.99999e-01,9.99999e-01,9.58776e-01,2.56300e-01,9.99343e-01
7.277586936e-01,2.53335e-01,9.99999e-01,9.99999e-01,9.62721e-01,2.63286e-01,9.99463e-01
7.313974871e-01,2.59536e-01,9.99999e-01,9.99999e-01,9.60354e-01,2.70318e-01,9.99748e-01
7.350544745e-01,2.71312e-01,9.99999e-01,9.99999e-01,9.78158e-01,2.77394e-01,9.99912e-01
7.387297469e-01,2.79913e-01,9.99999e-01,9.99999e-01,9.83880e-01,2.84510e-01,9.99959e-01
7.424233956e-01,2.89351e-01,9.99999e-01,9.99999e-01,9.92080e-01,2.91662e-01,9.99991e-01
7.461355126e-01,2.97412e-01,9.99999e-01,9.99999e-01,9.95195e-01,2.98848e-01,9.99998e-01
7.498661902e-01,3.05378e-01,9.99999e-01,9.99999e-01,9.97759e-01,3.06064e-01,9.99999e-01
7.536155211e-01,3.12961e-01,9.99999e-01,9.99999e-01,9.98901e-01,3.13306e-01,9.99999e-01
7.573835987e-01,3.20390e-01,9.99999e-01,9.99999e-01,9.99434e-01,3.20571e-01,9.99999e-01
7.611705167e-01,3.27741e-01,9.99999e-01,9.99999e-01,9.99648e-01,3.27856e-01,9.99999e-01
7.649763693e-01,3.35084e-01,9.99999e-01,9.99999e-01,9.99779e-01,3.35158e-01,9.99999e-01
7.688012511e-01,3.42421e-01,9.99999e-01,9.99999e-01,9.99846e-01,3.42474e-01,9.99999e-01
7.726452574e-01,3.49756e-01,9.99999e-01,9.99999e-01,9.99873e-01,3.49800e-01,9.99999e-01
7.765084837e-01,3.57069e-01,9.99999e-01,9.99999e-01,9.99820e-01,3.57133e-01,9.99999e-01
7.803910261e-01,3.47940e-01,9.99999e-01,9.55351e-01,9.99226e-01,3.64471e-01,9.99998e-01
7.842929812e-01,3.01406e-01,9.99999e-01,8.12701e-01,9.97301e-01,3.71810e-01,9.99994e-01
7.882144461e-01,3.02268e-01,9.99999e-01,8.01480e-01,9.94438e-01,3.79148e-01,9.99965e-01
7.921555184e-01,3.38187e-01,9.99999e-01,8.77697e-01,9.96945e-01,3.86481e-01,9.99933e-01
7.961162960e-01,3.58833e-01,9.99999e-01,9.16118e-01,9.94615e-01,3.93807e-01,9.99936e-01
8.000968774e-01,3.80124e-01,9.99999e-01,9.53626e-01,9.93776e-01,4.01123e-01,9.99932e-01
8.040973618e-01,3.96000e-01,9.99999e-01,9.75683e-01,9.93776e-01,4.08426e-01,9.99946e-01
8.081178486e-01,4.05296e-01,9.99999e-01,9.88769e-01,9.86033e-01,4.15714e-01,9.99949e-01
8.121584379e-01,3.97438e-01,9.99999e-01,9.96514e-01,9.43030e-01,4.22985e-01,9.99802e-01
8.162192301e-01,4.00652e-01,9.99999e-01,9.99229e-01,9.32628e-01,4.30235e-01,9.99260e-01
8.203003262e-01,4.22231e-01,9.99999e-01,9.99987e-01,9.66026e-01,4.37463e-01,9.99134e-01
8.244018279e-01,4.23334e-01,9.99999e-01,9.99999e-01,9.52683e-01,4.44665e-01,9.99310e-01
8.285238370e-01,4.33204e-01,9.99999e-01,9.99999e-01,9.59271e-01,4.51841e-01,9.99458e-01
8.326664562e-01,4.39985e-01,9.99999e-01,9.99999e-01,9.58815e-01,4.58987e-01,9.99775e-01
8.368297885e-01,4.52279e-01,9.99999e-01,9.99999e-01,9.70394e-01,4.66102e-01,9.99948e-01
8.410139374e-01,4.64797e-01,9.99999e-01,9.99999e-01,9.82305e-01,4.73183e-01,9.99969e-01
8.452190071e-01,4.76035e-01,9.99999e-01,9.99999e-01,9.91285e-01,4.80228e-01,9.99981e-01
8.494451021e-01,4.84764e-01,9.99999e-01,9.99999e-01,9.94939e-01,4.87237e-01,9.99985e-01
8.536923276e-01,4.92721e-01,9.99999e-01,9.99999e-01,9.97003e-01,4.94206e-01,9.99990e-01
8.579607893e-01,5.00209e-01,9.99999e-01,9.99999e-01,9.98154e-01,5.01134e-01,9.99997e-01
8.622505932e-01,5.07424e-01,9.99999e-01,9.99999e-01,9.98826e-01,5.08020e-01,9.99999e-01
8.665618462e-01,4.68593e-01,9.99999e-01,9.10763e-01,9.99274e-01,5.14861e-01,9.99999e-01
8.708946554e-01,3.09258e-01,9.99999e-01,5.93307e-01,9.99169e-01,5.21657e-01,9.99999e-01
8.752491287e-01,3.45418e-01,9.99999e-01,6.54397e-01,9.98889e-01,5.28406e-01,9.99998e-01
8.796253743e-01,4.22633e-01,9.99999e-01,7.90982e-01,9.98463e-01,5.35106e-01,9.99996e-01
8.840235012e-01,4.78697e-01,9.99999e-01,8.85134e-01,9.98244e-01,5.41756e-01,9.99988e-01
8.884436187e-01,5.19267e-01,9.99999e-01,9.52978e-01,9.93625e-01,5.48355e-01,9.99969e-01
8.928858368e-01,5.08682e-01,9.99999e-01,9.80681e-01,9.34713e-01,5.54901e-01,9.99824e-01
8.973502660e-01,4.95382e-01,9.99999e-01,9.95271e-01,8.87286e-01,5.61394e-01,9.99100e-01
9.018370173e-01,5.33151e-01,9.99999e-01,9.99477e-01,9.40721e-01,5.67833e-01,9.98586e-01
9.063462024e-01,5.36655e-01,9.99999e-01,9.86772e-01,9.47752e-01,5.74216e-01,9.98758e-01
9.108779334e-01,5.17324e-01,9.99999e-01,9.69703e-01,9.19658e-01,5.80543e-01,9.98709e-01
9.154323231e-01,5.29221e-01,9.99999e-01,9.92797e-01,9.09178e-01,5.86812e-01,9.98933e-01
9.200094847e-01,4.99274e-01,9.99999e-01,9.02944e-01,9.28145e-01,5.93023e-01,9.99402e-01
9.246095321e-01,4.60563e-01,9.99999e-01,8.60373e-01,8.90876e-01,5.99176e-01,9.99311e-01
9.292325798e-01,2.53721e-01,9.99999e-01,8.89353e-01,4.65273e-01,6.05268e-01,9.97320e-01
9.338787427e-01,2.04367e-01,9.99999e-01,8.92452e-01,3.73100e-01,6.11301e-01,9.88968e-01
9.385481364e-01,3.78316e-01,9.99999e-01,9.19673e-01,6.70993e-01,6.17273e-01,9.86893e-01
9.432408771e-01,3.39570e-01,9.99999e-01,9.49964e-01,5.78039e-01,6.23183e-01,9.88682e-01
9.479570815e-01,2.86891e-01,9.99999e-01,9.74016e-01,4.71747e-01,6.29032e-01,9.90779e-01
9.526968669e-01,3.52847e-01,9.99999e-01,9.87387e-01,5.65308e-01,6.34818e-01,9.94365e-01
9.574603512e-01,3.73477e-01,9.99999e-01,9.94586e-01,5.87640e-01,6.40542e-01,9.97133e-01
9.622476530e-01,4.16901e-01,9.99999e-01,9.98308e-01,6.47444e-01,6.46202e-01,9.98017e-01
9.670588912e-01,5.06177e-01,9.99999e-01,9.99492e-01,7.78005e-01,6.51800e-01,9.98643e-01
9.718941857e-01,5.60865e-01,9.99999e-01,9.99963e-01,8.54122e-01,6.57334e-01,9.99001e-01
9.767536566e-01,5.81024e-01,9.99999e-01,9.99999e-01,8.77284e-01,6.62804e-01,9.99236e-01
9.816374249e-01,6.06195e-01,9.99999e-01,9.99999e-01,9.07431e-01,6.68210e-01,9.99735e-01
9.865456120e-01,6.33840e-01,9.99999e-01,9.99999e-01,9.41091e-01,6.73553e-01,9.99944e-01
9.914783401e-01,6.53815e-01,9.99999e-01,9.99999e-01,9.63163e-01,6.78831e-01,9.99984e-01
9.964357318e-01,6.70201e-01,9.99999e-01,9.99999e-01,9.79770e-01,6.84045e-01,9.99990e-01
1.001417910e+00,6.80797e-01,9.99999e-01,9.99999e-01,9.87826e-01,6.89195e-01,9.99985e-01
1.006425000e+00,6.89440e-01,9.99999e-01,9.99999e-01,9.93045e-01,6.94281e-01,9.99980e-01
1.011457125e+00,6.96268e-01,9.99999e-01,9.99999e-01,9.95677e-01,6.99303e-01,9.99981e-01
1.016514411e+00,7.02185e-01,9.99999e-01,9.99999e-01,9.97064e-01,7.04261e-01,9.99986e-01
1.021596983e+00,7.07438e-01,9.99999e-01,9.99930e-01,9.97660e-01,7.09155e-01,9.99986e-01
1.026704968e+00,7.08985e-01,9.99999e-01,9.94816e-01,9.98175e-01,7.13986e-01,9.99990e-01
1.031838492e+00,6.78503e-01,9.99999e-01,9.45212e-01,9.98672e-01,7.18753e-01,9.99997e-01
1.036997685e+00,8.19754e-02,9.99999e-01,1.13380e-01,9.99211e-01,7.23456e-01,9.99999e-01
1.042182673e+00,4.19587e-02,9.99999e-01,5.76742e-02,9.99060e-01,7.28097e-01,9.99999e-01
1.047393587e+00,6.01719e-02,9.99999e-01,8.22155e-02,9.98754e-01,7.32675e-01,9.99999e-01
1.052630555e+00,5.42288e-04,9.99999e-01,7.36498e-04,9.98291e-01,7.37190e-01,9.99999e-01
1.057893707e+00,1.61608e-03,9.99999e-01,2.18294e-03,9.97149e-01,7.41644e-01,9.99998e-01
1.063183176e+00,7.85715e-03,9.99999e-01,1.05652e-02,9.95312e-01,7.46035e-01,9.99997e-01
1.068499092e+00,2.94469e-02,9.99999e-01,3.94911e-02,9.92158e-01,7.50365e-01,9.99994e-01
1.073841587e+00,9.64398e-02,9.99999e-01,1.28765e-01,9.90831e-01,7.54634e-01,9.99987e-01
1.079210795e+00,2.05035e-01,9.99999e-01,2.73034e-01,9.88258e-01,7.58842e-01,9.99968e-01
1.084606849e+00,3.65408e-01,9.99999e-01,4.87052e-01,9.82282e-01,7.62990e-01,9.99923e-01
1.090029883e+00,5.14682e-01,9.99999e-01,6.87850e-01,9.74670e-01,7.67077e-01,9.99842e-01
1.095480033e+00,5.98310e-01,9.99999e-01,8.31482e-01,9.32462e-01,7.71106e-01,9.99716e-01
1.100957433e+00,5.94277e-01,9.99999e-01,9.14853e-01,8.37470e-01,7.75075e-01,9.99478e-01
1.106462220e+00,4.80715e-01,9.99999e-01,9.63852e-01,6.39682e-01,7.78985e-01,9.99115e-01
1.111994531e+00,3.03483e-01,9.99999e-01,9.86444e-01,3.93416e-01,7.82838e-01,9.97653e-01
1.117554504e+00,1.74257e-01,9.99999e-01,9.96672e-01,2.23977e-01,7.86633e-01,9.91554e-01
1.123142276e+00,2.64231e-01,9.99999e-01,9.99780e-01,3.41132e-01,7.90371e-01,9.80089e-01
1.128757988e+00,3.83643e-01,9.99999e-01,9.99999e-01,4.94518e-01,7.94052e-01,9.77002e-01
1.134401778e+00,1.98315e-01,9.99999e-01,9.99999e-01,2.53582e-01,7.97677e-01,9.80411e-01
1.140073787e+00,5.15015e-01,9.99999e-01,9.99999e-01,6.53007e-01,8.01247e-01,9.84317e-01
1.145774156e+00,3.30822e-01,9.99999e-01,9.99999e-01,4.17071e-01,8.04761e-01,9.85635e-01
1.151503026e+00,3.04446e-01,9.99999e-01,9.99999e-01,3.79735e-01,8.08222e-01,9.91971e-01
1.157260541e+00,3.54548e-01,9.99999e-01,9.99999e-01,4.37889e-01,8.11628e-01,9.97592e-01
1.163046844e+00,4.41325e-01,9.99999e-01,9.99999e-01,5.41885e-01,8.14981e-01,9.99316e-01
1.168862078e+00,5.32683e-01,9.99999e-01,9.99999e-01,6.51207e-01,8.18281e-01,9.99647e-01
1.174706389e+00,6.30101e-01,9.99999e-01,9.99999e-01,7.67343e-01,8.21529e-01,9.99533e-01
1.180579921e+00,7.01253e-01,9.99999e-01,9.99999e-01,8.50886e-01,8.24725e-01,9.99294e-01
1.186482820e+00,7.55042e-01,9.99999e-01,9.99990e-01,9.12697e-01,8.27870e-01,9.99275e-01
1.192415234e+00,7.73235e-01,9.99999e-01,9.81739e-01,9.48076e-01,8.30965e-01,9.99457e-01
1.198377311e+00,4.43569e-01,9.99999e-01,5.52462e-01,9.56071e-01,8.34010e-01,9.99487e-01
1.204369197e+00,1.00762e-14,9.99999e-01,1.23433e-14,9.58399e-01,8.37005e-01,9.99536e-01
1.210391043e+00,8.43291e-56,9.99999e-01,1.02718e-55,9.60166e-01,8.39952e-01,9.99717e-01
1.216442998e+00,1.87087e-48,9.99999e-01,2.26806e-48,9.66002e-01,8.42851e-01,9.99826e-01
1.222525213e+00,9.63754e-48,9.99999e-01,1.15561e-47,9.73431e-01,8.45702e-01,9.99892e-01
1.228637839e+00,5.66748e-37,9.99999e-01,6.76567e-37,9.81478e-01,8.48506e-01,9.99949e-01
