#,Wave/freq,Total,N2,CO2,H2O,Rayleigh,CIA
4.000000000e-01,2.67481e-11,9.99999e-01,9.99999e-01,9.99952e-01,2.67493e-11,9.99999e-01
4.020000000e-01,4.32864e-11,9.99999e-01,9.99999e-01,9.99970e-01,4.32876e-11,9.99999e-01
4.040100000e-01,6.93531e-11,9.99999e-01,9.99999e-01,9.99987e-01,6.93540e-11,9.99999e-01
4.060300500e-01,1.10087e-10,9.99999e-01,9.99999e-01,9.99996e-01,1.10087e-10,9.99999e-01
4.080602003e-01,1.73155e-10,9.99999e-01,9.99999e-01,9.99998e-01,1.73155e-10,9.99999e-01
4.101005013e-01,2.69930e-10,9.99999e-01,9.99999e-01,9.99999e-01,2.69930e-10,9.99999e-01
4.121510038e-01,4.17116e-10,9.99999e-01,9.99999e-01,9.99997e-01,4.17116e-10,9.99999e-01
4.142117588e-01,6.39035e-10,9.99999e-01,9.99999e-01,9.99986e-01,6.39044e-10,9.99999e-01
4.162828176e-01,9.70776e-10,9.99999e-01,9.99999e-01,9.99941e-01,9.70832e-10,9.99999e-01
4.183642317e-01,1.46270e-09,9.99999e-01,9.99999e-01,9.99965e-01,1.46275e-09,9.99999e-01
4.204560528e-01,2.18610e-09,9.99999e-01,9.99999e-01,9.99978e-01,2.18615e-09,9.99999e-01
4.225583331e-01,3.24145e-09,9.99999e-01,9.99999e-01,9.99991e-01,3.24148e-09,9.99999e-01
4.246711247e-01,4.76896e-09,9.99999e-01,9.99999e-01,9.99993e-01,4.76899e-09,9.99999e-01
4.267944804e-01,6.96297e-09,9.99999e-01,9.99999e-01,9.99990e-01,6.96303e-09,9.99999e-01
4.289284528e-01,1.00907e-08,9.99999e-01,9.99999e-01,9.99992e-01,1.00907e-08,9.99999e-01
4.310730950e-01,1.45166e-08,9.99999e-01,9.99999e-01,9.99996e-01,1.45166e-08,9.99999e-01
4.332284605e-01,2.07342e-08,9.99999e-01,9.99999e-01,9.99998e-01,2.07342e-08,9.99999e-01
4.353946028e-01,2.94071e-08,9.99999e-01,9.99999e-01,9.99999e-01,2.94071e-08,9.99999e-01
4.375715758e-01,4.14206e-08,9.99999e-01,9.99999e-01,9.99993e-01,4.14209e-08,9.99999e-01
4.397594337e-01,5.79463e-08,9.99999e-01,9.99999e-01,9.99948e-01,5.79492e-08,9.99999e-01
4.419582309e-01,8.05161e-08,9.99999e-01,9.99999e-01,9.99740e-01,8.05370e-08,9.99999e-01
4.441680220e-01,1.11181e-07,9.99999e-01,9.99999e-01,9.99797e-01,1.11204e-07,9.99999e-01
4.463888621e-01,1.52540e-07,9.99999e-01,9.99999e-01,9.99789e-01,1.52572e-07,9.99999e-01
4.486208064e-01,2.08000e-07,9.99999e-01,9.99999e-01,9.99869e-01,2.08027e-07,9.99999e-01
4.508639105e-01,2.81888e-07,9.99999e-01,9.99999e-01,9.99938e-01,2.81905e-07,9.99999e-01
4.531182300e-01,3.79725e-07,9.99999e-01,9.99999e-01,9.99975e-01,3.79734e-07,9.99999e-01
4.553838212e-01,5.08503e-07,9.99999e-01,9.99999e-01,9.99983e-01,5.08511e-07,9.99999e-01
4.576607403e-01,6.77039e-07,9.99999e-01,9.99999e-01,9.99991e-01,6.77044e-07,9.99999e-01
4.599490440e-01,8.96345e-07,9.99999e-01,9.99999e-01,9.99994e-01,8.96350e-07,9.99999e-01
4.622487892e-01,1.18013e-06,9.99999e-01,9.99999e-01,9.99998e-01,1.18013e-06,9.99999e-01
4.645600332e-01,1.54534e-06,9.99999e-01,9.99999e-01,9.99995e-01,1.54534e-06,9.99999e-01
4.668828333e-01,2.01270e-06,9.99999e-01,9.99999e-01,9.99937e-01,2.01283e-06,9.99999e-01
4.692172475e-01,2.60773e-06,9.99999e-01,9.99999e-01,9.99867e-01,2.60808e-06,9.99999e-01
4.715633337e-01,3.36182e-06,9.99999e-01,9.99999e-01,9.99913e-01,3.36211e-06,9.99999e-01
4.739211504e-01,4.31210e-06,9.99999e-01,9.99999e-01,9.99917e-01,4.31245e-06,9.99999e-01
4.762907561e-01,5.50406e-06,9.99999e-01,9.99999e-01,9.99956e-01,5.50430e-06,9.99999e-01
4.786722099e-01,6.99163e-06,9.99999e-01,9.99999e-01,9.99982e-01,6.99176e-06,9.99999e-01
4.810655710e-01,8.83926e-06,9.99999e-01,9.99999e-01,9.99994e-01,8.83931e-06,9.99999e-01
4.834708988e-01,1.11229e-05,9.99999e-01,9.99999e-01,9.99948e-01,1.11234e-05,9.99999e-01
4.858882533e-01,1.39331e-05,9.99999e-01,9.99999e-01,9.99906e-01,1.39344e-05,9.99999e-01
4.883176946e-01,1.73768e-05,9.99999e-01,9.99999e-01,9.99921e-01,1.73782e-05,9.99999e-01
4.907592831e-01,2.15772e-05,9.99999e-01,9.99999e-01,9.99928e-01,2.15787e-05,9.99999e-01
4.932130795e-01,2.66790e-05,9.99999e-01,9.99999e-01,9.99949e-01,2.66803e-05,9.99999e-01
4.956791449e-01,3.28491e-05,9.99999e-01,9.99999e-01,9.99973e-01,3.28500e-05,9.99999e-01
4.981575406e-01,4.02751e-05,9.99999e-01,9.99999e-01,9.99866e-01,4.02805e-05,9.99999e-01
5.006483283e-01,4.91761e-05,9.99999e-01,9.99999e-01,9.99655e-01,4.91931e-05,9.99997e-01
5.031515699e-01,5.97359e-05,9.99999e-01,9.99999e-01,9.98258e-01,5.98412e-05,9.99981e-01
5.056673278e-01,7.24447e-05,9.99999e-01,9.99999e-01,9.99081e-01,7.25128e-05,9.99978e-01
5.081956644e-01,8.74324e-05,9.99999e-01,9.99999e-01,9.98840e-01,8.75350e-05,9.99986e-01
5.107366428e-01,1.05194e-04,9.99999e-01,9.99999e-01,9.99217e-01,1.05277e-04,9.99996e-01
5.132903260e-01,1.26098e-04,9.99999e-01,9.99999e-01,9.99552e-01,1.26154e-04,9.99999e-01
5.158567776e-01,1.50604e-04,9.99999e-01,9.99999e-01,9.99810e-01,1.50633e-04,9.99999e-01
5.184360615e-01,1.79218e-04,9.99999e-01,9.99999e-01,9.99923e-01,1.79232e-04,9.99999e-01
5.210282418e-01,2.12524e-04,9.99999e-01,9.99999e-01,9.99971e-01,2.12530e-04,9.99999e-01
5.236333830e-01,2.51138e-04,9.99999e-01,9.99999e-01,9.99886e-01,2.51167e-04,9.99998e-01
5.262515499e-01,2.95829e-04,9.99999e-01,9.99999e-01,9.99928e-01,2.95850e-04,9.99998e-01
5.288828077e-01,3.47335e-04,9.99999e-01,9.99999e-01,9.99934e-01,3.47357e-04,9.99998e-01
5.315272217e-01,4.06518e-04,9.99999e-01,9.99999e-01,9.99942e-01,4.06541e-04,9.99999e-01
5.341848578e-01,4.74315e-04,9.99999e-01,9.99999e-01,9.99962e-01,4.74333e-04,9.99999e-01
5.368557821e-01,5.51673e-04,9.99999e-01,9.99999e-01,9.99867e-01,5.51746e-04,9.99999e-01
5.395400610e-01,6.39571e-04,9.99999e-01,9.99999e-01,9.99522e-01,6.39879e-04,9.99995e-01
5.422377613e-01,7.39457e-04,9.99999e-01,9.99999e-01,9.99383e-01,7.39921e-04,9.99988e-01
5.449489501e-01,8.52653e-04,9.99999e-01,9.99999e-01,9.99426e-01,8.53152e-04,9.99987e-01
5.476736949e-01,9.80446e-04,9.99999e-01,9.99999e-01,9.99492e-01,9.80949e-04,9.99993e-01
5.504120634e-01,1.12437e-03,9.99999e-01,9.99999e-01,9.99631e-01,1.12478e-03,9.99997e-01
5.531641237e-01,1.28599e-03,9.99999e-01,9.99999e-01,9.99814e-01,1.28623e-03,9.99999e-01
5.559299443e-01,1.46682e-03,9.99999e-01,9.99999e-01,9.99910e-01,1.46695e-03,9.99999e-01
5.587095940e-01,1.66864e-03,9.99999e-01,9.99999e-01,9.99943e-01,1.66873e-03,9.99999e-01
5.615031420e-01,1.89332e-03,9.99999e-01,9.99999e-01,9.99937e-01,1.89344e-03,9.99999e-01
5.643106577e-01,2.14289e-03,9.99999e-01,9.99999e-01,9.99928e-01,2.14305e-03,9.99998e-01
5.671322110e-01,2.41753e-03,9.99999e-01,9.99999e-01,9.99137e-01,2.41964e-03,9.99991e-01
5.699678720e-01,2.72283e-03,9.99999e-01,9.99999e-01,9.99084e-01,2.72538e-03,9.99976e-01
5.728177114e-01,3.05958e-03,9.99999e-01,9.99999e-01,9.99046e-01,3.06256e-03,9.99980e-01
5.756818000e-01,3.43048e-03,9.99999e-01,9.99999e-01,9.99124e-01,3.43353e-03,9.99987e-01
5.785602090e-01,3.83781e-03,9.99999e-01,9.99999e-01,9.99237e-01,3.84075e-03,9.99995e-01
5.814530100e-01,4.28347e-03,9.99999e-01,9.99999e-01,9.99233e-01,4.28676e-03,9.99997e-01
5.843602750e-01,4.76982e-03,9.99999e-01,9.99999e-01,9.99085e-01,4.77420e-03,9.99994e-01
5.872820764e-01,5.26383e-03,9.99999e-01,9.99999e-01,9.92149e-01,5.30577e-03,9.99944e-01
5.902184868e-01,5.82744e-03,9.99999e-01,9.99999e-01,9.90496e-01,5.88424e-03,9.99848e-01
5.931695792e-01,6.46775e-03,9.99999e-01,9.99999e-01,9.93279e-01,6.51245e-03,9.99854e-01
5.961354271e-01,7.13973e-03,9.99999e-01,9.99999e-01,9.92634e-01,7.19330e-03,9.99916e-01
5.991161043e-01,7.88691e-03,9.99999e-01,9.99999e-01,9.94623e-01,7.92974e-03,9.99973e-01
6.021116848e-01,8.69811e-03,9.99999e-01,9.99999e-01,9.96946e-01,8.72477e-03,9.99996e-01
6.051222432e-01,9.56660e-03,9.99999e-01,9.99999e-01,9.98453e-01,9.58141e-03,9.99999e-01
6.081478544e-01,1.04957e-02,9.99999e-01,9.99999e-01,9.99332e-01,1.05027e-02,9.99999e-01
6.111885937e-01,1.14885e-02,9.99999e-01,9.99999e-01,9.99717e-01,1.14917e-02,9.99999e-01
6.142445367e-01,1.25500e-02,9.99999e-01,9.99999e-01,9.99873e-01,1.25516e-02,9.99999e-01
6.173157594e-01,1.36843e-02,9.99999e-01,9.99999e-01,9.99930e-01,1.36853e-02,9.99999e-01
6.204023382e-01,1.48950e-02,9.99999e-01,9.99999e-01,9.99940e-01,1.48959e-02,9.99999e-01
6.235043498e-01,1.61823e-02,9.99999e-01,9.99999e-01,9.99740e-01,1.61865e-02,9.99998e-01
6.266218716e-01,1.75358e-02,9.99999e-01,9.99999e-01,9.98627e-01,1.75601e-02,9.99989e-01
6.297549810e-01,1.90097e-02,9.99999e-01,9.99999e-01,9.99496e-01,1.90196e-02,9.99980e-01
6.329037559e-01,2.05472e-02,9.99999e-01,9.99999e-01,9.99005e-01,2.05680e-02,9.99984e-01
6.360682746e-01,2.21890e-02,9.99999e-01,9.99999e-01,9.99152e-01,2.22080e-02,9.99990e-01
6.392486160e-01,2.39162e-02,9.99999e-01,9.99999e-01,9.98902e-01,2.39426e-02,9.99995e-01
6.424448591e-01,2.57362e-02,9.99999e-01,9.99999e-01,9.98530e-01,2.57743e-02,9.99993e-01
6.456570834e-01,2.75161e-02,9.99999e-01,9.99999e-01,9.93192e-01,2.77057e-02,9.99961e-01
6.488853688e-01,2.95881e-02,9.99999e-01,9.99999e-01,9.95017e-01,2.97394e-02,9.99893e-01
6.521297956e-01,3.17131e-02,9.99999e-01,9.99999e-01,9.94922e-01,3.18777e-02,9.99912e-01
6.553904446e-01,3.39482e-02,9.99999e-01,9.99999e-01,9.94941e-01,3.41230e-02,9.99934e-01
6.586673968e-01,3.63186e-02,9.99999e-01,9.99999e-01,9.95668e-01,3.64774e-02,9.99977e-01
6.619607338e-01,3.88485e-02,9.99999e-01,9.99999e-01,9.97584e-01,3.89428e-02,9.99994e-01
6.652705375e-01,4.14609e-02,9.99999e-01,9.99999e-01,9.98549e-01,4.15212e-02,9.99997e-01
6.685968902e-01,4.41844e-02,9.99999e-01,9.99999e-01,9.99325e-01,4.42142e-02,9.99999e-01
6.719398746e-01,4.70089e-02,9.99999e-01,9.99999e-01,9.99687e-01,4.70236e-02,9.99999e-01
6.752995740e-01,4.99421e-02,9.99999e-01,9.99999e-01,9.99830e-01,4.99506e-02,9.99999e-01
6.786760719e-01,5.29836e-02,9.99999e-01,9.99999e-01,9.99755e-01,5.29966e-02,9.99999e-01
6.820694522e-01,5.61390e-02,9.99999e-01,9.99999e-01,9.99581e-01,5.61626e-02,9.99997e-01
6.854797995e-01,5.94172e-02,9.99999e-01,9.99999e-01,9.99459e-01,5.94495e-02,9.99994e-01
6.889071985e-01,6.27753e-02,9.99999e-01,9.99999e-01,9.98691e-01,6.28582e-02,9.99987e-01
6.923517345e-01,6.49787e-02,9.99999e-01,9.99999e-01,9.78854e-01,6.63892e-02,9.99897e-01
6.958134932e-01,6.92552e-02,9.99999e-01,9.99999e-01,9.88977e-01,7.00429e-02,9.99773e-01
6.992925606e-01,7.30292e-02,9.99999e-01,9.99999e-01,9.89495e-01,7.38195e-02,9.99795e-01
7.027890234e-01,7.67009e-02,9.99999e-01,9.99999e-01,9.87053e-01,7.77190e-02,9.99843e-01
7.063029686e-01,8.08444e-02,9.99999e-01,9.99999e-01,9.89101e-01,8.17414e-02,9.99922e-01
7.098344834e-01,8.49841e-02,9.99999e-01,9.99999e-01,9.89540e-01,8.58863e-02,9.99953e-01
7.133836558e-01,8.88901e-02,9.99999e-01,9.99999e-01,9.86077e-01,9.01533e-02,9.99908e-01
7.169505741e-01,8.44535e-02,9.99999e-01,9.99999e-01,8.93934e-01,9.45417e-02,9.99282e-01
7.205353270e-01,9.36438e-02,9.99999e-01,9.99999e-01,9.46609e-01,9.90506e-02,9.98735e-01
7.241380036e-01,9.65767e-02,9.99999e-01,9.99999e-01,9.32512e-01,1.03679e-01,9.98907e-01
7.277586936e-01,1.01712e-01,9.99999e-01,9.99999e-01,9.38911e-01,1.08426e-01,9.99107e-01
7.313974871e-01,1.05893e-01,9.99999e-01,9.99999e-01,9.35099e-01,1.13290e-01,9.99581e-01
7.350544745e-01,1.13994e-01,9.99999e-01,9.99999e-01,9.63982e-01,1.18270e-01,9.99854e-01
7.387297469e-01,1.20069e-01,9.99999e-01,9.99999e-01,9.73353e-01,1.23364e-01,9.99932e-01
7.424233956e-01,1.26881e-01,9.99999e-01,9.99999e-01,9.86874e-01,1.28570e-01,9.99986e-01
7.461355126e-01,1.32818e-01,9.99999e-01,9.99999e-01,9.92024e-01,1.33886e-01,9.99997e-01
7.498661902e-01,1.38793e-01,9.99999e-01,9.99999e-01,9.96280e-01,1.39311e-01,9.99998e-01
7.536155211e-01,1.44577e-01,9.99999e-01,9.99999e-01,9.98173e-01,1.44842e-01,9.99999e-01
7.573835987e-01,1.50335e-01,9.99999e-01,9.99999e-01,9.99059e-01,1.50476e-01,9.99999e-01
7.611705167e-01,1.56121e-01,9.99999e-01,9.99999e-01,9.99415e-01,1.56212e-01,9.99999e-01
7.649763693e-01,1.61988e-01,9.99999e-01,9.99999e-01,9.99633e-01,1.62047e-01,9.99999e-01
7.688012511e-01,1.67935e-01,9.99999e-01,9.99999e-01,9.99744e-01,1.67978e-01,9.99999e-01
7.726452574e-01,1.73966e-01,9.99999e-01,9.99999e-01,9.99789e-01,1.74003e-01,9.99999e-01
7.765084837e-01,1.80064e-01,9.99999e-01,9.99999e-01,9.99701e-01,1.80118e-01,9.99999e-01
7.803910261e-01,1.73284e-01,9.99999e-01,9.31158e-01,9.98709e-01,1.86321e-01,9.99998e-01
7.842929812e-01,1.37052e-01,9.99999e-01,7.14464e-01,9.95503e-01,1.92608e-01,9.99991e-01
7.882144461e-01,1.38035e-01,9.99999e-01,6.99709e-01,9.90761e-01,1.98978e-01,9.99936e-01
7.921555184e-01,1.64769e-01,9.99999e-01,8.06056e-01,9.94927e-01,2.05426e-01,9.99889e-01
7.961162960e-01,1.81667e-01,9.99999e-01,8.64805e-01,9.91042e-01,2.11949e-01,9.99894e-01
8.000968774e-01,1.99882e-01,9.99999e-01,9.24200e-01,9.89660e-01,2.18545e-01,9.99887e-01
8.040973618e-01,2.13948e-01,9.99999e-01,9.59966e-01,9.89657e-01,2.25209e-01,9.99910e-01
8.081178486e-01,2.22351e-01,9.99999e-01,9.81399e-01,9.76838e-01,2.31939e-01,9.99916e-01
8.121584379e-01,2.15281e-01,9.99999e-01,9.94226e-01,9.07185e-01,2.38731e-01,9.99672e-01
8.162192301e-01,2.18276e-01,9.99999e-01,9.98722e-01,8.90994e-01,2.45582e-01,9.98769e-01
8.203003262e-01,2.38146e-01,9.99999e-01,9.99980e-01,9.44565e-01,2.52489e-01,9.98559e-01
8.244018279e-01,2.39419e-01,9.99999e-01,9.99999e-01,9.23860e-01,2.59448e-01,9.98853e-01
8.285238370e-01,2.48450e-01,9.99999e-01,9.99999e-01,9.33268e-01,2.66455e-01,9.99099e-01
8.326664562e-01,2.54990e-01,9.99999e-01,9.99999e-01,9.32643e-01,2.73507e-01,9.99627e-01
8.368297885e-01,2.66917e-01,9.99999e-01,9.99999e-01,9.51311e-01,2.80602e-01,9.99914e-01
8.410139374e-01,2.79310e-01,9.99999e-01,9.99999e-01,9.70770e-01,2.87734e-01,9.99949e-01
8.452190071e-01,2.90635e-01,9.99999e-01,9.99999e-01,9.85558e-01,2.94902e-01,9.99969e-01
8.494451021e-01,2.99555e-01,9.99999e-01,9.99999e-01,9.91593e-01,3.02102e-01,9.99975e-01
8.536923276e-01,3.07786e-01,9.99999e-01,9.99999e-01,9.95023e-01,3.09330e-01,9.99985e-01
8.579607893e-01,3.15610e-01,9.99999e-01,9.99999e-01,9.96931e-01,3.16582e-01,9.99996e-01
8.622505932e-01,3.23226e-01,9.99999e-01,9.99999e-01,9.98050e-01,3.23857e-01,9.99998e-01
8.665618462e-01,2.92552e-01,9.99999e-01,8.84446e-01,9.98793e-01,3.31150e-01,9.99999e-01
8.708946554e-01,1.46657e-01,9.99999e-01,4.33867e-01,9.98618e-01,3.38459e-01,9.99998e-01
8.752491287e-01,1.73512e-01,9.99999e-01,5.02676e-01,9.98151e-01,3.45780e-01,9.99997e-01
8.796253743e-01,2.39785e-01,9.99999e-01,6.80704e-01,9.97440e-01,3.53109e-01,9.99993e-01
8.840235012e-01,2.93730e-01,9.99999e-01,8.17233e-01,9.97077e-01,3.60445e-01,9.99981e-01
8.884436187e-01,3.36016e-01,9.99999e-01,9.23266e-01,9.89377e-01,3.67784e-01,9.99948e-01
8.928858368e-01,3.24817e-01,9.99999e-01,9.68122e-01,8.94097e-01,3.75123e-01,9.99707e-01
8.973502660e-01,3.11135e-01,9.99999e-01,9.92169e-01,8.20869e-01,3.82458e-01,9.98503e-01
9.018370173e-01,3.51351e-01,9.99999e-01,9.99134e-01,9.04241e-01,3.89789e-01,9.97648e-01
9.063462024e-01,3.55212e-01,9.99999e-01,9.78162e-01,9.14942e-01,3.97111e-01,9.97933e-01
9.108779334e-01,3.34326e-01,9.99999e-01,9.50217e-01,8.70660e-01,4.04421e-01,9.97853e-01
9.154323231e-01,3.47079e-01,9.99999e-01,9.88096e-01,8.54189e-01,4.11718e-01,9.98224e-01
9.200094847e-01,3.19292e-01,9.99999e-01,8.51722e-01,8.84100e-01,4.18998e-01,9.99005e-01
9.246095321e-01,2.77119e-01,9.99999e-01,7.79575e-01,8.27758e-01,4.26260e-01,9.98854e-01
9.292325798e-01,1.08974e-01,9.99999e-01,8.24385e-01,2.95613e-01,4.33500e-01,9.95542e-01
9.338787427e-01,7.74187e-02,9.99999e-01,8.28689e-01,2.08841e-01,4.40717e-01,9.81702e-01
9.385481364e-01,2.04912e-01,9.99999e-01,8.70387e-01,5.29102e-01,4.47908e-01,9.78276e-01
9.432408771e-01,1.74661e-01,9.99999e-01,9.18288e-01,4.22229e-01,4.55070e-01,9.81230e-01
9.479570815e-01,1.34003e-01,9.99999e-01,9.57174e-01,3.06265e-01,4.62202e-01,9.84697e-01
9.526968669e-01,1.83946e-01,9.99999e-01,9.79136e-01,4.02765e-01,4.69302e-01,9.90637e-01
9.574603512e-01,1.98920e-01,9.99999e-01,9.91021e-01,4.22860e-01,4.76368e-01,9.95233e-01
9.622476530e-01,2.36670e-01,9.99999e-01,9.97191e-01,4.92427e-01,4.83397e-01,9.96701e-01
9.670588912e-01,3.24175e-01,9.99999e-01,9.99157e-01,6.63051e-01,4.90388e-01,9.97742e-01
9.718941857e-01,3.82463e-01,9.99999e-01,9.99940e-01,7.70337e-01,4.97338e-01,9.98337e-01
9.767536566e-01,4.05440e-01,9.99999e-01,9.99999e-01,8.05072e-01,5.04248e-01,9.98729e-01
9.816374249e-01,4.34872e-01,9.99999e-01,9.99999e-01,8.51206e-01,5.11114e-01,9.99559e-01
9.865456120e-01,4.68220e-01,9.99999e-01,9.99999e-01,9.04096e-01,5.17935e-01,9.99907e-01
9.914783401e-01,4.92958e-01,9.99999e-01,9.99999e-01,9.39511e-01,5.24709e-01,9.99974e-01
9.964357318e-01,5.13675e-01,9.99999e-01,9.99999e-01,9.66592e-01,5.31436e-01,9.99984e-01
1.001417910e+00,5.27253e-01,9.99999e-01,9.99999e-01,9.79838e-01,5.38114e-01,9.99976e-01
1.006425000e+00,5.38434e-01,9.99999e-01,9.99999e-01,9.88454e-01,5.44741e-01,9.99967e-01
1.011457125e+00,5.47343e-01,9.99999e-01,9.99999e-01,9.92821e-01,5.51316e-01,9.99969e-01
1.016514411e+00,5.55105e-01,9.99999e-01,9.99999e-01,9.95120e-01,5.57839e-01,9.99978e-01
1.021596983e+00,5.62034e-01,9.99999e-01,9.99880e-01,9.96109e-01,5.64308e-01,9.99978e-01
1.026704968e+00,5.64070e-01,9.99999e-01,9.91360e-01,9.96965e-01,5.70721e-01,9.99985e-01
1.031838492e+00,5.30824e-01,9.99999e-01,9.21787e-01,9.97793e-01,5.77079e-01,9.99995e-01
1.036997685e+00,4.07292e-02,9.99999e-01,6.98856e-02,9.98688e-01,5.83380e-01,9.99998e-01
1.042182673e+00,7.01329e-03,9.99999e-01,1.19095e-02,9.98436e-01,5.89623e-01,9.99999e-01
1.047393587e+00,1.45545e-02,9.99999e-01,2.44711e-02,9.97927e-01,5.95808e-01,9.99999e-01
1.052630555e+00,1.20134e-05,9.99999e-01,1.99951e-05,9.97156e-01,6.01933e-01,9.99998e-01
1.057893707e+00,4.35984e-05,9.99999e-01,7.18978e-05,9.95255e-01,6.07999e-01,9.99997e-01
1.063183176e+00,5.01656e-04,9.99999e-01,8.20944e-04,9.92205e-01,6.14004e-01,9.99995e-01
1.068499092e+00,3.29545e-03,9.99999e-01,5.36616e-03,9.86982e-01,6.19948e-01,9.99990e-01
1.073841587e+00,2.18803e-02,9.99999e-01,3.53723e-02,9.84786e-01,6.25831e-01,9.99980e-01
1.079210795e+00,7.54743e-02,9.99999e-01,1.21447e-01,9.80543e-01,6.31651e-01,9.99947e-01
1.084606849e+00,1.89838e-01,9.99999e-01,3.05991e-01,9.70699e-01,6.37409e-01,9.99873e-01
1.090029883e+00,3.32709e-01,9.99999e-01,5.38671e-01,9.58196e-01,6.43105e-01,9.99738e-01
1.095480033e+00,4.26464e-01,9.99999e-01,7.36710e-01,8.90228e-01,6.48737e-01,9.99527e-01
1.100957433e+00,4.21888e-01,9.99999e-01,8.62673e-01,7.45496e-01,6.54306e-01,9.99131e-01
1.106462220e+00,3.00189e-01,9.99999e-01,9.40691e-01,4.82154e-01,6.59811e-01,9.98527e-01
1.111994531e+00,1.44090e-01,9.99999e-01,9.77576e-01,2.21721e-01,6.65252e-01,9.96096e-01
1.117554504e+00,6.06856e-02,9.99999e-01,9.94483e-01,9.21148e-02,6.70630e-01,9.85980e-01
1.123142276e+00,1.23473e-01,9.99999e-01,9.99637e-01,1.88902e-01,6.75943e-01,9.67072e-01
1.128757988e+00,2.12177e-01,9.99999e-01,9.99999e-01,3.23780e-01,6.81192e-01,9.62007e-01
1.134401778e+00,9.88314e-02,9.99999e-01,9.99999e-01,1.48811e-01,6.86378e-01,9.67601e-01
1.140073787e+00,3.36331e-01,9.99999e-01,9.99999e-01,4.99348e-01,6.91499e-01,9.74028e-01
1.145774156e+00,1.69549e-01,9.99999e-01,9.99999e-01,2.49344e-01,6.96556e-01,9.76200e-01
1.151503026e+00,1.49477e-01,9.99999e-01,9.99999e-01,2.15945e-01,7.01549e-01,9.86670e-01
1.157260541e+00,1.83793e-01,9.99999e-01,9.99999e-01,2.61199e-01,7.06478e-01,9.95995e-01
1.163046844e+00,2.61528e-01,9.99999e-01,9.99999e-01,3.68072e-01,7.11343e-01,9.98863e-01
1.168862078e+00,3.52676e-01,9.99999e-01,9.99999e-01,4.92752e-01,7.16145e-01,9.99413e-01
1.174706389e+00,4.65068e-01,9.99999e-01,9.99999e-01,6.45636e-01,7.20884e-01,9.99223e-01
1.180579921e+00,5.54689e-01,9.99999e-01,9.99999e-01,7.65397e-01,7.25559e-01,9.98826e-01
1.186482820e+00,6.26622e-01,9.99999e-01,9.99983e-01,8.59230e-01,7.30171e-01,9.98795e-01
1.192415234e+00,6.52185e-01,9.99999e-01,9.70104e-01,9.15138e-01,7.34721e-01,9.99097e-01
1.198377311e+00,3.69889e-01,9.99999e-01,5.32990e-01,9.27993e-01,7.39208e-01,9.99147e-01
1.204369197e+00,5.13243e-23,9.99999e-01,7.19526e-23,9.31849e-01,7.43634e-01,9.99228e-01
1.210391043e+00,2.10341e-91,9.99999e-01,2.92107e-91,9.34660e-01,7.47997e-01,9.99530e-01
1.216442998e+00,3.57325e-79,9.99999e-01,4.92332e-79,9.44152e-01,7.52300e-01,9.99712e-01
1.222525213e+00,5.47294e-78,9.99999e-01,7.40427e-78,9.56205e-01,7.56541e-01,9.99821e-01
1.228637839e+00,2.93272e-60,9.99999e-01,3.93736e-60,9.69376e-01,7.60722e-01,9.99916e-01
