#,Wave/freq,Total,N2,CO2,H2O,Rayleigh,CIA
4.000000000e-01,1.77739e-26,9.99999e-01,9.99999e-01,9.99885e-01,1.77759e-26,9.99999e-01
4.020000000e-01,5.74056e-26,9.99999e-01,9.99999e-01,9.99928e-01,5.74097e-26,9.99999e-01
4.040100000e-01,1.80944e-25,9.99999e-01,9.99999e-01,9.99969e-01,1.80950e-25,9.99999e-01
4.060300500e-01,5.57544e-25,9.99999e-01,9.99999e-01,9.99992e-01,5.57548e-25,9.99999e-01
4.080602003e-01,1.68017e-24,9.99999e-01,9.99999e-01,9.99997e-01,1.68017e-24,9.99999e-01
4.101005013e-01,4.95406e-24,9.99999e-01,9.99999e-01,9.99999e-01,4.95406e-24,9.99999e-01
4.121510038e-01,1.42985e-23,9.99999e-01,9.99999e-01,9.99995e-01,1.42986e-23,9.99999e-01
4.142117588e-01,4.04129e-23,9.99999e-01,9.99999e-01,9.99968e-01,4.04141e-23,9.99999e-01
4.162828176e-01,1.11892e-22,9.99999e-01,9.99999e-01,9.99858e-01,1.11908e-22,9.99999e-01
4.183642317e-01,3.03678e-22,9.99999e-01,9.99999e-01,9.99915e-01,3.03703e-22,9.99999e-01
4.204560528e-01,8.08075e-22,9.99999e-01,9.99999e-01,9.99948e-01,8.08117e-22,9.99999e-01
4.225583331e-01,2.10909e-21,9.99999e-01,9.99999e-01,9.99980e-01,2.10913e-21,9.99999e-01
4.246711247e-01,5.40129e-21,9.99999e-01,9.99999e-01,9.99984e-01,5.40137e-21,9.99999e-01
4.267944804e-01,1.35777e-20,9.99999e-01,9.99999e-01,9.99976e-01,1.35780e-20,9.99999e-01
4.289284528e-01,3.35162e-20,9.99999e-01,9.99999e-01,9.99982e-01,3.35168e-20,9.99999e-01
4.310730950e-01,8.12707e-20,9.99999e-01,9.99999e-01,9.99992e-01,8.12713e-20,9.99999e-01
4.332284605e-01,1.93648e-19,9.99999e-01,9.99999e-01,9.99997e-01,1.93648e-19,9.99999e-01
4.353946028e-01,4.53566e-19,9.99999e-01,9.99999e-01,9.99998e-01,4.53567e-19,9.99999e-01
4.375715758e-01,1.04463e-18,9.99999e-01,9.99999e-01,9.99985e-01,1.04464e-18,9.99999e-01
4.397594337e-01,2.36638e-18,9.99999e-01,9.99999e-01,9.99875e-01,2.36667e-18,9.99999e-01
4.419582309e-01,5.27252e-18,9.99999e-01,9.99999e-01,9.99369e-01,5.27585e-18,9.99999e-01
4.441680220e-01,1.15706e-17,9.99999e-01,9.99999e-01,9.99508e-01,1.15763e-17,9.99999e-01
4.463888621e-01,2.49968e-17,9.99999e-01,9.99999e-01,9.99487e-01,2.50096e-17,9.99999e-01
4.486208064e-01,5.31982e-17,9.99999e-01,9.99999e-01,9.99681e-01,5.32151e-17,9.99999e-01
4.508639105e-01,1.11538e-16,9.99999e-01,9.99999e-01,9.99850e-01,1.11554e-16,9.99999e-01
4.531182300e-01,2.30442e-16,9.99999e-01,9.99999e-01,9.99940e-01,2.30456e-16,9.99999e-01
4.553838212e-01,4.69297e-16,9.99999e-01,9.99999e-01,9.99959e-01,4.69316e-16,9.99999e-01
4.576607403e-01,9.42397e-16,9.99999e-01,9.99999e-01,9.99981e-01,9.42414e-16,9.99999e-01
4.599490440e-01,1.86652e-15,9.99999e-01,9.99999e-01,9.99986e-01,1.86654e-15,9.99999e-01
4.622487892e-01,3.64729e-15,9.99999e-01,9.99999e-01,9.99997e-01,3.64730e-15,9.99999e-01
4.645600332e-01,7.03322e-15,9.99999e-01,9.99999e-01,9.99990e-01,7.03328e-15,9.99999e-01
4.668828333e-01,1.33859e-14,9.99999e-01,9.99999e-01,9.99849e-01,1.33879e-14,9.99999e-01
4.692172475e-01,2.51538e-14,9.99999e-01,9.99999e-01,9.99678e-01,2.51619e-14,9.99999e-01
4.715633337e-01,4.66951e-14,9.99999e-01,9.99999e-01,9.99789e-01,4.67049e-14,9.99999e-01
4.739211504e-01,8.56226e-14,9.99999e-01,9.99999e-01,9.99798e-01,8.56398e-14,9.99999e-01
4.762907561e-01,1.55147e-13,9.99999e-01,9.99999e-01,9.99895e-01,1.55163e-13,9.99999e-01
4.786722099e-01,2.77832e-13,9.99999e-01,9.99999e-01,9.99956e-01,2.77844e-13,9.99999e-01
4.810655710e-01,4.91827e-13,9.99999e-01,9.99999e-01,9.99986e-01,4.91833e-13,9.99999e-01
4.834708988e-01,8.60758e-13,9.99999e-01,9.99999e-01,9.99876e-01,8.60864e-13,9.99999e-01
4.858882533e-01,1.48988e-12,9.99999e-01,9.99999e-01,9.99772e-01,1.49022e-12,9.99999e-01
4.883176946e-01,2.55138e-12,9.99999e-01,9.99999e-01,9.99809e-01,2.55186e-12,9.99999e-01
4.907592831e-01,4.32291e-12,9.99999e-01,9.99999e-01,9.99827e-01,4.32365e-12,9.99999e-01
4.932130795e-01,7.24882e-12,9.99999e-01,9.99999e-01,9.99877e-01,7.24971e-12,9.99999e-01
4.956791449e-01,1.20317e-11,9.99999e-01,9.99999e-01,9.99935e-01,1.20325e-11,9.99999e-01
4.981575406e-01,1.97654e-11,9.99999e-01,9.99999e-01,9.99676e-01,1.97718e-11,9.99999e-01
5.006483283e-01,3.21448e-11,9.99999e-01,9.99999e-01,9.99163e-01,3.21719e-11,9.99993e-01
5.031515699e-01,5.16261e-11,9.99999e-01,9.99999e-01,9.95768e-01,5.18477e-11,9.99955e-01
5.056673278e-01,8.25839e-11,9.99999e-01,9.99999e-01,9.97764e-01,8.27731e-11,9.99948e-01
5.081956644e-01,1.30556e-10,9.99999e-01,9.99999e-01,9.97179e-01,1.30929e-10,9.99966e-01
5.107366428e-01,2.04842e-10,9.99999e-01,9.99999e-01,9.98095e-01,2.05234e-10,9.99993e-01
5.132903260e-01,3.18517e-10,9.99999e-01,9.99999e-01,9.98911e-01,3.18864e-10,9.99998e-01
5.158567776e-01,4.90889e-10,9.99999e-01,9.99999e-01,9.99539e-01,4.91115e-10,9.99999e-01
5.184360615e-01,7.49852e-10,9.99999e-01,9.99999e-01,9.99815e-01,7.49990e-10,9.99999e-01
5.210282418e-01,1.13571e-09,9.99999e-01,9.99999e-01,9.99930e-01,1.13578e-09,9.99999e-01
5.236333830e-01,1.70551e-09,9.99999e-01,9.99999e-01,9.99723e-01,1.70599e-09,9.99997e-01
5.262515499e-01,2.54150e-09,9.99999e-01,9.99999e-01,9.99826e-01,2.54194e-09,9.99996e-01
5.288828077e-01,3.75721e-09,9.99999e-01,9.99999e-01,9.99840e-01,3.75781e-09,9.99997e-01
5.315272217e-01,5.51176e-09,9.99999e-01,9.99999e-01,9.99860e-01,5.51253e-09,9.99999e-01
5.341848578e-01,8.02491e-09,9.99999e-01,9.99999e-01,9.99908e-01,8.02565e-09,9.99999e-01
5.368557821e-01,1.15944e-08,9.99999e-01,9.99999e-01,9.99677e-01,1.15981e-08,9.99998e-01
5.395400610e-01,1.66198e-08,9.99999e-01,9.99999e-01,9.98838e-01,1.66393e-08,9.99989e-01
5.422377613e-01,2.36659e-08,9.99999e-01,9.99999e-01,9.98499e-01,2.37021e-08,9.99972e-01
5.449489501e-01,3.34799e-08,9.99999e-01,9.99999e-01,9.98604e-01,3.35277e-08,9.99971e-01
5.476736949e-01,4.70438e-08,9.99999e-01,9.99999e-01,9.98764e-01,4.71026e-08,9.99985e-01
5.504120634e-01,6.56719e-08,9.99999e-01,9.99999e-01,9.99102e-01,6.57311e-08,9.99995e-01
5.531641237e-01,9.10838e-08,9.99999e-01,9.99999e-01,9.99548e-01,9.11250e-08,9.99998e-01
5.559299443e-01,1.25490e-07,9.99999e-01,9.99999e-01,9.99781e-01,1.25517e-07,9.99999e-01
5.587095940e-01,1.71775e-07,9.99999e-01,9.99999e-01,9.99863e-01,1.71799e-07,9.99999e-01
5.615031420e-01,2.33657e-07,9.99999e-01,9.99999e-01,9.99847e-01,2.33693e-07,9.99999e-01
5.643106577e-01,3.15904e-07,9.99999e-01,9.99999e-01,9.99827e-01,3.15959e-07,9.99998e-01
5.671322110e-01,4.23750e-07,9.99999e-01,9.99999e-01,9.97904e-01,4.24648e-07,9.99980e-01
5.699678720e-01,5.66107e-07,9.99999e-01,9.99999e-01,9.97772e-01,5.67402e-07,9.99942e-01
5.728177114e-01,7.52035e-07,9.99999e-01,9.99999e-01,9.97679e-01,7.53819e-07,9.99952e-01
5.756818000e-01,9.93729e-07,9.99999e-01,9.99999e-01,9.97870e-01,9.95879e-07,9.99970e-01
5.785602090e-01,1.30601e-06,9.99999e-01,9.99999e-01,9.98143e-01,1.30845e-06,9.99990e-01
5.814530100e-01,1.70668e-06,9.99999e-01,9.99999e-01,9.98135e-01,1.70988e-06,9.99995e-01
5.843602750e-01,2.21772e-06,9.99999e-01,9.99999e-01,9.97777e-01,2.22269e-06,9.99987e-01
5.872820764e-01,2.81951e-06,9.99999e-01,9.99999e-01,9.81047e-01,2.87436e-06,9.99864e-01
5.902184868e-01,3.61199e-06,9.99999e-01,9.99999e-01,9.77026e-01,3.69828e-06,9.99632e-01
5.931695792e-01,4.65612e-06,9.99999e-01,9.99999e-01,9.83744e-01,4.73472e-06,9.99646e-01
5.961354271e-01,5.92341e-06,9.99999e-01,9.99999e-01,9.82174e-01,6.03213e-06,9.99796e-01
5.991161043e-01,7.54819e-06,9.99999e-01,9.99999e-01,9.86961e-01,7.64838e-06,9.99936e-01
6.021116848e-01,9.58065e-06,9.99999e-01,9.99999e-01,9.92581e-01,9.65232e-06,9.99992e-01
6.051222432e-01,1.20798e-05,9.99999e-01,9.99999e-01,9.96239e-01,1.21254e-05,9.99999e-01
6.081478544e-01,1.51391e-05,9.99999e-01,9.99999e-01,9.98376e-01,1.51638e-05,9.99999e-01
6.111885937e-01,1.88669e-05,9.99999e-01,9.99999e-01,9.99312e-01,1.88798e-05,9.99999e-01
6.142445367e-01,2.33978e-05,9.99999e-01,9.99999e-01,9.99692e-01,2.34050e-05,9.99999e-01
6.173157594e-01,2.88870e-05,9.99999e-01,9.99999e-01,9.99830e-01,2.88919e-05,9.99999e-01
6.204023382e-01,3.55120e-05,9.99999e-01,9.99999e-01,9.99856e-01,3.55171e-05,9.99999e-01
6.235043498e-01,4.34562e-05,9.99999e-01,9.99999e-01,9.99368e-01,4.34837e-05,9.99997e-01
6.266218716e-01,5.28469e-05,9.99999e-01,9.99999e-01,9.96663e-01,5.30250e-05,9.99976e-01
6.297549810e-01,6.43251e-05,9.99999e-01,9.99999e-01,9.98775e-01,6.44070e-05,9.99952e-01
6.329037559e-01,7.77407e-05,9.99999e-01,9.99999e-01,9.97580e-01,7.79322e-05,9.99961e-01
6.360682746e-01,9.37476e-05,9.99999e-01,9.99999e-01,9.97938e-01,9.39432e-05,9.99977e-01
6.392486160e-01,1.12524e-04,9.99999e-01,9.99999e-01,9.97329e-01,1.12827e-04,9.99989e-01
6.424448591e-01,1.34532e-04,9.99999e-01,9.99999e-01,9.96427e-01,1.35016e-04,9.99983e-01
6.456570834e-01,1.58332e-04,9.99999e-01,9.99999e-01,9.83530e-01,1.60998e-04,9.99907e-01
6.488853688e-01,1.88955e-04,9.99999e-01,9.99999e-01,9.87926e-01,1.91313e-04,9.99742e-01
6.521297956e-01,2.23730e-04,9.99999e-01,9.99999e-01,9.87702e-01,2.26564e-04,9.99787e-01
6.553904446e-01,2.64092e-04,9.99999e-01,9.99999e-01,9.87733e-01,2.67414e-04,9.99841e-01
6.586673968e-01,3.11276e-04,9.99999e-01,9.99999e-01,9.89493e-01,3.14598e-04,9.99946e-01
6.619607338e-01,3.66751e-04,9.99999e-01,9.99999e-01,9.94128e-01,3.68921e-04,9.99988e-01
6.652705375e-01,4.29742e-04,9.99999e-01,9.99999e-01,9.96471e-01,4.31266e-04,9.99993e-01
6.685968902e-01,5.01770e-04,9.99999e-01,9.99999e-01,9.98359e-01,5.02594e-04,9.99998e-01
6.719398746e-01,5.83508e-04,9.99999e-01,9.99999e-01,9.99239e-01,5.83951e-04,9.99999e-01
6.752995740e-01,6.76192e-04,9.99999e-01,9.99999e-01,9.99587e-01,6.76470e-04,9.99999e-01
6.786760719e-01,7.80909e-04,9.99999e-01,9.99999e-01,9.99404e-01,7.81374e-04,9.99998e-01
6.820694522e-01,8.99059e-04,9.99999e-01,9.99999e-01,9.98981e-01,8.99980e-04,9.99994e-01
6.854797995e-01,1.03233e-03,9.99999e-01,9.99999e-01,9.98686e-01,1.03370e-03,9.99988e-01
6.889071985e-01,1.18025e-03,9.99999e-01,9.99999e-01,9.96822e-01,1.18404e-03,9.99971e-01
6.923517345e-01,1.28398e-03,9.99999e-01,9.99999e-01,9.49488e-01,1.35262e-03,9.99750e-01
6.958134932e-01,1.49942e-03,9.99999e-01,9.99999e-01,9.73461e-01,1.54114e-03,9.99448e-01
6.992925606e-01,1.70621e-03,9.99999e-01,9.99999e-01,9.74670e-01,1.75142e-03,9.99503e-01
7.027890234e-01,1.92272e-03,9.99999e-01,9.99999e-01,9.68817e-01,1.98536e-03,9.99620e-01
7.063029686e-01,2.18551e-03,9.99999e-01,9.99999e-01,9.73688e-01,2.24499e-03,9.99810e-01
7.098344834e-01,2.46814e-03,9.99999e-01,9.99999e-01,9.74731e-01,2.53241e-03,9.99887e-01
7.133836558e-01,2.75397e-03,9.99999e-01,9.99999e-01,9.66572e-01,2.84984e-03,9.99777e-01
7.169505741e-01,2.44595e-03,9.99999e-01,9.99999e-01,7.65792e-01,3.19959e-03,9.98255e-01
7.205353270e-01,3.13222e-03,9.99999e-01,9.99999e-01,8.76626e-01,3.58405e-03,9.96924e-01
7.241380036e-01,3.37751e-03,9.99999e-01,9.99999e-01,8.45414e-01,4.00573e-03,9.97343e-01
7.277586936e-01,3.83110e-03,9.99999e-01,9.99999e-01,8.59473e-01,4.46719e-03,9.97828e-01
7.313974871e-01,4.22306e-03,9.99999e-01,9.99999e-01,8.50388e-01,4.97110e-03,9.98982e-01
7.350544745e-01,5.04902e-03,9.99999e-01,9.99999e-01,9.14971e-01,5.52018e-03,9.99645e-01
7.387297469e-01,5.72786e-03,9.99999e-01,9.99999e-01,9.36500e-01,6.11723e-03,9.99837e-01
7.424233956e-01,6.55091e-03,9.99999e-01,9.99999e-01,9.68365e-01,6.76513e-03,9.99968e-01
7.461355126e-01,7.32263e-03,9.99999e-01,9.99999e-01,9.80699e-01,7.46678e-03,9.99993e-01
7.498661902e-01,8.15085e-03,9.99999e-01,9.99999e-01,9.90967e-01,8.22516e-03,9.99997e-01
7.536155211e-01,9.00310e-03,9.99999e-01,9.99999e-01,9.95558e-01,9.04327e-03,9.99998e-01
7.573835987e-01,9.90143e-03,9.99999e-01,9.99999e-01,9.97711e-01,9.92414e-03,9.99999e-01
7.611705167e-01,1.08554e-02,9.99999e-01,9.99999e-01,9.98577e-01,1.08708e-02,9.99999e-01
7.649763693e-01,1.18758e-02,9.99999e-01,9.99999e-01,9.99108e-01,1.18864e-02,9.99999e-01
7.688012511e-01,1.29660e-02,9.99999e-01,9.99999e-01,9.99378e-01,1.29740e-02,9.99999e-01
7.726452574e-01,1.41294e-02,9.99999e-01,9.99999e-01,9.99488e-01,1.41366e-02,9.99999e-01
7.765084837e-01,1.53662e-02,9.99999e-01,9.99999e-01,9.99273e-01,1.53773e-02,9.99998e-01
7.803910261e-01,1.44683e-02,9.99999e-01,8.68815e-01,9.96864e-01,1.66992e-02,9.99996e-01
7.842929812e-01,8.35510e-03,9.99999e-01,4.65657e-01,9.89101e-01,1.81051e-02,9.99979e-01
7.882144461e-01,8.67385e-03,9.99999e-01,4.51235e-01,9.77669e-01,1.95981e-02,9.99861e-01
7.921555184e-01,1.25513e-02,9.99999e-01,5.99325e-01,9.87702e-01,2.11810e-02,9.99732e-01
7.961162960e-01,1.57584e-02,9.99999e-01,7.04146e-01,9.78368e-01,2.28567e-02,9.99743e-01
8.000968774e-01,1.98447e-02,9.99999e-01,8.26338e-01,9.75015e-01,2.46279e-02,9.99727e-01
8.040973618e-01,2.33967e-02,9.99999e-01,9.05558e-01,9.75021e-01,2.64972e-02,9.99783e-01
8.081178486e-01,2.57015e-02,9.99999e-01,9.55372e-01,9.44797e-01,2.84673e-02,9.99796e-01
8.121584379e-01,2.38352e-02,9.99999e-01,9.86005e-01,7.91568e-01,3.05405e-02,9.99203e-01
8.162192301e-01,2.46778e-02,9.99999e-01,9.96891e-01,7.58623e-01,3.27193e-02,9.97007e-01
8.203003262e-01,3.05228e-02,9.99999e-01,9.99953e-01,8.75022e-01,3.50058e-02,9.96497e-01
8.244018279e-01,3.10504e-02,9.99999e-01,9.99999e-01,8.32496e-01,3.74022e-02,9.97211e-01
8.285238370e-01,3.37167e-02,9.99999e-01,9.99999e-01,8.46665e-01,3.99104e-02,9.97809e-01
8.326664562e-01,3.59321e-02,9.99999e-01,9.99999e-01,8.45586e-01,4.25322e-02,9.99093e-01
8.368297885e-01,4.01040e-02,9.99999e-01,9.99999e-01,8.86081e-01,4.52693e-02,9.99792e-01
8.410139374e-01,4.47731e-02,9.99999e-01,9.99999e-01,9.30495e-01,4.81233e-02,9.99878e-01
8.452190071e-01,4.93154e-02,9.99999e-01,9.99999e-01,9.65232e-01,5.10954e-02,9.99927e-01
8.494451021e-01,5.30817e-02,9.99999e-01,9.99999e-01,9.79660e-01,5.41869e-02,9.99941e-01
8.536923276e-01,5.67038e-02,9.99999e-01,9.99999e-01,9.87925e-01,5.73989e-02,9.99964e-01
8.579607893e-01,6.02789e-02,9.99999e-01,9.99999e-01,9.92546e-01,6.07320e-02,9.99991e-01
8.622505932e-01,6.38828e-02,9.99999e-01,9.99999e-01,9.95259e-01,6.41872e-02,9.99998e-01
8.665618462e-01,5.64044e-02,9.99999e-01,8.34612e-01,9.97064e-01,6.77648e-02,9.99998e-01
8.708946554e-01,1.14580e-02,9.99999e-01,1.60800e-01,9.96639e-01,7.14652e-02,9.99997e-01
8.752491287e-01,1.54255e-02,9.99999e-01,2.05717e-01,9.95506e-01,7.52886e-02,9.99994e-01
8.796253743e-01,3.20844e-02,9.99999e-01,4.07150e-01,9.93782e-01,7.92349e-02,9.99985e-01
8.840235012e-01,5.10677e-02,9.99999e-01,6.17099e-01,9.92902e-01,8.33040e-02,9.99956e-01
8.884436187e-01,7.03802e-02,9.99999e-01,8.24419e-01,9.74532e-01,8.74954e-02,9.99876e-01
8.928858368e-01,6.52059e-02,9.99999e-01,9.24328e-01,7.66074e-01,9.18087e-02,9.99288e-01
8.973502660e-01,5.90726e-02,9.99999e-01,9.81058e-01,6.26687e-01,9.62430e-02,9.96361e-01
9.018370173e-01,7.88207e-02,9.99999e-01,9.97894e-01,7.87871e-01,1.00798e-01,9.94285e-01
9.063462024e-01,8.13053e-02,9.99999e-01,9.49288e-01,8.09407e-01,1.05471e-01,9.94977e-01
9.108779334e-01,7.02596e-02,9.99999e-01,8.83702e-01,7.19584e-01,1.10263e-01,9.94782e-01
9.154323231e-01,7.66858e-02,9.99999e-01,9.71361e-01,6.86336e-01,1.15171e-01,9.95685e-01
9.200094847e-01,6.84601e-02,9.99999e-01,7.24981e-01,7.46077e-01,1.20195e-01,9.97582e-01
9.246095321e-01,4.61580e-02,9.99999e-01,5.50153e-01,6.48068e-01,1.25331e-01,9.97215e-01
9.292325798e-01,7.47608e-03,9.99999e-01,6.35957e-01,8.04941e-02,1.30580e-01,9.89184e-01
9.338787427e-01,3.17451e-03,9.99999e-01,6.39268e-01,3.41253e-02,1.35937e-01,9.56039e-01
9.385481364e-01,2.56868e-02,9.99999e-01,7.16052e-01,2.51655e-01,1.41403e-01,9.47936e-01
9.432408771e-01,1.92485e-02,9.99999e-01,8.13114e-01,1.62588e-01,1.46973e-01,9.54919e-01
9.479570815e-01,1.01977e-02,9.99999e-01,8.99066e-01,7.56994e-02,1.52647e-01,9.63154e-01
9.526968669e-01,1.98110e-02,9.99999e-01,9.50090e-01,1.32973e-01,1.58421e-01,9.77361e-01
9.574603512e-01,2.30870e-02,9.99999e-01,9.78298e-01,1.44517e-01,1.64292e-01,9.88435e-01
9.622476530e-01,3.33775e-02,9.99999e-01,9.93176e-01,1.98640e-01,1.70259e-01,9.91989e-01
9.670588912e-01,6.78379e-02,9.99999e-01,9.97950e-01,3.87478e-01,1.76319e-01,9.94514e-01
9.718941857e-01,9.74635e-02,9.99999e-01,9.99855e-01,5.36361e-01,1.82468e-01,9.95958e-01
9.767536566e-01,1.11994e-01,9.99999e-01,9.99999e-01,5.95331e-01,1.88703e-01,9.96910e-01
9.816374249e-01,1.32134e-01,9.99999e-01,9.99999e-01,6.78256e-01,1.95022e-01,9.98929e-01
9.865456120e-01,1.57766e-01,9.99999e-01,9.99999e-01,7.83435e-01,2.01422e-01,9.99776e-01
9.914783401e-01,1.78651e-01,9.99999e-01,9.99999e-01,8.59370e-01,2.07899e-01,9.99937e-01
9.964357318e-01,1.97446e-01,9.99999e-01,9.99999e-01,9.20739e-01,2.14450e-01,9.99963e-01
1.001417910e+00,2.10374e-01,9.99999e-01,9.99999e-01,9.51657e-01,2.21072e-01,9.99944e-01
1.006425000e+00,2.21397e-01,9.99999e-01,9.99999e-01,9.72130e-01,2.27762e-01,9.99920e-01
1.011457125e+00,2.30422e-01,9.99999e-01,9.99999e-01,9.82614e-01,2.34516e-01,9.99926e-01
1.016514411e+00,2.38462e-01,9.99999e-01,9.99999e-01,9.88162e-01,2.41331e-01,9.99948e-01
1.021596983e+00,2.45777e-01,9.99999e-01,9.99713e-01,9.90556e-01,2.48204e-01,9.99947e-01
1.026704968e+00,2.48020e-01,9.99999e-01,9.79334e-01,9.92627e-01,2.55131e-01,9.99964e-01
1.031838492e+00,2.25020e-01,9.99999e-01,8.62803e-01,9.94637e-01,2.62108e-01,9.99989e-01
1.036997685e+00,6.36057e-03,9.99999e-01,2.36900e-02,9.96811e-01,2.69133e-01,9.99998e-01
1.042182673e+00,5.12398e-05,9.99999e-01,1.86019e-04,9.96198e-01,2.76202e-01,9.99998e-01
1.047393587e+00,1.44643e-04,9.99999e-01,5.12602e-04,9.94961e-01,2.83311e-01,9.99998e-01
1.052630555e+00,6.17542e-11,9.99999e-01,2.13513e-10,9.93092e-01,2.90458e-01,9.99997e-01
1.057893707e+00,2.31044e-10,9.99999e-01,7.80391e-10,9.88495e-01,2.97638e-01,9.99995e-01
1.063183176e+00,9.30893e-08,9.99999e-01,3.08399e-07,9.81147e-01,3.04848e-01,9.99989e-01
1.068499092e+00,2.52842e-06,9.99999e-01,8.23585e-06,9.68647e-01,3.12086e-01,9.99978e-01
1.073841587e+00,1.34997e-04,9.99999e-01,4.32688e-04,9.63480e-01,3.19348e-01,9.99952e-01
1.079210795e+00,2.59523e-03,9.99999e-01,8.21851e-03,9.53386e-01,3.26630e-01,9.99872e-01
1.084606849e+00,1.92392e-02,9.99999e-01,6.11077e-02,9.30409e-01,3.33929e-01,9.99693e-01
1.090029883e+00,7.13082e-02,9.99999e-01,2.28731e-01,9.01935e-01,3.41243e-01,9.99364e-01
1.095480033e+00,1.28295e-01,9.99999e-01,4.80341e-01,7.55315e-01,3.48567e-01,9.98851e-01
1.100957433e+00,1.26011e-01,9.99999e-01,6.99577e-01,4.97536e-01,3.55900e-01,9.97887e-01
1.106462220e+00,6.05925e-02,9.99999e-01,8.62170e-01,1.90011e-01,3.63237e-01,9.96419e-01
1.111994531e+00,1.20888e-02,9.99999e-01,9.46363e-01,3.43148e-02,3.70576e-01,9.90524e-01
1.117554504e+00,2.09523e-03,9.99999e-01,9.86634e-01,5.77290e-03,3.77914e-01,9.66211e-01
1.123142276e+00,1.12669e-02,9.99999e-01,9.99117e-01,3.17310e-02,3.85248e-01,9.21723e-01
1.128757988e+00,2.89084e-02,9.99999e-01,9.99999e-01,8.09192e-02,3.92576e-01,9.10014e-01
1.134401778e+00,1.39973e-02,9.99999e-01,9.99999e-01,3.79245e-02,3.99893e-01,9.22951e-01
1.140073787e+00,7.70126e-02,9.99999e-01,9.99999e-01,2.01640e-01,4.07199e-01,9.37946e-01
1.145774156e+00,1.98590e-02,9.99999e-01,9.99999e-01,5.08053e-02,4.14490e-01,9.43046e-01
1.151503026e+00,1.46475e-02,9.99999e-01,9.99999e-01,3.58824e-02,4.21764e-01,9.67860e-01
1.157260541e+00,1.95379e-02,9.99999e-01,9.99999e-01,4.59880e-02,4.29017e-01,9.90280e-01
1.163046844e+00,4.35556e-02,9.99999e-01,9.99999e-01,1.00118e-01,4.36249e-01,9.97235e-01
1.168862078e+00,8.31483e-02,9.99999e-01,9.99999e-01,1.87768e-01,4.43456e-01,9.98574e-01
1.174706389e+00,1.58924e-01,9.99999e-01,9.99999e-01,3.53333e-01,4.50636e-01,9.98111e-01
1.180579921e+00,2.40576e-01,9.99999e-01,9.99999e-01,5.27022e-01,4.57788e-01,9.97145e-01
1.186482820e+00,3.21125e-01,9.99999e-01,9.99960e-01,6.92776e-01,4.64908e-01,9.97069e-01
1.192415234e+00,3.55672e-01,9.99999e-01,9.32903e-01,8.06223e-01,4.71995e-01,9.97804e-01
1.198377311e+00,1.94655e-01,9.99999e-01,4.73211e-01,8.34123e-01,4.79046e-01,9.97926e-01
1.204369197e+00,8.31670e-53,9.99999e-01,1.89360e-52,8.43157e-01,4.86061e-01,9.98123e-01
1.210391043e+00,2.52452e-219,9.99999e-01,5.61720e-219,8.48945e-01,4.93037e-01,9.98858e-01
1.216442998e+00,1.52997e-189,9.99999e-01,3.33951e-189,8.69969e-01,4.99972e-01,9.99300e-01
1.222525213e+00,1.16875e-186,9.99999e-01,2.44008e-186,8.96896e-01,5.06865e-01,9.99565e-01
1.228637839e+00,1.32828e-143,9.99999e-01,2.72102e-143,9.27162e-01,5.13714e-01,9.99797e-01
