#,Wave/freq,Total,N2,CO2,H2O,Rayleigh,CIA
4.000000000e-01,3.47138e-11,9.99999e-01,9.99999e-01,9.99953e-01,3.47154e-11,9.99999e-01
4.020000000e-01,5.58889e-11,9.99999e-01,9.99999e-01,9.99970e-01,5.58905e-11,9.99999e-01
4.040100000e-01,8.90939e-11,9.99999e-01,9.99999e-01,9.99987e-01,8.90950e-11,9.99999e-01
4.060300500e-01,1.40724e-10,9.99999e-01,9.99999e-01,9.99996e-01,1.40724e-10,9.99999e-01
4.080602003e-01,2.20274e-10,9.99999e-01,9.99999e-01,9.99998e-01,2.20274e-10,9.99999e-01
4.101005013e-01,3.41754e-10,9.99999e-01,9.99999e-01,9.99999e-01,3.41754e-10,9.99999e-01
4.121510038e-01,5.25648e-10,9.99999e-01,9.99999e-01,9.99997e-01,5.25649e-10,9.99999e-01
4.142117588e-01,8.01641e-10,9.99999e-01,9.99999e-01,9.99986e-01,8.01651e-10,9.99999e-01
4.162828176e-01,1.21235e-09,9.99999e-01,9.99999e-01,9.99942e-01,1.21242e-09,9.99999e-01
4.183642317e-01,1.81869e-09,9.99999e-01,9.99999e-01,9.99965e-01,1.81875e-09,9.99999e-01
4.204560528e-01,2.70649e-09,9.99999e-01,9.99999e-01,9.99978e-01,2.70654e-09,9.99999e-01
4.225583331e-01,3.99616e-09,9.99999e-01,9.99999e-01,9.99991e-01,3.99619e-09,9.99999e-01
4.246711247e-01,5.85506e-09,9.99999e-01,9.99999e-01,9.99993e-01,5.85510e-09,9.99999e-01
4.267944804e-01,8.51416e-09,9.99999e-01,9.99999e-01,9.99990e-01,8.51424e-09,9.99999e-01
4.289284528e-01,1.22897e-08,9.99999e-01,9.99999e-01,9.99992e-01,1.22898e-08,9.99999e-01
4.310730950e-01,1.76115e-08,9.99999e-01,9.99999e-01,9.99996e-01,1.76115e-08,9.99999e-01
4.332284605e-01,2.50588e-08,9.99999e-01,9.99999e-01,9.99998e-01,2.50589e-08,9.99999e-01
4.353946028e-01,3.54079e-08,9.99999e-01,9.99999e-01,9.99999e-01,3.54079e-08,9.99999e-01
4.375715758e-01,4.96903e-08,9.99999e-01,9.99999e-01,9.99993e-01,4.96906e-08,9.99999e-01
4.397594337e-01,6.92659e-08,9.99999e-01,9.99999e-01,9.99949e-01,6.92693e-08,9.99999e-01
4.419582309e-01,9.59064e-08,9.99999e-01,9.99999e-01,9.99745e-01,9.59308e-08,9.99999e-01
4.441680220e-01,1.31976e-07,9.99999e-01,9.99999e-01,9.99799e-01,1.32002e-07,9.99999e-01
4.463888621e-01,1.80458e-07,9.99999e-01,9.99999e-01,9.99791e-01,1.80496e-07,9.99999e-01
4.486208064e-01,2.45252e-07,9.99999e-01,9.99999e-01,9.99870e-01,2.45284e-07,9.99999e-01
4.508639105e-01,3.31294e-07,9.99999e-01,9.99999e-01,9.99938e-01,3.31314e-07,9.99999e-01
4.531182300e-01,4.44857e-07,9.99999e-01,9.99999e-01,9.99975e-01,4.44867e-07,9.99999e-01
4.553838212e-01,5.93864e-07,9.99999e-01,9.99999e-01,9.99983e-01,5.93873e-07,9.99999e-01
4.576607403e-01,7.88271e-07,9.99999e-01,9.99999e-01,9.99992e-01,7.88277e-07,9.99999e-01
4.599490440e-01,1.04048e-06,9.99999e-01,9.99999e-01,9.99994e-01,1.04048e-06,9.99999e-01
4.622487892e-01,1.36587e-06,9.99999e-01,9.99999e-01,9.99998e-01,1.36587e-06,9.99999e-01
4.645600332e-01,1.78340e-06,9.99999e-01,9.99999e-01,9.99995e-01,1.78340e-06,9.99999e-01
4.668828333e-01,2.31619e-06,9.99999e-01,9.99999e-01,9.99938e-01,2.31633e-06,9.99999e-01
4.692172475e-01,2.99263e-06,9.99999e-01,9.99999e-01,9.99869e-01,2.99302e-06,9.99999e-01
4.715633337e-01,3.84755e-06,9.99999e-01,9.99999e-01,9.99914e-01,3.84787e-06,9.99999e-01
4.739211504e-01,4.92199e-06,9.99999e-01,9.99999e-01,9.99917e-01,4.92239e-06,9.99999e-01
4.762907561e-01,6.26614e-06,9.99999e-01,9.99999e-01,9.99957e-01,6.26641e-06,9.99999e-01
4.786722099e-01,7.93931e-06,9.99999e-01,9.99999e-01,9.99982e-01,7.93945e-06,9.99999e-01
4.810655710e-01,1.00122e-05,9.99999e-01,9.99999e-01,9.99994e-01,1.00123e-05,9.99999e-01
4.834708988e-01,1.25679e-05,9.99999e-01,9.99999e-01,9.99950e-01,1.25685e-05,9.99999e-01
4.858882533e-01,1.57053e-05,9.99999e-01,9.99999e-01,9.99907e-01,1.57067e-05,9.99999e-01
4.883176946e-01,1.95407e-05,9.99999e-01,9.99999e-01,9.99922e-01,1.95423e-05,9.99999e-01
4.907592831e-01,2.42080e-05,9.99999e-01,9.99999e-01,9.99929e-01,2.42097e-05,9.99999e-01
4.932130795e-01,2.98638e-05,9.99999e-01,9.99999e-01,9.99949e-01,2.98653e-05,9.99999e-01
4.956791449e-01,3.66887e-05,9.99999e-01,9.99999e-01,9.99973e-01,3.66897e-05,9.99999e-01
4.981575406e-01,4.48847e-05,9.99999e-01,9.99999e-01,9.99868e-01,4.48906e-05,9.99999e-01
5.006483283e-01,5.46875e-05,9.99999e-01,9.99999e-01,9.99661e-01,5.47061e-05,9.99997e-01
5.031515699e-01,6.62926e-05,9.99999e-01,9.99999e-01,9.98279e-01,6.64080e-05,9.99981e-01
5.056673278e-01,8.02301e-05,9.99999e-01,9.99999e-01,9.99090e-01,8.03048e-05,9.99978e-01
5.081956644e-01,9.66337e-05,9.99999e-01,9.99999e-01,9.98852e-01,9.67460e-05,9.99986e-01
5.107366428e-01,1.16035e-04,9.99999e-01,9.99999e-01,9.99224e-01,1.16125e-04,9.99997e-01
5.132903260e-01,1.38823e-04,9.99999e-01,9.99999e-01,9.99556e-01,1.38885e-04,9.99999e-01
5.158567776e-01,1.65487e-04,9.99999e-01,9.99999e-01,9.99812e-01,1.65518e-04,9.99999e-01
5.184360615e-01,1.96563e-04,9.99999e-01,9.99999e-01,9.99924e-01,1.96577e-04,9.99999e-01
5.210282418e-01,2.32666e-04,9.99999e-01,9.99999e-01,9.99971e-01,2.32673e-04,9.99999e-01
5.236333830e-01,2.74449e-04,9.99999e-01,9.99999e-01,9.99887e-01,2.74480e-04,9.99998e-01
5.262515499e-01,3.22722e-04,9.99999e-01,9.99999e-01,9.99929e-01,3.22745e-04,9.99998e-01
5.288828077e-01,3.78260e-04,9.99999e-01,9.99999e-01,9.99935e-01,3.78284e-04,9.99998e-01
5.315272217e-01,4.41967e-04,9.99999e-01,9.99999e-01,9.99942e-01,4.41992e-04,9.99999e-01
5.341848578e-01,5.14825e-04,9.99999e-01,9.99999e-01,9.99962e-01,5.14844e-04,9.99999e-01
5.368557821e-01,5.97822e-04,9.99999e-01,9.99999e-01,9.99869e-01,5.97900e-04,9.99999e-01
5.395400610e-01,6.91979e-04,9.99999e-01,9.99999e-01,9.99530e-01,6.92306e-04,9.99995e-01
5.422377613e-01,7.98804e-04,9.99999e-01,9.99999e-01,9.99389e-01,7.99300e-04,9.99988e-01
5.449489501e-01,9.19684e-04,9.99999e-01,9.99999e-01,9.99433e-01,9.20215e-04,9.99988e-01
5.476736949e-01,1.05594e-03,9.99999e-01,9.99999e-01,9.99496e-01,1.05648e-03,9.99993e-01
5.504120634e-01,1.20917e-03,9.99999e-01,9.99999e-01,9.99634e-01,1.20961e-03,9.99997e-01
5.531641237e-01,1.38099e-03,9.99999e-01,9.99999e-01,9.99815e-01,1.38125e-03,9.99999e-01
5.559299443e-01,1.57297e-03,9.99999e-01,9.99999e-01,9.99910e-01,1.57311e-03,9.99999e-01
5.587095940e-01,1.78692e-03,9.99999e-01,9.99999e-01,9.99944e-01,1.78702e-03,9.99999e-01
5.615031420e-01,2.02479e-03,9.99999e-01,9.99999e-01,9.99937e-01,2.02491e-03,9.99999e-01
5.643106577e-01,2.28866e-03,9.99999e-01,9.99999e-01,9.99930e-01,2.28882e-03,9.99998e-01
5.671322110e-01,2.57867e-03,9.99999e-01,9.99999e-01,9.99155e-01,2.58087e-03,9.99991e-01
5.699678720e-01,2.90058e-03,9.99999e-01,9.99999e-01,9.99089e-01,2.90328e-03,9.99976e-01
5.728177114e-01,3.25526e-03,9.99999e-01,9.99999e-01,9.99057e-01,3.25839e-03,9.99980e-01
5.756818000e-01,3.64541e-03,9.99999e-01,9.99999e-01,9.99134e-01,3.64861e-03,9.99987e-01
5.785602090e-01,4.07336e-03,9.99999e-01,9.99999e-01,9.99244e-01,4.07645e-03,9.99995e-01
5.814530100e-01,4.54104e-03,9.99999e-01,9.99999e-01,9.99241e-01,4.54449e-03,9.99997e-01
5.843602750e-01,5.05083e-03,9.99999e-01,9.99999e-01,9.99100e-01,5.05540e-03,9.99994e-01
5.872820764e-01,5.56821e-03,9.99999e-01,9.99999e-01,9.92265e-01,5.61192e-03,9.99944e-01
5.902184868e-01,6.15744e-03,9.99999e-01,9.99999e-01,9.90586e-01,6.21688e-03,9.99850e-01
5.931695792e-01,6.82649e-03,9.99999e-01,9.99999e-01,9.93355e-01,6.87313e-03,9.99856e-01
5.961354271e-01,7.52770e-03,9.99999e-01,9.99999e-01,9.92707e-01,7.58362e-03,9.99917e-01
5.991161043e-01,8.30661e-03,9.99999e-01,9.99999e-01,9.94673e-01,8.35130e-03,9.99974e-01
6.021116848e-01,9.15138e-03,9.99999e-01,9.99999e-01,9.96972e-01,9.17919e-03,9.99996e-01
6.051222432e-01,1.00549e-02,9.99999e-01,9.99999e-01,9.98467e-01,1.00703e-02,9.99999e-01
6.081478544e-01,1.10205e-02,9.99999e-01,9.99999e-01,9.99338e-01,1.10278e-02,9.99999e-01
6.111885937e-01,1.20513e-02,9.99999e-01,9.99999e-01,9.99719e-01,1.20547e-02,9.99999e-01
6.142445367e-01,1.31523e-02,9.99999e-01,9.99999e-01,9.99874e-01,1.31540e-02,9.99999e-01
6.173157594e-01,1.43278e-02,9.99999e-01,9.99999e-01,9.99930e-01,1.43288e-02,9.99999e-01
6.204023382e-01,1.55813e-02,9.99999e-01,9.99999e-01,9.99941e-01,1.55822e-02,9.99999e-01
6.235043498e-01,1.69129e-02,9.99999e-01,9.99999e-01,9.99745e-01,1.69172e-02,9.99998e-01
6.266218716e-01,1.83118e-02,9.99999e-01,9.99999e-01,9.98643e-01,1.83368e-02,9.99989e-01
6.297549810e-01,1.98337e-02,9.99999e-01,9.99999e-01,9.99502e-01,1.98439e-02,9.99980e-01
6.329037559e-01,2.14200e-02,9.99999e-01,9.99999e-01,9.99014e-01,2.14414e-02,9.99984e-01
6.360682746e-01,2.31126e-02,9.99999e-01,9.99999e-01,9.99162e-01,2.31321e-02,9.99990e-01
6.392486160e-01,2.48916e-02,9.99999e-01,9.99999e-01,9.98914e-01,2.49188e-02,9.99995e-01
6.424448591e-01,2.67650e-02,9.99999e-01,9.99999e-01,9.98553e-01,2.68040e-02,9.99993e-01
6.456570834e-01,2.85962e-02,9.99999e-01,9.99999e-01,9.93296e-01,2.87903e-02,9.99962e-01
6.488853688e-01,3.07245e-02,9.99999e-01,9.99999e-01,9.95062e-01,3.08802e-02,9.99894e-01
6.521297956e-01,3.29066e-02,9.99999e-01,9.99999e-01,9.94967e-01,3.30760e-02,9.99911e-01
6.553904446e-01,3.52014e-02,9.99999e-01,9.99999e-01,9.95022e-01,3.53798e-02,9.99933e-01
6.586673968e-01,3.76309e-02,9.99999e-01,9.99999e-01,9.95707e-01,3.77939e-02,9.99978e-01
6.619607338e-01,4.02197e-02,9.99999e-01,9.99999e-01,9.97516e-01,4.03200e-02,9.99994e-01
6.652705375e-01,4.28982e-02,9.99999e-01,9.99999e-01,9.98560e-01,4.29601e-02,9.99997e-01
6.685968902e-01,4.56851e-02,9.99999e-01,9.99999e-01,9.99330e-01,4.57157e-02,9.99999e-01
6.719398746e-01,4.85733e-02,9.99999e-01,9.99999e-01,9.99689e-01,4.85884e-02,9.99999e-01
6.752995740e-01,5.15708e-02,9.99999e-01,9.99999e-01,9.99831e-01,5.15795e-02,9.99999e-01
6.786760719e-01,5.46769e-02,9.99999e-01,9.99999e-01,9.99758e-01,5.46901e-02,9.99999e-01
6.820694522e-01,5.78972e-02,9.99999e-01,9.99999e-01,9.99586e-01,5.79213e-02,9.99997e-01
6.854797995e-01,6.12409e-02,9.99999e-01,9.99999e-01,9.99466e-01,6.12738e-02,9.99994e-01
6.889071985e-01,6.46647e-02,9.99999e-01,9.99999e-01,9.98718e-01,6.47484e-02,9.99987e-01
6.923517345e-01,6.69144e-02,9.99999e-01,9.99999e-01,9.79157e-01,6.83456e-02,9.99898e-01
6.958134932e-01,7.12572e-02,9.99999e-01,9.99999e-01,9.89007e-01,7.20656e-02,9.99771e-01
6.992925606e-01,7.51075e-02,9.99999e-01,9.99999e-01,9.89645e-01,7.59085e-02,9.99798e-01
7.027890234e-01,7.88382e-02,9.99999e-01,9.99999e-01,9.87179e-01,7.98744e-02,9.99845e-01
7.063029686e-01,8.30510e-02,9.99999e-01,9.99999e-01,9.89213e-01,8.39629e-02,9.99922e-01
7.098344834e-01,8.72571e-02,9.99999e-01,9.99999e-01,9.89647e-01,8.81738e-02,9.99954e-01
7.133836558e-01,9.12326e-02,9.99999e-01,9.99999e-01,9.86318e-01,9.25064e-02,9.99909e-01
7.169505741e-01,8.67481e-02,9.99999e-01,9.99999e-01,8.95314e-01,9.69600e-02,9.99290e-01
7.205353270e-01,9.60109e-02,9.99999e-01,9.99999e-01,9.46790e-01,1.01534e-01,9.98749e-01
7.241380036e-01,9.90349e-02,9.99999e-01,9.99999e-01,9.33309e-01,1.06226e-01,9.98919e-01
7.277586936e-01,1.04238e-01,9.99999e-01,9.99999e-01,9.39602e-01,1.11037e-01,9.99116e-01
7.313974871e-01,1.08451e-01,9.99999e-01,9.99999e-01,9.35606e-01,1.15963e-01,9.99585e-01
7.350544745e-01,1.16669e-01,9.99999e-01,9.99999e-01,9.64306e-01,1.21005e-01,9.99855e-01
7.387297469e-01,1.22819e-01,9.99999e-01,9.99999e-01,9.73583e-01,1.26159e-01,9.99933e-01
7.424233956e-01,1.29711e-01,9.99999e-01,9.99999e-01,9.86972e-01,1.31425e-01,9.99986e-01
7.461355126e-01,1.35718e-01,9.99999e-01,9.99999e-01,9.92091e-01,1.36800e-01,9.99997e-01
7.498661902e-01,1.41757e-01,9.99999e-01,9.99999e-01,9.96306e-01,1.42282e-01,9.99998e-01
7.536155211e-01,1.47602e-01,9.99999e-01,9.99999e-01,9.98189e-01,1.47869e-01,9.99999e-01
7.573835987e-01,1.53416e-01,9.99999e-01,9.99999e-01,9.99067e-01,1.53559e-01,9.99999e-01
7.611705167e-01,1.59256e-01,9.99999e-01,9.99999e-01,9.99420e-01,1.59349e-01,9.99999e-01
7.649763693e-01,1.65176e-01,9.99999e-01,9.99999e-01,9.99636e-01,1.65236e-01,9.99999e-01
7.688012511e-01,1.71174e-01,9.99999e-01,9.99999e-01,9.99747e-01,1.71218e-01,9.99999e-01
7.726452574e-01,1.77255e-01,9.99999e-01,9.99999e-01,9.99791e-01,1.77291e-01,9.99999e-01
7.765084837e-01,1.83400e-01,9.99999e-01,9.99999e-01,9.99705e-01,1.83454e-01,9.99999e-01
7.803910261e-01,1.76830e-01,9.99999e-01,9.33251e-01,9.98730e-01,1.89703e-01,9.99998e-01
7.842929812e-01,1.39837e-01,9.99999e-01,7.16193e-01,9.95573e-01,1.96036e-01,9.99991e-01
7.882144461e-01,1.40993e-01,9.99999e-01,7.02390e-01,9.90860e-01,2.02448e-01,9.99943e-01
7.921555184e-01,1.68009e-01,9.99999e-01,8.08064e-01,9.94967e-01,2.08937e-01,9.99891e-01
7.961162960e-01,1.84936e-01,9.99999e-01,8.65749e-01,9.91168e-01,2.15500e-01,9.99895e-01
8.000968774e-01,2.03322e-01,9.99999e-01,9.24817e-01,9.89772e-01,2.22133e-01,9.99888e-01
8.040973618e-01,2.17471e-01,9.99999e-01,9.60203e-01,9.89778e-01,2.28833e-01,9.99911e-01
8.081178486e-01,2.25976e-01,9.99999e-01,9.81558e-01,9.77192e-01,2.35597e-01,9.99917e-01
8.121584379e-01,2.18914e-01,9.99999e-01,9.94245e-01,9.08433e-01,2.42421e-01,9.99675e-01
8.162192301e-01,2.21799e-01,9.99999e-01,9.98726e-01,8.91851e-01,2.49303e-01,9.98783e-01
8.203003262e-01,2.41928e-01,9.99999e-01,9.99979e-01,9.45516e-01,2.56238e-01,9.98575e-01
8.244018279e-01,2.42979e-01,9.99999e-01,9.99999e-01,9.24138e-01,2.63223e-01,9.98865e-01
8.285238370e-01,2.52205e-01,9.99999e-01,9.99999e-01,9.34043e-01,2.70255e-01,9.99109e-01
8.326664562e-01,2.58730e-01,9.99999e-01,9.99999e-01,9.33272e-01,2.77331e-01,9.99631e-01
8.368297885e-01,2.70692e-01,9.99999e-01,9.99999e-01,9.51727e-01,2.84446e-01,9.99915e-01
8.410139374e-01,2.83133e-01,9.99999e-01,9.99999e-01,9.71015e-01,2.91598e-01,9.99950e-01
8.452190071e-01,2.94494e-01,9.99999e-01,9.99999e-01,9.85671e-01,2.98784e-01,9.99970e-01
8.494451021e-01,3.03445e-01,9.99999e-01,9.99999e-01,9.91677e-01,3.05999e-01,9.99975e-01
8.536923276e-01,3.11689e-01,9.99999e-01,9.99999e-01,9.95062e-01,3.13241e-01,9.99983e-01
8.579607893e-01,3.19531e-01,9.99999e-01,9.99999e-01,9.96961e-01,3.20506e-01,9.99995e-01
8.622505932e-01,3.27157e-01,9.99999e-01,9.99999e-01,9.98066e-01,3.27791e-01,9.99998e-01
8.665618462e-01,2.96971e-01,9.99999e-01,8.87233e-01,9.98805e-01,3.35093e-01,9.99999e-01
8.708946554e-01,1.49637e-01,9.99999e-01,4.37571e-01,9.98634e-01,3.42408e-01,9.99998e-01
8.752491287e-01,1.76487e-01,9.99999e-01,5.05502e-01,9.98172e-01,3.49734e-01,9.99997e-01
8.796253743e-01,2.43172e-01,9.99999e-01,6.82647e-01,9.97473e-01,3.57067e-01,9.99993e-01
8.840235012e-01,2.97440e-01,9.99999e-01,8.18532e-01,9.97113e-01,3.64405e-01,9.99981e-01
8.884436187e-01,3.39867e-01,9.99999e-01,9.23688e-01,9.89608e-01,3.71744e-01,9.99949e-01
8.928858368e-01,3.28880e-01,9.99999e-01,9.68348e-01,8.95630e-01,3.79082e-01,9.99710e-01
8.973502660e-01,3.14975e-01,9.99999e-01,9.92195e-01,8.22459e-01,3.86415e-01,9.98519e-01
9.018370173e-01,3.55123e-01,9.99999e-01,9.99136e-01,9.04751e-01,3.93741e-01,9.97673e-01
9.063462024e-01,3.59371e-01,9.99999e-01,9.78623e-01,9.16133e-01,4.01057e-01,9.97956e-01
9.108779334e-01,3.38268e-01,9.99999e-01,9.50606e-01,8.72069e-01,4.08361e-01,9.97876e-01
9.154323231e-01,3.50994e-01,9.99999e-01,9.88127e-01,8.55617e-01,4.15649e-01,9.98244e-01
9.200094847e-01,3.23431e-01,9.99999e-01,8.53996e-01,8.85097e-01,4.22920e-01,9.99016e-01
9.246095321e-01,2.81208e-01,9.99999e-01,7.81257e-01,8.30729e-01,4.30170e-01,9.98867e-01
9.292325798e-01,1.11876e-01,9.99999e-01,8.26642e-01,3.00253e-01,4.37398e-01,9.95591e-01
9.338787427e-01,7.91100e-02,9.99999e-01,8.30079e-01,2.11216e-01,4.44601e-01,9.81900e-01
9.385481364e-01,2.07893e-01,9.99999e-01,8.71493e-01,5.31501e-01,4.51777e-01,9.78511e-01
9.432408771e-01,1.78129e-01,9.99999e-01,9.18869e-01,4.26719e-01,4.58923e-01,9.81433e-01
9.479570815e-01,1.37003e-01,9.99999e-01,9.57549e-01,3.10409e-01,4.66038e-01,9.84862e-01
9.526968669e-01,1.87025e-01,9.99999e-01,9.79297e-01,4.06106e-01,4.73119e-01,9.90739e-01
9.574603512e-01,2.02174e-01,9.99999e-01,9.91087e-01,4.26337e-01,4.80165e-01,9.95285e-01
9.622476530e-01,2.39897e-01,9.99999e-01,9.97210e-01,4.95247e-01,4.87174e-01,9.96737e-01
9.670588912e-01,3.27889e-01,9.99999e-01,9.99162e-01,6.65531e-01,4.94144e-01,9.97767e-01
9.718941857e-01,3.86369e-01,9.99999e-01,9.99939e-01,7.72393e-01,5.01072e-01,9.98355e-01
9.767536566e-01,4.09353e-01,9.99999e-01,9.99999e-01,8.06892e-01,5.07958e-01,9.98743e-01
9.816374249e-01,4.38652e-01,9.99999e-01,9.99999e-01,8.52451e-01,5.14800e-01,9.99564e-01
9.865456120e-01,4.71955e-01,9.99999e-01,9.99999e-01,9.04909e-01,5.21596e-01,9.99908e-01
9.914783401e-01,4.96663e-01,9.99999e-01,9.99999e-01,9.40057e-01,5.28345e-01,9.99974e-01
9.964357318e-01,5.17325e-01,9.99999e-01,9.99999e-01,9.66893e-01,5.35046e-01,9.99984e-01
1.001417910e+00,5.30861e-01,9.99999e-01,9.99999e-01,9.80018e-01,5.41696e-01,9.99977e-01
1.006425000e+00,5.42012e-01,9.99999e-01,9.99999e-01,9.88571e-01,5.48296e-01,9.99967e-01
1.011457125e+00,5.50878e-01,9.99999e-01,9.99999e-01,9.92883e-01,5.54843e-01,9.99969e-01
1.016514411e+00,5.58612e-01,9.99999e-01,9.99999e-01,9.95166e-01,5.61336e-01,9.99978e-01
1.021596983e+00,5.65515e-01,9.99999e-01,9.99889e-01,9.96148e-01,5.67775e-01,9.99978e-01
1.026704968e+00,5.67602e-01,9.99999e-01,9.91563e-01,9.96995e-01,5.74159e-01,9.99985e-01
1.031838492e+00,5.35796e-01,9.99999e-01,9.24946e-01,9.97813e-01,5.80486e-01,9.99995e-01
1.036997685e+00,4.19083e-02,9.99999e-01,7.14943e-02,9.98702e-01,5.86756e-01,9.99998e-01
1.042182673e+00,7.29822e-03,9.99999e-01,1.23232e-02,9.98455e-01,5.92968e-01,9.99999e-01
1.047393587e+00,1.52308e-02,9.99999e-01,2.54662e-02,9.97950e-01,5.99121e-01,9.99999e-01
1.052630555e+00,1.33074e-05,9.99999e-01,2.20285e-05,9.97190e-01,6.05214e-01,9.99998e-01
1.057893707e+00,4.75280e-05,9.99999e-01,7.79587e-05,9.95316e-01,6.11247e-01,9.99997e-01
1.063183176e+00,5.35899e-04,9.99999e-01,8.72369e-04,9.92299e-01,6.17219e-01,9.99995e-01
1.068499092e+00,3.49353e-03,9.99999e-01,5.65918e-03,9.87129e-01,6.23130e-01,9.99990e-01
1.073841587e+00,2.26925e-02,9.99999e-01,3.64967e-02,9.84974e-01,6.28979e-01,9.99980e-01
1.079210795e+00,7.73354e-02,9.99999e-01,1.23811e-01,9.80747e-01,6.34766e-01,9.99947e-01
1.084606849e+00,1.92758e-01,9.99999e-01,3.09107e-01,9.71032e-01,6.40491e-01,9.99875e-01
1.090029883e+00,3.36364e-01,9.99999e-01,5.41718e-01,9.58796e-01,6.46152e-01,9.99741e-01
1.095480033e+00,4.30199e-01,9.99999e-01,7.38599e-01,8.91628e-01,6.51750e-01,9.99533e-01
1.100957433e+00,4.26013e-01,9.99999e-01,8.63766e-01,7.48479e-01,6.57284e-01,9.99141e-01
1.106462220e+00,3.04734e-01,9.99999e-01,9.41143e-01,4.87087e-01,6.62755e-01,9.98543e-01
1.111994531e+00,1.47169e-01,9.99999e-01,9.77751e-01,2.25435e-01,6.68162e-01,9.96139e-01
1.117554504e+00,6.24592e-02,9.99999e-01,9.94511e-01,9.43867e-02,6.73505e-01,9.86132e-01
1.123142276e+00,1.25538e-01,9.99999e-01,9.99637e-01,1.91187e-01,6.78784e-01,9.67426e-01
1.128757988e+00,2.15636e-01,9.99999e-01,9.99999e-01,3.27570e-01,6.83999e-01,9.62414e-01
1.134401778e+00,9.96715e-02,9.99999e-01,9.99999e-01,1.49418e-01,6.89149e-01,9.67949e-01
1.140073787e+00,3.40473e-01,9.99999e-01,9.99999e-01,5.03360e-01,6.94236e-01,9.74308e-01
1.145774156e+00,1.72449e-01,9.99999e-01,9.99999e-01,2.52563e-01,6.99258e-01,9.76457e-01
1.151503026e+00,1.52377e-01,9.99999e-01,9.99999e-01,2.19269e-01,7.04217e-01,9.86815e-01
1.157260541e+00,1.87021e-01,9.99999e-01,9.99999e-01,2.64788e-01,7.09112e-01,9.96039e-01
1.163046844e+00,2.64863e-01,9.99999e-01,9.99999e-01,3.71404e-01,7.13943e-01,9.98875e-01
1.168862078e+00,3.56221e-01,9.99999e-01,9.99999e-01,4.95925e-01,7.18710e-01,9.99420e-01
1.174706389e+00,4.68614e-01,9.99999e-01,9.99999e-01,6.48278e-01,7.23414e-01,9.99231e-01
1.180579921e+00,5.57956e-01,9.99999e-01,9.99999e-01,7.67254e-01,7.28056e-01,9.98838e-01
1.186482820e+00,6.29669e-01,9.99999e-01,9.99986e-01,8.60493e-01,7.32634e-01,9.98808e-01
1.192415234e+00,6.55435e-01,9.99999e-01,9.70860e-01,9.15967e-01,7.37150e-01,9.99107e-01
1.198377311e+00,3.72317e-01,9.99999e-01,5.34396e-01,9.28769e-01,7.41604e-01,9.99156e-01
1.204369197e+00,8.65166e-23,9.99999e-01,1.20851e-22,9.32549e-01,7.45996e-01,9.99236e-01
1.210391043e+00,1.96606e-90,9.99999e-01,2.72074e-90,9.35326e-01,7.50327e-01,9.99535e-01
1.216442998e+00,2.46056e-78,9.99999e-01,3.37859e-78,9.44659e-01,7.54596e-01,9.99715e-01
1.222525213e+00,3.65602e-77,9.99999e-01,4.93018e-77,9.56627e-01,7.58804e-01,9.99823e-01
1.228637839e+00,1.26228e-59,9.99999e-01,1.68935e-59,9.69685e-01,7.62953e-01,9.99917e-01
