#,Wave/freq,Total,N2,CO2,H2O,Rayleigh,CIA
4.000000000e-01,2.34091e-03,9.99999e-01,9.99999e-01,9.99987e-01,2.34093e-03,9.99999e-01
4.020000000e-01,2.63877e-03,9.99999e-01,9.99999e-01,9.99992e-01,2.63879e-03,9.99999e-01
4.040100000e-01,2.96713e-03,9.99999e-01,9.99999e-01,9.99996e-01,2.96714e-03,9.99999e-01
4.060300500e-01,3.32863e-03,9.99999e-01,9.99999e-01,9.99998e-01,3.32863e-03,9.99999e-01
4.080602003e-01,3.72569e-03,9.99999e-01,9.99999e-01,9.99999e-01,3.72570e-03,9.99999e-01
4.101005013e-01,4.16085e-03,9.99999e-01,9.99999e-01,9.99999e-01,4.16085e-03,9.99999e-01
4.121510038e-01,4.63670e-03,9.99999e-01,9.99999e-01,9.99999e-01,4.63670e-03,9.99999e-01
4.142117588e-01,5.15592e-03,9.99999e-01,9.99999e-01,9.99996e-01,5.15593e-03,9.99999e-01
4.162828176e-01,5.72122e-03,9.99999e-01,9.99999e-01,9.99985e-01,5.72130e-03,9.99999e-01
4.183642317e-01,6.33558e-03,9.99999e-01,9.99999e-01,9.99990e-01,6.33563e-03,9.99999e-01
4.204560528e-01,7.00177e-03,9.99999e-01,9.99999e-01,9.99994e-01,7.00180e-03,9.99999e-01
4.225583331e-01,7.72274e-03,9.99999e-01,9.99999e-01,9.99997e-01,7.72276e-03,9.99999e-01
4.246711247e-01,8.50146e-03,9.99999e-01,9.99999e-01,9.99997e-01,8.50147e-03,9.99999e-01
4.267944804e-01,9.34094e-03,9.99999e-01,9.99999e-01,9.99997e-01,9.34096e-03,9.99999e-01
4.289284528e-01,1.02443e-02,9.99999e-01,9.99999e-01,9.99997e-01,1.02443e-02,9.99999e-01
4.310730950e-01,1.12145e-02,9.99999e-01,9.99999e-01,9.99998e-01,1.12145e-02,9.99999e-01
4.332284605e-01,1.22547e-02,9.99999e-01,9.99999e-01,9.99999e-01,1.22547e-02,9.99999e-01
4.353946028e-01,1.33679e-02,9.99999e-01,9.99999e-01,9.99999e-01,1.33679e-02,9.99999e-01
4.375715758e-01,1.45571e-02,9.99999e-01,9.99999e-01,9.99998e-01,1.45572e-02,9.99999e-01
4.397594337e-01,1.58254e-02,9.99999e-01,9.99999e-01,9.99987e-01,1.58256e-02,9.99999e-01
4.419582309e-01,1.71751e-02,9.99999e-01,9.99999e-01,9.99936e-01,1.71762e-02,9.99999e-01
4.441680220e-01,1.86110e-02,9.99999e-01,9.99999e-01,9.99948e-01,1.86120e-02,9.99999e-01
4.463888621e-01,2.01347e-02,9.99999e-01,9.99999e-01,9.99947e-01,2.01358e-02,9.99999e-01
4.486208064e-01,2.17498e-02,9.99999e-01,9.99999e-01,9.99966e-01,2.17505e-02,9.99999e-01
4.508639105e-01,2.34586e-02,9.99999e-01,9.99999e-01,9.99984e-01,2.34589e-02,9.99999e-01
4.531182300e-01,2.52636e-02,9.99999e-01,9.99999e-01,9.99993e-01,2.52638e-02,9.99999e-01
4.553838212e-01,2.71676e-02,9.99999e-01,9.99999e-01,9.99995e-01,2.71677e-02,9.99999e-01
4.576607403e-01,2.91732e-02,9.99999e-01,9.99999e-01,9.99997e-01,2.91732e-02,9.99999e-01
4.599490440e-01,3.12827e-02,9.99999e-01,9.99999e-01,9.99998e-01,3.12827e-02,9.99999e-01
4.622487892e-01,3.34986e-02,9.99999e-01,9.99999e-01,9.99999e-01,3.34986e-02,9.99999e-01
4.645600332e-01,3.58229e-02,9.99999e-01,9.99999e-01,9.99998e-01,3.58229e-02,9.99999e-01
4.668828333e-01,3.82572e-02,9.99999e-01,9.99999e-01,9.99984e-01,3.82578e-02,9.99999e-01
4.692172475e-01,4.08037e-02,9.99999e-01,9.99999e-01,9.99966e-01,4.08051e-02,9.99999e-01
4.715633337e-01,4.34657e-02,9.99999e-01,9.99999e-01,9.99978e-01,4.34666e-02,9.99999e-01
4.739211504e-01,4.62431e-02,9.99999e-01,9.99999e-01,9.99978e-01,4.62441e-02,9.99999e-01
4.762907561e-01,4.91382e-02,9.99999e-01,9.99999e-01,9.99988e-01,4.91388e-02,9.99999e-01
4.786722099e-01,5.21519e-02,9.99999e-01,9.99999e-01,9.99995e-01,5.21521e-02,9.99999e-01
4.810655710e-01,5.52851e-02,9.99999e-01,9.99999e-01,9.99998e-01,5.52852e-02,9.99999e-01
4.834708988e-01,5.85383e-02,9.99999e-01,9.99999e-01,9.99987e-01,5.85390e-02,9.99999e-01
4.858882533e-01,6.19129e-02,9.99999e-01,9.99999e-01,9.99976e-01,6.19144e-02,9.99999e-01
4.883176946e-01,6.54106e-02,9.99999e-01,9.99999e-01,9.99980e-01,6.54119e-02,9.99999e-01
4.907592831e-01,6.90308e-02,9.99999e-01,9.99999e-01,9.99981e-01,6.90320e-02,9.99999e-01
4.932130795e-01,7.27741e-02,9.99999e-01,9.99999e-01,9.99987e-01,7.27750e-02,9.99999e-01
4.956791449e-01,7.66404e-02,9.99999e-01,9.99999e-01,9.99992e-01,7.66409e-02,9.99999e-01
4.981575406e-01,8.06271e-02,9.99999e-01,9.99999e-01,9.99966e-01,8.06298e-02,9.99999e-01
5.006483283e-01,8.47340e-02,9.99999e-01,9.99999e-01,9.99915e-01,8.47412e-02,9.99998e-01
5.031515699e-01,8.89360e-02,9.99999e-01,9.99999e-01,9.99567e-01,8.89749e-02,9.99994e-01
5.056673278e-01,9.33083e-02,9.99999e-01,9.99999e-01,9.99770e-01,9.33302e-02,9.99994e-01
5.081956644e-01,9.77777e-02,9.99999e-01,9.99999e-01,9.99710e-01,9.78063e-02,9.99996e-01
5.107366428e-01,1.02382e-01,9.99999e-01,9.99999e-01,9.99804e-01,1.02402e-01,9.99998e-01
5.132903260e-01,1.07105e-01,9.99999e-01,9.99999e-01,9.99887e-01,1.07117e-01,9.99999e-01
5.158567776e-01,1.11944e-01,9.99999e-01,9.99999e-01,9.99952e-01,1.11949e-01,9.99999e-01
5.184360615e-01,1.16895e-01,9.99999e-01,9.99999e-01,9.99980e-01,1.16897e-01,9.99999e-01
5.210282418e-01,1.21959e-01,9.99999e-01,9.99999e-01,9.99992e-01,1.21960e-01,9.99999e-01
5.236333830e-01,1.27132e-01,9.99999e-01,9.99999e-01,9.99971e-01,1.27136e-01,9.99999e-01
5.262515499e-01,1.32420e-01,9.99999e-01,9.99999e-01,9.99981e-01,1.32422e-01,9.99999e-01
5.288828077e-01,1.37815e-01,9.99999e-01,9.99999e-01,9.99983e-01,1.37817e-01,9.99999e-01
5.315272217e-01,1.43317e-01,9.99999e-01,9.99999e-01,9.99985e-01,1.43319e-01,9.99999e-01
5.341848578e-01,1.48924e-01,9.99999e-01,9.99999e-01,9.99990e-01,1.48926e-01,9.99999e-01
5.368557821e-01,1.54629e-01,9.99999e-01,9.99999e-01,9.99966e-01,1.54634e-01,9.99999e-01
5.395400610e-01,1.60423e-01,9.99999e-01,9.99999e-01,9.99882e-01,1.60442e-01,9.99998e-01
5.422377613e-01,1.66321e-01,9.99999e-01,9.99999e-01,9.99845e-01,1.66347e-01,9.99996e-01
5.449489501e-01,1.72322e-01,9.99999e-01,9.99999e-01,9.99857e-01,1.72347e-01,9.99996e-01
5.476736949e-01,1.78414e-01,9.99999e-01,9.99999e-01,9.99872e-01,1.78437e-01,9.99998e-01
5.504120634e-01,1.84600e-01,9.99999e-01,9.99999e-01,9.99907e-01,1.84617e-01,9.99999e-01
5.531641237e-01,1.90873e-01,9.99999e-01,9.99999e-01,9.99953e-01,1.90881e-01,9.99999e-01
5.559299443e-01,1.97224e-01,9.99999e-01,9.99999e-01,9.99977e-01,1.97229e-01,9.99999e-01
5.587095940e-01,2.03653e-01,9.99999e-01,9.99999e-01,9.99985e-01,2.03656e-01,9.99999e-01
5.615031420e-01,2.10156e-01,9.99999e-01,9.99999e-01,9.99983e-01,2.10159e-01,9.99999e-01
5.643106577e-01,2.16731e-01,9.99999e-01,9.99999e-01,9.99982e-01,2.16735e-01,9.99999e-01
5.671322110e-01,2.23334e-01,9.99999e-01,9.99999e-01,9.99789e-01,2.23381e-01,9.99997e-01
5.699678720e-01,2.30039e-01,9.99999e-01,9.99999e-01,9.99769e-01,2.30093e-01,9.99993e-01
5.728177114e-01,2.36812e-01,9.99999e-01,9.99999e-01,9.99762e-01,2.36869e-01,9.99994e-01
5.756818000e-01,2.43650e-01,9.99999e-01,9.99999e-01,9.99781e-01,2.43704e-01,9.99996e-01
5.785602090e-01,2.50548e-01,9.99999e-01,9.99999e-01,9.99809e-01,2.50596e-01,9.99998e-01
5.814530100e-01,2.57491e-01,9.99999e-01,9.99999e-01,9.99808e-01,2.57541e-01,9.99999e-01
5.843602750e-01,2.64475e-01,9.99999e-01,9.99999e-01,9.99774e-01,2.64535e-01,9.99998e-01
5.872820764e-01,2.71043e-01,9.99999e-01,9.99999e-01,9.98054e-01,2.71575e-01,9.99985e-01
5.902184868e-01,2.77985e-01,9.99999e-01,9.99999e-01,9.97619e-01,2.78658e-01,9.99962e-01
5.931695792e-01,2.85292e-01,9.99999e-01,9.99999e-01,9.98323e-01,2.85781e-01,9.99963e-01
5.961354271e-01,2.92394e-01,9.99999e-01,9.99999e-01,9.98158e-01,2.92940e-01,9.99977e-01
5.991161043e-01,2.99725e-01,9.99999e-01,9.99999e-01,9.98655e-01,3.00131e-01,9.99993e-01
6.021116848e-01,3.07116e-01,9.99999e-01,9.99999e-01,9.99235e-01,3.07351e-01,9.99998e-01
6.051222432e-01,3.14476e-01,9.99999e-01,9.99999e-01,9.99612e-01,3.14598e-01,9.99999e-01
6.081478544e-01,3.21813e-01,9.99999e-01,9.99999e-01,9.99832e-01,3.21867e-01,9.99999e-01
6.111885937e-01,3.29132e-01,9.99999e-01,9.99999e-01,9.99928e-01,3.29155e-01,9.99999e-01
6.142445367e-01,3.36449e-01,9.99999e-01,9.99999e-01,9.99968e-01,3.36460e-01,9.99999e-01
6.173157594e-01,3.43772e-01,9.99999e-01,9.99999e-01,9.99982e-01,3.43777e-01,9.99999e-01
6.204023382e-01,3.51100e-01,9.99999e-01,9.99999e-01,9.99984e-01,3.51105e-01,9.99999e-01
6.235043498e-01,3.58417e-01,9.99999e-01,9.99999e-01,9.99936e-01,3.58439e-01,9.99999e-01
6.266218716e-01,3.65652e-01,9.99999e-01,9.99999e-01,9.99658e-01,3.65778e-01,9.99997e-01
6.297549810e-01,3.73068e-01,9.99999e-01,9.99999e-01,9.99874e-01,3.73117e-01,9.99994e-01
6.329037559e-01,3.80358e-01,9.99999e-01,9.99999e-01,9.99751e-01,3.80454e-01,9.99995e-01
6.360682746e-01,3.87703e-01,9.99999e-01,9.99999e-01,9.99789e-01,3.87786e-01,9.99997e-01
6.392486160e-01,3.95002e-01,9.99999e-01,9.99999e-01,9.99726e-01,3.95110e-01,9.99998e-01
6.424448591e-01,4.02292e-01,9.99999e-01,9.99999e-01,9.99672e-01,4.02424e-01,9.99997e-01
6.456570834e-01,4.09037e-01,9.99999e-01,9.99999e-01,9.98330e-01,4.09725e-01,9.99990e-01
6.488853688e-01,4.16388e-01,9.99999e-01,9.99999e-01,9.98534e-01,4.17010e-01,9.99973e-01
6.521297956e-01,4.23729e-01,9.99999e-01,9.99999e-01,9.98729e-01,4.24277e-01,9.99977e-01
6.553904446e-01,4.30976e-01,9.99999e-01,9.99999e-01,9.98746e-01,4.31524e-01,9.99982e-01
6.586673968e-01,4.38269e-01,9.99999e-01,9.99999e-01,9.98915e-01,4.38747e-01,9.99994e-01
6.619607338e-01,4.45665e-01,9.99999e-01,9.99999e-01,9.99373e-01,4.45945e-01,9.99998e-01
6.652705375e-01,4.52950e-01,9.99999e-01,9.99999e-01,9.99635e-01,4.53115e-01,9.99998e-01
6.685968902e-01,4.60178e-01,9.99999e-01,9.99999e-01,9.99830e-01,4.60256e-01,9.99999e-01
6.719398746e-01,4.67328e-01,9.99999e-01,9.99999e-01,9.99921e-01,4.67365e-01,9.99999e-01
6.752995740e-01,4.74420e-01,9.99999e-01,9.99999e-01,9.99957e-01,4.74440e-01,9.99999e-01
6.786760719e-01,4.81450e-01,9.99999e-01,9.99999e-01,9.99939e-01,4.81479e-01,9.99999e-01
6.820694522e-01,4.88430e-01,9.99999e-01,9.99999e-01,9.99895e-01,4.88481e-01,9.99998e-01
6.854797995e-01,4.95376e-01,9.99999e-01,9.99999e-01,9.99865e-01,4.95443e-01,9.99998e-01
6.889071985e-01,5.02202e-01,9.99999e-01,9.99999e-01,9.99680e-01,5.02363e-01,9.99996e-01
6.923517345e-01,5.06543e-01,9.99999e-01,9.99999e-01,9.94727e-01,5.09241e-01,9.99974e-01
6.958134932e-01,5.14598e-01,9.99999e-01,9.99999e-01,9.97194e-01,5.16075e-01,9.99942e-01
6.992925606e-01,5.21473e-01,9.99999e-01,9.99999e-01,9.97392e-01,5.22862e-01,9.99949e-01
7.027890234e-01,5.27862e-01,9.99999e-01,9.99999e-01,9.96753e-01,5.29602e-01,9.99960e-01
7.063029686e-01,5.34821e-01,9.99999e-01,9.99999e-01,9.97273e-01,5.36293e-01,9.99980e-01
7.098344834e-01,5.41508e-01,9.99999e-01,9.99999e-01,9.97383e-01,5.42934e-01,9.99988e-01
7.133836558e-01,5.47623e-01,9.99999e-01,9.99999e-01,9.96562e-01,5.49524e-01,9.99976e-01
7.169505741e-01,5.40593e-01,9.99999e-01,9.99999e-01,9.72355e-01,5.56061e-01,9.99821e-01
7.205353270e-01,5.54559e-01,9.99999e-01,9.99999e-01,9.86114e-01,5.62545e-01,9.99684e-01
7.241380036e-01,5.58979e-01,9.99999e-01,9.99999e-01,9.82702e-01,5.68974e-01,9.99725e-01
7.277586936e-01,5.66221e-01,9.99999e-01,9.99999e-01,9.84361e-01,5.75347e-01,9.99772e-01
7.313974871e-01,5.71877e-01,9.99999e-01,9.99999e-01,9.83276e-01,5.81663e-01,9.99895e-01
7.350544745e-01,5.82527e-01,9.99999e-01,9.99999e-01,9.90858e-01,5.87922e-01,9.99963e-01
7.387297469e-01,5.90112e-01,9.99999e-01,9.99999e-01,9.93264e-01,5.94123e-01,9.99982e-01
7.424233956e-01,5.98278e-01,9.99999e-01,9.99999e-01,9.96691e-01,6.00265e-01,9.99996e-01
7.461355126e-01,6.05133e-01,9.99999e-01,9.99999e-01,9.97998e-01,6.06347e-01,9.99998e-01
7.498661902e-01,6.11796e-01,9.99999e-01,9.99999e-01,9.99065e-01,6.12369e-01,9.99999e-01
7.536155211e-01,6.18047e-01,9.99999e-01,9.99999e-01,9.99542e-01,6.18330e-01,9.99999e-01
7.573835987e-01,6.24082e-01,9.99999e-01,9.99999e-01,9.99764e-01,6.24229e-01,9.99999e-01
7.611705167e-01,6.29974e-01,9.99999e-01,9.99999e-01,9.99853e-01,6.30066e-01,9.99999e-01
7.649763693e-01,6.35784e-01,9.99999e-01,9.99999e-01,9.99908e-01,6.35842e-01,9.99999e-01
7.688012511e-01,6.41513e-01,9.99999e-01,9.99999e-01,9.99935e-01,6.41554e-01,9.99999e-01
7.726452574e-01,6.47170e-01,9.99999e-01,9.99999e-01,9.99947e-01,6.47204e-01,9.99999e-01
7.765084837e-01,6.52742e-01,9.99999e-01,9.99999e-01,9.99925e-01,6.52790e-01,9.99999e-01
7.803910261e-01,6.45363e-01,9.99999e-01,9.80635e-01,9.99681e-01,6.58312e-01,9.99999e-01
7.842929812e-01,6.06848e-01,9.99999e-01,9.15229e-01,9.98890e-01,6.63771e-01,9.99997e-01
7.882144461e-01,6.07489e-01,9.99999e-01,9.09892e-01,9.97691e-01,6.69166e-01,9.99985e-01
7.921555184e-01,6.38017e-01,9.99999e-01,9.47129e-01,9.98726e-01,6.74497e-01,9.99972e-01
7.961162960e-01,6.53883e-01,9.99999e-01,9.64081e-01,9.97777e-01,6.79764e-01,9.99973e-01
8.000968774e-01,6.69803e-01,9.99999e-01,9.80415e-01,9.97417e-01,6.84967e-01,9.99971e-01
8.040973618e-01,6.81268e-01,9.99999e-01,9.89765e-01,9.97420e-01,6.90105e-01,9.99977e-01
8.081178486e-01,6.87920e-01,9.99999e-01,9.95313e-01,9.94231e-01,6.95180e-01,9.99978e-01
8.121584379e-01,6.82370e-01,9.99999e-01,9.98536e-01,9.76048e-01,7.00190e-01,9.99918e-01
8.162192301e-01,6.84465e-01,9.99999e-01,9.99676e-01,9.71290e-01,7.05137e-01,9.99693e-01
8.203003262e-01,6.99691e-01,9.99999e-01,9.99994e-01,9.85810e-01,7.10020e-01,9.99641e-01
8.244018279e-01,7.00067e-01,9.99999e-01,9.99999e-01,9.79614e-01,7.14839e-01,9.99714e-01
8.285238370e-01,7.07145e-01,9.99999e-01,9.99999e-01,9.82918e-01,7.19595e-01,9.99775e-01
8.326664562e-01,7.11653e-01,9.99999e-01,9.99999e-01,9.82646e-01,7.24287e-01,9.99906e-01
8.368297885e-01,7.19843e-01,9.99999e-01,9.99999e-01,9.87572e-01,7.28917e-01,9.99978e-01
8.410139374e-01,7.28047e-01,9.99999e-01,9.99999e-01,9.92599e-01,7.33484e-01,9.99987e-01
8.452190071e-01,7.35298e-01,9.99999e-01,9.99999e-01,9.96362e-01,7.37988e-01,9.99992e-01
8.494451021e-01,7.40865e-01,9.99999e-01,9.99999e-01,9.97897e-01,7.42430e-01,9.99993e-01
8.536923276e-01,7.45876e-01,9.99999e-01,9.99999e-01,9.98751e-01,7.46811e-01,9.99995e-01
8.579607893e-01,7.50554e-01,9.99999e-01,9.99999e-01,9.99233e-01,7.51130e-01,9.99998e-01
8.622505932e-01,7.55019e-01,9.99999e-01,9.99999e-01,9.99511e-01,7.55388e-01,9.99999e-01
8.665618462e-01,7.21496e-01,9.99999e-01,9.50133e-01,9.99699e-01,7.59585e-01,9.99999e-01
8.708946554e-01,6.08703e-01,9.99999e-01,7.97289e-01,9.99656e-01,7.63722e-01,9.99999e-01
8.752491287e-01,6.40172e-01,9.99999e-01,8.34152e-01,9.99539e-01,7.67799e-01,9.99999e-01
8.796253743e-01,6.98728e-01,9.99999e-01,9.05869e-01,9.99365e-01,7.71817e-01,9.99998e-01
8.840235012e-01,7.36668e-01,9.99999e-01,9.50276e-01,9.99274e-01,7.75775e-01,9.99995e-01
8.884436187e-01,7.62128e-01,9.99999e-01,9.80034e-01,9.97404e-01,7.79676e-01,9.99986e-01
8.928858368e-01,7.55766e-01,9.99999e-01,9.91898e-01,9.72490e-01,7.83518e-01,9.99926e-01
8.973502660e-01,7.47190e-01,9.99999e-01,9.98012e-01,9.51272e-01,7.87303e-01,9.99627e-01
9.018370173e-01,7.70336e-01,9.99999e-01,9.99779e-01,9.74618e-01,7.91030e-01,9.99414e-01
9.063462024e-01,7.72701e-01,9.99999e-01,9.94561e-01,9.78037e-01,7.94702e-01,9.99485e-01
9.108779334e-01,7.60819e-01,9.99999e-01,9.87261e-01,9.65752e-01,7.98317e-01,9.99465e-01
9.154323231e-01,7.68061e-01,9.99999e-01,9.96964e-01,9.61132e-01,8.01877e-01,9.99557e-01
9.200094847e-01,7.47447e-01,9.99999e-01,9.56737e-01,9.69321e-01,8.05382e-01,9.99752e-01
9.246095321e-01,7.24278e-01,9.99999e-01,9.39157e-01,9.53100e-01,8.08832e-01,9.99714e-01
9.292325798e-01,5.58091e-01,9.99999e-01,9.52358e-01,7.19947e-01,8.12229e-01,9.98888e-01
9.338787427e-01,5.05387e-01,9.99999e-01,9.53520e-01,6.50712e-01,8.15572e-01,9.95416e-01
9.385481364e-01,6.62363e-01,9.99999e-01,9.65712e-01,8.41134e-01,8.18863e-01,9.94550e-01
9.432408771e-01,6.30079e-01,9.99999e-01,9.78812e-01,7.86137e-01,8.22102e-01,9.95297e-01
9.479570815e-01,5.82322e-01,9.99999e-01,9.89115e-01,7.15835e-01,8.25289e-01,9.96170e-01
9.526968669e-01,6.40062e-01,9.99999e-01,9.94726e-01,7.78300e-01,8.28425e-01,9.97662e-01
9.574603512e-01,6.60796e-01,9.99999e-01,9.97740e-01,7.97367e-01,8.31511e-01,9.98811e-01
9.622476530e-01,6.93137e-01,9.99999e-01,9.99293e-01,8.31804e-01,8.34547e-01,9.99178e-01
9.670588912e-01,7.52902e-01,9.99999e-01,9.99787e-01,8.99641e-01,8.37534e-01,9.99437e-01
9.718941857e-01,7.86685e-01,9.99999e-01,9.99984e-01,9.36404e-01,8.40472e-01,9.99585e-01
9.767536566e-01,7.98377e-01,9.99999e-01,9.99999e-01,9.46959e-01,8.43362e-01,9.99683e-01
9.816374249e-01,8.12566e-01,9.99999e-01,9.99999e-01,9.60352e-01,8.46205e-01,9.99890e-01
9.865456120e-01,8.27802e-01,9.99999e-01,9.99999e-01,9.75052e-01,8.49000e-01,9.99976e-01
9.914783401e-01,8.38566e-01,9.99999e-01,9.99999e-01,9.84526e-01,8.51750e-01,9.99993e-01
9.964357318e-01,8.47225e-01,9.99999e-01,9.99999e-01,9.91542e-01,8.54454e-01,9.99995e-01
1.001417910e+00,8.52757e-01,9.99999e-01,9.99999e-01,9.94922e-01,8.57113e-01,9.99993e-01
1.006425000e+00,8.57236e-01,9.99999e-01,9.99999e-01,9.97110e-01,8.59727e-01,9.99991e-01
1.011457125e+00,8.60739e-01,9.99999e-01,9.99999e-01,9.98200e-01,8.62298e-01,9.99992e-01
1.016514411e+00,8.63765e-01,9.99999e-01,9.99999e-01,9.98779e-01,8.64825e-01,9.99994e-01
1.021596983e+00,8.66440e-01,9.99999e-01,9.99973e-01,9.99028e-01,8.67309e-01,9.99994e-01
1.026704968e+00,8.67257e-01,9.99999e-01,9.97890e-01,9.99242e-01,8.69751e-01,9.99995e-01
1.031838492e+00,8.47756e-01,9.99999e-01,9.72553e-01,9.99448e-01,8.72152e-01,9.99998e-01
1.036997685e+00,2.19599e-01,9.99999e-01,2.51178e-01,9.99672e-01,8.74512e-01,9.99999e-01
1.042182673e+00,2.45937e-01,9.99999e-01,2.80585e-01,9.99611e-01,8.76831e-01,9.99999e-01
1.047393587e+00,2.41592e-01,9.99999e-01,2.74942e-01,9.99483e-01,8.79110e-01,9.99999e-01
1.052630555e+00,2.62060e-02,9.99999e-01,2.97503e-02,9.99293e-01,8.81351e-01,9.99999e-01
1.057893707e+00,5.19414e-02,9.99999e-01,5.88396e-02,9.98822e-01,8.83552e-01,9.99999e-01
1.063183176e+00,1.12938e-01,9.99999e-01,1.27706e-01,9.98059e-01,8.85715e-01,9.99998e-01
1.068499092e+00,2.22364e-01,9.99999e-01,2.51187e-01,9.96746e-01,8.87841e-01,9.99997e-01
1.073841587e+00,3.69872e-01,9.99999e-01,4.17042e-01,9.96200e-01,8.89930e-01,9.99994e-01
1.079210795e+00,5.11346e-01,9.99999e-01,5.75938e-01,9.95115e-01,8.91982e-01,9.99986e-01
1.084606849e+00,6.56137e-01,9.99999e-01,7.39256e-01,9.92625e-01,8.93998e-01,9.99968e-01
1.090029883e+00,7.58376e-01,9.99999e-01,8.55329e-01,9.89483e-01,8.95979e-01,9.99934e-01
1.095480033e+00,8.07723e-01,9.99999e-01,9.25841e-01,9.71533e-01,8.97925e-01,9.99882e-01
1.100957433e+00,8.05643e-01,9.99999e-01,9.63611e-01,9.29126e-01,8.99837e-01,9.99783e-01
1.106462220e+00,7.36177e-01,9.99999e-01,9.84775e-01,8.29076e-01,9.01715e-01,9.99633e-01
1.111994531e+00,6.02926e-01,9.99999e-01,9.94332e-01,6.71570e-01,9.03559e-01,9.99027e-01
1.117554504e+00,4.71480e-01,9.99999e-01,9.98606e-01,5.23234e-01,9.05371e-01,9.96493e-01
1.123142276e+00,5.54135e-01,9.99999e-01,9.99907e-01,6.15998e-01,9.07150e-01,9.91704e-01
1.128757988e+00,6.63242e-01,9.99999e-01,9.99999e-01,7.36785e-01,9.08898e-01,9.90410e-01
1.134401778e+00,4.40065e-01,9.99999e-01,9.99999e-01,4.87331e-01,9.10615e-01,9.91647e-01
1.140073787e+00,7.56658e-01,9.99999e-01,9.99999e-01,8.34988e-01,9.12300e-01,9.93301e-01
1.145774156e+00,6.20831e-01,9.99999e-01,9.99999e-01,6.83361e-01,9.13956e-01,9.94025e-01
1.151503026e+00,5.96261e-01,9.99999e-01,9.99999e-01,6.53414e-01,9.15582e-01,9.96667e-01
1.157260541e+00,6.45171e-01,9.99999e-01,9.99999e-01,7.04133e-01,9.17178e-01,9.99001e-01
1.163046844e+00,7.08667e-01,9.99999e-01,9.99999e-01,7.71559e-01,9.18746e-01,9.99716e-01
1.168862078e+00,7.69054e-01,9.99999e-01,9.99999e-01,8.35791e-01,9.20285e-01,9.99853e-01
1.174706389e+00,8.25101e-01,9.99999e-01,9.99999e-01,8.95274e-01,9.21796e-01,9.99806e-01
1.180579921e+00,8.62893e-01,9.99999e-01,9.99999e-01,9.34867e-01,9.23280e-01,9.99707e-01
1.186482820e+00,8.90015e-01,9.99999e-01,9.99996e-01,9.62742e-01,9.24737e-01,9.99699e-01
1.192415234e+00,8.98943e-01,9.99999e-01,9.92488e-01,9.78122e-01,9.26167e-01,9.99775e-01
1.198377311e+00,5.29402e-01,9.99999e-01,5.79854e-01,9.81565e-01,9.27571e-01,9.99787e-01
1.204369197e+00,2.04960e-07,9.99999e-01,2.22933e-07,9.82519e-01,9.28950e-01,9.99807e-01
1.210391043e+00,1.98987e-24,9.99999e-01,2.15929e-24,9.83278e-01,9.30303e-01,9.99882e-01
1.216442998e+00,2.20142e-21,9.99999e-01,2.38417e-21,9.85724e-01,9.31632e-01,9.99928e-01
1.222525213e+00,4.43065e-21,9.99999e-01,4.77690e-21,9.88884e-01,9.32936e-01,9.99955e-01
1.228637839e+00,2.94781e-16,9.99999e-01,3.17281e-16,9.92276e-01,9.34216e-01,9.99978e-01
