#,Wave/freq,Total,N2,CO2,H2O,Rayleigh,CIA
4.000000000e-01,1.33359e-04,9.99999e-01,9.99999e-01,9.99982e-01,1.33361e-04,9.99999e-01
4.020000000e-01,1.59090e-04,9.99999e-01,9.99999e-01,9.99988e-01,1.59091e-04,9.99999e-01
4.040100000e-01,1.89091e-04,9.99999e-01,9.99999e-01,9.99995e-01,1.89092e-04,9.99999e-01
4.060300500e-01,2.23984e-04,9.99999e-01,9.99999e-01,9.99998e-01,2.23985e-04,9.99999e-01
4.080602003e-01,2.64430e-04,9.99999e-01,9.99999e-01,9.99999e-01,2.64430e-04,9.99999e-01
4.101005013e-01,3.11156e-04,9.99999e-01,9.99999e-01,9.99999e-01,3.11156e-04,9.99999e-01
4.121510038e-01,3.64965e-04,9.99999e-01,9.99999e-01,9.99998e-01,3.64965e-04,9.99999e-01
4.142117588e-01,4.26730e-04,9.99999e-01,9.99999e-01,9.99994e-01,4.26732e-04,9.99999e-01
4.162828176e-01,4.97403e-04,9.99999e-01,9.99999e-01,9.99978e-01,4.97414e-04,9.99999e-01
4.183642317e-01,5.78043e-04,9.99999e-01,9.99999e-01,9.99986e-01,5.78051e-04,9.99999e-01
4.204560528e-01,6.69764e-04,9.99999e-01,9.99999e-01,9.99991e-01,6.69769e-04,9.99999e-01
4.225583331e-01,7.73784e-04,9.99999e-01,9.99999e-01,9.99996e-01,7.73786e-04,9.99999e-01
4.246711247e-01,8.91410e-04,9.99999e-01,9.99999e-01,9.99997e-01,8.91412e-04,9.99999e-01
4.267944804e-01,1.02405e-03,9.99999e-01,9.99999e-01,9.99996e-01,1.02405e-03,9.99999e-01
4.289284528e-01,1.17321e-03,9.99999e-01,9.99999e-01,9.99996e-01,1.17321e-03,9.99999e-01
4.310730950e-01,1.34049e-03,9.99999e-01,9.99999e-01,9.99998e-01,1.34049e-03,9.99999e-01
4.332284605e-01,1.52759e-03,9.99999e-01,9.99999e-01,9.99999e-01,1.52759e-03,9.99999e-01
4.353946028e-01,1.73632e-03,9.99999e-01,9.99999e-01,9.99999e-01,1.73632e-03,9.99999e-01
4.375715758e-01,1.96858e-03,9.99999e-01,9.99999e-01,9.99997e-01,1.96858e-03,9.99999e-01
4.397594337e-01,2.22634e-03,9.99999e-01,9.99999e-01,9.99980e-01,2.22639e-03,9.99999e-01
4.419582309e-01,2.51160e-03,9.99999e-01,9.99999e-01,9.99903e-01,2.51184e-03,9.99999e-01
4.441680220e-01,2.82694e-03,9.99999e-01,9.99999e-01,9.99925e-01,2.82715e-03,9.99999e-01
4.463888621e-01,3.17437e-03,9.99999e-01,9.99999e-01,9.99922e-01,3.17461e-03,9.99999e-01
4.486208064e-01,3.55646e-03,9.99999e-01,9.99999e-01,9.99951e-01,3.55663e-03,9.99999e-01
4.508639105e-01,3.97559e-03,9.99999e-01,9.99999e-01,9.99977e-01,3.97568e-03,9.99999e-01
4.531182300e-01,4.43430e-03,9.99999e-01,9.99999e-01,9.99990e-01,4.43434e-03,9.99999e-01
4.553838212e-01,4.93523e-03,9.99999e-01,9.99999e-01,9.99993e-01,4.93526e-03,9.99999e-01
4.576607403e-01,5.48115e-03,9.99999e-01,9.99999e-01,9.99996e-01,5.48116e-03,9.99999e-01
4.599490440e-01,6.07484e-03,9.99999e-01,9.99999e-01,9.99997e-01,6.07485e-03,9.99999e-01
4.622487892e-01,6.71918e-03,9.99999e-01,9.99999e-01,9.99999e-01,6.71918e-03,9.99999e-01
4.645600332e-01,7.41706e-03,9.99999e-01,9.99999e-01,9.99998e-01,7.41707e-03,9.99999e-01
4.668828333e-01,8.17129e-03,9.99999e-01,9.99999e-01,9.99976e-01,8.17147e-03,9.99999e-01
4.692172475e-01,8.98497e-03,9.99999e-01,9.99999e-01,9.99951e-01,8.98540e-03,9.99999e-01
4.715633337e-01,9.86158e-03,9.99999e-01,9.99999e-01,9.99967e-01,9.86189e-03,9.99999e-01
4.739211504e-01,1.08037e-02,9.99999e-01,9.99999e-01,9.99969e-01,1.08040e-02,9.99999e-01
4.762907561e-01,1.18146e-02,9.99999e-01,9.99999e-01,9.99983e-01,1.18148e-02,9.99999e-01
4.786722099e-01,1.28973e-02,9.99999e-01,9.99999e-01,9.99993e-01,1.28974e-02,9.99999e-01
4.810655710e-01,1.40547e-02,9.99999e-01,9.99999e-01,9.99997e-01,1.40547e-02,9.99999e-01
4.834708988e-01,1.52897e-02,9.99999e-01,9.99999e-01,9.99980e-01,1.52900e-02,9.99999e-01
4.858882533e-01,1.66056e-02,9.99999e-01,9.99999e-01,9.99965e-01,1.66062e-02,9.99999e-01
4.883176946e-01,1.80058e-02,9.99999e-01,9.99999e-01,9.99970e-01,1.80063e-02,9.99999e-01
4.907592831e-01,1.94927e-02,9.99999e-01,9.99999e-01,9.99973e-01,1.94932e-02,9.99999e-01
4.932130795e-01,2.10695e-02,9.99999e-01,9.99999e-01,9.99981e-01,2.10699e-02,9.99999e-01
4.956791449e-01,2.27390e-02,9.99999e-01,9.99999e-01,9.99989e-01,2.27392e-02,9.99999e-01
4.981575406e-01,2.45026e-02,9.99999e-01,9.99999e-01,9.99950e-01,2.45038e-02,9.99999e-01
5.006483283e-01,2.63629e-02,9.99999e-01,9.99999e-01,9.99872e-01,2.63663e-02,9.99998e-01
5.031515699e-01,2.83111e-02,9.99999e-01,9.99999e-01,9.99359e-01,2.83294e-02,9.99992e-01
5.056673278e-01,3.03851e-02,9.99999e-01,9.99999e-01,9.99663e-01,3.03955e-02,9.99991e-01
5.081956644e-01,3.25530e-02,9.99999e-01,9.99999e-01,9.99575e-01,3.25670e-02,9.99994e-01
5.107366428e-01,3.48361e-02,9.99999e-01,9.99999e-01,9.99713e-01,3.48461e-02,9.99998e-01
5.132903260e-01,3.72288e-02,9.99999e-01,9.99999e-01,9.99836e-01,3.72349e-02,9.99999e-01
5.158567776e-01,3.97327e-02,9.99999e-01,9.99999e-01,9.99930e-01,3.97354e-02,9.99999e-01
5.184360615e-01,4.23482e-02,9.99999e-01,9.99999e-01,9.99971e-01,4.23494e-02,9.99999e-01
5.210282418e-01,4.50781e-02,9.99999e-01,9.99999e-01,9.99989e-01,4.50786e-02,9.99999e-01
5.236333830e-01,4.79225e-02,9.99999e-01,9.99999e-01,9.99957e-01,4.79245e-02,9.99999e-01
5.262515499e-01,5.08872e-02,9.99999e-01,9.99999e-01,9.99973e-01,5.08885e-02,9.99999e-01
5.288828077e-01,5.39706e-02,9.99999e-01,9.99999e-01,9.99975e-01,5.39719e-02,9.99999e-01
5.315272217e-01,5.71743e-02,9.99999e-01,9.99999e-01,9.99978e-01,5.71755e-02,9.99999e-01
5.341848578e-01,6.04996e-02,9.99999e-01,9.99999e-01,9.99985e-01,6.05004e-02,9.99999e-01
5.368557821e-01,6.39441e-02,9.99999e-01,9.99999e-01,9.99950e-01,6.39472e-02,9.99999e-01
5.395400610e-01,6.75044e-02,9.99999e-01,9.99999e-01,9.99823e-01,6.75165e-02,9.99997e-01
5.422377613e-01,7.11921e-02,9.99999e-01,9.99999e-01,9.99774e-01,7.12085e-02,9.99995e-01
5.449489501e-01,7.50073e-02,9.99999e-01,9.99999e-01,9.99788e-01,7.50235e-02,9.99995e-01
5.476736949e-01,7.89466e-02,9.99999e-01,9.99999e-01,9.99814e-01,7.89614e-02,9.99997e-01
5.504120634e-01,8.30108e-02,9.99999e-01,9.99999e-01,9.99864e-01,8.30221e-02,9.99998e-01
5.531641237e-01,8.71992e-02,9.99999e-01,9.99999e-01,9.99931e-01,8.72051e-02,9.99999e-01
5.559299443e-01,9.15071e-02,9.99999e-01,9.99999e-01,9.99966e-01,9.15101e-02,9.99999e-01
5.587095940e-01,9.59342e-02,9.99999e-01,9.99999e-01,9.99978e-01,9.59362e-02,9.99999e-01
5.615031420e-01,1.00480e-01,9.99999e-01,9.99999e-01,9.99976e-01,1.00483e-01,9.99999e-01
5.643106577e-01,1.05145e-01,9.99999e-01,9.99999e-01,9.99973e-01,1.05148e-01,9.99999e-01
5.671322110e-01,1.09896e-01,9.99999e-01,9.99999e-01,9.99678e-01,1.09932e-01,9.99996e-01
5.699678720e-01,1.14793e-01,9.99999e-01,9.99999e-01,9.99666e-01,1.14832e-01,9.99990e-01
5.728177114e-01,1.19805e-01,9.99999e-01,9.99999e-01,9.99649e-01,1.19848e-01,9.99992e-01
5.756818000e-01,1.24936e-01,9.99999e-01,9.99999e-01,9.99678e-01,1.24977e-01,9.99995e-01
5.785602090e-01,1.30181e-01,9.99999e-01,9.99999e-01,9.99720e-01,1.30217e-01,9.99998e-01
5.814530100e-01,1.35530e-01,9.99999e-01,9.99999e-01,9.99718e-01,1.35568e-01,9.99998e-01
5.843602750e-01,1.40978e-01,9.99999e-01,9.99999e-01,9.99662e-01,1.41026e-01,9.99997e-01
5.872820764e-01,1.46161e-01,9.99999e-01,9.99999e-01,9.97097e-01,1.46589e-01,9.99979e-01
5.902184868e-01,1.51716e-01,9.99999e-01,9.99999e-01,9.96509e-01,1.52256e-01,9.99944e-01
5.931695792e-01,1.57624e-01,9.99999e-01,9.99999e-01,9.97527e-01,1.58023e-01,9.99946e-01
5.961354271e-01,1.63440e-01,9.99999e-01,9.99999e-01,9.97294e-01,1.63888e-01,9.99968e-01
5.991161043e-01,1.69512e-01,9.99999e-01,9.99999e-01,9.98028e-01,1.69849e-01,9.99990e-01
6.021116848e-01,1.75705e-01,9.99999e-01,9.99999e-01,9.98882e-01,1.75902e-01,9.99998e-01
6.051222432e-01,1.81942e-01,9.99999e-01,9.99999e-01,9.99434e-01,1.82045e-01,9.99999e-01
6.081478544e-01,1.88228e-01,9.99999e-01,9.99999e-01,9.99755e-01,1.88274e-01,9.99999e-01
6.111885937e-01,1.94568e-01,9.99999e-01,9.99999e-01,9.99896e-01,1.94588e-01,9.99999e-01
6.142445367e-01,2.00973e-01,9.99999e-01,9.99999e-01,9.99953e-01,2.00982e-01,9.99999e-01
6.173157594e-01,2.07449e-01,9.99999e-01,9.99999e-01,9.99974e-01,2.07454e-01,9.99999e-01
6.204023382e-01,2.13996e-01,9.99999e-01,9.99999e-01,9.99977e-01,2.14000e-01,9.99999e-01
6.235043498e-01,2.20596e-01,9.99999e-01,9.99999e-01,9.99903e-01,2.20618e-01,9.99999e-01
6.266218716e-01,2.27188e-01,9.99999e-01,9.99999e-01,9.99496e-01,2.27303e-01,9.99995e-01
6.297549810e-01,2.34008e-01,9.99999e-01,9.99999e-01,9.99814e-01,2.34053e-01,9.99992e-01
6.329037559e-01,2.40775e-01,9.99999e-01,9.99999e-01,9.99635e-01,2.40864e-01,9.99993e-01
6.360682746e-01,2.47655e-01,9.99999e-01,9.99999e-01,9.99688e-01,2.47732e-01,9.99996e-01
6.392486160e-01,2.54553e-01,9.99999e-01,9.99999e-01,9.99597e-01,2.54656e-01,9.99998e-01
6.424448591e-01,2.61487e-01,9.99999e-01,9.99999e-01,9.99457e-01,2.61630e-01,9.99996e-01
6.456570834e-01,2.67971e-01,9.99999e-01,9.99999e-01,9.97483e-01,2.68651e-01,9.99984e-01
6.488853688e-01,2.75203e-01,9.99999e-01,9.99999e-01,9.98173e-01,2.75717e-01,9.99960e-01
6.521297956e-01,2.82288e-01,9.99999e-01,9.99999e-01,9.98137e-01,2.82824e-01,9.99967e-01
6.553904446e-01,2.89422e-01,9.99999e-01,9.99999e-01,9.98139e-01,2.89968e-01,9.99975e-01
6.586673968e-01,2.96672e-01,9.99999e-01,9.99999e-01,9.98412e-01,2.97146e-01,9.99991e-01
6.619607338e-01,3.04085e-01,9.99999e-01,9.99999e-01,9.99115e-01,3.04355e-01,9.99997e-01
6.652705375e-01,3.11425e-01,9.99999e-01,9.99999e-01,9.99468e-01,3.11591e-01,9.99998e-01
6.685968902e-01,3.18779e-01,9.99999e-01,9.99999e-01,9.99774e-01,3.18851e-01,9.99999e-01
6.719398746e-01,3.26095e-01,9.99999e-01,9.99999e-01,9.99885e-01,3.26132e-01,9.99999e-01
6.752995740e-01,3.33410e-01,9.99999e-01,9.99999e-01,9.99939e-01,3.33430e-01,9.99999e-01
6.786760719e-01,3.40712e-01,9.99999e-01,9.99999e-01,9.99909e-01,3.40743e-01,9.99999e-01
6.820694522e-01,3.48013e-01,9.99999e-01,9.99999e-01,9.99845e-01,3.48067e-01,9.99998e-01
6.854797995e-01,3.55327e-01,9.99999e-01,9.99999e-01,9.99801e-01,3.55399e-01,9.99997e-01
6.889071985e-01,3.62558e-01,9.99999e-01,9.99999e-01,9.99513e-01,3.62736e-01,9.99995e-01
6.923517345e-01,3.67154e-01,9.99999e-01,9.99999e-01,9.92146e-01,3.70075e-01,9.99962e-01
6.958134932e-01,3.75863e-01,9.99999e-01,9.99999e-01,9.95977e-01,3.77413e-01,9.99916e-01
6.992925606e-01,3.83224e-01,9.99999e-01,9.99999e-01,9.96115e-01,3.84747e-01,9.99924e-01
7.027890234e-01,3.90185e-01,9.99999e-01,9.99999e-01,9.95236e-01,3.92075e-01,9.99942e-01
7.063029686e-01,3.97782e-01,9.99999e-01,9.99999e-01,9.95991e-01,3.99394e-01,9.99971e-01
7.098344834e-01,4.05130e-01,9.99999e-01,9.99999e-01,9.96154e-01,4.06700e-01,9.99982e-01
7.133836558e-01,4.11836e-01,9.99999e-01,9.99999e-01,9.94824e-01,4.13992e-01,9.99966e-01
7.169505741e-01,4.03969e-01,9.99999e-01,9.99999e-01,9.59188e-01,4.21267e-01,9.99736e-01
7.205353270e-01,4.19814e-01,9.99999e-01,9.99999e-01,9.80130e-01,4.28523e-01,9.99535e-01
7.241380036e-01,4.24480e-01,9.99999e-01,9.99999e-01,9.74514e-01,4.35756e-01,9.99599e-01
7.277586936e-01,4.32631e-01,9.99999e-01,9.99999e-01,9.76990e-01,4.42964e-01,9.99672e-01
7.313974871e-01,4.39137e-01,9.99999e-01,9.99999e-01,9.75690e-01,4.50147e-01,9.99846e-01
7.350544745e-01,4.51166e-01,9.99999e-01,9.99999e-01,9.86638e-01,4.57300e-01,9.99946e-01
7.387297469e-01,4.59842e-01,9.99999e-01,9.99999e-01,9.90161e-01,4.64422e-01,9.99975e-01
7.424233956e-01,4.69240e-01,9.99999e-01,9.99999e-01,9.95185e-01,4.71511e-01,9.99995e-01
7.461355126e-01,4.77167e-01,9.99999e-01,9.99999e-01,9.97076e-01,4.78566e-01,9.99998e-01
7.498661902e-01,4.84923e-01,9.99999e-01,9.99999e-01,9.98641e-01,4.85583e-01,9.99999e-01
7.536155211e-01,4.92233e-01,9.99999e-01,9.99999e-01,9.99331e-01,4.92562e-01,9.99999e-01
7.573835987e-01,4.99328e-01,9.99999e-01,9.99999e-01,9.99655e-01,4.99500e-01,9.99999e-01
7.611705167e-01,5.06287e-01,9.99999e-01,9.99999e-01,9.99785e-01,5.06396e-01,9.99999e-01
7.649763693e-01,5.13179e-01,9.99999e-01,9.99999e-01,9.99865e-01,5.13248e-01,9.99999e-01
7.688012511e-01,5.20006e-01,9.99999e-01,9.99999e-01,9.99906e-01,5.20054e-01,9.99999e-01
7.726452574e-01,5.26774e-01,9.99999e-01,9.99999e-01,9.99922e-01,5.26814e-01,9.99999e-01
7.765084837e-01,5.33467e-01,9.99999e-01,9.99999e-01,9.99889e-01,5.33526e-01,9.99999e-01
7.803910261e-01,5.23750e-01,9.99999e-01,9.70018e-01,9.99523e-01,5.40188e-01,9.99999e-01
7.842929812e-01,4.80348e-01,9.99999e-01,8.79876e-01,9.98338e-01,5.46799e-01,9.99996e-01
7.882144461e-01,4.80452e-01,9.99999e-01,8.71126e-01,9.96602e-01,5.53358e-01,9.99976e-01
7.921555184e-01,5.15797e-01,9.99999e-01,9.23005e-01,9.98143e-01,5.59864e-01,9.99959e-01
7.961162960e-01,5.35169e-01,9.99999e-01,9.48152e-01,9.96689e-01,5.66315e-01,9.99961e-01
8.000968774e-01,5.54264e-01,9.99999e-01,9.71514e-01,9.96195e-01,5.72712e-01,9.99958e-01
8.040973618e-01,5.68292e-01,9.99999e-01,9.85195e-01,9.96190e-01,5.79052e-01,9.99968e-01
8.081178486e-01,5.76307e-01,9.99999e-01,9.93155e-01,9.91382e-01,5.85335e-01,9.99967e-01
8.121584379e-01,5.69335e-01,9.99999e-01,9.97898e-01,9.64554e-01,5.91560e-01,9.99879e-01
8.162192301e-01,5.72319e-01,9.99999e-01,9.99535e-01,9.58362e-01,5.97726e-01,9.99548e-01
8.203003262e-01,5.90653e-01,9.99999e-01,9.99993e-01,9.78694e-01,6.03833e-01,9.99471e-01
8.244018279e-01,5.91885e-01,9.99999e-01,9.99999e-01,9.70902e-01,6.09880e-01,9.99579e-01
8.285238370e-01,6.00176e-01,9.99999e-01,9.99999e-01,9.74844e-01,6.15866e-01,9.99669e-01
8.326664562e-01,6.05946e-01,9.99999e-01,9.99999e-01,9.74650e-01,6.21791e-01,9.99862e-01
8.368297885e-01,6.16258e-01,9.99999e-01,9.99999e-01,9.81873e-01,6.27654e-01,9.99968e-01
8.410139374e-01,6.26603e-01,9.99999e-01,9.99999e-01,9.89200e-01,6.33455e-01,9.99981e-01
8.452190071e-01,6.35798e-01,9.99999e-01,9.99999e-01,9.94698e-01,6.39194e-01,9.99988e-01
8.494451021e-01,6.42873e-01,9.99999e-01,9.99999e-01,9.96912e-01,6.44869e-01,9.99990e-01
8.536923276e-01,6.49294e-01,9.99999e-01,9.99999e-01,9.98178e-01,6.50482e-01,9.99994e-01
8.579607893e-01,6.55292e-01,9.99999e-01,9.99999e-01,9.98875e-01,6.56031e-01,9.99998e-01
8.622505932e-01,6.61044e-01,9.99999e-01,9.99999e-01,9.99286e-01,6.61516e-01,9.99999e-01
8.665618462e-01,6.20517e-01,9.99999e-01,9.30793e-01,9.99557e-01,6.66938e-01,9.99999e-01
8.708946554e-01,4.84126e-01,9.99999e-01,7.20464e-01,9.99492e-01,6.72295e-01,9.99999e-01
8.752491287e-01,5.20903e-01,9.99999e-01,7.69268e-01,9.99321e-01,6.77589e-01,9.99998e-01
8.796253743e-01,5.90987e-01,9.99999e-01,8.66308e-01,9.99058e-01,6.82818e-01,9.99997e-01
8.840235012e-01,6.38034e-01,9.99999e-01,9.28388e-01,9.98924e-01,6.87983e-01,9.99992e-01
8.884436187e-01,6.70504e-01,9.99999e-01,9.71268e-01,9.96022e-01,6.93084e-01,9.99980e-01
8.928858368e-01,6.61739e-01,9.99999e-01,9.88243e-01,9.59180e-01,6.98121e-01,9.99892e-01
8.973502660e-01,6.51244e-01,9.99999e-01,9.97146e-01,9.29368e-01,7.03094e-01,9.99450e-01
9.018370173e-01,6.81384e-01,9.99999e-01,9.99685e-01,9.63527e-01,7.08004e-01,9.99136e-01
9.063462024e-01,6.83557e-01,9.99999e-01,9.91718e-01,9.67437e-01,7.12849e-01,9.99241e-01
9.108779334e-01,6.68628e-01,9.99999e-01,9.81466e-01,9.49873e-01,7.17631e-01,9.99212e-01
9.154323231e-01,6.78094e-01,9.99999e-01,9.95658e-01,9.43365e-01,7.22350e-01,9.99348e-01
9.200094847e-01,6.51715e-01,9.99999e-01,9.36663e-01,9.55438e-01,7.27005e-01,9.99635e-01
9.246095321e-01,6.21264e-01,9.99999e-01,9.12376e-01,9.29780e-01,7.31598e-01,9.99579e-01
9.292325798e-01,4.24544e-01,9.99999e-01,9.29972e-01,6.17177e-01,7.36128e-01,9.97974e-01
9.338787427e-01,3.71932e-01,9.99999e-01,9.32840e-01,5.38825e-01,7.40596e-01,9.92698e-01
9.385481364e-01,5.48907e-01,9.99999e-01,9.50212e-01,7.79668e-01,7.45002e-01,9.91980e-01
9.432408771e-01,5.09193e-01,9.99999e-01,9.69301e-01,7.04858e-01,7.49347e-01,9.93077e-01
9.479570815e-01,4.55363e-01,9.99999e-01,9.84107e-01,6.16979e-01,7.53630e-01,9.94362e-01
9.526968669e-01,5.23656e-01,9.99999e-01,9.92319e-01,6.98309e-01,7.57852e-01,9.96557e-01
9.574603512e-01,5.45261e-01,9.99999e-01,9.96711e-01,7.19035e-01,7.62014e-01,9.98249e-01
9.622476530e-01,5.84973e-01,9.99999e-01,9.98974e-01,7.65227e-01,7.66116e-01,9.98789e-01
9.670588912e-01,6.59262e-01,9.99999e-01,9.99692e-01,8.56969e-01,7.70158e-01,9.99171e-01
9.718941857e-01,7.02498e-01,9.99999e-01,9.99978e-01,9.08025e-01,7.74142e-01,9.99390e-01
9.767536566e-01,7.17839e-01,9.99999e-01,9.99999e-01,9.23023e-01,7.78066e-01,9.99533e-01
9.816374249e-01,7.36857e-01,9.99999e-01,9.99999e-01,9.42505e-01,7.81932e-01,9.99838e-01
9.865456120e-01,7.57196e-01,9.99999e-01,9.99999e-01,9.63703e-01,7.85741e-01,9.99965e-01
9.914783401e-01,7.71647e-01,9.99999e-01,9.99999e-01,9.77404e-01,7.89492e-01,9.99990e-01
9.964357318e-01,7.83376e-01,9.99999e-01,9.99999e-01,9.87636e-01,7.93187e-01,9.99994e-01
1.001417910e+00,7.90903e-01,9.99999e-01,9.99999e-01,9.92576e-01,7.96825e-01,9.99991e-01
1.006425000e+00,7.97001e-01,9.99999e-01,9.99999e-01,9.95755e-01,8.00408e-01,9.99987e-01
1.011457125e+00,8.01812e-01,9.99999e-01,9.99999e-01,9.97368e-01,8.03935e-01,9.99988e-01
1.016514411e+00,8.05958e-01,9.99999e-01,9.99999e-01,9.98211e-01,8.07408e-01,9.99991e-01
1.021596983e+00,8.09626e-01,9.99999e-01,9.99951e-01,9.98573e-01,8.10827e-01,9.99991e-01
1.026704968e+00,8.10647e-01,9.99999e-01,9.96757e-01,9.98886e-01,8.14193e-01,9.99994e-01
1.031838492e+00,7.82534e-01,9.99999e-01,9.57973e-01,9.99192e-01,8.17505e-01,9.99998e-01
1.036997685e+00,1.44439e-01,9.99999e-01,1.76049e-01,9.99519e-01,8.20766e-01,9.99999e-01
1.042182673e+00,1.34141e-01,9.99999e-01,1.62882e-01,9.99425e-01,8.23974e-01,9.99999e-01
1.047393587e+00,1.45658e-01,9.99999e-01,1.76219e-01,9.99238e-01,8.27131e-01,9.99999e-01
1.052630555e+00,6.56635e-03,9.99999e-01,7.91518e-03,9.98954e-01,8.30238e-01,9.99999e-01
1.057893707e+00,1.56913e-02,9.99999e-01,1.88536e-02,9.98253e-01,8.33294e-01,9.99998e-01
1.063183176e+00,4.50577e-02,9.99999e-01,5.39919e-02,9.97128e-01,8.36301e-01,9.99998e-01
1.068499092e+00,1.11618e-01,9.99999e-01,1.33546e-01,9.95201e-01,8.39260e-01,9.99996e-01
1.073841587e+00,2.35793e-01,9.99999e-01,2.81360e-01,9.94375e-01,8.42170e-01,9.99992e-01
1.079210795e+00,3.76157e-01,9.99999e-01,4.48121e-01,9.92817e-01,8.45032e-01,9.99980e-01
1.084606849e+00,5.40210e-01,9.99999e-01,6.43911e-01,9.89128e-01,8.47847e-01,9.99953e-01
1.090029883e+00,6.66405e-01,9.99999e-01,7.95684e-01,9.84339e-01,8.50616e-01,9.99903e-01
1.095480033e+00,7.30689e-01,9.99999e-01,8.93656e-01,9.57955e-01,8.53339e-01,9.99826e-01
1.100957433e+00,7.27109e-01,9.99999e-01,9.47276e-01,8.96542e-01,8.56016e-01,9.99681e-01
1.106462220e+00,6.35789e-01,9.99999e-01,9.77883e-01,7.57079e-01,8.58649e-01,9.99459e-01
1.111994531e+00,4.76620e-01,9.99999e-01,9.91745e-01,5.58530e-01,8.61237e-01,9.98567e-01
1.117554504e+00,3.34751e-01,9.99999e-01,9.97987e-01,3.90210e-01,8.63782e-01,9.94837e-01
1.123142276e+00,4.29622e-01,9.99999e-01,9.99868e-01,5.02095e-01,8.66284e-01,9.87801e-01
1.128757988e+00,5.49722e-01,9.99999e-01,9.99999e-01,6.41826e-01,8.68744e-01,9.85901e-01
1.134401778e+00,3.29883e-01,9.99999e-01,9.99999e-01,3.83269e-01,8.71162e-01,9.87999e-01
1.140073787e+00,6.63820e-01,9.99999e-01,9.99999e-01,7.67286e-01,8.73538e-01,9.90399e-01
1.145774156e+00,5.00633e-01,9.99999e-01,9.99999e-01,5.76650e-01,8.75874e-01,9.91208e-01
1.151503026e+00,4.72998e-01,9.99999e-01,9.99999e-01,5.41273e-01,8.78170e-01,9.95092e-01
1.157260541e+00,5.26851e-01,9.99999e-01,9.99999e-01,5.99284e-01,8.80427e-01,9.98529e-01
1.163046844e+00,6.04698e-01,9.99999e-01,9.99999e-01,6.85383e-01,8.82644e-01,9.99582e-01
1.168862078e+00,6.80506e-01,9.99999e-01,9.99999e-01,7.69251e-01,8.84823e-01,9.99784e-01
1.174706389e+00,7.54155e-01,9.99999e-01,9.99999e-01,8.50506e-01,8.86964e-01,9.99714e-01
1.180579921e+00,8.05282e-01,9.99999e-01,9.99999e-01,9.06148e-01,8.89068e-01,9.99569e-01
1.186482820e+00,8.42477e-01,9.99999e-01,9.99992e-01,9.45820e-01,8.91136e-01,9.99557e-01
1.192415234e+00,8.54371e-01,9.99999e-01,9.88398e-01,9.68004e-01,8.93167e-01,9.99668e-01
1.198377311e+00,4.94193e-01,9.99999e-01,5.65058e-01,9.72925e-01,8.95162e-01,9.99687e-01
1.204369197e+00,7.32233e-10,9.99999e-01,8.28754e-10,9.74375e-01,8.97123e-01,9.99716e-01
1.210391043e+00,6.25471e-35,9.99999e-01,7.05471e-35,9.75489e-01,8.99048e-01,9.99827e-01
1.216442998e+00,1.90265e-30,9.99999e-01,2.13982e-30,9.79147e-01,9.00940e-01,9.99894e-01
1.222525213e+00,5.18476e-30,9.99999e-01,5.79215e-30,9.83720e-01,9.02799e-01,9.99934e-01
1.228637839e+00,3.10663e-23,9.99999e-01,3.46165e-23,9.88664e-01,9.04624e-01,9.99969e-01
