#,Wave/freq,Total,N2,CO2,H2O,Rayleigh,CIA
4.000000000e-01,1.69412e-22,9.99999e-01,9.99999e-01,9.99903e-01,1.69429e-22,9.99999e-01
4.020000000e-01,4.56502e-22,9.99999e-01,9.99999e-01,9.99939e-01,4.56529e-22,9.99999e-01
4.040100000e-01,1.20500e-21,9.99999e-01,9.99999e-01,9.99974e-01,1.20503e-21,9.99999e-01
4.060300500e-01,3.12030e-21,9.99999e-01,9.99999e-01,9.99993e-01,3.12032e-21,9.99999e-01
4.080602003e-01,7.92937e-21,9.99999e-01,9.99999e-01,9.99997e-01,7.92939e-21,9.99999e-01
4.101005013e-01,1.97824e-20,9.99999e-01,9.99999e-01,9.99999e-01,1.97824e-20,9.99999e-01
4.121510038e-01,4.84702e-20,9.99999e-01,9.99999e-01,9.99995e-01,4.84704e-20,9.99999e-01
4.142117588e-01,1.16674e-19,9.99999e-01,9.99999e-01,9.99973e-01,1.16677e-19,9.99999e-01
4.162828176e-01,2.76000e-19,9.99999e-01,9.99999e-01,9.99880e-01,2.76033e-19,9.99999e-01
4.183642317e-01,6.41973e-19,9.99999e-01,9.99999e-01,9.99928e-01,6.42018e-19,9.99999e-01
4.204560528e-01,1.46850e-18,9.99999e-01,9.99999e-01,9.99955e-01,1.46857e-18,9.99999e-01
4.225583331e-01,3.30472e-18,9.99999e-01,9.99999e-01,9.99983e-01,3.30477e-18,9.99999e-01
4.246711247e-01,7.31857e-18,9.99999e-01,9.99999e-01,9.99986e-01,7.31866e-18,9.99999e-01
4.267944804e-01,1.59549e-17,9.99999e-01,9.99999e-01,9.99980e-01,1.59552e-17,9.99999e-01
4.289284528e-01,3.42515e-17,9.99999e-01,9.99999e-01,9.99984e-01,3.42520e-17,9.99999e-01
4.310730950e-01,7.24292e-17,9.99999e-01,9.99999e-01,9.99993e-01,7.24297e-17,9.99999e-01
4.332284605e-01,1.50912e-16,9.99999e-01,9.99999e-01,9.99997e-01,1.50912e-16,9.99999e-01
4.353946028e-01,3.09908e-16,9.99999e-01,9.99999e-01,9.99998e-01,3.09908e-16,9.99999e-01
4.375715758e-01,6.27429e-16,9.99999e-01,9.99999e-01,9.99987e-01,6.27436e-16,9.99999e-01
4.397594337e-01,1.25259e-15,9.99999e-01,9.99999e-01,9.99895e-01,1.25272e-15,9.99999e-01
4.419582309e-01,2.46593e-15,9.99999e-01,9.99999e-01,9.99473e-01,2.46723e-15,9.99999e-01
4.441680220e-01,4.79256e-15,9.99999e-01,9.99999e-01,9.99581e-01,4.79457e-15,9.99999e-01
4.463888621e-01,9.19183e-15,9.99999e-01,9.99999e-01,9.99566e-01,9.19581e-15,9.99999e-01
4.486208064e-01,1.74071e-14,9.99999e-01,9.99999e-01,9.99729e-01,1.74118e-14,9.99999e-01
4.508639105e-01,3.25512e-14,9.99999e-01,9.99999e-01,9.99873e-01,3.25553e-14,9.99999e-01
4.531182300e-01,6.01186e-14,9.99999e-01,9.99999e-01,9.99949e-01,6.01216e-14,9.99999e-01
4.553838212e-01,1.09689e-13,9.99999e-01,9.99999e-01,9.99965e-01,1.09693e-13,9.99999e-01
4.576607403e-01,1.97769e-13,9.99999e-01,9.99999e-01,9.99983e-01,1.97773e-13,9.99999e-01
4.599490440e-01,3.52447e-13,9.99999e-01,9.99999e-01,9.99988e-01,3.52451e-13,9.99999e-01
4.622487892e-01,6.20973e-13,9.99999e-01,9.99999e-01,9.99997e-01,6.20975e-13,9.99999e-01
4.645600332e-01,1.08190e-12,9.99999e-01,9.99999e-01,9.99992e-01,1.08191e-12,9.99999e-01
4.668828333e-01,1.86419e-12,9.99999e-01,9.99999e-01,9.99873e-01,1.86443e-12,9.99999e-01
4.692172475e-01,3.17770e-12,9.99999e-01,9.99999e-01,9.99727e-01,3.17856e-12,9.99999e-01
4.715633337e-01,5.36122e-12,9.99999e-01,9.99999e-01,9.99822e-01,5.36217e-12,9.99999e-01
4.739211504e-01,8.95138e-12,9.99999e-01,9.99999e-01,9.99829e-01,8.95290e-12,9.99999e-01
4.762907561e-01,1.47962e-11,9.99999e-01,9.99999e-01,9.99911e-01,1.47976e-11,9.99999e-01
4.786722099e-01,2.42153e-11,9.99999e-01,9.99999e-01,9.99963e-01,2.42162e-11,9.99999e-01
4.810655710e-01,3.92456e-11,9.99999e-01,9.99999e-01,9.99988e-01,3.92460e-11,9.99999e-01
4.834708988e-01,6.29941e-11,9.99999e-01,9.99999e-01,9.99897e-01,6.30005e-11,9.99999e-01
4.858882533e-01,1.00173e-10,9.99999e-01,9.99999e-01,9.99806e-01,1.00192e-10,9.99999e-01
4.883176946e-01,1.57860e-10,9.99999e-01,9.99999e-01,9.99839e-01,1.57885e-10,9.99999e-01
4.907592831e-01,2.46538e-10,9.99999e-01,9.99999e-01,9.99853e-01,2.46574e-10,9.99999e-01
4.932130795e-01,3.81668e-10,9.99999e-01,9.99999e-01,9.99896e-01,3.81707e-10,9.99999e-01
4.956791449e-01,5.85789e-10,9.99999e-01,9.99999e-01,9.99944e-01,5.85821e-10,9.99999e-01
4.981575406e-01,8.91264e-10,9.99999e-01,9.99999e-01,9.99727e-01,8.91506e-10,9.99999e-01
5.006483283e-01,1.34454e-09,9.99999e-01,9.99999e-01,9.99298e-01,1.34549e-09,9.99994e-01
5.031515699e-01,2.00695e-09,9.99999e-01,9.99999e-01,9.96427e-01,2.01423e-09,9.99961e-01
5.056673278e-01,2.98560e-09,9.99999e-01,9.99999e-01,9.98107e-01,2.99139e-09,9.99956e-01
5.081956644e-01,4.39740e-09,9.99999e-01,9.99999e-01,9.97611e-01,4.40805e-09,9.99971e-01
5.107366428e-01,6.43561e-09,9.99999e-01,9.99999e-01,9.98385e-01,6.44604e-09,9.99994e-01
5.132903260e-01,9.34713e-09,9.99999e-01,9.99999e-01,9.99075e-01,9.35578e-09,9.99998e-01
5.158567776e-01,1.34741e-08,9.99999e-01,9.99999e-01,9.99608e-01,1.34794e-08,9.99999e-01
5.184360615e-01,1.92780e-08,9.99999e-01,9.99999e-01,9.99843e-01,1.92810e-08,9.99999e-01
5.210282418e-01,2.73837e-08,9.99999e-01,9.99999e-01,9.99941e-01,2.73853e-08,9.99999e-01
5.236333830e-01,3.86183e-08,9.99999e-01,9.99999e-01,9.99766e-01,3.86274e-08,9.99997e-01
5.262515499e-01,5.41075e-08,9.99999e-01,9.99999e-01,9.99853e-01,5.41156e-08,9.99997e-01
5.288828077e-01,7.53006e-08,9.99999e-01,9.99999e-01,9.99866e-01,7.53108e-08,9.99998e-01
5.315272217e-01,1.04113e-07,9.99999e-01,9.99999e-01,9.99881e-01,1.04125e-07,9.99999e-01
5.341848578e-01,1.43036e-07,9.99999e-01,9.99999e-01,9.99922e-01,1.43047e-07,9.99999e-01
5.368557821e-01,1.95234e-07,9.99999e-01,9.99999e-01,9.99728e-01,1.95287e-07,9.99998e-01
5.395400610e-01,2.64712e-07,9.99999e-01,9.99999e-01,9.99027e-01,2.64972e-07,9.99991e-01
5.422377613e-01,3.56899e-07,9.99999e-01,9.99999e-01,9.98728e-01,3.57361e-07,9.99976e-01
5.449489501e-01,4.78551e-07,9.99999e-01,9.99999e-01,9.98824e-01,4.79126e-07,9.99975e-01
5.476736949e-01,6.37993e-07,9.99999e-01,9.99999e-01,9.98951e-01,6.38670e-07,9.99987e-01
5.504120634e-01,8.45874e-07,9.99999e-01,9.99999e-01,9.99239e-01,8.46521e-07,9.99996e-01
5.531641237e-01,1.11536e-06,9.99999e-01,9.99999e-01,9.99616e-01,1.11579e-06,9.99999e-01
5.559299443e-01,1.46243e-06,9.99999e-01,9.99999e-01,9.99814e-01,1.46270e-06,9.99999e-01
5.587095940e-01,1.90704e-06,9.99999e-01,9.99999e-01,9.99884e-01,1.90726e-06,9.99999e-01
5.615031420e-01,2.47360e-06,9.99999e-01,9.99999e-01,9.99871e-01,2.47392e-06,9.99999e-01
5.643106577e-01,3.19203e-06,9.99999e-01,9.99999e-01,9.99855e-01,3.19249e-06,9.99998e-01
5.671322110e-01,4.09188e-06,9.99999e-01,9.99999e-01,9.98256e-01,4.09909e-06,9.99983e-01
5.699678720e-01,5.22702e-06,9.99999e-01,9.99999e-01,9.98102e-01,5.23721e-06,9.99951e-01
5.728177114e-01,6.64572e-06,9.99999e-01,9.99999e-01,9.98041e-01,6.65902e-06,9.99959e-01
5.756818000e-01,8.41139e-06,9.99999e-01,9.99999e-01,9.98199e-01,8.42677e-06,9.99974e-01
5.785602090e-01,1.05975e-05,9.99999e-01,9.99999e-01,9.98427e-01,1.06143e-05,9.99992e-01
5.814530100e-01,1.32879e-05,9.99999e-01,9.99999e-01,9.98423e-01,1.33089e-05,9.99996e-01
5.843602750e-01,1.65820e-05,9.99999e-01,9.99999e-01,9.98134e-01,1.66132e-05,9.99989e-01
5.872820764e-01,2.03153e-05,9.99999e-01,9.99999e-01,9.84036e-01,2.06472e-05,9.99885e-01
5.902184868e-01,2.50449e-05,9.99999e-01,9.99999e-01,9.80505e-01,2.55508e-05,9.99689e-01
5.931695792e-01,3.10436e-05,9.99999e-01,9.99999e-01,9.86243e-01,3.14861e-05,9.99697e-01
5.961354271e-01,3.80496e-05,9.99999e-01,9.99999e-01,9.84888e-01,3.86405e-05,9.99817e-01
5.991161043e-01,4.67044e-05,9.99999e-01,9.99999e-01,9.88942e-01,4.72291e-05,9.99946e-01
6.021116848e-01,5.71359e-05,9.99999e-01,9.99999e-01,9.93705e-01,5.74982e-05,9.99993e-01
6.051222432e-01,6.95062e-05,9.99999e-01,9.99999e-01,9.96809e-01,6.97287e-05,9.99999e-01
6.081478544e-01,8.41234e-05,9.99999e-01,9.99999e-01,9.98623e-01,8.42393e-05,9.99999e-01
6.111885937e-01,1.01331e-04,9.99999e-01,9.99999e-01,9.99416e-01,1.01390e-04,9.99999e-01
6.142445367e-01,1.21555e-04,9.99999e-01,9.99999e-01,9.99739e-01,1.21587e-04,9.99999e-01
6.173157594e-01,1.45264e-04,9.99999e-01,9.99999e-01,9.99856e-01,1.45285e-04,9.99999e-01
6.204023382e-01,1.72971e-04,9.99999e-01,9.99999e-01,9.99878e-01,1.72992e-04,9.99999e-01
6.235043498e-01,2.05166e-04,9.99999e-01,9.99999e-01,9.99473e-01,2.05274e-04,9.99998e-01
6.266218716e-01,2.42070e-04,9.99999e-01,9.99999e-01,9.97179e-01,2.42759e-04,9.99979e-01
6.297549810e-01,2.85831e-04,9.99999e-01,9.99999e-01,9.98965e-01,2.86139e-04,9.99959e-01
6.329037559e-01,3.35477e-04,9.99999e-01,9.99999e-01,9.97949e-01,3.36177e-04,9.99967e-01
6.360682746e-01,3.93018e-04,9.99999e-01,9.99999e-01,9.98260e-01,3.93710e-04,9.99980e-01
6.392486160e-01,4.58612e-04,9.99999e-01,9.99999e-01,9.97742e-01,4.59654e-04,9.99991e-01
6.424448591e-01,5.33391e-04,9.99999e-01,9.99999e-01,9.97000e-01,5.35003e-04,9.99986e-01
6.456570834e-01,6.12190e-04,9.99999e-01,9.99999e-01,9.86145e-01,6.20839e-04,9.99921e-01
6.488853688e-01,7.09560e-04,9.99999e-01,9.99999e-01,9.88002e-01,7.18333e-04,9.99782e-01
6.521297956e-01,8.19948e-04,9.99999e-01,9.99999e-01,9.89564e-01,8.28745e-04,9.99817e-01
6.553904446e-01,9.43461e-04,9.99999e-01,9.99999e-01,9.89676e-01,9.53432e-04,9.99862e-01
6.586673968e-01,1.08404e-03,9.99999e-01,9.99999e-01,9.91083e-01,1.09385e-03,9.99954e-01
6.619607338e-01,1.24506e-03,9.99999e-01,9.99999e-01,9.94835e-01,1.25154e-03,9.99989e-01
6.652705375e-01,1.42387e-03,9.99999e-01,9.99999e-01,9.97000e-01,1.42816e-03,9.99994e-01
6.685968902e-01,1.62320e-03,9.99999e-01,9.99999e-01,9.98606e-01,1.62546e-03,9.99998e-01
6.719398746e-01,1.84411e-03,9.99999e-01,9.99999e-01,9.99353e-01,1.84530e-03,9.99999e-01
6.752995740e-01,2.08890e-03,9.99999e-01,9.99999e-01,9.99650e-01,2.08963e-03,9.99999e-01
6.786760719e-01,2.35932e-03,9.99999e-01,9.99999e-01,9.99498e-01,2.36050e-03,9.99998e-01
6.820694522e-01,2.65778e-03,9.99999e-01,9.99999e-01,9.99139e-01,2.66008e-03,9.99995e-01
6.854797995e-01,2.98726e-03,9.99999e-01,9.99999e-01,9.98891e-01,2.99060e-03,9.99989e-01
6.889071985e-01,3.34547e-03,9.99999e-01,9.99999e-01,9.97352e-01,3.35443e-03,9.99975e-01
6.923517345e-01,3.59300e-03,9.99999e-01,9.99999e-01,9.57314e-01,3.75400e-03,9.99789e-01
6.958134932e-01,4.09445e-03,9.99999e-01,9.99999e-01,9.77231e-01,4.19183e-03,9.99524e-01
6.992925606e-01,4.56888e-03,9.99999e-01,9.99999e-01,9.78641e-01,4.67054e-03,9.99581e-01
7.027890234e-01,5.05371e-03,9.99999e-01,9.99999e-01,9.73523e-01,5.19281e-03,9.99679e-01
7.063029686e-01,5.63199e-03,9.99999e-01,9.99999e-01,9.77690e-01,5.76142e-03,9.99840e-01
7.098344834e-01,6.24193e-03,9.99999e-01,9.99999e-01,9.78578e-01,6.37917e-03,9.99905e-01
7.133836558e-01,6.84974e-03,9.99999e-01,9.99999e-01,9.71918e-01,7.04897e-03,9.99812e-01
7.169505741e-01,6.19311e-03,9.99999e-01,9.99999e-01,7.97845e-01,7.77375e-03,9.98525e-01
7.205353270e-01,7.62311e-03,9.99999e-01,9.99999e-01,8.93236e-01,8.55649e-03,9.97399e-01
7.241380036e-01,8.13654e-03,9.99999e-01,9.99999e-01,8.67516e-01,9.40022e-03,9.97754e-01
7.277586936e-01,9.05025e-03,9.99999e-01,9.99999e-01,8.79599e-01,1.03080e-02,9.98163e-01
7.313974871e-01,9.82156e-03,9.99999e-01,9.99999e-01,8.71235e-01,1.12828e-02,9.99139e-01
7.350544745e-01,1.14291e-02,9.99999e-01,9.99999e-01,9.27370e-01,1.23279e-02,9.99700e-01
7.387297469e-01,1.27164e-02,9.99999e-01,9.99999e-01,9.45856e-01,1.34461e-02,9.99862e-01
7.424233956e-01,1.42458e-02,9.99999e-01,9.99999e-01,9.73050e-01,1.46407e-02,9.99973e-01
7.461355126e-01,1.56536e-02,9.99999e-01,9.99999e-01,9.83599e-01,1.59147e-02,9.99994e-01
7.498661902e-01,1.71382e-02,9.99999e-01,9.99999e-01,9.92314e-01,1.72709e-02,9.99997e-01
7.536155211e-01,1.86421e-02,9.99999e-01,9.99999e-01,9.96232e-01,1.87126e-02,9.99998e-01
7.573835987e-01,2.02031e-02,9.99999e-01,9.99999e-01,9.98057e-01,2.02424e-02,9.99999e-01
7.611705167e-01,2.18371e-02,9.99999e-01,9.99999e-01,9.98792e-01,2.18634e-02,9.99999e-01
7.649763693e-01,2.35605e-02,9.99999e-01,9.99999e-01,9.99244e-01,2.35783e-02,9.99999e-01
7.688012511e-01,2.53765e-02,9.99999e-01,9.99999e-01,9.99474e-01,2.53898e-02,9.99999e-01
7.726452574e-01,2.72888e-02,9.99999e-01,9.99999e-01,9.99567e-01,2.73006e-02,9.99999e-01
7.765084837e-01,2.92952e-02,9.99999e-01,9.99999e-01,9.99389e-01,2.93131e-02,9.99998e-01
7.803910261e-01,2.77850e-02,9.99999e-01,8.86129e-01,9.97366e-01,3.14297e-02,9.99996e-01
7.842929812e-01,1.72789e-02,9.99999e-01,5.17426e-01,9.90841e-01,3.36529e-02,9.99982e-01
7.882144461e-01,1.78283e-02,9.99999e-01,5.03760e-01,9.81082e-01,3.59846e-02,9.99882e-01
7.921555184e-01,2.46314e-02,9.99999e-01,6.47280e-01,9.89545e-01,3.84271e-02,9.99774e-01
7.961162960e-01,2.98694e-02,9.99999e-01,7.41972e-01,9.81762e-01,4.09821e-02,9.99783e-01
8.000968774e-01,3.63368e-02,9.99999e-01,8.50382e-01,9.78840e-01,4.36515e-02,9.99769e-01
8.040973618e-01,4.17718e-02,9.99999e-01,9.18950e-01,9.78866e-01,4.64368e-02,9.99816e-01
8.081178486e-01,4.52589e-02,9.99999e-01,9.62003e-01,9.53390e-01,4.93395e-02,9.99828e-01
8.121584379e-01,4.24637e-02,9.99999e-01,9.88027e-01,8.20912e-01,5.23610e-02,9.99326e-01
8.162192301e-01,4.36420e-02,9.99999e-01,9.97342e-01,7.90233e-01,5.55022e-02,9.97470e-01
8.203003262e-01,5.23357e-02,9.99999e-01,9.99956e-01,8.93272e-01,5.87643e-02,9.97038e-01
8.244018279e-01,5.29170e-02,9.99999e-01,9.99999e-01,8.53480e-01,6.21479e-02,9.97642e-01
8.285238370e-01,5.69247e-02,9.99999e-01,9.99999e-01,8.68652e-01,6.56537e-02,9.98147e-01
8.326664562e-01,6.00370e-02,9.99999e-01,9.99999e-01,8.67221e-01,6.92821e-02,9.99233e-01
8.368297885e-01,6.58949e-02,9.99999e-01,9.99999e-01,9.02413e-01,7.30335e-02,9.99824e-01
8.410139374e-01,7.23384e-02,9.99999e-01,9.99999e-01,9.40682e-01,7.69078e-02,9.99897e-01
8.452190071e-01,7.85050e-02,9.99999e-01,9.99999e-01,9.70395e-01,8.09049e-02,9.99938e-01
8.494451021e-01,8.35545e-02,9.99999e-01,9.99999e-01,9.82755e-01,8.50247e-02,9.99950e-01
8.536923276e-01,8.83480e-02,9.99999e-01,9.99999e-01,9.89740e-01,8.92667e-02,9.99967e-01
8.579607893e-01,9.30382e-02,9.99999e-01,9.99999e-01,9.93685e-01,9.36302e-02,9.99990e-01
8.622505932e-01,9.77196e-02,9.99999e-01,9.99999e-01,9.95976e-01,9.81144e-02,9.99998e-01
8.665618462e-01,8.69959e-02,9.99999e-01,8.48888e-01,9.97517e-01,1.02718e-01,9.99998e-01
8.708946554e-01,2.19947e-02,9.99999e-01,2.05229e-01,9.97162e-01,1.07441e-01,9.99997e-01
8.752491287e-01,2.88339e-02,9.99999e-01,2.57689e-01,9.96202e-01,1.12281e-01,9.99995e-01
8.796253743e-01,5.39986e-02,9.99999e-01,4.62754e-01,9.94758e-01,1.17237e-01,9.99987e-01
8.840235012e-01,8.05762e-02,9.99999e-01,6.62529e-01,9.94010e-01,1.22308e-01,9.99962e-01
8.884436187e-01,1.05913e-01,9.99999e-01,8.48092e-01,9.78741e-01,1.27491e-01,9.99895e-01
8.928858368e-01,9.93667e-02,9.99999e-01,9.35267e-01,7.98480e-01,1.32785e-01,9.99398e-01
8.973502660e-01,9.11238e-02,9.99999e-01,9.83782e-01,6.71390e-01,1.38187e-01,9.96923e-01
9.018370173e-01,1.16372e-01,9.99999e-01,9.98196e-01,8.15056e-01,1.43697e-01,9.95166e-01
9.063462024e-01,1.19745e-01,9.99999e-01,9.57286e-01,8.36304e-01,1.49310e-01,9.95753e-01
9.108779334e-01,1.05629e-01,9.99999e-01,9.00236e-01,7.56149e-01,1.55025e-01,9.95587e-01
9.154323231e-01,1.13790e-01,9.99999e-01,9.75420e-01,7.26298e-01,1.60840e-01,9.96351e-01
9.200094847e-01,1.02005e-01,9.99999e-01,7.54384e-01,7.79064e-01,1.66752e-01,9.97956e-01
9.246095321e-01,7.37339e-02,9.99999e-01,6.01429e-01,6.92399e-01,1.72757e-01,9.97645e-01
9.292325798e-01,1.45397e-02,9.99999e-01,6.80951e-01,1.09298e-01,1.78854e-01,9.90849e-01
9.338787427e-01,6.99621e-03,9.99999e-01,6.83097e-01,5.24631e-02,1.85039e-01,9.62712e-01
9.385481364e-01,4.34313e-02,9.99999e-01,7.52858e-01,3.00498e-01,1.91310e-01,9.55809e-01
9.432408771e-01,3.38562e-02,9.99999e-01,8.38637e-01,2.06508e-01,1.97663e-01,9.61758e-01
9.479570815e-01,1.97855e-02,9.99999e-01,9.13711e-01,1.07970e-01,2.04095e-01,9.68764e-01
9.526968669e-01,3.50766e-02,9.99999e-01,9.57427e-01,1.75583e-01,2.10603e-01,9.80830e-01
9.574603512e-01,4.00100e-02,9.99999e-01,9.81526e-01,1.88740e-01,2.17184e-01,9.90215e-01
9.622476530e-01,5.49672e-02,9.99999e-01,9.94193e-01,2.48367e-01,2.23834e-01,9.93224e-01
9.670588912e-01,1.01549e-01,9.99999e-01,9.98253e-01,4.43133e-01,2.30551e-01,9.95361e-01
9.718941857e-01,1.39264e-01,9.99999e-01,9.99874e-01,5.88856e-01,2.37331e-01,9.96582e-01
9.767536566e-01,1.56746e-01,9.99999e-01,9.99999e-01,6.43636e-01,2.44170e-01,9.97387e-01
9.816374249e-01,1.80358e-01,9.99999e-01,9.99999e-01,7.19018e-01,2.51066e-01,9.99094e-01
9.865456120e-01,2.09688e-01,9.99999e-01,9.99999e-01,8.12855e-01,2.58014e-01,9.99811e-01
9.914783401e-01,2.33046e-01,9.99999e-01,9.99999e-01,8.79425e-01,2.65011e-01,9.99947e-01
9.964357318e-01,2.53650e-01,9.99999e-01,9.99999e-01,9.32378e-01,2.72055e-01,9.99968e-01
1.001417910e+00,2.67644e-01,9.99999e-01,9.99999e-01,9.58859e-01,2.79141e-01,9.99952e-01
1.006425000e+00,2.79481e-01,9.99999e-01,9.99999e-01,9.76363e-01,2.86266e-01,9.99933e-01
1.011457125e+00,2.89077e-01,9.99999e-01,9.99999e-01,9.85235e-01,2.93427e-01,9.99937e-01
1.016514411e+00,2.97590e-01,9.99999e-01,9.99999e-01,9.89963e-01,3.00620e-01,9.99955e-01
1.021596983e+00,3.05299e-01,9.99999e-01,9.99779e-01,9.91999e-01,3.07842e-01,9.99955e-01
1.026704968e+00,3.07733e-01,9.99999e-01,9.82776e-01,9.93757e-01,3.15090e-01,9.99970e-01
1.031838492e+00,2.82553e-01,9.99999e-01,8.80265e-01,9.95452e-01,3.22361e-01,9.99991e-01
1.036997685e+00,1.01392e-02,9.99999e-01,3.08198e-02,9.97301e-01,3.29650e-01,9.99998e-01
1.042182673e+00,1.56449e-04,9.99999e-01,4.65378e-04,9.96792e-01,3.36956e-01,9.99998e-01
1.047393587e+00,4.69136e-04,9.99999e-01,1.36738e-03,9.95741e-01,3.44275e-01,9.99998e-01
1.052630555e+00,1.40286e-09,9.99999e-01,4.00429e-09,9.94167e-01,3.51603e-01,9.99998e-01
1.057893707e+00,5.15856e-09,9.99999e-01,1.44380e-08,9.90293e-01,3.58937e-01,9.99996e-01
1.063183176e+00,7.68116e-07,9.99999e-01,2.11512e-06,9.84066e-01,3.66276e-01,9.99991e-01
1.068499092e+00,1.50329e-05,9.99999e-01,4.08492e-05,9.73443e-01,3.73615e-01,9.99981e-01
1.073841587e+00,4.92649e-04,9.99999e-01,1.32005e-03,9.69087e-01,3.80952e-01,9.99959e-01
1.079210795e+00,6.09807e-03,9.99999e-01,1.61743e-02,9.60413e-01,3.88283e-01,9.99892e-01
1.084606849e+00,3.45461e-02,9.99999e-01,9.18936e-02,9.40850e-01,3.95607e-01,9.99740e-01
1.090029883e+00,1.06129e-01,9.99999e-01,2.84650e-01,9.16755e-01,4.02920e-01,9.99463e-01
1.095480033e+00,1.75224e-01,9.99999e-01,5.35699e-01,7.89150e-01,4.10220e-01,9.99029e-01
1.100957433e+00,1.72714e-01,9.99999e-01,7.38179e-01,5.53658e-01,4.17504e-01,9.98214e-01
1.106462220e+00,9.16835e-02,9.99999e-01,8.81583e-01,2.41596e-01,4.24770e-01,9.96972e-01
1.111994531e+00,2.27031e-02,9.99999e-01,9.54253e-01,5.49220e-02,4.32015e-01,9.91984e-01
1.117554504e+00,4.83406e-03,9.99999e-01,9.88591e-01,1.13945e-02,4.39236e-01,9.71363e-01
1.123142276e+00,2.01976e-02,9.99999e-01,9.99243e-01,4.84719e-02,4.46433e-01,9.33419e-01
1.128757988e+00,4.80890e-02,9.99999e-01,9.99999e-01,1.14812e-01,4.53601e-01,9.23387e-01
1.134401778e+00,2.19563e-02,9.99999e-01,9.99999e-01,5.09960e-02,4.60740e-01,9.34470e-01
1.140073787e+00,1.12839e-01,9.99999e-01,9.99999e-01,2.54609e-01,4.67846e-01,9.47288e-01
1.145774156e+00,3.37585e-02,9.99999e-01,9.99999e-01,7.46948e-02,4.74919e-01,9.51640e-01
1.151503026e+00,2.63313e-02,9.99999e-01,9.99999e-01,5.61639e-02,4.81956e-01,9.72764e-01
1.157260541e+00,3.47106e-02,9.99999e-01,9.99999e-01,7.15779e-02,4.88954e-01,9.91777e-01
1.163046844e+00,6.87161e-02,9.99999e-01,9.99999e-01,1.38889e-01,4.95914e-01,9.97662e-01
1.168862078e+00,1.20351e-01,9.99999e-01,9.99999e-01,2.39635e-01,5.02832e-01,9.98794e-01
1.174706389e+00,2.09716e-01,9.99999e-01,9.99999e-01,4.12101e-01,5.09707e-01,9.98402e-01
1.180579921e+00,2.98750e-01,9.99999e-01,9.99999e-01,5.79769e-01,5.16537e-01,9.97586e-01
1.186482820e+00,3.82370e-01,9.99999e-01,9.99975e-01,7.32486e-01,5.23321e-01,9.97522e-01
1.192415234e+00,4.17142e-01,9.99999e-01,9.43381e-01,8.33294e-01,5.30058e-01,9.98144e-01
1.198377311e+00,2.31089e-01,9.99999e-01,4.89890e-01,8.57811e-01,5.36746e-01,9.98246e-01
1.204369197e+00,5.51133e-45,9.99999e-01,1.10501e-44,8.65438e-01,5.43383e-01,9.98413e-01
1.210391043e+00,9.58302e-186,9.99999e-01,1.88435e-185,8.70522e-01,5.49970e-01,9.99034e-01
1.216442998e+00,1.43673e-160,9.99999e-01,2.77961e-160,8.88565e-01,5.56503e-01,9.99408e-01
1.222525213e+00,3.92802e-158,9.99999e-01,7.31901e-158,9.11946e-01,5.62983e-01,9.99632e-01
1.228637839e+00,9.78875e-122,9.99999e-01,1.79491e-121,9.37996e-01,5.69408e-01,9.99828e-01
