#,Wave/freq,Total,N2,CO2,H2O,Rayleigh,CIA
4.000000000e-01,2.15226e-06,9.99999e-01,9.99999e-01,9.99974e-01,2.15231e-06,9.99999e-01
4.020000000e-01,2.78581e-06,9.99999e-01,9.99999e-01,9.99983e-01,2.78585e-06,9.99999e-01
4.040100000e-01,3.58658e-06,9.99999e-01,9.99999e-01,9.99992e-01,3.58661e-06,9.99999e-01
4.060300500e-01,4.59454e-06,9.99999e-01,9.99999e-01,9.99997e-01,4.59454e-06,9.99999e-01
4.080602003e-01,5.85701e-06,9.99999e-01,9.99999e-01,9.99999e-01,5.85701e-06,9.99999e-01
4.101005013e-01,7.43066e-06,9.99999e-01,9.99999e-01,9.99999e-01,7.43066e-06,9.99999e-01
4.121510038e-01,9.38290e-06,9.99999e-01,9.99999e-01,9.99998e-01,9.38291e-06,9.99999e-01
4.142117588e-01,1.17935e-05,9.99999e-01,9.99999e-01,9.99992e-01,1.17936e-05,9.99999e-01
4.162828176e-01,1.47564e-05,9.99999e-01,9.99999e-01,9.99968e-01,1.47568e-05,9.99999e-01
4.183642317e-01,1.83827e-05,9.99999e-01,9.99999e-01,9.99981e-01,1.83831e-05,9.99999e-01
4.204560528e-01,2.28009e-05,9.99999e-01,9.99999e-01,9.99988e-01,2.28012e-05,9.99999e-01
4.225583331e-01,2.81609e-05,9.99999e-01,9.99999e-01,9.99995e-01,2.81611e-05,9.99999e-01
4.246711247e-01,3.46360e-05,9.99999e-01,9.99999e-01,9.99996e-01,3.46362e-05,9.99999e-01
4.267944804e-01,4.24261e-05,9.99999e-01,9.99999e-01,9.99994e-01,4.24263e-05,9.99999e-01
4.289284528e-01,5.17605e-05,9.99999e-01,9.99999e-01,9.99995e-01,5.17607e-05,9.99999e-01
4.310730950e-01,6.29011e-05,9.99999e-01,9.99999e-01,9.99997e-01,6.29012e-05,9.99999e-01
4.332284605e-01,7.61458e-05,9.99999e-01,9.99999e-01,9.99999e-01,7.61458e-05,9.99999e-01
4.353946028e-01,9.18319e-05,9.99999e-01,9.99999e-01,9.99999e-01,9.18320e-05,9.99999e-01
4.375715758e-01,1.10340e-04,9.99999e-01,9.99999e-01,9.99996e-01,1.10340e-04,9.99999e-01
4.397594337e-01,1.32096e-04,9.99999e-01,9.99999e-01,9.99972e-01,1.32099e-04,9.99999e-01
4.419582309e-01,1.57566e-04,9.99999e-01,9.99999e-01,9.99859e-01,1.57588e-04,9.99999e-01
4.441680220e-01,1.87320e-04,9.99999e-01,9.99999e-01,9.99891e-01,1.87340e-04,9.99999e-01
4.463888621e-01,2.21925e-04,9.99999e-01,9.99999e-01,9.99886e-01,2.21950e-04,9.99999e-01
4.486208064e-01,2.62057e-04,9.99999e-01,9.99999e-01,9.99929e-01,2.62075e-04,9.99999e-01
4.508639105e-01,3.08430e-04,9.99999e-01,9.99999e-01,9.99966e-01,3.08440e-04,9.99999e-01
4.531182300e-01,3.61837e-04,9.99999e-01,9.99999e-01,9.99986e-01,3.61842e-04,9.99999e-01
4.553838212e-01,4.23148e-04,9.99999e-01,9.99999e-01,9.99990e-01,4.23152e-04,9.99999e-01
4.576607403e-01,4.93321e-04,9.99999e-01,9.99999e-01,9.99995e-01,4.93323e-04,9.99999e-01
4.599490440e-01,5.73388e-04,9.99999e-01,9.99999e-01,9.99996e-01,5.73390e-04,9.99999e-01
4.622487892e-01,6.64475e-04,9.99999e-01,9.99999e-01,9.99999e-01,6.64475e-04,9.99999e-01
4.645600332e-01,7.67789e-04,9.99999e-01,9.99999e-01,9.99997e-01,7.67790e-04,9.99999e-01
4.668828333e-01,8.84611e-04,9.99999e-01,9.99999e-01,9.99966e-01,8.84641e-04,9.99999e-01
4.692172475e-01,1.01635e-03,9.99999e-01,9.99999e-01,9.99928e-01,1.01643e-03,9.99999e-01
4.715633337e-01,1.16459e-03,9.99999e-01,9.99999e-01,9.99953e-01,1.16464e-03,9.99999e-01
4.739211504e-01,1.33083e-03,9.99999e-01,9.99999e-01,9.99955e-01,1.33089e-03,9.99999e-01
4.762907561e-01,1.51684e-03,9.99999e-01,9.99999e-01,9.99976e-01,1.51687e-03,9.99999e-01
4.786722099e-01,1.72436e-03,9.99999e-01,9.99999e-01,9.99990e-01,1.72438e-03,9.99999e-01
4.810655710e-01,1.95530e-03,9.99999e-01,9.99999e-01,9.99996e-01,1.95531e-03,9.99999e-01
4.834708988e-01,2.21161e-03,9.99999e-01,9.99999e-01,9.99972e-01,2.21167e-03,9.99999e-01
4.858882533e-01,2.49544e-03,9.99999e-01,9.99999e-01,9.99949e-01,2.49556e-03,9.99999e-01
4.883176946e-01,2.80907e-03,9.99999e-01,9.99999e-01,9.99957e-01,2.80919e-03,9.99999e-01
4.907592831e-01,3.15473e-03,9.99999e-01,9.99999e-01,9.99961e-01,3.15484e-03,9.99999e-01
4.932130795e-01,3.53482e-03,9.99999e-01,9.99999e-01,9.99972e-01,3.53492e-03,9.99999e-01
4.956791449e-01,3.95183e-03,9.99999e-01,9.99999e-01,9.99985e-01,3.95189e-03,9.99999e-01
4.981575406e-01,4.40802e-03,9.99999e-01,9.99999e-01,9.99928e-01,4.40833e-03,9.99999e-01
5.006483283e-01,4.90597e-03,9.99999e-01,9.99999e-01,9.99814e-01,4.90688e-03,9.99998e-01
5.031515699e-01,5.44512e-03,9.99999e-01,9.99999e-01,9.99065e-01,5.45027e-03,9.99989e-01
5.056673278e-01,6.03824e-03,9.99999e-01,9.99999e-01,9.99507e-01,6.04128e-03,9.99988e-01
5.081956644e-01,6.67859e-03,9.99999e-01,9.99999e-01,9.99378e-01,6.68278e-03,9.99992e-01
5.107366428e-01,7.37458e-03,9.99999e-01,9.99999e-01,9.99580e-01,7.37768e-03,9.99998e-01
5.132903260e-01,8.12699e-03,9.99999e-01,9.99999e-01,9.99760e-01,8.12893e-03,9.99999e-01
5.158567776e-01,8.93865e-03,9.99999e-01,9.99999e-01,9.99898e-01,8.93955e-03,9.99999e-01
5.184360615e-01,9.81216e-03,9.99999e-01,9.99999e-01,9.99959e-01,9.81256e-03,9.99999e-01
5.210282418e-01,1.07509e-02,9.99999e-01,9.99999e-01,9.99984e-01,1.07510e-02,9.99999e-01
5.236333830e-01,1.17573e-02,9.99999e-01,9.99999e-01,9.99938e-01,1.17580e-02,9.99999e-01
5.262515499e-01,1.28361e-02,9.99999e-01,9.99999e-01,9.99961e-01,1.28366e-02,9.99998e-01
5.288828077e-01,1.39893e-02,9.99999e-01,9.99999e-01,9.99964e-01,1.39898e-02,9.99999e-01
5.315272217e-01,1.52203e-02,9.99999e-01,9.99999e-01,9.99968e-01,1.52208e-02,9.99999e-01
5.341848578e-01,1.65321e-02,9.99999e-01,9.99999e-01,9.99979e-01,1.65325e-02,9.99999e-01
5.368557821e-01,1.79267e-02,9.99999e-01,9.99999e-01,9.99928e-01,1.79279e-02,9.99999e-01
5.395400610e-01,1.94050e-02,9.99999e-01,9.99999e-01,9.99742e-01,1.94101e-02,9.99997e-01
5.422377613e-01,2.09748e-02,9.99999e-01,9.99999e-01,9.99669e-01,2.09818e-02,9.99993e-01
5.449489501e-01,2.26388e-02,9.99999e-01,9.99999e-01,9.99691e-01,2.26460e-02,9.99993e-01
5.476736949e-01,2.43986e-02,9.99999e-01,9.99999e-01,9.99727e-01,2.44053e-02,9.99996e-01
5.504120634e-01,2.62572e-02,9.99999e-01,9.99999e-01,9.99802e-01,2.62624e-02,9.99998e-01
5.531641237e-01,2.82172e-02,9.99999e-01,9.99999e-01,9.99900e-01,2.82200e-02,9.99999e-01
5.559299443e-01,3.02790e-02,9.99999e-01,9.99999e-01,9.99951e-01,3.02804e-02,9.99999e-01
5.587095940e-01,3.24452e-02,9.99999e-01,9.99999e-01,9.99969e-01,3.24461e-02,9.99999e-01
5.615031420e-01,3.47182e-02,9.99999e-01,9.99999e-01,9.99966e-01,3.47193e-02,9.99999e-01
5.643106577e-01,3.71007e-02,9.99999e-01,9.99999e-01,9.99961e-01,3.71021e-02,9.99999e-01
5.671322110e-01,3.95779e-02,9.99999e-01,9.99999e-01,9.99534e-01,3.95965e-02,9.99995e-01
5.699678720e-01,4.21831e-02,9.99999e-01,9.99999e-01,9.99510e-01,4.22043e-02,9.99986e-01
5.728177114e-01,4.49037e-02,9.99999e-01,9.99999e-01,9.99487e-01,4.49271e-02,9.99989e-01
5.756818000e-01,4.77440e-02,9.99999e-01,9.99999e-01,9.99530e-01,4.77667e-02,9.99993e-01
5.785602090e-01,5.07034e-02,9.99999e-01,9.99999e-01,9.99590e-01,5.07243e-02,9.99997e-01
5.814530100e-01,5.37789e-02,9.99999e-01,9.99999e-01,9.99588e-01,5.38011e-02,9.99998e-01
5.843602750e-01,5.69700e-02,9.99999e-01,9.99999e-01,9.99508e-01,5.69982e-02,9.99996e-01
5.872820764e-01,6.00596e-02,9.99999e-01,9.99999e-01,9.95770e-01,6.03164e-02,9.99969e-01
5.902184868e-01,6.34261e-02,9.99999e-01,9.99999e-01,9.94896e-01,6.37566e-02,9.99918e-01
5.931695792e-01,6.70708e-02,9.99999e-01,9.99999e-01,9.96388e-01,6.73192e-02,9.99921e-01
5.961354271e-01,7.07205e-02,9.99999e-01,9.99999e-01,9.96044e-01,7.10045e-02,9.99954e-01
5.991161043e-01,7.45960e-02,9.99999e-01,9.99999e-01,9.97115e-01,7.48128e-02,9.99985e-01
6.021116848e-01,7.86151e-02,9.99999e-01,9.99999e-01,9.98363e-01,7.87440e-02,9.99997e-01
6.051222432e-01,8.27295e-02,9.99999e-01,9.99999e-01,9.99171e-01,8.27980e-02,9.99999e-01
6.081478544e-01,8.69434e-02,9.99999e-01,9.99999e-01,9.99642e-01,8.69745e-02,9.99999e-01
6.111885937e-01,9.12590e-02,9.99999e-01,9.99999e-01,9.99848e-01,9.12728e-02,9.99999e-01
6.142445367e-01,9.56859e-02,9.99999e-01,9.99999e-01,9.99932e-01,9.56924e-02,9.99999e-01
6.173157594e-01,1.00229e-01,9.99999e-01,9.99999e-01,9.99962e-01,1.00232e-01,9.99999e-01
6.204023382e-01,1.04888e-01,9.99999e-01,9.99999e-01,9.99967e-01,1.04891e-01,9.99999e-01
6.235043498e-01,1.09653e-01,9.99999e-01,9.99999e-01,9.99859e-01,1.09669e-01,9.99999e-01
6.266218716e-01,1.14478e-01,9.99999e-01,9.99999e-01,9.99263e-01,1.14563e-01,9.99994e-01
6.297549810e-01,1.19539e-01,9.99999e-01,9.99999e-01,9.99729e-01,1.19572e-01,9.99989e-01
6.329037559e-01,1.24628e-01,9.99999e-01,9.99999e-01,9.99466e-01,1.24695e-01,9.99991e-01
6.360682746e-01,1.29870e-01,9.99999e-01,9.99999e-01,9.99545e-01,1.29930e-01,9.99994e-01
6.392486160e-01,1.35194e-01,9.99999e-01,9.99999e-01,9.99411e-01,1.35274e-01,9.99997e-01
6.424448591e-01,1.40615e-01,9.99999e-01,9.99999e-01,9.99209e-01,1.40726e-01,9.99995e-01
6.456570834e-01,1.45745e-01,9.99999e-01,9.99999e-01,9.96333e-01,1.46284e-01,9.99977e-01
6.488853688e-01,1.51530e-01,9.99999e-01,9.99999e-01,9.97327e-01,1.51945e-01,9.99942e-01
6.521297956e-01,1.57270e-01,9.99999e-01,9.99999e-01,9.97275e-01,1.57707e-01,9.99952e-01
6.553904446e-01,1.63117e-01,9.99999e-01,9.99999e-01,9.97283e-01,1.63567e-01,9.99964e-01
6.586673968e-01,1.69126e-01,9.99999e-01,9.99999e-01,9.97676e-01,1.69522e-01,9.99987e-01
6.619607338e-01,1.75342e-01,9.99999e-01,9.99999e-01,9.98705e-01,1.75570e-01,9.99997e-01
6.652705375e-01,1.81567e-01,9.99999e-01,9.99999e-01,9.99222e-01,1.81708e-01,9.99998e-01
6.685968902e-01,1.87871e-01,9.99999e-01,9.99999e-01,9.99669e-01,1.87933e-01,9.99999e-01
6.719398746e-01,1.94210e-01,9.99999e-01,9.99999e-01,9.99832e-01,1.94242e-01,9.99999e-01
6.752995740e-01,2.00614e-01,9.99999e-01,9.99999e-01,9.99908e-01,2.00632e-01,9.99999e-01
6.786760719e-01,2.07073e-01,9.99999e-01,9.99999e-01,9.99868e-01,2.07100e-01,9.99999e-01
6.820694522e-01,2.13594e-01,9.99999e-01,9.99999e-01,9.99775e-01,2.13642e-01,9.99998e-01
6.854797995e-01,2.20192e-01,9.99999e-01,9.99999e-01,9.99710e-01,2.20256e-01,9.99997e-01
6.889071985e-01,2.26776e-01,9.99999e-01,9.99999e-01,9.99294e-01,2.26938e-01,9.99993e-01
6.923517345e-01,2.31000e-01,9.99999e-01,9.99999e-01,9.88570e-01,2.33684e-01,9.99944e-01
6.958134932e-01,2.39042e-01,9.99999e-01,9.99999e-01,9.94093e-01,2.40492e-01,9.99878e-01
6.992925606e-01,2.45931e-01,9.99999e-01,9.99999e-01,9.94340e-01,2.47357e-01,9.99890e-01
7.027890234e-01,2.52487e-01,9.99999e-01,9.99999e-01,9.93038e-01,2.54278e-01,9.99916e-01
7.063029686e-01,2.59708e-01,9.99999e-01,9.99999e-01,9.94142e-01,2.61249e-01,9.99957e-01
7.098344834e-01,2.66754e-01,9.99999e-01,9.99999e-01,9.94379e-01,2.68268e-01,9.99974e-01
7.133836558e-01,2.73247e-01,9.99999e-01,9.99999e-01,9.92476e-01,2.75332e-01,9.99950e-01
7.169505741e-01,2.65714e-01,9.99999e-01,9.99999e-01,9.41152e-01,2.82436e-01,9.99615e-01
7.205353270e-01,2.80986e-01,9.99999e-01,9.99999e-01,9.70983e-01,2.89579e-01,9.99321e-01
7.241380036e-01,2.85622e-01,9.99999e-01,9.99999e-01,9.63047e-01,2.96755e-01,9.99414e-01
7.277586936e-01,2.93672e-01,9.99999e-01,9.99999e-01,9.66608e-01,3.03962e-01,9.99520e-01
7.313974871e-01,3.00120e-01,9.99999e-01,9.99999e-01,9.64623e-01,3.11197e-01,9.99775e-01
7.350544745e-01,3.12225e-01,9.99999e-01,9.99999e-01,9.80512e-01,3.18455e-01,9.99921e-01
7.387297469e-01,3.21043e-01,9.99999e-01,9.99999e-01,9.85630e-01,3.25735e-01,9.99963e-01
7.424233956e-01,3.30684e-01,9.99999e-01,9.99999e-01,9.92952e-01,3.33033e-01,9.99993e-01
7.461355126e-01,3.38888e-01,9.99999e-01,9.99999e-01,9.95721e-01,3.40345e-01,9.99998e-01
7.498661902e-01,3.46976e-01,9.99999e-01,9.99999e-01,9.98008e-01,3.47668e-01,9.99999e-01
7.536155211e-01,3.54652e-01,9.99999e-01,9.99999e-01,9.99021e-01,3.55000e-01,9.99999e-01
7.573835987e-01,3.62154e-01,9.99999e-01,9.99999e-01,9.99496e-01,3.62336e-01,9.99999e-01
7.611705167e-01,3.69560e-01,9.99999e-01,9.99999e-01,9.99686e-01,3.69675e-01,9.99999e-01
7.649763693e-01,3.76940e-01,9.99999e-01,9.99999e-01,9.99803e-01,3.77014e-01,9.99999e-01
7.688012511e-01,3.84296e-01,9.99999e-01,9.99999e-01,9.99862e-01,3.84348e-01,9.99999e-01
7.726452574e-01,3.91633e-01,9.99999e-01,9.99999e-01,9.99887e-01,3.91677e-01,9.99999e-01
7.765084837e-01,3.98932e-01,9.99999e-01,9.99999e-01,9.99839e-01,3.98996e-01,9.99999e-01
7.803910261e-01,3.89224e-01,9.99999e-01,9.58602e-01,9.99306e-01,4.06303e-01,9.99998e-01
7.842929812e-01,3.42848e-01,9.99999e-01,8.30841e-01,9.97579e-01,4.13596e-01,9.99995e-01
7.882144461e-01,3.43383e-01,9.99999e-01,8.19788e-01,9.95035e-01,4.20872e-01,9.99965e-01
7.921555184e-01,3.79948e-01,9.99999e-01,8.89865e-01,9.97281e-01,4.28128e-01,9.99940e-01
7.961162960e-01,4.00773e-01,9.99999e-01,9.25014e-01,9.95175e-01,4.35363e-01,9.99943e-01
8.000968774e-01,4.21872e-01,9.99999e-01,9.58590e-01,9.94442e-01,4.42573e-01,9.99939e-01
8.040973618e-01,4.37567e-01,9.99999e-01,9.78369e-01,9.94438e-01,4.49757e-01,9.99953e-01
8.081178486e-01,4.46660e-01,9.99999e-01,9.89993e-01,9.87467e-01,4.56912e-01,9.99953e-01
8.121584379e-01,4.38855e-01,9.99999e-01,9.96912e-01,9.48794e-01,4.64036e-01,9.99824e-01
8.162192301e-01,4.42149e-01,9.99999e-01,9.99317e-01,9.39737e-01,4.71127e-01,9.99340e-01
8.203003262e-01,4.63156e-01,9.99999e-01,9.99989e-01,9.69330e-01,4.78183e-01,9.99227e-01
8.244018279e-01,4.64458e-01,9.99999e-01,9.99999e-01,9.57834e-01,4.85202e-01,9.99384e-01
8.285238370e-01,4.73993e-01,9.99999e-01,9.99999e-01,9.63505e-01,4.92183e-01,9.99516e-01
8.326664562e-01,4.80649e-01,9.99999e-01,9.99999e-01,9.63178e-01,4.99123e-01,9.99799e-01
8.368297885e-01,4.92632e-01,9.99999e-01,9.99999e-01,9.73583e-01,5.06022e-01,9.99953e-01
8.410139374e-01,5.04774e-01,9.99999e-01,9.99999e-01,9.84228e-01,5.12876e-01,9.99972e-01
8.452190071e-01,5.15646e-01,9.99999e-01,9.99999e-01,9.92242e-01,5.19685e-01,9.99983e-01
8.494451021e-01,5.24065e-01,9.99999e-01,9.99999e-01,9.95486e-01,5.26448e-01,9.99986e-01
8.536923276e-01,5.31736e-01,9.99999e-01,9.99999e-01,9.97332e-01,5.33162e-01,9.99991e-01
8.579607893e-01,5.38938e-01,9.99999e-01,9.99999e-01,9.98354e-01,5.39827e-01,9.99997e-01
8.622505932e-01,5.45870e-01,9.99999e-01,9.99999e-01,9.98955e-01,5.46441e-01,9.99999e-01
8.665618462e-01,5.05378e-01,9.99999e-01,9.14444e-01,9.99352e-01,5.53003e-01,9.99999e-01
8.708946554e-01,3.49652e-01,9.99999e-01,6.25368e-01,9.99258e-01,5.59511e-01,9.99999e-01
8.752491287e-01,3.86949e-01,9.99999e-01,6.84352e-01,9.99008e-01,5.65966e-01,9.99998e-01
8.796253743e-01,4.63773e-01,9.99999e-01,8.11352e-01,9.98625e-01,5.72365e-01,9.99996e-01
8.840235012e-01,5.18323e-01,9.99999e-01,8.97045e-01,9.98430e-01,5.78708e-01,9.99989e-01
8.884436187e-01,5.57295e-01,9.99999e-01,9.58127e-01,9.94241e-01,5.84995e-01,9.99972e-01
8.928858368e-01,5.46911e-01,9.99999e-01,9.82810e-01,9.41203e-01,5.91223e-01,9.99842e-01
8.973502660e-01,5.34263e-01,9.99999e-01,9.95810e-01,8.98714e-01,5.97392e-01,9.99197e-01
9.018370173e-01,5.70608e-01,9.99999e-01,9.99537e-01,9.47108e-01,6.03502e-01,9.98738e-01
9.063462024e-01,5.73587e-01,9.99999e-01,9.88043e-01,9.53002e-01,6.09553e-01,9.98891e-01
9.108779334e-01,5.55272e-01,9.99999e-01,9.72983e-01,9.27821e-01,6.15542e-01,9.98848e-01
9.154323231e-01,5.66716e-01,9.99999e-01,9.93622e-01,9.18467e-01,6.21470e-01,9.99047e-01
9.200094847e-01,5.36956e-01,9.99999e-01,9.11460e-01,9.35640e-01,6.27337e-01,9.99466e-01
9.246095321e-01,4.99898e-01,9.99999e-01,8.74562e-01,9.00735e-01,6.33141e-01,9.99385e-01
9.292325798e-01,2.91465e-01,9.99999e-01,9.00073e-01,5.01464e-01,6.38883e-01,9.97607e-01
9.338787427e-01,2.40906e-01,9.99999e-01,9.03505e-01,4.12617e-01,6.44562e-01,9.90149e-01
9.385481364e-01,4.19194e-01,9.99999e-01,9.28067e-01,6.99333e-01,6.50178e-01,9.88295e-01
9.432408771e-01,3.78866e-01,9.99999e-01,9.55359e-01,6.09119e-01,6.55731e-01,9.89894e-01
9.479570815e-01,3.25014e-01,9.99999e-01,9.76821e-01,5.06609e-01,6.61219e-01,9.91767e-01
9.526968669e-01,3.93232e-01,9.99999e-01,9.88769e-01,5.98885e-01,6.66644e-01,9.94970e-01
9.574603512e-01,4.14411e-01,9.99999e-01,9.95184e-01,6.21010e-01,6.72005e-01,9.97441e-01
9.622476530e-01,4.57858e-01,9.99999e-01,9.98496e-01,6.78146e-01,6.77302e-01,9.98230e-01
9.670588912e-01,5.44496e-01,9.99999e-01,9.99549e-01,7.99059e-01,6.82535e-01,9.98789e-01
9.718941857e-01,5.96844e-01,9.99999e-01,9.99968e-01,8.68677e-01,6.87704e-01,9.99108e-01
9.767536566e-01,6.15952e-01,9.99999e-01,9.99999e-01,8.89670e-01,6.92808e-01,9.99318e-01
9.816374249e-01,6.39820e-01,9.99999e-01,9.99999e-01,9.17061e-01,6.97849e-01,9.99763e-01
9.865456120e-01,6.65784e-01,9.99999e-01,9.99999e-01,9.47342e-01,7.02825e-01,9.99950e-01
9.914783401e-01,6.84450e-01,9.99999e-01,9.99999e-01,9.67106e-01,7.07738e-01,9.99985e-01
9.964357318e-01,6.99724e-01,9.99999e-01,9.99999e-01,9.81956e-01,7.12587e-01,9.99991e-01
1.001417910e+00,7.09580e-01,9.99999e-01,9.99999e-01,9.89149e-01,7.17373e-01,9.99987e-01
1.006425000e+00,7.17603e-01,9.99999e-01,9.99999e-01,9.93796e-01,7.22095e-01,9.99982e-01
1.011457125e+00,7.23944e-01,9.99999e-01,9.99999e-01,9.96149e-01,7.26754e-01,9.99983e-01
1.016514411e+00,7.29428e-01,9.99999e-01,9.99999e-01,9.97383e-01,7.31350e-01,9.99988e-01
1.021596983e+00,7.34291e-01,9.99999e-01,9.99932e-01,9.97913e-01,7.35884e-01,9.99988e-01
1.026704968e+00,7.35680e-01,9.99999e-01,9.95309e-01,9.98372e-01,7.40355e-01,9.99992e-01
1.031838492e+00,7.04651e-01,9.99999e-01,9.47220e-01,9.98817e-01,7.44764e-01,9.99997e-01
1.036997685e+00,9.33824e-02,9.99999e-01,1.24726e-01,9.99296e-01,7.49112e-01,9.99999e-01
1.042182673e+00,5.75161e-02,9.99999e-01,7.63978e-02,9.99160e-01,7.53399e-01,9.99999e-01
1.047393587e+00,7.59815e-02,9.99999e-01,1.00387e-01,9.98887e-01,7.57624e-01,9.99999e-01
1.052630555e+00,1.04971e-03,9.99999e-01,1.37945e-03,9.98473e-01,7.61789e-01,9.99999e-01
1.057893707e+00,2.99709e-03,9.99999e-01,3.91962e-03,9.97450e-01,7.65894e-01,9.99998e-01
1.063183176e+00,1.26193e-02,9.99999e-01,1.64374e-02,9.95809e-01,7.69940e-01,9.99997e-01
1.068499092e+00,4.23560e-02,9.99999e-01,5.50429e-02,9.92994e-01,7.73926e-01,9.99994e-01
1.073841587e+00,1.23404e-01,9.99999e-01,1.59738e-01,9.91798e-01,7.77854e-01,9.99989e-01
1.079210795e+00,2.42317e-01,9.99999e-01,3.12920e-01,9.89515e-01,7.81723e-01,9.99971e-01
1.084606849e+00,4.07294e-01,9.99999e-01,5.26407e-01,9.84157e-01,7.85535e-01,9.99932e-01
1.090029883e+00,5.52837e-01,9.99999e-01,7.16264e-01,9.77265e-01,7.89289e-01,9.99859e-01
1.095480033e+00,6.32309e-01,9.99999e-01,8.48409e-01,9.39307e-01,7.92987e-01,9.99746e-01
1.100957433e+00,6.28131e-01,9.99999e-01,9.23799e-01,8.53054e-01,7.96629e-01,9.99534e-01
1.106462220e+00,5.18490e-01,9.99999e-01,9.67772e-01,6.69083e-01,8.00214e-01,9.99210e-01
1.111994531e+00,3.43093e-01,9.99999e-01,9.87930e-01,4.32536e-01,8.03745e-01,9.97905e-01
1.117554504e+00,2.07952e-01,9.99999e-01,9.97047e-01,2.60172e-01,8.07221e-01,9.92459e-01
1.123142276e+00,3.01537e-01,9.99999e-01,9.99806e-01,3.78739e-01,8.10643e-01,9.82212e-01
1.128757988e+00,4.23084e-01,9.99999e-01,9.99999e-01,5.30656e-01,8.14011e-01,9.79451e-01
1.134401778e+00,2.26939e-01,9.99999e-01,9.99999e-01,2.82605e-01,8.17326e-01,9.82500e-01
1.140073787e+00,5.51950e-01,9.99999e-01,9.99999e-01,6.82181e-01,8.20590e-01,9.85992e-01
1.145774156e+00,3.70306e-01,9.99999e-01,9.99999e-01,4.55350e-01,8.23801e-01,9.87170e-01
1.151503026e+00,3.43027e-01,9.99999e-01,9.99999e-01,4.17798e-01,8.26961e-01,9.92832e-01
1.157260541e+00,3.95181e-01,9.99999e-01,9.99999e-01,4.77106e-01,8.30070e-01,9.97851e-01
1.163046844e+00,4.81396e-01,9.99999e-01,9.99999e-01,5.78168e-01,8.33129e-01,9.99390e-01
1.168862078e+00,5.70085e-01,9.99999e-01,9.99999e-01,6.82020e-01,8.36139e-01,9.99685e-01
1.174706389e+00,6.62241e-01,9.99999e-01,9.99999e-01,7.89556e-01,8.39100e-01,9.99583e-01
1.180579921e+00,7.28644e-01,9.99999e-01,9.99999e-01,8.65904e-01,8.42013e-01,9.99370e-01
1.186482820e+00,7.78276e-01,9.99999e-01,9.99990e-01,9.21773e-01,8.44877e-01,9.99353e-01
1.192415234e+00,7.94694e-01,9.99999e-01,9.83386e-01,9.53553e-01,8.47695e-01,9.99515e-01
1.198377311e+00,4.56408e-01,9.99999e-01,5.55184e-01,9.60682e-01,8.50466e-01,9.99542e-01
1.204369197e+00,2.21415e-13,9.99999e-01,2.65371e-13,9.62781e-01,8.53192e-01,9.99586e-01
1.210391043e+00,4.85842e-50,9.99999e-01,5.79350e-50,9.64375e-01,8.55872e-01,9.99748e-01
1.216442998e+00,1.74743e-43,9.99999e-01,2.07497e-43,9.69640e-01,8.58507e-01,9.99845e-01
1.222525213e+00,7.54627e-43,9.99999e-01,8.87341e-43,9.76274e-01,8.61098e-01,9.99903e-01
1.228637839e+00,3.42638e-33,9.99999e-01,4.01322e-33,9.83462e-01,8.63645e-01,9.99955e-01
