#,Wave/freq,Total,N2,CO2,H2O,Rayleigh,CIA
4.000000000e-01,4.26770e-07,9.99999e-01,9.99999e-01,9.99971e-01,4.26782e-07,9.99999e-01
4.020000000e-01,5.70355e-07,9.99999e-01,9.99999e-01,9.99982e-01,5.70365e-07,9.99999e-01
4.040100000e-01,7.57672e-07,9.99999e-01,9.99999e-01,9.99992e-01,7.57677e-07,9.99999e-01
4.060300500e-01,1.00087e-06,9.99999e-01,9.99999e-01,9.99997e-01,1.00087e-06,9.99999e-01
4.080602003e-01,1.31488e-06,9.99999e-01,9.99999e-01,9.99998e-01,1.31488e-06,9.99999e-01
4.101005013e-01,1.71812e-06,9.99999e-01,9.99999e-01,9.99999e-01,1.71812e-06,9.99999e-01
4.121510038e-01,2.23319e-06,9.99999e-01,9.99999e-01,9.99998e-01,2.23319e-06,9.99999e-01
4.142117588e-01,2.88765e-06,9.99999e-01,9.99999e-01,9.99991e-01,2.88767e-06,9.99999e-01
4.162828176e-01,3.71493e-06,9.99999e-01,9.99999e-01,9.99964e-01,3.71506e-06,9.99999e-01
4.183642317e-01,4.75569e-06,9.99999e-01,9.99999e-01,9.99978e-01,4.75579e-06,9.99999e-01
4.204560528e-01,6.05836e-06,9.99999e-01,9.99999e-01,9.99986e-01,6.05844e-06,9.99999e-01
4.225583331e-01,7.68104e-06,9.99999e-01,9.99999e-01,9.99994e-01,7.68108e-06,9.99999e-01
4.246711247e-01,9.69273e-06,9.99999e-01,9.99999e-01,9.99995e-01,9.69276e-06,9.99999e-01
4.267944804e-01,1.21752e-05,9.99999e-01,9.99999e-01,9.99993e-01,1.21752e-05,9.99999e-01
4.289284528e-01,1.52247e-05,9.99999e-01,9.99999e-01,9.99995e-01,1.52248e-05,9.99999e-01
4.310730950e-01,1.89543e-05,9.99999e-01,9.99999e-01,9.99997e-01,1.89543e-05,9.99999e-01
4.332284605e-01,2.34955e-05,9.99999e-01,9.99999e-01,9.99999e-01,2.34955e-05,9.99999e-01
4.353946028e-01,2.90014e-05,9.99999e-01,9.99999e-01,9.99999e-01,2.90014e-05,9.99999e-01
4.375715758e-01,3.56489e-05,9.99999e-01,9.99999e-01,9.99995e-01,3.56491e-05,9.99999e-01
4.397594337e-01,4.36408e-05,9.99999e-01,9.99999e-01,9.99968e-01,4.36422e-05,9.99999e-01
4.419582309e-01,5.32060e-05,9.99999e-01,9.99999e-01,9.99841e-01,5.32144e-05,9.99999e-01
4.441680220e-01,6.46246e-05,9.99999e-01,9.99999e-01,9.99878e-01,6.46324e-05,9.99999e-01
4.463888621e-01,7.81897e-05,9.99999e-01,9.99999e-01,9.99872e-01,7.81996e-05,9.99999e-01
4.486208064e-01,9.42518e-05,9.99999e-01,9.99999e-01,9.99921e-01,9.42592e-05,9.99999e-01
4.508639105e-01,1.13194e-04,9.99999e-01,9.99999e-01,9.99962e-01,1.13199e-04,9.99999e-01
4.531182300e-01,1.35451e-04,9.99999e-01,9.99999e-01,9.99985e-01,1.35453e-04,9.99999e-01
4.553838212e-01,1.61506e-04,9.99999e-01,9.99999e-01,9.99989e-01,1.61508e-04,9.99999e-01
4.576607403e-01,1.91906e-04,9.99999e-01,9.99999e-01,9.99994e-01,1.91907e-04,9.99999e-01
4.599490440e-01,2.27252e-04,9.99999e-01,9.99999e-01,9.99996e-01,2.27253e-04,9.99999e-01
4.622487892e-01,2.68211e-04,9.99999e-01,9.99999e-01,9.99998e-01,2.68212e-04,9.99999e-01
4.645600332e-01,3.15517e-04,9.99999e-01,9.99999e-01,9.99997e-01,3.15518e-04,9.99999e-01
4.668828333e-01,3.69965e-04,9.99999e-01,9.99999e-01,9.99962e-01,3.69979e-04,9.99999e-01
4.692172475e-01,4.32444e-04,9.99999e-01,9.99999e-01,9.99920e-01,4.32478e-04,9.99999e-01
4.715633337e-01,5.03952e-04,9.99999e-01,9.99999e-01,9.99947e-01,5.03979e-04,9.99999e-01
4.739211504e-01,5.85499e-04,9.99999e-01,9.99999e-01,9.99949e-01,5.85528e-04,9.99999e-01
4.762907561e-01,6.78243e-04,9.99999e-01,9.99999e-01,9.99973e-01,6.78260e-04,9.99999e-01
4.786722099e-01,7.83393e-04,9.99999e-01,9.99999e-01,9.99989e-01,7.83401e-04,9.99999e-01
4.810655710e-01,9.02266e-04,9.99999e-01,9.99999e-01,9.99996e-01,9.02268e-04,9.99999e-01
4.834708988e-01,1.03624e-03,9.99999e-01,9.99999e-01,9.99968e-01,1.03628e-03,9.99999e-01
4.858882533e-01,1.18687e-03,9.99999e-01,9.99999e-01,9.99943e-01,1.18694e-03,9.99999e-01
4.883176946e-01,1.35579e-03,9.99999e-01,9.99999e-01,9.99952e-01,1.35586e-03,9.99999e-01
4.907592831e-01,1.54469e-03,9.99999e-01,9.99999e-01,9.99957e-01,1.54476e-03,9.99999e-01
4.932130795e-01,1.75539e-03,9.99999e-01,9.99999e-01,9.99969e-01,1.75545e-03,9.99999e-01
4.956791449e-01,1.98981e-03,9.99999e-01,9.99999e-01,9.99983e-01,1.98984e-03,9.99999e-01
4.981575406e-01,2.24977e-03,9.99999e-01,9.99999e-01,9.99919e-01,2.24995e-03,9.99999e-01
5.006483283e-01,2.53736e-03,9.99999e-01,9.99999e-01,9.99790e-01,2.53790e-03,9.99998e-01
5.031515699e-01,2.85286e-03,9.99999e-01,9.99999e-01,9.98948e-01,2.85589e-03,9.99988e-01
5.056673278e-01,3.20443e-03,9.99999e-01,9.99999e-01,9.99446e-01,3.20625e-03,9.99986e-01
5.081956644e-01,3.58884e-03,9.99999e-01,9.99999e-01,9.99302e-01,3.59137e-03,9.99991e-01
5.107366428e-01,4.01185e-03,9.99999e-01,9.99999e-01,9.99528e-01,4.01374e-03,9.99998e-01
5.132903260e-01,4.47475e-03,9.99999e-01,9.99999e-01,9.99730e-01,4.47595e-03,9.99999e-01
5.158567776e-01,4.98009e-03,9.99999e-01,9.99999e-01,9.99886e-01,4.98065e-03,9.99999e-01
5.184360615e-01,5.53033e-03,9.99999e-01,9.99999e-01,9.99954e-01,5.53058e-03,9.99999e-01
5.210282418e-01,6.12843e-03,9.99999e-01,9.99999e-01,9.99982e-01,6.12853e-03,9.99999e-01
5.236333830e-01,6.77691e-03,9.99999e-01,9.99999e-01,9.99931e-01,6.77738e-03,9.99999e-01
5.262515499e-01,7.47971e-03,9.99999e-01,9.99999e-01,9.99956e-01,7.48003e-03,9.99998e-01
5.288828077e-01,8.23914e-03,9.99999e-01,9.99999e-01,9.99960e-01,8.23947e-03,9.99999e-01
5.315272217e-01,9.05838e-03,9.99999e-01,9.99999e-01,9.99965e-01,9.05869e-03,9.99999e-01
5.341848578e-01,9.94050e-03,9.99999e-01,9.99999e-01,9.99976e-01,9.94073e-03,9.99999e-01
5.368557821e-01,1.08878e-02,9.99999e-01,9.99999e-01,9.99919e-01,1.08887e-02,9.99999e-01
5.395400610e-01,1.19020e-02,9.99999e-01,9.99999e-01,9.99709e-01,1.19055e-02,9.99996e-01
5.422377613e-01,1.29895e-02,9.99999e-01,9.99999e-01,9.99629e-01,1.29944e-02,9.99992e-01
5.449489501e-01,1.41534e-02,9.99999e-01,9.99999e-01,9.99653e-01,1.41584e-02,9.99992e-01
5.476736949e-01,1.53958e-02,9.99999e-01,9.99999e-01,9.99694e-01,1.54006e-02,9.99996e-01
5.504120634e-01,1.67202e-02,9.99999e-01,9.99999e-01,9.99778e-01,1.67239e-02,9.99998e-01
5.531641237e-01,1.81294e-02,9.99999e-01,9.99999e-01,9.99888e-01,1.81314e-02,9.99999e-01
5.559299443e-01,1.96250e-02,9.99999e-01,9.99999e-01,9.99945e-01,1.96260e-02,9.99999e-01
5.587095940e-01,2.12099e-02,9.99999e-01,9.99999e-01,9.99965e-01,2.12106e-02,9.99999e-01
5.615031420e-01,2.28871e-02,9.99999e-01,9.99999e-01,9.99961e-01,2.28880e-02,9.99999e-01
5.643106577e-01,2.46598e-02,9.99999e-01,9.99999e-01,9.99956e-01,2.46609e-02,9.99999e-01
5.671322110e-01,2.65180e-02,9.99999e-01,9.99999e-01,9.99473e-01,2.65321e-02,9.99994e-01
5.699678720e-01,2.84880e-02,9.99999e-01,9.99999e-01,9.99451e-01,2.85040e-02,9.99985e-01
5.728177114e-01,3.05612e-02,9.99999e-01,9.99999e-01,9.99424e-01,3.05791e-02,9.99987e-01
5.756818000e-01,3.27423e-02,9.99999e-01,9.99999e-01,9.99472e-01,3.27598e-02,9.99992e-01
5.785602090e-01,3.50322e-02,9.99999e-01,9.99999e-01,9.99540e-01,3.50483e-02,9.99997e-01
5.814530100e-01,3.74294e-02,9.99999e-01,9.99999e-01,9.99537e-01,3.74467e-02,9.99998e-01
5.843602750e-01,3.99347e-02,9.99999e-01,9.99999e-01,9.99446e-01,3.99569e-02,9.99996e-01
5.872820764e-01,4.23766e-02,9.99999e-01,9.99999e-01,9.95237e-01,4.25808e-02,9.99966e-01
5.902184868e-01,4.50563e-02,9.99999e-01,9.99999e-01,9.94269e-01,4.53201e-02,9.99908e-01
5.931695792e-01,4.79764e-02,9.99999e-01,9.99999e-01,9.95940e-01,4.81762e-02,9.99912e-01
5.961354271e-01,5.09207e-02,9.99999e-01,9.99999e-01,9.95557e-01,5.11505e-02,9.99949e-01
5.991161043e-01,5.40677e-02,9.99999e-01,9.99999e-01,9.96761e-01,5.42442e-02,9.99983e-01
6.021116848e-01,5.73527e-02,9.99999e-01,9.99999e-01,9.98163e-01,5.74583e-02,9.99997e-01
6.051222432e-01,6.07372e-02,9.99999e-01,9.99999e-01,9.99070e-01,6.07937e-02,9.99999e-01
6.081478544e-01,6.42253e-02,9.99999e-01,9.99999e-01,9.99598e-01,6.42510e-02,9.99999e-01
6.111885937e-01,6.78194e-02,9.99999e-01,9.99999e-01,9.99830e-01,6.78309e-02,9.99999e-01
6.142445367e-01,7.15281e-02,9.99999e-01,9.99999e-01,9.99923e-01,7.15335e-02,9.99999e-01
6.173157594e-01,7.53560e-02,9.99999e-01,9.99999e-01,9.99957e-01,7.53591e-02,9.99999e-01
6.204023382e-01,7.93049e-02,9.99999e-01,9.99999e-01,9.99963e-01,7.93077e-02,9.99999e-01
6.235043498e-01,8.33658e-02,9.99999e-01,9.99999e-01,9.99841e-01,8.33790e-02,9.99999e-01
6.266218716e-01,8.74997e-02,9.99999e-01,9.99999e-01,9.99172e-01,8.75726e-02,9.99993e-01
6.297549810e-01,9.18592e-02,9.99999e-01,9.99999e-01,9.99696e-01,9.18881e-02,9.99987e-01
6.329037559e-01,9.62661e-02,9.99999e-01,9.99999e-01,9.99401e-01,9.63246e-02,9.99990e-01
6.360682746e-01,1.00829e-01,9.99999e-01,9.99999e-01,9.99488e-01,1.00881e-01,9.99994e-01
6.392486160e-01,1.05487e-01,9.99999e-01,9.99999e-01,9.99338e-01,1.05557e-01,9.99997e-01
6.424448591e-01,1.10252e-01,9.99999e-01,9.99999e-01,9.99108e-01,1.10351e-01,9.99995e-01
6.456570834e-01,1.14783e-01,9.99999e-01,9.99999e-01,9.95869e-01,1.15262e-01,9.99974e-01
6.488853688e-01,1.19918e-01,9.99999e-01,9.99999e-01,9.96999e-01,1.20287e-01,9.99935e-01
6.521297956e-01,1.25036e-01,9.99999e-01,9.99999e-01,9.96941e-01,1.25426e-01,9.99946e-01
6.553904446e-01,1.30272e-01,9.99999e-01,9.99999e-01,9.96945e-01,1.30676e-01,9.99960e-01
6.586673968e-01,1.35679e-01,9.99999e-01,9.99999e-01,9.97391e-01,1.36036e-01,9.99986e-01
6.619607338e-01,1.41297e-01,9.99999e-01,9.99999e-01,9.98546e-01,1.41503e-01,9.99996e-01
6.652705375e-01,1.46947e-01,9.99999e-01,9.99999e-01,9.99127e-01,1.47075e-01,9.99998e-01
6.685968902e-01,1.52694e-01,9.99999e-01,9.99999e-01,9.99629e-01,1.52751e-01,9.99999e-01
6.719398746e-01,1.58497e-01,9.99999e-01,9.99999e-01,9.99811e-01,1.58526e-01,9.99999e-01
6.752995740e-01,1.64383e-01,9.99999e-01,9.99999e-01,9.99900e-01,1.64400e-01,9.99999e-01
6.786760719e-01,1.70343e-01,9.99999e-01,9.99999e-01,9.99851e-01,1.70368e-01,9.99999e-01
6.820694522e-01,1.76385e-01,9.99999e-01,9.99999e-01,9.99747e-01,1.76429e-01,9.99998e-01
6.854797995e-01,1.82520e-01,9.99999e-01,9.99999e-01,9.99673e-01,1.82580e-01,9.99996e-01
6.889071985e-01,1.88665e-01,9.99999e-01,9.99999e-01,9.99202e-01,1.88817e-01,9.99992e-01
6.923517345e-01,1.92616e-01,9.99999e-01,9.99999e-01,9.87135e-01,1.95138e-01,9.99937e-01
6.958134932e-01,2.00180e-01,9.99999e-01,9.99999e-01,9.93394e-01,2.01539e-01,9.99863e-01
6.992925606e-01,2.06666e-01,9.99999e-01,9.99999e-01,9.93628e-01,2.08017e-01,9.99876e-01
7.027890234e-01,2.12873e-01,9.99999e-01,9.99999e-01,9.92183e-01,2.14570e-01,9.99905e-01
7.063029686e-01,2.19728e-01,9.99999e-01,9.99999e-01,9.93420e-01,2.21193e-01,9.99952e-01
7.098344834e-01,2.26439e-01,9.99999e-01,9.99999e-01,9.93686e-01,2.27884e-01,9.99971e-01
7.133836558e-01,2.32637e-01,9.99999e-01,9.99999e-01,9.91518e-01,2.34639e-01,9.99944e-01
7.169505741e-01,2.25436e-01,9.99999e-01,9.99999e-01,9.34055e-01,2.41455e-01,9.99567e-01
7.205353270e-01,2.40101e-01,9.99999e-01,9.99999e-01,9.67604e-01,2.48329e-01,9.99237e-01
7.241380036e-01,2.44515e-01,9.99999e-01,9.99999e-01,9.58549e-01,2.55257e-01,9.99341e-01
7.277586936e-01,2.52278e-01,9.99999e-01,9.99999e-01,9.62547e-01,2.62235e-01,9.99461e-01
7.313974871e-01,2.58532e-01,9.99999e-01,9.99999e-01,9.60397e-01,2.69261e-01,9.99747e-01
7.350544745e-01,2.70268e-01,9.99999e-01,9.99999e-01,9.78147e-01,2.76330e-01,9.99911e-01
7.387297469e-01,2.78861e-01,9.99999e-01,9.99999e-01,9.83882e-01,2.83440e-01,9.99959e-01
7.424233956e-01,2.88289e-01,9.99999e-01,9.99999e-01,9.92096e-01,2.90588e-01,9.99992e-01
7.461355126e-01,2.96339e-01,9.99999e-01,9.99999e-01,9.95199e-01,2.97768e-01,9.99998e-01
7.498661902e-01,3.04299e-01,9.99999e-01,9.99999e-01,9.97767e-01,3.04980e-01,9.99999e-01
7.536155211e-01,3.11875e-01,9.99999e-01,9.99999e-01,9.98901e-01,3.12218e-01,9.99999e-01
7.573835987e-01,3.19299e-01,9.99999e-01,9.99999e-01,9.99434e-01,3.19480e-01,9.99999e-01
7.611705167e-01,3.26648e-01,9.99999e-01,9.99999e-01,9.99648e-01,3.26762e-01,9.99999e-01
7.649763693e-01,3.33988e-01,9.99999e-01,9.99999e-01,9.99779e-01,3.34062e-01,9.99999e-01
7.688012511e-01,3.41323e-01,9.99999e-01,9.99999e-01,9.99846e-01,3.41376e-01,9.99999e-01
7.726452574e-01,3.48656e-01,9.99999e-01,9.99999e-01,9.99873e-01,3.48700e-01,9.99999e-01
7.765084837e-01,3.55969e-01,9.99999e-01,9.99999e-01,9.99818e-01,3.56033e-01,9.99999e-01
7.803910261e-01,3.46253e-01,9.99999e-01,9.53606e-01,9.99218e-01,3.63370e-01,9.99998e-01
7.842929812e-01,3.00623e-01,9.99999e-01,8.13020e-01,9.97272e-01,3.70709e-01,9.99994e-01
7.882144461e-01,3.01113e-01,9.99999e-01,8.00757e-01,9.94422e-01,3.78047e-01,9.99961e-01
7.921555184e-01,3.37023e-01,9.99999e-01,8.77167e-01,9.96949e-01,3.85381e-01,9.99932e-01
7.961162960e-01,3.57884e-01,9.99999e-01,9.16296e-01,9.94568e-01,3.92708e-01,9.99936e-01
8.000968774e-01,3.79085e-01,9.99999e-01,9.53644e-01,9.93755e-01,4.00026e-01,9.99932e-01
8.040973618e-01,3.94968e-01,9.99999e-01,9.75782e-01,9.93746e-01,4.07332e-01,9.99948e-01
8.081178486e-01,4.04174e-01,9.99999e-01,9.88774e-01,9.85891e-01,4.14622e-01,9.99947e-01
8.121584379e-01,3.96228e-01,9.99999e-01,9.96546e-01,9.42557e-01,4.21896e-01,9.99802e-01
8.162192301e-01,3.99655e-01,9.99999e-01,9.99236e-01,9.32658e-01,4.29149e-01,9.99258e-01
8.203003262e-01,4.20963e-01,9.99999e-01,9.99988e-01,9.65516e-01,4.36380e-01,9.99131e-01
8.244018279e-01,4.22459e-01,9.99999e-01,9.99999e-01,9.53028e-01,4.43587e-01,9.99308e-01
8.285238370e-01,4.32079e-01,9.99999e-01,9.99999e-01,9.59062e-01,4.50766e-01,9.99456e-01
8.326664562e-01,4.38932e-01,9.99999e-01,9.99999e-01,9.58754e-01,4.57917e-01,9.99775e-01
8.368297885e-01,4.51247e-01,9.99999e-01,9.99999e-01,9.70397e-01,4.65037e-01,9.99948e-01
8.410139374e-01,4.63760e-01,9.99999e-01,9.99999e-01,9.82314e-01,4.72123e-01,9.99969e-01
8.452190071e-01,4.74997e-01,9.99999e-01,9.99999e-01,9.91299e-01,4.79174e-01,9.99981e-01
8.494451021e-01,4.83717e-01,9.99999e-01,9.99999e-01,9.94930e-01,4.86188e-01,9.99985e-01
8.536923276e-01,4.91683e-01,9.99999e-01,9.99999e-01,9.97006e-01,4.93163e-01,9.99990e-01
8.579607893e-01,4.99173e-01,9.99999e-01,9.99999e-01,9.98152e-01,5.00098e-01,9.99997e-01
8.622505932e-01,5.06396e-01,9.99999e-01,9.99999e-01,9.98827e-01,5.06990e-01,9.99999e-01
8.665618462e-01,4.66150e-01,9.99999e-01,9.07821e-01,9.99272e-01,5.13838e-01,9.99999e-01
8.708946554e-01,3.08155e-01,9.99999e-01,5.92346e-01,9.99166e-01,5.20641e-01,9.99999e-01
8.752491287e-01,3.44854e-01,9.99999e-01,6.54581e-01,9.98885e-01,5.27396e-01,9.99998e-01
8.796253743e-01,4.22022e-01,9.99999e-01,7.91328e-01,9.98452e-01,5.34104e-01,9.99996e-01
8.840235012e-01,4.77912e-01,9.99999e-01,8.85316e-01,9.98233e-01,5.40761e-01,9.99988e-01
8.884436187e-01,5.18405e-01,9.99999e-01,9.53241e-01,9.93487e-01,5.47368e-01,9.99969e-01
8.928858368e-01,5.07462e-01,9.99999e-01,9.80747e-01,9.34054e-01,5.53923e-01,9.99823e-01
8.973502660e-01,4.94429e-01,9.99999e-01,9.95311e-01,8.87079e-01,5.60424e-01,9.99097e-01
9.018370173e-01,5.32403e-01,9.99999e-01,9.99483e-01,9.40993e-01,5.66871e-01,9.98582e-01
9.063462024e-01,5.35352e-01,9.99999e-01,9.86509e-01,9.47270e-01,5.73262e-01,9.98754e-01
9.108779334e-01,5.16288e-01,9.99999e-01,9.69738e-01,9.19283e-01,5.79597e-01,9.98705e-01
9.154323231e-01,5.28260e-01,9.99999e-01,9.92871e-01,9.08915e-01,5.85875e-01,9.98929e-01
9.200094847e-01,4.97743e-01,9.99999e-01,9.01617e-01,9.28090e-01,5.92095e-01,9.99400e-01
9.246095321e-01,4.58891e-01,9.99999e-01,8.60392e-01,8.88917e-01,5.98257e-01,9.99309e-01
9.292325798e-01,2.51452e-01,9.99999e-01,8.88400e-01,4.62411e-01,6.04358e-01,9.96672e-01
9.338787427e-01,2.03918e-01,9.99999e-01,8.92436e-01,3.73222e-01,6.10400e-01,9.88026e-01
9.385481364e-01,3.77964e-01,9.99999e-01,9.19627e-01,6.71415e-01,6.16381e-01,9.86852e-01
9.432408771e-01,3.37774e-01,9.99999e-01,9.50052e-01,5.75752e-01,6.22300e-01,9.88647e-01
9.479570815e-01,2.85092e-01,9.99999e-01,9.74012e-01,4.69436e-01,6.28158e-01,9.90750e-01
9.526968669e-01,3.52166e-01,9.99999e-01,9.87408e-01,5.64989e-01,6.33954e-01,9.94348e-01
9.574603512e-01,3.72582e-01,9.99999e-01,9.94599e-01,5.87012e-01,6.39687e-01,9.97124e-01
9.622476530e-01,4.16459e-01,9.99999e-01,9.98314e-01,6.47604e-01,6.45357e-01,9.98010e-01
9.670588912e-01,5.05407e-01,9.99999e-01,9.99495e-01,7.77819e-01,6.50964e-01,9.98639e-01
9.718941857e-01,5.59952e-01,9.99999e-01,9.99964e-01,8.53806e-01,6.56508e-01,9.98997e-01
9.767536566e-01,5.80105e-01,9.99999e-01,9.99999e-01,8.76979e-01,6.61988e-01,9.99233e-01
9.816374249e-01,6.05439e-01,9.99999e-01,9.99999e-01,9.07395e-01,6.67403e-01,9.99734e-01
9.865456120e-01,6.33084e-01,9.99999e-01,9.99999e-01,9.41083e-01,6.72755e-01,9.99944e-01
9.914783401e-01,6.53040e-01,9.99999e-01,9.99999e-01,9.63139e-01,6.78043e-01,9.99984e-01
9.964357318e-01,6.69433e-01,9.99999e-01,9.99999e-01,9.79761e-01,6.83267e-01,9.99990e-01
1.001417910e+00,6.80036e-01,9.99999e-01,9.99999e-01,9.87825e-01,6.88427e-01,9.99985e-01
1.006425000e+00,6.88677e-01,9.99999e-01,9.99999e-01,9.93032e-01,6.93522e-01,9.99980e-01
1.011457125e+00,6.95523e-01,9.99999e-01,9.99999e-01,9.95678e-01,6.98554e-01,9.99981e-01
1.016514411e+00,7.01445e-01,9.99999e-01,9.99999e-01,9.97061e-01,7.03521e-01,9.99986e-01
1.021596983e+00,7.06701e-01,9.99999e-01,9.99920e-01,9.97656e-01,7.08425e-01,9.99986e-01
1.026704968e+00,7.08179e-01,9.99999e-01,9.94692e-01,9.98171e-01,7.13265e-01,9.99991e-01
1.031838492e+00,6.75392e-01,9.99999e-01,9.41806e-01,9.98672e-01,7.18042e-01,9.99997e-01
1.036997685e+00,8.04240e-02,9.99999e-01,1.11343e-01,9.99210e-01,7.22755e-01,9.99999e-01
1.042182673e+00,4.19064e-02,9.99999e-01,5.76574e-02,9.99055e-01,7.27405e-01,9.99999e-01
1.047393587e+00,5.90971e-02,9.99999e-01,8.08224e-02,9.98749e-01,7.31992e-01,9.99999e-01
1.052630555e+00,5.29124e-04,9.99999e-01,7.19280e-04,9.98283e-01,7.36517e-01,9.99999e-01
1.057893707e+00,1.61030e-03,9.99999e-01,2.17712e-03,9.97131e-01,7.40980e-01,9.99998e-01
1.063183176e+00,7.81759e-03,9.99999e-01,1.05214e-02,9.95286e-01,7.45380e-01,9.99997e-01
1.068499092e+00,2.91238e-02,9.99999e-01,3.90922e-02,9.92127e-01,7.49720e-01,9.99994e-01
1.073841587e+00,9.61650e-02,9.99999e-01,1.28514e-01,9.90778e-01,7.53997e-01,9.99987e-01
1.079210795e+00,2.04610e-01,9.99999e-01,2.72702e-01,9.88225e-01,7.58215e-01,9.99968e-01
1.084606849e+00,3.65192e-01,9.99999e-01,4.87200e-01,9.82205e-01,7.62371e-01,9.99923e-01
1.090029883e+00,5.14062e-01,9.99999e-01,6.87726e-01,9.74430e-01,7.66468e-01,9.99842e-01
1.095480033e+00,5.97611e-01,9.99999e-01,8.31611e-01,9.31949e-01,7.70505e-01,9.99715e-01
1.100957433e+00,5.93037e-01,9.99999e-01,9.14889e-01,8.36318e-01,7.74483e-01,9.99476e-01
1.106462220e+00,4.78360e-01,9.99999e-01,9.63916e-01,6.36968e-01,7.78403e-01,9.99112e-01
1.111994531e+00,3.01937e-01,9.99999e-01,9.86468e-01,3.91688e-01,7.82264e-01,9.97645e-01
1.117554504e+00,1.73156e-01,9.99999e-01,9.96692e-01,2.22724e-01,7.86067e-01,9.91528e-01
1.123142276e+00,2.64066e-01,9.99999e-01,9.99783e-01,3.41180e-01,7.89814e-01,9.80027e-01
1.128757988e+00,3.82288e-01,9.99999e-01,9.99999e-01,4.93148e-01,7.93503e-01,9.76931e-01
1.134401778e+00,1.99536e-01,9.99999e-01,9.99999e-01,2.55333e-01,7.97137e-01,9.80350e-01
1.140073787e+00,5.13471e-01,9.99999e-01,9.99999e-01,6.51513e-01,8.00715e-01,9.84268e-01
1.145774156e+00,3.29941e-01,9.99999e-01,9.99999e-01,4.16250e-01,8.04238e-01,9.85590e-01
1.151503026e+00,3.03274e-01,9.99999e-01,9.99999e-01,3.78524e-01,8.07706e-01,9.91946e-01
1.157260541e+00,3.53501e-01,9.99999e-01,9.99999e-01,4.36873e-01,8.11120e-01,9.97584e-01
1.163046844e+00,4.40823e-01,9.99999e-01,9.99999e-01,5.41602e-01,8.14481e-01,9.99314e-01
1.168862078e+00,5.32214e-01,9.99999e-01,9.99999e-01,6.51024e-01,8.17789e-01,9.99646e-01
1.174706389e+00,6.29568e-01,9.99999e-01,9.99999e-01,7.67147e-01,8.21045e-01,9.99531e-01
1.180579921e+00,7.00785e-01,9.99999e-01,9.99999e-01,8.50811e-01,8.24249e-01,9.99292e-01
1.186482820e+00,7.54521e-01,9.99999e-01,9.99987e-01,9.12588e-01,8.27402e-01,9.99273e-01
1.192415234e+00,7.72326e-01,9.99999e-01,9.81236e-01,9.47967e-01,8.30504e-01,9.99455e-01
1.198377311e+00,4.42378e-01,9.99999e-01,5.51340e-01,9.55911e-01,8.33556e-01,9.99485e-01
1.204369197e+00,9.20534e-15,9.99999e-01,1.12834e-14,9.58278e-01,8.36559e-01,9.99534e-01
1.210391043e+00,5.71619e-56,9.99999e-01,6.96679e-56,9.60059e-01,8.39513e-01,9.99716e-01
1.216442998e+00,1.33777e-48,9.99999e-01,1.62273e-48,9.65974e-01,8.42419e-01,9.99826e-01
1.222525213e+00,6.92664e-48,9.99999e-01,8.31008e-48,9.73388e-01,8.45277e-01,9.99891e-01
1.228637839e+00,4.38067e-37,9.99999e-01,5.23225e-37,9.81437e-01,8.48088e-01,9.99949e-01
