#,Wave/freq,Total,N2,CO2,H2O,Rayleigh,CIA
4.000000000e-01,1.92678e-08,9.99999e-01,9.99999e-01,9.99965e-01,1.92684e-08,9.99999e-01
4.020000000e-01,2.73770e-08,9.99999e-01,9.99999e-01,9.99978e-01,2.73776e-08,9.99999e-01
4.040100000e-01,3.86163e-08,9.99999e-01,9.99999e-01,9.99990e-01,3.86167e-08,9.99999e-01
4.060300500e-01,5.41008e-08,9.99999e-01,9.99999e-01,9.99997e-01,5.41009e-08,9.99999e-01
4.080602003e-01,7.52907e-08,9.99999e-01,9.99999e-01,9.99998e-01,7.52908e-08,9.99999e-01
4.101005013e-01,1.04098e-07,9.99999e-01,9.99999e-01,9.99999e-01,1.04098e-07,9.99999e-01
4.121510038e-01,1.43010e-07,9.99999e-01,9.99999e-01,9.99998e-01,1.43010e-07,9.99999e-01
4.142117588e-01,1.95236e-07,9.99999e-01,9.99999e-01,9.99990e-01,1.95238e-07,9.99999e-01
4.162828176e-01,2.64895e-07,9.99999e-01,9.99999e-01,9.99957e-01,2.64907e-07,9.99999e-01
4.183642317e-01,3.57266e-07,9.99999e-01,9.99999e-01,9.99974e-01,3.57275e-07,9.99999e-01
4.204560528e-01,4.79006e-07,9.99999e-01,9.99999e-01,9.99984e-01,4.79013e-07,9.99999e-01
4.225583331e-01,6.38519e-07,9.99999e-01,9.99999e-01,9.99993e-01,6.38522e-07,9.99999e-01
4.246711247e-01,8.46325e-07,9.99999e-01,9.99999e-01,9.99994e-01,8.46329e-07,9.99999e-01
4.267944804e-01,1.11553e-06,9.99999e-01,9.99999e-01,9.99992e-01,1.11554e-06,9.99999e-01
4.289284528e-01,1.46238e-06,9.99999e-01,9.99999e-01,9.99994e-01,1.46239e-06,9.99999e-01
4.310730950e-01,1.90685e-06,9.99999e-01,9.99999e-01,9.99997e-01,1.90685e-06,9.99999e-01
4.332284605e-01,2.47340e-06,9.99999e-01,9.99999e-01,9.99998e-01,2.47340e-06,9.99999e-01
4.353946028e-01,3.19184e-06,9.99999e-01,9.99999e-01,9.99999e-01,3.19184e-06,9.99999e-01
4.375715758e-01,4.09824e-06,9.99999e-01,9.99999e-01,9.99995e-01,4.09826e-06,9.99999e-01
4.397594337e-01,5.23598e-06,9.99999e-01,9.99999e-01,9.99962e-01,5.23618e-06,9.99999e-01
4.419582309e-01,6.65647e-06,9.99999e-01,9.99999e-01,9.99808e-01,6.65774e-06,9.99999e-01
4.441680220e-01,8.42394e-06,9.99999e-01,9.99999e-01,9.99852e-01,8.42517e-06,9.99999e-01
4.463888621e-01,1.06107e-05,9.99999e-01,9.99999e-01,9.99846e-01,1.06123e-05,9.99999e-01
4.486208064e-01,1.33052e-05,9.99999e-01,9.99999e-01,9.99904e-01,1.33065e-05,9.99999e-01
4.508639105e-01,1.66095e-05,9.99999e-01,9.99999e-01,9.99955e-01,1.66102e-05,9.99999e-01
4.531182300e-01,2.06432e-05,9.99999e-01,9.99999e-01,9.99981e-01,2.06436e-05,9.99999e-01
4.553838212e-01,2.55461e-05,9.99999e-01,9.99999e-01,9.99987e-01,2.55464e-05,9.99999e-01
4.576607403e-01,3.14807e-05,9.99999e-01,9.99999e-01,9.99994e-01,3.14808e-05,9.99999e-01
4.599490440e-01,3.86340e-05,9.99999e-01,9.99999e-01,9.99995e-01,3.86341e-05,9.99999e-01
4.622487892e-01,4.72214e-05,9.99999e-01,9.99999e-01,9.99998e-01,4.72214e-05,9.99999e-01
4.645600332e-01,5.74890e-05,9.99999e-01,9.99999e-01,9.99996e-01,5.74891e-05,9.99999e-01
4.668828333e-01,6.97148e-05,9.99999e-01,9.99999e-01,9.99954e-01,6.97179e-05,9.99999e-01
4.692172475e-01,8.42184e-05,9.99999e-01,9.99999e-01,9.99903e-01,8.42265e-05,9.99999e-01
4.715633337e-01,1.01369e-04,9.99999e-01,9.99999e-01,9.99936e-01,1.01375e-04,9.99999e-01
4.739211504e-01,1.21562e-04,9.99999e-01,9.99999e-01,9.99939e-01,1.21569e-04,9.99999e-01
4.762907561e-01,1.45260e-04,9.99999e-01,9.99999e-01,9.99968e-01,1.45264e-04,9.99999e-01
4.786722099e-01,1.72966e-04,9.99999e-01,9.99999e-01,9.99986e-01,1.72968e-04,9.99999e-01
4.810655710e-01,2.05245e-04,9.99999e-01,9.99999e-01,9.99995e-01,2.05246e-04,9.99999e-01
4.834708988e-01,2.42717e-04,9.99999e-01,9.99999e-01,9.99962e-01,2.42726e-04,9.99999e-01
4.858882533e-01,2.86082e-04,9.99999e-01,9.99999e-01,9.99931e-01,2.86101e-04,9.99999e-01
4.883176946e-01,3.36114e-04,9.99999e-01,9.99999e-01,9.99942e-01,3.36134e-04,9.99999e-01
4.907592831e-01,3.93640e-04,9.99999e-01,9.99999e-01,9.99948e-01,3.93660e-04,9.99999e-01
4.932130795e-01,4.59580e-04,9.99999e-01,9.99999e-01,9.99963e-01,4.59596e-04,9.99999e-01
4.956791449e-01,5.34927e-04,9.99999e-01,9.99999e-01,9.99980e-01,5.34937e-04,9.99999e-01
4.981575406e-01,6.20705e-04,9.99999e-01,9.99999e-01,9.99902e-01,6.20765e-04,9.99999e-01
5.006483283e-01,7.18066e-04,9.99999e-01,9.99999e-01,9.99747e-01,7.18248e-04,9.99997e-01
5.031515699e-01,8.27585e-04,9.99999e-01,9.99999e-01,9.98727e-01,8.28650e-04,9.99986e-01
5.056673278e-01,9.52671e-04,9.99999e-01,9.99999e-01,9.99329e-01,9.53325e-04,9.99984e-01
5.081956644e-01,1.09279e-03,9.99999e-01,9.99999e-01,9.99154e-01,1.09373e-03,9.99990e-01
5.107366428e-01,1.25069e-03,9.99999e-01,9.99999e-01,9.99429e-01,1.25140e-03,9.99997e-01
5.132903260e-01,1.42754e-03,9.99999e-01,9.99999e-01,9.99674e-01,1.42801e-03,9.99999e-01
5.158567776e-01,1.62507e-03,9.99999e-01,9.99999e-01,9.99862e-01,1.62529e-03,9.99999e-01
5.184360615e-01,1.84501e-03,9.99999e-01,9.99999e-01,9.99944e-01,1.84511e-03,9.99999e-01
5.210282418e-01,2.08938e-03,9.99999e-01,9.99999e-01,9.99978e-01,2.08942e-03,9.99999e-01
5.236333830e-01,2.36007e-03,9.99999e-01,9.99999e-01,9.99916e-01,2.36027e-03,9.99998e-01
5.262515499e-01,2.65968e-03,9.99999e-01,9.99999e-01,9.99947e-01,2.65982e-03,9.99998e-01
5.288828077e-01,2.99018e-03,9.99999e-01,9.99999e-01,9.99951e-01,2.99032e-03,9.99998e-01
5.315272217e-01,3.35398e-03,9.99999e-01,9.99999e-01,9.99957e-01,3.35412e-03,9.99999e-01
5.341848578e-01,3.75355e-03,9.99999e-01,9.99999e-01,9.99972e-01,3.75366e-03,9.99999e-01
5.368557821e-01,4.19105e-03,9.99999e-01,9.99999e-01,9.99902e-01,4.19146e-03,9.99999e-01
5.395400610e-01,4.66848e-03,9.99999e-01,9.99999e-01,9.99649e-01,4.67013e-03,9.99996e-01
5.422377613e-01,5.19000e-03,9.99999e-01,9.99999e-01,9.99550e-01,5.19237e-03,9.99991e-01
5.449489501e-01,5.75847e-03,9.99999e-01,9.99999e-01,9.99580e-01,5.76094e-03,9.99991e-01
5.476736949e-01,6.37627e-03,9.99999e-01,9.99999e-01,9.99630e-01,6.37865e-03,9.99995e-01
5.504120634e-01,7.04651e-03,9.99999e-01,9.99999e-01,9.99731e-01,7.04841e-03,9.99998e-01
5.531641237e-01,7.77209e-03,9.99999e-01,9.99999e-01,9.99864e-01,7.77314e-03,9.99999e-01
5.559299443e-01,8.55528e-03,9.99999e-01,9.99999e-01,9.99934e-01,8.55583e-03,9.99999e-01
5.587095940e-01,9.39913e-03,9.99999e-01,9.99999e-01,9.99958e-01,9.39951e-03,9.99999e-01
5.615031420e-01,1.03067e-02,9.99999e-01,9.99999e-01,9.99953e-01,1.03072e-02,9.99999e-01
5.643106577e-01,1.12814e-02,9.99999e-01,9.99999e-01,9.99947e-01,1.12820e-02,9.99999e-01
5.671322110e-01,1.23191e-02,9.99999e-01,9.99999e-01,9.99363e-01,1.23270e-02,9.99993e-01
5.699678720e-01,1.34360e-02,9.99999e-01,9.99999e-01,9.99334e-01,1.34452e-02,9.99982e-01
5.728177114e-01,1.46293e-02,9.99999e-01,9.99999e-01,9.99302e-01,1.46397e-02,9.99985e-01
5.756818000e-01,1.59033e-02,9.99999e-01,9.99999e-01,9.99360e-01,1.59136e-02,9.99991e-01
5.785602090e-01,1.72602e-02,9.99999e-01,9.99999e-01,9.99443e-01,1.72698e-02,9.99997e-01
5.814530100e-01,1.87009e-02,9.99999e-01,9.99999e-01,9.99440e-01,1.87114e-02,9.99998e-01
5.843602750e-01,2.02275e-02,9.99999e-01,9.99999e-01,9.99329e-01,2.02412e-02,9.99995e-01
5.872820764e-01,2.17353e-02,9.99999e-01,9.99999e-01,9.94240e-01,2.18621e-02,9.99959e-01
5.902184868e-01,2.34108e-02,9.99999e-01,9.99999e-01,9.93062e-01,2.35769e-02,9.99889e-01
5.931695792e-01,2.52609e-02,9.99999e-01,9.99999e-01,9.95086e-01,2.53883e-02,9.99893e-01
5.961354271e-01,2.71505e-02,9.99999e-01,9.99999e-01,9.94621e-01,2.72990e-02,9.99938e-01
5.991161043e-01,2.91959e-02,9.99999e-01,9.99999e-01,9.96077e-01,2.93114e-02,9.99980e-01
6.021116848e-01,3.13580e-02,9.99999e-01,9.99999e-01,9.97774e-01,3.14280e-02,9.99997e-01
6.051222432e-01,3.36131e-02,9.99999e-01,9.99999e-01,9.98873e-01,3.36510e-02,9.99999e-01
6.081478544e-01,3.59652e-02,9.99999e-01,9.99999e-01,9.99513e-01,3.59827e-02,9.99999e-01
6.111885937e-01,3.84172e-02,9.99999e-01,9.99999e-01,9.99794e-01,3.84250e-02,9.99999e-01
6.142445367e-01,4.09762e-02,9.99999e-01,9.99999e-01,9.99907e-01,4.09800e-02,9.99999e-01
6.173157594e-01,4.36470e-02,9.99999e-01,9.99999e-01,9.99948e-01,4.36493e-02,9.99999e-01
6.204023382e-01,4.64325e-02,9.99999e-01,9.99999e-01,9.99956e-01,4.64345e-02,9.99999e-01
6.235043498e-01,4.93277e-02,9.99999e-01,9.99999e-01,9.99808e-01,4.93371e-02,9.99999e-01
6.266218716e-01,5.23057e-02,9.99999e-01,9.99999e-01,9.98998e-01,5.23585e-02,9.99992e-01
6.297549810e-01,5.54785e-02,9.99999e-01,9.99999e-01,9.99632e-01,5.54996e-02,9.99985e-01
6.329037559e-01,5.87183e-02,9.99999e-01,9.99999e-01,9.99274e-01,5.87616e-02,9.99988e-01
6.360682746e-01,6.21062e-02,9.99999e-01,9.99999e-01,9.99380e-01,6.21451e-02,9.99992e-01
6.392486160e-01,6.55980e-02,9.99999e-01,9.99999e-01,9.99198e-01,6.56508e-02,9.99996e-01
6.424448591e-01,6.92041e-02,9.99999e-01,9.99999e-01,9.98922e-01,6.92791e-02,9.99994e-01
6.456570834e-01,7.26635e-02,9.99999e-01,9.99999e-01,9.95005e-01,7.30304e-02,9.99969e-01
6.488853688e-01,7.66192e-02,9.99999e-01,9.99999e-01,9.96365e-01,7.69046e-02,9.99922e-01
6.521297956e-01,8.05969e-02,9.99999e-01,9.99999e-01,9.96296e-01,8.09016e-02,9.99935e-01
6.553904446e-01,8.47030e-02,9.99999e-01,9.99999e-01,9.96302e-01,8.50213e-02,9.99952e-01
6.586673968e-01,8.89798e-02,9.99999e-01,9.99999e-01,9.96840e-01,8.92632e-02,9.99983e-01
6.619607338e-01,9.34614e-02,9.99999e-01,9.99999e-01,9.98238e-01,9.36266e-02,9.99996e-01
6.652705375e-01,9.80069e-02,9.99999e-01,9.99999e-01,9.98942e-01,9.81107e-02,9.99997e-01
6.685968902e-01,1.02669e-01,9.99999e-01,9.99999e-01,9.99550e-01,1.02715e-01,9.99999e-01
6.719398746e-01,1.07413e-01,9.99999e-01,9.99999e-01,9.99772e-01,1.07437e-01,9.99999e-01
6.752995740e-01,1.12264e-01,9.99999e-01,9.99999e-01,9.99876e-01,1.12277e-01,9.99999e-01
6.786760719e-01,1.17212e-01,9.99999e-01,9.99999e-01,9.99820e-01,1.17233e-01,9.99999e-01
6.820694522e-01,1.22266e-01,9.99999e-01,9.99999e-01,9.99693e-01,1.22304e-01,9.99997e-01
6.854797995e-01,1.27436e-01,9.99999e-01,9.99999e-01,9.99605e-01,1.27487e-01,9.99996e-01
6.889071985e-01,1.32652e-01,9.99999e-01,9.99999e-01,9.99036e-01,1.32781e-01,9.99990e-01
6.923517345e-01,1.36026e-01,9.99999e-01,9.99999e-01,9.84459e-01,1.38183e-01,9.99924e-01
6.958134932e-01,1.42518e-01,9.99999e-01,9.99999e-01,9.91994e-01,1.43692e-01,9.99834e-01
6.992925606e-01,1.48133e-01,9.99999e-01,9.99999e-01,9.92295e-01,1.49305e-01,9.99850e-01
7.027890234e-01,1.53537e-01,9.99999e-01,9.99999e-01,9.90540e-01,1.55021e-01,9.99885e-01
7.063029686e-01,1.59546e-01,9.99999e-01,9.99999e-01,9.92036e-01,1.60835e-01,9.99942e-01
7.098344834e-01,1.65467e-01,9.99999e-01,9.99999e-01,9.92358e-01,1.66747e-01,9.99966e-01
7.133836558e-01,1.70971e-01,9.99999e-01,9.99999e-01,9.89754e-01,1.72752e-01,9.99933e-01
7.169505741e-01,1.64616e-01,9.99999e-01,9.99999e-01,9.20898e-01,1.78849e-01,9.99476e-01
7.205353270e-01,1.77633e-01,9.99999e-01,9.99999e-01,9.60887e-01,1.85034e-01,9.99076e-01
7.241380036e-01,1.81612e-01,9.99999e-01,9.99999e-01,9.50093e-01,1.91305e-01,9.99202e-01
7.277586936e-01,1.88617e-01,9.99999e-01,9.99999e-01,9.54884e-01,1.97657e-01,9.99348e-01
7.313974871e-01,1.94284e-01,9.99999e-01,9.99999e-01,9.52245e-01,2.04089e-01,9.99694e-01
7.350544745e-01,2.05015e-01,9.99999e-01,9.99999e-01,9.73596e-01,2.10598e-01,9.99893e-01
7.387297469e-01,2.12935e-01,9.99999e-01,9.99999e-01,9.80508e-01,2.17178e-01,9.99950e-01
7.424233956e-01,2.21685e-01,9.99999e-01,9.99999e-01,9.90430e-01,2.23829e-01,9.99991e-01
7.461355126e-01,2.29205e-01,9.99999e-01,9.99999e-01,9.94185e-01,2.30546e-01,9.99998e-01
7.498661902e-01,2.36683e-01,9.99999e-01,9.99999e-01,9.97294e-01,2.37325e-01,9.99998e-01
7.536155211e-01,2.43840e-01,9.99999e-01,9.99999e-01,9.98669e-01,2.44165e-01,9.99999e-01
7.573835987e-01,2.50888e-01,9.99999e-01,9.99999e-01,9.99314e-01,2.51060e-01,9.99999e-01
7.611705167e-01,2.57898e-01,9.99999e-01,9.99999e-01,9.99574e-01,2.58008e-01,9.99999e-01
7.649763693e-01,2.64935e-01,9.99999e-01,9.99999e-01,9.99732e-01,2.65006e-01,9.99999e-01
7.688012511e-01,2.71998e-01,9.99999e-01,9.99999e-01,9.99813e-01,2.72049e-01,9.99999e-01
7.726452574e-01,2.79092e-01,9.99999e-01,9.99999e-01,9.99846e-01,2.79135e-01,9.99999e-01
7.765084837e-01,2.86197e-01,9.99999e-01,9.99999e-01,9.99781e-01,2.86260e-01,9.99999e-01
7.803910261e-01,2.77240e-01,9.99999e-01,9.45704e-01,9.99054e-01,2.93421e-01,9.99998e-01
7.842929812e-01,2.33681e-01,9.99999e-01,7.79729e-01,9.96701e-01,3.00614e-01,9.99993e-01
7.882144461e-01,2.34366e-01,9.99999e-01,7.66219e-01,9.93248e-01,3.07836e-01,9.99953e-01
7.921555184e-01,2.67977e-01,9.99999e-01,8.53594e-01,9.96304e-01,3.15084e-01,9.99918e-01
7.961162960e-01,2.88074e-01,9.99999e-01,8.99544e-01,9.93431e-01,3.22355e-01,9.99922e-01
8.000968774e-01,3.08864e-01,9.99999e-01,9.44139e-01,9.92441e-01,3.29645e-01,9.99917e-01
8.040973618e-01,3.24599e-01,9.99999e-01,9.70724e-01,9.92433e-01,3.36950e-01,9.99937e-01
8.081178486e-01,3.33798e-01,9.99999e-01,9.86415e-01,9.82961e-01,3.44269e-01,9.99936e-01
8.121584379e-01,3.25908e-01,9.99999e-01,9.95811e-01,9.30993e-01,3.51597e-01,9.99760e-01
8.162192301e-01,3.29307e-01,9.99999e-01,9.99073e-01,9.19112e-01,3.58931e-01,9.99101e-01
8.203003262e-01,3.50743e-01,9.99999e-01,9.99986e-01,9.58625e-01,3.66270e-01,9.98948e-01
8.244018279e-01,3.52239e-01,9.99999e-01,9.99999e-01,9.43590e-01,3.73609e-01,9.99162e-01
8.285238370e-01,3.61925e-01,9.99999e-01,9.99999e-01,9.50693e-01,3.80946e-01,9.99342e-01
8.326664562e-01,3.68883e-01,9.99999e-01,9.99999e-01,9.50309e-01,3.88277e-01,9.99727e-01
8.368297885e-01,3.81438e-01,9.99999e-01,9.99999e-01,9.64258e-01,3.95601e-01,9.99937e-01
8.410139374e-01,3.94284e-01,9.99999e-01,9.99999e-01,9.78615e-01,4.02914e-01,9.99963e-01
8.452190071e-01,4.05884e-01,9.99999e-01,9.99999e-01,9.89465e-01,4.10214e-01,9.99977e-01
8.494451021e-01,4.14929e-01,9.99999e-01,9.99999e-01,9.93862e-01,4.17498e-01,9.99982e-01
8.536923276e-01,4.23219e-01,9.99999e-01,9.99999e-01,9.96374e-01,4.24764e-01,9.99988e-01
8.579607893e-01,4.31041e-01,9.99999e-01,9.99999e-01,9.97761e-01,4.32009e-01,9.99996e-01
8.622505932e-01,4.38607e-01,9.99999e-01,9.99999e-01,9.98579e-01,4.39231e-01,9.99999e-01
8.665618462e-01,4.00876e-01,9.99999e-01,8.98715e-01,9.99119e-01,4.46427e-01,9.99999e-01
8.708946554e-01,2.42407e-01,9.99999e-01,5.34923e-01,9.98990e-01,4.53595e-01,9.99998e-01
8.752491287e-01,2.76546e-01,9.99999e-01,6.01005e-01,9.98650e-01,4.60734e-01,9.99998e-01
8.796253743e-01,3.52098e-01,9.99999e-01,7.53950e-01,9.98127e-01,4.67840e-01,9.99995e-01
8.840235012e-01,4.08970e-01,9.99999e-01,8.62958e-01,9.97862e-01,4.74913e-01,9.99986e-01
8.884436187e-01,4.51228e-01,9.99999e-01,9.43583e-01,9.92144e-01,4.81950e-01,9.99962e-01
8.928858368e-01,4.39857e-01,9.99999e-01,9.76714e-01,9.20924e-01,4.88949e-01,9.99786e-01
8.973502660e-01,4.26249e-01,9.99999e-01,9.94315e-01,8.65225e-01,4.95908e-01,9.98907e-01
9.018370173e-01,4.66088e-01,9.99999e-01,9.99373e-01,9.29083e-01,5.02826e-01,9.98283e-01
9.063462024e-01,4.69367e-01,9.99999e-01,9.83768e-01,9.36685e-01,5.09701e-01,9.98491e-01
9.108779334e-01,4.49179e-01,9.99999e-01,9.63463e-01,9.03324e-01,5.16531e-01,9.98432e-01
9.154323231e-01,4.61765e-01,9.99999e-01,9.91359e-01,8.90957e-01,5.23316e-01,9.98704e-01
9.200094847e-01,4.31222e-01,9.99999e-01,8.84438e-01,9.13739e-01,5.30052e-01,9.99274e-01
9.246095321e-01,3.90167e-01,9.99999e-01,8.33649e-01,8.68312e-01,5.36740e-01,9.99164e-01
9.292325798e-01,1.91175e-01,9.99999e-01,8.67098e-01,3.98567e-01,5.43378e-01,9.95971e-01
9.338787427e-01,1.48751e-01,9.99999e-01,8.71472e-01,3.08541e-01,5.49964e-01,9.85517e-01
9.385481364e-01,3.10091e-01,9.99999e-01,9.03569e-01,6.21106e-01,5.56498e-01,9.84099e-01
9.432408771e-01,2.72392e-01,9.99999e-01,9.39809e-01,5.19317e-01,5.62978e-01,9.86267e-01
9.479570815e-01,2.23040e-01,9.99999e-01,9.68604e-01,4.07927e-01,5.69403e-01,9.88809e-01
9.526968669e-01,2.85439e-01,9.99999e-01,9.84764e-01,5.05898e-01,5.75772e-01,9.93159e-01
9.574603512e-01,3.04238e-01,9.99999e-01,9.93458e-01,5.27586e-01,5.82085e-01,9.96519e-01
9.622476530e-01,3.47239e-01,9.99999e-01,9.97956e-01,5.92721e-01,5.88340e-01,9.97591e-01
9.670588912e-01,4.38237e-01,9.99999e-01,9.99388e-01,7.38736e-01,5.94537e-01,9.98352e-01
9.718941857e-01,4.95573e-01,9.99999e-01,9.99956e-01,8.26060e-01,6.00675e-01,9.98786e-01
9.767536566e-01,5.17211e-01,9.99999e-01,9.99999e-01,8.53216e-01,6.06753e-01,9.99072e-01
9.816374249e-01,5.44594e-01,9.99999e-01,9.99999e-01,8.89025e-01,6.12770e-01,9.99678e-01
9.865456120e-01,5.74823e-01,9.99999e-01,9.99999e-01,9.29102e-01,6.18727e-01,9.99932e-01
9.914783401e-01,5.96832e-01,9.99999e-01,9.99999e-01,9.55526e-01,6.24622e-01,9.99980e-01
9.964357318e-01,6.15026e-01,9.99999e-01,9.99999e-01,9.75536e-01,6.30456e-01,9.99988e-01
1.001417910e+00,6.26844e-01,9.99999e-01,9.99999e-01,9.85268e-01,6.36227e-01,9.99982e-01
1.006425000e+00,6.36506e-01,9.99999e-01,9.99999e-01,9.91566e-01,6.41935e-01,9.99975e-01
1.011457125e+00,6.44177e-01,9.99999e-01,9.99999e-01,9.94765e-01,6.47580e-01,9.99977e-01
1.016514411e+00,6.50828e-01,9.99999e-01,9.99999e-01,9.96440e-01,6.53162e-01,9.99984e-01
1.021596983e+00,6.56740e-01,9.99999e-01,9.99905e-01,9.97161e-01,6.58680e-01,9.99984e-01
1.026704968e+00,6.58421e-01,9.99999e-01,9.93600e-01,9.97785e-01,6.64135e-01,9.99989e-01
1.031838492e+00,6.24717e-01,9.99999e-01,9.34515e-01,9.98392e-01,6.69526e-01,9.99996e-01
1.036997685e+00,6.29880e-02,9.99999e-01,9.34047e-02,9.99043e-01,6.74852e-01,9.99999e-01
1.042182673e+00,2.31250e-02,9.99999e-01,3.40342e-02,9.98856e-01,6.80115e-01,9.99999e-01
1.047393587e+00,3.72729e-02,9.99999e-01,5.44591e-02,9.98486e-01,6.85313e-01,9.99999e-01
1.052630555e+00,1.50003e-04,9.99999e-01,2.17564e-04,9.97921e-01,6.90448e-01,9.99998e-01
1.057893707e+00,4.96444e-04,9.99999e-01,7.15266e-04,9.96528e-01,6.95518e-01,9.99998e-01
1.063183176e+00,3.17135e-03,9.99999e-01,4.54395e-03,9.94297e-01,7.00524e-01,9.99996e-01
1.068499092e+00,1.43485e-02,9.99999e-01,2.04897e-02,9.90475e-01,7.05467e-01,9.99993e-01
1.073841587e+00,5.96625e-02,9.99999e-01,8.47476e-02,9.88850e-01,7.10345e-01,9.99985e-01
1.079210795e+00,1.48173e-01,9.99999e-01,2.09776e-01,9.85759e-01,7.15160e-01,9.99961e-01
1.084606849e+00,2.96026e-01,9.99999e-01,4.19610e-01,9.78499e-01,7.19911e-01,9.99907e-01
1.090029883e+00,4.47126e-01,9.99999e-01,6.35923e-01,9.69163e-01,7.24600e-01,9.99809e-01
1.095480033e+00,5.36351e-01,9.99999e-01,8.00004e-01,9.18300e-01,7.29225e-01,9.99655e-01
1.100957433e+00,5.31579e-01,9.99999e-01,8.97878e-01,8.05830e-01,7.33788e-01,9.99366e-01
1.106462220e+00,4.11314e-01,9.99999e-01,9.56451e-01,5.81619e-01,7.38288e-01,9.98925e-01
1.111994531e+00,2.37388e-01,9.99999e-01,9.83626e-01,3.25268e-01,7.42726e-01,9.97149e-01
1.117554504e+00,1.22829e-01,9.99999e-01,9.95991e-01,1.66595e-01,7.47102e-01,9.89749e-01
1.123142276e+00,2.05648e-01,9.99999e-01,9.99737e-01,2.80472e-01,7.51417e-01,9.75862e-01
1.128757988e+00,3.15759e-01,9.99999e-01,9.99999e-01,4.29831e-01,7.55671e-01,9.72129e-01
1.134401778e+00,1.57174e-01,9.99999e-01,9.99999e-01,2.11877e-01,7.59864e-01,9.76251e-01
1.140073787e+00,4.47891e-01,9.99999e-01,9.99999e-01,5.97613e-01,7.63997e-01,9.80979e-01
1.145774156e+00,2.65414e-01,9.99999e-01,9.99999e-01,3.51687e-01,7.68070e-01,9.82575e-01
1.151503026e+00,2.40645e-01,9.99999e-01,9.99999e-01,3.14749e-01,7.72084e-01,9.90255e-01
1.157260541e+00,2.86082e-01,9.99999e-01,9.99999e-01,3.69724e-01,7.76039e-01,9.97075e-01
1.163046844e+00,3.72511e-01,9.99999e-01,9.99999e-01,4.78013e-01,7.79935e-01,9.99170e-01
1.168862078e+00,4.66398e-01,9.99999e-01,9.99999e-01,5.95321e-01,7.83774e-01,9.99572e-01
1.174706389e+00,5.71318e-01,9.99999e-01,9.99999e-01,7.25843e-01,7.87554e-01,9.99433e-01
1.180579921e+00,6.50239e-01,9.99999e-01,9.99999e-01,8.22461e-01,7.91278e-01,9.99143e-01
1.186482820e+00,7.10974e-01,9.99999e-01,9.99985e-01,8.95164e-01,7.94946e-01,9.99120e-01
1.192415234e+00,7.31528e-01,9.99999e-01,9.77530e-01,9.37337e-01,7.98557e-01,9.99341e-01
1.198377311e+00,4.17520e-01,9.99999e-01,5.45107e-01,9.46872e-01,8.02113e-01,9.99377e-01
1.204369197e+00,2.10005e-17,9.99999e-01,2.68720e-17,9.49726e-01,8.05615e-01,9.99436e-01
1.210391043e+00,2.59780e-67,9.99999e-01,3.30126e-67,9.51849e-01,8.09062e-01,9.99657e-01
1.216442998e+00,2.18769e-58,9.99999e-01,2.76414e-58,9.58943e-01,8.12455e-01,9.99789e-01
1.222525213e+00,1.60253e-57,9.99999e-01,1.99799e-57,9.67859e-01,8.15795e-01,9.99869e-01
1.228637839e+00,1.62190e-44,9.99999e-01,2.01107e-44,9.77562e-01,8.19082e-01,9.99938e-01
