#,Wave/freq,Total,N2,CO2,H2O,Rayleigh,CIA
4.000000000e-01,4.77492e-03,9.99999e-01,9.99999e-01,9.99989e-01,4.77497e-03,9.99999e-01
4.020000000e-01,5.30713e-03,9.99999e-01,9.99999e-01,9.99993e-01,5.30716e-03,9.99999e-01
4.040100000e-01,5.88573e-03,9.99999e-01,9.99999e-01,9.99996e-01,5.88575e-03,9.99999e-01
4.060300500e-01,6.51408e-03,9.99999e-01,9.99999e-01,9.99998e-01,6.51409e-03,9.99999e-01
4.080602003e-01,7.19508e-03,9.99999e-01,9.99999e-01,9.99999e-01,7.19508e-03,9.99999e-01
4.101005013e-01,7.93166e-03,9.99999e-01,9.99999e-01,9.99999e-01,7.93166e-03,9.99999e-01
4.121510038e-01,8.72684e-03,9.99999e-01,9.99999e-01,9.99999e-01,8.72684e-03,9.99999e-01
4.142117588e-01,9.58361e-03,9.99999e-01,9.99999e-01,9.99996e-01,9.58363e-03,9.99999e-01
4.162828176e-01,1.05050e-02,9.99999e-01,9.99999e-01,9.99986e-01,1.05051e-02,9.99999e-01
4.183642317e-01,1.14942e-02,9.99999e-01,9.99999e-01,9.99991e-01,1.14943e-02,9.99999e-01
4.204560528e-01,1.25542e-02,9.99999e-01,9.99999e-01,9.99994e-01,1.25543e-02,9.99999e-01
4.225583331e-01,1.36882e-02,9.99999e-01,9.99999e-01,9.99997e-01,1.36882e-02,9.99999e-01
4.246711247e-01,1.48990e-02,9.99999e-01,9.99999e-01,9.99998e-01,1.48990e-02,9.99999e-01
4.267944804e-01,1.61898e-02,9.99999e-01,9.99999e-01,9.99997e-01,1.61898e-02,9.99999e-01
4.289284528e-01,1.75636e-02,9.99999e-01,9.99999e-01,9.99997e-01,1.75636e-02,9.99999e-01
4.310730950e-01,1.90234e-02,9.99999e-01,9.99999e-01,9.99998e-01,1.90234e-02,9.99999e-01
4.332284605e-01,2.05720e-02,9.99999e-01,9.99999e-01,9.99999e-01,2.05720e-02,9.99999e-01
4.353946028e-01,2.22123e-02,9.99999e-01,9.99999e-01,9.99999e-01,2.22123e-02,9.99999e-01
4.375715758e-01,2.39470e-02,9.99999e-01,9.99999e-01,9.99998e-01,2.39470e-02,9.99999e-01
4.397594337e-01,2.57787e-02,9.99999e-01,9.99999e-01,9.99988e-01,2.57790e-02,9.99999e-01
4.419582309e-01,2.77091e-02,9.99999e-01,9.99999e-01,9.99941e-01,2.77107e-02,9.99999e-01
4.441680220e-01,2.97433e-02,9.99999e-01,9.99999e-01,9.99955e-01,2.97446e-02,9.99999e-01
4.463888621e-01,3.18818e-02,9.99999e-01,9.99999e-01,9.99953e-01,3.18832e-02,9.99999e-01
4.486208064e-01,3.41278e-02,9.99999e-01,9.99999e-01,9.99971e-01,3.41288e-02,9.99999e-01
4.508639105e-01,3.64829e-02,9.99999e-01,9.99999e-01,9.99986e-01,3.64834e-02,9.99999e-01
4.531182300e-01,3.89489e-02,9.99999e-01,9.99999e-01,9.99994e-01,3.89491e-02,9.99999e-01
4.553838212e-01,4.15276e-02,9.99999e-01,9.99999e-01,9.99995e-01,4.15278e-02,9.99999e-01
4.576607403e-01,4.42211e-02,9.99999e-01,9.99999e-01,9.99997e-01,4.42211e-02,9.99999e-01
4.599490440e-01,4.70307e-02,9.99999e-01,9.99999e-01,9.99998e-01,4.70308e-02,9.99999e-01
4.622487892e-01,4.99581e-02,9.99999e-01,9.99999e-01,9.99999e-01,4.99581e-02,9.99999e-01
4.645600332e-01,5.30043e-02,9.99999e-01,9.99999e-01,9.99998e-01,5.30044e-02,9.99999e-01
4.668828333e-01,5.61699e-02,9.99999e-01,9.99999e-01,9.99985e-01,5.61707e-02,9.99999e-01
4.692172475e-01,5.94562e-02,9.99999e-01,9.99999e-01,9.99970e-01,5.94579e-02,9.99999e-01
4.715633337e-01,6.28657e-02,9.99999e-01,9.99999e-01,9.99980e-01,6.28669e-02,9.99999e-01
4.739211504e-01,6.63970e-02,9.99999e-01,9.99999e-01,9.99981e-01,6.63982e-02,9.99999e-01
4.762907561e-01,7.00515e-02,9.99999e-01,9.99999e-01,9.99990e-01,7.00522e-02,9.99999e-01
4.786722099e-01,7.38288e-02,9.99999e-01,9.99999e-01,9.99995e-01,7.38291e-02,9.99999e-01
4.810655710e-01,7.77288e-02,9.99999e-01,9.99999e-01,9.99998e-01,7.77289e-02,9.99999e-01
4.834708988e-01,8.17507e-02,9.99999e-01,9.99999e-01,9.99988e-01,8.17516e-02,9.99999e-01
4.858882533e-01,8.58951e-02,9.99999e-01,9.99999e-01,9.99979e-01,8.58969e-02,9.99999e-01
4.883176946e-01,9.01626e-02,9.99999e-01,9.99999e-01,9.99982e-01,9.01642e-02,9.99999e-01
4.907592831e-01,9.45514e-02,9.99999e-01,9.99999e-01,9.99984e-01,9.45528e-02,9.99999e-01
4.932130795e-01,9.90610e-02,9.99999e-01,9.99999e-01,9.99988e-01,9.90621e-02,9.99999e-01
4.956791449e-01,1.03690e-01,9.99999e-01,9.99999e-01,9.99993e-01,1.03691e-01,9.99999e-01
4.981575406e-01,1.08435e-01,9.99999e-01,9.99999e-01,9.99970e-01,1.08438e-01,9.99999e-01
5.006483283e-01,1.13294e-01,9.99999e-01,9.99999e-01,9.99923e-01,1.13303e-01,9.99998e-01
5.031515699e-01,1.18237e-01,9.99999e-01,9.99999e-01,9.99615e-01,1.18283e-01,9.99995e-01
5.056673278e-01,1.23351e-01,9.99999e-01,9.99999e-01,9.99798e-01,1.23377e-01,9.99994e-01
5.081956644e-01,1.28550e-01,9.99999e-01,9.99999e-01,9.99745e-01,1.28583e-01,9.99996e-01
5.107366428e-01,1.33877e-01,9.99999e-01,9.99999e-01,9.99828e-01,1.33900e-01,9.99999e-01
5.132903260e-01,1.39311e-01,9.99999e-01,9.99999e-01,9.99901e-01,1.39325e-01,9.99999e-01
5.158567776e-01,1.44850e-01,9.99999e-01,9.99999e-01,9.99958e-01,1.44856e-01,9.99999e-01
5.184360615e-01,1.50488e-01,9.99999e-01,9.99999e-01,9.99983e-01,1.50490e-01,9.99999e-01
5.210282418e-01,1.56226e-01,9.99999e-01,9.99999e-01,9.99993e-01,1.56227e-01,9.99999e-01
5.236333830e-01,1.62058e-01,9.99999e-01,9.99999e-01,9.99974e-01,1.62062e-01,9.99999e-01
5.262515499e-01,1.67990e-01,9.99999e-01,9.99999e-01,9.99983e-01,1.67993e-01,9.99999e-01
5.288828077e-01,1.74015e-01,9.99999e-01,9.99999e-01,9.99985e-01,1.74018e-01,9.99999e-01
5.315272217e-01,1.80131e-01,9.99999e-01,9.99999e-01,9.99987e-01,1.80133e-01,9.99999e-01
5.341848578e-01,1.86335e-01,9.99999e-01,9.99999e-01,9.99991e-01,1.86336e-01,9.99999e-01
5.368557821e-01,1.92619e-01,9.99999e-01,9.99999e-01,9.99970e-01,1.92624e-01,9.99999e-01
5.395400610e-01,1.98972e-01,9.99999e-01,9.99999e-01,9.99893e-01,1.98994e-01,9.99998e-01
5.422377613e-01,2.05414e-01,9.99999e-01,9.99999e-01,9.99864e-01,2.05442e-01,9.99997e-01
5.449489501e-01,2.11938e-01,9.99999e-01,9.99999e-01,9.99872e-01,2.11966e-01,9.99996e-01
5.476736949e-01,2.18537e-01,9.99999e-01,9.99999e-01,9.99888e-01,2.18561e-01,9.99998e-01
5.504120634e-01,2.25208e-01,9.99999e-01,9.99999e-01,9.99918e-01,2.25226e-01,9.99999e-01
5.531641237e-01,2.31947e-01,9.99999e-01,9.99999e-01,9.99959e-01,2.31956e-01,9.99999e-01
5.559299443e-01,2.38744e-01,9.99999e-01,9.99999e-01,9.99979e-01,2.38748e-01,9.99999e-01
5.587095940e-01,2.45597e-01,9.99999e-01,9.99999e-01,9.99987e-01,2.45600e-01,9.99999e-01
5.615031420e-01,2.52503e-01,9.99999e-01,9.99999e-01,9.99985e-01,2.52506e-01,9.99999e-01
5.643106577e-01,2.59461e-01,9.99999e-01,9.99999e-01,9.99983e-01,2.59465e-01,9.99999e-01
5.671322110e-01,2.66420e-01,9.99999e-01,9.99999e-01,9.99805e-01,2.66472e-01,9.99997e-01
5.699678720e-01,2.73469e-01,9.99999e-01,9.99999e-01,9.99800e-01,2.73525e-01,9.99994e-01
5.728177114e-01,2.80559e-01,9.99999e-01,9.99999e-01,9.99789e-01,2.80619e-01,9.99995e-01
5.756818000e-01,2.87696e-01,9.99999e-01,9.99999e-01,9.99807e-01,2.87752e-01,9.99997e-01
5.785602090e-01,2.94871e-01,9.99999e-01,9.99999e-01,9.99832e-01,2.94920e-01,9.99998e-01
5.814530100e-01,3.02069e-01,9.99999e-01,9.99999e-01,9.99831e-01,3.02120e-01,9.99999e-01
5.843602750e-01,3.09285e-01,9.99999e-01,9.99999e-01,9.99796e-01,3.09348e-01,9.99998e-01
5.872820764e-01,3.16044e-01,9.99999e-01,9.99999e-01,9.98253e-01,3.16601e-01,9.99987e-01
5.902184868e-01,3.23188e-01,9.99999e-01,9.99999e-01,9.97909e-01,3.23875e-01,9.99966e-01
5.931695792e-01,3.30667e-01,9.99999e-01,9.99999e-01,9.98516e-01,3.31169e-01,9.99967e-01
5.961354271e-01,3.37923e-01,9.99999e-01,9.99999e-01,9.98379e-01,3.38477e-01,9.99981e-01
5.991161043e-01,3.45388e-01,9.99999e-01,9.99999e-01,9.98819e-01,3.45798e-01,9.99993e-01
6.021116848e-01,3.52891e-01,9.99999e-01,9.99999e-01,9.99331e-01,3.53128e-01,9.99998e-01
6.051222432e-01,3.60342e-01,9.99999e-01,9.99999e-01,9.99661e-01,3.60463e-01,9.99999e-01
6.081478544e-01,3.67748e-01,9.99999e-01,9.99999e-01,9.99853e-01,3.67802e-01,9.99999e-01
6.111885937e-01,3.75118e-01,9.99999e-01,9.99999e-01,9.99938e-01,3.75141e-01,9.99999e-01
6.142445367e-01,3.82466e-01,9.99999e-01,9.99999e-01,9.99971e-01,3.82477e-01,9.99999e-01
6.173157594e-01,3.89801e-01,9.99999e-01,9.99999e-01,9.99984e-01,3.89807e-01,9.99999e-01
6.204023382e-01,3.97124e-01,9.99999e-01,9.99999e-01,9.99986e-01,3.97129e-01,9.99999e-01
6.235043498e-01,4.04416e-01,9.99999e-01,9.99999e-01,9.99941e-01,4.04439e-01,9.99999e-01
6.266218716e-01,4.11611e-01,9.99999e-01,9.99999e-01,9.99697e-01,4.11736e-01,9.99997e-01
6.297549810e-01,4.18969e-01,9.99999e-01,9.99999e-01,9.99888e-01,4.19017e-01,9.99995e-01
6.329037559e-01,4.26184e-01,9.99999e-01,9.99999e-01,9.99781e-01,4.26278e-01,9.99996e-01
6.360682746e-01,4.33437e-01,9.99999e-01,9.99999e-01,9.99812e-01,4.33519e-01,9.99997e-01
6.392486160e-01,4.40629e-01,9.99999e-01,9.99999e-01,9.99758e-01,4.40735e-01,9.99998e-01
6.424448591e-01,4.47779e-01,9.99999e-01,9.99999e-01,9.99673e-01,4.47926e-01,9.99997e-01
6.456570834e-01,4.54395e-01,9.99999e-01,9.99999e-01,9.98484e-01,4.55088e-01,9.99990e-01
6.488853688e-01,4.61704e-01,9.99999e-01,9.99999e-01,9.98906e-01,4.62220e-01,9.99976e-01
6.521297956e-01,4.68788e-01,9.99999e-01,9.99999e-01,9.98885e-01,4.69320e-01,9.99980e-01
6.553904446e-01,4.75847e-01,9.99999e-01,9.99999e-01,9.98884e-01,4.76385e-01,9.99985e-01
6.586673968e-01,4.82953e-01,9.99999e-01,9.99999e-01,9.99049e-01,4.83414e-01,9.99994e-01
6.619607338e-01,4.90145e-01,9.99999e-01,9.99999e-01,9.99470e-01,4.90405e-01,9.99998e-01
6.652705375e-01,4.97198e-01,9.99999e-01,9.99999e-01,9.99682e-01,4.97356e-01,9.99998e-01
6.685968902e-01,5.04197e-01,9.99999e-01,9.99999e-01,9.99864e-01,5.04265e-01,9.99999e-01
6.719398746e-01,5.11096e-01,9.99999e-01,9.99999e-01,9.99931e-01,5.11131e-01,9.99999e-01
6.752995740e-01,5.17933e-01,9.99999e-01,9.99999e-01,9.99963e-01,5.17952e-01,9.99999e-01
6.786760719e-01,5.24698e-01,9.99999e-01,9.99999e-01,9.99945e-01,5.24726e-01,9.99999e-01
6.820694522e-01,5.31403e-01,9.99999e-01,9.99999e-01,9.99906e-01,5.31453e-01,9.99999e-01
6.854797995e-01,5.38066e-01,9.99999e-01,9.99999e-01,9.99880e-01,5.38130e-01,9.99998e-01
6.889071985e-01,5.44546e-01,9.99999e-01,9.99999e-01,9.99614e-01,5.44757e-01,9.99996e-01
6.923517345e-01,5.48702e-01,9.99999e-01,9.99999e-01,9.95250e-01,5.51333e-01,9.99977e-01
6.958134932e-01,5.56491e-01,9.99999e-01,9.99999e-01,9.97604e-01,5.57855e-01,9.99949e-01
6.992925606e-01,5.62980e-01,9.99999e-01,9.99999e-01,9.97663e-01,5.64324e-01,9.99954e-01
7.027890234e-01,5.69089e-01,9.99999e-01,9.99999e-01,9.97145e-01,5.70737e-01,9.99965e-01
7.063029686e-01,5.75699e-01,9.99999e-01,9.99999e-01,9.97597e-01,5.77095e-01,9.99982e-01
7.098344834e-01,5.82045e-01,9.99999e-01,9.99999e-01,9.97695e-01,5.83396e-01,9.99989e-01
7.133836558e-01,5.87785e-01,9.99999e-01,9.99999e-01,9.96875e-01,5.89639e-01,9.99979e-01
7.169505741e-01,5.80972e-01,9.99999e-01,9.99999e-01,9.75226e-01,5.95823e-01,9.99842e-01
7.205353270e-01,5.94629e-01,9.99999e-01,9.99999e-01,9.88113e-01,6.01949e-01,9.99721e-01
7.241380036e-01,5.98513e-01,9.99999e-01,9.99999e-01,9.84609e-01,6.08014e-01,9.99759e-01
7.277586936e-01,6.05378e-01,9.99999e-01,9.99999e-01,9.86119e-01,6.14019e-01,9.99803e-01
7.313974871e-01,6.10848e-01,9.99999e-01,9.99999e-01,9.85387e-01,6.19963e-01,9.99907e-01
7.350544745e-01,6.20808e-01,9.99999e-01,9.99999e-01,9.91982e-01,6.25845e-01,9.99967e-01
7.387297469e-01,6.27933e-01,9.99999e-01,9.99999e-01,9.94104e-01,6.31666e-01,9.99984e-01
7.424233956e-01,6.35588e-01,9.99999e-01,9.99999e-01,9.97121e-01,6.37424e-01,9.99996e-01
7.461355126e-01,6.41994e-01,9.99999e-01,9.99999e-01,9.98251e-01,6.43119e-01,9.99999e-01
7.498661902e-01,6.48225e-01,9.99999e-01,9.99999e-01,9.99188e-01,6.48751e-01,9.99999e-01
7.536155211e-01,6.54058e-01,9.99999e-01,9.99999e-01,9.99600e-01,6.54319e-01,9.99999e-01
7.573835987e-01,6.59689e-01,9.99999e-01,9.99999e-01,9.99794e-01,6.59825e-01,9.99999e-01
7.611705167e-01,6.65181e-01,9.99999e-01,9.99999e-01,9.99871e-01,6.65266e-01,9.99999e-01
7.649763693e-01,6.70589e-01,9.99999e-01,9.99999e-01,9.99919e-01,6.70643e-01,9.99999e-01
7.688012511e-01,6.75919e-01,9.99999e-01,9.99999e-01,9.99943e-01,6.75956e-01,9.99999e-01
7.726452574e-01,6.81174e-01,9.99999e-01,9.99999e-01,9.99953e-01,6.81206e-01,9.99999e-01
7.765084837e-01,6.86345e-01,9.99999e-01,9.99999e-01,9.99933e-01,6.86391e-01,9.99999e-01
7.803910261e-01,6.78134e-01,9.99999e-01,9.80929e-01,9.99713e-01,6.91512e-01,9.99999e-01
7.842929812e-01,6.44138e-01,9.99999e-01,9.25633e-01,9.98999e-01,6.96568e-01,9.99997e-01
7.882144461e-01,6.43861e-01,9.99999e-01,9.19600e-01,9.97963e-01,7.01561e-01,9.99985e-01
7.921555184e-01,6.72501e-01,9.99999e-01,9.52956e-01,9.98890e-01,7.06490e-01,9.99975e-01
7.961162960e-01,6.87696e-01,9.99999e-01,9.68681e-01,9.98008e-01,7.11356e-01,9.99976e-01
8.000968774e-01,7.02263e-01,9.99999e-01,9.82860e-01,9.97718e-01,7.16157e-01,9.99974e-01
8.040973618e-01,7.12861e-01,9.99999e-01,9.91135e-01,9.97713e-01,7.20896e-01,9.99980e-01
8.081178486e-01,7.18834e-01,9.99999e-01,9.95902e-01,9.94805e-01,7.25571e-01,9.99980e-01
8.121584379e-01,7.13557e-01,9.99999e-01,9.98750e-01,9.78516e-01,7.30183e-01,9.99927e-01
8.162192301e-01,7.15867e-01,9.99999e-01,9.99723e-01,9.74853e-01,7.34732e-01,9.99729e-01
8.203003262e-01,7.29393e-01,9.99999e-01,9.99995e-01,9.87021e-01,7.39220e-01,9.99683e-01
8.244018279e-01,7.30423e-01,9.99999e-01,9.99999e-01,9.82467e-01,7.43645e-01,9.99747e-01
8.285238370e-01,7.36507e-01,9.99999e-01,9.99999e-01,9.84819e-01,7.48008e-01,9.99801e-01
8.326664562e-01,7.40762e-01,9.99999e-01,9.99999e-01,9.84729e-01,7.52310e-01,9.99917e-01
8.368297885e-01,7.48304e-01,9.99999e-01,9.99999e-01,9.89116e-01,7.56551e-01,9.99980e-01
8.410139374e-01,7.55801e-01,9.99999e-01,9.99999e-01,9.93528e-01,7.60732e-01,9.99988e-01
8.452190071e-01,7.62423e-01,9.99999e-01,9.99999e-01,9.96829e-01,7.64852e-01,9.99992e-01
8.494451021e-01,7.67488e-01,9.99999e-01,9.99999e-01,9.98150e-01,7.68913e-01,9.99994e-01
8.536923276e-01,7.72071e-01,9.99999e-01,9.99999e-01,9.98910e-01,7.72914e-01,9.99996e-01
8.579607893e-01,7.76334e-01,9.99999e-01,9.99999e-01,9.99326e-01,7.76857e-01,9.99998e-01
8.622505932e-01,7.80408e-01,9.99999e-01,9.99999e-01,9.99573e-01,7.80741e-01,9.99999e-01
8.665618462e-01,7.45460e-01,9.99999e-01,9.50398e-01,9.99734e-01,7.84568e-01,9.99999e-01
8.708946554e-01,6.44914e-01,9.99999e-01,8.18313e-01,9.99695e-01,7.88337e-01,9.99999e-01
8.752491287e-01,6.75530e-01,9.99999e-01,8.53230e-01,9.99593e-01,7.92049e-01,9.99999e-01
8.796253743e-01,7.29591e-01,9.99999e-01,9.17423e-01,9.99434e-01,7.95704e-01,9.99998e-01
8.840235012e-01,7.64046e-01,9.99999e-01,9.56504e-01,9.99354e-01,7.99304e-01,9.99995e-01
8.884436187e-01,7.87090e-01,9.99999e-01,9.82742e-01,9.97585e-01,8.02849e-01,9.99988e-01
8.928858368e-01,7.80774e-01,9.99999e-01,9.92967e-01,9.75184e-01,8.06339e-01,9.99935e-01
8.973502660e-01,7.73369e-01,9.99999e-01,9.98299e-01,9.56965e-01,8.09774e-01,9.99670e-01
9.018370173e-01,7.94729e-01,9.99999e-01,9.99813e-01,9.78023e-01,8.13156e-01,9.99482e-01
9.063462024e-01,7.96026e-01,9.99999e-01,9.94965e-01,9.80241e-01,8.16485e-01,9.99545e-01
9.108779334e-01,7.85645e-01,9.99999e-01,9.88876e-01,9.69551e-01,8.19762e-01,9.99527e-01
9.154323231e-01,7.92342e-01,9.99999e-01,9.97418e-01,9.65605e-01,8.22986e-01,9.99609e-01
9.200094847e-01,7.72481e-01,9.99999e-01,9.60419e-01,9.73026e-01,8.26159e-01,9.99781e-01
9.246095321e-01,7.51021e-01,9.99999e-01,9.46561e-01,9.56463e-01,8.29281e-01,9.99748e-01
9.292325798e-01,5.93905e-01,9.99999e-01,9.57075e-01,7.44398e-01,8.32353e-01,9.98785e-01
9.338787427e-01,5.48234e-01,9.99999e-01,9.59170e-01,6.85464e-01,8.35376e-01,9.95619e-01
9.385481364e-01,6.96199e-01,9.99999e-01,9.69874e-01,8.59544e-01,8.38349e-01,9.95188e-01
9.432408771e-01,6.62970e-01,9.99999e-01,9.81534e-01,8.05761e-01,8.41274e-01,9.95847e-01
9.479570815e-01,6.16361e-01,9.99999e-01,9.90463e-01,7.39452e-01,8.44151e-01,9.96618e-01
9.526968669e-01,6.75056e-01,9.99999e-01,9.95403e-01,8.02161e-01,8.46980e-01,9.97936e-01
9.574603512e-01,6.93833e-01,9.99999e-01,9.98034e-01,8.18910e-01,8.49763e-01,9.98950e-01
9.622476530e-01,7.24599e-01,9.99999e-01,9.99387e-01,8.51089e-01,8.52500e-01,9.99274e-01
9.670588912e-01,7.78790e-01,9.99999e-01,9.99816e-01,9.11255e-01,8.55192e-01,9.99524e-01
9.718941857e-01,8.09277e-01,9.99999e-01,9.99987e-01,9.43745e-01,8.57838e-01,9.99635e-01
9.767536566e-01,8.19836e-01,9.99999e-01,9.99999e-01,9.53075e-01,8.60440e-01,9.99720e-01
9.816374249e-01,8.32860e-01,9.99999e-01,9.99999e-01,9.65168e-01,8.62999e-01,9.99902e-01
9.865456120e-01,8.46560e-01,9.99999e-01,9.99999e-01,9.78119e-01,8.65514e-01,9.99979e-01
9.914783401e-01,8.56195e-01,9.99999e-01,9.99999e-01,9.86419e-01,8.67987e-01,9.99993e-01
9.964357318e-01,8.63961e-01,9.99999e-01,9.99999e-01,9.92584e-01,8.70418e-01,9.99996e-01
1.001417910e+00,8.68923e-01,9.99999e-01,9.99999e-01,9.95554e-01,8.72807e-01,9.99994e-01
1.006425000e+00,8.72924e-01,9.99999e-01,9.99999e-01,9.97456e-01,8.75155e-01,9.99992e-01
1.011457125e+00,8.76077e-01,9.99999e-01,9.99999e-01,9.98425e-01,8.77464e-01,9.99992e-01
1.016514411e+00,8.78787e-01,9.99999e-01,9.99999e-01,9.98929e-01,8.79732e-01,9.99994e-01
1.021596983e+00,8.81178e-01,9.99999e-01,9.99968e-01,9.99145e-01,8.81962e-01,9.99994e-01
1.026704968e+00,8.81821e-01,9.99999e-01,9.98030e-01,9.99333e-01,8.84153e-01,9.99996e-01
1.031838492e+00,8.58532e-01,9.99999e-01,9.69121e-01,9.99516e-01,8.86305e-01,9.99998e-01
1.036997685e+00,2.43640e-01,9.99999e-01,2.74306e-01,9.99711e-01,8.88421e-01,9.99999e-01
1.042182673e+00,2.90681e-01,9.99999e-01,3.26529e-01,9.99654e-01,8.90500e-01,9.99999e-01
1.047393587e+00,2.68408e-01,9.99999e-01,3.00847e-01,9.99543e-01,8.92542e-01,9.99999e-01
1.052630555e+00,3.75066e-02,9.99999e-01,4.19487e-02,9.99372e-01,8.94548e-01,9.99999e-01
1.057893707e+00,7.27976e-02,9.99999e-01,8.12668e-02,9.98951e-01,8.96519e-01,9.99999e-01
1.063183176e+00,1.44936e-01,9.99999e-01,1.61541e-01,9.98276e-01,8.98456e-01,9.99998e-01
1.068499092e+00,2.63928e-01,9.99999e-01,2.93904e-01,9.97120e-01,9.00358e-01,9.99997e-01
1.073841587e+00,4.17222e-01,9.99999e-01,4.63864e-01,9.96620e-01,9.02227e-01,9.99995e-01
1.079210795e+00,5.54295e-01,9.99999e-01,6.15650e-01,9.95690e-01,9.04062e-01,9.99988e-01
1.084606849e+00,6.91075e-01,9.99999e-01,7.67806e-01,9.93465e-01,9.05865e-01,9.99971e-01
1.090029883e+00,7.83989e-01,9.99999e-01,8.71951e-01,9.90539e-01,9.07636e-01,9.99942e-01
1.095480033e+00,8.28542e-01,9.99999e-01,9.34914e-01,9.74501e-01,9.09375e-01,9.99895e-01
1.100957433e+00,8.25887e-01,9.99999e-01,9.68114e-01,9.36360e-01,9.11083e-01,9.99808e-01
1.106462220e+00,7.60672e-01,9.99999e-01,9.86725e-01,8.44640e-01,9.12760e-01,9.99676e-01
1.111994531e+00,6.37942e-01,9.99999e-01,9.95059e-01,7.01584e-01,9.14407e-01,9.99141e-01
1.117554504e+00,5.13049e-01,9.99999e-01,9.98800e-01,5.62424e-01,9.16025e-01,9.96903e-01
1.123142276e+00,5.93811e-01,9.99999e-01,9.99921e-01,6.51935e-01,9.17613e-01,9.92674e-01
1.128757988e+00,6.94123e-01,9.99999e-01,9.99999e-01,7.61610e-01,9.19173e-01,9.91530e-01
1.134401778e+00,4.82421e-01,9.99999e-01,9.99999e-01,5.27772e-01,9.20704e-01,9.92793e-01
1.140073787e+00,7.80727e-01,9.99999e-01,9.99999e-01,8.51490e-01,9.22208e-01,9.94237e-01
1.145774156e+00,6.55925e-01,9.99999e-01,9.99999e-01,7.13884e-01,9.23684e-01,9.94724e-01
1.151503026e+00,6.31941e-01,9.99999e-01,9.99999e-01,6.85096e-01,9.25134e-01,9.97057e-01
1.157260541e+00,6.78920e-01,9.99999e-01,9.99999e-01,7.33379e-01,9.26557e-01,9.99118e-01
1.163046844e+00,7.38651e-01,9.99999e-01,9.99999e-01,7.96198e-01,9.27954e-01,9.99749e-01
1.168862078e+00,7.93878e-01,9.99999e-01,9.99999e-01,8.54361e-01,9.29326e-01,9.99869e-01
1.174706389e+00,8.44371e-01,9.99999e-01,9.99999e-01,9.07432e-01,9.30672e-01,9.99820e-01
1.180579921e+00,8.78321e-01,9.99999e-01,9.99999e-01,9.42652e-01,9.31994e-01,9.99741e-01
1.186482820e+00,9.02432e-01,9.99999e-01,9.99994e-01,9.67195e-01,9.33291e-01,9.99734e-01
1.192415234e+00,9.09873e-01,9.99999e-01,9.92880e-01,9.80713e-01,9.34565e-01,9.99801e-01
1.198377311e+00,5.36550e-01,9.99999e-01,5.81431e-01,9.83681e-01,9.35815e-01,9.99811e-01
1.204369197e+00,8.27692e-07,9.99999e-01,8.91411e-07,9.84559e-01,9.37042e-01,9.99835e-01
1.210391043e+00,7.94033e-22,9.99999e-01,8.53393e-22,9.85240e-01,9.38246e-01,9.99896e-01
1.216442998e+00,3.88305e-19,9.99999e-01,4.16614e-19,9.87465e-01,9.39428e-01,9.99936e-01
1.222525213e+00,7.30698e-19,9.99999e-01,7.80877e-19,9.90222e-01,9.40588e-01,9.99960e-01
1.228637839e+00,1.59494e-14,9.99999e-01,1.70191e-14,9.93196e-01,9.41727e-01,9.99981e-01
