#,Wave/freq,Total,N2,CO2,H2O,Rayleigh,CIA
4.000000000e-01,1.36234e-03,9.99999e-01,9.99999e-01,9.99986e-01,1.36236e-03,9.99999e-01
4.020000000e-01,1.55221e-03,9.99999e-01,9.99999e-01,9.99991e-01,1.55222e-03,9.99999e-01
4.040100000e-01,1.76375e-03,9.99999e-01,9.99999e-01,9.99996e-01,1.76376e-03,9.99999e-01
4.060300500e-01,1.99907e-03,9.99999e-01,9.99999e-01,9.99998e-01,1.99907e-03,9.99999e-01
4.080602003e-01,2.26019e-03,9.99999e-01,9.99999e-01,9.99999e-01,2.26019e-03,9.99999e-01
4.101005013e-01,2.54922e-03,9.99999e-01,9.99999e-01,9.99999e-01,2.54922e-03,9.99999e-01
4.121510038e-01,2.86838e-03,9.99999e-01,9.99999e-01,9.99999e-01,2.86838e-03,9.99999e-01
4.142117588e-01,3.21998e-03,9.99999e-01,9.99999e-01,9.99996e-01,3.21999e-03,9.99999e-01
4.162828176e-01,3.60640e-03,9.99999e-01,9.99999e-01,9.99983e-01,3.60645e-03,9.99999e-01
4.183642317e-01,4.03023e-03,9.99999e-01,9.99999e-01,9.99990e-01,4.03027e-03,9.99999e-01
4.204560528e-01,4.49399e-03,9.99999e-01,9.99999e-01,9.99993e-01,4.49402e-03,9.99999e-01
4.225583331e-01,5.00035e-03,9.99999e-01,9.99999e-01,9.99997e-01,5.00036e-03,9.99999e-01
4.246711247e-01,5.55202e-03,9.99999e-01,9.99999e-01,9.99997e-01,5.55202e-03,9.99999e-01
4.267944804e-01,6.15181e-03,9.99999e-01,9.99999e-01,9.99996e-01,6.15183e-03,9.99999e-01
4.289284528e-01,6.80261e-03,9.99999e-01,9.99999e-01,9.99997e-01,6.80263e-03,9.99999e-01
4.310730950e-01,7.50734e-03,9.99999e-01,9.99999e-01,9.99998e-01,7.50735e-03,9.99999e-01
4.332284605e-01,8.26896e-03,9.99999e-01,9.99999e-01,9.99999e-01,8.26896e-03,9.99999e-01
4.353946028e-01,9.09047e-03,9.99999e-01,9.99999e-01,9.99999e-01,9.09047e-03,9.99999e-01
4.375715758e-01,9.97491e-03,9.99999e-01,9.99999e-01,9.99997e-01,9.97492e-03,9.99999e-01
4.397594337e-01,1.09252e-02,9.99999e-01,9.99999e-01,9.99985e-01,1.09254e-02,9.99999e-01
4.419582309e-01,1.19440e-02,9.99999e-01,9.99999e-01,9.99929e-01,1.19449e-02,9.99999e-01
4.441680220e-01,1.30358e-02,9.99999e-01,9.99999e-01,9.99944e-01,1.30365e-02,9.99999e-01
4.463888621e-01,1.42026e-02,9.99999e-01,9.99999e-01,9.99942e-01,1.42034e-02,9.99999e-01
4.486208064e-01,1.54480e-02,9.99999e-01,9.99999e-01,9.99964e-01,1.54485e-02,9.99999e-01
4.508639105e-01,1.67747e-02,9.99999e-01,9.99999e-01,9.99982e-01,1.67749e-02,9.99999e-01
4.531182300e-01,1.81855e-02,9.99999e-01,9.99999e-01,9.99992e-01,1.81856e-02,9.99999e-01
4.553838212e-01,1.96835e-02,9.99999e-01,9.99999e-01,9.99995e-01,1.96835e-02,9.99999e-01
4.576607403e-01,2.12715e-02,9.99999e-01,9.99999e-01,9.99997e-01,2.12715e-02,9.99999e-01
4.599490440e-01,2.29524e-02,9.99999e-01,9.99999e-01,9.99998e-01,2.29524e-02,9.99999e-01
4.622487892e-01,2.47290e-02,9.99999e-01,9.99999e-01,9.99999e-01,2.47290e-02,9.99999e-01
4.645600332e-01,2.66038e-02,9.99999e-01,9.99999e-01,9.99998e-01,2.66039e-02,9.99999e-01
4.668828333e-01,2.85791e-02,9.99999e-01,9.99999e-01,9.99982e-01,2.85796e-02,9.99999e-01
4.692172475e-01,3.06575e-02,9.99999e-01,9.99999e-01,9.99963e-01,3.06586e-02,9.99999e-01
4.715633337e-01,3.28426e-02,9.99999e-01,9.99999e-01,9.99976e-01,3.28433e-02,9.99999e-01
4.739211504e-01,3.51351e-02,9.99999e-01,9.99999e-01,9.99977e-01,3.51359e-02,9.99999e-01
4.762907561e-01,3.75380e-02,9.99999e-01,9.99999e-01,9.99987e-01,3.75384e-02,9.99999e-01
4.786722099e-01,4.00527e-02,9.99999e-01,9.99999e-01,9.99994e-01,4.00529e-02,9.99999e-01
4.810655710e-01,4.26810e-02,9.99999e-01,9.99999e-01,9.99998e-01,4.26810e-02,9.99999e-01
4.834708988e-01,4.54240e-02,9.99999e-01,9.99999e-01,9.99985e-01,4.54246e-02,9.99999e-01
4.858882533e-01,4.82839e-02,9.99999e-01,9.99999e-01,9.99974e-01,4.82851e-02,9.99999e-01
4.883176946e-01,5.12627e-02,9.99999e-01,9.99999e-01,9.99978e-01,5.12638e-02,9.99999e-01
4.907592831e-01,5.43610e-02,9.99999e-01,9.99999e-01,9.99980e-01,5.43620e-02,9.99999e-01
4.932130795e-01,5.75799e-02,9.99999e-01,9.99999e-01,9.99985e-01,5.75806e-02,9.99999e-01
4.956791449e-01,6.09201e-02,9.99999e-01,9.99999e-01,9.99992e-01,6.09206e-02,9.99999e-01
4.981575406e-01,6.43802e-02,9.99999e-01,9.99999e-01,9.99963e-01,6.43825e-02,9.99999e-01
5.006483283e-01,6.79606e-02,9.99999e-01,9.99999e-01,9.99906e-01,6.79669e-02,9.99998e-01
5.031515699e-01,7.16400e-02,9.99999e-01,9.99999e-01,9.99527e-01,7.16742e-02,9.99994e-01
5.056673278e-01,7.54851e-02,9.99999e-01,9.99999e-01,9.99750e-01,7.55044e-02,9.99993e-01
5.081956644e-01,7.94322e-02,9.99999e-01,9.99999e-01,9.99685e-01,7.94575e-02,9.99995e-01
5.107366428e-01,8.35156e-02,9.99999e-01,9.99999e-01,9.99787e-01,8.35334e-02,9.99998e-01
5.132903260e-01,8.77209e-02,9.99999e-01,9.99999e-01,9.99878e-01,8.77316e-02,9.99999e-01
5.158567776e-01,9.20469e-02,9.99999e-01,9.99999e-01,9.99948e-01,9.20516e-02,9.99999e-01
5.184360615e-01,9.64907e-02,9.99999e-01,9.99999e-01,9.99978e-01,9.64926e-02,9.99999e-01
5.210282418e-01,1.01053e-01,9.99999e-01,9.99999e-01,9.99991e-01,1.01054e-01,9.99999e-01
5.236333830e-01,1.05731e-01,9.99999e-01,9.99999e-01,9.99968e-01,1.05734e-01,9.99999e-01
5.262515499e-01,1.10530e-01,9.99999e-01,9.99999e-01,9.99980e-01,1.10532e-01,9.99999e-01
5.288828077e-01,1.15445e-01,9.99999e-01,9.99999e-01,9.99981e-01,1.15447e-01,9.99999e-01
5.315272217e-01,1.20475e-01,9.99999e-01,9.99999e-01,9.99983e-01,1.20477e-01,9.99999e-01
5.341848578e-01,1.25618e-01,9.99999e-01,9.99999e-01,9.99989e-01,1.25620e-01,9.99999e-01
5.368557821e-01,1.30869e-01,9.99999e-01,9.99999e-01,9.99963e-01,1.30874e-01,9.99999e-01
5.395400610e-01,1.36220e-01,9.99999e-01,9.99999e-01,9.99870e-01,1.36238e-01,9.99998e-01
5.422377613e-01,1.41685e-01,9.99999e-01,9.99999e-01,9.99832e-01,1.41709e-01,9.99996e-01
5.449489501e-01,1.47262e-01,9.99999e-01,9.99999e-01,9.99844e-01,1.47285e-01,9.99996e-01
5.476736949e-01,1.52943e-01,9.99999e-01,9.99999e-01,9.99861e-01,1.52964e-01,9.99997e-01
5.504120634e-01,1.58728e-01,9.99999e-01,9.99999e-01,9.99899e-01,1.58744e-01,9.99999e-01
5.531641237e-01,1.64613e-01,9.99999e-01,9.99999e-01,9.99949e-01,1.64621e-01,9.99999e-01
5.559299443e-01,1.70589e-01,9.99999e-01,9.99999e-01,9.99975e-01,1.70593e-01,9.99999e-01
5.587095940e-01,1.76655e-01,9.99999e-01,9.99999e-01,9.99984e-01,1.76658e-01,9.99999e-01
5.615031420e-01,1.82808e-01,9.99999e-01,9.99999e-01,9.99982e-01,1.82811e-01,9.99999e-01
5.643106577e-01,1.89048e-01,9.99999e-01,9.99999e-01,9.99980e-01,1.89052e-01,9.99999e-01
5.671322110e-01,1.95329e-01,9.99999e-01,9.99999e-01,9.99767e-01,1.95375e-01,9.99997e-01
5.699678720e-01,2.01728e-01,9.99999e-01,9.99999e-01,9.99750e-01,2.01779e-01,9.99993e-01
5.728177114e-01,2.08206e-01,9.99999e-01,9.99999e-01,9.99741e-01,2.08261e-01,9.99994e-01
5.756818000e-01,2.14764e-01,9.99999e-01,9.99999e-01,9.99762e-01,2.14816e-01,9.99996e-01
5.785602090e-01,2.21396e-01,9.99999e-01,9.99999e-01,9.99792e-01,2.21442e-01,9.99998e-01
5.814530100e-01,2.28088e-01,9.99999e-01,9.99999e-01,9.99791e-01,2.28135e-01,9.99999e-01
5.843602750e-01,2.34834e-01,9.99999e-01,9.99999e-01,9.99752e-01,2.34893e-01,9.99998e-01
5.872820764e-01,2.41192e-01,9.99999e-01,9.99999e-01,9.97867e-01,2.41711e-01,9.99984e-01
5.902184868e-01,2.47933e-01,9.99999e-01,9.99999e-01,9.97412e-01,2.48587e-01,9.99958e-01
5.931695792e-01,2.55040e-01,9.99999e-01,9.99999e-01,9.98172e-01,2.55516e-01,9.99960e-01
5.961354271e-01,2.61965e-01,9.99999e-01,9.99999e-01,9.97995e-01,2.62497e-01,9.99976e-01
5.991161043e-01,2.69128e-01,9.99999e-01,9.99999e-01,9.98538e-01,2.69524e-01,9.99992e-01
6.021116848e-01,2.76365e-01,9.99999e-01,9.99999e-01,9.99169e-01,2.76595e-01,9.99998e-01
6.051222432e-01,2.83588e-01,9.99999e-01,9.99999e-01,9.99579e-01,2.83707e-01,9.99999e-01
6.081478544e-01,2.90802e-01,9.99999e-01,9.99999e-01,9.99818e-01,2.90855e-01,9.99999e-01
6.111885937e-01,2.98014e-01,9.99999e-01,9.99999e-01,9.99922e-01,2.98037e-01,9.99999e-01
6.142445367e-01,3.05239e-01,9.99999e-01,9.99999e-01,9.99965e-01,3.05249e-01,9.99999e-01
6.173157594e-01,3.12483e-01,9.99999e-01,9.99999e-01,9.99980e-01,3.12489e-01,9.99999e-01
6.204023382e-01,3.19746e-01,9.99999e-01,9.99999e-01,9.99983e-01,3.19751e-01,9.99999e-01
6.235043498e-01,3.27012e-01,9.99999e-01,9.99999e-01,9.99929e-01,3.27035e-01,9.99999e-01
6.266218716e-01,3.34210e-01,9.99999e-01,9.99999e-01,9.99627e-01,3.34335e-01,9.99996e-01
6.297549810e-01,3.41601e-01,9.99999e-01,9.99999e-01,9.99863e-01,3.41649e-01,9.99994e-01
6.329037559e-01,3.48878e-01,9.99999e-01,9.99999e-01,9.99729e-01,3.48974e-01,9.99995e-01
6.360682746e-01,3.56224e-01,9.99999e-01,9.99999e-01,9.99770e-01,3.56307e-01,9.99997e-01
6.392486160e-01,3.63536e-01,9.99999e-01,9.99999e-01,9.99702e-01,3.63644e-01,9.99998e-01
6.424448591e-01,3.70835e-01,9.99999e-01,9.99999e-01,9.99602e-01,3.70983e-01,9.99997e-01
6.456570834e-01,3.77619e-01,9.99999e-01,9.99999e-01,9.98153e-01,3.78321e-01,9.99989e-01
6.488853688e-01,3.85121e-01,9.99999e-01,9.99999e-01,9.98644e-01,3.85655e-01,9.99970e-01
6.521297956e-01,3.92430e-01,9.99999e-01,9.99999e-01,9.98617e-01,3.92982e-01,9.99975e-01
6.553904446e-01,3.99743e-01,9.99999e-01,9.99999e-01,9.98626e-01,4.00299e-01,9.99981e-01
6.586673968e-01,4.07122e-01,9.99999e-01,9.99999e-01,9.98822e-01,4.07604e-01,9.99993e-01
6.619607338e-01,4.14611e-01,9.99999e-01,9.99999e-01,9.99319e-01,4.14894e-01,9.99998e-01
6.652705375e-01,4.22000e-01,9.99999e-01,9.99999e-01,9.99605e-01,4.22167e-01,9.99998e-01
6.685968902e-01,4.29341e-01,9.99999e-01,9.99999e-01,9.99816e-01,4.29419e-01,9.99999e-01
6.719398746e-01,4.36613e-01,9.99999e-01,9.99999e-01,9.99914e-01,4.36650e-01,9.99999e-01
6.752995740e-01,4.43835e-01,9.99999e-01,9.99999e-01,9.99953e-01,4.43855e-01,9.99999e-01
6.786760719e-01,4.51004e-01,9.99999e-01,9.99999e-01,9.99933e-01,4.51034e-01,9.99999e-01
6.820694522e-01,4.58131e-01,9.99999e-01,9.99999e-01,9.99886e-01,4.58183e-01,9.99998e-01
6.854797995e-01,4.65233e-01,9.99999e-01,9.99999e-01,9.99853e-01,4.65302e-01,9.99998e-01
6.889071985e-01,4.72219e-01,9.99999e-01,9.99999e-01,9.99646e-01,4.72387e-01,9.99996e-01
6.923517345e-01,4.76655e-01,9.99999e-01,9.99999e-01,9.94224e-01,4.79437e-01,9.99971e-01
6.958134932e-01,4.84950e-01,9.99999e-01,9.99999e-01,9.96979e-01,4.86449e-01,9.99936e-01
6.992925606e-01,4.91987e-01,9.99999e-01,9.99999e-01,9.97144e-01,4.93423e-01,9.99944e-01
7.027890234e-01,4.98568e-01,9.99999e-01,9.99999e-01,9.96468e-01,5.00356e-01,9.99957e-01
7.063029686e-01,5.05730e-01,9.99999e-01,9.99999e-01,9.97031e-01,5.07246e-01,9.99978e-01
7.098344834e-01,5.12623e-01,9.99999e-01,9.99999e-01,9.97152e-01,5.14093e-01,9.99987e-01
7.133836558e-01,5.18909e-01,9.99999e-01,9.99999e-01,9.96214e-01,5.20894e-01,9.99974e-01
7.169505741e-01,5.11602e-01,9.99999e-01,9.99999e-01,9.69777e-01,5.27648e-01,9.99805e-01
7.205353270e-01,5.26188e-01,9.99999e-01,9.99999e-01,9.85057e-01,5.34353e-01,9.99656e-01
7.241380036e-01,5.30642e-01,9.99999e-01,9.99999e-01,9.81127e-01,5.41009e-01,9.99703e-01
7.277586936e-01,5.38147e-01,9.99999e-01,9.99999e-01,9.82950e-01,5.47614e-01,9.99757e-01
7.313974871e-01,5.44058e-01,9.99999e-01,9.99999e-01,9.81869e-01,5.54166e-01,9.99886e-01
7.350544745e-01,5.55077e-01,9.99999e-01,9.99999e-01,9.90069e-01,5.60666e-01,9.99960e-01
7.387297469e-01,5.62953e-01,9.99999e-01,9.99999e-01,9.92687e-01,5.67110e-01,9.99981e-01
7.424233956e-01,5.71443e-01,9.99999e-01,9.99999e-01,9.96416e-01,5.73500e-01,9.99996e-01
7.461355126e-01,5.78573e-01,9.99999e-01,9.99999e-01,9.97827e-01,5.79833e-01,9.99998e-01
7.498661902e-01,5.85516e-01,9.99999e-01,9.99999e-01,9.98987e-01,5.86109e-01,9.99999e-01
7.536155211e-01,5.92033e-01,9.99999e-01,9.99999e-01,9.99503e-01,5.92327e-01,9.99999e-01
7.573835987e-01,5.98333e-01,9.99999e-01,9.99999e-01,9.99744e-01,5.98486e-01,9.99999e-01
7.611705167e-01,6.04489e-01,9.99999e-01,9.99999e-01,9.99840e-01,6.04585e-01,9.99999e-01
7.649763693e-01,6.10564e-01,9.99999e-01,9.99999e-01,9.99900e-01,6.10624e-01,9.99999e-01
7.688012511e-01,6.16560e-01,9.99999e-01,9.99999e-01,9.99930e-01,6.16603e-01,9.99999e-01
7.726452574e-01,6.22485e-01,9.99999e-01,9.99999e-01,9.99942e-01,6.22520e-01,9.99999e-01
7.765084837e-01,6.28325e-01,9.99999e-01,9.99999e-01,9.99918e-01,6.28376e-01,9.99999e-01
7.803910261e-01,6.20141e-01,9.99999e-01,9.78214e-01,9.99650e-01,6.34169e-01,9.99999e-01
7.842929812e-01,5.80721e-01,9.99999e-01,9.08592e-01,9.98781e-01,6.39900e-01,9.99997e-01
7.882144461e-01,5.81078e-01,9.99999e-01,9.02327e-01,9.97485e-01,6.45568e-01,9.99984e-01
7.921555184e-01,6.12858e-01,9.99999e-01,9.42469e-01,9.98619e-01,6.51172e-01,9.99969e-01
7.961162960e-01,6.29647e-01,9.99999e-01,9.61136e-01,9.97566e-01,6.56713e-01,9.99971e-01
8.000968774e-01,6.46289e-01,9.99999e-01,9.78762e-01,9.97186e-01,6.62191e-01,9.99969e-01
8.040973618e-01,6.58349e-01,9.99999e-01,9.88938e-01,9.97186e-01,6.67604e-01,9.99975e-01
8.081178486e-01,6.65282e-01,9.99999e-01,9.94913e-01,9.93670e-01,6.72954e-01,9.99976e-01
8.121584379e-01,6.59378e-01,9.99999e-01,9.98423e-01,9.73801e-01,6.78240e-01,9.99910e-01
8.162192301e-01,6.61744e-01,9.99999e-01,9.99651e-01,9.68880e-01,6.83461e-01,9.99665e-01
8.203003262e-01,6.77589e-01,9.99999e-01,9.99994e-01,9.84373e-01,6.88618e-01,9.99608e-01
8.244018279e-01,6.78277e-01,9.99999e-01,9.99999e-01,9.78054e-01,6.93711e-01,9.99688e-01
8.285238370e-01,6.85555e-01,9.99999e-01,9.99999e-01,9.81368e-01,6.98740e-01,9.99755e-01
8.326664562e-01,6.90366e-01,9.99999e-01,9.99999e-01,9.81142e-01,7.03706e-01,9.99898e-01
8.368297885e-01,6.99033e-01,9.99999e-01,9.99999e-01,9.86510e-01,7.08607e-01,9.99976e-01
8.410139374e-01,7.07706e-01,9.99999e-01,9.99999e-01,9.91968e-01,7.13445e-01,9.99986e-01
8.452190071e-01,7.15380e-01,9.99999e-01,9.99999e-01,9.96055e-01,7.18219e-01,9.99991e-01
8.494451021e-01,7.21272e-01,9.99999e-01,9.99999e-01,9.97712e-01,7.22930e-01,9.99993e-01
8.536923276e-01,7.26590e-01,9.99999e-01,9.99999e-01,9.98645e-01,7.27578e-01,9.99995e-01
8.579607893e-01,7.31552e-01,9.99999e-01,9.99999e-01,9.99166e-01,7.32162e-01,9.99998e-01
8.622505932e-01,7.36295e-01,9.99999e-01,9.99999e-01,9.99470e-01,7.36685e-01,9.99999e-01
8.665618462e-01,7.00414e-01,9.99999e-01,9.45342e-01,9.99672e-01,7.41145e-01,9.99999e-01
8.708946554e-01,5.82830e-01,9.99999e-01,7.82037e-01,9.99625e-01,7.45544e-01,9.99999e-01
8.752491287e-01,6.15854e-01,9.99999e-01,8.21672e-01,9.99498e-01,7.49880e-01,9.99998e-01
8.796253743e-01,6.77104e-01,9.99999e-01,8.98441e-01,9.99306e-01,7.54156e-01,9.99997e-01
8.840235012e-01,7.16996e-01,9.99999e-01,9.46189e-01,9.99207e-01,7.58371e-01,9.99994e-01
8.884436187e-01,7.43948e-01,9.99999e-01,9.78452e-01,9.97117e-01,7.62525e-01,9.99985e-01
8.928858368e-01,7.36966e-01,9.99999e-01,9.91226e-01,9.69857e-01,7.66620e-01,9.99920e-01
8.973502660e-01,7.28057e-01,9.99999e-01,9.97860e-01,9.47108e-01,7.70655e-01,9.99593e-01
9.018370173e-01,7.52748e-01,9.99999e-01,9.99763e-01,9.72595e-01,7.74631e-01,9.99361e-01
9.063462024e-01,7.54913e-01,9.99999e-01,9.93972e-01,9.75952e-01,7.78548e-01,9.99439e-01
9.108779334e-01,7.42466e-01,9.99999e-01,9.86188e-01,9.62696e-01,7.82407e-01,9.99417e-01
9.154323231e-01,7.50202e-01,9.99999e-01,9.96736e-01,9.57744e-01,7.86208e-01,9.99518e-01
9.200094847e-01,7.28140e-01,9.99999e-01,9.52648e-01,9.66711e-01,7.89953e-01,9.99730e-01
9.246095321e-01,7.03345e-01,9.99999e-01,9.34125e-01,9.48249e-01,7.93640e-01,9.99689e-01
9.292325798e-01,5.29294e-01,9.99999e-01,9.47926e-01,6.98486e-01,7.97272e-01,9.98789e-01
9.338787427e-01,4.77138e-01,9.99999e-01,9.49630e-01,6.28130e-01,8.00847e-01,9.95006e-01
9.385481364e-01,6.39380e-01,9.99999e-01,9.62804e-01,8.29309e-01,8.04368e-01,9.94064e-01
9.432408771e-01,6.04762e-01,9.99999e-01,9.77075e-01,7.69463e-01,8.07835e-01,9.94876e-01
9.479570815e-01,5.55053e-01,9.99999e-01,9.88182e-01,6.94968e-01,8.11247e-01,9.95828e-01
9.526968669e-01,6.16357e-01,9.99999e-01,9.94282e-01,7.62655e-01,8.14606e-01,9.97453e-01
9.574603512e-01,6.37206e-01,9.99999e-01,9.97551e-01,7.81905e-01,8.17912e-01,9.98705e-01
9.622476530e-01,6.71411e-01,9.99999e-01,9.99235e-01,8.18966e-01,8.21166e-01,9.99104e-01
9.670588912e-01,7.34292e-01,9.99999e-01,9.99770e-01,8.91476e-01,8.24368e-01,9.99387e-01
9.718941857e-01,7.70051e-01,9.99999e-01,9.99983e-01,9.30987e-01,8.27519e-01,9.99548e-01
9.767536566e-01,7.82500e-01,9.99999e-01,9.99999e-01,9.42392e-01,8.30619e-01,9.99655e-01
9.816374249e-01,7.97726e-01,9.99999e-01,9.99999e-01,9.56998e-01,8.33669e-01,9.99880e-01
9.865456120e-01,8.14002e-01,9.99999e-01,9.99999e-01,9.72930e-01,8.36670e-01,9.99974e-01
9.914783401e-01,8.25506e-01,9.99999e-01,9.99999e-01,9.83193e-01,8.39623e-01,9.99992e-01
9.964357318e-01,8.34784e-01,9.99999e-01,9.99999e-01,9.90813e-01,8.42527e-01,9.99995e-01
1.001417910e+00,8.40717e-01,9.99999e-01,9.99999e-01,9.94485e-01,8.45383e-01,9.99993e-01
1.006425000e+00,8.45518e-01,9.99999e-01,9.99999e-01,9.96855e-01,8.48192e-01,9.99990e-01
1.011457125e+00,8.49286e-01,9.99999e-01,9.99999e-01,9.98046e-01,8.50955e-01,9.99991e-01
1.016514411e+00,8.52536e-01,9.99999e-01,9.99999e-01,9.98673e-01,8.53673e-01,9.99993e-01
1.021596983e+00,8.55408e-01,9.99999e-01,9.99968e-01,9.98943e-01,8.56344e-01,9.99993e-01
1.026704968e+00,8.56249e-01,9.99999e-01,9.97655e-01,9.99175e-01,8.58972e-01,9.99995e-01
1.031838492e+00,8.33887e-01,9.99999e-01,9.68453e-01,9.99400e-01,8.61555e-01,9.99998e-01
1.036997685e+00,2.00635e-01,9.99999e-01,2.32258e-01,9.99643e-01,8.64094e-01,9.99999e-01
1.042182673e+00,2.19323e-01,9.99999e-01,2.53186e-01,9.99575e-01,8.66591e-01,9.99999e-01
1.047393587e+00,2.17886e-01,9.99999e-01,2.50846e-01,9.99437e-01,8.69046e-01,9.99999e-01
1.052630555e+00,1.99945e-02,9.99999e-01,2.29574e-02,9.99228e-01,8.71458e-01,9.99999e-01
1.057893707e+00,4.13639e-02,9.99999e-01,4.73819e-02,9.98712e-01,8.73830e-01,9.99999e-01
1.063183176e+00,9.47809e-02,9.99999e-01,1.08356e-01,9.97881e-01,8.76161e-01,9.99998e-01
1.068499092e+00,1.94939e-01,9.99999e-01,2.22614e-01,9.96452e-01,8.78452e-01,9.99997e-01
1.073841587e+00,3.39940e-01,9.99999e-01,3.87423e-01,9.95849e-01,8.80703e-01,9.99994e-01
1.079210795e+00,4.82626e-01,9.99999e-01,5.49387e-01,9.94681e-01,8.82916e-01,9.99985e-01
1.084606849e+00,6.32741e-01,9.99999e-01,7.20533e-01,9.91958e-01,8.85090e-01,9.99965e-01
1.090029883e+00,7.40166e-01,9.99999e-01,8.43862e-01,9.88475e-01,8.87227e-01,9.99928e-01
1.095480033e+00,7.92615e-01,9.99999e-01,9.19791e-01,9.68887e-01,8.89326e-01,9.99871e-01
1.100957433e+00,7.90070e-01,9.99999e-01,9.60566e-01,9.22696e-01,8.91389e-01,9.99764e-01
1.106462220e+00,7.15587e-01,9.99999e-01,9.83502e-01,8.14403e-01,8.93416e-01,9.99600e-01
1.111994531e+00,5.76313e-01,9.99999e-01,9.93855e-01,6.48110e-01,8.95407e-01,9.98940e-01
1.117554504e+00,4.41490e-01,9.99999e-01,9.98495e-01,4.94522e-01,8.97363e-01,9.96179e-01
1.123142276e+00,5.27991e-01,9.99999e-01,9.99900e-01,5.92512e-01,8.99285e-01,9.90965e-01
1.128757988e+00,6.39731e-01,9.99999e-01,9.99999e-01,7.17378e-01,9.01172e-01,9.89556e-01
1.134401778e+00,4.16280e-01,9.99999e-01,9.99999e-01,4.65116e-01,9.03026e-01,9.91112e-01
1.140073787e+00,7.38013e-01,9.99999e-01,9.99999e-01,8.21459e-01,9.04848e-01,9.92892e-01
1.145774156e+00,5.95887e-01,9.99999e-01,9.99999e-01,6.61555e-01,9.06636e-01,9.93492e-01
1.151503026e+00,5.70342e-01,9.99999e-01,9.99999e-01,6.30145e-01,9.08393e-01,9.96369e-01
1.157260541e+00,6.20831e-01,9.99999e-01,9.99999e-01,6.82884e-01,9.10119e-01,9.98912e-01
1.163046844e+00,6.87838e-01,9.99999e-01,9.99999e-01,7.54594e-01,9.11814e-01,9.99691e-01
1.168862078e+00,7.51606e-01,9.99999e-01,9.99999e-01,8.22925e-01,9.13478e-01,9.99840e-01
1.174706389e+00,8.11273e-01,9.99999e-01,9.99999e-01,8.86714e-01,9.15112e-01,9.99789e-01
1.180579921e+00,8.51766e-01,9.99999e-01,9.99999e-01,9.29443e-01,9.16717e-01,9.99681e-01
1.186482820e+00,8.80856e-01,9.99999e-01,9.99995e-01,9.59548e-01,9.18293e-01,9.99672e-01
1.192415234e+00,8.90260e-01,9.99999e-01,9.91609e-01,9.76210e-01,9.19840e-01,9.99754e-01
1.198377311e+00,5.21085e-01,9.99999e-01,5.75394e-01,9.79918e-01,9.21360e-01,9.99768e-01
1.204369197e+00,7.05745e-08,9.99999e-01,7.73423e-08,9.80974e-01,9.22851e-01,9.99790e-01
1.210391043e+00,2.05409e-26,9.99999e-01,2.24531e-26,9.81803e-01,9.24316e-01,9.99872e-01
1.216442998e+00,4.24872e-23,9.99999e-01,4.63434e-23,9.84493e-01,9.25754e-01,9.99921e-01
1.222525213e+00,9.01993e-23,9.99999e-01,9.79025e-23,9.87914e-01,9.27166e-01,9.99951e-01
1.228637839e+00,1.39381e-17,9.99999e-01,1.51005e-17,9.91595e-01,9.28552e-01,9.99977e-01
