#,Wave/freq,Total,N2,CO2,H2O,Rayleigh,CIA
4.000000000e-01,1.07339e-02,9.99999e-01,9.99999e-01,9.99990e-01,1.07340e-02,9.99999e-01
4.020000000e-01,1.17408e-02,9.99999e-01,9.99999e-01,9.99994e-01,1.17408e-02,9.99999e-01
4.040100000e-01,1.28182e-02,9.99999e-01,9.99999e-01,9.99997e-01,1.28182e-02,9.99999e-01
4.060300500e-01,1.39702e-02,9.99999e-01,9.99999e-01,9.99998e-01,1.39702e-02,9.99999e-01
4.080602003e-01,1.51998e-02,9.99999e-01,9.99999e-01,9.99999e-01,1.51998e-02,9.99999e-01
4.101005013e-01,1.65102e-02,9.99999e-01,9.99999e-01,9.99999e-01,1.65102e-02,9.99999e-01
4.121510038e-01,1.79042e-02,9.99999e-01,9.99999e-01,9.99999e-01,1.79042e-02,9.99999e-01
4.142117588e-01,1.93849e-02,9.99999e-01,9.99999e-01,9.99997e-01,1.93849e-02,9.99999e-01
4.162828176e-01,2.09549e-02,9.99999e-01,9.99999e-01,9.99988e-01,2.09552e-02,9.99999e-01
4.183642317e-01,2.26176e-02,9.99999e-01,9.99999e-01,9.99993e-01,2.26178e-02,9.99999e-01
4.204560528e-01,2.43754e-02,9.99999e-01,9.99999e-01,9.99995e-01,2.43755e-02,9.99999e-01
4.225583331e-01,2.62310e-02,9.99999e-01,9.99999e-01,9.99998e-01,2.62310e-02,9.99999e-01
4.246711247e-01,2.81869e-02,9.99999e-01,9.99999e-01,9.99998e-01,2.81869e-02,9.99999e-01
4.267944804e-01,3.02456e-02,9.99999e-01,9.99999e-01,9.99997e-01,3.02456e-02,9.99999e-01
4.289284528e-01,3.24095e-02,9.99999e-01,9.99999e-01,9.99998e-01,3.24096e-02,9.99999e-01
4.310730950e-01,3.46809e-02,9.99999e-01,9.99999e-01,9.99998e-01,3.46810e-02,9.99999e-01
4.332284605e-01,3.70619e-02,9.99999e-01,9.99999e-01,9.99999e-01,3.70619e-02,9.99999e-01
4.353946028e-01,3.95544e-02,9.99999e-01,9.99999e-01,9.99999e-01,3.95544e-02,9.99999e-01
4.375715758e-01,4.21603e-02,9.99999e-01,9.99999e-01,9.99998e-01,4.21603e-02,9.99999e-01
4.397594337e-01,4.48809e-02,9.99999e-01,9.99999e-01,9.99990e-01,4.48813e-02,9.99999e-01
4.419582309e-01,4.77166e-02,9.99999e-01,9.99999e-01,9.99951e-01,4.77189e-02,9.99999e-01
4.441680220e-01,5.06726e-02,9.99999e-01,9.99999e-01,9.99961e-01,5.06745e-02,9.99999e-01
4.463888621e-01,5.37473e-02,9.99999e-01,9.99999e-01,9.99960e-01,5.37494e-02,9.99999e-01
4.486208064e-01,5.69431e-02,9.99999e-01,9.99999e-01,9.99975e-01,5.69445e-02,9.99999e-01
4.508639105e-01,6.02601e-02,9.99999e-01,9.99999e-01,9.99988e-01,6.02607e-02,9.99999e-01
4.531182300e-01,6.36986e-02,9.99999e-01,9.99999e-01,9.99995e-01,6.36989e-02,9.99999e-01
4.553838212e-01,6.72592e-02,9.99999e-01,9.99999e-01,9.99996e-01,6.72594e-02,9.99999e-01
4.576607403e-01,7.09426e-02,9.99999e-01,9.99999e-01,9.99998e-01,7.09427e-02,9.99999e-01
4.599490440e-01,7.47489e-02,9.99999e-01,9.99999e-01,9.99998e-01,7.47490e-02,9.99999e-01
4.622487892e-01,7.86782e-02,9.99999e-01,9.99999e-01,9.99999e-01,7.86782e-02,9.99999e-01
4.645600332e-01,8.27301e-02,9.99999e-01,9.99999e-01,9.99998e-01,8.27302e-02,9.99999e-01
4.668828333e-01,8.69036e-02,9.99999e-01,9.99999e-01,9.99988e-01,8.69046e-02,9.99999e-01
4.692172475e-01,9.11987e-02,9.99999e-01,9.99999e-01,9.99974e-01,9.12009e-02,9.99999e-01
4.715633337e-01,9.56170e-02,9.99999e-01,9.99999e-01,9.99983e-01,9.56185e-02,9.99999e-01
4.739211504e-01,1.00155e-01,9.99999e-01,9.99999e-01,9.99984e-01,1.00156e-01,9.99999e-01
4.762907561e-01,1.04813e-01,9.99999e-01,9.99999e-01,9.99991e-01,1.04814e-01,9.99999e-01
4.786722099e-01,1.09589e-01,9.99999e-01,9.99999e-01,9.99996e-01,1.09589e-01,9.99999e-01
4.810655710e-01,1.14481e-01,9.99999e-01,9.99999e-01,9.99998e-01,1.14481e-01,9.99999e-01
4.834708988e-01,1.19487e-01,9.99999e-01,9.99999e-01,9.99990e-01,1.19489e-01,9.99999e-01
4.858882533e-01,1.24607e-01,9.99999e-01,9.99999e-01,9.99982e-01,1.24610e-01,9.99999e-01
4.883176946e-01,1.29840e-01,9.99999e-01,9.99999e-01,9.99984e-01,1.29842e-01,9.99999e-01
4.907592831e-01,1.35183e-01,9.99999e-01,9.99999e-01,9.99986e-01,1.35185e-01,9.99999e-01
4.932130795e-01,1.40634e-01,9.99999e-01,9.99999e-01,9.99990e-01,1.40636e-01,9.99999e-01
4.956791449e-01,1.46191e-01,9.99999e-01,9.99999e-01,9.99994e-01,1.46192e-01,9.99999e-01
4.981575406e-01,1.51847e-01,9.99999e-01,9.99999e-01,9.99974e-01,1.51851e-01,9.99999e-01
5.006483283e-01,1.57601e-01,9.99999e-01,9.99999e-01,9.99935e-01,1.57611e-01,9.99999e-01
5.031515699e-01,1.63416e-01,9.99999e-01,9.99999e-01,9.99675e-01,1.63469e-01,9.99996e-01
5.056673278e-01,1.69393e-01,9.99999e-01,9.99999e-01,9.99828e-01,1.69423e-01,9.99995e-01
5.081956644e-01,1.75431e-01,9.99999e-01,9.99999e-01,9.99783e-01,1.75470e-01,9.99996e-01
5.107366428e-01,1.81580e-01,9.99999e-01,9.99999e-01,9.99853e-01,1.81606e-01,9.99999e-01
5.132903260e-01,1.87814e-01,9.99999e-01,9.99999e-01,9.99916e-01,1.87830e-01,9.99999e-01
5.158567776e-01,1.94131e-01,9.99999e-01,9.99999e-01,9.99964e-01,1.94138e-01,9.99999e-01
5.184360615e-01,2.00524e-01,9.99999e-01,9.99999e-01,9.99985e-01,2.00526e-01,9.99999e-01
5.210282418e-01,2.06992e-01,9.99999e-01,9.99999e-01,9.99994e-01,2.06993e-01,9.99999e-01
5.236333830e-01,2.13529e-01,9.99999e-01,9.99999e-01,9.99978e-01,2.13534e-01,9.99999e-01
5.262515499e-01,2.20143e-01,9.99999e-01,9.99999e-01,9.99986e-01,2.20146e-01,9.99999e-01
5.288828077e-01,2.26824e-01,9.99999e-01,9.99999e-01,9.99987e-01,2.26827e-01,9.99999e-01
5.315272217e-01,2.33570e-01,9.99999e-01,9.99999e-01,9.99988e-01,2.33572e-01,9.99999e-01
5.341848578e-01,2.40377e-01,9.99999e-01,9.99999e-01,9.99992e-01,2.40379e-01,9.99999e-01
5.368557821e-01,2.47238e-01,9.99999e-01,9.99999e-01,9.99974e-01,2.47244e-01,9.99999e-01
5.395400610e-01,2.54140e-01,9.99999e-01,9.99999e-01,9.99910e-01,2.54163e-01,9.99998e-01
5.422377613e-01,2.61103e-01,9.99999e-01,9.99999e-01,9.99884e-01,2.61134e-01,9.99997e-01
5.449489501e-01,2.68123e-01,9.99999e-01,9.99999e-01,9.99892e-01,2.68152e-01,9.99997e-01
5.476736949e-01,2.75189e-01,9.99999e-01,9.99999e-01,9.99904e-01,2.75215e-01,9.99998e-01
5.504120634e-01,2.82300e-01,9.99999e-01,9.99999e-01,9.99930e-01,2.82319e-01,9.99999e-01
5.531641237e-01,2.89451e-01,9.99999e-01,9.99999e-01,9.99964e-01,2.89461e-01,9.99999e-01
5.559299443e-01,2.96631e-01,9.99999e-01,9.99999e-01,9.99982e-01,2.96636e-01,9.99999e-01
5.587095940e-01,3.03840e-01,9.99999e-01,9.99999e-01,9.99989e-01,3.03843e-01,9.99999e-01
5.615031420e-01,3.11074e-01,9.99999e-01,9.99999e-01,9.99987e-01,3.11077e-01,9.99999e-01
5.643106577e-01,3.18331e-01,9.99999e-01,9.99999e-01,9.99986e-01,3.18336e-01,9.99999e-01
5.671322110e-01,3.25562e-01,9.99999e-01,9.99999e-01,9.99838e-01,3.25615e-01,9.99998e-01
5.699678720e-01,3.32854e-01,9.99999e-01,9.99999e-01,9.99828e-01,3.32912e-01,9.99995e-01
5.728177114e-01,3.40162e-01,9.99999e-01,9.99999e-01,9.99821e-01,3.40224e-01,9.99995e-01
5.756818000e-01,3.47490e-01,9.99999e-01,9.99999e-01,9.99836e-01,3.47547e-01,9.99997e-01
5.785602090e-01,3.54828e-01,9.99999e-01,9.99999e-01,9.99857e-01,3.54879e-01,9.99998e-01
5.814530100e-01,3.62164e-01,9.99999e-01,9.99999e-01,9.99856e-01,3.62215e-01,9.99999e-01
5.843602750e-01,3.69491e-01,9.99999e-01,9.99999e-01,9.99829e-01,3.69554e-01,9.99998e-01
5.872820764e-01,3.76335e-01,9.99999e-01,9.99999e-01,9.98531e-01,3.76893e-01,9.99989e-01
5.902184868e-01,3.83534e-01,9.99999e-01,9.99999e-01,9.98221e-01,3.84228e-01,9.99971e-01
5.931695792e-01,3.91053e-01,9.99999e-01,9.99999e-01,9.98743e-01,3.91556e-01,9.99972e-01
5.961354271e-01,3.98320e-01,9.99999e-01,9.99999e-01,9.98622e-01,3.98875e-01,9.99983e-01
5.991161043e-01,4.05773e-01,9.99999e-01,9.99999e-01,9.98995e-01,4.06183e-01,9.99994e-01
6.021116848e-01,4.13240e-01,9.99999e-01,9.99999e-01,9.99429e-01,4.13476e-01,9.99998e-01
6.051222432e-01,4.20631e-01,9.99999e-01,9.99999e-01,9.99711e-01,4.20752e-01,9.99999e-01
6.081478544e-01,4.27956e-01,9.99999e-01,9.99999e-01,9.99875e-01,4.28009e-01,9.99999e-01
6.111885937e-01,4.35221e-01,9.99999e-01,9.99999e-01,9.99946e-01,4.35244e-01,9.99999e-01
6.142445367e-01,4.42444e-01,9.99999e-01,9.99999e-01,9.99976e-01,4.42454e-01,9.99999e-01
6.173157594e-01,4.49633e-01,9.99999e-01,9.99999e-01,9.99986e-01,4.49638e-01,9.99999e-01
6.204023382e-01,4.56789e-01,9.99999e-01,9.99999e-01,9.99988e-01,4.56794e-01,9.99999e-01
6.235043498e-01,4.63896e-01,9.99999e-01,9.99999e-01,9.99951e-01,4.63918e-01,9.99999e-01
6.266218716e-01,4.70889e-01,9.99999e-01,9.99999e-01,9.99743e-01,4.71010e-01,9.99997e-01
6.297549810e-01,4.78020e-01,9.99999e-01,9.99999e-01,9.99905e-01,4.78067e-01,9.99995e-01
6.329037559e-01,4.84996e-01,9.99999e-01,9.99999e-01,9.99814e-01,4.85087e-01,9.99996e-01
6.360682746e-01,4.91990e-01,9.99999e-01,9.99999e-01,9.99841e-01,4.92068e-01,9.99997e-01
6.392486160e-01,4.98907e-01,9.99999e-01,9.99999e-01,9.99795e-01,4.99009e-01,9.99998e-01
6.424448591e-01,5.05769e-01,9.99999e-01,9.99999e-01,9.99725e-01,5.05908e-01,9.99998e-01
6.456570834e-01,5.12108e-01,9.99999e-01,9.99999e-01,9.98727e-01,5.12763e-01,9.99992e-01
6.488853688e-01,5.19079e-01,9.99999e-01,9.99999e-01,9.99068e-01,5.19573e-01,9.99979e-01
6.521297956e-01,5.25829e-01,9.99999e-01,9.99999e-01,9.99050e-01,5.26337e-01,9.99983e-01
6.553904446e-01,5.32542e-01,9.99999e-01,9.99999e-01,9.99055e-01,5.33052e-01,9.99987e-01
6.586673968e-01,5.39279e-01,9.99999e-01,9.99999e-01,9.99190e-01,5.39717e-01,9.99995e-01
6.619607338e-01,5.46085e-01,9.99999e-01,9.99999e-01,9.99549e-01,5.46332e-01,9.99998e-01
6.652705375e-01,5.52745e-01,9.99999e-01,9.99999e-01,9.99729e-01,5.52895e-01,9.99999e-01
6.685968902e-01,5.59334e-01,9.99999e-01,9.99999e-01,9.99873e-01,5.59404e-01,9.99999e-01
6.719398746e-01,5.65827e-01,9.99999e-01,9.99999e-01,9.99941e-01,5.65860e-01,9.99999e-01
6.752995740e-01,5.72242e-01,9.99999e-01,9.99999e-01,9.99967e-01,5.72260e-01,9.99999e-01
6.786760719e-01,5.78578e-01,9.99999e-01,9.99999e-01,9.99953e-01,5.78604e-01,9.99999e-01
6.820694522e-01,5.84846e-01,9.99999e-01,9.99999e-01,9.99921e-01,5.84891e-01,9.99999e-01
6.854797995e-01,5.91061e-01,9.99999e-01,9.99999e-01,9.99898e-01,5.91121e-01,9.99998e-01
6.889071985e-01,5.97144e-01,9.99999e-01,9.99999e-01,9.99755e-01,5.97291e-01,9.99997e-01
6.923517345e-01,6.00989e-01,9.99999e-01,9.99999e-01,9.96019e-01,6.03402e-01,9.99980e-01
6.958134932e-01,6.08166e-01,9.99999e-01,9.99999e-01,9.97930e-01,6.09453e-01,9.99957e-01
6.992925606e-01,6.14210e-01,9.99999e-01,9.99999e-01,9.98033e-01,6.15444e-01,9.99961e-01
7.027890234e-01,6.19847e-01,9.99999e-01,9.99999e-01,9.97572e-01,6.21373e-01,9.99970e-01
7.063029686e-01,6.25952e-01,9.99999e-01,9.99999e-01,9.97959e-01,6.27241e-01,9.99985e-01
7.098344834e-01,6.31802e-01,9.99999e-01,9.99999e-01,9.98042e-01,6.33046e-01,9.99990e-01
7.133836558e-01,6.37110e-01,9.99999e-01,9.99999e-01,9.97388e-01,6.38789e-01,9.99982e-01
7.169505741e-01,6.30900e-01,9.99999e-01,9.99999e-01,9.79075e-01,6.44469e-01,9.99865e-01
7.205353270e-01,6.43258e-01,9.99999e-01,9.99999e-01,9.89729e-01,6.50086e-01,9.99763e-01
7.241380036e-01,6.46967e-01,9.99999e-01,9.99999e-01,9.86972e-01,6.55640e-01,9.99796e-01
7.277586936e-01,6.53244e-01,9.99999e-01,9.99999e-01,9.88236e-01,6.61129e-01,9.99833e-01
7.313974871e-01,6.58181e-01,9.99999e-01,9.99999e-01,9.87513e-01,6.66555e-01,9.99921e-01
7.350544745e-01,6.67309e-01,9.99999e-01,9.99999e-01,9.93167e-01,6.71917e-01,9.99972e-01
7.387297469e-01,6.73803e-01,9.99999e-01,9.99999e-01,9.94972e-01,6.77215e-01,9.99987e-01
7.424233956e-01,6.80769e-01,9.99999e-01,9.99999e-01,9.97539e-01,6.82449e-01,9.99997e-01
7.461355126e-01,6.86593e-01,9.99999e-01,9.99999e-01,9.98508e-01,6.87619e-01,9.99999e-01
7.498661902e-01,6.92244e-01,9.99999e-01,9.99999e-01,9.99305e-01,6.92725e-01,9.99999e-01
7.536155211e-01,6.97529e-01,9.99999e-01,9.99999e-01,9.99659e-01,6.97766e-01,9.99999e-01
7.573835987e-01,7.02621e-01,9.99999e-01,9.99999e-01,9.99824e-01,7.02744e-01,9.99999e-01
7.611705167e-01,7.07581e-01,9.99999e-01,9.99999e-01,9.99890e-01,7.07658e-01,9.99999e-01
7.649763693e-01,7.12459e-01,9.99999e-01,9.99999e-01,9.99931e-01,7.12508e-01,9.99999e-01
7.688012511e-01,7.17260e-01,9.99999e-01,9.99999e-01,9.99951e-01,7.17294e-01,9.99999e-01
7.726452574e-01,7.21989e-01,9.99999e-01,9.99999e-01,9.99960e-01,7.22017e-01,9.99999e-01
7.765084837e-01,7.26637e-01,9.99999e-01,9.99999e-01,9.99943e-01,7.26677e-01,9.99999e-01
7.803910261e-01,7.19787e-01,9.99999e-01,9.84523e-01,9.99759e-01,7.31275e-01,9.99999e-01
7.842929812e-01,6.88102e-01,9.99999e-01,9.35932e-01,9.99160e-01,7.35809e-01,9.99997e-01
7.882144461e-01,6.88222e-01,9.99999e-01,9.31265e-01,9.98271e-01,7.40282e-01,9.99988e-01
7.921555184e-01,7.14229e-01,9.99999e-01,9.60013e-01,9.99051e-01,7.44692e-01,9.99979e-01
7.961162960e-01,7.27701e-01,9.99999e-01,9.73153e-01,9.98324e-01,7.49041e-01,9.99979e-01
8.000968774e-01,7.40855e-01,9.99999e-01,9.85366e-01,9.98065e-01,7.53328e-01,9.99978e-01
8.040973618e-01,7.50332e-01,9.99999e-01,9.92399e-01,9.98064e-01,7.57555e-01,9.99982e-01
8.081178486e-01,7.55737e-01,9.99999e-01,9.96504e-01,9.95635e-01,7.61721e-01,9.99984e-01
8.121584379e-01,7.51096e-01,9.99999e-01,9.98919e-01,9.81878e-01,7.65827e-01,9.99938e-01
8.162192301e-01,7.52977e-01,9.99999e-01,9.99761e-01,9.78507e-01,7.69874e-01,9.99770e-01
8.203003262e-01,7.65270e-01,9.99999e-01,9.99995e-01,9.89166e-01,7.73861e-01,9.99731e-01
8.244018279e-01,7.65849e-01,9.99999e-01,9.99999e-01,9.84857e-01,7.77790e-01,9.99785e-01
8.285238370e-01,7.71481e-01,9.99999e-01,9.99999e-01,9.87143e-01,7.81660e-01,9.99831e-01
8.326664562e-01,7.75206e-01,9.99999e-01,9.99999e-01,9.86997e-01,7.85473e-01,9.99930e-01
8.368297885e-01,7.81889e-01,9.99999e-01,9.99999e-01,9.90715e-01,7.89228e-01,9.99983e-01
8.410139374e-01,7.88541e-01,9.99999e-01,9.99999e-01,9.94478e-01,7.92927e-01,9.99990e-01
8.452190071e-01,7.94407e-01,9.99999e-01,9.99999e-01,9.97290e-01,7.96569e-01,9.99993e-01
8.494451021e-01,7.98895e-01,9.99999e-01,9.99999e-01,9.98427e-01,8.00156e-01,9.99995e-01
8.536923276e-01,8.02938e-01,9.99999e-01,9.99999e-01,9.99070e-01,8.03687e-01,9.99996e-01
8.579607893e-01,8.06701e-01,9.99999e-01,9.99999e-01,9.99427e-01,8.07164e-01,9.99998e-01
8.622505932e-01,8.10292e-01,9.99999e-01,9.99999e-01,9.99636e-01,8.10587e-01,9.99999e-01
8.665618462e-01,7.79668e-01,9.99999e-01,9.58085e-01,9.99774e-01,8.13956e-01,9.99999e-01
8.708946554e-01,6.88525e-01,9.99999e-01,8.42680e-01,9.99742e-01,8.17272e-01,9.99999e-01
8.752491287e-01,7.16066e-01,9.99999e-01,8.72976e-01,9.99655e-01,8.20536e-01,9.99999e-01
8.796253743e-01,7.64846e-01,9.99999e-01,9.28933e-01,9.99522e-01,8.23748e-01,9.99998e-01
8.840235012e-01,7.95639e-01,9.99999e-01,9.62708e-01,9.99454e-01,8.26909e-01,9.99996e-01
8.884436187e-01,8.16080e-01,9.99999e-01,9.85169e-01,9.98007e-01,8.30019e-01,9.99990e-01
8.928858368e-01,8.10739e-01,9.99999e-01,9.93971e-01,9.79116e-01,8.33079e-01,9.99945e-01
8.973502660e-01,8.04004e-01,9.99999e-01,9.98533e-01,9.63291e-01,8.36090e-01,9.99720e-01
9.018370173e-01,8.22695e-01,9.99999e-01,9.99838e-01,9.81091e-01,8.39052e-01,9.99561e-01
9.063462024e-01,8.24226e-01,9.99999e-01,9.95826e-01,9.83356e-01,8.41965e-01,9.99614e-01
9.108779334e-01,8.14895e-01,9.99999e-01,9.90496e-01,9.74159e-01,8.44831e-01,9.99599e-01
9.154323231e-01,8.20745e-01,9.99999e-01,9.97763e-01,9.70730e-01,8.47649e-01,9.99668e-01
9.200094847e-01,8.03450e-01,9.99999e-01,9.66664e-01,9.76982e-01,8.50421e-01,9.99814e-01
9.246095321e-01,7.84773e-01,9.99999e-01,9.54247e-01,9.63783e-01,8.53147e-01,9.99786e-01
9.292325798e-01,6.43378e-01,9.99999e-01,9.63747e-01,7.79170e-01,8.55828e-01,9.99167e-01
9.338787427e-01,5.98723e-01,9.99999e-01,9.65078e-01,7.23772e-01,8.58464e-01,9.96565e-01
9.385481364e-01,7.34283e-01,9.99999e-01,9.74286e-01,8.78239e-01,8.61055e-01,9.95916e-01
9.432408771e-01,7.05374e-01,9.99999e-01,9.84209e-01,8.32463e-01,8.63603e-01,9.96476e-01
9.479570815e-01,6.62794e-01,9.99999e-01,9.91869e-01,7.73571e-01,8.66108e-01,9.97131e-01
9.526968669e-01,7.14854e-01,9.99999e-01,9.96071e-01,8.27570e-01,8.68571e-01,9.98249e-01
9.574603512e-01,7.32846e-01,9.99999e-01,9.98319e-01,8.43515e-01,8.70992e-01,9.99109e-01
9.622476530e-01,7.60129e-01,9.99999e-01,9.99475e-01,8.71319e-01,8.73371e-01,9.99384e-01
9.670588912e-01,8.08578e-01,9.99999e-01,9.99842e-01,9.23869e-01,8.75710e-01,9.99578e-01
9.718941857e-01,8.35594e-01,9.99999e-01,9.99988e-01,9.51996e-01,8.78009e-01,9.99689e-01
9.767536566e-01,8.44864e-01,9.99999e-01,9.99999e-01,9.60007e-01,8.80268e-01,9.99762e-01
9.816374249e-01,8.56164e-01,9.99999e-01,9.99999e-01,9.70249e-01,8.82488e-01,9.99917e-01
9.865456120e-01,8.68136e-01,9.99999e-01,9.99999e-01,9.81326e-01,8.84670e-01,9.99982e-01
9.914783401e-01,8.76546e-01,9.99999e-01,9.99999e-01,9.88425e-01,8.86814e-01,9.99994e-01
9.964357318e-01,8.83302e-01,9.99999e-01,9.99999e-01,9.93682e-01,8.88921e-01,9.99996e-01
1.001417910e+00,8.87610e-01,9.99999e-01,9.99999e-01,9.96210e-01,8.90990e-01,9.99995e-01
1.006425000e+00,8.91089e-01,9.99999e-01,9.99999e-01,9.97838e-01,8.93024e-01,9.99993e-01
1.011457125e+00,8.93816e-01,9.99999e-01,9.99999e-01,9.98658e-01,8.95022e-01,9.99993e-01
1.016514411e+00,8.96164e-01,9.99999e-01,9.99999e-01,9.99088e-01,8.96985e-01,9.99995e-01
1.021596983e+00,8.98237e-01,9.99999e-01,9.99977e-01,9.99273e-01,8.98913e-01,9.99995e-01
1.026704968e+00,8.98835e-01,9.99999e-01,9.98377e-01,9.99433e-01,9.00807e-01,9.99996e-01
1.031838492e+00,8.79964e-01,9.99999e-01,9.75241e-01,9.99588e-01,9.02668e-01,9.99998e-01
1.036997685e+00,2.84478e-01,9.99999e-01,3.14580e-01,9.99755e-01,9.04496e-01,9.99999e-01
1.042182673e+00,3.46581e-01,9.99999e-01,3.82522e-01,9.99708e-01,9.06291e-01,9.99999e-01
1.047393587e+00,3.15516e-01,9.99999e-01,3.47587e-01,9.99613e-01,9.08054e-01,9.99999e-01
1.052630555e+00,5.73557e-02,9.99999e-01,6.30699e-02,9.99469e-01,9.09785e-01,9.99999e-01
1.057893707e+00,1.03912e-01,9.99999e-01,1.14084e-01,9.99114e-01,9.11486e-01,9.99999e-01
1.063183176e+00,1.89955e-01,9.99999e-01,2.08271e-01,9.98542e-01,9.13156e-01,9.99998e-01
1.068499092e+00,3.21991e-01,9.99999e-01,3.52771e-01,9.97559e-01,9.14796e-01,9.99997e-01
1.073841587e+00,4.73968e-01,9.99999e-01,5.18565e-01,9.97143e-01,9.16407e-01,9.99995e-01
1.079210795e+00,6.04770e-01,9.99999e-01,6.61125e-01,9.96341e-01,9.17988e-01,9.99989e-01
1.084606849e+00,7.29846e-01,9.99999e-01,7.98050e-01,9.94463e-01,9.19541e-01,9.99976e-01
1.090029883e+00,8.13106e-01,9.99999e-01,8.89820e-01,9.92048e-01,9.21066e-01,9.99950e-01
1.095480033e+00,8.52323e-01,9.99999e-01,9.44172e-01,9.78476e-01,9.22563e-01,9.99911e-01
1.100957433e+00,8.50342e-01,9.99999e-01,9.72747e-01,9.46067e-01,9.24033e-01,9.99837e-01
1.106462220e+00,7.93712e-01,9.99999e-01,9.88646e-01,8.67551e-01,9.25476e-01,9.99725e-01
1.111994531e+00,6.82828e-01,9.99999e-01,9.95778e-01,7.40241e-01,9.26893e-01,9.99271e-01
1.117554504e+00,5.66749e-01,9.99999e-01,9.98968e-01,6.12716e-01,9.28284e-01,9.97373e-01
1.123142276e+00,6.39618e-01,9.99999e-01,9.99931e-01,6.92358e-01,9.29649e-01,9.93782e-01
1.128757988e+00,7.33116e-01,9.99999e-01,9.99999e-01,7.93160e-01,9.30990e-01,9.92810e-01
1.134401778e+00,5.28310e-01,9.99999e-01,9.99999e-01,5.70156e-01,9.32306e-01,9.93883e-01
1.140073787e+00,8.10751e-01,9.99999e-01,9.99999e-01,8.72682e-01,9.33597e-01,9.95110e-01
1.145774156e+00,6.98025e-01,9.99999e-01,9.99999e-01,7.50015e-01,9.34865e-01,9.95522e-01
1.151503026e+00,6.76114e-01,9.99999e-01,9.99999e-01,7.24066e-01,9.36110e-01,9.97503e-01
1.157260541e+00,7.19419e-01,9.99999e-01,9.99999e-01,7.68091e-01,9.37331e-01,9.99252e-01
1.163046844e+00,7.72606e-01,9.99999e-01,9.99999e-01,8.23382e-01,9.38530e-01,9.99787e-01
1.168862078e+00,8.21711e-01,9.99999e-01,9.99999e-01,8.74527e-01,9.39707e-01,9.99890e-01
1.174706389e+00,8.66056e-01,9.99999e-01,9.99999e-01,9.20624e-01,9.40862e-01,9.99854e-01
1.180579921e+00,8.95592e-01,9.99999e-01,9.99999e-01,9.50946e-01,9.41996e-01,9.99780e-01
1.186482820e+00,9.16517e-01,9.99999e-01,9.99996e-01,9.72024e-01,9.43108e-01,9.99775e-01
1.192415234e+00,9.23159e-01,9.99999e-01,9.94163e-01,9.83592e-01,9.44200e-01,9.99831e-01
1.198377311e+00,5.52559e-01,9.99999e-01,5.91555e-01,9.86150e-01,9.45271e-01,9.99840e-01
1.204369197e+00,4.09603e-06,9.99999e-01,4.36207e-06,9.86880e-01,9.46323e-01,9.99855e-01
1.210391043e+00,7.43115e-19,9.99999e-01,7.89987e-19,9.87457e-01,9.47355e-01,9.99912e-01
1.216442998e+00,1.44134e-16,9.99999e-01,1.53002e-16,9.89321e-01,9.48367e-01,9.99945e-01
1.222525213e+00,2.55446e-16,9.99999e-01,2.70272e-16,9.91681e-01,9.49361e-01,9.99966e-01
1.228637839e+00,1.57636e-12,9.99999e-01,1.66567e-12,9.94217e-01,9.50336e-01,9.99984e-01
