#,Wave/freq,Total,N2,CO2,H2O,Rayleigh,CIA
4.000000000e-01,1.10285e-17,9.99999e-01,9.99999e-01,9.99924e-01,1.10294e-17,9.99999e-01
4.020000000e-01,2.38684e-17,9.99999e-01,9.99999e-01,9.99953e-01,2.38695e-17,9.99999e-01
4.040100000e-01,5.08351e-17,9.99999e-01,9.99999e-01,9.99979e-01,5.08361e-17,9.99999e-01
4.060300500e-01,1.06663e-16,9.99999e-01,9.99999e-01,9.99995e-01,1.06663e-16,9.99999e-01
4.080602003e-01,2.20547e-16,9.99999e-01,9.99999e-01,9.99998e-01,2.20547e-16,9.99999e-01
4.101005013e-01,4.49528e-16,9.99999e-01,9.99999e-01,9.99999e-01,4.49528e-16,9.99999e-01
4.121510038e-01,9.03444e-16,9.99999e-01,9.99999e-01,9.99996e-01,9.03447e-16,9.99999e-01
4.142117588e-01,1.79082e-15,9.99999e-01,9.99999e-01,9.99978e-01,1.79086e-15,9.99999e-01
4.162828176e-01,3.50194e-15,9.99999e-01,9.99999e-01,9.99906e-01,3.50227e-15,9.99999e-01
4.183642317e-01,6.75866e-15,9.99999e-01,9.99999e-01,9.99944e-01,6.75903e-15,9.99999e-01
4.204560528e-01,1.28755e-14,9.99999e-01,9.99999e-01,9.99965e-01,1.28759e-14,9.99999e-01
4.225583331e-01,2.42181e-14,9.99999e-01,9.99999e-01,9.99986e-01,2.42184e-14,9.99999e-01
4.246711247e-01,4.49871e-14,9.99999e-01,9.99999e-01,9.99989e-01,4.49875e-14,9.99999e-01
4.267944804e-01,8.25506e-14,9.99999e-01,9.99999e-01,9.99984e-01,8.25518e-14,9.99999e-01
4.289284528e-01,1.49675e-13,9.99999e-01,9.99999e-01,9.99988e-01,1.49677e-13,9.99999e-01
4.310730950e-01,2.68210e-13,9.99999e-01,9.99999e-01,9.99994e-01,2.68211e-13,9.99999e-01
4.332284605e-01,4.75110e-13,9.99999e-01,9.99999e-01,9.99998e-01,4.75111e-13,9.99999e-01
4.353946028e-01,8.32164e-13,9.99999e-01,9.99999e-01,9.99998e-01,8.32164e-13,9.99999e-01
4.375715758e-01,1.44149e-12,9.99999e-01,9.99999e-01,9.99990e-01,1.44150e-12,9.99999e-01
4.397594337e-01,2.46986e-12,9.99999e-01,9.99999e-01,9.99917e-01,2.47006e-12,9.99999e-01
4.419582309e-01,4.18600e-12,9.99999e-01,9.99999e-01,9.99581e-01,4.18775e-12,9.99999e-01
4.441680220e-01,7.02399e-12,9.99999e-01,9.99999e-01,9.99676e-01,7.02626e-12,9.99999e-01
4.463888621e-01,1.16649e-11,9.99999e-01,9.99999e-01,9.99662e-01,1.16689e-11,9.99999e-01
4.486208064e-01,1.91819e-11,9.99999e-01,9.99999e-01,9.99790e-01,1.91859e-11,9.99999e-01
4.508639105e-01,3.12340e-11,9.99999e-01,9.99999e-01,9.99901e-01,3.12371e-11,9.99999e-01
4.531182300e-01,5.03686e-11,9.99999e-01,9.99999e-01,9.99960e-01,5.03705e-11,9.99999e-01
4.553838212e-01,8.04586e-11,9.99999e-01,9.99999e-01,9.99973e-01,8.04607e-11,9.99999e-01
4.576607403e-01,1.27341e-10,9.99999e-01,9.99999e-01,9.99987e-01,1.27343e-10,9.99999e-01
4.599490440e-01,1.99720e-10,9.99999e-01,9.99999e-01,9.99990e-01,1.99722e-10,9.99999e-01
4.622487892e-01,3.10467e-10,9.99999e-01,9.99999e-01,9.99998e-01,3.10467e-10,9.99999e-01
4.645600332e-01,4.78431e-10,9.99999e-01,9.99999e-01,9.99993e-01,4.78434e-10,9.99999e-01
4.668828333e-01,7.30929e-10,9.99999e-01,9.99999e-01,9.99900e-01,7.31002e-10,9.99999e-01
4.692172475e-01,1.10736e-09,9.99999e-01,9.99999e-01,9.99788e-01,1.10759e-09,9.99999e-01
4.715633337e-01,1.66423e-09,9.99999e-01,9.99999e-01,9.99861e-01,1.66446e-09,9.99999e-01
4.739211504e-01,2.48095e-09,9.99999e-01,9.99999e-01,9.99867e-01,2.48128e-09,9.99999e-01
4.762907561e-01,3.66963e-09,9.99999e-01,9.99999e-01,9.99931e-01,3.66988e-09,9.99999e-01
4.786722099e-01,5.38591e-09,9.99999e-01,9.99999e-01,9.99971e-01,5.38606e-09,9.99999e-01
4.810655710e-01,7.84505e-09,9.99999e-01,9.99999e-01,9.99991e-01,7.84511e-09,9.99999e-01
4.834708988e-01,1.13414e-08,9.99999e-01,9.99999e-01,9.99917e-01,1.13423e-08,9.99999e-01
4.858882533e-01,1.62770e-08,9.99999e-01,9.99999e-01,9.99850e-01,1.62795e-08,9.99999e-01
4.883176946e-01,2.31967e-08,9.99999e-01,9.99999e-01,9.99874e-01,2.31996e-08,9.99999e-01
4.907592831e-01,3.28270e-08,9.99999e-01,9.99999e-01,9.99886e-01,3.28307e-08,9.99999e-01
4.932130795e-01,4.61389e-08,9.99999e-01,9.99999e-01,9.99919e-01,4.61426e-08,9.99999e-01
4.956791449e-01,6.44149e-08,9.99999e-01,9.99999e-01,9.99957e-01,6.44176e-08,9.99999e-01
4.981575406e-01,8.93207e-08,9.99999e-01,9.99999e-01,9.99786e-01,8.93397e-08,9.99999e-01
5.006483283e-01,1.23037e-07,9.99999e-01,9.99999e-01,9.99446e-01,1.23106e-07,9.99995e-01
5.031515699e-01,1.68088e-07,9.99999e-01,9.99999e-01,9.97207e-01,1.68563e-07,9.99970e-01
5.056673278e-01,2.29032e-07,9.99999e-01,9.99999e-01,9.98527e-01,2.29378e-07,9.99965e-01
5.081956644e-01,3.09657e-07,9.99999e-01,9.99999e-01,9.98143e-01,3.10239e-07,9.99979e-01
5.107366428e-01,4.16587e-07,9.99999e-01,9.99999e-01,9.98746e-01,4.17111e-07,9.99996e-01
5.132903260e-01,5.57130e-07,9.99999e-01,9.99999e-01,9.99283e-01,5.57529e-07,9.99999e-01
5.158567776e-01,7.40736e-07,9.99999e-01,9.99999e-01,9.99697e-01,7.40959e-07,9.99999e-01
5.184360615e-01,9.79104e-07,9.99999e-01,9.99999e-01,9.99878e-01,9.79222e-07,9.99999e-01
5.210282418e-01,1.28693e-06,9.99999e-01,9.99999e-01,9.99954e-01,1.28699e-06,9.99999e-01
5.236333830e-01,1.68208e-06,9.99999e-01,9.99999e-01,9.99817e-01,1.68239e-06,9.99998e-01
5.262515499e-01,2.18740e-06,9.99999e-01,9.99999e-01,9.99885e-01,2.18766e-06,9.99997e-01
5.288828077e-01,2.82965e-06,9.99999e-01,9.99999e-01,9.99894e-01,2.82995e-06,9.99998e-01
5.315272217e-01,3.64191e-06,9.99999e-01,9.99999e-01,9.99908e-01,3.64225e-06,9.99999e-01
5.341848578e-01,4.66412e-06,9.99999e-01,9.99999e-01,9.99939e-01,4.66440e-06,9.99999e-01
5.368557821e-01,5.94303e-06,9.99999e-01,9.99999e-01,9.99787e-01,5.94429e-06,9.99999e-01
5.395400610e-01,7.53335e-06,9.99999e-01,9.99999e-01,9.99230e-01,7.53919e-06,9.99993e-01
5.422377613e-01,9.50766e-06,9.99999e-01,9.99999e-01,9.99012e-01,9.51722e-06,9.99981e-01
5.449489501e-01,1.19478e-05,9.99999e-01,9.99999e-01,9.99078e-01,1.19591e-05,9.99980e-01
5.476736949e-01,1.49475e-05,9.99999e-01,9.99999e-01,9.99187e-01,1.49598e-05,9.99990e-01
5.504120634e-01,1.86198e-05,9.99999e-01,9.99999e-01,9.99409e-01,1.86308e-05,9.99997e-01
5.531641237e-01,2.30955e-05,9.99999e-01,9.99999e-01,9.99702e-01,2.31024e-05,9.99999e-01
5.559299443e-01,2.85216e-05,9.99999e-01,9.99999e-01,9.99856e-01,2.85257e-05,9.99999e-01
5.587095940e-01,3.50725e-05,9.99999e-01,9.99999e-01,9.99909e-01,3.50757e-05,9.99999e-01
5.615031420e-01,4.29497e-05,9.99999e-01,9.99999e-01,9.99899e-01,4.29540e-05,9.99999e-01
5.643106577e-01,5.23857e-05,9.99999e-01,9.99999e-01,9.99885e-01,5.23917e-05,9.99998e-01
5.671322110e-01,6.35634e-05,9.99999e-01,9.99999e-01,9.98606e-01,6.36528e-05,9.99987e-01
5.699678720e-01,7.69221e-05,9.99999e-01,9.99999e-01,9.98538e-01,7.70376e-05,9.99961e-01
5.728177114e-01,9.27410e-05,9.99999e-01,9.99999e-01,9.98469e-01,9.28860e-05,9.99968e-01
5.756818000e-01,1.11423e-04,9.99999e-01,9.99999e-01,9.98596e-01,1.11582e-04,9.99981e-01
5.785602090e-01,1.33392e-04,9.99999e-01,9.99999e-01,9.98777e-01,1.33556e-04,9.99994e-01
5.814530100e-01,1.59095e-04,9.99999e-01,9.99999e-01,9.98771e-01,1.59291e-04,9.99996e-01
5.843602750e-01,1.89045e-04,9.99999e-01,9.99999e-01,9.98530e-01,1.89325e-04,9.99991e-01
5.872820764e-01,2.21414e-04,9.99999e-01,9.99999e-01,9.87418e-01,2.24255e-04,9.99910e-01
5.902184868e-01,2.60660e-04,9.99999e-01,9.99999e-01,9.84817e-01,2.64742e-04,9.99758e-01
5.931695792e-01,3.08096e-04,9.99999e-01,9.99999e-01,9.89246e-01,3.11517e-04,9.99767e-01
5.961354271e-01,3.61028e-04,9.99999e-01,9.99999e-01,9.88223e-01,3.65379e-04,9.99866e-01
5.991161043e-01,4.23516e-04,9.99999e-01,9.99999e-01,9.91400e-01,4.27207e-04,9.99958e-01
6.021116848e-01,4.95522e-04,9.99999e-01,9.99999e-01,9.95115e-01,4.97956e-04,9.99994e-01
6.051222432e-01,5.77237e-04,9.99999e-01,9.99999e-01,9.97526e-01,5.78669e-04,9.99999e-01
6.081478544e-01,6.69755e-04,9.99999e-01,9.99999e-01,9.98931e-01,6.70471e-04,9.99999e-01
6.111885937e-01,7.74232e-04,9.99999e-01,9.99999e-01,9.99548e-01,7.74581e-04,9.99999e-01
6.142445367e-01,8.92130e-04,9.99999e-01,9.99999e-01,9.99797e-01,8.92310e-04,9.99999e-01
6.173157594e-01,1.02495e-03,9.99999e-01,9.99999e-01,9.99888e-01,1.02506e-03,9.99999e-01
6.204023382e-01,1.17423e-03,9.99999e-01,9.99999e-01,9.99905e-01,1.17434e-03,9.99999e-01
6.235043498e-01,1.34120e-03,9.99999e-01,9.99999e-01,9.99580e-01,1.34176e-03,9.99998e-01
6.266218716e-01,1.52562e-03,9.99999e-01,9.99999e-01,9.97800e-01,1.52901e-03,9.99984e-01
6.297549810e-01,1.73644e-03,9.99999e-01,9.99999e-01,9.99192e-01,1.73790e-03,9.99968e-01
6.329037559e-01,1.96715e-03,9.99999e-01,9.99999e-01,9.98407e-01,1.97034e-03,9.99974e-01
6.360682746e-01,2.22527e-03,9.99999e-01,9.99999e-01,9.98640e-01,2.22834e-03,9.99984e-01
6.392486160e-01,2.50956e-03,9.99999e-01,9.99999e-01,9.98240e-01,2.51400e-03,9.99993e-01
6.424448591e-01,2.82281e-03,9.99999e-01,9.99999e-01,9.97636e-01,2.82953e-03,9.99987e-01
6.456570834e-01,3.14231e-03,9.99999e-01,9.99999e-01,9.89075e-01,3.17723e-03,9.99933e-01
6.488853688e-01,3.53055e-03,9.99999e-01,9.99999e-01,9.92034e-01,3.55950e-03,9.99830e-01
6.521297956e-01,3.94599e-03,9.99999e-01,9.99999e-01,9.91884e-01,3.97883e-03,9.99859e-01
6.553904446e-01,4.40136e-03,9.99999e-01,9.99999e-01,9.91895e-01,4.43779e-03,9.99895e-01
6.586673968e-01,4.90463e-03,9.99999e-01,9.99999e-01,9.93072e-01,4.93902e-03,9.99964e-01
6.619607338e-01,5.46401e-03,9.99999e-01,9.99999e-01,9.96133e-01,5.48526e-03,9.99992e-01
6.652705375e-01,6.06516e-03,9.99999e-01,9.99999e-01,9.97677e-01,6.07930e-03,9.99995e-01
6.685968902e-01,6.71736e-03,9.99999e-01,9.99999e-01,9.99012e-01,6.72400e-03,9.99998e-01
6.719398746e-01,7.41858e-03,9.99999e-01,9.99999e-01,9.99500e-01,7.42228e-03,9.99999e-01
6.752995740e-01,8.17489e-03,9.99999e-01,9.99999e-01,9.99728e-01,8.17711e-03,9.99999e-01
6.786760719e-01,8.98794e-03,9.99999e-01,9.99999e-01,9.99606e-01,8.99147e-03,9.99998e-01
6.820694522e-01,9.86177e-03,9.99999e-01,9.99999e-01,9.99328e-01,9.86842e-03,9.99996e-01
6.854797995e-01,1.08016e-02,9.99999e-01,9.99999e-01,9.99133e-01,1.08110e-02,9.99992e-01
6.889071985e-01,1.17971e-02,9.99999e-01,9.99999e-01,9.97889e-01,1.18223e-02,9.99980e-01
6.923517345e-01,1.24680e-02,9.99999e-01,9.99999e-01,9.66266e-01,1.29054e-02,9.99835e-01
6.958134932e-01,1.38123e-02,9.99999e-01,9.99999e-01,9.82505e-01,1.40633e-02,9.99636e-01
6.992925606e-01,1.50369e-02,9.99999e-01,9.99999e-01,9.83178e-01,1.52992e-02,9.99672e-01
7.027890234e-01,1.62687e-02,9.99999e-01,9.99999e-01,9.79345e-01,1.66160e-02,9.99749e-01
7.063029686e-01,1.77008e-02,9.99999e-01,9.99999e-01,9.82589e-01,1.80167e-02,9.99875e-01
7.098344834e-01,1.91769e-02,9.99999e-01,9.99999e-01,9.83286e-01,1.95042e-02,9.99926e-01
7.133836558e-01,2.06085e-02,9.99999e-01,9.99999e-01,9.77701e-01,2.10816e-02,9.99853e-01
7.169505741e-01,1.90099e-02,9.99999e-01,9.99999e-01,8.36504e-01,2.27515e-02,9.98850e-01
7.205353270e-01,2.24282e-02,9.99999e-01,9.99999e-01,9.16666e-01,2.45168e-02,9.97973e-01
7.241380036e-01,2.35536e-02,9.99999e-01,9.99999e-01,8.94421e-01,2.63800e-02,9.98249e-01
7.277586936e-01,2.55946e-02,9.99999e-01,9.99999e-01,9.04295e-01,2.83439e-02,9.98568e-01
7.313974871e-01,2.73054e-02,9.99999e-01,9.99999e-01,8.98487e-01,3.04107e-02,9.99329e-01
7.350544745e-01,3.07203e-02,9.99999e-01,9.99999e-01,9.43052e-01,3.25830e-02,9.99766e-01
7.387297469e-01,3.33851e-02,9.99999e-01,9.99999e-01,9.57713e-01,3.48629e-02,9.99892e-01
7.424233956e-01,3.64729e-02,9.99999e-01,9.99999e-01,9.79089e-01,3.72525e-02,9.99980e-01
7.461355126e-01,3.92474e-02,9.99999e-01,9.99999e-01,9.87265e-01,3.97538e-02,9.99996e-01
7.498661902e-01,4.21169e-02,9.99999e-01,9.99999e-01,9.94059e-01,4.23686e-02,9.99998e-01
7.536155211e-01,4.49668e-02,9.99999e-01,9.99999e-01,9.97077e-01,4.50986e-02,9.99998e-01
7.573835987e-01,4.78733e-02,9.99999e-01,9.99999e-01,9.98495e-01,4.79454e-02,9.99999e-01
7.611705167e-01,5.08627e-02,9.99999e-01,9.99999e-01,9.99064e-01,5.09103e-02,9.99999e-01
7.649763693e-01,5.39628e-02,9.99999e-01,9.99999e-01,9.99413e-01,5.39945e-02,9.99999e-01
7.688012511e-01,5.71756e-02,9.99999e-01,9.99999e-01,9.99590e-01,5.71990e-02,9.99999e-01
7.726452574e-01,6.05044e-02,9.99999e-01,9.99999e-01,9.99663e-01,6.05248e-02,9.99999e-01
7.765084837e-01,6.39417e-02,9.99999e-01,9.99999e-01,9.99519e-01,6.39724e-02,9.99998e-01
7.803910261e-01,6.06757e-02,9.99999e-01,9.00031e-01,9.97925e-01,6.75426e-02,9.99997e-01
7.842929812e-01,4.20406e-02,9.99999e-01,5.93877e-01,9.92777e-01,7.12355e-02,9.99986e-01
7.882144461e-01,4.27397e-02,9.99999e-01,5.77090e-01,9.85229e-01,7.50513e-02,9.99897e-01
7.921555184e-01,5.56703e-02,9.99999e-01,7.10220e-01,9.91897e-01,7.89901e-02,9.99822e-01
7.961162960e-01,6.49563e-02,9.99999e-01,7.93283e-01,9.85646e-01,8.30517e-02,9.99831e-01
8.000968774e-01,7.56455e-02,9.99999e-01,8.81723e-01,9.83468e-01,8.72356e-02,9.99820e-01
8.040973618e-01,8.43412e-02,9.99999e-01,9.36858e-01,9.83458e-01,9.15415e-02,9.99862e-01
8.081178486e-01,8.96940e-02,9.99999e-01,9.70405e-01,9.63071e-01,9.59685e-02,9.99861e-01
8.121584379e-01,8.52197e-02,9.99999e-01,9.90809e-01,8.55859e-01,1.00516e-01,9.99474e-01
8.162192301e-01,8.72131e-02,9.99999e-01,9.97962e-01,8.32384e-01,1.05182e-01,9.98028e-01
8.203003262e-01,1.00235e-01,9.99999e-01,9.99970e-01,9.13630e-01,1.09967e-01,9.97691e-01
8.244018279e-01,1.01322e-01,9.99999e-01,9.99999e-01,8.83699e-01,1.14868e-01,9.98162e-01
8.285238370e-01,1.07199e-01,9.99999e-01,9.99999e-01,8.95481e-01,1.19884e-01,9.98556e-01
8.326664562e-01,1.11794e-01,9.99999e-01,9.99999e-01,8.94784e-01,1.25014e-01,9.99402e-01
8.368297885e-01,1.20252e-01,9.99999e-01,9.99999e-01,9.23329e-01,1.30256e-01,9.99863e-01
8.410139374e-01,1.29313e-01,9.99999e-01,9.99999e-01,9.53665e-01,1.35607e-01,9.99919e-01
8.452190071e-01,1.37814e-01,9.99999e-01,9.99999e-01,9.76999e-01,1.41065e-01,9.99951e-01
8.494451021e-01,1.44654e-01,9.99999e-01,9.99999e-01,9.86563e-01,1.46630e-01,9.99961e-01
8.536923276e-01,1.51082e-01,9.99999e-01,9.99999e-01,9.92046e-01,1.52297e-01,9.99976e-01
8.579607893e-01,1.57288e-01,9.99999e-01,9.99999e-01,9.95088e-01,1.58065e-01,9.99993e-01
8.622505932e-01,1.63419e-01,9.99999e-01,9.99999e-01,9.96880e-01,1.63931e-01,9.99998e-01
8.665618462e-01,1.45340e-01,9.99999e-01,8.57028e-01,9.98066e-01,1.69892e-01,9.99998e-01
8.708946554e-01,4.90251e-02,9.99999e-01,2.79197e-01,9.97783e-01,1.75946e-01,9.99998e-01
8.752491287e-01,6.22618e-02,9.99999e-01,3.42868e-01,9.97037e-01,1.82089e-01,9.99996e-01
8.796253743e-01,1.02538e-01,9.99999e-01,5.46532e-01,9.95892e-01,1.88319e-01,9.99990e-01
8.840235012e-01,1.40632e-01,9.99999e-01,7.25791e-01,9.95311e-01,1.94634e-01,9.99971e-01
8.884436187e-01,1.74088e-01,9.99999e-01,8.80572e-01,9.82934e-01,2.01028e-01,9.99918e-01
8.928858368e-01,1.65034e-01,9.99999e-01,9.49582e-01,8.36592e-01,2.07501e-01,9.99531e-01
8.973502660e-01,1.54398e-01,9.99999e-01,9.87545e-01,7.31530e-01,2.14048e-01,9.97601e-01
9.018370173e-01,1.87294e-01,9.99999e-01,9.98621e-01,8.53032e-01,2.20665e-01,9.96232e-01
9.063462024e-01,1.90615e-01,9.99999e-01,9.65415e-01,8.68004e-01,2.27351e-01,9.96689e-01
9.108779334e-01,1.73147e-01,9.99999e-01,9.21692e-01,8.02526e-01,2.34101e-01,9.96559e-01
9.154323231e-01,1.83692e-01,9.99999e-01,9.81122e-01,7.78290e-01,2.40913e-01,9.97155e-01
9.200094847e-01,1.65119e-01,9.99999e-01,7.88623e-01,8.22542e-01,2.47782e-01,9.98406e-01
9.246095321e-01,1.29567e-01,9.99999e-01,6.72814e-01,7.43422e-01,2.54706e-01,9.98164e-01
9.292325798e-01,3.30107e-02,9.99999e-01,7.37024e-01,1.60527e-01,2.61680e-01,9.92862e-01
9.338787427e-01,1.93824e-02,9.99999e-01,7.42273e-01,9.37903e-02,2.68702e-01,9.70824e-01
9.385481364e-01,8.39861e-02,9.99999e-01,8.01521e-01,3.80851e-01,2.75768e-01,9.65396e-01
9.432408771e-01,6.70535e-02,9.99999e-01,8.72664e-01,2.74716e-01,2.82875e-01,9.70075e-01
9.479570815e-01,4.42858e-02,9.99999e-01,9.32351e-01,1.66272e-01,2.90020e-01,9.75576e-01
9.526968669e-01,7.08489e-02,9.99999e-01,9.66863e-01,2.48598e-01,2.97198e-01,9.85031e-01
9.574603512e-01,7.89840e-02,9.99999e-01,9.85682e-01,2.64524e-01,3.04407e-01,9.92368e-01
9.622476530e-01,1.02597e-01,9.99999e-01,9.95513e-01,3.32179e-01,3.11643e-01,9.94716e-01
9.670588912e-01,1.66843e-01,9.99999e-01,9.98655e-01,5.25665e-01,3.18903e-01,9.96383e-01
9.718941857e-01,2.14849e-01,9.99999e-01,9.99905e-01,6.60481e-01,3.26184e-01,9.97336e-01
9.767536566e-01,2.35688e-01,9.99999e-01,9.99999e-01,7.08189e-01,3.33483e-01,9.97963e-01
9.816374249e-01,2.63396e-01,9.99999e-01,9.99999e-01,7.73432e-01,3.40795e-01,9.99294e-01
9.865456120e-01,2.96287e-01,9.99999e-01,9.99999e-01,8.51233e-01,3.48119e-01,9.99852e-01
9.914783401e-01,3.21662e-01,9.99999e-01,9.99999e-01,9.04976e-01,3.55451e-01,9.99958e-01
9.964357318e-01,3.43579e-01,9.99999e-01,9.99999e-01,9.47073e-01,3.62788e-01,9.99975e-01
1.001417910e+00,3.58241e-01,9.99999e-01,9.99999e-01,9.67919e-01,3.70127e-01,9.99963e-01
1.006425000e+00,3.70487e-01,9.99999e-01,9.99999e-01,9.81562e-01,3.77466e-01,9.99947e-01
1.011457125e+00,3.80369e-01,9.99999e-01,9.99999e-01,9.88532e-01,3.84800e-01,9.99951e-01
1.016514411e+00,3.89054e-01,9.99999e-01,9.99999e-01,9.92194e-01,3.92128e-01,9.99965e-01
1.021596983e+00,3.96866e-01,9.99999e-01,9.99796e-01,9.93773e-01,3.99446e-01,9.99966e-01
1.026704968e+00,3.99158e-01,9.99999e-01,9.86119e-01,9.95140e-01,4.06753e-01,9.99978e-01
1.031838492e+00,3.68142e-01,9.99999e-01,8.92100e-01,9.96469e-01,4.14045e-01,9.99993e-01
1.036997685e+00,1.74759e-02,9.99999e-01,4.15447e-02,9.97899e-01,4.21319e-01,9.99998e-01
1.042182673e+00,6.95162e-04,9.99999e-01,1.62507e-03,9.97491e-01,4.28575e-01,9.99999e-01
1.047393587e+00,1.94729e-03,9.99999e-01,4.48046e-03,9.96677e-01,4.35808e-01,9.99998e-01
1.052630555e+00,6.29492e-08,9.99999e-01,1.42496e-07,9.95440e-01,4.43016e-01,9.99998e-01
1.057893707e+00,2.39326e-07,9.99999e-01,5.33630e-07,9.92394e-01,4.50198e-01,9.99996e-01
1.063183176e+00,1.11120e-05,9.99999e-01,2.44671e-05,9.87522e-01,4.57351e-01,9.99992e-01
1.068499092e+00,1.42067e-04,9.99999e-01,3.09913e-04,9.79210e-01,4.64473e-01,9.99985e-01
1.073841587e+00,2.47276e-03,9.99999e-01,5.33415e-03,9.75718e-01,4.71562e-01,9.99968e-01
1.079210795e+00,1.77012e-02,9.99999e-01,3.78857e-02,9.69012e-01,4.78616e-01,9.99915e-01
1.084606849e+00,7.18155e-02,9.99999e-01,1.54116e-01,9.53473e-01,4.85633e-01,9.99797e-01
1.090029883e+00,1.73322e-01,9.99999e-01,3.74564e-01,9.33820e-01,4.92612e-01,9.99581e-01
1.095480033e+00,2.56647e-01,9.99999e-01,6.15033e-01,8.30123e-01,4.99549e-01,9.99243e-01
1.100957433e+00,2.52562e-01,9.99999e-01,7.89928e-01,6.26745e-01,5.06445e-01,9.98608e-01
1.106462220e+00,1.50400e-01,9.99999e-01,9.06956e-01,3.20412e-01,5.13297e-01,9.97640e-01
1.111994531e+00,4.91663e-02,9.99999e-01,9.64391e-01,9.79348e-02,5.20103e-01,9.93748e-01
1.117554504e+00,1.37537e-02,9.99999e-01,9.91210e-01,2.68343e-02,5.26863e-01,9.77615e-01
1.123142276e+00,4.31259e-02,9.99999e-01,9.99422e-01,8.52876e-02,5.33574e-01,9.47729e-01
1.128757988e+00,8.98595e-02,9.99999e-01,9.99999e-01,1.76992e-01,5.40235e-01,9.39783e-01
1.134401778e+00,4.12130e-02,9.99999e-01,9.99999e-01,7.94517e-02,5.46846e-01,9.48561e-01
1.140073787e+00,1.79172e-01,9.99999e-01,9.99999e-01,3.37715e-01,5.53405e-01,9.58683e-01
1.145774156e+00,6.60461e-02,9.99999e-01,9.99999e-01,1.22603e-01,5.59910e-01,9.62113e-01
1.151503026e+00,5.43244e-02,9.99999e-01,9.99999e-01,9.80042e-02,5.66362e-01,9.78713e-01
1.157260541e+00,7.02872e-02,9.99999e-01,9.99999e-01,1.23509e-01,5.72758e-01,9.93587e-01
1.163046844e+00,1.21428e-01,9.99999e-01,9.99999e-01,2.10068e-01,5.79097e-01,9.98177e-01
1.168862078e+00,1.90900e-01,9.99999e-01,9.99999e-01,3.26420e-01,5.85380e-01,9.99060e-01
1.174706389e+00,2.95237e-01,9.99999e-01,9.99999e-01,4.99665e-01,5.91604e-01,9.98755e-01
1.180579921e+00,3.89958e-01,9.99999e-01,9.99999e-01,6.53583e-01,5.97770e-01,9.98118e-01
1.186482820e+00,4.72941e-01,9.99999e-01,9.99970e-01,7.84706e-01,6.03877e-01,9.98068e-01
1.192415234e+00,5.04661e-01,9.99999e-01,9.53225e-01,8.67618e-01,6.09923e-01,9.98553e-01
1.198377311e+00,2.81388e-01,9.99999e-01,5.05330e-01,8.87171e-01,6.15909e-01,9.98633e-01
1.204369197e+00,1.50756e-35,9.99999e-01,2.59178e-35,8.93293e-01,6.21833e-01,9.98763e-01
1.210391043e+00,3.20900e-145,9.99999e-01,5.43389e-145,8.97505e-01,6.27696e-01,9.99247e-01
1.216442998e+00,1.32243e-125,9.99999e-01,2.21117e-125,9.12201e-01,6.33497e-01,9.99538e-01
1.222525213e+00,1.04834e-123,9.99999e-01,1.70226e-123,9.30802e-01,6.39235e-01,9.99713e-01
1.228637839e+00,2.42714e-95,9.99999e-01,3.89231e-95,9.51391e-01,6.44910e-01,9.99866e-01
