#,Wave/freq,Total,N2,CO2,H2O,Rayleigh,CIA
4.000000000e-01,1.51295e-03,9.99999e-01,9.99999e-01,9.99987e-01,1.51297e-03,9.99999e-01
4.020000000e-01,1.72024e-03,9.99999e-01,9.99999e-01,9.99991e-01,1.72026e-03,9.99999e-01
4.040100000e-01,1.95072e-03,9.99999e-01,9.99999e-01,9.99996e-01,1.95073e-03,9.99999e-01
4.060300500e-01,2.20659e-03,9.99999e-01,9.99999e-01,9.99998e-01,2.20659e-03,9.99999e-01
4.080602003e-01,2.48995e-03,9.99999e-01,9.99999e-01,9.99999e-01,2.48995e-03,9.99999e-01
4.101005013e-01,2.80299e-03,9.99999e-01,9.99999e-01,9.99999e-01,2.80299e-03,9.99999e-01
4.121510038e-01,3.14802e-03,9.99999e-01,9.99999e-01,9.99999e-01,3.14802e-03,9.99999e-01
4.142117588e-01,3.52741e-03,9.99999e-01,9.99999e-01,9.99996e-01,3.52742e-03,9.99999e-01
4.162828176e-01,3.94362e-03,9.99999e-01,9.99999e-01,9.99984e-01,3.94368e-03,9.99999e-01
4.183642317e-01,4.39931e-03,9.99999e-01,9.99999e-01,9.99990e-01,4.39935e-03,9.99999e-01
4.204560528e-01,4.89705e-03,9.99999e-01,9.99999e-01,9.99993e-01,4.89708e-03,9.99999e-01
4.225583331e-01,5.43958e-03,9.99999e-01,9.99999e-01,9.99997e-01,5.43960e-03,9.99999e-01
4.246711247e-01,6.02968e-03,9.99999e-01,9.99999e-01,9.99997e-01,6.02969e-03,9.99999e-01
4.267944804e-01,6.67019e-03,9.99999e-01,9.99999e-01,9.99997e-01,6.67021e-03,9.99999e-01
4.289284528e-01,7.36406e-03,9.99999e-01,9.99999e-01,9.99997e-01,7.36407e-03,9.99999e-01
4.310730950e-01,8.11423e-03,9.99999e-01,9.99999e-01,9.99998e-01,8.11424e-03,9.99999e-01
4.332284605e-01,8.92370e-03,9.99999e-01,9.99999e-01,9.99999e-01,8.92371e-03,9.99999e-01
4.353946028e-01,9.79551e-03,9.99999e-01,9.99999e-01,9.99999e-01,9.79551e-03,9.99999e-01
4.375715758e-01,1.07327e-02,9.99999e-01,9.99999e-01,9.99997e-01,1.07327e-02,9.99999e-01
4.397594337e-01,1.17382e-02,9.99999e-01,9.99999e-01,9.99985e-01,1.17384e-02,9.99999e-01
4.419582309e-01,1.28147e-02,9.99999e-01,9.99999e-01,9.99930e-01,1.28156e-02,9.99999e-01
4.441680220e-01,1.39666e-02,9.99999e-01,9.99999e-01,9.99945e-01,1.39674e-02,9.99999e-01
4.463888621e-01,1.51960e-02,9.99999e-01,9.99999e-01,9.99943e-01,1.51968e-02,9.99999e-01
4.486208064e-01,1.65064e-02,9.99999e-01,9.99999e-01,9.99964e-01,1.65070e-02,9.99999e-01
4.508639105e-01,1.79005e-02,9.99999e-01,9.99999e-01,9.99983e-01,1.79008e-02,9.99999e-01
4.531182300e-01,1.93812e-02,9.99999e-01,9.99999e-01,9.99993e-01,1.93813e-02,9.99999e-01
4.553838212e-01,2.09513e-02,9.99999e-01,9.99999e-01,9.99995e-01,2.09513e-02,9.99999e-01
4.576607403e-01,2.26137e-02,9.99999e-01,9.99999e-01,9.99997e-01,2.26137e-02,9.99999e-01
4.599490440e-01,2.43712e-02,9.99999e-01,9.99999e-01,9.99998e-01,2.43712e-02,9.99999e-01
4.622487892e-01,2.62265e-02,9.99999e-01,9.99999e-01,9.99999e-01,2.62265e-02,9.99999e-01
4.645600332e-01,2.81821e-02,9.99999e-01,9.99999e-01,9.99998e-01,2.81822e-02,9.99999e-01
4.668828333e-01,3.02402e-02,9.99999e-01,9.99999e-01,9.99983e-01,3.02407e-02,9.99999e-01
4.692172475e-01,3.24032e-02,9.99999e-01,9.99999e-01,9.99964e-01,3.24043e-02,9.99999e-01
4.715633337e-01,3.46747e-02,9.99999e-01,9.99999e-01,9.99976e-01,3.46755e-02,9.99999e-01
4.739211504e-01,3.70554e-02,9.99999e-01,9.99999e-01,9.99977e-01,3.70562e-02,9.99999e-01
4.762907561e-01,3.95480e-02,9.99999e-01,9.99999e-01,9.99988e-01,3.95484e-02,9.99999e-01
4.786722099e-01,4.21539e-02,9.99999e-01,9.99999e-01,9.99994e-01,4.21541e-02,9.99999e-01
4.810655710e-01,4.48747e-02,9.99999e-01,9.99999e-01,9.99998e-01,4.48748e-02,9.99999e-01
4.834708988e-01,4.77115e-02,9.99999e-01,9.99999e-01,9.99986e-01,4.77121e-02,9.99999e-01
4.858882533e-01,5.06662e-02,9.99999e-01,9.99999e-01,9.99974e-01,5.06674e-02,9.99999e-01
4.883176946e-01,5.37409e-02,9.99999e-01,9.99999e-01,9.99978e-01,5.37420e-02,9.99999e-01
4.907592831e-01,5.69357e-02,9.99999e-01,9.99999e-01,9.99980e-01,5.69368e-02,9.99999e-01
4.932130795e-01,6.02520e-02,9.99999e-01,9.99999e-01,9.99986e-01,6.02528e-02,9.99999e-01
4.956791449e-01,6.36902e-02,9.99999e-01,9.99999e-01,9.99992e-01,6.36906e-02,9.99999e-01
4.981575406e-01,6.72485e-02,9.99999e-01,9.99999e-01,9.99964e-01,6.72509e-02,9.99999e-01
5.006483283e-01,7.09274e-02,9.99999e-01,9.99999e-01,9.99908e-01,7.09339e-02,9.99998e-01
5.031515699e-01,7.47048e-02,9.99999e-01,9.99999e-01,9.99535e-01,7.47399e-02,9.99994e-01
5.056673278e-01,7.86491e-02,9.99999e-01,9.99999e-01,9.99754e-01,7.86688e-02,9.99993e-01
5.081956644e-01,8.26946e-02,9.99999e-01,9.99999e-01,9.99690e-01,8.27205e-02,9.99995e-01
5.107366428e-01,8.68764e-02,9.99999e-01,9.99999e-01,9.99790e-01,8.68946e-02,9.99998e-01
5.132903260e-01,9.11798e-02,9.99999e-01,9.99999e-01,9.99880e-01,9.11907e-02,9.99999e-01
5.158567776e-01,9.56031e-02,9.99999e-01,9.99999e-01,9.99949e-01,9.56080e-02,9.99999e-01
5.184360615e-01,1.00144e-01,9.99999e-01,9.99999e-01,9.99979e-01,1.00146e-01,9.99999e-01
5.210282418e-01,1.04802e-01,9.99999e-01,9.99999e-01,9.99991e-01,1.04803e-01,9.99999e-01
5.236333830e-01,1.09574e-01,9.99999e-01,9.99999e-01,9.99969e-01,1.09578e-01,9.99999e-01
5.262515499e-01,1.14467e-01,9.99999e-01,9.99999e-01,9.99980e-01,1.14469e-01,9.99999e-01
5.288828077e-01,1.19475e-01,9.99999e-01,9.99999e-01,9.99982e-01,1.19477e-01,9.99999e-01
5.315272217e-01,1.24595e-01,9.99999e-01,9.99999e-01,9.99984e-01,1.24597e-01,9.99999e-01
5.341848578e-01,1.29829e-01,9.99999e-01,9.99999e-01,9.99989e-01,1.29830e-01,9.99999e-01
5.368557821e-01,1.35168e-01,9.99999e-01,9.99999e-01,9.99964e-01,1.35172e-01,9.99999e-01
5.395400610e-01,1.40605e-01,9.99999e-01,9.99999e-01,9.99872e-01,1.40623e-01,9.99998e-01
5.422377613e-01,1.46154e-01,9.99999e-01,9.99999e-01,9.99834e-01,1.46178e-01,9.99996e-01
5.449489501e-01,1.51814e-01,9.99999e-01,9.99999e-01,9.99846e-01,1.51837e-01,9.99996e-01
5.476736949e-01,1.57576e-01,9.99999e-01,9.99999e-01,9.99863e-01,1.57597e-01,9.99997e-01
5.504120634e-01,1.63439e-01,9.99999e-01,9.99999e-01,9.99901e-01,1.63455e-01,9.99999e-01
5.531641237e-01,1.69400e-01,9.99999e-01,9.99999e-01,9.99950e-01,1.69409e-01,9.99999e-01
5.559299443e-01,1.75451e-01,9.99999e-01,9.99999e-01,9.99975e-01,1.75455e-01,9.99999e-01
5.587095940e-01,1.81589e-01,9.99999e-01,9.99999e-01,9.99984e-01,1.81592e-01,9.99999e-01
5.615031420e-01,1.87812e-01,9.99999e-01,9.99999e-01,9.99982e-01,1.87815e-01,9.99999e-01
5.643106577e-01,1.94119e-01,9.99999e-01,9.99999e-01,9.99980e-01,1.94123e-01,9.99999e-01
5.671322110e-01,2.00465e-01,9.99999e-01,9.99999e-01,9.99771e-01,2.00511e-01,9.99997e-01
5.699678720e-01,2.06925e-01,9.99999e-01,9.99999e-01,9.99754e-01,2.06977e-01,9.99993e-01
5.728177114e-01,2.13463e-01,9.99999e-01,9.99999e-01,9.99745e-01,2.13518e-01,9.99994e-01
5.756818000e-01,2.20079e-01,9.99999e-01,9.99999e-01,9.99766e-01,2.20131e-01,9.99996e-01
5.785602090e-01,2.26765e-01,9.99999e-01,9.99999e-01,9.99795e-01,2.26811e-01,9.99998e-01
5.814530100e-01,2.33508e-01,9.99999e-01,9.99999e-01,9.99795e-01,2.33556e-01,9.99999e-01
5.843602750e-01,2.40304e-01,9.99999e-01,9.99999e-01,9.99756e-01,2.40363e-01,9.99998e-01
5.872820764e-01,2.46705e-01,9.99999e-01,9.99999e-01,9.97902e-01,2.47227e-01,9.99984e-01
5.902184868e-01,2.53489e-01,9.99999e-01,9.99999e-01,9.97452e-01,2.54147e-01,9.99959e-01
5.931695792e-01,2.60638e-01,9.99999e-01,9.99999e-01,9.98201e-01,2.61117e-01,9.99960e-01
5.961354271e-01,2.67601e-01,9.99999e-01,9.99999e-01,9.98027e-01,2.68136e-01,9.99977e-01
5.991161043e-01,2.74801e-01,9.99999e-01,9.99999e-01,9.98561e-01,2.75198e-01,9.99992e-01
6.021116848e-01,2.82071e-01,9.99999e-01,9.99999e-01,9.99182e-01,2.82302e-01,9.99998e-01
6.051222432e-01,2.89324e-01,9.99999e-01,9.99999e-01,9.99586e-01,2.89444e-01,9.99999e-01
6.081478544e-01,2.96567e-01,9.99999e-01,9.99999e-01,9.99821e-01,2.96619e-01,9.99999e-01
6.111885937e-01,3.03803e-01,9.99999e-01,9.99999e-01,9.99924e-01,3.03826e-01,9.99999e-01
6.142445367e-01,3.11050e-01,9.99999e-01,9.99999e-01,9.99965e-01,3.11060e-01,9.99999e-01
6.173157594e-01,3.18313e-01,9.99999e-01,9.99999e-01,9.99980e-01,3.18318e-01,9.99999e-01
6.204023382e-01,3.25593e-01,9.99999e-01,9.99999e-01,9.99983e-01,3.25598e-01,9.99999e-01
6.235043498e-01,3.32872e-01,9.99999e-01,9.99999e-01,9.99930e-01,3.32895e-01,9.99999e-01
6.266218716e-01,3.40081e-01,9.99999e-01,9.99999e-01,9.99633e-01,3.40207e-01,9.99996e-01
6.297549810e-01,3.47481e-01,9.99999e-01,9.99999e-01,9.99865e-01,3.47530e-01,9.99994e-01
6.329037559e-01,3.54766e-01,9.99999e-01,9.99999e-01,9.99734e-01,3.54861e-01,9.99995e-01
6.360682746e-01,3.62115e-01,9.99999e-01,9.99999e-01,9.99773e-01,3.62198e-01,9.99997e-01
6.392486160e-01,3.69428e-01,9.99999e-01,9.99999e-01,9.99706e-01,3.69537e-01,9.99998e-01
6.424448591e-01,3.76728e-01,9.99999e-01,9.99999e-01,9.99608e-01,3.76875e-01,9.99997e-01
6.456570834e-01,3.83509e-01,9.99999e-01,9.99999e-01,9.98183e-01,3.84210e-01,9.99989e-01
6.488853688e-01,3.91005e-01,9.99999e-01,9.99999e-01,9.98665e-01,3.91539e-01,9.99971e-01
6.521297956e-01,3.98306e-01,9.99999e-01,9.99999e-01,9.98639e-01,3.98858e-01,9.99975e-01
6.553904446e-01,4.05610e-01,9.99999e-01,9.99999e-01,9.98648e-01,4.06166e-01,9.99981e-01
6.586673968e-01,4.12977e-01,9.99999e-01,9.99999e-01,9.98840e-01,4.13459e-01,9.99993e-01
6.619607338e-01,4.20453e-01,9.99999e-01,9.99999e-01,9.99329e-01,4.20735e-01,9.99998e-01
6.652705375e-01,4.27826e-01,9.99999e-01,9.99999e-01,9.99611e-01,4.27992e-01,9.99998e-01
6.685968902e-01,4.35148e-01,9.99999e-01,9.99999e-01,9.99819e-01,4.35227e-01,9.99999e-01
6.719398746e-01,4.42400e-01,9.99999e-01,9.99999e-01,9.99916e-01,4.42437e-01,9.99999e-01
6.752995740e-01,4.49601e-01,9.99999e-01,9.99999e-01,9.99954e-01,4.49622e-01,9.99999e-01
6.786760719e-01,4.56747e-01,9.99999e-01,9.99999e-01,9.99934e-01,4.56777e-01,9.99999e-01
6.820694522e-01,4.63850e-01,9.99999e-01,9.99999e-01,9.99887e-01,4.63902e-01,9.99998e-01
6.854797995e-01,4.70925e-01,9.99999e-01,9.99999e-01,9.99855e-01,4.70993e-01,9.99998e-01
6.889071985e-01,4.77883e-01,9.99999e-01,9.99999e-01,9.99652e-01,4.78050e-01,9.99996e-01
6.923517345e-01,4.82302e-01,9.99999e-01,9.99999e-01,9.94318e-01,4.85070e-01,9.99972e-01
6.958134932e-01,4.90558e-01,9.99999e-01,9.99999e-01,9.97024e-01,4.92052e-01,9.99937e-01
6.992925606e-01,4.97564e-01,9.99999e-01,9.99999e-01,9.97190e-01,4.98993e-01,9.99945e-01
7.027890234e-01,5.04113e-01,9.99999e-01,9.99999e-01,9.96524e-01,5.05892e-01,9.99957e-01
7.063029686e-01,5.11239e-01,9.99999e-01,9.99999e-01,9.97078e-01,5.12747e-01,9.99978e-01
7.098344834e-01,5.18095e-01,9.99999e-01,9.99999e-01,9.97197e-01,5.19557e-01,9.99987e-01
7.133836558e-01,5.24349e-01,9.99999e-01,9.99999e-01,9.96276e-01,5.26321e-01,9.99975e-01
7.169505741e-01,5.17084e-01,9.99999e-01,9.99999e-01,9.70259e-01,5.33036e-01,9.99808e-01
7.205353270e-01,5.31578e-01,9.99999e-01,9.99999e-01,9.85280e-01,5.39702e-01,9.99662e-01
7.241380036e-01,5.36014e-01,9.99999e-01,9.99999e-01,9.81427e-01,5.46316e-01,9.99708e-01
7.277586936e-01,5.43473e-01,9.99999e-01,9.99999e-01,9.83220e-01,5.52879e-01,9.99761e-01
7.313974871e-01,5.49343e-01,9.99999e-01,9.99999e-01,9.82149e-01,5.59389e-01,9.99887e-01
7.350544745e-01,5.60292e-01,9.99999e-01,9.99999e-01,9.90225e-01,5.65845e-01,9.99960e-01
7.387297469e-01,5.68116e-01,9.99999e-01,9.99999e-01,9.92801e-01,5.72245e-01,9.99981e-01
7.424233956e-01,5.76546e-01,9.99999e-01,9.99999e-01,9.96471e-01,5.78589e-01,9.99996e-01
7.461355126e-01,5.83626e-01,9.99999e-01,9.99999e-01,9.97861e-01,5.84877e-01,9.99998e-01
7.498661902e-01,5.90517e-01,9.99999e-01,9.99999e-01,9.99003e-01,5.91106e-01,9.99999e-01
7.536155211e-01,5.96985e-01,9.99999e-01,9.99999e-01,9.99511e-01,5.97277e-01,9.99999e-01
7.573835987e-01,6.03236e-01,9.99999e-01,9.99999e-01,9.99748e-01,6.03388e-01,9.99999e-01
7.611705167e-01,6.09344e-01,9.99999e-01,9.99999e-01,9.99843e-01,6.09439e-01,9.99999e-01
7.649763693e-01,6.15370e-01,9.99999e-01,9.99999e-01,9.99901e-01,6.15430e-01,9.99999e-01
7.688012511e-01,6.21317e-01,9.99999e-01,9.99999e-01,9.99931e-01,6.21359e-01,9.99999e-01
7.726452574e-01,6.27192e-01,9.99999e-01,9.99999e-01,9.99943e-01,6.27227e-01,9.99999e-01
7.765084837e-01,6.32982e-01,9.99999e-01,9.99999e-01,9.99920e-01,6.33033e-01,9.99999e-01
7.803910261e-01,6.24892e-01,9.99999e-01,9.78593e-01,9.99656e-01,6.38776e-01,9.99999e-01
7.842929812e-01,5.85721e-01,9.99999e-01,9.09918e-01,9.98801e-01,6.44456e-01,9.99997e-01
7.882144461e-01,5.86094e-01,9.99999e-01,9.03773e-01,9.97525e-01,6.50073e-01,9.99984e-01
7.921555184e-01,6.17646e-01,9.99999e-01,9.43359e-01,9.98640e-01,6.55627e-01,9.99970e-01
7.961162960e-01,6.34283e-01,9.99999e-01,9.61726e-01,9.97605e-01,6.61117e-01,9.99971e-01
8.000968774e-01,6.50783e-01,9.99999e-01,9.79090e-01,9.97230e-01,6.66543e-01,9.99969e-01
8.040973618e-01,6.62733e-01,9.99999e-01,9.89107e-01,9.97231e-01,6.71905e-01,9.99975e-01
8.081178486e-01,6.69606e-01,9.99999e-01,9.94992e-01,9.93773e-01,6.77203e-01,9.99977e-01
8.121584379e-01,6.63762e-01,9.99999e-01,9.98447e-01,9.74221e-01,6.82437e-01,9.99912e-01
8.162192301e-01,6.66094e-01,9.99999e-01,9.99656e-01,9.69358e-01,6.87607e-01,9.99671e-01
8.203003262e-01,6.81801e-01,9.99999e-01,9.99994e-01,9.84630e-01,6.92713e-01,9.99615e-01
8.244018279e-01,6.82460e-01,9.99999e-01,9.99999e-01,9.78379e-01,6.97755e-01,9.99693e-01
8.285238370e-01,6.89682e-01,9.99999e-01,9.99999e-01,9.81664e-01,7.02732e-01,9.99759e-01
8.326664562e-01,6.94441e-01,9.99999e-01,9.99999e-01,9.81436e-01,7.07646e-01,9.99900e-01
8.368297885e-01,7.03019e-01,9.99999e-01,9.99999e-01,9.86720e-01,7.12496e-01,9.99976e-01
8.410139374e-01,7.11603e-01,9.99999e-01,9.99999e-01,9.92093e-01,7.17283e-01,9.99986e-01
8.452190071e-01,7.19197e-01,9.99999e-01,9.99999e-01,9.96116e-01,7.22006e-01,9.99991e-01
8.494451021e-01,7.25026e-01,9.99999e-01,9.99999e-01,9.97748e-01,7.26667e-01,9.99993e-01
8.536923276e-01,7.30287e-01,9.99999e-01,9.99999e-01,9.98666e-01,7.31264e-01,9.99995e-01
8.579607893e-01,7.35195e-01,9.99999e-01,9.99999e-01,9.99179e-01,7.35799e-01,9.99998e-01
8.622505932e-01,7.39885e-01,9.99999e-01,9.99999e-01,9.99478e-01,7.40271e-01,9.99999e-01
8.665618462e-01,7.04301e-01,9.99999e-01,9.46070e-01,9.99677e-01,7.44682e-01,9.99999e-01
8.708946554e-01,5.87753e-01,9.99999e-01,7.84967e-01,9.99631e-01,7.49031e-01,9.99999e-01
8.752491287e-01,6.20538e-01,9.99999e-01,8.24138e-01,9.99506e-01,7.53318e-01,9.99998e-01
8.796253743e-01,6.81276e-01,9.99999e-01,8.99924e-01,9.99317e-01,7.57545e-01,9.99997e-01
8.840235012e-01,7.20782e-01,9.99999e-01,9.47002e-01,9.99219e-01,7.61711e-01,9.99994e-01
8.884436187e-01,7.47446e-01,9.99999e-01,9.78779e-01,9.97166e-01,7.65818e-01,9.99986e-01
8.928858368e-01,7.40557e-01,9.99999e-01,9.91362e-01,9.70342e-01,7.69864e-01,9.99921e-01
8.973502660e-01,7.31730e-01,9.99999e-01,9.97892e-01,9.47918e-01,7.73852e-01,9.99600e-01
9.018370173e-01,7.56140e-01,9.99999e-01,9.99767e-01,9.73008e-01,7.77781e-01,9.99371e-01
9.063462024e-01,7.58304e-01,9.99999e-01,9.94074e-01,9.76338e-01,7.81651e-01,9.99448e-01
9.108779334e-01,7.45984e-01,9.99999e-01,9.86402e-01,9.63280e-01,7.85464e-01,9.99426e-01
9.154323231e-01,7.53632e-01,9.99999e-01,9.96785e-01,9.58399e-01,7.89219e-01,9.99525e-01
9.200094847e-01,7.31805e-01,9.99999e-01,9.53386e-01,9.67223e-01,7.92918e-01,9.99734e-01
9.246095321e-01,7.07300e-01,9.99999e-01,9.35120e-01,9.49094e-01,7.96560e-01,9.99694e-01
9.292325798e-01,5.34623e-01,9.99999e-01,9.48748e-01,7.02443e-01,8.00147e-01,9.98808e-01
9.338787427e-01,4.82570e-01,9.99999e-01,9.50396e-01,6.32550e-01,8.03679e-01,9.95086e-01
9.385481364e-01,6.43824e-01,9.99999e-01,9.63377e-01,8.31651e-01,8.07156e-01,9.94158e-01
9.432408771e-01,6.09517e-01,9.99999e-01,9.77427e-01,7.72566e-01,8.10579e-01,9.94958e-01
9.479570815e-01,5.60104e-01,9.99999e-01,9.88367e-01,6.98797e-01,8.13948e-01,9.95894e-01
9.526968669e-01,6.20938e-01,9.99999e-01,9.94371e-01,7.65732e-01,8.17264e-01,9.97493e-01
9.574603512e-01,6.41722e-01,9.99999e-01,9.97589e-01,7.84891e-01,8.20529e-01,9.98725e-01
9.622476530e-01,6.75612e-01,9.99999e-01,9.99247e-01,8.21492e-01,8.23741e-01,9.99118e-01
9.670588912e-01,7.37878e-01,9.99999e-01,9.99774e-01,8.93072e-01,8.26902e-01,9.99397e-01
9.718941857e-01,7.73249e-01,9.99999e-01,9.99983e-01,9.32039e-01,8.30012e-01,9.99555e-01
9.767536566e-01,7.85552e-01,9.99999e-01,9.99999e-01,9.43276e-01,8.33072e-01,9.99660e-01
9.816374249e-01,8.00588e-01,9.99999e-01,9.99999e-01,9.57658e-01,8.36083e-01,9.99882e-01
9.865456120e-01,8.16664e-01,9.99999e-01,9.99999e-01,9.73349e-01,8.39045e-01,9.99975e-01
9.914783401e-01,8.28023e-01,9.99999e-01,9.99999e-01,9.83455e-01,8.41958e-01,9.99992e-01
9.964357318e-01,8.37182e-01,9.99999e-01,9.99999e-01,9.90957e-01,8.44824e-01,9.99995e-01
1.001417910e+00,8.43037e-01,9.99999e-01,9.99999e-01,9.94572e-01,8.47643e-01,9.99993e-01
1.006425000e+00,8.47776e-01,9.99999e-01,9.99999e-01,9.96904e-01,8.50415e-01,9.99990e-01
1.011457125e+00,8.51493e-01,9.99999e-01,9.99999e-01,9.98076e-01,8.53141e-01,9.99991e-01
1.016514411e+00,8.54700e-01,9.99999e-01,9.99999e-01,9.98694e-01,8.55821e-01,9.99993e-01
1.021596983e+00,8.57534e-01,9.99999e-01,9.99969e-01,9.98959e-01,8.58457e-01,9.99993e-01
1.026704968e+00,8.58366e-01,9.99999e-01,9.97695e-01,9.99188e-01,8.61049e-01,9.99995e-01
1.031838492e+00,8.36328e-01,9.99999e-01,9.68982e-01,9.99409e-01,8.63597e-01,9.99998e-01
1.036997685e+00,2.03968e-01,9.99999e-01,2.35568e-01,9.99649e-01,8.66103e-01,9.99999e-01
1.042182673e+00,2.24328e-01,9.99999e-01,2.58373e-01,9.99582e-01,8.68565e-01,9.99999e-01
1.047393587e+00,2.22037e-01,9.99999e-01,2.55053e-01,9.99446e-01,8.70986e-01,9.99999e-01
1.052630555e+00,2.10594e-02,9.99999e-01,2.41271e-02,9.99240e-01,8.73366e-01,9.99999e-01
1.057893707e+00,4.32619e-02,9.99999e-01,4.94493e-02,9.98733e-01,8.75705e-01,9.99999e-01
1.063183176e+00,9.80855e-02,9.99999e-01,1.11897e-01,9.97915e-01,8.78004e-01,9.99998e-01
1.068499092e+00,1.99949e-01,9.99999e-01,2.27855e-01,9.96509e-01,8.80263e-01,9.99997e-01
1.073841587e+00,3.45632e-01,9.99999e-01,3.93093e-01,9.95916e-01,8.82483e-01,9.99994e-01
1.079210795e+00,4.88118e-01,9.99999e-01,5.54497e-01,9.94765e-01,8.84665e-01,9.99985e-01
1.084606849e+00,6.37282e-01,9.99999e-01,7.24208e-01,9.92086e-01,8.86809e-01,9.99965e-01
1.090029883e+00,7.43685e-01,9.99999e-01,8.46107e-01,9.88662e-01,8.88916e-01,9.99929e-01
1.095480033e+00,7.95532e-01,9.99999e-01,9.20990e-01,9.69383e-01,8.90986e-01,9.99873e-01
1.100957433e+00,7.93039e-01,9.99999e-01,9.61170e-01,9.23896e-01,8.93019e-01,9.99767e-01
1.106462220e+00,7.19427e-01,9.99999e-01,9.83757e-01,8.17101e-01,8.95017e-01,9.99606e-01
1.111994531e+00,5.81312e-01,9.99999e-01,9.93950e-01,6.52517e-01,8.96980e-01,9.98956e-01
1.117554504e+00,4.47100e-01,9.99999e-01,9.98518e-01,4.99906e-01,8.98909e-01,9.96240e-01
1.123142276e+00,5.33018e-01,9.99999e-01,9.99902e-01,5.97059e-01,9.00803e-01,9.91108e-01
1.128757988e+00,6.44167e-01,9.99999e-01,9.99999e-01,7.21039e-01,9.02664e-01,9.89721e-01
1.134401778e+00,4.20943e-01,9.99999e-01,9.99999e-01,4.69498e-01,9.04491e-01,9.91253e-01
1.140073787e+00,7.41566e-01,9.99999e-01,9.99999e-01,8.24010e-01,9.06286e-01,9.93005e-01
1.145774156e+00,6.00641e-01,9.99999e-01,9.99999e-01,6.65726e-01,9.08050e-01,9.93595e-01
1.151503026e+00,5.75244e-01,9.99999e-01,9.99999e-01,6.34554e-01,9.09781e-01,9.96426e-01
1.157260541e+00,6.25472e-01,9.99999e-01,9.99999e-01,6.86948e-01,9.11482e-01,9.98929e-01
1.163046844e+00,6.91864e-01,9.99999e-01,9.99999e-01,7.57895e-01,9.13152e-01,9.99696e-01
1.168862078e+00,7.54989e-01,9.99999e-01,9.99999e-01,8.25440e-01,9.14792e-01,9.99843e-01
1.174706389e+00,8.13953e-01,9.99999e-01,9.99999e-01,8.88387e-01,9.16403e-01,9.99792e-01
1.180579921e+00,8.53927e-01,9.99999e-01,9.99999e-01,9.30510e-01,9.17985e-01,9.99686e-01
1.186482820e+00,8.82629e-01,9.99999e-01,9.99995e-01,9.60173e-01,9.19538e-01,9.99678e-01
1.192415234e+00,8.91915e-01,9.99999e-01,9.91754e-01,9.76582e-01,9.21062e-01,9.99758e-01
1.198377311e+00,5.22499e-01,9.99999e-01,5.76049e-01,9.80235e-01,9.22560e-01,9.99772e-01
1.204369197e+00,8.67413e-08,9.99999e-01,9.49212e-08,9.81273e-01,9.24030e-01,9.99793e-01
1.210391043e+00,4.97707e-26,9.99999e-01,5.43270e-26,9.82089e-01,9.25473e-01,9.99874e-01
1.216442998e+00,9.12007e-23,9.99999e-01,9.93409e-23,9.84735e-01,9.26890e-01,9.99922e-01
1.222525213e+00,1.91569e-22,9.99999e-01,2.07660e-22,9.88104e-01,9.28281e-01,9.99951e-01
1.228637839e+00,2.51335e-17,9.99999e-01,2.71950e-17,9.91728e-01,9.29646e-01,9.99977e-01
