#,Wave/freq,Total,N2,CO2,H2O,Rayleigh,CIA
4.000000000e-01,5.49234e-15,9.99999e-01,9.99999e-01,9.99936e-01,5.49269e-15,9.99999e-01
4.020000000e-01,1.05133e-14,9.99999e-01,9.99999e-01,9.99960e-01,1.05137e-14,9.99999e-01
4.040100000e-01,1.98542e-14,9.99999e-01,9.99999e-01,9.99982e-01,1.98545e-14,9.99999e-01
4.060300500e-01,3.70262e-14,9.99999e-01,9.99999e-01,9.99995e-01,3.70263e-14,9.99999e-01
4.080602003e-01,6.82048e-14,9.99999e-01,9.99999e-01,9.99998e-01,6.82049e-14,9.99999e-01
4.101005013e-01,1.24131e-13,9.99999e-01,9.99999e-01,9.99999e-01,1.24131e-13,9.99999e-01
4.121510038e-01,2.23258e-13,9.99999e-01,9.99999e-01,9.99997e-01,2.23259e-13,9.99999e-01
4.142117588e-01,3.96911e-13,9.99999e-01,9.99999e-01,9.99982e-01,3.96918e-13,9.99999e-01
4.162828176e-01,6.97627e-13,9.99999e-01,9.99999e-01,9.99921e-01,6.97681e-13,9.99999e-01
4.183642317e-01,1.21270e-12,9.99999e-01,9.99999e-01,9.99952e-01,1.21276e-12,9.99999e-01
4.204560528e-01,2.08515e-12,9.99999e-01,9.99999e-01,9.99970e-01,2.08521e-12,9.99999e-01
4.225583331e-01,3.54708e-12,9.99999e-01,9.99999e-01,9.99988e-01,3.54712e-12,9.99999e-01
4.246711247e-01,5.97091e-12,9.99999e-01,9.99999e-01,9.99991e-01,5.97096e-12,9.99999e-01
4.267944804e-01,9.94809e-12,9.99999e-01,9.99999e-01,9.99986e-01,9.94821e-12,9.99999e-01
4.289284528e-01,1.64083e-11,9.99999e-01,9.99999e-01,9.99989e-01,1.64084e-11,9.99999e-01
4.310730950e-01,2.67975e-11,9.99999e-01,9.99999e-01,9.99995e-01,2.67976e-11,9.99999e-01
4.332284605e-01,4.33428e-11,9.99999e-01,9.99999e-01,9.99998e-01,4.33428e-11,9.99999e-01
4.353946028e-01,6.94406e-11,9.99999e-01,9.99999e-01,9.99999e-01,6.94407e-11,9.99999e-01
4.375715758e-01,1.10221e-10,9.99999e-01,9.99999e-01,9.99991e-01,1.10222e-10,9.99999e-01
4.397594337e-01,1.73351e-10,9.99999e-01,9.99999e-01,9.99931e-01,1.73363e-10,9.99999e-01
4.419582309e-01,2.70154e-10,9.99999e-01,9.99999e-01,9.99654e-01,2.70248e-10,9.99999e-01
4.441680220e-01,4.17483e-10,9.99999e-01,9.99999e-01,9.99725e-01,4.17598e-10,9.99999e-01
4.463888621e-01,6.39585e-10,9.99999e-01,9.99999e-01,9.99716e-01,6.39766e-10,9.99999e-01
4.486208064e-01,9.71736e-10,9.99999e-01,9.99999e-01,9.99822e-01,9.71908e-10,9.99999e-01
4.508639105e-01,1.46422e-09,9.99999e-01,9.99999e-01,9.99916e-01,1.46434e-09,9.99999e-01
4.531182300e-01,2.18841e-09,9.99999e-01,9.99999e-01,9.99966e-01,2.18848e-09,9.99999e-01
4.553838212e-01,3.24479e-09,9.99999e-01,9.99999e-01,9.99977e-01,3.24486e-09,9.99999e-01
4.576607403e-01,4.77383e-09,9.99999e-01,9.99999e-01,9.99989e-01,4.77387e-09,9.99999e-01
4.599490440e-01,6.96997e-09,9.99999e-01,9.99999e-01,9.99992e-01,6.97002e-09,9.99999e-01
4.622487892e-01,1.01007e-08,9.99999e-01,9.99999e-01,9.99998e-01,1.01007e-08,9.99999e-01
4.645600332e-01,1.45305e-08,9.99999e-01,9.99999e-01,9.99994e-01,1.45306e-08,9.99999e-01
4.668828333e-01,2.07521e-08,9.99999e-01,9.99999e-01,9.99916e-01,2.07538e-08,9.99999e-01
4.692172475e-01,2.94291e-08,9.99999e-01,9.99999e-01,9.99821e-01,2.94344e-08,9.99999e-01
4.715633337e-01,4.14537e-08,9.99999e-01,9.99999e-01,9.99883e-01,4.14585e-08,9.99999e-01
4.739211504e-01,5.79943e-08,9.99999e-01,9.99999e-01,9.99888e-01,5.80008e-08,9.99999e-01
4.762907561e-01,8.06026e-08,9.99999e-01,9.99999e-01,9.99941e-01,8.06072e-08,9.99999e-01
4.786722099e-01,1.11296e-07,9.99999e-01,9.99999e-01,9.99975e-01,1.11299e-07,9.99999e-01
4.810655710e-01,1.52699e-07,9.99999e-01,9.99999e-01,9.99992e-01,1.52700e-07,9.99999e-01
4.834708988e-01,2.08184e-07,9.99999e-01,9.99999e-01,9.99932e-01,2.08198e-07,9.99999e-01
4.858882533e-01,2.82097e-07,9.99999e-01,9.99999e-01,9.99873e-01,2.82132e-07,9.99999e-01
4.883176946e-01,3.79994e-07,9.99999e-01,9.99999e-01,9.99894e-01,3.80034e-07,9.99999e-01
4.907592831e-01,5.08856e-07,9.99999e-01,9.99999e-01,9.99904e-01,5.08905e-07,9.99999e-01
4.932130795e-01,6.77512e-07,9.99999e-01,9.99999e-01,9.99931e-01,6.77558e-07,9.99999e-01
4.956791449e-01,8.96984e-07,9.99999e-01,9.99999e-01,9.99963e-01,8.97016e-07,9.99999e-01
4.981575406e-01,1.18078e-06,9.99999e-01,9.99999e-01,9.99821e-01,1.18099e-06,9.99999e-01
5.006483283e-01,1.54573e-06,9.99999e-01,9.99999e-01,9.99540e-01,1.54645e-06,9.99996e-01
5.031515699e-01,2.00947e-06,9.99999e-01,9.99999e-01,9.97657e-01,2.01424e-06,9.99974e-01
5.056673278e-01,2.60656e-06,9.99999e-01,9.99999e-01,9.98759e-01,2.60987e-06,9.99971e-01
5.081956644e-01,3.35905e-06,9.99999e-01,9.99999e-01,9.98434e-01,3.36437e-06,9.99981e-01
5.107366428e-01,4.31072e-06,9.99999e-01,9.99999e-01,9.98942e-01,4.31530e-06,9.99996e-01
5.132903260e-01,5.50453e-06,9.99999e-01,9.99999e-01,9.99394e-01,5.50786e-06,9.99999e-01
5.158567776e-01,6.99440e-06,9.99999e-01,9.99999e-01,9.99743e-01,6.99619e-06,9.99999e-01
5.184360615e-01,8.84390e-06,9.99999e-01,9.99999e-01,9.99897e-01,8.84480e-06,9.99999e-01
5.210282418e-01,1.11298e-05,9.99999e-01,9.99999e-01,9.99961e-01,1.11302e-05,9.99999e-01
5.236333830e-01,1.39406e-05,9.99999e-01,9.99999e-01,9.99846e-01,1.39427e-05,9.99998e-01
5.262515499e-01,1.73867e-05,9.99999e-01,9.99999e-01,9.99903e-01,1.73884e-05,9.99998e-01
5.288828077e-01,2.15892e-05,9.99999e-01,9.99999e-01,9.99912e-01,2.15911e-05,9.99998e-01
5.315272217e-01,2.66932e-05,9.99999e-01,9.99999e-01,9.99922e-01,2.66953e-05,9.99999e-01
5.341848578e-01,3.28664e-05,9.99999e-01,9.99999e-01,9.99949e-01,3.28681e-05,9.99999e-01
5.368557821e-01,4.02951e-05,9.99999e-01,9.99999e-01,9.99822e-01,4.03022e-05,9.99999e-01
5.395400610e-01,4.91876e-05,9.99999e-01,9.99999e-01,9.99361e-01,4.92192e-05,9.99994e-01
5.422377613e-01,5.98215e-05,9.99999e-01,9.99999e-01,9.99166e-01,5.98723e-05,9.99984e-01
5.449489501e-01,7.24927e-05,9.99999e-01,9.99999e-01,9.99229e-01,7.25497e-05,9.99983e-01
5.476736949e-01,8.75179e-05,9.99999e-01,9.99999e-01,9.99313e-01,8.75787e-05,9.99991e-01
5.504120634e-01,1.05276e-04,9.99999e-01,9.99999e-01,9.99501e-01,1.05329e-04,9.99997e-01
5.531641237e-01,1.26183e-04,9.99999e-01,9.99999e-01,9.99748e-01,1.26215e-04,9.99999e-01
5.559299443e-01,1.50685e-04,9.99999e-01,9.99999e-01,9.99878e-01,1.50704e-04,9.99999e-01
5.587095940e-01,1.79301e-04,9.99999e-01,9.99999e-01,9.99923e-01,1.79314e-04,9.99999e-01
5.615031420e-01,2.12608e-04,9.99999e-01,9.99999e-01,9.99915e-01,2.12626e-04,9.99999e-01
5.643106577e-01,2.51254e-04,9.99999e-01,9.99999e-01,9.99905e-01,2.51278e-04,9.99998e-01
5.671322110e-01,2.95637e-04,9.99999e-01,9.99999e-01,9.98855e-01,2.95978e-04,9.99989e-01
5.699678720e-01,3.47063e-04,9.99999e-01,9.99999e-01,9.98757e-01,3.47505e-04,9.99967e-01
5.728177114e-01,4.06178e-04,9.99999e-01,9.99999e-01,9.98716e-01,4.06711e-04,9.99973e-01
5.756818000e-01,4.73960e-04,9.99999e-01,9.99999e-01,9.98819e-01,4.74527e-04,9.99983e-01
5.785602090e-01,5.51396e-04,9.99999e-01,9.99999e-01,9.98969e-01,5.51967e-04,9.99994e-01
5.814530100e-01,6.39468e-04,9.99999e-01,9.99999e-01,9.98966e-01,6.40130e-04,9.99997e-01
5.843602750e-01,7.39295e-04,9.99999e-01,9.99999e-01,9.98776e-01,7.40206e-04,9.99992e-01
5.872820764e-01,8.44447e-04,9.99999e-01,9.99999e-01,9.89495e-01,8.53474e-04,9.99924e-01
5.902184868e-01,9.68540e-04,9.99999e-01,9.99999e-01,9.87184e-01,9.81312e-04,9.99796e-01
5.931695792e-01,1.11480e-03,9.99999e-01,9.99999e-01,9.90958e-01,1.12519e-03,9.99801e-01
5.961354271e-01,1.27376e-03,9.99999e-01,9.99999e-01,9.90071e-01,1.28668e-03,9.99880e-01
5.991161043e-01,1.45676e-03,9.99999e-01,9.99999e-01,9.92742e-01,1.46746e-03,9.99964e-01
6.021116848e-01,1.66240e-03,9.99999e-01,9.99999e-01,9.95872e-01,1.66930e-03,9.99995e-01
6.051222432e-01,1.89011e-03,9.99999e-01,9.99999e-01,9.97908e-01,1.89407e-03,9.99999e-01
6.081478544e-01,2.14182e-03,9.99999e-01,9.99999e-01,9.99098e-01,2.14375e-03,9.99999e-01
6.111885937e-01,2.41949e-03,9.99999e-01,9.99999e-01,9.99617e-01,2.42042e-03,9.99999e-01
6.142445367e-01,2.72578e-03,9.99999e-01,9.99999e-01,9.99829e-01,2.72624e-03,9.99999e-01
6.173157594e-01,3.06322e-03,9.99999e-01,9.99999e-01,9.99905e-01,3.06351e-03,9.99999e-01
6.204023382e-01,3.43430e-03,9.99999e-01,9.99999e-01,9.99920e-01,3.43457e-03,9.99999e-01
6.235043498e-01,3.84056e-03,9.99999e-01,9.99999e-01,9.99654e-01,3.84189e-03,9.99998e-01
6.266218716e-01,4.28003e-03,9.99999e-01,9.99999e-01,9.98151e-01,4.28801e-03,9.99986e-01
6.297549810e-01,4.77220e-03,9.99999e-01,9.99999e-01,9.99321e-01,4.77557e-03,9.99973e-01
6.329037559e-01,5.30002e-03,9.99999e-01,9.99999e-01,9.98656e-01,5.30725e-03,9.99978e-01
6.360682746e-01,5.87907e-03,9.99999e-01,9.99999e-01,9.98859e-01,5.88585e-03,9.99987e-01
6.392486160e-01,6.50453e-03,9.99999e-01,9.99999e-01,9.98520e-01,6.51420e-03,9.99994e-01
6.424448591e-01,7.18098e-03,9.99999e-01,9.99999e-01,9.98032e-01,7.19520e-03,9.99990e-01
6.456570834e-01,7.85916e-03,9.99999e-01,9.99999e-01,9.90892e-01,7.93179e-03,9.99948e-01
6.488853688e-01,8.65702e-03,9.99999e-01,9.99999e-01,9.92124e-01,8.72698e-03,9.99857e-01
6.521297956e-01,9.51696e-03,9.99999e-01,9.99999e-01,9.93145e-01,9.58378e-03,9.99879e-01
6.553904446e-01,1.04331e-02,9.99999e-01,9.99999e-01,9.93223e-01,1.05053e-02,9.99909e-01
6.586673968e-01,1.14269e-02,9.99999e-01,9.99999e-01,9.94148e-01,1.14945e-02,9.99970e-01
6.619607338e-01,1.25119e-02,9.99999e-01,9.99999e-01,9.96613e-01,1.25545e-02,9.99993e-01
6.652705375e-01,1.36614e-02,9.99999e-01,9.99999e-01,9.98034e-01,1.36884e-02,9.99996e-01
6.685968902e-01,1.48856e-02,9.99999e-01,9.99999e-01,9.99086e-01,1.48992e-02,9.99998e-01
6.719398746e-01,1.61832e-02,9.99999e-01,9.99999e-01,9.99576e-01,1.61901e-02,9.99999e-01
6.752995740e-01,1.75599e-02,9.99999e-01,9.99999e-01,9.99771e-01,1.75639e-02,9.99999e-01
6.786760719e-01,1.90174e-02,9.99999e-01,9.99999e-01,9.99671e-01,1.90236e-02,9.99999e-01
6.820694522e-01,2.05606e-02,9.99999e-01,9.99999e-01,9.99436e-01,2.05722e-02,9.99996e-01
6.854797995e-01,2.21963e-02,9.99999e-01,9.99999e-01,9.99273e-01,2.22126e-02,9.99993e-01
6.889071985e-01,2.39053e-02,9.99999e-01,9.99999e-01,9.98261e-01,2.39473e-02,9.99983e-01
6.923517345e-01,2.50480e-02,9.99999e-01,9.99999e-01,9.71765e-01,2.57793e-02,9.99861e-01
6.958134932e-01,2.72871e-02,9.99999e-01,9.99999e-01,9.85007e-01,2.77110e-02,9.99688e-01
6.992925606e-01,2.93187e-02,9.99999e-01,9.99999e-01,9.85938e-01,2.97450e-02,9.99725e-01
7.027890234e-01,3.13211e-02,9.99999e-01,9.99999e-01,9.82562e-01,3.18836e-02,9.99789e-01
7.063029686e-01,3.36248e-02,9.99999e-01,9.99999e-01,9.85323e-01,3.41292e-02,9.99895e-01
7.098344834e-01,3.59676e-02,9.99999e-01,9.99999e-01,9.85912e-01,3.64838e-02,9.99937e-01
7.133836558e-01,3.82231e-02,9.99999e-01,9.99999e-01,9.81468e-01,3.89495e-02,9.99876e-01
7.169505741e-01,3.57208e-02,9.99999e-01,9.99999e-01,8.60987e-01,4.15282e-02,9.99033e-01
7.205353270e-01,4.09777e-02,9.99999e-01,9.99999e-01,9.28226e-01,4.42216e-02,9.98295e-01
7.241380036e-01,4.27610e-02,9.99999e-01,9.99999e-01,9.10542e-01,4.70313e-02,9.98527e-01
7.277586936e-01,4.58505e-02,9.99999e-01,9.99999e-01,9.18875e-01,4.99586e-02,9.98796e-01
7.313974871e-01,4.83840e-02,9.99999e-01,9.99999e-01,9.13335e-01,5.30049e-02,9.99435e-01
7.350544745e-01,5.34471e-02,9.99999e-01,9.99999e-01,9.51688e-01,5.61712e-02,9.99803e-01
7.387297469e-01,5.73220e-02,9.99999e-01,9.99999e-01,9.64152e-01,5.94585e-02,9.99909e-01
7.424233956e-01,6.17511e-02,9.99999e-01,9.99999e-01,9.82259e-01,6.28675e-02,9.99982e-01
7.461355126e-01,6.56832e-02,9.99999e-01,9.99999e-01,9.89224e-01,6.63988e-02,9.99996e-01
7.498661902e-01,6.96997e-02,9.99999e-01,9.99999e-01,9.94959e-01,7.00528e-02,9.99998e-01
7.536155211e-01,7.36474e-02,9.99999e-01,9.99999e-01,9.97530e-01,7.38297e-02,9.99998e-01
7.573835987e-01,7.76307e-02,9.99999e-01,9.99999e-01,9.98727e-01,7.77296e-02,9.99999e-01
7.611705167e-01,8.16877e-02,9.99999e-01,9.99999e-01,9.99209e-01,8.17523e-02,9.99999e-01
7.649763693e-01,8.58551e-02,9.99999e-01,9.99999e-01,9.99504e-01,8.58976e-02,9.99999e-01
7.688012511e-01,9.01338e-02,9.99999e-01,9.99999e-01,9.99655e-01,9.01649e-02,9.99999e-01
7.726452574e-01,9.45268e-02,9.99999e-01,9.99999e-01,9.99716e-01,9.45536e-02,9.99999e-01
7.765084837e-01,9.90232e-02,9.99999e-01,9.99999e-01,9.99599e-01,9.90629e-02,9.99999e-01
7.803910261e-01,9.48189e-02,9.99999e-01,9.15890e-01,9.98273e-01,1.03692e-01,9.99997e-01
7.842929812e-01,6.90161e-02,9.99999e-01,6.39838e-01,9.93984e-01,1.08439e-01,9.99988e-01
7.882144461e-01,7.00668e-02,9.99999e-01,6.25448e-01,9.87562e-01,1.13303e-01,9.99923e-01
7.921555184e-01,8.80585e-02,9.99999e-01,7.49389e-01,9.93138e-01,1.18283e-01,9.99851e-01
7.961162960e-01,1.00188e-01,9.99999e-01,8.21740e-01,9.88001e-01,1.23378e-01,9.99857e-01
8.000968774e-01,1.13984e-01,9.99999e-01,8.98986e-01,9.86085e-01,1.28584e-01,9.99848e-01
8.040973618e-01,1.24914e-01,9.99999e-01,9.46073e-01,9.86099e-01,1.33901e-01,9.99879e-01
8.081178486e-01,1.31643e-01,9.99999e-01,9.74928e-01,9.69134e-01,1.39325e-01,9.99887e-01
8.121584379e-01,1.26142e-01,9.99999e-01,9.92141e-01,8.77880e-01,1.44857e-01,9.99558e-01
8.162192301e-01,1.28392e-01,9.99999e-01,9.98258e-01,8.55979e-01,1.50491e-01,9.98341e-01
8.203003262e-01,1.44602e-01,9.99999e-01,9.99971e-01,9.27403e-01,1.56228e-01,9.98058e-01
8.244018279e-01,1.45480e-01,9.99999e-01,9.99999e-01,8.99066e-01,1.62063e-01,9.98454e-01
8.285238370e-01,1.52932e-01,9.99999e-01,9.99999e-01,9.11447e-01,1.67994e-01,9.98785e-01
8.326664562e-01,1.58345e-01,9.99999e-01,9.99999e-01,9.10385e-01,1.74019e-01,9.99497e-01
8.368297885e-01,1.68370e-01,9.99999e-01,9.99999e-01,9.34799e-01,1.80134e-01,9.99884e-01
8.410139374e-01,1.79000e-01,9.99999e-01,9.99999e-01,9.60686e-01,1.86337e-01,9.99932e-01
8.452190071e-01,1.88861e-01,9.99999e-01,9.99999e-01,9.80499e-01,1.92625e-01,9.99959e-01
8.494451021e-01,1.96734e-01,9.99999e-01,9.99999e-01,9.88668e-01,1.98995e-01,9.99967e-01
8.536923276e-01,2.04056e-01,9.99999e-01,9.99999e-01,9.93267e-01,2.05443e-01,9.99978e-01
8.579607893e-01,2.11088e-01,9.99999e-01,9.99999e-01,9.95858e-01,2.11967e-01,9.99993e-01
8.622505932e-01,2.17986e-01,9.99999e-01,9.99999e-01,9.97362e-01,2.18562e-01,9.99998e-01
8.665618462e-01,1.96117e-01,9.99999e-01,8.72079e-01,9.98372e-01,2.25227e-01,9.99999e-01
8.708946554e-01,7.76414e-02,9.99999e-01,3.35294e-01,9.98139e-01,2.31957e-01,9.99998e-01
8.752491287e-01,9.55203e-02,9.99999e-01,4.01014e-01,9.97510e-01,2.38750e-01,9.99996e-01
8.796253743e-01,1.46246e-01,9.99999e-01,5.97357e-01,9.96561e-01,2.45601e-01,9.99991e-01
8.840235012e-01,1.91634e-01,9.99999e-01,7.61802e-01,9.96070e-01,2.52508e-01,9.99975e-01
8.884436187e-01,2.29649e-01,9.99999e-01,8.97382e-01,9.85958e-01,2.59466e-01,9.99931e-01
8.928858368e-01,2.19866e-01,9.99999e-01,9.57061e-01,8.61462e-01,2.66474e-01,9.99605e-01
8.973502660e-01,2.07407e-01,9.99999e-01,9.89344e-01,7.67494e-01,2.73526e-01,9.97982e-01
9.018370173e-01,2.43957e-01,9.99999e-01,9.98818e-01,8.73050e-01,2.80621e-01,9.96830e-01
9.063462024e-01,2.48253e-01,9.99999e-01,9.71338e-01,8.88258e-01,2.87753e-01,9.97215e-01
9.108779334e-01,2.28577e-01,9.99999e-01,9.33295e-01,8.30812e-01,2.94921e-01,9.97106e-01
9.154323231e-01,2.40235e-01,9.99999e-01,9.83808e-01,8.09357e-01,3.02121e-01,9.97607e-01
9.200094847e-01,2.18240e-01,9.99999e-01,8.15847e-01,8.47491e-01,3.09349e-01,9.98660e-01
9.246095321e-01,1.78890e-01,9.99999e-01,7.14987e-01,7.80584e-01,3.16602e-01,9.98456e-01
9.292325798e-01,5.45786e-02,9.99999e-01,7.73777e-01,2.07503e-01,3.23877e-01,9.93995e-01
9.338787427e-01,3.40923e-02,9.99999e-01,7.76865e-01,1.29000e-01,3.31170e-01,9.75409e-01
9.385481364e-01,1.21374e-01,9.99999e-01,8.29392e-01,4.34206e-01,3.38478e-01,9.70821e-01
9.432408771e-01,1.00446e-01,9.99999e-01,8.90976e-01,3.29708e-01,3.45799e-01,9.74776e-01
9.479570815e-01,7.06323e-02,9.99999e-01,9.42557e-01,2.15139e-01,3.53129e-01,9.79422e-01
9.526968669e-01,1.05520e-01,9.99999e-01,9.71868e-01,3.03431e-01,3.60465e-01,9.87398e-01
9.574603512e-01,1.16111e-01,9.99999e-01,9.87855e-01,3.20966e-01,3.67803e-01,9.93578e-01
9.622476530e-01,1.45097e-01,9.99999e-01,9.96192e-01,3.89751e-01,3.75142e-01,9.95555e-01
9.670588912e-01,2.20319e-01,9.99999e-01,9.98856e-01,5.78355e-01,3.82478e-01,9.96957e-01
9.718941857e-01,2.73968e-01,9.99999e-01,9.99917e-01,7.04451e-01,3.89808e-01,9.97759e-01
9.767536566e-01,2.96290e-01,9.99999e-01,9.99999e-01,7.47358e-01,3.97130e-01,9.98287e-01
9.816374249e-01,3.25290e-01,9.99999e-01,9.99999e-01,8.04771e-01,4.04441e-01,9.99406e-01
9.865456120e-01,3.59295e-01,9.99999e-01,9.99999e-01,8.72738e-01,4.11738e-01,9.99876e-01
9.914783401e-01,3.85142e-01,9.99999e-01,9.99999e-01,9.19184e-01,4.19018e-01,9.99965e-01
9.964357318e-01,4.07145e-01,9.99999e-01,9.99999e-01,9.55130e-01,4.26280e-01,9.99979e-01
1.001417910e+00,4.21735e-01,9.99999e-01,9.99999e-01,9.72844e-01,4.33520e-01,9.99968e-01
1.006425000e+00,4.33864e-01,9.99999e-01,9.99999e-01,9.84449e-01,4.40736e-01,9.99955e-01
1.011457125e+00,4.43566e-01,9.99999e-01,9.99999e-01,9.90302e-01,4.47927e-01,9.99959e-01
1.016514411e+00,4.52079e-01,9.99999e-01,9.99999e-01,9.93413e-01,4.55089e-01,9.99970e-01
1.021596983e+00,4.59716e-01,9.99999e-01,9.99853e-01,9.94751e-01,4.62222e-01,9.99970e-01
1.026704968e+00,4.62075e-01,9.99999e-01,9.88609e-01,9.95906e-01,4.69321e-01,9.99980e-01
1.031838492e+00,4.31762e-01,9.99999e-01,9.08900e-01,9.97018e-01,4.76387e-01,9.99994e-01
1.036997685e+00,2.51560e-02,9.99999e-01,5.21075e-02,9.98231e-01,4.83415e-01,9.99998e-01
1.042182673e+00,1.73149e-03,9.99999e-01,3.53642e-03,9.97896e-01,4.90406e-01,9.99999e-01
1.047393587e+00,4.56242e-03,9.99999e-01,9.19469e-03,9.97207e-01,4.97357e-01,9.99999e-01
1.052630555e+00,5.58871e-07,9.99999e-01,1.11098e-06,9.96173e-01,5.04266e-01,9.99998e-01
1.057893707e+00,2.07088e-06,9.99999e-01,4.06493e-06,9.93627e-01,5.11132e-01,9.99997e-01
1.063183176e+00,5.27187e-05,9.99999e-01,1.02403e-04,9.89526e-01,5.17953e-01,9.99994e-01
1.068499092e+00,5.24248e-04,9.99999e-01,1.01086e-03,9.82507e-01,5.24727e-01,9.99987e-01
1.073841587e+00,6.11973e-03,9.99999e-01,1.16871e-02,9.79604e-01,5.31454e-01,9.99973e-01
1.079210795e+00,3.22617e-02,9.99999e-01,6.12148e-02,9.73858e-01,5.38131e-01,9.99929e-01
1.084606849e+00,1.07435e-01,9.99999e-01,2.04305e-01,9.60769e-01,5.44758e-01,9.99829e-01
1.090029883e+00,2.27612e-01,9.99999e-01,4.35312e-01,9.44445e-01,5.51334e-01,9.99647e-01
1.095480033e+00,3.17597e-01,9.99999e-01,6.62404e-01,8.55701e-01,5.57856e-01,9.99363e-01
1.100957433e+00,3.13904e-01,9.99999e-01,8.19132e-01,6.75684e-01,5.64325e-01,9.98829e-01
1.106462220e+00,2.01997e-01,9.99999e-01,9.20613e-01,3.82211e-01,5.70738e-01,9.98015e-01
1.111994531e+00,7.71930e-02,9.99999e-01,9.69768e-01,1.37920e-01,5.77096e-01,9.94740e-01
1.117554504e+00,2.54688e-02,9.99999e-01,9.92509e-01,4.46953e-02,5.83397e-01,9.81143e-01
1.123142276e+00,6.59917e-02,9.99999e-01,9.99504e-01,1.17095e-01,5.89640e-01,9.55861e-01
1.128757988e+00,1.28764e-01,9.99999e-01,9.99999e-01,2.27696e-01,5.95824e-01,9.49117e-01
1.134401778e+00,5.74433e-02,9.99999e-01,9.99999e-01,9.97616e-02,6.01950e-01,9.56566e-01
1.140073787e+00,2.33825e-01,9.99999e-01,9.99999e-01,3.98460e-01,6.08015e-01,9.65142e-01
1.145774156e+00,9.74123e-02,9.99999e-01,9.99999e-01,1.63883e-01,6.14020e-01,9.68045e-01
1.151503026e+00,8.28323e-02,9.99999e-01,9.99999e-01,1.36047e-01,6.19964e-01,9.82070e-01
1.157260541e+00,1.05089e-01,9.99999e-01,9.99999e-01,1.68825e-01,6.25846e-01,9.94604e-01
1.163046844e+00,1.66898e-01,9.99999e-01,9.99999e-01,2.64623e-01,6.31667e-01,9.98467e-01
1.168862078e+00,2.46401e-01,9.99999e-01,9.99999e-01,3.86862e-01,6.37425e-01,9.99210e-01
1.174706389e+00,3.56992e-01,9.99999e-01,9.99999e-01,5.55675e-01,6.43120e-01,9.98953e-01
1.180579921e+00,4.51929e-01,9.99999e-01,9.99999e-01,6.97716e-01,6.48752e-01,9.98417e-01
1.186482820e+00,5.32391e-01,9.99999e-01,9.99983e-01,8.14987e-01,6.54320e-01,9.98375e-01
1.192415234e+00,5.62889e-01,9.99999e-01,9.61364e-01,8.87263e-01,6.59825e-01,9.98783e-01
1.198377311e+00,3.17083e-01,9.99999e-01,5.18888e-01,9.04262e-01,6.65267e-01,9.98850e-01
1.204369197e+00,3.00286e-30,9.99999e-01,4.73614e-30,9.09352e-01,6.70644e-01,9.98960e-01
1.210391043e+00,1.83655e-122,9.99999e-01,2.85994e-122,9.12974e-01,6.75957e-01,9.99367e-01
1.216442998e+00,5.70171e-106,9.99999e-01,8.78499e-106,9.25365e-01,6.81206e-01,9.99612e-01
1.222525213e+00,2.25576e-104,9.99999e-01,3.39102e-104,9.41349e-01,6.86392e-01,9.99758e-01
1.228637839e+00,1.63405e-80,9.99999e-01,2.43090e-80,9.58908e-01,6.91512e-01,9.99887e-01
