#,Wave/freq,Total,N2,CO2,H2O,Rayleigh,CIA
4.000000000e-01,2.28263e-11,9.99999e-01,9.99999e-01,9.99952e-01,2.28273e-11,9.99999e-01
4.020000000e-01,3.70559e-11,9.99999e-01,9.99999e-01,9.99970e-01,3.70570e-11,9.99999e-01
4.040100000e-01,5.95533e-11,9.99999e-01,9.99999e-01,9.99987e-01,5.95540e-11,9.99999e-01
4.060300500e-01,9.48158e-11,9.99999e-01,9.99999e-01,9.99996e-01,9.48160e-11,9.99999e-01
4.080602003e-01,1.49576e-10,9.99999e-01,9.99999e-01,9.99998e-01,1.49576e-10,9.99999e-01
4.101005013e-01,2.33848e-10,9.99999e-01,9.99999e-01,9.99999e-01,2.33848e-10,9.99999e-01
4.121510038e-01,3.62385e-10,9.99999e-01,9.99999e-01,9.99997e-01,3.62386e-10,9.99999e-01
4.142117588e-01,5.56731e-10,9.99999e-01,9.99999e-01,9.99986e-01,5.56738e-10,9.99999e-01
4.162828176e-01,8.48051e-10,9.99999e-01,9.99999e-01,9.99941e-01,8.48101e-10,9.99999e-01
4.183642317e-01,1.28120e-09,9.99999e-01,9.99999e-01,9.99964e-01,1.28125e-09,9.99999e-01
4.204560528e-01,1.91986e-09,9.99999e-01,9.99999e-01,9.99978e-01,1.91990e-09,9.99999e-01
4.225583331e-01,2.85399e-09,9.99999e-01,9.99999e-01,9.99991e-01,2.85401e-09,9.99999e-01
4.246711247e-01,4.20949e-09,9.99999e-01,9.99999e-01,9.99993e-01,4.20952e-09,9.99999e-01
4.267944804e-01,6.16127e-09,9.99999e-01,9.99999e-01,9.99990e-01,6.16133e-09,9.99999e-01
4.289284528e-01,8.95046e-09,9.99999e-01,9.99999e-01,9.99992e-01,8.95053e-09,9.99999e-01
4.310730950e-01,1.29068e-08,9.99999e-01,9.99999e-01,9.99996e-01,1.29068e-08,9.99999e-01
4.332284605e-01,1.84778e-08,9.99999e-01,9.99999e-01,9.99998e-01,1.84778e-08,9.99999e-01
4.353946028e-01,2.62665e-08,9.99999e-01,9.99999e-01,9.99999e-01,2.62666e-08,9.99999e-01
4.375715758e-01,3.70797e-08,9.99999e-01,9.99999e-01,9.99993e-01,3.70799e-08,9.99999e-01
4.397594337e-01,5.19870e-08,9.99999e-01,9.99999e-01,9.99948e-01,5.19896e-08,9.99999e-01
4.419582309e-01,7.23907e-08,9.99999e-01,9.99999e-01,9.99740e-01,7.24095e-08,9.99999e-01
4.441680220e-01,1.00171e-07,9.99999e-01,9.99999e-01,9.99795e-01,1.00192e-07,9.99999e-01
4.463888621e-01,1.37718e-07,9.99999e-01,9.99999e-01,9.99788e-01,1.37747e-07,9.99999e-01
4.486208064e-01,1.88168e-07,9.99999e-01,9.99999e-01,9.99867e-01,1.88193e-07,9.99999e-01
4.508639105e-01,2.55517e-07,9.99999e-01,9.99999e-01,9.99937e-01,2.55533e-07,9.99999e-01
4.531182300e-01,3.44870e-07,9.99999e-01,9.99999e-01,9.99975e-01,3.44878e-07,9.99999e-01
4.553838212e-01,4.62706e-07,9.99999e-01,9.99999e-01,9.99983e-01,4.62714e-07,9.99999e-01
4.576607403e-01,6.17213e-07,9.99999e-01,9.99999e-01,9.99991e-01,6.17218e-07,9.99999e-01
4.599490440e-01,8.18635e-07,9.99999e-01,9.99999e-01,9.99994e-01,8.18639e-07,9.99999e-01
4.622487892e-01,1.07975e-06,9.99999e-01,9.99999e-01,9.99998e-01,1.07975e-06,9.99999e-01
4.645600332e-01,1.41638e-06,9.99999e-01,9.99999e-01,9.99995e-01,1.41638e-06,9.99999e-01
4.668828333e-01,1.84792e-06,9.99999e-01,9.99999e-01,9.99937e-01,1.84803e-06,9.99999e-01
4.692172475e-01,2.39827e-06,9.99999e-01,9.99999e-01,9.99866e-01,2.39859e-06,9.99999e-01
4.715633337e-01,3.09691e-06,9.99999e-01,9.99999e-01,9.99912e-01,3.09718e-06,9.99999e-01
4.739211504e-01,3.97875e-06,9.99999e-01,9.99999e-01,9.99916e-01,3.97908e-06,9.99999e-01
4.762907561e-01,5.08665e-06,9.99999e-01,9.99999e-01,9.99956e-01,5.08687e-06,9.99999e-01
4.786722099e-01,6.47148e-06,9.99999e-01,9.99999e-01,9.99981e-01,6.47160e-06,9.99999e-01
4.810655710e-01,8.19416e-06,9.99999e-01,9.99999e-01,9.99994e-01,8.19420e-06,9.99999e-01
4.834708988e-01,1.03266e-05,9.99999e-01,9.99999e-01,9.99949e-01,1.03271e-05,9.99999e-01
4.858882533e-01,1.29546e-05,9.99999e-01,9.99999e-01,9.99905e-01,1.29558e-05,9.99999e-01
4.883176946e-01,1.61797e-05,9.99999e-01,9.99999e-01,9.99921e-01,1.61810e-05,9.99999e-01
4.907592831e-01,2.01191e-05,9.99999e-01,9.99999e-01,9.99928e-01,2.01205e-05,9.99999e-01
4.932130795e-01,2.49105e-05,9.99999e-01,9.99999e-01,9.99949e-01,2.49117e-05,9.99999e-01
4.956791449e-01,3.07132e-05,9.99999e-01,9.99999e-01,9.99972e-01,3.07140e-05,9.99999e-01
4.981575406e-01,3.77064e-05,9.99999e-01,9.99999e-01,9.99866e-01,3.77114e-05,9.99999e-01
5.006483283e-01,4.60996e-05,9.99999e-01,9.99999e-01,9.99655e-01,4.61156e-05,9.99997e-01
5.031515699e-01,5.60698e-05,9.99999e-01,9.99999e-01,9.98249e-01,5.61691e-05,9.99981e-01
5.056673278e-01,6.80839e-05,9.99999e-01,9.99999e-01,9.99074e-01,6.81484e-05,9.99978e-01
5.081956644e-01,8.22701e-05,9.99999e-01,9.99999e-01,9.98832e-01,8.23674e-05,9.99985e-01
5.107366428e-01,9.91027e-05,9.99999e-01,9.99999e-01,9.99211e-01,9.91812e-05,9.99996e-01
5.132903260e-01,1.18936e-04,9.99999e-01,9.99999e-01,9.99548e-01,1.18990e-04,9.99999e-01
5.158567776e-01,1.42215e-04,9.99999e-01,9.99999e-01,9.99809e-01,1.42242e-04,9.99999e-01
5.184360615e-01,1.69427e-04,9.99999e-01,9.99999e-01,9.99923e-01,1.69440e-04,9.99999e-01
5.210282418e-01,2.01136e-04,9.99999e-01,9.99999e-01,9.99971e-01,2.01141e-04,9.99999e-01
5.236333830e-01,2.37940e-04,9.99999e-01,9.99999e-01,9.99885e-01,2.37967e-04,9.99998e-01
5.262515499e-01,2.80581e-04,9.99999e-01,9.99999e-01,9.99928e-01,2.80601e-04,9.99998e-01
5.288828077e-01,3.29776e-04,9.99999e-01,9.99999e-01,9.99934e-01,3.29798e-04,9.99998e-01
5.315272217e-01,3.86364e-04,9.99999e-01,9.99999e-01,9.99941e-01,3.86386e-04,9.99999e-01
5.341848578e-01,4.51253e-04,9.99999e-01,9.99999e-01,9.99961e-01,4.51270e-04,9.99999e-01
5.368557821e-01,5.25366e-04,9.99999e-01,9.99999e-01,9.99866e-01,5.25436e-04,9.99999e-01
5.395400610e-01,6.09660e-04,9.99999e-01,9.99999e-01,9.99521e-01,6.09954e-04,9.99995e-01
5.422377613e-01,7.05539e-04,9.99999e-01,9.99999e-01,9.99378e-01,7.05985e-04,9.99988e-01
5.449489501e-01,8.14300e-04,9.99999e-01,9.99999e-01,9.99423e-01,8.14779e-04,9.99987e-01
5.476736949e-01,9.37194e-04,9.99999e-01,9.99999e-01,9.99487e-01,9.37679e-04,9.99993e-01
5.504120634e-01,1.07573e-03,9.99999e-01,9.99999e-01,9.99628e-01,1.07613e-03,9.99997e-01
5.531641237e-01,1.23143e-03,9.99999e-01,9.99999e-01,9.99812e-01,1.23166e-03,9.99999e-01
5.559299443e-01,1.40580e-03,9.99999e-01,9.99999e-01,9.99909e-01,1.40592e-03,9.99999e-01
5.587095940e-01,1.60056e-03,9.99999e-01,9.99999e-01,9.99943e-01,1.60065e-03,9.99999e-01
5.615031420e-01,1.81757e-03,9.99999e-01,9.99999e-01,9.99936e-01,1.81769e-03,9.99999e-01
5.643106577e-01,2.05882e-03,9.99999e-01,9.99999e-01,9.99928e-01,2.05897e-03,9.99998e-01
5.671322110e-01,2.32453e-03,9.99999e-01,9.99999e-01,9.99139e-01,2.32655e-03,9.99991e-01
5.699678720e-01,2.62008e-03,9.99999e-01,9.99999e-01,9.99075e-01,2.62256e-03,9.99975e-01
5.728177114e-01,2.94637e-03,9.99999e-01,9.99999e-01,9.99040e-01,2.94926e-03,9.99979e-01
5.756818000e-01,3.30601e-03,9.99999e-01,9.99999e-01,9.99118e-01,3.30896e-03,9.99987e-01
5.785602090e-01,3.70125e-03,9.99999e-01,9.99999e-01,9.99231e-01,3.70411e-03,9.99995e-01
5.814530100e-01,4.13403e-03,9.99999e-01,9.99999e-01,9.99228e-01,4.13722e-03,9.99997e-01
5.843602750e-01,4.60664e-03,9.99999e-01,9.99999e-01,9.99083e-01,4.61089e-03,9.99994e-01
5.872820764e-01,5.08713e-03,9.99999e-01,9.99999e-01,9.92124e-01,5.12779e-03,9.99943e-01
5.902184868e-01,5.63536e-03,9.99999e-01,9.99999e-01,9.90426e-01,5.69069e-03,9.99847e-01
5.931695792e-01,6.25888e-03,9.99999e-01,9.99999e-01,9.93239e-01,6.30240e-03,9.99853e-01
5.961354271e-01,6.91356e-03,9.99999e-01,9.99999e-01,9.92582e-01,6.96581e-03,9.99915e-01
5.991161043e-01,7.64202e-03,9.99999e-01,9.99999e-01,9.94583e-01,7.68384e-03,9.99973e-01
6.021116848e-01,8.43341e-03,9.99999e-01,9.99999e-01,9.96921e-01,8.45947e-03,9.99996e-01
6.051222432e-01,9.28124e-03,9.99999e-01,9.99999e-01,9.98441e-01,9.29572e-03,9.99999e-01
6.081478544e-01,1.01888e-02,9.99999e-01,9.99999e-01,9.99327e-01,1.01956e-02,9.99999e-01
6.111885937e-01,1.11591e-02,9.99999e-01,9.99999e-01,9.99714e-01,1.11623e-02,9.99999e-01
6.142445367e-01,1.21972e-02,9.99999e-01,9.99999e-01,9.99872e-01,1.21987e-02,9.99999e-01
6.173157594e-01,1.33071e-02,9.99999e-01,9.99999e-01,9.99929e-01,1.33081e-02,9.99999e-01
6.204023382e-01,1.44925e-02,9.99999e-01,9.99999e-01,9.99940e-01,1.44933e-02,9.99999e-01
6.235043498e-01,1.57535e-02,9.99999e-01,9.99999e-01,9.99740e-01,1.57576e-02,9.99998e-01
6.266218716e-01,1.70801e-02,9.99999e-01,9.99999e-01,9.98619e-01,1.71039e-02,9.99989e-01
6.297549810e-01,1.85254e-02,9.99999e-01,9.99999e-01,9.99493e-01,1.85351e-02,9.99980e-01
6.329037559e-01,2.00338e-02,9.99999e-01,9.99999e-01,9.98998e-01,2.00542e-02,9.99983e-01
6.360682746e-01,2.16455e-02,9.99999e-01,9.99999e-01,9.99148e-01,2.16642e-02,9.99990e-01
6.392486160e-01,2.33417e-02,9.99999e-01,9.99999e-01,9.98895e-01,2.33676e-02,9.99995e-01
6.424448591e-01,2.51302e-02,9.99999e-01,9.99999e-01,9.98526e-01,2.51674e-02,9.99993e-01
6.456570834e-01,2.68804e-02,9.99999e-01,9.99999e-01,9.93173e-01,2.70661e-02,9.99961e-01
6.488853688e-01,2.89173e-02,9.99999e-01,9.99999e-01,9.94979e-01,2.90663e-02,9.99893e-01
6.521297956e-01,3.10081e-02,9.99999e-01,9.99999e-01,9.94882e-01,3.11703e-02,9.99910e-01
6.553904446e-01,3.32093e-02,9.99999e-01,9.99999e-01,9.94935e-01,3.33806e-02,9.99932e-01
6.586673968e-01,3.55426e-02,9.99999e-01,9.99999e-01,9.95635e-01,3.56992e-02,9.99977e-01
6.619607338e-01,3.80318e-02,9.99999e-01,9.99999e-01,9.97474e-01,3.81283e-02,9.99994e-01
6.652705375e-01,4.06101e-02,9.99999e-01,9.99999e-01,9.98536e-01,4.06697e-02,9.99997e-01
6.685968902e-01,4.32958e-02,9.99999e-01,9.99999e-01,9.99319e-01,4.33253e-02,9.99999e-01
6.719398746e-01,4.60821e-02,9.99999e-01,9.99999e-01,9.99684e-01,4.60966e-02,9.99999e-01
6.752995740e-01,4.89769e-02,9.99999e-01,9.99999e-01,9.99829e-01,4.89852e-02,9.99999e-01
6.786760719e-01,5.19796e-02,9.99999e-01,9.99999e-01,9.99754e-01,5.19923e-02,9.99999e-01
6.820694522e-01,5.50959e-02,9.99999e-01,9.99999e-01,9.99578e-01,5.51192e-02,9.99997e-01
6.854797995e-01,5.83348e-02,9.99999e-01,9.99999e-01,9.99457e-01,5.83667e-02,9.99994e-01
6.889071985e-01,6.16543e-02,9.99999e-01,9.99999e-01,9.98693e-01,6.17357e-02,9.99987e-01
6.923517345e-01,6.38363e-02,9.99999e-01,9.99999e-01,9.78782e-01,6.52268e-02,9.99896e-01
6.958134932e-01,6.80564e-02,9.99999e-01,9.99999e-01,9.88837e-01,6.88405e-02,9.99767e-01
6.992925606e-01,7.17974e-02,9.99999e-01,9.99999e-01,9.89457e-01,7.25771e-02,9.99795e-01
7.027890234e-01,7.54282e-02,9.99999e-01,9.99999e-01,9.86960e-01,7.64367e-02,9.99842e-01
7.063029686e-01,7.95306e-02,9.99999e-01,9.99999e-01,9.89027e-01,8.04191e-02,9.99921e-01
7.098344834e-01,8.36303e-02,9.99999e-01,9.99999e-01,9.89469e-01,8.45242e-02,9.99953e-01
7.133836558e-01,8.75065e-02,9.99999e-01,9.99999e-01,9.86061e-01,8.87515e-02,9.99907e-01
7.169505741e-01,8.31298e-02,9.99999e-01,9.99999e-01,8.93547e-01,9.31005e-02,9.99278e-01
7.205353270e-01,9.21827e-02,9.99999e-01,9.99999e-01,9.45984e-01,9.75703e-02,9.98727e-01
7.241380036e-01,9.51266e-02,9.99999e-01,9.99999e-01,9.32175e-01,1.02160e-01,9.98900e-01
7.277586936e-01,1.00215e-01,9.99999e-01,9.99999e-01,9.38579e-01,1.06869e-01,9.99101e-01
7.313974871e-01,1.04342e-01,9.99999e-01,9.99999e-01,9.34565e-01,1.11695e-01,9.99578e-01
7.350544745e-01,1.12388e-01,9.99999e-01,9.99999e-01,9.63710e-01,1.16637e-01,9.99853e-01
7.387297469e-01,1.18418e-01,9.99999e-01,9.99999e-01,9.73142e-01,1.21694e-01,9.99932e-01
7.424233956e-01,1.25182e-01,9.99999e-01,9.99999e-01,9.86757e-01,1.26864e-01,9.99986e-01
7.461355126e-01,1.31081e-01,9.99999e-01,9.99999e-01,9.91958e-01,1.32144e-01,9.99997e-01
7.498661902e-01,1.37018e-01,9.99999e-01,9.99999e-01,9.96245e-01,1.37534e-01,9.99998e-01
7.536155211e-01,1.42767e-01,9.99999e-01,9.99999e-01,9.98158e-01,1.43030e-01,9.99999e-01
7.573835987e-01,1.48491e-01,9.99999e-01,9.99999e-01,9.99051e-01,1.48632e-01,9.99999e-01
7.611705167e-01,1.54244e-01,9.99999e-01,9.99999e-01,9.99410e-01,1.54335e-01,9.99999e-01
7.649763693e-01,1.60079e-01,9.99999e-01,9.99999e-01,9.99630e-01,1.60138e-01,9.99999e-01
7.688012511e-01,1.65995e-01,9.99999e-01,9.99999e-01,9.99742e-01,1.66038e-01,9.99999e-01
7.726452574e-01,1.71996e-01,9.99999e-01,9.99999e-01,9.99788e-01,1.72032e-01,9.99999e-01
7.765084837e-01,1.78065e-01,9.99999e-01,9.99999e-01,9.99700e-01,1.78118e-01,9.99999e-01
7.803910261e-01,1.71551e-01,9.99999e-01,9.31988e-01,9.98706e-01,1.84293e-01,9.99998e-01
7.842929812e-01,1.35206e-01,9.99999e-01,7.12446e-01,9.95491e-01,1.90553e-01,9.99991e-01
7.882144461e-01,1.36322e-01,9.99999e-01,6.98362e-01,9.90701e-01,1.96897e-01,9.99942e-01
7.921555184e-01,1.62877e-01,9.99999e-01,8.05088e-01,9.94883e-01,2.03319e-01,9.99889e-01
7.961162960e-01,1.79602e-01,9.99999e-01,8.63682e-01,9.91008e-01,2.09818e-01,9.99893e-01
8.000968774e-01,1.97771e-01,9.99999e-01,9.23603e-01,9.89595e-01,2.16391e-01,9.99887e-01
8.040973618e-01,2.11781e-01,9.99999e-01,9.59567e-01,9.89599e-01,2.23033e-01,9.99910e-01
8.081178486e-01,2.20198e-01,9.99999e-01,9.81250e-01,9.76776e-01,2.29742e-01,9.99915e-01
8.121584379e-01,2.13191e-01,9.99999e-01,9.94155e-01,9.06862e-01,2.36515e-01,9.99670e-01
8.162192301e-01,2.16079e-01,9.99999e-01,9.98706e-01,8.90150e-01,2.43347e-01,9.98761e-01
8.203003262e-01,2.36010e-01,9.99999e-01,9.99979e-01,9.44535e-01,2.50236e-01,9.98550e-01
8.244018279e-01,2.37108e-01,9.99999e-01,9.99999e-01,9.23026e-01,2.57178e-01,9.98846e-01
8.285238370e-01,2.46227e-01,9.99999e-01,9.99999e-01,9.32922e-01,2.64170e-01,9.99093e-01
8.326664562e-01,2.52719e-01,9.99999e-01,9.99999e-01,9.32175e-01,2.71208e-01,9.99624e-01
8.368297885e-01,2.64611e-01,9.99999e-01,9.99999e-01,9.50931e-01,2.78289e-01,9.99913e-01
8.410139374e-01,2.76986e-01,9.99999e-01,9.99999e-01,9.70534e-01,2.85409e-01,9.99949e-01
8.452190071e-01,2.88296e-01,9.99999e-01,9.99999e-01,9.85433e-01,2.92566e-01,9.99969e-01
8.494451021e-01,2.97211e-01,9.99999e-01,9.99999e-01,9.91534e-01,2.99756e-01,9.99975e-01
8.536923276e-01,3.05430e-01,9.99999e-01,9.99999e-01,9.94980e-01,3.06975e-01,9.99984e-01
8.579607893e-01,3.13248e-01,9.99999e-01,9.99999e-01,9.96909e-01,3.14220e-01,9.99996e-01
8.622505932e-01,3.20856e-01,9.99999e-01,9.99999e-01,9.98034e-01,3.21488e-01,9.99998e-01
8.665618462e-01,2.90917e-01,9.99999e-01,8.85863e-01,9.98785e-01,3.28775e-01,9.99999e-01
8.708946554e-01,1.44948e-01,9.99999e-01,4.31851e-01,9.98610e-01,3.36079e-01,9.99998e-01
8.752491287e-01,1.71405e-01,9.99999e-01,5.00023e-01,9.98140e-01,3.43396e-01,9.99997e-01
8.796253743e-01,2.37372e-01,9.99999e-01,6.78445e-01,9.97428e-01,3.50723e-01,9.99993e-01
8.840235012e-01,2.91278e-01,9.99999e-01,8.15824e-01,9.97062e-01,3.58058e-01,9.99981e-01
8.884436187e-01,3.33567e-01,9.99999e-01,9.22503e-01,9.89403e-01,3.65396e-01,9.99948e-01
8.928858368e-01,3.22559e-01,9.99999e-01,9.67832e-01,8.93832e-01,3.72735e-01,9.99705e-01
8.973502660e-01,3.08740e-01,9.99999e-01,9.92073e-01,8.19748e-01,3.80072e-01,9.98493e-01
9.018370173e-01,3.48833e-01,9.99999e-01,9.99122e-01,9.03309e-01,3.87404e-01,9.97633e-01
9.063462024e-01,3.52998e-01,9.99999e-01,9.78210e-01,9.14684e-01,3.94729e-01,9.97920e-01
9.108779334e-01,3.31965e-01,9.99999e-01,9.49801e-01,8.69999e-01,4.02044e-01,9.97839e-01
9.154323231e-01,3.44678e-01,9.99999e-01,9.87943e-01,8.53329e-01,4.09345e-01,9.98213e-01
9.200094847e-01,3.17261e-01,9.99999e-01,8.51777e-01,8.83285e-01,4.16632e-01,9.98999e-01
9.246095321e-01,2.75083e-01,9.99999e-01,7.78029e-01,8.27874e-01,4.23900e-01,9.98847e-01
9.292325798e-01,1.07891e-01,9.99999e-01,8.23855e-01,2.94472e-01,4.31147e-01,9.95514e-01
9.338787427e-01,7.60088e-02,9.99999e-01,8.27496e-01,2.06359e-01,4.38372e-01,9.81588e-01
9.385481364e-01,2.02626e-01,9.99999e-01,8.69469e-01,5.26446e-01,4.45571e-01,9.78140e-01
9.432408771e-01,1.73134e-01,9.99999e-01,9.17583e-01,4.21030e-01,4.52743e-01,9.81112e-01
9.479570815e-01,1.32603e-01,9.99999e-01,9.56844e-01,3.04723e-01,4.59885e-01,9.84600e-01
9.526968669e-01,1.81944e-01,9.99999e-01,9.78955e-01,4.00426e-01,4.66996e-01,9.90578e-01
9.574603512e-01,1.96843e-01,9.99999e-01,9.90940e-01,4.20512e-01,4.74073e-01,9.95203e-01
9.622476530e-01,2.34234e-01,9.99999e-01,9.97164e-01,4.89692e-01,4.81114e-01,9.96680e-01
9.670588912e-01,3.21715e-01,9.99999e-01,9.99148e-01,6.61094e-01,4.88117e-01,9.97728e-01
9.718941857e-01,3.80059e-01,9.99999e-01,9.99939e-01,7.68995e-01,4.95081e-01,9.98327e-01
9.767536566e-01,4.03060e-01,9.99999e-01,9.99999e-01,8.03929e-01,5.02004e-01,9.98721e-01
9.816374249e-01,4.32438e-01,9.99999e-01,9.99999e-01,8.50152e-01,5.08884e-01,9.99557e-01
9.865456120e-01,4.65849e-01,9.99999e-01,9.99999e-01,9.03380e-01,5.15720e-01,9.99907e-01
9.914783401e-01,4.90660e-01,9.99999e-01,9.99999e-01,9.39066e-01,5.22510e-01,9.99973e-01
9.964357318e-01,5.11430e-01,9.99999e-01,9.99999e-01,9.66339e-01,5.29253e-01,9.99984e-01
1.001417910e+00,5.25045e-01,9.99999e-01,9.99999e-01,9.79682e-01,5.35946e-01,9.99976e-01
1.006425000e+00,5.36265e-01,9.99999e-01,9.99999e-01,9.88375e-01,5.42590e-01,9.99966e-01
1.011457125e+00,5.45192e-01,9.99999e-01,9.99999e-01,9.92763e-01,5.49182e-01,9.99969e-01
1.016514411e+00,5.52979e-01,9.99999e-01,9.99999e-01,9.95084e-01,5.55722e-01,9.99978e-01
1.021596983e+00,5.59931e-01,9.99999e-01,9.99886e-01,9.96082e-01,5.62209e-01,9.99978e-01
1.026704968e+00,5.62021e-01,9.99999e-01,9.91393e-01,9.96943e-01,5.68640e-01,9.99985e-01
1.031838492e+00,5.29882e-01,9.99999e-01,9.23468e-01,9.97776e-01,5.75016e-01,9.99995e-01
1.036997685e+00,4.07137e-02,9.99999e-01,7.01052e-02,9.98679e-01,5.81336e-01,9.99998e-01
1.042182673e+00,6.79497e-03,9.99999e-01,1.15786e-02,9.98428e-01,5.87598e-01,9.99999e-01
1.047393587e+00,1.43293e-02,9.99999e-01,2.41742e-02,9.97914e-01,5.93802e-01,9.99999e-01
1.052630555e+00,1.13713e-05,9.99999e-01,1.89893e-05,9.97140e-01,5.99947e-01,9.99998e-01
1.057893707e+00,4.08995e-05,9.99999e-01,6.76660e-05,9.95232e-01,6.06032e-01,9.99997e-01
1.063183176e+00,4.78575e-04,9.99999e-01,7.85679e-04,9.92163e-01,6.12057e-01,9.99995e-01
1.068499092e+00,3.18452e-03,9.99999e-01,5.20191e-03,9.86905e-01,6.18021e-01,9.99990e-01
1.073841587e+00,2.13157e-02,9.99999e-01,3.45661e-02,9.84709e-01,6.23923e-01,9.99980e-01
1.079210795e+00,7.41596e-02,9.99999e-01,1.19698e-01,9.80416e-01,6.29764e-01,9.99946e-01
1.084606849e+00,1.87511e-01,9.99999e-01,3.03166e-01,9.70531e-01,6.35543e-01,9.99872e-01
1.090029883e+00,3.30170e-01,9.99999e-01,5.36165e-01,9.58061e-01,6.41258e-01,9.99737e-01
1.095480033e+00,4.24011e-01,9.99999e-01,7.34870e-01,8.89794e-01,6.46911e-01,9.99524e-01
1.100957433e+00,4.19744e-01,9.99999e-01,8.61640e-01,7.44627e-01,6.52501e-01,9.99126e-01
1.106462220e+00,2.98541e-01,9.99999e-01,9.40190e-01,4.81048e-01,6.58027e-01,9.98518e-01
1.111994531e+00,1.42565e-01,9.99999e-01,9.77383e-01,2.19998e-01,6.63489e-01,9.96071e-01
1.117554504e+00,5.97495e-02,9.99999e-01,9.94423e-01,9.09410e-02,6.68887e-01,9.85891e-01
1.123142276e+00,1.21719e-01,9.99999e-01,9.99632e-01,1.86733e-01,6.74221e-01,9.66867e-01
1.128757988e+00,2.10275e-01,9.99999e-01,9.99999e-01,3.21759e-01,6.79491e-01,9.61771e-01
1.134401778e+00,9.71475e-02,9.99999e-01,9.99999e-01,1.46665e-01,6.84698e-01,9.67399e-01
1.140073787e+00,3.34276e-01,9.99999e-01,9.99999e-01,4.97573e-01,6.89840e-01,9.73866e-01
1.145774156e+00,1.67706e-01,9.99999e-01,9.99999e-01,2.47254e-01,6.94917e-01,9.76051e-01
1.151503026e+00,1.47881e-01,9.99999e-01,9.99999e-01,2.14152e-01,6.99931e-01,9.86587e-01
1.157260541e+00,1.81871e-01,9.99999e-01,9.99999e-01,2.59061e-01,7.04881e-01,9.95970e-01
1.163046844e+00,2.59090e-01,9.99999e-01,9.99999e-01,3.65453e-01,7.09767e-01,9.98855e-01
1.168862078e+00,3.50047e-01,9.99999e-01,9.99999e-01,4.90146e-01,7.14590e-01,9.99410e-01
1.174706389e+00,4.62588e-01,9.99999e-01,9.99999e-01,6.43567e-01,7.19349e-01,9.99218e-01
1.180579921e+00,5.52399e-01,9.99999e-01,9.99999e-01,7.63837e-01,7.24045e-01,9.98818e-01
1.186482820e+00,6.24648e-01,9.99999e-01,9.99985e-01,8.58285e-01,7.28677e-01,9.98787e-01
1.192415234e+00,6.50596e-01,9.99999e-01,9.70280e-01,9.14580e-01,7.33247e-01,9.99091e-01
1.198377311e+00,3.69304e-01,9.99999e-01,5.33413e-01,9.27570e-01,7.37755e-01,9.99142e-01
1.204369197e+00,3.79196e-23,9.99999e-01,5.32771e-23,9.31423e-01,7.42201e-01,9.99223e-01
1.210391043e+00,5.69979e-92,9.99999e-01,7.93239e-92,9.34244e-01,7.46584e-01,9.99527e-01
1.216442998e+00,1.15934e-79,9.99999e-01,1.60069e-79,9.43743e-01,7.50906e-01,9.99710e-01
1.222525213e+00,1.80570e-78,9.99999e-01,2.44771e-78,9.55899e-01,7.55167e-01,9.99819e-01
1.228637839e+00,1.25140e-60,9.99999e-01,1.68331e-60,9.69170e-01,7.59368e-01,9.99915e-01
