#,Wave/freq,Total,N2,CO2,H2O,Rayleigh,CIA
4.000000000e-01,3.96288e-04,9.99999e-01,9.99999e-01,9.99984e-01,3.96294e-04,9.99999e-01
4.020000000e-01,4.62679e-04,9.99999e-01,9.99999e-01,9.99990e-01,4.62683e-04,9.99999e-01
4.040100000e-01,5.38457e-04,9.99999e-01,9.99999e-01,9.99995e-01,5.38459e-04,9.99999e-01
4.060300500e-01,6.24769e-04,9.99999e-01,9.99999e-01,9.99998e-01,6.24770e-04,9.99999e-01
4.080602003e-01,7.22791e-04,9.99999e-01,9.99999e-01,9.99999e-01,7.22791e-04,9.99999e-01
4.101005013e-01,8.33787e-04,9.99999e-01,9.99999e-01,9.99999e-01,8.33787e-04,9.99999e-01
4.121510038e-01,9.59117e-04,9.99999e-01,9.99999e-01,9.99998e-01,9.59117e-04,9.99999e-01
4.142117588e-01,1.10023e-03,9.99999e-01,9.99999e-01,9.99995e-01,1.10024e-03,9.99999e-01
4.162828176e-01,1.25869e-03,9.99999e-01,9.99999e-01,9.99980e-01,1.25871e-03,9.99999e-01
4.183642317e-01,1.43616e-03,9.99999e-01,9.99999e-01,9.99988e-01,1.43618e-03,9.99999e-01
4.204560528e-01,1.63440e-03,9.99999e-01,9.99999e-01,9.99992e-01,1.63441e-03,9.99999e-01
4.225583331e-01,1.85525e-03,9.99999e-01,9.99999e-01,9.99996e-01,1.85526e-03,9.99999e-01
4.246711247e-01,2.10068e-03,9.99999e-01,9.99999e-01,9.99997e-01,2.10068e-03,9.99999e-01
4.267944804e-01,2.37273e-03,9.99999e-01,9.99999e-01,9.99996e-01,2.37274e-03,9.99999e-01
4.289284528e-01,2.67359e-03,9.99999e-01,9.99999e-01,9.99997e-01,2.67359e-03,9.99999e-01
4.310730950e-01,3.00549e-03,9.99999e-01,9.99999e-01,9.99998e-01,3.00550e-03,9.99999e-01
4.332284605e-01,3.37081e-03,9.99999e-01,9.99999e-01,9.99999e-01,3.37081e-03,9.99999e-01
4.353946028e-01,3.77196e-03,9.99999e-01,9.99999e-01,9.99999e-01,3.77196e-03,9.99999e-01
4.375715758e-01,4.21148e-03,9.99999e-01,9.99999e-01,9.99997e-01,4.21149e-03,9.99999e-01
4.397594337e-01,4.69194e-03,9.99999e-01,9.99999e-01,9.99983e-01,4.69201e-03,9.99999e-01
4.419582309e-01,5.21578e-03,9.99999e-01,9.99999e-01,9.99916e-01,5.21622e-03,9.99999e-01
4.441680220e-01,5.78649e-03,9.99999e-01,9.99999e-01,9.99934e-01,5.78687e-03,9.99999e-01
4.463888621e-01,6.40636e-03,9.99999e-01,9.99999e-01,9.99931e-01,6.40679e-03,9.99999e-01
4.486208064e-01,7.07859e-03,9.99999e-01,9.99999e-01,9.99957e-01,7.07889e-03,9.99999e-01
4.508639105e-01,7.80594e-03,9.99999e-01,9.99999e-01,9.99979e-01,7.80609e-03,9.99999e-01
4.531182300e-01,8.59132e-03,9.99999e-01,9.99999e-01,9.99991e-01,8.59139e-03,9.99999e-01
4.553838212e-01,9.43775e-03,9.99999e-01,9.99999e-01,9.99994e-01,9.43780e-03,9.99999e-01
4.576607403e-01,1.03483e-02,9.99999e-01,9.99999e-01,9.99997e-01,1.03484e-02,9.99999e-01
4.599490440e-01,1.13262e-02,9.99999e-01,9.99999e-01,9.99997e-01,1.13262e-02,9.99999e-01
4.622487892e-01,1.23743e-02,9.99999e-01,9.99999e-01,9.99999e-01,1.23743e-02,9.99999e-01
4.645600332e-01,1.34957e-02,9.99999e-01,9.99999e-01,9.99998e-01,1.34958e-02,9.99999e-01
4.668828333e-01,1.46934e-02,9.99999e-01,9.99999e-01,9.99979e-01,1.46937e-02,9.99999e-01
4.692172475e-01,1.59704e-02,9.99999e-01,9.99999e-01,9.99957e-01,1.59711e-02,9.99999e-01
4.715633337e-01,1.73305e-02,9.99999e-01,9.99999e-01,9.99971e-01,1.73310e-02,9.99999e-01
4.739211504e-01,1.87758e-02,9.99999e-01,9.99999e-01,9.99973e-01,1.87763e-02,9.99999e-01
4.762907561e-01,2.03098e-02,9.99999e-01,9.99999e-01,9.99985e-01,2.03100e-02,9.99999e-01
4.786722099e-01,2.19349e-02,9.99999e-01,9.99999e-01,9.99993e-01,2.19350e-02,9.99999e-01
4.810655710e-01,2.36539e-02,9.99999e-01,9.99999e-01,9.99997e-01,2.36540e-02,9.99999e-01
4.834708988e-01,2.54693e-02,9.99999e-01,9.99999e-01,9.99983e-01,2.54697e-02,9.99999e-01
4.858882533e-01,2.73839e-02,9.99999e-01,9.99999e-01,9.99969e-01,2.73847e-02,9.99999e-01
4.883176946e-01,2.94009e-02,9.99999e-01,9.99999e-01,9.99974e-01,2.94017e-02,9.99999e-01
4.907592831e-01,3.15221e-02,9.99999e-01,9.99999e-01,9.99976e-01,3.15228e-02,9.99999e-01
4.932130795e-01,3.37500e-02,9.99999e-01,9.99999e-01,9.99983e-01,3.37506e-02,9.99999e-01
4.956791449e-01,3.60867e-02,9.99999e-01,9.99999e-01,9.99990e-01,3.60870e-02,9.99999e-01
4.981575406e-01,3.85326e-02,9.99999e-01,9.99999e-01,9.99956e-01,3.85343e-02,9.99999e-01
5.006483283e-01,4.10896e-02,9.99999e-01,9.99999e-01,9.99888e-01,4.10942e-02,9.99998e-01
5.031515699e-01,4.37437e-02,9.99999e-01,9.99999e-01,9.99438e-01,4.37685e-02,9.99993e-01
5.056673278e-01,4.65447e-02,9.99999e-01,9.99999e-01,9.99703e-01,4.65588e-02,9.99992e-01
5.081956644e-01,4.94479e-02,9.99999e-01,9.99999e-01,9.99626e-01,4.94666e-02,9.99995e-01
5.107366428e-01,5.24799e-02,9.99999e-01,9.99999e-01,9.99747e-01,5.24931e-02,9.99998e-01
5.132903260e-01,5.56316e-02,9.99999e-01,9.99999e-01,9.99855e-01,5.56396e-02,9.99999e-01
5.158567776e-01,5.89032e-02,9.99999e-01,9.99999e-01,9.99938e-01,5.89068e-02,9.99999e-01
5.184360615e-01,6.22941e-02,9.99999e-01,9.99999e-01,9.99975e-01,6.22957e-02,9.99999e-01
5.210282418e-01,6.58061e-02,9.99999e-01,9.99999e-01,9.99990e-01,6.58067e-02,9.99999e-01
5.236333830e-01,6.94379e-02,9.99999e-01,9.99999e-01,9.99963e-01,6.94404e-02,9.99999e-01
5.262515499e-01,7.31953e-02,9.99999e-01,9.99999e-01,9.99976e-01,7.31970e-02,9.99999e-01
5.288828077e-01,7.70749e-02,9.99999e-01,9.99999e-01,9.99978e-01,7.70766e-02,9.99999e-01
5.315272217e-01,8.10775e-02,9.99999e-01,9.99999e-01,9.99981e-01,8.10790e-02,9.99999e-01
5.341848578e-01,8.52030e-02,9.99999e-01,9.99999e-01,9.99987e-01,8.52040e-02,9.99999e-01
5.368557821e-01,8.94474e-02,9.99999e-01,9.99999e-01,9.99956e-01,8.94512e-02,9.99999e-01
5.395400610e-01,9.38054e-02,9.99999e-01,9.99999e-01,9.99845e-01,9.38199e-02,9.99998e-01
5.422377613e-01,9.82895e-02,9.99999e-01,9.99999e-01,9.99801e-01,9.83093e-02,9.99995e-01
5.449489501e-01,1.02899e-01,9.99999e-01,9.99999e-01,9.99814e-01,1.02918e-01,9.99995e-01
5.476736949e-01,1.07629e-01,9.99999e-01,9.99999e-01,9.99836e-01,1.07646e-01,9.99997e-01
5.504120634e-01,1.12478e-01,9.99999e-01,9.99999e-01,9.99881e-01,1.12491e-01,9.99999e-01
5.531641237e-01,1.17445e-01,9.99999e-01,9.99999e-01,9.99939e-01,1.17453e-01,9.99999e-01
5.559299443e-01,1.22524e-01,9.99999e-01,9.99999e-01,9.99970e-01,1.22528e-01,9.99999e-01
5.587095940e-01,1.27713e-01,9.99999e-01,9.99999e-01,9.99981e-01,1.27716e-01,9.99999e-01
5.615031420e-01,1.33012e-01,9.99999e-01,9.99999e-01,9.99979e-01,1.33014e-01,9.99999e-01
5.643106577e-01,1.38418e-01,9.99999e-01,9.99999e-01,9.99976e-01,1.38421e-01,9.99999e-01
5.671322110e-01,1.43895e-01,9.99999e-01,9.99999e-01,9.99721e-01,1.43935e-01,9.99997e-01
5.699678720e-01,1.49508e-01,9.99999e-01,9.99999e-01,9.99705e-01,1.49553e-01,9.99991e-01
5.728177114e-01,1.55224e-01,9.99999e-01,9.99999e-01,9.99692e-01,1.55273e-01,9.99993e-01
5.756818000e-01,1.61046e-01,9.99999e-01,9.99999e-01,9.99717e-01,1.61092e-01,9.99995e-01
5.785602090e-01,1.66966e-01,9.99999e-01,9.99999e-01,9.99754e-01,1.67007e-01,9.99998e-01
5.814530100e-01,1.72974e-01,9.99999e-01,9.99999e-01,9.99752e-01,1.73017e-01,9.99998e-01
5.843602750e-01,1.79064e-01,9.99999e-01,9.99999e-01,9.99705e-01,1.79117e-01,9.99997e-01
5.872820764e-01,1.84833e-01,9.99999e-01,9.99999e-01,9.97462e-01,1.85306e-01,9.99981e-01
5.902184868e-01,1.90983e-01,9.99999e-01,9.99999e-01,9.96931e-01,1.91580e-01,9.99951e-01
5.931695792e-01,1.97498e-01,9.99999e-01,9.99999e-01,9.97830e-01,1.97937e-01,9.99952e-01
5.961354271e-01,2.03881e-01,9.99999e-01,9.99999e-01,9.97622e-01,2.04372e-01,9.99972e-01
5.991161043e-01,2.10516e-01,9.99999e-01,9.99999e-01,9.98266e-01,2.10883e-01,9.99991e-01
6.021116848e-01,2.17253e-01,9.99999e-01,9.99999e-01,9.99016e-01,2.17467e-01,9.99998e-01
6.051222432e-01,2.24009e-01,9.99999e-01,9.99999e-01,9.99502e-01,2.24121e-01,9.99999e-01
6.081478544e-01,2.30791e-01,9.99999e-01,9.99999e-01,9.99784e-01,2.30840e-01,9.99999e-01
6.111885937e-01,2.37601e-01,9.99999e-01,9.99999e-01,9.99908e-01,2.37623e-01,9.99999e-01
6.142445367e-01,2.44455e-01,9.99999e-01,9.99999e-01,9.99958e-01,2.44465e-01,9.99999e-01
6.173157594e-01,2.51357e-01,9.99999e-01,9.99999e-01,9.99977e-01,2.51362e-01,9.99999e-01
6.204023382e-01,2.58308e-01,9.99999e-01,9.99999e-01,9.99980e-01,2.58313e-01,9.99999e-01
6.235043498e-01,2.65290e-01,9.99999e-01,9.99999e-01,9.99915e-01,2.65312e-01,9.99999e-01
6.266218716e-01,2.72236e-01,9.99999e-01,9.99999e-01,9.99557e-01,2.72358e-01,9.99996e-01
6.297549810e-01,2.79398e-01,9.99999e-01,9.99999e-01,9.99837e-01,2.79445e-01,9.99993e-01
6.329037559e-01,2.86479e-01,9.99999e-01,9.99999e-01,9.99679e-01,2.86572e-01,9.99994e-01
6.360682746e-01,2.93653e-01,9.99999e-01,9.99999e-01,9.99726e-01,2.93734e-01,9.99996e-01
6.392486160e-01,3.00822e-01,9.99999e-01,9.99999e-01,9.99646e-01,3.00929e-01,9.99998e-01
6.424448591e-01,3.08006e-01,9.99999e-01,9.99999e-01,9.99526e-01,3.08152e-01,9.99997e-01
6.456570834e-01,3.14705e-01,9.99999e-01,9.99999e-01,9.97801e-01,3.15402e-01,9.99987e-01
6.488853688e-01,3.22144e-01,9.99999e-01,9.99999e-01,9.98392e-01,3.22673e-01,9.99965e-01
6.521297956e-01,3.29414e-01,9.99999e-01,9.99999e-01,9.98361e-01,3.29963e-01,9.99971e-01
6.553904446e-01,3.36712e-01,9.99999e-01,9.99999e-01,9.98368e-01,3.37270e-01,9.99978e-01
6.586673968e-01,3.44105e-01,9.99999e-01,9.99999e-01,9.98603e-01,3.44588e-01,9.99992e-01
6.619607338e-01,3.51643e-01,9.99999e-01,9.99999e-01,9.99221e-01,3.51917e-01,9.99998e-01
6.652705375e-01,3.59084e-01,9.99999e-01,9.99999e-01,9.99532e-01,3.59252e-01,9.99998e-01
6.685968902e-01,3.66511e-01,9.99999e-01,9.99999e-01,9.99782e-01,3.66590e-01,9.99999e-01
6.719398746e-01,3.73892e-01,9.99999e-01,9.99999e-01,9.99899e-01,3.73929e-01,9.99999e-01
6.752995740e-01,3.81245e-01,9.99999e-01,9.99999e-01,9.99945e-01,3.81266e-01,9.99999e-01
6.786760719e-01,3.88567e-01,9.99999e-01,9.99999e-01,9.99920e-01,3.88597e-01,9.99999e-01
6.820694522e-01,3.95867e-01,9.99999e-01,9.99999e-01,9.99864e-01,3.95921e-01,9.99998e-01
6.854797995e-01,4.03163e-01,9.99999e-01,9.99999e-01,9.99825e-01,4.03233e-01,9.99998e-01
6.889071985e-01,4.10358e-01,9.99999e-01,9.99999e-01,9.99577e-01,4.10533e-01,9.99995e-01
6.923517345e-01,4.14932e-01,9.99999e-01,9.99999e-01,9.93130e-01,4.17816e-01,9.99966e-01
6.958134932e-01,4.23535e-01,9.99999e-01,9.99999e-01,9.96435e-01,4.25081e-01,9.99926e-01
6.992925606e-01,4.30828e-01,9.99999e-01,9.99999e-01,9.96602e-01,4.32325e-01,9.99933e-01
7.027890234e-01,4.37683e-01,9.99999e-01,9.99999e-01,9.95812e-01,4.39545e-01,9.99949e-01
7.063029686e-01,4.45156e-01,9.99999e-01,9.99999e-01,9.96478e-01,4.46740e-01,9.99974e-01
7.098344834e-01,4.52368e-01,9.99999e-01,9.99999e-01,9.96621e-01,4.53908e-01,9.99984e-01
7.133836558e-01,4.58951e-01,9.99999e-01,9.99999e-01,9.95487e-01,4.61045e-01,9.99970e-01
7.169505741e-01,4.51276e-01,9.99999e-01,9.99999e-01,9.64177e-01,4.68150e-01,9.99768e-01
7.205353270e-01,4.66658e-01,9.99999e-01,9.99999e-01,9.82379e-01,4.75221e-01,9.99592e-01
7.241380036e-01,4.71299e-01,9.99999e-01,9.99999e-01,9.77622e-01,4.82256e-01,9.99648e-01
7.277586936e-01,4.79227e-01,9.99999e-01,9.99999e-01,9.79787e-01,4.89254e-01,9.99712e-01
7.313974871e-01,4.85506e-01,9.99999e-01,9.99999e-01,9.78557e-01,4.96211e-01,9.99864e-01
7.350544745e-01,4.97186e-01,9.99999e-01,9.99999e-01,9.88237e-01,5.03127e-01,9.99952e-01
7.387297469e-01,5.05572e-01,9.99999e-01,9.99999e-01,9.91337e-01,5.10000e-01,9.99978e-01
7.424233956e-01,5.14633e-01,9.99999e-01,9.99999e-01,9.95756e-01,5.16829e-01,9.99995e-01
7.461355126e-01,5.22263e-01,9.99999e-01,9.99999e-01,9.97426e-01,5.23611e-01,9.99998e-01
7.498661902e-01,5.29710e-01,9.99999e-01,9.99999e-01,9.98801e-01,5.30346e-01,9.99999e-01
7.536155211e-01,5.36716e-01,9.99999e-01,9.99999e-01,9.99411e-01,5.37031e-01,9.99999e-01
7.573835987e-01,5.43502e-01,9.99999e-01,9.99999e-01,9.99696e-01,5.43667e-01,9.99999e-01
7.611705167e-01,5.50147e-01,9.99999e-01,9.99999e-01,9.99811e-01,5.50251e-01,9.99999e-01
7.649763693e-01,5.56716e-01,9.99999e-01,9.99999e-01,9.99881e-01,5.56782e-01,9.99999e-01
7.688012511e-01,5.63213e-01,9.99999e-01,9.99999e-01,9.99917e-01,5.63259e-01,9.99999e-01
7.726452574e-01,5.69644e-01,9.99999e-01,9.99999e-01,9.99931e-01,5.69682e-01,9.99999e-01
7.765084837e-01,5.75994e-01,9.99999e-01,9.99999e-01,9.99903e-01,5.76049e-01,9.99999e-01
7.803910261e-01,5.67025e-01,9.99999e-01,9.74063e-01,9.99584e-01,5.82359e-01,9.99999e-01
7.842929812e-01,5.24919e-01,9.99999e-01,8.93040e-01,9.98549e-01,5.88612e-01,9.99996e-01
7.882144461e-01,5.25215e-01,9.99999e-01,8.85581e-01,9.97016e-01,5.94806e-01,9.99979e-01
7.921555184e-01,5.59216e-01,9.99999e-01,9.32096e-01,9.98364e-01,6.00941e-01,9.99963e-01
7.961162960e-01,5.77502e-01,9.99999e-01,9.54152e-01,9.97105e-01,6.07017e-01,9.99965e-01
8.000968774e-01,5.95621e-01,9.99999e-01,9.74882e-01,9.96660e-01,6.13032e-01,9.99963e-01
8.040973618e-01,6.08837e-01,9.99999e-01,9.86924e-01,9.96658e-01,6.18986e-01,9.99970e-01
8.081178486e-01,6.16423e-01,9.99999e-01,9.93973e-01,9.92467e-01,6.24878e-01,9.99972e-01
8.121584379e-01,6.09914e-01,9.99999e-01,9.98138e-01,9.68919e-01,6.30709e-01,9.99894e-01
8.162192301e-01,6.12591e-01,9.99999e-01,9.99588e-01,9.63241e-01,6.36477e-01,9.99603e-01
8.203003262e-01,6.29949e-01,9.99999e-01,9.99993e-01,9.81409e-01,6.42183e-01,9.99535e-01
8.244018279e-01,6.30860e-01,9.99999e-01,9.99999e-01,9.74170e-01,6.47825e-01,9.99630e-01
8.285238370e-01,6.38785e-01,9.99999e-01,9.99999e-01,9.77908e-01,6.53404e-01,9.99709e-01
8.326664562e-01,6.44134e-01,9.99999e-01,9.99999e-01,9.77677e-01,6.58920e-01,9.99879e-01
8.368297885e-01,6.53745e-01,9.99999e-01,9.99999e-01,9.84030e-01,6.64372e-01,9.99972e-01
8.410139374e-01,6.63379e-01,9.99999e-01,9.99999e-01,9.90488e-01,6.69760e-01,9.99983e-01
8.452190071e-01,6.71924e-01,9.99999e-01,9.99999e-01,9.95328e-01,6.75084e-01,9.99989e-01
8.494451021e-01,6.78492e-01,9.99999e-01,9.99999e-01,9.97286e-01,6.80343e-01,9.99991e-01
8.536923276e-01,6.84436e-01,9.99999e-01,9.99999e-01,9.98395e-01,6.85539e-01,9.99994e-01
8.579607893e-01,6.89987e-01,9.99999e-01,9.99999e-01,9.99011e-01,6.90671e-01,9.99998e-01
8.622505932e-01,6.95301e-01,9.99999e-01,9.99999e-01,9.99371e-01,6.95738e-01,9.99999e-01
8.665618462e-01,6.56893e-01,9.99999e-01,9.37778e-01,9.99611e-01,7.00741e-01,9.99999e-01
8.708946554e-01,5.27986e-01,9.99999e-01,7.48516e-01,9.99554e-01,7.05681e-01,9.99999e-01
8.752491287e-01,5.63230e-01,9.99999e-01,7.93121e-01,9.99404e-01,7.10557e-01,9.99998e-01
8.796253743e-01,6.29771e-01,9.99999e-01,8.81056e-01,9.99175e-01,7.15369e-01,9.99997e-01
8.840235012e-01,6.73832e-01,9.99999e-01,9.36602e-01,9.99057e-01,7.20118e-01,9.99993e-01
8.884436187e-01,7.03939e-01,9.99999e-01,9.74563e-01,9.96553e-01,7.24803e-01,9.99983e-01
8.928858368e-01,6.96018e-01,9.99999e-01,9.89620e-01,9.64234e-01,7.29426e-01,9.99905e-01
8.973502660e-01,6.86154e-01,9.99999e-01,9.97473e-01,9.37615e-01,7.33985e-01,9.99517e-01
9.018370173e-01,7.13887e-01,9.99999e-01,9.99721e-01,9.67689e-01,7.38483e-01,9.99242e-01
9.063462024e-01,7.16170e-01,9.99999e-01,9.92805e-01,9.71463e-01,7.42918e-01,9.99334e-01
9.108779334e-01,7.02267e-01,9.99999e-01,9.83658e-01,9.55877e-01,7.47292e-01,9.99308e-01
9.154323231e-01,7.10967e-01,9.99999e-01,9.96149e-01,9.50073e-01,7.51604e-01,9.99428e-01
9.200094847e-01,6.86516e-01,9.99999e-01,9.44226e-01,9.60678e-01,7.55855e-01,9.99679e-01
9.246095321e-01,6.58581e-01,9.99999e-01,9.22437e-01,9.38650e-01,7.60046e-01,9.99631e-01
9.292325798e-01,4.70974e-01,9.99999e-01,9.38429e-01,6.54196e-01,7.64176e-01,9.98563e-01
9.338787427e-01,4.17692e-01,9.99999e-01,9.40619e-01,5.78456e-01,7.68247e-01,9.94074e-01
9.385481364e-01,5.89295e-01,9.99999e-01,9.56062e-01,8.02194e-01,7.72258e-01,9.92956e-01
9.432408771e-01,5.51905e-01,9.99999e-01,9.72905e-01,7.34422e-01,7.76210e-01,9.93920e-01
9.479570815e-01,4.99588e-01,9.99999e-01,9.86004e-01,6.52331e-01,7.80104e-01,9.95049e-01
9.526968669e-01,5.64947e-01,9.99999e-01,9.93230e-01,7.27413e-01,7.83940e-01,9.96977e-01
9.574603512e-01,5.86439e-01,9.99999e-01,9.97101e-01,7.47680e-01,7.87718e-01,9.98463e-01
9.622476530e-01,6.23807e-01,9.99999e-01,9.99095e-01,7.89713e-01,7.91440e-01,9.98936e-01
9.670588912e-01,6.93342e-01,9.99999e-01,9.99728e-01,8.72874e-01,7.95105e-01,9.99272e-01
9.718941857e-01,7.33368e-01,9.99999e-01,9.99980e-01,9.18694e-01,7.98714e-01,9.99464e-01
9.767536566e-01,7.47439e-01,9.99999e-01,9.99999e-01,9.32038e-01,8.02267e-01,9.99590e-01
9.816374249e-01,7.64753e-01,9.99999e-01,9.99999e-01,9.49233e-01,8.05766e-01,9.99857e-01
9.865456120e-01,7.83287e-01,9.99999e-01,9.99999e-01,9.67992e-01,8.09211e-01,9.99970e-01
9.914783401e-01,7.96425e-01,9.99999e-01,9.99999e-01,9.80100e-01,8.12602e-01,9.99991e-01
9.964357318e-01,8.07056e-01,9.99999e-01,9.99999e-01,9.89117e-01,8.15939e-01,9.99994e-01
1.001417910e+00,8.13865e-01,9.99999e-01,9.99999e-01,9.93465e-01,8.19224e-01,9.99992e-01
1.006425000e+00,8.19381e-01,9.99999e-01,9.99999e-01,9.96269e-01,8.22457e-01,9.99989e-01
1.011457125e+00,8.23719e-01,9.99999e-01,9.99999e-01,9.97684e-01,8.25639e-01,9.99989e-01
1.016514411e+00,8.27460e-01,9.99999e-01,9.99999e-01,9.98427e-01,8.28769e-01,9.99992e-01
1.021596983e+00,8.30769e-01,9.99999e-01,9.99960e-01,9.98746e-01,8.31849e-01,9.99992e-01
1.026704968e+00,8.31720e-01,9.99999e-01,9.97193e-01,9.99022e-01,8.34880e-01,9.99994e-01
1.031838492e+00,8.06561e-01,9.99999e-01,9.63309e-01,9.99289e-01,8.37861e-01,9.99998e-01
1.036997685e+00,1.67511e-01,9.99999e-01,1.99298e-01,9.99577e-01,8.40794e-01,9.99999e-01
1.042182673e+00,1.68359e-01,9.99999e-01,1.99645e-01,9.99496e-01,8.43679e-01,9.99999e-01
1.047393587e+00,1.75762e-01,9.99999e-01,2.07753e-01,9.99332e-01,8.46516e-01,9.99999e-01
1.052630555e+00,1.09832e-02,9.99999e-01,1.29410e-02,9.99083e-01,8.49307e-01,9.99999e-01
1.057893707e+00,2.45128e-02,9.99999e-01,2.88009e-02,9.98469e-01,8.52052e-01,9.99998e-01
1.063183176e+00,6.35284e-02,9.99999e-01,7.44656e-02,9.97483e-01,8.54751e-01,9.99998e-01
1.068499092e+00,1.44823e-01,9.99999e-01,1.69532e-01,9.95788e-01,8.57404e-01,9.99996e-01
1.073841587e+00,2.79546e-01,9.99999e-01,3.26465e-01,9.95069e-01,8.60014e-01,9.99993e-01
1.079210795e+00,4.22450e-01,9.99999e-01,4.92657e-01,9.93690e-01,8.62580e-01,9.99982e-01
1.084606849e+00,5.81502e-01,9.99999e-01,6.78452e-01,9.90457e-01,8.65102e-01,9.99959e-01
1.090029883e+00,6.99914e-01,9.99999e-01,8.17783e-01,9.86300e-01,8.67582e-01,9.99915e-01
1.095480033e+00,7.59037e-01,9.99999e-01,9.05711e-01,9.63115e-01,8.70019e-01,9.99847e-01
1.100957433e+00,7.56009e-01,9.99999e-01,9.53440e-01,9.08805e-01,8.72415e-01,9.99720e-01
1.106462220e+00,6.72212e-01,9.99999e-01,9.80487e-01,7.83685e-01,8.74771e-01,9.99525e-01
1.111994531e+00,5.20957e-01,9.99999e-01,9.92724e-01,5.98828e-01,8.77085e-01,9.98741e-01
1.117554504e+00,3.80922e-01,9.99999e-01,9.98221e-01,4.35814e-01,8.79360e-01,9.95466e-01
1.123142276e+00,4.72580e-01,9.99999e-01,9.99882e-01,5.41892e-01,8.81596e-01,9.89283e-01
1.128757988e+00,5.90107e-01,9.99999e-01,9.99999e-01,6.76071e-01,8.83793e-01,9.87612e-01
1.134401778e+00,3.66163e-01,9.99999e-01,9.99999e-01,4.17702e-01,8.85953e-01,9.89457e-01
1.140073787e+00,6.97654e-01,9.99999e-01,9.99999e-01,7.92260e-01,8.88074e-01,9.91567e-01
1.145774156e+00,5.42935e-01,9.99999e-01,9.99999e-01,6.14676e-01,8.90159e-01,9.92278e-01
1.151503026e+00,5.16092e-01,9.99999e-01,9.99999e-01,5.80946e-01,8.92207e-01,9.95690e-01
1.157260541e+00,5.68849e-01,9.99999e-01,9.99999e-01,6.36961e-01,8.94219e-01,9.98709e-01
1.163046844e+00,6.42132e-01,9.99999e-01,9.99999e-01,7.16769e-01,8.96196e-01,9.99633e-01
1.168862078e+00,7.12824e-01,9.99999e-01,9.99999e-01,7.93817e-01,8.98138e-01,9.99811e-01
1.174706389e+00,7.80331e-01,9.99999e-01,9.99999e-01,8.67206e-01,9.00046e-01,9.99749e-01
1.180579921e+00,8.26690e-01,9.99999e-01,9.99999e-01,9.16935e-01,9.01920e-01,9.99621e-01
1.186482820e+00,8.60230e-01,9.99999e-01,9.99994e-01,9.52206e-01,9.03761e-01,9.99611e-01
1.192415234e+00,8.71055e-01,9.99999e-01,9.89965e-01,9.71835e-01,9.05570e-01,9.99709e-01
1.198377311e+00,5.06201e-01,9.99999e-01,5.69408e-01,9.76200e-01,9.07346e-01,9.99725e-01
1.204369197e+00,6.23181e-09,9.99999e-01,6.94746e-09,9.77461e-01,9.09090e-01,9.99751e-01
1.210391043e+00,6.14530e-31,9.99999e-01,6.83021e-31,9.78441e-01,9.10803e-01,9.99848e-01
1.216442998e+00,5.29857e-27,9.99999e-01,5.87419e-27,9.81638e-01,9.12485e-01,9.99907e-01
1.222525213e+00,1.28148e-26,9.99999e-01,1.41238e-26,9.85678e-01,9.14137e-01,9.99942e-01
1.228637839e+00,1.37255e-20,9.99999e-01,1.50940e-20,9.90034e-01,9.15760e-01,9.99972e-01
