#,Wave/freq,Total,N2,CO2,H2O,Rayleigh,CIA
4.000000000e-01,7.98234e-04,9.99999e-01,9.99999e-01,9.99985e-01,7.98245e-04,9.99999e-01
4.020000000e-01,9.19152e-04,9.99999e-01,9.99999e-01,9.99990e-01,9.19160e-04,9.99999e-01
4.040100000e-01,1.05529e-03,9.99999e-01,9.99999e-01,9.99995e-01,1.05529e-03,9.99999e-01
4.060300500e-01,1.20828e-03,9.99999e-01,9.99999e-01,9.99998e-01,1.20828e-03,9.99999e-01
4.080602003e-01,1.37975e-03,9.99999e-01,9.99999e-01,9.99999e-01,1.37975e-03,9.99999e-01
4.101005013e-01,1.57144e-03,9.99999e-01,9.99999e-01,9.99999e-01,1.57144e-03,9.99999e-01
4.121510038e-01,1.78516e-03,9.99999e-01,9.99999e-01,9.99999e-01,1.78516e-03,9.99999e-01
4.142117588e-01,2.02284e-03,9.99999e-01,9.99999e-01,9.99995e-01,2.02285e-03,9.99999e-01
4.162828176e-01,2.28650e-03,9.99999e-01,9.99999e-01,9.99982e-01,2.28654e-03,9.99999e-01
4.183642317e-01,2.57832e-03,9.99999e-01,9.99999e-01,9.99989e-01,2.57834e-03,9.99999e-01
4.204560528e-01,2.90048e-03,9.99999e-01,9.99999e-01,9.99993e-01,2.90050e-03,9.99999e-01
4.225583331e-01,3.25533e-03,9.99999e-01,9.99999e-01,9.99997e-01,3.25533e-03,9.99999e-01
4.246711247e-01,3.64525e-03,9.99999e-01,9.99999e-01,9.99997e-01,3.64526e-03,9.99999e-01
4.267944804e-01,4.07276e-03,9.99999e-01,9.99999e-01,9.99996e-01,4.07277e-03,9.99999e-01
4.289284528e-01,4.54046e-03,9.99999e-01,9.99999e-01,9.99997e-01,4.54047e-03,9.99999e-01
4.310730950e-01,5.05101e-03,9.99999e-01,9.99999e-01,9.99998e-01,5.05101e-03,9.99999e-01
4.332284605e-01,5.60715e-03,9.99999e-01,9.99999e-01,9.99999e-01,5.60715e-03,9.99999e-01
4.353946028e-01,6.21170e-03,9.99999e-01,9.99999e-01,9.99999e-01,6.21170e-03,9.99999e-01
4.375715758e-01,6.86751e-03,9.99999e-01,9.99999e-01,9.99997e-01,6.86752e-03,9.99999e-01
4.397594337e-01,7.57743e-03,9.99999e-01,9.99999e-01,9.99984e-01,7.57755e-03,9.99999e-01
4.419582309e-01,8.34412e-03,9.99999e-01,9.99999e-01,9.99924e-01,8.34475e-03,9.99999e-01
4.441680220e-01,9.17159e-03,9.99999e-01,9.99999e-01,9.99939e-01,9.17213e-03,9.99999e-01
4.463888621e-01,1.00621e-02,9.99999e-01,9.99999e-01,9.99937e-01,1.00627e-02,9.99999e-01
4.486208064e-01,1.10192e-02,9.99999e-01,9.99999e-01,9.99961e-01,1.10197e-02,9.99999e-01
4.508639105e-01,1.20457e-02,9.99999e-01,9.99999e-01,9.99981e-01,1.20459e-02,9.99999e-01
4.531182300e-01,1.31445e-02,9.99999e-01,9.99999e-01,9.99992e-01,1.31446e-02,9.99999e-01
4.553838212e-01,1.43188e-02,9.99999e-01,9.99999e-01,9.99994e-01,1.43188e-02,9.99999e-01
4.576607403e-01,1.55716e-02,9.99999e-01,9.99999e-01,9.99997e-01,1.55716e-02,9.99999e-01
4.599490440e-01,1.69059e-02,9.99999e-01,9.99999e-01,9.99997e-01,1.69059e-02,9.99999e-01
4.622487892e-01,1.83248e-02,9.99999e-01,9.99999e-01,9.99999e-01,1.83248e-02,9.99999e-01
4.645600332e-01,1.98312e-02,9.99999e-01,9.99999e-01,9.99998e-01,1.98312e-02,9.99999e-01
4.668828333e-01,2.14275e-02,9.99999e-01,9.99999e-01,9.99981e-01,2.14279e-02,9.99999e-01
4.692172475e-01,2.31170e-02,9.99999e-01,9.99999e-01,9.99960e-01,2.31179e-02,9.99999e-01
4.715633337e-01,2.49031e-02,9.99999e-01,9.99999e-01,9.99974e-01,2.49037e-02,9.99999e-01
4.739211504e-01,2.67874e-02,9.99999e-01,9.99999e-01,9.99975e-01,2.67881e-02,9.99999e-01
4.762907561e-01,2.87732e-02,9.99999e-01,9.99999e-01,9.99986e-01,2.87735e-02,9.99999e-01
4.786722099e-01,3.08624e-02,9.99999e-01,9.99999e-01,9.99994e-01,3.08626e-02,9.99999e-01
4.810655710e-01,3.30574e-02,9.99999e-01,9.99999e-01,9.99997e-01,3.30575e-02,9.99999e-01
4.834708988e-01,3.53599e-02,9.99999e-01,9.99999e-01,9.99985e-01,3.53604e-02,9.99999e-01
4.858882533e-01,3.77725e-02,9.99999e-01,9.99999e-01,9.99972e-01,3.77736e-02,9.99999e-01
4.883176946e-01,4.02979e-02,9.99999e-01,9.99999e-01,9.99976e-01,4.02988e-02,9.99999e-01
4.907592831e-01,4.29370e-02,9.99999e-01,9.99999e-01,9.99978e-01,4.29379e-02,9.99999e-01
4.932130795e-01,4.56919e-02,9.99999e-01,9.99999e-01,9.99984e-01,4.56926e-02,9.99999e-01
4.956791449e-01,4.85639e-02,9.99999e-01,9.99999e-01,9.99991e-01,4.85643e-02,9.99999e-01
4.981575406e-01,5.15524e-02,9.99999e-01,9.99999e-01,9.99960e-01,5.15544e-02,9.99999e-01
5.006483283e-01,5.46585e-02,9.99999e-01,9.99999e-01,9.99900e-01,5.46640e-02,9.99998e-01
5.031515699e-01,5.78644e-02,9.99999e-01,9.99999e-01,9.99490e-01,5.78942e-02,9.99994e-01
5.056673278e-01,6.12289e-02,9.99999e-01,9.99999e-01,9.99729e-01,6.12458e-02,9.99993e-01
5.081956644e-01,6.46971e-02,9.99999e-01,9.99999e-01,9.99659e-01,6.47194e-02,9.99995e-01
5.107366428e-01,6.82997e-02,9.99999e-01,9.99999e-01,9.99769e-01,6.83155e-02,9.99998e-01
5.132903260e-01,7.20250e-02,9.99999e-01,9.99999e-01,9.99867e-01,7.20345e-02,9.99999e-01
5.158567776e-01,7.58722e-02,9.99999e-01,9.99999e-01,9.99943e-01,7.58764e-02,9.99999e-01
5.184360615e-01,7.98395e-02,9.99999e-01,9.99999e-01,9.99977e-01,7.98413e-02,9.99999e-01
5.210282418e-01,8.39281e-02,9.99999e-01,9.99999e-01,9.99991e-01,8.39288e-02,9.99999e-01
5.236333830e-01,8.81357e-02,9.99999e-01,9.99999e-01,9.99966e-01,8.81387e-02,9.99999e-01
5.262515499e-01,9.24683e-02,9.99999e-01,9.99999e-01,9.99978e-01,9.24703e-02,9.99999e-01
5.288828077e-01,9.69210e-02,9.99999e-01,9.99999e-01,9.99980e-01,9.69228e-02,9.99999e-01
5.315272217e-01,1.01494e-01,9.99999e-01,9.99999e-01,9.99982e-01,1.01495e-01,9.99999e-01
5.341848578e-01,1.06186e-01,9.99999e-01,9.99999e-01,9.99988e-01,1.06187e-01,9.99999e-01
5.368557821e-01,1.10992e-01,9.99999e-01,9.99999e-01,9.99961e-01,1.10997e-01,9.99999e-01
5.395400610e-01,1.15906e-01,9.99999e-01,9.99999e-01,9.99861e-01,1.15922e-01,9.99998e-01
5.422377613e-01,1.20941e-01,9.99999e-01,9.99999e-01,9.99818e-01,1.20963e-01,9.99996e-01
5.449489501e-01,1.26095e-01,9.99999e-01,9.99999e-01,9.99832e-01,1.26116e-01,9.99996e-01
5.476736949e-01,1.31362e-01,9.99999e-01,9.99999e-01,9.99850e-01,1.31381e-01,9.99997e-01
5.504120634e-01,1.36741e-01,9.99999e-01,9.99999e-01,9.99891e-01,1.36756e-01,9.99999e-01
5.531641237e-01,1.42229e-01,9.99999e-01,9.99999e-01,9.99944e-01,1.42237e-01,9.99999e-01
5.559299443e-01,1.47819e-01,9.99999e-01,9.99999e-01,9.99973e-01,1.47823e-01,9.99999e-01
5.587095940e-01,1.53509e-01,9.99999e-01,9.99999e-01,9.99983e-01,1.53512e-01,9.99999e-01
5.615031420e-01,1.59298e-01,9.99999e-01,9.99999e-01,9.99981e-01,1.59301e-01,9.99999e-01
5.643106577e-01,1.65184e-01,9.99999e-01,9.99999e-01,9.99979e-01,1.65187e-01,9.99999e-01
5.671322110e-01,1.71125e-01,9.99999e-01,9.99999e-01,9.99752e-01,1.71168e-01,9.99997e-01
5.699678720e-01,1.77192e-01,9.99999e-01,9.99999e-01,9.99728e-01,1.77241e-01,9.99992e-01
5.728177114e-01,1.83351e-01,9.99999e-01,9.99999e-01,9.99720e-01,1.83403e-01,9.99993e-01
5.756818000e-01,1.89602e-01,9.99999e-01,9.99999e-01,9.99743e-01,1.89652e-01,9.99996e-01
5.785602090e-01,1.95939e-01,9.99999e-01,9.99999e-01,9.99775e-01,1.95983e-01,9.99998e-01
5.814530100e-01,2.02349e-01,9.99999e-01,9.99999e-01,9.99775e-01,2.02395e-01,9.99999e-01
5.843602750e-01,2.08828e-01,9.99999e-01,9.99999e-01,9.99734e-01,2.08883e-01,9.99998e-01
5.872820764e-01,2.14948e-01,9.99999e-01,9.99999e-01,9.97708e-01,2.15445e-01,9.99983e-01
5.902184868e-01,2.21446e-01,9.99999e-01,9.99999e-01,9.97198e-01,2.22078e-01,9.99955e-01
5.931695792e-01,2.28316e-01,9.99999e-01,9.99999e-01,9.98026e-01,2.28778e-01,9.99956e-01
5.961354271e-01,2.35024e-01,9.99999e-01,9.99999e-01,9.97831e-01,2.35541e-01,9.99973e-01
5.991161043e-01,2.41980e-01,9.99999e-01,9.99999e-01,9.98416e-01,2.42365e-01,9.99991e-01
6.021116848e-01,2.49022e-01,9.99999e-01,9.99999e-01,9.99100e-01,2.49246e-01,9.99998e-01
6.051222432e-01,2.56064e-01,9.99999e-01,9.99999e-01,9.99544e-01,2.56181e-01,9.99999e-01
6.081478544e-01,2.63114e-01,9.99999e-01,9.99999e-01,9.99803e-01,2.63165e-01,9.99999e-01
6.111885937e-01,2.70175e-01,9.99999e-01,9.99999e-01,9.99916e-01,2.70197e-01,9.99999e-01
6.142445367e-01,2.77262e-01,9.99999e-01,9.99999e-01,9.99962e-01,2.77272e-01,9.99999e-01
6.173157594e-01,2.84382e-01,9.99999e-01,9.99999e-01,9.99979e-01,2.84387e-01,9.99999e-01
6.204023382e-01,2.91534e-01,9.99999e-01,9.99999e-01,9.99982e-01,2.91539e-01,9.99999e-01
6.235043498e-01,2.98702e-01,9.99999e-01,9.99999e-01,9.99925e-01,2.98724e-01,9.99999e-01
6.266218716e-01,3.05816e-01,9.99999e-01,9.99999e-01,9.99597e-01,3.05939e-01,9.99996e-01
6.297549810e-01,3.13133e-01,9.99999e-01,9.99999e-01,9.99852e-01,3.13181e-01,9.99993e-01
6.329037559e-01,3.20351e-01,9.99999e-01,9.99999e-01,9.99707e-01,3.20446e-01,9.99994e-01
6.360682746e-01,3.27649e-01,9.99999e-01,9.99999e-01,9.99752e-01,3.27731e-01,9.99996e-01
6.392486160e-01,3.34924e-01,9.99999e-01,9.99999e-01,9.99677e-01,3.35032e-01,9.99998e-01
6.424448591e-01,3.42215e-01,9.99999e-01,9.99999e-01,9.99614e-01,3.42348e-01,9.99997e-01
6.456570834e-01,3.48982e-01,9.99999e-01,9.99999e-01,9.98032e-01,3.49674e-01,9.99988e-01
6.488853688e-01,3.56381e-01,9.99999e-01,9.99999e-01,9.98275e-01,3.57007e-01,9.99968e-01
6.521297956e-01,3.63790e-01,9.99999e-01,9.99999e-01,9.98503e-01,3.64345e-01,9.99973e-01
6.553904446e-01,3.71128e-01,9.99999e-01,9.99999e-01,9.98523e-01,3.71684e-01,9.99980e-01
6.586673968e-01,3.78535e-01,9.99999e-01,9.99999e-01,9.98723e-01,3.79021e-01,9.99993e-01
6.619607338e-01,3.86069e-01,9.99999e-01,9.99999e-01,9.99262e-01,3.86355e-01,9.99998e-01
6.652705375e-01,3.93512e-01,9.99999e-01,9.99999e-01,9.99571e-01,3.93681e-01,9.99998e-01
6.685968902e-01,4.00917e-01,9.99999e-01,9.99999e-01,9.99800e-01,4.00997e-01,9.99999e-01
6.719398746e-01,4.08263e-01,9.99999e-01,9.99999e-01,9.99907e-01,4.08301e-01,9.99999e-01
6.752995740e-01,4.15568e-01,9.99999e-01,9.99999e-01,9.99949e-01,4.15589e-01,9.99999e-01
6.786760719e-01,4.22830e-01,9.99999e-01,9.99999e-01,9.99928e-01,4.22860e-01,9.99999e-01
6.820694522e-01,4.30058e-01,9.99999e-01,9.99999e-01,9.99877e-01,4.30110e-01,9.99998e-01
6.854797995e-01,4.37269e-01,9.99999e-01,9.99999e-01,9.99841e-01,4.37339e-01,9.99998e-01
6.889071985e-01,4.44373e-01,9.99999e-01,9.99999e-01,9.99623e-01,4.44542e-01,9.99996e-01
6.923517345e-01,4.48900e-01,9.99999e-01,9.99999e-01,9.93791e-01,4.51718e-01,9.99969e-01
6.958134932e-01,4.57319e-01,9.99999e-01,9.99999e-01,9.96699e-01,4.58864e-01,9.99931e-01
6.992925606e-01,4.64521e-01,9.99999e-01,9.99999e-01,9.96929e-01,4.65980e-01,9.99940e-01
7.027890234e-01,4.71232e-01,9.99999e-01,9.99999e-01,9.96178e-01,4.73061e-01,9.99953e-01
7.063029686e-01,4.78556e-01,9.99999e-01,9.99999e-01,9.96790e-01,4.80108e-01,9.99976e-01
7.098344834e-01,4.85610e-01,9.99999e-01,9.99999e-01,9.96920e-01,4.87117e-01,9.99986e-01
7.133836558e-01,4.92073e-01,9.99999e-01,9.99999e-01,9.95950e-01,4.94086e-01,9.99972e-01
7.169505741e-01,4.84649e-01,9.99999e-01,9.99999e-01,9.67535e-01,5.01015e-01,9.99789e-01
7.205353270e-01,4.99433e-01,9.99999e-01,9.99999e-01,9.83690e-01,5.07902e-01,9.99628e-01
7.241380036e-01,5.04115e-01,9.99999e-01,9.99999e-01,9.79666e-01,5.14744e-01,9.99677e-01
7.277586936e-01,5.11815e-01,9.99999e-01,9.99999e-01,9.81615e-01,5.21541e-01,9.99731e-01
7.313974871e-01,5.17844e-01,9.99999e-01,9.99999e-01,9.80346e-01,5.28290e-01,9.99877e-01
7.350544745e-01,5.29216e-01,9.99999e-01,9.99999e-01,9.89247e-01,5.34991e-01,9.99956e-01
7.387297469e-01,5.37339e-01,9.99999e-01,9.99999e-01,9.92075e-01,5.41642e-01,9.99979e-01
7.424233956e-01,5.46106e-01,9.99999e-01,9.99999e-01,9.96107e-01,5.48242e-01,9.99995e-01
7.461355126e-01,5.53482e-01,9.99999e-01,9.99999e-01,9.97644e-01,5.54789e-01,9.99998e-01
7.498661902e-01,5.60666e-01,9.99999e-01,9.99999e-01,9.98899e-01,5.61283e-01,9.99999e-01
7.536155211e-01,5.67417e-01,9.99999e-01,9.99999e-01,9.99461e-01,5.67723e-01,9.99999e-01
7.573835987e-01,5.73948e-01,9.99999e-01,9.99999e-01,9.99722e-01,5.74107e-01,9.99999e-01
7.611705167e-01,5.80335e-01,9.99999e-01,9.99999e-01,9.99827e-01,5.80434e-01,9.99999e-01
7.649763693e-01,5.86642e-01,9.99999e-01,9.99999e-01,9.99891e-01,5.86705e-01,9.99999e-01
7.688012511e-01,5.92873e-01,9.99999e-01,9.99999e-01,9.99924e-01,5.92917e-01,9.99999e-01
7.726452574e-01,5.99033e-01,9.99999e-01,9.99999e-01,9.99937e-01,5.99070e-01,9.99999e-01
7.765084837e-01,6.05112e-01,9.99999e-01,9.99999e-01,9.99912e-01,6.05164e-01,9.99999e-01
7.803910261e-01,5.97160e-01,9.99999e-01,9.77390e-01,9.99625e-01,6.11198e-01,9.99999e-01
7.842929812e-01,5.55549e-01,9.99999e-01,9.01294e-01,9.98692e-01,6.17170e-01,9.99997e-01
7.882144461e-01,5.56272e-01,9.99999e-01,8.95153e-01,9.97282e-01,6.23082e-01,9.99982e-01
7.921555184e-01,5.89101e-01,9.99999e-01,9.38082e-01,9.98501e-01,6.28932e-01,9.99967e-01
7.961162960e-01,6.06377e-01,9.99999e-01,9.57866e-01,9.97382e-01,6.34719e-01,9.99968e-01
8.000968774e-01,6.23787e-01,9.99999e-01,9.76987e-01,9.96959e-01,6.40444e-01,9.99966e-01
8.040973618e-01,6.36378e-01,9.99999e-01,9.87965e-01,9.96963e-01,6.46106e-01,9.99973e-01
8.081178486e-01,6.43696e-01,9.99999e-01,9.94484e-01,9.93207e-01,6.51704e-01,9.99975e-01
8.121584379e-01,6.37589e-01,9.99999e-01,9.98278e-01,9.71856e-01,6.57239e-01,9.99903e-01
8.162192301e-01,6.39910e-01,9.99999e-01,9.99619e-01,9.66305e-01,6.62710e-01,9.99639e-01
8.203003262e-01,6.56693e-01,9.99999e-01,9.99993e-01,9.83319e-01,6.68118e-01,9.99577e-01
8.244018279e-01,6.57143e-01,9.99999e-01,9.99999e-01,9.76097e-01,6.73461e-01,9.99663e-01
8.285238370e-01,6.64936e-01,9.99999e-01,9.99999e-01,9.79918e-01,6.78741e-01,9.99735e-01
8.326664562e-01,6.69935e-01,9.99999e-01,9.99999e-01,9.79606e-01,6.83956e-01,9.99890e-01
8.368297885e-01,6.79021e-01,9.99999e-01,9.99999e-01,9.85387e-01,6.89107e-01,9.99974e-01
8.410139374e-01,6.88141e-01,9.99999e-01,9.99999e-01,9.91293e-01,6.94194e-01,9.99984e-01
8.452190071e-01,6.96218e-01,9.99999e-01,9.99999e-01,9.95719e-01,6.99217e-01,9.99990e-01
8.494451021e-01,7.02429e-01,9.99999e-01,9.99999e-01,9.97524e-01,7.04176e-01,9.99992e-01
8.536923276e-01,7.08027e-01,9.99999e-01,9.99999e-01,9.98530e-01,7.09072e-01,9.99994e-01
8.579607893e-01,7.13258e-01,9.99999e-01,9.99999e-01,9.99097e-01,7.13903e-01,9.99998e-01
8.622505932e-01,7.18258e-01,9.99999e-01,9.99999e-01,9.99425e-01,7.18671e-01,9.99999e-01
8.665618462e-01,6.82626e-01,9.99999e-01,9.43990e-01,9.99645e-01,7.23376e-01,9.99999e-01
8.708946554e-01,5.58335e-01,9.99999e-01,7.67227e-01,9.99595e-01,7.28018e-01,9.99999e-01
8.752491287e-01,5.91940e-01,9.99999e-01,8.08430e-01,9.99458e-01,7.32597e-01,9.99998e-01
8.796253743e-01,6.55775e-01,9.99999e-01,8.90305e-01,9.99252e-01,7.37113e-01,9.99997e-01
8.840235012e-01,6.97782e-01,9.99999e-01,9.41755e-01,9.99145e-01,7.41568e-01,9.99994e-01
8.884436187e-01,7.26243e-01,9.99999e-01,9.76551e-01,9.96939e-01,7.45960e-01,9.99984e-01
8.928858368e-01,7.19108e-01,9.99999e-01,9.90470e-01,9.67688e-01,7.50291e-01,9.99913e-01
8.973502660e-01,7.09542e-01,9.99999e-01,9.97662e-01,9.42924e-01,7.54561e-01,9.99560e-01
9.018370173e-01,7.35482e-01,9.99999e-01,9.99741e-01,9.70221e-01,7.58770e-01,9.99310e-01
9.063462024e-01,7.38127e-01,9.99999e-01,9.93596e-01,9.74195e-01,7.62919e-01,9.99393e-01
9.108779334e-01,7.24799e-01,9.99999e-01,9.85023e-01,9.59820e-01,7.67008e-01,9.99370e-01
9.154323231e-01,7.32922e-01,9.99999e-01,9.96430e-01,9.54418e-01,7.71037e-01,9.99479e-01
9.200094847e-01,7.10182e-01,9.99999e-01,9.49571e-01,9.64006e-01,7.75007e-01,9.99708e-01
9.246095321e-01,6.84127e-01,9.99999e-01,9.28798e-01,9.45079e-01,7.78919e-01,9.99664e-01
9.292325798e-01,5.04447e-01,9.99999e-01,9.44193e-01,6.80435e-01,7.82772e-01,9.98691e-01
9.338787427e-01,4.49452e-01,9.99999e-01,9.45551e-01,6.04896e-01,7.86568e-01,9.94604e-01
9.385481364e-01,6.16510e-01,9.99999e-01,9.59769e-01,8.16639e-01,7.90307e-01,9.93586e-01
9.432408771e-01,5.81897e-01,9.99999e-01,9.75110e-01,7.55015e-01,7.93989e-01,9.94464e-01
9.479570815e-01,5.31400e-01,9.99999e-01,9.87197e-01,6.77588e-01,7.97615e-01,9.95492e-01
9.526968669e-01,5.92882e-01,9.99999e-01,9.93794e-01,7.46371e-01,8.01186e-01,9.97247e-01
9.574603512e-01,6.14513e-01,9.99999e-01,9.97341e-01,7.66667e-01,8.04702e-01,9.98600e-01
9.622476530e-01,6.49827e-01,9.99999e-01,9.99169e-01,8.05499e-01,8.08163e-01,9.99032e-01
9.670588912e-01,7.16070e-01,9.99999e-01,9.99750e-01,8.83123e-01,8.11570e-01,9.99337e-01
9.718941857e-01,7.53906e-01,9.99999e-01,9.99981e-01,9.25591e-01,8.14924e-01,9.99512e-01
9.767536566e-01,7.67106e-01,9.99999e-01,9.99999e-01,9.37873e-01,8.18225e-01,9.99627e-01
9.816374249e-01,7.83175e-01,9.99999e-01,9.99999e-01,9.53500e-01,8.21473e-01,9.99870e-01
9.865456120e-01,8.00485e-01,9.99999e-01,9.99999e-01,9.70698e-01,8.24671e-01,9.99972e-01
9.914783401e-01,8.12751e-01,9.99999e-01,9.99999e-01,9.81807e-01,8.27817e-01,9.99992e-01
9.964357318e-01,8.22642e-01,9.99999e-01,9.99999e-01,9.90050e-01,8.30912e-01,9.99995e-01
1.001417910e+00,8.28970e-01,9.99999e-01,9.99999e-01,9.94025e-01,8.33958e-01,9.99992e-01
1.006425000e+00,8.34100e-01,9.99999e-01,9.99999e-01,9.96598e-01,8.36954e-01,9.99990e-01
1.011457125e+00,8.38115e-01,9.99999e-01,9.99999e-01,9.97881e-01,8.39902e-01,9.99990e-01
1.016514411e+00,8.41586e-01,9.99999e-01,9.99999e-01,9.98563e-01,8.42801e-01,9.99993e-01
1.021596983e+00,8.44655e-01,9.99999e-01,9.99968e-01,9.98856e-01,8.45653e-01,9.99993e-01
1.026704968e+00,8.45592e-01,9.99999e-01,9.97513e-01,9.99108e-01,8.48458e-01,9.99995e-01
1.031838492e+00,8.24270e-01,9.99999e-01,9.68959e-01,9.99350e-01,8.51217e-01,9.99998e-01
1.036997685e+00,1.86630e-01,9.99999e-01,2.18623e-01,9.99614e-01,8.53930e-01,9.99999e-01
1.042182673e+00,1.94515e-01,9.99999e-01,2.27173e-01,9.99542e-01,8.56597e-01,9.99999e-01
1.047393587e+00,2.00341e-01,9.99999e-01,2.33294e-01,9.99392e-01,8.59220e-01,9.99999e-01
1.052630555e+00,1.54279e-02,9.99999e-01,1.79133e-02,9.99167e-01,8.61799e-01,9.99999e-01
1.057893707e+00,3.25739e-02,9.99999e-01,3.77250e-02,9.98612e-01,8.64335e-01,9.99999e-01
1.063183176e+00,7.92094e-02,9.99999e-01,9.15392e-02,9.97714e-01,8.66827e-01,9.99998e-01
1.068499092e+00,1.71505e-01,9.99999e-01,1.97964e-01,9.96169e-01,8.69278e-01,9.99996e-01
1.073841587e+00,3.11414e-01,9.99999e-01,3.58674e-01,9.95526e-01,8.71687e-01,9.99993e-01
1.079210795e+00,4.54897e-01,9.99999e-01,5.23272e-01,9.94250e-01,8.74054e-01,9.99984e-01
1.084606849e+00,6.09188e-01,9.99999e-01,7.01028e-01,9.91321e-01,8.76381e-01,9.99962e-01
1.090029883e+00,7.22162e-01,9.99999e-01,8.32051e-01,9.87624e-01,8.78668e-01,9.99923e-01
1.095480033e+00,7.77743e-01,9.99999e-01,9.13320e-01,9.66559e-01,8.80916e-01,9.99861e-01
1.100957433e+00,7.75380e-01,9.99999e-01,9.57308e-01,9.17103e-01,8.83125e-01,9.99745e-01
1.106462220e+00,6.97564e-01,9.99999e-01,9.82104e-01,8.02292e-01,8.85296e-01,9.99568e-01
1.111994531e+00,5.52207e-01,9.99999e-01,9.93331e-01,6.26940e-01,8.87429e-01,9.98854e-01
1.117554504e+00,4.14442e-01,9.99999e-01,9.98360e-01,4.68509e-01,8.89525e-01,9.95871e-01
1.123142276e+00,5.02272e-01,9.99999e-01,9.99891e-01,5.68937e-01,8.91584e-01,9.90238e-01
1.128757988e+00,6.18122e-01,9.99999e-01,9.99999e-01,6.99609e-01,8.93607e-01,9.88716e-01
1.134401778e+00,3.91240e-01,9.99999e-01,9.99999e-01,4.41185e-01,8.95595e-01,9.90171e-01
1.140073787e+00,7.20574e-01,9.99999e-01,9.99999e-01,8.09204e-01,8.97548e-01,9.92116e-01
1.145774156e+00,5.72154e-01,9.99999e-01,9.99999e-01,6.40607e-01,8.99466e-01,9.92967e-01
1.151503026e+00,5.46263e-01,9.99999e-01,9.99999e-01,6.08436e-01,9.01351e-01,9.96076e-01
1.157260541e+00,5.97697e-01,9.99999e-01,9.99999e-01,6.62531e-01,9.03202e-01,9.98824e-01
1.163046844e+00,6.67168e-01,9.99999e-01,9.99999e-01,7.37431e-01,9.05020e-01,9.99666e-01
1.168862078e+00,7.34172e-01,9.99999e-01,9.99999e-01,8.09763e-01,9.06805e-01,9.99827e-01
1.174706389e+00,7.97500e-01,9.99999e-01,9.99999e-01,8.77962e-01,9.08559e-01,9.99772e-01
1.180579921e+00,8.40633e-01,9.99999e-01,9.99999e-01,9.23803e-01,9.10282e-01,9.99655e-01
1.186482820e+00,8.71798e-01,9.99999e-01,9.99996e-01,9.56286e-01,9.11974e-01,9.99646e-01
1.192415234e+00,8.82105e-01,9.99999e-01,9.91160e-01,9.74290e-01,9.13635e-01,9.99735e-01
1.198377311e+00,5.15457e-01,9.99999e-01,5.73762e-01,9.78327e-01,9.15267e-01,9.99749e-01
1.204369197e+00,2.47484e-08,9.99999e-01,2.73235e-08,9.79451e-01,9.16869e-01,9.99773e-01
1.210391043e+00,2.28691e-28,9.99999e-01,2.51789e-28,9.80341e-01,9.18442e-01,9.99862e-01
1.216442998e+00,8.75911e-25,9.99999e-01,9.62154e-25,9.83215e-01,9.19986e-01,9.99915e-01
1.222525213e+00,1.96585e-24,9.99999e-01,2.14792e-24,9.86925e-01,9.21503e-01,9.99947e-01
1.228637839e+00,7.01955e-19,9.99999e-01,7.65435e-19,9.90912e-01,9.22992e-01,9.99975e-01
