#,Wave/freq,Total,N2,CO2,H2O,Rayleigh,CIA
4.000000000e-01,4.42068e-04,9.99999e-01,9.99999e-01,9.99984e-01,4.42075e-04,9.99999e-01
4.020000000e-01,5.15014e-04,9.99999e-01,9.99999e-01,9.99990e-01,5.15019e-04,9.99999e-01
4.040100000e-01,5.98096e-04,9.99999e-01,9.99999e-01,9.99995e-01,5.98099e-04,9.99999e-01
4.060300500e-01,6.92531e-04,9.99999e-01,9.99999e-01,9.99998e-01,6.92532e-04,9.99999e-01
4.080602003e-01,7.99555e-04,9.99999e-01,9.99999e-01,9.99999e-01,7.99556e-04,9.99999e-01
4.101005013e-01,9.20503e-04,9.99999e-01,9.99999e-01,9.99999e-01,9.20503e-04,9.99999e-01
4.121510038e-01,1.05680e-03,9.99999e-01,9.99999e-01,9.99998e-01,1.05680e-03,9.99999e-01
4.142117588e-01,1.20997e-03,9.99999e-01,9.99999e-01,9.99995e-01,1.20998e-03,9.99999e-01
4.162828176e-01,1.38163e-03,9.99999e-01,9.99999e-01,9.99981e-01,1.38165e-03,9.99999e-01
4.183642317e-01,1.57354e-03,9.99999e-01,9.99999e-01,9.99988e-01,1.57356e-03,9.99999e-01
4.204560528e-01,1.78751e-03,9.99999e-01,9.99999e-01,9.99992e-01,1.78752e-03,9.99999e-01
4.225583331e-01,2.02547e-03,9.99999e-01,9.99999e-01,9.99997e-01,2.02547e-03,9.99999e-01
4.246711247e-01,2.28944e-03,9.99999e-01,9.99999e-01,9.99997e-01,2.28944e-03,9.99999e-01
4.267944804e-01,2.58155e-03,9.99999e-01,9.99999e-01,9.99996e-01,2.58155e-03,9.99999e-01
4.289284528e-01,2.90404e-03,9.99999e-01,9.99999e-01,9.99997e-01,2.90404e-03,9.99999e-01
4.310730950e-01,3.25923e-03,9.99999e-01,9.99999e-01,9.99998e-01,3.25923e-03,9.99999e-01
4.332284605e-01,3.64953e-03,9.99999e-01,9.99999e-01,9.99999e-01,3.64953e-03,9.99999e-01
4.353946028e-01,4.07745e-03,9.99999e-01,9.99999e-01,9.99999e-01,4.07745e-03,9.99999e-01
4.375715758e-01,4.54558e-03,9.99999e-01,9.99999e-01,9.99997e-01,4.54558e-03,9.99999e-01
4.397594337e-01,5.05651e-03,9.99999e-01,9.99999e-01,9.99983e-01,5.05659e-03,9.99999e-01
4.419582309e-01,5.61276e-03,9.99999e-01,9.99999e-01,9.99916e-01,5.61323e-03,9.99999e-01
4.441680220e-01,6.21790e-03,9.99999e-01,9.99999e-01,9.99935e-01,6.21829e-03,9.99999e-01
4.463888621e-01,6.87421e-03,9.99999e-01,9.99999e-01,9.99932e-01,6.87467e-03,9.99999e-01
4.486208064e-01,7.58496e-03,9.99999e-01,9.99999e-01,9.99958e-01,7.58527e-03,9.99999e-01
4.508639105e-01,8.35293e-03,9.99999e-01,9.99999e-01,9.99980e-01,8.35309e-03,9.99999e-01
4.531182300e-01,9.18105e-03,9.99999e-01,9.99999e-01,9.99991e-01,9.18112e-03,9.99999e-01
4.553838212e-01,1.00724e-02,9.99999e-01,9.99999e-01,9.99994e-01,1.00724e-02,9.99999e-01
4.576607403e-01,1.10300e-02,9.99999e-01,9.99999e-01,9.99997e-01,1.10300e-02,9.99999e-01
4.599490440e-01,1.20570e-02,9.99999e-01,9.99999e-01,9.99997e-01,1.20570e-02,9.99999e-01
4.622487892e-01,1.31565e-02,9.99999e-01,9.99999e-01,9.99999e-01,1.31565e-02,9.99999e-01
4.645600332e-01,1.43315e-02,9.99999e-01,9.99999e-01,9.99998e-01,1.43315e-02,9.99999e-01
4.668828333e-01,1.55848e-02,9.99999e-01,9.99999e-01,9.99979e-01,1.55851e-02,9.99999e-01
4.692172475e-01,1.69196e-02,9.99999e-01,9.99999e-01,9.99957e-01,1.69203e-02,9.99999e-01
4.715633337e-01,1.83396e-02,9.99999e-01,9.99999e-01,9.99972e-01,1.83401e-02,9.99999e-01
4.739211504e-01,1.98469e-02,9.99999e-01,9.99999e-01,9.99973e-01,1.98474e-02,9.99999e-01
4.762907561e-01,2.14448e-02,9.99999e-01,9.99999e-01,9.99985e-01,2.14451e-02,9.99999e-01
4.786722099e-01,2.31359e-02,9.99999e-01,9.99999e-01,9.99993e-01,2.31360e-02,9.99999e-01
4.810655710e-01,2.49228e-02,9.99999e-01,9.99999e-01,9.99997e-01,2.49229e-02,9.99999e-01
4.834708988e-01,2.68079e-02,9.99999e-01,9.99999e-01,9.99983e-01,2.68083e-02,9.99999e-01
4.858882533e-01,2.87940e-02,9.99999e-01,9.99999e-01,9.99969e-01,2.87949e-02,9.99999e-01
4.883176946e-01,3.08842e-02,9.99999e-01,9.99999e-01,9.99974e-01,3.08850e-02,9.99999e-01
4.907592831e-01,3.30803e-02,9.99999e-01,9.99999e-01,9.99977e-01,3.30810e-02,9.99999e-01
4.932130795e-01,3.53846e-02,9.99999e-01,9.99999e-01,9.99983e-01,3.53851e-02,9.99999e-01
4.956791449e-01,3.77991e-02,9.99999e-01,9.99999e-01,9.99991e-01,3.77994e-02,9.99999e-01
4.981575406e-01,4.03241e-02,9.99999e-01,9.99999e-01,9.99957e-01,4.03258e-02,9.99999e-01
5.006483283e-01,4.29614e-02,9.99999e-01,9.99999e-01,9.99890e-01,4.29661e-02,9.99998e-01
5.031515699e-01,4.56965e-02,9.99999e-01,9.99999e-01,9.99446e-01,4.57220e-02,9.99993e-01
5.056673278e-01,4.85805e-02,9.99999e-01,9.99999e-01,9.99708e-01,4.85950e-02,9.99992e-01
5.081956644e-01,5.15671e-02,9.99999e-01,9.99999e-01,9.99631e-01,5.15863e-02,9.99995e-01
5.107366428e-01,5.46836e-02,9.99999e-01,9.99999e-01,9.99751e-01,5.46972e-02,9.99998e-01
5.132903260e-01,5.79204e-02,9.99999e-01,9.99999e-01,9.99857e-01,5.79286e-02,9.99999e-01
5.158567776e-01,6.12778e-02,9.99999e-01,9.99999e-01,9.99939e-01,6.12815e-02,9.99999e-01
5.184360615e-01,6.47548e-02,9.99999e-01,9.99999e-01,9.99975e-01,6.47564e-02,9.99999e-01
5.210282418e-01,6.83532e-02,9.99999e-01,9.99999e-01,9.99990e-01,6.83538e-02,9.99999e-01
5.236333830e-01,7.20714e-02,9.99999e-01,9.99999e-01,9.99963e-01,7.20740e-02,9.99999e-01
5.262515499e-01,7.59155e-02,9.99999e-01,9.99999e-01,9.99976e-01,7.59173e-02,9.99999e-01
5.288828077e-01,7.98817e-02,9.99999e-01,9.99999e-01,9.99978e-01,7.98834e-02,9.99999e-01
5.315272217e-01,8.39707e-02,9.99999e-01,9.99999e-01,9.99981e-01,8.39723e-02,9.99999e-01
5.341848578e-01,8.81823e-02,9.99999e-01,9.99999e-01,9.99987e-01,8.81834e-02,9.99999e-01
5.368557821e-01,9.25124e-02,9.99999e-01,9.99999e-01,9.99957e-01,9.25163e-02,9.99999e-01
5.395400610e-01,9.69552e-02,9.99999e-01,9.99999e-01,9.99847e-01,9.69701e-02,9.99998e-01
5.422377613e-01,1.01524e-01,9.99999e-01,9.99999e-01,9.99804e-01,1.01544e-01,9.99995e-01
5.449489501e-01,1.06217e-01,9.99999e-01,9.99999e-01,9.99817e-01,1.06237e-01,9.99995e-01
5.476736949e-01,1.11029e-01,9.99999e-01,9.99999e-01,9.99838e-01,1.11047e-01,9.99997e-01
5.504120634e-01,1.15961e-01,9.99999e-01,9.99999e-01,9.99882e-01,1.15974e-01,9.99999e-01
5.531641237e-01,1.21009e-01,9.99999e-01,9.99999e-01,9.99940e-01,1.21016e-01,9.99999e-01
5.559299443e-01,1.26167e-01,9.99999e-01,9.99999e-01,9.99971e-01,1.26171e-01,9.99999e-01
5.587095940e-01,1.31435e-01,9.99999e-01,9.99999e-01,9.99981e-01,1.31437e-01,9.99999e-01
5.615031420e-01,1.36810e-01,9.99999e-01,9.99999e-01,9.99979e-01,1.36812e-01,9.99999e-01
5.643106577e-01,1.42292e-01,9.99999e-01,9.99999e-01,9.99976e-01,1.42295e-01,9.99999e-01
5.671322110e-01,1.47841e-01,9.99999e-01,9.99999e-01,9.99724e-01,1.47882e-01,9.99997e-01
5.699678720e-01,1.53526e-01,9.99999e-01,9.99999e-01,9.99709e-01,1.53572e-01,9.99992e-01
5.728177114e-01,1.59313e-01,9.99999e-01,9.99999e-01,9.99696e-01,1.59362e-01,9.99993e-01
5.756818000e-01,1.65203e-01,9.99999e-01,9.99999e-01,9.99721e-01,1.65249e-01,9.99995e-01
5.785602090e-01,1.71190e-01,9.99999e-01,9.99999e-01,9.99757e-01,1.71231e-01,9.99998e-01
5.814530100e-01,1.77262e-01,9.99999e-01,9.99999e-01,9.99756e-01,1.77305e-01,9.99998e-01
5.843602750e-01,1.83415e-01,9.99999e-01,9.99999e-01,9.99708e-01,1.83468e-01,9.99997e-01
5.872820764e-01,1.89239e-01,9.99999e-01,9.99999e-01,9.97493e-01,1.89718e-01,9.99981e-01
5.902184868e-01,1.95448e-01,9.99999e-01,9.99999e-01,9.96975e-01,1.96050e-01,9.99951e-01
5.931695792e-01,2.02020e-01,9.99999e-01,9.99999e-01,9.97859e-01,2.02462e-01,9.99953e-01
5.961354271e-01,2.08456e-01,9.99999e-01,9.99999e-01,9.97656e-01,2.08951e-01,9.99973e-01
5.991161043e-01,2.15145e-01,9.99999e-01,9.99999e-01,9.98291e-01,2.15514e-01,9.99991e-01
6.021116848e-01,2.21932e-01,9.99999e-01,9.99999e-01,9.99030e-01,2.22148e-01,9.99998e-01
6.051222432e-01,2.28736e-01,9.99999e-01,9.99999e-01,9.99509e-01,2.28848e-01,9.99999e-01
6.081478544e-01,2.35562e-01,9.99999e-01,9.99999e-01,9.99788e-01,2.35612e-01,9.99999e-01
6.111885937e-01,2.42415e-01,9.99999e-01,9.99999e-01,9.99910e-01,2.42437e-01,9.99999e-01
6.142445367e-01,2.49308e-01,9.99999e-01,9.99999e-01,9.99959e-01,2.49318e-01,9.99999e-01
6.173157594e-01,2.56248e-01,9.99999e-01,9.99999e-01,9.99977e-01,2.56253e-01,9.99999e-01
6.204023382e-01,2.63234e-01,9.99999e-01,9.99999e-01,9.99980e-01,2.63239e-01,9.99999e-01
6.235043498e-01,2.70249e-01,9.99999e-01,9.99999e-01,9.99916e-01,2.70271e-01,9.99999e-01
6.266218716e-01,2.77225e-01,9.99999e-01,9.99999e-01,9.99563e-01,2.77347e-01,9.99996e-01
6.297549810e-01,2.84415e-01,9.99999e-01,9.99999e-01,9.99839e-01,2.84462e-01,9.99993e-01
6.329037559e-01,2.91521e-01,9.99999e-01,9.99999e-01,9.99684e-01,2.91614e-01,9.99994e-01
6.360682746e-01,2.98718e-01,9.99999e-01,9.99999e-01,9.99730e-01,2.98800e-01,9.99996e-01
6.392486160e-01,3.05908e-01,9.99999e-01,9.99999e-01,9.99651e-01,3.06015e-01,9.99998e-01
6.424448591e-01,3.13110e-01,9.99999e-01,9.99999e-01,9.99531e-01,3.13257e-01,9.99997e-01
6.456570834e-01,3.19822e-01,9.99999e-01,9.99999e-01,9.97827e-01,3.20522e-01,9.99986e-01
6.488853688e-01,3.27277e-01,9.99999e-01,9.99999e-01,9.98416e-01,3.27807e-01,9.99965e-01
6.521297956e-01,3.34559e-01,9.99999e-01,9.99999e-01,9.98385e-01,3.35109e-01,9.99971e-01
6.553904446e-01,3.41866e-01,9.99999e-01,9.99999e-01,9.98390e-01,3.42424e-01,9.99978e-01
6.586673968e-01,3.49267e-01,9.99999e-01,9.99999e-01,9.98623e-01,3.49750e-01,9.99992e-01
6.619607338e-01,3.56810e-01,9.99999e-01,9.99999e-01,9.99233e-01,3.57084e-01,9.99998e-01
6.652705375e-01,3.64254e-01,9.99999e-01,9.99999e-01,9.99539e-01,3.64422e-01,9.99998e-01
6.685968902e-01,3.71688e-01,9.99999e-01,9.99999e-01,9.99804e-01,3.71761e-01,9.99999e-01
6.719398746e-01,3.79061e-01,9.99999e-01,9.99999e-01,9.99900e-01,3.79098e-01,9.99999e-01
6.752995740e-01,3.86411e-01,9.99999e-01,9.99999e-01,9.99945e-01,3.86431e-01,9.99999e-01
6.786760719e-01,3.93727e-01,9.99999e-01,9.99999e-01,9.99921e-01,3.93757e-01,9.99999e-01
6.820694522e-01,4.01020e-01,9.99999e-01,9.99999e-01,9.99866e-01,4.01074e-01,9.99998e-01
6.854797995e-01,4.08306e-01,9.99999e-01,9.99999e-01,9.99828e-01,4.08377e-01,9.99998e-01
6.889071985e-01,4.15490e-01,9.99999e-01,9.99999e-01,9.99581e-01,4.15665e-01,9.99995e-01
6.923517345e-01,4.20053e-01,9.99999e-01,9.99999e-01,9.93214e-01,4.22936e-01,9.99967e-01
6.958134932e-01,4.28649e-01,9.99999e-01,9.99999e-01,9.96497e-01,4.30186e-01,9.99927e-01
6.992925606e-01,4.35918e-01,9.99999e-01,9.99999e-01,9.96644e-01,4.37414e-01,9.99934e-01
7.027890234e-01,4.42760e-01,9.99999e-01,9.99999e-01,9.95872e-01,4.44617e-01,9.99950e-01
7.063029686e-01,4.50213e-01,9.99999e-01,9.99999e-01,9.96528e-01,4.51793e-01,9.99974e-01
7.098344834e-01,4.57404e-01,9.99999e-01,9.99999e-01,9.96668e-01,4.58939e-01,9.99984e-01
7.133836558e-01,4.63961e-01,9.99999e-01,9.99999e-01,9.95537e-01,4.66054e-01,9.99970e-01
7.169505741e-01,4.56291e-01,9.99999e-01,9.99999e-01,9.64616e-01,4.73135e-01,9.99772e-01
7.205353270e-01,4.71675e-01,9.99999e-01,9.99999e-01,9.82678e-01,4.80181e-01,9.99598e-01
7.241380036e-01,4.76265e-01,9.99999e-01,9.99999e-01,9.77913e-01,4.87190e-01,9.99652e-01
7.277586936e-01,4.84167e-01,9.99999e-01,9.99999e-01,9.80055e-01,4.94159e-01,9.99716e-01
7.313974871e-01,4.90439e-01,9.99999e-01,9.99999e-01,9.78877e-01,5.01088e-01,9.99866e-01
7.350544745e-01,5.02062e-01,9.99999e-01,9.99999e-01,9.88408e-01,5.07974e-01,9.99953e-01
7.387297469e-01,5.10411e-01,9.99999e-01,9.99999e-01,9.91465e-01,5.14815e-01,9.99978e-01
7.424233956e-01,5.19430e-01,9.99999e-01,9.99999e-01,9.95821e-01,5.21611e-01,9.99995e-01
7.461355126e-01,5.27021e-01,9.99999e-01,9.99999e-01,9.97464e-01,5.28360e-01,9.99998e-01
7.498661902e-01,5.34430e-01,9.99999e-01,9.99999e-01,9.98820e-01,5.35061e-01,9.99999e-01
7.536155211e-01,5.41397e-01,9.99999e-01,9.99999e-01,9.99420e-01,5.41711e-01,9.99999e-01
7.573835987e-01,5.48147e-01,9.99999e-01,9.99999e-01,9.99701e-01,5.48310e-01,9.99999e-01
7.611705167e-01,5.54755e-01,9.99999e-01,9.99999e-01,9.99814e-01,5.54857e-01,9.99999e-01
7.649763693e-01,5.61286e-01,9.99999e-01,9.99999e-01,9.99883e-01,5.61351e-01,9.99999e-01
7.688012511e-01,5.67744e-01,9.99999e-01,9.99999e-01,9.99918e-01,5.67790e-01,9.99999e-01
7.726452574e-01,5.74135e-01,9.99999e-01,9.99999e-01,9.99932e-01,5.74173e-01,9.99999e-01
7.765084837e-01,5.80445e-01,9.99999e-01,9.99999e-01,9.99904e-01,5.80500e-01,9.99999e-01
7.803910261e-01,5.71359e-01,9.99999e-01,9.74126e-01,9.99589e-01,5.86770e-01,9.99999e-01
7.842929812e-01,5.29723e-01,9.99999e-01,8.94559e-01,9.98566e-01,5.92982e-01,9.99996e-01
7.882144461e-01,5.29908e-01,9.99999e-01,8.87004e-01,9.97057e-01,5.99134e-01,9.99979e-01
7.921555184e-01,5.63749e-01,9.99999e-01,9.32973e-01,9.98389e-01,6.05228e-01,9.99964e-01
7.961162960e-01,5.81982e-01,9.99999e-01,9.54844e-01,9.97140e-01,6.11261e-01,9.99966e-01
8.000968774e-01,5.99958e-01,9.99999e-01,9.75251e-01,9.96706e-01,6.17233e-01,9.99964e-01
8.040973618e-01,6.13084e-01,9.99999e-01,9.87132e-01,9.96703e-01,6.23143e-01,9.99972e-01
8.081178486e-01,6.20593e-01,9.99999e-01,9.94063e-01,9.92557e-01,6.28992e-01,9.99972e-01
8.121584379e-01,6.14110e-01,9.99999e-01,9.98170e-01,9.69297e-01,6.34779e-01,9.99895e-01
8.162192301e-01,6.16816e-01,9.99999e-01,9.99595e-01,9.63778e-01,6.40503e-01,9.99609e-01
8.203003262e-01,6.33981e-01,9.99999e-01,9.99993e-01,9.81598e-01,6.46164e-01,9.99542e-01
8.244018279e-01,6.34974e-01,9.99999e-01,9.99999e-01,9.74596e-01,6.51762e-01,9.99635e-01
8.285238370e-01,6.42784e-01,9.99999e-01,9.99999e-01,9.78199e-01,6.57297e-01,9.99713e-01
8.326664562e-01,6.48106e-01,9.99999e-01,9.99999e-01,9.77993e-01,6.62767e-01,9.99881e-01
8.368297885e-01,6.57643e-01,9.99999e-01,9.99999e-01,9.84265e-01,6.68174e-01,9.99972e-01
8.410139374e-01,6.67195e-01,9.99999e-01,9.99999e-01,9.90629e-01,6.73517e-01,9.99983e-01
8.452190071e-01,6.75667e-01,9.99999e-01,9.99999e-01,9.95399e-01,6.78796e-01,9.99990e-01
8.494451021e-01,6.82176e-01,9.99999e-01,9.99999e-01,9.97325e-01,6.84010e-01,9.99991e-01
8.536923276e-01,6.88069e-01,9.99999e-01,9.99999e-01,9.98419e-01,6.89161e-01,9.99994e-01
8.579607893e-01,6.93570e-01,9.99999e-01,9.99999e-01,9.99025e-01,6.94247e-01,9.99998e-01
8.622505932e-01,6.98837e-01,9.99999e-01,9.99999e-01,9.99381e-01,6.99269e-01,9.99999e-01
8.665618462e-01,6.60183e-01,9.99999e-01,9.37803e-01,9.99616e-01,7.04228e-01,9.99999e-01
8.708946554e-01,5.32628e-01,9.99999e-01,7.51429e-01,9.99560e-01,7.09122e-01,9.99999e-01
8.752491287e-01,5.67855e-01,9.99999e-01,7.95823e-01,9.99412e-01,7.13953e-01,9.99998e-01
8.796253743e-01,6.33946e-01,9.99999e-01,8.82751e-01,9.99185e-01,7.18721e-01,9.99997e-01
8.840235012e-01,6.77611e-01,9.99999e-01,9.37538e-01,9.99070e-01,7.23425e-01,9.99993e-01
8.884436187e-01,7.07424e-01,9.99999e-01,9.74969e-01,9.96583e-01,7.28066e-01,9.99983e-01
8.928858368e-01,6.99506e-01,9.99999e-01,9.89783e-01,9.64648e-01,7.32644e-01,9.99906e-01
8.973502660e-01,6.89784e-01,9.99999e-01,9.97516e-01,9.38470e-01,7.37160e-01,9.99524e-01
9.018370173e-01,7.17301e-01,9.99999e-01,9.99726e-01,9.68197e-01,7.41614e-01,9.99252e-01
9.063462024e-01,7.19448e-01,9.99999e-01,9.92870e-01,9.71802e-01,7.46006e-01,9.99343e-01
9.108779334e-01,7.05732e-01,9.99999e-01,9.83903e-01,9.56452e-01,7.50336e-01,9.99317e-01
9.154323231e-01,7.14366e-01,9.99999e-01,9.96217e-01,9.50748e-01,7.54605e-01,9.99436e-01
9.200094847e-01,6.89977e-01,9.99999e-01,9.44774e-01,9.61236e-01,7.58814e-01,9.99684e-01
9.246095321e-01,6.62260e-01,9.99999e-01,9.23539e-01,9.39181e-01,7.62962e-01,9.99636e-01
9.292325798e-01,4.75469e-01,9.99999e-01,9.39145e-01,6.57517e-01,7.67050e-01,9.98583e-01
9.338787427e-01,4.22839e-01,9.99999e-01,9.41467e-01,5.82945e-01,7.71079e-01,9.94157e-01
9.385481364e-01,5.93754e-01,9.99999e-01,9.56689e-01,8.04793e-01,7.75048e-01,9.93054e-01
9.432408771e-01,5.56160e-01,9.99999e-01,9.73314e-01,7.37123e-01,7.78959e-01,9.94005e-01
9.479570815e-01,5.03914e-01,9.99999e-01,9.86209e-01,6.55529e-01,7.82812e-01,9.95118e-01
9.526968669e-01,5.69470e-01,9.99999e-01,9.93333e-01,7.30654e-01,7.86608e-01,9.97019e-01
9.574603512e-01,5.90807e-01,9.99999e-01,9.97145e-01,7.50699e-01,7.90346e-01,9.98484e-01
9.622476530e-01,6.28039e-01,9.99999e-01,9.99109e-01,7.92457e-01,7.94027e-01,9.98951e-01
9.670588912e-01,6.96930e-01,9.99999e-01,9.99733e-01,8.74576e-01,7.97653e-01,9.99282e-01
9.718941857e-01,7.36557e-01,9.99999e-01,9.99980e-01,9.19792e-01,8.01223e-01,9.99471e-01
9.767536566e-01,7.50484e-01,9.99999e-01,9.99999e-01,9.32957e-01,8.04738e-01,9.99596e-01
9.816374249e-01,7.67648e-01,9.99999e-01,9.99999e-01,9.49958e-01,8.08199e-01,9.99859e-01
9.865456120e-01,7.85982e-01,9.99999e-01,9.99999e-01,9.68456e-01,8.11605e-01,9.99970e-01
9.914783401e-01,7.98970e-01,9.99999e-01,9.99999e-01,9.80388e-01,8.14958e-01,9.99991e-01
9.964357318e-01,8.09480e-01,9.99999e-01,9.99999e-01,9.89275e-01,8.18259e-01,9.99994e-01
1.001417910e+00,8.16212e-01,9.99999e-01,9.99999e-01,9.93561e-01,8.21507e-01,9.99992e-01
1.006425000e+00,8.21663e-01,9.99999e-01,9.99999e-01,9.96322e-01,8.24704e-01,9.99989e-01
1.011457125e+00,8.25953e-01,9.99999e-01,9.99999e-01,9.97718e-01,8.27849e-01,9.99989e-01
1.016514411e+00,8.29651e-01,9.99999e-01,9.99999e-01,9.98449e-01,8.30944e-01,9.99992e-01
1.021596983e+00,8.32921e-01,9.99999e-01,9.99959e-01,9.98764e-01,8.33990e-01,9.99992e-01
1.026704968e+00,8.33849e-01,9.99999e-01,9.97216e-01,9.99035e-01,8.36985e-01,9.99995e-01
1.031838492e+00,8.08246e-01,9.99999e-01,9.62931e-01,9.99299e-01,8.39932e-01,9.99998e-01
1.036997685e+00,1.69617e-01,9.99999e-01,2.01314e-01,9.99583e-01,8.42831e-01,9.99999e-01
1.042182673e+00,1.72573e-01,9.99999e-01,2.04155e-01,9.99502e-01,8.45683e-01,9.99999e-01
1.047393587e+00,1.78558e-01,9.99999e-01,2.10566e-01,9.99341e-01,8.48487e-01,9.99999e-01
1.052630555e+00,1.15622e-02,9.99999e-01,1.35921e-02,9.99095e-01,8.51245e-01,9.99999e-01
1.057893707e+00,2.57424e-02,9.99999e-01,3.01777e-02,9.98489e-01,8.53958e-01,9.99998e-01
1.063183176e+00,6.59057e-02,9.99999e-01,7.70817e-02,9.97516e-01,8.56625e-01,9.99998e-01
1.068499092e+00,1.48632e-01,9.99999e-01,1.73610e-01,9.95846e-01,8.59247e-01,9.99996e-01
1.073841587e+00,2.84665e-01,9.99999e-01,3.31727e-01,9.95134e-01,8.61826e-01,9.99993e-01
1.079210795e+00,4.27648e-01,9.99999e-01,4.97654e-01,9.93778e-01,8.64361e-01,9.99982e-01
1.084606849e+00,5.86109e-01,9.99999e-01,6.82364e-01,9.90585e-01,8.66853e-01,9.99959e-01
1.090029883e+00,7.03477e-01,9.99999e-01,8.20187e-01,9.86464e-01,8.69303e-01,9.99916e-01
1.095480033e+00,7.61996e-01,9.99999e-01,9.07057e-01,9.63567e-01,8.71711e-01,9.99849e-01
1.100957433e+00,7.58893e-01,9.99999e-01,9.54117e-01,9.09895e-01,8.74079e-01,9.99724e-01
1.106462220e+00,6.75592e-01,9.99999e-01,9.80783e-01,7.85923e-01,8.76405e-01,9.99532e-01
1.111994531e+00,5.25448e-01,9.99999e-01,9.92835e-01,6.02814e-01,8.78692e-01,9.98759e-01
1.117554504e+00,3.85803e-01,9.99999e-01,9.98250e-01,4.40570e-01,8.80940e-01,9.95529e-01
1.123142276e+00,4.77444e-01,9.99999e-01,9.99885e-01,5.46426e-01,8.83148e-01,9.89431e-01
1.128757988e+00,5.94193e-01,9.99999e-01,9.99999e-01,6.79462e-01,8.85318e-01,9.87784e-01
1.134401778e+00,3.70866e-01,9.99999e-01,9.99999e-01,4.22290e-01,8.87451e-01,9.89603e-01
1.140073787e+00,7.00983e-01,9.99999e-01,9.99999e-01,7.94630e-01,8.89547e-01,9.91684e-01
1.145774156e+00,5.47444e-01,9.99999e-01,9.99999e-01,6.18708e-01,8.91606e-01,9.92385e-01
1.151503026e+00,5.20606e-01,9.99999e-01,9.99999e-01,5.85060e-01,8.93628e-01,9.95750e-01
1.157260541e+00,5.73269e-01,9.99999e-01,9.99999e-01,6.40898e-01,8.95616e-01,9.98727e-01
1.163046844e+00,6.46187e-01,9.99999e-01,9.99999e-01,7.20190e-01,8.97568e-01,9.99638e-01
1.168862078e+00,7.16290e-01,9.99999e-01,9.99999e-01,7.96480e-01,8.99486e-01,9.99813e-01
1.174706389e+00,7.83091e-01,9.99999e-01,9.99999e-01,8.68991e-01,9.01370e-01,9.99753e-01
1.180579921e+00,8.28934e-01,9.99999e-01,9.99999e-01,9.18094e-01,9.03221e-01,9.99627e-01
1.186482820e+00,8.62058e-01,9.99999e-01,9.99993e-01,9.52878e-01,9.05039e-01,9.99617e-01
1.192415234e+00,8.72677e-01,9.99999e-01,9.90034e-01,9.72228e-01,9.06824e-01,9.99713e-01
1.198377311e+00,5.07151e-01,9.99999e-01,5.69542e-01,9.76523e-01,9.08578e-01,9.99729e-01
1.204369197e+00,7.71977e-09,9.99999e-01,8.59325e-09,9.77772e-01,9.10300e-01,9.99754e-01
1.210391043e+00,1.54056e-30,9.99999e-01,1.70973e-30,9.78740e-01,9.11991e-01,9.99850e-01
1.216442998e+00,1.17106e-26,9.99999e-01,1.29641e-26,9.81902e-01,9.13652e-01,9.99908e-01
1.222525213e+00,2.79889e-26,9.99999e-01,3.08062e-26,9.85882e-01,9.15283e-01,9.99942e-01
1.228637839e+00,2.52259e-20,9.99999e-01,2.77043e-20,9.90175e-01,9.16885e-01,9.99973e-01
