#,Wave/freq,Total,N2,CO2,H2O,Rayleigh,CIA
4.000000000e-01,2.38280e-02,9.99999e-01,9.99999e-01,9.99992e-01,2.38282e-02,9.99999e-01
4.020000000e-01,2.56554e-02,9.99999e-01,9.99999e-01,9.99995e-01,2.56555e-02,9.99999e-01
4.040100000e-01,2.75805e-02,9.99999e-01,9.99999e-01,9.99997e-01,2.75805e-02,9.99999e-01
4.060300500e-01,2.96077e-02,9.99999e-01,9.99999e-01,9.99999e-01,2.96077e-02,9.99999e-01
4.080602003e-01,3.17393e-02,9.99999e-01,9.99999e-01,9.99999e-01,3.17394e-02,9.99999e-01
4.101005013e-01,3.39778e-02,9.99999e-01,9.99999e-01,9.99999e-01,3.39778e-02,9.99999e-01
4.121510038e-01,3.63252e-02,9.99999e-01,9.99999e-01,9.99999e-01,3.63252e-02,9.99999e-01
4.142117588e-01,3.87834e-02,9.99999e-01,9.99999e-01,9.99997e-01,3.87835e-02,9.99999e-01
4.162828176e-01,4.13543e-02,9.99999e-01,9.99999e-01,9.99990e-01,4.13547e-02,9.99999e-01
4.183642317e-01,4.40402e-02,9.99999e-01,9.99999e-01,9.99994e-01,4.40405e-02,9.99999e-01
4.204560528e-01,4.68423e-02,9.99999e-01,9.99999e-01,9.99996e-01,4.68424e-02,9.99999e-01
4.225583331e-01,4.97619e-02,9.99999e-01,9.99999e-01,9.99998e-01,4.97620e-02,9.99999e-01
4.246711247e-01,5.28003e-02,9.99999e-01,9.99999e-01,9.99998e-01,5.28004e-02,9.99999e-01
4.267944804e-01,5.59587e-02,9.99999e-01,9.99999e-01,9.99998e-01,5.59587e-02,9.99999e-01
4.289284528e-01,5.92380e-02,9.99999e-01,9.99999e-01,9.99998e-01,5.92380e-02,9.99999e-01
4.310730950e-01,6.26390e-02,9.99999e-01,9.99999e-01,9.99999e-01,6.26390e-02,9.99999e-01
4.332284605e-01,6.61622e-02,9.99999e-01,9.99999e-01,9.99999e-01,6.61622e-02,9.99999e-01
4.353946028e-01,6.98081e-02,9.99999e-01,9.99999e-01,9.99999e-01,6.98081e-02,9.99999e-01
4.375715758e-01,7.35769e-02,9.99999e-01,9.99999e-01,9.99998e-01,7.35769e-02,9.99999e-01
4.397594337e-01,7.74681e-02,9.99999e-01,9.99999e-01,9.99991e-01,7.74687e-02,9.99999e-01
4.419582309e-01,8.14801e-02,9.99999e-01,9.99999e-01,9.99959e-01,8.14833e-02,9.99999e-01
4.441680220e-01,8.56179e-02,9.99999e-01,9.99999e-01,9.99968e-01,8.56205e-02,9.99999e-01
4.463888621e-01,8.98769e-02,9.99999e-01,9.99999e-01,9.99967e-01,8.98798e-02,9.99999e-01
4.486208064e-01,9.42587e-02,9.99999e-01,9.99999e-01,9.99979e-01,9.42605e-02,9.99999e-01
4.508639105e-01,9.87610e-02,9.99999e-01,9.99999e-01,9.99990e-01,9.87619e-02,9.99999e-01
4.531182300e-01,1.03383e-01,9.99999e-01,9.99999e-01,9.99995e-01,1.03383e-01,9.99999e-01
4.553838212e-01,1.08122e-01,9.99999e-01,9.99999e-01,9.99996e-01,1.08122e-01,9.99999e-01
4.576607403e-01,1.12979e-01,9.99999e-01,9.99999e-01,9.99998e-01,1.12979e-01,9.99999e-01
4.599490440e-01,1.17952e-01,9.99999e-01,9.99999e-01,9.99998e-01,1.17952e-01,9.99999e-01
4.622487892e-01,1.23038e-01,9.99999e-01,9.99999e-01,9.99999e-01,1.23038e-01,9.99999e-01
4.645600332e-01,1.28237e-01,9.99999e-01,9.99999e-01,9.99998e-01,1.28237e-01,9.99999e-01
4.668828333e-01,1.33545e-01,9.99999e-01,9.99999e-01,9.99990e-01,1.33547e-01,9.99999e-01
4.692172475e-01,1.38962e-01,9.99999e-01,9.99999e-01,9.99979e-01,1.38965e-01,9.99999e-01
4.715633337e-01,1.44487e-01,9.99999e-01,9.99999e-01,9.99986e-01,1.44489e-01,9.99999e-01
4.739211504e-01,1.50115e-01,9.99999e-01,9.99999e-01,9.99986e-01,1.50117e-01,9.99999e-01
4.762907561e-01,1.55845e-01,9.99999e-01,9.99999e-01,9.99992e-01,1.55846e-01,9.99999e-01
4.786722099e-01,1.61675e-01,9.99999e-01,9.99999e-01,9.99996e-01,1.61675e-01,9.99999e-01
4.810655710e-01,1.67600e-01,9.99999e-01,9.99999e-01,9.99998e-01,1.67600e-01,9.99999e-01
4.834708988e-01,1.73617e-01,9.99999e-01,9.99999e-01,9.99991e-01,1.73619e-01,9.99999e-01
4.858882533e-01,1.79726e-01,9.99999e-01,9.99999e-01,9.99985e-01,1.79728e-01,9.99999e-01
4.883176946e-01,1.85924e-01,9.99999e-01,9.99999e-01,9.99987e-01,1.85926e-01,9.99999e-01
4.907592831e-01,1.92206e-01,9.99999e-01,9.99999e-01,9.99988e-01,1.92208e-01,9.99999e-01
4.932130795e-01,1.98571e-01,9.99999e-01,9.99999e-01,9.99991e-01,1.98573e-01,9.99999e-01
4.956791449e-01,2.05015e-01,9.99999e-01,9.99999e-01,9.99995e-01,2.05016e-01,9.99999e-01
4.981575406e-01,2.11530e-01,9.99999e-01,9.99999e-01,9.99979e-01,2.11534e-01,9.99999e-01
5.006483283e-01,2.18114e-01,9.99999e-01,9.99999e-01,9.99946e-01,2.18125e-01,9.99999e-01
5.031515699e-01,2.24725e-01,9.99999e-01,9.99999e-01,9.99732e-01,2.24786e-01,9.99996e-01
5.056673278e-01,2.31478e-01,9.99999e-01,9.99999e-01,9.99858e-01,2.31512e-01,9.99996e-01
5.081956644e-01,2.38257e-01,9.99999e-01,9.99999e-01,9.99821e-01,2.38300e-01,9.99997e-01
5.107366428e-01,2.45118e-01,9.99999e-01,9.99999e-01,9.99879e-01,2.45147e-01,9.99999e-01
5.132903260e-01,2.52033e-01,9.99999e-01,9.99999e-01,9.99930e-01,2.52051e-01,9.99999e-01
5.158567776e-01,2.58998e-01,9.99999e-01,9.99999e-01,9.99970e-01,2.59006e-01,9.99999e-01
5.184360615e-01,2.66007e-01,9.99999e-01,9.99999e-01,9.99987e-01,2.66010e-01,9.99999e-01
5.210282418e-01,2.73059e-01,9.99999e-01,9.99999e-01,9.99995e-01,2.73060e-01,9.99999e-01
5.236333830e-01,2.80147e-01,9.99999e-01,9.99999e-01,9.99982e-01,2.80152e-01,9.99999e-01
5.262515499e-01,2.87279e-01,9.99999e-01,9.99999e-01,9.99988e-01,2.87282e-01,9.99999e-01
5.288828077e-01,2.94445e-01,9.99999e-01,9.99999e-01,9.99989e-01,2.94448e-01,9.99999e-01
5.315272217e-01,3.01643e-01,9.99999e-01,9.99999e-01,9.99990e-01,3.01645e-01,9.99999e-01
5.341848578e-01,3.08870e-01,9.99999e-01,9.99999e-01,9.99993e-01,3.08872e-01,9.99999e-01
5.368557821e-01,3.16117e-01,9.99999e-01,9.99999e-01,9.99979e-01,3.16123e-01,9.99999e-01
5.395400610e-01,3.23373e-01,9.99999e-01,9.99999e-01,9.99926e-01,3.23396e-01,9.99998e-01
5.422377613e-01,3.30657e-01,9.99999e-01,9.99999e-01,9.99904e-01,3.30689e-01,9.99997e-01
5.449489501e-01,3.37966e-01,9.99999e-01,9.99999e-01,9.99911e-01,3.37996e-01,9.99997e-01
5.476736949e-01,3.45289e-01,9.99999e-01,9.99999e-01,9.99921e-01,3.45316e-01,9.99998e-01
5.504120634e-01,3.52625e-01,9.99999e-01,9.99999e-01,9.99942e-01,3.52645e-01,9.99999e-01
5.531641237e-01,3.59971e-01,9.99999e-01,9.99999e-01,9.99971e-01,3.59981e-01,9.99999e-01
5.559299443e-01,3.67314e-01,9.99999e-01,9.99999e-01,9.99985e-01,3.67320e-01,9.99999e-01
5.587095940e-01,3.74655e-01,9.99999e-01,9.99999e-01,9.99990e-01,3.74658e-01,9.99999e-01
5.615031420e-01,3.81991e-01,9.99999e-01,9.99999e-01,9.99989e-01,3.81995e-01,9.99999e-01
5.643106577e-01,3.89321e-01,9.99999e-01,9.99999e-01,9.99988e-01,3.89325e-01,9.99999e-01
5.671322110e-01,3.96595e-01,9.99999e-01,9.99999e-01,9.99867e-01,3.96648e-01,9.99998e-01
5.699678720e-01,4.03901e-01,9.99999e-01,9.99999e-01,9.99858e-01,4.03959e-01,9.99995e-01
5.728177114e-01,4.11196e-01,9.99999e-01,9.99999e-01,9.99853e-01,4.11257e-01,9.99996e-01
5.756818000e-01,4.18482e-01,9.99999e-01,9.99999e-01,9.99865e-01,4.18539e-01,9.99997e-01
5.785602090e-01,4.25751e-01,9.99999e-01,9.99999e-01,9.99882e-01,4.25801e-01,9.99998e-01
5.814530100e-01,4.32992e-01,9.99999e-01,9.99999e-01,9.99881e-01,4.33043e-01,9.99999e-01
5.843602750e-01,4.40199e-01,9.99999e-01,9.99999e-01,9.99859e-01,4.40261e-01,9.99998e-01
5.872820764e-01,4.46909e-01,9.99999e-01,9.99999e-01,9.98790e-01,4.47454e-01,9.99991e-01
5.902184868e-01,4.53941e-01,9.99999e-01,9.99999e-01,9.98533e-01,4.54618e-01,9.99976e-01
5.931695792e-01,4.61264e-01,9.99999e-01,9.99999e-01,9.98964e-01,4.61752e-01,9.99977e-01
5.961354271e-01,4.68316e-01,9.99999e-01,9.99999e-01,9.98864e-01,4.68854e-01,9.99986e-01
5.991161043e-01,4.75526e-01,9.99999e-01,9.99999e-01,9.99171e-01,4.75922e-01,9.99995e-01
6.021116848e-01,4.82726e-01,9.99999e-01,9.99999e-01,9.99529e-01,4.82953e-01,9.99999e-01
6.051222432e-01,4.89830e-01,9.99999e-01,9.99999e-01,9.99761e-01,4.89947e-01,9.99999e-01
6.081478544e-01,4.96849e-01,9.99999e-01,9.99999e-01,9.99897e-01,4.96900e-01,9.99999e-01
6.111885937e-01,5.03790e-01,9.99999e-01,9.99999e-01,9.99956e-01,5.03812e-01,9.99999e-01
6.142445367e-01,5.10671e-01,9.99999e-01,9.99999e-01,9.99980e-01,5.10681e-01,9.99999e-01
6.173157594e-01,5.17499e-01,9.99999e-01,9.99999e-01,9.99988e-01,5.17505e-01,9.99999e-01
6.204023382e-01,5.24277e-01,9.99999e-01,9.99999e-01,9.99990e-01,5.24282e-01,9.99999e-01
6.235043498e-01,5.30991e-01,9.99999e-01,9.99999e-01,9.99959e-01,5.31012e-01,9.99999e-01
6.266218716e-01,5.37579e-01,9.99999e-01,9.99999e-01,9.99788e-01,5.37693e-01,9.99998e-01
6.297549810e-01,5.44280e-01,9.99999e-01,9.99999e-01,9.99922e-01,5.44323e-01,9.99996e-01
6.329037559e-01,5.50816e-01,9.99999e-01,9.99999e-01,9.99846e-01,5.50902e-01,9.99997e-01
6.360682746e-01,5.57355e-01,9.99999e-01,9.99999e-01,9.99869e-01,5.57428e-01,9.99998e-01
6.392486160e-01,5.63805e-01,9.99999e-01,9.99999e-01,9.99831e-01,5.63900e-01,9.99998e-01
6.424448591e-01,5.70188e-01,9.99999e-01,9.99999e-01,9.99774e-01,5.70317e-01,9.99998e-01
6.456570834e-01,5.76071e-01,9.99999e-01,9.99999e-01,9.98952e-01,5.76678e-01,9.99993e-01
6.488853688e-01,5.82526e-01,9.99999e-01,9.99999e-01,9.99232e-01,5.82983e-01,9.99983e-01
6.521297956e-01,5.88761e-01,9.99999e-01,9.99999e-01,9.99216e-01,5.89230e-01,9.99986e-01
6.553904446e-01,5.94949e-01,9.99999e-01,9.99999e-01,9.99221e-01,5.95418e-01,9.99989e-01
6.586673968e-01,6.01145e-01,9.99999e-01,9.99999e-01,9.99332e-01,6.01548e-01,9.99996e-01
6.619607338e-01,6.07383e-01,9.99999e-01,9.99999e-01,9.99614e-01,6.07617e-01,9.99998e-01
6.652705375e-01,6.13489e-01,9.99999e-01,9.99999e-01,9.99776e-01,6.13626e-01,9.99999e-01
6.685968902e-01,6.19510e-01,9.99999e-01,9.99999e-01,9.99895e-01,6.19574e-01,9.99999e-01
6.719398746e-01,6.25431e-01,9.99999e-01,9.99999e-01,9.99951e-01,6.25461e-01,9.99999e-01
6.752995740e-01,6.31269e-01,9.99999e-01,9.99999e-01,9.99973e-01,6.31285e-01,9.99999e-01
6.786760719e-01,6.37023e-01,9.99999e-01,9.99999e-01,9.99962e-01,6.37047e-01,9.99999e-01
6.820694522e-01,6.42705e-01,9.99999e-01,9.99999e-01,9.99935e-01,6.42746e-01,9.99999e-01
6.854797995e-01,6.48328e-01,9.99999e-01,9.99999e-01,9.99916e-01,6.48382e-01,9.99998e-01
6.889071985e-01,6.53823e-01,9.99999e-01,9.99999e-01,9.99799e-01,6.53955e-01,9.99997e-01
6.923517345e-01,6.57292e-01,9.99999e-01,9.99999e-01,9.96721e-01,6.59464e-01,9.99983e-01
6.958134932e-01,6.63751e-01,9.99999e-01,9.99999e-01,9.98290e-01,6.64910e-01,9.99964e-01
6.992925606e-01,6.69185e-01,9.99999e-01,9.99999e-01,9.98379e-01,6.70291e-01,9.99968e-01
7.027890234e-01,6.74241e-01,9.99999e-01,9.99999e-01,9.97998e-01,6.75609e-01,9.99975e-01
7.063029686e-01,6.79709e-01,9.99999e-01,9.99999e-01,9.98317e-01,6.80862e-01,9.99987e-01
7.098344834e-01,6.84940e-01,9.99999e-01,9.99999e-01,9.98386e-01,6.86052e-01,9.99992e-01
7.133836558e-01,6.89682e-01,9.99999e-01,9.99999e-01,9.97850e-01,6.91177e-01,9.99985e-01
7.169505741e-01,6.84137e-01,9.99999e-01,9.99999e-01,9.82726e-01,6.96238e-01,9.99889e-01
7.205353270e-01,6.95148e-01,9.99999e-01,9.99999e-01,9.91511e-01,7.01235e-01,9.99805e-01
7.241380036e-01,6.98462e-01,9.99999e-01,9.99999e-01,9.89251e-01,7.06168e-01,9.99831e-01
7.277586936e-01,7.04041e-01,9.99999e-01,9.99999e-01,9.90294e-01,7.11038e-01,9.99862e-01
7.313974871e-01,7.08418e-01,9.99999e-01,9.99999e-01,9.89689e-01,7.15843e-01,9.99935e-01
7.350544745e-01,7.16509e-01,9.99999e-01,9.99999e-01,9.94363e-01,7.20586e-01,9.99977e-01
7.387297469e-01,7.22250e-01,9.99999e-01,9.99999e-01,9.95852e-01,7.25265e-01,9.99989e-01
7.424233956e-01,7.28399e-01,9.99999e-01,9.99999e-01,9.97969e-01,7.29881e-01,9.99997e-01
7.461355126e-01,7.33532e-01,9.99999e-01,9.99999e-01,9.98769e-01,7.34435e-01,9.99999e-01
7.498661902e-01,7.38503e-01,9.99999e-01,9.99999e-01,9.99426e-01,7.38926e-01,9.99999e-01
7.536155211e-01,7.43147e-01,9.99999e-01,9.99999e-01,9.99718e-01,7.43356e-01,9.99999e-01
7.573835987e-01,7.47615e-01,9.99999e-01,9.99999e-01,9.99855e-01,7.47723e-01,9.99999e-01
7.611705167e-01,7.51962e-01,9.99999e-01,9.99999e-01,9.99909e-01,7.52029e-01,9.99999e-01
7.649763693e-01,7.56232e-01,9.99999e-01,9.99999e-01,9.99943e-01,7.56274e-01,9.99999e-01
7.688012511e-01,7.60429e-01,9.99999e-01,9.99999e-01,9.99960e-01,7.60459e-01,9.99999e-01
7.726452574e-01,7.64559e-01,9.99999e-01,9.99999e-01,9.99967e-01,7.64583e-01,9.99999e-01
7.765084837e-01,7.68613e-01,9.99999e-01,9.99999e-01,9.99953e-01,7.68648e-01,9.99999e-01
7.803910261e-01,7.62615e-01,9.99999e-01,9.87201e-01,9.99801e-01,7.72653e-01,9.99999e-01
7.842929812e-01,7.34726e-01,9.99999e-01,9.46723e-01,9.99308e-01,7.76600e-01,9.99998e-01
7.882144461e-01,7.34836e-01,9.99999e-01,9.42839e-01,9.98575e-01,7.80488e-01,9.99990e-01
7.921555184e-01,7.57768e-01,9.99999e-01,9.66913e-01,9.99218e-01,7.84318e-01,9.99982e-01
7.961162960e-01,7.69523e-01,9.99999e-01,9.77799e-01,9.98619e-01,7.88091e-01,9.99983e-01
8.000968774e-01,7.80980e-01,9.99999e-01,9.87916e-01,9.98405e-01,7.91806e-01,9.99982e-01
8.040973618e-01,7.89204e-01,9.99999e-01,9.93725e-01,9.98404e-01,7.95466e-01,9.99985e-01
8.081178486e-01,7.93893e-01,9.99999e-01,9.97116e-01,9.96405e-01,7.99069e-01,9.99986e-01
8.121584379e-01,7.89875e-01,9.99999e-01,9.99108e-01,9.85048e-01,8.02618e-01,9.99949e-01
8.162192301e-01,7.91489e-01,9.99999e-01,9.99802e-01,9.82237e-01,8.06111e-01,9.99810e-01
8.203003262e-01,8.02141e-01,9.99999e-01,9.99996e-01,9.91069e-01,8.09550e-01,9.99778e-01
8.244018279e-01,8.02607e-01,9.99999e-01,9.99999e-01,9.87468e-01,8.12936e-01,9.99823e-01
8.285238370e-01,8.07498e-01,9.99999e-01,9.99999e-01,9.89392e-01,8.16268e-01,9.99861e-01
8.326664562e-01,8.10705e-01,9.99999e-01,9.99999e-01,9.89266e-01,8.19548e-01,9.99942e-01
8.368297885e-01,8.16461e-01,9.99999e-01,9.99999e-01,9.92338e-01,8.22776e-01,9.99986e-01
8.410139374e-01,8.22184e-01,9.99999e-01,9.99999e-01,9.95444e-01,8.25952e-01,9.99991e-01
8.452190071e-01,8.27221e-01,9.99999e-01,9.99999e-01,9.97765e-01,8.29077e-01,9.99994e-01
8.494451021e-01,8.31072e-01,9.99999e-01,9.99999e-01,9.98703e-01,8.32153e-01,9.99995e-01
8.536923276e-01,8.34536e-01,9.99999e-01,9.99999e-01,9.99233e-01,8.35178e-01,9.99997e-01
8.579607893e-01,8.37759e-01,9.99999e-01,9.99999e-01,9.99527e-01,8.38155e-01,9.99998e-01
8.622505932e-01,8.40831e-01,9.99999e-01,9.99999e-01,9.99699e-01,8.41083e-01,9.99999e-01
8.665618462e-01,8.13548e-01,9.99999e-01,9.64136e-01,9.99814e-01,8.43963e-01,9.99999e-01
8.708946554e-01,7.34652e-01,9.99999e-01,8.67747e-01,9.99787e-01,8.46796e-01,9.99999e-01
8.752491287e-01,7.59077e-01,9.99999e-01,8.93722e-01,9.99715e-01,8.49582e-01,9.99999e-01
8.796253743e-01,8.01676e-01,9.99999e-01,9.40945e-01,9.99606e-01,8.52322e-01,9.99998e-01
8.840235012e-01,8.28252e-01,9.99999e-01,9.69132e-01,9.99550e-01,8.55016e-01,9.99996e-01
8.884436187e-01,8.45766e-01,9.99999e-01,9.87745e-01,9.98361e-01,8.57666e-01,9.99991e-01
8.928858368e-01,8.41215e-01,9.99999e-01,9.95024e-01,9.82766e-01,8.60271e-01,9.99954e-01
8.973502660e-01,8.35425e-01,9.99999e-01,9.98789e-01,9.69623e-01,8.62832e-01,9.99769e-01
9.018370173e-01,8.51399e-01,9.99999e-01,9.99866e-01,9.84363e-01,8.65350e-01,9.99638e-01
9.063462024e-01,8.52731e-01,9.99999e-01,9.96564e-01,9.86268e-01,8.67826e-01,9.99682e-01
9.108779334e-01,8.44748e-01,9.99999e-01,9.92155e-01,9.78648e-01,8.70259e-01,9.99669e-01
9.154323231e-01,8.49745e-01,9.99999e-01,9.98153e-01,9.75803e-01,8.72651e-01,9.99726e-01
9.200094847e-01,8.34807e-01,9.99999e-01,9.72341e-01,9.80974e-01,8.75002e-01,9.99846e-01
9.246095321e-01,8.18877e-01,9.99999e-01,9.62106e-01,9.70059e-01,8.77313e-01,9.99823e-01
9.292325798e-01,6.94612e-01,9.99999e-01,9.70019e-01,8.13573e-01,8.79584e-01,9.99314e-01
9.338787427e-01,6.54136e-01,9.99999e-01,9.71099e-01,7.65026e-01,8.81816e-01,9.97168e-01
9.385481364e-01,7.74785e-01,9.99999e-01,9.78746e-01,8.98058e-01,8.84010e-01,9.96633e-01
9.432408771e-01,7.49279e-01,9.99999e-01,9.86957e-01,8.58944e-01,8.86165e-01,9.97095e-01
9.479570815e-01,7.11005e-01,9.99999e-01,9.93291e-01,8.07613e-01,8.88283e-01,9.97635e-01
9.526968669e-01,7.57371e-01,9.99999e-01,9.96759e-01,8.54522e-01,8.90364e-01,9.98556e-01
9.574603512e-01,7.73708e-01,9.99999e-01,9.98613e-01,8.68798e-01,8.92409e-01,9.99266e-01
9.622476530e-01,7.97482e-01,9.99999e-01,9.99567e-01,8.92450e-01,8.94417e-01,9.99492e-01
9.670588912e-01,8.39271e-01,9.99999e-01,9.99870e-01,9.36721e-01,8.96391e-01,9.99652e-01
9.718941857e-01,8.62390e-01,9.99999e-01,9.99990e-01,9.60245e-01,8.98330e-01,9.99744e-01
9.767536566e-01,8.70274e-01,9.99999e-01,9.99999e-01,9.66907e-01,9.00234e-01,9.99804e-01
9.816374249e-01,8.79856e-01,9.99999e-01,9.99999e-01,9.75401e-01,9.02105e-01,9.99931e-01
9.865456120e-01,8.89989e-01,9.99999e-01,9.99999e-01,9.84576e-01,9.03942e-01,9.99985e-01
9.914783401e-01,8.97092e-01,9.99999e-01,9.99999e-01,9.90447e-01,9.05747e-01,9.99995e-01
9.964357318e-01,9.02789e-01,9.99999e-01,9.99999e-01,9.94788e-01,9.07520e-01,9.99997e-01
1.001417910e+00,9.06417e-01,9.99999e-01,9.99999e-01,9.96874e-01,9.09261e-01,9.99996e-01
1.006425000e+00,9.09344e-01,9.99999e-01,9.99999e-01,9.98217e-01,9.10971e-01,9.99994e-01
1.011457125e+00,9.11637e-01,9.99999e-01,9.99999e-01,9.98893e-01,9.12651e-01,9.99994e-01
1.016514411e+00,9.13610e-01,9.99999e-01,9.99999e-01,9.99248e-01,9.14300e-01,9.99996e-01
1.021596983e+00,9.15352e-01,9.99999e-01,9.99981e-01,9.99401e-01,9.15919e-01,9.99996e-01
1.026704968e+00,9.15857e-01,9.99999e-01,9.98666e-01,9.99532e-01,9.17510e-01,9.99997e-01
1.031838492e+00,8.99222e-01,9.99999e-01,9.78729e-01,9.99660e-01,9.19071e-01,9.99998e-01
1.036997685e+00,3.33969e-01,9.99999e-01,3.62834e-01,9.99798e-01,9.20605e-01,9.99999e-01
1.042182673e+00,4.14926e-01,9.99999e-01,4.50076e-01,9.99759e-01,9.22110e-01,9.99999e-01
1.047393587e+00,3.68371e-01,9.99999e-01,3.98964e-01,9.99681e-01,9.23588e-01,9.99999e-01
1.052630555e+00,8.83316e-02,9.99999e-01,9.55237e-02,9.99562e-01,9.25039e-01,9.99999e-01
1.057893707e+00,1.50371e-01,9.99999e-01,1.62404e-01,9.99270e-01,9.26464e-01,9.99999e-01
1.063183176e+00,2.50432e-01,9.99999e-01,2.70177e-01,9.98798e-01,9.27863e-01,9.99998e-01
1.068499092e+00,3.91769e-01,9.99999e-01,4.22394e-01,9.97988e-01,9.29236e-01,9.99998e-01
1.073841587e+00,5.39284e-01,9.99999e-01,5.80785e-01,9.97645e-01,9.30584e-01,9.99996e-01
1.079210795e+00,6.60090e-01,9.99999e-01,7.10396e-01,9.96983e-01,9.31908e-01,9.99991e-01
1.084606849e+00,7.71180e-01,9.99999e-01,8.30114e-01,9.95435e-01,9.33207e-01,9.99980e-01
1.090029883e+00,8.43157e-01,9.99999e-01,9.08199e-01,9.93447e-01,9.34482e-01,9.99959e-01
1.095480033e+00,8.76570e-01,9.99999e-01,9.53717e-01,9.82235e-01,9.35733e-01,9.99927e-01
1.100957433e+00,8.74912e-01,9.99999e-01,9.77471e-01,9.55342e-01,9.36962e-01,9.99866e-01
1.106462220e+00,8.26513e-01,9.99999e-01,9.90626e-01,8.89410e-01,9.38168e-01,9.99773e-01
1.111994531e+00,7.29636e-01,9.99999e-01,9.96517e-01,7.79851e-01,9.39351e-01,9.99399e-01
1.117554504e+00,6.25094e-01,9.99999e-01,9.99148e-01,6.66597e-01,9.40513e-01,9.97834e-01
1.123142276e+00,6.89898e-01,9.99999e-01,9.99943e-01,7.36452e-01,9.41653e-01,9.94873e-01
1.128757988e+00,7.73389e-01,9.99999e-01,9.99999e-01,8.25227e-01,9.42772e-01,9.94071e-01
1.134401778e+00,5.83224e-01,9.99999e-01,9.99999e-01,6.21039e-01,9.43870e-01,9.94956e-01
1.140073787e+00,8.41005e-01,9.99999e-01,9.99999e-01,8.93604e-01,9.44947e-01,9.95968e-01
1.145774156e+00,7.42634e-01,9.99999e-01,9.99999e-01,7.87928e-01,9.46005e-01,9.96308e-01
1.151503026e+00,7.22951e-01,9.99999e-01,9.99999e-01,7.64951e-01,9.47043e-01,9.97941e-01
1.157260541e+00,7.61872e-01,9.99999e-01,9.99999e-01,8.04105e-01,9.48061e-01,9.99383e-01
1.163046844e+00,8.08176e-01,9.99999e-01,9.99999e-01,8.51702e-01,9.49060e-01,9.99824e-01
1.168862078e+00,8.50492e-01,9.99999e-01,9.99999e-01,8.95296e-01,9.50041e-01,9.99909e-01
1.174706389e+00,8.88185e-01,9.99999e-01,9.99999e-01,9.34056e-01,9.51003e-01,9.99880e-01
1.180579921e+00,9.13101e-01,9.99999e-01,9.99999e-01,9.59365e-01,9.51947e-01,9.99819e-01
1.186482820e+00,9.30668e-01,9.99999e-01,9.99997e-01,9.76878e-01,9.52874e-01,9.99814e-01
1.192415234e+00,9.36235e-01,9.99999e-01,9.95196e-01,9.86455e-01,9.53783e-01,9.99860e-01
1.198377311e+00,5.70748e-01,9.99999e-01,6.03771e-01,9.88572e-01,9.54675e-01,9.99868e-01
1.204369197e+00,1.98864e-05,9.99999e-01,2.09450e-05,9.89173e-01,9.55550e-01,9.99881e-01
1.210391043e+00,6.19257e-16,9.99999e-01,6.51273e-16,9.89649e-01,9.56408e-01,9.99927e-01
1.216442998e+00,4.95340e-14,9.99999e-01,5.20334e-14,9.91187e-01,9.57250e-01,9.99955e-01
1.222525213e+00,8.45840e-14,9.99999e-01,8.86197e-14,9.93137e-01,9.58077e-01,9.99972e-01
1.228637839e+00,1.46657e-10,9.99999e-01,1.53475e-10,9.95231e-01,9.58888e-01,9.99986e-01
