#,Wave/freq,Total,N2,CO2,H2O,Rayleigh,CIA
4.000000000e-01,3.59206e-05,9.99999e-01,9.99999e-01,9.99979e-01,3.59213e-05,9.99999e-01
4.020000000e-01,4.39774e-05,9.99999e-01,9.99999e-01,9.99987e-01,4.39779e-05,9.99999e-01
4.040100000e-01,5.36154e-05,9.99999e-01,9.99999e-01,9.99994e-01,5.36156e-05,9.99999e-01
4.060300500e-01,6.51101e-05,9.99999e-01,9.99999e-01,9.99998e-01,6.51101e-05,9.99999e-01
4.080602003e-01,7.87661e-05,9.99999e-01,9.99999e-01,9.99999e-01,7.87661e-05,9.99999e-01
4.101005013e-01,9.49286e-05,9.99999e-01,9.99999e-01,9.99999e-01,9.49286e-05,9.99999e-01
4.121510038e-01,1.13986e-04,9.99999e-01,9.99999e-01,9.99998e-01,1.13986e-04,9.99999e-01
4.142117588e-01,1.36376e-04,9.99999e-01,9.99999e-01,9.99994e-01,1.36377e-04,9.99999e-01
4.162828176e-01,1.62584e-04,9.99999e-01,9.99999e-01,9.99975e-01,1.62588e-04,9.99999e-01
4.183642317e-01,1.93162e-04,9.99999e-01,9.99999e-01,9.99985e-01,1.93165e-04,9.99999e-01
4.204560528e-01,2.28711e-04,9.99999e-01,9.99999e-01,9.99990e-01,2.28713e-04,9.99999e-01
4.225583331e-01,2.69900e-04,9.99999e-01,9.99999e-01,9.99996e-01,2.69901e-04,9.99999e-01
4.246711247e-01,3.17465e-04,9.99999e-01,9.99999e-01,9.99996e-01,3.17466e-04,9.99999e-01
4.267944804e-01,3.72216e-04,9.99999e-01,9.99999e-01,9.99995e-01,3.72218e-04,9.99999e-01
4.289284528e-01,4.35042e-04,9.99999e-01,9.99999e-01,9.99996e-01,4.35043e-04,9.99999e-01
4.310730950e-01,5.06908e-04,9.99999e-01,9.99999e-01,9.99998e-01,5.06908e-04,9.99999e-01
4.332284605e-01,5.88864e-04,9.99999e-01,9.99999e-01,9.99999e-01,5.88864e-04,9.99999e-01
4.353946028e-01,6.82049e-04,9.99999e-01,9.99999e-01,9.99999e-01,6.82049e-04,9.99999e-01
4.375715758e-01,7.87688e-04,9.99999e-01,9.99999e-01,9.99997e-01,7.87690e-04,9.99999e-01
4.397594337e-01,9.07091e-04,9.99999e-01,9.99999e-01,9.99978e-01,9.07110e-04,9.99999e-01
4.419582309e-01,1.04161e-03,9.99999e-01,9.99999e-01,9.99890e-01,1.04173e-03,9.99999e-01
4.441680220e-01,1.19295e-03,9.99999e-01,9.99999e-01,9.99914e-01,1.19306e-03,9.99999e-01
4.463888621e-01,1.36259e-03,9.99999e-01,9.99999e-01,9.99911e-01,1.36271e-03,9.99999e-01
4.486208064e-01,1.55232e-03,9.99999e-01,9.99999e-01,9.99944e-01,1.55241e-03,9.99999e-01
4.508639105e-01,1.76392e-03,9.99999e-01,9.99999e-01,9.99973e-01,1.76397e-03,9.99999e-01
4.531182300e-01,1.99929e-03,9.99999e-01,9.99999e-01,9.99989e-01,1.99931e-03,9.99999e-01
4.553838212e-01,2.26043e-03,9.99999e-01,9.99999e-01,9.99992e-01,2.26044e-03,9.99999e-01
4.576607403e-01,2.54949e-03,9.99999e-01,9.99999e-01,9.99996e-01,2.54950e-03,9.99999e-01
4.599490440e-01,2.86869e-03,9.99999e-01,9.99999e-01,9.99997e-01,2.86869e-03,9.99999e-01
4.622487892e-01,3.22033e-03,9.99999e-01,9.99999e-01,9.99999e-01,3.22033e-03,9.99999e-01
4.645600332e-01,3.60683e-03,9.99999e-01,9.99999e-01,9.99997e-01,3.60683e-03,9.99999e-01
4.668828333e-01,4.03058e-03,9.99999e-01,9.99999e-01,9.99973e-01,4.03069e-03,9.99999e-01
4.692172475e-01,4.49422e-03,9.99999e-01,9.99999e-01,9.99944e-01,4.49447e-03,9.99999e-01
4.715633337e-01,5.00067e-03,9.99999e-01,9.99999e-01,9.99963e-01,5.00085e-03,9.99999e-01
4.739211504e-01,5.55237e-03,9.99999e-01,9.99999e-01,9.99964e-01,5.55256e-03,9.99999e-01
4.762907561e-01,6.15230e-03,9.99999e-01,9.99999e-01,9.99981e-01,6.15241e-03,9.99999e-01
4.786722099e-01,6.80321e-03,9.99999e-01,9.99999e-01,9.99992e-01,6.80326e-03,9.99999e-01
4.810655710e-01,7.50802e-03,9.99999e-01,9.99999e-01,9.99997e-01,7.50804e-03,9.99999e-01
4.834708988e-01,8.26953e-03,9.99999e-01,9.99999e-01,9.99978e-01,8.26971e-03,9.99999e-01
4.858882533e-01,9.09092e-03,9.99999e-01,9.99999e-01,9.99960e-01,9.09128e-03,9.99999e-01
4.883176946e-01,9.97546e-03,9.99999e-01,9.99999e-01,9.99966e-01,9.97578e-03,9.99999e-01
4.907592831e-01,1.09260e-02,9.99999e-01,9.99999e-01,9.99969e-01,1.09263e-02,9.99999e-01
4.932130795e-01,1.19456e-02,9.99999e-01,9.99999e-01,9.99978e-01,1.19459e-02,9.99999e-01
4.956791449e-01,1.30374e-02,9.99999e-01,9.99999e-01,9.99988e-01,1.30376e-02,9.99999e-01
4.981575406e-01,1.42037e-02,9.99999e-01,9.99999e-01,9.99943e-01,1.42045e-02,9.99999e-01
5.006483283e-01,1.54475e-02,9.99999e-01,9.99999e-01,9.99854e-01,1.54497e-02,9.99998e-01
5.031515699e-01,1.67638e-02,9.99999e-01,9.99999e-01,9.99266e-01,1.67762e-02,9.99991e-01
5.056673278e-01,1.81798e-02,9.99999e-01,9.99999e-01,9.99613e-01,1.81870e-02,9.99990e-01
5.081956644e-01,1.96753e-02,9.99999e-01,9.99999e-01,9.99512e-01,1.96850e-02,9.99993e-01
5.107366428e-01,2.12661e-02,9.99999e-01,9.99999e-01,9.99670e-01,2.12731e-02,9.99998e-01
5.132903260e-01,2.29498e-02,9.99999e-01,9.99999e-01,9.99811e-01,2.29541e-02,9.99999e-01
5.158567776e-01,2.47288e-02,9.99999e-01,9.99999e-01,9.99920e-01,2.47307e-02,9.99999e-01
5.184360615e-01,2.66048e-02,9.99999e-01,9.99999e-01,9.99967e-01,2.66057e-02,9.99999e-01
5.210282418e-01,2.85812e-02,9.99999e-01,9.99999e-01,9.99987e-01,2.85815e-02,9.99999e-01
5.236333830e-01,3.06592e-02,9.99999e-01,9.99999e-01,9.99951e-01,3.06606e-02,9.99999e-01
5.262515499e-01,3.28444e-02,9.99999e-01,9.99999e-01,9.99969e-01,3.28454e-02,9.99999e-01
5.288828077e-01,3.51371e-02,9.99999e-01,9.99999e-01,9.99972e-01,3.51381e-02,9.99999e-01
5.315272217e-01,3.75398e-02,9.99999e-01,9.99999e-01,9.99975e-01,3.75407e-02,9.99999e-01
5.341848578e-01,4.00546e-02,9.99999e-01,9.99999e-01,9.99983e-01,4.00553e-02,9.99999e-01
5.368557821e-01,4.26812e-02,9.99999e-01,9.99999e-01,9.99943e-01,4.26836e-02,9.99999e-01
5.395400610e-01,4.54180e-02,9.99999e-01,9.99999e-01,9.99798e-01,4.54272e-02,9.99997e-01
5.422377613e-01,4.82751e-02,9.99999e-01,9.99999e-01,9.99740e-01,4.82878e-02,9.99994e-01
5.449489501e-01,5.12541e-02,9.99999e-01,9.99999e-01,9.99758e-01,5.12667e-02,9.99994e-01
5.476736949e-01,5.43532e-02,9.99999e-01,9.99999e-01,9.99786e-01,5.43650e-02,9.99997e-01
5.504120634e-01,5.75748e-02,9.99999e-01,9.99999e-01,9.99844e-01,5.75837e-02,9.99998e-01
5.531641237e-01,6.09190e-02,9.99999e-01,9.99999e-01,9.99921e-01,6.09238e-02,9.99999e-01
5.559299443e-01,6.43834e-02,9.99999e-01,9.99999e-01,9.99961e-01,6.43858e-02,9.99999e-01
5.587095940e-01,6.79688e-02,9.99999e-01,9.99999e-01,9.99975e-01,6.79704e-02,9.99999e-01
5.615031420e-01,7.16758e-02,9.99999e-01,9.99999e-01,9.99973e-01,7.16777e-02,9.99999e-01
5.643106577e-01,7.55058e-02,9.99999e-01,9.99999e-01,9.99969e-01,7.55080e-02,9.99999e-01
5.671322110e-01,7.94321e-02,9.99999e-01,9.99999e-01,9.99635e-01,7.94613e-02,9.99996e-01
5.699678720e-01,8.35043e-02,9.99999e-01,9.99999e-01,9.99615e-01,8.35373e-02,9.99989e-01
5.728177114e-01,8.76997e-02,9.99999e-01,9.99999e-01,9.99598e-01,8.77356e-02,9.99991e-01
5.756818000e-01,9.20214e-02,9.99999e-01,9.99999e-01,9.99631e-01,9.20557e-02,9.99994e-01
5.785602090e-01,9.64658e-02,9.99999e-01,9.99999e-01,9.99678e-01,9.64969e-02,9.99997e-01
5.814530100e-01,1.01026e-01,9.99999e-01,9.99999e-01,9.99677e-01,1.01058e-01,9.99998e-01
5.843602750e-01,1.05698e-01,9.99999e-01,9.99999e-01,9.99614e-01,1.05739e-01,9.99997e-01
5.872820764e-01,1.10168e-01,9.99999e-01,9.99999e-01,9.96685e-01,1.10537e-01,9.99976e-01
5.902184868e-01,1.14982e-01,9.99999e-01,9.99999e-01,9.95993e-01,1.15452e-01,9.99936e-01
5.931695792e-01,1.20133e-01,9.99999e-01,9.99999e-01,9.97166e-01,1.20482e-01,9.99938e-01
5.961354271e-01,1.25230e-01,9.99999e-01,9.99999e-01,9.96895e-01,1.25625e-01,9.99964e-01
5.991161043e-01,1.30581e-01,9.99999e-01,9.99999e-01,9.97736e-01,1.30879e-01,9.99988e-01
6.021116848e-01,1.36068e-01,9.99999e-01,9.99999e-01,9.98715e-01,1.36243e-01,9.99998e-01
6.051222432e-01,1.41622e-01,9.99999e-01,9.99999e-01,9.99349e-01,1.41714e-01,9.99999e-01
6.081478544e-01,1.47249e-01,9.99999e-01,9.99999e-01,9.99719e-01,1.47291e-01,9.99999e-01
6.111885937e-01,1.52952e-01,9.99999e-01,9.99999e-01,9.99881e-01,1.52970e-01,9.99999e-01
6.142445367e-01,1.58741e-01,9.99999e-01,9.99999e-01,9.99946e-01,1.58749e-01,9.99999e-01
6.173157594e-01,1.64622e-01,9.99999e-01,9.99999e-01,9.99970e-01,1.64627e-01,9.99999e-01
6.204023382e-01,1.70595e-01,9.99999e-01,9.99999e-01,9.99974e-01,1.70599e-01,9.99999e-01
6.235043498e-01,1.76644e-01,9.99999e-01,9.99999e-01,9.99890e-01,1.76663e-01,9.99999e-01
6.266218716e-01,1.82711e-01,9.99999e-01,9.99999e-01,9.99422e-01,1.82817e-01,9.99995e-01
6.297549810e-01,1.89016e-01,9.99999e-01,9.99999e-01,9.99787e-01,1.89058e-01,9.99991e-01
6.329037559e-01,1.95298e-01,9.99999e-01,9.99999e-01,9.99581e-01,1.95381e-01,9.99993e-01
6.360682746e-01,2.01713e-01,9.99999e-01,9.99999e-01,9.99643e-01,2.01785e-01,9.99995e-01
6.392486160e-01,2.08170e-01,9.99999e-01,9.99999e-01,9.99538e-01,2.08267e-01,9.99997e-01
6.424448591e-01,2.14689e-01,9.99999e-01,9.99999e-01,9.99380e-01,2.14822e-01,9.99996e-01
6.456570834e-01,2.20809e-01,9.99999e-01,9.99999e-01,9.97127e-01,2.21448e-01,9.99983e-01
6.488853688e-01,2.27653e-01,9.99999e-01,9.99999e-01,9.97901e-01,2.28142e-01,9.99955e-01
6.521297956e-01,2.34388e-01,9.99999e-01,9.99999e-01,9.97860e-01,2.34899e-01,9.99962e-01
6.553904446e-01,2.41196e-01,9.99999e-01,9.99999e-01,9.97869e-01,2.41718e-01,9.99972e-01
6.586673968e-01,2.48138e-01,9.99999e-01,9.99999e-01,9.98176e-01,2.48593e-01,9.99990e-01
6.619607338e-01,2.55263e-01,9.99999e-01,9.99999e-01,9.98983e-01,2.55523e-01,9.99997e-01
6.652705375e-01,2.62343e-01,9.99999e-01,9.99999e-01,9.99389e-01,2.62503e-01,9.99998e-01
6.685968902e-01,2.69454e-01,9.99999e-01,9.99999e-01,9.99716e-01,2.69531e-01,9.99999e-01
6.719398746e-01,2.76566e-01,9.99999e-01,9.99999e-01,9.99868e-01,2.76602e-01,9.99999e-01
6.752995740e-01,2.83693e-01,9.99999e-01,9.99999e-01,9.99928e-01,2.83713e-01,9.99999e-01
6.786760719e-01,2.90832e-01,9.99999e-01,9.99999e-01,9.99896e-01,2.90862e-01,9.99999e-01
6.820694522e-01,2.97991e-01,9.99999e-01,9.99999e-01,9.99823e-01,2.98044e-01,9.99998e-01
6.854797995e-01,3.05186e-01,9.99999e-01,9.99999e-01,9.99772e-01,3.05256e-01,9.99997e-01
6.889071985e-01,3.12322e-01,9.99999e-01,9.99999e-01,9.99447e-01,3.12495e-01,9.99994e-01
6.923517345e-01,3.16878e-01,9.99999e-01,9.99999e-01,9.91033e-01,3.19758e-01,9.99956e-01
6.958134932e-01,3.25490e-01,9.99999e-01,9.99999e-01,9.95350e-01,3.27041e-01,9.99904e-01
6.992925606e-01,3.32830e-01,9.99999e-01,9.99999e-01,9.95562e-01,3.34342e-01,9.99913e-01
7.027890234e-01,3.39766e-01,9.99999e-01,9.99999e-01,9.94533e-01,3.41656e-01,9.99934e-01
7.063029686e-01,3.47365e-01,9.99999e-01,9.99999e-01,9.95402e-01,3.48981e-01,9.99966e-01
7.098344834e-01,3.54735e-01,9.99999e-01,9.99999e-01,9.95588e-01,3.56314e-01,9.99980e-01
7.133836558e-01,3.61494e-01,9.99999e-01,9.99999e-01,9.94105e-01,3.63651e-01,9.99961e-01
7.169505741e-01,3.53637e-01,9.99999e-01,9.99999e-01,9.53512e-01,3.70990e-01,9.99698e-01
7.205353270e-01,3.69462e-01,9.99999e-01,9.99999e-01,9.77085e-01,3.78328e-01,9.99467e-01
7.241380036e-01,3.74262e-01,9.99999e-01,9.99999e-01,9.70886e-01,3.85662e-01,9.99540e-01
7.277586936e-01,3.82508e-01,9.99999e-01,9.99999e-01,9.73696e-01,3.92989e-01,9.99624e-01
7.313974871e-01,3.89070e-01,9.99999e-01,9.99999e-01,9.72102e-01,4.00306e-01,9.99823e-01
7.350544745e-01,4.01337e-01,9.99999e-01,9.99999e-01,9.84668e-01,4.07611e-01,9.99938e-01
7.387297469e-01,4.10202e-01,9.99999e-01,9.99999e-01,9.88702e-01,4.14901e-01,9.99971e-01
7.424233956e-01,4.19833e-01,9.99999e-01,9.99999e-01,9.94461e-01,4.22174e-01,9.99994e-01
7.461355126e-01,4.27983e-01,9.99999e-01,9.99999e-01,9.96639e-01,4.29426e-01,9.99998e-01
7.498661902e-01,4.35973e-01,9.99999e-01,9.99999e-01,9.98435e-01,4.36656e-01,9.99999e-01
7.536155211e-01,4.43521e-01,9.99999e-01,9.99999e-01,9.99231e-01,4.43862e-01,9.99999e-01
7.573835987e-01,4.50862e-01,9.99999e-01,9.99999e-01,9.99604e-01,4.51041e-01,9.99999e-01
7.611705167e-01,4.58078e-01,9.99999e-01,9.99999e-01,9.99754e-01,4.58190e-01,9.99999e-01
7.649763693e-01,4.65237e-01,9.99999e-01,9.99999e-01,9.99845e-01,4.65308e-01,9.99999e-01
7.688012511e-01,4.72343e-01,9.99999e-01,9.99999e-01,9.99892e-01,4.72393e-01,9.99999e-01
7.726452574e-01,4.79401e-01,9.99999e-01,9.99999e-01,9.99911e-01,4.79443e-01,9.99999e-01
7.765084837e-01,4.86395e-01,9.99999e-01,9.99999e-01,9.99873e-01,4.86456e-01,9.99999e-01
7.803910261e-01,4.76827e-01,9.99999e-01,9.66861e-01,9.99456e-01,4.93429e-01,9.99998e-01
7.842929812e-01,4.31316e-01,9.99999e-01,8.63570e-01,9.98104e-01,5.00362e-01,9.99996e-01
7.882144461e-01,4.31754e-01,9.99999e-01,8.54385e-01,9.96104e-01,5.07253e-01,9.99972e-01
7.921555184e-01,4.68055e-01,9.99999e-01,9.12382e-01,9.97864e-01,5.14099e-01,9.99953e-01
7.961162960e-01,4.88095e-01,9.99999e-01,9.40588e-01,9.96218e-01,5.20900e-01,9.99955e-01
8.000968774e-01,5.08175e-01,9.99999e-01,9.67333e-01,9.95638e-01,5.27654e-01,9.99952e-01
8.040973618e-01,5.22950e-01,9.99999e-01,9.82964e-01,9.95636e-01,5.34360e-01,9.99962e-01
8.081178486e-01,5.31473e-01,9.99999e-01,9.92136e-01,9.90168e-01,5.41015e-01,9.99964e-01
8.121584379e-01,5.24168e-01,9.99999e-01,9.97571e-01,9.59613e-01,5.47620e-01,9.99861e-01
8.162192301e-01,5.27199e-01,9.99999e-01,9.99463e-01,9.52319e-01,5.54173e-01,9.99482e-01
8.203003262e-01,5.46790e-01,9.99999e-01,9.99991e-01,9.75838e-01,5.60672e-01,9.99393e-01
8.244018279e-01,5.47881e-01,9.99999e-01,9.99999e-01,9.66548e-01,5.67116e-01,9.99517e-01
8.285238370e-01,5.56808e-01,9.99999e-01,9.99999e-01,9.71252e-01,5.73506e-01,9.99620e-01
8.326664562e-01,5.62915e-01,9.99999e-01,9.99999e-01,9.70965e-01,5.79839e-01,9.99842e-01
8.368297885e-01,5.73903e-01,9.99999e-01,9.99999e-01,9.79199e-01,5.86115e-01,9.99963e-01
8.410139374e-01,5.84974e-01,9.99999e-01,9.99999e-01,9.87596e-01,5.92332e-01,9.99978e-01
8.452190071e-01,5.94836e-01,9.99999e-01,9.99999e-01,9.93903e-01,5.98491e-01,9.99987e-01
8.494451021e-01,6.02443e-01,9.99999e-01,9.99999e-01,9.96457e-01,6.04591e-01,9.99989e-01
8.536923276e-01,6.09348e-01,9.99999e-01,9.99999e-01,9.97905e-01,6.10630e-01,9.99993e-01
8.579607893e-01,6.15812e-01,9.99999e-01,9.99999e-01,9.98708e-01,6.16609e-01,9.99998e-01
8.622505932e-01,6.22016e-01,9.99999e-01,9.99999e-01,9.99179e-01,6.22526e-01,9.99999e-01
8.665618462e-01,5.81701e-01,9.99999e-01,9.26164e-01,9.99492e-01,6.28381e-01,9.99999e-01
8.708946554e-01,4.36302e-01,9.99999e-01,6.88370e-01,9.99418e-01,6.34175e-01,9.99999e-01
8.752491287e-01,4.73544e-01,9.99999e-01,7.40581e-01,9.99222e-01,6.39905e-01,9.99998e-01
8.796253743e-01,5.46912e-01,9.99999e-01,8.48062e-01,9.98922e-01,6.45573e-01,9.99997e-01
8.840235012e-01,5.97128e-01,9.99999e-01,9.18117e-01,9.98769e-01,6.51178e-01,9.99992e-01
8.884436187e-01,6.32157e-01,9.99999e-01,9.66933e-01,9.95496e-01,6.56719e-01,9.99978e-01
8.928858368e-01,6.22905e-01,9.99999e-01,9.86468e-01,9.53577e-01,6.62196e-01,9.99876e-01
8.973502660e-01,6.11467e-01,9.99999e-01,9.96703e-01,9.19453e-01,6.67609e-01,9.99370e-01
9.018370173e-01,6.43903e-01,9.99999e-01,9.99636e-01,9.58107e-01,6.72959e-01,9.99010e-01
9.063462024e-01,6.46596e-01,9.99999e-01,9.90619e-01,9.62928e-01,6.78244e-01,9.99130e-01
9.108779334e-01,6.30279e-01,9.99999e-01,9.78719e-01,9.42841e-01,6.83466e-01,9.99096e-01
9.154323231e-01,6.40470e-01,9.99999e-01,9.94978e-01,9.35367e-01,6.88623e-01,9.99253e-01
9.200094847e-01,6.12859e-01,9.99999e-01,9.28796e-01,9.49036e-01,6.93716e-01,9.99581e-01
9.246095321e-01,5.80000e-01,9.99999e-01,9.00024e-01,9.20999e-01,6.98745e-01,9.99518e-01
9.292325798e-01,3.76970e-01,9.99999e-01,9.20552e-01,5.78031e-01,7.03710e-01,9.98123e-01
9.338787427e-01,3.23317e-01,9.99999e-01,9.23292e-01,4.93926e-01,7.08612e-01,9.92266e-01
9.385481364e-01,5.03227e-01,9.99999e-01,9.43046e-01,7.52389e-01,7.13449e-01,9.90808e-01
9.432408771e-01,4.63442e-01,9.99999e-01,9.64770e-01,6.72866e-01,7.18223e-01,9.92065e-01
9.479570815e-01,4.09076e-01,9.99999e-01,9.81761e-01,5.79543e-01,7.22934e-01,9.93537e-01
9.526968669e-01,4.77537e-01,9.99999e-01,9.91170e-01,6.64295e-01,7.27582e-01,9.96053e-01
9.574603512e-01,4.99433e-01,9.99999e-01,9.96216e-01,6.85929e-01,7.32167e-01,9.97992e-01
9.622476530e-01,5.40740e-01,9.99999e-01,9.98818e-01,7.35852e-01,7.36689e-01,9.98611e-01
9.670588912e-01,6.20205e-01,9.99999e-01,9.99645e-01,8.37892e-01,7.41149e-01,9.99050e-01
9.718941857e-01,6.66990e-01,9.99999e-01,9.99974e-01,8.95277e-01,7.45548e-01,9.99300e-01
9.767536566e-01,6.83724e-01,9.99999e-01,9.99999e-01,9.12259e-01,7.49884e-01,9.99465e-01
9.816374249e-01,7.04450e-01,9.99999e-01,9.99999e-01,9.34257e-01,7.54160e-01,9.99814e-01
9.865456120e-01,7.26810e-01,9.99999e-01,9.99999e-01,9.58415e-01,7.58375e-01,9.99960e-01
9.914783401e-01,7.42765e-01,9.99999e-01,9.99999e-01,9.74090e-01,7.62529e-01,9.99988e-01
9.964357318e-01,7.55741e-01,9.99999e-01,9.99999e-01,9.85810e-01,7.66624e-01,9.99993e-01
1.001417910e+00,7.64081e-01,9.99999e-01,9.99999e-01,9.91473e-01,7.70659e-01,9.99989e-01
1.006425000e+00,7.70851e-01,9.99999e-01,9.99999e-01,9.95129e-01,7.74634e-01,9.99985e-01
1.011457125e+00,7.76188e-01,9.99999e-01,9.99999e-01,9.96976e-01,7.78551e-01,9.99986e-01
1.016514411e+00,7.80797e-01,9.99999e-01,9.99999e-01,9.97945e-01,7.82410e-01,9.99990e-01
1.021596983e+00,7.84878e-01,9.99999e-01,9.99948e-01,9.98362e-01,7.86212e-01,9.99990e-01
1.026704968e+00,7.86051e-01,9.99999e-01,9.96332e-01,9.98722e-01,7.89956e-01,9.99993e-01
1.031838492e+00,7.57851e-01,9.99999e-01,9.55761e-01,9.99071e-01,7.93644e-01,9.99997e-01
1.036997685e+00,1.24630e-01,9.99999e-01,1.56389e-01,9.99448e-01,7.97275e-01,9.99999e-01
1.042182673e+00,1.01692e-01,9.99999e-01,1.27055e-01,9.99341e-01,8.00851e-01,9.99999e-01
1.047393587e+00,1.18482e-01,9.99999e-01,1.47412e-01,9.99127e-01,8.04372e-01,9.99999e-01
1.052630555e+00,3.61303e-03,9.99999e-01,4.47641e-03,9.98802e-01,8.07838e-01,9.99999e-01
1.057893707e+00,9.12378e-03,9.99999e-01,1.12619e-02,9.98001e-01,8.11250e-01,9.99998e-01
1.063183176e+00,2.97523e-02,9.99999e-01,3.66100e-02,9.96713e-01,8.14609e-01,9.99997e-01
1.068499092e+00,8.18592e-02,9.99999e-01,1.00549e-01,9.94501e-01,8.17915e-01,9.99995e-01
1.073841587e+00,1.91406e-01,9.99999e-01,2.34382e-01,9.93564e-01,8.21169e-01,9.99991e-01
1.079210795e+00,3.26506e-01,9.99999e-01,3.99078e-01,9.91765e-01,8.24371e-01,9.99977e-01
1.084606849e+00,4.93315e-01,9.99999e-01,6.03342e-01,9.87553e-01,8.27521e-01,9.99946e-01
1.090029883e+00,6.27772e-01,9.99999e-01,7.69244e-01,9.82140e-01,8.30622e-01,9.99889e-01
1.095480033e+00,6.97750e-01,9.99999e-01,8.78792e-01,9.52097e-01,8.33672e-01,9.99801e-01
1.100957433e+00,6.94148e-01,9.99999e-01,9.39652e-01,8.82703e-01,8.36673e-01,9.99634e-01
1.106462220e+00,5.96284e-01,9.99999e-01,9.74600e-01,7.28481e-01,8.39625e-01,9.99380e-01
1.111994531e+00,4.29251e-01,9.99999e-01,9.90510e-01,5.14863e-01,8.42529e-01,9.98356e-01
1.117554504e+00,2.87375e-01,9.99999e-01,9.97678e-01,3.42608e-01,8.45386e-01,9.94081e-01
1.123142276e+00,3.82729e-01,9.99999e-01,9.99847e-01,4.57658e-01,8.48195e-01,9.86022e-01
1.128757988e+00,5.05637e-01,9.99999e-01,9.99999e-01,6.03951e-01,8.50958e-01,9.83847e-01
1.134401778e+00,2.90111e-01,9.99999e-01,9.99999e-01,3.44575e-01,8.53675e-01,9.86248e-01
1.140073787e+00,6.26081e-01,9.99999e-01,9.99999e-01,7.39239e-01,8.56347e-01,9.88997e-01
1.145774156e+00,4.54309e-01,9.99999e-01,9.99999e-01,5.34280e-01,8.58974e-01,9.89924e-01
1.151503026e+00,4.26583e-01,9.99999e-01,9.99999e-01,4.97930e-01,8.61557e-01,9.94374e-01
1.157260541e+00,4.80554e-01,9.99999e-01,9.99999e-01,5.57073e-01,8.64097e-01,9.98314e-01
1.163046844e+00,5.61994e-01,9.99999e-01,9.99999e-01,6.48819e-01,8.66594e-01,9.99521e-01
1.168862078e+00,6.42998e-01,9.99999e-01,9.99999e-01,7.40070e-01,8.69048e-01,9.99753e-01
1.174706389e+00,7.23471e-01,9.99999e-01,9.99999e-01,8.30452e-01,8.71461e-01,9.99673e-01
1.180579921e+00,7.79969e-01,9.99999e-01,9.99999e-01,8.93024e-01,8.73832e-01,9.99506e-01
1.186482820e+00,8.21470e-01,9.99999e-01,9.99992e-01,9.38057e-01,8.76163e-01,9.99492e-01
1.192415234e+00,8.35034e-01,9.99999e-01,9.86946e-01,9.63371e-01,8.78454e-01,9.99620e-01
1.198377311e+00,4.81926e-01,9.99999e-01,5.61984e-01,9.69026e-01,8.80705e-01,9.99641e-01
1.204369197e+00,5.57844e-11,9.99999e-01,6.42976e-11,9.70671e-01,8.82918e-01,9.99675e-01
1.210391043e+00,9.90680e-40,9.99999e-01,1.13734e-39,9.71938e-01,8.85092e-01,9.99802e-01
1.216442998e+00,1.37261e-34,9.99999e-01,1.57059e-34,9.76090e-01,8.87229e-01,9.99878e-01
1.222525213e+00,4.32674e-34,9.99999e-01,4.91296e-34,9.81335e-01,8.89328e-01,9.99924e-01
1.228637839e+00,2.10013e-26,9.99999e-01,2.37755e-26,9.87002e-01,8.91391e-01,9.99964e-01
