#,Wave/freq,Total,N2,CO2,H2O,Rayleigh,CIA
4.000000000e-01,6.34839e-06,9.99999e-01,9.99999e-01,9.99976e-01,6.34853e-06,9.99999e-01
4.020000000e-01,8.04329e-06,9.99999e-01,9.99999e-01,9.99985e-01,8.04341e-06,9.99999e-01
4.040100000e-01,1.01407e-05,9.99999e-01,9.99999e-01,9.99993e-01,1.01408e-05,9.99999e-01
4.060300500e-01,1.27266e-05,9.99999e-01,9.99999e-01,9.99998e-01,1.27266e-05,9.99999e-01
4.080602003e-01,1.59003e-05,9.99999e-01,9.99999e-01,9.99999e-01,1.59004e-05,9.99999e-01
4.101005013e-01,1.97784e-05,9.99999e-01,9.99999e-01,9.99999e-01,1.97784e-05,9.99999e-01
4.121510038e-01,2.44964e-05,9.99999e-01,9.99999e-01,9.99998e-01,2.44964e-05,9.99999e-01
4.142117588e-01,3.02118e-05,9.99999e-01,9.99999e-01,9.99993e-01,3.02120e-05,9.99999e-01
4.162828176e-01,3.71060e-05,9.99999e-01,9.99999e-01,9.99970e-01,3.71071e-05,9.99999e-01
4.183642317e-01,4.53904e-05,9.99999e-01,9.99999e-01,9.99982e-01,4.53912e-05,9.99999e-01
4.204560528e-01,5.53035e-05,9.99999e-01,9.99999e-01,9.99989e-01,5.53040e-05,9.99999e-01
4.225583331e-01,6.71191e-05,9.99999e-01,9.99999e-01,9.99995e-01,6.71194e-05,9.99999e-01
4.246711247e-01,8.11478e-05,9.99999e-01,9.99999e-01,9.99996e-01,8.11480e-05,9.99999e-01
4.267944804e-01,9.77413e-05,9.99999e-01,9.99999e-01,9.99994e-01,9.77417e-05,9.99999e-01
4.289284528e-01,1.17296e-04,9.99999e-01,9.99999e-01,9.99995e-01,1.17297e-04,9.99999e-01
4.310730950e-01,1.40258e-04,9.99999e-01,9.99999e-01,9.99998e-01,1.40258e-04,9.99999e-01
4.332284605e-01,1.67122e-04,9.99999e-01,9.99999e-01,9.99999e-01,1.67122e-04,9.99999e-01
4.353946028e-01,1.98445e-04,9.99999e-01,9.99999e-01,9.99999e-01,1.98445e-04,9.99999e-01
4.375715758e-01,2.34838e-04,9.99999e-01,9.99999e-01,9.99996e-01,2.34839e-04,9.99999e-01
4.397594337e-01,2.76978e-04,9.99999e-01,9.99999e-01,9.99974e-01,2.76985e-04,9.99999e-01
4.419582309e-01,3.25591e-04,9.99999e-01,9.99999e-01,9.99873e-01,3.25632e-04,9.99999e-01
4.441680220e-01,3.81562e-04,9.99999e-01,9.99999e-01,9.99899e-01,3.81600e-04,9.99999e-01
4.463888621e-01,4.45744e-04,9.99999e-01,9.99999e-01,9.99896e-01,4.45790e-04,9.99999e-01
4.486208064e-01,5.19147e-04,9.99999e-01,9.99999e-01,9.99935e-01,5.19181e-04,9.99999e-01
4.508639105e-01,6.02818e-04,9.99999e-01,9.99999e-01,9.99969e-01,6.02836e-04,9.99999e-01
4.531182300e-01,6.97900e-04,9.99999e-01,9.99999e-01,9.99987e-01,6.97908e-04,9.99999e-01
4.553838212e-01,8.05633e-04,9.99999e-01,9.99999e-01,9.99991e-01,8.05640e-04,9.99999e-01
4.576607403e-01,9.27365e-04,9.99999e-01,9.99999e-01,9.99995e-01,9.27369e-04,9.99999e-01
4.599490440e-01,1.06452e-03,9.99999e-01,9.99999e-01,9.99996e-01,1.06453e-03,9.99999e-01
4.622487892e-01,1.21865e-03,9.99999e-01,9.99999e-01,9.99999e-01,1.21865e-03,9.99999e-01
4.645600332e-01,1.39136e-03,9.99999e-01,9.99999e-01,9.99997e-01,1.39136e-03,9.99999e-01
4.668828333e-01,1.58435e-03,9.99999e-01,9.99999e-01,9.99969e-01,1.58439e-03,9.99999e-01
4.692172475e-01,1.79947e-03,9.99999e-01,9.99999e-01,9.99934e-01,1.79959e-03,9.99999e-01
4.715633337e-01,2.03878e-03,9.99999e-01,9.99999e-01,9.99957e-01,2.03887e-03,9.99999e-01
4.739211504e-01,2.30419e-03,9.99999e-01,9.99999e-01,9.99958e-01,2.30428e-03,9.99999e-01
4.762907561e-01,2.59790e-03,9.99999e-01,9.99999e-01,9.99978e-01,2.59796e-03,9.99999e-01
4.786722099e-01,2.92211e-03,9.99999e-01,9.99999e-01,9.99990e-01,2.92213e-03,9.99999e-01
4.810655710e-01,3.27912e-03,9.99999e-01,9.99999e-01,9.99996e-01,3.27913e-03,9.99999e-01
4.834708988e-01,3.67128e-03,9.99999e-01,9.99999e-01,9.99974e-01,3.67137e-03,9.99999e-01
4.858882533e-01,4.10118e-03,9.99999e-01,9.99999e-01,9.99953e-01,4.10137e-03,9.99999e-01
4.883176946e-01,4.57154e-03,9.99999e-01,9.99999e-01,9.99961e-01,4.57172e-03,9.99999e-01
4.907592831e-01,5.08492e-03,9.99999e-01,9.99999e-01,9.99964e-01,5.08509e-03,9.99999e-01
4.932130795e-01,5.64410e-03,9.99999e-01,9.99999e-01,9.99974e-01,5.64424e-03,9.99999e-01
4.956791449e-01,6.25188e-03,9.99999e-01,9.99999e-01,9.99986e-01,6.25196e-03,9.99999e-01
4.981575406e-01,6.91071e-03,9.99999e-01,9.99999e-01,9.99934e-01,6.91115e-03,9.99999e-01
5.006483283e-01,7.62345e-03,9.99999e-01,9.99999e-01,9.99831e-01,7.62474e-03,9.99998e-01
5.031515699e-01,8.38843e-03,9.99999e-01,9.99999e-01,9.99144e-01,8.39568e-03,9.99990e-01
5.056673278e-01,9.22275e-03,9.99999e-01,9.99999e-01,9.99547e-01,9.22701e-03,9.99989e-01
5.081956644e-01,1.01159e-02,9.99999e-01,9.99999e-01,9.99429e-01,1.01218e-02,9.99992e-01
5.107366428e-01,1.10787e-02,9.99999e-01,9.99999e-01,9.99614e-01,1.10830e-02,9.99998e-01
5.132903260e-01,1.21111e-02,9.99999e-01,9.99999e-01,9.99779e-01,1.21138e-02,9.99999e-01
5.158567776e-01,1.32160e-02,9.99999e-01,9.99999e-01,9.99906e-01,1.32172e-02,9.99999e-01
5.184360615e-01,1.43958e-02,9.99999e-01,9.99999e-01,9.99962e-01,1.43963e-02,9.99999e-01
5.210282418e-01,1.56540e-02,9.99999e-01,9.99999e-01,9.99985e-01,1.56542e-02,9.99999e-01
5.236333830e-01,1.69929e-02,9.99999e-01,9.99999e-01,9.99943e-01,1.69939e-02,9.99999e-01
5.262515499e-01,1.84176e-02,9.99999e-01,9.99999e-01,9.99964e-01,1.84182e-02,9.99998e-01
5.288828077e-01,1.99296e-02,9.99999e-01,9.99999e-01,9.99967e-01,1.99303e-02,9.99999e-01
5.315272217e-01,2.15323e-02,9.99999e-01,9.99999e-01,9.99971e-01,2.15329e-02,9.99999e-01
5.341848578e-01,2.32284e-02,9.99999e-01,9.99999e-01,9.99981e-01,2.32289e-02,9.99999e-01
5.368557821e-01,2.50193e-02,9.99999e-01,9.99999e-01,9.99934e-01,2.50209e-02,9.99999e-01
5.395400610e-01,2.69053e-02,9.99999e-01,9.99999e-01,9.99766e-01,2.69116e-02,9.99997e-01
5.422377613e-01,2.88947e-02,9.99999e-01,9.99999e-01,9.99696e-01,2.89037e-02,9.99994e-01
5.449489501e-01,3.09905e-02,9.99999e-01,9.99999e-01,9.99718e-01,3.09994e-02,9.99993e-01
5.476736949e-01,3.31927e-02,9.99999e-01,9.99999e-01,9.99749e-01,3.32011e-02,9.99996e-01
5.504120634e-01,3.55046e-02,9.99999e-01,9.99999e-01,9.99818e-01,3.55110e-02,9.99998e-01
5.531641237e-01,3.79278e-02,9.99999e-01,9.99999e-01,9.99908e-01,3.79312e-02,9.99999e-01
5.559299443e-01,4.04619e-02,9.99999e-01,9.99999e-01,9.99955e-01,4.04637e-02,9.99999e-01
5.587095940e-01,4.31089e-02,9.99999e-01,9.99999e-01,9.99971e-01,4.31101e-02,9.99999e-01
5.615031420e-01,4.58708e-02,9.99999e-01,9.99999e-01,9.99968e-01,4.58722e-02,9.99999e-01
5.643106577e-01,4.87497e-02,9.99999e-01,9.99999e-01,9.99964e-01,4.87514e-02,9.99999e-01
5.671322110e-01,5.17272e-02,9.99999e-01,9.99999e-01,9.99579e-01,5.17491e-02,9.99995e-01
5.699678720e-01,5.48410e-02,9.99999e-01,9.99999e-01,9.99547e-01,5.48664e-02,9.99988e-01
5.728177114e-01,5.80765e-02,9.99999e-01,9.99999e-01,9.99531e-01,5.81043e-02,9.99989e-01
5.756818000e-01,6.14368e-02,9.99999e-01,9.99999e-01,9.99569e-01,6.14636e-02,9.99993e-01
5.785602090e-01,6.49206e-02,9.99999e-01,9.99999e-01,9.99624e-01,6.49451e-02,9.99997e-01
5.814530100e-01,6.85232e-02,9.99999e-01,9.99999e-01,9.99622e-01,6.85490e-02,9.99998e-01
5.843602750e-01,7.22433e-02,9.99999e-01,9.99999e-01,9.99552e-01,7.22758e-02,9.99997e-01
5.872820764e-01,7.58300e-02,9.99999e-01,9.99999e-01,9.96143e-01,7.61256e-02,9.99972e-01
5.902184868e-01,7.97168e-02,9.99999e-01,9.99999e-01,9.95310e-01,8.00983e-02,9.99925e-01
5.931695792e-01,8.39090e-02,9.99999e-01,9.99999e-01,9.96689e-01,8.41937e-02,9.99928e-01
5.961354271e-01,8.80867e-02,9.99999e-01,9.99999e-01,9.96368e-01,8.84113e-02,9.99958e-01
5.991161043e-01,9.25037e-02,9.99999e-01,9.99999e-01,9.97349e-01,9.27506e-02,9.99986e-01
6.021116848e-01,9.70645e-02,9.99999e-01,9.99999e-01,9.98494e-01,9.72109e-02,9.99997e-01
6.051222432e-01,1.01714e-01,9.99999e-01,9.99999e-01,9.99237e-01,1.01791e-01,9.99999e-01
6.081478544e-01,1.06455e-01,9.99999e-01,9.99999e-01,9.99671e-01,1.06490e-01,9.99999e-01
6.111885937e-01,1.11292e-01,9.99999e-01,9.99999e-01,9.99860e-01,1.11307e-01,9.99999e-01
6.142445367e-01,1.16233e-01,9.99999e-01,9.99999e-01,9.99937e-01,1.16240e-01,9.99999e-01
6.173157594e-01,1.21284e-01,9.99999e-01,9.99999e-01,9.99965e-01,1.21288e-01,9.99999e-01
6.204023382e-01,1.26445e-01,9.99999e-01,9.99999e-01,9.99970e-01,1.26449e-01,9.99999e-01
6.235043498e-01,1.31704e-01,9.99999e-01,9.99999e-01,9.99873e-01,1.31721e-01,9.99999e-01
6.266218716e-01,1.37009e-01,9.99999e-01,9.99999e-01,9.99325e-01,1.37102e-01,9.99994e-01
6.297549810e-01,1.42553e-01,9.99999e-01,9.99999e-01,9.99752e-01,1.42590e-01,9.99990e-01
6.329037559e-01,1.48109e-01,9.99999e-01,9.99999e-01,9.99510e-01,1.48183e-01,9.99991e-01
6.360682746e-01,1.53813e-01,9.99999e-01,9.99999e-01,9.99583e-01,1.53878e-01,9.99995e-01
6.392486160e-01,1.59587e-01,9.99999e-01,9.99999e-01,9.99460e-01,1.59673e-01,9.99997e-01
6.424448591e-01,1.65446e-01,9.99999e-01,9.99999e-01,9.99280e-01,1.65566e-01,9.99996e-01
6.456570834e-01,1.70977e-01,9.99999e-01,9.99999e-01,9.96659e-01,1.71553e-01,9.99980e-01
6.488853688e-01,1.77186e-01,9.99999e-01,9.99999e-01,9.97542e-01,1.77631e-01,9.99947e-01
6.521297956e-01,1.83331e-01,9.99999e-01,9.99999e-01,9.97494e-01,1.83799e-01,9.99955e-01
6.553904446e-01,1.89576e-01,9.99999e-01,9.99999e-01,9.97522e-01,1.90053e-01,9.99966e-01
6.586673968e-01,1.95968e-01,9.99999e-01,9.99999e-01,9.97864e-01,1.96390e-01,9.99988e-01
6.619607338e-01,2.02555e-01,9.99999e-01,9.99999e-01,9.98765e-01,2.02806e-01,9.99997e-01
6.652705375e-01,2.09150e-01,9.99999e-01,9.99999e-01,9.99284e-01,2.09300e-01,9.99998e-01
6.685968902e-01,2.15795e-01,9.99999e-01,9.99999e-01,9.99667e-01,2.15866e-01,9.99999e-01
6.719398746e-01,2.22469e-01,9.99999e-01,9.99999e-01,9.99845e-01,2.22503e-01,9.99999e-01
6.752995740e-01,2.29188e-01,9.99999e-01,9.99999e-01,9.99916e-01,2.29207e-01,9.99999e-01
6.786760719e-01,2.35946e-01,9.99999e-01,9.99999e-01,9.99879e-01,2.35974e-01,9.99999e-01
6.820694522e-01,2.42752e-01,9.99999e-01,9.99999e-01,9.99794e-01,2.42802e-01,9.99998e-01
6.854797995e-01,2.49620e-01,9.99999e-01,9.99999e-01,9.99734e-01,2.49687e-01,9.99997e-01
6.889071985e-01,2.56459e-01,9.99999e-01,9.99999e-01,9.99361e-01,2.56625e-01,9.99993e-01
6.923517345e-01,2.60850e-01,9.99999e-01,9.99999e-01,9.89570e-01,2.63613e-01,9.99949e-01
6.958134932e-01,2.69133e-01,9.99999e-01,9.99999e-01,9.94518e-01,2.70647e-01,9.99886e-01
6.992925606e-01,2.76263e-01,9.99999e-01,9.99999e-01,9.94835e-01,2.77725e-01,9.99899e-01
7.027890234e-01,2.82999e-01,9.99999e-01,9.99999e-01,9.93604e-01,2.84843e-01,9.99922e-01
7.063029686e-01,2.90416e-01,9.99999e-01,9.99999e-01,9.94623e-01,2.91997e-01,9.99961e-01
7.098344834e-01,2.97634e-01,9.99999e-01,9.99999e-01,9.94841e-01,2.99184e-01,9.99976e-01
7.133836558e-01,3.04292e-01,9.99999e-01,9.99999e-01,9.93164e-01,3.06400e-01,9.99954e-01
7.169505741e-01,2.96635e-01,9.99999e-01,9.99999e-01,9.46103e-01,3.13644e-01,9.99647e-01
7.205353270e-01,3.12073e-01,9.99999e-01,9.99999e-01,9.73066e-01,3.20910e-01,9.99377e-01
7.241380036e-01,3.16908e-01,9.99999e-01,9.99999e-01,9.66124e-01,3.28196e-01,9.99462e-01
7.277586936e-01,3.25080e-01,9.99999e-01,9.99999e-01,9.69369e-01,3.35499e-01,9.99560e-01
7.313974871e-01,3.31563e-01,9.99999e-01,9.99999e-01,9.67377e-01,3.42815e-01,9.99793e-01
7.350544745e-01,3.43839e-01,9.99999e-01,9.99999e-01,9.82069e-01,3.50141e-01,9.99928e-01
7.387297469e-01,3.52736e-01,9.99999e-01,9.99999e-01,9.86774e-01,3.57475e-01,9.99966e-01
7.424233956e-01,3.62441e-01,9.99999e-01,9.99999e-01,9.93504e-01,3.64813e-01,9.99993e-01
7.461355126e-01,3.70686e-01,9.99999e-01,9.99999e-01,9.96062e-01,3.72152e-01,9.99998e-01
7.498661902e-01,3.78792e-01,9.99999e-01,9.99999e-01,9.98162e-01,3.79489e-01,9.99999e-01
7.536155211e-01,3.86474e-01,9.99999e-01,9.99999e-01,9.99099e-01,3.86822e-01,9.99999e-01
7.573835987e-01,3.93965e-01,9.99999e-01,9.99999e-01,9.99536e-01,3.94148e-01,9.99999e-01
7.611705167e-01,4.01348e-01,9.99999e-01,9.99999e-01,9.99711e-01,4.01463e-01,9.99999e-01
7.649763693e-01,4.08692e-01,9.99999e-01,9.99999e-01,9.99819e-01,4.08766e-01,9.99999e-01
7.688012511e-01,4.16001e-01,9.99999e-01,9.99999e-01,9.99874e-01,4.16053e-01,9.99999e-01
7.726452574e-01,4.23279e-01,9.99999e-01,9.99999e-01,9.99896e-01,4.23323e-01,9.99999e-01
7.765084837e-01,4.30509e-01,9.99999e-01,9.99999e-01,9.99853e-01,4.30572e-01,9.99999e-01
7.803910261e-01,4.21299e-01,9.99999e-01,9.62899e-01,9.99368e-01,4.37799e-01,9.99998e-01
7.842929812e-01,3.74182e-01,9.99999e-01,8.42618e-01,9.97795e-01,4.45000e-01,9.99995e-01
7.882144461e-01,3.75010e-01,9.99999e-01,8.32996e-01,9.95446e-01,4.52174e-01,9.99971e-01
7.921555184e-01,4.11706e-01,9.99999e-01,8.98579e-01,9.97495e-01,4.59319e-01,9.99945e-01
7.961162960e-01,4.32179e-01,9.99999e-01,9.30663e-01,9.95597e-01,4.66432e-01,9.99947e-01
8.000968774e-01,4.53099e-01,9.99999e-01,9.61827e-01,9.94903e-01,4.73512e-01,9.99944e-01
8.040973618e-01,4.68535e-01,9.99999e-01,9.80008e-01,9.94905e-01,4.80556e-01,9.99955e-01
8.081178486e-01,4.77543e-01,9.99999e-01,9.90789e-01,9.88576e-01,4.87562e-01,9.99958e-01
8.121584379e-01,4.69952e-01,9.99999e-01,9.97137e-01,9.53150e-01,4.94530e-01,9.99838e-01
8.162192301e-01,4.72991e-01,9.99999e-01,9.99367e-01,9.44389e-01,5.01456e-01,9.99394e-01
8.203003262e-01,4.93807e-01,9.99999e-01,9.99989e-01,9.72108e-01,5.08340e-01,9.99291e-01
8.244018279e-01,4.94718e-01,9.99999e-01,9.99999e-01,9.60824e-01,5.15179e-01,9.99435e-01
8.285238370e-01,5.04283e-01,9.99999e-01,9.99999e-01,9.66536e-01,5.21972e-01,9.99556e-01
8.326664562e-01,5.10712e-01,9.99999e-01,9.99999e-01,9.66119e-01,5.28719e-01,9.99816e-01
8.368297885e-01,5.22371e-01,9.99999e-01,9.99999e-01,9.75674e-01,5.35416e-01,9.99957e-01
8.410139374e-01,5.34180e-01,9.99999e-01,9.99999e-01,9.85478e-01,5.42064e-01,9.99975e-01
8.452190071e-01,5.44732e-01,9.99999e-01,9.99999e-01,9.92852e-01,5.48661e-01,9.99984e-01
8.494451021e-01,5.52897e-01,9.99999e-01,9.99999e-01,9.95854e-01,5.55205e-01,9.99987e-01
8.536923276e-01,5.60312e-01,9.99999e-01,9.99999e-01,9.97543e-01,5.61696e-01,9.99992e-01
8.579607893e-01,5.67272e-01,9.99999e-01,9.99999e-01,9.98488e-01,5.68132e-01,9.99997e-01
8.622505932e-01,5.73960e-01,9.99999e-01,9.99999e-01,9.99038e-01,5.74512e-01,9.99999e-01
8.665618462e-01,5.34543e-01,9.99999e-01,9.20823e-01,9.99406e-01,5.80836e-01,9.99999e-01
8.708946554e-01,3.80619e-01,9.99999e-01,6.48723e-01,9.99320e-01,5.87103e-01,9.99999e-01
8.752491287e-01,4.17665e-01,9.99999e-01,7.04576e-01,9.99091e-01,5.93311e-01,9.99998e-01
8.796253743e-01,4.93697e-01,9.99999e-01,8.24573e-01,9.98743e-01,5.99461e-01,9.99996e-01
8.840235012e-01,5.47081e-01,9.99999e-01,9.04729e-01,9.98563e-01,6.05551e-01,9.99990e-01
8.884436187e-01,5.84842e-01,9.99999e-01,9.61244e-01,9.94803e-01,6.11580e-01,9.99974e-01
8.928858368e-01,5.75103e-01,9.99999e-01,9.84134e-01,9.46268e-01,6.17549e-01,9.99855e-01
8.973502660e-01,5.62629e-01,9.99999e-01,9.96114e-01,9.06540e-01,6.23457e-01,9.99263e-01
9.018370173e-01,5.97531e-01,9.99999e-01,9.99570e-01,9.51005e-01,6.29303e-01,9.98843e-01
9.063462024e-01,6.00848e-01,9.99999e-01,9.89189e-01,9.57035e-01,6.35086e-01,9.98983e-01
9.108779334e-01,5.82984e-01,9.99999e-01,9.75095e-01,9.33661e-01,6.40807e-01,9.98943e-01
9.154323231e-01,5.93956e-01,9.99999e-01,9.94078e-01,9.24923e-01,6.46464e-01,9.99126e-01
9.200094847e-01,5.65277e-01,9.99999e-01,9.18767e-01,9.40651e-01,6.52059e-01,9.99511e-01
9.246095321e-01,5.29729e-01,9.99999e-01,8.83959e-01,9.09599e-01,6.57590e-01,9.99436e-01
9.292325798e-01,3.22586e-01,9.99999e-01,9.08340e-01,5.30867e-01,6.63057e-01,9.97806e-01
9.338787427e-01,2.68942e-01,9.99999e-01,9.10844e-01,4.40921e-01,6.68461e-01,9.90963e-01
9.385481364e-01,4.48980e-01,9.99999e-01,9.33660e-01,7.18244e-01,6.73800e-01,9.89261e-01
9.432408771e-01,4.09825e-01,9.99999e-01,9.58790e-01,6.33703e-01,6.79075e-01,9.90729e-01
9.479570815e-01,3.55640e-01,9.99999e-01,9.78665e-01,5.34409e-01,6.84286e-01,9.92448e-01
9.526968669e-01,4.23201e-01,9.99999e-01,9.89650e-01,6.22500e-01,6.89433e-01,9.95386e-01
9.574603512e-01,4.44982e-01,9.99999e-01,9.95560e-01,6.44864e-01,6.94516e-01,9.97653e-01
9.622476530e-01,4.87518e-01,9.99999e-01,9.98612e-01,6.98955e-01,6.99535e-01,9.98376e-01
9.670588912e-01,5.72199e-01,9.99999e-01,9.99583e-01,8.13438e-01,7.04490e-01,9.98889e-01
9.718941857e-01,6.22830e-01,9.99999e-01,9.99969e-01,8.78731e-01,7.09382e-01,9.99182e-01
9.767536566e-01,6.41139e-01,9.99999e-01,9.99999e-01,8.98250e-01,7.14209e-01,9.99374e-01
9.816374249e-01,6.63806e-01,9.99999e-01,9.99999e-01,9.23468e-01,7.18973e-01,9.99783e-01
9.865456120e-01,6.88521e-01,9.99999e-01,9.99999e-01,9.51466e-01,7.23674e-01,9.99954e-01
9.914783401e-01,7.06255e-01,9.99999e-01,9.99999e-01,9.69726e-01,7.28312e-01,9.99987e-01
9.964357318e-01,7.20715e-01,9.99999e-01,9.99999e-01,9.83399e-01,7.32887e-01,9.99992e-01
1.001417910e+00,7.30031e-01,9.99999e-01,9.99999e-01,9.90018e-01,7.37399e-01,9.99988e-01
1.006425000e+00,7.37612e-01,9.99999e-01,9.99999e-01,9.94303e-01,7.41850e-01,9.99983e-01
1.011457125e+00,7.43584e-01,9.99999e-01,9.99999e-01,9.96457e-01,7.46238e-01,9.99984e-01
1.016514411e+00,7.48753e-01,9.99999e-01,9.99999e-01,9.97595e-01,7.50565e-01,9.99989e-01
1.021596983e+00,7.53336e-01,9.99999e-01,9.99944e-01,9.98083e-01,7.54831e-01,9.99989e-01
1.026704968e+00,7.54699e-01,9.99999e-01,9.95777e-01,9.98505e-01,7.59036e-01,9.99992e-01
1.031838492e+00,7.26631e-01,9.99999e-01,9.53111e-01,9.98912e-01,7.63181e-01,9.99997e-01
1.036997685e+00,1.04852e-01,9.99999e-01,1.36725e-01,9.99354e-01,7.67266e-01,9.99999e-01
1.042182673e+00,7.10282e-02,9.99999e-01,9.21518e-02,9.99231e-01,7.71292e-01,9.99999e-01
1.047393587e+00,9.07569e-02,9.99999e-01,1.17172e-01,9.98980e-01,7.75258e-01,9.99999e-01
1.052630555e+00,1.68256e-03,9.99999e-01,2.16162e-03,9.98602e-01,7.79166e-01,9.99999e-01
1.057893707e+00,4.52840e-03,9.99999e-01,5.79210e-03,9.97668e-01,7.83016e-01,9.99998e-01
1.063183176e+00,1.73822e-02,9.99999e-01,2.21515e-02,9.96163e-01,7.86808e-01,9.99997e-01
1.068499092e+00,5.45379e-02,9.99999e-01,6.93555e-02,9.93579e-01,7.90544e-01,9.99995e-01
1.073841587e+00,1.45578e-01,9.99999e-01,1.84459e-01,9.92494e-01,7.94222e-01,9.99990e-01
1.079210795e+00,2.71146e-01,9.99999e-01,3.42828e-01,9.90377e-01,7.97845e-01,9.99973e-01
1.084606849e+00,4.37633e-01,9.99999e-01,5.53737e-01,9.85477e-01,8.01412e-01,9.99937e-01
1.090029883e+00,5.80178e-01,9.99999e-01,7.35679e-01,9.79248e-01,8.04924e-01,9.99871e-01
1.095480033e+00,6.56512e-01,9.99999e-01,8.59528e-01,9.44414e-01,8.08382e-01,9.99767e-01
1.100957433e+00,6.52950e-01,9.99999e-01,9.29657e-01,8.64829e-01,8.11785e-01,9.99572e-01
1.106462220e+00,5.48107e-01,9.99999e-01,9.70272e-01,6.92679e-01,8.15136e-01,9.99275e-01
1.111994531e+00,3.74257e-01,9.99999e-01,9.88876e-01,4.62906e-01,8.18433e-01,9.98079e-01
1.117554504e+00,2.35516e-01,9.99999e-01,9.97268e-01,2.89252e-01,8.21679e-01,9.93083e-01
1.123142276e+00,3.29455e-01,9.99999e-01,9.99819e-01,4.06060e-01,8.24873e-01,9.83676e-01
1.128757988e+00,4.53210e-01,9.99999e-01,9.99999e-01,5.57865e-01,8.28016e-01,9.81140e-01
1.134401778e+00,2.47033e-01,9.99999e-01,9.99999e-01,3.02085e-01,8.31108e-01,9.83941e-01
1.140073787e+00,5.79715e-01,9.99999e-01,9.99999e-01,7.04024e-01,8.34150e-01,9.87148e-01
1.145774156e+00,4.00236e-01,9.99999e-01,9.99999e-01,4.83791e-01,8.37144e-01,9.88229e-01
1.151503026e+00,3.72906e-01,9.99999e-01,9.99999e-01,4.46826e-01,8.40088e-01,9.93425e-01
1.157260541e+00,4.25898e-01,9.99999e-01,9.99999e-01,5.06223e-01,8.42985e-01,9.98029e-01
1.163046844e+00,5.10367e-01,9.99999e-01,9.99999e-01,6.03727e-01,8.45834e-01,9.99440e-01
1.168862078e+00,5.96638e-01,9.99999e-01,9.99999e-01,7.03257e-01,8.48635e-01,9.99711e-01
1.174706389e+00,6.84865e-01,9.99999e-01,9.99999e-01,8.04713e-01,8.51391e-01,9.99617e-01
1.180579921e+00,7.47743e-01,9.99999e-01,9.99999e-01,8.75978e-01,8.54101e-01,9.99422e-01
1.186482820e+00,7.94516e-01,9.99999e-01,9.99992e-01,9.27898e-01,8.56766e-01,9.99407e-01
1.192415234e+00,8.10185e-01,9.99999e-01,9.85063e-01,9.57284e-01,8.59386e-01,9.99555e-01
1.198377311e+00,4.66591e-01,9.99999e-01,5.58435e-01,9.63903e-01,8.61962e-01,9.99580e-01
1.204369197e+00,1.85952e-12,9.99999e-01,2.19546e-12,9.65803e-01,8.64495e-01,9.99620e-01
1.210391043e+00,4.51248e-46,9.99999e-01,5.30302e-46,9.67267e-01,8.66985e-01,9.99768e-01
1.216442998e+00,4.63412e-40,9.99999e-01,5.42491e-40,9.72063e-01,8.69433e-01,9.99858e-01
1.222525213e+00,1.77266e-39,9.99999e-01,2.05661e-39,9.78191e-01,8.71839e-01,9.99911e-01
1.228637839e+00,1.39656e-30,9.99999e-01,1.61451e-30,9.84812e-01,8.74204e-01,9.99958e-01
