#,Wave/freq,Total,N2,CO2,H2O,Rayleigh,CIA
4.000000000e-01,8.49483e-11,9.99999e-01,9.99999e-01,9.99954e-01,8.49521e-11,9.99999e-01
4.020000000e-01,1.34367e-10,9.99999e-01,9.99999e-01,9.99971e-01,1.34371e-10,9.99999e-01
4.040100000e-01,2.10519e-10,9.99999e-01,9.99999e-01,9.99987e-01,2.10522e-10,9.99999e-01
4.060300500e-01,3.26915e-10,9.99999e-01,9.99999e-01,9.99996e-01,3.26915e-10,9.99999e-01
4.080602003e-01,5.03267e-10,9.99999e-01,9.99999e-01,9.99998e-01,5.03267e-10,9.99999e-01
4.101005013e-01,7.68177e-10,9.99999e-01,9.99999e-01,9.99999e-01,7.68177e-10,9.99999e-01
4.121510038e-01,1.16277e-09,9.99999e-01,9.99999e-01,9.99997e-01,1.16278e-09,9.99999e-01
4.142117588e-01,1.74570e-09,9.99999e-01,9.99999e-01,9.99987e-01,1.74572e-09,9.99999e-01
4.162828176e-01,2.59982e-09,9.99999e-01,9.99999e-01,9.99944e-01,2.59996e-09,9.99999e-01
4.183642317e-01,3.84175e-09,9.99999e-01,9.99999e-01,9.99966e-01,3.84187e-09,9.99999e-01
4.204560528e-01,5.63327e-09,9.99999e-01,9.99999e-01,9.99979e-01,5.63338e-09,9.99999e-01
4.225583331e-01,8.19801e-09,9.99999e-01,9.99999e-01,9.99991e-01,8.19807e-09,9.99999e-01
4.246711247e-01,1.18422e-08,9.99999e-01,9.99999e-01,9.99993e-01,1.18423e-08,9.99999e-01
4.267944804e-01,1.69825e-08,9.99999e-01,9.99999e-01,9.99990e-01,1.69826e-08,9.99999e-01
4.289284528e-01,2.41813e-08,9.99999e-01,9.99999e-01,9.99992e-01,2.41814e-08,9.99999e-01
4.310730950e-01,3.41921e-08,9.99999e-01,9.99999e-01,9.99996e-01,3.41922e-08,9.99999e-01
4.332284605e-01,4.80176e-08,9.99999e-01,9.99999e-01,9.99998e-01,4.80176e-08,9.99999e-01
4.353946028e-01,6.69824e-08,9.99999e-01,9.99999e-01,9.99999e-01,6.69824e-08,9.99999e-01
4.375715758e-01,9.28247e-08,9.99999e-01,9.99999e-01,9.99994e-01,9.28252e-08,9.99999e-01
4.397594337e-01,1.27806e-07,9.99999e-01,9.99999e-01,9.99951e-01,1.27812e-07,9.99999e-01
4.419582309e-01,1.74835e-07,9.99999e-01,9.99999e-01,9.99755e-01,1.74878e-07,9.99999e-01
4.441680220e-01,2.37751e-07,9.99999e-01,9.99999e-01,9.99806e-01,2.37797e-07,9.99999e-01
4.463888621e-01,3.21334e-07,9.99999e-01,9.99999e-01,9.99799e-01,3.21398e-07,9.99999e-01
4.486208064e-01,4.31759e-07,9.99999e-01,9.99999e-01,9.99874e-01,4.31813e-07,9.99999e-01
4.508639105e-01,5.76751e-07,9.99999e-01,9.99999e-01,9.99941e-01,5.76785e-07,9.99999e-01
4.531182300e-01,7.66019e-07,9.99999e-01,9.99999e-01,9.99976e-01,7.66037e-07,9.99999e-01
4.553838212e-01,1.01168e-06,9.99999e-01,9.99999e-01,9.99983e-01,1.01170e-06,9.99999e-01
4.576607403e-01,1.32881e-06,9.99999e-01,9.99999e-01,9.99992e-01,1.32882e-06,9.99999e-01
4.599490440e-01,1.73596e-06,9.99999e-01,9.99999e-01,9.99994e-01,1.73597e-06,9.99999e-01
4.622487892e-01,2.25593e-06,9.99999e-01,9.99999e-01,9.99998e-01,2.25593e-06,9.99999e-01
4.645600332e-01,2.91648e-06,9.99999e-01,9.99999e-01,9.99996e-01,2.91649e-06,9.99999e-01
4.668828333e-01,3.75118e-06,9.99999e-01,9.99999e-01,9.99941e-01,3.75140e-06,9.99999e-01
4.692172475e-01,4.80079e-06,9.99999e-01,9.99999e-01,9.99873e-01,4.80139e-06,9.99999e-01
4.715633337e-01,6.11487e-06,9.99999e-01,9.99999e-01,9.99917e-01,6.11537e-06,9.99999e-01
4.739211504e-01,7.75122e-06,9.99999e-01,9.99999e-01,9.99920e-01,7.75183e-06,9.99999e-01
4.762907561e-01,9.77987e-06,9.99999e-01,9.99999e-01,9.99958e-01,9.78027e-06,9.99999e-01
4.786722099e-01,1.22828e-05,9.99999e-01,9.99999e-01,9.99982e-01,1.22830e-05,9.99999e-01
4.810655710e-01,1.53568e-05,9.99999e-01,9.99999e-01,9.99994e-01,1.53569e-05,9.99999e-01
4.834708988e-01,1.91146e-05,9.99999e-01,9.99999e-01,9.99952e-01,1.91155e-05,9.99999e-01
4.858882533e-01,2.36892e-05,9.99999e-01,9.99999e-01,9.99910e-01,2.36913e-05,9.99999e-01
4.883176946e-01,2.92362e-05,9.99999e-01,9.99999e-01,9.99925e-01,2.92383e-05,9.99999e-01
4.907592831e-01,3.59320e-05,9.99999e-01,9.99999e-01,9.99932e-01,3.59345e-05,9.99999e-01
4.932130795e-01,4.39825e-05,9.99999e-01,9.99999e-01,9.99951e-01,4.39846e-05,9.99999e-01
4.956791449e-01,5.36223e-05,9.99999e-01,9.99999e-01,9.99974e-01,5.36237e-05,9.99999e-01
4.981575406e-01,6.51115e-05,9.99999e-01,9.99999e-01,9.99873e-01,6.51197e-05,9.99999e-01
5.006483283e-01,7.87517e-05,9.99999e-01,9.99999e-01,9.99674e-01,7.87774e-05,9.99997e-01
5.031515699e-01,9.47831e-05,9.99999e-01,9.99999e-01,9.98344e-01,9.49419e-05,9.99982e-01
5.056673278e-01,1.13900e-04,9.99999e-01,9.99999e-01,9.99123e-01,1.14002e-04,9.99979e-01
5.081956644e-01,1.36243e-04,9.99999e-01,9.99999e-01,9.98894e-01,1.36395e-04,9.99986e-01
5.107366428e-01,1.62488e-04,9.99999e-01,9.99999e-01,9.99252e-01,1.62610e-04,9.99997e-01
5.132903260e-01,1.93108e-04,9.99999e-01,9.99999e-01,9.99572e-01,1.93190e-04,9.99999e-01
5.158567776e-01,2.28701e-04,9.99999e-01,9.99999e-01,9.99818e-01,2.28742e-04,9.99999e-01
5.184360615e-01,2.69915e-04,9.99999e-01,9.99999e-01,9.99927e-01,2.69934e-04,9.99999e-01
5.210282418e-01,3.17496e-04,9.99999e-01,9.99999e-01,9.99972e-01,3.17504e-04,9.99999e-01
5.236333830e-01,3.72222e-04,9.99999e-01,9.99999e-01,9.99891e-01,3.72262e-04,9.99998e-01
5.262515499e-01,4.35064e-04,9.99999e-01,9.99999e-01,9.99931e-01,4.35094e-04,9.99998e-01
5.288828077e-01,5.06935e-04,9.99999e-01,9.99999e-01,9.99937e-01,5.06967e-04,9.99998e-01
5.315272217e-01,5.88898e-04,9.99999e-01,9.99999e-01,9.99944e-01,5.88931e-04,9.99999e-01
5.341848578e-01,6.82100e-04,9.99999e-01,9.99999e-01,9.99964e-01,6.82124e-04,9.99999e-01
5.368557821e-01,7.87677e-04,9.99999e-01,9.99999e-01,9.99874e-01,7.87776e-04,9.99999e-01
5.395400610e-01,9.06795e-04,9.99999e-01,9.99999e-01,9.99549e-01,9.07207e-04,9.99995e-01
5.422377613e-01,1.04121e-03,9.99999e-01,9.99999e-01,9.99411e-01,1.04184e-03,9.99988e-01
5.449489501e-01,1.19251e-03,9.99999e-01,9.99999e-01,9.99455e-01,1.19318e-03,9.99988e-01
5.476736949e-01,1.36218e-03,9.99999e-01,9.99999e-01,9.99514e-01,1.36285e-03,9.99994e-01
5.504120634e-01,1.55201e-03,9.99999e-01,9.99999e-01,9.99647e-01,1.55256e-03,9.99998e-01
5.531641237e-01,1.76383e-03,9.99999e-01,9.99999e-01,9.99822e-01,1.76414e-03,9.99999e-01
5.559299443e-01,1.99933e-03,9.99999e-01,9.99999e-01,9.99914e-01,1.99950e-03,9.99999e-01
5.587095940e-01,2.26053e-03,9.99999e-01,9.99999e-01,9.99946e-01,2.26065e-03,9.99999e-01
5.615031420e-01,2.54958e-03,9.99999e-01,9.99999e-01,9.99940e-01,2.54973e-03,9.99999e-01
5.643106577e-01,2.86875e-03,9.99999e-01,9.99999e-01,9.99932e-01,2.86895e-03,9.99998e-01
5.671322110e-01,3.21799e-03,9.99999e-01,9.99999e-01,9.99191e-01,3.22062e-03,9.99992e-01
5.699678720e-01,3.60390e-03,9.99999e-01,9.99999e-01,9.99121e-01,3.60714e-03,9.99977e-01
5.728177114e-01,4.02729e-03,9.99999e-01,9.99999e-01,9.99093e-01,4.03102e-03,9.99980e-01
5.756818000e-01,4.49104e-03,9.99999e-01,9.99999e-01,9.99166e-01,4.49484e-03,9.99988e-01
5.785602090e-01,4.99760e-03,9.99999e-01,9.99999e-01,9.99272e-01,5.00125e-03,9.99996e-01
5.814530100e-01,5.54894e-03,9.99999e-01,9.99999e-01,9.99270e-01,5.55300e-03,9.99997e-01
5.843602750e-01,6.14754e-03,9.99999e-01,9.99999e-01,9.99135e-01,6.15289e-03,9.99994e-01
5.872820764e-01,6.75284e-03,9.99999e-01,9.99999e-01,9.92564e-01,6.80378e-03,9.99946e-01
5.902184868e-01,7.43943e-03,9.99999e-01,9.99999e-01,9.90930e-01,7.50860e-03,9.99856e-01
5.931695792e-01,8.21626e-03,9.99999e-01,9.99999e-01,9.93602e-01,8.27031e-03,9.99859e-01
5.961354271e-01,9.02730e-03,9.99999e-01,9.99999e-01,9.92975e-01,9.09192e-03,9.99915e-01
5.991161043e-01,9.92505e-03,9.99999e-01,9.99999e-01,9.94868e-01,9.97648e-03,9.99974e-01
6.021116848e-01,1.08951e-02,9.99999e-01,9.99999e-01,9.97082e-01,1.09270e-02,9.99996e-01
6.051222432e-01,1.19290e-02,9.99999e-01,9.99999e-01,9.98522e-01,1.19467e-02,9.99999e-01
6.081478544e-01,1.30302e-02,9.99999e-01,9.99999e-01,9.99362e-01,1.30385e-02,9.99999e-01
6.111885937e-01,1.42016e-02,9.99999e-01,9.99999e-01,9.99729e-01,1.42055e-02,9.99999e-01
6.142445367e-01,1.54489e-02,9.99999e-01,9.99999e-01,9.99879e-01,1.54507e-02,9.99999e-01
6.173157594e-01,1.67762e-02,9.99999e-01,9.99999e-01,9.99933e-01,1.67773e-02,9.99999e-01
6.204023382e-01,1.81871e-02,9.99999e-01,9.99999e-01,9.99943e-01,1.81881e-02,9.99999e-01
6.235043498e-01,1.96814e-02,9.99999e-01,9.99999e-01,9.99755e-01,1.96862e-02,9.99998e-01
6.266218716e-01,2.12463e-02,9.99999e-01,9.99999e-01,9.98693e-01,2.12743e-02,9.99990e-01
6.297549810e-01,2.29440e-02,9.99999e-01,9.99999e-01,9.99520e-01,2.29554e-02,9.99981e-01
6.329037559e-01,2.47083e-02,9.99999e-01,9.99999e-01,9.99051e-01,2.47321e-02,9.99984e-01
6.360682746e-01,2.65855e-02,9.99999e-01,9.99999e-01,9.99194e-01,2.66071e-02,9.99990e-01
6.392486160e-01,2.85531e-02,9.99999e-01,9.99999e-01,9.98954e-01,2.85830e-02,9.99995e-01
6.424448591e-01,3.06195e-02,9.99999e-01,9.99999e-01,9.98609e-01,3.06623e-02,9.99993e-01
6.456570834e-01,3.26344e-02,9.99999e-01,9.99999e-01,9.93557e-01,3.28471e-02,9.99963e-01
6.488853688e-01,3.49406e-02,9.99999e-01,9.99999e-01,9.94429e-01,3.51399e-02,9.99898e-01
6.521297956e-01,3.73574e-02,9.99999e-01,9.99999e-01,9.95151e-01,3.75426e-02,9.99915e-01
6.553904446e-01,3.98628e-02,9.99999e-01,9.99999e-01,9.95208e-01,4.00572e-02,9.99936e-01
6.586673968e-01,4.25082e-02,9.99999e-01,9.99999e-01,9.95862e-01,4.26856e-02,9.99978e-01
6.619607338e-01,4.53205e-02,9.99999e-01,9.99999e-01,9.97606e-01,4.54294e-02,9.99995e-01
6.652705375e-01,4.82229e-02,9.99999e-01,9.99999e-01,9.98611e-01,4.82901e-02,9.99997e-01
6.685968902e-01,5.12359e-02,9.99999e-01,9.99999e-01,9.99354e-01,5.12690e-02,9.99999e-01
6.719398746e-01,5.43511e-02,9.99999e-01,9.99999e-01,9.99700e-01,5.43674e-02,9.99999e-01
6.752995740e-01,5.75769e-02,9.99999e-01,9.99999e-01,9.99838e-01,5.75862e-02,9.99999e-01
6.786760719e-01,6.09122e-02,9.99999e-01,9.99999e-01,9.99767e-01,6.09264e-02,9.99999e-01
6.820694522e-01,6.43628e-02,9.99999e-01,9.99999e-01,9.99601e-01,6.43885e-02,9.99997e-01
6.854797995e-01,6.79380e-02,9.99999e-01,9.99999e-01,9.99486e-01,6.79731e-02,9.99995e-01
6.889071985e-01,7.15918e-02,9.99999e-01,9.99999e-01,9.98771e-01,7.16806e-02,9.99988e-01
6.923517345e-01,7.39902e-02,9.99999e-01,9.99999e-01,9.79955e-01,7.55110e-02,9.99902e-01
6.958134932e-01,7.86029e-02,9.99999e-01,9.99999e-01,9.89375e-01,7.94643e-02,9.99779e-01
6.992925606e-01,8.26927e-02,9.99999e-01,9.99999e-01,9.90043e-01,8.35404e-02,9.99806e-01
7.027890234e-01,8.66422e-02,9.99999e-01,9.99999e-01,9.87647e-01,8.77388e-02,9.99851e-01
7.063029686e-01,9.10959e-02,9.99999e-01,9.99999e-01,9.89610e-01,9.20590e-02,9.99925e-01
7.098344834e-01,9.55339e-02,9.99999e-01,9.99999e-01,9.90028e-01,9.65003e-02,9.99955e-01
7.133836558e-01,9.97256e-02,9.99999e-01,9.99999e-01,9.86864e-01,1.01062e-01,9.99912e-01
7.169505741e-01,9.50068e-02,9.99999e-01,9.99999e-01,8.99088e-01,1.05742e-01,9.99316e-01
7.205353270e-01,1.04726e-01,9.99999e-01,9.99999e-01,9.48536e-01,1.10541e-01,9.98795e-01
7.241380036e-01,1.07923e-01,9.99999e-01,9.99999e-01,9.35731e-01,1.15456e-01,9.98959e-01
7.277586936e-01,1.13375e-01,9.99999e-01,9.99999e-01,9.41788e-01,1.20485e-01,9.99149e-01
7.313974871e-01,1.17773e-01,9.99999e-01,9.99999e-01,9.37841e-01,1.25629e-01,9.99601e-01
7.350544745e-01,1.26361e-01,9.99999e-01,9.99999e-01,9.65581e-01,1.30883e-01,9.99861e-01
7.387297469e-01,1.32768e-01,9.99999e-01,9.99999e-01,9.74528e-01,1.36247e-01,9.99936e-01
7.424233956e-01,1.39936e-01,9.99999e-01,9.99999e-01,9.87432e-01,1.41718e-01,9.99987e-01
7.461355126e-01,1.46172e-01,9.99999e-01,9.99999e-01,9.92375e-01,1.47295e-01,9.99997e-01
7.498661902e-01,1.52429e-01,9.99999e-01,9.99999e-01,9.96436e-01,1.52974e-01,9.99998e-01
7.536155211e-01,1.58477e-01,9.99999e-01,9.99999e-01,9.98254e-01,1.58754e-01,9.99999e-01
7.573835987e-01,1.64483e-01,9.99999e-01,9.99999e-01,9.99100e-01,1.64631e-01,9.99999e-01
7.611705167e-01,1.70508e-01,9.99999e-01,9.99999e-01,9.99441e-01,1.70603e-01,9.99999e-01
7.649763693e-01,1.76606e-01,9.99999e-01,9.99999e-01,9.99649e-01,1.76668e-01,9.99999e-01
7.688012511e-01,1.82777e-01,9.99999e-01,9.99999e-01,9.99756e-01,1.82822e-01,9.99999e-01
7.726452574e-01,1.89024e-01,9.99999e-01,9.99999e-01,9.99799e-01,1.89062e-01,9.99999e-01
7.765084837e-01,1.95331e-01,9.99999e-01,9.99999e-01,9.99716e-01,1.95386e-01,9.99999e-01
7.803910261e-01,1.88637e-01,9.99999e-01,9.35892e-01,9.98779e-01,2.01790e-01,9.99998e-01
7.842929812e-01,1.50273e-01,9.99999e-01,7.24319e-01,9.95746e-01,2.08272e-01,9.99991e-01
7.882144461e-01,1.51511e-01,9.99999e-01,7.11084e-01,9.91198e-01,2.14827e-01,9.99945e-01
7.921555184e-01,1.79510e-01,9.99999e-01,8.14447e-01,9.95147e-01,2.21453e-01,9.99895e-01
7.961162960e-01,1.96862e-01,9.99999e-01,8.70200e-01,9.91507e-01,2.28147e-01,9.99899e-01
8.000968774e-01,2.15700e-01,9.99999e-01,9.27420e-01,9.90152e-01,2.34904e-01,9.99893e-01
8.040973618e-01,2.30136e-01,9.99999e-01,9.61568e-01,9.90160e-01,2.41723e-01,9.99914e-01
8.081178486e-01,2.38822e-01,9.99999e-01,9.82218e-01,9.78074e-01,2.48598e-01,9.99920e-01
8.121584379e-01,2.31646e-01,9.99999e-01,9.94440e-01,9.11781e-01,2.55528e-01,9.99687e-01
8.162192301e-01,2.34526e-01,9.99999e-01,9.98769e-01,8.95509e-01,2.62509e-01,9.98828e-01
8.203003262e-01,2.55058e-01,9.99999e-01,9.99979e-01,9.47598e-01,2.69536e-01,9.98628e-01
8.244018279e-01,2.56010e-01,9.99999e-01,9.99999e-01,9.26546e-01,2.76607e-01,9.98907e-01
8.285238370e-01,2.65457e-01,9.99999e-01,9.99999e-01,9.36438e-01,2.83719e-01,9.99142e-01
8.326664562e-01,2.72046e-01,9.99999e-01,9.99999e-01,9.35624e-01,2.90867e-01,9.99644e-01
8.368297885e-01,2.84147e-01,9.99999e-01,9.99999e-01,9.53432e-01,2.98049e-01,9.99918e-01
8.410139374e-01,2.96715e-01,9.99999e-01,9.99999e-01,9.72047e-01,3.05262e-01,9.99952e-01
8.452190071e-01,3.08174e-01,9.99999e-01,9.99999e-01,9.86182e-01,3.12501e-01,9.99971e-01
8.494451021e-01,3.17193e-01,9.99999e-01,9.99999e-01,9.91982e-01,3.19764e-01,9.99976e-01
8.536923276e-01,3.25485e-01,9.99999e-01,9.99999e-01,9.95239e-01,3.27047e-01,9.99984e-01
8.579607893e-01,3.33367e-01,9.99999e-01,9.99999e-01,9.97072e-01,3.34347e-01,9.99995e-01
8.622505932e-01,3.41025e-01,9.99999e-01,9.99999e-01,9.98136e-01,3.41661e-01,9.99998e-01
8.665618462e-01,3.10300e-01,9.99999e-01,8.90111e-01,9.98850e-01,3.48986e-01,9.99999e-01
8.708946554e-01,1.60175e-01,9.99999e-01,4.50078e-01,9.98685e-01,3.56319e-01,9.99998e-01
8.752491287e-01,1.87864e-01,9.99999e-01,5.17457e-01,9.98240e-01,3.63657e-01,9.99997e-01
8.796253743e-01,2.56047e-01,9.99999e-01,6.91746e-01,9.97570e-01,3.70996e-01,9.99994e-01
8.840235012e-01,3.11042e-01,9.99999e-01,8.24366e-01,9.97222e-01,3.78334e-01,9.99982e-01
8.884436187e-01,3.53717e-01,9.99999e-01,9.26232e-01,9.90044e-01,3.85667e-01,9.99951e-01
8.928858368e-01,3.42785e-01,9.99999e-01,9.69453e-01,8.99454e-01,3.92994e-01,9.99721e-01
8.973502660e-01,3.28714e-01,9.99999e-01,9.92458e-01,8.28293e-01,4.00312e-01,9.98574e-01
9.018370173e-01,3.68945e-01,9.99999e-01,9.99164e-01,9.07867e-01,4.07617e-01,9.97760e-01
9.063462024e-01,3.73352e-01,9.99999e-01,9.79495e-01,9.19218e-01,4.14907e-01,9.98032e-01
9.108779334e-01,3.52127e-01,9.99999e-01,9.52335e-01,8.76503e-01,4.22179e-01,9.97955e-01
9.154323231e-01,3.64868e-01,9.99999e-01,9.88522e-01,8.60523e-01,4.29432e-01,9.98309e-01
9.200094847e-01,3.37006e-01,9.99999e-01,8.58729e-01,8.88988e-01,4.36662e-01,9.99053e-01
9.246095321e-01,2.94737e-01,9.99999e-01,7.88217e-01,8.36810e-01,4.43867e-01,9.98909e-01
9.292325798e-01,1.20887e-01,9.99999e-01,8.32596e-01,3.12987e-01,4.51046e-01,9.95754e-01
9.338787427e-01,8.61994e-02,9.99999e-01,8.35640e-01,2.22069e-01,4.58196e-01,9.82567e-01
9.385481364e-01,2.19644e-01,9.99999e-01,8.75837e-01,5.42553e-01,4.65314e-01,9.79300e-01
9.432408771e-01,1.89286e-01,9.99999e-01,9.21629e-01,4.39127e-01,4.72399e-01,9.82116e-01
9.479570815e-01,1.46899e-01,9.99999e-01,9.59057e-01,3.22921e-01,4.79449e-01,9.85421e-01
9.526968669e-01,1.98371e-01,9.99999e-01,9.80030e-01,4.18548e-01,4.86461e-01,9.91082e-01
9.574603512e-01,2.14066e-01,9.99999e-01,9.91404e-01,4.39091e-01,4.93435e-01,9.95459e-01
9.622476530e-01,2.52485e-01,9.99999e-01,9.97308e-01,5.07390e-01,5.00368e-01,9.96858e-01
9.670588912e-01,3.41484e-01,9.99999e-01,9.99191e-01,6.75134e-01,5.07258e-01,9.97850e-01
9.718941857e-01,4.00195e-01,9.99999e-01,9.99941e-01,7.79702e-01,5.14104e-01,9.98416e-01
9.767536566e-01,4.23117e-01,9.99999e-01,9.99999e-01,8.13256e-01,5.20905e-01,9.98789e-01
9.816374249e-01,4.52222e-01,9.99999e-01,9.99999e-01,8.57392e-01,5.27659e-01,9.99580e-01
9.865456120e-01,4.85263e-01,9.99999e-01,9.99999e-01,9.08190e-01,5.34365e-01,9.99912e-01
9.914783401e-01,5.09725e-01,9.99999e-01,9.99999e-01,9.42177e-01,5.41020e-01,9.99975e-01
9.964357318e-01,5.30136e-01,9.99999e-01,9.99999e-01,9.68077e-01,5.47625e-01,9.99985e-01
1.001417910e+00,5.43491e-01,9.99999e-01,9.99999e-01,9.80737e-01,5.54178e-01,9.99977e-01
1.006425000e+00,5.54487e-01,9.99999e-01,9.99999e-01,9.88990e-01,5.60677e-01,9.99968e-01
1.011457125e+00,5.63215e-01,9.99999e-01,9.99999e-01,9.93140e-01,5.67121e-01,9.99970e-01
1.016514411e+00,5.70829e-01,9.99999e-01,9.99999e-01,9.95343e-01,5.73511e-01,9.99979e-01
1.021596983e+00,5.77622e-01,9.99999e-01,9.99896e-01,9.96289e-01,5.79844e-01,9.99979e-01
1.026704968e+00,5.79698e-01,9.99999e-01,9.91919e-01,9.97106e-01,5.86119e-01,9.99985e-01
1.031838492e+00,5.48503e-01,9.99999e-01,9.27870e-01,9.97893e-01,5.92337e-01,9.99995e-01
1.036997685e+00,4.45847e-02,9.99999e-01,7.45655e-02,9.98750e-01,5.98496e-01,9.99998e-01
1.042182673e+00,8.51241e-03,9.99999e-01,1.40964e-02,9.98513e-01,6.04595e-01,9.99999e-01
1.047393587e+00,1.73495e-02,9.99999e-01,2.84599e-02,9.98026e-01,6.10635e-01,9.99999e-01
1.052630555e+00,1.86405e-05,9.99999e-01,3.02845e-05,9.97295e-01,6.16613e-01,9.99998e-01
1.057893707e+00,6.55430e-05,9.99999e-01,1.05551e-04,9.95494e-01,6.22530e-01,9.99997e-01
1.063183176e+00,6.83044e-04,9.99999e-01,1.09198e-03,9.92589e-01,6.28386e-01,9.99995e-01
1.068499092e+00,4.25859e-03,9.99999e-01,6.77649e-03,9.87608e-01,6.34179e-01,9.99991e-01
1.073841587e+00,2.59419e-02,9.99999e-01,4.09946e-02,9.85538e-01,6.39910e-01,9.99981e-01
1.079210795e+00,8.45939e-02,9.99999e-01,1.33095e-01,9.81453e-01,6.45577e-01,9.99949e-01
1.084606849e+00,2.04473e-01,9.99999e-01,3.22212e-01,9.72101e-01,6.51182e-01,9.99879e-01
1.090029883e+00,3.49987e-01,9.99999e-01,5.53776e-01,9.60360e-01,6.56723e-01,9.99751e-01
1.095480033e+00,4.43717e-01,9.99999e-01,7.46640e-01,8.95545e-01,6.62200e-01,9.99550e-01
1.100957433e+00,4.39707e-01,9.99999e-01,8.68326e-01,7.56754e-01,6.67614e-01,9.99172e-01
1.106462220e+00,3.18368e-01,9.99999e-01,9.43186e-01,5.00201e-01,6.72963e-01,9.98597e-01
1.111994531e+00,1.57510e-01,9.99999e-01,9.78539e-01,2.37511e-01,6.78248e-01,9.96282e-01
1.117554504e+00,6.86806e-02,9.99999e-01,9.94700e-01,1.02213e-01,6.83470e-01,9.86643e-01
1.123142276e+00,1.34156e-01,9.99999e-01,9.99649e-01,2.01145e-01,6.88627e-01,9.68617e-01
1.128757988e+00,2.27565e-01,9.99999e-01,9.99999e-01,3.40361e-01,6.93720e-01,9.63785e-01
1.134401778e+00,1.05395e-01,9.99999e-01,9.99999e-01,1.55640e-01,6.98749e-01,9.69121e-01
1.140073787e+00,3.54087e-01,9.99999e-01,9.99999e-01,5.15937e-01,7.03714e-01,9.75250e-01
1.145774156e+00,1.83072e-01,9.99999e-01,9.99999e-01,2.64346e-01,7.08615e-01,9.77321e-01
1.151503026e+00,1.62466e-01,9.99999e-01,9.99999e-01,2.30647e-01,7.13453e-01,9.87302e-01
1.157260541e+00,1.98523e-01,9.99999e-01,9.99999e-01,2.77465e-01,7.18227e-01,9.96186e-01
1.163046844e+00,2.77652e-01,9.99999e-01,9.99999e-01,3.84477e-01,7.22938e-01,9.98917e-01
1.168862078e+00,3.69787e-01,9.99999e-01,9.99999e-01,5.08522e-01,7.27585e-01,9.99441e-01
1.174706389e+00,4.81755e-01,9.99999e-01,9.99999e-01,6.58468e-01,7.32170e-01,9.99260e-01
1.180579921e+00,5.70013e-01,9.99999e-01,9.99999e-01,7.74611e-01,7.36693e-01,9.98881e-01
1.186482820e+00,6.40526e-01,9.99999e-01,9.99987e-01,8.65230e-01,7.41153e-01,9.98852e-01
1.192415234e+00,6.65878e-01,9.99999e-01,9.72089e-01,9.18934e-01,7.45551e-01,9.99140e-01
1.198377311e+00,3.78793e-01,9.99999e-01,5.36449e-01,9.31332e-01,7.49888e-01,9.99188e-01
1.204369197e+00,5.01383e-22,9.99999e-01,6.91712e-22,9.34959e-01,7.54163e-01,9.99265e-01
1.210391043e+00,3.72518e-87,9.99999e-01,5.09323e-87,9.37640e-01,7.58378e-01,9.99552e-01
1.216442998e+00,1.65472e-75,9.99999e-01,2.24548e-75,9.46622e-01,7.62532e-01,9.99725e-01
1.222525213e+00,2.22475e-74,9.99999e-01,2.96694e-74,9.58185e-01,7.66627e-01,9.99829e-01
1.228637839e+00,1.74186e-57,9.99999e-01,2.30613e-57,9.70787e-01,7.70662e-01,9.99920e-01
