#,Wave/freq,Total,N2,CO2,H2O,Rayleigh,CIA
4.000000000e-01,2.97039e-05,9.99999e-01,9.99999e-01,9.99979e-01,2.97045e-05,9.99999e-01
4.020000000e-01,3.65033e-05,9.99999e-01,9.99999e-01,9.99987e-01,3.65038e-05,9.99999e-01
4.040100000e-01,4.46674e-05,9.99999e-01,9.99999e-01,9.99994e-01,4.46676e-05,9.99999e-01
4.060300500e-01,5.44397e-05,9.99999e-01,9.99999e-01,9.99998e-01,5.44397e-05,9.99999e-01
4.080602003e-01,6.60910e-05,9.99999e-01,9.99999e-01,9.99999e-01,6.60910e-05,9.99999e-01
4.101005013e-01,7.99291e-05,9.99999e-01,9.99999e-01,9.99999e-01,7.99291e-05,9.99999e-01
4.121510038e-01,9.63022e-05,9.99999e-01,9.99999e-01,9.99998e-01,9.63023e-05,9.99999e-01
4.142117588e-01,1.15602e-04,9.99999e-01,9.99999e-01,9.99994e-01,1.15603e-04,9.99999e-01
4.162828176e-01,1.38269e-04,9.99999e-01,9.99999e-01,9.99974e-01,1.38272e-04,9.99999e-01
4.183642317e-01,1.64801e-04,9.99999e-01,9.99999e-01,9.99984e-01,1.64803e-04,9.99999e-01
4.204560528e-01,1.95743e-04,9.99999e-01,9.99999e-01,9.99990e-01,1.95745e-04,9.99999e-01
4.225583331e-01,2.31706e-04,9.99999e-01,9.99999e-01,9.99996e-01,2.31707e-04,9.99999e-01
4.246711247e-01,2.73362e-04,9.99999e-01,9.99999e-01,9.99996e-01,2.73363e-04,9.99999e-01
4.267944804e-01,3.21456e-04,9.99999e-01,9.99999e-01,9.99995e-01,3.21457e-04,9.99999e-01
4.289284528e-01,3.76803e-04,9.99999e-01,9.99999e-01,9.99996e-01,3.76804e-04,9.99999e-01
4.310730950e-01,4.40297e-04,9.99999e-01,9.99999e-01,9.99998e-01,4.40297e-04,9.99999e-01
4.332284605e-01,5.12909e-04,9.99999e-01,9.99999e-01,9.99999e-01,5.12909e-04,9.99999e-01
4.353946028e-01,5.95697e-04,9.99999e-01,9.99999e-01,9.99999e-01,5.95697e-04,9.99999e-01
4.375715758e-01,6.89804e-04,9.99999e-01,9.99999e-01,9.99997e-01,6.89805e-04,9.99999e-01
4.397594337e-01,7.96453e-04,9.99999e-01,9.99999e-01,9.99977e-01,7.96470e-04,9.99999e-01
4.419582309e-01,9.16920e-04,9.99999e-01,9.99999e-01,9.99889e-01,9.17021e-04,9.99999e-01
4.441680220e-01,1.05279e-03,9.99999e-01,9.99999e-01,9.99912e-01,1.05288e-03,9.99999e-01
4.463888621e-01,1.20547e-03,9.99999e-01,9.99999e-01,9.99909e-01,1.20558e-03,9.99999e-01
4.486208064e-01,1.37665e-03,9.99999e-01,9.99999e-01,9.99943e-01,1.37673e-03,9.99999e-01
4.508639105e-01,1.56802e-03,9.99999e-01,9.99999e-01,9.99973e-01,1.56806e-03,9.99999e-01
4.531182300e-01,1.78138e-03,9.99999e-01,9.99999e-01,9.99989e-01,1.78140e-03,9.99999e-01
4.553838212e-01,2.01866e-03,9.99999e-01,9.99999e-01,9.99992e-01,2.01867e-03,9.99999e-01
4.576607403e-01,2.28190e-03,9.99999e-01,9.99999e-01,9.99996e-01,2.28191e-03,9.99999e-01
4.599490440e-01,2.57322e-03,9.99999e-01,9.99999e-01,9.99997e-01,2.57323e-03,9.99999e-01
4.622487892e-01,2.89486e-03,9.99999e-01,9.99999e-01,9.99999e-01,2.89486e-03,9.99999e-01
4.645600332e-01,3.24912e-03,9.99999e-01,9.99999e-01,9.99997e-01,3.24913e-03,9.99999e-01
4.668828333e-01,3.63835e-03,9.99999e-01,9.99999e-01,9.99973e-01,3.63844e-03,9.99999e-01
4.692172475e-01,4.06508e-03,9.99999e-01,9.99999e-01,9.99943e-01,4.06531e-03,9.99999e-01
4.715633337e-01,4.53214e-03,9.99999e-01,9.99999e-01,9.99962e-01,4.53231e-03,9.99999e-01
4.739211504e-01,5.04194e-03,9.99999e-01,9.99999e-01,9.99964e-01,5.04212e-03,9.99999e-01
4.762907561e-01,5.59737e-03,9.99999e-01,9.99999e-01,9.99981e-01,5.59748e-03,9.99999e-01
4.786722099e-01,6.20114e-03,9.99999e-01,9.99999e-01,9.99992e-01,6.20119e-03,9.99999e-01
4.810655710e-01,6.85611e-03,9.99999e-01,9.99999e-01,9.99997e-01,6.85613e-03,9.99999e-01
4.834708988e-01,7.56506e-03,9.99999e-01,9.99999e-01,9.99978e-01,7.56522e-03,9.99999e-01
4.858882533e-01,8.33111e-03,9.99999e-01,9.99999e-01,9.99959e-01,8.33144e-03,9.99999e-01
4.883176946e-01,9.15750e-03,9.99999e-01,9.99999e-01,9.99966e-01,9.15780e-03,9.99999e-01
4.907592831e-01,1.00470e-02,9.99999e-01,9.99999e-01,9.99969e-01,1.00473e-02,9.99999e-01
4.932130795e-01,1.10029e-02,9.99999e-01,9.99999e-01,9.99978e-01,1.10031e-02,9.99999e-01
4.956791449e-01,1.20281e-02,9.99999e-01,9.99999e-01,9.99988e-01,1.20282e-02,9.99999e-01
4.981575406e-01,1.31249e-02,9.99999e-01,9.99999e-01,9.99942e-01,1.31257e-02,9.99999e-01
5.006483283e-01,1.42965e-02,9.99999e-01,9.99999e-01,9.99853e-01,1.42986e-02,9.99998e-01
5.031515699e-01,1.55383e-02,9.99999e-01,9.99999e-01,9.99254e-01,1.55500e-02,9.99991e-01
5.056673278e-01,1.68761e-02,9.99999e-01,9.99999e-01,9.99605e-01,1.68829e-02,9.99990e-01
5.081956644e-01,1.82912e-02,9.99999e-01,9.99999e-01,9.99502e-01,1.83004e-02,9.99993e-01
5.107366428e-01,1.97986e-02,9.99999e-01,9.99999e-01,9.99663e-01,1.98053e-02,9.99998e-01
5.132903260e-01,2.13964e-02,9.99999e-01,9.99999e-01,9.99807e-01,2.14005e-02,9.99999e-01
5.158567776e-01,2.30870e-02,9.99999e-01,9.99999e-01,9.99918e-01,2.30888e-02,9.99999e-01
5.184360615e-01,2.48722e-02,9.99999e-01,9.99999e-01,9.99967e-01,2.48730e-02,9.99999e-01
5.210282418e-01,2.67554e-02,9.99999e-01,9.99999e-01,9.99987e-01,2.67558e-02,9.99999e-01
5.236333830e-01,2.87381e-02,9.99999e-01,9.99999e-01,9.99950e-01,2.87395e-02,9.99999e-01
5.262515499e-01,3.08259e-02,9.99999e-01,9.99999e-01,9.99969e-01,3.08268e-02,9.99999e-01
5.288828077e-01,3.30190e-02,9.99999e-01,9.99999e-01,9.99971e-01,3.30199e-02,9.99999e-01
5.315272217e-01,3.53202e-02,9.99999e-01,9.99999e-01,9.99974e-01,3.53211e-02,9.99999e-01
5.341848578e-01,3.77317e-02,9.99999e-01,9.99999e-01,9.99983e-01,3.77323e-02,9.99999e-01
5.368557821e-01,4.02534e-02,9.99999e-01,9.99999e-01,9.99943e-01,4.02557e-02,9.99999e-01
5.395400610e-01,4.28841e-02,9.99999e-01,9.99999e-01,9.99796e-01,4.28929e-02,9.99997e-01
5.422377613e-01,4.56333e-02,9.99999e-01,9.99999e-01,9.99735e-01,4.56456e-02,9.99994e-01
5.449489501e-01,4.85032e-02,9.99999e-01,9.99999e-01,9.99754e-01,4.85154e-02,9.99994e-01
5.476736949e-01,5.14921e-02,9.99999e-01,9.99999e-01,9.99781e-01,5.15035e-02,9.99997e-01
5.504120634e-01,5.46024e-02,9.99999e-01,9.99999e-01,9.99841e-01,5.46111e-02,9.99998e-01
5.531641237e-01,5.78346e-02,9.99999e-01,9.99999e-01,9.99919e-01,5.78392e-02,9.99999e-01
5.559299443e-01,6.11864e-02,9.99999e-01,9.99999e-01,9.99961e-01,6.11888e-02,9.99999e-01
5.587095940e-01,6.46588e-02,9.99999e-01,9.99999e-01,9.99975e-01,6.46603e-02,9.99999e-01
5.615031420e-01,6.82526e-02,9.99999e-01,9.99999e-01,9.99972e-01,6.82544e-02,9.99999e-01
5.643106577e-01,7.19692e-02,9.99999e-01,9.99999e-01,9.99969e-01,7.19713e-02,9.99999e-01
5.671322110e-01,7.57833e-02,9.99999e-01,9.99999e-01,9.99634e-01,7.58112e-02,9.99996e-01
5.699678720e-01,7.97418e-02,9.99999e-01,9.99999e-01,9.99605e-01,7.97740e-02,9.99989e-01
5.728177114e-01,8.38247e-02,9.99999e-01,9.99999e-01,9.99591e-01,8.38595e-02,9.99991e-01
5.756818000e-01,8.80339e-02,9.99999e-01,9.99999e-01,9.99624e-01,8.80674e-02,9.99994e-01
5.785602090e-01,9.23666e-02,9.99999e-01,9.99999e-01,9.99672e-01,9.23969e-02,9.99997e-01
5.814530100e-01,9.68157e-02,9.99999e-01,9.99999e-01,9.99671e-01,9.68475e-02,9.99998e-01
5.843602750e-01,1.01378e-01,9.99999e-01,9.99999e-01,9.99610e-01,1.01418e-01,9.99997e-01
5.872820764e-01,1.05749e-01,9.99999e-01,9.99999e-01,9.96642e-01,1.06108e-01,9.99975e-01
5.902184868e-01,1.10455e-01,9.99999e-01,9.99999e-01,9.95912e-01,1.10915e-01,9.99935e-01
5.931695792e-01,1.15498e-01,9.99999e-01,9.99999e-01,9.97116e-01,1.15839e-01,9.99936e-01
5.961354271e-01,1.20491e-01,9.99999e-01,9.99999e-01,9.96835e-01,1.20878e-01,9.99961e-01
5.991161043e-01,1.25737e-01,9.99999e-01,9.99999e-01,9.97690e-01,1.26029e-01,9.99988e-01
6.021116848e-01,1.31120e-01,9.99999e-01,9.99999e-01,9.98687e-01,1.31293e-01,9.99998e-01
6.051222432e-01,1.36574e-01,9.99999e-01,9.99999e-01,9.99335e-01,1.36665e-01,9.99999e-01
6.081478544e-01,1.42104e-01,9.99999e-01,9.99999e-01,9.99713e-01,1.42144e-01,9.99999e-01
6.111885937e-01,1.47711e-01,9.99999e-01,9.99999e-01,9.99878e-01,1.47729e-01,9.99999e-01
6.142445367e-01,1.53408e-01,9.99999e-01,9.99999e-01,9.99945e-01,1.53416e-01,9.99999e-01
6.173157594e-01,1.59198e-01,9.99999e-01,9.99999e-01,9.99969e-01,1.59203e-01,9.99999e-01
6.204023382e-01,1.65084e-01,9.99999e-01,9.99999e-01,9.99974e-01,1.65088e-01,9.99999e-01
6.235043498e-01,1.71049e-01,9.99999e-01,9.99999e-01,9.99889e-01,1.71067e-01,9.99999e-01
6.266218716e-01,1.77034e-01,9.99999e-01,9.99999e-01,9.99412e-01,1.77139e-01,9.99995e-01
6.297549810e-01,1.83259e-01,9.99999e-01,9.99999e-01,9.99784e-01,1.83300e-01,9.99991e-01
6.329037559e-01,1.89465e-01,9.99999e-01,9.99999e-01,9.99573e-01,1.89547e-01,9.99992e-01
6.360682746e-01,1.95805e-01,9.99999e-01,9.99999e-01,9.99637e-01,1.95877e-01,9.99995e-01
6.392486160e-01,2.02192e-01,9.99999e-01,9.99999e-01,9.99529e-01,2.02287e-01,9.99997e-01
6.424448591e-01,2.08643e-01,9.99999e-01,9.99999e-01,9.99373e-01,2.08774e-01,9.99996e-01
6.456570834e-01,2.14706e-01,9.99999e-01,9.99999e-01,9.97092e-01,2.15335e-01,9.99983e-01
6.488853688e-01,2.21481e-01,9.99999e-01,9.99999e-01,9.97858e-01,2.21967e-01,9.99954e-01
6.521297956e-01,2.28157e-01,9.99999e-01,9.99999e-01,9.97816e-01,2.28665e-01,9.99961e-01
6.553904446e-01,2.34913e-01,9.99999e-01,9.99999e-01,9.97842e-01,2.35428e-01,9.99971e-01
6.586673968e-01,2.41797e-01,9.99999e-01,9.99999e-01,9.98138e-01,2.42251e-01,9.99990e-01
6.619607338e-01,2.48862e-01,9.99999e-01,9.99999e-01,9.98923e-01,2.49131e-01,9.99997e-01
6.652705375e-01,2.55904e-01,9.99999e-01,9.99999e-01,9.99375e-01,2.56064e-01,9.99998e-01
6.685968902e-01,2.62972e-01,9.99999e-01,9.99999e-01,9.99709e-01,2.63048e-01,9.99999e-01
6.719398746e-01,2.70043e-01,9.99999e-01,9.99999e-01,9.99865e-01,2.70079e-01,9.99999e-01
6.752995740e-01,2.77134e-01,9.99999e-01,9.99999e-01,9.99926e-01,2.77154e-01,9.99999e-01
6.786760719e-01,2.84239e-01,9.99999e-01,9.99999e-01,9.99895e-01,2.84268e-01,9.99999e-01
6.820694522e-01,2.91367e-01,9.99999e-01,9.99999e-01,9.99820e-01,2.91420e-01,9.99998e-01
6.854797995e-01,2.98535e-01,9.99999e-01,9.99999e-01,9.99768e-01,2.98604e-01,9.99997e-01
6.889071985e-01,3.05648e-01,9.99999e-01,9.99999e-01,9.99445e-01,3.05819e-01,9.99994e-01
6.923517345e-01,3.10202e-01,9.99999e-01,9.99999e-01,9.90914e-01,3.13060e-01,9.99955e-01
6.958134932e-01,3.18760e-01,9.99999e-01,9.99999e-01,9.95214e-01,3.20324e-01,9.99900e-01
6.992925606e-01,3.26107e-01,9.99999e-01,9.99999e-01,9.95502e-01,3.27609e-01,9.99912e-01
7.027890234e-01,3.33021e-01,9.99999e-01,9.99999e-01,9.94425e-01,3.34910e-01,9.99932e-01
7.063029686e-01,3.40611e-01,9.99999e-01,9.99999e-01,9.95314e-01,3.42226e-01,9.99966e-01
7.098344834e-01,3.47973e-01,9.99999e-01,9.99999e-01,9.95504e-01,3.49551e-01,9.99979e-01
7.133836558e-01,3.54748e-01,9.99999e-01,9.99999e-01,9.94051e-01,3.56884e-01,9.99960e-01
7.169505741e-01,3.46951e-01,9.99999e-01,9.99999e-01,9.52872e-01,3.64222e-01,9.99692e-01
7.205353270e-01,3.62612e-01,9.99999e-01,9.99999e-01,9.76443e-01,3.71561e-01,9.99458e-01
7.241380036e-01,3.67520e-01,9.99999e-01,9.99999e-01,9.70420e-01,3.78899e-01,9.99531e-01
7.277586936e-01,3.75759e-01,9.99999e-01,9.99999e-01,9.73256e-01,3.86232e-01,9.99617e-01
7.313974871e-01,3.82273e-01,9.99999e-01,9.99999e-01,9.71496e-01,3.93559e-01,9.99820e-01
7.350544745e-01,3.94579e-01,9.99999e-01,9.99999e-01,9.84354e-01,4.00875e-01,9.99937e-01
7.387297469e-01,4.03459e-01,9.99999e-01,9.99999e-01,9.88463e-01,4.08179e-01,9.99970e-01
7.424233956e-01,4.13112e-01,9.99999e-01,9.99999e-01,9.94334e-01,4.15468e-01,9.99994e-01
7.461355126e-01,4.21287e-01,9.99999e-01,9.99999e-01,9.96566e-01,4.22739e-01,9.99998e-01
7.498661902e-01,4.29301e-01,9.99999e-01,9.99999e-01,9.98398e-01,4.29990e-01,9.99999e-01
7.536155211e-01,4.36875e-01,9.99999e-01,9.99999e-01,9.99215e-01,4.37218e-01,9.99999e-01
7.573835987e-01,4.44242e-01,9.99999e-01,9.99999e-01,9.99595e-01,4.44422e-01,9.99999e-01
7.611705167e-01,4.51485e-01,9.99999e-01,9.99999e-01,9.99748e-01,4.51598e-01,9.99999e-01
7.649763693e-01,4.58673e-01,9.99999e-01,9.99999e-01,9.99842e-01,4.58745e-01,9.99999e-01
7.688012511e-01,4.65810e-01,9.99999e-01,9.99999e-01,9.99890e-01,4.65861e-01,9.99999e-01
7.726452574e-01,4.72901e-01,9.99999e-01,9.99999e-01,9.99909e-01,4.72943e-01,9.99999e-01
7.765084837e-01,4.79929e-01,9.99999e-01,9.99999e-01,9.99872e-01,4.79990e-01,9.99999e-01
7.803910261e-01,4.70852e-01,9.99999e-01,9.67358e-01,9.99450e-01,4.87000e-01,9.99998e-01
7.842929812e-01,4.24412e-01,9.99999e-01,8.60759e-01,9.98081e-01,4.93970e-01,9.99995e-01
7.882144461e-01,4.25193e-01,9.99999e-01,8.52127e-01,9.96032e-01,5.00900e-01,9.99975e-01
7.921555184e-01,4.61570e-01,9.99999e-01,9.10968e-01,9.97816e-01,5.07787e-01,9.99952e-01
7.961162960e-01,4.81513e-01,9.99999e-01,9.39256e-01,9.96166e-01,5.14630e-01,9.99954e-01
8.000968774e-01,5.01777e-01,9.99999e-01,9.66638e-01,9.95559e-01,5.21427e-01,9.99951e-01
8.040973618e-01,5.16639e-01,9.99999e-01,9.82542e-01,9.95561e-01,5.28178e-01,9.99961e-01
8.081178486e-01,5.25293e-01,9.99999e-01,9.91967e-01,9.90051e-01,5.34879e-01,9.99963e-01
8.121584379e-01,5.18010e-01,9.99999e-01,9.97501e-01,9.59071e-01,5.41531e-01,9.99859e-01
8.162192301e-01,5.20893e-01,9.99999e-01,9.99447e-01,9.51321e-01,5.48132e-01,9.99472e-01
8.203003262e-01,5.40838e-01,9.99999e-01,9.99990e-01,9.75653e-01,5.54680e-01,9.99382e-01
8.244018279e-01,5.41633e-01,9.99999e-01,9.99999e-01,9.65650e-01,5.61175e-01,9.99508e-01
8.285238370e-01,5.50820e-01,9.99999e-01,9.99999e-01,9.70783e-01,5.67616e-01,9.99613e-01
8.326664562e-01,5.56921e-01,9.99999e-01,9.99999e-01,9.70399e-01,5.74001e-01,9.99840e-01
8.368297885e-01,5.67985e-01,9.99999e-01,9.99999e-01,9.78763e-01,5.80329e-01,9.99963e-01
8.410139374e-01,5.79157e-01,9.99999e-01,9.99999e-01,9.87331e-01,5.86601e-01,9.99978e-01
8.452190071e-01,5.89111e-01,9.99999e-01,9.99999e-01,9.93766e-01,5.92814e-01,9.99986e-01
8.494451021e-01,5.96799e-01,9.99999e-01,9.99999e-01,9.96387e-01,5.98968e-01,9.99989e-01
8.536923276e-01,6.03763e-01,9.99999e-01,9.99999e-01,9.97858e-01,6.05063e-01,9.99992e-01
8.579607893e-01,6.10292e-01,9.99999e-01,9.99999e-01,9.98683e-01,6.11097e-01,9.99997e-01
8.622505932e-01,6.16554e-01,9.99999e-01,9.99999e-01,9.99162e-01,6.17071e-01,9.99999e-01
8.665618462e-01,5.77407e-01,9.99999e-01,9.27301e-01,9.99482e-01,6.22984e-01,9.99999e-01
8.708946554e-01,4.29797e-01,9.99999e-01,6.83872e-01,9.99408e-01,6.28834e-01,9.99999e-01
8.752491287e-01,4.66656e-01,9.99999e-01,7.35893e-01,9.99208e-01,6.34623e-01,9.99998e-01
8.796253743e-01,5.40467e-01,9.99999e-01,8.44919e-01,9.98905e-01,6.40349e-01,9.99997e-01
8.840235012e-01,5.91250e-01,9.99999e-01,9.16366e-01,9.98749e-01,6.46011e-01,9.99991e-01
8.884436187e-01,6.26695e-01,9.99999e-01,9.66105e-01,9.95482e-01,6.51611e-01,9.99977e-01
8.928858368e-01,6.17608e-01,9.99999e-01,9.86152e-01,9.53035e-01,6.57147e-01,9.99874e-01
8.973502660e-01,6.05853e-01,9.99999e-01,9.96608e-01,9.17967e-01,6.62620e-01,9.99358e-01
9.018370173e-01,6.38483e-01,9.99999e-01,9.99625e-01,9.57083e-01,6.68028e-01,9.98992e-01
9.063462024e-01,6.41616e-01,9.99999e-01,9.90586e-01,9.62464e-01,6.73373e-01,9.99114e-01
9.108779334e-01,6.24921e-01,9.99999e-01,9.78253e-01,9.41911e-01,6.78653e-01,9.99079e-01
9.154323231e-01,6.35167e-01,9.99999e-01,9.94829e-01,9.34219e-01,6.83869e-01,9.99239e-01
9.200094847e-01,6.07776e-01,9.99999e-01,9.28273e-01,9.48027e-01,6.89022e-01,9.99573e-01
9.246095321e-01,5.74674e-01,9.99999e-01,8.98014e-01,9.20665e-01,6.94110e-01,9.99509e-01
9.292325798e-01,3.71474e-01,9.99999e-01,9.19577e-01,5.73893e-01,6.99134e-01,9.98088e-01
9.338787427e-01,3.16243e-01,9.99999e-01,9.21756e-01,4.86934e-01,7.04094e-01,9.92124e-01
9.385481364e-01,4.96443e-01,9.99999e-01,9.41907e-01,7.47840e-01,7.08990e-01,9.90639e-01
9.432408771e-01,4.57750e-01,9.99999e-01,9.63972e-01,6.69309e-01,7.13823e-01,9.91919e-01
9.479570815e-01,4.03559e-01,9.99999e-01,9.81380e-01,5.75464e-01,7.18592e-01,9.93418e-01
9.526968669e-01,4.70850e-01,9.99999e-01,9.90971e-01,6.59030e-01,7.23298e-01,9.95980e-01
9.574603512e-01,4.93003e-01,9.99999e-01,9.96128e-01,6.81107e-01,7.27941e-01,9.97955e-01
9.622476530e-01,5.34184e-01,9.99999e-01,9.98790e-01,7.31105e-01,7.32521e-01,9.98586e-01
9.670588912e-01,6.14577e-01,9.99999e-01,9.99636e-01,8.34941e-01,7.37038e-01,9.99032e-01
9.718941857e-01,6.61961e-01,9.99999e-01,9.99973e-01,8.93396e-01,7.41494e-01,9.99287e-01
9.767536566e-01,6.78904e-01,9.99999e-01,9.99999e-01,9.10690e-01,7.45887e-01,9.99455e-01
9.816374249e-01,6.99780e-01,9.99999e-01,9.99999e-01,9.32941e-01,7.50219e-01,9.99811e-01
9.865456120e-01,7.22442e-01,9.99999e-01,9.99999e-01,9.57560e-01,7.54490e-01,9.99960e-01
9.914783401e-01,7.38637e-01,9.99999e-01,9.99999e-01,9.73565e-01,7.58700e-01,9.99988e-01
9.964357318e-01,7.51798e-01,9.99999e-01,9.99999e-01,9.85517e-01,7.62850e-01,9.99993e-01
1.001417910e+00,7.60257e-01,9.99999e-01,9.99999e-01,9.91295e-01,7.66940e-01,9.99989e-01
1.006425000e+00,7.67132e-01,9.99999e-01,9.99999e-01,9.95035e-01,7.70970e-01,9.99985e-01
1.011457125e+00,7.72538e-01,9.99999e-01,9.99999e-01,9.96911e-01,7.74941e-01,9.99986e-01
1.016514411e+00,7.77215e-01,9.99999e-01,9.99999e-01,9.97904e-01,7.78854e-01,9.99990e-01
1.021596983e+00,7.81358e-01,9.99999e-01,9.99952e-01,9.98330e-01,7.82708e-01,9.99990e-01
1.026704968e+00,7.82595e-01,9.99999e-01,9.96329e-01,9.98698e-01,7.86505e-01,9.99993e-01
1.031838492e+00,7.56216e-01,9.99999e-01,9.57820e-01,9.99052e-01,7.90245e-01,9.99997e-01
1.036997685e+00,1.23226e-01,9.99999e-01,1.55280e-01,9.99437e-01,7.93928e-01,9.99999e-01
1.042182673e+00,9.72842e-02,9.99999e-01,1.22050e-01,9.99330e-01,7.97555e-01,9.99999e-01
1.047393587e+00,1.15930e-01,9.99999e-01,1.44822e-01,9.99112e-01,8.01127e-01,9.99999e-01
1.052630555e+00,3.32941e-03,9.99999e-01,4.14145e-03,9.98782e-01,8.04643e-01,9.99999e-01
1.057893707e+00,8.36613e-03,9.99999e-01,1.03670e-02,9.97969e-01,8.08105e-01,9.99998e-01
1.063183176e+00,2.78968e-02,9.99999e-01,3.44589e-02,9.96658e-01,8.11513e-01,9.99997e-01
1.068499092e+00,7.83327e-02,9.99999e-01,9.65843e-02,9.94405e-01,8.14868e-01,9.99995e-01
1.073841587e+00,1.85280e-01,9.99999e-01,2.27727e-01,9.93460e-01,8.18170e-01,9.99991e-01
1.079210795e+00,3.19456e-01,9.99999e-01,3.91913e-01,9.91612e-01,8.21420e-01,9.99977e-01
1.084606849e+00,4.86223e-01,9.99999e-01,5.96878e-01,9.87338e-01,8.24618e-01,9.99945e-01
1.090029883e+00,6.22103e-01,9.99999e-01,7.65100e-01,9.81909e-01,8.27765e-01,9.99887e-01
1.095480033e+00,6.92958e-01,9.99999e-01,8.76321e-01,9.51417e-01,8.30861e-01,9.99797e-01
1.100957433e+00,6.89707e-01,9.99999e-01,9.38391e-01,8.81134e-01,8.33907e-01,9.99627e-01
1.106462220e+00,5.91707e-01,9.99999e-01,9.74032e-01,7.25652e-01,8.36905e-01,9.99369e-01
1.111994531e+00,4.23244e-01,9.99999e-01,9.90296e-01,5.09390e-01,8.39853e-01,9.98326e-01
1.117554504e+00,2.81364e-01,9.99999e-01,9.97617e-01,3.36541e-01,8.42753e-01,9.93972e-01
1.123142276e+00,3.75810e-01,9.99999e-01,9.99842e-01,4.50878e-01,8.45606e-01,9.85766e-01
1.128757988e+00,4.99850e-01,9.99999e-01,9.99999e-01,5.99011e-01,8.48412e-01,9.83552e-01
1.134401778e+00,2.83413e-01,9.99999e-01,9.99999e-01,3.37697e-01,8.51171e-01,9.85997e-01
1.140073787e+00,6.21199e-01,9.99999e-01,9.99999e-01,7.35740e-01,8.53885e-01,9.88795e-01
1.145774156e+00,4.47897e-01,9.99999e-01,9.99999e-01,5.28327e-01,8.56553e-01,9.89739e-01
1.151503026e+00,4.20415e-01,9.99999e-01,9.99999e-01,4.92142e-01,8.59177e-01,9.94270e-01
1.157260541e+00,4.74192e-01,9.99999e-01,9.99999e-01,5.51208e-01,8.61756e-01,9.98283e-01
1.163046844e+00,5.55685e-01,9.99999e-01,9.99999e-01,6.43249e-01,8.64293e-01,9.99512e-01
1.168862078e+00,6.37404e-01,9.99999e-01,9.99999e-01,7.35548e-01,8.66786e-01,9.99748e-01
1.174706389e+00,7.18926e-01,9.99999e-01,9.99999e-01,8.27351e-01,8.69237e-01,9.99667e-01
1.180579921e+00,7.76201e-01,9.99999e-01,9.99999e-01,8.90947e-01,8.71647e-01,9.99496e-01
1.186482820e+00,8.18405e-01,9.99999e-01,9.99993e-01,9.36861e-01,8.74015e-01,9.99483e-01
1.192415234e+00,8.32458e-01,9.99999e-01,9.86986e-01,9.62678e-01,8.76343e-01,9.99613e-01
1.198377311e+00,4.80779e-01,9.99999e-01,5.62247e-01,9.68481e-01,8.78631e-01,9.99634e-01
1.204369197e+00,3.85092e-11,9.99999e-01,4.45031e-11,9.70135e-01,8.80879e-01,9.99669e-01
1.210391043e+00,2.01906e-40,9.99999e-01,2.32390e-40,9.71419e-01,8.83089e-01,9.99798e-01
1.216442998e+00,3.47934e-35,9.99999e-01,3.99116e-35,9.75608e-01,8.85260e-01,9.99876e-01
1.222525213e+00,1.12014e-34,9.99999e-01,1.27491e-34,9.80970e-01,8.87394e-01,9.99923e-01
1.228637839e+00,7.37416e-27,9.99999e-01,8.36749e-27,9.86754e-01,8.89490e-01,9.99963e-01
