#,Wave/freq,Total,N2,CO2,H2O,Rayleigh,CIA
4.000000000e-01,1.15405e-21,9.99999e-01,9.99999e-01,9.99906e-01,1.15415e-21,9.99999e-01
4.020000000e-01,2.99395e-21,9.99999e-01,9.99999e-01,9.99941e-01,2.99412e-21,9.99999e-01
4.040100000e-01,7.61471e-21,9.99999e-01,9.99999e-01,9.99975e-01,7.61490e-21,9.99999e-01
4.060300500e-01,1.90129e-20,9.99999e-01,9.99999e-01,9.99993e-01,1.90130e-20,9.99999e-01
4.080602003e-01,4.66217e-20,9.99999e-01,9.99999e-01,9.99997e-01,4.66218e-20,9.99999e-01
4.101005013e-01,1.12314e-19,9.99999e-01,9.99999e-01,9.99999e-01,1.12314e-19,9.99999e-01
4.121510038e-01,2.65908e-19,9.99999e-01,9.99999e-01,9.99996e-01,2.65909e-19,9.99999e-01
4.142117588e-01,6.18913e-19,9.99999e-01,9.99999e-01,9.99974e-01,6.18929e-19,9.99999e-01
4.162828176e-01,1.41661e-18,9.99999e-01,9.99999e-01,9.99884e-01,1.41677e-18,9.99999e-01
4.183642317e-01,3.19027e-18,9.99999e-01,9.99999e-01,9.99931e-01,3.19049e-18,9.99999e-01
4.204560528e-01,7.07018e-18,9.99999e-01,9.99999e-01,9.99957e-01,7.07048e-18,9.99999e-01
4.225583331e-01,1.54244e-17,9.99999e-01,9.99999e-01,9.99983e-01,1.54246e-17,9.99999e-01
4.246711247e-01,3.31348e-17,9.99999e-01,9.99999e-01,9.99987e-01,3.31352e-17,9.99999e-01
4.267944804e-01,7.01126e-17,9.99999e-01,9.99999e-01,9.99981e-01,7.01139e-17,9.99999e-01
4.289284528e-01,1.46179e-16,9.99999e-01,9.99999e-01,9.99985e-01,1.46181e-16,9.99999e-01
4.310730950e-01,3.00379e-16,9.99999e-01,9.99999e-01,9.99993e-01,3.00381e-16,9.99999e-01
4.332284605e-01,6.08522e-16,9.99999e-01,9.99999e-01,9.99997e-01,6.08523e-16,9.99999e-01
4.353946028e-01,1.21570e-15,9.99999e-01,9.99999e-01,9.99998e-01,1.21570e-15,9.99999e-01
4.375715758e-01,2.39570e-15,9.99999e-01,9.99999e-01,9.99988e-01,2.39572e-15,9.99999e-01
4.397594337e-01,4.65785e-15,9.99999e-01,9.99999e-01,9.99899e-01,4.65832e-15,9.99999e-01
4.419582309e-01,8.93506e-15,9.99999e-01,9.99999e-01,9.99494e-01,8.93958e-15,9.99999e-01
4.441680220e-01,1.69293e-14,9.99999e-01,9.99999e-01,9.99597e-01,1.69361e-14,9.99999e-01
4.463888621e-01,3.16700e-14,9.99999e-01,9.99999e-01,9.99583e-01,3.16832e-14,9.99999e-01
4.486208064e-01,5.85272e-14,9.99999e-01,9.99999e-01,9.99739e-01,5.85424e-14,9.99999e-01
4.508639105e-01,1.06855e-13,9.99999e-01,9.99999e-01,9.99877e-01,1.06868e-13,9.99999e-01
4.531182300e-01,1.92769e-13,9.99999e-01,9.99999e-01,9.99951e-01,1.92778e-13,9.99999e-01
4.553838212e-01,3.43713e-13,9.99999e-01,9.99999e-01,9.99967e-01,3.43724e-13,9.99999e-01
4.576607403e-01,6.05890e-13,9.99999e-01,9.99999e-01,9.99984e-01,6.05899e-13,9.99999e-01
4.599490440e-01,1.05615e-12,9.99999e-01,9.99999e-01,9.99988e-01,1.05616e-12,9.99999e-01
4.622487892e-01,1.82091e-12,9.99999e-01,9.99999e-01,9.99997e-01,1.82091e-12,9.99999e-01
4.645600332e-01,3.10581e-12,9.99999e-01,9.99999e-01,9.99992e-01,3.10583e-12,9.99999e-01
4.668828333e-01,5.24123e-12,9.99999e-01,9.99999e-01,9.99877e-01,5.24186e-12,9.99999e-01
4.692172475e-01,8.75368e-12,9.99999e-01,9.99999e-01,9.99738e-01,8.75596e-12,9.99999e-01
4.715633337e-01,1.44759e-11,9.99999e-01,9.99999e-01,9.99829e-01,1.44784e-11,9.99999e-01
4.739211504e-01,2.37002e-11,9.99999e-01,9.99999e-01,9.99835e-01,2.37041e-11,9.99999e-01
4.762907561e-01,3.84291e-11,9.99999e-01,9.99999e-01,9.99914e-01,3.84324e-11,9.99999e-01
4.786722099e-01,6.17177e-11,9.99999e-01,9.99999e-01,9.99964e-01,6.17199e-11,9.99999e-01
4.810655710e-01,9.81940e-11,9.99999e-01,9.99999e-01,9.99989e-01,9.81950e-11,9.99999e-01
4.834708988e-01,1.54785e-10,9.99999e-01,9.99999e-01,9.99901e-01,1.54800e-10,9.99999e-01
4.858882533e-01,2.41806e-10,9.99999e-01,9.99999e-01,9.99814e-01,2.41850e-10,9.99999e-01
4.883176946e-01,3.74480e-10,9.99999e-01,9.99999e-01,9.99845e-01,3.74538e-10,9.99999e-01
4.907592831e-01,5.74952e-10,9.99999e-01,9.99999e-01,9.99859e-01,5.75032e-10,9.99999e-01
4.932130795e-01,8.75323e-10,9.99999e-01,9.99999e-01,9.99900e-01,8.75410e-10,9.99999e-01
4.956791449e-01,1.32161e-09,9.99999e-01,9.99999e-01,9.99946e-01,1.32168e-09,9.99999e-01
4.981575406e-01,1.97875e-09,9.99999e-01,9.99999e-01,9.99738e-01,1.97927e-09,9.99999e-01
5.006483283e-01,2.93850e-09,9.99999e-01,9.99999e-01,9.99325e-01,2.94050e-09,9.99994e-01
5.031515699e-01,4.31947e-09,9.99999e-01,9.99999e-01,9.96564e-01,4.33451e-09,9.99963e-01
5.056673278e-01,6.32881e-09,9.99999e-01,9.99999e-01,9.98179e-01,6.34062e-09,9.99958e-01
5.081956644e-01,9.18437e-09,9.99999e-01,9.99999e-01,9.97702e-01,9.20576e-09,9.99972e-01
5.107366428e-01,1.32468e-08,9.99999e-01,9.99999e-01,9.98447e-01,1.32675e-08,9.99994e-01
5.132903260e-01,1.89669e-08,9.99999e-01,9.99999e-01,9.99110e-01,1.89838e-08,9.99998e-01
5.158567776e-01,2.69613e-08,9.99999e-01,9.99999e-01,9.99623e-01,2.69715e-08,9.99999e-01
5.184360615e-01,3.80494e-08,9.99999e-01,9.99999e-01,9.99849e-01,3.80551e-08,9.99999e-01
5.210282418e-01,5.33266e-08,9.99999e-01,9.99999e-01,9.99943e-01,5.33296e-08,9.99999e-01
5.236333830e-01,7.42217e-08,9.99999e-01,9.99999e-01,9.99775e-01,7.42384e-08,9.99997e-01
5.262515499e-01,1.02657e-07,9.99999e-01,9.99999e-01,9.99858e-01,1.02672e-07,9.99997e-01
5.288828077e-01,1.41071e-07,9.99999e-01,9.99999e-01,9.99871e-01,1.41089e-07,9.99998e-01
5.315272217e-01,1.92645e-07,9.99999e-01,9.99999e-01,9.99885e-01,1.92667e-07,9.99999e-01
5.341848578e-01,2.61467e-07,9.99999e-01,9.99999e-01,9.99925e-01,2.61486e-07,9.99999e-01
5.368557821e-01,3.52661e-07,9.99999e-01,9.99999e-01,9.99739e-01,3.52753e-07,9.99998e-01
5.395400610e-01,4.72623e-07,9.99999e-01,9.99999e-01,9.99065e-01,4.73068e-07,9.99991e-01
5.422377613e-01,6.29969e-07,9.99999e-01,9.99999e-01,9.98776e-01,6.30754e-07,9.99977e-01
5.449489501e-01,8.35271e-07,9.99999e-01,9.99999e-01,9.98869e-01,8.36234e-07,9.99976e-01
5.476736949e-01,1.10137e-06,9.99999e-01,9.99999e-01,9.98991e-01,1.10250e-06,9.99988e-01
5.504120634e-01,1.44456e-06,9.99999e-01,9.99999e-01,9.99268e-01,1.44562e-06,9.99996e-01
5.531641237e-01,1.88473e-06,9.99999e-01,9.99999e-01,9.99631e-01,1.88542e-06,9.99999e-01
5.559299443e-01,2.44572e-06,9.99999e-01,9.99999e-01,9.99821e-01,2.44615e-06,9.99999e-01
5.587095940e-01,3.15701e-06,9.99999e-01,9.99999e-01,9.99888e-01,3.15736e-06,9.99999e-01
5.615031420e-01,4.05436e-06,9.99999e-01,9.99999e-01,9.99875e-01,4.05487e-06,9.99999e-01
5.643106577e-01,5.18110e-06,9.99999e-01,9.99999e-01,9.99861e-01,5.18182e-06,9.99998e-01
5.671322110e-01,6.57885e-06,9.99999e-01,9.99999e-01,9.98325e-01,6.58998e-06,9.99984e-01
5.699678720e-01,8.32551e-06,9.99999e-01,9.99999e-01,9.98174e-01,8.34112e-06,9.99953e-01
5.728177114e-01,1.04884e-05,9.99999e-01,9.99999e-01,9.98116e-01,1.05085e-05,9.99960e-01
5.756818000e-01,1.31558e-05,9.99999e-01,9.99999e-01,9.98268e-01,1.31789e-05,9.99975e-01
5.785602090e-01,1.64291e-05,9.99999e-01,9.99999e-01,9.98487e-01,1.64541e-05,9.99992e-01
5.814530100e-01,2.04223e-05,9.99999e-01,9.99999e-01,9.98483e-01,2.04533e-05,9.99996e-01
5.843602750e-01,2.52700e-05,9.99999e-01,9.99999e-01,9.98206e-01,2.53156e-05,9.99989e-01
5.872820764e-01,3.07197e-05,9.99999e-01,9.99999e-01,9.84648e-01,3.12020e-05,9.99890e-01
5.902184868e-01,3.75691e-05,9.99999e-01,9.99999e-01,9.81242e-01,3.82987e-05,9.99701e-01
5.931695792e-01,4.61866e-05,9.99999e-01,9.99999e-01,9.86766e-01,4.68195e-05,9.99709e-01
5.961354271e-01,5.61708e-05,9.99999e-01,9.99999e-01,9.85461e-01,5.70094e-05,9.99824e-01
5.991161043e-01,6.84086e-05,9.99999e-01,9.99999e-01,9.89361e-01,6.91476e-05,9.99948e-01
6.021116848e-01,8.30446e-05,9.99999e-01,9.99999e-01,9.93943e-01,8.35511e-05,9.99993e-01
6.051222432e-01,1.00269e-04,9.99999e-01,9.99999e-01,9.96929e-01,1.00578e-04,9.99999e-01
6.081478544e-01,1.20473e-04,9.99999e-01,9.99999e-01,9.98675e-01,1.20632e-04,9.99999e-01
6.111885937e-01,1.44086e-04,9.99999e-01,9.99999e-01,9.99438e-01,1.44167e-04,9.99999e-01
6.142445367e-01,1.71644e-04,9.99999e-01,9.99999e-01,9.99749e-01,1.71687e-04,9.99999e-01
6.173157594e-01,2.03728e-04,9.99999e-01,9.99999e-01,9.99861e-01,2.03756e-04,9.99999e-01
6.204023382e-01,2.40970e-04,9.99999e-01,9.99999e-01,9.99883e-01,2.40998e-04,9.99999e-01
6.235043498e-01,2.83961e-04,9.99999e-01,9.99999e-01,9.99494e-01,2.84105e-04,9.99998e-01
6.266218716e-01,3.32923e-04,9.99999e-01,9.99999e-01,9.97287e-01,3.33834e-04,9.99980e-01
6.297549810e-01,3.90617e-04,9.99999e-01,9.99999e-01,9.99004e-01,3.91021e-04,9.99961e-01
6.329037559e-01,4.55661e-04,9.99999e-01,9.99999e-01,9.98028e-01,4.56575e-04,9.99968e-01
6.360682746e-01,5.30592e-04,9.99999e-01,9.99999e-01,9.98327e-01,5.31490e-04,9.99981e-01
6.392486160e-01,6.15499e-04,9.99999e-01,9.99999e-01,9.97828e-01,6.16843e-04,9.99991e-01
6.424448591e-01,7.11733e-04,9.99999e-01,9.99999e-01,9.97116e-01,7.13800e-04,9.99986e-01
6.456570834e-01,8.12586e-04,9.99999e-01,9.99999e-01,9.86677e-01,8.23619e-04,9.99924e-01
6.488853688e-01,9.36512e-04,9.99999e-01,9.99999e-01,9.88451e-01,9.47651e-04,9.99790e-01
6.521297956e-01,1.07624e-03,9.99999e-01,9.99999e-01,9.89961e-01,1.08734e-03,9.99824e-01
6.553904446e-01,1.23173e-03,9.99999e-01,9.99999e-01,9.90071e-01,1.24425e-03,9.99867e-01
6.586673968e-01,1.40776e-03,9.99999e-01,9.99999e-01,9.91420e-01,1.42000e-03,9.99956e-01
6.619607338e-01,1.60832e-03,9.99999e-01,9.99999e-01,9.95031e-01,1.61636e-03,9.99990e-01
6.652705375e-01,1.82987e-03,9.99999e-01,9.99999e-01,9.97113e-01,1.83517e-03,9.99994e-01
6.685968902e-01,2.07560e-03,9.99999e-01,9.99999e-01,9.98659e-01,2.07838e-03,9.99998e-01
6.719398746e-01,2.34659e-03,9.99999e-01,9.99999e-01,9.99377e-01,2.34805e-03,9.99999e-01
6.752995740e-01,2.64543e-03,9.99999e-01,9.99999e-01,9.99663e-01,2.64632e-03,9.99999e-01
6.786760719e-01,2.97401e-03,9.99999e-01,9.99999e-01,9.99517e-01,2.97544e-03,9.99998e-01
6.820694522e-01,3.33499e-03,9.99999e-01,9.99999e-01,9.99172e-01,3.33776e-03,9.99995e-01
6.854797995e-01,3.73169e-03,9.99999e-01,9.99999e-01,9.98933e-01,3.73571e-03,9.99990e-01
6.889071985e-01,4.16110e-03,9.99999e-01,9.99999e-01,9.97455e-01,4.17181e-03,9.99976e-01
6.923517345e-01,4.45682e-03,9.99999e-01,9.99999e-01,9.58922e-01,4.64868e-03,9.99797e-01
6.958134932e-01,5.05333e-03,9.99999e-01,9.99999e-01,9.78071e-01,5.16898e-03,9.99542e-01
6.992925606e-01,5.61543e-03,9.99999e-01,9.99999e-01,9.79458e-01,5.73550e-03,9.99597e-01
7.027890234e-01,6.18731e-03,9.99999e-01,9.99999e-01,9.74519e-01,6.35104e-03,9.99691e-01
7.063029686e-01,6.86679e-03,9.99999e-01,9.99999e-01,9.78533e-01,7.01850e-03,9.99846e-01
7.098344834e-01,7.58057e-03,9.99999e-01,9.99999e-01,9.79387e-01,7.74081e-03,9.99908e-01
7.133836558e-01,8.28934e-03,9.99999e-01,9.99999e-01,9.72993e-01,8.52095e-03,9.99819e-01
7.169505741e-01,7.52217e-03,9.99999e-01,9.99999e-01,8.04624e-01,9.36194e-03,9.98581e-01
7.205353270e-01,9.18582e-03,9.99999e-01,9.99999e-01,8.96951e-01,1.02668e-02,9.97498e-01
7.241380036e-01,9.78114e-03,9.99999e-01,9.99999e-01,8.72193e-01,1.12387e-02,9.97839e-01
7.277586936e-01,1.08352e-02,9.99999e-01,9.99999e-01,8.83868e-01,1.22806e-02,9.98233e-01
7.313974871e-01,1.17216e-02,9.99999e-01,9.99999e-01,8.75758e-01,1.33956e-02,9.99172e-01
7.350544745e-01,1.35620e-02,9.99999e-01,9.99999e-01,9.30016e-01,1.45867e-02,9.99711e-01
7.387297469e-01,1.50283e-02,9.99999e-01,9.99999e-01,9.47852e-01,1.58571e-02,9.99867e-01
7.424233956e-01,1.67628e-02,9.99999e-01,9.99999e-01,9.74054e-01,1.72098e-02,9.99974e-01
7.461355126e-01,1.83532e-02,9.99999e-01,9.99999e-01,9.84215e-01,1.86476e-02,9.99995e-01
7.498661902e-01,2.00243e-02,9.99999e-01,9.99999e-01,9.92602e-01,2.01735e-02,9.99997e-01
7.536155211e-01,2.17115e-02,9.99999e-01,9.99999e-01,9.96374e-01,2.17905e-02,9.99998e-01
7.573835987e-01,2.34573e-02,9.99999e-01,9.99999e-01,9.98130e-01,2.35012e-02,9.99999e-01
7.611705167e-01,2.52790e-02,9.99999e-01,9.99999e-01,9.98838e-01,2.53084e-02,9.99999e-01
7.649763693e-01,2.71950e-02,9.99999e-01,9.99999e-01,9.99272e-01,2.72148e-02,9.99999e-01
7.688012511e-01,2.92080e-02,9.99999e-01,9.99999e-01,9.99493e-01,2.92228e-02,9.99999e-01
7.726452574e-01,3.13218e-02,9.99999e-01,9.99999e-01,9.99583e-01,3.13348e-02,9.99999e-01
7.765084837e-01,3.35335e-02,9.99999e-01,9.99999e-01,9.99412e-01,3.35532e-02,9.99998e-01
7.803910261e-01,3.18391e-02,9.99999e-01,8.89401e-01,9.97468e-01,3.58802e-02,9.99997e-01
7.842929812e-01,2.01336e-02,9.99999e-01,5.29372e-01,9.91193e-01,3.83177e-02,9.99983e-01
7.882144461e-01,2.07375e-02,9.99999e-01,5.15651e-01,9.81800e-01,4.08678e-02,9.99887e-01
7.921555184e-01,2.83665e-02,9.99999e-01,6.57791e-01,9.89940e-01,4.35321e-02,9.99782e-01
7.961162960e-01,3.41557e-02,9.99999e-01,7.50297e-01,9.82460e-01,4.63123e-02,9.99791e-01
8.000968774e-01,4.12469e-02,9.99999e-01,8.55570e-01,9.79642e-01,4.92099e-02,9.99778e-01
8.040973618e-01,4.71665e-02,9.99999e-01,9.21860e-01,9.79668e-01,5.22261e-02,9.99823e-01
8.081178486e-01,5.09502e-02,9.99999e-01,9.63410e-01,9.55142e-01,5.53621e-02,9.99834e-01
8.121584379e-01,4.79161e-02,9.99999e-01,9.88470e-01,8.27070e-01,5.86188e-02,9.99351e-01
8.162192301e-01,4.91862e-02,9.99999e-01,9.97440e-01,7.97177e-01,6.19971e-02,9.97566e-01
8.203003262e-01,5.85839e-02,9.99999e-01,9.99957e-01,8.97023e-01,6.54976e-02,9.97150e-01
8.244018279e-01,5.91862e-02,9.99999e-01,9.99999e-01,8.58219e-01,6.91206e-02,9.97731e-01
8.285238370e-01,6.35213e-02,9.99999e-01,9.99999e-01,8.73304e-01,7.28665e-02,9.98218e-01
8.326664562e-01,6.68541e-02,9.99999e-01,9.99999e-01,8.71870e-01,7.67355e-02,9.99262e-01
8.368297885e-01,7.31200e-02,9.99999e-01,9.99999e-01,9.05917e-01,8.07273e-02,9.99831e-01
8.410139374e-01,7.99859e-02,9.99999e-01,9.99999e-01,9.42859e-01,8.48417e-02,9.99901e-01
8.452190071e-01,8.65343e-02,9.99999e-01,9.99999e-01,9.71497e-01,8.90783e-02,9.99940e-01
8.494451021e-01,9.18817e-02,9.99999e-01,9.99999e-01,9.83406e-01,9.34365e-02,9.99952e-01
8.536923276e-01,9.69457e-02,9.99999e-01,9.99999e-01,9.90126e-01,9.79155e-02,9.99968e-01
8.579607893e-01,1.01891e-01,9.99999e-01,9.99999e-01,9.93924e-01,1.02514e-01,9.99991e-01
8.622505932e-01,1.06817e-01,9.99999e-01,9.99999e-01,9.96128e-01,1.07232e-01,9.99998e-01
8.665618462e-01,9.52062e-02,9.99999e-01,8.51434e-01,9.97611e-01,1.12067e-01,9.99998e-01
8.708946554e-01,2.52461e-02,9.99999e-01,2.16270e-01,9.97270e-01,1.17018e-01,9.99998e-01
8.752491287e-01,3.28963e-02,9.99999e-01,2.70357e-01,9.96347e-01,1.22083e-01,9.99995e-01
8.796253743e-01,6.02614e-02,9.99999e-01,4.75668e-01,9.94959e-01,1.27262e-01,9.99988e-01
8.840235012e-01,8.86772e-02,9.99999e-01,6.72658e-01,9.94240e-01,1.32551e-01,9.99964e-01
8.884436187e-01,1.15392e-01,9.99999e-01,8.53289e-01,9.79566e-01,1.37949e-01,9.99899e-01
8.928858368e-01,1.08514e-01,9.99999e-01,9.37615e-01,8.05254e-01,1.43453e-01,9.99421e-01
8.973502660e-01,9.98066e-02,9.99999e-01,9.84378e-01,6.81294e-01,1.49062e-01,9.97040e-01
9.018370173e-01,1.26307e-01,9.99999e-01,9.98262e-01,8.21138e-01,1.54773e-01,9.95350e-01
9.063462024e-01,1.29833e-01,9.99999e-01,9.58864e-01,8.41942e-01,1.60583e-01,9.95914e-01
9.108779334e-01,1.15057e-01,9.99999e-01,9.03811e-01,7.64045e-01,1.66491e-01,9.95754e-01
9.154323231e-01,1.23608e-01,9.99999e-01,9.76319e-01,7.35004e-01,1.72492e-01,9.96489e-01
9.200094847e-01,1.10899e-01,9.99999e-01,7.60601e-01,7.86269e-01,1.78585e-01,9.98033e-01
9.246095321e-01,8.13275e-02,9.99999e-01,6.12943e-01,7.01717e-01,1.84766e-01,9.97734e-01
9.292325798e-01,1.67474e-02,9.99999e-01,6.90622e-01,1.16762e-01,1.91033e-01,9.91195e-01
9.338787427e-01,8.29192e-03,9.99999e-01,6.92783e-01,5.76548e-02,1.97383e-01,9.64104e-01
9.385481364e-01,4.85644e-02,9.99999e-01,7.60891e-01,3.12383e-01,2.03811e-01,9.57453e-01
9.432408771e-01,3.81170e-02,9.99999e-01,8.44195e-01,2.17115e-01,2.10316e-01,9.63185e-01
9.479570815e-01,2.27423e-02,9.99999e-01,9.16833e-01,1.16348e-01,2.16894e-01,9.69933e-01
9.526968669e-01,3.95678e-02,9.99999e-01,9.58995e-01,1.86261e-01,2.23542e-01,9.81552e-01
9.574603512e-01,4.49435e-02,9.99999e-01,9.82216e-01,1.99815e-01,2.30256e-01,9.90586e-01
9.622476530e-01,6.11108e-02,9.99999e-01,9.94411e-01,2.60649e-01,2.37033e-01,9.93480e-01
9.670588912e-01,1.10568e-01,9.99999e-01,9.98319e-01,4.56040e-01,2.43869e-01,9.95536e-01
9.718941857e-01,1.50086e-01,9.99999e-01,9.99878e-01,6.00545e-01,2.50762e-01,9.96712e-01
9.767536566e-01,1.68192e-01,9.99999e-01,9.99999e-01,6.54288e-01,2.57708e-01,9.97486e-01
9.816374249e-01,1.92527e-01,9.99999e-01,9.99999e-01,7.27963e-01,2.64704e-01,9.99129e-01
9.865456120e-01,2.22580e-01,9.99999e-01,9.99999e-01,8.19222e-01,2.71745e-01,9.99818e-01
9.914783401e-01,2.46393e-01,9.99999e-01,9.99999e-01,8.83712e-01,2.78829e-01,9.99949e-01
9.964357318e-01,2.67316e-01,9.99999e-01,9.99999e-01,9.34851e-01,2.85953e-01,9.99970e-01
1.001417910e+00,2.81488e-01,9.99999e-01,9.99999e-01,9.60385e-01,2.93112e-01,9.99954e-01
1.006425000e+00,2.93454e-01,9.99999e-01,9.99999e-01,9.77251e-01,3.00304e-01,9.99935e-01
1.011457125e+00,3.03138e-01,9.99999e-01,9.99999e-01,9.85789e-01,3.07525e-01,9.99940e-01
1.016514411e+00,3.11720e-01,9.99999e-01,9.99999e-01,9.90343e-01,3.14772e-01,9.99957e-01
1.021596983e+00,3.19483e-01,9.99999e-01,9.99789e-01,9.92302e-01,3.22042e-01,9.99957e-01
1.026704968e+00,3.21935e-01,9.99999e-01,9.83442e-01,9.93995e-01,3.29331e-01,9.99971e-01
1.031838492e+00,2.96181e-01,9.99999e-01,8.83458e-01,9.95624e-01,3.36636e-01,9.99991e-01
1.036997685e+00,1.11777e-02,9.99999e-01,3.25610e-02,9.97403e-01,3.43954e-01,9.99998e-01
1.042182673e+00,1.99525e-04,9.99999e-01,5.69265e-04,9.96914e-01,3.51281e-01,9.99998e-01
1.047393587e+00,6.00441e-04,9.99999e-01,1.67990e-03,9.95903e-01,3.58616e-01,9.99998e-01
1.052630555e+00,2.69681e-09,9.99999e-01,7.39485e-09,9.94389e-01,3.65954e-01,9.99998e-01
1.057893707e+00,9.91254e-09,9.99999e-01,2.66729e-08,9.90663e-01,3.73293e-01,9.99996e-01
1.063183176e+00,1.20372e-06,9.99999e-01,3.18875e-06,9.84671e-01,3.80630e-01,9.99991e-01
1.068499092e+00,2.19865e-05,9.99999e-01,5.75175e-05,9.74444e-01,3.87962e-01,9.99982e-01
1.073841587e+00,6.47907e-04,9.99999e-01,1.67213e-03,9.70251e-01,3.95286e-01,9.99961e-01
1.079210795e+00,7.30518e-03,9.99999e-01,1.86699e-02,9.61892e-01,4.02600e-01,9.99896e-01
1.084606849e+00,3.90995e-02,9.99999e-01,1.00211e-01,9.43041e-01,4.09901e-01,9.99750e-01
1.090029883e+00,1.15394e-01,9.99999e-01,2.98122e-01,9.19811e-01,4.17185e-01,9.99483e-01
1.095480033e+00,1.87075e-01,9.99999e-01,5.48222e-01,7.96289e-01,4.24452e-01,9.99066e-01
1.100957433e+00,1.84474e-01,9.99999e-01,7.46606e-01,5.65984e-01,4.31698e-01,9.98282e-01
1.106462220e+00,9.99652e-02,9.99999e-01,8.85755e-01,2.53964e-01,4.38921e-01,9.97087e-01
1.111994531e+00,2.59284e-02,9.99999e-01,9.55933e-01,6.06558e-02,4.46118e-01,9.92288e-01
1.117554504e+00,5.77577e-03,9.99999e-01,9.89014e-01,1.31763e-02,4.53288e-01,9.72437e-01
1.123142276e+00,2.29096e-02,9.99999e-01,9.99270e-01,5.31699e-02,4.60428e-01,9.35868e-01
1.128757988e+00,5.35402e-02,9.99999e-01,9.99999e-01,1.23641e-01,4.67536e-01,9.26190e-01
1.134401778e+00,2.42572e-02,9.99999e-01,9.99999e-01,5.45529e-02,4.74610e-01,9.36882e-01
1.140073787e+00,1.22249e-01,9.99999e-01,9.99999e-01,2.67385e-01,4.81648e-01,9.49241e-01
1.145774156e+00,3.78160e-02,9.99999e-01,9.99999e-01,8.11683e-02,4.88649e-01,9.53436e-01
1.151503026e+00,2.98076e-02,9.99999e-01,9.99999e-01,6.17622e-02,4.95610e-01,9.73786e-01
1.157260541e+00,3.91752e-02,9.99999e-01,9.99999e-01,7.85776e-02,5.02529e-01,9.92088e-01
1.163046844e+00,7.56853e-02,9.99999e-01,9.99999e-01,1.48910e-01,5.09406e-01,9.97751e-01
1.168862078e+00,1.30159e-01,9.99999e-01,9.99999e-01,2.52421e-01,5.16239e-01,9.98840e-01
1.174706389e+00,2.22340e-01,9.99999e-01,9.99999e-01,4.25757e-01,5.23025e-01,9.98463e-01
1.180579921e+00,3.12692e-01,9.99999e-01,9.99999e-01,5.91621e-01,5.29764e-01,9.97677e-01
1.186482820e+00,3.96633e-01,9.99999e-01,9.99976e-01,7.41139e-01,5.36454e-01,9.97616e-01
1.192415234e+00,4.31234e-01,9.99999e-01,9.45408e-01,8.39083e-01,5.43094e-01,9.98214e-01
1.198377311e+00,2.39383e-01,9.99999e-01,4.93124e-01,8.62838e-01,5.49682e-01,9.98313e-01
1.204369197e+00,2.32653e-43,9.99999e-01,4.54216e-43,8.70184e-01,5.56218e-01,9.98473e-01
1.210391043e+00,9.44162e-179,9.99999e-01,1.80915e-178,8.75118e-01,5.62700e-01,9.99071e-01
1.216442998e+00,1.54589e-154,9.99999e-01,2.91625e-154,8.92543e-01,5.69128e-01,9.99430e-01
1.222525213e+00,3.42347e-152,9.99999e-01,6.22881e-152,9.15146e-01,5.75499e-01,9.99646e-01
1.228637839e+00,3.50973e-117,9.99999e-01,6.28804e-117,9.40284e-01,5.81815e-01,9.99835e-01
