#,Wave/freq,Total,N2,CO2,H2O,Rayleigh,CIA
4.000000000e-01,1.31204e-09,9.99999e-01,9.99999e-01,9.99960e-01,1.31209e-09,9.99999e-01
4.020000000e-01,1.96596e-09,9.99999e-01,9.99999e-01,9.99975e-01,1.96601e-09,9.99999e-01
4.040100000e-01,2.92115e-09,9.99999e-01,9.99999e-01,9.99989e-01,2.92118e-09,9.99999e-01
4.060300500e-01,4.30660e-09,9.99999e-01,9.99999e-01,9.99997e-01,4.30661e-09,9.99999e-01
4.080602003e-01,6.30059e-09,9.99999e-01,9.99999e-01,9.99998e-01,6.30060e-09,9.99999e-01
4.101005013e-01,9.14881e-09,9.99999e-01,9.99999e-01,9.99999e-01,9.14881e-09,9.99999e-01
4.121510038e-01,1.31870e-08,9.99999e-01,9.99999e-01,9.99998e-01,1.31870e-08,9.99999e-01
4.142117588e-01,1.88708e-08,9.99999e-01,9.99999e-01,9.99988e-01,1.88710e-08,9.99999e-01
4.162828176e-01,2.68130e-08,9.99999e-01,9.99999e-01,9.99950e-01,2.68143e-08,9.99999e-01
4.183642317e-01,3.78366e-08,9.99999e-01,9.99999e-01,9.99970e-01,3.78377e-08,9.99999e-01
4.204560528e-01,5.30300e-08,9.99999e-01,9.99999e-01,9.99981e-01,5.30309e-08,9.99999e-01
4.225583331e-01,7.38303e-08,9.99999e-01,9.99999e-01,9.99992e-01,7.38308e-08,9.99999e-01
4.246711247e-01,1.02119e-07,9.99999e-01,9.99999e-01,9.99994e-01,1.02119e-07,9.99999e-01
4.267944804e-01,1.40343e-07,9.99999e-01,9.99999e-01,9.99991e-01,1.40344e-07,9.99999e-01
4.289284528e-01,1.91669e-07,9.99999e-01,9.99999e-01,9.99993e-01,1.91670e-07,9.99999e-01
4.310730950e-01,2.60160e-07,9.99999e-01,9.99999e-01,9.99996e-01,2.60160e-07,9.99999e-01
4.332284605e-01,3.50999e-07,9.99999e-01,9.99999e-01,9.99998e-01,3.50999e-07,9.99999e-01
4.353946028e-01,4.70763e-07,9.99999e-01,9.99999e-01,9.99999e-01,4.70763e-07,9.99999e-01
4.375715758e-01,6.27738e-07,9.99999e-01,9.99999e-01,9.99994e-01,6.27741e-07,9.99999e-01
4.397594337e-01,8.32283e-07,9.99999e-01,9.99999e-01,9.99956e-01,8.32319e-07,9.99999e-01
4.419582309e-01,1.09720e-06,9.99999e-01,9.99999e-01,9.99780e-01,1.09744e-06,9.99999e-01
4.441680220e-01,1.43887e-06,9.99999e-01,9.99999e-01,9.99830e-01,1.43912e-06,9.99999e-01
4.463888621e-01,1.87677e-06,9.99999e-01,9.99999e-01,9.99823e-01,1.87710e-06,9.99999e-01
4.486208064e-01,2.43531e-06,9.99999e-01,9.99999e-01,9.99890e-01,2.43557e-06,9.99999e-01
4.508639105e-01,3.14382e-06,9.99999e-01,9.99999e-01,9.99948e-01,3.14398e-06,9.99999e-01
4.531182300e-01,4.03793e-06,9.99999e-01,9.99999e-01,9.99979e-01,4.03802e-06,9.99999e-01
4.553838212e-01,5.16064e-06,9.99999e-01,9.99999e-01,9.99985e-01,5.16071e-06,9.99999e-01
4.576607403e-01,6.56363e-06,9.99999e-01,9.99999e-01,9.99993e-01,6.56367e-06,9.99999e-01
4.599490440e-01,8.30843e-06,9.99999e-01,9.99999e-01,9.99995e-01,8.30847e-06,9.99999e-01
4.622487892e-01,1.04682e-05,9.99999e-01,9.99999e-01,9.99998e-01,1.04682e-05,9.99999e-01
4.645600332e-01,1.31293e-05,9.99999e-01,9.99999e-01,9.99996e-01,1.31293e-05,9.99999e-01
4.668828333e-01,1.63926e-05,9.99999e-01,9.99999e-01,9.99947e-01,1.63934e-05,9.99999e-01
4.692172475e-01,2.03772e-05,9.99999e-01,9.99999e-01,9.99888e-01,2.03794e-05,9.99999e-01
4.715633337e-01,2.52241e-05,9.99999e-01,9.99999e-01,9.99927e-01,2.52259e-05,9.99999e-01
4.739211504e-01,3.10915e-05,9.99999e-01,9.99999e-01,9.99930e-01,3.10936e-05,9.99999e-01
4.762907561e-01,3.81669e-05,9.99999e-01,9.99999e-01,9.99963e-01,3.81683e-05,9.99999e-01
4.786722099e-01,4.66626e-05,9.99999e-01,9.99999e-01,9.99984e-01,4.66632e-05,9.99999e-01
4.810655710e-01,5.68226e-05,9.99999e-01,9.99999e-01,9.99995e-01,5.68229e-05,9.99999e-01
4.834708988e-01,6.89229e-05,9.99999e-01,9.99999e-01,9.99956e-01,6.89258e-05,9.99999e-01
4.858882533e-01,8.32818e-05,9.99999e-01,9.99999e-01,9.99921e-01,8.32884e-05,9.99999e-01
4.883176946e-01,1.00262e-04,9.99999e-01,9.99999e-01,9.99933e-01,1.00268e-04,9.99999e-01
4.907592831e-01,1.20261e-04,9.99999e-01,9.99999e-01,9.99940e-01,1.20268e-04,9.99999e-01
4.932130795e-01,1.43734e-04,9.99999e-01,9.99999e-01,9.99957e-01,1.43740e-04,9.99999e-01
4.956791449e-01,1.71184e-04,9.99999e-01,9.99999e-01,9.99977e-01,1.71188e-04,9.99999e-01
4.981575406e-01,2.03153e-04,9.99999e-01,9.99999e-01,9.99888e-01,2.03176e-04,9.99999e-01
5.006483283e-01,2.40256e-04,9.99999e-01,9.99999e-01,9.99709e-01,2.40326e-04,9.99997e-01
5.031515699e-01,2.82909e-04,9.99999e-01,9.99999e-01,9.98535e-01,2.83328e-04,9.99984e-01
5.056673278e-01,3.32677e-04,9.99999e-01,9.99999e-01,9.99228e-01,3.32939e-04,9.99981e-01
5.081956644e-01,3.89610e-04,9.99999e-01,9.99999e-01,9.99026e-01,3.89993e-04,9.99988e-01
5.107366428e-01,4.55099e-04,9.99999e-01,9.99999e-01,9.99342e-01,4.55399e-04,9.99997e-01
5.132903260e-01,5.29949e-04,9.99999e-01,9.99999e-01,9.99624e-01,5.30148e-04,9.99999e-01
5.158567776e-01,6.15219e-04,9.99999e-01,9.99999e-01,9.99841e-01,6.15316e-04,9.99999e-01
5.184360615e-01,7.12023e-04,9.99999e-01,9.99999e-01,9.99936e-01,7.12068e-04,9.99999e-01
5.210282418e-01,8.21640e-04,9.99999e-01,9.99999e-01,9.99975e-01,8.21660e-04,9.99999e-01
5.236333830e-01,9.45350e-04,9.99999e-01,9.99999e-01,9.99904e-01,9.45441e-04,9.99998e-01
5.262515499e-01,1.08479e-03,9.99999e-01,9.99999e-01,9.99939e-01,1.08486e-03,9.99998e-01
5.288828077e-01,1.24139e-03,9.99999e-01,9.99999e-01,9.99944e-01,1.24146e-03,9.99998e-01
5.315272217e-01,1.41681e-03,9.99999e-01,9.99999e-01,9.99951e-01,1.41688e-03,9.99999e-01
5.341848578e-01,1.61283e-03,9.99999e-01,9.99999e-01,9.99967e-01,1.61288e-03,9.99999e-01
5.368557821e-01,1.83109e-03,9.99999e-01,9.99999e-01,9.99888e-01,1.83130e-03,9.99999e-01
5.395400610e-01,2.07324e-03,9.99999e-01,9.99999e-01,9.99597e-01,2.07408e-03,9.99996e-01
5.422377613e-01,2.34205e-03,9.99999e-01,9.99999e-01,9.99482e-01,2.34329e-03,9.99990e-01
5.449489501e-01,2.63976e-03,9.99999e-01,9.99999e-01,9.99517e-01,2.64106e-03,9.99989e-01
5.476736949e-01,2.96837e-03,9.99999e-01,9.99999e-01,9.99573e-01,2.96964e-03,9.99994e-01
5.504120634e-01,3.33035e-03,9.99999e-01,9.99999e-01,9.99690e-01,3.33138e-03,9.99998e-01
5.531641237e-01,3.72813e-03,9.99999e-01,9.99999e-01,9.99844e-01,3.72871e-03,9.99999e-01
5.559299443e-01,4.16384e-03,9.99999e-01,9.99999e-01,9.99924e-01,4.16415e-03,9.99999e-01
5.587095940e-01,4.64009e-03,9.99999e-01,9.99999e-01,9.99952e-01,4.64031e-03,9.99999e-01
5.615031420e-01,5.15959e-03,9.99999e-01,9.99999e-01,9.99947e-01,5.15986e-03,9.99999e-01
5.643106577e-01,5.72523e-03,9.99999e-01,9.99999e-01,9.99939e-01,5.72558e-03,9.99998e-01
5.671322110e-01,6.33561e-03,9.99999e-01,9.99999e-01,9.99270e-01,6.34027e-03,9.99993e-01
5.699678720e-01,7.00133e-03,9.99999e-01,9.99999e-01,9.99233e-01,7.00683e-03,9.99979e-01
5.728177114e-01,7.72187e-03,9.99999e-01,9.99999e-01,9.99197e-01,7.72820e-03,9.99983e-01
5.756818000e-01,8.50101e-03,9.99999e-01,9.99999e-01,9.99264e-01,8.50734e-03,9.99990e-01
5.785602090e-01,9.34128e-03,9.99999e-01,9.99999e-01,9.99359e-01,9.34728e-03,9.99996e-01
5.814530100e-01,1.02445e-02,9.99999e-01,9.99999e-01,9.99355e-01,1.02511e-02,9.99998e-01
5.843602750e-01,1.12131e-02,9.99999e-01,9.99999e-01,9.99229e-01,1.12218e-02,9.99995e-01
5.872820764e-01,1.21808e-02,9.99999e-01,9.99999e-01,9.93383e-01,1.22625e-02,9.99953e-01
5.902184868e-01,1.32677e-02,9.99999e-01,9.99999e-01,9.92014e-01,1.33762e-02,9.99872e-01
5.931695792e-01,1.44820e-02,9.99999e-01,9.99999e-01,9.94347e-01,1.45661e-02,9.99877e-01
5.961354271e-01,1.57360e-02,9.99999e-01,9.99999e-01,9.93809e-01,1.58351e-02,9.99929e-01
5.991161043e-01,1.71084e-02,9.99999e-01,9.99999e-01,9.95484e-01,1.71863e-02,9.99977e-01
6.021116848e-01,1.85749e-02,9.99999e-01,9.99999e-01,9.97436e-01,1.86227e-02,9.99997e-01
6.051222432e-01,2.01210e-02,9.99999e-01,9.99999e-01,9.98702e-01,2.01471e-02,9.99999e-01
6.081478544e-01,2.17504e-02,9.99999e-01,9.99999e-01,9.99439e-01,2.17625e-02,9.99999e-01
6.111885937e-01,2.34661e-02,9.99999e-01,9.99999e-01,9.99763e-01,2.34717e-02,9.99999e-01
6.142445367e-01,2.52746e-02,9.99999e-01,9.99999e-01,9.99893e-01,2.52772e-02,9.99999e-01
6.173157594e-01,2.71803e-02,9.99999e-01,9.99999e-01,9.99941e-01,2.71819e-02,9.99999e-01
6.204023382e-01,2.91867e-02,9.99999e-01,9.99999e-01,9.99950e-01,2.91881e-02,9.99999e-01
6.235043498e-01,3.12916e-02,9.99999e-01,9.99999e-01,9.99780e-01,3.12984e-02,9.99998e-01
6.266218716e-01,3.34761e-02,9.99999e-01,9.99999e-01,9.98846e-01,3.35150e-02,9.99991e-01
6.297549810e-01,3.58244e-02,9.99999e-01,9.99999e-01,9.99576e-01,3.58402e-02,9.99983e-01
6.329037559e-01,3.82434e-02,9.99999e-01,9.99999e-01,9.99164e-01,3.82758e-02,9.99986e-01
6.360682746e-01,4.07946e-02,9.99999e-01,9.99999e-01,9.99287e-01,4.08240e-02,9.99991e-01
6.392486160e-01,4.34461e-02,9.99999e-01,9.99999e-01,9.99077e-01,4.34864e-02,9.99996e-01
6.424448591e-01,4.62071e-02,9.99999e-01,9.99999e-01,9.98761e-01,4.62646e-02,9.99993e-01
6.456570834e-01,4.88765e-02,9.99999e-01,9.99999e-01,9.94261e-01,4.91602e-02,9.99964e-01
6.488853688e-01,5.19515e-02,9.99999e-01,9.99999e-01,9.95815e-01,5.21744e-02,9.99910e-01
6.521297956e-01,5.50685e-02,9.99999e-01,9.99999e-01,9.95735e-01,5.53084e-02,9.99926e-01
6.553904446e-01,5.83108e-02,9.99999e-01,9.99999e-01,9.95745e-01,5.85631e-02,9.99944e-01
6.586673968e-01,6.17129e-02,9.99999e-01,9.99999e-01,9.96362e-01,6.19393e-02,9.99981e-01
6.619607338e-01,6.53048e-02,9.99999e-01,9.99999e-01,9.97971e-01,6.54377e-02,9.99995e-01
6.652705375e-01,6.89745e-02,9.99999e-01,9.99999e-01,9.98782e-01,6.90587e-02,9.99997e-01
6.685968902e-01,7.27649e-02,9.99999e-01,9.99999e-01,9.99482e-01,7.28026e-02,9.99999e-01
6.719398746e-01,7.66493e-02,9.99999e-01,9.99999e-01,9.99737e-01,7.66694e-02,9.99999e-01
6.752995740e-01,8.06477e-02,9.99999e-01,9.99999e-01,9.99857e-01,8.06591e-02,9.99999e-01
6.786760719e-01,8.47540e-02,9.99999e-01,9.99999e-01,9.99793e-01,8.47715e-02,9.99999e-01
6.820694522e-01,8.89746e-02,9.99999e-01,9.99999e-01,9.99647e-01,8.90061e-02,9.99997e-01
6.854797995e-01,9.33195e-02,9.99999e-01,9.99999e-01,9.99545e-01,9.33622e-02,9.99995e-01
6.889071985e-01,9.77301e-02,9.99999e-01,9.99999e-01,9.98894e-01,9.78392e-02,9.99989e-01
6.923517345e-01,1.00600e-01,9.99999e-01,9.99999e-01,9.82158e-01,1.02436e-01,9.99913e-01
6.958134932e-01,1.06142e-01,9.99999e-01,9.99999e-01,9.90768e-01,1.07152e-01,9.99809e-01
6.992925606e-01,1.10974e-01,9.99999e-01,9.99999e-01,9.91147e-01,1.11985e-01,9.99828e-01
7.027890234e-01,1.15646e-01,9.99999e-01,9.99999e-01,9.89115e-01,1.16934e-01,9.99868e-01
7.063029686e-01,1.20872e-01,9.99999e-01,9.99999e-01,9.90837e-01,1.21997e-01,9.99934e-01
7.098344834e-01,1.26051e-01,9.99999e-01,9.99999e-01,9.91207e-01,1.27174e-01,9.99961e-01
7.133836558e-01,1.30894e-01,9.99999e-01,9.99999e-01,9.88242e-01,1.32461e-01,9.99923e-01
7.169505741e-01,1.25338e-01,9.99999e-01,9.99999e-01,9.09733e-01,1.37857e-01,9.99397e-01
7.205353270e-01,1.36770e-01,9.99999e-01,9.99999e-01,9.55049e-01,1.43360e-01,9.98937e-01
7.241380036e-01,1.40325e-01,9.99999e-01,9.99999e-01,9.42855e-01,1.48967e-01,9.99082e-01
7.277586936e-01,1.46572e-01,9.99999e-01,9.99999e-01,9.48313e-01,1.54676e-01,9.99249e-01
7.313974871e-01,1.51639e-01,9.99999e-01,9.99999e-01,9.45213e-01,1.60485e-01,9.99648e-01
7.350544745e-01,1.61323e-01,9.99999e-01,9.99999e-01,9.69661e-01,1.66391e-01,9.99877e-01
7.387297469e-01,1.68517e-01,9.99999e-01,9.99999e-01,9.77583e-01,1.72391e-01,9.99943e-01
7.424233956e-01,1.76513e-01,9.99999e-01,9.99999e-01,9.88979e-01,1.78482e-01,9.99989e-01
7.461355126e-01,1.83425e-01,9.99999e-01,9.99999e-01,9.93303e-01,1.84662e-01,9.99997e-01
7.498661902e-01,1.90332e-01,9.99999e-01,9.99999e-01,9.96881e-01,1.90927e-01,9.99998e-01
7.536155211e-01,1.96973e-01,9.99999e-01,9.99999e-01,9.98467e-01,1.97275e-01,9.99999e-01
7.573835987e-01,2.03542e-01,9.99999e-01,9.99999e-01,9.99210e-01,2.03703e-01,9.99999e-01
7.611705167e-01,2.10103e-01,9.99999e-01,9.99999e-01,9.99509e-01,2.10206e-01,9.99999e-01
7.649763693e-01,2.16716e-01,9.99999e-01,9.99999e-01,9.99692e-01,2.16783e-01,9.99999e-01
7.688012511e-01,2.23381e-01,9.99999e-01,9.99999e-01,9.99785e-01,2.23429e-01,9.99999e-01
7.726452574e-01,2.30102e-01,9.99999e-01,9.99999e-01,9.99823e-01,2.30142e-01,9.99999e-01
7.765084837e-01,2.36859e-01,9.99999e-01,9.99999e-01,9.99748e-01,2.36918e-01,9.99999e-01
7.803910261e-01,2.28759e-01,9.99999e-01,9.39448e-01,9.98913e-01,2.43754e-01,9.99998e-01
7.842929812e-01,1.87883e-01,9.99999e-01,7.52213e-01,9.96210e-01,2.50646e-01,9.99992e-01
7.882144461e-01,1.88719e-01,9.99999e-01,7.38002e-01,9.92232e-01,2.57591e-01,9.99946e-01
7.921555184e-01,2.19687e-01,9.99999e-01,8.33779e-01,9.95743e-01,2.64586e-01,9.99906e-01
7.961162960e-01,2.38643e-01,9.99999e-01,8.85214e-01,9.92452e-01,2.71627e-01,9.99911e-01
8.000968774e-01,2.58579e-01,9.99999e-01,9.35951e-01,9.91305e-01,2.78710e-01,9.99905e-01
8.040973618e-01,2.73795e-01,9.99999e-01,9.66330e-01,9.91298e-01,2.85833e-01,9.99927e-01
8.081178486e-01,2.82766e-01,9.99999e-01,9.84366e-01,9.80446e-01,2.92992e-01,9.99926e-01
8.121584379e-01,2.75128e-01,9.99999e-01,9.95166e-01,9.21154e-01,3.00183e-01,9.99724e-01
8.162192301e-01,2.78400e-01,9.99999e-01,9.98930e-01,9.07522e-01,3.07404e-01,9.98966e-01
8.203003262e-01,2.99433e-01,9.99999e-01,9.99984e-01,9.52801e-01,3.14650e-01,9.98789e-01
8.244018279e-01,3.00858e-01,9.99999e-01,9.99999e-01,9.35474e-01,3.21920e-01,9.99036e-01
8.285238370e-01,3.10381e-01,9.99999e-01,9.99999e-01,9.43523e-01,3.29208e-01,9.99243e-01
8.326664562e-01,3.17249e-01,9.99999e-01,9.99999e-01,9.43050e-01,3.36513e-01,9.99686e-01
8.368297885e-01,3.29695e-01,9.99999e-01,9.99999e-01,9.58954e-01,3.43831e-01,9.99928e-01
8.410139374e-01,3.42508e-01,9.99999e-01,9.99999e-01,9.75408e-01,3.51158e-01,9.99957e-01
8.452190071e-01,3.54136e-01,9.99999e-01,9.99999e-01,9.87871e-01,3.58493e-01,9.99974e-01
8.494451021e-01,3.63240e-01,9.99999e-01,9.99999e-01,9.92935e-01,3.65831e-01,9.99979e-01
8.536923276e-01,3.71607e-01,9.99999e-01,9.99999e-01,9.95823e-01,3.73170e-01,9.99987e-01
8.579607893e-01,3.79525e-01,9.99999e-01,9.99999e-01,9.97422e-01,3.80507e-01,9.99996e-01
8.622505932e-01,3.87204e-01,9.99999e-01,9.99999e-01,9.98363e-01,3.87839e-01,9.99998e-01
8.665618462e-01,3.52242e-01,9.99999e-01,8.92238e-01,9.98986e-01,3.95163e-01,9.99999e-01
8.708946554e-01,1.97216e-01,9.99999e-01,4.90541e-01,9.98838e-01,4.02477e-01,9.99998e-01
8.752491287e-01,2.28511e-01,9.99999e-01,5.58472e-01,9.98446e-01,4.09778e-01,9.99997e-01
8.796253743e-01,3.00943e-01,9.99999e-01,7.23053e-01,9.97846e-01,4.17063e-01,9.99994e-01
8.840235012e-01,3.57268e-01,9.99999e-01,8.43986e-01,9.97541e-01,4.24330e-01,9.99984e-01
8.884436187e-01,4.00051e-01,9.99999e-01,9.35254e-01,9.91002e-01,4.31576e-01,9.99957e-01
8.928858368e-01,3.88606e-01,9.99999e-01,9.73205e-01,9.09805e-01,4.38799e-01,9.99754e-01
8.973502660e-01,3.74809e-01,9.99999e-01,9.93443e-01,8.46781e-01,4.45997e-01,9.98742e-01
9.018370173e-01,4.15293e-01,9.99999e-01,9.99276e-01,9.18864e-01,4.53167e-01,9.98023e-01
9.063462024e-01,4.18838e-01,9.99999e-01,9.81447e-01,9.27694e-01,4.60308e-01,9.98263e-01
9.108779334e-01,3.98124e-01,9.99999e-01,9.58039e-01,8.89791e-01,4.67416e-01,9.98195e-01
9.154323231e-01,4.10932e-01,9.99999e-01,9.90032e-01,8.75721e-01,4.74491e-01,9.98508e-01
9.200094847e-01,3.81177e-01,9.99999e-01,8.70511e-01,9.01496e-01,4.81530e-01,9.99164e-01
9.246095321e-01,3.39176e-01,9.99999e-01,8.11121e-01,8.51292e-01,4.88531e-01,9.99037e-01
9.292325798e-01,1.51587e-01,9.99999e-01,8.49264e-01,3.51851e-01,4.95493e-01,9.96253e-01
9.338787427e-01,1.13734e-01,9.99999e-01,8.53715e-01,2.62515e-01,5.02413e-01,9.84604e-01
9.385481364e-01,2.61570e-01,9.99999e-01,8.89864e-01,5.81265e-01,5.09291e-01,9.81716e-01
9.432408771e-01,2.26756e-01,9.99999e-01,9.30978e-01,4.76356e-01,5.16124e-01,9.84206e-01
9.479570815e-01,1.80840e-01,9.99999e-01,9.63925e-01,3.62269e-01,5.22911e-01,9.87127e-01
9.526968669e-01,2.38304e-01,9.99999e-01,9.82466e-01,4.60451e-01,5.29651e-01,9.92128e-01
9.574603512e-01,2.55549e-01,9.99999e-01,9.92465e-01,4.81586e-01,5.36342e-01,9.95993e-01
9.622476530e-01,2.96782e-01,9.99999e-01,9.97644e-01,5.49250e-01,5.42982e-01,9.97227e-01
9.670588912e-01,3.87381e-01,9.99999e-01,9.99294e-01,7.06668e-01,5.49572e-01,9.98103e-01
9.718941857e-01,4.45795e-01,9.99999e-01,9.99950e-01,8.02788e-01,5.56109e-01,9.98603e-01
9.767536566e-01,4.68240e-01,9.99999e-01,9.99999e-01,8.33179e-01,5.62592e-01,9.98932e-01
9.816374249e-01,4.96789e-01,9.99999e-01,9.99999e-01,8.73382e-01,5.69020e-01,9.99630e-01
9.865456120e-01,5.28639e-01,9.99999e-01,9.99999e-01,9.18814e-01,5.75393e-01,9.99922e-01
9.914783401e-01,5.52006e-01,9.99999e-01,9.99999e-01,9.48958e-01,5.81709e-01,9.99978e-01
9.964357318e-01,5.71425e-01,9.99999e-01,9.99999e-01,9.71877e-01,5.87968e-01,9.99987e-01
1.001417910e+00,5.84086e-01,9.99999e-01,9.99999e-01,9.83049e-01,5.94168e-01,9.99980e-01
1.006425000e+00,5.94467e-01,9.99999e-01,9.99999e-01,9.90294e-01,6.00309e-01,9.99972e-01
1.011457125e+00,6.02721e-01,9.99999e-01,9.99999e-01,9.93972e-01,6.06391e-01,9.99974e-01
1.016514411e+00,6.09892e-01,9.99999e-01,9.99999e-01,9.95901e-01,6.12412e-01,9.99981e-01
1.021596983e+00,6.16277e-01,9.99999e-01,9.99893e-01,9.96732e-01,6.18373e-01,9.99982e-01
1.026704968e+00,6.18116e-01,9.99999e-01,9.92674e-01,9.97450e-01,6.24272e-01,9.99988e-01
1.031838492e+00,5.84314e-01,9.99999e-01,9.28970e-01,9.98147e-01,6.30109e-01,9.99996e-01
1.036997685e+00,5.21836e-02,9.99999e-01,8.21340e-02,9.98898e-01,6.35883e-01,9.99998e-01
1.042182673e+00,1.40433e-02,9.99999e-01,2.19118e-02,9.98684e-01,6.41595e-01,9.99999e-01
1.047393587e+00,2.52518e-02,9.99999e-01,3.90725e-02,9.98257e-01,6.47244e-01,9.99999e-01
1.052630555e+00,5.23684e-05,9.99999e-01,8.03462e-05,9.97608e-01,6.52830e-01,9.99998e-01
1.057893707e+00,1.82089e-04,9.99999e-01,2.77225e-04,9.96007e-01,6.58352e-01,9.99998e-01
1.063183176e+00,1.47672e-03,9.99999e-01,2.23389e-03,9.93441e-01,6.63811e-01,9.99996e-01
1.068499092e+00,7.82818e-03,9.99999e-01,1.17948e-02,9.89046e-01,6.69205e-01,9.99992e-01
1.073841587e+00,3.95376e-02,9.99999e-01,5.92095e-02,9.87185e-01,6.74536e-01,9.99983e-01
1.079210795e+00,1.12291e-01,9.99999e-01,1.67514e-01,9.83625e-01,6.79802e-01,9.99955e-01
1.084606849e+00,2.46823e-01,9.99999e-01,3.68731e-01,9.75303e-01,6.85004e-01,9.99893e-01
1.090029883e+00,3.96228e-01,9.99999e-01,5.94193e-01,9.64652e-01,6.90142e-01,9.99780e-01
1.095480033e+00,4.88371e-01,9.99999e-01,7.73521e-01,9.06692e-01,6.95217e-01,9.99603e-01
1.100957433e+00,4.83605e-01,9.99999e-01,8.83342e-01,7.80497e-01,7.00227e-01,9.99270e-01
1.106462220e+00,3.61354e-01,9.99999e-01,9.49994e-01,5.38284e-01,7.05173e-01,9.98762e-01
1.111994531e+00,1.93257e-01,9.99999e-01,9.81155e-01,2.77657e-01,7.10055e-01,9.96719e-01
1.117554504e+00,9.17537e-02,9.99999e-01,9.95377e-01,1.30303e-01,7.14874e-01,9.88207e-01
1.123142276e+00,1.66449e-01,9.99999e-01,9.99696e-01,2.37915e-01,7.19629e-01,9.72262e-01
1.128757988e+00,2.68099e-01,9.99999e-01,9.99999e-01,3.82381e-01,7.24321e-01,9.67981e-01
1.134401778e+00,1.29267e-01,9.99999e-01,9.99999e-01,1.82308e-01,7.28950e-01,9.72708e-01
1.140073787e+00,3.98224e-01,9.99999e-01,9.99999e-01,5.55033e-01,7.33517e-01,9.78134e-01
1.145774156e+00,2.20545e-01,9.99999e-01,9.99999e-01,3.04942e-01,7.38020e-01,9.79966e-01
1.151503026e+00,1.97668e-01,9.99999e-01,9.99999e-01,2.69252e-01,7.42462e-01,9.88789e-01
1.157260541e+00,2.38531e-01,9.99999e-01,9.99999e-01,3.20464e-01,7.46842e-01,9.96634e-01
1.163046844e+00,3.22199e-01,9.99999e-01,9.99999e-01,4.29344e-01,7.51161e-01,9.99044e-01
1.168862078e+00,4.16020e-01,9.99999e-01,9.99999e-01,5.50985e-01,7.55418e-01,9.99507e-01
1.174706389e+00,5.25227e-01,9.99999e-01,9.99999e-01,6.91889e-01,7.59615e-01,9.99347e-01
1.180579921e+00,6.09365e-01,9.99999e-01,9.99999e-01,7.98644e-01,7.63752e-01,9.99013e-01
1.186482820e+00,6.75236e-01,9.99999e-01,9.99984e-01,8.80312e-01,7.67828e-01,9.98987e-01
1.192415234e+00,6.97974e-01,9.99999e-01,9.74431e-01,9.28208e-01,7.71846e-01,9.99241e-01
1.198377311e+00,3.97289e-01,9.99999e-01,5.40019e-01,9.39111e-01,7.75804e-01,9.99283e-01
1.204369197e+00,1.07132e-19,9.99999e-01,1.42293e-19,9.42378e-01,7.79704e-01,9.99351e-01
1.210391043e+00,3.75373e-77,9.99999e-01,4.94626e-77,9.44789e-01,7.83546e-01,9.99605e-01
1.216442998e+00,7.07224e-67,9.99999e-01,9.25752e-67,9.52877e-01,7.87330e-01,9.99758e-01
1.222525213e+00,7.00293e-66,9.99999e-01,9.02719e-66,9.63085e-01,7.91057e-01,9.99849e-01
1.228637839e+00,5.95227e-51,9.99999e-01,7.62407e-51,9.74211e-01,7.94728e-01,9.99929e-01
