#,Wave/freq,Total,N2,CO2,H2O,Rayleigh,CIA
4.000000000e-01,1.18567e-02,9.99999e-01,9.99999e-01,9.99990e-01,1.18568e-02,9.99999e-01
4.020000000e-01,1.29434e-02,9.99999e-01,9.99999e-01,9.99994e-01,1.29434e-02,9.99999e-01
4.040100000e-01,1.41039e-02,9.99999e-01,9.99999e-01,9.99997e-01,1.41040e-02,9.99999e-01
4.060300500e-01,1.53425e-02,9.99999e-01,9.99999e-01,9.99998e-01,1.53425e-02,9.99999e-01
4.080602003e-01,1.66621e-02,9.99999e-01,9.99999e-01,9.99999e-01,1.66621e-02,9.99999e-01
4.101005013e-01,1.80657e-02,9.99999e-01,9.99999e-01,9.99999e-01,1.80657e-02,9.99999e-01
4.121510038e-01,1.95562e-02,9.99999e-01,9.99999e-01,9.99999e-01,1.95563e-02,9.99999e-01
4.142117588e-01,2.11366e-02,9.99999e-01,9.99999e-01,9.99997e-01,2.11367e-02,9.99999e-01
4.162828176e-01,2.28096e-02,9.99999e-01,9.99999e-01,9.99988e-01,2.28098e-02,9.99999e-01
4.183642317e-01,2.45782e-02,9.99999e-01,9.99999e-01,9.99993e-01,2.45784e-02,9.99999e-01
4.204560528e-01,2.64449e-02,9.99999e-01,9.99999e-01,9.99995e-01,2.64450e-02,9.99999e-01
4.225583331e-01,2.84122e-02,9.99999e-01,9.99999e-01,9.99998e-01,2.84123e-02,9.99999e-01
4.246711247e-01,3.04826e-02,9.99999e-01,9.99999e-01,9.99998e-01,3.04827e-02,9.99999e-01
4.267944804e-01,3.26585e-02,9.99999e-01,9.99999e-01,9.99997e-01,3.26585e-02,9.99999e-01
4.289284528e-01,3.49421e-02,9.99999e-01,9.99999e-01,9.99998e-01,3.49421e-02,9.99999e-01
4.310730950e-01,3.73354e-02,9.99999e-01,9.99999e-01,9.99998e-01,3.73355e-02,9.99999e-01
4.332284605e-01,3.98406e-02,9.99999e-01,9.99999e-01,9.99999e-01,3.98406e-02,9.99999e-01
4.353946028e-01,4.24593e-02,9.99999e-01,9.99999e-01,9.99999e-01,4.24593e-02,9.99999e-01
4.375715758e-01,4.51932e-02,9.99999e-01,9.99999e-01,9.99998e-01,4.51933e-02,9.99999e-01
4.397594337e-01,4.80436e-02,9.99999e-01,9.99999e-01,9.99990e-01,4.80440e-02,9.99999e-01
4.419582309e-01,5.10105e-02,9.99999e-01,9.99999e-01,9.99951e-01,5.10129e-02,9.99999e-01
4.441680220e-01,5.40992e-02,9.99999e-01,9.99999e-01,9.99963e-01,5.41012e-02,9.99999e-01
4.463888621e-01,5.73076e-02,9.99999e-01,9.99999e-01,9.99961e-01,5.73098e-02,9.99999e-01
4.486208064e-01,6.06383e-02,9.99999e-01,9.99999e-01,9.99975e-01,6.06397e-02,9.99999e-01
4.508639105e-01,6.40908e-02,9.99999e-01,9.99999e-01,9.99988e-01,6.40915e-02,9.99999e-01
4.531182300e-01,6.76655e-02,9.99999e-01,9.99999e-01,9.99995e-01,6.76658e-02,9.99999e-01
4.553838212e-01,7.13626e-02,9.99999e-01,9.99999e-01,9.99996e-01,7.13629e-02,9.99999e-01
4.576607403e-01,7.51828e-02,9.99999e-01,9.99999e-01,9.99998e-01,7.51829e-02,9.99999e-01
4.599490440e-01,7.91258e-02,9.99999e-01,9.99999e-01,9.99998e-01,7.91259e-02,9.99999e-01
4.622487892e-01,8.31916e-02,9.99999e-01,9.99999e-01,9.99999e-01,8.31916e-02,9.99999e-01
4.645600332e-01,8.73796e-02,9.99999e-01,9.99999e-01,9.99998e-01,8.73797e-02,9.99999e-01
4.668828333e-01,9.16886e-02,9.99999e-01,9.99999e-01,9.99988e-01,9.16896e-02,9.99999e-01
4.692172475e-01,9.61184e-02,9.99999e-01,9.99999e-01,9.99975e-01,9.61207e-02,9.99999e-01
4.715633337e-01,1.00670e-01,9.99999e-01,9.99999e-01,9.99983e-01,1.00672e-01,9.99999e-01
4.739211504e-01,1.05341e-01,9.99999e-01,9.99999e-01,9.99984e-01,1.05343e-01,9.99999e-01
4.762907561e-01,1.10130e-01,9.99999e-01,9.99999e-01,9.99991e-01,1.10131e-01,9.99999e-01
4.786722099e-01,1.15036e-01,9.99999e-01,9.99999e-01,9.99996e-01,1.15036e-01,9.99999e-01
4.810655710e-01,1.20056e-01,9.99999e-01,9.99999e-01,9.99998e-01,1.20056e-01,9.99999e-01
4.834708988e-01,1.25189e-01,9.99999e-01,9.99999e-01,9.99990e-01,1.25190e-01,9.99999e-01
4.858882533e-01,1.30433e-01,9.99999e-01,9.99999e-01,9.99982e-01,1.30435e-01,9.99999e-01
4.883176946e-01,1.35788e-01,9.99999e-01,9.99999e-01,9.99985e-01,1.35790e-01,9.99999e-01
4.907592831e-01,1.41251e-01,9.99999e-01,9.99999e-01,9.99986e-01,1.41252e-01,9.99999e-01
4.932130795e-01,1.46819e-01,9.99999e-01,9.99999e-01,9.99990e-01,1.46820e-01,9.99999e-01
4.956791449e-01,1.52490e-01,9.99999e-01,9.99999e-01,9.99994e-01,1.52491e-01,9.99999e-01
4.981575406e-01,1.58258e-01,9.99999e-01,9.99999e-01,9.99975e-01,1.58262e-01,9.99999e-01
5.006483283e-01,1.64121e-01,9.99999e-01,9.99999e-01,9.99936e-01,1.64131e-01,9.99999e-01
5.031515699e-01,1.70041e-01,9.99999e-01,9.99999e-01,9.99681e-01,1.70096e-01,9.99996e-01
5.056673278e-01,1.76122e-01,9.99999e-01,9.99999e-01,9.99832e-01,1.76152e-01,9.99995e-01
5.081956644e-01,1.82260e-01,9.99999e-01,9.99999e-01,9.99788e-01,1.82299e-01,9.99997e-01
5.107366428e-01,1.88505e-01,9.99999e-01,9.99999e-01,9.99857e-01,1.88532e-01,9.99999e-01
5.132903260e-01,1.94833e-01,9.99999e-01,9.99999e-01,9.99918e-01,1.94849e-01,9.99999e-01
5.158567776e-01,2.01240e-01,9.99999e-01,9.99999e-01,9.99965e-01,2.01247e-01,9.99999e-01
5.184360615e-01,2.07719e-01,9.99999e-01,9.99999e-01,9.99985e-01,2.07722e-01,9.99999e-01
5.210282418e-01,2.14270e-01,9.99999e-01,9.99999e-01,9.99994e-01,2.14271e-01,9.99999e-01
5.236333830e-01,2.20887e-01,9.99999e-01,9.99999e-01,9.99978e-01,2.20891e-01,9.99999e-01
5.262515499e-01,2.27576e-01,9.99999e-01,9.99999e-01,9.99986e-01,2.27579e-01,9.99999e-01
5.288828077e-01,2.34329e-01,9.99999e-01,9.99999e-01,9.99987e-01,2.34331e-01,9.99999e-01
5.315272217e-01,2.41142e-01,9.99999e-01,9.99999e-01,9.99989e-01,2.41145e-01,9.99999e-01
5.341848578e-01,2.48014e-01,9.99999e-01,9.99999e-01,9.99992e-01,2.48016e-01,9.99999e-01
5.368557821e-01,2.54935e-01,9.99999e-01,9.99999e-01,9.99975e-01,2.54941e-01,9.99999e-01
5.395400610e-01,2.61894e-01,9.99999e-01,9.99999e-01,9.99911e-01,2.61917e-01,9.99998e-01
5.422377613e-01,2.68910e-01,9.99999e-01,9.99999e-01,9.99887e-01,2.68941e-01,9.99997e-01
5.449489501e-01,2.75979e-01,9.99999e-01,9.99999e-01,9.99894e-01,2.76009e-01,9.99997e-01
5.476736949e-01,2.83091e-01,9.99999e-01,9.99999e-01,9.99907e-01,2.83117e-01,9.99998e-01
5.504120634e-01,2.90243e-01,9.99999e-01,9.99999e-01,9.99932e-01,2.90262e-01,9.99999e-01
5.531641237e-01,2.97432e-01,9.99999e-01,9.99999e-01,9.99965e-01,2.97442e-01,9.99999e-01
5.559299443e-01,3.04647e-01,9.99999e-01,9.99999e-01,9.99983e-01,3.04652e-01,9.99999e-01
5.587095940e-01,3.11886e-01,9.99999e-01,9.99999e-01,9.99989e-01,3.11889e-01,9.99999e-01
5.615031420e-01,3.19146e-01,9.99999e-01,9.99999e-01,9.99988e-01,3.19150e-01,9.99999e-01
5.643106577e-01,3.26427e-01,9.99999e-01,9.99999e-01,9.99986e-01,3.26431e-01,9.99999e-01
5.671322110e-01,3.33676e-01,9.99999e-01,9.99999e-01,9.99838e-01,3.33730e-01,9.99998e-01
5.699678720e-01,3.40986e-01,9.99999e-01,9.99999e-01,9.99834e-01,3.41044e-01,9.99995e-01
5.728177114e-01,3.48306e-01,9.99999e-01,9.99999e-01,9.99825e-01,3.48368e-01,9.99995e-01
5.756818000e-01,3.55643e-01,9.99999e-01,9.99999e-01,9.99840e-01,3.55700e-01,9.99997e-01
5.785602090e-01,3.62987e-01,9.99999e-01,9.99999e-01,9.99860e-01,3.63037e-01,9.99998e-01
5.814530100e-01,3.70324e-01,9.99999e-01,9.99999e-01,9.99859e-01,3.70376e-01,9.99999e-01
5.843602750e-01,3.77651e-01,9.99999e-01,9.99999e-01,9.99831e-01,3.77714e-01,9.99998e-01
5.872820764e-01,3.84487e-01,9.99999e-01,9.99999e-01,9.98550e-01,3.85049e-01,9.99989e-01
5.902184868e-01,3.91685e-01,9.99999e-01,9.99999e-01,9.98264e-01,3.92376e-01,9.99972e-01
5.931695792e-01,3.99192e-01,9.99999e-01,9.99999e-01,9.98768e-01,3.99694e-01,9.99973e-01
5.961354271e-01,4.06447e-01,9.99999e-01,9.99999e-01,9.98654e-01,4.07000e-01,9.99984e-01
5.991161043e-01,4.13884e-01,9.99999e-01,9.99999e-01,9.99020e-01,4.14292e-01,9.99994e-01
6.021116848e-01,4.21332e-01,9.99999e-01,9.99999e-01,9.99444e-01,4.21566e-01,9.99998e-01
6.051222432e-01,4.28700e-01,9.99999e-01,9.99999e-01,9.99719e-01,4.28820e-01,9.99999e-01
6.081478544e-01,4.36000e-01,9.99999e-01,9.99999e-01,9.99878e-01,4.36052e-01,9.99999e-01
6.111885937e-01,4.43238e-01,9.99999e-01,9.99999e-01,9.99948e-01,4.43260e-01,9.99999e-01
6.142445367e-01,4.50431e-01,9.99999e-01,9.99999e-01,9.99976e-01,4.50441e-01,9.99999e-01
6.173157594e-01,4.57587e-01,9.99999e-01,9.99999e-01,9.99986e-01,4.57593e-01,9.99999e-01
6.204023382e-01,4.64709e-01,9.99999e-01,9.99999e-01,9.99988e-01,4.64714e-01,9.99999e-01
6.235043498e-01,4.71779e-01,9.99999e-01,9.99999e-01,9.99951e-01,4.71802e-01,9.99999e-01
6.266218716e-01,4.78734e-01,9.99999e-01,9.99999e-01,9.99749e-01,4.78855e-01,9.99997e-01
6.297549810e-01,4.85824e-01,9.99999e-01,9.99999e-01,9.99907e-01,4.85871e-01,9.99995e-01
6.329037559e-01,4.92757e-01,9.99999e-01,9.99999e-01,9.99818e-01,4.92848e-01,9.99996e-01
6.360682746e-01,4.99706e-01,9.99999e-01,9.99999e-01,9.99844e-01,4.99784e-01,9.99997e-01
6.392486160e-01,5.06576e-01,9.99999e-01,9.99999e-01,9.99799e-01,5.06678e-01,9.99998e-01
6.424448591e-01,5.13389e-01,9.99999e-01,9.99999e-01,9.99729e-01,5.13528e-01,9.99998e-01
6.456570834e-01,5.19675e-01,9.99999e-01,9.99999e-01,9.98743e-01,5.20333e-01,9.99991e-01
6.488853688e-01,5.26603e-01,9.99999e-01,9.99999e-01,9.99092e-01,5.27091e-01,9.99980e-01
6.521297956e-01,5.33298e-01,9.99999e-01,9.99999e-01,9.99074e-01,5.33801e-01,9.99983e-01
6.553904446e-01,5.39954e-01,9.99999e-01,9.99999e-01,9.99073e-01,5.40460e-01,9.99987e-01
6.586673968e-01,5.46636e-01,9.99999e-01,9.99999e-01,9.99211e-01,5.47069e-01,9.99995e-01
6.619607338e-01,5.53383e-01,9.99999e-01,9.99999e-01,9.99560e-01,5.53626e-01,9.99998e-01
6.652705375e-01,5.59982e-01,9.99999e-01,9.99999e-01,9.99736e-01,5.60130e-01,9.99999e-01
6.685968902e-01,5.66516e-01,9.99999e-01,9.99999e-01,9.99887e-01,5.66579e-01,9.99999e-01
6.719398746e-01,5.72941e-01,9.99999e-01,9.99999e-01,9.99942e-01,5.72973e-01,9.99999e-01
6.752995740e-01,5.79294e-01,9.99999e-01,9.99999e-01,9.99969e-01,5.79311e-01,9.99999e-01
6.786760719e-01,5.85566e-01,9.99999e-01,9.99999e-01,9.99954e-01,5.85592e-01,9.99999e-01
6.820694522e-01,5.91769e-01,9.99999e-01,9.99999e-01,9.99922e-01,5.91814e-01,9.99999e-01
6.854797995e-01,5.97919e-01,9.99999e-01,9.99999e-01,9.99900e-01,5.97978e-01,9.99998e-01
6.889071985e-01,6.03935e-01,9.99999e-01,9.99999e-01,9.99756e-01,6.04083e-01,9.99997e-01
6.923517345e-01,6.07721e-01,9.99999e-01,9.99999e-01,9.96074e-01,6.10127e-01,9.99980e-01
6.958134932e-01,6.14859e-01,9.99999e-01,9.99999e-01,9.98009e-01,6.16111e-01,9.99958e-01
6.992925606e-01,6.20804e-01,9.99999e-01,9.99999e-01,9.98060e-01,6.22033e-01,9.99962e-01
7.027890234e-01,6.26389e-01,9.99999e-01,9.99999e-01,9.97630e-01,6.27894e-01,9.99971e-01
7.063029686e-01,6.32420e-01,9.99999e-01,9.99999e-01,9.98005e-01,6.33692e-01,9.99985e-01
7.098344834e-01,6.38200e-01,9.99999e-01,9.99999e-01,9.98086e-01,6.39428e-01,9.99991e-01
7.133836558e-01,6.43419e-01,9.99999e-01,9.99999e-01,9.97408e-01,6.45101e-01,9.99982e-01
7.169505741e-01,6.37220e-01,9.99999e-01,9.99999e-01,9.79394e-01,6.50711e-01,9.99868e-01
7.205353270e-01,6.49620e-01,9.99999e-01,9.99999e-01,9.90113e-01,6.56258e-01,9.99769e-01
7.241380036e-01,6.53147e-01,9.99999e-01,9.99999e-01,9.87209e-01,6.61740e-01,9.99800e-01
7.277586936e-01,6.59357e-01,9.99999e-01,9.99999e-01,9.88465e-01,6.67159e-01,9.99836e-01
7.313974871e-01,6.64295e-01,9.99999e-01,9.99999e-01,9.87853e-01,6.72514e-01,9.99923e-01
7.350544745e-01,6.73273e-01,9.99999e-01,9.99999e-01,9.93339e-01,6.77805e-01,9.99973e-01
7.387297469e-01,6.79679e-01,9.99999e-01,9.99999e-01,9.95103e-01,6.83031e-01,9.99987e-01
7.424233956e-01,6.86548e-01,9.99999e-01,9.99999e-01,9.97609e-01,6.88194e-01,9.99997e-01
7.461355126e-01,6.92286e-01,9.99999e-01,9.99999e-01,9.98548e-01,6.93292e-01,9.99999e-01
7.498661902e-01,6.97857e-01,9.99999e-01,9.99999e-01,9.99326e-01,6.98327e-01,9.99999e-01
7.536155211e-01,7.03064e-01,9.99999e-01,9.99999e-01,9.99668e-01,7.03297e-01,9.99999e-01
7.573835987e-01,7.08083e-01,9.99999e-01,9.99999e-01,9.99829e-01,7.08204e-01,9.99999e-01
7.611705167e-01,7.12971e-01,9.99999e-01,9.99999e-01,9.99893e-01,7.13047e-01,9.99999e-01
7.649763693e-01,7.17779e-01,9.99999e-01,9.99999e-01,9.99933e-01,7.17826e-01,9.99999e-01
7.688012511e-01,7.22509e-01,9.99999e-01,9.99999e-01,9.99953e-01,7.22542e-01,9.99999e-01
7.726452574e-01,7.27168e-01,9.99999e-01,9.99999e-01,9.99961e-01,7.27195e-01,9.99999e-01
7.765084837e-01,7.31745e-01,9.99999e-01,9.99999e-01,9.99944e-01,7.31786e-01,9.99999e-01
7.803910261e-01,7.24403e-01,9.99999e-01,9.84054e-01,9.99762e-01,7.36313e-01,9.99999e-01
7.842929812e-01,6.94057e-01,9.99999e-01,9.37691e-01,9.99170e-01,7.40779e-01,9.99997e-01
7.882144461e-01,6.93788e-01,9.99999e-01,9.32589e-01,9.98309e-01,7.45182e-01,9.99987e-01
7.921555184e-01,7.19455e-01,9.99999e-01,9.60777e-01,9.99078e-01,7.49524e-01,9.99979e-01
7.961162960e-01,7.32927e-01,9.99999e-01,9.73924e-01,9.98348e-01,7.53805e-01,9.99980e-01
8.000968774e-01,7.45795e-01,9.99999e-01,9.85750e-01,9.98106e-01,7.58025e-01,9.99979e-01
8.040973618e-01,7.55125e-01,9.99999e-01,9.92634e-01,9.98102e-01,7.62184e-01,9.99983e-01
8.081178486e-01,7.60375e-01,9.99999e-01,9.96597e-01,9.95689e-01,7.66283e-01,9.99983e-01
8.121584379e-01,7.55738e-01,9.99999e-01,9.98961e-01,9.82139e-01,7.70323e-01,9.99939e-01
8.162192301e-01,7.57757e-01,9.99999e-01,9.99770e-01,9.79072e-01,7.74304e-01,9.99775e-01
8.203003262e-01,7.69628e-01,9.99999e-01,9.99996e-01,9.89214e-01,7.78226e-01,9.99736e-01
8.244018279e-01,7.70507e-01,9.99999e-01,9.99999e-01,9.85395e-01,7.82090e-01,9.99790e-01
8.285238370e-01,7.75855e-01,9.99999e-01,9.99999e-01,9.87384e-01,7.85896e-01,9.99835e-01
8.326664562e-01,7.79569e-01,9.99999e-01,9.99999e-01,9.87306e-01,7.89645e-01,9.99931e-01
8.368297885e-01,7.86151e-01,9.99999e-01,9.99999e-01,9.90956e-01,7.93337e-01,9.99984e-01
8.410139374e-01,7.92683e-01,9.99999e-01,9.99999e-01,9.94624e-01,7.96973e-01,9.99990e-01
8.452190071e-01,7.98442e-01,9.99999e-01,9.99999e-01,9.97366e-01,8.00554e-01,9.99994e-01
8.494451021e-01,8.02842e-01,9.99999e-01,9.99999e-01,9.98465e-01,8.04079e-01,9.99995e-01
8.536923276e-01,8.06818e-01,9.99999e-01,9.99999e-01,9.99095e-01,8.07550e-01,9.99996e-01
8.579607893e-01,8.10513e-01,9.99999e-01,9.99999e-01,9.99440e-01,8.10967e-01,9.99998e-01
8.622505932e-01,8.14042e-01,9.99999e-01,9.99999e-01,9.99645e-01,8.14330e-01,9.99999e-01
8.665618462e-01,7.82310e-01,9.99999e-01,9.56995e-01,9.99779e-01,8.17640e-01,9.99999e-01
8.708946554e-01,6.94221e-01,9.99999e-01,8.45893e-01,9.99747e-01,8.20898e-01,9.99999e-01
8.752491287e-01,7.21819e-01,9.99999e-01,8.76174e-01,9.99662e-01,8.24105e-01,9.99999e-01
8.796253743e-01,7.69710e-01,9.99999e-01,9.30865e-01,9.99530e-01,8.27260e-01,9.99998e-01
8.840235012e-01,7.99828e-01,9.99999e-01,9.63740e-01,9.99464e-01,8.30364e-01,9.99996e-01
8.884436187e-01,8.19814e-01,9.99999e-01,9.85648e-01,9.97998e-01,8.33419e-01,9.99990e-01
8.928858368e-01,8.14351e-01,9.99999e-01,9.94157e-01,9.79362e-01,8.36424e-01,9.99946e-01
8.973502660e-01,8.07915e-01,9.99999e-01,9.98587e-01,9.64125e-01,8.39380e-01,9.99726e-01
9.018370173e-01,8.26397e-01,9.99999e-01,9.99844e-01,9.81703e-01,8.42288e-01,9.99570e-01
9.063462024e-01,8.27527e-01,9.99999e-01,9.95822e-01,9.83572e-01,8.45149e-01,9.99622e-01
9.108779334e-01,8.18549e-01,9.99999e-01,9.90756e-01,9.74652e-01,8.47962e-01,9.99608e-01
9.154323231e-01,8.24339e-01,9.99999e-01,9.97854e-01,9.71358e-01,8.50729e-01,9.99675e-01
9.200094847e-01,8.06934e-01,9.99999e-01,9.66873e-01,9.77546e-01,8.53450e-01,9.99818e-01
9.246095321e-01,7.88397e-01,9.99999e-01,9.55419e-01,9.63685e-01,8.56125e-01,9.99790e-01
9.292325798e-01,6.48059e-01,9.99999e-01,9.64216e-01,7.81939e-01,8.58756e-01,9.98992e-01
9.338787427e-01,6.05960e-01,9.99999e-01,9.65967e-01,7.29627e-01,8.61343e-01,9.96363e-01
9.385481364e-01,7.39873e-01,9.99999e-01,9.74923e-01,8.81403e-01,8.63886e-01,9.96005e-01
9.432408771e-01,7.10026e-01,9.99999e-01,9.84646e-01,8.34843e-01,8.66386e-01,9.96552e-01
9.479570815e-01,6.67323e-01,9.99999e-01,9.92077e-01,7.76196e-01,8.68844e-01,9.97193e-01
9.526968669e-01,7.20681e-01,9.99999e-01,9.96182e-01,8.31626e-01,8.71260e-01,9.98287e-01
9.574603512e-01,7.37977e-01,9.99999e-01,9.98368e-01,8.46795e-01,8.73635e-01,9.99129e-01
9.622476530e-01,7.65191e-01,9.99999e-01,9.99491e-01,8.74494e-01,8.75970e-01,9.99397e-01
9.670588912e-01,8.12530e-01,9.99999e-01,9.99847e-01,9.25656e-01,8.78264e-01,9.99605e-01
9.718941857e-01,8.38928e-01,9.99999e-01,9.99989e-01,9.53062e-01,8.80519e-01,9.99697e-01
9.767536566e-01,8.48008e-01,9.99999e-01,9.99999e-01,9.60882e-01,8.82734e-01,9.99767e-01
9.816374249e-01,8.59177e-01,9.99999e-01,9.99999e-01,9.70995e-01,8.84912e-01,9.99919e-01
9.865456120e-01,8.70895e-01,9.99999e-01,9.99999e-01,9.81802e-01,8.87052e-01,9.99982e-01
9.914783401e-01,8.79116e-01,9.99999e-01,9.99999e-01,9.88714e-01,8.89154e-01,9.99994e-01
9.964357318e-01,8.85729e-01,9.99999e-01,9.99999e-01,9.93841e-01,8.91220e-01,9.99996e-01
1.001417910e+00,8.89949e-01,9.99999e-01,9.99999e-01,9.96308e-01,8.93250e-01,9.99995e-01
1.006425000e+00,8.93348e-01,9.99999e-01,9.99999e-01,9.97888e-01,8.95244e-01,9.99993e-01
1.011457125e+00,8.96026e-01,9.99999e-01,9.99999e-01,9.98693e-01,8.97202e-01,9.99994e-01
1.016514411e+00,8.98325e-01,9.99999e-01,9.99999e-01,9.99111e-01,8.99127e-01,9.99995e-01
1.021596983e+00,9.00353e-01,9.99999e-01,9.99974e-01,9.99290e-01,9.01017e-01,9.99995e-01
1.026704968e+00,9.00900e-01,9.99999e-01,9.98367e-01,9.99446e-01,9.02874e-01,9.99997e-01
1.031838492e+00,8.79914e-01,9.99999e-01,9.72986e-01,9.99598e-01,9.04698e-01,9.99998e-01
1.036997685e+00,2.88384e-01,9.99999e-01,3.18197e-01,9.99760e-01,9.06490e-01,9.99999e-01
1.042182673e+00,3.55838e-01,9.99999e-01,3.91890e-01,9.99713e-01,9.08249e-01,9.99999e-01
1.047393587e+00,3.18153e-01,9.99999e-01,3.49748e-01,9.99621e-01,9.09977e-01,9.99999e-01
1.052630555e+00,6.04460e-02,9.99999e-01,6.63299e-02,9.99479e-01,9.11675e-01,9.99999e-01
1.057893707e+00,1.09741e-01,9.99999e-01,1.20238e-01,9.99129e-01,9.13341e-01,9.99999e-01
1.063183176e+00,1.97425e-01,9.99999e-01,2.16027e-01,9.98569e-01,9.14978e-01,9.99998e-01
1.068499092e+00,3.29688e-01,9.99999e-01,3.60484e-01,9.97609e-01,9.16585e-01,9.99997e-01
1.073841587e+00,4.82915e-01,9.99999e-01,5.27323e-01,9.97195e-01,9.18164e-01,9.99995e-01
1.079210795e+00,6.12144e-01,9.99999e-01,6.67881e-01,9.96422e-01,9.19713e-01,9.99989e-01
1.084606849e+00,7.35689e-01,9.99999e-01,8.02876e-01,9.94574e-01,9.21235e-01,9.99976e-01
1.090029883e+00,8.17054e-01,9.99999e-01,8.92443e-01,9.92145e-01,9.22729e-01,9.99951e-01
1.095480033e+00,8.55443e-01,9.99999e-01,9.45645e-01,9.78797e-01,9.24196e-01,9.99913e-01
1.100957433e+00,8.53171e-01,9.99999e-01,9.73456e-01,9.46881e-01,9.25636e-01,9.99841e-01
1.106462220e+00,7.96684e-01,9.99999e-01,9.88966e-01,8.69038e-01,9.27050e-01,9.99731e-01
1.111994531e+00,6.87880e-01,9.99999e-01,9.95897e-01,7.44380e-01,9.28438e-01,9.99287e-01
1.117554504e+00,5.73295e-01,9.99999e-01,9.99003e-01,6.18727e-01,9.29801e-01,9.97430e-01
1.123142276e+00,6.46469e-01,9.99999e-01,9.99934e-01,6.98559e-01,9.31138e-01,9.93917e-01
1.128757988e+00,7.37483e-01,9.99999e-01,9.99999e-01,7.96509e-01,9.32452e-01,9.92966e-01
1.134401778e+00,5.37009e-01,9.99999e-01,9.99999e-01,5.78577e-01,9.33741e-01,9.94016e-01
1.140073787e+00,8.13998e-01,9.99999e-01,9.99999e-01,8.74764e-01,9.35006e-01,9.95215e-01
1.145774156e+00,7.03549e-01,9.99999e-01,9.99999e-01,7.54761e-01,9.36248e-01,9.95619e-01
1.151503026e+00,6.81621e-01,9.99999e-01,9.99999e-01,7.28867e-01,9.37467e-01,9.97557e-01
1.157260541e+00,7.24616e-01,9.99999e-01,9.99999e-01,7.72529e-01,9.38663e-01,9.99268e-01
1.163046844e+00,7.77384e-01,9.99999e-01,9.99999e-01,8.27318e-01,9.39838e-01,9.99792e-01
1.168862078e+00,8.25581e-01,9.99999e-01,9.99999e-01,8.77448e-01,9.40990e-01,9.99891e-01
1.174706389e+00,8.68974e-01,9.99999e-01,9.99999e-01,9.22495e-01,9.42121e-01,9.99850e-01
1.180579921e+00,8.97902e-01,9.99999e-01,9.99999e-01,9.52145e-01,9.43232e-01,9.99785e-01
1.186482820e+00,9.18329e-01,9.99999e-01,9.99995e-01,9.72692e-01,9.44321e-01,9.99779e-01
1.192415234e+00,9.24609e-01,9.99999e-01,9.94089e-01,9.83967e-01,9.45390e-01,9.99835e-01
1.198377311e+00,5.52427e-01,9.99999e-01,5.90530e-01,9.86438e-01,9.46439e-01,9.99843e-01
1.204369197e+00,4.96761e-06,9.99999e-01,5.28294e-06,9.87167e-01,9.47469e-01,9.99863e-01
1.210391043e+00,1.70477e-18,9.99999e-01,1.80987e-18,9.87734e-01,9.48479e-01,9.99914e-01
1.216442998e+00,2.96082e-16,9.99999e-01,3.13888e-16,9.89584e-01,9.49471e-01,9.99947e-01
1.222525213e+00,5.20278e-16,9.99999e-01,5.49797e-16,9.91877e-01,9.50444e-01,9.99966e-01
1.228637839e+00,2.73984e-12,9.99999e-01,2.89156e-12,9.94350e-01,9.51398e-01,9.99984e-01
