#,Wave/freq,Total,N2,CO2,H2O,Rayleigh,CIA
4.000000000e-01,5.46603e-14,9.99999e-01,9.99999e-01,9.99940e-01,5.46635e-14,9.99999e-01
4.020000000e-01,9.99798e-14,9.99999e-01,9.99999e-01,9.99963e-01,9.99834e-14,9.99999e-01
4.040100000e-01,1.80595e-13,9.99999e-01,9.99999e-01,9.99984e-01,1.80597e-13,9.99999e-01
4.060300500e-01,3.22420e-13,9.99999e-01,9.99999e-01,9.99995e-01,3.22421e-13,9.99999e-01
4.080602003e-01,5.69065e-13,9.99999e-01,9.99999e-01,9.99998e-01,5.69066e-13,9.99999e-01
4.101005013e-01,9.93181e-13,9.99999e-01,9.99999e-01,9.99999e-01,9.93181e-13,9.99999e-01
4.121510038e-01,1.71442e-12,9.99999e-01,9.99999e-01,9.99997e-01,1.71442e-12,9.99999e-01
4.142117588e-01,2.92762e-12,9.99999e-01,9.99999e-01,9.99983e-01,2.92767e-12,9.99999e-01
4.162828176e-01,4.94658e-12,9.99999e-01,9.99999e-01,9.99926e-01,4.94694e-12,9.99999e-01
4.183642317e-01,8.27243e-12,9.99999e-01,9.99999e-01,9.99956e-01,8.27279e-12,9.99999e-01
4.204560528e-01,1.36944e-11,9.99999e-01,9.99999e-01,9.99973e-01,1.36948e-11,9.99999e-01
4.225583331e-01,2.24456e-11,9.99999e-01,9.99999e-01,9.99989e-01,2.24458e-11,9.99999e-01
4.246711247e-01,3.64312e-11,9.99999e-01,9.99999e-01,9.99991e-01,3.64315e-11,9.99999e-01
4.267944804e-01,5.85678e-11,9.99999e-01,9.99999e-01,9.99987e-01,5.85685e-11,9.99999e-01
4.289284528e-01,9.32768e-11,9.99999e-01,9.99999e-01,9.99990e-01,9.32777e-11,9.99999e-01
4.310730950e-01,1.47197e-10,9.99999e-01,9.99999e-01,9.99995e-01,1.47197e-10,9.99999e-01
4.332284605e-01,2.30201e-10,9.99999e-01,9.99999e-01,9.99998e-01,2.30201e-10,9.99999e-01
4.353946028e-01,3.56845e-10,9.99999e-01,9.99999e-01,9.99999e-01,3.56845e-10,9.99999e-01
4.375715758e-01,5.48389e-10,9.99999e-01,9.99999e-01,9.99992e-01,5.48393e-10,9.99999e-01
4.397594337e-01,8.35584e-10,9.99999e-01,9.99999e-01,9.99935e-01,8.35637e-10,9.99999e-01
4.419582309e-01,1.26238e-09,9.99999e-01,9.99999e-01,9.99672e-01,1.26279e-09,9.99999e-01
4.441680220e-01,1.89231e-09,9.99999e-01,9.99999e-01,9.99747e-01,1.89279e-09,9.99999e-01
4.463888621e-01,2.81375e-09,9.99999e-01,9.99999e-01,9.99735e-01,2.81449e-09,9.99999e-01
4.486208064e-01,4.15169e-09,9.99999e-01,9.99999e-01,9.99836e-01,4.15237e-09,9.99999e-01
4.508639105e-01,6.07886e-09,9.99999e-01,9.99999e-01,9.99923e-01,6.07932e-09,9.99999e-01
4.531182300e-01,8.83347e-09,9.99999e-01,9.99999e-01,9.99969e-01,8.83373e-09,9.99999e-01
4.553838212e-01,1.27415e-08,9.99999e-01,9.99999e-01,9.99978e-01,1.27417e-08,9.99999e-01
4.576607403e-01,1.82459e-08,9.99999e-01,9.99999e-01,9.99990e-01,1.82461e-08,9.99999e-01
4.599490440e-01,2.59434e-08,9.99999e-01,9.99999e-01,9.99992e-01,2.59436e-08,9.99999e-01
4.622487892e-01,3.66329e-08,9.99999e-01,9.99999e-01,9.99998e-01,3.66330e-08,9.99999e-01
4.645600332e-01,5.13750e-08,9.99999e-01,9.99999e-01,9.99994e-01,5.13753e-08,9.99999e-01
4.668828333e-01,7.15650e-08,9.99999e-01,9.99999e-01,9.99921e-01,7.15706e-08,9.99999e-01
4.692172475e-01,9.90375e-08,9.99999e-01,9.99999e-01,9.99834e-01,9.90538e-08,9.99999e-01
4.715633337e-01,1.36199e-07,9.99999e-01,9.99999e-01,9.99891e-01,1.36214e-07,9.99999e-01
4.739211504e-01,1.86119e-07,9.99999e-01,9.99999e-01,9.99896e-01,1.86139e-07,9.99999e-01
4.762907561e-01,2.52785e-07,9.99999e-01,9.99999e-01,9.99946e-01,2.52798e-07,9.99999e-01
4.786722099e-01,3.41252e-07,9.99999e-01,9.99999e-01,9.99977e-01,3.41260e-07,9.99999e-01
4.810655710e-01,4.57952e-07,9.99999e-01,9.99999e-01,9.99992e-01,4.57955e-07,9.99999e-01
4.834708988e-01,6.10956e-07,9.99999e-01,9.99999e-01,9.99935e-01,6.10995e-07,9.99999e-01
4.858882533e-01,8.10453e-07,9.99999e-01,9.99999e-01,9.99882e-01,8.10548e-07,9.99999e-01
4.883176946e-01,1.06918e-06,9.99999e-01,9.99999e-01,9.99901e-01,1.06929e-06,9.99999e-01
4.907592831e-01,1.40280e-06,9.99999e-01,9.99999e-01,9.99911e-01,1.40293e-06,9.99999e-01
4.932130795e-01,1.83071e-06,9.99999e-01,9.99999e-01,9.99936e-01,1.83082e-06,9.99999e-01
4.956791449e-01,2.37661e-06,9.99999e-01,9.99999e-01,9.99966e-01,2.37669e-06,9.99999e-01
4.981575406e-01,3.06894e-06,9.99999e-01,9.99999e-01,9.99833e-01,3.06946e-06,9.99999e-01
5.006483283e-01,3.94245e-06,9.99999e-01,9.99999e-01,9.99566e-01,3.94417e-06,9.99996e-01
5.031515699e-01,5.03198e-06,9.99999e-01,9.99999e-01,9.97815e-01,5.04311e-06,9.99976e-01
5.056673278e-01,6.40947e-06,9.99999e-01,9.99999e-01,9.98848e-01,6.41702e-06,9.99973e-01
5.081956644e-01,8.11453e-06,9.99999e-01,9.99999e-01,9.98547e-01,8.12646e-06,9.99983e-01
5.107366428e-01,1.02333e-05,9.99999e-01,9.99999e-01,9.99019e-01,1.02434e-05,9.99996e-01
5.132903260e-01,1.28457e-05,9.99999e-01,9.99999e-01,9.99439e-01,1.28529e-05,9.99999e-01
5.158567776e-01,1.60512e-05,9.99999e-01,9.99999e-01,9.99763e-01,1.60550e-05,9.99999e-01
5.184360615e-01,1.99650e-05,9.99999e-01,9.99999e-01,9.99904e-01,1.99669e-05,9.99999e-01
5.210282418e-01,2.47244e-05,9.99999e-01,9.99999e-01,9.99964e-01,2.47253e-05,9.99999e-01
5.236333830e-01,3.04842e-05,9.99999e-01,9.99999e-01,9.99857e-01,3.04886e-05,9.99998e-01
5.262515499e-01,3.74367e-05,9.99999e-01,9.99999e-01,9.99910e-01,3.74401e-05,9.99998e-01
5.288828077e-01,4.57866e-05,9.99999e-01,9.99999e-01,9.99917e-01,4.57904e-05,9.99998e-01
5.315272217e-01,5.57768e-05,9.99999e-01,9.99999e-01,9.99927e-01,5.57808e-05,9.99999e-01
5.341848578e-01,6.76834e-05,9.99999e-01,9.99999e-01,9.99952e-01,6.76866e-05,9.99999e-01
5.368557821e-01,8.18066e-05,9.99999e-01,9.99999e-01,9.99833e-01,8.18202e-05,9.99999e-01
5.395400610e-01,9.84755e-05,9.99999e-01,9.99999e-01,9.99398e-01,9.85352e-05,9.99994e-01
5.422377613e-01,1.18137e-04,9.99999e-01,9.99999e-01,9.99227e-01,1.18230e-04,9.99985e-01
5.449489501e-01,1.41248e-04,9.99999e-01,9.99999e-01,9.99279e-01,1.41352e-04,9.99985e-01
5.476736949e-01,1.68292e-04,9.99999e-01,9.99999e-01,9.99364e-01,1.68400e-04,9.99992e-01
5.504120634e-01,1.99839e-04,9.99999e-01,9.99999e-01,9.99538e-01,1.99932e-04,9.99997e-01
5.531641237e-01,2.36509e-04,9.99999e-01,9.99999e-01,9.99767e-01,2.36564e-04,9.99999e-01
5.559299443e-01,2.78948e-04,9.99999e-01,9.99999e-01,9.99887e-01,2.78979e-04,9.99999e-01
5.587095940e-01,3.27907e-04,9.99999e-01,9.99999e-01,9.99929e-01,3.27930e-04,9.99999e-01
5.615031420e-01,3.84210e-04,9.99999e-01,9.99999e-01,9.99921e-01,3.84240e-04,9.99999e-01
5.643106577e-01,4.48772e-04,9.99999e-01,9.99999e-01,9.99910e-01,4.48813e-04,9.99998e-01
5.671322110e-01,5.22057e-04,9.99999e-01,9.99999e-01,9.98911e-01,5.22631e-04,9.99989e-01
5.699678720e-01,6.06051e-04,9.99999e-01,9.99999e-01,9.98855e-01,6.06763e-04,9.99970e-01
5.728177114e-01,7.01506e-04,9.99999e-01,9.99999e-01,9.98802e-01,7.02364e-04,9.99975e-01
5.756818000e-01,8.09781e-04,9.99999e-01,9.99999e-01,9.98902e-01,8.10682e-04,9.99985e-01
5.785602090e-01,9.32162e-04,9.99999e-01,9.99999e-01,9.99043e-01,9.33057e-04,9.99995e-01
5.814530100e-01,1.06990e-03,9.99999e-01,9.99999e-01,9.99038e-01,1.07093e-03,9.99997e-01
5.843602750e-01,1.22441e-03,9.99999e-01,9.99999e-01,9.98850e-01,1.22583e-03,9.99993e-01
5.872820764e-01,1.38551e-03,9.99999e-01,9.99999e-01,9.90144e-01,1.39940e-03,9.99930e-01
5.902184868e-01,1.57411e-03,9.99999e-01,9.99999e-01,9.88102e-01,1.59336e-03,9.99810e-01
5.931695792e-01,1.79401e-03,9.99999e-01,9.99999e-01,9.91577e-01,1.80957e-03,9.99817e-01
5.961354271e-01,2.03084e-03,9.99999e-01,9.99999e-01,9.90774e-01,2.04996e-03,9.99895e-01
5.991161043e-01,2.30090e-03,9.99999e-01,9.99999e-01,9.93266e-01,2.31657e-03,9.99967e-01
6.021116848e-01,2.60154e-03,9.99999e-01,9.99999e-01,9.96175e-01,2.61154e-03,9.99995e-01
6.051222432e-01,2.93142e-03,9.99999e-01,9.99999e-01,9.98063e-01,2.93710e-03,9.99999e-01
6.081478544e-01,3.29284e-03,9.99999e-01,9.99999e-01,9.99163e-01,3.29560e-03,9.99999e-01
6.111885937e-01,3.68814e-03,9.99999e-01,9.99999e-01,9.99646e-01,3.68944e-03,9.99999e-01
6.142445367e-01,4.12051e-03,9.99999e-01,9.99999e-01,9.99841e-01,4.12116e-03,9.99999e-01
6.173157594e-01,4.59294e-03,9.99999e-01,9.99999e-01,9.99912e-01,4.59334e-03,9.99999e-01
6.204023382e-01,5.10829e-03,9.99999e-01,9.99999e-01,9.99925e-01,5.10867e-03,9.99999e-01
6.235043498e-01,5.66802e-03,9.99999e-01,9.99999e-01,9.99672e-01,5.66988e-03,9.99998e-01
6.266218716e-01,6.26893e-03,9.99999e-01,9.99999e-01,9.98279e-01,6.27981e-03,9.99987e-01
6.297549810e-01,6.93678e-03,9.99999e-01,9.99999e-01,9.99368e-01,6.94133e-03,9.99975e-01
6.329037559e-01,7.64768e-03,9.99999e-01,9.99999e-01,9.98753e-01,7.65737e-03,9.99980e-01
6.360682746e-01,8.42185e-03,9.99999e-01,9.99999e-01,9.98936e-01,8.43090e-03,9.99988e-01
6.392486160e-01,9.25216e-03,9.99999e-01,9.99999e-01,9.98623e-01,9.26495e-03,9.99994e-01
6.424448591e-01,1.01437e-02,9.99999e-01,9.99999e-01,9.98151e-01,1.01626e-02,9.99990e-01
6.456570834e-01,1.10311e-02,9.99999e-01,9.99999e-01,9.91447e-01,1.11268e-02,9.99947e-01
6.488853688e-01,1.20832e-02,9.99999e-01,9.99999e-01,9.93761e-01,1.21607e-02,9.99866e-01
6.521297956e-01,1.31816e-02,9.99999e-01,9.99999e-01,9.93643e-01,1.32674e-02,9.99890e-01
6.553904446e-01,1.43571e-02,9.99999e-01,9.99999e-01,9.93655e-01,1.44499e-02,9.99918e-01
6.586673968e-01,1.56257e-02,9.99999e-01,9.99999e-01,9.94575e-01,1.57113e-02,9.99972e-01
6.619607338e-01,1.70029e-02,9.99999e-01,9.99999e-01,9.96973e-01,1.70546e-02,9.99993e-01
6.652705375e-01,1.84491e-02,9.99999e-01,9.99999e-01,9.98182e-01,1.84828e-02,9.99996e-01
6.685968902e-01,1.99833e-02,9.99999e-01,9.99999e-01,9.99227e-01,1.99987e-02,9.99999e-01
6.719398746e-01,2.15970e-02,9.99999e-01,9.99999e-01,9.99608e-01,2.16054e-02,9.99999e-01
6.752995740e-01,2.33006e-02,9.99999e-01,9.99999e-01,9.99787e-01,2.33055e-02,9.99999e-01
6.786760719e-01,2.50941e-02,9.99999e-01,9.99999e-01,9.99692e-01,2.51018e-02,9.99999e-01
6.820694522e-01,2.69827e-02,9.99999e-01,9.99999e-01,9.99474e-01,2.69970e-02,9.99996e-01
6.854797995e-01,2.89737e-02,9.99999e-01,9.99999e-01,9.99322e-01,2.89935e-02,9.99993e-01
6.889071985e-01,3.10421e-02,9.99999e-01,9.99999e-01,9.98349e-01,3.10938e-02,9.99984e-01
6.923517345e-01,3.24139e-02,9.99999e-01,9.99999e-01,9.73506e-01,3.33002e-02,9.99871e-01
6.958134932e-01,3.51159e-02,9.99999e-01,9.99999e-01,9.86265e-01,3.56150e-02,9.99715e-01
6.992925606e-01,3.75291e-02,9.99999e-01,9.99999e-01,9.86819e-01,3.80401e-02,9.99743e-01
7.027890234e-01,3.99124e-02,9.99999e-01,9.99999e-01,9.83801e-01,4.05775e-02,9.99804e-01
7.063029686e-01,4.26350e-02,9.99999e-01,9.99999e-01,9.86353e-01,4.32290e-02,9.99902e-01
7.098344834e-01,4.53911e-02,9.99999e-01,9.99999e-01,9.86901e-01,4.59962e-02,9.99942e-01
7.133836558e-01,4.80204e-02,9.99999e-01,9.99999e-01,9.82514e-01,4.88806e-02,9.99885e-01
7.169505741e-01,4.50495e-02,9.99999e-01,9.99999e-01,8.69063e-01,5.18835e-02,9.99100e-01
7.205353270e-01,5.12900e-02,9.99999e-01,9.99999e-01,9.33922e-01,5.50061e-02,9.98414e-01
7.241380036e-01,5.32948e-02,9.99999e-01,9.99999e-01,9.16197e-01,5.82493e-02,9.98630e-01
7.277586936e-01,5.68743e-02,9.99999e-01,9.99999e-01,9.24108e-01,6.16140e-02,9.98880e-01
7.313974871e-01,5.98292e-02,9.99999e-01,9.99999e-01,9.19506e-01,6.51008e-02,9.99475e-01
7.350544745e-01,6.56138e-02,9.99999e-01,9.99999e-01,9.55110e-01,6.87101e-02,9.99817e-01
7.387297469e-01,7.00272e-02,9.99999e-01,9.99999e-01,9.66741e-01,7.24423e-02,9.99915e-01
7.424233956e-01,7.50449e-02,9.99999e-01,9.99999e-01,9.83596e-01,7.62975e-02,9.99984e-01
7.461355126e-01,7.94743e-02,9.99999e-01,9.99999e-01,9.90020e-01,8.02756e-02,9.99997e-01
7.498661902e-01,8.39837e-02,9.99999e-01,9.99999e-01,9.95347e-01,8.43763e-02,9.99998e-01
7.536155211e-01,8.83967e-02,9.99999e-01,9.99999e-01,9.97712e-01,8.85993e-02,9.99998e-01
7.573835987e-01,9.28345e-02,9.99999e-01,9.99999e-01,9.98822e-01,9.29440e-02,9.99999e-01
7.611705167e-01,9.73383e-02,9.99999e-01,9.99999e-01,9.99267e-01,9.74095e-02,9.99999e-01
7.649763693e-01,1.01948e-01,9.99999e-01,9.99999e-01,9.99540e-01,1.01995e-01,9.99999e-01
7.688012511e-01,1.06665e-01,9.99999e-01,9.99999e-01,9.99679e-01,1.06699e-01,9.99999e-01
7.726452574e-01,1.11492e-01,9.99999e-01,9.99999e-01,9.99736e-01,1.11521e-01,9.99999e-01
7.765084837e-01,1.16416e-01,9.99999e-01,9.99999e-01,9.99624e-01,1.16460e-01,9.99999e-01
7.803910261e-01,1.11245e-01,9.99999e-01,9.16874e-01,9.98377e-01,1.21512e-01,9.99997e-01
7.842929812e-01,8.32255e-02,9.99999e-01,6.60296e-01,9.94348e-01,1.26678e-01,9.99989e-01
7.882144461e-01,8.40871e-02,9.99999e-01,6.44037e-01,9.88427e-01,1.31955e-01,9.99919e-01
7.921555184e-01,1.04276e-01,9.99999e-01,7.63906e-01,9.93653e-01,1.37341e-01,9.99861e-01
7.961162960e-01,1.17795e-01,9.99999e-01,8.33952e-01,9.88757e-01,1.42833e-01,9.99867e-01
8.000968774e-01,1.32741e-01,9.99999e-01,9.06065e-01,9.87046e-01,1.48431e-01,9.99859e-01
8.040973618e-01,1.44551e-01,9.99999e-01,9.50195e-01,9.87038e-01,1.54130e-01,9.99892e-01
8.081178486e-01,1.51681e-01,9.99999e-01,9.76759e-01,9.70981e-01,1.59930e-01,9.99891e-01
8.121584379e-01,1.45676e-01,9.99999e-01,9.92795e-01,8.85046e-01,1.65827e-01,9.99589e-01
8.162192301e-01,1.48300e-01,9.99999e-01,9.98404e-01,8.65768e-01,1.71818e-01,9.98456e-01
8.203003262e-01,1.65357e-01,9.99999e-01,9.99976e-01,9.31187e-01,1.77900e-01,9.98193e-01
8.244018279e-01,1.66645e-01,9.99999e-01,9.99999e-01,9.06629e-01,1.84072e-01,9.98561e-01
8.285238370e-01,1.74354e-01,9.99999e-01,9.99999e-01,9.17098e-01,1.90330e-01,9.98870e-01
8.326664562e-01,1.80158e-01,9.99999e-01,9.99999e-01,9.16470e-01,1.96670e-01,9.99532e-01
8.368297885e-01,1.90768e-01,9.99999e-01,9.99999e-01,9.39428e-01,2.03090e-01,9.99892e-01
8.410139374e-01,2.01932e-01,9.99999e-01,9.99999e-01,9.63536e-01,2.09586e-01,9.99937e-01
8.452190071e-01,2.12247e-01,9.99999e-01,9.99999e-01,9.81951e-01,2.16156e-01,9.99962e-01
8.494451021e-01,2.20444e-01,9.99999e-01,9.99999e-01,9.89472e-01,2.22796e-01,9.99969e-01
8.536923276e-01,2.28069e-01,9.99999e-01,9.99999e-01,9.93771e-01,2.29503e-01,9.99981e-01
8.579607893e-01,2.35364e-01,9.99999e-01,9.99999e-01,9.96155e-01,2.36273e-01,9.99995e-01
8.622505932e-01,2.42510e-01,9.99999e-01,9.99999e-01,9.97558e-01,2.43103e-01,9.99998e-01
8.665618462e-01,2.17442e-01,9.99999e-01,8.71035e-01,9.98486e-01,2.49990e-01,9.99999e-01
8.708946554e-01,9.20254e-02,9.99999e-01,3.58745e-01,9.98266e-01,2.56930e-01,9.99998e-01
8.752491287e-01,1.12502e-01,9.99999e-01,4.27197e-01,9.97681e-01,2.63921e-01,9.99997e-01
8.796253743e-01,1.67539e-01,9.99999e-01,6.20171e-01,9.96786e-01,2.70957e-01,9.99992e-01
8.840235012e-01,2.15357e-01,9.99999e-01,7.77313e-01,9.96331e-01,2.78037e-01,9.99977e-01
8.884436187e-01,2.54714e-01,9.99999e-01,9.05080e-01,9.86622e-01,2.85156e-01,9.99936e-01
8.928858368e-01,2.44131e-01,9.99999e-01,9.60289e-01,8.69155e-01,2.92311e-01,9.99633e-01
8.973502660e-01,2.31537e-01,9.99999e-01,9.90231e-01,7.81741e-01,2.99500e-01,9.98123e-01
9.018370173e-01,2.69542e-01,9.99999e-01,9.98919e-01,8.82264e-01,3.06718e-01,9.97050e-01
9.063462024e-01,2.73165e-01,9.99999e-01,9.72672e-01,8.94679e-01,3.13962e-01,9.97408e-01
9.108779334e-01,2.53310e-01,9.99999e-01,9.38109e-01,8.41076e-01,3.21229e-01,9.97307e-01
9.154323231e-01,2.65417e-01,9.99999e-01,9.85173e-01,8.21200e-01,3.28516e-01,9.97774e-01
9.200094847e-01,2.41239e-01,9.99999e-01,8.22960e-01,8.57509e-01,3.35820e-01,9.98753e-01
9.246095321e-01,2.00891e-01,9.99999e-01,7.32604e-01,7.90284e-01,3.43136e-01,9.98563e-01
9.292325798e-01,6.50284e-02,9.99999e-01,7.85903e-01,2.25810e-01,3.50463e-01,9.94412e-01
9.338787427e-01,4.28041e-02,9.99999e-01,7.90989e-01,1.47788e-01,3.57797e-01,9.77101e-01
9.385481364e-01,1.40178e-01,9.99999e-01,8.40635e-01,4.59111e-01,3.65135e-01,9.72825e-01
9.432408771e-01,1.15916e-01,9.99999e-01,8.98821e-01,3.50051e-01,3.72474e-01,9.76512e-01
9.479570815e-01,8.35734e-02,9.99999e-01,9.46647e-01,2.35471e-01,3.79811e-01,9.80841e-01
9.526968669e-01,1.22621e-01,9.99999e-01,9.73956e-01,3.27520e-01,3.87144e-01,9.88270e-01
9.574603512e-01,1.34304e-01,9.99999e-01,9.88774e-01,3.45771e-01,3.94469e-01,9.94024e-01
9.622476530e-01,1.66044e-01,9.99999e-01,9.96486e-01,4.16224e-01,4.01784e-01,9.95864e-01
9.670588912e-01,2.44761e-01,9.99999e-01,9.98947e-01,6.00556e-01,4.09086e-01,9.97169e-01
9.718941857e-01,2.99884e-01,9.99999e-01,9.99925e-01,7.21776e-01,4.16373e-01,9.97915e-01
9.767536566e-01,3.22539e-01,9.99999e-01,9.99999e-01,7.62562e-01,4.23642e-01,9.98406e-01
9.816374249e-01,3.52056e-01,9.99999e-01,9.99999e-01,8.17495e-01,4.30890e-01,9.99448e-01
9.865456120e-01,3.86128e-01,9.99999e-01,9.99999e-01,8.81439e-01,4.38115e-01,9.99884e-01
9.914783401e-01,4.11821e-01,9.99999e-01,9.99999e-01,9.24812e-01,4.45316e-01,9.99967e-01
9.964357318e-01,4.33624e-01,9.99999e-01,9.99999e-01,9.58327e-01,4.52489e-01,9.99980e-01
1.001417910e+00,4.48039e-01,9.99999e-01,9.99999e-01,9.74805e-01,4.59632e-01,9.99971e-01
1.006425000e+00,4.59979e-01,9.99999e-01,9.99999e-01,9.85545e-01,4.66744e-01,9.99958e-01
1.011457125e+00,4.69547e-01,9.99999e-01,9.99999e-01,9.91015e-01,4.73822e-01,9.99961e-01
1.016514411e+00,4.77913e-01,9.99999e-01,9.99999e-01,9.93888e-01,4.80864e-01,9.99972e-01
1.021596983e+00,4.85403e-01,9.99999e-01,9.99841e-01,9.95125e-01,4.87869e-01,9.99973e-01
1.026704968e+00,4.87585e-01,9.99999e-01,9.89114e-01,9.96196e-01,4.94835e-01,9.99983e-01
1.031838492e+00,4.54355e-01,9.99999e-01,9.07901e-01,9.97236e-01,5.01759e-01,9.99994e-01
1.036997685e+00,2.79387e-02,9.99999e-01,5.49965e-02,9.98356e-01,5.08641e-01,9.99998e-01
1.042182673e+00,2.50991e-03,9.99999e-01,4.87651e-03,9.98037e-01,5.15478e-01,9.99999e-01
1.047393587e+00,6.12674e-03,9.99999e-01,1.17565e-02,9.97400e-01,5.22270e-01,9.99999e-01
1.052630555e+00,1.25469e-06,9.99999e-01,2.37714e-06,9.96431e-01,5.29014e-01,9.99998e-01
1.057893707e+00,4.74852e-06,9.99999e-01,8.89196e-06,9.94046e-01,5.35709e-01,9.99997e-01
1.063183176e+00,9.64737e-05,9.99999e-01,1.78905e-04,9.90226e-01,5.42355e-01,9.99994e-01
1.068499092e+00,8.55804e-04,9.99999e-01,1.57648e-03,9.83696e-01,5.48949e-01,9.99988e-01
1.073841587e+00,8.66729e-03,9.99999e-01,1.58240e-02,9.80945e-01,5.55491e-01,9.99975e-01
1.079210795e+00,4.06781e-02,9.99999e-01,7.38219e-02,9.75666e-01,5.61979e-01,9.99933e-01
1.084606849e+00,1.25825e-01,9.99999e-01,2.28839e-01,9.63391e-01,5.68413e-01,9.99841e-01
1.090029883e+00,2.52573e-01,9.99999e-01,4.61935e-01,9.47789e-01,5.74791e-01,9.99672e-01
1.095480033e+00,3.44156e-01,9.99999e-01,6.82673e-01,8.64256e-01,5.81112e-01,9.99407e-01
1.100957433e+00,3.39562e-01,9.99999e-01,8.31241e-01,6.92484e-01,5.87377e-01,9.98910e-01
1.106462220e+00,2.23522e-01,9.99999e-01,9.26348e-01,4.04464e-01,5.93583e-01,9.98153e-01
1.111994531e+00,9.09509e-02,9.99999e-01,9.72009e-01,1.56046e-01,5.99729e-01,9.95106e-01
1.117554504e+00,3.19975e-02,9.99999e-01,9.93109e-01,5.39899e-02,6.05817e-01,9.82445e-01
1.123142276e+00,7.84375e-02,9.99999e-01,9.99547e-01,1.33707e-01,6.11844e-01,9.58870e-01
1.128757988e+00,1.47057e-01,9.99999e-01,9.99999e-01,2.49880e-01,6.17810e-01,9.52574e-01
1.134401778e+00,6.73790e-02,9.99999e-01,9.99999e-01,1.12585e-01,6.23715e-01,9.59528e-01
1.140073787e+00,2.57404e-01,9.99999e-01,9.99999e-01,4.22586e-01,6.29558e-01,9.67529e-01
1.145774156e+00,1.12999e-01,9.99999e-01,9.99999e-01,1.83312e-01,6.35338e-01,9.70237e-01
1.151503026e+00,9.68198e-02,9.99999e-01,9.99999e-01,1.53595e-01,6.41056e-01,9.83308e-01
1.157260541e+00,1.22093e-01,9.99999e-01,9.99999e-01,1.89743e-01,6.46711e-01,9.94979e-01
1.163046844e+00,1.88775e-01,9.99999e-01,9.99999e-01,2.89810e-01,6.52303e-01,9.98574e-01
1.168862078e+00,2.72024e-01,9.99999e-01,9.99999e-01,4.13820e-01,6.57831e-01,9.99265e-01
1.174706389e+00,3.83845e-01,9.99999e-01,9.99999e-01,5.79257e-01,6.63296e-01,9.99025e-01
1.180579921e+00,4.78085e-01,9.99999e-01,9.99999e-01,7.16003e-01,6.68696e-01,9.98527e-01
1.186482820e+00,5.56564e-01,9.99999e-01,9.99977e-01,8.26985e-01,6.74033e-01,9.98488e-01
1.192415234e+00,5.85233e-01,9.99999e-01,9.62736e-01,8.94803e-01,6.79305e-01,9.98868e-01
1.198377311e+00,3.29394e-01,9.99999e-01,5.20789e-01,9.10548e-01,6.84514e-01,9.98930e-01
1.204369197e+00,2.67541e-28,9.99999e-01,4.08734e-28,9.15377e-01,6.89658e-01,9.99032e-01
1.210391043e+00,4.37120e-114,9.99999e-01,6.59936e-114,9.18807e-01,6.94738e-01,9.99411e-01
1.216442998e+00,9.60764e-99,9.99999e-01,1.43623e-98,9.30559e-01,6.99754e-01,9.99639e-01
1.222525213e+00,2.94510e-97,9.99999e-01,4.30282e-97,9.45421e-01,7.04707e-01,9.99775e-01
1.228637839e+00,4.70776e-75,9.99999e-01,6.81171e-75,9.61758e-01,7.09595e-01,9.99895e-01
