#,Wave/freq,Total,N2,CO2,H2O,Rayleigh,CIA
4.000000000e-01,2.96013e-12,9.99999e-01,9.99999e-01,9.99948e-01,2.96028e-12,9.99999e-01
4.020000000e-01,5.00341e-12,9.99999e-01,9.99999e-01,9.99968e-01,5.00357e-12,9.99999e-01
4.040100000e-01,8.36548e-12,9.99999e-01,9.99999e-01,9.99986e-01,8.36559e-12,9.99999e-01
4.060300500e-01,1.38453e-11,9.99999e-01,9.99999e-01,9.99996e-01,1.38454e-11,9.99999e-01
4.080602003e-01,2.26877e-11,9.99999e-01,9.99999e-01,9.99998e-01,2.26877e-11,9.99999e-01
4.101005013e-01,3.68163e-11,9.99999e-01,9.99999e-01,9.99999e-01,3.68163e-11,9.99999e-01
4.121510038e-01,5.91747e-11,9.99999e-01,9.99999e-01,9.99997e-01,5.91748e-11,9.99999e-01
4.142117588e-01,9.42229e-11,9.99999e-01,9.99999e-01,9.99985e-01,9.42243e-11,9.99999e-01
4.162828176e-01,1.48652e-10,9.99999e-01,9.99999e-01,9.99936e-01,1.48661e-10,9.99999e-01
4.183642317e-01,2.32437e-10,9.99999e-01,9.99999e-01,9.99962e-01,2.32446e-10,9.99999e-01
4.204560528e-01,3.60247e-10,9.99999e-01,9.99999e-01,9.99976e-01,3.60255e-10,9.99999e-01
4.225583331e-01,5.53525e-10,9.99999e-01,9.99999e-01,9.99991e-01,5.53529e-10,9.99999e-01
4.246711247e-01,8.43303e-10,9.99999e-01,9.99999e-01,9.99992e-01,8.43309e-10,9.99999e-01
4.267944804e-01,1.27414e-09,9.99999e-01,9.99999e-01,9.99989e-01,1.27415e-09,9.99999e-01
4.289284528e-01,1.90946e-09,9.99999e-01,9.99999e-01,9.99991e-01,1.90948e-09,9.99999e-01
4.310730950e-01,2.83881e-09,9.99999e-01,9.99999e-01,9.99996e-01,2.83882e-09,9.99999e-01
4.332284605e-01,4.18755e-09,9.99999e-01,9.99999e-01,9.99998e-01,4.18755e-09,9.99999e-01
4.353946028e-01,6.12981e-09,9.99999e-01,9.99999e-01,9.99999e-01,6.12981e-09,9.99999e-01
4.375715758e-01,8.90559e-09,9.99999e-01,9.99999e-01,9.99993e-01,8.90564e-09,9.99999e-01
4.397594337e-01,1.28427e-08,9.99999e-01,9.99999e-01,9.99943e-01,1.28434e-08,9.99999e-01
4.419582309e-01,1.83835e-08,9.99999e-01,9.99999e-01,9.99711e-01,1.83888e-08,9.99999e-01
4.441680220e-01,2.61368e-08,9.99999e-01,9.99999e-01,9.99781e-01,2.61425e-08,9.99999e-01
4.463888621e-01,3.68998e-08,9.99999e-01,9.99999e-01,9.99770e-01,3.69082e-08,9.99999e-01
4.486208064e-01,5.17463e-08,9.99999e-01,9.99999e-01,9.99858e-01,5.17536e-08,9.99999e-01
4.508639105e-01,7.20825e-08,9.99999e-01,9.99999e-01,9.99933e-01,7.20872e-08,9.99999e-01
4.531182300e-01,9.97521e-08,9.99999e-01,9.99999e-01,9.99973e-01,9.97547e-08,9.99999e-01
4.553838212e-01,1.37156e-07,9.99999e-01,9.99999e-01,9.99981e-01,1.37158e-07,9.99999e-01
4.576607403e-01,1.87402e-07,9.99999e-01,9.99999e-01,9.99991e-01,1.87404e-07,9.99999e-01
4.599490440e-01,2.54481e-07,9.99999e-01,9.99999e-01,9.99993e-01,2.54482e-07,9.99999e-01
4.622487892e-01,3.43488e-07,9.99999e-01,9.99999e-01,9.99998e-01,3.43489e-07,9.99999e-01
4.645600332e-01,4.60885e-07,9.99999e-01,9.99999e-01,9.99995e-01,4.60887e-07,9.99999e-01
4.668828333e-01,6.14787e-07,9.99999e-01,9.99999e-01,9.99931e-01,6.14828e-07,9.99999e-01
4.692172475e-01,8.15416e-07,9.99999e-01,9.99999e-01,9.99856e-01,8.15533e-07,9.99999e-01
4.715633337e-01,1.07563e-06,9.99999e-01,9.99999e-01,9.99905e-01,1.07574e-06,9.99999e-01
4.739211504e-01,1.41109e-06,9.99999e-01,9.99999e-01,9.99910e-01,1.41122e-06,9.99999e-01
4.762907561e-01,1.84134e-06,9.99999e-01,9.99999e-01,9.99953e-01,1.84143e-06,9.99999e-01
4.786722099e-01,2.39014e-06,9.99999e-01,9.99999e-01,9.99980e-01,2.39019e-06,9.99999e-01
4.810655710e-01,3.08652e-06,9.99999e-01,9.99999e-01,9.99993e-01,3.08654e-06,9.99999e-01
4.834708988e-01,3.96546e-06,9.99999e-01,9.99999e-01,9.99942e-01,3.96568e-06,9.99999e-01
4.858882533e-01,5.06957e-06,9.99999e-01,9.99999e-01,9.99898e-01,5.07008e-06,9.99999e-01
4.883176946e-01,6.45010e-06,9.99999e-01,9.99999e-01,9.99914e-01,6.45065e-06,9.99999e-01
4.907592831e-01,8.16758e-06,9.99999e-01,9.99999e-01,9.99922e-01,8.16821e-06,9.99999e-01
4.932130795e-01,1.02944e-05,9.99999e-01,9.99999e-01,9.99945e-01,1.02950e-05,9.99999e-01
4.956791449e-01,1.29159e-05,9.99999e-01,9.99999e-01,9.99970e-01,1.29163e-05,9.99999e-01
4.981575406e-01,1.61303e-05,9.99999e-01,9.99999e-01,9.99854e-01,1.61326e-05,9.99999e-01
5.006483283e-01,2.00539e-05,9.99999e-01,9.99999e-01,9.99619e-01,2.00616e-05,9.99996e-01
5.031515699e-01,2.47924e-05,9.99999e-01,9.99999e-01,9.98096e-01,2.48402e-05,9.99979e-01
5.056673278e-01,3.05962e-05,9.99999e-01,9.99999e-01,9.98999e-01,3.06275e-05,9.99976e-01
5.081956644e-01,3.75594e-05,9.99999e-01,9.99999e-01,9.98739e-01,3.76073e-05,9.99985e-01
5.107366428e-01,4.59517e-05,9.99999e-01,9.99999e-01,9.99149e-01,4.59909e-05,9.99997e-01
5.132903260e-01,5.59930e-05,9.99999e-01,9.99999e-01,9.99514e-01,5.60202e-05,9.99999e-01
5.158567776e-01,6.79574e-05,9.99999e-01,9.99999e-01,9.99795e-01,6.79713e-05,9.99999e-01
5.184360615e-01,8.21508e-05,9.99999e-01,9.99999e-01,9.99917e-01,8.21575e-05,9.99999e-01
5.210282418e-01,9.89304e-05,9.99999e-01,9.99999e-01,9.99968e-01,9.89334e-05,9.99999e-01
5.236333830e-01,1.18684e-04,9.99999e-01,9.99999e-01,9.99875e-01,1.18698e-04,9.99998e-01
5.262515499e-01,1.41890e-04,9.99999e-01,9.99999e-01,9.99922e-01,1.41901e-04,9.99998e-01
5.288828077e-01,1.69029e-04,9.99999e-01,9.99999e-01,9.99928e-01,1.69041e-04,9.99998e-01
5.315272217e-01,2.00665e-04,9.99999e-01,9.99999e-01,9.99937e-01,2.00678e-04,9.99999e-01
5.341848578e-01,2.37419e-04,9.99999e-01,9.99999e-01,9.99958e-01,2.37429e-04,9.99999e-01
5.368557821e-01,2.79938e-04,9.99999e-01,9.99999e-01,9.99854e-01,2.79979e-04,9.99999e-01
5.395400610e-01,3.28906e-04,9.99999e-01,9.99999e-01,9.99470e-01,3.29082e-04,9.99994e-01
5.422377613e-01,3.85301e-04,9.99999e-01,9.99999e-01,9.99330e-01,3.85563e-04,9.99987e-01
5.449489501e-01,4.50039e-04,9.99999e-01,9.99999e-01,9.99370e-01,4.50328e-04,9.99986e-01
5.476736949e-01,5.24068e-04,9.99999e-01,9.99999e-01,9.99449e-01,5.24360e-04,9.99993e-01
5.504120634e-01,6.08486e-04,9.99999e-01,9.99999e-01,9.99599e-01,6.08731e-04,9.99997e-01
5.531641237e-01,7.04455e-04,9.99999e-01,9.99999e-01,9.99798e-01,7.04597e-04,9.99999e-01
5.559299443e-01,8.13129e-04,9.99999e-01,9.99999e-01,9.99902e-01,8.13208e-04,9.99999e-01
5.587095940e-01,9.35850e-04,9.99999e-01,9.99999e-01,9.99938e-01,9.35908e-04,9.99999e-01
5.615031420e-01,1.07406e-03,9.99999e-01,9.99999e-01,9.99931e-01,1.07413e-03,9.99999e-01
5.643106577e-01,1.22933e-03,9.99999e-01,9.99999e-01,9.99920e-01,1.22943e-03,9.99998e-01
5.671322110e-01,1.40206e-03,9.99999e-01,9.99999e-01,9.99037e-01,1.40342e-03,9.99991e-01
5.699678720e-01,1.59624e-03,9.99999e-01,9.99999e-01,9.99013e-01,1.59786e-03,9.99973e-01
5.728177114e-01,1.81265e-03,9.99999e-01,9.99999e-01,9.98956e-01,1.81458e-03,9.99978e-01
5.756818000e-01,2.05353e-03,9.99999e-01,9.99999e-01,9.99045e-01,2.05552e-03,9.99987e-01
5.785602090e-01,2.32079e-03,9.99999e-01,9.99999e-01,9.99170e-01,2.32272e-03,9.99995e-01
5.814530100e-01,2.61615e-03,9.99999e-01,9.99999e-01,9.99163e-01,2.61834e-03,9.99997e-01
5.843602750e-01,2.94162e-03,9.99999e-01,9.99999e-01,9.98993e-01,2.94460e-03,9.99993e-01
5.872820764e-01,3.27513e-03,9.99999e-01,9.99999e-01,9.91369e-01,3.30384e-03,9.99939e-01
5.902184868e-01,3.65968e-03,9.99999e-01,9.99999e-01,9.89667e-01,3.69849e-03,9.99835e-01
5.931695792e-01,4.10012e-03,9.99999e-01,9.99999e-01,9.92665e-01,4.13107e-03,9.99841e-01
5.961354271e-01,4.56684e-03,9.99999e-01,9.99999e-01,9.91983e-01,4.60416e-03,9.99908e-01
5.991161043e-01,5.09040e-03,9.99999e-01,9.99999e-01,9.94155e-01,5.12046e-03,9.99971e-01
6.021116848e-01,5.66387e-03,9.99999e-01,9.99999e-01,9.96685e-01,5.68272e-03,9.99996e-01
6.051222432e-01,6.28319e-03,9.99999e-01,9.99999e-01,9.98322e-01,6.29375e-03,9.99999e-01
6.081478544e-01,6.95139e-03,9.99999e-01,9.99999e-01,9.99275e-01,6.95643e-03,9.99999e-01
6.111885937e-01,7.67135e-03,9.99999e-01,9.99999e-01,9.99694e-01,7.67369e-03,9.99999e-01
6.142445367e-01,8.44737e-03,9.99999e-01,9.99999e-01,9.99862e-01,8.44852e-03,9.99999e-01
6.173157594e-01,9.28323e-03,9.99999e-01,9.99999e-01,9.99924e-01,9.28393e-03,9.99999e-01
6.204023382e-01,1.01823e-02,9.99999e-01,9.99999e-01,9.99935e-01,1.01830e-02,9.99999e-01
6.235043498e-01,1.11455e-02,9.99999e-01,9.99999e-01,9.99710e-01,1.11487e-02,9.99998e-01
6.266218716e-01,1.21658e-02,9.99999e-01,9.99999e-01,9.98502e-01,1.21842e-02,9.99989e-01
6.297549810e-01,1.32849e-02,9.99999e-01,9.99999e-01,9.99450e-01,1.32925e-02,9.99978e-01
6.329037559e-01,1.44608e-02,9.99999e-01,9.99999e-01,9.98918e-01,1.44767e-02,9.99982e-01
6.360682746e-01,1.57251e-02,9.99999e-01,9.99999e-01,9.99073e-01,1.57399e-02,9.99989e-01
6.392486160e-01,1.70645e-02,9.99999e-01,9.99999e-01,9.98802e-01,1.70850e-02,9.99995e-01
6.424448591e-01,1.84849e-02,9.99999e-01,9.99999e-01,9.98380e-01,1.85151e-02,9.99991e-01
6.456570834e-01,1.98819e-02,9.99999e-01,9.99999e-01,9.92503e-01,2.00330e-02,9.99954e-01
6.488853688e-01,2.15220e-02,9.99999e-01,9.99999e-01,9.94587e-01,2.16416e-02,9.99884e-01
6.521297956e-01,2.32129e-02,9.99999e-01,9.99999e-01,9.94485e-01,2.33438e-02,9.99904e-01
6.553904446e-01,2.50016e-02,9.99999e-01,9.99999e-01,9.94473e-01,2.51423e-02,9.99928e-01
6.586673968e-01,2.69118e-02,9.99999e-01,9.99999e-01,9.95293e-01,2.70396e-02,9.99975e-01
6.619607338e-01,2.89621e-02,9.99999e-01,9.99999e-01,9.97375e-01,2.90384e-02,9.99994e-01
6.652705375e-01,3.10919e-02,9.99999e-01,9.99999e-01,9.98424e-01,3.11410e-02,9.99996e-01
6.685968902e-01,3.33275e-02,9.99999e-01,9.99999e-01,9.99330e-01,3.33498e-02,9.99999e-01
6.719398746e-01,3.56549e-02,9.99999e-01,9.99999e-01,9.99660e-01,3.56669e-02,9.99999e-01
6.752995740e-01,3.80877e-02,9.99999e-01,9.99999e-01,9.99820e-01,3.80945e-02,9.99999e-01
6.786760719e-01,4.06235e-02,9.99999e-01,9.99999e-01,9.99730e-01,4.06344e-02,9.99999e-01
6.820694522e-01,4.32683e-02,9.99999e-01,9.99999e-01,9.99537e-01,4.32884e-02,9.99997e-01
6.854797995e-01,4.60307e-02,9.99999e-01,9.99999e-01,9.99409e-01,4.60582e-02,9.99994e-01
6.889071985e-01,4.88509e-02,9.99999e-01,9.99999e-01,9.98087e-01,4.89451e-02,9.99986e-01
6.923517345e-01,5.07338e-02,9.99999e-01,9.99999e-01,9.76684e-01,5.19507e-02,9.99888e-01
6.958134932e-01,5.44121e-02,9.99999e-01,9.99999e-01,9.88192e-01,5.50759e-02,9.99752e-01
6.992925606e-01,5.76360e-02,9.99999e-01,9.99999e-01,9.88462e-01,5.83217e-02,9.99777e-01
7.027890234e-01,6.08103e-02,9.99999e-01,9.99999e-01,9.85921e-01,6.16891e-02,9.99829e-01
7.063029686e-01,6.43997e-02,9.99999e-01,9.99999e-01,9.88133e-01,6.51785e-02,9.99915e-01
7.098344834e-01,6.80038e-02,9.99999e-01,9.99999e-01,9.88610e-01,6.87906e-02,9.99949e-01
7.133836558e-01,7.14026e-02,9.99999e-01,9.99999e-01,9.84615e-01,7.25255e-02,9.99900e-01
7.169505741e-01,6.74958e-02,9.99999e-01,9.99999e-01,8.84335e-01,7.63834e-02,9.99217e-01
7.205353270e-01,7.56678e-02,9.99999e-01,9.99999e-01,9.42861e-01,8.03642e-02,9.98620e-01
7.241380036e-01,7.81607e-02,9.99999e-01,9.99999e-01,9.26436e-01,8.44676e-02,9.98808e-01
7.277586936e-01,8.27127e-02,9.99999e-01,9.99999e-01,9.33478e-01,8.86933e-02,9.99026e-01
7.313974871e-01,8.64753e-02,9.99999e-01,9.99999e-01,9.29860e-01,9.30406e-02,9.99543e-01
7.350544745e-01,9.36847e-02,9.99999e-01,9.99999e-01,9.60933e-01,9.75088e-02,9.99841e-01
7.387297469e-01,9.91398e-02,9.99999e-01,9.99999e-01,9.71106e-01,1.02097e-01,9.99926e-01
7.424233956e-01,1.05286e-01,9.99999e-01,9.99999e-01,9.85796e-01,1.06804e-01,9.99986e-01
7.461355126e-01,1.10663e-01,9.99999e-01,9.99999e-01,9.91351e-01,1.11628e-01,9.99997e-01
7.498661902e-01,1.16100e-01,9.99999e-01,9.99999e-01,9.95980e-01,1.16569e-01,9.99998e-01
7.536155211e-01,1.21383e-01,9.99999e-01,9.99999e-01,9.98018e-01,1.21624e-01,9.99999e-01
7.573835987e-01,1.26663e-01,9.99999e-01,9.99999e-01,9.98980e-01,1.26793e-01,9.99999e-01
7.611705167e-01,1.31988e-01,9.99999e-01,9.99999e-01,9.99365e-01,1.32072e-01,9.99999e-01
7.649763693e-01,1.37405e-01,9.99999e-01,9.99999e-01,9.99601e-01,1.37460e-01,9.99999e-01
7.688012511e-01,1.42915e-01,9.99999e-01,9.99999e-01,9.99722e-01,1.42955e-01,9.99999e-01
7.726452574e-01,1.48521e-01,9.99999e-01,9.99999e-01,9.99770e-01,1.48555e-01,9.99999e-01
7.765084837e-01,1.54206e-01,9.99999e-01,9.99999e-01,9.99671e-01,1.54257e-01,9.99999e-01
7.803910261e-01,1.47505e-01,9.99999e-01,9.22794e-01,9.98578e-01,1.60058e-01,9.99998e-01
7.842929812e-01,1.14983e-01,9.99999e-01,6.95952e-01,9.95046e-01,1.65957e-01,9.99990e-01
7.882144461e-01,1.15633e-01,9.99999e-01,6.78777e-01,9.89930e-01,1.71950e-01,9.99930e-01
7.921555184e-01,1.39974e-01,9.99999e-01,7.90418e-01,9.94505e-01,1.78035e-01,9.99879e-01
7.961162960e-01,1.55875e-01,9.99999e-01,8.54519e-01,9.90161e-01,1.84208e-01,9.99884e-01
8.000968774e-01,1.72876e-01,9.99999e-01,9.18029e-01,9.88725e-01,1.90468e-01,9.99877e-01
8.040973618e-01,1.86178e-01,9.99999e-01,9.56827e-01,9.88702e-01,1.96810e-01,9.99906e-01
8.081178486e-01,1.94061e-01,9.99999e-01,9.79831e-01,9.74535e-01,2.03231e-01,9.99905e-01
8.121584379e-01,1.87257e-01,9.99999e-01,9.93814e-01,8.98591e-01,2.09730e-01,9.99642e-01
8.162192301e-01,1.90362e-01,9.99999e-01,9.98629e-01,8.82415e-01,2.16301e-01,9.98658e-01
8.203003262e-01,2.08992e-01,9.99999e-01,9.99981e-01,9.38914e-01,2.22943e-01,9.98429e-01
8.244018279e-01,2.10705e-01,9.99999e-01,9.99999e-01,9.18651e-01,2.29651e-01,9.98749e-01
8.285238370e-01,2.19016e-01,9.99999e-01,9.99999e-01,9.27288e-01,2.36422e-01,9.99017e-01
8.326664562e-01,2.25400e-01,9.99999e-01,9.99999e-01,9.26980e-01,2.43254e-01,9.99593e-01
8.368297885e-01,2.36928e-01,9.99999e-01,9.99999e-01,9.47263e-01,2.50142e-01,9.99906e-01
8.410139374e-01,2.48927e-01,9.99999e-01,9.99999e-01,9.68325e-01,2.57083e-01,9.99945e-01
8.452190071e-01,2.59937e-01,9.99999e-01,9.99999e-01,9.84363e-01,2.64074e-01,9.99967e-01
8.494451021e-01,2.68625e-01,9.99999e-01,9.99999e-01,9.90853e-01,2.71112e-01,9.99973e-01
8.536923276e-01,2.76687e-01,9.99999e-01,9.99999e-01,9.94604e-01,2.78192e-01,9.99983e-01
8.579607893e-01,2.84359e-01,9.99999e-01,9.99999e-01,9.96661e-01,2.85312e-01,9.99995e-01
8.622505932e-01,2.91850e-01,9.99999e-01,9.99999e-01,9.97884e-01,2.92469e-01,9.99998e-01
8.665618462e-01,2.61832e-01,9.99999e-01,8.74848e-01,9.98684e-01,2.99658e-01,9.99999e-01
8.708946554e-01,1.24072e-01,9.99999e-01,4.04873e-01,9.98490e-01,3.06876e-01,9.99998e-01
8.752491287e-01,1.49110e-01,9.99999e-01,4.75591e-01,9.97982e-01,3.14121e-01,9.99997e-01
8.796253743e-01,2.11550e-01,9.99999e-01,6.59968e-01,9.97195e-01,3.21389e-01,9.99993e-01
8.840235012e-01,2.63373e-01,9.99999e-01,8.03809e-01,9.96801e-01,3.28676e-01,9.99980e-01
8.884436187e-01,3.04677e-01,9.99999e-01,9.17522e-01,9.88116e-01,3.35980e-01,9.99944e-01
8.928858368e-01,2.93218e-01,9.99999e-01,9.65613e-01,8.84146e-01,3.43297e-01,9.99681e-01
8.973502660e-01,2.80206e-01,9.99999e-01,9.91594e-01,8.06918e-01,3.50624e-01,9.98367e-01
9.018370173e-01,3.20112e-01,9.99999e-01,9.99074e-01,8.97340e-01,3.57958e-01,9.97435e-01
9.063462024e-01,3.23135e-01,9.99999e-01,9.75708e-01,9.06969e-01,3.65296e-01,9.97746e-01
9.108779334e-01,3.02885e-01,9.99999e-01,9.46159e-01,8.59700e-01,3.72635e-01,9.97658e-01
9.154323231e-01,3.15563e-01,9.99999e-01,9.87278e-01,8.42272e-01,3.79972e-01,9.98064e-01
9.200094847e-01,2.88245e-01,9.99999e-01,8.38955e-01,8.74833e-01,3.87305e-01,9.98915e-01
9.246095321e-01,2.46484e-01,9.99999e-01,7.63282e-01,8.11044e-01,3.94630e-01,9.98751e-01
9.292325798e-01,8.95974e-02,9.99999e-01,8.09238e-01,2.65844e-01,4.01944e-01,9.93986e-01
9.338787427e-01,6.29676e-02,9.99999e-01,8.15575e-01,1.85721e-01,4.09246e-01,9.78433e-01
9.385481364e-01,1.79625e-01,9.99999e-01,8.60047e-01,5.04651e-01,4.16533e-01,9.76330e-01
9.432408771e-01,1.50081e-01,9.99999e-01,9.11773e-01,3.92490e-01,4.23801e-01,9.79546e-01
9.479570815e-01,1.12728e-01,9.99999e-01,9.53574e-01,2.77475e-01,4.31049e-01,9.83321e-01
9.526968669e-01,1.59328e-01,9.99999e-01,9.77418e-01,3.74373e-01,4.38274e-01,9.89793e-01
9.574603512e-01,1.73049e-01,9.99999e-01,9.90287e-01,3.93762e-01,4.45473e-01,9.94802e-01
9.622476530e-01,2.09250e-01,9.99999e-01,9.96965e-01,4.65173e-01,4.52646e-01,9.96402e-01
9.670588912e-01,2.93637e-01,9.99999e-01,9.99092e-01,6.40657e-01,4.59788e-01,9.97641e-01
9.718941857e-01,3.50838e-01,9.99999e-01,9.99937e-01,7.52820e-01,4.66899e-01,9.98193e-01
9.767536566e-01,3.73797e-01,9.99999e-01,9.99999e-01,7.89733e-01,4.73977e-01,9.98614e-01
9.816374249e-01,4.03631e-01,9.99999e-01,9.99999e-01,8.39519e-01,4.81018e-01,9.99519e-01
9.865456120e-01,4.37376e-01,9.99999e-01,9.99999e-01,8.96310e-01,4.88022e-01,9.99899e-01
9.914783401e-01,4.62525e-01,9.99999e-01,9.99999e-01,9.34443e-01,4.94987e-01,9.99971e-01
9.964357318e-01,4.83711e-01,9.99999e-01,9.99999e-01,9.63754e-01,5.01910e-01,9.99983e-01
1.001417910e+00,4.97651e-01,9.99999e-01,9.99999e-01,9.78128e-01,5.08791e-01,9.99974e-01
1.006425000e+00,5.09131e-01,9.99999e-01,9.99999e-01,9.87434e-01,5.15628e-01,9.99964e-01
1.011457125e+00,5.18332e-01,9.99999e-01,9.99999e-01,9.92209e-01,5.22418e-01,9.99966e-01
1.016514411e+00,5.26342e-01,9.99999e-01,9.99999e-01,9.94695e-01,5.29161e-01,9.99976e-01
1.021596983e+00,5.33494e-01,9.99999e-01,9.99846e-01,9.95767e-01,5.35856e-01,9.99976e-01
1.026704968e+00,5.35471e-01,9.99999e-01,9.90318e-01,9.96695e-01,5.42500e-01,9.99985e-01
1.031838492e+00,4.99715e-01,9.99999e-01,9.12147e-01,9.97603e-01,5.49093e-01,9.99995e-01
1.036997685e+00,3.46251e-02,9.99999e-01,6.23839e-02,9.98572e-01,5.55634e-01,9.99998e-01
1.042182673e+00,4.87251e-03,9.99999e-01,8.67984e-03,9.98289e-01,5.62121e-01,9.99999e-01
1.047393587e+00,1.04931e-02,9.99999e-01,1.84910e-02,9.97737e-01,5.68553e-01,9.99999e-01
1.052630555e+00,5.27829e-06,9.99999e-01,9.19920e-06,9.96891e-01,5.74930e-01,9.99998e-01
1.057893707e+00,2.00540e-05,9.99999e-01,3.46001e-05,9.94804e-01,5.81250e-01,9.99997e-01
1.063183176e+00,2.79890e-04,9.99999e-01,4.78861e-04,9.91475e-01,5.87513e-01,9.99995e-01
1.068499092e+00,2.03069e-03,9.99999e-01,3.45501e-03,9.85794e-01,5.93718e-01,9.99989e-01
1.073841587e+00,1.58233e-02,9.99999e-01,2.67131e-02,9.83362e-01,5.99864e-01,9.99978e-01
1.079210795e+00,6.07886e-02,9.99999e-01,1.02093e-01,9.78811e-01,6.05950e-01,9.99942e-01
1.084606849e+00,1.64767e-01,9.99999e-01,2.77261e-01,9.68040e-01,6.11975e-01,9.99862e-01
1.090029883e+00,3.02108e-01,9.99999e-01,5.10990e-01,9.54083e-01,6.17940e-01,9.99715e-01
1.095480033e+00,3.95426e-01,9.99999e-01,7.18092e-01,8.80205e-01,6.23844e-01,9.99485e-01
1.100957433e+00,3.90053e-01,9.99999e-01,8.51915e-01,7.24817e-01,6.29685e-01,9.99052e-01
1.106462220e+00,2.68768e-01,9.99999e-01,9.35931e-01,4.50209e-01,6.35464e-01,9.98394e-01
1.111994531e+00,1.21829e-01,9.99999e-01,9.75732e-01,1.94836e-01,6.41181e-01,9.95743e-01
1.117554504e+00,4.80777e-02,9.99999e-01,9.94062e-01,7.57720e-02,6.46835e-01,9.84719e-01
1.123142276e+00,1.05515e-01,9.99999e-01,9.99612e-01,1.67755e-01,6.52425e-01,9.64141e-01
1.128757988e+00,1.85881e-01,9.99999e-01,9.99999e-01,2.94705e-01,6.57952e-01,9.58635e-01
1.134401778e+00,8.76830e-02,9.99999e-01,9.99999e-01,1.37003e-01,6.63415e-01,9.64717e-01
1.140073787e+00,3.05137e-01,9.99999e-01,9.99999e-01,4.69519e-01,6.68814e-01,9.71707e-01
1.145774156e+00,1.46687e-01,9.99999e-01,9.99999e-01,2.23379e-01,6.74149e-01,9.74071e-01
1.151503026e+00,1.27739e-01,9.99999e-01,9.99999e-01,1.90784e-01,6.79420e-01,9.85471e-01
1.157260541e+00,1.58799e-01,9.99999e-01,9.99999e-01,2.32967e-01,6.84627e-01,9.95633e-01
1.163046844e+00,2.33389e-01,9.99999e-01,9.99999e-01,3.38777e-01,6.89770e-01,9.98760e-01
1.168862078e+00,3.22243e-01,9.99999e-01,9.99999e-01,4.64059e-01,6.94849e-01,9.99353e-01
1.174706389e+00,4.34838e-01,9.99999e-01,9.99999e-01,6.21870e-01,6.99864e-01,9.99110e-01
1.180579921e+00,5.26579e-01,9.99999e-01,9.99999e-01,7.48074e-01,7.04814e-01,9.98719e-01
1.186482820e+00,6.00962e-01,9.99999e-01,9.99975e-01,8.47912e-01,7.09701e-01,9.98685e-01
1.192415234e+00,6.26961e-01,9.99999e-01,9.66462e-01,9.07945e-01,7.14525e-01,9.99015e-01
1.198377311e+00,3.53518e-01,9.99999e-01,5.26477e-01,9.21687e-01,7.19285e-01,9.99065e-01
1.204369197e+00,6.73011e-25,9.99999e-01,9.72759e-25,9.25957e-01,7.23981e-01,9.99186e-01
1.210391043e+00,1.74211e-99,9.99999e-01,2.49226e-99,9.29012e-01,7.28615e-01,9.99488e-01
1.216442998e+00,3.80191e-86,9.99999e-01,5.39246e-86,9.39448e-01,7.33186e-01,9.99686e-01
1.222525213e+00,7.45626e-85,9.99999e-01,1.03670e-84,9.52435e-01,7.37694e-01,9.99804e-01
1.228637839e+00,1.56040e-65,9.99999e-01,2.15140e-65,9.66691e-01,7.42141e-01,9.99908e-01
