#,Wave/freq,Total,N2,CO2,H2O,Rayleigh,CIA
4.000000000e-01,2.91258e-17,9.99999e-01,9.99999e-01,9.99926e-01,2.91280e-17,9.99999e-01
4.020000000e-01,6.18356e-17,9.99999e-01,9.99999e-01,9.99954e-01,6.18384e-17,9.99999e-01
4.040100000e-01,1.29245e-16,9.99999e-01,9.99999e-01,9.99980e-01,1.29247e-16,9.99999e-01
4.060300500e-01,2.66231e-16,9.99999e-01,9.99999e-01,9.99995e-01,2.66232e-16,9.99999e-01
4.080602003e-01,5.40628e-16,9.99999e-01,9.99999e-01,9.99998e-01,5.40629e-16,9.99999e-01
4.101005013e-01,1.08259e-15,9.99999e-01,9.99999e-01,9.99999e-01,1.08259e-15,9.99999e-01
4.121510038e-01,2.13830e-15,9.99999e-01,9.99999e-01,9.99996e-01,2.13830e-15,9.99999e-01
4.142117588e-01,4.16704e-15,9.99999e-01,9.99999e-01,9.99979e-01,4.16712e-15,9.99999e-01
4.162828176e-01,8.01385e-15,9.99999e-01,9.99999e-01,9.99909e-01,8.01457e-15,9.99999e-01
4.183642317e-01,1.52156e-14,9.99999e-01,9.99999e-01,9.99945e-01,1.52165e-14,9.99999e-01
4.204560528e-01,2.85255e-14,9.99999e-01,9.99999e-01,9.99966e-01,2.85264e-14,9.99999e-01
4.225583331e-01,5.28183e-14,9.99999e-01,9.99999e-01,9.99987e-01,5.28189e-14,9.99999e-01
4.246711247e-01,9.66147e-14,9.99999e-01,9.99999e-01,9.99989e-01,9.66156e-14,9.99999e-01
4.267944804e-01,1.74630e-13,9.99999e-01,9.99999e-01,9.99985e-01,1.74632e-13,9.99999e-01
4.289284528e-01,3.11975e-13,9.99999e-01,9.99999e-01,9.99988e-01,3.11978e-13,9.99999e-01
4.310730950e-01,5.50991e-13,9.99999e-01,9.99999e-01,9.99994e-01,5.50994e-13,9.99999e-01
4.332284605e-01,9.62252e-13,9.99999e-01,9.99999e-01,9.99998e-01,9.62253e-13,9.99999e-01
4.353946028e-01,1.66207e-12,9.99999e-01,9.99999e-01,9.99998e-01,1.66207e-12,9.99999e-01
4.375715758e-01,2.83999e-12,9.99999e-01,9.99999e-01,9.99990e-01,2.84001e-12,9.99999e-01
4.397594337e-01,4.80132e-12,9.99999e-01,9.99999e-01,9.99918e-01,4.80171e-12,9.99999e-01
4.419582309e-01,8.03133e-12,9.99999e-01,9.99999e-01,9.99587e-01,8.03464e-12,9.99999e-01
4.441680220e-01,1.33041e-11,9.99999e-01,9.99999e-01,9.99686e-01,1.33082e-11,9.99999e-01
4.463888621e-01,2.18174e-11,9.99999e-01,9.99999e-01,9.99671e-01,2.18246e-11,9.99999e-01
4.486208064e-01,3.54357e-11,9.99999e-01,9.99999e-01,9.99796e-01,3.54429e-11,9.99999e-01
4.508639105e-01,5.70046e-11,9.99999e-01,9.99999e-01,9.99904e-01,5.70100e-11,9.99999e-01
4.531182300e-01,9.08407e-11,9.99999e-01,9.99999e-01,9.99962e-01,9.08441e-11,9.99999e-01
4.553838212e-01,1.43428e-10,9.99999e-01,9.99999e-01,9.99973e-01,1.43432e-10,9.99999e-01
4.576607403e-01,2.24425e-10,9.99999e-01,9.99999e-01,9.99987e-01,2.24427e-10,9.99999e-01
4.599490440e-01,3.48067e-10,9.99999e-01,9.99999e-01,9.99991e-01,3.48070e-10,9.99999e-01
4.622487892e-01,5.35169e-10,9.99999e-01,9.99999e-01,9.99998e-01,5.35170e-10,9.99999e-01
4.645600332e-01,8.15876e-10,9.99999e-01,9.99999e-01,9.99993e-01,8.15881e-10,9.99999e-01
4.668828333e-01,1.23340e-09,9.99999e-01,9.99999e-01,9.99902e-01,1.23352e-09,9.99999e-01
4.692172475e-01,1.84938e-09,9.99999e-01,9.99999e-01,9.99793e-01,1.84977e-09,9.99999e-01
4.715633337e-01,2.75140e-09,9.99999e-01,9.99999e-01,9.99864e-01,2.75177e-09,9.99999e-01
4.739211504e-01,4.06112e-09,9.99999e-01,9.99999e-01,9.99871e-01,4.06164e-09,9.99999e-01
4.762907561e-01,5.94870e-09,9.99999e-01,9.99999e-01,9.99933e-01,5.94909e-09,9.99999e-01
4.786722099e-01,8.64796e-09,9.99999e-01,9.99999e-01,9.99972e-01,8.64820e-09,9.99999e-01
4.810655710e-01,1.24792e-08,9.99999e-01,9.99999e-01,9.99991e-01,1.24793e-08,9.99999e-01
4.834708988e-01,1.78762e-08,9.99999e-01,9.99999e-01,9.99918e-01,1.78777e-08,9.99999e-01
4.858882533e-01,2.54263e-08,9.99999e-01,9.99999e-01,9.99854e-01,2.54300e-08,9.99999e-01
4.883176946e-01,3.59176e-08,9.99999e-01,9.99999e-01,9.99877e-01,3.59220e-08,9.99999e-01
4.907592831e-01,5.03921e-08,9.99999e-01,9.99999e-01,9.99889e-01,5.03977e-08,9.99999e-01
4.932130795e-01,7.02299e-08,9.99999e-01,9.99999e-01,9.99921e-01,7.02354e-08,9.99999e-01
4.956791449e-01,9.72380e-08,9.99999e-01,9.99999e-01,9.99958e-01,9.72420e-08,9.99999e-01
4.981575406e-01,1.33743e-07,9.99999e-01,9.99999e-01,9.99791e-01,1.33771e-07,9.99999e-01
5.006483283e-01,1.82766e-07,9.99999e-01,9.99999e-01,9.99455e-01,1.82866e-07,9.99995e-01
5.031515699e-01,2.47756e-07,9.99999e-01,9.99999e-01,9.97272e-01,2.48440e-07,9.99970e-01
5.056673278e-01,3.35001e-07,9.99999e-01,9.99999e-01,9.98565e-01,3.35493e-07,9.99966e-01
5.081956644e-01,4.49544e-07,9.99999e-01,9.99999e-01,9.98191e-01,4.50367e-07,9.99979e-01
5.107366428e-01,6.00334e-07,9.99999e-01,9.99999e-01,9.98779e-01,6.01069e-07,9.99996e-01
5.132903260e-01,7.97084e-07,9.99999e-01,9.99999e-01,9.99303e-01,7.97639e-07,9.99999e-01
5.158567776e-01,1.05228e-06,9.99999e-01,9.99999e-01,9.99706e-01,1.05259e-06,9.99999e-01
5.184360615e-01,1.38129e-06,9.99999e-01,9.99999e-01,9.99882e-01,1.38145e-06,9.99999e-01
5.210282418e-01,1.80326e-06,9.99999e-01,9.99999e-01,9.99955e-01,1.80334e-06,9.99999e-01
5.236333830e-01,2.34130e-06,9.99999e-01,9.99999e-01,9.99822e-01,2.34172e-06,9.99998e-01
5.262515499e-01,3.02484e-06,9.99999e-01,9.99999e-01,9.99888e-01,3.02518e-06,9.99997e-01
5.288828077e-01,3.88799e-06,9.99999e-01,9.99999e-01,9.99897e-01,3.88839e-06,9.99998e-01
5.315272217e-01,4.97275e-06,9.99999e-01,9.99999e-01,9.99910e-01,4.97319e-06,9.99999e-01
5.341848578e-01,6.32943e-06,9.99999e-01,9.99999e-01,9.99940e-01,6.32980e-06,9.99999e-01
5.368557821e-01,8.01650e-06,9.99999e-01,9.99999e-01,9.99791e-01,8.01817e-06,9.99999e-01
5.395400610e-01,1.01018e-05,9.99999e-01,9.99999e-01,9.99242e-01,1.01096e-05,9.99992e-01
5.422377613e-01,1.26758e-05,9.99999e-01,9.99999e-01,9.99039e-01,1.26882e-05,9.99981e-01
5.449489501e-01,1.58388e-05,9.99999e-01,9.99999e-01,9.99098e-01,1.58534e-05,9.99981e-01
5.476736949e-01,1.97053e-05,9.99999e-01,9.99999e-01,9.99209e-01,1.97211e-05,9.99990e-01
5.504120634e-01,2.44128e-05,9.99999e-01,9.99999e-01,9.99425e-01,2.44269e-05,9.99997e-01
5.531641237e-01,3.01192e-05,9.99999e-01,9.99999e-01,9.99711e-01,3.01279e-05,9.99999e-01
5.559299443e-01,3.70007e-05,9.99999e-01,9.99999e-01,9.99860e-01,3.70058e-05,9.99999e-01
5.587095940e-01,4.52657e-05,9.99999e-01,9.99999e-01,9.99911e-01,4.52697e-05,9.99999e-01
5.615031420e-01,5.51536e-05,9.99999e-01,9.99999e-01,9.99901e-01,5.51590e-05,9.99999e-01
5.643106577e-01,6.69392e-05,9.99999e-01,9.99999e-01,9.99887e-01,6.69468e-05,9.99998e-01
5.671322110e-01,8.08312e-05,9.99999e-01,9.99999e-01,9.98623e-01,8.09435e-05,9.99987e-01
5.699678720e-01,9.73586e-05,9.99999e-01,9.99999e-01,9.98583e-01,9.75002e-05,9.99962e-01
5.728177114e-01,1.16834e-04,9.99999e-01,9.99999e-01,9.98504e-01,1.17013e-04,9.99969e-01
5.756818000e-01,1.39731e-04,9.99999e-01,9.99999e-01,9.98631e-01,1.39925e-04,9.99981e-01
5.785602090e-01,1.66534e-04,9.99999e-01,9.99999e-01,9.98809e-01,1.66734e-04,9.99994e-01
5.814530100e-01,1.97754e-04,9.99999e-01,9.99999e-01,9.98801e-01,1.97992e-04,9.99996e-01
5.843602750e-01,2.33974e-04,9.99999e-01,9.99999e-01,9.98558e-01,2.34314e-04,9.99991e-01
5.872820764e-01,2.72946e-04,9.99999e-01,9.99999e-01,9.87666e-01,2.76378e-04,9.99913e-01
5.902184868e-01,3.20052e-04,9.99999e-01,9.99999e-01,9.85213e-01,3.24932e-04,9.99763e-01
5.931695792e-01,3.76715e-04,9.99999e-01,9.99999e-01,9.89504e-01,3.80797e-04,9.99772e-01
5.961354271e-01,4.39707e-04,9.99999e-01,9.99999e-01,9.88523e-01,4.44870e-04,9.99869e-01
5.991161043e-01,5.13771e-04,9.99999e-01,9.99999e-01,9.91627e-01,5.18130e-04,9.99959e-01
6.021116848e-01,5.98779e-04,9.99999e-01,9.99999e-01,9.95248e-01,6.01640e-04,9.99995e-01
6.051222432e-01,6.94875e-04,9.99999e-01,9.99999e-01,9.97594e-01,6.96551e-04,9.99999e-01
6.081478544e-01,8.03268e-04,9.99999e-01,9.99999e-01,9.98960e-01,8.04104e-04,9.99999e-01
6.111885937e-01,9.25230e-04,9.99999e-01,9.99999e-01,9.99561e-01,9.25635e-04,9.99999e-01
6.142445367e-01,1.06237e-03,9.99999e-01,9.99999e-01,9.99803e-01,1.06258e-03,9.99999e-01
6.173157594e-01,1.21633e-03,9.99999e-01,9.99999e-01,9.99891e-01,1.21646e-03,9.99999e-01
6.204023382e-01,1.38878e-03,9.99999e-01,9.99999e-01,9.99907e-01,1.38891e-03,9.99999e-01
6.235043498e-01,1.58100e-03,9.99999e-01,9.99999e-01,9.99585e-01,1.58166e-03,9.99998e-01
6.266218716e-01,1.79266e-03,9.99999e-01,9.99999e-01,9.97853e-01,1.79654e-03,9.99984e-01
6.297549810e-01,2.03383e-03,9.99999e-01,9.99999e-01,9.99212e-01,2.03549e-03,9.99969e-01
6.329037559e-01,2.29692e-03,9.99999e-01,9.99999e-01,9.98449e-01,2.30054e-03,9.99975e-01
6.360682746e-01,2.59034e-03,9.99999e-01,9.99999e-01,9.98671e-01,2.59382e-03,9.99985e-01
6.392486160e-01,2.91254e-03,9.99999e-01,9.99999e-01,9.98283e-01,2.91757e-03,9.99993e-01
6.424448591e-01,3.26648e-03,9.99999e-01,9.99999e-01,9.97681e-01,3.27411e-03,9.99988e-01
6.456570834e-01,3.62634e-03,9.99999e-01,9.99999e-01,9.89281e-01,3.66586e-03,9.99934e-01
6.488853688e-01,4.06292e-03,9.99999e-01,9.99999e-01,9.92247e-01,4.09534e-03,9.99834e-01
6.521297956e-01,4.52846e-03,9.99999e-01,9.99999e-01,9.92102e-01,4.56513e-03,9.99863e-01
6.553904446e-01,5.03721e-03,9.99999e-01,9.99999e-01,9.92085e-01,5.07790e-03,9.99897e-01
6.586673968e-01,5.59821e-03,9.99999e-01,9.99999e-01,9.93256e-01,5.63641e-03,9.99965e-01
6.619607338e-01,6.21994e-03,9.99999e-01,9.99999e-01,9.96237e-01,6.24347e-03,9.99992e-01
6.652705375e-01,6.88633e-03,9.99999e-01,9.99999e-01,9.97740e-01,6.90195e-03,9.99995e-01
6.685968902e-01,7.60747e-03,9.99999e-01,9.99999e-01,9.99040e-01,7.61478e-03,9.99998e-01
6.719398746e-01,8.38086e-03,9.99999e-01,9.99999e-01,9.99513e-01,8.38494e-03,9.99999e-01
6.752995740e-01,9.21307e-03,9.99999e-01,9.99999e-01,9.99742e-01,9.21544e-03,9.99999e-01
6.786760719e-01,1.01054e-02,9.99999e-01,9.99999e-01,9.99614e-01,1.01093e-02,9.99998e-01
6.820694522e-01,1.10623e-02,9.99999e-01,9.99999e-01,9.99337e-01,1.10696e-02,9.99996e-01
6.854797995e-01,1.20892e-02,9.99999e-01,9.99999e-01,9.99153e-01,1.20995e-02,9.99992e-01
6.889071985e-01,1.31742e-02,9.99999e-01,9.99999e-01,9.97918e-01,1.32019e-02,9.99981e-01
6.923517345e-01,1.39022e-02,9.99999e-01,9.99999e-01,9.66928e-01,1.43800e-02,9.99839e-01
6.958134932e-01,1.53671e-02,9.99999e-01,9.99999e-01,9.83101e-01,1.56368e-02,9.99645e-01
6.992925606e-01,1.66902e-02,9.99999e-01,9.99999e-01,9.83517e-01,1.69753e-02,9.99680e-01
7.027890234e-01,1.80239e-02,9.99999e-01,9.99999e-01,9.79876e-01,1.83985e-02,9.99756e-01
7.063029686e-01,1.95691e-02,9.99999e-01,9.99999e-01,9.83027e-01,1.99094e-02,9.99878e-01
7.098344834e-01,2.11588e-02,9.99999e-01,9.99999e-01,9.83706e-01,2.15108e-02,9.99927e-01
7.133836558e-01,2.26933e-02,9.99999e-01,9.99999e-01,9.78068e-01,2.32055e-02,9.99857e-01
7.169505741e-01,2.09622e-02,9.99999e-01,9.99999e-01,8.39556e-01,2.49962e-02,9.98878e-01
7.205353270e-01,2.46679e-02,9.99999e-01,9.99999e-01,9.19329e-01,2.68856e-02,9.98023e-01
7.241380036e-01,2.58480e-02,9.99999e-01,9.99999e-01,8.96660e-01,2.88762e-02,9.98292e-01
7.277586936e-01,2.80328e-02,9.99999e-01,9.99999e-01,9.06408e-01,3.09705e-02,9.98604e-01
7.313974871e-01,2.98729e-02,9.99999e-01,9.99999e-01,9.01166e-01,3.31708e-02,9.99345e-01
7.350544745e-01,3.35035e-02,9.99999e-01,9.99999e-01,9.44525e-01,3.54793e-02,9.99772e-01
7.387297469e-01,3.63343e-02,9.99999e-01,9.99999e-01,9.58838e-01,3.78980e-02,9.99895e-01
7.424233956e-01,3.96069e-02,9.99999e-01,9.99999e-01,9.79684e-01,4.04289e-02,9.99981e-01
7.461355126e-01,4.25403e-02,9.99999e-01,9.99999e-01,9.87615e-01,4.30738e-02,9.99996e-01
7.498661902e-01,4.55701e-02,9.99999e-01,9.99999e-01,9.94235e-01,4.58344e-02,9.99998e-01
7.536155211e-01,4.85736e-02,9.99999e-01,9.99999e-01,9.97158e-01,4.87120e-02,9.99998e-01
7.573835987e-01,5.16325e-02,9.99999e-01,9.99999e-01,9.98537e-01,5.17081e-02,9.99999e-01
7.611705167e-01,5.47739e-02,9.99999e-01,9.99999e-01,9.99090e-01,5.48238e-02,9.99999e-01
7.649763693e-01,5.80269e-02,9.99999e-01,9.99999e-01,9.99428e-01,5.80600e-02,9.99999e-01
7.688012511e-01,6.13933e-02,9.99999e-01,9.99999e-01,9.99601e-01,6.14177e-02,9.99999e-01
7.726452574e-01,6.48762e-02,9.99999e-01,9.99999e-01,9.99671e-01,6.48975e-02,9.99999e-01
7.765084837e-01,6.84676e-02,9.99999e-01,9.99999e-01,9.99529e-01,6.84998e-02,9.99998e-01
7.803910261e-01,6.48296e-02,9.99999e-01,8.99272e-01,9.97965e-01,7.22250e-02,9.99997e-01
7.842929812e-01,4.55184e-02,9.99999e-01,6.02059e-01,9.92913e-01,7.60731e-02,9.99986e-01
7.882144461e-01,4.61359e-02,9.99999e-01,5.83913e-01,9.85593e-01,8.00442e-02,9.99900e-01
7.921555184e-01,5.97797e-02,9.99999e-01,7.15836e-01,9.92126e-01,8.41379e-02,9.99826e-01
7.961162960e-01,6.95751e-02,9.99999e-01,7.98488e-01,9.85937e-01,8.83539e-02,9.99835e-01
8.000968774e-01,8.06847e-02,9.99999e-01,8.84745e-01,9.83871e-01,9.26916e-02,9.99824e-01
8.040973618e-01,8.97176e-02,9.99999e-01,9.38678e-01,9.83843e-01,9.71502e-02,9.99866e-01
8.081178486e-01,9.52245e-02,9.99999e-01,9.71203e-01,9.63769e-01,1.01729e-01,9.99864e-01
8.121584379e-01,9.05426e-02,9.99999e-01,9.91127e-01,8.58546e-01,1.06426e-01,9.99487e-01
8.162192301e-01,9.27105e-02,9.99999e-01,9.98031e-01,8.36560e-01,1.11242e-01,9.98076e-01
8.203003262e-01,1.06042e-01,9.99999e-01,9.99973e-01,9.14864e-01,1.16173e-01,9.97748e-01
8.244018279e-01,1.07345e-01,9.99999e-01,9.99999e-01,8.87131e-01,1.21220e-01,9.98207e-01
8.285238370e-01,1.13296e-01,9.99999e-01,9.99999e-01,8.97742e-01,1.26379e-01,9.98591e-01
8.326664562e-01,1.18066e-01,9.99999e-01,9.99999e-01,8.97341e-01,1.31649e-01,9.99417e-01
8.368297885e-01,1.26780e-01,9.99999e-01,9.99999e-01,9.25328e-01,1.37029e-01,9.99866e-01
8.410139374e-01,1.36079e-01,9.99999e-01,9.99999e-01,9.54908e-01,1.42516e-01,9.99921e-01
8.452190071e-01,1.44789e-01,9.99999e-01,9.99999e-01,9.77645e-01,1.48107e-01,9.99953e-01
8.494451021e-01,1.51782e-01,9.99999e-01,9.99999e-01,9.86907e-01,1.53801e-01,9.99962e-01
8.536923276e-01,1.58357e-01,9.99999e-01,9.99999e-01,9.92268e-01,1.59595e-01,9.99976e-01
8.579607893e-01,1.64693e-01,9.99999e-01,9.99999e-01,9.95215e-01,1.65486e-01,9.99994e-01
8.622505932e-01,1.70951e-01,9.99999e-01,9.99999e-01,9.96966e-01,1.71472e-01,9.99998e-01
8.665618462e-01,1.51553e-01,9.99999e-01,8.55080e-01,9.98114e-01,1.77549e-01,9.99998e-01
8.708946554e-01,5.26020e-02,9.99999e-01,2.86885e-01,9.97835e-01,1.83716e-01,9.99998e-01
8.752491287e-01,6.67466e-02,9.99999e-01,3.52298e-01,9.97108e-01,1.89968e-01,9.99996e-01
8.796253743e-01,1.08656e-01,9.99999e-01,5.55547e-01,9.95982e-01,1.96304e-01,9.99990e-01
8.840235012e-01,1.47806e-01,9.99999e-01,7.32322e-01,9.95417e-01,2.02720e-01,9.99971e-01
8.884436187e-01,1.81915e-01,9.99999e-01,8.84035e-01,9.83092e-01,2.09212e-01,9.99920e-01
8.928858368e-01,1.72440e-01,9.99999e-01,9.51052e-01,8.39355e-01,2.15778e-01,9.99542e-01
8.973502660e-01,1.61759e-01,9.99999e-01,9.87955e-01,7.37261e-01,2.22414e-01,9.97660e-01
9.018370173e-01,1.95452e-01,9.99999e-01,9.98670e-01,8.57235e-01,2.29117e-01,9.96324e-01
9.063462024e-01,1.98370e-01,9.99999e-01,9.65779e-01,8.70371e-01,2.35883e-01,9.96770e-01
9.108779334e-01,1.80812e-01,9.99999e-01,9.23794e-01,8.06559e-01,2.42710e-01,9.96644e-01
9.154323231e-01,1.91600e-01,9.99999e-01,9.81788e-01,7.83038e-01,2.49594e-01,9.97225e-01
9.200094847e-01,1.72019e-01,9.99999e-01,7.90415e-01,8.26703e-01,2.56531e-01,9.98446e-01
9.246095321e-01,1.35911e-01,9.99999e-01,6.79982e-01,7.46126e-01,2.63518e-01,9.98209e-01
9.292325798e-01,3.52694e-02,9.99999e-01,7.41438e-01,1.65388e-01,2.70552e-01,9.91387e-01
9.338787427e-01,2.12907e-02,9.99999e-01,7.48059e-01,9.93609e-02,2.77630e-01,9.69219e-01
9.385481364e-01,8.93043e-02,9.99999e-01,8.06193e-01,3.90176e-01,2.84747e-01,9.66233e-01
9.432408771e-01,7.10150e-02,9.99999e-01,8.76006e-01,2.80863e-01,2.91900e-01,9.70800e-01
9.479570815e-01,4.74485e-02,9.99999e-01,9.34110e-01,1.72367e-01,2.99087e-01,9.76170e-01
9.526968669e-01,7.54352e-02,9.99999e-01,9.67787e-01,2.56561e-01,3.06303e-01,9.85396e-01
9.574603512e-01,8.39452e-02,9.99999e-01,9.86094e-01,2.72814e-01,3.13546e-01,9.92555e-01
9.622476530e-01,1.08680e-01,9.99999e-01,9.95647e-01,3.41739e-01,3.20812e-01,9.94846e-01
9.670588912e-01,1.74462e-01,9.99999e-01,9.98697e-01,5.34122e-01,3.28098e-01,9.96620e-01
9.718941857e-01,2.23210e-01,9.99999e-01,9.99910e-01,6.67278e-01,3.35400e-01,9.97410e-01
9.767536566e-01,2.44288e-01,9.99999e-01,9.99999e-01,7.14216e-01,3.42716e-01,9.98013e-01
9.816374249e-01,2.72398e-01,9.99999e-01,9.99999e-01,7.78720e-01,3.50043e-01,9.99311e-01
9.865456120e-01,3.05484e-01,9.99999e-01,9.99999e-01,8.54919e-01,3.57376e-01,9.99856e-01
9.914783401e-01,3.30922e-01,9.99999e-01,9.99999e-01,9.07381e-01,3.64714e-01,9.99959e-01
9.964357318e-01,3.52865e-01,9.99999e-01,9.99999e-01,9.48447e-01,3.72053e-01,9.99976e-01
1.001417910e+00,3.67533e-01,9.99999e-01,9.99999e-01,9.68778e-01,3.79391e-01,9.99964e-01
1.006425000e+00,3.79755e-01,9.99999e-01,9.99999e-01,9.82028e-01,3.86724e-01,9.99948e-01
1.011457125e+00,3.89635e-01,9.99999e-01,9.99999e-01,9.88843e-01,3.94049e-01,9.99952e-01
1.016514411e+00,3.98302e-01,9.99999e-01,9.99999e-01,9.92399e-01,4.01365e-01,9.99966e-01
1.021596983e+00,4.06089e-01,9.99999e-01,9.99782e-01,9.93934e-01,4.08668e-01,9.99966e-01
1.026704968e+00,4.08287e-01,9.99999e-01,9.86232e-01,9.95263e-01,4.15956e-01,9.99979e-01
1.031838492e+00,3.75755e-01,9.99999e-01,8.90712e-01,9.96563e-01,4.23225e-01,9.99993e-01
1.036997685e+00,1.81217e-02,9.99999e-01,4.21620e-02,9.97952e-01,4.30475e-01,9.99998e-01
1.042182673e+00,8.03330e-04,9.99999e-01,1.83871e-03,9.97548e-01,4.37702e-01,9.99999e-01
1.047393587e+00,2.18925e-03,9.99999e-01,4.93389e-03,9.96757e-01,4.44904e-01,9.99998e-01
1.052630555e+00,8.77484e-08,9.99999e-01,1.94639e-07,9.95546e-01,4.52078e-01,9.99998e-01
1.057893707e+00,3.38724e-07,9.99999e-01,7.40378e-07,9.92562e-01,4.59223e-01,9.99996e-01
1.063183176e+00,1.42057e-05,9.99999e-01,3.06725e-05,9.87806e-01,4.66337e-01,9.99993e-01
1.068499092e+00,1.73676e-04,9.99999e-01,3.71637e-04,9.79703e-01,4.73417e-01,9.99985e-01
1.073841587e+00,2.86357e-03,9.99999e-01,6.06113e-03,9.76260e-01,4.80461e-01,9.99969e-01
1.079210795e+00,1.95128e-02,9.99999e-01,4.09859e-02,9.69773e-01,4.87468e-01,9.99917e-01
1.084606849e+00,7.68571e-02,9.99999e-01,1.61869e-01,9.54548e-01,4.94436e-01,9.99802e-01
1.090029883e+00,1.81164e-01,9.99999e-01,3.84264e-01,9.35029e-01,5.01363e-01,9.99591e-01
1.095480033e+00,2.65525e-01,9.99999e-01,6.23208e-01,8.33318e-01,5.08247e-01,9.99261e-01
1.100957433e+00,2.60919e-01,9.99999e-01,7.94995e-01,6.32785e-01,5.15087e-01,9.98642e-01
1.106462220e+00,1.56597e-01,9.99999e-01,9.09467e-01,3.27353e-01,5.21882e-01,9.97698e-01
1.111994531e+00,5.25595e-02,9.99999e-01,9.65381e-01,1.02914e-01,5.28629e-01,9.93902e-01
1.117554504e+00,1.50809e-02,9.99999e-01,9.91489e-01,2.89395e-02,5.35327e-01,9.78160e-01
1.123142276e+00,4.63755e-02,9.99999e-01,9.99443e-01,9.01730e-02,5.41975e-01,9.48982e-01
1.128757988e+00,9.49207e-02,9.99999e-01,9.99999e-01,1.83838e-01,5.48573e-01,9.41220e-01
1.134401778e+00,4.42510e-02,9.99999e-01,9.99999e-01,8.39281e-02,5.55117e-01,9.49794e-01
1.140073787e+00,1.86402e-01,9.99999e-01,9.99999e-01,3.45852e-01,5.61609e-01,9.59679e-01
1.145774156e+00,7.02002e-02,9.99999e-01,9.99999e-01,1.28326e-01,5.68046e-01,9.63028e-01
1.151503026e+00,5.78917e-02,9.99999e-01,9.99999e-01,1.02919e-01,5.74427e-01,9.79232e-01
1.157260541e+00,7.48075e-02,9.99999e-01,9.99999e-01,1.29622e-01,5.80752e-01,9.93744e-01
1.163046844e+00,1.27930e-01,9.99999e-01,9.99999e-01,2.18319e-01,5.87019e-01,9.98222e-01
1.168862078e+00,1.99157e-01,9.99999e-01,9.99999e-01,3.36029e-01,5.93228e-01,9.99073e-01
1.174706389e+00,3.04489e-01,9.99999e-01,9.99999e-01,5.08656e-01,5.99379e-01,9.98724e-01
1.180579921e+00,3.99438e-01,9.99999e-01,9.99999e-01,6.60928e-01,6.05469e-01,9.98164e-01
1.186482820e+00,4.81957e-01,9.99999e-01,9.99966e-01,7.89663e-01,6.11500e-01,9.98116e-01
1.192415234e+00,5.12820e-01,9.99999e-01,9.53378e-01,8.70751e-01,6.17470e-01,9.98589e-01
1.198377311e+00,2.85463e-01,9.99999e-01,5.05243e-01,8.89746e-01,6.23378e-01,9.98660e-01
1.204369197e+00,9.95309e-35,9.99999e-01,1.68818e-34,8.95781e-01,6.29224e-01,9.98833e-01
1.210391043e+00,1.07458e-141,9.99999e-01,1.79596e-141,8.99927e-01,6.35009e-01,9.99266e-01
1.216442998e+00,1.45134e-122,9.99999e-01,2.39592e-122,9.14414e-01,6.40730e-01,9.99550e-01
1.222525213e+00,1.03422e-120,9.99999e-01,1.65924e-120,9.32529e-01,6.46389e-01,9.99720e-01
1.228637839e+00,4.79992e-93,9.99999e-01,7.60763e-93,9.52595e-01,6.51984e-01,9.99869e-01
