#,Wave/freq,Total,N2,CO2,H2O,Rayleigh,CIA
4.000000000e-01,7.48791e-04,9.99999e-01,9.99999e-01,9.99985e-01,7.48801e-04,9.99999e-01
4.020000000e-01,8.63303e-04,9.99999e-01,9.99999e-01,9.99990e-01,8.63311e-04,9.99999e-01
4.040100000e-01,9.92393e-04,9.99999e-01,9.99999e-01,9.99995e-01,9.92397e-04,9.99999e-01
4.060300500e-01,1.13765e-03,9.99999e-01,9.99999e-01,9.99998e-01,1.13765e-03,9.99999e-01
4.080602003e-01,1.30065e-03,9.99999e-01,9.99999e-01,9.99999e-01,1.30065e-03,9.99999e-01
4.101005013e-01,1.48307e-03,9.99999e-01,9.99999e-01,9.99999e-01,1.48307e-03,9.99999e-01
4.121510038e-01,1.68670e-03,9.99999e-01,9.99999e-01,9.99998e-01,1.68670e-03,9.99999e-01
4.142117588e-01,1.91342e-03,9.99999e-01,9.99999e-01,9.99995e-01,1.91342e-03,9.99999e-01
4.162828176e-01,2.16518e-03,9.99999e-01,9.99999e-01,9.99982e-01,2.16522e-03,9.99999e-01
4.183642317e-01,2.44415e-03,9.99999e-01,9.99999e-01,9.99989e-01,2.44418e-03,9.99999e-01
4.204560528e-01,2.75246e-03,9.99999e-01,9.99999e-01,9.99993e-01,2.75248e-03,9.99999e-01
4.225583331e-01,3.09239e-03,9.99999e-01,9.99999e-01,9.99997e-01,3.09240e-03,9.99999e-01
4.246711247e-01,3.46631e-03,9.99999e-01,9.99999e-01,9.99997e-01,3.46632e-03,9.99999e-01
4.267944804e-01,3.87669e-03,9.99999e-01,9.99999e-01,9.99996e-01,3.87670e-03,9.99999e-01
4.289284528e-01,4.32608e-03,9.99999e-01,9.99999e-01,9.99997e-01,4.32609e-03,9.99999e-01
4.310730950e-01,4.81713e-03,9.99999e-01,9.99999e-01,9.99998e-01,4.81713e-03,9.99999e-01
4.332284605e-01,5.35253e-03,9.99999e-01,9.99999e-01,9.99999e-01,5.35253e-03,9.99999e-01
4.353946028e-01,5.93507e-03,9.99999e-01,9.99999e-01,9.99999e-01,5.93507e-03,9.99999e-01
4.375715758e-01,6.56758e-03,9.99999e-01,9.99999e-01,9.99997e-01,6.56759e-03,9.99999e-01
4.397594337e-01,7.25289e-03,9.99999e-01,9.99999e-01,9.99984e-01,7.25300e-03,9.99999e-01
4.419582309e-01,7.99363e-03,9.99999e-01,9.99999e-01,9.99921e-01,7.99426e-03,9.99999e-01
4.441680220e-01,8.79382e-03,9.99999e-01,9.99999e-01,9.99940e-01,8.79434e-03,9.99999e-01
4.463888621e-01,9.65569e-03,9.99999e-01,9.99999e-01,9.99937e-01,9.65629e-03,9.99999e-01
4.486208064e-01,1.05828e-02,9.99999e-01,9.99999e-01,9.99961e-01,1.05832e-02,9.99999e-01
4.508639105e-01,1.15778e-02,9.99999e-01,9.99999e-01,9.99981e-01,1.15780e-02,9.99999e-01
4.531182300e-01,1.26438e-02,9.99999e-01,9.99999e-01,9.99992e-01,1.26439e-02,9.99999e-01
4.553838212e-01,1.37839e-02,9.99999e-01,9.99999e-01,9.99994e-01,1.37840e-02,9.99999e-01
4.576607403e-01,1.50012e-02,9.99999e-01,9.99999e-01,9.99997e-01,1.50012e-02,9.99999e-01
4.599490440e-01,1.62987e-02,9.99999e-01,9.99999e-01,9.99997e-01,1.62987e-02,9.99999e-01
4.622487892e-01,1.76794e-02,9.99999e-01,9.99999e-01,9.99999e-01,1.76794e-02,9.99999e-01
4.645600332e-01,1.91462e-02,9.99999e-01,9.99999e-01,9.99998e-01,1.91463e-02,9.99999e-01
4.668828333e-01,2.07018e-02,9.99999e-01,9.99999e-01,9.99981e-01,2.07022e-02,9.99999e-01
4.692172475e-01,2.23492e-02,9.99999e-01,9.99999e-01,9.99960e-01,2.23501e-02,9.99999e-01
4.715633337e-01,2.40921e-02,9.99999e-01,9.99999e-01,9.99974e-01,2.40927e-02,9.99999e-01
4.739211504e-01,2.59320e-02,9.99999e-01,9.99999e-01,9.99975e-01,2.59327e-02,9.99999e-01
4.762907561e-01,2.78723e-02,9.99999e-01,9.99999e-01,9.99986e-01,2.78726e-02,9.99999e-01
4.786722099e-01,2.99149e-02,9.99999e-01,9.99999e-01,9.99994e-01,2.99150e-02,9.99999e-01
4.810655710e-01,3.20622e-02,9.99999e-01,9.99999e-01,9.99997e-01,3.20623e-02,9.99999e-01
4.834708988e-01,3.43161e-02,9.99999e-01,9.99999e-01,9.99984e-01,3.43166e-02,9.99999e-01
4.858882533e-01,3.66792e-02,9.99999e-01,9.99999e-01,9.99972e-01,3.66802e-02,9.99999e-01
4.883176946e-01,3.91542e-02,9.99999e-01,9.99999e-01,9.99976e-01,3.91551e-02,9.99999e-01
4.907592831e-01,4.17422e-02,9.99999e-01,9.99999e-01,9.99978e-01,4.17430e-02,9.99999e-01
4.932130795e-01,4.44452e-02,9.99999e-01,9.99999e-01,9.99984e-01,4.44458e-02,9.99999e-01
4.956791449e-01,4.72646e-02,9.99999e-01,9.99999e-01,9.99991e-01,4.72650e-02,9.99999e-01
4.981575406e-01,5.02000e-02,9.99999e-01,9.99999e-01,9.99960e-01,5.02020e-02,9.99999e-01
5.006483283e-01,5.32525e-02,9.99999e-01,9.99999e-01,9.99896e-01,5.32580e-02,9.99998e-01
5.031515699e-01,5.64047e-02,9.99999e-01,9.99999e-01,9.99483e-01,5.64341e-02,9.99994e-01
5.056673278e-01,5.97147e-02,9.99999e-01,9.99999e-01,9.99728e-01,5.97313e-02,9.99993e-01
5.081956644e-01,6.31284e-02,9.99999e-01,9.99999e-01,9.99657e-01,6.31502e-02,9.99995e-01
5.107366428e-01,6.66761e-02,9.99999e-01,9.99999e-01,9.99768e-01,6.66915e-02,9.99998e-01
5.132903260e-01,7.03462e-02,9.99999e-01,9.99999e-01,9.99867e-01,7.03555e-02,9.99999e-01
5.158567776e-01,7.41383e-02,9.99999e-01,9.99999e-01,9.99944e-01,7.41424e-02,9.99999e-01
5.184360615e-01,7.80506e-02,9.99999e-01,9.99999e-01,9.99977e-01,7.80523e-02,9.99999e-01
5.210282418e-01,8.20843e-02,9.99999e-01,9.99999e-01,9.99991e-01,8.20850e-02,9.99999e-01
5.236333830e-01,8.62373e-02,9.99999e-01,9.99999e-01,9.99965e-01,8.62402e-02,9.99999e-01
5.262515499e-01,9.05155e-02,9.99999e-01,9.99999e-01,9.99978e-01,9.05174e-02,9.99999e-01
5.288828077e-01,9.49141e-02,9.99999e-01,9.99999e-01,9.99980e-01,9.49160e-02,9.99999e-01
5.315272217e-01,9.94333e-02,9.99999e-01,9.99999e-01,9.99982e-01,9.94350e-02,9.99999e-01
5.341848578e-01,1.04072e-01,9.99999e-01,9.99999e-01,9.99988e-01,1.04074e-01,9.99999e-01
5.368557821e-01,1.08826e-01,9.99999e-01,9.99999e-01,9.99960e-01,1.08830e-01,9.99999e-01
5.395400610e-01,1.13688e-01,9.99999e-01,9.99999e-01,9.99856e-01,1.13704e-01,9.99998e-01
5.422377613e-01,1.18672e-01,9.99999e-01,9.99999e-01,9.99817e-01,1.18694e-01,9.99996e-01
5.449489501e-01,1.23775e-01,9.99999e-01,9.99999e-01,9.99829e-01,1.23797e-01,9.99996e-01
5.476736949e-01,1.28993e-01,9.99999e-01,9.99999e-01,9.99850e-01,1.29012e-01,9.99997e-01
5.504120634e-01,1.34323e-01,9.99999e-01,9.99999e-01,9.99891e-01,1.34338e-01,9.99999e-01
5.531641237e-01,1.39764e-01,9.99999e-01,9.99999e-01,9.99944e-01,1.39772e-01,9.99999e-01
5.559299443e-01,1.45307e-01,9.99999e-01,9.99999e-01,9.99973e-01,1.45311e-01,9.99999e-01
5.587095940e-01,1.50952e-01,9.99999e-01,9.99999e-01,9.99982e-01,1.50954e-01,9.99999e-01
5.615031420e-01,1.56696e-01,9.99999e-01,9.99999e-01,9.99981e-01,1.56699e-01,9.99999e-01
5.643106577e-01,1.62538e-01,9.99999e-01,9.99999e-01,9.99978e-01,1.62542e-01,9.99999e-01
5.671322110e-01,1.68436e-01,9.99999e-01,9.99999e-01,9.99738e-01,1.68481e-01,9.99997e-01
5.699678720e-01,1.74465e-01,9.99999e-01,9.99999e-01,9.99731e-01,1.74513e-01,9.99992e-01
5.728177114e-01,1.80583e-01,9.99999e-01,9.99999e-01,9.99716e-01,1.80636e-01,9.99993e-01
5.756818000e-01,1.86797e-01,9.99999e-01,9.99999e-01,9.99740e-01,1.86846e-01,9.99996e-01
5.785602090e-01,1.93097e-01,9.99999e-01,9.99999e-01,9.99774e-01,1.93141e-01,9.99998e-01
5.814530100e-01,1.99471e-01,9.99999e-01,9.99999e-01,9.99772e-01,1.99517e-01,9.99999e-01
5.843602750e-01,2.05915e-01,9.99999e-01,9.99999e-01,9.99726e-01,2.05971e-01,9.99997e-01
5.872820764e-01,2.11998e-01,9.99999e-01,9.99999e-01,9.97649e-01,2.12501e-01,9.99983e-01
5.902184868e-01,2.18476e-01,9.99999e-01,9.99999e-01,9.97186e-01,2.19102e-01,9.99954e-01
5.931695792e-01,2.25312e-01,9.99999e-01,9.99999e-01,9.98003e-01,2.25772e-01,9.99956e-01
5.961354271e-01,2.31995e-01,9.99999e-01,9.99999e-01,9.97818e-01,2.32508e-01,9.99974e-01
5.991161043e-01,2.38923e-01,9.99999e-01,9.99999e-01,9.98411e-01,2.39305e-01,9.99991e-01
6.021116848e-01,2.45939e-01,9.99999e-01,9.99999e-01,9.99099e-01,2.46161e-01,9.99998e-01
6.051222432e-01,2.52957e-01,9.99999e-01,9.99999e-01,9.99544e-01,2.53072e-01,9.99999e-01
6.081478544e-01,2.59983e-01,9.99999e-01,9.99999e-01,9.99803e-01,2.60035e-01,9.99999e-01
6.111885937e-01,2.67024e-01,9.99999e-01,9.99999e-01,9.99916e-01,2.67046e-01,9.99999e-01
6.142445367e-01,2.74092e-01,9.99999e-01,9.99999e-01,9.99962e-01,2.74102e-01,9.99999e-01
6.173157594e-01,2.81194e-01,9.99999e-01,9.99999e-01,9.99979e-01,2.81200e-01,9.99999e-01
6.204023382e-01,2.88330e-01,9.99999e-01,9.99999e-01,9.99982e-01,2.88335e-01,9.99999e-01
6.235043498e-01,2.95483e-01,9.99999e-01,9.99999e-01,9.99921e-01,2.95506e-01,9.99999e-01
6.266218716e-01,3.02584e-01,9.99999e-01,9.99999e-01,9.99593e-01,3.02708e-01,9.99996e-01
6.297549810e-01,3.09890e-01,9.99999e-01,9.99999e-01,9.99850e-01,3.09938e-01,9.99993e-01
6.329037559e-01,3.17098e-01,9.99999e-01,9.99999e-01,9.99706e-01,3.17193e-01,9.99994e-01
6.360682746e-01,3.24387e-01,9.99999e-01,9.99999e-01,9.99748e-01,3.24469e-01,9.99996e-01
6.392486160e-01,3.31656e-01,9.99999e-01,9.99999e-01,9.99674e-01,3.31764e-01,9.99998e-01
6.424448591e-01,3.38924e-01,9.99999e-01,9.99999e-01,9.99560e-01,3.39074e-01,9.99997e-01
6.456570834e-01,3.45685e-01,9.99999e-01,9.99999e-01,9.97961e-01,3.46395e-01,9.99987e-01
6.488853688e-01,3.53194e-01,9.99999e-01,9.99999e-01,9.98527e-01,3.53725e-01,9.99968e-01
6.521297956e-01,3.60511e-01,9.99999e-01,9.99999e-01,9.98499e-01,3.61062e-01,9.99973e-01
6.553904446e-01,3.67840e-01,9.99999e-01,9.99999e-01,9.98497e-01,3.68400e-01,9.99980e-01
6.586673968e-01,3.75256e-01,9.99999e-01,9.99999e-01,9.98720e-01,3.75739e-01,9.99993e-01
6.619607338e-01,3.82801e-01,9.99999e-01,9.99999e-01,9.99287e-01,3.83075e-01,9.99998e-01
6.652705375e-01,3.90237e-01,9.99999e-01,9.99999e-01,9.99572e-01,3.90404e-01,9.99998e-01
6.685968902e-01,3.97653e-01,9.99999e-01,9.99999e-01,9.99818e-01,3.97725e-01,9.99999e-01
6.719398746e-01,4.04998e-01,9.99999e-01,9.99999e-01,9.99907e-01,4.05035e-01,9.99999e-01
6.752995740e-01,4.12310e-01,9.99999e-01,9.99999e-01,9.99950e-01,4.12330e-01,9.99999e-01
6.786760719e-01,4.19579e-01,9.99999e-01,9.99999e-01,9.99926e-01,4.19609e-01,9.99999e-01
6.820694522e-01,4.26816e-01,9.99999e-01,9.99999e-01,9.99874e-01,4.26869e-01,9.99998e-01
6.854797995e-01,4.34038e-01,9.99999e-01,9.99999e-01,9.99839e-01,4.34108e-01,9.99998e-01
6.889071985e-01,4.41147e-01,9.99999e-01,9.99999e-01,9.99605e-01,4.41322e-01,9.99996e-01
6.923517345e-01,4.45645e-01,9.99999e-01,9.99999e-01,9.93639e-01,4.48511e-01,9.99969e-01
6.958134932e-01,4.54170e-01,9.99999e-01,9.99999e-01,9.96773e-01,4.55671e-01,9.99932e-01
6.992925606e-01,4.61318e-01,9.99999e-01,9.99999e-01,9.96856e-01,4.62800e-01,9.99939e-01
7.027890234e-01,4.68071e-01,9.99999e-01,9.99999e-01,9.96158e-01,4.69897e-01,9.99953e-01
7.063029686e-01,4.75407e-01,9.99999e-01,9.99999e-01,9.96766e-01,4.76960e-01,9.99976e-01
7.098344834e-01,4.82478e-01,9.99999e-01,9.99999e-01,9.96897e-01,4.83986e-01,9.99985e-01
7.133836558e-01,4.88898e-01,9.99999e-01,9.99999e-01,9.95799e-01,4.90973e-01,9.99972e-01
7.169505741e-01,4.81304e-01,9.99999e-01,9.99999e-01,9.66833e-01,4.97921e-01,9.99787e-01
7.205353270e-01,4.96577e-01,9.99999e-01,9.99999e-01,9.84025e-01,5.04826e-01,9.99625e-01
7.241380036e-01,5.00960e-01,9.99999e-01,9.99999e-01,9.79348e-01,5.11689e-01,9.99676e-01
7.277586936e-01,5.08712e-01,9.99999e-01,9.99999e-01,9.81369e-01,5.18506e-01,9.99735e-01
7.313974871e-01,5.14905e-01,9.99999e-01,9.99999e-01,9.80376e-01,5.25276e-01,9.99875e-01
7.350544745e-01,5.26241e-01,9.99999e-01,9.99999e-01,9.89218e-01,5.31999e-01,9.99956e-01
7.387297469e-01,5.34389e-01,9.99999e-01,9.99999e-01,9.92067e-01,5.38673e-01,9.99979e-01
7.424233956e-01,5.43180e-01,9.99999e-01,9.99999e-01,9.96124e-01,5.45295e-01,9.99996e-01
7.461355126e-01,5.50567e-01,9.99999e-01,9.99999e-01,9.97645e-01,5.51866e-01,9.99998e-01
7.498661902e-01,5.57775e-01,9.99999e-01,9.99999e-01,9.98907e-01,5.58385e-01,9.99999e-01
7.536155211e-01,5.64545e-01,9.99999e-01,9.99999e-01,9.99461e-01,5.64849e-01,9.99999e-01
7.573835987e-01,5.71100e-01,9.99999e-01,9.99999e-01,9.99722e-01,5.71258e-01,9.99999e-01
7.611705167e-01,5.77511e-01,9.99999e-01,9.99999e-01,9.99827e-01,5.77611e-01,9.99999e-01
7.649763693e-01,5.83844e-01,9.99999e-01,9.99999e-01,9.99891e-01,5.83907e-01,9.99999e-01
7.688012511e-01,5.90101e-01,9.99999e-01,9.99999e-01,9.99924e-01,5.90145e-01,9.99999e-01
7.726452574e-01,5.96288e-01,9.99999e-01,9.99999e-01,9.99937e-01,5.96325e-01,9.99999e-01
7.765084837e-01,6.02392e-01,9.99999e-01,9.99999e-01,9.99910e-01,6.02445e-01,9.99999e-01
7.803910261e-01,5.93013e-01,9.99999e-01,9.74905e-01,9.99614e-01,6.08506e-01,9.99999e-01
7.842929812e-01,5.53361e-01,9.99999e-01,9.01670e-01,9.98654e-01,6.14506e-01,9.99997e-01
7.882144461e-01,5.53177e-01,9.99999e-01,8.93980e-01,9.97258e-01,6.20445e-01,9.99980e-01
7.921555184e-01,5.86155e-01,9.99999e-01,9.37275e-01,9.98505e-01,6.26322e-01,9.99966e-01
7.961162960e-01,6.03993e-01,9.99999e-01,9.58057e-01,9.97321e-01,6.32138e-01,9.99968e-01
8.000968774e-01,6.21283e-01,9.99999e-01,9.76989e-01,9.96929e-01,6.37890e-01,9.99966e-01
8.040973618e-01,6.33938e-01,9.99999e-01,9.88077e-01,9.96922e-01,6.43580e-01,9.99974e-01
8.081178486e-01,6.41106e-01,9.99999e-01,9.94484e-01,9.93016e-01,6.49207e-01,9.99973e-01
8.121584379e-01,6.34796e-01,9.99999e-01,9.98316e-01,9.71210e-01,6.54771e-01,9.99902e-01
8.162192301e-01,6.37559e-01,9.99999e-01,9.99627e-01,9.66308e-01,6.60271e-01,9.99635e-01
8.203003262e-01,6.53859e-01,9.99999e-01,9.99994e-01,9.82625e-01,6.65707e-01,9.99573e-01
8.244018279e-01,6.55099e-01,9.99999e-01,9.99999e-01,9.76518e-01,6.71079e-01,9.99660e-01
8.285238370e-01,6.62430e-01,9.99999e-01,9.99999e-01,9.79625e-01,6.76387e-01,9.99733e-01
8.326664562e-01,6.67586e-01,9.99999e-01,9.99999e-01,9.79503e-01,6.81631e-01,9.99889e-01
8.368297885e-01,6.76747e-01,9.99999e-01,9.99999e-01,9.85372e-01,6.86811e-01,9.99974e-01
8.410139374e-01,6.85892e-01,9.99999e-01,9.99999e-01,9.91293e-01,6.91926e-01,9.99984e-01
8.452190071e-01,6.93997e-01,9.99999e-01,9.99999e-01,9.95731e-01,6.96978e-01,9.99990e-01
8.494451021e-01,7.00214e-01,9.99999e-01,9.99999e-01,9.97510e-01,7.01966e-01,9.99992e-01
8.536923276e-01,7.05850e-01,9.99999e-01,9.99999e-01,9.98533e-01,7.06889e-01,9.99995e-01
8.579607893e-01,7.11104e-01,9.99999e-01,9.99999e-01,9.99093e-01,7.11749e-01,9.99998e-01
8.622505932e-01,7.16134e-01,9.99999e-01,9.99999e-01,9.99425e-01,7.16546e-01,9.99999e-01
8.665618462e-01,6.76993e-01,9.99999e-01,9.38925e-01,9.99642e-01,7.21279e-01,9.99999e-01
8.708946554e-01,5.55602e-01,9.99999e-01,7.65651e-01,9.99590e-01,7.25949e-01,9.99999e-01
8.752491287e-01,5.90431e-01,9.99999e-01,8.08627e-01,9.99452e-01,7.30556e-01,9.99998e-01
8.796253743e-01,6.54243e-01,9.99999e-01,8.90669e-01,9.99238e-01,7.35100e-01,9.99997e-01
8.840235012e-01,6.96017e-01,9.99999e-01,9.41908e-01,9.99131e-01,7.39583e-01,9.99994e-01
8.884436187e-01,7.24411e-01,9.99999e-01,9.76828e-01,9.96755e-01,7.44003e-01,9.99984e-01
8.928858368e-01,7.16636e-01,9.99999e-01,9.90537e-01,9.66782e-01,7.48361e-01,9.99913e-01
8.973502660e-01,7.07519e-01,9.99999e-01,9.97709e-01,9.42570e-01,7.52658e-01,9.99556e-01
9.018370173e-01,7.33913e-01,9.99999e-01,9.99748e-01,9.70550e-01,7.56894e-01,9.99303e-01
9.063462024e-01,7.35578e-01,9.99999e-01,9.93246e-01,9.73530e-01,7.61070e-01,9.99388e-01
9.108779334e-01,7.22684e-01,9.99999e-01,9.85050e-01,9.59276e-01,7.65186e-01,9.99364e-01
9.154323231e-01,7.30967e-01,9.99999e-01,9.96521e-01,9.54011e-01,7.69241e-01,9.99474e-01
9.200094847e-01,7.07116e-01,9.99999e-01,9.47732e-01,9.63891e-01,7.73238e-01,9.99705e-01
9.246095321e-01,6.80518e-01,9.99999e-01,9.28755e-01,9.42194e-01,7.77176e-01,9.99660e-01
9.292325798e-01,4.98268e-01,9.99999e-01,9.42807e-01,6.74569e-01,7.81055e-01,9.98365e-01
9.338787427e-01,4.48038e-01,9.99999e-01,9.45473e-01,6.04676e-01,7.84877e-01,9.94105e-01
9.385481364e-01,6.15456e-01,9.99999e-01,9.59664e-01,8.17111e-01,7.88641e-01,9.93525e-01
9.432408771e-01,5.77570e-01,9.99999e-01,9.75210e-01,7.50901e-01,7.92349e-01,9.94412e-01
9.479570815e-01,5.25901e-01,9.99999e-01,9.87177e-01,6.71956e-01,7.96000e-01,9.95449e-01
9.526968669e-01,5.91569e-01,9.99999e-01,9.93813e-01,7.46212e-01,7.99595e-01,9.97221e-01
9.574603512e-01,6.12264e-01,9.99999e-01,9.97353e-01,7.65349e-01,8.03135e-01,9.98587e-01
9.622476530e-01,6.48592e-01,9.99999e-01,9.99175e-01,8.05507e-01,8.06621e-01,9.99023e-01
9.670588912e-01,7.14415e-01,9.99999e-01,9.99753e-01,8.82711e-01,8.10052e-01,9.99359e-01
9.718941857e-01,7.52101e-01,9.99999e-01,9.99982e-01,9.25072e-01,8.13430e-01,9.99509e-01
9.767536566e-01,7.65327e-01,9.99999e-01,9.99999e-01,9.37386e-01,8.16754e-01,9.99623e-01
9.816374249e-01,7.81709e-01,9.99999e-01,9.99999e-01,9.53397e-01,8.20026e-01,9.99869e-01
9.865456120e-01,7.99064e-01,9.99999e-01,9.99999e-01,9.70650e-01,8.23247e-01,9.99972e-01
9.914783401e-01,8.11331e-01,9.99999e-01,9.99999e-01,9.81754e-01,8.26415e-01,9.99991e-01
9.964357318e-01,8.21257e-01,9.99999e-01,9.99999e-01,9.90026e-01,8.29534e-01,9.99995e-01
1.001417910e+00,8.27615e-01,9.99999e-01,9.99999e-01,9.94016e-01,8.32601e-01,9.99992e-01
1.006425000e+00,8.32751e-01,9.99999e-01,9.99999e-01,9.96576e-01,8.35620e-01,9.99989e-01
1.011457125e+00,8.36805e-01,9.99999e-01,9.99999e-01,9.97880e-01,8.38589e-01,9.99990e-01
1.016514411e+00,8.40292e-01,9.99999e-01,9.99999e-01,9.98558e-01,8.41510e-01,9.99993e-01
1.021596983e+00,8.43373e-01,9.99999e-01,9.99958e-01,9.98849e-01,8.44383e-01,9.99993e-01
1.026704968e+00,8.44207e-01,9.99999e-01,9.97353e-01,9.99102e-01,8.47209e-01,9.99995e-01
1.031838492e+00,8.17522e-01,9.99999e-01,9.62412e-01,9.99349e-01,8.49988e-01,9.99998e-01
1.036997685e+00,1.81317e-01,9.99999e-01,2.12701e-01,9.99612e-01,8.52722e-01,9.99999e-01
1.042182673e+00,1.94043e-01,9.99999e-01,2.26938e-01,9.99535e-01,8.55409e-01,9.99999e-01
1.047393587e+00,1.93641e-01,9.99999e-01,2.25799e-01,9.99385e-01,8.58052e-01,9.99999e-01
1.052630555e+00,1.48672e-02,9.99999e-01,1.72855e-02,9.99155e-01,8.60651e-01,9.99999e-01
1.057893707e+00,3.24777e-02,9.99999e-01,3.76636e-02,9.98588e-01,8.63206e-01,9.99999e-01
1.063183176e+00,7.85333e-02,9.99999e-01,9.08765e-02,9.97680e-01,8.65717e-01,9.99998e-01
1.068499092e+00,1.68552e-01,9.99999e-01,1.94807e-01,9.96124e-01,8.68187e-01,9.99996e-01
1.073841587e+00,3.10330e-01,9.99999e-01,3.57897e-01,9.95453e-01,8.70614e-01,9.99993e-01
1.079210795e+00,4.53304e-01,9.99999e-01,5.22094e-01,9.94202e-01,8.73000e-01,9.99984e-01
1.084606849e+00,6.08448e-01,9.99999e-01,7.01085e-01,9.91213e-01,8.75345e-01,9.99962e-01
1.090029883e+00,7.20752e-01,9.99999e-01,8.31660e-01,9.87292e-01,8.77650e-01,9.99922e-01
1.095480033e+00,7.76354e-01,9.99999e-01,9.13400e-01,9.65843e-01,8.79915e-01,9.99860e-01
1.100957433e+00,7.73072e-01,9.99999e-01,9.57305e-01,9.15389e-01,8.82142e-01,9.99742e-01
1.106462220e+00,6.92745e-01,9.99999e-01,9.82162e-01,7.97561e-01,8.84330e-01,9.99564e-01
1.111994531e+00,5.47978e-01,9.99999e-01,9.93351e-01,6.22793e-01,8.86479e-01,9.98843e-01
1.117554504e+00,4.10473e-01,9.99999e-01,9.98383e-01,4.64517e-01,8.88592e-01,9.95833e-01
1.123142276e+00,5.01290e-01,9.99999e-01,9.99894e-01,5.68460e-01,8.90667e-01,9.90147e-01
1.128757988e+00,6.14542e-01,9.99999e-01,9.99999e-01,6.96332e-01,8.92707e-01,9.88611e-01
1.134401778e+00,3.93598e-01,9.99999e-01,9.99999e-01,4.44221e-01,8.94710e-01,9.90307e-01
1.140073787e+00,7.17510e-01,9.99999e-01,9.99999e-01,8.06437e-01,8.96679e-01,9.92248e-01
1.145774156e+00,5.69706e-01,9.99999e-01,9.99999e-01,6.38516e-01,8.98612e-01,9.92901e-01
1.151503026e+00,5.43084e-01,9.99999e-01,9.99999e-01,6.05481e-01,9.00512e-01,9.96039e-01
1.157260541e+00,5.95077e-01,9.99999e-01,9.99999e-01,6.60237e-01,9.02378e-01,9.98813e-01
1.163046844e+00,6.65879e-01,9.99999e-01,9.99999e-01,7.36667e-01,9.04210e-01,9.99663e-01
1.168862078e+00,7.33045e-01,9.99999e-01,9.99999e-01,8.09232e-01,9.06011e-01,9.99824e-01
1.174706389e+00,7.96410e-01,9.99999e-01,9.99999e-01,8.77528e-01,9.07779e-01,9.99758e-01
1.180579921e+00,8.39743e-01,9.99999e-01,9.99999e-01,9.23607e-01,9.09515e-01,9.99652e-01
1.186482820e+00,8.70891e-01,9.99999e-01,9.99993e-01,9.56086e-01,9.11221e-01,9.99643e-01
1.192415234e+00,8.80628e-01,9.99999e-01,9.90475e-01,9.74117e-01,9.12896e-01,9.99732e-01
1.198377311e+00,5.12245e-01,9.99999e-01,5.70733e-01,9.78092e-01,9.14540e-01,9.99746e-01
1.204369197e+00,2.16884e-08,9.99999e-01,2.39664e-08,9.79271e-01,9.16155e-01,9.99778e-01
1.210391043e+00,1.29878e-28,9.99999e-01,1.43120e-28,9.80179e-01,9.17742e-01,9.99860e-01
1.216442998e+00,5.37581e-25,9.99999e-01,5.91012e-25,9.83159e-01,9.19299e-01,9.99914e-01
1.222525213e+00,1.21428e-24,9.99999e-01,1.32780e-24,9.86855e-01,9.20828e-01,9.99946e-01
1.228637839e+00,4.77542e-19,9.99999e-01,5.21123e-19,9.90848e-01,9.22330e-01,9.99974e-01
