#,Wave/freq,Total,N2,CO2,H2O,Rayleigh,CIA
4.000000000e-01,7.07584e-18,9.99999e-01,9.99999e-01,9.99923e-01,7.07637e-18,9.99999e-01
4.020000000e-01,1.54490e-17,9.99999e-01,9.99999e-01,9.99952e-01,1.54497e-17,9.99999e-01
4.040100000e-01,3.31873e-17,9.99999e-01,9.99999e-01,9.99979e-01,3.31880e-17,9.99999e-01
4.060300500e-01,7.02232e-17,9.99999e-01,9.99999e-01,9.99994e-01,7.02235e-17,9.99999e-01
4.080602003e-01,1.46404e-16,9.99999e-01,9.99999e-01,9.99998e-01,1.46404e-16,9.99999e-01
4.101005013e-01,3.00832e-16,9.99999e-01,9.99999e-01,9.99999e-01,3.00832e-16,9.99999e-01
4.121510038e-01,6.09417e-16,9.99999e-01,9.99999e-01,9.99996e-01,6.09418e-16,9.99999e-01
4.142117588e-01,1.21742e-15,9.99999e-01,9.99999e-01,9.99978e-01,1.21745e-15,9.99999e-01
4.162828176e-01,2.39889e-15,9.99999e-01,9.99999e-01,9.99905e-01,2.39911e-15,9.99999e-01
4.183642317e-01,4.66451e-15,9.99999e-01,9.99999e-01,9.99943e-01,4.66477e-15,9.99999e-01
4.204560528e-01,8.95142e-15,9.99999e-01,9.99999e-01,9.99965e-01,8.95172e-15,9.99999e-01
4.225583331e-01,1.69584e-14,9.99999e-01,9.99999e-01,9.99986e-01,1.69587e-14,9.99999e-01
4.246711247e-01,3.17242e-14,9.99999e-01,9.99999e-01,9.99989e-01,3.17245e-14,9.99999e-01
4.267944804e-01,5.86164e-14,9.99999e-01,9.99999e-01,9.99984e-01,5.86173e-14,9.99999e-01
4.289284528e-01,1.07000e-13,9.99999e-01,9.99999e-01,9.99987e-01,1.07002e-13,9.99999e-01
4.310730950e-01,1.93014e-13,9.99999e-01,9.99999e-01,9.99994e-01,1.93015e-13,9.99999e-01
4.332284605e-01,3.44138e-13,9.99999e-01,9.99999e-01,9.99998e-01,3.44138e-13,9.99999e-01
4.353946028e-01,6.06615e-13,9.99999e-01,9.99999e-01,9.99998e-01,6.06615e-13,9.99999e-01
4.375715758e-01,1.05737e-12,9.99999e-01,9.99999e-01,9.99990e-01,1.05738e-12,9.99999e-01
4.397594337e-01,1.82283e-12,9.99999e-01,9.99999e-01,9.99917e-01,1.82298e-12,9.99999e-01
4.419582309e-01,3.10799e-12,9.99999e-01,9.99999e-01,9.99581e-01,3.10929e-12,9.99999e-01
4.441680220e-01,5.24586e-12,9.99999e-01,9.99999e-01,9.99671e-01,5.24758e-12,9.99999e-01
4.463888621e-01,8.76234e-12,9.99999e-01,9.99999e-01,9.99658e-01,8.76532e-12,9.99999e-01
4.486208064e-01,1.44905e-11,9.99999e-01,9.99999e-01,9.99787e-01,1.44936e-11,9.99999e-01
4.508639105e-01,2.37261e-11,9.99999e-01,9.99999e-01,9.99900e-01,2.37284e-11,9.99999e-01
4.531182300e-01,3.84695e-11,9.99999e-01,9.99999e-01,9.99960e-01,3.84711e-11,9.99999e-01
4.553838212e-01,6.17792e-11,9.99999e-01,9.99999e-01,9.99972e-01,6.17808e-11,9.99999e-01
4.576607403e-01,9.82888e-11,9.99999e-01,9.99999e-01,9.99987e-01,9.82900e-11,9.99999e-01
4.599490440e-01,1.54945e-10,9.99999e-01,9.99999e-01,9.99990e-01,1.54947e-10,9.99999e-01
4.622487892e-01,2.42075e-10,9.99999e-01,9.99999e-01,9.99998e-01,2.42075e-10,9.99999e-01
4.645600332e-01,3.74877e-10,9.99999e-01,9.99999e-01,9.99993e-01,3.74879e-10,9.99999e-01
4.668828333e-01,5.75489e-10,9.99999e-01,9.99999e-01,9.99899e-01,5.75546e-10,9.99999e-01
4.692172475e-01,8.75989e-10,9.99999e-01,9.99999e-01,9.99785e-01,8.76176e-10,9.99999e-01
4.715633337e-01,1.32263e-09,9.99999e-01,9.99999e-01,9.99859e-01,1.32281e-09,9.99999e-01
4.739211504e-01,1.98067e-09,9.99999e-01,9.99999e-01,9.99865e-01,1.98093e-09,9.99999e-01
4.762907561e-01,2.94272e-09,9.99999e-01,9.99999e-01,9.99930e-01,2.94292e-09,9.99999e-01
4.786722099e-01,4.33789e-09,9.99999e-01,9.99999e-01,9.99971e-01,4.33802e-09,9.99999e-01
4.810655710e-01,6.34559e-09,9.99999e-01,9.99999e-01,9.99991e-01,6.34564e-09,9.99999e-01
4.834708988e-01,9.21216e-09,9.99999e-01,9.99999e-01,9.99918e-01,9.21291e-09,9.99999e-01
4.858882533e-01,1.32756e-08,9.99999e-01,9.99999e-01,9.99848e-01,1.32776e-08,9.99999e-01
4.883176946e-01,1.89956e-08,9.99999e-01,9.99999e-01,9.99873e-01,1.89980e-08,9.99999e-01
4.907592831e-01,2.69881e-08,9.99999e-01,9.99999e-01,9.99884e-01,2.69912e-08,9.99999e-01
4.932130795e-01,3.80793e-08,9.99999e-01,9.99999e-01,9.99918e-01,3.80824e-08,9.99999e-01
4.956791449e-01,5.33648e-08,9.99999e-01,9.99999e-01,9.99956e-01,5.33671e-08,9.99999e-01
4.981575406e-01,7.42737e-08,9.99999e-01,9.99999e-01,9.99784e-01,7.42896e-08,9.99999e-01
5.006483283e-01,1.02684e-07,9.99999e-01,9.99999e-01,9.99444e-01,1.02741e-07,9.99995e-01
5.031515699e-01,1.40780e-07,9.99999e-01,9.99999e-01,9.97180e-01,1.41182e-07,9.99969e-01
5.056673278e-01,1.92498e-07,9.99999e-01,9.99999e-01,9.98509e-01,1.92792e-07,9.99965e-01
5.081956644e-01,2.61155e-07,9.99999e-01,9.99999e-01,9.98119e-01,2.61653e-07,9.99977e-01
5.107366428e-01,3.52523e-07,9.99999e-01,9.99999e-01,9.98729e-01,3.52973e-07,9.99995e-01
5.132903260e-01,4.73014e-07,9.99999e-01,9.99999e-01,9.99273e-01,4.73358e-07,9.99999e-01
5.158567776e-01,6.30938e-07,9.99999e-01,9.99999e-01,9.99692e-01,6.31132e-07,9.99999e-01
5.184360615e-01,8.36623e-07,9.99999e-01,9.99999e-01,9.99876e-01,8.36726e-07,9.99999e-01
5.210282418e-01,1.10308e-06,9.99999e-01,9.99999e-01,9.99953e-01,1.10313e-06,9.99999e-01
5.236333830e-01,1.44617e-06,9.99999e-01,9.99999e-01,9.99815e-01,1.44644e-06,9.99998e-01
5.262515499e-01,1.88624e-06,9.99999e-01,9.99999e-01,9.99884e-01,1.88646e-06,9.99997e-01
5.288828077e-01,2.44722e-06,9.99999e-01,9.99999e-01,9.99894e-01,2.44748e-06,9.99998e-01
5.315272217e-01,3.15875e-06,9.99999e-01,9.99999e-01,9.99906e-01,3.15904e-06,9.99999e-01
5.341848578e-01,4.05673e-06,9.99999e-01,9.99999e-01,9.99938e-01,4.05698e-06,9.99999e-01
5.368557821e-01,5.18336e-06,9.99999e-01,9.99999e-01,9.99785e-01,5.18447e-06,9.99999e-01
5.395400610e-01,6.58816e-06,9.99999e-01,9.99999e-01,9.99228e-01,6.59328e-06,9.99993e-01
5.422377613e-01,8.33672e-06,9.99999e-01,9.99999e-01,9.98999e-01,8.34521e-06,9.99981e-01
5.449489501e-01,1.05036e-05,9.99999e-01,9.99999e-01,9.99071e-01,1.05136e-05,9.99980e-01
5.476736949e-01,1.31741e-05,9.99999e-01,9.99999e-01,9.99175e-01,1.31851e-05,9.99990e-01
5.504120634e-01,1.64518e-05,9.99999e-01,9.99999e-01,9.99401e-01,1.64617e-05,9.99996e-01
5.531641237e-01,2.04565e-05,9.99999e-01,9.99999e-01,9.99698e-01,2.04626e-05,9.99999e-01
5.559299443e-01,2.53232e-05,9.99999e-01,9.99999e-01,9.99854e-01,2.53269e-05,9.99999e-01
5.587095940e-01,3.12128e-05,9.99999e-01,9.99999e-01,9.99908e-01,3.12156e-05,9.99999e-01
5.615031420e-01,3.83112e-05,9.99999e-01,9.99999e-01,9.99898e-01,3.83150e-05,9.99999e-01
5.643106577e-01,4.68337e-05,9.99999e-01,9.99999e-01,9.99885e-01,4.68391e-05,9.99998e-01
5.671322110e-01,5.69530e-05,9.99999e-01,9.99999e-01,9.98611e-01,5.70328e-05,9.99987e-01
5.699678720e-01,6.90699e-05,9.99999e-01,9.99999e-01,9.98511e-01,6.91754e-05,9.99961e-01
5.728177114e-01,8.34523e-05,9.99999e-01,9.99999e-01,9.98454e-01,8.35840e-05,9.99967e-01
5.756818000e-01,1.00472e-04,9.99999e-01,9.99999e-01,9.98580e-01,1.00617e-04,9.99980e-01
5.785602090e-01,1.20528e-04,9.99999e-01,9.99999e-01,9.98762e-01,1.20678e-04,9.99993e-01
5.814530100e-01,1.44041e-04,9.99999e-01,9.99999e-01,9.98757e-01,1.44220e-04,9.99996e-01
5.843602750e-01,1.71494e-04,9.99999e-01,9.99999e-01,9.98523e-01,1.71749e-04,9.99991e-01
5.872820764e-01,2.01231e-04,9.99999e-01,9.99999e-01,9.87346e-01,2.03829e-04,9.99909e-01
5.902184868e-01,2.37318e-04,9.99999e-01,9.99999e-01,9.84623e-01,2.41083e-04,9.99755e-01
5.931695792e-01,2.81048e-04,9.99999e-01,9.99999e-01,9.89134e-01,2.84202e-04,9.99764e-01
5.961354271e-01,3.29921e-04,9.99999e-01,9.99999e-01,9.88079e-01,3.33947e-04,9.99864e-01
5.991161043e-01,3.87726e-04,9.99999e-01,9.99999e-01,9.91287e-01,3.91150e-04,9.99957e-01
6.021116848e-01,4.54458e-04,9.99999e-01,9.99999e-01,9.95046e-01,4.56723e-04,9.99994e-01
6.051222432e-01,5.30324e-04,9.99999e-01,9.99999e-01,9.97490e-01,5.31658e-04,9.99999e-01
6.081478544e-01,6.16367e-04,9.99999e-01,9.99999e-01,9.98917e-01,6.17035e-04,9.99999e-01
6.111885937e-01,7.13690e-04,9.99999e-01,9.99999e-01,9.99541e-01,7.14018e-04,9.99999e-01
6.142445367e-01,8.23696e-04,9.99999e-01,9.99999e-01,9.99794e-01,8.23865e-04,9.99999e-01
6.173157594e-01,9.47821e-04,9.99999e-01,9.99999e-01,9.99886e-01,9.47928e-04,9.99999e-01
6.204023382e-01,1.08755e-03,9.99999e-01,9.99999e-01,9.99904e-01,1.08766e-03,9.99999e-01
6.235043498e-01,1.24407e-03,9.99999e-01,9.99999e-01,9.99581e-01,1.24460e-03,9.99998e-01
6.266218716e-01,1.41721e-03,9.99999e-01,9.99999e-01,9.97776e-01,1.42039e-03,9.99983e-01
6.297549810e-01,1.61543e-03,9.99999e-01,9.99999e-01,9.99184e-01,1.61680e-03,9.99968e-01
6.329037559e-01,1.83265e-03,9.99999e-01,9.99999e-01,9.98386e-01,1.83566e-03,9.99974e-01
6.360682746e-01,2.07604e-03,9.99999e-01,9.99999e-01,9.98627e-01,2.07892e-03,9.99984e-01
6.392486160e-01,2.34445e-03,9.99999e-01,9.99999e-01,9.98220e-01,2.34865e-03,9.99992e-01
6.424448591e-01,2.64067e-03,9.99999e-01,9.99999e-01,9.97625e-01,2.64698e-03,9.99989e-01
6.456570834e-01,2.94332e-03,9.99999e-01,9.99999e-01,9.89020e-01,2.97617e-03,9.99938e-01
6.488853688e-01,3.31104e-03,9.99999e-01,9.99999e-01,9.91927e-01,3.33856e-03,9.99828e-01
6.521297956e-01,3.70532e-03,9.99999e-01,9.99999e-01,9.91774e-01,3.73659e-03,9.99855e-01
6.553904446e-01,4.13817e-03,9.99999e-01,9.99999e-01,9.91815e-01,4.17277e-03,9.99891e-01
6.586673968e-01,4.61692e-03,9.99999e-01,9.99999e-01,9.92980e-01,4.64972e-03,9.99964e-01
6.619607338e-01,5.14907e-03,9.99999e-01,9.99999e-01,9.95935e-01,5.17013e-03,9.99991e-01
6.652705375e-01,5.72321e-03,9.99999e-01,9.99999e-01,9.97644e-01,5.73674e-03,9.99995e-01
6.685968902e-01,6.34543e-03,9.99999e-01,9.99999e-01,9.98904e-01,6.35239e-03,9.99998e-01
6.719398746e-01,7.01640e-03,9.99999e-01,9.99999e-01,9.99492e-01,7.01996e-03,9.99999e-01
6.752995740e-01,7.74026e-03,9.99999e-01,9.99999e-01,9.99724e-01,7.74239e-03,9.99999e-01
6.786760719e-01,8.51928e-03,9.99999e-01,9.99999e-01,9.99603e-01,8.52265e-03,9.99998e-01
6.820694522e-01,9.35739e-03,9.99999e-01,9.99999e-01,9.99321e-01,9.36378e-03,9.99995e-01
6.854797995e-01,1.02597e-02,9.99999e-01,9.99999e-01,9.99125e-01,1.02688e-02,9.99991e-01
6.889071985e-01,1.12169e-02,9.99999e-01,9.99999e-01,9.97893e-01,1.12408e-02,9.99980e-01
6.923517345e-01,1.18641e-02,9.99999e-01,9.99999e-01,9.66068e-01,1.22828e-02,9.99833e-01
6.958134932e-01,1.31536e-02,9.99999e-01,9.99999e-01,9.82121e-01,1.33980e-02,9.99625e-01
6.992925606e-01,1.43377e-02,9.99999e-01,9.99999e-01,9.83072e-01,1.45893e-02,9.99670e-01
7.027890234e-01,1.55243e-02,9.99999e-01,9.99999e-01,9.79088e-01,1.58599e-02,9.99747e-01
7.063029686e-01,1.69074e-02,9.99999e-01,9.99999e-01,9.82384e-01,1.72127e-02,9.99873e-01
7.098344834e-01,1.83340e-02,9.99999e-01,9.99999e-01,9.83089e-01,1.86507e-02,9.99925e-01
7.133836558e-01,1.97230e-02,9.99999e-01,9.99999e-01,9.77648e-01,2.01768e-02,9.99851e-01
7.169505741e-01,1.81882e-02,9.99999e-01,9.99999e-01,8.35522e-01,2.17940e-02,9.98837e-01
7.205353270e-01,2.14634e-02,9.99999e-01,9.99999e-01,9.15019e-01,2.35049e-02,9.97950e-01
7.241380036e-01,2.25774e-02,9.99999e-01,9.99999e-01,8.93534e-01,2.53123e-02,9.98229e-01
7.277586936e-01,2.45544e-02,9.99999e-01,9.99999e-01,9.03414e-01,2.72189e-02,9.98552e-01
7.313974871e-01,2.62009e-02,9.99999e-01,9.99999e-01,8.97066e-01,2.92271e-02,9.99321e-01
7.350544745e-01,2.95245e-02,9.99999e-01,9.99999e-01,9.42311e-01,3.13394e-02,9.99763e-01
7.387297469e-01,3.21160e-02,9.99999e-01,9.99999e-01,9.57133e-01,3.35580e-02,9.99891e-01
7.424233956e-01,3.51225e-02,9.99999e-01,9.99999e-01,9.78765e-01,3.58852e-02,9.99978e-01
7.461355126e-01,3.78278e-02,9.99999e-01,9.99999e-01,9.87081e-01,3.83230e-02,9.99995e-01
7.498661902e-01,4.06264e-02,9.99999e-01,9.99999e-01,9.93960e-01,4.08733e-02,9.99998e-01
7.536155211e-01,4.34088e-02,9.99999e-01,9.99999e-01,9.97035e-01,4.35378e-02,9.99998e-01
7.573835987e-01,4.62476e-02,9.99999e-01,9.99999e-01,9.98473e-01,4.63183e-02,9.99999e-01
7.611705167e-01,4.91694e-02,9.99999e-01,9.99999e-01,9.99050e-01,4.92161e-02,9.99999e-01
7.649763693e-01,5.22015e-02,9.99999e-01,9.99999e-01,9.99405e-01,5.22326e-02,9.99999e-01
7.688012511e-01,5.53459e-02,9.99999e-01,9.99999e-01,9.99585e-01,5.53688e-02,9.99999e-01
7.726452574e-01,5.86059e-02,9.99999e-01,9.99999e-01,9.99659e-01,5.86258e-02,9.99999e-01
7.765084837e-01,6.19744e-02,9.99999e-01,9.99999e-01,9.99516e-01,6.20043e-02,9.99998e-01
7.803910261e-01,5.89719e-02,9.99999e-01,9.01978e-01,9.97915e-01,6.55051e-02,9.99997e-01
7.842929812e-01,4.04972e-02,9.99999e-01,5.89522e-01,9.92743e-01,6.91284e-02,9.99986e-01
7.882144461e-01,4.12880e-02,9.99999e-01,5.74213e-01,9.85063e-01,7.28746e-02,9.99907e-01
7.921555184e-01,5.39002e-02,9.99999e-01,7.07845e-01,9.91773e-01,7.67437e-02,9.99821e-01
7.961162960e-01,6.29151e-02,9.99999e-01,7.90452e-01,9.85554e-01,8.07358e-02,9.99829e-01
8.000968774e-01,7.34320e-02,9.99999e-01,8.80143e-01,9.83287e-01,8.48505e-02,9.99818e-01
8.040973618e-01,8.19716e-02,9.99999e-01,9.35779e-01,9.83295e-01,8.90873e-02,9.99855e-01
8.081178486e-01,8.72829e-02,9.99999e-01,9.69987e-01,9.62890e-01,9.34458e-02,9.99864e-01
8.121584379e-01,8.29252e-02,9.99999e-01,9.90612e-01,8.55012e-01,9.79250e-02,9.99469e-01
8.162192301e-01,8.47828e-02,9.99999e-01,9.97918e-01,8.30220e-01,1.02524e-01,9.98005e-01
8.203003262e-01,9.77363e-02,9.99999e-01,9.99967e-01,9.13514e-01,1.07242e-01,9.97665e-01
8.244018279e-01,9.86209e-02,9.99999e-01,9.99999e-01,8.81575e-01,1.12077e-01,9.98141e-01
8.285238370e-01,1.04537e-01,9.99999e-01,9.99999e-01,8.94565e-01,1.17029e-01,9.98540e-01
8.326664562e-01,1.09031e-01,9.99999e-01,9.99999e-01,8.93544e-01,1.22094e-01,9.99395e-01
8.368297885e-01,1.17368e-01,9.99999e-01,9.99999e-01,9.22302e-01,1.27273e-01,9.99861e-01
8.410139374e-01,1.26324e-01,9.99999e-01,9.99999e-01,9.53016e-01,1.32562e-01,9.99918e-01
8.452190071e-01,1.34733e-01,9.99999e-01,9.99999e-01,9.76652e-01,1.37960e-01,9.99951e-01
8.494451021e-01,1.41508e-01,9.99999e-01,9.99999e-01,9.86397e-01,1.43465e-01,9.99960e-01
8.536923276e-01,1.47867e-01,9.99999e-01,9.99999e-01,9.91927e-01,1.49074e-01,9.99976e-01
8.579607893e-01,1.54014e-01,9.99999e-01,9.99999e-01,9.95025e-01,1.54785e-01,9.99993e-01
8.622505932e-01,1.60087e-01,9.99999e-01,9.99999e-01,9.96835e-01,1.60596e-01,9.99998e-01
8.665618462e-01,1.42934e-01,9.99999e-01,8.60010e-01,9.98043e-01,1.66503e-01,9.99998e-01
8.708946554e-01,4.75046e-02,9.99999e-01,2.75939e-01,9.97761e-01,1.72505e-01,9.99998e-01
8.752491287e-01,6.02238e-02,9.99999e-01,3.38137e-01,9.97005e-01,1.78598e-01,9.99996e-01
8.796253743e-01,9.97090e-02,9.99999e-01,5.41651e-01,9.95859e-01,1.84779e-01,9.99990e-01
8.840235012e-01,1.37367e-01,9.99999e-01,7.22283e-01,9.95270e-01,1.91047e-01,9.99970e-01
8.884436187e-01,1.70560e-01,9.99999e-01,8.78537e-01,9.83005e-01,1.97396e-01,9.99917e-01
8.928858368e-01,1.61838e-01,9.99999e-01,9.48759e-01,8.35893e-01,2.03825e-01,9.99526e-01
8.973502660e-01,1.51110e-01,9.99999e-01,9.87279e-01,7.28803e-01,2.10330e-01,9.97574e-01
9.018370173e-01,1.83576e-01,9.99999e-01,9.98589e-01,8.50640e-01,2.16908e-01,9.96189e-01
9.063462024e-01,1.87310e-01,9.99999e-01,9.65537e-01,8.67326e-01,2.23556e-01,9.96652e-01
9.108779334e-01,1.69762e-01,9.99999e-01,9.20577e-01,8.00863e-01,2.30270e-01,9.96521e-01
9.154323231e-01,1.80170e-01,9.99999e-01,9.80698e-01,7.76136e-01,2.37047e-01,9.97123e-01
9.200094847e-01,1.62262e-01,9.99999e-01,7.88977e-01,8.20473e-01,2.43884e-01,9.98389e-01
9.246095321e-01,1.26896e-01,9.99999e-01,6.69176e-01,7.43479e-01,2.50777e-01,9.98144e-01
9.292325798e-01,3.21604e-02,9.99999e-01,7.35640e-01,1.59105e-01,2.57723e-01,9.92782e-01
9.338787427e-01,1.84561e-02,9.99999e-01,7.39380e-01,9.09077e-02,2.64718e-01,9.70500e-01
9.385481364e-01,8.15094e-02,9.99999e-01,7.99183e-01,3.76002e-01,2.71760e-01,9.65013e-01
9.432408771e-01,6.55100e-02,9.99999e-01,8.70807e-01,2.72878e-01,2.78844e-01,9.69743e-01
9.479570815e-01,4.29849e-02,9.99999e-01,9.31447e-01,1.63868e-01,2.85968e-01,9.75304e-01
9.526968669e-01,6.88231e-02,9.99999e-01,9.66361e-01,2.44969e-01,2.93127e-01,9.84863e-01
9.574603512e-01,7.67732e-02,9.99999e-01,9.85454e-01,2.60686e-01,3.00319e-01,9.92282e-01
9.622476530e-01,9.97448e-02,9.99999e-01,9.95437e-01,3.27288e-01,3.07541e-01,9.94656e-01
9.670588912e-01,1.63380e-01,9.99999e-01,9.98630e-01,5.21516e-01,3.14788e-01,9.96342e-01
9.718941857e-01,2.11107e-01,9.99999e-01,9.99902e-01,6.57314e-01,3.22057e-01,9.97306e-01
9.767536566e-01,2.31848e-01,9.99999e-01,9.99999e-01,7.05416e-01,3.29346e-01,9.97940e-01
9.816374249e-01,2.59298e-01,9.99999e-01,9.99999e-01,7.70777e-01,3.36651e-01,9.99286e-01
9.865456120e-01,2.92108e-01,9.99999e-01,9.99999e-01,8.49352e-01,3.43969e-01,9.99851e-01
9.914783401e-01,3.17480e-01,9.99999e-01,9.99999e-01,9.03772e-01,3.51297e-01,9.99958e-01
9.964357318e-01,3.39392e-01,9.99999e-01,9.99999e-01,9.46374e-01,3.58631e-01,9.99975e-01
1.001417910e+00,3.54057e-01,9.99999e-01,9.99999e-01,9.67484e-01,3.65970e-01,9.99962e-01
1.006425000e+00,3.66323e-01,9.99999e-01,9.99999e-01,9.81338e-01,3.73309e-01,9.99947e-01
1.011457125e+00,3.76201e-01,9.99999e-01,9.99999e-01,9.88370e-01,3.80646e-01,9.99950e-01
1.016514411e+00,3.84897e-01,9.99999e-01,9.99999e-01,9.92092e-01,3.87978e-01,9.99965e-01
1.021596983e+00,3.92725e-01,9.99999e-01,9.99815e-01,9.93695e-01,3.95302e-01,9.99965e-01
1.026704968e+00,3.95110e-01,9.99999e-01,9.86209e-01,9.95080e-01,4.02615e-01,9.99976e-01
1.031838492e+00,3.65628e-01,9.99999e-01,8.94979e-01,9.96420e-01,4.09916e-01,9.99993e-01
1.036997685e+00,1.73490e-02,9.99999e-01,4.16510e-02,9.97874e-01,4.17201e-01,9.99998e-01
1.042182673e+00,6.48865e-04,9.99999e-01,1.53154e-03,9.97468e-01,4.24467e-01,9.99999e-01
1.047393587e+00,1.85876e-03,9.99999e-01,4.31745e-03,9.96642e-01,4.31713e-01,9.99998e-01
1.052630555e+00,5.41984e-08,9.99999e-01,1.23832e-07,9.95396e-01,4.38936e-01,9.99998e-01
1.057893707e+00,2.02817e-07,9.99999e-01,4.56349e-07,9.92329e-01,4.46133e-01,9.99996e-01
1.063183176e+00,9.90344e-06,9.99999e-01,2.20018e-05,9.87406e-01,4.53303e-01,9.99992e-01
1.068499092e+00,1.29614e-04,9.99999e-01,2.85245e-04,9.78995e-01,4.60443e-01,9.99985e-01
1.073841587e+00,2.30501e-03,9.99999e-01,5.01542e-03,9.75504e-01,4.67551e-01,9.99968e-01
1.079210795e+00,1.68915e-02,9.99999e-01,3.64636e-02,9.68661e-01,4.74625e-01,9.99914e-01
1.084606849e+00,6.94299e-02,9.99999e-01,1.50271e-01,9.53012e-01,4.81663e-01,9.99795e-01
1.090029883e+00,1.69666e-01,9.99999e-01,3.69743e-01,9.33452e-01,4.88663e-01,9.99576e-01
1.095480033e+00,2.52565e-01,9.99999e-01,6.10773e-01,8.29004e-01,4.95624e-01,9.99234e-01
1.100957433e+00,2.48996e-01,9.99999e-01,7.87269e-01,6.24701e-01,5.02544e-01,9.98592e-01
1.106462220e+00,1.48079e-01,9.99999e-01,9.05590e-01,3.18291e-01,5.09421e-01,9.97613e-01
1.111994531e+00,4.77656e-02,9.99999e-01,9.63850e-01,9.59025e-02,5.16253e-01,9.93678e-01
1.117554504e+00,1.32064e-02,9.99999e-01,9.91041e-01,2.59633e-02,5.23039e-01,9.77366e-01
1.123142276e+00,4.15516e-02,9.99999e-01,9.99408e-01,8.28131e-02,5.29778e-01,9.47156e-01
1.128757988e+00,8.76828e-02,9.99999e-01,9.99999e-01,1.74039e-01,5.36468e-01,9.39126e-01
1.134401778e+00,3.95076e-02,9.99999e-01,9.99999e-01,7.67338e-02,5.43108e-01,9.47996e-01
1.140073787e+00,1.76124e-01,9.99999e-01,9.99999e-01,3.34370e-01,5.49696e-01,9.58228e-01
1.145774156e+00,6.41986e-02,9.99999e-01,9.99999e-01,1.20014e-01,5.56232e-01,9.61695e-01
1.151503026e+00,5.28160e-02,9.99999e-01,9.99999e-01,9.59240e-02,5.62714e-01,9.78476e-01
1.157260541e+00,6.83172e-02,9.99999e-01,9.99999e-01,1.20819e-01,5.69141e-01,9.93515e-01
1.163046844e+00,1.18390e-01,9.99999e-01,9.99999e-01,2.06091e-01,5.75513e-01,9.98157e-01
1.168862078e+00,1.86974e-01,9.99999e-01,9.99999e-01,3.21661e-01,5.81828e-01,9.99050e-01
1.174706389e+00,2.90885e-01,9.99999e-01,9.99999e-01,4.95254e-01,5.88085e-01,9.98741e-01
1.180579921e+00,3.85483e-01,9.99999e-01,9.99999e-01,6.49886e-01,5.94285e-01,9.98097e-01
1.186482820e+00,4.68783e-01,9.99999e-01,9.99976e-01,7.82292e-01,6.00425e-01,9.98047e-01
1.192415234e+00,5.01205e-01,9.99999e-01,9.53672e-01,8.66132e-01,6.06505e-01,9.98537e-01
1.198377311e+00,2.80083e-01,9.99999e-01,5.06356e-01,8.86035e-01,6.12525e-01,9.98618e-01
1.204369197e+00,6.35729e-36,9.99999e-01,1.09968e-35,8.92157e-01,6.18485e-01,9.98749e-01
1.210391043e+00,7.91022e-147,9.99999e-01,1.34749e-146,8.96388e-01,6.24383e-01,9.99239e-01
1.216442998e+00,5.41432e-127,9.99999e-01,9.10599e-127,9.11101e-01,6.30218e-01,9.99533e-01
1.222525213e+00,4.51031e-125,9.99999e-01,7.36416e-125,9.29968e-01,6.35992e-01,9.99710e-01
1.228637839e+00,2.17571e-96,9.99999e-01,3.50786e-96,9.50821e-01,6.41703e-01,9.99864e-01
