#,Wave/freq,Total,N2,CO2,H2O,Rayleigh,CIA
4.000000000e-01,1.99786e-22,9.99999e-01,9.99999e-01,9.99903e-01,1.99806e-22,9.99999e-01
4.020000000e-01,5.36586e-22,9.99999e-01,9.99999e-01,9.99939e-01,5.36618e-22,9.99999e-01
4.040100000e-01,1.41187e-21,9.99999e-01,9.99999e-01,9.99974e-01,1.41191e-21,9.99999e-01
4.060300500e-01,3.64458e-21,9.99999e-01,9.99999e-01,9.99993e-01,3.64460e-21,9.99999e-01
4.080602003e-01,9.23330e-21,9.99999e-01,9.99999e-01,9.99997e-01,9.23332e-21,9.99999e-01
4.101005013e-01,2.29663e-20,9.99999e-01,9.99999e-01,9.99999e-01,2.29663e-20,9.99999e-01
4.121510038e-01,5.61057e-20,9.99999e-01,9.99999e-01,9.99995e-01,5.61059e-20,9.99999e-01
4.142117588e-01,1.34664e-19,9.99999e-01,9.99999e-01,9.99973e-01,1.34668e-19,9.99999e-01
4.162828176e-01,3.17655e-19,9.99999e-01,9.99999e-01,9.99880e-01,3.17693e-19,9.99999e-01
4.183642317e-01,7.36814e-19,9.99999e-01,9.99999e-01,9.99928e-01,7.36866e-19,9.99999e-01
4.204560528e-01,1.68087e-18,9.99999e-01,9.99999e-01,9.99956e-01,1.68094e-18,9.99999e-01
4.225583331e-01,3.77255e-18,9.99999e-01,9.99999e-01,9.99983e-01,3.77261e-18,9.99999e-01
4.246711247e-01,8.33280e-18,9.99999e-01,9.99999e-01,9.99986e-01,8.33291e-18,9.99999e-01
4.267944804e-01,1.81194e-17,9.99999e-01,9.99999e-01,9.99980e-01,1.81198e-17,9.99999e-01
4.289284528e-01,3.88007e-17,9.99999e-01,9.99999e-01,9.99984e-01,3.88013e-17,9.99999e-01
4.310730950e-01,8.18473e-17,9.99999e-01,9.99999e-01,9.99993e-01,8.18478e-17,9.99999e-01
4.332284605e-01,1.70123e-16,9.99999e-01,9.99999e-01,9.99997e-01,1.70124e-16,9.99999e-01
4.353946028e-01,3.48535e-16,9.99999e-01,9.99999e-01,9.99998e-01,3.48535e-16,9.99999e-01
4.375715758e-01,7.03996e-16,9.99999e-01,9.99999e-01,9.99987e-01,7.04004e-16,9.99999e-01
4.397594337e-01,1.40226e-15,9.99999e-01,9.99999e-01,9.99895e-01,1.40240e-15,9.99999e-01
4.419582309e-01,2.75441e-15,9.99999e-01,9.99999e-01,9.99468e-01,2.75587e-15,9.99999e-01
4.441680220e-01,5.34159e-15,9.99999e-01,9.99999e-01,9.99585e-01,5.34380e-15,9.99999e-01
4.463888621e-01,1.02229e-14,9.99999e-01,9.99999e-01,9.99568e-01,1.02273e-14,9.99999e-01
4.486208064e-01,1.93191e-14,9.99999e-01,9.99999e-01,9.99731e-01,1.93242e-14,9.99999e-01
4.508639105e-01,3.60522e-14,9.99999e-01,9.99999e-01,9.99874e-01,3.60567e-14,9.99999e-01
4.531182300e-01,6.64504e-14,9.99999e-01,9.99999e-01,9.99950e-01,6.64536e-14,9.99999e-01
4.553838212e-01,1.21002e-13,9.99999e-01,9.99999e-01,9.99965e-01,1.21006e-13,9.99999e-01
4.576607403e-01,2.17744e-13,9.99999e-01,9.99999e-01,9.99984e-01,2.17748e-13,9.99999e-01
4.599490440e-01,3.87307e-13,9.99999e-01,9.99999e-01,9.99988e-01,3.87311e-13,9.99999e-01
4.622487892e-01,6.81123e-13,9.99999e-01,9.99999e-01,9.99997e-01,6.81125e-13,9.99999e-01
4.645600332e-01,1.18453e-12,9.99999e-01,9.99999e-01,9.99991e-01,1.18454e-12,9.99999e-01
4.668828333e-01,2.03738e-12,9.99999e-01,9.99999e-01,9.99872e-01,2.03764e-12,9.99999e-01
4.692172475e-01,3.46684e-12,9.99999e-01,9.99999e-01,9.99729e-01,3.46778e-12,9.99999e-01
4.715633337e-01,5.83898e-12,9.99999e-01,9.99999e-01,9.99822e-01,5.84001e-12,9.99999e-01
4.739211504e-01,9.73265e-12,9.99999e-01,9.99999e-01,9.99830e-01,9.73430e-12,9.99999e-01
4.762907561e-01,1.60611e-11,9.99999e-01,9.99999e-01,9.99911e-01,1.60625e-11,9.99999e-01
4.786722099e-01,2.62428e-11,9.99999e-01,9.99999e-01,9.99963e-01,2.62437e-11,9.99999e-01
4.810655710e-01,4.24640e-11,9.99999e-01,9.99999e-01,9.99988e-01,4.24644e-11,9.99999e-01
4.834708988e-01,6.80538e-11,9.99999e-01,9.99999e-01,9.99895e-01,6.80609e-11,9.99999e-01
4.858882533e-01,1.08054e-10,9.99999e-01,9.99999e-01,9.99808e-01,1.08074e-10,9.99999e-01
4.883176946e-01,1.70025e-10,9.99999e-01,9.99999e-01,9.99839e-01,1.70052e-10,9.99999e-01
4.907592831e-01,2.65148e-10,9.99999e-01,9.99999e-01,9.99854e-01,2.65187e-10,9.99999e-01
4.932130795e-01,4.09889e-10,9.99999e-01,9.99999e-01,9.99896e-01,4.09931e-10,9.99999e-01
4.956791449e-01,6.28216e-10,9.99999e-01,9.99999e-01,9.99945e-01,6.28250e-10,9.99999e-01
4.981575406e-01,9.54496e-10,9.99999e-01,9.99999e-01,9.99727e-01,9.54756e-10,9.99999e-01
5.006483283e-01,1.43798e-09,9.99999e-01,9.99999e-01,9.99294e-01,1.43900e-09,9.99994e-01
5.031515699e-01,2.14360e-09,9.99999e-01,9.99999e-01,9.96432e-01,2.15135e-09,9.99962e-01
5.056673278e-01,3.18475e-09,9.99999e-01,9.99999e-01,9.98115e-01,3.19089e-09,9.99956e-01
5.081956644e-01,4.68474e-09,9.99999e-01,9.99999e-01,9.97622e-01,4.69603e-09,9.99971e-01
5.107366428e-01,6.84755e-09,9.99999e-01,9.99999e-01,9.98394e-01,6.85860e-09,9.99994e-01
5.132903260e-01,9.93324e-09,9.99999e-01,9.99999e-01,9.99082e-01,9.94237e-09,9.99998e-01
5.158567776e-01,1.43018e-08,9.99999e-01,9.99999e-01,9.99612e-01,1.43073e-08,9.99999e-01
5.184360615e-01,2.04380e-08,9.99999e-01,9.99999e-01,9.99844e-01,2.04412e-08,9.99999e-01
5.210282418e-01,2.89980e-08,9.99999e-01,9.99999e-01,9.99941e-01,2.89997e-08,9.99999e-01
5.236333830e-01,4.08486e-08,9.99999e-01,9.99999e-01,9.99766e-01,4.08582e-08,9.99997e-01
5.262515499e-01,5.71690e-08,9.99999e-01,9.99999e-01,9.99853e-01,5.71775e-08,9.99997e-01
5.288828077e-01,7.94747e-08,9.99999e-01,9.99999e-01,9.99865e-01,7.94854e-08,9.99998e-01
5.315272217e-01,1.09767e-07,9.99999e-01,9.99999e-01,9.99882e-01,1.09780e-07,9.99999e-01
5.341848578e-01,1.50646e-07,9.99999e-01,9.99999e-01,9.99922e-01,1.50658e-07,9.99999e-01
5.368557821e-01,2.05412e-07,9.99999e-01,9.99999e-01,9.99728e-01,2.05467e-07,9.99998e-01
5.395400610e-01,2.78230e-07,9.99999e-01,9.99999e-01,9.99021e-01,2.78505e-07,9.99991e-01
5.422377613e-01,3.74761e-07,9.99999e-01,9.99999e-01,9.98735e-01,3.75244e-07,9.99976e-01
5.449489501e-01,5.02014e-07,9.99999e-01,9.99999e-01,9.98823e-01,5.02617e-07,9.99975e-01
5.476736949e-01,6.68645e-07,9.99999e-01,9.99999e-01,9.98958e-01,6.69350e-07,9.99987e-01
5.504120634e-01,8.85690e-07,9.99999e-01,9.99999e-01,9.99243e-01,8.86363e-07,9.99996e-01
5.531641237e-01,1.16680e-06,9.99999e-01,9.99999e-01,9.99619e-01,1.16724e-06,9.99999e-01
5.559299443e-01,1.52852e-06,9.99999e-01,9.99999e-01,9.99816e-01,1.52880e-06,9.99999e-01
5.587095940e-01,1.99147e-06,9.99999e-01,9.99999e-01,9.99884e-01,1.99170e-06,9.99999e-01
5.615031420e-01,2.58090e-06,9.99999e-01,9.99999e-01,9.99871e-01,2.58123e-06,9.99999e-01
5.643106577e-01,3.32770e-06,9.99999e-01,9.99999e-01,9.99854e-01,3.32819e-06,9.99998e-01
5.671322110e-01,4.26219e-06,9.99999e-01,9.99999e-01,9.98233e-01,4.26980e-06,9.99983e-01
5.699678720e-01,5.44044e-06,9.99999e-01,9.99999e-01,9.98122e-01,5.45093e-06,9.99951e-01
5.728177114e-01,6.91147e-06,9.99999e-01,9.99999e-01,9.98043e-01,6.92529e-06,9.99959e-01
5.756818000e-01,8.74101e-06,9.99999e-01,9.99999e-01,9.98204e-01,8.75694e-06,9.99975e-01
5.785602090e-01,1.10045e-05,9.99999e-01,9.99999e-01,9.98435e-01,1.10218e-05,9.99992e-01
5.814530100e-01,1.37879e-05,9.99999e-01,9.99999e-01,9.98428e-01,1.38096e-05,9.99996e-01
5.843602750e-01,1.71932e-05,9.99999e-01,9.99999e-01,9.98126e-01,1.72256e-05,9.99989e-01
5.872820764e-01,2.10482e-05,9.99999e-01,9.99999e-01,9.83993e-01,2.13930e-05,9.99886e-01
5.902184868e-01,2.59340e-05,9.99999e-01,9.99999e-01,9.80600e-01,2.64552e-05,9.99690e-01
5.931695792e-01,3.21216e-05,9.99999e-01,9.99999e-01,9.86276e-01,3.25782e-05,9.99702e-01
5.961354271e-01,3.93459e-05,9.99999e-01,9.99999e-01,9.84952e-01,3.99538e-05,9.99828e-01
5.991161043e-01,4.82627e-05,9.99999e-01,9.99999e-01,9.88999e-01,4.88021e-05,9.99946e-01
6.021116848e-01,5.90031e-05,9.99999e-01,9.99999e-01,9.93744e-01,5.93748e-05,9.99993e-01
6.051222432e-01,7.17308e-05,9.99999e-01,9.99999e-01,9.96830e-01,7.19588e-05,9.99999e-01
6.081478544e-01,8.67606e-05,9.99999e-01,9.99999e-01,9.98631e-01,8.68794e-05,9.99999e-01
6.111885937e-01,1.04444e-04,9.99999e-01,9.99999e-01,9.99420e-01,1.04504e-04,9.99999e-01
6.142445367e-01,1.25214e-04,9.99999e-01,9.99999e-01,9.99741e-01,1.25246e-04,9.99999e-01
6.173157594e-01,1.49549e-04,9.99999e-01,9.99999e-01,9.99857e-01,1.49570e-04,9.99999e-01
6.204023382e-01,1.77971e-04,9.99999e-01,9.99999e-01,9.99878e-01,1.77992e-04,9.99999e-01
6.235043498e-01,2.10976e-04,9.99999e-01,9.99999e-01,9.99467e-01,2.11088e-04,9.99998e-01
6.266218716e-01,2.48790e-04,9.99999e-01,9.99999e-01,9.97187e-01,2.49497e-04,9.99979e-01
6.297549810e-01,2.93607e-04,9.99999e-01,9.99999e-01,9.98967e-01,2.93922e-04,9.99960e-01
6.329037559e-01,3.44424e-04,9.99999e-01,9.99999e-01,9.97960e-01,3.45138e-04,9.99967e-01
6.360682746e-01,4.03286e-04,9.99999e-01,9.99999e-01,9.98262e-01,4.03996e-04,9.99980e-01
6.392486160e-01,4.70356e-04,9.99999e-01,9.99999e-01,9.97749e-01,4.71421e-04,9.99991e-01
6.424448591e-01,5.46767e-04,9.99999e-01,9.99999e-01,9.96988e-01,5.48425e-04,9.99986e-01
6.456570834e-01,6.27213e-04,9.99999e-01,9.99999e-01,9.86098e-01,6.36104e-04,9.99922e-01
6.488853688e-01,7.27989e-04,9.99999e-01,9.99999e-01,9.89811e-01,7.35641e-04,9.99782e-01
6.521297956e-01,8.39361e-04,9.99999e-01,9.99999e-01,9.89620e-01,8.48315e-04,9.99820e-01
6.553904446e-01,9.65274e-04,9.99999e-01,9.99999e-01,9.89651e-01,9.75497e-04,9.99866e-01
6.586673968e-01,1.10869e-03,9.99999e-01,9.99999e-01,9.91136e-01,1.11865e-03,9.99955e-01
6.619607338e-01,1.27301e-03,9.99999e-01,9.99999e-01,9.95049e-01,1.27936e-03,9.99989e-01
6.652705375e-01,1.45492e-03,9.99999e-01,9.99999e-01,9.97025e-01,1.45927e-03,9.99994e-01
6.685968902e-01,1.65787e-03,9.99999e-01,9.99999e-01,9.98617e-01,1.66016e-03,9.99998e-01
6.719398746e-01,1.88270e-03,9.99999e-01,9.99999e-01,9.99359e-01,1.88391e-03,9.99999e-01
6.752995740e-01,2.13174e-03,9.99999e-01,9.99999e-01,9.99652e-01,2.13248e-03,9.99999e-01
6.786760719e-01,2.40673e-03,9.99999e-01,9.99999e-01,9.99498e-01,2.40794e-03,9.99998e-01
6.820694522e-01,2.71013e-03,9.99999e-01,9.99999e-01,9.99141e-01,2.71247e-03,9.99995e-01
6.854797995e-01,3.04493e-03,9.99999e-01,9.99999e-01,9.98892e-01,3.04833e-03,9.99989e-01
6.889071985e-01,3.40865e-03,9.99999e-01,9.99999e-01,9.97321e-01,3.41789e-03,9.99975e-01
6.923517345e-01,3.65926e-03,9.99999e-01,9.99999e-01,9.57218e-01,3.82360e-03,9.99789e-01
6.958134932e-01,4.17030e-03,9.99999e-01,9.99999e-01,9.77561e-01,4.26800e-03,9.99535e-01
6.992925606e-01,4.65004e-03,9.99999e-01,9.99999e-01,9.78599e-01,4.75372e-03,9.99581e-01
7.027890234e-01,5.14256e-03,9.99999e-01,9.99999e-01,9.73643e-01,5.28345e-03,9.99680e-01
7.063029686e-01,5.72883e-03,9.99999e-01,9.99999e-01,9.77775e-01,5.85997e-03,9.99840e-01
7.098344834e-01,6.34712e-03,9.99999e-01,9.99999e-01,9.78660e-01,6.48612e-03,9.99905e-01
7.133836558e-01,6.96095e-03,9.99999e-01,9.99999e-01,9.71730e-01,7.16480e-03,9.99812e-01
7.169505741e-01,6.29037e-03,9.99999e-01,9.99999e-01,7.97527e-01,7.89894e-03,9.98529e-01
7.205353270e-01,7.75502e-03,9.99999e-01,9.99999e-01,8.94566e-01,8.69155e-03,9.97407e-01
7.241380036e-01,8.26342e-03,9.99999e-01,9.99999e-01,8.67615e-01,9.54564e-03,9.97761e-01
7.277586936e-01,9.18949e-03,9.99999e-01,9.99999e-01,8.79787e-01,1.04643e-02,9.98169e-01
7.313974871e-01,9.97710e-03,9.99999e-01,9.99999e-01,8.72071e-01,1.14505e-02,9.99142e-01
7.350544745e-01,1.16003e-02,9.99999e-01,9.99999e-01,9.27751e-01,1.25074e-02,9.99701e-01
7.387297469e-01,1.29023e-02,9.99999e-01,9.99999e-01,9.46176e-01,1.36381e-02,9.99862e-01
7.424233956e-01,1.44483e-02,9.99999e-01,9.99999e-01,9.73265e-01,1.48456e-02,9.99973e-01
7.461355126e-01,1.58700e-02,9.99999e-01,9.99999e-01,9.83708e-01,1.61329e-02,9.99994e-01
7.498661902e-01,1.73697e-02,9.99999e-01,9.99999e-01,9.92382e-01,1.75031e-02,9.99997e-01
7.536155211e-01,1.88881e-02,9.99999e-01,9.99999e-01,9.96256e-01,1.89591e-02,9.99998e-01
7.573835987e-01,2.04643e-02,9.99999e-01,9.99999e-01,9.98071e-01,2.05038e-02,9.99999e-01
7.611705167e-01,2.21136e-02,9.99999e-01,9.99999e-01,9.98801e-01,2.21401e-02,9.99999e-01
7.649763693e-01,2.38528e-02,9.99999e-01,9.99999e-01,9.99248e-01,2.38708e-02,9.99999e-01
7.688012511e-01,2.56851e-02,9.99999e-01,9.99999e-01,9.99476e-01,2.56985e-02,9.99999e-01
7.726452574e-01,2.76140e-02,9.99999e-01,9.99999e-01,9.99569e-01,2.76259e-02,9.99999e-01
7.765084837e-01,2.96372e-02,9.99999e-01,9.99999e-01,9.99387e-01,2.96554e-02,9.99998e-01
7.803910261e-01,2.80038e-02,9.99999e-01,8.83005e-01,9.97357e-01,3.17895e-02,9.99996e-01
7.842929812e-01,1.75497e-02,9.99999e-01,5.19727e-01,9.90805e-01,3.40304e-02,9.99982e-01
7.882144461e-01,1.80463e-02,9.99999e-01,5.04348e-01,9.81143e-01,3.63803e-02,9.99883e-01
7.921555184e-01,2.49191e-02,9.99999e-01,6.47810e-01,9.89623e-01,3.88412e-02,9.99774e-01
7.961162960e-01,3.02497e-02,9.99999e-01,7.43607e-01,9.81732e-01,4.14150e-02,9.99784e-01
8.000968774e-01,3.67540e-02,9.99999e-01,8.51281e-01,9.78901e-01,4.41034e-02,9.99770e-01
8.040973618e-01,4.22333e-02,9.99999e-01,9.19734e-01,9.78904e-01,4.69081e-02,9.99817e-01
8.081178486e-01,4.57124e-02,9.99999e-01,9.62244e-01,9.53221e-01,4.98303e-02,9.99828e-01
8.121584379e-01,4.28677e-02,9.99999e-01,9.88190e-01,8.20595e-01,5.28715e-02,9.99328e-01
8.162192301e-01,4.41289e-02,9.99999e-01,9.97379e-01,7.91453e-01,5.60326e-02,9.97477e-01
8.203003262e-01,5.27882e-02,9.99999e-01,9.99960e-01,8.92624e-01,5.93147e-02,9.97047e-01
8.244018279e-01,5.35061e-02,9.99999e-01,9.99999e-01,8.55125e-01,6.27184e-02,9.97649e-01
8.285238370e-01,5.74466e-02,9.99999e-01,9.99999e-01,8.68794e-01,6.62445e-02,9.98153e-01
8.326664562e-01,6.06062e-02,9.99999e-01,9.99999e-01,8.67788e-01,6.98932e-02,9.99235e-01
8.368297885e-01,6.65058e-02,9.99999e-01,9.99999e-01,9.02972e-01,7.36648e-02,9.99825e-01
8.410139374e-01,7.29802e-02,9.99999e-01,9.99999e-01,9.41054e-01,7.75594e-02,9.99897e-01
8.452190071e-01,7.91746e-02,9.99999e-01,9.99999e-01,9.70610e-01,8.15769e-02,9.99938e-01
8.494451021e-01,8.42411e-02,9.99999e-01,9.99999e-01,9.82830e-01,8.57169e-02,9.99950e-01
8.536923276e-01,8.90598e-02,9.99999e-01,9.99999e-01,9.89813e-01,8.99789e-02,9.99969e-01
8.579607893e-01,9.37687e-02,9.99999e-01,9.99999e-01,9.93714e-01,9.43624e-02,9.99992e-01
8.622505932e-01,9.84713e-02,9.99999e-01,9.99999e-01,9.96003e-01,9.88666e-02,9.99998e-01
8.665618462e-01,8.72399e-02,9.99999e-01,8.44911e-01,9.97526e-01,1.03490e-01,9.99998e-01
8.708946554e-01,2.22243e-02,9.99999e-01,2.05854e-01,9.97167e-01,1.08233e-01,9.99997e-01
8.752491287e-01,2.92529e-02,9.99999e-01,2.59559e-01,9.96212e-01,1.13092e-01,9.99995e-01
8.796253743e-01,5.46833e-02,9.99999e-01,4.65330e-01,9.94757e-01,1.18067e-01,9.99987e-01
8.840235012e-01,8.13754e-02,9.99999e-01,6.64490e-01,9.94014e-01,1.23156e-01,9.99963e-01
8.884436187e-01,1.06791e-01,9.99999e-01,8.49578e-01,9.78457e-01,1.28358e-01,9.99895e-01
8.928858368e-01,1.00001e-01,9.99999e-01,9.35797e-01,7.97807e-01,1.33670e-01,9.99400e-01
8.973502660e-01,9.18929e-02,9.99999e-01,9.84008e-01,6.72516e-01,1.39090e-01,9.96932e-01
9.018370173e-01,1.17368e-01,9.99999e-01,9.98224e-01,8.16770e-01,1.44617e-01,9.95181e-01
9.063462024e-01,1.20372e-01,9.99999e-01,9.56740e-01,8.35878e-01,1.50247e-01,9.95766e-01
9.108779334e-01,1.06397e-01,9.99999e-01,9.00902e-01,7.56465e-01,1.55979e-01,9.95601e-01
9.154323231e-01,1.14629e-01,9.99999e-01,9.75783e-01,7.27027e-01,1.61810e-01,9.96362e-01
9.200094847e-01,1.02458e-01,9.99999e-01,7.52424e-01,7.80059e-01,1.67737e-01,9.97962e-01
9.246095321e-01,7.41890e-02,9.99999e-01,6.03212e-01,6.90452e-01,1.73758e-01,9.97652e-01
9.292325798e-01,1.45618e-02,9.99999e-01,6.80508e-01,1.08787e-01,1.79869e-01,9.90877e-01
9.338787427e-01,7.19703e-03,9.99999e-01,6.84425e-01,5.36070e-02,1.86069e-01,9.62825e-01
9.385481364e-01,4.40392e-02,9.99999e-01,7.54005e-01,3.02741e-01,1.92353e-01,9.55943e-01
9.432408771e-01,3.40000e-02,9.99999e-01,8.39870e-01,2.05914e-01,1.98719e-01,9.61874e-01
9.479570815e-01,1.99557e-02,9.99999e-01,9.14201e-01,1.08252e-01,2.05164e-01,9.68859e-01
9.526968669e-01,3.54600e-02,9.99999e-01,9.57740e-01,1.76551e-01,2.11685e-01,9.80888e-01
9.574603512e-01,4.04601e-02,9.99999e-01,9.81674e-01,1.89880e-01,2.18277e-01,9.90246e-01
9.622476530e-01,5.57061e-02,9.99999e-01,9.94245e-01,2.50456e-01,2.24939e-01,9.93245e-01
9.670588912e-01,1.02438e-01,9.99999e-01,9.98272e-01,4.44846e-01,2.31667e-01,9.95375e-01
9.718941857e-01,1.40196e-01,9.99999e-01,9.99877e-01,5.89991e-01,2.38456e-01,9.96593e-01
9.767536566e-01,1.57713e-01,9.99999e-01,9.99999e-01,6.44605e-01,2.45305e-01,9.97395e-01
9.816374249e-01,1.81506e-01,9.99999e-01,9.99999e-01,7.20311e-01,2.52209e-01,9.99097e-01
9.865456120e-01,2.10878e-01,9.99999e-01,9.99999e-01,8.13832e-01,2.59166e-01,9.99811e-01
9.914783401e-01,2.34226e-01,9.99999e-01,9.99999e-01,8.80026e-01,2.66171e-01,9.99947e-01
9.964357318e-01,2.54838e-01,9.99999e-01,9.99999e-01,9.32743e-01,2.73222e-01,9.99969e-01
1.001417910e+00,2.68836e-01,9.99999e-01,9.99999e-01,9.59093e-01,2.80315e-01,9.99953e-01
1.006425000e+00,2.80661e-01,9.99999e-01,9.99999e-01,9.76460e-01,2.87446e-01,9.99933e-01
1.011457125e+00,2.90272e-01,9.99999e-01,9.99999e-01,9.85328e-01,2.94613e-01,9.99938e-01
1.016514411e+00,2.98784e-01,9.99999e-01,9.99999e-01,9.90014e-01,3.01811e-01,9.99956e-01
1.021596983e+00,3.06490e-01,9.99999e-01,9.99758e-01,9.92035e-01,3.09038e-01,9.99955e-01
1.026704968e+00,3.08828e-01,9.99999e-01,9.82509e-01,9.93782e-01,3.16290e-01,9.99970e-01
1.031838492e+00,2.82388e-01,9.99999e-01,8.76450e-01,9.95478e-01,3.23563e-01,9.99991e-01
1.036997685e+00,1.00583e-02,9.99999e-01,3.04621e-02,9.97312e-01,3.30856e-01,9.99998e-01
1.042182673e+00,1.60289e-04,9.99999e-01,4.75098e-04,9.96795e-01,3.38164e-01,9.99998e-01
1.047393587e+00,4.72551e-04,9.99999e-01,1.37250e-03,9.95752e-01,3.45484e-01,9.99998e-01
1.052630555e+00,1.47725e-09,9.99999e-01,4.20212e-09,9.94175e-01,3.52814e-01,9.99997e-01
1.057893707e+00,5.51338e-09,9.99999e-01,1.53794e-08,9.90295e-01,3.60149e-01,9.99996e-01
1.063183176e+00,8.00445e-07,9.99999e-01,2.19685e-06,9.84085e-01,3.67488e-01,9.99991e-01
1.068499092e+00,1.55224e-05,9.99999e-01,4.20426e-05,9.73502e-01,3.74827e-01,9.99981e-01
1.073841587e+00,5.07556e-04,9.99999e-01,1.35571e-03,9.69108e-01,3.82163e-01,9.99959e-01
1.079210795e+00,6.21919e-03,9.99999e-01,1.64439e-02,9.60547e-01,3.89493e-01,9.99892e-01
1.084606849e+00,3.51222e-02,9.99999e-01,9.31416e-02,9.40965e-01,3.96816e-01,9.99741e-01
1.090029883e+00,1.07135e-01,9.99999e-01,2.86546e-01,9.16550e-01,4.04127e-01,9.99464e-01
1.095480033e+00,1.76377e-01,9.99999e-01,5.37814e-01,7.88975e-01,4.11424e-01,9.99032e-01
1.100957433e+00,1.73408e-01,9.99999e-01,7.39627e-01,5.53217e-01,4.18705e-01,9.98219e-01
1.106462220e+00,9.17972e-02,9.99999e-01,8.82407e-01,2.41014e-01,4.25968e-01,9.96982e-01
1.111994531e+00,2.28827e-02,9.99999e-01,9.54586e-01,5.51860e-02,4.33209e-01,9.92009e-01
1.117554504e+00,4.89282e-03,9.99999e-01,9.88720e-01,1.15002e-02,4.40427e-01,9.71450e-01
1.123142276e+00,2.06062e-02,9.99999e-01,9.99255e-01,4.93109e-02,4.47618e-01,9.33618e-01
1.128757988e+00,4.84830e-02,9.99999e-01,9.99999e-01,1.15424e-01,4.54782e-01,9.23614e-01
1.134401778e+00,2.25906e-02,9.99999e-01,9.99999e-01,5.23248e-02,4.61916e-01,9.34666e-01
1.140073787e+00,1.13397e-01,9.99999e-01,9.99999e-01,2.55187e-01,4.69017e-01,9.47447e-01
1.145774156e+00,3.41235e-02,9.99999e-01,9.99999e-01,7.53062e-02,4.76084e-01,9.51786e-01
1.151503026e+00,2.65508e-02,9.99999e-01,9.99999e-01,5.64915e-02,4.83114e-01,9.72847e-01
1.157260541e+00,3.50624e-02,9.99999e-01,9.99999e-01,7.21315e-02,4.90107e-01,9.91802e-01
1.163046844e+00,6.95105e-02,9.99999e-01,9.99999e-01,1.40170e-01,4.97059e-01,9.97669e-01
1.168862078e+00,1.21561e-01,9.99999e-01,9.99999e-01,2.41497e-01,5.03970e-01,9.98798e-01
1.174706389e+00,2.11104e-01,9.99999e-01,9.99999e-01,4.13909e-01,5.10838e-01,9.98407e-01
1.180579921e+00,3.00314e-01,9.99999e-01,9.99999e-01,5.81535e-01,5.17661e-01,9.97593e-01
1.186482820e+00,3.83747e-01,9.99999e-01,9.99966e-01,7.33559e-01,5.24437e-01,9.97530e-01
1.192415234e+00,4.17851e-01,9.99999e-01,9.42282e-01,8.33905e-01,5.31166e-01,9.98149e-01
1.198377311e+00,2.30786e-01,9.99999e-01,4.88020e-01,8.58149e-01,5.37845e-01,9.98252e-01
1.204369197e+00,7.47282e-45,9.99999e-01,1.49489e-44,8.65843e-01,5.44475e-01,9.98418e-01
1.210391043e+00,3.55969e-185,9.99999e-01,6.98414e-185,8.70943e-01,5.51052e-01,9.99037e-01
1.216442998e+00,4.45391e-160,9.99999e-01,8.59833e-160,8.89109e-01,5.57577e-01,9.99410e-01
1.222525213e+00,1.19727e-157,9.99999e-01,2.22630e-157,9.12330e-01,5.64048e-01,9.99633e-01
1.228637839e+00,2.30061e-121,9.99999e-01,4.21013e-121,9.38234e-01,5.70464e-01,9.99829e-01
