#,Wave/freq,Total,N2,CO2,H2O,Rayleigh,CIA
4.000000000e-01,2.58162e-06,9.99999e-01,9.99999e-01,9.99974e-01,2.58168e-06,9.99999e-01
4.020000000e-01,3.32959e-06,9.99999e-01,9.99999e-01,9.99984e-01,3.32964e-06,9.99999e-01
4.040100000e-01,4.27160e-06,9.99999e-01,9.99999e-01,9.99992e-01,4.27163e-06,9.99999e-01
4.060300500e-01,5.45321e-06,9.99999e-01,9.99999e-01,9.99997e-01,5.45322e-06,9.99999e-01
4.080602003e-01,6.92814e-06,9.99999e-01,9.99999e-01,9.99999e-01,6.92814e-06,9.99999e-01
4.101005013e-01,8.76047e-06,9.99999e-01,9.99999e-01,9.99999e-01,8.76047e-06,9.99999e-01
4.121510038e-01,1.10262e-05,9.99999e-01,9.99999e-01,9.99998e-01,1.10262e-05,9.99999e-01
4.142117588e-01,1.38149e-05,9.99999e-01,9.99999e-01,9.99992e-01,1.38150e-05,9.99999e-01
4.162828176e-01,1.72316e-05,9.99999e-01,9.99999e-01,9.99968e-01,1.72322e-05,9.99999e-01
4.183642317e-01,2.14006e-05,9.99999e-01,9.99999e-01,9.99981e-01,2.14010e-05,9.99999e-01
4.204560528e-01,2.64645e-05,9.99999e-01,9.99999e-01,9.99988e-01,2.64648e-05,9.99999e-01
4.225583331e-01,3.25897e-05,9.99999e-01,9.99999e-01,9.99995e-01,3.25899e-05,9.99999e-01
4.246711247e-01,3.99677e-05,9.99999e-01,9.99999e-01,9.99996e-01,3.99678e-05,9.99999e-01
4.267944804e-01,4.88186e-05,9.99999e-01,9.99999e-01,9.99994e-01,4.88189e-05,9.99999e-01
4.289284528e-01,5.93946e-05,9.99999e-01,9.99999e-01,9.99995e-01,5.93948e-05,9.99999e-01
4.310730950e-01,7.19825e-05,9.99999e-01,9.99999e-01,9.99997e-01,7.19826e-05,9.99999e-01
4.332284605e-01,8.69075e-05,9.99999e-01,9.99999e-01,9.99999e-01,8.69076e-05,9.99999e-01
4.353946028e-01,1.04537e-04,9.99999e-01,9.99999e-01,9.99999e-01,1.04537e-04,9.99999e-01
4.375715758e-01,1.25285e-04,9.99999e-01,9.99999e-01,9.99996e-01,1.25285e-04,9.99999e-01
4.397594337e-01,1.49612e-04,9.99999e-01,9.99999e-01,9.99972e-01,1.49616e-04,9.99999e-01
4.419582309e-01,1.78021e-04,9.99999e-01,9.99999e-01,9.99864e-01,1.78045e-04,9.99999e-01
4.441680220e-01,2.11128e-04,9.99999e-01,9.99999e-01,9.99892e-01,2.11150e-04,9.99999e-01
4.463888621e-01,2.49541e-04,9.99999e-01,9.99999e-01,9.99888e-01,2.49569e-04,9.99999e-01
4.486208064e-01,2.93984e-04,9.99999e-01,9.99999e-01,9.99930e-01,2.94005e-04,9.99999e-01
4.508639105e-01,3.45223e-04,9.99999e-01,9.99999e-01,9.99967e-01,3.45234e-04,9.99999e-01
4.531182300e-01,4.04100e-04,9.99999e-01,9.99999e-01,9.99986e-01,4.04105e-04,9.99999e-01
4.553838212e-01,4.71542e-04,9.99999e-01,9.99999e-01,9.99990e-01,4.71546e-04,9.99999e-01
4.576607403e-01,5.48566e-04,9.99999e-01,9.99999e-01,9.99995e-01,5.48568e-04,9.99999e-01
4.599490440e-01,6.36264e-04,9.99999e-01,9.99999e-01,9.99996e-01,6.36266e-04,9.99999e-01
4.622487892e-01,7.35825e-04,9.99999e-01,9.99999e-01,9.99999e-01,7.35825e-04,9.99999e-01
4.645600332e-01,8.48521e-04,9.99999e-01,9.99999e-01,9.99997e-01,8.48523e-04,9.99999e-01
4.668828333e-01,9.75699e-04,9.99999e-01,9.99999e-01,9.99967e-01,9.75731e-04,9.99999e-01
4.692172475e-01,1.11884e-03,9.99999e-01,9.99999e-01,9.99929e-01,1.11892e-03,9.99999e-01
4.715633337e-01,1.27959e-03,9.99999e-01,9.99999e-01,9.99954e-01,1.27965e-03,9.99999e-01
4.739211504e-01,1.45954e-03,9.99999e-01,9.99999e-01,9.99955e-01,1.45960e-03,9.99999e-01
4.762907561e-01,1.66049e-03,9.99999e-01,9.99999e-01,9.99976e-01,1.66053e-03,9.99999e-01
4.786722099e-01,1.88430e-03,9.99999e-01,9.99999e-01,9.99990e-01,1.88432e-03,9.99999e-01
4.810655710e-01,2.13292e-03,9.99999e-01,9.99999e-01,9.99996e-01,2.13293e-03,9.99999e-01
4.834708988e-01,2.40838e-03,9.99999e-01,9.99999e-01,9.99973e-01,2.40844e-03,9.99999e-01
4.858882533e-01,2.71289e-03,9.99999e-01,9.99999e-01,9.99950e-01,2.71302e-03,9.99999e-01
4.883176946e-01,3.04882e-03,9.99999e-01,9.99999e-01,9.99958e-01,3.04894e-03,9.99999e-01
4.907592831e-01,3.41843e-03,9.99999e-01,9.99999e-01,9.99962e-01,3.41856e-03,9.99999e-01
4.932130795e-01,3.82423e-03,9.99999e-01,9.99999e-01,9.99972e-01,3.82433e-03,9.99999e-01
4.956791449e-01,4.26875e-03,9.99999e-01,9.99999e-01,9.99985e-01,4.26881e-03,9.99999e-01
4.981575406e-01,4.75427e-03,9.99999e-01,9.99999e-01,9.99929e-01,4.75460e-03,9.99999e-01
5.006483283e-01,5.28345e-03,9.99999e-01,9.99999e-01,9.99819e-01,5.28441e-03,9.99998e-01
5.031515699e-01,5.85558e-03,9.99999e-01,9.99999e-01,9.99080e-01,5.86102e-03,9.99989e-01
5.056673278e-01,6.48403e-03,9.99999e-01,9.99999e-01,9.99513e-01,6.48726e-03,9.99988e-01
5.081956644e-01,7.16157e-03,9.99999e-01,9.99999e-01,9.99385e-01,7.16602e-03,9.99992e-01
5.107366428e-01,7.89698e-03,9.99999e-01,9.99999e-01,9.99584e-01,7.90027e-03,9.99998e-01
5.132903260e-01,8.69091e-03,9.99999e-01,9.99999e-01,9.99762e-01,8.69298e-03,9.99999e-01
5.158567776e-01,9.54622e-03,9.99999e-01,9.99999e-01,9.99899e-01,9.54718e-03,9.99999e-01
5.184360615e-01,1.04655e-02,9.99999e-01,9.99999e-01,9.99959e-01,1.04659e-02,9.99999e-01
5.210282418e-01,1.14521e-02,9.99999e-01,9.99999e-01,9.99984e-01,1.14523e-02,9.99999e-01
5.236333830e-01,1.25086e-02,9.99999e-01,9.99999e-01,9.99939e-01,1.25093e-02,9.99999e-01
5.262515499e-01,1.36396e-02,9.99999e-01,9.99999e-01,9.99961e-01,1.36401e-02,9.99998e-01
5.288828077e-01,1.48472e-02,9.99999e-01,9.99999e-01,9.99965e-01,1.48477e-02,9.99999e-01
5.315272217e-01,1.61347e-02,9.99999e-01,9.99999e-01,9.99969e-01,1.61352e-02,9.99999e-01
5.341848578e-01,1.75052e-02,9.99999e-01,9.99999e-01,9.99979e-01,1.75055e-02,9.99999e-01
5.368557821e-01,1.89604e-02,9.99999e-01,9.99999e-01,9.99930e-01,1.89617e-02,9.99999e-01
5.395400610e-01,2.05014e-02,9.99999e-01,9.99999e-01,9.99749e-01,2.05066e-02,9.99997e-01
5.422377613e-01,2.21357e-02,9.99999e-01,9.99999e-01,9.99672e-01,2.21430e-02,9.99993e-01
5.449489501e-01,2.38665e-02,9.99999e-01,9.99999e-01,9.99697e-01,2.38739e-02,9.99993e-01
5.476736949e-01,2.56948e-02,9.99999e-01,9.99999e-01,9.99730e-01,2.57018e-02,9.99996e-01
5.504120634e-01,2.76239e-02,9.99999e-01,9.99999e-01,9.99804e-01,2.76293e-02,9.99998e-01
5.531641237e-01,2.96561e-02,9.99999e-01,9.99999e-01,9.99901e-01,2.96590e-02,9.99999e-01
5.559299443e-01,3.17918e-02,9.99999e-01,9.99999e-01,9.99952e-01,3.17933e-02,9.99999e-01
5.587095940e-01,3.40334e-02,9.99999e-01,9.99999e-01,9.99969e-01,3.40344e-02,9.99999e-01
5.615031420e-01,3.63833e-02,9.99999e-01,9.99999e-01,9.99966e-01,3.63845e-02,9.99999e-01
5.643106577e-01,3.88441e-02,9.99999e-01,9.99999e-01,9.99962e-01,3.88456e-02,9.99999e-01
5.671322110e-01,4.14009e-02,9.99999e-01,9.99999e-01,9.99552e-01,4.14196e-02,9.99995e-01
5.699678720e-01,4.40861e-02,9.99999e-01,9.99999e-01,9.99511e-01,4.41082e-02,9.99987e-01
5.728177114e-01,4.68889e-02,9.99999e-01,9.99999e-01,9.99496e-01,4.69130e-02,9.99989e-01
5.756818000e-01,4.98121e-02,9.99999e-01,9.99999e-01,9.99537e-01,4.98355e-02,9.99993e-01
5.785602090e-01,5.28554e-02,9.99999e-01,9.99999e-01,9.99595e-01,5.28768e-02,9.99997e-01
5.814530100e-01,5.60155e-02,9.99999e-01,9.99999e-01,9.99594e-01,5.60382e-02,9.99998e-01
5.843602750e-01,5.92919e-02,9.99999e-01,9.99999e-01,9.99520e-01,5.93205e-02,9.99996e-01
5.872820764e-01,6.24635e-02,9.99999e-01,9.99999e-01,9.95867e-01,6.27245e-02,9.99970e-01
5.902184868e-01,6.59112e-02,9.99999e-01,9.99999e-01,9.94954e-01,6.62507e-02,9.99919e-01
5.931695792e-01,6.96457e-02,9.99999e-01,9.99999e-01,9.96443e-01,6.98996e-02,9.99922e-01
5.961354271e-01,7.33803e-02,9.99999e-01,9.99999e-01,9.96094e-01,7.36715e-02,9.99952e-01
5.991161043e-01,7.73440e-02,9.99999e-01,9.99999e-01,9.97147e-01,7.75663e-02,9.99985e-01
6.021116848e-01,8.14516e-02,9.99999e-01,9.99999e-01,9.98378e-01,8.15839e-02,9.99997e-01
6.051222432e-01,8.56538e-02,9.99999e-01,9.99999e-01,9.99179e-01,8.57242e-02,9.99999e-01
6.081478544e-01,8.99546e-02,9.99999e-01,9.99999e-01,9.99645e-01,8.99864e-02,9.99999e-01
6.111885937e-01,9.43560e-02,9.99999e-01,9.99999e-01,9.99849e-01,9.43701e-02,9.99999e-01
6.142445367e-01,9.88679e-02,9.99999e-01,9.99999e-01,9.99932e-01,9.88745e-02,9.99999e-01
6.173157594e-01,1.03495e-01,9.99999e-01,9.99999e-01,9.99962e-01,1.03498e-01,9.99999e-01
6.204023382e-01,1.08238e-01,9.99999e-01,9.99999e-01,9.99968e-01,1.08241e-01,9.99999e-01
6.235043498e-01,1.13085e-01,9.99999e-01,9.99999e-01,9.99864e-01,1.13100e-01,9.99999e-01
6.266218716e-01,1.17990e-01,9.99999e-01,9.99999e-01,9.99274e-01,1.18076e-01,9.99994e-01
6.297549810e-01,1.23131e-01,9.99999e-01,9.99999e-01,9.99733e-01,1.23165e-01,9.99989e-01
6.329037559e-01,1.28298e-01,9.99999e-01,9.99999e-01,9.99472e-01,1.28367e-01,9.99991e-01
6.360682746e-01,1.33619e-01,9.99999e-01,9.99999e-01,9.99552e-01,1.33679e-01,9.99994e-01
6.392486160e-01,1.39019e-01,9.99999e-01,9.99999e-01,9.99419e-01,1.39100e-01,9.99997e-01
6.424448591e-01,1.44514e-01,9.99999e-01,9.99999e-01,9.99228e-01,1.44626e-01,9.99996e-01
6.456570834e-01,1.49716e-01,9.99999e-01,9.99999e-01,9.96422e-01,1.50257e-01,9.99979e-01
6.488853688e-01,1.55497e-01,9.99999e-01,9.99999e-01,9.96899e-01,1.55989e-01,9.99943e-01
6.521297956e-01,1.61376e-01,9.99999e-01,9.99999e-01,9.97304e-01,1.61820e-01,9.99952e-01
6.553904446e-01,1.67295e-01,9.99999e-01,9.99999e-01,9.97338e-01,1.67747e-01,9.99964e-01
6.586673968e-01,1.73367e-01,9.99999e-01,9.99999e-01,9.97700e-01,1.73768e-01,9.99988e-01
6.619607338e-01,1.79641e-01,9.99999e-01,9.99999e-01,9.98670e-01,1.79880e-01,9.99997e-01
6.652705375e-01,1.85936e-01,9.99999e-01,9.99999e-01,9.99228e-01,1.86080e-01,9.99998e-01
6.685968902e-01,1.92295e-01,9.99999e-01,9.99999e-01,9.99641e-01,1.92364e-01,9.99999e-01
6.719398746e-01,1.98698e-01,9.99999e-01,9.99999e-01,9.99833e-01,1.98731e-01,9.99999e-01
6.752995740e-01,2.05157e-01,9.99999e-01,9.99999e-01,9.99909e-01,2.05176e-01,9.99999e-01
6.786760719e-01,2.11669e-01,9.99999e-01,9.99999e-01,9.99870e-01,2.11696e-01,9.99999e-01
6.820694522e-01,2.18241e-01,9.99999e-01,9.99999e-01,9.99778e-01,2.18289e-01,9.99998e-01
6.854797995e-01,2.24886e-01,9.99999e-01,9.99999e-01,9.99714e-01,2.24951e-01,9.99997e-01
6.889071985e-01,2.31519e-01,9.99999e-01,9.99999e-01,9.99319e-01,2.31678e-01,9.99993e-01
6.923517345e-01,2.35790e-01,9.99999e-01,9.99999e-01,9.88823e-01,2.38468e-01,9.99945e-01
6.958134932e-01,2.43833e-01,9.99999e-01,9.99999e-01,9.94072e-01,2.45317e-01,9.99877e-01
6.992925606e-01,2.50798e-01,9.99999e-01,9.99999e-01,9.94463e-01,2.52222e-01,9.99892e-01
7.027890234e-01,2.57374e-01,9.99999e-01,9.99999e-01,9.93121e-01,2.59178e-01,9.99917e-01
7.063029686e-01,2.64634e-01,9.99999e-01,9.99999e-01,9.94219e-01,2.66184e-01,9.99958e-01
7.098344834e-01,2.71712e-01,9.99999e-01,9.99999e-01,9.94452e-01,2.73234e-01,9.99975e-01
7.133836558e-01,2.78266e-01,9.99999e-01,9.99999e-01,9.92694e-01,2.80327e-01,9.99951e-01
7.169505741e-01,2.70784e-01,9.99999e-01,9.99999e-01,9.42348e-01,2.87458e-01,9.99620e-01
7.205353270e-01,2.85867e-01,9.99999e-01,9.99999e-01,9.70921e-01,2.94625e-01,9.99331e-01
7.241380036e-01,2.90694e-01,9.99999e-01,9.99999e-01,9.63682e-01,3.01823e-01,9.99422e-01
7.277586936e-01,2.98755e-01,9.99999e-01,9.99999e-01,9.67144e-01,3.09050e-01,9.99527e-01
7.313974871e-01,3.05135e-01,9.99999e-01,9.99999e-01,9.64908e-01,3.16302e-01,9.99778e-01
7.350544745e-01,3.17312e-01,9.99999e-01,9.99999e-01,9.80715e-01,3.23576e-01,9.99922e-01
7.387297469e-01,3.26148e-01,9.99999e-01,9.99999e-01,9.85766e-01,3.30869e-01,9.99964e-01
7.424233956e-01,3.35807e-01,9.99999e-01,9.99999e-01,9.92998e-01,3.38177e-01,9.99992e-01
7.461355126e-01,3.44031e-01,9.99999e-01,9.99999e-01,9.95758e-01,3.45497e-01,9.99998e-01
7.498661902e-01,3.52127e-01,9.99999e-01,9.99999e-01,9.98019e-01,3.52826e-01,9.99999e-01
7.536155211e-01,3.59813e-01,9.99999e-01,9.99999e-01,9.99030e-01,3.60162e-01,9.99999e-01
7.573835987e-01,3.67317e-01,9.99999e-01,9.99999e-01,9.99500e-01,3.67501e-01,9.99999e-01
7.611705167e-01,3.74723e-01,9.99999e-01,9.99999e-01,9.99689e-01,3.74839e-01,9.99999e-01
7.649763693e-01,3.82101e-01,9.99999e-01,9.99999e-01,9.99805e-01,3.82176e-01,9.99999e-01
7.688012511e-01,3.89453e-01,9.99999e-01,9.99999e-01,9.99864e-01,3.89506e-01,9.99999e-01
7.726452574e-01,3.96784e-01,9.99999e-01,9.99999e-01,9.99888e-01,3.96828e-01,9.99999e-01
7.765084837e-01,4.04076e-01,9.99999e-01,9.99999e-01,9.99842e-01,4.04139e-01,9.99999e-01
7.803910261e-01,3.95206e-01,9.99999e-01,9.61177e-01,9.99323e-01,4.11437e-01,9.99998e-01
7.842929812e-01,3.47544e-01,9.99999e-01,8.31872e-01,9.97639e-01,4.18718e-01,9.99995e-01
7.882144461e-01,3.48613e-01,9.99999e-01,8.22237e-01,9.95104e-01,4.25980e-01,9.99969e-01
7.921555184e-01,3.85202e-01,9.99999e-01,8.91546e-01,9.97301e-01,4.33222e-01,9.99941e-01
7.961162960e-01,4.05698e-01,9.99999e-01,9.25489e-01,9.95279e-01,4.40439e-01,9.99943e-01
8.000968774e-01,4.26888e-01,9.99999e-01,9.58950e-01,9.94522e-01,4.47631e-01,9.99940e-01
8.040973618e-01,4.42541e-01,9.99999e-01,9.78444e-01,9.94527e-01,4.54795e-01,9.99952e-01
8.081178486e-01,4.51744e-01,9.99999e-01,9.90083e-01,9.87770e-01,4.61928e-01,9.99955e-01
8.121584379e-01,4.44078e-01,9.99999e-01,9.96905e-01,9.49870e-01,4.69029e-01,9.99826e-01
8.162192301e-01,4.47065e-01,9.99999e-01,9.99315e-01,9.40262e-01,4.76096e-01,9.99349e-01
8.203003262e-01,4.68393e-01,9.99999e-01,9.99988e-01,9.70252e-01,4.83126e-01,9.99238e-01
8.244018279e-01,4.69149e-01,9.99999e-01,9.99999e-01,9.57794e-01,4.90119e-01,9.99393e-01
8.285238370e-01,4.79006e-01,9.99999e-01,9.99999e-01,9.64115e-01,4.97071e-01,9.99523e-01
8.326664562e-01,4.85544e-01,9.99999e-01,9.99999e-01,9.63605e-01,5.03982e-01,9.99802e-01
8.368297885e-01,4.97461e-01,9.99999e-01,9.99999e-01,9.73834e-01,5.10850e-01,9.99954e-01
8.410139374e-01,5.09568e-01,9.99999e-01,9.99999e-01,9.84370e-01,5.17672e-01,9.99973e-01
8.452190071e-01,5.20403e-01,9.99999e-01,9.99999e-01,9.92300e-01,5.24449e-01,9.99983e-01
8.494451021e-01,5.28803e-01,9.99999e-01,9.99999e-01,9.95541e-01,5.31177e-01,9.99986e-01
8.536923276e-01,5.36429e-01,9.99999e-01,9.99999e-01,9.97353e-01,5.37857e-01,9.99991e-01
8.579607893e-01,5.43600e-01,9.99999e-01,9.99999e-01,9.98374e-01,5.44486e-01,9.99997e-01
8.622505932e-01,5.50493e-01,9.99999e-01,9.99999e-01,9.98964e-01,5.51064e-01,9.99999e-01
8.665618462e-01,5.11982e-01,9.99999e-01,9.18768e-01,9.99361e-01,5.57588e-01,9.99999e-01
8.708946554e-01,3.54718e-01,9.99999e-01,6.29306e-01,9.99270e-01,5.64059e-01,9.99999e-01
8.752491287e-01,3.91281e-01,9.99999e-01,6.86533e-01,9.99023e-01,5.70475e-01,9.99998e-01
8.796253743e-01,4.68080e-01,9.99999e-01,8.12522e-01,9.98651e-01,5.76835e-01,9.99996e-01
8.840235012e-01,5.22736e-01,9.99999e-01,8.97786e-01,9.98458e-01,5.83138e-01,9.99990e-01
8.884436187e-01,5.61662e-01,9.99999e-01,9.58231e-01,9.94468e-01,5.89383e-01,9.99972e-01
8.928858368e-01,5.51795e-01,9.99999e-01,9.82905e-01,9.42588e-01,5.95570e-01,9.99845e-01
8.973502660e-01,5.38825e-01,9.99999e-01,9.95798e-01,8.99903e-01,6.01698e-01,9.99208e-01
9.018370173e-01,5.74746e-01,9.99999e-01,9.99535e-01,9.47270e-01,6.07766e-01,9.98756e-01
9.063462024e-01,5.78457e-01,9.99999e-01,9.88490e-01,9.54057e-01,6.13774e-01,9.98907e-01
9.108779334e-01,5.59859e-01,9.99999e-01,9.73198e-01,9.28965e-01,6.19720e-01,9.98864e-01
9.154323231e-01,5.71153e-01,9.99999e-01,9.93593e-01,9.19556e-01,6.25605e-01,9.99061e-01
9.200094847e-01,5.42218e-01,9.99999e-01,9.13865e-01,9.36308e-01,6.31428e-01,9.99474e-01
9.246095321e-01,5.05522e-01,9.99999e-01,8.75669e-01,9.04058e-01,6.37188e-01,9.99394e-01
9.292325798e-01,2.97945e-01,9.99999e-01,9.02199e-01,5.08553e-01,6.42886e-01,9.97641e-01
9.338787427e-01,2.44422e-01,9.99999e-01,9.04417e-01,4.15657e-01,6.48521e-01,9.90288e-01
9.385481364e-01,4.23175e-01,9.99999e-01,9.28791e-01,7.01131e-01,6.54092e-01,9.88460e-01
9.432408771e-01,3.84823e-01,9.99999e-01,9.55639e-01,6.14850e-01,6.59600e-01,9.90036e-01
9.479570815e-01,3.31078e-01,9.99999e-01,9.77047e-01,5.12954e-01,6.65043e-01,9.91883e-01
9.526968669e-01,3.97558e-01,9.99999e-01,9.88851e-01,6.01972e-01,6.70423e-01,9.95041e-01
9.574603512e-01,4.19166e-01,9.99999e-01,9.95215e-01,6.24628e-01,6.75739e-01,9.97477e-01
9.622476530e-01,4.61942e-01,9.99999e-01,9.98504e-01,6.80467e-01,6.80991e-01,9.98255e-01
9.670588912e-01,5.48749e-01,9.99999e-01,9.99550e-01,8.01010e-01,6.86179e-01,9.98806e-01
9.718941857e-01,6.01068e-01,9.99999e-01,9.99967e-01,8.70261e-01,6.91302e-01,9.99120e-01
9.767536566e-01,6.20089e-01,9.99999e-01,9.99999e-01,8.91066e-01,6.96362e-01,9.99328e-01
9.816374249e-01,6.43614e-01,9.99999e-01,9.99999e-01,9.17882e-01,7.01357e-01,9.99767e-01
9.865456120e-01,6.69425e-01,9.99999e-01,9.99999e-01,9.47851e-01,7.06289e-01,9.99951e-01
9.914783401e-01,6.88003e-01,9.99999e-01,9.99999e-01,9.67454e-01,7.11157e-01,9.99986e-01
9.964357318e-01,7.03170e-01,9.99999e-01,9.99999e-01,9.82140e-01,7.15961e-01,9.99991e-01
1.001417910e+00,7.12951e-01,9.99999e-01,9.99999e-01,9.89257e-01,7.20702e-01,9.99987e-01
1.006425000e+00,7.20924e-01,9.99999e-01,9.99999e-01,9.93873e-01,7.25380e-01,9.99982e-01
1.011457125e+00,7.27199e-01,9.99999e-01,9.99999e-01,9.96185e-01,7.29995e-01,9.99983e-01
1.016514411e+00,7.32638e-01,9.99999e-01,9.99999e-01,9.97412e-01,7.34547e-01,9.99988e-01
1.021596983e+00,7.37464e-01,9.99999e-01,9.99943e-01,9.97938e-01,7.39036e-01,9.99988e-01
1.026704968e+00,7.38931e-01,9.99999e-01,9.95506e-01,9.98393e-01,7.43464e-01,9.99991e-01
1.031838492e+00,7.11315e-01,9.99999e-01,9.52252e-01,9.98829e-01,7.47830e-01,9.99997e-01
1.036997685e+00,9.68386e-02,9.99999e-01,1.28822e-01,9.99305e-01,7.52135e-01,9.99999e-01
1.042182673e+00,5.90657e-02,9.99999e-01,7.81460e-02,9.99175e-01,7.56378e-01,9.99999e-01
1.047393587e+00,7.93586e-02,9.99999e-01,1.04442e-01,9.98904e-01,7.60561e-01,9.99999e-01
1.052630555e+00,1.14380e-03,9.99999e-01,1.49739e-03,9.98498e-01,7.64684e-01,9.99999e-01
1.057893707e+00,3.15951e-03,9.99999e-01,4.11656e-03,9.97497e-01,7.68747e-01,9.99998e-01
1.063183176e+00,1.31920e-02,9.99999e-01,1.71201e-02,9.95880e-01,7.72751e-01,9.99997e-01
1.068499092e+00,4.42438e-02,9.99999e-01,5.72868e-02,9.93102e-01,7.76696e-01,9.99994e-01
1.073841587e+00,1.26295e-01,9.99999e-01,1.62887e-01,9.91944e-01,7.80583e-01,9.99989e-01
1.079210795e+00,2.46249e-01,9.99999e-01,3.16867e-01,9.89657e-01,7.84412e-01,9.99971e-01
1.084606849e+00,4.11137e-01,9.99999e-01,5.29459e-01,9.84406e-01,7.88183e-01,9.99933e-01
1.090029883e+00,5.56865e-01,9.99999e-01,7.18750e-01,9.77781e-01,7.91897e-01,9.99861e-01
1.095480033e+00,6.36055e-01,9.99999e-01,8.49606e-01,9.40511e-01,7.95555e-01,9.99750e-01
1.100957433e+00,6.32629e-01,9.99999e-01,9.24457e-01,8.55859e-01,7.99158e-01,9.99540e-01
1.106462220e+00,5.24966e-01,9.99999e-01,9.68004e-01,6.75207e-01,8.02704e-01,9.99221e-01
1.111994531e+00,3.48812e-01,9.99999e-01,9.88019e-01,4.38372e-01,8.06196e-01,9.97935e-01
1.117554504e+00,2.12681e-01,9.99999e-01,9.97050e-01,2.65267e-01,8.09634e-01,9.92566e-01
1.123142276e+00,3.05004e-01,9.99999e-01,9.99804e-01,3.81877e-01,8.13018e-01,9.82461e-01
1.128757988e+00,4.28412e-01,9.99999e-01,9.99999e-01,5.35642e-01,8.16350e-01,9.79739e-01
1.134401778e+00,2.27717e-01,9.99999e-01,9.99999e-01,2.82707e-01,8.19628e-01,9.82745e-01
1.140073787e+00,5.57192e-01,9.99999e-01,9.99999e-01,6.86627e-01,8.22855e-01,9.86189e-01
1.145774156e+00,3.74981e-01,9.99999e-01,9.99999e-01,4.59770e-01,8.26030e-01,9.87351e-01
1.151503026e+00,3.48080e-01,9.99999e-01,9.99999e-01,4.22788e-01,8.29154e-01,9.92933e-01
1.157260541e+00,4.00150e-01,9.99999e-01,9.99999e-01,4.81837e-01,8.32228e-01,9.97881e-01
1.163046844e+00,4.85457e-01,9.99999e-01,9.99999e-01,5.81559e-01,8.35252e-01,9.99398e-01
1.168862078e+00,5.73836e-01,9.99999e-01,9.99999e-01,6.84793e-01,8.38228e-01,9.99690e-01
1.174706389e+00,6.65602e-01,9.99999e-01,9.99999e-01,7.91619e-01,8.41155e-01,9.99589e-01
1.180579921e+00,7.31493e-01,9.99999e-01,9.99999e-01,8.67201e-01,8.44033e-01,9.99379e-01
1.186482820e+00,7.80856e-01,9.99999e-01,9.99993e-01,9.22647e-01,8.46865e-01,9.99362e-01
1.192415234e+00,7.97652e-01,9.99999e-01,9.84184e-01,9.54131e-01,8.49650e-01,9.99522e-01
1.198377311e+00,4.59044e-01,9.99999e-01,5.56869e-01,9.61261e-01,8.52389e-01,9.99549e-01
1.204369197e+00,3.18261e-13,9.99999e-01,3.80479e-13,9.63287e-01,8.55082e-01,9.99592e-01
1.210391043e+00,2.30860e-49,9.99999e-01,2.74617e-49,9.64850e-01,8.57730e-01,9.99751e-01
1.216442998e+00,6.70430e-43,9.99999e-01,7.94186e-43,9.69967e-01,8.60334e-01,9.99847e-01
1.222525213e+00,2.83613e-42,9.99999e-01,3.32738e-42,9.76556e-01,8.62895e-01,9.99905e-01
1.228637839e+00,9.57895e-33,9.99999e-01,1.11950e-32,9.83674e-01,8.65412e-01,9.99955e-01
