#,Wave/freq,Total,N2,CO2,H2O,Rayleigh,CIA
4.000000000e-01,6.52060e-10,9.99999e-01,9.99999e-01,9.99958e-01,6.52086e-10,9.99999e-01
4.020000000e-01,9.90641e-10,9.99999e-01,9.99999e-01,9.99974e-01,9.90665e-10,9.99999e-01
4.040100000e-01,1.49202e-09,9.99999e-01,9.99999e-01,9.99988e-01,1.49204e-09,9.99999e-01
4.060300500e-01,2.22904e-09,9.99999e-01,9.99999e-01,9.99997e-01,2.22905e-09,9.99999e-01
4.080602003e-01,3.30381e-09,9.99999e-01,9.99999e-01,9.99998e-01,3.30381e-09,9.99999e-01
4.101005013e-01,4.85888e-09,9.99999e-01,9.99999e-01,9.99999e-01,4.85888e-09,9.99999e-01
4.121510038e-01,7.09164e-09,9.99999e-01,9.99999e-01,9.99997e-01,7.09165e-09,9.99999e-01
4.142117588e-01,1.02733e-08,9.99999e-01,9.99999e-01,9.99988e-01,1.02734e-08,9.99999e-01
4.162828176e-01,1.47735e-08,9.99999e-01,9.99999e-01,9.99949e-01,1.47742e-08,9.99999e-01
4.183642317e-01,2.10942e-08,9.99999e-01,9.99999e-01,9.99969e-01,2.10948e-08,9.99999e-01
4.204560528e-01,2.99078e-08,9.99999e-01,9.99999e-01,9.99981e-01,2.99083e-08,9.99999e-01
4.225583331e-01,4.21125e-08,9.99999e-01,9.99999e-01,9.99992e-01,4.21128e-08,9.99999e-01
4.246711247e-01,5.88976e-08,9.99999e-01,9.99999e-01,9.99993e-01,5.88979e-08,9.99999e-01
4.267944804e-01,8.18286e-08,9.99999e-01,9.99999e-01,9.99991e-01,8.18292e-08,9.99999e-01
4.289284528e-01,1.12952e-07,9.99999e-01,9.99999e-01,9.99993e-01,1.12953e-07,9.99999e-01
4.310730950e-01,1.54924e-07,9.99999e-01,9.99999e-01,9.99996e-01,1.54924e-07,9.99999e-01
4.332284605e-01,2.11169e-07,9.99999e-01,9.99999e-01,9.99998e-01,2.11169e-07,9.99999e-01
4.353946028e-01,2.86079e-07,9.99999e-01,9.99999e-01,9.99999e-01,2.86079e-07,9.99999e-01
4.375715758e-01,3.85242e-07,9.99999e-01,9.99999e-01,9.99994e-01,3.85244e-07,9.99999e-01
4.397594337e-01,5.15720e-07,9.99999e-01,9.99999e-01,9.99954e-01,5.15744e-07,9.99999e-01
4.419582309e-01,6.86324e-07,9.99999e-01,9.99999e-01,9.99770e-01,6.86481e-07,9.99999e-01
4.441680220e-01,9.08438e-07,9.99999e-01,9.99999e-01,9.99825e-01,9.08596e-07,9.99999e-01
4.463888621e-01,1.19572e-06,9.99999e-01,9.99999e-01,9.99817e-01,1.19594e-06,9.99999e-01
4.486208064e-01,1.56545e-06,9.99999e-01,9.99999e-01,9.99886e-01,1.56563e-06,9.99999e-01
4.508639105e-01,2.03861e-06,9.99999e-01,9.99999e-01,9.99946e-01,2.03872e-06,9.99999e-01
4.531182300e-01,2.64090e-06,9.99999e-01,9.99999e-01,9.99978e-01,2.64096e-06,9.99999e-01
4.553838212e-01,3.40361e-06,9.99999e-01,9.99999e-01,9.99985e-01,3.40365e-06,9.99999e-01
4.576607403e-01,4.36466e-06,9.99999e-01,9.99999e-01,9.99992e-01,4.36469e-06,9.99999e-01
4.599490440e-01,5.56962e-06,9.99999e-01,9.99999e-01,9.99994e-01,5.56964e-06,9.99999e-01
4.622487892e-01,7.07310e-06,9.99999e-01,9.99999e-01,9.99998e-01,7.07311e-06,9.99999e-01
4.645600332e-01,8.94009e-06,9.99999e-01,9.99999e-01,9.99996e-01,8.94011e-06,9.99999e-01
4.668828333e-01,1.12472e-05,9.99999e-01,9.99999e-01,9.99945e-01,1.12478e-05,9.99999e-01
4.692172475e-01,1.40854e-05,9.99999e-01,9.99999e-01,9.99885e-01,1.40871e-05,9.99999e-01
4.715633337e-01,1.75635e-05,9.99999e-01,9.99999e-01,9.99924e-01,1.75648e-05,9.99999e-01
4.739211504e-01,2.18043e-05,9.99999e-01,9.99999e-01,9.99928e-01,2.18059e-05,9.99999e-01
4.762907561e-01,2.69545e-05,9.99999e-01,9.99999e-01,9.99962e-01,2.69555e-05,9.99999e-01
4.786722099e-01,3.31816e-05,9.99999e-01,9.99999e-01,9.99984e-01,3.31821e-05,9.99999e-01
4.810655710e-01,4.06795e-05,9.99999e-01,9.99999e-01,9.99994e-01,4.06796e-05,9.99999e-01
4.834708988e-01,4.96687e-05,9.99999e-01,9.99999e-01,9.99954e-01,4.96710e-05,9.99999e-01
4.858882533e-01,6.04060e-05,9.99999e-01,9.99999e-01,9.99918e-01,6.04109e-05,9.99999e-01
4.883176946e-01,7.31845e-05,9.99999e-01,9.99999e-01,9.99931e-01,7.31895e-05,9.99999e-01
4.907592831e-01,8.83303e-05,9.99999e-01,9.99999e-01,9.99938e-01,8.83357e-05,9.99999e-01
4.932130795e-01,1.06216e-04,9.99999e-01,9.99999e-01,9.99956e-01,1.06221e-04,9.99999e-01
4.956791449e-01,1.27260e-04,9.99999e-01,9.99999e-01,9.99976e-01,1.27263e-04,9.99999e-01
4.981575406e-01,1.51913e-04,9.99999e-01,9.99999e-01,9.99883e-01,1.51930e-04,9.99999e-01
5.006483283e-01,1.80690e-04,9.99999e-01,9.99999e-01,9.99697e-01,1.80745e-04,9.99997e-01
5.031515699e-01,2.13960e-04,9.99999e-01,9.99999e-01,9.98483e-01,2.14288e-04,9.99983e-01
5.056673278e-01,2.52997e-04,9.99999e-01,9.99999e-01,9.99202e-01,2.53204e-04,9.99981e-01
5.081956644e-01,2.97899e-04,9.99999e-01,9.99999e-01,9.98994e-01,2.98202e-04,9.99988e-01
5.107366428e-01,3.49826e-04,9.99999e-01,9.99999e-01,9.99321e-01,3.50064e-04,9.99997e-01
5.132903260e-01,4.09488e-04,9.99999e-01,9.99999e-01,9.99612e-01,4.09647e-04,9.99999e-01
5.158567776e-01,4.77806e-04,9.99999e-01,9.99999e-01,9.99836e-01,4.77884e-04,9.99999e-01
5.184360615e-01,5.55758e-04,9.99999e-01,9.99999e-01,9.99934e-01,5.55794e-04,9.99999e-01
5.210282418e-01,6.44465e-04,9.99999e-01,9.99999e-01,9.99974e-01,6.44481e-04,9.99999e-01
5.236333830e-01,7.45063e-04,9.99999e-01,9.99999e-01,9.99900e-01,7.45137e-04,9.99998e-01
5.262515499e-01,8.58994e-04,9.99999e-01,9.99999e-01,9.99937e-01,8.59048e-04,9.99998e-01
5.288828077e-01,9.87536e-04,9.99999e-01,9.99999e-01,9.99942e-01,9.87593e-04,9.99998e-01
5.315272217e-01,1.13219e-03,9.99999e-01,9.99999e-01,9.99950e-01,1.13225e-03,9.99999e-01
5.341848578e-01,1.29455e-03,9.99999e-01,9.99999e-01,9.99966e-01,1.29460e-03,9.99999e-01
5.368557821e-01,1.47614e-03,9.99999e-01,9.99999e-01,9.99883e-01,1.47631e-03,9.99999e-01
5.395400610e-01,1.67845e-03,9.99999e-01,9.99999e-01,9.99579e-01,1.67916e-03,9.99995e-01
5.422377613e-01,1.90400e-03,9.99999e-01,9.99999e-01,9.99466e-01,1.90504e-03,9.99989e-01
5.449489501e-01,2.15482e-03,9.99999e-01,9.99999e-01,9.99498e-01,2.15592e-03,9.99989e-01
5.476736949e-01,2.43280e-03,9.99999e-01,9.99999e-01,9.99560e-01,2.43388e-03,9.99994e-01
5.504120634e-01,2.74024e-03,9.99999e-01,9.99999e-01,9.99680e-01,2.74111e-03,9.99998e-01
5.531641237e-01,3.07939e-03,9.99999e-01,9.99999e-01,9.99839e-01,3.07988e-03,9.99999e-01
5.559299443e-01,3.45230e-03,9.99999e-01,9.99999e-01,9.99922e-01,3.45257e-03,9.99999e-01
5.587095940e-01,3.86143e-03,9.99999e-01,9.99999e-01,9.99950e-01,3.86162e-03,9.99999e-01
5.615031420e-01,4.30937e-03,9.99999e-01,9.99999e-01,9.99945e-01,4.30960e-03,9.99999e-01
5.643106577e-01,4.79883e-03,9.99999e-01,9.99999e-01,9.99937e-01,4.79913e-03,9.99998e-01
5.671322110e-01,5.32881e-03,9.99999e-01,9.99999e-01,9.99234e-01,5.33293e-03,9.99992e-01
5.699678720e-01,5.90898e-03,9.99999e-01,9.99999e-01,9.99212e-01,5.91376e-03,9.99979e-01
5.728177114e-01,6.53893e-03,9.99999e-01,9.99999e-01,9.99168e-01,6.54447e-03,9.99982e-01
5.756818000e-01,7.22241e-03,9.99999e-01,9.99999e-01,9.99239e-01,7.22798e-03,9.99989e-01
5.785602090e-01,7.96192e-03,9.99999e-01,9.99999e-01,9.99338e-01,7.96721e-03,9.99996e-01
5.814530100e-01,8.75933e-03,9.99999e-01,9.99999e-01,9.99333e-01,8.76518e-03,9.99998e-01
5.843602750e-01,9.61715e-03,9.99999e-01,9.99999e-01,9.99198e-01,9.62490e-03,9.99995e-01
5.872820764e-01,1.04764e-02,9.99999e-01,9.99999e-01,9.93120e-01,1.05494e-02,9.99951e-01
5.902184868e-01,1.14452e-02,9.99999e-01,9.99999e-01,9.91755e-01,1.15418e-02,9.99868e-01
5.931695792e-01,1.25299e-02,9.99999e-01,9.99999e-01,9.94150e-01,1.26052e-02,9.99873e-01
5.961354271e-01,1.36537e-02,9.99999e-01,9.99999e-01,9.93604e-01,1.37426e-02,9.99927e-01
5.991161043e-01,1.48870e-02,9.99999e-01,9.99999e-01,9.95338e-01,1.49571e-02,9.99977e-01
6.021116848e-01,1.62087e-02,9.99999e-01,9.99999e-01,9.97356e-01,1.62517e-02,9.99997e-01
6.051222432e-01,1.76058e-02,9.99999e-01,9.99999e-01,9.98662e-01,1.76294e-02,9.99999e-01
6.081478544e-01,1.90822e-02,9.99999e-01,9.99999e-01,9.99422e-01,1.90932e-02,9.99999e-01
6.111885937e-01,2.06409e-02,9.99999e-01,9.99999e-01,9.99756e-01,2.06460e-02,9.99999e-01
6.142445367e-01,2.22882e-02,9.99999e-01,9.99999e-01,9.99890e-01,2.22906e-02,9.99999e-01
6.173157594e-01,2.40284e-02,9.99999e-01,9.99999e-01,9.99939e-01,2.40298e-02,9.99999e-01
6.204023382e-01,2.58650e-02,9.99999e-01,9.99999e-01,9.99948e-01,2.58663e-02,9.99999e-01
6.235043498e-01,2.77963e-02,9.99999e-01,9.99999e-01,9.99769e-01,2.78027e-02,9.99998e-01
6.266218716e-01,2.98056e-02,9.99999e-01,9.99999e-01,9.98806e-01,2.98414e-02,9.99991e-01
6.297549810e-01,3.19704e-02,9.99999e-01,9.99999e-01,9.99561e-01,3.19850e-02,9.99982e-01
6.329037559e-01,3.42056e-02,9.99999e-01,9.99999e-01,9.99137e-01,3.42355e-02,9.99986e-01
6.360682746e-01,3.65680e-02,9.99999e-01,9.99999e-01,9.99261e-01,3.65952e-02,9.99991e-01
6.392486160e-01,3.90288e-02,9.99999e-01,9.99999e-01,9.99045e-01,3.90662e-02,9.99995e-01
6.424448591e-01,4.15962e-02,9.99999e-01,9.99999e-01,9.98710e-01,4.16501e-02,9.99993e-01
6.456570834e-01,4.40824e-02,9.99999e-01,9.99999e-01,9.94028e-01,4.43488e-02,9.99963e-01
6.488853688e-01,4.69560e-02,9.99999e-01,9.99999e-01,9.95682e-01,4.71639e-02,9.99907e-01
6.521297956e-01,4.98725e-02,9.99999e-01,9.99999e-01,9.95600e-01,5.00967e-02,9.99923e-01
6.553904446e-01,5.29114e-02,9.99999e-01,9.99999e-01,9.95594e-01,5.31485e-02,9.99943e-01
6.586673968e-01,5.61079e-02,9.99999e-01,9.99999e-01,9.96246e-01,5.63204e-02,9.99980e-01
6.619607338e-01,5.94883e-02,9.99999e-01,9.99999e-01,9.97907e-01,5.96133e-02,9.99995e-01
6.652705375e-01,6.29487e-02,9.99999e-01,9.99999e-01,9.98743e-01,6.30279e-02,9.99997e-01
6.685968902e-01,6.65294e-02,9.99999e-01,9.99999e-01,9.99466e-01,6.65649e-02,9.99999e-01
6.719398746e-01,7.02056e-02,9.99999e-01,9.99999e-01,9.99729e-01,7.02246e-02,9.99999e-01
6.752995740e-01,7.39966e-02,9.99999e-01,9.99999e-01,9.99856e-01,7.40072e-02,9.99999e-01
6.786760719e-01,7.78960e-02,9.99999e-01,9.99999e-01,9.99785e-01,7.79127e-02,9.99999e-01
6.820694522e-01,8.19108e-02,9.99999e-01,9.99999e-01,9.99631e-01,8.19411e-02,9.99997e-01
6.854797995e-01,8.60512e-02,9.99999e-01,9.99999e-01,9.99529e-01,8.60920e-02,9.99995e-01
6.889071985e-01,9.02595e-02,9.99999e-01,9.99999e-01,9.98842e-01,9.03650e-02,9.99989e-01
6.923517345e-01,9.29940e-02,9.99999e-01,9.99999e-01,9.81457e-01,9.47592e-02,9.99910e-01
6.958134932e-01,9.83173e-02,9.99999e-01,9.99999e-01,9.90556e-01,9.92741e-02,9.99802e-01
6.992925606e-01,1.02934e-01,9.99999e-01,9.99999e-01,9.90800e-01,1.03908e-01,9.99822e-01
7.027890234e-01,1.07425e-01,9.99999e-01,9.99999e-01,9.88760e-01,1.08661e-01,9.99864e-01
7.063029686e-01,1.12448e-01,9.99999e-01,9.99999e-01,9.90531e-01,1.13531e-01,9.99932e-01
7.098344834e-01,1.17435e-01,9.99999e-01,9.99999e-01,9.90913e-01,1.18516e-01,9.99959e-01
7.133836558e-01,1.22090e-01,9.99999e-01,9.99999e-01,9.87734e-01,1.23616e-01,9.99920e-01
7.169505741e-01,1.16704e-01,9.99999e-01,9.99999e-01,9.06460e-01,1.28827e-01,9.99376e-01
7.205353270e-01,1.27840e-01,9.99999e-01,9.99999e-01,9.54020e-01,1.34149e-01,9.98900e-01
7.241380036e-01,1.31197e-01,9.99999e-01,9.99999e-01,9.40839e-01,1.39579e-01,9.99050e-01
7.277586936e-01,1.37249e-01,9.99999e-01,9.99999e-01,9.46530e-01,1.45115e-01,9.99223e-01
7.313974871e-01,1.42200e-01,9.99999e-01,9.99999e-01,9.43597e-01,1.50754e-01,9.99636e-01
7.350544745e-01,1.51579e-01,9.99999e-01,9.99999e-01,9.68710e-01,1.56495e-01,9.99873e-01
7.387297469e-01,1.58574e-01,9.99999e-01,9.99999e-01,9.76889e-01,1.62335e-01,9.99941e-01
7.424233956e-01,1.66360e-01,9.99999e-01,9.99999e-01,9.88655e-01,1.68270e-01,9.99989e-01
7.461355126e-01,1.73096e-01,9.99999e-01,9.99999e-01,9.93098e-01,1.74299e-01,9.99997e-01
7.498661902e-01,1.79840e-01,9.99999e-01,9.99999e-01,9.96792e-01,1.80419e-01,9.99998e-01
7.536155211e-01,1.86331e-01,9.99999e-01,9.99999e-01,9.98419e-01,1.86626e-01,9.99999e-01
7.573835987e-01,1.92761e-01,9.99999e-01,9.99999e-01,9.99186e-01,1.92918e-01,9.99999e-01
7.611705167e-01,1.99190e-01,9.99999e-01,9.99999e-01,9.99494e-01,1.99291e-01,9.99999e-01
7.649763693e-01,2.05678e-01,9.99999e-01,9.99999e-01,9.99682e-01,2.05743e-01,9.99999e-01
7.688012511e-01,2.12223e-01,9.99999e-01,9.99999e-01,9.99778e-01,2.12270e-01,9.99999e-01
7.726452574e-01,2.18829e-01,9.99999e-01,9.99999e-01,9.99817e-01,2.18869e-01,9.99999e-01
7.765084837e-01,2.25478e-01,9.99999e-01,9.99999e-01,9.99738e-01,2.25537e-01,9.99999e-01
7.803910261e-01,2.17144e-01,9.99999e-01,9.35874e-01,9.98868e-01,2.32270e-01,9.99998e-01
7.842929812e-01,1.77742e-01,9.99999e-01,7.46183e-01,9.96054e-01,2.39065e-01,9.99992e-01
7.882144461e-01,1.78328e-01,9.99999e-01,7.30640e-01,9.91967e-01,2.45919e-01,9.99944e-01
7.921555184e-01,2.08567e-01,9.99999e-01,8.28487e-01,9.95615e-01,2.52828e-01,9.99903e-01
7.961162960e-01,2.27356e-01,9.99999e-01,8.82036e-01,9.92157e-01,2.59789e-01,9.99908e-01
8.000968774e-01,2.46946e-01,9.99999e-01,9.34032e-01,9.91006e-01,2.66798e-01,9.99902e-01
8.040973618e-01,2.61985e-01,9.99999e-01,9.65398e-01,9.90988e-01,2.73853e-01,9.99925e-01
8.081178486e-01,2.70796e-01,9.99999e-01,9.83885e-01,9.79663e-01,2.80949e-01,9.99924e-01
8.121584379e-01,2.63168e-01,9.99999e-01,9.95057e-01,9.18220e-01,2.88084e-01,9.99715e-01
8.162192301e-01,2.66588e-01,9.99999e-01,9.98905e-01,9.04831e-01,2.95253e-01,9.98930e-01
8.203003262e-01,2.87201e-01,9.99999e-01,9.99984e-01,9.50768e-01,3.02454e-01,9.98748e-01
8.244018279e-01,2.88954e-01,9.99999e-01,9.99999e-01,9.33991e-01,3.09683e-01,9.99003e-01
8.285238370e-01,2.98179e-01,9.99999e-01,9.99999e-01,9.41550e-01,3.16937e-01,9.99217e-01
8.326664562e-01,3.05067e-01,9.99999e-01,9.99999e-01,9.41248e-01,3.24213e-01,9.99675e-01
8.368297885e-01,3.17460e-01,9.99999e-01,9.99999e-01,9.57698e-01,3.31507e-01,9.99925e-01
8.410139374e-01,3.30215e-01,9.99999e-01,9.99999e-01,9.74655e-01,3.38816e-01,9.99956e-01
8.452190071e-01,3.41806e-01,9.99999e-01,9.99999e-01,9.87510e-01,3.46138e-01,9.99973e-01
8.494451021e-01,3.50881e-01,9.99999e-01,9.99999e-01,9.92703e-01,3.53468e-01,9.99978e-01
8.536923276e-01,3.59246e-01,9.99999e-01,9.99999e-01,9.95696e-01,3.60804e-01,9.99986e-01
8.579607893e-01,3.67162e-01,9.99999e-01,9.99999e-01,9.97338e-01,3.68142e-01,9.99996e-01
8.622505932e-01,3.74848e-01,9.99999e-01,9.99999e-01,9.98313e-01,3.75481e-01,9.99998e-01
8.665618462e-01,3.39450e-01,9.99999e-01,8.87593e-01,9.98951e-01,3.82817e-01,9.99999e-01
8.708946554e-01,1.86876e-01,9.99999e-01,4.79531e-01,9.98796e-01,3.90147e-01,9.99998e-01
8.752491287e-01,2.17859e-01,9.99999e-01,5.48956e-01,9.98392e-01,3.97468e-01,9.99997e-01
8.796253743e-01,2.89316e-01,9.99999e-01,7.16267e-01,9.97765e-01,4.04778e-01,9.99994e-01
8.840235012e-01,3.45186e-01,9.99999e-01,8.39771e-01,9.97451e-01,4.12074e-01,9.99984e-01
8.884436187e-01,3.87853e-01,9.99999e-01,9.33585e-01,9.90538e-01,4.19354e-01,9.99955e-01
8.928858368e-01,3.76099e-01,9.99999e-01,9.72465e-01,9.06340e-01,4.26614e-01,9.99745e-01
8.973502660e-01,3.62561e-01,9.99999e-01,9.93284e-01,8.42193e-01,4.33854e-01,9.98699e-01
9.018370173e-01,4.03288e-01,9.99999e-01,9.99260e-01,9.16850e-01,4.41069e-01,9.97956e-01
9.063462024e-01,4.06305e-01,9.99999e-01,9.80550e-01,9.24944e-01,4.48258e-01,9.98204e-01
9.108779334e-01,3.85805e-01,9.99999e-01,9.56794e-01,8.86125e-01,4.55420e-01,9.98134e-01
9.154323231e-01,3.98697e-01,9.99999e-01,9.89819e-01,8.71796e-01,4.62550e-01,9.98457e-01
9.200094847e-01,3.68678e-01,9.99999e-01,8.65634e-01,8.98533e-01,4.69648e-01,9.99136e-01
9.246095321e-01,3.26497e-01,9.99999e-01,8.05858e-01,8.44887e-01,4.76712e-01,9.99004e-01
9.292325798e-01,1.41836e-01,9.99999e-01,8.43936e-01,3.39033e-01,4.83739e-01,9.95205e-01
9.338787427e-01,1.06414e-01,9.99999e-01,8.49500e-01,2.52898e-01,4.90728e-01,9.82779e-01
9.385481364e-01,2.50935e-01,9.99999e-01,8.86567e-01,5.72797e-01,4.97677e-01,9.81095e-01
9.432408771e-01,2.15658e-01,9.99999e-01,9.28971e-01,4.64475e-01,5.04584e-01,9.83669e-01
9.479570815e-01,1.70811e-01,9.99999e-01,9.62806e-01,3.50326e-01,5.11448e-01,9.86688e-01
9.526968669e-01,2.27641e-01,9.99999e-01,9.81946e-01,4.49817e-01,5.18267e-01,9.91859e-01
9.574603512e-01,2.44410e-01,9.99999e-01,9.92245e-01,4.70654e-01,5.25039e-01,9.95856e-01
9.622476530e-01,2.85510e-01,9.99999e-01,9.97578e-01,5.39616e-01,5.31764e-01,9.97132e-01
9.670588912e-01,3.75441e-01,9.99999e-01,9.99275e-01,6.99047e-01,5.38439e-01,9.98120e-01
9.718941857e-01,4.33744e-01,9.99999e-01,9.99949e-01,7.96949e-01,5.45063e-01,9.98560e-01
9.767536566e-01,4.56304e-01,9.99999e-01,9.99999e-01,8.28097e-01,5.51636e-01,9.98895e-01
9.816374249e-01,4.85216e-01,9.99999e-01,9.99999e-01,8.69650e-01,5.58156e-01,9.99617e-01
9.865456120e-01,5.17360e-01,9.99999e-01,9.99999e-01,9.16366e-01,5.64622e-01,9.99919e-01
9.914783401e-01,5.40968e-01,9.99999e-01,9.99999e-01,9.47370e-01,5.71033e-01,9.99977e-01
9.964357318e-01,5.60634e-01,9.99999e-01,9.99999e-01,9.70994e-01,5.77388e-01,9.99986e-01
1.001417910e+00,5.73474e-01,9.99999e-01,9.99999e-01,9.82523e-01,5.83686e-01,9.99979e-01
1.006425000e+00,5.83996e-01,9.99999e-01,9.99999e-01,9.89973e-01,5.89927e-01,9.99971e-01
1.011457125e+00,5.92388e-01,9.99999e-01,9.99999e-01,9.93784e-01,5.96109e-01,9.99973e-01
1.016514411e+00,5.99673e-01,9.99999e-01,9.99999e-01,9.95769e-01,6.02231e-01,9.99981e-01
1.021596983e+00,6.06157e-01,9.99999e-01,9.99878e-01,9.96624e-01,6.08294e-01,9.99981e-01
1.026704968e+00,6.07951e-01,9.99999e-01,9.92288e-01,9.97365e-01,6.14296e-01,9.99988e-01
1.031838492e+00,5.72280e-01,9.99999e-01,9.24364e-01,9.98089e-01,6.20237e-01,9.99996e-01
1.036997685e+00,4.89603e-02,9.99999e-01,7.82648e-02,9.98861e-01,6.26117e-01,9.99998e-01
1.042182673e+00,1.24641e-02,9.99999e-01,1.97458e-02,9.98637e-01,6.31934e-01,9.99999e-01
1.047393587e+00,2.25825e-02,9.99999e-01,3.54676e-02,9.98197e-01,6.37689e-01,9.99999e-01
1.052630555e+00,3.97661e-05,9.99999e-01,6.19100e-05,9.97522e-01,6.43381e-01,9.99998e-01
1.057893707e+00,1.42425e-04,9.99999e-01,2.19976e-04,9.95859e-01,6.49010e-01,9.99998e-01
1.063183176e+00,1.22362e-03,9.99999e-01,1.87736e-03,9.93203e-01,6.54576e-01,9.99995e-01
1.068499092e+00,6.68960e-03,9.99999e-01,1.02209e-02,9.88664e-01,6.60078e-01,9.99991e-01
1.073841587e+00,3.57004e-02,9.99999e-01,5.42060e-02,9.86719e-01,6.65516e-01,9.99982e-01
1.079210795e+00,1.04848e-01,9.99999e-01,1.58556e-01,9.83074e-01,6.70891e-01,9.99954e-01
1.084606849e+00,2.36178e-01,9.99999e-01,3.57700e-01,9.74441e-01,6.76201e-01,9.99890e-01
1.090029883e+00,3.84365e-01,9.99999e-01,5.84533e-01,9.63242e-01,6.81447e-01,9.99772e-01
1.095480033e+00,4.76840e-01,9.99999e-01,7.67501e-01,9.03271e-01,6.86629e-01,9.99589e-01
1.100957433e+00,4.71538e-01,9.99999e-01,8.79950e-01,7.73204e-01,6.91747e-01,9.99245e-01
1.106462220e+00,3.48305e-01,9.99999e-01,9.48546e-01,5.25785e-01,6.96801e-01,9.98720e-01
1.111994531e+00,1.82903e-01,9.99999e-01,9.80597e-01,2.66017e-01,7.01791e-01,9.96607e-01
1.117554504e+00,8.49723e-02,9.99999e-01,9.95258e-01,1.22121e-01,7.06717e-01,9.87806e-01
1.123142276e+00,1.58264e-01,9.99999e-01,9.99690e-01,2.28995e-01,7.11580e-01,9.71324e-01
1.128757988e+00,2.56789e-01,9.99999e-01,9.99999e-01,3.70723e-01,7.16378e-01,9.66902e-01
1.134401778e+00,1.24592e-01,9.99999e-01,9.99999e-01,1.77793e-01,7.21114e-01,9.71786e-01
1.140073787e+00,3.85792e-01,9.99999e-01,9.99999e-01,5.43844e-01,7.25786e-01,9.77393e-01
1.145774156e+00,2.10400e-01,9.99999e-01,9.99999e-01,2.94155e-01,7.30395e-01,9.79286e-01
1.151503026e+00,1.87763e-01,9.99999e-01,9.99999e-01,2.58476e-01,7.34942e-01,9.88407e-01
1.157260541e+00,2.27575e-01,9.99999e-01,9.99999e-01,3.08848e-01,7.39426e-01,9.96519e-01
1.163046844e+00,3.10811e-01,9.99999e-01,9.99999e-01,4.18255e-01,7.43848e-01,9.99011e-01
1.168862078e+00,4.04393e-01,9.99999e-01,9.99999e-01,5.40759e-01,7.48209e-01,9.99484e-01
1.174706389e+00,5.14217e-01,9.99999e-01,9.99999e-01,6.83821e-01,7.52508e-01,9.99290e-01
1.180579921e+00,5.99475e-01,9.99999e-01,9.99999e-01,7.92982e-01,7.56747e-01,9.98979e-01
1.186482820e+00,6.66374e-01,9.99999e-01,9.99980e-01,8.76673e-01,7.60924e-01,9.98952e-01
1.192415234e+00,6.89122e-01,9.99999e-01,9.73023e-01,9.25903e-01,7.65042e-01,9.99215e-01
1.198377311e+00,3.91228e-01,9.99999e-01,5.37382e-01,9.37063e-01,7.69100e-01,9.99255e-01
1.204369197e+00,2.70267e-20,9.99999e-01,3.62461e-20,9.40478e-01,7.73099e-01,9.99351e-01
1.210391043e+00,1.01223e-79,9.99999e-01,1.34645e-79,9.42974e-01,7.77038e-01,9.99591e-01
1.216442998e+00,4.29546e-69,9.99999e-01,5.67475e-69,9.51399e-01,7.80920e-01,9.99749e-01
1.222525213e+00,4.60009e-68,9.99999e-01,5.98149e-68,9.61894e-01,7.84744e-01,9.99844e-01
1.228637839e+00,1.24500e-52,9.99999e-01,1.60820e-52,9.73360e-01,7.88510e-01,9.99927e-01
