#,Wave/freq,Total,N2,CO2,H2O,Rayleigh,CIA
4.000000000e-01,1.71846e-11,9.99999e-01,9.99999e-01,9.99951e-01,1.71854e-11,9.99999e-01
4.020000000e-01,2.80544e-11,9.99999e-01,9.99999e-01,9.99969e-01,2.80552e-11,9.99999e-01
4.040100000e-01,4.53353e-11,9.99999e-01,9.99999e-01,9.99986e-01,4.53358e-11,9.99999e-01
4.060300500e-01,7.25690e-11,9.99999e-01,9.99999e-01,9.99996e-01,7.25692e-11,9.99999e-01
4.080602003e-01,1.15087e-10,9.99999e-01,9.99999e-01,9.99998e-01,1.15087e-10,9.99999e-01
4.101005013e-01,1.80862e-10,9.99999e-01,9.99999e-01,9.99999e-01,1.80862e-10,9.99999e-01
4.121510038e-01,2.81701e-10,9.99999e-01,9.99999e-01,9.99997e-01,2.81701e-10,9.99999e-01
4.142117588e-01,4.34934e-10,9.99999e-01,9.99999e-01,9.99986e-01,4.34940e-10,9.99999e-01
4.162828176e-01,6.65760e-10,9.99999e-01,9.99999e-01,9.99940e-01,6.65799e-10,9.99999e-01
4.183642317e-01,1.01062e-09,9.99999e-01,9.99999e-01,9.99964e-01,1.01066e-09,9.99999e-01
4.204560528e-01,1.52152e-09,9.99999e-01,9.99999e-01,9.99977e-01,1.52155e-09,9.99999e-01
4.225583331e-01,2.27224e-09,9.99999e-01,9.99999e-01,9.99991e-01,2.27226e-09,9.99999e-01
4.246711247e-01,3.36656e-09,9.99999e-01,9.99999e-01,9.99993e-01,3.36658e-09,9.99999e-01
4.267944804e-01,4.94930e-09,9.99999e-01,9.99999e-01,9.99990e-01,4.94935e-09,9.99999e-01
4.289284528e-01,7.22102e-09,9.99999e-01,9.99999e-01,9.99992e-01,7.22107e-09,9.99999e-01
4.310730950e-01,1.04571e-08,9.99999e-01,9.99999e-01,9.99996e-01,1.04572e-08,9.99999e-01
4.332284605e-01,1.50332e-08,9.99999e-01,9.99999e-01,9.99998e-01,1.50332e-08,9.99999e-01
4.353946028e-01,2.14572e-08,9.99999e-01,9.99999e-01,9.99999e-01,2.14572e-08,9.99999e-01
4.375715758e-01,3.04117e-08,9.99999e-01,9.99999e-01,9.99993e-01,3.04119e-08,9.99999e-01
4.397594337e-01,4.28055e-08,9.99999e-01,9.99999e-01,9.99948e-01,4.28077e-08,9.99999e-01
4.419582309e-01,5.98349e-08,9.99999e-01,9.99999e-01,9.99738e-01,5.98505e-08,9.99999e-01
4.441680220e-01,8.31092e-08,9.99999e-01,9.99999e-01,9.99793e-01,8.31263e-08,9.99999e-01
4.463888621e-01,1.14683e-07,9.99999e-01,9.99999e-01,9.99785e-01,1.14707e-07,9.99999e-01
4.486208064e-01,1.57262e-07,9.99999e-01,9.99999e-01,9.99866e-01,1.57283e-07,9.99999e-01
4.508639105e-01,2.14307e-07,9.99999e-01,9.99999e-01,9.99937e-01,2.14321e-07,9.99999e-01
4.531182300e-01,2.90256e-07,9.99999e-01,9.99999e-01,9.99974e-01,2.90263e-07,9.99999e-01
4.553838212e-01,3.90761e-07,9.99999e-01,9.99999e-01,9.99982e-01,3.90767e-07,9.99999e-01
4.576607403e-01,5.22986e-07,9.99999e-01,9.99999e-01,9.99991e-01,5.22990e-07,9.99999e-01
4.599490440e-01,6.95932e-07,9.99999e-01,9.99999e-01,9.99994e-01,6.95935e-07,9.99999e-01
4.622487892e-01,9.20859e-07,9.99999e-01,9.99999e-01,9.99998e-01,9.20860e-07,9.99999e-01
4.645600332e-01,1.21175e-06,9.99999e-01,9.99999e-01,9.99995e-01,1.21176e-06,9.99999e-01
4.668828333e-01,1.58583e-06,9.99999e-01,9.99999e-01,9.99936e-01,1.58593e-06,9.99999e-01
4.692172475e-01,2.06435e-06,9.99999e-01,9.99999e-01,9.99865e-01,2.06463e-06,9.99999e-01
4.715633337e-01,2.67362e-06,9.99999e-01,9.99999e-01,9.99911e-01,2.67385e-06,9.99999e-01
4.739211504e-01,3.44492e-06,9.99999e-01,9.99999e-01,9.99915e-01,3.44521e-06,9.99999e-01
4.762907561e-01,4.41672e-06,9.99999e-01,9.99999e-01,9.99955e-01,4.41691e-06,9.99999e-01
4.786722099e-01,5.63486e-06,9.99999e-01,9.99999e-01,9.99981e-01,5.63496e-06,9.99999e-01
4.810655710e-01,7.15437e-06,9.99999e-01,9.99999e-01,9.99994e-01,7.15441e-06,9.99999e-01
4.834708988e-01,9.04038e-06,9.99999e-01,9.99999e-01,9.99948e-01,9.04084e-06,9.99999e-01
4.858882533e-01,1.13709e-05,9.99999e-01,9.99999e-01,9.99904e-01,1.13720e-05,9.99999e-01
4.883176946e-01,1.42384e-05,9.99999e-01,9.99999e-01,9.99920e-01,1.42395e-05,9.99999e-01
4.907592831e-01,1.77499e-05,9.99999e-01,9.99999e-01,9.99927e-01,1.77511e-05,9.99999e-01
4.932130795e-01,2.20315e-05,9.99999e-01,9.99999e-01,9.99948e-01,2.20326e-05,9.99999e-01
4.956791449e-01,2.72295e-05,9.99999e-01,9.99999e-01,9.99972e-01,2.72303e-05,9.99999e-01
4.981575406e-01,3.35091e-05,9.99999e-01,9.99999e-01,9.99864e-01,3.35136e-05,9.99999e-01
5.006483283e-01,4.10636e-05,9.99999e-01,9.99999e-01,9.99651e-01,4.10779e-05,9.99997e-01
5.031515699e-01,5.00580e-05,9.99999e-01,9.99999e-01,9.98229e-01,5.01477e-05,9.99980e-01
5.056673278e-01,6.09208e-05,9.99999e-01,9.99999e-01,9.99063e-01,6.09792e-05,9.99978e-01
5.081956644e-01,7.37761e-05,9.99999e-01,9.99999e-01,9.98818e-01,7.38643e-05,9.99985e-01
5.107366428e-01,8.90626e-05,9.99999e-01,9.99999e-01,9.99201e-01,8.91340e-05,9.99996e-01
5.132903260e-01,1.07113e-04,9.99999e-01,9.99999e-01,9.99543e-01,1.07162e-04,9.99999e-01
5.158567776e-01,1.28343e-04,9.99999e-01,9.99999e-01,9.99806e-01,1.28368e-04,9.99999e-01
5.184360615e-01,1.53211e-04,9.99999e-01,9.99999e-01,9.99922e-01,1.53223e-04,9.99999e-01
5.210282418e-01,1.82247e-04,9.99999e-01,9.99999e-01,9.99970e-01,1.82252e-04,9.99999e-01
5.236333830e-01,2.16015e-04,9.99999e-01,9.99999e-01,9.99884e-01,2.16040e-04,9.99998e-01
5.262515499e-01,2.55214e-04,9.99999e-01,9.99999e-01,9.99927e-01,2.55233e-04,9.99998e-01
5.288828077e-01,3.00524e-04,9.99999e-01,9.99999e-01,9.99933e-01,3.00544e-04,9.99998e-01
5.315272217e-01,3.52738e-04,9.99999e-01,9.99999e-01,9.99941e-01,3.52759e-04,9.99999e-01
5.341848578e-01,4.12722e-04,9.99999e-01,9.99999e-01,9.99961e-01,4.12738e-04,9.99999e-01
5.368557821e-01,4.81354e-04,9.99999e-01,9.99999e-01,9.99865e-01,4.81419e-04,9.99999e-01
5.395400610e-01,5.59551e-04,9.99999e-01,9.99999e-01,9.99517e-01,5.59824e-04,9.99995e-01
5.422377613e-01,6.48646e-04,9.99999e-01,9.99999e-01,9.99371e-01,6.49061e-04,9.99988e-01
5.449489501e-01,7.49882e-04,9.99999e-01,9.99999e-01,9.99417e-01,7.50327e-04,9.99987e-01
5.476736949e-01,8.64460e-04,9.99999e-01,9.99999e-01,9.99481e-01,8.64912e-04,9.99993e-01
5.504120634e-01,9.93827e-04,9.99999e-01,9.99999e-01,9.99623e-01,9.94202e-04,9.99997e-01
5.531641237e-01,1.13946e-03,9.99999e-01,9.99999e-01,9.99810e-01,1.13968e-03,9.99999e-01
5.559299443e-01,1.30280e-03,9.99999e-01,9.99999e-01,9.99908e-01,1.30292e-03,9.99999e-01
5.587095940e-01,1.48553e-03,9.99999e-01,9.99999e-01,9.99942e-01,1.48561e-03,9.99999e-01
5.615031420e-01,1.68943e-03,9.99999e-01,9.99999e-01,9.99935e-01,1.68953e-03,9.99999e-01
5.643106577e-01,1.91644e-03,9.99999e-01,9.99999e-01,9.99928e-01,1.91657e-03,9.99998e-01
5.671322110e-01,2.16682e-03,9.99999e-01,9.99999e-01,9.99132e-01,2.16871e-03,9.99991e-01
5.699678720e-01,2.44569e-03,9.99999e-01,9.99999e-01,9.99062e-01,2.44804e-03,9.99975e-01
5.728177114e-01,2.75402e-03,9.99999e-01,9.99999e-01,9.99030e-01,2.75674e-03,9.99979e-01
5.756818000e-01,3.09430e-03,9.99999e-01,9.99999e-01,9.99108e-01,3.09710e-03,9.99987e-01
5.785602090e-01,3.46877e-03,9.99999e-01,9.99999e-01,9.99222e-01,3.47148e-03,9.99995e-01
5.814530100e-01,3.87932e-03,9.99999e-01,9.99999e-01,9.99219e-01,3.88236e-03,9.99997e-01
5.843602750e-01,4.32825e-03,9.99999e-01,9.99999e-01,9.99074e-01,4.33228e-03,9.99994e-01
5.872820764e-01,4.78525e-03,9.99999e-01,9.99999e-01,9.92044e-01,4.82389e-03,9.99943e-01
5.902184868e-01,5.30716e-03,9.99999e-01,9.99999e-01,9.90312e-01,5.35989e-03,9.99846e-01
5.931695792e-01,5.90156e-03,9.99999e-01,9.99999e-01,9.93162e-01,5.94307e-03,9.99850e-01
5.961354271e-01,6.52634e-03,9.99999e-01,9.99999e-01,9.92495e-01,6.57627e-03,9.99909e-01
5.991161043e-01,7.22240e-03,9.99999e-01,9.99999e-01,9.94518e-01,7.26240e-03,9.99973e-01
6.021116848e-01,7.97944e-03,9.99999e-01,9.99999e-01,9.96884e-01,8.00440e-03,9.99996e-01
6.051222432e-01,8.79139e-03,9.99999e-01,9.99999e-01,9.98421e-01,8.80529e-03,9.99999e-01
6.081478544e-01,9.66150e-03,9.99999e-01,9.99999e-01,9.99319e-01,9.66807e-03,9.99999e-01
6.111885937e-01,1.05928e-02,9.99999e-01,9.99999e-01,9.99711e-01,1.05958e-02,9.99999e-01
6.142445367e-01,1.15901e-02,9.99999e-01,9.99999e-01,9.99870e-01,1.15916e-02,9.99999e-01
6.173157594e-01,1.26576e-02,9.99999e-01,9.99999e-01,9.99928e-01,1.26585e-02,9.99999e-01
6.204023382e-01,1.37987e-02,9.99999e-01,9.99999e-01,9.99939e-01,1.37995e-02,9.99999e-01
6.235043498e-01,1.50139e-02,9.99999e-01,9.99999e-01,9.99738e-01,1.50178e-02,9.99998e-01
6.266218716e-01,1.62934e-02,9.99999e-01,9.99999e-01,9.98603e-01,1.63163e-02,9.99989e-01
6.297549810e-01,1.76887e-02,9.99999e-01,9.99999e-01,9.99487e-01,1.76981e-02,9.99979e-01
6.329037559e-01,1.91464e-02,9.99999e-01,9.99999e-01,9.98986e-01,1.91662e-02,9.99983e-01
6.360682746e-01,2.07053e-02,9.99999e-01,9.99999e-01,9.99138e-01,2.07233e-02,9.99990e-01
6.392486160e-01,2.23474e-02,9.99999e-01,9.99999e-01,9.98882e-01,2.23724e-02,9.99995e-01
6.424448591e-01,2.40803e-02,9.99999e-01,9.99999e-01,9.98511e-01,2.41163e-02,9.99992e-01
6.456570834e-01,2.57776e-02,9.99999e-01,9.99999e-01,9.93104e-01,2.59576e-02,9.99961e-01
6.488853688e-01,2.77541e-02,9.99999e-01,9.99999e-01,9.94918e-01,2.78989e-02,9.99891e-01
6.521297956e-01,2.97849e-02,9.99999e-01,9.99999e-01,9.94820e-01,2.99426e-02,9.99909e-01
6.553904446e-01,3.19248e-02,9.99999e-01,9.99999e-01,9.94878e-01,3.20913e-02,9.99931e-01
6.586673968e-01,3.41946e-02,9.99999e-01,9.99999e-01,9.95581e-01,3.43470e-02,9.99977e-01
6.619607338e-01,3.66181e-02,9.99999e-01,9.99999e-01,9.97443e-01,3.67121e-02,9.99994e-01
6.652705375e-01,3.91303e-02,9.99999e-01,9.99999e-01,9.98517e-01,3.91884e-02,9.99997e-01
6.685968902e-01,4.17491e-02,9.99999e-01,9.99999e-01,9.99311e-01,4.17779e-02,9.99999e-01
6.719398746e-01,4.44680e-02,9.99999e-01,9.99999e-01,9.99680e-01,4.44822e-02,9.99999e-01
6.752995740e-01,4.72947e-02,9.99999e-01,9.99999e-01,9.99827e-01,4.73029e-02,9.99999e-01
6.786760719e-01,5.02290e-02,9.99999e-01,9.99999e-01,9.99751e-01,5.02414e-02,9.99999e-01
6.820694522e-01,5.32762e-02,9.99999e-01,9.99999e-01,9.99574e-01,5.32990e-02,9.99997e-01
6.854797995e-01,5.64455e-02,9.99999e-01,9.99999e-01,9.99451e-01,5.64768e-02,9.99994e-01
6.889071985e-01,5.96961e-02,9.99999e-01,9.99999e-01,9.98682e-01,5.97755e-02,9.99987e-01
6.923517345e-01,6.18352e-02,9.99999e-01,9.99999e-01,9.78566e-01,6.31961e-02,9.99895e-01
6.958134932e-01,6.59680e-02,9.99999e-01,9.99999e-01,9.88679e-01,6.67390e-02,9.99764e-01
6.992925606e-01,6.96404e-02,9.99999e-01,9.99999e-01,9.89349e-01,7.04046e-02,9.99792e-01
7.027890234e-01,7.32027e-02,9.99999e-01,9.99999e-01,9.86806e-01,7.41931e-02,9.99841e-01
7.063029686e-01,7.72316e-02,9.99999e-01,9.99999e-01,9.88900e-01,7.81046e-02,9.99920e-01
7.098344834e-01,8.12601e-02,9.99999e-01,9.99999e-01,9.89346e-01,8.21389e-02,9.99952e-01
7.133836558e-01,8.50740e-02,9.99999e-01,9.99999e-01,9.85933e-01,8.62957e-02,9.99906e-01
7.169505741e-01,8.07800e-02,9.99999e-01,9.99999e-01,8.92512e-01,9.05746e-02,9.99269e-01
7.205353270e-01,8.96599e-02,9.99999e-01,9.99999e-01,9.45255e-01,9.49747e-02,9.98712e-01
7.241380036e-01,9.25732e-02,9.99999e-01,9.99999e-01,9.31462e-01,9.94953e-02,9.98888e-01
7.277586936e-01,9.75820e-02,9.99999e-01,9.99999e-01,9.37919e-01,1.04135e-01,9.99090e-01
7.313974871e-01,1.01640e-01,9.99999e-01,9.99999e-01,9.33782e-01,1.08894e-01,9.99573e-01
7.350544745e-01,1.09576e-01,9.99999e-01,9.99999e-01,9.63281e-01,1.13769e-01,9.99851e-01
7.387297469e-01,1.15524e-01,9.99999e-01,9.99999e-01,9.72818e-01,1.18760e-01,9.99931e-01
7.424233956e-01,1.22202e-01,9.99999e-01,9.99999e-01,9.86589e-01,1.23865e-01,9.99986e-01
7.461355126e-01,1.28031e-01,9.99999e-01,9.99999e-01,9.91859e-01,1.29082e-01,9.99997e-01
7.498661902e-01,1.33897e-01,9.99999e-01,9.99999e-01,9.96196e-01,1.34409e-01,9.99998e-01
7.536155211e-01,1.39583e-01,9.99999e-01,9.99999e-01,9.98135e-01,1.39844e-01,9.99999e-01
7.573835987e-01,1.45245e-01,9.99999e-01,9.99999e-01,9.99039e-01,1.45385e-01,9.99999e-01
7.611705167e-01,1.50939e-01,9.99999e-01,9.99999e-01,9.99403e-01,1.51029e-01,9.99999e-01
7.649763693e-01,1.56716e-01,9.99999e-01,9.99999e-01,9.99626e-01,1.56775e-01,9.99999e-01
7.688012511e-01,1.62577e-01,9.99999e-01,9.99999e-01,9.99739e-01,1.62619e-01,9.99999e-01
7.726452574e-01,1.68523e-01,9.99999e-01,9.99999e-01,9.99785e-01,1.68560e-01,9.99999e-01
7.765084837e-01,1.74540e-01,9.99999e-01,9.99999e-01,9.99697e-01,1.74593e-01,9.99999e-01
7.803910261e-01,1.68199e-01,9.99999e-01,9.31872e-01,9.98693e-01,1.80717e-01,9.99998e-01
7.842929812e-01,1.32096e-01,9.99999e-01,7.09587e-01,9.95447e-01,1.86928e-01,9.99991e-01
7.882144461e-01,1.33266e-01,9.99999e-01,6.95749e-01,9.90594e-01,1.93224e-01,9.99941e-01
7.921555184e-01,1.59507e-01,9.99999e-01,8.03166e-01,9.94819e-01,1.99601e-01,9.99887e-01
7.961162960e-01,1.76042e-01,9.99999e-01,8.62092e-01,9.90915e-01,2.06057e-01,9.99892e-01
8.000968774e-01,1.94081e-01,9.99999e-01,9.22698e-01,9.89476e-01,2.12587e-01,9.99885e-01
8.040973618e-01,2.07993e-01,9.99999e-01,9.59045e-01,9.89482e-01,2.19190e-01,9.99909e-01
8.081178486e-01,2.16376e-01,9.99999e-01,9.81020e-01,9.76548e-01,2.25860e-01,9.99914e-01
8.121584379e-01,2.09431e-01,9.99999e-01,9.94073e-01,9.05951e-01,2.32597e-01,9.99666e-01
8.162192301e-01,2.12262e-01,9.99999e-01,9.98688e-01,8.88889e-01,2.39395e-01,9.98747e-01
8.203003262e-01,2.32132e-01,9.99999e-01,9.99978e-01,9.44061e-01,2.46251e-01,9.98533e-01
8.244018279e-01,2.33155e-01,9.99999e-01,9.99999e-01,9.22041e-01,2.53163e-01,9.98832e-01
8.285238370e-01,2.42270e-01,9.99999e-01,9.99999e-01,9.32210e-01,2.60127e-01,9.99083e-01
8.326664562e-01,2.48719e-01,9.99999e-01,9.99999e-01,9.31403e-01,2.67138e-01,9.99620e-01
8.368297885e-01,2.60558e-01,9.99999e-01,9.99999e-01,9.50347e-01,2.74195e-01,9.99912e-01
8.410139374e-01,2.72890e-01,9.99999e-01,9.99999e-01,9.70176e-01,2.81293e-01,9.99948e-01
8.452190071e-01,2.84167e-01,9.99999e-01,9.99999e-01,9.85251e-01,2.88430e-01,9.99969e-01
8.494451021e-01,2.93062e-01,9.99999e-01,9.99999e-01,9.91434e-01,2.95601e-01,9.99975e-01
8.536923276e-01,3.01259e-01,9.99999e-01,9.99999e-01,9.94917e-01,3.02803e-01,9.99983e-01
8.579607893e-01,3.09063e-01,9.99999e-01,9.99999e-01,9.96872e-01,3.10033e-01,9.99995e-01
8.622505932e-01,3.16657e-01,9.99999e-01,9.99999e-01,9.98009e-01,3.17289e-01,9.99998e-01
8.665618462e-01,2.87234e-01,9.99999e-01,8.86004e-01,9.98771e-01,3.24565e-01,9.99999e-01
8.708946554e-01,1.41887e-01,9.99999e-01,4.28110e-01,9.98594e-01,3.31860e-01,9.99998e-01
8.752491287e-01,1.67937e-01,9.99999e-01,4.96019e-01,9.98119e-01,3.39170e-01,9.99997e-01
8.796253743e-01,2.33393e-01,9.99999e-01,6.75236e-01,9.97401e-01,3.46492e-01,9.99993e-01
8.840235012e-01,2.87097e-01,9.99999e-01,8.13766e-01,9.97030e-01,3.53822e-01,9.99981e-01
8.884436187e-01,3.29320e-01,9.99999e-01,9.21514e-01,9.89322e-01,3.61158e-01,9.99948e-01
8.928858368e-01,3.18411e-01,9.99999e-01,9.67426e-01,8.92851e-01,3.68497e-01,9.99702e-01
8.973502660e-01,3.04561e-01,9.99999e-01,9.91961e-01,8.17866e-01,3.75836e-01,9.98476e-01
9.018370173e-01,3.44552e-01,9.99999e-01,9.99110e-01,9.02117e-01,3.83171e-01,9.97606e-01
9.063462024e-01,3.48851e-01,9.99999e-01,9.78047e-01,9.13873e-01,3.90501e-01,9.97896e-01
9.108779334e-01,3.27771e-01,9.99999e-01,9.49194e-01,8.68671e-01,3.97822e-01,9.97814e-01
9.154323231e-01,3.40452e-01,9.99999e-01,9.87772e-01,8.51788e-01,4.05131e-01,9.98193e-01
9.200094847e-01,3.13307e-01,9.99999e-01,8.50776e-01,8.81988e-01,4.12426e-01,9.98988e-01
9.246095321e-01,2.71158e-01,9.99999e-01,7.75669e-01,8.26623e-01,4.19705e-01,9.98834e-01
9.292325798e-01,1.05496e-01,9.99999e-01,8.22264e-01,2.91194e-01,4.26965e-01,9.95462e-01
9.338787427e-01,7.38276e-02,9.99999e-01,8.25632e-01,2.02733e-01,4.34203e-01,9.81377e-01
9.385481364e-01,1.98968e-01,9.99999e-01,8.68008e-01,5.22643e-01,4.41417e-01,9.77890e-01
9.432408771e-01,1.70016e-01,9.99999e-01,9.16574e-01,4.17748e-01,4.48605e-01,9.80896e-01
9.479570815e-01,1.29838e-01,9.99999e-01,9.56329e-01,3.01262e-01,4.55765e-01,9.84424e-01
9.526968669e-01,1.78526e-01,9.99999e-01,9.78693e-01,3.96507e-01,4.62894e-01,9.90470e-01
9.574603512e-01,1.93271e-01,9.99999e-01,9.90825e-01,4.16527e-01,4.69991e-01,9.95147e-01
9.622476530e-01,2.30305e-01,9.99999e-01,9.97127e-01,4.85609e-01,4.77053e-01,9.96642e-01
9.670588912e-01,3.17522e-01,9.99999e-01,9.99137e-01,6.57946e-01,4.84078e-01,9.97702e-01
9.718941857e-01,3.75827e-01,9.99999e-01,9.99938e-01,7.66666e-01,4.91065e-01,9.98307e-01
9.767536566e-01,3.98847e-01,9.99999e-01,9.99999e-01,8.01914e-01,4.98012e-01,9.98706e-01
9.816374249e-01,4.28227e-01,9.99999e-01,9.99999e-01,8.48493e-01,5.04917e-01,9.99551e-01
9.865456120e-01,4.61717e-01,9.99999e-01,9.99999e-01,9.02265e-01,5.11779e-01,9.99906e-01
9.914783401e-01,4.86614e-01,9.99999e-01,9.99999e-01,9.38355e-01,5.18595e-01,9.99973e-01
9.964357318e-01,5.07463e-01,9.99999e-01,9.99999e-01,9.65937e-01,5.25365e-01,9.99984e-01
1.001417910e+00,5.21134e-01,9.99999e-01,9.99999e-01,9.79436e-01,5.32087e-01,9.99976e-01
1.006425000e+00,5.32406e-01,9.99999e-01,9.99999e-01,9.88238e-01,5.38760e-01,9.99966e-01
1.011457125e+00,5.41371e-01,9.99999e-01,9.99999e-01,9.92674e-01,5.45382e-01,9.99969e-01
1.016514411e+00,5.49195e-01,9.99999e-01,9.99999e-01,9.95025e-01,5.51953e-01,9.99977e-01
1.021596983e+00,5.56182e-01,9.99999e-01,9.99887e-01,9.96035e-01,5.58470e-01,9.99977e-01
1.026704968e+00,5.58302e-01,9.99999e-01,9.91331e-01,9.96908e-01,5.64933e-01,9.99985e-01
1.031838492e+00,5.26669e-01,9.99999e-01,9.23798e-01,9.97749e-01,5.71342e-01,9.99995e-01
1.036997685e+00,4.01600e-02,9.99999e-01,6.95885e-02,9.98664e-01,5.77694e-01,9.99998e-01
1.042182673e+00,6.45774e-03,9.99999e-01,1.10720e-02,9.98410e-01,5.83989e-01,9.99999e-01
1.047393587e+00,1.38059e-02,9.99999e-01,2.34327e-02,9.97890e-01,5.90227e-01,9.99999e-01
1.052630555e+00,1.02479e-05,9.99999e-01,1.72153e-05,9.97108e-01,5.96406e-01,9.99998e-01
1.057893707e+00,3.67878e-05,9.99999e-01,6.12189e-05,9.95181e-01,6.02526e-01,9.99997e-01
1.063183176e+00,4.42199e-04,9.99999e-01,7.30131e-04,9.92077e-01,6.08585e-01,9.99995e-01
1.068499092e+00,2.99187e-03,9.99999e-01,4.91494e-03,9.86757e-01,6.14585e-01,9.99990e-01
1.073841587e+00,2.03996e-02,9.99999e-01,3.32651e-02,9.84543e-01,6.20523e-01,9.99979e-01
1.079210795e+00,7.20085e-02,9.99999e-01,1.16869e-01,9.80191e-01,6.26399e-01,9.99946e-01
1.084606849e+00,1.83830e-01,9.99999e-01,2.98861e-01,9.70204e-01,6.32214e-01,9.99871e-01
1.090029883e+00,3.25914e-01,9.99999e-01,5.32191e-01,9.57643e-01,6.37966e-01,9.99734e-01
1.095480033e+00,4.19794e-01,9.99999e-01,7.32099e-01,8.88699e-01,6.43655e-01,9.99519e-01
1.100957433e+00,4.15665e-01,9.99999e-01,8.60061e-01,7.42359e-01,6.49281e-01,9.99115e-01
1.106462220e+00,2.94777e-01,9.99999e-01,9.39461e-01,4.77625e-01,6.54844e-01,9.98501e-01
1.111994531e+00,1.39636e-01,9.99999e-01,9.77101e-01,2.16563e-01,6.60343e-01,9.96026e-01
1.117554504e+00,5.80226e-02,9.99999e-01,9.94348e-01,8.87428e-02,6.65778e-01,9.85729e-01
1.123142276e+00,1.19022e-01,9.99999e-01,9.99626e-01,1.83503e-01,6.71149e-01,9.66490e-01
1.128757988e+00,2.06781e-01,9.99999e-01,9.99999e-01,3.17977e-01,6.76456e-01,9.61337e-01
1.134401778e+00,9.50673e-02,9.99999e-01,9.99999e-01,1.44211e-01,6.81699e-01,9.67028e-01
1.140073787e+00,3.30295e-01,9.99999e-01,9.99999e-01,4.93918e-01,6.86878e-01,9.73567e-01
1.145774156e+00,1.64540e-01,9.99999e-01,9.99999e-01,2.43680e-01,6.91993e-01,9.75777e-01
1.151503026e+00,1.44962e-01,9.99999e-01,9.99999e-01,2.10826e-01,6.97044e-01,9.86432e-01
1.157260541e+00,1.78468e-01,9.99999e-01,9.99999e-01,2.55256e-01,7.02031e-01,9.95923e-01
1.163046844e+00,2.55099e-01,9.99999e-01,9.99999e-01,3.61260e-01,7.06954e-01,9.98842e-01
1.168862078e+00,3.45749e-01,9.99999e-01,9.99999e-01,4.86019e-01,7.11813e-01,9.99403e-01
1.174706389e+00,4.58430e-01,9.99999e-01,9.99999e-01,6.40226e-01,7.16609e-01,9.99209e-01
1.180579921e+00,5.48554e-01,9.99999e-01,9.99999e-01,7.61373e-01,7.21341e-01,9.98804e-01
1.186482820e+00,6.21224e-01,9.99999e-01,9.99986e-01,8.56728e-01,7.26010e-01,9.98773e-01
1.192415234e+00,6.47472e-01,9.99999e-01,9.70112e-01,9.13621e-01,7.30616e-01,9.99081e-01
1.198377311e+00,3.67574e-01,9.99999e-01,5.33179e-01,9.26776e-01,7.35160e-01,9.99132e-01
1.204369197e+00,2.17278e-23,9.99999e-01,3.06480e-23,9.30660e-01,7.39641e-01,9.99214e-01
1.210391043e+00,5.22634e-93,9.99999e-01,7.30139e-93,9.33507e-01,7.44061e-01,9.99522e-01
1.216442998e+00,1.47503e-80,9.99999e-01,2.04419e-80,9.43087e-01,7.48418e-01,9.99707e-01
1.222525213e+00,2.37185e-79,9.99999e-01,3.22651e-79,9.55387e-01,7.52714e-01,9.99817e-01
1.228637839e+00,2.63206e-61,9.99999e-01,3.55265e-61,9.68813e-01,7.56950e-01,9.99915e-01
