#,Wave/freq,Total,N2,CO2,H2O,Rayleigh,CIA
4.000000000e-01,3.43902e-03,9.99999e-01,9.99999e-01,9.99988e-01,3.43906e-03,9.99999e-01
4.020000000e-01,3.84724e-03,9.99999e-01,9.99999e-01,9.99992e-01,3.84726e-03,9.99999e-01
4.040100000e-01,4.29388e-03,9.99999e-01,9.99999e-01,9.99996e-01,4.29389e-03,9.99999e-01
4.060300500e-01,4.78198e-03,9.99999e-01,9.99999e-01,9.99998e-01,4.78198e-03,9.99999e-01
4.080602003e-01,5.31424e-03,9.99999e-01,9.99999e-01,9.99999e-01,5.31424e-03,9.99999e-01
4.101005013e-01,5.89345e-03,9.99999e-01,9.99999e-01,9.99999e-01,5.89345e-03,9.99999e-01
4.121510038e-01,6.52244e-03,9.99999e-01,9.99999e-01,9.99999e-01,6.52245e-03,9.99999e-01
4.142117588e-01,7.20410e-03,9.99999e-01,9.99999e-01,9.99996e-01,7.20413e-03,9.99999e-01
4.162828176e-01,7.94133e-03,9.99999e-01,9.99999e-01,9.99985e-01,7.94144e-03,9.99999e-01
4.183642317e-01,8.73732e-03,9.99999e-01,9.99999e-01,9.99991e-01,8.73739e-03,9.99999e-01
4.204560528e-01,9.59494e-03,9.99999e-01,9.99999e-01,9.99994e-01,9.59499e-03,9.99999e-01
4.225583331e-01,1.05173e-02,9.99999e-01,9.99999e-01,9.99997e-01,1.05173e-02,9.99999e-01
4.246711247e-01,1.15074e-02,9.99999e-01,9.99999e-01,9.99998e-01,1.15074e-02,9.99999e-01
4.267944804e-01,1.25683e-02,9.99999e-01,9.99999e-01,9.99997e-01,1.25683e-02,9.99999e-01
4.289284528e-01,1.37031e-02,9.99999e-01,9.99999e-01,9.99997e-01,1.37032e-02,9.99999e-01
4.310730950e-01,1.49150e-02,9.99999e-01,9.99999e-01,9.99998e-01,1.49150e-02,9.99999e-01
4.332284605e-01,1.62068e-02,9.99999e-01,9.99999e-01,9.99999e-01,1.62068e-02,9.99999e-01
4.353946028e-01,1.75817e-02,9.99999e-01,9.99999e-01,9.99999e-01,1.75817e-02,9.99999e-01
4.375715758e-01,1.90426e-02,9.99999e-01,9.99999e-01,9.99998e-01,1.90426e-02,9.99999e-01
4.397594337e-01,2.05921e-02,9.99999e-01,9.99999e-01,9.99987e-01,2.05923e-02,9.99999e-01
4.419582309e-01,2.22325e-02,9.99999e-01,9.99999e-01,9.99939e-01,2.22338e-02,9.99999e-01
4.441680220e-01,2.39687e-02,9.99999e-01,9.99999e-01,9.99952e-01,2.39698e-02,9.99999e-01
4.463888621e-01,2.58017e-02,9.99999e-01,9.99999e-01,9.99950e-01,2.58030e-02,9.99999e-01
4.486208064e-01,2.77351e-02,9.99999e-01,9.99999e-01,9.99968e-01,2.77360e-02,9.99999e-01
4.508639105e-01,2.97708e-02,9.99999e-01,9.99999e-01,9.99985e-01,2.97713e-02,9.99999e-01
4.531182300e-01,3.19111e-02,9.99999e-01,9.99999e-01,9.99993e-01,3.19112e-02,9.99999e-01
4.553838212e-01,3.41580e-02,9.99999e-01,9.99999e-01,9.99995e-01,3.41582e-02,9.99999e-01
4.576607403e-01,3.65141e-02,9.99999e-01,9.99999e-01,9.99997e-01,3.65142e-02,9.99999e-01
4.599490440e-01,3.89813e-02,9.99999e-01,9.99999e-01,9.99998e-01,3.89813e-02,9.99999e-01
4.622487892e-01,4.15614e-02,9.99999e-01,9.99999e-01,9.99999e-01,4.15614e-02,9.99999e-01
4.645600332e-01,4.42562e-02,9.99999e-01,9.99999e-01,9.99998e-01,4.42563e-02,9.99999e-01
4.668828333e-01,4.70667e-02,9.99999e-01,9.99999e-01,9.99985e-01,4.70674e-02,9.99999e-01
4.692172475e-01,4.99947e-02,9.99999e-01,9.99999e-01,9.99968e-01,4.99962e-02,9.99999e-01
4.715633337e-01,5.30430e-02,9.99999e-01,9.99999e-01,9.99979e-01,5.30440e-02,9.99999e-01
4.739211504e-01,5.62108e-02,9.99999e-01,9.99999e-01,9.99980e-01,5.62119e-02,9.99999e-01
4.762907561e-01,5.95001e-02,9.99999e-01,9.99999e-01,9.99989e-01,5.95007e-02,9.99999e-01
4.786722099e-01,6.29110e-02,9.99999e-01,9.99999e-01,9.99995e-01,6.29112e-02,9.99999e-01
4.810655710e-01,6.64440e-02,9.99999e-01,9.99999e-01,9.99998e-01,6.64441e-02,9.99999e-01
4.834708988e-01,7.00988e-02,9.99999e-01,9.99999e-01,9.99987e-01,7.00996e-02,9.99999e-01
4.858882533e-01,7.38765e-02,9.99999e-01,9.99999e-01,9.99977e-01,7.38781e-02,9.99999e-01
4.883176946e-01,7.77781e-02,9.99999e-01,9.99999e-01,9.99981e-01,7.77795e-02,9.99999e-01
4.907592831e-01,8.18024e-02,9.99999e-01,9.99999e-01,9.99983e-01,8.18038e-02,9.99999e-01
4.932130795e-01,8.59496e-02,9.99999e-01,9.99999e-01,9.99987e-01,8.59506e-02,9.99999e-01
4.956791449e-01,9.02189e-02,9.99999e-01,9.99999e-01,9.99993e-01,9.02194e-02,9.99999e-01
4.981575406e-01,9.46067e-02,9.99999e-01,9.99999e-01,9.99968e-01,9.46097e-02,9.99999e-01
5.006483283e-01,9.91125e-02,9.99999e-01,9.99999e-01,9.99920e-01,9.91205e-02,9.99998e-01
5.031515699e-01,1.03708e-01,9.99999e-01,9.99999e-01,9.99594e-01,1.03751e-01,9.99995e-01
5.056673278e-01,1.08476e-01,9.99999e-01,9.99999e-01,9.99785e-01,1.08500e-01,9.99994e-01
5.081956644e-01,1.13334e-01,9.99999e-01,9.99999e-01,9.99728e-01,1.13365e-01,9.99996e-01
5.107366428e-01,1.18325e-01,9.99999e-01,9.99999e-01,9.99816e-01,1.18347e-01,9.99998e-01
5.132903260e-01,1.23430e-01,9.99999e-01,9.99999e-01,9.99894e-01,1.23442e-01,9.99999e-01
5.158567776e-01,1.28644e-01,9.99999e-01,9.99999e-01,9.99955e-01,1.28650e-01,9.99999e-01
5.184360615e-01,1.33966e-01,9.99999e-01,9.99999e-01,9.99981e-01,1.33968e-01,9.99999e-01
5.210282418e-01,1.39394e-01,9.99999e-01,9.99999e-01,9.99992e-01,1.39394e-01,9.99999e-01
5.236333830e-01,1.44923e-01,9.99999e-01,9.99999e-01,9.99973e-01,1.44927e-01,9.99999e-01
5.262515499e-01,1.50560e-01,9.99999e-01,9.99999e-01,9.99982e-01,1.50563e-01,9.99999e-01
5.288828077e-01,1.56298e-01,9.99999e-01,9.99999e-01,9.99984e-01,1.56300e-01,9.99999e-01
5.315272217e-01,1.62135e-01,9.99999e-01,9.99999e-01,9.99986e-01,1.62137e-01,9.99999e-01
5.341848578e-01,1.68068e-01,9.99999e-01,9.99999e-01,9.99990e-01,1.68069e-01,9.99999e-01
5.368557821e-01,1.74090e-01,9.99999e-01,9.99999e-01,9.99968e-01,1.74095e-01,9.99999e-01
5.395400610e-01,1.80192e-01,9.99999e-01,9.99999e-01,9.99889e-01,1.80212e-01,9.99998e-01
5.422377613e-01,1.86389e-01,9.99999e-01,9.99999e-01,9.99855e-01,1.86416e-01,9.99996e-01
5.449489501e-01,1.92679e-01,9.99999e-01,9.99999e-01,9.99866e-01,1.92705e-01,9.99996e-01
5.476736949e-01,1.99052e-01,9.99999e-01,9.99999e-01,9.99880e-01,1.99076e-01,9.99998e-01
5.504120634e-01,2.05507e-01,9.99999e-01,9.99999e-01,9.99913e-01,2.05525e-01,9.99999e-01
5.531641237e-01,2.12040e-01,9.99999e-01,9.99999e-01,9.99956e-01,2.12049e-01,9.99999e-01
5.559299443e-01,2.18641e-01,9.99999e-01,9.99999e-01,9.99978e-01,2.18646e-01,9.99999e-01
5.587095940e-01,2.25309e-01,9.99999e-01,9.99999e-01,9.99986e-01,2.25311e-01,9.99999e-01
5.615031420e-01,2.32039e-01,9.99999e-01,9.99999e-01,9.99984e-01,2.32042e-01,9.99999e-01
5.643106577e-01,2.38832e-01,9.99999e-01,9.99999e-01,9.99983e-01,2.38836e-01,9.99999e-01
5.671322110e-01,2.45639e-01,9.99999e-01,9.99999e-01,9.99801e-01,2.45688e-01,9.99997e-01
5.699678720e-01,2.52539e-01,9.99999e-01,9.99999e-01,9.99784e-01,2.52595e-01,9.99994e-01
5.728177114e-01,2.59495e-01,9.99999e-01,9.99999e-01,9.99777e-01,2.59554e-01,9.99994e-01
5.756818000e-01,2.66507e-01,9.99999e-01,9.99999e-01,9.99795e-01,2.66562e-01,9.99996e-01
5.785602090e-01,2.73566e-01,9.99999e-01,9.99999e-01,9.99821e-01,2.73615e-01,9.99998e-01
5.814530100e-01,2.80660e-01,9.99999e-01,9.99999e-01,9.99821e-01,2.80710e-01,9.99999e-01
5.843602750e-01,2.87782e-01,9.99999e-01,9.99999e-01,9.99788e-01,2.87844e-01,9.99998e-01
5.872820764e-01,2.94470e-01,9.99999e-01,9.99999e-01,9.98173e-01,2.95012e-01,9.99986e-01
5.902184868e-01,3.01528e-01,9.99999e-01,9.99999e-01,9.97772e-01,3.02212e-01,9.99964e-01
5.931695792e-01,3.08944e-01,9.99999e-01,9.99999e-01,9.98429e-01,3.09440e-01,9.99965e-01
5.961354271e-01,3.16141e-01,9.99999e-01,9.99999e-01,9.98275e-01,3.16693e-01,9.99978e-01
5.991161043e-01,3.23559e-01,9.99999e-01,9.99999e-01,9.98741e-01,3.23968e-01,9.99993e-01
6.021116848e-01,3.31025e-01,9.99999e-01,9.99999e-01,9.99284e-01,3.31262e-01,9.99998e-01
6.051222432e-01,3.38448e-01,9.99999e-01,9.99999e-01,9.99637e-01,3.38571e-01,9.99999e-01
6.081478544e-01,3.45837e-01,9.99999e-01,9.99999e-01,9.99843e-01,3.45891e-01,9.99999e-01
6.111885937e-01,3.53198e-01,9.99999e-01,9.99999e-01,9.99933e-01,3.53221e-01,9.99999e-01
6.142445367e-01,3.60546e-01,9.99999e-01,9.99999e-01,9.99970e-01,3.60557e-01,9.99999e-01
6.173157594e-01,3.67890e-01,9.99999e-01,9.99999e-01,9.99983e-01,3.67896e-01,9.99999e-01
6.204023382e-01,3.75229e-01,9.99999e-01,9.99999e-01,9.99985e-01,3.75235e-01,9.99999e-01
6.235043498e-01,3.82548e-01,9.99999e-01,9.99999e-01,9.99939e-01,3.82570e-01,9.99999e-01
6.266218716e-01,3.89775e-01,9.99999e-01,9.99999e-01,9.99679e-01,3.89901e-01,9.99997e-01
6.297549810e-01,3.97174e-01,9.99999e-01,9.99999e-01,9.99882e-01,3.97222e-01,9.99995e-01
6.329037559e-01,4.04437e-01,9.99999e-01,9.99999e-01,9.99767e-01,4.04533e-01,9.99995e-01
6.360682746e-01,4.11747e-01,9.99999e-01,9.99999e-01,9.99802e-01,4.11829e-01,9.99997e-01
6.392486160e-01,4.19002e-01,9.99999e-01,9.99999e-01,9.99743e-01,4.19110e-01,9.99998e-01
6.424448591e-01,4.26225e-01,9.99999e-01,9.99999e-01,9.99659e-01,4.26371e-01,9.99997e-01
6.456570834e-01,4.32922e-01,9.99999e-01,9.99999e-01,9.98419e-01,4.33611e-01,9.99990e-01
6.488853688e-01,4.40213e-01,9.99999e-01,9.99999e-01,9.98631e-01,4.40827e-01,9.99974e-01
6.521297956e-01,4.47475e-01,9.99999e-01,9.99999e-01,9.98809e-01,4.48017e-01,9.99978e-01
6.553904446e-01,4.54638e-01,9.99999e-01,9.99999e-01,9.98825e-01,4.55179e-01,9.99984e-01
6.586673968e-01,4.61840e-01,9.99999e-01,9.99999e-01,9.98985e-01,4.62311e-01,9.99994e-01
6.619607338e-01,4.69135e-01,9.99999e-01,9.99999e-01,9.99413e-01,4.69410e-01,9.99998e-01
6.652705375e-01,4.76313e-01,9.99999e-01,9.99999e-01,9.99659e-01,4.76475e-01,9.99998e-01
6.685968902e-01,4.83427e-01,9.99999e-01,9.99999e-01,9.99841e-01,4.83504e-01,9.99999e-01
6.719398746e-01,4.90458e-01,9.99999e-01,9.99999e-01,9.99926e-01,4.90494e-01,9.99999e-01
6.752995740e-01,4.97425e-01,9.99999e-01,9.99999e-01,9.99960e-01,4.97444e-01,9.99999e-01
6.786760719e-01,5.04324e-01,9.99999e-01,9.99999e-01,9.99942e-01,5.04353e-01,9.99999e-01
6.820694522e-01,5.11168e-01,9.99999e-01,9.99999e-01,9.99902e-01,5.11218e-01,9.99998e-01
6.854797995e-01,5.17973e-01,9.99999e-01,9.99999e-01,9.99874e-01,5.18038e-01,9.99998e-01
6.889071985e-01,5.24653e-01,9.99999e-01,9.99999e-01,9.99699e-01,5.24812e-01,9.99996e-01
6.923517345e-01,5.28896e-01,9.99999e-01,9.99999e-01,9.95051e-01,5.31538e-01,9.99975e-01
6.958134932e-01,5.36778e-01,9.99999e-01,9.99999e-01,9.97381e-01,5.38215e-01,9.99945e-01
6.992925606e-01,5.43483e-01,9.99999e-01,9.99999e-01,9.97553e-01,5.44842e-01,9.99952e-01
7.027890234e-01,5.49721e-01,9.99999e-01,9.99999e-01,9.96960e-01,5.51416e-01,9.99963e-01
7.063029686e-01,5.56504e-01,9.99999e-01,9.99999e-01,9.97446e-01,5.57938e-01,9.99981e-01
7.098344834e-01,5.63018e-01,9.99999e-01,9.99999e-01,9.97550e-01,5.64406e-01,9.99988e-01
7.133836558e-01,5.68962e-01,9.99999e-01,9.99999e-01,9.96767e-01,5.70819e-01,9.99978e-01
7.169505741e-01,5.62093e-01,9.99999e-01,9.99999e-01,9.74030e-01,5.77176e-01,9.99832e-01
7.205353270e-01,5.75744e-01,9.99999e-01,9.99999e-01,9.87040e-01,5.83476e-01,9.99704e-01
7.241380036e-01,5.80002e-01,9.99999e-01,9.99999e-01,9.83775e-01,5.89718e-01,9.99745e-01
7.277586936e-01,5.87042e-01,9.99999e-01,9.99999e-01,9.85335e-01,5.95902e-01,9.99791e-01
7.313974871e-01,5.92548e-01,9.99999e-01,9.99999e-01,9.84350e-01,6.02026e-01,9.99902e-01
7.350544745e-01,6.02868e-01,9.99999e-01,9.99999e-01,9.91442e-01,6.08091e-01,9.99965e-01
7.387297469e-01,6.10216e-01,9.99999e-01,9.99999e-01,9.93697e-01,6.14095e-01,9.99983e-01
7.424233956e-01,6.18120e-01,9.99999e-01,9.99999e-01,9.96907e-01,6.20039e-01,9.99996e-01
7.461355126e-01,6.24748e-01,9.99999e-01,9.99999e-01,9.98127e-01,6.25920e-01,9.99998e-01
7.498661902e-01,6.31188e-01,9.99999e-01,9.99999e-01,9.99126e-01,6.31740e-01,9.99999e-01
7.536155211e-01,6.37224e-01,9.99999e-01,9.99999e-01,9.99572e-01,6.37497e-01,9.99999e-01
7.573835987e-01,6.43050e-01,9.99999e-01,9.99999e-01,9.99779e-01,6.43191e-01,9.99999e-01
7.611705167e-01,6.48734e-01,9.99999e-01,9.99999e-01,9.99862e-01,6.48822e-01,9.99999e-01
7.649763693e-01,6.54334e-01,9.99999e-01,9.99999e-01,9.99913e-01,6.54390e-01,9.99999e-01
7.688012511e-01,6.59855e-01,9.99999e-01,9.99999e-01,9.99939e-01,6.59894e-01,9.99999e-01
7.726452574e-01,6.65302e-01,9.99999e-01,9.99999e-01,9.99950e-01,6.65335e-01,9.99999e-01
7.765084837e-01,6.70665e-01,9.99999e-01,9.99999e-01,9.99930e-01,6.70711e-01,9.99999e-01
7.803910261e-01,6.63350e-01,9.99999e-01,9.81539e-01,9.99701e-01,6.76024e-01,9.99999e-01
7.842929812e-01,6.26429e-01,9.99999e-01,9.20432e-01,9.98957e-01,6.81272e-01,9.99997e-01
7.882144461e-01,6.26918e-01,9.99999e-01,9.15212e-01,9.97838e-01,6.86456e-01,9.99986e-01
7.921555184e-01,6.56455e-01,9.99999e-01,9.50355e-01,9.98809e-01,6.91577e-01,9.99973e-01
7.961162960e-01,6.71798e-01,9.99999e-01,9.66378e-01,9.97914e-01,6.96633e-01,9.99975e-01
8.000968774e-01,6.87083e-01,9.99999e-01,9.81669e-01,9.97581e-01,7.01625e-01,9.99973e-01
8.040973618e-01,6.98093e-01,9.99999e-01,9.90436e-01,9.97582e-01,7.06553e-01,9.99978e-01
8.081178486e-01,7.04450e-01,9.99999e-01,9.95615e-01,9.94581e-01,7.11417e-01,9.99980e-01
8.121584379e-01,6.99104e-01,9.99999e-01,9.98634e-01,9.77505e-01,7.16218e-01,9.99923e-01
8.162192301e-01,7.01164e-01,9.99999e-01,9.99698e-01,9.73117e-01,7.20956e-01,9.99712e-01
8.203003262e-01,7.15692e-01,9.99999e-01,9.99994e-01,9.86639e-01,7.25630e-01,9.99663e-01
8.244018279e-01,7.16139e-01,9.99999e-01,9.99999e-01,9.80950e-01,7.30241e-01,9.99732e-01
8.285238370e-01,7.22867e-01,9.99999e-01,9.99999e-01,9.83980e-01,7.34790e-01,9.99789e-01
8.326664562e-01,7.27197e-01,9.99999e-01,9.99999e-01,9.83745e-01,7.39276e-01,9.99912e-01
8.368297885e-01,7.35036e-01,9.99999e-01,9.99999e-01,9.88368e-01,7.43701e-01,9.99979e-01
8.410139374e-01,7.42876e-01,9.99999e-01,9.99999e-01,9.93076e-01,7.48063e-01,9.99987e-01
8.452190071e-01,7.49801e-01,9.99999e-01,9.99999e-01,9.96598e-01,7.52365e-01,9.99992e-01
8.494451021e-01,7.55112e-01,9.99999e-01,9.99999e-01,9.98031e-01,7.56605e-01,9.99993e-01
8.536923276e-01,7.59894e-01,9.99999e-01,9.99999e-01,9.98832e-01,7.60785e-01,9.99995e-01
8.579607893e-01,7.64355e-01,9.99999e-01,9.99999e-01,9.99282e-01,7.64905e-01,9.99998e-01
8.622505932e-01,7.68614e-01,9.99999e-01,9.99999e-01,9.99543e-01,7.68965e-01,9.99999e-01
8.665618462e-01,7.35571e-01,9.99999e-01,9.51882e-01,9.99718e-01,7.72965e-01,9.99999e-01
8.708946554e-01,6.27880e-01,9.99999e-01,8.08433e-01,9.99677e-01,7.76907e-01,9.99999e-01
8.752491287e-01,6.58555e-01,9.99999e-01,8.43803e-01,9.99568e-01,7.80791e-01,9.99999e-01
8.796253743e-01,7.14892e-01,9.99999e-01,9.11669e-01,9.99404e-01,7.84616e-01,9.99998e-01
8.840235012e-01,7.51147e-01,9.99999e-01,9.53414e-01,9.99319e-01,7.88384e-01,9.99995e-01
8.884436187e-01,7.75419e-01,9.99999e-01,9.81348e-01,9.97550e-01,7.92096e-01,9.99987e-01
8.928858368e-01,7.69276e-01,9.99999e-01,9.92425e-01,9.74140e-01,7.95751e-01,9.99931e-01
8.973502660e-01,7.61152e-01,9.99999e-01,9.98146e-01,9.54294e-01,7.99350e-01,9.99650e-01
9.018370173e-01,7.83249e-01,9.99999e-01,9.99794e-01,9.76263e-01,8.02894e-01,9.99451e-01
9.063462024e-01,7.85382e-01,9.99999e-01,9.94869e-01,9.79365e-01,8.06383e-01,9.99517e-01
9.108779334e-01,7.74126e-01,9.99999e-01,9.88081e-01,9.67861e-01,8.09818e-01,9.99498e-01
9.154323231e-01,7.81041e-01,9.99999e-01,9.97170e-01,9.63546e-01,8.13199e-01,9.99585e-01
9.200094847e-01,7.61166e-01,9.99999e-01,9.59182e-01,9.71255e-01,8.16527e-01,9.99767e-01
9.246095321e-01,7.39047e-01,9.99999e-01,9.42961e-01,9.55703e-01,8.19803e-01,9.99732e-01
9.292325798e-01,5.78319e-01,9.99999e-01,9.55190e-01,7.34273e-01,8.23027e-01,9.98959e-01
9.338787427e-01,5.27501e-01,9.99999e-01,9.56433e-01,6.68467e-01,8.26199e-01,9.95706e-01
9.385481364e-01,6.79832e-01,9.99999e-01,9.67877e-01,8.50358e-01,8.29321e-01,9.94895e-01
9.432408771e-01,6.48170e-01,9.99999e-01,9.80188e-01,7.97418e-01,8.32392e-01,9.95594e-01
9.479570815e-01,6.01456e-01,9.99999e-01,9.89813e-01,7.29732e-01,8.35414e-01,9.96413e-01
9.526968669e-01,6.58133e-01,9.99999e-01,9.95068e-01,7.90405e-01,8.38387e-01,9.97810e-01
9.574603512e-01,6.78273e-01,9.99999e-01,9.97887e-01,8.08752e-01,8.41311e-01,9.98886e-01
9.622476530e-01,7.09494e-01,9.99999e-01,9.99340e-01,8.41630e-01,8.44187e-01,9.99230e-01
9.670588912e-01,7.66596e-01,9.99999e-01,9.99801e-01,9.05705e-01,8.47016e-01,9.99473e-01
9.718941857e-01,7.98762e-01,9.99999e-01,9.99985e-01,9.40319e-01,8.49799e-01,9.99612e-01
9.767536566e-01,8.09871e-01,9.99999e-01,9.99999e-01,9.50237e-01,8.52535e-01,9.99703e-01
9.816374249e-01,8.23371e-01,9.99999e-01,9.99999e-01,9.62850e-01,8.55226e-01,9.99897e-01
9.865456120e-01,8.37814e-01,9.99999e-01,9.99999e-01,9.76639e-01,8.57872e-01,9.99978e-01
9.914783401e-01,8.48003e-01,9.99999e-01,9.99999e-01,9.85512e-01,8.60473e-01,9.99993e-01
9.964357318e-01,8.56198e-01,9.99999e-01,9.99999e-01,9.92084e-01,8.63031e-01,9.99996e-01
1.001417910e+00,8.61430e-01,9.99999e-01,9.99999e-01,9.95249e-01,8.65546e-01,9.99994e-01
1.006425000e+00,8.65663e-01,9.99999e-01,9.99999e-01,9.97294e-01,8.68018e-01,9.99991e-01
1.011457125e+00,8.68977e-01,9.99999e-01,9.99999e-01,9.98316e-01,8.70448e-01,9.99992e-01
1.016514411e+00,8.71837e-01,9.99999e-01,9.99999e-01,9.98858e-01,8.72837e-01,9.99994e-01
1.021596983e+00,8.74363e-01,9.99999e-01,9.99974e-01,9.99090e-01,8.75185e-01,9.99994e-01
1.026704968e+00,8.75124e-01,9.99999e-01,9.98009e-01,9.99290e-01,8.77493e-01,9.99996e-01
1.031838492e+00,8.55651e-01,9.99999e-01,9.73087e-01,9.99483e-01,8.79761e-01,9.99998e-01
1.036997685e+00,2.33317e-01,9.99999e-01,2.64602e-01,9.99693e-01,8.81990e-01,9.99999e-01
1.042182673e+00,2.68077e-01,9.99999e-01,3.03294e-01,9.99635e-01,8.84180e-01,9.99999e-01
1.047393587e+00,2.57926e-01,9.99999e-01,2.91130e-01,9.99516e-01,8.86333e-01,9.99999e-01
1.052630555e+00,3.17972e-02,9.99999e-01,3.58082e-02,9.99337e-01,8.88448e-01,9.99999e-01
1.057893707e+00,6.17543e-02,9.99999e-01,6.94048e-02,9.98895e-01,8.90526e-01,9.99999e-01
1.063183176e+00,1.28628e-01,9.99999e-01,1.44320e-01,9.98180e-01,8.92568e-01,9.99998e-01
1.068499092e+00,2.44051e-01,9.99999e-01,2.73565e-01,9.96951e-01,8.94574e-01,9.99997e-01
1.073841587e+00,3.93762e-01,9.99999e-01,4.40617e-01,9.96437e-01,8.96544e-01,9.99995e-01
1.079210795e+00,5.33473e-01,9.99999e-01,5.96347e-01,9.95424e-01,8.98480e-01,9.99987e-01
1.084606849e+00,6.74057e-01,9.99999e-01,7.53728e-01,9.93088e-01,9.00382e-01,9.99970e-01
1.090029883e+00,7.71854e-01,9.99999e-01,8.63934e-01,9.90123e-01,9.02250e-01,9.99938e-01
1.095480033e+00,8.18766e-01,9.99999e-01,9.30456e-01,9.73267e-01,9.04085e-01,9.99889e-01
1.100957433e+00,8.16681e-01,9.99999e-01,9.65922e-01,9.33338e-01,9.05888e-01,9.99797e-01
1.106462220e+00,7.50212e-01,9.99999e-01,9.85758e-01,8.38526e-01,9.07658e-01,9.99656e-01
1.111994531e+00,6.22071e-01,9.99999e-01,9.94699e-01,6.88170e-01,9.09397e-01,9.99088e-01
1.117554504e+00,4.93761e-01,9.99999e-01,9.98698e-01,5.44351e-01,9.11104e-01,9.96715e-01
1.123142276e+00,5.74453e-01,9.99999e-01,9.99913e-01,6.34307e-01,9.12781e-01,9.92229e-01
1.128757988e+00,6.80124e-01,9.99999e-01,9.99999e-01,7.50511e-01,9.14428e-01,9.91015e-01
1.134401778e+00,4.60451e-01,9.99999e-01,9.99999e-01,5.06522e-01,9.16045e-01,9.92355e-01
1.140073787e+00,7.70011e-01,9.99999e-01,9.99999e-01,8.44287e-01,9.17633e-01,9.93887e-01
1.145774156e+00,6.39389e-01,9.99999e-01,9.99999e-01,6.99512e-01,9.19193e-01,9.94403e-01
1.151503026e+00,6.15336e-01,9.99999e-01,9.99999e-01,6.70410e-01,9.20724e-01,9.96878e-01
1.157260541e+00,6.63120e-01,9.99999e-01,9.99999e-01,7.19713e-01,9.22227e-01,9.99065e-01
1.163046844e+00,7.24301e-01,9.99999e-01,9.99999e-01,7.84334e-01,9.23703e-01,9.99734e-01
1.168862078e+00,7.82049e-01,9.99999e-01,9.99999e-01,8.45434e-01,9.25152e-01,9.99863e-01
1.174706389e+00,8.35270e-01,9.99999e-01,9.99999e-01,9.01621e-01,9.26575e-01,9.99818e-01
1.180579921e+00,8.71050e-01,9.99999e-01,9.99999e-01,9.38916e-01,9.27972e-01,9.99725e-01
1.186482820e+00,8.96640e-01,9.99999e-01,9.99996e-01,9.65083e-01,9.29343e-01,9.99718e-01
1.192415234e+00,9.04980e-01,9.99999e-01,9.92889e-01,9.79502e-01,9.30689e-01,9.99789e-01
1.198377311e+00,5.34535e-01,9.99999e-01,5.82109e-01,9.82719e-01,9.32011e-01,9.99800e-01
1.204369197e+00,4.36251e-07,9.99999e-01,4.71981e-07,9.83618e-01,9.33308e-01,9.99819e-01
1.210391043e+00,5.08027e-23,9.99999e-01,5.48426e-23,9.84332e-01,9.34581e-01,9.99890e-01
1.216442998e+00,3.61117e-20,9.99999e-01,3.89120e-20,9.86635e-01,9.35831e-01,9.99932e-01
1.222525213e+00,7.00932e-20,9.99999e-01,7.52118e-20,9.89591e-01,9.37057e-01,9.99957e-01
1.228637839e+00,2.56070e-15,9.99999e-01,2.74335e-15,9.92767e-01,9.38261e-01,9.99980e-01
