#,Wave/freq,Total,N2,CO2,H2O,Rayleigh,CIA
4.000000000e-01,7.59290e-15,9.99999e-01,9.99999e-01,9.99937e-01,7.59337e-15,9.99999e-01
4.020000000e-01,1.44412e-14,9.99999e-01,9.99999e-01,9.99960e-01,1.44417e-14,9.99999e-01
4.040100000e-01,2.71015e-14,9.99999e-01,9.99999e-01,9.99983e-01,2.71020e-14,9.99999e-01
4.060300500e-01,5.02321e-14,9.99999e-01,9.99999e-01,9.99995e-01,5.02323e-14,9.99999e-01
4.080602003e-01,9.19752e-14,9.99999e-01,9.99999e-01,9.99998e-01,9.19753e-14,9.99999e-01
4.101005013e-01,1.66407e-13,9.99999e-01,9.99999e-01,9.99999e-01,1.66407e-13,9.99999e-01
4.121510038e-01,2.97566e-13,9.99999e-01,9.99999e-01,9.99997e-01,2.97567e-13,9.99999e-01
4.142117588e-01,5.26023e-13,9.99999e-01,9.99999e-01,9.99982e-01,5.26032e-13,9.99999e-01
4.162828176e-01,9.19431e-13,9.99999e-01,9.99999e-01,9.99922e-01,9.19502e-13,9.99999e-01
4.183642317e-01,1.58958e-12,9.99999e-01,9.99999e-01,9.99953e-01,1.58965e-12,9.99999e-01
4.204560528e-01,2.71859e-12,9.99999e-01,9.99999e-01,9.99971e-01,2.71867e-12,9.99999e-01
4.225583331e-01,4.60046e-12,9.99999e-01,9.99999e-01,9.99988e-01,4.60051e-12,9.99999e-01
4.246711247e-01,7.70442e-12,9.99999e-01,9.99999e-01,9.99991e-01,7.70449e-12,9.99999e-01
4.267944804e-01,1.27718e-11,9.99999e-01,9.99999e-01,9.99987e-01,1.27720e-11,9.99999e-01
4.289284528e-01,2.09620e-11,9.99999e-01,9.99999e-01,9.99989e-01,2.09622e-11,9.99999e-01
4.310730950e-01,3.40693e-11,9.99999e-01,9.99999e-01,9.99995e-01,3.40694e-11,9.99999e-01
4.332284605e-01,5.48436e-11,9.99999e-01,9.99999e-01,9.99998e-01,5.48437e-11,9.99999e-01
4.353946028e-01,8.74589e-11,9.99999e-01,9.99999e-01,9.99999e-01,8.74589e-11,9.99999e-01
4.375715758e-01,1.38190e-10,9.99999e-01,9.99999e-01,9.99991e-01,1.38191e-10,9.99999e-01
4.397594337e-01,2.16371e-10,9.99999e-01,9.99999e-01,9.99931e-01,2.16386e-10,9.99999e-01
4.419582309e-01,3.35724e-10,9.99999e-01,9.99999e-01,9.99654e-01,3.35839e-10,9.99999e-01
4.441680220e-01,5.16591e-10,9.99999e-01,9.99999e-01,9.99729e-01,5.16730e-10,9.99999e-01
4.463888621e-01,7.88094e-10,9.99999e-01,9.99999e-01,9.99718e-01,7.88315e-10,9.99999e-01
4.486208064e-01,1.19244e-09,9.99999e-01,9.99999e-01,9.99825e-01,1.19265e-09,9.99999e-01
4.508639105e-01,1.78953e-09,9.99999e-01,9.99999e-01,9.99917e-01,1.78967e-09,9.99999e-01
4.531182300e-01,2.66403e-09,9.99999e-01,9.99999e-01,9.99967e-01,2.66412e-09,9.99999e-01
4.553838212e-01,3.93469e-09,9.99999e-01,9.99999e-01,9.99977e-01,3.93477e-09,9.99999e-01
4.576607403e-01,5.76682e-09,9.99999e-01,9.99999e-01,9.99989e-01,5.76688e-09,9.99999e-01
4.599490440e-01,8.38841e-09,9.99999e-01,9.99999e-01,9.99992e-01,8.38847e-09,9.99999e-01
4.622487892e-01,1.21118e-08,9.99999e-01,9.99999e-01,9.99998e-01,1.21118e-08,9.99999e-01
4.645600332e-01,1.73614e-08,9.99999e-01,9.99999e-01,9.99994e-01,1.73615e-08,9.99999e-01
4.668828333e-01,2.47080e-08,9.99999e-01,9.99999e-01,9.99917e-01,2.47100e-08,9.99999e-01
4.692172475e-01,3.49186e-08,9.99999e-01,9.99999e-01,9.99823e-01,3.49247e-08,9.99999e-01
4.715633337e-01,4.90202e-08,9.99999e-01,9.99999e-01,9.99884e-01,4.90258e-08,9.99999e-01
4.739211504e-01,6.83532e-08,9.99999e-01,9.99999e-01,9.99889e-01,6.83608e-08,9.99999e-01
4.762907561e-01,9.46918e-08,9.99999e-01,9.99999e-01,9.99942e-01,9.46972e-08,9.99999e-01
4.786722099e-01,1.30335e-07,9.99999e-01,9.99999e-01,9.99976e-01,1.30338e-07,9.99999e-01
4.810655710e-01,1.78264e-07,9.99999e-01,9.99999e-01,9.99992e-01,1.78265e-07,9.99999e-01
4.834708988e-01,2.42295e-07,9.99999e-01,9.99999e-01,9.99932e-01,2.42312e-07,9.99999e-01
4.858882533e-01,3.27337e-07,9.99999e-01,9.99999e-01,9.99874e-01,3.27378e-07,9.99999e-01
4.883176946e-01,4.39641e-07,9.99999e-01,9.99999e-01,9.99895e-01,4.39687e-07,9.99999e-01
4.907592831e-01,5.87038e-07,9.99999e-01,9.99999e-01,9.99905e-01,5.87093e-07,9.99999e-01
4.932130795e-01,7.79402e-07,9.99999e-01,9.99999e-01,9.99932e-01,7.79454e-07,9.99999e-01
4.956791449e-01,1.02903e-06,9.99999e-01,9.99999e-01,9.99964e-01,1.02906e-06,9.99999e-01
4.981575406e-01,1.35094e-06,9.99999e-01,9.99999e-01,9.99822e-01,1.35118e-06,9.99999e-01
5.006483283e-01,1.76378e-06,9.99999e-01,9.99999e-01,9.99541e-01,1.76459e-06,9.99996e-01
5.031515699e-01,2.28701e-06,9.99999e-01,9.99999e-01,9.97677e-01,2.29239e-06,9.99975e-01
5.056673278e-01,2.95897e-06,9.99999e-01,9.99999e-01,9.98772e-01,2.96269e-06,9.99971e-01
5.081956644e-01,3.80368e-06,9.99999e-01,9.99999e-01,9.98451e-01,3.80964e-06,9.99981e-01
5.107366428e-01,4.86933e-06,9.99999e-01,9.99999e-01,9.98954e-01,4.87444e-06,9.99996e-01
5.132903260e-01,6.20286e-06,9.99999e-01,9.99999e-01,9.99401e-01,6.20657e-06,9.99999e-01
5.158567776e-01,7.86314e-06,9.99999e-01,9.99999e-01,9.99747e-01,7.86513e-06,9.99999e-01
5.184360615e-01,9.91937e-06,9.99999e-01,9.99999e-01,9.99898e-01,9.92038e-06,9.99999e-01
5.210282418e-01,1.24550e-05,9.99999e-01,9.99999e-01,9.99961e-01,1.24554e-05,9.99999e-01
5.236333830e-01,1.55658e-05,9.99999e-01,9.99999e-01,9.99848e-01,1.55682e-05,9.99998e-01
5.262515499e-01,1.93714e-05,9.99999e-01,9.99999e-01,9.99904e-01,1.93733e-05,9.99998e-01
5.288828077e-01,2.40024e-05,9.99999e-01,9.99999e-01,9.99912e-01,2.40045e-05,9.99998e-01
5.315272217e-01,2.96149e-05,9.99999e-01,9.99999e-01,9.99923e-01,2.96171e-05,9.99999e-01
5.341848578e-01,3.63890e-05,9.99999e-01,9.99999e-01,9.99949e-01,3.63908e-05,9.99999e-01
5.368557821e-01,4.45242e-05,9.99999e-01,9.99999e-01,9.99823e-01,4.45321e-05,9.99999e-01
5.395400610e-01,5.42430e-05,9.99999e-01,9.99999e-01,9.99364e-01,5.42778e-05,9.99994e-01
5.422377613e-01,6.58431e-05,9.99999e-01,9.99999e-01,9.99176e-01,6.58983e-05,9.99984e-01
5.449489501e-01,7.96384e-05,9.99999e-01,9.99999e-01,9.99234e-01,7.97006e-05,9.99984e-01
5.476736949e-01,9.59666e-05,9.99999e-01,9.99999e-01,9.99321e-01,9.60324e-05,9.99991e-01
5.504120634e-01,1.15229e-04,9.99999e-01,9.99999e-01,9.99507e-01,1.15286e-04,9.99997e-01
5.531641237e-01,1.37866e-04,9.99999e-01,9.99999e-01,9.99751e-01,1.37900e-04,9.99999e-01
5.559299443e-01,1.64349e-04,9.99999e-01,9.99999e-01,9.99880e-01,1.64368e-04,9.99999e-01
5.587095940e-01,1.95224e-04,9.99999e-01,9.99999e-01,9.99924e-01,1.95238e-04,9.99999e-01
5.615031420e-01,2.31100e-04,9.99999e-01,9.99999e-01,9.99916e-01,2.31119e-04,9.99999e-01
5.643106577e-01,2.72658e-04,9.99999e-01,9.99999e-01,9.99905e-01,2.72683e-04,9.99998e-01
5.671322110e-01,3.20303e-04,9.99999e-01,9.99999e-01,9.98853e-01,3.20674e-04,9.99989e-01
5.699678720e-01,3.75432e-04,9.99999e-01,9.99999e-01,9.98775e-01,3.75904e-04,9.99968e-01
5.728177114e-01,4.38696e-04,9.99999e-01,9.99999e-01,9.98727e-01,4.39266e-04,9.99973e-01
5.756818000e-01,5.11126e-04,9.99999e-01,9.99999e-01,9.98831e-01,5.11732e-04,9.99983e-01
5.785602090e-01,5.93748e-04,9.99999e-01,9.99999e-01,9.98980e-01,5.94356e-04,9.99994e-01
5.814530100e-01,6.87578e-04,9.99999e-01,9.99999e-01,9.98976e-01,6.88284e-04,9.99997e-01
5.843602750e-01,7.93775e-04,9.99999e-01,9.99999e-01,9.98782e-01,7.94748e-04,9.99992e-01
5.872820764e-01,9.05453e-04,9.99999e-01,9.99999e-01,9.89555e-01,9.15077e-04,9.99925e-01
5.902184868e-01,1.03717e-03,9.99999e-01,9.99999e-01,9.87324e-01,1.05069e-03,9.99798e-01
5.931695792e-01,1.19211e-03,9.99999e-01,9.99999e-01,9.91041e-01,1.20312e-03,9.99806e-01
5.961354271e-01,1.36033e-03,9.99999e-01,9.99999e-01,9.90174e-01,1.37398e-03,9.99888e-01
5.991161043e-01,1.55371e-03,9.99999e-01,9.99999e-01,9.92823e-01,1.56499e-03,9.99965e-01
6.021116848e-01,1.77073e-03,9.99999e-01,9.99999e-01,9.95921e-01,1.77798e-03,9.99995e-01
6.051222432e-01,2.01072e-03,9.99999e-01,9.99999e-01,9.97934e-01,2.01488e-03,9.99999e-01
6.081478544e-01,2.27567e-03,9.99999e-01,9.99999e-01,9.99108e-01,2.27770e-03,9.99999e-01
6.111885937e-01,2.56761e-03,9.99999e-01,9.99999e-01,9.99622e-01,2.56858e-03,9.99999e-01
6.142445367e-01,2.88924e-03,9.99999e-01,9.99999e-01,9.99831e-01,2.88973e-03,9.99999e-01
6.173157594e-01,3.24318e-03,9.99999e-01,9.99999e-01,9.99906e-01,3.24348e-03,9.99999e-01
6.204023382e-01,3.63196e-03,9.99999e-01,9.99999e-01,9.99921e-01,3.63225e-03,9.99999e-01
6.235043498e-01,4.05712e-03,9.99999e-01,9.99999e-01,9.99654e-01,4.05852e-03,9.99998e-01
6.266218716e-01,4.51655e-03,9.99999e-01,9.99999e-01,9.98168e-01,4.52490e-03,9.99986e-01
6.297549810e-01,5.03052e-03,9.99999e-01,9.99999e-01,9.99327e-01,5.03403e-03,9.99973e-01
6.329037559e-01,5.58114e-03,9.99999e-01,9.99999e-01,9.98671e-01,5.58868e-03,9.99978e-01
6.360682746e-01,6.18456e-03,9.99999e-01,9.99999e-01,9.98869e-01,6.19163e-03,9.99987e-01
6.392486160e-01,6.83571e-03,9.99999e-01,9.99999e-01,9.98534e-01,6.84577e-03,9.99994e-01
6.424448591e-01,7.53918e-03,9.99999e-01,9.99999e-01,9.98042e-01,7.55402e-03,9.99990e-01
6.456570834e-01,8.24357e-03,9.99999e-01,9.99999e-01,9.90940e-01,8.31935e-03,9.99949e-01
6.488853688e-01,9.08268e-03,9.99999e-01,9.99999e-01,9.93349e-01,9.14477e-03,9.99858e-01
6.521297956e-01,9.96417e-03,9.99999e-01,9.99999e-01,9.93222e-01,1.00333e-02,9.99883e-01
6.553904446e-01,1.09130e-02,9.99999e-01,9.99999e-01,9.93254e-01,1.09881e-02,9.99912e-01
6.586673968e-01,1.19423e-02,9.99999e-01,9.99999e-01,9.94217e-01,1.20121e-02,9.99970e-01
6.619607338e-01,1.30645e-02,9.99999e-01,9.99999e-01,9.96653e-01,1.31084e-02,9.99993e-01
6.652705375e-01,1.42524e-02,9.99999e-01,9.99999e-01,9.98061e-01,1.42802e-02,9.99996e-01
6.685968902e-01,1.55164e-02,9.99999e-01,9.99999e-01,9.99098e-01,1.55304e-02,9.99998e-01
6.719398746e-01,1.68550e-02,9.99999e-01,9.99999e-01,9.99582e-01,1.68621e-02,9.99999e-01
6.752995740e-01,1.82741e-02,9.99999e-01,9.99999e-01,9.99773e-01,1.82782e-02,9.99999e-01
6.786760719e-01,1.97753e-02,9.99999e-01,9.99999e-01,9.99673e-01,1.97817e-02,9.99999e-01
6.820694522e-01,2.13636e-02,9.99999e-01,9.99999e-01,9.99441e-01,2.13756e-02,9.99996e-01
6.854797995e-01,2.30457e-02,9.99999e-01,9.99999e-01,9.99279e-01,2.30625e-02,9.99993e-01
6.889071985e-01,2.48016e-02,9.99999e-01,9.99999e-01,9.98261e-01,2.48452e-02,9.99983e-01
6.923517345e-01,2.59728e-02,9.99999e-01,9.99999e-01,9.71934e-01,2.67264e-02,9.99863e-01
6.958134932e-01,2.82772e-02,9.99999e-01,9.99999e-01,9.85270e-01,2.87086e-02,9.99697e-01
6.992925606e-01,3.03557e-02,9.99999e-01,9.99999e-01,9.86025e-01,3.07943e-02,9.99727e-01
7.027890234e-01,3.24100e-02,9.99999e-01,9.99999e-01,9.82748e-01,3.29858e-02,9.99791e-01
7.063029686e-01,3.47691e-02,9.99999e-01,9.99999e-01,9.85473e-01,3.52853e-02,9.99896e-01
7.098344834e-01,3.71670e-02,9.99999e-01,9.99999e-01,9.86055e-01,3.76948e-02,9.99938e-01
7.133836558e-01,3.94685e-02,9.99999e-01,9.99999e-01,9.81521e-01,4.02165e-02,9.99877e-01
7.169505741e-01,3.68946e-02,9.99999e-01,9.99999e-01,8.61803e-01,4.28519e-02,9.99042e-01
7.205353270e-01,4.23111e-02,9.99999e-01,9.99999e-01,9.29384e-01,4.56029e-02,9.98312e-01
7.241380036e-01,4.41038e-02,9.99999e-01,9.99999e-01,9.11231e-01,4.84708e-02,9.98542e-01
7.277586936e-01,4.72609e-02,9.99999e-01,9.99999e-01,9.19547e-01,5.14571e-02,9.98808e-01
7.313974871e-01,4.98622e-02,9.99999e-01,9.99999e-01,9.14356e-01,5.45629e-02,9.99441e-01
7.350544745e-01,5.50176e-02,9.99999e-01,9.99999e-01,9.52222e-01,5.77893e-02,9.99805e-01
7.387297469e-01,5.89655e-02,9.99999e-01,9.99999e-01,9.64567e-01,6.11369e-02,9.99910e-01
7.424233956e-01,6.34745e-02,9.99999e-01,9.99999e-01,9.82492e-01,6.46066e-02,9.99982e-01
7.461355126e-01,6.74727e-02,9.99999e-01,9.99999e-01,9.89355e-01,6.81989e-02,9.99996e-01
7.498661902e-01,7.15563e-02,9.99999e-01,9.99999e-01,9.95028e-01,7.19139e-02,9.99998e-01
7.536155211e-01,7.55671e-02,9.99999e-01,9.99999e-01,9.97559e-01,7.57519e-02,9.99998e-01
7.573835987e-01,7.96127e-02,9.99999e-01,9.99999e-01,9.98743e-01,7.97129e-02,9.99999e-01
7.611705167e-01,8.37311e-02,9.99999e-01,9.99999e-01,9.99218e-01,8.37965e-02,9.99999e-01
7.649763693e-01,8.79594e-02,9.99999e-01,9.99999e-01,9.99510e-01,8.80025e-02,9.99999e-01
7.688012511e-01,9.22987e-02,9.99999e-01,9.99999e-01,9.99658e-01,9.23302e-02,9.99999e-01
7.726452574e-01,9.67518e-02,9.99999e-01,9.99999e-01,9.99719e-01,9.67789e-02,9.99999e-01
7.765084837e-01,1.01307e-01,9.99999e-01,9.99999e-01,9.99601e-01,1.01348e-01,9.99999e-01
7.803910261e-01,9.68362e-02,9.99999e-01,9.14691e-01,9.98281e-01,1.06036e-01,9.99997e-01
7.842929812e-01,7.09224e-02,9.99999e-01,6.43250e-01,9.94014e-01,1.10841e-01,9.99988e-01
7.882144461e-01,7.18705e-02,9.99999e-01,6.27851e-01,9.87684e-01,1.15763e-01,9.99923e-01
7.921555184e-01,9.01644e-02,9.99999e-01,7.51263e-01,9.93225e-01,1.20800e-01,9.99853e-01
7.961162960e-01,1.02541e-01,9.99999e-01,8.23806e-01,9.88078e-01,1.25950e-01,9.99859e-01
8.000968774e-01,1.16479e-01,9.99999e-01,9.00148e-01,9.86218e-01,1.31212e-01,9.99850e-01
8.040973618e-01,1.27535e-01,9.99999e-01,9.46837e-01,9.86221e-01,1.36582e-01,9.99881e-01
8.081178486e-01,1.34289e-01,9.99999e-01,9.75227e-01,9.69286e-01,1.42060e-01,9.99888e-01
8.121584379e-01,1.28689e-01,9.99999e-01,9.92275e-01,8.78589e-01,1.47643e-01,9.99562e-01
8.162192301e-01,1.31062e-01,9.99999e-01,9.98288e-01,8.57570e-01,1.53329e-01,9.98357e-01
8.203003262e-01,1.47304e-01,9.99999e-01,9.99973e-01,9.27576e-01,1.59114e-01,9.98077e-01
8.244018279e-01,1.48365e-01,9.99999e-01,9.99999e-01,9.00573e-01,1.64998e-01,9.98469e-01
8.285238370e-01,1.55768e-01,9.99999e-01,9.99999e-01,9.12151e-01,1.70976e-01,9.98797e-01
8.326664562e-01,1.61261e-01,9.99999e-01,9.99999e-01,9.11297e-01,1.77046e-01,9.99502e-01
8.368297885e-01,1.71376e-01,9.99999e-01,9.99999e-01,9.35539e-01,1.83205e-01,9.99885e-01
8.410139374e-01,1.82079e-01,9.99999e-01,9.99999e-01,9.61149e-01,1.89451e-01,9.99933e-01
8.452190071e-01,1.92002e-01,9.99999e-01,9.99999e-01,9.80744e-01,1.95780e-01,9.99959e-01
8.494451021e-01,1.99916e-01,9.99999e-01,9.99999e-01,9.88787e-01,2.02189e-01,9.99967e-01
8.536923276e-01,2.07284e-01,9.99999e-01,9.99999e-01,9.93352e-01,2.08675e-01,9.99980e-01
8.579607893e-01,2.14352e-01,9.99999e-01,9.99999e-01,9.95903e-01,2.15235e-01,9.99994e-01
8.622505932e-01,2.21287e-01,9.99999e-01,9.99999e-01,9.97394e-01,2.21865e-01,9.99998e-01
8.665618462e-01,1.98582e-01,9.99999e-01,8.70138e-01,9.98388e-01,2.28563e-01,9.99999e-01
8.708946554e-01,7.94838e-02,9.99999e-01,3.38334e-01,9.98156e-01,2.35324e-01,9.99998e-01
8.752491287e-01,9.78651e-02,9.99999e-01,4.05087e-01,9.97533e-01,2.42146e-01,9.99996e-01
8.796253743e-01,1.49238e-01,9.99999e-01,6.01182e-01,9.96587e-01,2.49026e-01,9.99991e-01
8.840235012e-01,1.94919e-01,9.99999e-01,7.64394e-01,9.96102e-01,2.55958e-01,9.99975e-01
8.884436187e-01,2.33096e-01,9.99999e-01,8.98836e-01,9.85934e-01,2.62942e-01,9.99931e-01
8.928858368e-01,2.23044e-01,9.99999e-01,9.57626e-01,8.62091e-01,2.69972e-01,9.99609e-01
8.973502660e-01,2.10688e-01,9.99999e-01,9.89528e-01,7.69582e-01,2.77046e-01,9.98002e-01
9.018370173e-01,2.47531e-01,9.99999e-01,9.98840e-01,8.74763e-01,2.84160e-01,9.96861e-01
9.063462024e-01,2.51472e-01,9.99999e-01,9.71292e-01,8.88832e-01,2.91311e-01,9.97242e-01
9.108779334e-01,2.31902e-01,9.99999e-01,9.34095e-01,8.32115e-01,2.98495e-01,9.97134e-01
9.154323231e-01,2.43653e-01,9.99999e-01,9.84095e-01,8.11009e-01,3.05709e-01,9.97631e-01
9.200094847e-01,2.21126e-01,9.99999e-01,8.15905e-01,8.49034e-01,3.12949e-01,9.98673e-01
9.246095321e-01,1.81665e-01,9.99999e-01,7.17772e-01,7.80761e-01,3.20214e-01,9.98471e-01
9.292325798e-01,5.57194e-02,9.99999e-01,7.74951e-01,2.09191e-01,3.27498e-01,9.94053e-01
9.338787427e-01,3.53559e-02,9.99999e-01,7.79048e-01,1.32051e-01,3.34799e-01,9.75647e-01
9.385481364e-01,1.24055e-01,9.99999e-01,8.31144e-01,4.38270e-01,3.42114e-01,9.71103e-01
9.432408771e-01,1.02282e-01,9.99999e-01,8.92354e-01,3.31685e-01,3.49440e-01,9.75020e-01
9.479570815e-01,7.22089e-02,9.99999e-01,9.43209e-01,2.17510e-01,3.56773e-01,9.79621e-01
9.526968669e-01,1.07818e-01,9.99999e-01,9.72222e-01,3.06820e-01,3.64111e-01,9.87520e-01
9.574603512e-01,1.18566e-01,9.99999e-01,9.88014e-01,3.24474e-01,3.71450e-01,9.93641e-01
9.622476530e-01,1.48093e-01,9.99999e-01,9.96245e-01,3.93938e-01,3.78787e-01,9.95598e-01
9.670588912e-01,2.23718e-01,9.99999e-01,9.98873e-01,5.81711e-01,3.86121e-01,9.96987e-01
9.718941857e-01,2.77505e-01,9.99999e-01,9.99919e-01,7.06931e-01,3.93447e-01,9.97781e-01
9.767536566e-01,2.99867e-01,9.99999e-01,9.99999e-01,7.49509e-01,4.00764e-01,9.98304e-01
9.816374249e-01,3.29016e-01,9.99999e-01,9.99999e-01,8.06751e-01,4.08068e-01,9.99412e-01
9.865456120e-01,3.63026e-01,9.99999e-01,9.99999e-01,8.74115e-01,4.15357e-01,9.99877e-01
9.914783401e-01,3.88829e-01,9.99999e-01,9.99999e-01,9.20057e-01,4.22628e-01,9.99965e-01
9.964357318e-01,4.10799e-01,9.99999e-01,9.99999e-01,9.55633e-01,4.29879e-01,9.99979e-01
1.001417910e+00,4.25362e-01,9.99999e-01,9.99999e-01,9.73156e-01,4.37108e-01,9.99969e-01
1.006425000e+00,4.37456e-01,9.99999e-01,9.99999e-01,9.84611e-01,4.44312e-01,9.99956e-01
1.011457125e+00,4.47146e-01,9.99999e-01,9.99999e-01,9.90418e-01,4.51489e-01,9.99959e-01
1.016514411e+00,4.55637e-01,9.99999e-01,9.99999e-01,9.93486e-01,4.58637e-01,9.99971e-01
1.021596983e+00,4.63251e-01,9.99999e-01,9.99845e-01,9.94807e-01,4.65753e-01,9.99971e-01
1.026704968e+00,4.65539e-01,9.99999e-01,9.88575e-01,9.95948e-01,4.72836e-01,9.99980e-01
1.031838492e+00,4.33942e-01,9.99999e-01,9.06799e-01,9.97053e-01,4.79883e-01,9.99994e-01
1.036997685e+00,2.53024e-02,9.99999e-01,5.20358e-02,9.98249e-01,4.86894e-01,9.99998e-01
1.042182673e+00,1.83008e-03,9.99999e-01,3.71158e-03,9.97914e-01,4.93865e-01,9.99999e-01
1.047393587e+00,4.72520e-03,9.99999e-01,9.45717e-03,9.97234e-01,5.00795e-01,9.99998e-01
1.052630555e+00,6.24411e-07,9.99999e-01,1.23288e-06,9.96206e-01,5.07683e-01,9.99998e-01
1.057893707e+00,2.34208e-06,9.99999e-01,4.56692e-06,9.93676e-01,5.14526e-01,9.99997e-01
1.063183176e+00,5.75713e-05,9.99999e-01,1.11101e-04,9.89614e-01,5.21324e-01,9.99994e-01
1.068499092e+00,5.61502e-04,9.99999e-01,1.07576e-03,9.82666e-01,5.28075e-01,9.99987e-01
1.073841587e+00,6.44425e-03,9.99999e-01,1.22294e-02,9.79767e-01,5.34778e-01,9.99973e-01
1.079210795e+00,3.33934e-02,9.99999e-01,6.29664e-02,9.74115e-01,5.41430e-01,9.99929e-01
1.084606849e+00,1.10093e-01,9.99999e-01,2.08058e-01,9.61114e-01,5.48032e-01,9.99831e-01
1.090029883e+00,2.31155e-01,9.99999e-01,4.39378e-01,9.44757e-01,5.54581e-01,9.99651e-01
1.095480033e+00,3.21326e-01,9.99999e-01,6.65681e-01,8.56620e-01,5.61077e-01,9.99369e-01
1.100957433e+00,3.17223e-01,9.99999e-01,8.21106e-01,6.77414e-01,5.67518e-01,9.98840e-01
1.106462220e+00,2.04439e-01,9.99999e-01,9.21584e-01,3.84335e-01,5.73904e-01,9.98034e-01
1.111994531e+00,7.88892e-02,9.99999e-01,9.70148e-01,1.40139e-01,5.80233e-01,9.94792e-01
1.117554504e+00,2.62662e-02,9.99999e-01,9.92625e-01,4.58396e-02,5.86506e-01,9.81326e-01
1.123142276e+00,6.78199e-02,9.99999e-01,9.99513e-01,1.19660e-01,5.92720e-01,9.56283e-01
1.128757988e+00,1.31133e-01,9.99999e-01,9.99999e-01,2.30586e-01,5.98875e-01,9.49602e-01
1.134401778e+00,5.91988e-02,9.99999e-01,9.99999e-01,1.02253e-01,6.04971e-01,9.56981e-01
1.140073787e+00,2.36824e-01,9.99999e-01,9.99999e-01,4.01455e-01,6.11006e-01,9.65477e-01
1.145774156e+00,9.95023e-02,9.99999e-01,9.99999e-01,1.66543e-01,6.16981e-01,9.68353e-01
1.151503026e+00,8.46098e-02,9.99999e-01,9.99999e-01,1.38289e-01,6.22894e-01,9.82244e-01
1.157260541e+00,1.07326e-01,9.99999e-01,9.99999e-01,1.71616e-01,6.28746e-01,9.94657e-01
1.163046844e+00,1.70015e-01,9.99999e-01,9.99999e-01,2.68344e-01,6.34535e-01,9.98482e-01
1.168862078e+00,2.50124e-01,9.99999e-01,9.99999e-01,3.90965e-01,6.40262e-01,9.99217e-01
1.174706389e+00,3.60851e-01,9.99999e-01,9.99999e-01,5.59237e-01,6.45926e-01,9.98963e-01
1.180579921e+00,4.55723e-01,9.99999e-01,9.99999e-01,7.00567e-01,6.51526e-01,9.98433e-01
1.186482820e+00,5.35814e-01,9.99999e-01,9.99979e-01,8.16793e-01,6.57063e-01,9.98391e-01
1.192415234e+00,5.65755e-01,9.99999e-01,9.61107e-01,8.88365e-01,6.62537e-01,9.98795e-01
1.198377311e+00,3.18304e-01,9.99999e-01,5.18360e-01,9.05113e-01,6.67946e-01,9.98862e-01
1.204369197e+00,5.64062e-30,9.99999e-01,8.85660e-30,9.10199e-01,6.73292e-01,9.98970e-01
1.210391043e+00,2.74542e-121,9.99999e-01,4.25665e-121,9.13803e-01,6.78573e-01,9.99373e-01
1.216442998e+00,5.88298e-105,9.99999e-01,9.02576e-105,9.26165e-01,6.83791e-01,9.99615e-01
1.222525213e+00,2.24491e-103,9.99999e-01,3.36118e-103,9.41960e-01,6.88944e-01,9.99761e-01
1.228637839e+00,9.51980e-80,9.99999e-01,1.41068e-79,9.59323e-01,6.94033e-01,9.99888e-01
