#,Wave/freq,Total,N2,CO2,H2O,Rayleigh,CIA
4.000000000e-01,3.38887e-02,9.99999e-01,9.99999e-01,9.99992e-01,3.38889e-02,9.99999e-01
4.020000000e-01,3.62343e-02,9.99999e-01,9.99999e-01,9.99995e-01,3.62345e-02,9.99999e-01
4.040100000e-01,3.86885e-02,9.99999e-01,9.99999e-01,9.99997e-01,3.86886e-02,9.99999e-01
4.060300500e-01,4.12555e-02,9.99999e-01,9.99999e-01,9.99999e-01,4.12555e-02,9.99999e-01
4.080602003e-01,4.39369e-02,9.99999e-01,9.99999e-01,9.99999e-01,4.39369e-02,9.99999e-01
4.101005013e-01,4.67344e-02,9.99999e-01,9.99999e-01,9.99999e-01,4.67344e-02,9.99999e-01
4.121510038e-01,4.96495e-02,9.99999e-01,9.99999e-01,9.99999e-01,4.96495e-02,9.99999e-01
4.142117588e-01,5.26833e-02,9.99999e-01,9.99999e-01,9.99997e-01,5.26834e-02,9.99999e-01
4.162828176e-01,5.58368e-02,9.99999e-01,9.99999e-01,9.99991e-01,5.58372e-02,9.99999e-01
4.183642317e-01,5.91117e-02,9.99999e-01,9.99999e-01,9.99994e-01,5.91119e-02,9.99999e-01
4.204560528e-01,6.25081e-02,9.99999e-01,9.99999e-01,9.99996e-01,6.25083e-02,9.99999e-01
4.225583331e-01,6.60268e-02,9.99999e-01,9.99999e-01,9.99998e-01,6.60269e-02,9.99999e-01
4.246711247e-01,6.96681e-02,9.99999e-01,9.99999e-01,9.99998e-01,6.96681e-02,9.99999e-01
4.267944804e-01,7.34322e-02,9.99999e-01,9.99999e-01,9.99998e-01,7.34323e-02,9.99999e-01
4.289284528e-01,7.73194e-02,9.99999e-01,9.99999e-01,9.99998e-01,7.73194e-02,9.99999e-01
4.310730950e-01,8.13294e-02,9.99999e-01,9.99999e-01,9.99999e-01,8.13294e-02,9.99999e-01
4.332284605e-01,8.54620e-02,9.99999e-01,9.99999e-01,9.99999e-01,8.54620e-02,9.99999e-01
4.353946028e-01,8.97167e-02,9.99999e-01,9.99999e-01,9.99999e-01,8.97167e-02,9.99999e-01
4.375715758e-01,9.40928e-02,9.99999e-01,9.99999e-01,9.99998e-01,9.40928e-02,9.99999e-01
4.397594337e-01,9.85890e-02,9.99999e-01,9.99999e-01,9.99992e-01,9.85897e-02,9.99999e-01
4.419582309e-01,1.03202e-01,9.99999e-01,9.99999e-01,9.99963e-01,1.03206e-01,9.99999e-01
4.441680220e-01,1.07938e-01,9.99999e-01,9.99999e-01,9.99971e-01,1.07941e-01,9.99999e-01
4.463888621e-01,1.12790e-01,9.99999e-01,9.99999e-01,9.99970e-01,1.12794e-01,9.99999e-01
4.486208064e-01,1.17760e-01,9.99999e-01,9.99999e-01,9.99981e-01,1.17762e-01,9.99999e-01
4.508639105e-01,1.22843e-01,9.99999e-01,9.99999e-01,9.99991e-01,1.22844e-01,9.99999e-01
4.531182300e-01,1.28038e-01,9.99999e-01,9.99999e-01,9.99996e-01,1.28039e-01,9.99999e-01
4.553838212e-01,1.33344e-01,9.99999e-01,9.99999e-01,9.99997e-01,1.33344e-01,9.99999e-01
4.576607403e-01,1.38758e-01,9.99999e-01,9.99999e-01,9.99998e-01,1.38758e-01,9.99999e-01
4.599490440e-01,1.44278e-01,9.99999e-01,9.99999e-01,9.99998e-01,1.44278e-01,9.99999e-01
4.622487892e-01,1.49902e-01,9.99999e-01,9.99999e-01,9.99999e-01,1.49902e-01,9.99999e-01
4.645600332e-01,1.55628e-01,9.99999e-01,9.99999e-01,9.99998e-01,1.55628e-01,9.99999e-01
4.668828333e-01,1.61452e-01,9.99999e-01,9.99999e-01,9.99990e-01,1.61453e-01,9.99999e-01
4.692172475e-01,1.67371e-01,9.99999e-01,9.99999e-01,9.99981e-01,1.67374e-01,9.99999e-01
4.715633337e-01,1.73388e-01,9.99999e-01,9.99999e-01,9.99987e-01,1.73390e-01,9.99999e-01
4.739211504e-01,1.79494e-01,9.99999e-01,9.99999e-01,9.99988e-01,1.79496e-01,9.99999e-01
4.762907561e-01,1.85689e-01,9.99999e-01,9.99999e-01,9.99993e-01,1.85690e-01,9.99999e-01
4.786722099e-01,1.91969e-01,9.99999e-01,9.99999e-01,9.99997e-01,1.91969e-01,9.99999e-01
4.810655710e-01,1.98331e-01,9.99999e-01,9.99999e-01,9.99998e-01,1.98331e-01,9.99999e-01
4.834708988e-01,2.04769e-01,9.99999e-01,9.99999e-01,9.99992e-01,2.04771e-01,9.99999e-01
4.858882533e-01,2.11284e-01,9.99999e-01,9.99999e-01,9.99986e-01,2.11287e-01,9.99999e-01
4.883176946e-01,2.17873e-01,9.99999e-01,9.99999e-01,9.99988e-01,2.17875e-01,9.99999e-01
4.907592831e-01,2.24531e-01,9.99999e-01,9.99999e-01,9.99989e-01,2.24533e-01,9.99999e-01
4.932130795e-01,2.31255e-01,9.99999e-01,9.99999e-01,9.99992e-01,2.31256e-01,9.99999e-01
4.956791449e-01,2.38042e-01,9.99999e-01,9.99999e-01,9.99995e-01,2.38042e-01,9.99999e-01
4.981575406e-01,2.44883e-01,9.99999e-01,9.99999e-01,9.99981e-01,2.44888e-01,9.99999e-01
5.006483283e-01,2.51777e-01,9.99999e-01,9.99999e-01,9.99951e-01,2.51789e-01,9.99999e-01
5.031515699e-01,2.58679e-01,9.99999e-01,9.99999e-01,9.99757e-01,2.58742e-01,9.99996e-01
5.056673278e-01,2.65710e-01,9.99999e-01,9.99999e-01,9.99871e-01,2.65745e-01,9.99996e-01
5.081956644e-01,2.72748e-01,9.99999e-01,9.99999e-01,9.99838e-01,2.72793e-01,9.99997e-01
5.107366428e-01,2.79852e-01,9.99999e-01,9.99999e-01,9.99890e-01,2.79883e-01,9.99999e-01
5.132903260e-01,2.86994e-01,9.99999e-01,9.99999e-01,9.99937e-01,2.87012e-01,9.99999e-01
5.158567776e-01,2.94169e-01,9.99999e-01,9.99999e-01,9.99973e-01,2.94176e-01,9.99999e-01
5.184360615e-01,3.01370e-01,9.99999e-01,9.99999e-01,9.99988e-01,3.01373e-01,9.99999e-01
5.210282418e-01,3.08597e-01,9.99999e-01,9.99999e-01,9.99995e-01,3.08598e-01,9.99999e-01
5.236333830e-01,3.15844e-01,9.99999e-01,9.99999e-01,9.99983e-01,3.15849e-01,9.99999e-01
5.262515499e-01,3.23118e-01,9.99999e-01,9.99999e-01,9.99989e-01,3.23121e-01,9.99999e-01
5.288828077e-01,3.30410e-01,9.99999e-01,9.99999e-01,9.99990e-01,3.30413e-01,9.99999e-01
5.315272217e-01,3.37717e-01,9.99999e-01,9.99999e-01,9.99991e-01,3.37720e-01,9.99999e-01
5.341848578e-01,3.45038e-01,9.99999e-01,9.99999e-01,9.99994e-01,3.45039e-01,9.99999e-01
5.368557821e-01,3.52362e-01,9.99999e-01,9.99999e-01,9.99981e-01,3.52368e-01,9.99999e-01
5.395400610e-01,3.59680e-01,9.99999e-01,9.99999e-01,9.99933e-01,3.59704e-01,9.99998e-01
5.422377613e-01,3.67010e-01,9.99999e-01,9.99999e-01,9.99913e-01,3.67042e-01,9.99997e-01
5.449489501e-01,3.74351e-01,9.99999e-01,9.99999e-01,9.99919e-01,3.74381e-01,9.99997e-01
5.476736949e-01,3.81690e-01,9.99999e-01,9.99999e-01,9.99928e-01,3.81717e-01,9.99998e-01
5.504120634e-01,3.89028e-01,9.99999e-01,9.99999e-01,9.99948e-01,3.89048e-01,9.99999e-01
5.531641237e-01,3.96361e-01,9.99999e-01,9.99999e-01,9.99973e-01,3.96371e-01,9.99999e-01
5.559299443e-01,4.03678e-01,9.99999e-01,9.99999e-01,9.99987e-01,4.03683e-01,9.99999e-01
5.587095940e-01,4.10978e-01,9.99999e-01,9.99999e-01,9.99991e-01,4.10981e-01,9.99999e-01
5.615031420e-01,4.18260e-01,9.99999e-01,9.99999e-01,9.99990e-01,4.18264e-01,9.99999e-01
5.643106577e-01,4.25523e-01,9.99999e-01,9.99999e-01,9.99989e-01,4.25527e-01,9.99999e-01
5.671322110e-01,4.32717e-01,9.99999e-01,9.99999e-01,9.99879e-01,4.32770e-01,9.99998e-01
5.699678720e-01,4.39932e-01,9.99999e-01,9.99999e-01,9.99872e-01,4.39989e-01,9.99996e-01
5.728177114e-01,4.47122e-01,9.99999e-01,9.99999e-01,9.99866e-01,4.47183e-01,9.99996e-01
5.756818000e-01,4.54292e-01,9.99999e-01,9.99999e-01,9.99877e-01,4.54348e-01,9.99997e-01
5.785602090e-01,4.61434e-01,9.99999e-01,9.99999e-01,9.99893e-01,4.61483e-01,9.99999e-01
5.814530100e-01,4.68536e-01,9.99999e-01,9.99999e-01,9.99892e-01,4.68586e-01,9.99999e-01
5.843602750e-01,4.75595e-01,9.99999e-01,9.99999e-01,9.99872e-01,4.75655e-01,9.99998e-01
5.872820764e-01,4.82155e-01,9.99999e-01,9.99999e-01,9.98902e-01,4.82688e-01,9.99991e-01
5.902184868e-01,4.89023e-01,9.99999e-01,9.99999e-01,9.98672e-01,4.89683e-01,9.99978e-01
5.931695792e-01,4.96162e-01,9.99999e-01,9.99999e-01,9.99061e-01,4.96638e-01,9.99979e-01
5.961354271e-01,5.03028e-01,9.99999e-01,9.99999e-01,9.98971e-01,5.03552e-01,9.99987e-01
5.991161043e-01,5.10038e-01,9.99999e-01,9.99999e-01,9.99250e-01,5.10422e-01,9.99995e-01
6.021116848e-01,5.17028e-01,9.99999e-01,9.99999e-01,9.99574e-01,5.17248e-01,9.99999e-01
6.051222432e-01,5.23914e-01,9.99999e-01,9.99999e-01,9.99784e-01,5.24027e-01,9.99999e-01
6.081478544e-01,5.30709e-01,9.99999e-01,9.99999e-01,9.99906e-01,5.30759e-01,9.99999e-01
6.111885937e-01,5.37420e-01,9.99999e-01,9.99999e-01,9.99960e-01,5.37441e-01,9.99999e-01
6.142445367e-01,5.44064e-01,9.99999e-01,9.99999e-01,9.99981e-01,5.44074e-01,9.99999e-01
6.173157594e-01,5.50649e-01,9.99999e-01,9.99999e-01,9.99989e-01,5.50654e-01,9.99999e-01
6.204023382e-01,5.57178e-01,9.99999e-01,9.99999e-01,9.99991e-01,5.57182e-01,9.99999e-01
6.235043498e-01,5.63636e-01,9.99999e-01,9.99999e-01,9.99963e-01,5.63656e-01,9.99999e-01
6.266218716e-01,5.69966e-01,9.99999e-01,9.99999e-01,9.99808e-01,5.70076e-01,9.99998e-01
6.297549810e-01,5.76397e-01,9.99999e-01,9.99999e-01,9.99929e-01,5.76439e-01,9.99996e-01
6.329037559e-01,5.82664e-01,9.99999e-01,9.99999e-01,9.99861e-01,5.82746e-01,9.99997e-01
6.360682746e-01,5.88925e-01,9.99999e-01,9.99999e-01,9.99881e-01,5.88995e-01,9.99998e-01
6.392486160e-01,5.95094e-01,9.99999e-01,9.99999e-01,9.99846e-01,5.95186e-01,9.99998e-01
6.424448591e-01,6.01194e-01,9.99999e-01,9.99999e-01,9.99794e-01,6.01317e-01,9.99998e-01
6.456570834e-01,6.06808e-01,9.99999e-01,9.99999e-01,9.99049e-01,6.07389e-01,9.99994e-01
6.488853688e-01,6.12965e-01,9.99999e-01,9.99999e-01,9.99304e-01,6.13400e-01,9.99984e-01
6.521297956e-01,6.18904e-01,9.99999e-01,9.99999e-01,9.99291e-01,6.19350e-01,9.99987e-01
6.553904446e-01,6.24793e-01,9.99999e-01,9.99999e-01,9.99294e-01,6.25239e-01,9.99990e-01
6.586673968e-01,6.30683e-01,9.99999e-01,9.99999e-01,9.99395e-01,6.31066e-01,9.99996e-01
6.619607338e-01,6.36616e-01,9.99999e-01,9.99999e-01,9.99663e-01,6.36830e-01,9.99998e-01
6.652705375e-01,6.42402e-01,9.99999e-01,9.99999e-01,9.99797e-01,6.42532e-01,9.99999e-01
6.685968902e-01,6.48110e-01,9.99999e-01,9.99999e-01,9.99905e-01,6.48171e-01,9.99999e-01
6.719398746e-01,6.53718e-01,9.99999e-01,9.99999e-01,9.99956e-01,6.53746e-01,9.99999e-01
6.752995740e-01,6.59242e-01,9.99999e-01,9.99999e-01,9.99975e-01,6.59257e-01,9.99999e-01
6.786760719e-01,6.64683e-01,9.99999e-01,9.99999e-01,9.99965e-01,6.64705e-01,9.99999e-01
6.820694522e-01,6.70050e-01,9.99999e-01,9.99999e-01,9.99941e-01,6.70089e-01,9.99999e-01
6.854797995e-01,6.75358e-01,9.99999e-01,9.99999e-01,9.99924e-01,6.75409e-01,9.99998e-01
6.889071985e-01,6.80540e-01,9.99999e-01,9.99999e-01,9.99817e-01,6.80665e-01,9.99997e-01
6.923517345e-01,6.83807e-01,9.99999e-01,9.99999e-01,9.97024e-01,6.85857e-01,9.99985e-01
6.958134932e-01,6.89897e-01,9.99999e-01,9.99999e-01,9.98456e-01,6.90984e-01,9.99968e-01
6.992925606e-01,6.95005e-01,9.99999e-01,9.99999e-01,9.98530e-01,6.96048e-01,9.99971e-01
7.027890234e-01,6.99762e-01,9.99999e-01,9.99999e-01,9.98187e-01,7.01047e-01,9.99977e-01
7.063029686e-01,7.04900e-01,9.99999e-01,9.99999e-01,9.98476e-01,7.05983e-01,9.99988e-01
7.098344834e-01,7.09812e-01,9.99999e-01,9.99999e-01,9.98538e-01,7.10855e-01,9.99993e-01
7.133836558e-01,7.14256e-01,9.99999e-01,9.99999e-01,9.98046e-01,7.15663e-01,9.99986e-01
7.169505741e-01,7.09039e-01,9.99999e-01,9.99999e-01,9.84316e-01,7.20408e-01,9.99899e-01
7.205353270e-01,7.19403e-01,9.99999e-01,9.99999e-01,9.92331e-01,7.25090e-01,9.99823e-01
7.241380036e-01,7.22485e-01,9.99999e-01,9.99999e-01,9.90251e-01,7.29708e-01,9.99847e-01
7.277586936e-01,7.27712e-01,9.99999e-01,9.99999e-01,9.91199e-01,7.34264e-01,9.99875e-01
7.313974871e-01,7.31821e-01,9.99999e-01,9.99999e-01,9.90667e-01,7.38758e-01,9.99941e-01
7.350544745e-01,7.39382e-01,9.99999e-01,9.99999e-01,9.94896e-01,7.43189e-01,9.99979e-01
7.387297469e-01,7.44746e-01,9.99999e-01,9.99999e-01,9.96246e-01,7.47559e-01,9.99990e-01
7.424233956e-01,7.50486e-01,9.99999e-01,9.99999e-01,9.98163e-01,7.51868e-01,9.99997e-01
7.461355126e-01,7.55273e-01,9.99999e-01,9.99999e-01,9.98886e-01,7.56115e-01,9.99999e-01
7.498661902e-01,7.59908e-01,9.99999e-01,9.99999e-01,9.99481e-01,7.60302e-01,9.99999e-01
7.536155211e-01,7.64234e-01,9.99999e-01,9.99999e-01,9.99745e-01,7.64429e-01,9.99999e-01
7.573835987e-01,7.68395e-01,9.99999e-01,9.99999e-01,9.99868e-01,7.68495e-01,9.99999e-01
7.611705167e-01,7.72440e-01,9.99999e-01,9.99999e-01,9.99918e-01,7.72503e-01,9.99999e-01
7.649763693e-01,7.76412e-01,9.99999e-01,9.99999e-01,9.99948e-01,7.76452e-01,9.99999e-01
7.688012511e-01,7.80314e-01,9.99999e-01,9.99999e-01,9.99964e-01,7.80342e-01,9.99999e-01
7.726452574e-01,7.84151e-01,9.99999e-01,9.99999e-01,9.99970e-01,7.84174e-01,9.99999e-01
7.765084837e-01,7.87916e-01,9.99999e-01,9.99999e-01,9.99957e-01,7.87949e-01,9.99999e-01
7.803910261e-01,7.82214e-01,9.99999e-01,9.88234e-01,9.99819e-01,7.91667e-01,9.99999e-01
7.842929812e-01,7.56395e-01,9.99999e-01,9.51634e-01,9.99372e-01,7.95329e-01,9.99998e-01
7.882144461e-01,7.56418e-01,9.99999e-01,9.47997e-01,9.98709e-01,7.98934e-01,9.99990e-01
7.921555184e-01,7.77821e-01,9.99999e-01,9.69961e-01,9.99292e-01,8.02484e-01,9.99984e-01
7.961162960e-01,7.88783e-01,9.99999e-01,9.79900e-01,9.98747e-01,8.05980e-01,9.99984e-01
8.000968774e-01,7.99398e-01,9.99999e-01,9.89058e-01,9.98555e-01,8.09421e-01,9.99983e-01
8.040973618e-01,8.07021e-01,9.99999e-01,9.94326e-01,9.98554e-01,8.12809e-01,9.99987e-01
8.081178486e-01,8.11349e-01,9.99999e-01,9.97390e-01,9.96736e-01,8.16143e-01,9.99987e-01
8.121584379e-01,8.07616e-01,9.99999e-01,9.99194e-01,9.86424e-01,8.19425e-01,9.99954e-01
8.162192301e-01,8.09138e-01,9.99999e-01,9.99821e-01,9.83910e-01,8.22655e-01,9.99828e-01
8.203003262e-01,8.18957e-01,9.99999e-01,9.99996e-01,9.91874e-01,8.25833e-01,9.99799e-01
8.244018279e-01,8.19437e-01,9.99999e-01,9.99999e-01,9.88669e-01,8.28960e-01,9.99840e-01
8.285238370e-01,8.23931e-01,9.99999e-01,9.99999e-01,9.90380e-01,8.32037e-01,9.99874e-01
8.326664562e-01,8.26902e-01,9.99999e-01,9.99999e-01,9.90276e-01,8.35065e-01,9.99947e-01
8.368297885e-01,8.32221e-01,9.99999e-01,9.99999e-01,9.93063e-01,8.38043e-01,9.99987e-01
8.410139374e-01,8.37500e-01,9.99999e-01,9.99999e-01,9.95877e-01,8.40973e-01,9.99992e-01
8.452190071e-01,8.42146e-01,9.99999e-01,9.99999e-01,9.97978e-01,8.43855e-01,9.99995e-01
8.494451021e-01,8.45694e-01,9.99999e-01,9.99999e-01,9.98826e-01,8.46690e-01,9.99996e-01
8.536923276e-01,8.48887e-01,9.99999e-01,9.99999e-01,9.99306e-01,8.49477e-01,9.99997e-01
8.579607893e-01,8.51855e-01,9.99999e-01,9.99999e-01,9.99572e-01,8.52219e-01,9.99999e-01
8.622505932e-01,8.54683e-01,9.99999e-01,9.99999e-01,9.99728e-01,8.54915e-01,9.99999e-01
8.665618462e-01,8.28778e-01,9.99999e-01,9.66589e-01,9.99831e-01,8.57566e-01,9.99999e-01
8.708946554e-01,7.56102e-01,9.99999e-01,8.79178e-01,9.99807e-01,8.60173e-01,9.99999e-01
8.752491287e-01,7.79041e-01,9.99999e-01,9.03217e-01,9.99742e-01,8.62736e-01,9.99999e-01
8.796253743e-01,8.18593e-01,9.99999e-01,9.46405e-01,9.99643e-01,8.65256e-01,9.99998e-01
8.840235012e-01,8.43120e-01,9.99999e-01,9.72030e-01,9.99592e-01,8.67733e-01,9.99997e-01
8.884436187e-01,8.59240e-01,9.99999e-01,9.88918e-01,9.98507e-01,8.70168e-01,9.99992e-01
8.928858368e-01,8.55010e-01,9.99999e-01,9.95499e-01,9.84341e-01,8.72561e-01,9.99958e-01
8.973502660e-01,8.49706e-01,9.99999e-01,9.98907e-01,9.72445e-01,8.74914e-01,9.99791e-01
9.018370173e-01,8.64430e-01,9.99999e-01,9.99879e-01,9.85852e-01,8.77227e-01,9.99672e-01
9.063462024e-01,8.65593e-01,9.99999e-01,9.96871e-01,9.87528e-01,8.79499e-01,9.99712e-01
9.108779334e-01,8.58279e-01,9.99999e-01,9.92899e-01,9.80625e-01,8.81733e-01,9.99700e-01
9.154323231e-01,8.62885e-01,9.99999e-01,9.98333e-01,9.78053e-01,8.83928e-01,9.99752e-01
9.200094847e-01,8.48995e-01,9.99999e-01,9.74779e-01,9.82758e-01,8.86084e-01,9.99861e-01
9.246095321e-01,8.34316e-01,9.99999e-01,9.65641e-01,9.72686e-01,8.88204e-01,9.99840e-01
9.292325798e-01,7.18321e-01,9.99999e-01,9.72742e-01,8.29034e-01,8.90286e-01,9.99378e-01
9.338787427e-01,6.80535e-01,9.99999e-01,9.73802e-01,7.84310e-01,8.92332e-01,9.97435e-01
9.385481364e-01,7.93573e-01,9.99999e-01,9.80741e-01,9.07150e-01,8.94342e-01,9.96950e-01
9.432408771e-01,7.69489e-01,9.99999e-01,9.88195e-01,8.70835e-01,8.96317e-01,9.97368e-01
9.479570815e-01,7.33290e-01,9.99999e-01,9.93926e-01,8.22990e-01,8.98257e-01,9.97857e-01
9.526968669e-01,7.77218e-01,9.99999e-01,9.97067e-01,8.67002e-01,9.00163e-01,9.98692e-01
9.574603512e-01,7.92551e-01,9.99999e-01,9.98745e-01,8.80287e-01,9.02035e-01,9.99335e-01
9.622476530e-01,8.14689e-01,9.99999e-01,9.99608e-01,9.02089e-01,9.03874e-01,9.99540e-01
9.670588912e-01,8.53244e-01,9.99999e-01,9.99882e-01,9.42507e-01,9.05680e-01,9.99685e-01
9.718941857e-01,8.74507e-01,9.99999e-01,9.99991e-01,9.63923e-01,9.07454e-01,9.99768e-01
9.767536566e-01,8.81743e-01,9.99999e-01,9.99999e-01,9.69976e-01,9.09196e-01,9.99822e-01
9.816374249e-01,8.90547e-01,9.99999e-01,9.99999e-01,9.77707e-01,9.10907e-01,9.99938e-01
9.865456120e-01,8.99829e-01,9.99999e-01,9.99999e-01,9.86030e-01,9.12588e-01,9.99986e-01
9.914783401e-01,9.06327e-01,9.99999e-01,9.99999e-01,9.91349e-01,9.14238e-01,9.99995e-01
9.964357318e-01,9.11536e-01,9.99999e-01,9.99999e-01,9.95281e-01,9.15859e-01,9.99997e-01
1.001417910e+00,9.14852e-01,9.99999e-01,9.99999e-01,9.97170e-01,9.17450e-01,9.99996e-01
1.006425000e+00,9.17526e-01,9.99999e-01,9.99999e-01,9.98386e-01,9.19013e-01,9.99995e-01
1.011457125e+00,9.19622e-01,9.99999e-01,9.99999e-01,9.98998e-01,9.20547e-01,9.99995e-01
1.016514411e+00,9.21424e-01,9.99999e-01,9.99999e-01,9.99319e-01,9.22054e-01,9.99996e-01
1.021596983e+00,9.23014e-01,9.99999e-01,9.99982e-01,9.99457e-01,9.23533e-01,9.99996e-01
1.026704968e+00,9.23469e-01,9.99999e-01,9.98784e-01,9.99577e-01,9.24985e-01,9.99997e-01
1.031838492e+00,9.07357e-01,9.99999e-01,9.79728e-01,9.99692e-01,9.26411e-01,9.99998e-01
1.036997685e+00,3.60139e-01,9.99999e-01,3.88222e-01,9.99817e-01,9.27811e-01,9.99999e-01
1.042182673e+00,4.49982e-01,9.99999e-01,4.84376e-01,9.99781e-01,9.29185e-01,9.99999e-01
1.047393587e+00,3.94459e-01,9.99999e-01,4.24019e-01,9.99711e-01,9.30534e-01,9.99999e-01
1.052630555e+00,1.07518e-01,9.99999e-01,1.15418e-01,9.99603e-01,9.31858e-01,9.99999e-01
1.057893707e+00,1.77937e-01,9.99999e-01,1.90789e-01,9.99338e-01,9.33158e-01,9.99999e-01
1.063183176e+00,2.83699e-01,9.99999e-01,3.03890e-01,9.98911e-01,9.34434e-01,9.99998e-01
1.068499092e+00,4.27323e-01,9.99999e-01,4.57475e-01,9.98177e-01,9.35687e-01,9.99998e-01
1.073841587e+00,5.71357e-01,9.99999e-01,6.11049e-01,9.97865e-01,9.36916e-01,9.99996e-01
1.079210795e+00,6.86346e-01,9.99999e-01,7.33564e-01,9.97267e-01,9.38123e-01,9.99992e-01
1.084606849e+00,7.90370e-01,9.99999e-01,8.44893e-01,9.95863e-01,9.39307e-01,9.99982e-01
1.090029883e+00,8.56846e-01,9.99999e-01,9.16518e-01,9.94051e-01,9.40469e-01,9.99963e-01
1.095480033e+00,8.87533e-01,9.99999e-01,9.58025e-01,9.83874e-01,9.41610e-01,9.99933e-01
1.100957433e+00,8.85952e-01,9.99999e-01,9.79591e-01,9.59401e-01,9.42730e-01,9.99878e-01
1.106462220e+00,8.41220e-01,9.99999e-01,9.91517e-01,8.98999e-01,9.43829e-01,9.99794e-01
1.111994531e+00,7.51264e-01,9.99999e-01,9.96848e-01,7.97949e-01,9.44907e-01,9.99455e-01
1.117554504e+00,6.52811e-01,9.99999e-01,9.99230e-01,6.91951e-01,9.45965e-01,9.98038e-01
1.123142276e+00,7.13786e-01,9.99999e-01,9.99949e-01,7.57277e-01,9.47004e-01,9.95354e-01
1.128757988e+00,7.91871e-01,9.99999e-01,9.99999e-01,8.39796e-01,9.48023e-01,9.94628e-01
1.134401778e+00,6.10707e-01,9.99999e-01,9.99999e-01,6.46464e-01,9.49023e-01,9.95430e-01
1.140073787e+00,8.54658e-01,9.99999e-01,9.99999e-01,9.02932e-01,9.50004e-01,9.96347e-01
1.145774156e+00,7.63385e-01,9.99999e-01,9.99999e-01,8.05439e-01,9.50967e-01,9.96655e-01
1.151503026e+00,7.44801e-01,9.99999e-01,9.99999e-01,7.83886e-01,9.51912e-01,9.98135e-01
1.157260541e+00,7.81479e-01,9.99999e-01,9.99999e-01,8.20616e-01,9.52839e-01,9.99441e-01
1.163046844e+00,8.24532e-01,9.99999e-01,9.99999e-01,8.64653e-01,9.53749e-01,9.99841e-01
1.168862078e+00,8.63602e-01,9.99999e-01,9.99999e-01,9.04708e-01,9.54641e-01,9.99918e-01
1.174706389e+00,8.98184e-01,9.99999e-01,9.99999e-01,9.40098e-01,9.55517e-01,9.99891e-01
1.180579921e+00,9.20976e-01,9.99999e-01,9.99999e-01,9.63142e-01,9.56376e-01,9.99836e-01
1.186482820e+00,9.37000e-01,9.99999e-01,9.99997e-01,9.79042e-01,9.57219e-01,9.99831e-01
1.192415234e+00,9.42036e-01,9.99999e-01,9.95614e-01,9.87727e-01,9.58046e-01,9.99874e-01
1.198377311e+00,5.79983e-01,9.99999e-01,6.10312e-01,9.89641e-01,9.58857e-01,9.99880e-01
1.204369197e+00,4.01284e-05,9.99999e-01,4.20585e-05,9.90188e-01,9.59653e-01,9.99892e-01
1.210391043e+00,1.20556e-14,9.99999e-01,1.26188e-14,9.90621e-01,9.60434e-01,9.99934e-01
1.216442998e+00,6.62792e-13,9.99999e-01,6.93023e-13,9.92019e-01,9.61200e-01,9.99959e-01
1.222525213e+00,1.12328e-12,9.99999e-01,1.17181e-12,9.93784e-01,9.61952e-01,9.99974e-01
1.228637839e+00,1.09294e-09,9.99999e-01,1.13888e-09,9.95680e-01,9.62689e-01,9.99987e-01
