#,Wave/freq,Total,N2,CO2,H2O,Rayleigh,CIA
4.000000000e-01,5.86417e-16,9.99999e-01,9.99999e-01,9.99932e-01,5.86457e-16,9.99999e-01
4.020000000e-01,1.17327e-15,9.99999e-01,9.99999e-01,9.99957e-01,1.17332e-15,9.99999e-01
4.040100000e-01,2.31380e-15,9.99999e-01,9.99999e-01,9.99981e-01,2.31384e-15,9.99999e-01
4.060300500e-01,4.50217e-15,9.99999e-01,9.99999e-01,9.99995e-01,4.50219e-15,9.99999e-01
4.080602003e-01,8.64577e-15,9.99999e-01,9.99999e-01,9.99998e-01,8.64578e-15,9.99999e-01
4.101005013e-01,1.63903e-14,9.99999e-01,9.99999e-01,9.99999e-01,1.63903e-14,9.99999e-01
4.121510038e-01,3.06819e-14,9.99999e-01,9.99999e-01,9.99997e-01,3.06820e-14,9.99999e-01
4.142117588e-01,5.67274e-14,9.99999e-01,9.99999e-01,9.99981e-01,5.67285e-14,9.99999e-01
4.162828176e-01,1.03612e-13,9.99999e-01,9.99999e-01,9.99915e-01,1.03621e-13,9.99999e-01
4.183642317e-01,1.87026e-13,9.99999e-01,9.99999e-01,9.99949e-01,1.87035e-13,9.99999e-01
4.204560528e-01,3.33673e-13,9.99999e-01,9.99999e-01,9.99968e-01,3.33683e-13,9.99999e-01
4.225583331e-01,5.88538e-13,9.99999e-01,9.99999e-01,9.99988e-01,5.88545e-13,9.99999e-01
4.246711247e-01,1.02649e-12,9.99999e-01,9.99999e-01,9.99990e-01,1.02649e-12,9.99999e-01
4.267944804e-01,1.77075e-12,9.99999e-01,9.99999e-01,9.99986e-01,1.77077e-12,9.99999e-01
4.289284528e-01,3.02194e-12,9.99999e-01,9.99999e-01,9.99989e-01,3.02197e-12,9.99999e-01
4.310730950e-01,5.10306e-12,9.99999e-01,9.99999e-01,9.99995e-01,5.10308e-12,9.99999e-01
4.332284605e-01,8.52865e-12,9.99999e-01,9.99999e-01,9.99998e-01,8.52866e-12,9.99999e-01
4.353946028e-01,1.41099e-11,9.99999e-01,9.99999e-01,9.99999e-01,1.41099e-11,9.99999e-01
4.375715758e-01,2.31123e-11,9.99999e-01,9.99999e-01,9.99991e-01,2.31125e-11,9.99999e-01
4.397594337e-01,3.74892e-11,9.99999e-01,9.99999e-01,9.99927e-01,3.74919e-11,9.99999e-01
4.419582309e-01,6.02169e-11,9.99999e-01,9.99999e-01,9.99632e-01,6.02391e-11,9.99999e-01
4.441680220e-01,9.58570e-11,9.99999e-01,9.99999e-01,9.99706e-01,9.58851e-11,9.99999e-01
4.463888621e-01,1.51184e-10,9.99999e-01,9.99999e-01,9.99696e-01,1.51229e-10,9.99999e-01
4.486208064e-01,2.36336e-10,9.99999e-01,9.99999e-01,9.99810e-01,2.36381e-10,9.99999e-01
4.508639105e-01,3.66201e-10,9.99999e-01,9.99999e-01,9.99911e-01,3.66233e-10,9.99999e-01
4.531182300e-01,5.62512e-10,9.99999e-01,9.99999e-01,9.99964e-01,5.62532e-10,9.99999e-01
4.553838212e-01,8.56730e-10,9.99999e-01,9.99999e-01,9.99975e-01,8.56751e-10,9.99999e-01
4.576607403e-01,1.29404e-09,9.99999e-01,9.99999e-01,9.99988e-01,1.29406e-09,9.99999e-01
4.599490440e-01,1.93870e-09,9.99999e-01,9.99999e-01,9.99991e-01,1.93871e-09,9.99999e-01
4.622487892e-01,2.88142e-09,9.99999e-01,9.99999e-01,9.99998e-01,2.88142e-09,9.99999e-01
4.645600332e-01,4.24912e-09,9.99999e-01,9.99999e-01,9.99994e-01,4.24914e-09,9.99999e-01
4.668828333e-01,6.21762e-09,9.99999e-01,9.99999e-01,9.99911e-01,6.21817e-09,9.99999e-01
4.692172475e-01,9.02975e-09,9.99999e-01,9.99999e-01,9.99809e-01,9.03147e-09,9.99999e-01
4.715633337e-01,1.30196e-08,9.99999e-01,9.99999e-01,9.99875e-01,1.30212e-08,9.99999e-01
4.739211504e-01,1.86361e-08,9.99999e-01,9.99999e-01,9.99880e-01,1.86383e-08,9.99999e-01
4.762907561e-01,2.64886e-08,9.99999e-01,9.99999e-01,9.99937e-01,2.64902e-08,9.99999e-01
4.786722099e-01,3.73885e-08,9.99999e-01,9.99999e-01,9.99974e-01,3.73894e-08,9.99999e-01
4.810655710e-01,5.24146e-08,9.99999e-01,9.99999e-01,9.99991e-01,5.24150e-08,9.99999e-01
4.834708988e-01,7.29849e-08,9.99999e-01,9.99999e-01,9.99928e-01,7.29901e-08,9.99999e-01
4.858882533e-01,1.00966e-07,9.99999e-01,9.99999e-01,9.99864e-01,1.00979e-07,9.99999e-01
4.883176946e-01,1.38793e-07,9.99999e-01,9.99999e-01,9.99887e-01,1.38808e-07,9.99999e-01
4.907592831e-01,1.89595e-07,9.99999e-01,9.99999e-01,9.99897e-01,1.89614e-07,9.99999e-01
4.932130795e-01,2.57405e-07,9.99999e-01,9.99999e-01,9.99927e-01,2.57424e-07,9.99999e-01
4.956791449e-01,3.47367e-07,9.99999e-01,9.99999e-01,9.99961e-01,3.47380e-07,9.99999e-01
4.981575406e-01,4.65916e-07,9.99999e-01,9.99999e-01,9.99809e-01,4.66004e-07,9.99999e-01
5.006483283e-01,6.21213e-07,9.99999e-01,9.99999e-01,9.99509e-01,6.21520e-07,9.99996e-01
5.031515699e-01,8.22150e-07,9.99999e-01,9.99999e-01,9.97498e-01,8.24232e-07,9.99973e-01
5.056673278e-01,1.08551e-06,9.99999e-01,9.99999e-01,9.98674e-01,1.08698e-06,9.99969e-01
5.081956644e-01,1.42327e-06,9.99999e-01,9.99999e-01,9.98327e-01,1.42568e-06,9.99980e-01
5.107366428e-01,1.85781e-06,9.99999e-01,9.99999e-01,9.98869e-01,1.85992e-06,9.99995e-01
5.132903260e-01,2.41215e-06,9.99999e-01,9.99999e-01,9.99352e-01,2.41372e-06,9.99999e-01
5.158567776e-01,3.11547e-06,9.99999e-01,9.99999e-01,9.99726e-01,3.11632e-06,9.99999e-01
5.184360615e-01,4.00275e-06,9.99999e-01,9.99999e-01,9.99890e-01,4.00319e-06,9.99999e-01
5.210282418e-01,5.11687e-06,9.99999e-01,9.99999e-01,9.99958e-01,5.11708e-06,9.99999e-01
5.236333830e-01,6.50820e-06,9.99999e-01,9.99999e-01,9.99836e-01,6.50927e-06,9.99998e-01
5.262515499e-01,8.24010e-06,9.99999e-01,9.99999e-01,9.99897e-01,8.24096e-06,9.99997e-01
5.288828077e-01,1.03839e-05,9.99999e-01,9.99999e-01,9.99906e-01,1.03848e-05,9.99998e-01
5.315272217e-01,1.30257e-05,9.99999e-01,9.99999e-01,9.99916e-01,1.30268e-05,9.99999e-01
5.341848578e-01,1.62671e-05,9.99999e-01,9.99999e-01,9.99945e-01,1.62679e-05,9.99999e-01
5.368557821e-01,2.02226e-05,9.99999e-01,9.99999e-01,9.99810e-01,2.02265e-05,9.99999e-01
5.395400610e-01,2.50232e-05,9.99999e-01,9.99999e-01,9.99320e-01,2.50403e-05,9.99993e-01
5.422377613e-01,3.08414e-05,9.99999e-01,9.99999e-01,9.99109e-01,3.08694e-05,9.99983e-01
5.449489501e-01,3.78667e-05,9.99999e-01,9.99999e-01,9.99177e-01,3.78984e-05,9.99982e-01
5.476736949e-01,4.63055e-05,9.99999e-01,9.99999e-01,9.99265e-01,4.63398e-05,9.99991e-01
5.504120634e-01,5.64067e-05,9.99999e-01,9.99999e-01,9.99467e-01,5.64368e-05,9.99997e-01
5.531641237e-01,6.84484e-05,9.99999e-01,9.99999e-01,9.99731e-01,6.84668e-05,9.99999e-01
5.559299443e-01,8.27338e-05,9.99999e-01,9.99999e-01,9.99870e-01,8.27445e-05,9.99999e-01
5.587095940e-01,9.96183e-05,9.99999e-01,9.99999e-01,9.99918e-01,9.96263e-05,9.99999e-01
5.615031420e-01,1.19503e-04,9.99999e-01,9.99999e-01,9.99909e-01,1.19513e-04,9.99999e-01
5.643106577e-01,1.42841e-04,9.99999e-01,9.99999e-01,9.99898e-01,1.42855e-04,9.99998e-01
5.671322110e-01,1.69947e-04,9.99999e-01,9.99999e-01,9.98782e-01,1.70156e-04,9.99988e-01
5.699678720e-01,2.01700e-04,9.99999e-01,9.99999e-01,9.98670e-01,2.01975e-04,9.99965e-01
5.728177114e-01,2.38599e-04,9.99999e-01,9.99999e-01,9.98629e-01,2.38933e-04,9.99971e-01
5.756818000e-01,2.81358e-04,9.99999e-01,9.99999e-01,9.98739e-01,2.81718e-04,9.99982e-01
5.785602090e-01,3.30719e-04,9.99999e-01,9.99999e-01,9.98899e-01,3.31085e-04,9.99994e-01
5.814530100e-01,3.87435e-04,9.99999e-01,9.99999e-01,9.98896e-01,3.87864e-04,9.99997e-01
5.843602750e-01,4.52368e-04,9.99999e-01,9.99999e-01,9.98695e-01,4.52962e-04,9.99992e-01
5.872820764e-01,5.21420e-04,9.99999e-01,9.99999e-01,9.88801e-01,5.27367e-04,9.99919e-01
5.902184868e-01,6.03642e-04,9.99999e-01,9.99999e-01,9.86312e-01,6.12152e-04,9.99782e-01
5.931695792e-01,7.01492e-04,9.99999e-01,9.99999e-01,9.90348e-01,7.08478e-04,9.99788e-01
5.961354271e-01,8.08827e-04,9.99999e-01,9.99999e-01,9.89396e-01,8.17599e-04,9.99871e-01
5.991161043e-01,9.33532e-04,9.99999e-01,9.99999e-01,9.92246e-01,9.40861e-04,9.99962e-01
6.021116848e-01,1.07494e-03,9.99999e-01,9.99999e-01,9.95588e-01,1.07971e-03,9.99994e-01
6.051222432e-01,1.23292e-03,9.99999e-01,9.99999e-01,9.97764e-01,1.23568e-03,9.99999e-01
6.081478544e-01,1.40906e-03,9.99999e-01,9.99999e-01,9.99036e-01,1.41042e-03,9.99999e-01
6.111885937e-01,1.60501e-03,9.99999e-01,9.99999e-01,9.99590e-01,1.60566e-03,9.99999e-01
6.142445367e-01,1.82293e-03,9.99999e-01,9.99999e-01,9.99817e-01,1.82327e-03,9.99999e-01
6.173157594e-01,2.06496e-03,9.99999e-01,9.99999e-01,9.99899e-01,2.06517e-03,9.99999e-01
6.204023382e-01,2.33321e-03,9.99999e-01,9.99999e-01,9.99915e-01,2.33341e-03,9.99999e-01
6.235043498e-01,2.62918e-03,9.99999e-01,9.99999e-01,9.99632e-01,2.63015e-03,9.99998e-01
6.266218716e-01,2.95174e-03,9.99999e-01,9.99999e-01,9.98025e-01,2.95762e-03,9.99985e-01
6.297549810e-01,3.31566e-03,9.99999e-01,9.99999e-01,9.99275e-01,3.31816e-03,9.99971e-01
6.329037559e-01,3.70879e-03,9.99999e-01,9.99999e-01,9.98564e-01,3.71420e-03,9.99977e-01
6.360682746e-01,4.14316e-03,9.99999e-01,9.99999e-01,9.98782e-01,4.14826e-03,9.99986e-01
6.392486160e-01,4.61562e-03,9.99999e-01,9.99999e-01,9.98419e-01,4.62295e-03,9.99993e-01
6.424448591e-01,5.13012e-03,9.99999e-01,9.99999e-01,9.97901e-01,5.14095e-03,9.99990e-01
6.456570834e-01,5.64931e-03,9.99999e-01,9.99999e-01,9.90290e-01,5.70500e-03,9.99945e-01
6.488853688e-01,6.26375e-03,9.99999e-01,9.99999e-01,9.91574e-01,6.31794e-03,9.99847e-01
6.521297956e-01,6.93064e-03,9.99999e-01,9.99999e-01,9.92680e-01,6.98263e-03,9.99871e-01
6.553904446e-01,7.64559e-03,9.99999e-01,9.99999e-01,9.92765e-01,7.70203e-03,9.99903e-01
6.586673968e-01,8.42583e-03,9.99999e-01,9.99999e-01,9.93747e-01,8.47911e-03,9.99968e-01
6.619607338e-01,9.28310e-03,9.99999e-01,9.99999e-01,9.96381e-01,9.31687e-03,9.99992e-01
6.652705375e-01,1.01969e-02,9.99999e-01,9.99999e-01,9.97898e-01,1.02184e-02,9.99996e-01
6.685968902e-01,1.11758e-02,9.99999e-01,9.99999e-01,9.99023e-01,1.11867e-02,9.99998e-01
6.719398746e-01,1.22193e-02,9.99999e-01,9.99999e-01,9.99546e-01,1.22249e-02,9.99999e-01
6.752995740e-01,1.33328e-02,9.99999e-01,9.99999e-01,9.99755e-01,1.33360e-02,9.99999e-01
6.786760719e-01,1.45181e-02,9.99999e-01,9.99999e-01,9.99649e-01,1.45232e-02,9.99999e-01
6.820694522e-01,1.57799e-02,9.99999e-01,9.99999e-01,9.99397e-01,1.57894e-02,9.99996e-01
6.854797995e-01,1.71243e-02,9.99999e-01,9.99999e-01,9.99224e-01,1.71377e-02,9.99992e-01
6.889071985e-01,1.85364e-02,9.99999e-01,9.99999e-01,9.98150e-01,1.85710e-02,9.99982e-01
6.923517345e-01,1.94850e-02,9.99999e-01,9.99999e-01,9.69914e-01,2.00924e-02,9.99852e-01
6.958134932e-01,2.13493e-02,9.99999e-01,9.99999e-01,9.83958e-01,2.17045e-02,9.99667e-01
6.992925606e-01,2.30526e-02,9.99999e-01,9.99999e-01,9.85007e-01,2.34103e-02,9.99707e-01
7.027890234e-01,2.47376e-02,9.99999e-01,9.99999e-01,9.81382e-01,2.52125e-02,9.99775e-01
7.063029686e-01,2.66858e-02,9.99999e-01,9.99999e-01,9.84330e-01,2.71136e-02,9.99887e-01
7.098344834e-01,2.86765e-02,9.99999e-01,9.99999e-01,9.84958e-01,2.91163e-02,9.99933e-01
7.133836558e-01,3.06030e-02,9.99999e-01,9.99999e-01,9.80272e-01,3.12229e-02,9.99868e-01
7.169505741e-01,2.84784e-02,9.99999e-01,9.99999e-01,8.52615e-01,3.34358e-02,9.98967e-01
7.205353270e-01,3.29590e-02,9.99999e-01,9.99999e-01,9.23429e-01,3.57570e-02,9.98179e-01
7.241380036e-01,3.45017e-02,9.99999e-01,9.99999e-01,9.04872e-01,3.81888e-02,9.98427e-01
7.277586936e-01,3.71698e-02,9.99999e-01,9.99999e-01,9.13695e-01,4.07330e-02,9.98714e-01
7.313974871e-01,3.93621e-02,9.99999e-01,9.99999e-01,9.07686e-01,4.33914e-02,9.99397e-01
7.350544745e-01,4.37778e-02,9.99999e-01,9.99999e-01,9.48476e-01,4.61656e-02,9.99790e-01
7.387297469e-01,4.71757e-02,9.99999e-01,9.99999e-01,9.61741e-01,4.90570e-02,9.99903e-01
7.424233956e-01,5.10791e-02,9.99999e-01,9.99999e-01,9.81042e-01,5.20671e-02,9.99981e-01
7.461355126e-01,5.45612e-02,9.99999e-01,9.99999e-01,9.88486e-01,5.51968e-02,9.99996e-01
7.498661902e-01,5.81323e-02,9.99999e-01,9.99999e-01,9.94610e-01,5.84473e-02,9.99998e-01
7.536155211e-01,6.16561e-02,9.99999e-01,9.99999e-01,9.97360e-01,6.18193e-02,9.99998e-01
7.573835987e-01,6.52245e-02,9.99999e-01,9.99999e-01,9.98639e-01,6.53134e-02,9.99999e-01
7.611705167e-01,6.88719e-02,9.99999e-01,9.99999e-01,9.99154e-01,6.89301e-02,9.99999e-01
7.649763693e-01,7.26312e-02,9.99999e-01,9.99999e-01,9.99470e-01,7.26697e-02,9.99999e-01
7.688012511e-01,7.65041e-02,9.99999e-01,9.99999e-01,9.99631e-01,7.65322e-02,9.99999e-01
7.726452574e-01,8.04933e-02,9.99999e-01,9.99999e-01,9.99697e-01,8.05176e-02,9.99999e-01
7.765084837e-01,8.45896e-02,9.99999e-01,9.99999e-01,9.99572e-01,8.46257e-02,9.99998e-01
7.803910261e-01,8.09228e-02,9.99999e-01,9.12263e-01,9.98158e-01,8.88560e-02,9.99997e-01
7.842929812e-01,5.76341e-02,9.99999e-01,6.21825e-01,9.93587e-01,9.32079e-02,9.99987e-01
7.882144461e-01,5.86515e-02,9.99999e-01,6.07713e-01,9.86721e-01,9.76807e-02,9.99917e-01
7.921555184e-01,7.46715e-02,9.99999e-01,7.35254e-01,9.92665e-01,1.02273e-01,9.99841e-01
7.961162960e-01,8.56501e-02,9.99999e-01,8.10765e-01,9.87205e-01,1.06985e-01,9.99848e-01
8.000968774e-01,9.83047e-02,9.99999e-01,8.92457e-01,9.85146e-01,1.11814e-01,9.99838e-01
8.040973618e-01,1.08402e-01,9.99999e-01,9.42432e-01,9.85164e-01,1.16759e-01,9.99871e-01
8.081178486e-01,1.14664e-01,9.99999e-01,9.73227e-01,9.67128e-01,1.21819e-01,9.99879e-01
8.121584379e-01,1.09579e-01,9.99999e-01,9.91589e-01,8.70380e-01,1.26991e-01,9.99528e-01
8.162192301e-01,1.11643e-01,9.99999e-01,9.98135e-01,8.47006e-01,1.32274e-01,9.98228e-01
8.203003262e-01,1.26802e-01,9.99999e-01,9.99968e-01,9.23014e-01,1.37667e-01,9.97926e-01
8.244018279e-01,1.27594e-01,9.99999e-01,9.99999e-01,8.92704e-01,1.43166e-01,9.98349e-01
8.285238370e-01,1.34582e-01,9.99999e-01,9.99999e-01,9.05809e-01,1.48769e-01,9.98703e-01
8.326664562e-01,1.39667e-01,9.99999e-01,9.99999e-01,9.04625e-01,1.54475e-01,9.99463e-01
8.368297885e-01,1.49122e-01,9.99999e-01,9.99999e-01,9.30496e-01,1.60280e-01,9.99877e-01
8.410139374e-01,1.59199e-01,9.99999e-01,9.99999e-01,9.58043e-01,1.66183e-01,9.99927e-01
8.452190071e-01,1.68585e-01,9.99999e-01,9.99999e-01,9.79167e-01,1.72179e-01,9.99956e-01
8.494451021e-01,1.76104e-01,9.99999e-01,9.99999e-01,9.87898e-01,1.78268e-01,9.99965e-01
8.536923276e-01,1.83113e-01,9.99999e-01,9.99999e-01,9.92804e-01,1.84444e-01,9.99976e-01
8.579607893e-01,1.89862e-01,9.99999e-01,9.99999e-01,9.95575e-01,1.90707e-01,9.99993e-01
8.622505932e-01,1.96497e-01,9.99999e-01,9.99999e-01,9.97181e-01,1.97052e-01,9.99998e-01
8.665618462e-01,1.76612e-01,9.99999e-01,8.69382e-01,9.98261e-01,2.03477e-01,9.99998e-01
8.708946554e-01,6.57985e-02,9.99999e-01,3.13928e-01,9.98014e-01,2.09978e-01,9.99998e-01
8.752491287e-01,8.16881e-02,9.99999e-01,3.78154e-01,9.97341e-01,2.16552e-01,9.99996e-01
8.796253743e-01,1.28429e-01,9.99999e-01,5.77352e-01,9.96330e-01,2.23196e-01,9.99991e-01
8.840235012e-01,1.71254e-01,9.99999e-01,7.47893e-01,9.95806e-01,2.29907e-01,9.99973e-01
8.884436187e-01,2.07736e-01,9.99999e-01,8.90656e-01,9.85080e-01,2.36680e-01,9.99926e-01
8.928858368e-01,1.98411e-01,9.99999e-01,9.54161e-01,8.53167e-01,2.43514e-01,9.99579e-01
8.973502660e-01,1.86416e-01,9.99999e-01,9.88596e-01,7.54123e-01,2.50404e-01,9.97845e-01
9.018370173e-01,2.21609e-01,9.99999e-01,9.98734e-01,8.65043e-01,2.57348e-01,9.96615e-01
9.063462024e-01,2.25933e-01,9.99999e-01,9.69592e-01,8.81437e-01,2.64341e-01,9.97026e-01
9.108779334e-01,2.06818e-01,9.99999e-01,9.28883e-01,8.20709e-01,2.71380e-01,9.96910e-01
9.154323231e-01,2.18061e-01,9.99999e-01,9.82671e-01,7.98010e-01,2.78462e-01,9.97445e-01
9.200094847e-01,1.97634e-01,9.99999e-01,8.07296e-01,8.38157e-01,2.85583e-01,9.98569e-01
9.246095321e-01,1.59492e-01,9.99999e-01,6.98922e-01,7.68892e-01,2.92741e-01,9.98351e-01
9.292325798e-01,4.57492e-02,9.99999e-01,7.61150e-01,1.90034e-01,2.99931e-01,9.93588e-01
9.338787427e-01,2.75625e-02,9.99999e-01,7.63840e-01,1.13985e-01,3.07151e-01,9.73759e-01
9.385481364e-01,1.05937e-01,9.99999e-01,8.18939e-01,4.12866e-01,3.14397e-01,9.68868e-01
9.432408771e-01,8.70725e-02,9.99999e-01,8.83882e-01,3.09779e-01,3.21665e-01,9.73084e-01
9.479570815e-01,5.98039e-02,9.99999e-01,9.38737e-01,1.96461e-01,3.28953e-01,9.78038e-01
9.526968669e-01,9.13142e-02,9.99999e-01,9.69959e-01,2.82117e-01,3.36257e-01,9.86546e-01
9.574603512e-01,1.00931e-01,9.99999e-01,9.87021e-01,2.98986e-01,3.43575e-01,9.93143e-01
9.622476530e-01,1.27693e-01,9.99999e-01,9.95929e-01,3.66873e-01,3.50902e-01,9.95253e-01
9.670588912e-01,1.99115e-01,9.99999e-01,9.98776e-01,5.58213e-01,3.58236e-01,9.96751e-01
9.718941857e-01,2.50950e-01,9.99999e-01,9.99911e-01,6.88147e-01,3.65574e-01,9.97607e-01
9.767536566e-01,2.72821e-01,9.99999e-01,9.99999e-01,7.32933e-01,3.72914e-01,9.98171e-01
9.816374249e-01,3.01343e-01,9.99999e-01,9.99999e-01,7.92987e-01,3.80251e-01,9.99366e-01
9.865456120e-01,3.35084e-01,9.99999e-01,9.99999e-01,8.64662e-01,3.87583e-01,9.99867e-01
9.914783401e-01,3.60893e-01,9.99999e-01,9.99999e-01,9.13900e-01,3.94908e-01,9.99962e-01
9.964357318e-01,3.82960e-01,9.99999e-01,9.99999e-01,9.52131e-01,4.02222e-01,9.99978e-01
1.001417910e+00,3.97637e-01,9.99999e-01,9.99999e-01,9.71007e-01,4.09523e-01,9.99966e-01
1.006425000e+00,4.09870e-01,9.99999e-01,9.99999e-01,9.83396e-01,4.16809e-01,9.99952e-01
1.011457125e+00,4.19664e-01,9.99999e-01,9.99999e-01,9.89638e-01,4.24076e-01,9.99956e-01
1.016514411e+00,4.28276e-01,9.99999e-01,9.99999e-01,9.92964e-01,4.31323e-01,9.99969e-01
1.021596983e+00,4.36010e-01,9.99999e-01,9.99847e-01,9.94393e-01,4.38547e-01,9.99968e-01
1.026704968e+00,4.38426e-01,9.99999e-01,9.87899e-01,9.95627e-01,4.45746e-01,9.99979e-01
1.031838492e+00,4.08922e-01,9.99999e-01,9.05598e-01,9.96814e-01,4.52917e-01,9.99993e-01
1.036997685e+00,2.23159e-02,9.99999e-01,4.85758e-02,9.98110e-01,4.60059e-01,9.99998e-01
1.042182673e+00,1.22969e-03,9.99999e-01,2.63670e-03,9.97754e-01,4.67169e-01,9.99999e-01
1.047393587e+00,3.38417e-03,9.99999e-01,7.15360e-03,9.97018e-01,4.74245e-01,9.99998e-01
1.052630555e+00,2.54295e-07,9.99999e-01,5.29729e-07,9.95915e-01,4.81285e-01,9.99998e-01
1.057893707e+00,9.40157e-07,9.99999e-01,1.93210e-06,9.93199e-01,4.88287e-01,9.99997e-01
1.063183176e+00,2.97581e-05,9.99999e-01,6.04725e-05,9.88823e-01,4.95250e-01,9.99993e-01
1.068499092e+00,3.26452e-04,9.99999e-01,6.58089e-04,9.81333e-01,5.02172e-01,9.99986e-01
1.073841587e+00,4.39136e-03,9.99999e-01,8.76230e-03,9.78247e-01,5.09051e-01,9.99971e-01
1.079210795e+00,2.58819e-02,9.99999e-01,5.12862e-02,9.72105e-01,5.15886e-01,9.99924e-01
1.084606849e+00,9.25593e-02,9.99999e-01,1.83839e-01,9.58176e-01,5.22675e-01,9.99818e-01
1.090029883e+00,2.06033e-01,9.99999e-01,4.11679e-01,9.40883e-01,5.29416e-01,9.99624e-01
1.095480033e+00,2.93943e-01,9.99999e-01,6.44165e-01,8.46890e-01,5.36109e-01,9.99320e-01
1.100957433e+00,2.90504e-01,9.99999e-01,8.08030e-01,6.58609e-01,5.42751e-01,9.98749e-01
1.106462220e+00,1.82249e-01,9.99999e-01,9.15389e-01,3.60021e-01,5.49342e-01,9.97880e-01
1.111994531e+00,6.56944e-02,9.99999e-01,9.67718e-01,1.22081e-01,5.55881e-01,9.94384e-01
1.117554504e+00,2.03963e-02,9.99999e-01,9.91987e-01,3.71873e-02,5.62366e-01,9.79874e-01
1.123142276e+00,5.62270e-02,9.99999e-01,9.99468e-01,1.03742e-01,5.68796e-01,9.52931e-01
1.128757988e+00,1.13121e-01,9.99999e-01,9.99999e-01,2.07955e-01,5.75171e-01,9.45752e-01
1.134401778e+00,5.01814e-02,9.99999e-01,9.99999e-01,9.04892e-02,5.81489e-01,9.53681e-01
1.140073787e+00,2.12657e-01,9.99999e-01,9.99999e-01,3.75787e-01,5.87750e-01,9.62816e-01
1.145774156e+00,8.45162e-02,9.99999e-01,9.99999e-01,1.47316e-01,5.93952e-01,9.65909e-01
1.151503026e+00,7.11674e-02,9.99999e-01,9.99999e-01,1.20907e-01,6.00096e-01,9.80862e-01
1.157260541e+00,9.08710e-02,9.99999e-01,9.99999e-01,1.50776e-01,6.06179e-01,9.94239e-01
1.163046844e+00,1.48471e-01,9.99999e-01,9.99999e-01,2.42916e-01,6.12203e-01,9.98363e-01
1.168862078e+00,2.24298e-01,9.99999e-01,9.99999e-01,3.63150e-01,6.18165e-01,9.99156e-01
1.174706389e+00,3.33047e-01,9.99999e-01,9.99999e-01,5.34269e-01,6.24066e-01,9.98882e-01
1.180579921e+00,4.28213e-01,9.99999e-01,9.99999e-01,6.80955e-01,6.29906e-01,9.98310e-01
1.186482820e+00,5.10025e-01,9.99999e-01,9.99983e-01,8.03729e-01,6.35683e-01,9.98265e-01
1.192415234e+00,5.41540e-01,9.99999e-01,9.59174e-01,8.80064e-01,6.41397e-01,9.98700e-01
1.198377311e+00,3.04528e-01,9.99999e-01,5.15323e-01,8.98123e-01,6.47048e-01,9.98772e-01
1.204369197e+00,3.74245e-32,9.99999e-01,6.08872e-32,9.03530e-01,6.52636e-01,9.98889e-01
1.210391043e+00,1.21593e-130,9.99999e-01,1.95149e-130,9.07353e-01,6.58160e-01,9.99324e-01
1.216442998e+00,5.00545e-113,9.99999e-01,7.94270e-113,9.20476e-01,6.63621e-01,9.99585e-01
1.222525213e+00,2.54175e-111,9.99999e-01,3.92854e-111,9.37472e-01,6.69018e-01,9.99742e-01
1.228637839e+00,7.64442e-86,9.99999e-01,1.16840e-85,9.56169e-01,6.74350e-01,9.99880e-01
