#,Wave/freq,Total,N2,CO2,H2O,Rayleigh,CIA
4.000000000e-01,1.89928e-04,9.99999e-01,9.99999e-01,9.99983e-01,1.89931e-04,9.99999e-01
4.020000000e-01,2.24994e-04,9.99999e-01,9.99999e-01,9.99989e-01,2.24997e-04,9.99999e-01
4.040100000e-01,2.65600e-04,9.99999e-01,9.99999e-01,9.99995e-01,2.65601e-04,9.99999e-01
4.060300500e-01,3.12507e-04,9.99999e-01,9.99999e-01,9.99998e-01,3.12507e-04,9.99999e-01
4.080602003e-01,3.66518e-04,9.99999e-01,9.99999e-01,9.99999e-01,3.66518e-04,9.99999e-01
4.101005013e-01,4.28512e-04,9.99999e-01,9.99999e-01,9.99999e-01,4.28512e-04,9.99999e-01
4.121510038e-01,4.99447e-04,9.99999e-01,9.99999e-01,9.99998e-01,4.99448e-04,9.99999e-01
4.142117588e-01,5.80365e-04,9.99999e-01,9.99999e-01,9.99994e-01,5.80367e-04,9.99999e-01
4.162828176e-01,6.72386e-04,9.99999e-01,9.99999e-01,9.99979e-01,6.72400e-04,9.99999e-01
4.183642317e-01,7.76756e-04,9.99999e-01,9.99999e-01,9.99987e-01,7.76766e-04,9.99999e-01
4.204560528e-01,8.94770e-04,9.99999e-01,9.99999e-01,9.99992e-01,8.94776e-04,9.99999e-01
4.225583331e-01,1.02784e-03,9.99999e-01,9.99999e-01,9.99996e-01,1.02784e-03,9.99999e-01
4.246711247e-01,1.17746e-03,9.99999e-01,9.99999e-01,9.99997e-01,1.17746e-03,9.99999e-01
4.267944804e-01,1.34525e-03,9.99999e-01,9.99999e-01,9.99996e-01,1.34525e-03,9.99999e-01
4.289284528e-01,1.53291e-03,9.99999e-01,9.99999e-01,9.99996e-01,1.53291e-03,9.99999e-01
4.310730950e-01,1.74225e-03,9.99999e-01,9.99999e-01,9.99998e-01,1.74225e-03,9.99999e-01
4.332284605e-01,1.97517e-03,9.99999e-01,9.99999e-01,9.99999e-01,1.97517e-03,9.99999e-01
4.353946028e-01,2.23369e-03,9.99999e-01,9.99999e-01,9.99999e-01,2.23369e-03,9.99999e-01
4.375715758e-01,2.51991e-03,9.99999e-01,9.99999e-01,9.99997e-01,2.51992e-03,9.99999e-01
4.397594337e-01,2.83601e-03,9.99999e-01,9.99999e-01,9.99981e-01,2.83606e-03,9.99999e-01
4.419582309e-01,3.18413e-03,9.99999e-01,9.99999e-01,9.99907e-01,3.18442e-03,9.99999e-01
4.441680220e-01,3.56715e-03,9.99999e-01,9.99999e-01,9.99928e-01,3.56740e-03,9.99999e-01
4.463888621e-01,3.98719e-03,9.99999e-01,9.99999e-01,9.99925e-01,3.98749e-03,9.99999e-01
4.486208064e-01,4.44704e-03,9.99999e-01,9.99999e-01,9.99953e-01,4.44725e-03,9.99999e-01
4.508639105e-01,4.94923e-03,9.99999e-01,9.99999e-01,9.99978e-01,4.94934e-03,9.99999e-01
4.531182300e-01,5.49645e-03,9.99999e-01,9.99999e-01,9.99991e-01,5.49649e-03,9.99999e-01
4.553838212e-01,6.09147e-03,9.99999e-01,9.99999e-01,9.99993e-01,6.09151e-03,9.99999e-01
4.576607403e-01,6.73722e-03,9.99999e-01,9.99999e-01,9.99996e-01,6.73724e-03,9.99999e-01
4.599490440e-01,7.43659e-03,9.99999e-01,9.99999e-01,9.99997e-01,7.43660e-03,9.99999e-01
4.622487892e-01,8.19257e-03,9.99999e-01,9.99999e-01,9.99999e-01,8.19257e-03,9.99999e-01
4.645600332e-01,9.00813e-03,9.99999e-01,9.99999e-01,9.99998e-01,9.00815e-03,9.99999e-01
4.668828333e-01,9.88614e-03,9.99999e-01,9.99999e-01,9.99977e-01,9.88636e-03,9.99999e-01
4.692172475e-01,1.08298e-02,9.99999e-01,9.99999e-01,9.99953e-01,1.08303e-02,9.99999e-01
4.715633337e-01,1.18426e-02,9.99999e-01,9.99999e-01,9.99969e-01,1.18430e-02,9.99999e-01
4.739211504e-01,1.29271e-02,9.99999e-01,9.99999e-01,9.99970e-01,1.29275e-02,9.99999e-01
4.762907561e-01,1.40867e-02,9.99999e-01,9.99999e-01,9.99984e-01,1.40869e-02,9.99999e-01
4.786722099e-01,1.53242e-02,9.99999e-01,9.99999e-01,9.99993e-01,1.53243e-02,9.99999e-01
4.810655710e-01,1.66427e-02,9.99999e-01,9.99999e-01,9.99997e-01,1.66427e-02,9.99999e-01
4.834708988e-01,1.80448e-02,9.99999e-01,9.99999e-01,9.99981e-01,1.80451e-02,9.99999e-01
4.858882533e-01,1.95338e-02,9.99999e-01,9.99999e-01,9.99966e-01,1.95345e-02,9.99999e-01
4.883176946e-01,2.11130e-02,9.99999e-01,9.99999e-01,9.99971e-01,2.11136e-02,9.99999e-01
4.907592831e-01,2.27848e-02,9.99999e-01,9.99999e-01,9.99974e-01,2.27854e-02,9.99999e-01
4.932130795e-01,2.45521e-02,9.99999e-01,9.99999e-01,9.99981e-01,2.45526e-02,9.99999e-01
4.956791449e-01,2.64175e-02,9.99999e-01,9.99999e-01,9.99990e-01,2.64178e-02,9.99999e-01
4.981575406e-01,2.83823e-02,9.99999e-01,9.99999e-01,9.99952e-01,2.83836e-02,9.99999e-01
5.006483283e-01,3.04488e-02,9.99999e-01,9.99999e-01,9.99877e-01,3.04525e-02,9.99998e-01
5.031515699e-01,3.26066e-02,9.99999e-01,9.99999e-01,9.99385e-01,3.26269e-02,9.99993e-01
5.056673278e-01,3.48974e-02,9.99999e-01,9.99999e-01,9.99676e-01,3.49089e-02,9.99992e-01
5.081956644e-01,3.72853e-02,9.99999e-01,9.99999e-01,9.99592e-01,3.73007e-02,9.99995e-01
5.107366428e-01,3.97932e-02,9.99999e-01,9.99999e-01,9.99724e-01,3.98042e-02,9.99998e-01
5.132903260e-01,4.24146e-02,9.99999e-01,9.99999e-01,9.99842e-01,4.24213e-02,9.99999e-01
5.158567776e-01,4.51506e-02,9.99999e-01,9.99999e-01,9.99933e-01,4.51536e-02,9.99999e-01
5.184360615e-01,4.80014e-02,9.99999e-01,9.99999e-01,9.99973e-01,4.80027e-02,9.99999e-01
5.210282418e-01,5.09694e-02,9.99999e-01,9.99999e-01,9.99989e-01,5.09699e-02,9.99999e-01
5.236333830e-01,5.40543e-02,9.99999e-01,9.99999e-01,9.99959e-01,5.40565e-02,9.99999e-01
5.262515499e-01,5.72619e-02,9.99999e-01,9.99999e-01,9.99974e-01,5.72634e-02,9.99999e-01
5.288828077e-01,6.05901e-02,9.99999e-01,9.99999e-01,9.99976e-01,6.05915e-02,9.99999e-01
5.315272217e-01,6.40403e-02,9.99999e-01,9.99999e-01,9.99979e-01,6.40416e-02,9.99999e-01
5.341848578e-01,6.76133e-02,9.99999e-01,9.99999e-01,9.99986e-01,6.76142e-02,9.99999e-01
5.368557821e-01,7.13061e-02,9.99999e-01,9.99999e-01,9.99952e-01,7.13095e-02,9.99999e-01
5.395400610e-01,7.51149e-02,9.99999e-01,9.99999e-01,9.99829e-01,7.51278e-02,9.99997e-01
5.422377613e-01,7.90516e-02,9.99999e-01,9.99999e-01,9.99783e-01,7.90690e-02,9.99995e-01
5.449489501e-01,8.31158e-02,9.99999e-01,9.99999e-01,9.99796e-01,8.31330e-02,9.99995e-01
5.476736949e-01,8.73036e-02,9.99999e-01,9.99999e-01,9.99821e-01,8.73193e-02,9.99997e-01
5.504120634e-01,9.16157e-02,9.99999e-01,9.99999e-01,9.99870e-01,9.16276e-02,9.99998e-01
5.531641237e-01,9.60507e-02,9.99999e-01,9.99999e-01,9.99934e-01,9.60569e-02,9.99999e-01
5.559299443e-01,1.00603e-01,9.99999e-01,9.99999e-01,9.99968e-01,1.00607e-01,9.99999e-01
5.587095940e-01,1.05273e-01,9.99999e-01,9.99999e-01,9.99979e-01,1.05275e-01,9.99999e-01
5.615031420e-01,1.10060e-01,9.99999e-01,9.99999e-01,9.99977e-01,1.10062e-01,9.99999e-01
5.643106577e-01,1.14963e-01,9.99999e-01,9.99999e-01,9.99974e-01,1.14966e-01,9.99999e-01
5.671322110e-01,1.19947e-01,9.99999e-01,9.99999e-01,9.99690e-01,1.19984e-01,9.99996e-01
5.699678720e-01,1.25075e-01,9.99999e-01,9.99999e-01,9.99679e-01,1.25116e-01,9.99991e-01
5.728177114e-01,1.30315e-01,9.99999e-01,9.99999e-01,9.99663e-01,1.30360e-01,9.99992e-01
5.756818000e-01,1.35671e-01,9.99999e-01,9.99999e-01,9.99691e-01,1.35713e-01,9.99995e-01
5.785602090e-01,1.41136e-01,9.99999e-01,9.99999e-01,9.99731e-01,1.41174e-01,9.99998e-01
5.814530100e-01,1.46701e-01,9.99999e-01,9.99999e-01,9.99729e-01,1.46740e-01,9.99998e-01
5.843602750e-01,1.52360e-01,9.99999e-01,9.99999e-01,9.99675e-01,1.52410e-01,9.99997e-01
5.872820764e-01,1.57735e-01,9.99999e-01,9.99999e-01,9.97208e-01,1.58179e-01,9.99980e-01
5.902184868e-01,1.63489e-01,9.99999e-01,9.99999e-01,9.96649e-01,1.64047e-01,9.99946e-01
5.931695792e-01,1.69598e-01,9.99999e-01,9.99999e-01,9.97624e-01,1.70010e-01,9.99948e-01
5.961354271e-01,1.75603e-01,9.99999e-01,9.99999e-01,9.97402e-01,1.76066e-01,9.99970e-01
5.991161043e-01,1.81865e-01,9.99999e-01,9.99999e-01,9.98107e-01,1.82211e-01,9.99990e-01
6.021116848e-01,1.88241e-01,9.99999e-01,9.99999e-01,9.98927e-01,1.88443e-01,9.99998e-01
6.051222432e-01,1.94653e-01,9.99999e-01,9.99999e-01,9.99457e-01,1.94759e-01,9.99999e-01
6.081478544e-01,2.01108e-01,9.99999e-01,9.99999e-01,9.99765e-01,2.01155e-01,9.99999e-01
6.111885937e-01,2.07609e-01,9.99999e-01,9.99999e-01,9.99900e-01,2.07629e-01,9.99999e-01
6.142445367e-01,2.14168e-01,9.99999e-01,9.99999e-01,9.99955e-01,2.14177e-01,9.99999e-01
6.173157594e-01,2.20791e-01,9.99999e-01,9.99999e-01,9.99975e-01,2.20797e-01,9.99999e-01
6.204023382e-01,2.27479e-01,9.99999e-01,9.99999e-01,9.99978e-01,2.27484e-01,9.99999e-01
6.235043498e-01,2.34213e-01,9.99999e-01,9.99999e-01,9.99906e-01,2.34235e-01,9.99999e-01
6.266218716e-01,2.40930e-01,9.99999e-01,9.99999e-01,9.99516e-01,2.41048e-01,9.99996e-01
6.297549810e-01,2.47872e-01,9.99999e-01,9.99999e-01,9.99822e-01,2.47918e-01,9.99992e-01
6.329037559e-01,2.54752e-01,9.99999e-01,9.99999e-01,9.99650e-01,2.54842e-01,9.99994e-01
6.360682746e-01,2.61739e-01,9.99999e-01,9.99999e-01,9.99700e-01,2.61818e-01,9.99996e-01
6.392486160e-01,2.68737e-01,9.99999e-01,9.99999e-01,9.99613e-01,2.68841e-01,9.99998e-01
6.424448591e-01,2.75763e-01,9.99999e-01,9.99999e-01,9.99478e-01,2.75908e-01,9.99996e-01
6.456570834e-01,2.82327e-01,9.99999e-01,9.99999e-01,9.97578e-01,2.83016e-01,9.99984e-01
6.488853688e-01,2.89641e-01,9.99999e-01,9.99999e-01,9.98246e-01,2.90161e-01,9.99962e-01
6.521297956e-01,2.96799e-01,9.99999e-01,9.99999e-01,9.98212e-01,2.97340e-01,9.99968e-01
6.553904446e-01,3.03998e-01,9.99999e-01,9.99999e-01,9.98212e-01,3.04549e-01,9.99976e-01
6.586673968e-01,3.11308e-01,9.99999e-01,9.99999e-01,9.98475e-01,3.11786e-01,9.99991e-01
6.619607338e-01,3.18775e-01,9.99999e-01,9.99999e-01,9.99150e-01,3.19047e-01,9.99997e-01
6.652705375e-01,3.26161e-01,9.99999e-01,9.99999e-01,9.99490e-01,3.26328e-01,9.99998e-01
6.685968902e-01,3.33554e-01,9.99999e-01,9.99999e-01,9.99783e-01,3.33627e-01,9.99999e-01
6.719398746e-01,3.40902e-01,9.99999e-01,9.99999e-01,9.99890e-01,3.40940e-01,9.99999e-01
6.752995740e-01,3.48244e-01,9.99999e-01,9.99999e-01,9.99941e-01,3.48264e-01,9.99999e-01
6.786760719e-01,3.55565e-01,9.99999e-01,9.99999e-01,9.99912e-01,3.55596e-01,9.99999e-01
6.820694522e-01,3.62879e-01,9.99999e-01,9.99999e-01,9.99850e-01,3.62933e-01,9.99998e-01
6.854797995e-01,3.70201e-01,9.99999e-01,9.99999e-01,9.99809e-01,3.70272e-01,9.99997e-01
6.889071985e-01,3.77432e-01,9.99999e-01,9.99999e-01,9.99531e-01,3.77610e-01,9.99995e-01
6.923517345e-01,3.82023e-01,9.99999e-01,9.99999e-01,9.92445e-01,3.84944e-01,9.99963e-01
6.958134932e-01,3.90730e-01,9.99999e-01,9.99999e-01,9.96146e-01,3.92272e-01,9.99919e-01
6.992925606e-01,3.98069e-01,9.99999e-01,9.99999e-01,9.96264e-01,3.99590e-01,9.99927e-01
7.027890234e-01,4.05014e-01,9.99999e-01,9.99999e-01,9.95426e-01,4.06897e-01,9.99944e-01
7.063029686e-01,4.12583e-01,9.99999e-01,9.99999e-01,9.96150e-01,4.14188e-01,9.99972e-01
7.098344834e-01,4.19900e-01,9.99999e-01,9.99999e-01,9.96307e-01,4.21463e-01,9.99983e-01
7.133836558e-01,4.26568e-01,9.99999e-01,9.99999e-01,9.95017e-01,4.28717e-01,9.99967e-01
7.169505741e-01,4.18722e-01,9.99999e-01,9.99999e-01,9.60724e-01,4.35950e-01,9.99747e-01
7.205353270e-01,4.34525e-01,9.99999e-01,9.99999e-01,9.80956e-01,4.43158e-01,9.99554e-01
7.241380036e-01,4.39135e-01,9.99999e-01,9.99999e-01,9.75493e-01,4.50339e-01,9.99615e-01
7.277586936e-01,4.47232e-01,9.99999e-01,9.99999e-01,9.77881e-01,4.57492e-01,9.99685e-01
7.313974871e-01,4.53703e-01,9.99999e-01,9.99999e-01,9.76660e-01,4.64613e-01,9.99852e-01
7.350544745e-01,4.65627e-01,9.99999e-01,9.99999e-01,9.87170e-01,4.71702e-01,9.99948e-01
7.387297469e-01,4.74223e-01,9.99999e-01,9.99999e-01,9.90555e-01,4.78755e-01,9.99976e-01
7.424233956e-01,4.83526e-01,9.99999e-01,9.99999e-01,9.95380e-01,4.85771e-01,9.99995e-01
7.461355126e-01,4.91366e-01,9.99999e-01,9.99999e-01,9.97194e-01,4.92749e-01,9.99998e-01
7.498661902e-01,4.99035e-01,9.99999e-01,9.99999e-01,9.98697e-01,4.99686e-01,9.99999e-01
7.536155211e-01,5.06256e-01,9.99999e-01,9.99999e-01,9.99358e-01,5.06580e-01,9.99999e-01
7.573835987e-01,5.13262e-01,9.99999e-01,9.99999e-01,9.99669e-01,5.13431e-01,9.99999e-01
7.611705167e-01,5.20130e-01,9.99999e-01,9.99999e-01,9.99794e-01,5.20237e-01,9.99999e-01
7.649763693e-01,5.26928e-01,9.99999e-01,9.99999e-01,9.99870e-01,5.26995e-01,9.99999e-01
7.688012511e-01,5.33658e-01,9.99999e-01,9.99999e-01,9.99909e-01,5.33706e-01,9.99999e-01
7.726452574e-01,5.40326e-01,9.99999e-01,9.99999e-01,9.99925e-01,5.40366e-01,9.99999e-01
7.765084837e-01,5.46918e-01,9.99999e-01,9.99999e-01,9.99893e-01,5.46976e-01,9.99999e-01
7.803910261e-01,5.37170e-01,9.99999e-01,9.70870e-01,9.99541e-01,5.53534e-01,9.99999e-01
7.842929812e-01,4.94509e-01,9.99999e-01,8.84351e-01,9.98401e-01,5.60038e-01,9.99996e-01
7.882144461e-01,4.94509e-01,9.99999e-01,8.75720e-01,9.96736e-01,5.66488e-01,9.99977e-01
7.921555184e-01,5.29481e-01,9.99999e-01,9.25892e-01,9.98218e-01,5.72883e-01,9.99960e-01
7.961162960e-01,5.48621e-01,9.99999e-01,9.50206e-01,9.96816e-01,5.79222e-01,9.99962e-01
8.000968774e-01,5.67389e-01,9.99999e-01,9.72645e-01,9.96345e-01,5.85503e-01,9.99960e-01
8.040973618e-01,5.81173e-01,9.99999e-01,9.85797e-01,9.96339e-01,5.91726e-01,9.99969e-01
8.081178486e-01,5.89027e-01,9.99999e-01,9.93430e-01,9.91709e-01,5.97891e-01,9.99969e-01
8.121584379e-01,5.82163e-01,9.99999e-01,9.97987e-01,9.65890e-01,6.03997e-01,9.99884e-01
8.162192301e-01,5.85132e-01,9.99999e-01,9.99554e-01,9.60003e-01,6.10042e-01,9.99566e-01
8.203003262e-01,6.03067e-01,9.99999e-01,9.99993e-01,9.79464e-01,6.16026e-01,9.99492e-01
8.244018279e-01,6.04344e-01,9.99999e-01,9.99999e-01,9.72085e-01,6.21950e-01,9.99595e-01
8.285238370e-01,6.12434e-01,9.99999e-01,9.99999e-01,9.75815e-01,6.27811e-01,9.99682e-01
8.326664562e-01,6.18099e-01,9.99999e-01,9.99999e-01,9.75646e-01,6.33610e-01,9.99868e-01
8.368297885e-01,6.28202e-01,9.99999e-01,9.99999e-01,9.82596e-01,6.39347e-01,9.99969e-01
8.410139374e-01,6.38324e-01,9.99999e-01,9.99999e-01,9.89633e-01,6.45021e-01,9.99981e-01
8.452190071e-01,6.47316e-01,9.99999e-01,9.99999e-01,9.94913e-01,6.50632e-01,9.99989e-01
8.494451021e-01,6.54229e-01,9.99999e-01,9.99999e-01,9.97035e-01,6.56179e-01,9.99991e-01
8.536923276e-01,6.60503e-01,9.99999e-01,9.99999e-01,9.98252e-01,6.61663e-01,9.99994e-01
8.579607893e-01,6.66362e-01,9.99999e-01,9.99999e-01,9.98920e-01,6.67083e-01,9.99998e-01
8.622505932e-01,6.71978e-01,9.99999e-01,9.99999e-01,9.99315e-01,6.72438e-01,9.99999e-01
8.665618462e-01,6.31452e-01,9.99999e-01,9.32096e-01,9.99574e-01,6.77730e-01,9.99999e-01
8.708946554e-01,4.97944e-01,9.99999e-01,7.29444e-01,9.99512e-01,6.82958e-01,9.99999e-01
8.752491287e-01,5.34492e-01,9.99999e-01,7.77235e-01,9.99348e-01,6.88121e-01,9.99998e-01
8.796253743e-01,6.03475e-01,9.99999e-01,8.71309e-01,9.99094e-01,6.93221e-01,9.99997e-01
8.840235012e-01,6.49535e-01,9.99999e-01,9.31181e-01,9.98966e-01,6.98256e-01,9.99993e-01
8.884436187e-01,6.81226e-01,9.99999e-01,9.72431e-01,9.96163e-01,7.03227e-01,9.99981e-01
8.928858368e-01,6.72615e-01,9.99999e-01,9.88722e-01,9.60694e-01,7.08135e-01,9.99896e-01
8.973502660e-01,6.62406e-01,9.99999e-01,9.97265e-01,9.32064e-01,7.12979e-01,9.99472e-01
9.018370173e-01,6.91862e-01,9.99999e-01,9.99699e-01,9.65001e-01,7.17759e-01,9.99171e-01
9.063462024e-01,6.93877e-01,9.99999e-01,9.92013e-01,9.68655e-01,7.22476e-01,9.99271e-01
9.108779334e-01,6.79363e-01,9.99999e-01,9.82208e-01,9.51779e-01,7.27130e-01,9.99243e-01
9.154323231e-01,6.88611e-01,9.99999e-01,9.95842e-01,9.45535e-01,7.31721e-01,9.99374e-01
9.200094847e-01,6.62627e-01,9.99999e-01,9.38813e-01,9.57174e-01,7.36249e-01,9.99649e-01
9.246095321e-01,6.32881e-01,9.99999e-01,9.15740e-01,9.32149e-01,7.40716e-01,9.99596e-01
9.292325798e-01,4.38482e-01,9.99999e-01,9.32531e-01,6.28248e-01,7.45120e-01,9.98054e-01
9.338787427e-01,3.86406e-01,9.99999e-01,9.35436e-01,5.51728e-01,7.49463e-01,9.92986e-01
9.385481364e-01,5.61982e-01,9.99999e-01,9.52155e-01,7.87270e-01,7.53744e-01,9.92297e-01
9.432408771e-01,5.22355e-01,9.99999e-01,9.70525e-01,7.13837e-01,7.57965e-01,9.93351e-01
9.479570815e-01,4.68788e-01,9.99999e-01,9.84741e-01,6.27577e-01,7.62125e-01,9.94585e-01
9.526968669e-01,5.36911e-01,9.99999e-01,9.92630e-01,7.07873e-01,7.66226e-01,9.96693e-01
9.574603512e-01,5.58357e-01,9.99999e-01,9.96845e-01,7.28278e-01,7.70266e-01,9.98318e-01
9.622476530e-01,5.97533e-01,9.99999e-01,9.99016e-01,7.73380e-01,7.74248e-01,9.98837e-01
9.670588912e-01,6.70219e-01,9.99999e-01,9.99705e-01,8.62202e-01,7.78171e-01,9.99204e-01
9.718941857e-01,7.12392e-01,9.99999e-01,9.99979e-01,9.11496e-01,7.82035e-01,9.99414e-01
9.767536566e-01,7.27325e-01,9.99999e-01,9.99999e-01,9.25949e-01,7.85842e-01,9.99552e-01
9.816374249e-01,7.45848e-01,9.99999e-01,9.99999e-01,9.44744e-01,7.89592e-01,9.99844e-01
9.865456120e-01,7.65603e-01,9.99999e-01,9.99999e-01,9.65135e-01,7.93285e-01,9.99967e-01
9.914783401e-01,7.79623e-01,9.99999e-01,9.99999e-01,9.78301e-01,7.96922e-01,9.99990e-01
9.964357318e-01,7.90997e-01,9.99999e-01,9.99999e-01,9.88129e-01,8.00503e-01,9.99994e-01
1.001417910e+00,7.98294e-01,9.99999e-01,9.99999e-01,9.92874e-01,8.04029e-01,9.99991e-01
1.006425000e+00,8.04201e-01,9.99999e-01,9.99999e-01,9.95923e-01,8.07501e-01,9.99988e-01
1.011457125e+00,8.08863e-01,9.99999e-01,9.99999e-01,9.97474e-01,8.10918e-01,9.99988e-01
1.016514411e+00,8.12879e-01,9.99999e-01,9.99999e-01,9.98282e-01,8.14283e-01,9.99992e-01
1.021596983e+00,8.16429e-01,9.99999e-01,9.99951e-01,9.98630e-01,8.17594e-01,9.99992e-01
1.026704968e+00,8.17407e-01,9.99999e-01,9.96870e-01,9.98931e-01,8.20852e-01,9.99994e-01
1.031838492e+00,7.89289e-01,9.99999e-01,9.58527e-01,9.99224e-01,8.24060e-01,9.99998e-01
1.036997685e+00,1.50713e-01,9.99999e-01,1.82261e-01,9.99538e-01,8.27215e-01,9.99999e-01
1.042182673e+00,1.44671e-01,9.99999e-01,1.74322e-01,9.99447e-01,8.30321e-01,9.99999e-01
1.047393587e+00,1.54093e-01,9.99999e-01,1.85022e-01,9.99268e-01,8.33376e-01,9.99999e-01
1.052630555e+00,7.73763e-03,9.99999e-01,9.25829e-03,9.98995e-01,8.36382e-01,9.99999e-01
1.057893707e+00,1.82022e-02,9.99999e-01,2.17122e-02,9.98321e-01,8.39339e-01,9.99998e-01
1.063183176e+00,5.04643e-02,9.99999e-01,6.00395e-02,9.97241e-01,8.42247e-01,9.99998e-01
1.068499092e+00,1.21397e-01,9.99999e-01,1.44221e-01,9.95389e-01,8.45108e-01,9.99996e-01
1.073841587e+00,2.49498e-01,9.99999e-01,2.95644e-01,9.94594e-01,8.47922e-01,9.99992e-01
1.079210795e+00,3.90851e-01,9.99999e-01,4.62416e-01,9.93101e-01,8.50690e-01,9.99981e-01
1.084606849e+00,5.53630e-01,9.99999e-01,6.55344e-01,9.89553e-01,8.53411e-01,9.99955e-01
1.090029883e+00,6.77228e-01,9.99999e-01,8.02977e-01,9.84928e-01,8.56087e-01,9.99907e-01
1.095480033e+00,7.39838e-01,9.99999e-01,8.97712e-01,9.59539e-01,8.58719e-01,9.99833e-01
1.100957433e+00,7.36264e-01,9.99999e-01,9.49344e-01,9.00311e-01,8.61306e-01,9.99693e-01
1.106462220e+00,6.46896e-01,9.99999e-01,9.78771e-01,7.64994e-01,8.63850e-01,9.99481e-01
1.111994531e+00,4.90319e-01,9.99999e-01,9.92079e-01,5.70988e-01,8.66351e-01,9.98623e-01
1.117554504e+00,3.48908e-01,9.99999e-01,9.98071e-01,4.04251e-01,8.68810e-01,9.95041e-01
1.123142276e+00,4.43382e-01,9.99999e-01,9.99873e-01,5.14986e-01,8.71226e-01,9.88281e-01
1.128757988e+00,5.62311e-01,9.99999e-01,9.99999e-01,6.52506e-01,8.73602e-01,9.86455e-01
1.134401778e+00,3.41921e-01,9.99999e-01,9.99999e-01,3.94901e-01,8.75937e-01,9.88471e-01
1.140073787e+00,6.74398e-01,9.99999e-01,9.99999e-01,7.75051e-01,8.78232e-01,9.90778e-01
1.145774156e+00,5.14006e-01,9.99999e-01,9.99999e-01,5.88746e-01,8.80487e-01,9.91555e-01
1.151503026e+00,4.86464e-01,9.99999e-01,9.99999e-01,5.53716e-01,8.82703e-01,9.95286e-01
1.157260541e+00,5.40127e-01,9.99999e-01,9.99999e-01,6.11257e-01,8.84881e-01,9.98588e-01
1.163046844e+00,6.16793e-01,9.99999e-01,9.99999e-01,6.95630e-01,8.87022e-01,9.99599e-01
1.168862078e+00,6.90997e-01,9.99999e-01,9.99999e-01,7.77325e-01,8.89125e-01,9.99793e-01
1.174706389e+00,7.62655e-01,9.99999e-01,9.99999e-01,8.56004e-01,8.91191e-01,9.99726e-01
1.180579921e+00,8.12249e-01,9.99999e-01,9.99999e-01,9.09723e-01,8.93221e-01,9.99586e-01
1.186482820e+00,8.48233e-01,9.99999e-01,9.99992e-01,9.47925e-01,8.95215e-01,9.99575e-01
1.192415234e+00,8.59656e-01,9.99999e-01,9.88785e-01,9.69256e-01,8.97175e-01,9.99681e-01
1.198377311e+00,4.97610e-01,9.99999e-01,5.65955e-01,9.73979e-01,8.99100e-01,9.99698e-01
1.204369197e+00,1.46560e-09,9.99999e-01,1.65066e-09,9.75376e-01,9.00991e-01,9.99736e-01
1.210391043e+00,1.23037e-33,9.99999e-01,1.38113e-33,9.76449e-01,9.02848e-01,9.99834e-01
1.216442998e+00,2.48725e-29,9.99999e-01,2.78429e-29,9.79973e-01,9.04672e-01,9.99898e-01
1.222525213e+00,6.51884e-29,9.99999e-01,7.25063e-29,9.84365e-01,9.06464e-01,9.99936e-01
1.228637839e+00,2.22909e-22,9.99999e-01,2.47322e-22,9.89112e-01,9.08224e-01,9.99970e-01
