#,Wave/freq,Total,N2,CO2,H2O,Rayleigh,CIA
4.000000000e-01,4.93522e-04,9.99999e-01,9.99999e-01,9.99984e-01,4.93529e-04,9.99999e-01
4.020000000e-01,5.73709e-04,9.99999e-01,9.99999e-01,9.99990e-01,5.73715e-04,9.99999e-01
4.040100000e-01,6.64841e-04,9.99999e-01,9.99999e-01,9.99995e-01,6.64844e-04,9.99999e-01
4.060300500e-01,7.68207e-04,9.99999e-01,9.99999e-01,9.99998e-01,7.68208e-04,9.99999e-01
4.080602003e-01,8.85112e-04,9.99999e-01,9.99999e-01,9.99999e-01,8.85112e-04,9.99999e-01
4.101005013e-01,1.01696e-03,9.99999e-01,9.99999e-01,9.99999e-01,1.01696e-03,9.99999e-01
4.121510038e-01,1.16524e-03,9.99999e-01,9.99999e-01,9.99998e-01,1.16524e-03,9.99999e-01
4.142117588e-01,1.33156e-03,9.99999e-01,9.99999e-01,9.99995e-01,1.33156e-03,9.99999e-01
4.162828176e-01,1.51759e-03,9.99999e-01,9.99999e-01,9.99981e-01,1.51762e-03,9.99999e-01
4.183642317e-01,1.72519e-03,9.99999e-01,9.99999e-01,9.99988e-01,1.72521e-03,9.99999e-01
4.204560528e-01,1.95622e-03,9.99999e-01,9.99999e-01,9.99992e-01,1.95623e-03,9.99999e-01
4.225583331e-01,2.21269e-03,9.99999e-01,9.99999e-01,9.99997e-01,2.21270e-03,9.99999e-01
4.246711247e-01,2.49669e-03,9.99999e-01,9.99999e-01,9.99997e-01,2.49670e-03,9.99999e-01
4.267944804e-01,2.81043e-03,9.99999e-01,9.99999e-01,9.99996e-01,2.81044e-03,9.99999e-01
4.289284528e-01,3.15622e-03,9.99999e-01,9.99999e-01,9.99997e-01,3.15622e-03,9.99999e-01
4.310730950e-01,3.53643e-03,9.99999e-01,9.99999e-01,9.99998e-01,3.53643e-03,9.99999e-01
4.332284605e-01,3.95355e-03,9.99999e-01,9.99999e-01,9.99999e-01,3.95355e-03,9.99999e-01
4.353946028e-01,4.41014e-03,9.99999e-01,9.99999e-01,9.99999e-01,4.41014e-03,9.99999e-01
4.375715758e-01,4.90885e-03,9.99999e-01,9.99999e-01,9.99997e-01,4.90886e-03,9.99999e-01
4.397594337e-01,5.45233e-03,9.99999e-01,9.99999e-01,9.99983e-01,5.45242e-03,9.99999e-01
4.419582309e-01,6.04314e-03,9.99999e-01,9.99999e-01,9.99919e-01,6.04362e-03,9.99999e-01
4.441680220e-01,6.68490e-03,9.99999e-01,9.99999e-01,9.99936e-01,6.68532e-03,9.99999e-01
4.463888621e-01,7.37994e-03,9.99999e-01,9.99999e-01,9.99933e-01,7.38042e-03,9.99999e-01
4.486208064e-01,8.13157e-03,9.99999e-01,9.99999e-01,9.99958e-01,8.13190e-03,9.99999e-01
4.508639105e-01,8.94257e-03,9.99999e-01,9.99999e-01,9.99980e-01,8.94275e-03,9.99999e-01
4.531182300e-01,9.81592e-03,9.99999e-01,9.99999e-01,9.99991e-01,9.81600e-03,9.99999e-01
4.553838212e-01,1.07547e-02,9.99999e-01,9.99999e-01,9.99994e-01,1.07547e-02,9.99999e-01
4.576607403e-01,1.17619e-02,9.99999e-01,9.99999e-01,9.99997e-01,1.17620e-02,9.99999e-01
4.599490440e-01,1.28408e-02,9.99999e-01,9.99999e-01,9.99997e-01,1.28408e-02,9.99999e-01
4.622487892e-01,1.39943e-02,9.99999e-01,9.99999e-01,9.99999e-01,1.39943e-02,9.99999e-01
4.645600332e-01,1.52256e-02,9.99999e-01,9.99999e-01,9.99998e-01,1.52256e-02,9.99999e-01
4.668828333e-01,1.65373e-02,9.99999e-01,9.99999e-01,9.99980e-01,1.65376e-02,9.99999e-01
4.692172475e-01,1.79327e-02,9.99999e-01,9.99999e-01,9.99958e-01,1.79334e-02,9.99999e-01
4.715633337e-01,1.94154e-02,9.99999e-01,9.99999e-01,9.99972e-01,1.94159e-02,9.99999e-01
4.739211504e-01,2.09874e-02,9.99999e-01,9.99999e-01,9.99973e-01,2.09880e-02,9.99999e-01
4.762907561e-01,2.26522e-02,9.99999e-01,9.99999e-01,9.99986e-01,2.26525e-02,9.99999e-01
4.786722099e-01,2.44120e-02,9.99999e-01,9.99999e-01,9.99994e-01,2.44121e-02,9.99999e-01
4.810655710e-01,2.62696e-02,9.99999e-01,9.99999e-01,9.99997e-01,2.62697e-02,9.99999e-01
4.834708988e-01,2.82272e-02,9.99999e-01,9.99999e-01,9.99983e-01,2.82276e-02,9.99999e-01
4.858882533e-01,3.02876e-02,9.99999e-01,9.99999e-01,9.99970e-01,3.02885e-02,9.99999e-01
4.883176946e-01,3.24538e-02,9.99999e-01,9.99999e-01,9.99975e-01,3.24546e-02,9.99999e-01
4.907592831e-01,3.47274e-02,9.99999e-01,9.99999e-01,9.99977e-01,3.47282e-02,9.99999e-01
4.932130795e-01,3.71108e-02,9.99999e-01,9.99999e-01,9.99983e-01,3.71114e-02,9.99999e-01
4.956791449e-01,3.96058e-02,9.99999e-01,9.99999e-01,9.99991e-01,3.96062e-02,9.99999e-01
4.981575406e-01,4.22126e-02,9.99999e-01,9.99999e-01,9.99958e-01,4.22144e-02,9.99999e-01
5.006483283e-01,4.49329e-02,9.99999e-01,9.99999e-01,9.99892e-01,4.49377e-02,9.99998e-01
5.031515699e-01,4.77514e-02,9.99999e-01,9.99999e-01,9.99455e-01,4.77777e-02,9.99993e-01
5.056673278e-01,5.07208e-02,9.99999e-01,9.99999e-01,9.99711e-01,5.07357e-02,9.99992e-01
5.081956644e-01,5.37932e-02,9.99999e-01,9.99999e-01,9.99636e-01,5.38130e-02,9.99995e-01
5.107366428e-01,5.69965e-02,9.99999e-01,9.99999e-01,9.99754e-01,5.70105e-02,9.99998e-01
5.132903260e-01,6.03208e-02,9.99999e-01,9.99999e-01,9.99859e-01,6.03293e-02,9.99999e-01
5.158567776e-01,6.37661e-02,9.99999e-01,9.99999e-01,9.99940e-01,6.37699e-02,9.99999e-01
5.184360615e-01,6.73313e-02,9.99999e-01,9.99999e-01,9.99975e-01,6.73329e-02,9.99999e-01
5.210282418e-01,7.10181e-02,9.99999e-01,9.99999e-01,9.99990e-01,7.10187e-02,9.99999e-01
5.236333830e-01,7.48248e-02,9.99999e-01,9.99999e-01,9.99964e-01,7.48275e-02,9.99999e-01
5.262515499e-01,7.87574e-02,9.99999e-01,9.99999e-01,9.99977e-01,7.87592e-02,9.99999e-01
5.288828077e-01,8.28120e-02,9.99999e-01,9.99999e-01,9.99979e-01,8.28137e-02,9.99999e-01
5.315272217e-01,8.69890e-02,9.99999e-01,9.99999e-01,9.99981e-01,8.69906e-02,9.99999e-01
5.341848578e-01,9.12883e-02,9.99999e-01,9.99999e-01,9.99987e-01,9.12894e-02,9.99999e-01
5.368557821e-01,9.57054e-02,9.99999e-01,9.99999e-01,9.99958e-01,9.57094e-02,9.99999e-01
5.395400610e-01,1.00235e-01,9.99999e-01,9.99999e-01,9.99851e-01,1.00250e-01,9.99998e-01
5.422377613e-01,1.04889e-01,9.99999e-01,9.99999e-01,9.99806e-01,1.04909e-01,9.99996e-01
5.449489501e-01,1.09667e-01,9.99999e-01,9.99999e-01,9.99820e-01,1.09687e-01,9.99995e-01
5.476736949e-01,1.14563e-01,9.99999e-01,9.99999e-01,9.99840e-01,1.14582e-01,9.99997e-01
5.504120634e-01,1.19577e-01,9.99999e-01,9.99999e-01,9.99884e-01,1.19591e-01,9.99999e-01
5.531641237e-01,1.24707e-01,9.99999e-01,9.99999e-01,9.99941e-01,1.24715e-01,9.99999e-01
5.559299443e-01,1.29946e-01,9.99999e-01,9.99999e-01,9.99971e-01,1.29950e-01,9.99999e-01
5.587095940e-01,1.35292e-01,9.99999e-01,9.99999e-01,9.99981e-01,1.35295e-01,9.99999e-01
5.615031420e-01,1.40744e-01,9.99999e-01,9.99999e-01,9.99979e-01,1.40747e-01,9.99999e-01
5.643106577e-01,1.46302e-01,9.99999e-01,9.99999e-01,9.99977e-01,1.46305e-01,9.99999e-01
5.671322110e-01,1.51926e-01,9.99999e-01,9.99999e-01,9.99732e-01,1.51967e-01,9.99997e-01
5.699678720e-01,1.57682e-01,9.99999e-01,9.99999e-01,9.99711e-01,1.57729e-01,9.99992e-01
5.728177114e-01,1.63539e-01,9.99999e-01,9.99999e-01,9.99701e-01,1.63589e-01,9.99993e-01
5.756818000e-01,1.69498e-01,9.99999e-01,9.99999e-01,9.99725e-01,1.69545e-01,9.99995e-01
5.785602090e-01,1.75551e-01,9.99999e-01,9.99999e-01,9.99760e-01,1.75593e-01,9.99998e-01
5.814530100e-01,1.81688e-01,9.99999e-01,9.99999e-01,9.99759e-01,1.81732e-01,9.99998e-01
5.843602750e-01,1.87903e-01,9.99999e-01,9.99999e-01,9.99714e-01,1.87957e-01,9.99997e-01
5.872820764e-01,1.93786e-01,9.99999e-01,9.99999e-01,9.97543e-01,1.94266e-01,9.99982e-01
5.902184868e-01,2.00048e-01,9.99999e-01,9.99999e-01,9.97013e-01,2.00657e-01,9.99952e-01
5.931695792e-01,2.06679e-01,9.99999e-01,9.99999e-01,9.97892e-01,2.07125e-01,9.99954e-01
5.961354271e-01,2.13168e-01,9.99999e-01,9.99999e-01,9.97687e-01,2.13667e-01,9.99973e-01
5.991161043e-01,2.19908e-01,9.99999e-01,9.99999e-01,9.98312e-01,2.20281e-01,9.99991e-01
6.021116848e-01,2.26746e-01,9.99999e-01,9.99999e-01,9.99041e-01,2.26963e-01,9.99998e-01
6.051222432e-01,2.33596e-01,9.99999e-01,9.99999e-01,9.99514e-01,2.33710e-01,9.99999e-01
6.081478544e-01,2.40467e-01,9.99999e-01,9.99999e-01,9.99790e-01,2.40518e-01,9.99999e-01
6.111885937e-01,2.47362e-01,9.99999e-01,9.99999e-01,9.99911e-01,2.47384e-01,9.99999e-01
6.142445367e-01,2.54294e-01,9.99999e-01,9.99999e-01,9.99960e-01,2.54304e-01,9.99999e-01
6.173157594e-01,2.61270e-01,9.99999e-01,9.99999e-01,9.99977e-01,2.61276e-01,9.99999e-01
6.204023382e-01,2.68290e-01,9.99999e-01,9.99999e-01,9.99981e-01,2.68295e-01,9.99999e-01
6.235043498e-01,2.75337e-01,9.99999e-01,9.99999e-01,9.99919e-01,2.75359e-01,9.99999e-01
6.266218716e-01,2.82342e-01,9.99999e-01,9.99999e-01,9.99570e-01,2.82464e-01,9.99996e-01
6.297549810e-01,2.89558e-01,9.99999e-01,9.99999e-01,9.99842e-01,2.89606e-01,9.99993e-01
6.329037559e-01,2.96688e-01,9.99999e-01,9.99999e-01,9.99688e-01,2.96782e-01,9.99994e-01
6.360682746e-01,3.03908e-01,9.99999e-01,9.99999e-01,9.99734e-01,3.03989e-01,9.99996e-01
6.392486160e-01,3.11117e-01,9.99999e-01,9.99999e-01,9.99656e-01,3.11224e-01,9.99998e-01
6.424448591e-01,3.18337e-01,9.99999e-01,9.99999e-01,9.99541e-01,3.18483e-01,9.99997e-01
6.456570834e-01,3.25066e-01,9.99999e-01,9.99999e-01,9.97873e-01,3.25763e-01,9.99987e-01
6.488853688e-01,3.32528e-01,9.99999e-01,9.99999e-01,9.98435e-01,3.33060e-01,9.99966e-01
6.521297956e-01,3.39820e-01,9.99999e-01,9.99999e-01,9.98404e-01,3.40372e-01,9.99971e-01
6.553904446e-01,3.47140e-01,9.99999e-01,9.99999e-01,9.98422e-01,3.47696e-01,9.99978e-01
6.586673968e-01,3.54542e-01,9.99999e-01,9.99999e-01,9.98640e-01,3.55027e-01,9.99992e-01
6.619607338e-01,3.62079e-01,9.99999e-01,9.99999e-01,9.99213e-01,3.62364e-01,9.99998e-01
6.652705375e-01,3.69535e-01,9.99999e-01,9.99999e-01,9.99544e-01,3.69703e-01,9.99998e-01
6.685968902e-01,3.76962e-01,9.99999e-01,9.99999e-01,9.99788e-01,3.77042e-01,9.99999e-01
6.719398746e-01,3.84339e-01,9.99999e-01,9.99999e-01,9.99901e-01,3.84376e-01,9.99999e-01
6.752995740e-01,3.91684e-01,9.99999e-01,9.99999e-01,9.99946e-01,3.91705e-01,9.99999e-01
6.786760719e-01,3.98993e-01,9.99999e-01,9.99999e-01,9.99923e-01,3.99024e-01,9.99999e-01
6.820694522e-01,4.06278e-01,9.99999e-01,9.99999e-01,9.99868e-01,4.06331e-01,9.99998e-01
6.854797995e-01,4.13554e-01,9.99999e-01,9.99999e-01,9.99830e-01,4.13624e-01,9.99998e-01
6.889071985e-01,4.20727e-01,9.99999e-01,9.99999e-01,9.99593e-01,4.20900e-01,9.99995e-01
6.923517345e-01,4.25295e-01,9.99999e-01,9.99999e-01,9.93348e-01,4.28156e-01,9.99967e-01
6.958134932e-01,4.33838e-01,9.99999e-01,9.99999e-01,9.96507e-01,4.35390e-01,9.99927e-01
6.992925606e-01,4.41116e-01,9.99999e-01,9.99999e-01,9.96709e-01,4.42600e-01,9.99936e-01
7.027890234e-01,4.47930e-01,9.99999e-01,9.99999e-01,9.95925e-01,4.49784e-01,9.99950e-01
7.063029686e-01,4.55363e-01,9.99999e-01,9.99999e-01,9.96575e-01,4.56939e-01,9.99975e-01
7.098344834e-01,4.62531e-01,9.99999e-01,9.99999e-01,9.96714e-01,4.64063e-01,9.99985e-01
7.133836558e-01,4.69088e-01,9.99999e-01,9.99999e-01,9.95643e-01,4.71154e-01,9.99971e-01
7.169505741e-01,4.61497e-01,9.99999e-01,9.99999e-01,9.65267e-01,4.78210e-01,9.99775e-01
7.205353270e-01,4.76667e-01,9.99999e-01,9.99999e-01,9.82743e-01,4.85229e-01,9.99603e-01
7.241380036e-01,4.81352e-01,9.99999e-01,9.99999e-01,9.78275e-01,4.92209e-01,9.99657e-01
7.277586936e-01,4.89214e-01,9.99999e-01,9.99999e-01,9.80367e-01,4.99150e-01,9.99720e-01
7.313974871e-01,4.95405e-01,9.99999e-01,9.99999e-01,9.79096e-01,5.06048e-01,9.99868e-01
7.350544745e-01,5.07005e-01,9.99999e-01,9.99999e-01,9.88546e-01,5.12902e-01,9.99954e-01
7.387297469e-01,5.15315e-01,9.99999e-01,9.99999e-01,9.91562e-01,5.19711e-01,9.99978e-01
7.424233956e-01,5.24293e-01,9.99999e-01,9.99999e-01,9.95861e-01,5.26473e-01,9.99995e-01
7.461355126e-01,5.31850e-01,9.99999e-01,9.99999e-01,9.97492e-01,5.33187e-01,9.99998e-01
7.498661902e-01,5.39221e-01,9.99999e-01,9.99999e-01,9.98830e-01,5.39852e-01,9.99999e-01
7.536155211e-01,5.46153e-01,9.99999e-01,9.99999e-01,9.99426e-01,5.46466e-01,9.99999e-01
7.573835987e-01,5.52864e-01,9.99999e-01,9.99999e-01,9.99704e-01,5.53027e-01,9.99999e-01
7.611705167e-01,5.59433e-01,9.99999e-01,9.99999e-01,9.99816e-01,5.59536e-01,9.99999e-01
7.649763693e-01,5.65925e-01,9.99999e-01,9.99999e-01,9.99884e-01,5.65990e-01,9.99999e-01
7.688012511e-01,5.72344e-01,9.99999e-01,9.99999e-01,9.99919e-01,5.72389e-01,9.99999e-01
7.726452574e-01,5.78694e-01,9.99999e-01,9.99999e-01,9.99933e-01,5.78732e-01,9.99999e-01
7.765084837e-01,5.84964e-01,9.99999e-01,9.99999e-01,9.99906e-01,5.85018e-01,9.99999e-01
7.803910261e-01,5.76434e-01,9.99999e-01,9.75330e-01,9.99597e-01,5.91246e-01,9.99999e-01
7.842929812e-01,5.34259e-01,9.99999e-01,8.95496e-01,9.98596e-01,5.97416e-01,9.99996e-01
7.882144461e-01,5.34772e-01,9.99999e-01,8.88596e-01,9.97099e-01,6.03526e-01,9.99981e-01
7.921555184e-01,5.68428e-01,9.99999e-01,9.33994e-01,9.98405e-01,6.09575e-01,9.99965e-01
7.961162960e-01,5.86365e-01,9.99999e-01,9.55255e-01,9.97195e-01,6.15565e-01,9.99966e-01
8.000968774e-01,6.04295e-01,9.99999e-01,9.75520e-01,9.96754e-01,6.21493e-01,9.99964e-01
8.040973618e-01,6.17323e-01,9.99999e-01,9.87228e-01,9.96755e-01,6.27359e-01,9.99971e-01
8.081178486e-01,6.24848e-01,9.99999e-01,9.94128e-01,9.92712e-01,6.33163e-01,9.99973e-01
8.121584379e-01,6.18476e-01,9.99999e-01,9.98177e-01,9.69879e-01,6.38905e-01,9.99897e-01
8.162192301e-01,6.21004e-01,9.99999e-01,9.99597e-01,9.64171e-01,6.44584e-01,9.99614e-01
8.203003262e-01,6.38245e-01,9.99999e-01,9.99993e-01,9.82061e-01,6.50199e-01,9.99548e-01
8.244018279e-01,6.38938e-01,9.99999e-01,9.99999e-01,9.74709e-01,6.55752e-01,9.99640e-01
8.285238370e-01,6.46874e-01,9.99999e-01,9.99999e-01,9.78549e-01,6.61240e-01,9.99717e-01
8.326664562e-01,6.52105e-01,9.99999e-01,9.99999e-01,9.78273e-01,6.66665e-01,9.99883e-01
8.368297885e-01,6.61554e-01,9.99999e-01,9.99999e-01,9.84443e-01,6.72026e-01,9.99972e-01
8.410139374e-01,6.71035e-01,9.99999e-01,9.99999e-01,9.90732e-01,6.77322e-01,9.99983e-01
8.452190071e-01,6.79440e-01,9.99999e-01,9.99999e-01,9.95445e-01,6.82555e-01,9.99990e-01
8.494451021e-01,6.85903e-01,9.99999e-01,9.99999e-01,9.97360e-01,6.87723e-01,9.99992e-01
8.536923276e-01,6.91741e-01,9.99999e-01,9.99999e-01,9.98436e-01,6.92828e-01,9.99994e-01
8.579607893e-01,6.97196e-01,9.99999e-01,9.99999e-01,9.99038e-01,6.97868e-01,9.99998e-01
8.622505932e-01,7.02414e-01,9.99999e-01,9.99999e-01,9.99388e-01,7.02844e-01,9.99999e-01
8.665618462e-01,6.65157e-01,9.99999e-01,9.40153e-01,9.99621e-01,7.07757e-01,9.99999e-01
8.708946554e-01,5.37289e-01,9.99999e-01,7.54294e-01,9.99567e-01,7.12605e-01,9.99999e-01
8.752491287e-01,5.71948e-01,9.99999e-01,7.97711e-01,9.99421e-01,7.17391e-01,9.99998e-01
8.796253743e-01,6.37711e-01,9.99999e-01,8.83810e-01,9.99200e-01,7.22113e-01,9.99997e-01
8.840235012e-01,6.81198e-01,9.99999e-01,9.38146e-01,9.99085e-01,7.26771e-01,9.99993e-01
8.884436187e-01,7.10831e-01,9.99999e-01,9.75142e-01,9.96687e-01,7.31367e-01,9.99983e-01
8.928858368e-01,7.03208e-01,9.99999e-01,9.89872e-01,9.65377e-01,7.35901e-01,9.99908e-01
8.973502660e-01,6.93383e-01,9.99999e-01,9.97525e-01,9.39260e-01,7.40372e-01,9.99531e-01
9.018370173e-01,7.20541e-01,9.99999e-01,9.99726e-01,9.68424e-01,7.44781e-01,9.99263e-01
9.063462024e-01,7.23030e-01,9.99999e-01,9.93080e-01,9.72362e-01,7.49128e-01,9.99352e-01
9.108779334e-01,7.09254e-01,9.99999e-01,9.84069e-01,9.57130e-01,7.53415e-01,9.99327e-01
9.154323231e-01,7.17767e-01,9.99999e-01,9.96225e-01,9.51433e-01,7.57640e-01,9.99444e-01
9.200094847e-01,6.93935e-01,9.99999e-01,9.46043e-01,9.61699e-01,7.61805e-01,9.99688e-01
9.246095321e-01,6.66592e-01,9.99999e-01,9.24368e-01,9.40878e-01,7.65910e-01,9.99641e-01
9.292325798e-01,4.81488e-01,9.99999e-01,9.40321e-01,6.62640e-01,7.69955e-01,9.98603e-01
9.338787427e-01,4.27229e-01,9.99999e-01,9.42120e-01,5.86406e-01,7.73941e-01,9.94240e-01
9.385481364e-01,5.97534e-01,9.99999e-01,9.57198e-01,8.06500e-01,7.77869e-01,9.93154e-01
9.432408771e-01,5.61282e-01,9.99999e-01,9.73568e-01,7.41031e-01,7.81738e-01,9.94091e-01
9.479570815e-01,5.09563e-01,9.99999e-01,9.86369e-01,6.60433e-01,7.85549e-01,9.95188e-01
9.526968669e-01,5.73426e-01,9.99999e-01,9.93399e-01,7.33140e-01,7.89304e-01,9.97062e-01
9.574603512e-01,5.95050e-01,9.99999e-01,9.97172e-01,7.53524e-01,7.93001e-01,9.98506e-01
9.622476530e-01,6.31718e-01,9.99999e-01,9.99116e-01,7.94465e-01,7.96642e-01,9.98966e-01
9.670588912e-01,7.00338e-01,9.99999e-01,9.99734e-01,8.76014e-01,8.00228e-01,9.99293e-01
9.718941857e-01,7.39733e-01,9.99999e-01,9.99980e-01,9.20837e-01,8.03758e-01,9.99479e-01
9.767536566e-01,7.53542e-01,9.99999e-01,9.99999e-01,9.33857e-01,8.07234e-01,9.99602e-01
9.816374249e-01,7.70453e-01,9.99999e-01,9.99999e-01,9.50537e-01,8.10656e-01,9.99861e-01
9.865456120e-01,7.88619e-01,9.99999e-01,9.99999e-01,9.68817e-01,8.14024e-01,9.99970e-01
9.914783401e-01,8.01497e-01,9.99999e-01,9.99999e-01,9.80624e-01,8.17339e-01,9.99991e-01
9.964357318e-01,8.11902e-01,9.99999e-01,9.99999e-01,9.89402e-01,8.20602e-01,9.99994e-01
1.001417910e+00,8.18565e-01,9.99999e-01,9.99999e-01,9.93636e-01,8.23813e-01,9.99992e-01
1.006425000e+00,8.23964e-01,9.99999e-01,9.99999e-01,9.96371e-01,8.26973e-01,9.99989e-01
1.011457125e+00,8.28202e-01,9.99999e-01,9.99999e-01,9.97744e-01,8.30082e-01,9.99990e-01
1.016514411e+00,8.31860e-01,9.99999e-01,9.99999e-01,9.98469e-01,8.33141e-01,9.99992e-01
1.021596983e+00,8.35096e-01,9.99999e-01,9.99964e-01,9.98780e-01,8.36150e-01,9.99992e-01
1.026704968e+00,8.36054e-01,9.99999e-01,9.97307e-01,9.99048e-01,8.39111e-01,9.99995e-01
1.031838492e+00,8.12610e-01,9.99999e-01,9.65719e-01,9.99308e-01,8.42024e-01,9.99998e-01
1.036997685e+00,1.73528e-01,9.99999e-01,2.05454e-01,9.99589e-01,8.44888e-01,9.99999e-01
1.042182673e+00,1.75925e-01,9.99999e-01,2.07623e-01,9.99510e-01,8.47706e-01,9.99999e-01
1.047393587e+00,1.83461e-01,9.99999e-01,2.15840e-01,9.99351e-01,8.50477e-01,9.99999e-01
1.052630555e+00,1.22178e-02,9.99999e-01,1.43296e-02,9.99110e-01,8.53202e-01,9.99999e-01
1.057893707e+00,2.67226e-02,9.99999e-01,3.12558e-02,9.98515e-01,8.55882e-01,9.99998e-01
1.063183176e+00,6.79720e-02,9.99999e-01,7.93210e-02,9.97557e-01,8.58517e-01,9.99998e-01
1.068499092e+00,1.52719e-01,9.99999e-01,1.77990e-01,9.95909e-01,8.61107e-01,9.99996e-01
1.073841587e+00,2.88982e-01,9.99999e-01,3.36020e-01,9.95216e-01,8.63655e-01,9.99993e-01
1.079210795e+00,4.32205e-01,9.99999e-01,5.01872e-01,9.93865e-01,8.66159e-01,9.99983e-01
1.084606849e+00,5.89848e-01,9.99999e-01,6.85223e-01,9.90731e-01,8.68621e-01,9.99960e-01
1.090029883e+00,7.06737e-01,9.99999e-01,8.22126e-01,9.86734e-01,8.71041e-01,9.99917e-01
1.095480033e+00,7.64807e-01,9.99999e-01,9.08004e-01,9.64229e-01,8.73419e-01,9.99851e-01
1.100957433e+00,7.62074e-01,9.99999e-01,9.54614e-01,9.11489e-01,8.75757e-01,9.99727e-01
1.106462220e+00,6.80315e-01,9.99999e-01,9.80972e-01,7.89789e-01,8.78055e-01,9.99538e-01
1.111994531e+00,5.30672e-01,9.99999e-01,9.92906e-01,6.07639e-01,8.80314e-01,9.98777e-01
1.117554504e+00,3.91178e-01,9.99999e-01,9.98260e-01,4.45871e-01,8.82533e-01,9.95593e-01
1.123142276e+00,4.81470e-01,9.99999e-01,9.99885e-01,5.49975e-01,8.84714e-01,9.89583e-01
1.128757988e+00,5.98815e-01,9.99999e-01,9.99999e-01,6.83438e-01,8.86857e-01,9.87959e-01
1.134401778e+00,3.73312e-01,9.99999e-01,9.99999e-01,4.24288e-01,8.88963e-01,9.89752e-01
1.140073787e+00,7.04907e-01,9.99999e-01,9.99999e-01,7.97649e-01,8.91032e-01,9.91803e-01
1.145774156e+00,5.51875e-01,9.99999e-01,9.99999e-01,6.22629e-01,8.93065e-01,9.92494e-01
1.151503026e+00,5.25368e-01,9.99999e-01,9.99999e-01,5.89431e-01,8.95062e-01,9.95811e-01
1.157260541e+00,5.77718e-01,9.99999e-01,9.99999e-01,6.44846e-01,8.97024e-01,9.98745e-01
1.163046844e+00,6.49760e-01,9.99999e-01,9.99999e-01,7.23054e-01,8.98952e-01,9.99643e-01
1.168862078e+00,7.19357e-01,9.99999e-01,9.99999e-01,7.98681e-01,9.00845e-01,9.99816e-01
1.174706389e+00,7.85617e-01,9.99999e-01,9.99999e-01,8.70502e-01,9.02705e-01,9.99756e-01
1.180579921e+00,8.30994e-01,9.99999e-01,9.99999e-01,9.19036e-01,9.04532e-01,9.99632e-01
1.186482820e+00,8.63822e-01,9.99999e-01,9.99995e-01,9.53464e-01,9.06327e-01,9.99622e-01
1.192415234e+00,8.74545e-01,9.99999e-01,9.90393e-01,9.72598e-01,9.08089e-01,9.99717e-01
1.198377311e+00,5.09218e-01,9.99999e-01,5.70920e-01,9.76870e-01,9.09820e-01,9.99732e-01
1.204369197e+00,9.60600e-09,9.99999e-01,1.06766e-08,9.78084e-01,9.11520e-01,9.99758e-01
1.210391043e+00,3.93739e-30,9.99999e-01,4.36328e-30,9.79035e-01,9.13190e-01,9.99852e-01
1.216442998e+00,2.63161e-26,9.99999e-01,2.90908e-26,9.82123e-01,9.14829e-01,9.99909e-01
1.222525213e+00,6.21589e-26,9.99999e-01,6.83223e-26,9.86065e-01,9.16439e-01,9.99943e-01
1.228637839e+00,4.71712e-20,9.99999e-01,5.17370e-20,9.90307e-01,9.18020e-01,9.99973e-01
