#,Wave/freq,Total,N2,CO2,H2O,Rayleigh,CIA
4.000000000e-01,2.17203e-19,9.99999e-01,9.99999e-01,9.99916e-01,2.17221e-19,9.99999e-01
4.020000000e-01,5.08044e-19,9.99999e-01,9.99999e-01,9.99948e-01,5.08070e-19,9.99999e-01
4.040100000e-01,1.16753e-18,9.99999e-01,9.99999e-01,9.99977e-01,1.16755e-18,9.99999e-01
4.060300500e-01,2.63931e-18,9.99999e-01,9.99999e-01,9.99994e-01,2.63932e-18,9.99999e-01
4.080602003e-01,5.87098e-18,9.99999e-01,9.99999e-01,9.99997e-01,5.87099e-18,9.99999e-01
4.101005013e-01,1.28550e-17,9.99999e-01,9.99999e-01,9.99999e-01,1.28550e-17,9.99999e-01
4.121510038e-01,2.77146e-17,9.99999e-01,9.99999e-01,9.99996e-01,2.77147e-17,9.99999e-01
4.142117588e-01,5.88501e-17,9.99999e-01,9.99999e-01,9.99976e-01,5.88515e-17,9.99999e-01
4.162828176e-01,1.23112e-16,9.99999e-01,9.99999e-01,9.99897e-01,1.23125e-16,9.99999e-01
4.183642317e-01,2.53848e-16,9.99999e-01,9.99999e-01,9.99938e-01,2.53863e-16,9.99999e-01
4.204560528e-01,5.15979e-16,9.99999e-01,9.99999e-01,9.99962e-01,5.15998e-16,9.99999e-01
4.225583331e-01,1.03420e-15,9.99999e-01,9.99999e-01,9.99985e-01,1.03422e-15,9.99999e-01
4.246711247e-01,2.04458e-15,9.99999e-01,9.99999e-01,9.99988e-01,2.04461e-15,9.99999e-01
4.267944804e-01,3.98799e-15,9.99999e-01,9.99999e-01,9.99983e-01,3.98806e-15,9.99999e-01
4.289284528e-01,7.67673e-15,9.99999e-01,9.99999e-01,9.99986e-01,7.67683e-15,9.99999e-01
4.310730950e-01,1.45875e-14,9.99999e-01,9.99999e-01,9.99994e-01,1.45876e-14,9.99999e-01
4.332284605e-01,2.73703e-14,9.99999e-01,9.99999e-01,9.99998e-01,2.73703e-14,9.99999e-01
4.353946028e-01,5.07198e-14,9.99999e-01,9.99999e-01,9.99998e-01,5.07198e-14,9.99999e-01
4.375715758e-01,9.28493e-14,9.99999e-01,9.99999e-01,9.99989e-01,9.28503e-14,9.99999e-01
4.397594337e-01,1.67943e-13,9.99999e-01,9.99999e-01,9.99909e-01,1.67958e-13,9.99999e-01
4.419582309e-01,3.00149e-13,9.99999e-01,9.99999e-01,9.99542e-01,3.00286e-13,9.99999e-01
4.441680220e-01,5.30555e-13,9.99999e-01,9.99999e-01,9.99643e-01,5.30744e-13,9.99999e-01
4.463888621e-01,9.27232e-13,9.99999e-01,9.99999e-01,9.99628e-01,9.27576e-13,9.99999e-01
4.486208064e-01,1.60296e-12,9.99999e-01,9.99999e-01,9.99769e-01,1.60333e-12,9.99999e-01
4.508639105e-01,2.74130e-12,9.99999e-01,9.99999e-01,9.99891e-01,2.74160e-12,9.99999e-01
4.531182300e-01,4.63835e-12,9.99999e-01,9.99999e-01,9.99956e-01,4.63855e-12,9.99999e-01
4.553838212e-01,7.76670e-12,9.99999e-01,9.99999e-01,9.99970e-01,7.76692e-12,9.99999e-01
4.576607403e-01,1.28733e-11,9.99999e-01,9.99999e-01,9.99986e-01,1.28734e-11,9.99999e-01
4.599490440e-01,2.11252e-11,9.99999e-01,9.99999e-01,9.99990e-01,2.11254e-11,9.99999e-01
4.622487892e-01,3.43293e-11,9.99999e-01,9.99999e-01,9.99997e-01,3.43294e-11,9.99999e-01
4.645600332e-01,5.52535e-11,9.99999e-01,9.99999e-01,9.99993e-01,5.52539e-11,9.99999e-01
4.668828333e-01,8.80905e-11,9.99999e-01,9.99999e-01,9.99890e-01,8.81001e-11,9.99999e-01
4.692172475e-01,1.39151e-10,9.99999e-01,9.99999e-01,9.99766e-01,1.39184e-10,9.99999e-01
4.715633337e-01,2.17877e-10,9.99999e-01,9.99999e-01,9.99847e-01,2.17910e-10,9.99999e-01
4.739211504e-01,3.38109e-10,9.99999e-01,9.99999e-01,9.99854e-01,3.38158e-10,9.99999e-01
4.762907561e-01,5.20188e-10,9.99999e-01,9.99999e-01,9.99924e-01,5.20227e-10,9.99999e-01
4.786722099e-01,7.93520e-10,9.99999e-01,9.99999e-01,9.99968e-01,7.93544e-10,9.99999e-01
4.810655710e-01,1.20039e-09,9.99999e-01,9.99999e-01,9.99990e-01,1.20040e-09,9.99999e-01
4.834708988e-01,1.80092e-09,9.99999e-01,9.99999e-01,9.99910e-01,1.80108e-09,9.99999e-01
4.858882533e-01,2.68032e-09,9.99999e-01,9.99999e-01,9.99834e-01,2.68076e-09,9.99999e-01
4.883176946e-01,3.95832e-09,9.99999e-01,9.99999e-01,9.99861e-01,3.95886e-09,9.99999e-01
4.907592831e-01,5.80077e-09,9.99999e-01,9.99999e-01,9.99875e-01,5.80149e-09,9.99999e-01
4.932130795e-01,8.43707e-09,9.99999e-01,9.99999e-01,9.99911e-01,8.43781e-09,9.99999e-01
4.956791449e-01,1.21811e-08,9.99999e-01,9.99999e-01,9.99952e-01,1.21817e-08,9.99999e-01
4.981575406e-01,1.74555e-08,9.99999e-01,9.99999e-01,9.99765e-01,1.74596e-08,9.99999e-01
5.006483283e-01,2.48318e-08,9.99999e-01,9.99999e-01,9.99392e-01,2.48469e-08,9.99995e-01
5.031515699e-01,3.50055e-08,9.99999e-01,9.99999e-01,9.96929e-01,3.51144e-08,9.99967e-01
5.056673278e-01,4.92051e-08,9.99999e-01,9.99999e-01,9.98378e-01,4.92867e-08,9.99962e-01
5.081956644e-01,6.85753e-08,9.99999e-01,9.99999e-01,9.97955e-01,6.87174e-08,9.99975e-01
5.107366428e-01,9.50497e-08,9.99999e-01,9.99999e-01,9.98618e-01,9.51815e-08,9.99995e-01
5.132903260e-01,1.30888e-07,9.99999e-01,9.99999e-01,9.99210e-01,1.30992e-07,9.99998e-01
5.158567776e-01,1.79081e-07,9.99999e-01,9.99999e-01,9.99666e-01,1.79141e-07,9.99999e-01
5.184360615e-01,2.43446e-07,9.99999e-01,9.99999e-01,9.99866e-01,2.43479e-07,9.99999e-01
5.210282418e-01,3.28907e-07,9.99999e-01,9.99999e-01,9.99949e-01,3.28923e-07,9.99999e-01
5.236333830e-01,4.41632e-07,9.99999e-01,9.99999e-01,9.99799e-01,4.41721e-07,9.99998e-01
5.262515499e-01,5.89681e-07,9.99999e-01,9.99999e-01,9.99874e-01,5.89756e-07,9.99997e-01
5.288828077e-01,7.82828e-07,9.99999e-01,9.99999e-01,9.99884e-01,7.82919e-07,9.99998e-01
5.315272217e-01,1.03344e-06,9.99999e-01,9.99999e-01,9.99898e-01,1.03355e-06,9.99999e-01
5.341848578e-01,1.35686e-06,9.99999e-01,9.99999e-01,9.99933e-01,1.35695e-06,9.99999e-01
5.368557821e-01,1.77157e-06,9.99999e-01,9.99999e-01,9.99766e-01,1.77198e-06,9.99998e-01
5.395400610e-01,2.29984e-06,9.99999e-01,9.99999e-01,9.99157e-01,2.30179e-06,9.99992e-01
5.422377613e-01,2.97132e-06,9.99999e-01,9.99999e-01,9.98912e-01,2.97461e-06,9.99979e-01
5.449489501e-01,3.82072e-06,9.99999e-01,9.99999e-01,9.98987e-01,3.82466e-06,9.99979e-01
5.476736949e-01,4.88885e-06,9.99999e-01,9.99999e-01,9.99104e-01,4.89328e-06,9.99989e-01
5.504120634e-01,6.22602e-06,9.99999e-01,9.99999e-01,9.99349e-01,6.23008e-06,9.99996e-01
5.531641237e-01,7.89175e-06,9.99999e-01,9.99999e-01,9.99672e-01,7.89434e-06,9.99999e-01
5.559299443e-01,9.95492e-06,9.99999e-01,9.99999e-01,9.99841e-01,9.95649e-06,9.99999e-01
5.587095940e-01,1.24986e-05,9.99999e-01,9.99999e-01,9.99900e-01,1.24999e-05,9.99999e-01
5.615031420e-01,1.56209e-05,9.99999e-01,9.99999e-01,9.99889e-01,1.56226e-05,9.99999e-01
5.643106577e-01,1.94372e-05,9.99999e-01,9.99999e-01,9.99874e-01,1.94397e-05,9.99998e-01
5.671322110e-01,2.40482e-05,9.99999e-01,9.99999e-01,9.98478e-01,2.40852e-05,9.99986e-01
5.699678720e-01,2.96655e-05,9.99999e-01,9.99999e-01,9.98385e-01,2.97147e-05,9.99958e-01
5.728177114e-01,3.64456e-05,9.99999e-01,9.99999e-01,9.98317e-01,3.65083e-05,9.99965e-01
5.756818000e-01,4.46031e-05,9.99999e-01,9.99999e-01,9.98455e-01,4.46730e-05,9.99978e-01
5.785602090e-01,5.43726e-05,9.99999e-01,9.99999e-01,9.98654e-01,5.44462e-05,9.99993e-01
5.814530100e-01,6.60092e-05,9.99999e-01,9.99999e-01,9.98647e-01,6.60987e-05,9.99996e-01
5.843602750e-01,7.98086e-05,9.99999e-01,9.99999e-01,9.98387e-01,7.99382e-05,9.99990e-01
5.872820764e-01,9.49751e-05,9.99999e-01,9.99999e-01,9.86203e-01,9.63130e-05,9.99901e-01
5.902184868e-01,1.13654e-04,9.99999e-01,9.99999e-01,9.83292e-01,1.15616e-04,9.99733e-01
5.931695792e-01,1.36618e-04,9.99999e-01,9.99999e-01,9.88180e-01,1.38287e-04,9.99743e-01
5.961354271e-01,1.62661e-04,9.99999e-01,9.99999e-01,9.87042e-01,1.64821e-04,9.99852e-01
5.991161043e-01,1.93903e-04,9.99999e-01,9.99999e-01,9.90531e-01,1.95765e-04,9.99954e-01
6.021116848e-01,2.30482e-04,9.99999e-01,9.99999e-01,9.94617e-01,2.31730e-04,9.99994e-01
6.051222432e-01,2.72645e-04,9.99999e-01,9.99999e-01,9.97273e-01,2.73390e-04,9.99999e-01
6.081478544e-01,3.21110e-04,9.99999e-01,9.99999e-01,9.98822e-01,3.21488e-04,9.99999e-01
6.111885937e-01,3.76653e-04,9.99999e-01,9.99999e-01,9.99501e-01,3.76840e-04,9.99999e-01
6.142445367e-01,4.40241e-04,9.99999e-01,9.99999e-01,9.99777e-01,4.40339e-04,9.99999e-01
6.173157594e-01,5.12893e-04,9.99999e-01,9.99999e-01,9.99876e-01,5.12956e-04,9.99999e-01
6.204023382e-01,5.95689e-04,9.99999e-01,9.99999e-01,9.99895e-01,5.95750e-04,9.99999e-01
6.235043498e-01,6.89550e-04,9.99999e-01,9.99999e-01,9.99541e-01,6.89866e-04,9.99998e-01
6.266218716e-01,7.94598e-04,9.99999e-01,9.99999e-01,9.97580e-01,7.96539e-04,9.99982e-01
6.297549810e-01,9.16253e-04,9.99999e-01,9.99999e-01,9.99111e-01,9.17098e-04,9.99965e-01
6.329037559e-01,1.05109e-03,9.99999e-01,9.99999e-01,9.98245e-01,1.05297e-03,9.99972e-01
6.360682746e-01,1.20385e-03,9.99999e-01,9.99999e-01,9.98505e-01,1.20568e-03,9.99983e-01
6.392486160e-01,1.37416e-03,9.99999e-01,9.99999e-01,9.98063e-01,1.37684e-03,9.99992e-01
6.424448591e-01,1.56410e-03,9.99999e-01,9.99999e-01,9.97407e-01,1.56819e-03,9.99988e-01
6.456570834e-01,1.76008e-03,9.99999e-01,9.99999e-01,9.88022e-01,1.78154e-03,9.99932e-01
6.488853688e-01,2.00075e-03,9.99999e-01,9.99999e-01,9.91230e-01,2.01883e-03,9.99812e-01
6.521297956e-01,2.26134e-03,9.99999e-01,9.99999e-01,9.91064e-01,2.28207e-03,9.99845e-01
6.553904446e-01,2.55020e-03,9.99999e-01,9.99999e-01,9.91091e-01,2.57341e-03,9.99884e-01
6.586673968e-01,2.87287e-03,9.99999e-01,9.99999e-01,9.92371e-01,2.89506e-03,9.99961e-01
6.619607338e-01,3.23549e-03,9.99999e-01,9.99999e-01,9.95740e-01,3.24935e-03,9.99991e-01
6.652705375e-01,3.62937e-03,9.99999e-01,9.99999e-01,9.97441e-01,3.63869e-03,9.99995e-01
6.685968902e-01,4.06074e-03,9.99999e-01,9.99999e-01,9.98810e-01,4.06558e-03,9.99998e-01
6.719398746e-01,4.53011e-03,9.99999e-01,9.99999e-01,9.99448e-01,4.53261e-03,9.99999e-01
6.752995740e-01,5.04094e-03,9.99999e-01,9.99999e-01,9.99700e-01,5.04244e-03,9.99999e-01
6.786760719e-01,5.59541e-03,9.99999e-01,9.99999e-01,9.99568e-01,5.59783e-03,9.99998e-01
6.820694522e-01,6.19697e-03,9.99999e-01,9.99999e-01,9.99261e-01,6.20157e-03,9.99995e-01
6.854797995e-01,6.84996e-03,9.99999e-01,9.99999e-01,9.99047e-01,6.85654e-03,9.99991e-01
6.889071985e-01,7.54806e-03,9.99999e-01,9.99999e-01,9.97692e-01,7.56567e-03,9.99978e-01
6.923517345e-01,8.02262e-03,9.99999e-01,9.99999e-01,9.63049e-01,8.33193e-03,9.99819e-01
6.958134932e-01,8.97773e-03,9.99999e-01,9.99999e-01,9.80672e-01,9.15832e-03,9.99600e-01
6.992925606e-01,9.85900e-03,9.99999e-01,9.99999e-01,9.81553e-01,1.00479e-02,9.99639e-01
7.027890234e-01,1.07508e-02,9.99999e-01,9.99999e-01,9.77283e-01,1.10037e-02,9.99724e-01
7.063029686e-01,1.17969e-02,9.99999e-01,9.99999e-01,9.80852e-01,1.20288e-02,9.99862e-01
7.098344834e-01,1.28840e-02,9.99999e-01,9.99999e-01,9.81616e-01,1.31263e-02,9.99918e-01
7.133836558e-01,1.39482e-02,9.99999e-01,9.99999e-01,9.75601e-01,1.42993e-02,9.99838e-01
7.169505741e-01,1.27726e-02,9.99999e-01,9.99999e-01,8.22389e-01,1.55508e-02,9.98734e-01
7.205353270e-01,1.53034e-02,9.99999e-01,9.99999e-01,9.08423e-01,1.68838e-02,9.97769e-01
7.241380036e-01,1.61606e-02,9.99999e-01,9.99999e-01,8.84731e-01,1.83013e-02,9.98073e-01
7.277586936e-01,1.77070e-02,9.99999e-01,9.99999e-01,8.95423e-01,1.98062e-02,9.98424e-01
7.313974871e-01,1.90073e-02,9.99999e-01,9.99999e-01,8.88785e-01,2.14015e-02,9.99261e-01
7.350544745e-01,2.16408e-02,9.99999e-01,9.99999e-01,9.37479e-01,2.30899e-02,9.99743e-01
7.387297469e-01,2.37150e-02,9.99999e-01,9.99999e-01,9.53511e-01,2.48742e-02,9.99882e-01
7.424233956e-01,2.61400e-02,9.99999e-01,9.99999e-01,9.76962e-01,2.67569e-02,9.99976e-01
7.461355126e-01,2.83375e-02,9.99999e-01,9.99999e-01,9.85971e-01,2.87408e-02,9.99995e-01
7.498661902e-01,3.06260e-02,9.99999e-01,9.99999e-01,9.93445e-01,3.08281e-02,9.99998e-01
7.536155211e-01,3.29149e-02,9.99999e-01,9.99999e-01,9.96779e-01,3.30213e-02,9.99998e-01
7.573835987e-01,3.52639e-02,9.99999e-01,9.99999e-01,9.98340e-01,3.53225e-02,9.99999e-01
7.611705167e-01,3.76949e-02,9.99999e-01,9.99999e-01,9.98968e-01,3.77338e-02,9.99999e-01
7.649763693e-01,4.02312e-02,9.99999e-01,9.99999e-01,9.99353e-01,4.02572e-02,9.99999e-01
7.688012511e-01,4.28752e-02,9.99999e-01,9.99999e-01,9.99549e-01,4.28945e-02,9.99999e-01
7.726452574e-01,4.56304e-02,9.99999e-01,9.99999e-01,9.99629e-01,4.56473e-02,9.99999e-01
7.765084837e-01,4.84916e-02,9.99999e-01,9.99999e-01,9.99472e-01,4.85171e-02,9.99998e-01
7.803910261e-01,4.59717e-02,9.99999e-01,8.94403e-01,9.97724e-01,5.15053e-02,9.99997e-01
7.842929812e-01,3.06731e-02,9.99999e-01,5.65480e-01,9.92080e-01,5.46130e-02,9.99984e-01
7.882144461e-01,3.13270e-02,9.99999e-01,5.49512e-01,9.83758e-01,5.78412e-02,9.99887e-01
7.921555184e-01,4.16896e-02,9.99999e-01,6.87071e-01,9.91070e-01,6.11908e-02,9.99804e-01
7.961162960e-01,4.93288e-02,9.99999e-01,7.74783e-01,9.84257e-01,6.46625e-02,9.99814e-01
8.000968774e-01,5.83400e-02,9.99999e-01,8.70529e-01,9.81825e-01,6.82566e-02,9.99802e-01
8.040973618e-01,6.57563e-02,9.99999e-01,9.30542e-01,9.81824e-01,7.19736e-02,9.99842e-01
8.081178486e-01,7.03853e-02,9.99999e-01,9.67430e-01,9.59573e-01,7.58136e-02,9.99852e-01
8.121584379e-01,6.65672e-02,9.99999e-01,9.89838e-01,8.43141e-01,7.97765e-02,9.99422e-01
8.162192301e-01,6.82448e-02,9.99999e-01,9.97746e-01,8.17254e-01,8.38621e-02,9.97829e-01
8.203003262e-01,7.96036e-02,9.99999e-01,9.99966e-01,9.06188e-01,8.80700e-02,9.97459e-01
8.244018279e-01,8.04973e-02,9.99999e-01,9.99999e-01,8.72951e-01,9.23996e-02,9.97977e-01
8.285238370e-01,8.56564e-02,9.99999e-01,9.99999e-01,8.85827e-01,9.68502e-02,9.98411e-01
8.326664562e-01,8.96906e-02,9.99999e-01,9.99999e-01,8.84921e-01,1.01421e-01,9.99342e-01
8.368297885e-01,9.71711e-02,9.99999e-01,9.99999e-01,9.15889e-01,1.06111e-01,9.99849e-01
8.410139374e-01,1.05259e-01,9.99999e-01,9.99999e-01,9.49065e-01,1.10918e-01,9.99911e-01
8.452190071e-01,1.12902e-01,9.99999e-01,9.99999e-01,9.74667e-01,1.15842e-01,9.99947e-01
8.494451021e-01,1.19088e-01,9.99999e-01,9.99999e-01,9.85213e-01,1.20881e-01,9.99957e-01
8.536923276e-01,1.24925e-01,9.99999e-01,9.99999e-01,9.91233e-01,1.26033e-01,9.99973e-01
8.579607893e-01,1.30585e-01,9.99999e-01,9.99999e-01,9.94591e-01,1.31296e-01,9.99993e-01
8.622505932e-01,1.36198e-01,9.99999e-01,9.99999e-01,9.96561e-01,1.36668e-01,9.99998e-01
8.665618462e-01,1.21065e-01,9.99999e-01,8.53371e-01,9.97871e-01,1.42148e-01,9.99998e-01
8.708946554e-01,3.68195e-02,9.99999e-01,2.49778e-01,9.97562e-01,1.47732e-01,9.99998e-01
8.752491287e-01,4.73791e-02,9.99999e-01,3.09747e-01,9.96740e-01,1.53419e-01,9.99996e-01
8.796253743e-01,8.16897e-02,9.99999e-01,5.15205e-01,9.95487e-01,1.59207e-01,9.99989e-01
8.840235012e-01,1.15447e-01,9.99999e-01,7.02730e-01,9.94848e-01,1.65091e-01,9.99968e-01
8.884436187e-01,1.45991e-01,9.99999e-01,8.69037e-01,9.81393e-01,1.71071e-01,9.99910e-01
8.928858368e-01,1.37834e-01,9.99999e-01,9.44502e-01,8.22617e-01,1.77143e-01,9.99484e-01
8.973502660e-01,1.28072e-01,9.99999e-01,9.86232e-01,7.09561e-01,1.83303e-01,9.97360e-01
9.018370173e-01,1.58253e-01,9.99999e-01,9.98473e-01,8.39498e-01,1.89550e-01,9.95853e-01
9.063462024e-01,1.61602e-01,9.99999e-01,9.62401e-01,8.56453e-01,1.95881e-01,9.96356e-01
9.108779334e-01,1.45309e-01,9.99999e-01,9.14079e-01,7.85652e-01,2.02291e-01,9.96214e-01
9.154323231e-01,1.55008e-01,9.99999e-01,9.79134e-01,7.59382e-01,2.08778e-01,9.96869e-01
9.200094847e-01,1.39034e-01,9.99999e-01,7.75440e-01,8.06849e-01,2.15339e-01,9.98246e-01
9.246095321e-01,1.06034e-01,9.99999e-01,6.46651e-01,7.24418e-01,2.21971e-01,9.97980e-01
9.292325798e-01,2.45087e-02,9.99999e-01,7.16316e-01,1.39119e-01,2.28669e-01,9.92146e-01
9.338787427e-01,1.34878e-02,9.99999e-01,7.20710e-01,7.62446e-02,2.35432e-01,9.67932e-01
9.385481364e-01,6.63968e-02,9.99999e-01,7.83943e-01,3.49786e-01,2.42255e-01,9.61977e-01
9.432408771e-01,5.24718e-02,9.99999e-01,8.60562e-01,2.47511e-01,2.49135e-01,9.67110e-01
9.479570815e-01,3.32085e-02,9.99999e-01,9.25723e-01,1.42354e-01,2.56069e-01,9.73149e-01
9.526968669e-01,5.51404e-02,9.99999e-01,9.63527e-01,2.19444e-01,2.63053e-01,9.83535e-01
9.574603512e-01,6.19728e-02,9.99999e-01,9.84217e-01,2.34342e-01,2.70084e-01,9.91602e-01
9.622476530e-01,8.21811e-02,9.99999e-01,9.95049e-01,2.99436e-01,2.77158e-01,9.94185e-01
9.670588912e-01,1.39858e-01,9.99999e-01,9.98514e-01,4.94554e-01,2.84273e-01,9.96019e-01
9.718941857e-01,1.84221e-01,9.99999e-01,9.99895e-01,6.34050e-01,2.91424e-01,9.97068e-01
9.767536566e-01,2.03944e-01,9.99999e-01,9.99999e-01,6.84514e-01,2.98608e-01,9.97758e-01
9.816374249e-01,2.30325e-01,9.99999e-01,9.99999e-01,7.53717e-01,3.05823e-01,9.99223e-01
9.865456120e-01,2.62138e-01,9.99999e-01,9.99999e-01,8.37463e-01,3.13064e-01,9.99837e-01
9.914783401e-01,2.86955e-01,9.99999e-01,9.99999e-01,8.95854e-01,3.20329e-01,9.99954e-01
9.964357318e-01,3.08555e-01,9.99999e-01,9.99999e-01,9.41850e-01,3.27613e-01,9.99973e-01
1.001417910e+00,3.23082e-01,9.99999e-01,9.99999e-01,9.64708e-01,3.34915e-01,9.99959e-01
1.006425000e+00,3.35269e-01,9.99999e-01,9.99999e-01,9.79716e-01,3.42230e-01,9.99942e-01
1.011457125e+00,3.45122e-01,9.99999e-01,9.99999e-01,9.87367e-01,3.49556e-01,9.99946e-01
1.016514411e+00,3.53808e-01,9.99999e-01,9.99999e-01,9.91404e-01,3.56889e-01,9.99962e-01
1.021596983e+00,3.61641e-01,9.99999e-01,9.99790e-01,9.93145e-01,3.64227e-01,9.99961e-01
1.026704968e+00,3.63992e-01,9.99999e-01,9.84883e-01,9.94649e-01,3.71566e-01,9.99974e-01
1.031838492e+00,3.34945e-01,9.99999e-01,8.87228e-01,9.96109e-01,3.78903e-01,9.99992e-01
1.036997685e+00,1.43337e-02,9.99999e-01,3.71757e-02,9.97687e-01,3.86237e-01,9.99998e-01
1.042182673e+00,4.00754e-04,9.99999e-01,1.02034e-03,9.97242e-01,3.93563e-01,9.99999e-01
1.047393587e+00,1.16708e-03,9.99999e-01,2.92001e-03,9.96344e-01,4.00879e-01,9.99998e-01
1.052630555e+00,1.61924e-08,9.99999e-01,3.97931e-08,9.94986e-01,4.08183e-01,9.99998e-01
1.057893707e+00,6.08541e-08,9.99999e-01,1.47070e-07,9.91643e-01,4.15472e-01,9.99996e-01
1.063183176e+00,4.22965e-06,9.99999e-01,1.00811e-05,9.86290e-01,4.22743e-01,9.99992e-01
1.068499092e+00,6.32578e-05,9.99999e-01,1.49174e-04,9.77156e-01,4.29994e-01,9.99983e-01
1.073841587e+00,1.39045e-03,9.99999e-01,3.23916e-03,9.73348e-01,4.37222e-01,9.99965e-01
1.079210795e+00,1.20945e-02,9.99999e-01,2.79314e-02,9.65955e-01,4.44426e-01,9.99907e-01
1.084606849e+00,5.53722e-02,9.99999e-01,1.28235e-01,9.48966e-01,4.51602e-01,9.99777e-01
1.090029883e+00,1.45611e-01,9.99999e-01,3.39758e-01,9.27659e-01,4.58750e-01,9.99539e-01
1.095480033e+00,2.24118e-01,9.99999e-01,5.85658e-01,8.15220e-01,4.65865e-01,9.99167e-01
1.100957433e+00,2.20575e-01,9.99999e-01,7.71226e-01,5.99389e-01,4.72948e-01,9.98468e-01
1.106462220e+00,1.25911e-01,9.99999e-01,8.97913e-01,2.89252e-01,4.79994e-01,9.97403e-01
1.111994531e+00,3.72607e-02,9.99999e-01,9.60800e-01,7.95134e-02,4.87004e-01,9.93121e-01
1.117554504e+00,9.43265e-03,9.99999e-01,9.90291e-01,1.96794e-02,4.93975e-01,9.75388e-01
1.123142276e+00,3.28655e-02,9.99999e-01,9.99360e-01,6.96105e-02,5.00904e-01,9.42617e-01
1.128757988e+00,7.18625e-02,9.99999e-01,9.99999e-01,1.51532e-01,5.07791e-01,9.33921e-01
1.134401778e+00,3.28581e-02,9.99999e-01,9.99999e-01,6.76688e-02,5.14634e-01,9.43528e-01
1.140073787e+00,1.51934e-01,9.99999e-01,9.99999e-01,3.05230e-01,5.21432e-01,9.54617e-01
1.145774156e+00,5.18787e-02,9.99999e-01,9.99999e-01,1.02487e-01,5.28182e-01,9.58377e-01
1.151503026e+00,4.18801e-02,9.99999e-01,9.99999e-01,8.01741e-02,5.34883e-01,9.76594e-01
1.157260541e+00,5.46379e-02,9.99999e-01,9.99999e-01,1.01611e-01,5.41535e-01,9.92943e-01
1.163046844e+00,9.91382e-02,9.99999e-01,9.99999e-01,1.81227e-01,5.48136e-01,9.97994e-01
1.168862078e+00,1.62052e-01,9.99999e-01,9.99999e-01,2.92454e-01,5.54684e-01,9.98966e-01
1.174706389e+00,2.61489e-01,9.99999e-01,9.99999e-01,4.66603e-01,5.61179e-01,9.98630e-01
1.180579921e+00,3.54831e-01,9.99999e-01,9.99999e-01,6.26418e-01,5.67620e-01,9.97929e-01
1.186482820e+00,4.38626e-01,9.99999e-01,9.99970e-01,7.65794e-01,5.74004e-01,9.97874e-01
1.192415234e+00,4.71594e-01,9.99999e-01,9.49478e-01,8.55292e-01,5.80333e-01,9.98407e-01
1.198377311e+00,2.62248e-01,9.99999e-01,4.99486e-01,8.76625e-01,5.86604e-01,9.98496e-01
1.204369197e+00,6.66876e-39,9.99999e-01,1.21071e-38,8.83303e-01,5.92817e-01,9.98639e-01
1.210391043e+00,1.30283e-159,9.99999e-01,2.32616e-159,8.87841e-01,5.98972e-01,9.99171e-01
1.216442998e+00,5.04415e-138,9.99999e-01,8.88167e-138,9.03773e-01,6.05067e-01,9.99492e-01
1.222525213e+00,6.22355e-136,9.99999e-01,1.06106e-135,9.24086e-01,6.11101e-01,9.99684e-01
1.228637839e+00,1.02532e-104,9.99999e-01,1.72424e-104,9.46623e-01,6.17075e-01,9.99853e-01
