#,Wave/freq,Total,N2,CO2,H2O,Rayleigh,CIA
4.000000000e-01,3.48702e-07,9.99999e-01,9.99999e-01,9.99970e-01,3.48712e-07,9.99999e-01
4.020000000e-01,4.67888e-07,9.99999e-01,9.99999e-01,9.99981e-01,4.67897e-07,9.99999e-01
4.040100000e-01,6.23989e-07,9.99999e-01,9.99999e-01,9.99991e-01,6.23994e-07,9.99999e-01
4.060300500e-01,8.27447e-07,9.99999e-01,9.99999e-01,9.99997e-01,8.27448e-07,9.99999e-01
4.080602003e-01,1.09114e-06,9.99999e-01,9.99999e-01,9.99998e-01,1.09114e-06,9.99999e-01
4.101005013e-01,1.43102e-06,9.99999e-01,9.99999e-01,9.99999e-01,1.43102e-06,9.99999e-01
4.121510038e-01,1.86675e-06,9.99999e-01,9.99999e-01,9.99998e-01,1.86676e-06,9.99999e-01
4.142117588e-01,2.42239e-06,9.99999e-01,9.99999e-01,9.99991e-01,2.42241e-06,9.99999e-01
4.162828176e-01,3.12721e-06,9.99999e-01,9.99999e-01,9.99964e-01,3.12732e-06,9.99999e-01
4.183642317e-01,4.01696e-06,9.99999e-01,9.99999e-01,9.99978e-01,4.01705e-06,9.99999e-01
4.204560528e-01,5.13437e-06,9.99999e-01,9.99999e-01,9.99986e-01,5.13444e-06,9.99999e-01
4.225583331e-01,6.53088e-06,9.99999e-01,9.99999e-01,9.99994e-01,6.53091e-06,9.99999e-01
4.246711247e-01,8.26779e-06,9.99999e-01,9.99999e-01,9.99995e-01,8.26782e-06,9.99999e-01
4.267944804e-01,1.04180e-05,9.99999e-01,9.99999e-01,9.99993e-01,1.04180e-05,9.99999e-01
4.289284528e-01,1.30676e-05,9.99999e-01,9.99999e-01,9.99995e-01,1.30676e-05,9.99999e-01
4.310730950e-01,1.63178e-05,9.99999e-01,9.99999e-01,9.99997e-01,1.63179e-05,9.99999e-01
4.332284605e-01,2.02873e-05,9.99999e-01,9.99999e-01,9.99999e-01,2.02873e-05,9.99999e-01
4.353946028e-01,2.51142e-05,9.99999e-01,9.99999e-01,9.99999e-01,2.51142e-05,9.99999e-01
4.375715758e-01,3.09585e-05,9.99999e-01,9.99999e-01,9.99995e-01,3.09587e-05,9.99999e-01
4.397594337e-01,3.80047e-05,9.99999e-01,9.99999e-01,9.99968e-01,3.80058e-05,9.99999e-01
4.419582309e-01,4.64612e-05,9.99999e-01,9.99999e-01,9.99841e-01,4.64686e-05,9.99999e-01
4.441680220e-01,5.65835e-05,9.99999e-01,9.99999e-01,9.99876e-01,5.65905e-05,9.99999e-01
4.463888621e-01,6.86407e-05,9.99999e-01,9.99999e-01,9.99871e-01,6.86495e-05,9.99999e-01
4.486208064e-01,8.29544e-05,9.99999e-01,9.99999e-01,9.99919e-01,8.29610e-05,9.99999e-01
4.508639105e-01,9.98781e-05,9.99999e-01,9.99999e-01,9.99962e-01,9.98818e-05,9.99999e-01
4.531182300e-01,1.19812e-04,9.99999e-01,9.99999e-01,9.99984e-01,1.19814e-04,9.99999e-01
4.553838212e-01,1.43206e-04,9.99999e-01,9.99999e-01,9.99989e-01,1.43207e-04,9.99999e-01
4.576607403e-01,1.70566e-04,9.99999e-01,9.99999e-01,9.99994e-01,1.70567e-04,9.99999e-01
4.599490440e-01,2.02452e-04,9.99999e-01,9.99999e-01,9.99996e-01,2.02453e-04,9.99999e-01
4.622487892e-01,2.39488e-04,9.99999e-01,9.99999e-01,9.99998e-01,2.39488e-04,9.99999e-01
4.645600332e-01,2.82358e-04,9.99999e-01,9.99999e-01,9.99997e-01,2.82359e-04,9.99999e-01
4.668828333e-01,3.31811e-04,9.99999e-01,9.99999e-01,9.99961e-01,3.31823e-04,9.99999e-01
4.692172475e-01,3.88681e-04,9.99999e-01,9.99999e-01,9.99919e-01,3.88712e-04,9.99999e-01
4.715633337e-01,4.53908e-04,9.99999e-01,9.99999e-01,9.99946e-01,4.53932e-04,9.99999e-01
4.739211504e-01,5.28448e-04,9.99999e-01,9.99999e-01,9.99949e-01,5.28474e-04,9.99999e-01
4.762907561e-01,6.13396e-04,9.99999e-01,9.99999e-01,9.99973e-01,6.13412e-04,9.99999e-01
4.786722099e-01,7.09900e-04,9.99999e-01,9.99999e-01,9.99988e-01,7.09908e-04,9.99999e-01
4.810655710e-01,8.19214e-04,9.99999e-01,9.99999e-01,9.99996e-01,8.19216e-04,9.99999e-01
4.834708988e-01,9.42656e-04,9.99999e-01,9.99999e-01,9.99968e-01,9.42685e-04,9.99999e-01
4.858882533e-01,1.08170e-03,9.99999e-01,9.99999e-01,9.99942e-01,1.08176e-03,9.99999e-01
4.883176946e-01,1.23792e-03,9.99999e-01,9.99999e-01,9.99951e-01,1.23798e-03,9.99999e-01
4.907592831e-01,1.41293e-03,9.99999e-01,9.99999e-01,9.99956e-01,1.41299e-03,9.99999e-01
4.932130795e-01,1.60849e-03,9.99999e-01,9.99999e-01,9.99968e-01,1.60854e-03,9.99999e-01
4.956791449e-01,1.82644e-03,9.99999e-01,9.99999e-01,9.99983e-01,1.82647e-03,9.99999e-01
4.981575406e-01,2.06855e-03,9.99999e-01,9.99999e-01,9.99918e-01,2.06872e-03,9.99999e-01
5.006483283e-01,2.33685e-03,9.99999e-01,9.99999e-01,9.99789e-01,2.33735e-03,9.99998e-01
5.031515699e-01,2.63166e-03,9.99999e-01,9.99999e-01,9.98935e-01,2.63449e-03,9.99988e-01
5.056673278e-01,2.96071e-03,9.99999e-01,9.99999e-01,9.99438e-01,2.96241e-03,9.99986e-01
5.081956644e-01,3.32105e-03,9.99999e-01,9.99999e-01,9.99291e-01,3.32343e-03,9.99991e-01
5.107366428e-01,3.71820e-03,9.99999e-01,9.99999e-01,9.99521e-01,3.71998e-03,9.99997e-01
5.132903260e-01,4.15346e-03,9.99999e-01,9.99999e-01,9.99726e-01,4.15459e-03,9.99999e-01
5.158567776e-01,4.62933e-03,9.99999e-01,9.99999e-01,9.99884e-01,4.62987e-03,9.99999e-01
5.184360615e-01,5.14825e-03,9.99999e-01,9.99999e-01,9.99953e-01,5.14848e-03,9.99999e-01
5.210282418e-01,5.71310e-03,9.99999e-01,9.99999e-01,9.99982e-01,5.71320e-03,9.99999e-01
5.236333830e-01,6.32639e-03,9.99999e-01,9.99999e-01,9.99930e-01,6.32684e-03,9.99999e-01
5.262515499e-01,6.99197e-03,9.99999e-01,9.99999e-01,9.99956e-01,6.99228e-03,9.99998e-01
5.288828077e-01,7.71215e-03,9.99999e-01,9.99999e-01,9.99959e-01,7.71246e-03,9.99999e-01
5.315272217e-01,8.49006e-03,9.99999e-01,9.99999e-01,9.99964e-01,8.49036e-03,9.99999e-01
5.341848578e-01,9.32878e-03,9.99999e-01,9.99999e-01,9.99976e-01,9.32899e-03,9.99999e-01
5.368557821e-01,1.02306e-02,9.99999e-01,9.99999e-01,9.99918e-01,1.02314e-02,9.99999e-01
5.395400610e-01,1.11974e-02,9.99999e-01,9.99999e-01,9.99707e-01,1.12007e-02,9.99997e-01
5.422377613e-01,1.22352e-02,9.99999e-01,9.99999e-01,9.99623e-01,1.22399e-02,9.99992e-01
5.449489501e-01,1.33473e-02,9.99999e-01,9.99999e-01,9.99649e-01,1.33520e-02,9.99992e-01
5.476736949e-01,1.45357e-02,9.99999e-01,9.99999e-01,9.99689e-01,1.45403e-02,9.99996e-01
5.504120634e-01,1.58040e-02,9.99999e-01,9.99999e-01,9.99774e-01,1.58076e-02,9.99998e-01
5.531641237e-01,1.71551e-02,9.99999e-01,9.99999e-01,9.99886e-01,1.71571e-02,9.99999e-01
5.559299443e-01,1.85906e-02,9.99999e-01,9.99999e-01,9.99944e-01,1.85916e-02,9.99999e-01
5.587095940e-01,2.01135e-02,9.99999e-01,9.99999e-01,9.99965e-01,2.01142e-02,9.99999e-01
5.615031420e-01,2.17268e-02,9.99999e-01,9.99999e-01,9.99961e-01,2.17276e-02,9.99999e-01
5.643106577e-01,2.34338e-02,9.99999e-01,9.99999e-01,9.99956e-01,2.34348e-02,9.99999e-01
5.671322110e-01,2.52249e-02,9.99999e-01,9.99999e-01,9.99472e-01,2.52383e-02,9.99994e-01
5.699678720e-01,2.71253e-02,9.99999e-01,9.99999e-01,9.99440e-01,2.71408e-02,9.99985e-01
5.728177114e-01,2.91276e-02,9.99999e-01,9.99999e-01,9.99417e-01,2.91449e-02,9.99987e-01
5.756818000e-01,3.12361e-02,9.99999e-01,9.99999e-01,9.99465e-01,3.12530e-02,9.99992e-01
5.785602090e-01,3.34517e-02,9.99999e-01,9.99999e-01,9.99533e-01,3.34674e-02,9.99997e-01
5.814530100e-01,3.57734e-02,9.99999e-01,9.99999e-01,9.99531e-01,3.57902e-02,9.99998e-01
5.843602750e-01,3.82020e-02,9.99999e-01,9.99999e-01,9.99441e-01,3.82235e-02,9.99996e-01
5.872820764e-01,4.05720e-02,9.99999e-01,9.99999e-01,9.95193e-01,4.07693e-02,9.99965e-01
5.902184868e-01,4.31727e-02,9.99999e-01,9.99999e-01,9.94183e-01,4.34293e-02,9.99907e-01
5.931695792e-01,4.60110e-02,9.99999e-01,9.99999e-01,9.95887e-01,4.62051e-02,9.99911e-01
5.961354271e-01,4.88744e-02,9.99999e-01,9.99999e-01,9.95493e-01,4.90982e-02,9.99948e-01
5.991161043e-01,5.19377e-02,9.99999e-01,9.99999e-01,9.96712e-01,5.21099e-02,9.99983e-01
6.021116848e-01,5.51381e-02,9.99999e-01,9.99999e-01,9.98133e-01,5.52413e-02,9.99997e-01
6.051222432e-01,5.84382e-02,9.99999e-01,9.99999e-01,9.99055e-01,5.84935e-02,9.99999e-01
6.081478544e-01,6.18419e-02,9.99999e-01,9.99999e-01,9.99592e-01,6.18671e-02,9.99999e-01
6.111885937e-01,6.53517e-02,9.99999e-01,9.99999e-01,9.99827e-01,6.53629e-02,9.99999e-01
6.142445367e-01,6.89761e-02,9.99999e-01,9.99999e-01,9.99922e-01,6.89814e-02,9.99999e-01
6.173157594e-01,7.27196e-02,9.99999e-01,9.99999e-01,9.99957e-01,7.27226e-02,9.99999e-01
6.204023382e-01,7.65841e-02,9.99999e-01,9.99999e-01,9.99963e-01,7.65869e-02,9.99999e-01
6.235043498e-01,8.05613e-02,9.99999e-01,9.99999e-01,9.99841e-01,8.05741e-02,9.99999e-01
6.266218716e-01,8.46124e-02,9.99999e-01,9.99999e-01,9.99161e-01,8.46838e-02,9.99993e-01
6.297549810e-01,8.88875e-02,9.99999e-01,9.99999e-01,9.99692e-01,8.89158e-02,9.99987e-01
6.329037559e-01,9.32119e-02,9.99999e-01,9.99999e-01,9.99392e-01,9.32694e-02,9.99990e-01
6.360682746e-01,9.76928e-02,9.99999e-01,9.99999e-01,9.99482e-01,9.77439e-02,9.99993e-01
6.392486160e-01,1.02269e-01,9.99999e-01,9.99999e-01,9.99329e-01,1.02338e-01,9.99997e-01
6.424448591e-01,1.06955e-01,9.99999e-01,9.99999e-01,9.99101e-01,1.07051e-01,9.99995e-01
6.456570834e-01,1.11413e-01,9.99999e-01,9.99999e-01,9.95835e-01,1.11882e-01,9.99976e-01
6.488853688e-01,1.16465e-01,9.99999e-01,9.99999e-01,9.96952e-01,1.16829e-01,9.99934e-01
6.521297956e-01,1.21505e-01,9.99999e-01,9.99999e-01,9.96893e-01,1.21890e-01,9.99946e-01
6.553904446e-01,1.26666e-01,9.99999e-01,9.99999e-01,9.96906e-01,1.27064e-01,9.99959e-01
6.586673968e-01,1.31996e-01,9.99999e-01,9.99999e-01,9.97351e-01,1.32349e-01,9.99986e-01
6.619607338e-01,1.37539e-01,9.99999e-01,9.99999e-01,9.98523e-01,1.37742e-01,9.99996e-01
6.652705375e-01,1.43116e-01,9.99999e-01,9.99999e-01,9.99113e-01,1.43243e-01,9.99998e-01
6.685968902e-01,1.48787e-01,9.99999e-01,9.99999e-01,9.99587e-01,1.48848e-01,9.99999e-01
6.719398746e-01,1.54526e-01,9.99999e-01,9.99999e-01,9.99808e-01,1.54555e-01,9.99999e-01
6.752995740e-01,1.60345e-01,9.99999e-01,9.99999e-01,9.99896e-01,1.60362e-01,9.99999e-01
6.786760719e-01,1.66241e-01,9.99999e-01,9.99999e-01,9.99850e-01,1.66266e-01,9.99999e-01
6.820694522e-01,1.72219e-01,9.99999e-01,9.99999e-01,9.99743e-01,1.72264e-01,9.99998e-01
6.854797995e-01,1.78294e-01,9.99999e-01,9.99999e-01,9.99669e-01,1.78353e-01,9.99996e-01
6.889071985e-01,1.84382e-01,9.99999e-01,9.99999e-01,9.99200e-01,1.84531e-01,9.99992e-01
6.923517345e-01,1.88306e-01,9.99999e-01,9.99999e-01,9.87017e-01,1.90795e-01,9.99937e-01
6.958134932e-01,1.95782e-01,9.99999e-01,9.99999e-01,9.93244e-01,1.97141e-01,9.99861e-01
6.992925606e-01,2.02232e-01,9.99999e-01,9.99999e-01,9.93567e-01,2.03567e-01,9.99874e-01
7.027890234e-01,2.08383e-01,9.99999e-01,9.99999e-01,9.92068e-01,2.10069e-01,9.99904e-01
7.063029686e-01,2.15188e-01,9.99999e-01,9.99999e-01,9.93327e-01,2.16644e-01,9.99952e-01
7.098344834e-01,2.21853e-01,9.99999e-01,9.99999e-01,9.93597e-01,2.23289e-01,9.99971e-01
7.133836558e-01,2.28025e-01,9.99999e-01,9.99999e-01,9.91464e-01,2.30000e-01,9.99943e-01
7.169505741e-01,2.20913e-01,9.99999e-01,9.99999e-01,9.33415e-01,2.36775e-01,9.99561e-01
7.205353270e-01,2.35364e-01,9.99999e-01,9.99999e-01,9.66899e-01,2.43610e-01,9.99227e-01
7.241380036e-01,2.39837e-01,9.99999e-01,9.99999e-01,9.58070e-01,2.50501e-01,9.99332e-01
7.277586936e-01,2.47550e-01,9.99999e-01,9.99999e-01,9.62091e-01,2.57445e-01,9.99454e-01
7.313974871e-01,2.53730e-01,9.99999e-01,9.99999e-01,9.59749e-01,2.64438e-01,9.99744e-01
7.350544745e-01,2.65431e-01,9.99999e-01,9.99999e-01,9.77811e-01,2.71478e-01,9.99910e-01
7.387297469e-01,2.73989e-01,9.99999e-01,9.99999e-01,9.83626e-01,2.78561e-01,9.99958e-01
7.424233956e-01,2.83384e-01,9.99999e-01,9.99999e-01,9.91959e-01,2.85683e-01,9.99991e-01
7.461355126e-01,2.91412e-01,9.99999e-01,9.99999e-01,9.95120e-01,2.92841e-01,9.99998e-01
7.498661902e-01,2.99349e-01,9.99999e-01,9.99999e-01,9.97726e-01,3.00032e-01,9.99999e-01
7.536155211e-01,3.06909e-01,9.99999e-01,9.99999e-01,9.98883e-01,3.07252e-01,9.99999e-01
7.573835987e-01,3.14317e-01,9.99999e-01,9.99999e-01,9.99425e-01,3.14498e-01,9.99999e-01
7.611705167e-01,3.21652e-01,9.99999e-01,9.99999e-01,9.99642e-01,3.21767e-01,9.99999e-01
7.649763693e-01,3.28981e-01,9.99999e-01,9.99999e-01,9.99775e-01,3.29055e-01,9.99999e-01
7.688012511e-01,3.36307e-01,9.99999e-01,9.99999e-01,9.99843e-01,3.36359e-01,9.99999e-01
7.726452574e-01,3.43633e-01,9.99999e-01,9.99999e-01,9.99871e-01,3.43677e-01,9.99999e-01
7.765084837e-01,3.50940e-01,9.99999e-01,9.99999e-01,9.99817e-01,3.51004e-01,9.99999e-01
7.803910261e-01,3.41683e-01,9.99999e-01,9.54239e-01,9.99211e-01,3.58339e-01,9.99998e-01
7.842929812e-01,2.95515e-01,9.99999e-01,8.10218e-01,9.97250e-01,3.65677e-01,9.99994e-01
7.882144461e-01,2.96282e-01,9.99999e-01,7.98592e-01,9.94345e-01,3.73016e-01,9.99960e-01
7.921555184e-01,3.32069e-01,9.99999e-01,8.75743e-01,9.96897e-01,3.80353e-01,9.99932e-01
7.961162960e-01,3.52750e-01,9.99999e-01,9.14898e-01,9.94516e-01,3.87685e-01,9.99935e-01
8.000968774e-01,3.74012e-01,9.99999e-01,9.52913e-01,9.93671e-01,3.95010e-01,9.99931e-01
8.040973618e-01,3.89901e-01,9.99999e-01,9.75332e-01,9.93668e-01,4.02324e-01,9.99945e-01
8.081178486e-01,3.99182e-01,9.99999e-01,9.88593e-01,9.85771e-01,4.09625e-01,9.99948e-01
8.121584379e-01,3.91291e-01,9.99999e-01,9.96468e-01,9.42018e-01,4.16910e-01,9.99799e-01
8.162192301e-01,3.94570e-01,9.99999e-01,9.99219e-01,9.31608e-01,4.24177e-01,9.99248e-01
8.203003262e-01,4.16109e-01,9.99999e-01,9.99988e-01,9.65359e-01,4.31424e-01,9.99119e-01
8.244018279e-01,4.17329e-01,9.99999e-01,9.99999e-01,9.52064e-01,4.38648e-01,9.99299e-01
8.285238370e-01,4.27144e-01,9.99999e-01,9.99999e-01,9.58578e-01,4.45846e-01,9.99449e-01
8.326664562e-01,4.33963e-01,9.99999e-01,9.99999e-01,9.58158e-01,4.53017e-01,9.99772e-01
8.368297885e-01,4.46299e-01,9.99999e-01,9.99999e-01,9.69931e-01,4.60158e-01,9.99947e-01
8.410139374e-01,4.58857e-01,9.99999e-01,9.99999e-01,9.82029e-01,4.67267e-01,9.99969e-01
8.452190071e-01,4.70137e-01,9.99999e-01,9.99999e-01,9.91151e-01,4.74343e-01,9.99981e-01
8.494451021e-01,4.78900e-01,9.99999e-01,9.99999e-01,9.94856e-01,4.81383e-01,9.99984e-01
8.536923276e-01,4.86894e-01,9.99999e-01,9.99999e-01,9.96956e-01,4.88385e-01,9.99990e-01
8.579607893e-01,4.94417e-01,9.99999e-01,9.99999e-01,9.98124e-01,4.95347e-01,9.99997e-01
8.622505932e-01,5.01670e-01,9.99999e-01,9.99999e-01,9.98808e-01,5.02268e-01,9.99999e-01
8.665618462e-01,4.62578e-01,9.99999e-01,9.09172e-01,9.99262e-01,5.09147e-01,9.99999e-01
8.708946554e-01,3.03385e-01,9.99999e-01,5.88449e-01,9.99155e-01,5.15981e-01,9.99999e-01
8.752491287e-01,3.39550e-01,9.99999e-01,6.50228e-01,9.98870e-01,5.22769e-01,9.99998e-01
8.796253743e-01,4.16731e-01,9.99999e-01,7.88198e-01,9.98435e-01,5.29510e-01,9.99996e-01
8.840235012e-01,4.72887e-01,9.99999e-01,8.83474e-01,9.98213e-01,5.36202e-01,9.99988e-01
8.884436187e-01,5.13620e-01,9.99999e-01,9.52315e-01,9.93486e-01,5.42843e-01,9.99968e-01
8.928858368e-01,5.02886e-01,9.99999e-01,9.80393e-01,9.33527e-01,5.49434e-01,9.99821e-01
8.973502660e-01,4.89604e-01,9.99999e-01,9.95207e-01,8.85556e-01,5.55972e-01,9.99085e-01
9.018370173e-01,5.27622e-01,9.99999e-01,9.99470e-01,9.39893e-01,5.62456e-01,9.98562e-01
9.063462024e-01,5.30994e-01,9.99999e-01,9.86490e-01,9.46811e-01,5.68886e-01,9.98737e-01
9.108779334e-01,5.11632e-01,9.99999e-01,9.69239e-01,9.18336e-01,5.75259e-01,9.98687e-01
9.154323231e-01,5.23612e-01,9.99999e-01,9.92703e-01,9.07735e-01,5.81577e-01,9.98915e-01
9.200094847e-01,4.93457e-01,9.99999e-01,9.01236e-01,9.27038e-01,5.87837e-01,9.99392e-01
9.246095321e-01,4.54501e-01,9.99999e-01,8.58333e-01,8.88763e-01,5.94038e-01,9.99300e-01
9.292325798e-01,2.47905e-01,9.99999e-01,8.87451e-01,4.59218e-01,6.00181e-01,9.97274e-01
9.338787427e-01,1.99459e-01,9.99999e-01,8.90847e-01,3.67759e-01,6.06264e-01,9.88784e-01
9.385481364e-01,3.72581e-01,9.99999e-01,9.18440e-01,6.67130e-01,6.12286e-01,9.86674e-01
9.432408771e-01,3.33562e-01,9.99999e-01,9.49217e-01,5.72841e-01,6.18248e-01,9.88493e-01
9.479570815e-01,2.81086e-01,9.99999e-01,9.73607e-01,4.66056e-01,6.24148e-01,9.90625e-01
9.526968669e-01,3.47092e-01,9.99999e-01,9.87194e-01,5.60494e-01,6.29987e-01,9.94271e-01
9.574603512e-01,3.67544e-01,9.99999e-01,9.94504e-01,5.82720e-01,6.35763e-01,9.97085e-01
9.622476530e-01,4.11088e-01,9.99999e-01,9.98283e-01,6.43156e-01,6.41476e-01,9.97983e-01
9.670588912e-01,5.00543e-01,9.99999e-01,9.99485e-01,7.74923e-01,6.47126e-01,9.98620e-01
9.718941857e-01,5.55469e-01,9.99999e-01,9.99963e-01,8.51907e-01,6.52713e-01,9.98984e-01
9.767536566e-01,5.75762e-01,9.99999e-01,9.99999e-01,8.75382e-01,6.58237e-01,9.99223e-01
9.816374249e-01,6.01163e-01,9.99999e-01,9.99999e-01,9.06023e-01,6.63697e-01,9.99730e-01
9.865456120e-01,6.29034e-01,9.99999e-01,9.99999e-01,9.40181e-01,6.69092e-01,9.99943e-01
9.914783401e-01,6.49178e-01,9.99999e-01,9.99999e-01,9.62580e-01,6.74424e-01,9.99983e-01
9.964357318e-01,6.65718e-01,9.99999e-01,9.99999e-01,9.79449e-01,6.79692e-01,9.99990e-01
1.001417910e+00,6.76417e-01,9.99999e-01,9.99999e-01,9.87633e-01,6.84896e-01,9.99985e-01
1.006425000e+00,6.85145e-01,9.99999e-01,9.99999e-01,9.92931e-01,6.90035e-01,9.99979e-01
1.011457125e+00,6.92046e-01,9.99999e-01,9.99999e-01,9.95608e-01,6.95111e-01,9.99981e-01
1.016514411e+00,6.98025e-01,9.99999e-01,9.99999e-01,9.97016e-01,7.00122e-01,9.99986e-01
1.021596983e+00,7.03333e-01,9.99999e-01,9.99926e-01,9.97621e-01,7.05069e-01,9.99986e-01
1.026704968e+00,7.04877e-01,9.99999e-01,9.94699e-01,9.98144e-01,7.09953e-01,9.99990e-01
1.031838492e+00,6.73595e-01,9.99999e-01,9.43616e-01,9.98651e-01,7.14773e-01,9.99997e-01
1.036997685e+00,7.99458e-02,9.99999e-01,1.11177e-01,9.99198e-01,7.19530e-01,9.99999e-01
1.042182673e+00,4.00775e-02,9.99999e-01,5.53838e-02,9.99044e-01,7.24223e-01,9.99999e-01
1.047393587e+00,5.77914e-02,9.99999e-01,7.93782e-02,9.98733e-01,7.28854e-01,9.99999e-01
1.052630555e+00,4.88740e-04,9.99999e-01,6.67196e-04,9.98261e-01,7.33421e-01,9.99999e-01
1.057893707e+00,1.47622e-03,9.99999e-01,2.00412e-03,9.97099e-01,7.37926e-01,9.99998e-01
1.063183176e+00,7.32398e-03,9.99999e-01,9.89737e-03,9.95230e-01,7.42370e-01,9.99997e-01
1.068499092e+00,2.78202e-02,9.99999e-01,3.74934e-02,9.92025e-01,7.46751e-01,9.99994e-01
1.073841587e+00,9.29430e-02,9.99999e-01,1.24700e-01,9.90671e-01,7.51071e-01,9.99987e-01
1.079210795e+00,1.99961e-01,9.99999e-01,2.67557e-01,9.88062e-01,7.55329e-01,9.99967e-01
1.084606849e+00,3.59603e-01,9.99999e-01,4.81633e-01,9.81980e-01,7.59527e-01,9.99922e-01
1.090029883e+00,5.09125e-01,9.99999e-01,6.83767e-01,9.74206e-01,7.63665e-01,9.99840e-01
1.095480033e+00,5.93260e-01,9.99999e-01,8.29095e-01,9.31288e-01,7.67743e-01,9.99711e-01
1.100957433e+00,5.89046e-01,9.99999e-01,9.13573e-01,8.34800e-01,7.71762e-01,9.99469e-01
1.106462220e+00,4.74582e-01,9.99999e-01,9.63306e-01,6.34508e-01,7.75721e-01,9.99100e-01
1.111994531e+00,2.97563e-01,9.99999e-01,9.86237e-01,3.87413e-01,7.79622e-01,9.97613e-01
1.117554504e+00,1.69454e-01,9.99999e-01,9.96625e-01,2.18721e-01,7.83465e-01,9.91413e-01
1.123142276e+00,2.59184e-01,9.99999e-01,9.99778e-01,3.36055e-01,7.87251e-01,9.79757e-01
1.128757988e+00,3.77738e-01,9.99999e-01,9.99999e-01,4.88989e-01,7.90979e-01,9.76620e-01
1.134401778e+00,1.94957e-01,9.99999e-01,9.99999e-01,2.50321e-01,7.94651e-01,9.80084e-01
1.140073787e+00,5.09285e-01,9.99999e-01,9.99999e-01,6.48323e-01,7.98268e-01,9.84055e-01
1.145774156e+00,3.25140e-01,9.99999e-01,9.99999e-01,4.11508e-01,8.01828e-01,9.85395e-01
1.151503026e+00,2.98805e-01,9.99999e-01,9.99999e-01,3.74085e-01,8.05334e-01,9.91837e-01
1.157260541e+00,3.48620e-01,9.99999e-01,9.99999e-01,4.32098e-01,8.08785e-01,9.97552e-01
1.163046844e+00,4.35600e-01,9.99999e-01,9.99999e-01,5.36705e-01,8.12182e-01,9.99305e-01
1.168862078e+00,5.27271e-01,9.99999e-01,9.99999e-01,6.46771e-01,8.15527e-01,9.99641e-01
1.174706389e+00,6.25355e-01,9.99999e-01,9.99999e-01,7.64090e-01,8.18818e-01,9.99525e-01
1.180579921e+00,6.97176e-01,9.99999e-01,9.99999e-01,8.48694e-01,8.22058e-01,9.99282e-01
1.186482820e+00,7.51520e-01,9.99999e-01,9.99989e-01,9.11340e-01,8.25245e-01,9.99263e-01
1.192415234e+00,7.69821e-01,9.99999e-01,9.81315e-01,9.47240e-01,8.28382e-01,9.99448e-01
1.198377311e+00,4.41303e-01,9.99999e-01,5.51670e-01,9.55342e-01,8.31469e-01,9.99478e-01
1.204369197e+00,6.21379e-15,9.99999e-01,7.63786e-15,9.57717e-01,8.34505e-01,9.99528e-01
1.210391043e+00,1.05723e-56,9.99999e-01,1.29204e-56,9.59515e-01,8.37493e-01,9.99713e-01
1.216442998e+00,3.11903e-49,9.99999e-01,3.79347e-49,9.65463e-01,8.40432e-01,9.99824e-01
1.222525213e+00,1.65152e-48,9.99999e-01,1.98634e-48,9.73001e-01,8.43322e-01,9.99890e-01
1.228637839e+00,1.45045e-37,9.99999e-01,1.73665e-37,9.81174e-01,8.46166e-01,9.99948e-01
