#,Wave/freq,Total,N2,CO2,H2O,Rayleigh,CIA
4.000000000e-01,1.48287e-03,9.99999e-01,9.99999e-01,9.99987e-01,1.48289e-03,9.99999e-01
4.020000000e-01,1.68671e-03,9.99999e-01,9.99999e-01,9.99991e-01,1.68672e-03,9.99999e-01
4.040100000e-01,1.91344e-03,9.99999e-01,9.99999e-01,9.99996e-01,1.91344e-03,9.99999e-01
4.060300500e-01,2.16524e-03,9.99999e-01,9.99999e-01,9.99998e-01,2.16524e-03,9.99999e-01
4.080602003e-01,2.44420e-03,9.99999e-01,9.99999e-01,9.99999e-01,2.44420e-03,9.99999e-01
4.101005013e-01,2.75250e-03,9.99999e-01,9.99999e-01,9.99999e-01,2.75250e-03,9.99999e-01
4.121510038e-01,3.09243e-03,9.99999e-01,9.99999e-01,9.99999e-01,3.09243e-03,9.99999e-01
4.142117588e-01,3.46634e-03,9.99999e-01,9.99999e-01,9.99996e-01,3.46635e-03,9.99999e-01
4.162828176e-01,3.87667e-03,9.99999e-01,9.99999e-01,9.99984e-01,3.87673e-03,9.99999e-01
4.183642317e-01,4.32609e-03,9.99999e-01,9.99999e-01,9.99990e-01,4.32613e-03,9.99999e-01
4.204560528e-01,4.81715e-03,9.99999e-01,9.99999e-01,9.99993e-01,4.81718e-03,9.99999e-01
4.225583331e-01,5.35257e-03,9.99999e-01,9.99999e-01,9.99997e-01,5.35258e-03,9.99999e-01
4.246711247e-01,5.93511e-03,9.99999e-01,9.99999e-01,9.99997e-01,5.93512e-03,9.99999e-01
4.267944804e-01,6.56763e-03,9.99999e-01,9.99999e-01,9.99997e-01,6.56765e-03,9.99999e-01
4.289284528e-01,7.25305e-03,9.99999e-01,9.99999e-01,9.99997e-01,7.25306e-03,9.99999e-01
4.310730950e-01,7.99431e-03,9.99999e-01,9.99999e-01,9.99998e-01,7.99432e-03,9.99999e-01
4.332284605e-01,8.79441e-03,9.99999e-01,9.99999e-01,9.99999e-01,8.79441e-03,9.99999e-01
4.353946028e-01,9.65637e-03,9.99999e-01,9.99999e-01,9.99999e-01,9.65637e-03,9.99999e-01
4.375715758e-01,1.05832e-02,9.99999e-01,9.99999e-01,9.99997e-01,1.05832e-02,9.99999e-01
4.397594337e-01,1.15779e-02,9.99999e-01,9.99999e-01,9.99985e-01,1.15781e-02,9.99999e-01
4.419582309e-01,1.26431e-02,9.99999e-01,9.99999e-01,9.99929e-01,1.26440e-02,9.99999e-01
4.441680220e-01,1.37833e-02,9.99999e-01,9.99999e-01,9.99945e-01,1.37841e-02,9.99999e-01
4.463888621e-01,1.50005e-02,9.99999e-01,9.99999e-01,9.99943e-01,1.50013e-02,9.99999e-01
4.486208064e-01,1.62982e-02,9.99999e-01,9.99999e-01,9.99964e-01,1.62988e-02,9.99999e-01
4.508639105e-01,1.76792e-02,9.99999e-01,9.99999e-01,9.99983e-01,1.76795e-02,9.99999e-01
4.531182300e-01,1.91463e-02,9.99999e-01,9.99999e-01,9.99993e-01,1.91464e-02,9.99999e-01
4.553838212e-01,2.07023e-02,9.99999e-01,9.99999e-01,9.99995e-01,2.07024e-02,9.99999e-01
4.576607403e-01,2.23502e-02,9.99999e-01,9.99999e-01,9.99997e-01,2.23503e-02,9.99999e-01
4.599490440e-01,2.40928e-02,9.99999e-01,9.99999e-01,9.99998e-01,2.40929e-02,9.99999e-01
4.622487892e-01,2.59328e-02,9.99999e-01,9.99999e-01,9.99999e-01,2.59328e-02,9.99999e-01
4.645600332e-01,2.78728e-02,9.99999e-01,9.99999e-01,9.99998e-01,2.78728e-02,9.99999e-01
4.668828333e-01,2.99147e-02,9.99999e-01,9.99999e-01,9.99982e-01,2.99152e-02,9.99999e-01
4.692172475e-01,3.20613e-02,9.99999e-01,9.99999e-01,9.99964e-01,3.20625e-02,9.99999e-01
4.715633337e-01,3.43160e-02,9.99999e-01,9.99999e-01,9.99976e-01,3.43168e-02,9.99999e-01
4.739211504e-01,3.66796e-02,9.99999e-01,9.99999e-01,9.99977e-01,3.66804e-02,9.99999e-01
4.762907561e-01,3.91548e-02,9.99999e-01,9.99999e-01,9.99988e-01,3.91553e-02,9.99999e-01
4.786722099e-01,4.17431e-02,9.99999e-01,9.99999e-01,9.99994e-01,4.17433e-02,9.99999e-01
4.810655710e-01,4.44460e-02,9.99999e-01,9.99999e-01,9.99998e-01,4.44460e-02,9.99999e-01
4.834708988e-01,4.72646e-02,9.99999e-01,9.99999e-01,9.99985e-01,4.72652e-02,9.99999e-01
4.858882533e-01,5.02010e-02,9.99999e-01,9.99999e-01,9.99974e-01,5.02022e-02,9.99999e-01
4.883176946e-01,5.32571e-02,9.99999e-01,9.99999e-01,9.99978e-01,5.32582e-02,9.99999e-01
4.907592831e-01,5.64333e-02,9.99999e-01,9.99999e-01,9.99980e-01,5.64344e-02,9.99999e-01
4.932130795e-01,5.97308e-02,9.99999e-01,9.99999e-01,9.99986e-01,5.97316e-02,9.99999e-01
4.956791449e-01,6.31501e-02,9.99999e-01,9.99999e-01,9.99992e-01,6.31505e-02,9.99999e-01
4.981575406e-01,6.66894e-02,9.99999e-01,9.99999e-01,9.99963e-01,6.66918e-02,9.99999e-01
5.006483283e-01,7.03492e-02,9.99999e-01,9.99999e-01,9.99906e-01,7.03558e-02,9.99998e-01
5.031515699e-01,7.41077e-02,9.99999e-01,9.99999e-01,9.99532e-01,7.41427e-02,9.99994e-01
5.056673278e-01,7.80330e-02,9.99999e-01,9.99999e-01,9.99753e-01,7.80526e-02,9.99993e-01
5.081956644e-01,8.20596e-02,9.99999e-01,9.99999e-01,9.99689e-01,8.20853e-02,9.99996e-01
5.107366428e-01,8.62225e-02,9.99999e-01,9.99999e-01,9.99790e-01,8.62405e-02,9.99998e-01
5.132903260e-01,9.05070e-02,9.99999e-01,9.99999e-01,9.99880e-01,9.05178e-02,9.99999e-01
5.158567776e-01,9.49116e-02,9.99999e-01,9.99999e-01,9.99949e-01,9.49163e-02,9.99999e-01
5.184360615e-01,9.94334e-02,9.99999e-01,9.99999e-01,9.99979e-01,9.94354e-02,9.99999e-01
5.210282418e-01,1.04073e-01,9.99999e-01,9.99999e-01,9.99991e-01,1.04074e-01,9.99999e-01
5.236333830e-01,1.08827e-01,9.99999e-01,9.99999e-01,9.99969e-01,1.08831e-01,9.99999e-01
5.262515499e-01,1.13703e-01,9.99999e-01,9.99999e-01,9.99980e-01,1.13705e-01,9.99999e-01
5.288828077e-01,1.18692e-01,9.99999e-01,9.99999e-01,9.99981e-01,1.18694e-01,9.99999e-01
5.315272217e-01,1.23795e-01,9.99999e-01,9.99999e-01,9.99984e-01,1.23797e-01,9.99999e-01
5.341848578e-01,1.29011e-01,9.99999e-01,9.99999e-01,9.99989e-01,1.29013e-01,9.99999e-01
5.368557821e-01,1.34334e-01,9.99999e-01,9.99999e-01,9.99963e-01,1.34338e-01,9.99999e-01
5.395400610e-01,1.39754e-01,9.99999e-01,9.99999e-01,9.99870e-01,1.39772e-01,9.99998e-01
5.422377613e-01,1.45287e-01,9.99999e-01,9.99999e-01,9.99835e-01,1.45312e-01,9.99996e-01
5.449489501e-01,1.50931e-01,9.99999e-01,9.99999e-01,9.99845e-01,1.50955e-01,9.99996e-01
5.476736949e-01,1.56678e-01,9.99999e-01,9.99999e-01,9.99864e-01,1.56699e-01,9.99997e-01
5.504120634e-01,1.62526e-01,9.99999e-01,9.99999e-01,9.99901e-01,1.62542e-01,9.99999e-01
5.531641237e-01,1.68473e-01,9.99999e-01,9.99999e-01,9.99950e-01,1.68481e-01,9.99999e-01
5.559299443e-01,1.74509e-01,9.99999e-01,9.99999e-01,9.99975e-01,1.74513e-01,9.99999e-01
5.587095940e-01,1.80633e-01,9.99999e-01,9.99999e-01,9.99984e-01,1.80636e-01,9.99999e-01
5.615031420e-01,1.86843e-01,9.99999e-01,9.99999e-01,9.99982e-01,1.86846e-01,9.99999e-01
5.643106577e-01,1.93137e-01,9.99999e-01,9.99999e-01,9.99980e-01,1.93141e-01,9.99999e-01
5.671322110e-01,1.99470e-01,9.99999e-01,9.99999e-01,9.99764e-01,1.99517e-01,9.99997e-01
5.699678720e-01,2.05920e-01,9.99999e-01,9.99999e-01,9.99756e-01,2.05972e-01,9.99993e-01
5.728177114e-01,2.12446e-01,9.99999e-01,9.99999e-01,9.99743e-01,2.12501e-01,9.99994e-01
5.756818000e-01,2.19051e-01,9.99999e-01,9.99999e-01,9.99765e-01,2.19103e-01,9.99996e-01
5.785602090e-01,2.25727e-01,9.99999e-01,9.99999e-01,9.99795e-01,2.25773e-01,9.99998e-01
5.814530100e-01,2.32460e-01,9.99999e-01,9.99999e-01,9.99794e-01,2.32508e-01,9.99999e-01
5.843602750e-01,2.39246e-01,9.99999e-01,9.99999e-01,9.99753e-01,2.39305e-01,9.99998e-01
5.872820764e-01,2.45635e-01,9.99999e-01,9.99999e-01,9.97876e-01,2.46161e-01,9.99984e-01
5.902184868e-01,2.52417e-01,9.99999e-01,9.99999e-01,9.97451e-01,2.53072e-01,9.99959e-01
5.931695792e-01,2.59555e-01,9.99999e-01,9.99999e-01,9.98193e-01,2.60035e-01,9.99960e-01
5.961354271e-01,2.66513e-01,9.99999e-01,9.99999e-01,9.98024e-01,2.67046e-01,9.99977e-01
5.991161043e-01,2.73706e-01,9.99999e-01,9.99999e-01,9.98560e-01,2.74102e-01,9.99992e-01
6.021116848e-01,2.80971e-01,9.99999e-01,9.99999e-01,9.99184e-01,2.81200e-01,9.99998e-01
6.051222432e-01,2.88217e-01,9.99999e-01,9.99999e-01,9.99587e-01,2.88336e-01,9.99999e-01
6.081478544e-01,2.95454e-01,9.99999e-01,9.99999e-01,9.99821e-01,2.95507e-01,9.99999e-01
6.111885937e-01,3.02686e-01,9.99999e-01,9.99999e-01,9.99924e-01,3.02709e-01,9.99999e-01
6.142445367e-01,3.09928e-01,9.99999e-01,9.99999e-01,9.99965e-01,3.09939e-01,9.99999e-01
6.173157594e-01,3.17188e-01,9.99999e-01,9.99999e-01,9.99980e-01,3.17194e-01,9.99999e-01
6.204023382e-01,3.24465e-01,9.99999e-01,9.99999e-01,9.99983e-01,3.24470e-01,9.99999e-01
6.235043498e-01,3.31741e-01,9.99999e-01,9.99999e-01,9.99928e-01,3.31764e-01,9.99999e-01
6.266218716e-01,3.38949e-01,9.99999e-01,9.99999e-01,9.99632e-01,3.39074e-01,9.99996e-01
6.297549810e-01,3.46347e-01,9.99999e-01,9.99999e-01,9.99864e-01,3.46396e-01,9.99994e-01
6.329037559e-01,3.53631e-01,9.99999e-01,9.99999e-01,9.99733e-01,3.53726e-01,9.99995e-01
6.360682746e-01,3.60979e-01,9.99999e-01,9.99999e-01,9.99772e-01,3.61062e-01,9.99997e-01
6.392486160e-01,3.68292e-01,9.99999e-01,9.99999e-01,9.99705e-01,3.68401e-01,9.99998e-01
6.424448591e-01,3.75590e-01,9.99999e-01,9.99999e-01,9.99603e-01,3.75740e-01,9.99997e-01
6.456570834e-01,3.82366e-01,9.99999e-01,9.99999e-01,9.98158e-01,3.83075e-01,9.99988e-01
6.488853688e-01,3.89873e-01,9.99999e-01,9.99999e-01,9.98666e-01,3.90405e-01,9.99971e-01
6.521297956e-01,3.97176e-01,9.99999e-01,9.99999e-01,9.98640e-01,3.97726e-01,9.99976e-01
6.553904446e-01,4.04478e-01,9.99999e-01,9.99999e-01,9.98641e-01,4.05035e-01,9.99982e-01
6.586673968e-01,4.11851e-01,9.99999e-01,9.99999e-01,9.98840e-01,4.12331e-01,9.99993e-01
6.619607338e-01,4.19339e-01,9.99999e-01,9.99999e-01,9.99354e-01,4.19610e-01,9.99998e-01
6.652705375e-01,4.26704e-01,9.99999e-01,9.99999e-01,9.99612e-01,4.26870e-01,9.99998e-01
6.685968902e-01,4.34037e-01,9.99999e-01,9.99999e-01,9.99835e-01,4.34108e-01,9.99999e-01
6.719398746e-01,4.41286e-01,9.99999e-01,9.99999e-01,9.99916e-01,4.41323e-01,9.99999e-01
6.752995740e-01,4.48492e-01,9.99999e-01,9.99999e-01,9.99955e-01,4.48511e-01,9.99999e-01
6.786760719e-01,4.55641e-01,9.99999e-01,9.99999e-01,9.99933e-01,4.55671e-01,9.99999e-01
6.820694522e-01,4.62748e-01,9.99999e-01,9.99999e-01,9.99886e-01,4.62801e-01,9.99998e-01
6.854797995e-01,4.69829e-01,9.99999e-01,9.99999e-01,9.99854e-01,4.69898e-01,9.99998e-01
6.889071985e-01,4.76789e-01,9.99999e-01,9.99999e-01,9.99643e-01,4.76960e-01,9.99996e-01
6.923517345e-01,4.81191e-01,9.99999e-01,9.99999e-01,9.94250e-01,4.83986e-01,9.99972e-01
6.958134932e-01,4.89505e-01,9.99999e-01,9.99999e-01,9.97068e-01,4.90974e-01,9.99938e-01
6.992925606e-01,4.96480e-01,9.99999e-01,9.99999e-01,9.97158e-01,4.97921e-01,9.99944e-01
7.027890234e-01,5.03050e-01,9.99999e-01,9.99999e-01,9.96520e-01,5.04827e-01,9.99957e-01
7.063029686e-01,5.10181e-01,9.99999e-01,9.99999e-01,9.97072e-01,5.11689e-01,9.99978e-01
7.098344834e-01,5.17044e-01,9.99999e-01,9.99999e-01,9.97191e-01,5.18506e-01,9.99987e-01
7.133836558e-01,5.23273e-01,9.99999e-01,9.99999e-01,9.96209e-01,5.25277e-01,9.99975e-01
7.169505741e-01,5.15921e-01,9.99999e-01,9.99999e-01,9.69962e-01,5.32000e-01,9.99807e-01
7.205353270e-01,5.30670e-01,9.99999e-01,9.99999e-01,9.85476e-01,5.38673e-01,9.99661e-01
7.241380036e-01,5.34943e-01,9.99999e-01,9.99999e-01,9.81300e-01,5.45296e-01,9.99707e-01
7.277586936e-01,5.42426e-01,9.99999e-01,9.99999e-01,9.83126e-01,5.51867e-01,9.99760e-01
7.313974871e-01,5.48384e-01,9.99999e-01,9.99999e-01,9.82198e-01,5.58385e-01,9.99887e-01
7.350544745e-01,5.59309e-01,9.99999e-01,9.99999e-01,9.90229e-01,5.64849e-01,9.99960e-01
7.387297469e-01,5.67142e-01,9.99999e-01,9.99999e-01,9.92811e-01,5.71258e-01,9.99981e-01
7.424233956e-01,5.75580e-01,9.99999e-01,9.99999e-01,9.96486e-01,5.77611e-01,9.99996e-01
7.461355126e-01,5.82662e-01,9.99999e-01,9.99999e-01,9.97866e-01,5.83907e-01,9.99998e-01
7.498661902e-01,5.89561e-01,9.99999e-01,9.99999e-01,9.99009e-01,5.90146e-01,9.99999e-01
7.536155211e-01,5.96035e-01,9.99999e-01,9.99999e-01,9.99512e-01,5.96325e-01,9.99999e-01
7.573835987e-01,6.02295e-01,9.99999e-01,9.99999e-01,9.99748e-01,6.02446e-01,9.99999e-01
7.611705167e-01,6.08412e-01,9.99999e-01,9.99999e-01,9.99843e-01,6.08506e-01,9.99999e-01
7.649763693e-01,6.14446e-01,9.99999e-01,9.99999e-01,9.99901e-01,6.14506e-01,9.99999e-01
7.688012511e-01,6.20403e-01,9.99999e-01,9.99999e-01,9.99931e-01,6.20445e-01,9.99999e-01
7.726452574e-01,6.26288e-01,9.99999e-01,9.99999e-01,9.99943e-01,6.26323e-01,9.99999e-01
7.765084837e-01,6.32087e-01,9.99999e-01,9.99999e-01,9.99919e-01,6.32138e-01,9.99999e-01
7.803910261e-01,6.23238e-01,9.99999e-01,9.77361e-01,9.99651e-01,6.37891e-01,9.99999e-01
7.842929812e-01,5.85142e-01,9.99999e-01,9.10271e-01,9.98784e-01,6.43581e-01,9.99997e-01
7.882144461e-01,5.85027e-01,9.99999e-01,9.03339e-01,9.97518e-01,6.49208e-01,9.99982e-01
7.921555184e-01,6.16642e-01,9.99999e-01,9.43052e-01,9.98645e-01,6.54771e-01,9.99969e-01
7.961162960e-01,6.33567e-01,9.99999e-01,9.61897e-01,9.97579e-01,6.60271e-01,9.99971e-01
8.000968774e-01,6.49986e-01,9.99999e-01,9.79128e-01,9.97220e-01,6.65707e-01,9.99969e-01
8.040973618e-01,6.61959e-01,9.99999e-01,9.89182e-01,9.97215e-01,6.71079e-01,9.99976e-01
8.081178486e-01,6.68748e-01,9.99999e-01,9.95001e-01,9.93689e-01,6.76387e-01,9.99976e-01
8.121584379e-01,6.62801e-01,9.99999e-01,9.98469e-01,9.73941e-01,6.81631e-01,9.99911e-01
8.162192301e-01,6.65363e-01,9.99999e-01,9.99661e-01,9.69414e-01,6.86811e-01,9.99670e-01
8.203003262e-01,6.80802e-01,9.99999e-01,9.99994e-01,9.84305e-01,6.91927e-01,9.99613e-01
8.244018279e-01,6.81878e-01,9.99999e-01,9.99999e-01,9.78634e-01,6.96978e-01,9.99692e-01
8.285238370e-01,6.88849e-01,9.99999e-01,9.99999e-01,9.81549e-01,7.01966e-01,9.99758e-01
8.326664562e-01,6.93686e-01,9.99999e-01,9.99999e-01,9.81418e-01,7.06890e-01,9.99899e-01
8.368297885e-01,7.02295e-01,9.99999e-01,9.99999e-01,9.86738e-01,7.11750e-01,9.99976e-01
8.410139374e-01,7.10883e-01,9.99999e-01,9.99999e-01,9.92108e-01,7.16546e-01,9.99986e-01
8.452190071e-01,7.18483e-01,9.99999e-01,9.99999e-01,9.96130e-01,7.21279e-01,9.99991e-01
8.494451021e-01,7.24309e-01,9.99999e-01,9.99999e-01,9.97745e-01,7.25949e-01,9.99993e-01
8.536923276e-01,7.29583e-01,9.99999e-01,9.99999e-01,9.98670e-01,7.30556e-01,9.99995e-01
8.579607893e-01,7.34497e-01,9.99999e-01,9.99999e-01,9.99178e-01,7.35101e-01,9.99998e-01
8.622505932e-01,7.39198e-01,9.99999e-01,9.99999e-01,9.99479e-01,7.39583e-01,9.99999e-01
8.665618462e-01,7.01731e-01,9.99999e-01,9.43478e-01,9.99676e-01,7.44003e-01,9.99999e-01
8.708946554e-01,5.86900e-01,9.99999e-01,7.84530e-01,9.99629e-01,7.48362e-01,9.99999e-01
8.752491287e-01,6.20299e-01,9.99999e-01,8.24545e-01,9.99504e-01,7.52659e-01,9.99998e-01
8.796253743e-01,6.80964e-01,9.99999e-01,9.00290e-01,9.99311e-01,7.56895e-01,9.99997e-01
8.840235012e-01,7.20311e-01,9.99999e-01,9.47185e-01,9.99214e-01,7.61070e-01,9.99994e-01
8.884436187e-01,7.46907e-01,9.99999e-01,9.78963e-01,9.97081e-01,7.65186e-01,9.99985e-01
8.928858368e-01,7.39689e-01,9.99999e-01,9.91413e-01,9.69939e-01,7.69242e-01,9.99921e-01
8.973502660e-01,7.31104e-01,9.99999e-01,9.97920e-01,9.47833e-01,7.73238e-01,9.99598e-01
9.018370173e-01,7.55728e-01,9.99999e-01,9.99771e-01,9.73232e-01,7.77176e-01,9.99369e-01
9.063462024e-01,7.57376e-01,9.99999e-01,9.93911e-01,9.76046e-01,7.81056e-01,9.99446e-01
9.108779334e-01,7.45293e-01,9.99999e-01,9.86441e-01,9.63070e-01,7.84877e-01,9.99424e-01
9.154323231e-01,7.53015e-01,9.99999e-01,9.96837e-01,9.58269e-01,7.88642e-01,9.99524e-01
9.200094847e-01,7.30618e-01,9.99999e-01,9.52517e-01,9.67225e-01,7.92349e-01,9.99733e-01
9.246095321e-01,7.05849e-01,9.99999e-01,9.35215e-01,9.47695e-01,7.96000e-01,9.99693e-01
9.292325798e-01,5.31821e-01,9.99999e-01,9.48134e-01,6.99802e-01,7.99596e-01,9.98520e-01
9.338787427e-01,4.82268e-01,9.99999e-01,9.50452e-01,6.32837e-01,8.03136e-01,9.94663e-01
9.385481364e-01,6.43802e-01,9.99999e-01,9.63389e-01,8.32187e-01,8.06621e-01,9.94138e-01
9.432408771e-01,6.07748e-01,9.99999e-01,9.77509e-01,7.70772e-01,8.10052e-01,9.94941e-01
9.479570815e-01,5.57693e-01,9.99999e-01,9.88378e-01,6.96223e-01,8.13430e-01,9.95881e-01
9.526968669e-01,6.20798e-01,9.99999e-01,9.94391e-01,7.66032e-01,8.16755e-01,9.97485e-01
9.574603512e-01,6.41061e-01,9.99999e-01,9.97600e-01,7.84557e-01,8.20027e-01,9.98721e-01
9.622476530e-01,6.75465e-01,9.99999e-01,9.99251e-01,8.21805e-01,8.23247e-01,9.99115e-01
9.670588912e-01,7.37425e-01,9.99999e-01,9.99776e-01,8.93049e-01,8.26416e-01,9.99395e-01
9.718941857e-01,7.72686e-01,9.99999e-01,9.99984e-01,9.31897e-01,8.29534e-01,9.99554e-01
9.767536566e-01,7.84987e-01,9.99999e-01,9.99999e-01,9.43132e-01,8.32602e-01,9.99659e-01
9.816374249e-01,8.00167e-01,9.99999e-01,9.99999e-01,9.57684e-01,8.35620e-01,9.99881e-01
9.865456120e-01,8.16242e-01,9.99999e-01,9.99999e-01,9.73374e-01,8.38589e-01,9.99974e-01
9.914783401e-01,8.27586e-01,9.99999e-01,9.99999e-01,9.83459e-01,8.41510e-01,9.99992e-01
9.964357318e-01,8.36749e-01,9.99999e-01,9.99999e-01,9.90962e-01,8.44383e-01,9.99995e-01
1.001417910e+00,8.42611e-01,9.99999e-01,9.99999e-01,9.94578e-01,8.47209e-01,9.99993e-01
1.006425000e+00,8.47346e-01,9.99999e-01,9.99999e-01,9.96899e-01,8.49989e-01,9.99990e-01
1.011457125e+00,8.51078e-01,9.99999e-01,9.99999e-01,9.98079e-01,8.52722e-01,9.99991e-01
1.016514411e+00,8.54288e-01,9.99999e-01,9.99999e-01,9.98694e-01,8.55409e-01,9.99993e-01
1.021596983e+00,8.57123e-01,9.99999e-01,9.99963e-01,9.98958e-01,8.58052e-01,9.99993e-01
1.026704968e+00,8.57902e-01,9.99999e-01,9.97618e-01,9.99187e-01,8.60651e-01,9.99996e-01
1.031838492e+00,8.32960e-01,9.99999e-01,9.65515e-01,9.99410e-01,8.63206e-01,9.99998e-01
1.036997685e+00,2.01354e-01,9.99999e-01,2.32654e-01,9.99648e-01,8.65718e-01,9.99999e-01
1.042182673e+00,2.24657e-01,9.99999e-01,2.58866e-01,9.99579e-01,8.68187e-01,9.99999e-01
1.047393587e+00,2.18517e-01,9.99999e-01,2.51117e-01,9.99444e-01,8.70614e-01,9.99999e-01
1.052630555e+00,2.07954e-02,9.99999e-01,2.38347e-02,9.99236e-01,8.73000e-01,9.99999e-01
1.057893707e+00,4.34327e-02,9.99999e-01,4.96653e-02,9.98723e-01,8.75345e-01,9.99999e-01
1.063183176e+00,9.80610e-02,9.99999e-01,1.11915e-01,9.97901e-01,8.77650e-01,9.99998e-01
1.068499092e+00,1.98774e-01,9.99999e-01,2.26608e-01,9.96493e-01,8.79916e-01,9.99997e-01
1.073841587e+00,3.45732e-01,9.99999e-01,3.93374e-01,9.95887e-01,8.82142e-01,9.99994e-01
1.079210795e+00,4.87919e-01,9.99999e-01,5.54490e-01,9.94750e-01,8.84330e-01,9.99985e-01
1.084606849e+00,6.37434e-01,9.99999e-01,7.24682e-01,9.92046e-01,8.86480e-01,9.99965e-01
1.090029883e+00,7.43369e-01,9.99999e-01,8.46177e-01,9.88517e-01,8.88592e-01,9.99929e-01
1.095480033e+00,7.95157e-01,9.99999e-01,9.21177e-01,9.69075e-01,8.90668e-01,9.99873e-01
1.100957433e+00,7.92195e-01,9.99999e-01,9.61238e-01,9.23168e-01,8.92707e-01,9.99767e-01
1.106462220e+00,7.17298e-01,9.99999e-01,9.83817e-01,8.14906e-01,8.94710e-01,9.99605e-01
1.111994531e+00,5.79617e-01,9.99999e-01,9.93972e-01,6.50819e-01,8.96679e-01,9.98953e-01
1.117554504e+00,4.45568e-01,9.99999e-01,9.98533e-01,4.98356e-01,8.98612e-01,9.96228e-01
1.123142276e+00,5.33071e-01,9.99999e-01,9.99903e-01,5.97328e-01,9.00512e-01,9.91079e-01
1.128757988e+00,6.42751e-01,9.99999e-01,9.99999e-01,7.19707e-01,9.02378e-01,9.89687e-01
1.134401778e+00,4.22706e-01,9.99999e-01,9.99999e-01,4.71624e-01,9.04211e-01,9.91224e-01
1.140073787e+00,7.40286e-01,9.99999e-01,9.99999e-01,8.22856e-01,9.06011e-01,9.92981e-01
1.145774156e+00,5.99892e-01,9.99999e-01,9.99999e-01,6.65108e-01,9.07779e-01,9.93573e-01
1.151503026e+00,5.74119e-01,9.99999e-01,9.99999e-01,6.33506e-01,9.09515e-01,9.96414e-01
1.157260541e+00,6.24626e-01,9.99999e-01,9.99999e-01,6.86219e-01,9.11221e-01,9.98926e-01
1.163046844e+00,6.91664e-01,9.99999e-01,9.99999e-01,7.57889e-01,9.12896e-01,9.99695e-01
1.168862078e+00,7.54797e-01,9.99999e-01,9.99999e-01,8.25458e-01,9.14540e-01,9.99842e-01
1.174706389e+00,8.13712e-01,9.99999e-01,9.99999e-01,8.88364e-01,9.16156e-01,9.99791e-01
1.180579921e+00,8.53721e-01,9.99999e-01,9.99999e-01,9.30533e-01,9.17742e-01,9.99685e-01
1.186482820e+00,8.82373e-01,9.99999e-01,9.99994e-01,9.60146e-01,9.19299e-01,9.99677e-01
1.192415234e+00,8.91357e-01,9.99999e-01,9.91430e-01,9.76539e-01,9.20828e-01,9.99758e-01
1.198377311e+00,5.20734e-01,9.99999e-01,5.74275e-01,9.80153e-01,9.22330e-01,9.99770e-01
1.204369197e+00,8.31139e-08,9.99999e-01,9.09767e-08,9.81217e-01,9.23804e-01,9.99799e-01
1.210391043e+00,4.14638e-26,9.99999e-01,4.52720e-26,9.82041e-01,9.25251e-01,9.99873e-01
1.216442998e+00,7.79086e-23,9.99999e-01,8.48850e-23,9.84734e-01,9.26672e-01,9.99922e-01
1.222525213e+00,1.63908e-22,9.99999e-01,1.77720e-22,9.88090e-01,9.28067e-01,9.99951e-01
1.228637839e+00,2.21372e-17,9.99999e-01,2.39587e-17,9.91711e-01,9.29437e-01,9.99977e-01
