#,Wave/freq,Total,N2,CO2,H2O,Rayleigh,CIA
4.000000000e-01,2.67276e-23,9.99999e-01,9.99999e-01,9.99899e-01,2.67303e-23,9.99999e-01
4.020000000e-01,7.46959e-23,9.99999e-01,9.99999e-01,9.99937e-01,7.47005e-23,9.99999e-01
4.040100000e-01,2.04347e-22,9.99999e-01,9.99999e-01,9.99973e-01,2.04353e-22,9.99999e-01
4.060300500e-01,5.48026e-22,9.99999e-01,9.99999e-01,9.99993e-01,5.48030e-22,9.99999e-01
4.080602003e-01,1.44133e-21,9.99999e-01,9.99999e-01,9.99997e-01,1.44134e-21,9.99999e-01
4.101005013e-01,3.71904e-21,9.99999e-01,9.99999e-01,9.99999e-01,3.71904e-21,9.99999e-01
4.121510038e-01,9.41812e-21,9.99999e-01,9.99999e-01,9.99995e-01,9.41816e-21,9.99999e-01
4.142117588e-01,2.34163e-20,9.99999e-01,9.99999e-01,9.99971e-01,2.34169e-20,9.99999e-01
4.162828176e-01,5.71777e-20,9.99999e-01,9.99999e-01,9.99875e-01,5.71847e-20,9.99999e-01
4.183642317e-01,1.37195e-19,9.99999e-01,9.99999e-01,9.99926e-01,1.37206e-19,9.99999e-01
4.204560528e-01,3.23546e-19,9.99999e-01,9.99999e-01,9.99954e-01,3.23560e-19,9.99999e-01
4.225583331e-01,7.50192e-19,9.99999e-01,9.99999e-01,9.99982e-01,7.50204e-19,9.99999e-01
4.246711247e-01,1.71074e-18,9.99999e-01,9.99999e-01,9.99985e-01,1.71076e-18,9.99999e-01
4.267944804e-01,3.83813e-18,9.99999e-01,9.99999e-01,9.99979e-01,3.83820e-18,9.99999e-01
4.289284528e-01,8.47477e-18,9.99999e-01,9.99999e-01,9.99984e-01,8.47490e-18,9.99999e-01
4.310730950e-01,1.84223e-17,9.99999e-01,9.99999e-01,9.99993e-01,1.84224e-17,9.99999e-01
4.332284605e-01,3.94363e-17,9.99999e-01,9.99999e-01,9.99997e-01,3.94364e-17,9.99999e-01
4.353946028e-01,8.31608e-17,9.99999e-01,9.99999e-01,9.99998e-01,8.31608e-17,9.99999e-01
4.375715758e-01,1.72796e-16,9.99999e-01,9.99999e-01,9.99986e-01,1.72799e-16,9.99999e-01
4.397594337e-01,3.53867e-16,9.99999e-01,9.99999e-01,9.99889e-01,3.53906e-16,9.99999e-01
4.419582309e-01,7.14236e-16,9.99999e-01,9.99999e-01,9.99438e-01,7.14637e-16,9.99999e-01
4.441680220e-01,1.42256e-15,9.99999e-01,9.99999e-01,9.99571e-01,1.42316e-15,9.99999e-01
4.463888621e-01,2.79460e-15,9.99999e-01,9.99999e-01,9.99551e-01,2.79586e-15,9.99999e-01
4.486208064e-01,5.41829e-15,9.99999e-01,9.99999e-01,9.99722e-01,5.41979e-15,9.99999e-01
4.508639105e-01,1.03685e-14,9.99999e-01,9.99999e-01,9.99869e-01,1.03698e-14,9.99999e-01
4.531182300e-01,1.95872e-14,9.99999e-01,9.99999e-01,9.99948e-01,1.95882e-14,9.99999e-01
4.553838212e-01,3.65382e-14,9.99999e-01,9.99999e-01,9.99964e-01,3.65394e-14,9.99999e-01
4.576607403e-01,6.73246e-14,9.99999e-01,9.99999e-01,9.99983e-01,6.73257e-14,9.99999e-01
4.599490440e-01,1.22561e-13,9.99999e-01,9.99999e-01,9.99988e-01,1.22562e-13,9.99999e-01
4.622487892e-01,2.20492e-13,9.99999e-01,9.99999e-01,9.99997e-01,2.20492e-13,9.99999e-01
4.645600332e-01,3.92093e-13,9.99999e-01,9.99999e-01,9.99991e-01,3.92096e-13,9.99999e-01
4.668828333e-01,6.89281e-13,9.99999e-01,9.99999e-01,9.99866e-01,6.89373e-13,9.99999e-01
4.692172475e-01,1.19826e-12,9.99999e-01,9.99999e-01,9.99718e-01,1.19860e-12,9.99999e-01
4.715633337e-01,2.06096e-12,9.99999e-01,9.99999e-01,9.99815e-01,2.06134e-12,9.99999e-01
4.739211504e-01,3.50670e-12,9.99999e-01,9.99999e-01,9.99824e-01,3.50732e-12,9.99999e-01
4.762907561e-01,5.90474e-12,9.99999e-01,9.99999e-01,9.99908e-01,5.90527e-12,9.99999e-01
4.786722099e-01,9.84056e-12,9.99999e-01,9.99999e-01,9.99962e-01,9.84093e-12,9.99999e-01
4.810655710e-01,1.62348e-11,9.99999e-01,9.99999e-01,9.99988e-01,1.62349e-11,9.99999e-01
4.834708988e-01,2.65169e-11,9.99999e-01,9.99999e-01,9.99889e-01,2.65199e-11,9.99999e-01
4.858882533e-01,4.28939e-11,9.99999e-01,9.99999e-01,9.99801e-01,4.29024e-11,9.99999e-01
4.883176946e-01,6.87374e-11,9.99999e-01,9.99999e-01,9.99832e-01,6.87489e-11,9.99999e-01
4.907592831e-01,1.09129e-10,9.99999e-01,9.99999e-01,9.99849e-01,1.09145e-10,9.99999e-01
4.932130795e-01,1.71685e-10,9.99999e-01,9.99999e-01,9.99892e-01,1.71704e-10,9.99999e-01
4.956791449e-01,2.67696e-10,9.99999e-01,9.99999e-01,9.99943e-01,2.67711e-10,9.99999e-01
4.981575406e-01,4.13638e-10,9.99999e-01,9.99999e-01,9.99715e-01,4.13756e-10,9.99999e-01
5.006483283e-01,6.33523e-10,9.99999e-01,9.99999e-01,9.99258e-01,6.33996e-10,9.99994e-01
5.031515699e-01,9.59694e-10,9.99999e-01,9.99999e-01,9.96279e-01,9.63314e-10,9.99960e-01
5.056673278e-01,1.44874e-09,9.99999e-01,9.99999e-01,9.98041e-01,1.45165e-09,9.99954e-01
5.081956644e-01,2.16447e-09,9.99999e-01,9.99999e-01,9.97531e-01,2.16988e-09,9.99972e-01
5.107366428e-01,3.21245e-09,9.99999e-01,9.99999e-01,9.98334e-01,3.21783e-09,9.99994e-01
5.132903260e-01,4.73039e-09,9.99999e-01,9.99999e-01,9.99049e-01,4.73489e-09,9.99998e-01
5.158567776e-01,6.91144e-09,9.99999e-01,9.99999e-01,9.99598e-01,6.91421e-09,9.99999e-01
5.184360615e-01,1.00198e-08,9.99999e-01,9.99999e-01,9.99839e-01,1.00214e-08,9.99999e-01
5.210282418e-01,1.44179e-08,9.99999e-01,9.99999e-01,9.99939e-01,1.44188e-08,9.99999e-01
5.236333830e-01,2.05923e-08,9.99999e-01,9.99999e-01,9.99757e-01,2.05973e-08,9.99997e-01
5.262515499e-01,2.92122e-08,9.99999e-01,9.99999e-01,9.99848e-01,2.92167e-08,9.99997e-01
5.288828077e-01,4.11521e-08,9.99999e-01,9.99999e-01,9.99859e-01,4.11580e-08,9.99997e-01
5.315272217e-01,5.75816e-08,9.99999e-01,9.99999e-01,9.99878e-01,5.75886e-08,9.99999e-01
5.341848578e-01,8.00393e-08,9.99999e-01,9.99999e-01,9.99919e-01,8.00457e-08,9.99999e-01
5.368557821e-01,1.10507e-07,9.99999e-01,9.99999e-01,9.99715e-01,1.10539e-07,9.99998e-01
5.395400610e-01,1.51520e-07,9.99999e-01,9.99999e-01,9.98968e-01,1.51678e-07,9.99989e-01
5.422377613e-01,2.06555e-07,9.99999e-01,9.99999e-01,9.98688e-01,2.06831e-07,9.99975e-01
5.449489501e-01,2.79965e-07,9.99999e-01,9.99999e-01,9.98770e-01,2.80317e-07,9.99974e-01
5.476736949e-01,3.77225e-07,9.99999e-01,9.99999e-01,9.98920e-01,3.77637e-07,9.99987e-01
5.504120634e-01,5.05361e-07,9.99999e-01,9.99999e-01,9.99216e-01,5.05758e-07,9.99996e-01
5.531641237e-01,6.73185e-07,9.99999e-01,9.99999e-01,9.99605e-01,6.73451e-07,9.99999e-01
5.559299443e-01,8.91517e-07,9.99999e-01,9.99999e-01,9.99809e-01,8.91686e-07,9.99999e-01
5.587095940e-01,1.17397e-06,9.99999e-01,9.99999e-01,9.99879e-01,1.17411e-06,9.99999e-01
5.615031420e-01,1.53741e-06,9.99999e-01,9.99999e-01,9.99866e-01,1.53762e-06,9.99999e-01
5.643106577e-01,2.00265e-06,9.99999e-01,9.99999e-01,9.99846e-01,2.00296e-06,9.99998e-01
5.671322110e-01,2.59064e-06,9.99999e-01,9.99999e-01,9.98126e-01,2.59554e-06,9.99983e-01
5.699678720e-01,3.33963e-06,9.99999e-01,9.99999e-01,9.98064e-01,3.34627e-06,9.99949e-01
5.728177114e-01,4.28361e-06,9.99999e-01,9.99999e-01,9.97959e-01,4.29254e-06,9.99957e-01
5.756818000e-01,5.46902e-06,9.99999e-01,9.99999e-01,9.98132e-01,5.47939e-06,9.99975e-01
5.785602090e-01,6.94938e-06,9.99999e-01,9.99999e-01,9.98375e-01,6.96073e-06,9.99992e-01
5.814530100e-01,8.78645e-06,9.99999e-01,9.99999e-01,9.98364e-01,8.80087e-06,9.99996e-01
5.843602750e-01,1.10541e-05,9.99999e-01,9.99999e-01,9.98035e-01,1.10760e-05,9.99988e-01
5.872820764e-01,1.36419e-05,9.99999e-01,9.99999e-01,9.83234e-01,1.38762e-05,9.99881e-01
5.902184868e-01,1.69531e-05,9.99999e-01,9.99999e-01,9.79868e-01,1.73070e-05,9.99678e-01
5.931695792e-01,2.11785e-05,9.99999e-01,9.99999e-01,9.85712e-01,2.14921e-05,9.99690e-01
5.961354271e-01,2.61553e-05,9.99999e-01,9.99999e-01,9.84370e-01,2.65753e-05,9.99821e-01
5.991161043e-01,3.23479e-05,9.99999e-01,9.99999e-01,9.88586e-01,3.27232e-05,9.99944e-01
6.021116848e-01,3.98677e-05,9.99999e-01,9.99999e-01,9.93517e-01,4.01280e-05,9.99993e-01
6.051222432e-01,4.88498e-05,9.99999e-01,9.99999e-01,9.96716e-01,4.90107e-05,9.99999e-01
6.081478544e-01,5.95390e-05,9.99999e-01,9.99999e-01,9.98581e-01,5.96236e-05,9.99999e-01
6.111885937e-01,7.22112e-05,9.99999e-01,9.99999e-01,9.99401e-01,7.22544e-05,9.99999e-01
6.142445367e-01,8.72058e-05,9.99999e-01,9.99999e-01,9.99731e-01,8.72292e-05,9.99999e-01
6.173157594e-01,1.04901e-04,9.99999e-01,9.99999e-01,9.99851e-01,1.04917e-04,9.99999e-01
6.204023382e-01,1.25715e-04,9.99999e-01,9.99999e-01,9.99873e-01,1.25731e-04,9.99999e-01
6.235043498e-01,1.50052e-04,9.99999e-01,9.99999e-01,9.99436e-01,1.50137e-04,9.99998e-01
6.266218716e-01,1.78127e-04,9.99999e-01,9.99999e-01,9.97071e-01,1.78654e-04,9.99978e-01
6.297549810e-01,2.11621e-04,9.99999e-01,9.99999e-01,9.98924e-01,2.11857e-04,9.99958e-01
6.329037559e-01,2.49850e-04,9.99999e-01,9.99999e-01,9.97883e-01,2.50388e-04,9.99966e-01
6.360682746e-01,2.94411e-04,9.99999e-01,9.99999e-01,9.98188e-01,2.94951e-04,9.99980e-01
6.392486160e-01,3.45509e-04,9.99999e-01,9.99999e-01,9.97658e-01,3.46323e-04,9.99990e-01
6.424448591e-01,4.04067e-04,9.99999e-01,9.99999e-01,9.96840e-01,4.05354e-04,9.99984e-01
6.456570834e-01,4.66038e-04,9.99999e-01,9.99999e-01,9.85419e-01,4.72975e-04,9.99911e-01
6.488853688e-01,5.44262e-04,9.99999e-01,9.99999e-01,9.89434e-01,5.50197e-04,9.99773e-01
6.521297956e-01,6.31135e-04,9.99999e-01,9.99999e-01,9.89239e-01,6.38118e-04,9.99813e-01
6.553904446e-01,7.29867e-04,9.99999e-01,9.99999e-01,9.89216e-01,7.37925e-04,9.99860e-01
6.586673968e-01,8.43035e-04,9.99999e-01,9.99999e-01,9.90806e-01,8.50897e-04,9.99953e-01
6.619607338e-01,9.73375e-04,9.99999e-01,9.99999e-01,9.94866e-01,9.78407e-04,9.99989e-01
6.652705375e-01,1.11846e-03,9.99999e-01,9.99999e-01,9.96916e-01,1.12193e-03,9.99994e-01
6.685968902e-01,1.28134e-03,9.99999e-01,9.99999e-01,9.98689e-01,1.28302e-03,9.99998e-01
6.719398746e-01,1.46240e-03,9.99999e-01,9.99999e-01,9.99336e-01,1.46337e-03,9.99999e-01
6.752995740e-01,1.66415e-03,9.99999e-01,9.99999e-01,9.99648e-01,1.66474e-03,9.99999e-01
6.786760719e-01,1.88800e-03,9.99999e-01,9.99999e-01,9.99473e-01,1.88899e-03,9.99998e-01
6.820694522e-01,2.13618e-03,9.99999e-01,9.99999e-01,9.99096e-01,2.13812e-03,9.99994e-01
6.854797995e-01,2.41137e-03,9.99999e-01,9.99999e-01,9.98844e-01,2.41418e-03,9.99989e-01
6.889071985e-01,2.71159e-03,9.99999e-01,9.99999e-01,9.97165e-01,2.71936e-03,9.99974e-01
6.923517345e-01,2.91849e-03,9.99999e-01,9.99999e-01,9.55233e-01,3.05593e-03,9.99781e-01
6.958134932e-01,3.34582e-03,9.99999e-01,9.99999e-01,9.77001e-01,3.42624e-03,9.99516e-01
6.992925606e-01,3.74528e-03,9.99999e-01,9.99999e-01,9.77602e-01,3.83275e-03,9.99564e-01
7.027890234e-01,4.15961e-03,9.99999e-01,9.99999e-01,9.72644e-01,4.27802e-03,9.99667e-01
7.063029686e-01,4.65387e-03,9.99999e-01,9.99999e-01,9.76908e-01,4.76465e-03,9.99834e-01
7.098344834e-01,5.17746e-03,9.99999e-01,9.99999e-01,9.77828e-01,5.29537e-03,9.99901e-01
7.133836558e-01,5.69724e-03,9.99999e-01,9.99999e-01,9.70272e-01,5.87293e-03,9.99805e-01
7.169505741e-01,5.12362e-03,9.99999e-01,9.99999e-01,7.89433e-01,6.50018e-03,9.98470e-01
7.205353270e-01,6.38702e-03,9.99999e-01,9.99999e-01,8.91959e-01,7.18002e-03,9.97303e-01
7.241380036e-01,6.81003e-03,9.99999e-01,9.99999e-01,8.62360e-01,7.91539e-03,9.97671e-01
7.277586936e-01,7.60716e-03,9.99999e-01,9.99999e-01,8.75119e-01,8.70929e-03,9.98095e-01
7.313974871e-01,8.29402e-03,9.99999e-01,9.99999e-01,8.67919e-01,9.56474e-03,9.99107e-01
7.350544745e-01,9.69733e-03,9.99999e-01,9.99999e-01,9.25181e-01,1.04848e-02,9.99689e-01
7.387297469e-01,1.08317e-02,9.99999e-01,9.99999e-01,9.44275e-01,1.14725e-02,9.99857e-01
7.424233956e-01,1.21844e-02,9.99999e-01,9.99999e-01,9.72367e-01,1.25310e-02,9.99974e-01
7.461355126e-01,1.34327e-02,9.99999e-01,9.99999e-01,9.83131e-01,1.36633e-02,9.99995e-01
7.498661902e-01,1.47554e-02,9.99999e-01,9.99999e-01,9.92135e-01,1.48724e-02,9.99997e-01
7.536155211e-01,1.60988e-02,9.99999e-01,9.99999e-01,9.96122e-01,1.61615e-02,9.99998e-01
7.573835987e-01,1.74985e-02,9.99999e-01,9.99999e-01,9.98003e-01,1.75335e-02,9.99999e-01
7.611705167e-01,1.89678e-02,9.99999e-01,9.99999e-01,9.98758e-01,1.89914e-02,9.99999e-01
7.649763693e-01,2.05221e-02,9.99999e-01,9.99999e-01,9.99220e-01,2.05381e-02,9.99999e-01
7.688012511e-01,2.21643e-02,9.99999e-01,9.99999e-01,9.99456e-01,2.21764e-02,9.99999e-01
7.726452574e-01,2.38984e-02,9.99999e-01,9.99999e-01,9.99552e-01,2.39091e-02,9.99999e-01
7.765084837e-01,2.57224e-02,9.99999e-01,9.99999e-01,9.99358e-01,2.57390e-02,9.99998e-01
7.803910261e-01,2.41632e-02,9.99999e-01,8.75472e-01,9.97227e-01,2.76685e-02,9.99996e-01
7.842929812e-01,1.49961e-02,9.99999e-01,5.09033e-01,9.90353e-01,2.97003e-02,9.99981e-01
7.882144461e-01,1.53875e-02,9.99999e-01,4.91715e-01,9.80391e-01,3.18366e-02,9.99864e-01
7.921555184e-01,2.14779e-02,9.99999e-01,6.36549e-01,9.89264e-01,3.40799e-02,9.99763e-01
7.961162960e-01,2.63192e-02,9.99999e-01,7.36100e-01,9.80879e-01,3.64321e-02,9.99775e-01
8.000968774e-01,3.21997e-02,9.99999e-01,8.46381e-01,9.78052e-01,3.88955e-02,9.99760e-01
8.040973618e-01,3.72065e-02,9.99999e-01,9.17289e-01,9.78023e-01,4.14717e-02,9.99817e-01
8.081178486e-01,4.03637e-02,9.99999e-01,9.60912e-01,9.51010e-01,4.41626e-02,9.99815e-01
8.121584379e-01,3.77257e-02,9.99999e-01,9.87893e-01,8.13147e-01,4.69698e-02,9.99301e-01
8.162192301e-01,3.89695e-02,9.99999e-01,9.97311e-01,7.85021e-01,4.98946e-02,9.97376e-01
8.203003262e-01,4.68366e-02,9.99999e-01,9.99963e-01,8.87483e-01,5.29383e-02,9.96928e-01
8.244018279e-01,4.76669e-02,9.99999e-01,9.99999e-01,8.51728e-01,5.61020e-02,9.97554e-01
8.285238370e-01,5.11895e-02,9.99999e-01,9.99999e-01,8.63626e-01,5.93867e-02,9.98079e-01
8.326664562e-01,5.41570e-02,9.99999e-01,9.99999e-01,8.63152e-01,6.27931e-02,9.99204e-01
8.368297885e-01,5.96548e-02,9.99999e-01,9.99999e-01,8.99638e-01,6.63218e-02,9.99817e-01
8.410139374e-01,6.56983e-02,9.99999e-01,9.99999e-01,9.39005e-01,6.99731e-02,9.99893e-01
8.452190071e-01,7.15017e-02,9.99999e-01,9.99999e-01,9.69609e-01,7.37474e-02,9.99936e-01
8.494451021e-01,7.62567e-02,9.99999e-01,9.99999e-01,9.82173e-01,7.76447e-02,9.99948e-01
8.536923276e-01,8.08013e-02,9.99999e-01,9.99999e-01,9.89457e-01,8.16648e-02,9.99968e-01
8.579607893e-01,8.52469e-02,9.99999e-01,9.99999e-01,9.93474e-01,8.58074e-02,9.99992e-01
8.622505932e-01,8.96992e-02,9.99999e-01,9.99999e-01,9.95860e-01,9.00721e-02,9.99998e-01
8.665618462e-01,7.88910e-02,9.99999e-01,8.37182e-01,9.97428e-01,9.44582e-02,9.99998e-01
8.708946554e-01,1.92096e-02,9.99999e-01,1.94611e-01,9.97048e-01,9.89649e-02,9.99997e-01
8.752491287e-01,2.55763e-02,9.99999e-01,2.47784e-01,9.96056e-01,1.03591e-01,9.99995e-01
8.796253743e-01,4.89306e-02,9.99999e-01,4.53865e-01,9.94524e-01,1.08336e-01,9.99987e-01
8.840235012e-01,7.37626e-02,9.99999e-01,6.55465e-01,9.93754e-01,1.13198e-01,9.99961e-01
8.884436187e-01,9.77204e-02,9.99999e-01,8.45460e-01,9.77128e-01,1.18175e-01,9.99891e-01
8.928858368e-01,9.10554e-02,9.99999e-01,9.33813e-01,7.89247e-01,1.23267e-01,9.99376e-01
8.973502660e-01,8.35944e-02,9.99999e-01,9.83586e-01,6.62654e-01,1.28471e-01,9.96809e-01
9.018370173e-01,1.07929e-01,9.99999e-01,9.98183e-01,8.12066e-01,1.33785e-01,9.94988e-01
9.063462024e-01,1.10356e-01,9.99999e-01,9.54256e-01,8.28925e-01,1.39208e-01,9.95596e-01
9.108779334e-01,9.72670e-02,9.99999e-01,8.97617e-01,7.47849e-01,1.44737e-01,9.95424e-01
9.154323231e-01,1.05137e-01,9.99999e-01,9.75214e-01,7.17996e-01,1.50369e-01,9.96216e-01
9.200094847e-01,9.35398e-02,9.99999e-01,7.42892e-01,7.73042e-01,1.56104e-01,9.97880e-01
9.246095321e-01,6.67442e-02,9.99999e-01,5.92323e-01,6.77303e-01,1.61936e-01,9.97558e-01
9.292325798e-01,1.23785e-02,9.99999e-01,6.69028e-01,1.00325e-01,1.67866e-01,9.88266e-01
9.338787427e-01,6.08908e-03,9.99999e-01,6.75045e-01,4.92428e-02,1.73889e-01,9.58235e-01
9.385481364e-01,3.94117e-02,9.99999e-01,7.46211e-01,2.92394e-01,1.80002e-01,9.54209e-01
9.432408771e-01,2.98013e-02,9.99999e-01,8.34832e-01,1.93697e-01,1.86203e-01,9.60369e-01
9.479570815e-01,1.71822e-02,9.99999e-01,9.11200e-01,9.96823e-02,1.92490e-01,9.67625e-01
9.526968669e-01,3.12781e-02,9.99999e-01,9.56319e-01,1.66074e-01,1.98857e-01,9.80126e-01
9.574603512e-01,3.58817e-02,9.99999e-01,9.81065e-01,1.79170e-01,2.05304e-01,9.89855e-01
9.622476530e-01,5.01376e-02,9.99999e-01,9.94060e-01,2.39467e-01,2.11826e-01,9.92973e-01
9.670588912e-01,9.38705e-02,9.99999e-01,9.98220e-01,4.32455e-01,2.18420e-01,9.95189e-01
9.718941857e-01,1.29656e-01,9.99999e-01,9.99877e-01,5.78135e-01,2.25083e-01,9.96456e-01
9.767536566e-01,1.46501e-01,9.99999e-01,9.99999e-01,6.33697e-01,2.31812e-01,9.97290e-01
9.816374249e-01,1.69656e-01,9.99999e-01,9.99999e-01,7.11706e-01,2.38603e-01,9.99061e-01
9.865456120e-01,1.98223e-01,9.99999e-01,9.99999e-01,8.07736e-01,2.45453e-01,9.99804e-01
9.914783401e-01,2.21017e-01,9.99999e-01,9.99999e-01,8.75851e-01,2.52359e-01,9.99945e-01
9.964357318e-01,2.41246e-01,9.99999e-01,9.99999e-01,9.30342e-01,2.59316e-01,9.99967e-01
1.001417910e+00,2.55027e-01,9.99999e-01,9.99999e-01,9.57631e-01,2.66323e-01,9.99951e-01
1.006425000e+00,2.66674e-01,9.99999e-01,9.99999e-01,9.75554e-01,2.73374e-01,9.99930e-01
1.011457125e+00,2.76187e-01,9.99999e-01,9.99999e-01,9.84799e-01,2.80468e-01,9.99935e-01
1.016514411e+00,2.84608e-01,9.99999e-01,9.99999e-01,9.89639e-01,2.87600e-01,9.99954e-01
1.021596983e+00,2.92232e-01,9.99999e-01,9.99708e-01,9.91729e-01,2.94767e-01,9.99955e-01
1.026704968e+00,2.94436e-01,9.99999e-01,9.81389e-01,9.93540e-01,3.01966e-01,9.99971e-01
1.031838492e+00,2.67431e-01,9.99999e-01,8.68721e-01,9.95312e-01,3.09194e-01,9.99991e-01
1.036997685e+00,8.92332e-03,9.99999e-01,2.82577e-02,9.97207e-01,3.16446e-01,9.99998e-01
1.042182673e+00,1.25070e-04,9.99999e-01,3.87281e-04,9.96657e-01,3.23720e-01,9.99998e-01
1.047393587e+00,3.59250e-04,9.99999e-01,1.08918e-03,9.95578e-01,3.31013e-01,9.99998e-01
1.052630555e+00,7.41145e-10,9.99999e-01,2.19883e-09,9.93929e-01,3.38321e-01,9.99997e-01
1.057893707e+00,2.81366e-09,9.99999e-01,8.17951e-09,9.89869e-01,3.45642e-01,9.99996e-01
1.063183176e+00,5.02512e-07,9.99999e-01,1.43632e-06,9.83406e-01,3.52972e-01,9.99990e-01
1.068499092e+00,1.04397e-05,9.99999e-01,2.94251e-05,9.72421e-01,3.60307e-01,9.99980e-01
1.073841587e+00,3.84025e-04,9.99999e-01,1.06699e-03,9.67791e-01,3.67646e-01,9.99958e-01
1.079210795e+00,5.17560e-03,9.99999e-01,1.42286e-02,9.59007e-01,3.74985e-01,9.99888e-01
1.084606849e+00,3.10778e-02,9.99999e-01,8.57058e-02,9.38582e-01,3.82321e-01,9.99731e-01
1.090029883e+00,9.84099e-02,9.99999e-01,2.73902e-01,9.12717e-01,3.89651e-01,9.99443e-01
1.095480033e+00,1.64868e-01,9.99999e-01,5.26236e-01,7.80496e-01,3.96973e-01,9.98993e-01
1.100957433e+00,1.61521e-01,9.99999e-01,7.31714e-01,5.38874e-01,4.04284e-01,9.98148e-01
1.106462220e+00,8.32283e-02,9.99999e-01,8.78639e-01,2.26907e-01,4.11581e-01,9.96860e-01
1.111994531e+00,1.98332e-02,9.99999e-01,9.53064e-01,4.95304e-02,4.18862e-01,9.91688e-01
1.117554504e+00,4.04931e-03,9.99999e-01,9.88395e-01,9.84903e-03,4.26124e-01,9.70317e-01
1.123142276e+00,1.82710e-02,9.99999e-01,9.99239e-01,4.52857e-02,4.33365e-01,9.31038e-01
1.128757988e+00,4.32818e-02,9.99999e-01,9.99999e-01,1.06703e-01,4.40582e-01,9.20662e-01
1.134401778e+00,2.09413e-02,9.99999e-01,9.99999e-01,5.01730e-02,4.47773e-01,9.32125e-01
1.140073787e+00,1.04030e-01,9.99999e-01,9.99999e-01,2.41879e-01,4.54936e-01,9.45388e-01
1.145774156e+00,3.03594e-02,9.99999e-01,9.99999e-01,6.91689e-02,4.62069e-01,9.49893e-01
1.151503026e+00,2.32640e-02,9.99999e-01,9.99999e-01,5.10260e-02,4.69169e-01,9.71769e-01
1.157260541e+00,3.08811e-02,9.99999e-01,9.99999e-01,6.54017e-02,4.76235e-01,9.91473e-01
1.163046844e+00,6.30763e-02,9.99999e-01,9.99999e-01,1.30838e-01,4.83265e-01,9.97575e-01
1.168862078e+00,1.12458e-01,9.99999e-01,9.99999e-01,2.29673e-01,4.90257e-01,9.98750e-01
1.174706389e+00,1.98963e-01,9.99999e-01,9.99999e-01,4.00824e-01,4.97208e-01,9.98343e-01
1.180579921e+00,2.86747e-01,9.99999e-01,9.99999e-01,5.70235e-01,5.04118e-01,9.97496e-01
1.186482820e+00,3.69510e-01,9.99999e-01,9.99955e-01,7.25017e-01,5.10985e-01,9.97430e-01
1.192415234e+00,4.02973e-01,9.99999e-01,9.38598e-01,8.28014e-01,5.17807e-01,9.98075e-01
1.198377311e+00,2.21086e-01,9.99999e-01,4.81746e-01,8.52804e-01,5.24582e-01,9.98173e-01
1.204369197e+00,1.43461e-46,9.99999e-01,2.95093e-46,8.60892e-01,5.31310e-01,9.98408e-01
1.210391043e+00,1.48184e-192,9.99999e-01,2.98736e-192,8.66185e-01,5.37989e-01,9.98998e-01
1.216442998e+00,1.91503e-166,9.99999e-01,3.79622e-166,8.85207e-01,5.44617e-01,9.99386e-01
1.222525213e+00,6.43829e-164,9.99999e-01,1.22747e-163,9.09117e-01,5.51193e-01,9.99618e-01
1.228637839e+00,3.59174e-126,9.99999e-01,6.73478e-126,9.35891e-01,5.57717e-01,9.99822e-01
