#,Wave/freq,Total,N2,CO2,H2O,Rayleigh,CIA
4.000000000e-01,5.85616e-03,9.99999e-01,9.99999e-01,9.99989e-01,5.85622e-03,9.99999e-01
4.020000000e-01,6.48270e-03,9.99999e-01,9.99999e-01,9.99993e-01,6.48274e-03,9.99999e-01
4.040100000e-01,7.16111e-03,9.99999e-01,9.99999e-01,9.99996e-01,7.16113e-03,9.99999e-01
4.060300500e-01,7.89497e-03,9.99999e-01,9.99999e-01,9.99998e-01,7.89498e-03,9.99999e-01
4.080602003e-01,8.68727e-03,9.99999e-01,9.99999e-01,9.99999e-01,8.68727e-03,9.99999e-01
4.101005013e-01,9.54104e-03,9.99999e-01,9.99999e-01,9.99999e-01,9.54104e-03,9.99999e-01
4.121510038e-01,1.04593e-02,9.99999e-01,9.99999e-01,9.99999e-01,1.04593e-02,9.99999e-01
4.142117588e-01,1.14452e-02,9.99999e-01,9.99999e-01,9.99996e-01,1.14452e-02,9.99999e-01
4.162828176e-01,1.25016e-02,9.99999e-01,9.99999e-01,9.99987e-01,1.25017e-02,9.99999e-01
4.183642317e-01,1.36319e-02,9.99999e-01,9.99999e-01,9.99992e-01,1.36320e-02,9.99999e-01
4.204560528e-01,1.48390e-02,9.99999e-01,9.99999e-01,9.99995e-01,1.48391e-02,9.99999e-01
4.225583331e-01,1.61260e-02,9.99999e-01,9.99999e-01,9.99997e-01,1.61260e-02,9.99999e-01
4.246711247e-01,1.74957e-02,9.99999e-01,9.99999e-01,9.99998e-01,1.74957e-02,9.99999e-01
4.267944804e-01,1.89512e-02,9.99999e-01,9.99999e-01,9.99997e-01,1.89513e-02,9.99999e-01
4.289284528e-01,2.04955e-02,9.99999e-01,9.99999e-01,9.99997e-01,2.04955e-02,9.99999e-01
4.310730950e-01,2.21314e-02,9.99999e-01,9.99999e-01,9.99998e-01,2.21314e-02,9.99999e-01
4.332284605e-01,2.38615e-02,9.99999e-01,9.99999e-01,9.99999e-01,2.38615e-02,9.99999e-01
4.353946028e-01,2.56887e-02,9.99999e-01,9.99999e-01,9.99999e-01,2.56887e-02,9.99999e-01
4.375715758e-01,2.76156e-02,9.99999e-01,9.99999e-01,9.99998e-01,2.76156e-02,9.99999e-01
4.397594337e-01,2.96443e-02,9.99999e-01,9.99999e-01,9.99988e-01,2.96446e-02,9.99999e-01
4.419582309e-01,3.17764e-02,9.99999e-01,9.99999e-01,9.99945e-01,3.17781e-02,9.99999e-01
4.441680220e-01,3.40170e-02,9.99999e-01,9.99999e-01,9.99956e-01,3.40185e-02,9.99999e-01
4.463888621e-01,3.63662e-02,9.99999e-01,9.99999e-01,9.99955e-01,3.63678e-02,9.99999e-01
4.486208064e-01,3.88271e-02,9.99999e-01,9.99999e-01,9.99971e-01,3.88281e-02,9.99999e-01
4.508639105e-01,4.14008e-02,9.99999e-01,9.99999e-01,9.99986e-01,4.14013e-02,9.99999e-01
4.531182300e-01,4.40889e-02,9.99999e-01,9.99999e-01,9.99994e-01,4.40892e-02,9.99999e-01
4.553838212e-01,4.68930e-02,9.99999e-01,9.99999e-01,9.99996e-01,4.68932e-02,9.99999e-01
4.576607403e-01,4.98147e-02,9.99999e-01,9.99999e-01,9.99997e-01,4.98148e-02,9.99999e-01
4.599490440e-01,5.28553e-02,9.99999e-01,9.99999e-01,9.99998e-01,5.28553e-02,9.99999e-01
4.622487892e-01,5.60159e-02,9.99999e-01,9.99999e-01,9.99999e-01,5.60159e-02,9.99999e-01
4.645600332e-01,5.92973e-02,9.99999e-01,9.99999e-01,9.99998e-01,5.92973e-02,9.99999e-01
4.668828333e-01,6.26996e-02,9.99999e-01,9.99999e-01,9.99986e-01,6.27004e-02,9.99999e-01
4.692172475e-01,6.62240e-02,9.99999e-01,9.99999e-01,9.99971e-01,6.62258e-02,9.99999e-01
4.715633337e-01,6.98726e-02,9.99999e-01,9.99999e-01,9.99981e-01,6.98739e-02,9.99999e-01
4.739211504e-01,7.36436e-02,9.99999e-01,9.99999e-01,9.99982e-01,7.36449e-02,9.99999e-01
4.762907561e-01,7.75382e-02,9.99999e-01,9.99999e-01,9.99990e-01,7.75389e-02,9.99999e-01
4.786722099e-01,8.15554e-02,9.99999e-01,9.99999e-01,9.99995e-01,8.15557e-02,9.99999e-01
4.810655710e-01,8.56949e-02,9.99999e-01,9.99999e-01,9.99998e-01,8.56950e-02,9.99999e-01
4.834708988e-01,8.99555e-02,9.99999e-01,9.99999e-01,9.99989e-01,8.99565e-02,9.99999e-01
4.858882533e-01,9.43375e-02,9.99999e-01,9.99999e-01,9.99979e-01,9.43393e-02,9.99999e-01
4.883176946e-01,9.88412e-02,9.99999e-01,9.99999e-01,9.99983e-01,9.88428e-02,9.99999e-01
4.907592831e-01,1.03464e-01,9.99999e-01,9.99999e-01,9.99984e-01,1.03466e-01,9.99999e-01
4.932130795e-01,1.08206e-01,9.99999e-01,9.99999e-01,9.99988e-01,1.08208e-01,9.99999e-01
4.956791449e-01,1.13066e-01,9.99999e-01,9.99999e-01,9.99993e-01,1.13066e-01,9.99999e-01
4.981575406e-01,1.18038e-01,9.99999e-01,9.99999e-01,9.99971e-01,1.18041e-01,9.99999e-01
5.006483283e-01,1.23121e-01,9.99999e-01,9.99999e-01,9.99927e-01,1.23130e-01,9.99999e-01
5.031515699e-01,1.28283e-01,9.99999e-01,9.99999e-01,9.99632e-01,1.28330e-01,9.99995e-01
5.056673278e-01,1.33615e-01,9.99999e-01,9.99999e-01,9.99805e-01,1.33642e-01,9.99995e-01
5.081956644e-01,1.39027e-01,9.99999e-01,9.99999e-01,9.99754e-01,1.39062e-01,9.99996e-01
5.107366428e-01,1.44564e-01,9.99999e-01,9.99999e-01,9.99833e-01,1.44588e-01,9.99998e-01
5.132903260e-01,1.50203e-01,9.99999e-01,9.99999e-01,9.99904e-01,1.50217e-01,9.99999e-01
5.158567776e-01,1.55943e-01,9.99999e-01,9.99999e-01,9.99959e-01,1.55949e-01,9.99999e-01
5.184360615e-01,1.61777e-01,9.99999e-01,9.99999e-01,9.99983e-01,1.61779e-01,9.99999e-01
5.210282418e-01,1.67705e-01,9.99999e-01,9.99999e-01,9.99993e-01,1.67706e-01,9.99999e-01
5.236333830e-01,1.73722e-01,9.99999e-01,9.99999e-01,9.99975e-01,1.73726e-01,9.99999e-01
5.262515499e-01,1.79835e-01,9.99999e-01,9.99999e-01,9.99984e-01,1.79837e-01,9.99999e-01
5.288828077e-01,1.86034e-01,9.99999e-01,9.99999e-01,9.99985e-01,1.86037e-01,9.99999e-01
5.315272217e-01,1.92318e-01,9.99999e-01,9.99999e-01,9.99987e-01,1.92320e-01,9.99999e-01
5.341848578e-01,1.98685e-01,9.99999e-01,9.99999e-01,9.99991e-01,1.98686e-01,9.99999e-01
5.368557821e-01,2.05125e-01,9.99999e-01,9.99999e-01,9.99971e-01,2.05131e-01,9.99999e-01
5.395400610e-01,2.11629e-01,9.99999e-01,9.99999e-01,9.99899e-01,2.11651e-01,9.99998e-01
5.422377613e-01,2.18214e-01,9.99999e-01,9.99999e-01,9.99869e-01,2.18243e-01,9.99997e-01
5.449489501e-01,2.24877e-01,9.99999e-01,9.99999e-01,9.99878e-01,2.24904e-01,9.99997e-01
5.476736949e-01,2.31606e-01,9.99999e-01,9.99999e-01,9.99892e-01,2.31631e-01,9.99998e-01
5.504120634e-01,2.38402e-01,9.99999e-01,9.99999e-01,9.99921e-01,2.38421e-01,9.99999e-01
5.531641237e-01,2.45260e-01,9.99999e-01,9.99999e-01,9.99960e-01,2.45269e-01,9.99999e-01
5.559299443e-01,2.52169e-01,9.99999e-01,9.99999e-01,9.99980e-01,2.52173e-01,9.99999e-01
5.587095940e-01,2.59127e-01,9.99999e-01,9.99999e-01,9.99987e-01,2.59130e-01,9.99999e-01
5.615031420e-01,2.66131e-01,9.99999e-01,9.99999e-01,9.99986e-01,2.66135e-01,9.99999e-01
5.643106577e-01,2.73181e-01,9.99999e-01,9.99999e-01,9.99984e-01,2.73185e-01,9.99999e-01
5.671322110e-01,2.80227e-01,9.99999e-01,9.99999e-01,9.99820e-01,2.80278e-01,9.99997e-01
5.699678720e-01,2.87352e-01,9.99999e-01,9.99999e-01,9.99804e-01,2.87409e-01,9.99994e-01
5.728177114e-01,2.94515e-01,9.99999e-01,9.99999e-01,9.99798e-01,2.94575e-01,9.99995e-01
5.756818000e-01,3.01717e-01,9.99999e-01,9.99999e-01,9.99814e-01,3.01773e-01,9.99996e-01
5.785602090e-01,3.08950e-01,9.99999e-01,9.99999e-01,9.99838e-01,3.09000e-01,9.99998e-01
5.814530100e-01,3.16201e-01,9.99999e-01,9.99999e-01,9.99837e-01,3.16252e-01,9.99999e-01
5.843602750e-01,3.23463e-01,9.99999e-01,9.99999e-01,9.99807e-01,3.23526e-01,9.99998e-01
5.872820764e-01,3.30266e-01,9.99999e-01,9.99999e-01,9.98343e-01,3.30818e-01,9.99987e-01
5.902184868e-01,3.37433e-01,9.99999e-01,9.99999e-01,9.97981e-01,3.38126e-01,9.99967e-01
5.931695792e-01,3.44944e-01,9.99999e-01,9.99999e-01,9.98576e-01,3.45446e-01,9.99968e-01
5.961354271e-01,3.52218e-01,9.99999e-01,9.99999e-01,9.98437e-01,3.52776e-01,9.99980e-01
5.991161043e-01,3.59699e-01,9.99999e-01,9.99999e-01,9.98859e-01,3.60111e-01,9.99994e-01
6.021116848e-01,3.67212e-01,9.99999e-01,9.99999e-01,9.99352e-01,3.67450e-01,9.99998e-01
6.051222432e-01,3.74666e-01,9.99999e-01,9.99999e-01,9.99671e-01,3.74789e-01,9.99999e-01
6.081478544e-01,3.82071e-01,9.99999e-01,9.99999e-01,9.99858e-01,3.82125e-01,9.99999e-01
6.111885937e-01,3.89432e-01,9.99999e-01,9.99999e-01,9.99939e-01,3.89455e-01,9.99999e-01
6.142445367e-01,3.96767e-01,9.99999e-01,9.99999e-01,9.99972e-01,3.96778e-01,9.99999e-01
6.173157594e-01,4.04083e-01,9.99999e-01,9.99999e-01,9.99984e-01,4.04089e-01,9.99999e-01
6.204023382e-01,4.11381e-01,9.99999e-01,9.99999e-01,9.99987e-01,4.11386e-01,9.99999e-01
6.235043498e-01,4.18645e-01,9.99999e-01,9.99999e-01,9.99945e-01,4.18668e-01,9.99999e-01
6.266218716e-01,4.25806e-01,9.99999e-01,9.99999e-01,9.99709e-01,4.25930e-01,9.99997e-01
6.297549810e-01,4.33124e-01,9.99999e-01,9.99999e-01,9.99893e-01,4.33171e-01,9.99995e-01
6.329037559e-01,4.40295e-01,9.99999e-01,9.99999e-01,9.99789e-01,4.40389e-01,9.99996e-01
6.360682746e-01,4.47500e-01,9.99999e-01,9.99999e-01,9.99820e-01,4.47581e-01,9.99997e-01
6.392486160e-01,4.54639e-01,9.99999e-01,9.99999e-01,9.99767e-01,4.54745e-01,9.99998e-01
6.424448591e-01,4.61735e-01,9.99999e-01,9.99999e-01,9.99691e-01,4.61879e-01,9.99998e-01
6.456570834e-01,4.68304e-01,9.99999e-01,9.99999e-01,9.98566e-01,4.68980e-01,9.99991e-01
6.488853688e-01,4.75447e-01,9.99999e-01,9.99999e-01,9.98761e-01,4.76047e-01,9.99977e-01
6.521297956e-01,4.82548e-01,9.99999e-01,9.99999e-01,9.98921e-01,4.83078e-01,9.99980e-01
6.553904446e-01,4.89542e-01,9.99999e-01,9.99999e-01,9.98935e-01,4.90070e-01,9.99985e-01
6.586673968e-01,4.96564e-01,9.99999e-01,9.99999e-01,9.99080e-01,4.97023e-01,9.99994e-01
6.619607338e-01,5.03666e-01,9.99999e-01,9.99999e-01,9.99468e-01,5.03934e-01,9.99998e-01
6.652705375e-01,5.10645e-01,9.99999e-01,9.99999e-01,9.99691e-01,5.10802e-01,9.99999e-01
6.685968902e-01,5.17551e-01,9.99999e-01,9.99999e-01,9.99856e-01,5.17625e-01,9.99999e-01
6.719398746e-01,5.24367e-01,9.99999e-01,9.99999e-01,9.99933e-01,5.24402e-01,9.99999e-01
6.752995740e-01,5.31112e-01,9.99999e-01,9.99999e-01,9.99963e-01,5.31131e-01,9.99999e-01
6.786760719e-01,5.37783e-01,9.99999e-01,9.99999e-01,9.99948e-01,5.37811e-01,9.99999e-01
6.820694522e-01,5.44392e-01,9.99999e-01,9.99999e-01,9.99911e-01,5.44440e-01,9.99999e-01
6.854797995e-01,5.50955e-01,9.99999e-01,9.99999e-01,9.99885e-01,5.51018e-01,9.99998e-01
6.889071985e-01,5.57390e-01,9.99999e-01,9.99999e-01,9.99726e-01,5.57543e-01,9.99997e-01
6.923517345e-01,5.61470e-01,9.99999e-01,9.99999e-01,9.95510e-01,5.64014e-01,9.99977e-01
6.958134932e-01,5.69052e-01,9.99999e-01,9.99999e-01,9.97631e-01,5.70431e-01,9.99950e-01
6.992925606e-01,5.75486e-01,9.99999e-01,9.99999e-01,9.97780e-01,5.76791e-01,9.99956e-01
7.027890234e-01,5.81469e-01,9.99999e-01,9.99999e-01,9.97245e-01,5.83094e-01,9.99966e-01
7.063029686e-01,5.87967e-01,9.99999e-01,9.99999e-01,9.97686e-01,5.89340e-01,9.99983e-01
7.098344834e-01,5.94200e-01,9.99999e-01,9.99999e-01,9.97780e-01,5.95528e-01,9.99989e-01
7.133836558e-01,5.99879e-01,9.99999e-01,9.99999e-01,9.97065e-01,6.01656e-01,9.99980e-01
7.169505741e-01,5.93301e-01,9.99999e-01,9.99999e-01,9.76413e-01,6.07724e-01,9.99848e-01
7.205353270e-01,6.06368e-01,9.99999e-01,9.99999e-01,9.88265e-01,6.13732e-01,9.99732e-01
7.241380036e-01,6.10416e-01,9.99999e-01,9.99999e-01,9.85277e-01,6.19679e-01,9.99768e-01
7.277586936e-01,6.17126e-01,9.99999e-01,9.99999e-01,9.86696e-01,6.25564e-01,9.99811e-01
7.313974871e-01,6.22377e-01,9.99999e-01,9.99999e-01,9.85814e-01,6.31388e-01,9.99911e-01
7.350544745e-01,6.32188e-01,9.99999e-01,9.99999e-01,9.92244e-01,6.37149e-01,9.99968e-01
7.387297469e-01,6.39167e-01,9.99999e-01,9.99999e-01,9.94289e-01,6.42847e-01,9.99985e-01
7.424233956e-01,6.46664e-01,9.99999e-01,9.99999e-01,9.97199e-01,6.48482e-01,9.99996e-01
7.461355126e-01,6.52944e-01,9.99999e-01,9.99999e-01,9.98304e-01,6.54054e-01,9.99999e-01
7.498661902e-01,6.59040e-01,9.99999e-01,9.99999e-01,9.99208e-01,6.59562e-01,9.99999e-01
7.536155211e-01,6.64749e-01,9.99999e-01,9.99999e-01,9.99612e-01,6.65006e-01,9.99999e-01
7.573835987e-01,6.70253e-01,9.99999e-01,9.99999e-01,9.99800e-01,6.70386e-01,9.99999e-01
7.611705167e-01,6.75619e-01,9.99999e-01,9.99999e-01,9.99875e-01,6.75703e-01,9.99999e-01
7.649763693e-01,6.80902e-01,9.99999e-01,9.99999e-01,9.99922e-01,6.80955e-01,9.99999e-01
7.688012511e-01,6.86106e-01,9.99999e-01,9.99999e-01,9.99945e-01,6.86143e-01,9.99999e-01
7.726452574e-01,6.91237e-01,9.99999e-01,9.99999e-01,9.99955e-01,6.91267e-01,9.99999e-01
7.765084837e-01,6.96283e-01,9.99999e-01,9.99999e-01,9.99936e-01,6.96327e-01,9.99999e-01
7.803910261e-01,6.89276e-01,9.99999e-01,9.83083e-01,9.99728e-01,7.01323e-01,9.99999e-01
7.842929812e-01,6.54483e-01,9.99999e-01,9.27551e-01,9.99054e-01,7.06255e-01,9.99997e-01
7.882144461e-01,6.54879e-01,9.99999e-01,9.22689e-01,9.98040e-01,7.11123e-01,9.99987e-01
7.921555184e-01,6.82879e-01,9.99999e-01,9.54876e-01,9.98921e-01,7.15928e-01,9.99976e-01
7.961162960e-01,6.97360e-01,9.99999e-01,9.69501e-01,9.98108e-01,7.20669e-01,9.99977e-01
8.000968774e-01,7.11716e-01,9.99999e-01,9.83381e-01,9.97807e-01,7.25348e-01,9.99975e-01
8.040973618e-01,7.22044e-01,9.99999e-01,9.91339e-01,9.97808e-01,7.29963e-01,9.99980e-01
8.081178486e-01,7.27991e-01,9.99999e-01,9.96028e-01,9.95083e-01,7.34515e-01,9.99981e-01
8.121584379e-01,7.22972e-01,9.99999e-01,9.98764e-01,9.79574e-01,7.39005e-01,9.99930e-01
8.162192301e-01,7.24920e-01,9.99999e-01,9.99726e-01,9.75614e-01,7.43434e-01,9.99739e-01
8.203003262e-01,7.38491e-01,9.99999e-01,9.99995e-01,9.87855e-01,7.47800e-01,9.99695e-01
8.244018279e-01,7.38939e-01,9.99999e-01,9.99999e-01,9.82731e-01,7.52105e-01,9.99757e-01
8.285238370e-01,7.45215e-01,9.99999e-01,9.99999e-01,9.85465e-01,7.56349e-01,9.99809e-01
8.326664562e-01,7.49264e-01,9.99999e-01,9.99999e-01,9.85259e-01,7.60533e-01,9.99920e-01
8.368297885e-01,7.56582e-01,9.99999e-01,9.99999e-01,9.89457e-01,7.64656e-01,9.99981e-01
8.410139374e-01,7.63889e-01,9.99999e-01,9.99999e-01,9.93726e-01,7.68719e-01,9.99989e-01
8.452190071e-01,7.70338e-01,9.99999e-01,9.99999e-01,9.96918e-01,7.72724e-01,9.99993e-01
8.494451021e-01,7.75280e-01,9.99999e-01,9.99999e-01,9.98216e-01,7.76669e-01,9.99994e-01
8.536923276e-01,7.79728e-01,9.99999e-01,9.99999e-01,9.98942e-01,7.80556e-01,9.99996e-01
8.579607893e-01,7.83875e-01,9.99999e-01,9.99999e-01,9.99349e-01,7.84385e-01,9.99998e-01
8.622505932e-01,7.87831e-01,9.99999e-01,9.99999e-01,9.99586e-01,7.88157e-01,9.99999e-01
8.665618462e-01,7.56083e-01,9.99999e-01,9.55042e-01,9.99744e-01,7.91872e-01,9.99999e-01
8.708946554e-01,6.55474e-01,9.99999e-01,8.24181e-01,9.99708e-01,7.95530e-01,9.99999e-01
8.752491287e-01,6.84729e-01,9.99999e-01,8.57168e-01,9.99609e-01,7.99133e-01,9.99999e-01
8.796253743e-01,7.37756e-01,9.99999e-01,9.19605e-01,9.99460e-01,8.02680e-01,9.99998e-01
8.840235012e-01,7.71600e-01,9.99999e-01,9.57704e-01,9.99383e-01,8.06172e-01,9.99995e-01
8.884436187e-01,7.94158e-01,9.99999e-01,9.83101e-01,9.97773e-01,8.09611e-01,9.99988e-01
8.928858368e-01,7.88422e-01,9.99999e-01,9.93139e-01,9.76505e-01,8.12995e-01,9.99937e-01
8.973502660e-01,7.80887e-01,9.99999e-01,9.98322e-01,9.58479e-01,8.16327e-01,9.99683e-01
9.018370173e-01,8.01422e-01,9.99999e-01,9.99814e-01,9.78478e-01,8.19605e-01,9.99502e-01
9.063462024e-01,8.03353e-01,9.99999e-01,9.95336e-01,9.81258e-01,8.22832e-01,9.99563e-01
9.108779334e-01,7.92932e-01,9.99999e-01,9.89199e-01,9.70813e-01,8.26008e-01,9.99545e-01
9.154323231e-01,7.99357e-01,9.99999e-01,9.97440e-01,9.66898e-01,8.29132e-01,9.99624e-01
9.200094847e-01,7.80705e-01,9.99999e-01,9.62755e-01,9.73914e-01,8.32207e-01,9.99789e-01
9.246095321e-01,7.60172e-01,9.99999e-01,9.48182e-01,9.59624e-01,8.35232e-01,9.99757e-01
9.292325798e-01,6.08066e-01,9.99999e-01,9.59242e-01,7.55144e-01,8.38207e-01,9.99056e-01
9.338787427e-01,5.59453e-01,9.99999e-01,9.60437e-01,6.93526e-01,8.41134e-01,9.96108e-01
9.385481364e-01,7.04620e-01,9.99999e-01,9.70852e-01,8.63116e-01,8.44014e-01,9.95373e-01
9.432408771e-01,6.74376e-01,9.99999e-01,9.82044e-01,8.13708e-01,8.46846e-01,9.96007e-01
9.479570815e-01,6.29539e-01,9.99999e-01,9.90768e-01,7.50087e-01,8.49631e-01,9.96749e-01
9.526968669e-01,6.83872e-01,9.99999e-01,9.95532e-01,8.07337e-01,8.52370e-01,9.98015e-01
9.574603512e-01,7.03211e-01,9.99999e-01,9.98087e-01,8.24761e-01,8.55064e-01,9.98991e-01
9.622476530e-01,7.32630e-01,9.99999e-01,9.99402e-01,8.55259e-01,8.57712e-01,9.99302e-01
9.670588912e-01,7.85910e-01,9.99999e-01,9.99820e-01,9.14107e-01,8.60317e-01,9.99522e-01
9.718941857e-01,8.15772e-01,9.99999e-01,9.99986e-01,9.45752e-01,8.62877e-01,9.99648e-01
9.767536566e-01,8.26048e-01,9.99999e-01,9.99999e-01,9.54789e-01,8.65394e-01,9.99731e-01
9.816374249e-01,8.38530e-01,9.99999e-01,9.99999e-01,9.66282e-01,8.67869e-01,9.99906e-01
9.865456120e-01,8.51848e-01,9.99999e-01,9.99999e-01,9.78814e-01,8.70302e-01,9.99980e-01
9.914783401e-01,8.61228e-01,9.99999e-01,9.99999e-01,9.86866e-01,8.72693e-01,9.99994e-01
9.964357318e-01,8.68765e-01,9.99999e-01,9.99999e-01,9.92826e-01,8.75044e-01,9.99996e-01
1.001417910e+00,8.73574e-01,9.99999e-01,9.99999e-01,9.95695e-01,8.77354e-01,9.99994e-01
1.006425000e+00,8.77462e-01,9.99999e-01,9.99999e-01,9.97548e-01,8.79624e-01,9.99992e-01
1.011457125e+00,8.80505e-01,9.99999e-01,9.99999e-01,9.98474e-01,8.81856e-01,9.99993e-01
1.016514411e+00,8.83130e-01,9.99999e-01,9.99999e-01,9.98965e-01,8.84048e-01,9.99995e-01
1.021596983e+00,8.85449e-01,9.99999e-01,9.99976e-01,9.99175e-01,8.86203e-01,9.99995e-01
1.026704968e+00,8.86142e-01,9.99999e-01,9.98190e-01,9.99357e-01,8.88320e-01,9.99996e-01
1.031838492e+00,8.67432e-01,9.99999e-01,9.74651e-01,9.99532e-01,8.90401e-01,9.99998e-01
1.036997685e+00,2.55410e-01,9.99999e-01,2.86258e-01,9.99722e-01,8.92444e-01,9.99999e-01
1.042182673e+00,3.01868e-01,9.99999e-01,3.37592e-01,9.99669e-01,8.94453e-01,9.99999e-01
1.047393587e+00,2.83679e-01,9.99999e-01,3.16581e-01,9.99561e-01,8.96426e-01,9.99999e-01
1.052630555e+00,4.17638e-02,9.99999e-01,4.65109e-02,9.99399e-01,8.98364e-01,9.99999e-01
1.057893707e+00,7.84572e-02,9.99999e-01,8.72172e-02,9.98998e-01,9.00268e-01,9.99999e-01
1.063183176e+00,1.54037e-01,9.99999e-01,1.70976e-01,9.98350e-01,9.02138e-01,9.99998e-01
1.068499092e+00,2.77787e-01,9.99999e-01,3.08070e-01,9.97236e-01,9.03975e-01,9.99997e-01
1.073841587e+00,4.29140e-01,9.99999e-01,4.75178e-01,9.96769e-01,9.05779e-01,9.99995e-01
1.079210795e+00,5.65528e-01,9.99999e-01,6.25616e-01,9.95853e-01,9.07551e-01,9.99988e-01
1.084606849e+00,6.99431e-01,9.99999e-01,7.73958e-01,9.93733e-01,9.09292e-01,9.99972e-01
1.090029883e+00,7.90822e-01,9.99999e-01,8.75872e-01,9.91036e-01,9.11001e-01,9.99944e-01
1.095480033e+00,8.34261e-01,9.99999e-01,9.36788e-01,9.75725e-01,9.12680e-01,9.99899e-01
1.100957433e+00,8.32288e-01,9.99999e-01,9.69082e-01,9.39334e-01,9.14329e-01,9.99816e-01
1.106462220e+00,7.70430e-01,9.99999e-01,9.87093e-01,8.52190e-01,9.15948e-01,9.99688e-01
1.111994531e+00,6.49844e-01,9.99999e-01,9.95198e-01,7.12123e-01,9.17538e-01,9.99174e-01
1.117554504e+00,5.26618e-01,9.99999e-01,9.98822e-01,5.75291e-01,9.19099e-01,9.97023e-01
1.123142276e+00,6.03746e-01,9.99999e-01,9.99921e-01,6.60483e-01,9.20632e-01,9.92955e-01
1.128757988e+00,7.04437e-01,9.99999e-01,9.99999e-01,7.70191e-01,9.22137e-01,9.91855e-01
1.134401778e+00,4.90106e-01,9.99999e-01,9.99999e-01,5.34341e-01,9.23614e-01,9.93070e-01
1.140073787e+00,7.88870e-01,9.99999e-01,9.99999e-01,8.57523e-01,9.25065e-01,9.94459e-01
1.145774156e+00,6.66067e-01,9.99999e-01,9.99999e-01,7.22580e-01,9.26489e-01,9.94926e-01
1.151503026e+00,6.42964e-01,9.99999e-01,9.99999e-01,6.94898e-01,9.27888e-01,9.97170e-01
1.157260541e+00,6.88831e-01,9.99999e-01,9.99999e-01,7.41895e-01,9.29260e-01,9.99152e-01
1.163046844e+00,7.46397e-01,9.99999e-01,9.99999e-01,8.02244e-01,9.30608e-01,9.99759e-01
1.168862078e+00,8.00284e-01,9.99999e-01,9.99999e-01,8.58843e-01,9.31931e-01,9.99875e-01
1.174706389e+00,8.49488e-01,9.99999e-01,9.99999e-01,9.10415e-01,9.33229e-01,9.99835e-01
1.180579921e+00,8.82412e-01,9.99999e-01,9.99999e-01,9.44490e-01,9.34504e-01,9.99751e-01
1.186482820e+00,9.05870e-01,9.99999e-01,9.99996e-01,9.68310e-01,9.35755e-01,9.99745e-01
1.192415234e+00,9.13468e-01,9.99999e-01,9.93522e-01,9.81409e-01,9.36983e-01,9.99808e-01
1.198377311e+00,5.42785e-01,9.99999e-01,5.86394e-01,9.84325e-01,9.38189e-01,9.99819e-01
1.204369197e+00,1.24302e-06,9.99999e-01,1.33493e-06,9.85142e-01,9.39372e-01,9.99836e-01
1.210391043e+00,4.51385e-21,9.99999e-01,4.83794e-21,9.85791e-01,9.40533e-01,9.99900e-01
1.216442998e+00,1.74253e-18,9.99999e-01,1.86455e-18,9.87884e-01,9.41673e-01,9.99938e-01
1.222525213e+00,3.23043e-18,9.99999e-01,3.44360e-18,9.90565e-01,9.42791e-01,9.99961e-01
1.228637839e+00,5.15004e-14,9.99999e-01,5.48192e-14,9.93444e-01,9.43889e-01,9.99981e-01
