#,Wave/freq,Total,N2,CO2,H2O,Rayleigh,CIA
4.000000000e-01,5.16967e-24,9.99999e-01,9.99999e-01,9.99896e-01,5.17020e-24,9.99999e-01
4.020000000e-01,1.49250e-23,9.99999e-01,9.99999e-01,9.99935e-01,1.49260e-23,9.99999e-01
4.040100000e-01,4.21504e-23,9.99999e-01,9.99999e-01,9.99972e-01,4.21516e-23,9.99999e-01
4.060300500e-01,1.16621e-22,9.99999e-01,9.99999e-01,9.99993e-01,1.16622e-22,9.99999e-01
4.080602003e-01,3.16238e-22,9.99999e-01,9.99999e-01,9.99997e-01,3.16238e-22,9.99999e-01
4.101005013e-01,8.40800e-22,9.99999e-01,9.99999e-01,9.99999e-01,8.40800e-22,9.99999e-01
4.121510038e-01,2.19271e-21,9.99999e-01,9.99999e-01,9.99995e-01,2.19272e-21,9.99999e-01
4.142117588e-01,5.61095e-21,9.99999e-01,9.99999e-01,9.99971e-01,5.61111e-21,9.99999e-01
4.162828176e-01,1.40929e-20,9.99999e-01,9.99999e-01,9.99871e-01,1.40947e-20,9.99999e-01
4.183642317e-01,3.47639e-20,9.99999e-01,9.99999e-01,9.99923e-01,3.47665e-20,9.99999e-01
4.204560528e-01,8.42366e-20,9.99999e-01,9.99999e-01,9.99953e-01,8.42405e-20,9.99999e-01
4.225583331e-01,2.00577e-19,9.99999e-01,9.99999e-01,9.99982e-01,2.00581e-19,9.99999e-01
4.246711247e-01,4.69472e-19,9.99999e-01,9.99999e-01,9.99985e-01,4.69478e-19,9.99999e-01
4.267944804e-01,1.08053e-18,9.99999e-01,9.99999e-01,9.99979e-01,1.08055e-18,9.99999e-01
4.289284528e-01,2.44636e-18,9.99999e-01,9.99999e-01,9.99983e-01,2.44639e-18,9.99999e-01
4.310730950e-01,5.44997e-18,9.99999e-01,9.99999e-01,9.99992e-01,5.45000e-18,9.99999e-01
4.332284605e-01,1.19507e-17,9.99999e-01,9.99999e-01,9.99997e-01,1.19508e-17,9.99999e-01
4.353946028e-01,2.58023e-17,9.99999e-01,9.99999e-01,9.99998e-01,2.58023e-17,9.99999e-01
4.375715758e-01,5.48674e-17,9.99999e-01,9.99999e-01,9.99986e-01,5.48681e-17,9.99999e-01
4.397594337e-01,1.14937e-16,9.99999e-01,9.99999e-01,9.99886e-01,1.14950e-16,9.99999e-01
4.419582309e-01,2.37194e-16,9.99999e-01,9.99999e-01,9.99426e-01,2.37330e-16,9.99999e-01
4.441680220e-01,4.82821e-16,9.99999e-01,9.99999e-01,9.99556e-01,4.83035e-16,9.99999e-01
4.463888621e-01,9.68962e-16,9.99999e-01,9.99999e-01,9.99536e-01,9.69411e-16,9.99999e-01
4.486208064e-01,1.91839e-15,9.99999e-01,9.99999e-01,9.99712e-01,1.91894e-15,9.99999e-01
4.508639105e-01,3.74713e-15,9.99999e-01,9.99999e-01,9.99865e-01,3.74764e-15,9.99999e-01
4.531182300e-01,7.22252e-15,9.99999e-01,9.99999e-01,9.99946e-01,7.22290e-15,9.99999e-01
4.553838212e-01,1.37411e-14,9.99999e-01,9.99999e-01,9.99963e-01,1.37416e-14,9.99999e-01
4.576607403e-01,2.58130e-14,9.99999e-01,9.99999e-01,9.99982e-01,2.58134e-14,9.99999e-01
4.599490440e-01,4.78894e-14,9.99999e-01,9.99999e-01,9.99987e-01,4.78900e-14,9.99999e-01
4.622487892e-01,8.77692e-14,9.99999e-01,9.99999e-01,9.99997e-01,8.77694e-14,9.99999e-01
4.645600332e-01,1.58943e-13,9.99999e-01,9.99999e-01,9.99991e-01,1.58944e-13,9.99999e-01
4.668828333e-01,2.84441e-13,9.99999e-01,9.99999e-01,9.99863e-01,2.84480e-13,9.99999e-01
4.692172475e-01,5.03198e-13,9.99999e-01,9.99999e-01,9.99709e-01,5.03344e-13,9.99999e-01
4.715633337e-01,8.80443e-13,9.99999e-01,9.99999e-01,9.99809e-01,8.80610e-13,9.99999e-01
4.739211504e-01,1.52344e-12,9.99999e-01,9.99999e-01,9.99818e-01,1.52372e-12,9.99999e-01
4.762907561e-01,2.60784e-12,9.99999e-01,9.99999e-01,9.99905e-01,2.60808e-12,9.99999e-01
4.786722099e-01,4.41683e-12,9.99999e-01,9.99999e-01,9.99961e-01,4.41700e-12,9.99999e-01
4.810655710e-01,7.40303e-12,9.99999e-01,9.99999e-01,9.99987e-01,7.40311e-12,9.99999e-01
4.834708988e-01,1.22807e-11,9.99999e-01,9.99999e-01,9.99887e-01,1.22821e-11,9.99999e-01
4.858882533e-01,2.01695e-11,9.99999e-01,9.99999e-01,9.99794e-01,2.01737e-11,9.99999e-01
4.883176946e-01,3.28070e-11,9.99999e-01,9.99999e-01,9.99827e-01,3.28127e-11,9.99999e-01
4.907592831e-01,5.28517e-11,9.99999e-01,9.99999e-01,9.99844e-01,5.28599e-11,9.99999e-01
4.932130795e-01,8.43474e-11,9.99999e-01,9.99999e-01,9.99889e-01,8.43567e-11,9.99999e-01
4.956791449e-01,1.33376e-10,9.99999e-01,9.99999e-01,9.99941e-01,1.33384e-10,9.99999e-01
4.981575406e-01,2.08944e-10,9.99999e-01,9.99999e-01,9.99707e-01,2.09005e-10,9.99999e-01
5.006483283e-01,3.24359e-10,9.99999e-01,9.99999e-01,9.99240e-01,3.24607e-10,9.99994e-01
5.031515699e-01,4.97850e-10,9.99999e-01,9.99999e-01,9.96169e-01,4.99784e-10,9.99959e-01
5.056673278e-01,7.61388e-10,9.99999e-01,9.99999e-01,9.97978e-01,7.62965e-10,9.99953e-01
5.081956644e-01,1.15207e-09,9.99999e-01,9.99999e-01,9.97450e-01,1.15504e-09,9.99971e-01
5.107366428e-01,1.73134e-09,9.99999e-01,9.99999e-01,9.98278e-01,1.73434e-09,9.99994e-01
5.132903260e-01,2.58080e-09,9.99999e-01,9.99999e-01,9.99016e-01,2.58334e-09,9.99998e-01
5.158567776e-01,3.81621e-09,9.99999e-01,9.99999e-01,9.99584e-01,3.81780e-09,9.99999e-01
5.184360615e-01,5.59785e-09,9.99999e-01,9.99999e-01,9.99833e-01,5.59878e-09,9.99999e-01
5.210282418e-01,8.14820e-09,9.99999e-01,9.99999e-01,9.99937e-01,8.14871e-09,9.99999e-01
5.236333830e-01,1.17694e-08,9.99999e-01,9.99999e-01,9.99749e-01,1.17724e-08,9.99997e-01
5.262515499e-01,1.68817e-08,9.99999e-01,9.99999e-01,9.99843e-01,1.68844e-08,9.99997e-01
5.288828077e-01,2.40408e-08,9.99999e-01,9.99999e-01,9.99855e-01,2.40442e-08,9.99997e-01
5.315272217e-01,3.39978e-08,9.99999e-01,9.99999e-01,9.99873e-01,3.40021e-08,9.99999e-01
5.341848578e-01,4.77519e-08,9.99999e-01,9.99999e-01,9.99916e-01,4.77558e-08,9.99999e-01
5.368557821e-01,6.66050e-08,9.99999e-01,9.99999e-01,9.99708e-01,6.66245e-08,9.99998e-01
5.395400610e-01,9.22408e-08,9.99999e-01,9.99999e-01,9.98945e-01,9.23389e-08,9.99990e-01
5.422377613e-01,1.26980e-07,9.99999e-01,9.99999e-01,9.98644e-01,1.27156e-07,9.99974e-01
5.449489501e-01,1.73773e-07,9.99999e-01,9.99999e-01,9.98735e-01,1.73997e-07,9.99974e-01
5.476736949e-01,2.36357e-07,9.99999e-01,9.99999e-01,9.98883e-01,2.36624e-07,9.99987e-01
5.504120634e-01,3.19583e-07,9.99999e-01,9.99999e-01,9.99189e-01,3.19843e-07,9.99996e-01
5.531641237e-01,4.29589e-07,9.99999e-01,9.99999e-01,9.99592e-01,4.29765e-07,9.99999e-01
5.559299443e-01,5.73991e-07,9.99999e-01,9.99999e-01,9.99802e-01,5.74103e-07,9.99999e-01
5.587095940e-01,7.62451e-07,9.99999e-01,9.99999e-01,9.99876e-01,7.62545e-07,9.99999e-01
5.615031420e-01,1.00704e-06,9.99999e-01,9.99999e-01,9.99862e-01,1.00718e-06,9.99999e-01
5.643106577e-01,1.32279e-06,9.99999e-01,9.99999e-01,9.99842e-01,1.32300e-06,9.99998e-01
5.671322110e-01,1.72519e-06,9.99999e-01,9.99999e-01,9.98092e-01,1.72852e-06,9.99982e-01
5.699678720e-01,2.24181e-06,9.99999e-01,9.99999e-01,9.97991e-01,2.24643e-06,9.99947e-01
5.728177114e-01,2.89824e-06,9.99999e-01,9.99999e-01,9.97899e-01,2.90446e-06,9.99956e-01
5.756818000e-01,3.72894e-06,9.99999e-01,9.99999e-01,9.98073e-01,3.73623e-06,9.99974e-01
5.785602090e-01,4.77430e-06,9.99999e-01,9.99999e-01,9.98321e-01,4.78235e-06,9.99992e-01
5.814530100e-01,6.08131e-06,9.99999e-01,9.99999e-01,9.98313e-01,6.09161e-06,9.99995e-01
5.843602750e-01,7.70665e-06,9.99999e-01,9.99999e-01,9.97984e-01,7.72229e-06,9.99988e-01
5.872820764e-01,9.57497e-06,9.99999e-01,9.99999e-01,9.82798e-01,9.74374e-06,9.99877e-01
5.902184868e-01,1.19796e-05,9.99999e-01,9.99999e-01,9.79212e-01,1.22380e-05,9.99667e-01
5.931695792e-01,1.50717e-05,9.99999e-01,9.99999e-01,9.85278e-01,1.53017e-05,9.99680e-01
5.961354271e-01,1.87375e-05,9.99999e-01,9.99999e-01,9.83868e-01,1.90482e-05,9.99816e-01
5.991161043e-01,2.33299e-05,9.99999e-01,9.99999e-01,9.88209e-01,2.36096e-05,9.99942e-01
6.021116848e-01,2.89440e-05,9.99999e-01,9.99999e-01,9.93296e-01,2.91395e-05,9.99993e-01
6.051222432e-01,3.56937e-05,9.99999e-01,9.99999e-01,9.96603e-01,3.58154e-05,9.99999e-01
6.081478544e-01,4.37774e-05,9.99999e-01,9.99999e-01,9.98533e-01,4.38417e-05,9.99999e-01
6.111885937e-01,5.34197e-05,9.99999e-01,9.99999e-01,9.99379e-01,5.34529e-05,9.99999e-01
6.142445367e-01,6.48984e-05,9.99999e-01,9.99999e-01,9.99722e-01,6.49164e-05,9.99999e-01
6.173157594e-01,7.85243e-05,9.99999e-01,9.99999e-01,9.99846e-01,7.85363e-05,9.99999e-01
6.204023382e-01,9.46448e-05,9.99999e-01,9.99999e-01,9.99869e-01,9.46571e-05,9.99999e-01
6.235043498e-01,1.13602e-04,9.99999e-01,9.99999e-01,9.99426e-01,1.13667e-04,9.99998e-01
6.266218716e-01,1.35589e-04,9.99999e-01,9.99999e-01,9.96981e-01,1.36002e-04,9.99978e-01
6.297549810e-01,1.61964e-04,9.99999e-01,9.99999e-01,9.98891e-01,1.62150e-04,9.99957e-01
6.329037559e-01,1.92227e-04,9.99999e-01,9.99999e-01,9.97812e-01,1.92655e-04,9.99965e-01
6.360682746e-01,2.27691e-04,9.99999e-01,9.99999e-01,9.98134e-01,2.28121e-04,9.99979e-01
6.392486160e-01,2.68563e-04,9.99999e-01,9.99999e-01,9.97584e-01,2.69216e-04,9.99990e-01
6.424448591e-01,3.15645e-04,9.99999e-01,9.99999e-01,9.96759e-01,3.16676e-04,9.99985e-01
6.456570834e-01,3.65729e-04,9.99999e-01,9.99999e-01,9.85051e-01,3.71310e-04,9.99916e-01
6.488853688e-01,4.29165e-04,9.99999e-01,9.99999e-01,9.89082e-01,4.34003e-04,9.99766e-01
6.521297956e-01,5.00001e-04,9.99999e-01,9.99999e-01,9.88879e-01,5.05720e-04,9.99807e-01
6.553904446e-01,5.80903e-04,9.99999e-01,9.99999e-01,9.88892e-01,5.87512e-04,9.99856e-01
6.586673968e-01,6.74016e-04,9.99999e-01,9.99999e-01,9.90500e-01,6.80513e-04,9.99951e-01
6.619607338e-01,7.81773e-04,9.99999e-01,9.99999e-01,9.94693e-01,7.85951e-04,9.99989e-01
6.652705375e-01,9.02257e-04,9.99999e-01,9.99999e-01,9.96811e-01,9.05147e-04,9.99994e-01
6.685968902e-01,1.03811e-03,9.99999e-01,9.99999e-01,9.98643e-01,1.03952e-03,9.99998e-01
6.719398746e-01,1.18976e-03,9.99999e-01,9.99999e-01,9.99313e-01,1.19057e-03,9.99999e-01
6.752995740e-01,1.35943e-03,9.99999e-01,9.99999e-01,9.99627e-01,1.35993e-03,9.99999e-01
6.786760719e-01,1.54847e-03,9.99999e-01,9.99999e-01,9.99460e-01,1.54931e-03,9.99998e-01
6.820694522e-01,1.75888e-03,9.99999e-01,9.99999e-01,9.99077e-01,1.76051e-03,9.99994e-01
6.854797995e-01,1.99308e-03,9.99999e-01,9.99999e-01,9.98810e-01,1.99547e-03,9.99989e-01
6.889071985e-01,2.24961e-03,9.99999e-01,9.99999e-01,9.97109e-01,2.25619e-03,9.99973e-01
6.923517345e-01,2.42740e-03,9.99999e-01,9.99999e-01,9.54081e-01,2.54480e-03,9.99774e-01
6.958134932e-01,2.79356e-03,9.99999e-01,9.99999e-01,9.76057e-01,2.86350e-03,9.99501e-01
6.992925606e-01,3.13932e-03,9.99999e-01,9.99999e-01,9.77011e-01,3.21463e-03,9.99550e-01
7.027890234e-01,3.49770e-03,9.99999e-01,9.99999e-01,9.71763e-01,3.60057e-03,9.99656e-01
7.063029686e-01,3.92729e-03,9.99999e-01,9.99999e-01,9.76177e-01,4.02382e-03,9.99828e-01
7.098344834e-01,4.38388e-03,9.99999e-01,9.99999e-01,9.77124e-01,4.48697e-03,9.99898e-01
7.133836558e-01,4.83990e-03,9.99999e-01,9.99999e-01,9.69595e-01,4.99267e-03,9.99799e-01
7.169505741e-01,4.34232e-03,9.99999e-01,9.99999e-01,7.84531e-01,5.54366e-03,9.98422e-01
7.205353270e-01,5.43886e-03,9.99999e-01,9.99999e-01,8.87882e-01,6.14274e-03,9.97218e-01
7.241380036e-01,5.81899e-03,9.99999e-01,9.99999e-01,8.58706e-01,6.79277e-03,9.97597e-01
7.277586936e-01,6.52190e-03,9.99999e-01,9.99999e-01,8.71682e-01,7.49669e-03,9.98035e-01
7.313974871e-01,7.12528e-03,9.99999e-01,9.99999e-01,8.63684e-01,8.25745e-03,9.99079e-01
7.350544745e-01,8.37441e-03,9.99999e-01,9.99999e-01,9.22782e-01,9.07807e-03,9.99679e-01
7.387297469e-01,9.38675e-03,9.99999e-01,9.99999e-01,9.42433e-01,9.96158e-03,9.99852e-01
7.424233956e-01,1.05986e-02,9.99999e-01,9.99999e-01,9.71392e-01,1.09110e-02,9.99971e-01
7.461355126e-01,1.17213e-02,9.99999e-01,9.99999e-01,9.82550e-01,1.19295e-02,9.99994e-01
7.498661902e-01,1.29139e-02,9.99999e-01,9.99999e-01,9.91845e-01,1.30201e-02,9.99997e-01
7.536155211e-01,1.41289e-02,9.99999e-01,9.99999e-01,9.95987e-01,1.41859e-02,9.99998e-01
7.573835987e-01,1.53979e-02,9.99999e-01,9.99999e-01,9.97933e-01,1.54298e-02,9.99999e-01
7.611705167e-01,1.67335e-02,9.99999e-01,9.99999e-01,9.98715e-01,1.67550e-02,9.99999e-01
7.649763693e-01,1.81499e-02,9.99999e-01,9.99999e-01,9.99194e-01,1.81645e-02,9.99999e-01
7.688012511e-01,1.96501e-02,9.99999e-01,9.99999e-01,9.99438e-01,1.96611e-02,9.99999e-01
7.726452574e-01,2.12379e-02,9.99999e-01,9.99999e-01,9.99537e-01,2.12478e-02,9.99999e-01
7.765084837e-01,2.29122e-02,9.99999e-01,9.99999e-01,9.99341e-01,2.29273e-02,9.99998e-01
7.803910261e-01,2.15824e-02,9.99999e-01,8.75911e-01,9.97156e-01,2.47024e-02,9.99996e-01
7.842929812e-01,1.31301e-02,9.99999e-01,4.98174e-01,9.90110e-01,2.65759e-02,9.99981e-01
7.882144461e-01,1.35327e-02,9.99999e-01,4.82464e-01,9.79780e-01,2.85501e-02,9.99859e-01
7.921555184e-01,1.90413e-02,9.99999e-01,6.28153e-01,9.88888e-01,3.06276e-02,9.99756e-01
7.961162960e-01,2.34396e-02,9.99999e-01,7.28250e-01,9.80372e-01,3.28107e-02,9.99768e-01
8.000968774e-01,2.88744e-02,9.99999e-01,8.41577e-01,9.77374e-01,3.51017e-02,9.99753e-01
8.040973618e-01,3.35160e-02,9.99999e-01,9.14360e-01,9.77368e-01,3.75026e-02,9.99811e-01
8.081178486e-01,3.64764e-02,9.99999e-01,9.59592e-01,9.49782e-01,4.00154e-02,9.99809e-01
8.121584379e-01,3.40468e-02,9.99999e-01,9.87386e-01,8.08726e-01,4.26420e-02,9.99279e-01
8.162192301e-01,3.51520e-02,9.99999e-01,9.97199e-01,7.78640e-01,4.53838e-02,9.97293e-01
8.203003262e-01,4.25705e-02,9.99999e-01,9.99959e-01,8.85251e-01,4.82426e-02,9.96831e-01
8.244018279e-01,4.32545e-02,9.99999e-01,9.99999e-01,8.46624e-01,5.12196e-02,9.97477e-01
8.285238370e-01,4.66158e-02,9.99999e-01,9.99999e-01,8.59936e-01,5.43160e-02,9.98018e-01
8.326664562e-01,4.93845e-02,9.99999e-01,9.99999e-01,8.59072e-01,5.75329e-02,9.99179e-01
8.368297885e-01,5.45557e-02,9.99999e-01,9.99999e-01,8.96417e-01,6.08711e-02,9.99812e-01
8.410139374e-01,6.02703e-02,9.99999e-01,9.99999e-01,9.36976e-01,6.43312e-02,9.99890e-01
8.452190071e-01,6.57736e-02,9.99999e-01,9.99999e-01,9.68548e-01,6.79139e-02,9.99934e-01
8.494451021e-01,7.02976e-02,9.99999e-01,9.99999e-01,9.81595e-01,7.16193e-02,9.99947e-01
8.536923276e-01,7.46223e-02,9.99999e-01,9.99999e-01,9.89090e-01,7.54477e-02,9.99967e-01
8.579607893e-01,7.88634e-02,9.99999e-01,9.99999e-01,9.93260e-01,7.93991e-02,9.99991e-01
8.622505932e-01,8.31156e-02,9.99999e-01,9.99999e-01,9.95717e-01,8.34732e-02,9.99998e-01
8.665618462e-01,7.33767e-02,9.99999e-01,8.39024e-01,9.97345e-01,8.76696e-02,9.99998e-01
8.708946554e-01,1.71073e-02,9.99999e-01,1.86473e-01,9.96958e-01,9.19878e-02,9.99997e-01
8.752491287e-01,2.27846e-02,9.99999e-01,2.37162e-01,9.95934e-01,9.64271e-02,9.99995e-01
8.796253743e-01,4.44199e-02,9.99999e-01,4.42065e-01,9.94368e-01,1.00987e-01,9.99986e-01
8.840235012e-01,6.78400e-02,9.99999e-01,6.45914e-01,9.93572e-01,1.05665e-01,9.99960e-01
8.884436187e-01,9.07245e-02,9.99999e-01,8.40025e-01,9.76767e-01,1.10462e-01,9.99888e-01
8.928858368e-01,8.45277e-02,9.99999e-01,9.31433e-01,7.84671e-01,1.15375e-01,9.99356e-01
8.973502660e-01,7.72940e-02,9.99999e-01,9.82920e-01,6.54211e-01,1.20403e-01,9.96708e-01
9.018370173e-01,1.00471e-01,9.99999e-01,9.98104e-01,8.05759e-01,1.25544e-01,9.94829e-01
9.063462024e-01,1.03138e-01,9.99999e-01,9.53524e-01,8.25014e-01,1.30797e-01,9.95456e-01
9.108779334e-01,9.04174e-02,9.99999e-01,8.94264e-01,7.41596e-01,1.36159e-01,9.95279e-01
9.154323231e-01,9.79269e-02,9.99999e-01,9.74167e-01,7.10752e-01,1.41629e-01,9.96096e-01
9.200094847e-01,8.73362e-02,9.99999e-01,7.40205e-01,7.66667e-01,1.47203e-01,9.97813e-01
9.246095321e-01,6.15256e-02,9.99999e-01,5.82108e-01,6.72314e-01,1.52881e-01,9.97480e-01
9.292325798e-01,1.11230e-02,9.99999e-01,6.62112e-01,9.59116e-02,1.58659e-01,9.90212e-01
9.338787427e-01,5.23435e-03,9.99999e-01,6.66518e-01,4.50195e-02,1.64535e-01,9.60157e-01
9.385481364e-01,3.56800e-02,9.99999e-01,7.39050e-01,2.81809e-01,1.70505e-01,9.52793e-01
9.432408771e-01,2.70956e-02,9.99999e-01,8.29547e-01,1.86889e-01,1.76569e-01,9.59140e-01
9.479570815e-01,1.53030e-02,9.99999e-01,9.08327e-01,9.38579e-02,1.82721e-01,9.66616e-01
9.526968669e-01,2.82080e-02,9.99999e-01,9.54807e-01,1.57878e-01,1.88960e-01,9.79503e-01
9.574603512e-01,3.24587e-02,9.99999e-01,9.80387e-01,1.70526e-01,1.95283e-01,9.89535e-01
9.622476530e-01,4.56199e-02,9.99999e-01,9.93840e-01,2.28927e-01,2.01686e-01,9.92752e-01
9.670588912e-01,8.71754e-02,9.99999e-01,9.98152e-01,4.21479e-01,2.08166e-01,9.95037e-01
9.718941857e-01,1.21581e-01,9.99999e-01,9.99870e-01,5.68358e-01,2.14720e-01,9.96344e-01
9.767536566e-01,1.37910e-01,9.99999e-01,9.99999e-01,6.24799e-01,2.21345e-01,9.97205e-01
9.816374249e-01,1.60319e-01,9.99999e-01,9.99999e-01,7.03718e-01,2.28037e-01,9.99031e-01
9.865456120e-01,1.88255e-01,9.99999e-01,9.99999e-01,8.01947e-01,2.34794e-01,9.99797e-01
9.914783401e-01,2.10666e-01,9.99999e-01,9.99999e-01,8.71967e-01,2.41611e-01,9.99943e-01
9.964357318e-01,2.30608e-01,9.99999e-01,9.99999e-01,9.28081e-01,2.48486e-01,9.99966e-01
1.001417910e+00,2.44220e-01,9.99999e-01,9.99999e-01,9.56214e-01,2.55415e-01,9.99949e-01
1.006425000e+00,2.55756e-01,9.99999e-01,9.99999e-01,9.74769e-01,2.62395e-01,9.99928e-01
1.011457125e+00,2.65169e-01,9.99999e-01,9.99999e-01,9.84281e-01,2.69421e-01,9.99933e-01
1.016514411e+00,2.73520e-01,9.99999e-01,9.99999e-01,9.89295e-01,2.76492e-01,9.99952e-01
1.021596983e+00,2.81092e-01,9.99999e-01,9.99727e-01,9.91459e-01,2.83603e-01,9.99953e-01
1.026704968e+00,2.83364e-01,9.99999e-01,9.81124e-01,9.93332e-01,2.90751e-01,9.99970e-01
1.031838492e+00,2.57860e-01,9.99999e-01,8.69424e-01,9.95153e-01,2.97932e-01,9.99990e-01
1.036997685e+00,8.33767e-03,9.99999e-01,2.73828e-02,9.97116e-01,3.05144e-01,9.99998e-01
1.042182673e+00,1.01694e-04,9.99999e-01,3.26348e-04,9.96558e-01,3.12383e-01,9.99998e-01
1.047393587e+00,2.94611e-04,9.99999e-01,9.25066e-04,9.95441e-01,3.19646e-01,9.99998e-01
1.052630555e+00,4.24059e-10,9.99999e-01,1.30210e-09,9.93746e-01,3.26928e-01,9.99997e-01
1.057893707e+00,1.59010e-09,9.99999e-01,4.78085e-09,9.89577e-01,3.34228e-01,9.99995e-01
1.063183176e+00,3.41940e-07,9.99999e-01,1.01029e-06,9.82919e-01,3.41542e-01,9.99990e-01
1.068499092e+00,7.55976e-06,9.99999e-01,2.20115e-05,9.71586e-01,3.48867e-01,9.99980e-01
1.073841587e+00,3.01977e-04,9.99999e-01,8.66356e-04,9.66866e-01,3.56200e-01,9.99957e-01
1.079210795e+00,4.41553e-03,9.99999e-01,1.25305e-02,9.57736e-01,3.63537e-01,9.99884e-01
1.084606849e+00,2.77890e-02,9.99999e-01,7.91008e-02,9.36782e-01,3.70876e-01,9.99722e-01
1.090029883e+00,9.13929e-02,9.99999e-01,2.62542e-01,9.10592e-01,3.78214e-01,9.99425e-01
1.095480033e+00,1.55724e-01,9.99999e-01,5.14881e-01,7.75257e-01,3.85548e-01,9.98961e-01
1.100957433e+00,1.52873e-01,9.99999e-01,7.23931e-01,5.30039e-01,3.92875e-01,9.98089e-01
1.106462220e+00,7.77379e-02,9.99999e-01,8.74610e-01,2.18782e-01,4.00193e-01,9.96761e-01
1.111994531e+00,1.77654e-02,9.99999e-01,9.51433e-01,4.56672e-02,4.07498e-01,9.91426e-01
1.117554504e+00,3.49213e-03,9.99999e-01,9.87941e-01,8.73531e-03,4.14788e-01,9.69392e-01
1.123142276e+00,1.62874e-02,9.99999e-01,9.99205e-01,4.15444e-02,4.22061e-01,9.28933e-01
1.128757988e+00,3.95333e-02,9.99999e-01,9.99999e-01,1.00282e-01,4.29314e-01,9.18255e-01
1.134401778e+00,1.88553e-02,9.99999e-01,9.99999e-01,4.64405e-02,4.36545e-01,9.30052e-01
1.140073787e+00,9.73232e-02,9.99999e-01,9.99999e-01,2.32401e-01,4.43751e-01,9.43708e-01
1.145774156e+00,2.75511e-02,9.99999e-01,9.99999e-01,6.44261e-02,4.50930e-01,9.48348e-01
1.151503026e+00,2.09749e-02,9.99999e-01,9.99999e-01,4.71617e-02,4.58080e-01,9.70888e-01
1.157260541e+00,2.78524e-02,9.99999e-01,9.99999e-01,6.04032e-02,4.65198e-01,9.91205e-01
1.163046844e+00,5.79054e-02,9.99999e-01,9.99999e-01,1.22914e-01,4.72284e-01,9.97499e-01
1.168862078e+00,1.04845e-01,9.99999e-01,9.99999e-01,2.19013e-01,4.79334e-01,9.98710e-01
1.174706389e+00,1.88960e-01,9.99999e-01,9.99999e-01,3.89194e-01,4.86347e-01,9.98291e-01
1.180579921e+00,2.75435e-01,9.99999e-01,9.99999e-01,5.59771e-01,4.93322e-01,9.97417e-01
1.186482820e+00,3.57934e-01,9.99999e-01,9.99961e-01,7.17422e-01,5.00255e-01,9.97349e-01
1.192415234e+00,3.92088e-01,9.99999e-01,9.38061e-01,8.22989e-01,5.07146e-01,9.98014e-01
1.198377311e+00,2.15467e-01,9.99999e-01,4.81207e-01,8.48613e-01,5.13994e-01,9.98124e-01
1.204369197e+00,5.66586e-48,9.99999e-01,1.19239e-47,8.56871e-01,5.20795e-01,9.98302e-01
1.210391043e+00,1.43250e-198,9.99999e-01,2.95262e-198,8.62261e-01,5.27550e-01,9.98967e-01
1.216442998e+00,1.23300e-171,9.99999e-01,2.49766e-171,8.81638e-01,5.34256e-01,9.99367e-01
1.222525213e+00,4.99456e-169,9.99999e-01,9.71844e-169,9.06291e-01,5.40913e-01,9.99606e-01
1.228637839e+00,4.34905e-130,9.99999e-01,8.31844e-130,9.33896e-01,5.47518e-01,9.99816e-01
