#,Wave/freq,Total,N2,CO2,H2O,Rayleigh,CIA
4.000000000e-01,1.29448e-09,9.99999e-01,9.99999e-01,9.99960e-01,1.29453e-09,9.99999e-01
4.020000000e-01,1.94019e-09,9.99999e-01,9.99999e-01,9.99975e-01,1.94023e-09,9.99999e-01
4.040100000e-01,2.88361e-09,9.99999e-01,9.99999e-01,9.99989e-01,2.88364e-09,9.99999e-01
4.060300500e-01,4.25233e-09,9.99999e-01,9.99999e-01,9.99997e-01,4.25234e-09,9.99999e-01
4.080602003e-01,6.22276e-09,9.99999e-01,9.99999e-01,9.99998e-01,6.22276e-09,9.99999e-01
4.101005013e-01,9.03800e-09,9.99999e-01,9.99999e-01,9.99999e-01,9.03800e-09,9.99999e-01
4.121510038e-01,1.30304e-08,9.99999e-01,9.99999e-01,9.99998e-01,1.30305e-08,9.99999e-01
4.142117588e-01,1.86511e-08,9.99999e-01,9.99999e-01,9.99988e-01,1.86513e-08,9.99999e-01
4.162828176e-01,2.65070e-08,9.99999e-01,9.99999e-01,9.99950e-01,2.65083e-08,9.99999e-01
4.183642317e-01,3.74133e-08,9.99999e-01,9.99999e-01,9.99970e-01,3.74144e-08,9.99999e-01
4.204560528e-01,5.24483e-08,9.99999e-01,9.99999e-01,9.99981e-01,5.24493e-08,9.99999e-01
4.225583331e-01,7.30365e-08,9.99999e-01,9.99999e-01,9.99992e-01,7.30369e-08,9.99999e-01
4.246711247e-01,1.01042e-07,9.99999e-01,9.99999e-01,9.99994e-01,1.01043e-07,9.99999e-01
4.267944804e-01,1.38893e-07,9.99999e-01,9.99999e-01,9.99991e-01,1.38894e-07,9.99999e-01
4.289284528e-01,1.89727e-07,9.99999e-01,9.99999e-01,9.99993e-01,1.89729e-07,9.99999e-01
4.310730950e-01,2.57576e-07,9.99999e-01,9.99999e-01,9.99996e-01,2.57576e-07,9.99999e-01
4.332284605e-01,3.47582e-07,9.99999e-01,9.99999e-01,9.99998e-01,3.47582e-07,9.99999e-01
4.353946028e-01,4.66270e-07,9.99999e-01,9.99999e-01,9.99999e-01,4.66270e-07,9.99999e-01
4.375715758e-01,6.21864e-07,9.99999e-01,9.99999e-01,9.99994e-01,6.21867e-07,9.99999e-01
4.397594337e-01,8.24648e-07,9.99999e-01,9.99999e-01,9.99957e-01,8.24683e-07,9.99999e-01
4.419582309e-01,1.08733e-06,9.99999e-01,9.99999e-01,9.99784e-01,1.08757e-06,9.99999e-01
4.441680220e-01,1.42619e-06,9.99999e-01,9.99999e-01,9.99829e-01,1.42643e-06,9.99999e-01
4.463888621e-01,1.86055e-06,9.99999e-01,9.99999e-01,9.99822e-01,1.86088e-06,9.99999e-01
4.486208064e-01,2.41467e-06,9.99999e-01,9.99999e-01,9.99889e-01,2.41494e-06,9.99999e-01
4.508639105e-01,3.11770e-06,9.99999e-01,9.99999e-01,9.99947e-01,3.11786e-06,9.99999e-01
4.531182300e-01,4.00505e-06,9.99999e-01,9.99999e-01,9.99979e-01,4.00513e-06,9.99999e-01
4.553838212e-01,5.11944e-06,9.99999e-01,9.99999e-01,9.99985e-01,5.11951e-06,9.99999e-01
4.576607403e-01,6.51226e-06,9.99999e-01,9.99999e-01,9.99993e-01,6.51230e-06,9.99999e-01
4.599490440e-01,8.24469e-06,9.99999e-01,9.99999e-01,9.99995e-01,8.24473e-06,9.99999e-01
4.622487892e-01,1.03895e-05,9.99999e-01,9.99999e-01,9.99998e-01,1.03895e-05,9.99999e-01
4.645600332e-01,1.30325e-05,9.99999e-01,9.99999e-01,9.99996e-01,1.30325e-05,9.99999e-01
4.668828333e-01,1.62741e-05,9.99999e-01,9.99999e-01,9.99947e-01,1.62749e-05,9.99999e-01
4.692172475e-01,2.02328e-05,9.99999e-01,9.99999e-01,9.99888e-01,2.02350e-05,9.99999e-01
4.715633337e-01,2.50489e-05,9.99999e-01,9.99999e-01,9.99927e-01,2.50507e-05,9.99999e-01
4.739211504e-01,3.08798e-05,9.99999e-01,9.99999e-01,9.99930e-01,3.08819e-05,9.99999e-01
4.762907561e-01,3.79121e-05,9.99999e-01,9.99999e-01,9.99963e-01,3.79135e-05,9.99999e-01
4.786722099e-01,4.63572e-05,9.99999e-01,9.99999e-01,9.99984e-01,4.63579e-05,9.99999e-01
4.810655710e-01,5.64581e-05,9.99999e-01,9.99999e-01,9.99995e-01,5.64584e-05,9.99999e-01
4.834708988e-01,6.84895e-05,9.99999e-01,9.99999e-01,9.99957e-01,6.84924e-05,9.99999e-01
4.858882533e-01,8.27684e-05,9.99999e-01,9.99999e-01,9.99920e-01,8.27749e-05,9.99999e-01
4.883176946e-01,9.96556e-05,9.99999e-01,9.99999e-01,9.99934e-01,9.96622e-05,9.99999e-01
4.907592831e-01,1.19548e-04,9.99999e-01,9.99999e-01,9.99940e-01,1.19555e-04,9.99999e-01
4.932130795e-01,1.42899e-04,9.99999e-01,9.99999e-01,9.99957e-01,1.42905e-04,9.99999e-01
4.956791449e-01,1.70210e-04,9.99999e-01,9.99999e-01,9.99977e-01,1.70214e-04,9.99999e-01
4.981575406e-01,2.02019e-04,9.99999e-01,9.99999e-01,9.99888e-01,2.02042e-04,9.99999e-01
5.006483283e-01,2.38942e-04,9.99999e-01,9.99999e-01,9.99712e-01,2.39011e-04,9.99997e-01
5.031515699e-01,2.81392e-04,9.99999e-01,9.99999e-01,9.98538e-01,2.81808e-04,9.99984e-01
5.056673278e-01,3.30927e-04,9.99999e-01,9.99999e-01,9.99226e-01,3.31189e-04,9.99981e-01
5.081956644e-01,3.87600e-04,9.99999e-01,9.99999e-01,9.99024e-01,3.87983e-04,9.99988e-01
5.107366428e-01,4.52798e-04,9.99999e-01,9.99999e-01,9.99340e-01,4.53098e-04,9.99997e-01
5.132903260e-01,5.27323e-04,9.99999e-01,9.99999e-01,9.99622e-01,5.27522e-04,9.99999e-01
5.158567776e-01,6.12231e-04,9.99999e-01,9.99999e-01,9.99840e-01,6.12328e-04,9.99999e-01
5.184360615e-01,7.08634e-04,9.99999e-01,9.99999e-01,9.99935e-01,7.08679e-04,9.99999e-01
5.210282418e-01,8.17806e-04,9.99999e-01,9.99999e-01,9.99975e-01,8.17826e-04,9.99999e-01
5.236333830e-01,9.41026e-04,9.99999e-01,9.99999e-01,9.99904e-01,9.41117e-04,9.99998e-01
5.262515499e-01,1.07993e-03,9.99999e-01,9.99999e-01,9.99939e-01,1.07999e-03,9.99998e-01
5.288828077e-01,1.23593e-03,9.99999e-01,9.99999e-01,9.99944e-01,1.23600e-03,9.99998e-01
5.315272217e-01,1.41071e-03,9.99999e-01,9.99999e-01,9.99951e-01,1.41078e-03,9.99999e-01
5.341848578e-01,1.60602e-03,9.99999e-01,9.99999e-01,9.99968e-01,1.60607e-03,9.99999e-01
5.368557821e-01,1.82351e-03,9.99999e-01,9.99999e-01,9.99888e-01,1.82371e-03,9.99999e-01
5.395400610e-01,2.06484e-03,9.99999e-01,9.99999e-01,9.99601e-01,2.06566e-03,9.99996e-01
5.422377613e-01,2.33273e-03,9.99999e-01,9.99999e-01,9.99480e-01,2.33396e-03,9.99990e-01
5.449489501e-01,2.62947e-03,9.99999e-01,9.99999e-01,9.99519e-01,2.63076e-03,9.99989e-01
5.476736949e-01,2.95701e-03,9.99999e-01,9.99999e-01,9.99571e-01,2.95829e-03,9.99994e-01
5.504120634e-01,3.31786e-03,9.99999e-01,9.99999e-01,9.99689e-01,3.31890e-03,9.99998e-01
5.531641237e-01,3.71443e-03,9.99999e-01,9.99999e-01,9.99843e-01,3.71501e-03,9.99999e-01
5.559299443e-01,4.14884e-03,9.99999e-01,9.99999e-01,9.99924e-01,4.14915e-03,9.99999e-01
5.587095940e-01,4.62371e-03,9.99999e-01,9.99999e-01,9.99952e-01,4.62392e-03,9.99999e-01
5.615031420e-01,5.14173e-03,9.99999e-01,9.99999e-01,9.99947e-01,5.14201e-03,9.99999e-01
5.643106577e-01,5.70581e-03,9.99999e-01,9.99999e-01,9.99940e-01,5.70615e-03,9.99998e-01
5.671322110e-01,6.31463e-03,9.99999e-01,9.99999e-01,9.99285e-01,6.31918e-03,9.99993e-01
5.699678720e-01,6.97844e-03,9.99999e-01,9.99999e-01,9.99225e-01,6.98399e-03,9.99979e-01
5.728177114e-01,7.69720e-03,9.99999e-01,9.99999e-01,9.99199e-01,7.70349e-03,9.99983e-01
5.756818000e-01,8.47436e-03,9.99999e-01,9.99999e-01,9.99264e-01,8.48068e-03,9.99989e-01
5.785602090e-01,9.31256e-03,9.99999e-01,9.99999e-01,9.99357e-01,9.31857e-03,9.99996e-01
5.814530100e-01,1.02136e-02,9.99999e-01,9.99999e-01,9.99355e-01,1.02202e-02,9.99998e-01
5.843602750e-01,1.11801e-02,9.99999e-01,9.99999e-01,9.99236e-01,1.11887e-02,9.99995e-01
5.872820764e-01,1.21461e-02,9.99999e-01,9.99999e-01,9.93430e-01,1.22270e-02,9.99953e-01
5.902184868e-01,1.32298e-02,9.99999e-01,9.99999e-01,9.91991e-01,1.33383e-02,9.99872e-01
5.931695792e-01,1.44417e-02,9.99999e-01,9.99999e-01,9.94350e-01,1.45256e-02,9.99876e-01
5.961354271e-01,1.56929e-02,9.99999e-01,9.99999e-01,9.93797e-01,1.57920e-02,9.99925e-01
5.991161043e-01,1.70624e-02,9.99999e-01,9.99999e-01,9.95470e-01,1.71404e-02,9.99977e-01
6.021116848e-01,1.85261e-02,9.99999e-01,9.99999e-01,9.97425e-01,1.85739e-02,9.99996e-01
6.051222432e-01,2.00692e-02,9.99999e-01,9.99999e-01,9.98696e-01,2.00954e-02,9.99999e-01
6.081478544e-01,2.16956e-02,9.99999e-01,9.99999e-01,9.99437e-01,2.17078e-02,9.99999e-01
6.111885937e-01,2.34082e-02,9.99999e-01,9.99999e-01,9.99761e-01,2.34138e-02,9.99999e-01
6.142445367e-01,2.52134e-02,9.99999e-01,9.99999e-01,9.99893e-01,2.52161e-02,9.99999e-01
6.173157594e-01,2.71159e-02,9.99999e-01,9.99999e-01,9.99941e-01,2.71175e-02,9.99999e-01
6.204023382e-01,2.91189e-02,9.99999e-01,9.99999e-01,9.99950e-01,2.91203e-02,9.99999e-01
6.235043498e-01,3.12204e-02,9.99999e-01,9.99999e-01,9.99784e-01,3.12271e-02,9.99998e-01
6.266218716e-01,3.34014e-02,9.99999e-01,9.99999e-01,9.98847e-01,3.34402e-02,9.99991e-01
6.297549810e-01,3.57460e-02,9.99999e-01,9.99999e-01,9.99576e-01,3.57617e-02,9.99983e-01
6.329037559e-01,3.81612e-02,9.99999e-01,9.99999e-01,9.99162e-01,3.81937e-02,9.99986e-01
6.360682746e-01,4.07089e-02,9.99999e-01,9.99999e-01,9.99288e-01,4.07381e-02,9.99991e-01
6.392486160e-01,4.33565e-02,9.99999e-01,9.99999e-01,9.99077e-01,4.33967e-02,9.99996e-01
6.424448591e-01,4.61142e-02,9.99999e-01,9.99999e-01,9.98772e-01,4.61711e-02,9.99994e-01
6.456570834e-01,4.87820e-02,9.99999e-01,9.99999e-01,9.94308e-01,4.90628e-02,9.99967e-01
6.488853688e-01,5.18125e-02,9.99999e-01,9.99999e-01,9.95084e-01,5.20731e-02,9.99910e-01
6.521297956e-01,5.49627e-02,9.99999e-01,9.99999e-01,9.95719e-01,5.52031e-02,9.99924e-01
6.553904446e-01,5.82033e-02,9.99999e-01,9.99999e-01,9.95769e-01,5.84538e-02,9.99943e-01
6.586673968e-01,6.15991e-02,9.99999e-01,9.99999e-01,9.96348e-01,6.18260e-02,9.99981e-01
6.619607338e-01,6.51822e-02,9.99999e-01,9.99999e-01,9.97888e-01,6.53203e-02,9.99995e-01
6.652705375e-01,6.88527e-02,9.99999e-01,9.99999e-01,9.98774e-01,6.89373e-02,9.99997e-01
6.685968902e-01,7.26357e-02,9.99999e-01,9.99999e-01,9.99430e-01,7.26771e-02,9.99999e-01
6.719398746e-01,7.65197e-02,9.99999e-01,9.99999e-01,9.99735e-01,7.65399e-02,9.99999e-01
6.752995740e-01,8.05141e-02,9.99999e-01,9.99999e-01,9.99857e-01,8.05256e-02,9.99999e-01
6.786760719e-01,8.46165e-02,9.99999e-01,9.99999e-01,9.99794e-01,8.46339e-02,9.99999e-01
6.820694522e-01,8.88331e-02,9.99999e-01,9.99999e-01,9.99648e-01,8.88644e-02,9.99997e-01
6.854797995e-01,9.31740e-02,9.99999e-01,9.99999e-01,9.99546e-01,9.32166e-02,9.99995e-01
6.889071985e-01,9.75826e-02,9.99999e-01,9.99999e-01,9.98914e-01,9.76896e-02,9.99989e-01
6.923517345e-01,1.00461e-01,9.99999e-01,9.99999e-01,9.82276e-01,1.02282e-01,9.99913e-01
6.958134932e-01,1.05970e-01,9.99999e-01,9.99999e-01,9.90622e-01,1.06994e-01,9.99805e-01
6.992925606e-01,1.10821e-01,9.99999e-01,9.99999e-01,9.91202e-01,1.11823e-01,9.99828e-01
7.027890234e-01,1.15480e-01,9.99999e-01,9.99999e-01,9.89089e-01,1.16769e-01,9.99868e-01
7.063029686e-01,1.20703e-01,9.99999e-01,9.99999e-01,9.90824e-01,1.21829e-01,9.99934e-01
7.098344834e-01,1.25878e-01,9.99999e-01,9.99999e-01,9.91194e-01,1.27001e-01,9.99960e-01
7.133836558e-01,1.30738e-01,9.99999e-01,9.99999e-01,9.88385e-01,1.32285e-01,9.99922e-01
7.169505741e-01,1.25239e-01,9.99999e-01,9.99999e-01,9.10207e-01,1.37677e-01,9.99397e-01
7.205353270e-01,1.36505e-01,9.99999e-01,9.99999e-01,9.54419e-01,1.43176e-01,9.98936e-01
7.241380036e-01,1.40170e-01,9.99999e-01,9.99999e-01,9.42992e-01,1.48780e-01,9.99081e-01
7.277586936e-01,1.46403e-01,9.99999e-01,9.99999e-01,9.48385e-01,1.54486e-01,9.99249e-01
7.313974871e-01,1.51409e-01,9.99999e-01,9.99999e-01,9.44915e-01,1.60292e-01,9.99648e-01
7.350544745e-01,1.61115e-01,9.99999e-01,9.99999e-01,9.69554e-01,1.66194e-01,9.99877e-01
7.387297469e-01,1.68305e-01,9.99999e-01,9.99999e-01,9.77486e-01,1.72191e-01,9.99943e-01
7.424233956e-01,1.76300e-01,9.99999e-01,9.99999e-01,9.88904e-01,1.78280e-01,9.99988e-01
7.461355126e-01,1.83215e-01,9.99999e-01,9.99999e-01,9.93269e-01,1.84457e-01,9.99997e-01
7.498661902e-01,1.90120e-01,9.99999e-01,9.99999e-01,9.96855e-01,1.90719e-01,9.99998e-01
7.536155211e-01,1.96761e-01,9.99999e-01,9.99999e-01,9.98459e-01,1.97065e-01,9.99999e-01
7.573835987e-01,2.03328e-01,9.99999e-01,9.99999e-01,9.99206e-01,2.03489e-01,9.99999e-01
7.611705167e-01,2.09887e-01,9.99999e-01,9.99999e-01,9.99506e-01,2.09991e-01,9.99999e-01
7.649763693e-01,2.16498e-01,9.99999e-01,9.99999e-01,9.99691e-01,2.16565e-01,9.99999e-01
7.688012511e-01,2.23161e-01,9.99999e-01,9.99999e-01,9.99784e-01,2.23209e-01,9.99999e-01
7.726452574e-01,2.29879e-01,9.99999e-01,9.99999e-01,9.99823e-01,2.29920e-01,9.99999e-01
7.765084837e-01,2.36635e-01,9.99999e-01,9.99999e-01,9.99750e-01,2.36694e-01,9.99999e-01
7.803910261e-01,2.29156e-01,9.99999e-01,9.41945e-01,9.98922e-01,2.43528e-01,9.99998e-01
7.842929812e-01,1.87386e-01,9.99999e-01,7.50878e-01,9.96243e-01,2.50418e-01,9.99992e-01
7.882144461e-01,1.88601e-01,9.99999e-01,7.38200e-01,9.92227e-01,2.57361e-01,9.99951e-01
7.921555184e-01,2.19543e-01,9.99999e-01,8.33982e-01,9.95717e-01,2.64354e-01,9.99907e-01
7.961162960e-01,2.38253e-01,9.99999e-01,8.84482e-01,9.92497e-01,2.71394e-01,9.99911e-01
8.000968774e-01,2.58278e-01,9.99999e-01,9.35649e-01,9.91303e-01,2.78476e-01,9.99905e-01
8.040973618e-01,2.73482e-01,9.99999e-01,9.66014e-01,9.91309e-01,2.85597e-01,9.99924e-01
8.081178486e-01,2.82564e-01,9.99999e-01,9.84292e-01,9.80607e-01,2.92755e-01,9.99929e-01
8.121584379e-01,2.75028e-01,9.99999e-01,9.95095e-01,9.21610e-01,2.99945e-01,9.99724e-01
8.162192301e-01,2.78048e-01,9.99999e-01,9.98914e-01,9.07091e-01,3.07165e-01,9.98965e-01
8.203003262e-01,2.99399e-01,9.99999e-01,9.99982e-01,9.53420e-01,3.14411e-01,9.98789e-01
8.244018279e-01,3.00369e-01,9.99999e-01,9.99999e-01,9.34654e-01,3.21679e-01,9.99036e-01
8.285238370e-01,3.10190e-01,9.99999e-01,9.99999e-01,9.43635e-01,3.28967e-01,9.99242e-01
8.326664562e-01,3.16977e-01,9.99999e-01,9.99999e-01,9.42915e-01,3.36272e-01,9.99686e-01
8.368297885e-01,3.29403e-01,9.99999e-01,9.99999e-01,9.58780e-01,3.43589e-01,9.99928e-01
8.410139374e-01,3.42231e-01,9.99999e-01,9.99999e-01,9.75290e-01,3.50916e-01,9.99957e-01
8.452190071e-01,3.53871e-01,9.99999e-01,9.99999e-01,9.87797e-01,3.58251e-01,9.99974e-01
8.494451021e-01,3.62994e-01,9.99999e-01,9.99999e-01,9.92921e-01,3.65589e-01,9.99979e-01
8.536923276e-01,3.71356e-01,9.99999e-01,9.99999e-01,9.95798e-01,3.72928e-01,9.99986e-01
8.579607893e-01,3.79281e-01,9.99999e-01,9.99999e-01,9.97416e-01,3.80265e-01,9.99995e-01
8.622505932e-01,3.86960e-01,9.99999e-01,9.99999e-01,9.98355e-01,3.87597e-01,9.99998e-01
8.665618462e-01,3.53558e-01,9.99999e-01,8.96121e-01,9.98985e-01,3.94922e-01,9.99999e-01
8.708946554e-01,1.97113e-01,9.99999e-01,4.90578e-01,9.98839e-01,4.02236e-01,9.99998e-01
8.752491287e-01,2.27771e-01,9.99999e-01,5.56987e-01,9.98447e-01,4.09537e-01,9.99997e-01
8.796253743e-01,3.00149e-01,9.99999e-01,7.21556e-01,9.97854e-01,4.16823e-01,9.99994e-01
8.840235012e-01,3.56702e-01,9.99999e-01,8.43121e-01,9.97548e-01,4.24091e-01,9.99984e-01
8.884436187e-01,3.99629e-01,9.99999e-01,9.34609e-01,9.91191e-01,4.31337e-01,9.99956e-01
8.928858368e-01,3.88619e-01,9.99999e-01,9.72998e-01,9.10526e-01,4.38561e-01,9.99754e-01
8.973502660e-01,3.74455e-01,9.99999e-01,9.93346e-01,8.46512e-01,4.45760e-01,9.98741e-01
9.018370173e-01,4.14723e-01,9.99999e-01,9.99263e-01,9.18092e-01,4.52931e-01,9.98022e-01
9.063462024e-01,4.18999e-01,9.99999e-01,9.81814e-01,9.28195e-01,4.60073e-01,9.98263e-01
9.108779334e-01,3.97905e-01,9.99999e-01,9.57805e-01,8.89957e-01,4.67182e-01,9.98195e-01
9.154323231e-01,4.10635e-01,9.99999e-01,9.89869e-01,8.75654e-01,4.74258e-01,9.98507e-01
9.200094847e-01,3.81579e-01,9.99999e-01,8.72134e-01,9.01190e-01,4.81298e-01,9.99164e-01
9.246095321e-01,3.39589e-01,9.99999e-01,8.10380e-01,8.53612e-01,4.88301e-01,9.99037e-01
9.292325798e-01,1.52481e-01,9.99999e-01,8.50184e-01,3.53933e-01,4.95264e-01,9.96252e-01
9.338787427e-01,1.12902e-01,9.99999e-01,8.53199e-01,2.60793e-01,5.02186e-01,9.84599e-01
9.385481364e-01,2.60582e-01,9.99999e-01,8.89498e-01,5.79490e-01,5.09065e-01,9.81709e-01
9.432408771e-01,2.27380e-01,9.99999e-01,9.30516e-01,4.78125e-01,5.15899e-01,9.84200e-01
9.479570815e-01,1.81339e-01,9.99999e-01,9.63781e-01,3.63503e-01,5.22688e-01,9.87122e-01
9.526968669e-01,2.37787e-01,9.99999e-01,9.82357e-01,4.59680e-01,5.29429e-01,9.92125e-01
9.574603512e-01,2.55132e-01,9.99999e-01,9.92412e-01,4.81021e-01,5.36122e-01,9.95992e-01
9.622476530e-01,2.95819e-01,9.99999e-01,9.97625e-01,5.47698e-01,5.42764e-01,9.97226e-01
9.670588912e-01,3.86826e-01,9.99999e-01,9.99286e-01,7.05939e-01,5.49355e-01,9.98102e-01
9.718941857e-01,4.45489e-01,9.99999e-01,9.99948e-01,8.02548e-01,5.55894e-01,9.98602e-01
9.767536566e-01,4.67978e-01,9.99999e-01,9.99999e-01,8.33028e-01,5.62379e-01,9.98931e-01
9.816374249e-01,4.96357e-01,9.99999e-01,9.99999e-01,8.72947e-01,5.68809e-01,9.99629e-01
9.865456120e-01,5.28266e-01,9.99999e-01,9.99999e-01,9.18500e-01,5.75183e-01,9.99922e-01
9.914783401e-01,5.51712e-01,9.99999e-01,9.99999e-01,9.48790e-01,5.81501e-01,9.99978e-01
9.964357318e-01,5.71165e-01,9.99999e-01,9.99999e-01,9.71774e-01,5.87762e-01,9.99987e-01
1.001417910e+00,5.83846e-01,9.99999e-01,9.99999e-01,9.82982e-01,5.93964e-01,9.99980e-01
1.006425000e+00,5.94257e-01,9.99999e-01,9.99999e-01,9.90277e-01,6.00108e-01,9.99972e-01
1.011457125e+00,6.02506e-01,9.99999e-01,9.99999e-01,9.93944e-01,6.06191e-01,9.99974e-01
1.016514411e+00,6.09688e-01,9.99999e-01,9.99999e-01,9.95889e-01,6.12215e-01,9.99981e-01
1.021596983e+00,6.16086e-01,9.99999e-01,9.99908e-01,9.96725e-01,6.18177e-01,9.99981e-01
1.026704968e+00,6.18030e-01,9.99999e-01,9.92848e-01,9.97446e-01,6.24078e-01,9.99987e-01
1.031838492e+00,5.86989e-01,9.99999e-01,9.33518e-01,9.98140e-01,6.29917e-01,9.99996e-01
1.036997685e+00,5.32831e-02,9.99999e-01,8.38896e-02,9.98896e-01,6.35694e-01,9.99998e-01
1.042182673e+00,1.38674e-02,9.99999e-01,2.16435e-02,9.98688e-01,6.41408e-01,9.99999e-01
1.047393587e+00,2.55922e-02,9.99999e-01,3.96107e-02,9.98258e-01,6.47059e-01,9.99999e-01
1.052630555e+00,5.25745e-05,9.99999e-01,8.06849e-05,9.97612e-01,6.52647e-01,9.99998e-01
1.057893707e+00,1.78227e-04,9.99999e-01,2.71414e-04,9.96021e-01,6.58171e-01,9.99998e-01
1.063183176e+00,1.45634e-03,9.99999e-01,2.20363e-03,9.93455e-01,6.63632e-01,9.99996e-01
1.068499092e+00,7.81479e-03,9.99999e-01,1.17776e-02,9.89053e-01,6.69028e-01,9.99992e-01
1.073841587e+00,3.92461e-02,9.99999e-01,5.87850e-02,9.87220e-01,6.74361e-01,9.99983e-01
1.079210795e+00,1.11727e-01,9.99999e-01,1.66715e-01,9.83611e-01,6.79629e-01,9.99955e-01
1.084606849e+00,2.45677e-01,9.99999e-01,3.67091e-01,9.75327e-01,6.84834e-01,9.99893e-01
1.090029883e+00,3.95499e-01,9.99999e-01,5.93106e-01,9.64898e-01,6.89974e-01,9.99780e-01
1.095480033e+00,4.87863e-01,9.99999e-01,7.72518e-01,9.07137e-01,6.95050e-01,9.99603e-01
1.100957433e+00,4.83827e-01,9.99999e-01,8.82818e-01,7.81509e-01,7.00062e-01,9.99269e-01
1.106462220e+00,3.62671e-01,9.99999e-01,9.49690e-01,5.40552e-01,7.05011e-01,9.98762e-01
1.111994531e+00,1.93562e-01,9.99999e-01,9.81039e-01,2.78192e-01,7.09895e-01,9.96718e-01
1.117554504e+00,9.18283e-02,9.99999e-01,9.95324e-01,1.30442e-01,7.14716e-01,9.88203e-01
1.123142276e+00,1.65452e-01,9.99999e-01,9.99690e-01,2.36545e-01,7.19473e-01,9.72251e-01
1.128757988e+00,2.68163e-01,9.99999e-01,9.99999e-01,3.82558e-01,7.24167e-01,9.67970e-01
1.134401778e+00,1.27224e-01,9.99999e-01,9.99999e-01,1.79466e-01,7.28799e-01,9.72698e-01
1.140073787e+00,3.98624e-01,9.99999e-01,9.99999e-01,5.55708e-01,7.33367e-01,9.78126e-01
1.145774156e+00,2.20181e-01,9.99999e-01,9.99999e-01,3.04502e-01,7.37873e-01,9.79958e-01
1.151503026e+00,1.97674e-01,9.99999e-01,9.99999e-01,2.69314e-01,7.42317e-01,9.88785e-01
1.157260541e+00,2.38315e-01,9.99999e-01,9.99999e-01,3.20236e-01,7.46699e-01,9.96633e-01
1.163046844e+00,3.21320e-01,9.99999e-01,9.99999e-01,4.28253e-01,7.51019e-01,9.99044e-01
1.168862078e+00,4.15097e-01,9.99999e-01,9.99999e-01,5.49865e-01,7.55279e-01,9.99507e-01
1.174706389e+00,5.24554e-01,9.99999e-01,9.99999e-01,6.91127e-01,7.59478e-01,9.99347e-01
1.180579921e+00,6.08763e-01,9.99999e-01,9.99999e-01,7.97997e-01,7.63616e-01,9.99013e-01
1.186482820e+00,6.74898e-01,9.99999e-01,9.99989e-01,8.80021e-01,7.67695e-01,9.98987e-01
1.192415234e+00,6.98284e-01,9.99999e-01,9.75161e-01,9.28095e-01,7.71714e-01,9.99241e-01
1.198377311e+00,3.98309e-01,9.99999e-01,5.41515e-01,9.39128e-01,7.75674e-01,9.99283e-01
1.204369197e+00,1.05507e-19,9.99999e-01,1.40159e-19,9.42340e-01,7.79576e-01,9.99351e-01
1.210391043e+00,3.50179e-77,9.99999e-01,4.61508e-77,9.44739e-01,7.83420e-01,9.99605e-01
1.216442998e+00,6.66485e-67,9.99999e-01,8.72572e-67,9.52730e-01,7.87206e-01,9.99758e-01
1.222525213e+00,6.60312e-66,9.99999e-01,8.51318e-66,9.63002e-01,7.90935e-01,9.99849e-01
1.228637839e+00,5.69897e-51,9.99999e-01,7.30083e-51,9.74172e-01,7.94608e-01,9.99929e-01
