#,Wave/freq,Total,N2,CO2,H2O,Rayleigh,CIA
4.000000000e-01,6.15410e-16,9.99999e-01,9.99999e-01,9.99932e-01,6.15451e-16,9.99999e-01
4.020000000e-01,1.23009e-15,9.99999e-01,9.99999e-01,9.99957e-01,1.23014e-15,9.99999e-01
4.040100000e-01,2.42358e-15,9.99999e-01,9.99999e-01,9.99981e-01,2.42363e-15,9.99999e-01
4.060300500e-01,4.71148e-15,9.99999e-01,9.99999e-01,9.99995e-01,4.71150e-15,9.99999e-01
4.080602003e-01,9.03959e-15,9.99999e-01,9.99999e-01,9.99998e-01,9.03961e-15,9.99999e-01
4.101005013e-01,1.71218e-14,9.99999e-01,9.99999e-01,9.99999e-01,1.71218e-14,9.99999e-01
4.121510038e-01,3.20236e-14,9.99999e-01,9.99999e-01,9.99997e-01,3.20237e-14,9.99999e-01
4.142117588e-01,5.91581e-14,9.99999e-01,9.99999e-01,9.99981e-01,5.91592e-14,9.99999e-01
4.162828176e-01,1.07962e-13,9.99999e-01,9.99999e-01,9.99916e-01,1.07971e-13,9.99999e-01
4.183642317e-01,1.94720e-13,9.99999e-01,9.99999e-01,9.99949e-01,1.94730e-13,9.99999e-01
4.204560528e-01,3.47123e-13,9.99999e-01,9.99999e-01,9.99969e-01,3.47134e-13,9.99999e-01
4.225583331e-01,6.11784e-13,9.99999e-01,9.99999e-01,9.99988e-01,6.11791e-13,9.99999e-01
4.246711247e-01,1.06621e-12,9.99999e-01,9.99999e-01,9.99990e-01,1.06622e-12,9.99999e-01
4.267944804e-01,1.83790e-12,9.99999e-01,9.99999e-01,9.99986e-01,1.83792e-12,9.99999e-01
4.289284528e-01,3.13424e-12,9.99999e-01,9.99999e-01,9.99989e-01,3.13427e-12,9.99999e-01
4.310730950e-01,5.28889e-12,9.99999e-01,9.99999e-01,9.99995e-01,5.28891e-12,9.99999e-01
4.332284605e-01,8.83297e-12,9.99999e-01,9.99999e-01,9.99998e-01,8.83298e-12,9.99999e-01
4.353946028e-01,1.46032e-11,9.99999e-01,9.99999e-01,9.99999e-01,1.46032e-11,9.99999e-01
4.375715758e-01,2.39042e-11,9.99999e-01,9.99999e-01,9.99991e-01,2.39044e-11,9.99999e-01
4.397594337e-01,3.87479e-11,9.99999e-01,9.99999e-01,9.99926e-01,3.87507e-11,9.99999e-01
4.419582309e-01,6.21979e-11,9.99999e-01,9.99999e-01,9.99628e-01,6.22210e-11,9.99999e-01
4.441680220e-01,9.89477e-11,9.99999e-01,9.99999e-01,9.99708e-01,9.89765e-11,9.99999e-01
4.463888621e-01,1.55960e-10,9.99999e-01,9.99999e-01,9.99697e-01,1.56007e-10,9.99999e-01
4.486208064e-01,2.43654e-10,9.99999e-01,9.99999e-01,9.99811e-01,2.43699e-10,9.99999e-01
4.508639105e-01,3.77311e-10,9.99999e-01,9.99999e-01,9.99911e-01,3.77345e-10,9.99999e-01
4.531182300e-01,5.79236e-10,9.99999e-01,9.99999e-01,9.99964e-01,5.79256e-10,9.99999e-01
4.553838212e-01,8.81692e-10,9.99999e-01,9.99999e-01,9.99975e-01,8.81713e-10,9.99999e-01
4.576607403e-01,1.33099e-09,9.99999e-01,9.99999e-01,9.99988e-01,1.33100e-09,9.99999e-01
4.599490440e-01,1.99295e-09,9.99999e-01,9.99999e-01,9.99991e-01,1.99296e-09,9.99999e-01
4.622487892e-01,2.96043e-09,9.99999e-01,9.99999e-01,9.99998e-01,2.96043e-09,9.99999e-01
4.645600332e-01,4.36330e-09,9.99999e-01,9.99999e-01,9.99994e-01,4.36332e-09,9.99999e-01
4.668828333e-01,6.38135e-09,9.99999e-01,9.99999e-01,9.99910e-01,6.38192e-09,9.99999e-01
4.692172475e-01,9.26278e-09,9.99999e-01,9.99999e-01,9.99809e-01,9.26454e-09,9.99999e-01
4.715633337e-01,1.33489e-08,9.99999e-01,9.99999e-01,9.99875e-01,1.33505e-08,9.99999e-01
4.739211504e-01,1.90980e-08,9.99999e-01,9.99999e-01,9.99880e-01,1.91003e-08,9.99999e-01
4.762907561e-01,2.71320e-08,9.99999e-01,9.99999e-01,9.99937e-01,2.71337e-08,9.99999e-01
4.786722099e-01,3.82785e-08,9.99999e-01,9.99999e-01,9.99974e-01,3.82794e-08,9.99999e-01
4.810655710e-01,5.36373e-08,9.99999e-01,9.99999e-01,9.99991e-01,5.36377e-08,9.99999e-01
4.834708988e-01,7.46534e-08,9.99999e-01,9.99999e-01,9.99927e-01,7.46588e-08,9.99999e-01
4.858882533e-01,1.03228e-07,9.99999e-01,9.99999e-01,9.99865e-01,1.03242e-07,9.99999e-01
4.883176946e-01,1.41841e-07,9.99999e-01,9.99999e-01,9.99887e-01,1.41856e-07,9.99999e-01
4.907592831e-01,1.93675e-07,9.99999e-01,9.99999e-01,9.99897e-01,1.93694e-07,9.99999e-01
4.932130795e-01,2.62834e-07,9.99999e-01,9.99999e-01,9.99927e-01,2.62853e-07,9.99999e-01
4.956791449e-01,3.54547e-07,9.99999e-01,9.99999e-01,9.99961e-01,3.54560e-07,9.99999e-01
4.981575406e-01,4.75354e-07,9.99999e-01,9.99999e-01,9.99809e-01,4.75444e-07,9.99999e-01
5.006483283e-01,6.33545e-07,9.99999e-01,9.99999e-01,9.99506e-01,6.33859e-07,9.99996e-01
5.031515699e-01,8.38146e-07,9.99999e-01,9.99999e-01,9.97498e-01,8.40270e-07,9.99973e-01
5.056673278e-01,1.10621e-06,9.99999e-01,9.99999e-01,9.98677e-01,1.10771e-06,9.99969e-01
5.081956644e-01,1.44988e-06,9.99999e-01,9.99999e-01,9.98332e-01,1.45232e-06,9.99980e-01
5.107366428e-01,1.89185e-06,9.99999e-01,9.99999e-01,9.98873e-01,1.89399e-06,9.99995e-01
5.132903260e-01,2.45546e-06,9.99999e-01,9.99999e-01,9.99355e-01,2.45705e-06,9.99999e-01
5.158567776e-01,3.17029e-06,9.99999e-01,9.99999e-01,9.99727e-01,3.17115e-06,9.99999e-01
5.184360615e-01,4.07178e-06,9.99999e-01,9.99999e-01,9.99890e-01,4.07222e-06,9.99999e-01
5.210282418e-01,5.20335e-06,9.99999e-01,9.99999e-01,9.99958e-01,5.20356e-06,9.99999e-01
5.236333830e-01,6.61600e-06,9.99999e-01,9.99999e-01,9.99836e-01,6.61708e-06,9.99998e-01
5.262515499e-01,8.37387e-06,9.99999e-01,9.99999e-01,9.99897e-01,8.37474e-06,9.99997e-01
5.288828077e-01,1.05491e-05,9.99999e-01,9.99999e-01,9.99905e-01,1.05501e-05,9.99998e-01
5.315272217e-01,1.32289e-05,9.99999e-01,9.99999e-01,9.99917e-01,1.32299e-05,9.99999e-01
5.341848578e-01,1.65157e-05,9.99999e-01,9.99999e-01,9.99945e-01,1.65166e-05,9.99999e-01
5.368557821e-01,2.05256e-05,9.99999e-01,9.99999e-01,9.99809e-01,2.05295e-05,9.99999e-01
5.395400610e-01,2.53904e-05,9.99999e-01,9.99999e-01,9.99315e-01,2.54079e-05,9.99993e-01
5.422377613e-01,3.12853e-05,9.99999e-01,9.99999e-01,9.99112e-01,3.13136e-05,9.99983e-01
5.449489501e-01,3.84006e-05,9.99999e-01,9.99999e-01,9.99176e-01,3.84329e-05,9.99982e-01
5.476736949e-01,4.69456e-05,9.99999e-01,9.99999e-01,9.99268e-01,4.69804e-05,9.99991e-01
5.504120634e-01,5.71709e-05,9.99999e-01,9.99999e-01,9.99469e-01,5.72014e-05,9.99997e-01
5.531641237e-01,6.93573e-05,9.99999e-01,9.99999e-01,9.99732e-01,6.93759e-05,9.99999e-01
5.559299443e-01,8.38106e-05,9.99999e-01,9.99999e-01,9.99870e-01,8.38214e-05,9.99999e-01
5.587095940e-01,1.00889e-04,9.99999e-01,9.99999e-01,9.99918e-01,1.00897e-04,9.99999e-01
5.615031420e-01,1.20997e-04,9.99999e-01,9.99999e-01,9.99909e-01,1.21007e-04,9.99999e-01
5.643106577e-01,1.44591e-04,9.99999e-01,9.99999e-01,9.99898e-01,1.44606e-04,9.99998e-01
5.671322110e-01,1.71985e-04,9.99999e-01,9.99999e-01,9.98766e-01,1.72200e-04,9.99988e-01
5.699678720e-01,2.04076e-04,9.99999e-01,9.99999e-01,9.98680e-01,2.04352e-04,9.99965e-01
5.728177114e-01,2.41352e-04,9.99999e-01,9.99999e-01,9.98629e-01,2.41690e-04,9.99971e-01
5.756818000e-01,2.84540e-04,9.99999e-01,9.99999e-01,9.98741e-01,2.84904e-04,9.99982e-01
5.785602090e-01,3.34386e-04,9.99999e-01,9.99999e-01,9.98902e-01,3.34755e-04,9.99994e-01
5.814530100e-01,3.91645e-04,9.99999e-01,9.99999e-01,9.98897e-01,3.92078e-04,9.99997e-01
5.843602750e-01,4.57182e-04,9.99999e-01,9.99999e-01,9.98689e-01,4.57785e-04,9.99992e-01
5.872820764e-01,5.26840e-04,9.99999e-01,9.99999e-01,9.88760e-01,5.32870e-04,9.99919e-01
5.902184868e-01,6.09841e-04,9.99999e-01,9.99999e-01,9.86351e-01,6.18413e-04,9.99782e-01
5.931695792e-01,7.08532e-04,9.99999e-01,9.99999e-01,9.90355e-01,7.15582e-04,9.99791e-01
5.961354271e-01,8.16801e-04,9.99999e-01,9.99999e-01,9.89420e-01,8.25634e-04,9.99879e-01
5.991161043e-01,9.42546e-04,9.99999e-01,9.99999e-01,9.92269e-01,9.49923e-04,9.99962e-01
6.021116848e-01,1.08511e-03,9.99999e-01,9.99999e-01,9.95605e-01,1.08990e-03,9.99994e-01
6.051222432e-01,1.24434e-03,9.99999e-01,9.99999e-01,9.97774e-01,1.24711e-03,9.99999e-01
6.081478544e-01,1.42184e-03,9.99999e-01,9.99999e-01,9.99039e-01,1.42321e-03,9.99999e-01
6.111885937e-01,1.61928e-03,9.99999e-01,9.99999e-01,9.99593e-01,1.61994e-03,9.99999e-01
6.142445367e-01,1.83882e-03,9.99999e-01,9.99999e-01,9.99818e-01,1.83915e-03,9.99999e-01
6.173157594e-01,2.08260e-03,9.99999e-01,9.99999e-01,9.99899e-01,2.08280e-03,9.99999e-01
6.204023382e-01,2.35275e-03,9.99999e-01,9.99999e-01,9.99915e-01,2.35295e-03,9.99999e-01
6.235043498e-01,2.65074e-03,9.99999e-01,9.99999e-01,9.99628e-01,2.65173e-03,9.99998e-01
6.266218716e-01,2.97548e-03,9.99999e-01,9.99999e-01,9.98027e-01,2.98140e-03,9.99985e-01
6.297549810e-01,3.34180e-03,9.99999e-01,9.99999e-01,9.99276e-01,3.34431e-03,9.99971e-01
6.329037559e-01,3.73746e-03,9.99999e-01,9.99999e-01,9.98568e-01,3.74290e-03,9.99977e-01
6.360682746e-01,4.17454e-03,9.99999e-01,9.99999e-01,9.98782e-01,4.17968e-03,9.99986e-01
6.392486160e-01,4.64990e-03,9.99999e-01,9.99999e-01,9.98421e-01,4.65727e-03,9.99993e-01
6.424448591e-01,5.16740e-03,9.99999e-01,9.99999e-01,9.97892e-01,5.17835e-03,9.99990e-01
6.456570834e-01,5.68936e-03,9.99999e-01,9.99999e-01,9.90249e-01,5.74569e-03,9.99945e-01
6.488853688e-01,6.31558e-03,9.99999e-01,9.99999e-01,9.92837e-01,6.36210e-03,9.99847e-01
6.521297956e-01,6.97829e-03,9.99999e-01,9.99999e-01,9.92701e-01,7.03048e-03,9.99874e-01
6.553904446e-01,7.69672e-03,9.99999e-01,9.99999e-01,9.92736e-01,7.75376e-03,9.99906e-01
6.586673968e-01,8.48151e-03,9.99999e-01,9.99999e-01,9.93771e-01,8.53493e-03,9.99968e-01
6.619607338e-01,9.34313e-03,9.99999e-01,9.99999e-01,9.96394e-01,9.37699e-03,9.99992e-01
6.652705375e-01,1.02615e-02,9.99999e-01,9.99999e-01,9.97910e-01,1.02830e-02,9.99996e-01
6.685968902e-01,1.12451e-02,9.99999e-01,9.99999e-01,9.99028e-01,1.12560e-02,9.99998e-01
6.719398746e-01,1.22936e-02,9.99999e-01,9.99999e-01,9.99549e-01,1.22992e-02,9.99999e-01
6.752995740e-01,1.34122e-02,9.99999e-01,9.99999e-01,9.99756e-01,1.34155e-02,9.99999e-01
6.786760719e-01,1.46028e-02,9.99999e-01,9.99999e-01,9.99648e-01,1.46080e-02,9.99999e-01
6.820694522e-01,1.58702e-02,9.99999e-01,9.99999e-01,9.99398e-01,1.58798e-02,9.99996e-01
6.854797995e-01,1.72203e-02,9.99999e-01,9.99999e-01,9.99223e-01,1.72338e-02,9.99992e-01
6.889071985e-01,1.86379e-02,9.99999e-01,9.99999e-01,9.98128e-01,1.86731e-02,9.99982e-01
6.923517345e-01,1.95881e-02,9.99999e-01,9.99999e-01,9.69819e-01,2.02006e-02,9.99852e-01
6.958134932e-01,2.14659e-02,9.99999e-01,9.99999e-01,9.84133e-01,2.18192e-02,9.99667e-01
6.992925606e-01,2.31710e-02,9.99999e-01,9.99999e-01,9.84963e-01,2.35315e-02,9.99707e-01
7.027890234e-01,2.48643e-02,9.99999e-01,9.99999e-01,9.81428e-01,2.53405e-02,9.99775e-01
7.063029686e-01,2.68194e-02,9.99999e-01,9.99999e-01,9.84359e-01,2.72485e-02,9.99888e-01
7.098344834e-01,2.88171e-02,9.99999e-01,9.99999e-01,9.84986e-01,2.92583e-02,9.99933e-01
7.133836558e-01,3.07447e-02,9.99999e-01,9.99999e-01,9.80126e-01,3.13721e-02,9.99868e-01
7.169505741e-01,2.85989e-02,9.99999e-01,9.99999e-01,8.52228e-01,3.35924e-02,9.98968e-01
7.205353270e-01,3.31370e-02,9.99999e-01,9.99999e-01,9.24168e-01,3.59213e-02,9.98181e-01
7.241380036e-01,3.46550e-02,9.99999e-01,9.99999e-01,9.04816e-01,3.83607e-02,9.98429e-01
7.277586936e-01,3.73341e-02,9.99999e-01,9.99999e-01,9.13701e-01,4.09128e-02,9.98715e-01
7.313974871e-01,3.95496e-02,9.99999e-01,9.99999e-01,9.08082e-01,4.35791e-02,9.99398e-01
7.350544745e-01,4.39709e-02,9.99999e-01,9.99999e-01,9.48636e-01,4.63613e-02,9.99790e-01
7.387297469e-01,4.73786e-02,9.99999e-01,9.99999e-01,9.61880e-01,4.92609e-02,9.99903e-01
7.424233956e-01,5.12926e-02,9.99999e-01,9.99999e-01,9.81146e-01,5.22792e-02,9.99981e-01
7.461355126e-01,5.47817e-02,9.99999e-01,9.99999e-01,9.88534e-01,5.54172e-02,9.99996e-01
7.498661902e-01,5.83617e-02,9.99999e-01,9.99999e-01,9.94642e-01,5.86761e-02,9.99998e-01
7.536155211e-01,6.18933e-02,9.99999e-01,9.99999e-01,9.97370e-01,6.20564e-02,9.99998e-01
7.573835987e-01,6.54702e-02,9.99999e-01,9.99999e-01,9.98645e-01,6.55590e-02,9.99999e-01
7.611705167e-01,6.91260e-02,9.99999e-01,9.99999e-01,9.99158e-01,6.91842e-02,9.99999e-01
7.649763693e-01,7.28938e-02,9.99999e-01,9.99999e-01,9.99472e-01,7.29322e-02,9.99999e-01
7.688012511e-01,7.67751e-02,9.99999e-01,9.99999e-01,9.99632e-01,7.68033e-02,9.99999e-01
7.726452574e-01,8.07728e-02,9.99999e-01,9.99999e-01,9.99697e-01,8.07972e-02,9.99999e-01
7.765084837e-01,8.48773e-02,9.99999e-01,9.99999e-01,9.99571e-01,8.49137e-02,9.99998e-01
7.803910261e-01,8.09924e-02,9.99999e-01,9.10017e-01,9.98150e-01,8.91524e-02,9.99997e-01
7.842929812e-01,5.79485e-02,9.99999e-01,6.23199e-01,9.93557e-01,9.35127e-02,9.99987e-01
7.882144461e-01,5.88478e-02,9.99999e-01,6.07789e-01,9.86740e-01,9.79938e-02,9.99918e-01
7.921555184e-01,7.49112e-02,9.99999e-01,7.35278e-01,9.92702e-01,1.02595e-01,9.99841e-01
7.961162960e-01,8.59983e-02,9.99999e-01,8.11600e-01,9.87170e-01,1.07314e-01,9.99848e-01
8.000968774e-01,9.86488e-02,9.99999e-01,8.92871e-01,9.85162e-01,1.12151e-01,9.99838e-01
8.040973618e-01,1.08768e-01,9.99999e-01,9.42827e-01,9.85166e-01,1.17104e-01,9.99871e-01
8.081178486e-01,1.14991e-01,9.99999e-01,9.73332e-01,9.66978e-01,1.22172e-01,9.99879e-01
8.121584379e-01,1.09854e-01,9.99999e-01,9.91673e-01,8.70018e-01,1.27352e-01,9.99528e-01
8.162192301e-01,1.12034e-01,9.99999e-01,9.98155e-01,8.47597e-01,1.32643e-01,9.98230e-01
8.203003262e-01,1.27075e-01,9.99999e-01,9.99971e-01,9.22478e-01,1.38043e-01,9.97928e-01
8.244018279e-01,1.28068e-01,9.99999e-01,9.99999e-01,8.93628e-01,1.43549e-01,9.98351e-01
8.285238370e-01,1.34931e-01,9.99999e-01,9.99999e-01,9.05777e-01,1.49160e-01,9.98704e-01
8.326664562e-01,1.40062e-01,9.99999e-01,9.99999e-01,9.04853e-01,1.54872e-01,9.99463e-01
8.368297885e-01,1.49538e-01,9.99999e-01,9.99999e-01,9.30743e-01,1.60684e-01,9.99877e-01
8.410139374e-01,1.59620e-01,9.99999e-01,9.99999e-01,9.58208e-01,1.66593e-01,9.99927e-01
8.452190071e-01,1.69011e-01,9.99999e-01,9.99999e-01,9.79265e-01,1.72596e-01,9.99956e-01
8.494451021e-01,1.76527e-01,9.99999e-01,9.99999e-01,9.87925e-01,1.78691e-01,9.99965e-01
8.536923276e-01,1.83546e-01,9.99999e-01,9.99999e-01,9.92838e-01,1.84874e-01,9.99978e-01
8.579607893e-01,1.90298e-01,9.99999e-01,9.99999e-01,9.95586e-01,1.91142e-01,9.99994e-01
8.622505932e-01,1.96938e-01,9.99999e-01,9.99999e-01,9.97192e-01,1.97493e-01,9.99998e-01
8.665618462e-01,1.76384e-01,9.99999e-01,8.66357e-01,9.98264e-01,2.03923e-01,9.99999e-01
8.708946554e-01,6.59809e-02,9.99999e-01,3.14123e-01,9.98013e-01,2.10429e-01,9.99998e-01
8.752491287e-01,8.21330e-02,9.99999e-01,3.79414e-01,9.97343e-01,2.17008e-01,9.99996e-01
8.796253743e-01,1.29032e-01,9.99999e-01,5.78873e-01,9.96325e-01,2.23657e-01,9.99991e-01
8.840235012e-01,1.71827e-01,9.99999e-01,7.48881e-01,9.95802e-01,2.30372e-01,9.99973e-01
8.884436187e-01,2.08291e-01,9.99999e-01,8.91440e-01,9.84880e-01,2.37150e-01,9.99926e-01
8.928858368e-01,1.98705e-01,9.99999e-01,9.54411e-01,8.52545e-01,2.43988e-01,9.99579e-01
8.973502660e-01,1.86909e-01,9.99999e-01,9.88714e-01,7.54592e-01,2.50882e-01,9.97848e-01
9.018370173e-01,2.22263e-01,9.99999e-01,9.98749e-01,8.65960e-01,2.57828e-01,9.96619e-01
9.063462024e-01,2.26157e-01,9.99999e-01,9.69213e-01,8.81021e-01,2.64825e-01,9.97029e-01
9.108779334e-01,2.07254e-01,9.99999e-01,9.29199e-01,8.20698e-01,2.71867e-01,9.96913e-01
9.154323231e-01,2.18548e-01,9.99999e-01,9.82866e-01,7.98245e-01,2.78952e-01,9.97447e-01
9.200094847e-01,1.97725e-01,9.99999e-01,8.05880e-01,8.38602e-01,2.86076e-01,9.98570e-01
9.246095321e-01,1.59618e-01,9.99999e-01,6.99838e-01,7.67072e-01,2.93236e-01,9.98353e-01
9.292325798e-01,4.56047e-02,9.99999e-01,7.60503e-01,1.89134e-01,3.00429e-01,9.93594e-01
9.338787427e-01,2.79193e-02,9.99999e-01,7.64477e-01,1.15218e-01,3.07650e-01,9.73786e-01
9.385481364e-01,1.06545e-01,9.99999e-01,8.19460e-01,4.14408e-01,3.14897e-01,9.68901e-01
9.432408771e-01,8.70254e-02,9.99999e-01,8.84515e-01,3.08862e-01,3.22167e-01,9.73112e-01
9.479570815e-01,5.98498e-02,9.99999e-01,9.38948e-01,1.96249e-01,3.29457e-01,9.78061e-01
9.526968669e-01,9.16552e-02,9.99999e-01,9.70102e-01,2.82718e-01,3.36762e-01,9.86561e-01
9.574603512e-01,1.01308e-01,9.99999e-01,9.87089e-01,2.99645e-01,3.44080e-01,9.93150e-01
9.622476530e-01,1.28369e-01,9.99999e-01,9.95953e-01,3.68276e-01,3.51408e-01,9.95258e-01
9.670588912e-01,1.99717e-01,9.99999e-01,9.98785e-01,5.59102e-01,3.58743e-01,9.96754e-01
9.718941857e-01,2.51459e-01,9.99999e-01,9.99913e-01,6.88587e-01,3.66081e-01,9.97610e-01
9.767536566e-01,2.73321e-01,9.99999e-01,9.99999e-01,7.33278e-01,3.73420e-01,9.98172e-01
9.816374249e-01,3.01969e-01,9.99999e-01,9.99999e-01,7.93577e-01,3.80757e-01,9.99367e-01
9.865456120e-01,3.35690e-01,9.99999e-01,9.99999e-01,8.65096e-01,3.88089e-01,9.99867e-01
9.914783401e-01,3.61453e-01,9.99999e-01,9.99999e-01,9.14148e-01,3.95413e-01,9.99962e-01
9.964357318e-01,3.83501e-01,9.99999e-01,9.99999e-01,9.52281e-01,4.02726e-01,9.99978e-01
1.001417910e+00,3.98166e-01,9.99999e-01,9.99999e-01,9.71105e-01,4.10026e-01,9.99966e-01
1.006425000e+00,4.10377e-01,9.99999e-01,9.99999e-01,9.83429e-01,4.17311e-01,9.99953e-01
1.011457125e+00,4.20177e-01,9.99999e-01,9.99999e-01,9.89679e-01,4.24577e-01,9.99956e-01
1.016514411e+00,4.28780e-01,9.99999e-01,9.99999e-01,9.92983e-01,4.31822e-01,9.99969e-01
1.021596983e+00,4.36505e-01,9.99999e-01,9.99835e-01,9.94406e-01,4.39045e-01,9.99968e-01
1.026704968e+00,4.38839e-01,9.99999e-01,9.87723e-01,9.95635e-01,4.46242e-01,9.99979e-01
1.031838492e+00,4.07970e-01,9.99999e-01,9.02492e-01,9.96825e-01,4.53411e-01,9.99993e-01
1.036997685e+00,2.20370e-02,9.99999e-01,4.79174e-02,9.98114e-01,4.60550e-01,9.99998e-01
1.042182673e+00,1.24530e-03,9.99999e-01,2.66739e-03,9.97753e-01,4.67658e-01,9.99999e-01
1.047393587e+00,3.36691e-03,9.99999e-01,7.10979e-03,9.97020e-01,4.74731e-01,9.99998e-01
1.052630555e+00,2.57108e-07,9.99999e-01,5.35048e-07,9.95914e-01,4.81769e-01,9.99998e-01
1.057893707e+00,9.64863e-07,9.99999e-01,1.98095e-06,9.93191e-01,4.88769e-01,9.99997e-01
1.063183176e+00,3.02523e-05,9.99999e-01,6.14180e-05,9.88818e-01,4.95729e-01,9.99993e-01
1.068499092e+00,3.29386e-04,9.99999e-01,6.63376e-04,9.81342e-01,5.02648e-01,9.99986e-01
1.073841587e+00,4.44081e-03,9.99999e-01,8.85307e-03,9.78229e-01,5.09524e-01,9.99971e-01
1.079210795e+00,2.60784e-02,9.99999e-01,5.16286e-02,9.72146e-01,5.16356e-01,9.99924e-01
1.084606849e+00,9.31851e-02,9.99999e-01,1.84924e-01,9.58188e-01,5.23142e-01,9.99818e-01
1.090029883e+00,2.06723e-01,9.99999e-01,4.12779e-01,9.40669e-01,5.29880e-01,9.99624e-01
1.095480033e+00,2.94579e-01,9.99999e-01,6.45268e-01,8.46560e-01,5.36569e-01,9.99321e-01
1.100957433e+00,2.90672e-01,9.99999e-01,8.08710e-01,6.57877e-01,5.43208e-01,9.98751e-01
1.106462220e+00,1.81912e-01,9.99999e-01,9.15770e-01,3.58914e-01,5.49795e-01,9.97882e-01
1.111994531e+00,6.57592e-02,9.99999e-01,9.67867e-01,1.22084e-01,5.56330e-01,9.94390e-01
1.117554504e+00,2.04470e-02,9.99999e-01,9.92051e-01,3.72482e-02,5.62811e-01,9.79895e-01
1.123142276e+00,5.67224e-02,9.99999e-01,9.99475e-01,1.04570e-01,5.69238e-01,9.52979e-01
1.128757988e+00,1.13342e-01,9.99999e-01,9.99999e-01,2.08191e-01,5.75609e-01,9.45808e-01
1.134401778e+00,5.10116e-02,9.99999e-01,9.99999e-01,9.19132e-02,5.81923e-01,9.53729e-01
1.140073787e+00,2.12794e-01,9.99999e-01,9.99999e-01,3.75740e-01,5.88180e-01,9.62855e-01
1.145774156e+00,8.48298e-02,9.99999e-01,9.99999e-01,1.47752e-01,5.94378e-01,9.65945e-01
1.151503026e+00,7.12967e-02,9.99999e-01,9.99999e-01,1.21039e-01,6.00517e-01,9.80883e-01
1.157260541e+00,9.11363e-02,9.99999e-01,9.99999e-01,1.51111e-01,6.06597e-01,9.94245e-01
1.163046844e+00,1.49133e-01,9.99999e-01,9.99999e-01,2.43835e-01,6.12616e-01,9.98365e-01
1.168862078e+00,2.25156e-01,9.99999e-01,9.99999e-01,3.64299e-01,6.18574e-01,9.99157e-01
1.174706389e+00,3.33839e-01,9.99999e-01,9.99999e-01,5.35192e-01,6.24471e-01,9.98883e-01
1.180579921e+00,4.29026e-01,9.99999e-01,9.99999e-01,6.81813e-01,6.30306e-01,9.98312e-01
1.186482820e+00,5.10624e-01,9.99999e-01,9.99978e-01,8.04174e-01,6.36079e-01,9.98267e-01
1.192415234e+00,5.41587e-01,9.99999e-01,9.58412e-01,8.80282e-01,6.41789e-01,9.98702e-01
1.198377311e+00,3.03970e-01,9.99999e-01,5.14004e-01,8.98191e-01,6.47436e-01,9.98774e-01
1.204369197e+00,4.02740e-32,9.99999e-01,6.54803e-32,9.03653e-01,6.53019e-01,9.98890e-01
1.210391043e+00,1.69352e-130,9.99999e-01,2.71627e-130,9.07488e-01,6.58539e-01,9.99324e-01
1.216442998e+00,6.64487e-113,9.99999e-01,1.05376e-112,9.20705e-01,6.63995e-01,9.99586e-01
1.222525213e+00,3.36467e-111,9.99999e-01,5.19739e-111,9.37619e-01,6.69388e-01,9.99742e-01
1.228637839e+00,9.48313e-86,9.99999e-01,1.44860e-85,9.56250e-01,6.74716e-01,9.99880e-01
