#,Wave/freq,Total,N2,CO2,H2O,Rayleigh,CIA
4.000000000e-01,2.56258e-03,9.99999e-01,9.99999e-01,9.99988e-01,2.56261e-03,9.99999e-01
4.020000000e-01,2.88347e-03,9.99999e-01,9.99999e-01,9.99992e-01,2.88349e-03,9.99999e-01
4.040100000e-01,3.23661e-03,9.99999e-01,9.99999e-01,9.99996e-01,3.23662e-03,9.99999e-01
4.060300500e-01,3.62471e-03,9.99999e-01,9.99999e-01,9.99998e-01,3.62471e-03,9.99999e-01
4.080602003e-01,4.05027e-03,9.99999e-01,9.99999e-01,9.99999e-01,4.05027e-03,9.99999e-01
4.101005013e-01,4.51588e-03,9.99999e-01,9.99999e-01,9.99999e-01,4.51588e-03,9.99999e-01
4.121510038e-01,5.02419e-03,9.99999e-01,9.99999e-01,9.99999e-01,5.02420e-03,9.99999e-01
4.142117588e-01,5.57795e-03,9.99999e-01,9.99999e-01,9.99996e-01,5.57797e-03,9.99999e-01
4.162828176e-01,6.17992e-03,9.99999e-01,9.99999e-01,9.99985e-01,6.18001e-03,9.99999e-01
4.183642317e-01,6.83311e-03,9.99999e-01,9.99999e-01,9.99991e-01,6.83317e-03,9.99999e-01
4.204560528e-01,7.54035e-03,9.99999e-01,9.99999e-01,9.99994e-01,7.54039e-03,9.99999e-01
4.225583331e-01,8.30462e-03,9.99999e-01,9.99999e-01,9.99997e-01,8.30464e-03,9.99999e-01
4.246711247e-01,9.12890e-03,9.99999e-01,9.99999e-01,9.99997e-01,9.12892e-03,9.99999e-01
4.267944804e-01,1.00162e-02,9.99999e-01,9.99999e-01,9.99997e-01,1.00163e-02,9.99999e-01
4.289284528e-01,1.09697e-02,9.99999e-01,9.99999e-01,9.99997e-01,1.09698e-02,9.99999e-01
4.310730950e-01,1.19924e-02,9.99999e-01,9.99999e-01,9.99998e-01,1.19925e-02,9.99999e-01
4.332284605e-01,1.30874e-02,9.99999e-01,9.99999e-01,9.99999e-01,1.30874e-02,9.99999e-01
4.353946028e-01,1.42578e-02,9.99999e-01,9.99999e-01,9.99999e-01,1.42578e-02,9.99999e-01
4.375715758e-01,1.55065e-02,9.99999e-01,9.99999e-01,9.99998e-01,1.55065e-02,9.99999e-01
4.397594337e-01,1.68364e-02,9.99999e-01,9.99999e-01,9.99986e-01,1.68366e-02,9.99999e-01
4.419582309e-01,1.82500e-02,9.99999e-01,9.99999e-01,9.99935e-01,1.82512e-02,9.99999e-01
4.441680220e-01,1.97521e-02,9.99999e-01,9.99999e-01,9.99950e-01,1.97531e-02,9.99999e-01
4.463888621e-01,2.13441e-02,9.99999e-01,9.99999e-01,9.99948e-01,2.13452e-02,9.99999e-01
4.486208064e-01,2.30296e-02,9.99999e-01,9.99999e-01,9.99967e-01,2.30303e-02,9.99999e-01
4.508639105e-01,2.48109e-02,9.99999e-01,9.99999e-01,9.99984e-01,2.48113e-02,9.99999e-01
4.531182300e-01,2.66905e-02,9.99999e-01,9.99999e-01,9.99993e-01,2.66906e-02,9.99999e-01
4.553838212e-01,2.86708e-02,9.99999e-01,9.99999e-01,9.99995e-01,2.86709e-02,9.99999e-01
4.576607403e-01,3.07546e-02,9.99999e-01,9.99999e-01,9.99997e-01,3.07547e-02,9.99999e-01
4.599490440e-01,3.29442e-02,9.99999e-01,9.99999e-01,9.99998e-01,3.29442e-02,9.99999e-01
4.622487892e-01,3.52417e-02,9.99999e-01,9.99999e-01,9.99999e-01,3.52417e-02,9.99999e-01
4.645600332e-01,3.76492e-02,9.99999e-01,9.99999e-01,9.99998e-01,3.76492e-02,9.99999e-01
4.668828333e-01,4.01681e-02,9.99999e-01,9.99999e-01,9.99984e-01,4.01687e-02,9.99999e-01
4.692172475e-01,4.28007e-02,9.99999e-01,9.99999e-01,9.99967e-01,4.28021e-02,9.99999e-01
4.715633337e-01,4.55499e-02,9.99999e-01,9.99999e-01,9.99978e-01,4.55509e-02,9.99999e-01
4.739211504e-01,4.84157e-02,9.99999e-01,9.99999e-01,9.99979e-01,4.84166e-02,9.99999e-01
4.762907561e-01,5.14002e-02,9.99999e-01,9.99999e-01,9.99989e-01,5.14007e-02,9.99999e-01
4.786722099e-01,5.45041e-02,9.99999e-01,9.99999e-01,9.99995e-01,5.45043e-02,9.99999e-01
4.810655710e-01,5.77283e-02,9.99999e-01,9.99999e-01,9.99998e-01,5.77284e-02,9.99999e-01
4.834708988e-01,6.10730e-02,9.99999e-01,9.99999e-01,9.99986e-01,6.10738e-02,9.99999e-01
4.858882533e-01,6.45398e-02,9.99999e-01,9.99999e-01,9.99976e-01,6.45412e-02,9.99999e-01
4.883176946e-01,6.81299e-02,9.99999e-01,9.99999e-01,9.99980e-01,6.81312e-02,9.99999e-01
4.907592831e-01,7.18427e-02,9.99999e-01,9.99999e-01,9.99982e-01,7.18440e-02,9.99999e-01
4.932130795e-01,7.56788e-02,9.99999e-01,9.99999e-01,9.99987e-01,7.56797e-02,9.99999e-01
4.956791449e-01,7.96379e-02,9.99999e-01,9.99999e-01,9.99993e-01,7.96384e-02,9.99999e-01
4.981575406e-01,8.37170e-02,9.99999e-01,9.99999e-01,9.99966e-01,8.37197e-02,9.99999e-01
5.006483283e-01,8.79160e-02,9.99999e-01,9.99999e-01,9.99914e-01,8.79234e-02,9.99998e-01
5.031515699e-01,9.22091e-02,9.99999e-01,9.99999e-01,9.99571e-01,9.22489e-02,9.99995e-01
5.056673278e-01,9.66731e-02,9.99999e-01,9.99999e-01,9.99774e-01,9.66954e-02,9.99994e-01
5.081956644e-01,1.01233e-01,9.99999e-01,9.99999e-01,9.99715e-01,1.01262e-01,9.99996e-01
5.107366428e-01,1.05927e-01,9.99999e-01,9.99999e-01,9.99807e-01,1.05948e-01,9.99998e-01
5.132903260e-01,1.10739e-01,9.99999e-01,9.99999e-01,9.99890e-01,1.10751e-01,9.99999e-01
5.158567776e-01,1.15666e-01,9.99999e-01,9.99999e-01,9.99953e-01,1.15671e-01,9.99999e-01
5.184360615e-01,1.20704e-01,9.99999e-01,9.99999e-01,9.99981e-01,1.20706e-01,9.99999e-01
5.210282418e-01,1.25853e-01,9.99999e-01,9.99999e-01,9.99992e-01,1.25854e-01,9.99999e-01
5.236333830e-01,1.31110e-01,9.99999e-01,9.99999e-01,9.99971e-01,1.31113e-01,9.99999e-01
5.262515499e-01,1.36479e-01,9.99999e-01,9.99999e-01,9.99982e-01,1.36482e-01,9.99999e-01
5.288828077e-01,1.41956e-01,9.99999e-01,9.99999e-01,9.99983e-01,1.41958e-01,9.99999e-01
5.315272217e-01,1.47537e-01,9.99999e-01,9.99999e-01,9.99985e-01,1.47539e-01,9.99999e-01
5.341848578e-01,1.53221e-01,9.99999e-01,9.99999e-01,9.99990e-01,1.53223e-01,9.99999e-01
5.368557821e-01,1.59001e-01,9.99999e-01,9.99999e-01,9.99967e-01,1.59006e-01,9.99999e-01
5.395400610e-01,1.64868e-01,9.99999e-01,9.99999e-01,9.99881e-01,1.64888e-01,9.99998e-01
5.422377613e-01,1.70838e-01,9.99999e-01,9.99999e-01,9.99848e-01,1.70864e-01,9.99996e-01
5.449489501e-01,1.76907e-01,9.99999e-01,9.99999e-01,9.99858e-01,1.76933e-01,9.99996e-01
5.476736949e-01,1.83067e-01,9.99999e-01,9.99999e-01,9.99875e-01,1.83090e-01,9.99998e-01
5.504120634e-01,1.89317e-01,9.99999e-01,9.99999e-01,9.99909e-01,1.89335e-01,9.99999e-01
5.531641237e-01,1.95653e-01,9.99999e-01,9.99999e-01,9.99954e-01,1.95662e-01,9.99999e-01
5.559299443e-01,2.02065e-01,9.99999e-01,9.99999e-01,9.99977e-01,2.02070e-01,9.99999e-01
5.587095940e-01,2.08551e-01,9.99999e-01,9.99999e-01,9.99985e-01,2.08554e-01,9.99999e-01
5.615031420e-01,2.15109e-01,9.99999e-01,9.99999e-01,9.99984e-01,2.15113e-01,9.99999e-01
5.643106577e-01,2.21738e-01,9.99999e-01,9.99999e-01,9.99982e-01,2.21742e-01,9.99999e-01
5.671322110e-01,2.28389e-01,9.99999e-01,9.99999e-01,9.99785e-01,2.28438e-01,9.99997e-01
5.699678720e-01,2.35145e-01,9.99999e-01,9.99999e-01,9.99776e-01,2.35198e-01,9.99993e-01
5.728177114e-01,2.41962e-01,9.99999e-01,9.99999e-01,9.99765e-01,2.42019e-01,9.99994e-01
5.756818000e-01,2.48844e-01,9.99999e-01,9.99999e-01,9.99784e-01,2.48898e-01,9.99996e-01
5.785602090e-01,2.55782e-01,9.99999e-01,9.99999e-01,9.99812e-01,2.55830e-01,9.99998e-01
5.814530100e-01,2.62763e-01,9.99999e-01,9.99999e-01,9.99811e-01,2.62812e-01,9.99999e-01
5.843602750e-01,2.69780e-01,9.99999e-01,9.99999e-01,9.99774e-01,2.69841e-01,9.99998e-01
5.872820764e-01,2.76374e-01,9.99999e-01,9.99999e-01,9.98059e-01,2.76914e-01,9.99985e-01
5.902184868e-01,2.83354e-01,9.99999e-01,9.99999e-01,9.97663e-01,2.84028e-01,9.99962e-01
5.931695792e-01,2.90686e-01,9.99999e-01,9.99999e-01,9.98345e-01,2.91178e-01,9.99963e-01
5.961354271e-01,2.97815e-01,9.99999e-01,9.99999e-01,9.98189e-01,2.98361e-01,9.99979e-01
5.991161043e-01,3.05170e-01,9.99999e-01,9.99999e-01,9.98680e-01,3.05575e-01,9.99993e-01
6.021116848e-01,3.12581e-01,9.99999e-01,9.99999e-01,9.99251e-01,3.12815e-01,9.99998e-01
6.051222432e-01,3.19958e-01,9.99999e-01,9.99999e-01,9.99621e-01,3.20079e-01,9.99999e-01
6.081478544e-01,3.27309e-01,9.99999e-01,9.99999e-01,9.99836e-01,3.27363e-01,9.99999e-01
6.111885937e-01,3.34641e-01,9.99999e-01,9.99999e-01,9.99930e-01,3.34664e-01,9.99999e-01
6.142445367e-01,3.41968e-01,9.99999e-01,9.99999e-01,9.99968e-01,3.41979e-01,9.99999e-01
6.173157594e-01,3.49298e-01,9.99999e-01,9.99999e-01,9.99982e-01,3.49304e-01,9.99999e-01
6.204023382e-01,3.56632e-01,9.99999e-01,9.99999e-01,9.99985e-01,3.56637e-01,9.99999e-01
6.235043498e-01,3.63951e-01,9.99999e-01,9.99999e-01,9.99935e-01,3.63975e-01,9.99999e-01
6.266218716e-01,3.71188e-01,9.99999e-01,9.99999e-01,9.99662e-01,3.71314e-01,9.99997e-01
6.297549810e-01,3.78603e-01,9.99999e-01,9.99999e-01,9.99876e-01,3.78651e-01,9.99994e-01
6.329037559e-01,3.85890e-01,9.99999e-01,9.99999e-01,9.99756e-01,3.85985e-01,9.99995e-01
6.360682746e-01,3.93229e-01,9.99999e-01,9.99999e-01,9.99791e-01,3.93312e-01,9.99997e-01
6.392486160e-01,4.00520e-01,9.99999e-01,9.99999e-01,9.99730e-01,4.00628e-01,9.99998e-01
6.424448591e-01,4.07784e-01,9.99999e-01,9.99999e-01,9.99637e-01,4.07933e-01,9.99997e-01
6.456570834e-01,4.14520e-01,9.99999e-01,9.99999e-01,9.98318e-01,4.15222e-01,9.99989e-01
6.488853688e-01,4.21966e-01,9.99999e-01,9.99999e-01,9.98776e-01,4.22494e-01,9.99973e-01
6.521297956e-01,4.29201e-01,9.99999e-01,9.99999e-01,9.98753e-01,4.29745e-01,9.99978e-01
6.553904446e-01,4.36424e-01,9.99999e-01,9.99999e-01,9.98755e-01,4.36975e-01,9.99983e-01
6.586673968e-01,4.43705e-01,9.99999e-01,9.99999e-01,9.98937e-01,4.44179e-01,9.99994e-01
6.619607338e-01,4.51089e-01,9.99999e-01,9.99999e-01,9.99407e-01,4.51356e-01,9.99998e-01
6.652705375e-01,4.58342e-01,9.99999e-01,9.99999e-01,9.99644e-01,4.58505e-01,9.99998e-01
6.685968902e-01,4.65551e-01,9.99999e-01,9.99999e-01,9.99848e-01,4.65621e-01,9.99999e-01
6.719398746e-01,4.72669e-01,9.99999e-01,9.99999e-01,9.99923e-01,4.72705e-01,9.99999e-01
6.752995740e-01,4.79733e-01,9.99999e-01,9.99999e-01,9.99958e-01,4.79753e-01,9.99999e-01
6.786760719e-01,4.86735e-01,9.99999e-01,9.99999e-01,9.99939e-01,4.86764e-01,9.99999e-01
6.820694522e-01,4.93685e-01,9.99999e-01,9.99999e-01,9.99896e-01,4.93736e-01,9.99998e-01
6.854797995e-01,5.00600e-01,9.99999e-01,9.99999e-01,9.99867e-01,5.00667e-01,9.99998e-01
6.889071985e-01,5.07390e-01,9.99999e-01,9.99999e-01,9.99675e-01,5.07556e-01,9.99996e-01
6.923517345e-01,5.11685e-01,9.99999e-01,9.99999e-01,9.94746e-01,5.14400e-01,9.99974e-01
6.958134932e-01,5.19763e-01,9.99999e-01,9.99999e-01,9.97299e-01,5.21199e-01,9.99944e-01
6.992925606e-01,5.26554e-01,9.99999e-01,9.99999e-01,9.97403e-01,5.27951e-01,9.99949e-01
7.027890234e-01,5.32929e-01,9.99999e-01,9.99999e-01,9.96810e-01,5.34654e-01,9.99961e-01
7.063029686e-01,5.39845e-01,9.99999e-01,9.99999e-01,9.97317e-01,5.41308e-01,9.99980e-01
7.098344834e-01,5.46494e-01,9.99999e-01,9.99999e-01,9.97426e-01,5.47910e-01,9.99988e-01
7.133836558e-01,5.52531e-01,9.99999e-01,9.99999e-01,9.96542e-01,5.54460e-01,9.99977e-01
7.169505741e-01,5.45433e-01,9.99999e-01,9.99999e-01,9.72496e-01,5.60957e-01,9.99823e-01
7.205353270e-01,5.59632e-01,9.99999e-01,9.99999e-01,9.86616e-01,5.67399e-01,9.99689e-01
7.241380036e-01,5.63809e-01,9.99999e-01,9.99999e-01,9.82874e-01,5.73786e-01,9.99731e-01
7.277586936e-01,5.71024e-01,9.99999e-01,9.99999e-01,9.84541e-01,5.80117e-01,9.99780e-01
7.313974871e-01,5.76744e-01,9.99999e-01,9.99999e-01,9.83650e-01,5.86390e-01,9.99897e-01
7.350544745e-01,5.87272e-01,9.99999e-01,9.99999e-01,9.91035e-01,5.92605e-01,9.99963e-01
7.387297469e-01,5.94803e-01,9.99999e-01,9.99999e-01,9.93403e-01,5.98761e-01,9.99983e-01
7.424233956e-01,6.02905e-01,9.99999e-01,9.99999e-01,9.96773e-01,6.04858e-01,9.99996e-01
7.461355126e-01,6.09699e-01,9.99999e-01,9.99999e-01,9.98042e-01,6.10895e-01,9.99999e-01
7.498661902e-01,6.16309e-01,9.99999e-01,9.99999e-01,9.99089e-01,6.16871e-01,9.99999e-01
7.536155211e-01,6.22507e-01,9.99999e-01,9.99999e-01,9.99552e-01,6.22785e-01,9.99999e-01
7.573835987e-01,6.28493e-01,9.99999e-01,9.99999e-01,9.99769e-01,6.28638e-01,9.99999e-01
7.611705167e-01,6.34338e-01,9.99999e-01,9.99999e-01,9.99856e-01,6.34429e-01,9.99999e-01
7.649763693e-01,6.40099e-01,9.99999e-01,9.99999e-01,9.99909e-01,6.40157e-01,9.99999e-01
7.688012511e-01,6.45781e-01,9.99999e-01,9.99999e-01,9.99937e-01,6.45821e-01,9.99999e-01
7.726452574e-01,6.51390e-01,9.99999e-01,9.99999e-01,9.99948e-01,6.51423e-01,9.99999e-01
7.765084837e-01,6.56913e-01,9.99999e-01,9.99999e-01,9.99926e-01,6.56961e-01,9.99999e-01
7.803910261e-01,6.48633e-01,9.99999e-01,9.79468e-01,9.99681e-01,6.62436e-01,9.99999e-01
7.842929812e-01,6.11874e-01,9.99999e-01,9.17179e-01,9.98890e-01,6.67847e-01,9.99997e-01
7.882144461e-01,6.11876e-01,9.99999e-01,9.10952e-01,9.97726e-01,6.73193e-01,9.99983e-01
7.921555184e-01,6.42201e-01,9.99999e-01,9.47721e-01,9.98756e-01,6.78476e-01,9.99972e-01
7.961162960e-01,6.58267e-01,9.99999e-01,9.64956e-01,9.97787e-01,6.83694e-01,9.99973e-01
8.000968774e-01,6.73912e-01,9.99999e-01,9.80834e-01,9.97454e-01,6.88849e-01,9.99972e-01
8.040973618e-01,6.85277e-01,9.99999e-01,9.90057e-01,9.97451e-01,6.93939e-01,9.99978e-01
8.081178486e-01,6.91738e-01,9.99999e-01,9.95413e-01,9.94235e-01,6.98965e-01,9.99978e-01
8.121584379e-01,6.86124e-01,9.99999e-01,9.98590e-01,9.76153e-01,7.03928e-01,9.99919e-01
8.162192301e-01,6.88486e-01,9.99999e-01,9.99688e-01,9.71896e-01,7.08826e-01,9.99697e-01
8.203003262e-01,7.03191e-01,9.99999e-01,9.99995e-01,9.85681e-01,7.13661e-01,9.99646e-01
8.244018279e-01,7.04084e-01,9.99999e-01,9.99999e-01,9.80303e-01,7.18432e-01,9.99718e-01
8.285238370e-01,7.10762e-01,9.99999e-01,9.99999e-01,9.83099e-01,7.23140e-01,9.99778e-01
8.326664562e-01,7.15312e-01,9.99999e-01,9.99999e-01,9.82951e-01,7.27785e-01,9.99908e-01
8.368297885e-01,7.23438e-01,9.99999e-01,9.99999e-01,9.87827e-01,7.32367e-01,9.99978e-01
8.410139374e-01,7.31542e-01,9.99999e-01,9.99999e-01,9.92757e-01,7.36887e-01,9.99987e-01
8.452190071e-01,7.38706e-01,9.99999e-01,9.99999e-01,9.96447e-01,7.41345e-01,9.99992e-01
8.494451021e-01,7.44195e-01,9.99999e-01,9.99999e-01,9.97933e-01,7.45740e-01,9.99993e-01
8.536923276e-01,7.49157e-01,9.99999e-01,9.99999e-01,9.98780e-01,7.50074e-01,9.99995e-01
8.579607893e-01,7.53779e-01,9.99999e-01,9.99999e-01,9.99247e-01,7.54347e-01,9.99998e-01
8.622505932e-01,7.58197e-01,9.99999e-01,9.99999e-01,9.99522e-01,7.58559e-01,9.99999e-01
8.665618462e-01,7.22526e-01,9.99999e-01,9.47585e-01,9.99703e-01,7.62711e-01,9.99999e-01
8.708946554e-01,6.13280e-01,9.99999e-01,8.00053e-01,9.99660e-01,7.66803e-01,9.99999e-01
8.752491287e-01,6.45268e-01,9.99999e-01,8.37475e-01,9.99546e-01,7.70835e-01,9.99999e-01
8.796253743e-01,7.03102e-01,9.99999e-01,9.08015e-01,9.99370e-01,7.74808e-01,9.99998e-01
8.840235012e-01,7.40346e-01,9.99999e-01,9.51400e-01,9.99281e-01,7.78723e-01,9.99995e-01
8.884436187e-01,7.65392e-01,9.99999e-01,9.80635e-01,9.97347e-01,7.82579e-01,9.99987e-01
8.928858368e-01,7.58699e-01,9.99999e-01,9.92109e-01,9.72506e-01,7.86378e-01,9.99927e-01
8.973502660e-01,7.50548e-01,9.99999e-01,9.98085e-01,9.52065e-01,7.90120e-01,9.99632e-01
9.018370173e-01,7.73625e-01,9.99999e-01,9.99788e-01,9.75342e-01,7.93805e-01,9.99422e-01
9.063462024e-01,7.75324e-01,9.99999e-01,9.94459e-01,9.78089e-01,7.97434e-01,9.99492e-01
9.108779334e-01,7.63909e-01,9.99999e-01,9.87549e-01,9.66132e-01,8.01007e-01,9.99472e-01
9.154323231e-01,7.71145e-01,9.99999e-01,9.97084e-01,9.61695e-01,8.04526e-01,9.99564e-01
9.200094847e-01,7.50083e-01,9.99999e-01,9.56470e-01,9.69896e-01,8.07989e-01,9.99755e-01
9.246095321e-01,7.26913e-01,9.99999e-01,9.40394e-01,9.52281e-01,8.11399e-01,9.99718e-01
9.292325798e-01,5.60605e-01,9.99999e-01,9.52474e-01,7.21002e-01,8.14756e-01,9.98644e-01
9.338787427e-01,5.11619e-01,9.99999e-01,9.54441e-01,6.56401e-01,8.18059e-01,9.95111e-01
9.385481364e-01,6.67415e-01,9.99999e-01,9.66370e-01,8.44428e-01,8.21311e-01,9.94630e-01
9.432408771e-01,6.33251e-01,9.99999e-01,9.79338e-01,7.87323e-01,8.24511e-01,9.95365e-01
9.479570815e-01,5.84889e-01,9.99999e-01,9.89335e-01,7.16728e-01,8.27659e-01,9.96226e-01
9.526968669e-01,6.45254e-01,9.99999e-01,9.94850e-01,7.82300e-01,8.30757e-01,9.97696e-01
9.574603512e-01,6.65120e-01,9.99999e-01,9.97796e-01,8.00320e-01,8.33806e-01,9.98829e-01
9.622476530e-01,6.97742e-01,9.99999e-01,9.99312e-01,8.35046e-01,8.36804e-01,9.99190e-01
9.670588912e-01,7.56388e-01,9.99999e-01,9.99794e-01,9.01403e-01,8.39754e-01,9.99445e-01
9.718941857e-01,7.89571e-01,9.99999e-01,9.99985e-01,9.37397e-01,8.42656e-01,9.99591e-01
9.767536566e-01,8.01091e-01,9.99999e-01,9.99999e-01,9.47759e-01,8.45511e-01,9.99687e-01
9.816374249e-01,8.15246e-01,9.99999e-01,9.99999e-01,9.61118e-01,8.48318e-01,9.99891e-01
9.865456120e-01,8.30253e-01,9.99999e-01,9.99999e-01,9.75551e-01,8.51079e-01,9.99977e-01
9.914783401e-01,8.40830e-01,9.99999e-01,9.99999e-01,9.84821e-01,8.53794e-01,9.99993e-01
9.964357318e-01,8.49360e-01,9.99999e-01,9.99999e-01,9.91709e-01,8.56464e-01,9.99995e-01
1.001417910e+00,8.54811e-01,9.99999e-01,9.99999e-01,9.95025e-01,8.59089e-01,9.99993e-01
1.006425000e+00,8.59215e-01,9.99999e-01,9.99999e-01,9.97158e-01,8.61670e-01,9.99991e-01
1.011457125e+00,8.62679e-01,9.99999e-01,9.99999e-01,9.98238e-01,8.64208e-01,9.99992e-01
1.016514411e+00,8.65661e-01,9.99999e-01,9.99999e-01,9.98802e-01,8.66703e-01,9.99994e-01
1.021596983e+00,8.68294e-01,9.99999e-01,9.99967e-01,9.99045e-01,8.69155e-01,9.99994e-01
1.026704968e+00,8.69033e-01,9.99999e-01,9.97838e-01,9.99255e-01,8.71566e-01,9.99996e-01
1.031838492e+00,8.45940e-01,9.99999e-01,9.68476e-01,9.99459e-01,8.73936e-01,9.99998e-01
1.036997685e+00,2.20287e-01,9.99999e-01,2.51461e-01,9.99678e-01,8.76265e-01,9.99999e-01
1.042182673e+00,2.52732e-01,9.99999e-01,2.87771e-01,9.99615e-01,8.78554e-01,9.99999e-01
1.047393587e+00,2.41535e-01,9.99999e-01,2.74347e-01,9.99490e-01,8.80804e-01,9.99999e-01
1.052630555e+00,2.73458e-02,9.99999e-01,3.09856e-02,9.99301e-01,8.83015e-01,9.99999e-01
1.057893707e+00,5.49268e-02,9.99999e-01,6.21064e-02,9.98832e-01,8.85187e-01,9.99999e-01
1.063183176e+00,1.17306e-01,9.99999e-01,1.32404e-01,9.98079e-01,8.87322e-01,9.99998e-01
1.068499092e+00,2.26988e-01,9.99999e-01,2.55946e-01,9.96788e-01,8.89420e-01,9.99997e-01
1.073841587e+00,3.76914e-01,9.99999e-01,4.24235e-01,9.96236e-01,8.91481e-01,9.99994e-01
1.079210795e+00,5.17517e-01,9.99999e-01,5.81856e-01,9.95189e-01,8.93506e-01,9.99986e-01
1.084606849e+00,6.61557e-01,9.99999e-01,7.44056e-01,9.92716e-01,8.95496e-01,9.99968e-01
1.090029883e+00,7.61960e-01,9.99999e-01,8.57941e-01,9.89508e-01,8.97450e-01,9.99935e-01
1.095480033e+00,8.10531e-01,9.99999e-01,9.27414e-01,9.71695e-01,8.99370e-01,9.99883e-01
1.100957433e+00,8.07883e-01,9.99999e-01,9.64380e-01,9.29501e-01,9.01256e-01,9.99786e-01
1.106462220e+00,7.37781e-01,9.99999e-01,9.85134e-01,8.29295e-01,9.03109e-01,9.99638e-01
1.111994531e+00,6.06444e-01,9.99999e-01,9.94465e-01,6.74369e-01,9.04929e-01,9.99041e-01
1.117554504e+00,4.76045e-01,9.99999e-01,9.98650e-01,5.27470e-01,9.06716e-01,9.96544e-01
1.123142276e+00,5.60125e-01,9.99999e-01,9.99911e-01,6.21674e-01,9.08472e-01,9.91825e-01
1.128757988e+00,6.66464e-01,9.99999e-01,9.99999e-01,7.39205e-01,9.10196e-01,9.90549e-01
1.134401778e+00,4.48119e-01,9.99999e-01,9.99999e-01,4.95401e-01,9.11889e-01,9.91958e-01
1.140073787e+00,7.59149e-01,9.99999e-01,9.99999e-01,8.36363e-01,9.13552e-01,9.93569e-01
1.145774156e+00,6.25340e-01,9.99999e-01,9.99999e-01,6.87339e-01,9.15185e-01,9.94112e-01
1.151503026e+00,6.00448e-01,9.99999e-01,9.99999e-01,6.57104e-01,9.16789e-01,9.96715e-01
1.157260541e+00,6.49405e-01,9.99999e-01,9.99999e-01,7.07828e-01,9.18363e-01,9.99016e-01
1.163046844e+00,7.13012e-01,9.99999e-01,9.99999e-01,7.75305e-01,9.19909e-01,9.99720e-01
1.168862078e+00,7.72648e-01,9.99999e-01,9.99999e-01,8.38653e-01,9.21427e-01,9.99855e-01
1.174706389e+00,8.27806e-01,9.99999e-01,9.99999e-01,8.97114e-01,9.22918e-01,9.99809e-01
1.180579921e+00,8.65061e-01,9.99999e-01,9.99999e-01,9.36095e-01,9.24381e-01,9.99711e-01
1.186482820e+00,8.91667e-01,9.99999e-01,9.99994e-01,9.63400e-01,9.25818e-01,9.99704e-01
1.192415234e+00,9.00068e-01,9.99999e-01,9.92226e-01,9.78479e-01,9.27229e-01,9.99778e-01
1.198377311e+00,5.28398e-01,9.99999e-01,5.77966e-01,9.81809e-01,9.28614e-01,9.99790e-01
1.204369197e+00,2.43808e-07,9.99999e-01,2.64857e-07,9.82778e-01,9.29973e-01,9.99810e-01
1.210391043e+00,4.19741e-24,9.99999e-01,4.54922e-24,9.83533e-01,9.31308e-01,9.99884e-01
1.216442998e+00,4.19417e-21,9.99999e-01,4.53695e-21,9.85993e-01,9.32618e-01,9.99929e-01
1.222525213e+00,8.36015e-21,9.99999e-01,9.00336e-21,9.89078e-01,9.33904e-01,9.99955e-01
1.228637839e+00,4.81528e-16,9.99999e-01,5.17711e-16,9.92402e-01,9.35166e-01,9.99979e-01
