#,Wave/freq,Total,N2,CO2,H2O,Rayleigh,CIA
4.000000000e-01,4.64846e-08,9.99999e-01,9.99999e-01,9.99967e-01,4.64861e-08,9.99999e-01
4.020000000e-01,6.49088e-08,9.99999e-01,9.99999e-01,9.99979e-01,6.49101e-08,9.99999e-01
4.040100000e-01,9.00084e-08,9.99999e-01,9.99999e-01,9.99990e-01,9.00092e-08,9.99999e-01
4.060300500e-01,1.24010e-07,9.99999e-01,9.99999e-01,9.99997e-01,1.24010e-07,9.99999e-01
4.080602003e-01,1.69777e-07,9.99999e-01,9.99999e-01,9.99998e-01,1.69777e-07,9.99999e-01
4.101005013e-01,2.30996e-07,9.99999e-01,9.99999e-01,9.99999e-01,2.30996e-07,9.99999e-01
4.121510038e-01,3.12385e-07,9.99999e-01,9.99999e-01,9.99998e-01,3.12385e-07,9.99999e-01
4.142117588e-01,4.19935e-07,9.99999e-01,9.99999e-01,9.99990e-01,4.19939e-07,9.99999e-01
4.162828176e-01,5.61212e-07,9.99999e-01,9.99999e-01,9.99959e-01,5.61234e-07,9.99999e-01
4.183642317e-01,7.45768e-07,9.99999e-01,9.99999e-01,9.99975e-01,7.45786e-07,9.99999e-01
4.204560528e-01,9.85459e-07,9.99999e-01,9.99999e-01,9.99984e-01,9.85474e-07,9.99999e-01
4.225583331e-01,1.29504e-06,9.99999e-01,9.99999e-01,9.99994e-01,1.29505e-06,9.99999e-01
4.246711247e-01,1.69270e-06,9.99999e-01,9.99999e-01,9.99995e-01,1.69271e-06,9.99999e-01
4.267944804e-01,2.20079e-06,9.99999e-01,9.99999e-01,9.99993e-01,2.20081e-06,9.99999e-01
4.289284528e-01,2.84661e-06,9.99999e-01,9.99999e-01,9.99994e-01,2.84662e-06,9.99999e-01
4.310730950e-01,3.66328e-06,9.99999e-01,9.99999e-01,9.99997e-01,3.66329e-06,9.99999e-01
4.332284605e-01,4.69081e-06,9.99999e-01,9.99999e-01,9.99998e-01,4.69081e-06,9.99999e-01
4.353946028e-01,5.97728e-06,9.99999e-01,9.99999e-01,9.99999e-01,5.97729e-06,9.99999e-01
4.375715758e-01,7.58018e-06,9.99999e-01,9.99999e-01,9.99995e-01,7.58021e-06,9.99999e-01
4.397594337e-01,9.56764e-06,9.99999e-01,9.99999e-01,9.99964e-01,9.56797e-06,9.99999e-01
4.419582309e-01,1.20194e-05,9.99999e-01,9.99999e-01,9.99821e-01,1.20216e-05,9.99999e-01
4.441680220e-01,1.50343e-05,9.99999e-01,9.99999e-01,9.99859e-01,1.50364e-05,9.99999e-01
4.463888621e-01,1.87217e-05,9.99999e-01,9.99999e-01,9.99853e-01,1.87244e-05,9.99999e-01
4.486208064e-01,2.32140e-05,9.99999e-01,9.99999e-01,9.99908e-01,2.32161e-05,9.99999e-01
4.508639105e-01,2.86621e-05,9.99999e-01,9.99999e-01,9.99957e-01,2.86633e-05,9.99999e-01
4.531182300e-01,3.52410e-05,9.99999e-01,9.99999e-01,9.99982e-01,3.52416e-05,9.99999e-01
4.553838212e-01,4.31526e-05,9.99999e-01,9.99999e-01,9.99988e-01,4.31531e-05,9.99999e-01
4.576607403e-01,5.26295e-05,9.99999e-01,9.99999e-01,9.99994e-01,5.26298e-05,9.99999e-01
4.599490440e-01,6.39361e-05,9.99999e-01,9.99999e-01,9.99995e-01,6.39363e-05,9.99999e-01
4.622487892e-01,7.73739e-05,9.99999e-01,9.99999e-01,9.99998e-01,7.73739e-05,9.99999e-01
4.645600332e-01,9.32833e-05,9.99999e-01,9.99999e-01,9.99996e-01,9.32835e-05,9.99999e-01
4.668828333e-01,1.12045e-04,9.99999e-01,9.99999e-01,9.99956e-01,1.12050e-04,9.99999e-01
4.692172475e-01,1.34093e-04,9.99999e-01,9.99999e-01,9.99908e-01,1.34105e-04,9.99999e-01
4.715633337e-01,1.59923e-04,9.99999e-01,9.99999e-01,9.99939e-01,1.59933e-04,9.99999e-01
4.739211504e-01,1.90062e-04,9.99999e-01,9.99999e-01,9.99942e-01,1.90073e-04,9.99999e-01
4.762907561e-01,2.25116e-04,9.99999e-01,9.99999e-01,9.99969e-01,2.25123e-04,9.99999e-01
4.786722099e-01,2.65744e-04,9.99999e-01,9.99999e-01,9.99987e-01,2.65747e-04,9.99999e-01
4.810655710e-01,3.12675e-04,9.99999e-01,9.99999e-01,9.99995e-01,3.12676e-04,9.99999e-01
4.834708988e-01,3.66699e-04,9.99999e-01,9.99999e-01,9.99964e-01,3.66712e-04,9.99999e-01
4.858882533e-01,4.28706e-04,9.99999e-01,9.99999e-01,9.99934e-01,4.28734e-04,9.99999e-01
4.883176946e-01,4.99674e-04,9.99999e-01,9.99999e-01,9.99945e-01,4.99701e-04,9.99999e-01
4.907592831e-01,5.80628e-04,9.99999e-01,9.99999e-01,9.99950e-01,5.80656e-04,9.99999e-01
4.932130795e-01,6.72705e-04,9.99999e-01,9.99999e-01,9.99964e-01,6.72728e-04,9.99999e-01
4.956791449e-01,7.77123e-04,9.99999e-01,9.99999e-01,9.99981e-01,7.77137e-04,9.99999e-01
4.981575406e-01,8.95114e-04,9.99999e-01,9.99999e-01,9.99907e-01,8.95196e-04,9.99999e-01
5.006483283e-01,1.02807e-03,9.99999e-01,9.99999e-01,9.99762e-01,1.02831e-03,9.99997e-01
5.031515699e-01,1.17656e-03,9.99999e-01,9.99999e-01,9.98793e-01,1.17799e-03,9.99986e-01
5.056673278e-01,1.34497e-03,9.99999e-01,9.99999e-01,9.99361e-01,1.34585e-03,9.99984e-01
5.081956644e-01,1.53233e-03,9.99999e-01,9.99999e-01,9.99194e-01,1.53357e-03,9.99990e-01
5.107366428e-01,1.74204e-03,9.99999e-01,9.99999e-01,9.99456e-01,1.74299e-03,9.99997e-01
5.132903260e-01,1.97538e-03,9.99999e-01,9.99999e-01,9.99688e-01,1.97599e-03,9.99999e-01
5.158567776e-01,2.23431e-03,9.99999e-01,9.99999e-01,9.99868e-01,2.23460e-03,9.99999e-01
5.184360615e-01,2.52079e-03,9.99999e-01,9.99999e-01,9.99946e-01,2.52093e-03,9.99999e-01
5.210282418e-01,2.83712e-03,9.99999e-01,9.99999e-01,9.99979e-01,2.83717e-03,9.99999e-01
5.236333830e-01,3.18539e-03,9.99999e-01,9.99999e-01,9.99920e-01,3.18565e-03,9.99998e-01
5.262515499e-01,3.56857e-03,9.99999e-01,9.99999e-01,9.99950e-01,3.56875e-03,9.99998e-01
5.288828077e-01,3.98878e-03,9.99999e-01,9.99999e-01,9.99954e-01,3.98896e-03,9.99999e-01
5.315272217e-01,4.44868e-03,9.99999e-01,9.99999e-01,9.99959e-01,4.44886e-03,9.99999e-01
5.341848578e-01,4.95097e-03,9.99999e-01,9.99999e-01,9.99973e-01,4.95110e-03,9.99999e-01
5.368557821e-01,5.49790e-03,9.99999e-01,9.99999e-01,9.99908e-01,5.49841e-03,9.99999e-01
5.395400610e-01,6.09156e-03,9.99999e-01,9.99999e-01,9.99670e-01,6.09358e-03,9.99996e-01
5.422377613e-01,6.73655e-03,9.99999e-01,9.99999e-01,9.99571e-01,6.73949e-03,9.99991e-01
5.449489501e-01,7.43603e-03,9.99999e-01,9.99999e-01,9.99602e-01,7.43904e-03,9.99991e-01
5.476736949e-01,8.19228e-03,9.99999e-01,9.99999e-01,9.99646e-01,8.19520e-03,9.99995e-01
5.504120634e-01,9.00867e-03,9.99999e-01,9.99999e-01,9.99743e-01,9.01098e-03,9.99998e-01
5.531641237e-01,9.88814e-03,9.99999e-01,9.99999e-01,9.99870e-01,9.88941e-03,9.99999e-01
5.559299443e-01,1.08329e-02,9.99999e-01,9.99999e-01,9.99937e-01,1.08335e-02,9.99999e-01
5.587095940e-01,1.18460e-02,9.99999e-01,9.99999e-01,9.99960e-01,1.18465e-02,9.99999e-01
5.615031420e-01,1.29307e-02,9.99999e-01,9.99999e-01,9.99956e-01,1.29312e-02,9.99999e-01
5.643106577e-01,1.40903e-02,9.99999e-01,9.99999e-01,9.99950e-01,1.40909e-02,9.99999e-01
5.671322110e-01,1.53195e-02,9.99999e-01,9.99999e-01,9.99407e-01,1.53286e-02,9.99994e-01
5.699678720e-01,1.66364e-02,9.99999e-01,9.99999e-01,9.99361e-01,1.66473e-02,9.99983e-01
5.728177114e-01,1.80378e-02,9.99999e-01,9.99999e-01,9.99339e-01,1.80500e-02,9.99985e-01
5.756818000e-01,1.95276e-02,9.99999e-01,9.99999e-01,9.99392e-01,1.95396e-02,9.99991e-01
5.785602090e-01,2.11078e-02,9.99999e-01,9.99999e-01,9.99470e-01,2.11190e-02,9.99997e-01
5.814530100e-01,2.27790e-02,9.99999e-01,9.99999e-01,9.99468e-01,2.27911e-02,9.99998e-01
5.843602750e-01,2.45431e-02,9.99999e-01,9.99999e-01,9.99368e-01,2.45586e-02,9.99995e-01
5.872820764e-01,2.62797e-02,9.99999e-01,9.99999e-01,9.94567e-01,2.64242e-02,9.99961e-01
5.902184868e-01,2.81998e-02,9.99999e-01,9.99999e-01,9.93390e-01,2.83904e-02,9.99895e-01
5.931695792e-01,3.03145e-02,9.99999e-01,9.99999e-01,9.95334e-01,3.04596e-02,9.99899e-01
5.961354271e-01,3.24654e-02,9.99999e-01,9.99999e-01,9.94880e-01,3.26343e-02,9.99941e-01
5.991161043e-01,3.47856e-02,9.99999e-01,9.99999e-01,9.96262e-01,3.49167e-02,9.99981e-01
6.021116848e-01,3.72296e-02,9.99999e-01,9.99999e-01,9.97876e-01,3.73089e-02,9.99997e-01
6.051222432e-01,3.97700e-02,9.99999e-01,9.99999e-01,9.98924e-01,3.98128e-02,9.99999e-01
6.081478544e-01,4.24106e-02,9.99999e-01,9.99999e-01,9.99536e-01,4.24302e-02,9.99999e-01
6.111885937e-01,4.51541e-02,9.99999e-01,9.99999e-01,9.99803e-01,4.51630e-02,9.99999e-01
6.142445367e-01,4.80082e-02,9.99999e-01,9.99999e-01,9.99911e-01,4.80124e-02,9.99999e-01
6.173157594e-01,5.09776e-02,9.99999e-01,9.99999e-01,9.99951e-01,5.09800e-02,9.99999e-01
6.204023382e-01,5.40648e-02,9.99999e-01,9.99999e-01,9.99958e-01,5.40670e-02,9.99999e-01
6.235043498e-01,5.72641e-02,9.99999e-01,9.99999e-01,9.99821e-01,5.72743e-02,9.99999e-01
6.266218716e-01,6.05449e-02,9.99999e-01,9.99999e-01,9.99048e-01,6.06029e-02,9.99992e-01
6.297549810e-01,6.40302e-02,9.99999e-01,9.99999e-01,9.99650e-01,6.40534e-02,9.99986e-01
6.329037559e-01,6.75789e-02,9.99999e-01,9.99999e-01,9.99309e-01,6.76263e-02,9.99988e-01
6.360682746e-01,7.12798e-02,9.99999e-01,9.99999e-01,9.99412e-01,7.13221e-02,9.99993e-01
6.392486160e-01,7.50834e-02,9.99999e-01,9.99999e-01,9.99238e-01,7.51408e-02,9.99996e-01
6.424448591e-01,7.90018e-02,9.99999e-01,9.99999e-01,9.98985e-01,7.90824e-02,9.99995e-01
6.456570834e-01,8.27534e-02,9.99999e-01,9.99999e-01,9.95294e-01,8.31468e-02,9.99973e-01
6.488853688e-01,8.70246e-02,9.99999e-01,9.99999e-01,9.96534e-01,8.73336e-02,9.99926e-01
6.521297956e-01,9.13129e-02,9.99999e-01,9.99999e-01,9.96467e-01,9.16422e-02,9.99938e-01
6.553904446e-01,9.57321e-02,9.99999e-01,9.99999e-01,9.96507e-01,9.60720e-02,9.99953e-01
6.586673968e-01,1.00317e-01,9.99999e-01,9.99999e-01,9.96988e-01,1.00622e-01,9.99984e-01
6.619607338e-01,1.05108e-01,9.99999e-01,9.99999e-01,9.98258e-01,1.05291e-01,9.99996e-01
6.652705375e-01,1.09967e-01,9.99999e-01,9.99999e-01,9.98990e-01,1.10078e-01,9.99997e-01
6.685968902e-01,1.14928e-01,9.99999e-01,9.99999e-01,9.99530e-01,1.14982e-01,9.99999e-01
6.719398746e-01,1.19975e-01,9.99999e-01,9.99999e-01,9.99782e-01,1.20001e-01,9.99999e-01
6.752995740e-01,1.25119e-01,9.99999e-01,9.99999e-01,9.99882e-01,1.25134e-01,9.99999e-01
6.786760719e-01,1.30356e-01,9.99999e-01,9.99999e-01,9.99830e-01,1.30378e-01,9.99999e-01
6.820694522e-01,1.35692e-01,9.99999e-01,9.99999e-01,9.99709e-01,1.35731e-01,9.99998e-01
6.854797995e-01,1.41139e-01,9.99999e-01,9.99999e-01,9.99625e-01,1.41193e-01,9.99996e-01
6.889071985e-01,1.46626e-01,9.99999e-01,9.99999e-01,9.99101e-01,1.46759e-01,9.99991e-01
6.923517345e-01,1.50182e-01,9.99999e-01,9.99999e-01,9.85330e-01,1.52429e-01,9.99928e-01
6.958134932e-01,1.56952e-01,9.99999e-01,9.99999e-01,9.92273e-01,1.58199e-01,9.99839e-01
6.992925606e-01,1.62851e-01,9.99999e-01,9.99999e-01,9.92726e-01,1.64067e-01,9.99858e-01
7.027890234e-01,1.68480e-01,9.99999e-01,9.99999e-01,9.90990e-01,1.70030e-01,9.99891e-01
7.063029686e-01,1.74743e-01,9.99999e-01,9.99999e-01,9.92424e-01,1.76086e-01,9.99945e-01
7.098344834e-01,1.80901e-01,9.99999e-01,9.99999e-01,9.92730e-01,1.82232e-01,9.99967e-01
7.133836558e-01,1.86640e-01,9.99999e-01,9.99999e-01,9.90381e-01,1.88464e-01,9.99936e-01
7.169505741e-01,1.80095e-01,9.99999e-01,9.99999e-01,9.25067e-01,1.94780e-01,9.99502e-01
7.205353270e-01,1.93417e-01,9.99999e-01,9.99999e-01,9.62268e-01,2.01177e-01,9.99122e-01
7.241380036e-01,1.97667e-01,9.99999e-01,9.99999e-01,9.52638e-01,2.07651e-01,9.99242e-01
7.277586936e-01,2.04893e-01,9.99999e-01,9.99999e-01,9.57145e-01,2.14199e-01,9.99380e-01
7.313974871e-01,2.10673e-01,9.99999e-01,9.99999e-01,9.54328e-01,2.20819e-01,9.99709e-01
7.350544745e-01,2.21754e-01,9.99999e-01,9.99999e-01,9.74812e-01,2.27506e-01,9.99898e-01
7.387297469e-01,2.29889e-01,9.99999e-01,9.99999e-01,9.81395e-01,2.34258e-01,9.99953e-01
7.424233956e-01,2.38862e-01,9.99999e-01,9.99999e-01,9.90846e-01,2.41071e-01,9.99990e-01
7.461355126e-01,2.46564e-01,9.99999e-01,9.99999e-01,9.94448e-01,2.47941e-01,9.99997e-01
7.498661902e-01,2.54205e-01,9.99999e-01,9.99999e-01,9.97408e-01,2.54866e-01,9.99998e-01
7.536155211e-01,2.61509e-01,9.99999e-01,9.99999e-01,9.98729e-01,2.61841e-01,9.99999e-01
7.573835987e-01,2.68689e-01,9.99999e-01,9.99999e-01,9.99345e-01,2.68865e-01,9.99999e-01
7.611705167e-01,2.75820e-01,9.99999e-01,9.99999e-01,9.99593e-01,2.75932e-01,9.99999e-01
7.649763693e-01,2.82968e-01,9.99999e-01,9.99999e-01,9.99745e-01,2.83040e-01,9.99999e-01
7.688012511e-01,2.90133e-01,9.99999e-01,9.99999e-01,9.99822e-01,2.90185e-01,9.99999e-01
7.726452574e-01,2.97320e-01,9.99999e-01,9.99999e-01,9.99853e-01,2.97364e-01,9.99999e-01
7.765084837e-01,3.04511e-01,9.99999e-01,9.99999e-01,9.99793e-01,3.04573e-01,9.99999e-01
7.803910261e-01,2.96021e-01,9.99999e-01,9.50170e-01,9.99109e-01,3.11810e-01,9.99998e-01
7.842929812e-01,2.50671e-01,9.99999e-01,7.87902e-01,9.96893e-01,3.19071e-01,9.99993e-01
7.882144461e-01,2.51749e-01,9.99999e-01,7.76119e-01,9.93582e-01,3.26352e-01,9.99960e-01
7.921555184e-01,2.86103e-01,9.99999e-01,8.60487e-01,9.96468e-01,3.33651e-01,9.99923e-01
7.961162960e-01,3.06220e-01,9.99999e-01,9.03688e-01,9.93798e-01,3.40964e-01,9.99926e-01
8.000968774e-01,3.27310e-01,9.99999e-01,9.46606e-01,9.92818e-01,3.48288e-01,9.99921e-01
8.040973618e-01,3.43137e-01,9.99999e-01,9.71910e-01,9.92821e-01,3.55620e-01,9.99937e-01
8.081178486e-01,3.52490e-01,9.99999e-01,9.87030e-01,9.83940e-01,3.62957e-01,9.99941e-01
8.121584379e-01,3.44663e-01,9.99999e-01,9.95961e-01,9.34700e-01,3.70297e-01,9.99772e-01
8.162192301e-01,3.47814e-01,9.99999e-01,9.99106e-01,9.22619e-01,3.77635e-01,9.99146e-01
8.203003262e-01,3.69639e-01,9.99999e-01,9.99985e-01,9.61149e-01,3.84969e-01,9.99000e-01
8.244018279e-01,3.70652e-01,9.99999e-01,9.99999e-01,9.45575e-01,3.92297e-01,9.99204e-01
8.285238370e-01,3.80672e-01,9.99999e-01,9.99999e-01,9.53191e-01,3.99615e-01,9.99375e-01
8.326664562e-01,3.87540e-01,9.99999e-01,9.99999e-01,9.52615e-01,4.06921e-01,9.99741e-01
8.368297885e-01,4.00053e-01,9.99999e-01,9.99999e-01,9.65871e-01,4.14213e-01,9.99940e-01
8.410139374e-01,4.12865e-01,9.99999e-01,9.99999e-01,9.79578e-01,4.21487e-01,9.99965e-01
8.452190071e-01,4.24416e-01,9.99999e-01,9.99999e-01,9.89930e-01,4.28742e-01,9.99978e-01
8.494451021e-01,4.33420e-01,9.99999e-01,9.99999e-01,9.94157e-01,4.35974e-01,9.99982e-01
8.536923276e-01,4.41642e-01,9.99999e-01,9.99999e-01,9.96535e-01,4.43182e-01,9.99988e-01
8.579607893e-01,4.49402e-01,9.99999e-01,9.99999e-01,9.97868e-01,4.50363e-01,9.99996e-01
8.622505932e-01,4.56895e-01,9.99999e-01,9.99999e-01,9.98644e-01,4.57516e-01,9.99999e-01
8.665618462e-01,4.20107e-01,9.99999e-01,9.04881e-01,9.99162e-01,4.64637e-01,9.99999e-01
8.708946554e-01,2.59547e-01,9.99999e-01,5.50707e-01,9.99042e-01,4.71725e-01,9.99998e-01
8.752491287e-01,2.93813e-01,9.99999e-01,6.14426e-01,9.98718e-01,4.78778e-01,9.99998e-01
8.796253743e-01,3.70099e-01,9.99999e-01,7.63137e-01,9.98228e-01,4.85795e-01,9.99995e-01
8.840235012e-01,4.27149e-01,9.99999e-01,8.68555e-01,9.97975e-01,4.92772e-01,9.99987e-01
8.884436187e-01,4.69201e-01,9.99999e-01,9.45787e-01,9.92693e-01,4.99709e-01,9.99964e-01
8.928858368e-01,4.58352e-01,9.99999e-01,9.77689e-01,9.25304e-01,5.06603e-01,9.99796e-01
8.973502660e-01,4.44496e-01,9.99999e-01,9.94520e-01,8.71218e-01,5.13454e-01,9.98961e-01
9.018370173e-01,4.83722e-01,9.99999e-01,9.99393e-01,9.31826e-01,5.20259e-01,9.98368e-01
9.063462024e-01,4.87645e-01,9.99999e-01,9.84867e-01,9.40150e-01,5.27018e-01,9.98566e-01
9.108779334e-01,4.67334e-01,9.99999e-01,9.65065e-01,9.08031e-01,5.33728e-01,9.98510e-01
9.154323231e-01,4.79705e-01,9.99999e-01,9.91653e-01,8.96027e-01,5.40388e-01,9.98768e-01
9.200094847e-01,4.49776e-01,9.99999e-01,8.90721e-01,9.17576e-01,5.46998e-01,9.99310e-01
9.246095321e-01,4.09290e-01,9.99999e-01,8.40595e-01,8.76325e-01,5.53556e-01,9.99205e-01
9.292325798e-01,2.07996e-01,9.99999e-01,8.73986e-01,4.17945e-01,5.60060e-01,9.96906e-01
9.338787427e-01,1.61999e-01,9.99999e-01,8.76981e-01,3.24021e-01,5.66510e-01,9.87275e-01
9.385481364e-01,3.27108e-01,9.99999e-01,9.07842e-01,6.33353e-01,5.72904e-01,9.84884e-01
9.432408771e-01,2.90382e-01,9.99999e-01,9.42363e-01,5.36479e-01,5.79243e-01,9.86946e-01
9.479570815e-01,2.39950e-01,9.99999e-01,9.70034e-01,4.26016e-01,5.85524e-01,9.89363e-01
9.526968669e-01,3.02529e-01,9.99999e-01,9.85431e-01,5.21250e-01,5.91747e-01,9.93498e-01
9.574603512e-01,3.22003e-01,9.99999e-01,9.93741e-01,5.43394e-01,5.97912e-01,9.96691e-01
9.622476530e-01,3.64828e-01,9.99999e-01,9.98042e-01,6.06467e-01,6.04017e-01,9.97711e-01
9.670588912e-01,4.56021e-01,9.99999e-01,9.99412e-01,7.49076e-01,6.10062e-01,9.98434e-01
9.718941857e-01,5.13005e-01,9.99999e-01,9.99957e-01,8.33729e-01,6.16046e-01,9.98846e-01
9.767536566e-01,5.34329e-01,9.99999e-01,9.99999e-01,8.59849e-01,6.21969e-01,9.99118e-01
9.816374249e-01,5.61041e-01,9.99999e-01,9.99999e-01,8.93889e-01,6.27831e-01,9.99694e-01
9.865456120e-01,5.90672e-01,9.99999e-01,9.99999e-01,9.32261e-01,6.33630e-01,9.99935e-01
9.914783401e-01,6.12225e-01,9.99999e-01,9.99999e-01,9.57565e-01,6.39366e-01,9.99981e-01
9.964357318e-01,6.29980e-01,9.99999e-01,9.99999e-01,9.76662e-01,6.45040e-01,9.99989e-01
1.001417910e+00,6.41496e-01,9.99999e-01,9.99999e-01,9.85945e-01,6.50651e-01,9.99983e-01
1.006425000e+00,6.50916e-01,9.99999e-01,9.99999e-01,9.91972e-01,6.56198e-01,9.99977e-01
1.011457125e+00,6.58363e-01,9.99999e-01,9.99999e-01,9.95004e-01,6.61681e-01,9.99978e-01
1.016514411e+00,6.64829e-01,9.99999e-01,9.99999e-01,9.96608e-01,6.67101e-01,9.99984e-01
1.021596983e+00,6.70578e-01,9.99999e-01,9.99922e-01,9.97297e-01,6.72456e-01,9.99984e-01
1.026704968e+00,6.72302e-01,9.99999e-01,9.94064e-01,9.97892e-01,6.77748e-01,9.99989e-01
1.031838492e+00,6.41702e-01,9.99999e-01,9.40959e-01,9.98466e-01,6.82975e-01,9.99996e-01
1.036997685e+00,6.87121e-02,9.99999e-01,9.99223e-02,9.99089e-01,6.88138e-01,9.99999e-01
1.042182673e+00,2.70536e-02,9.99999e-01,3.90606e-02,9.98916e-01,6.93237e-01,9.99999e-01
1.047393587e+00,4.30745e-02,9.99999e-01,6.17640e-02,9.98562e-01,6.98273e-01,9.99999e-01
1.052630555e+00,2.15325e-04,9.99999e-01,3.06604e-04,9.98029e-01,7.03244e-01,9.99998e-01
1.057893707e+00,6.80167e-04,9.99999e-01,9.62392e-04,9.96713e-01,7.08151e-01,9.99998e-01
1.063183176e+00,4.04622e-03,9.99999e-01,5.69515e-03,9.94594e-01,7.12995e-01,9.99996e-01
1.068499092e+00,1.75503e-02,9.99999e-01,2.46247e-02,9.90956e-01,7.17775e-01,9.99993e-01
1.073841587e+00,6.79537e-02,9.99999e-01,9.48605e-02,9.89434e-01,7.22492e-01,9.99986e-01
1.079210795e+00,1.61794e-01,9.99999e-01,2.25161e-01,9.86456e-01,7.27145e-01,9.99963e-01
1.084606849e+00,3.13159e-01,9.99999e-01,4.36289e-01,9.79586e-01,7.31736e-01,9.99912e-01
1.090029883e+00,4.64692e-01,9.99999e-01,6.49368e-01,9.70890e-01,7.36264e-01,9.99818e-01
1.095480033e+00,5.52803e-01,9.99999e-01,8.08054e-01,9.22599e-01,7.40730e-01,9.99672e-01
1.100957433e+00,5.48782e-01,9.99999e-01,9.02284e-01,8.15365e-01,7.45135e-01,9.99397e-01
1.106462220e+00,4.30935e-01,9.99999e-01,9.58328e-01,5.99210e-01,7.49477e-01,9.98978e-01
1.111994531e+00,2.54690e-01,9.99999e-01,9.84343e-01,3.43626e-01,7.53759e-01,9.97291e-01
1.117554504e+00,1.35590e-01,9.99999e-01,9.96147e-01,1.81158e-01,7.57979e-01,9.90256e-01
1.123142276e+00,2.19688e-01,9.99999e-01,9.99745e-01,2.95047e-01,7.62139e-01,9.77049e-01
1.128757988e+00,3.33650e-01,9.99999e-01,9.99999e-01,4.47292e-01,7.66239e-01,9.73497e-01
1.134401778e+00,1.65660e-01,9.99999e-01,9.99999e-01,2.20033e-01,7.70280e-01,9.77419e-01
1.140073787e+00,4.66260e-01,9.99999e-01,9.99999e-01,6.13289e-01,7.74261e-01,9.81917e-01
1.145774156e+00,2.82041e-01,9.99999e-01,9.99999e-01,3.68539e-01,7.78184e-01,9.83435e-01
1.151503026e+00,2.57080e-01,9.99999e-01,9.99999e-01,3.31799e-01,7.82048e-01,9.90737e-01
1.157260541e+00,3.03735e-01,9.99999e-01,9.99999e-01,3.87579e-01,7.85855e-01,9.97221e-01
1.163046844e+00,3.90027e-01,9.99999e-01,9.99999e-01,4.94341e-01,7.89605e-01,9.99211e-01
1.168862078e+00,4.83527e-01,9.99999e-01,9.99999e-01,6.09763e-01,7.93297e-01,9.99593e-01
1.174706389e+00,5.86852e-01,9.99999e-01,9.99999e-01,7.36783e-01,7.96934e-01,9.99461e-01
1.180579921e+00,6.63845e-01,9.99999e-01,9.99999e-01,8.29947e-01,8.00515e-01,9.99185e-01
1.186482820e+00,7.22937e-01,9.99999e-01,9.99990e-01,8.99887e-01,8.04041e-01,9.99164e-01
1.192415234e+00,7.43326e-01,9.99999e-01,9.79214e-01,9.40287e-01,8.07513e-01,9.99373e-01
1.198377311e+00,4.25505e-01,9.99999e-01,5.48243e-01,9.49479e-01,8.10930e-01,9.99408e-01
1.204369197e+00,1.19252e-16,9.99999e-01,1.50738e-16,9.52147e-01,8.14294e-01,9.99464e-01
1.210391043e+00,4.49483e-64,9.99999e-01,5.64450e-64,9.54162e-01,8.17605e-01,9.99674e-01
1.216442998e+00,1.36108e-55,9.99999e-01,1.69989e-55,9.60834e-01,8.20863e-01,9.99800e-01
1.222525213e+00,9.02952e-55,9.99999e-01,1.11352e-54,9.69377e-01,8.24070e-01,9.99875e-01
1.228637839e+00,2.14308e-42,9.99999e-01,2.62920e-42,9.78643e-01,8.27226e-01,9.99941e-01
