#,Wave/freq,Total,N2,CO2,H2O,Rayleigh,CIA
4.000000000e-01,5.65551e-06,9.99999e-01,9.99999e-01,9.99976e-01,5.65564e-06,9.99999e-01
4.020000000e-01,7.18183e-06,9.99999e-01,9.99999e-01,9.99985e-01,7.18193e-06,9.99999e-01
4.040100000e-01,9.07488e-06,9.99999e-01,9.99999e-01,9.99993e-01,9.07493e-06,9.99999e-01
4.060300500e-01,1.14140e-05,9.99999e-01,9.99999e-01,9.99998e-01,1.14140e-05,9.99999e-01
4.080602003e-01,1.42911e-05,9.99999e-01,9.99999e-01,9.99999e-01,1.42911e-05,9.99999e-01
4.101005013e-01,1.78142e-05,9.99999e-01,9.99999e-01,9.99999e-01,1.78142e-05,9.99999e-01
4.121510038e-01,2.21093e-05,9.99999e-01,9.99999e-01,9.99998e-01,2.21093e-05,9.99999e-01
4.142117588e-01,2.73230e-05,9.99999e-01,9.99999e-01,9.99993e-01,2.73232e-05,9.99999e-01
4.162828176e-01,3.36247e-05,9.99999e-01,9.99999e-01,9.99970e-01,3.36257e-05,9.99999e-01
4.183642317e-01,4.12119e-05,9.99999e-01,9.99999e-01,9.99982e-01,4.12126e-05,9.99999e-01
4.204560528e-01,5.03083e-05,9.99999e-01,9.99999e-01,9.99988e-01,5.03088e-05,9.99999e-01
4.225583331e-01,6.11710e-05,9.99999e-01,9.99999e-01,9.99995e-01,6.11713e-05,9.99999e-01
4.246711247e-01,7.40921e-05,9.99999e-01,9.99999e-01,9.99996e-01,7.40924e-05,9.99999e-01
4.267944804e-01,8.94033e-05,9.99999e-01,9.99999e-01,9.99994e-01,8.94038e-05,9.99999e-01
4.289284528e-01,1.07479e-04,9.99999e-01,9.99999e-01,9.99995e-01,1.07480e-04,9.99999e-01
4.310730950e-01,1.28741e-04,9.99999e-01,9.99999e-01,9.99997e-01,1.28741e-04,9.99999e-01
4.332284605e-01,1.53660e-04,9.99999e-01,9.99999e-01,9.99999e-01,1.53660e-04,9.99999e-01
4.353946028e-01,1.82762e-04,9.99999e-01,9.99999e-01,9.99999e-01,1.82762e-04,9.99999e-01
4.375715758e-01,2.16631e-04,9.99999e-01,9.99999e-01,9.99996e-01,2.16632e-04,9.99999e-01
4.397594337e-01,2.55912e-04,9.99999e-01,9.99999e-01,9.99974e-01,2.55918e-04,9.99999e-01
4.419582309e-01,3.01297e-04,9.99999e-01,9.99999e-01,9.99872e-01,3.01335e-04,9.99999e-01
4.441680220e-01,3.53634e-04,9.99999e-01,9.99999e-01,9.99898e-01,3.53669e-04,9.99999e-01
4.463888621e-01,4.13738e-04,9.99999e-01,9.99999e-01,9.99895e-01,4.13781e-04,9.99999e-01
4.486208064e-01,4.82581e-04,9.99999e-01,9.99999e-01,9.99934e-01,4.82612e-04,9.99999e-01
4.508639105e-01,5.61167e-04,9.99999e-01,9.99999e-01,9.99969e-01,5.61184e-04,9.99999e-01
4.531182300e-01,6.50599e-04,9.99999e-01,9.99999e-01,9.99987e-01,6.50607e-04,9.99999e-01
4.553838212e-01,7.52073e-04,9.99999e-01,9.99999e-01,9.99991e-01,7.52079e-04,9.99999e-01
4.576607403e-01,8.66888e-04,9.99999e-01,9.99999e-01,9.99995e-01,8.66892e-04,9.99999e-01
4.599490440e-01,9.96429e-04,9.99999e-01,9.99999e-01,9.99996e-01,9.96432e-04,9.99999e-01
4.622487892e-01,1.14218e-03,9.99999e-01,9.99999e-01,9.99999e-01,1.14218e-03,9.99999e-01
4.645600332e-01,1.30573e-03,9.99999e-01,9.99999e-01,9.99997e-01,1.30573e-03,9.99999e-01
4.668828333e-01,1.48870e-03,9.99999e-01,9.99999e-01,9.99968e-01,1.48875e-03,9.99999e-01
4.692172475e-01,1.69292e-03,9.99999e-01,9.99999e-01,9.99934e-01,1.69303e-03,9.99999e-01
4.715633337e-01,1.92038e-03,9.99999e-01,9.99999e-01,9.99956e-01,1.92046e-03,9.99999e-01
4.739211504e-01,2.17294e-03,9.99999e-01,9.99999e-01,9.99958e-01,2.17303e-03,9.99999e-01
4.762907561e-01,2.45277e-03,9.99999e-01,9.99999e-01,9.99978e-01,2.45282e-03,9.99999e-01
4.786722099e-01,2.76199e-03,9.99999e-01,9.99999e-01,9.99990e-01,2.76201e-03,9.99999e-01
4.810655710e-01,3.10289e-03,9.99999e-01,9.99999e-01,9.99996e-01,3.10290e-03,9.99999e-01
4.834708988e-01,3.47777e-03,9.99999e-01,9.99999e-01,9.99974e-01,3.47786e-03,9.99999e-01
4.858882533e-01,3.88917e-03,9.99999e-01,9.99999e-01,9.99953e-01,3.88935e-03,9.99999e-01
4.883176946e-01,4.33976e-03,9.99999e-01,9.99999e-01,9.99960e-01,4.33993e-03,9.99999e-01
4.907592831e-01,4.83207e-03,9.99999e-01,9.99999e-01,9.99964e-01,4.83224e-03,9.99999e-01
4.932130795e-01,5.36885e-03,9.99999e-01,9.99999e-01,9.99974e-01,5.36898e-03,9.99999e-01
4.956791449e-01,5.95287e-03,9.99999e-01,9.99999e-01,9.99986e-01,5.95295e-03,9.99999e-01
4.981575406e-01,6.58656e-03,9.99999e-01,9.99999e-01,9.99933e-01,6.58699e-03,9.99999e-01
5.006483283e-01,7.27276e-03,9.99999e-01,9.99999e-01,9.99830e-01,7.27400e-03,9.99998e-01
5.031515699e-01,8.00994e-03,9.99999e-01,9.99999e-01,9.99136e-01,8.01694e-03,9.99990e-01
5.056673278e-01,8.81468e-03,9.99999e-01,9.99999e-01,9.99543e-01,8.81880e-03,9.99989e-01
5.081956644e-01,9.67698e-03,9.99999e-01,9.99999e-01,9.99423e-01,9.68262e-03,9.99992e-01
5.107366428e-01,1.06073e-02,9.99999e-01,9.99999e-01,9.99610e-01,1.06114e-02,9.99998e-01
5.132903260e-01,1.16058e-02,9.99999e-01,9.99999e-01,9.99776e-01,1.16083e-02,9.99999e-01
5.158567776e-01,1.26752e-02,9.99999e-01,9.99999e-01,9.99905e-01,1.26764e-02,9.99999e-01
5.184360615e-01,1.38182e-02,9.99999e-01,9.99999e-01,9.99961e-01,1.38187e-02,9.99999e-01
5.210282418e-01,1.50380e-02,9.99999e-01,9.99999e-01,9.99985e-01,1.50382e-02,9.99999e-01
5.236333830e-01,1.63372e-02,9.99999e-01,9.99999e-01,9.99943e-01,1.63381e-02,9.99999e-01
5.262515499e-01,1.77207e-02,9.99999e-01,9.99999e-01,9.99964e-01,1.77213e-02,9.99998e-01
5.288828077e-01,1.91901e-02,9.99999e-01,9.99999e-01,9.99967e-01,1.91907e-02,9.99999e-01
5.315272217e-01,2.07488e-02,9.99999e-01,9.99999e-01,9.99971e-01,2.07494e-02,9.99999e-01
5.341848578e-01,2.23996e-02,9.99999e-01,9.99999e-01,9.99980e-01,2.24000e-02,9.99999e-01
5.368557821e-01,2.41439e-02,9.99999e-01,9.99999e-01,9.99934e-01,2.41454e-02,9.99999e-01
5.395400610e-01,2.59821e-02,9.99999e-01,9.99999e-01,9.99764e-01,2.59883e-02,9.99997e-01
5.422377613e-01,2.79225e-02,9.99999e-01,9.99999e-01,9.99693e-01,2.79312e-02,9.99993e-01
5.449489501e-01,2.99680e-02,9.99999e-01,9.99999e-01,9.99715e-01,2.99767e-02,9.99993e-01
5.476736949e-01,3.21189e-02,9.99999e-01,9.99999e-01,9.99747e-01,3.21271e-02,9.99996e-01
5.504120634e-01,3.43783e-02,9.99999e-01,9.99999e-01,9.99816e-01,3.43846e-02,9.99998e-01
5.531641237e-01,3.67480e-02,9.99999e-01,9.99999e-01,9.99907e-01,3.67514e-02,9.99999e-01
5.559299443e-01,3.92278e-02,9.99999e-01,9.99999e-01,9.99955e-01,3.92296e-02,9.99999e-01
5.587095940e-01,4.18197e-02,9.99999e-01,9.99999e-01,9.99971e-01,4.18209e-02,9.99999e-01
5.615031420e-01,4.45257e-02,9.99999e-01,9.99999e-01,9.99968e-01,4.45271e-02,9.99999e-01
5.643106577e-01,4.73480e-02,9.99999e-01,9.99999e-01,9.99964e-01,4.73497e-02,9.99999e-01
5.671322110e-01,5.02687e-02,9.99999e-01,9.99999e-01,9.99576e-01,5.02902e-02,9.99995e-01
5.699678720e-01,5.33247e-02,9.99999e-01,9.99999e-01,9.99542e-01,5.33497e-02,9.99987e-01
5.728177114e-01,5.65021e-02,9.99999e-01,9.99999e-01,9.99526e-01,5.65294e-02,9.99989e-01
5.756818000e-01,5.98038e-02,9.99999e-01,9.99999e-01,9.99565e-01,5.98301e-02,9.99993e-01
5.785602090e-01,6.32286e-02,9.99999e-01,9.99999e-01,9.99620e-01,6.32527e-02,9.99997e-01
5.814530100e-01,6.67721e-02,9.99999e-01,9.99999e-01,9.99619e-01,6.67975e-02,9.99998e-01
5.843602750e-01,7.04332e-02,9.99999e-01,9.99999e-01,9.99548e-01,7.04651e-02,9.99996e-01
5.872820764e-01,7.39648e-02,9.99999e-01,9.99999e-01,9.96109e-01,7.42557e-02,9.99972e-01
5.902184868e-01,7.77932e-02,9.99999e-01,9.99999e-01,9.95264e-01,7.81692e-02,9.99924e-01
5.931695792e-01,8.19249e-02,9.99999e-01,9.99999e-01,9.96658e-01,8.22055e-02,9.99926e-01
5.961354271e-01,8.60438e-02,9.99999e-01,9.99999e-01,9.96332e-01,8.63643e-02,9.99955e-01
5.991161043e-01,9.04013e-02,9.99999e-01,9.99999e-01,9.97323e-01,9.06451e-02,9.99986e-01
6.021116848e-01,9.49025e-02,9.99999e-01,9.99999e-01,9.98479e-01,9.50472e-02,9.99997e-01
6.051222432e-01,9.94931e-02,9.99999e-01,9.99999e-01,9.99230e-01,9.95698e-02,9.99999e-01
6.081478544e-01,1.04177e-01,9.99999e-01,9.99999e-01,9.99667e-01,1.04212e-01,9.99999e-01
6.111885937e-01,1.08957e-01,9.99999e-01,9.99999e-01,9.99858e-01,1.08972e-01,9.99999e-01
6.142445367e-01,1.13842e-01,9.99999e-01,9.99999e-01,9.99936e-01,1.13849e-01,9.99999e-01
6.173157594e-01,1.18838e-01,9.99999e-01,9.99999e-01,9.99964e-01,1.18842e-01,9.99999e-01
6.204023382e-01,1.23945e-01,9.99999e-01,9.99999e-01,9.99970e-01,1.23949e-01,9.99999e-01
6.235043498e-01,1.29151e-01,9.99999e-01,9.99999e-01,9.99872e-01,1.29167e-01,9.99999e-01
6.266218716e-01,1.34404e-01,9.99999e-01,9.99999e-01,9.99318e-01,1.34496e-01,9.99994e-01
6.297549810e-01,1.39897e-01,9.99999e-01,9.99999e-01,9.99749e-01,1.39933e-01,9.99989e-01
6.329037559e-01,1.45403e-01,9.99999e-01,9.99999e-01,9.99505e-01,1.45476e-01,9.99991e-01
6.360682746e-01,1.51058e-01,9.99999e-01,9.99999e-01,9.99579e-01,1.51122e-01,9.99994e-01
6.392486160e-01,1.56783e-01,9.99999e-01,9.99999e-01,9.99454e-01,1.56869e-01,9.99997e-01
6.424448591e-01,1.62596e-01,9.99999e-01,9.99999e-01,9.99274e-01,1.62715e-01,9.99996e-01
6.456570834e-01,1.68086e-01,9.99999e-01,9.99999e-01,9.96631e-01,1.68657e-01,9.99980e-01
6.488853688e-01,1.74249e-01,9.99999e-01,9.99999e-01,9.97517e-01,1.74692e-01,9.99947e-01
6.521297956e-01,1.80352e-01,9.99999e-01,9.99999e-01,9.97469e-01,1.80817e-01,9.99955e-01
6.553904446e-01,1.86556e-01,9.99999e-01,9.99999e-01,9.97499e-01,1.87030e-01,9.99966e-01
6.586673968e-01,1.92908e-01,9.99999e-01,9.99999e-01,9.97842e-01,1.93327e-01,9.99988e-01
6.619607338e-01,1.99456e-01,9.99999e-01,9.99999e-01,9.98752e-01,1.99705e-01,9.99997e-01
6.652705375e-01,2.06013e-01,9.99999e-01,9.99999e-01,9.99276e-01,2.06162e-01,9.99998e-01
6.685968902e-01,2.12622e-01,9.99999e-01,9.99999e-01,9.99663e-01,2.12694e-01,9.99999e-01
6.719398746e-01,2.19263e-01,9.99999e-01,9.99999e-01,9.99843e-01,2.19297e-01,9.99999e-01
6.752995740e-01,2.25950e-01,9.99999e-01,9.99999e-01,9.99915e-01,2.25969e-01,9.99999e-01
6.786760719e-01,2.32678e-01,9.99999e-01,9.99999e-01,9.99878e-01,2.32707e-01,9.99999e-01
6.820694522e-01,2.39456e-01,9.99999e-01,9.99999e-01,9.99792e-01,2.39506e-01,9.99998e-01
6.854797995e-01,2.46297e-01,9.99999e-01,9.99999e-01,9.99732e-01,2.46363e-01,9.99997e-01
6.889071985e-01,2.53112e-01,9.99999e-01,9.99999e-01,9.99357e-01,2.53276e-01,9.99993e-01
6.923517345e-01,2.57489e-01,9.99999e-01,9.99999e-01,9.89478e-01,2.60240e-01,9.99948e-01
6.958134932e-01,2.65741e-01,9.99999e-01,9.99999e-01,9.94456e-01,2.67253e-01,9.99885e-01
6.992925606e-01,2.72854e-01,9.99999e-01,9.99999e-01,9.94789e-01,2.74310e-01,9.99898e-01
7.027890234e-01,2.79570e-01,9.99999e-01,9.99999e-01,9.93542e-01,2.81409e-01,9.99922e-01
7.063029686e-01,2.86969e-01,9.99999e-01,9.99999e-01,9.94571e-01,2.88546e-01,9.99961e-01
7.098344834e-01,2.94171e-01,9.99999e-01,9.99999e-01,9.94791e-01,2.95717e-01,9.99976e-01
7.133836558e-01,3.00819e-01,9.99999e-01,9.99999e-01,9.93109e-01,3.02920e-01,9.99954e-01
7.169505741e-01,2.93187e-01,9.99999e-01,9.99999e-01,9.45638e-01,3.10151e-01,9.99643e-01
7.205353270e-01,3.08569e-01,9.99999e-01,9.99999e-01,9.72768e-01,3.17407e-01,9.99371e-01
7.241380036e-01,3.13415e-01,9.99999e-01,9.99999e-01,9.65817e-01,3.24684e-01,9.99457e-01
7.277586936e-01,3.21574e-01,9.99999e-01,9.99999e-01,9.69087e-01,3.31979e-01,9.99556e-01
7.313974871e-01,3.28041e-01,9.99999e-01,9.99999e-01,9.67050e-01,3.39289e-01,9.99791e-01
7.350544745e-01,3.40310e-01,9.99999e-01,9.99999e-01,9.81892e-01,3.46611e-01,9.99927e-01
7.387297469e-01,3.49202e-01,9.99999e-01,9.99999e-01,9.86642e-01,3.53941e-01,9.99966e-01
7.424233956e-01,3.58904e-01,9.99999e-01,9.99999e-01,9.93436e-01,3.61277e-01,9.99993e-01
7.461355126e-01,3.67150e-01,9.99999e-01,9.99999e-01,9.96021e-01,3.68616e-01,9.99998e-01
7.498661902e-01,3.75257e-01,9.99999e-01,9.99999e-01,9.98143e-01,3.75955e-01,9.99999e-01
7.536155211e-01,3.82942e-01,9.99999e-01,9.99999e-01,9.99090e-01,3.83290e-01,9.99999e-01
7.573835987e-01,3.90437e-01,9.99999e-01,9.99999e-01,9.99531e-01,3.90620e-01,9.99999e-01
7.611705167e-01,3.97825e-01,9.99999e-01,9.99999e-01,9.99708e-01,3.97941e-01,9.99999e-01
7.649763693e-01,4.05176e-01,9.99999e-01,9.99999e-01,9.99817e-01,4.05250e-01,9.99999e-01
7.688012511e-01,4.12493e-01,9.99999e-01,9.99999e-01,9.99872e-01,4.12545e-01,9.99999e-01
7.726452574e-01,4.19780e-01,9.99999e-01,9.99999e-01,9.99895e-01,4.19823e-01,9.99999e-01
7.765084837e-01,4.27020e-01,9.99999e-01,9.99999e-01,9.99852e-01,4.27083e-01,9.99999e-01
7.803910261e-01,4.17898e-01,9.99999e-01,9.62780e-01,9.99362e-01,4.34320e-01,9.99998e-01
7.842929812e-01,3.70626e-01,9.99999e-01,8.41175e-01,9.97776e-01,4.41534e-01,9.99995e-01
7.882144461e-01,3.71515e-01,9.99999e-01,8.31616e-01,9.95402e-01,4.48722e-01,9.99971e-01
7.921555184e-01,4.08207e-01,9.99999e-01,8.97684e-01,9.97469e-01,4.55881e-01,9.99945e-01
7.961162960e-01,4.28672e-01,9.99999e-01,9.29971e-01,9.95558e-01,4.63010e-01,9.99947e-01
8.000968774e-01,4.49639e-01,9.99999e-01,9.61446e-01,9.94855e-01,4.70106e-01,9.99944e-01
8.040973618e-01,4.65107e-01,9.99999e-01,9.79796e-01,9.94857e-01,4.77167e-01,9.99955e-01
8.081178486e-01,4.74151e-01,9.99999e-01,9.90696e-01,9.88479e-01,4.84192e-01,9.99958e-01
8.121584379e-01,4.66554e-01,9.99999e-01,9.97104e-01,9.52747e-01,4.91178e-01,9.99837e-01
8.162192301e-01,4.69571e-01,9.99999e-01,9.99359e-01,9.43844e-01,4.98124e-01,9.99388e-01
8.203003262e-01,4.90480e-01,9.99999e-01,9.99989e-01,9.71894e-01,5.05029e-01,9.99284e-01
8.244018279e-01,4.91342e-01,9.99999e-01,9.99999e-01,9.60404e-01,5.11890e-01,9.99430e-01
8.285238370e-01,5.00966e-01,9.99999e-01,9.99999e-01,9.66231e-01,5.18706e-01,9.99552e-01
8.326664562e-01,5.07406e-01,9.99999e-01,9.99999e-01,9.65792e-01,5.25475e-01,9.99814e-01
8.368297885e-01,5.19100e-01,9.99999e-01,9.99999e-01,9.75432e-01,5.32196e-01,9.99957e-01
8.410139374e-01,5.30951e-01,9.99999e-01,9.99999e-01,9.85332e-01,5.38868e-01,9.99974e-01
8.452190071e-01,5.41543e-01,9.99999e-01,9.99999e-01,9.92779e-01,5.45489e-01,9.99984e-01
8.494451021e-01,5.49742e-01,9.99999e-01,9.99999e-01,9.95814e-01,5.52059e-01,9.99987e-01
8.536923276e-01,5.57185e-01,9.99999e-01,9.99999e-01,9.97518e-01,5.58575e-01,9.99991e-01
8.579607893e-01,5.64175e-01,9.99999e-01,9.99999e-01,9.98473e-01,5.65038e-01,9.99997e-01
8.622505932e-01,5.70891e-01,9.99999e-01,9.99999e-01,9.99028e-01,5.71445e-01,9.99999e-01
8.665618462e-01,5.31693e-01,9.99999e-01,9.20735e-01,9.99400e-01,5.77797e-01,9.99999e-01
8.708946554e-01,3.77186e-01,9.99999e-01,6.46191e-01,9.99314e-01,5.84091e-01,9.99999e-01
8.752491287e-01,4.14137e-01,9.99999e-01,7.02160e-01,9.99082e-01,5.90328e-01,9.99998e-01
8.796253743e-01,4.90295e-01,9.99999e-01,8.22955e-01,9.98731e-01,5.96506e-01,9.99996e-01
8.840235012e-01,5.43873e-01,9.99999e-01,9.03802e-01,9.98550e-01,6.02624e-01,9.99990e-01
8.884436187e-01,5.81802e-01,9.99999e-01,9.60833e-01,9.94767e-01,6.08683e-01,9.99974e-01
8.928858368e-01,5.72069e-01,9.99999e-01,9.83969e-01,9.45824e-01,6.14682e-01,9.99854e-01
8.973502660e-01,5.59507e-01,9.99999e-01,9.96070e-01,9.05677e-01,6.20619e-01,9.99256e-01
9.018370173e-01,5.94537e-01,9.99999e-01,9.99565e-01,9.50497e-01,6.26494e-01,9.98831e-01
9.063462024e-01,5.97946e-01,9.99999e-01,9.89113e-01,9.56673e-01,6.32308e-01,9.98973e-01
9.108779334e-01,5.79962e-01,9.99999e-01,9.74844e-01,9.33065e-01,6.38059e-01,9.98933e-01
9.154323231e-01,5.90973e-01,9.99999e-01,9.94010e-01,9.24232e-01,6.43747e-01,9.99118e-01
9.200094847e-01,5.62292e-01,9.99999e-01,9.18198e-01,9.40082e-01,6.49372e-01,9.99506e-01
9.246095321e-01,5.26596e-01,9.99999e-01,8.82864e-01,9.08984e-01,6.54933e-01,9.99431e-01
9.292325798e-01,3.19390e-01,9.99999e-01,9.07590e-01,5.28066e-01,6.60431e-01,9.97785e-01
9.338787427e-01,2.65595e-01,9.99999e-01,9.09998e-01,4.37492e-01,6.65866e-01,9.90876e-01
9.385481364e-01,4.45524e-01,9.99999e-01,9.33020e-01,7.15942e-01,6.71236e-01,9.89159e-01
9.432408771e-01,4.06571e-01,9.99999e-01,9.58368e-01,6.31333e-01,6.76542e-01,9.90640e-01
9.479570815e-01,3.52448e-01,9.99999e-01,9.78452e-01,5.31701e-01,6.81784e-01,9.92375e-01
9.526968669e-01,4.19773e-01,9.99999e-01,9.89544e-01,6.19761e-01,6.86962e-01,9.95342e-01
9.574603512e-01,4.41561e-01,9.99999e-01,9.95514e-01,6.42204e-01,6.92076e-01,9.97631e-01
9.622476530e-01,4.84108e-01,9.99999e-01,9.98598e-01,6.96484e-01,6.97126e-01,9.98361e-01
9.670588912e-01,5.69113e-01,9.99999e-01,9.99579e-01,8.11804e-01,7.02111e-01,9.98878e-01
9.718941857e-01,6.19987e-01,9.99999e-01,9.99969e-01,8.77633e-01,7.07033e-01,9.99174e-01
9.767536566e-01,6.38393e-01,9.99999e-01,9.99999e-01,8.97322e-01,7.11891e-01,9.99368e-01
9.816374249e-01,6.61167e-01,9.99999e-01,9.99999e-01,9.22734e-01,7.16686e-01,9.99781e-01
9.865456120e-01,6.86030e-01,9.99999e-01,9.99999e-01,9.50990e-01,7.21417e-01,9.99954e-01
9.914783401e-01,7.03880e-01,9.99999e-01,9.99999e-01,9.69428e-01,7.26085e-01,9.99986e-01
9.964357318e-01,7.18435e-01,9.99999e-01,9.99999e-01,9.83234e-01,7.30691e-01,9.99992e-01
1.001417910e+00,7.27813e-01,9.99999e-01,9.99999e-01,9.89918e-01,7.35233e-01,9.99988e-01
1.006425000e+00,7.35447e-01,9.99999e-01,9.99999e-01,9.94247e-01,7.39714e-01,9.99983e-01
1.011457125e+00,7.41458e-01,9.99999e-01,9.99999e-01,9.96421e-01,7.44132e-01,9.99984e-01
1.016514411e+00,7.46663e-01,9.99999e-01,9.99999e-01,9.97571e-01,7.48488e-01,9.99989e-01
1.021596983e+00,7.51279e-01,9.99999e-01,9.99944e-01,9.98065e-01,7.52784e-01,9.99988e-01
1.026704968e+00,7.52660e-01,9.99999e-01,9.95748e-01,9.98491e-01,7.57018e-01,9.99992e-01
1.031838492e+00,7.24862e-01,9.99999e-01,9.53287e-01,9.98902e-01,7.61192e-01,9.99997e-01
1.036997685e+00,1.03858e-01,9.99999e-01,1.35778e-01,9.99348e-01,7.65306e-01,9.99999e-01
1.042182673e+00,6.93219e-02,9.99999e-01,9.01644e-02,9.99224e-01,7.69360e-01,9.99999e-01
1.047393587e+00,8.92701e-02,9.99999e-01,1.15537e-01,9.98970e-01,7.73355e-01,9.99999e-01
1.052630555e+00,1.60123e-03,9.99999e-01,2.06211e-03,9.98589e-01,7.77291e-01,9.99999e-01
1.057893707e+00,4.31865e-03,9.99999e-01,5.53694e-03,9.97647e-01,7.81169e-01,9.99998e-01
1.063183176e+00,1.67655e-02,9.99999e-01,2.14155e-02,9.96128e-01,7.84989e-01,9.99997e-01
1.068499092e+00,5.30924e-02,9.99999e-01,6.76736e-02,9.93518e-01,7.88751e-01,9.99995e-01
1.073841587e+00,1.42902e-01,9.99999e-01,1.81480e-01,9.92425e-01,7.92457e-01,9.99989e-01
1.079210795e+00,2.67765e-01,9.99999e-01,3.39318e-01,9.90285e-01,7.96107e-01,9.99973e-01
1.084606849e+00,4.34068e-01,9.99999e-01,5.50470e-01,9.85341e-01,7.99700e-01,9.99937e-01
1.090029883e+00,5.77100e-01,9.99999e-01,7.33439e-01,9.79069e-01,8.03239e-01,9.99870e-01
1.095480033e+00,6.53831e-01,9.99999e-01,8.58208e-01,9.43930e-01,8.06723e-01,9.99765e-01
1.100957433e+00,6.50324e-01,9.99999e-01,9.28969e-01,8.63716e-01,8.10152e-01,9.99568e-01
1.106462220e+00,5.45164e-01,9.99999e-01,9.69970e-01,6.90526e-01,8.13528e-01,9.99268e-01
1.111994531e+00,3.70921e-01,9.99999e-01,9.88762e-01,4.59723e-01,8.16851e-01,9.98060e-01
1.117554504e+00,2.32462e-01,9.99999e-01,9.97238e-01,2.86068e-01,8.20122e-01,9.93017e-01
1.123142276e+00,3.26132e-01,9.99999e-01,9.99817e-01,4.02776e-01,8.23341e-01,9.83520e-01
1.128757988e+00,4.49965e-01,9.99999e-01,9.99999e-01,5.54983e-01,8.26508e-01,9.80960e-01
1.134401778e+00,2.44285e-01,9.99999e-01,9.99999e-01,2.99305e-01,8.29625e-01,9.83787e-01
1.140073787e+00,5.76810e-01,9.99999e-01,9.99999e-01,7.01810e-01,8.32691e-01,9.87025e-01
1.145774156e+00,3.96880e-01,9.99999e-01,9.99999e-01,4.80613e-01,8.35708e-01,9.88116e-01
1.151503026e+00,3.69620e-01,9.99999e-01,9.99999e-01,4.43663e-01,8.38676e-01,9.93362e-01
1.157260541e+00,4.22492e-01,9.99999e-01,9.99999e-01,5.03014e-01,8.41595e-01,9.98010e-01
1.163046844e+00,5.07054e-01,9.99999e-01,9.99999e-01,6.00780e-01,8.44467e-01,9.99435e-01
1.168862078e+00,5.93622e-01,9.99999e-01,9.99999e-01,7.00814e-01,8.47292e-01,9.99708e-01
1.174706389e+00,6.82337e-01,9.99999e-01,9.99999e-01,8.02992e-01,8.50069e-01,9.99614e-01
1.180579921e+00,7.45617e-01,9.99999e-01,9.99999e-01,8.74824e-01,8.52801e-01,9.99416e-01
1.186482820e+00,7.92741e-01,9.99999e-01,9.99992e-01,9.27213e-01,8.55488e-01,9.99401e-01
1.192415234e+00,8.08584e-01,9.99999e-01,9.84977e-01,9.56875e-01,8.58129e-01,9.99551e-01
1.198377311e+00,4.65667e-01,9.99999e-01,5.58296e-01,9.63565e-01,8.60726e-01,9.99576e-01
1.204369197e+00,1.48243e-12,9.99999e-01,1.75305e-12,9.65479e-01,8.63280e-01,9.99616e-01
1.210391043e+00,1.70606e-46,9.99999e-01,2.00808e-46,9.66955e-01,8.65791e-01,9.99766e-01
1.216442998e+00,2.00204e-40,9.99999e-01,2.34725e-40,9.71789e-01,8.68259e-01,9.99856e-01
1.222525213e+00,7.75807e-40,9.99999e-01,9.01368e-40,9.77979e-01,8.70685e-01,9.99910e-01
1.228637839e+00,7.36718e-31,9.99999e-01,8.52886e-31,9.84664e-01,8.73070e-01,9.99958e-01
