#,Wave/freq,Total,N2,CO2,H2O,Rayleigh,CIA
4.000000000e-01,1.41332e-02,9.99999e-01,9.99999e-01,9.99991e-01,1.41333e-02,9.99999e-01
4.020000000e-01,1.53750e-02,9.99999e-01,9.99999e-01,9.99994e-01,1.53751e-02,9.99999e-01
4.040100000e-01,1.66968e-02,9.99999e-01,9.99999e-01,9.99997e-01,1.66968e-02,9.99999e-01
4.060300500e-01,1.81026e-02,9.99999e-01,9.99999e-01,9.99998e-01,1.81026e-02,9.99999e-01
4.080602003e-01,1.95954e-02,9.99999e-01,9.99999e-01,9.99999e-01,1.95954e-02,9.99999e-01
4.101005013e-01,2.11782e-02,9.99999e-01,9.99999e-01,9.99999e-01,2.11782e-02,9.99999e-01
4.121510038e-01,2.28537e-02,9.99999e-01,9.99999e-01,9.99999e-01,2.28537e-02,9.99999e-01
4.142117588e-01,2.46247e-02,9.99999e-01,9.99999e-01,9.99997e-01,2.46247e-02,9.99999e-01
4.162828176e-01,2.64936e-02,9.99999e-01,9.99999e-01,9.99989e-01,2.64939e-02,9.99999e-01
4.183642317e-01,2.84636e-02,9.99999e-01,9.99999e-01,9.99993e-01,2.84638e-02,9.99999e-01
4.204560528e-01,3.05367e-02,9.99999e-01,9.99999e-01,9.99995e-01,3.05368e-02,9.99999e-01
4.225583331e-01,3.27154e-02,9.99999e-01,9.99999e-01,9.99998e-01,3.27154e-02,9.99999e-01
4.246711247e-01,3.50017e-02,9.99999e-01,9.99999e-01,9.99998e-01,3.50017e-02,9.99999e-01
4.267944804e-01,3.73979e-02,9.99999e-01,9.99999e-01,9.99997e-01,3.73979e-02,9.99999e-01
4.289284528e-01,3.99059e-02,9.99999e-01,9.99999e-01,9.99998e-01,3.99059e-02,9.99999e-01
4.310730950e-01,4.25275e-02,9.99999e-01,9.99999e-01,9.99998e-01,4.25275e-02,9.99999e-01
4.332284605e-01,4.52645e-02,9.99999e-01,9.99999e-01,9.99999e-01,4.52645e-02,9.99999e-01
4.353946028e-01,4.81182e-02,9.99999e-01,9.99999e-01,9.99999e-01,4.81182e-02,9.99999e-01
4.375715758e-01,5.10901e-02,9.99999e-01,9.99999e-01,9.99998e-01,5.10902e-02,9.99999e-01
4.397594337e-01,5.41810e-02,9.99999e-01,9.99999e-01,9.99990e-01,5.41815e-02,9.99999e-01
4.419582309e-01,5.73906e-02,9.99999e-01,9.99999e-01,9.99954e-01,5.73932e-02,9.99999e-01
4.441680220e-01,6.07240e-02,9.99999e-01,9.99999e-01,9.99964e-01,6.07262e-02,9.99999e-01
4.463888621e-01,6.41788e-02,9.99999e-01,9.99999e-01,9.99962e-01,6.41811e-02,9.99999e-01
4.486208064e-01,6.77570e-02,9.99999e-01,9.99999e-01,9.99976e-01,6.77585e-02,9.99999e-01
4.508639105e-01,7.14580e-02,9.99999e-01,9.99999e-01,9.99988e-01,7.14587e-02,9.99999e-01
4.531182300e-01,7.52816e-02,9.99999e-01,9.99999e-01,9.99995e-01,7.52819e-02,9.99999e-01
4.553838212e-01,7.92278e-02,9.99999e-01,9.99999e-01,9.99996e-01,7.92280e-02,9.99999e-01
4.576607403e-01,8.32967e-02,9.99999e-01,9.99999e-01,9.99998e-01,8.32968e-02,9.99999e-01
4.599490440e-01,8.74880e-02,9.99999e-01,9.99999e-01,9.99998e-01,8.74881e-02,9.99999e-01
4.622487892e-01,9.18011e-02,9.99999e-01,9.99999e-01,9.99999e-01,9.18011e-02,9.99999e-01
4.645600332e-01,9.62352e-02,9.99999e-01,9.99999e-01,9.99998e-01,9.62353e-02,9.99999e-01
4.668828333e-01,1.00789e-01,9.99999e-01,9.99999e-01,9.99988e-01,1.00790e-01,9.99999e-01
4.692172475e-01,1.05461e-01,9.99999e-01,9.99999e-01,9.99976e-01,1.05463e-01,9.99999e-01
4.715633337e-01,1.10253e-01,9.99999e-01,9.99999e-01,9.99984e-01,1.10255e-01,9.99999e-01
4.739211504e-01,1.15161e-01,9.99999e-01,9.99999e-01,9.99985e-01,1.15163e-01,9.99999e-01
4.762907561e-01,1.20185e-01,9.99999e-01,9.99999e-01,9.99991e-01,1.20186e-01,9.99999e-01
4.786722099e-01,1.25322e-01,9.99999e-01,9.99999e-01,9.99996e-01,1.25322e-01,9.99999e-01
4.810655710e-01,1.30570e-01,9.99999e-01,9.99999e-01,9.99998e-01,1.30570e-01,9.99999e-01
4.834708988e-01,1.35927e-01,9.99999e-01,9.99999e-01,9.99990e-01,1.35928e-01,9.99999e-01
4.858882533e-01,1.41391e-01,9.99999e-01,9.99999e-01,9.99983e-01,1.41393e-01,9.99999e-01
4.883176946e-01,1.46961e-01,9.99999e-01,9.99999e-01,9.99985e-01,1.46963e-01,9.99999e-01
4.907592831e-01,1.52635e-01,9.99999e-01,9.99999e-01,9.99987e-01,1.52637e-01,9.99999e-01
4.932130795e-01,1.58409e-01,9.99999e-01,9.99999e-01,9.99990e-01,1.58410e-01,9.99999e-01
4.956791449e-01,1.64281e-01,9.99999e-01,9.99999e-01,9.99994e-01,1.64282e-01,9.99999e-01
4.981575406e-01,1.70245e-01,9.99999e-01,9.99999e-01,9.99976e-01,1.70249e-01,9.99999e-01
5.006483283e-01,1.76297e-01,9.99999e-01,9.99999e-01,9.99939e-01,1.76308e-01,9.99999e-01
5.031515699e-01,1.82401e-01,9.99999e-01,9.99999e-01,9.99695e-01,1.82457e-01,9.99996e-01
5.056673278e-01,1.88661e-01,9.99999e-01,9.99999e-01,9.99838e-01,1.88692e-01,9.99995e-01
5.081956644e-01,1.94971e-01,9.99999e-01,9.99999e-01,9.99796e-01,1.95011e-01,9.99997e-01
5.107366428e-01,2.01383e-01,9.99999e-01,9.99999e-01,9.99862e-01,2.01411e-01,9.99999e-01
5.132903260e-01,2.07871e-01,9.99999e-01,9.99999e-01,9.99921e-01,2.07888e-01,9.99999e-01
5.158567776e-01,2.14432e-01,9.99999e-01,9.99999e-01,9.99966e-01,2.14439e-01,9.99999e-01
5.184360615e-01,2.21058e-01,9.99999e-01,9.99999e-01,9.99986e-01,2.21061e-01,9.99999e-01
5.210282418e-01,2.27749e-01,9.99999e-01,9.99999e-01,9.99994e-01,2.27750e-01,9.99999e-01
5.236333830e-01,2.34500e-01,9.99999e-01,9.99999e-01,9.99979e-01,2.34504e-01,9.99999e-01
5.262515499e-01,2.41316e-01,9.99999e-01,9.99999e-01,9.99987e-01,2.41319e-01,9.99999e-01
5.288828077e-01,2.48189e-01,9.99999e-01,9.99999e-01,9.99988e-01,2.48192e-01,9.99999e-01
5.315272217e-01,2.55116e-01,9.99999e-01,9.99999e-01,9.99989e-01,2.55118e-01,9.99999e-01
5.341848578e-01,2.62094e-01,9.99999e-01,9.99999e-01,9.99992e-01,2.62096e-01,9.99999e-01
5.368557821e-01,2.69114e-01,9.99999e-01,9.99999e-01,9.99976e-01,2.69121e-01,9.99999e-01
5.395400610e-01,2.76166e-01,9.99999e-01,9.99999e-01,9.99916e-01,2.76189e-01,9.99998e-01
5.422377613e-01,2.83268e-01,9.99999e-01,9.99999e-01,9.99891e-01,2.83299e-01,9.99997e-01
5.449489501e-01,2.90415e-01,9.99999e-01,9.99999e-01,9.99899e-01,2.90445e-01,9.99997e-01
5.476736949e-01,2.97599e-01,9.99999e-01,9.99999e-01,9.99910e-01,2.97625e-01,9.99998e-01
5.504120634e-01,3.04816e-01,9.99999e-01,9.99999e-01,9.99934e-01,3.04836e-01,9.99999e-01
5.531641237e-01,3.12064e-01,9.99999e-01,9.99999e-01,9.99967e-01,3.12074e-01,9.99999e-01
5.559299443e-01,3.19330e-01,9.99999e-01,9.99999e-01,9.99983e-01,3.19335e-01,9.99999e-01
5.587095940e-01,3.26614e-01,9.99999e-01,9.99999e-01,9.99989e-01,3.26617e-01,9.99999e-01
5.615031420e-01,3.33913e-01,9.99999e-01,9.99999e-01,9.99988e-01,3.33917e-01,9.99999e-01
5.643106577e-01,3.41226e-01,9.99999e-01,9.99999e-01,9.99987e-01,3.41230e-01,9.99999e-01
5.671322110e-01,3.48502e-01,9.99999e-01,9.99999e-01,9.99850e-01,3.48555e-01,9.99998e-01
5.699678720e-01,3.55828e-01,9.99999e-01,9.99999e-01,9.99838e-01,3.55887e-01,9.99995e-01
5.728177114e-01,3.63162e-01,9.99999e-01,9.99999e-01,9.99832e-01,3.63224e-01,9.99996e-01
5.756818000e-01,3.70506e-01,9.99999e-01,9.99999e-01,9.99846e-01,3.70563e-01,9.99997e-01
5.785602090e-01,3.77851e-01,9.99999e-01,9.99999e-01,9.99865e-01,3.77901e-01,9.99998e-01
5.814530100e-01,3.85184e-01,9.99999e-01,9.99999e-01,9.99865e-01,3.85235e-01,9.99999e-01
5.843602750e-01,3.92500e-01,9.99999e-01,9.99999e-01,9.99840e-01,3.92563e-01,9.99998e-01
5.872820764e-01,3.99328e-01,9.99999e-01,9.99999e-01,9.98626e-01,3.99881e-01,9.99989e-01
5.902184868e-01,4.06495e-01,9.99999e-01,9.99999e-01,9.98327e-01,4.07186e-01,9.99973e-01
5.931695792e-01,4.13978e-01,9.99999e-01,9.99999e-01,9.98820e-01,4.14477e-01,9.99973e-01
5.961354271e-01,4.21199e-01,9.99999e-01,9.99999e-01,9.98705e-01,4.21751e-01,9.99984e-01
5.991161043e-01,4.28598e-01,9.99999e-01,9.99999e-01,9.99055e-01,4.29005e-01,9.99994e-01
6.021116848e-01,4.36002e-01,9.99999e-01,9.99999e-01,9.99463e-01,4.36237e-01,9.99998e-01
6.051222432e-01,4.43323e-01,9.99999e-01,9.99999e-01,9.99728e-01,4.43444e-01,9.99999e-01
6.081478544e-01,4.50571e-01,9.99999e-01,9.99999e-01,9.99882e-01,4.50624e-01,9.99999e-01
6.111885937e-01,4.57752e-01,9.99999e-01,9.99999e-01,9.99949e-01,4.57775e-01,9.99999e-01
6.142445367e-01,4.64885e-01,9.99999e-01,9.99999e-01,9.99977e-01,4.64895e-01,9.99999e-01
6.173157594e-01,4.71977e-01,9.99999e-01,9.99999e-01,9.99987e-01,4.71982e-01,9.99999e-01
6.204023382e-01,4.79029e-01,9.99999e-01,9.99999e-01,9.99989e-01,4.79034e-01,9.99999e-01
6.235043498e-01,4.86027e-01,9.99999e-01,9.99999e-01,9.99954e-01,4.86049e-01,9.99999e-01
6.266218716e-01,4.92906e-01,9.99999e-01,9.99999e-01,9.99759e-01,4.93025e-01,9.99997e-01
6.297549810e-01,4.99915e-01,9.99999e-01,9.99999e-01,9.99911e-01,4.99960e-01,9.99996e-01
6.329037559e-01,5.06764e-01,9.99999e-01,9.99999e-01,9.99825e-01,5.06853e-01,9.99996e-01
6.360682746e-01,5.13626e-01,9.99999e-01,9.99999e-01,9.99851e-01,5.13702e-01,9.99997e-01
6.392486160e-01,5.20406e-01,9.99999e-01,9.99999e-01,9.99807e-01,5.20506e-01,9.99998e-01
6.424448591e-01,5.27127e-01,9.99999e-01,9.99999e-01,9.99743e-01,5.27263e-01,9.99998e-01
6.456570834e-01,5.33333e-01,9.99999e-01,9.99999e-01,9.98811e-01,5.33971e-01,9.99992e-01
6.488853688e-01,5.40146e-01,9.99999e-01,9.99999e-01,9.99123e-01,5.40630e-01,9.99981e-01
6.521297956e-01,5.46740e-01,9.99999e-01,9.99999e-01,9.99106e-01,5.47237e-01,9.99983e-01
6.553904446e-01,5.53298e-01,9.99999e-01,9.99999e-01,9.99117e-01,5.53793e-01,9.99987e-01
6.586673968e-01,5.59867e-01,9.99999e-01,9.99999e-01,9.99238e-01,5.60295e-01,9.99995e-01
6.619607338e-01,5.66493e-01,9.99999e-01,9.99999e-01,9.99559e-01,5.66743e-01,9.99998e-01
6.652705375e-01,5.72989e-01,9.99999e-01,9.99999e-01,9.99744e-01,5.73136e-01,9.99999e-01
6.685968902e-01,5.79403e-01,9.99999e-01,9.99999e-01,9.99881e-01,5.79472e-01,9.99999e-01
6.719398746e-01,5.85719e-01,9.99999e-01,9.99999e-01,9.99944e-01,5.85751e-01,9.99999e-01
6.752995740e-01,5.91955e-01,9.99999e-01,9.99999e-01,9.99969e-01,5.91972e-01,9.99999e-01
6.786760719e-01,5.98109e-01,9.99999e-01,9.99999e-01,9.99956e-01,5.98135e-01,9.99999e-01
6.820694522e-01,6.04193e-01,9.99999e-01,9.99999e-01,9.99926e-01,6.04238e-01,9.99999e-01
6.854797995e-01,6.10222e-01,9.99999e-01,9.99999e-01,9.99905e-01,6.10280e-01,9.99998e-01
6.889071985e-01,6.16122e-01,9.99999e-01,9.99999e-01,9.99773e-01,6.16263e-01,9.99997e-01
6.923517345e-01,6.19856e-01,9.99999e-01,9.99999e-01,9.96276e-01,6.22183e-01,9.99981e-01
6.958134932e-01,6.26785e-01,9.99999e-01,9.99999e-01,9.98038e-01,6.28042e-01,9.99959e-01
6.992925606e-01,6.32651e-01,9.99999e-01,9.99999e-01,9.98159e-01,6.33839e-01,9.99963e-01
7.027890234e-01,6.38097e-01,9.99999e-01,9.99999e-01,9.97717e-01,6.39574e-01,9.99972e-01
7.063029686e-01,6.43999e-01,9.99999e-01,9.99999e-01,9.98082e-01,6.45245e-01,9.99985e-01
7.098344834e-01,6.49651e-01,9.99999e-01,9.99999e-01,9.98160e-01,6.50853e-01,9.99991e-01
7.133836558e-01,6.54790e-01,9.99999e-01,9.99999e-01,9.97565e-01,6.56398e-01,9.99983e-01
7.169505741e-01,6.48824e-01,9.99999e-01,9.99999e-01,9.80397e-01,6.61879e-01,9.99874e-01
7.205353270e-01,6.60658e-01,9.99999e-01,9.99999e-01,9.90270e-01,6.67296e-01,9.99778e-01
7.241380036e-01,6.64303e-01,9.99999e-01,9.99999e-01,9.87779e-01,6.72650e-01,9.99808e-01
7.277586936e-01,6.70349e-01,9.99999e-01,9.99999e-01,9.88958e-01,6.77939e-01,9.99843e-01
7.313974871e-01,6.75075e-01,9.99999e-01,9.99999e-01,9.88232e-01,6.83164e-01,9.99926e-01
7.350544745e-01,6.83882e-01,9.99999e-01,9.99999e-01,9.93569e-01,6.88325e-01,9.99974e-01
7.387297469e-01,6.90132e-01,9.99999e-01,9.99999e-01,9.95266e-01,6.93422e-01,9.99987e-01
7.424233956e-01,6.96833e-01,9.99999e-01,9.99999e-01,9.97679e-01,6.98454e-01,9.99997e-01
7.461355126e-01,7.02435e-01,9.99999e-01,9.99999e-01,9.98595e-01,7.03423e-01,9.99999e-01
7.498661902e-01,7.07864e-01,9.99999e-01,9.99999e-01,9.99344e-01,7.08328e-01,9.99999e-01
7.536155211e-01,7.12941e-01,9.99999e-01,9.99999e-01,9.99678e-01,7.13170e-01,9.99999e-01
7.573835987e-01,7.17829e-01,9.99999e-01,9.99999e-01,9.99834e-01,7.17947e-01,9.99999e-01
7.611705167e-01,7.22588e-01,9.99999e-01,9.99999e-01,9.99896e-01,7.22662e-01,9.99999e-01
7.649763693e-01,7.27267e-01,9.99999e-01,9.99999e-01,9.99935e-01,7.27313e-01,9.99999e-01
7.688012511e-01,7.31869e-01,9.99999e-01,9.99999e-01,9.99954e-01,7.31902e-01,9.99999e-01
7.726452574e-01,7.36401e-01,9.99999e-01,9.99999e-01,9.99962e-01,7.36428e-01,9.99999e-01
7.765084837e-01,7.40853e-01,9.99999e-01,9.99999e-01,9.99947e-01,7.40892e-01,9.99999e-01
7.803910261e-01,7.34555e-01,9.99999e-01,9.85809e-01,9.99775e-01,7.45294e-01,9.99999e-01
7.842929812e-01,7.03694e-01,9.99999e-01,9.39438e-01,9.99215e-01,7.49634e-01,9.99998e-01
7.882144461e-01,7.03991e-01,9.99999e-01,9.35284e-01,9.98376e-01,7.53913e-01,9.99989e-01
7.921555184e-01,7.28990e-01,9.99999e-01,9.62431e-01,9.99106e-01,7.58131e-01,9.99980e-01
7.961162960e-01,7.41803e-01,9.99999e-01,9.74664e-01,9.98431e-01,7.62289e-01,9.99981e-01
8.000968774e-01,7.54434e-01,9.99999e-01,9.86211e-01,9.98182e-01,7.66387e-01,9.99979e-01
8.040973618e-01,7.63496e-01,9.99999e-01,9.92821e-01,9.98183e-01,7.70425e-01,9.99983e-01
8.081178486e-01,7.68699e-01,9.99999e-01,9.96708e-01,9.95921e-01,7.74405e-01,9.99984e-01
8.121584379e-01,7.64296e-01,9.99999e-01,9.98977e-01,9.83032e-01,7.78325e-01,9.99942e-01
8.162192301e-01,7.66009e-01,9.99999e-01,9.99773e-01,9.79746e-01,7.82188e-01,9.99784e-01
8.203003262e-01,7.77860e-01,9.99999e-01,9.99995e-01,9.89905e-01,7.85992e-01,9.99747e-01
8.244018279e-01,7.78258e-01,9.99999e-01,9.99999e-01,9.85658e-01,7.89740e-01,9.99798e-01
8.285238370e-01,7.83736e-01,9.99999e-01,9.99999e-01,9.87936e-01,7.93431e-01,9.99841e-01
8.326664562e-01,7.87265e-01,9.99999e-01,9.99999e-01,9.87767e-01,7.97065e-01,9.99934e-01
8.368297885e-01,7.93633e-01,9.99999e-01,9.99999e-01,9.91257e-01,8.00644e-01,9.99984e-01
8.410139374e-01,7.99980e-01,9.99999e-01,9.99999e-01,9.94799e-01,8.04168e-01,9.99990e-01
8.452190071e-01,8.05572e-01,9.99999e-01,9.99999e-01,9.97446e-01,8.07638e-01,9.99994e-01
8.494451021e-01,8.09851e-01,9.99999e-01,9.99999e-01,9.98521e-01,8.11053e-01,9.99995e-01
8.536923276e-01,8.13700e-01,9.99999e-01,9.99999e-01,9.99123e-01,8.14415e-01,9.99996e-01
8.579607893e-01,8.17283e-01,9.99999e-01,9.99999e-01,9.99461e-01,8.17724e-01,9.99998e-01
8.622505932e-01,8.20700e-01,9.99999e-01,9.99999e-01,9.99657e-01,8.20981e-01,9.99999e-01
8.665618462e-01,7.91836e-01,9.99999e-01,9.60947e-01,9.99788e-01,8.24186e-01,9.99999e-01
8.708946554e-01,7.04016e-01,9.99999e-01,8.51141e-01,9.99757e-01,8.27340e-01,9.99999e-01
8.752491287e-01,7.30364e-01,9.99999e-01,8.79768e-01,9.99676e-01,8.30443e-01,9.99999e-01
8.796253743e-01,7.77180e-01,9.99999e-01,9.32846e-01,9.99552e-01,8.33496e-01,9.99998e-01
8.840235012e-01,8.06659e-01,9.99999e-01,9.64818e-01,9.99488e-01,8.36500e-01,9.99996e-01
8.884436187e-01,8.26158e-01,9.99999e-01,9.85983e-01,9.98151e-01,8.39455e-01,9.99990e-01
8.928858368e-01,8.21190e-01,9.99999e-01,9.94313e-01,9.80471e-01,8.42362e-01,9.99948e-01
8.973502660e-01,8.14680e-01,9.99999e-01,9.98611e-01,9.65448e-01,8.45221e-01,9.99737e-01
9.018370173e-01,8.32410e-01,9.99999e-01,9.99846e-01,9.82129e-01,8.48033e-01,9.99587e-01
9.063462024e-01,8.34046e-01,9.99999e-01,9.96125e-01,9.84428e-01,8.50799e-01,9.99637e-01
9.108779334e-01,8.25077e-01,9.99999e-01,9.91043e-01,9.75735e-01,8.53518e-01,9.99623e-01
9.154323231e-01,8.30622e-01,9.99999e-01,9.97880e-01,9.72478e-01,8.56193e-01,9.99688e-01
9.200094847e-01,8.14284e-01,9.99999e-01,9.68834e-01,9.78325e-01,8.58822e-01,9.99825e-01
9.246095321e-01,7.96596e-01,9.99999e-01,9.56860e-01,9.66310e-01,8.61408e-01,9.99799e-01
9.292325798e-01,6.61206e-01,9.99999e-01,9.66050e-01,7.91493e-01,8.63950e-01,9.99218e-01
9.338787427e-01,6.16849e-01,9.99999e-01,9.67088e-01,7.37268e-01,8.66449e-01,9.96774e-01
9.385481364e-01,7.47707e-01,9.99999e-01,9.75783e-01,8.84703e-01,8.68906e-01,9.96164e-01
9.432408771e-01,7.20491e-01,9.99999e-01,9.85103e-01,8.41867e-01,8.71321e-01,9.96690e-01
9.479570815e-01,6.79603e-01,9.99999e-01,9.92345e-01,7.85809e-01,8.73695e-01,9.97305e-01
9.526968669e-01,7.28874e-01,9.99999e-01,9.96297e-01,8.36353e-01,8.76029e-01,9.98355e-01
9.574603512e-01,7.46604e-01,9.99999e-01,9.98415e-01,8.52057e-01,8.78322e-01,9.99164e-01
9.622476530e-01,7.72578e-01,9.99999e-01,9.99505e-01,8.78286e-01,8.80576e-01,9.99421e-01
9.670588912e-01,8.18953e-01,9.99999e-01,9.99851e-01,9.28188e-01,8.82790e-01,9.99604e-01
9.718941857e-01,8.44725e-01,9.99999e-01,9.99988e-01,9.54814e-01,8.84967e-01,9.99708e-01
9.767536566e-01,8.53538e-01,9.99999e-01,9.99999e-01,9.62373e-01,8.87106e-01,9.99777e-01
9.816374249e-01,8.64223e-01,9.99999e-01,9.99999e-01,9.71977e-01,8.89207e-01,9.99922e-01
9.865456120e-01,8.75584e-01,9.99999e-01,9.99999e-01,9.82413e-01,8.91272e-01,9.99983e-01
9.914783401e-01,8.83566e-01,9.99999e-01,9.99999e-01,9.89106e-01,8.93301e-01,9.99995e-01
9.964357318e-01,8.89968e-01,9.99999e-01,9.99999e-01,9.94053e-01,8.95294e-01,9.99996e-01
1.001417910e+00,8.94048e-01,9.99999e-01,9.99999e-01,9.96432e-01,8.97252e-01,9.99995e-01
1.006425000e+00,8.97344e-01,9.99999e-01,9.99999e-01,9.97967e-01,8.99175e-01,9.99993e-01
1.011457125e+00,8.99922e-01,9.99999e-01,9.99999e-01,9.98736e-01,9.01065e-01,9.99994e-01
1.016514411e+00,9.02144e-01,9.99999e-01,9.99999e-01,9.99142e-01,9.02921e-01,9.99995e-01
1.021596983e+00,9.04106e-01,9.99999e-01,9.99980e-01,9.99317e-01,9.04744e-01,9.99995e-01
1.026704968e+00,9.04690e-01,9.99999e-01,9.98497e-01,9.99467e-01,9.06535e-01,9.99997e-01
1.031838492e+00,8.87752e-01,9.99999e-01,9.77756e-01,9.99612e-01,9.08294e-01,9.99998e-01
1.036997685e+00,3.00834e-01,9.99999e-01,3.30644e-01,9.99769e-01,9.10021e-01,9.99999e-01
1.042182673e+00,3.67981e-01,9.99999e-01,4.03716e-01,9.99726e-01,9.11717e-01,9.99999e-01
1.047393587e+00,3.34246e-01,9.99999e-01,3.66064e-01,9.99636e-01,9.13383e-01,9.99999e-01
1.052630555e+00,6.64566e-02,9.99999e-01,7.26578e-02,9.99502e-01,9.15019e-01,9.99999e-01
1.057893707e+00,1.17417e-01,9.99999e-01,1.28183e-01,9.99169e-01,9.16626e-01,9.99999e-01
1.063183176e+00,2.08425e-01,9.99999e-01,2.27252e-01,9.98633e-01,9.18203e-01,9.99998e-01
1.068499092e+00,3.44614e-01,9.99999e-01,3.75475e-01,9.97709e-01,9.19752e-01,9.99997e-01
1.073841587e+00,4.94946e-01,9.99999e-01,5.38572e-01,9.97321e-01,9.21273e-01,9.99996e-01
1.079210795e+00,6.22959e-01,9.99999e-01,6.77343e-01,9.96562e-01,9.22767e-01,9.99990e-01
1.084606849e+00,7.43474e-01,9.99999e-01,8.08557e-01,9.94803e-01,9.24233e-01,9.99977e-01
1.090029883e+00,8.23225e-01,9.99999e-01,8.95955e-01,9.92562e-01,9.25672e-01,9.99953e-01
1.095480033e+00,8.60545e-01,9.99999e-01,9.47323e-01,9.79832e-01,9.27086e-01,9.99916e-01
1.100957433e+00,8.58831e-01,9.99999e-01,9.74315e-01,9.49416e-01,9.28473e-01,9.99847e-01
1.106462220e+00,8.05348e-01,9.99999e-01,9.89295e-01,8.75572e-01,9.29835e-01,9.99741e-01
1.111994531e+00,6.98891e-01,9.99999e-01,9.96021e-01,7.53969e-01,9.31172e-01,9.99315e-01
1.117554504e+00,5.86373e-01,9.99999e-01,9.99024e-01,6.30945e-01,9.32485e-01,9.97532e-01
1.123142276e+00,6.56063e-01,9.99999e-01,9.99935e-01,7.06754e-01,9.33773e-01,9.94159e-01
1.128757988e+00,7.46961e-01,9.99999e-01,9.99999e-01,8.04287e-01,9.35038e-01,9.93246e-01
1.134401778e+00,5.45322e-01,9.99999e-01,9.99999e-01,5.85800e-01,9.36279e-01,9.94254e-01
1.140073787e+00,8.21267e-01,9.99999e-01,9.99999e-01,8.80062e-01,9.37498e-01,9.95406e-01
1.145774156e+00,7.13006e-01,9.99999e-01,9.99999e-01,7.62779e-01,9.38694e-01,9.95794e-01
1.151503026e+00,6.91930e-01,9.99999e-01,9.99999e-01,7.37929e-01,9.39867e-01,9.97654e-01
1.157260541e+00,7.33752e-01,9.99999e-01,9.99999e-01,7.80288e-01,9.41019e-01,9.99297e-01
1.163046844e+00,7.84484e-01,9.99999e-01,9.99999e-01,8.32818e-01,9.42150e-01,9.99800e-01
1.168862078e+00,8.31373e-01,9.99999e-01,9.99999e-01,8.81473e-01,9.43260e-01,9.99897e-01
1.174706389e+00,8.73537e-01,9.99999e-01,9.99999e-01,9.25140e-01,9.44349e-01,9.99863e-01
1.180579921e+00,9.01525e-01,9.99999e-01,9.99999e-01,9.53769e-01,9.45417e-01,9.99794e-01
1.186482820e+00,9.21348e-01,9.99999e-01,9.99997e-01,9.73668e-01,9.46466e-01,9.99788e-01
1.192415234e+00,9.27726e-01,9.99999e-01,9.94610e-01,9.84570e-01,9.47495e-01,9.99841e-01
1.198377311e+00,5.59438e-01,9.99999e-01,5.96458e-01,9.86992e-01,9.48505e-01,9.99850e-01
1.204369197e+00,7.06827e-06,9.99999e-01,7.49868e-06,9.87670e-01,9.49496e-01,9.99864e-01
1.210391043e+00,7.59407e-18,9.99999e-01,8.04316e-18,9.88211e-01,9.50468e-01,9.99917e-01
1.216442998e+00,1.08003e-15,9.99999e-01,1.14234e-15,9.89950e-01,9.51423e-01,9.99949e-01
1.222525213e+00,1.88624e-15,9.99999e-01,1.98897e-15,9.92176e-01,9.52359e-01,9.99968e-01
1.228637839e+00,7.54972e-12,9.99999e-01,7.95093e-12,9.94564e-01,9.53278e-01,9.99984e-01
