#,Wave/freq,Total,N2,CO2,H2O,Rayleigh,CIA
4.000000000e-01,1.47533e-09,9.99999e-01,9.99999e-01,9.99960e-01,1.47539e-09,9.99999e-01
4.020000000e-01,2.20551e-09,9.99999e-01,9.99999e-01,9.99975e-01,2.20556e-09,9.99999e-01
4.040100000e-01,3.26966e-09,9.99999e-01,9.99999e-01,9.99989e-01,3.26969e-09,9.99999e-01
4.060300500e-01,4.80967e-09,9.99999e-01,9.99999e-01,9.99997e-01,4.80968e-09,9.99999e-01
4.080602003e-01,7.02125e-09,9.99999e-01,9.99999e-01,9.99998e-01,7.02126e-09,9.99999e-01
4.101005013e-01,1.01735e-08,9.99999e-01,9.99999e-01,9.99999e-01,1.01735e-08,9.99999e-01
4.121510038e-01,1.46332e-08,9.99999e-01,9.99999e-01,9.99998e-01,1.46332e-08,9.99999e-01
4.142117588e-01,2.08973e-08,9.99999e-01,9.99999e-01,9.99988e-01,2.08975e-08,9.99999e-01
4.162828176e-01,2.96327e-08,9.99999e-01,9.99999e-01,9.99951e-01,2.96341e-08,9.99999e-01
4.183642317e-01,4.17330e-08,9.99999e-01,9.99999e-01,9.99970e-01,4.17342e-08,9.99999e-01
4.204560528e-01,5.83779e-08,9.99999e-01,9.99999e-01,9.99981e-01,5.83789e-08,9.99999e-01
4.225583331e-01,8.11218e-08,9.99999e-01,9.99999e-01,9.99992e-01,8.11223e-08,9.99999e-01
4.246711247e-01,1.11995e-07,9.99999e-01,9.99999e-01,9.99994e-01,1.11996e-07,9.99999e-01
4.267944804e-01,1.53637e-07,9.99999e-01,9.99999e-01,9.99991e-01,1.53638e-07,9.99999e-01
4.289284528e-01,2.09449e-07,9.99999e-01,9.99999e-01,9.99993e-01,2.09451e-07,9.99999e-01
4.310730950e-01,2.83796e-07,9.99999e-01,9.99999e-01,9.99996e-01,2.83796e-07,9.99999e-01
4.332284605e-01,3.82231e-07,9.99999e-01,9.99999e-01,9.99998e-01,3.82231e-07,9.99999e-01
4.353946028e-01,5.11789e-07,9.99999e-01,9.99999e-01,9.99999e-01,5.11789e-07,9.99999e-01
4.375715758e-01,6.81318e-07,9.99999e-01,9.99999e-01,9.99994e-01,6.81321e-07,9.99999e-01
4.397594337e-01,9.01862e-07,9.99999e-01,9.99999e-01,9.99956e-01,9.01900e-07,9.99999e-01
4.419582309e-01,1.18704e-06,9.99999e-01,9.99999e-01,9.99780e-01,1.18730e-06,9.99999e-01
4.441680220e-01,1.55428e-06,9.99999e-01,9.99999e-01,9.99831e-01,1.55454e-06,9.99999e-01
4.463888621e-01,2.02421e-06,9.99999e-01,9.99999e-01,9.99824e-01,2.02456e-06,9.99999e-01
4.486208064e-01,2.62270e-06,9.99999e-01,9.99999e-01,9.99890e-01,2.62298e-06,9.99999e-01
4.508639105e-01,3.38077e-06,9.99999e-01,9.99999e-01,9.99948e-01,3.38095e-06,9.99999e-01
4.531182300e-01,4.33605e-06,9.99999e-01,9.99999e-01,9.99979e-01,4.33614e-06,9.99999e-01
4.553838212e-01,5.53386e-06,9.99999e-01,9.99999e-01,9.99985e-01,5.53393e-06,9.99999e-01
4.576607403e-01,7.02860e-06,9.99999e-01,9.99999e-01,9.99993e-01,7.02865e-06,9.99999e-01
4.599490440e-01,8.88499e-06,9.99999e-01,9.99999e-01,9.99995e-01,8.88503e-06,9.99999e-01
4.622487892e-01,1.11798e-05,9.99999e-01,9.99999e-01,9.99998e-01,1.11798e-05,9.99999e-01
4.645600332e-01,1.40036e-05,9.99999e-01,9.99999e-01,9.99996e-01,1.40036e-05,9.99999e-01
4.668828333e-01,1.74619e-05,9.99999e-01,9.99999e-01,9.99947e-01,1.74628e-05,9.99999e-01
4.692172475e-01,2.16794e-05,9.99999e-01,9.99999e-01,9.99889e-01,2.16818e-05,9.99999e-01
4.715633337e-01,2.68032e-05,9.99999e-01,9.99999e-01,9.99927e-01,2.68052e-05,9.99999e-01
4.739211504e-01,3.29984e-05,9.99999e-01,9.99999e-01,9.99930e-01,3.30007e-05,9.99999e-01
4.762907561e-01,4.04601e-05,9.99999e-01,9.99999e-01,9.99963e-01,4.04616e-05,9.99999e-01
4.786722099e-01,4.94093e-05,9.99999e-01,9.99999e-01,9.99984e-01,4.94100e-05,9.99999e-01
4.810655710e-01,6.00995e-05,9.99999e-01,9.99999e-01,9.99995e-01,6.00997e-05,9.99999e-01
4.834708988e-01,7.28168e-05,9.99999e-01,9.99999e-01,9.99956e-01,7.28199e-05,9.99999e-01
4.858882533e-01,8.78916e-05,9.99999e-01,9.99999e-01,9.99921e-01,8.78984e-05,9.99999e-01
4.883176946e-01,1.05699e-04,9.99999e-01,9.99999e-01,9.99934e-01,1.05705e-04,9.99999e-01
4.907592831e-01,1.26650e-04,9.99999e-01,9.99999e-01,9.99940e-01,1.26658e-04,9.99999e-01
4.932130795e-01,1.51215e-04,9.99999e-01,9.99999e-01,9.99957e-01,1.51222e-04,9.99999e-01
4.956791449e-01,1.79915e-04,9.99999e-01,9.99999e-01,9.99977e-01,1.79919e-04,9.99999e-01
4.981575406e-01,2.13304e-04,9.99999e-01,9.99999e-01,9.99888e-01,2.13328e-04,9.99999e-01
5.006483283e-01,2.52018e-04,9.99999e-01,9.99999e-01,9.99710e-01,2.52091e-04,9.99997e-01
5.031515699e-01,2.96481e-04,9.99999e-01,9.99999e-01,9.98543e-01,2.96918e-04,9.99984e-01
5.056673278e-01,3.48313e-04,9.99999e-01,9.99999e-01,9.99232e-01,3.48586e-04,9.99982e-01
5.081956644e-01,4.07552e-04,9.99999e-01,9.99999e-01,9.99032e-01,4.07951e-04,9.99988e-01
5.107366428e-01,4.75634e-04,9.99999e-01,9.99999e-01,9.99347e-01,4.75945e-04,9.99997e-01
5.132903260e-01,5.53378e-04,9.99999e-01,9.99999e-01,9.99627e-01,5.53584e-04,9.99999e-01
5.158567776e-01,6.41868e-04,9.99999e-01,9.99999e-01,9.99842e-01,6.41969e-04,9.99999e-01
5.184360615e-01,7.42243e-04,9.99999e-01,9.99999e-01,9.99936e-01,7.42289e-04,9.99999e-01
5.210282418e-01,8.55809e-04,9.99999e-01,9.99999e-01,9.99975e-01,8.55829e-04,9.99999e-01
5.236333830e-01,9.83872e-04,9.99999e-01,9.99999e-01,9.99904e-01,9.83966e-04,9.99998e-01
5.262515499e-01,1.12811e-03,9.99999e-01,9.99999e-01,9.99940e-01,1.12817e-03,9.99998e-01
5.288828077e-01,1.28996e-03,9.99999e-01,9.99999e-01,9.99944e-01,1.29003e-03,9.99998e-01
5.315272217e-01,1.47113e-03,9.99999e-01,9.99999e-01,9.99951e-01,1.47120e-03,9.99999e-01
5.341848578e-01,1.67342e-03,9.99999e-01,9.99999e-01,9.99968e-01,1.67347e-03,9.99999e-01
5.368557821e-01,1.89850e-03,9.99999e-01,9.99999e-01,9.99888e-01,1.89871e-03,9.99999e-01
5.395400610e-01,2.14802e-03,9.99999e-01,9.99999e-01,9.99597e-01,2.14889e-03,9.99995e-01
5.422377613e-01,2.42484e-03,9.99999e-01,9.99999e-01,9.99485e-01,2.42611e-03,9.99990e-01
5.449489501e-01,2.73119e-03,9.99999e-01,9.99999e-01,9.99519e-01,2.73253e-03,9.99989e-01
5.476736949e-01,3.06912e-03,9.99999e-01,9.99999e-01,9.99576e-01,3.07043e-03,9.99994e-01
5.504120634e-01,3.44112e-03,9.99999e-01,9.99999e-01,9.99692e-01,3.44218e-03,9.99998e-01
5.531641237e-01,3.84964e-03,9.99999e-01,9.99999e-01,9.99845e-01,3.85023e-03,9.99999e-01
5.559299443e-01,4.29682e-03,9.99999e-01,9.99999e-01,9.99925e-01,4.29714e-03,9.99999e-01
5.587095940e-01,4.78530e-03,9.99999e-01,9.99999e-01,9.99952e-01,4.78553e-03,9.99999e-01
5.615031420e-01,5.31783e-03,9.99999e-01,9.99999e-01,9.99947e-01,5.31811e-03,9.99999e-01
5.643106577e-01,5.89729e-03,9.99999e-01,9.99999e-01,9.99939e-01,5.89765e-03,9.99998e-01
5.671322110e-01,6.52220e-03,9.99999e-01,9.99999e-01,9.99270e-01,6.52700e-03,9.99993e-01
5.699678720e-01,7.20344e-03,9.99999e-01,9.99999e-01,9.99239e-01,7.20906e-03,9.99979e-01
5.728177114e-01,7.94030e-03,9.99999e-01,9.99999e-01,9.99201e-01,7.94677e-03,9.99983e-01
5.756818000e-01,8.73666e-03,9.99999e-01,9.99999e-01,9.99268e-01,8.74313e-03,9.99990e-01
5.785602090e-01,9.59504e-03,9.99999e-01,9.99999e-01,9.99363e-01,9.60117e-03,9.99996e-01
5.814530100e-01,1.05172e-02,9.99999e-01,9.99999e-01,9.99359e-01,1.05239e-02,9.99998e-01
5.843602750e-01,1.15056e-02,9.99999e-01,9.99999e-01,9.99232e-01,1.15145e-02,9.99995e-01
5.872820764e-01,1.24924e-02,9.99999e-01,9.99999e-01,9.93406e-01,1.25759e-02,9.99953e-01
5.902184868e-01,1.36008e-02,9.99999e-01,9.99999e-01,9.92065e-01,1.37113e-02,9.99873e-01
5.931695792e-01,1.48380e-02,9.99999e-01,9.99999e-01,9.94377e-01,1.49237e-02,9.99878e-01
5.961354271e-01,1.61152e-02,9.99999e-01,9.99999e-01,9.93847e-01,1.62161e-02,9.99929e-01
5.991161043e-01,1.75123e-02,9.99999e-01,9.99999e-01,9.95513e-01,1.75916e-02,9.99977e-01
6.021116848e-01,1.90045e-02,9.99999e-01,9.99999e-01,9.97454e-01,1.90530e-02,9.99997e-01
6.051222432e-01,2.05769e-02,9.99999e-01,9.99999e-01,9.98711e-01,2.06034e-02,9.99999e-01
6.081478544e-01,2.22332e-02,9.99999e-01,9.99999e-01,9.99443e-01,2.22456e-02,9.99999e-01
6.111885937e-01,2.39766e-02,9.99999e-01,9.99999e-01,9.99764e-01,2.39822e-02,9.99999e-01
6.142445367e-01,2.58134e-02,9.99999e-01,9.99999e-01,9.99894e-01,2.58161e-02,9.99999e-01
6.173157594e-01,2.77482e-02,9.99999e-01,9.99999e-01,9.99941e-01,2.77498e-02,9.99999e-01
6.204023382e-01,2.97843e-02,9.99999e-01,9.99999e-01,9.99950e-01,2.97858e-02,9.99999e-01
6.235043498e-01,3.19195e-02,9.99999e-01,9.99999e-01,9.99780e-01,3.19265e-02,9.99998e-01
6.266218716e-01,3.41347e-02,9.99999e-01,9.99999e-01,9.98853e-01,3.41742e-02,9.99991e-01
6.297549810e-01,3.65150e-02,9.99999e-01,9.99999e-01,9.99579e-01,3.65309e-02,9.99983e-01
6.329037559e-01,3.89660e-02,9.99999e-01,9.99999e-01,9.99170e-01,3.89989e-02,9.99986e-01
6.360682746e-01,4.15500e-02,9.99999e-01,9.99999e-01,9.99291e-01,4.15798e-02,9.99991e-01
6.392486160e-01,4.42347e-02,9.99999e-01,9.99999e-01,9.99082e-01,4.42754e-02,9.99996e-01
6.424448591e-01,4.70289e-02,9.99999e-01,9.99999e-01,9.98765e-01,4.70874e-02,9.99993e-01
6.456570834e-01,4.97292e-02,9.99999e-01,9.99999e-01,9.94279e-01,5.00170e-02,9.99965e-01
6.488853688e-01,5.28404e-02,9.99999e-01,9.99999e-01,9.95843e-01,5.30656e-02,9.99911e-01
6.521297956e-01,5.59920e-02,9.99999e-01,9.99999e-01,9.95763e-01,5.62343e-02,9.99926e-01
6.553904446e-01,5.92689e-02,9.99999e-01,9.99999e-01,9.95767e-01,5.95240e-02,9.99945e-01
6.586673968e-01,6.27068e-02,9.99999e-01,9.99999e-01,9.96386e-01,6.29354e-02,9.99981e-01
6.619607338e-01,6.63349e-02,9.99999e-01,9.99999e-01,9.97985e-01,6.64691e-02,9.99995e-01
6.652705375e-01,7.00406e-02,9.99999e-01,9.99999e-01,9.98790e-01,7.01255e-02,9.99997e-01
6.685968902e-01,7.38668e-02,9.99999e-01,9.99999e-01,9.99485e-01,7.39048e-02,9.99999e-01
6.719398746e-01,7.77869e-02,9.99999e-01,9.99999e-01,9.99739e-01,7.78071e-02,9.99999e-01
6.752995740e-01,8.18210e-02,9.99999e-01,9.99999e-01,9.99862e-01,8.18322e-02,9.99999e-01
6.786760719e-01,8.59622e-02,9.99999e-01,9.99999e-01,9.99794e-01,8.59798e-02,9.99999e-01
6.820694522e-01,9.02178e-02,9.99999e-01,9.99999e-01,9.99649e-01,9.02495e-02,9.99997e-01
6.854797995e-01,9.45975e-02,9.99999e-01,9.99999e-01,9.99548e-01,9.46406e-02,9.99995e-01
6.889071985e-01,9.90417e-02,9.99999e-01,9.99999e-01,9.98894e-01,9.91522e-02,9.99989e-01
6.923517345e-01,1.01930e-01,9.99999e-01,9.99999e-01,9.82220e-01,1.03783e-01,9.99914e-01
6.958134932e-01,1.07521e-01,9.99999e-01,9.99999e-01,9.90861e-01,1.08533e-01,9.99810e-01
6.992925606e-01,1.12380e-01,9.99999e-01,9.99999e-01,9.91179e-01,1.13400e-01,9.99829e-01
7.027890234e-01,1.17086e-01,9.99999e-01,9.99999e-01,9.89183e-01,1.18382e-01,9.99869e-01
7.063029686e-01,1.22346e-01,9.99999e-01,9.99999e-01,9.90891e-01,1.23478e-01,9.99934e-01
7.098344834e-01,1.27557e-01,9.99999e-01,9.99999e-01,9.91259e-01,1.28687e-01,9.99961e-01
7.133836558e-01,1.32423e-01,9.99999e-01,9.99999e-01,9.88267e-01,1.34006e-01,9.99923e-01
7.169505741e-01,1.26817e-01,9.99999e-01,9.99999e-01,9.10069e-01,1.39433e-01,9.99400e-01
7.205353270e-01,1.38366e-01,9.99999e-01,9.99999e-01,9.55481e-01,1.44966e-01,9.98943e-01
7.241380036e-01,1.41906e-01,9.99999e-01,9.99999e-01,9.43117e-01,1.50603e-01,9.99087e-01
7.277586936e-01,1.48189e-01,9.99999e-01,9.99999e-01,9.48567e-01,1.56341e-01,9.99253e-01
7.313974871e-01,1.53301e-01,9.99999e-01,9.99999e-01,9.45594e-01,1.62178e-01,9.99650e-01
7.350544745e-01,1.63024e-01,9.99999e-01,9.99999e-01,9.69858e-01,1.68111e-01,9.99878e-01
7.387297469e-01,1.70251e-01,9.99999e-01,9.99999e-01,9.77735e-01,1.74137e-01,9.99943e-01
7.424233956e-01,1.78281e-01,9.99999e-01,9.99999e-01,9.89062e-01,1.80255e-01,9.99989e-01
7.461355126e-01,1.85220e-01,9.99999e-01,9.99999e-01,9.93351e-01,1.86460e-01,9.99997e-01
7.498661902e-01,1.92153e-01,9.99999e-01,9.99999e-01,9.96906e-01,1.92749e-01,9.99998e-01
7.536155211e-01,1.98817e-01,9.99999e-01,9.99999e-01,9.98478e-01,1.99120e-01,9.99999e-01
7.573835987e-01,2.05409e-01,9.99999e-01,9.99999e-01,9.99216e-01,2.05570e-01,9.99999e-01
7.611705167e-01,2.11992e-01,9.99999e-01,9.99999e-01,9.99512e-01,2.12095e-01,9.99999e-01
7.649763693e-01,2.18625e-01,9.99999e-01,9.99999e-01,9.99694e-01,2.18692e-01,9.99999e-01
7.688012511e-01,2.25310e-01,9.99999e-01,9.99999e-01,9.99786e-01,2.25358e-01,9.99999e-01
7.726452574e-01,2.32049e-01,9.99999e-01,9.99999e-01,9.99824e-01,2.32089e-01,9.99999e-01
7.765084837e-01,2.38823e-01,9.99999e-01,9.99999e-01,9.99749e-01,2.38883e-01,9.99999e-01
7.803910261e-01,2.30504e-01,9.99999e-01,9.38978e-01,9.98916e-01,2.45735e-01,9.99998e-01
7.842929812e-01,1.89764e-01,9.99999e-01,7.53730e-01,9.96221e-01,2.52643e-01,9.99992e-01
7.882144461e-01,1.90485e-01,9.99999e-01,7.39105e-01,9.92276e-01,2.59603e-01,9.99946e-01
7.921555184e-01,2.21580e-01,9.99999e-01,8.34549e-01,9.95774e-01,2.66611e-01,9.99907e-01
7.961162960e-01,2.40659e-01,9.99999e-01,8.86023e-01,9.92480e-01,2.73665e-01,9.99911e-01
8.000968774e-01,2.60613e-01,9.99999e-01,9.36382e-01,9.91353e-01,2.80760e-01,9.99906e-01
8.040973618e-01,2.75859e-01,9.99999e-01,9.66601e-01,9.91342e-01,2.87893e-01,9.99928e-01
8.081178486e-01,2.84814e-01,9.99999e-01,9.84475e-01,9.80507e-01,2.95062e-01,9.99927e-01
8.121584379e-01,2.77132e-01,9.99999e-01,9.95216e-01,9.21435e-01,3.02262e-01,9.99726e-01
8.162192301e-01,2.80482e-01,9.99999e-01,9.98941e-01,9.08128e-01,3.09490e-01,9.98972e-01
8.203003262e-01,3.01446e-01,9.99999e-01,9.99984e-01,9.52858e-01,3.16744e-01,9.98796e-01
8.244018279e-01,3.03008e-01,9.99999e-01,9.99999e-01,9.36050e-01,3.24019e-01,9.99041e-01
8.285238370e-01,3.12455e-01,9.99999e-01,9.99999e-01,9.43790e-01,3.31313e-01,9.99247e-01
8.326664562e-01,3.19354e-01,9.99999e-01,9.99999e-01,9.43393e-01,3.38621e-01,9.99688e-01
8.368297885e-01,3.31815e-01,9.99999e-01,9.99999e-01,9.59229e-01,3.45942e-01,9.99928e-01
8.410139374e-01,3.44630e-01,9.99999e-01,9.99999e-01,9.75577e-01,3.53272e-01,9.99957e-01
8.452190071e-01,3.56258e-01,9.99999e-01,9.99999e-01,9.87960e-01,3.60608e-01,9.99974e-01
8.494451021e-01,3.65357e-01,9.99999e-01,9.99999e-01,9.92979e-01,3.67947e-01,9.99979e-01
8.536923276e-01,3.73725e-01,9.99999e-01,9.99999e-01,9.95853e-01,3.75286e-01,9.99987e-01
8.579607893e-01,3.81641e-01,9.99999e-01,9.99999e-01,9.97439e-01,3.82621e-01,9.99996e-01
8.622505932e-01,3.89318e-01,9.99999e-01,9.99999e-01,9.98375e-01,3.89952e-01,9.99998e-01
8.665618462e-01,3.53773e-01,9.99999e-01,8.91352e-01,9.98992e-01,3.97273e-01,9.99999e-01
8.708946554e-01,1.98964e-01,9.99999e-01,4.92310e-01,9.98844e-01,4.04584e-01,9.99998e-01
8.752491287e-01,2.30575e-01,9.99999e-01,5.60634e-01,9.98455e-01,4.11880e-01,9.99997e-01
8.796253743e-01,3.03171e-01,9.99999e-01,7.24755e-01,9.97855e-01,4.19160e-01,9.99994e-01
8.840235012e-01,3.59484e-01,9.99999e-01,8.45048e-01,9.97552e-01,4.26421e-01,9.99984e-01
8.884436187e-01,4.02233e-01,9.99999e-01,9.35842e-01,9.90993e-01,4.33661e-01,9.99957e-01
8.928858368e-01,3.90643e-01,9.99999e-01,9.73421e-01,9.10065e-01,4.40877e-01,9.99755e-01
8.973502660e-01,3.76950e-01,9.99999e-01,9.93508e-01,8.47625e-01,4.48067e-01,9.98749e-01
9.018370173e-01,4.17489e-01,9.99999e-01,9.99283e-01,9.19521e-01,4.55229e-01,9.98035e-01
9.063462024e-01,4.20808e-01,9.99999e-01,9.81440e-01,9.27924e-01,4.62361e-01,9.98273e-01
9.108779334e-01,4.00218e-01,9.99999e-01,9.58334e-01,8.90306e-01,4.69460e-01,9.98206e-01
9.154323231e-01,4.13046e-01,9.99999e-01,9.90138e-01,8.76376e-01,4.76524e-01,9.98516e-01
9.200094847e-01,3.83035e-01,9.99999e-01,8.70595e-01,9.02096e-01,4.83553e-01,9.99169e-01
9.246095321e-01,3.41035e-01,9.99999e-01,8.12272e-01,8.51254e-01,4.90543e-01,9.99043e-01
9.292325798e-01,1.52674e-01,9.99999e-01,8.49745e-01,3.53073e-01,4.97493e-01,9.95390e-01
9.338787427e-01,1.15106e-01,9.99999e-01,8.54607e-01,2.64754e-01,5.04401e-01,9.83439e-01
9.385481364e-01,2.63749e-01,9.99999e-01,8.90545e-01,5.83421e-01,5.11266e-01,9.81820e-01
9.432408771e-01,2.28328e-01,9.99999e-01,9.31470e-01,4.77575e-01,5.18086e-01,9.84296e-01
9.479570815e-01,1.82299e-01,9.99999e-01,9.64165e-01,3.63723e-01,5.24859e-01,9.87200e-01
9.526968669e-01,2.40267e-01,9.99999e-01,9.82595e-01,4.62489e-01,5.31585e-01,9.92173e-01
9.574603512e-01,2.57555e-01,9.99999e-01,9.92523e-01,4.83600e-01,5.38262e-01,9.96016e-01
9.622476530e-01,2.99041e-01,9.99999e-01,9.97663e-01,5.51479e-01,5.44888e-01,9.97243e-01
9.670588912e-01,3.89564e-01,9.99999e-01,9.99300e-01,7.08204e-01,5.51462e-01,9.98114e-01
9.718941857e-01,4.47881e-01,9.99999e-01,9.99951e-01,8.03827e-01,5.57983e-01,9.98611e-01
9.767536566e-01,4.70287e-01,9.99999e-01,9.99999e-01,8.34060e-01,5.64451e-01,9.98938e-01
9.816374249e-01,4.98846e-01,9.99999e-01,9.99999e-01,8.74166e-01,5.70863e-01,9.99632e-01
9.865456120e-01,5.30620e-01,9.99999e-01,9.99999e-01,9.19339e-01,5.77220e-01,9.99923e-01
9.914783401e-01,5.53915e-01,9.99999e-01,9.99999e-01,9.49285e-01,5.83519e-01,9.99978e-01
9.964357318e-01,5.73278e-01,9.99999e-01,9.99999e-01,9.72062e-01,5.89761e-01,9.99987e-01
1.001417910e+00,5.85901e-01,9.99999e-01,9.99999e-01,9.83164e-01,5.95945e-01,9.99980e-01
1.006425000e+00,5.96245e-01,9.99999e-01,9.99999e-01,9.90353e-01,6.02069e-01,9.99972e-01
1.011457125e+00,6.04478e-01,9.99999e-01,9.99999e-01,9.94014e-01,6.08133e-01,9.99974e-01
1.016514411e+00,6.11626e-01,9.99999e-01,9.99999e-01,9.95928e-01,6.14137e-01,9.99981e-01
1.021596983e+00,6.17988e-01,9.99999e-01,9.99890e-01,9.96752e-01,6.20080e-01,9.99982e-01
1.026704968e+00,6.19790e-01,9.99999e-01,9.92661e-01,9.97465e-01,6.25961e-01,9.99988e-01
1.031838492e+00,5.85246e-01,9.99999e-01,9.27976e-01,9.98160e-01,6.31780e-01,9.99996e-01
1.036997685e+00,5.22609e-02,9.99999e-01,8.20419e-02,9.98905e-01,6.37537e-01,9.99998e-01
1.042182673e+00,1.43908e-02,9.99999e-01,2.23969e-02,9.98691e-01,6.43231e-01,9.99999e-01
1.047393587e+00,2.55702e-02,9.99999e-01,3.94663e-02,9.98267e-01,6.48861e-01,9.99999e-01
1.052630555e+00,5.46629e-05,9.99999e-01,8.36610e-05,9.97620e-01,6.54429e-01,9.99998e-01
1.057893707e+00,1.91145e-04,9.99999e-01,2.90314e-04,9.96026e-01,6.59932e-01,9.99998e-01
1.063183176e+00,1.53123e-03,9.99999e-01,2.31088e-03,9.93473e-01,6.65372e-01,9.99996e-01
1.068499092e+00,8.03536e-03,9.99999e-01,1.20786e-02,9.89104e-01,6.70748e-01,9.99992e-01
1.073841587e+00,4.03219e-02,9.99999e-01,6.02461e-02,9.87246e-01,6.76061e-01,9.99983e-01
1.079210795e+00,1.13790e-01,9.99999e-01,1.69364e-01,9.83719e-01,6.81308e-01,9.99955e-01
1.084606849e+00,2.49075e-01,9.99999e-01,3.71250e-01,9.75430e-01,6.86492e-01,9.99894e-01
1.090029883e+00,3.98479e-01,9.99999e-01,5.96236e-01,9.64767e-01,6.91612e-01,9.99781e-01
1.095480033e+00,4.90462e-01,9.99999e-01,7.74931e-01,9.07041e-01,6.96668e-01,9.99605e-01
1.100957433e+00,4.85483e-01,9.99999e-01,8.84107e-01,7.81267e-01,7.01659e-01,9.99274e-01
1.106462220e+00,3.62956e-01,9.99999e-01,9.50360e-01,5.39391e-01,7.06587e-01,9.98769e-01
1.111994531e+00,1.94851e-01,9.99999e-01,9.81295e-01,2.79359e-01,7.11451e-01,9.96738e-01
1.117554504e+00,9.28610e-02,9.99999e-01,9.95419e-01,1.31610e-01,7.16251e-01,9.88275e-01
1.123142276e+00,1.68216e-01,9.99999e-01,9.99700e-01,2.39949e-01,7.20988e-01,9.72419e-01
1.128757988e+00,2.69929e-01,9.99999e-01,9.99999e-01,3.84208e-01,7.25662e-01,9.68162e-01
1.134401778e+00,1.30950e-01,9.99999e-01,9.99999e-01,1.84319e-01,7.30273e-01,9.72863e-01
1.140073787e+00,4.00082e-01,9.99999e-01,9.99999e-01,5.56561e-01,7.34821e-01,9.78258e-01
1.145774156e+00,2.22369e-01,9.99999e-01,9.99999e-01,3.06892e-01,7.39307e-01,9.80080e-01
1.151503026e+00,1.99308e-01,9.99999e-01,9.99999e-01,2.71004e-01,7.43731e-01,9.88853e-01
1.157260541e+00,2.40430e-01,9.99999e-01,9.99999e-01,3.22468e-01,7.48094e-01,9.96653e-01
1.163046844e+00,3.24436e-01,9.99999e-01,9.99999e-01,4.31614e-01,7.52394e-01,9.99050e-01
1.168862078e+00,4.18309e-01,9.99999e-01,9.99999e-01,5.53124e-01,7.56634e-01,9.99510e-01
1.174706389e+00,5.27298e-01,9.99999e-01,9.99999e-01,6.93520e-01,7.60814e-01,9.99351e-01
1.180579921e+00,6.11213e-01,9.99999e-01,9.99999e-01,7.99825e-01,7.64933e-01,9.99019e-01
1.186482820e+00,6.76810e-01,9.99999e-01,9.99983e-01,8.81023e-01,7.68993e-01,9.98993e-01
1.192415234e+00,6.99269e-01,9.99999e-01,9.74348e-01,9.28627e-01,7.72993e-01,9.99245e-01
1.198377311e+00,3.97798e-01,9.99999e-01,5.39759e-01,9.39434e-01,7.76934e-01,9.99287e-01
1.204369197e+00,1.34906e-19,9.99999e-01,1.78891e-19,9.42698e-01,7.80817e-01,9.99355e-01
1.210391043e+00,1.00641e-76,9.99999e-01,1.32405e-76,9.45101e-01,7.84643e-01,9.99607e-01
1.216442998e+00,1.65707e-66,9.99999e-01,2.16574e-66,9.53176e-01,7.88410e-01,9.99759e-01
1.222525213e+00,1.61894e-65,9.99999e-01,2.08387e-65,9.63310e-01,7.92121e-01,9.99850e-01
1.228637839e+00,1.13329e-50,9.99999e-01,1.44953e-50,9.74365e-01,7.95776e-01,9.99930e-01
