#,Wave/freq,Total,N2,O2,H2O,Rayleigh,CIA
4.000000000e-01,2.92609e-01,9.99999e-01,9.99999e-01,9.99861e-01,2.92650e-01,9.99999e-01
4.020000000e-01,2.99822e-01,9.99999e-01,9.99999e-01,9.99914e-01,2.99847e-01,9.99999e-01
4.040100000e-01,3.07055e-01,9.99999e-01,9.99999e-01,9.99963e-01,3.07067e-01,9.99999e-01
4.060300500e-01,3.14309e-01,9.99999e-01,9.99999e-01,9.99991e-01,3.14312e-01,9.99999e-01
4.080602003e-01,3.21579e-01,9.99999e-01,9.99999e-01,9.99996e-01,3.21580e-01,9.99999e-01
4.101005013e-01,3.28868e-01,9.99999e-01,9.99999e-01,9.99999e-01,3.28868e-01,9.99999e-01
4.121510038e-01,3.36170e-01,9.99999e-01,9.99999e-01,9.99994e-01,3.36172e-01,9.99999e-01
4.142117588e-01,3.43476e-01,9.99999e-01,9.99999e-01,9.99960e-01,3.43489e-01,9.99999e-01
4.162828176e-01,3.50756e-01,9.99999e-01,9.99999e-01,9.99828e-01,3.50816e-01,9.99999e-01
4.183642317e-01,3.58114e-01,9.99999e-01,9.99999e-01,9.99897e-01,3.58151e-01,9.99999e-01
4.204560528e-01,3.65466e-01,9.99999e-01,9.99999e-01,9.99937e-01,3.65489e-01,9.99999e-01
4.225583331e-01,3.72819e-01,9.99999e-01,9.99999e-01,9.99976e-01,3.72828e-01,9.99999e-01
4.246711247e-01,3.80158e-01,9.99999e-01,9.99999e-01,9.99980e-01,3.80165e-01,9.99999e-01
4.267944804e-01,3.87487e-01,9.99999e-01,9.99999e-01,9.99972e-01,3.87497e-01,9.99999e-01
4.289284528e-01,3.94814e-01,9.99999e-01,9.99999e-01,9.99978e-01,3.94822e-01,9.99999e-01
4.310730950e-01,4.02133e-01,9.99999e-01,9.99999e-01,9.99990e-01,4.02136e-01,9.99999e-01
4.332284605e-01,4.09437e-01,9.99999e-01,9.99999e-01,9.99997e-01,4.09438e-01,9.99999e-01
4.353946028e-01,4.16723e-01,9.99999e-01,9.99999e-01,9.99998e-01,4.16724e-01,9.99999e-01
4.375715758e-01,4.23984e-01,9.99999e-01,9.99999e-01,9.99982e-01,4.23992e-01,9.99999e-01
4.397594337e-01,4.31173e-01,9.99999e-01,9.99999e-01,9.99846e-01,4.31239e-01,9.99999e-01
4.419582309e-01,4.38122e-01,9.99999e-01,9.99999e-01,9.99221e-01,4.38463e-01,9.99999e-01
4.441680220e-01,4.45398e-01,9.99999e-01,9.99999e-01,9.99406e-01,4.45662e-01,9.99999e-01
4.463888621e-01,4.52552e-01,9.99999e-01,9.99999e-01,9.99377e-01,4.52834e-01,9.99999e-01
4.486208064e-01,4.59799e-01,9.99999e-01,9.99999e-01,9.99615e-01,4.59976e-01,9.99999e-01
4.508639105e-01,4.67002e-01,9.99999e-01,9.99999e-01,9.99819e-01,4.67086e-01,9.99999e-01
4.531182300e-01,4.74129e-01,9.99999e-01,9.99999e-01,9.99928e-01,4.74162e-01,9.99999e-01
4.553838212e-01,4.81179e-01,9.99999e-01,9.99999e-01,9.99951e-01,4.81203e-01,9.99999e-01
4.576607403e-01,4.88195e-01,9.99999e-01,9.99999e-01,9.99977e-01,4.88206e-01,9.99999e-01
4.599490440e-01,4.95162e-01,9.99999e-01,9.99999e-01,9.99983e-01,4.95169e-01,9.99999e-01
4.622487892e-01,5.02090e-01,9.99999e-01,9.99999e-01,9.99996e-01,5.02092e-01,9.99999e-01
4.645600332e-01,5.08966e-01,9.99999e-01,9.99999e-01,9.99988e-01,5.08971e-01,9.99999e-01
4.668828333e-01,5.15712e-01,9.99999e-01,9.99999e-01,9.99815e-01,5.15807e-01,9.99999e-01
4.692172475e-01,5.22392e-01,9.99999e-01,9.99999e-01,9.99609e-01,5.22596e-01,9.99999e-01
4.715633337e-01,5.29203e-01,9.99999e-01,9.99999e-01,9.99744e-01,5.29338e-01,9.99999e-01
4.739211504e-01,5.35901e-01,9.99999e-01,9.99999e-01,9.99756e-01,5.36031e-01,9.99999e-01
4.762907561e-01,5.42606e-01,9.99999e-01,9.99999e-01,9.99873e-01,5.42674e-01,9.99999e-01
4.786722099e-01,5.49238e-01,9.99999e-01,9.99999e-01,9.99948e-01,5.49266e-01,9.99999e-01
4.810655710e-01,5.55796e-01,9.99999e-01,9.99999e-01,9.99984e-01,5.55805e-01,9.99999e-01
4.834708988e-01,5.62205e-01,9.99999e-01,9.99999e-01,9.99846e-01,5.62291e-01,9.99999e-01
4.858882533e-01,5.68565e-01,9.99999e-01,9.99999e-01,9.99724e-01,5.68722e-01,9.99999e-01
4.883176946e-01,5.74964e-01,9.99999e-01,9.99999e-01,9.99767e-01,5.75097e-01,9.99999e-01
4.907592831e-01,5.81295e-01,9.99999e-01,9.99999e-01,9.99791e-01,5.81416e-01,9.99999e-01
4.932130795e-01,5.87590e-01,9.99999e-01,9.99999e-01,9.99851e-01,5.87677e-01,9.99999e-01
4.956791449e-01,5.93834e-01,9.99999e-01,9.99999e-01,9.99921e-01,5.93880e-01,9.99999e-01
4.981575406e-01,5.99788e-01,9.99999e-01,9.99999e-01,9.99605e-01,6.00024e-01,9.99999e-01
5.006483283e-01,6.05482e-01,9.99999e-01,9.99999e-01,9.98972e-01,6.06109e-01,9.99992e-01
5.031515699e-01,6.08947e-01,9.99999e-01,9.99999e-01,9.94848e-01,6.12133e-01,9.99945e-01
5.056673278e-01,6.16382e-01,9.99999e-01,9.99999e-01,9.97287e-01,6.18096e-01,9.99937e-01
5.081956644e-01,6.21841e-01,9.99999e-01,9.99999e-01,9.96580e-01,6.23998e-01,9.99961e-01
5.107366428e-01,6.28381e-01,9.99999e-01,9.99999e-01,9.97692e-01,6.29838e-01,9.99993e-01
5.132903260e-01,6.34778e-01,9.99999e-01,9.99999e-01,9.98683e-01,6.35616e-01,9.99998e-01
5.158567776e-01,6.40974e-01,9.99999e-01,9.99999e-01,9.99444e-01,6.41330e-01,9.99999e-01
5.184360615e-01,6.46839e-01,9.99999e-01,9.99999e-01,9.99777e-01,6.46982e-01,9.99999e-01
5.210282418e-01,6.52516e-01,9.99999e-01,9.99999e-01,9.99915e-01,6.52571e-01,9.99999e-01
5.236333830e-01,6.57874e-01,9.99999e-01,9.99999e-01,9.99663e-01,6.58096e-01,9.99997e-01
5.262515499e-01,6.63416e-01,9.99999e-01,9.99999e-01,9.99789e-01,6.63558e-01,9.99996e-01
5.288828077e-01,6.68824e-01,9.99999e-01,9.99999e-01,9.99805e-01,6.68955e-01,9.99997e-01
5.315272217e-01,6.74175e-01,9.99999e-01,9.99999e-01,9.99831e-01,6.74289e-01,9.99999e-01
5.341848578e-01,6.79482e-01,9.99999e-01,9.99999e-01,9.99888e-01,6.79558e-01,9.99999e-01
5.368557821e-01,6.84493e-01,9.99999e-01,9.99999e-01,9.99606e-01,6.84763e-01,9.99998e-01
5.395400610e-01,6.88909e-01,9.99999e-01,9.99999e-01,9.98570e-01,6.89904e-01,9.99986e-01
5.422377613e-01,6.93696e-01,9.99999e-01,9.99999e-01,9.98182e-01,6.94981e-01,9.99966e-01
5.449489501e-01,6.98778e-01,9.99999e-01,9.99999e-01,9.98296e-01,6.99994e-01,9.99965e-01
5.476736949e-01,7.03878e-01,9.99999e-01,9.99999e-01,9.98504e-01,7.04944e-01,9.99982e-01
5.504120634e-01,7.09055e-01,9.99999e-01,9.99999e-01,9.98913e-01,7.09829e-01,9.99994e-01
5.531641237e-01,7.14260e-01,9.99999e-01,9.99999e-01,9.99453e-01,7.14651e-01,9.99998e-01
5.559299443e-01,7.19219e-01,9.99999e-01,9.99999e-01,9.99736e-01,7.19409e-01,9.99999e-01
5.587095940e-01,7.23984e-01,9.99999e-01,9.99999e-01,9.99833e-01,7.24104e-01,9.99999e-01
5.615031420e-01,7.28601e-01,9.99999e-01,9.99999e-01,9.99814e-01,7.28736e-01,9.99999e-01
5.643106577e-01,7.33148e-01,9.99999e-01,9.99999e-01,9.99787e-01,7.33305e-01,9.99997e-01
5.671322110e-01,7.35881e-01,9.99999e-01,9.99999e-01,9.97405e-01,7.37812e-01,9.99976e-01
5.699678720e-01,7.40216e-01,9.99999e-01,9.99999e-01,9.97319e-01,7.42257e-01,9.99930e-01
5.728177114e-01,7.44487e-01,9.99999e-01,9.99999e-01,9.97173e-01,7.46639e-01,9.99941e-01
5.756818000e-01,7.48993e-01,9.99999e-01,9.99999e-01,9.97412e-01,7.50961e-01,9.99966e-01
5.785602090e-01,7.53515e-01,9.99999e-01,9.99999e-01,9.97749e-01,7.55221e-01,9.99989e-01
5.814530100e-01,7.57697e-01,9.99999e-01,9.99999e-01,9.97733e-01,7.59421e-01,9.99994e-01
5.843602750e-01,7.61471e-01,9.99999e-01,9.99999e-01,9.97278e-01,7.63560e-01,9.99984e-01
5.872820764e-01,7.49763e-01,9.99999e-01,9.99999e-01,9.76871e-01,7.67640e-01,9.99836e-01
5.902184868e-01,7.49887e-01,9.99999e-01,9.99999e-01,9.72217e-01,7.71660e-01,9.99554e-01
5.931695792e-01,7.59994e-01,9.99999e-01,9.99999e-01,9.80272e-01,7.75621e-01,9.99571e-01
5.961354271e-01,7.62510e-01,9.99999e-01,9.99999e-01,9.78414e-01,7.79523e-01,9.99753e-01
5.991161043e-01,7.70947e-01,9.99999e-01,9.99999e-01,9.84219e-01,7.83368e-01,9.99923e-01
6.021116848e-01,7.80086e-01,9.99999e-01,9.99999e-01,9.91027e-01,7.87155e-01,9.99991e-01
6.051222432e-01,7.87288e-01,9.99999e-01,9.99999e-01,9.95452e-01,7.90885e-01,9.99999e-01
6.081478544e-01,7.92997e-01,9.99999e-01,9.99999e-01,9.98034e-01,7.94558e-01,9.99999e-01
6.111885937e-01,7.97514e-01,9.99999e-01,9.99999e-01,9.99170e-01,7.98176e-01,9.99999e-01
6.142445367e-01,8.01440e-01,9.99999e-01,9.99999e-01,9.99628e-01,8.01738e-01,9.99999e-01
6.173157594e-01,8.05080e-01,9.99999e-01,9.99999e-01,9.99794e-01,8.05245e-01,9.99999e-01
6.204023382e-01,8.08556e-01,9.99999e-01,9.99999e-01,9.99825e-01,8.08697e-01,9.99999e-01
6.235043498e-01,8.11461e-01,9.99999e-01,9.99999e-01,9.99219e-01,8.12096e-01,9.99997e-01
6.266218716e-01,8.12112e-01,9.99999e-01,9.99999e-01,9.95944e-01,8.15442e-01,9.99971e-01
6.297549810e-01,8.17469e-01,9.99999e-01,9.99999e-01,9.98510e-01,8.18735e-01,9.99942e-01
6.329037559e-01,8.19528e-01,9.99999e-01,9.99999e-01,9.97067e-01,8.21975e-01,9.99953e-01
6.360682746e-01,8.23071e-01,9.99999e-01,9.99999e-01,9.97489e-01,8.25164e-01,9.99972e-01
6.392486160e-01,8.25606e-01,9.99999e-01,9.99999e-01,9.96755e-01,8.28303e-01,9.99987e-01
6.424448591e-01,8.27735e-01,9.99999e-01,9.99999e-01,9.95623e-01,8.31390e-01,9.99978e-01
6.456570834e-01,8.17524e-01,9.99999e-01,9.99999e-01,9.79861e-01,8.34428e-01,9.99877e-01
6.488853688e-01,8.24932e-01,9.99999e-01,9.99999e-01,9.85398e-01,8.37417e-01,9.99686e-01
6.521297956e-01,8.27651e-01,9.99999e-01,9.99999e-01,9.85133e-01,8.40357e-01,9.99741e-01
6.553904446e-01,8.30516e-01,9.99999e-01,9.99999e-01,9.85088e-01,8.43249e-01,9.99807e-01
6.586673968e-01,8.35283e-01,9.99999e-01,9.99999e-01,9.87286e-01,8.46094e-01,9.99935e-01
6.619607338e-01,8.42847e-01,9.99999e-01,9.99999e-01,9.92893e-01,8.48891e-01,9.99985e-01
6.652705375e-01,8.47999e-01,9.99999e-01,9.99999e-01,9.95728e-01,8.51643e-01,9.99992e-01
6.685968902e-01,8.52797e-01,9.99999e-01,9.99999e-01,9.98184e-01,8.54348e-01,9.99998e-01
6.719398746e-01,8.56221e-01,9.99999e-01,9.99999e-01,9.99080e-01,8.57009e-01,9.99999e-01
6.752995740e-01,8.59207e-01,9.99999e-01,9.99999e-01,9.99513e-01,8.59625e-01,9.99999e-01
6.786760719e-01,8.61568e-01,9.99999e-01,9.99999e-01,9.99271e-01,8.62197e-01,9.99998e-01
6.820694522e-01,8.63638e-01,9.99999e-01,9.99999e-01,9.98748e-01,8.64726e-01,9.99993e-01
6.854797995e-01,8.65813e-01,9.99999e-01,9.99999e-01,9.98399e-01,8.67212e-01,9.99985e-01
6.889071985e-01,8.66214e-01,9.99999e-01,9.99999e-01,9.96075e-01,8.69656e-01,9.99965e-01
6.923517345e-01,8.18282e-01,9.99999e-01,9.99999e-01,9.38617e-01,8.72058e-01,9.99697e-01
6.958134932e-01,8.46173e-01,9.99999e-01,9.99999e-01,9.68343e-01,8.74420e-01,9.99330e-01
6.992925606e-01,8.49159e-01,9.99999e-01,9.99999e-01,9.69124e-01,8.76740e-01,9.99396e-01
7.027890234e-01,8.45514e-01,9.99999e-01,9.99999e-01,9.62323e-01,8.79021e-01,9.99539e-01
7.063029686e-01,8.53002e-01,9.99999e-01,9.99999e-01,9.68152e-01,8.81263e-01,9.99770e-01
7.098344834e-01,8.56325e-01,9.99999e-01,9.99999e-01,9.69409e-01,8.83466e-01,9.99864e-01
7.133836558e-01,8.49193e-01,9.99999e-01,9.99999e-01,9.59114e-01,8.85631e-01,9.99730e-01
7.169505741e-01,6.41014e-01,9.99999e-01,9.99999e-01,7.23592e-01,8.87758e-01,9.97881e-01
7.205353270e-01,7.57596e-01,9.99999e-01,9.99999e-01,8.54568e-01,8.89848e-01,9.96264e-01
7.241380036e-01,7.25144e-01,9.99999e-01,9.99999e-01,8.15661e-01,8.91902e-01,9.96773e-01
7.277586936e-01,7.42104e-01,9.99999e-01,9.99999e-01,8.32364e-01,8.93920e-01,9.97362e-01
7.313974871e-01,7.35982e-01,9.99999e-01,9.99999e-01,8.22514e-01,8.95902e-01,9.98763e-01
7.350544745e-01,8.06022e-01,9.99999e-01,9.99999e-01,8.98111e-01,8.97849e-01,9.99569e-01
7.387297469e-01,8.30961e-01,9.99999e-01,9.99999e-01,9.23715e-01,8.99762e-01,9.99802e-01
7.424233956e-01,8.67287e-01,9.99999e-01,9.99999e-01,9.61930e-01,9.01641e-01,9.99965e-01
7.461355126e-01,8.82436e-01,9.99999e-01,9.99999e-01,9.76704e-01,9.03487e-01,9.99993e-01
7.498661902e-01,8.95447e-01,9.99999e-01,9.99999e-01,9.89117e-01,9.05300e-01,9.99997e-01
7.536155211e-01,9.02209e-01,9.99999e-01,9.99999e-01,9.94629e-01,9.07081e-01,9.99998e-01
7.573835987e-01,9.06316e-01,9.99999e-01,9.99999e-01,9.97233e-01,9.08830e-01,9.99999e-01
7.611705167e-01,9.08982e-01,9.99999e-01,9.99999e-01,9.98279e-01,9.10548e-01,9.99999e-01
7.649763693e-01,9.11250e-01,9.99999e-01,9.99999e-01,9.98920e-01,9.12235e-01,9.99999e-01
7.688012511e-01,9.13203e-01,9.99999e-01,9.99999e-01,9.99246e-01,9.13891e-01,9.99999e-01
7.726452574e-01,9.14950e-01,9.99999e-01,9.99999e-01,9.99379e-01,9.15518e-01,9.99999e-01
7.765084837e-01,9.16301e-01,9.99999e-01,9.99999e-01,9.99111e-01,9.17116e-01,9.99998e-01
7.803910261e-01,9.15153e-01,9.99999e-01,9.99999e-01,9.96159e-01,9.18684e-01,9.99995e-01
7.842929812e-01,9.07929e-01,9.99999e-01,9.99999e-01,9.86661e-01,9.20225e-01,9.99975e-01
7.882144461e-01,8.96625e-01,9.99999e-01,9.99999e-01,9.72937e-01,9.21737e-01,9.99811e-01
7.921555184e-01,9.09225e-01,9.99999e-01,9.99999e-01,9.85159e-01,9.23222e-01,9.99673e-01
7.961162960e-01,9.00007e-01,9.99999e-01,9.99999e-01,9.73619e-01,9.24680e-01,9.99688e-01
8.000968774e-01,8.97767e-01,9.99999e-01,9.99999e-01,9.69714e-01,9.26111e-01,9.99668e-01
8.040973618e-01,8.99169e-01,9.99999e-01,9.99999e-01,9.69680e-01,9.27517e-01,9.99747e-01
8.081178486e-01,8.66357e-01,9.99999e-01,9.99999e-01,9.32911e-01,9.28896e-01,9.99744e-01
8.121584379e-01,6.99314e-01,9.99999e-01,9.99999e-01,7.52475e-01,9.30250e-01,9.99032e-01
8.162192301e-01,6.65866e-01,9.99999e-01,9.99999e-01,7.17377e-01,9.31580e-01,9.96365e-01
8.203003262e-01,7.89938e-01,9.99999e-01,9.99999e-01,8.50385e-01,9.32885e-01,9.95746e-01
8.244018279e-01,7.49719e-01,9.99999e-01,9.99999e-01,8.05280e-01,9.34166e-01,9.96613e-01
8.285238370e-01,7.62252e-01,9.99999e-01,9.99999e-01,8.17047e-01,9.35423e-01,9.97338e-01
8.326664562e-01,7.64064e-01,9.99999e-01,9.99999e-01,8.16633e-01,9.36658e-01,9.98898e-01
8.368297885e-01,8.10132e-01,9.99999e-01,9.99999e-01,8.64018e-01,9.37869e-01,9.99747e-01
8.410139374e-01,8.60620e-01,9.99999e-01,9.99999e-01,9.16605e-01,9.39058e-01,9.99852e-01
8.452190071e-01,9.00803e-01,9.99999e-01,9.99999e-01,9.58155e-01,9.40225e-01,9.99911e-01
8.494451021e-01,9.18132e-01,9.99999e-01,9.99999e-01,9.75382e-01,9.41370e-01,9.99929e-01
8.536923276e-01,9.28714e-01,9.99999e-01,9.99999e-01,9.85420e-01,9.42495e-01,9.99956e-01
8.579607893e-01,9.35067e-01,9.99999e-01,9.99999e-01,9.90968e-01,9.43598e-01,9.99989e-01
8.622505932e-01,9.39264e-01,9.99999e-01,9.99999e-01,9.94267e-01,9.44680e-01,9.99997e-01
8.665618462e-01,9.42373e-01,9.99999e-01,9.99999e-01,9.96437e-01,9.45743e-01,9.99998e-01
8.708946554e-01,9.42913e-01,9.99999e-01,9.99999e-01,9.95911e-01,9.46786e-01,9.99997e-01
8.752491287e-01,9.42628e-01,9.99999e-01,9.99999e-01,9.94538e-01,9.47809e-01,9.99993e-01
8.796253743e-01,9.41605e-01,9.99999e-01,9.99999e-01,9.92420e-01,9.48813e-01,9.99982e-01
8.840235012e-01,9.41539e-01,9.99999e-01,9.99999e-01,9.91355e-01,9.49798e-01,9.99946e-01
8.884436187e-01,9.20737e-01,9.99999e-01,9.99999e-01,9.68561e-01,9.50765e-01,9.99849e-01
8.928858368e-01,6.87799e-01,9.99999e-01,9.99999e-01,7.23319e-01,9.51713e-01,9.99136e-01
8.973502660e-01,5.40966e-01,9.99999e-01,9.99999e-01,5.70378e-01,9.52644e-01,9.95580e-01
9.018370173e-01,7.12771e-01,9.99999e-01,9.99999e-01,7.52708e-01,9.53558e-01,9.93060e-01
9.063462024e-01,7.33826e-01,9.99999e-01,9.99999e-01,7.73560e-01,9.54454e-01,9.93901e-01
9.108779334e-01,6.38039e-01,9.99999e-01,9.99999e-01,6.72129e-01,9.55333e-01,9.93663e-01
9.154323231e-01,6.03890e-01,9.99999e-01,9.99999e-01,6.34881e-01,9.56196e-01,9.94759e-01
9.200094847e-01,6.70970e-01,9.99999e-01,9.99999e-01,7.03151e-01,9.57042e-01,9.97063e-01
9.246095321e-01,5.64662e-01,9.99999e-01,9.99999e-01,5.91496e-01,9.57872e-01,9.96617e-01
9.292325798e-01,5.18716e-02,9.99999e-01,9.99999e-01,5.49992e-02,9.58687e-01,9.83775e-01
9.338787427e-01,1.74469e-02,9.99999e-01,9.99999e-01,1.92912e-02,9.59486e-01,9.42586e-01
9.385481364e-01,1.79206e-01,9.99999e-01,9.99999e-01,1.99146e-01,9.60270e-01,9.37102e-01
9.432408771e-01,1.07269e-01,9.99999e-01,9.99999e-01,1.18052e-01,9.61040e-01,9.45497e-01
9.479570815e-01,4.29947e-02,9.99999e-01,9.99999e-01,4.67887e-02,9.61794e-01,9.55411e-01
9.526968669e-01,8.53980e-02,9.99999e-01,9.99999e-01,9.12249e-02,9.62535e-01,9.72562e-01
9.574603512e-01,9.58586e-02,9.99999e-01,9.99999e-01,1.00931e-01,9.63261e-01,9.85967e-01
9.622476530e-01,1.40639e-01,9.99999e-01,9.99999e-01,1.47327e-01,9.63973e-01,9.90275e-01
9.670588912e-01,3.09872e-01,9.99999e-01,9.99999e-01,3.23374e-01,9.64672e-01,9.93339e-01
9.718941857e-01,4.53143e-01,9.99999e-01,9.99999e-01,4.71719e-01,9.65358e-01,9.95092e-01
9.767536566e-01,5.14618e-01,9.99999e-01,9.99999e-01,5.34720e-01,9.66030e-01,9.96247e-01
9.816374249e-01,6.04228e-01,9.99999e-01,9.99999e-01,6.25862e-01,9.66690e-01,9.98699e-01
9.865456120e-01,7.20054e-01,9.99999e-01,9.99999e-01,7.44568e-01,9.67337e-01,9.99728e-01
9.914783401e-01,8.05668e-01,9.99999e-01,9.99999e-01,8.32388e-01,9.67972e-01,9.99924e-01
9.964357318e-01,8.76418e-01,9.99999e-01,9.99999e-01,9.04874e-01,9.68594e-01,9.99955e-01
1.001417910e+00,9.12730e-01,9.99999e-01,9.99999e-01,9.41792e-01,9.69205e-01,9.99932e-01
1.006425000e+00,9.37019e-01,9.99999e-01,9.99999e-01,9.66286e-01,9.69804e-01,9.99903e-01
1.011457125e+00,9.49928e-01,9.99999e-01,9.99999e-01,9.78998e-01,9.70391e-01,9.99910e-01
1.016514411e+00,9.56995e-01,9.99999e-01,9.99999e-01,9.85670e-01,9.70968e-01,9.99936e-01
1.021596983e+00,9.60357e-01,9.99999e-01,9.99999e-01,9.88556e-01,9.71533e-01,9.99938e-01
1.026704968e+00,9.63359e-01,9.99999e-01,9.99999e-01,9.91059e-01,9.72087e-01,9.99960e-01
1.031838492e+00,9.66307e-01,9.99999e-01,9.99999e-01,9.93508e-01,9.72631e-01,9.99987e-01
1.036997685e+00,9.69398e-01,9.99999e-01,9.99999e-01,9.96131e-01,9.73164e-01,9.99997e-01
1.042182673e+00,9.69180e-01,9.99999e-01,9.99999e-01,9.95370e-01,9.73687e-01,9.99998e-01
1.047393587e+00,9.68235e-01,9.99999e-01,9.99999e-01,9.93877e-01,9.74200e-01,9.99998e-01
1.052630555e+00,9.66510e-01,9.99999e-01,9.99999e-01,9.91596e-01,9.74703e-01,9.99997e-01
1.057893707e+00,9.61530e-01,9.99999e-01,9.99999e-01,9.85989e-01,9.75197e-01,9.99994e-01
1.063183176e+00,9.53314e-01,9.99999e-01,9.99999e-01,9.77087e-01,9.75681e-01,9.99987e-01
1.068499092e+00,9.39050e-01,9.99999e-01,9.99999e-01,9.62013e-01,9.76155e-01,9.99973e-01
1.073841587e+00,9.33321e-01,9.99999e-01,9.99999e-01,9.55717e-01,9.76621e-01,9.99942e-01
1.079210795e+00,9.21934e-01,9.99999e-01,9.99999e-01,9.43708e-01,9.77077e-01,9.99845e-01
1.084606849e+00,8.95151e-01,9.99999e-01,9.99999e-01,9.16072e-01,9.77525e-01,9.99627e-01
1.090029883e+00,8.61454e-01,9.99999e-01,9.99999e-01,8.81544e-01,9.77964e-01,9.99228e-01
1.095480033e+00,6.94183e-01,9.99999e-01,9.99999e-01,7.10503e-01,9.78394e-01,9.98605e-01
1.100957433e+00,4.19221e-01,9.99999e-01,9.99999e-01,4.29395e-01,9.78816e-01,9.97434e-01
1.106462220e+00,1.33906e-01,9.99999e-01,9.99999e-01,1.37344e-01,9.79230e-01,9.95652e-01
1.111994531e+00,1.76122e-02,9.99999e-01,9.99999e-01,1.81875e-02,9.79636e-01,9.88499e-01
1.117554504e+00,2.20397e-03,9.99999e-01,9.99999e-01,2.34478e-03,9.80035e-01,9.59098e-01
1.123142276e+00,1.61197e-02,9.99999e-01,9.99999e-01,1.81531e-02,9.80425e-01,9.05712e-01
1.128757988e+00,4.40581e-02,9.99999e-01,9.99999e-01,5.03729e-02,9.80808e-01,8.91753e-01
1.134401778e+00,2.30898e-02,9.99999e-01,9.99999e-01,2.59404e-02,9.81183e-01,9.07178e-01
1.140073787e+00,1.33113e-01,9.99999e-01,9.99999e-01,1.46592e-01,9.81552e-01,9.25117e-01
1.145774156e+00,2.79464e-02,9.99999e-01,9.99999e-01,3.05629e-02,9.81913e-01,9.31233e-01
1.151503026e+00,1.85387e-02,9.99999e-01,9.99999e-01,1.96375e-02,9.82267e-01,9.61087e-01
1.157260541e+00,2.44037e-02,9.99999e-01,9.99999e-01,2.51320e-02,9.82614e-01,9.88202e-01
1.163046844e+00,6.28698e-02,9.99999e-01,9.99999e-01,6.41755e-02,9.82954e-01,9.96641e-01
1.168862078e+00,1.32391e-01,9.99999e-01,9.99999e-01,1.34874e-01,9.83288e-01,9.98268e-01
1.174706389e+00,2.80941e-01,9.99999e-01,9.99999e-01,2.86277e-01,9.83616e-01,9.97705e-01
1.180579921e+00,4.53361e-01,9.99999e-01,9.99999e-01,4.62365e-01,9.83937e-01,9.96532e-01
1.186482820e+00,6.29080e-01,9.99999e-01,9.99999e-01,6.41427e-01,9.84251e-01,9.96441e-01
1.192415234e+00,7.56216e-01,9.99999e-01,9.99999e-01,7.70127e-01,9.84560e-01,9.97333e-01
1.198377311e+00,7.88151e-01,9.99999e-01,9.99999e-01,8.02294e-01,9.84863e-01,9.97469e-01
1.204369197e+00,7.99395e-01,9.99999e-01,9.99999e-01,8.13229e-01,9.85159e-01,9.97795e-01
1.210391043e+00,8.06852e-01,9.99999e-01,9.99999e-01,8.19901e-01,9.85450e-01,9.98612e-01
1.216442998e+00,8.32131e-01,9.99999e-01,9.99999e-01,8.44890e-01,9.85736e-01,9.99150e-01
1.222525213e+00,8.63724e-01,9.99999e-01,9.99999e-01,8.76435e-01,9.86015e-01,9.99471e-01
1.228637839e+00,8.99601e-01,9.99999e-01,9.99999e-01,9.12329e-01,9.86290e-01,9.99754e-01
