#,Wave/freq,Total,N2,O2,H2O,Rayleigh,CIA
4.000000000e-01,8.32875e-01,9.99999e-01,9.99999e-01,9.99978e-01,8.32892e-01,9.99999e-01
4.020000000e-01,8.35898e-01,9.99999e-01,9.99999e-01,9.99986e-01,8.35909e-01,9.99999e-01
4.040100000e-01,8.38869e-01,9.99999e-01,9.99999e-01,9.99994e-01,8.38873e-01,9.99999e-01
4.060300500e-01,8.41789e-01,9.99999e-01,9.99999e-01,9.99998e-01,8.41790e-01,9.99999e-01
4.080602003e-01,8.44658e-01,9.99999e-01,9.99999e-01,9.99999e-01,8.44658e-01,9.99999e-01
4.101005013e-01,8.47479e-01,9.99999e-01,9.99999e-01,9.99999e-01,8.47479e-01,9.99999e-01
4.121510038e-01,8.50254e-01,9.99999e-01,9.99999e-01,9.99998e-01,8.50254e-01,9.99999e-01
4.142117588e-01,8.52978e-01,9.99999e-01,9.99999e-01,9.99993e-01,8.52983e-01,9.99999e-01
4.162828176e-01,8.55645e-01,9.99999e-01,9.99999e-01,9.99973e-01,8.55666e-01,9.99999e-01
4.183642317e-01,8.58292e-01,9.99999e-01,9.99999e-01,9.99984e-01,8.58305e-01,9.99999e-01
4.204560528e-01,8.60891e-01,9.99999e-01,9.99999e-01,9.99990e-01,8.60899e-01,9.99999e-01
4.225583331e-01,8.63447e-01,9.99999e-01,9.99999e-01,9.99996e-01,8.63450e-01,9.99999e-01
4.246711247e-01,8.65955e-01,9.99999e-01,9.99999e-01,9.99996e-01,8.65958e-01,9.99999e-01
4.267944804e-01,8.68419e-01,9.99999e-01,9.99999e-01,9.99995e-01,8.68423e-01,9.99999e-01
4.289284528e-01,8.70843e-01,9.99999e-01,9.99999e-01,9.99996e-01,8.70846e-01,9.99999e-01
4.310730950e-01,8.73227e-01,9.99999e-01,9.99999e-01,9.99998e-01,8.73228e-01,9.99999e-01
4.332284605e-01,8.75569e-01,9.99999e-01,9.99999e-01,9.99999e-01,8.75569e-01,9.99999e-01
4.353946028e-01,8.77870e-01,9.99999e-01,9.99999e-01,9.99999e-01,8.77871e-01,9.99999e-01
4.375715758e-01,8.80130e-01,9.99999e-01,9.99999e-01,9.99996e-01,8.80132e-01,9.99999e-01
4.397594337e-01,8.82335e-01,9.99999e-01,9.99999e-01,9.99977e-01,8.82355e-01,9.99999e-01
4.419582309e-01,8.84438e-01,9.99999e-01,9.99999e-01,9.99885e-01,8.84539e-01,9.99999e-01
4.441680220e-01,8.86606e-01,9.99999e-01,9.99999e-01,9.99910e-01,8.86685e-01,9.99999e-01
4.463888621e-01,8.88712e-01,9.99999e-01,9.99999e-01,9.99906e-01,8.88794e-01,9.99999e-01
4.486208064e-01,8.90815e-01,9.99999e-01,9.99999e-01,9.99942e-01,8.90866e-01,9.99999e-01
4.508639105e-01,8.92878e-01,9.99999e-01,9.99999e-01,9.99972e-01,8.92902e-01,9.99999e-01
4.531182300e-01,8.94892e-01,9.99999e-01,9.99999e-01,9.99988e-01,8.94902e-01,9.99999e-01
4.553838212e-01,8.96860e-01,9.99999e-01,9.99999e-01,9.99992e-01,8.96867e-01,9.99999e-01
4.576607403e-01,8.98794e-01,9.99999e-01,9.99999e-01,9.99996e-01,8.98797e-01,9.99999e-01
4.599490440e-01,9.00691e-01,9.99999e-01,9.99999e-01,9.99997e-01,9.00693e-01,9.99999e-01
4.622487892e-01,9.02556e-01,9.99999e-01,9.99999e-01,9.99999e-01,9.02556e-01,9.99999e-01
4.645600332e-01,9.04384e-01,9.99999e-01,9.99999e-01,9.99997e-01,9.04386e-01,9.99999e-01
4.668828333e-01,9.06158e-01,9.99999e-01,9.99999e-01,9.99972e-01,9.06183e-01,9.99999e-01
4.692172475e-01,9.07895e-01,9.99999e-01,9.99999e-01,9.99941e-01,9.07948e-01,9.99999e-01
4.715633337e-01,9.09647e-01,9.99999e-01,9.99999e-01,9.99961e-01,9.09681e-01,9.99999e-01
4.739211504e-01,9.11351e-01,9.99999e-01,9.99999e-01,9.99963e-01,9.11384e-01,9.99999e-01
4.762907561e-01,9.13038e-01,9.99999e-01,9.99999e-01,9.99980e-01,9.13056e-01,9.99999e-01
4.786722099e-01,9.14691e-01,9.99999e-01,9.99999e-01,9.99991e-01,9.14698e-01,9.99999e-01
4.810655710e-01,9.16308e-01,9.99999e-01,9.99999e-01,9.99997e-01,9.16310e-01,9.99999e-01
4.834708988e-01,9.17873e-01,9.99999e-01,9.99999e-01,9.99977e-01,9.17893e-01,9.99999e-01
4.858882533e-01,9.19410e-01,9.99999e-01,9.99999e-01,9.99958e-01,9.19448e-01,9.99999e-01
4.883176946e-01,9.20943e-01,9.99999e-01,9.99999e-01,9.99965e-01,9.20974e-01,9.99999e-01
4.907592831e-01,9.22444e-01,9.99999e-01,9.99999e-01,9.99968e-01,9.22473e-01,9.99999e-01
4.932130795e-01,9.23924e-01,9.99999e-01,9.99999e-01,9.99977e-01,9.23945e-01,9.99999e-01
4.956791449e-01,9.25379e-01,9.99999e-01,9.99999e-01,9.99987e-01,9.25389e-01,9.99999e-01
4.981575406e-01,9.26754e-01,9.99999e-01,9.99999e-01,9.99941e-01,9.26808e-01,9.99999e-01
5.006483283e-01,9.28059e-01,9.99999e-01,9.99999e-01,9.99847e-01,9.28200e-01,9.99998e-01
5.031515699e-01,9.28846e-01,9.99999e-01,9.99999e-01,9.99232e-01,9.29567e-01,9.99991e-01
5.056673278e-01,9.30524e-01,9.99999e-01,9.99999e-01,9.99594e-01,9.30909e-01,9.99990e-01
5.081956644e-01,9.31745e-01,9.99999e-01,9.99999e-01,9.99489e-01,9.32227e-01,9.99993e-01
5.107366428e-01,9.33197e-01,9.99999e-01,9.99999e-01,9.99654e-01,9.33520e-01,9.99998e-01
5.132903260e-01,9.34605e-01,9.99999e-01,9.99999e-01,9.99802e-01,9.34789e-01,9.99999e-01
5.158567776e-01,9.35957e-01,9.99999e-01,9.99999e-01,9.99916e-01,9.36035e-01,9.99999e-01
5.184360615e-01,9.37227e-01,9.99999e-01,9.99999e-01,9.99966e-01,9.37258e-01,9.99999e-01
5.210282418e-01,9.38447e-01,9.99999e-01,9.99999e-01,9.99987e-01,9.38458e-01,9.99999e-01
5.236333830e-01,9.39589e-01,9.99999e-01,9.99999e-01,9.99949e-01,9.39636e-01,9.99999e-01
5.262515499e-01,9.40763e-01,9.99999e-01,9.99999e-01,9.99968e-01,9.40793e-01,9.99999e-01
5.288828077e-01,9.41900e-01,9.99999e-01,9.99999e-01,9.99970e-01,9.41928e-01,9.99999e-01
5.315272217e-01,9.43018e-01,9.99999e-01,9.99999e-01,9.99974e-01,9.43041e-01,9.99999e-01
5.341848578e-01,9.44119e-01,9.99999e-01,9.99999e-01,9.99983e-01,9.44134e-01,9.99999e-01
5.368557821e-01,9.45152e-01,9.99999e-01,9.99999e-01,9.99941e-01,9.45207e-01,9.99999e-01
5.395400610e-01,9.46059e-01,9.99999e-01,9.99999e-01,9.99788e-01,9.46260e-01,9.99997e-01
5.422377613e-01,9.47031e-01,9.99999e-01,9.99999e-01,9.99728e-01,9.47293e-01,9.99994e-01
5.449489501e-01,9.48062e-01,9.99999e-01,9.99999e-01,9.99746e-01,9.48306e-01,9.99994e-01
5.476736949e-01,9.49087e-01,9.99999e-01,9.99999e-01,9.99776e-01,9.49301e-01,9.99997e-01
5.504120634e-01,9.50122e-01,9.99999e-01,9.99999e-01,9.99837e-01,9.50277e-01,9.99998e-01
5.531641237e-01,9.51157e-01,9.99999e-01,9.99999e-01,9.99917e-01,9.51235e-01,9.99999e-01
5.559299443e-01,9.52137e-01,9.99999e-01,9.99999e-01,9.99960e-01,9.52175e-01,9.99999e-01
5.587095940e-01,9.53073e-01,9.99999e-01,9.99999e-01,9.99974e-01,9.53097e-01,9.99999e-01
5.615031420e-01,9.53975e-01,9.99999e-01,9.99999e-01,9.99972e-01,9.54002e-01,9.99999e-01
5.643106577e-01,9.54859e-01,9.99999e-01,9.99999e-01,9.99968e-01,9.54889e-01,9.99999e-01
5.671322110e-01,9.55393e-01,9.99999e-01,9.99999e-01,9.99618e-01,9.55760e-01,9.99996e-01
5.699678720e-01,9.56220e-01,9.99999e-01,9.99999e-01,9.99596e-01,9.56615e-01,9.99989e-01
5.728177114e-01,9.57043e-01,9.99999e-01,9.99999e-01,9.99579e-01,9.57453e-01,9.99990e-01
5.756818000e-01,9.57902e-01,9.99999e-01,9.99999e-01,9.99614e-01,9.58276e-01,9.99994e-01
5.785602090e-01,9.58760e-01,9.99999e-01,9.99999e-01,9.99663e-01,9.59083e-01,9.99997e-01
5.814530100e-01,9.59550e-01,9.99999e-01,9.99999e-01,9.99662e-01,9.59875e-01,9.99998e-01
5.843602750e-01,9.60262e-01,9.99999e-01,9.99999e-01,9.99596e-01,9.60652e-01,9.99997e-01
5.872820764e-01,9.58052e-01,9.99999e-01,9.99999e-01,9.96527e-01,9.61414e-01,9.99975e-01
5.902184868e-01,9.58060e-01,9.99999e-01,9.99999e-01,9.95802e-01,9.62161e-01,9.99933e-01
5.931695792e-01,9.59975e-01,9.99999e-01,9.99999e-01,9.97031e-01,9.62895e-01,9.99935e-01
5.961354271e-01,9.60446e-01,9.99999e-01,9.99999e-01,9.96748e-01,9.63614e-01,9.99962e-01
5.991161043e-01,9.62022e-01,9.99999e-01,9.99999e-01,9.97628e-01,9.64320e-01,9.99988e-01
6.021116848e-01,9.63712e-01,9.99999e-01,9.99999e-01,9.98654e-01,9.65012e-01,9.99998e-01
6.051222432e-01,9.65034e-01,9.99999e-01,9.99999e-01,9.99318e-01,9.65691e-01,9.99999e-01
6.081478544e-01,9.66073e-01,9.99999e-01,9.99999e-01,9.99705e-01,9.66357e-01,9.99999e-01
6.111885937e-01,9.66891e-01,9.99999e-01,9.99999e-01,9.99875e-01,9.67011e-01,9.99999e-01
6.142445367e-01,9.67598e-01,9.99999e-01,9.99999e-01,9.99944e-01,9.67652e-01,9.99999e-01
6.173157594e-01,9.68251e-01,9.99999e-01,9.99999e-01,9.99968e-01,9.68280e-01,9.99999e-01
6.204023382e-01,9.68872e-01,9.99999e-01,9.99999e-01,9.99973e-01,9.68897e-01,9.99999e-01
6.235043498e-01,9.69391e-01,9.99999e-01,9.99999e-01,9.99885e-01,9.69502e-01,9.99999e-01
6.266218716e-01,9.69505e-01,9.99999e-01,9.99999e-01,9.99395e-01,9.70095e-01,9.99995e-01
6.297549810e-01,9.70454e-01,9.99999e-01,9.99999e-01,9.99777e-01,9.70677e-01,9.99991e-01
6.329037559e-01,9.70816e-01,9.99999e-01,9.99999e-01,9.99561e-01,9.71248e-01,9.99992e-01
6.360682746e-01,9.71441e-01,9.99999e-01,9.99999e-01,9.99626e-01,9.71808e-01,9.99995e-01
6.392486160e-01,9.71885e-01,9.99999e-01,9.99999e-01,9.99516e-01,9.72357e-01,9.99997e-01
6.424448591e-01,9.72262e-01,9.99999e-01,9.99999e-01,9.99351e-01,9.72895e-01,9.99996e-01
6.456570834e-01,9.70479e-01,9.99999e-01,9.99999e-01,9.96991e-01,9.73423e-01,9.99982e-01
6.488853688e-01,9.71756e-01,9.99999e-01,9.99999e-01,9.97801e-01,9.73941e-01,9.99952e-01
6.521297956e-01,9.72229e-01,9.99999e-01,9.99999e-01,9.97759e-01,9.74450e-01,9.99961e-01
6.553904446e-01,9.72744e-01,9.99999e-01,9.99999e-01,9.97767e-01,9.74948e-01,9.99970e-01
6.586673968e-01,9.73564e-01,9.99999e-01,9.99999e-01,9.98089e-01,9.75436e-01,9.99989e-01
6.619607338e-01,9.74875e-01,9.99999e-01,9.99999e-01,9.98935e-01,9.75916e-01,9.99997e-01
6.652705375e-01,9.75761e-01,9.99999e-01,9.99999e-01,9.99360e-01,9.76386e-01,9.99998e-01
6.685968902e-01,9.76557e-01,9.99999e-01,9.99999e-01,9.99702e-01,9.76847e-01,9.99999e-01
6.719398746e-01,9.77165e-01,9.99999e-01,9.99999e-01,9.99862e-01,9.77299e-01,9.99999e-01
6.752995740e-01,9.77669e-01,9.99999e-01,9.99999e-01,9.99925e-01,9.77742e-01,9.99999e-01
6.786760719e-01,9.78071e-01,9.99999e-01,9.99999e-01,9.99891e-01,9.78177e-01,9.99999e-01
6.820694522e-01,9.78422e-01,9.99999e-01,9.99999e-01,9.99815e-01,9.78603e-01,9.99998e-01
6.854797995e-01,9.78787e-01,9.99999e-01,9.99999e-01,9.99761e-01,9.79022e-01,9.99997e-01
6.889071985e-01,9.78861e-01,9.99999e-01,9.99999e-01,9.99421e-01,9.79432e-01,9.99994e-01
6.923517345e-01,9.70589e-01,9.99999e-01,9.99999e-01,9.90608e-01,9.79834e-01,9.99954e-01
6.958134932e-01,9.75358e-01,9.99999e-01,9.99999e-01,9.95130e-01,9.80228e-01,9.99899e-01
6.992925606e-01,9.75970e-01,9.99999e-01,9.99999e-01,9.95352e-01,9.80615e-01,9.99909e-01
7.027890234e-01,9.75311e-01,9.99999e-01,9.99999e-01,9.94274e-01,9.80994e-01,9.99930e-01
7.063029686e-01,9.76607e-01,9.99999e-01,9.99999e-01,9.95183e-01,9.81366e-01,9.99965e-01
7.098344834e-01,9.77175e-01,9.99999e-01,9.99999e-01,9.95379e-01,9.81731e-01,9.99979e-01
7.133836558e-01,9.75986e-01,9.99999e-01,9.99999e-01,9.93826e-01,9.82088e-01,9.99959e-01
7.169505741e-01,9.34366e-01,9.99999e-01,9.99999e-01,9.51367e-01,9.82439e-01,9.99683e-01
7.205353270e-01,9.58674e-01,9.99999e-01,9.99999e-01,9.76012e-01,9.82783e-01,9.99442e-01
7.241380036e-01,9.52703e-01,9.99999e-01,9.99999e-01,9.69526e-01,9.83120e-01,9.99518e-01
7.277586936e-01,9.55997e-01,9.99999e-01,9.99999e-01,9.72466e-01,9.83451e-01,9.99606e-01
7.313974871e-01,9.54870e-01,9.99999e-01,9.99999e-01,9.70797e-01,9.83775e-01,9.99815e-01
7.350544745e-01,9.68232e-01,9.99999e-01,9.99999e-01,9.83945e-01,9.84093e-01,9.99935e-01
7.387297469e-01,9.72728e-01,9.99999e-01,9.99999e-01,9.88167e-01,9.84404e-01,9.99970e-01
7.424233956e-01,9.78993e-01,9.99999e-01,9.99999e-01,9.94198e-01,9.84710e-01,9.99993e-01
7.461355126e-01,9.81542e-01,9.99999e-01,9.99999e-01,9.96480e-01,9.85010e-01,9.99998e-01
7.498661902e-01,9.83689e-01,9.99999e-01,9.99999e-01,9.98361e-01,9.85304e-01,9.99999e-01
7.536155211e-01,9.84799e-01,9.99999e-01,9.99999e-01,9.99195e-01,9.85592e-01,9.99999e-01
7.573835987e-01,9.85466e-01,9.99999e-01,9.99999e-01,9.99585e-01,9.85874e-01,9.99999e-01
7.611705167e-01,9.85898e-01,9.99999e-01,9.99999e-01,9.99742e-01,9.86151e-01,9.99999e-01
7.649763693e-01,9.86264e-01,9.99999e-01,9.99999e-01,9.99838e-01,9.86423e-01,9.99999e-01
7.688012511e-01,9.86579e-01,9.99999e-01,9.99999e-01,9.99887e-01,9.86689e-01,9.99999e-01
7.726452574e-01,9.86859e-01,9.99999e-01,9.99999e-01,9.99907e-01,9.86951e-01,9.99999e-01
7.765084837e-01,9.87077e-01,9.99999e-01,9.99999e-01,9.99867e-01,9.87207e-01,9.99999e-01
7.803910261e-01,9.86896e-01,9.99999e-01,9.99999e-01,9.99430e-01,9.87458e-01,9.99998e-01
7.842929812e-01,9.85739e-01,9.99999e-01,9.99999e-01,9.98013e-01,9.87704e-01,9.99995e-01
7.882144461e-01,9.83887e-01,9.99999e-01,9.99999e-01,9.95918e-01,9.87945e-01,9.99971e-01
7.921555184e-01,9.85924e-01,9.99999e-01,9.99999e-01,9.97763e-01,9.88182e-01,9.99950e-01
7.961162960e-01,9.84454e-01,9.99999e-01,9.99999e-01,9.96039e-01,9.88414e-01,9.99953e-01
8.000968774e-01,9.84077e-01,9.99999e-01,9.99999e-01,9.95431e-01,9.88642e-01,9.99950e-01
8.040973618e-01,9.84307e-01,9.99999e-01,9.99999e-01,9.95429e-01,9.88865e-01,9.99960e-01
8.081178486e-01,9.78864e-01,9.99999e-01,9.99999e-01,9.89703e-01,9.89083e-01,9.99962e-01
8.121584379e-01,9.47354e-01,9.99999e-01,9.99999e-01,9.57739e-01,9.89298e-01,9.99855e-01
8.162192301e-01,9.39641e-01,9.99999e-01,9.99999e-01,9.50118e-01,9.89508e-01,9.99457e-01
8.203003262e-01,9.64082e-01,9.99999e-01,9.99999e-01,9.74718e-01,9.89714e-01,9.99364e-01
8.244018279e-01,9.54799e-01,9.99999e-01,9.99999e-01,9.65011e-01,9.89916e-01,9.99494e-01
8.285238370e-01,9.59940e-01,9.99999e-01,9.99999e-01,9.69908e-01,9.90115e-01,9.99602e-01
8.326664562e-01,9.60055e-01,9.99999e-01,9.99999e-01,9.69608e-01,9.90309e-01,9.99835e-01
8.368297885e-01,9.68892e-01,9.99999e-01,9.99999e-01,9.78221e-01,9.90499e-01,9.99962e-01
8.410139374e-01,9.77797e-01,9.99999e-01,9.99999e-01,9.87010e-01,9.90686e-01,9.99977e-01
8.452190071e-01,9.84529e-01,9.99999e-01,9.99999e-01,9.93614e-01,9.90869e-01,9.99986e-01
8.494451021e-01,9.87361e-01,9.99999e-01,9.99999e-01,9.96288e-01,9.91049e-01,9.99989e-01
8.536923276e-01,9.89044e-01,9.99999e-01,9.99999e-01,9.97805e-01,9.91225e-01,9.99993e-01
8.579607893e-01,9.90055e-01,9.99999e-01,9.99999e-01,9.98647e-01,9.91397e-01,9.99997e-01
8.622505932e-01,9.90715e-01,9.99999e-01,9.99999e-01,9.99140e-01,9.91567e-01,9.99999e-01
8.665618462e-01,9.91205e-01,9.99999e-01,9.99999e-01,9.99468e-01,9.91732e-01,9.99999e-01
8.708946554e-01,9.91291e-01,9.99999e-01,9.99999e-01,9.99390e-01,9.91895e-01,9.99999e-01
8.752491287e-01,9.91246e-01,9.99999e-01,9.99999e-01,9.99185e-01,9.92054e-01,9.99998e-01
8.796253743e-01,9.91089e-01,9.99999e-01,9.99999e-01,9.98870e-01,9.92211e-01,9.99996e-01
8.840235012e-01,9.91077e-01,9.99999e-01,9.99999e-01,9.98710e-01,9.92364e-01,9.99991e-01
8.884436187e-01,9.87811e-01,9.99999e-01,9.99999e-01,9.95282e-01,9.92514e-01,9.99977e-01
8.928858368e-01,9.44332e-01,9.99999e-01,9.99999e-01,9.51435e-01,9.92662e-01,9.99870e-01
8.973502660e-01,9.08629e-01,9.99999e-01,9.99999e-01,9.15816e-01,9.92806e-01,9.99340e-01
9.018370173e-01,9.48449e-01,9.99999e-01,9.99999e-01,9.56175e-01,9.92948e-01,9.98963e-01
9.063462024e-01,9.53696e-01,9.99999e-01,9.99999e-01,9.61210e-01,9.93086e-01,9.99089e-01
9.108779334e-01,9.32968e-01,9.99999e-01,9.99999e-01,9.40223e-01,9.93222e-01,9.99053e-01
9.154323231e-01,9.25496e-01,9.99999e-01,9.99999e-01,9.32415e-01,9.93356e-01,9.99217e-01
9.200094847e-01,9.40116e-01,9.99999e-01,9.99999e-01,9.46693e-01,9.93487e-01,9.99561e-01
9.246095321e-01,9.11177e-01,9.99999e-01,9.99999e-01,9.17494e-01,9.93615e-01,9.99495e-01
9.292325798e-01,5.59269e-01,9.99999e-01,9.99999e-01,5.63899e-01,9.93741e-01,9.98034e-01
9.338787427e-01,4.71766e-01,9.99999e-01,9.99999e-01,4.78555e-01,9.93864e-01,9.91899e-01
9.385481364e-01,7.31204e-01,9.99999e-01,9.99999e-01,7.42779e-01,9.93985e-01,9.90372e-01
9.432408771e-01,6.51891e-01,9.99999e-01,9.99999e-01,6.61253e-01,9.94103e-01,9.91688e-01
9.479570815e-01,5.58991e-01,9.99999e-01,9.99999e-01,5.66072e-01,9.94219e-01,9.93230e-01
9.526968669e-01,6.45952e-01,9.99999e-01,9.99999e-01,6.52329e-01,9.94333e-01,9.95865e-01
9.574603512e-01,6.68975e-01,9.99999e-01,9.99999e-01,6.74128e-01,9.94445e-01,9.97897e-01
9.622476530e-01,7.20431e-01,9.99999e-01,9.99999e-01,7.25430e-01,9.94554e-01,9.98545e-01
9.670588912e-01,8.25735e-01,9.99999e-01,9.99999e-01,8.30992e-01,9.94661e-01,9.99004e-01
9.718941857e-01,8.85294e-01,9.99999e-01,9.99999e-01,8.90602e-01,9.94766e-01,9.99267e-01
9.767536566e-01,9.03135e-01,9.99999e-01,9.99999e-01,9.08300e-01,9.94870e-01,9.99439e-01
9.816374249e-01,9.26383e-01,9.99999e-01,9.99999e-01,9.31246e-01,9.94971e-01,9.99805e-01
9.865456120e-01,9.51728e-01,9.99999e-01,9.99999e-01,9.56481e-01,9.95070e-01,9.99959e-01
9.914783401e-01,9.68162e-01,9.99999e-01,9.99999e-01,9.72874e-01,9.95167e-01,9.99988e-01
9.964357318e-01,9.80466e-01,9.99999e-01,9.99999e-01,9.85139e-01,9.95262e-01,9.99992e-01
1.001417910e+00,9.86457e-01,9.99999e-01,9.99999e-01,9.91069e-01,9.95355e-01,9.99989e-01
1.006425000e+00,9.90355e-01,9.99999e-01,9.99999e-01,9.94898e-01,9.95447e-01,9.99985e-01
1.011457125e+00,9.92371e-01,9.99999e-01,9.99999e-01,9.96832e-01,9.95537e-01,9.99986e-01
1.016514411e+00,9.93473e-01,9.99999e-01,9.99999e-01,9.97848e-01,9.95625e-01,9.99990e-01
1.021596983e+00,9.93994e-01,9.99999e-01,9.99999e-01,9.98284e-01,9.95711e-01,9.99990e-01
1.026704968e+00,9.94457e-01,9.99999e-01,9.99999e-01,9.98662e-01,9.95795e-01,9.99993e-01
1.031838492e+00,9.94909e-01,9.99999e-01,9.99999e-01,9.99027e-01,9.95878e-01,9.99997e-01
1.036997685e+00,9.95384e-01,9.99999e-01,9.99999e-01,9.99422e-01,9.95959e-01,9.99999e-01
1.042182673e+00,9.95353e-01,9.99999e-01,9.99999e-01,9.99310e-01,9.96039e-01,9.99999e-01
1.047393587e+00,9.95207e-01,9.99999e-01,9.99999e-01,9.99086e-01,9.96117e-01,9.99999e-01
1.052630555e+00,9.94944e-01,9.99999e-01,9.99999e-01,9.98745e-01,9.96194e-01,9.99999e-01
1.057893707e+00,9.94182e-01,9.99999e-01,9.99999e-01,9.97906e-01,9.96269e-01,9.99998e-01
1.063183176e+00,9.92910e-01,9.99999e-01,9.99999e-01,9.96556e-01,9.96342e-01,9.99997e-01
1.068499092e+00,9.90673e-01,9.99999e-01,9.99999e-01,9.94240e-01,9.96414e-01,9.99995e-01
1.073841587e+00,9.89760e-01,9.99999e-01,9.99999e-01,9.93259e-01,9.96485e-01,9.99991e-01
1.079210795e+00,9.87937e-01,9.99999e-01,9.99999e-01,9.91375e-01,9.96554e-01,9.99976e-01
1.084606849e+00,9.83577e-01,9.99999e-01,9.99999e-01,9.86964e-01,9.96622e-01,9.99944e-01
1.090029883e+00,9.77939e-01,9.99999e-01,9.99999e-01,9.81300e-01,9.96689e-01,9.99884e-01
1.095480033e+00,9.46600e-01,9.99999e-01,9.99999e-01,9.49879e-01,9.96754e-01,9.99791e-01
1.100957433e+00,8.74385e-01,9.99999e-01,9.99999e-01,8.77511e-01,9.96818e-01,9.99617e-01
1.106462220e+00,7.15141e-01,9.99999e-01,9.99999e-01,7.17844e-01,9.96881e-01,9.99350e-01
1.111994531e+00,4.97087e-01,9.99999e-01,9.99999e-01,4.99470e-01,9.96942e-01,9.98278e-01
1.117554504e+00,3.23507e-01,9.99999e-01,9.99999e-01,3.26503e-01,9.97003e-01,9.93800e-01
1.123142276e+00,4.34825e-01,9.99999e-01,9.99999e-01,4.42585e-01,9.97062e-01,9.85361e-01
1.128757988e+00,5.78800e-01,9.99999e-01,9.99999e-01,5.90459e-01,9.97120e-01,9.83084e-01
1.134401778e+00,3.26530e-01,9.99999e-01,9.99999e-01,3.32239e-01,9.97176e-01,9.85598e-01
1.140073787e+00,7.18602e-01,9.99999e-01,9.99999e-01,7.28996e-01,9.97232e-01,9.88476e-01
1.145774156e+00,5.12637e-01,9.99999e-01,9.99999e-01,5.19514e-01,9.97287e-01,9.89446e-01
1.151503026e+00,4.78724e-01,9.99999e-01,9.99999e-01,4.82846e-01,9.97340e-01,9.94106e-01
1.157260541e+00,5.39865e-01,9.99999e-01,9.99999e-01,5.42233e-01,9.97393e-01,9.98234e-01
1.163046844e+00,6.33960e-01,9.99999e-01,9.99999e-01,6.35902e-01,9.97444e-01,9.99498e-01
1.168862078e+00,7.27613e-01,9.99999e-01,9.99999e-01,7.29628e-01,9.97494e-01,9.99741e-01
1.174706389e+00,8.20891e-01,9.99999e-01,9.99999e-01,8.23193e-01,9.97544e-01,9.99657e-01
1.180579921e+00,8.85654e-01,9.99999e-01,9.99999e-01,8.88250e-01,9.97592e-01,9.99482e-01
1.186482820e+00,9.32508e-01,9.99999e-01,9.99999e-01,9.35210e-01,9.97640e-01,9.99468e-01
1.192415234e+00,9.59056e-01,9.99999e-01,9.99999e-01,9.61662e-01,9.97686e-01,9.99602e-01
1.198377311e+00,9.65021e-01,9.99999e-01,9.99999e-01,9.67577e-01,9.97732e-01,9.99624e-01
1.204369197e+00,9.66817e-01,9.99999e-01,9.99999e-01,9.69299e-01,9.97777e-01,9.99659e-01
1.210391043e+00,9.68308e-01,9.99999e-01,9.99999e-01,9.70623e-01,9.97821e-01,9.99792e-01
1.216442998e+00,9.72762e-01,9.99999e-01,9.99999e-01,9.74967e-01,9.97864e-01,9.99872e-01
1.222525213e+00,9.78326e-01,9.99999e-01,9.99999e-01,9.80455e-01,9.97906e-01,9.99920e-01
1.228637839e+00,9.84328e-01,9.99999e-01,9.99999e-01,9.86388e-01,9.97947e-01,9.99962e-01
