#,Wave/freq,Total,N2,O2,H2O,Rayleigh,CIA
4.000000000e-01,9.27962e-01,9.99999e-01,9.99999e-01,9.99991e-01,9.27970e-01,9.99999e-01
4.020000000e-01,9.29338e-01,9.99999e-01,9.99999e-01,9.99994e-01,9.29343e-01,9.99999e-01
4.040100000e-01,9.30687e-01,9.99999e-01,9.99999e-01,9.99997e-01,9.30689e-01,9.99999e-01
4.060300500e-01,9.32010e-01,9.99999e-01,9.99999e-01,9.99998e-01,9.32010e-01,9.99999e-01
4.080602003e-01,9.33307e-01,9.99999e-01,9.99999e-01,9.99999e-01,9.33308e-01,9.99999e-01
4.101005013e-01,9.34581e-01,9.99999e-01,9.99999e-01,9.99999e-01,9.34581e-01,9.99999e-01
4.121510038e-01,9.35830e-01,9.99999e-01,9.99999e-01,9.99999e-01,9.35831e-01,9.99999e-01
4.142117588e-01,9.37055e-01,9.99999e-01,9.99999e-01,9.99997e-01,9.37057e-01,9.99999e-01
4.162828176e-01,9.38252e-01,9.99999e-01,9.99999e-01,9.99989e-01,9.38261e-01,9.99999e-01
4.183642317e-01,9.39437e-01,9.99999e-01,9.99999e-01,9.99993e-01,9.39443e-01,9.99999e-01
4.204560528e-01,9.40599e-01,9.99999e-01,9.99999e-01,9.99995e-01,9.40603e-01,9.99999e-01
4.225583331e-01,9.41740e-01,9.99999e-01,9.99999e-01,9.99998e-01,9.41741e-01,9.99999e-01
4.246711247e-01,9.42857e-01,9.99999e-01,9.99999e-01,9.99998e-01,9.42859e-01,9.99999e-01
4.267944804e-01,9.43953e-01,9.99999e-01,9.99999e-01,9.99997e-01,9.43955e-01,9.99999e-01
4.289284528e-01,9.45030e-01,9.99999e-01,9.99999e-01,9.99998e-01,9.45031e-01,9.99999e-01
4.310730950e-01,9.46086e-01,9.99999e-01,9.99999e-01,9.99998e-01,9.46087e-01,9.99999e-01
4.332284605e-01,9.47123e-01,9.99999e-01,9.99999e-01,9.99999e-01,9.47123e-01,9.99999e-01
4.353946028e-01,9.48140e-01,9.99999e-01,9.99999e-01,9.99999e-01,9.48140e-01,9.99999e-01
4.375715758e-01,9.49137e-01,9.99999e-01,9.99999e-01,9.99998e-01,9.49138e-01,9.99999e-01
4.397594337e-01,9.50108e-01,9.99999e-01,9.99999e-01,9.99990e-01,9.50117e-01,9.99999e-01
4.419582309e-01,9.51033e-01,9.99999e-01,9.99999e-01,9.99952e-01,9.51078e-01,9.99999e-01
4.441680220e-01,9.51986e-01,9.99999e-01,9.99999e-01,9.99963e-01,9.52021e-01,9.99999e-01
4.463888621e-01,9.52910e-01,9.99999e-01,9.99999e-01,9.99961e-01,9.52946e-01,9.99999e-01
4.486208064e-01,9.53831e-01,9.99999e-01,9.99999e-01,9.99976e-01,9.53853e-01,9.99999e-01
4.508639105e-01,9.54733e-01,9.99999e-01,9.99999e-01,9.99988e-01,9.54744e-01,9.99999e-01
4.531182300e-01,9.55613e-01,9.99999e-01,9.99999e-01,9.99995e-01,9.55618e-01,9.99999e-01
4.553838212e-01,9.56472e-01,9.99999e-01,9.99999e-01,9.99996e-01,9.56475e-01,9.99999e-01
4.576607403e-01,9.57315e-01,9.99999e-01,9.99999e-01,9.99998e-01,9.57316e-01,9.99999e-01
4.599490440e-01,9.58140e-01,9.99999e-01,9.99999e-01,9.99998e-01,9.58141e-01,9.99999e-01
4.622487892e-01,9.58951e-01,9.99999e-01,9.99999e-01,9.99999e-01,9.58951e-01,9.99999e-01
4.645600332e-01,9.59744e-01,9.99999e-01,9.99999e-01,9.99998e-01,9.59745e-01,9.99999e-01
4.668828333e-01,9.60513e-01,9.99999e-01,9.99999e-01,9.99988e-01,9.60524e-01,9.99999e-01
4.692172475e-01,9.61266e-01,9.99999e-01,9.99999e-01,9.99975e-01,9.61289e-01,9.99999e-01
4.715633337e-01,9.62024e-01,9.99999e-01,9.99999e-01,9.99983e-01,9.62039e-01,9.99999e-01
4.739211504e-01,9.62760e-01,9.99999e-01,9.99999e-01,9.99984e-01,9.62774e-01,9.99999e-01
4.762907561e-01,9.63488e-01,9.99999e-01,9.99999e-01,9.99991e-01,9.63496e-01,9.99999e-01
4.786722099e-01,9.64201e-01,9.99999e-01,9.99999e-01,9.99996e-01,9.64204e-01,9.99999e-01
4.810655710e-01,9.64897e-01,9.99999e-01,9.99999e-01,9.99998e-01,9.64898e-01,9.99999e-01
4.834708988e-01,9.65571e-01,9.99999e-01,9.99999e-01,9.99990e-01,9.65580e-01,9.99999e-01
4.858882533e-01,9.66232e-01,9.99999e-01,9.99999e-01,9.99982e-01,9.66248e-01,9.99999e-01
4.883176946e-01,9.66890e-01,9.99999e-01,9.99999e-01,9.99985e-01,9.66903e-01,9.99999e-01
4.907592831e-01,9.67534e-01,9.99999e-01,9.99999e-01,9.99986e-01,9.67546e-01,9.99999e-01
4.932130795e-01,9.68168e-01,9.99999e-01,9.99999e-01,9.99990e-01,9.68177e-01,9.99999e-01
4.956791449e-01,9.68791e-01,9.99999e-01,9.99999e-01,9.99994e-01,9.68796e-01,9.99999e-01
4.981575406e-01,9.69379e-01,9.99999e-01,9.99999e-01,9.99975e-01,9.69403e-01,9.99999e-01
5.006483283e-01,9.69937e-01,9.99999e-01,9.99999e-01,9.99937e-01,9.69998e-01,9.99999e-01
5.031515699e-01,9.70274e-01,9.99999e-01,9.99999e-01,9.99685e-01,9.70582e-01,9.99996e-01
5.056673278e-01,9.70990e-01,9.99999e-01,9.99999e-01,9.99834e-01,9.71154e-01,9.99995e-01
5.081956644e-01,9.71511e-01,9.99999e-01,9.99999e-01,9.99790e-01,9.71716e-01,9.99997e-01
5.107366428e-01,9.72129e-01,9.99999e-01,9.99999e-01,9.99858e-01,9.72267e-01,9.99999e-01
5.132903260e-01,9.72729e-01,9.99999e-01,9.99999e-01,9.99919e-01,9.72807e-01,9.99999e-01
5.158567776e-01,9.73304e-01,9.99999e-01,9.99999e-01,9.99965e-01,9.73337e-01,9.99999e-01
5.184360615e-01,9.73843e-01,9.99999e-01,9.99999e-01,9.99985e-01,9.73856e-01,9.99999e-01
5.210282418e-01,9.74361e-01,9.99999e-01,9.99999e-01,9.99994e-01,9.74366e-01,9.99999e-01
5.236333830e-01,9.74846e-01,9.99999e-01,9.99999e-01,9.99979e-01,9.74866e-01,9.99999e-01
5.262515499e-01,9.75344e-01,9.99999e-01,9.99999e-01,9.99986e-01,9.75356e-01,9.99999e-01
5.288828077e-01,9.75826e-01,9.99999e-01,9.99999e-01,9.99987e-01,9.75837e-01,9.99999e-01
5.315272217e-01,9.76299e-01,9.99999e-01,9.99999e-01,9.99989e-01,9.76309e-01,9.99999e-01
5.341848578e-01,9.76765e-01,9.99999e-01,9.99999e-01,9.99992e-01,9.76771e-01,9.99999e-01
5.368557821e-01,9.77201e-01,9.99999e-01,9.99999e-01,9.99975e-01,9.77225e-01,9.99999e-01
5.395400610e-01,9.77585e-01,9.99999e-01,9.99999e-01,9.99913e-01,9.77669e-01,9.99998e-01
5.422377613e-01,9.77995e-01,9.99999e-01,9.99999e-01,9.99888e-01,9.78106e-01,9.99997e-01
5.449489501e-01,9.78430e-01,9.99999e-01,9.99999e-01,9.99896e-01,9.78533e-01,9.99997e-01
5.476736949e-01,9.78863e-01,9.99999e-01,9.99999e-01,9.99908e-01,9.78953e-01,9.99998e-01
5.504120634e-01,9.79299e-01,9.99999e-01,9.99999e-01,9.99933e-01,9.79364e-01,9.99999e-01
5.531641237e-01,9.79735e-01,9.99999e-01,9.99999e-01,9.99966e-01,9.79768e-01,9.99999e-01
5.559299443e-01,9.80148e-01,9.99999e-01,9.99999e-01,9.99983e-01,9.80163e-01,9.99999e-01
5.587095940e-01,9.80541e-01,9.99999e-01,9.99999e-01,9.99989e-01,9.80551e-01,9.99999e-01
5.615031420e-01,9.80921e-01,9.99999e-01,9.99999e-01,9.99988e-01,9.80932e-01,9.99999e-01
5.643106577e-01,9.81292e-01,9.99999e-01,9.99999e-01,9.99986e-01,9.81305e-01,9.99999e-01
5.671322110e-01,9.81517e-01,9.99999e-01,9.99999e-01,9.99843e-01,9.81671e-01,9.99998e-01
5.699678720e-01,9.81864e-01,9.99999e-01,9.99999e-01,9.99834e-01,9.82030e-01,9.99995e-01
5.728177114e-01,9.82209e-01,9.99999e-01,9.99999e-01,9.99827e-01,9.82381e-01,9.99995e-01
5.756818000e-01,9.82569e-01,9.99999e-01,9.99999e-01,9.99841e-01,9.82726e-01,9.99997e-01
5.785602090e-01,9.82929e-01,9.99999e-01,9.99999e-01,9.99862e-01,9.83065e-01,9.99998e-01
5.814530100e-01,9.83260e-01,9.99999e-01,9.99999e-01,9.99861e-01,9.83396e-01,9.99999e-01
5.843602750e-01,9.83559e-01,9.99999e-01,9.99999e-01,9.99834e-01,9.83722e-01,9.99998e-01
5.872820764e-01,9.82632e-01,9.99999e-01,9.99999e-01,9.98578e-01,9.84040e-01,9.99989e-01
5.902184868e-01,9.82635e-01,9.99999e-01,9.99999e-01,9.98281e-01,9.84353e-01,9.99972e-01
5.931695792e-01,9.83438e-01,9.99999e-01,9.99999e-01,9.98784e-01,9.84660e-01,9.99973e-01
5.961354271e-01,9.83635e-01,9.99999e-01,9.99999e-01,9.98668e-01,9.84961e-01,9.99984e-01
5.991161043e-01,9.84295e-01,9.99999e-01,9.99999e-01,9.99029e-01,9.85255e-01,9.99994e-01
6.021116848e-01,9.85002e-01,9.99999e-01,9.99999e-01,9.99449e-01,9.85545e-01,9.99998e-01
6.051222432e-01,9.85553e-01,9.99999e-01,9.99999e-01,9.99721e-01,9.85828e-01,9.99999e-01
6.081478544e-01,9.85988e-01,9.99999e-01,9.99999e-01,9.99879e-01,9.86106e-01,9.99999e-01
6.111885937e-01,9.86328e-01,9.99999e-01,9.99999e-01,9.99948e-01,9.86379e-01,9.99999e-01
6.142445367e-01,9.86623e-01,9.99999e-01,9.99999e-01,9.99976e-01,9.86646e-01,9.99999e-01
6.173157594e-01,9.86895e-01,9.99999e-01,9.99999e-01,9.99986e-01,9.86908e-01,9.99999e-01
6.204023382e-01,9.87154e-01,9.99999e-01,9.99999e-01,9.99988e-01,9.87165e-01,9.99999e-01
6.235043498e-01,9.87370e-01,9.99999e-01,9.99999e-01,9.99952e-01,9.87417e-01,9.99999e-01
6.266218716e-01,9.87418e-01,9.99999e-01,9.99999e-01,9.99752e-01,9.87664e-01,9.99997e-01
6.297549810e-01,9.87813e-01,9.99999e-01,9.99999e-01,9.99908e-01,9.87906e-01,9.99996e-01
6.329037559e-01,9.87964e-01,9.99999e-01,9.99999e-01,9.99820e-01,9.88143e-01,9.99996e-01
6.360682746e-01,9.88224e-01,9.99999e-01,9.99999e-01,9.99846e-01,9.88376e-01,9.99997e-01
6.392486160e-01,9.88408e-01,9.99999e-01,9.99999e-01,9.99801e-01,9.88604e-01,9.99998e-01
6.424448591e-01,9.88565e-01,9.99999e-01,9.99999e-01,9.99734e-01,9.88828e-01,9.99998e-01
6.456570834e-01,9.87824e-01,9.99999e-01,9.99999e-01,9.98768e-01,9.89048e-01,9.99992e-01
6.488853688e-01,9.88354e-01,9.99999e-01,9.99999e-01,9.99099e-01,9.89263e-01,9.99980e-01
6.521297956e-01,9.88551e-01,9.99999e-01,9.99999e-01,9.99082e-01,9.89474e-01,9.99983e-01
6.553904446e-01,9.88765e-01,9.99999e-01,9.99999e-01,9.99086e-01,9.89680e-01,9.99987e-01
6.586673968e-01,9.89106e-01,9.99999e-01,9.99999e-01,9.99218e-01,9.89883e-01,9.99995e-01
6.619607338e-01,9.89650e-01,9.99999e-01,9.99999e-01,9.99564e-01,9.90082e-01,9.99998e-01
6.652705375e-01,9.90018e-01,9.99999e-01,9.99999e-01,9.99738e-01,9.90277e-01,9.99999e-01
6.685968902e-01,9.90348e-01,9.99999e-01,9.99999e-01,9.99878e-01,9.90468e-01,9.99999e-01
6.719398746e-01,9.90600e-01,9.99999e-01,9.99999e-01,9.99943e-01,9.90655e-01,9.99999e-01
6.752995740e-01,9.90809e-01,9.99999e-01,9.99999e-01,9.99969e-01,9.90839e-01,9.99999e-01
6.786760719e-01,9.90976e-01,9.99999e-01,9.99999e-01,9.99955e-01,9.91019e-01,9.99999e-01
6.820694522e-01,9.91121e-01,9.99999e-01,9.99999e-01,9.99924e-01,9.91196e-01,9.99999e-01
6.854797995e-01,9.91272e-01,9.99999e-01,9.99999e-01,9.99902e-01,9.91369e-01,9.99998e-01
6.889071985e-01,9.91303e-01,9.99999e-01,9.99999e-01,9.99763e-01,9.91539e-01,9.99997e-01
6.923517345e-01,9.87868e-01,9.99999e-01,9.99999e-01,9.96148e-01,9.91705e-01,9.99981e-01
6.958134932e-01,9.89847e-01,9.99999e-01,9.99999e-01,9.98002e-01,9.91868e-01,9.99958e-01
6.992925606e-01,9.90105e-01,9.99999e-01,9.99999e-01,9.98096e-01,9.92028e-01,9.99962e-01
7.027890234e-01,9.89830e-01,9.99999e-01,9.99999e-01,9.97653e-01,9.92185e-01,9.99971e-01
7.063029686e-01,9.90368e-01,9.99999e-01,9.99999e-01,9.98027e-01,9.92339e-01,9.99985e-01
7.098344834e-01,9.90604e-01,9.99999e-01,9.99999e-01,9.98107e-01,9.92490e-01,9.99991e-01
7.133836558e-01,9.90112e-01,9.99999e-01,9.99999e-01,9.97471e-01,9.92637e-01,9.99983e-01
7.169505741e-01,9.72552e-01,9.99999e-01,9.99999e-01,9.79748e-01,9.92782e-01,9.99870e-01
7.205353270e-01,9.82856e-01,9.99999e-01,9.99999e-01,9.90085e-01,9.92924e-01,9.99771e-01
7.241380036e-01,9.80357e-01,9.99999e-01,9.99999e-01,9.87398e-01,9.93064e-01,9.99802e-01
7.277586936e-01,9.81743e-01,9.99999e-01,9.99999e-01,9.88622e-01,9.93200e-01,9.99838e-01
7.313974871e-01,9.81274e-01,9.99999e-01,9.99999e-01,9.87933e-01,9.93334e-01,9.99924e-01
7.350544745e-01,9.86880e-01,9.99999e-01,9.99999e-01,9.93396e-01,9.93465e-01,9.99973e-01
7.387297469e-01,9.88755e-01,9.99999e-01,9.99999e-01,9.95141e-01,9.93594e-01,9.99987e-01
7.424233956e-01,9.91356e-01,9.99999e-01,9.99999e-01,9.97622e-01,9.93720e-01,9.99997e-01
7.461355126e-01,9.92411e-01,9.99999e-01,9.99999e-01,9.98558e-01,9.93844e-01,9.99999e-01
7.498661902e-01,9.93298e-01,9.99999e-01,9.99999e-01,9.99329e-01,9.93965e-01,9.99999e-01
7.536155211e-01,9.93757e-01,9.99999e-01,9.99999e-01,9.99670e-01,9.94084e-01,9.99999e-01
7.573835987e-01,9.94032e-01,9.99999e-01,9.99999e-01,9.99830e-01,9.94200e-01,9.99999e-01
7.611705167e-01,9.94210e-01,9.99999e-01,9.99999e-01,9.99894e-01,9.94314e-01,9.99999e-01
7.649763693e-01,9.94361e-01,9.99999e-01,9.99999e-01,9.99933e-01,9.94426e-01,9.99999e-01
7.688012511e-01,9.94490e-01,9.99999e-01,9.99999e-01,9.99953e-01,9.94536e-01,9.99999e-01
7.726452574e-01,9.94606e-01,9.99999e-01,9.99999e-01,9.99961e-01,9.94644e-01,9.99999e-01
7.765084837e-01,9.94696e-01,9.99999e-01,9.99999e-01,9.99945e-01,9.94749e-01,9.99999e-01
7.803910261e-01,9.94621e-01,9.99999e-01,9.99999e-01,9.99767e-01,9.94853e-01,9.99999e-01
7.842929812e-01,9.94145e-01,9.99999e-01,9.99999e-01,9.99187e-01,9.94954e-01,9.99998e-01
7.882144461e-01,9.93380e-01,9.99999e-01,9.99999e-01,9.98328e-01,9.95053e-01,9.99988e-01
7.921555184e-01,9.94220e-01,9.99999e-01,9.99999e-01,9.99084e-01,9.95151e-01,9.99979e-01
7.961162960e-01,9.93614e-01,9.99999e-01,9.99999e-01,9.98378e-01,9.95246e-01,9.99980e-01
8.000968774e-01,9.93459e-01,9.99999e-01,9.99999e-01,9.98129e-01,9.95340e-01,9.99979e-01
8.040973618e-01,9.93553e-01,9.99999e-01,9.99999e-01,9.98128e-01,9.95432e-01,9.99983e-01
8.081178486e-01,9.91302e-01,9.99999e-01,9.99999e-01,9.95776e-01,9.95522e-01,9.99984e-01
8.121584379e-01,9.78092e-01,9.99999e-01,9.99999e-01,9.82462e-01,9.95610e-01,9.99940e-01
8.162192301e-01,9.74794e-01,9.99999e-01,9.99999e-01,9.79223e-01,9.95697e-01,9.99777e-01
8.203003262e-01,9.85075e-01,9.99999e-01,9.99999e-01,9.89504e-01,9.95781e-01,9.99740e-01
8.244018279e-01,9.81099e-01,9.99999e-01,9.99999e-01,9.85376e-01,9.95865e-01,9.99793e-01
8.285238370e-01,9.83401e-01,9.99999e-01,9.99999e-01,9.87564e-01,9.95946e-01,9.99837e-01
8.326664562e-01,9.83440e-01,9.99999e-01,9.99999e-01,9.87429e-01,9.96026e-01,9.99932e-01
8.368297885e-01,9.87152e-01,9.99999e-01,9.99999e-01,9.91027e-01,9.96104e-01,9.99984e-01
8.410139374e-01,9.90857e-01,9.99999e-01,9.99999e-01,9.94664e-01,9.96181e-01,9.99990e-01
8.452190071e-01,9.93644e-01,9.99999e-01,9.99999e-01,9.97382e-01,9.96256e-01,9.99994e-01
8.494451021e-01,9.94812e-01,9.99999e-01,9.99999e-01,9.98480e-01,9.96330e-01,9.99995e-01
8.536923276e-01,9.95505e-01,9.99999e-01,9.99999e-01,9.99101e-01,9.96402e-01,9.99996e-01
8.579607893e-01,9.95922e-01,9.99999e-01,9.99999e-01,9.99446e-01,9.96473e-01,9.99998e-01
8.622505932e-01,9.96193e-01,9.99999e-01,9.99999e-01,9.99648e-01,9.96543e-01,9.99999e-01
8.665618462e-01,9.96394e-01,9.99999e-01,9.99999e-01,9.99782e-01,9.96611e-01,9.99999e-01
8.708946554e-01,9.96430e-01,9.99999e-01,9.99999e-01,9.99750e-01,9.96678e-01,9.99999e-01
8.752491287e-01,9.96411e-01,9.99999e-01,9.99999e-01,9.99666e-01,9.96743e-01,9.99999e-01
8.796253743e-01,9.96347e-01,9.99999e-01,9.99999e-01,9.99538e-01,9.96808e-01,9.99998e-01
8.840235012e-01,9.96342e-01,9.99999e-01,9.99999e-01,9.99472e-01,9.96871e-01,9.99996e-01
8.884436187e-01,9.94998e-01,9.99999e-01,9.99999e-01,9.98068e-01,9.96932e-01,9.99990e-01
8.928858368e-01,9.76784e-01,9.99999e-01,9.99999e-01,9.79781e-01,9.96993e-01,9.99946e-01
8.973502660e-01,9.61390e-01,9.99999e-01,9.99999e-01,9.64491e-01,9.97052e-01,9.99729e-01
9.018370173e-01,9.78481e-01,9.99999e-01,9.99999e-01,9.81732e-01,9.97110e-01,9.99575e-01
9.063462024e-01,9.80738e-01,9.99999e-01,9.99999e-01,9.83890e-01,9.97167e-01,9.99627e-01
9.108779334e-01,9.71917e-01,9.99999e-01,9.99999e-01,9.74999e-01,9.97223e-01,9.99612e-01
9.154323231e-01,9.68734e-01,9.99999e-01,9.99999e-01,9.71688e-01,9.97278e-01,9.99679e-01
9.200094847e-01,9.74962e-01,9.99999e-01,9.99999e-01,9.77744e-01,9.97331e-01,9.99820e-01
9.246095321e-01,9.62147e-01,9.99999e-01,9.99999e-01,9.64868e-01,9.97384e-01,9.99793e-01
9.292325798e-01,7.82740e-01,9.99999e-01,9.99999e-01,7.85383e-01,9.97436e-01,9.99195e-01
9.338787427e-01,7.27220e-01,9.99999e-01,9.99999e-01,7.31481e-01,9.97486e-01,9.96679e-01
9.385481364e-01,8.76381e-01,9.99999e-01,9.99999e-01,8.82027e-01,9.97536e-01,9.96052e-01
9.432408771e-01,8.32417e-01,9.99999e-01,9.99999e-01,8.37284e-01,9.97584e-01,9.96593e-01
9.479570815e-01,7.75672e-01,9.99999e-01,9.99999e-01,7.79675e-01,9.97632e-01,9.97226e-01
9.526968669e-01,8.29339e-01,9.99999e-01,9.99999e-01,8.32677e-01,9.97679e-01,9.98307e-01
9.574603512e-01,8.45599e-01,9.99999e-01,9.99999e-01,8.48256e-01,9.97724e-01,9.99139e-01
9.622476530e-01,8.72871e-01,9.99999e-01,9.99999e-01,8.75342e-01,9.97769e-01,9.99404e-01
9.670588912e-01,9.23909e-01,9.99999e-01,9.99999e-01,9.26310e-01,9.97813e-01,9.99592e-01
9.718941857e-01,9.51230e-01,9.99999e-01,9.99999e-01,9.53557e-01,9.97856e-01,9.99700e-01
9.767536566e-01,9.59073e-01,9.99999e-01,9.99999e-01,9.61311e-01,9.97899e-01,9.99770e-01
9.816374249e-01,9.69158e-01,9.99999e-01,9.99999e-01,9.71235e-01,9.97940e-01,9.99920e-01
9.865456120e-01,9.79951e-01,9.99999e-01,9.99999e-01,9.81949e-01,9.97981e-01,9.99983e-01
9.914783401e-01,9.86851e-01,9.99999e-01,9.99999e-01,9.88812e-01,9.98021e-01,9.99994e-01
9.964357318e-01,9.91963e-01,9.99999e-01,9.99999e-01,9.93894e-01,9.98060e-01,9.99996e-01
1.001417910e+00,9.94439e-01,9.99999e-01,9.99999e-01,9.96337e-01,9.98098e-01,9.99995e-01
1.006425000e+00,9.96045e-01,9.99999e-01,9.99999e-01,9.97910e-01,9.98135e-01,9.99993e-01
1.011457125e+00,9.96873e-01,9.99999e-01,9.99999e-01,9.98703e-01,9.98172e-01,9.99994e-01
1.016514411e+00,9.97326e-01,9.99999e-01,9.99999e-01,9.99119e-01,9.98208e-01,9.99995e-01
1.021596983e+00,9.97540e-01,9.99999e-01,9.99999e-01,9.99298e-01,9.98244e-01,9.99995e-01
1.026704968e+00,9.97730e-01,9.99999e-01,9.99999e-01,9.99452e-01,9.98278e-01,9.99996e-01
1.031838492e+00,9.97915e-01,9.99999e-01,9.99999e-01,9.99602e-01,9.98312e-01,9.99998e-01
1.036997685e+00,9.98110e-01,9.99999e-01,9.99999e-01,9.99763e-01,9.98346e-01,9.99999e-01
1.042182673e+00,9.98097e-01,9.99999e-01,9.99999e-01,9.99717e-01,9.98378e-01,9.99999e-01
1.047393587e+00,9.98037e-01,9.99999e-01,9.99999e-01,9.99626e-01,9.98410e-01,9.99999e-01
1.052630555e+00,9.97929e-01,9.99999e-01,9.99999e-01,9.99486e-01,9.98442e-01,9.99999e-01
1.057893707e+00,9.97617e-01,9.99999e-01,9.99999e-01,9.99143e-01,9.98472e-01,9.99999e-01
1.063183176e+00,9.97095e-01,9.99999e-01,9.99999e-01,9.98590e-01,9.98502e-01,9.99998e-01
1.068499092e+00,9.96175e-01,9.99999e-01,9.99999e-01,9.97640e-01,9.98532e-01,9.99997e-01
1.073841587e+00,9.95799e-01,9.99999e-01,9.99999e-01,9.97237e-01,9.98561e-01,9.99996e-01
1.079210795e+00,9.95048e-01,9.99999e-01,9.99999e-01,9.96463e-01,9.98589e-01,9.99990e-01
1.084606849e+00,9.93249e-01,9.99999e-01,9.99999e-01,9.94646e-01,9.98617e-01,9.99976e-01
1.090029883e+00,9.90914e-01,9.99999e-01,9.99999e-01,9.92305e-01,9.98644e-01,9.99952e-01
1.095480033e+00,9.77788e-01,9.99999e-01,9.99999e-01,9.79171e-01,9.98671e-01,9.99914e-01
1.100957433e+00,9.46394e-01,9.99999e-01,9.99999e-01,9.47775e-01,9.98697e-01,9.99843e-01
1.106462220e+00,8.70150e-01,9.99999e-01,9.99999e-01,8.71493e-01,9.98723e-01,9.99734e-01
1.111994531e+00,7.46023e-01,9.99999e-01,9.99999e-01,7.47483e-01,9.98748e-01,9.99295e-01
1.117554504e+00,6.20142e-01,9.99999e-01,9.99999e-01,6.22484e-01,9.98773e-01,9.97460e-01
1.123142276e+00,6.95501e-01,9.99999e-01,9.99999e-01,7.00549e-01,9.98797e-01,9.93988e-01
1.128757988e+00,7.92557e-01,9.99999e-01,9.99999e-01,7.99045e-01,9.98821e-01,9.93049e-01
1.134401778e+00,5.75445e-01,9.99999e-01,9.99999e-01,5.79537e-01,9.98844e-01,9.94086e-01
1.140073787e+00,8.71408e-01,9.99999e-01,9.99999e-01,8.76539e-01,9.98867e-01,9.95272e-01
1.145774156e+00,7.52926e-01,9.99999e-01,9.99999e-01,7.57039e-01,9.98889e-01,9.95671e-01
1.151503026e+00,7.29019e-01,9.99999e-01,9.99999e-01,7.31579e-01,9.98911e-01,9.97586e-01
1.157260541e+00,7.73391e-01,9.99999e-01,9.99999e-01,7.74776e-01,9.98933e-01,9.99277e-01
1.163046844e+00,8.27682e-01,9.99999e-01,9.99999e-01,8.28718e-01,9.98954e-01,9.99794e-01
1.168862078e+00,8.77470e-01,9.99999e-01,9.99999e-01,8.78463e-01,9.98974e-01,9.99894e-01
1.174706389e+00,9.22120e-01,9.99999e-01,9.99999e-01,9.23176e-01,9.98995e-01,9.99859e-01
1.180579921e+00,9.51413e-01,9.99999e-01,9.99999e-01,9.52552e-01,9.99014e-01,9.99788e-01
1.186482820e+00,9.71799e-01,9.99999e-01,9.99999e-01,9.72949e-01,9.99034e-01,9.99782e-01
1.192415234e+00,9.83045e-01,9.99999e-01,9.99999e-01,9.84136e-01,9.99053e-01,9.99837e-01
1.198377311e+00,9.85541e-01,9.99999e-01,9.99999e-01,9.86607e-01,9.99072e-01,9.99846e-01
1.204369197e+00,9.86280e-01,9.99999e-01,9.99999e-01,9.87314e-01,9.99090e-01,9.99860e-01
1.210391043e+00,9.86908e-01,9.99999e-01,9.99999e-01,9.87872e-01,9.99108e-01,9.99915e-01
1.216442998e+00,9.88762e-01,9.99999e-01,9.99999e-01,9.89678e-01,9.99125e-01,9.99947e-01
1.222525213e+00,9.91077e-01,9.99999e-01,9.99999e-01,9.91958e-01,9.99143e-01,9.99967e-01
1.228637839e+00,9.93560e-01,9.99999e-01,9.99999e-01,9.94410e-01,9.99160e-01,9.99984e-01
