#,Wave/freq,Total,N2,O2,H2O,Rayleigh,CIA
4.000000000e-01,1.73460e-01,9.99999e-01,9.99999e-01,9.99802e-01,1.73494e-01,9.99999e-01
4.020000000e-01,1.79586e-01,9.99999e-01,9.99999e-01,9.99877e-01,1.79608e-01,9.99999e-01
4.040100000e-01,1.85795e-01,9.99999e-01,9.99999e-01,9.99947e-01,1.85804e-01,9.99999e-01
4.060300500e-01,1.92083e-01,9.99999e-01,9.99999e-01,9.99987e-01,1.92085e-01,9.99999e-01
4.080602003e-01,1.98447e-01,9.99999e-01,9.99999e-01,9.99995e-01,1.98448e-01,9.99999e-01
4.101005013e-01,2.04889e-01,9.99999e-01,9.99999e-01,9.99999e-01,2.04889e-01,9.99999e-01
4.121510038e-01,2.11405e-01,9.99999e-01,9.99999e-01,9.99992e-01,2.11407e-01,9.99999e-01
4.142117588e-01,2.17984e-01,9.99999e-01,9.99999e-01,9.99945e-01,2.17996e-01,9.99999e-01
4.162828176e-01,2.24600e-01,9.99999e-01,9.99999e-01,9.99755e-01,2.24655e-01,9.99999e-01
4.183642317e-01,2.31346e-01,9.99999e-01,9.99999e-01,9.99854e-01,2.31380e-01,9.99999e-01
4.204560528e-01,2.38146e-01,9.99999e-01,9.99999e-01,9.99910e-01,2.38167e-01,9.99999e-01
4.225583331e-01,2.45005e-01,9.99999e-01,9.99999e-01,9.99966e-01,2.45013e-01,9.99999e-01
4.246711247e-01,2.51909e-01,9.99999e-01,9.99999e-01,9.99972e-01,2.51915e-01,9.99999e-01
4.267944804e-01,2.58860e-01,9.99999e-01,9.99999e-01,9.99960e-01,2.58870e-01,9.99999e-01
4.289284528e-01,2.65865e-01,9.99999e-01,9.99999e-01,9.99969e-01,2.65873e-01,9.99999e-01
4.310730950e-01,2.72919e-01,9.99999e-01,9.99999e-01,9.99986e-01,2.72922e-01,9.99999e-01
4.332284605e-01,2.80012e-01,9.99999e-01,9.99999e-01,9.99996e-01,2.80013e-01,9.99999e-01
4.353946028e-01,2.87142e-01,9.99999e-01,9.99999e-01,9.99998e-01,2.87143e-01,9.99999e-01
4.375715758e-01,2.94301e-01,9.99999e-01,9.99999e-01,9.99975e-01,2.94308e-01,9.99999e-01
4.397594337e-01,3.01440e-01,9.99999e-01,9.99999e-01,9.99784e-01,3.01505e-01,9.99999e-01
4.419582309e-01,3.08393e-01,9.99999e-01,9.99999e-01,9.98906e-01,3.08730e-01,9.99999e-01
4.441680220e-01,3.15713e-01,9.99999e-01,9.99999e-01,9.99149e-01,3.15981e-01,9.99999e-01
4.463888621e-01,3.22968e-01,9.99999e-01,9.99999e-01,9.99113e-01,3.23254e-01,9.99999e-01
4.486208064e-01,3.30364e-01,9.99999e-01,9.99999e-01,9.99449e-01,3.30546e-01,9.99999e-01
4.508639105e-01,3.37767e-01,9.99999e-01,9.99999e-01,9.99742e-01,3.37854e-01,9.99999e-01
4.531182300e-01,3.45138e-01,9.99999e-01,9.99999e-01,9.99897e-01,3.45173e-01,9.99999e-01
4.553838212e-01,3.52478e-01,9.99999e-01,9.99999e-01,9.99930e-01,3.52502e-01,9.99999e-01
4.576607403e-01,3.59826e-01,9.99999e-01,9.99999e-01,9.99967e-01,3.59838e-01,9.99999e-01
4.599490440e-01,3.67168e-01,9.99999e-01,9.99999e-01,9.99977e-01,3.67176e-01,9.99999e-01
4.622487892e-01,3.74514e-01,9.99999e-01,9.99999e-01,9.99995e-01,3.74515e-01,9.99999e-01
4.645600332e-01,3.81846e-01,9.99999e-01,9.99999e-01,9.99984e-01,3.81852e-01,9.99999e-01
4.668828333e-01,3.89081e-01,9.99999e-01,9.99999e-01,9.99738e-01,3.89182e-01,9.99999e-01
4.692172475e-01,3.96285e-01,9.99999e-01,9.99999e-01,9.99443e-01,3.96505e-01,9.99999e-01
4.715633337e-01,4.03670e-01,9.99999e-01,9.99999e-01,9.99636e-01,4.03817e-01,9.99999e-01
4.739211504e-01,4.10972e-01,9.99999e-01,9.99999e-01,9.99652e-01,4.11115e-01,9.99999e-01
4.762907561e-01,4.18321e-01,9.99999e-01,9.99999e-01,9.99819e-01,4.18397e-01,9.99999e-01
4.786722099e-01,4.25629e-01,9.99999e-01,9.99999e-01,9.99925e-01,4.25660e-01,9.99999e-01
4.810655710e-01,4.32893e-01,9.99999e-01,9.99999e-01,9.99977e-01,4.32902e-01,9.99999e-01
4.834708988e-01,4.40027e-01,9.99999e-01,9.99999e-01,9.99786e-01,4.40121e-01,9.99999e-01
4.858882533e-01,4.47138e-01,9.99999e-01,9.99999e-01,9.99606e-01,4.47314e-01,9.99999e-01
4.883176946e-01,4.54329e-01,9.99999e-01,9.99999e-01,9.99670e-01,4.54479e-01,9.99999e-01
4.907592831e-01,4.61476e-01,9.99999e-01,9.99999e-01,9.99702e-01,4.61614e-01,9.99999e-01
4.932130795e-01,4.68617e-01,9.99999e-01,9.99999e-01,9.99788e-01,4.68716e-01,9.99999e-01
4.956791449e-01,4.75731e-01,9.99999e-01,9.99999e-01,9.99887e-01,4.75784e-01,9.99999e-01
4.981575406e-01,4.82547e-01,9.99999e-01,9.99999e-01,9.99440e-01,4.82817e-01,9.99999e-01
5.006483283e-01,4.89096e-01,9.99999e-01,9.99999e-01,9.98549e-01,4.89811e-01,9.99989e-01
5.031515699e-01,4.93093e-01,9.99999e-01,9.99999e-01,9.92685e-01,4.96765e-01,9.99922e-01
5.056673278e-01,5.01686e-01,9.99999e-01,9.99999e-01,9.96132e-01,5.03678e-01,9.99911e-01
5.081956644e-01,5.08028e-01,9.99999e-01,9.99999e-01,9.95122e-01,5.10547e-01,9.99942e-01
5.107366428e-01,5.15662e-01,9.99999e-01,9.99999e-01,9.96704e-01,5.17372e-01,9.99988e-01
5.132903260e-01,5.23163e-01,9.99999e-01,9.99999e-01,9.98116e-01,5.24150e-01,9.99998e-01
5.158567776e-01,5.30459e-01,9.99999e-01,9.99999e-01,9.99203e-01,5.30881e-01,9.99999e-01
5.184360615e-01,5.37392e-01,9.99999e-01,9.99999e-01,9.99681e-01,5.37563e-01,9.99999e-01
5.210282418e-01,5.44129e-01,9.99999e-01,9.99999e-01,9.99880e-01,5.44194e-01,9.99999e-01
5.236333830e-01,5.50509e-01,9.99999e-01,9.99999e-01,9.99521e-01,5.50774e-01,9.99996e-01
5.262515499e-01,5.57132e-01,9.99999e-01,9.99999e-01,9.99700e-01,5.57301e-01,9.99994e-01
5.288828077e-01,5.63618e-01,9.99999e-01,9.99999e-01,9.99724e-01,5.63774e-01,9.99996e-01
5.315272217e-01,5.70055e-01,9.99999e-01,9.99999e-01,9.99758e-01,5.70193e-01,9.99998e-01
5.341848578e-01,5.76464e-01,9.99999e-01,9.99999e-01,9.99841e-01,5.76555e-01,9.99999e-01
5.368557821e-01,5.82535e-01,9.99999e-01,9.99999e-01,9.99442e-01,5.82861e-01,9.99998e-01
5.395400610e-01,5.87913e-01,9.99999e-01,9.99999e-01,9.97986e-01,5.89109e-01,9.99982e-01
5.422377613e-01,5.93725e-01,9.99999e-01,9.99999e-01,9.97404e-01,5.95298e-01,9.99952e-01
5.449489501e-01,5.99946e-01,9.99999e-01,9.99999e-01,9.97582e-01,6.01429e-01,9.99950e-01
5.476736949e-01,6.06186e-01,9.99999e-01,9.99999e-01,9.97861e-01,6.07499e-01,9.99975e-01
5.504120634e-01,6.12553e-01,9.99999e-01,9.99999e-01,9.98447e-01,6.13510e-01,9.99992e-01
5.531641237e-01,6.18974e-01,9.99999e-01,9.99999e-01,9.99218e-01,6.19459e-01,9.99998e-01
5.559299443e-01,6.25111e-01,9.99999e-01,9.99999e-01,9.99622e-01,6.25346e-01,9.99999e-01
5.587095940e-01,6.31023e-01,9.99999e-01,9.99999e-01,9.99763e-01,6.31172e-01,9.99999e-01
5.615031420e-01,6.36767e-01,9.99999e-01,9.99999e-01,9.99736e-01,6.36935e-01,9.99999e-01
5.643106577e-01,6.42442e-01,9.99999e-01,9.99999e-01,9.99700e-01,6.42636e-01,9.99996e-01
5.671322110e-01,6.45898e-01,9.99999e-01,9.99999e-01,9.96367e-01,6.48273e-01,9.99967e-01
5.699678720e-01,6.51267e-01,9.99999e-01,9.99999e-01,9.96152e-01,6.53847e-01,9.99900e-01
5.728177114e-01,6.56656e-01,9.99999e-01,9.99999e-01,9.95983e-01,6.59358e-01,9.99917e-01
5.756818000e-01,6.62321e-01,9.99999e-01,9.99999e-01,9.96314e-01,6.64804e-01,9.99949e-01
5.785602090e-01,6.68025e-01,9.99999e-01,9.99999e-01,9.96788e-01,6.70187e-01,9.99984e-01
5.814530100e-01,6.73322e-01,9.99999e-01,9.99999e-01,9.96772e-01,6.75506e-01,9.99992e-01
5.843602750e-01,6.78126e-01,9.99999e-01,9.99999e-01,9.96151e-01,6.80761e-01,9.99978e-01
5.872820764e-01,6.63489e-01,9.99999e-01,9.99999e-01,9.67478e-01,6.85951e-01,9.99766e-01
5.902184868e-01,6.63422e-01,9.99999e-01,9.99999e-01,9.60591e-01,6.91078e-01,9.99364e-01
5.931695792e-01,6.76289e-01,9.99999e-01,9.99999e-01,9.72077e-01,6.96140e-01,9.99388e-01
5.961354271e-01,6.79426e-01,9.99999e-01,9.99999e-01,9.69372e-01,7.01138e-01,9.99648e-01
5.991161043e-01,6.90142e-01,9.99999e-01,9.99999e-01,9.77543e-01,7.06073e-01,9.99890e-01
6.021116848e-01,7.01833e-01,9.99999e-01,9.99999e-01,9.87196e-01,7.10943e-01,9.99987e-01
6.051222432e-01,7.11099e-01,9.99999e-01,9.99999e-01,9.93501e-01,7.15750e-01,9.99998e-01
6.081478544e-01,7.18471e-01,9.99999e-01,9.99999e-01,9.97191e-01,7.20494e-01,9.99999e-01
6.111885937e-01,7.24313e-01,9.99999e-01,9.99999e-01,9.98811e-01,7.25175e-01,9.99999e-01
6.142445367e-01,7.29405e-01,9.99999e-01,9.99999e-01,9.99468e-01,7.29792e-01,9.99999e-01
6.173157594e-01,7.34132e-01,9.99999e-01,9.99999e-01,9.99706e-01,7.34347e-01,9.99999e-01
6.204023382e-01,7.38656e-01,9.99999e-01,9.99999e-01,9.99751e-01,7.38839e-01,9.99999e-01
6.235043498e-01,7.42454e-01,9.99999e-01,9.99999e-01,9.98904e-01,7.43270e-01,9.99996e-01
6.266218716e-01,7.43294e-01,9.99999e-01,9.99999e-01,9.94229e-01,7.47639e-01,9.99958e-01
6.297549810e-01,7.50291e-01,9.99999e-01,9.99999e-01,9.97880e-01,7.51946e-01,9.99918e-01
6.329037559e-01,7.52978e-01,9.99999e-01,9.99999e-01,9.95814e-01,7.56192e-01,9.99934e-01
6.360682746e-01,7.57637e-01,9.99999e-01,9.99999e-01,9.96432e-01,7.60378e-01,9.99961e-01
6.392486160e-01,7.60958e-01,9.99999e-01,9.99999e-01,9.95379e-01,7.64503e-01,9.99982e-01
6.424448591e-01,7.63796e-01,9.99999e-01,9.99999e-01,9.93815e-01,7.68569e-01,9.99972e-01
6.456570834e-01,7.50559e-01,9.99999e-01,9.99999e-01,9.71656e-01,7.72576e-01,9.99840e-01
6.488853688e-01,7.60057e-01,9.99999e-01,9.99999e-01,9.79230e-01,7.76523e-01,9.99554e-01
6.521297956e-01,7.63634e-01,9.99999e-01,9.99999e-01,9.78860e-01,7.80412e-01,9.99631e-01
6.553904446e-01,7.67452e-01,9.99999e-01,9.99999e-01,9.78856e-01,7.84244e-01,9.99725e-01
6.586673968e-01,7.73684e-01,9.99999e-01,9.99999e-01,9.81900e-01,7.88018e-01,9.99908e-01
6.619607338e-01,7.83691e-01,9.99999e-01,9.99999e-01,9.89860e-01,7.91734e-01,9.99979e-01
6.652705375e-01,7.90536e-01,9.99999e-01,9.99999e-01,9.93900e-01,7.95395e-01,9.99989e-01
6.685968902e-01,7.96731e-01,9.99999e-01,9.99999e-01,9.97162e-01,7.99000e-01,9.99997e-01
6.719398746e-01,8.01494e-01,9.99999e-01,9.99999e-01,9.98684e-01,8.02549e-01,9.99999e-01
6.752995740e-01,8.05468e-01,9.99999e-01,9.99999e-01,9.99286e-01,8.06043e-01,9.99999e-01
6.786760719e-01,8.08648e-01,9.99999e-01,9.99999e-01,9.98968e-01,8.09484e-01,9.99998e-01
6.820694522e-01,8.11429e-01,9.99999e-01,9.99999e-01,9.98235e-01,8.12870e-01,9.99990e-01
6.854797995e-01,8.14331e-01,9.99999e-01,9.99999e-01,9.97725e-01,8.16204e-01,9.99979e-01
6.889071985e-01,8.14934e-01,9.99999e-01,9.99999e-01,9.94496e-01,8.19484e-01,9.99950e-01
6.923517345e-01,7.52008e-01,9.99999e-01,9.99999e-01,9.14451e-01,8.22713e-01,9.99568e-01
6.958134932e-01,7.87815e-01,9.99999e-01,9.99999e-01,9.54808e-01,8.25891e-01,9.99045e-01
6.992925606e-01,7.92365e-01,9.99999e-01,9.99999e-01,9.56610e-01,8.29017e-01,9.99140e-01
7.027890234e-01,7.87260e-01,9.99999e-01,9.99999e-01,9.46741e-01,8.32093e-01,9.99343e-01
7.063029686e-01,7.97214e-01,9.99999e-01,9.99999e-01,9.54921e-01,8.35120e-01,9.99672e-01
7.098344834e-01,8.01630e-01,9.99999e-01,9.99999e-01,9.56671e-01,8.38097e-01,9.99806e-01
7.133836558e-01,7.92754e-01,9.99999e-01,9.99999e-01,9.42964e-01,8.41026e-01,9.99615e-01
7.169505741e-01,5.36659e-01,9.99999e-01,9.99999e-01,6.37846e-01,8.43907e-01,9.96981e-01
7.205353270e-01,6.73467e-01,9.99999e-01,9.99999e-01,7.99617e-01,8.46741e-01,9.94679e-01
7.241380036e-01,6.35003e-01,9.99999e-01,9.99999e-01,7.50927e-01,8.49528e-01,9.95404e-01
7.277586936e-01,6.55909e-01,9.99999e-01,9.99999e-01,7.72505e-01,8.52269e-01,9.96241e-01
7.313974871e-01,6.46575e-01,9.99999e-01,9.99999e-01,7.57594e-01,8.54964e-01,9.98237e-01
7.350544745e-01,7.35597e-01,9.99999e-01,9.99999e-01,8.58250e-01,8.57614e-01,9.99387e-01
7.387297469e-01,7.67935e-01,9.99999e-01,9.99999e-01,8.92969e-01,8.60220e-01,9.99718e-01
7.424233956e-01,8.16112e-01,9.99999e-01,9.99999e-01,9.45957e-01,8.62783e-01,9.99945e-01
7.461355126e-01,8.36611e-01,9.99999e-01,9.99999e-01,9.66851e-01,8.65301e-01,9.99989e-01
7.498661902e-01,8.54261e-01,9.99999e-01,9.99999e-01,9.84426e-01,8.67778e-01,9.99996e-01
7.536155211e-01,8.63532e-01,9.99999e-01,9.99999e-01,9.92325e-01,8.70212e-01,9.99997e-01
7.573835987e-01,8.69152e-01,9.99999e-01,9.99999e-01,9.96042e-01,8.72605e-01,9.99998e-01
7.611705167e-01,8.72804e-01,9.99999e-01,9.99999e-01,9.97539e-01,8.74957e-01,9.99999e-01
7.649763693e-01,8.75915e-01,9.99999e-01,9.99999e-01,9.98456e-01,8.77268e-01,9.99999e-01
7.688012511e-01,8.78595e-01,9.99999e-01,9.99999e-01,9.98924e-01,8.79540e-01,9.99999e-01
7.726452574e-01,8.80993e-01,9.99999e-01,9.99999e-01,9.99115e-01,8.81773e-01,9.99999e-01
7.765084837e-01,8.82854e-01,9.99999e-01,9.99999e-01,9.98741e-01,8.83967e-01,9.99998e-01
7.803910261e-01,8.81309e-01,9.99999e-01,9.99999e-01,9.94571e-01,8.86123e-01,9.99994e-01
7.842929812e-01,8.71512e-01,9.99999e-01,9.99999e-01,9.81198e-01,8.88242e-01,9.99964e-01
7.882144461e-01,8.55979e-01,9.99999e-01,9.99999e-01,9.61681e-01,8.90324e-01,9.99731e-01
7.921555184e-01,8.73080e-01,9.99999e-01,9.99999e-01,9.78839e-01,8.92369e-01,9.99534e-01
7.961162960e-01,8.60795e-01,9.99999e-01,9.99999e-01,9.62876e-01,8.94379e-01,9.99556e-01
8.000968774e-01,8.57533e-01,9.99999e-01,9.99999e-01,9.57141e-01,8.96353e-01,9.99528e-01
8.040973618e-01,8.59490e-01,9.99999e-01,9.99999e-01,9.57162e-01,8.98292e-01,9.99625e-01
8.081178486e-01,8.15941e-01,9.99999e-01,9.99999e-01,9.06720e-01,9.00197e-01,9.99648e-01
8.121584379e-01,6.04954e-01,9.99999e-01,9.99999e-01,6.71555e-01,9.02069e-01,9.98620e-01
8.162192301e-01,5.63007e-01,9.99999e-01,9.99999e-01,6.26099e-01,9.03907e-01,9.94823e-01
8.203003262e-01,7.20485e-01,9.99999e-01,9.99999e-01,8.00337e-01,9.05713e-01,9.93941e-01
8.244018279e-01,6.68782e-01,9.99999e-01,9.99999e-01,7.40533e-01,9.07486e-01,9.95175e-01
8.285238370e-01,6.81232e-01,9.99999e-01,9.99999e-01,7.52092e-01,9.09228e-01,9.96208e-01
8.326664562e-01,6.83130e-01,9.99999e-01,9.99999e-01,7.51096e-01,9.10938e-01,9.98430e-01
8.368297885e-01,7.40922e-01,9.99999e-01,9.99999e-01,8.12155e-01,9.12618e-01,9.99640e-01
8.410139374e-01,8.07281e-01,9.99999e-01,9.99999e-01,8.83165e-01,9.14268e-01,9.99789e-01
8.452190071e-01,8.61447e-01,9.99999e-01,9.99999e-01,9.40677e-01,9.15888e-01,9.99874e-01
8.494451021e-01,8.85331e-01,9.99999e-01,9.99999e-01,9.65056e-01,9.17479e-01,9.99899e-01
8.536923276e-01,8.99872e-01,9.99999e-01,9.99999e-01,9.79201e-01,9.19041e-01,9.99938e-01
8.579607893e-01,9.08717e-01,9.99999e-01,9.99999e-01,9.87132e-01,9.20575e-01,9.99984e-01
8.622505932e-01,9.14526e-01,9.99999e-01,9.99999e-01,9.91808e-01,9.22081e-01,9.99996e-01
8.665618462e-01,9.18870e-01,9.99999e-01,9.99999e-01,9.94922e-01,9.23560e-01,9.99998e-01
8.708946554e-01,9.19631e-01,9.99999e-01,9.99999e-01,9.94186e-01,9.25011e-01,9.99996e-01
8.752491287e-01,9.19232e-01,9.99999e-01,9.99999e-01,9.92230e-01,9.26437e-01,9.99991e-01
8.796253743e-01,9.17844e-01,9.99999e-01,9.99999e-01,9.89254e-01,9.27836e-01,9.99975e-01
8.840235012e-01,9.17750e-01,9.99999e-01,9.99999e-01,9.87740e-01,9.29210e-01,9.99924e-01
8.884436187e-01,8.89925e-01,9.99999e-01,9.99999e-01,9.56538e-01,9.30558e-01,9.99786e-01
8.928858368e-01,5.93727e-01,9.99999e-01,9.99999e-01,6.37911e-01,9.31882e-01,9.98768e-01
8.973502660e-01,4.23711e-01,9.99999e-01,9.99999e-01,4.56925e-01,9.33182e-01,9.93706e-01
9.018370173e-01,6.20507e-01,9.99999e-01,9.99999e-01,6.70652e-01,9.34457e-01,9.90122e-01
9.063462024e-01,6.49173e-01,9.99999e-01,9.99999e-01,6.99851e-01,9.35709e-01,9.91317e-01
9.108779334e-01,5.33393e-01,9.99999e-01,9.99999e-01,5.74475e-01,9.36938e-01,9.90979e-01
9.154323231e-01,4.92127e-01,9.99999e-01,9.99999e-01,5.28518e-01,9.38144e-01,9.92538e-01
9.200094847e-01,5.70940e-01,9.99999e-01,9.99999e-01,6.10370e-01,9.39328e-01,9.95816e-01
9.246095321e-01,4.56939e-01,9.99999e-01,9.99999e-01,4.88203e-01,9.40490e-01,9.95181e-01
9.292325798e-01,2.53987e-02,9.99999e-01,9.99999e-01,2.74859e-02,9.41631e-01,9.81340e-01
9.338787427e-01,4.43078e-03,9.99999e-01,9.99999e-01,5.08041e-03,9.42750e-01,9.25089e-01
9.385481364e-01,9.93742e-02,9.99999e-01,9.99999e-01,1.15502e-01,9.43849e-01,9.11550e-01
9.432408771e-01,5.24421e-02,9.99999e-01,9.99999e-01,6.01145e-02,9.44927e-01,9.23213e-01
9.479570815e-01,1.38805e-02,9.99999e-01,9.99999e-01,1.56588e-02,9.45984e-01,9.37045e-01
9.526968669e-01,3.48033e-02,9.99999e-01,9.99999e-01,3.82370e-02,9.47023e-01,9.61115e-01
9.574603512e-01,4.11457e-02,9.99999e-01,9.99999e-01,4.42839e-02,9.48041e-01,9.80055e-01
9.622476530e-01,6.84050e-02,9.99999e-01,9.99999e-01,7.30890e-02,9.49041e-01,9.86166e-01
9.670588912e-01,2.00031e-01,9.99999e-01,9.99999e-01,2.12569e-01,9.50022e-01,9.90518e-01
9.718941857e-01,3.28782e-01,9.99999e-01,9.99999e-01,3.48161e-01,9.50984e-01,9.93011e-01
9.767536566e-01,3.92951e-01,9.99999e-01,9.99999e-01,4.15013e-01,9.51929e-01,9.94654e-01
9.816374249e-01,4.89681e-01,9.99999e-01,9.99999e-01,5.14862e-01,9.52856e-01,9.98146e-01
9.865456120e-01,6.26718e-01,9.99999e-01,9.99999e-01,6.57352e-01,9.53765e-01,9.99613e-01
9.914783401e-01,7.34862e-01,9.99999e-01,9.99999e-01,7.69846e-01,9.54657e-01,9.99892e-01
9.964357318e-01,8.28474e-01,9.99999e-01,9.99999e-01,8.67081e-01,9.55533e-01,9.99936e-01
1.001417910e+00,8.77776e-01,9.99999e-01,9.99999e-01,9.17887e-01,9.56392e-01,9.99903e-01
1.006425000e+00,9.11403e-01,9.99999e-01,9.99999e-01,9.52249e-01,9.57234e-01,9.99863e-01
1.011457125e+00,9.29304e-01,9.99999e-01,9.99999e-01,9.70106e-01,9.58061e-01,9.99873e-01
1.016514411e+00,9.39224e-01,9.99999e-01,9.99999e-01,9.79595e-01,9.58872e-01,9.99910e-01
1.021596983e+00,9.43948e-01,9.99999e-01,9.99999e-01,9.83707e-01,9.59668e-01,9.99909e-01
1.026704968e+00,9.48164e-01,9.99999e-01,9.99999e-01,9.87268e-01,9.60448e-01,9.99939e-01
1.031838492e+00,9.52293e-01,9.99999e-01,9.99999e-01,9.90734e-01,9.61214e-01,9.99983e-01
1.036997685e+00,9.56658e-01,9.99999e-01,9.99999e-01,9.94484e-01,9.61966e-01,9.99996e-01
1.042182673e+00,9.56371e-01,9.99999e-01,9.99999e-01,9.93423e-01,9.62703e-01,9.99998e-01
1.047393587e+00,9.55033e-01,9.99999e-01,9.99999e-01,9.91289e-01,9.63426e-01,9.99997e-01
1.052630555e+00,9.52626e-01,9.99999e-01,9.99999e-01,9.88065e-01,9.64135e-01,9.99996e-01
1.057893707e+00,9.45682e-01,9.99999e-01,9.99999e-01,9.80158e-01,9.64831e-01,9.99992e-01
1.063183176e+00,9.34217e-01,9.99999e-01,9.99999e-01,9.67601e-01,9.65513e-01,9.99982e-01
1.068499092e+00,9.14378e-01,9.99999e-01,9.99999e-01,9.46416e-01,9.66183e-01,9.99962e-01
1.073841587e+00,9.06644e-01,9.99999e-01,9.99999e-01,9.37815e-01,9.66840e-01,9.99918e-01
1.079210795e+00,8.90733e-01,9.99999e-01,9.99999e-01,9.20871e-01,9.67484e-01,9.99779e-01
1.084606849e+00,8.54460e-01,9.99999e-01,9.99999e-01,8.83069e-01,9.68116e-01,9.99469e-01
1.090029883e+00,8.10354e-01,9.99999e-01,9.99999e-01,8.37427e-01,9.68736e-01,9.98900e-01
1.095480033e+00,5.97908e-01,9.99999e-01,9.99999e-01,6.18045e-01,9.69344e-01,9.98012e-01
1.100957433e+00,2.98358e-01,9.99999e-01,9.99999e-01,3.08733e-01,9.69940e-01,9.96344e-01
1.106462220e+00,6.56488e-02,9.99999e-01,9.99999e-01,6.80639e-02,9.70525e-01,9.93807e-01
1.111994531e+00,4.13123e-03,9.99999e-01,9.99999e-01,4.32491e-03,9.71099e-01,9.83645e-01
1.117554504e+00,2.95048e-04,9.99999e-01,9.99999e-01,3.22279e-04,9.71661e-01,9.42204e-01
1.123142276e+00,4.20233e-03,9.99999e-01,9.99999e-01,4.97784e-03,9.72213e-01,8.68334e-01
1.128757988e+00,1.40153e-02,9.99999e-01,9.99999e-01,1.69640e-02,9.72754e-01,8.49318e-01
1.134401778e+00,8.53856e-03,9.99999e-01,9.99999e-01,1.00799e-02,9.73285e-01,8.70338e-01
1.140073787e+00,6.12339e-02,9.99999e-01,9.99999e-01,7.02598e-02,9.73806e-01,8.94976e-01
1.145774156e+00,8.79764e-03,9.99999e-01,9.99999e-01,9.99482e-03,9.74317e-01,9.03422e-01
1.151503026e+00,4.64736e-03,9.99999e-01,9.99999e-01,5.04493e-03,9.74818e-01,9.44990e-01
1.157260541e+00,5.88425e-03,9.99999e-01,9.99999e-01,6.13614e-03,9.75309e-01,9.83224e-01
1.163046844e+00,2.18122e-02,9.99999e-01,9.99999e-01,2.24608e-02,9.75790e-01,9.95216e-01
1.168862078e+00,5.99309e-02,9.99999e-01,9.99999e-01,6.15398e-02,9.76263e-01,9.97532e-01
1.174706389e+00,1.68558e-01,9.99999e-01,9.99999e-01,1.73140e-01,9.76726e-01,9.96730e-01
1.180579921e+00,3.27632e-01,9.99999e-01,9.99999e-01,3.36947e-01,9.77181e-01,9.95060e-01
1.186482820e+00,5.17688e-01,9.99999e-01,9.99999e-01,5.32232e-01,9.77626e-01,9.94930e-01
1.192415234e+00,6.71767e-01,9.99999e-01,9.99999e-01,6.89451e-01,9.78063e-01,9.96201e-01
1.198377311e+00,7.13012e-01,9.99999e-01,9.99999e-01,7.31308e-01,9.78492e-01,9.96411e-01
1.204369197e+00,7.28030e-01,9.99999e-01,9.99999e-01,7.46135e-01,9.78912e-01,9.96752e-01
1.210391043e+00,7.37243e-01,9.99999e-01,9.99999e-01,7.54297e-01,9.79324e-01,9.98023e-01
1.216442998e+00,7.69910e-01,9.99999e-01,9.99999e-01,7.86792e-01,9.79729e-01,9.98788e-01
1.222525213e+00,8.11612e-01,9.99999e-01,9.99999e-01,8.28693e-01,9.80125e-01,9.99247e-01
1.228637839e+00,8.60058e-01,9.99999e-01,9.99999e-01,8.77456e-01,9.80514e-01,9.99649e-01
