#,Wave/freq,Total,N2,O2,H2O,Rayleigh,CIA
4.000000000e-01,4.17949e-01,9.99999e-01,9.99999e-01,9.99901e-01,4.17990e-01,9.99999e-01
4.020000000e-01,4.25236e-01,9.99999e-01,9.99999e-01,9.99938e-01,4.25262e-01,9.99999e-01
4.040100000e-01,4.32494e-01,9.99999e-01,9.99999e-01,9.99973e-01,4.32506e-01,9.99999e-01
4.060300500e-01,4.39723e-01,9.99999e-01,9.99999e-01,9.99993e-01,4.39726e-01,9.99999e-01
4.080602003e-01,4.46919e-01,9.99999e-01,9.99999e-01,9.99997e-01,4.46920e-01,9.99999e-01
4.101005013e-01,4.54086e-01,9.99999e-01,9.99999e-01,9.99999e-01,4.54086e-01,9.99999e-01
4.121510038e-01,4.61221e-01,9.99999e-01,9.99999e-01,9.99995e-01,4.61223e-01,9.99999e-01
4.142117588e-01,4.68314e-01,9.99999e-01,9.99999e-01,9.99972e-01,4.68327e-01,9.99999e-01
4.162828176e-01,4.75340e-01,9.99999e-01,9.99999e-01,9.99877e-01,4.75398e-01,9.99999e-01
4.183642317e-01,4.82397e-01,9.99999e-01,9.99999e-01,9.99927e-01,4.82432e-01,9.99999e-01
4.204560528e-01,4.89406e-01,9.99999e-01,9.99999e-01,9.99955e-01,4.89428e-01,9.99999e-01
4.225583331e-01,4.96376e-01,9.99999e-01,9.99999e-01,9.99983e-01,4.96384e-01,9.99999e-01
4.246711247e-01,5.03293e-01,9.99999e-01,9.99999e-01,9.99986e-01,5.03300e-01,9.99999e-01
4.267944804e-01,5.10162e-01,9.99999e-01,9.99999e-01,9.99980e-01,5.10171e-01,9.99999e-01
4.289284528e-01,5.16991e-01,9.99999e-01,9.99999e-01,9.99984e-01,5.16999e-01,9.99999e-01
4.310730950e-01,5.23777e-01,9.99999e-01,9.99999e-01,9.99993e-01,5.23780e-01,9.99999e-01
4.332284605e-01,5.30512e-01,9.99999e-01,9.99999e-01,9.99997e-01,5.30513e-01,9.99999e-01
4.353946028e-01,5.37197e-01,9.99999e-01,9.99999e-01,9.99998e-01,5.37198e-01,9.99999e-01
4.375715758e-01,5.43825e-01,9.99999e-01,9.99999e-01,9.99987e-01,5.43832e-01,9.99999e-01
4.397594337e-01,5.50355e-01,9.99999e-01,9.99999e-01,9.99891e-01,5.50415e-01,9.99999e-01
4.419582309e-01,5.56637e-01,9.99999e-01,9.99999e-01,9.99447e-01,5.56945e-01,9.99999e-01
4.441680220e-01,5.63183e-01,9.99999e-01,9.99999e-01,9.99578e-01,5.63421e-01,9.99999e-01
4.463888621e-01,5.69591e-01,9.99999e-01,9.99999e-01,9.99558e-01,5.69842e-01,9.99999e-01
4.486208064e-01,5.76050e-01,9.99999e-01,9.99999e-01,9.99726e-01,5.76207e-01,9.99999e-01
4.508639105e-01,5.82442e-01,9.99999e-01,9.99999e-01,9.99871e-01,5.82516e-01,9.99999e-01
4.531182300e-01,5.88738e-01,9.99999e-01,9.99999e-01,9.99949e-01,5.88767e-01,9.99999e-01
4.553838212e-01,5.94940e-01,9.99999e-01,9.99999e-01,9.99965e-01,5.94960e-01,9.99999e-01
4.576607403e-01,6.01085e-01,9.99999e-01,9.99999e-01,9.99983e-01,6.01094e-01,9.99999e-01
4.599490440e-01,6.07161e-01,9.99999e-01,9.99999e-01,9.99988e-01,6.07168e-01,9.99999e-01
4.622487892e-01,6.13180e-01,9.99999e-01,9.99999e-01,9.99997e-01,6.13181e-01,9.99999e-01
4.645600332e-01,6.19129e-01,9.99999e-01,9.99999e-01,9.99991e-01,6.19134e-01,9.99999e-01
4.668828333e-01,6.24943e-01,9.99999e-01,9.99999e-01,9.99868e-01,6.25025e-01,9.99999e-01
4.692172475e-01,6.30680e-01,9.99999e-01,9.99999e-01,9.99722e-01,6.30854e-01,9.99999e-01
4.715633337e-01,6.36505e-01,9.99999e-01,9.99999e-01,9.99818e-01,6.36621e-01,9.99999e-01
4.739211504e-01,6.42214e-01,9.99999e-01,9.99999e-01,9.99827e-01,6.42325e-01,9.99999e-01
4.762907561e-01,6.47908e-01,9.99999e-01,9.99999e-01,9.99910e-01,6.47966e-01,9.99999e-01
4.786722099e-01,6.53519e-01,9.99999e-01,9.99999e-01,9.99963e-01,6.53543e-01,9.99999e-01
4.810655710e-01,6.59050e-01,9.99999e-01,9.99999e-01,9.99988e-01,6.59057e-01,9.99999e-01
4.834708988e-01,6.64435e-01,9.99999e-01,9.99999e-01,9.99891e-01,6.64507e-01,9.99999e-01
4.858882533e-01,6.69763e-01,9.99999e-01,9.99999e-01,9.99804e-01,6.69894e-01,9.99999e-01
4.883176946e-01,6.75105e-01,9.99999e-01,9.99999e-01,9.99835e-01,6.75216e-01,9.99999e-01
4.907592831e-01,6.80373e-01,9.99999e-01,9.99999e-01,9.99851e-01,6.80474e-01,9.99999e-01
4.932130795e-01,6.85596e-01,9.99999e-01,9.99999e-01,9.99894e-01,6.85668e-01,9.99999e-01
4.956791449e-01,6.90760e-01,9.99999e-01,9.99999e-01,9.99944e-01,6.90798e-01,9.99999e-01
4.981575406e-01,6.95669e-01,9.99999e-01,9.99999e-01,9.99719e-01,6.95864e-01,9.99999e-01
5.006483283e-01,7.00351e-01,9.99999e-01,9.99999e-01,9.99270e-01,7.00866e-01,9.99994e-01
5.031515699e-01,7.03194e-01,9.99999e-01,9.99999e-01,9.96339e-01,7.05804e-01,9.99961e-01
5.056673278e-01,7.09278e-01,9.99999e-01,9.99999e-01,9.98073e-01,7.10678e-01,9.99955e-01
5.081956644e-01,7.13732e-01,9.99999e-01,9.99999e-01,9.97570e-01,7.15488e-01,9.99972e-01
5.107366428e-01,7.19052e-01,9.99999e-01,9.99999e-01,9.98360e-01,7.20235e-01,9.99994e-01
5.132903260e-01,7.24241e-01,9.99999e-01,9.99999e-01,9.99064e-01,7.24919e-01,9.99998e-01
5.158567776e-01,7.29253e-01,9.99999e-01,9.99999e-01,9.99605e-01,7.29540e-01,9.99999e-01
5.184360615e-01,7.33983e-01,9.99999e-01,9.99999e-01,9.99841e-01,7.34099e-01,9.99999e-01
5.210282418e-01,7.38551e-01,9.99999e-01,9.99999e-01,9.99940e-01,7.38595e-01,9.99999e-01
5.236333830e-01,7.42850e-01,9.99999e-01,9.99999e-01,9.99761e-01,7.43028e-01,9.99997e-01
5.262515499e-01,7.47287e-01,9.99999e-01,9.99999e-01,9.99850e-01,7.47400e-01,9.99997e-01
5.288828077e-01,7.51607e-01,9.99999e-01,9.99999e-01,9.99862e-01,7.51711e-01,9.99997e-01
5.315272217e-01,7.55870e-01,9.99999e-01,9.99999e-01,9.99880e-01,7.55961e-01,9.99999e-01
5.341848578e-01,7.60090e-01,9.99999e-01,9.99999e-01,9.99920e-01,7.60150e-01,9.99999e-01
5.368557821e-01,7.64065e-01,9.99999e-01,9.99999e-01,9.99720e-01,7.64279e-01,9.99998e-01
5.395400610e-01,7.67562e-01,9.99999e-01,9.99999e-01,9.98985e-01,7.68348e-01,9.99990e-01
5.422377613e-01,7.71343e-01,9.99999e-01,9.99999e-01,9.98709e-01,7.72357e-01,9.99975e-01
5.449489501e-01,7.75351e-01,9.99999e-01,9.99999e-01,9.98790e-01,7.76308e-01,9.99975e-01
5.476736949e-01,7.79363e-01,9.99999e-01,9.99999e-01,9.98937e-01,7.80201e-01,9.99987e-01
5.504120634e-01,7.83428e-01,9.99999e-01,9.99999e-01,9.99228e-01,7.84035e-01,9.99996e-01
5.531641237e-01,7.87506e-01,9.99999e-01,9.99999e-01,9.99611e-01,7.87812e-01,9.99999e-01
5.559299443e-01,7.91384e-01,9.99999e-01,9.99999e-01,9.99812e-01,7.91532e-01,9.99999e-01
5.587095940e-01,7.95102e-01,9.99999e-01,9.99999e-01,9.99881e-01,7.95196e-01,9.99999e-01
5.615031420e-01,7.98698e-01,9.99999e-01,9.99999e-01,9.99868e-01,7.98803e-01,9.99999e-01
5.643106577e-01,8.02234e-01,9.99999e-01,9.99999e-01,9.99848e-01,8.02356e-01,9.99998e-01
5.671322110e-01,8.04357e-01,9.99999e-01,9.99999e-01,9.98158e-01,8.05853e-01,9.99983e-01
5.699678720e-01,8.07715e-01,9.99999e-01,9.99999e-01,9.98094e-01,8.09296e-01,9.99950e-01
5.728177114e-01,8.11022e-01,9.99999e-01,9.99999e-01,9.97992e-01,8.12686e-01,9.99958e-01
5.756818000e-01,8.14503e-01,9.99999e-01,9.99999e-01,9.98162e-01,8.16022e-01,9.99975e-01
5.785602090e-01,8.17991e-01,9.99999e-01,9.99999e-01,9.98401e-01,8.19306e-01,9.99992e-01
5.814530100e-01,8.21211e-01,9.99999e-01,9.99999e-01,9.98390e-01,8.22537e-01,9.99996e-01
5.843602750e-01,8.24114e-01,9.99999e-01,9.99999e-01,9.98067e-01,8.25718e-01,9.99988e-01
5.872820764e-01,8.15082e-01,9.99999e-01,9.99999e-01,9.83506e-01,8.28847e-01,9.99883e-01
5.902184868e-01,8.15184e-01,9.99999e-01,9.99999e-01,9.80185e-01,8.31926e-01,9.99683e-01
5.931695792e-01,8.22966e-01,9.99999e-01,9.99999e-01,9.85940e-01,8.34955e-01,9.99695e-01
5.961354271e-01,8.24902e-01,9.99999e-01,9.99999e-01,9.84617e-01,8.37935e-01,9.99824e-01
5.991161043e-01,8.31376e-01,9.99999e-01,9.99999e-01,9.88766e-01,8.40867e-01,9.99945e-01
6.021116848e-01,8.38362e-01,9.99999e-01,9.99999e-01,9.93618e-01,8.43751e-01,9.99993e-01
6.051222432e-01,8.43851e-01,9.99999e-01,9.99999e-01,9.96767e-01,8.46587e-01,9.99999e-01
6.081478544e-01,8.48190e-01,9.99999e-01,9.99999e-01,9.98603e-01,8.49376e-01,9.99999e-01
6.111885937e-01,8.51618e-01,9.99999e-01,9.99999e-01,9.99410e-01,8.52120e-01,9.99999e-01
6.142445367e-01,8.54592e-01,9.99999e-01,9.99999e-01,9.99735e-01,8.54817e-01,9.99999e-01
6.173157594e-01,8.57345e-01,9.99999e-01,9.99999e-01,9.99854e-01,8.57470e-01,9.99999e-01
6.204023382e-01,8.59972e-01,9.99999e-01,9.99999e-01,9.99875e-01,8.60079e-01,9.99999e-01
6.235043498e-01,8.62165e-01,9.99999e-01,9.99999e-01,9.99446e-01,8.62643e-01,9.99998e-01
6.266218716e-01,8.62655e-01,9.99999e-01,9.99999e-01,9.97118e-01,8.65164e-01,9.99979e-01
6.297549810e-01,8.66691e-01,9.99999e-01,9.99999e-01,9.98942e-01,8.67643e-01,9.99959e-01
6.329037559e-01,8.68239e-01,9.99999e-01,9.99999e-01,9.97916e-01,8.70080e-01,9.99967e-01
6.360682746e-01,8.70903e-01,9.99999e-01,9.99999e-01,9.98217e-01,8.72475e-01,9.99980e-01
6.392486160e-01,8.72806e-01,9.99999e-01,9.99999e-01,9.97695e-01,8.74829e-01,9.99991e-01
6.424448591e-01,8.74404e-01,9.99999e-01,9.99999e-01,9.96891e-01,8.77143e-01,9.99984e-01
6.456570834e-01,8.66730e-01,9.99999e-01,9.99999e-01,9.85658e-01,8.79417e-01,9.99912e-01
6.488853688e-01,8.72290e-01,9.99999e-01,9.99999e-01,9.89600e-01,8.81652e-01,9.99777e-01
6.521297956e-01,8.74326e-01,9.99999e-01,9.99999e-01,9.89407e-01,8.83848e-01,9.99816e-01
6.553904446e-01,8.76486e-01,9.99999e-01,9.99999e-01,9.89389e-01,8.86006e-01,9.99863e-01
6.586673968e-01,8.80050e-01,9.99999e-01,9.99999e-01,9.90950e-01,8.88127e-01,9.99953e-01
6.619607338e-01,8.85704e-01,9.99999e-01,9.99999e-01,9.94946e-01,8.90210e-01,9.99989e-01
6.652705375e-01,8.89545e-01,9.99999e-01,9.99999e-01,9.96964e-01,8.92258e-01,9.99994e-01
6.685968902e-01,8.93115e-01,9.99999e-01,9.99999e-01,9.98710e-01,8.94269e-01,9.99998e-01
6.719398746e-01,8.95660e-01,9.99999e-01,9.99999e-01,9.99346e-01,8.96245e-01,9.99999e-01
6.752995740e-01,8.97877e-01,9.99999e-01,9.99999e-01,9.99654e-01,8.98187e-01,9.99999e-01
6.786760719e-01,8.99628e-01,9.99999e-01,9.99999e-01,9.99482e-01,9.00094e-01,9.99998e-01
6.820694522e-01,9.01161e-01,9.99999e-01,9.99999e-01,9.99110e-01,9.01967e-01,9.99994e-01
6.854797995e-01,9.02771e-01,9.99999e-01,9.99999e-01,9.98863e-01,9.03807e-01,9.99989e-01
6.889071985e-01,9.03069e-01,9.99999e-01,9.99999e-01,9.97213e-01,9.05614e-01,9.99975e-01
6.923517345e-01,8.67232e-01,9.99999e-01,9.99999e-01,9.55948e-01,9.07390e-01,9.99784e-01
6.958134932e-01,8.88113e-01,9.99999e-01,9.99999e-01,9.77343e-01,9.09133e-01,9.99524e-01
6.992925606e-01,8.90394e-01,9.99999e-01,9.99999e-01,9.77965e-01,9.10845e-01,9.99571e-01
7.027890234e-01,8.87665e-01,9.99999e-01,9.99999e-01,9.73072e-01,9.12527e-01,9.99672e-01
7.063029686e-01,8.93256e-01,9.99999e-01,9.99999e-01,9.77271e-01,9.14178e-01,9.99836e-01
7.098344834e-01,8.95729e-01,9.99999e-01,9.99999e-01,9.78176e-01,9.15800e-01,9.99903e-01
7.133836558e-01,8.90397e-01,9.99999e-01,9.99999e-01,9.70758e-01,9.17392e-01,9.99808e-01
7.169505741e-01,7.27075e-01,9.99999e-01,9.99999e-01,7.92388e-01,9.18956e-01,9.98494e-01
7.205353270e-01,8.20254e-01,9.99999e-01,9.99999e-01,8.93474e-01,9.20492e-01,9.97346e-01
7.241380036e-01,7.95146e-01,9.99999e-01,9.99999e-01,8.64395e-01,9.21999e-01,9.97707e-01
7.277586936e-01,8.08345e-01,9.99999e-01,9.99999e-01,8.76968e-01,9.23479e-01,9.98125e-01
7.313974871e-01,8.03823e-01,9.99999e-01,9.99999e-01,8.69824e-01,9.24933e-01,9.99121e-01
7.350544745e-01,8.57831e-01,9.99999e-01,9.99999e-01,9.26306e-01,9.26359e-01,9.99694e-01
7.387297469e-01,8.76725e-01,9.99999e-01,9.99999e-01,9.45122e-01,9.27760e-01,9.99859e-01
7.424233956e-01,9.03831e-01,9.99999e-01,9.99999e-01,9.72789e-01,9.29135e-01,9.99975e-01
7.461355126e-01,9.15028e-01,9.99999e-01,9.99999e-01,9.83392e-01,9.30485e-01,9.99995e-01
7.498661902e-01,9.24593e-01,9.99999e-01,9.99999e-01,9.92255e-01,9.31810e-01,9.99997e-01
7.536155211e-01,9.29548e-01,9.99999e-01,9.99999e-01,9.96182e-01,9.33111e-01,9.99998e-01
7.573835987e-01,9.32551e-01,9.99999e-01,9.99999e-01,9.98034e-01,9.34388e-01,9.99999e-01
7.611705167e-01,9.34498e-01,9.99999e-01,9.99999e-01,9.98777e-01,9.35641e-01,9.99999e-01
7.649763693e-01,9.36153e-01,9.99999e-01,9.99999e-01,9.99232e-01,9.36871e-01,9.99999e-01
7.688012511e-01,9.37577e-01,9.99999e-01,9.99999e-01,9.99464e-01,9.38079e-01,9.99999e-01
7.726452574e-01,9.38850e-01,9.99999e-01,9.99999e-01,9.99559e-01,9.39264e-01,9.99999e-01
7.765084837e-01,9.39834e-01,9.99999e-01,9.99999e-01,9.99369e-01,9.40427e-01,9.99998e-01
7.803910261e-01,9.38999e-01,9.99999e-01,9.99999e-01,9.97272e-01,9.41569e-01,9.99996e-01
7.842929812e-01,9.33729e-01,9.99999e-01,9.99999e-01,9.90511e-01,9.42689e-01,9.99982e-01
7.882144461e-01,9.25453e-01,9.99999e-01,9.99999e-01,9.80702e-01,9.43789e-01,9.99866e-01
7.921555184e-01,9.34666e-01,9.99999e-01,9.99999e-01,9.89431e-01,9.44868e-01,9.99767e-01
7.961162960e-01,9.27929e-01,9.99999e-01,9.99999e-01,9.81189e-01,9.45927e-01,9.99778e-01
8.000968774e-01,9.26294e-01,9.99999e-01,9.99999e-01,9.78399e-01,9.46966e-01,9.99764e-01
8.040973618e-01,9.27318e-01,9.99999e-01,9.99999e-01,9.78372e-01,9.47986e-01,9.99820e-01
8.081178486e-01,9.03072e-01,9.99999e-01,9.99999e-01,9.51789e-01,9.48987e-01,9.99818e-01
8.121584379e-01,7.74495e-01,9.99999e-01,9.99999e-01,8.15844e-01,9.49969e-01,9.99312e-01
8.162192301e-01,7.47341e-01,9.99999e-01,9.99999e-01,7.87937e-01,9.50932e-01,9.97417e-01
8.203003262e-01,8.43819e-01,9.99999e-01,9.99999e-01,8.89165e-01,9.51878e-01,9.96977e-01
8.244018279e-01,8.11414e-01,9.99999e-01,9.99999e-01,8.53658e-01,9.52805e-01,9.97593e-01
8.285238370e-01,8.24019e-01,9.99999e-01,9.99999e-01,8.65645e-01,9.53716e-01,9.98109e-01
8.326664562e-01,8.25218e-01,9.99999e-01,9.99999e-01,8.65133e-01,9.54609e-01,9.99217e-01
8.368297885e-01,8.60856e-01,9.99999e-01,9.99999e-01,9.01122e-01,9.55485e-01,9.99820e-01
8.410139374e-01,8.98801e-01,9.99999e-01,9.99999e-01,9.39927e-01,9.56345e-01,9.99895e-01
8.452190071e-01,9.28485e-01,9.99999e-01,9.99999e-01,9.70073e-01,9.57188e-01,9.99937e-01
8.494451021e-01,9.41158e-01,9.99999e-01,9.99999e-01,9.82452e-01,9.58016e-01,9.99949e-01
8.536923276e-01,9.48848e-01,9.99999e-01,9.99999e-01,9.89620e-01,9.58828e-01,9.99969e-01
8.579607893e-01,9.53455e-01,9.99999e-01,9.99999e-01,9.93577e-01,9.59625e-01,9.99992e-01
8.622505932e-01,9.56492e-01,9.99999e-01,9.99999e-01,9.95925e-01,9.60406e-01,9.99998e-01
8.665618462e-01,9.58739e-01,9.99999e-01,9.99999e-01,9.97468e-01,9.61173e-01,9.99998e-01
8.708946554e-01,9.59130e-01,9.99999e-01,9.99999e-01,9.97095e-01,9.61925e-01,9.99997e-01
8.752491287e-01,9.58924e-01,9.99999e-01,9.99999e-01,9.96119e-01,9.62663e-01,9.99995e-01
8.796253743e-01,9.58186e-01,9.99999e-01,9.99999e-01,9.94612e-01,9.63387e-01,9.99987e-01
8.840235012e-01,9.58137e-01,9.99999e-01,9.99999e-01,9.93854e-01,9.64097e-01,9.99962e-01
8.884436187e-01,9.43003e-01,9.99999e-01,9.99999e-01,9.77518e-01,9.64793e-01,9.99893e-01
8.928858368e-01,7.64407e-01,9.99999e-01,9.99999e-01,7.92226e-01,9.65476e-01,9.99386e-01
8.973502660e-01,6.42229e-01,9.99999e-01,9.99999e-01,6.66825e-01,9.66147e-01,9.96859e-01
9.018370173e-01,7.83643e-01,9.99999e-01,9.99999e-01,8.14567e-01,9.66804e-01,9.95067e-01
9.063462024e-01,8.00861e-01,9.99999e-01,9.99999e-01,8.31409e-01,9.67449e-01,9.95665e-01
9.108779334e-01,7.23985e-01,9.99999e-01,9.99999e-01,7.51238e-01,9.68081e-01,9.95496e-01
9.154323231e-01,6.96508e-01,9.99999e-01,9.99999e-01,7.21699e-01,9.68702e-01,9.96275e-01
9.200094847e-01,7.50699e-01,9.99999e-01,9.99999e-01,7.76085e-01,9.69311e-01,9.97913e-01
9.246095321e-01,6.59318e-01,9.99999e-01,9.99999e-01,6.81411e-01,9.69908e-01,9.97596e-01
9.292325798e-01,9.90288e-02,9.99999e-01,9.99999e-01,1.03232e-01,9.70493e-01,9.88450e-01
9.338787427e-01,4.77012e-02,9.99999e-01,9.99999e-01,5.12289e-02,9.71067e-01,9.58880e-01
9.385481364e-01,2.75723e-01,9.99999e-01,9.99999e-01,2.97171e-01,9.71631e-01,9.54915e-01
9.432408771e-01,1.84981e-01,9.99999e-01,9.99999e-01,1.97999e-01,9.72183e-01,9.60982e-01
9.479570815e-01,9.69484e-02,9.99999e-01,9.99999e-01,1.02948e-01,9.72725e-01,9.68127e-01
9.526968669e-01,1.62535e-01,9.99999e-01,9.99999e-01,1.70334e-01,9.73256e-01,9.80437e-01
9.574603512e-01,1.76984e-01,9.99999e-01,9.99999e-01,1.83583e-01,9.73778e-01,9.90014e-01
9.622476530e-01,2.36452e-01,9.99999e-01,9.99999e-01,2.44382e-01,9.74289e-01,9.93084e-01
9.670588912e-01,4.24708e-01,9.99999e-01,9.99999e-01,4.37763e-01,9.74790e-01,9.95265e-01
9.718941857e-01,5.66645e-01,9.99999e-01,9.99999e-01,5.83039e-01,9.75282e-01,9.96512e-01
9.767536566e-01,6.21063e-01,9.99999e-01,9.99999e-01,6.38189e-01,9.75764e-01,9.97333e-01
9.816374249e-01,6.97818e-01,9.99999e-01,9.99999e-01,7.15464e-01,9.76237e-01,9.99076e-01
9.865456120e-01,7.91388e-01,9.99999e-01,9.99999e-01,8.10421e-01,9.76701e-01,9.99807e-01
9.914783401e-01,8.57572e-01,9.99999e-01,9.99999e-01,8.77666e-01,9.77156e-01,9.99946e-01
9.964357318e-01,9.10503e-01,9.99999e-01,9.99999e-01,9.31391e-01,9.77602e-01,9.99968e-01
1.001417910e+00,9.37189e-01,9.99999e-01,9.99999e-01,9.58277e-01,9.78040e-01,9.99951e-01
1.006425000e+00,9.54858e-01,9.99999e-01,9.99999e-01,9.75935e-01,9.78469e-01,9.99931e-01
1.011457125e+00,9.64180e-01,9.99999e-01,9.99999e-01,9.85034e-01,9.78889e-01,9.99936e-01
1.016514411e+00,9.69272e-01,9.99999e-01,9.99999e-01,9.89801e-01,9.79302e-01,9.99955e-01
1.021596983e+00,9.71689e-01,9.99999e-01,9.99999e-01,9.91859e-01,9.79707e-01,9.99955e-01
1.026704968e+00,9.73846e-01,9.99999e-01,9.99999e-01,9.93642e-01,9.80103e-01,9.99972e-01
1.031838492e+00,9.75960e-01,9.99999e-01,9.99999e-01,9.95385e-01,9.80493e-01,9.99991e-01
1.036997685e+00,9.78177e-01,9.99999e-01,9.99999e-01,9.97251e-01,9.80874e-01,9.99998e-01
1.042182673e+00,9.78021e-01,9.99999e-01,9.99999e-01,9.96711e-01,9.81248e-01,9.99998e-01
1.047393587e+00,9.77344e-01,9.99999e-01,9.99999e-01,9.95648e-01,9.81615e-01,9.99998e-01
1.052630555e+00,9.76108e-01,9.99999e-01,9.99999e-01,9.94025e-01,9.81975e-01,9.99997e-01
1.057893707e+00,9.72533e-01,9.99999e-01,9.99999e-01,9.90031e-01,9.82328e-01,9.99996e-01
1.063183176e+00,9.66619e-01,9.99999e-01,9.99999e-01,9.83670e-01,9.82674e-01,9.99990e-01
1.068499092e+00,9.56312e-01,9.99999e-01,9.99999e-01,9.72855e-01,9.83013e-01,9.99981e-01
1.073841587e+00,9.52136e-01,9.99999e-01,9.99999e-01,9.68299e-01,9.83346e-01,9.99959e-01
1.079210795e+00,9.43872e-01,9.99999e-01,9.99999e-01,9.59644e-01,9.83672e-01,9.99889e-01
1.084606849e+00,9.24249e-01,9.99999e-01,9.99999e-01,9.39532e-01,9.83992e-01,9.99735e-01
1.090029883e+00,8.99239e-01,9.99999e-01,9.99999e-01,9.14077e-01,9.84306e-01,9.99451e-01
1.095480033e+00,7.70782e-01,9.99999e-01,9.99999e-01,7.83602e-01,9.84613e-01,9.99009e-01
1.100957433e+00,5.34926e-01,9.99999e-01,9.99999e-01,5.44110e-01,9.84915e-01,9.98177e-01
1.106462220e+00,2.27782e-01,9.99999e-01,9.99999e-01,2.31917e-01,9.85211e-01,9.96910e-01
1.111994531e+00,5.05278e-02,9.99999e-01,9.99999e-01,5.16940e-02,9.85501e-01,9.91819e-01
1.117554504e+00,1.00297e-02,9.99999e-01,9.99999e-01,1.04806e-02,9.85785e-01,9.70779e-01
1.123142276e+00,4.32646e-02,9.99999e-01,9.99999e-01,4.70727e-02,9.86064e-01,9.32089e-01
1.128757988e+00,1.00161e-01,9.99999e-01,9.99999e-01,1.10155e-01,9.86337e-01,9.21864e-01
1.134401778e+00,4.74578e-02,9.99999e-01,9.99999e-01,5.15475e-02,9.86605e-01,9.33160e-01
1.140073787e+00,2.30700e-01,9.99999e-01,9.99999e-01,2.47055e-01,9.86868e-01,9.46227e-01
1.145774156e+00,6.72467e-02,9.99999e-01,9.99999e-01,7.16590e-02,9.87126e-01,9.50664e-01
1.151503026e+00,5.10224e-02,9.99999e-01,9.99999e-01,5.31517e-02,9.87378e-01,9.72208e-01
1.157260541e+00,6.66709e-02,9.99999e-01,9.99999e-01,6.80774e-02,9.87626e-01,9.91607e-01
1.163046844e+00,1.32823e-01,9.99999e-01,9.99999e-01,1.34775e-01,9.87869e-01,9.97614e-01
1.168862078e+00,2.31710e-01,9.99999e-01,9.99999e-01,2.34787e-01,9.88107e-01,9.98769e-01
1.174706389e+00,4.01032e-01,9.99999e-01,9.99999e-01,4.06425e-01,9.88341e-01,9.98369e-01
1.180579921e+00,5.67188e-01,9.99999e-01,9.99999e-01,5.75162e-01,9.88570e-01,9.97536e-01
1.186482820e+00,7.18681e-01,9.99999e-01,9.99999e-01,7.28667e-01,9.88794e-01,9.97471e-01
1.192415234e+00,8.19802e-01,9.99999e-01,9.99999e-01,8.30480e-01,9.89014e-01,9.98105e-01
1.198377311e+00,8.44237e-01,9.99999e-01,9.99999e-01,8.54964e-01,9.89230e-01,9.98202e-01
1.204369197e+00,8.52481e-01,9.99999e-01,9.99999e-01,8.62928e-01,9.89442e-01,9.98433e-01
1.210391043e+00,8.58323e-01,9.99999e-01,9.99999e-01,8.68154e-01,9.89649e-01,9.99014e-01
1.216442998e+00,8.77372e-01,9.99999e-01,9.99999e-01,8.86900e-01,9.89853e-01,9.99396e-01
1.222525213e+00,9.01089e-01,9.99999e-01,9.99999e-01,9.10484e-01,9.90052e-01,9.99624e-01
1.228637839e+00,9.27575e-01,9.99999e-01,9.99999e-01,9.36872e-01,9.90247e-01,9.99825e-01
