#,Wave/freq,Total,N2,O2,H2O,Rayleigh,CIA
4.000000000e-01,8.63839e-01,9.99999e-01,9.99999e-01,9.99983e-01,8.63853e-01,9.99999e-01
4.020000000e-01,8.66348e-01,9.99999e-01,9.99999e-01,9.99989e-01,8.66357e-01,9.99999e-01
4.040100000e-01,8.68811e-01,9.99999e-01,9.99999e-01,9.99995e-01,8.68815e-01,9.99999e-01
4.060300500e-01,8.71231e-01,9.99999e-01,9.99999e-01,9.99998e-01,8.71232e-01,9.99999e-01
4.080602003e-01,8.73607e-01,9.99999e-01,9.99999e-01,9.99999e-01,8.73607e-01,9.99999e-01
4.101005013e-01,8.75942e-01,9.99999e-01,9.99999e-01,9.99999e-01,8.75942e-01,9.99999e-01
4.121510038e-01,8.78236e-01,9.99999e-01,9.99999e-01,9.99998e-01,8.78237e-01,9.99999e-01
4.142117588e-01,8.80488e-01,9.99999e-01,9.99999e-01,9.99994e-01,8.80492e-01,9.99999e-01
4.162828176e-01,8.82690e-01,9.99999e-01,9.99999e-01,9.99979e-01,8.82708e-01,9.99999e-01
4.183642317e-01,8.84875e-01,9.99999e-01,9.99999e-01,9.99987e-01,8.84886e-01,9.99999e-01
4.204560528e-01,8.87020e-01,9.99999e-01,9.99999e-01,9.99992e-01,8.87026e-01,9.99999e-01
4.225583331e-01,8.89127e-01,9.99999e-01,9.99999e-01,9.99996e-01,8.89129e-01,9.99999e-01
4.246711247e-01,8.91193e-01,9.99999e-01,9.99999e-01,9.99997e-01,8.91195e-01,9.99999e-01
4.267944804e-01,8.93223e-01,9.99999e-01,9.99999e-01,9.99996e-01,8.93225e-01,9.99999e-01
4.289284528e-01,8.95218e-01,9.99999e-01,9.99999e-01,9.99996e-01,8.95220e-01,9.99999e-01
4.310730950e-01,8.97178e-01,9.99999e-01,9.99999e-01,9.99998e-01,8.97179e-01,9.99999e-01
4.332284605e-01,8.99104e-01,9.99999e-01,9.99999e-01,9.99999e-01,8.99104e-01,9.99999e-01
4.353946028e-01,9.00995e-01,9.99999e-01,9.99999e-01,9.99999e-01,9.00995e-01,9.99999e-01
4.375715758e-01,9.02850e-01,9.99999e-01,9.99999e-01,9.99997e-01,9.02852e-01,9.99999e-01
4.397594337e-01,9.04660e-01,9.99999e-01,9.99999e-01,9.99981e-01,9.04677e-01,9.99999e-01
4.419582309e-01,9.06385e-01,9.99999e-01,9.99999e-01,9.99907e-01,9.06468e-01,9.99999e-01
4.441680220e-01,9.08164e-01,9.99999e-01,9.99999e-01,9.99928e-01,9.08228e-01,9.99999e-01
4.463888621e-01,9.09889e-01,9.99999e-01,9.99999e-01,9.99925e-01,9.09957e-01,9.99999e-01
4.486208064e-01,9.11613e-01,9.99999e-01,9.99999e-01,9.99953e-01,9.11654e-01,9.99999e-01
4.508639105e-01,9.13302e-01,9.99999e-01,9.99999e-01,9.99978e-01,9.13322e-01,9.99999e-01
4.531182300e-01,9.14951e-01,9.99999e-01,9.99999e-01,9.99991e-01,9.14959e-01,9.99999e-01
4.553838212e-01,9.16561e-01,9.99999e-01,9.99999e-01,9.99993e-01,9.16566e-01,9.99999e-01
4.576607403e-01,9.18142e-01,9.99999e-01,9.99999e-01,9.99996e-01,9.18145e-01,9.99999e-01
4.599490440e-01,9.19693e-01,9.99999e-01,9.99999e-01,9.99997e-01,9.19695e-01,9.99999e-01
4.622487892e-01,9.21217e-01,9.99999e-01,9.99999e-01,9.99999e-01,9.21217e-01,9.99999e-01
4.645600332e-01,9.22710e-01,9.99999e-01,9.99999e-01,9.99998e-01,9.22711e-01,9.99999e-01
4.668828333e-01,9.24158e-01,9.99999e-01,9.99999e-01,9.99977e-01,9.24179e-01,9.99999e-01
4.692172475e-01,9.25576e-01,9.99999e-01,9.99999e-01,9.99953e-01,9.25619e-01,9.99999e-01
4.715633337e-01,9.27005e-01,9.99999e-01,9.99999e-01,9.99969e-01,9.27033e-01,9.99999e-01
4.739211504e-01,9.28395e-01,9.99999e-01,9.99999e-01,9.99970e-01,9.28422e-01,9.99999e-01
4.762907561e-01,9.29771e-01,9.99999e-01,9.99999e-01,9.99984e-01,9.29785e-01,9.99999e-01
4.786722099e-01,9.31117e-01,9.99999e-01,9.99999e-01,9.99993e-01,9.31123e-01,9.99999e-01
4.810655710e-01,9.32434e-01,9.99999e-01,9.99999e-01,9.99997e-01,9.32436e-01,9.99999e-01
4.834708988e-01,9.33708e-01,9.99999e-01,9.99999e-01,9.99981e-01,9.33725e-01,9.99999e-01
4.858882533e-01,9.34960e-01,9.99999e-01,9.99999e-01,9.99966e-01,9.34991e-01,9.99999e-01
4.883176946e-01,9.36207e-01,9.99999e-01,9.99999e-01,9.99971e-01,9.36233e-01,9.99999e-01
4.907592831e-01,9.37429e-01,9.99999e-01,9.99999e-01,9.99974e-01,9.37452e-01,9.99999e-01
4.932130795e-01,9.38633e-01,9.99999e-01,9.99999e-01,9.99981e-01,9.38649e-01,9.99999e-01
4.956791449e-01,9.39815e-01,9.99999e-01,9.99999e-01,9.99990e-01,9.39824e-01,9.99999e-01
4.981575406e-01,9.40932e-01,9.99999e-01,9.99999e-01,9.99952e-01,9.40977e-01,9.99999e-01
5.006483283e-01,9.41992e-01,9.99999e-01,9.99999e-01,9.99877e-01,9.42108e-01,9.99998e-01
5.031515699e-01,9.42632e-01,9.99999e-01,9.99999e-01,9.99384e-01,9.43218e-01,9.99993e-01
5.056673278e-01,9.43996e-01,9.99999e-01,9.99999e-01,9.99675e-01,9.44308e-01,9.99992e-01
5.081956644e-01,9.44987e-01,9.99999e-01,9.99999e-01,9.99591e-01,9.45378e-01,9.99995e-01
5.107366428e-01,9.46166e-01,9.99999e-01,9.99999e-01,9.99724e-01,9.46427e-01,9.99998e-01
5.132903260e-01,9.47308e-01,9.99999e-01,9.99999e-01,9.99842e-01,9.47457e-01,9.99999e-01
5.158567776e-01,9.48405e-01,9.99999e-01,9.99999e-01,9.99933e-01,9.48467e-01,9.99999e-01
5.184360615e-01,9.49434e-01,9.99999e-01,9.99999e-01,9.99972e-01,9.49459e-01,9.99999e-01
5.210282418e-01,9.50423e-01,9.99999e-01,9.99999e-01,9.99989e-01,9.50432e-01,9.99999e-01
5.236333830e-01,9.51349e-01,9.99999e-01,9.99999e-01,9.99959e-01,9.51387e-01,9.99999e-01
5.262515499e-01,9.52300e-01,9.99999e-01,9.99999e-01,9.99974e-01,9.52324e-01,9.99999e-01
5.288828077e-01,9.53221e-01,9.99999e-01,9.99999e-01,9.99976e-01,9.53243e-01,9.99999e-01
5.315272217e-01,9.54126e-01,9.99999e-01,9.99999e-01,9.99979e-01,9.54145e-01,9.99999e-01
5.341848578e-01,9.55018e-01,9.99999e-01,9.99999e-01,9.99986e-01,9.55031e-01,9.99999e-01
5.368557821e-01,9.55854e-01,9.99999e-01,9.99999e-01,9.99952e-01,9.55899e-01,9.99999e-01
5.395400610e-01,9.56587e-01,9.99999e-01,9.99999e-01,9.99829e-01,9.56751e-01,9.99997e-01
5.422377613e-01,9.57375e-01,9.99999e-01,9.99999e-01,9.99782e-01,9.57587e-01,9.99995e-01
5.449489501e-01,9.58209e-01,9.99999e-01,9.99999e-01,9.99796e-01,9.58407e-01,9.99995e-01
5.476736949e-01,9.59038e-01,9.99999e-01,9.99999e-01,9.99821e-01,9.59211e-01,9.99997e-01
5.504120634e-01,9.59876e-01,9.99999e-01,9.99999e-01,9.99869e-01,9.60001e-01,9.99998e-01
5.531641237e-01,9.60712e-01,9.99999e-01,9.99999e-01,9.99934e-01,9.60775e-01,9.99999e-01
5.559299443e-01,9.61505e-01,9.99999e-01,9.99999e-01,9.99968e-01,9.61535e-01,9.99999e-01
5.587095940e-01,9.62261e-01,9.99999e-01,9.99999e-01,9.99979e-01,9.62280e-01,9.99999e-01
5.615031420e-01,9.62990e-01,9.99999e-01,9.99999e-01,9.99977e-01,9.63011e-01,9.99999e-01
5.643106577e-01,9.63704e-01,9.99999e-01,9.99999e-01,9.99974e-01,9.63728e-01,9.99999e-01
5.671322110e-01,9.64132e-01,9.99999e-01,9.99999e-01,9.99691e-01,9.64432e-01,9.99996e-01
5.699678720e-01,9.64804e-01,9.99999e-01,9.99999e-01,9.99678e-01,9.65122e-01,9.99991e-01
5.728177114e-01,9.65467e-01,9.99999e-01,9.99999e-01,9.99662e-01,9.65799e-01,9.99992e-01
5.756818000e-01,9.66161e-01,9.99999e-01,9.99999e-01,9.99690e-01,9.66463e-01,9.99995e-01
5.785602090e-01,9.66854e-01,9.99999e-01,9.99999e-01,9.99730e-01,9.67114e-01,9.99998e-01
5.814530100e-01,9.67491e-01,9.99999e-01,9.99999e-01,9.99729e-01,9.67753e-01,9.99998e-01
5.843602750e-01,9.68065e-01,9.99999e-01,9.99999e-01,9.99675e-01,9.68380e-01,9.99997e-01
5.872820764e-01,9.66272e-01,9.99999e-01,9.99999e-01,9.97209e-01,9.68995e-01,9.99980e-01
5.902184868e-01,9.66292e-01,9.99999e-01,9.99999e-01,9.96642e-01,9.69598e-01,9.99946e-01
5.931695792e-01,9.67833e-01,9.99999e-01,9.99999e-01,9.97621e-01,9.70189e-01,9.99948e-01
5.961354271e-01,9.68215e-01,9.99999e-01,9.99999e-01,9.97397e-01,9.70769e-01,9.99970e-01
5.991161043e-01,9.69488e-01,9.99999e-01,9.99999e-01,9.98103e-01,9.71338e-01,9.99990e-01
6.021116848e-01,9.70851e-01,9.99999e-01,9.99999e-01,9.98924e-01,9.71897e-01,9.99998e-01
6.051222432e-01,9.71915e-01,9.99999e-01,9.99999e-01,9.99455e-01,9.72444e-01,9.99999e-01
6.081478544e-01,9.72752e-01,9.99999e-01,9.99999e-01,9.99764e-01,9.72981e-01,9.99999e-01
6.111885937e-01,9.73411e-01,9.99999e-01,9.99999e-01,9.99900e-01,9.73507e-01,9.99999e-01
6.142445367e-01,9.73981e-01,9.99999e-01,9.99999e-01,9.99955e-01,9.74024e-01,9.99999e-01
6.173157594e-01,9.74506e-01,9.99999e-01,9.99999e-01,9.99975e-01,9.74530e-01,9.99999e-01
6.204023382e-01,9.75007e-01,9.99999e-01,9.99999e-01,9.99978e-01,9.75027e-01,9.99999e-01
6.235043498e-01,9.75424e-01,9.99999e-01,9.99999e-01,9.99907e-01,9.75514e-01,9.99999e-01
6.266218716e-01,9.75516e-01,9.99999e-01,9.99999e-01,9.99515e-01,9.75992e-01,9.99996e-01
6.297549810e-01,9.76281e-01,9.99999e-01,9.99999e-01,9.99822e-01,9.76461e-01,9.99992e-01
6.329037559e-01,9.76573e-01,9.99999e-01,9.99999e-01,9.99649e-01,9.76920e-01,9.99994e-01
6.360682746e-01,9.77075e-01,9.99999e-01,9.99999e-01,9.99700e-01,9.77371e-01,9.99996e-01
6.392486160e-01,9.77433e-01,9.99999e-01,9.99999e-01,9.99612e-01,9.77813e-01,9.99998e-01
6.424448591e-01,9.77734e-01,9.99999e-01,9.99999e-01,9.99478e-01,9.78246e-01,9.99996e-01
6.456570834e-01,9.76290e-01,9.99999e-01,9.99999e-01,9.97580e-01,9.78671e-01,9.99984e-01
6.488853688e-01,9.77331e-01,9.99999e-01,9.99999e-01,9.98242e-01,9.79088e-01,9.99962e-01
6.521297956e-01,9.77712e-01,9.99999e-01,9.99999e-01,9.98208e-01,9.79497e-01,9.99968e-01
6.553904446e-01,9.78123e-01,9.99999e-01,9.99999e-01,9.98211e-01,9.79898e-01,9.99976e-01
6.586673968e-01,9.78786e-01,9.99999e-01,9.99999e-01,9.98472e-01,9.80291e-01,9.99991e-01
6.619607338e-01,9.79840e-01,9.99999e-01,9.99999e-01,9.99148e-01,9.80676e-01,9.99997e-01
6.652705375e-01,9.80553e-01,9.99999e-01,9.99999e-01,9.99489e-01,9.81054e-01,9.99998e-01
6.685968902e-01,9.81212e-01,9.99999e-01,9.99999e-01,9.99782e-01,9.81425e-01,9.99999e-01
6.719398746e-01,9.81681e-01,9.99999e-01,9.99999e-01,9.99889e-01,9.81789e-01,9.99999e-01
6.752995740e-01,9.82088e-01,9.99999e-01,9.99999e-01,9.99941e-01,9.82145e-01,9.99999e-01
6.786760719e-01,9.82409e-01,9.99999e-01,9.99999e-01,9.99912e-01,9.82495e-01,9.99999e-01
6.820694522e-01,9.82691e-01,9.99999e-01,9.99999e-01,9.99851e-01,9.82837e-01,9.99998e-01
6.854797995e-01,9.82984e-01,9.99999e-01,9.99999e-01,9.99808e-01,9.83173e-01,9.99997e-01
6.889071985e-01,9.83040e-01,9.99999e-01,9.99999e-01,9.99532e-01,9.83503e-01,9.99995e-01
6.923517345e-01,9.76362e-01,9.99999e-01,9.99999e-01,9.92448e-01,9.83826e-01,9.99963e-01
6.958134932e-01,9.80254e-01,9.99999e-01,9.99999e-01,9.96126e-01,9.84143e-01,9.99919e-01
6.992925606e-01,9.80707e-01,9.99999e-01,9.99999e-01,9.96265e-01,9.84454e-01,9.99927e-01
7.027890234e-01,9.80193e-01,9.99999e-01,9.99999e-01,9.95417e-01,9.84759e-01,9.99944e-01
7.063029686e-01,9.81233e-01,9.99999e-01,9.99999e-01,9.96144e-01,9.85057e-01,9.99972e-01
7.098344834e-01,9.81690e-01,9.99999e-01,9.99999e-01,9.96300e-01,9.85350e-01,9.99983e-01
7.133836558e-01,9.80703e-01,9.99999e-01,9.99999e-01,9.95025e-01,9.85638e-01,9.99967e-01
7.169505741e-01,9.46955e-01,9.99999e-01,9.99999e-01,9.60721e-01,9.85919e-01,9.99746e-01
7.205353270e-01,9.66892e-01,9.99999e-01,9.99999e-01,9.80863e-01,9.86195e-01,9.99553e-01
7.241380036e-01,9.61906e-01,9.99999e-01,9.99999e-01,9.75477e-01,9.86466e-01,9.99614e-01
7.277586936e-01,9.64582e-01,9.99999e-01,9.99999e-01,9.77860e-01,9.86732e-01,9.99684e-01
7.313974871e-01,9.63754e-01,9.99999e-01,9.99999e-01,9.76599e-01,9.86992e-01,9.99852e-01
7.350544745e-01,9.74505e-01,9.99999e-01,9.99999e-01,9.87142e-01,9.87247e-01,9.99948e-01
7.387297469e-01,9.78127e-01,9.99999e-01,9.99999e-01,9.90533e-01,9.87498e-01,9.99976e-01
7.424233956e-01,9.83164e-01,9.99999e-01,9.99999e-01,9.95367e-01,9.87743e-01,9.99995e-01
7.461355126e-01,9.85205e-01,9.99999e-01,9.99999e-01,9.97187e-01,9.87984e-01,9.99998e-01
7.498661902e-01,9.86928e-01,9.99999e-01,9.99999e-01,9.98692e-01,9.88220e-01,9.99999e-01
7.536155211e-01,9.87816e-01,9.99999e-01,9.99999e-01,9.99357e-01,9.88451e-01,9.99999e-01
7.573835987e-01,9.88351e-01,9.99999e-01,9.99999e-01,9.99668e-01,9.88678e-01,9.99999e-01
7.611705167e-01,9.88697e-01,9.99999e-01,9.99999e-01,9.99794e-01,9.88900e-01,9.99999e-01
7.649763693e-01,9.88991e-01,9.99999e-01,9.99999e-01,9.99870e-01,9.89118e-01,9.99999e-01
7.688012511e-01,9.89243e-01,9.99999e-01,9.99999e-01,9.99909e-01,9.89332e-01,9.99999e-01
7.726452574e-01,9.89468e-01,9.99999e-01,9.99999e-01,9.99925e-01,9.89542e-01,9.99999e-01
7.765084837e-01,9.89642e-01,9.99999e-01,9.99999e-01,9.99893e-01,9.89747e-01,9.99999e-01
7.803910261e-01,9.89495e-01,9.99999e-01,9.99999e-01,9.99542e-01,9.89949e-01,9.99999e-01
7.842929812e-01,9.88562e-01,9.99999e-01,9.99999e-01,9.98402e-01,9.90146e-01,9.99996e-01
7.882144461e-01,9.87082e-01,9.99999e-01,9.99999e-01,9.96731e-01,9.90340e-01,9.99977e-01
7.921555184e-01,9.88722e-01,9.99999e-01,9.99999e-01,9.98213e-01,9.90530e-01,9.99960e-01
7.961162960e-01,9.87527e-01,9.99999e-01,9.99999e-01,9.96817e-01,9.90716e-01,9.99962e-01
8.000968774e-01,9.87234e-01,9.99999e-01,9.99999e-01,9.96340e-01,9.90898e-01,9.99960e-01
8.040973618e-01,9.87417e-01,9.99999e-01,9.99999e-01,9.96335e-01,9.91077e-01,9.99969e-01
8.081178486e-01,9.83010e-01,9.99999e-01,9.99999e-01,9.91714e-01,9.91253e-01,9.99969e-01
8.121584379e-01,9.57501e-01,9.99999e-01,9.99999e-01,9.65894e-01,9.91425e-01,9.99884e-01
8.162192301e-01,9.51422e-01,9.99999e-01,9.99999e-01,9.59904e-01,9.91593e-01,9.99565e-01
8.203003262e-01,9.70944e-01,9.99999e-01,9.99999e-01,9.79508e-01,9.91759e-01,9.99491e-01
8.244018279e-01,9.63720e-01,9.99999e-01,9.99999e-01,9.71961e-01,9.91921e-01,9.99595e-01
8.285238370e-01,9.67760e-01,9.99999e-01,9.99999e-01,9.75795e-01,9.92080e-01,9.99682e-01
8.326664562e-01,9.67900e-01,9.99999e-01,9.99999e-01,9.75601e-01,9.92236e-01,9.99868e-01
8.368297885e-01,9.75048e-01,9.99999e-01,9.99999e-01,9.82555e-01,9.92388e-01,9.99969e-01
8.410139374e-01,9.82207e-01,9.99999e-01,9.99999e-01,9.89608e-01,9.92538e-01,9.99981e-01
8.452190071e-01,9.87611e-01,9.99999e-01,9.99999e-01,9.94898e-01,9.92685e-01,9.99989e-01
8.494451021e-01,9.89873e-01,9.99999e-01,9.99999e-01,9.97030e-01,9.92829e-01,9.99991e-01
8.536923276e-01,9.91225e-01,9.99999e-01,9.99999e-01,9.98247e-01,9.92970e-01,9.99994e-01
8.579607893e-01,9.92033e-01,9.99999e-01,9.99999e-01,9.98918e-01,9.93108e-01,9.99998e-01
8.622505932e-01,9.92563e-01,9.99999e-01,9.99999e-01,9.99313e-01,9.93244e-01,9.99999e-01
8.665618462e-01,9.92954e-01,9.99999e-01,9.99999e-01,9.99574e-01,9.93377e-01,9.99999e-01
8.708946554e-01,9.93023e-01,9.99999e-01,9.99999e-01,9.99511e-01,9.93507e-01,9.99999e-01
8.752491287e-01,9.92987e-01,9.99999e-01,9.99999e-01,9.99347e-01,9.93635e-01,9.99998e-01
8.796253743e-01,9.92859e-01,9.99999e-01,9.99999e-01,9.99094e-01,9.93761e-01,9.99997e-01
8.840235012e-01,9.92850e-01,9.99999e-01,9.99999e-01,9.98966e-01,9.93883e-01,9.99993e-01
8.884436187e-01,9.90189e-01,9.99999e-01,9.99999e-01,9.96179e-01,9.94004e-01,9.99981e-01
8.928858368e-01,9.54976e-01,9.99999e-01,9.99999e-01,9.60720e-01,9.94122e-01,9.99896e-01
8.973502660e-01,9.26091e-01,9.99999e-01,9.99999e-01,9.31949e-01,9.94238e-01,9.99471e-01
9.018370173e-01,9.58608e-01,9.99999e-01,9.99999e-01,9.64854e-01,9.94351e-01,9.99169e-01
9.063462024e-01,9.62603e-01,9.99999e-01,9.99999e-01,9.68668e-01,9.94462e-01,9.99270e-01
9.108779334e-01,9.45853e-01,9.99999e-01,9.99999e-01,9.51735e-01,9.94571e-01,9.99242e-01
9.154323231e-01,9.39840e-01,9.99999e-01,9.99999e-01,9.45459e-01,9.94678e-01,9.99373e-01
9.200094847e-01,9.51761e-01,9.99999e-01,9.99999e-01,9.57087e-01,9.94783e-01,9.99649e-01
9.246095321e-01,9.27253e-01,9.99999e-01,9.99999e-01,9.32394e-01,9.94886e-01,9.99595e-01
9.292325798e-01,6.23922e-01,9.99999e-01,9.99999e-01,6.28288e-01,9.94987e-01,9.98051e-01
9.338787427e-01,5.44445e-01,9.99999e-01,9.99999e-01,5.51003e-01,9.95085e-01,9.92976e-01
9.385481364e-01,7.76908e-01,9.99999e-01,9.99999e-01,7.86736e-01,9.95182e-01,9.92286e-01
9.432408771e-01,7.05696e-01,9.99999e-01,9.99999e-01,7.13797e-01,9.95277e-01,9.93341e-01
9.479570815e-01,6.21288e-01,9.99999e-01,9.99999e-01,6.27579e-01,9.95370e-01,9.94577e-01
9.526968669e-01,7.01809e-01,9.99999e-01,9.99999e-01,7.07350e-01,9.95461e-01,9.96688e-01
9.574603512e-01,7.23432e-01,9.99999e-01,9.99999e-01,7.27890e-01,9.95551e-01,9.98316e-01
9.622476530e-01,7.68624e-01,9.99999e-01,9.99999e-01,7.72890e-01,9.95639e-01,9.98835e-01
9.670588912e-01,8.57576e-01,9.99999e-01,9.99999e-01,8.61944e-01,9.95724e-01,9.99203e-01
9.718941857e-01,9.07007e-01,9.99999e-01,9.99999e-01,9.11358e-01,9.95809e-01,9.99413e-01
9.767536566e-01,9.21622e-01,9.99999e-01,9.99999e-01,9.25838e-01,9.95891e-01,9.99551e-01
9.816374249e-01,9.40675e-01,9.99999e-01,9.99999e-01,9.44624e-01,9.95972e-01,9.99844e-01
9.865456120e-01,9.61216e-01,9.99999e-01,9.99999e-01,9.65057e-01,9.96052e-01,9.99967e-01
9.914783401e-01,9.74460e-01,9.99999e-01,9.99999e-01,9.78254e-01,9.96130e-01,9.99990e-01
9.964357318e-01,9.84350e-01,9.99999e-01,9.99999e-01,9.88104e-01,9.96206e-01,9.99994e-01
1.001417910e+00,9.89157e-01,9.99999e-01,9.99999e-01,9.92856e-01,9.96281e-01,9.99991e-01
1.006425000e+00,9.92275e-01,9.99999e-01,9.99999e-01,9.95916e-01,9.96354e-01,9.99988e-01
1.011457125e+00,9.93894e-01,9.99999e-01,9.99999e-01,9.97468e-01,9.96426e-01,9.99988e-01
1.016514411e+00,9.94775e-01,9.99999e-01,9.99999e-01,9.98279e-01,9.96496e-01,9.99992e-01
1.021596983e+00,9.95191e-01,9.99999e-01,9.99999e-01,9.98627e-01,9.96565e-01,9.99992e-01
1.026704968e+00,9.95562e-01,9.99999e-01,9.99999e-01,9.98929e-01,9.96633e-01,9.99994e-01
1.031838492e+00,9.95924e-01,9.99999e-01,9.99999e-01,9.99222e-01,9.96699e-01,9.99998e-01
1.036997685e+00,9.96304e-01,9.99999e-01,9.99999e-01,9.99537e-01,9.96764e-01,9.99999e-01
1.042182673e+00,9.96278e-01,9.99999e-01,9.99999e-01,9.99447e-01,9.96828e-01,9.99999e-01
1.047393587e+00,9.96161e-01,9.99999e-01,9.99999e-01,9.99268e-01,9.96891e-01,9.99999e-01
1.052630555e+00,9.95950e-01,9.99999e-01,9.99999e-01,9.98994e-01,9.96952e-01,9.99999e-01
1.057893707e+00,9.95338e-01,9.99999e-01,9.99999e-01,9.98320e-01,9.97012e-01,9.99998e-01
1.063183176e+00,9.94317e-01,9.99999e-01,9.99999e-01,9.97238e-01,9.97071e-01,9.99998e-01
1.068499092e+00,9.92524e-01,9.99999e-01,9.99999e-01,9.95384e-01,9.97129e-01,9.99996e-01
1.073841587e+00,9.91786e-01,9.99999e-01,9.99999e-01,9.94591e-01,9.97185e-01,9.99992e-01
1.079210795e+00,9.90333e-01,9.99999e-01,9.99999e-01,9.93090e-01,9.97241e-01,9.99981e-01
1.084606849e+00,9.86823e-01,9.99999e-01,9.99999e-01,9.89542e-01,9.97295e-01,9.99955e-01
1.090029883e+00,9.82239e-01,9.99999e-01,9.99999e-01,9.84939e-01,9.97349e-01,9.99907e-01
1.095480033e+00,9.56890e-01,9.99999e-01,9.99999e-01,9.59542e-01,9.97401e-01,9.99833e-01
1.100957433e+00,8.97733e-01,9.99999e-01,9.99999e-01,9.00301e-01,9.97452e-01,9.99693e-01
1.106462220e+00,7.62797e-01,9.99999e-01,9.99999e-01,7.65103e-01,9.97502e-01,9.99480e-01
1.111994531e+00,5.68541e-01,9.99999e-01,9.99999e-01,5.70722e-01,9.97552e-01,9.98621e-01
1.117554504e+00,4.00876e-01,9.99999e-01,9.99999e-01,4.03845e-01,9.97600e-01,9.95034e-01
1.123142276e+00,5.07037e-01,9.99999e-01,9.99999e-01,5.14267e-01,9.97647e-01,9.88264e-01
1.128757988e+00,6.41920e-01,9.99999e-01,9.99999e-01,6.52250e-01,9.97694e-01,9.86436e-01
1.134401778e+00,3.88403e-01,9.99999e-01,9.99999e-01,3.93829e-01,9.97739e-01,9.88455e-01
1.140073787e+00,7.66071e-01,9.99999e-01,9.99999e-01,7.74928e-01,9.97784e-01,9.90765e-01
1.145774156e+00,5.82025e-01,9.99999e-01,9.99999e-01,5.88266e-01,9.97828e-01,9.91543e-01
1.151503026e+00,5.49529e-01,9.99999e-01,9.99999e-01,5.53312e-01,9.97870e-01,9.95279e-01
1.157260541e+00,6.08679e-01,9.99999e-01,9.99999e-01,6.10815e-01,9.97912e-01,9.98586e-01
1.163046844e+00,6.93414e-01,9.99999e-01,9.99999e-01,6.95114e-01,9.97954e-01,9.99598e-01
1.168862078e+00,7.75196e-01,9.99999e-01,9.99999e-01,7.76914e-01,9.97994e-01,9.99793e-01
1.174706389e+00,8.53816e-01,9.99999e-01,9.99999e-01,8.55732e-01,9.98033e-01,9.99725e-01
1.180579921e+00,9.07409e-01,9.99999e-01,9.99999e-01,9.09538e-01,9.98072e-01,9.99585e-01
1.186482820e+00,9.45634e-01,9.99999e-01,9.99999e-01,9.47826e-01,9.98110e-01,9.99574e-01
1.192415234e+00,9.67103e-01,9.99999e-01,9.99999e-01,9.69205e-01,9.98148e-01,9.99681e-01
1.198377311e+00,9.71887e-01,9.99999e-01,9.99999e-01,9.73947e-01,9.98184e-01,9.99699e-01
1.204369197e+00,9.73340e-01,9.99999e-01,9.99999e-01,9.75340e-01,9.98220e-01,9.99727e-01
1.210391043e+00,9.74549e-01,9.99999e-01,9.99999e-01,9.76413e-01,9.98255e-01,9.99834e-01
1.216442998e+00,9.78157e-01,9.99999e-01,9.99999e-01,9.79931e-01,9.98289e-01,9.99898e-01
1.222525213e+00,9.82624e-01,9.99999e-01,9.99999e-01,9.84336e-01,9.98323e-01,9.99936e-01
1.228637839e+00,9.87440e-01,9.99999e-01,9.99999e-01,9.89094e-01,9.98356e-01,9.99970e-01
