#,Wave/freq,Total,N2,O2,H2O,Rayleigh,CIA
4.000000000e-01,7.07942e-01,9.99999e-01,9.99999e-01,9.99960e-01,7.07970e-01,9.99999e-01
4.020000000e-01,7.12804e-01,9.99999e-01,9.99999e-01,9.99975e-01,7.12821e-01,9.99999e-01
4.040100000e-01,7.17596e-01,9.99999e-01,9.99999e-01,9.99989e-01,7.17603e-01,9.99999e-01
4.060300500e-01,7.22320e-01,9.99999e-01,9.99999e-01,9.99997e-01,7.22322e-01,9.99999e-01
4.080602003e-01,7.26978e-01,9.99999e-01,9.99999e-01,9.99998e-01,7.26978e-01,9.99999e-01
4.101005013e-01,7.31571e-01,9.99999e-01,9.99999e-01,9.99999e-01,7.31571e-01,9.99999e-01
4.121510038e-01,7.36101e-01,9.99999e-01,9.99999e-01,9.99998e-01,7.36102e-01,9.99999e-01
4.142117588e-01,7.40562e-01,9.99999e-01,9.99999e-01,9.99988e-01,7.40570e-01,9.99999e-01
4.162828176e-01,7.44941e-01,9.99999e-01,9.99999e-01,9.99951e-01,7.44976e-01,9.99999e-01
4.183642317e-01,7.49300e-01,9.99999e-01,9.99999e-01,9.99970e-01,7.49321e-01,9.99999e-01
4.204560528e-01,7.53592e-01,9.99999e-01,9.99999e-01,9.99982e-01,7.53605e-01,9.99999e-01
4.225583331e-01,7.57823e-01,9.99999e-01,9.99999e-01,9.99993e-01,7.57827e-01,9.99999e-01
4.246711247e-01,7.61986e-01,9.99999e-01,9.99999e-01,9.99994e-01,7.61990e-01,9.99999e-01
4.267944804e-01,7.66086e-01,9.99999e-01,9.99999e-01,9.99991e-01,7.66092e-01,9.99999e-01
4.289284528e-01,7.70130e-01,9.99999e-01,9.99999e-01,9.99993e-01,7.70135e-01,9.99999e-01
4.310730950e-01,7.74116e-01,9.99999e-01,9.99999e-01,9.99996e-01,7.74118e-01,9.99999e-01
4.332284605e-01,7.78042e-01,9.99999e-01,9.99999e-01,9.99998e-01,7.78043e-01,9.99999e-01
4.353946028e-01,7.81909e-01,9.99999e-01,9.99999e-01,9.99999e-01,7.81909e-01,9.99999e-01
4.375715758e-01,7.85715e-01,9.99999e-01,9.99999e-01,9.99994e-01,7.85718e-01,9.99999e-01
4.397594337e-01,7.89436e-01,9.99999e-01,9.99999e-01,9.99956e-01,7.89470e-01,9.99999e-01
4.419582309e-01,7.92992e-01,9.99999e-01,9.99999e-01,9.99781e-01,7.93165e-01,9.99999e-01
4.441680220e-01,7.96671e-01,9.99999e-01,9.99999e-01,9.99832e-01,7.96804e-01,9.99999e-01
4.463888621e-01,8.00247e-01,9.99999e-01,9.99999e-01,9.99824e-01,8.00387e-01,9.99999e-01
4.486208064e-01,8.03828e-01,9.99999e-01,9.99999e-01,9.99891e-01,8.03915e-01,9.99999e-01
4.508639105e-01,8.07347e-01,9.99999e-01,9.99999e-01,9.99948e-01,8.07388e-01,9.99999e-01
4.531182300e-01,8.10791e-01,9.99999e-01,9.99999e-01,9.99979e-01,8.10807e-01,9.99999e-01
4.553838212e-01,8.14162e-01,9.99999e-01,9.99999e-01,9.99985e-01,8.14173e-01,9.99999e-01
4.576607403e-01,8.17481e-01,9.99999e-01,9.99999e-01,9.99993e-01,8.17486e-01,9.99999e-01
4.599490440e-01,8.20743e-01,9.99999e-01,9.99999e-01,9.99995e-01,8.20746e-01,9.99999e-01
4.622487892e-01,8.23954e-01,9.99999e-01,9.99999e-01,9.99998e-01,8.23955e-01,9.99999e-01
4.645600332e-01,8.27110e-01,9.99999e-01,9.99999e-01,9.99996e-01,8.27113e-01,9.99999e-01
4.668828333e-01,8.30177e-01,9.99999e-01,9.99999e-01,9.99947e-01,8.30220e-01,9.99999e-01
4.692172475e-01,8.33185e-01,9.99999e-01,9.99999e-01,9.99890e-01,8.33276e-01,9.99999e-01
4.715633337e-01,8.36224e-01,9.99999e-01,9.99999e-01,9.99927e-01,8.36284e-01,9.99999e-01
4.739211504e-01,8.39185e-01,9.99999e-01,9.99999e-01,9.99931e-01,8.39242e-01,9.99999e-01
4.762907561e-01,8.42123e-01,9.99999e-01,9.99999e-01,9.99964e-01,8.42153e-01,9.99999e-01
4.786722099e-01,8.45003e-01,9.99999e-01,9.99999e-01,9.99985e-01,8.45015e-01,9.99999e-01
4.810655710e-01,8.47827e-01,9.99999e-01,9.99999e-01,9.99995e-01,8.47831e-01,9.99999e-01
4.834708988e-01,8.50563e-01,9.99999e-01,9.99999e-01,9.99956e-01,8.50600e-01,9.99999e-01
4.858882533e-01,8.53257e-01,9.99999e-01,9.99999e-01,9.99922e-01,8.53323e-01,9.99999e-01
4.883176946e-01,8.55945e-01,9.99999e-01,9.99999e-01,9.99934e-01,8.56000e-01,9.99999e-01
4.907592831e-01,8.58583e-01,9.99999e-01,9.99999e-01,9.99940e-01,8.58633e-01,9.99999e-01
4.932130795e-01,8.61186e-01,9.99999e-01,9.99999e-01,9.99957e-01,8.61222e-01,9.99999e-01
4.956791449e-01,8.63748e-01,9.99999e-01,9.99999e-01,9.99977e-01,8.63767e-01,9.99999e-01
4.981575406e-01,8.66174e-01,9.99999e-01,9.99999e-01,9.99888e-01,8.66270e-01,9.99999e-01
5.006483283e-01,8.68477e-01,9.99999e-01,9.99999e-01,9.99711e-01,8.68730e-01,9.99997e-01
5.031515699e-01,8.69870e-01,9.99999e-01,9.99999e-01,9.98548e-01,8.71148e-01,9.99984e-01
5.056673278e-01,8.72843e-01,9.99999e-01,9.99999e-01,9.99236e-01,8.73525e-01,9.99982e-01
5.081956644e-01,8.75009e-01,9.99999e-01,9.99999e-01,9.99037e-01,8.75861e-01,9.99988e-01
5.107366428e-01,8.77585e-01,9.99999e-01,9.99999e-01,9.99350e-01,8.78157e-01,9.99997e-01
5.132903260e-01,8.80087e-01,9.99999e-01,9.99999e-01,9.99629e-01,8.80413e-01,9.99999e-01
5.158567776e-01,8.82493e-01,9.99999e-01,9.99999e-01,9.99843e-01,8.82631e-01,9.99999e-01
5.184360615e-01,8.84755e-01,9.99999e-01,9.99999e-01,9.99936e-01,8.84810e-01,9.99999e-01
5.210282418e-01,8.86931e-01,9.99999e-01,9.99999e-01,9.99975e-01,8.86952e-01,9.99999e-01
5.236333830e-01,8.88972e-01,9.99999e-01,9.99999e-01,9.99905e-01,8.89056e-01,9.99998e-01
5.262515499e-01,8.91070e-01,9.99999e-01,9.99999e-01,9.99940e-01,8.91124e-01,9.99998e-01
5.288828077e-01,8.93106e-01,9.99999e-01,9.99999e-01,9.99945e-01,8.93155e-01,9.99998e-01
5.315272217e-01,8.95108e-01,9.99999e-01,9.99999e-01,9.99952e-01,8.95151e-01,9.99999e-01
5.341848578e-01,8.97083e-01,9.99999e-01,9.99999e-01,9.99968e-01,8.97111e-01,9.99999e-01
5.368557821e-01,8.98938e-01,9.99999e-01,9.99999e-01,9.99889e-01,8.99037e-01,9.99999e-01
5.395400610e-01,9.00564e-01,9.99999e-01,9.99999e-01,9.99598e-01,9.00929e-01,9.99995e-01
5.422377613e-01,9.02318e-01,9.99999e-01,9.99999e-01,9.99488e-01,9.02788e-01,9.99990e-01
5.449489501e-01,9.04171e-01,9.99999e-01,9.99999e-01,9.99520e-01,9.04613e-01,9.99989e-01
5.476736949e-01,9.06021e-01,9.99999e-01,9.99999e-01,9.99578e-01,9.06406e-01,9.99994e-01
5.504120634e-01,9.07889e-01,9.99999e-01,9.99999e-01,9.99694e-01,9.08167e-01,9.99998e-01
5.531641237e-01,9.09757e-01,9.99999e-01,9.99999e-01,9.99845e-01,9.09897e-01,9.99999e-01
5.559299443e-01,9.11528e-01,9.99999e-01,9.99999e-01,9.99925e-01,9.11595e-01,9.99999e-01
5.587095940e-01,9.13221e-01,9.99999e-01,9.99999e-01,9.99952e-01,9.13264e-01,9.99999e-01
5.615031420e-01,9.14854e-01,9.99999e-01,9.99999e-01,9.99947e-01,9.14902e-01,9.99999e-01
5.643106577e-01,9.16455e-01,9.99999e-01,9.99999e-01,9.99939e-01,9.16510e-01,9.99999e-01
5.671322110e-01,9.17415e-01,9.99999e-01,9.99999e-01,9.99270e-01,9.18090e-01,9.99993e-01
5.699678720e-01,9.18929e-01,9.99999e-01,9.99999e-01,9.99244e-01,9.19641e-01,9.99980e-01
5.728177114e-01,9.20417e-01,9.99999e-01,9.99999e-01,9.99204e-01,9.21164e-01,9.99983e-01
5.756818000e-01,9.21979e-01,9.99999e-01,9.99999e-01,9.99271e-01,9.22659e-01,9.99990e-01
5.785602090e-01,9.23540e-01,9.99999e-01,9.99999e-01,9.99366e-01,9.24128e-01,9.99996e-01
5.814530100e-01,9.24978e-01,9.99999e-01,9.99999e-01,9.99362e-01,9.25569e-01,9.99998e-01
5.843602750e-01,9.26271e-01,9.99999e-01,9.99999e-01,9.99234e-01,9.26984e-01,9.99995e-01
5.872820764e-01,9.22227e-01,9.99999e-01,9.99999e-01,9.93424e-01,9.28373e-01,9.99953e-01
5.902184868e-01,9.22278e-01,9.99999e-01,9.99999e-01,9.92100e-01,9.29737e-01,9.99874e-01
5.931695792e-01,9.25751e-01,9.99999e-01,9.99999e-01,9.94400e-01,9.31076e-01,9.99878e-01
5.961354271e-01,9.26615e-01,9.99999e-01,9.99999e-01,9.93874e-01,9.32390e-01,9.99930e-01
5.991161043e-01,9.29491e-01,9.99999e-01,9.99999e-01,9.95534e-01,9.33681e-01,9.99978e-01
6.021116848e-01,9.32577e-01,9.99999e-01,9.99999e-01,9.97466e-01,9.34947e-01,9.99997e-01
6.051222432e-01,9.34990e-01,9.99999e-01,9.99999e-01,9.98718e-01,9.36190e-01,9.99999e-01
6.081478544e-01,9.36891e-01,9.99999e-01,9.99999e-01,9.99446e-01,9.37410e-01,9.99999e-01
6.111885937e-01,9.38389e-01,9.99999e-01,9.99999e-01,9.99766e-01,9.38608e-01,9.99999e-01
6.142445367e-01,9.39685e-01,9.99999e-01,9.99999e-01,9.99895e-01,9.39783e-01,9.99999e-01
6.173157594e-01,9.40882e-01,9.99999e-01,9.99999e-01,9.99941e-01,9.40937e-01,9.99999e-01
6.204023382e-01,9.42022e-01,9.99999e-01,9.99999e-01,9.99950e-01,9.42069e-01,9.99999e-01
6.235043498e-01,9.42973e-01,9.99999e-01,9.99999e-01,9.99780e-01,9.43180e-01,9.99998e-01
6.266218716e-01,9.43185e-01,9.99999e-01,9.99999e-01,9.98857e-01,9.44270e-01,9.99991e-01
6.297549810e-01,9.44929e-01,9.99999e-01,9.99999e-01,9.99580e-01,9.45340e-01,9.99983e-01
6.329037559e-01,9.45597e-01,9.99999e-01,9.99999e-01,9.99174e-01,9.46391e-01,9.99986e-01
6.360682746e-01,9.46745e-01,9.99999e-01,9.99999e-01,9.99293e-01,9.47421e-01,9.99991e-01
6.392486160e-01,9.47563e-01,9.99999e-01,9.99999e-01,9.99086e-01,9.48432e-01,9.99996e-01
6.424448591e-01,9.48250e-01,9.99999e-01,9.99999e-01,9.98768e-01,9.49425e-01,9.99993e-01
6.456570834e-01,9.44943e-01,9.99999e-01,9.99999e-01,9.94293e-01,9.50399e-01,9.99965e-01
6.488853688e-01,9.47335e-01,9.99999e-01,9.99999e-01,9.95862e-01,9.51354e-01,9.99911e-01
6.521297956e-01,9.48208e-01,9.99999e-01,9.99999e-01,9.95783e-01,9.52292e-01,9.99926e-01
6.553904446e-01,9.49142e-01,9.99999e-01,9.99999e-01,9.95783e-01,9.53212e-01,9.99945e-01
6.586673968e-01,9.50666e-01,9.99999e-01,9.99999e-01,9.96403e-01,9.54114e-01,9.99981e-01
6.619607338e-01,9.53082e-01,9.99999e-01,9.99999e-01,9.97994e-01,9.55000e-01,9.99995e-01
6.652705375e-01,9.54717e-01,9.99999e-01,9.99999e-01,9.98796e-01,9.55869e-01,9.99997e-01
6.685968902e-01,9.56232e-01,9.99999e-01,9.99999e-01,9.99488e-01,9.56721e-01,9.99999e-01
6.719398746e-01,9.57310e-01,9.99999e-01,9.99999e-01,9.99740e-01,9.57558e-01,9.99999e-01
6.752995740e-01,9.58247e-01,9.99999e-01,9.99999e-01,9.99862e-01,9.58378e-01,9.99999e-01
6.786760719e-01,9.58987e-01,9.99999e-01,9.99999e-01,9.99794e-01,9.59183e-01,9.99999e-01
6.820694522e-01,9.59637e-01,9.99999e-01,9.99999e-01,9.99650e-01,9.59973e-01,9.99997e-01
6.854797995e-01,9.60312e-01,9.99999e-01,9.99999e-01,9.99549e-01,9.60748e-01,9.99995e-01
6.889071985e-01,9.60438e-01,9.99999e-01,9.99999e-01,9.98895e-01,9.61508e-01,9.99989e-01
6.923517345e-01,9.45114e-01,9.99999e-01,9.99999e-01,9.82270e-01,9.62254e-01,9.99914e-01
6.958134932e-01,9.54066e-01,9.99999e-01,9.99999e-01,9.90923e-01,9.62986e-01,9.99811e-01
6.992925606e-01,9.55066e-01,9.99999e-01,9.99999e-01,9.91205e-01,9.63703e-01,9.99829e-01
7.027890234e-01,9.53899e-01,9.99999e-01,9.99999e-01,9.89231e-01,9.64407e-01,9.99869e-01
7.063029686e-01,9.56284e-01,9.99999e-01,9.99999e-01,9.90930e-01,9.65098e-01,9.99935e-01
7.098344834e-01,9.57334e-01,9.99999e-01,9.99999e-01,9.91296e-01,9.65775e-01,9.99961e-01
7.133836558e-01,9.55050e-01,9.99999e-01,9.99999e-01,9.88289e-01,9.66440e-01,9.99923e-01
7.169505741e-01,8.79848e-01,9.99999e-01,9.99999e-01,9.10329e-01,9.67092e-01,9.99403e-01
7.205353270e-01,9.23956e-01,9.99999e-01,9.99999e-01,9.55770e-01,9.67731e-01,9.98947e-01
7.241380036e-01,9.12635e-01,9.99999e-01,9.99999e-01,9.43311e-01,9.68358e-01,9.99091e-01
7.277586936e-01,9.18637e-01,9.99999e-01,9.99999e-01,9.48755e-01,9.68974e-01,9.99256e-01
7.313974871e-01,9.16765e-01,9.99999e-01,9.99999e-01,9.45859e-01,9.69577e-01,9.99651e-01
7.350544745e-01,9.40948e-01,9.99999e-01,9.99999e-01,9.69997e-01,9.70169e-01,9.99878e-01
7.387297469e-01,9.49187e-01,9.99999e-01,9.99999e-01,9.77841e-01,9.70749e-01,9.99944e-01
7.424233956e-01,9.60742e-01,9.99999e-01,9.99999e-01,9.89119e-01,9.71319e-01,9.99989e-01
7.461355126e-01,9.65446e-01,9.99999e-01,9.99999e-01,9.93383e-01,9.71877e-01,9.99997e-01
7.498661902e-01,9.69433e-01,9.99999e-01,9.99999e-01,9.96923e-01,9.72425e-01,9.99998e-01
7.536155211e-01,9.71489e-01,9.99999e-01,9.99999e-01,9.98485e-01,9.72962e-01,9.99999e-01
7.573835987e-01,9.72730e-01,9.99999e-01,9.99999e-01,9.99220e-01,9.73489e-01,9.99999e-01
7.611705167e-01,9.73534e-01,9.99999e-01,9.99999e-01,9.99515e-01,9.74006e-01,9.99999e-01
7.649763693e-01,9.74217e-01,9.99999e-01,9.99999e-01,9.99695e-01,9.74513e-01,9.99999e-01
7.688012511e-01,9.74803e-01,9.99999e-01,9.99999e-01,9.99787e-01,9.75010e-01,9.99999e-01
7.726452574e-01,9.75327e-01,9.99999e-01,9.99999e-01,9.99825e-01,9.75497e-01,9.99999e-01
7.765084837e-01,9.75732e-01,9.99999e-01,9.99999e-01,9.99749e-01,9.75975e-01,9.99999e-01
7.803910261e-01,9.75388e-01,9.99999e-01,9.99999e-01,9.98919e-01,9.76444e-01,9.99998e-01
7.842929812e-01,9.73216e-01,9.99999e-01,9.99999e-01,9.96230e-01,9.76904e-01,9.99992e-01
7.882144461e-01,9.69787e-01,9.99999e-01,9.99999e-01,9.92308e-01,9.77355e-01,9.99946e-01
7.921555184e-01,9.73598e-01,9.99999e-01,9.99999e-01,9.95796e-01,9.77797e-01,9.99907e-01
7.961162960e-01,9.70812e-01,9.99999e-01,9.99999e-01,9.92501e-01,9.78231e-01,9.99912e-01
8.000968774e-01,9.70139e-01,9.99999e-01,9.99999e-01,9.91388e-01,9.78656e-01,9.99906e-01
8.040973618e-01,9.70561e-01,9.99999e-01,9.99999e-01,9.91375e-01,9.79074e-01,9.99928e-01
8.081178486e-01,9.60371e-01,9.99999e-01,9.99999e-01,9.80558e-01,9.79483e-01,9.99927e-01
8.121584379e-01,9.02869e-01,9.99999e-01,9.99999e-01,9.21654e-01,9.79884e-01,9.99727e-01
8.162192301e-01,8.89727e-01,9.99999e-01,9.99999e-01,9.08557e-01,9.80277e-01,9.98976e-01
8.203003262e-01,9.33378e-01,9.99999e-01,9.99999e-01,9.52924e-01,9.80663e-01,9.98801e-01
8.244018279e-01,9.17808e-01,9.99999e-01,9.99999e-01,9.36437e-01,9.81041e-01,9.99045e-01
8.285238370e-01,9.25749e-01,9.99999e-01,9.99999e-01,9.43989e-01,9.81412e-01,9.99250e-01
8.326664562e-01,9.26154e-01,9.99999e-01,9.99999e-01,9.43637e-01,9.81776e-01,9.99689e-01
8.368297885e-01,9.42213e-01,9.99999e-01,9.99999e-01,9.59421e-01,9.82133e-01,9.99928e-01
8.410139374e-01,9.58564e-01,9.99999e-01,9.99999e-01,9.75695e-01,9.82482e-01,9.99958e-01
8.452190071e-01,9.71030e-01,9.99999e-01,9.99999e-01,9.88022e-01,9.82825e-01,9.99974e-01
8.494451021e-01,9.76271e-01,9.99999e-01,9.99999e-01,9.93010e-01,9.83162e-01,9.99979e-01
8.536923276e-01,9.79423e-01,9.99999e-01,9.99999e-01,9.95874e-01,9.83492e-01,9.99987e-01
8.579607893e-01,9.81305e-01,9.99999e-01,9.99999e-01,9.97450e-01,9.83815e-01,9.99996e-01
8.622505932e-01,9.82541e-01,9.99999e-01,9.99999e-01,9.98383e-01,9.84132e-01,9.99998e-01
8.665618462e-01,9.83455e-01,9.99999e-01,9.99999e-01,9.98996e-01,9.84443e-01,9.99999e-01
8.708946554e-01,9.83614e-01,9.99999e-01,9.99999e-01,9.98848e-01,9.84748e-01,9.99998e-01
8.752491287e-01,9.83530e-01,9.99999e-01,9.99999e-01,9.98461e-01,9.85047e-01,9.99997e-01
8.796253743e-01,9.83230e-01,9.99999e-01,9.99999e-01,9.97863e-01,9.85340e-01,9.99994e-01
8.840235012e-01,9.83210e-01,9.99999e-01,9.99999e-01,9.97561e-01,9.85628e-01,9.99984e-01
8.884436187e-01,9.76989e-01,9.99999e-01,9.99999e-01,9.90993e-01,9.85909e-01,9.99957e-01
8.928858368e-01,8.97486e-01,9.99999e-01,9.99999e-01,9.10278e-01,9.86186e-01,9.99756e-01
8.973502660e-01,8.35699e-01,9.99999e-01,9.99999e-01,8.48228e-01,9.86457e-01,9.98754e-01
9.018370173e-01,9.06019e-01,9.99999e-01,9.99999e-01,9.20009e-01,9.86723e-01,9.98043e-01
9.063462024e-01,9.14456e-01,9.99999e-01,9.99999e-01,9.28111e-01,9.86983e-01,9.98280e-01
9.108779334e-01,8.77751e-01,9.99999e-01,9.99999e-01,8.90687e-01,9.87239e-01,9.98213e-01
9.154323231e-01,8.64599e-01,9.99999e-01,9.99999e-01,8.76847e-01,9.87489e-01,9.98523e-01
9.200094847e-01,8.90713e-01,9.99999e-01,9.99999e-01,9.02519e-01,9.87735e-01,9.99172e-01
9.246095321e-01,8.40274e-01,9.99999e-01,9.99999e-01,8.51311e-01,9.87975e-01,9.99047e-01
9.292325798e-01,3.48250e-01,9.99999e-01,9.99999e-01,3.54029e-01,9.88211e-01,9.95409e-01
9.338787427e-01,2.58902e-01,9.99999e-01,9.99999e-01,2.66321e-01,9.88443e-01,9.83506e-01
9.385481364e-01,5.67843e-01,9.99999e-01,9.99999e-01,5.84940e-01,9.88670e-01,9.81894e-01
9.432408771e-01,4.65809e-01,9.99999e-01,9.99999e-01,4.78525e-01,9.88892e-01,9.84360e-01
9.479570815e-01,3.56244e-01,9.99999e-01,9.99999e-01,3.64816e-01,9.89111e-01,9.87252e-01
9.526968669e-01,4.55409e-01,9.99999e-01,9.99999e-01,4.63939e-01,9.89325e-01,9.92205e-01
9.574603512e-01,4.78055e-01,9.99999e-01,9.99999e-01,4.85034e-01,9.89534e-01,9.96032e-01
9.622476530e-01,5.45854e-01,9.99999e-01,9.99999e-01,5.53030e-01,9.89740e-01,9.97254e-01
9.670588912e-01,7.00831e-01,9.99999e-01,9.99999e-01,7.09283e-01,9.89942e-01,9.98121e-01
9.718941857e-01,7.95531e-01,9.99999e-01,9.99999e-01,8.04565e-01,9.90139e-01,9.98616e-01
9.767536566e-01,8.25748e-01,9.99999e-01,9.99999e-01,8.34690e-01,9.90333e-01,9.98942e-01
9.816374249e-01,8.66108e-01,9.99999e-01,9.99999e-01,8.74714e-01,9.90523e-01,9.99633e-01
9.865456120e-01,9.11091e-01,9.99999e-01,9.99999e-01,9.19704e-01,9.90709e-01,9.99923e-01
9.914783401e-01,9.40847e-01,9.99999e-01,9.99999e-01,9.49514e-01,9.90892e-01,9.99978e-01
9.964357318e-01,9.63499e-01,9.99999e-01,9.99999e-01,9.72190e-01,9.91071e-01,9.99987e-01
1.001417910e+00,9.74620e-01,9.99999e-01,9.99999e-01,9.83244e-01,9.91247e-01,9.99980e-01
1.006425000e+00,9.81871e-01,9.99999e-01,9.99999e-01,9.90395e-01,9.91419e-01,9.99972e-01
1.011457125e+00,9.85656e-01,9.99999e-01,9.99999e-01,9.94042e-01,9.91588e-01,9.99974e-01
1.016514411e+00,9.87717e-01,9.99999e-01,9.99999e-01,9.95946e-01,9.91753e-01,9.99981e-01
1.021596983e+00,9.88692e-01,9.99999e-01,9.99999e-01,9.96767e-01,9.91915e-01,9.99982e-01
1.026704968e+00,9.89561e-01,9.99999e-01,9.99999e-01,9.97476e-01,9.92074e-01,9.99988e-01
1.031838492e+00,9.90411e-01,9.99999e-01,9.99999e-01,9.98169e-01,9.92230e-01,9.99996e-01
1.036997685e+00,9.91301e-01,9.99999e-01,9.99999e-01,9.98909e-01,9.92383e-01,9.99998e-01
1.042182673e+00,9.91239e-01,9.99999e-01,9.99999e-01,9.98696e-01,9.92533e-01,9.99999e-01
1.047393587e+00,9.90967e-01,9.99999e-01,9.99999e-01,9.98274e-01,9.92680e-01,9.99999e-01
1.052630555e+00,9.90470e-01,9.99999e-01,9.99999e-01,9.97629e-01,9.92824e-01,9.99998e-01
1.057893707e+00,9.89032e-01,9.99999e-01,9.99999e-01,9.96039e-01,9.92965e-01,9.99998e-01
1.063183176e+00,9.86642e-01,9.99999e-01,9.99999e-01,9.93496e-01,9.93104e-01,9.99996e-01
1.068499092e+00,9.82453e-01,9.99999e-01,9.99999e-01,9.89147e-01,9.93239e-01,9.99992e-01
1.073841587e+00,9.80732e-01,9.99999e-01,9.99999e-01,9.87290e-01,9.93372e-01,9.99983e-01
1.079210795e+00,9.77353e-01,9.99999e-01,9.99999e-01,9.83787e-01,9.93503e-01,9.99956e-01
1.084606849e+00,9.69210e-01,9.99999e-01,9.99999e-01,9.75523e-01,9.93631e-01,9.99894e-01
1.090029883e+00,9.58621e-01,9.99999e-01,9.99999e-01,9.64853e-01,9.93756e-01,9.99782e-01
1.095480033e+00,9.01395e-01,9.99999e-01,9.99999e-01,9.07302e-01,9.93879e-01,9.99607e-01
1.100957433e+00,7.76604e-01,9.99999e-01,9.99999e-01,7.81855e-01,9.94000e-01,9.99277e-01
1.106462220e+00,5.36432e-01,9.99999e-01,9.99999e-01,5.40267e-01,9.94118e-01,9.98774e-01
1.111994531e+00,2.78084e-01,9.99999e-01,9.99999e-01,2.80608e-01,9.94234e-01,9.96751e-01
1.117554504e+00,1.30275e-01,9.99999e-01,9.99999e-01,1.32564e-01,9.94347e-01,9.88322e-01
1.123142276e+00,2.33439e-01,9.99999e-01,9.99999e-01,2.41370e-01,9.94459e-01,9.72529e-01
1.128757988e+00,3.71284e-01,9.99999e-01,9.99999e-01,3.85537e-01,9.94568e-01,9.68290e-01
1.134401778e+00,1.79673e-01,9.99999e-01,9.99999e-01,1.85652e-01,9.94675e-01,9.72972e-01
1.140073787e+00,5.42766e-01,9.99999e-01,9.99999e-01,5.57690e-01,9.94780e-01,9.78345e-01
1.145774156e+00,3.00631e-01,9.99999e-01,9.99999e-01,3.08293e-01,9.94882e-01,9.80160e-01
1.151503026e+00,2.67901e-01,9.99999e-01,9.99999e-01,2.72274e-01,9.94983e-01,9.88898e-01
1.157260541e+00,3.21242e-01,9.99999e-01,9.99999e-01,3.23908e-01,9.95082e-01,9.96667e-01
1.163046844e+00,4.30714e-01,9.99999e-01,9.99999e-01,4.33209e-01,9.95179e-01,9.99054e-01
1.168862078e+00,5.51728e-01,9.99999e-01,9.99999e-01,5.54617e-01,9.95274e-01,9.99512e-01
1.174706389e+00,6.90999e-01,9.99999e-01,9.99999e-01,6.94663e-01,9.95367e-01,9.99353e-01
1.180579921e+00,7.96235e-01,9.99999e-01,9.99999e-01,8.00649e-01,9.95458e-01,9.99023e-01
1.186482820e+00,8.76721e-01,9.99999e-01,9.99999e-01,8.81524e-01,9.95548e-01,9.98997e-01
1.192415234e+00,9.24175e-01,9.99999e-01,9.99999e-01,9.28922e-01,9.95636e-01,9.99248e-01
1.198377311e+00,9.34981e-01,9.99999e-01,9.99999e-01,9.39667e-01,9.95722e-01,9.99287e-01
1.204369197e+00,9.38391e-01,9.99999e-01,9.99999e-01,9.42928e-01,9.95806e-01,9.99379e-01
1.210391043e+00,9.41071e-01,9.99999e-01,9.99999e-01,9.45324e-01,9.95888e-01,9.99609e-01
1.216442998e+00,9.49317e-01,9.99999e-01,9.99999e-01,9.53386e-01,9.95970e-01,9.99760e-01
1.222525213e+00,9.59522e-01,9.99999e-01,9.99999e-01,9.63470e-01,9.96049e-01,9.99851e-01
1.228637839e+00,9.70633e-01,9.99999e-01,9.99999e-01,9.74473e-01,9.96127e-01,9.99930e-01
