#,Wave/freq,Total,N2,O2,H2O,Rayleigh,CIA
4.000000000e-01,7.77840e-01,9.99999e-01,9.99999e-01,9.99971e-01,7.77862e-01,9.99999e-01
4.020000000e-01,7.81721e-01,9.99999e-01,9.99999e-01,9.99982e-01,7.81735e-01,9.99999e-01
4.040100000e-01,7.85540e-01,9.99999e-01,9.99999e-01,9.99992e-01,7.85546e-01,9.99999e-01
4.060300500e-01,7.89299e-01,9.99999e-01,9.99999e-01,9.99997e-01,7.89300e-01,9.99999e-01
4.080602003e-01,7.92998e-01,9.99999e-01,9.99999e-01,9.99998e-01,7.92998e-01,9.99999e-01
4.101005013e-01,7.96639e-01,9.99999e-01,9.99999e-01,9.99999e-01,7.96639e-01,9.99999e-01
4.121510038e-01,8.00224e-01,9.99999e-01,9.99999e-01,9.99998e-01,8.00225e-01,9.99999e-01
4.142117588e-01,8.03749e-01,9.99999e-01,9.99999e-01,9.99991e-01,8.03755e-01,9.99999e-01
4.162828176e-01,8.07203e-01,9.99999e-01,9.99999e-01,9.99964e-01,8.07231e-01,9.99999e-01
4.183642317e-01,8.10636e-01,9.99999e-01,9.99999e-01,9.99978e-01,8.10653e-01,9.99999e-01
4.204560528e-01,8.14011e-01,9.99999e-01,9.99999e-01,9.99986e-01,8.14021e-01,9.99999e-01
4.225583331e-01,8.17332e-01,9.99999e-01,9.99999e-01,9.99994e-01,8.17336e-01,9.99999e-01
4.246711247e-01,8.20596e-01,9.99999e-01,9.99999e-01,9.99995e-01,8.20599e-01,9.99999e-01
4.267944804e-01,8.23806e-01,9.99999e-01,9.99999e-01,9.99993e-01,8.23810e-01,9.99999e-01
4.289284528e-01,8.26966e-01,9.99999e-01,9.99999e-01,9.99995e-01,8.26970e-01,9.99999e-01
4.310730950e-01,8.30078e-01,9.99999e-01,9.99999e-01,9.99997e-01,8.30079e-01,9.99999e-01
4.332284605e-01,8.33138e-01,9.99999e-01,9.99999e-01,9.99999e-01,8.33138e-01,9.99999e-01
4.353946028e-01,8.36148e-01,9.99999e-01,9.99999e-01,9.99999e-01,8.36148e-01,9.99999e-01
4.375715758e-01,8.39106e-01,9.99999e-01,9.99999e-01,9.99995e-01,8.39109e-01,9.99999e-01
4.397594337e-01,8.41995e-01,9.99999e-01,9.99999e-01,9.99968e-01,8.42021e-01,9.99999e-01
4.419582309e-01,8.44752e-01,9.99999e-01,9.99999e-01,9.99840e-01,8.44886e-01,9.99999e-01
4.441680220e-01,8.47601e-01,9.99999e-01,9.99999e-01,9.99878e-01,8.47703e-01,9.99999e-01
4.463888621e-01,8.50366e-01,9.99999e-01,9.99999e-01,9.99872e-01,8.50475e-01,9.99999e-01
4.486208064e-01,8.53133e-01,9.99999e-01,9.99999e-01,9.99920e-01,8.53200e-01,9.99999e-01
4.508639105e-01,8.55848e-01,9.99999e-01,9.99999e-01,9.99962e-01,8.55879e-01,9.99999e-01
4.531182300e-01,8.58502e-01,9.99999e-01,9.99999e-01,9.99985e-01,8.58514e-01,9.99999e-01
4.553838212e-01,8.61097e-01,9.99999e-01,9.99999e-01,9.99989e-01,8.61105e-01,9.99999e-01
4.576607403e-01,8.63649e-01,9.99999e-01,9.99999e-01,9.99994e-01,8.63652e-01,9.99999e-01
4.599490440e-01,8.66154e-01,9.99999e-01,9.99999e-01,9.99996e-01,8.66157e-01,9.99999e-01
4.622487892e-01,8.68618e-01,9.99999e-01,9.99999e-01,9.99998e-01,8.68619e-01,9.99999e-01
4.645600332e-01,8.71037e-01,9.99999e-01,9.99999e-01,9.99997e-01,8.71039e-01,9.99999e-01
4.668828333e-01,8.73384e-01,9.99999e-01,9.99999e-01,9.99961e-01,8.73417e-01,9.99999e-01
4.692172475e-01,8.75686e-01,9.99999e-01,9.99999e-01,9.99919e-01,8.75755e-01,9.99999e-01
4.715633337e-01,8.78007e-01,9.99999e-01,9.99999e-01,9.99947e-01,8.78053e-01,9.99999e-01
4.739211504e-01,8.80268e-01,9.99999e-01,9.99999e-01,9.99949e-01,8.80312e-01,9.99999e-01
4.762907561e-01,8.82508e-01,9.99999e-01,9.99999e-01,9.99973e-01,8.82531e-01,9.99999e-01
4.786722099e-01,8.84703e-01,9.99999e-01,9.99999e-01,9.99988e-01,8.84712e-01,9.99999e-01
4.810655710e-01,8.86852e-01,9.99999e-01,9.99999e-01,9.99996e-01,8.86855e-01,9.99999e-01
4.834708988e-01,8.88933e-01,9.99999e-01,9.99999e-01,9.99968e-01,8.88961e-01,9.99999e-01
4.858882533e-01,8.90980e-01,9.99999e-01,9.99999e-01,9.99943e-01,8.91030e-01,9.99999e-01
4.883176946e-01,8.93021e-01,9.99999e-01,9.99999e-01,9.99952e-01,8.93063e-01,9.99999e-01
4.907592831e-01,8.95022e-01,9.99999e-01,9.99999e-01,9.99956e-01,8.95060e-01,9.99999e-01
4.932130795e-01,8.96996e-01,9.99999e-01,9.99999e-01,9.99969e-01,8.97023e-01,9.99999e-01
4.956791449e-01,8.98936e-01,9.99999e-01,9.99999e-01,9.99983e-01,8.98950e-01,9.99999e-01
4.981575406e-01,9.00771e-01,9.99999e-01,9.99999e-01,9.99918e-01,9.00844e-01,9.99999e-01
5.006483283e-01,9.02513e-01,9.99999e-01,9.99999e-01,9.99789e-01,9.02704e-01,9.99998e-01
5.031515699e-01,9.03566e-01,9.99999e-01,9.99999e-01,9.98943e-01,9.04531e-01,9.99988e-01
5.056673278e-01,9.05811e-01,9.99999e-01,9.99999e-01,9.99444e-01,9.06325e-01,9.99986e-01
5.081956644e-01,9.07445e-01,9.99999e-01,9.99999e-01,9.99299e-01,9.08088e-01,9.99991e-01
5.107366428e-01,9.09388e-01,9.99999e-01,9.99999e-01,9.99527e-01,9.09819e-01,9.99998e-01
5.132903260e-01,9.11273e-01,9.99999e-01,9.99999e-01,9.99730e-01,9.11519e-01,9.99999e-01
5.158567776e-01,9.13085e-01,9.99999e-01,9.99999e-01,9.99885e-01,9.13188e-01,9.99999e-01
5.184360615e-01,9.14786e-01,9.99999e-01,9.99999e-01,9.99953e-01,9.14828e-01,9.99999e-01
5.210282418e-01,9.16422e-01,9.99999e-01,9.99999e-01,9.99982e-01,9.16438e-01,9.99999e-01
5.236333830e-01,9.17955e-01,9.99999e-01,9.99999e-01,9.99930e-01,9.18019e-01,9.99999e-01
5.262515499e-01,9.19531e-01,9.99999e-01,9.99999e-01,9.99956e-01,9.19571e-01,9.99998e-01
5.288828077e-01,9.21058e-01,9.99999e-01,9.99999e-01,9.99959e-01,9.21095e-01,9.99999e-01
5.315272217e-01,9.22560e-01,9.99999e-01,9.99999e-01,9.99965e-01,9.22592e-01,9.99999e-01
5.341848578e-01,9.24040e-01,9.99999e-01,9.99999e-01,9.99976e-01,9.24061e-01,9.99999e-01
5.368557821e-01,9.25429e-01,9.99999e-01,9.99999e-01,9.99919e-01,9.25504e-01,9.99999e-01
5.395400610e-01,9.26647e-01,9.99999e-01,9.99999e-01,9.99707e-01,9.26920e-01,9.99996e-01
5.422377613e-01,9.27959e-01,9.99999e-01,9.99999e-01,9.99627e-01,9.28311e-01,9.99992e-01
5.449489501e-01,9.29345e-01,9.99999e-01,9.99999e-01,9.99651e-01,9.29676e-01,9.99992e-01
5.476736949e-01,9.30728e-01,9.99999e-01,9.99999e-01,9.99693e-01,9.31016e-01,9.99996e-01
5.504120634e-01,9.32123e-01,9.99999e-01,9.99999e-01,9.99777e-01,9.32331e-01,9.99998e-01
5.531641237e-01,9.33518e-01,9.99999e-01,9.99999e-01,9.99887e-01,9.33622e-01,9.99999e-01
5.559299443e-01,9.34839e-01,9.99999e-01,9.99999e-01,9.99945e-01,9.34890e-01,9.99999e-01
5.587095940e-01,9.36102e-01,9.99999e-01,9.99999e-01,9.99965e-01,9.36134e-01,9.99999e-01
5.615031420e-01,9.37320e-01,9.99999e-01,9.99999e-01,9.99961e-01,9.37355e-01,9.99999e-01
5.643106577e-01,9.38512e-01,9.99999e-01,9.99999e-01,9.99956e-01,9.38554e-01,9.99999e-01
5.671322110e-01,9.39227e-01,9.99999e-01,9.99999e-01,9.99468e-01,9.39730e-01,9.99994e-01
5.699678720e-01,9.40354e-01,9.99999e-01,9.99999e-01,9.99450e-01,9.40884e-01,9.99985e-01
5.728177114e-01,9.41462e-01,9.99999e-01,9.99999e-01,9.99421e-01,9.42018e-01,9.99987e-01
5.756818000e-01,9.42624e-01,9.99999e-01,9.99999e-01,9.99470e-01,9.43130e-01,9.99992e-01
5.785602090e-01,9.43784e-01,9.99999e-01,9.99999e-01,9.99538e-01,9.44221e-01,9.99997e-01
5.814530100e-01,9.44853e-01,9.99999e-01,9.99999e-01,9.99535e-01,9.45292e-01,9.99998e-01
5.843602750e-01,9.45813e-01,9.99999e-01,9.99999e-01,9.99442e-01,9.46343e-01,9.99996e-01
5.872820764e-01,9.42804e-01,9.99999e-01,9.99999e-01,9.95208e-01,9.47375e-01,9.99966e-01
5.902184868e-01,9.42846e-01,9.99999e-01,9.99999e-01,9.94247e-01,9.48387e-01,9.99908e-01
5.931695792e-01,9.45426e-01,9.99999e-01,9.99999e-01,9.95921e-01,9.49380e-01,9.99911e-01
5.961354271e-01,9.46069e-01,9.99999e-01,9.99999e-01,9.95539e-01,9.50355e-01,9.99949e-01
5.991161043e-01,9.48205e-01,9.99999e-01,9.99999e-01,9.96749e-01,9.51311e-01,9.99983e-01
6.021116848e-01,9.50493e-01,9.99999e-01,9.99999e-01,9.98156e-01,9.52249e-01,9.99997e-01
6.051222432e-01,9.52282e-01,9.99999e-01,9.99999e-01,9.99067e-01,9.53170e-01,9.99999e-01
6.081478544e-01,9.53689e-01,9.99999e-01,9.99999e-01,9.99597e-01,9.54073e-01,9.99999e-01
6.111885937e-01,9.54798e-01,9.99999e-01,9.99999e-01,9.99829e-01,9.54960e-01,9.99999e-01
6.142445367e-01,9.55757e-01,9.99999e-01,9.99999e-01,9.99923e-01,9.55830e-01,9.99999e-01
6.173157594e-01,9.56643e-01,9.99999e-01,9.99999e-01,9.99957e-01,9.56683e-01,9.99999e-01
6.204023382e-01,9.57486e-01,9.99999e-01,9.99999e-01,9.99963e-01,9.57520e-01,9.99999e-01
6.235043498e-01,9.58188e-01,9.99999e-01,9.99999e-01,9.99840e-01,9.58341e-01,9.99999e-01
6.266218716e-01,9.58345e-01,9.99999e-01,9.99999e-01,9.99168e-01,9.59147e-01,9.99993e-01
6.297549810e-01,9.59634e-01,9.99999e-01,9.99999e-01,9.99694e-01,9.59938e-01,9.99987e-01
6.329037559e-01,9.60127e-01,9.99999e-01,9.99999e-01,9.99399e-01,9.60713e-01,9.99990e-01
6.360682746e-01,9.60975e-01,9.99999e-01,9.99999e-01,9.99485e-01,9.61474e-01,9.99993e-01
6.392486160e-01,9.61579e-01,9.99999e-01,9.99999e-01,9.99335e-01,9.62220e-01,9.99997e-01
6.424448591e-01,9.62085e-01,9.99999e-01,9.99999e-01,9.99103e-01,9.62953e-01,9.99995e-01
6.456570834e-01,9.59641e-01,9.99999e-01,9.99999e-01,9.95842e-01,9.63671e-01,9.99974e-01
6.488853688e-01,9.61410e-01,9.99999e-01,9.99999e-01,9.96988e-01,9.64376e-01,9.99935e-01
6.521297956e-01,9.62055e-01,9.99999e-01,9.99999e-01,9.96930e-01,9.65067e-01,9.99946e-01
6.553904446e-01,9.62743e-01,9.99999e-01,9.99999e-01,9.96930e-01,9.65745e-01,9.99960e-01
6.586673968e-01,9.63868e-01,9.99999e-01,9.99999e-01,9.97382e-01,9.66410e-01,9.99986e-01
6.619607338e-01,9.65649e-01,9.99999e-01,9.99999e-01,9.98541e-01,9.67062e-01,9.99996e-01
6.652705375e-01,9.66854e-01,9.99999e-01,9.99999e-01,9.99124e-01,9.67702e-01,9.99998e-01
6.685968902e-01,9.67970e-01,9.99999e-01,9.99999e-01,9.99627e-01,9.68330e-01,9.99999e-01
6.719398746e-01,9.68763e-01,9.99999e-01,9.99999e-01,9.99811e-01,9.68946e-01,9.99999e-01
6.752995740e-01,9.69453e-01,9.99999e-01,9.99999e-01,9.99900e-01,9.69550e-01,9.99999e-01
6.786760719e-01,9.69997e-01,9.99999e-01,9.99999e-01,9.99850e-01,9.70142e-01,9.99999e-01
6.820694522e-01,9.70473e-01,9.99999e-01,9.99999e-01,9.99743e-01,9.70723e-01,9.99998e-01
6.854797995e-01,9.70972e-01,9.99999e-01,9.99999e-01,9.99672e-01,9.71293e-01,9.99996e-01
6.889071985e-01,9.71064e-01,9.99999e-01,9.99999e-01,9.99195e-01,9.71852e-01,9.99992e-01
6.923517345e-01,9.59757e-01,9.99999e-01,9.99999e-01,9.87058e-01,9.72400e-01,9.99937e-01
6.958134932e-01,9.66375e-01,9.99999e-01,9.99999e-01,9.93390e-01,9.72938e-01,9.99862e-01
6.992925606e-01,9.67107e-01,9.99999e-01,9.99999e-01,9.93590e-01,9.73465e-01,9.99876e-01
7.027890234e-01,9.66250e-01,9.99999e-01,9.99999e-01,9.92153e-01,9.73983e-01,9.99905e-01
7.063029686e-01,9.68007e-01,9.99999e-01,9.99999e-01,9.93394e-01,9.74490e-01,9.99952e-01
7.098344834e-01,9.68781e-01,9.99999e-01,9.99999e-01,9.93661e-01,9.74987e-01,9.99971e-01
7.133836558e-01,9.67088e-01,9.99999e-01,9.99999e-01,9.91456e-01,9.75475e-01,9.99944e-01
7.169505741e-01,9.10850e-01,9.99999e-01,9.99999e-01,9.33696e-01,9.75954e-01,9.99565e-01
7.205353270e-01,9.44043e-01,9.99999e-01,9.99999e-01,9.67578e-01,9.76423e-01,9.99234e-01
7.241380036e-01,9.35572e-01,9.99999e-01,9.99999e-01,9.58343e-01,9.76883e-01,9.99338e-01
7.277586936e-01,9.40053e-01,9.99999e-01,9.99999e-01,9.62372e-01,9.77335e-01,9.99459e-01
7.313974871e-01,9.38701e-01,9.99999e-01,9.99999e-01,9.60278e-01,9.77777e-01,9.99746e-01
7.350544745e-01,9.56676e-01,9.99999e-01,9.99999e-01,9.78070e-01,9.78211e-01,9.99911e-01
7.387297469e-01,9.62774e-01,9.99999e-01,9.99999e-01,9.83829e-01,9.78637e-01,9.99959e-01
7.424233956e-01,9.71290e-01,9.99999e-01,9.99999e-01,9.92075e-01,9.79055e-01,9.99992e-01
7.461355126e-01,9.74746e-01,9.99999e-01,9.99999e-01,9.95183e-01,9.79464e-01,9.99998e-01
7.498661902e-01,9.77673e-01,9.99999e-01,9.99999e-01,9.97761e-01,9.79866e-01,9.99999e-01
7.536155211e-01,9.79180e-01,9.99999e-01,9.99999e-01,9.98898e-01,9.80259e-01,9.99999e-01
7.573835987e-01,9.80090e-01,9.99999e-01,9.99999e-01,9.99432e-01,9.80645e-01,9.99999e-01
7.611705167e-01,9.80679e-01,9.99999e-01,9.99999e-01,9.99647e-01,9.81024e-01,9.99999e-01
7.649763693e-01,9.81179e-01,9.99999e-01,9.99999e-01,9.99778e-01,9.81395e-01,9.99999e-01
7.688012511e-01,9.81608e-01,9.99999e-01,9.99999e-01,9.99845e-01,9.81760e-01,9.99999e-01
7.726452574e-01,9.81992e-01,9.99999e-01,9.99999e-01,9.99872e-01,9.82117e-01,9.99999e-01
7.765084837e-01,9.82288e-01,9.99999e-01,9.99999e-01,9.99817e-01,9.82467e-01,9.99999e-01
7.803910261e-01,9.82036e-01,9.99999e-01,9.99999e-01,9.99213e-01,9.82810e-01,9.99998e-01
7.842929812e-01,9.80443e-01,9.99999e-01,9.99999e-01,9.97254e-01,9.83147e-01,9.99994e-01
7.882144461e-01,9.77930e-01,9.99999e-01,9.99999e-01,9.94398e-01,9.83477e-01,9.99961e-01
7.921555184e-01,9.80726e-01,9.99999e-01,9.99999e-01,9.96940e-01,9.83800e-01,9.99932e-01
7.961162960e-01,9.78679e-01,9.99999e-01,9.99999e-01,9.94536e-01,9.84118e-01,9.99935e-01
8.000968774e-01,9.78189e-01,9.99999e-01,9.99999e-01,9.93727e-01,9.84429e-01,9.99931e-01
8.040973618e-01,9.78497e-01,9.99999e-01,9.99999e-01,9.93717e-01,9.84734e-01,9.99947e-01
8.081178486e-01,9.70999e-01,9.99999e-01,9.99999e-01,9.85803e-01,9.85033e-01,9.99947e-01
8.121584379e-01,9.28223e-01,9.99999e-01,9.99999e-01,9.42232e-01,9.85327e-01,9.99801e-01
8.162192301e-01,9.18354e-01,9.99999e-01,9.99999e-01,9.32451e-01,9.85615e-01,9.99255e-01
8.203003262e-01,9.50811e-01,9.99999e-01,9.99999e-01,9.65252e-01,9.85897e-01,9.99127e-01
8.244018279e-01,9.39148e-01,9.99999e-01,9.99999e-01,9.52975e-01,9.86173e-01,9.99305e-01
8.285238370e-01,9.45352e-01,9.99999e-01,9.99999e-01,9.58865e-01,9.86445e-01,9.99454e-01
8.326664562e-01,9.45648e-01,9.99999e-01,9.99999e-01,9.58599e-01,9.86711e-01,9.99774e-01
8.368297885e-01,9.57609e-01,9.99999e-01,9.99999e-01,9.70299e-01,9.86971e-01,9.99948e-01
8.410139374e-01,9.69682e-01,9.99999e-01,9.99999e-01,9.82257e-01,9.87227e-01,9.99969e-01
8.452190071e-01,9.78844e-01,9.99999e-01,9.99999e-01,9.91274e-01,9.87478e-01,9.99981e-01
8.494451021e-01,9.82683e-01,9.99999e-01,9.99999e-01,9.94911e-01,9.87723e-01,9.99985e-01
8.536923276e-01,9.84990e-01,9.99999e-01,9.99999e-01,9.96997e-01,9.87964e-01,9.99990e-01
8.579607893e-01,9.86366e-01,9.99999e-01,9.99999e-01,9.98144e-01,9.88201e-01,9.99997e-01
8.622505932e-01,9.87270e-01,9.99999e-01,9.99999e-01,9.98823e-01,9.88432e-01,9.99999e-01
8.665618462e-01,9.87938e-01,9.99999e-01,9.99999e-01,9.99269e-01,9.88660e-01,9.99999e-01
8.708946554e-01,9.88054e-01,9.99999e-01,9.99999e-01,9.99162e-01,9.88882e-01,9.99999e-01
8.752491287e-01,9.87993e-01,9.99999e-01,9.99999e-01,9.98880e-01,9.89101e-01,9.99998e-01
8.796253743e-01,9.87773e-01,9.99999e-01,9.99999e-01,9.98444e-01,9.89315e-01,9.99996e-01
8.840235012e-01,9.87758e-01,9.99999e-01,9.99999e-01,9.98224e-01,9.89525e-01,9.99988e-01
8.884436187e-01,9.83192e-01,9.99999e-01,9.99999e-01,9.93423e-01,9.89731e-01,9.99968e-01
8.928858368e-01,9.24085e-01,9.99999e-01,9.99999e-01,9.33647e-01,9.89932e-01,9.99822e-01
8.973502660e-01,8.77115e-01,9.99999e-01,9.99999e-01,8.86661e-01,9.90130e-01,9.99093e-01
9.018370173e-01,9.30484e-01,9.99999e-01,9.99999e-01,9.40913e-01,9.90324e-01,9.98575e-01
9.063462024e-01,9.36800e-01,9.99999e-01,9.99999e-01,9.46955e-01,9.90514e-01,9.98748e-01
9.108779334e-01,9.09187e-01,9.99999e-01,9.99999e-01,9.18914e-01,9.90701e-01,9.98700e-01
9.154323231e-01,8.99295e-01,9.99999e-01,9.99999e-01,9.08544e-01,9.90884e-01,9.98925e-01
9.200094847e-01,9.18996e-01,9.99999e-01,9.99999e-01,9.27840e-01,9.91063e-01,9.99398e-01
9.246095321e-01,8.79580e-01,9.99999e-01,9.99999e-01,8.87969e-01,9.91239e-01,9.99306e-01
9.292325798e-01,4.54970e-01,9.99999e-01,9.99999e-01,4.60449e-01,9.91411e-01,9.96658e-01
9.338787427e-01,3.64522e-01,9.99999e-01,9.99999e-01,3.72091e-01,9.91580e-01,9.87975e-01
9.385481364e-01,6.56406e-01,9.99999e-01,9.99999e-01,6.70724e-01,9.91746e-01,9.86796e-01
9.432408771e-01,5.62986e-01,9.99999e-01,9.99999e-01,5.74123e-01,9.91908e-01,9.88598e-01
9.479570815e-01,4.59675e-01,9.99999e-01,9.99999e-01,4.67694e-01,9.92067e-01,9.90711e-01
9.526968669e-01,5.56317e-01,9.99999e-01,9.99999e-01,5.63877e-01,9.92223e-01,9.94323e-01
9.574603512e-01,5.79668e-01,9.99999e-01,9.99999e-01,5.85812e-01,9.92376e-01,9.97112e-01
9.622476530e-01,6.40614e-01,9.99999e-01,9.99999e-01,6.46729e-01,9.92526e-01,9.98002e-01
9.670588912e-01,7.70370e-01,9.99999e-01,9.99999e-01,7.77117e-01,9.92673e-01,9.98633e-01
9.718941857e-01,8.46279e-01,9.99999e-01,9.99999e-01,8.53259e-01,9.92817e-01,9.98993e-01
9.767536566e-01,8.69662e-01,9.99999e-01,9.99999e-01,8.76502e-01,9.92959e-01,9.99230e-01
9.816374249e-01,9.00586e-01,9.99999e-01,9.99999e-01,9.07086e-01,9.93097e-01,9.99733e-01
9.865456120e-01,9.34469e-01,9.99999e-01,9.99999e-01,9.40887e-01,9.93233e-01,9.99944e-01
9.914783401e-01,9.56608e-01,9.99999e-01,9.99999e-01,9.63010e-01,9.93366e-01,9.99984e-01
9.964357318e-01,9.73312e-01,9.99999e-01,9.99999e-01,9.79691e-01,9.93497e-01,9.99990e-01
1.001417910e+00,9.81475e-01,9.99999e-01,9.99999e-01,9.87785e-01,9.93625e-01,9.99985e-01
1.006425000e+00,9.86780e-01,9.99999e-01,9.99999e-01,9.93004e-01,9.93751e-01,9.99979e-01
1.011457125e+00,9.89547e-01,9.99999e-01,9.99999e-01,9.95663e-01,9.93874e-01,9.99981e-01
1.016514411e+00,9.91050e-01,9.99999e-01,9.99999e-01,9.97050e-01,9.93994e-01,9.99986e-01
1.021596983e+00,9.91762e-01,9.99999e-01,9.99999e-01,9.97647e-01,9.94112e-01,9.99986e-01
1.026704968e+00,9.92396e-01,9.99999e-01,9.99999e-01,9.98163e-01,9.94228e-01,9.99991e-01
1.031838492e+00,9.93016e-01,9.99999e-01,9.99999e-01,9.98667e-01,9.94342e-01,9.99997e-01
1.036997685e+00,9.93665e-01,9.99999e-01,9.99999e-01,9.99206e-01,9.94453e-01,9.99999e-01
1.042182673e+00,9.93619e-01,9.99999e-01,9.99999e-01,9.99051e-01,9.94563e-01,9.99999e-01
1.047393587e+00,9.93421e-01,9.99999e-01,9.99999e-01,9.98744e-01,9.94670e-01,9.99999e-01
1.052630555e+00,9.93059e-01,9.99999e-01,9.99999e-01,9.98274e-01,9.94775e-01,9.99999e-01
1.057893707e+00,9.92009e-01,9.99999e-01,9.99999e-01,9.97116e-01,9.94878e-01,9.99998e-01
1.063183176e+00,9.90264e-01,9.99999e-01,9.99999e-01,9.95263e-01,9.94979e-01,9.99997e-01
1.068499092e+00,9.87203e-01,9.99999e-01,9.99999e-01,9.92091e-01,9.95078e-01,9.99994e-01
1.073841587e+00,9.85941e-01,9.99999e-01,9.99999e-01,9.90732e-01,9.95175e-01,9.99987e-01
1.079210795e+00,9.83471e-01,9.99999e-01,9.99999e-01,9.88176e-01,9.95270e-01,9.99967e-01
1.084606849e+00,9.77495e-01,9.99999e-01,9.99999e-01,9.82123e-01,9.95363e-01,9.99923e-01
1.090029883e+00,9.69685e-01,9.99999e-01,9.99999e-01,9.74266e-01,9.95454e-01,9.99841e-01
1.095480033e+00,9.27153e-01,9.99999e-01,9.99999e-01,9.31568e-01,9.95544e-01,9.99714e-01
1.100957433e+00,8.31397e-01,9.99999e-01,9.99999e-01,8.35483e-01,9.95632e-01,9.99474e-01
1.106462220e+00,6.31971e-01,9.99999e-01,9.99999e-01,6.35255e-01,9.95718e-01,9.99108e-01
1.111994531e+00,3.87454e-01,9.99999e-01,9.99999e-01,3.90009e-01,9.95802e-01,9.97635e-01
1.117554504e+00,2.18522e-01,9.99999e-01,9.99999e-01,2.21308e-01,9.95885e-01,9.91492e-01
1.123142276e+00,3.31928e-01,9.99999e-01,9.99999e-01,3.40094e-01,9.95966e-01,9.79942e-01
1.128757988e+00,4.78357e-01,9.99999e-01,9.99999e-01,4.91646e-01,9.96045e-01,9.76833e-01
1.134401778e+00,2.49040e-01,9.99999e-01,9.99999e-01,2.55042e-01,9.96123e-01,9.80266e-01
1.140073787e+00,6.37462e-01,9.99999e-01,9.99999e-01,6.50164e-01,9.96200e-01,9.84201e-01
1.145774156e+00,4.07340e-01,9.99999e-01,9.99999e-01,4.14866e-01,9.96275e-01,9.85529e-01
1.151503026e+00,3.72620e-01,9.99999e-01,9.99999e-01,3.77034e-01,9.96348e-01,9.91912e-01
1.157260541e+00,4.32787e-01,9.99999e-01,9.99999e-01,4.35397e-01,9.96420e-01,9.97574e-01
1.163046844e+00,5.38161e-01,9.99999e-01,9.99999e-01,5.40427e-01,9.96491e-01,9.99311e-01
1.168862078e+00,6.47567e-01,9.99999e-01,9.99999e-01,6.50032e-01,9.96560e-01,9.99645e-01
1.174706389e+00,7.63465e-01,9.99999e-01,9.99999e-01,7.66408e-01,9.96628e-01,9.99529e-01
1.180579921e+00,8.46912e-01,9.99999e-01,9.99999e-01,8.50325e-01,9.96694e-01,9.99289e-01
1.186482820e+00,9.08656e-01,9.99999e-01,9.99999e-01,9.12274e-01,9.96759e-01,9.99270e-01
1.192415234e+00,9.44238e-01,9.99999e-01,9.99999e-01,9.47764e-01,9.96823e-01,9.99453e-01
1.198377311e+00,9.52249e-01,9.99999e-01,9.99999e-01,9.55718e-01,9.96886e-01,9.99481e-01
1.204369197e+00,9.54750e-01,9.99999e-01,9.99999e-01,9.58105e-01,9.96947e-01,9.99548e-01
1.210391043e+00,9.56752e-01,9.99999e-01,9.99999e-01,9.59895e-01,9.97007e-01,9.99715e-01
1.216442998e+00,9.62852e-01,9.99999e-01,9.99999e-01,9.65852e-01,9.97066e-01,9.99825e-01
1.222525213e+00,9.70384e-01,9.99999e-01,9.99999e-01,9.73286e-01,9.97124e-01,9.99891e-01
1.228637839e+00,9.78548e-01,9.99999e-01,9.99999e-01,9.81363e-01,9.97181e-01,9.99949e-01
