#,Wave/freq,Total,N2,O2,H2O,Rayleigh,CIA
4.000000000e-01,4.69658e-01,9.99999e-01,9.99999e-01,9.99914e-01,4.69698e-01,9.99999e-01
4.020000000e-01,4.76743e-01,9.99999e-01,9.99999e-01,9.99946e-01,4.76768e-01,9.99999e-01
4.040100000e-01,4.83784e-01,9.99999e-01,9.99999e-01,9.99977e-01,4.83795e-01,9.99999e-01
4.060300500e-01,4.90781e-01,9.99999e-01,9.99999e-01,9.99994e-01,4.90784e-01,9.99999e-01
4.080602003e-01,4.97732e-01,9.99999e-01,9.99999e-01,9.99997e-01,4.97732e-01,9.99999e-01
4.101005013e-01,5.04639e-01,9.99999e-01,9.99999e-01,9.99999e-01,5.04639e-01,9.99999e-01
4.121510038e-01,5.11501e-01,9.99999e-01,9.99999e-01,9.99996e-01,5.11503e-01,9.99999e-01
4.142117588e-01,5.18309e-01,9.99999e-01,9.99999e-01,9.99975e-01,5.18321e-01,9.99999e-01
4.162828176e-01,5.25038e-01,9.99999e-01,9.99999e-01,9.99894e-01,5.25093e-01,9.99999e-01
4.183642317e-01,5.31784e-01,9.99999e-01,9.99999e-01,9.99936e-01,5.31817e-01,9.99999e-01
4.204560528e-01,5.38471e-01,9.99999e-01,9.99999e-01,9.99961e-01,5.38492e-01,9.99999e-01
4.225583331e-01,5.45108e-01,9.99999e-01,9.99999e-01,9.99985e-01,5.45116e-01,9.99999e-01
4.246711247e-01,5.51682e-01,9.99999e-01,9.99999e-01,9.99987e-01,5.51689e-01,9.99999e-01
4.267944804e-01,5.58199e-01,9.99999e-01,9.99999e-01,9.99982e-01,5.58208e-01,9.99999e-01
4.289284528e-01,5.64666e-01,9.99999e-01,9.99999e-01,9.99986e-01,5.64674e-01,9.99999e-01
4.310730950e-01,5.71081e-01,9.99999e-01,9.99999e-01,9.99994e-01,5.71084e-01,9.99999e-01
4.332284605e-01,5.77438e-01,9.99999e-01,9.99999e-01,9.99998e-01,5.77439e-01,9.99999e-01
4.353946028e-01,5.83736e-01,9.99999e-01,9.99999e-01,9.99998e-01,5.83736e-01,9.99999e-01
4.375715758e-01,5.89970e-01,9.99999e-01,9.99999e-01,9.99988e-01,5.89976e-01,9.99999e-01
4.397594337e-01,5.96102e-01,9.99999e-01,9.99999e-01,9.99905e-01,5.96158e-01,9.99999e-01
4.419582309e-01,6.01992e-01,9.99999e-01,9.99999e-01,9.99522e-01,6.02280e-01,9.99999e-01
4.441680220e-01,6.08120e-01,9.99999e-01,9.99999e-01,9.99634e-01,6.08342e-01,9.99999e-01
4.463888621e-01,6.14109e-01,9.99999e-01,9.99999e-01,9.99617e-01,6.14344e-01,9.99999e-01
4.486208064e-01,6.20138e-01,9.99999e-01,9.99999e-01,9.99763e-01,6.20284e-01,9.99999e-01
4.508639105e-01,6.26094e-01,9.99999e-01,9.99999e-01,9.99888e-01,6.26163e-01,9.99999e-01
4.531182300e-01,6.31953e-01,9.99999e-01,9.99999e-01,9.99955e-01,6.31980e-01,9.99999e-01
4.553838212e-01,6.37716e-01,9.99999e-01,9.99999e-01,9.99969e-01,6.37735e-01,9.99999e-01
4.576607403e-01,6.43418e-01,9.99999e-01,9.99999e-01,9.99985e-01,6.43427e-01,9.99999e-01
4.599490440e-01,6.49049e-01,9.99999e-01,9.99999e-01,9.99989e-01,6.49055e-01,9.99999e-01
4.622487892e-01,6.54619e-01,9.99999e-01,9.99999e-01,9.99997e-01,6.54620e-01,9.99999e-01
4.645600332e-01,6.60117e-01,9.99999e-01,9.99999e-01,9.99992e-01,6.60122e-01,9.99999e-01
4.668828333e-01,6.65484e-01,9.99999e-01,9.99999e-01,9.99886e-01,6.65560e-01,9.99999e-01
4.692172475e-01,6.70773e-01,9.99999e-01,9.99999e-01,9.99759e-01,6.70934e-01,9.99999e-01
4.715633337e-01,6.76137e-01,9.99999e-01,9.99999e-01,9.99842e-01,6.76243e-01,9.99999e-01
4.739211504e-01,6.81387e-01,9.99999e-01,9.99999e-01,9.99850e-01,6.81489e-01,9.99999e-01
4.762907561e-01,6.86618e-01,9.99999e-01,9.99999e-01,9.99922e-01,6.86671e-01,9.99999e-01
4.786722099e-01,6.91766e-01,9.99999e-01,9.99999e-01,9.99967e-01,6.91788e-01,9.99999e-01
4.810655710e-01,6.96835e-01,9.99999e-01,9.99999e-01,9.99989e-01,6.96841e-01,9.99999e-01
4.834708988e-01,7.01765e-01,9.99999e-01,9.99999e-01,9.99905e-01,7.01831e-01,9.99999e-01
4.858882533e-01,7.06637e-01,9.99999e-01,9.99999e-01,9.99830e-01,7.06756e-01,9.99999e-01
4.883176946e-01,7.11517e-01,9.99999e-01,9.99999e-01,9.99857e-01,7.11618e-01,9.99999e-01
4.907592831e-01,7.16325e-01,9.99999e-01,9.99999e-01,9.99871e-01,7.16416e-01,9.99999e-01
4.932130795e-01,7.21086e-01,9.99999e-01,9.99999e-01,9.99908e-01,7.21151e-01,9.99999e-01
4.956791449e-01,7.25788e-01,9.99999e-01,9.99999e-01,9.99951e-01,7.25823e-01,9.99999e-01
4.981575406e-01,7.30255e-01,9.99999e-01,9.99999e-01,9.99757e-01,7.30432e-01,9.99999e-01
5.006483283e-01,7.34511e-01,9.99999e-01,9.99999e-01,9.99368e-01,7.34978e-01,9.99995e-01
5.031515699e-01,7.37092e-01,9.99999e-01,9.99999e-01,9.96828e-01,7.39462e-01,9.99966e-01
5.056673278e-01,7.42614e-01,9.99999e-01,9.99999e-01,9.98330e-01,7.43883e-01,9.99961e-01
5.081956644e-01,7.46652e-01,9.99999e-01,9.99999e-01,9.97895e-01,7.48244e-01,9.99976e-01
5.107366428e-01,7.51471e-01,9.99999e-01,9.99999e-01,9.98579e-01,7.52542e-01,9.99995e-01
5.132903260e-01,7.56167e-01,9.99999e-01,9.99999e-01,9.99189e-01,7.56780e-01,9.99998e-01
5.158567776e-01,7.60697e-01,9.99999e-01,9.99999e-01,9.99657e-01,7.60957e-01,9.99999e-01
5.184360615e-01,7.64970e-01,9.99999e-01,9.99999e-01,9.99862e-01,7.65075e-01,9.99999e-01
5.210282418e-01,7.69092e-01,9.99999e-01,9.99999e-01,9.99948e-01,7.69132e-01,9.99999e-01
5.236333830e-01,7.72970e-01,9.99999e-01,9.99999e-01,9.99793e-01,7.73130e-01,9.99998e-01
5.262515499e-01,7.76968e-01,9.99999e-01,9.99999e-01,9.99870e-01,7.77070e-01,9.99997e-01
5.288828077e-01,7.80857e-01,9.99999e-01,9.99999e-01,9.99880e-01,7.80951e-01,9.99998e-01
5.315272217e-01,7.84692e-01,9.99999e-01,9.99999e-01,9.99895e-01,7.84774e-01,9.99999e-01
5.341848578e-01,7.88486e-01,9.99999e-01,9.99999e-01,9.99931e-01,7.88540e-01,9.99999e-01
5.368557821e-01,7.92057e-01,9.99999e-01,9.99999e-01,9.99757e-01,7.92249e-01,9.99998e-01
5.395400610e-01,7.95197e-01,9.99999e-01,9.99999e-01,9.99122e-01,7.95902e-01,9.99991e-01
5.422377613e-01,7.98588e-01,9.99999e-01,9.99999e-01,9.98881e-01,7.99498e-01,9.99978e-01
5.449489501e-01,8.02182e-01,9.99999e-01,9.99999e-01,9.98952e-01,8.03040e-01,9.99978e-01
5.476736949e-01,8.05777e-01,9.99999e-01,9.99999e-01,9.99079e-01,8.06527e-01,9.99989e-01
5.504120634e-01,8.09416e-01,9.99999e-01,9.99999e-01,9.99331e-01,8.09960e-01,9.99996e-01
5.531641237e-01,8.13065e-01,9.99999e-01,9.99999e-01,9.99663e-01,8.13339e-01,9.99999e-01
5.559299443e-01,8.16532e-01,9.99999e-01,9.99999e-01,9.99837e-01,8.16665e-01,9.99999e-01
5.587095940e-01,8.19855e-01,9.99999e-01,9.99999e-01,9.99897e-01,8.19938e-01,9.99999e-01
5.615031420e-01,8.23066e-01,9.99999e-01,9.99999e-01,9.99885e-01,8.23160e-01,9.99999e-01
5.643106577e-01,8.26221e-01,9.99999e-01,9.99999e-01,9.99869e-01,8.26330e-01,9.99998e-01
5.671322110e-01,8.28117e-01,9.99999e-01,9.99999e-01,9.98406e-01,8.29450e-01,9.99985e-01
5.699678720e-01,8.31109e-01,9.99999e-01,9.99999e-01,9.98348e-01,8.32519e-01,9.99956e-01
5.728177114e-01,8.34057e-01,9.99999e-01,9.99999e-01,9.98261e-01,8.35538e-01,9.99964e-01
5.756818000e-01,8.37157e-01,9.99999e-01,9.99999e-01,9.98407e-01,8.38509e-01,9.99978e-01
5.785602090e-01,8.40261e-01,9.99999e-01,9.99999e-01,9.98614e-01,8.41431e-01,9.99993e-01
5.814530100e-01,8.43126e-01,9.99999e-01,9.99999e-01,9.98605e-01,8.44306e-01,9.99996e-01
5.843602750e-01,8.45708e-01,9.99999e-01,9.99999e-01,9.98326e-01,8.47133e-01,9.99990e-01
5.872820764e-01,8.37672e-01,9.99999e-01,9.99999e-01,9.85695e-01,8.49913e-01,9.99898e-01
5.902184868e-01,8.37759e-01,9.99999e-01,9.99999e-01,9.82807e-01,8.52648e-01,9.99725e-01
5.931695792e-01,8.44684e-01,9.99999e-01,9.99999e-01,9.87804e-01,8.55337e-01,9.99735e-01
5.961354271e-01,8.46404e-01,9.99999e-01,9.99999e-01,9.86656e-01,8.57981e-01,9.99847e-01
5.991161043e-01,8.52158e-01,9.99999e-01,9.99999e-01,9.90258e-01,8.60581e-01,9.99952e-01
6.021116848e-01,8.58358e-01,9.99999e-01,9.99999e-01,9.94467e-01,8.63137e-01,9.99994e-01
6.051222432e-01,8.63225e-01,9.99999e-01,9.99999e-01,9.97198e-01,8.65650e-01,9.99999e-01
6.081478544e-01,8.67070e-01,9.99999e-01,9.99999e-01,9.98789e-01,8.68120e-01,9.99999e-01
6.111885937e-01,8.70104e-01,9.99999e-01,9.99999e-01,9.99489e-01,8.70549e-01,9.99999e-01
6.142445367e-01,8.72736e-01,9.99999e-01,9.99999e-01,9.99771e-01,8.72936e-01,9.99999e-01
6.173157594e-01,8.75172e-01,9.99999e-01,9.99999e-01,9.99873e-01,8.75282e-01,9.99999e-01
6.204023382e-01,8.77494e-01,9.99999e-01,9.99999e-01,9.99892e-01,8.77588e-01,9.99999e-01
6.235043498e-01,8.79432e-01,9.99999e-01,9.99999e-01,9.99520e-01,8.79854e-01,9.99998e-01
6.266218716e-01,8.79865e-01,9.99999e-01,9.99999e-01,9.97503e-01,8.82082e-01,9.99982e-01
6.297549810e-01,8.83430e-01,9.99999e-01,9.99999e-01,9.99083e-01,8.84271e-01,9.99964e-01
6.329037559e-01,8.84797e-01,9.99999e-01,9.99999e-01,9.98194e-01,8.86421e-01,9.99971e-01
6.360682746e-01,8.87148e-01,9.99999e-01,9.99999e-01,9.98455e-01,8.88535e-01,9.99982e-01
6.392486160e-01,8.88827e-01,9.99999e-01,9.99999e-01,9.98003e-01,8.90611e-01,9.99992e-01
6.424448591e-01,8.90237e-01,9.99999e-01,9.99999e-01,9.97308e-01,8.92652e-01,9.99986e-01
6.456570834e-01,8.83468e-01,9.99999e-01,9.99999e-01,9.87567e-01,8.94656e-01,9.99924e-01
6.488853688e-01,8.88368e-01,9.99999e-01,9.99999e-01,9.90980e-01,8.96625e-01,9.99807e-01
6.521297956e-01,8.90163e-01,9.99999e-01,9.99999e-01,9.90811e-01,8.98560e-01,9.99840e-01
6.553904446e-01,8.92073e-01,9.99999e-01,9.99999e-01,9.90801e-01,9.00461e-01,9.99881e-01
6.586673968e-01,8.95212e-01,9.99999e-01,9.99999e-01,9.92152e-01,9.02327e-01,9.99960e-01
6.619607338e-01,9.00193e-01,9.99999e-01,9.99999e-01,9.95619e-01,9.04161e-01,9.99991e-01
6.652705375e-01,9.03575e-01,9.99999e-01,9.99999e-01,9.97368e-01,9.05962e-01,9.99995e-01
6.685968902e-01,9.06716e-01,9.99999e-01,9.99999e-01,9.98881e-01,9.07731e-01,9.99998e-01
6.719398746e-01,9.08954e-01,9.99999e-01,9.99999e-01,9.99433e-01,9.09468e-01,9.99999e-01
6.752995740e-01,9.10902e-01,9.99999e-01,9.99999e-01,9.99700e-01,9.11175e-01,9.99999e-01
6.786760719e-01,9.12441e-01,9.99999e-01,9.99999e-01,9.99551e-01,9.12850e-01,9.99998e-01
6.820694522e-01,9.13795e-01,9.99999e-01,9.99999e-01,9.99237e-01,9.14496e-01,9.99995e-01
6.854797995e-01,9.15203e-01,9.99999e-01,9.99999e-01,9.99015e-01,9.16112e-01,9.99991e-01
6.889071985e-01,9.15466e-01,9.99999e-01,9.99999e-01,9.97587e-01,9.17699e-01,9.99978e-01
6.923517345e-01,8.83897e-01,9.99999e-01,9.99999e-01,9.61712e-01,9.19257e-01,9.99813e-01
6.958134932e-01,9.02284e-01,9.99999e-01,9.99999e-01,9.80308e-01,9.20787e-01,9.99587e-01
6.992925606e-01,9.04324e-01,9.99999e-01,9.99999e-01,9.80884e-01,9.22289e-01,9.99628e-01
7.027890234e-01,9.01910e-01,9.99999e-01,9.99999e-01,9.76619e-01,9.23764e-01,9.99716e-01
7.063029686e-01,9.06836e-01,9.99999e-01,9.99999e-01,9.80275e-01,9.25212e-01,9.99858e-01
7.098344834e-01,9.09011e-01,9.99999e-01,9.99999e-01,9.81063e-01,9.26634e-01,9.99916e-01
7.133836558e-01,9.04325e-01,9.99999e-01,9.99999e-01,9.74618e-01,9.28029e-01,9.99833e-01
7.169505741e-01,7.58109e-01,9.99999e-01,9.99999e-01,8.16761e-01,9.29400e-01,9.98695e-01
7.205353270e-01,8.41966e-01,9.99999e-01,9.99999e-01,9.06700e-01,9.30745e-01,9.97700e-01
7.241380036e-01,8.19653e-01,9.99999e-01,9.99999e-01,8.81143e-01,9.32065e-01,9.98013e-01
7.277586936e-01,8.31433e-01,9.99999e-01,9.99999e-01,8.92242e-01,9.33361e-01,9.98375e-01
7.313974871e-01,8.27440e-01,9.99999e-01,9.99999e-01,8.85982e-01,9.34633e-01,9.99238e-01
7.350544745e-01,8.75527e-01,9.99999e-01,9.99999e-01,9.35756e-01,9.35882e-01,9.99735e-01
7.387297469e-01,8.92248e-01,9.99999e-01,9.99999e-01,9.52244e-01,9.37108e-01,9.99878e-01
7.424233956e-01,9.16119e-01,9.99999e-01,9.99999e-01,9.76368e-01,9.38311e-01,9.99978e-01
7.461355126e-01,9.25950e-01,9.99999e-01,9.99999e-01,9.85589e-01,9.39492e-01,9.99995e-01
7.498661902e-01,9.34332e-01,9.99999e-01,9.99999e-01,9.93283e-01,9.40651e-01,9.99998e-01
7.536155211e-01,9.38671e-01,9.99999e-01,9.99999e-01,9.96690e-01,9.41788e-01,9.99998e-01
7.573835987e-01,9.41298e-01,9.99999e-01,9.99999e-01,9.98295e-01,9.42905e-01,9.99999e-01
7.611705167e-01,9.43000e-01,9.99999e-01,9.99999e-01,9.98940e-01,9.44000e-01,9.99999e-01
7.649763693e-01,9.44447e-01,9.99999e-01,9.99999e-01,9.99334e-01,9.45075e-01,9.99999e-01
7.688012511e-01,9.45692e-01,9.99999e-01,9.99999e-01,9.99536e-01,9.46131e-01,9.99999e-01
7.726452574e-01,9.46804e-01,9.99999e-01,9.99999e-01,9.99618e-01,9.47166e-01,9.99999e-01
7.765084837e-01,9.47664e-01,9.99999e-01,9.99999e-01,9.99453e-01,9.48182e-01,9.99998e-01
7.803910261e-01,9.46935e-01,9.99999e-01,9.99999e-01,9.97637e-01,9.49179e-01,9.99997e-01
7.842929812e-01,9.42331e-01,9.99999e-01,9.99999e-01,9.91777e-01,9.50157e-01,9.99984e-01
7.882144461e-01,9.35086e-01,9.99999e-01,9.99999e-01,9.83258e-01,9.51117e-01,9.99883e-01
7.921555184e-01,9.43143e-01,9.99999e-01,9.99999e-01,9.90833e-01,9.52059e-01,9.99798e-01
7.961162960e-01,9.37258e-01,9.99999e-01,9.99999e-01,9.83685e-01,9.52984e-01,9.99808e-01
8.000968774e-01,9.35824e-01,9.99999e-01,9.99999e-01,9.81259e-01,9.53891e-01,9.99796e-01
8.040973618e-01,9.36720e-01,9.99999e-01,9.99999e-01,9.81235e-01,9.54781e-01,9.99844e-01
8.081178486e-01,9.15450e-01,9.99999e-01,9.99999e-01,9.58080e-01,9.55654e-01,9.99842e-01
8.121584379e-01,8.01073e-01,9.99999e-01,9.99999e-01,8.37993e-01,9.56510e-01,9.99404e-01
8.162192301e-01,7.76416e-01,9.99999e-01,9.99999e-01,8.12822e-01,9.57351e-01,9.97762e-01
8.203003262e-01,8.62596e-01,9.99999e-01,9.99999e-01,9.02612e-01,9.58175e-01,9.97380e-01
8.244018279e-01,8.33202e-01,9.99999e-01,9.99999e-01,8.70652e-01,9.58984e-01,9.97914e-01
8.285238370e-01,8.45430e-01,9.99999e-01,9.99999e-01,8.82304e-01,9.59778e-01,9.98361e-01
8.326664562e-01,8.46417e-01,9.99999e-01,9.99999e-01,8.81771e-01,9.60556e-01,9.99321e-01
8.368297885e-01,8.78173e-01,9.99999e-01,9.99999e-01,9.13648e-01,9.61320e-01,9.99844e-01
8.410139374e-01,9.11670e-01,9.99999e-01,9.99999e-01,9.47698e-01,9.62069e-01,9.99908e-01
8.452190071e-01,9.37726e-01,9.99999e-01,9.99999e-01,9.74004e-01,9.62805e-01,9.99945e-01
8.494451021e-01,9.48817e-01,9.99999e-01,9.99999e-01,9.84776e-01,9.63526e-01,9.99956e-01
8.536923276e-01,9.55529e-01,9.99999e-01,9.99999e-01,9.90998e-01,9.64233e-01,9.99973e-01
8.579607893e-01,9.59549e-01,9.99999e-01,9.99999e-01,9.94432e-01,9.64927e-01,9.99993e-01
8.622505932e-01,9.62196e-01,9.99999e-01,9.99999e-01,9.96467e-01,9.65608e-01,9.99998e-01
8.665618462e-01,9.64156e-01,9.99999e-01,9.99999e-01,9.97806e-01,9.66275e-01,9.99998e-01
8.708946554e-01,9.64496e-01,9.99999e-01,9.99999e-01,9.97483e-01,9.66930e-01,9.99998e-01
8.752491287e-01,9.64316e-01,9.99999e-01,9.99999e-01,9.96637e-01,9.67573e-01,9.99995e-01
8.796253743e-01,9.63674e-01,9.99999e-01,9.99999e-01,9.95332e-01,9.68203e-01,9.99989e-01
8.840235012e-01,9.63631e-01,9.99999e-01,9.99999e-01,9.94674e-01,9.68821e-01,9.99967e-01
8.884436187e-01,9.50431e-01,9.99999e-01,9.99999e-01,9.80494e-01,9.69428e-01,9.99907e-01
8.928858368e-01,7.91745e-01,9.99999e-01,9.99999e-01,8.16647e-01,9.70022e-01,9.99468e-01
8.973502660e-01,6.80056e-01,9.99999e-01,9.99999e-01,7.02562e-01,9.70606e-01,9.97278e-01
9.018370173e-01,8.08729e-01,9.99999e-01,9.99999e-01,8.36304e-01,9.71178e-01,9.95724e-01
9.063462024e-01,8.24465e-01,9.99999e-01,9.99999e-01,8.51641e-01,9.71739e-01,9.96243e-01
9.108779334e-01,7.55066e-01,9.99999e-01,9.99999e-01,7.79628e-01,9.72289e-01,9.96096e-01
9.154323231e-01,7.30235e-01,9.99999e-01,9.99999e-01,7.53059e-01,9.72829e-01,9.96772e-01
9.200094847e-01,7.79218e-01,9.99999e-01,9.99999e-01,8.01995e-01,9.73359e-01,9.98192e-01
9.246095321e-01,6.94691e-01,9.99999e-01,9.99999e-01,7.14812e-01,9.73878e-01,9.97917e-01
9.292325798e-01,1.26594e-01,9.99999e-01,9.99999e-01,1.31235e-01,9.74387e-01,9.89985e-01
9.338787427e-01,6.76046e-02,9.99999e-01,9.99999e-01,7.19154e-02,9.74887e-01,9.64273e-01
9.385481364e-01,3.20107e-01,9.99999e-01,9.99999e-01,3.41571e-01,9.75377e-01,9.60817e-01
9.432408771e-01,2.23668e-01,9.99999e-01,9.99999e-01,2.37243e-01,9.75857e-01,9.66104e-01
9.479570815e-01,1.27716e-01,9.99999e-01,9.99999e-01,1.34536e-01,9.76328e-01,9.72325e-01
9.526968669e-01,2.02175e-01,9.99999e-01,9.99999e-01,2.10552e-01,9.76790e-01,9.83027e-01
9.574603512e-01,2.18232e-01,9.99999e-01,9.99999e-01,2.25263e-01,9.77243e-01,9.91342e-01
9.622476530e-01,2.82294e-01,9.99999e-01,9.99999e-01,2.90477e-01,9.77688e-01,9.94005e-01
9.670588912e-01,4.72638e-01,9.99999e-01,9.99999e-01,4.85200e-01,9.78124e-01,9.95896e-01
9.718941857e-01,6.10241e-01,9.99999e-01,9.99999e-01,6.25507e-01,9.78551e-01,9.96977e-01
9.767536566e-01,6.60989e-01,9.99999e-01,9.99999e-01,6.76751e-01,9.78970e-01,9.97689e-01
9.816374249e-01,7.31723e-01,9.99999e-01,9.99999e-01,7.47725e-01,9.79381e-01,9.99199e-01
9.865456120e-01,8.16319e-01,9.99999e-01,9.99999e-01,8.33300e-01,9.79784e-01,9.99832e-01
9.914783401e-01,8.75294e-01,9.99999e-01,9.99999e-01,8.93033e-01,9.80180e-01,9.99953e-01
9.964357318e-01,9.21949e-01,9.99999e-01,9.99999e-01,9.40244e-01,9.80567e-01,9.99972e-01
1.001417910e+00,9.45334e-01,9.99999e-01,9.99999e-01,9.63733e-01,9.80948e-01,9.99958e-01
1.006425000e+00,9.60768e-01,9.99999e-01,9.99999e-01,9.79113e-01,9.81320e-01,9.99940e-01
1.011457125e+00,9.68889e-01,9.99999e-01,9.99999e-01,9.87017e-01,9.81686e-01,9.99944e-01
1.016514411e+00,9.73322e-01,9.99999e-01,9.99999e-01,9.91156e-01,9.82044e-01,9.99961e-01
1.021596983e+00,9.75426e-01,9.99999e-01,9.99999e-01,9.92942e-01,9.82396e-01,9.99961e-01
1.026704968e+00,9.77302e-01,9.99999e-01,9.99999e-01,9.94489e-01,9.82741e-01,9.99975e-01
1.031838492e+00,9.79139e-01,9.99999e-01,9.99999e-01,9.95999e-01,9.83079e-01,9.99992e-01
1.036997685e+00,9.81066e-01,9.99999e-01,9.99999e-01,9.97617e-01,9.83410e-01,9.99998e-01
1.042182673e+00,9.80932e-01,9.99999e-01,9.99999e-01,9.97150e-01,9.83735e-01,9.99999e-01
1.047393587e+00,9.80343e-01,9.99999e-01,9.99999e-01,9.96229e-01,9.84054e-01,9.99998e-01
1.052630555e+00,9.79269e-01,9.99999e-01,9.99999e-01,9.94822e-01,9.84366e-01,9.99998e-01
1.057893707e+00,9.76161e-01,9.99999e-01,9.99999e-01,9.91358e-01,9.84673e-01,9.99996e-01
1.063183176e+00,9.71016e-01,9.99999e-01,9.99999e-01,9.85836e-01,9.84973e-01,9.99992e-01
1.068499092e+00,9.62034e-01,9.99999e-01,9.99999e-01,9.76434e-01,9.85268e-01,9.99983e-01
1.073841587e+00,9.58387e-01,9.99999e-01,9.99999e-01,9.72465e-01,9.85556e-01,9.99964e-01
1.079210795e+00,9.51173e-01,9.99999e-01,9.99999e-01,9.64926e-01,9.85840e-01,9.99904e-01
1.084606849e+00,9.34000e-01,9.99999e-01,9.99999e-01,9.47365e-01,9.86117e-01,9.99770e-01
1.090029883e+00,9.12038e-01,9.99999e-01,9.99999e-01,9.25060e-01,9.86390e-01,9.99525e-01
1.095480033e+00,7.97844e-01,9.99999e-01,9.99999e-01,8.09327e-01,9.86657e-01,9.99141e-01
1.100957433e+00,5.80239e-01,9.99999e-01,9.99999e-01,5.88859e-01,9.86919e-01,9.98420e-01
1.106462220e+00,2.73206e-01,9.99999e-01,9.99999e-01,2.77498e-01,9.87175e-01,9.97322e-01
1.111994531e+00,7.24038e-02,9.99999e-01,9.99999e-01,7.38494e-02,9.87427e-01,9.92908e-01
1.117554504e+00,1.70195e-02,9.99999e-01,9.99999e-01,1.76803e-02,9.87674e-01,9.74632e-01
1.123142276e+00,6.10122e-02,9.99999e-01,9.99999e-01,6.56386e-02,9.87916e-01,9.40885e-01
1.128757988e+00,1.32285e-01,9.99999e-01,9.99999e-01,1.43648e-01,9.88153e-01,9.31936e-01
1.134401778e+00,6.12395e-02,9.99999e-01,9.99999e-01,6.57863e-02,9.88386e-01,9.41822e-01
1.140073787e+00,2.77391e-01,9.99999e-01,9.99999e-01,2.94349e-01,9.88614e-01,9.53238e-01
1.145774156e+00,9.14676e-02,9.99999e-01,9.99999e-01,9.66451e-02,9.88837e-01,9.57110e-01
1.151503026e+00,7.21881e-02,9.99999e-01,9.99999e-01,7.47910e-02,9.89057e-01,9.75875e-01
1.157260541e+00,9.34138e-02,9.99999e-01,9.99999e-01,9.51187e-02,9.89272e-01,9.92724e-01
1.163046844e+00,1.70845e-01,9.99999e-01,9.99999e-01,1.73018e-01,9.89482e-01,9.97932e-01
1.168862078e+00,2.79541e-01,9.99999e-01,9.99999e-01,2.82755e-01,9.89689e-01,9.98934e-01
1.174706389e+00,4.51434e-01,9.99999e-01,9.99999e-01,4.56688e-01,9.89892e-01,9.98587e-01
1.180579921e+00,6.10843e-01,9.99999e-01,9.99999e-01,6.18276e-01,9.90090e-01,9.97864e-01
1.186482820e+00,7.50829e-01,9.99999e-01,9.99999e-01,7.59859e-01,9.90285e-01,9.97808e-01
1.192415234e+00,8.41784e-01,9.99999e-01,9.99999e-01,8.51275e-01,9.90476e-01,9.98358e-01
1.198377311e+00,8.63490e-01,9.99999e-01,9.99999e-01,8.72987e-01,9.90663e-01,9.98442e-01
1.204369197e+00,8.70701e-01,9.99999e-01,9.99999e-01,8.79937e-01,9.90847e-01,9.98642e-01
1.210391043e+00,8.75927e-01,9.99999e-01,9.99999e-01,8.84612e-01,9.91027e-01,9.99146e-01
1.216442998e+00,8.92748e-01,9.99999e-01,9.99999e-01,9.01141e-01,9.91203e-01,9.99476e-01
1.222525213e+00,9.13680e-01,9.99999e-01,9.99999e-01,9.21926e-01,9.91376e-01,9.99674e-01
1.228637839e+00,9.36924e-01,9.99999e-01,9.99999e-01,9.45054e-01,9.91546e-01,9.99848e-01
