#,Wave/freq,Total,N2,O2,H2O,Rayleigh,CIA
4.000000000e-01,8.38744e-01,9.99999e-01,9.99999e-01,9.99979e-01,8.38761e-01,9.99999e-01
4.020000000e-01,8.41672e-01,9.99999e-01,9.99999e-01,9.99987e-01,8.41682e-01,9.99999e-01
4.040100000e-01,8.44548e-01,9.99999e-01,9.99999e-01,9.99994e-01,8.44552e-01,9.99999e-01
4.060300500e-01,8.47374e-01,9.99999e-01,9.99999e-01,9.99998e-01,8.47375e-01,9.99999e-01
4.080602003e-01,8.50152e-01,9.99999e-01,9.99999e-01,9.99999e-01,8.50152e-01,9.99999e-01
4.101005013e-01,8.52882e-01,9.99999e-01,9.99999e-01,9.99999e-01,8.52882e-01,9.99999e-01
4.121510038e-01,8.55567e-01,9.99999e-01,9.99999e-01,9.99998e-01,8.55568e-01,9.99999e-01
4.142117588e-01,8.58203e-01,9.99999e-01,9.99999e-01,9.99994e-01,8.58208e-01,9.99999e-01
4.162828176e-01,8.60783e-01,9.99999e-01,9.99999e-01,9.99974e-01,8.60804e-01,9.99999e-01
4.183642317e-01,8.63343e-01,9.99999e-01,9.99999e-01,9.99984e-01,8.63356e-01,9.99999e-01
4.204560528e-01,8.65857e-01,9.99999e-01,9.99999e-01,9.99990e-01,8.65865e-01,9.99999e-01
4.225583331e-01,8.68329e-01,9.99999e-01,9.99999e-01,9.99996e-01,8.68332e-01,9.99999e-01
4.246711247e-01,8.70755e-01,9.99999e-01,9.99999e-01,9.99996e-01,8.70757e-01,9.99999e-01
4.267944804e-01,8.73137e-01,9.99999e-01,9.99999e-01,9.99995e-01,8.73140e-01,9.99999e-01
4.289284528e-01,8.75481e-01,9.99999e-01,9.99999e-01,9.99996e-01,8.75483e-01,9.99999e-01
4.310730950e-01,8.77785e-01,9.99999e-01,9.99999e-01,9.99998e-01,8.77786e-01,9.99999e-01
4.332284605e-01,8.80049e-01,9.99999e-01,9.99999e-01,9.99999e-01,8.80049e-01,9.99999e-01
4.353946028e-01,8.82273e-01,9.99999e-01,9.99999e-01,9.99999e-01,8.82273e-01,9.99999e-01
4.375715758e-01,8.84456e-01,9.99999e-01,9.99999e-01,9.99997e-01,8.84458e-01,9.99999e-01
4.397594337e-01,8.86587e-01,9.99999e-01,9.99999e-01,9.99978e-01,8.86606e-01,9.99999e-01
4.419582309e-01,8.88620e-01,9.99999e-01,9.99999e-01,9.99891e-01,8.88716e-01,9.99999e-01
4.441680220e-01,8.90713e-01,9.99999e-01,9.99999e-01,9.99913e-01,8.90790e-01,9.99999e-01
4.463888621e-01,8.92747e-01,9.99999e-01,9.99999e-01,9.99910e-01,8.92827e-01,9.99999e-01
4.486208064e-01,8.94778e-01,9.99999e-01,9.99999e-01,9.99943e-01,8.94828e-01,9.99999e-01
4.508639105e-01,8.96771e-01,9.99999e-01,9.99999e-01,9.99973e-01,8.96794e-01,9.99999e-01
4.531182300e-01,8.98717e-01,9.99999e-01,9.99999e-01,9.99989e-01,8.98726e-01,9.99999e-01
4.553838212e-01,9.00617e-01,9.99999e-01,9.99999e-01,9.99992e-01,9.00623e-01,9.99999e-01
4.576607403e-01,9.02484e-01,9.99999e-01,9.99999e-01,9.99996e-01,9.02487e-01,9.99999e-01
4.599490440e-01,9.04316e-01,9.99999e-01,9.99999e-01,9.99997e-01,9.04318e-01,9.99999e-01
4.622487892e-01,9.06116e-01,9.99999e-01,9.99999e-01,9.99999e-01,9.06116e-01,9.99999e-01
4.645600332e-01,9.07881e-01,9.99999e-01,9.99999e-01,9.99997e-01,9.07883e-01,9.99999e-01
4.668828333e-01,9.09594e-01,9.99999e-01,9.99999e-01,9.99973e-01,9.09617e-01,9.99999e-01
4.692172475e-01,9.11270e-01,9.99999e-01,9.99999e-01,9.99943e-01,9.11321e-01,9.99999e-01
4.715633337e-01,9.12961e-01,9.99999e-01,9.99999e-01,9.99963e-01,9.12994e-01,9.99999e-01
4.739211504e-01,9.14605e-01,9.99999e-01,9.99999e-01,9.99964e-01,9.14637e-01,9.99999e-01
4.762907561e-01,9.16234e-01,9.99999e-01,9.99999e-01,9.99981e-01,9.16251e-01,9.99999e-01
4.786722099e-01,9.17828e-01,9.99999e-01,9.99999e-01,9.99992e-01,9.17835e-01,9.99999e-01
4.810655710e-01,9.19388e-01,9.99999e-01,9.99999e-01,9.99997e-01,9.19391e-01,9.99999e-01
4.834708988e-01,9.20899e-01,9.99999e-01,9.99999e-01,9.99978e-01,9.20918e-01,9.99999e-01
4.858882533e-01,9.22381e-01,9.99999e-01,9.99999e-01,9.99959e-01,9.22418e-01,9.99999e-01
4.883176946e-01,9.23860e-01,9.99999e-01,9.99999e-01,9.99966e-01,9.23890e-01,9.99999e-01
4.907592831e-01,9.25308e-01,9.99999e-01,9.99999e-01,9.99969e-01,9.25336e-01,9.99999e-01
4.932130795e-01,9.26736e-01,9.99999e-01,9.99999e-01,9.99978e-01,9.26756e-01,9.99999e-01
4.956791449e-01,9.28139e-01,9.99999e-01,9.99999e-01,9.99988e-01,9.28149e-01,9.99999e-01
4.981575406e-01,9.29465e-01,9.99999e-01,9.99999e-01,9.99943e-01,9.29517e-01,9.99999e-01
5.006483283e-01,9.30725e-01,9.99999e-01,9.99999e-01,9.99855e-01,9.30860e-01,9.99998e-01
5.031515699e-01,9.31485e-01,9.99999e-01,9.99999e-01,9.99263e-01,9.32178e-01,9.99991e-01
5.056673278e-01,9.33100e-01,9.99999e-01,9.99999e-01,9.99609e-01,9.33472e-01,9.99990e-01
5.081956644e-01,9.34277e-01,9.99999e-01,9.99999e-01,9.99507e-01,9.34742e-01,9.99993e-01
5.107366428e-01,9.35677e-01,9.99999e-01,9.99999e-01,9.99667e-01,9.35989e-01,9.99998e-01
5.132903260e-01,9.37035e-01,9.99999e-01,9.99999e-01,9.99809e-01,9.37213e-01,9.99999e-01
5.158567776e-01,9.38339e-01,9.99999e-01,9.99999e-01,9.99919e-01,9.38414e-01,9.99999e-01
5.184360615e-01,9.39563e-01,9.99999e-01,9.99999e-01,9.99967e-01,9.39593e-01,9.99999e-01
5.210282418e-01,9.40739e-01,9.99999e-01,9.99999e-01,9.99987e-01,9.40750e-01,9.99999e-01
5.236333830e-01,9.41840e-01,9.99999e-01,9.99999e-01,9.99951e-01,9.41886e-01,9.99999e-01
5.262515499e-01,9.42972e-01,9.99999e-01,9.99999e-01,9.99969e-01,9.43000e-01,9.99999e-01
5.288828077e-01,9.44068e-01,9.99999e-01,9.99999e-01,9.99972e-01,9.44094e-01,9.99999e-01
5.315272217e-01,9.45144e-01,9.99999e-01,9.99999e-01,9.99975e-01,9.45168e-01,9.99999e-01
5.341848578e-01,9.46206e-01,9.99999e-01,9.99999e-01,9.99983e-01,9.46221e-01,9.99999e-01
5.368557821e-01,9.47202e-01,9.99999e-01,9.99999e-01,9.99943e-01,9.47255e-01,9.99999e-01
5.395400610e-01,9.48078e-01,9.99999e-01,9.99999e-01,9.99799e-01,9.48269e-01,9.99997e-01
5.422377613e-01,9.49012e-01,9.99999e-01,9.99999e-01,9.99737e-01,9.49264e-01,9.99994e-01
5.449489501e-01,9.50007e-01,9.99999e-01,9.99999e-01,9.99757e-01,9.50241e-01,9.99994e-01
5.476736949e-01,9.50992e-01,9.99999e-01,9.99999e-01,9.99783e-01,9.51200e-01,9.99997e-01
5.504120634e-01,9.51991e-01,9.99999e-01,9.99999e-01,9.99843e-01,9.52140e-01,9.99998e-01
5.531641237e-01,9.52988e-01,9.99999e-01,9.99999e-01,9.99920e-01,9.53063e-01,9.99999e-01
5.559299443e-01,9.53932e-01,9.99999e-01,9.99999e-01,9.99961e-01,9.53968e-01,9.99999e-01
5.587095940e-01,9.54834e-01,9.99999e-01,9.99999e-01,9.99975e-01,9.54857e-01,9.99999e-01
5.615031420e-01,9.55703e-01,9.99999e-01,9.99999e-01,9.99973e-01,9.55728e-01,9.99999e-01
5.643106577e-01,9.56555e-01,9.99999e-01,9.99999e-01,9.99969e-01,9.56584e-01,9.99999e-01
5.671322110e-01,9.57077e-01,9.99999e-01,9.99999e-01,9.99641e-01,9.57423e-01,9.99996e-01
5.699678720e-01,9.57862e-01,9.99999e-01,9.99999e-01,9.99608e-01,9.58246e-01,9.99989e-01
5.728177114e-01,9.58659e-01,9.99999e-01,9.99999e-01,9.99596e-01,9.59053e-01,9.99991e-01
5.756818000e-01,9.59485e-01,9.99999e-01,9.99999e-01,9.99628e-01,9.59846e-01,9.99994e-01
5.785602090e-01,9.60311e-01,9.99999e-01,9.99999e-01,9.99675e-01,9.60623e-01,9.99997e-01
5.814530100e-01,9.61073e-01,9.99999e-01,9.99999e-01,9.99675e-01,9.61386e-01,9.99998e-01
5.843602750e-01,9.61763e-01,9.99999e-01,9.99999e-01,9.99615e-01,9.62134e-01,9.99997e-01
5.872820764e-01,9.59657e-01,9.99999e-01,9.99999e-01,9.96688e-01,9.62868e-01,9.99976e-01
5.902184868e-01,9.59628e-01,9.99999e-01,9.99999e-01,9.95954e-01,9.63587e-01,9.99935e-01
5.931695792e-01,9.61485e-01,9.99999e-01,9.99999e-01,9.97148e-01,9.64294e-01,9.99937e-01
5.961354271e-01,9.61929e-01,9.99999e-01,9.99999e-01,9.96868e-01,9.64986e-01,9.99962e-01
5.991161043e-01,9.63448e-01,9.99999e-01,9.99999e-01,9.97713e-01,9.65666e-01,9.99988e-01
6.021116848e-01,9.65076e-01,9.99999e-01,9.99999e-01,9.98700e-01,9.66333e-01,9.99998e-01
6.051222432e-01,9.66351e-01,9.99999e-01,9.99999e-01,9.99341e-01,9.66987e-01,9.99999e-01
6.081478544e-01,9.67354e-01,9.99999e-01,9.99999e-01,9.99716e-01,9.67628e-01,9.99999e-01
6.111885937e-01,9.68141e-01,9.99999e-01,9.99999e-01,9.99879e-01,9.68257e-01,9.99999e-01
6.142445367e-01,9.68822e-01,9.99999e-01,9.99999e-01,9.99945e-01,9.68874e-01,9.99999e-01
6.173157594e-01,9.69451e-01,9.99999e-01,9.99999e-01,9.99970e-01,9.69480e-01,9.99999e-01
6.204023382e-01,9.70049e-01,9.99999e-01,9.99999e-01,9.99974e-01,9.70073e-01,9.99999e-01
6.235043498e-01,9.70551e-01,9.99999e-01,9.99999e-01,9.99891e-01,9.70656e-01,9.99999e-01
6.266218716e-01,9.70659e-01,9.99999e-01,9.99999e-01,9.99418e-01,9.71227e-01,9.99995e-01
6.297549810e-01,9.71572e-01,9.99999e-01,9.99999e-01,9.99786e-01,9.71787e-01,9.99991e-01
6.329037559e-01,9.71920e-01,9.99999e-01,9.99999e-01,9.99577e-01,9.72336e-01,9.99992e-01
6.360682746e-01,9.72524e-01,9.99999e-01,9.99999e-01,9.99641e-01,9.72875e-01,9.99995e-01
6.392486160e-01,9.72950e-01,9.99999e-01,9.99999e-01,9.99534e-01,9.73404e-01,9.99997e-01
6.424448591e-01,9.73319e-01,9.99999e-01,9.99999e-01,9.99382e-01,9.73922e-01,9.99996e-01
6.456570834e-01,9.71622e-01,9.99999e-01,9.99999e-01,9.97133e-01,9.74431e-01,9.99983e-01
6.488853688e-01,9.72462e-01,9.99999e-01,9.99999e-01,9.97512e-01,9.74929e-01,9.99954e-01
6.521297956e-01,9.73275e-01,9.99999e-01,9.99999e-01,9.97839e-01,9.75419e-01,9.99961e-01
6.553904446e-01,9.73789e-01,9.99999e-01,9.99999e-01,9.97866e-01,9.75898e-01,9.99971e-01
6.586673968e-01,9.74560e-01,9.99999e-01,9.99999e-01,9.98156e-01,9.76369e-01,9.99990e-01
6.619607338e-01,9.75787e-01,9.99999e-01,9.99999e-01,9.98934e-01,9.76830e-01,9.99997e-01
6.652705375e-01,9.76677e-01,9.99999e-01,9.99999e-01,9.99381e-01,9.77282e-01,9.99998e-01
6.685968902e-01,9.77445e-01,9.99999e-01,9.99999e-01,9.99712e-01,9.77726e-01,9.99999e-01
6.719398746e-01,9.78031e-01,9.99999e-01,9.99999e-01,9.99866e-01,9.78161e-01,9.99999e-01
6.752995740e-01,9.78517e-01,9.99999e-01,9.99999e-01,9.99927e-01,9.78588e-01,9.99999e-01
6.786760719e-01,9.78905e-01,9.99999e-01,9.99999e-01,9.99896e-01,9.79006e-01,9.99999e-01
6.820694522e-01,9.79242e-01,9.99999e-01,9.99999e-01,9.99822e-01,9.79417e-01,9.99998e-01
6.854797995e-01,9.79594e-01,9.99999e-01,9.99999e-01,9.99771e-01,9.79819e-01,9.99997e-01
6.889071985e-01,9.79675e-01,9.99999e-01,9.99999e-01,9.99455e-01,9.80214e-01,9.99994e-01
6.923517345e-01,9.71769e-01,9.99999e-01,9.99999e-01,9.91035e-01,9.80601e-01,9.99956e-01
6.958134932e-01,9.76218e-01,9.99999e-01,9.99999e-01,9.95242e-01,9.80980e-01,9.99901e-01
6.992925606e-01,9.76914e-01,9.99999e-01,9.99999e-01,9.95562e-01,9.81352e-01,9.99913e-01
7.027890234e-01,9.76237e-01,9.99999e-01,9.99999e-01,9.94483e-01,9.81717e-01,9.99933e-01
7.063029686e-01,9.77491e-01,9.99999e-01,9.99999e-01,9.95364e-01,9.82075e-01,9.99966e-01
7.098344834e-01,9.78038e-01,9.99999e-01,9.99999e-01,9.95552e-01,9.82426e-01,9.99980e-01
7.133836558e-01,9.76979e-01,9.99999e-01,9.99999e-01,9.94145e-01,9.82770e-01,9.99960e-01
7.169505741e-01,9.37086e-01,9.99999e-01,9.99999e-01,9.53477e-01,9.83107e-01,9.99695e-01
7.205353270e-01,9.59898e-01,9.99999e-01,9.99999e-01,9.76585e-01,9.83438e-01,9.99464e-01
7.241380036e-01,9.54566e-01,9.99999e-01,9.99999e-01,9.70770e-01,9.83763e-01,9.99537e-01
7.277586936e-01,9.57703e-01,9.99999e-01,9.99999e-01,9.73563e-01,9.84081e-01,9.99621e-01
7.313974871e-01,9.56422e-01,9.99999e-01,9.99999e-01,9.71756e-01,9.84393e-01,9.99822e-01
7.350544745e-01,9.69385e-01,9.99999e-01,9.99999e-01,9.84508e-01,9.84699e-01,9.99937e-01
7.387297469e-01,9.73718e-01,9.99999e-01,9.99999e-01,9.88574e-01,9.84999e-01,9.99971e-01
7.424233956e-01,9.79754e-01,9.99999e-01,9.99999e-01,9.94383e-01,9.85293e-01,9.99994e-01
7.461355126e-01,9.82229e-01,9.99999e-01,9.99999e-01,9.96599e-01,9.85581e-01,9.99998e-01
7.498661902e-01,9.84298e-01,9.99999e-01,9.99999e-01,9.98411e-01,9.85864e-01,9.99999e-01
7.536155211e-01,9.85375e-01,9.99999e-01,9.99999e-01,9.99222e-01,9.86141e-01,9.99999e-01
7.573835987e-01,9.86018e-01,9.99999e-01,9.99999e-01,9.99599e-01,9.86413e-01,9.99999e-01
7.611705167e-01,9.86434e-01,9.99999e-01,9.99999e-01,9.99750e-01,9.86680e-01,9.99999e-01
7.649763693e-01,9.86788e-01,9.99999e-01,9.99999e-01,9.99844e-01,9.86941e-01,9.99999e-01
7.688012511e-01,9.87090e-01,9.99999e-01,9.99999e-01,9.99891e-01,9.87197e-01,9.99999e-01
7.726452574e-01,9.87361e-01,9.99999e-01,9.99999e-01,9.99910e-01,9.87449e-01,9.99999e-01
7.765084837e-01,9.87571e-01,9.99999e-01,9.99999e-01,9.99874e-01,9.87695e-01,9.99999e-01
7.803910261e-01,9.87401e-01,9.99999e-01,9.99999e-01,9.99457e-01,9.87936e-01,9.99998e-01
7.842929812e-01,9.86302e-01,9.99999e-01,9.99999e-01,9.98108e-01,9.88173e-01,9.99996e-01
7.882144461e-01,9.84503e-01,9.99999e-01,9.99999e-01,9.96075e-01,9.88406e-01,9.99975e-01
7.921555184e-01,9.86449e-01,9.99999e-01,9.99999e-01,9.97836e-01,9.88633e-01,9.99953e-01
7.961162960e-01,9.85072e-01,9.99999e-01,9.99999e-01,9.96217e-01,9.88856e-01,9.99955e-01
8.000968774e-01,9.84686e-01,9.99999e-01,9.99999e-01,9.95608e-01,9.89075e-01,9.99952e-01
8.040973618e-01,9.84914e-01,9.99999e-01,9.99999e-01,9.95613e-01,9.89290e-01,9.99961e-01
8.081178486e-01,9.79760e-01,9.99999e-01,9.99999e-01,9.90190e-01,9.89500e-01,9.99964e-01
8.121584379e-01,9.49593e-01,9.99999e-01,9.99999e-01,9.59601e-01,9.89707e-01,9.99860e-01
8.162192301e-01,9.41674e-01,9.99999e-01,9.99999e-01,9.51768e-01,9.89909e-01,9.99478e-01
8.203003262e-01,9.65792e-01,9.99999e-01,9.99999e-01,9.76036e-01,9.90107e-01,9.99389e-01
8.244018279e-01,9.56037e-01,9.99999e-01,9.99999e-01,9.65868e-01,9.90302e-01,9.99514e-01
8.285238370e-01,9.61526e-01,9.99999e-01,9.99999e-01,9.71125e-01,9.90492e-01,9.99618e-01
8.326664562e-01,9.61501e-01,9.99999e-01,9.99999e-01,9.70699e-01,9.90679e-01,9.99841e-01
8.368297885e-01,9.69987e-01,9.99999e-01,9.99999e-01,9.78967e-01,9.90863e-01,9.99963e-01
8.410139374e-01,9.78585e-01,9.99999e-01,9.99999e-01,9.87450e-01,9.91042e-01,9.99978e-01
8.452190071e-01,9.85084e-01,9.99999e-01,9.99999e-01,9.93823e-01,9.91218e-01,9.99986e-01
8.494451021e-01,9.87838e-01,9.99999e-01,9.99999e-01,9.96425e-01,9.91391e-01,9.99989e-01
8.536923276e-01,9.89450e-01,9.99999e-01,9.99999e-01,9.97878e-01,9.91560e-01,9.99992e-01
8.579607893e-01,9.90433e-01,9.99999e-01,9.99999e-01,9.98696e-01,9.91726e-01,9.99997e-01
8.622505932e-01,9.91066e-01,9.99999e-01,9.99999e-01,9.99170e-01,9.91889e-01,9.99999e-01
8.665618462e-01,9.91541e-01,9.99999e-01,9.99999e-01,9.99488e-01,9.92049e-01,9.99999e-01
8.708946554e-01,9.91625e-01,9.99999e-01,9.99999e-01,9.99415e-01,9.92205e-01,9.99999e-01
8.752491287e-01,9.91581e-01,9.99999e-01,9.99999e-01,9.99217e-01,9.92358e-01,9.99998e-01
8.796253743e-01,9.91434e-01,9.99999e-01,9.99999e-01,9.98919e-01,9.92509e-01,9.99997e-01
8.840235012e-01,9.91423e-01,9.99999e-01,9.99999e-01,9.98764e-01,9.92656e-01,9.99991e-01
8.884436187e-01,9.88381e-01,9.99999e-01,9.99999e-01,9.95569e-01,9.92801e-01,9.99978e-01
8.928858368e-01,9.46833e-01,9.99999e-01,9.99999e-01,9.53680e-01,9.92942e-01,9.99875e-01
8.973502660e-01,9.11854e-01,9.99999e-01,9.99999e-01,9.18788e-01,9.93081e-01,9.99365e-01
9.018370173e-01,9.49967e-01,9.99999e-01,9.99999e-01,9.57407e-01,9.93217e-01,9.99003e-01
9.063462024e-01,9.55728e-01,9.99999e-01,9.99999e-01,9.62967e-01,9.93351e-01,9.99124e-01
9.108779334e-01,9.35574e-01,9.99999e-01,9.99999e-01,9.42568e-01,9.93482e-01,9.99090e-01
9.154323231e-01,9.28242e-01,9.99999e-01,9.99999e-01,9.34913e-01,9.93610e-01,9.99247e-01
9.200094847e-01,9.42194e-01,9.99999e-01,9.99999e-01,9.48531e-01,9.93736e-01,9.99578e-01
9.246095321e-01,9.15896e-01,9.99999e-01,9.99999e-01,9.22001e-01,9.93859e-01,9.99514e-01
9.292325798e-01,5.73358e-01,9.99999e-01,9.99999e-01,5.77922e-01,9.93980e-01,9.98109e-01
9.338787427e-01,4.83334e-01,9.99999e-01,9.99999e-01,4.90019e-01,9.94099e-01,9.92210e-01
9.385481364e-01,7.38491e-01,9.99999e-01,9.99999e-01,7.49727e-01,9.94215e-01,9.90742e-01
9.432408771e-01,6.63362e-01,9.99999e-01,9.99999e-01,6.72519e-01,9.94329e-01,9.92008e-01
9.479570815e-01,5.72289e-01,9.99999e-01,9.99999e-01,5.79257e-01,9.94441e-01,9.93491e-01
9.526968669e-01,6.55332e-01,9.99999e-01,9.99999e-01,6.61552e-01,9.94550e-01,9.96024e-01
9.574603512e-01,6.78765e-01,9.99999e-01,9.99999e-01,6.83793e-01,9.94657e-01,9.97978e-01
9.622476530e-01,7.28387e-01,9.99999e-01,9.99999e-01,7.33246e-01,9.94763e-01,9.98601e-01
9.670588912e-01,8.31352e-01,9.99999e-01,9.99999e-01,8.36441e-01,9.94866e-01,9.99043e-01
9.718941857e-01,8.89339e-01,9.99999e-01,9.99999e-01,8.94467e-01,9.94967e-01,9.99295e-01
9.767536566e-01,9.06624e-01,9.99999e-01,9.99999e-01,9.11609e-01,9.95066e-01,9.99461e-01
9.816374249e-01,9.28894e-01,9.99999e-01,9.99999e-01,9.33582e-01,9.95163e-01,9.99813e-01
9.865456120e-01,9.53388e-01,9.99999e-01,9.99999e-01,9.57966e-01,9.95259e-01,9.99960e-01
9.914783401e-01,9.69291e-01,9.99999e-01,9.99999e-01,9.73827e-01,9.95352e-01,9.99988e-01
9.964357318e-01,9.81163e-01,9.99999e-01,9.99999e-01,9.85659e-01,9.95444e-01,9.99993e-01
1.001417910e+00,9.86943e-01,9.99999e-01,9.99999e-01,9.91380e-01,9.95533e-01,9.99989e-01
1.006425000e+00,9.90718e-01,9.99999e-01,9.99999e-01,9.95087e-01,9.95621e-01,9.99985e-01
1.011457125e+00,9.92650e-01,9.99999e-01,9.99999e-01,9.96941e-01,9.95708e-01,9.99986e-01
1.016514411e+00,9.93718e-01,9.99999e-01,9.99999e-01,9.97925e-01,9.95792e-01,9.99990e-01
1.021596983e+00,9.94221e-01,9.99999e-01,9.99999e-01,9.98347e-01,9.95875e-01,9.99990e-01
1.026704968e+00,9.94668e-01,9.99999e-01,9.99999e-01,9.98711e-01,9.95956e-01,9.99993e-01
1.031838492e+00,9.95101e-01,9.99999e-01,9.99999e-01,9.99061e-01,9.96036e-01,9.99997e-01
1.036997685e+00,9.95560e-01,9.99999e-01,9.99999e-01,9.99443e-01,9.96114e-01,9.99999e-01
1.042182673e+00,9.95533e-01,9.99999e-01,9.99999e-01,9.99338e-01,9.96191e-01,9.99999e-01
1.047393587e+00,9.95392e-01,9.99999e-01,9.99999e-01,9.99122e-01,9.96266e-01,9.99999e-01
1.052630555e+00,9.95141e-01,9.99999e-01,9.99999e-01,9.98796e-01,9.96340e-01,9.99999e-01
1.057893707e+00,9.94414e-01,9.99999e-01,9.99999e-01,9.97994e-01,9.96412e-01,9.99998e-01
1.063183176e+00,9.93191e-01,9.99999e-01,9.99999e-01,9.96698e-01,9.96482e-01,9.99997e-01
1.068499092e+00,9.91037e-01,9.99999e-01,9.99999e-01,9.94469e-01,9.96552e-01,9.99995e-01
1.073841587e+00,9.90174e-01,9.99999e-01,9.99999e-01,9.93539e-01,9.96620e-01,9.99991e-01
1.079210795e+00,9.88396e-01,9.99999e-01,9.99999e-01,9.91703e-01,9.96686e-01,9.99977e-01
1.084606849e+00,9.84224e-01,9.99999e-01,9.99999e-01,9.87483e-01,9.96752e-01,9.99946e-01
1.090029883e+00,9.78922e-01,9.99999e-01,9.99999e-01,9.82156e-01,9.96816e-01,9.99889e-01
1.095480033e+00,9.48872e-01,9.99999e-01,9.99999e-01,9.52032e-01,9.96879e-01,9.99799e-01
1.100957433e+00,8.79570e-01,9.99999e-01,9.99999e-01,8.82593e-01,9.96940e-01,9.99631e-01
1.106462220e+00,7.26161e-01,9.99999e-01,9.99999e-01,7.28800e-01,9.97000e-01,9.99375e-01
1.111994531e+00,5.10963e-01,9.99999e-01,9.99999e-01,5.13318e-01,9.97060e-01,9.98345e-01
1.117554504e+00,3.37513e-01,9.99999e-01,9.99999e-01,3.40518e-01,9.97118e-01,9.94039e-01
1.123142276e+00,4.46376e-01,9.99999e-01,9.99999e-01,4.54032e-01,9.97174e-01,9.85922e-01
1.128757988e+00,5.90939e-01,9.99999e-01,9.99999e-01,6.02378e-01,9.97230e-01,9.83732e-01
1.134401778e+00,3.34057e-01,9.99999e-01,9.99999e-01,3.39670e-01,9.97285e-01,9.86150e-01
1.140073787e+00,7.28269e-01,9.99999e-01,9.99999e-01,7.38393e-01,9.97338e-01,9.88919e-01
1.145774156e+00,5.24980e-01,9.99999e-01,9.99999e-01,5.31749e-01,9.97391e-01,9.89852e-01
1.151503026e+00,4.91729e-01,9.99999e-01,9.99999e-01,4.95798e-01,9.97442e-01,9.94333e-01
1.157260541e+00,5.52368e-01,9.99999e-01,9.99999e-01,5.54698e-01,9.97493e-01,9.98302e-01
1.163046844e+00,6.44154e-01,9.99999e-01,9.99999e-01,6.46052e-01,9.97542e-01,9.99518e-01
1.168862078e+00,7.35837e-01,9.99999e-01,9.99999e-01,7.37797e-01,9.97591e-01,9.99751e-01
1.174706389e+00,8.26703e-01,9.99999e-01,9.99999e-01,8.28932e-01,9.97638e-01,9.99670e-01
1.180579921e+00,8.89454e-01,9.99999e-01,9.99999e-01,8.91961e-01,9.97685e-01,9.99502e-01
1.186482820e+00,9.34886e-01,9.99999e-01,9.99999e-01,9.37490e-01,9.97730e-01,9.99489e-01
1.192415234e+00,9.60558e-01,9.99999e-01,9.99999e-01,9.63067e-01,9.97775e-01,9.99617e-01
1.198377311e+00,9.66372e-01,9.99999e-01,9.99999e-01,9.68833e-01,9.97819e-01,9.99638e-01
1.204369197e+00,9.68067e-01,9.99999e-01,9.99999e-01,9.70457e-01,9.97862e-01,9.99672e-01
1.210391043e+00,9.69497e-01,9.99999e-01,9.99999e-01,9.71725e-01,9.97904e-01,9.99800e-01
1.216442998e+00,9.73728e-01,9.99999e-01,9.99999e-01,9.75850e-01,9.97945e-01,9.99877e-01
1.222525213e+00,9.79117e-01,9.99999e-01,9.99999e-01,9.81166e-01,9.97986e-01,9.99923e-01
1.228637839e+00,9.84912e-01,9.99999e-01,9.99999e-01,9.86895e-01,9.98026e-01,9.99964e-01
