#,Wave/freq,Total,N2,O2,H2O,Rayleigh,CIA
4.000000000e-01,8.77098e-01,9.99999e-01,9.99999e-01,9.99984e-01,8.77111e-01,9.99999e-01
4.020000000e-01,8.79380e-01,9.99999e-01,9.99999e-01,9.99990e-01,8.79388e-01,9.99999e-01
4.040100000e-01,8.81620e-01,9.99999e-01,9.99999e-01,9.99995e-01,8.81623e-01,9.99999e-01
4.060300500e-01,8.83819e-01,9.99999e-01,9.99999e-01,9.99998e-01,8.83820e-01,9.99999e-01
4.080602003e-01,8.85979e-01,9.99999e-01,9.99999e-01,9.99999e-01,8.85979e-01,9.99999e-01
4.101005013e-01,8.88100e-01,9.99999e-01,9.99999e-01,9.99999e-01,8.88100e-01,9.99999e-01
4.121510038e-01,8.90184e-01,9.99999e-01,9.99999e-01,9.99998e-01,8.90184e-01,9.99999e-01
4.142117588e-01,8.92228e-01,9.99999e-01,9.99999e-01,9.99995e-01,8.92232e-01,9.99999e-01
4.162828176e-01,8.94227e-01,9.99999e-01,9.99999e-01,9.99981e-01,8.94244e-01,9.99999e-01
4.183642317e-01,8.96211e-01,9.99999e-01,9.99999e-01,9.99988e-01,8.96220e-01,9.99999e-01
4.204560528e-01,8.98156e-01,9.99999e-01,9.99999e-01,9.99992e-01,8.98162e-01,9.99999e-01
4.225583331e-01,9.00067e-01,9.99999e-01,9.99999e-01,9.99997e-01,9.00069e-01,9.99999e-01
4.246711247e-01,9.01941e-01,9.99999e-01,9.99999e-01,9.99997e-01,9.01943e-01,9.99999e-01
4.267944804e-01,9.03781e-01,9.99999e-01,9.99999e-01,9.99996e-01,9.03784e-01,9.99999e-01
4.289284528e-01,9.05589e-01,9.99999e-01,9.99999e-01,9.99997e-01,9.05591e-01,9.99999e-01
4.310730950e-01,9.07366e-01,9.99999e-01,9.99999e-01,9.99998e-01,9.07367e-01,9.99999e-01
4.332284605e-01,9.09111e-01,9.99999e-01,9.99999e-01,9.99999e-01,9.09111e-01,9.99999e-01
4.353946028e-01,9.10824e-01,9.99999e-01,9.99999e-01,9.99999e-01,9.10824e-01,9.99999e-01
4.375715758e-01,9.12504e-01,9.99999e-01,9.99999e-01,9.99997e-01,9.12506e-01,9.99999e-01
4.397594337e-01,9.14143e-01,9.99999e-01,9.99999e-01,9.99983e-01,9.14157e-01,9.99999e-01
4.419582309e-01,9.15704e-01,9.99999e-01,9.99999e-01,9.99917e-01,9.15780e-01,9.99999e-01
4.441680220e-01,9.17314e-01,9.99999e-01,9.99999e-01,9.99935e-01,9.17372e-01,9.99999e-01
4.463888621e-01,9.18875e-01,9.99999e-01,9.99999e-01,9.99933e-01,9.18936e-01,9.99999e-01
4.486208064e-01,9.20434e-01,9.99999e-01,9.99999e-01,9.99958e-01,9.20472e-01,9.99999e-01
4.508639105e-01,9.21962e-01,9.99999e-01,9.99999e-01,9.99980e-01,9.21980e-01,9.99999e-01
4.531182300e-01,9.23454e-01,9.99999e-01,9.99999e-01,9.99991e-01,9.23461e-01,9.99999e-01
4.553838212e-01,9.24909e-01,9.99999e-01,9.99999e-01,9.99994e-01,9.24914e-01,9.99999e-01
4.576607403e-01,9.26339e-01,9.99999e-01,9.99999e-01,9.99997e-01,9.26341e-01,9.99999e-01
4.599490440e-01,9.27741e-01,9.99999e-01,9.99999e-01,9.99997e-01,9.27742e-01,9.99999e-01
4.622487892e-01,9.29117e-01,9.99999e-01,9.99999e-01,9.99999e-01,9.29118e-01,9.99999e-01
4.645600332e-01,9.30467e-01,9.99999e-01,9.99999e-01,9.99998e-01,9.30468e-01,9.99999e-01
4.668828333e-01,9.31775e-01,9.99999e-01,9.99999e-01,9.99979e-01,9.31793e-01,9.99999e-01
4.692172475e-01,9.33056e-01,9.99999e-01,9.99999e-01,9.99957e-01,9.33094e-01,9.99999e-01
4.715633337e-01,9.34346e-01,9.99999e-01,9.99999e-01,9.99972e-01,9.34372e-01,9.99999e-01
4.739211504e-01,9.35601e-01,9.99999e-01,9.99999e-01,9.99973e-01,9.35625e-01,9.99999e-01
4.762907561e-01,9.36843e-01,9.99999e-01,9.99999e-01,9.99986e-01,9.36856e-01,9.99999e-01
4.786722099e-01,9.38058e-01,9.99999e-01,9.99999e-01,9.99994e-01,9.38064e-01,9.99999e-01
4.810655710e-01,9.39247e-01,9.99999e-01,9.99999e-01,9.99997e-01,9.39249e-01,9.99999e-01
4.834708988e-01,9.40397e-01,9.99999e-01,9.99999e-01,9.99983e-01,9.40412e-01,9.99999e-01
4.858882533e-01,9.41527e-01,9.99999e-01,9.99999e-01,9.99970e-01,9.41554e-01,9.99999e-01
4.883176946e-01,9.42652e-01,9.99999e-01,9.99999e-01,9.99974e-01,9.42675e-01,9.99999e-01
4.907592831e-01,9.43754e-01,9.99999e-01,9.99999e-01,9.99977e-01,9.43775e-01,9.99999e-01
4.932130795e-01,9.44839e-01,9.99999e-01,9.99999e-01,9.99983e-01,9.44854e-01,9.99999e-01
4.956791449e-01,9.45906e-01,9.99999e-01,9.99999e-01,9.99991e-01,9.45913e-01,9.99999e-01
4.981575406e-01,9.46913e-01,9.99999e-01,9.99999e-01,9.99957e-01,9.46953e-01,9.99999e-01
5.006483283e-01,9.47869e-01,9.99999e-01,9.99999e-01,9.99890e-01,9.47973e-01,9.99998e-01
5.031515699e-01,9.48446e-01,9.99999e-01,9.99999e-01,9.99448e-01,9.48974e-01,9.99993e-01
5.056673278e-01,9.49674e-01,9.99999e-01,9.99999e-01,9.99709e-01,9.49956e-01,9.99992e-01
5.081956644e-01,9.50568e-01,9.99999e-01,9.99999e-01,9.99633e-01,9.50920e-01,9.99995e-01
5.107366428e-01,9.51630e-01,9.99999e-01,9.99999e-01,9.99752e-01,9.51866e-01,9.99998e-01
5.132903260e-01,9.52659e-01,9.99999e-01,9.99999e-01,9.99858e-01,9.52794e-01,9.99999e-01
5.158567776e-01,9.53647e-01,9.99999e-01,9.99999e-01,9.99940e-01,9.53704e-01,9.99999e-01
5.184360615e-01,9.54575e-01,9.99999e-01,9.99999e-01,9.99975e-01,9.54597e-01,9.99999e-01
5.210282418e-01,9.55465e-01,9.99999e-01,9.99999e-01,9.99990e-01,9.55474e-01,9.99999e-01
5.236333830e-01,9.56300e-01,9.99999e-01,9.99999e-01,9.99963e-01,9.56334e-01,9.99999e-01
5.262515499e-01,9.57156e-01,9.99999e-01,9.99999e-01,9.99977e-01,9.57178e-01,9.99999e-01
5.288828077e-01,9.57986e-01,9.99999e-01,9.99999e-01,9.99978e-01,9.58006e-01,9.99999e-01
5.315272217e-01,9.58800e-01,9.99999e-01,9.99999e-01,9.99981e-01,9.58818e-01,9.99999e-01
5.341848578e-01,9.59603e-01,9.99999e-01,9.99999e-01,9.99987e-01,9.59614e-01,9.99999e-01
5.368557821e-01,9.60356e-01,9.99999e-01,9.99999e-01,9.99957e-01,9.60396e-01,9.99999e-01
5.395400610e-01,9.61016e-01,9.99999e-01,9.99999e-01,9.99847e-01,9.61163e-01,9.99998e-01
5.422377613e-01,9.61725e-01,9.99999e-01,9.99999e-01,9.99805e-01,9.61915e-01,9.99995e-01
5.449489501e-01,9.62475e-01,9.99999e-01,9.99999e-01,9.99818e-01,9.62653e-01,9.99995e-01
5.476736949e-01,9.63222e-01,9.99999e-01,9.99999e-01,9.99839e-01,9.63377e-01,9.99997e-01
5.504120634e-01,9.63975e-01,9.99999e-01,9.99999e-01,9.99883e-01,9.64088e-01,9.99999e-01
5.531641237e-01,9.64728e-01,9.99999e-01,9.99999e-01,9.99941e-01,9.64784e-01,9.99999e-01
5.559299443e-01,9.65441e-01,9.99999e-01,9.99999e-01,9.99971e-01,9.65468e-01,9.99999e-01
5.587095940e-01,9.66121e-01,9.99999e-01,9.99999e-01,9.99981e-01,9.66138e-01,9.99999e-01
5.615031420e-01,9.66777e-01,9.99999e-01,9.99999e-01,9.99979e-01,9.66796e-01,9.99999e-01
5.643106577e-01,9.67419e-01,9.99999e-01,9.99999e-01,9.99976e-01,9.67441e-01,9.99999e-01
5.671322110e-01,9.67805e-01,9.99999e-01,9.99999e-01,9.99724e-01,9.68073e-01,9.99997e-01
5.699678720e-01,9.68408e-01,9.99999e-01,9.99999e-01,9.99711e-01,9.68694e-01,9.99992e-01
5.728177114e-01,9.69005e-01,9.99999e-01,9.99999e-01,9.99697e-01,9.69303e-01,9.99993e-01
5.756818000e-01,9.69628e-01,9.99999e-01,9.99999e-01,9.99723e-01,9.69900e-01,9.99995e-01
5.785602090e-01,9.70251e-01,9.99999e-01,9.99999e-01,9.99758e-01,9.70486e-01,9.99998e-01
5.814530100e-01,9.70825e-01,9.99999e-01,9.99999e-01,9.99757e-01,9.71060e-01,9.99998e-01
5.843602750e-01,9.71340e-01,9.99999e-01,9.99999e-01,9.99709e-01,9.71624e-01,9.99997e-01
5.872820764e-01,9.69732e-01,9.99999e-01,9.99999e-01,9.97502e-01,9.72176e-01,9.99982e-01
5.902184868e-01,9.69745e-01,9.99999e-01,9.99999e-01,9.96990e-01,9.72718e-01,9.99951e-01
5.931695792e-01,9.71132e-01,9.99999e-01,9.99999e-01,9.97869e-01,9.73250e-01,9.99953e-01
5.961354271e-01,9.71475e-01,9.99999e-01,9.99999e-01,9.97667e-01,9.73771e-01,9.99973e-01
5.991161043e-01,9.72619e-01,9.99999e-01,9.99999e-01,9.98299e-01,9.74282e-01,9.99991e-01
6.021116848e-01,9.73844e-01,9.99999e-01,9.99999e-01,9.99035e-01,9.74784e-01,9.99998e-01
6.051222432e-01,9.74800e-01,9.99999e-01,9.99999e-01,9.99511e-01,9.75276e-01,9.99999e-01
6.081478544e-01,9.75553e-01,9.99999e-01,9.99999e-01,9.99789e-01,9.75758e-01,9.99999e-01
6.111885937e-01,9.76145e-01,9.99999e-01,9.99999e-01,9.99910e-01,9.76231e-01,9.99999e-01
6.142445367e-01,9.76656e-01,9.99999e-01,9.99999e-01,9.99959e-01,9.76695e-01,9.99999e-01
6.173157594e-01,9.77129e-01,9.99999e-01,9.99999e-01,9.99977e-01,9.77150e-01,9.99999e-01
6.204023382e-01,9.77578e-01,9.99999e-01,9.99999e-01,9.99980e-01,9.77596e-01,9.99999e-01
6.235043498e-01,9.77953e-01,9.99999e-01,9.99999e-01,9.99916e-01,9.78034e-01,9.99999e-01
6.266218716e-01,9.78036e-01,9.99999e-01,9.99999e-01,9.99565e-01,9.78463e-01,9.99996e-01
6.297549810e-01,9.78723e-01,9.99999e-01,9.99999e-01,9.99840e-01,9.78884e-01,9.99993e-01
6.329037559e-01,9.78985e-01,9.99999e-01,9.99999e-01,9.99685e-01,9.79297e-01,9.99994e-01
6.360682746e-01,9.79436e-01,9.99999e-01,9.99999e-01,9.99731e-01,9.79702e-01,9.99996e-01
6.392486160e-01,9.79757e-01,9.99999e-01,9.99999e-01,9.99652e-01,9.80098e-01,9.99998e-01
6.424448591e-01,9.80028e-01,9.99999e-01,9.99999e-01,9.99533e-01,9.80488e-01,9.99997e-01
6.456570834e-01,9.78734e-01,9.99999e-01,9.99999e-01,9.97835e-01,9.80869e-01,9.99986e-01
6.488853688e-01,9.79665e-01,9.99999e-01,9.99999e-01,9.98424e-01,9.81244e-01,9.99966e-01
6.521297956e-01,9.80007e-01,9.99999e-01,9.99999e-01,9.98393e-01,9.81611e-01,9.99971e-01
6.553904446e-01,9.80378e-01,9.99999e-01,9.99999e-01,9.98397e-01,9.81971e-01,9.99978e-01
6.586673968e-01,9.80972e-01,9.99999e-01,9.99999e-01,9.98630e-01,9.82324e-01,9.99992e-01
6.619607338e-01,9.81919e-01,9.99999e-01,9.99999e-01,9.99236e-01,9.82670e-01,9.99998e-01
6.652705375e-01,9.82558e-01,9.99999e-01,9.99999e-01,9.99541e-01,9.83009e-01,9.99998e-01
6.685968902e-01,9.83151e-01,9.99999e-01,9.99999e-01,9.99805e-01,9.83342e-01,9.99999e-01
6.719398746e-01,9.83571e-01,9.99999e-01,9.99999e-01,9.99901e-01,9.83668e-01,9.99999e-01
6.752995740e-01,9.83936e-01,9.99999e-01,9.99999e-01,9.99946e-01,9.83988e-01,9.99999e-01
6.786760719e-01,9.84226e-01,9.99999e-01,9.99999e-01,9.99922e-01,9.84302e-01,9.99999e-01
6.820694522e-01,9.84479e-01,9.99999e-01,9.99999e-01,9.99867e-01,9.84610e-01,9.99998e-01
6.854797995e-01,9.84742e-01,9.99999e-01,9.99999e-01,9.99828e-01,9.84911e-01,9.99998e-01
6.889071985e-01,9.84793e-01,9.99999e-01,9.99999e-01,9.99582e-01,9.85207e-01,9.99995e-01
6.923517345e-01,9.78804e-01,9.99999e-01,9.99999e-01,9.93239e-01,9.85497e-01,9.99967e-01
6.958134932e-01,9.82281e-01,9.99999e-01,9.99999e-01,9.96519e-01,9.85781e-01,9.99928e-01
6.992925606e-01,9.82701e-01,9.99999e-01,9.99999e-01,9.96657e-01,9.86060e-01,9.99935e-01
7.027890234e-01,9.82234e-01,9.99999e-01,9.99999e-01,9.95891e-01,9.86334e-01,9.99950e-01
7.063029686e-01,9.83169e-01,9.99999e-01,9.99999e-01,9.96544e-01,9.86602e-01,9.99975e-01
7.098344834e-01,9.83579e-01,9.99999e-01,9.99999e-01,9.96684e-01,9.86865e-01,9.99985e-01
7.133836558e-01,9.82703e-01,9.99999e-01,9.99999e-01,9.95551e-01,9.87122e-01,9.99970e-01
7.169505741e-01,9.52357e-01,9.99999e-01,9.99999e-01,9.64751e-01,9.87375e-01,9.99773e-01
7.205353270e-01,9.70236e-01,9.99999e-01,9.99999e-01,9.82787e-01,9.87623e-01,9.99600e-01
7.241380036e-01,9.65806e-01,9.99999e-01,9.99999e-01,9.78006e-01,9.87866e-01,9.99654e-01
7.277586936e-01,9.68209e-01,9.99999e-01,9.99999e-01,9.80141e-01,9.88104e-01,9.99717e-01
7.313974871e-01,9.67441e-01,9.99999e-01,9.99999e-01,9.78985e-01,9.88338e-01,9.99867e-01
7.350544745e-01,9.77120e-01,9.99999e-01,9.99999e-01,9.88465e-01,9.88567e-01,9.99953e-01
7.387297469e-01,9.80374e-01,9.99999e-01,9.99999e-01,9.91508e-01,9.88791e-01,9.99978e-01
7.424233956e-01,9.84898e-01,9.99999e-01,9.99999e-01,9.95843e-01,9.89012e-01,9.99995e-01
7.461355126e-01,9.86732e-01,9.99999e-01,9.99999e-01,9.97477e-01,9.89227e-01,9.99998e-01
7.498661902e-01,9.88279e-01,9.99999e-01,9.99999e-01,9.98826e-01,9.89439e-01,9.99999e-01
7.536155211e-01,9.89076e-01,9.99999e-01,9.99999e-01,9.99423e-01,9.89647e-01,9.99999e-01
7.573835987e-01,9.89557e-01,9.99999e-01,9.99999e-01,9.99703e-01,9.89850e-01,9.99999e-01
7.611705167e-01,9.89867e-01,9.99999e-01,9.99999e-01,9.99815e-01,9.90049e-01,9.99999e-01
7.649763693e-01,9.90131e-01,9.99999e-01,9.99999e-01,9.99883e-01,9.90245e-01,9.99999e-01
7.688012511e-01,9.90357e-01,9.99999e-01,9.99999e-01,9.99919e-01,9.90437e-01,9.99999e-01
7.726452574e-01,9.90559e-01,9.99999e-01,9.99999e-01,9.99933e-01,9.90625e-01,9.99999e-01
7.765084837e-01,9.90715e-01,9.99999e-01,9.99999e-01,9.99904e-01,9.90809e-01,9.99999e-01
7.803910261e-01,9.90584e-01,9.99999e-01,9.99999e-01,9.99590e-01,9.90990e-01,9.99999e-01
7.842929812e-01,9.89749e-01,9.99999e-01,9.99999e-01,9.98571e-01,9.91167e-01,9.99996e-01
7.882144461e-01,9.88418e-01,9.99999e-01,9.99999e-01,9.97071e-01,9.91341e-01,9.99979e-01
7.921555184e-01,9.89888e-01,9.99999e-01,9.99999e-01,9.98397e-01,9.91511e-01,9.99964e-01
7.961162960e-01,9.88821e-01,9.99999e-01,9.99999e-01,9.97151e-01,9.91678e-01,9.99966e-01
8.000968774e-01,9.88555e-01,9.99999e-01,9.99999e-01,9.96721e-01,9.91842e-01,9.99964e-01
8.040973618e-01,9.88720e-01,9.99999e-01,9.99999e-01,9.96717e-01,9.92002e-01,9.99972e-01
8.081178486e-01,9.84775e-01,9.99999e-01,9.99999e-01,9.92583e-01,9.92159e-01,9.99972e-01
8.121584379e-01,9.61863e-01,9.99999e-01,9.99999e-01,9.69413e-01,9.92314e-01,9.99896e-01
8.162192301e-01,9.56324e-01,9.99999e-01,9.99999e-01,9.63958e-01,9.92465e-01,9.99610e-01
8.203003262e-01,9.73954e-01,9.99999e-01,9.99999e-01,9.81648e-01,9.92613e-01,9.99544e-01
8.244018279e-01,9.67339e-01,9.99999e-01,9.99999e-01,9.74748e-01,9.92758e-01,9.99637e-01
8.285238370e-01,9.71071e-01,9.99999e-01,9.99999e-01,9.78291e-01,9.92901e-01,9.99715e-01
8.326664562e-01,9.71178e-01,9.99999e-01,9.99999e-01,9.78098e-01,9.93041e-01,9.99881e-01
8.368297885e-01,9.77603e-01,9.99999e-01,9.99999e-01,9.84344e-01,9.93178e-01,9.99972e-01
8.410139374e-01,9.84036e-01,9.99999e-01,9.99999e-01,9.90677e-01,9.93312e-01,9.99983e-01
8.452190071e-01,9.88888e-01,9.99999e-01,9.99999e-01,9.95423e-01,9.93444e-01,9.99990e-01
8.494451021e-01,9.90921e-01,9.99999e-01,9.99999e-01,9.97338e-01,9.93573e-01,9.99991e-01
8.536923276e-01,9.92133e-01,9.99999e-01,9.99999e-01,9.98428e-01,9.93699e-01,9.99994e-01
8.579607893e-01,9.92859e-01,9.99999e-01,9.99999e-01,9.99030e-01,9.93823e-01,9.99998e-01
8.622505932e-01,9.93333e-01,9.99999e-01,9.99999e-01,9.99384e-01,9.93945e-01,9.99999e-01
8.665618462e-01,9.93685e-01,9.99999e-01,9.99999e-01,9.99618e-01,9.94064e-01,9.99999e-01
8.708946554e-01,9.93746e-01,9.99999e-01,9.99999e-01,9.99562e-01,9.94181e-01,9.99999e-01
8.752491287e-01,9.93714e-01,9.99999e-01,9.99999e-01,9.99415e-01,9.94296e-01,9.99998e-01
8.796253743e-01,9.93600e-01,9.99999e-01,9.99999e-01,9.99189e-01,9.94408e-01,9.99997e-01
8.840235012e-01,9.93592e-01,9.99999e-01,9.99999e-01,9.99074e-01,9.94518e-01,9.99993e-01
8.884436187e-01,9.91219e-01,9.99999e-01,9.99999e-01,9.96589e-01,9.94626e-01,9.99983e-01
8.928858368e-01,9.59601e-01,9.99999e-01,9.99999e-01,9.64771e-01,9.94732e-01,9.99907e-01
8.973502660e-01,9.33462e-01,9.99999e-01,9.99999e-01,9.38751e-01,9.94836e-01,9.99526e-01
9.018370173e-01,9.62755e-01,9.99999e-01,9.99999e-01,9.68373e-01,9.94937e-01,9.99256e-01
9.063462024e-01,9.66450e-01,9.99999e-01,9.99999e-01,9.71904e-01,9.95037e-01,9.99346e-01
9.108779334e-01,9.51337e-01,9.99999e-01,9.99999e-01,9.56636e-01,9.95135e-01,9.99321e-01
9.154323231e-01,9.45903e-01,9.99999e-01,9.99999e-01,9.50968e-01,9.95231e-01,9.99438e-01
9.200094847e-01,9.56628e-01,9.99999e-01,9.99999e-01,9.61422e-01,9.95325e-01,9.99685e-01
9.246095321e-01,9.34657e-01,9.99999e-01,9.99999e-01,9.39299e-01,9.95417e-01,9.99637e-01
9.292325798e-01,6.54648e-01,9.99999e-01,9.99999e-01,6.58530e-01,9.95507e-01,9.98589e-01
9.338787427e-01,5.78500e-01,9.99999e-01,9.99999e-01,5.84458e-01,9.95596e-01,9.94183e-01
9.385481364e-01,7.96657e-01,9.99999e-01,9.99999e-01,8.05681e-01,9.95682e-01,9.93086e-01
9.432408771e-01,7.30452e-01,9.99999e-01,9.99999e-01,7.37960e-01,9.95768e-01,9.94032e-01
9.479570815e-01,6.50609e-01,9.99999e-01,9.99999e-01,6.56509e-01,9.95851e-01,9.95140e-01
9.526968669e-01,7.26607e-01,9.99999e-01,9.99999e-01,7.31745e-01,9.95933e-01,9.97033e-01
9.574603512e-01,7.47569e-01,9.99999e-01,9.99999e-01,7.51694e-01,9.96013e-01,9.98491e-01
9.622476530e-01,7.89461e-01,9.99999e-01,9.99999e-01,7.93386e-01,9.96091e-01,9.98956e-01
9.670588912e-01,8.71168e-01,9.99999e-01,9.99999e-01,8.75142e-01,9.96168e-01,9.99286e-01
9.718941857e-01,9.16215e-01,9.99999e-01,9.99999e-01,9.20151e-01,9.96244e-01,9.99474e-01
9.767536566e-01,9.29448e-01,9.99999e-01,9.99999e-01,9.33257e-01,9.96318e-01,9.99598e-01
9.816374249e-01,9.46640e-01,9.99999e-01,9.99999e-01,9.50200e-01,9.96391e-01,9.99860e-01
9.865456120e-01,9.65157e-01,9.99999e-01,9.99999e-01,9.68611e-01,9.96462e-01,9.99970e-01
9.914783401e-01,9.77076e-01,9.99999e-01,9.99999e-01,9.80484e-01,9.96532e-01,9.99991e-01
9.964357318e-01,9.85961e-01,9.99999e-01,9.99999e-01,9.89328e-01,9.96600e-01,9.99994e-01
1.001417910e+00,9.90275e-01,9.99999e-01,9.99999e-01,9.93593e-01,9.96667e-01,9.99992e-01
1.006425000e+00,9.93075e-01,9.99999e-01,9.99999e-01,9.96339e-01,9.96733e-01,9.99989e-01
1.011457125e+00,9.94526e-01,9.99999e-01,9.99999e-01,9.97730e-01,9.96797e-01,9.99990e-01
1.016514411e+00,9.95316e-01,9.99999e-01,9.99999e-01,9.98457e-01,9.96860e-01,9.99992e-01
1.021596983e+00,9.95690e-01,9.99999e-01,9.99999e-01,9.98770e-01,9.96922e-01,9.99992e-01
1.026704968e+00,9.96023e-01,9.99999e-01,9.99999e-01,9.99040e-01,9.96983e-01,9.99995e-01
1.031838492e+00,9.96347e-01,9.99999e-01,9.99999e-01,9.99303e-01,9.97042e-01,9.99998e-01
1.036997685e+00,9.96688e-01,9.99999e-01,9.99999e-01,9.99585e-01,9.97101e-01,9.99999e-01
1.042182673e+00,9.96664e-01,9.99999e-01,9.99999e-01,9.99504e-01,9.97158e-01,9.99999e-01
1.047393587e+00,9.96560e-01,9.99999e-01,9.99999e-01,9.99344e-01,9.97214e-01,9.99999e-01
1.052630555e+00,9.96371e-01,9.99999e-01,9.99999e-01,9.99099e-01,9.97269e-01,9.99999e-01
1.057893707e+00,9.95823e-01,9.99999e-01,9.99999e-01,9.98496e-01,9.97323e-01,9.99998e-01
1.063183176e+00,9.94908e-01,9.99999e-01,9.99999e-01,9.97527e-01,9.97375e-01,9.99998e-01
1.068499092e+00,9.93300e-01,9.99999e-01,9.99999e-01,9.95864e-01,9.97427e-01,9.99996e-01
1.073841587e+00,9.92640e-01,9.99999e-01,9.99999e-01,9.95155e-01,9.97478e-01,9.99993e-01
1.079210795e+00,9.91334e-01,9.99999e-01,9.99999e-01,9.93806e-01,9.97528e-01,9.99983e-01
1.084606849e+00,9.88188e-01,9.99999e-01,9.99999e-01,9.90627e-01,9.97576e-01,9.99959e-01
1.090029883e+00,9.84089e-01,9.99999e-01,9.99999e-01,9.86513e-01,9.97624e-01,9.99917e-01
1.095480033e+00,9.61319e-01,9.99999e-01,9.99999e-01,9.63706e-01,9.97671e-01,9.99850e-01
1.100957433e+00,9.07904e-01,9.99999e-01,9.99999e-01,9.10230e-01,9.97717e-01,9.99725e-01
1.106462220e+00,7.84465e-01,9.99999e-01,9.99999e-01,7.86590e-01,9.97762e-01,9.99534e-01
1.111994531e+00,6.02018e-01,9.99999e-01,9.99999e-01,6.04086e-01,9.97806e-01,9.98765e-01
1.117554504e+00,4.39200e-01,9.99999e-01,9.99999e-01,4.42113e-01,9.97849e-01,9.95549e-01
1.123142276e+00,5.41048e-01,9.99999e-01,9.99999e-01,5.47954e-01,9.97892e-01,9.89479e-01
1.128757988e+00,6.70884e-01,9.99999e-01,9.99999e-01,6.80547e-01,9.97933e-01,9.87839e-01
1.134401778e+00,4.18674e-01,9.99999e-01,9.99999e-01,4.23910e-01,9.97974e-01,9.89650e-01
1.140073787e+00,7.87227e-01,9.99999e-01,9.99999e-01,7.95376e-01,9.98014e-01,9.91722e-01
1.145774156e+00,6.14139e-01,9.99999e-01,9.99999e-01,6.20036e-01,9.98053e-01,9.92420e-01
1.151503026e+00,5.82806e-01,9.99999e-01,9.99999e-01,5.86400e-01,9.98092e-01,9.95770e-01
1.157260541e+00,6.40175e-01,9.99999e-01,9.99999e-01,6.42188e-01,9.98129e-01,9.98733e-01
1.163046844e+00,7.19751e-01,9.99999e-01,9.99999e-01,7.21332e-01,9.98166e-01,9.99640e-01
1.168862078e+00,7.95789e-01,9.99999e-01,9.99999e-01,7.97369e-01,9.98202e-01,9.99814e-01
1.174706389e+00,8.67841e-01,9.99999e-01,9.99999e-01,8.69585e-01,9.98238e-01,9.99754e-01
1.180579921e+00,9.16556e-01,9.99999e-01,9.99999e-01,9.18481e-01,9.98273e-01,9.99628e-01
1.186482820e+00,9.51126e-01,9.99999e-01,9.99999e-01,9.53101e-01,9.98307e-01,9.99618e-01
1.192415234e+00,9.70468e-01,9.99999e-01,9.99999e-01,9.72358e-01,9.98340e-01,9.99714e-01
1.198377311e+00,9.74777e-01,9.99999e-01,9.99999e-01,9.76628e-01,9.98373e-01,9.99730e-01
1.204369197e+00,9.76076e-01,9.99999e-01,9.99999e-01,9.77873e-01,9.98405e-01,9.99755e-01
1.210391043e+00,9.77163e-01,9.99999e-01,9.99999e-01,9.78838e-01,9.98436e-01,9.99851e-01
1.216442998e+00,9.80397e-01,9.99999e-01,9.99999e-01,9.81990e-01,9.98467e-01,9.99908e-01
1.222525213e+00,9.84413e-01,9.99999e-01,9.99999e-01,9.85949e-01,9.98497e-01,9.99943e-01
1.228637839e+00,9.88737e-01,9.99999e-01,9.99999e-01,9.90221e-01,9.98527e-01,9.99973e-01
