#,Wave/freq,Total,N2,O2,H2O,Rayleigh,CIA
4.000000000e-01,7.60742e-01,9.99999e-01,9.99999e-01,9.99968e-01,7.60765e-01,9.99999e-01
4.020000000e-01,7.64875e-01,9.99999e-01,9.99999e-01,9.99980e-01,7.64889e-01,9.99999e-01
4.040100000e-01,7.68943e-01,9.99999e-01,9.99999e-01,9.99991e-01,7.68949e-01,9.99999e-01
4.060300500e-01,7.72949e-01,9.99999e-01,9.99999e-01,9.99997e-01,7.72950e-01,9.99999e-01
4.080602003e-01,7.76892e-01,9.99999e-01,9.99999e-01,9.99998e-01,7.76892e-01,9.99999e-01
4.101005013e-01,7.80776e-01,9.99999e-01,9.99999e-01,9.99999e-01,7.80776e-01,9.99999e-01
4.121510038e-01,7.84601e-01,9.99999e-01,9.99999e-01,9.99998e-01,7.84602e-01,9.99999e-01
4.142117588e-01,7.88364e-01,9.99999e-01,9.99999e-01,9.99990e-01,7.88370e-01,9.99999e-01
4.162828176e-01,7.92052e-01,9.99999e-01,9.99999e-01,9.99961e-01,7.92082e-01,9.99999e-01
4.183642317e-01,7.95719e-01,9.99999e-01,9.99999e-01,9.99976e-01,7.95737e-01,9.99999e-01
4.204560528e-01,7.99325e-01,9.99999e-01,9.99999e-01,9.99985e-01,7.99337e-01,9.99999e-01
4.225583331e-01,8.02876e-01,9.99999e-01,9.99999e-01,9.99994e-01,8.02881e-01,9.99999e-01
4.246711247e-01,8.06367e-01,9.99999e-01,9.99999e-01,9.99995e-01,8.06370e-01,9.99999e-01
4.267944804e-01,8.09800e-01,9.99999e-01,9.99999e-01,9.99993e-01,8.09805e-01,9.99999e-01
4.289284528e-01,8.13183e-01,9.99999e-01,9.99999e-01,9.99994e-01,8.13187e-01,9.99999e-01
4.310730950e-01,8.16513e-01,9.99999e-01,9.99999e-01,9.99997e-01,8.16515e-01,9.99999e-01
4.332284605e-01,8.19790e-01,9.99999e-01,9.99999e-01,9.99998e-01,8.19791e-01,9.99999e-01
4.353946028e-01,8.23015e-01,9.99999e-01,9.99999e-01,9.99999e-01,8.23015e-01,9.99999e-01
4.375715758e-01,8.26184e-01,9.99999e-01,9.99999e-01,9.99995e-01,8.26187e-01,9.99999e-01
4.397594337e-01,8.29281e-01,9.99999e-01,9.99999e-01,9.99965e-01,8.29309e-01,9.99999e-01
4.419582309e-01,8.32237e-01,9.99999e-01,9.99999e-01,9.99826e-01,8.32381e-01,9.99999e-01
4.441680220e-01,8.35292e-01,9.99999e-01,9.99999e-01,9.99867e-01,8.35403e-01,9.99999e-01
4.463888621e-01,8.38259e-01,9.99999e-01,9.99999e-01,9.99861e-01,8.38375e-01,9.99999e-01
4.486208064e-01,8.41228e-01,9.99999e-01,9.99999e-01,9.99913e-01,8.41300e-01,9.99999e-01
4.508639105e-01,8.44143e-01,9.99999e-01,9.99999e-01,9.99959e-01,8.44176e-01,9.99999e-01
4.531182300e-01,8.46992e-01,9.99999e-01,9.99999e-01,9.99983e-01,8.47006e-01,9.99999e-01
4.553838212e-01,8.49779e-01,9.99999e-01,9.99999e-01,9.99988e-01,8.49788e-01,9.99999e-01
4.576607403e-01,8.52521e-01,9.99999e-01,9.99999e-01,9.99994e-01,8.52525e-01,9.99999e-01
4.599490440e-01,8.55213e-01,9.99999e-01,9.99999e-01,9.99996e-01,8.55216e-01,9.99999e-01
4.622487892e-01,8.57861e-01,9.99999e-01,9.99999e-01,9.99998e-01,8.57862e-01,9.99999e-01
4.645600332e-01,8.60462e-01,9.99999e-01,9.99999e-01,9.99997e-01,8.60464e-01,9.99999e-01
4.668828333e-01,8.62986e-01,9.99999e-01,9.99999e-01,9.99958e-01,8.63022e-01,9.99999e-01
4.692172475e-01,8.65462e-01,9.99999e-01,9.99999e-01,9.99912e-01,8.65537e-01,9.99999e-01
4.715633337e-01,8.67960e-01,9.99999e-01,9.99999e-01,9.99942e-01,8.68009e-01,9.99999e-01
4.739211504e-01,8.70392e-01,9.99999e-01,9.99999e-01,9.99945e-01,8.70439e-01,9.99999e-01
4.762907561e-01,8.72804e-01,9.99999e-01,9.99999e-01,9.99971e-01,8.72828e-01,9.99999e-01
4.786722099e-01,8.75166e-01,9.99999e-01,9.99999e-01,9.99988e-01,8.75176e-01,9.99999e-01
4.810655710e-01,8.77481e-01,9.99999e-01,9.99999e-01,9.99996e-01,8.77484e-01,9.99999e-01
4.834708988e-01,8.79723e-01,9.99999e-01,9.99999e-01,9.99965e-01,8.79753e-01,9.99999e-01
4.858882533e-01,8.81928e-01,9.99999e-01,9.99999e-01,9.99938e-01,8.81982e-01,9.99999e-01
4.883176946e-01,8.84127e-01,9.99999e-01,9.99999e-01,9.99947e-01,8.84172e-01,9.99999e-01
4.907592831e-01,8.86284e-01,9.99999e-01,9.99999e-01,9.99953e-01,8.86325e-01,9.99999e-01
4.932130795e-01,8.88411e-01,9.99999e-01,9.99999e-01,9.99966e-01,8.88440e-01,9.99999e-01
4.956791449e-01,8.90503e-01,9.99999e-01,9.99999e-01,9.99982e-01,8.90518e-01,9.99999e-01
4.981575406e-01,8.92482e-01,9.99999e-01,9.99999e-01,9.99911e-01,8.92560e-01,9.99999e-01
5.006483283e-01,8.94360e-01,9.99999e-01,9.99999e-01,9.99771e-01,8.94566e-01,9.99997e-01
5.031515699e-01,8.95496e-01,9.99999e-01,9.99999e-01,9.98850e-01,8.96537e-01,9.99987e-01
5.056673278e-01,8.97918e-01,9.99999e-01,9.99999e-01,9.99395e-01,8.98473e-01,9.99985e-01
5.081956644e-01,8.99681e-01,9.99999e-01,9.99999e-01,9.99237e-01,9.00375e-01,9.99991e-01
5.107366428e-01,9.01778e-01,9.99999e-01,9.99999e-01,9.99485e-01,9.02243e-01,9.99998e-01
5.132903260e-01,9.03813e-01,9.99999e-01,9.99999e-01,9.99706e-01,9.04079e-01,9.99999e-01
5.158567776e-01,9.05769e-01,9.99999e-01,9.99999e-01,9.99875e-01,9.05881e-01,9.99999e-01
5.184360615e-01,9.07607e-01,9.99999e-01,9.99999e-01,9.99949e-01,9.07652e-01,9.99999e-01
5.210282418e-01,9.09373e-01,9.99999e-01,9.99999e-01,9.99980e-01,9.09390e-01,9.99999e-01
5.236333830e-01,9.11029e-01,9.99999e-01,9.99999e-01,9.99924e-01,9.11098e-01,9.99998e-01
5.262515499e-01,9.12732e-01,9.99999e-01,9.99999e-01,9.99952e-01,9.12775e-01,9.99998e-01
5.288828077e-01,9.14382e-01,9.99999e-01,9.99999e-01,9.99956e-01,9.14422e-01,9.99999e-01
5.315272217e-01,9.16005e-01,9.99999e-01,9.99999e-01,9.99962e-01,9.16039e-01,9.99999e-01
5.341848578e-01,9.17605e-01,9.99999e-01,9.99999e-01,9.99974e-01,9.17627e-01,9.99999e-01
5.368557821e-01,9.19106e-01,9.99999e-01,9.99999e-01,9.99912e-01,9.19187e-01,9.99999e-01
5.395400610e-01,9.20423e-01,9.99999e-01,9.99999e-01,9.99681e-01,9.20718e-01,9.99996e-01
5.422377613e-01,9.21841e-01,9.99999e-01,9.99999e-01,9.99594e-01,9.22222e-01,9.99992e-01
5.449489501e-01,9.23340e-01,9.99999e-01,9.99999e-01,9.99620e-01,9.23698e-01,9.99991e-01
5.476736949e-01,9.24835e-01,9.99999e-01,9.99999e-01,9.99666e-01,9.25147e-01,9.99995e-01
5.504120634e-01,9.26345e-01,9.99999e-01,9.99999e-01,9.99757e-01,9.26570e-01,9.99998e-01
5.531641237e-01,9.27854e-01,9.99999e-01,9.99999e-01,9.99877e-01,9.27967e-01,9.99999e-01
5.559299443e-01,9.29283e-01,9.99999e-01,9.99999e-01,9.99940e-01,9.29338e-01,9.99999e-01
5.587095940e-01,9.30650e-01,9.99999e-01,9.99999e-01,9.99962e-01,9.30684e-01,9.99999e-01
5.615031420e-01,9.31967e-01,9.99999e-01,9.99999e-01,9.99958e-01,9.32006e-01,9.99999e-01
5.643106577e-01,9.33258e-01,9.99999e-01,9.99999e-01,9.99952e-01,9.33303e-01,9.99999e-01
5.671322110e-01,9.34032e-01,9.99999e-01,9.99999e-01,9.99422e-01,9.34576e-01,9.99994e-01
5.699678720e-01,9.35252e-01,9.99999e-01,9.99999e-01,9.99401e-01,9.35826e-01,9.99984e-01
5.728177114e-01,9.36451e-01,9.99999e-01,9.99999e-01,9.99370e-01,9.37053e-01,9.99986e-01
5.756818000e-01,9.37709e-01,9.99999e-01,9.99999e-01,9.99423e-01,9.38257e-01,9.99992e-01
5.785602090e-01,9.38966e-01,9.99999e-01,9.99999e-01,9.99498e-01,9.39439e-01,9.99997e-01
5.814530100e-01,9.40123e-01,9.99999e-01,9.99999e-01,9.99494e-01,9.40599e-01,9.99998e-01
5.843602750e-01,9.41164e-01,9.99999e-01,9.99999e-01,9.99393e-01,9.41737e-01,9.99996e-01
5.872820764e-01,9.37907e-01,9.99999e-01,9.99999e-01,9.94788e-01,9.42854e-01,9.99963e-01
5.902184868e-01,9.37949e-01,9.99999e-01,9.99999e-01,9.93740e-01,9.43951e-01,9.99900e-01
5.931695792e-01,9.40744e-01,9.99999e-01,9.99999e-01,9.95562e-01,9.45027e-01,9.99904e-01
5.961354271e-01,9.41440e-01,9.99999e-01,9.99999e-01,9.95146e-01,9.46083e-01,9.99944e-01
5.991161043e-01,9.43753e-01,9.99999e-01,9.99999e-01,9.96462e-01,9.47119e-01,9.99982e-01
6.021116848e-01,9.46233e-01,9.99999e-01,9.99999e-01,9.97993e-01,9.48136e-01,9.99997e-01
6.051222432e-01,9.48171e-01,9.99999e-01,9.99999e-01,9.98984e-01,9.49134e-01,9.99999e-01
6.081478544e-01,9.49697e-01,9.99999e-01,9.99999e-01,9.99561e-01,9.50113e-01,9.99999e-01
6.111885937e-01,9.50899e-01,9.99999e-01,9.99999e-01,9.99814e-01,9.51074e-01,9.99999e-01
6.142445367e-01,9.51938e-01,9.99999e-01,9.99999e-01,9.99916e-01,9.52017e-01,9.99999e-01
6.173157594e-01,9.52899e-01,9.99999e-01,9.99999e-01,9.99953e-01,9.52942e-01,9.99999e-01
6.204023382e-01,9.53813e-01,9.99999e-01,9.99999e-01,9.99960e-01,9.53850e-01,9.99999e-01
6.235043498e-01,9.54575e-01,9.99999e-01,9.99999e-01,9.99826e-01,9.54741e-01,9.99999e-01
6.266218716e-01,9.54744e-01,9.99999e-01,9.99999e-01,9.99095e-01,9.55614e-01,9.99993e-01
6.297549810e-01,9.56142e-01,9.99999e-01,9.99999e-01,9.99667e-01,9.56472e-01,9.99986e-01
6.329037559e-01,9.56677e-01,9.99999e-01,9.99999e-01,9.99345e-01,9.57313e-01,9.99989e-01
6.360682746e-01,9.57597e-01,9.99999e-01,9.99999e-01,9.99440e-01,9.58138e-01,9.99993e-01
6.392486160e-01,9.58252e-01,9.99999e-01,9.99999e-01,9.99276e-01,9.58948e-01,9.99996e-01
6.424448591e-01,9.58802e-01,9.99999e-01,9.99999e-01,9.99024e-01,9.59742e-01,9.99994e-01
6.456570834e-01,9.56153e-01,9.99999e-01,9.99999e-01,9.95478e-01,9.60521e-01,9.99972e-01
6.488853688e-01,9.58069e-01,9.99999e-01,9.99999e-01,9.96722e-01,9.61286e-01,9.99929e-01
6.521297956e-01,9.58767e-01,9.99999e-01,9.99999e-01,9.96659e-01,9.62036e-01,9.99942e-01
6.553904446e-01,9.59515e-01,9.99999e-01,9.99999e-01,9.96660e-01,9.62772e-01,9.99956e-01
6.586673968e-01,9.60735e-01,9.99999e-01,9.99999e-01,9.97150e-01,9.63493e-01,9.99985e-01
6.619607338e-01,9.62668e-01,9.99999e-01,9.99999e-01,9.98411e-01,9.64201e-01,9.99996e-01
6.652705375e-01,9.63975e-01,9.99999e-01,9.99999e-01,9.99046e-01,9.64896e-01,9.99997e-01
6.685968902e-01,9.65186e-01,9.99999e-01,9.99999e-01,9.99594e-01,9.65577e-01,9.99999e-01
6.719398746e-01,9.66047e-01,9.99999e-01,9.99999e-01,9.99794e-01,9.66245e-01,9.99999e-01
6.752995740e-01,9.66796e-01,9.99999e-01,9.99999e-01,9.99891e-01,9.66901e-01,9.99999e-01
6.786760719e-01,9.67387e-01,9.99999e-01,9.99999e-01,9.99837e-01,9.67544e-01,9.99999e-01
6.820694522e-01,9.67906e-01,9.99999e-01,9.99999e-01,9.99723e-01,9.68175e-01,9.99998e-01
6.854797995e-01,9.68445e-01,9.99999e-01,9.99999e-01,9.99643e-01,9.68793e-01,9.99996e-01
6.889071985e-01,9.68546e-01,9.99999e-01,9.99999e-01,9.99125e-01,9.69400e-01,9.99991e-01
6.923517345e-01,9.56284e-01,9.99999e-01,9.99999e-01,9.85930e-01,9.69996e-01,9.99932e-01
6.958134932e-01,9.63451e-01,9.99999e-01,9.99999e-01,9.92802e-01,9.70579e-01,9.99850e-01
6.992925606e-01,9.64253e-01,9.99999e-01,9.99999e-01,9.93028e-01,9.71152e-01,9.99865e-01
7.027890234e-01,9.63319e-01,9.99999e-01,9.99999e-01,9.91462e-01,9.71714e-01,9.99896e-01
7.063029686e-01,9.65227e-01,9.99999e-01,9.99999e-01,9.92811e-01,9.72265e-01,9.99948e-01
7.098344834e-01,9.66066e-01,9.99999e-01,9.99999e-01,9.93102e-01,9.72805e-01,9.99969e-01
7.133836558e-01,9.64238e-01,9.99999e-01,9.99999e-01,9.90712e-01,9.73335e-01,9.99939e-01
7.169505741e-01,9.03436e-01,9.99999e-01,9.99999e-01,9.28129e-01,9.73855e-01,9.99527e-01
7.205353270e-01,9.39237e-01,9.99999e-01,9.99999e-01,9.64751e-01,9.74364e-01,9.99166e-01
7.241380036e-01,9.30106e-01,9.99999e-01,9.99999e-01,9.54774e-01,9.74864e-01,9.99280e-01
7.277586936e-01,9.34951e-01,9.99999e-01,9.99999e-01,9.59138e-01,9.75355e-01,9.99411e-01
7.313974871e-01,9.33464e-01,9.99999e-01,9.99999e-01,9.56842e-01,9.75835e-01,9.99724e-01
7.350544745e-01,9.52936e-01,9.99999e-01,9.99999e-01,9.76154e-01,9.76307e-01,9.99903e-01
7.387297469e-01,9.59546e-01,9.99999e-01,9.99999e-01,9.82409e-01,9.76769e-01,9.99955e-01
7.424233956e-01,9.68787e-01,9.99999e-01,9.99999e-01,9.91374e-01,9.77223e-01,9.99991e-01
7.461355126e-01,9.72542e-01,9.99999e-01,9.99999e-01,9.94757e-01,9.77668e-01,9.99998e-01
7.498661902e-01,9.75720e-01,9.99999e-01,9.99999e-01,9.97563e-01,9.78104e-01,9.99998e-01
7.536155211e-01,9.77358e-01,9.99999e-01,9.99999e-01,9.98800e-01,9.78532e-01,9.99999e-01
7.573835987e-01,9.78347e-01,9.99999e-01,9.99999e-01,9.99382e-01,9.78951e-01,9.99999e-01
7.611705167e-01,9.78987e-01,9.99999e-01,9.99999e-01,9.99616e-01,9.79363e-01,9.99999e-01
7.649763693e-01,9.79531e-01,9.99999e-01,9.99999e-01,9.99758e-01,9.79766e-01,9.99999e-01
7.688012511e-01,9.79998e-01,9.99999e-01,9.99999e-01,9.99831e-01,9.80162e-01,9.99999e-01
7.726452574e-01,9.80415e-01,9.99999e-01,9.99999e-01,9.99861e-01,9.80550e-01,9.99999e-01
7.765084837e-01,9.80736e-01,9.99999e-01,9.99999e-01,9.99801e-01,9.80930e-01,9.99999e-01
7.803910261e-01,9.80463e-01,9.99999e-01,9.99999e-01,9.99144e-01,9.81304e-01,9.99998e-01
7.842929812e-01,9.78734e-01,9.99999e-01,9.99999e-01,9.97014e-01,9.81669e-01,9.99994e-01
7.882144461e-01,9.76002e-01,9.99999e-01,9.99999e-01,9.93904e-01,9.82028e-01,9.99957e-01
7.921555184e-01,9.79038e-01,9.99999e-01,9.99999e-01,9.96669e-01,9.82380e-01,9.99926e-01
7.961162960e-01,9.76818e-01,9.99999e-01,9.99999e-01,9.94057e-01,9.82725e-01,9.99930e-01
8.000968774e-01,9.76283e-01,9.99999e-01,9.99999e-01,9.93175e-01,9.83063e-01,9.99925e-01
8.040973618e-01,9.76619e-01,9.99999e-01,9.99999e-01,9.93164e-01,9.83395e-01,9.99943e-01
8.081178486e-01,9.68484e-01,9.99999e-01,9.99999e-01,9.84567e-01,9.83720e-01,9.99942e-01
8.121584379e-01,9.22183e-01,9.99999e-01,9.99999e-01,9.37342e-01,9.84039e-01,9.99783e-01
8.162192301e-01,9.11489e-01,9.99999e-01,9.99999e-01,9.26728e-01,9.84352e-01,9.99189e-01
8.203003262e-01,9.46674e-01,9.99999e-01,9.99999e-01,9.62335e-01,9.84659e-01,9.99050e-01
8.244018279e-01,9.34014e-01,9.99999e-01,9.99999e-01,9.48993e-01,9.84959e-01,9.99244e-01
8.285238370e-01,9.40688e-01,9.99999e-01,9.99999e-01,9.55333e-01,9.85254e-01,9.99406e-01
8.326664562e-01,9.41001e-01,9.99999e-01,9.99999e-01,9.55037e-01,9.85543e-01,9.99754e-01
8.368297885e-01,9.53945e-01,9.99999e-01,9.99999e-01,9.67713e-01,9.85827e-01,9.99943e-01
8.410139374e-01,9.67043e-01,9.99999e-01,9.99999e-01,9.80700e-01,9.86105e-01,9.99966e-01
8.452190071e-01,9.76992e-01,9.99999e-01,9.99999e-01,9.90503e-01,9.86378e-01,9.99979e-01
8.494451021e-01,9.81166e-01,9.99999e-01,9.99999e-01,9.94461e-01,9.86645e-01,9.99983e-01
8.536923276e-01,9.83672e-01,9.99999e-01,9.99999e-01,9.96731e-01,9.86907e-01,9.99989e-01
8.579607893e-01,9.85169e-01,9.99999e-01,9.99999e-01,9.97980e-01,9.87164e-01,9.99997e-01
8.622505932e-01,9.86152e-01,9.99999e-01,9.99999e-01,9.98719e-01,9.87416e-01,9.99999e-01
8.665618462e-01,9.86878e-01,9.99999e-01,9.99999e-01,9.99205e-01,9.87663e-01,9.99999e-01
8.708946554e-01,9.87004e-01,9.99999e-01,9.99999e-01,9.99088e-01,9.87905e-01,9.99999e-01
8.752491287e-01,9.86937e-01,9.99999e-01,9.99999e-01,9.98781e-01,9.88142e-01,9.99998e-01
8.796253743e-01,9.86699e-01,9.99999e-01,9.99999e-01,9.98307e-01,9.88375e-01,9.99995e-01
8.840235012e-01,9.86683e-01,9.99999e-01,9.99999e-01,9.98068e-01,9.88603e-01,9.99987e-01
8.884436187e-01,9.81731e-01,9.99999e-01,9.99999e-01,9.92856e-01,9.88827e-01,9.99966e-01
8.928858368e-01,9.17747e-01,9.99999e-01,9.99999e-01,9.28088e-01,9.89047e-01,9.99807e-01
8.973502660e-01,8.67119e-01,9.99999e-01,9.99999e-01,8.77395e-01,9.89262e-01,9.99013e-01
9.018370173e-01,9.24607e-01,9.99999e-01,9.99999e-01,9.35893e-01,9.89473e-01,9.98450e-01
9.063462024e-01,9.31482e-01,9.99999e-01,9.99999e-01,9.42478e-01,9.89680e-01,9.98638e-01
9.108779334e-01,9.01653e-01,9.99999e-01,9.99999e-01,9.12158e-01,9.89883e-01,9.98585e-01
9.154323231e-01,8.90964e-01,9.99999e-01,9.99999e-01,9.00942e-01,9.90081e-01,9.98830e-01
9.200094847e-01,9.12214e-01,9.99999e-01,9.99999e-01,9.21773e-01,9.90276e-01,9.99344e-01
9.246095321e-01,8.70156e-01,9.99999e-01,9.99999e-01,8.79192e-01,9.90467e-01,9.99245e-01
9.292325798e-01,4.26707e-01,9.99999e-01,9.99999e-01,4.32304e-01,9.90655e-01,9.96363e-01
9.338787427e-01,3.35689e-01,9.99999e-01,9.99999e-01,3.43283e-01,9.90839e-01,9.86919e-01
9.385481364e-01,6.33912e-01,9.99999e-01,9.99999e-01,6.48977e-01,9.91019e-01,9.85637e-01
9.432408771e-01,5.37907e-01,9.99999e-01,9.99999e-01,5.49500e-01,9.91195e-01,9.87596e-01
9.479570815e-01,4.32454e-01,9.99999e-01,9.99999e-01,4.40672e-01,9.91368e-01,9.89893e-01
9.526968669e-01,5.30275e-01,9.99999e-01,9.99999e-01,5.38123e-01,9.91538e-01,9.93823e-01
9.574603512e-01,5.53591e-01,9.99999e-01,9.99999e-01,5.59981e-01,9.91705e-01,9.96857e-01
9.622476530e-01,6.16609e-01,9.99999e-01,9.99999e-01,6.23018e-01,9.91868e-01,9.97825e-01
9.670588912e-01,7.53223e-01,9.99999e-01,9.99999e-01,7.60407e-01,9.92028e-01,9.98512e-01
9.718941857e-01,8.33983e-01,9.99999e-01,9.99999e-01,8.41472e-01,9.92185e-01,9.98904e-01
9.767536566e-01,8.59066e-01,9.99999e-01,9.99999e-01,8.66423e-01,9.92338e-01,9.99162e-01
9.816374249e-01,8.92304e-01,9.99999e-01,9.99999e-01,8.99316e-01,9.92489e-01,9.99709e-01
9.865456120e-01,9.28885e-01,9.99999e-01,9.99999e-01,9.35831e-01,9.92637e-01,9.99939e-01
9.914783401e-01,9.52858e-01,9.99999e-01,9.99999e-01,9.59801e-01,9.92782e-01,9.99982e-01
9.964357318e-01,9.70983e-01,9.99999e-01,9.99999e-01,9.77912e-01,9.92924e-01,9.99989e-01
1.001417910e+00,9.79851e-01,9.99999e-01,9.99999e-01,9.86709e-01,9.93063e-01,9.99984e-01
1.006425000e+00,9.85619e-01,9.99999e-01,9.99999e-01,9.92387e-01,9.93200e-01,9.99978e-01
1.011457125e+00,9.88626e-01,9.99999e-01,9.99999e-01,9.95280e-01,9.93333e-01,9.99979e-01
1.016514411e+00,9.90262e-01,9.99999e-01,9.99999e-01,9.96789e-01,9.93465e-01,9.99985e-01
1.021596983e+00,9.91036e-01,9.99999e-01,9.99999e-01,9.97439e-01,9.93593e-01,9.99985e-01
1.026704968e+00,9.91726e-01,9.99999e-01,9.99999e-01,9.98001e-01,9.93719e-01,9.99990e-01
1.031838492e+00,9.92400e-01,9.99999e-01,9.99999e-01,9.98550e-01,9.93843e-01,9.99996e-01
1.036997685e+00,9.93106e-01,9.99999e-01,9.99999e-01,9.99136e-01,9.93964e-01,9.99999e-01
1.042182673e+00,9.93057e-01,9.99999e-01,9.99999e-01,9.98967e-01,9.94083e-01,9.99999e-01
1.047393587e+00,9.92841e-01,9.99999e-01,9.99999e-01,9.98633e-01,9.94200e-01,9.99999e-01
1.052630555e+00,9.92447e-01,9.99999e-01,9.99999e-01,9.98122e-01,9.94314e-01,9.99999e-01
1.057893707e+00,9.91306e-01,9.99999e-01,9.99999e-01,9.96862e-01,9.94426e-01,9.99998e-01
1.063183176e+00,9.89408e-01,9.99999e-01,9.99999e-01,9.94846e-01,9.94536e-01,9.99996e-01
1.068499092e+00,9.86080e-01,9.99999e-01,9.99999e-01,9.91395e-01,9.94643e-01,9.99993e-01
1.073841587e+00,9.84710e-01,9.99999e-01,9.99999e-01,9.89920e-01,9.94749e-01,9.99986e-01
1.079210795e+00,9.82023e-01,9.99999e-01,9.99999e-01,9.87138e-01,9.94852e-01,9.99965e-01
1.084606849e+00,9.75533e-01,9.99999e-01,9.99999e-01,9.80561e-01,9.94954e-01,9.99916e-01
1.090029883e+00,9.67071e-01,9.99999e-01,9.99999e-01,9.72045e-01,9.95053e-01,9.99827e-01
1.095480033e+00,9.21020e-01,9.99999e-01,9.99999e-01,9.25795e-01,9.95151e-01,9.99688e-01
1.100957433e+00,8.18126e-01,9.99999e-01,9.99999e-01,8.22503e-01,9.95246e-01,9.99427e-01
1.106462220e+00,6.07871e-01,9.99999e-01,9.99999e-01,6.11309e-01,9.95340e-01,9.99029e-01
1.111994531e+00,3.57967e-01,9.99999e-01,9.99999e-01,3.60537e-01,9.95432e-01,9.97427e-01
1.117554504e+00,1.93009e-01,9.99999e-01,9.99999e-01,1.95688e-01,9.95522e-01,9.90743e-01
1.123142276e+00,3.04757e-01,9.99999e-01,9.99999e-01,3.12926e-01,9.95610e-01,9.78187e-01
1.128757988e+00,4.50255e-01,9.99999e-01,9.99999e-01,4.63886e-01,9.95696e-01,9.74810e-01
1.134401778e+00,2.29320e-01,9.99999e-01,9.99999e-01,2.35342e-01,9.95781e-01,9.78540e-01
1.140073787e+00,6.13569e-01,9.99999e-01,9.99999e-01,6.26888e-01,9.95864e-01,9.82816e-01
1.145774156e+00,3.78648e-01,9.99999e-01,9.99999e-01,3.86269e-01,9.95946e-01,9.84259e-01
1.151503026e+00,3.44233e-01,9.99999e-01,9.99999e-01,3.48674e-01,9.96026e-01,9.91200e-01
1.157260541e+00,4.03126e-01,9.99999e-01,9.99999e-01,4.05773e-01,9.96104e-01,9.97360e-01
1.163046844e+00,5.10351e-01,9.99999e-01,9.99999e-01,5.12691e-01,9.96181e-01,9.99250e-01
1.168862078e+00,6.23424e-01,9.99999e-01,9.99999e-01,6.26008e-01,9.96256e-01,9.99613e-01
1.174706389e+00,7.45629e-01,9.99999e-01,9.99999e-01,7.48758e-01,9.96330e-01,9.99488e-01
1.180579921e+00,8.34625e-01,9.99999e-01,9.99999e-01,8.38286e-01,9.96402e-01,9.99226e-01
1.186482820e+00,9.01001e-01,9.99999e-01,9.99999e-01,9.04907e-01,9.96473e-01,9.99206e-01
1.192415234e+00,9.39460e-01,9.99999e-01,9.99999e-01,9.43279e-01,9.96543e-01,9.99405e-01
1.198377311e+00,9.48145e-01,9.99999e-01,9.99999e-01,9.51905e-01,9.96611e-01,9.99435e-01
1.204369197e+00,9.50859e-01,9.99999e-01,9.99999e-01,9.54497e-01,9.96678e-01,9.99508e-01
1.210391043e+00,9.53025e-01,9.99999e-01,9.99999e-01,9.56433e-01,9.96743e-01,9.99690e-01
1.216442998e+00,9.59634e-01,9.99999e-01,9.99999e-01,9.62889e-01,9.96807e-01,9.99810e-01
1.222525213e+00,9.67806e-01,9.99999e-01,9.99999e-01,9.70958e-01,9.96870e-01,9.99881e-01
1.228637839e+00,9.76673e-01,9.99999e-01,9.99999e-01,9.79731e-01,9.96932e-01,9.99944e-01
