#,Wave/freq,Total,N2,O2,H2O,Rayleigh,CIA
4.000000000e-01,8.15515e-01,9.99999e-01,9.99999e-01,9.99976e-01,8.15534e-01,9.99999e-01
4.020000000e-01,8.18817e-01,9.99999e-01,9.99999e-01,9.99985e-01,8.18829e-01,9.99999e-01
4.040100000e-01,8.22063e-01,9.99999e-01,9.99999e-01,9.99993e-01,8.22068e-01,9.99999e-01
4.060300500e-01,8.25255e-01,9.99999e-01,9.99999e-01,9.99998e-01,8.25256e-01,9.99999e-01
4.080602003e-01,8.28392e-01,9.99999e-01,9.99999e-01,9.99999e-01,8.28393e-01,9.99999e-01
4.101005013e-01,8.31479e-01,9.99999e-01,9.99999e-01,9.99999e-01,8.31479e-01,9.99999e-01
4.121510038e-01,8.34515e-01,9.99999e-01,9.99999e-01,9.99998e-01,8.34515e-01,9.99999e-01
4.142117588e-01,8.37498e-01,9.99999e-01,9.99999e-01,9.99993e-01,8.37503e-01,9.99999e-01
4.162828176e-01,8.40417e-01,9.99999e-01,9.99999e-01,9.99970e-01,8.40441e-01,9.99999e-01
4.183642317e-01,8.43318e-01,9.99999e-01,9.99999e-01,9.99982e-01,8.43332e-01,9.99999e-01
4.204560528e-01,8.46166e-01,9.99999e-01,9.99999e-01,9.99989e-01,8.46175e-01,9.99999e-01
4.225583331e-01,8.48968e-01,9.99999e-01,9.99999e-01,9.99995e-01,8.48972e-01,9.99999e-01
4.246711247e-01,8.51719e-01,9.99999e-01,9.99999e-01,9.99996e-01,8.51722e-01,9.99999e-01
4.267944804e-01,8.54422e-01,9.99999e-01,9.99999e-01,9.99994e-01,8.54426e-01,9.99999e-01
4.289284528e-01,8.57082e-01,9.99999e-01,9.99999e-01,9.99995e-01,8.57085e-01,9.99999e-01
4.310730950e-01,8.59699e-01,9.99999e-01,9.99999e-01,9.99997e-01,8.59700e-01,9.99999e-01
4.332284605e-01,8.62271e-01,9.99999e-01,9.99999e-01,9.99999e-01,8.62271e-01,9.99999e-01
4.353946028e-01,8.64798e-01,9.99999e-01,9.99999e-01,9.99999e-01,8.64799e-01,9.99999e-01
4.375715758e-01,8.67281e-01,9.99999e-01,9.99999e-01,9.99996e-01,8.67283e-01,9.99999e-01
4.397594337e-01,8.69705e-01,9.99999e-01,9.99999e-01,9.99974e-01,8.69726e-01,9.99999e-01
4.419582309e-01,8.72018e-01,9.99999e-01,9.99999e-01,9.99874e-01,8.72127e-01,9.99999e-01
4.441680220e-01,8.74400e-01,9.99999e-01,9.99999e-01,9.99899e-01,8.74487e-01,9.99999e-01
4.463888621e-01,8.76717e-01,9.99999e-01,9.99999e-01,9.99896e-01,8.76807e-01,9.99999e-01
4.486208064e-01,8.79030e-01,9.99999e-01,9.99999e-01,9.99934e-01,8.79087e-01,9.99999e-01
4.508639105e-01,8.81301e-01,9.99999e-01,9.99999e-01,9.99969e-01,8.81327e-01,9.99999e-01
4.531182300e-01,8.83519e-01,9.99999e-01,9.99999e-01,9.99987e-01,8.83529e-01,9.99999e-01
4.553838212e-01,8.85686e-01,9.99999e-01,9.99999e-01,9.99991e-01,8.85693e-01,9.99999e-01
4.576607403e-01,8.87816e-01,9.99999e-01,9.99999e-01,9.99995e-01,8.87819e-01,9.99999e-01
4.599490440e-01,8.89906e-01,9.99999e-01,9.99999e-01,9.99996e-01,8.89908e-01,9.99999e-01
4.622487892e-01,8.91960e-01,9.99999e-01,9.99999e-01,9.99999e-01,8.91961e-01,9.99999e-01
4.645600332e-01,8.93976e-01,9.99999e-01,9.99999e-01,9.99997e-01,8.93977e-01,9.99999e-01
4.668828333e-01,8.95932e-01,9.99999e-01,9.99999e-01,9.99969e-01,8.95959e-01,9.99999e-01
4.692172475e-01,8.97847e-01,9.99999e-01,9.99999e-01,9.99934e-01,8.97905e-01,9.99999e-01
4.715633337e-01,8.99779e-01,9.99999e-01,9.99999e-01,9.99957e-01,8.99817e-01,9.99999e-01
4.739211504e-01,9.01659e-01,9.99999e-01,9.99999e-01,9.99958e-01,9.01695e-01,9.99999e-01
4.762907561e-01,9.03521e-01,9.99999e-01,9.99999e-01,9.99978e-01,9.03540e-01,9.99999e-01
4.786722099e-01,9.05344e-01,9.99999e-01,9.99999e-01,9.99990e-01,9.05352e-01,9.99999e-01
4.810655710e-01,9.07130e-01,9.99999e-01,9.99999e-01,9.99996e-01,9.07132e-01,9.99999e-01
4.834708988e-01,9.08858e-01,9.99999e-01,9.99999e-01,9.99975e-01,9.08880e-01,9.99999e-01
4.858882533e-01,9.10555e-01,9.99999e-01,9.99999e-01,9.99953e-01,9.10597e-01,9.99999e-01
4.883176946e-01,9.12248e-01,9.99999e-01,9.99999e-01,9.99961e-01,9.12283e-01,9.99999e-01
4.907592831e-01,9.13907e-01,9.99999e-01,9.99999e-01,9.99964e-01,9.13939e-01,9.99999e-01
4.932130795e-01,9.15542e-01,9.99999e-01,9.99999e-01,9.99974e-01,9.15565e-01,9.99999e-01
4.956791449e-01,9.17150e-01,9.99999e-01,9.99999e-01,9.99986e-01,9.17162e-01,9.99999e-01
4.981575406e-01,9.18670e-01,9.99999e-01,9.99999e-01,9.99934e-01,9.18729e-01,9.99999e-01
5.006483283e-01,9.20115e-01,9.99999e-01,9.99999e-01,9.99832e-01,9.20269e-01,9.99998e-01
5.031515699e-01,9.20986e-01,9.99999e-01,9.99999e-01,9.99146e-01,9.21781e-01,9.99990e-01
5.056673278e-01,9.22838e-01,9.99999e-01,9.99999e-01,9.99547e-01,9.23265e-01,9.99989e-01
5.081956644e-01,9.24188e-01,9.99999e-01,9.99999e-01,9.99429e-01,9.24722e-01,9.99992e-01
5.107366428e-01,9.25794e-01,9.99999e-01,9.99999e-01,9.99613e-01,9.26152e-01,9.99998e-01
5.132903260e-01,9.27352e-01,9.99999e-01,9.99999e-01,9.99778e-01,9.27557e-01,9.99999e-01
5.158567776e-01,9.28849e-01,9.99999e-01,9.99999e-01,9.99906e-01,9.28936e-01,9.99999e-01
5.184360615e-01,9.30255e-01,9.99999e-01,9.99999e-01,9.99962e-01,9.30289e-01,9.99999e-01
5.210282418e-01,9.31605e-01,9.99999e-01,9.99999e-01,9.99985e-01,9.31618e-01,9.99999e-01
5.236333830e-01,9.32870e-01,9.99999e-01,9.99999e-01,9.99943e-01,9.32922e-01,9.99999e-01
5.262515499e-01,9.34170e-01,9.99999e-01,9.99999e-01,9.99964e-01,9.34203e-01,9.99998e-01
5.288828077e-01,9.35429e-01,9.99999e-01,9.99999e-01,9.99967e-01,9.35459e-01,9.99999e-01
5.315272217e-01,9.36666e-01,9.99999e-01,9.99999e-01,9.99971e-01,9.36693e-01,9.99999e-01
5.341848578e-01,9.37887e-01,9.99999e-01,9.99999e-01,9.99981e-01,9.37904e-01,9.99999e-01
5.368557821e-01,9.39032e-01,9.99999e-01,9.99999e-01,9.99935e-01,9.39092e-01,9.99999e-01
5.395400610e-01,9.40039e-01,9.99999e-01,9.99999e-01,9.99768e-01,9.40259e-01,9.99997e-01
5.422377613e-01,9.41112e-01,9.99999e-01,9.99999e-01,9.99695e-01,9.41403e-01,9.99994e-01
5.449489501e-01,9.42258e-01,9.99999e-01,9.99999e-01,9.99719e-01,9.42527e-01,9.99993e-01
5.476736949e-01,9.43390e-01,9.99999e-01,9.99999e-01,9.99749e-01,9.43629e-01,9.99996e-01
5.504120634e-01,9.44539e-01,9.99999e-01,9.99999e-01,9.99817e-01,9.44711e-01,9.99998e-01
5.531641237e-01,9.45687e-01,9.99999e-01,9.99999e-01,9.99908e-01,9.45773e-01,9.99999e-01
5.559299443e-01,9.46774e-01,9.99999e-01,9.99999e-01,9.99955e-01,9.46815e-01,9.99999e-01
5.587095940e-01,9.47812e-01,9.99999e-01,9.99999e-01,9.99971e-01,9.47838e-01,9.99999e-01
5.615031420e-01,9.48812e-01,9.99999e-01,9.99999e-01,9.99968e-01,9.48842e-01,9.99999e-01
5.643106577e-01,9.49793e-01,9.99999e-01,9.99999e-01,9.99965e-01,9.49826e-01,9.99999e-01
5.671322110e-01,9.50396e-01,9.99999e-01,9.99999e-01,9.99585e-01,9.50792e-01,9.99996e-01
5.699678720e-01,9.51297e-01,9.99999e-01,9.99999e-01,9.99545e-01,9.51741e-01,9.99988e-01
5.728177114e-01,9.52217e-01,9.99999e-01,9.99999e-01,9.99532e-01,9.52671e-01,9.99989e-01
5.756818000e-01,9.53168e-01,9.99999e-01,9.99999e-01,9.99569e-01,9.53584e-01,9.99993e-01
5.785602090e-01,9.54119e-01,9.99999e-01,9.99999e-01,9.99624e-01,9.54479e-01,9.99997e-01
5.814530100e-01,9.54998e-01,9.99999e-01,9.99999e-01,9.99623e-01,9.55358e-01,9.99998e-01
5.843602750e-01,9.55793e-01,9.99999e-01,9.99999e-01,9.99555e-01,9.56220e-01,9.99997e-01
5.872820764e-01,9.53371e-01,9.99999e-01,9.99999e-01,9.96166e-01,9.57066e-01,9.99972e-01
5.902184868e-01,9.53332e-01,9.99999e-01,9.99999e-01,9.95308e-01,9.57896e-01,9.99925e-01
5.931695792e-01,9.55474e-01,9.99999e-01,9.99999e-01,9.96695e-01,9.58710e-01,9.99927e-01
5.961354271e-01,9.55984e-01,9.99999e-01,9.99999e-01,9.96368e-01,9.59509e-01,9.99956e-01
5.991161043e-01,9.57734e-01,9.99999e-01,9.99999e-01,9.97347e-01,9.60293e-01,9.99986e-01
6.021116848e-01,9.59612e-01,9.99999e-01,9.99999e-01,9.98492e-01,9.61062e-01,9.99997e-01
6.051222432e-01,9.61082e-01,9.99999e-01,9.99999e-01,9.99236e-01,9.61816e-01,9.99999e-01
6.081478544e-01,9.62239e-01,9.99999e-01,9.99999e-01,9.99670e-01,9.62556e-01,9.99999e-01
6.111885937e-01,9.63147e-01,9.99999e-01,9.99999e-01,9.99860e-01,9.63282e-01,9.99999e-01
6.142445367e-01,9.63934e-01,9.99999e-01,9.99999e-01,9.99937e-01,9.63994e-01,9.99999e-01
6.173157594e-01,9.64659e-01,9.99999e-01,9.99999e-01,9.99965e-01,9.64692e-01,9.99999e-01
6.204023382e-01,9.65350e-01,9.99999e-01,9.99999e-01,9.99970e-01,9.65377e-01,9.99999e-01
6.235043498e-01,9.65929e-01,9.99999e-01,9.99999e-01,9.99874e-01,9.66049e-01,9.99999e-01
6.266218716e-01,9.66053e-01,9.99999e-01,9.99999e-01,9.99326e-01,9.66709e-01,9.99994e-01
6.297549810e-01,9.67108e-01,9.99999e-01,9.99999e-01,9.99752e-01,9.67355e-01,9.99990e-01
6.329037559e-01,9.67509e-01,9.99999e-01,9.99999e-01,9.99509e-01,9.67990e-01,9.99991e-01
6.360682746e-01,9.68206e-01,9.99999e-01,9.99999e-01,9.99584e-01,9.68612e-01,9.99995e-01
6.392486160e-01,9.68698e-01,9.99999e-01,9.99999e-01,9.99460e-01,9.69222e-01,9.99997e-01
6.424448591e-01,9.69192e-01,9.99999e-01,9.99999e-01,9.99353e-01,9.69821e-01,9.99996e-01
6.456570834e-01,9.67197e-01,9.99999e-01,9.99999e-01,9.96708e-01,9.70408e-01,9.99980e-01
6.488853688e-01,9.68129e-01,9.99999e-01,9.99999e-01,9.97110e-01,9.70984e-01,9.99947e-01
6.521297956e-01,9.69073e-01,9.99999e-01,9.99999e-01,9.97494e-01,9.71549e-01,9.99955e-01
6.553904446e-01,9.69668e-01,9.99999e-01,9.99999e-01,9.97527e-01,9.72103e-01,9.99966e-01
6.586673968e-01,9.70556e-01,9.99999e-01,9.99999e-01,9.97860e-01,9.72646e-01,9.99988e-01
6.619607338e-01,9.71974e-01,9.99999e-01,9.99999e-01,9.98763e-01,9.73179e-01,9.99997e-01
6.652705375e-01,9.73002e-01,9.99999e-01,9.99999e-01,9.99281e-01,9.73702e-01,9.99998e-01
6.685968902e-01,9.73890e-01,9.99999e-01,9.99999e-01,9.99666e-01,9.74215e-01,9.99999e-01
6.719398746e-01,9.74567e-01,9.99999e-01,9.99999e-01,9.99844e-01,9.74718e-01,9.99999e-01
6.752995740e-01,9.75130e-01,9.99999e-01,9.99999e-01,9.99916e-01,9.75211e-01,9.99999e-01
6.786760719e-01,9.75578e-01,9.99999e-01,9.99999e-01,9.99880e-01,9.75694e-01,9.99999e-01
6.820694522e-01,9.75967e-01,9.99999e-01,9.99999e-01,9.99794e-01,9.76169e-01,9.99998e-01
6.854797995e-01,9.76374e-01,9.99999e-01,9.99999e-01,9.99735e-01,9.76634e-01,9.99997e-01
6.889071985e-01,9.76470e-01,9.99999e-01,9.99999e-01,9.99370e-01,9.77090e-01,9.99993e-01
6.923517345e-01,9.67348e-01,9.99999e-01,9.99999e-01,9.89625e-01,9.77537e-01,9.99949e-01
6.958134932e-01,9.72463e-01,9.99999e-01,9.99999e-01,9.94474e-01,9.77976e-01,9.99886e-01
6.992925606e-01,9.73283e-01,9.99999e-01,9.99999e-01,9.94862e-01,9.78406e-01,9.99899e-01
7.027890234e-01,9.72493e-01,9.99999e-01,9.99999e-01,9.93603e-01,9.78828e-01,9.99923e-01
7.063029686e-01,9.73943e-01,9.99999e-01,9.99999e-01,9.94626e-01,9.79242e-01,9.99961e-01
7.098344834e-01,9.74575e-01,9.99999e-01,9.99999e-01,9.94843e-01,9.79648e-01,9.99977e-01
7.133836558e-01,9.73369e-01,9.99999e-01,9.99999e-01,9.93230e-01,9.80046e-01,9.99954e-01
7.169505741e-01,9.27529e-01,9.99999e-01,9.99999e-01,9.46370e-01,9.80436e-01,9.99647e-01
7.205353270e-01,9.53602e-01,9.99999e-01,9.99999e-01,9.72853e-01,9.80819e-01,9.99378e-01
7.241380036e-01,9.47539e-01,9.99999e-01,9.99999e-01,9.66220e-01,9.81194e-01,9.99459e-01
7.277586936e-01,9.51136e-01,9.99999e-01,9.99999e-01,9.69437e-01,9.81562e-01,9.99550e-01
7.313974871e-01,9.49626e-01,9.99999e-01,9.99999e-01,9.67306e-01,9.81923e-01,9.99794e-01
7.350544745e-01,9.64580e-01,9.99999e-01,9.99999e-01,9.82053e-01,9.82277e-01,9.99928e-01
7.387297469e-01,9.69578e-01,9.99999e-01,9.99999e-01,9.86755e-01,9.82624e-01,9.99966e-01
7.424233956e-01,9.76552e-01,9.99999e-01,9.99999e-01,9.93482e-01,9.82964e-01,9.99993e-01
7.461355126e-01,9.79417e-01,9.99999e-01,9.99999e-01,9.96054e-01,9.83298e-01,9.99998e-01
7.498661902e-01,9.81811e-01,9.99999e-01,9.99999e-01,9.98155e-01,9.83625e-01,9.99999e-01
7.536155211e-01,9.83059e-01,9.99999e-01,9.99999e-01,9.99098e-01,9.83946e-01,9.99999e-01
7.573835987e-01,9.83803e-01,9.99999e-01,9.99999e-01,9.99535e-01,9.84260e-01,9.99999e-01
7.611705167e-01,9.84285e-01,9.99999e-01,9.99999e-01,9.99711e-01,9.84569e-01,9.99999e-01
7.649763693e-01,9.84694e-01,9.99999e-01,9.99999e-01,9.99819e-01,9.84871e-01,9.99999e-01
7.688012511e-01,9.85044e-01,9.99999e-01,9.99999e-01,9.99874e-01,9.85168e-01,9.99999e-01
7.726452574e-01,9.85357e-01,9.99999e-01,9.99999e-01,9.99896e-01,9.85459e-01,9.99999e-01
7.765084837e-01,9.85600e-01,9.99999e-01,9.99999e-01,9.99854e-01,9.85744e-01,9.99999e-01
7.803910261e-01,9.85404e-01,9.99999e-01,9.99999e-01,9.99372e-01,9.86023e-01,9.99998e-01
7.842929812e-01,9.84135e-01,9.99999e-01,9.99999e-01,9.97811e-01,9.86298e-01,9.99995e-01
7.882144461e-01,9.82051e-01,9.99999e-01,9.99999e-01,9.95450e-01,9.86566e-01,9.99971e-01
7.921555184e-01,9.84300e-01,9.99999e-01,9.99999e-01,9.97489e-01,9.86830e-01,9.99945e-01
7.961162960e-01,9.82714e-01,9.99999e-01,9.99999e-01,9.95619e-01,9.87088e-01,9.99947e-01
8.000968774e-01,9.82263e-01,9.99999e-01,9.99999e-01,9.94909e-01,9.87342e-01,9.99944e-01
8.040973618e-01,9.82527e-01,9.99999e-01,9.99999e-01,9.94916e-01,9.87590e-01,9.99955e-01
8.081178486e-01,9.76586e-01,9.99999e-01,9.99999e-01,9.88653e-01,9.87834e-01,9.99958e-01
8.121584379e-01,9.41865e-01,9.99999e-01,9.99999e-01,9.53386e-01,9.88073e-01,9.99838e-01
8.162192301e-01,9.32684e-01,9.99999e-01,9.99999e-01,9.44288e-01,9.88307e-01,9.99395e-01
8.203003262e-01,9.60566e-01,9.99999e-01,9.99999e-01,9.72392e-01,9.88537e-01,9.99292e-01
8.244018279e-01,9.49225e-01,9.99999e-01,9.99999e-01,9.60554e-01,9.88762e-01,9.99436e-01
8.285238370e-01,9.55551e-01,9.99999e-01,9.99999e-01,9.66623e-01,9.88982e-01,9.99557e-01
8.326664562e-01,9.55502e-01,9.99999e-01,9.99999e-01,9.66111e-01,9.89199e-01,9.99816e-01
8.368297885e-01,9.65269e-01,9.99999e-01,9.99999e-01,9.75639e-01,9.89411e-01,9.99957e-01
8.410139374e-01,9.75199e-01,9.99999e-01,9.99999e-01,9.85452e-01,9.89619e-01,9.99975e-01
8.452190071e-01,9.82717e-01,9.99999e-01,9.99999e-01,9.92834e-01,9.89823e-01,9.99984e-01
8.494451021e-01,9.85908e-01,9.99999e-01,9.99999e-01,9.95854e-01,9.90023e-01,9.99987e-01
8.536923276e-01,9.87774e-01,9.99999e-01,9.99999e-01,9.97537e-01,9.90219e-01,9.99991e-01
8.579607893e-01,9.88913e-01,9.99999e-01,9.99999e-01,9.98488e-01,9.90411e-01,9.99997e-01
8.622505932e-01,9.89646e-01,9.99999e-01,9.99999e-01,9.99036e-01,9.90600e-01,9.99999e-01
8.665618462e-01,9.90197e-01,9.99999e-01,9.99999e-01,9.99406e-01,9.90785e-01,9.99999e-01
8.708946554e-01,9.90294e-01,9.99999e-01,9.99999e-01,9.99322e-01,9.90966e-01,9.99999e-01
8.752491287e-01,9.90244e-01,9.99999e-01,9.99999e-01,9.99092e-01,9.91143e-01,9.99998e-01
8.796253743e-01,9.90074e-01,9.99999e-01,9.99999e-01,9.98747e-01,9.91318e-01,9.99996e-01
8.840235012e-01,9.90061e-01,9.99999e-01,9.99999e-01,9.98568e-01,9.91488e-01,9.99990e-01
8.884436187e-01,9.86564e-01,9.99999e-01,9.99999e-01,9.94889e-01,9.91656e-01,9.99974e-01
8.928858368e-01,9.38744e-01,9.99999e-01,9.99999e-01,9.46621e-01,9.91820e-01,9.99856e-01
8.973502660e-01,8.98621e-01,9.99999e-01,9.99999e-01,9.06551e-01,9.91981e-01,9.99264e-01
9.018370173e-01,9.42206e-01,9.99999e-01,9.99999e-01,9.50769e-01,9.92139e-01,9.98844e-01
9.063462024e-01,9.48947e-01,9.99999e-01,9.99999e-01,9.57288e-01,9.92293e-01,9.98984e-01
9.108779334e-01,9.25780e-01,9.99999e-01,9.99999e-01,9.33811e-01,9.92445e-01,9.98944e-01
9.154323231e-01,9.17340e-01,9.99999e-01,9.99999e-01,9.24991e-01,9.92594e-01,9.99127e-01
9.200094847e-01,9.33320e-01,9.99999e-01,9.99999e-01,9.40604e-01,9.92739e-01,9.99511e-01
9.246095321e-01,9.03763e-01,9.99999e-01,9.99999e-01,9.10753e-01,9.92882e-01,9.99437e-01
9.292325798e-01,5.27630e-01,9.99999e-01,9.99999e-01,5.32503e-01,9.93022e-01,9.97808e-01
9.338787427e-01,4.33159e-01,9.99999e-01,9.99999e-01,4.40114e-01,9.93160e-01,9.90972e-01
9.385481364e-01,7.05220e-01,9.99999e-01,9.99999e-01,7.17678e-01,9.93294e-01,9.89273e-01
9.432408771e-01,6.24888e-01,9.99999e-01,9.99999e-01,6.34902e-01,9.93426e-01,9.90738e-01
9.479570815e-01,5.28334e-01,9.99999e-01,9.99999e-01,5.35802e-01,9.93556e-01,9.92455e-01
9.526968669e-01,6.15442e-01,9.99999e-01,9.99999e-01,6.22221e-01,9.93682e-01,9.95391e-01
9.574603512e-01,6.39424e-01,9.99999e-01,9.99999e-01,6.44919e-01,9.93807e-01,9.97656e-01
9.622476530e-01,6.93165e-01,9.99999e-01,9.99999e-01,6.98531e-01,9.93929e-01,9.98378e-01
9.670588912e-01,8.07594e-01,9.99999e-01,9.99999e-01,8.13330e-01,9.94048e-01,9.98890e-01
9.718941857e-01,8.72937e-01,9.99999e-01,9.99999e-01,8.78777e-01,9.94166e-01,9.99183e-01
9.767536566e-01,8.92619e-01,9.99999e-01,9.99999e-01,8.98313e-01,9.94280e-01,9.99375e-01
9.816374249e-01,9.18017e-01,9.99999e-01,9.99999e-01,9.23392e-01,9.94393e-01,9.99783e-01
9.865456120e-01,9.46134e-01,9.99999e-01,9.99999e-01,9.51405e-01,9.94504e-01,9.99954e-01
9.914783401e-01,9.64465e-01,9.99999e-01,9.99999e-01,9.69701e-01,9.94612e-01,9.99987e-01
9.964357318e-01,9.78180e-01,9.99999e-01,9.99999e-01,9.83381e-01,9.94718e-01,9.99992e-01
1.001417910e+00,9.84869e-01,9.99999e-01,9.99999e-01,9.90005e-01,9.94822e-01,9.99988e-01
1.006425000e+00,9.89242e-01,9.99999e-01,9.99999e-01,9.94304e-01,9.94924e-01,9.99983e-01
1.011457125e+00,9.91478e-01,9.99999e-01,9.99999e-01,9.96450e-01,9.95024e-01,9.99984e-01
1.016514411e+00,9.92718e-01,9.99999e-01,9.99999e-01,9.97593e-01,9.95122e-01,9.99989e-01
1.021596983e+00,9.93301e-01,9.99999e-01,9.99999e-01,9.98083e-01,9.95218e-01,9.99989e-01
1.026704968e+00,9.93819e-01,9.99999e-01,9.99999e-01,9.98506e-01,9.95312e-01,9.99992e-01
1.031838492e+00,9.94320e-01,9.99999e-01,9.99999e-01,9.98911e-01,9.95405e-01,9.99997e-01
1.036997685e+00,9.94853e-01,9.99999e-01,9.99999e-01,9.99354e-01,9.95495e-01,9.99999e-01
1.042182673e+00,9.94821e-01,9.99999e-01,9.99999e-01,9.99233e-01,9.95584e-01,9.99999e-01
1.047393587e+00,9.94658e-01,9.99999e-01,9.99999e-01,9.98982e-01,9.95671e-01,9.99999e-01
1.052630555e+00,9.94368e-01,9.99999e-01,9.99999e-01,9.98605e-01,9.95756e-01,9.99999e-01
1.057893707e+00,9.93526e-01,9.99999e-01,9.99999e-01,9.97676e-01,9.95840e-01,9.99998e-01
1.063183176e+00,9.92110e-01,9.99999e-01,9.99999e-01,9.96174e-01,9.95922e-01,9.99997e-01
1.068499092e+00,9.89615e-01,9.99999e-01,9.99999e-01,9.93590e-01,9.96002e-01,9.99995e-01
1.073841587e+00,9.88619e-01,9.99999e-01,9.99999e-01,9.92517e-01,9.96081e-01,9.99990e-01
1.079210795e+00,9.86556e-01,9.99999e-01,9.99999e-01,9.90385e-01,9.96158e-01,9.99973e-01
1.084606849e+00,9.81734e-01,9.99999e-01,9.99999e-01,9.85505e-01,9.96234e-01,9.99937e-01
1.090029883e+00,9.75633e-01,9.99999e-01,9.99999e-01,9.79373e-01,9.96308e-01,9.99871e-01
1.095480033e+00,9.41031e-01,9.99999e-01,9.99999e-01,9.44667e-01,9.96381e-01,9.99767e-01
1.100957433e+00,8.62007e-01,9.99999e-01,9.99999e-01,8.65444e-01,9.96452e-01,9.99573e-01
1.106462220e+00,6.91245e-01,9.99999e-01,9.99999e-01,6.94159e-01,9.96522e-01,9.99276e-01
1.111994531e+00,4.61281e-01,9.99999e-01,9.99999e-01,4.63749e-01,9.96591e-01,9.98081e-01
1.117554504e+00,2.86863e-01,9.99999e-01,9.99999e-01,2.89827e-01,9.96658e-01,9.93090e-01
1.123142276e+00,3.97646e-01,9.99999e-01,9.99999e-01,4.05566e-01,9.96724e-01,9.83693e-01
1.128757988e+00,5.46182e-01,9.99999e-01,9.99999e-01,5.58462e-01,9.96789e-01,9.81160e-01
1.134401778e+00,2.94648e-01,9.99999e-01,9.99999e-01,3.00512e-01,9.96852e-01,9.83581e-01
1.140073787e+00,6.93288e-01,9.99999e-01,9.99999e-01,7.04720e-01,9.96914e-01,9.86821e-01
1.145774156e+00,4.76820e-01,9.99999e-01,9.99999e-01,4.83957e-01,9.96975e-01,9.88241e-01
1.151503026e+00,4.43044e-01,9.99999e-01,9.99999e-01,4.47298e-01,9.97034e-01,9.93432e-01
1.157260541e+00,5.04034e-01,9.99999e-01,9.99999e-01,5.06500e-01,9.97093e-01,9.98031e-01
1.163046844e+00,6.01456e-01,9.99999e-01,9.99999e-01,6.03511e-01,9.97150e-01,9.99441e-01
1.168862078e+00,7.00874e-01,9.99999e-01,9.99999e-01,7.03039e-01,9.97206e-01,9.99711e-01
1.174706389e+00,8.02097e-01,9.99999e-01,9.99999e-01,8.04606e-01,9.97261e-01,9.99618e-01
1.180579921e+00,8.72999e-01,9.99999e-01,9.99999e-01,8.75853e-01,9.97315e-01,9.99423e-01
1.186482820e+00,9.24886e-01,9.99999e-01,9.99999e-01,9.27875e-01,9.97368e-01,9.99407e-01
1.192415234e+00,9.54403e-01,9.99999e-01,9.99999e-01,9.57294e-01,9.97420e-01,9.99556e-01
1.198377311e+00,9.61120e-01,9.99999e-01,9.99999e-01,9.63959e-01,9.97471e-01,9.99581e-01
1.204369197e+00,9.63074e-01,9.99999e-01,9.99999e-01,9.65833e-01,9.97521e-01,9.99620e-01
1.210391043e+00,9.64718e-01,9.99999e-01,9.99999e-01,9.67290e-01,9.97570e-01,9.99769e-01
1.216442998e+00,9.69589e-01,9.99999e-01,9.99999e-01,9.72040e-01,9.97618e-01,9.99858e-01
1.222525213e+00,9.75818e-01,9.99999e-01,9.99999e-01,9.78187e-01,9.97665e-01,9.99911e-01
1.228637839e+00,9.82523e-01,9.99999e-01,9.99999e-01,9.84816e-01,9.97711e-01,9.99958e-01
