#,Wave/freq,Total,N2,O2,H2O,Rayleigh,CIA
4.000000000e-01,4.10095e-01,9.99999e-01,9.99999e-01,9.99899e-01,4.10137e-01,9.99999e-01
4.020000000e-01,4.17402e-01,9.99999e-01,9.99999e-01,9.99937e-01,4.17428e-01,9.99999e-01
4.040100000e-01,4.24683e-01,9.99999e-01,9.99999e-01,9.99973e-01,4.24694e-01,9.99999e-01
4.060300500e-01,4.31937e-01,9.99999e-01,9.99999e-01,9.99993e-01,4.31939e-01,9.99999e-01
4.080602003e-01,4.39160e-01,9.99999e-01,9.99999e-01,9.99997e-01,4.39161e-01,9.99999e-01
4.101005013e-01,4.46358e-01,9.99999e-01,9.99999e-01,9.99999e-01,4.46358e-01,9.99999e-01
4.121510038e-01,4.53525e-01,9.99999e-01,9.99999e-01,9.99995e-01,4.53527e-01,9.99999e-01
4.142117588e-01,4.60653e-01,9.99999e-01,9.99999e-01,9.99971e-01,4.60666e-01,9.99999e-01
4.162828176e-01,4.67714e-01,9.99999e-01,9.99999e-01,9.99875e-01,4.67772e-01,9.99999e-01
4.183642317e-01,4.74810e-01,9.99999e-01,9.99999e-01,9.99925e-01,4.74845e-01,9.99999e-01
4.204560528e-01,4.81861e-01,9.99999e-01,9.99999e-01,9.99954e-01,4.81883e-01,9.99999e-01
4.225583331e-01,4.88874e-01,9.99999e-01,9.99999e-01,9.99982e-01,4.88882e-01,9.99999e-01
4.246711247e-01,4.95835e-01,9.99999e-01,9.99999e-01,9.99986e-01,4.95841e-01,9.99999e-01
4.267944804e-01,5.02750e-01,9.99999e-01,9.99999e-01,9.99979e-01,5.02760e-01,9.99999e-01
4.289284528e-01,5.09627e-01,9.99999e-01,9.99999e-01,9.99984e-01,5.09635e-01,9.99999e-01
4.310730950e-01,5.16463e-01,9.99999e-01,9.99999e-01,9.99992e-01,5.16466e-01,9.99999e-01
4.332284605e-01,5.23250e-01,9.99999e-01,9.99999e-01,9.99997e-01,5.23251e-01,9.99999e-01
4.353946028e-01,5.29988e-01,9.99999e-01,9.99999e-01,9.99998e-01,5.29988e-01,9.99999e-01
4.375715758e-01,5.36670e-01,9.99999e-01,9.99999e-01,9.99987e-01,5.36676e-01,9.99999e-01
4.397594337e-01,5.43255e-01,9.99999e-01,9.99999e-01,9.99890e-01,5.43315e-01,9.99999e-01
4.419582309e-01,5.49595e-01,9.99999e-01,9.99999e-01,9.99442e-01,5.49901e-01,9.99999e-01
4.441680220e-01,5.56195e-01,9.99999e-01,9.99999e-01,9.99566e-01,5.56435e-01,9.99999e-01
4.463888621e-01,5.62662e-01,9.99999e-01,9.99999e-01,9.99548e-01,5.62916e-01,9.99999e-01
4.486208064e-01,5.69182e-01,9.99999e-01,9.99999e-01,9.99719e-01,5.69341e-01,9.99999e-01
4.508639105e-01,5.75636e-01,9.99999e-01,9.99999e-01,9.99868e-01,5.75711e-01,9.99999e-01
4.531182300e-01,5.81994e-01,9.99999e-01,9.99999e-01,9.99947e-01,5.82025e-01,9.99999e-01
4.553838212e-01,5.88260e-01,9.99999e-01,9.99999e-01,9.99964e-01,5.88280e-01,9.99999e-01
4.576607403e-01,5.94468e-01,9.99999e-01,9.99999e-01,9.99983e-01,5.94478e-01,9.99999e-01
4.599490440e-01,6.00609e-01,9.99999e-01,9.99999e-01,9.99988e-01,6.00616e-01,9.99999e-01
4.622487892e-01,6.06693e-01,9.99999e-01,9.99999e-01,9.99997e-01,6.06695e-01,9.99999e-01
4.645600332e-01,6.12708e-01,9.99999e-01,9.99999e-01,9.99991e-01,6.12713e-01,9.99999e-01
4.668828333e-01,6.18588e-01,9.99999e-01,9.99999e-01,9.99866e-01,6.18670e-01,9.99999e-01
4.692172475e-01,6.24390e-01,9.99999e-01,9.99999e-01,9.99716e-01,6.24566e-01,9.99999e-01
4.715633337e-01,6.30284e-01,9.99999e-01,9.99999e-01,9.99814e-01,6.30400e-01,9.99999e-01
4.739211504e-01,6.36059e-01,9.99999e-01,9.99999e-01,9.99822e-01,6.36172e-01,9.99999e-01
4.762907561e-01,6.41822e-01,9.99999e-01,9.99999e-01,9.99907e-01,6.41881e-01,9.99999e-01
4.786722099e-01,6.47502e-01,9.99999e-01,9.99999e-01,9.99962e-01,6.47526e-01,9.99999e-01
4.810655710e-01,6.53102e-01,9.99999e-01,9.99999e-01,9.99988e-01,6.53109e-01,9.99999e-01
4.834708988e-01,6.58556e-01,9.99999e-01,9.99999e-01,9.99890e-01,6.58628e-01,9.99999e-01
4.858882533e-01,6.63950e-01,9.99999e-01,9.99999e-01,9.99799e-01,6.64083e-01,9.99999e-01
4.883176946e-01,6.69362e-01,9.99999e-01,9.99999e-01,9.99831e-01,6.69474e-01,9.99999e-01
4.907592831e-01,6.74699e-01,9.99999e-01,9.99999e-01,9.99848e-01,6.74802e-01,9.99999e-01
4.932130795e-01,6.79992e-01,9.99999e-01,9.99999e-01,9.99892e-01,6.80065e-01,9.99999e-01
4.956791449e-01,6.85225e-01,9.99999e-01,9.99999e-01,9.99942e-01,6.85264e-01,9.99999e-01
4.981575406e-01,6.90202e-01,9.99999e-01,9.99999e-01,9.99714e-01,6.90399e-01,9.99999e-01
5.006483283e-01,6.94952e-01,9.99999e-01,9.99999e-01,9.99260e-01,6.95470e-01,9.99994e-01
5.031515699e-01,6.97835e-01,9.99999e-01,9.99999e-01,9.96267e-01,7.00476e-01,9.99960e-01
5.056673278e-01,7.03998e-01,9.99999e-01,9.99999e-01,9.98029e-01,7.05419e-01,9.99954e-01
5.081956644e-01,7.08513e-01,9.99999e-01,9.99999e-01,9.97514e-01,7.10299e-01,9.99970e-01
5.107366428e-01,7.13910e-01,9.99999e-01,9.99999e-01,9.98321e-01,7.15114e-01,9.99994e-01
5.132903260e-01,7.19176e-01,9.99999e-01,9.99999e-01,9.99040e-01,7.19866e-01,9.99998e-01
5.158567776e-01,7.24262e-01,9.99999e-01,9.99999e-01,9.99594e-01,7.24555e-01,9.99999e-01
5.184360615e-01,7.29063e-01,9.99999e-01,9.99999e-01,9.99837e-01,7.29181e-01,9.99999e-01
5.210282418e-01,7.33700e-01,9.99999e-01,9.99999e-01,9.99938e-01,7.33744e-01,9.99999e-01
5.236333830e-01,7.38064e-01,9.99999e-01,9.99999e-01,9.99756e-01,7.38245e-01,9.99997e-01
5.262515499e-01,7.42569e-01,9.99999e-01,9.99999e-01,9.99847e-01,7.42684e-01,9.99997e-01
5.288828077e-01,7.46955e-01,9.99999e-01,9.99999e-01,9.99859e-01,7.47061e-01,9.99997e-01
5.315272217e-01,7.51284e-01,9.99999e-01,9.99999e-01,9.99876e-01,7.51376e-01,9.99999e-01
5.341848578e-01,7.55570e-01,9.99999e-01,9.99999e-01,9.99919e-01,7.55630e-01,9.99999e-01
5.368557821e-01,7.59608e-01,9.99999e-01,9.99999e-01,9.99715e-01,7.59824e-01,9.99998e-01
5.395400610e-01,7.63168e-01,9.99999e-01,9.99999e-01,9.98973e-01,7.63958e-01,9.99991e-01
5.422377613e-01,7.66998e-01,9.99999e-01,9.99999e-01,9.98678e-01,7.68031e-01,9.99975e-01
5.449489501e-01,7.71076e-01,9.99999e-01,9.99999e-01,9.98768e-01,7.72046e-01,9.99974e-01
5.476736949e-01,7.75147e-01,9.99999e-01,9.99999e-01,9.98911e-01,7.76001e-01,9.99987e-01
5.504120634e-01,7.79279e-01,9.99999e-01,9.99999e-01,9.99209e-01,7.79898e-01,9.99996e-01
5.531641237e-01,7.83425e-01,9.99999e-01,9.99999e-01,9.99602e-01,7.83737e-01,9.99999e-01
5.559299443e-01,7.87367e-01,9.99999e-01,9.99999e-01,9.99807e-01,7.87518e-01,9.99999e-01
5.587095940e-01,7.91148e-01,9.99999e-01,9.99999e-01,9.99879e-01,7.91243e-01,9.99999e-01
5.615031420e-01,7.94804e-01,9.99999e-01,9.99999e-01,9.99865e-01,7.94911e-01,9.99999e-01
5.643106577e-01,7.98400e-01,9.99999e-01,9.99999e-01,9.99847e-01,7.98523e-01,9.99998e-01
5.671322110e-01,8.00579e-01,9.99999e-01,9.99999e-01,9.98145e-01,8.02080e-01,9.99983e-01
5.699678720e-01,8.03962e-01,9.99999e-01,9.99999e-01,9.98039e-01,8.05581e-01,9.99949e-01
5.728177114e-01,8.07340e-01,9.99999e-01,9.99999e-01,9.97953e-01,8.09029e-01,9.99957e-01
5.756818000e-01,8.10877e-01,9.99999e-01,9.99999e-01,9.98122e-01,8.12422e-01,9.99973e-01
5.785602090e-01,8.14422e-01,9.99999e-01,9.99999e-01,9.98364e-01,8.15763e-01,9.99991e-01
5.814530100e-01,8.17702e-01,9.99999e-01,9.99999e-01,9.98356e-01,8.19051e-01,9.99996e-01
5.843602750e-01,8.20664e-01,9.99999e-01,9.99999e-01,9.98037e-01,8.22286e-01,9.99988e-01
5.872820764e-01,8.11543e-01,9.99999e-01,9.99999e-01,9.83244e-01,8.25470e-01,9.99880e-01
5.902184868e-01,8.11545e-01,9.99999e-01,9.99999e-01,9.79728e-01,8.28604e-01,9.99676e-01
5.931695792e-01,8.19498e-01,9.99999e-01,9.99999e-01,9.85650e-01,8.31687e-01,9.99688e-01
5.961354271e-01,8.21445e-01,9.99999e-01,9.99999e-01,9.84271e-01,8.34720e-01,9.99820e-01
5.991161043e-01,8.28027e-01,9.99999e-01,9.99999e-01,9.88502e-01,8.37704e-01,9.99944e-01
6.021116848e-01,8.35139e-01,9.99999e-01,9.99999e-01,9.93462e-01,8.40639e-01,9.99993e-01
6.051222432e-01,8.40732e-01,9.99999e-01,9.99999e-01,9.96687e-01,8.43527e-01,9.99999e-01
6.081478544e-01,8.45156e-01,9.99999e-01,9.99999e-01,9.98569e-01,8.46367e-01,9.99999e-01
6.111885937e-01,8.48646e-01,9.99999e-01,9.99999e-01,9.99394e-01,8.49160e-01,9.99999e-01
6.142445367e-01,8.51676e-01,9.99999e-01,9.99999e-01,9.99729e-01,8.51907e-01,9.99999e-01
6.173157594e-01,8.54481e-01,9.99999e-01,9.99999e-01,9.99850e-01,8.54608e-01,9.99999e-01
6.204023382e-01,8.57156e-01,9.99999e-01,9.99999e-01,9.99873e-01,8.57264e-01,9.99999e-01
6.235043498e-01,8.59395e-01,9.99999e-01,9.99999e-01,9.99441e-01,8.59876e-01,9.99998e-01
6.266218716e-01,8.59889e-01,9.99999e-01,9.99999e-01,9.97057e-01,8.62444e-01,9.99978e-01
6.297549810e-01,8.63999e-01,9.99999e-01,9.99999e-01,9.98920e-01,8.64969e-01,9.99958e-01
6.329037559e-01,8.65573e-01,9.99999e-01,9.99999e-01,9.97867e-01,8.67451e-01,9.99966e-01
6.360682746e-01,8.68293e-01,9.99999e-01,9.99999e-01,9.98182e-01,8.69890e-01,9.99979e-01
6.392486160e-01,8.70228e-01,9.99999e-01,9.99999e-01,9.97645e-01,8.72289e-01,9.99990e-01
6.424448591e-01,8.71875e-01,9.99999e-01,9.99999e-01,9.96844e-01,8.74646e-01,9.99985e-01
6.456570834e-01,8.64127e-01,9.99999e-01,9.99999e-01,9.85442e-01,8.76963e-01,9.99918e-01
6.488853688e-01,8.69683e-01,9.99999e-01,9.99999e-01,9.89353e-01,8.79240e-01,9.99772e-01
6.521297956e-01,8.71756e-01,9.99999e-01,9.99999e-01,9.89154e-01,8.81478e-01,9.99812e-01
6.553904446e-01,8.73991e-01,9.99999e-01,9.99999e-01,9.89175e-01,8.83677e-01,9.99860e-01
6.586673968e-01,8.77592e-01,9.99999e-01,9.99999e-01,9.90736e-01,8.85839e-01,9.99952e-01
6.619607338e-01,8.83359e-01,9.99999e-01,9.99999e-01,9.94825e-01,8.87962e-01,9.99989e-01
6.652705375e-01,8.87278e-01,9.99999e-01,9.99999e-01,9.96891e-01,8.90049e-01,9.99994e-01
6.685968902e-01,8.90810e-01,9.99999e-01,9.99999e-01,9.98555e-01,8.92099e-01,9.99998e-01
6.719398746e-01,8.93515e-01,9.99999e-01,9.99999e-01,9.99330e-01,8.94113e-01,9.99999e-01
6.752995740e-01,8.95767e-01,9.99999e-01,9.99999e-01,9.99636e-01,8.96092e-01,9.99999e-01
6.786760719e-01,8.97564e-01,9.99999e-01,9.99999e-01,9.99474e-01,8.98036e-01,9.99998e-01
6.820694522e-01,8.99133e-01,9.99999e-01,9.99999e-01,9.99101e-01,8.99946e-01,9.99994e-01
6.854797995e-01,9.00768e-01,9.99999e-01,9.99999e-01,9.98841e-01,9.01821e-01,9.99989e-01
6.889071985e-01,9.01102e-01,9.99999e-01,9.99999e-01,9.97189e-01,9.03664e-01,9.99974e-01
6.923517345e-01,8.64767e-01,9.99999e-01,9.99999e-01,9.55252e-01,9.05474e-01,9.99780e-01
6.958134932e-01,8.85605e-01,9.99999e-01,9.99999e-01,9.76613e-01,9.07252e-01,9.99513e-01
6.992925606e-01,8.88253e-01,9.99999e-01,9.99999e-01,9.77605e-01,9.08998e-01,9.99561e-01
7.027890234e-01,8.85339e-01,9.99999e-01,9.99999e-01,9.72462e-01,9.10712e-01,9.99665e-01
7.063029686e-01,8.91055e-01,9.99999e-01,9.99999e-01,9.76771e-01,9.12396e-01,9.99833e-01
7.098344834e-01,8.93575e-01,9.99999e-01,9.99999e-01,9.77695e-01,9.14050e-01,9.99901e-01
7.133836558e-01,8.88390e-01,9.99999e-01,9.99999e-01,9.70392e-01,9.15674e-01,9.99804e-01
7.169505741e-01,7.22936e-01,9.99999e-01,9.99999e-01,7.89353e-01,9.17269e-01,9.98462e-01
7.205353270e-01,8.15864e-01,9.99999e-01,9.99999e-01,8.90346e-01,9.18835e-01,9.97288e-01
7.241380036e-01,7.91522e-01,9.99999e-01,9.99999e-01,8.62020e-01,9.20372e-01,9.97658e-01
7.277586936e-01,8.04823e-01,9.99999e-01,9.99999e-01,8.74695e-01,9.21882e-01,9.98085e-01
7.313974871e-01,7.99643e-01,9.99999e-01,9.99999e-01,8.66787e-01,9.23364e-01,9.99102e-01
7.350544745e-01,8.54843e-01,9.99999e-01,9.99999e-01,9.24623e-01,9.24820e-01,9.99687e-01
7.387297469e-01,8.74087e-01,9.99999e-01,9.99999e-01,9.43819e-01,9.26249e-01,9.99856e-01
7.424233956e-01,9.01732e-01,9.99999e-01,9.99999e-01,9.72085e-01,9.27651e-01,9.99971e-01
7.461355126e-01,9.13211e-01,9.99999e-01,9.99999e-01,9.82978e-01,9.29028e-01,9.99994e-01
7.498661902e-01,9.22977e-01,9.99999e-01,9.99999e-01,9.92043e-01,9.30380e-01,9.99997e-01
7.536155211e-01,9.28061e-01,9.99999e-01,9.99999e-01,9.96086e-01,9.31707e-01,9.99998e-01
7.573835987e-01,9.31129e-01,9.99999e-01,9.99999e-01,9.97984e-01,9.33010e-01,9.99999e-01
7.611705167e-01,9.33118e-01,9.99999e-01,9.99999e-01,9.98747e-01,9.34289e-01,9.99999e-01
7.649763693e-01,9.34809e-01,9.99999e-01,9.99999e-01,9.99214e-01,9.35544e-01,9.99999e-01
7.688012511e-01,9.36263e-01,9.99999e-01,9.99999e-01,9.99452e-01,9.36776e-01,9.99999e-01
7.726452574e-01,9.37563e-01,9.99999e-01,9.99999e-01,9.99549e-01,9.37985e-01,9.99999e-01
7.765084837e-01,9.38570e-01,9.99999e-01,9.99999e-01,9.99358e-01,9.39172e-01,9.99998e-01
7.803910261e-01,9.37731e-01,9.99999e-01,9.99999e-01,9.97231e-01,9.40337e-01,9.99996e-01
7.842929812e-01,9.32397e-01,9.99999e-01,9.99999e-01,9.90369e-01,9.41480e-01,9.99981e-01
7.882144461e-01,9.23897e-01,9.99999e-01,9.99999e-01,9.80288e-01,9.42602e-01,9.99863e-01
7.921555184e-01,9.33254e-01,9.99999e-01,9.99999e-01,9.89161e-01,9.43703e-01,9.99762e-01
7.961162960e-01,9.26512e-01,9.99999e-01,9.99999e-01,9.80880e-01,9.44784e-01,9.99774e-01
8.000968774e-01,9.24761e-01,9.99999e-01,9.99999e-01,9.77943e-01,9.45845e-01,9.99759e-01
8.040973618e-01,9.25822e-01,9.99999e-01,9.99999e-01,9.77940e-01,9.46885e-01,9.99809e-01
8.081178486e-01,9.01359e-01,9.99999e-01,9.99999e-01,9.51063e-01,9.47907e-01,9.99820e-01
8.121584379e-01,7.71047e-01,9.99999e-01,9.99999e-01,8.13132e-01,9.48909e-01,9.99297e-01
8.162192301e-01,7.42159e-01,9.99999e-01,9.99999e-01,7.83374e-01,9.49892e-01,9.97361e-01
8.203003262e-01,8.41755e-01,9.99999e-01,9.99999e-01,8.88001e-01,9.50857e-01,9.96911e-01
8.244018279e-01,8.06806e-01,9.99999e-01,9.99999e-01,8.49747e-01,9.51804e-01,9.97541e-01
8.285238370e-01,8.20838e-01,9.99999e-01,9.99999e-01,8.63228e-01,9.52733e-01,9.98068e-01
8.326664562e-01,8.21672e-01,9.99999e-01,9.99999e-01,8.62300e-01,9.53645e-01,9.99200e-01
8.368297885e-01,8.57825e-01,9.99999e-01,9.99999e-01,8.98843e-01,9.54539e-01,9.99816e-01
8.410139374e-01,8.96549e-01,9.99999e-01,9.99999e-01,9.38485e-01,9.55417e-01,9.99892e-01
8.452190071e-01,9.26872e-01,9.99999e-01,9.99999e-01,9.69310e-01,9.56278e-01,9.99935e-01
8.494451021e-01,9.39898e-01,9.99999e-01,9.99999e-01,9.82053e-01,9.57123e-01,9.99948e-01
8.536923276e-01,9.47728e-01,9.99999e-01,9.99999e-01,9.89358e-01,9.57952e-01,9.99968e-01
8.579607893e-01,9.52458e-01,9.99999e-01,9.99999e-01,9.93429e-01,9.58765e-01,9.99992e-01
8.622505932e-01,9.55554e-01,9.99999e-01,9.99999e-01,9.95822e-01,9.59563e-01,9.99998e-01
8.665618462e-01,9.57860e-01,9.99999e-01,9.99999e-01,9.97412e-01,9.60345e-01,9.99998e-01
8.708946554e-01,9.58264e-01,9.99999e-01,9.99999e-01,9.97036e-01,9.61113e-01,9.99997e-01
8.752491287e-01,9.58052e-01,9.99999e-01,9.99999e-01,9.96037e-01,9.61867e-01,9.99995e-01
8.796253743e-01,9.57313e-01,9.99999e-01,9.99999e-01,9.94513e-01,9.62605e-01,9.99987e-01
8.840235012e-01,9.57261e-01,9.99999e-01,9.99999e-01,9.93736e-01,9.63330e-01,9.99961e-01
8.884436187e-01,9.42154e-01,9.99999e-01,9.99999e-01,9.77401e-01,9.64041e-01,9.99890e-01
8.928858368e-01,7.61224e-01,9.99999e-01,9.99999e-01,7.89540e-01,9.64739e-01,9.99372e-01
8.973502660e-01,6.36052e-01,9.99999e-01,9.99999e-01,6.60952e-01,9.65423e-01,9.96791e-01
9.018370173e-01,7.78419e-01,9.99999e-01,9.99999e-01,8.09818e-01,9.66095e-01,9.94960e-01
9.063462024e-01,7.97948e-01,9.99999e-01,9.99999e-01,8.29060e-01,9.66753e-01,9.95571e-01
9.108779334e-01,7.19418e-01,9.99999e-01,9.99999e-01,7.47098e-01,9.67399e-01,9.95398e-01
9.154323231e-01,6.91207e-01,9.99999e-01,9.99999e-01,7.16759e-01,9.68032e-01,9.96195e-01
9.200094847e-01,7.45830e-01,9.99999e-01,9.99999e-01,7.71609e-01,9.68654e-01,9.97868e-01
9.246095321e-01,6.56534e-01,9.99999e-01,9.99999e-01,6.79020e-01,9.69263e-01,9.97544e-01
9.292325798e-01,9.65058e-02,9.99999e-01,9.99999e-01,1.00463e-01,9.69861e-01,9.90458e-01
9.338787427e-01,4.47813e-02,9.99999e-01,9.99999e-01,4.80104e-02,9.70448e-01,9.61143e-01
9.385481364e-01,2.68032e-01,9.99999e-01,9.99999e-01,2.89353e-01,9.71023e-01,9.53957e-01
9.432408771e-01,1.80726e-01,9.99999e-01,9.99999e-01,1.93730e-01,9.71587e-01,9.60150e-01
9.479570815e-01,9.30635e-02,9.99999e-01,9.99999e-01,9.89517e-02,9.72140e-01,9.67445e-01
9.526968669e-01,1.56858e-01,9.99999e-01,9.99999e-01,1.64552e-01,9.72683e-01,9.80015e-01
9.574603512e-01,1.70928e-01,9.99999e-01,9.99999e-01,1.77442e-01,9.73215e-01,9.89798e-01
9.622476530e-01,2.28807e-01,9.99999e-01,9.99999e-01,2.36650e-01,9.73737e-01,9.92934e-01
9.670588912e-01,4.16872e-01,9.99999e-01,9.99999e-01,4.29970e-01,9.74249e-01,9.95162e-01
9.718941857e-01,5.59734e-01,9.99999e-01,9.99999e-01,5.76285e-01,9.74751e-01,9.96436e-01
9.767536566e-01,6.14750e-01,9.99999e-01,9.99999e-01,6.32077e-01,9.75244e-01,9.97275e-01
9.816374249e-01,6.91941e-01,9.99999e-01,9.99999e-01,7.09823e-01,9.75727e-01,9.99056e-01
9.865456120e-01,7.86984e-01,9.99999e-01,9.99999e-01,8.06328e-01,9.76201e-01,9.99802e-01
9.914783401e-01,8.54480e-01,9.99999e-01,9.99999e-01,8.74943e-01,9.76665e-01,9.99945e-01
9.964357318e-01,9.08502e-01,9.99999e-01,9.99999e-01,9.29803e-01,9.77121e-01,9.99967e-01
1.001417910e+00,9.35759e-01,9.99999e-01,9.99999e-01,9.57278e-01,9.77567e-01,9.99950e-01
1.006425000e+00,9.53876e-01,9.99999e-01,9.99999e-01,9.75395e-01,9.78006e-01,9.99930e-01
1.011457125e+00,9.63373e-01,9.99999e-01,9.99999e-01,9.84668e-01,9.78435e-01,9.99935e-01
1.016514411e+00,9.68596e-01,9.99999e-01,9.99999e-01,9.89561e-01,9.78857e-01,9.99954e-01
1.021596983e+00,9.71072e-01,9.99999e-01,9.99999e-01,9.91672e-01,9.79270e-01,9.99953e-01
1.026704968e+00,9.73277e-01,9.99999e-01,9.99999e-01,9.93499e-01,9.79675e-01,9.99969e-01
1.031838492e+00,9.75433e-01,9.99999e-01,9.99999e-01,9.95273e-01,9.80073e-01,9.99991e-01
1.036997685e+00,9.77706e-01,9.99999e-01,9.99999e-01,9.97188e-01,9.80462e-01,9.99998e-01
1.042182673e+00,9.77555e-01,9.99999e-01,9.99999e-01,9.96646e-01,9.80845e-01,9.99998e-01
1.047393587e+00,9.76859e-01,9.99999e-01,9.99999e-01,9.95556e-01,9.81219e-01,9.99998e-01
1.052630555e+00,9.75604e-01,9.99999e-01,9.99999e-01,9.93905e-01,9.81587e-01,9.99997e-01
1.057893707e+00,9.71972e-01,9.99999e-01,9.99999e-01,9.89844e-01,9.81947e-01,9.99996e-01
1.063183176e+00,9.65940e-01,9.99999e-01,9.99999e-01,9.83352e-01,9.82301e-01,9.99990e-01
1.068499092e+00,9.55408e-01,9.99999e-01,9.99999e-01,9.72297e-01,9.82647e-01,9.99980e-01
1.073841587e+00,9.51198e-01,9.99999e-01,9.99999e-01,9.67700e-01,9.82987e-01,9.99958e-01
1.079210795e+00,9.42683e-01,9.99999e-01,9.99999e-01,9.58780e-01,9.83320e-01,9.99887e-01
1.084606849e+00,9.22744e-01,9.99999e-01,9.99999e-01,9.38337e-01,9.83647e-01,9.99729e-01
1.090029883e+00,8.97675e-01,9.99999e-01,9.99999e-01,9.12811e-01,9.83967e-01,9.99439e-01
1.095480033e+00,7.67297e-01,9.99999e-01,9.99999e-01,7.80339e-01,9.84281e-01,9.98987e-01
1.100957433e+00,5.29249e-01,9.99999e-01,9.99999e-01,5.38534e-01,9.84590e-01,9.98137e-01
1.106462220e+00,2.22641e-01,9.99999e-01,9.99999e-01,2.26772e-01,9.84892e-01,9.96843e-01
1.111994531e+00,4.78520e-02,9.99999e-01,9.99999e-01,4.89807e-02,9.85188e-01,9.91642e-01
1.117554504e+00,9.24399e-03,9.99999e-01,9.99999e-01,9.66878e-03,9.85478e-01,9.70153e-01
1.123142276e+00,4.05944e-02,9.99999e-01,9.99999e-01,4.42487e-02,9.85763e-01,9.30663e-01
1.128757988e+00,9.58613e-02,9.99999e-01,9.99999e-01,1.05645e-01,9.86042e-01,9.20234e-01
1.134401778e+00,4.45722e-02,9.99999e-01,9.99999e-01,4.85004e-02,9.86316e-01,9.31756e-01
1.140073787e+00,2.24346e-01,9.99999e-01,9.99999e-01,2.40608e-01,9.86584e-01,9.45089e-01
1.145774156e+00,6.39560e-02,9.99999e-01,9.99999e-01,6.82466e-02,9.86848e-01,9.49618e-01
1.151503026e+00,4.83552e-02,9.99999e-01,9.99999e-01,5.04181e-02,9.87106e-01,9.71612e-01
1.157260541e+00,6.31449e-02,9.99999e-01,9.99999e-01,6.45063e-02,9.87359e-01,9.91426e-01
1.163046844e+00,1.27120e-01,9.99999e-01,9.99999e-01,1.29030e-01,9.87607e-01,9.97562e-01
1.168862078e+00,2.24026e-01,9.99999e-01,9.99999e-01,2.27066e-01,9.87850e-01,9.98743e-01
1.174706389e+00,3.92762e-01,9.99999e-01,9.99999e-01,3.98159e-01,9.88089e-01,9.98334e-01
1.180579921e+00,5.59688e-01,9.99999e-01,9.99999e-01,5.67729e-01,9.88323e-01,9.97482e-01
1.186482820e+00,7.13234e-01,9.99999e-01,9.99999e-01,7.23362e-01,9.88552e-01,9.97416e-01
1.192415234e+00,8.16157e-01,9.99999e-01,9.99999e-01,8.27021e-01,9.88777e-01,9.98064e-01
1.198377311e+00,8.41229e-01,9.99999e-01,9.99999e-01,8.52145e-01,9.88997e-01,9.98171e-01
1.204369197e+00,8.49510e-01,9.99999e-01,9.99999e-01,8.60195e-01,9.89213e-01,9.98345e-01
1.210391043e+00,8.55464e-01,9.99999e-01,9.99999e-01,8.65477e-01,9.89425e-01,9.98993e-01
1.216442998e+00,8.74696e-01,9.99999e-01,9.99999e-01,8.84403e-01,9.89633e-01,9.99383e-01
1.222525213e+00,8.98951e-01,9.99999e-01,9.99999e-01,9.08528e-01,9.89837e-01,9.99616e-01
1.228637839e+00,9.26019e-01,9.99999e-01,9.99999e-01,9.35504e-01,9.90036e-01,9.99821e-01
