#,Wave/freq,Total,N2,O2,H2O,Rayleigh,CIA
4.000000000e-01,8.05310e-01,9.99999e-01,9.99999e-01,9.99975e-01,8.05329e-01,9.99999e-01
4.020000000e-01,8.08772e-01,9.99999e-01,9.99999e-01,9.99984e-01,8.08784e-01,9.99999e-01
4.040100000e-01,8.12177e-01,9.99999e-01,9.99999e-01,9.99993e-01,8.12182e-01,9.99999e-01
4.060300500e-01,8.15525e-01,9.99999e-01,9.99999e-01,9.99997e-01,8.15526e-01,9.99999e-01
4.080602003e-01,8.18817e-01,9.99999e-01,9.99999e-01,9.99999e-01,8.18818e-01,9.99999e-01
4.101005013e-01,8.22057e-01,9.99999e-01,9.99999e-01,9.99999e-01,8.22057e-01,9.99999e-01
4.121510038e-01,8.25244e-01,9.99999e-01,9.99999e-01,9.99998e-01,8.25245e-01,9.99999e-01
4.142117588e-01,8.28376e-01,9.99999e-01,9.99999e-01,9.99992e-01,8.28382e-01,9.99999e-01
4.162828176e-01,8.31443e-01,9.99999e-01,9.99999e-01,9.99969e-01,8.31468e-01,9.99999e-01
4.183642317e-01,8.34490e-01,9.99999e-01,9.99999e-01,9.99981e-01,8.34505e-01,9.99999e-01
4.204560528e-01,8.37483e-01,9.99999e-01,9.99999e-01,9.99988e-01,8.37492e-01,9.99999e-01
4.225583331e-01,8.40428e-01,9.99999e-01,9.99999e-01,9.99995e-01,8.40431e-01,9.99999e-01
4.246711247e-01,8.43319e-01,9.99999e-01,9.99999e-01,9.99996e-01,8.43322e-01,9.99999e-01
4.267944804e-01,8.46161e-01,9.99999e-01,9.99999e-01,9.99994e-01,8.46165e-01,9.99999e-01
4.289284528e-01,8.48959e-01,9.99999e-01,9.99999e-01,9.99995e-01,8.48962e-01,9.99999e-01
4.310730950e-01,8.51711e-01,9.99999e-01,9.99999e-01,9.99997e-01,8.51712e-01,9.99999e-01
4.332284605e-01,8.54416e-01,9.99999e-01,9.99999e-01,9.99999e-01,8.54417e-01,9.99999e-01
4.353946028e-01,8.57076e-01,9.99999e-01,9.99999e-01,9.99999e-01,8.57076e-01,9.99999e-01
4.375715758e-01,8.59688e-01,9.99999e-01,9.99999e-01,9.99996e-01,8.59691e-01,9.99999e-01
4.397594337e-01,8.62239e-01,9.99999e-01,9.99999e-01,9.99973e-01,8.62262e-01,9.99999e-01
4.419582309e-01,8.64675e-01,9.99999e-01,9.99999e-01,9.99867e-01,8.64790e-01,9.99999e-01
4.441680220e-01,8.67183e-01,9.99999e-01,9.99999e-01,9.99893e-01,8.67275e-01,9.99999e-01
4.463888621e-01,8.69622e-01,9.99999e-01,9.99999e-01,9.99889e-01,8.69718e-01,9.99999e-01
4.486208064e-01,8.72059e-01,9.99999e-01,9.99999e-01,9.99930e-01,8.72119e-01,9.99999e-01
4.508639105e-01,8.74451e-01,9.99999e-01,9.99999e-01,9.99967e-01,8.74479e-01,9.99999e-01
4.531182300e-01,8.76788e-01,9.99999e-01,9.99999e-01,9.99986e-01,8.76799e-01,9.99999e-01
4.553838212e-01,8.79071e-01,9.99999e-01,9.99999e-01,9.99990e-01,8.79079e-01,9.99999e-01
4.576607403e-01,8.81316e-01,9.99999e-01,9.99999e-01,9.99995e-01,8.81320e-01,9.99999e-01
4.599490440e-01,8.83519e-01,9.99999e-01,9.99999e-01,9.99996e-01,8.83522e-01,9.99999e-01
4.622487892e-01,8.85685e-01,9.99999e-01,9.99999e-01,9.99999e-01,8.85685e-01,9.99999e-01
4.645600332e-01,8.87810e-01,9.99999e-01,9.99999e-01,9.99997e-01,8.87812e-01,9.99999e-01
4.668828333e-01,8.89873e-01,9.99999e-01,9.99999e-01,9.99967e-01,8.89901e-01,9.99999e-01
4.692172475e-01,8.91892e-01,9.99999e-01,9.99999e-01,9.99930e-01,8.91954e-01,9.99999e-01
4.715633337e-01,8.93930e-01,9.99999e-01,9.99999e-01,9.99954e-01,8.93970e-01,9.99999e-01
4.739211504e-01,8.95913e-01,9.99999e-01,9.99999e-01,9.99956e-01,8.95952e-01,9.99999e-01
4.762907561e-01,8.97878e-01,9.99999e-01,9.99999e-01,9.99977e-01,8.97898e-01,9.99999e-01
4.786722099e-01,8.99802e-01,9.99999e-01,9.99999e-01,9.99990e-01,8.99810e-01,9.99999e-01
4.810655710e-01,9.01686e-01,9.99999e-01,9.99999e-01,9.99996e-01,9.01689e-01,9.99999e-01
4.834708988e-01,9.03511e-01,9.99999e-01,9.99999e-01,9.99973e-01,9.03534e-01,9.99999e-01
4.858882533e-01,9.05302e-01,9.99999e-01,9.99999e-01,9.99950e-01,9.05346e-01,9.99999e-01
4.883176946e-01,9.07089e-01,9.99999e-01,9.99999e-01,9.99958e-01,9.07126e-01,9.99999e-01
4.907592831e-01,9.08841e-01,9.99999e-01,9.99999e-01,9.99962e-01,9.08874e-01,9.99999e-01
4.932130795e-01,9.10567e-01,9.99999e-01,9.99999e-01,9.99973e-01,9.10591e-01,9.99999e-01
4.956791449e-01,9.12265e-01,9.99999e-01,9.99999e-01,9.99985e-01,9.12277e-01,9.99999e-01
4.981575406e-01,9.13870e-01,9.99999e-01,9.99999e-01,9.99930e-01,9.13933e-01,9.99999e-01
5.006483283e-01,9.15396e-01,9.99999e-01,9.99999e-01,9.99822e-01,9.15559e-01,9.99998e-01
5.031515699e-01,9.16317e-01,9.99999e-01,9.99999e-01,9.99093e-01,9.17156e-01,9.99989e-01
5.056673278e-01,9.18273e-01,9.99999e-01,9.99999e-01,9.99519e-01,9.18724e-01,9.99988e-01
5.081956644e-01,9.19700e-01,9.99999e-01,9.99999e-01,9.99393e-01,9.20264e-01,9.99992e-01
5.107366428e-01,9.21397e-01,9.99999e-01,9.99999e-01,9.99590e-01,9.21775e-01,9.99998e-01
5.132903260e-01,9.23043e-01,9.99999e-01,9.99999e-01,9.99765e-01,9.23259e-01,9.99999e-01
5.158567776e-01,9.24625e-01,9.99999e-01,9.99999e-01,9.99900e-01,9.24717e-01,9.99999e-01
5.184360615e-01,9.26111e-01,9.99999e-01,9.99999e-01,9.99959e-01,9.26147e-01,9.99999e-01
5.210282418e-01,9.27538e-01,9.99999e-01,9.99999e-01,9.99984e-01,9.27552e-01,9.99999e-01
5.236333830e-01,9.28876e-01,9.99999e-01,9.99999e-01,9.99940e-01,9.28931e-01,9.99999e-01
5.262515499e-01,9.30250e-01,9.99999e-01,9.99999e-01,9.99962e-01,9.30284e-01,9.99998e-01
5.288828077e-01,9.31582e-01,9.99999e-01,9.99999e-01,9.99965e-01,9.31613e-01,9.99999e-01
5.315272217e-01,9.32890e-01,9.99999e-01,9.99999e-01,9.99969e-01,9.32918e-01,9.99999e-01
5.341848578e-01,9.34180e-01,9.99999e-01,9.99999e-01,9.99980e-01,9.34198e-01,9.99999e-01
5.368557821e-01,9.35391e-01,9.99999e-01,9.99999e-01,9.99931e-01,9.35455e-01,9.99999e-01
5.395400610e-01,9.36457e-01,9.99999e-01,9.99999e-01,9.99754e-01,9.36689e-01,9.99997e-01
5.422377613e-01,9.37592e-01,9.99999e-01,9.99999e-01,9.99677e-01,9.37900e-01,9.99993e-01
5.449489501e-01,9.38803e-01,9.99999e-01,9.99999e-01,9.99702e-01,9.39088e-01,9.99993e-01
5.476736949e-01,9.40002e-01,9.99999e-01,9.99999e-01,9.99733e-01,9.40254e-01,9.99996e-01
5.504120634e-01,9.41217e-01,9.99999e-01,9.99999e-01,9.99806e-01,9.41399e-01,9.99998e-01
5.531641237e-01,9.42431e-01,9.99999e-01,9.99999e-01,9.99902e-01,9.42523e-01,9.99999e-01
5.559299443e-01,9.43581e-01,9.99999e-01,9.99999e-01,9.99952e-01,9.43626e-01,9.99999e-01
5.587095940e-01,9.44680e-01,9.99999e-01,9.99999e-01,9.99970e-01,9.44708e-01,9.99999e-01
5.615031420e-01,9.45739e-01,9.99999e-01,9.99999e-01,9.99966e-01,9.45770e-01,9.99999e-01
5.643106577e-01,9.46777e-01,9.99999e-01,9.99999e-01,9.99963e-01,9.46812e-01,9.99999e-01
5.671322110e-01,9.47415e-01,9.99999e-01,9.99999e-01,9.99561e-01,9.47834e-01,9.99995e-01
5.699678720e-01,9.48369e-01,9.99999e-01,9.99999e-01,9.99517e-01,9.48838e-01,9.99987e-01
5.728177114e-01,9.49342e-01,9.99999e-01,9.99999e-01,9.99503e-01,9.49823e-01,9.99989e-01
5.756818000e-01,9.50349e-01,9.99999e-01,9.99999e-01,9.99543e-01,9.50789e-01,9.99993e-01
5.785602090e-01,9.51356e-01,9.99999e-01,9.99999e-01,9.99600e-01,9.51737e-01,9.99997e-01
5.814530100e-01,9.52286e-01,9.99999e-01,9.99999e-01,9.99600e-01,9.52668e-01,9.99998e-01
5.843602750e-01,9.53129e-01,9.99999e-01,9.99999e-01,9.99528e-01,9.53580e-01,9.99996e-01
5.872820764e-01,9.50566e-01,9.99999e-01,9.99999e-01,9.95931e-01,9.54476e-01,9.99970e-01
5.902184868e-01,9.50522e-01,9.99999e-01,9.99999e-01,9.95018e-01,9.55355e-01,9.99920e-01
5.931695792e-01,9.52790e-01,9.99999e-01,9.99999e-01,9.96492e-01,9.56217e-01,9.99923e-01
5.961354271e-01,9.53330e-01,9.99999e-01,9.99999e-01,9.96144e-01,9.57063e-01,9.99953e-01
5.991161043e-01,9.55183e-01,9.99999e-01,9.99999e-01,9.97183e-01,9.57893e-01,9.99986e-01
6.021116848e-01,9.57171e-01,9.99999e-01,9.99999e-01,9.98398e-01,9.58707e-01,9.99997e-01
6.051222432e-01,9.58729e-01,9.99999e-01,9.99999e-01,9.99189e-01,9.59506e-01,9.99999e-01
6.081478544e-01,9.59955e-01,9.99999e-01,9.99999e-01,9.99650e-01,9.60290e-01,9.99999e-01
6.111885937e-01,9.60917e-01,9.99999e-01,9.99999e-01,9.99851e-01,9.61059e-01,9.99999e-01
6.142445367e-01,9.61750e-01,9.99999e-01,9.99999e-01,9.99933e-01,9.61813e-01,9.99999e-01
6.173157594e-01,9.62518e-01,9.99999e-01,9.99999e-01,9.99963e-01,9.62553e-01,9.99999e-01
6.204023382e-01,9.63250e-01,9.99999e-01,9.99999e-01,9.99968e-01,9.63279e-01,9.99999e-01
6.235043498e-01,9.63863e-01,9.99999e-01,9.99999e-01,9.99867e-01,9.63991e-01,9.99999e-01
6.266218716e-01,9.63995e-01,9.99999e-01,9.99999e-01,9.99284e-01,9.64690e-01,9.99994e-01
6.297549810e-01,9.65112e-01,9.99999e-01,9.99999e-01,9.99737e-01,9.65375e-01,9.99989e-01
6.329037559e-01,9.65537e-01,9.99999e-01,9.99999e-01,9.99479e-01,9.66047e-01,9.99991e-01
6.360682746e-01,9.66276e-01,9.99999e-01,9.99999e-01,9.99559e-01,9.66706e-01,9.99994e-01
6.392486160e-01,9.66798e-01,9.99999e-01,9.99999e-01,9.99427e-01,9.67353e-01,9.99997e-01
6.424448591e-01,9.67321e-01,9.99999e-01,9.99999e-01,9.99314e-01,9.67988e-01,9.99996e-01
6.456570834e-01,9.65210e-01,9.99999e-01,9.99999e-01,9.96508e-01,9.68610e-01,9.99979e-01
6.488853688e-01,9.66193e-01,9.99999e-01,9.99999e-01,9.96930e-01,9.69220e-01,9.99944e-01
6.521297956e-01,9.67195e-01,9.99999e-01,9.99999e-01,9.97339e-01,9.69819e-01,9.99953e-01
6.553904446e-01,9.67826e-01,9.99999e-01,9.99999e-01,9.97375e-01,9.70406e-01,9.99964e-01
6.586673968e-01,9.68766e-01,9.99999e-01,9.99999e-01,9.97728e-01,9.70982e-01,9.99988e-01
6.619607338e-01,9.70270e-01,9.99999e-01,9.99999e-01,9.98687e-01,9.71547e-01,9.99997e-01
6.652705375e-01,9.71359e-01,9.99999e-01,9.99999e-01,9.99237e-01,9.72101e-01,9.99998e-01
6.685968902e-01,9.72300e-01,9.99999e-01,9.99999e-01,9.99645e-01,9.72645e-01,9.99999e-01
6.719398746e-01,9.73018e-01,9.99999e-01,9.99999e-01,9.99835e-01,9.73178e-01,9.99999e-01
6.752995740e-01,9.73614e-01,9.99999e-01,9.99999e-01,9.99911e-01,9.73700e-01,9.99999e-01
6.786760719e-01,9.74089e-01,9.99999e-01,9.99999e-01,9.99872e-01,9.74213e-01,9.99999e-01
6.820694522e-01,9.74503e-01,9.99999e-01,9.99999e-01,9.99781e-01,9.74716e-01,9.99998e-01
6.854797995e-01,9.74933e-01,9.99999e-01,9.99999e-01,9.99719e-01,9.75209e-01,9.99997e-01
6.889071985e-01,9.75036e-01,9.99999e-01,9.99999e-01,9.99332e-01,9.75693e-01,9.99993e-01
6.923517345e-01,9.65372e-01,9.99999e-01,9.99999e-01,9.88993e-01,9.76167e-01,9.99946e-01
6.958134932e-01,9.70784e-01,9.99999e-01,9.99999e-01,9.94130e-01,9.76632e-01,9.99879e-01
6.992925606e-01,9.71659e-01,9.99999e-01,9.99999e-01,9.94548e-01,9.77088e-01,9.99893e-01
7.027890234e-01,9.70820e-01,9.99999e-01,9.99999e-01,9.93209e-01,9.77536e-01,9.99918e-01
7.063029686e-01,9.72357e-01,9.99999e-01,9.99999e-01,9.94295e-01,9.77975e-01,9.99959e-01
7.098344834e-01,9.73026e-01,9.99999e-01,9.99999e-01,9.94525e-01,9.78405e-01,9.99975e-01
7.133836558e-01,9.71754e-01,9.99999e-01,9.99999e-01,9.92820e-01,9.78827e-01,9.99952e-01
7.169505741e-01,9.23279e-01,9.99999e-01,9.99999e-01,9.43203e-01,9.79241e-01,9.99625e-01
7.205353270e-01,9.50796e-01,9.99999e-01,9.99999e-01,9.71189e-01,9.79647e-01,9.99340e-01
7.241380036e-01,9.44407e-01,9.99999e-01,9.99999e-01,9.64189e-01,9.80045e-01,9.99425e-01
7.277586936e-01,9.48211e-01,9.99999e-01,9.99999e-01,9.67593e-01,9.80435e-01,9.99522e-01
7.313974871e-01,9.46597e-01,9.99999e-01,9.99999e-01,9.65320e-01,9.80818e-01,9.99781e-01
7.350544745e-01,9.62433e-01,9.99999e-01,9.99999e-01,9.80954e-01,9.81193e-01,9.99923e-01
7.387297469e-01,9.67728e-01,9.99999e-01,9.99999e-01,9.85940e-01,9.81561e-01,9.99964e-01
7.424233956e-01,9.75120e-01,9.99999e-01,9.99999e-01,9.93079e-01,9.81922e-01,9.99992e-01
7.461355126e-01,9.78159e-01,9.99999e-01,9.99999e-01,9.95809e-01,9.82276e-01,9.99998e-01
7.498661902e-01,9.80698e-01,9.99999e-01,9.99999e-01,9.98041e-01,9.82623e-01,9.99999e-01
7.536155211e-01,9.82022e-01,9.99999e-01,9.99999e-01,9.99042e-01,9.82963e-01,9.99999e-01
7.573835987e-01,9.82812e-01,9.99999e-01,9.99999e-01,9.99506e-01,9.83297e-01,9.99999e-01
7.611705167e-01,9.83323e-01,9.99999e-01,9.99999e-01,9.99693e-01,9.83624e-01,9.99999e-01
7.649763693e-01,9.83756e-01,9.99999e-01,9.99999e-01,9.99807e-01,9.83945e-01,9.99999e-01
7.688012511e-01,9.84128e-01,9.99999e-01,9.99999e-01,9.99866e-01,9.84259e-01,9.99999e-01
7.726452574e-01,9.84460e-01,9.99999e-01,9.99999e-01,9.99890e-01,9.84568e-01,9.99999e-01
7.765084837e-01,9.84718e-01,9.99999e-01,9.99999e-01,9.99845e-01,9.84870e-01,9.99999e-01
7.803910261e-01,9.84511e-01,9.99999e-01,9.99999e-01,9.99333e-01,9.85167e-01,9.99998e-01
7.842929812e-01,9.83165e-01,9.99999e-01,9.99999e-01,9.97677e-01,9.85458e-01,9.99995e-01
7.882144461e-01,9.80954e-01,9.99999e-01,9.99999e-01,9.95170e-01,9.85743e-01,9.99969e-01
7.921555184e-01,9.83338e-01,9.99999e-01,9.99999e-01,9.97333e-01,9.86022e-01,9.99942e-01
7.961162960e-01,9.81659e-01,9.99999e-01,9.99999e-01,9.95351e-01,9.86297e-01,9.99944e-01
8.000968774e-01,9.81178e-01,9.99999e-01,9.99999e-01,9.94596e-01,9.86565e-01,9.99941e-01
8.040973618e-01,9.81459e-01,9.99999e-01,9.99999e-01,9.94604e-01,9.86829e-01,9.99953e-01
8.081178486e-01,9.75166e-01,9.99999e-01,9.99999e-01,9.87964e-01,9.87088e-01,9.99956e-01
8.121584379e-01,9.38421e-01,9.99999e-01,9.99999e-01,9.50614e-01,9.87341e-01,9.99828e-01
8.162192301e-01,9.28686e-01,9.99999e-01,9.99999e-01,9.40959e-01,9.87589e-01,9.99358e-01
8.203003262e-01,9.58234e-01,9.99999e-01,9.99999e-01,9.70764e-01,9.87833e-01,9.99248e-01
8.244018279e-01,9.46199e-01,9.99999e-01,9.99999e-01,9.58194e-01,9.88072e-01,9.99401e-01
8.285238370e-01,9.52886e-01,9.99999e-01,9.99999e-01,9.64612e-01,9.88306e-01,9.99530e-01
8.326664562e-01,9.52826e-01,9.99999e-01,9.99999e-01,9.64062e-01,9.88536e-01,9.99805e-01
8.368297885e-01,9.63162e-01,9.99999e-01,9.99999e-01,9.74152e-01,9.88761e-01,9.99955e-01
8.410139374e-01,9.73686e-01,9.99999e-01,9.99999e-01,9.84558e-01,9.88982e-01,9.99973e-01
8.452190071e-01,9.81657e-01,9.99999e-01,9.99999e-01,9.92391e-01,9.89198e-01,9.99984e-01
8.494451021e-01,9.85044e-01,9.99999e-01,9.99999e-01,9.95599e-01,9.89410e-01,9.99987e-01
8.536923276e-01,9.87023e-01,9.99999e-01,9.99999e-01,9.97384e-01,9.89618e-01,9.99991e-01
8.579607893e-01,9.88232e-01,9.99999e-01,9.99999e-01,9.98394e-01,9.89822e-01,9.99997e-01
8.622505932e-01,9.89010e-01,9.99999e-01,9.99999e-01,9.98977e-01,9.90022e-01,9.99999e-01
8.665618462e-01,9.89595e-01,9.99999e-01,9.99999e-01,9.99369e-01,9.90218e-01,9.99999e-01
8.708946554e-01,9.89698e-01,9.99999e-01,9.99999e-01,9.99280e-01,9.90411e-01,9.99999e-01
8.752491287e-01,9.89644e-01,9.99999e-01,9.99999e-01,9.99036e-01,9.90599e-01,9.99998e-01
8.796253743e-01,9.89465e-01,9.99999e-01,9.99999e-01,9.98671e-01,9.90784e-01,9.99996e-01
8.840235012e-01,9.89451e-01,9.99999e-01,9.99999e-01,9.98480e-01,9.90965e-01,9.99990e-01
8.884436187e-01,9.85749e-01,9.99999e-01,9.99999e-01,9.94584e-01,9.91143e-01,9.99973e-01
8.928858368e-01,9.35141e-01,9.99999e-01,9.99999e-01,9.43475e-01,9.91317e-01,9.99847e-01
8.973502660e-01,8.92761e-01,9.99999e-01,9.99999e-01,9.01128e-01,9.91488e-01,9.99219e-01
9.018370173e-01,9.38755e-01,9.99999e-01,9.99999e-01,9.47817e-01,9.91655e-01,9.98772e-01
9.063462024e-01,9.45924e-01,9.99999e-01,9.99999e-01,9.54754e-01,9.91819e-01,9.98921e-01
9.108779334e-01,9.21428e-01,9.99999e-01,9.99999e-01,9.29917e-01,9.91980e-01,9.98879e-01
9.154323231e-01,9.12500e-01,9.99999e-01,9.99999e-01,9.20582e-01,9.92138e-01,9.99073e-01
9.200094847e-01,9.29375e-01,9.99999e-01,9.99999e-01,9.37078e-01,9.92293e-01,9.99481e-01
9.246095321e-01,8.98387e-01,9.99999e-01,9.99999e-01,9.05767e-01,9.92444e-01,9.99402e-01
9.292325798e-01,5.08527e-01,9.99999e-01,9.99999e-01,5.13516e-01,9.92593e-01,9.97673e-01
9.338787427e-01,4.12658e-01,9.99999e-01,9.99999e-01,4.19697e-01,9.92739e-01,9.90418e-01
9.385481364e-01,6.90942e-01,9.99999e-01,9.99999e-01,7.03909e-01,9.92882e-01,9.88614e-01
9.432408771e-01,6.08598e-01,9.99999e-01,9.99999e-01,6.18958e-01,9.93022e-01,9.90169e-01
9.479570815e-01,5.09959e-01,9.99999e-01,9.99999e-01,5.17615e-01,9.93159e-01,9.91992e-01
9.526968669e-01,5.98543e-01,9.99999e-01,9.99999e-01,6.05546e-01,9.93294e-01,9.95107e-01
9.574603512e-01,6.22648e-01,9.99999e-01,9.99999e-01,6.28331e-01,9.93426e-01,9.97511e-01
9.622476530e-01,6.78013e-01,9.99999e-01,9.99999e-01,6.83586e-01,9.93555e-01,9.98278e-01
9.670588912e-01,7.97205e-01,9.99999e-01,9.99999e-01,8.03219e-01,9.93682e-01,9.98822e-01
9.718941857e-01,8.65692e-01,9.99999e-01,9.99999e-01,8.71842e-01,9.93806e-01,9.99132e-01
9.767536566e-01,8.86417e-01,9.99999e-01,9.99999e-01,8.92422e-01,9.93928e-01,9.99337e-01
9.816374249e-01,9.13186e-01,9.99999e-01,9.99999e-01,9.18863e-01,9.94048e-01,9.99770e-01
9.865456120e-01,9.42902e-01,9.99999e-01,9.99999e-01,9.48480e-01,9.94165e-01,9.99951e-01
9.914783401e-01,9.62309e-01,9.99999e-01,9.99999e-01,9.67857e-01,9.94280e-01,9.99986e-01
9.964357318e-01,9.76847e-01,9.99999e-01,9.99999e-01,9.82362e-01,9.94393e-01,9.99991e-01
1.001417910e+00,9.83940e-01,9.99999e-01,9.99999e-01,9.89389e-01,9.94503e-01,9.99987e-01
1.006425000e+00,9.88581e-01,9.99999e-01,9.99999e-01,9.93953e-01,9.94611e-01,9.99982e-01
1.011457125e+00,9.90954e-01,9.99999e-01,9.99999e-01,9.96231e-01,9.94718e-01,9.99983e-01
1.016514411e+00,9.92269e-01,9.99999e-01,9.99999e-01,9.97445e-01,9.94822e-01,9.99988e-01
1.021596983e+00,9.92889e-01,9.99999e-01,9.99999e-01,9.97965e-01,9.94924e-01,9.99988e-01
1.026704968e+00,9.93439e-01,9.99999e-01,9.99999e-01,9.98414e-01,9.95024e-01,9.99992e-01
1.031838492e+00,9.93970e-01,9.99999e-01,9.99999e-01,9.98844e-01,9.95122e-01,9.99997e-01
1.036997685e+00,9.94536e-01,9.99999e-01,9.99999e-01,9.99315e-01,9.95218e-01,9.99999e-01
1.042182673e+00,9.94503e-01,9.99999e-01,9.99999e-01,9.99186e-01,9.95312e-01,9.99999e-01
1.047393587e+00,9.94329e-01,9.99999e-01,9.99999e-01,9.98919e-01,9.95404e-01,9.99999e-01
1.052630555e+00,9.94021e-01,9.99999e-01,9.99999e-01,9.98519e-01,9.95495e-01,9.99999e-01
1.057893707e+00,9.93128e-01,9.99999e-01,9.99999e-01,9.97534e-01,9.95584e-01,9.99998e-01
1.063183176e+00,9.91626e-01,9.99999e-01,9.99999e-01,9.95939e-01,9.95671e-01,9.99997e-01
1.068499092e+00,9.88978e-01,9.99999e-01,9.99999e-01,9.93197e-01,9.95756e-01,9.99994e-01
1.073841587e+00,9.87923e-01,9.99999e-01,9.99999e-01,9.92059e-01,9.95840e-01,9.99989e-01
1.079210795e+00,9.85732e-01,9.99999e-01,9.99999e-01,9.89794e-01,9.95922e-01,9.99972e-01
1.084606849e+00,9.80620e-01,9.99999e-01,9.99999e-01,9.84620e-01,9.96002e-01,9.99933e-01
1.090029883e+00,9.74162e-01,9.99999e-01,9.99999e-01,9.78127e-01,9.96081e-01,9.99863e-01
1.095480033e+00,9.37537e-01,9.99999e-01,9.99999e-01,9.41383e-01,9.96158e-01,9.99753e-01
1.100957433e+00,8.54253e-01,9.99999e-01,9.99999e-01,8.57870e-01,9.96234e-01,9.99546e-01
1.106462220e+00,6.76200e-01,9.99999e-01,9.99999e-01,6.79226e-01,9.96308e-01,9.99231e-01
1.111994531e+00,4.40751e-01,9.99999e-01,9.99999e-01,4.43255e-01,9.96381e-01,9.97962e-01
1.117554504e+00,2.66905e-01,9.99999e-01,9.99999e-01,2.69834e-01,9.96452e-01,9.92665e-01
1.123142276e+00,3.77917e-01,9.99999e-01,9.99999e-01,3.85914e-01,9.96522e-01,9.82695e-01
1.128757988e+00,5.27392e-01,9.99999e-01,9.99999e-01,5.39991e-01,9.96591e-01,9.80008e-01
1.134401778e+00,2.79333e-01,9.99999e-01,9.99999e-01,2.85239e-01,9.96658e-01,9.82576e-01
1.140073787e+00,6.78315e-01,9.99999e-01,9.99999e-01,6.90196e-01,9.96724e-01,9.86014e-01
1.145774156e+00,4.56917e-01,9.99999e-01,9.99999e-01,4.64181e-01,9.96788e-01,9.87520e-01
1.151503026e+00,4.23060e-01,9.99999e-01,9.99999e-01,4.27375e-01,9.96852e-01,9.93028e-01
1.157260541e+00,4.83877e-01,9.99999e-01,9.99999e-01,4.86391e-01,9.96914e-01,9.97910e-01
1.163046844e+00,5.83335e-01,9.99999e-01,9.99999e-01,5.85452e-01,9.96975e-01,9.99406e-01
1.168862078e+00,6.85773e-01,9.99999e-01,9.99999e-01,6.88022e-01,9.97034e-01,9.99694e-01
1.174706389e+00,7.91324e-01,9.99999e-01,9.99999e-01,7.93952e-01,9.97093e-01,9.99594e-01
1.180579921e+00,8.65730e-01,9.99999e-01,9.99999e-01,8.68736e-01,9.97150e-01,9.99387e-01
1.186482820e+00,9.20440e-01,9.99999e-01,9.99999e-01,9.23598e-01,9.97206e-01,9.99371e-01
1.192415234e+00,9.51656e-01,9.99999e-01,9.99999e-01,9.54718e-01,9.97261e-01,9.99529e-01
1.198377311e+00,9.58774e-01,9.99999e-01,9.99999e-01,9.61782e-01,9.97315e-01,9.99555e-01
1.204369197e+00,9.60845e-01,9.99999e-01,9.99999e-01,9.63767e-01,9.97368e-01,9.99597e-01
1.210391043e+00,9.62584e-01,9.99999e-01,9.99999e-01,9.65309e-01,9.97420e-01,9.99754e-01
1.216442998e+00,9.67740e-01,9.99999e-01,9.99999e-01,9.70338e-01,9.97471e-01,9.99849e-01
1.222525213e+00,9.74343e-01,9.99999e-01,9.99999e-01,9.76854e-01,9.97521e-01,9.99906e-01
1.228637839e+00,9.81454e-01,9.99999e-01,9.99999e-01,9.83886e-01,9.97570e-01,9.99956e-01
