#,Wave/freq,Total,N2,O2,H2O,Rayleigh,CIA
4.000000000e-01,1.58548e-02,9.99999e-01,9.99999e-01,9.99532e-01,1.58622e-02,9.99999e-01
4.020000000e-01,1.72116e-02,9.99999e-01,9.99999e-01,9.99709e-01,1.72166e-02,9.99999e-01
4.040100000e-01,1.86525e-02,9.99999e-01,9.99999e-01,9.99876e-01,1.86548e-02,9.99999e-01
4.060300500e-01,2.01807e-02,9.99999e-01,9.99999e-01,9.99971e-01,2.01812e-02,9.99999e-01
4.080602003e-01,2.17984e-02,9.99999e-01,9.99999e-01,9.99990e-01,2.17986e-02,9.99999e-01
4.101005013e-01,2.35098e-02,9.99999e-01,9.99999e-01,9.99998e-01,2.35098e-02,9.99999e-01
4.121510038e-01,2.53171e-02,9.99999e-01,9.99999e-01,9.99982e-01,2.53175e-02,9.99999e-01
4.142117588e-01,2.72209e-02,9.99999e-01,9.99999e-01,9.99871e-01,2.72243e-02,9.99999e-01
4.162828176e-01,2.92159e-02,9.99999e-01,9.99999e-01,9.99420e-01,2.92328e-02,9.99999e-01
4.183642317e-01,3.13346e-02,9.99999e-01,9.99999e-01,9.99655e-01,3.13454e-02,9.99999e-01
4.204560528e-01,3.35573e-02,9.99999e-01,9.99999e-01,9.99788e-01,3.35643e-02,9.99999e-01
4.225583331e-01,3.58890e-02,9.99999e-01,9.99999e-01,9.99920e-01,3.58918e-02,9.99999e-01
4.246711247e-01,3.83275e-02,9.99999e-01,9.99999e-01,9.99936e-01,3.83299e-02,9.99999e-01
4.267944804e-01,4.08768e-02,9.99999e-01,9.99999e-01,9.99906e-01,4.08805e-02,9.99999e-01
4.289284528e-01,4.35423e-02,9.99999e-01,9.99999e-01,9.99927e-01,4.35454e-02,9.99999e-01
4.310730950e-01,4.63248e-02,9.99999e-01,9.99999e-01,9.99969e-01,4.63262e-02,9.99999e-01
4.332284605e-01,4.92240e-02,9.99999e-01,9.99999e-01,9.99991e-01,4.92244e-02,9.99999e-01
4.353946028e-01,5.22410e-02,9.99999e-01,9.99999e-01,9.99996e-01,5.22411e-02,9.99999e-01
4.375715758e-01,5.53746e-02,9.99999e-01,9.99999e-01,9.99942e-01,5.53777e-02,9.99999e-01
4.397594337e-01,5.86053e-02,9.99999e-01,9.99999e-01,9.99492e-01,5.86351e-02,9.99999e-01
4.419582309e-01,6.18544e-02,9.99999e-01,9.99999e-01,9.97426e-01,6.20139e-02,9.99999e-01
4.441680220e-01,6.53830e-02,9.99999e-01,9.99999e-01,9.97985e-01,6.55150e-02,9.99999e-01
4.463888621e-01,6.89938e-02,9.99999e-01,9.99999e-01,9.97904e-01,6.91386e-02,9.99999e-01
4.486208064e-01,7.27903e-02,9.99999e-01,9.99999e-01,9.98697e-01,7.28852e-02,9.99999e-01
4.508639105e-01,7.67079e-02,9.99999e-01,9.99999e-01,9.99390e-01,7.67547e-02,9.99999e-01
4.531182300e-01,8.07277e-02,9.99999e-01,9.99999e-01,9.99758e-01,8.07471e-02,9.99999e-01
4.553838212e-01,8.48482e-02,9.99999e-01,9.99999e-01,9.99836e-01,8.48621e-02,9.99999e-01
4.576607403e-01,8.90926e-02,9.99999e-01,9.99999e-01,9.99924e-01,8.90993e-02,9.99999e-01
4.599490440e-01,9.34531e-02,9.99999e-01,9.99999e-01,9.99946e-01,9.34581e-02,9.99999e-01
4.622487892e-01,9.79368e-02,9.99999e-01,9.99999e-01,9.99990e-01,9.79377e-02,9.99999e-01
4.645600332e-01,1.02533e-01,9.99999e-01,9.99999e-01,9.99963e-01,1.02537e-01,9.99999e-01
4.668828333e-01,1.07189e-01,9.99999e-01,9.99999e-01,9.99384e-01,1.07255e-01,9.99999e-01
4.692172475e-01,1.11943e-01,9.99999e-01,9.99999e-01,9.98684e-01,1.12091e-01,9.99999e-01
4.715633337e-01,1.16942e-01,9.99999e-01,9.99999e-01,9.99140e-01,1.17042e-01,9.99999e-01
4.739211504e-01,1.22008e-01,9.99999e-01,9.99999e-01,9.99177e-01,1.22109e-01,9.99999e-01
4.762907561e-01,1.27233e-01,9.99999e-01,9.99999e-01,9.99573e-01,1.27287e-01,9.99999e-01
4.786722099e-01,1.32554e-01,9.99999e-01,9.99999e-01,9.99825e-01,1.32577e-01,9.99999e-01
4.810655710e-01,1.37968e-01,9.99999e-01,9.99999e-01,9.99947e-01,1.37975e-01,9.99999e-01
4.834708988e-01,1.43408e-01,9.99999e-01,9.99999e-01,9.99497e-01,1.43480e-01,9.99999e-01
4.858882533e-01,1.48951e-01,9.99999e-01,9.99999e-01,9.99068e-01,1.49090e-01,9.99999e-01
4.883176946e-01,1.54681e-01,9.99999e-01,9.99999e-01,9.99221e-01,1.54801e-01,9.99999e-01
4.907592831e-01,1.60499e-01,9.99999e-01,9.99999e-01,9.99295e-01,1.60612e-01,9.99999e-01
4.932130795e-01,1.66437e-01,9.99999e-01,9.99999e-01,9.99499e-01,1.66520e-01,9.99999e-01
4.956791449e-01,1.72476e-01,9.99999e-01,9.99999e-01,9.99735e-01,1.72522e-01,9.99999e-01
4.981575406e-01,1.78379e-01,9.99999e-01,9.99999e-01,9.98679e-01,1.78615e-01,9.99999e-01
5.006483283e-01,1.84162e-01,9.99999e-01,9.99999e-01,9.96584e-01,1.84797e-01,9.99976e-01
5.031515699e-01,1.87750e-01,9.99999e-01,9.99999e-01,9.82830e-01,1.91064e-01,9.99817e-01
5.056673278e-01,1.95572e-01,9.99999e-01,9.99999e-01,9.90878e-01,1.97414e-01,9.99791e-01
5.081956644e-01,2.01471e-01,9.99999e-01,9.99999e-01,9.88498e-01,2.03843e-01,9.99865e-01
5.107366428e-01,2.08707e-01,9.99999e-01,9.99999e-01,9.92223e-01,2.10348e-01,9.99974e-01
5.132903260e-01,2.15960e-01,9.99999e-01,9.99999e-01,9.95548e-01,2.16926e-01,9.99996e-01
5.158567776e-01,2.23154e-01,9.99999e-01,9.99999e-01,9.98117e-01,2.23574e-01,9.99999e-01
5.184360615e-01,2.30115e-01,9.99999e-01,9.99999e-01,9.99246e-01,2.30289e-01,9.99999e-01
5.210282418e-01,2.36999e-01,9.99999e-01,9.99999e-01,9.99718e-01,2.37066e-01,9.99999e-01
5.236333830e-01,2.43625e-01,9.99999e-01,9.99999e-01,9.98868e-01,2.43903e-01,9.99991e-01
5.262515499e-01,2.50616e-01,9.99999e-01,9.99999e-01,9.99291e-01,2.50796e-01,9.99988e-01
5.288828077e-01,2.57573e-01,9.99999e-01,9.99999e-01,9.99350e-01,2.57742e-01,9.99992e-01
5.315272217e-01,2.64587e-01,9.99999e-01,9.99999e-01,9.99428e-01,2.64738e-01,9.99997e-01
5.341848578e-01,2.71678e-01,9.99999e-01,9.99999e-01,9.99626e-01,2.71780e-01,9.99999e-01
5.368557821e-01,2.78497e-01,9.99999e-01,9.99999e-01,9.98683e-01,2.78864e-01,9.99996e-01
5.395400610e-01,2.84622e-01,9.99999e-01,9.99999e-01,9.95261e-01,2.85988e-01,9.99960e-01
5.422377613e-01,2.91317e-01,9.99999e-01,9.99999e-01,9.93866e-01,2.93147e-01,9.99888e-01
5.449489501e-01,2.98593e-01,9.99999e-01,9.99999e-01,9.94297e-01,3.00340e-01,9.99884e-01
5.476736949e-01,3.05989e-01,9.99999e-01,9.99999e-01,9.94945e-01,3.07561e-01,9.99943e-01
5.504120634e-01,3.13648e-01,9.99999e-01,9.99999e-01,9.96330e-01,3.14808e-01,9.99984e-01
5.531641237e-01,3.21482e-01,9.99999e-01,9.99999e-01,9.98152e-01,3.22077e-01,9.99997e-01
5.559299443e-01,3.29073e-01,9.99999e-01,9.99999e-01,9.99108e-01,3.29366e-01,9.99999e-01
5.587095940e-01,3.36483e-01,9.99999e-01,9.99999e-01,9.99440e-01,3.36672e-01,9.99999e-01
5.615031420e-01,3.43775e-01,9.99999e-01,9.99999e-01,9.99377e-01,3.43990e-01,9.99998e-01
5.643106577e-01,3.51068e-01,9.99999e-01,9.99999e-01,9.99295e-01,3.51317e-01,9.99993e-01
5.671322110e-01,3.55575e-01,9.99999e-01,9.99999e-01,9.91495e-01,3.58652e-01,9.99923e-01
5.699678720e-01,3.62581e-01,9.99999e-01,9.99999e-01,9.90916e-01,3.65990e-01,9.99766e-01
5.728177114e-01,3.69723e-01,9.99999e-01,9.99999e-01,9.90532e-01,3.73329e-01,9.99805e-01
5.756818000e-01,3.77312e-01,9.99999e-01,9.99999e-01,9.91306e-01,3.80666e-01,9.99880e-01
5.785602090e-01,3.85044e-01,9.99999e-01,9.99999e-01,9.92421e-01,3.87998e-01,9.99963e-01
5.814530100e-01,3.92307e-01,9.99999e-01,9.99999e-01,9.92388e-01,3.95322e-01,9.99983e-01
5.843602750e-01,3.98972e-01,9.99999e-01,9.99999e-01,9.90950e-01,4.02636e-01,9.99948e-01
5.872820764e-01,3.79264e-01,9.99999e-01,9.99999e-01,9.25688e-01,4.09936e-01,9.99449e-01
5.902184868e-01,3.78890e-01,9.99999e-01,9.99999e-01,9.09489e-01,4.17221e-01,9.98501e-01
5.931695792e-01,3.96622e-01,9.99999e-01,9.99999e-01,9.35702e-01,4.24487e-01,9.98558e-01
5.961354271e-01,4.00893e-01,9.99999e-01,9.99999e-01,9.29335e-01,4.31733e-01,9.99171e-01
5.991161043e-01,4.15923e-01,9.99999e-01,9.99999e-01,9.47771e-01,4.38956e-01,9.99743e-01
6.021116848e-01,4.32758e-01,9.99999e-01,9.99999e-01,9.70006e-01,4.46153e-01,9.99968e-01
6.051222432e-01,4.46388e-01,9.99999e-01,9.99999e-01,9.84703e-01,4.53323e-01,9.99997e-01
6.081478544e-01,4.57412e-01,9.99999e-01,9.99999e-01,9.93374e-01,4.60462e-01,9.99999e-01
6.111885937e-01,4.66257e-01,9.99999e-01,9.99999e-01,9.97191e-01,4.67570e-01,9.99999e-01
6.142445367e-01,4.74049e-01,9.99999e-01,9.99999e-01,9.98745e-01,4.74644e-01,9.99999e-01
6.173157594e-01,4.81349e-01,9.99999e-01,9.99999e-01,9.99307e-01,4.81682e-01,9.99999e-01
6.204023382e-01,4.88397e-01,9.99999e-01,9.99999e-01,9.99414e-01,4.88683e-01,9.99998e-01
6.235043498e-01,4.94365e-01,9.99999e-01,9.99999e-01,9.97425e-01,4.95644e-01,9.99993e-01
6.266218716e-01,4.95691e-01,9.99999e-01,9.99999e-01,9.86420e-01,5.02563e-01,9.99903e-01
6.297549810e-01,5.06796e-01,9.99999e-01,9.99999e-01,9.94999e-01,5.09440e-01,9.99807e-01
6.329037559e-01,5.11095e-01,9.99999e-01,9.99999e-01,9.90124e-01,5.16272e-01,9.99846e-01
6.360682746e-01,5.18613e-01,9.99999e-01,9.99999e-01,9.91591e-01,5.23058e-01,9.99908e-01
6.392486160e-01,5.24006e-01,9.99999e-01,9.99999e-01,9.89109e-01,5.29797e-01,9.99959e-01
6.424448591e-01,5.28666e-01,9.99999e-01,9.99999e-01,9.85486e-01,5.36486e-01,9.99935e-01
6.456570834e-01,5.07465e-01,9.99999e-01,9.99999e-01,9.34690e-01,5.43126e-01,9.99624e-01
6.488853688e-01,5.22682e-01,9.99999e-01,9.99999e-01,9.51825e-01,5.49714e-01,9.98948e-01
6.521297956e-01,5.28582e-01,9.99999e-01,9.99999e-01,9.51085e-01,5.56250e-01,9.99131e-01
6.553904446e-01,5.34714e-01,9.99999e-01,9.99999e-01,9.50824e-01,5.62732e-01,9.99353e-01
6.586673968e-01,5.45056e-01,9.99999e-01,9.99999e-01,9.57858e-01,5.69159e-01,9.99783e-01
6.619607338e-01,5.61310e-01,9.99999e-01,9.99999e-01,9.75336e-01,5.75530e-01,9.99953e-01
6.652705375e-01,5.73475e-01,9.99999e-01,9.99999e-01,9.85636e-01,5.81845e-01,9.99976e-01
6.685968902e-01,5.84161e-01,9.99999e-01,9.99999e-01,9.93301e-01,5.88103e-01,9.99995e-01
6.719398746e-01,5.92455e-01,9.99999e-01,9.99999e-01,9.96892e-01,5.94302e-01,9.99999e-01
6.752995740e-01,5.99430e-01,9.99999e-01,9.99999e-01,9.98315e-01,6.00442e-01,9.99998e-01
6.786760719e-01,6.05045e-01,9.99999e-01,9.99999e-01,9.97568e-01,6.06522e-01,9.99996e-01
6.820694522e-01,6.09979e-01,9.99999e-01,9.99999e-01,9.95836e-01,6.12542e-01,9.99977e-01
6.854797995e-01,6.15153e-01,9.99999e-01,9.99999e-01,9.94631e-01,6.18501e-01,9.99953e-01
6.889071985e-01,6.16295e-01,9.99999e-01,9.99999e-01,9.87135e-01,6.24399e-01,9.99883e-01
6.923517345e-01,5.11415e-01,9.99999e-01,9.99999e-01,8.12293e-01,6.30235e-01,9.98983e-01
6.958134932e-01,5.69669e-01,9.99999e-01,9.99999e-01,8.97715e-01,6.36008e-01,9.97749e-01
6.992925606e-01,5.77198e-01,9.99999e-01,9.99999e-01,9.01283e-01,6.41719e-01,9.97971e-01
7.027890234e-01,5.68391e-01,9.99999e-01,9.99999e-01,8.79366e-01,6.47366e-01,9.98450e-01
7.063029686e-01,5.85236e-01,9.99999e-01,9.99999e-01,8.96985e-01,6.52951e-01,9.99228e-01
7.098344834e-01,5.92846e-01,9.99999e-01,9.99999e-01,9.00747e-01,6.58471e-01,9.99543e-01
7.133836558e-01,5.78582e-01,9.99999e-01,9.99999e-01,8.72242e-01,6.63928e-01,9.99093e-01
7.169505741e-01,2.52357e-01,9.99999e-01,9.99999e-01,3.79734e-01,6.69321e-01,9.92888e-01
7.205353270e-01,4.02695e-01,9.99999e-01,9.99999e-01,6.04457e-01,6.74651e-01,9.87486e-01
7.241380036e-01,3.52430e-01,9.99999e-01,9.99999e-01,5.24010e-01,6.79916e-01,9.89185e-01
7.277586936e-01,3.79726e-01,9.99999e-01,9.99999e-01,5.59198e-01,6.85116e-01,9.91150e-01
7.313974871e-01,3.63735e-01,9.99999e-01,9.99999e-01,5.29157e-01,6.90253e-01,9.95845e-01
7.350544745e-01,4.87053e-01,9.99999e-01,9.99999e-01,7.01481e-01,6.95326e-01,9.98554e-01
7.387297469e-01,5.36906e-01,9.99999e-01,9.99999e-01,7.67150e-01,7.00335e-01,9.99337e-01
7.424233956e-01,6.18691e-01,9.99999e-01,9.99999e-01,8.77339e-01,7.05279e-01,9.99871e-01
7.461355126e-01,6.55856e-01,9.99999e-01,9.99999e-01,9.23552e-01,7.10160e-01,9.99976e-01
7.498661902e-01,6.88936e-01,9.99999e-01,9.99999e-01,9.63584e-01,7.14978e-01,9.99991e-01
7.536155211e-01,7.06743e-01,9.99999e-01,9.99999e-01,9.81957e-01,7.19732e-01,9.99994e-01
7.573835987e-01,7.17664e-01,9.99999e-01,9.99999e-01,9.90671e-01,7.24422e-01,9.99998e-01
7.611705167e-01,7.24818e-01,9.99999e-01,9.99999e-01,9.94194e-01,7.29050e-01,9.99999e-01
7.649763693e-01,7.30943e-01,9.99999e-01,9.99999e-01,9.96358e-01,7.33615e-01,9.99999e-01
7.688012511e-01,7.36245e-01,9.99999e-01,9.99999e-01,9.97463e-01,7.38117e-01,9.99999e-01
7.726452574e-01,7.41007e-01,9.99999e-01,9.99999e-01,9.97912e-01,7.42558e-01,9.99998e-01
7.765084837e-01,7.44720e-01,9.99999e-01,9.99999e-01,9.97035e-01,7.46937e-01,9.99996e-01
7.803910261e-01,7.41674e-01,9.99999e-01,9.99999e-01,9.87260e-01,7.51254e-01,9.99987e-01
7.842929812e-01,7.22488e-01,9.99999e-01,9.99999e-01,9.56369e-01,7.55510e-01,9.99917e-01
7.882144461e-01,6.92474e-01,9.99999e-01,9.99999e-01,9.12017e-01,7.59705e-01,9.99435e-01
7.921555184e-01,7.25481e-01,9.99999e-01,9.99999e-01,9.50816e-01,7.63841e-01,9.98909e-01
7.961162960e-01,7.01964e-01,9.99999e-01,9.99999e-01,9.15071e-01,7.67916e-01,9.98954e-01
8.000968774e-01,6.95305e-01,9.99999e-01,9.99999e-01,9.01735e-01,7.71932e-01,9.98887e-01
8.040973618e-01,6.99207e-01,9.99999e-01,9.99999e-01,9.01965e-01,7.75889e-01,9.99116e-01
8.081178486e-01,6.20899e-01,9.99999e-01,9.99999e-01,7.96901e-01,7.79788e-01,9.99171e-01
8.121584379e-01,3.20431e-01,9.99999e-01,9.99999e-01,4.10241e-01,7.83628e-01,9.96747e-01
8.162192301e-01,2.74423e-01,9.99999e-01,9.99999e-01,3.52809e-01,7.87411e-01,9.87823e-01
8.203003262e-01,4.80931e-01,9.99999e-01,9.99999e-01,6.16680e-01,7.91137e-01,9.85756e-01
8.244018279e-01,4.19739e-01,9.99999e-01,9.99999e-01,5.34165e-01,7.94807e-01,9.88647e-01
8.285238370e-01,4.13159e-01,9.99999e-01,9.99999e-01,5.22130e-01,7.98421e-01,9.91073e-01
8.326664562e-01,4.17275e-01,9.99999e-01,9.99999e-01,5.22239e-01,8.01979e-01,9.96298e-01
8.368297885e-01,4.96698e-01,9.99999e-01,9.99999e-01,6.17168e-01,8.05482e-01,9.99153e-01
8.410139374e-01,6.04726e-01,9.99999e-01,9.99999e-01,7.47932e-01,8.08931e-01,9.99504e-01
8.452190071e-01,7.03202e-01,9.99999e-01,9.99999e-01,8.65919e-01,8.12326e-01,9.99703e-01
8.494451021e-01,7.49812e-01,9.99999e-01,9.99999e-01,9.19478e-01,8.15668e-01,9.99762e-01
8.536923276e-01,7.79169e-01,9.99999e-01,9.99999e-01,9.51551e-01,8.18958e-01,9.99855e-01
8.579607893e-01,7.97396e-01,9.99999e-01,9.99999e-01,9.69871e-01,8.22195e-01,9.99964e-01
8.622505932e-01,8.09482e-01,9.99999e-01,9.99999e-01,9.80743e-01,8.25380e-01,9.99993e-01
8.665618462e-01,8.18612e-01,9.99999e-01,9.99999e-01,9.88049e-01,8.28515e-01,9.99996e-01
8.708946554e-01,8.20225e-01,9.99999e-01,9.99999e-01,9.86329e-01,8.31599e-01,9.99992e-01
8.752491287e-01,8.19384e-01,9.99999e-01,9.99999e-01,9.81746e-01,8.34634e-01,9.99980e-01
8.796253743e-01,8.16496e-01,9.99999e-01,9.99999e-01,9.74836e-01,8.37619e-01,9.99942e-01
8.840235012e-01,8.16317e-01,9.99999e-01,9.99999e-01,9.71334e-01,8.40556e-01,9.99822e-01
8.884436187e-01,7.61295e-01,9.99999e-01,9.99999e-01,9.03056e-01,8.43445e-01,9.99496e-01
8.928858368e-01,3.19304e-01,9.99999e-01,9.99999e-01,3.78399e-01,8.46286e-01,9.97096e-01
8.973502660e-01,1.53231e-01,9.99999e-01,9.99999e-01,1.83177e-01,8.49081e-01,9.85206e-01
9.018370173e-01,3.49034e-01,9.99999e-01,9.99999e-01,4.19462e-01,8.51829e-01,9.76838e-01
9.063462024e-01,3.83233e-01,9.99999e-01,9.99999e-01,4.57799e-01,8.54532e-01,9.79624e-01
9.108779334e-01,2.49074e-01,9.99999e-01,9.99999e-01,2.96852e-01,8.57189e-01,9.78836e-01
9.154323231e-01,2.03804e-01,9.99999e-01,9.99999e-01,2.41263e-01,8.59802e-01,9.82474e-01
9.200094847e-01,2.87704e-01,9.99999e-01,9.99999e-01,3.36937e-01,8.62371e-01,9.90153e-01
9.246095321e-01,1.82309e-01,9.99999e-01,9.99999e-01,2.13204e-01,8.64897e-01,9.88662e-01
9.292325798e-01,2.54669e-03,9.99999e-01,9.99999e-01,3.06957e-03,8.67380e-01,9.56508e-01
9.338787427e-01,2.49131e-05,9.99999e-01,9.99999e-01,3.44216e-05,8.69821e-01,8.32083e-01
9.385481364e-01,9.54011e-03,9.99999e-01,9.99999e-01,1.36106e-02,8.72221e-01,8.03619e-01
9.432408771e-01,3.32896e-03,9.99999e-01,9.99999e-01,4.59646e-03,8.74579e-01,8.28104e-01
9.479570815e-01,1.24862e-04,9.99999e-01,9.99999e-01,1.66015e-04,8.76898e-01,8.57694e-01
9.526968669e-01,8.08456e-04,9.99999e-01,9.99999e-01,1.00982e-03,8.79176e-01,9.10619e-01
9.574603512e-01,1.33897e-03,9.99999e-01,9.99999e-01,1.59311e-03,8.81415e-01,9.53553e-01
9.622476530e-01,4.14013e-03,9.99999e-01,9.99999e-01,4.84208e-03,8.83615e-01,9.67648e-01
9.670588912e-01,3.62280e-02,9.99999e-01,9.99999e-01,4.18299e-02,8.85777e-01,9.77760e-01
9.718941857e-01,8.33057e-02,9.99999e-01,9.99999e-01,9.53892e-02,8.87902e-01,9.83580e-01
9.767536566e-01,1.24305e-01,9.99999e-01,9.99999e-01,1.41449e-01,8.89990e-01,9.87427e-01
9.816374249e-01,1.95349e-01,9.99999e-01,9.99999e-01,2.19952e-01,8.92041e-01,9.95631e-01
9.865456120e-01,3.38122e-01,9.99999e-01,9.99999e-01,3.78533e-01,8.94056e-01,9.99088e-01
9.914783401e-01,4.85728e-01,9.99999e-01,9.99999e-01,5.42222e-01,8.96036e-01,9.99746e-01
9.964357318e-01,6.42556e-01,9.99999e-01,9.99999e-01,7.15661e-01,8.97981e-01,9.99851e-01
1.001417910e+00,7.35309e-01,9.99999e-01,9.99999e-01,8.17292e-01,8.99892e-01,9.99773e-01
1.006425000e+00,8.03191e-01,9.99999e-01,9.99999e-01,8.90970e-01,9.01768e-01,9.99678e-01
1.011457125e+00,8.40876e-01,9.99999e-01,9.99999e-01,9.30849e-01,9.03612e-01,9.99701e-01
1.016514411e+00,8.62210e-01,9.99999e-01,9.99999e-01,9.52473e-01,9.05423e-01,9.99789e-01
1.021596983e+00,8.72495e-01,9.99999e-01,9.99999e-01,9.61946e-01,9.07201e-01,9.99787e-01
1.026704968e+00,8.81722e-01,9.99999e-01,9.99999e-01,9.70183e-01,9.08948e-01,9.99858e-01
1.031838492e+00,8.90815e-01,9.99999e-01,9.99999e-01,9.78241e-01,9.10664e-01,9.99960e-01
1.036997685e+00,9.00502e-01,9.99999e-01,9.99999e-01,9.87020e-01,9.12349e-01,9.99993e-01
1.042182673e+00,8.99879e-01,9.99999e-01,9.99999e-01,9.84549e-01,9.14003e-01,9.99996e-01
1.047393587e+00,8.96905e-01,9.99999e-01,9.99999e-01,9.79555e-01,9.15628e-01,9.99995e-01
1.052630555e+00,8.91597e-01,9.99999e-01,9.99999e-01,9.72066e-01,9.17224e-01,9.99992e-01
1.057893707e+00,8.76397e-01,9.99999e-01,9.99999e-01,9.53874e-01,9.18791e-01,9.99983e-01
1.063183176e+00,8.51685e-01,9.99999e-01,9.99999e-01,9.25450e-01,9.20329e-01,9.99959e-01
1.068499092e+00,8.09951e-01,9.99999e-01,9.99999e-01,8.78701e-01,9.21839e-01,9.99911e-01
1.073841587e+00,7.94770e-01,9.99999e-01,9.99999e-01,8.60936e-01,9.23323e-01,9.99807e-01
1.079210795e+00,7.61988e-01,9.99999e-01,9.99999e-01,8.24396e-01,9.24779e-01,9.99479e-01
1.084606849e+00,6.92533e-01,9.99999e-01,9.99999e-01,7.48644e-01,9.26208e-01,9.98748e-01
1.090029883e+00,6.15184e-01,9.99999e-01,9.99999e-01,6.64915e-01,9.27612e-01,9.97406e-01
1.095480033e+00,3.08457e-01,9.99999e-01,9.99999e-01,3.33597e-01,9.28989e-01,9.95314e-01
1.100957433e+00,7.27322e-02,9.99999e-01,9.99999e-01,7.88565e-02,9.30342e-01,9.91392e-01
1.106462220e+00,4.12518e-03,9.99999e-01,9.99999e-01,4.49313e-03,9.31670e-01,9.85443e-01
1.111994531e+00,1.06560e-05,9.99999e-01,9.99999e-01,1.18749e-05,9.32973e-01,9.61820e-01
1.117554504e+00,1.23537e-07,9.99999e-01,9.99999e-01,1.52184e-07,9.34253e-01,8.68883e-01
1.123142276e+00,2.42353e-05,9.99999e-01,9.99999e-01,3.61533e-05,9.35508e-01,7.16559e-01
1.128757988e+00,1.18598e-04,9.99999e-01,9.99999e-01,1.86168e-04,9.36741e-01,6.80064e-01
1.134401778e+00,1.90014e-04,9.99999e-01,9.99999e-01,2.81183e-04,9.37951e-01,7.20470e-01
1.140073787e+00,2.22301e-03,9.99999e-01,9.99999e-01,3.07591e-03,9.39138e-01,7.69551e-01
1.145774156e+00,1.36425e-04,9.99999e-01,9.99999e-01,1.84399e-04,9.40304e-01,7.86804e-01
1.151503026e+00,1.89588e-05,9.99999e-01,9.99999e-01,2.30158e-05,9.41448e-01,8.74962e-01
1.157260541e+00,1.36075e-05,9.99999e-01,9.99999e-01,1.50248e-05,9.42571e-01,9.60849e-01
1.163046844e+00,2.57237e-04,9.99999e-01,9.99999e-01,2.75694e-04,9.43672e-01,9.88744e-01
1.168862078e+00,2.60145e-03,9.99999e-01,9.99999e-01,2.76967e-03,9.44754e-01,9.94185e-01
1.174706389e+00,1.98655e-02,9.99999e-01,9.99999e-01,2.11665e-02,9.45815e-01,9.92299e-01
1.180579921e+00,8.20463e-02,9.99999e-01,9.99999e-01,8.76699e-02,9.46856e-01,9.88379e-01
1.186482820e+00,2.17916e-01,9.99999e-01,9.99999e-01,2.32673e-01,9.47878e-01,9.88074e-01
1.192415234e+00,3.93824e-01,9.99999e-01,9.99999e-01,4.18786e-01,9.48881e-01,9.91056e-01
1.198377311e+00,4.53622e-01,9.99999e-01,9.99999e-01,4.81634e-01,9.49865e-01,9.91549e-01
1.204369197e+00,4.80784e-01,9.99999e-01,9.99999e-01,5.09543e-01,9.50830e-01,9.92351e-01
1.210391043e+00,4.92137e-01,9.99999e-01,9.99999e-01,5.19492e-01,9.51778e-01,9.95340e-01
1.216442998e+00,5.44167e-01,9.99999e-01,9.99999e-01,5.72815e-01,9.52707e-01,9.97143e-01
1.222525213e+00,6.12821e-01,9.99999e-01,9.99999e-01,6.43768e-01,9.53619e-01,9.98224e-01
1.228637839e+00,7.01457e-01,9.99999e-01,9.99999e-01,7.35490e-01,9.54514e-01,9.99173e-01
