#,Wave/freq,Total,N2,O2,H2O,Rayleigh,CIA
4.000000000e-01,3.75260e-01,9.99999e-01,9.99999e-01,9.99889e-01,3.75301e-01,9.99999e-01
4.020000000e-01,3.82618e-01,9.99999e-01,9.99999e-01,9.99930e-01,3.82645e-01,9.99999e-01
4.040100000e-01,3.89963e-01,9.99999e-01,9.99999e-01,9.99970e-01,3.89975e-01,9.99999e-01
4.060300500e-01,3.97294e-01,9.99999e-01,9.99999e-01,9.99992e-01,3.97296e-01,9.99999e-01
4.080602003e-01,4.04606e-01,9.99999e-01,9.99999e-01,9.99997e-01,4.04607e-01,9.99999e-01
4.101005013e-01,4.11903e-01,9.99999e-01,9.99999e-01,9.99999e-01,4.11903e-01,9.99999e-01
4.121510038e-01,4.19181e-01,9.99999e-01,9.99999e-01,9.99995e-01,4.19183e-01,9.99999e-01
4.142117588e-01,4.26431e-01,9.99999e-01,9.99999e-01,9.99969e-01,4.26444e-01,9.99999e-01
4.162828176e-01,4.33625e-01,9.99999e-01,9.99999e-01,9.99862e-01,4.33684e-01,9.99999e-01
4.183642317e-01,4.40864e-01,9.99999e-01,9.99999e-01,9.99918e-01,4.40900e-01,9.99999e-01
4.204560528e-01,4.48068e-01,9.99999e-01,9.99999e-01,9.99949e-01,4.48090e-01,9.99999e-01
4.225583331e-01,4.55243e-01,9.99999e-01,9.99999e-01,9.99980e-01,4.55252e-01,9.99999e-01
4.246711247e-01,4.62376e-01,9.99999e-01,9.99999e-01,9.99984e-01,4.62383e-01,9.99999e-01
4.267944804e-01,4.69472e-01,9.99999e-01,9.99999e-01,9.99977e-01,4.69482e-01,9.99999e-01
4.289284528e-01,4.76539e-01,9.99999e-01,9.99999e-01,9.99982e-01,4.76547e-01,9.99999e-01
4.310730950e-01,4.83571e-01,9.99999e-01,9.99999e-01,9.99992e-01,4.83575e-01,9.99999e-01
4.332284605e-01,4.90564e-01,9.99999e-01,9.99999e-01,9.99997e-01,4.90565e-01,9.99999e-01
4.353946028e-01,4.97514e-01,9.99999e-01,9.99999e-01,9.99998e-01,4.97514e-01,9.99999e-01
4.375715758e-01,5.04416e-01,9.99999e-01,9.99999e-01,9.99986e-01,5.04423e-01,9.99999e-01
4.397594337e-01,5.11226e-01,9.99999e-01,9.99999e-01,9.99879e-01,5.11287e-01,9.99999e-01
4.419582309e-01,5.17791e-01,9.99999e-01,9.99999e-01,9.99390e-01,5.18107e-01,9.99999e-01
4.441680220e-01,5.24630e-01,9.99999e-01,9.99999e-01,9.99522e-01,5.24881e-01,9.99999e-01
4.463888621e-01,5.31343e-01,9.99999e-01,9.99999e-01,9.99503e-01,5.31606e-01,9.99999e-01
4.486208064e-01,5.38117e-01,9.99999e-01,9.99999e-01,9.99691e-01,5.38283e-01,9.99999e-01
4.508639105e-01,5.44830e-01,9.99999e-01,9.99999e-01,9.99855e-01,5.44908e-01,9.99999e-01
4.531182300e-01,5.51451e-01,9.99999e-01,9.99999e-01,9.99942e-01,5.51483e-01,9.99999e-01
4.553838212e-01,5.57982e-01,9.99999e-01,9.99999e-01,9.99960e-01,5.58004e-01,9.99999e-01
4.576607403e-01,5.64461e-01,9.99999e-01,9.99999e-01,9.99981e-01,5.64471e-01,9.99999e-01
4.599490440e-01,5.70876e-01,9.99999e-01,9.99999e-01,9.99986e-01,5.70883e-01,9.99999e-01
4.622487892e-01,5.77238e-01,9.99999e-01,9.99999e-01,9.99997e-01,5.77240e-01,9.99999e-01
4.645600332e-01,5.83534e-01,9.99999e-01,9.99999e-01,9.99990e-01,5.83539e-01,9.99999e-01
4.668828333e-01,5.89695e-01,9.99999e-01,9.99999e-01,9.99853e-01,5.89781e-01,9.99999e-01
4.692172475e-01,5.95779e-01,9.99999e-01,9.99999e-01,9.99688e-01,5.95964e-01,9.99999e-01
4.715633337e-01,6.01966e-01,9.99999e-01,9.99999e-01,9.99796e-01,6.02088e-01,9.99999e-01
4.739211504e-01,6.08034e-01,9.99999e-01,9.99999e-01,9.99804e-01,6.08152e-01,9.99999e-01
4.762907561e-01,6.14094e-01,9.99999e-01,9.99999e-01,9.99898e-01,6.14156e-01,9.99999e-01
4.786722099e-01,6.20073e-01,9.99999e-01,9.99999e-01,9.99958e-01,6.20098e-01,9.99999e-01
4.810655710e-01,6.25972e-01,9.99999e-01,9.99999e-01,9.99987e-01,6.25979e-01,9.99999e-01
4.834708988e-01,6.31723e-01,9.99999e-01,9.99999e-01,9.99880e-01,6.31798e-01,9.99999e-01
4.858882533e-01,6.37414e-01,9.99999e-01,9.99999e-01,9.99779e-01,6.37555e-01,9.99999e-01
4.883176946e-01,6.43130e-01,9.99999e-01,9.99999e-01,9.99815e-01,6.43248e-01,9.99999e-01
4.907592831e-01,6.48771e-01,9.99999e-01,9.99999e-01,9.99832e-01,6.48879e-01,9.99999e-01
4.932130795e-01,6.54369e-01,9.99999e-01,9.99999e-01,9.99881e-01,6.54446e-01,9.99999e-01
4.956791449e-01,6.59909e-01,9.99999e-01,9.99999e-01,9.99937e-01,6.59950e-01,9.99999e-01
4.981575406e-01,6.65182e-01,9.99999e-01,9.99999e-01,9.99686e-01,6.65390e-01,9.99999e-01
5.006483283e-01,6.70219e-01,9.99999e-01,9.99999e-01,9.99190e-01,6.70765e-01,9.99994e-01
5.031515699e-01,6.73276e-01,9.99999e-01,9.99999e-01,9.95899e-01,6.76077e-01,9.99956e-01
5.056673278e-01,6.79815e-01,9.99999e-01,9.99999e-01,9.97832e-01,6.81325e-01,9.99950e-01
5.081956644e-01,6.84610e-01,9.99999e-01,9.99999e-01,9.97266e-01,6.86509e-01,9.99967e-01
5.107366428e-01,6.90347e-01,9.99999e-01,9.99999e-01,9.98153e-01,6.91628e-01,9.99993e-01
5.132903260e-01,6.95948e-01,9.99999e-01,9.99999e-01,9.98943e-01,6.96683e-01,9.99998e-01
5.158567776e-01,7.01362e-01,9.99999e-01,9.99999e-01,9.99553e-01,7.01675e-01,9.99999e-01
5.184360615e-01,7.06476e-01,9.99999e-01,9.99999e-01,9.99821e-01,7.06602e-01,9.99999e-01
5.210282418e-01,7.11419e-01,9.99999e-01,9.99999e-01,9.99932e-01,7.11466e-01,9.99999e-01
5.236333830e-01,7.16073e-01,9.99999e-01,9.99999e-01,9.99731e-01,7.16266e-01,9.99997e-01
5.262515499e-01,7.20881e-01,9.99999e-01,9.99999e-01,9.99832e-01,7.21003e-01,9.99996e-01
5.288828077e-01,7.25564e-01,9.99999e-01,9.99999e-01,9.99845e-01,7.25677e-01,9.99997e-01
5.315272217e-01,7.30189e-01,9.99999e-01,9.99999e-01,9.99864e-01,7.30288e-01,9.99999e-01
5.341848578e-01,7.34771e-01,9.99999e-01,9.99999e-01,9.99911e-01,7.34836e-01,9.99999e-01
5.368557821e-01,7.39091e-01,9.99999e-01,9.99999e-01,9.99688e-01,7.39322e-01,9.99998e-01
5.395400610e-01,7.42903e-01,9.99999e-01,9.99999e-01,9.98876e-01,7.43745e-01,9.99990e-01
5.422377613e-01,7.47000e-01,9.99999e-01,9.99999e-01,9.98545e-01,7.48107e-01,9.99973e-01
5.449489501e-01,7.51371e-01,9.99999e-01,9.99999e-01,9.98648e-01,7.52408e-01,9.99972e-01
5.476736949e-01,7.55731e-01,9.99999e-01,9.99999e-01,9.98801e-01,7.56648e-01,9.99986e-01
5.504120634e-01,7.60163e-01,9.99999e-01,9.99999e-01,9.99130e-01,7.60827e-01,9.99995e-01
5.531641237e-01,7.64611e-01,9.99999e-01,9.99999e-01,9.99562e-01,7.64946e-01,9.99998e-01
5.559299443e-01,7.68843e-01,9.99999e-01,9.99999e-01,9.99788e-01,7.69005e-01,9.99999e-01
5.587095940e-01,7.72903e-01,9.99999e-01,9.99999e-01,9.99867e-01,7.73005e-01,9.99999e-01
5.615031420e-01,7.76832e-01,9.99999e-01,9.99999e-01,9.99852e-01,7.76947e-01,9.99999e-01
5.643106577e-01,7.80698e-01,9.99999e-01,9.99999e-01,9.99832e-01,7.80830e-01,9.99998e-01
5.671322110e-01,7.83051e-01,9.99999e-01,9.99999e-01,9.97973e-01,7.84655e-01,9.99981e-01
5.699678720e-01,7.86675e-01,9.99999e-01,9.99999e-01,9.97838e-01,7.88422e-01,9.99944e-01
5.728177114e-01,7.90316e-01,9.99999e-01,9.99999e-01,9.97751e-01,7.92133e-01,9.99953e-01
5.756818000e-01,7.94123e-01,9.99999e-01,9.99999e-01,9.97935e-01,7.95787e-01,9.99971e-01
5.785602090e-01,7.97941e-01,9.99999e-01,9.99999e-01,9.98200e-01,7.99386e-01,9.99991e-01
5.814530100e-01,8.01476e-01,9.99999e-01,9.99999e-01,9.98192e-01,8.02929e-01,9.99995e-01
5.843602750e-01,8.04674e-01,9.99999e-01,9.99999e-01,9.97848e-01,8.06418e-01,9.99987e-01
5.872820764e-01,7.94881e-01,9.99999e-01,9.99999e-01,9.81641e-01,8.09852e-01,9.99869e-01
5.902184868e-01,7.94834e-01,9.99999e-01,9.99999e-01,9.77721e-01,8.13233e-01,9.99644e-01
5.931695792e-01,8.03420e-01,9.99999e-01,9.99999e-01,9.84243e-01,8.16561e-01,9.99657e-01
5.961354271e-01,8.05508e-01,9.99999e-01,9.99999e-01,9.82715e-01,8.19836e-01,9.99803e-01
5.991161043e-01,8.12604e-01,9.99999e-01,9.99999e-01,9.87356e-01,8.23059e-01,9.99938e-01
6.021116848e-01,8.20281e-01,9.99999e-01,9.99999e-01,9.92805e-01,8.26231e-01,9.99992e-01
6.051222432e-01,8.26328e-01,9.99999e-01,9.99999e-01,9.96353e-01,8.29352e-01,9.99998e-01
6.081478544e-01,8.31113e-01,9.99999e-01,9.99999e-01,9.98425e-01,8.32423e-01,9.99999e-01
6.111885937e-01,8.34888e-01,9.99999e-01,9.99999e-01,9.99333e-01,8.35444e-01,9.99999e-01
6.142445367e-01,8.38167e-01,9.99999e-01,9.99999e-01,9.99702e-01,8.38416e-01,9.99999e-01
6.173157594e-01,8.41202e-01,9.99999e-01,9.99999e-01,9.99835e-01,8.41340e-01,9.99999e-01
6.204023382e-01,8.44099e-01,9.99999e-01,9.99999e-01,9.99860e-01,8.44216e-01,9.99999e-01
6.235043498e-01,8.46526e-01,9.99999e-01,9.99999e-01,9.99389e-01,8.47045e-01,9.99998e-01
6.266218716e-01,8.47060e-01,9.99999e-01,9.99999e-01,9.96766e-01,8.49827e-01,9.99976e-01
6.297549810e-01,8.51512e-01,9.99999e-01,9.99999e-01,9.98813e-01,8.52563e-01,9.99954e-01
6.329037559e-01,8.53216e-01,9.99999e-01,9.99999e-01,9.97654e-01,8.55253e-01,9.99963e-01
6.360682746e-01,8.56167e-01,9.99999e-01,9.99999e-01,9.98003e-01,8.57898e-01,9.99977e-01
6.392486160e-01,8.58265e-01,9.99999e-01,9.99999e-01,9.97411e-01,8.60500e-01,9.99989e-01
6.424448591e-01,8.60060e-01,9.99999e-01,9.99999e-01,9.96541e-01,8.63057e-01,9.99984e-01
6.456570834e-01,8.51690e-01,9.99999e-01,9.99999e-01,9.84049e-01,8.65571e-01,9.99910e-01
6.488853688e-01,8.57667e-01,9.99999e-01,9.99999e-01,9.88292e-01,8.68043e-01,9.99750e-01
6.521297956e-01,8.59915e-01,9.99999e-01,9.99999e-01,9.88074e-01,8.70473e-01,9.99793e-01
6.553904446e-01,8.62353e-01,9.99999e-01,9.99999e-01,9.88111e-01,8.72861e-01,9.99846e-01
6.586673968e-01,8.66248e-01,9.99999e-01,9.99999e-01,9.89811e-01,8.75209e-01,9.99948e-01
6.619607338e-01,8.72325e-01,9.99999e-01,9.99999e-01,9.94095e-01,8.77516e-01,9.99988e-01
6.652705375e-01,8.76769e-01,9.99999e-01,9.99999e-01,9.96577e-01,8.79784e-01,9.99993e-01
6.685968902e-01,8.80608e-01,9.99999e-01,9.99999e-01,9.98408e-01,8.82012e-01,9.99998e-01
6.719398746e-01,8.83550e-01,9.99999e-01,9.99999e-01,9.99262e-01,8.84202e-01,9.99999e-01
6.752995740e-01,8.86000e-01,9.99999e-01,9.99999e-01,9.99600e-01,8.86354e-01,9.99999e-01
6.786760719e-01,8.87956e-01,9.99999e-01,9.99999e-01,9.99423e-01,8.88469e-01,9.99998e-01
6.820694522e-01,8.89663e-01,9.99999e-01,9.99999e-01,9.99012e-01,8.90547e-01,9.99994e-01
6.854797995e-01,8.91443e-01,9.99999e-01,9.99999e-01,9.98727e-01,8.92588e-01,9.99988e-01
6.889071985e-01,8.91821e-01,9.99999e-01,9.99999e-01,9.96927e-01,8.94594e-01,9.99972e-01
6.923517345e-01,8.52464e-01,9.99999e-01,9.99999e-01,9.51040e-01,8.96564e-01,9.99758e-01
6.958134932e-01,8.74869e-01,9.99999e-01,9.99999e-01,9.74219e-01,8.98500e-01,9.99465e-01
6.992925606e-01,8.77884e-01,9.99999e-01,9.99999e-01,9.75461e-01,9.00401e-01,9.99518e-01
7.027890234e-01,8.74660e-01,9.99999e-01,9.99999e-01,9.69755e-01,9.02269e-01,9.99632e-01
7.063029686e-01,8.80876e-01,9.99999e-01,9.99999e-01,9.74486e-01,9.04104e-01,9.99816e-01
7.098344834e-01,8.83614e-01,9.99999e-01,9.99999e-01,9.75497e-01,9.05906e-01,9.99891e-01
7.133836558e-01,8.78102e-01,9.99999e-01,9.99999e-01,9.67625e-01,9.07676e-01,9.99784e-01
7.169505741e-01,7.00913e-01,9.99999e-01,9.99999e-01,7.72034e-01,9.09414e-01,9.98309e-01
7.205353270e-01,7.99343e-01,9.99999e-01,9.99999e-01,8.79939e-01,9.11122e-01,9.97018e-01
7.241380036e-01,7.73671e-01,9.99999e-01,9.99999e-01,8.49769e-01,9.12798e-01,9.97425e-01
7.277586936e-01,7.87910e-01,9.99999e-01,9.99999e-01,8.63443e-01,9.14445e-01,9.97894e-01
7.313974871e-01,7.82013e-01,9.99999e-01,9.99999e-01,8.54510e-01,9.16062e-01,9.99013e-01
7.350544745e-01,8.41590e-01,9.99999e-01,9.99999e-01,9.17429e-01,9.17649e-01,9.99656e-01
7.387297469e-01,8.62412e-01,9.99999e-01,9.99999e-01,9.38358e-01,9.19208e-01,9.99842e-01
7.424233956e-01,8.92446e-01,9.99999e-01,9.99999e-01,9.69299e-01,9.20739e-01,9.99969e-01
7.461355126e-01,9.04970e-01,9.99999e-01,9.99999e-01,9.81276e-01,9.22242e-01,9.99994e-01
7.498661902e-01,9.15621e-01,9.99999e-01,9.99999e-01,9.91235e-01,9.23718e-01,9.99997e-01
7.536155211e-01,9.21181e-01,9.99999e-01,9.99999e-01,9.95692e-01,9.25167e-01,9.99998e-01
7.573835987e-01,9.24533e-01,9.99999e-01,9.99999e-01,9.97780e-01,9.26589e-01,9.99999e-01
7.611705167e-01,9.26706e-01,9.99999e-01,9.99999e-01,9.98620e-01,9.27986e-01,9.99999e-01
7.649763693e-01,9.28553e-01,9.99999e-01,9.99999e-01,9.99135e-01,9.29357e-01,9.99999e-01
7.688012511e-01,9.30142e-01,9.99999e-01,9.99999e-01,9.99397e-01,9.30703e-01,9.99999e-01
7.726452574e-01,9.31562e-01,9.99999e-01,9.99999e-01,9.99504e-01,9.32024e-01,9.99999e-01
7.765084837e-01,9.32664e-01,9.99999e-01,9.99999e-01,9.99296e-01,9.33321e-01,9.99998e-01
7.803910261e-01,9.31754e-01,9.99999e-01,9.99999e-01,9.96964e-01,9.34594e-01,9.99996e-01
7.842929812e-01,9.25949e-01,9.99999e-01,9.99999e-01,9.89446e-01,9.35843e-01,9.99980e-01
7.882144461e-01,9.16660e-01,9.99999e-01,9.99999e-01,9.78350e-01,9.37070e-01,9.99865e-01
7.921555184e-01,9.26842e-01,9.99999e-01,9.99999e-01,9.88071e-01,9.38274e-01,9.99740e-01
7.961162960e-01,9.19540e-01,9.99999e-01,9.99999e-01,9.79044e-01,9.39455e-01,9.99751e-01
8.000968774e-01,9.17590e-01,9.99999e-01,9.99999e-01,9.75778e-01,9.40615e-01,9.99735e-01
8.040973618e-01,9.18758e-01,9.99999e-01,9.99999e-01,9.75786e-01,9.41753e-01,9.99790e-01
8.081178486e-01,8.92245e-01,9.99999e-01,9.99999e-01,9.46492e-01,9.42870e-01,9.99803e-01
8.121584379e-01,7.52043e-01,9.99999e-01,9.99999e-01,7.97299e-01,9.43966e-01,9.99227e-01
8.162192301e-01,7.20701e-01,9.99999e-01,9.99999e-01,7.64830e-01,9.45042e-01,9.97099e-01
8.203003262e-01,8.28409e-01,9.99999e-01,9.99999e-01,8.78588e-01,9.46098e-01,9.96604e-01
8.244018279e-01,7.90259e-01,9.99999e-01,9.99999e-01,8.36630e-01,9.47134e-01,9.97296e-01
8.285238370e-01,8.05161e-01,9.99999e-01,9.99999e-01,8.50997e-01,9.48150e-01,9.97876e-01
8.326664562e-01,8.05928e-01,9.99999e-01,9.99999e-01,8.49853e-01,9.49148e-01,9.99120e-01
8.368297885e-01,8.44792e-01,9.99999e-01,9.99999e-01,8.89313e-01,9.50127e-01,9.99798e-01
8.410139374e-01,8.86802e-01,9.99999e-01,9.99999e-01,9.32517e-01,9.51087e-01,9.99882e-01
8.452190071e-01,9.19843e-01,9.99999e-01,9.99999e-01,9.66258e-01,9.52030e-01,9.99929e-01
8.494451021e-01,9.34106e-01,9.99999e-01,9.99999e-01,9.80275e-01,9.52955e-01,9.99943e-01
8.536923276e-01,9.42658e-01,9.99999e-01,9.99999e-01,9.88287e-01,9.53862e-01,9.99965e-01
8.579607893e-01,9.47846e-01,9.99999e-01,9.99999e-01,9.92773e-01,9.54753e-01,9.99991e-01
8.622505932e-01,9.51231e-01,9.99999e-01,9.99999e-01,9.95401e-01,9.55626e-01,9.99998e-01
8.665618462e-01,9.53762e-01,9.99999e-01,9.99999e-01,9.97154e-01,9.56483e-01,9.99998e-01
8.708946554e-01,9.54206e-01,9.99999e-01,9.99999e-01,9.96743e-01,9.57324e-01,9.99997e-01
8.752491287e-01,9.53973e-01,9.99999e-01,9.99999e-01,9.95644e-01,9.58149e-01,9.99994e-01
8.796253743e-01,9.53170e-01,9.99999e-01,9.99999e-01,9.93976e-01,9.58959e-01,9.99986e-01
8.840235012e-01,9.53113e-01,9.99999e-01,9.99999e-01,9.93122e-01,9.59753e-01,9.99957e-01
8.884436187e-01,9.36751e-01,9.99999e-01,9.99999e-01,9.75358e-01,9.60532e-01,9.99880e-01
8.928858368e-01,7.41957e-01,9.99999e-01,9.99999e-01,7.72361e-01,9.61296e-01,9.99310e-01
8.973502660e-01,6.09056e-01,9.99999e-01,9.99999e-01,6.35325e-01,9.62046e-01,9.96472e-01
9.018370173e-01,7.59473e-01,9.99999e-01,9.99999e-01,7.93225e-01,9.62782e-01,9.94459e-01
9.063462024e-01,7.81113e-01,9.99999e-01,9.99999e-01,8.14666e-01,9.63503e-01,9.95131e-01
9.108779334e-01,6.97150e-01,9.99999e-01,9.99999e-01,7.26701e-01,9.64211e-01,9.94941e-01
9.154323231e-01,6.66940e-01,9.99999e-01,9.99999e-01,6.94100e-01,9.64905e-01,9.95816e-01
9.200094847e-01,7.24923e-01,9.99999e-01,9.99999e-01,7.52521e-01,9.65586e-01,9.97656e-01
9.246095321e-01,6.32644e-01,9.99999e-01,9.99999e-01,6.56510e-01,9.66255e-01,9.97300e-01
9.292325798e-01,8.16302e-02,9.99999e-01,9.99999e-01,8.53184e-02,9.66910e-01,9.89513e-01
9.338787427e-01,3.44106e-02,9.99999e-01,9.99999e-01,3.71486e-02,9.67553e-01,9.57357e-01
9.385481364e-01,2.39551e-01,9.99999e-01,9.99999e-01,2.60585e-01,9.68183e-01,9.49490e-01
9.432408771e-01,1.57830e-01,9.99999e-01,9.99999e-01,1.70362e-01,9.68802e-01,9.56270e-01
9.479570815e-01,7.58792e-02,9.99999e-01,9.99999e-01,8.11745e-02,9.69409e-01,9.64262e-01
9.526968669e-01,1.33266e-01,9.99999e-01,9.99999e-01,1.40471e-01,9.70004e-01,9.78047e-01
9.574603512e-01,1.46176e-01,9.99999e-01,9.99999e-01,1.52314e-01,9.70587e-01,9.88788e-01
9.622476530e-01,2.00034e-01,9.99999e-01,9.99999e-01,2.07586e-01,9.71160e-01,9.92233e-01
9.670588912e-01,3.84566e-01,9.99999e-01,9.99999e-01,3.97872e-01,9.71721e-01,9.94682e-01
9.718941857e-01,5.29156e-01,9.99999e-01,9.99999e-01,5.46386e-01,9.72272e-01,9.96082e-01
9.767536566e-01,5.86421e-01,9.99999e-01,9.99999e-01,6.04620e-01,9.72812e-01,9.97004e-01
9.816374249e-01,6.67193e-01,9.99999e-01,9.99999e-01,6.86178e-01,9.73342e-01,9.98962e-01
9.865456120e-01,7.68409e-01,9.99999e-01,9.99999e-01,7.89202e-01,9.73862e-01,9.99783e-01
9.914783401e-01,8.41147e-01,9.99999e-01,9.99999e-01,8.63322e-01,9.74371e-01,9.99939e-01
9.964357318e-01,8.99815e-01,9.99999e-01,9.99999e-01,9.23041e-01,9.74871e-01,9.99964e-01
1.001417910e+00,9.29553e-01,9.99999e-01,9.99999e-01,9.53085e-01,9.75361e-01,9.99946e-01
1.006425000e+00,9.49393e-01,9.99999e-01,9.99999e-01,9.72969e-01,9.75842e-01,9.99923e-01
1.011457125e+00,9.59781e-01,9.99999e-01,9.99999e-01,9.83135e-01,9.76313e-01,9.99928e-01
1.016514411e+00,9.65515e-01,9.99999e-01,9.99999e-01,9.88520e-01,9.76776e-01,9.99949e-01
1.021596983e+00,9.68233e-01,9.99999e-01,9.99999e-01,9.90843e-01,9.77229e-01,9.99949e-01
1.026704968e+00,9.70653e-01,9.99999e-01,9.99999e-01,9.92851e-01,9.77674e-01,9.99965e-01
1.031838492e+00,9.73015e-01,9.99999e-01,9.99999e-01,9.94799e-01,9.78110e-01,9.99990e-01
1.036997685e+00,9.75512e-01,9.99999e-01,9.99999e-01,9.96908e-01,9.78538e-01,9.99998e-01
1.042182673e+00,9.75351e-01,9.99999e-01,9.99999e-01,9.96316e-01,9.78957e-01,9.99998e-01
1.047393587e+00,9.74585e-01,9.99999e-01,9.99999e-01,9.95116e-01,9.79369e-01,9.99998e-01
1.052630555e+00,9.73212e-01,9.99999e-01,9.99999e-01,9.93305e-01,9.79772e-01,9.99997e-01
1.057893707e+00,9.69237e-01,9.99999e-01,9.99999e-01,9.88851e-01,9.80167e-01,9.99995e-01
1.063183176e+00,9.62629e-01,9.99999e-01,9.99999e-01,9.81726e-01,9.80555e-01,9.99989e-01
1.068499092e+00,9.51095e-01,9.99999e-01,9.99999e-01,9.69599e-01,9.80936e-01,9.99978e-01
1.073841587e+00,9.46520e-01,9.99999e-01,9.99999e-01,9.64592e-01,9.81309e-01,9.99954e-01
1.079210795e+00,9.37170e-01,9.99999e-01,9.99999e-01,9.54782e-01,9.81674e-01,9.99876e-01
1.084606849e+00,9.15455e-01,9.99999e-01,9.99999e-01,9.32479e-01,9.82033e-01,9.99702e-01
1.090029883e+00,8.88366e-01,9.99999e-01,9.99999e-01,9.04851e-01,9.82385e-01,9.99384e-01
1.095480033e+00,7.47904e-01,9.99999e-01,9.99999e-01,7.61894e-01,9.82730e-01,9.98886e-01
1.100957433e+00,4.98504e-01,9.99999e-01,9.99999e-01,5.08130e-01,9.83068e-01,9.97952e-01
1.106462220e+00,1.95177e-01,9.99999e-01,9.99999e-01,1.99162e-01,9.83400e-01,9.96529e-01
1.111994531e+00,3.66829e-02,9.99999e-01,9.99999e-01,3.76355e-02,9.83725e-01,9.90813e-01
1.117554504e+00,6.27500e-03,9.99999e-01,9.99999e-01,6.59278e-03,9.84044e-01,9.67230e-01
1.123142276e+00,3.13596e-02,9.99999e-01,9.99999e-01,3.44772e-02,9.84356e-01,9.24028e-01
1.128757988e+00,7.79103e-02,9.99999e-01,9.99999e-01,8.66968e-02,9.84663e-01,9.12648e-01
1.134401778e+00,3.66300e-02,9.99999e-01,9.99999e-01,4.01949e-02,9.84964e-01,9.25221e-01
1.140073787e+00,1.95510e-01,9.99999e-01,9.99999e-01,2.11149e-01,9.85258e-01,9.39790e-01
1.145774156e+00,5.10055e-02,9.99999e-01,9.99999e-01,5.47804e-02,9.85547e-01,9.44743e-01
1.151503026e+00,3.74223e-02,9.99999e-01,9.99999e-01,3.91814e-02,9.85831e-01,9.68830e-01
1.157260541e+00,4.90251e-02,9.99999e-01,9.99999e-01,5.01886e-02,9.86109e-01,9.90576e-01
1.163046844e+00,1.05068e-01,9.99999e-01,9.99999e-01,1.06805e-01,9.86381e-01,9.97319e-01
1.168862078e+00,1.94146e-01,9.99999e-01,9.99999e-01,1.97046e-01,9.86648e-01,9.98618e-01
1.174706389e+00,3.58840e-01,9.99999e-01,9.99999e-01,3.64266e-01,9.86910e-01,9.98168e-01
1.180579921e+00,5.28739e-01,9.99999e-01,9.99999e-01,5.37098e-01,9.87167e-01,9.97232e-01
1.186482820e+00,6.89722e-01,9.99999e-01,9.99999e-01,7.00498e-01,9.87419e-01,9.97159e-01
1.192415234e+00,7.99822e-01,9.99999e-01,9.99999e-01,8.11535e-01,9.87666e-01,9.97872e-01
1.198377311e+00,8.26976e-01,9.99999e-01,9.99999e-01,8.38783e-01,9.87908e-01,9.97989e-01
1.204369197e+00,8.35977e-01,9.99999e-01,9.99999e-01,8.47546e-01,9.88146e-01,9.98181e-01
1.210391043e+00,8.42351e-01,9.99999e-01,9.99999e-01,8.53199e-01,9.88378e-01,9.98893e-01
1.216442998e+00,8.63106e-01,9.99999e-01,9.99999e-01,8.73644e-01,9.88607e-01,9.99321e-01
1.222525213e+00,8.89451e-01,9.99999e-01,9.99999e-01,8.99876e-01,9.88830e-01,9.99578e-01
1.228637839e+00,9.18954e-01,9.99999e-01,9.99999e-01,9.29309e-01,9.89050e-01,9.99803e-01
