#,Wave/freq,Total,N2,O2,H2O,Rayleigh,CIA
4.000000000e-01,7.86338e-01,9.99999e-01,9.99999e-01,9.99972e-01,7.86360e-01,9.99999e-01
4.020000000e-01,7.90092e-01,9.99999e-01,9.99999e-01,9.99982e-01,7.90105e-01,9.99999e-01
4.040100000e-01,7.93785e-01,9.99999e-01,9.99999e-01,9.99992e-01,7.93791e-01,9.99999e-01
4.060300500e-01,7.97419e-01,9.99999e-01,9.99999e-01,9.99997e-01,7.97420e-01,9.99999e-01
4.080602003e-01,8.00993e-01,9.99999e-01,9.99999e-01,9.99998e-01,8.00993e-01,9.99999e-01
4.101005013e-01,8.04512e-01,9.99999e-01,9.99999e-01,9.99999e-01,8.04512e-01,9.99999e-01
4.121510038e-01,8.07975e-01,9.99999e-01,9.99999e-01,9.99998e-01,8.07976e-01,9.99999e-01
4.142117588e-01,8.11380e-01,9.99999e-01,9.99999e-01,9.99992e-01,8.11386e-01,9.99999e-01
4.162828176e-01,8.14716e-01,9.99999e-01,9.99999e-01,9.99965e-01,8.14743e-01,9.99999e-01
4.183642317e-01,8.18030e-01,9.99999e-01,9.99999e-01,9.99979e-01,8.18047e-01,9.99999e-01
4.204560528e-01,8.21288e-01,9.99999e-01,9.99999e-01,9.99987e-01,8.21298e-01,9.99999e-01
4.225583331e-01,8.24495e-01,9.99999e-01,9.99999e-01,9.99994e-01,8.24498e-01,9.99999e-01
4.246711247e-01,8.27644e-01,9.99999e-01,9.99999e-01,9.99995e-01,8.27647e-01,9.99999e-01
4.267944804e-01,8.30741e-01,9.99999e-01,9.99999e-01,9.99994e-01,8.30745e-01,9.99999e-01
4.289284528e-01,8.33790e-01,9.99999e-01,9.99999e-01,9.99995e-01,8.33794e-01,9.99999e-01
4.310730950e-01,8.36791e-01,9.99999e-01,9.99999e-01,9.99997e-01,8.36793e-01,9.99999e-01
4.332284605e-01,8.39743e-01,9.99999e-01,9.99999e-01,9.99999e-01,8.39743e-01,9.99999e-01
4.353946028e-01,8.42645e-01,9.99999e-01,9.99999e-01,9.99999e-01,8.42645e-01,9.99999e-01
4.375715758e-01,8.45497e-01,9.99999e-01,9.99999e-01,9.99996e-01,8.45500e-01,9.99999e-01
4.397594337e-01,8.48282e-01,9.99999e-01,9.99999e-01,9.99970e-01,8.48307e-01,9.99999e-01
4.419582309e-01,8.50941e-01,9.99999e-01,9.99999e-01,9.99850e-01,8.51068e-01,9.99999e-01
4.441680220e-01,8.53683e-01,9.99999e-01,9.99999e-01,9.99882e-01,8.53783e-01,9.99999e-01
4.463888621e-01,8.56349e-01,9.99999e-01,9.99999e-01,9.99877e-01,8.56453e-01,9.99999e-01
4.486208064e-01,8.59014e-01,9.99999e-01,9.99999e-01,9.99923e-01,8.59079e-01,9.99999e-01
4.508639105e-01,8.61630e-01,9.99999e-01,9.99999e-01,9.99964e-01,8.61660e-01,9.99999e-01
4.531182300e-01,8.64186e-01,9.99999e-01,9.99999e-01,9.99985e-01,8.64198e-01,9.99999e-01
4.553838212e-01,8.66685e-01,9.99999e-01,9.99999e-01,9.99990e-01,8.66693e-01,9.99999e-01
4.576607403e-01,8.69142e-01,9.99999e-01,9.99999e-01,9.99995e-01,8.69146e-01,9.99999e-01
4.599490440e-01,8.71554e-01,9.99999e-01,9.99999e-01,9.99996e-01,8.71557e-01,9.99999e-01
4.622487892e-01,8.73926e-01,9.99999e-01,9.99999e-01,9.99998e-01,8.73927e-01,9.99999e-01
4.645600332e-01,8.76254e-01,9.99999e-01,9.99999e-01,9.99997e-01,8.76256e-01,9.99999e-01
4.668828333e-01,8.78514e-01,9.99999e-01,9.99999e-01,9.99963e-01,8.78545e-01,9.99999e-01
4.692172475e-01,8.80728e-01,9.99999e-01,9.99999e-01,9.99923e-01,8.80795e-01,9.99999e-01
4.715633337e-01,8.82962e-01,9.99999e-01,9.99999e-01,9.99949e-01,8.83006e-01,9.99999e-01
4.739211504e-01,8.85137e-01,9.99999e-01,9.99999e-01,9.99951e-01,8.85179e-01,9.99999e-01
4.762907561e-01,8.87292e-01,9.99999e-01,9.99999e-01,9.99974e-01,8.87314e-01,9.99999e-01
4.786722099e-01,8.89403e-01,9.99999e-01,9.99999e-01,9.99989e-01,8.89412e-01,9.99999e-01
4.810655710e-01,8.91471e-01,9.99999e-01,9.99999e-01,9.99996e-01,8.91473e-01,9.99999e-01
4.834708988e-01,8.93473e-01,9.99999e-01,9.99999e-01,9.99970e-01,8.93498e-01,9.99999e-01
4.858882533e-01,8.95440e-01,9.99999e-01,9.99999e-01,9.99945e-01,8.95488e-01,9.99999e-01
4.883176946e-01,8.97402e-01,9.99999e-01,9.99999e-01,9.99954e-01,8.97443e-01,9.99999e-01
4.907592831e-01,8.99326e-01,9.99999e-01,9.99999e-01,9.99958e-01,8.99363e-01,9.99999e-01
4.932130795e-01,9.01223e-01,9.99999e-01,9.99999e-01,9.99970e-01,9.01249e-01,9.99999e-01
4.956791449e-01,9.03088e-01,9.99999e-01,9.99999e-01,9.99984e-01,9.03102e-01,9.99999e-01
4.981575406e-01,9.04853e-01,9.99999e-01,9.99999e-01,9.99922e-01,9.04922e-01,9.99999e-01
5.006483283e-01,9.06529e-01,9.99999e-01,9.99999e-01,9.99801e-01,9.06709e-01,9.99998e-01
5.031515699e-01,9.07540e-01,9.99999e-01,9.99999e-01,9.98992e-01,9.08465e-01,9.99988e-01
5.056673278e-01,9.09694e-01,9.99999e-01,9.99999e-01,9.99467e-01,9.10189e-01,9.99987e-01
5.081956644e-01,9.11263e-01,9.99999e-01,9.99999e-01,9.99328e-01,9.11883e-01,9.99991e-01
5.107366428e-01,9.13130e-01,9.99999e-01,9.99999e-01,9.99545e-01,9.13546e-01,9.99998e-01
5.132903260e-01,9.14941e-01,9.99999e-01,9.99999e-01,9.99740e-01,9.15179e-01,9.99999e-01
5.158567776e-01,9.16682e-01,9.99999e-01,9.99999e-01,9.99889e-01,9.16782e-01,9.99999e-01
5.184360615e-01,9.18317e-01,9.99999e-01,9.99999e-01,9.99955e-01,9.18357e-01,9.99999e-01
5.210282418e-01,9.19888e-01,9.99999e-01,9.99999e-01,9.99983e-01,9.19903e-01,9.99999e-01
5.236333830e-01,9.21361e-01,9.99999e-01,9.99999e-01,9.99933e-01,9.21422e-01,9.99999e-01
5.262515499e-01,9.22874e-01,9.99999e-01,9.99999e-01,9.99958e-01,9.22912e-01,9.99998e-01
5.288828077e-01,9.24341e-01,9.99999e-01,9.99999e-01,9.99961e-01,9.24376e-01,9.99999e-01
5.315272217e-01,9.25782e-01,9.99999e-01,9.99999e-01,9.99966e-01,9.25813e-01,9.99999e-01
5.341848578e-01,9.27203e-01,9.99999e-01,9.99999e-01,9.99977e-01,9.27223e-01,9.99999e-01
5.368557821e-01,9.28537e-01,9.99999e-01,9.99999e-01,9.99923e-01,9.28608e-01,9.99999e-01
5.395400610e-01,9.29710e-01,9.99999e-01,9.99999e-01,9.99724e-01,9.29968e-01,9.99997e-01
5.422377613e-01,9.30964e-01,9.99999e-01,9.99999e-01,9.99642e-01,9.31302e-01,9.99993e-01
5.449489501e-01,9.32297e-01,9.99999e-01,9.99999e-01,9.99668e-01,9.32613e-01,9.99992e-01
5.476736949e-01,9.33621e-01,9.99999e-01,9.99999e-01,9.99705e-01,9.33899e-01,9.99996e-01
5.504120634e-01,9.34961e-01,9.99999e-01,9.99999e-01,9.99786e-01,9.35161e-01,9.99998e-01
5.531641237e-01,9.36299e-01,9.99999e-01,9.99999e-01,9.99892e-01,9.36400e-01,9.99999e-01
5.559299443e-01,9.37568e-01,9.99999e-01,9.99999e-01,9.99947e-01,9.37616e-01,9.99999e-01
5.587095940e-01,9.38780e-01,9.99999e-01,9.99999e-01,9.99967e-01,9.38810e-01,9.99999e-01
5.615031420e-01,9.39948e-01,9.99999e-01,9.99999e-01,9.99963e-01,9.39982e-01,9.99999e-01
5.643106577e-01,9.41093e-01,9.99999e-01,9.99999e-01,9.99958e-01,9.41131e-01,9.99999e-01
5.671322110e-01,9.41789e-01,9.99999e-01,9.99999e-01,9.99504e-01,9.42260e-01,9.99995e-01
5.699678720e-01,9.42853e-01,9.99999e-01,9.99999e-01,9.99467e-01,9.43368e-01,9.99985e-01
5.728177114e-01,9.43923e-01,9.99999e-01,9.99999e-01,9.99448e-01,9.44455e-01,9.99988e-01
5.756818000e-01,9.45036e-01,9.99999e-01,9.99999e-01,9.99492e-01,9.45521e-01,9.99992e-01
5.785602090e-01,9.46148e-01,9.99999e-01,9.99999e-01,9.99557e-01,9.46568e-01,9.99997e-01
5.814530100e-01,9.47174e-01,9.99999e-01,9.99999e-01,9.99556e-01,9.47595e-01,9.99998e-01
5.843602750e-01,9.48101e-01,9.99999e-01,9.99999e-01,9.99472e-01,9.48603e-01,9.99996e-01
5.872820764e-01,9.45250e-01,9.99999e-01,9.99999e-01,9.95458e-01,9.49592e-01,9.99967e-01
5.902184868e-01,9.45235e-01,9.99999e-01,9.99999e-01,9.94481e-01,9.50563e-01,9.99912e-01
5.931695792e-01,9.47729e-01,9.99999e-01,9.99999e-01,9.96103e-01,9.51515e-01,9.99915e-01
5.961354271e-01,9.48334e-01,9.99999e-01,9.99999e-01,9.95725e-01,9.52450e-01,9.99951e-01
5.991161043e-01,9.50379e-01,9.99999e-01,9.99999e-01,9.96880e-01,9.53367e-01,9.99984e-01
6.021116848e-01,9.52574e-01,9.99999e-01,9.99999e-01,9.98227e-01,9.54267e-01,9.99997e-01
6.051222432e-01,9.54293e-01,9.99999e-01,9.99999e-01,9.99102e-01,9.55149e-01,9.99999e-01
6.081478544e-01,9.55646e-01,9.99999e-01,9.99999e-01,9.99612e-01,9.56016e-01,9.99999e-01
6.111885937e-01,9.56709e-01,9.99999e-01,9.99999e-01,9.99835e-01,9.56865e-01,9.99999e-01
6.142445367e-01,9.57629e-01,9.99999e-01,9.99999e-01,9.99926e-01,9.57699e-01,9.99999e-01
6.173157594e-01,9.58478e-01,9.99999e-01,9.99999e-01,9.99959e-01,9.58517e-01,9.99999e-01
6.204023382e-01,9.59287e-01,9.99999e-01,9.99999e-01,9.99965e-01,9.59319e-01,9.99999e-01
6.235043498e-01,9.59963e-01,9.99999e-01,9.99999e-01,9.99850e-01,9.60107e-01,9.99999e-01
6.266218716e-01,9.60111e-01,9.99999e-01,9.99999e-01,9.99205e-01,9.60879e-01,9.99993e-01
6.297549810e-01,9.61346e-01,9.99999e-01,9.99999e-01,9.99708e-01,9.61637e-01,9.99988e-01
6.329037559e-01,9.61817e-01,9.99999e-01,9.99999e-01,9.99423e-01,9.62380e-01,9.99990e-01
6.360682746e-01,9.62633e-01,9.99999e-01,9.99999e-01,9.99509e-01,9.63109e-01,9.99994e-01
6.392486160e-01,9.63210e-01,9.99999e-01,9.99999e-01,9.99364e-01,9.63825e-01,9.99997e-01
6.424448591e-01,9.63705e-01,9.99999e-01,9.99999e-01,9.99152e-01,9.64526e-01,9.99995e-01
6.456570834e-01,9.61397e-01,9.99999e-01,9.99999e-01,9.96066e-01,9.65215e-01,9.99977e-01
6.488853688e-01,9.63038e-01,9.99999e-01,9.99999e-01,9.97107e-01,9.65890e-01,9.99938e-01
6.521297956e-01,9.63653e-01,9.99999e-01,9.99999e-01,9.97051e-01,9.66552e-01,9.99948e-01
6.553904446e-01,9.64344e-01,9.99999e-01,9.99999e-01,9.97083e-01,9.67202e-01,9.99961e-01
6.586673968e-01,9.65395e-01,9.99999e-01,9.99999e-01,9.97486e-01,9.67839e-01,9.99986e-01
6.619607338e-01,9.67054e-01,9.99999e-01,9.99999e-01,9.98546e-01,9.68464e-01,9.99996e-01
6.652705375e-01,9.68260e-01,9.99999e-01,9.99999e-01,9.99157e-01,9.69077e-01,9.99998e-01
6.685968902e-01,9.69300e-01,9.99999e-01,9.99999e-01,9.99608e-01,9.69679e-01,9.99999e-01
6.719398746e-01,9.70093e-01,9.99999e-01,9.99999e-01,9.99818e-01,9.70269e-01,9.99999e-01
6.752995740e-01,9.70752e-01,9.99999e-01,9.99999e-01,9.99901e-01,9.70847e-01,9.99999e-01
6.786760719e-01,9.71278e-01,9.99999e-01,9.99999e-01,9.99858e-01,9.71415e-01,9.99999e-01
6.820694522e-01,9.71735e-01,9.99999e-01,9.99999e-01,9.99757e-01,9.71972e-01,9.99998e-01
6.854797995e-01,9.72211e-01,9.99999e-01,9.99999e-01,9.99687e-01,9.72517e-01,9.99996e-01
6.889071985e-01,9.72315e-01,9.99999e-01,9.99999e-01,9.99247e-01,9.73053e-01,9.99992e-01
6.923517345e-01,9.61573e-01,9.99999e-01,9.99999e-01,9.87726e-01,9.73578e-01,9.99940e-01
6.958134932e-01,9.67687e-01,9.99999e-01,9.99999e-01,9.93555e-01,9.74093e-01,9.99865e-01
6.992925606e-01,9.68559e-01,9.99999e-01,9.99999e-01,9.93919e-01,9.74598e-01,9.99882e-01
7.027890234e-01,9.67670e-01,9.99999e-01,9.99999e-01,9.92475e-01,9.75094e-01,9.99909e-01
7.063029686e-01,9.69364e-01,9.99999e-01,9.99999e-01,9.93672e-01,9.75580e-01,9.99954e-01
7.098344834e-01,9.70105e-01,9.99999e-01,9.99999e-01,9.93928e-01,9.76056e-01,9.99972e-01
7.133836558e-01,9.68613e-01,9.99999e-01,9.99999e-01,9.91950e-01,9.76523e-01,9.99946e-01
7.169505741e-01,9.14958e-01,9.99999e-01,9.99999e-01,9.36902e-01,9.76982e-01,9.99584e-01
7.205353270e-01,9.45869e-01,9.99999e-01,9.99999e-01,9.68416e-01,9.77431e-01,9.99267e-01
7.241380036e-01,9.38413e-01,9.99999e-01,9.99999e-01,9.60254e-01,9.77872e-01,9.99367e-01
7.277586936e-01,9.42652e-01,9.99999e-01,9.99999e-01,9.64054e-01,9.78304e-01,9.99482e-01
7.313974871e-01,9.41043e-01,9.99999e-01,9.99999e-01,9.61727e-01,9.78728e-01,9.99757e-01
7.350544745e-01,9.58433e-01,9.99999e-01,9.99999e-01,9.78930e-01,9.79144e-01,9.99915e-01
7.387297469e-01,9.64283e-01,9.99999e-01,9.99999e-01,9.84450e-01,9.79552e-01,9.99960e-01
7.424233956e-01,9.72457e-01,9.99999e-01,9.99999e-01,9.92358e-01,9.79952e-01,9.99992e-01
7.461355126e-01,9.75800e-01,9.99999e-01,9.99999e-01,9.95365e-01,9.80344e-01,9.99998e-01
7.498661902e-01,9.78608e-01,9.99999e-01,9.99999e-01,9.97838e-01,9.80728e-01,9.99999e-01
7.536155211e-01,9.80066e-01,9.99999e-01,9.99999e-01,9.98940e-01,9.81105e-01,9.99999e-01
7.573835987e-01,9.80940e-01,9.99999e-01,9.99999e-01,9.99454e-01,9.81475e-01,9.99999e-01
7.611705167e-01,9.81505e-01,9.99999e-01,9.99999e-01,9.99660e-01,9.81837e-01,9.99999e-01
7.649763693e-01,9.81984e-01,9.99999e-01,9.99999e-01,9.99787e-01,9.82193e-01,9.99999e-01
7.688012511e-01,9.82396e-01,9.99999e-01,9.99999e-01,9.99851e-01,9.82542e-01,9.99999e-01
7.726452574e-01,9.82764e-01,9.99999e-01,9.99999e-01,9.99878e-01,9.82883e-01,9.99999e-01
7.765084837e-01,9.83049e-01,9.99999e-01,9.99999e-01,9.99827e-01,9.83219e-01,9.99999e-01
7.803910261e-01,9.82815e-01,9.99999e-01,9.99999e-01,9.99255e-01,9.83547e-01,9.99998e-01
7.842929812e-01,9.81311e-01,9.99999e-01,9.99999e-01,9.97403e-01,9.83870e-01,9.99994e-01
7.882144461e-01,9.78879e-01,9.99999e-01,9.99999e-01,9.94640e-01,9.84186e-01,9.99966e-01
7.921555184e-01,9.81532e-01,9.99999e-01,9.99999e-01,9.97052e-01,9.84496e-01,9.99936e-01
7.961162960e-01,9.79635e-01,9.99999e-01,9.99999e-01,9.94816e-01,9.84800e-01,9.99938e-01
8.000968774e-01,9.79126e-01,9.99999e-01,9.99999e-01,9.94001e-01,9.85097e-01,9.99934e-01
8.040973618e-01,9.79431e-01,9.99999e-01,9.99999e-01,9.94003e-01,9.85390e-01,9.99948e-01
8.081178486e-01,9.72381e-01,9.99999e-01,9.99999e-01,9.86558e-01,9.85676e-01,9.99951e-01
8.121584379e-01,9.31643e-01,9.99999e-01,9.99999e-01,9.45090e-01,9.85957e-01,9.99810e-01
8.162192301e-01,9.21400e-01,9.99999e-01,9.99999e-01,9.34927e-01,9.86233e-01,9.99287e-01
8.203003262e-01,9.53448e-01,9.99999e-01,9.99999e-01,9.67298e-01,9.86503e-01,9.99165e-01
8.244018279e-01,9.40971e-01,9.99999e-01,9.99999e-01,9.54222e-01,9.86767e-01,9.99335e-01
8.285238370e-01,9.47774e-01,9.99999e-01,9.99999e-01,9.60731e-01,9.87027e-01,9.99478e-01
8.326664562e-01,9.47842e-01,9.99999e-01,9.99999e-01,9.60259e-01,9.87282e-01,9.99783e-01
8.368297885e-01,9.59273e-01,9.99999e-01,9.99999e-01,9.71432e-01,9.87531e-01,9.99950e-01
8.410139374e-01,9.70887e-01,9.99999e-01,9.99999e-01,9.82929e-01,9.87776e-01,9.99970e-01
8.452190071e-01,9.79693e-01,9.99999e-01,9.99999e-01,9.91592e-01,9.88016e-01,9.99982e-01
8.494451021e-01,9.83417e-01,9.99999e-01,9.99999e-01,9.95121e-01,9.88251e-01,9.99985e-01
8.536923276e-01,9.85617e-01,9.99999e-01,9.99999e-01,9.97109e-01,9.88482e-01,9.99991e-01
8.579607893e-01,9.86948e-01,9.99999e-01,9.99999e-01,9.98220e-01,9.88708e-01,9.99997e-01
8.622505932e-01,9.87811e-01,9.99999e-01,9.99999e-01,9.98868e-01,9.88930e-01,9.99999e-01
8.665618462e-01,9.88456e-01,9.99999e-01,9.99999e-01,9.99300e-01,9.89147e-01,9.99999e-01
8.708946554e-01,9.88569e-01,9.99999e-01,9.99999e-01,9.99200e-01,9.89361e-01,9.99999e-01
8.752491287e-01,9.88510e-01,9.99999e-01,9.99999e-01,9.98929e-01,9.89570e-01,9.99998e-01
8.796253743e-01,9.88307e-01,9.99999e-01,9.99999e-01,9.98519e-01,9.89775e-01,9.99996e-01
8.840235012e-01,9.88292e-01,9.99999e-01,9.99999e-01,9.98308e-01,9.89976e-01,9.99989e-01
8.884436187e-01,9.84083e-01,9.99999e-01,9.99999e-01,9.93878e-01,9.90173e-01,9.99970e-01
8.928858368e-01,9.27899e-01,9.99999e-01,9.99999e-01,9.37083e-01,9.90366e-01,9.99830e-01
8.973502660e-01,8.81894e-01,9.99999e-01,9.99999e-01,8.91074e-01,9.90555e-01,9.99133e-01
9.018370173e-01,9.32693e-01,9.99999e-01,9.99999e-01,9.42693e-01,9.90741e-01,9.98637e-01
9.063462024e-01,9.39905e-01,9.99999e-01,9.99999e-01,9.49650e-01,9.90923e-01,9.98803e-01
9.108779334e-01,9.13113e-01,9.99999e-01,9.99999e-01,9.22457e-01,9.91101e-01,9.98756e-01
9.154323231e-01,9.03412e-01,9.99999e-01,9.99999e-01,9.12299e-01,9.91276e-01,9.98971e-01
9.200094847e-01,9.22113e-01,9.99999e-01,9.99999e-01,9.30602e-01,9.91448e-01,9.99424e-01
9.246095321e-01,8.86727e-01,9.99999e-01,9.99999e-01,8.94816e-01,9.91616e-01,9.99336e-01
9.292325798e-01,4.72719e-01,9.99999e-01,9.99999e-01,4.77870e-01,9.91781e-01,9.97417e-01
9.338787427e-01,3.78256e-01,9.99999e-01,9.99999e-01,3.85426e-01,9.91943e-01,9.89367e-01
9.385481364e-01,6.66023e-01,9.99999e-01,9.99999e-01,6.79914e-01,9.92101e-01,9.87367e-01
9.432408771e-01,5.77912e-01,9.99999e-01,9.99999e-01,5.88844e-01,9.92257e-01,9.89092e-01
9.479570815e-01,4.75808e-01,9.99999e-01,9.99999e-01,4.83746e-01,9.92409e-01,9.91113e-01
9.526968669e-01,5.68722e-01,9.99999e-01,9.99999e-01,5.76114e-01,9.92558e-01,9.94570e-01
9.574603512e-01,5.92535e-01,9.99999e-01,9.99999e-01,5.98542e-01,9.92705e-01,9.97237e-01
9.622476530e-01,6.51278e-01,9.99999e-01,9.99999e-01,6.57224e-01,9.92848e-01,9.98089e-01
9.670588912e-01,7.78353e-01,9.99999e-01,9.99999e-01,7.84873e-01,9.92989e-01,9.98692e-01
9.718941857e-01,8.52241e-01,9.99999e-01,9.99999e-01,8.58964e-01,9.93127e-01,9.99037e-01
9.767536566e-01,8.74842e-01,9.99999e-01,9.99999e-01,8.81424e-01,9.93262e-01,9.99264e-01
9.816374249e-01,9.04332e-01,9.99999e-01,9.99999e-01,9.10576e-01,9.93395e-01,9.99744e-01
9.865456120e-01,9.36973e-01,9.99999e-01,9.99999e-01,9.43129e-01,9.93525e-01,9.99946e-01
9.914783401e-01,9.58323e-01,9.99999e-01,9.99999e-01,9.64458e-01,9.93652e-01,9.99984e-01
9.964357318e-01,9.74377e-01,9.99999e-01,9.99999e-01,9.80486e-01,9.93777e-01,9.99990e-01
1.001417910e+00,9.82218e-01,9.99999e-01,9.99999e-01,9.88259e-01,9.93900e-01,9.99986e-01
1.006425000e+00,9.87338e-01,9.99999e-01,9.99999e-01,9.93296e-01,9.94020e-01,9.99980e-01
1.011457125e+00,9.89976e-01,9.99999e-01,9.99999e-01,9.95830e-01,9.94138e-01,9.99982e-01
1.016514411e+00,9.91427e-01,9.99999e-01,9.99999e-01,9.97169e-01,9.94253e-01,9.99987e-01
1.021596983e+00,9.92112e-01,9.99999e-01,9.99999e-01,9.97744e-01,9.94366e-01,9.99987e-01
1.026704968e+00,9.92720e-01,9.99999e-01,9.99999e-01,9.98240e-01,9.94477e-01,9.99991e-01
1.031838492e+00,9.93312e-01,9.99999e-01,9.99999e-01,9.98720e-01,9.94586e-01,9.99997e-01
1.036997685e+00,9.93937e-01,9.99999e-01,9.99999e-01,9.99240e-01,9.94693e-01,9.99999e-01
1.042182673e+00,9.93898e-01,9.99999e-01,9.99999e-01,9.99095e-01,9.94797e-01,9.99999e-01
1.047393587e+00,9.93706e-01,9.99999e-01,9.99999e-01,9.98799e-01,9.94900e-01,9.99999e-01
1.052630555e+00,9.93363e-01,9.99999e-01,9.99999e-01,9.98354e-01,9.95000e-01,9.99999e-01
1.057893707e+00,9.92367e-01,9.99999e-01,9.99999e-01,9.97254e-01,9.95099e-01,9.99998e-01
1.063183176e+00,9.90699e-01,9.99999e-01,9.99999e-01,9.95483e-01,9.95195e-01,9.99997e-01
1.068499092e+00,9.87765e-01,9.99999e-01,9.99999e-01,9.92443e-01,9.95290e-01,9.99994e-01
1.073841587e+00,9.86581e-01,9.99999e-01,9.99999e-01,9.91167e-01,9.95383e-01,9.99988e-01
1.079210795e+00,9.84177e-01,9.99999e-01,9.99999e-01,9.88680e-01,9.95474e-01,9.99969e-01
1.084606849e+00,9.78491e-01,9.99999e-01,9.99999e-01,9.82923e-01,9.95563e-01,9.99926e-01
1.090029883e+00,9.71219e-01,9.99999e-01,9.99999e-01,9.75608e-01,9.95650e-01,9.99848e-01
1.095480033e+00,9.30645e-01,9.99999e-01,9.99999e-01,9.34885e-01,9.95736e-01,9.99726e-01
1.100957433e+00,8.39030e-01,9.99999e-01,9.99999e-01,8.42974e-01,9.95820e-01,9.99497e-01
1.106462220e+00,6.46962e-01,9.99999e-01,9.99999e-01,6.50178e-01,9.95902e-01,9.99147e-01
1.111994531e+00,4.03891e-01,9.99999e-01,9.99999e-01,4.06438e-01,9.95983e-01,9.97738e-01
1.117554504e+00,2.32820e-01,9.99999e-01,9.99999e-01,2.35658e-01,9.96062e-01,9.91860e-01
1.123142276e+00,3.44753e-01,9.99999e-01,9.99999e-01,3.52861e-01,9.96140e-01,9.80806e-01
1.128757988e+00,4.93434e-01,9.99999e-01,9.99999e-01,5.06537e-01,9.96216e-01,9.77829e-01
1.134401778e+00,2.55956e-01,9.99999e-01,9.99999e-01,2.61853e-01,9.96291e-01,9.81116e-01
1.140073787e+00,6.50564e-01,9.99999e-01,9.99999e-01,6.62959e-01,9.96364e-01,9.84883e-01
1.145774156e+00,4.22005e-01,9.99999e-01,9.99999e-01,4.29461e-01,9.96435e-01,9.86154e-01
1.151503026e+00,3.87788e-01,9.99999e-01,9.99999e-01,3.92182e-01,9.96506e-01,9.92262e-01
1.157260541e+00,4.48107e-01,9.99999e-01,9.99999e-01,4.50692e-01,9.96575e-01,9.97679e-01
1.163046844e+00,5.51333e-01,9.99999e-01,9.99999e-01,5.53554e-01,9.96642e-01,9.99341e-01
1.168862078e+00,6.58773e-01,9.99999e-01,9.99999e-01,6.61172e-01,9.96708e-01,9.99660e-01
1.174706389e+00,7.71749e-01,9.99999e-01,9.99999e-01,7.74595e-01,9.96773e-01,9.99550e-01
1.180579921e+00,8.52498e-01,9.99999e-01,9.99999e-01,8.55783e-01,9.96837e-01,9.99320e-01
1.186482820e+00,9.12217e-01,9.99999e-01,9.99999e-01,9.15692e-01,9.96899e-01,9.99302e-01
1.192415234e+00,9.46521e-01,9.99999e-01,9.99999e-01,9.49902e-01,9.96960e-01,9.99477e-01
1.198377311e+00,9.54313e-01,9.99999e-01,9.99999e-01,9.57636e-01,9.97020e-01,9.99506e-01
1.204369197e+00,9.56643e-01,9.99999e-01,9.99999e-01,9.59873e-01,9.97079e-01,9.99553e-01
1.210391043e+00,9.58566e-01,9.99999e-01,9.99999e-01,9.61579e-01,9.97137e-01,9.99728e-01
1.216442998e+00,9.64324e-01,9.99999e-01,9.99999e-01,9.67199e-01,9.97193e-01,9.99833e-01
1.222525213e+00,9.71594e-01,9.99999e-01,9.99999e-01,9.74375e-01,9.97248e-01,9.99896e-01
1.228637839e+00,9.79446e-01,9.99999e-01,9.99999e-01,9.82141e-01,9.97303e-01,9.99951e-01
