#,Wave/freq,Total,N2,O2,H2O,Rayleigh,CIA
4.000000000e-01,8.73570e-01,9.99999e-01,9.99999e-01,9.99984e-01,8.73583e-01,9.99999e-01
4.020000000e-01,8.75912e-01,9.99999e-01,9.99999e-01,9.99990e-01,8.75920e-01,9.99999e-01
4.040100000e-01,8.78212e-01,9.99999e-01,9.99999e-01,9.99995e-01,8.78216e-01,9.99999e-01
4.060300500e-01,8.80470e-01,9.99999e-01,9.99999e-01,9.99998e-01,8.80471e-01,9.99999e-01
4.080602003e-01,8.82688e-01,9.99999e-01,9.99999e-01,9.99999e-01,8.82688e-01,9.99999e-01
4.101005013e-01,8.84866e-01,9.99999e-01,9.99999e-01,9.99999e-01,8.84866e-01,9.99999e-01
4.121510038e-01,8.87006e-01,9.99999e-01,9.99999e-01,9.99998e-01,8.87007e-01,9.99999e-01
4.142117588e-01,8.89106e-01,9.99999e-01,9.99999e-01,9.99995e-01,8.89110e-01,9.99999e-01
4.162828176e-01,8.91160e-01,9.99999e-01,9.99999e-01,9.99980e-01,8.91176e-01,9.99999e-01
4.183642317e-01,8.93197e-01,9.99999e-01,9.99999e-01,9.99988e-01,8.93207e-01,9.99999e-01
4.204560528e-01,8.95195e-01,9.99999e-01,9.99999e-01,9.99992e-01,8.95202e-01,9.99999e-01
4.225583331e-01,8.97159e-01,9.99999e-01,9.99999e-01,9.99996e-01,8.97161e-01,9.99999e-01
4.246711247e-01,8.99085e-01,9.99999e-01,9.99999e-01,9.99997e-01,8.99086e-01,9.99999e-01
4.267944804e-01,9.00975e-01,9.99999e-01,9.99999e-01,9.99996e-01,9.00977e-01,9.99999e-01
4.289284528e-01,9.02833e-01,9.99999e-01,9.99999e-01,9.99997e-01,9.02835e-01,9.99999e-01
4.310730950e-01,9.04659e-01,9.99999e-01,9.99999e-01,9.99998e-01,9.04660e-01,9.99999e-01
4.332284605e-01,9.06452e-01,9.99999e-01,9.99999e-01,9.99999e-01,9.06452e-01,9.99999e-01
4.353946028e-01,9.08212e-01,9.99999e-01,9.99999e-01,9.99999e-01,9.08212e-01,9.99999e-01
4.375715758e-01,9.09939e-01,9.99999e-01,9.99999e-01,9.99997e-01,9.09941e-01,9.99999e-01
4.397594337e-01,9.11624e-01,9.99999e-01,9.99999e-01,9.99982e-01,9.11639e-01,9.99999e-01
4.419582309e-01,9.13229e-01,9.99999e-01,9.99999e-01,9.99915e-01,9.13306e-01,9.99999e-01
4.441680220e-01,9.14883e-01,9.99999e-01,9.99999e-01,9.99933e-01,9.14944e-01,9.99999e-01
4.463888621e-01,9.16489e-01,9.99999e-01,9.99999e-01,9.99931e-01,9.16551e-01,9.99999e-01
4.486208064e-01,9.18091e-01,9.99999e-01,9.99999e-01,9.99957e-01,9.18130e-01,9.99999e-01
4.508639105e-01,9.19662e-01,9.99999e-01,9.99999e-01,9.99979e-01,9.19681e-01,9.99999e-01
4.531182300e-01,9.21196e-01,9.99999e-01,9.99999e-01,9.99991e-01,9.21203e-01,9.99999e-01
4.553838212e-01,9.22693e-01,9.99999e-01,9.99999e-01,9.99994e-01,9.22698e-01,9.99999e-01
4.576607403e-01,9.24163e-01,9.99999e-01,9.99999e-01,9.99997e-01,9.24165e-01,9.99999e-01
4.599490440e-01,9.25604e-01,9.99999e-01,9.99999e-01,9.99997e-01,9.25606e-01,9.99999e-01
4.622487892e-01,9.27020e-01,9.99999e-01,9.99999e-01,9.99999e-01,9.27020e-01,9.99999e-01
4.645600332e-01,9.28408e-01,9.99999e-01,9.99999e-01,9.99998e-01,9.28409e-01,9.99999e-01
4.668828333e-01,9.29753e-01,9.99999e-01,9.99999e-01,9.99979e-01,9.29772e-01,9.99999e-01
4.692172475e-01,9.31070e-01,9.99999e-01,9.99999e-01,9.99956e-01,9.31110e-01,9.99999e-01
4.715633337e-01,9.32398e-01,9.99999e-01,9.99999e-01,9.99971e-01,9.32424e-01,9.99999e-01
4.739211504e-01,9.33688e-01,9.99999e-01,9.99999e-01,9.99972e-01,9.33713e-01,9.99999e-01
4.762907561e-01,9.34966e-01,9.99999e-01,9.99999e-01,9.99985e-01,9.34979e-01,9.99999e-01
4.786722099e-01,9.36216e-01,9.99999e-01,9.99999e-01,9.99993e-01,9.36222e-01,9.99999e-01
4.810655710e-01,9.37440e-01,9.99999e-01,9.99999e-01,9.99997e-01,9.37441e-01,9.99999e-01
4.834708988e-01,9.38623e-01,9.99999e-01,9.99999e-01,9.99983e-01,9.38638e-01,9.99999e-01
4.858882533e-01,9.39784e-01,9.99999e-01,9.99999e-01,9.99969e-01,9.39813e-01,9.99999e-01
4.883176946e-01,9.40942e-01,9.99999e-01,9.99999e-01,9.99974e-01,9.40966e-01,9.99999e-01
4.907592831e-01,9.42076e-01,9.99999e-01,9.99999e-01,9.99976e-01,9.42098e-01,9.99999e-01
4.932130795e-01,9.43193e-01,9.99999e-01,9.99999e-01,9.99983e-01,9.43208e-01,9.99999e-01
4.956791449e-01,9.44290e-01,9.99999e-01,9.99999e-01,9.99990e-01,9.44298e-01,9.99999e-01
4.981575406e-01,9.45327e-01,9.99999e-01,9.99999e-01,9.99956e-01,9.45368e-01,9.99999e-01
5.006483283e-01,9.46311e-01,9.99999e-01,9.99999e-01,9.99887e-01,9.46417e-01,9.99998e-01
5.031515699e-01,9.46905e-01,9.99999e-01,9.99999e-01,9.99432e-01,9.47447e-01,9.99993e-01
5.056673278e-01,9.48168e-01,9.99999e-01,9.99999e-01,9.99700e-01,9.48458e-01,9.99992e-01
5.081956644e-01,9.49088e-01,9.99999e-01,9.99999e-01,9.99622e-01,9.49450e-01,9.99995e-01
5.107366428e-01,9.50180e-01,9.99999e-01,9.99999e-01,9.99744e-01,9.50423e-01,9.99998e-01
5.132903260e-01,9.51240e-01,9.99999e-01,9.99999e-01,9.99853e-01,9.51378e-01,9.99999e-01
5.158567776e-01,9.52257e-01,9.99999e-01,9.99999e-01,9.99938e-01,9.52316e-01,9.99999e-01
5.184360615e-01,9.53212e-01,9.99999e-01,9.99999e-01,9.99974e-01,9.53235e-01,9.99999e-01
5.210282418e-01,9.54128e-01,9.99999e-01,9.99999e-01,9.99990e-01,9.54137e-01,9.99999e-01
5.236333830e-01,9.54987e-01,9.99999e-01,9.99999e-01,9.99962e-01,9.55022e-01,9.99999e-01
5.262515499e-01,9.55868e-01,9.99999e-01,9.99999e-01,9.99976e-01,9.55891e-01,9.99999e-01
5.288828077e-01,9.56723e-01,9.99999e-01,9.99999e-01,9.99978e-01,9.56743e-01,9.99999e-01
5.315272217e-01,9.57561e-01,9.99999e-01,9.99999e-01,9.99980e-01,9.57579e-01,9.99999e-01
5.341848578e-01,9.58388e-01,9.99999e-01,9.99999e-01,9.99987e-01,9.58399e-01,9.99999e-01
5.368557821e-01,9.59163e-01,9.99999e-01,9.99999e-01,9.99956e-01,9.59204e-01,9.99999e-01
5.395400610e-01,9.59843e-01,9.99999e-01,9.99999e-01,9.99844e-01,9.59993e-01,9.99998e-01
5.422377613e-01,9.60572e-01,9.99999e-01,9.99999e-01,9.99798e-01,9.60768e-01,9.99995e-01
5.449489501e-01,9.61345e-01,9.99999e-01,9.99999e-01,9.99812e-01,9.61528e-01,9.99995e-01
5.476736949e-01,9.62112e-01,9.99999e-01,9.99999e-01,9.99834e-01,9.62273e-01,9.99997e-01
5.504120634e-01,9.62888e-01,9.99999e-01,9.99999e-01,9.99879e-01,9.63004e-01,9.99998e-01
5.531641237e-01,9.63663e-01,9.99999e-01,9.99999e-01,9.99939e-01,9.63722e-01,9.99999e-01
5.559299443e-01,9.64397e-01,9.99999e-01,9.99999e-01,9.99970e-01,9.64425e-01,9.99999e-01
5.587095940e-01,9.65098e-01,9.99999e-01,9.99999e-01,9.99981e-01,9.65116e-01,9.99999e-01
5.615031420e-01,9.65773e-01,9.99999e-01,9.99999e-01,9.99979e-01,9.65793e-01,9.99999e-01
5.643106577e-01,9.66434e-01,9.99999e-01,9.99999e-01,9.99976e-01,9.66457e-01,9.99999e-01
5.671322110e-01,9.66835e-01,9.99999e-01,9.99999e-01,9.99718e-01,9.67108e-01,9.99997e-01
5.699678720e-01,9.67452e-01,9.99999e-01,9.99999e-01,9.99701e-01,9.67747e-01,9.99991e-01
5.728177114e-01,9.68068e-01,9.99999e-01,9.99999e-01,9.99689e-01,9.68374e-01,9.99993e-01
5.756818000e-01,9.68709e-01,9.99999e-01,9.99999e-01,9.99714e-01,9.68989e-01,9.99995e-01
5.785602090e-01,9.69350e-01,9.99999e-01,9.99999e-01,9.99751e-01,9.69592e-01,9.99998e-01
5.814530100e-01,9.69941e-01,9.99999e-01,9.99999e-01,9.99750e-01,9.70184e-01,9.99998e-01
5.843602750e-01,9.70474e-01,9.99999e-01,9.99999e-01,9.99702e-01,9.70764e-01,9.99997e-01
5.872820764e-01,9.68825e-01,9.99999e-01,9.99999e-01,9.97435e-01,9.71333e-01,9.99981e-01
5.902184868e-01,9.68826e-01,9.99999e-01,9.99999e-01,9.96894e-01,9.71891e-01,9.99950e-01
5.931695792e-01,9.70259e-01,9.99999e-01,9.99999e-01,9.97805e-01,9.72439e-01,9.99952e-01
5.961354271e-01,9.70610e-01,9.99999e-01,9.99999e-01,9.97594e-01,9.72976e-01,9.99972e-01
5.991161043e-01,9.71787e-01,9.99999e-01,9.99999e-01,9.98245e-01,9.73502e-01,9.99991e-01
6.021116848e-01,9.73049e-01,9.99999e-01,9.99999e-01,9.99004e-01,9.74019e-01,9.99998e-01
6.051222432e-01,9.74035e-01,9.99999e-01,9.99999e-01,9.99495e-01,9.74526e-01,9.99999e-01
6.081478544e-01,9.74811e-01,9.99999e-01,9.99999e-01,9.99782e-01,9.75022e-01,9.99999e-01
6.111885937e-01,9.75420e-01,9.99999e-01,9.99999e-01,9.99907e-01,9.75510e-01,9.99999e-01
6.142445367e-01,9.75948e-01,9.99999e-01,9.99999e-01,9.99958e-01,9.75988e-01,9.99999e-01
6.173157594e-01,9.76434e-01,9.99999e-01,9.99999e-01,9.99976e-01,9.76456e-01,9.99999e-01
6.204023382e-01,9.76897e-01,9.99999e-01,9.99999e-01,9.99980e-01,9.76916e-01,9.99999e-01
6.235043498e-01,9.77284e-01,9.99999e-01,9.99999e-01,9.99915e-01,9.77367e-01,9.99999e-01
6.266218716e-01,9.77369e-01,9.99999e-01,9.99999e-01,9.99552e-01,9.77809e-01,9.99996e-01
6.297549810e-01,9.78076e-01,9.99999e-01,9.99999e-01,9.99835e-01,9.78242e-01,9.99993e-01
6.329037559e-01,9.78346e-01,9.99999e-01,9.99999e-01,9.99675e-01,9.78667e-01,9.99994e-01
6.360682746e-01,9.78811e-01,9.99999e-01,9.99999e-01,9.99723e-01,9.79084e-01,9.99996e-01
6.392486160e-01,9.79142e-01,9.99999e-01,9.99999e-01,9.99642e-01,9.79493e-01,9.99998e-01
6.424448591e-01,9.79423e-01,9.99999e-01,9.99999e-01,9.99521e-01,9.79894e-01,9.99997e-01
6.456570834e-01,9.78098e-01,9.99999e-01,9.99999e-01,9.97778e-01,9.80287e-01,9.99987e-01
6.488853688e-01,9.79044e-01,9.99999e-01,9.99999e-01,9.98373e-01,9.80673e-01,9.99965e-01
6.521297956e-01,9.79397e-01,9.99999e-01,9.99999e-01,9.98341e-01,9.81051e-01,9.99971e-01
6.553904446e-01,9.79782e-01,9.99999e-01,9.99999e-01,9.98350e-01,9.81422e-01,9.99978e-01
6.586673968e-01,9.80391e-01,9.99999e-01,9.99999e-01,9.98586e-01,9.81785e-01,9.99992e-01
6.619607338e-01,9.81367e-01,9.99999e-01,9.99999e-01,9.99212e-01,9.82142e-01,9.99997e-01
6.652705375e-01,9.82026e-01,9.99999e-01,9.99999e-01,9.99527e-01,9.82491e-01,9.99998e-01
6.685968902e-01,9.82618e-01,9.99999e-01,9.99999e-01,9.99780e-01,9.82834e-01,9.99999e-01
6.719398746e-01,9.83070e-01,9.99999e-01,9.99999e-01,9.99897e-01,9.83170e-01,9.99999e-01
6.752995740e-01,9.83446e-01,9.99999e-01,9.99999e-01,9.99944e-01,9.83500e-01,9.99999e-01
6.786760719e-01,9.83745e-01,9.99999e-01,9.99999e-01,9.99919e-01,9.83823e-01,9.99999e-01
6.820694522e-01,9.84005e-01,9.99999e-01,9.99999e-01,9.99863e-01,9.84140e-01,9.99998e-01
6.854797995e-01,9.84277e-01,9.99999e-01,9.99999e-01,9.99823e-01,9.84451e-01,9.99997e-01
6.889071985e-01,9.84333e-01,9.99999e-01,9.99999e-01,9.99573e-01,9.84756e-01,9.99995e-01
6.923517345e-01,9.78183e-01,9.99999e-01,9.99999e-01,9.93056e-01,9.85055e-01,9.99966e-01
6.958134932e-01,9.81716e-01,9.99999e-01,9.99999e-01,9.96387e-01,9.85348e-01,9.99925e-01
6.992925606e-01,9.82186e-01,9.99999e-01,9.99999e-01,9.96566e-01,9.85635e-01,9.99933e-01
7.027890234e-01,9.81690e-01,9.99999e-01,9.99999e-01,9.95762e-01,9.85917e-01,9.99948e-01
7.063029686e-01,9.82655e-01,9.99999e-01,9.99999e-01,9.96437e-01,9.86193e-01,9.99974e-01
7.098344834e-01,9.83077e-01,9.99999e-01,9.99999e-01,9.96581e-01,9.86464e-01,9.99984e-01
7.133836558e-01,9.82203e-01,9.99999e-01,9.99999e-01,9.95441e-01,9.86729e-01,9.99969e-01
7.169505741e-01,9.51034e-01,9.99999e-01,9.99999e-01,9.63794e-01,9.86990e-01,9.99766e-01
7.205353270e-01,9.69222e-01,9.99999e-01,9.99999e-01,9.82148e-01,9.87245e-01,9.99587e-01
7.241380036e-01,9.64809e-01,9.99999e-01,9.99999e-01,9.77373e-01,9.87495e-01,9.99643e-01
7.277586936e-01,9.67270e-01,9.99999e-01,9.99999e-01,9.79559e-01,9.87741e-01,9.99708e-01
7.313974871e-01,9.66409e-01,9.99999e-01,9.99999e-01,9.78297e-01,9.87981e-01,9.99863e-01
7.350544745e-01,9.76409e-01,9.99999e-01,9.99999e-01,9.88096e-01,9.88217e-01,9.99952e-01
7.387297469e-01,9.79762e-01,9.99999e-01,9.99999e-01,9.91232e-01,9.88449e-01,9.99977e-01
7.424233956e-01,9.84425e-01,9.99999e-01,9.99999e-01,9.95703e-01,9.88676e-01,9.99995e-01
7.461355126e-01,9.86322e-01,9.99999e-01,9.99999e-01,9.97394e-01,9.88898e-01,9.99998e-01
7.498661902e-01,9.87916e-01,9.99999e-01,9.99999e-01,9.98786e-01,9.89116e-01,9.99999e-01
7.536155211e-01,9.88741e-01,9.99999e-01,9.99999e-01,9.99404e-01,9.89330e-01,9.99999e-01
7.573835987e-01,9.89237e-01,9.99999e-01,9.99999e-01,9.99693e-01,9.89540e-01,9.99999e-01
7.611705167e-01,9.89557e-01,9.99999e-01,9.99999e-01,9.99809e-01,9.89745e-01,9.99999e-01
7.649763693e-01,9.89829e-01,9.99999e-01,9.99999e-01,9.99880e-01,9.89947e-01,9.99999e-01
7.688012511e-01,9.90062e-01,9.99999e-01,9.99999e-01,9.99916e-01,9.90144e-01,9.99999e-01
7.726452574e-01,9.90270e-01,9.99999e-01,9.99999e-01,9.99931e-01,9.90338e-01,9.99999e-01
7.765084837e-01,9.90432e-01,9.99999e-01,9.99999e-01,9.99902e-01,9.90528e-01,9.99999e-01
7.803910261e-01,9.90298e-01,9.99999e-01,9.99999e-01,9.99579e-01,9.90714e-01,9.99999e-01
7.842929812e-01,9.89442e-01,9.99999e-01,9.99999e-01,9.98533e-01,9.90897e-01,9.99996e-01
7.882144461e-01,9.88066e-01,9.99999e-01,9.99999e-01,9.96981e-01,9.91076e-01,9.99981e-01
7.921555184e-01,9.89575e-01,9.99999e-01,9.99999e-01,9.98344e-01,9.91251e-01,9.99963e-01
7.961162960e-01,9.88489e-01,9.99999e-01,9.99999e-01,9.97073e-01,9.91423e-01,9.99965e-01
8.000968774e-01,9.88206e-01,9.99999e-01,9.99999e-01,9.96621e-01,9.91592e-01,9.99963e-01
8.040973618e-01,9.88377e-01,9.99999e-01,9.99999e-01,9.96620e-01,9.91757e-01,9.99970e-01
8.081178486e-01,9.84343e-01,9.99999e-01,9.99999e-01,9.92388e-01,9.91919e-01,9.99972e-01
8.121584379e-01,9.60814e-01,9.99999e-01,9.99999e-01,9.68588e-01,9.92078e-01,9.99892e-01
8.162192301e-01,9.54946e-01,9.99999e-01,9.99999e-01,9.62804e-01,9.92234e-01,9.99598e-01
8.203003262e-01,9.73304e-01,9.99999e-01,9.99999e-01,9.81229e-01,9.92387e-01,9.99530e-01
8.244018279e-01,9.66210e-01,9.99999e-01,9.99999e-01,9.73838e-01,9.92537e-01,9.99626e-01
8.285238370e-01,9.70224e-01,9.99999e-01,9.99999e-01,9.77661e-01,9.92684e-01,9.99706e-01
8.326664562e-01,9.70288e-01,9.99999e-01,9.99999e-01,9.77415e-01,9.92828e-01,9.99878e-01
8.368297885e-01,9.76895e-01,9.99999e-01,9.99999e-01,9.83839e-01,9.92969e-01,9.99971e-01
8.410139374e-01,9.83531e-01,9.99999e-01,9.99999e-01,9.90373e-01,9.93107e-01,9.99983e-01
8.452190071e-01,9.88537e-01,9.99999e-01,9.99999e-01,9.95270e-01,9.93243e-01,9.99989e-01
8.494451021e-01,9.90641e-01,9.99999e-01,9.99999e-01,9.97254e-01,9.93376e-01,9.99991e-01
8.536923276e-01,9.91889e-01,9.99999e-01,9.99999e-01,9.98375e-01,9.93506e-01,9.99994e-01
8.579607893e-01,9.92639e-01,9.99999e-01,9.99999e-01,9.98999e-01,9.93634e-01,9.99998e-01
8.622505932e-01,9.93128e-01,9.99999e-01,9.99999e-01,9.99364e-01,9.93759e-01,9.99999e-01
8.665618462e-01,9.93492e-01,9.99999e-01,9.99999e-01,9.99606e-01,9.93882e-01,9.99999e-01
8.708946554e-01,9.93555e-01,9.99999e-01,9.99999e-01,9.99549e-01,9.94003e-01,9.99999e-01
8.752491287e-01,9.93522e-01,9.99999e-01,9.99999e-01,9.99397e-01,9.94121e-01,9.99998e-01
8.796253743e-01,9.93406e-01,9.99999e-01,9.99999e-01,9.99165e-01,9.94237e-01,9.99997e-01
8.840235012e-01,9.93397e-01,9.99999e-01,9.99999e-01,9.99047e-01,9.94350e-01,9.99993e-01
8.884436187e-01,9.90987e-01,9.99999e-01,9.99999e-01,9.96522e-01,9.94461e-01,9.99983e-01
8.928858368e-01,9.58541e-01,9.99999e-01,9.99999e-01,9.63864e-01,9.94570e-01,9.99904e-01
8.973502660e-01,9.31467e-01,9.99999e-01,9.99999e-01,9.36907e-01,9.94677e-01,9.99512e-01
9.018370173e-01,9.61503e-01,9.99999e-01,9.99999e-01,9.67286e-01,9.94782e-01,9.99233e-01
9.063462024e-01,9.65546e-01,9.99999e-01,9.99999e-01,9.71162e-01,9.94885e-01,9.99326e-01
9.108779334e-01,9.49934e-01,9.99999e-01,9.99999e-01,9.55389e-01,9.94986e-01,9.99300e-01
9.154323231e-01,9.44296e-01,9.99999e-01,9.99999e-01,9.49508e-01,9.95085e-01,9.99421e-01
9.200094847e-01,9.55283e-01,9.99999e-01,9.99999e-01,9.60219e-01,9.95181e-01,9.99675e-01
9.246095321e-01,9.33335e-01,9.99999e-01,9.99999e-01,9.38114e-01,9.95276e-01,9.99626e-01
9.292325798e-01,6.47345e-01,9.99999e-01,9.99999e-01,6.51302e-01,9.95369e-01,9.98546e-01
9.338787427e-01,5.68773e-01,9.99999e-01,9.99999e-01,5.74811e-01,9.95461e-01,9.94006e-01
9.385481364e-01,7.90868e-01,9.99999e-01,9.99999e-01,8.00102e-01,9.95550e-01,9.92875e-01
9.432408771e-01,7.24410e-01,9.99999e-01,9.99999e-01,7.32084e-01,9.95638e-01,9.93850e-01
9.479570815e-01,6.43534e-01,9.99999e-01,9.99999e-01,6.49549e-01,9.95724e-01,9.94992e-01
9.526968669e-01,7.19530e-01,9.99999e-01,9.99999e-01,7.24774e-01,9.95808e-01,9.96942e-01
9.574603512e-01,7.40970e-01,9.99999e-01,9.99999e-01,7.45185e-01,9.95891e-01,9.98445e-01
9.622476530e-01,7.83473e-01,9.99999e-01,9.99999e-01,7.87487e-01,9.95972e-01,9.98924e-01
9.670588912e-01,8.67397e-01,9.99999e-01,9.99999e-01,8.71476e-01,9.96051e-01,9.99264e-01
9.718941857e-01,9.13736e-01,9.99999e-01,9.99999e-01,9.17783e-01,9.96129e-01,9.99458e-01
9.767536566e-01,9.27357e-01,9.99999e-01,9.99999e-01,9.31274e-01,9.96205e-01,9.99585e-01
9.816374249e-01,9.44976e-01,9.99999e-01,9.99999e-01,9.48639e-01,9.96280e-01,9.99856e-01
9.865456120e-01,9.64056e-01,9.99999e-01,9.99999e-01,9.67612e-01,9.96353e-01,9.99969e-01
9.914783401e-01,9.76354e-01,9.99999e-01,9.99999e-01,9.79864e-01,9.96425e-01,9.99991e-01
9.964357318e-01,9.85517e-01,9.99999e-01,9.99999e-01,9.88986e-01,9.96496e-01,9.99994e-01
1.001417910e+00,9.89967e-01,9.99999e-01,9.99999e-01,9.93386e-01,9.96565e-01,9.99992e-01
1.006425000e+00,9.92861e-01,9.99999e-01,9.99999e-01,9.96225e-01,9.96632e-01,9.99988e-01
1.011457125e+00,9.94354e-01,9.99999e-01,9.99999e-01,9.97656e-01,9.96699e-01,9.99989e-01
1.016514411e+00,9.95171e-01,9.99999e-01,9.99999e-01,9.98408e-01,9.96764e-01,9.99992e-01
1.021596983e+00,9.95557e-01,9.99999e-01,9.99999e-01,9.98731e-01,9.96828e-01,9.99992e-01
1.026704968e+00,9.95900e-01,9.99999e-01,9.99999e-01,9.99010e-01,9.96890e-01,9.99994e-01
1.031838492e+00,9.96234e-01,9.99999e-01,9.99999e-01,9.99280e-01,9.96952e-01,9.99998e-01
1.036997685e+00,9.96586e-01,9.99999e-01,9.99999e-01,9.99572e-01,9.97012e-01,9.99999e-01
1.042182673e+00,9.96563e-01,9.99999e-01,9.99999e-01,9.99490e-01,9.97071e-01,9.99999e-01
1.047393587e+00,9.96455e-01,9.99999e-01,9.99999e-01,9.99324e-01,9.97128e-01,9.99999e-01
1.052630555e+00,9.96261e-01,9.99999e-01,9.99999e-01,9.99073e-01,9.97185e-01,9.99999e-01
1.057893707e+00,9.95697e-01,9.99999e-01,9.99999e-01,9.98452e-01,9.97240e-01,9.99998e-01
1.063183176e+00,9.94756e-01,9.99999e-01,9.99999e-01,9.97454e-01,9.97295e-01,9.99998e-01
1.068499092e+00,9.93097e-01,9.99999e-01,9.99999e-01,9.95740e-01,9.97348e-01,9.99996e-01
1.073841587e+00,9.92422e-01,9.99999e-01,9.99999e-01,9.95014e-01,9.97400e-01,9.99993e-01
1.079210795e+00,9.91068e-01,9.99999e-01,9.99999e-01,9.93616e-01,9.97452e-01,9.99982e-01
1.084606849e+00,9.87834e-01,9.99999e-01,9.99999e-01,9.90348e-01,9.97502e-01,9.99958e-01
1.090029883e+00,9.83657e-01,9.99999e-01,9.99999e-01,9.86154e-01,9.97551e-01,9.99914e-01
1.095480033e+00,9.60260e-01,9.99999e-01,9.99999e-01,9.62717e-01,9.97600e-01,9.99845e-01
1.100957433e+00,9.05466e-01,9.99999e-01,9.99999e-01,9.07857e-01,9.97647e-01,9.99716e-01
1.106462220e+00,7.79523e-01,9.99999e-01,9.99999e-01,7.81700e-01,9.97693e-01,9.99520e-01
1.111994531e+00,5.93359e-01,9.99999e-01,9.99999e-01,5.95461e-01,9.97739e-01,9.98727e-01
1.117554504e+00,4.28915e-01,9.99999e-01,9.99999e-01,4.31847e-01,9.97783e-01,9.95413e-01
1.123142276e+00,5.31226e-01,9.99999e-01,9.99999e-01,5.38217e-01,9.97827e-01,9.89159e-01
1.128757988e+00,6.63354e-01,9.99999e-01,9.99999e-01,6.73204e-01,9.97870e-01,9.87469e-01
1.134401778e+00,4.08870e-01,9.99999e-01,9.99999e-01,4.14142e-01,9.97912e-01,9.89335e-01
1.140073787e+00,7.81893e-01,9.99999e-01,9.99999e-01,7.90236e-01,9.97953e-01,9.91469e-01
1.145774156e+00,6.05349e-01,9.99999e-01,9.99999e-01,6.11340e-01,9.97994e-01,9.92189e-01
1.151503026e+00,5.73872e-01,9.99999e-01,9.99999e-01,5.77519e-01,9.98033e-01,9.95640e-01
1.157260541e+00,6.31647e-01,9.99999e-01,9.99999e-01,6.33694e-01,9.98072e-01,9.98694e-01
1.163046844e+00,7.12358e-01,9.99999e-01,9.99999e-01,7.13970e-01,9.98110e-01,9.99629e-01
1.168862078e+00,7.90020e-01,9.99999e-01,9.99999e-01,7.91636e-01,9.98147e-01,9.99808e-01
1.174706389e+00,8.63949e-01,9.99999e-01,9.99999e-01,8.65739e-01,9.98184e-01,9.99746e-01
1.180579921e+00,9.14004e-01,9.99999e-01,9.99999e-01,9.15984e-01,9.98220e-01,9.99617e-01
1.186482820e+00,9.49619e-01,9.99999e-01,9.99999e-01,9.51652e-01,9.98255e-01,9.99607e-01
1.192415234e+00,9.69562e-01,9.99999e-01,9.99999e-01,9.71508e-01,9.98289e-01,9.99705e-01
1.198377311e+00,9.74023e-01,9.99999e-01,9.99999e-01,9.75929e-01,9.98323e-01,9.99722e-01
1.204369197e+00,9.75351e-01,9.99999e-01,9.99999e-01,9.77201e-01,9.98356e-01,9.99748e-01
1.210391043e+00,9.76467e-01,9.99999e-01,9.99999e-01,9.78192e-01,9.98388e-01,9.99846e-01
1.216442998e+00,9.79779e-01,9.99999e-01,9.99999e-01,9.81420e-01,9.98420e-01,9.99905e-01
1.222525213e+00,9.83927e-01,9.99999e-01,9.99999e-01,9.85510e-01,9.98451e-01,9.99941e-01
1.228637839e+00,9.88389e-01,9.99999e-01,9.99999e-01,9.89918e-01,9.98482e-01,9.99972e-01
