#,Wave/freq,Total,N2,O2,H2O,Rayleigh,CIA
4.000000000e-01,3.73641e-01,9.99999e-01,9.99999e-01,9.99888e-01,3.73683e-01,9.99999e-01
4.020000000e-01,3.81001e-01,9.99999e-01,9.99999e-01,9.99930e-01,3.81027e-01,9.99999e-01
4.040100000e-01,3.88347e-01,9.99999e-01,9.99999e-01,9.99970e-01,3.88359e-01,9.99999e-01
4.060300500e-01,3.95680e-01,9.99999e-01,9.99999e-01,9.99992e-01,3.95682e-01,9.99999e-01
4.080602003e-01,4.02994e-01,9.99999e-01,9.99999e-01,9.99997e-01,4.02995e-01,9.99999e-01
4.101005013e-01,4.10295e-01,9.99999e-01,9.99999e-01,9.99999e-01,4.10295e-01,9.99999e-01
4.121510038e-01,4.17577e-01,9.99999e-01,9.99999e-01,9.99995e-01,4.17579e-01,9.99999e-01
4.142117588e-01,4.24831e-01,9.99999e-01,9.99999e-01,9.99969e-01,4.24844e-01,9.99999e-01
4.162828176e-01,4.32030e-01,9.99999e-01,9.99999e-01,9.99862e-01,4.32089e-01,9.99999e-01
4.183642317e-01,4.39275e-01,9.99999e-01,9.99999e-01,9.99917e-01,4.39310e-01,9.99999e-01
4.204560528e-01,4.46484e-01,9.99999e-01,9.99999e-01,9.99949e-01,4.46506e-01,9.99999e-01
4.225583331e-01,4.53666e-01,9.99999e-01,9.99999e-01,9.99980e-01,4.53675e-01,9.99999e-01
4.246711247e-01,4.60806e-01,9.99999e-01,9.99999e-01,9.99984e-01,4.60813e-01,9.99999e-01
4.267944804e-01,4.67909e-01,9.99999e-01,9.99999e-01,9.99977e-01,4.67919e-01,9.99999e-01
4.289284528e-01,4.74983e-01,9.99999e-01,9.99999e-01,9.99982e-01,4.74991e-01,9.99999e-01
4.310730950e-01,4.82024e-01,9.99999e-01,9.99999e-01,9.99992e-01,4.82028e-01,9.99999e-01
4.332284605e-01,4.89025e-01,9.99999e-01,9.99999e-01,9.99997e-01,4.89026e-01,9.99999e-01
4.353946028e-01,4.95985e-01,9.99999e-01,9.99999e-01,9.99998e-01,4.95985e-01,9.99999e-01
4.375715758e-01,5.02896e-01,9.99999e-01,9.99999e-01,9.99985e-01,5.02903e-01,9.99999e-01
4.397594337e-01,5.09716e-01,9.99999e-01,9.99999e-01,9.99878e-01,5.09777e-01,9.99999e-01
4.419582309e-01,5.16290e-01,9.99999e-01,9.99999e-01,9.99386e-01,5.16607e-01,9.99999e-01
4.441680220e-01,5.23140e-01,9.99999e-01,9.99999e-01,9.99520e-01,5.23391e-01,9.99999e-01
4.463888621e-01,5.29863e-01,9.99999e-01,9.99999e-01,9.99501e-01,5.30127e-01,9.99999e-01
4.486208064e-01,5.36648e-01,9.99999e-01,9.99999e-01,9.99690e-01,5.36814e-01,9.99999e-01
4.508639105e-01,5.43373e-01,9.99999e-01,9.99999e-01,9.99854e-01,5.43451e-01,9.99999e-01
4.531182300e-01,5.50006e-01,9.99999e-01,9.99999e-01,9.99942e-01,5.50037e-01,9.99999e-01
4.553838212e-01,5.56548e-01,9.99999e-01,9.99999e-01,9.99960e-01,5.56570e-01,9.99999e-01
4.576607403e-01,5.63039e-01,9.99999e-01,9.99999e-01,9.99981e-01,5.63049e-01,9.99999e-01
4.599490440e-01,5.69467e-01,9.99999e-01,9.99999e-01,9.99986e-01,5.69474e-01,9.99999e-01
4.622487892e-01,5.75841e-01,9.99999e-01,9.99999e-01,9.99997e-01,5.75842e-01,9.99999e-01
4.645600332e-01,5.82149e-01,9.99999e-01,9.99999e-01,9.99990e-01,5.82155e-01,9.99999e-01
4.668828333e-01,5.88323e-01,9.99999e-01,9.99999e-01,9.99853e-01,5.88409e-01,9.99999e-01
4.692172475e-01,5.94420e-01,9.99999e-01,9.99999e-01,9.99687e-01,5.94605e-01,9.99999e-01
4.715633337e-01,6.00620e-01,9.99999e-01,9.99999e-01,9.99795e-01,6.00742e-01,9.99999e-01
4.739211504e-01,6.06701e-01,9.99999e-01,9.99999e-01,9.99804e-01,6.06820e-01,9.99999e-01
4.762907561e-01,6.12775e-01,9.99999e-01,9.99999e-01,9.99898e-01,6.12837e-01,9.99999e-01
4.786722099e-01,6.18767e-01,9.99999e-01,9.99999e-01,9.99958e-01,6.18793e-01,9.99999e-01
4.810655710e-01,6.24680e-01,9.99999e-01,9.99999e-01,9.99987e-01,6.24687e-01,9.99999e-01
4.834708988e-01,6.30445e-01,9.99999e-01,9.99999e-01,9.99880e-01,6.30520e-01,9.99999e-01
4.858882533e-01,6.36150e-01,9.99999e-01,9.99999e-01,9.99778e-01,6.36290e-01,9.99999e-01
4.883176946e-01,6.41879e-01,9.99999e-01,9.99999e-01,9.99814e-01,6.41998e-01,9.99999e-01
4.907592831e-01,6.47534e-01,9.99999e-01,9.99999e-01,9.99832e-01,6.47642e-01,9.99999e-01
4.932130795e-01,6.53146e-01,9.99999e-01,9.99999e-01,9.99880e-01,6.53224e-01,9.99999e-01
4.956791449e-01,6.58700e-01,9.99999e-01,9.99999e-01,9.99936e-01,6.58741e-01,9.99999e-01
4.981575406e-01,6.63987e-01,9.99999e-01,9.99999e-01,9.99685e-01,6.64195e-01,9.99999e-01
5.006483283e-01,6.69037e-01,9.99999e-01,9.99999e-01,9.99185e-01,6.69585e-01,9.99994e-01
5.031515699e-01,6.72102e-01,9.99999e-01,9.99999e-01,9.95880e-01,6.74911e-01,9.99956e-01
5.056673278e-01,6.78659e-01,9.99999e-01,9.99999e-01,9.97823e-01,6.80173e-01,9.99949e-01
5.081956644e-01,6.83467e-01,9.99999e-01,9.99999e-01,9.97254e-01,6.85371e-01,9.99967e-01
5.107366428e-01,6.89220e-01,9.99999e-01,9.99999e-01,9.98145e-01,6.90504e-01,9.99993e-01
5.132903260e-01,6.94836e-01,9.99999e-01,9.99999e-01,9.98939e-01,6.95574e-01,9.99998e-01
5.158567776e-01,7.00266e-01,9.99999e-01,9.99999e-01,9.99551e-01,7.00579e-01,9.99999e-01
5.184360615e-01,7.05395e-01,9.99999e-01,9.99999e-01,9.99820e-01,7.05521e-01,9.99999e-01
5.210282418e-01,7.10351e-01,9.99999e-01,9.99999e-01,9.99932e-01,7.10399e-01,9.99999e-01
5.236333830e-01,7.15019e-01,9.99999e-01,9.99999e-01,9.99730e-01,7.15213e-01,9.99997e-01
5.262515499e-01,7.19841e-01,9.99999e-01,9.99999e-01,9.99831e-01,7.19964e-01,9.99996e-01
5.288828077e-01,7.24538e-01,9.99999e-01,9.99999e-01,9.99845e-01,7.24651e-01,9.99997e-01
5.315272217e-01,7.29177e-01,9.99999e-01,9.99999e-01,9.99863e-01,7.29276e-01,9.99999e-01
5.341848578e-01,7.33773e-01,9.99999e-01,9.99999e-01,9.99910e-01,7.33838e-01,9.99999e-01
5.368557821e-01,7.38106e-01,9.99999e-01,9.99999e-01,9.99686e-01,7.38337e-01,9.99998e-01
5.395400610e-01,7.41929e-01,9.99999e-01,9.99999e-01,9.98870e-01,7.42775e-01,9.99990e-01
5.422377613e-01,7.46040e-01,9.99999e-01,9.99999e-01,9.98539e-01,7.47150e-01,9.99973e-01
5.449489501e-01,7.50424e-01,9.99999e-01,9.99999e-01,9.98641e-01,7.51465e-01,9.99972e-01
5.476736949e-01,7.54799e-01,9.99999e-01,9.99999e-01,9.98796e-01,7.55718e-01,9.99986e-01
5.504120634e-01,7.59244e-01,9.99999e-01,9.99999e-01,9.99126e-01,7.59910e-01,9.99995e-01
5.531641237e-01,7.63707e-01,9.99999e-01,9.99999e-01,9.99560e-01,7.64043e-01,9.99998e-01
5.559299443e-01,7.67952e-01,9.99999e-01,9.99999e-01,9.99787e-01,7.68115e-01,9.99999e-01
5.587095940e-01,7.72026e-01,9.99999e-01,9.99999e-01,9.99866e-01,7.72128e-01,9.99999e-01
5.615031420e-01,7.75967e-01,9.99999e-01,9.99999e-01,9.99851e-01,7.76082e-01,9.99999e-01
5.643106577e-01,7.79846e-01,9.99999e-01,9.99999e-01,9.99831e-01,7.79978e-01,9.99998e-01
5.671322110e-01,7.82205e-01,9.99999e-01,9.99999e-01,9.97962e-01,7.83816e-01,9.99981e-01
5.699678720e-01,7.85844e-01,9.99999e-01,9.99999e-01,9.97830e-01,7.87596e-01,9.99944e-01
5.728177114e-01,7.89496e-01,9.99999e-01,9.99999e-01,9.97741e-01,7.91319e-01,9.99953e-01
5.756818000e-01,7.93316e-01,9.99999e-01,9.99999e-01,9.97926e-01,7.94986e-01,9.99971e-01
5.785602090e-01,7.97147e-01,9.99999e-01,9.99999e-01,9.98192e-01,7.98597e-01,9.99991e-01
5.814530100e-01,8.00694e-01,9.99999e-01,9.99999e-01,9.98184e-01,8.02153e-01,9.99995e-01
5.843602750e-01,8.03902e-01,9.99999e-01,9.99999e-01,9.97837e-01,8.05653e-01,9.99987e-01
5.872820764e-01,7.94070e-01,9.99999e-01,9.99999e-01,9.81552e-01,8.09099e-01,9.99868e-01
5.902184868e-01,7.94030e-01,9.99999e-01,9.99999e-01,9.77625e-01,8.12492e-01,9.99642e-01
5.931695792e-01,8.02643e-01,9.99999e-01,9.99999e-01,9.84171e-01,8.15831e-01,9.99656e-01
5.961354271e-01,8.04740e-01,9.99999e-01,9.99999e-01,9.82640e-01,8.19118e-01,9.99802e-01
5.991161043e-01,8.11863e-01,9.99999e-01,9.99999e-01,9.87303e-01,8.22353e-01,9.99938e-01
6.021116848e-01,8.19568e-01,9.99999e-01,9.99999e-01,9.92776e-01,8.25536e-01,9.99992e-01
6.051222432e-01,8.25634e-01,9.99999e-01,9.99999e-01,9.96338e-01,8.28668e-01,9.99999e-01
6.081478544e-01,8.30436e-01,9.99999e-01,9.99999e-01,9.98419e-01,8.31750e-01,9.99999e-01
6.111885937e-01,8.34224e-01,9.99999e-01,9.99999e-01,9.99330e-01,8.34782e-01,9.99999e-01
6.142445367e-01,8.37515e-01,9.99999e-01,9.99999e-01,9.99700e-01,8.37765e-01,9.99999e-01
6.173157594e-01,8.40561e-01,9.99999e-01,9.99999e-01,9.99834e-01,8.40699e-01,9.99999e-01
6.204023382e-01,8.43468e-01,9.99999e-01,9.99999e-01,9.99860e-01,8.43586e-01,9.99999e-01
6.235043498e-01,8.45904e-01,9.99999e-01,9.99999e-01,9.99385e-01,8.46425e-01,9.99998e-01
6.266218716e-01,8.46440e-01,9.99999e-01,9.99999e-01,9.96752e-01,8.49217e-01,9.99976e-01
6.297549810e-01,8.50909e-01,9.99999e-01,9.99999e-01,9.98807e-01,8.51963e-01,9.99953e-01
6.329037559e-01,8.52619e-01,9.99999e-01,9.99999e-01,9.97644e-01,8.54663e-01,9.99962e-01
6.360682746e-01,8.55581e-01,9.99999e-01,9.99999e-01,9.97993e-01,8.57319e-01,9.99977e-01
6.392486160e-01,8.57686e-01,9.99999e-01,9.99999e-01,9.97400e-01,8.59930e-01,9.99989e-01
6.424448591e-01,8.59487e-01,9.99999e-01,9.99999e-01,9.96524e-01,8.62497e-01,9.99984e-01
6.456570834e-01,8.51080e-01,9.99999e-01,9.99999e-01,9.83971e-01,8.65020e-01,9.99910e-01
6.488853688e-01,8.57087e-01,9.99999e-01,9.99999e-01,9.88241e-01,8.67501e-01,9.99749e-01
6.521297956e-01,8.59345e-01,9.99999e-01,9.99999e-01,9.88023e-01,8.69940e-01,9.99792e-01
6.553904446e-01,8.61788e-01,9.99999e-01,9.99999e-01,9.88058e-01,8.72338e-01,9.99845e-01
6.586673968e-01,8.65702e-01,9.99999e-01,9.99999e-01,9.89769e-01,8.74694e-01,9.99948e-01
6.619607338e-01,8.71802e-01,9.99999e-01,9.99999e-01,9.94071e-01,8.77011e-01,9.99988e-01
6.652705375e-01,8.76262e-01,9.99999e-01,9.99999e-01,9.96565e-01,8.79287e-01,9.99993e-01
6.685968902e-01,8.80115e-01,9.99999e-01,9.99999e-01,9.98402e-01,8.81524e-01,9.99998e-01
6.719398746e-01,8.83069e-01,9.99999e-01,9.99999e-01,9.99259e-01,8.83723e-01,9.99999e-01
6.752995740e-01,8.85528e-01,9.99999e-01,9.99999e-01,9.99598e-01,8.85883e-01,9.99999e-01
6.786760719e-01,8.87491e-01,9.99999e-01,9.99999e-01,9.99420e-01,8.88006e-01,9.99998e-01
6.820694522e-01,8.89205e-01,9.99999e-01,9.99999e-01,9.99008e-01,8.90091e-01,9.99994e-01
6.854797995e-01,8.90991e-01,9.99999e-01,9.99999e-01,9.98721e-01,8.92141e-01,9.99988e-01
6.889071985e-01,8.91368e-01,9.99999e-01,9.99999e-01,9.96910e-01,8.94154e-01,9.99971e-01
6.923517345e-01,8.51846e-01,9.99999e-01,9.99999e-01,9.50810e-01,8.96132e-01,9.99757e-01
6.958134932e-01,8.74372e-01,9.99999e-01,9.99999e-01,9.74128e-01,8.98076e-01,9.99463e-01
6.992925606e-01,8.77369e-01,9.99999e-01,9.99999e-01,9.75341e-01,8.99985e-01,9.99516e-01
7.027890234e-01,8.74145e-01,9.99999e-01,9.99999e-01,9.69626e-01,9.01860e-01,9.99630e-01
7.063029686e-01,8.80385e-01,9.99999e-01,9.99999e-01,9.74376e-01,9.03702e-01,9.99815e-01
7.098344834e-01,8.83134e-01,9.99999e-01,9.99999e-01,9.75393e-01,9.05511e-01,9.99890e-01
7.133836558e-01,8.77582e-01,9.99999e-01,9.99999e-01,9.67466e-01,9.07288e-01,9.99783e-01
7.169505741e-01,6.99779e-01,9.99999e-01,9.99999e-01,7.71113e-01,9.09033e-01,9.98302e-01
7.205353270e-01,7.98636e-01,9.99999e-01,9.99999e-01,8.79533e-01,9.10748e-01,9.97007e-01
7.241380036e-01,7.72773e-01,9.99999e-01,9.99999e-01,8.49133e-01,9.12431e-01,9.97415e-01
7.277586936e-01,7.87071e-01,9.99999e-01,9.99999e-01,8.62871e-01,9.14084e-01,9.97886e-01
7.313974871e-01,7.81210e-01,9.99999e-01,9.99999e-01,8.53967e-01,9.15707e-01,9.99009e-01
7.350544745e-01,8.40974e-01,9.99999e-01,9.99999e-01,9.17105e-01,9.17302e-01,9.99655e-01
7.387297469e-01,8.61869e-01,9.99999e-01,9.99999e-01,9.38117e-01,9.18867e-01,9.99841e-01
7.424233956e-01,8.92014e-01,9.99999e-01,9.99999e-01,9.69183e-01,9.20404e-01,9.99969e-01
7.461355126e-01,9.04581e-01,9.99999e-01,9.99999e-01,9.81204e-01,9.21913e-01,9.99994e-01
7.498661902e-01,9.15271e-01,9.99999e-01,9.99999e-01,9.91203e-01,9.23395e-01,9.99997e-01
7.536155211e-01,9.20850e-01,9.99999e-01,9.99999e-01,9.95676e-01,9.24850e-01,9.99998e-01
7.573835987e-01,9.24215e-01,9.99999e-01,9.99999e-01,9.97772e-01,9.26278e-01,9.99999e-01
7.611705167e-01,9.26396e-01,9.99999e-01,9.99999e-01,9.98615e-01,9.27680e-01,9.99999e-01
7.649763693e-01,9.28250e-01,9.99999e-01,9.99999e-01,9.99131e-01,9.29057e-01,9.99999e-01
7.688012511e-01,9.29846e-01,9.99999e-01,9.99999e-01,9.99395e-01,9.30408e-01,9.99999e-01
7.726452574e-01,9.31271e-01,9.99999e-01,9.99999e-01,9.99502e-01,9.31734e-01,9.99999e-01
7.765084837e-01,9.32377e-01,9.99999e-01,9.99999e-01,9.99293e-01,9.33037e-01,9.99998e-01
7.803910261e-01,9.31463e-01,9.99999e-01,9.99999e-01,9.96950e-01,9.34315e-01,9.99996e-01
7.842929812e-01,9.25631e-01,9.99999e-01,9.99999e-01,9.89395e-01,9.35570e-01,9.99979e-01
7.882144461e-01,9.16307e-01,9.99999e-01,9.99999e-01,9.78254e-01,9.36801e-01,9.99865e-01
7.921555184e-01,9.26534e-01,9.99999e-01,9.99999e-01,9.88021e-01,9.38010e-01,9.99739e-01
7.961162960e-01,9.19192e-01,9.99999e-01,9.99999e-01,9.78943e-01,9.39196e-01,9.99750e-01
8.000968774e-01,9.17241e-01,9.99999e-01,9.99999e-01,9.75671e-01,9.40361e-01,9.99734e-01
8.040973618e-01,9.18413e-01,9.99999e-01,9.99999e-01,9.75679e-01,9.41504e-01,9.99789e-01
8.081178486e-01,8.91780e-01,9.99999e-01,9.99999e-01,9.46245e-01,9.42625e-01,9.99802e-01
8.121584379e-01,7.51060e-01,9.99999e-01,9.99999e-01,7.96462e-01,9.43726e-01,9.99224e-01
8.162192301e-01,7.19722e-01,9.99999e-01,9.99999e-01,7.63990e-01,9.44806e-01,9.97088e-01
8.203003262e-01,8.27672e-01,9.99999e-01,9.99999e-01,8.78032e-01,9.45866e-01,9.96591e-01
8.244018279e-01,7.89596e-01,9.99999e-01,9.99999e-01,8.36136e-01,9.46907e-01,9.97286e-01
8.285238370e-01,8.04376e-01,9.99999e-01,9.99999e-01,8.50374e-01,9.47928e-01,9.97867e-01
8.326664562e-01,8.05190e-01,9.99999e-01,9.99999e-01,8.49273e-01,9.48930e-01,9.99117e-01
8.368297885e-01,8.44200e-01,9.99999e-01,9.99999e-01,8.88892e-01,9.49913e-01,9.99797e-01
8.410139374e-01,8.86360e-01,9.99999e-01,9.99999e-01,9.32259e-01,9.50877e-01,9.99881e-01
8.452190071e-01,9.19523e-01,9.99999e-01,9.99999e-01,9.66132e-01,9.51824e-01,9.99929e-01
8.494451021e-01,9.33832e-01,9.99999e-01,9.99999e-01,9.80196e-01,9.52752e-01,9.99943e-01
8.536923276e-01,9.42418e-01,9.99999e-01,9.99999e-01,9.88241e-01,9.53664e-01,9.99965e-01
8.579607893e-01,9.47624e-01,9.99999e-01,9.99999e-01,9.92743e-01,9.54558e-01,9.99991e-01
8.622505932e-01,9.51024e-01,9.99999e-01,9.99999e-01,9.95384e-01,9.55435e-01,9.99998e-01
8.665618462e-01,9.53564e-01,9.99999e-01,9.99999e-01,9.97143e-01,9.56296e-01,9.99998e-01
8.708946554e-01,9.54009e-01,9.99999e-01,9.99999e-01,9.96729e-01,9.57140e-01,9.99997e-01
8.752491287e-01,9.53775e-01,9.99999e-01,9.99999e-01,9.95626e-01,9.57969e-01,9.99994e-01
8.796253743e-01,9.52968e-01,9.99999e-01,9.99999e-01,9.93949e-01,9.58782e-01,9.99986e-01
8.840235012e-01,9.52910e-01,9.99999e-01,9.99999e-01,9.93091e-01,9.59579e-01,9.99957e-01
8.884436187e-01,9.36459e-01,9.99999e-01,9.99999e-01,9.75227e-01,9.60361e-01,9.99879e-01
8.928858368e-01,7.40940e-01,9.99999e-01,9.99999e-01,7.71439e-01,9.61129e-01,9.99307e-01
8.973502660e-01,6.07801e-01,9.99999e-01,9.99999e-01,6.34132e-01,9.61882e-01,9.96458e-01
9.018370173e-01,7.58677e-01,9.99999e-01,9.99999e-01,7.92545e-01,9.62621e-01,9.94437e-01
9.063462024e-01,7.80200e-01,9.99999e-01,9.99999e-01,8.13863e-01,9.63345e-01,9.95112e-01
9.108779334e-01,6.96044e-01,9.99999e-01,9.99999e-01,7.25679e-01,9.64056e-01,9.94921e-01
9.154323231e-01,6.65792e-01,9.99999e-01,9.99999e-01,6.93025e-01,9.64753e-01,9.95800e-01
9.200094847e-01,7.23972e-01,9.99999e-01,9.99999e-01,7.51657e-01,9.65437e-01,9.97647e-01
9.246095321e-01,6.31298e-01,9.99999e-01,9.99999e-01,6.55219e-01,9.66108e-01,9.97289e-01
9.292325798e-01,8.09322e-02,9.99999e-01,9.99999e-01,8.46048e-02,9.66767e-01,9.89472e-01
9.338787427e-01,3.40346e-02,9.99999e-01,9.99999e-01,3.67544e-02,9.67412e-01,9.57193e-01
9.385481364e-01,2.38395e-01,9.99999e-01,9.99999e-01,2.59417e-01,9.68045e-01,9.49296e-01
9.432408771e-01,1.56719e-01,9.99999e-01,9.99999e-01,1.69217e-01,9.68667e-01,9.56102e-01
9.479570815e-01,7.51427e-02,9.99999e-01,9.99999e-01,8.04092e-02,9.69276e-01,9.64124e-01
9.526968669e-01,1.32261e-01,9.99999e-01,9.99999e-01,1.39443e-01,9.69873e-01,9.77962e-01
9.574603512e-01,1.45139e-01,9.99999e-01,9.99999e-01,1.51259e-01,9.70460e-01,9.88744e-01
9.622476530e-01,1.98881e-01,9.99999e-01,9.99999e-01,2.06422e-01,9.71035e-01,9.92203e-01
9.670588912e-01,3.83191e-01,9.99999e-01,9.99999e-01,3.96508e-01,9.71599e-01,9.94661e-01
9.718941857e-01,5.27788e-01,9.99999e-01,9.99999e-01,5.45050e-01,9.72152e-01,9.96067e-01
9.767536566e-01,5.85129e-01,9.99999e-01,9.99999e-01,6.03368e-01,9.72694e-01,9.96992e-01
9.816374249e-01,6.66106e-01,9.99999e-01,9.99999e-01,6.85144e-01,9.73226e-01,9.98958e-01
9.865456120e-01,7.67601e-01,9.99999e-01,9.99999e-01,7.88466e-01,9.73748e-01,9.99782e-01
9.914783401e-01,8.40561e-01,9.99999e-01,9.99999e-01,8.62820e-01,9.74260e-01,9.99939e-01
9.964357318e-01,8.99435e-01,9.99999e-01,9.99999e-01,9.22754e-01,9.74762e-01,9.99964e-01
1.001417910e+00,9.29277e-01,9.99999e-01,9.99999e-01,9.52907e-01,9.75254e-01,9.99945e-01
1.006425000e+00,9.49186e-01,9.99999e-01,9.99999e-01,9.72863e-01,9.75737e-01,9.99922e-01
1.011457125e+00,9.59617e-01,9.99999e-01,9.99999e-01,9.83071e-01,9.76210e-01,9.99928e-01
1.016514411e+00,9.65371e-01,9.99999e-01,9.99999e-01,9.88474e-01,9.76675e-01,9.99949e-01
1.021596983e+00,9.68098e-01,9.99999e-01,9.99999e-01,9.90806e-01,9.77130e-01,9.99949e-01
1.026704968e+00,9.70528e-01,9.99999e-01,9.99999e-01,9.92822e-01,9.77577e-01,9.99965e-01
1.031838492e+00,9.72900e-01,9.99999e-01,9.99999e-01,9.94778e-01,9.78015e-01,9.99990e-01
1.036997685e+00,9.75406e-01,9.99999e-01,9.99999e-01,9.96896e-01,9.78444e-01,9.99998e-01
1.042182673e+00,9.75244e-01,9.99999e-01,9.99999e-01,9.96300e-01,9.78865e-01,9.99998e-01
1.047393587e+00,9.74476e-01,9.99999e-01,9.99999e-01,9.95096e-01,9.79278e-01,9.99998e-01
1.052630555e+00,9.73096e-01,9.99999e-01,9.99999e-01,9.93277e-01,9.79684e-01,9.99997e-01
1.057893707e+00,9.69104e-01,9.99999e-01,9.99999e-01,9.88803e-01,9.80081e-01,9.99995e-01
1.063183176e+00,9.62469e-01,9.99999e-01,9.99999e-01,9.81648e-01,9.80470e-01,9.99989e-01
1.068499092e+00,9.50888e-01,9.99999e-01,9.99999e-01,9.69470e-01,9.80852e-01,9.99978e-01
1.073841587e+00,9.46289e-01,9.99999e-01,9.99999e-01,9.64437e-01,9.81227e-01,9.99953e-01
1.079210795e+00,9.36907e-01,9.99999e-01,9.99999e-01,9.54592e-01,9.81594e-01,9.99875e-01
1.084606849e+00,9.15096e-01,9.99999e-01,9.99999e-01,9.32190e-01,9.81955e-01,9.99701e-01
1.090029883e+00,8.87882e-01,9.99999e-01,9.99999e-01,9.04432e-01,9.82308e-01,9.99381e-01
1.095480033e+00,7.46942e-01,9.99999e-01,9.99999e-01,7.60976e-01,9.82654e-01,9.98882e-01
1.100957433e+00,4.97003e-01,9.99999e-01,9.99999e-01,5.06642e-01,9.82994e-01,9.97944e-01
1.106462220e+00,1.93877e-01,9.99999e-01,9.99999e-01,1.97853e-01,9.83327e-01,9.96515e-01
1.111994531e+00,3.62282e-02,9.99999e-01,9.99999e-01,3.71730e-02,9.83654e-01,9.90777e-01
1.117554504e+00,6.16371e-03,9.99999e-01,9.99999e-01,6.47717e-03,9.83974e-01,9.67103e-01
1.123142276e+00,3.10251e-02,9.99999e-01,9.99999e-01,3.41225e-02,9.84288e-01,9.23740e-01
1.128757988e+00,7.71547e-02,9.99999e-01,9.99999e-01,8.58928e-02,9.84596e-01,9.12319e-01
1.134401778e+00,3.63813e-02,9.99999e-01,9.99999e-01,3.99368e-02,9.84898e-01,9.24938e-01
1.140073787e+00,1.94223e-01,9.99999e-01,9.99999e-01,2.09824e-01,9.85194e-01,9.39560e-01
1.145774156e+00,5.04804e-02,9.99999e-01,9.99999e-01,5.42321e-02,9.85484e-01,9.44531e-01
1.151503026e+00,3.69774e-02,9.99999e-01,9.99999e-01,3.87228e-02,9.85769e-01,9.68709e-01
1.157260541e+00,4.84568e-02,9.99999e-01,9.99999e-01,4.96117e-02,9.86048e-01,9.90539e-01
1.163046844e+00,1.04195e-01,9.99999e-01,9.99999e-01,1.05925e-01,9.86322e-01,9.97309e-01
1.168862078e+00,1.92953e-01,9.99999e-01,9.99999e-01,1.95847e-01,9.86590e-01,9.98612e-01
1.174706389e+00,3.57428e-01,9.99999e-01,9.99999e-01,3.62856e-01,9.86853e-01,9.98161e-01
1.180579921e+00,5.27431e-01,9.99999e-01,9.99999e-01,5.35805e-01,9.87111e-01,9.97221e-01
1.186482820e+00,6.88682e-01,9.99999e-01,9.99999e-01,6.99489e-01,9.87364e-01,9.97148e-01
1.192415234e+00,7.99087e-01,9.99999e-01,9.99999e-01,8.10842e-01,9.87612e-01,9.97863e-01
1.198377311e+00,8.26300e-01,9.99999e-01,9.99999e-01,8.38149e-01,9.87855e-01,9.97981e-01
1.204369197e+00,8.35336e-01,9.99999e-01,9.99999e-01,8.46947e-01,9.88094e-01,9.98173e-01
1.210391043e+00,8.41734e-01,9.99999e-01,9.99999e-01,8.52621e-01,9.88327e-01,9.98888e-01
1.216442998e+00,8.62580e-01,9.99999e-01,9.99999e-01,8.73159e-01,9.88557e-01,9.99319e-01
1.222525213e+00,8.89015e-01,9.99999e-01,9.99999e-01,8.99481e-01,9.88781e-01,9.99576e-01
1.228637839e+00,9.18627e-01,9.99999e-01,9.99999e-01,9.29025e-01,9.89002e-01,9.99802e-01
