#,Wave/freq,Total,N2,O2,H2O,Rayleigh,CIA
4.000000000e-01,9.12440e-01,9.99999e-01,9.99999e-01,9.99989e-01,9.12449e-01,9.99999e-01
4.020000000e-01,9.14098e-01,9.99999e-01,9.99999e-01,9.99993e-01,9.14104e-01,9.99999e-01
4.040100000e-01,9.15724e-01,9.99999e-01,9.99999e-01,9.99996e-01,9.15727e-01,9.99999e-01
4.060300500e-01,9.17320e-01,9.99999e-01,9.99999e-01,9.99998e-01,9.17321e-01,9.99999e-01
4.080602003e-01,9.18885e-01,9.99999e-01,9.99999e-01,9.99999e-01,9.18886e-01,9.99999e-01
4.101005013e-01,9.20422e-01,9.99999e-01,9.99999e-01,9.99999e-01,9.20422e-01,9.99999e-01
4.121510038e-01,9.21931e-01,9.99999e-01,9.99999e-01,9.99999e-01,9.21931e-01,9.99999e-01
4.142117588e-01,9.23410e-01,9.99999e-01,9.99999e-01,9.99996e-01,9.23412e-01,9.99999e-01
4.162828176e-01,9.24855e-01,9.99999e-01,9.99999e-01,9.99986e-01,9.24867e-01,9.99999e-01
4.183642317e-01,9.26288e-01,9.99999e-01,9.99999e-01,9.99991e-01,9.26295e-01,9.99999e-01
4.204560528e-01,9.27692e-01,9.99999e-01,9.99999e-01,9.99994e-01,9.27697e-01,9.99999e-01
4.225583331e-01,9.29071e-01,9.99999e-01,9.99999e-01,9.99997e-01,9.29073e-01,9.99999e-01
4.246711247e-01,9.30423e-01,9.99999e-01,9.99999e-01,9.99998e-01,9.30424e-01,9.99999e-01
4.267944804e-01,9.31748e-01,9.99999e-01,9.99999e-01,9.99997e-01,9.31750e-01,9.99999e-01
4.289284528e-01,9.33051e-01,9.99999e-01,9.99999e-01,9.99997e-01,9.33052e-01,9.99999e-01
4.310730950e-01,9.34330e-01,9.99999e-01,9.99999e-01,9.99998e-01,9.34330e-01,9.99999e-01
4.332284605e-01,9.35584e-01,9.99999e-01,9.99999e-01,9.99999e-01,9.35585e-01,9.99999e-01
4.353946028e-01,9.36816e-01,9.99999e-01,9.99999e-01,9.99999e-01,9.36816e-01,9.99999e-01
4.375715758e-01,9.38023e-01,9.99999e-01,9.99999e-01,9.99998e-01,9.38024e-01,9.99999e-01
4.397594337e-01,9.39200e-01,9.99999e-01,9.99999e-01,9.99988e-01,9.39211e-01,9.99999e-01
4.419582309e-01,9.40322e-01,9.99999e-01,9.99999e-01,9.99943e-01,9.40375e-01,9.99999e-01
4.441680220e-01,9.41475e-01,9.99999e-01,9.99999e-01,9.99954e-01,9.41517e-01,9.99999e-01
4.463888621e-01,9.42595e-01,9.99999e-01,9.99999e-01,9.99953e-01,9.42639e-01,9.99999e-01
4.486208064e-01,9.43712e-01,9.99999e-01,9.99999e-01,9.99970e-01,9.43739e-01,9.99999e-01
4.508639105e-01,9.44806e-01,9.99999e-01,9.99999e-01,9.99985e-01,9.44819e-01,9.99999e-01
4.531182300e-01,9.45874e-01,9.99999e-01,9.99999e-01,9.99994e-01,9.45879e-01,9.99999e-01
4.553838212e-01,9.46916e-01,9.99999e-01,9.99999e-01,9.99995e-01,9.46919e-01,9.99999e-01
4.576607403e-01,9.47938e-01,9.99999e-01,9.99999e-01,9.99997e-01,9.47940e-01,9.99999e-01
4.599490440e-01,9.48940e-01,9.99999e-01,9.99999e-01,9.99998e-01,9.48941e-01,9.99999e-01
4.622487892e-01,9.49924e-01,9.99999e-01,9.99999e-01,9.99999e-01,9.49924e-01,9.99999e-01
4.645600332e-01,9.50888e-01,9.99999e-01,9.99999e-01,9.99998e-01,9.50889e-01,9.99999e-01
4.668828333e-01,9.51822e-01,9.99999e-01,9.99999e-01,9.99985e-01,9.51835e-01,9.99999e-01
4.692172475e-01,9.52736e-01,9.99999e-01,9.99999e-01,9.99970e-01,9.52764e-01,9.99999e-01
4.715633337e-01,9.53656e-01,9.99999e-01,9.99999e-01,9.99980e-01,9.53675e-01,9.99999e-01
4.739211504e-01,9.54551e-01,9.99999e-01,9.99999e-01,9.99981e-01,9.54568e-01,9.99999e-01
4.762907561e-01,9.55436e-01,9.99999e-01,9.99999e-01,9.99990e-01,9.55446e-01,9.99999e-01
4.786722099e-01,9.56302e-01,9.99999e-01,9.99999e-01,9.99995e-01,9.56306e-01,9.99999e-01
4.810655710e-01,9.57149e-01,9.99999e-01,9.99999e-01,9.99998e-01,9.57150e-01,9.99999e-01
4.834708988e-01,9.57968e-01,9.99999e-01,9.99999e-01,9.99988e-01,9.57979e-01,9.99999e-01
4.858882533e-01,9.58772e-01,9.99999e-01,9.99999e-01,9.99978e-01,9.58791e-01,9.99999e-01
4.883176946e-01,9.59572e-01,9.99999e-01,9.99999e-01,9.99982e-01,9.59589e-01,9.99999e-01
4.907592831e-01,9.60356e-01,9.99999e-01,9.99999e-01,9.99983e-01,9.60371e-01,9.99999e-01
4.932130795e-01,9.61128e-01,9.99999e-01,9.99999e-01,9.99988e-01,9.61138e-01,9.99999e-01
4.956791449e-01,9.61885e-01,9.99999e-01,9.99999e-01,9.99993e-01,9.61891e-01,9.99999e-01
4.981575406e-01,9.62601e-01,9.99999e-01,9.99999e-01,9.99970e-01,9.62629e-01,9.99999e-01
5.006483283e-01,9.63281e-01,9.99999e-01,9.99999e-01,9.99924e-01,9.63354e-01,9.99998e-01
5.031515699e-01,9.63691e-01,9.99999e-01,9.99999e-01,9.99615e-01,9.64065e-01,9.99995e-01
5.056673278e-01,9.64561e-01,9.99999e-01,9.99999e-01,9.99796e-01,9.64762e-01,9.99994e-01
5.081956644e-01,9.65195e-01,9.99999e-01,9.99999e-01,9.99743e-01,9.65446e-01,9.99996e-01
5.107366428e-01,9.65948e-01,9.99999e-01,9.99999e-01,9.99826e-01,9.66116e-01,9.99998e-01
5.132903260e-01,9.66678e-01,9.99999e-01,9.99999e-01,9.99900e-01,9.66774e-01,9.99999e-01
5.158567776e-01,9.67379e-01,9.99999e-01,9.99999e-01,9.99957e-01,9.67420e-01,9.99999e-01
5.184360615e-01,9.68037e-01,9.99999e-01,9.99999e-01,9.99982e-01,9.68053e-01,9.99999e-01
5.210282418e-01,9.68668e-01,9.99999e-01,9.99999e-01,9.99993e-01,9.68674e-01,9.99999e-01
5.236333830e-01,9.69259e-01,9.99999e-01,9.99999e-01,9.99974e-01,9.69283e-01,9.99999e-01
5.262515499e-01,9.69865e-01,9.99999e-01,9.99999e-01,9.99983e-01,9.69881e-01,9.99999e-01
5.288828077e-01,9.70453e-01,9.99999e-01,9.99999e-01,9.99985e-01,9.70467e-01,9.99999e-01
5.315272217e-01,9.71029e-01,9.99999e-01,9.99999e-01,9.99986e-01,9.71041e-01,9.99999e-01
5.341848578e-01,9.71597e-01,9.99999e-01,9.99999e-01,9.99991e-01,9.71605e-01,9.99999e-01
5.368557821e-01,9.72130e-01,9.99999e-01,9.99999e-01,9.99970e-01,9.72158e-01,9.99999e-01
5.395400610e-01,9.72599e-01,9.99999e-01,9.99999e-01,9.99895e-01,9.72701e-01,9.99998e-01
5.422377613e-01,9.73097e-01,9.99999e-01,9.99999e-01,9.99863e-01,9.73232e-01,9.99997e-01
5.449489501e-01,9.73629e-01,9.99999e-01,9.99999e-01,9.99873e-01,9.73754e-01,9.99996e-01
5.476736949e-01,9.74155e-01,9.99999e-01,9.99999e-01,9.99887e-01,9.74266e-01,9.99998e-01
5.504120634e-01,9.74688e-01,9.99999e-01,9.99999e-01,9.99917e-01,9.74768e-01,9.99999e-01
5.531641237e-01,9.75220e-01,9.99999e-01,9.99999e-01,9.99958e-01,9.75260e-01,9.99999e-01
5.559299443e-01,9.75723e-01,9.99999e-01,9.99999e-01,9.99979e-01,9.75743e-01,9.99999e-01
5.587095940e-01,9.76204e-01,9.99999e-01,9.99999e-01,9.99987e-01,9.76216e-01,9.99999e-01
5.615031420e-01,9.76667e-01,9.99999e-01,9.99999e-01,9.99985e-01,9.76680e-01,9.99999e-01
5.643106577e-01,9.77120e-01,9.99999e-01,9.99999e-01,9.99984e-01,9.77135e-01,9.99999e-01
5.671322110e-01,9.77399e-01,9.99999e-01,9.99999e-01,9.99813e-01,9.77582e-01,9.99997e-01
5.699678720e-01,9.77815e-01,9.99999e-01,9.99999e-01,9.99795e-01,9.78020e-01,9.99994e-01
5.728177114e-01,9.78240e-01,9.99999e-01,9.99999e-01,9.99789e-01,9.78449e-01,9.99995e-01
5.756818000e-01,9.78679e-01,9.99999e-01,9.99999e-01,9.99806e-01,9.78870e-01,9.99996e-01
5.785602090e-01,9.79117e-01,9.99999e-01,9.99999e-01,9.99830e-01,9.79283e-01,9.99998e-01
5.814530100e-01,9.79523e-01,9.99999e-01,9.99999e-01,9.99830e-01,9.79688e-01,9.99999e-01
5.843602750e-01,9.79889e-01,9.99999e-01,9.99999e-01,9.99799e-01,9.80086e-01,9.99998e-01
5.872820764e-01,9.78771e-01,9.99999e-01,9.99999e-01,9.98273e-01,9.80475e-01,9.99987e-01
5.902184868e-01,9.78754e-01,9.99999e-01,9.99999e-01,9.97888e-01,9.80857e-01,9.99966e-01
5.931695792e-01,9.79741e-01,9.99999e-01,9.99999e-01,9.98512e-01,9.81232e-01,9.99967e-01
5.961354271e-01,9.79976e-01,9.99999e-01,9.99999e-01,9.98366e-01,9.81599e-01,9.99979e-01
5.991161043e-01,9.80783e-01,9.99999e-01,9.99999e-01,9.98807e-01,9.81959e-01,9.99993e-01
6.021116848e-01,9.81646e-01,9.99999e-01,9.99999e-01,9.99322e-01,9.82312e-01,9.99998e-01
6.051222432e-01,9.82321e-01,9.99999e-01,9.99999e-01,9.99656e-01,9.82658e-01,9.99999e-01
6.081478544e-01,9.82853e-01,9.99999e-01,9.99999e-01,9.99851e-01,9.82998e-01,9.99999e-01
6.111885937e-01,9.83269e-01,9.99999e-01,9.99999e-01,9.99936e-01,9.83331e-01,9.99999e-01
6.142445367e-01,9.83630e-01,9.99999e-01,9.99999e-01,9.99971e-01,9.83658e-01,9.99999e-01
6.173157594e-01,9.83963e-01,9.99999e-01,9.99999e-01,9.99984e-01,9.83978e-01,9.99999e-01
6.204023382e-01,9.84279e-01,9.99999e-01,9.99999e-01,9.99986e-01,9.84292e-01,9.99999e-01
6.235043498e-01,9.84544e-01,9.99999e-01,9.99999e-01,9.99943e-01,9.84600e-01,9.99999e-01
6.266218716e-01,9.84601e-01,9.99999e-01,9.99999e-01,9.99696e-01,9.84901e-01,9.99997e-01
6.297549810e-01,9.85084e-01,9.99999e-01,9.99999e-01,9.99888e-01,9.85197e-01,9.99995e-01
6.329037559e-01,9.85268e-01,9.99999e-01,9.99999e-01,9.99779e-01,9.85488e-01,9.99996e-01
6.360682746e-01,9.85586e-01,9.99999e-01,9.99999e-01,9.99813e-01,9.85772e-01,9.99997e-01
6.392486160e-01,9.85812e-01,9.99999e-01,9.99999e-01,9.99757e-01,9.86051e-01,9.99998e-01
6.424448591e-01,9.86037e-01,9.99999e-01,9.99999e-01,9.99709e-01,9.86325e-01,9.99998e-01
6.456570834e-01,9.85123e-01,9.99999e-01,9.99999e-01,9.98517e-01,9.86593e-01,9.99991e-01
6.488853688e-01,9.85552e-01,9.99999e-01,9.99999e-01,9.98700e-01,9.86856e-01,9.99976e-01
6.521297956e-01,9.85983e-01,9.99999e-01,9.99999e-01,9.98872e-01,9.87114e-01,9.99979e-01
6.553904446e-01,9.86255e-01,9.99999e-01,9.99999e-01,9.98887e-01,9.87367e-01,9.99984e-01
6.586673968e-01,9.86661e-01,9.99999e-01,9.99999e-01,9.99037e-01,9.87615e-01,9.99994e-01
6.619607338e-01,9.87308e-01,9.99999e-01,9.99999e-01,9.99444e-01,9.87858e-01,9.99998e-01
6.652705375e-01,9.87777e-01,9.99999e-01,9.99999e-01,9.99677e-01,9.88096e-01,9.99998e-01
6.685968902e-01,9.88182e-01,9.99999e-01,9.99999e-01,9.99849e-01,9.88330e-01,9.99999e-01
6.719398746e-01,9.88491e-01,9.99999e-01,9.99999e-01,9.99930e-01,9.88559e-01,9.99999e-01
6.752995740e-01,9.88747e-01,9.99999e-01,9.99999e-01,9.99962e-01,9.88784e-01,9.99999e-01
6.786760719e-01,9.88951e-01,9.99999e-01,9.99999e-01,9.99945e-01,9.89004e-01,9.99999e-01
6.820694522e-01,9.89129e-01,9.99999e-01,9.99999e-01,9.99907e-01,9.89220e-01,9.99999e-01
6.854797995e-01,9.89314e-01,9.99999e-01,9.99999e-01,9.99880e-01,9.89432e-01,9.99998e-01
6.889071985e-01,9.89357e-01,9.99999e-01,9.99999e-01,9.99716e-01,9.89640e-01,9.99996e-01
6.923517345e-01,9.85189e-01,9.99999e-01,9.99999e-01,9.95319e-01,9.89843e-01,9.99976e-01
6.958134932e-01,9.87531e-01,9.99999e-01,9.99999e-01,9.97512e-01,9.90043e-01,9.99948e-01
6.992925606e-01,9.87904e-01,9.99999e-01,9.99999e-01,9.97686e-01,9.90239e-01,9.99954e-01
7.027890234e-01,9.87544e-01,9.99999e-01,9.99999e-01,9.97119e-01,9.90431e-01,9.99965e-01
7.063029686e-01,9.88206e-01,9.99999e-01,9.99999e-01,9.97581e-01,9.90619e-01,9.99982e-01
7.098344834e-01,9.88494e-01,9.99999e-01,9.99999e-01,9.97679e-01,9.90803e-01,9.99989e-01
7.133836558e-01,9.87940e-01,9.99999e-01,9.99999e-01,9.96948e-01,9.90984e-01,9.99979e-01
7.169505741e-01,9.66648e-01,9.99999e-01,9.99999e-01,9.75421e-01,9.91161e-01,9.99841e-01
7.205353270e-01,9.78849e-01,9.99999e-01,9.99999e-01,9.87680e-01,9.91335e-01,9.99720e-01
7.241380036e-01,9.76036e-01,9.99999e-01,9.99999e-01,9.84636e-01,9.91505e-01,9.99756e-01
7.277586936e-01,9.77703e-01,9.99999e-01,9.99999e-01,9.86111e-01,9.91672e-01,9.99797e-01
7.313974871e-01,9.77023e-01,9.99999e-01,9.99999e-01,9.85154e-01,9.91836e-01,9.99907e-01
7.350544745e-01,9.83919e-01,9.99999e-01,9.99999e-01,9.91888e-01,9.91997e-01,9.99967e-01
7.387297469e-01,9.86212e-01,9.99999e-01,9.99999e-01,9.94024e-01,9.92154e-01,9.99984e-01
7.424233956e-01,9.89395e-01,9.99999e-01,9.99999e-01,9.97066e-01,9.92309e-01,9.99996e-01
7.461355126e-01,9.90698e-01,9.99999e-01,9.99999e-01,9.98225e-01,9.92460e-01,9.99999e-01
7.498661902e-01,9.91786e-01,9.99999e-01,9.99999e-01,9.99171e-01,9.92608e-01,9.99999e-01
7.536155211e-01,9.92352e-01,9.99999e-01,9.99999e-01,9.99594e-01,9.92754e-01,9.99999e-01
7.573835987e-01,9.92689e-01,9.99999e-01,9.99999e-01,9.99790e-01,9.92896e-01,9.99999e-01
7.611705167e-01,9.92908e-01,9.99999e-01,9.99999e-01,9.99869e-01,9.93036e-01,9.99999e-01
7.649763693e-01,9.93093e-01,9.99999e-01,9.99999e-01,9.99918e-01,9.93173e-01,9.99999e-01
7.688012511e-01,9.93252e-01,9.99999e-01,9.99999e-01,9.99943e-01,9.93308e-01,9.99999e-01
7.726452574e-01,9.93393e-01,9.99999e-01,9.99999e-01,9.99953e-01,9.93439e-01,9.99999e-01
7.765084837e-01,9.93504e-01,9.99999e-01,9.99999e-01,9.99934e-01,9.93569e-01,9.99999e-01
7.803910261e-01,9.93415e-01,9.99999e-01,9.99999e-01,9.99717e-01,9.93695e-01,9.99999e-01
7.842929812e-01,9.92839e-01,9.99999e-01,9.99999e-01,9.99014e-01,9.93819e-01,9.99997e-01
7.882144461e-01,9.91894e-01,9.99999e-01,9.99999e-01,9.97952e-01,9.93941e-01,9.99987e-01
7.921555184e-01,9.92914e-01,9.99999e-01,9.99999e-01,9.98870e-01,9.94060e-01,9.99975e-01
7.961162960e-01,9.92194e-01,9.99999e-01,9.99999e-01,9.98027e-01,9.94177e-01,9.99976e-01
8.000968774e-01,9.91990e-01,9.99999e-01,9.99999e-01,9.97709e-01,9.94292e-01,9.99974e-01
8.040973618e-01,9.92110e-01,9.99999e-01,9.99999e-01,9.97711e-01,9.94404e-01,9.99979e-01
8.081178486e-01,9.89403e-01,9.99999e-01,9.99999e-01,9.94878e-01,9.94515e-01,9.99981e-01
8.121584379e-01,9.73380e-01,9.99999e-01,9.99999e-01,9.78712e-01,9.94623e-01,9.99927e-01
8.162192301e-01,9.69093e-01,9.99999e-01,9.99999e-01,9.74492e-01,9.94728e-01,9.99727e-01
8.203003262e-01,9.81968e-01,9.99999e-01,9.99999e-01,9.87382e-01,9.94832e-01,9.99681e-01
8.244018279e-01,9.76668e-01,9.99999e-01,9.99999e-01,9.81888e-01,9.94934e-01,9.99746e-01
8.285238370e-01,9.79744e-01,9.99999e-01,9.99999e-01,9.84829e-01,9.95034e-01,9.99800e-01
8.326664562e-01,9.79718e-01,9.99999e-01,9.99999e-01,9.84591e-01,9.95132e-01,9.99917e-01
8.368297885e-01,9.84233e-01,9.99999e-01,9.99999e-01,9.88971e-01,9.95228e-01,9.99980e-01
8.410139374e-01,9.88777e-01,9.99999e-01,9.99999e-01,9.93434e-01,9.95322e-01,9.99988e-01
8.452190071e-01,9.92196e-01,9.99999e-01,9.99999e-01,9.96773e-01,9.95414e-01,9.99992e-01
8.494451021e-01,9.93643e-01,9.99999e-01,9.99999e-01,9.98135e-01,9.95504e-01,9.99994e-01
8.536923276e-01,9.94487e-01,9.99999e-01,9.99999e-01,9.98892e-01,9.95593e-01,9.99996e-01
8.579607893e-01,9.95002e-01,9.99999e-01,9.99999e-01,9.99320e-01,9.95680e-01,9.99998e-01
8.622505932e-01,9.95334e-01,9.99999e-01,9.99999e-01,9.99566e-01,9.95765e-01,9.99999e-01
8.665618462e-01,9.95583e-01,9.99999e-01,9.99999e-01,9.99733e-01,9.95848e-01,9.99999e-01
8.708946554e-01,9.95627e-01,9.99999e-01,9.99999e-01,9.99695e-01,9.95930e-01,9.99999e-01
8.752491287e-01,9.95604e-01,9.99999e-01,9.99999e-01,9.99591e-01,9.96010e-01,9.99999e-01
8.796253743e-01,9.95527e-01,9.99999e-01,9.99999e-01,9.99436e-01,9.96089e-01,9.99998e-01
8.840235012e-01,9.95521e-01,9.99999e-01,9.99999e-01,9.99356e-01,9.96166e-01,9.99995e-01
8.884436187e-01,9.93933e-01,9.99999e-01,9.99999e-01,9.97693e-01,9.96242e-01,9.99988e-01
8.928858368e-01,9.71882e-01,9.99999e-01,9.99999e-01,9.75538e-01,9.96316e-01,9.99935e-01
8.973502660e-01,9.52868e-01,9.99999e-01,9.99999e-01,9.56637e-01,9.96388e-01,9.99669e-01
9.018370173e-01,9.73487e-01,9.99999e-01,9.99999e-01,9.77453e-01,9.96459e-01,9.99480e-01
9.063462024e-01,9.76630e-01,9.99999e-01,9.99999e-01,9.80478e-01,9.96529e-01,9.99543e-01
9.108779334e-01,9.65789e-01,9.99999e-01,9.99999e-01,9.69545e-01,9.96598e-01,9.99525e-01
9.154323231e-01,9.61839e-01,9.99999e-01,9.99999e-01,9.65435e-01,9.96665e-01,9.99607e-01
9.200094847e-01,9.69340e-01,9.99999e-01,9.99999e-01,9.72732e-01,9.96730e-01,9.99780e-01
9.246095321e-01,9.54856e-01,9.99999e-01,9.99999e-01,9.58168e-01,9.96795e-01,9.99746e-01
9.292325798e-01,7.43292e-01,9.99999e-01,9.99999e-01,7.46369e-01,9.96858e-01,9.99014e-01
9.338787427e-01,6.77254e-01,9.99999e-01,9.99999e-01,6.82120e-01,9.96920e-01,9.95933e-01
9.385481364e-01,8.50603e-01,9.99999e-01,9.99999e-01,8.57322e-01,9.96981e-01,9.95165e-01
9.432408771e-01,8.01057e-01,9.99999e-01,9.99999e-01,8.06800e-01,9.97040e-01,9.95827e-01
9.479570815e-01,7.36898e-01,9.99999e-01,9.99999e-01,7.41560e-01,9.97099e-01,9.96602e-01
9.526968669e-01,7.95738e-01,9.99999e-01,9.99999e-01,7.99665e-01,9.97156e-01,9.97926e-01
9.574603512e-01,8.14544e-01,9.99999e-01,9.99999e-01,8.17682e-01,9.97212e-01,9.98945e-01
9.622476530e-01,8.46184e-01,9.99999e-01,9.99999e-01,8.49121e-01,9.97267e-01,9.99270e-01
9.670588912e-01,9.07481e-01,9.99999e-01,9.99999e-01,9.10371e-01,9.97321e-01,9.99501e-01
9.718941857e-01,9.40544e-01,9.99999e-01,9.99999e-01,9.43366e-01,9.97374e-01,9.99632e-01
9.767536566e-01,9.50077e-01,9.99999e-01,9.99999e-01,9.52796e-01,9.97425e-01,9.99719e-01
9.816374249e-01,9.62226e-01,9.99999e-01,9.99999e-01,9.64753e-01,9.97476e-01,9.99902e-01
9.865456120e-01,9.75405e-01,9.99999e-01,9.99999e-01,9.77843e-01,9.97526e-01,9.99979e-01
9.914783401e-01,9.83869e-01,9.99999e-01,9.99999e-01,9.86265e-01,9.97575e-01,9.99993e-01
9.964357318e-01,9.90134e-01,9.99999e-01,9.99999e-01,9.92496e-01,9.97623e-01,9.99996e-01
1.001417910e+00,9.93172e-01,9.99999e-01,9.99999e-01,9.95496e-01,9.97670e-01,9.99994e-01
1.006425000e+00,9.95151e-01,9.99999e-01,9.99999e-01,9.97436e-01,9.97715e-01,9.99992e-01
1.011457125e+00,9.96162e-01,9.99999e-01,9.99999e-01,9.98403e-01,9.97761e-01,9.99992e-01
1.016514411e+00,9.96721e-01,9.99999e-01,9.99999e-01,9.98917e-01,9.97805e-01,9.99994e-01
1.021596983e+00,9.96984e-01,9.99999e-01,9.99999e-01,9.99138e-01,9.97848e-01,9.99994e-01
1.026704968e+00,9.97218e-01,9.99999e-01,9.99999e-01,9.99328e-01,9.97890e-01,9.99996e-01
1.031838492e+00,9.97443e-01,9.99999e-01,9.99999e-01,9.99510e-01,9.97932e-01,9.99998e-01
1.036997685e+00,9.97684e-01,9.99999e-01,9.99999e-01,9.99709e-01,9.97973e-01,9.99999e-01
1.042182673e+00,9.97669e-01,9.99999e-01,9.99999e-01,9.99655e-01,9.98013e-01,9.99999e-01
1.047393587e+00,9.97596e-01,9.99999e-01,9.99999e-01,9.99542e-01,9.98052e-01,9.99999e-01
1.052630555e+00,9.97465e-01,9.99999e-01,9.99999e-01,9.99372e-01,9.98090e-01,9.99999e-01
1.057893707e+00,9.97085e-01,9.99999e-01,9.99999e-01,9.98954e-01,9.98128e-01,9.99999e-01
1.063183176e+00,9.96446e-01,9.99999e-01,9.99999e-01,9.98278e-01,9.98165e-01,9.99998e-01
1.068499092e+00,9.95319e-01,9.99999e-01,9.99999e-01,9.97113e-01,9.98201e-01,9.99997e-01
1.073841587e+00,9.94867e-01,9.99999e-01,9.99999e-01,9.96627e-01,9.98237e-01,9.99995e-01
1.079210795e+00,9.93934e-01,9.99999e-01,9.99999e-01,9.95666e-01,9.98271e-01,9.99987e-01
1.084606849e+00,9.91745e-01,9.99999e-01,9.99999e-01,9.93455e-01,9.98306e-01,9.99971e-01
1.090029883e+00,9.88959e-01,9.99999e-01,9.99999e-01,9.90661e-01,9.98339e-01,9.99941e-01
1.095480033e+00,9.73010e-01,9.99999e-01,9.99999e-01,9.74697e-01,9.98372e-01,9.99895e-01
1.100957433e+00,9.35155e-01,9.99999e-01,9.99999e-01,9.36828e-01,9.98404e-01,9.99807e-01
1.106462220e+00,8.44948e-01,9.99999e-01,9.99999e-01,8.46546e-01,9.98435e-01,9.99674e-01
1.111994531e+00,7.00078e-01,9.99999e-01,9.99999e-01,7.01758e-01,9.98466e-01,9.99137e-01
1.117554504e+00,5.59100e-01,9.99999e-01,9.99999e-01,5.61688e-01,9.98496e-01,9.96889e-01
1.123142276e+00,6.42916e-01,9.99999e-01,9.99999e-01,6.48638e-01,9.98526e-01,9.92639e-01
1.128757988e+00,7.54109e-01,9.99999e-01,9.99999e-01,7.61682e-01,9.98555e-01,9.91489e-01
1.134401778e+00,5.16648e-01,9.99999e-01,9.99999e-01,5.21243e-01,9.98584e-01,9.92588e-01
1.140073787e+00,8.45624e-01,9.99999e-01,9.99999e-01,8.51862e-01,9.98612e-01,9.94056e-01
1.145774156e+00,7.07632e-01,9.99999e-01,9.99999e-01,7.12372e-01,9.98639e-01,9.94698e-01
1.151503026e+00,6.81210e-01,9.99999e-01,9.99999e-01,6.84142e-01,9.98666e-01,9.97043e-01
1.157260541e+00,7.30515e-01,9.99999e-01,9.99999e-01,7.32119e-01,9.98692e-01,9.99114e-01
1.163046844e+00,7.93026e-01,9.99999e-01,9.99999e-01,7.94243e-01,9.98718e-01,9.99748e-01
1.168862078e+00,8.51678e-01,9.99999e-01,9.99999e-01,8.52860e-01,9.98743e-01,9.99870e-01
1.174706389e+00,9.05237e-01,9.99999e-01,9.99999e-01,9.06508e-01,9.98768e-01,9.99828e-01
1.180579921e+00,9.40624e-01,9.99999e-01,9.99999e-01,9.42004e-01,9.98792e-01,9.99740e-01
1.186482820e+00,9.65483e-01,9.99999e-01,9.99999e-01,9.66883e-01,9.98816e-01,9.99733e-01
1.192415234e+00,9.79239e-01,9.99999e-01,9.99999e-01,9.80571e-01,9.98840e-01,9.99800e-01
1.198377311e+00,9.82327e-01,9.99999e-01,9.99999e-01,9.83630e-01,9.98862e-01,9.99811e-01
1.204369197e+00,9.83213e-01,9.99999e-01,9.99999e-01,9.84477e-01,9.98885e-01,9.99829e-01
1.210391043e+00,9.83976e-01,9.99999e-01,9.99999e-01,9.85154e-01,9.98907e-01,9.99895e-01
1.216442998e+00,9.86209e-01,9.99999e-01,9.99999e-01,9.87328e-01,9.98928e-01,9.99936e-01
1.222525213e+00,9.89057e-01,9.99999e-01,9.99999e-01,9.90135e-01,9.98950e-01,9.99960e-01
1.228637839e+00,9.92107e-01,9.99999e-01,9.99999e-01,9.93147e-01,9.98970e-01,9.99981e-01
