#,Wave/freq,Total,N2,O2,H2O,Rayleigh,CIA
4.000000000e-01,7.38782e-01,9.99999e-01,9.99999e-01,9.99965e-01,7.38808e-01,9.99999e-01
4.020000000e-01,7.43227e-01,9.99999e-01,9.99999e-01,9.99978e-01,7.43243e-01,9.99999e-01
4.040100000e-01,7.47606e-01,9.99999e-01,9.99999e-01,9.99990e-01,7.47612e-01,9.99999e-01
4.060300500e-01,7.51918e-01,9.99999e-01,9.99999e-01,9.99997e-01,7.51920e-01,9.99999e-01
4.080602003e-01,7.56166e-01,9.99999e-01,9.99999e-01,9.99998e-01,7.56167e-01,9.99999e-01
4.101005013e-01,7.60353e-01,9.99999e-01,9.99999e-01,9.99999e-01,7.60353e-01,9.99999e-01
4.121510038e-01,7.64478e-01,9.99999e-01,9.99999e-01,9.99998e-01,7.64479e-01,9.99999e-01
4.142117588e-01,7.68538e-01,9.99999e-01,9.99999e-01,9.99990e-01,7.68545e-01,9.99999e-01
4.162828176e-01,7.72519e-01,9.99999e-01,9.99999e-01,9.99957e-01,7.72552e-01,9.99999e-01
4.183642317e-01,7.76480e-01,9.99999e-01,9.99999e-01,9.99974e-01,7.76500e-01,9.99999e-01
4.204560528e-01,7.80377e-01,9.99999e-01,9.99999e-01,9.99984e-01,7.80389e-01,9.99999e-01
4.225583331e-01,7.84216e-01,9.99999e-01,9.99999e-01,9.99993e-01,7.84221e-01,9.99999e-01
4.246711247e-01,7.87991e-01,9.99999e-01,9.99999e-01,9.99994e-01,7.87995e-01,9.99999e-01
4.267944804e-01,7.91707e-01,9.99999e-01,9.99999e-01,9.99992e-01,7.91712e-01,9.99999e-01
4.289284528e-01,7.95369e-01,9.99999e-01,9.99999e-01,9.99994e-01,7.95373e-01,9.99999e-01
4.310730950e-01,7.98976e-01,9.99999e-01,9.99999e-01,9.99997e-01,7.98978e-01,9.99999e-01
4.332284605e-01,8.02527e-01,9.99999e-01,9.99999e-01,9.99998e-01,8.02528e-01,9.99999e-01
4.353946028e-01,8.06022e-01,9.99999e-01,9.99999e-01,9.99999e-01,8.06022e-01,9.99999e-01
4.375715758e-01,8.09460e-01,9.99999e-01,9.99999e-01,9.99995e-01,8.09463e-01,9.99999e-01
4.397594337e-01,8.12820e-01,9.99999e-01,9.99999e-01,9.99962e-01,8.12850e-01,9.99999e-01
4.419582309e-01,8.16032e-01,9.99999e-01,9.99999e-01,9.99813e-01,8.16183e-01,9.99999e-01
4.441680220e-01,8.19343e-01,9.99999e-01,9.99999e-01,9.99851e-01,8.19465e-01,9.99999e-01
4.463888621e-01,8.22568e-01,9.99999e-01,9.99999e-01,9.99846e-01,8.22694e-01,9.99999e-01
4.486208064e-01,8.25792e-01,9.99999e-01,9.99999e-01,9.99903e-01,8.25871e-01,9.99999e-01
4.508639105e-01,8.28961e-01,9.99999e-01,9.99999e-01,9.99954e-01,8.28998e-01,9.99999e-01
4.531182300e-01,8.32060e-01,9.99999e-01,9.99999e-01,9.99981e-01,8.32075e-01,9.99999e-01
4.553838212e-01,8.35092e-01,9.99999e-01,9.99999e-01,9.99987e-01,8.35102e-01,9.99999e-01
4.576607403e-01,8.38075e-01,9.99999e-01,9.99999e-01,9.99993e-01,8.38079e-01,9.99999e-01
4.599490440e-01,8.41005e-01,9.99999e-01,9.99999e-01,9.99995e-01,8.41009e-01,9.99999e-01
4.622487892e-01,8.43889e-01,9.99999e-01,9.99999e-01,9.99998e-01,8.43890e-01,9.99999e-01
4.645600332e-01,8.46722e-01,9.99999e-01,9.99999e-01,9.99996e-01,8.46724e-01,9.99999e-01
4.668828333e-01,8.49473e-01,9.99999e-01,9.99999e-01,9.99954e-01,8.49511e-01,9.99999e-01
4.692172475e-01,8.52170e-01,9.99999e-01,9.99999e-01,9.99903e-01,8.52252e-01,9.99999e-01
4.715633337e-01,8.54894e-01,9.99999e-01,9.99999e-01,9.99936e-01,8.54948e-01,9.99999e-01
4.739211504e-01,8.57547e-01,9.99999e-01,9.99999e-01,9.99939e-01,8.57599e-01,9.99999e-01
4.762907561e-01,8.60178e-01,9.99999e-01,9.99999e-01,9.99968e-01,8.60205e-01,9.99999e-01
4.786722099e-01,8.62756e-01,9.99999e-01,9.99999e-01,9.99986e-01,8.62767e-01,9.99999e-01
4.810655710e-01,8.65283e-01,9.99999e-01,9.99999e-01,9.99995e-01,8.65286e-01,9.99999e-01
4.834708988e-01,8.67732e-01,9.99999e-01,9.99999e-01,9.99963e-01,8.67763e-01,9.99999e-01
4.858882533e-01,8.70138e-01,9.99999e-01,9.99999e-01,9.99931e-01,8.70197e-01,9.99999e-01
4.883176946e-01,8.72541e-01,9.99999e-01,9.99999e-01,9.99942e-01,8.72591e-01,9.99999e-01
4.907592831e-01,8.74898e-01,9.99999e-01,9.99999e-01,9.99947e-01,8.74943e-01,9.99999e-01
4.932130795e-01,8.77223e-01,9.99999e-01,9.99999e-01,9.99962e-01,8.77255e-01,9.99999e-01
4.956791449e-01,8.79510e-01,9.99999e-01,9.99999e-01,9.99980e-01,8.79527e-01,9.99999e-01
4.981575406e-01,8.81675e-01,9.99999e-01,9.99999e-01,9.99903e-01,8.81760e-01,9.99999e-01
5.006483283e-01,8.83734e-01,9.99999e-01,9.99999e-01,9.99751e-01,8.83954e-01,9.99997e-01
5.031515699e-01,8.84976e-01,9.99999e-01,9.99999e-01,9.98732e-01,8.86110e-01,9.99986e-01
5.056673278e-01,8.87620e-01,9.99999e-01,9.99999e-01,9.99328e-01,8.88229e-01,9.99984e-01
5.081956644e-01,8.89549e-01,9.99999e-01,9.99999e-01,9.99153e-01,8.90311e-01,9.99989e-01
5.107366428e-01,8.91845e-01,9.99999e-01,9.99999e-01,9.99427e-01,8.92357e-01,9.99997e-01
5.132903260e-01,8.94073e-01,9.99999e-01,9.99999e-01,9.99672e-01,8.94366e-01,9.99999e-01
5.158567776e-01,8.96217e-01,9.99999e-01,9.99999e-01,9.99861e-01,8.96341e-01,9.99999e-01
5.184360615e-01,8.98231e-01,9.99999e-01,9.99999e-01,9.99944e-01,8.98280e-01,9.99999e-01
5.210282418e-01,9.00167e-01,9.99999e-01,9.99999e-01,9.99978e-01,9.00186e-01,9.99999e-01
5.236333830e-01,9.01982e-01,9.99999e-01,9.99999e-01,9.99916e-01,9.02057e-01,9.99998e-01
5.262515499e-01,9.03848e-01,9.99999e-01,9.99999e-01,9.99947e-01,9.03896e-01,9.99998e-01
5.288828077e-01,9.05658e-01,9.99999e-01,9.99999e-01,9.99952e-01,9.05702e-01,9.99998e-01
5.315272217e-01,9.07437e-01,9.99999e-01,9.99999e-01,9.99957e-01,9.07475e-01,9.99999e-01
5.341848578e-01,9.09193e-01,9.99999e-01,9.99999e-01,9.99972e-01,9.09217e-01,9.99999e-01
5.368557821e-01,9.10841e-01,9.99999e-01,9.99999e-01,9.99903e-01,9.10928e-01,9.99999e-01
5.395400610e-01,9.12292e-01,9.99999e-01,9.99999e-01,9.99655e-01,9.12608e-01,9.99996e-01
5.422377613e-01,9.13839e-01,9.99999e-01,9.99999e-01,9.99549e-01,9.14258e-01,9.99991e-01
5.449489501e-01,9.15490e-01,9.99999e-01,9.99999e-01,9.99583e-01,9.15878e-01,9.99991e-01
5.476736949e-01,9.17125e-01,9.99999e-01,9.99999e-01,9.99628e-01,9.17469e-01,9.99995e-01
5.504120634e-01,9.18783e-01,9.99999e-01,9.99999e-01,9.99730e-01,9.19032e-01,9.99998e-01
5.531641237e-01,9.20441e-01,9.99999e-01,9.99999e-01,9.99863e-01,9.20566e-01,9.99999e-01
5.559299443e-01,9.22012e-01,9.99999e-01,9.99999e-01,9.99934e-01,9.22072e-01,9.99999e-01
5.587095940e-01,9.23513e-01,9.99999e-01,9.99999e-01,9.99958e-01,9.23551e-01,9.99999e-01
5.615031420e-01,9.24961e-01,9.99999e-01,9.99999e-01,9.99954e-01,9.25003e-01,9.99999e-01
5.643106577e-01,9.26381e-01,9.99999e-01,9.99999e-01,9.99948e-01,9.26428e-01,9.99999e-01
5.671322110e-01,9.27251e-01,9.99999e-01,9.99999e-01,9.99383e-01,9.27828e-01,9.99993e-01
5.699678720e-01,9.28560e-01,9.99999e-01,9.99999e-01,9.99326e-01,9.29202e-01,9.99982e-01
5.728177114e-01,9.29892e-01,9.99999e-01,9.99999e-01,9.99305e-01,9.30550e-01,9.99985e-01
5.756818000e-01,9.31272e-01,9.99999e-01,9.99999e-01,9.99361e-01,9.31874e-01,9.99990e-01
5.785602090e-01,9.32651e-01,9.99999e-01,9.99999e-01,9.99442e-01,9.33174e-01,9.99996e-01
5.814530100e-01,9.33927e-01,9.99999e-01,9.99999e-01,9.99441e-01,9.34449e-01,9.99998e-01
5.843602750e-01,9.35080e-01,9.99999e-01,9.99999e-01,9.99339e-01,9.35702e-01,9.99995e-01
5.872820764e-01,9.31562e-01,9.99999e-01,9.99999e-01,9.94308e-01,9.36931e-01,9.99959e-01
5.902184868e-01,9.31512e-01,9.99999e-01,9.99999e-01,9.93046e-01,9.38137e-01,9.99889e-01
5.931695792e-01,9.34618e-01,9.99999e-01,9.99999e-01,9.95098e-01,9.39321e-01,9.99892e-01
5.961354271e-01,9.35360e-01,9.99999e-01,9.99999e-01,9.94616e-01,9.40483e-01,9.99934e-01
5.991161043e-01,9.37904e-01,9.99999e-01,9.99999e-01,9.96067e-01,9.41624e-01,9.99980e-01
6.021116848e-01,9.40634e-01,9.99999e-01,9.99999e-01,9.97764e-01,9.42743e-01,9.99997e-01
6.051222432e-01,9.42774e-01,9.99999e-01,9.99999e-01,9.98867e-01,9.43842e-01,9.99999e-01
6.081478544e-01,9.44459e-01,9.99999e-01,9.99999e-01,9.99511e-01,9.44920e-01,9.99999e-01
6.111885937e-01,9.45782e-01,9.99999e-01,9.99999e-01,9.99792e-01,9.45978e-01,9.99999e-01
6.142445367e-01,9.46929e-01,9.99999e-01,9.99999e-01,9.99907e-01,9.47016e-01,9.99999e-01
6.173157594e-01,9.47987e-01,9.99999e-01,9.99999e-01,9.99948e-01,9.48035e-01,9.99999e-01
6.204023382e-01,9.48994e-01,9.99999e-01,9.99999e-01,9.99956e-01,9.49035e-01,9.99999e-01
6.235043498e-01,9.49839e-01,9.99999e-01,9.99999e-01,9.99813e-01,9.50016e-01,9.99999e-01
6.266218716e-01,9.50022e-01,9.99999e-01,9.99999e-01,9.99000e-01,9.50979e-01,9.99992e-01
6.297549810e-01,9.51561e-01,9.99999e-01,9.99999e-01,9.99633e-01,9.51923e-01,9.99985e-01
6.329037559e-01,9.52147e-01,9.99999e-01,9.99999e-01,9.99273e-01,9.52850e-01,9.99988e-01
6.360682746e-01,9.53166e-01,9.99999e-01,9.99999e-01,9.99383e-01,9.53760e-01,9.99992e-01
6.392486160e-01,9.53885e-01,9.99999e-01,9.99999e-01,9.99199e-01,9.54652e-01,9.99996e-01
6.424448591e-01,9.54508e-01,9.99999e-01,9.99999e-01,9.98937e-01,9.55527e-01,9.99994e-01
6.456570834e-01,9.51647e-01,9.99999e-01,9.99999e-01,9.95071e-01,9.56386e-01,9.99972e-01
6.488853688e-01,9.53063e-01,9.99999e-01,9.99999e-01,9.95723e-01,9.57229e-01,9.99922e-01
6.521297956e-01,9.54435e-01,9.99999e-01,9.99999e-01,9.96284e-01,9.58056e-01,9.99934e-01
6.553904446e-01,9.55303e-01,9.99999e-01,9.99999e-01,9.96331e-01,9.58867e-01,9.99951e-01
6.586673968e-01,9.56605e-01,9.99999e-01,9.99999e-01,9.96828e-01,9.59663e-01,9.99983e-01
6.619607338e-01,9.58680e-01,9.99999e-01,9.99999e-01,9.98166e-01,9.60444e-01,9.99996e-01
6.652705375e-01,9.60185e-01,9.99999e-01,9.99999e-01,9.98935e-01,9.61210e-01,9.99997e-01
6.685968902e-01,9.61486e-01,9.99999e-01,9.99999e-01,9.99505e-01,9.61961e-01,9.99999e-01
6.719398746e-01,9.62478e-01,9.99999e-01,9.99999e-01,9.99770e-01,9.62698e-01,9.99999e-01
6.752995740e-01,9.63302e-01,9.99999e-01,9.99999e-01,9.99875e-01,9.63421e-01,9.99999e-01
6.786760719e-01,9.63960e-01,9.99999e-01,9.99999e-01,9.99822e-01,9.64131e-01,9.99999e-01
6.820694522e-01,9.64531e-01,9.99999e-01,9.99999e-01,9.99694e-01,9.64827e-01,9.99997e-01
6.854797995e-01,9.65127e-01,9.99999e-01,9.99999e-01,9.99607e-01,9.65509e-01,9.99996e-01
6.889071985e-01,9.65266e-01,9.99999e-01,9.99999e-01,9.99062e-01,9.66179e-01,9.99991e-01
6.923517345e-01,9.51905e-01,9.99999e-01,9.99999e-01,9.84629e-01,9.66836e-01,9.99925e-01
6.958134932e-01,9.59416e-01,9.99999e-01,9.99999e-01,9.91831e-01,9.67480e-01,9.99831e-01
6.992925606e-01,9.60590e-01,9.99999e-01,9.99999e-01,9.92376e-01,9.68112e-01,9.99851e-01
7.027890234e-01,9.59445e-01,9.99999e-01,9.99999e-01,9.90524e-01,9.68732e-01,9.99886e-01
7.063029686e-01,9.61565e-01,9.99999e-01,9.99999e-01,9.92035e-01,9.69340e-01,9.99943e-01
7.098344834e-01,9.62491e-01,9.99999e-01,9.99999e-01,9.92356e-01,9.69936e-01,9.99966e-01
7.133836558e-01,9.60704e-01,9.99999e-01,9.99999e-01,9.89949e-01,9.70521e-01,9.99933e-01
7.169505741e-01,8.94516e-01,9.99999e-01,9.99999e-01,9.21622e-01,9.71095e-01,9.99477e-01
7.205353270e-01,9.32097e-01,9.99999e-01,9.99999e-01,9.60169e-01,9.71658e-01,9.99077e-01
7.241380036e-01,9.23204e-01,9.99999e-01,9.99999e-01,9.50349e-01,9.72210e-01,9.99203e-01
7.277586936e-01,9.28423e-01,9.99999e-01,9.99999e-01,9.55051e-01,9.72751e-01,9.99348e-01
7.313974871e-01,9.26244e-01,9.99999e-01,9.99999e-01,9.51960e-01,9.73282e-01,9.99694e-01
7.350544745e-01,9.47907e-01,9.99999e-01,9.99999e-01,9.73510e-01,9.73803e-01,9.99893e-01
7.387297469e-01,9.55193e-01,9.99999e-01,9.99999e-01,9.80422e-01,9.74314e-01,9.99950e-01
7.424233956e-01,9.65402e-01,9.99999e-01,9.99999e-01,9.90353e-01,9.74815e-01,9.99990e-01
7.461355126e-01,9.69602e-01,9.99999e-01,9.99999e-01,9.94153e-01,9.75306e-01,9.99997e-01
7.498661902e-01,9.73121e-01,9.99999e-01,9.99999e-01,9.97267e-01,9.75788e-01,9.99998e-01
7.536155211e-01,9.74955e-01,9.99999e-01,9.99999e-01,9.98662e-01,9.76260e-01,9.99999e-01
7.573835987e-01,9.76051e-01,9.99999e-01,9.99999e-01,9.99310e-01,9.76723e-01,9.99999e-01
7.611705167e-01,9.76760e-01,9.99999e-01,9.99999e-01,9.99571e-01,9.77178e-01,9.99999e-01
7.649763693e-01,9.77362e-01,9.99999e-01,9.99999e-01,9.99731e-01,9.77624e-01,9.99999e-01
7.688012511e-01,9.77879e-01,9.99999e-01,9.99999e-01,9.99813e-01,9.78061e-01,9.99999e-01
7.726452574e-01,9.78340e-01,9.99999e-01,9.99999e-01,9.99846e-01,9.78489e-01,9.99999e-01
7.765084837e-01,9.78698e-01,9.99999e-01,9.99999e-01,9.99783e-01,9.78910e-01,9.99999e-01
7.803910261e-01,9.78408e-01,9.99999e-01,9.99999e-01,9.99067e-01,9.79322e-01,9.99998e-01
7.842929812e-01,9.76534e-01,9.99999e-01,9.99999e-01,9.96747e-01,9.79726e-01,9.99993e-01
7.882144461e-01,9.73472e-01,9.99999e-01,9.99999e-01,9.93254e-01,9.80123e-01,9.99958e-01
7.921555184e-01,9.76786e-01,9.99999e-01,9.99999e-01,9.96279e-01,9.80511e-01,9.99919e-01
7.961162960e-01,9.74441e-01,9.99999e-01,9.99999e-01,9.93498e-01,9.80893e-01,9.99922e-01
8.000968774e-01,9.73782e-01,9.99999e-01,9.99999e-01,9.92453e-01,9.81266e-01,9.99918e-01
8.040973618e-01,9.74170e-01,9.99999e-01,9.99999e-01,9.92461e-01,9.81633e-01,9.99934e-01
8.081178486e-01,9.65426e-01,9.99999e-01,9.99999e-01,9.83188e-01,9.81993e-01,9.99938e-01
8.121584379e-01,9.15007e-01,9.99999e-01,9.99999e-01,9.31673e-01,9.82345e-01,9.99760e-01
8.162192301e-01,9.02004e-01,9.99999e-01,9.99999e-01,9.18715e-01,9.82691e-01,9.99102e-01
8.203003262e-01,9.42202e-01,9.99999e-01,9.99999e-01,9.59474e-01,9.83030e-01,9.98949e-01
8.244018279e-01,9.26206e-01,9.99999e-01,9.99999e-01,9.42663e-01,9.83362e-01,9.99163e-01
8.285238370e-01,9.34792e-01,9.99999e-01,9.99999e-01,9.50916e-01,9.83688e-01,9.99343e-01
8.326664562e-01,9.34777e-01,9.99999e-01,9.99999e-01,9.50227e-01,9.84008e-01,9.99728e-01
8.368297885e-01,9.48930e-01,9.99999e-01,9.99999e-01,9.64104e-01,9.84321e-01,9.99937e-01
8.410139374e-01,9.63431e-01,9.99999e-01,9.99999e-01,9.78506e-01,9.84628e-01,9.99963e-01
8.452190071e-01,9.74462e-01,9.99999e-01,9.99999e-01,9.89393e-01,9.84930e-01,9.99977e-01
8.494451021e-01,9.79154e-01,9.99999e-01,9.99999e-01,9.93854e-01,9.85225e-01,9.99982e-01
8.536923276e-01,9.81907e-01,9.99999e-01,9.99999e-01,9.96350e-01,9.85515e-01,9.99988e-01
8.579607893e-01,9.83586e-01,9.99999e-01,9.99999e-01,9.97757e-01,9.85799e-01,9.99996e-01
8.622505932e-01,9.84669e-01,9.99999e-01,9.99999e-01,9.98572e-01,9.86077e-01,9.99999e-01
8.665618462e-01,9.85482e-01,9.99999e-01,9.99999e-01,9.99119e-01,9.86350e-01,9.99999e-01
8.708946554e-01,9.85626e-01,9.99999e-01,9.99999e-01,9.98993e-01,9.86618e-01,9.99998e-01
8.752491287e-01,9.85551e-01,9.99999e-01,9.99999e-01,9.98653e-01,9.86881e-01,9.99998e-01
8.796253743e-01,9.85299e-01,9.99999e-01,9.99999e-01,9.98140e-01,9.87138e-01,9.99995e-01
8.840235012e-01,9.85280e-01,9.99999e-01,9.99999e-01,9.97874e-01,9.87391e-01,9.99986e-01
8.884436187e-01,9.80092e-01,9.99999e-01,9.99999e-01,9.92395e-01,9.87638e-01,9.99962e-01
8.928858368e-01,9.10583e-01,9.99999e-01,9.99999e-01,9.21949e-01,9.87881e-01,9.99786e-01
8.973502660e-01,8.53900e-01,9.99999e-01,9.99999e-01,8.65110e-01,9.88119e-01,9.98908e-01
9.018370173e-01,9.15869e-01,9.99999e-01,9.99999e-01,9.28254e-01,9.88352e-01,9.98284e-01
9.063462024e-01,9.25316e-01,9.99999e-01,9.99999e-01,9.37416e-01,9.88581e-01,9.98493e-01
9.108779334e-01,8.92180e-01,9.99999e-01,9.99999e-01,9.03694e-01,9.88805e-01,9.98434e-01
9.154323231e-01,8.80134e-01,9.99999e-01,9.99999e-01,8.91053e-01,9.89025e-01,9.98705e-01
9.200094847e-01,9.03018e-01,9.99999e-01,9.99999e-01,9.13500e-01,9.89241e-01,9.99275e-01
9.246095321e-01,8.61641e-01,9.99999e-01,9.99999e-01,8.71553e-01,9.89452e-01,9.99164e-01
9.292325798e-01,3.96632e-01,9.99999e-01,9.99999e-01,4.02083e-01,9.89659e-01,9.96748e-01
9.338787427e-01,2.99440e-01,9.99999e-01,9.99999e-01,3.06606e-01,9.89862e-01,9.86628e-01
9.385481364e-01,6.03324e-01,9.99999e-01,9.99999e-01,6.19214e-01,9.90062e-01,9.84116e-01
9.432408771e-01,5.10012e-01,9.99999e-01,9.99999e-01,5.22193e-01,9.90257e-01,9.86282e-01
9.479570815e-01,4.01925e-01,9.99999e-01,9.99999e-01,4.10388e-01,9.90448e-01,9.88821e-01
9.526968669e-01,4.97112e-01,9.99999e-01,9.99999e-01,5.05263e-01,9.90636e-01,9.93166e-01
9.574603512e-01,5.20712e-01,9.99999e-01,9.99999e-01,5.27369e-01,9.90820e-01,9.96522e-01
9.622476530e-01,5.84444e-01,9.99999e-01,9.99999e-01,5.91172e-01,9.91001e-01,9.97594e-01
9.670588912e-01,7.30453e-01,9.99999e-01,9.99999e-01,7.38168e-01,9.91178e-01,9.98353e-01
9.718941857e-01,8.17888e-01,9.99999e-01,9.99999e-01,8.26024e-01,9.91351e-01,9.98787e-01
9.767536566e-01,8.45240e-01,9.99999e-01,9.99999e-01,8.53257e-01,9.91521e-01,9.99073e-01
9.816374249e-01,8.80993e-01,9.99999e-01,9.99999e-01,8.88661e-01,9.91688e-01,9.99678e-01
9.865456120e-01,9.21199e-01,9.99999e-01,9.99999e-01,9.28829e-01,9.91852e-01,9.99932e-01
9.914783401e-01,9.47744e-01,9.99999e-01,9.99999e-01,9.55392e-01,9.92012e-01,9.99981e-01
9.964357318e-01,9.67802e-01,9.99999e-01,9.99999e-01,9.75450e-01,9.92169e-01,9.99988e-01
1.001417910e+00,9.77631e-01,9.99999e-01,9.99999e-01,9.85210e-01,9.92323e-01,9.99982e-01
1.006425000e+00,9.84074e-01,9.99999e-01,9.99999e-01,9.91559e-01,9.92474e-01,9.99975e-01
1.011457125e+00,9.87380e-01,9.99999e-01,9.99999e-01,9.94740e-01,9.92622e-01,9.99977e-01
1.016514411e+00,9.89210e-01,9.99999e-01,9.99999e-01,9.96431e-01,9.92767e-01,9.99984e-01
1.021596983e+00,9.90073e-01,9.99999e-01,9.99999e-01,9.97157e-01,9.92910e-01,9.99984e-01
1.026704968e+00,9.90839e-01,9.99999e-01,9.99999e-01,9.97783e-01,9.93049e-01,9.99989e-01
1.031838492e+00,9.91581e-01,9.99999e-01,9.99999e-01,9.98385e-01,9.93186e-01,9.99996e-01
1.036997685e+00,9.92369e-01,9.99999e-01,9.99999e-01,9.99042e-01,9.93320e-01,9.99999e-01
1.042182673e+00,9.92322e-01,9.99999e-01,9.99999e-01,9.98862e-01,9.93452e-01,9.99999e-01
1.047393587e+00,9.92080e-01,9.99999e-01,9.99999e-01,9.98489e-01,9.93581e-01,9.99999e-01
1.052630555e+00,9.91650e-01,9.99999e-01,9.99999e-01,9.97930e-01,9.93707e-01,9.99998e-01
1.057893707e+00,9.90403e-01,9.99999e-01,9.99999e-01,9.96551e-01,9.93831e-01,9.99998e-01
1.063183176e+00,9.88308e-01,9.99999e-01,9.99999e-01,9.94324e-01,9.93952e-01,9.99996e-01
1.068499092e+00,9.84622e-01,9.99999e-01,9.99999e-01,9.90500e-01,9.94071e-01,9.99993e-01
1.073841587e+00,9.83151e-01,9.99999e-01,9.99999e-01,9.88912e-01,9.94188e-01,9.99985e-01
1.079210795e+00,9.80113e-01,9.99999e-01,9.99999e-01,9.85766e-01,9.94303e-01,9.99961e-01
1.084606849e+00,9.73013e-01,9.99999e-01,9.99999e-01,9.78566e-01,9.94415e-01,9.99907e-01
1.090029883e+00,9.64033e-01,9.99999e-01,9.99999e-01,9.69524e-01,9.94525e-01,9.99809e-01
1.095480033e+00,9.13749e-01,9.99999e-01,9.99999e-01,9.18995e-01,9.94633e-01,9.99655e-01
1.100957433e+00,8.02662e-01,9.99999e-01,9.99999e-01,8.07418e-01,9.94738e-01,9.99366e-01
1.106462220e+00,5.81585e-01,9.99999e-01,9.99999e-01,5.85227e-01,9.94842e-01,9.98926e-01
1.111994531e+00,3.24090e-01,9.99999e-01,9.99999e-01,3.26667e-01,9.94944e-01,9.97152e-01
1.117554504e+00,1.64767e-01,9.99999e-01,9.99999e-01,1.67300e-01,9.95043e-01,9.89760e-01
1.123142276e+00,2.70954e-01,9.99999e-01,9.99999e-01,2.79004e-01,9.95141e-01,9.75888e-01
1.128757988e+00,4.16737e-01,9.99999e-01,9.99999e-01,4.30722e-01,9.95237e-01,9.72159e-01
1.134401778e+00,2.02196e-01,9.99999e-01,9.99999e-01,2.08081e-01,9.95330e-01,9.76277e-01
1.140073787e+00,5.84999e-01,9.99999e-01,9.99999e-01,5.99071e-01,9.95422e-01,9.81000e-01
1.145774156e+00,3.43978e-01,9.99999e-01,9.99999e-01,3.51648e-01,9.95513e-01,9.82594e-01
1.151503026e+00,3.10961e-01,9.99999e-01,9.99999e-01,3.15404e-01,9.95601e-01,9.90265e-01
1.157260541e+00,3.67319e-01,9.99999e-01,9.99999e-01,3.69990e-01,9.95688e-01,9.97079e-01
1.163046844e+00,4.74673e-01,9.99999e-01,9.99999e-01,4.77083e-01,9.95773e-01,9.99170e-01
1.168862078e+00,5.91642e-01,9.99999e-01,9.99999e-01,5.94357e-01,9.95856e-01,9.99572e-01
1.174706389e+00,7.21897e-01,9.99999e-01,9.99999e-01,7.25251e-01,9.95938e-01,9.99433e-01
1.180579921e+00,8.17941e-01,9.99999e-01,9.99999e-01,8.21913e-01,9.96018e-01,9.99143e-01
1.186482820e+00,8.90694e-01,9.99999e-01,9.99999e-01,8.94970e-01,9.96096e-01,9.99121e-01
1.192415234e+00,9.33100e-01,9.99999e-01,9.99999e-01,9.37300e-01,9.96173e-01,9.99341e-01
1.198377311e+00,9.42846e-01,9.99999e-01,9.99999e-01,9.46984e-01,9.96249e-01,9.99378e-01
1.204369197e+00,9.45740e-01,9.99999e-01,9.99999e-01,9.49764e-01,9.96323e-01,9.99437e-01
1.210391043e+00,9.48114e-01,9.99999e-01,9.99999e-01,9.51869e-01,9.96395e-01,9.99657e-01
1.216442998e+00,9.55241e-01,9.99999e-01,9.99999e-01,9.58829e-01,9.96466e-01,9.99790e-01
1.222525213e+00,9.64334e-01,9.99999e-01,9.99999e-01,9.67811e-01,9.96536e-01,9.99869e-01
1.228637839e+00,9.74174e-01,9.99999e-01,9.99999e-01,9.77552e-01,9.96604e-01,9.99939e-01
