#,Wave/freq,Total,N2,O2,H2O,Rayleigh,CIA
4.000000000e-01,9.10891e-01,9.99999e-01,9.99999e-01,9.99988e-01,9.10901e-01,9.99999e-01
4.020000000e-01,9.12577e-01,9.99999e-01,9.99999e-01,9.99992e-01,9.12583e-01,9.99999e-01
4.040100000e-01,9.14231e-01,9.99999e-01,9.99999e-01,9.99996e-01,9.14233e-01,9.99999e-01
4.060300500e-01,9.15854e-01,9.99999e-01,9.99999e-01,9.99998e-01,9.15854e-01,9.99999e-01
4.080602003e-01,9.17445e-01,9.99999e-01,9.99999e-01,9.99999e-01,9.17446e-01,9.99999e-01
4.101005013e-01,9.19008e-01,9.99999e-01,9.99999e-01,9.99999e-01,9.19008e-01,9.99999e-01
4.121510038e-01,9.20542e-01,9.99999e-01,9.99999e-01,9.99999e-01,9.20543e-01,9.99999e-01
4.142117588e-01,9.22047e-01,9.99999e-01,9.99999e-01,9.99996e-01,9.22049e-01,9.99999e-01
4.162828176e-01,9.23517e-01,9.99999e-01,9.99999e-01,9.99986e-01,9.23529e-01,9.99999e-01
4.183642317e-01,9.24974e-01,9.99999e-01,9.99999e-01,9.99991e-01,9.24981e-01,9.99999e-01
4.204560528e-01,9.26402e-01,9.99999e-01,9.99999e-01,9.99994e-01,9.26407e-01,9.99999e-01
4.225583331e-01,9.27805e-01,9.99999e-01,9.99999e-01,9.99997e-01,9.27807e-01,9.99999e-01
4.246711247e-01,9.29180e-01,9.99999e-01,9.99999e-01,9.99998e-01,9.29181e-01,9.99999e-01
4.267944804e-01,9.30528e-01,9.99999e-01,9.99999e-01,9.99997e-01,9.30530e-01,9.99999e-01
4.289284528e-01,9.31853e-01,9.99999e-01,9.99999e-01,9.99997e-01,9.31854e-01,9.99999e-01
4.310730950e-01,9.33154e-01,9.99999e-01,9.99999e-01,9.99998e-01,9.33154e-01,9.99999e-01
4.332284605e-01,9.34430e-01,9.99999e-01,9.99999e-01,9.99999e-01,9.34430e-01,9.99999e-01
4.353946028e-01,9.35683e-01,9.99999e-01,9.99999e-01,9.99999e-01,9.35683e-01,9.99999e-01
4.375715758e-01,9.36911e-01,9.99999e-01,9.99999e-01,9.99998e-01,9.36912e-01,9.99999e-01
4.397594337e-01,9.38108e-01,9.99999e-01,9.99999e-01,9.99988e-01,9.38119e-01,9.99999e-01
4.419582309e-01,9.39249e-01,9.99999e-01,9.99999e-01,9.99941e-01,9.39304e-01,9.99999e-01
4.441680220e-01,9.40423e-01,9.99999e-01,9.99999e-01,9.99953e-01,9.40466e-01,9.99999e-01
4.463888621e-01,9.41562e-01,9.99999e-01,9.99999e-01,9.99952e-01,9.41607e-01,9.99999e-01
4.486208064e-01,9.42699e-01,9.99999e-01,9.99999e-01,9.99970e-01,9.42727e-01,9.99999e-01
4.508639105e-01,9.43812e-01,9.99999e-01,9.99999e-01,9.99985e-01,9.43825e-01,9.99999e-01
4.531182300e-01,9.44899e-01,9.99999e-01,9.99999e-01,9.99994e-01,9.44904e-01,9.99999e-01
4.553838212e-01,9.45959e-01,9.99999e-01,9.99999e-01,9.99995e-01,9.45962e-01,9.99999e-01
4.576607403e-01,9.46999e-01,9.99999e-01,9.99999e-01,9.99997e-01,9.47001e-01,9.99999e-01
4.599490440e-01,9.48019e-01,9.99999e-01,9.99999e-01,9.99998e-01,9.48020e-01,9.99999e-01
4.622487892e-01,9.49020e-01,9.99999e-01,9.99999e-01,9.99999e-01,9.49020e-01,9.99999e-01
4.645600332e-01,9.50001e-01,9.99999e-01,9.99999e-01,9.99998e-01,9.50001e-01,9.99999e-01
4.668828333e-01,9.50951e-01,9.99999e-01,9.99999e-01,9.99985e-01,9.50964e-01,9.99999e-01
4.692172475e-01,9.51881e-01,9.99999e-01,9.99999e-01,9.99969e-01,9.51909e-01,9.99999e-01
4.715633337e-01,9.52818e-01,9.99999e-01,9.99999e-01,9.99980e-01,9.52836e-01,9.99999e-01
4.739211504e-01,9.53728e-01,9.99999e-01,9.99999e-01,9.99980e-01,9.53746e-01,9.99999e-01
4.762907561e-01,9.54629e-01,9.99999e-01,9.99999e-01,9.99989e-01,9.54639e-01,9.99999e-01
4.786722099e-01,9.55511e-01,9.99999e-01,9.99999e-01,9.99995e-01,9.55514e-01,9.99999e-01
4.810655710e-01,9.56372e-01,9.99999e-01,9.99999e-01,9.99998e-01,9.56374e-01,9.99999e-01
4.834708988e-01,9.57206e-01,9.99999e-01,9.99999e-01,9.99988e-01,9.57217e-01,9.99999e-01
4.858882533e-01,9.58024e-01,9.99999e-01,9.99999e-01,9.99978e-01,9.58044e-01,9.99999e-01
4.883176946e-01,9.58838e-01,9.99999e-01,9.99999e-01,9.99981e-01,9.58855e-01,9.99999e-01
4.907592831e-01,9.59636e-01,9.99999e-01,9.99999e-01,9.99983e-01,9.59651e-01,9.99999e-01
4.932130795e-01,9.60421e-01,9.99999e-01,9.99999e-01,9.99988e-01,9.60432e-01,9.99999e-01
4.956791449e-01,9.61193e-01,9.99999e-01,9.99999e-01,9.99993e-01,9.61198e-01,9.99999e-01
4.981575406e-01,9.61921e-01,9.99999e-01,9.99999e-01,9.99969e-01,9.61950e-01,9.99999e-01
5.006483283e-01,9.62613e-01,9.99999e-01,9.99999e-01,9.99922e-01,9.62687e-01,9.99998e-01
5.031515699e-01,9.63030e-01,9.99999e-01,9.99999e-01,9.99608e-01,9.63411e-01,9.99995e-01
5.056673278e-01,9.63916e-01,9.99999e-01,9.99999e-01,9.99792e-01,9.64120e-01,9.99994e-01
5.081956644e-01,9.64562e-01,9.99999e-01,9.99999e-01,9.99738e-01,9.64816e-01,9.99996e-01
5.107366428e-01,9.65329e-01,9.99999e-01,9.99999e-01,9.99823e-01,9.65499e-01,9.99998e-01
5.132903260e-01,9.66072e-01,9.99999e-01,9.99999e-01,9.99898e-01,9.66169e-01,9.99999e-01
5.158567776e-01,9.66785e-01,9.99999e-01,9.99999e-01,9.99956e-01,9.66826e-01,9.99999e-01
5.184360615e-01,9.67454e-01,9.99999e-01,9.99999e-01,9.99982e-01,9.67470e-01,9.99999e-01
5.210282418e-01,9.68096e-01,9.99999e-01,9.99999e-01,9.99993e-01,9.68103e-01,9.99999e-01
5.236333830e-01,9.68698e-01,9.99999e-01,9.99999e-01,9.99974e-01,9.68723e-01,9.99999e-01
5.262515499e-01,9.69315e-01,9.99999e-01,9.99999e-01,9.99983e-01,9.69331e-01,9.99999e-01
5.288828077e-01,9.69913e-01,9.99999e-01,9.99999e-01,9.99984e-01,9.69927e-01,9.99999e-01
5.315272217e-01,9.70500e-01,9.99999e-01,9.99999e-01,9.99986e-01,9.70513e-01,9.99999e-01
5.341848578e-01,9.71078e-01,9.99999e-01,9.99999e-01,9.99991e-01,9.71087e-01,9.99999e-01
5.368557821e-01,9.71621e-01,9.99999e-01,9.99999e-01,9.99969e-01,9.71649e-01,9.99999e-01
5.395400610e-01,9.72097e-01,9.99999e-01,9.99999e-01,9.99892e-01,9.72202e-01,9.99998e-01
5.422377613e-01,9.72606e-01,9.99999e-01,9.99999e-01,9.99860e-01,9.72743e-01,9.99996e-01
5.449489501e-01,9.73147e-01,9.99999e-01,9.99999e-01,9.99870e-01,9.73274e-01,9.99996e-01
5.476736949e-01,9.73683e-01,9.99999e-01,9.99999e-01,9.99885e-01,9.73795e-01,9.99998e-01
5.504120634e-01,9.74225e-01,9.99999e-01,9.99999e-01,9.99916e-01,9.74306e-01,9.99999e-01
5.531641237e-01,9.74766e-01,9.99999e-01,9.99999e-01,9.99957e-01,9.74807e-01,9.99999e-01
5.559299443e-01,9.75279e-01,9.99999e-01,9.99999e-01,9.99979e-01,9.75298e-01,9.99999e-01
5.587095940e-01,9.75768e-01,9.99999e-01,9.99999e-01,9.99986e-01,9.75780e-01,9.99999e-01
5.615031420e-01,9.76239e-01,9.99999e-01,9.99999e-01,9.99985e-01,9.76253e-01,9.99999e-01
5.643106577e-01,9.76701e-01,9.99999e-01,9.99999e-01,9.99983e-01,9.76717e-01,9.99999e-01
5.671322110e-01,9.76982e-01,9.99999e-01,9.99999e-01,9.99807e-01,9.77171e-01,9.99997e-01
5.699678720e-01,9.77410e-01,9.99999e-01,9.99999e-01,9.99792e-01,9.77617e-01,9.99994e-01
5.728177114e-01,9.77840e-01,9.99999e-01,9.99999e-01,9.99785e-01,9.78054e-01,9.99995e-01
5.756818000e-01,9.78288e-01,9.99999e-01,9.99999e-01,9.99802e-01,9.78483e-01,9.99996e-01
5.785602090e-01,9.78735e-01,9.99999e-01,9.99999e-01,9.99827e-01,9.78903e-01,9.99998e-01
5.814530100e-01,9.79147e-01,9.99999e-01,9.99999e-01,9.99827e-01,9.79316e-01,9.99999e-01
5.843602750e-01,9.79519e-01,9.99999e-01,9.99999e-01,9.99794e-01,9.79720e-01,9.99998e-01
5.872820764e-01,9.78374e-01,9.99999e-01,9.99999e-01,9.98233e-01,9.80117e-01,9.99987e-01
5.902184868e-01,9.78367e-01,9.99999e-01,9.99999e-01,9.97852e-01,9.80506e-01,9.99965e-01
5.931695792e-01,9.79369e-01,9.99999e-01,9.99999e-01,9.98484e-01,9.80887e-01,9.99966e-01
5.961354271e-01,9.79611e-01,9.99999e-01,9.99999e-01,9.98337e-01,9.81261e-01,9.99980e-01
5.991161043e-01,9.80432e-01,9.99999e-01,9.99999e-01,9.98786e-01,9.81628e-01,9.99993e-01
6.021116848e-01,9.81310e-01,9.99999e-01,9.99999e-01,9.99311e-01,9.81987e-01,9.99998e-01
6.051222432e-01,9.81998e-01,9.99999e-01,9.99999e-01,9.99651e-01,9.82340e-01,9.99999e-01
6.081478544e-01,9.82538e-01,9.99999e-01,9.99999e-01,9.99849e-01,9.82686e-01,9.99999e-01
6.111885937e-01,9.82962e-01,9.99999e-01,9.99999e-01,9.99935e-01,9.83025e-01,9.99999e-01
6.142445367e-01,9.83329e-01,9.99999e-01,9.99999e-01,9.99971e-01,9.83357e-01,9.99999e-01
6.173157594e-01,9.83668e-01,9.99999e-01,9.99999e-01,9.99983e-01,9.83683e-01,9.99999e-01
6.204023382e-01,9.83990e-01,9.99999e-01,9.99999e-01,9.99986e-01,9.84003e-01,9.99999e-01
6.235043498e-01,9.84259e-01,9.99999e-01,9.99999e-01,9.99941e-01,9.84316e-01,9.99999e-01
6.266218716e-01,9.84318e-01,9.99999e-01,9.99999e-01,9.99691e-01,9.84624e-01,9.99997e-01
6.297549810e-01,9.84809e-01,9.99999e-01,9.99999e-01,9.99886e-01,9.84925e-01,9.99995e-01
6.329037559e-01,9.84997e-01,9.99999e-01,9.99999e-01,9.99775e-01,9.85221e-01,9.99996e-01
6.360682746e-01,9.85321e-01,9.99999e-01,9.99999e-01,9.99809e-01,9.85510e-01,9.99997e-01
6.392486160e-01,9.85550e-01,9.99999e-01,9.99999e-01,9.99752e-01,9.85795e-01,9.99998e-01
6.424448591e-01,9.85747e-01,9.99999e-01,9.99999e-01,9.99670e-01,9.86073e-01,9.99998e-01
6.456570834e-01,9.84830e-01,9.99999e-01,9.99999e-01,9.98470e-01,9.86346e-01,9.99991e-01
6.488853688e-01,9.85481e-01,9.99999e-01,9.99999e-01,9.98874e-01,9.86614e-01,9.99975e-01
6.521297956e-01,9.85726e-01,9.99999e-01,9.99999e-01,9.98852e-01,9.86877e-01,9.99979e-01
6.553904446e-01,9.86001e-01,9.99999e-01,9.99999e-01,9.98866e-01,9.87134e-01,9.99984e-01
6.586673968e-01,9.86417e-01,9.99999e-01,9.99999e-01,9.99022e-01,9.87387e-01,9.99994e-01
6.619607338e-01,9.87076e-01,9.99999e-01,9.99999e-01,9.99434e-01,9.87634e-01,9.99998e-01
6.652705375e-01,9.87554e-01,9.99999e-01,9.99999e-01,9.99672e-01,9.87877e-01,9.99998e-01
6.685968902e-01,9.87965e-01,9.99999e-01,9.99999e-01,9.99847e-01,9.88115e-01,9.99999e-01
6.719398746e-01,9.88279e-01,9.99999e-01,9.99999e-01,9.99929e-01,9.88349e-01,9.99999e-01
6.752995740e-01,9.88540e-01,9.99999e-01,9.99999e-01,9.99961e-01,9.88577e-01,9.99999e-01
6.786760719e-01,9.88747e-01,9.99999e-01,9.99999e-01,9.99944e-01,9.88802e-01,9.99999e-01
6.820694522e-01,9.88928e-01,9.99999e-01,9.99999e-01,9.99905e-01,9.89022e-01,9.99999e-01
6.854797995e-01,9.89116e-01,9.99999e-01,9.99999e-01,9.99878e-01,9.89237e-01,9.99998e-01
6.889071985e-01,9.89158e-01,9.99999e-01,9.99999e-01,9.99707e-01,9.89449e-01,9.99996e-01
6.923517345e-01,9.84897e-01,9.99999e-01,9.99999e-01,9.95213e-01,9.89656e-01,9.99976e-01
6.958134932e-01,9.87322e-01,9.99999e-01,9.99999e-01,9.97487e-01,9.89859e-01,9.99947e-01
6.992925606e-01,9.87672e-01,9.99999e-01,9.99999e-01,9.97633e-01,9.90059e-01,9.99953e-01
7.027890234e-01,9.87318e-01,9.99999e-01,9.99999e-01,9.97069e-01,9.90254e-01,9.99964e-01
7.063029686e-01,9.87990e-01,9.99999e-01,9.99999e-01,9.97537e-01,9.90446e-01,9.99982e-01
7.098344834e-01,9.88283e-01,9.99999e-01,9.99999e-01,9.97637e-01,9.90633e-01,9.99989e-01
7.133836558e-01,9.87693e-01,9.99999e-01,9.99999e-01,9.96866e-01,9.90818e-01,9.99979e-01
7.169505741e-01,9.65949e-01,9.99999e-01,9.99999e-01,9.74880e-01,9.90998e-01,9.99838e-01
7.205353270e-01,9.78562e-01,9.99999e-01,9.99999e-01,9.87555e-01,9.91175e-01,9.99715e-01
7.241380036e-01,9.75571e-01,9.99999e-01,9.99999e-01,9.84325e-01,9.91349e-01,9.99754e-01
7.277586936e-01,9.77282e-01,9.99999e-01,9.99999e-01,9.85839e-01,9.91519e-01,9.99798e-01
7.313974871e-01,9.76644e-01,9.99999e-01,9.99999e-01,9.84924e-01,9.91686e-01,9.99905e-01
7.350544745e-01,9.83637e-01,9.99999e-01,9.99999e-01,9.91752e-01,9.91849e-01,9.99966e-01
7.387297469e-01,9.85971e-01,9.99999e-01,9.99999e-01,9.93927e-01,9.92009e-01,9.99984e-01
7.424233956e-01,9.89211e-01,9.99999e-01,9.99999e-01,9.97023e-01,9.92167e-01,9.99996e-01
7.461355126e-01,9.90531e-01,9.99999e-01,9.99999e-01,9.98196e-01,9.92321e-01,9.99998e-01
7.498661902e-01,9.91638e-01,9.99999e-01,9.99999e-01,9.99159e-01,9.92472e-01,9.99999e-01
7.536155211e-01,9.92211e-01,9.99999e-01,9.99999e-01,9.99587e-01,9.92620e-01,9.99999e-01
7.573835987e-01,9.92555e-01,9.99999e-01,9.99999e-01,9.99787e-01,9.92765e-01,9.99999e-01
7.611705167e-01,9.92777e-01,9.99999e-01,9.99999e-01,9.99867e-01,9.92908e-01,9.99999e-01
7.649763693e-01,9.92965e-01,9.99999e-01,9.99999e-01,9.99917e-01,9.93047e-01,9.99999e-01
7.688012511e-01,9.93127e-01,9.99999e-01,9.99999e-01,9.99942e-01,9.93184e-01,9.99999e-01
7.726452574e-01,9.93271e-01,9.99999e-01,9.99999e-01,9.99952e-01,9.93318e-01,9.99999e-01
7.765084837e-01,9.93383e-01,9.99999e-01,9.99999e-01,9.99932e-01,9.93450e-01,9.99999e-01
7.803910261e-01,9.93291e-01,9.99999e-01,9.99999e-01,9.99710e-01,9.93579e-01,9.99999e-01
7.842929812e-01,9.92701e-01,9.99999e-01,9.99999e-01,9.98991e-01,9.93705e-01,9.99997e-01
7.882144461e-01,9.91744e-01,9.99999e-01,9.99999e-01,9.97914e-01,9.93829e-01,9.99986e-01
7.921555184e-01,9.92787e-01,9.99999e-01,9.99999e-01,9.98853e-01,9.93950e-01,9.99974e-01
7.961162960e-01,9.92042e-01,9.99999e-01,9.99999e-01,9.97983e-01,9.94070e-01,9.99975e-01
8.000968774e-01,9.91842e-01,9.99999e-01,9.99999e-01,9.97666e-01,9.94186e-01,9.99974e-01
8.040973618e-01,9.91962e-01,9.99999e-01,9.99999e-01,9.97666e-01,9.94301e-01,9.99979e-01
8.081178486e-01,9.89180e-01,9.99999e-01,9.99999e-01,9.94755e-01,9.94413e-01,9.99980e-01
8.121584379e-01,9.72811e-01,9.99999e-01,9.99999e-01,9.78240e-01,9.94523e-01,9.99925e-01
8.162192301e-01,9.68593e-01,9.99999e-01,9.99999e-01,9.74090e-01,9.94631e-01,9.99722e-01
8.203003262e-01,9.81525e-01,9.99999e-01,9.99999e-01,9.87037e-01,9.94737e-01,9.99675e-01
8.244018279e-01,9.76375e-01,9.99999e-01,9.99999e-01,9.81691e-01,9.94840e-01,9.99741e-01
8.285238370e-01,9.79349e-01,9.99999e-01,9.99999e-01,9.84526e-01,9.94942e-01,9.99797e-01
8.326664562e-01,9.79363e-01,9.99999e-01,9.99999e-01,9.84324e-01,9.95042e-01,9.99915e-01
8.368297885e-01,9.83967e-01,9.99999e-01,9.99999e-01,9.88791e-01,9.95139e-01,9.99980e-01
8.410139374e-01,9.88586e-01,9.99999e-01,9.99999e-01,9.93329e-01,9.95235e-01,9.99988e-01
8.452190071e-01,9.92063e-01,9.99999e-01,9.99999e-01,9.96724e-01,9.95329e-01,9.99992e-01
8.494451021e-01,9.93527e-01,9.99999e-01,9.99999e-01,9.98102e-01,9.95421e-01,9.99994e-01
8.536923276e-01,9.94389e-01,9.99999e-01,9.99999e-01,9.98875e-01,9.95511e-01,9.99996e-01
8.579607893e-01,9.94911e-01,9.99999e-01,9.99999e-01,9.99308e-01,9.95600e-01,9.99998e-01
8.622505932e-01,9.95249e-01,9.99999e-01,9.99999e-01,9.99560e-01,9.95686e-01,9.99999e-01
8.665618462e-01,9.95501e-01,9.99999e-01,9.99999e-01,9.99728e-01,9.95771e-01,9.99999e-01
8.708946554e-01,9.95545e-01,9.99999e-01,9.99999e-01,9.99689e-01,9.95855e-01,9.99999e-01
8.752491287e-01,9.95522e-01,9.99999e-01,9.99999e-01,9.99584e-01,9.95936e-01,9.99999e-01
8.796253743e-01,9.95443e-01,9.99999e-01,9.99999e-01,9.99424e-01,9.96017e-01,9.99998e-01
8.840235012e-01,9.95437e-01,9.99999e-01,9.99999e-01,9.99342e-01,9.96095e-01,9.99995e-01
8.884436187e-01,9.93788e-01,9.99999e-01,9.99999e-01,9.97617e-01,9.96172e-01,9.99988e-01
8.928858368e-01,9.71239e-01,9.99999e-01,9.99999e-01,9.74960e-01,9.96247e-01,9.99933e-01
8.973502660e-01,9.52049e-01,9.99999e-01,9.99999e-01,9.55884e-01,9.96321e-01,9.99663e-01
9.018370173e-01,9.73123e-01,9.99999e-01,9.99999e-01,9.77161e-01,9.96394e-01,9.99470e-01
9.063462024e-01,9.76111e-01,9.99999e-01,9.99999e-01,9.80028e-01,9.96465e-01,9.99534e-01
9.108779334e-01,9.65128e-01,9.99999e-01,9.99999e-01,9.68951e-01,9.96535e-01,9.99516e-01
9.154323231e-01,9.61146e-01,9.99999e-01,9.99999e-01,9.64806e-01,9.96603e-01,9.99600e-01
9.200094847e-01,9.68825e-01,9.99999e-01,9.99999e-01,9.72278e-01,9.96670e-01,9.99776e-01
9.246095321e-01,9.53544e-01,9.99999e-01,9.99999e-01,9.56912e-01,9.96736e-01,9.99742e-01
9.292325798e-01,7.38505e-01,9.99999e-01,9.99999e-01,7.41619e-01,9.96800e-01,9.98996e-01
9.338787427e-01,6.73173e-01,9.99999e-01,9.99999e-01,6.78099e-01,9.96863e-01,9.95857e-01
9.385481364e-01,8.48518e-01,9.99999e-01,9.99999e-01,8.55346e-01,9.96925e-01,9.95075e-01
9.432408771e-01,7.97406e-01,9.99999e-01,9.99999e-01,8.03230e-01,9.96986e-01,9.95749e-01
9.479570815e-01,7.32129e-01,9.99999e-01,9.99999e-01,7.36847e-01,9.97045e-01,9.96539e-01
9.526968669e-01,7.92988e-01,9.99999e-01,9.99999e-01,7.96974e-01,9.97103e-01,9.97887e-01
9.574603512e-01,8.11612e-01,9.99999e-01,9.99999e-01,8.14797e-01,9.97160e-01,9.98926e-01
9.622476530e-01,8.43929e-01,9.99999e-01,9.99999e-01,8.46912e-01,9.97216e-01,9.99257e-01
9.670588912e-01,9.05985e-01,9.99999e-01,9.99999e-01,9.08924e-01,9.97271e-01,9.99491e-01
9.718941857e-01,9.39505e-01,9.99999e-01,9.99999e-01,9.42376e-01,9.97325e-01,9.99625e-01
9.767536566e-01,9.49189e-01,9.99999e-01,9.99999e-01,9.51955e-01,9.97378e-01,9.99713e-01
9.816374249e-01,9.61603e-01,9.99999e-01,9.99999e-01,9.64175e-01,9.97430e-01,9.99900e-01
9.865456120e-01,9.74999e-01,9.99999e-01,9.99999e-01,9.77481e-01,9.97480e-01,9.99978e-01
9.914783401e-01,9.83594e-01,9.99999e-01,9.99999e-01,9.86034e-01,9.97530e-01,9.99993e-01
9.964357318e-01,9.89966e-01,9.99999e-01,9.99999e-01,9.92371e-01,9.97579e-01,9.99996e-01
1.001417910e+00,9.93055e-01,9.99999e-01,9.99999e-01,9.95422e-01,9.97626e-01,9.99994e-01
1.006425000e+00,9.95063e-01,9.99999e-01,9.99999e-01,9.97390e-01,9.97673e-01,9.99992e-01
1.011457125e+00,9.96095e-01,9.99999e-01,9.99999e-01,9.98378e-01,9.97719e-01,9.99992e-01
1.016514411e+00,9.96662e-01,9.99999e-01,9.99999e-01,9.98899e-01,9.97764e-01,9.99994e-01
1.021596983e+00,9.96929e-01,9.99999e-01,9.99999e-01,9.99123e-01,9.97808e-01,9.99994e-01
1.026704968e+00,9.97166e-01,9.99999e-01,9.99999e-01,9.99316e-01,9.97851e-01,9.99996e-01
1.031838492e+00,9.97397e-01,9.99999e-01,9.99999e-01,9.99502e-01,9.97894e-01,9.99998e-01
1.036997685e+00,9.97641e-01,9.99999e-01,9.99999e-01,9.99704e-01,9.97935e-01,9.99999e-01
1.042182673e+00,9.97626e-01,9.99999e-01,9.99999e-01,9.99648e-01,9.97976e-01,9.99999e-01
1.047393587e+00,9.97551e-01,9.99999e-01,9.99999e-01,9.99533e-01,9.98016e-01,9.99999e-01
1.052630555e+00,9.97417e-01,9.99999e-01,9.99999e-01,9.99360e-01,9.98055e-01,9.99999e-01
1.057893707e+00,9.97029e-01,9.99999e-01,9.99999e-01,9.98932e-01,9.98093e-01,9.99999e-01
1.063183176e+00,9.96377e-01,9.99999e-01,9.99999e-01,9.98243e-01,9.98131e-01,9.99998e-01
1.068499092e+00,9.95230e-01,9.99999e-01,9.99999e-01,9.97057e-01,9.98168e-01,9.99997e-01
1.073841587e+00,9.94765e-01,9.99999e-01,9.99999e-01,9.96558e-01,9.98204e-01,9.99995e-01
1.079210795e+00,9.93823e-01,9.99999e-01,9.99999e-01,9.95586e-01,9.98239e-01,9.99987e-01
1.084606849e+00,9.91586e-01,9.99999e-01,9.99999e-01,9.93328e-01,9.98274e-01,9.99971e-01
1.090029883e+00,9.88711e-01,9.99999e-01,9.99999e-01,9.90444e-01,9.98308e-01,9.99940e-01
1.095480033e+00,9.72429e-01,9.99999e-01,9.99999e-01,9.74147e-01,9.98342e-01,9.99893e-01
1.100957433e+00,9.33771e-01,9.99999e-01,9.99999e-01,9.35473e-01,9.98374e-01,9.99804e-01
1.106462220e+00,8.41650e-01,9.99999e-01,9.99999e-01,8.43272e-01,9.98406e-01,9.99668e-01
1.111994531e+00,6.95180e-01,9.99999e-01,9.99999e-01,6.96879e-01,9.98438e-01,9.99120e-01
1.117554504e+00,5.53053e-01,9.99999e-01,9.99999e-01,5.55661e-01,9.98469e-01,9.96831e-01
1.123142276e+00,6.38503e-01,9.99999e-01,9.99999e-01,6.44292e-01,9.98499e-01,9.92502e-01
1.128757988e+00,7.50027e-01,9.99999e-01,9.99999e-01,7.57699e-01,9.98528e-01,9.91331e-01
1.134401778e+00,5.12873e-01,9.99999e-01,9.99999e-01,5.17430e-01,9.98557e-01,9.92624e-01
1.140073787e+00,8.42894e-01,9.99999e-01,9.99999e-01,8.49093e-01,9.98586e-01,9.94102e-01
1.145774156e+00,7.03341e-01,9.99999e-01,9.99999e-01,7.08140e-01,9.98614e-01,9.94600e-01
1.151503026e+00,6.76495e-01,9.99999e-01,9.99999e-01,6.79461e-01,9.98641e-01,9.96988e-01
1.157260541e+00,7.26373e-01,9.99999e-01,9.99999e-01,7.27998e-01,9.98668e-01,9.99098e-01
1.163046844e+00,7.89942e-01,9.99999e-01,9.99999e-01,7.91176e-01,9.98694e-01,9.99743e-01
1.168862078e+00,8.49375e-01,9.99999e-01,9.99999e-01,8.50574e-01,9.98720e-01,9.99867e-01
1.174706389e+00,9.03698e-01,9.99999e-01,9.99999e-01,9.04990e-01,9.98745e-01,9.99824e-01
1.180579921e+00,9.39661e-01,9.99999e-01,9.99999e-01,9.41065e-01,9.98770e-01,9.99735e-01
1.186482820e+00,9.64892e-01,9.99999e-01,9.99999e-01,9.66318e-01,9.98794e-01,9.99728e-01
1.192415234e+00,9.78870e-01,9.99999e-01,9.99999e-01,9.80226e-01,9.98818e-01,9.99796e-01
1.198377311e+00,9.81992e-01,9.99999e-01,9.99999e-01,9.83319e-01,9.98841e-01,9.99807e-01
1.204369197e+00,9.82905e-01,9.99999e-01,9.99999e-01,9.84192e-01,9.98864e-01,9.99826e-01
1.210391043e+00,9.83684e-01,9.99999e-01,9.99999e-01,9.84883e-01,9.98887e-01,9.99894e-01
1.216442998e+00,9.85975e-01,9.99999e-01,9.99999e-01,9.87115e-01,9.98909e-01,9.99934e-01
1.222525213e+00,9.88866e-01,9.99999e-01,9.99999e-01,9.89963e-01,9.98930e-01,9.99959e-01
1.228637839e+00,9.91965e-01,9.99999e-01,9.99999e-01,9.93024e-01,9.98951e-01,9.99980e-01
