#,Wave/freq,Total,N2,O2,H2O,Rayleigh,CIA
4.000000000e-01,8.70284e-01,9.99999e-01,9.99999e-01,9.99983e-01,8.70298e-01,9.99999e-01
4.020000000e-01,8.72683e-01,9.99999e-01,9.99999e-01,9.99989e-01,8.72691e-01,9.99999e-01
4.040100000e-01,8.75038e-01,9.99999e-01,9.99999e-01,9.99995e-01,8.75042e-01,9.99999e-01
4.060300500e-01,8.77351e-01,9.99999e-01,9.99999e-01,9.99998e-01,8.77352e-01,9.99999e-01
4.080602003e-01,8.79622e-01,9.99999e-01,9.99999e-01,9.99999e-01,8.79622e-01,9.99999e-01
4.101005013e-01,8.81854e-01,9.99999e-01,9.99999e-01,9.99999e-01,8.81854e-01,9.99999e-01
4.121510038e-01,8.84046e-01,9.99999e-01,9.99999e-01,9.99998e-01,8.84047e-01,9.99999e-01
4.142117588e-01,8.86197e-01,9.99999e-01,9.99999e-01,9.99995e-01,8.86201e-01,9.99999e-01
4.162828176e-01,8.88301e-01,9.99999e-01,9.99999e-01,9.99980e-01,8.88319e-01,9.99999e-01
4.183642317e-01,8.90389e-01,9.99999e-01,9.99999e-01,9.99987e-01,8.90399e-01,9.99999e-01
4.204560528e-01,8.92437e-01,9.99999e-01,9.99999e-01,9.99992e-01,8.92443e-01,9.99999e-01
4.225583331e-01,8.94449e-01,9.99999e-01,9.99999e-01,9.99996e-01,8.94451e-01,9.99999e-01
4.246711247e-01,8.96422e-01,9.99999e-01,9.99999e-01,9.99997e-01,8.96424e-01,9.99999e-01
4.267944804e-01,8.98359e-01,9.99999e-01,9.99999e-01,9.99996e-01,8.98362e-01,9.99999e-01
4.289284528e-01,9.00264e-01,9.99999e-01,9.99999e-01,9.99997e-01,9.00266e-01,9.99999e-01
4.310730950e-01,9.02135e-01,9.99999e-01,9.99999e-01,9.99998e-01,9.02136e-01,9.99999e-01
4.332284605e-01,9.03973e-01,9.99999e-01,9.99999e-01,9.99999e-01,9.03973e-01,9.99999e-01
4.353946028e-01,9.05778e-01,9.99999e-01,9.99999e-01,9.99999e-01,9.05778e-01,9.99999e-01
4.375715758e-01,9.07548e-01,9.99999e-01,9.99999e-01,9.99997e-01,9.07550e-01,9.99999e-01
4.397594337e-01,9.09275e-01,9.99999e-01,9.99999e-01,9.99982e-01,9.09291e-01,9.99999e-01
4.419582309e-01,9.10920e-01,9.99999e-01,9.99999e-01,9.99911e-01,9.11000e-01,9.99999e-01
4.441680220e-01,9.12618e-01,9.99999e-01,9.99999e-01,9.99932e-01,9.12679e-01,9.99999e-01
4.463888621e-01,9.14263e-01,9.99999e-01,9.99999e-01,9.99929e-01,9.14328e-01,9.99999e-01
4.486208064e-01,9.15907e-01,9.99999e-01,9.99999e-01,9.99956e-01,9.15947e-01,9.99999e-01
4.508639105e-01,9.17518e-01,9.99999e-01,9.99999e-01,9.99979e-01,9.17536e-01,9.99999e-01
4.531182300e-01,9.19090e-01,9.99999e-01,9.99999e-01,9.99991e-01,9.19098e-01,9.99999e-01
4.553838212e-01,9.20625e-01,9.99999e-01,9.99999e-01,9.99994e-01,9.20630e-01,9.99999e-01
4.576607403e-01,9.22133e-01,9.99999e-01,9.99999e-01,9.99996e-01,9.22135e-01,9.99999e-01
4.599490440e-01,9.23611e-01,9.99999e-01,9.99999e-01,9.99997e-01,9.23613e-01,9.99999e-01
4.622487892e-01,9.25064e-01,9.99999e-01,9.99999e-01,9.99999e-01,9.25064e-01,9.99999e-01
4.645600332e-01,9.26487e-01,9.99999e-01,9.99999e-01,9.99998e-01,9.26488e-01,9.99999e-01
4.668828333e-01,9.27867e-01,9.99999e-01,9.99999e-01,9.99978e-01,9.27887e-01,9.99999e-01
4.692172475e-01,9.29218e-01,9.99999e-01,9.99999e-01,9.99955e-01,9.29259e-01,9.99999e-01
4.715633337e-01,9.30580e-01,9.99999e-01,9.99999e-01,9.99970e-01,9.30607e-01,9.99999e-01
4.739211504e-01,9.31904e-01,9.99999e-01,9.99999e-01,9.99972e-01,9.31930e-01,9.99999e-01
4.762907561e-01,9.33215e-01,9.99999e-01,9.99999e-01,9.99985e-01,9.33228e-01,9.99999e-01
4.786722099e-01,9.34498e-01,9.99999e-01,9.99999e-01,9.99993e-01,9.34503e-01,9.99999e-01
4.810655710e-01,9.35753e-01,9.99999e-01,9.99999e-01,9.99997e-01,9.35754e-01,9.99999e-01
4.834708988e-01,9.36966e-01,9.99999e-01,9.99999e-01,9.99982e-01,9.36983e-01,9.99999e-01
4.858882533e-01,9.38159e-01,9.99999e-01,9.99999e-01,9.99968e-01,9.38188e-01,9.99999e-01
4.883176946e-01,9.39347e-01,9.99999e-01,9.99999e-01,9.99973e-01,9.39371e-01,9.99999e-01
4.907592831e-01,9.40510e-01,9.99999e-01,9.99999e-01,9.99975e-01,9.40532e-01,9.99999e-01
4.932130795e-01,9.41656e-01,9.99999e-01,9.99999e-01,9.99982e-01,9.41672e-01,9.99999e-01
4.956791449e-01,9.42782e-01,9.99999e-01,9.99999e-01,9.99990e-01,9.42790e-01,9.99999e-01
4.981575406e-01,9.43846e-01,9.99999e-01,9.99999e-01,9.99954e-01,9.43888e-01,9.99999e-01
5.006483283e-01,9.44855e-01,9.99999e-01,9.99999e-01,9.99883e-01,9.44965e-01,9.99998e-01
5.031515699e-01,9.45464e-01,9.99999e-01,9.99999e-01,9.99415e-01,9.46023e-01,9.99993e-01
5.056673278e-01,9.46763e-01,9.99999e-01,9.99999e-01,9.99692e-01,9.47060e-01,9.99992e-01
5.081956644e-01,9.47707e-01,9.99999e-01,9.99999e-01,9.99612e-01,9.48078e-01,9.99995e-01
5.107366428e-01,9.48828e-01,9.99999e-01,9.99999e-01,9.99738e-01,9.49077e-01,9.99998e-01
5.132903260e-01,9.49916e-01,9.99999e-01,9.99999e-01,9.99850e-01,9.50057e-01,9.99999e-01
5.158567776e-01,9.50959e-01,9.99999e-01,9.99999e-01,9.99936e-01,9.51019e-01,9.99999e-01
5.184360615e-01,9.51939e-01,9.99999e-01,9.99999e-01,9.99974e-01,9.51963e-01,9.99999e-01
5.210282418e-01,9.52880e-01,9.99999e-01,9.99999e-01,9.99990e-01,9.52889e-01,9.99999e-01
5.236333830e-01,9.53761e-01,9.99999e-01,9.99999e-01,9.99961e-01,9.53798e-01,9.99999e-01
5.262515499e-01,9.54666e-01,9.99999e-01,9.99999e-01,9.99975e-01,9.54689e-01,9.99999e-01
5.288828077e-01,9.55543e-01,9.99999e-01,9.99999e-01,9.99977e-01,9.55564e-01,9.99999e-01
5.315272217e-01,9.56404e-01,9.99999e-01,9.99999e-01,9.99980e-01,9.56423e-01,9.99999e-01
5.341848578e-01,9.57253e-01,9.99999e-01,9.99999e-01,9.99986e-01,9.57265e-01,9.99999e-01
5.368557821e-01,9.58048e-01,9.99999e-01,9.99999e-01,9.99955e-01,9.58091e-01,9.99999e-01
5.395400610e-01,9.58745e-01,9.99999e-01,9.99999e-01,9.99838e-01,9.58901e-01,9.99997e-01
5.422377613e-01,9.59496e-01,9.99999e-01,9.99999e-01,9.99793e-01,9.59697e-01,9.99995e-01
5.449489501e-01,9.60288e-01,9.99999e-01,9.99999e-01,9.99806e-01,9.60477e-01,9.99995e-01
5.476736949e-01,9.61078e-01,9.99999e-01,9.99999e-01,9.99830e-01,9.61242e-01,9.99997e-01
5.504120634e-01,9.61874e-01,9.99999e-01,9.99999e-01,9.99876e-01,9.61993e-01,9.99998e-01
5.531641237e-01,9.62670e-01,9.99999e-01,9.99999e-01,9.99937e-01,9.62729e-01,9.99999e-01
5.559299443e-01,9.63423e-01,9.99999e-01,9.99999e-01,9.99969e-01,9.63452e-01,9.99999e-01
5.587095940e-01,9.64143e-01,9.99999e-01,9.99999e-01,9.99980e-01,9.64161e-01,9.99999e-01
5.615031420e-01,9.64836e-01,9.99999e-01,9.99999e-01,9.99978e-01,9.64856e-01,9.99999e-01
5.643106577e-01,9.65515e-01,9.99999e-01,9.99999e-01,9.99975e-01,9.65538e-01,9.99999e-01
5.671322110e-01,9.65921e-01,9.99999e-01,9.99999e-01,9.99706e-01,9.66207e-01,9.99996e-01
5.699678720e-01,9.66562e-01,9.99999e-01,9.99999e-01,9.99695e-01,9.66863e-01,9.99991e-01
5.728177114e-01,9.67191e-01,9.99999e-01,9.99999e-01,9.99679e-01,9.67507e-01,9.99992e-01
5.756818000e-01,9.67851e-01,9.99999e-01,9.99999e-01,9.99706e-01,9.68139e-01,9.99995e-01
5.785602090e-01,9.68510e-01,9.99999e-01,9.99999e-01,9.99744e-01,9.68758e-01,9.99998e-01
5.814530100e-01,9.69116e-01,9.99999e-01,9.99999e-01,9.99743e-01,9.69366e-01,9.99998e-01
5.843602750e-01,9.69661e-01,9.99999e-01,9.99999e-01,9.99691e-01,9.69961e-01,9.99997e-01
5.872820764e-01,9.67954e-01,9.99999e-01,9.99999e-01,9.97346e-01,9.70546e-01,9.99981e-01
5.902184868e-01,9.67977e-01,9.99999e-01,9.99999e-01,9.96813e-01,9.71119e-01,9.99949e-01
5.931695792e-01,9.69441e-01,9.99999e-01,9.99999e-01,9.97741e-01,9.71682e-01,9.99951e-01
5.961354271e-01,9.69805e-01,9.99999e-01,9.99999e-01,9.97530e-01,9.72233e-01,9.99971e-01
5.991161043e-01,9.71016e-01,9.99999e-01,9.99999e-01,9.98200e-01,9.72774e-01,9.99990e-01
6.021116848e-01,9.72311e-01,9.99999e-01,9.99999e-01,9.98979e-01,9.73304e-01,9.99998e-01
6.051222432e-01,9.73323e-01,9.99999e-01,9.99999e-01,9.99483e-01,9.73825e-01,9.99999e-01
6.081478544e-01,9.74118e-01,9.99999e-01,9.99999e-01,9.99776e-01,9.74335e-01,9.99999e-01
6.111885937e-01,9.74744e-01,9.99999e-01,9.99999e-01,9.99905e-01,9.74836e-01,9.99999e-01
6.142445367e-01,9.75285e-01,9.99999e-01,9.99999e-01,9.99957e-01,9.75326e-01,9.99999e-01
6.173157594e-01,9.75785e-01,9.99999e-01,9.99999e-01,9.99976e-01,9.75808e-01,9.99999e-01
6.204023382e-01,9.76261e-01,9.99999e-01,9.99999e-01,9.99979e-01,9.76280e-01,9.99999e-01
6.235043498e-01,9.76657e-01,9.99999e-01,9.99999e-01,9.99911e-01,9.76743e-01,9.99999e-01
6.266218716e-01,9.76745e-01,9.99999e-01,9.99999e-01,9.99540e-01,9.77197e-01,9.99996e-01
6.297549810e-01,9.77471e-01,9.99999e-01,9.99999e-01,9.99830e-01,9.77642e-01,9.99993e-01
6.329037559e-01,9.77749e-01,9.99999e-01,9.99999e-01,9.99667e-01,9.78079e-01,9.99994e-01
6.360682746e-01,9.78227e-01,9.99999e-01,9.99999e-01,9.99715e-01,9.78507e-01,9.99996e-01
6.392486160e-01,9.78567e-01,9.99999e-01,9.99999e-01,9.99632e-01,9.78927e-01,9.99998e-01
6.424448591e-01,9.78852e-01,9.99999e-01,9.99999e-01,9.99504e-01,9.79339e-01,9.99997e-01
6.456570834e-01,9.77476e-01,9.99999e-01,9.99999e-01,9.97699e-01,9.79743e-01,9.99985e-01
6.488853688e-01,9.78471e-01,9.99999e-01,9.99999e-01,9.98332e-01,9.80139e-01,9.99964e-01
6.521297956e-01,9.78833e-01,9.99999e-01,9.99999e-01,9.98300e-01,9.80528e-01,9.99970e-01
6.553904446e-01,9.79222e-01,9.99999e-01,9.99999e-01,9.98301e-01,9.80909e-01,9.99977e-01
6.586673968e-01,9.79853e-01,9.99999e-01,9.99999e-01,9.98550e-01,9.81282e-01,9.99992e-01
6.619607338e-01,9.80855e-01,9.99999e-01,9.99999e-01,9.99192e-01,9.81648e-01,9.99997e-01
6.652705375e-01,9.81531e-01,9.99999e-01,9.99999e-01,9.99515e-01,9.82008e-01,9.99998e-01
6.685968902e-01,9.82158e-01,9.99999e-01,9.99999e-01,9.99793e-01,9.82360e-01,9.99999e-01
6.719398746e-01,9.82603e-01,9.99999e-01,9.99999e-01,9.99895e-01,9.82705e-01,9.99999e-01
6.752995740e-01,9.82990e-01,9.99999e-01,9.99999e-01,9.99944e-01,9.83044e-01,9.99999e-01
6.786760719e-01,9.83295e-01,9.99999e-01,9.99999e-01,9.99917e-01,9.83376e-01,9.99999e-01
6.820694522e-01,9.83563e-01,9.99999e-01,9.99999e-01,9.99859e-01,9.83702e-01,9.99998e-01
6.854797995e-01,9.83841e-01,9.99999e-01,9.99999e-01,9.99818e-01,9.84021e-01,9.99997e-01
6.889071985e-01,9.83893e-01,9.99999e-01,9.99999e-01,9.99555e-01,9.84334e-01,9.99995e-01
6.923517345e-01,9.77539e-01,9.99999e-01,9.99999e-01,9.92820e-01,9.84641e-01,9.99965e-01
6.958134932e-01,9.81256e-01,9.99999e-01,9.99999e-01,9.96332e-01,9.84942e-01,9.99923e-01
6.992925606e-01,9.81673e-01,9.99999e-01,9.99999e-01,9.96450e-01,9.85237e-01,9.99931e-01
7.027890234e-01,9.81190e-01,9.99999e-01,9.99999e-01,9.95650e-01,9.85527e-01,9.99947e-01
7.063029686e-01,9.82178e-01,9.99999e-01,9.99999e-01,9.96340e-01,9.85811e-01,9.99973e-01
7.098344834e-01,9.82612e-01,9.99999e-01,9.99999e-01,9.96488e-01,9.86089e-01,9.99984e-01
7.133836558e-01,9.81663e-01,9.99999e-01,9.99999e-01,9.95266e-01,9.86362e-01,9.99969e-01
7.169505741e-01,9.49532e-01,9.99999e-01,9.99999e-01,9.62629e-01,9.86629e-01,9.99759e-01
7.205353270e-01,9.68589e-01,9.99999e-01,9.99999e-01,9.81869e-01,9.86892e-01,9.99576e-01
7.241380036e-01,9.63787e-01,9.99999e-01,9.99999e-01,9.76690e-01,9.87149e-01,9.99634e-01
7.277586936e-01,9.66339e-01,9.99999e-01,9.99999e-01,9.78960e-01,9.87401e-01,9.99700e-01
7.313974871e-01,9.65580e-01,9.99999e-01,9.99999e-01,9.77791e-01,9.87649e-01,9.99859e-01
7.350544745e-01,9.75789e-01,9.99999e-01,9.99999e-01,9.87797e-01,9.87891e-01,9.99950e-01
7.387297469e-01,9.79232e-01,9.99999e-01,9.99999e-01,9.91017e-01,9.88129e-01,9.99977e-01
7.424233956e-01,9.84016e-01,9.99999e-01,9.99999e-01,9.95606e-01,9.88362e-01,9.99995e-01
7.461355126e-01,9.85953e-01,9.99999e-01,9.99999e-01,9.97332e-01,9.88590e-01,9.99998e-01
7.498661902e-01,9.87589e-01,9.99999e-01,9.99999e-01,9.98760e-01,9.88814e-01,9.99999e-01
7.536155211e-01,9.88431e-01,9.99999e-01,9.99999e-01,9.99390e-01,9.89034e-01,9.99999e-01
7.573835987e-01,9.88939e-01,9.99999e-01,9.99999e-01,9.99686e-01,9.89250e-01,9.99999e-01
7.611705167e-01,9.89268e-01,9.99999e-01,9.99999e-01,9.99804e-01,9.89461e-01,9.99999e-01
7.649763693e-01,9.89547e-01,9.99999e-01,9.99999e-01,9.99877e-01,9.89668e-01,9.99999e-01
7.688012511e-01,9.89787e-01,9.99999e-01,9.99999e-01,9.99914e-01,9.89871e-01,9.99999e-01
7.726452574e-01,9.90000e-01,9.99999e-01,9.99999e-01,9.99929e-01,9.90070e-01,9.99999e-01
7.765084837e-01,9.90166e-01,9.99999e-01,9.99999e-01,9.99899e-01,9.90265e-01,9.99999e-01
7.803910261e-01,9.90025e-01,9.99999e-01,9.99999e-01,9.99564e-01,9.90456e-01,9.99999e-01
7.842929812e-01,9.89137e-01,9.99999e-01,9.99999e-01,9.98481e-01,9.90644e-01,9.99996e-01
7.882144461e-01,9.87734e-01,9.99999e-01,9.99999e-01,9.96897e-01,9.90828e-01,9.99978e-01
7.921555184e-01,9.89294e-01,9.99999e-01,9.99999e-01,9.98306e-01,9.91008e-01,9.99962e-01
7.961162960e-01,9.88153e-01,9.99999e-01,9.99999e-01,9.96975e-01,9.91185e-01,9.99964e-01
8.000968774e-01,9.87878e-01,9.99999e-01,9.99999e-01,9.96526e-01,9.91358e-01,9.99962e-01
8.040973618e-01,9.88051e-01,9.99999e-01,9.99999e-01,9.96520e-01,9.91528e-01,9.99970e-01
8.081178486e-01,9.83853e-01,9.99999e-01,9.99999e-01,9.92120e-01,9.91695e-01,9.99970e-01
8.121584379e-01,9.59572e-01,9.99999e-01,9.99999e-01,9.67554e-01,9.91858e-01,9.99889e-01
8.162192301e-01,9.53852e-01,9.99999e-01,9.99999e-01,9.61921e-01,9.92019e-01,9.99587e-01
8.203003262e-01,9.72334e-01,9.99999e-01,9.99999e-01,9.80474e-01,9.92176e-01,9.99517e-01
8.244018279e-01,9.65570e-01,9.99999e-01,9.99999e-01,9.73406e-01,9.92330e-01,9.99615e-01
8.285238370e-01,9.69358e-01,9.99999e-01,9.99999e-01,9.76996e-01,9.92480e-01,9.99698e-01
8.326664562e-01,9.69508e-01,9.99999e-01,9.99999e-01,9.76829e-01,9.92628e-01,9.99874e-01
8.368297885e-01,9.76310e-01,9.99999e-01,9.99999e-01,9.83444e-01,9.92773e-01,9.99971e-01
8.410139374e-01,9.83110e-01,9.99999e-01,9.99999e-01,9.90140e-01,9.92916e-01,9.99982e-01
8.452190071e-01,9.88241e-01,9.99999e-01,9.99999e-01,9.95161e-01,9.93055e-01,9.99989e-01
8.494451021e-01,9.90385e-01,9.99999e-01,9.99999e-01,9.97181e-01,9.93192e-01,9.99991e-01
8.536923276e-01,9.91670e-01,9.99999e-01,9.99999e-01,9.98337e-01,9.93326e-01,9.99994e-01
8.579607893e-01,9.92437e-01,9.99999e-01,9.99999e-01,9.98973e-01,9.93457e-01,9.99998e-01
8.622505932e-01,9.92939e-01,9.99999e-01,9.99999e-01,9.99349e-01,9.93586e-01,9.99999e-01
8.665618462e-01,9.93311e-01,9.99999e-01,9.99999e-01,9.99595e-01,9.93712e-01,9.99999e-01
8.708946554e-01,9.93376e-01,9.99999e-01,9.99999e-01,9.99536e-01,9.93836e-01,9.99999e-01
8.752491287e-01,9.93341e-01,9.99999e-01,9.99999e-01,9.99380e-01,9.93957e-01,9.99998e-01
8.796253743e-01,9.93220e-01,9.99999e-01,9.99999e-01,9.99139e-01,9.94076e-01,9.99997e-01
8.840235012e-01,9.93211e-01,9.99999e-01,9.99999e-01,9.99017e-01,9.94193e-01,9.99993e-01
8.884436187e-01,9.90670e-01,9.99999e-01,9.99999e-01,9.96357e-01,9.94307e-01,9.99982e-01
8.928858368e-01,9.57144e-01,9.99999e-01,9.99999e-01,9.62608e-01,9.94420e-01,9.99901e-01
8.973502660e-01,9.29699e-01,9.99999e-01,9.99999e-01,9.35280e-01,9.94529e-01,9.99498e-01
9.018370173e-01,9.60728e-01,9.99999e-01,9.99999e-01,9.66669e-01,9.94637e-01,9.99211e-01
9.063462024e-01,9.64417e-01,9.99999e-01,9.99999e-01,9.70184e-01,9.94743e-01,9.99307e-01
9.108779334e-01,9.48497e-01,9.99999e-01,9.99999e-01,9.54096e-01,9.94846e-01,9.99280e-01
9.154323231e-01,9.42791e-01,9.99999e-01,9.99999e-01,9.48141e-01,9.94948e-01,9.99405e-01
9.200094847e-01,9.54159e-01,9.99999e-01,9.99999e-01,9.59227e-01,9.95047e-01,9.99666e-01
9.246095321e-01,9.30498e-01,9.99999e-01,9.99999e-01,9.35396e-01,9.95145e-01,9.99616e-01
9.292325798e-01,6.38115e-01,9.99999e-01,9.99999e-01,6.42354e-01,9.95241e-01,9.98150e-01
9.338787427e-01,5.60912e-01,9.99999e-01,9.99999e-01,5.67323e-01,9.95334e-01,9.93331e-01
9.385481364e-01,7.86736e-01,9.99999e-01,9.99999e-01,7.96181e-01,9.95426e-01,9.92676e-01
9.432408771e-01,7.17329e-01,9.99999e-01,9.99999e-01,7.25143e-01,9.95516e-01,9.93678e-01
9.479570815e-01,6.34946e-01,9.99999e-01,9.99999e-01,6.41049e-01,9.95605e-01,9.94851e-01
9.526968669e-01,7.13974e-01,9.99999e-01,9.99999e-01,7.19323e-01,9.95691e-01,9.96856e-01
9.574603512e-01,7.35156e-01,9.99999e-01,9.99999e-01,7.39455e-01,9.95776e-01,9.98401e-01
9.622476530e-01,7.78925e-01,9.99999e-01,9.99999e-01,7.83028e-01,9.95860e-01,9.98894e-01
9.670588912e-01,8.64253e-01,9.99999e-01,9.99999e-01,8.68430e-01,9.95941e-01,9.99243e-01
9.718941857e-01,9.11503e-01,9.99999e-01,9.99999e-01,9.15653e-01,9.96021e-01,9.99443e-01
9.767536566e-01,9.25439e-01,9.99999e-01,9.99999e-01,9.29457e-01,9.96100e-01,9.99574e-01
9.816374249e-01,9.43623e-01,9.99999e-01,9.99999e-01,9.47383e-01,9.96176e-01,9.99852e-01
9.865456120e-01,9.63166e-01,9.99999e-01,9.99999e-01,9.66819e-01,9.96252e-01,9.99968e-01
9.914783401e-01,9.75751e-01,9.99999e-01,9.99999e-01,9.79357e-01,9.96326e-01,9.99991e-01
9.964357318e-01,9.85145e-01,9.99999e-01,9.99999e-01,9.88710e-01,9.96398e-01,9.99994e-01
1.001417910e+00,9.89709e-01,9.99999e-01,9.99999e-01,9.93223e-01,9.96469e-01,9.99991e-01
1.006425000e+00,9.92666e-01,9.99999e-01,9.99999e-01,9.96124e-01,9.96539e-01,9.99988e-01
1.011457125e+00,9.94204e-01,9.99999e-01,9.99999e-01,9.97598e-01,9.96607e-01,9.99989e-01
1.016514411e+00,9.95040e-01,9.99999e-01,9.99999e-01,9.98367e-01,9.96674e-01,9.99992e-01
1.021596983e+00,9.95435e-01,9.99999e-01,9.99999e-01,9.98697e-01,9.96739e-01,9.99992e-01
1.026704968e+00,9.95787e-01,9.99999e-01,9.99999e-01,9.98983e-01,9.96804e-01,9.99995e-01
1.031838492e+00,9.96131e-01,9.99999e-01,9.99999e-01,9.99262e-01,9.96867e-01,9.99998e-01
1.036997685e+00,9.96491e-01,9.99999e-01,9.99999e-01,9.99561e-01,9.96928e-01,9.99999e-01
1.042182673e+00,9.96466e-01,9.99999e-01,9.99999e-01,9.99474e-01,9.96989e-01,9.99999e-01
1.047393587e+00,9.96356e-01,9.99999e-01,9.99999e-01,9.99305e-01,9.97048e-01,9.99999e-01
1.052630555e+00,9.96155e-01,9.99999e-01,9.99999e-01,9.99045e-01,9.97107e-01,9.99999e-01
1.057893707e+00,9.95573e-01,9.99999e-01,9.99999e-01,9.98404e-01,9.97164e-01,9.99998e-01
1.063183176e+00,9.94604e-01,9.99999e-01,9.99999e-01,9.97377e-01,9.97220e-01,9.99998e-01
1.068499092e+00,9.92901e-01,9.99999e-01,9.99999e-01,9.95617e-01,9.97274e-01,9.99996e-01
1.073841587e+00,9.92198e-01,9.99999e-01,9.99999e-01,9.94861e-01,9.97328e-01,9.99993e-01
1.079210795e+00,9.90822e-01,9.99999e-01,9.99999e-01,9.93440e-01,9.97381e-01,9.99982e-01
1.084606849e+00,9.87484e-01,9.99999e-01,9.99999e-01,9.90067e-01,9.97432e-01,9.99957e-01
1.090029883e+00,9.83108e-01,9.99999e-01,9.99999e-01,9.85674e-01,9.97483e-01,9.99912e-01
1.095480033e+00,9.58985e-01,9.99999e-01,9.99999e-01,9.61508e-01,9.97533e-01,9.99841e-01
1.100957433e+00,9.02545e-01,9.99999e-01,9.99999e-01,9.04996e-01,9.97581e-01,9.99708e-01
1.106462220e+00,7.72854e-01,9.99999e-01,9.99999e-01,7.75072e-01,9.97629e-01,9.99506e-01
1.111994531e+00,5.84406e-01,9.99999e-01,9.99999e-01,5.86534e-01,9.97676e-01,9.98691e-01
1.117554504e+00,4.18978e-01,9.99999e-01,9.99999e-01,4.21924e-01,9.97722e-01,9.95285e-01
1.123142276e+00,5.23564e-01,9.99999e-01,9.99999e-01,5.30649e-01,9.97767e-01,9.88856e-01
1.128757988e+00,6.55717e-01,9.99999e-01,9.99999e-01,6.65729e-01,9.97811e-01,9.87120e-01
1.134401778e+00,4.03421e-01,9.99999e-01,9.99999e-01,4.08769e-01,9.97854e-01,9.89037e-01
1.140073787e+00,7.76141e-01,9.99999e-01,9.99999e-01,7.84657e-01,9.97896e-01,9.91231e-01
1.145774156e+00,5.97486e-01,9.99999e-01,9.99999e-01,6.03566e-01,9.97938e-01,9.91970e-01
1.151503026e+00,5.65425e-01,9.99999e-01,9.99999e-01,5.69119e-01,9.97978e-01,9.95518e-01
1.157260541e+00,6.23841e-01,9.99999e-01,9.99999e-01,6.25919e-01,9.98018e-01,9.98657e-01
1.163046844e+00,7.06292e-01,9.99999e-01,9.99999e-01,7.07935e-01,9.98057e-01,9.99619e-01
1.168862078e+00,7.85306e-01,9.99999e-01,9.99999e-01,7.86958e-01,9.98096e-01,9.99803e-01
1.174706389e+00,8.60710e-01,9.99999e-01,9.99999e-01,8.62543e-01,9.98133e-01,9.99739e-01
1.180579921e+00,9.11922e-01,9.99999e-01,9.99999e-01,9.13952e-01,9.98170e-01,9.99606e-01
1.186482820e+00,9.48336e-01,9.99999e-01,9.99999e-01,9.50422e-01,9.98206e-01,9.99596e-01
1.192415234e+00,9.68751e-01,9.99999e-01,9.99999e-01,9.70750e-01,9.98241e-01,9.99697e-01
1.198377311e+00,9.73289e-01,9.99999e-01,9.99999e-01,9.75249e-01,9.98276e-01,9.99712e-01
1.204369197e+00,9.74683e-01,9.99999e-01,9.99999e-01,9.76575e-01,9.98310e-01,9.99749e-01
1.210391043e+00,9.75825e-01,9.99999e-01,9.99999e-01,9.77597e-01,9.98343e-01,9.99842e-01
1.216442998e+00,9.79262e-01,9.99999e-01,9.99999e-01,9.80948e-01,9.98376e-01,9.99903e-01
1.222525213e+00,9.83503e-01,9.99999e-01,9.99999e-01,9.85129e-01,9.98408e-01,9.99939e-01
1.228637839e+00,9.88075e-01,9.99999e-01,9.99999e-01,9.89646e-01,9.98440e-01,9.99971e-01
