#,Wave/freq,Total,N2,O2,H2O,Rayleigh,CIA
4.000000000e-01,8.56325e-01,9.99999e-01,9.99999e-01,9.99982e-01,8.56340e-01,9.99999e-01
4.020000000e-01,8.58961e-01,9.99999e-01,9.99999e-01,9.99988e-01,8.58970e-01,9.99999e-01
4.040100000e-01,8.61549e-01,9.99999e-01,9.99999e-01,9.99994e-01,8.61553e-01,9.99999e-01
4.060300500e-01,8.64092e-01,9.99999e-01,9.99999e-01,9.99998e-01,8.64093e-01,9.99999e-01
4.080602003e-01,8.66589e-01,9.99999e-01,9.99999e-01,9.99999e-01,8.66590e-01,9.99999e-01
4.101005013e-01,8.69044e-01,9.99999e-01,9.99999e-01,9.99999e-01,8.69044e-01,9.99999e-01
4.121510038e-01,8.71456e-01,9.99999e-01,9.99999e-01,9.99998e-01,8.71457e-01,9.99999e-01
4.142117588e-01,8.73824e-01,9.99999e-01,9.99999e-01,9.99994e-01,8.73828e-01,9.99999e-01
4.162828176e-01,8.76140e-01,9.99999e-01,9.99999e-01,9.99977e-01,8.76159e-01,9.99999e-01
4.183642317e-01,8.78439e-01,9.99999e-01,9.99999e-01,9.99986e-01,8.78450e-01,9.99999e-01
4.204560528e-01,8.80695e-01,9.99999e-01,9.99999e-01,9.99991e-01,8.80702e-01,9.99999e-01
4.225583331e-01,8.82912e-01,9.99999e-01,9.99999e-01,9.99996e-01,8.82915e-01,9.99999e-01
4.246711247e-01,8.85087e-01,9.99999e-01,9.99999e-01,9.99997e-01,8.85089e-01,9.99999e-01
4.267944804e-01,8.87223e-01,9.99999e-01,9.99999e-01,9.99996e-01,8.87226e-01,9.99999e-01
4.289284528e-01,8.89323e-01,9.99999e-01,9.99999e-01,9.99996e-01,8.89325e-01,9.99999e-01
4.310730950e-01,8.91387e-01,9.99999e-01,9.99999e-01,9.99998e-01,8.91388e-01,9.99999e-01
4.332284605e-01,8.93414e-01,9.99999e-01,9.99999e-01,9.99999e-01,8.93415e-01,9.99999e-01
4.353946028e-01,8.95406e-01,9.99999e-01,9.99999e-01,9.99999e-01,8.95406e-01,9.99999e-01
4.375715758e-01,8.97360e-01,9.99999e-01,9.99999e-01,9.99997e-01,8.97362e-01,9.99999e-01
4.397594337e-01,8.99266e-01,9.99999e-01,9.99999e-01,9.99980e-01,8.99283e-01,9.99999e-01
4.419582309e-01,9.01085e-01,9.99999e-01,9.99999e-01,9.99904e-01,9.01171e-01,9.99999e-01
4.441680220e-01,9.02957e-01,9.99999e-01,9.99999e-01,9.99923e-01,9.03025e-01,9.99999e-01
4.463888621e-01,9.04775e-01,9.99999e-01,9.99999e-01,9.99920e-01,9.04846e-01,9.99999e-01
4.486208064e-01,9.06591e-01,9.99999e-01,9.99999e-01,9.99950e-01,9.06635e-01,9.99999e-01
4.508639105e-01,9.08371e-01,9.99999e-01,9.99999e-01,9.99976e-01,9.08392e-01,9.99999e-01
4.531182300e-01,9.10110e-01,9.99999e-01,9.99999e-01,9.99990e-01,9.10118e-01,9.99999e-01
4.553838212e-01,9.11807e-01,9.99999e-01,9.99999e-01,9.99993e-01,9.11812e-01,9.99999e-01
4.576607403e-01,9.13474e-01,9.99999e-01,9.99999e-01,9.99996e-01,9.13477e-01,9.99999e-01
4.599490440e-01,9.15109e-01,9.99999e-01,9.99999e-01,9.99997e-01,9.15111e-01,9.99999e-01
4.622487892e-01,9.16716e-01,9.99999e-01,9.99999e-01,9.99999e-01,9.16716e-01,9.99999e-01
4.645600332e-01,9.18291e-01,9.99999e-01,9.99999e-01,9.99998e-01,9.18292e-01,9.99999e-01
4.668828333e-01,9.19818e-01,9.99999e-01,9.99999e-01,9.99976e-01,9.19839e-01,9.99999e-01
4.692172475e-01,9.21313e-01,9.99999e-01,9.99999e-01,9.99950e-01,9.21359e-01,9.99999e-01
4.715633337e-01,9.22821e-01,9.99999e-01,9.99999e-01,9.99967e-01,9.22850e-01,9.99999e-01
4.739211504e-01,9.24287e-01,9.99999e-01,9.99999e-01,9.99968e-01,9.24315e-01,9.99999e-01
4.762907561e-01,9.25738e-01,9.99999e-01,9.99999e-01,9.99983e-01,9.25753e-01,9.99999e-01
4.786722099e-01,9.27159e-01,9.99999e-01,9.99999e-01,9.99992e-01,9.27165e-01,9.99999e-01
4.810655710e-01,9.28549e-01,9.99999e-01,9.99999e-01,9.99997e-01,9.28551e-01,9.99999e-01
4.834708988e-01,9.29894e-01,9.99999e-01,9.99999e-01,9.99981e-01,9.29912e-01,9.99999e-01
4.858882533e-01,9.31215e-01,9.99999e-01,9.99999e-01,9.99964e-01,9.31247e-01,9.99999e-01
4.883176946e-01,9.32531e-01,9.99999e-01,9.99999e-01,9.99970e-01,9.32558e-01,9.99999e-01
4.907592831e-01,9.33821e-01,9.99999e-01,9.99999e-01,9.99973e-01,9.33845e-01,9.99999e-01
4.932130795e-01,9.35091e-01,9.99999e-01,9.99999e-01,9.99980e-01,9.35109e-01,9.99999e-01
4.956791449e-01,9.36339e-01,9.99999e-01,9.99999e-01,9.99989e-01,9.36349e-01,9.99999e-01
4.981575406e-01,9.37520e-01,9.99999e-01,9.99999e-01,9.99950e-01,9.37566e-01,9.99999e-01
5.006483283e-01,9.38641e-01,9.99999e-01,9.99999e-01,9.99872e-01,9.38761e-01,9.99998e-01
5.031515699e-01,9.39317e-01,9.99999e-01,9.99999e-01,9.99350e-01,9.39933e-01,9.99992e-01
5.056673278e-01,9.40753e-01,9.99999e-01,9.99999e-01,9.99655e-01,9.41084e-01,9.99991e-01
5.081956644e-01,9.41800e-01,9.99999e-01,9.99999e-01,9.99565e-01,9.42213e-01,9.99994e-01
5.107366428e-01,9.43044e-01,9.99999e-01,9.99999e-01,9.99706e-01,9.43322e-01,9.99998e-01
5.132903260e-01,9.44251e-01,9.99999e-01,9.99999e-01,9.99831e-01,9.44410e-01,9.99999e-01
5.158567776e-01,9.45410e-01,9.99999e-01,9.99999e-01,9.99928e-01,9.45477e-01,9.99999e-01
5.184360615e-01,9.46498e-01,9.99999e-01,9.99999e-01,9.99971e-01,9.46525e-01,9.99999e-01
5.210282418e-01,9.47543e-01,9.99999e-01,9.99999e-01,9.99988e-01,9.47553e-01,9.99999e-01
5.236333830e-01,9.48521e-01,9.99999e-01,9.99999e-01,9.99957e-01,9.48562e-01,9.99999e-01
5.262515499e-01,9.49526e-01,9.99999e-01,9.99999e-01,9.99972e-01,9.49551e-01,9.99999e-01
5.288828077e-01,9.50500e-01,9.99999e-01,9.99999e-01,9.99975e-01,9.50523e-01,9.99999e-01
5.315272217e-01,9.51456e-01,9.99999e-01,9.99999e-01,9.99978e-01,9.51476e-01,9.99999e-01
5.341848578e-01,9.52398e-01,9.99999e-01,9.99999e-01,9.99985e-01,9.52411e-01,9.99999e-01
5.368557821e-01,9.53282e-01,9.99999e-01,9.99999e-01,9.99950e-01,9.53329e-01,9.99999e-01
5.395400610e-01,9.54060e-01,9.99999e-01,9.99999e-01,9.99823e-01,9.54229e-01,9.99998e-01
5.422377613e-01,9.54888e-01,9.99999e-01,9.99999e-01,9.99768e-01,9.55113e-01,9.99995e-01
5.449489501e-01,9.55772e-01,9.99999e-01,9.99999e-01,9.99786e-01,9.55980e-01,9.99995e-01
5.476736949e-01,9.56646e-01,9.99999e-01,9.99999e-01,9.99809e-01,9.56830e-01,9.99997e-01
5.504120634e-01,9.57532e-01,9.99999e-01,9.99999e-01,9.99861e-01,9.57665e-01,9.99998e-01
5.531641237e-01,9.58416e-01,9.99999e-01,9.99999e-01,9.99930e-01,9.58483e-01,9.99999e-01
5.559299443e-01,9.59254e-01,9.99999e-01,9.99999e-01,9.99965e-01,9.59286e-01,9.99999e-01
5.587095940e-01,9.60054e-01,9.99999e-01,9.99999e-01,9.99978e-01,9.60074e-01,9.99999e-01
5.615031420e-01,9.60825e-01,9.99999e-01,9.99999e-01,9.99976e-01,9.60847e-01,9.99999e-01
5.643106577e-01,9.61580e-01,9.99999e-01,9.99999e-01,9.99973e-01,9.61605e-01,9.99999e-01
5.671322110e-01,9.62043e-01,9.99999e-01,9.99999e-01,9.99684e-01,9.62349e-01,9.99996e-01
5.699678720e-01,9.62738e-01,9.99999e-01,9.99999e-01,9.99654e-01,9.63079e-01,9.99990e-01
5.728177114e-01,9.63445e-01,9.99999e-01,9.99999e-01,9.99644e-01,9.63795e-01,9.99992e-01
5.756818000e-01,9.64178e-01,9.99999e-01,9.99999e-01,9.99672e-01,9.64497e-01,9.99995e-01
5.785602090e-01,9.64909e-01,9.99999e-01,9.99999e-01,9.99714e-01,9.65186e-01,9.99998e-01
5.814530100e-01,9.65585e-01,9.99999e-01,9.99999e-01,9.99713e-01,9.65862e-01,9.99998e-01
5.843602750e-01,9.66196e-01,9.99999e-01,9.99999e-01,9.99661e-01,9.66525e-01,9.99997e-01
5.872820764e-01,9.64331e-01,9.99999e-01,9.99999e-01,9.97079e-01,9.67175e-01,9.99978e-01
5.902184868e-01,9.64304e-01,9.99999e-01,9.99999e-01,9.96430e-01,9.67813e-01,9.99943e-01
5.931695792e-01,9.65950e-01,9.99999e-01,9.99999e-01,9.97484e-01,9.68438e-01,9.99944e-01
5.961354271e-01,9.66343e-01,9.99999e-01,9.99999e-01,9.97237e-01,9.69052e-01,9.99966e-01
5.991161043e-01,9.67689e-01,9.99999e-01,9.99999e-01,9.97982e-01,9.69654e-01,9.99989e-01
6.021116848e-01,9.69131e-01,9.99999e-01,9.99999e-01,9.98853e-01,9.70244e-01,9.99998e-01
6.051222432e-01,9.70260e-01,9.99999e-01,9.99999e-01,9.99419e-01,9.70823e-01,9.99999e-01
6.081478544e-01,9.71149e-01,9.99999e-01,9.99999e-01,9.99749e-01,9.71391e-01,9.99999e-01
6.111885937e-01,9.71845e-01,9.99999e-01,9.99999e-01,9.99893e-01,9.71948e-01,9.99999e-01
6.142445367e-01,9.72449e-01,9.99999e-01,9.99999e-01,9.99952e-01,9.72495e-01,9.99999e-01
6.173157594e-01,9.73005e-01,9.99999e-01,9.99999e-01,9.99973e-01,9.73031e-01,9.99999e-01
6.204023382e-01,9.73535e-01,9.99999e-01,9.99999e-01,9.99977e-01,9.73556e-01,9.99999e-01
6.235043498e-01,9.73979e-01,9.99999e-01,9.99999e-01,9.99904e-01,9.74072e-01,9.99999e-01
6.266218716e-01,9.74075e-01,9.99999e-01,9.99999e-01,9.99487e-01,9.74577e-01,9.99995e-01
6.297549810e-01,9.74883e-01,9.99999e-01,9.99999e-01,9.99811e-01,9.75073e-01,9.99992e-01
6.329037559e-01,9.75191e-01,9.99999e-01,9.99999e-01,9.99627e-01,9.75559e-01,9.99993e-01
6.360682746e-01,9.75725e-01,9.99999e-01,9.99999e-01,9.99683e-01,9.76036e-01,9.99996e-01
6.392486160e-01,9.76102e-01,9.99999e-01,9.99999e-01,9.99589e-01,9.76504e-01,9.99997e-01
6.424448591e-01,9.76480e-01,9.99999e-01,9.99999e-01,9.99508e-01,9.76963e-01,9.99997e-01
6.456570834e-01,9.74947e-01,9.99999e-01,9.99999e-01,9.97490e-01,9.77413e-01,9.99985e-01
6.488853688e-01,9.75669e-01,9.99999e-01,9.99999e-01,9.97804e-01,9.77854e-01,9.99960e-01
6.521297956e-01,9.76389e-01,9.99999e-01,9.99999e-01,9.98093e-01,9.78286e-01,9.99966e-01
6.553904446e-01,9.76845e-01,9.99999e-01,9.99999e-01,9.98118e-01,9.78711e-01,9.99974e-01
6.586673968e-01,9.77526e-01,9.99999e-01,9.99999e-01,9.98372e-01,9.79127e-01,9.99991e-01
6.619607338e-01,9.78613e-01,9.99999e-01,9.99999e-01,9.99059e-01,9.79535e-01,9.99997e-01
6.652705375e-01,9.79399e-01,9.99999e-01,9.99999e-01,9.99453e-01,9.79935e-01,9.99998e-01
6.685968902e-01,9.80079e-01,9.99999e-01,9.99999e-01,9.99746e-01,9.80327e-01,9.99999e-01
6.719398746e-01,9.80597e-01,9.99999e-01,9.99999e-01,9.99882e-01,9.80712e-01,9.99999e-01
6.752995740e-01,9.81027e-01,9.99999e-01,9.99999e-01,9.99936e-01,9.81089e-01,9.99999e-01
6.786760719e-01,9.81370e-01,9.99999e-01,9.99999e-01,9.99908e-01,9.81460e-01,9.99999e-01
6.820694522e-01,9.81668e-01,9.99999e-01,9.99999e-01,9.99843e-01,9.81822e-01,9.99998e-01
6.854797995e-01,9.81979e-01,9.99999e-01,9.99999e-01,9.99798e-01,9.82178e-01,9.99997e-01
6.889071985e-01,9.82052e-01,9.99999e-01,9.99999e-01,9.99519e-01,9.82527e-01,9.99995e-01
6.923517345e-01,9.75059e-01,9.99999e-01,9.99999e-01,9.92090e-01,9.82869e-01,9.99961e-01
6.958134932e-01,9.78990e-01,9.99999e-01,9.99999e-01,9.95798e-01,9.83205e-01,9.99913e-01
6.992925606e-01,9.79611e-01,9.99999e-01,9.99999e-01,9.96086e-01,9.83534e-01,9.99923e-01
7.027890234e-01,9.79010e-01,9.99999e-01,9.99999e-01,9.95131e-01,9.83856e-01,9.99941e-01
7.063029686e-01,9.80120e-01,9.99999e-01,9.99999e-01,9.95910e-01,9.84173e-01,9.99970e-01
7.098344834e-01,9.80603e-01,9.99999e-01,9.99999e-01,9.96075e-01,9.84483e-01,9.99982e-01
7.133836558e-01,9.79670e-01,9.99999e-01,9.99999e-01,9.94837e-01,9.84787e-01,9.99965e-01
7.169505741e-01,9.44281e-01,9.99999e-01,9.99999e-01,9.58834e-01,9.85085e-01,9.99731e-01
7.205353270e-01,9.64515e-01,9.99999e-01,9.99999e-01,9.79290e-01,9.85378e-01,9.99527e-01
7.241380036e-01,9.59806e-01,9.99999e-01,9.99999e-01,9.74165e-01,9.85664e-01,9.99588e-01
7.277586936e-01,9.62582e-01,9.99999e-01,9.99999e-01,9.76636e-01,9.85945e-01,9.99658e-01
7.313974871e-01,9.61447e-01,9.99999e-01,9.99999e-01,9.75031e-01,9.86221e-01,9.99843e-01
7.350544745e-01,9.72943e-01,9.99999e-01,9.99999e-01,9.86318e-01,9.86491e-01,9.99945e-01
7.387297469e-01,9.76778e-01,9.99999e-01,9.99999e-01,9.89912e-01,9.86756e-01,9.99974e-01
7.424233956e-01,9.82119e-01,9.99999e-01,9.99999e-01,9.95042e-01,9.87016e-01,9.99994e-01
7.461355126e-01,9.84308e-01,9.99999e-01,9.99999e-01,9.96998e-01,9.87271e-01,9.99998e-01
7.498661902e-01,9.86137e-01,9.99999e-01,9.99999e-01,9.98598e-01,9.87521e-01,9.99999e-01
7.536155211e-01,9.87089e-01,9.99999e-01,9.99999e-01,9.99314e-01,9.87766e-01,9.99999e-01
7.573835987e-01,9.87657e-01,9.99999e-01,9.99999e-01,9.99646e-01,9.88006e-01,9.99999e-01
7.611705167e-01,9.88025e-01,9.99999e-01,9.99999e-01,9.99780e-01,9.88242e-01,9.99999e-01
7.649763693e-01,9.88337e-01,9.99999e-01,9.99999e-01,9.99862e-01,9.88472e-01,9.99999e-01
7.688012511e-01,9.88605e-01,9.99999e-01,9.99999e-01,9.99904e-01,9.88699e-01,9.99999e-01
7.726452574e-01,9.88843e-01,9.99999e-01,9.99999e-01,9.99921e-01,9.88921e-01,9.99999e-01
7.765084837e-01,9.89029e-01,9.99999e-01,9.99999e-01,9.99888e-01,9.89138e-01,9.99999e-01
7.803910261e-01,9.88879e-01,9.99999e-01,9.99999e-01,9.99521e-01,9.89352e-01,9.99999e-01
7.842929812e-01,9.87909e-01,9.99999e-01,9.99999e-01,9.98332e-01,9.89561e-01,9.99996e-01
7.882144461e-01,9.86319e-01,9.99999e-01,9.99999e-01,9.96537e-01,9.89766e-01,9.99978e-01
7.921555184e-01,9.88037e-01,9.99999e-01,9.99999e-01,9.98090e-01,9.89967e-01,9.99958e-01
7.961162960e-01,9.86823e-01,9.99999e-01,9.99999e-01,9.96663e-01,9.90164e-01,9.99960e-01
8.000968774e-01,9.86480e-01,9.99999e-01,9.99999e-01,9.96125e-01,9.90358e-01,9.99957e-01
8.040973618e-01,9.86682e-01,9.99999e-01,9.99999e-01,9.96129e-01,9.90547e-01,9.99966e-01
8.081178486e-01,9.82129e-01,9.99999e-01,9.99999e-01,9.91346e-01,9.90733e-01,9.99968e-01
8.121584379e-01,9.55400e-01,9.99999e-01,9.99999e-01,9.64276e-01,9.90915e-01,9.99877e-01
8.162192301e-01,9.48337e-01,9.99999e-01,9.99999e-01,9.57298e-01,9.91094e-01,9.99539e-01
8.203003262e-01,9.69751e-01,9.99999e-01,9.99999e-01,9.78819e-01,9.91269e-01,9.99461e-01
8.244018279e-01,9.61039e-01,9.99999e-01,9.99999e-01,9.69750e-01,9.91441e-01,9.99571e-01
8.285238370e-01,9.65981e-01,9.99999e-01,9.99999e-01,9.74481e-01,9.91609e-01,9.99663e-01
8.326664562e-01,9.65950e-01,9.99999e-01,9.99999e-01,9.74096e-01,9.91774e-01,9.99860e-01
8.368297885e-01,9.73473e-01,9.99999e-01,9.99999e-01,9.81417e-01,9.91936e-01,9.99967e-01
8.410139374e-01,9.81083e-01,9.99999e-01,9.99999e-01,9.88918e-01,9.92095e-01,9.99980e-01
8.452190071e-01,9.86830e-01,9.99999e-01,9.99999e-01,9.94548e-01,9.92250e-01,9.99988e-01
8.494451021e-01,9.89264e-01,9.99999e-01,9.99999e-01,9.96846e-01,9.92403e-01,9.99990e-01
8.536923276e-01,9.90688e-01,9.99999e-01,9.99999e-01,9.98127e-01,9.92552e-01,9.99993e-01
8.579607893e-01,9.91556e-01,9.99999e-01,9.99999e-01,9.98850e-01,9.92699e-01,9.99997e-01
8.622505932e-01,9.92115e-01,9.99999e-01,9.99999e-01,9.99267e-01,9.92842e-01,9.99999e-01
8.665618462e-01,9.92535e-01,9.99999e-01,9.99999e-01,9.99548e-01,9.92983e-01,9.99999e-01
8.708946554e-01,9.92609e-01,9.99999e-01,9.99999e-01,9.99484e-01,9.93121e-01,9.99999e-01
8.752491287e-01,9.92571e-01,9.99999e-01,9.99999e-01,9.99309e-01,9.93257e-01,9.99998e-01
8.796253743e-01,9.92441e-01,9.99999e-01,9.99999e-01,9.99046e-01,9.93389e-01,9.99997e-01
8.840235012e-01,9.92431e-01,9.99999e-01,9.99999e-01,9.98910e-01,9.93520e-01,9.99992e-01
8.884436187e-01,9.89750e-01,9.99999e-01,9.99999e-01,9.96096e-01,9.93647e-01,9.99980e-01
8.928858368e-01,9.52945e-01,9.99999e-01,9.99999e-01,9.59020e-01,9.93772e-01,9.99890e-01
8.973502660e-01,9.21757e-01,9.99999e-01,9.99999e-01,9.27937e-01,9.93895e-01,9.99440e-01
9.018370173e-01,9.55678e-01,9.99999e-01,9.99999e-01,9.62277e-01,9.94015e-01,9.99120e-01
9.063462024e-01,9.60834e-01,9.99999e-01,9.99999e-01,9.67250e-01,9.94133e-01,9.99227e-01
9.108779334e-01,9.42914e-01,9.99999e-01,9.99999e-01,9.49129e-01,9.94248e-01,9.99197e-01
9.154323231e-01,9.36390e-01,9.99999e-01,9.99999e-01,9.42324e-01,9.94362e-01,9.99336e-01
9.200094847e-01,9.48788e-01,9.99999e-01,9.99999e-01,9.54414e-01,9.94473e-01,9.99628e-01
9.246095321e-01,9.25322e-01,9.99999e-01,9.99999e-01,9.30760e-01,9.94582e-01,9.99571e-01
9.292325798e-01,6.10596e-01,9.99999e-01,9.99999e-01,6.14881e-01,9.94688e-01,9.98332e-01
9.338787427e-01,5.24291e-01,9.99999e-01,9.99999e-01,5.30683e-01,9.94793e-01,9.93126e-01
9.385481364e-01,7.64168e-01,9.99999e-01,9.99999e-01,7.74414e-01,9.94895e-01,9.91830e-01
9.432408771e-01,6.94139e-01,9.99999e-01,9.99999e-01,7.02584e-01,9.94996e-01,9.92947e-01
9.479570815e-01,6.08081e-01,9.99999e-01,9.99999e-01,6.14608e-01,9.95095e-01,9.94256e-01
9.526968669e-01,6.86719e-01,9.99999e-01,9.99999e-01,6.92464e-01,9.95191e-01,9.96492e-01
9.574603512e-01,7.09577e-01,9.99999e-01,9.99999e-01,7.14210e-01,9.95286e-01,9.98216e-01
9.622476530e-01,7.55527e-01,9.99999e-01,9.99999e-01,7.59971e-01,9.95379e-01,9.98766e-01
9.670588912e-01,8.49361e-01,9.99999e-01,9.99999e-01,8.53946e-01,9.95470e-01,9.99156e-01
9.718941857e-01,9.01657e-01,9.99999e-01,9.99999e-01,9.06241e-01,9.95559e-01,9.99378e-01
9.767536566e-01,9.17118e-01,9.99999e-01,9.99999e-01,9.21564e-01,9.95647e-01,9.99524e-01
9.816374249e-01,9.36980e-01,9.99999e-01,9.99999e-01,9.41149e-01,9.95732e-01,9.99835e-01
9.865456120e-01,9.58756e-01,9.99999e-01,9.99999e-01,9.62816e-01,9.95817e-01,9.99965e-01
9.914783401e-01,9.72858e-01,9.99999e-01,9.99999e-01,9.76873e-01,9.95899e-01,9.99990e-01
9.964357318e-01,9.83363e-01,9.99999e-01,9.99999e-01,9.87337e-01,9.95980e-01,9.99993e-01
1.001417910e+00,9.88473e-01,9.99999e-01,9.99999e-01,9.92391e-01,9.96059e-01,9.99991e-01
1.006425000e+00,9.91808e-01,9.99999e-01,9.99999e-01,9.95665e-01,9.96137e-01,9.99987e-01
1.011457125e+00,9.93513e-01,9.99999e-01,9.99999e-01,9.97300e-01,9.96213e-01,9.99988e-01
1.016514411e+00,9.94457e-01,9.99999e-01,9.99999e-01,9.98169e-01,9.96288e-01,9.99991e-01
1.021596983e+00,9.94901e-01,9.99999e-01,9.99999e-01,9.98542e-01,9.96361e-01,9.99991e-01
1.026704968e+00,9.95295e-01,9.99999e-01,9.99999e-01,9.98863e-01,9.96432e-01,9.99994e-01
1.031838492e+00,9.95677e-01,9.99999e-01,9.99999e-01,9.99172e-01,9.96503e-01,9.99998e-01
1.036997685e+00,9.96083e-01,9.99999e-01,9.99999e-01,9.99509e-01,9.96572e-01,9.99999e-01
1.042182673e+00,9.96059e-01,9.99999e-01,9.99999e-01,9.99416e-01,9.96639e-01,9.99999e-01
1.047393587e+00,9.95934e-01,9.99999e-01,9.99999e-01,9.99225e-01,9.96706e-01,9.99999e-01
1.052630555e+00,9.95713e-01,9.99999e-01,9.99999e-01,9.98938e-01,9.96771e-01,9.99999e-01
1.057893707e+00,9.95071e-01,9.99999e-01,9.99999e-01,9.98231e-01,9.96834e-01,9.99998e-01
1.063183176e+00,9.93992e-01,9.99999e-01,9.99999e-01,9.97087e-01,9.96897e-01,9.99997e-01
1.068499092e+00,9.92090e-01,9.99999e-01,9.99999e-01,9.95119e-01,9.96958e-01,9.99996e-01
1.073841587e+00,9.91328e-01,9.99999e-01,9.99999e-01,9.94300e-01,9.97018e-01,9.99992e-01
1.079210795e+00,9.89757e-01,9.99999e-01,9.99999e-01,9.92677e-01,9.97077e-01,9.99979e-01
1.084606849e+00,9.86071e-01,9.99999e-01,9.99999e-01,9.88951e-01,9.97134e-01,9.99952e-01
1.090029883e+00,9.81388e-01,9.99999e-01,9.99999e-01,9.84248e-01,9.97191e-01,9.99902e-01
1.095480033e+00,9.54766e-01,9.99999e-01,9.99999e-01,9.57571e-01,9.97246e-01,9.99823e-01
1.100957433e+00,8.92938e-01,9.99999e-01,9.99999e-01,8.95645e-01,9.97300e-01,9.99675e-01
1.106462220e+00,7.53607e-01,9.99999e-01,9.99999e-01,7.56022e-01,9.97354e-01,9.99449e-01
1.111994531e+00,5.51637e-01,9.99999e-01,9.99999e-01,5.53879e-01,9.97406e-01,9.98540e-01
1.117554504e+00,3.81314e-01,9.99999e-01,9.99999e-01,3.84307e-01,9.97457e-01,9.94740e-01
1.123142276e+00,4.86867e-01,9.99999e-01,9.99999e-01,4.94225e-01,9.97507e-01,9.87572e-01
1.128757988e+00,6.26874e-01,9.99999e-01,9.99999e-01,6.37566e-01,9.97556e-01,9.85637e-01
1.134401778e+00,3.67936e-01,9.99999e-01,9.99999e-01,3.73493e-01,9.97604e-01,9.87486e-01
1.140073787e+00,7.55166e-01,9.99999e-01,9.99999e-01,7.64618e-01,9.97652e-01,9.89960e-01
1.145774156e+00,5.64197e-01,9.99999e-01,9.99999e-01,5.70608e-01,9.97698e-01,9.91043e-01
1.151503026e+00,5.31827e-01,9.99999e-01,9.99999e-01,5.35707e-01,9.97743e-01,9.95000e-01
1.157260541e+00,5.91315e-01,9.99999e-01,9.99999e-01,5.93514e-01,9.97788e-01,9.98502e-01
1.163046844e+00,6.77690e-01,9.99999e-01,9.99999e-01,6.79450e-01,9.97832e-01,9.99574e-01
1.168862078e+00,7.62711e-01,9.99999e-01,9.99999e-01,7.64502e-01,9.97874e-01,9.99780e-01
1.174706389e+00,8.45325e-01,9.99999e-01,9.99999e-01,8.47335e-01,9.97916e-01,9.99709e-01
1.180579921e+00,9.01760e-01,9.99999e-01,9.99999e-01,9.04001e-01,9.97957e-01,9.99561e-01
1.186482820e+00,9.42321e-01,9.99999e-01,9.99999e-01,9.44636e-01,9.97998e-01,9.99549e-01
1.192415234e+00,9.65124e-01,9.99999e-01,9.99999e-01,9.67347e-01,9.98037e-01,9.99662e-01
1.198377311e+00,9.70278e-01,9.99999e-01,9.99999e-01,9.72457e-01,9.98076e-01,9.99681e-01
1.204369197e+00,9.71773e-01,9.99999e-01,9.99999e-01,9.73889e-01,9.98114e-01,9.99711e-01
1.210391043e+00,9.73041e-01,9.99999e-01,9.99999e-01,9.75013e-01,9.98151e-01,9.99824e-01
1.216442998e+00,9.76783e-01,9.99999e-01,9.99999e-01,9.78661e-01,9.98187e-01,9.99892e-01
1.222525213e+00,9.81554e-01,9.99999e-01,9.99999e-01,9.83366e-01,9.98223e-01,9.99932e-01
1.228637839e+00,9.86679e-01,9.99999e-01,9.99999e-01,9.88430e-01,9.98258e-01,9.99968e-01
