#,Wave/freq,Total,N2,O2,H2O,Rayleigh,CIA
4.000000000e-01,9.24275e-01,9.99999e-01,9.99999e-01,9.99990e-01,9.24283e-01,9.99999e-01
4.020000000e-01,9.25718e-01,9.99999e-01,9.99999e-01,9.99993e-01,9.25723e-01,9.99999e-01
4.040100000e-01,9.27133e-01,9.99999e-01,9.99999e-01,9.99997e-01,9.27135e-01,9.99999e-01
4.060300500e-01,9.28521e-01,9.99999e-01,9.99999e-01,9.99998e-01,9.28522e-01,9.99999e-01
4.080602003e-01,9.29883e-01,9.99999e-01,9.99999e-01,9.99999e-01,9.29883e-01,9.99999e-01
4.101005013e-01,9.31219e-01,9.99999e-01,9.99999e-01,9.99999e-01,9.31219e-01,9.99999e-01
4.121510038e-01,9.32531e-01,9.99999e-01,9.99999e-01,9.99999e-01,9.32531e-01,9.99999e-01
4.142117588e-01,9.33816e-01,9.99999e-01,9.99999e-01,9.99997e-01,9.33819e-01,9.99999e-01
4.162828176e-01,9.35072e-01,9.99999e-01,9.99999e-01,9.99988e-01,9.35082e-01,9.99999e-01
4.183642317e-01,9.36317e-01,9.99999e-01,9.99999e-01,9.99992e-01,9.36323e-01,9.99999e-01
4.204560528e-01,9.37537e-01,9.99999e-01,9.99999e-01,9.99995e-01,9.37541e-01,9.99999e-01
4.225583331e-01,9.38734e-01,9.99999e-01,9.99999e-01,9.99998e-01,9.38736e-01,9.99999e-01
4.246711247e-01,9.39908e-01,9.99999e-01,9.99999e-01,9.99998e-01,9.39909e-01,9.99999e-01
4.267944804e-01,9.41058e-01,9.99999e-01,9.99999e-01,9.99997e-01,9.41060e-01,9.99999e-01
4.289284528e-01,9.42188e-01,9.99999e-01,9.99999e-01,9.99998e-01,9.42190e-01,9.99999e-01
4.310730950e-01,9.43298e-01,9.99999e-01,9.99999e-01,9.99998e-01,9.43299e-01,9.99999e-01
4.332284605e-01,9.44387e-01,9.99999e-01,9.99999e-01,9.99999e-01,9.44387e-01,9.99999e-01
4.353946028e-01,9.45455e-01,9.99999e-01,9.99999e-01,9.99999e-01,9.45455e-01,9.99999e-01
4.375715758e-01,9.46502e-01,9.99999e-01,9.99999e-01,9.99998e-01,9.46503e-01,9.99999e-01
4.397594337e-01,9.47522e-01,9.99999e-01,9.99999e-01,9.99989e-01,9.47531e-01,9.99999e-01
4.419582309e-01,9.48494e-01,9.99999e-01,9.99999e-01,9.99950e-01,9.48541e-01,9.99999e-01
4.441680220e-01,9.49495e-01,9.99999e-01,9.99999e-01,9.99961e-01,9.49531e-01,9.99999e-01
4.463888621e-01,9.50465e-01,9.99999e-01,9.99999e-01,9.99959e-01,9.50503e-01,9.99999e-01
4.486208064e-01,9.51433e-01,9.99999e-01,9.99999e-01,9.99974e-01,9.51456e-01,9.99999e-01
4.508639105e-01,9.52381e-01,9.99999e-01,9.99999e-01,9.99987e-01,9.52392e-01,9.99999e-01
4.531182300e-01,9.53306e-01,9.99999e-01,9.99999e-01,9.99994e-01,9.53310e-01,9.99999e-01
4.553838212e-01,9.54208e-01,9.99999e-01,9.99999e-01,9.99996e-01,9.54211e-01,9.99999e-01
4.576607403e-01,9.55093e-01,9.99999e-01,9.99999e-01,9.99998e-01,9.55094e-01,9.99999e-01
4.599490440e-01,9.55961e-01,9.99999e-01,9.99999e-01,9.99998e-01,9.55962e-01,9.99999e-01
4.622487892e-01,9.56812e-01,9.99999e-01,9.99999e-01,9.99999e-01,9.56812e-01,9.99999e-01
4.645600332e-01,9.57646e-01,9.99999e-01,9.99999e-01,9.99998e-01,9.57647e-01,9.99999e-01
4.668828333e-01,9.58455e-01,9.99999e-01,9.99999e-01,9.99987e-01,9.58466e-01,9.99999e-01
4.692172475e-01,9.59246e-01,9.99999e-01,9.99999e-01,9.99974e-01,9.59269e-01,9.99999e-01
4.715633337e-01,9.60042e-01,9.99999e-01,9.99999e-01,9.99983e-01,9.60058e-01,9.99999e-01
4.739211504e-01,9.60816e-01,9.99999e-01,9.99999e-01,9.99983e-01,9.60831e-01,9.99999e-01
4.762907561e-01,9.61582e-01,9.99999e-01,9.99999e-01,9.99991e-01,9.61590e-01,9.99999e-01
4.786722099e-01,9.62331e-01,9.99999e-01,9.99999e-01,9.99996e-01,9.62334e-01,9.99999e-01
4.810655710e-01,9.63063e-01,9.99999e-01,9.99999e-01,9.99998e-01,9.63064e-01,9.99999e-01
4.834708988e-01,9.63771e-01,9.99999e-01,9.99999e-01,9.99989e-01,9.63780e-01,9.99999e-01
4.858882533e-01,9.64466e-01,9.99999e-01,9.99999e-01,9.99981e-01,9.64483e-01,9.99999e-01
4.883176946e-01,9.65158e-01,9.99999e-01,9.99999e-01,9.99984e-01,9.65172e-01,9.99999e-01
4.907592831e-01,9.65835e-01,9.99999e-01,9.99999e-01,9.99986e-01,9.65848e-01,9.99999e-01
4.932130795e-01,9.66502e-01,9.99999e-01,9.99999e-01,9.99990e-01,9.66511e-01,9.99999e-01
4.956791449e-01,9.67157e-01,9.99999e-01,9.99999e-01,9.99994e-01,9.67161e-01,9.99999e-01
4.981575406e-01,9.67775e-01,9.99999e-01,9.99999e-01,9.99974e-01,9.67800e-01,9.99999e-01
5.006483283e-01,9.68362e-01,9.99999e-01,9.99999e-01,9.99934e-01,9.68425e-01,9.99999e-01
5.031515699e-01,9.68716e-01,9.99999e-01,9.99999e-01,9.99669e-01,9.69039e-01,9.99996e-01
5.056673278e-01,9.69469e-01,9.99999e-01,9.99999e-01,9.99825e-01,9.69641e-01,9.99995e-01
5.081956644e-01,9.70016e-01,9.99999e-01,9.99999e-01,9.99779e-01,9.70232e-01,9.99996e-01
5.107366428e-01,9.70667e-01,9.99999e-01,9.99999e-01,9.99851e-01,9.70811e-01,9.99999e-01
5.132903260e-01,9.71297e-01,9.99999e-01,9.99999e-01,9.99914e-01,9.71380e-01,9.99999e-01
5.158567776e-01,9.71902e-01,9.99999e-01,9.99999e-01,9.99963e-01,9.71937e-01,9.99999e-01
5.184360615e-01,9.72470e-01,9.99999e-01,9.99999e-01,9.99985e-01,9.72483e-01,9.99999e-01
5.210282418e-01,9.73014e-01,9.99999e-01,9.99999e-01,9.99994e-01,9.73020e-01,9.99999e-01
5.236333830e-01,9.73524e-01,9.99999e-01,9.99999e-01,9.99977e-01,9.73545e-01,9.99999e-01
5.262515499e-01,9.74048e-01,9.99999e-01,9.99999e-01,9.99986e-01,9.74061e-01,9.99999e-01
5.288828077e-01,9.74555e-01,9.99999e-01,9.99999e-01,9.99987e-01,9.74567e-01,9.99999e-01
5.315272217e-01,9.75052e-01,9.99999e-01,9.99999e-01,9.99988e-01,9.75063e-01,9.99999e-01
5.341848578e-01,9.75542e-01,9.99999e-01,9.99999e-01,9.99992e-01,9.75549e-01,9.99999e-01
5.368557821e-01,9.76002e-01,9.99999e-01,9.99999e-01,9.99974e-01,9.76026e-01,9.99999e-01
5.395400610e-01,9.76405e-01,9.99999e-01,9.99999e-01,9.99908e-01,9.76494e-01,9.99998e-01
5.422377613e-01,9.76837e-01,9.99999e-01,9.99999e-01,9.99882e-01,9.76953e-01,9.99997e-01
5.449489501e-01,9.77295e-01,9.99999e-01,9.99999e-01,9.99890e-01,9.77403e-01,9.99997e-01
5.476736949e-01,9.77749e-01,9.99999e-01,9.99999e-01,9.99903e-01,9.77845e-01,9.99998e-01
5.504120634e-01,9.78209e-01,9.99999e-01,9.99999e-01,9.99929e-01,9.78277e-01,9.99999e-01
5.531641237e-01,9.78667e-01,9.99999e-01,9.99999e-01,9.99964e-01,9.78702e-01,9.99999e-01
5.559299443e-01,9.79102e-01,9.99999e-01,9.99999e-01,9.99982e-01,9.79118e-01,9.99999e-01
5.587095940e-01,9.79516e-01,9.99999e-01,9.99999e-01,9.99988e-01,9.79526e-01,9.99999e-01
5.615031420e-01,9.79915e-01,9.99999e-01,9.99999e-01,9.99987e-01,9.79927e-01,9.99999e-01
5.643106577e-01,9.80306e-01,9.99999e-01,9.99999e-01,9.99986e-01,9.80319e-01,9.99999e-01
5.671322110e-01,9.80542e-01,9.99999e-01,9.99999e-01,9.99835e-01,9.80704e-01,9.99998e-01
5.699678720e-01,9.80907e-01,9.99999e-01,9.99999e-01,9.99825e-01,9.81082e-01,9.99995e-01
5.728177114e-01,9.81271e-01,9.99999e-01,9.99999e-01,9.99818e-01,9.81452e-01,9.99995e-01
5.756818000e-01,9.81650e-01,9.99999e-01,9.99999e-01,9.99833e-01,9.81815e-01,9.99997e-01
5.785602090e-01,9.82028e-01,9.99999e-01,9.99999e-01,9.99854e-01,9.82171e-01,9.99998e-01
5.814530100e-01,9.82377e-01,9.99999e-01,9.99999e-01,9.99854e-01,9.82520e-01,9.99999e-01
5.843602750e-01,9.82691e-01,9.99999e-01,9.99999e-01,9.99826e-01,9.82862e-01,9.99998e-01
5.872820764e-01,9.81717e-01,9.99999e-01,9.99999e-01,9.98503e-01,9.83198e-01,9.99989e-01
5.902184868e-01,9.81719e-01,9.99999e-01,9.99999e-01,9.98189e-01,9.83527e-01,9.99970e-01
5.931695792e-01,9.82564e-01,9.99999e-01,9.99999e-01,9.98720e-01,9.83850e-01,9.99972e-01
5.961354271e-01,9.82771e-01,9.99999e-01,9.99999e-01,9.98597e-01,9.84166e-01,9.99983e-01
5.991161043e-01,9.83465e-01,9.99999e-01,9.99999e-01,9.98977e-01,9.84476e-01,9.99994e-01
6.021116848e-01,9.84209e-01,9.99999e-01,9.99999e-01,9.99419e-01,9.84781e-01,9.99998e-01
6.051222432e-01,9.84790e-01,9.99999e-01,9.99999e-01,9.99706e-01,9.85079e-01,9.99999e-01
6.081478544e-01,9.85247e-01,9.99999e-01,9.99999e-01,9.99872e-01,9.85371e-01,9.99999e-01
6.111885937e-01,9.85606e-01,9.99999e-01,9.99999e-01,9.99946e-01,9.85658e-01,9.99999e-01
6.142445367e-01,9.85916e-01,9.99999e-01,9.99999e-01,9.99975e-01,9.85940e-01,9.99999e-01
6.173157594e-01,9.86202e-01,9.99999e-01,9.99999e-01,9.99986e-01,9.86215e-01,9.99999e-01
6.204023382e-01,9.86475e-01,9.99999e-01,9.99999e-01,9.99988e-01,9.86486e-01,9.99999e-01
6.235043498e-01,9.86702e-01,9.99999e-01,9.99999e-01,9.99950e-01,9.86751e-01,9.99999e-01
6.266218716e-01,9.86752e-01,9.99999e-01,9.99999e-01,9.99739e-01,9.87011e-01,9.99997e-01
6.297549810e-01,9.87168e-01,9.99999e-01,9.99999e-01,9.99904e-01,9.87266e-01,9.99995e-01
6.329037559e-01,9.87327e-01,9.99999e-01,9.99999e-01,9.99810e-01,9.87516e-01,9.99996e-01
6.360682746e-01,9.87600e-01,9.99999e-01,9.99999e-01,9.99838e-01,9.87761e-01,9.99997e-01
6.392486160e-01,9.87795e-01,9.99999e-01,9.99999e-01,9.99791e-01,9.88001e-01,9.99998e-01
6.424448591e-01,9.87960e-01,9.99999e-01,9.99999e-01,9.99720e-01,9.88237e-01,9.99998e-01
6.456570834e-01,9.87180e-01,9.99999e-01,9.99999e-01,9.98704e-01,9.88468e-01,9.99992e-01
6.488853688e-01,9.87738e-01,9.99999e-01,9.99999e-01,9.99051e-01,9.88694e-01,9.99979e-01
6.521297956e-01,9.87945e-01,9.99999e-01,9.99999e-01,9.99033e-01,9.88916e-01,9.99982e-01
6.553904446e-01,9.88171e-01,9.99999e-01,9.99999e-01,9.99038e-01,9.89134e-01,9.99987e-01
6.586673968e-01,9.88529e-01,9.99999e-01,9.99999e-01,9.99176e-01,9.89347e-01,9.99995e-01
6.619607338e-01,9.89102e-01,9.99999e-01,9.99999e-01,9.99540e-01,9.89557e-01,9.99998e-01
6.652705375e-01,9.89489e-01,9.99999e-01,9.99999e-01,9.99724e-01,9.89762e-01,9.99999e-01
6.685968902e-01,9.89836e-01,9.99999e-01,9.99999e-01,9.99871e-01,9.89963e-01,9.99999e-01
6.719398746e-01,9.90102e-01,9.99999e-01,9.99999e-01,9.99940e-01,9.90160e-01,9.99999e-01
6.752995740e-01,9.90322e-01,9.99999e-01,9.99999e-01,9.99967e-01,9.90354e-01,9.99999e-01
6.786760719e-01,9.90497e-01,9.99999e-01,9.99999e-01,9.99953e-01,9.90543e-01,9.99999e-01
6.820694522e-01,9.90650e-01,9.99999e-01,9.99999e-01,9.99920e-01,9.90729e-01,9.99999e-01
6.854797995e-01,9.90809e-01,9.99999e-01,9.99999e-01,9.99897e-01,9.90912e-01,9.99998e-01
6.889071985e-01,9.90842e-01,9.99999e-01,9.99999e-01,9.99751e-01,9.91090e-01,9.99997e-01
6.923517345e-01,9.87228e-01,9.99999e-01,9.99999e-01,9.95945e-01,9.91265e-01,9.99980e-01
6.958134932e-01,9.89308e-01,9.99999e-01,9.99999e-01,9.97894e-01,9.91437e-01,9.99956e-01
6.992925606e-01,9.89581e-01,9.99999e-01,9.99999e-01,9.97996e-01,9.91606e-01,9.99960e-01
7.027890234e-01,9.89291e-01,9.99999e-01,9.99999e-01,9.97528e-01,9.91771e-01,9.99969e-01
7.063029686e-01,9.89858e-01,9.99999e-01,9.99999e-01,9.97922e-01,9.91933e-01,9.99984e-01
7.098344834e-01,9.90106e-01,9.99999e-01,9.99999e-01,9.98006e-01,9.92091e-01,9.99990e-01
7.133836558e-01,9.89590e-01,9.99999e-01,9.99999e-01,9.97338e-01,9.92247e-01,9.99982e-01
7.169505741e-01,9.71122e-01,9.99999e-01,9.99999e-01,9.78692e-01,9.92399e-01,9.99863e-01
7.205353270e-01,9.81944e-01,9.99999e-01,9.99999e-01,9.89552e-01,9.92549e-01,9.99759e-01
7.241380036e-01,9.79325e-01,9.99999e-01,9.99999e-01,9.86735e-01,9.92696e-01,9.99792e-01
7.277586936e-01,9.80782e-01,9.99999e-01,9.99999e-01,9.88023e-01,9.92839e-01,9.99830e-01
7.313974871e-01,9.80284e-01,9.99999e-01,9.99999e-01,9.87291e-01,9.92980e-01,9.99920e-01
7.350544745e-01,9.86185e-01,9.99999e-01,9.99999e-01,9.93045e-01,9.93118e-01,9.99971e-01
7.387297469e-01,9.88159e-01,9.99999e-01,9.99999e-01,9.94882e-01,9.93254e-01,9.99986e-01
7.424233956e-01,9.90897e-01,9.99999e-01,9.99999e-01,9.97495e-01,9.93387e-01,9.99997e-01
7.461355126e-01,9.92008e-01,9.99999e-01,9.99999e-01,9.98481e-01,9.93517e-01,9.99999e-01
7.498661902e-01,9.92942e-01,9.99999e-01,9.99999e-01,9.99292e-01,9.93644e-01,9.99999e-01
7.536155211e-01,9.93425e-01,9.99999e-01,9.99999e-01,9.99652e-01,9.93770e-01,9.99999e-01
7.573835987e-01,9.93715e-01,9.99999e-01,9.99999e-01,9.99821e-01,9.93892e-01,9.99999e-01
7.611705167e-01,9.93902e-01,9.99999e-01,9.99999e-01,9.99888e-01,9.94013e-01,9.99999e-01
7.649763693e-01,9.94061e-01,9.99999e-01,9.99999e-01,9.99930e-01,9.94130e-01,9.99999e-01
7.688012511e-01,9.94198e-01,9.99999e-01,9.99999e-01,9.99951e-01,9.94246e-01,9.99999e-01
7.726452574e-01,9.94320e-01,9.99999e-01,9.99999e-01,9.99959e-01,9.94359e-01,9.99999e-01
7.765084837e-01,9.94414e-01,9.99999e-01,9.99999e-01,9.99942e-01,9.94470e-01,9.99999e-01
7.803910261e-01,9.94336e-01,9.99999e-01,9.99999e-01,9.99754e-01,9.94579e-01,9.99999e-01
7.842929812e-01,9.93834e-01,9.99999e-01,9.99999e-01,9.99144e-01,9.94686e-01,9.99997e-01
7.882144461e-01,9.93029e-01,9.99999e-01,9.99999e-01,9.98240e-01,9.94791e-01,9.99987e-01
7.921555184e-01,9.93913e-01,9.99999e-01,9.99999e-01,9.99035e-01,9.94893e-01,9.99978e-01
7.961162960e-01,9.93276e-01,9.99999e-01,9.99999e-01,9.98293e-01,9.94994e-01,9.99979e-01
8.000968774e-01,9.93112e-01,9.99999e-01,9.99999e-01,9.98030e-01,9.95093e-01,9.99978e-01
8.040973618e-01,9.93212e-01,9.99999e-01,9.99999e-01,9.98029e-01,9.95189e-01,9.99982e-01
8.081178486e-01,9.90844e-01,9.99999e-01,9.99999e-01,9.95554e-01,9.95284e-01,9.99983e-01
8.121584379e-01,9.76948e-01,9.99999e-01,9.99999e-01,9.81545e-01,9.95377e-01,9.99937e-01
8.162192301e-01,9.73468e-01,9.99999e-01,9.99999e-01,9.78127e-01,9.95468e-01,9.99766e-01
8.203003262e-01,9.84300e-01,9.99999e-01,9.99999e-01,9.88961e-01,9.95557e-01,9.99726e-01
8.244018279e-01,9.80098e-01,9.99999e-01,9.99999e-01,9.84598e-01,9.95645e-01,9.99782e-01
8.285238370e-01,9.82528e-01,9.99999e-01,9.99999e-01,9.86909e-01,9.95731e-01,9.99828e-01
8.326664562e-01,9.82566e-01,9.99999e-01,9.99999e-01,9.86764e-01,9.95815e-01,9.99928e-01
8.368297885e-01,9.86471e-01,9.99999e-01,9.99999e-01,9.90550e-01,9.95897e-01,9.99983e-01
8.410139374e-01,9.90372e-01,9.99999e-01,9.99999e-01,9.94379e-01,9.95978e-01,9.99990e-01
8.452190071e-01,9.93306e-01,9.99999e-01,9.99999e-01,9.97242e-01,9.96057e-01,9.99993e-01
8.494451021e-01,9.94537e-01,9.99999e-01,9.99999e-01,9.98399e-01,9.96135e-01,9.99994e-01
8.536923276e-01,9.95266e-01,9.99999e-01,9.99999e-01,9.99053e-01,9.96211e-01,9.99996e-01
8.579607893e-01,9.95705e-01,9.99999e-01,9.99999e-01,9.99416e-01,9.96286e-01,9.99998e-01
8.622505932e-01,9.95990e-01,9.99999e-01,9.99999e-01,9.99629e-01,9.96359e-01,9.99999e-01
8.665618462e-01,9.96203e-01,9.99999e-01,9.99999e-01,9.99770e-01,9.96431e-01,9.99999e-01
8.708946554e-01,9.96240e-01,9.99999e-01,9.99999e-01,9.99737e-01,9.96501e-01,9.99999e-01
8.752491287e-01,9.96220e-01,9.99999e-01,9.99999e-01,9.99648e-01,9.96570e-01,9.99999e-01
8.796253743e-01,9.96153e-01,9.99999e-01,9.99999e-01,9.99513e-01,9.96638e-01,9.99998e-01
8.840235012e-01,9.96148e-01,9.99999e-01,9.99999e-01,9.99444e-01,9.96704e-01,9.99996e-01
8.884436187e-01,9.94735e-01,9.99999e-01,9.99999e-01,9.97968e-01,9.96769e-01,9.99989e-01
8.928858368e-01,9.75578e-01,9.99999e-01,9.99999e-01,9.78731e-01,9.96833e-01,9.99944e-01
8.973502660e-01,9.59381e-01,9.99999e-01,9.99999e-01,9.62641e-01,9.96895e-01,9.99715e-01
9.018370173e-01,9.77342e-01,9.99999e-01,9.99999e-01,9.80762e-01,9.96957e-01,9.99553e-01
9.063462024e-01,9.79733e-01,9.99999e-01,9.99999e-01,9.83050e-01,9.97017e-01,9.99607e-01
9.108779334e-01,9.70452e-01,9.99999e-01,9.99999e-01,9.73694e-01,9.97075e-01,9.99592e-01
9.154323231e-01,9.67101e-01,9.99999e-01,9.99999e-01,9.70207e-01,9.97133e-01,9.99662e-01
9.200094847e-01,9.73646e-01,9.99999e-01,9.99999e-01,9.76574e-01,9.97190e-01,9.99810e-01
9.246095321e-01,9.60240e-01,9.99999e-01,9.99999e-01,9.63102e-01,9.97245e-01,9.99782e-01
9.292325798e-01,7.72902e-01,9.99999e-01,9.99999e-01,7.75651e-01,9.97299e-01,9.99152e-01
9.338787427e-01,7.15281e-01,9.99999e-01,9.99999e-01,7.19695e-01,9.97353e-01,9.96503e-01
9.385481364e-01,8.70349e-01,9.99999e-01,9.99999e-01,8.76255e-01,9.97405e-01,9.95842e-01
9.432408771e-01,8.24674e-01,9.99999e-01,9.99999e-01,8.29753e-01,9.97456e-01,9.96412e-01
9.479570815e-01,7.65939e-01,9.99999e-01,9.99999e-01,7.70102e-01,9.97506e-01,9.97079e-01
9.526968669e-01,8.21403e-01,9.99999e-01,9.99999e-01,8.24885e-01,9.97555e-01,9.98217e-01
9.574603512e-01,8.38184e-01,9.99999e-01,9.99999e-01,8.40958e-01,9.97603e-01,9.99093e-01
9.622476530e-01,8.66608e-01,9.99999e-01,9.99999e-01,8.69192e-01,9.97651e-01,9.99373e-01
9.670588912e-01,9.20043e-01,9.99999e-01,9.99999e-01,9.22561e-01,9.97697e-01,9.99571e-01
9.718941857e-01,9.48705e-01,9.99999e-01,9.99999e-01,9.51150e-01,9.97742e-01,9.99684e-01
9.767536566e-01,9.56945e-01,9.99999e-01,9.99999e-01,9.59297e-01,9.97787e-01,9.99758e-01
9.816374249e-01,9.67540e-01,9.99999e-01,9.99999e-01,9.69723e-01,9.97831e-01,9.99916e-01
9.865456120e-01,9.78892e-01,9.99999e-01,9.99999e-01,9.80994e-01,9.97873e-01,9.99982e-01
9.914783401e-01,9.86154e-01,9.99999e-01,9.99999e-01,9.88218e-01,9.97915e-01,9.99994e-01
9.964357318e-01,9.91536e-01,9.99999e-01,9.99999e-01,9.93568e-01,9.97956e-01,9.99996e-01
1.001417910e+00,9.94143e-01,9.99999e-01,9.99999e-01,9.96142e-01,9.97997e-01,9.99995e-01
1.006425000e+00,9.95834e-01,9.99999e-01,9.99999e-01,9.97799e-01,9.98036e-01,9.99993e-01
1.011457125e+00,9.96706e-01,9.99999e-01,9.99999e-01,9.98633e-01,9.98075e-01,9.99993e-01
1.016514411e+00,9.97184e-01,9.99999e-01,9.99999e-01,9.99072e-01,9.98113e-01,9.99995e-01
1.021596983e+00,9.97409e-01,9.99999e-01,9.99999e-01,9.99260e-01,9.98150e-01,9.99995e-01
1.026704968e+00,9.97609e-01,9.99999e-01,9.99999e-01,9.99423e-01,9.98187e-01,9.99996e-01
1.031838492e+00,9.97804e-01,9.99999e-01,9.99999e-01,9.99580e-01,9.98222e-01,9.99998e-01
1.036997685e+00,9.98009e-01,9.99999e-01,9.99999e-01,9.99750e-01,9.98258e-01,9.99999e-01
1.042182673e+00,9.97996e-01,9.99999e-01,9.99999e-01,9.99702e-01,9.98292e-01,9.99999e-01
1.047393587e+00,9.97933e-01,9.99999e-01,9.99999e-01,9.99606e-01,9.98326e-01,9.99999e-01
1.052630555e+00,9.97819e-01,9.99999e-01,9.99999e-01,9.99459e-01,9.98359e-01,9.99999e-01
1.057893707e+00,9.97491e-01,9.99999e-01,9.99999e-01,9.99097e-01,9.98391e-01,9.99999e-01
1.063183176e+00,9.96941e-01,9.99999e-01,9.99999e-01,9.98515e-01,9.98423e-01,9.99998e-01
1.068499092e+00,9.95972e-01,9.99999e-01,9.99999e-01,9.97515e-01,9.98454e-01,9.99997e-01
1.073841587e+00,9.95577e-01,9.99999e-01,9.99999e-01,9.97090e-01,9.98484e-01,9.99995e-01
1.079210795e+00,9.94786e-01,9.99999e-01,9.99999e-01,9.96275e-01,9.98514e-01,9.99989e-01
1.084606849e+00,9.92891e-01,9.99999e-01,9.99999e-01,9.94362e-01,9.98544e-01,9.99975e-01
1.090029883e+00,9.90437e-01,9.99999e-01,9.99999e-01,9.91901e-01,9.98572e-01,9.99950e-01
1.095480033e+00,9.76627e-01,9.99999e-01,9.99999e-01,9.78083e-01,9.98600e-01,9.99910e-01
1.100957433e+00,9.43648e-01,9.99999e-01,9.99999e-01,9.45099e-01,9.98628e-01,9.99834e-01
1.106462220e+00,8.63867e-01,9.99999e-01,9.99999e-01,8.65272e-01,9.98655e-01,9.99720e-01
1.111994531e+00,7.34732e-01,9.99999e-01,9.99999e-01,7.36247e-01,9.98682e-01,9.99258e-01
1.117554504e+00,6.05001e-01,9.99999e-01,9.99999e-01,6.07408e-01,9.98708e-01,9.97325e-01
1.123142276e+00,6.82814e-01,9.99999e-01,9.99999e-01,6.88034e-01,9.98733e-01,9.93669e-01
1.128757988e+00,7.83160e-01,9.99999e-01,9.99999e-01,7.89914e-01,9.98758e-01,9.92680e-01
1.134401778e+00,5.61185e-01,9.99999e-01,9.99999e-01,5.65389e-01,9.98783e-01,9.93772e-01
1.140073787e+00,8.65165e-01,9.99999e-01,9.99999e-01,8.70531e-01,9.98807e-01,9.95021e-01
1.145774156e+00,7.41959e-01,9.99999e-01,9.99999e-01,7.46229e-01,9.98830e-01,9.95441e-01
1.151503026e+00,7.17335e-01,9.99999e-01,9.99999e-01,7.19988e-01,9.98853e-01,9.97457e-01
1.157260541e+00,7.63034e-01,9.99999e-01,9.99999e-01,7.64473e-01,9.98876e-01,9.99238e-01
1.163046844e+00,8.19454e-01,9.99999e-01,9.99999e-01,8.20534e-01,9.98898e-01,9.99783e-01
1.168862078e+00,8.71387e-01,9.99999e-01,9.99999e-01,8.72425e-01,9.98920e-01,9.99888e-01
1.174706389e+00,9.18149e-01,9.99999e-01,9.99999e-01,9.19257e-01,9.98941e-01,9.99852e-01
1.180579921e+00,9.48890e-01,9.99999e-01,9.99999e-01,9.50087e-01,9.98962e-01,9.99776e-01
1.186482820e+00,9.70317e-01,9.99999e-01,9.99999e-01,9.71527e-01,9.98982e-01,9.99770e-01
1.192415234e+00,9.82149e-01,9.99999e-01,9.99999e-01,9.83297e-01,9.99003e-01,9.99828e-01
1.198377311e+00,9.84777e-01,9.99999e-01,9.99999e-01,9.85900e-01,9.99022e-01,9.99837e-01
1.204369197e+00,9.85555e-01,9.99999e-01,9.99999e-01,9.86644e-01,9.99041e-01,9.99853e-01
1.210391043e+00,9.86216e-01,9.99999e-01,9.99999e-01,9.87230e-01,9.99060e-01,9.99910e-01
1.216442998e+00,9.88166e-01,9.99999e-01,9.99999e-01,9.89130e-01,9.99079e-01,9.99945e-01
1.222525213e+00,9.90603e-01,9.99999e-01,9.99999e-01,9.91531e-01,9.99097e-01,9.99965e-01
1.228637839e+00,9.93218e-01,9.99999e-01,9.99999e-01,9.94113e-01,9.99115e-01,9.99983e-01
