#,Wave/freq,Total,N2,O2,H2O,Rayleigh,CIA
4.000000000e-01,9.08354e-01,9.99999e-01,9.99999e-01,9.99988e-01,9.08364e-01,9.99999e-01
4.020000000e-01,9.10085e-01,9.99999e-01,9.99999e-01,9.99992e-01,9.10091e-01,9.99999e-01
4.040100000e-01,9.11784e-01,9.99999e-01,9.99999e-01,9.99996e-01,9.11787e-01,9.99999e-01
4.060300500e-01,9.13451e-01,9.99999e-01,9.99999e-01,9.99998e-01,9.13451e-01,9.99999e-01
4.080602003e-01,9.15086e-01,9.99999e-01,9.99999e-01,9.99999e-01,9.15086e-01,9.99999e-01
4.101005013e-01,9.16691e-01,9.99999e-01,9.99999e-01,9.99999e-01,9.16691e-01,9.99999e-01
4.121510038e-01,9.18267e-01,9.99999e-01,9.99999e-01,9.99999e-01,9.18268e-01,9.99999e-01
4.142117588e-01,9.19813e-01,9.99999e-01,9.99999e-01,9.99996e-01,9.19816e-01,9.99999e-01
4.162828176e-01,9.21323e-01,9.99999e-01,9.99999e-01,9.99986e-01,9.21335e-01,9.99999e-01
4.183642317e-01,9.22820e-01,9.99999e-01,9.99999e-01,9.99991e-01,9.22828e-01,9.99999e-01
4.204560528e-01,9.24288e-01,9.99999e-01,9.99999e-01,9.99994e-01,9.24293e-01,9.99999e-01
4.225583331e-01,9.25729e-01,9.99999e-01,9.99999e-01,9.99997e-01,9.25731e-01,9.99999e-01
4.246711247e-01,9.27142e-01,9.99999e-01,9.99999e-01,9.99998e-01,9.27143e-01,9.99999e-01
4.267944804e-01,9.28528e-01,9.99999e-01,9.99999e-01,9.99997e-01,9.28530e-01,9.99999e-01
4.289284528e-01,9.29889e-01,9.99999e-01,9.99999e-01,9.99997e-01,9.29891e-01,9.99999e-01
4.310730950e-01,9.31226e-01,9.99999e-01,9.99999e-01,9.99998e-01,9.31227e-01,9.99999e-01
4.332284605e-01,9.32538e-01,9.99999e-01,9.99999e-01,9.99999e-01,9.32538e-01,9.99999e-01
4.353946028e-01,9.33826e-01,9.99999e-01,9.99999e-01,9.99999e-01,9.33826e-01,9.99999e-01
4.375715758e-01,9.35088e-01,9.99999e-01,9.99999e-01,9.99998e-01,9.35089e-01,9.99999e-01
4.397594337e-01,9.36319e-01,9.99999e-01,9.99999e-01,9.99987e-01,9.36330e-01,9.99999e-01
4.419582309e-01,9.37491e-01,9.99999e-01,9.99999e-01,9.99939e-01,9.37547e-01,9.99999e-01
4.441680220e-01,9.38699e-01,9.99999e-01,9.99999e-01,9.99952e-01,9.38742e-01,9.99999e-01
4.463888621e-01,9.39869e-01,9.99999e-01,9.99999e-01,9.99950e-01,9.39915e-01,9.99999e-01
4.486208064e-01,9.41038e-01,9.99999e-01,9.99999e-01,9.99969e-01,9.41066e-01,9.99999e-01
4.508639105e-01,9.42183e-01,9.99999e-01,9.99999e-01,9.99985e-01,9.42196e-01,9.99999e-01
4.531182300e-01,9.43300e-01,9.99999e-01,9.99999e-01,9.99993e-01,9.43305e-01,9.99999e-01
4.553838212e-01,9.44389e-01,9.99999e-01,9.99999e-01,9.99995e-01,9.44393e-01,9.99999e-01
4.576607403e-01,9.45459e-01,9.99999e-01,9.99999e-01,9.99997e-01,9.45461e-01,9.99999e-01
4.599490440e-01,9.46507e-01,9.99999e-01,9.99999e-01,9.99998e-01,9.46509e-01,9.99999e-01
4.622487892e-01,9.47537e-01,9.99999e-01,9.99999e-01,9.99999e-01,9.47537e-01,9.99999e-01
4.645600332e-01,9.48545e-01,9.99999e-01,9.99999e-01,9.99998e-01,9.48546e-01,9.99999e-01
4.668828333e-01,9.49523e-01,9.99999e-01,9.99999e-01,9.99985e-01,9.49536e-01,9.99999e-01
4.692172475e-01,9.50479e-01,9.99999e-01,9.99999e-01,9.99969e-01,9.50508e-01,9.99999e-01
4.715633337e-01,9.51442e-01,9.99999e-01,9.99999e-01,9.99979e-01,9.51461e-01,9.99999e-01
4.739211504e-01,9.52379e-01,9.99999e-01,9.99999e-01,9.99980e-01,9.52397e-01,9.99999e-01
4.762907561e-01,9.53306e-01,9.99999e-01,9.99999e-01,9.99989e-01,9.53315e-01,9.99999e-01
4.786722099e-01,9.54212e-01,9.99999e-01,9.99999e-01,9.99995e-01,9.54216e-01,9.99999e-01
4.810655710e-01,9.55098e-01,9.99999e-01,9.99999e-01,9.99998e-01,9.55099e-01,9.99999e-01
4.834708988e-01,9.55955e-01,9.99999e-01,9.99999e-01,9.99987e-01,9.55966e-01,9.99999e-01
4.858882533e-01,9.56796e-01,9.99999e-01,9.99999e-01,9.99977e-01,9.56817e-01,9.99999e-01
4.883176946e-01,9.57634e-01,9.99999e-01,9.99999e-01,9.99981e-01,9.57652e-01,9.99999e-01
4.907592831e-01,9.58455e-01,9.99999e-01,9.99999e-01,9.99983e-01,9.58471e-01,9.99999e-01
4.932130795e-01,9.59263e-01,9.99999e-01,9.99999e-01,9.99987e-01,9.59274e-01,9.99999e-01
4.956791449e-01,9.60056e-01,9.99999e-01,9.99999e-01,9.99993e-01,9.60062e-01,9.99999e-01
4.981575406e-01,9.60806e-01,9.99999e-01,9.99999e-01,9.99968e-01,9.60835e-01,9.99999e-01
5.006483283e-01,9.61516e-01,9.99999e-01,9.99999e-01,9.99919e-01,9.61594e-01,9.99998e-01
5.031515699e-01,9.61945e-01,9.99999e-01,9.99999e-01,9.99595e-01,9.62338e-01,9.99995e-01
5.056673278e-01,9.62858e-01,9.99999e-01,9.99999e-01,9.99786e-01,9.63068e-01,9.99994e-01
5.081956644e-01,9.63523e-01,9.99999e-01,9.99999e-01,9.99731e-01,9.63784e-01,9.99996e-01
5.107366428e-01,9.64311e-01,9.99999e-01,9.99999e-01,9.99818e-01,9.64487e-01,9.99998e-01
5.132903260e-01,9.65076e-01,9.99999e-01,9.99999e-01,9.99896e-01,9.65176e-01,9.99999e-01
5.158567776e-01,9.65809e-01,9.99999e-01,9.99999e-01,9.99955e-01,9.65852e-01,9.99999e-01
5.184360615e-01,9.66498e-01,9.99999e-01,9.99999e-01,9.99982e-01,9.66515e-01,9.99999e-01
5.210282418e-01,9.67159e-01,9.99999e-01,9.99999e-01,9.99992e-01,9.67165e-01,9.99999e-01
5.236333830e-01,9.67777e-01,9.99999e-01,9.99999e-01,9.99973e-01,9.67803e-01,9.99999e-01
5.262515499e-01,9.68413e-01,9.99999e-01,9.99999e-01,9.99983e-01,9.68429e-01,9.99999e-01
5.288828077e-01,9.69028e-01,9.99999e-01,9.99999e-01,9.99984e-01,9.69043e-01,9.99999e-01
5.315272217e-01,9.69632e-01,9.99999e-01,9.99999e-01,9.99986e-01,9.69645e-01,9.99999e-01
5.341848578e-01,9.70227e-01,9.99999e-01,9.99999e-01,9.99990e-01,9.70235e-01,9.99999e-01
5.368557821e-01,9.70785e-01,9.99999e-01,9.99999e-01,9.99968e-01,9.70815e-01,9.99999e-01
5.395400610e-01,9.71274e-01,9.99999e-01,9.99999e-01,9.99888e-01,9.71383e-01,9.99998e-01
5.422377613e-01,9.71799e-01,9.99999e-01,9.99999e-01,9.99857e-01,9.71940e-01,9.99996e-01
5.449489501e-01,9.72355e-01,9.99999e-01,9.99999e-01,9.99866e-01,9.72486e-01,9.99996e-01
5.476736949e-01,9.72907e-01,9.99999e-01,9.99999e-01,9.99882e-01,9.73023e-01,9.99998e-01
5.504120634e-01,9.73465e-01,9.99999e-01,9.99999e-01,9.99914e-01,9.73548e-01,9.99999e-01
5.531641237e-01,9.74022e-01,9.99999e-01,9.99999e-01,9.99956e-01,9.74064e-01,9.99999e-01
5.559299443e-01,9.74549e-01,9.99999e-01,9.99999e-01,9.99978e-01,9.74570e-01,9.99999e-01
5.587095940e-01,9.75053e-01,9.99999e-01,9.99999e-01,9.99986e-01,9.75066e-01,9.99999e-01
5.615031420e-01,9.75538e-01,9.99999e-01,9.99999e-01,9.99985e-01,9.75552e-01,9.99999e-01
5.643106577e-01,9.76013e-01,9.99999e-01,9.99999e-01,9.99983e-01,9.76029e-01,9.99999e-01
5.671322110e-01,9.76299e-01,9.99999e-01,9.99999e-01,9.99798e-01,9.76497e-01,9.99997e-01
5.699678720e-01,9.76744e-01,9.99999e-01,9.99999e-01,9.99788e-01,9.76956e-01,9.99994e-01
5.728177114e-01,9.77185e-01,9.99999e-01,9.99999e-01,9.99778e-01,9.77406e-01,9.99994e-01
5.756818000e-01,9.77646e-01,9.99999e-01,9.99999e-01,9.99796e-01,9.77847e-01,9.99996e-01
5.785602090e-01,9.78106e-01,9.99999e-01,9.99999e-01,9.99823e-01,9.78280e-01,9.99998e-01
5.814530100e-01,9.78530e-01,9.99999e-01,9.99999e-01,9.99822e-01,9.78704e-01,9.99999e-01
5.843602750e-01,9.78911e-01,9.99999e-01,9.99999e-01,9.99787e-01,9.79120e-01,9.99998e-01
5.872820764e-01,9.77723e-01,9.99999e-01,9.99999e-01,9.98169e-01,9.79529e-01,9.99986e-01
5.902184868e-01,9.77732e-01,9.99999e-01,9.99999e-01,9.97792e-01,9.79929e-01,9.99964e-01
5.931695792e-01,9.78757e-01,9.99999e-01,9.99999e-01,9.98437e-01,9.80321e-01,9.99965e-01
5.961354271e-01,9.79010e-01,9.99999e-01,9.99999e-01,9.98289e-01,9.80706e-01,9.99980e-01
5.991161043e-01,9.79855e-01,9.99999e-01,9.99999e-01,9.98753e-01,9.81084e-01,9.99993e-01
6.021116848e-01,9.80760e-01,9.99999e-01,9.99999e-01,9.99292e-01,9.81454e-01,9.99998e-01
6.051222432e-01,9.81466e-01,9.99999e-01,9.99999e-01,9.99642e-01,9.81817e-01,9.99999e-01
6.081478544e-01,9.82021e-01,9.99999e-01,9.99999e-01,9.99845e-01,9.82173e-01,9.99999e-01
6.111885937e-01,9.82458e-01,9.99999e-01,9.99999e-01,9.99934e-01,9.82522e-01,9.99999e-01
6.142445367e-01,9.82835e-01,9.99999e-01,9.99999e-01,9.99970e-01,9.82864e-01,9.99999e-01
6.173157594e-01,9.83184e-01,9.99999e-01,9.99999e-01,9.99983e-01,9.83200e-01,9.99999e-01
6.204023382e-01,9.83515e-01,9.99999e-01,9.99999e-01,9.99985e-01,9.83529e-01,9.99999e-01
6.235043498e-01,9.83792e-01,9.99999e-01,9.99999e-01,9.99939e-01,9.83851e-01,9.99999e-01
6.266218716e-01,9.83853e-01,9.99999e-01,9.99999e-01,9.99681e-01,9.84168e-01,9.99997e-01
6.297549810e-01,9.84359e-01,9.99999e-01,9.99999e-01,9.99882e-01,9.84478e-01,9.99995e-01
6.329037559e-01,9.84552e-01,9.99999e-01,9.99999e-01,9.99769e-01,9.84782e-01,9.99995e-01
6.360682746e-01,9.84885e-01,9.99999e-01,9.99999e-01,9.99803e-01,9.85081e-01,9.99997e-01
6.392486160e-01,9.85122e-01,9.99999e-01,9.99999e-01,9.99745e-01,9.85373e-01,9.99998e-01
6.424448591e-01,9.85322e-01,9.99999e-01,9.99999e-01,9.99657e-01,9.85660e-01,9.99997e-01
6.456570834e-01,9.84368e-01,9.99999e-01,9.99999e-01,9.98413e-01,9.85941e-01,9.99989e-01
6.488853688e-01,9.85054e-01,9.99999e-01,9.99999e-01,9.98844e-01,9.86217e-01,9.99975e-01
6.521297956e-01,9.85306e-01,9.99999e-01,9.99999e-01,9.98821e-01,9.86487e-01,9.99979e-01
6.553904446e-01,9.85579e-01,9.99999e-01,9.99999e-01,9.98825e-01,9.86752e-01,9.99984e-01
6.586673968e-01,9.86017e-01,9.99999e-01,9.99999e-01,9.98995e-01,9.87012e-01,9.99994e-01
6.619607338e-01,9.86714e-01,9.99999e-01,9.99999e-01,9.99440e-01,9.87267e-01,9.99998e-01
6.652705375e-01,9.87185e-01,9.99999e-01,9.99999e-01,9.99663e-01,9.87517e-01,9.99998e-01
6.685968902e-01,9.87621e-01,9.99999e-01,9.99999e-01,9.99856e-01,9.87762e-01,9.99999e-01
6.719398746e-01,9.87931e-01,9.99999e-01,9.99999e-01,9.99927e-01,9.88002e-01,9.99999e-01
6.752995740e-01,9.88199e-01,9.99999e-01,9.99999e-01,9.99960e-01,9.88238e-01,9.99999e-01
6.786760719e-01,9.88413e-01,9.99999e-01,9.99999e-01,9.99942e-01,9.88469e-01,9.99999e-01
6.820694522e-01,9.88599e-01,9.99999e-01,9.99999e-01,9.99902e-01,9.88695e-01,9.99998e-01
6.854797995e-01,9.88793e-01,9.99999e-01,9.99999e-01,9.99874e-01,9.88917e-01,9.99998e-01
6.889071985e-01,9.88831e-01,9.99999e-01,9.99999e-01,9.99694e-01,9.89135e-01,9.99996e-01
6.923517345e-01,9.84420e-01,9.99999e-01,9.99999e-01,9.95041e-01,9.89349e-01,9.99975e-01
6.958134932e-01,9.86978e-01,9.99999e-01,9.99999e-01,9.97444e-01,9.89558e-01,9.99947e-01
6.992925606e-01,9.87291e-01,9.99999e-01,9.99999e-01,9.97549e-01,9.89763e-01,9.99952e-01
7.027890234e-01,9.86946e-01,9.99999e-01,9.99999e-01,9.96986e-01,9.89964e-01,9.99963e-01
7.063029686e-01,9.87635e-01,9.99999e-01,9.99999e-01,9.97465e-01,9.90161e-01,9.99981e-01
7.098344834e-01,9.87937e-01,9.99999e-01,9.99999e-01,9.97568e-01,9.90355e-01,9.99988e-01
7.133836558e-01,9.87294e-01,9.99999e-01,9.99999e-01,9.96738e-01,9.90544e-01,9.99978e-01
7.169505741e-01,9.64827e-01,9.99999e-01,9.99999e-01,9.74015e-01,9.90730e-01,9.99833e-01
7.205353270e-01,9.78073e-01,9.99999e-01,9.99999e-01,9.87330e-01,9.90913e-01,9.99706e-01
7.241380036e-01,9.74810e-01,9.99999e-01,9.99999e-01,9.83820e-01,9.91091e-01,9.99746e-01
7.277586936e-01,9.76587e-01,9.99999e-01,9.99999e-01,9.85394e-01,9.91266e-01,9.99792e-01
7.313974871e-01,9.76017e-01,9.99999e-01,9.99999e-01,9.84540e-01,9.91438e-01,9.99902e-01
7.350544745e-01,9.83173e-01,9.99999e-01,9.99999e-01,9.91527e-01,9.91607e-01,9.99965e-01
7.387297469e-01,9.85574e-01,9.99999e-01,9.99999e-01,9.93765e-01,9.91772e-01,9.99984e-01
7.424233956e-01,9.88906e-01,9.99999e-01,9.99999e-01,9.96950e-01,9.91933e-01,9.99996e-01
7.461355126e-01,9.90257e-01,9.99999e-01,9.99999e-01,9.98149e-01,9.92092e-01,9.99999e-01
7.498661902e-01,9.91394e-01,9.99999e-01,9.99999e-01,9.99139e-01,9.92248e-01,9.99999e-01
7.536155211e-01,9.91981e-01,9.99999e-01,9.99999e-01,9.99577e-01,9.92400e-01,9.99999e-01
7.573835987e-01,9.92334e-01,9.99999e-01,9.99999e-01,9.99782e-01,9.92550e-01,9.99999e-01
7.611705167e-01,9.92562e-01,9.99999e-01,9.99999e-01,9.99864e-01,9.92696e-01,9.99999e-01
7.649763693e-01,9.92756e-01,9.99999e-01,9.99999e-01,9.99914e-01,9.92840e-01,9.99999e-01
7.688012511e-01,9.92922e-01,9.99999e-01,9.99999e-01,9.99940e-01,9.92981e-01,9.99999e-01
7.726452574e-01,9.93071e-01,9.99999e-01,9.99999e-01,9.99950e-01,9.93119e-01,9.99999e-01
7.765084837e-01,9.93186e-01,9.99999e-01,9.99999e-01,9.99930e-01,9.93255e-01,9.99999e-01
7.803910261e-01,9.93089e-01,9.99999e-01,9.99999e-01,9.99699e-01,9.93387e-01,9.99999e-01
7.842929812e-01,9.92476e-01,9.99999e-01,9.99999e-01,9.98952e-01,9.93518e-01,9.99997e-01
7.882144461e-01,9.91497e-01,9.99999e-01,9.99999e-01,9.97852e-01,9.93645e-01,9.99984e-01
7.921555184e-01,9.92577e-01,9.99999e-01,9.99999e-01,9.98824e-01,9.93770e-01,9.99973e-01
7.961162960e-01,9.91794e-01,9.99999e-01,9.99999e-01,9.97911e-01,9.93893e-01,9.99975e-01
8.000968774e-01,9.91598e-01,9.99999e-01,9.99999e-01,9.97595e-01,9.94013e-01,9.99973e-01
8.040973618e-01,9.91719e-01,9.99999e-01,9.99999e-01,9.97593e-01,9.94131e-01,9.99979e-01
8.081178486e-01,9.88818e-01,9.99999e-01,9.99999e-01,9.94559e-01,9.94247e-01,9.99979e-01
8.121584379e-01,9.71891e-01,9.99999e-01,9.99999e-01,9.77476e-01,9.94360e-01,9.99923e-01
8.162192301e-01,9.67761e-01,9.99999e-01,9.99999e-01,9.73417e-01,9.94471e-01,9.99714e-01
8.203003262e-01,9.80816e-01,9.99999e-01,9.99999e-01,9.86489e-01,9.94580e-01,9.99665e-01
8.244018279e-01,9.75875e-01,9.99999e-01,9.99999e-01,9.81348e-01,9.94687e-01,9.99734e-01
8.285238370e-01,9.78704e-01,9.99999e-01,9.99999e-01,9.84033e-01,9.94791e-01,9.99790e-01
8.326664562e-01,9.78777e-01,9.99999e-01,9.99999e-01,9.83884e-01,9.94894e-01,9.99913e-01
8.368297885e-01,9.83527e-01,9.99999e-01,9.99999e-01,9.88494e-01,9.94995e-01,9.99979e-01
8.410139374e-01,9.88271e-01,9.99999e-01,9.99999e-01,9.93154e-01,9.95093e-01,9.99987e-01
8.452190071e-01,9.91842e-01,9.99999e-01,9.99999e-01,9.96641e-01,9.95190e-01,9.99992e-01
8.494451021e-01,9.93337e-01,9.99999e-01,9.99999e-01,9.98047e-01,9.95285e-01,9.99993e-01
8.536923276e-01,9.94227e-01,9.99999e-01,9.99999e-01,9.98847e-01,9.95377e-01,9.99996e-01
8.579607893e-01,9.94760e-01,9.99999e-01,9.99999e-01,9.99288e-01,9.95469e-01,9.99998e-01
8.622505932e-01,9.95109e-01,9.99999e-01,9.99999e-01,9.99548e-01,9.95558e-01,9.99999e-01
8.665618462e-01,9.95367e-01,9.99999e-01,9.99999e-01,9.99720e-01,9.95645e-01,9.99999e-01
8.708946554e-01,9.95412e-01,9.99999e-01,9.99999e-01,9.99679e-01,9.95731e-01,9.99999e-01
8.752491287e-01,9.95388e-01,9.99999e-01,9.99999e-01,9.99571e-01,9.95815e-01,9.99999e-01
8.796253743e-01,9.95305e-01,9.99999e-01,9.99999e-01,9.99405e-01,9.95898e-01,9.99998e-01
8.840235012e-01,9.95299e-01,9.99999e-01,9.99999e-01,9.99321e-01,9.95979e-01,9.99995e-01
8.884436187e-01,9.93558e-01,9.99999e-01,9.99999e-01,9.97501e-01,9.96058e-01,9.99987e-01
8.928858368e-01,9.70205e-01,9.99999e-01,9.99999e-01,9.74034e-01,9.96136e-01,9.99931e-01
8.973502660e-01,9.50700e-01,9.99999e-01,9.99999e-01,9.54646e-01,9.96212e-01,9.99652e-01
9.018370173e-01,9.72507e-01,9.99999e-01,9.99999e-01,9.76663e-01,9.96286e-01,9.99454e-01
9.063462024e-01,9.75276e-01,9.99999e-01,9.99999e-01,9.79307e-01,9.96360e-01,9.99520e-01
9.108779334e-01,9.64049e-01,9.99999e-01,9.99999e-01,9.67982e-01,9.96431e-01,9.99502e-01
9.154323231e-01,9.60010e-01,9.99999e-01,9.99999e-01,9.63775e-01,9.96502e-01,9.99588e-01
9.200094847e-01,9.67974e-01,9.99999e-01,9.99999e-01,9.71527e-01,9.96571e-01,9.99769e-01
9.246095321e-01,9.51483e-01,9.99999e-01,9.99999e-01,9.54944e-01,9.96638e-01,9.99734e-01
9.292325798e-01,7.30838e-01,9.99999e-01,9.99999e-01,7.34013e-01,9.96705e-01,9.98965e-01
9.338787427e-01,6.66261e-01,9.99999e-01,9.99999e-01,6.71283e-01,9.96770e-01,9.95733e-01
9.385481364e-01,8.45065e-01,9.99999e-01,9.99999e-01,8.52071e-01,9.96833e-01,9.94927e-01
9.432408771e-01,7.91512e-01,9.99999e-01,9.99999e-01,7.97466e-01,9.96896e-01,9.95622e-01
9.479570815e-01,7.24555e-01,9.99999e-01,9.99999e-01,7.29366e-01,9.96957e-01,9.96435e-01
9.526968669e-01,7.88376e-01,9.99999e-01,9.99999e-01,7.92458e-01,9.97017e-01,9.97824e-01
9.574603512e-01,8.06808e-01,9.99999e-01,9.99999e-01,8.10069e-01,9.97076e-01,9.98893e-01
9.622476530e-01,8.40204e-01,9.99999e-01,9.99999e-01,8.43263e-01,9.97133e-01,9.99234e-01
9.670588912e-01,9.03515e-01,9.99999e-01,9.99999e-01,9.06535e-01,9.97190e-01,9.99476e-01
9.718941857e-01,9.37798e-01,9.99999e-01,9.99999e-01,9.40750e-01,9.97245e-01,9.99614e-01
9.767536566e-01,9.47730e-01,9.99999e-01,9.99999e-01,9.50575e-01,9.97300e-01,9.99705e-01
9.816374249e-01,9.60572e-01,9.99999e-01,9.99999e-01,9.63219e-01,9.97353e-01,9.99897e-01
9.865456120e-01,9.74327e-01,9.99999e-01,9.99999e-01,9.76881e-01,9.97405e-01,9.99978e-01
9.914783401e-01,9.83140e-01,9.99999e-01,9.99999e-01,9.85652e-01,9.97456e-01,9.99993e-01
9.964357318e-01,9.89687e-01,9.99999e-01,9.99999e-01,9.92164e-01,9.97506e-01,9.99996e-01
1.001417910e+00,9.92861e-01,9.99999e-01,9.99999e-01,9.95298e-01,9.97556e-01,9.99994e-01
1.006425000e+00,9.94919e-01,9.99999e-01,9.99999e-01,9.97315e-01,9.97604e-01,9.99992e-01
1.011457125e+00,9.95984e-01,9.99999e-01,9.99999e-01,9.98335e-01,9.97651e-01,9.99992e-01
1.016514411e+00,9.96564e-01,9.99999e-01,9.99999e-01,9.98868e-01,9.97697e-01,9.99994e-01
1.021596983e+00,9.96839e-01,9.99999e-01,9.99999e-01,9.99098e-01,9.97743e-01,9.99994e-01
1.026704968e+00,9.97083e-01,9.99999e-01,9.99999e-01,9.99296e-01,9.97787e-01,9.99996e-01
1.031838492e+00,9.97321e-01,9.99999e-01,9.99999e-01,9.99489e-01,9.97831e-01,9.99998e-01
1.036997685e+00,9.97571e-01,9.99999e-01,9.99999e-01,9.99696e-01,9.97874e-01,9.99999e-01
1.042182673e+00,9.97554e-01,9.99999e-01,9.99999e-01,9.99637e-01,9.97916e-01,9.99999e-01
1.047393587e+00,9.97477e-01,9.99999e-01,9.99999e-01,9.99519e-01,9.97957e-01,9.99999e-01
1.052630555e+00,9.97339e-01,9.99999e-01,9.99999e-01,9.99339e-01,9.97997e-01,9.99999e-01
1.057893707e+00,9.96936e-01,9.99999e-01,9.99999e-01,9.98897e-01,9.98037e-01,9.99999e-01
1.063183176e+00,9.96265e-01,9.99999e-01,9.99999e-01,9.98186e-01,9.98075e-01,9.99998e-01
1.068499092e+00,9.95084e-01,9.99999e-01,9.99999e-01,9.96966e-01,9.98113e-01,9.99997e-01
1.073841587e+00,9.94599e-01,9.99999e-01,9.99999e-01,9.96446e-01,9.98150e-01,9.99995e-01
1.079210795e+00,9.93640e-01,9.99999e-01,9.99999e-01,9.95455e-01,9.98187e-01,9.99987e-01
1.084606849e+00,9.91327e-01,9.99999e-01,9.99999e-01,9.93120e-01,9.98223e-01,9.99970e-01
1.090029883e+00,9.88313e-01,9.99999e-01,9.99999e-01,9.90097e-01,9.98258e-01,9.99939e-01
1.095480033e+00,9.71494e-01,9.99999e-01,9.99999e-01,9.73262e-01,9.98292e-01,9.99890e-01
1.100957433e+00,9.31561e-01,9.99999e-01,9.99999e-01,9.33310e-01,9.98326e-01,9.99798e-01
1.106462220e+00,8.36327e-01,9.99999e-01,9.99999e-01,8.37987e-01,9.98359e-01,9.99658e-01
1.111994531e+00,6.87277e-01,9.99999e-01,9.99999e-01,6.89007e-01,9.98391e-01,9.99094e-01
1.117554504e+00,5.43315e-01,9.99999e-01,9.99999e-01,5.45954e-01,9.98423e-01,9.96736e-01
1.123142276e+00,6.31253e-01,9.99999e-01,9.99999e-01,6.37149e-01,9.98454e-01,9.92277e-01
1.128757988e+00,7.43434e-01,9.99999e-01,9.99999e-01,7.51269e-01,9.98485e-01,9.91072e-01
1.134401778e+00,5.06488e-01,9.99999e-01,9.99999e-01,5.11123e-01,9.98514e-01,9.92403e-01
1.140073787e+00,8.38254e-01,9.99999e-01,9.99999e-01,8.44605e-01,9.98544e-01,9.93925e-01
1.145774156e+00,6.96357e-01,9.99999e-01,9.99999e-01,7.01252e-01,9.98572e-01,9.94438e-01
1.151503026e+00,6.68872e-01,9.99999e-01,9.99999e-01,6.71892e-01,9.98601e-01,9.96897e-01
1.157260541e+00,7.19625e-01,9.99999e-01,9.99999e-01,7.21282e-01,9.98628e-01,9.99071e-01
1.163046844e+00,7.84866e-01,9.99999e-01,9.99999e-01,7.86129e-01,9.98655e-01,9.99736e-01
1.168862078e+00,8.45570e-01,9.99999e-01,9.99999e-01,8.46801e-01,9.98682e-01,9.99863e-01
1.174706389e+00,9.01161e-01,9.99999e-01,9.99999e-01,9.02488e-01,9.98708e-01,9.99819e-01
1.180579921e+00,9.38059e-01,9.99999e-01,9.99999e-01,9.39503e-01,9.98733e-01,9.99727e-01
1.186482820e+00,9.63919e-01,9.99999e-01,9.99999e-01,9.65385e-01,9.98758e-01,9.99720e-01
1.192415234e+00,9.78262e-01,9.99999e-01,9.99999e-01,9.79658e-01,9.98783e-01,9.99790e-01
1.198377311e+00,9.81446e-01,9.99999e-01,9.99999e-01,9.82812e-01,9.98807e-01,9.99802e-01
1.204369197e+00,9.82400e-01,9.99999e-01,9.99999e-01,9.83725e-01,9.98830e-01,9.99820e-01
1.210391043e+00,9.83204e-01,9.99999e-01,9.99999e-01,9.84439e-01,9.98853e-01,9.99890e-01
1.216442998e+00,9.85587e-01,9.99999e-01,9.99999e-01,9.86761e-01,9.98876e-01,9.99932e-01
1.222525213e+00,9.88548e-01,9.99999e-01,9.99999e-01,9.89679e-01,9.98898e-01,9.99958e-01
1.228637839e+00,9.91731e-01,9.99999e-01,9.99999e-01,9.92821e-01,9.98920e-01,9.99980e-01
