#,Wave/freq,Total,N2,O2,H2O,Rayleigh,CIA
4.000000000e-01,7.62995e-01,9.99999e-01,9.99999e-01,9.99968e-01,7.63018e-01,9.99999e-01
4.020000000e-01,7.67095e-01,9.99999e-01,9.99999e-01,9.99980e-01,7.67110e-01,9.99999e-01
4.040100000e-01,7.71131e-01,9.99999e-01,9.99999e-01,9.99991e-01,7.71137e-01,9.99999e-01
4.060300500e-01,7.75105e-01,9.99999e-01,9.99999e-01,9.99997e-01,7.75106e-01,9.99999e-01
4.080602003e-01,7.79016e-01,9.99999e-01,9.99999e-01,9.99998e-01,7.79016e-01,9.99999e-01
4.101005013e-01,7.82868e-01,9.99999e-01,9.99999e-01,9.99999e-01,7.82868e-01,9.99999e-01
4.121510038e-01,7.86662e-01,9.99999e-01,9.99999e-01,9.99998e-01,7.86663e-01,9.99999e-01
4.142117588e-01,7.90394e-01,9.99999e-01,9.99999e-01,9.99991e-01,7.90400e-01,9.99999e-01
4.162828176e-01,7.94051e-01,9.99999e-01,9.99999e-01,9.99961e-01,7.94081e-01,9.99999e-01
4.183642317e-01,7.97688e-01,9.99999e-01,9.99999e-01,9.99977e-01,7.97706e-01,9.99999e-01
4.204560528e-01,8.01264e-01,9.99999e-01,9.99999e-01,9.99985e-01,8.01275e-01,9.99999e-01
4.225583331e-01,8.04785e-01,9.99999e-01,9.99999e-01,9.99994e-01,8.04789e-01,9.99999e-01
4.246711247e-01,8.08246e-01,9.99999e-01,9.99999e-01,9.99995e-01,8.08249e-01,9.99999e-01
4.267944804e-01,8.11650e-01,9.99999e-01,9.99999e-01,9.99993e-01,8.11655e-01,9.99999e-01
4.289284528e-01,8.15003e-01,9.99999e-01,9.99999e-01,9.99994e-01,8.15007e-01,9.99999e-01
4.310730950e-01,8.18305e-01,9.99999e-01,9.99999e-01,9.99997e-01,8.18307e-01,9.99999e-01
4.332284605e-01,8.21554e-01,9.99999e-01,9.99999e-01,9.99998e-01,8.21554e-01,9.99999e-01
4.353946028e-01,8.24750e-01,9.99999e-01,9.99999e-01,9.99999e-01,8.24750e-01,9.99999e-01
4.375715758e-01,8.27892e-01,9.99999e-01,9.99999e-01,9.99995e-01,8.27895e-01,9.99999e-01
4.397594337e-01,8.30962e-01,9.99999e-01,9.99999e-01,9.99966e-01,8.30989e-01,9.99999e-01
4.419582309e-01,8.33896e-01,9.99999e-01,9.99999e-01,9.99833e-01,8.34034e-01,9.99999e-01
4.441680220e-01,8.36918e-01,9.99999e-01,9.99999e-01,9.99866e-01,8.37029e-01,9.99999e-01
4.463888621e-01,8.39860e-01,9.99999e-01,9.99999e-01,9.99862e-01,8.39975e-01,9.99999e-01
4.486208064e-01,8.42801e-01,9.99999e-01,9.99999e-01,9.99913e-01,8.42874e-01,9.99999e-01
4.508639105e-01,8.45690e-01,9.99999e-01,9.99999e-01,9.99959e-01,8.45724e-01,9.99999e-01
4.531182300e-01,8.48515e-01,9.99999e-01,9.99999e-01,9.99983e-01,8.48528e-01,9.99999e-01
4.553838212e-01,8.51276e-01,9.99999e-01,9.99999e-01,9.99988e-01,8.51286e-01,9.99999e-01
4.576607403e-01,8.53993e-01,9.99999e-01,9.99999e-01,9.99994e-01,8.53997e-01,9.99999e-01
4.599490440e-01,8.56661e-01,9.99999e-01,9.99999e-01,9.99996e-01,8.56664e-01,9.99999e-01
4.622487892e-01,8.59285e-01,9.99999e-01,9.99999e-01,9.99998e-01,8.59285e-01,9.99999e-01
4.645600332e-01,8.61861e-01,9.99999e-01,9.99999e-01,9.99997e-01,8.61863e-01,9.99999e-01
4.668828333e-01,8.64363e-01,9.99999e-01,9.99999e-01,9.99959e-01,8.64398e-01,9.99999e-01
4.692172475e-01,8.66815e-01,9.99999e-01,9.99999e-01,9.99913e-01,8.66889e-01,9.99999e-01
4.715633337e-01,8.69290e-01,9.99999e-01,9.99999e-01,9.99943e-01,8.69339e-01,9.99999e-01
4.739211504e-01,8.71700e-01,9.99999e-01,9.99999e-01,9.99945e-01,8.71747e-01,9.99999e-01
4.762907561e-01,8.74089e-01,9.99999e-01,9.99999e-01,9.99971e-01,8.74113e-01,9.99999e-01
4.786722099e-01,8.76429e-01,9.99999e-01,9.99999e-01,9.99988e-01,8.76439e-01,9.99999e-01
4.810655710e-01,8.78722e-01,9.99999e-01,9.99999e-01,9.99996e-01,8.78725e-01,9.99999e-01
4.834708988e-01,8.80944e-01,9.99999e-01,9.99999e-01,9.99967e-01,8.80972e-01,9.99999e-01
4.858882533e-01,8.83126e-01,9.99999e-01,9.99999e-01,9.99938e-01,8.83180e-01,9.99999e-01
4.883176946e-01,8.85305e-01,9.99999e-01,9.99999e-01,9.99948e-01,8.85350e-01,9.99999e-01
4.907592831e-01,8.87441e-01,9.99999e-01,9.99999e-01,9.99953e-01,8.87482e-01,9.99999e-01
4.932130795e-01,8.89548e-01,9.99999e-01,9.99999e-01,9.99966e-01,8.89577e-01,9.99999e-01
4.956791449e-01,8.91620e-01,9.99999e-01,9.99999e-01,9.99982e-01,8.91635e-01,9.99999e-01
4.981575406e-01,8.93581e-01,9.99999e-01,9.99999e-01,9.99913e-01,8.93658e-01,9.99999e-01
5.006483283e-01,8.95445e-01,9.99999e-01,9.99999e-01,9.99778e-01,8.95645e-01,9.99997e-01
5.031515699e-01,8.96570e-01,9.99999e-01,9.99999e-01,9.98868e-01,8.97596e-01,9.99987e-01
5.056673278e-01,8.98963e-01,9.99999e-01,9.99999e-01,9.99400e-01,8.99514e-01,9.99985e-01
5.081956644e-01,9.00708e-01,9.99999e-01,9.99999e-01,9.99242e-01,9.01398e-01,9.99990e-01
5.107366428e-01,9.02784e-01,9.99999e-01,9.99999e-01,9.99488e-01,9.03248e-01,9.99997e-01
5.132903260e-01,9.04800e-01,9.99999e-01,9.99999e-01,9.99706e-01,9.05065e-01,9.99999e-01
5.158567776e-01,9.06738e-01,9.99999e-01,9.99999e-01,9.99875e-01,9.06850e-01,9.99999e-01
5.184360615e-01,9.08558e-01,9.99999e-01,9.99999e-01,9.99950e-01,9.08603e-01,9.99999e-01
5.210282418e-01,9.10308e-01,9.99999e-01,9.99999e-01,9.99981e-01,9.10325e-01,9.99999e-01
5.236333830e-01,9.11948e-01,9.99999e-01,9.99999e-01,9.99925e-01,9.12016e-01,9.99998e-01
5.262515499e-01,9.13634e-01,9.99999e-01,9.99999e-01,9.99953e-01,9.13676e-01,9.99998e-01
5.288828077e-01,9.15268e-01,9.99999e-01,9.99999e-01,9.99957e-01,9.15307e-01,9.99999e-01
5.315272217e-01,9.16874e-01,9.99999e-01,9.99999e-01,9.99962e-01,9.16909e-01,9.99999e-01
5.341848578e-01,9.18459e-01,9.99999e-01,9.99999e-01,9.99975e-01,9.18481e-01,9.99999e-01
5.368557821e-01,9.19946e-01,9.99999e-01,9.99999e-01,9.99914e-01,9.20025e-01,9.99999e-01
5.395400610e-01,9.21256e-01,9.99999e-01,9.99999e-01,9.99692e-01,9.21541e-01,9.99996e-01
5.422377613e-01,9.22651e-01,9.99999e-01,9.99999e-01,9.99596e-01,9.23029e-01,9.99992e-01
5.449489501e-01,9.24141e-01,9.99999e-01,9.99999e-01,9.99628e-01,9.24491e-01,9.99991e-01
5.476736949e-01,9.25615e-01,9.99999e-01,9.99999e-01,9.99667e-01,9.25926e-01,9.99995e-01
5.504120634e-01,9.27110e-01,9.99999e-01,9.99999e-01,9.99758e-01,9.27334e-01,9.99998e-01
5.531641237e-01,9.28604e-01,9.99999e-01,9.99999e-01,9.99878e-01,9.28717e-01,9.99999e-01
5.559299443e-01,9.30020e-01,9.99999e-01,9.99999e-01,9.99940e-01,9.30075e-01,9.99999e-01
5.587095940e-01,9.31373e-01,9.99999e-01,9.99999e-01,9.99963e-01,9.31407e-01,9.99999e-01
5.615031420e-01,9.32678e-01,9.99999e-01,9.99999e-01,9.99958e-01,9.32716e-01,9.99999e-01
5.643106577e-01,9.33957e-01,9.99999e-01,9.99999e-01,9.99954e-01,9.34000e-01,9.99999e-01
5.671322110e-01,9.34743e-01,9.99999e-01,9.99999e-01,9.99451e-01,9.35260e-01,9.99994e-01
5.699678720e-01,9.35919e-01,9.99999e-01,9.99999e-01,9.99397e-01,9.36498e-01,9.99984e-01
5.728177114e-01,9.37119e-01,9.99999e-01,9.99999e-01,9.99380e-01,9.37712e-01,9.99986e-01
5.756818000e-01,9.38361e-01,9.99999e-01,9.99999e-01,9.99429e-01,9.38904e-01,9.99991e-01
5.785602090e-01,9.39603e-01,9.99999e-01,9.99999e-01,9.99501e-01,9.40074e-01,9.99997e-01
5.814530100e-01,9.40751e-01,9.99999e-01,9.99999e-01,9.99500e-01,9.41222e-01,9.99998e-01
5.843602750e-01,9.41791e-01,9.99999e-01,9.99999e-01,9.99410e-01,9.42349e-01,9.99996e-01
5.872820764e-01,9.38628e-01,9.99999e-01,9.99999e-01,9.94919e-01,9.43455e-01,9.99963e-01
5.902184868e-01,9.38576e-01,9.99999e-01,9.99999e-01,9.93782e-01,9.44540e-01,9.99901e-01
5.931695792e-01,9.41374e-01,9.99999e-01,9.99999e-01,9.95620e-01,9.45605e-01,9.99904e-01
5.961354271e-01,9.42040e-01,9.99999e-01,9.99999e-01,9.95187e-01,9.46650e-01,9.99941e-01
5.991161043e-01,9.44328e-01,9.99999e-01,9.99999e-01,9.96483e-01,9.47676e-01,9.99982e-01
6.021116848e-01,9.46784e-01,9.99999e-01,9.99999e-01,9.98000e-01,9.48683e-01,9.99997e-01
6.051222432e-01,9.48709e-01,9.99999e-01,9.99999e-01,9.98987e-01,9.49670e-01,9.99999e-01
6.081478544e-01,9.50225e-01,9.99999e-01,9.99999e-01,9.99563e-01,9.50639e-01,9.99999e-01
6.111885937e-01,9.51414e-01,9.99999e-01,9.99999e-01,9.99814e-01,9.51590e-01,9.99999e-01
6.142445367e-01,9.52445e-01,9.99999e-01,9.99999e-01,9.99917e-01,9.52523e-01,9.99999e-01
6.173157594e-01,9.53396e-01,9.99999e-01,9.99999e-01,9.99954e-01,9.53439e-01,9.99999e-01
6.204023382e-01,9.54301e-01,9.99999e-01,9.99999e-01,9.99961e-01,9.54337e-01,9.99999e-01
6.235043498e-01,9.55060e-01,9.99999e-01,9.99999e-01,9.99834e-01,9.55219e-01,9.99999e-01
6.266218716e-01,9.55224e-01,9.99999e-01,9.99999e-01,9.99106e-01,9.56084e-01,9.99993e-01
6.297549810e-01,9.56607e-01,9.99999e-01,9.99999e-01,9.99672e-01,9.56932e-01,9.99986e-01
6.329037559e-01,9.57133e-01,9.99999e-01,9.99999e-01,9.99350e-01,9.57765e-01,9.99989e-01
6.360682746e-01,9.58048e-01,9.99999e-01,9.99999e-01,9.99449e-01,9.58581e-01,9.99993e-01
6.392486160e-01,9.58694e-01,9.99999e-01,9.99999e-01,9.99284e-01,9.59383e-01,9.99996e-01
6.424448591e-01,9.59342e-01,9.99999e-01,9.99999e-01,9.99143e-01,9.60169e-01,9.99995e-01
6.456570834e-01,9.56724e-01,9.99999e-01,9.99999e-01,9.95637e-01,9.60940e-01,9.99974e-01
6.488853688e-01,9.57948e-01,9.99999e-01,9.99999e-01,9.96170e-01,9.61696e-01,9.99930e-01
6.521297956e-01,9.59187e-01,9.99999e-01,9.99999e-01,9.96678e-01,9.62439e-01,9.99941e-01
6.553904446e-01,9.59968e-01,9.99999e-01,9.99999e-01,9.96722e-01,9.63167e-01,9.99956e-01
6.586673968e-01,9.61134e-01,9.99999e-01,9.99999e-01,9.97163e-01,9.63881e-01,9.99985e-01
6.619607338e-01,9.62998e-01,9.99999e-01,9.99999e-01,9.98360e-01,9.64581e-01,9.99996e-01
6.652705375e-01,9.64348e-01,9.99999e-01,9.99999e-01,9.99047e-01,9.65269e-01,9.99997e-01
6.685968902e-01,9.65516e-01,9.99999e-01,9.99999e-01,9.99557e-01,9.65943e-01,9.99999e-01
6.719398746e-01,9.66406e-01,9.99999e-01,9.99999e-01,9.99794e-01,9.66604e-01,9.99999e-01
6.752995740e-01,9.67146e-01,9.99999e-01,9.99999e-01,9.99889e-01,9.67253e-01,9.99999e-01
6.786760719e-01,9.67736e-01,9.99999e-01,9.99999e-01,9.99841e-01,9.67889e-01,9.99999e-01
6.820694522e-01,9.68249e-01,9.99999e-01,9.99999e-01,9.99727e-01,9.68513e-01,9.99998e-01
6.854797995e-01,9.68783e-01,9.99999e-01,9.99999e-01,9.99649e-01,9.69126e-01,9.99996e-01
6.889071985e-01,9.68910e-01,9.99999e-01,9.99999e-01,9.99165e-01,9.69726e-01,9.99991e-01
6.923517345e-01,9.56928e-01,9.99999e-01,9.99999e-01,9.86268e-01,9.70315e-01,9.99932e-01
6.958134932e-01,9.63643e-01,9.99999e-01,9.99999e-01,9.92681e-01,9.70893e-01,9.99849e-01
6.992925606e-01,9.64720e-01,9.99999e-01,9.99999e-01,9.93192e-01,9.71460e-01,9.99867e-01
7.027890234e-01,9.63681e-01,9.99999e-01,9.99999e-01,9.91526e-01,9.72015e-01,9.99898e-01
7.063029686e-01,9.65587e-01,9.99999e-01,9.99999e-01,9.92879e-01,9.72560e-01,9.99949e-01
7.098344834e-01,9.66417e-01,9.99999e-01,9.99999e-01,9.93166e-01,9.73095e-01,9.99969e-01
7.133836558e-01,9.64834e-01,9.99999e-01,9.99999e-01,9.91034e-01,9.73619e-01,9.99940e-01
7.169505741e-01,9.05199e-01,9.99999e-01,9.99999e-01,9.29668e-01,9.74134e-01,9.99532e-01
7.205353270e-01,9.38992e-01,9.99999e-01,9.99999e-01,9.64219e-01,9.74638e-01,9.99175e-01
7.241380036e-01,9.31082e-01,9.99999e-01,9.99999e-01,9.55509e-01,9.75133e-01,9.99282e-01
7.277586936e-01,9.35768e-01,9.99999e-01,9.99999e-01,9.59725e-01,9.75618e-01,9.99404e-01
7.313974871e-01,9.33780e-01,9.99999e-01,9.99999e-01,9.56909e-01,9.76094e-01,9.99727e-01
7.350544745e-01,9.53306e-01,9.99999e-01,9.99999e-01,9.76279e-01,9.76560e-01,9.99904e-01
7.387297469e-01,9.59855e-01,9.99999e-01,9.99999e-01,9.82475e-01,9.77018e-01,9.99956e-01
7.424233956e-01,9.69019e-01,9.99999e-01,9.99999e-01,9.91365e-01,9.77467e-01,9.99991e-01
7.461355126e-01,9.72791e-01,9.99999e-01,9.99999e-01,9.94770e-01,9.77907e-01,9.99998e-01
7.498661902e-01,9.75946e-01,9.99999e-01,9.99999e-01,9.97555e-01,9.78338e-01,9.99998e-01
7.536155211e-01,9.77591e-01,9.99999e-01,9.99999e-01,9.98804e-01,9.78762e-01,9.99999e-01
7.573835987e-01,9.78573e-01,9.99999e-01,9.99999e-01,9.99383e-01,9.79177e-01,9.99999e-01
7.611705167e-01,9.79209e-01,9.99999e-01,9.99999e-01,9.99616e-01,9.79584e-01,9.99999e-01
7.649763693e-01,9.79748e-01,9.99999e-01,9.99999e-01,9.99760e-01,9.79983e-01,9.99999e-01
7.688012511e-01,9.80211e-01,9.99999e-01,9.99999e-01,9.99833e-01,9.80374e-01,9.99999e-01
7.726452574e-01,9.80624e-01,9.99999e-01,9.99999e-01,9.99862e-01,9.80758e-01,9.99999e-01
7.765084837e-01,9.80945e-01,9.99999e-01,9.99999e-01,9.99806e-01,9.81135e-01,9.99999e-01
7.803910261e-01,9.80687e-01,9.99999e-01,9.99999e-01,9.99167e-01,9.81504e-01,9.99998e-01
7.842929812e-01,9.79012e-01,9.99999e-01,9.99999e-01,9.97098e-01,9.81866e-01,9.99994e-01
7.882144461e-01,9.76263e-01,9.99999e-01,9.99999e-01,9.93970e-01,9.82221e-01,9.99962e-01
7.921555184e-01,9.79229e-01,9.99999e-01,9.99999e-01,9.96671e-01,9.82569e-01,9.99928e-01
7.961162960e-01,9.77138e-01,9.99999e-01,9.99999e-01,9.94195e-01,9.82910e-01,9.99931e-01
8.000968774e-01,9.76542e-01,9.99999e-01,9.99999e-01,9.93254e-01,9.83245e-01,9.99926e-01
8.040973618e-01,9.76891e-01,9.99999e-01,9.99999e-01,9.93263e-01,9.83573e-01,9.99941e-01
8.081178486e-01,9.69070e-01,9.99999e-01,9.99999e-01,9.84985e-01,9.83895e-01,9.99945e-01
8.121584379e-01,9.23726e-01,9.99999e-01,9.99999e-01,9.38744e-01,9.84211e-01,9.99786e-01
8.162192301e-01,9.11846e-01,9.99999e-01,9.99999e-01,9.26926e-01,9.84520e-01,9.99198e-01
8.203003262e-01,9.48205e-01,9.99999e-01,9.99999e-01,9.63721e-01,9.84823e-01,9.99061e-01
8.244018279e-01,9.33543e-01,9.99999e-01,9.99999e-01,9.48350e-01,9.85121e-01,9.99252e-01
8.285238370e-01,9.41526e-01,9.99999e-01,9.99999e-01,9.56023e-01,9.85413e-01,9.99413e-01
8.326664562e-01,9.41473e-01,9.99999e-01,9.99999e-01,9.55364e-01,9.85699e-01,9.99756e-01
8.368297885e-01,9.54214e-01,9.99999e-01,9.99999e-01,9.67836e-01,9.85979e-01,9.99944e-01
8.410139374e-01,9.67245e-01,9.99999e-01,9.99999e-01,9.80756e-01,9.86254e-01,9.99967e-01
8.452190071e-01,9.77142e-01,9.99999e-01,9.99999e-01,9.90508e-01,9.86524e-01,9.99980e-01
8.494451021e-01,9.81352e-01,9.99999e-01,9.99999e-01,9.94505e-01,9.86788e-01,9.99983e-01
8.536923276e-01,9.83815e-01,9.99999e-01,9.99999e-01,9.96735e-01,9.87047e-01,9.99989e-01
8.579607893e-01,9.85320e-01,9.99999e-01,9.99999e-01,9.97995e-01,9.87302e-01,9.99996e-01
8.622505932e-01,9.86290e-01,9.99999e-01,9.99999e-01,9.98722e-01,9.87551e-01,9.99999e-01
8.665618462e-01,9.87018e-01,9.99999e-01,9.99999e-01,9.99213e-01,9.87795e-01,9.99999e-01
8.708946554e-01,9.87147e-01,9.99999e-01,9.99999e-01,9.99101e-01,9.88035e-01,9.99999e-01
8.752491287e-01,9.87080e-01,9.99999e-01,9.99999e-01,9.98796e-01,9.88270e-01,9.99998e-01
8.796253743e-01,9.86856e-01,9.99999e-01,9.99999e-01,9.98339e-01,9.88500e-01,9.99995e-01
8.840235012e-01,9.86838e-01,9.99999e-01,9.99999e-01,9.98101e-01,9.88726e-01,9.99987e-01
8.884436187e-01,9.82222e-01,9.99999e-01,9.99999e-01,9.93231e-01,9.88947e-01,9.99966e-01
8.928858368e-01,9.19739e-01,9.99999e-01,9.99999e-01,9.29990e-01,9.89165e-01,9.99809e-01
8.973502660e-01,8.68182e-01,9.99999e-01,9.99999e-01,8.78359e-01,9.89377e-01,9.99024e-01
9.018370173e-01,9.24285e-01,9.99999e-01,9.99999e-01,9.35444e-01,9.89586e-01,9.98467e-01
9.063462024e-01,9.33001e-01,9.99999e-01,9.99999e-01,9.43894e-01,9.89791e-01,9.98653e-01
9.108779334e-01,9.03005e-01,9.99999e-01,9.99999e-01,9.13411e-01,9.89991e-01,9.98600e-01
9.154323231e-01,8.92083e-01,9.99999e-01,9.99999e-01,9.01964e-01,9.90188e-01,9.98843e-01
9.200094847e-01,9.12746e-01,9.99999e-01,9.99999e-01,9.22207e-01,9.90381e-01,9.99352e-01
9.246095321e-01,8.75341e-01,9.99999e-01,9.99999e-01,8.84333e-01,9.90570e-01,9.99253e-01
9.292325798e-01,4.34893e-01,9.99999e-01,9.99999e-01,4.40230e-01,9.90755e-01,9.97094e-01
9.338787427e-01,3.36798e-01,9.99999e-01,9.99999e-01,3.43990e-01,9.90937e-01,9.88044e-01
9.385481364e-01,6.34167e-01,9.99999e-01,9.99999e-01,6.49070e-01,9.91115e-01,9.85796e-01
9.432408771e-01,5.44420e-01,9.99999e-01,9.99999e-01,5.56022e-01,9.91290e-01,9.87734e-01
9.479570815e-01,4.38976e-01,9.99999e-01,9.99999e-01,4.47225e-01,9.91461e-01,9.90006e-01
9.526968669e-01,5.32384e-01,9.99999e-01,9.99999e-01,5.40176e-01,9.91629e-01,9.93892e-01
9.574603512e-01,5.56365e-01,9.99999e-01,9.99999e-01,5.62716e-01,9.91794e-01,9.96892e-01
9.622476530e-01,6.17480e-01,9.99999e-01,9.99999e-01,6.23828e-01,9.91955e-01,9.97850e-01
9.670588912e-01,7.54560e-01,9.99999e-01,9.99999e-01,7.61678e-01,9.92114e-01,9.98529e-01
9.718941857e-01,8.35407e-01,9.99999e-01,9.99999e-01,8.42827e-01,9.92269e-01,9.98916e-01
9.767536566e-01,8.60383e-01,9.99999e-01,9.99999e-01,8.67671e-01,9.92421e-01,9.99172e-01
9.816374249e-01,8.92858e-01,9.99999e-01,9.99999e-01,8.99798e-01,9.92570e-01,9.99713e-01
9.865456120e-01,9.29231e-01,9.99999e-01,9.99999e-01,9.36104e-01,9.92716e-01,9.99939e-01
9.914783401e-01,9.53153e-01,9.99999e-01,9.99999e-01,9.60023e-01,9.92860e-01,9.99982e-01
9.964357318e-01,9.71167e-01,9.99999e-01,9.99999e-01,9.78022e-01,9.93000e-01,9.99989e-01
1.001417910e+00,9.79981e-01,9.99999e-01,9.99999e-01,9.86766e-01,9.93138e-01,9.99984e-01
1.006425000e+00,9.85757e-01,9.99999e-01,9.99999e-01,9.92453e-01,9.93273e-01,9.99978e-01
1.011457125e+00,9.88713e-01,9.99999e-01,9.99999e-01,9.95295e-01,9.93405e-01,9.99979e-01
1.016514411e+00,9.90353e-01,9.99999e-01,9.99999e-01,9.96809e-01,9.93535e-01,9.99985e-01
1.021596983e+00,9.91125e-01,9.99999e-01,9.99999e-01,9.97459e-01,9.93662e-01,9.99985e-01
1.026704968e+00,9.91810e-01,9.99999e-01,9.99999e-01,9.98019e-01,9.93787e-01,9.99990e-01
1.031838492e+00,9.92473e-01,9.99999e-01,9.99999e-01,9.98556e-01,9.93910e-01,9.99996e-01
1.036997685e+00,9.93179e-01,9.99999e-01,9.99999e-01,9.99144e-01,9.94029e-01,9.99999e-01
1.042182673e+00,9.93137e-01,9.99999e-01,9.99999e-01,9.98983e-01,9.94147e-01,9.99999e-01
1.047393587e+00,9.92921e-01,9.99999e-01,9.99999e-01,9.98650e-01,9.94262e-01,9.99999e-01
1.052630555e+00,9.92537e-01,9.99999e-01,9.99999e-01,9.98151e-01,9.94375e-01,9.99999e-01
1.057893707e+00,9.91422e-01,9.99999e-01,9.99999e-01,9.96919e-01,9.94486e-01,9.99998e-01
1.063183176e+00,9.89549e-01,9.99999e-01,9.99999e-01,9.94929e-01,9.94595e-01,9.99996e-01
1.068499092e+00,9.86250e-01,9.99999e-01,9.99999e-01,9.91509e-01,9.94701e-01,9.99993e-01
1.073841587e+00,9.84936e-01,9.99999e-01,9.99999e-01,9.90091e-01,9.94805e-01,9.99986e-01
1.079210795e+00,9.82210e-01,9.99999e-01,9.99999e-01,9.87270e-01,9.94908e-01,9.99965e-01
1.084606849e+00,9.75853e-01,9.99999e-01,9.99999e-01,9.80829e-01,9.95008e-01,9.99917e-01
1.090029883e+00,9.67830e-01,9.99999e-01,9.99999e-01,9.72754e-01,9.95106e-01,9.99829e-01
1.095480033e+00,9.22613e-01,9.99999e-01,9.99999e-01,9.27344e-01,9.95203e-01,9.99692e-01
1.100957433e+00,8.21645e-01,9.99999e-01,9.99999e-01,8.25994e-01,9.95297e-01,9.99434e-01
1.106462220e+00,6.15300e-01,9.99999e-01,9.99999e-01,6.18742e-01,9.95390e-01,9.99040e-01
1.111994531e+00,3.63271e-01,9.99999e-01,9.99999e-01,3.65851e-01,9.95481e-01,9.97455e-01
1.117554504e+00,1.96899e-01,9.99999e-01,9.99999e-01,1.99602e-01,9.95570e-01,9.90846e-01
1.123142276e+00,3.05949e-01,9.99999e-01,9.99999e-01,3.14057e-01,9.95657e-01,9.78429e-01
1.128757988e+00,4.54734e-01,9.99999e-01,9.99999e-01,4.68345e-01,9.95743e-01,9.75088e-01
1.134401778e+00,2.26391e-01,9.99999e-01,9.99999e-01,2.32387e-01,9.95827e-01,9.78280e-01
1.140073787e+00,6.17968e-01,9.99999e-01,9.99999e-01,6.31520e-01,9.95909e-01,9.82558e-01
1.145774156e+00,3.81917e-01,9.99999e-01,9.99999e-01,3.89517e-01,9.95990e-01,9.84434e-01
1.151503026e+00,3.48367e-01,9.99999e-01,9.99999e-01,3.52811e-01,9.96069e-01,9.91298e-01
1.157260541e+00,4.06899e-01,9.99999e-01,9.99999e-01,4.09541e-01,9.96146e-01,9.97389e-01
1.163046844e+00,5.12385e-01,9.99999e-01,9.99999e-01,5.14709e-01,9.96222e-01,9.99259e-01
1.168862078e+00,6.25051e-01,9.99999e-01,9.99999e-01,6.27613e-01,9.96296e-01,9.99618e-01
1.174706389e+00,7.47009e-01,9.99999e-01,9.99999e-01,7.50110e-01,9.96369e-01,9.99493e-01
1.180579921e+00,8.35423e-01,9.99999e-01,9.99999e-01,8.39047e-01,9.96441e-01,9.99235e-01
1.186482820e+00,9.01681e-01,9.99999e-01,9.99999e-01,9.05547e-01,9.96511e-01,9.99214e-01
1.192415234e+00,9.39990e-01,9.99999e-01,9.99999e-01,9.43770e-01,9.96580e-01,9.99411e-01
1.198377311e+00,9.48776e-01,9.99999e-01,9.99999e-01,9.52496e-01,9.96647e-01,9.99444e-01
1.204369197e+00,9.51358e-01,9.99999e-01,9.99999e-01,9.54973e-01,9.96714e-01,9.99497e-01
1.210391043e+00,9.53497e-01,9.99999e-01,9.99999e-01,9.56870e-01,9.96778e-01,9.99694e-01
1.216442998e+00,9.59884e-01,9.99999e-01,9.99999e-01,9.63104e-01,9.96842e-01,9.99812e-01
1.222525213e+00,9.68060e-01,9.99999e-01,9.99999e-01,9.71178e-01,9.96904e-01,9.99883e-01
1.228637839e+00,9.76888e-01,9.99999e-01,9.99999e-01,9.79914e-01,9.96965e-01,9.99945e-01
