#,Wave/freq,Total,N2,O2,H2O,Rayleigh,CIA
4.000000000e-01,4.97414e-01,9.99999e-01,9.99999e-01,9.99920e-01,4.97453e-01,9.99999e-01
4.020000000e-01,5.04344e-01,9.99999e-01,9.99999e-01,9.99950e-01,5.04369e-01,9.99999e-01
4.040100000e-01,5.11224e-01,9.99999e-01,9.99999e-01,9.99978e-01,5.11234e-01,9.99999e-01
4.060300500e-01,5.18052e-01,9.99999e-01,9.99999e-01,9.99994e-01,5.18054e-01,9.99999e-01
4.080602003e-01,5.24827e-01,9.99999e-01,9.99999e-01,9.99997e-01,5.24828e-01,9.99999e-01
4.101005013e-01,5.31554e-01,9.99999e-01,9.99999e-01,9.99999e-01,5.31554e-01,9.99999e-01
4.121510038e-01,5.38229e-01,9.99999e-01,9.99999e-01,9.99996e-01,5.38231e-01,9.99999e-01
4.142117588e-01,5.44845e-01,9.99999e-01,9.99999e-01,9.99977e-01,5.44857e-01,9.99999e-01
4.162828176e-01,5.51378e-01,9.99999e-01,9.99999e-01,9.99902e-01,5.51432e-01,9.99999e-01
4.183642317e-01,5.57921e-01,9.99999e-01,9.99999e-01,9.99941e-01,5.57953e-01,9.99999e-01
4.204560528e-01,5.64401e-01,9.99999e-01,9.99999e-01,9.99964e-01,5.64421e-01,9.99999e-01
4.225583331e-01,5.70826e-01,9.99999e-01,9.99999e-01,9.99986e-01,5.70834e-01,9.99999e-01
4.246711247e-01,5.77184e-01,9.99999e-01,9.99999e-01,9.99988e-01,5.77190e-01,9.99999e-01
4.267944804e-01,5.83481e-01,9.99999e-01,9.99999e-01,9.99984e-01,5.83490e-01,9.99999e-01
4.289284528e-01,5.89725e-01,9.99999e-01,9.99999e-01,9.99987e-01,5.89732e-01,9.99999e-01
4.310730950e-01,5.95913e-01,9.99999e-01,9.99999e-01,9.99994e-01,5.95916e-01,9.99999e-01
4.332284605e-01,6.02040e-01,9.99999e-01,9.99999e-01,9.99998e-01,6.02041e-01,9.99999e-01
4.353946028e-01,6.08105e-01,9.99999e-01,9.99999e-01,9.99998e-01,6.08105e-01,9.99999e-01
4.375715758e-01,6.14103e-01,9.99999e-01,9.99999e-01,9.99989e-01,6.14109e-01,9.99999e-01
4.397594337e-01,6.19999e-01,9.99999e-01,9.99999e-01,9.99912e-01,6.20052e-01,9.99999e-01
4.419582309e-01,6.25657e-01,9.99999e-01,9.99999e-01,9.99557e-01,6.25934e-01,9.99999e-01
4.441680220e-01,6.31540e-01,9.99999e-01,9.99999e-01,9.99662e-01,6.31753e-01,9.99999e-01
4.463888621e-01,6.37285e-01,9.99999e-01,9.99999e-01,9.99646e-01,6.37510e-01,9.99999e-01
4.486208064e-01,6.43064e-01,9.99999e-01,9.99999e-01,9.99781e-01,6.43204e-01,9.99999e-01
4.508639105e-01,6.48769e-01,9.99999e-01,9.99999e-01,9.99897e-01,6.48835e-01,9.99999e-01
4.531182300e-01,6.54377e-01,9.99999e-01,9.99999e-01,9.99959e-01,6.54403e-01,9.99999e-01
4.553838212e-01,6.59889e-01,9.99999e-01,9.99999e-01,9.99972e-01,6.59907e-01,9.99999e-01
4.576607403e-01,6.65339e-01,9.99999e-01,9.99999e-01,9.99986e-01,6.65347e-01,9.99999e-01
4.599490440e-01,6.70718e-01,9.99999e-01,9.99999e-01,9.99990e-01,6.70724e-01,9.99999e-01
4.622487892e-01,6.76035e-01,9.99999e-01,9.99999e-01,9.99997e-01,6.76036e-01,9.99999e-01
4.645600332e-01,6.81280e-01,9.99999e-01,9.99999e-01,9.99993e-01,6.81284e-01,9.99999e-01
4.668828333e-01,6.86397e-01,9.99999e-01,9.99999e-01,9.99895e-01,6.86468e-01,9.99999e-01
4.692172475e-01,6.91435e-01,9.99999e-01,9.99999e-01,9.99778e-01,6.91588e-01,9.99999e-01
4.715633337e-01,6.96543e-01,9.99999e-01,9.99999e-01,9.99854e-01,6.96644e-01,9.99999e-01
4.739211504e-01,7.01539e-01,9.99999e-01,9.99999e-01,9.99861e-01,7.01636e-01,9.99999e-01
4.762907561e-01,7.06514e-01,9.99999e-01,9.99999e-01,9.99928e-01,7.06564e-01,9.99999e-01
4.786722099e-01,7.11408e-01,9.99999e-01,9.99999e-01,9.99970e-01,7.11429e-01,9.99999e-01
4.810655710e-01,7.16223e-01,9.99999e-01,9.99999e-01,9.99990e-01,7.16229e-01,9.99999e-01
4.834708988e-01,7.20904e-01,9.99999e-01,9.99999e-01,9.99912e-01,7.20967e-01,9.99999e-01
4.858882533e-01,7.25527e-01,9.99999e-01,9.99999e-01,9.99843e-01,7.25641e-01,9.99999e-01
4.883176946e-01,7.30156e-01,9.99999e-01,9.99999e-01,9.99867e-01,7.30252e-01,9.99999e-01
4.907592831e-01,7.34714e-01,9.99999e-01,9.99999e-01,9.99881e-01,7.34801e-01,9.99999e-01
4.932130795e-01,7.39225e-01,9.99999e-01,9.99999e-01,9.99915e-01,7.39287e-01,9.99999e-01
4.956791449e-01,7.43678e-01,9.99999e-01,9.99999e-01,9.99955e-01,7.43711e-01,9.99999e-01
4.981575406e-01,7.47906e-01,9.99999e-01,9.99999e-01,9.99775e-01,7.48074e-01,9.99999e-01
5.006483283e-01,7.51933e-01,9.99999e-01,9.99999e-01,9.99416e-01,7.52375e-01,9.99995e-01
5.031515699e-01,7.54374e-01,9.99999e-01,9.99999e-01,9.97068e-01,7.56615e-01,9.99968e-01
5.056673278e-01,7.59595e-01,9.99999e-01,9.99999e-01,9.98457e-01,7.60795e-01,9.99964e-01
5.081956644e-01,7.63410e-01,9.99999e-01,9.99999e-01,9.98055e-01,7.64914e-01,9.99978e-01
5.107366428e-01,7.67962e-01,9.99999e-01,9.99999e-01,9.98687e-01,7.68974e-01,9.99995e-01
5.132903260e-01,7.72395e-01,9.99999e-01,9.99999e-01,9.99250e-01,7.72974e-01,9.99999e-01
5.158567776e-01,7.76671e-01,9.99999e-01,9.99999e-01,9.99683e-01,7.76916e-01,9.99999e-01
5.184360615e-01,7.80701e-01,9.99999e-01,9.99999e-01,9.99873e-01,7.80799e-01,9.99999e-01
5.210282418e-01,7.84588e-01,9.99999e-01,9.99999e-01,9.99951e-01,7.84625e-01,9.99999e-01
5.236333830e-01,7.88242e-01,9.99999e-01,9.99999e-01,9.99808e-01,7.88393e-01,9.99998e-01
5.262515499e-01,7.92008e-01,9.99999e-01,9.99999e-01,9.99880e-01,7.92104e-01,9.99997e-01
5.288828077e-01,7.95671e-01,9.99999e-01,9.99999e-01,9.99889e-01,7.95759e-01,9.99998e-01
5.315272217e-01,7.99282e-01,9.99999e-01,9.99999e-01,9.99903e-01,7.99358e-01,9.99999e-01
5.341848578e-01,8.02851e-01,9.99999e-01,9.99999e-01,9.99936e-01,8.02902e-01,9.99999e-01
5.368557821e-01,8.06210e-01,9.99999e-01,9.99999e-01,9.99776e-01,8.06391e-01,9.99998e-01
5.395400610e-01,8.09163e-01,9.99999e-01,9.99999e-01,9.99188e-01,8.09826e-01,9.99991e-01
5.422377613e-01,8.12352e-01,9.99999e-01,9.99999e-01,9.98966e-01,8.13207e-01,9.99980e-01
5.449489501e-01,8.15729e-01,9.99999e-01,9.99999e-01,9.99031e-01,8.16535e-01,9.99980e-01
5.476736949e-01,8.19106e-01,9.99999e-01,9.99999e-01,9.99149e-01,8.19811e-01,9.99990e-01
5.504120634e-01,8.22524e-01,9.99999e-01,9.99999e-01,9.99382e-01,8.23034e-01,9.99996e-01
5.531641237e-01,8.25950e-01,9.99999e-01,9.99999e-01,9.99689e-01,8.26207e-01,9.99999e-01
5.559299443e-01,8.29204e-01,9.99999e-01,9.99999e-01,9.99849e-01,8.29328e-01,9.99999e-01
5.587095940e-01,8.32321e-01,9.99999e-01,9.99999e-01,9.99905e-01,8.32399e-01,9.99999e-01
5.615031420e-01,8.35333e-01,9.99999e-01,9.99999e-01,9.99894e-01,8.35421e-01,9.99999e-01
5.643106577e-01,8.38291e-01,9.99999e-01,9.99999e-01,9.99878e-01,8.38393e-01,9.99998e-01
5.671322110e-01,8.40067e-01,9.99999e-01,9.99999e-01,9.98525e-01,8.41318e-01,9.99986e-01
5.699678720e-01,8.42873e-01,9.99999e-01,9.99999e-01,9.98474e-01,8.44194e-01,9.99960e-01
5.728177114e-01,8.45634e-01,9.99999e-01,9.99999e-01,9.98393e-01,8.47023e-01,9.99966e-01
5.756818000e-01,8.48539e-01,9.99999e-01,9.99999e-01,9.98528e-01,8.49805e-01,9.99980e-01
5.785602090e-01,8.51446e-01,9.99999e-01,9.99999e-01,9.98719e-01,8.52541e-01,9.99994e-01
5.814530100e-01,8.54128e-01,9.99999e-01,9.99999e-01,9.98711e-01,8.55232e-01,9.99996e-01
5.843602750e-01,8.56544e-01,9.99999e-01,9.99999e-01,9.98452e-01,8.57878e-01,9.99990e-01
5.872820764e-01,8.49013e-01,9.99999e-01,9.99999e-01,9.86765e-01,8.60479e-01,9.99906e-01
5.902184868e-01,8.49104e-01,9.99999e-01,9.99999e-01,9.84104e-01,8.63037e-01,9.99746e-01
5.931695792e-01,8.55583e-01,9.99999e-01,9.99999e-01,9.88723e-01,8.65552e-01,9.99755e-01
5.961354271e-01,8.57196e-01,9.99999e-01,9.99999e-01,9.87663e-01,8.68024e-01,9.99859e-01
5.991161043e-01,8.62579e-01,9.99999e-01,9.99999e-01,9.90995e-01,8.70454e-01,9.99956e-01
6.021116848e-01,8.68377e-01,9.99999e-01,9.99999e-01,9.94887e-01,8.72843e-01,9.99994e-01
6.051222432e-01,8.72925e-01,9.99999e-01,9.99999e-01,9.97411e-01,8.75191e-01,9.99999e-01
6.081478544e-01,8.76517e-01,9.99999e-01,9.99999e-01,9.98881e-01,8.77498e-01,9.99999e-01
6.111885937e-01,8.79351e-01,9.99999e-01,9.99999e-01,9.99527e-01,8.79766e-01,9.99999e-01
6.142445367e-01,8.81809e-01,9.99999e-01,9.99999e-01,9.99788e-01,8.81995e-01,9.99999e-01
6.173157594e-01,8.84082e-01,9.99999e-01,9.99999e-01,9.99883e-01,8.84185e-01,9.99999e-01
6.204023382e-01,8.86250e-01,9.99999e-01,9.99999e-01,9.99900e-01,8.86338e-01,9.99999e-01
6.235043498e-01,8.88058e-01,9.99999e-01,9.99999e-01,9.99556e-01,8.88453e-01,9.99998e-01
6.266218716e-01,8.88462e-01,9.99999e-01,9.99999e-01,9.97692e-01,8.90531e-01,9.99983e-01
6.297549810e-01,8.91788e-01,9.99999e-01,9.99999e-01,9.99153e-01,8.92572e-01,9.99967e-01
6.329037559e-01,8.93063e-01,9.99999e-01,9.99999e-01,9.98331e-01,8.94578e-01,9.99973e-01
6.360682746e-01,8.95256e-01,9.99999e-01,9.99999e-01,9.98572e-01,8.96549e-01,9.99984e-01
6.392486160e-01,8.96821e-01,9.99999e-01,9.99999e-01,9.98154e-01,8.98485e-01,9.99992e-01
6.424448591e-01,8.98135e-01,9.99999e-01,9.99999e-01,9.97510e-01,9.00387e-01,9.99987e-01
6.456570834e-01,8.91816e-01,9.99999e-01,9.99999e-01,9.88499e-01,9.02255e-01,9.99930e-01
6.488853688e-01,8.96393e-01,9.99999e-01,9.99999e-01,9.91663e-01,9.04090e-01,9.99821e-01
6.521297956e-01,8.98067e-01,9.99999e-01,9.99999e-01,9.91506e-01,9.05892e-01,9.99852e-01
6.553904446e-01,8.99846e-01,9.99999e-01,9.99999e-01,9.91496e-01,9.07662e-01,9.99890e-01
6.586673968e-01,9.02773e-01,9.99999e-01,9.99999e-01,9.92747e-01,9.09401e-01,9.99963e-01
6.619607338e-01,9.07414e-01,9.99999e-01,9.99999e-01,9.95952e-01,9.11108e-01,9.99991e-01
6.652705375e-01,9.10563e-01,9.99999e-01,9.99999e-01,9.97568e-01,9.12785e-01,9.99995e-01
6.685968902e-01,9.13487e-01,9.99999e-01,9.99999e-01,9.98966e-01,9.14432e-01,9.99998e-01
6.719398746e-01,9.15570e-01,9.99999e-01,9.99999e-01,9.99476e-01,9.16049e-01,9.99999e-01
6.752995740e-01,9.17383e-01,9.99999e-01,9.99999e-01,9.99723e-01,9.17637e-01,9.99999e-01
6.786760719e-01,9.18815e-01,9.99999e-01,9.99999e-01,9.99585e-01,9.19196e-01,9.99998e-01
6.820694522e-01,9.20069e-01,9.99999e-01,9.99999e-01,9.99288e-01,9.20727e-01,9.99995e-01
6.854797995e-01,9.21385e-01,9.99999e-01,9.99999e-01,9.99090e-01,9.22231e-01,9.99991e-01
6.889071985e-01,9.21627e-01,9.99999e-01,9.99999e-01,9.97768e-01,9.23707e-01,9.99979e-01
6.923517345e-01,8.92198e-01,9.99999e-01,9.99999e-01,9.64540e-01,9.25156e-01,9.99827e-01
6.958134932e-01,9.09368e-01,9.99999e-01,9.99999e-01,9.81799e-01,9.26578e-01,9.99618e-01
6.992925606e-01,9.11250e-01,9.99999e-01,9.99999e-01,9.82313e-01,9.27975e-01,9.99656e-01
7.027890234e-01,9.09011e-01,9.99999e-01,9.99999e-01,9.78374e-01,9.29346e-01,9.99737e-01
7.063029686e-01,9.13598e-01,9.99999e-01,9.99999e-01,9.81759e-01,9.30692e-01,9.99869e-01
7.098344834e-01,9.15623e-01,9.99999e-01,9.99999e-01,9.82488e-01,9.32014e-01,9.99922e-01
7.133836558e-01,9.11236e-01,9.99999e-01,9.99999e-01,9.76497e-01,9.33311e-01,9.99846e-01
7.169505741e-01,7.73861e-01,9.99999e-01,9.99999e-01,8.29026e-01,9.34584e-01,9.98794e-01
7.205353270e-01,8.52995e-01,9.99999e-01,9.99999e-01,9.13422e-01,9.35834e-01,9.97874e-01
7.241380036e-01,8.31991e-01,9.99999e-01,9.99999e-01,8.89505e-01,9.37060e-01,9.98164e-01
7.277586936e-01,8.43050e-01,9.99999e-01,9.99999e-01,8.99870e-01,9.38264e-01,9.98498e-01
7.313974871e-01,8.39382e-01,9.99999e-01,9.99999e-01,8.94114e-01,9.39446e-01,9.99296e-01
7.350544745e-01,8.84394e-01,9.99999e-01,9.99999e-01,9.40467e-01,9.40606e-01,9.99755e-01
7.387297469e-01,9.00007e-01,9.99999e-01,9.99999e-01,9.55787e-01,9.41744e-01,9.99887e-01
7.424233956e-01,9.22241e-01,9.99999e-01,9.99999e-01,9.78148e-01,9.42861e-01,9.99980e-01
7.461355126e-01,9.31380e-01,9.99999e-01,9.99999e-01,9.86678e-01,9.43958e-01,9.99996e-01
7.498661902e-01,9.39168e-01,9.99999e-01,9.99999e-01,9.93793e-01,9.45034e-01,9.99998e-01
7.536155211e-01,9.43196e-01,9.99999e-01,9.99999e-01,9.96942e-01,9.46089e-01,9.99998e-01
7.573835987e-01,9.45635e-01,9.99999e-01,9.99999e-01,9.98425e-01,9.47126e-01,9.99999e-01
7.611705167e-01,9.47215e-01,9.99999e-01,9.99999e-01,9.99021e-01,9.48142e-01,9.99999e-01
7.649763693e-01,9.48557e-01,9.99999e-01,9.99999e-01,9.99385e-01,9.49140e-01,9.99999e-01
7.688012511e-01,9.49712e-01,9.99999e-01,9.99999e-01,9.99571e-01,9.50119e-01,9.99999e-01
7.726452574e-01,9.50745e-01,9.99999e-01,9.99999e-01,9.99646e-01,9.51080e-01,9.99999e-01
7.765084837e-01,9.51542e-01,9.99999e-01,9.99999e-01,9.99494e-01,9.52023e-01,9.99998e-01
7.803910261e-01,9.50865e-01,9.99999e-01,9.99999e-01,9.97815e-01,9.52948e-01,9.99997e-01
7.842929812e-01,9.46588e-01,9.99999e-01,9.99999e-01,9.92394e-01,9.53855e-01,9.99985e-01
7.882144461e-01,9.39865e-01,9.99999e-01,9.99999e-01,9.84518e-01,9.54746e-01,9.99892e-01
7.921555184e-01,9.47349e-01,9.99999e-01,9.99999e-01,9.91528e-01,9.55620e-01,9.99813e-01
7.961162960e-01,9.41875e-01,9.99999e-01,9.99999e-01,9.84907e-01,9.56477e-01,9.99822e-01
8.000968774e-01,9.40551e-01,9.99999e-01,9.99999e-01,9.82669e-01,9.57318e-01,9.99811e-01
8.040973618e-01,9.41380e-01,9.99999e-01,9.99999e-01,9.82645e-01,9.58143e-01,9.99856e-01
8.081178486e-01,9.21579e-01,9.99999e-01,9.99999e-01,9.61165e-01,9.58953e-01,9.99854e-01
8.121584379e-01,8.14446e-01,9.99999e-01,9.99999e-01,8.49072e-01,9.59747e-01,9.99449e-01
8.162192301e-01,7.91273e-01,9.99999e-01,9.99999e-01,8.25497e-01,9.60526e-01,9.97931e-01
8.203003262e-01,8.71951e-01,9.99999e-01,9.99999e-01,9.09264e-01,9.61290e-01,9.97578e-01
8.244018279e-01,8.44381e-01,9.99999e-01,9.99999e-01,8.79392e-01,9.62040e-01,9.98072e-01
8.285238370e-01,8.56170e-01,9.99999e-01,9.99999e-01,8.90620e-01,9.62776e-01,9.98485e-01
8.326664562e-01,8.57097e-01,9.99999e-01,9.99999e-01,8.90125e-01,9.63498e-01,9.99373e-01
8.368297885e-01,8.86861e-01,9.99999e-01,9.99999e-01,9.19914e-01,9.64206e-01,9.99856e-01
8.410139374e-01,9.18093e-01,9.99999e-01,9.99999e-01,9.51569e-01,9.64900e-01,9.99915e-01
8.452190071e-01,9.42321e-01,9.99999e-01,9.99999e-01,9.75958e-01,9.65581e-01,9.99949e-01
8.494451021e-01,9.52611e-01,9.99999e-01,9.99999e-01,9.85924e-01,9.66249e-01,9.99959e-01
8.536923276e-01,9.58838e-01,9.99999e-01,9.99999e-01,9.91680e-01,9.66905e-01,9.99975e-01
8.579607893e-01,9.62564e-01,9.99999e-01,9.99999e-01,9.94854e-01,9.67548e-01,9.99993e-01
8.622505932e-01,9.65018e-01,9.99999e-01,9.99999e-01,9.96735e-01,9.68179e-01,9.99998e-01
8.665618462e-01,9.66833e-01,9.99999e-01,9.99999e-01,9.97972e-01,9.68797e-01,9.99998e-01
8.708946554e-01,9.67148e-01,9.99999e-01,9.99999e-01,9.97673e-01,9.69404e-01,9.99998e-01
8.752491287e-01,9.66982e-01,9.99999e-01,9.99999e-01,9.96891e-01,9.69999e-01,9.99996e-01
8.796253743e-01,9.66386e-01,9.99999e-01,9.99999e-01,9.95684e-01,9.70583e-01,9.99989e-01
8.840235012e-01,9.66346e-01,9.99999e-01,9.99999e-01,9.95076e-01,9.71155e-01,9.99969e-01
8.884436187e-01,9.54072e-01,9.99999e-01,9.99999e-01,9.81924e-01,9.71717e-01,9.99914e-01
8.928858368e-01,8.05506e-01,9.99999e-01,9.99999e-01,8.28888e-01,9.72268e-01,9.99508e-01
8.973502660e-01,6.99664e-01,9.99999e-01,9.99999e-01,7.21033e-01,9.72808e-01,9.97484e-01
9.018370173e-01,8.21586e-01,9.99999e-01,9.99999e-01,8.47439e-01,9.73338e-01,9.96048e-01
9.063462024e-01,8.36311e-01,9.99999e-01,9.99999e-01,8.61752e-01,9.73858e-01,9.96527e-01
9.108779334e-01,7.70913e-01,9.99999e-01,9.99999e-01,7.94057e-01,9.74367e-01,9.96391e-01
9.154323231e-01,7.47514e-01,9.99999e-01,9.99999e-01,7.69079e-01,9.74867e-01,9.97016e-01
9.200094847e-01,7.93776e-01,9.99999e-01,9.99999e-01,8.15192e-01,9.75357e-01,9.98329e-01
9.246095321e-01,7.12661e-01,9.99999e-01,9.99999e-01,7.31714e-01,9.75838e-01,9.98075e-01
9.292325798e-01,1.43650e-01,9.99999e-01,9.99999e-01,1.48510e-01,9.76310e-01,9.90741e-01
9.338787427e-01,8.07034e-02,9.99999e-01,9.99999e-01,8.54476e-02,9.76772e-01,9.66937e-01
9.385481364e-01,3.45329e-01,9.99999e-01,9.99999e-01,3.66674e-01,9.77226e-01,9.63734e-01
9.432408771e-01,2.46025e-01,9.99999e-01,9.99999e-01,2.59792e-01,9.77671e-01,9.68634e-01
9.479570815e-01,1.46518e-01,9.99999e-01,9.99999e-01,1.53734e-01,9.78107e-01,9.74396e-01
9.526968669e-01,2.25498e-01,9.99999e-01,9.99999e-01,2.34119e-01,9.78534e-01,9.84304e-01
9.574603512e-01,2.42424e-01,9.99999e-01,9.99999e-01,2.49633e-01,9.78954e-01,9.91996e-01
9.622476530e-01,3.08620e-01,9.99999e-01,9.99999e-01,3.16878e-01,9.79365e-01,9.94458e-01
9.670588912e-01,4.98626e-01,9.99999e-01,9.99999e-01,5.10860e-01,9.79769e-01,9.96206e-01
9.718941857e-01,6.33050e-01,9.99999e-01,9.99999e-01,6.47669e-01,9.80164e-01,9.97206e-01
9.767536566e-01,6.81681e-01,9.99999e-01,9.99999e-01,6.96688e-01,9.80552e-01,9.97864e-01
9.816374249e-01,7.49118e-01,9.99999e-01,9.99999e-01,7.64243e-01,9.80933e-01,9.99260e-01
9.865456120e-01,8.28942e-01,9.99999e-01,9.99999e-01,8.44862e-01,9.81306e-01,9.99845e-01
9.914783401e-01,8.84182e-01,9.99999e-01,9.99999e-01,9.00727e-01,9.81672e-01,9.99956e-01
9.964357318e-01,9.27653e-01,9.99999e-01,9.99999e-01,9.44650e-01,9.82030e-01,9.99974e-01
1.001417910e+00,9.49382e-01,9.99999e-01,9.99999e-01,9.66443e-01,9.82382e-01,9.99961e-01
1.006425000e+00,9.63692e-01,9.99999e-01,9.99999e-01,9.80683e-01,9.82727e-01,9.99945e-01
1.011457125e+00,9.71219e-01,9.99999e-01,9.99999e-01,9.87998e-01,9.83065e-01,9.99949e-01
1.016514411e+00,9.75324e-01,9.99999e-01,9.99999e-01,9.91825e-01,9.83397e-01,9.99963e-01
1.021596983e+00,9.77272e-01,9.99999e-01,9.99999e-01,9.93476e-01,9.83722e-01,9.99964e-01
1.026704968e+00,9.79008e-01,9.99999e-01,9.99999e-01,9.94906e-01,9.84041e-01,9.99977e-01
1.031838492e+00,9.80709e-01,9.99999e-01,9.99999e-01,9.96303e-01,9.84354e-01,9.99992e-01
1.036997685e+00,9.82492e-01,9.99999e-01,9.99999e-01,9.97798e-01,9.84661e-01,9.99998e-01
1.042182673e+00,9.82367e-01,9.99999e-01,9.99999e-01,9.97365e-01,9.84961e-01,9.99999e-01
1.047393587e+00,9.81822e-01,9.99999e-01,9.99999e-01,9.96514e-01,9.85256e-01,9.99998e-01
1.052630555e+00,9.80827e-01,9.99999e-01,9.99999e-01,9.95213e-01,9.85545e-01,9.99998e-01
1.057893707e+00,9.77950e-01,9.99999e-01,9.99999e-01,9.92009e-01,9.85829e-01,9.99996e-01
1.063183176e+00,9.73184e-01,9.99999e-01,9.99999e-01,9.86901e-01,9.86107e-01,9.99992e-01
1.068499092e+00,9.64861e-01,9.99999e-01,9.99999e-01,9.78198e-01,9.86379e-01,9.99984e-01
1.073841587e+00,9.61473e-01,9.99999e-01,9.99999e-01,9.74516e-01,9.86646e-01,9.99967e-01
1.079210795e+00,9.54789e-01,9.99999e-01,9.99999e-01,9.67539e-01,9.86908e-01,9.99911e-01
1.084606849e+00,9.38834e-01,9.99999e-01,9.99999e-01,9.51241e-01,9.87165e-01,9.99787e-01
1.090029883e+00,9.18353e-01,9.99999e-01,9.99999e-01,9.30463e-01,9.87417e-01,9.99560e-01
1.095480033e+00,8.11449e-01,9.99999e-01,9.99999e-01,8.22235e-01,9.87664e-01,9.99206e-01
1.100957433e+00,6.03936e-01,9.99999e-01,9.99999e-01,6.12222e-01,9.87906e-01,9.98540e-01
1.106462220e+00,2.99038e-01,9.99999e-01,9.99999e-01,3.03376e-01,9.88144e-01,9.97525e-01
1.111994531e+00,8.66714e-02,9.99999e-01,9.99999e-01,8.82692e-02,9.88377e-01,9.93444e-01
1.117554504e+00,2.22265e-02,9.99999e-01,9.99999e-01,2.30230e-02,9.88605e-01,9.76533e-01
1.123142276e+00,7.26693e-02,9.99999e-01,9.99999e-01,7.77473e-02,9.88829e-01,9.45243e-01
1.128757988e+00,1.51991e-01,9.99999e-01,9.99999e-01,1.64018e-01,9.89048e-01,9.36931e-01
1.134401778e+00,6.99641e-02,9.99999e-01,9.99999e-01,7.47514e-02,9.89263e-01,9.46113e-01
1.140073787e+00,3.03943e-01,9.99999e-01,9.99999e-01,3.21077e-01,9.89474e-01,9.56706e-01
1.145774156e+00,1.06893e-01,9.99999e-01,9.99999e-01,1.12473e-01,9.89681e-01,9.60297e-01
1.151503026e+00,8.59108e-02,9.99999e-01,9.99999e-01,8.87696e-02,9.89884e-01,9.77683e-01
1.157260541e+00,1.10484e-01,9.99999e-01,9.99999e-01,1.12346e-01,9.90083e-01,9.93274e-01
1.163046844e+00,1.93740e-01,9.99999e-01,9.99999e-01,1.96016e-01,9.90277e-01,9.98088e-01
1.168862078e+00,3.06951e-01,9.99999e-01,9.99999e-01,3.10210e-01,9.90469e-01,9.99014e-01
1.174706389e+00,4.78780e-01,9.99999e-01,9.99999e-01,4.83927e-01,9.90656e-01,9.98694e-01
1.180579921e+00,6.33734e-01,9.99999e-01,9.99999e-01,6.40857e-01,9.90840e-01,9.98026e-01
1.186482820e+00,7.67245e-01,9.99999e-01,9.99999e-01,7.75767e-01,9.91020e-01,9.97974e-01
1.192415234e+00,8.52839e-01,9.99999e-01,9.99999e-01,8.61720e-01,9.91196e-01,9.98482e-01
1.198377311e+00,8.73127e-01,9.99999e-01,9.99999e-01,8.81997e-01,9.91369e-01,9.98560e-01
1.204369197e+00,8.79830e-01,9.99999e-01,9.99999e-01,8.88451e-01,9.91539e-01,9.98745e-01
1.210391043e+00,8.84740e-01,9.99999e-01,9.99999e-01,8.92843e-01,9.91706e-01,9.99210e-01
1.216442998e+00,9.00446e-01,9.99999e-01,9.99999e-01,9.08266e-01,9.91869e-01,9.99516e-01
1.222525213e+00,9.19956e-01,9.99999e-01,9.99999e-01,9.27626e-01,9.92029e-01,9.99699e-01
1.228637839e+00,9.41566e-01,9.99999e-01,9.99999e-01,9.49113e-01,9.92186e-01,9.99859e-01
