#,Wave/freq,Total,N2,O2,H2O,Rayleigh,CIA
4.000000000e-01,8.77777e-01,9.99999e-01,9.99999e-01,9.99984e-01,8.77790e-01,9.99999e-01
4.020000000e-01,8.80047e-01,9.99999e-01,9.99999e-01,9.99990e-01,8.80055e-01,9.99999e-01
4.040100000e-01,8.82276e-01,9.99999e-01,9.99999e-01,9.99995e-01,8.82279e-01,9.99999e-01
4.060300500e-01,8.84464e-01,9.99999e-01,9.99999e-01,9.99998e-01,8.84464e-01,9.99999e-01
4.080602003e-01,8.86612e-01,9.99999e-01,9.99999e-01,9.99999e-01,8.86612e-01,9.99999e-01
4.101005013e-01,8.88722e-01,9.99999e-01,9.99999e-01,9.99999e-01,8.88722e-01,9.99999e-01
4.121510038e-01,8.90795e-01,9.99999e-01,9.99999e-01,9.99998e-01,8.90795e-01,9.99999e-01
4.142117588e-01,8.92829e-01,9.99999e-01,9.99999e-01,9.99995e-01,8.92832e-01,9.99999e-01
4.162828176e-01,8.94817e-01,9.99999e-01,9.99999e-01,9.99981e-01,8.94834e-01,9.99999e-01
4.183642317e-01,8.96790e-01,9.99999e-01,9.99999e-01,9.99988e-01,8.96800e-01,9.99999e-01
4.204560528e-01,8.98725e-01,9.99999e-01,9.99999e-01,9.99992e-01,8.98731e-01,9.99999e-01
4.225583331e-01,9.00627e-01,9.99999e-01,9.99999e-01,9.99997e-01,9.00629e-01,9.99999e-01
4.246711247e-01,9.02491e-01,9.99999e-01,9.99999e-01,9.99997e-01,9.02493e-01,9.99999e-01
4.267944804e-01,9.04321e-01,9.99999e-01,9.99999e-01,9.99996e-01,9.04323e-01,9.99999e-01
4.289284528e-01,9.06120e-01,9.99999e-01,9.99999e-01,9.99997e-01,9.06122e-01,9.99999e-01
4.310730950e-01,9.07887e-01,9.99999e-01,9.99999e-01,9.99998e-01,9.07888e-01,9.99999e-01
4.332284605e-01,9.09622e-01,9.99999e-01,9.99999e-01,9.99999e-01,9.09622e-01,9.99999e-01
4.353946028e-01,9.11326e-01,9.99999e-01,9.99999e-01,9.99999e-01,9.11326e-01,9.99999e-01
4.375715758e-01,9.12997e-01,9.99999e-01,9.99999e-01,9.99997e-01,9.12999e-01,9.99999e-01
4.397594337e-01,9.14627e-01,9.99999e-01,9.99999e-01,9.99983e-01,9.14642e-01,9.99999e-01
4.419582309e-01,9.16180e-01,9.99999e-01,9.99999e-01,9.99917e-01,9.16255e-01,9.99999e-01
4.441680220e-01,9.17781e-01,9.99999e-01,9.99999e-01,9.99936e-01,9.17839e-01,9.99999e-01
4.463888621e-01,9.19334e-01,9.99999e-01,9.99999e-01,9.99933e-01,9.19395e-01,9.99999e-01
4.486208064e-01,9.20885e-01,9.99999e-01,9.99999e-01,9.99958e-01,9.20922e-01,9.99999e-01
4.508639105e-01,9.22404e-01,9.99999e-01,9.99999e-01,9.99980e-01,9.22422e-01,9.99999e-01
4.531182300e-01,9.23888e-01,9.99999e-01,9.99999e-01,9.99991e-01,9.23895e-01,9.99999e-01
4.553838212e-01,9.25335e-01,9.99999e-01,9.99999e-01,9.99994e-01,9.25340e-01,9.99999e-01
4.576607403e-01,9.26757e-01,9.99999e-01,9.99999e-01,9.99997e-01,9.26760e-01,9.99999e-01
4.599490440e-01,9.28151e-01,9.99999e-01,9.99999e-01,9.99997e-01,9.28153e-01,9.99999e-01
4.622487892e-01,9.29521e-01,9.99999e-01,9.99999e-01,9.99999e-01,9.29521e-01,9.99999e-01
4.645600332e-01,9.30863e-01,9.99999e-01,9.99999e-01,9.99998e-01,9.30864e-01,9.99999e-01
4.668828333e-01,9.32164e-01,9.99999e-01,9.99999e-01,9.99980e-01,9.32182e-01,9.99999e-01
4.692172475e-01,9.33437e-01,9.99999e-01,9.99999e-01,9.99958e-01,9.33476e-01,9.99999e-01
4.715633337e-01,9.34721e-01,9.99999e-01,9.99999e-01,9.99972e-01,9.34746e-01,9.99999e-01
4.739211504e-01,9.35969e-01,9.99999e-01,9.99999e-01,9.99973e-01,9.35993e-01,9.99999e-01
4.762907561e-01,9.37204e-01,9.99999e-01,9.99999e-01,9.99986e-01,9.37216e-01,9.99999e-01
4.786722099e-01,9.38412e-01,9.99999e-01,9.99999e-01,9.99994e-01,9.38418e-01,9.99999e-01
4.810655710e-01,9.39595e-01,9.99999e-01,9.99999e-01,9.99997e-01,9.39596e-01,9.99999e-01
4.834708988e-01,9.40738e-01,9.99999e-01,9.99999e-01,9.99983e-01,9.40753e-01,9.99999e-01
4.858882533e-01,9.41861e-01,9.99999e-01,9.99999e-01,9.99970e-01,9.41889e-01,9.99999e-01
4.883176946e-01,9.42980e-01,9.99999e-01,9.99999e-01,9.99974e-01,9.43003e-01,9.99999e-01
4.907592831e-01,9.44076e-01,9.99999e-01,9.99999e-01,9.99977e-01,9.44097e-01,9.99999e-01
4.932130795e-01,9.45156e-01,9.99999e-01,9.99999e-01,9.99983e-01,9.45171e-01,9.99999e-01
4.956791449e-01,9.46216e-01,9.99999e-01,9.99999e-01,9.99991e-01,9.46224e-01,9.99999e-01
4.981575406e-01,9.47218e-01,9.99999e-01,9.99999e-01,9.99957e-01,9.47258e-01,9.99999e-01
5.006483283e-01,9.48169e-01,9.99999e-01,9.99999e-01,9.99891e-01,9.48272e-01,9.99998e-01
5.031515699e-01,9.48742e-01,9.99999e-01,9.99999e-01,9.99452e-01,9.49267e-01,9.99993e-01
5.056673278e-01,9.49964e-01,9.99999e-01,9.99999e-01,9.99711e-01,9.50244e-01,9.99992e-01
5.081956644e-01,9.50852e-01,9.99999e-01,9.99999e-01,9.99635e-01,9.51202e-01,9.99995e-01
5.107366428e-01,9.51908e-01,9.99999e-01,9.99999e-01,9.99753e-01,9.52143e-01,9.99998e-01
5.132903260e-01,9.52932e-01,9.99999e-01,9.99999e-01,9.99859e-01,9.53066e-01,9.99999e-01
5.158567776e-01,9.53914e-01,9.99999e-01,9.99999e-01,9.99940e-01,9.53971e-01,9.99999e-01
5.184360615e-01,9.54837e-01,9.99999e-01,9.99999e-01,9.99975e-01,9.54859e-01,9.99999e-01
5.210282418e-01,9.55722e-01,9.99999e-01,9.99999e-01,9.99990e-01,9.55731e-01,9.99999e-01
5.236333830e-01,9.56552e-01,9.99999e-01,9.99999e-01,9.99963e-01,9.56586e-01,9.99999e-01
5.262515499e-01,9.57403e-01,9.99999e-01,9.99999e-01,9.99977e-01,9.57425e-01,9.99999e-01
5.288828077e-01,9.58228e-01,9.99999e-01,9.99999e-01,9.99979e-01,9.58248e-01,9.99999e-01
5.315272217e-01,9.59038e-01,9.99999e-01,9.99999e-01,9.99981e-01,9.59056e-01,9.99999e-01
5.341848578e-01,9.59837e-01,9.99999e-01,9.99999e-01,9.99987e-01,9.59848e-01,9.99999e-01
5.368557821e-01,9.60585e-01,9.99999e-01,9.99999e-01,9.99957e-01,9.60625e-01,9.99999e-01
5.395400610e-01,9.61242e-01,9.99999e-01,9.99999e-01,9.99849e-01,9.61388e-01,9.99998e-01
5.422377613e-01,9.61946e-01,9.99999e-01,9.99999e-01,9.99806e-01,9.62136e-01,9.99996e-01
5.449489501e-01,9.62693e-01,9.99999e-01,9.99999e-01,9.99819e-01,9.62870e-01,9.99995e-01
5.476736949e-01,9.63434e-01,9.99999e-01,9.99999e-01,9.99840e-01,9.63589e-01,9.99997e-01
5.504120634e-01,9.64184e-01,9.99999e-01,9.99999e-01,9.99883e-01,9.64296e-01,9.99999e-01
5.531641237e-01,9.64932e-01,9.99999e-01,9.99999e-01,9.99941e-01,9.64988e-01,9.99999e-01
5.559299443e-01,9.65641e-01,9.99999e-01,9.99999e-01,9.99971e-01,9.65668e-01,9.99999e-01
5.587095940e-01,9.66317e-01,9.99999e-01,9.99999e-01,9.99981e-01,9.66335e-01,9.99999e-01
5.615031420e-01,9.66969e-01,9.99999e-01,9.99999e-01,9.99979e-01,9.66988e-01,9.99999e-01
5.643106577e-01,9.67608e-01,9.99999e-01,9.99999e-01,9.99977e-01,9.67630e-01,9.99999e-01
5.671322110e-01,9.67994e-01,9.99999e-01,9.99999e-01,9.99727e-01,9.68259e-01,9.99997e-01
5.699678720e-01,9.68591e-01,9.99999e-01,9.99999e-01,9.99712e-01,9.68876e-01,9.99992e-01
5.728177114e-01,9.69185e-01,9.99999e-01,9.99999e-01,9.99699e-01,9.69481e-01,9.99993e-01
5.756818000e-01,9.69805e-01,9.99999e-01,9.99999e-01,9.99724e-01,9.70075e-01,9.99995e-01
5.785602090e-01,9.70424e-01,9.99999e-01,9.99999e-01,9.99760e-01,9.70657e-01,9.99998e-01
5.814530100e-01,9.70994e-01,9.99999e-01,9.99999e-01,9.99758e-01,9.71228e-01,9.99998e-01
5.843602750e-01,9.71508e-01,9.99999e-01,9.99999e-01,9.99712e-01,9.71789e-01,9.99997e-01
5.872820764e-01,9.69913e-01,9.99999e-01,9.99999e-01,9.97522e-01,9.72338e-01,9.99982e-01
5.902184868e-01,9.69919e-01,9.99999e-01,9.99999e-01,9.97005e-01,9.72877e-01,9.99952e-01
5.931695792e-01,9.71301e-01,9.99999e-01,9.99999e-01,9.97882e-01,9.73405e-01,9.99954e-01
5.961354271e-01,9.71640e-01,9.99999e-01,9.99999e-01,9.97680e-01,9.73924e-01,9.99973e-01
5.991161043e-01,9.72777e-01,9.99999e-01,9.99999e-01,9.98308e-01,9.74432e-01,9.99991e-01
6.021116848e-01,9.73995e-01,9.99999e-01,9.99999e-01,9.99040e-01,9.74931e-01,9.99998e-01
6.051222432e-01,9.74946e-01,9.99999e-01,9.99999e-01,9.99514e-01,9.75420e-01,9.99999e-01
6.081478544e-01,9.75695e-01,9.99999e-01,9.99999e-01,9.99790e-01,9.75899e-01,9.99999e-01
6.111885937e-01,9.76283e-01,9.99999e-01,9.99999e-01,9.99911e-01,9.76370e-01,9.99999e-01
6.142445367e-01,9.76793e-01,9.99999e-01,9.99999e-01,9.99959e-01,9.76831e-01,9.99999e-01
6.173157594e-01,9.77262e-01,9.99999e-01,9.99999e-01,9.99977e-01,9.77284e-01,9.99999e-01
6.204023382e-01,9.77709e-01,9.99999e-01,9.99999e-01,9.99981e-01,9.77727e-01,9.99999e-01
6.235043498e-01,9.78082e-01,9.99999e-01,9.99999e-01,9.99917e-01,9.78162e-01,9.99999e-01
6.266218716e-01,9.78164e-01,9.99999e-01,9.99999e-01,9.99568e-01,9.78589e-01,9.99996e-01
6.297549810e-01,9.78847e-01,9.99999e-01,9.99999e-01,9.99841e-01,9.79007e-01,9.99993e-01
6.329037559e-01,9.79107e-01,9.99999e-01,9.99999e-01,9.99687e-01,9.79418e-01,9.99994e-01
6.360682746e-01,9.79557e-01,9.99999e-01,9.99999e-01,9.99733e-01,9.79820e-01,9.99996e-01
6.392486160e-01,9.79876e-01,9.99999e-01,9.99999e-01,9.99654e-01,9.80215e-01,9.99998e-01
6.424448591e-01,9.80147e-01,9.99999e-01,9.99999e-01,9.99537e-01,9.80602e-01,9.99997e-01
6.456570834e-01,9.78865e-01,9.99999e-01,9.99999e-01,9.97853e-01,9.80981e-01,9.99987e-01
6.488853688e-01,9.79783e-01,9.99999e-01,9.99999e-01,9.98432e-01,9.81353e-01,9.99966e-01
6.521297956e-01,9.80123e-01,9.99999e-01,9.99999e-01,9.98401e-01,9.81718e-01,9.99972e-01
6.553904446e-01,9.80493e-01,9.99999e-01,9.99999e-01,9.98408e-01,9.82076e-01,9.99979e-01
6.586673968e-01,9.81082e-01,9.99999e-01,9.99999e-01,9.98637e-01,9.82427e-01,9.99992e-01
6.619607338e-01,9.82024e-01,9.99999e-01,9.99999e-01,9.99240e-01,9.82771e-01,9.99998e-01
6.652705375e-01,9.82660e-01,9.99999e-01,9.99999e-01,9.99544e-01,9.83108e-01,9.99998e-01
6.685968902e-01,9.83231e-01,9.99999e-01,9.99999e-01,9.99788e-01,9.83439e-01,9.99999e-01
6.719398746e-01,9.83667e-01,9.99999e-01,9.99999e-01,9.99901e-01,9.83764e-01,9.99999e-01
6.752995740e-01,9.84030e-01,9.99999e-01,9.99999e-01,9.99946e-01,9.84082e-01,9.99999e-01
6.786760719e-01,9.84318e-01,9.99999e-01,9.99999e-01,9.99922e-01,9.84394e-01,9.99999e-01
6.820694522e-01,9.84570e-01,9.99999e-01,9.99999e-01,9.99868e-01,9.84700e-01,9.99998e-01
6.854797995e-01,9.84831e-01,9.99999e-01,9.99999e-01,9.99830e-01,9.85000e-01,9.99998e-01
6.889071985e-01,9.84884e-01,9.99999e-01,9.99999e-01,9.99587e-01,9.85294e-01,9.99995e-01
6.923517345e-01,9.78942e-01,9.99999e-01,9.99999e-01,9.93293e-01,9.85582e-01,9.99967e-01
6.958134932e-01,9.82369e-01,9.99999e-01,9.99999e-01,9.96524e-01,9.85865e-01,9.99928e-01
6.992925606e-01,9.82809e-01,9.99999e-01,9.99999e-01,9.96683e-01,9.86142e-01,9.99935e-01
7.027890234e-01,9.82336e-01,9.99999e-01,9.99999e-01,9.95913e-01,9.86414e-01,9.99950e-01
7.063029686e-01,9.83267e-01,9.99999e-01,9.99999e-01,9.96564e-01,9.86680e-01,9.99975e-01
7.098344834e-01,9.83675e-01,9.99999e-01,9.99999e-01,9.96703e-01,9.86942e-01,9.99985e-01
7.133836558e-01,9.82820e-01,9.99999e-01,9.99999e-01,9.95593e-01,9.87198e-01,9.99970e-01
7.169505741e-01,9.52690e-01,9.99999e-01,9.99999e-01,9.65016e-01,9.87449e-01,9.99774e-01
7.205353270e-01,9.70338e-01,9.99999e-01,9.99999e-01,9.82816e-01,9.87696e-01,9.99602e-01
7.241380036e-01,9.66024e-01,9.99999e-01,9.99999e-01,9.78154e-01,9.87937e-01,9.99656e-01
7.277586936e-01,9.68406e-01,9.99999e-01,9.99999e-01,9.80269e-01,9.88174e-01,9.99719e-01
7.313974871e-01,9.67600e-01,9.99999e-01,9.99999e-01,9.79077e-01,9.88406e-01,9.99868e-01
7.350544745e-01,9.77243e-01,9.99999e-01,9.99999e-01,9.88522e-01,9.88634e-01,9.99953e-01
7.387297469e-01,9.80480e-01,9.99999e-01,9.99999e-01,9.91548e-01,9.88857e-01,9.99978e-01
7.424233956e-01,9.84978e-01,9.99999e-01,9.99999e-01,9.95860e-01,9.89076e-01,9.99995e-01
7.461355126e-01,9.86807e-01,9.99999e-01,9.99999e-01,9.97489e-01,9.89291e-01,9.99998e-01
7.498661902e-01,9.88345e-01,9.99999e-01,9.99999e-01,9.98831e-01,9.89501e-01,9.99999e-01
7.536155211e-01,9.89140e-01,9.99999e-01,9.99999e-01,9.99426e-01,9.89707e-01,9.99999e-01
7.573835987e-01,9.89617e-01,9.99999e-01,9.99999e-01,9.99704e-01,9.89910e-01,9.99999e-01
7.611705167e-01,9.89926e-01,9.99999e-01,9.99999e-01,9.99816e-01,9.90108e-01,9.99999e-01
7.649763693e-01,9.90188e-01,9.99999e-01,9.99999e-01,9.99884e-01,9.90302e-01,9.99999e-01
7.688012511e-01,9.90414e-01,9.99999e-01,9.99999e-01,9.99919e-01,9.90493e-01,9.99999e-01
7.726452574e-01,9.90615e-01,9.99999e-01,9.99999e-01,9.99933e-01,9.90680e-01,9.99999e-01
7.765084837e-01,9.90770e-01,9.99999e-01,9.99999e-01,9.99905e-01,9.90863e-01,9.99999e-01
7.803910261e-01,9.90640e-01,9.99999e-01,9.99999e-01,9.99593e-01,9.91043e-01,9.99999e-01
7.842929812e-01,9.89813e-01,9.99999e-01,9.99999e-01,9.98583e-01,9.91219e-01,9.99996e-01
7.882144461e-01,9.88486e-01,9.99999e-01,9.99999e-01,9.97088e-01,9.91391e-01,9.99979e-01
7.921555184e-01,9.89945e-01,9.99999e-01,9.99999e-01,9.98404e-01,9.91561e-01,9.99964e-01
7.961162960e-01,9.88892e-01,9.99999e-01,9.99999e-01,9.97174e-01,9.91727e-01,9.99966e-01
8.000968774e-01,9.88623e-01,9.99999e-01,9.99999e-01,9.96741e-01,9.91889e-01,9.99964e-01
8.040973618e-01,9.88787e-01,9.99999e-01,9.99999e-01,9.96739e-01,9.92049e-01,9.99971e-01
8.081178486e-01,9.84884e-01,9.99999e-01,9.99999e-01,9.92646e-01,9.92205e-01,9.99973e-01
8.121584379e-01,9.62141e-01,9.99999e-01,9.99999e-01,9.69649e-01,9.92359e-01,9.99896e-01
8.162192301e-01,9.56532e-01,9.99999e-01,9.99999e-01,9.64123e-01,9.92509e-01,9.99613e-01
8.203003262e-01,9.74186e-01,9.99999e-01,9.99999e-01,9.81836e-01,9.92657e-01,9.99547e-01
8.244018279e-01,9.67435e-01,9.99999e-01,9.99999e-01,9.74800e-01,9.92801e-01,9.99639e-01
8.285238370e-01,9.71255e-01,9.99999e-01,9.99999e-01,9.78434e-01,9.92943e-01,9.99716e-01
8.326664562e-01,9.71333e-01,9.99999e-01,9.99999e-01,9.78214e-01,9.93082e-01,9.99882e-01
8.368297885e-01,9.77716e-01,9.99999e-01,9.99999e-01,9.84418e-01,9.93218e-01,9.99972e-01
8.410139374e-01,9.84118e-01,9.99999e-01,9.99999e-01,9.90720e-01,9.93351e-01,9.99983e-01
8.452190071e-01,9.88946e-01,9.99999e-01,9.99999e-01,9.95443e-01,9.93482e-01,9.99990e-01
8.494451021e-01,9.90973e-01,9.99999e-01,9.99999e-01,9.97352e-01,9.93610e-01,9.99992e-01
8.536923276e-01,9.92177e-01,9.99999e-01,9.99999e-01,9.98435e-01,9.93736e-01,9.99994e-01
8.579607893e-01,9.92900e-01,9.99999e-01,9.99999e-01,9.99035e-01,9.93860e-01,9.99998e-01
8.622505932e-01,9.93372e-01,9.99999e-01,9.99999e-01,9.99387e-01,9.93981e-01,9.99999e-01
8.665618462e-01,9.93722e-01,9.99999e-01,9.99999e-01,9.99620e-01,9.94099e-01,9.99999e-01
8.708946554e-01,9.93783e-01,9.99999e-01,9.99999e-01,9.99565e-01,9.94215e-01,9.99999e-01
8.752491287e-01,9.93751e-01,9.99999e-01,9.99999e-01,9.99418e-01,9.94329e-01,9.99998e-01
8.796253743e-01,9.93639e-01,9.99999e-01,9.99999e-01,9.99194e-01,9.94441e-01,9.99997e-01
8.840235012e-01,9.93631e-01,9.99999e-01,9.99999e-01,9.99080e-01,9.94550e-01,9.99993e-01
8.884436187e-01,9.91293e-01,9.99999e-01,9.99999e-01,9.96632e-01,9.94658e-01,9.99983e-01
8.928858368e-01,9.59924e-01,9.99999e-01,9.99999e-01,9.65065e-01,9.94763e-01,9.99907e-01
8.973502660e-01,9.33819e-01,9.99999e-01,9.99999e-01,9.39078e-01,9.94866e-01,9.99529e-01
9.018370173e-01,9.62888e-01,9.99999e-01,9.99999e-01,9.68473e-01,9.94967e-01,9.99260e-01
9.063462024e-01,9.66708e-01,9.99999e-01,9.99999e-01,9.72131e-01,9.95066e-01,9.99350e-01
9.108779334e-01,9.51644e-01,9.99999e-01,9.99999e-01,9.56913e-01,9.95164e-01,9.99325e-01
9.154323231e-01,9.46213e-01,9.99999e-01,9.99999e-01,9.51250e-01,9.95259e-01,9.99442e-01
9.200094847e-01,9.56848e-01,9.99999e-01,9.99999e-01,9.61615e-01,9.95352e-01,9.99687e-01
9.246095321e-01,9.35377e-01,9.99999e-01,9.99999e-01,9.39995e-01,9.95444e-01,9.99639e-01
9.292325798e-01,6.56744e-01,9.99999e-01,9.99999e-01,6.60615e-01,9.95534e-01,9.98598e-01
9.338787427e-01,5.79979e-01,9.99999e-01,9.99999e-01,5.85917e-01,9.95622e-01,9.94218e-01
9.385481364e-01,7.97411e-01,9.99999e-01,9.99999e-01,8.06389e-01,9.95708e-01,9.93127e-01
9.432408771e-01,7.32074e-01,9.99999e-01,9.99999e-01,7.39553e-01,9.95792e-01,9.94068e-01
9.479570815e-01,6.52611e-01,9.99999e-01,9.99999e-01,6.58494e-01,9.95875e-01,9.95169e-01
9.526968669e-01,7.27676e-01,9.99999e-01,9.99999e-01,7.32790e-01,9.95957e-01,9.97050e-01
9.574603512e-01,7.48755e-01,9.99999e-01,9.99999e-01,7.52863e-01,9.96036e-01,9.98500e-01
9.622476530e-01,7.90317e-01,9.99999e-01,9.99999e-01,7.94222e-01,9.96114e-01,9.98962e-01
9.670588912e-01,8.71786e-01,9.99999e-01,9.99999e-01,8.75740e-01,9.96191e-01,9.99290e-01
9.718941857e-01,9.16668e-01,9.99999e-01,9.99999e-01,9.20583e-01,9.96266e-01,9.99477e-01
9.767536566e-01,9.29841e-01,9.99999e-01,9.99999e-01,9.33628e-01,9.96340e-01,9.99600e-01
9.816374249e-01,9.46901e-01,9.99999e-01,9.99999e-01,9.50441e-01,9.96412e-01,9.99861e-01
9.865456120e-01,9.65328e-01,9.99999e-01,9.99999e-01,9.68762e-01,9.96483e-01,9.99970e-01
9.914783401e-01,9.77194e-01,9.99999e-01,9.99999e-01,9.80582e-01,9.96552e-01,9.99991e-01
9.964357318e-01,9.86034e-01,9.99999e-01,9.99999e-01,9.89381e-01,9.96620e-01,9.99994e-01
1.001417910e+00,9.90326e-01,9.99999e-01,9.99999e-01,9.93624e-01,9.96687e-01,9.99992e-01
1.006425000e+00,9.93114e-01,9.99999e-01,9.99999e-01,9.96360e-01,9.96752e-01,9.99989e-01
1.011457125e+00,9.94555e-01,9.99999e-01,9.99999e-01,9.97740e-01,9.96816e-01,9.99990e-01
1.016514411e+00,9.95343e-01,9.99999e-01,9.99999e-01,9.98465e-01,9.96879e-01,9.99992e-01
1.021596983e+00,9.95715e-01,9.99999e-01,9.99999e-01,9.98776e-01,9.96940e-01,9.99992e-01
1.026704968e+00,9.96045e-01,9.99999e-01,9.99999e-01,9.99045e-01,9.97001e-01,9.99995e-01
1.031838492e+00,9.96368e-01,9.99999e-01,9.99999e-01,9.99306e-01,9.97060e-01,9.99998e-01
1.036997685e+00,9.96707e-01,9.99999e-01,9.99999e-01,9.99587e-01,9.97118e-01,9.99999e-01
1.042182673e+00,9.96685e-01,9.99999e-01,9.99999e-01,9.99508e-01,9.97174e-01,9.99999e-01
1.047393587e+00,9.96581e-01,9.99999e-01,9.99999e-01,9.99348e-01,9.97230e-01,9.99999e-01
1.052630555e+00,9.96393e-01,9.99999e-01,9.99999e-01,9.99105e-01,9.97285e-01,9.99999e-01
1.057893707e+00,9.95849e-01,9.99999e-01,9.99999e-01,9.98506e-01,9.97338e-01,9.99998e-01
1.063183176e+00,9.94940e-01,9.99999e-01,9.99999e-01,9.97543e-01,9.97391e-01,9.99998e-01
1.068499092e+00,9.93341e-01,9.99999e-01,9.99999e-01,9.95890e-01,9.97442e-01,9.99996e-01
1.073841587e+00,9.92688e-01,9.99999e-01,9.99999e-01,9.95188e-01,9.97493e-01,9.99993e-01
1.079210795e+00,9.91384e-01,9.99999e-01,9.99999e-01,9.93842e-01,9.97542e-01,9.99983e-01
1.084606849e+00,9.88261e-01,9.99999e-01,9.99999e-01,9.90686e-01,9.97591e-01,9.99960e-01
1.090029883e+00,9.84215e-01,9.99999e-01,9.99999e-01,9.86624e-01,9.97638e-01,9.99917e-01
1.095480033e+00,9.61607e-01,9.99999e-01,9.99999e-01,9.63981e-01,9.97685e-01,9.99851e-01
1.100957433e+00,9.08565e-01,9.99999e-01,9.99999e-01,9.10879e-01,9.97730e-01,9.99726e-01
1.106462220e+00,7.86043e-01,9.99999e-01,9.99999e-01,7.88159e-01,9.97775e-01,9.99537e-01
1.111994531e+00,6.03997e-01,9.99999e-01,9.99999e-01,6.06060e-01,9.97819e-01,9.98772e-01
1.117554504e+00,4.41380e-01,9.99999e-01,9.99999e-01,4.44290e-01,9.97862e-01,9.95576e-01
1.123142276e+00,5.42554e-01,9.99999e-01,9.99999e-01,5.49438e-01,9.97904e-01,9.89542e-01
1.128757988e+00,6.72556e-01,9.99999e-01,9.99999e-01,6.82185e-01,9.97946e-01,9.87912e-01
1.134401778e+00,4.19539e-01,9.99999e-01,9.99999e-01,4.24755e-01,9.97986e-01,9.89712e-01
1.140073787e+00,7.88498e-01,9.99999e-01,9.99999e-01,7.96612e-01,9.98026e-01,9.91771e-01
1.145774156e+00,6.15776e-01,9.99999e-01,9.99999e-01,6.21653e-01,9.98065e-01,9.92465e-01
1.151503026e+00,5.84615e-01,9.99999e-01,9.99999e-01,5.88198e-01,9.98103e-01,9.95795e-01
1.157260541e+00,6.41810e-01,9.99999e-01,9.99999e-01,6.43816e-01,9.98140e-01,9.98740e-01
1.163046844e+00,7.20949e-01,9.99999e-01,9.99999e-01,7.22523e-01,9.98177e-01,9.99642e-01
1.168862078e+00,7.96711e-01,9.99999e-01,9.99999e-01,7.98284e-01,9.98213e-01,9.99815e-01
1.174706389e+00,8.68478e-01,9.99999e-01,9.99999e-01,8.70213e-01,9.98248e-01,9.99755e-01
1.180579921e+00,9.16959e-01,9.99999e-01,9.99999e-01,9.18874e-01,9.98283e-01,9.99630e-01
1.186482820e+00,9.51379e-01,9.99999e-01,9.99999e-01,9.53343e-01,9.98317e-01,9.99621e-01
1.192415234e+00,9.70632e-01,9.99999e-01,9.99999e-01,9.72511e-01,9.98350e-01,9.99716e-01
1.198377311e+00,9.74930e-01,9.99999e-01,9.99999e-01,9.76770e-01,9.98382e-01,9.99731e-01
1.204369197e+00,9.76215e-01,9.99999e-01,9.99999e-01,9.78002e-01,9.98414e-01,9.99757e-01
1.210391043e+00,9.77294e-01,9.99999e-01,9.99999e-01,9.78959e-01,9.98446e-01,9.99852e-01
1.216442998e+00,9.80498e-01,9.99999e-01,9.99999e-01,9.82082e-01,9.98476e-01,9.99909e-01
1.222525213e+00,9.84498e-01,9.99999e-01,9.99999e-01,9.86025e-01,9.98506e-01,9.99943e-01
1.228637839e+00,9.88801e-01,9.99999e-01,9.99999e-01,9.90276e-01,9.98536e-01,9.99973e-01
