#,Wave/freq,Total,N2,O2,H2O,Rayleigh,CIA
4.000000000e-01,9.15107e-01,9.99999e-01,9.99999e-01,9.99989e-01,9.15116e-01,9.99999e-01
4.020000000e-01,9.16717e-01,9.99999e-01,9.99999e-01,9.99993e-01,9.16722e-01,9.99999e-01
4.040100000e-01,9.18296e-01,9.99999e-01,9.99999e-01,9.99996e-01,9.18298e-01,9.99999e-01
4.060300500e-01,9.19845e-01,9.99999e-01,9.99999e-01,9.99998e-01,9.19845e-01,9.99999e-01
4.080602003e-01,9.21365e-01,9.99999e-01,9.99999e-01,9.99999e-01,9.21365e-01,9.99999e-01
4.101005013e-01,9.22856e-01,9.99999e-01,9.99999e-01,9.99999e-01,9.22856e-01,9.99999e-01
4.121510038e-01,9.24321e-01,9.99999e-01,9.99999e-01,9.99999e-01,9.24321e-01,9.99999e-01
4.142117588e-01,9.25756e-01,9.99999e-01,9.99999e-01,9.99996e-01,9.25759e-01,9.99999e-01
4.162828176e-01,9.27159e-01,9.99999e-01,9.99999e-01,9.99987e-01,9.27171e-01,9.99999e-01
4.183642317e-01,9.28550e-01,9.99999e-01,9.99999e-01,9.99992e-01,9.28556e-01,9.99999e-01
4.204560528e-01,9.29913e-01,9.99999e-01,9.99999e-01,9.99994e-01,9.29917e-01,9.99999e-01
4.225583331e-01,9.31251e-01,9.99999e-01,9.99999e-01,9.99997e-01,9.31253e-01,9.99999e-01
4.246711247e-01,9.32562e-01,9.99999e-01,9.99999e-01,9.99998e-01,9.32564e-01,9.99999e-01
4.267944804e-01,9.33849e-01,9.99999e-01,9.99999e-01,9.99997e-01,9.33851e-01,9.99999e-01
4.289284528e-01,9.35112e-01,9.99999e-01,9.99999e-01,9.99997e-01,9.35114e-01,9.99999e-01
4.310730950e-01,9.36353e-01,9.99999e-01,9.99999e-01,9.99998e-01,9.36354e-01,9.99999e-01
4.332284605e-01,9.37571e-01,9.99999e-01,9.99999e-01,9.99999e-01,9.37571e-01,9.99999e-01
4.353946028e-01,9.38765e-01,9.99999e-01,9.99999e-01,9.99999e-01,9.38765e-01,9.99999e-01
4.375715758e-01,9.39937e-01,9.99999e-01,9.99999e-01,9.99998e-01,9.39938e-01,9.99999e-01
4.397594337e-01,9.41078e-01,9.99999e-01,9.99999e-01,9.99988e-01,9.41088e-01,9.99999e-01
4.419582309e-01,9.42167e-01,9.99999e-01,9.99999e-01,9.99945e-01,9.42218e-01,9.99999e-01
4.441680220e-01,9.43285e-01,9.99999e-01,9.99999e-01,9.99956e-01,9.43326e-01,9.99999e-01
4.463888621e-01,9.44371e-01,9.99999e-01,9.99999e-01,9.99954e-01,9.44414e-01,9.99999e-01
4.486208064e-01,9.45455e-01,9.99999e-01,9.99999e-01,9.99971e-01,9.45481e-01,9.99999e-01
4.508639105e-01,9.46516e-01,9.99999e-01,9.99999e-01,9.99986e-01,9.46529e-01,9.99999e-01
4.531182300e-01,9.47552e-01,9.99999e-01,9.99999e-01,9.99994e-01,9.47557e-01,9.99999e-01
4.553838212e-01,9.48562e-01,9.99999e-01,9.99999e-01,9.99995e-01,9.48566e-01,9.99999e-01
4.576607403e-01,9.49554e-01,9.99999e-01,9.99999e-01,9.99997e-01,9.49555e-01,9.99999e-01
4.599490440e-01,9.50526e-01,9.99999e-01,9.99999e-01,9.99998e-01,9.50527e-01,9.99999e-01
4.622487892e-01,9.51480e-01,9.99999e-01,9.99999e-01,9.99999e-01,9.51480e-01,9.99999e-01
4.645600332e-01,9.52414e-01,9.99999e-01,9.99999e-01,9.99998e-01,9.52415e-01,9.99999e-01
4.668828333e-01,9.53320e-01,9.99999e-01,9.99999e-01,9.99986e-01,9.53333e-01,9.99999e-01
4.692172475e-01,9.54206e-01,9.99999e-01,9.99999e-01,9.99971e-01,9.54233e-01,9.99999e-01
4.715633337e-01,9.55099e-01,9.99999e-01,9.99999e-01,9.99981e-01,9.55116e-01,9.99999e-01
4.739211504e-01,9.55966e-01,9.99999e-01,9.99999e-01,9.99981e-01,9.55983e-01,9.99999e-01
4.762907561e-01,9.56825e-01,9.99999e-01,9.99999e-01,9.99990e-01,9.56834e-01,9.99999e-01
4.786722099e-01,9.57664e-01,9.99999e-01,9.99999e-01,9.99995e-01,9.57668e-01,9.99999e-01
4.810655710e-01,9.58485e-01,9.99999e-01,9.99999e-01,9.99998e-01,9.58486e-01,9.99999e-01
4.834708988e-01,9.59279e-01,9.99999e-01,9.99999e-01,9.99988e-01,9.59289e-01,9.99999e-01
4.858882533e-01,9.60058e-01,9.99999e-01,9.99999e-01,9.99979e-01,9.60077e-01,9.99999e-01
4.883176946e-01,9.60834e-01,9.99999e-01,9.99999e-01,9.99982e-01,9.60850e-01,9.99999e-01
4.907592831e-01,9.61594e-01,9.99999e-01,9.99999e-01,9.99984e-01,9.61608e-01,9.99999e-01
4.932130795e-01,9.62342e-01,9.99999e-01,9.99999e-01,9.99988e-01,9.62352e-01,9.99999e-01
4.956791449e-01,9.63077e-01,9.99999e-01,9.99999e-01,9.99993e-01,9.63082e-01,9.99999e-01
4.981575406e-01,9.63771e-01,9.99999e-01,9.99999e-01,9.99971e-01,9.63798e-01,9.99999e-01
5.006483283e-01,9.64430e-01,9.99999e-01,9.99999e-01,9.99926e-01,9.64500e-01,9.99999e-01
5.031515699e-01,9.64827e-01,9.99999e-01,9.99999e-01,9.99628e-01,9.65189e-01,9.99995e-01
5.056673278e-01,9.65670e-01,9.99999e-01,9.99999e-01,9.99802e-01,9.65865e-01,9.99995e-01
5.081956644e-01,9.66285e-01,9.99999e-01,9.99999e-01,9.99751e-01,9.66527e-01,9.99996e-01
5.107366428e-01,9.67015e-01,9.99999e-01,9.99999e-01,9.99831e-01,9.67178e-01,9.99998e-01
5.132903260e-01,9.67722e-01,9.99999e-01,9.99999e-01,9.99903e-01,9.67815e-01,9.99999e-01
5.158567776e-01,9.68402e-01,9.99999e-01,9.99999e-01,9.99958e-01,9.68441e-01,9.99999e-01
5.184360615e-01,9.69039e-01,9.99999e-01,9.99999e-01,9.99983e-01,9.69055e-01,9.99999e-01
5.210282418e-01,9.69651e-01,9.99999e-01,9.99999e-01,9.99993e-01,9.69656e-01,9.99999e-01
5.236333830e-01,9.70223e-01,9.99999e-01,9.99999e-01,9.99975e-01,9.70247e-01,9.99999e-01
5.262515499e-01,9.70811e-01,9.99999e-01,9.99999e-01,9.99984e-01,9.70826e-01,9.99999e-01
5.288828077e-01,9.71380e-01,9.99999e-01,9.99999e-01,9.99985e-01,9.71394e-01,9.99999e-01
5.315272217e-01,9.71939e-01,9.99999e-01,9.99999e-01,9.99987e-01,9.71951e-01,9.99999e-01
5.341848578e-01,9.72489e-01,9.99999e-01,9.99999e-01,9.99991e-01,9.72497e-01,9.99999e-01
5.368557821e-01,9.73006e-01,9.99999e-01,9.99999e-01,9.99971e-01,9.73033e-01,9.99999e-01
5.395400610e-01,9.73460e-01,9.99999e-01,9.99999e-01,9.99898e-01,9.73558e-01,9.99998e-01
5.422377613e-01,9.73943e-01,9.99999e-01,9.99999e-01,9.99867e-01,9.74074e-01,9.99997e-01
5.449489501e-01,9.74458e-01,9.99999e-01,9.99999e-01,9.99877e-01,9.74579e-01,9.99997e-01
5.476736949e-01,9.74968e-01,9.99999e-01,9.99999e-01,9.99890e-01,9.75075e-01,9.99998e-01
5.504120634e-01,9.75484e-01,9.99999e-01,9.99999e-01,9.99920e-01,9.75561e-01,9.99999e-01
5.531641237e-01,9.75999e-01,9.99999e-01,9.99999e-01,9.99959e-01,9.76038e-01,9.99999e-01
5.559299443e-01,9.76487e-01,9.99999e-01,9.99999e-01,9.99980e-01,9.76506e-01,9.99999e-01
5.587095940e-01,9.76953e-01,9.99999e-01,9.99999e-01,9.99987e-01,9.76965e-01,9.99999e-01
5.615031420e-01,9.77401e-01,9.99999e-01,9.99999e-01,9.99986e-01,9.77414e-01,9.99999e-01
5.643106577e-01,9.77841e-01,9.99999e-01,9.99999e-01,9.99984e-01,9.77856e-01,9.99999e-01
5.671322110e-01,9.78110e-01,9.99999e-01,9.99999e-01,9.99819e-01,9.78288e-01,9.99998e-01
5.699678720e-01,9.78514e-01,9.99999e-01,9.99999e-01,9.99802e-01,9.78712e-01,9.99994e-01
5.728177114e-01,9.78925e-01,9.99999e-01,9.99999e-01,9.99796e-01,9.79128e-01,9.99995e-01
5.756818000e-01,9.79351e-01,9.99999e-01,9.99999e-01,9.99812e-01,9.79536e-01,9.99996e-01
5.785602090e-01,9.79776e-01,9.99999e-01,9.99999e-01,9.99836e-01,9.79937e-01,9.99998e-01
5.814530100e-01,9.80168e-01,9.99999e-01,9.99999e-01,9.99835e-01,9.80329e-01,9.99999e-01
5.843602750e-01,9.80523e-01,9.99999e-01,9.99999e-01,9.99806e-01,9.80714e-01,9.99998e-01
5.872820764e-01,9.79439e-01,9.99999e-01,9.99999e-01,9.98327e-01,9.81091e-01,9.99987e-01
5.902184868e-01,9.79424e-01,9.99999e-01,9.99999e-01,9.97956e-01,9.81461e-01,9.99967e-01
5.931695792e-01,9.80380e-01,9.99999e-01,9.99999e-01,9.98560e-01,9.81824e-01,9.99968e-01
5.961354271e-01,9.80608e-01,9.99999e-01,9.99999e-01,9.98418e-01,9.82180e-01,9.99980e-01
5.991161043e-01,9.81389e-01,9.99999e-01,9.99999e-01,9.98845e-01,9.82528e-01,9.99993e-01
6.021116848e-01,9.82225e-01,9.99999e-01,9.99999e-01,9.99343e-01,9.82871e-01,9.99998e-01
6.051222432e-01,9.82880e-01,9.99999e-01,9.99999e-01,9.99667e-01,9.83206e-01,9.99999e-01
6.081478544e-01,9.83394e-01,9.99999e-01,9.99999e-01,9.99856e-01,9.83535e-01,9.99999e-01
6.111885937e-01,9.83798e-01,9.99999e-01,9.99999e-01,9.99938e-01,9.83858e-01,9.99999e-01
6.142445367e-01,9.84147e-01,9.99999e-01,9.99999e-01,9.99972e-01,9.84174e-01,9.99999e-01
6.173157594e-01,9.84469e-01,9.99999e-01,9.99999e-01,9.99984e-01,9.84484e-01,9.99999e-01
6.204023382e-01,9.84776e-01,9.99999e-01,9.99999e-01,9.99986e-01,9.84788e-01,9.99999e-01
6.235043498e-01,9.85033e-01,9.99999e-01,9.99999e-01,9.99945e-01,9.85086e-01,9.99999e-01
6.266218716e-01,9.85088e-01,9.99999e-01,9.99999e-01,9.99706e-01,9.85379e-01,9.99997e-01
6.297549810e-01,9.85556e-01,9.99999e-01,9.99999e-01,9.99892e-01,9.85665e-01,9.99995e-01
6.329037559e-01,9.85733e-01,9.99999e-01,9.99999e-01,9.99786e-01,9.85947e-01,9.99996e-01
6.360682746e-01,9.86042e-01,9.99999e-01,9.99999e-01,9.99819e-01,9.86222e-01,9.99997e-01
6.392486160e-01,9.86260e-01,9.99999e-01,9.99999e-01,9.99765e-01,9.86493e-01,9.99998e-01
6.424448591e-01,9.86479e-01,9.99999e-01,9.99999e-01,9.99718e-01,9.86758e-01,9.99998e-01
6.456570834e-01,9.85592e-01,9.99999e-01,9.99999e-01,9.98563e-01,9.87017e-01,9.99991e-01
6.488853688e-01,9.86009e-01,9.99999e-01,9.99999e-01,9.98743e-01,9.87272e-01,9.99976e-01
6.521297956e-01,9.86426e-01,9.99999e-01,9.99999e-01,9.98908e-01,9.87522e-01,9.99980e-01
6.553904446e-01,9.86690e-01,9.99999e-01,9.99999e-01,9.98923e-01,9.87767e-01,9.99985e-01
6.586673968e-01,9.87083e-01,9.99999e-01,9.99999e-01,9.99068e-01,9.88007e-01,9.99994e-01
6.619607338e-01,9.87710e-01,9.99999e-01,9.99999e-01,9.99461e-01,9.88243e-01,9.99998e-01
6.652705375e-01,9.88164e-01,9.99999e-01,9.99999e-01,9.99687e-01,9.88473e-01,9.99998e-01
6.685968902e-01,9.88557e-01,9.99999e-01,9.99999e-01,9.99854e-01,9.88700e-01,9.99999e-01
6.719398746e-01,9.88855e-01,9.99999e-01,9.99999e-01,9.99932e-01,9.88922e-01,9.99999e-01
6.752995740e-01,9.89103e-01,9.99999e-01,9.99999e-01,9.99963e-01,9.89139e-01,9.99999e-01
6.786760719e-01,9.89301e-01,9.99999e-01,9.99999e-01,9.99947e-01,9.89353e-01,9.99999e-01
6.820694522e-01,9.89473e-01,9.99999e-01,9.99999e-01,9.99910e-01,9.89562e-01,9.99999e-01
6.854797995e-01,9.89652e-01,9.99999e-01,9.99999e-01,9.99884e-01,9.89767e-01,9.99998e-01
6.889071985e-01,9.89694e-01,9.99999e-01,9.99999e-01,9.99725e-01,9.89968e-01,9.99997e-01
6.923517345e-01,9.85655e-01,9.99999e-01,9.99999e-01,9.95466e-01,9.90165e-01,9.99977e-01
6.958134932e-01,9.87927e-01,9.99999e-01,9.99999e-01,9.97593e-01,9.90359e-01,9.99950e-01
6.992925606e-01,9.88286e-01,9.99999e-01,9.99999e-01,9.97758e-01,9.90548e-01,9.99956e-01
7.027890234e-01,9.87939e-01,9.99999e-01,9.99999e-01,9.97211e-01,9.90734e-01,9.99966e-01
7.063029686e-01,9.88580e-01,9.99999e-01,9.99999e-01,9.97658e-01,9.90916e-01,9.99982e-01
7.098344834e-01,9.88859e-01,9.99999e-01,9.99999e-01,9.97753e-01,9.91095e-01,9.99989e-01
7.133836558e-01,9.88320e-01,9.99999e-01,9.99999e-01,9.97042e-01,9.91270e-01,9.99980e-01
7.169505741e-01,9.67681e-01,9.99999e-01,9.99999e-01,9.76183e-01,9.91441e-01,9.99846e-01
7.205353270e-01,9.79525e-01,9.99999e-01,9.99999e-01,9.88078e-01,9.91610e-01,9.99729e-01
7.241380036e-01,9.76786e-01,9.99999e-01,9.99999e-01,9.85118e-01,9.91775e-01,9.99764e-01
7.277586936e-01,9.78403e-01,9.99999e-01,9.99999e-01,9.86548e-01,9.91937e-01,9.99804e-01
7.313974871e-01,9.77750e-01,9.99999e-01,9.99999e-01,9.85627e-01,9.92095e-01,9.99910e-01
7.350544745e-01,9.84428e-01,9.99999e-01,9.99999e-01,9.92146e-01,9.92251e-01,9.99968e-01
7.387297469e-01,9.86649e-01,9.99999e-01,9.99999e-01,9.94215e-01,9.92403e-01,9.99985e-01
7.424233956e-01,9.89732e-01,9.99999e-01,9.99999e-01,9.97160e-01,9.92553e-01,9.99996e-01
7.461355126e-01,9.90994e-01,9.99999e-01,9.99999e-01,9.98281e-01,9.92699e-01,9.99999e-01
7.498661902e-01,9.92047e-01,9.99999e-01,9.99999e-01,9.99197e-01,9.92843e-01,9.99999e-01
7.536155211e-01,9.92594e-01,9.99999e-01,9.99999e-01,9.99607e-01,9.92984e-01,9.99999e-01
7.573835987e-01,9.92921e-01,9.99999e-01,9.99999e-01,9.99797e-01,9.93122e-01,9.99999e-01
7.611705167e-01,9.93133e-01,9.99999e-01,9.99999e-01,9.99874e-01,9.93257e-01,9.99999e-01
7.649763693e-01,9.93312e-01,9.99999e-01,9.99999e-01,9.99921e-01,9.93390e-01,9.99999e-01
7.688012511e-01,9.93466e-01,9.99999e-01,9.99999e-01,9.99944e-01,9.93520e-01,9.99999e-01
7.726452574e-01,9.93603e-01,9.99999e-01,9.99999e-01,9.99954e-01,9.93648e-01,9.99999e-01
7.765084837e-01,9.93710e-01,9.99999e-01,9.99999e-01,9.99936e-01,9.93773e-01,9.99999e-01
7.803910261e-01,9.93624e-01,9.99999e-01,9.99999e-01,9.99726e-01,9.93895e-01,9.99999e-01
7.842929812e-01,9.93066e-01,9.99999e-01,9.99999e-01,9.99045e-01,9.94015e-01,9.99997e-01
7.882144461e-01,9.92151e-01,9.99999e-01,9.99999e-01,9.98017e-01,9.94133e-01,9.99987e-01
7.921555184e-01,9.93139e-01,9.99999e-01,9.99999e-01,9.98907e-01,9.94249e-01,9.99976e-01
7.961162960e-01,9.92441e-01,9.99999e-01,9.99999e-01,9.98089e-01,9.94362e-01,9.99977e-01
8.000968774e-01,9.92244e-01,9.99999e-01,9.99999e-01,9.97781e-01,9.94473e-01,9.99975e-01
8.040973618e-01,9.92360e-01,9.99999e-01,9.99999e-01,9.97784e-01,9.94582e-01,9.99980e-01
8.081178486e-01,9.89736e-01,9.99999e-01,9.99999e-01,9.95038e-01,9.94689e-01,9.99981e-01
8.121584379e-01,9.74208e-01,9.99999e-01,9.99999e-01,9.79374e-01,9.94793e-01,9.99929e-01
8.162192301e-01,9.70066e-01,9.99999e-01,9.99999e-01,9.75298e-01,9.94896e-01,9.99736e-01
8.203003262e-01,9.82523e-01,9.99999e-01,9.99999e-01,9.87767e-01,9.94996e-01,9.99691e-01
8.244018279e-01,9.77409e-01,9.99999e-01,9.99999e-01,9.82467e-01,9.95095e-01,9.99754e-01
8.285238370e-01,9.80380e-01,9.99999e-01,9.99999e-01,9.85306e-01,9.95192e-01,9.99807e-01
8.326664562e-01,9.80358e-01,9.99999e-01,9.99999e-01,9.85078e-01,9.95286e-01,9.99919e-01
8.368297885e-01,9.84734e-01,9.99999e-01,9.99999e-01,9.89322e-01,9.95379e-01,9.99981e-01
8.410139374e-01,9.89134e-01,9.99999e-01,9.99999e-01,9.93644e-01,9.95470e-01,9.99988e-01
8.452190071e-01,9.92445e-01,9.99999e-01,9.99999e-01,9.96877e-01,9.95560e-01,9.99993e-01
8.494451021e-01,9.93845e-01,9.99999e-01,9.99999e-01,9.98194e-01,9.95647e-01,9.99994e-01
8.536923276e-01,9.94663e-01,9.99999e-01,9.99999e-01,9.98928e-01,9.95733e-01,9.99996e-01
8.579607893e-01,9.95161e-01,9.99999e-01,9.99999e-01,9.99341e-01,9.95817e-01,9.99998e-01
8.622505932e-01,9.95482e-01,9.99999e-01,9.99999e-01,9.99580e-01,9.95899e-01,9.99999e-01
8.665618462e-01,9.95723e-01,9.99999e-01,9.99999e-01,9.99741e-01,9.95980e-01,9.99999e-01
8.708946554e-01,9.95766e-01,9.99999e-01,9.99999e-01,9.99704e-01,9.96059e-01,9.99999e-01
8.752491287e-01,9.95743e-01,9.99999e-01,9.99999e-01,9.99604e-01,9.96137e-01,9.99999e-01
8.796253743e-01,9.95669e-01,9.99999e-01,9.99999e-01,9.99454e-01,9.96213e-01,9.99998e-01
8.840235012e-01,9.95663e-01,9.99999e-01,9.99999e-01,9.99376e-01,9.96288e-01,9.99995e-01
8.884436187e-01,9.94122e-01,9.99999e-01,9.99999e-01,9.97763e-01,9.96361e-01,9.99988e-01
8.928858368e-01,9.72751e-01,9.99999e-01,9.99999e-01,9.76293e-01,9.96433e-01,9.99937e-01
8.973502660e-01,9.54331e-01,9.99999e-01,9.99999e-01,9.57986e-01,9.96503e-01,9.99679e-01
9.018370173e-01,9.74329e-01,9.99999e-01,9.99999e-01,9.78171e-01,9.96572e-01,9.99496e-01
9.063462024e-01,9.77355e-01,9.99999e-01,9.99999e-01,9.81083e-01,9.96640e-01,9.99557e-01
9.108779334e-01,9.66853e-01,9.99999e-01,9.99999e-01,9.70493e-01,9.96706e-01,9.99540e-01
9.154323231e-01,9.63028e-01,9.99999e-01,9.99999e-01,9.66514e-01,9.96771e-01,9.99620e-01
9.200094847e-01,9.70303e-01,9.99999e-01,9.99999e-01,9.73590e-01,9.96834e-01,9.99787e-01
9.246095321e-01,9.56196e-01,9.99999e-01,9.99999e-01,9.59406e-01,9.96897e-01,9.99754e-01
9.292325798e-01,7.50088e-01,9.99999e-01,9.99999e-01,7.53094e-01,9.96958e-01,9.99045e-01
9.338787427e-01,6.85524e-01,9.99999e-01,9.99999e-01,6.90291e-01,9.97018e-01,9.96062e-01
9.385481364e-01,8.54922e-01,9.99999e-01,9.99999e-01,8.61460e-01,9.97077e-01,9.95318e-01
9.432408771e-01,8.06451e-01,9.99999e-01,9.99999e-01,8.12048e-01,9.97134e-01,9.95960e-01
9.479570815e-01,7.43570e-01,9.99999e-01,9.99999e-01,7.48125e-01,9.97191e-01,9.96710e-01
9.526968669e-01,8.01332e-01,9.99999e-01,9.99999e-01,8.05160e-01,9.97246e-01,9.97992e-01
9.574603512e-01,8.19802e-01,9.99999e-01,9.99999e-01,8.22859e-01,9.97301e-01,9.98979e-01
9.622476530e-01,8.50676e-01,9.99999e-01,9.99999e-01,8.53535e-01,9.97354e-01,9.99294e-01
9.670588912e-01,9.10277e-01,9.99999e-01,9.99999e-01,9.13084e-01,9.97406e-01,9.99516e-01
9.718941857e-01,9.42378e-01,9.99999e-01,9.99999e-01,9.45116e-01,9.97457e-01,9.99644e-01
9.767536566e-01,9.51625e-01,9.99999e-01,9.99999e-01,9.54261e-01,9.97507e-01,9.99728e-01
9.816374249e-01,9.63411e-01,9.99999e-01,9.99999e-01,9.65860e-01,9.97556e-01,9.99905e-01
9.865456120e-01,9.76182e-01,9.99999e-01,9.99999e-01,9.78544e-01,9.97605e-01,9.99979e-01
9.914783401e-01,9.84380e-01,9.99999e-01,9.99999e-01,9.86701e-01,9.97652e-01,9.99994e-01
9.964357318e-01,9.90448e-01,9.99999e-01,9.99999e-01,9.92735e-01,9.97698e-01,9.99996e-01
1.001417910e+00,9.93389e-01,9.99999e-01,9.99999e-01,9.95640e-01,9.97744e-01,9.99994e-01
1.006425000e+00,9.95305e-01,9.99999e-01,9.99999e-01,9.97518e-01,9.97788e-01,9.99992e-01
1.011457125e+00,9.96284e-01,9.99999e-01,9.99999e-01,9.98454e-01,9.97832e-01,9.99993e-01
1.016514411e+00,9.96825e-01,9.99999e-01,9.99999e-01,9.98952e-01,9.97875e-01,9.99994e-01
1.021596983e+00,9.97080e-01,9.99999e-01,9.99999e-01,9.99165e-01,9.97916e-01,9.99994e-01
1.026704968e+00,9.97306e-01,9.99999e-01,9.99999e-01,9.99349e-01,9.97958e-01,9.99996e-01
1.031838492e+00,9.97525e-01,9.99999e-01,9.99999e-01,9.99526e-01,9.97998e-01,9.99998e-01
1.036997685e+00,9.97757e-01,9.99999e-01,9.99999e-01,9.99719e-01,9.98037e-01,9.99999e-01
1.042182673e+00,9.97743e-01,9.99999e-01,9.99999e-01,9.99666e-01,9.98076e-01,9.99999e-01
1.047393587e+00,9.97672e-01,9.99999e-01,9.99999e-01,9.99556e-01,9.98114e-01,9.99999e-01
1.052630555e+00,9.97545e-01,9.99999e-01,9.99999e-01,9.99392e-01,9.98151e-01,9.99999e-01
1.057893707e+00,9.97177e-01,9.99999e-01,9.99999e-01,9.98987e-01,9.98188e-01,9.99999e-01
1.063183176e+00,9.96559e-01,9.99999e-01,9.99999e-01,9.98332e-01,9.98223e-01,9.99998e-01
1.068499092e+00,9.95467e-01,9.99999e-01,9.99999e-01,9.97205e-01,9.98258e-01,9.99997e-01
1.073841587e+00,9.95029e-01,9.99999e-01,9.99999e-01,9.96734e-01,9.98293e-01,9.99995e-01
1.079210795e+00,9.94127e-01,9.99999e-01,9.99999e-01,9.95803e-01,9.98326e-01,9.99988e-01
1.084606849e+00,9.92006e-01,9.99999e-01,9.99999e-01,9.93662e-01,9.98359e-01,9.99972e-01
1.090029883e+00,9.89304e-01,9.99999e-01,9.99999e-01,9.90952e-01,9.98392e-01,9.99943e-01
1.095480033e+00,9.73848e-01,9.99999e-01,9.99999e-01,9.75483e-01,9.98424e-01,9.99898e-01
1.100957433e+00,9.37125e-01,9.99999e-01,9.99999e-01,9.38749e-01,9.98455e-01,9.99814e-01
1.106462220e+00,8.49379e-01,9.99999e-01,9.99999e-01,8.50935e-01,9.98485e-01,9.99684e-01
1.111994531e+00,7.07866e-01,9.99999e-01,9.99999e-01,7.09511e-01,9.98515e-01,9.99164e-01
1.117554504e+00,5.69210e-01,9.99999e-01,9.99999e-01,5.71761e-01,9.98544e-01,9.96988e-01
1.123142276e+00,6.51557e-01,9.99999e-01,9.99999e-01,6.57171e-01,9.98573e-01,9.92872e-01
1.128757988e+00,7.60651e-01,9.99999e-01,9.99999e-01,7.68044e-01,9.98601e-01,9.91759e-01
1.134401778e+00,5.25884e-01,9.99999e-01,9.99999e-01,5.30412e-01,9.98629e-01,9.92823e-01
1.140073787e+00,8.50053e-01,9.99999e-01,9.99999e-01,8.56122e-01,9.98656e-01,9.94245e-01
1.145774156e+00,7.15217e-01,9.99999e-01,9.99999e-01,7.19855e-01,9.98682e-01,9.94867e-01
1.151503026e+00,6.89215e-01,9.99999e-01,9.99999e-01,6.92087e-01,9.98708e-01,9.97137e-01
1.157260541e+00,7.37736e-01,9.99999e-01,9.99999e-01,7.39304e-01,9.98734e-01,9.99142e-01
1.163046844e+00,7.98858e-01,9.99999e-01,9.99999e-01,8.00044e-01,9.98759e-01,9.99756e-01
1.168862078e+00,8.56048e-01,9.99999e-01,9.99999e-01,8.57197e-01,9.98783e-01,9.99874e-01
1.174706389e+00,9.08112e-01,9.99999e-01,9.99999e-01,9.09347e-01,9.98807e-01,9.99833e-01
1.180579921e+00,9.42464e-01,9.99999e-01,9.99999e-01,9.43803e-01,9.98831e-01,9.99748e-01
1.186482820e+00,9.66566e-01,9.99999e-01,9.99999e-01,9.67923e-01,9.98854e-01,9.99742e-01
1.192415234e+00,9.79895e-01,9.99999e-01,9.99999e-01,9.81185e-01,9.98876e-01,9.99806e-01
1.198377311e+00,9.82884e-01,9.99999e-01,9.99999e-01,9.84146e-01,9.98899e-01,9.99817e-01
1.204369197e+00,9.83743e-01,9.99999e-01,9.99999e-01,9.84967e-01,9.98920e-01,9.99834e-01
1.210391043e+00,9.84482e-01,9.99999e-01,9.99999e-01,9.85623e-01,9.98942e-01,9.99899e-01
1.216442998e+00,9.86647e-01,9.99999e-01,9.99999e-01,9.87731e-01,9.98962e-01,9.99938e-01
1.222525213e+00,9.89405e-01,9.99999e-01,9.99999e-01,9.90449e-01,9.98983e-01,9.99961e-01
1.228637839e+00,9.92357e-01,9.99999e-01,9.99999e-01,9.93364e-01,9.99003e-01,9.99981e-01
