#,Wave/freq,Total,N2,O2,H2O,Rayleigh,CIA
4.000000000e-01,7.30540e-01,9.99999e-01,9.99999e-01,9.99964e-01,7.30566e-01,9.99999e-01
4.020000000e-01,7.35099e-01,9.99999e-01,9.99999e-01,9.99977e-01,7.35115e-01,9.99999e-01
4.040100000e-01,7.39590e-01,9.99999e-01,9.99999e-01,9.99990e-01,7.39597e-01,9.99999e-01
4.060300500e-01,7.44016e-01,9.99999e-01,9.99999e-01,9.99997e-01,7.44017e-01,9.99999e-01
4.080602003e-01,7.48375e-01,9.99999e-01,9.99999e-01,9.99998e-01,7.48375e-01,9.99999e-01
4.101005013e-01,7.52672e-01,9.99999e-01,9.99999e-01,9.99999e-01,7.52672e-01,9.99999e-01
4.121510038e-01,7.56907e-01,9.99999e-01,9.99999e-01,9.99998e-01,7.56908e-01,9.99999e-01
4.142117588e-01,7.61076e-01,9.99999e-01,9.99999e-01,9.99989e-01,7.61084e-01,9.99999e-01
4.162828176e-01,7.65166e-01,9.99999e-01,9.99999e-01,9.99955e-01,7.65199e-01,9.99999e-01
4.183642317e-01,7.69235e-01,9.99999e-01,9.99999e-01,9.99973e-01,7.69255e-01,9.99999e-01
4.204560528e-01,7.73239e-01,9.99999e-01,9.99999e-01,9.99983e-01,7.73251e-01,9.99999e-01
4.225583331e-01,7.77184e-01,9.99999e-01,9.99999e-01,9.99993e-01,7.77189e-01,9.99999e-01
4.246711247e-01,7.81064e-01,9.99999e-01,9.99999e-01,9.99994e-01,7.81068e-01,9.99999e-01
4.267944804e-01,7.84884e-01,9.99999e-01,9.99999e-01,9.99992e-01,7.84889e-01,9.99999e-01
4.289284528e-01,7.88649e-01,9.99999e-01,9.99999e-01,9.99994e-01,7.88654e-01,9.99999e-01
4.310730950e-01,7.92359e-01,9.99999e-01,9.99999e-01,9.99997e-01,7.92361e-01,9.99999e-01
4.332284605e-01,7.96011e-01,9.99999e-01,9.99999e-01,9.99998e-01,7.96012e-01,9.99999e-01
4.353946028e-01,7.99607e-01,9.99999e-01,9.99999e-01,9.99999e-01,7.99607e-01,9.99999e-01
4.375715758e-01,8.03144e-01,9.99999e-01,9.99999e-01,9.99995e-01,8.03147e-01,9.99999e-01
4.397594337e-01,8.06601e-01,9.99999e-01,9.99999e-01,9.99961e-01,8.06632e-01,9.99999e-01
4.419582309e-01,8.09905e-01,9.99999e-01,9.99999e-01,9.99804e-01,8.10063e-01,9.99999e-01
4.441680220e-01,8.13317e-01,9.99999e-01,9.99999e-01,9.99846e-01,8.13441e-01,9.99999e-01
4.463888621e-01,8.16635e-01,9.99999e-01,9.99999e-01,9.99840e-01,8.16765e-01,9.99999e-01
4.486208064e-01,8.19956e-01,9.99999e-01,9.99999e-01,9.99900e-01,8.20037e-01,9.99999e-01
4.508639105e-01,8.23219e-01,9.99999e-01,9.99999e-01,9.99953e-01,8.23257e-01,9.99999e-01
4.531182300e-01,8.26411e-01,9.99999e-01,9.99999e-01,9.99981e-01,8.26426e-01,9.99999e-01
4.553838212e-01,8.29533e-01,9.99999e-01,9.99999e-01,9.99987e-01,8.29544e-01,9.99999e-01
4.576607403e-01,8.32607e-01,9.99999e-01,9.99999e-01,9.99993e-01,8.32611e-01,9.99999e-01
4.599490440e-01,8.35626e-01,9.99999e-01,9.99999e-01,9.99995e-01,8.35630e-01,9.99999e-01
4.622487892e-01,8.38598e-01,9.99999e-01,9.99999e-01,9.99998e-01,8.38599e-01,9.99999e-01
4.645600332e-01,8.41517e-01,9.99999e-01,9.99999e-01,9.99996e-01,8.41520e-01,9.99999e-01
4.668828333e-01,8.44353e-01,9.99999e-01,9.99999e-01,9.99952e-01,8.44393e-01,9.99999e-01
4.692172475e-01,8.47134e-01,9.99999e-01,9.99999e-01,9.99899e-01,8.47218e-01,9.99999e-01
4.715633337e-01,8.49942e-01,9.99999e-01,9.99999e-01,9.99934e-01,8.49997e-01,9.99999e-01
4.739211504e-01,8.52677e-01,9.99999e-01,9.99999e-01,9.99937e-01,8.52730e-01,9.99999e-01
4.762907561e-01,8.55390e-01,9.99999e-01,9.99999e-01,9.99967e-01,8.55418e-01,9.99999e-01
4.786722099e-01,8.58049e-01,9.99999e-01,9.99999e-01,9.99986e-01,8.58061e-01,9.99999e-01
4.810655710e-01,8.60656e-01,9.99999e-01,9.99999e-01,9.99995e-01,8.60659e-01,9.99999e-01
4.834708988e-01,8.63181e-01,9.99999e-01,9.99999e-01,9.99961e-01,8.63214e-01,9.99999e-01
4.858882533e-01,8.65664e-01,9.99999e-01,9.99999e-01,9.99928e-01,8.65726e-01,9.99999e-01
4.883176946e-01,8.68144e-01,9.99999e-01,9.99999e-01,9.99940e-01,8.68195e-01,9.99999e-01
4.907592831e-01,8.70575e-01,9.99999e-01,9.99999e-01,9.99946e-01,8.70622e-01,9.99999e-01
4.932130795e-01,8.72975e-01,9.99999e-01,9.99999e-01,9.99961e-01,8.73008e-01,9.99999e-01
4.956791449e-01,8.75335e-01,9.99999e-01,9.99999e-01,9.99979e-01,8.75353e-01,9.99999e-01
4.981575406e-01,8.77570e-01,9.99999e-01,9.99999e-01,9.99899e-01,8.77658e-01,9.99999e-01
5.006483283e-01,8.79693e-01,9.99999e-01,9.99999e-01,9.99740e-01,8.79923e-01,9.99997e-01
5.031515699e-01,8.80976e-01,9.99999e-01,9.99999e-01,9.98683e-01,8.82149e-01,9.99985e-01
5.056673278e-01,8.83708e-01,9.99999e-01,9.99999e-01,9.99304e-01,8.84337e-01,9.99983e-01
5.081956644e-01,8.85700e-01,9.99999e-01,9.99999e-01,9.99123e-01,8.86486e-01,9.99989e-01
5.107366428e-01,8.88071e-01,9.99999e-01,9.99999e-01,9.99407e-01,8.88599e-01,9.99997e-01
5.132903260e-01,8.90373e-01,9.99999e-01,9.99999e-01,9.99661e-01,8.90674e-01,9.99999e-01
5.158567776e-01,8.92586e-01,9.99999e-01,9.99999e-01,9.99856e-01,8.92713e-01,9.99999e-01
5.184360615e-01,8.94666e-01,9.99999e-01,9.99999e-01,9.99942e-01,8.94717e-01,9.99999e-01
5.210282418e-01,8.96666e-01,9.99999e-01,9.99999e-01,9.99978e-01,8.96685e-01,9.99999e-01
5.236333830e-01,8.98541e-01,9.99999e-01,9.99999e-01,9.99913e-01,8.98618e-01,9.99998e-01
5.262515499e-01,9.00469e-01,9.99999e-01,9.99999e-01,9.99945e-01,9.00518e-01,9.99998e-01
5.288828077e-01,9.02339e-01,9.99999e-01,9.99999e-01,9.99950e-01,9.02384e-01,9.99998e-01
5.315272217e-01,9.04177e-01,9.99999e-01,9.99999e-01,9.99956e-01,9.04216e-01,9.99999e-01
5.341848578e-01,9.05991e-01,9.99999e-01,9.99999e-01,9.99971e-01,9.06016e-01,9.99999e-01
5.368557821e-01,9.07694e-01,9.99999e-01,9.99999e-01,9.99899e-01,9.07784e-01,9.99999e-01
5.395400610e-01,9.09191e-01,9.99999e-01,9.99999e-01,9.99639e-01,9.09521e-01,9.99996e-01
5.422377613e-01,9.10794e-01,9.99999e-01,9.99999e-01,9.99533e-01,9.11226e-01,9.99991e-01
5.449489501e-01,9.12498e-01,9.99999e-01,9.99999e-01,9.99566e-01,9.12901e-01,9.99990e-01
5.476736949e-01,9.14191e-01,9.99999e-01,9.99999e-01,9.99615e-01,9.14546e-01,9.99995e-01
5.504120634e-01,9.15904e-01,9.99999e-01,9.99999e-01,9.99720e-01,9.16161e-01,9.99998e-01
5.531641237e-01,9.17618e-01,9.99999e-01,9.99999e-01,9.99859e-01,9.17747e-01,9.99999e-01
5.559299443e-01,9.19242e-01,9.99999e-01,9.99999e-01,9.99931e-01,9.19304e-01,9.99999e-01
5.587095940e-01,9.20794e-01,9.99999e-01,9.99999e-01,9.99957e-01,9.20833e-01,9.99999e-01
5.615031420e-01,9.22291e-01,9.99999e-01,9.99999e-01,9.99952e-01,9.22334e-01,9.99999e-01
5.643106577e-01,9.23759e-01,9.99999e-01,9.99999e-01,9.99946e-01,9.23808e-01,9.99999e-01
5.671322110e-01,9.24649e-01,9.99999e-01,9.99999e-01,9.99349e-01,9.25256e-01,9.99993e-01
5.699678720e-01,9.26018e-01,9.99999e-01,9.99999e-01,9.99306e-01,9.26677e-01,9.99981e-01
5.728177114e-01,9.27389e-01,9.99999e-01,9.99999e-01,9.99278e-01,9.28071e-01,9.99984e-01
5.756818000e-01,9.28818e-01,9.99999e-01,9.99999e-01,9.99337e-01,9.29441e-01,9.99990e-01
5.785602090e-01,9.30246e-01,9.99999e-01,9.99999e-01,9.99422e-01,9.30785e-01,9.99996e-01
5.814530100e-01,9.31564e-01,9.99999e-01,9.99999e-01,9.99420e-01,9.32105e-01,9.99998e-01
5.843602750e-01,9.32753e-01,9.99999e-01,9.99999e-01,9.99309e-01,9.33400e-01,9.99995e-01
5.872820764e-01,9.29085e-01,9.99999e-01,9.99999e-01,9.94063e-01,9.34672e-01,9.99957e-01
5.902184868e-01,9.29078e-01,9.99999e-01,9.99999e-01,9.92801e-01,9.35920e-01,9.99885e-01
5.931695792e-01,9.32276e-01,9.99999e-01,9.99999e-01,9.94913e-01,9.37145e-01,9.99889e-01
5.961354271e-01,9.33056e-01,9.99999e-01,9.99999e-01,9.94423e-01,9.38347e-01,9.99936e-01
5.991161043e-01,9.35686e-01,9.99999e-01,9.99999e-01,9.95929e-01,9.39528e-01,9.99980e-01
6.021116848e-01,9.38510e-01,9.99999e-01,9.99999e-01,9.97688e-01,9.40686e-01,9.99997e-01
6.051222432e-01,9.40721e-01,9.99999e-01,9.99999e-01,9.98829e-01,9.41823e-01,9.99999e-01
6.081478544e-01,9.42463e-01,9.99999e-01,9.99999e-01,9.99494e-01,9.42938e-01,9.99999e-01
6.111885937e-01,9.43832e-01,9.99999e-01,9.99999e-01,9.99786e-01,9.44033e-01,9.99999e-01
6.142445367e-01,9.45018e-01,9.99999e-01,9.99999e-01,9.99904e-01,9.45108e-01,9.99999e-01
6.173157594e-01,9.46113e-01,9.99999e-01,9.99999e-01,9.99946e-01,9.46162e-01,9.99999e-01
6.204023382e-01,9.47155e-01,9.99999e-01,9.99999e-01,9.99955e-01,9.47197e-01,9.99999e-01
6.235043498e-01,9.48027e-01,9.99999e-01,9.99999e-01,9.99803e-01,9.48213e-01,9.99999e-01
6.266218716e-01,9.48218e-01,9.99999e-01,9.99999e-01,9.98962e-01,9.49209e-01,9.99992e-01
6.297549810e-01,9.49812e-01,9.99999e-01,9.99999e-01,9.99619e-01,9.50187e-01,9.99984e-01
6.329037559e-01,9.50420e-01,9.99999e-01,9.99999e-01,9.99247e-01,9.51146e-01,9.99987e-01
6.360682746e-01,9.51472e-01,9.99999e-01,9.99999e-01,9.99359e-01,9.52088e-01,9.99992e-01
6.392486160e-01,9.52218e-01,9.99999e-01,9.99999e-01,9.99169e-01,9.53012e-01,9.99996e-01
6.424448591e-01,9.52855e-01,9.99999e-01,9.99999e-01,9.98890e-01,9.53918e-01,9.99994e-01
6.456570834e-01,9.49868e-01,9.99999e-01,9.99999e-01,9.94855e-01,9.54807e-01,9.99970e-01
6.488853688e-01,9.51999e-01,9.99999e-01,9.99999e-01,9.96227e-01,9.55680e-01,9.99919e-01
6.521297956e-01,9.52795e-01,9.99999e-01,9.99999e-01,9.96154e-01,9.56536e-01,9.99933e-01
6.553904446e-01,9.53666e-01,9.99999e-01,9.99999e-01,9.96173e-01,9.57376e-01,9.99950e-01
6.586673968e-01,9.55043e-01,9.99999e-01,9.99999e-01,9.96720e-01,9.58200e-01,9.99983e-01
6.619607338e-01,9.57187e-01,9.99999e-01,9.99999e-01,9.98103e-01,9.59008e-01,9.99995e-01
6.652705375e-01,9.58746e-01,9.99999e-01,9.99999e-01,9.98901e-01,9.59802e-01,9.99997e-01
6.685968902e-01,9.60090e-01,9.99999e-01,9.99999e-01,9.99489e-01,9.60580e-01,9.99999e-01
6.719398746e-01,9.61116e-01,9.99999e-01,9.99999e-01,9.99763e-01,9.61343e-01,9.99999e-01
6.752995740e-01,9.61969e-01,9.99999e-01,9.99999e-01,9.99871e-01,9.62092e-01,9.99999e-01
6.786760719e-01,9.62649e-01,9.99999e-01,9.99999e-01,9.99814e-01,9.62827e-01,9.99999e-01
6.820694522e-01,9.63241e-01,9.99999e-01,9.99999e-01,9.99683e-01,9.63547e-01,9.99997e-01
6.854797995e-01,9.63858e-01,9.99999e-01,9.99999e-01,9.99591e-01,9.64254e-01,9.99995e-01
6.889071985e-01,9.63988e-01,9.99999e-01,9.99999e-01,9.99013e-01,9.64948e-01,9.99990e-01
6.923517345e-01,9.50085e-01,9.99999e-01,9.99999e-01,9.83979e-01,9.65628e-01,9.99922e-01
6.958134932e-01,9.58040e-01,9.99999e-01,9.99999e-01,9.91625e-01,9.66296e-01,9.99828e-01
6.992925606e-01,9.59119e-01,9.99999e-01,9.99999e-01,9.92054e-01,9.66950e-01,9.99845e-01
7.027890234e-01,9.57987e-01,9.99999e-01,9.99999e-01,9.90188e-01,9.67592e-01,9.99881e-01
7.063029686e-01,9.60175e-01,9.99999e-01,9.99999e-01,9.91745e-01,9.68222e-01,9.99940e-01
7.098344834e-01,9.61133e-01,9.99999e-01,9.99999e-01,9.92079e-01,9.68840e-01,9.99964e-01
7.133836558e-01,9.59174e-01,9.99999e-01,9.99999e-01,9.89471e-01,9.69446e-01,9.99930e-01
7.169505741e-01,8.90497e-01,9.99999e-01,9.99999e-01,9.18497e-01,9.70040e-01,9.99457e-01
7.205353270e-01,9.30091e-01,9.99999e-01,9.99999e-01,9.59157e-01,9.70623e-01,9.99043e-01
7.241380036e-01,9.20371e-01,9.99999e-01,9.99999e-01,9.48450e-01,9.71195e-01,9.99173e-01
7.277586936e-01,9.25813e-01,9.99999e-01,9.99999e-01,9.53364e-01,9.71756e-01,9.99324e-01
7.313974871e-01,9.23800e-01,9.99999e-01,9.99999e-01,9.50412e-01,9.72306e-01,9.99683e-01
7.350544745e-01,9.46091e-01,9.99999e-01,9.99999e-01,9.72604e-01,9.72845e-01,9.99889e-01
7.387297469e-01,9.53628e-01,9.99999e-01,9.99999e-01,9.79762e-01,9.73375e-01,9.99949e-01
7.424233956e-01,9.64191e-01,9.99999e-01,9.99999e-01,9.90046e-01,9.73894e-01,9.99989e-01
7.461355126e-01,9.68514e-01,9.99999e-01,9.99999e-01,9.93958e-01,9.74403e-01,9.99997e-01
7.498661902e-01,9.72155e-01,9.99999e-01,9.99999e-01,9.97182e-01,9.74902e-01,9.99998e-01
7.536155211e-01,9.74043e-01,9.99999e-01,9.99999e-01,9.98617e-01,9.75391e-01,9.99999e-01
7.573835987e-01,9.75177e-01,9.99999e-01,9.99999e-01,9.99288e-01,9.75871e-01,9.99999e-01
7.611705167e-01,9.75911e-01,9.99999e-01,9.99999e-01,9.99557e-01,9.76342e-01,9.99999e-01
7.649763693e-01,9.76534e-01,9.99999e-01,9.99999e-01,9.99722e-01,9.76804e-01,9.99999e-01
7.688012511e-01,9.77069e-01,9.99999e-01,9.99999e-01,9.99806e-01,9.77257e-01,9.99999e-01
7.726452574e-01,9.77546e-01,9.99999e-01,9.99999e-01,9.99840e-01,9.77701e-01,9.99999e-01
7.765084837e-01,9.77916e-01,9.99999e-01,9.99999e-01,9.99774e-01,9.78137e-01,9.99999e-01
7.803910261e-01,9.77610e-01,9.99999e-01,9.99999e-01,9.99025e-01,9.78564e-01,9.99998e-01
7.842929812e-01,9.75652e-01,9.99999e-01,9.99999e-01,9.96602e-01,9.78983e-01,9.99993e-01
7.882144461e-01,9.72502e-01,9.99999e-01,9.99999e-01,9.93005e-01,9.79394e-01,9.99956e-01
7.921555184e-01,9.75952e-01,9.99999e-01,9.99999e-01,9.96157e-01,9.79797e-01,9.99916e-01
7.961162960e-01,9.73475e-01,9.99999e-01,9.99999e-01,9.93225e-01,9.80192e-01,9.99920e-01
8.000968774e-01,9.72821e-01,9.99999e-01,9.99999e-01,9.92171e-01,9.80579e-01,9.99914e-01
8.040973618e-01,9.73215e-01,9.99999e-01,9.99999e-01,9.92171e-01,9.80959e-01,9.99932e-01
8.081178486e-01,9.64050e-01,9.99999e-01,9.99999e-01,9.82450e-01,9.81332e-01,9.99936e-01
8.121584379e-01,9.11677e-01,9.99999e-01,9.99999e-01,9.28903e-01,9.81697e-01,9.99752e-01
8.162192301e-01,8.98846e-01,9.99999e-01,9.99999e-01,9.16121e-01,9.82055e-01,9.99069e-01
8.203003262e-01,9.39718e-01,9.99999e-01,9.99999e-01,9.57589e-01,9.82406e-01,9.98910e-01
8.244018279e-01,9.24170e-01,9.99999e-01,9.99999e-01,9.41206e-01,9.82751e-01,9.99132e-01
8.285238370e-01,9.32369e-01,9.99999e-01,9.99999e-01,9.49052e-01,9.83089e-01,9.99318e-01
8.326664562e-01,9.32523e-01,9.99999e-01,9.99999e-01,9.48511e-01,9.83420e-01,9.99717e-01
8.368297885e-01,9.47192e-01,9.99999e-01,9.99999e-01,9.62904e-01,9.83745e-01,9.99935e-01
8.410139374e-01,9.62172e-01,9.99999e-01,9.99999e-01,9.77790e-01,9.84063e-01,9.99961e-01
8.452190071e-01,9.73573e-01,9.99999e-01,9.99999e-01,9.89047e-01,9.84376e-01,9.99977e-01
8.494451021e-01,9.78397e-01,9.99999e-01,9.99999e-01,9.93634e-01,9.84682e-01,9.99981e-01
8.536923276e-01,9.81259e-01,9.99999e-01,9.99999e-01,9.96230e-01,9.84982e-01,9.99988e-01
8.579607893e-01,9.82987e-01,9.99999e-01,9.99999e-01,9.97678e-01,9.85276e-01,9.99996e-01
8.622505932e-01,9.84111e-01,9.99999e-01,9.99999e-01,9.98524e-01,9.85565e-01,9.99999e-01
8.665618462e-01,9.84949e-01,9.99999e-01,9.99999e-01,9.99087e-01,9.85848e-01,9.99999e-01
8.708946554e-01,9.85095e-01,9.99999e-01,9.99999e-01,9.98955e-01,9.86126e-01,9.99998e-01
8.752491287e-01,9.85018e-01,9.99999e-01,9.99999e-01,9.98602e-01,9.86398e-01,9.99998e-01
8.796253743e-01,9.84752e-01,9.99999e-01,9.99999e-01,9.98065e-01,9.86665e-01,9.99995e-01
8.840235012e-01,9.84733e-01,9.99999e-01,9.99999e-01,9.97790e-01,9.86926e-01,9.99986e-01
8.884436187e-01,9.79228e-01,9.99999e-01,9.99999e-01,9.91978e-01,9.87183e-01,9.99961e-01
8.928858368e-01,9.06926e-01,9.99999e-01,9.99999e-01,9.18669e-01,9.87435e-01,9.99778e-01
8.973502660e-01,8.49108e-01,9.99999e-01,9.99999e-01,8.60671e-01,9.87681e-01,9.98868e-01
9.018370173e-01,9.13421e-01,9.99999e-01,9.99999e-01,9.26234e-01,9.87923e-01,9.98221e-01
9.063462024e-01,9.22308e-01,9.99999e-01,9.99999e-01,9.34818e-01,9.88160e-01,9.98437e-01
9.108779334e-01,8.88300e-01,9.99999e-01,9.99999e-01,9.00193e-01,9.88393e-01,9.98376e-01
9.154323231e-01,8.76014e-01,9.99999e-01,9.99999e-01,8.87287e-01,9.88621e-01,9.98657e-01
9.200094847e-01,8.99820e-01,9.99999e-01,9.99999e-01,9.10655e-01,9.88844e-01,9.99248e-01
9.246095321e-01,8.55381e-01,9.99999e-01,9.99999e-01,8.65588e-01,9.89063e-01,9.99133e-01
9.292325798e-01,3.82675e-01,9.99999e-01,9.99999e-01,3.88131e-01,9.89278e-01,9.96627e-01
9.338787427e-01,2.88723e-01,9.99999e-01,9.99999e-01,2.95892e-01,9.89489e-01,9.86134e-01
9.385481364e-01,5.94071e-01,9.99999e-01,9.99999e-01,6.10308e-01,9.89695e-01,9.83530e-01
9.432408771e-01,4.97419e-01,9.99999e-01,9.99999e-01,5.09746e-01,9.89898e-01,9.85775e-01
9.479570815e-01,3.88834e-01,9.99999e-01,9.99999e-01,3.97329e-01,9.90096e-01,9.88407e-01
9.526968669e-01,4.85929e-01,9.99999e-01,9.99999e-01,4.94195e-01,9.90291e-01,9.92912e-01
9.574603512e-01,5.09168e-01,9.99999e-01,9.99999e-01,5.15921e-01,9.90482e-01,9.96393e-01
9.622476530e-01,5.74317e-01,9.99999e-01,9.99999e-01,5.81176e-01,9.90669e-01,9.97504e-01
9.670588912e-01,7.22659e-01,9.99999e-01,9.99999e-01,7.30577e-01,9.90852e-01,9.98292e-01
9.718941857e-01,8.11971e-01,9.99999e-01,9.99999e-01,8.20349e-01,9.91032e-01,9.98742e-01
9.767536566e-01,8.40075e-01,9.99999e-01,9.99999e-01,8.48340e-01,9.91209e-01,9.99038e-01
9.816374249e-01,8.77133e-01,9.99999e-01,9.99999e-01,8.85052e-01,9.91381e-01,9.99667e-01
9.865456120e-01,9.18591e-01,9.99999e-01,9.99999e-01,9.26481e-01,9.91551e-01,9.99930e-01
9.914783401e-01,9.45955e-01,9.99999e-01,9.99999e-01,9.53873e-01,9.91717e-01,9.99980e-01
9.964357318e-01,9.66688e-01,9.99999e-01,9.99999e-01,9.74612e-01,9.91880e-01,9.99988e-01
1.001417910e+00,9.76851e-01,9.99999e-01,9.99999e-01,9.84705e-01,9.92040e-01,9.99982e-01
1.006425000e+00,9.83496e-01,9.99999e-01,9.99999e-01,9.91255e-01,9.92196e-01,9.99975e-01
1.011457125e+00,9.86933e-01,9.99999e-01,9.99999e-01,9.94563e-01,9.92350e-01,9.99976e-01
1.016514411e+00,9.88819e-01,9.99999e-01,9.99999e-01,9.96306e-01,9.92500e-01,9.99983e-01
1.021596983e+00,9.89710e-01,9.99999e-01,9.99999e-01,9.97056e-01,9.92648e-01,9.99983e-01
1.026704968e+00,9.90503e-01,9.99999e-01,9.99999e-01,9.97703e-01,9.92793e-01,9.99988e-01
1.031838492e+00,9.91274e-01,9.99999e-01,9.99999e-01,9.98330e-01,9.92934e-01,9.99996e-01
1.036997685e+00,9.92089e-01,9.99999e-01,9.99999e-01,9.99008e-01,9.93074e-01,9.99999e-01
1.042182673e+00,9.92036e-01,9.99999e-01,9.99999e-01,9.98817e-01,9.93210e-01,9.99999e-01
1.047393587e+00,9.91787e-01,9.99999e-01,9.99999e-01,9.98432e-01,9.93344e-01,9.99999e-01
1.052630555e+00,9.91338e-01,9.99999e-01,9.99999e-01,9.97849e-01,9.93475e-01,9.99998e-01
1.057893707e+00,9.90038e-01,9.99999e-01,9.99999e-01,9.96412e-01,9.93603e-01,9.99998e-01
1.063183176e+00,9.87866e-01,9.99999e-01,9.99999e-01,9.94102e-01,9.93729e-01,9.99996e-01
1.068499092e+00,9.84047e-01,9.99999e-01,9.99999e-01,9.90140e-01,9.93852e-01,9.99992e-01
1.073841587e+00,9.82504e-01,9.99999e-01,9.99999e-01,9.88474e-01,9.93973e-01,9.99984e-01
1.079210795e+00,9.79387e-01,9.99999e-01,9.99999e-01,9.85245e-01,9.94092e-01,9.99960e-01
1.084606849e+00,9.72001e-01,9.99999e-01,9.99999e-01,9.77755e-01,9.94208e-01,9.99904e-01
1.090029883e+00,9.62545e-01,9.99999e-01,9.99999e-01,9.68231e-01,9.94323e-01,9.99802e-01
1.095480033e+00,9.10369e-01,9.99999e-01,9.99999e-01,9.15790e-01,9.94434e-01,9.99642e-01
1.100957433e+00,7.95414e-01,9.99999e-01,9.99999e-01,8.00302e-01,9.94544e-01,9.99343e-01
1.106462220e+00,5.68680e-01,9.99999e-01,9.99999e-01,5.72374e-01,9.94651e-01,9.98886e-01
1.111994531e+00,3.11012e-01,9.99999e-01,9.99999e-01,3.13577e-01,9.94757e-01,9.97047e-01
1.117554504e+00,1.54734e-01,9.99999e-01,9.99999e-01,1.57203e-01,9.94860e-01,9.89380e-01
1.123142276e+00,2.60747e-01,9.99999e-01,9.99999e-01,2.68786e-01,9.94961e-01,9.75001e-01
1.128757988e+00,4.04079e-01,9.99999e-01,9.99999e-01,4.18153e-01,9.95061e-01,9.71137e-01
1.134401778e+00,1.96506e-01,9.99999e-01,9.99999e-01,2.02441e-01,9.95158e-01,9.75404e-01
1.140073787e+00,5.73312e-01,9.99999e-01,9.99999e-01,5.87622e-01,9.95253e-01,9.80299e-01
1.145774156e+00,3.31963e-01,9.99999e-01,9.99999e-01,3.39645e-01,9.95347e-01,9.81951e-01
1.151503026e+00,2.98838e-01,9.99999e-01,9.99999e-01,3.03268e-01,9.95438e-01,9.89904e-01
1.157260541e+00,3.54548e-01,9.99999e-01,9.99999e-01,3.57222e-01,9.95528e-01,9.96970e-01
1.163046844e+00,4.62876e-01,9.99999e-01,9.99999e-01,4.65314e-01,9.95616e-01,9.99140e-01
1.168862078e+00,5.81075e-01,9.99999e-01,9.99999e-01,5.83841e-01,9.95703e-01,9.99556e-01
1.174706389e+00,7.13768e-01,9.99999e-01,9.99999e-01,7.17208e-01,9.95788e-01,9.99412e-01
1.180579921e+00,8.12304e-01,9.99999e-01,9.99999e-01,8.16396e-01,9.95871e-01,9.99112e-01
1.186482820e+00,8.87044e-01,9.99999e-01,9.99999e-01,8.91460e-01,9.95952e-01,9.99088e-01
1.192415234e+00,9.30759e-01,9.99999e-01,9.99999e-01,9.35105e-01,9.96032e-01,9.99317e-01
1.198377311e+00,9.40755e-01,9.99999e-01,9.99999e-01,9.45037e-01,9.96110e-01,9.99355e-01
1.204369197e+00,9.43795e-01,9.99999e-01,9.99999e-01,9.47960e-01,9.96187e-01,9.99416e-01
1.210391043e+00,9.46259e-01,9.99999e-01,9.99999e-01,9.50145e-01,9.96262e-01,9.99644e-01
1.216442998e+00,9.53707e-01,9.99999e-01,9.99999e-01,9.57422e-01,9.96335e-01,9.99782e-01
1.222525213e+00,9.63081e-01,9.99999e-01,9.99999e-01,9.66682e-01,9.96408e-01,9.99864e-01
1.228637839e+00,9.73247e-01,9.99999e-01,9.99999e-01,9.76746e-01,9.96478e-01,9.99936e-01
