#,Wave/freq,Total,N2,O2,H2O,Rayleigh,CIA
4.000000000e-01,7.69472e-01,9.99999e-01,9.99999e-01,9.99970e-01,7.69494e-01,9.99999e-01
4.020000000e-01,7.73477e-01,9.99999e-01,9.99999e-01,9.99981e-01,7.73491e-01,9.99999e-01
4.040100000e-01,7.77419e-01,9.99999e-01,9.99999e-01,9.99991e-01,7.77425e-01,9.99999e-01
4.060300500e-01,7.81300e-01,9.99999e-01,9.99999e-01,9.99997e-01,7.81301e-01,9.99999e-01
4.080602003e-01,7.85119e-01,9.99999e-01,9.99999e-01,9.99998e-01,7.85119e-01,9.99999e-01
4.101005013e-01,7.88880e-01,9.99999e-01,9.99999e-01,9.99999e-01,7.88880e-01,9.99999e-01
4.121510038e-01,7.92583e-01,9.99999e-01,9.99999e-01,9.99998e-01,7.92584e-01,9.99999e-01
4.142117588e-01,7.96225e-01,9.99999e-01,9.99999e-01,9.99991e-01,7.96231e-01,9.99999e-01
4.162828176e-01,7.99794e-01,9.99999e-01,9.99999e-01,9.99962e-01,7.99823e-01,9.99999e-01
4.183642317e-01,8.03342e-01,9.99999e-01,9.99999e-01,9.99977e-01,8.03360e-01,9.99999e-01
4.204560528e-01,8.06831e-01,9.99999e-01,9.99999e-01,9.99986e-01,8.06842e-01,9.99999e-01
4.225583331e-01,8.10265e-01,9.99999e-01,9.99999e-01,9.99994e-01,8.10269e-01,9.99999e-01
4.246711247e-01,8.13640e-01,9.99999e-01,9.99999e-01,9.99995e-01,8.13644e-01,9.99999e-01
4.267944804e-01,8.16960e-01,9.99999e-01,9.99999e-01,9.99993e-01,8.16965e-01,9.99999e-01
4.289284528e-01,8.20230e-01,9.99999e-01,9.99999e-01,9.99994e-01,8.20234e-01,9.99999e-01
4.310730950e-01,8.23449e-01,9.99999e-01,9.99999e-01,9.99997e-01,8.23450e-01,9.99999e-01
4.332284605e-01,8.26616e-01,9.99999e-01,9.99999e-01,9.99999e-01,8.26616e-01,9.99999e-01
4.353946028e-01,8.29731e-01,9.99999e-01,9.99999e-01,9.99999e-01,8.29731e-01,9.99999e-01
4.375715758e-01,8.32793e-01,9.99999e-01,9.99999e-01,9.99995e-01,8.32796e-01,9.99999e-01
4.397594337e-01,8.35784e-01,9.99999e-01,9.99999e-01,9.99966e-01,8.35811e-01,9.99999e-01
4.419582309e-01,8.38638e-01,9.99999e-01,9.99999e-01,9.99833e-01,8.38777e-01,9.99999e-01
4.441680220e-01,8.41589e-01,9.99999e-01,9.99999e-01,9.99873e-01,8.41695e-01,9.99999e-01
4.463888621e-01,8.44453e-01,9.99999e-01,9.99999e-01,9.99866e-01,8.44565e-01,9.99999e-01
4.486208064e-01,8.47319e-01,9.99999e-01,9.99999e-01,9.99917e-01,8.47388e-01,9.99999e-01
4.508639105e-01,8.50132e-01,9.99999e-01,9.99999e-01,9.99961e-01,8.50164e-01,9.99999e-01
4.531182300e-01,8.52882e-01,9.99999e-01,9.99999e-01,9.99984e-01,8.52894e-01,9.99999e-01
4.553838212e-01,8.55570e-01,9.99999e-01,9.99999e-01,9.99989e-01,8.55579e-01,9.99999e-01
4.576607403e-01,8.58215e-01,9.99999e-01,9.99999e-01,9.99994e-01,8.58219e-01,9.99999e-01
4.599490440e-01,8.60812e-01,9.99999e-01,9.99999e-01,9.99996e-01,8.60815e-01,9.99999e-01
4.622487892e-01,8.63367e-01,9.99999e-01,9.99999e-01,9.99998e-01,8.63367e-01,9.99999e-01
4.645600332e-01,8.65874e-01,9.99999e-01,9.99999e-01,9.99997e-01,8.65876e-01,9.99999e-01
4.668828333e-01,8.68309e-01,9.99999e-01,9.99999e-01,9.99960e-01,8.68343e-01,9.99999e-01
4.692172475e-01,8.70695e-01,9.99999e-01,9.99999e-01,9.99916e-01,8.70768e-01,9.99999e-01
4.715633337e-01,8.73103e-01,9.99999e-01,9.99999e-01,9.99945e-01,8.73151e-01,9.99999e-01
4.739211504e-01,8.75448e-01,9.99999e-01,9.99999e-01,9.99947e-01,8.75494e-01,9.99999e-01
4.762907561e-01,8.77772e-01,9.99999e-01,9.99999e-01,9.99972e-01,8.77796e-01,9.99999e-01
4.786722099e-01,8.80049e-01,9.99999e-01,9.99999e-01,9.99988e-01,8.80059e-01,9.99999e-01
4.810655710e-01,8.82280e-01,9.99999e-01,9.99999e-01,9.99996e-01,8.82283e-01,9.99999e-01
4.834708988e-01,8.84439e-01,9.99999e-01,9.99999e-01,9.99966e-01,8.84468e-01,9.99999e-01
4.858882533e-01,8.86563e-01,9.99999e-01,9.99999e-01,9.99940e-01,8.86615e-01,9.99999e-01
4.883176946e-01,8.88681e-01,9.99999e-01,9.99999e-01,9.99950e-01,8.88725e-01,9.99999e-01
4.907592831e-01,8.90759e-01,9.99999e-01,9.99999e-01,9.99955e-01,8.90799e-01,9.99999e-01
4.932130795e-01,8.92807e-01,9.99999e-01,9.99999e-01,9.99967e-01,8.92836e-01,9.99999e-01
4.956791449e-01,8.94822e-01,9.99999e-01,9.99999e-01,9.99982e-01,8.94837e-01,9.99999e-01
4.981575406e-01,8.96728e-01,9.99999e-01,9.99999e-01,9.99915e-01,8.96803e-01,9.99999e-01
5.006483283e-01,8.98536e-01,9.99999e-01,9.99999e-01,9.99780e-01,8.98734e-01,9.99998e-01
5.031515699e-01,8.99629e-01,9.99999e-01,9.99999e-01,9.98897e-01,9.00632e-01,9.99987e-01
5.056673278e-01,9.01961e-01,9.99999e-01,9.99999e-01,9.99420e-01,9.02496e-01,9.99986e-01
5.081956644e-01,9.03659e-01,9.99999e-01,9.99999e-01,9.99269e-01,9.04326e-01,9.99991e-01
5.107366428e-01,9.05677e-01,9.99999e-01,9.99999e-01,9.99507e-01,9.06124e-01,9.99998e-01
5.132903260e-01,9.07635e-01,9.99999e-01,9.99999e-01,9.99718e-01,9.07890e-01,9.99999e-01
5.158567776e-01,9.09517e-01,9.99999e-01,9.99999e-01,9.99881e-01,9.09625e-01,9.99999e-01
5.184360615e-01,9.11285e-01,9.99999e-01,9.99999e-01,9.99952e-01,9.11328e-01,9.99999e-01
5.210282418e-01,9.12985e-01,9.99999e-01,9.99999e-01,9.99981e-01,9.13001e-01,9.99999e-01
5.236333830e-01,9.14578e-01,9.99999e-01,9.99999e-01,9.99927e-01,9.14644e-01,9.99998e-01
5.262515499e-01,9.16216e-01,9.99999e-01,9.99999e-01,9.99954e-01,9.16258e-01,9.99998e-01
5.288828077e-01,9.17803e-01,9.99999e-01,9.99999e-01,9.99958e-01,9.17842e-01,9.99999e-01
5.315272217e-01,9.19364e-01,9.99999e-01,9.99999e-01,9.99963e-01,9.19397e-01,9.99999e-01
5.341848578e-01,9.20903e-01,9.99999e-01,9.99999e-01,9.99975e-01,9.20925e-01,9.99999e-01
5.368557821e-01,9.22347e-01,9.99999e-01,9.99999e-01,9.99915e-01,9.22424e-01,9.99999e-01
5.395400610e-01,9.23612e-01,9.99999e-01,9.99999e-01,9.99694e-01,9.23897e-01,9.99996e-01
5.422377613e-01,9.24977e-01,9.99999e-01,9.99999e-01,9.99611e-01,9.25342e-01,9.99992e-01
5.449489501e-01,9.26418e-01,9.99999e-01,9.99999e-01,9.99635e-01,9.26762e-01,9.99992e-01
5.476736949e-01,9.27856e-01,9.99999e-01,9.99999e-01,9.99680e-01,9.28155e-01,9.99995e-01
5.504120634e-01,9.29307e-01,9.99999e-01,9.99999e-01,9.99767e-01,9.29523e-01,9.99998e-01
5.531641237e-01,9.30757e-01,9.99999e-01,9.99999e-01,9.99883e-01,9.30866e-01,9.99999e-01
5.559299443e-01,9.32132e-01,9.99999e-01,9.99999e-01,9.99943e-01,9.32184e-01,9.99999e-01
5.587095940e-01,9.33445e-01,9.99999e-01,9.99999e-01,9.99964e-01,9.33478e-01,9.99999e-01
5.615031420e-01,9.34711e-01,9.99999e-01,9.99999e-01,9.99960e-01,9.34748e-01,9.99999e-01
5.643106577e-01,9.35952e-01,9.99999e-01,9.99999e-01,9.99954e-01,9.35995e-01,9.99999e-01
5.671322110e-01,9.36693e-01,9.99999e-01,9.99999e-01,9.99443e-01,9.37218e-01,9.99994e-01
5.699678720e-01,9.37869e-01,9.99999e-01,9.99999e-01,9.99427e-01,9.38419e-01,9.99984e-01
5.728177114e-01,9.39020e-01,9.99999e-01,9.99999e-01,9.99396e-01,9.39598e-01,9.99987e-01
5.756818000e-01,9.40229e-01,9.99999e-01,9.99999e-01,9.99447e-01,9.40755e-01,9.99992e-01
5.785602090e-01,9.41437e-01,9.99999e-01,9.99999e-01,9.99519e-01,9.41891e-01,9.99997e-01
5.814530100e-01,9.42548e-01,9.99999e-01,9.99999e-01,9.99515e-01,9.43005e-01,9.99998e-01
5.843602750e-01,9.43547e-01,9.99999e-01,9.99999e-01,9.99417e-01,9.44099e-01,9.99996e-01
5.872820764e-01,9.40410e-01,9.99999e-01,9.99999e-01,9.94995e-01,9.45172e-01,9.99964e-01
5.902184868e-01,9.40463e-01,9.99999e-01,9.99999e-01,9.94003e-01,9.46226e-01,9.99904e-01
5.931695792e-01,9.43144e-01,9.99999e-01,9.99999e-01,9.95745e-01,9.47259e-01,9.99908e-01
5.961354271e-01,9.43815e-01,9.99999e-01,9.99999e-01,9.95349e-01,9.48274e-01,9.99946e-01
5.991161043e-01,9.46037e-01,9.99999e-01,9.99999e-01,9.96611e-01,9.49269e-01,9.99983e-01
6.021116848e-01,9.48419e-01,9.99999e-01,9.99999e-01,9.98079e-01,9.50246e-01,9.99997e-01
6.051222432e-01,9.50280e-01,9.99999e-01,9.99999e-01,9.99028e-01,9.51204e-01,9.99999e-01
6.081478544e-01,9.51745e-01,9.99999e-01,9.99999e-01,9.99580e-01,9.52144e-01,9.99999e-01
6.111885937e-01,9.52899e-01,9.99999e-01,9.99999e-01,9.99822e-01,9.53067e-01,9.99999e-01
6.142445367e-01,9.53897e-01,9.99999e-01,9.99999e-01,9.99920e-01,9.53972e-01,9.99999e-01
6.173157594e-01,9.54819e-01,9.99999e-01,9.99999e-01,9.99955e-01,9.54861e-01,9.99999e-01
6.204023382e-01,9.55697e-01,9.99999e-01,9.99999e-01,9.99962e-01,9.55732e-01,9.99999e-01
6.235043498e-01,9.56427e-01,9.99999e-01,9.99999e-01,9.99832e-01,9.56587e-01,9.99999e-01
6.266218716e-01,9.56591e-01,9.99999e-01,9.99999e-01,9.99132e-01,9.57426e-01,9.99993e-01
6.297549810e-01,9.57933e-01,9.99999e-01,9.99999e-01,9.99681e-01,9.58249e-01,9.99987e-01
6.329037559e-01,9.58447e-01,9.99999e-01,9.99999e-01,9.99373e-01,9.59057e-01,9.99989e-01
6.360682746e-01,9.59329e-01,9.99999e-01,9.99999e-01,9.99463e-01,9.59849e-01,9.99993e-01
6.392486160e-01,9.59959e-01,9.99999e-01,9.99999e-01,9.99306e-01,9.60626e-01,9.99996e-01
6.424448591e-01,9.60484e-01,9.99999e-01,9.99999e-01,9.99063e-01,9.61389e-01,9.99994e-01
6.456570834e-01,9.57934e-01,9.99999e-01,9.99999e-01,9.95657e-01,9.62137e-01,9.99973e-01
6.488853688e-01,9.59785e-01,9.99999e-01,9.99999e-01,9.96860e-01,9.62871e-01,9.99932e-01
6.521297956e-01,9.60456e-01,9.99999e-01,9.99999e-01,9.96800e-01,9.63591e-01,9.99944e-01
6.553904446e-01,9.61170e-01,9.99999e-01,9.99999e-01,9.96797e-01,9.64297e-01,9.99958e-01
6.586673968e-01,9.62343e-01,9.99999e-01,9.99999e-01,9.97271e-01,9.64989e-01,9.99985e-01
6.619607338e-01,9.64198e-01,9.99999e-01,9.99999e-01,9.98479e-01,9.65669e-01,9.99996e-01
6.652705375e-01,9.65452e-01,9.99999e-01,9.99999e-01,9.99087e-01,9.66336e-01,9.99998e-01
6.685968902e-01,9.66615e-01,9.99999e-01,9.99999e-01,9.99612e-01,9.66989e-01,9.99999e-01
6.719398746e-01,9.67441e-01,9.99999e-01,9.99999e-01,9.99803e-01,9.67631e-01,9.99999e-01
6.752995740e-01,9.68159e-01,9.99999e-01,9.99999e-01,9.99895e-01,9.68260e-01,9.99999e-01
6.786760719e-01,9.68726e-01,9.99999e-01,9.99999e-01,9.99844e-01,9.68877e-01,9.99999e-01
6.820694522e-01,9.69222e-01,9.99999e-01,9.99999e-01,9.99732e-01,9.69482e-01,9.99998e-01
6.854797995e-01,9.69742e-01,9.99999e-01,9.99999e-01,9.99658e-01,9.70076e-01,9.99996e-01
6.889071985e-01,9.69835e-01,9.99999e-01,9.99999e-01,9.99158e-01,9.70658e-01,9.99992e-01
6.923517345e-01,9.58045e-01,9.99999e-01,9.99999e-01,9.86488e-01,9.71229e-01,9.99935e-01
6.958134932e-01,9.64972e-01,9.99999e-01,9.99999e-01,9.93126e-01,9.71789e-01,9.99856e-01
6.992925606e-01,9.65707e-01,9.99999e-01,9.99999e-01,9.93306e-01,9.72339e-01,9.99870e-01
7.027890234e-01,9.64825e-01,9.99999e-01,9.99999e-01,9.91820e-01,9.72878e-01,9.99901e-01
7.063029686e-01,9.66654e-01,9.99999e-01,9.99999e-01,9.93111e-01,9.73406e-01,9.99950e-01
7.098344834e-01,9.67460e-01,9.99999e-01,9.99999e-01,9.93390e-01,9.73925e-01,9.99970e-01
7.133836558e-01,9.65676e-01,9.99999e-01,9.99999e-01,9.91069e-01,9.74433e-01,9.99942e-01
7.169505741e-01,9.07154e-01,9.99999e-01,9.99999e-01,9.30900e-01,9.74932e-01,9.99547e-01
7.205353270e-01,9.41798e-01,9.99999e-01,9.99999e-01,9.66301e-01,9.75421e-01,9.99201e-01
7.241380036e-01,9.32878e-01,9.99999e-01,9.99999e-01,9.56574e-01,9.75900e-01,9.99310e-01
7.277586936e-01,9.37549e-01,9.99999e-01,9.99999e-01,9.60780e-01,9.76371e-01,9.99436e-01
7.313974871e-01,9.36190e-01,9.99999e-01,9.99999e-01,9.58646e-01,9.76832e-01,9.99735e-01
7.350544745e-01,9.54868e-01,9.99999e-01,9.99999e-01,9.77151e-01,9.77284e-01,9.99907e-01
7.387297469e-01,9.61214e-01,9.99999e-01,9.99999e-01,9.83151e-01,9.77728e-01,9.99957e-01
7.424233956e-01,9.70081e-01,9.99999e-01,9.99999e-01,9.91744e-01,9.78163e-01,9.99992e-01
7.461355126e-01,9.73678e-01,9.99999e-01,9.99999e-01,9.94981e-01,9.78590e-01,9.99998e-01
7.498661902e-01,9.76726e-01,9.99999e-01,9.99999e-01,9.97668e-01,9.79008e-01,9.99998e-01
7.536155211e-01,9.78294e-01,9.99999e-01,9.99999e-01,9.98851e-01,9.79418e-01,9.99999e-01
7.573835987e-01,9.79242e-01,9.99999e-01,9.99999e-01,9.99409e-01,9.79821e-01,9.99999e-01
7.611705167e-01,9.79856e-01,9.99999e-01,9.99999e-01,9.99632e-01,9.80215e-01,9.99999e-01
7.649763693e-01,9.80376e-01,9.99999e-01,9.99999e-01,9.99769e-01,9.80602e-01,9.99999e-01
7.688012511e-01,9.80824e-01,9.99999e-01,9.99999e-01,9.99838e-01,9.80982e-01,9.99999e-01
7.726452574e-01,9.81224e-01,9.99999e-01,9.99999e-01,9.99867e-01,9.81354e-01,9.99999e-01
7.765084837e-01,9.81532e-01,9.99999e-01,9.99999e-01,9.99809e-01,9.81719e-01,9.99999e-01
7.803910261e-01,9.81269e-01,9.99999e-01,9.99999e-01,9.99177e-01,9.82077e-01,9.99998e-01
7.842929812e-01,9.79605e-01,9.99999e-01,9.99999e-01,9.97132e-01,9.82427e-01,9.99994e-01
7.882144461e-01,9.76991e-01,9.99999e-01,9.99999e-01,9.94157e-01,9.82772e-01,9.99959e-01
7.921555184e-01,9.79908e-01,9.99999e-01,9.99999e-01,9.96812e-01,9.83109e-01,9.99929e-01
7.961162960e-01,9.77765e-01,9.99999e-01,9.99999e-01,9.94295e-01,9.83440e-01,9.99933e-01
8.000968774e-01,9.77260e-01,9.99999e-01,9.99999e-01,9.93458e-01,9.83764e-01,9.99928e-01
8.040973618e-01,9.77580e-01,9.99999e-01,9.99999e-01,9.93445e-01,9.84082e-01,9.99945e-01
8.081178486e-01,9.69749e-01,9.99999e-01,9.99999e-01,9.85175e-01,9.84394e-01,9.99944e-01
8.121584379e-01,9.25198e-01,9.99999e-01,9.99999e-01,9.39766e-01,9.84700e-01,9.99792e-01
8.162192301e-01,9.15069e-01,9.99999e-01,9.99999e-01,9.29725e-01,9.85000e-01,9.99222e-01
8.203003262e-01,9.48682e-01,9.99999e-01,9.99999e-01,9.63717e-01,9.85294e-01,9.99090e-01
8.244018279e-01,9.36769e-01,9.99999e-01,9.99999e-01,9.51160e-01,9.85582e-01,9.99275e-01
8.285238370e-01,9.43056e-01,9.99999e-01,9.99999e-01,9.57120e-01,9.85865e-01,9.99431e-01
8.326664562e-01,9.43399e-01,9.99999e-01,9.99999e-01,9.56880e-01,9.86142e-01,9.99764e-01
8.368297885e-01,9.55848e-01,9.99999e-01,9.99999e-01,9.69064e-01,9.86414e-01,9.99945e-01
8.410139374e-01,9.68413e-01,9.99999e-01,9.99999e-01,9.81515e-01,9.86681e-01,9.99968e-01
8.452190071e-01,9.77953e-01,9.99999e-01,9.99999e-01,9.90909e-01,9.86942e-01,9.99980e-01
8.494451021e-01,9.81946e-01,9.99999e-01,9.99999e-01,9.94694e-01,9.87198e-01,9.99984e-01
8.536923276e-01,9.84352e-01,9.99999e-01,9.99999e-01,9.96871e-01,9.87450e-01,9.99990e-01
8.579607893e-01,9.85784e-01,9.99999e-01,9.99999e-01,9.98065e-01,9.87696e-01,9.99997e-01
8.622505932e-01,9.86727e-01,9.99999e-01,9.99999e-01,9.98774e-01,9.87938e-01,9.99999e-01
8.665618462e-01,9.87422e-01,9.99999e-01,9.99999e-01,9.99238e-01,9.88174e-01,9.99999e-01
8.708946554e-01,9.87543e-01,9.99999e-01,9.99999e-01,9.99125e-01,9.88407e-01,9.99999e-01
8.752491287e-01,9.87479e-01,9.99999e-01,9.99999e-01,9.98831e-01,9.88634e-01,9.99998e-01
8.796253743e-01,9.87249e-01,9.99999e-01,9.99999e-01,9.98376e-01,9.88857e-01,9.99995e-01
8.840235012e-01,9.87234e-01,9.99999e-01,9.99999e-01,9.98147e-01,9.89076e-01,9.99988e-01
8.884436187e-01,9.82444e-01,9.99999e-01,9.99999e-01,9.93110e-01,9.89291e-01,9.99967e-01
8.928858368e-01,9.20870e-01,9.99999e-01,9.99999e-01,9.30811e-01,9.89501e-01,9.99815e-01
8.973502660e-01,8.72262e-01,9.99999e-01,9.99999e-01,8.82165e-01,9.89708e-01,9.99054e-01
9.018370173e-01,9.27736e-01,9.99999e-01,9.99999e-01,9.38585e-01,9.89910e-01,9.98514e-01
9.063462024e-01,9.34119e-01,9.99999e-01,9.99999e-01,9.44683e-01,9.90108e-01,9.98695e-01
9.108779334e-01,9.05473e-01,9.99999e-01,9.99999e-01,9.15580e-01,9.90303e-01,9.98644e-01
9.154323231e-01,8.95227e-01,9.99999e-01,9.99999e-01,9.04833e-01,9.90493e-01,9.98879e-01
9.200094847e-01,9.15727e-01,9.99999e-01,9.99999e-01,9.24921e-01,9.90680e-01,9.99372e-01
9.246095321e-01,8.74521e-01,9.99999e-01,9.99999e-01,8.83222e-01,9.90863e-01,9.99276e-01
9.292325798e-01,4.40462e-01,9.99999e-01,9.99999e-01,4.45997e-01,9.91043e-01,9.96514e-01
9.338787427e-01,3.50443e-01,9.99999e-01,9.99999e-01,3.58036e-01,9.91219e-01,9.87460e-01
9.385481364e-01,6.45662e-01,9.99999e-01,9.99999e-01,6.60359e-01,9.91392e-01,9.86231e-01
9.432408771e-01,5.50235e-01,9.99999e-01,9.99999e-01,5.61594e-01,9.91561e-01,9.88110e-01
9.479570815e-01,4.45853e-01,9.99999e-01,9.99999e-01,4.53970e-01,9.91727e-01,9.90312e-01
9.526968669e-01,5.43596e-01,9.99999e-01,9.99999e-01,5.51303e-01,9.91890e-01,9.94080e-01
9.574603512e-01,5.66871e-01,9.99999e-01,9.99999e-01,5.73140e-01,9.92049e-01,9.96988e-01
9.622476530e-01,6.29057e-01,9.99999e-01,9.99999e-01,6.35322e-01,9.92206e-01,9.97916e-01
9.670588912e-01,7.62113e-01,9.99999e-01,9.99999e-01,7.69030e-01,9.92359e-01,9.98634e-01
9.718941857e-01,8.40294e-01,9.99999e-01,9.99999e-01,8.47521e-01,9.92509e-01,9.98953e-01
9.767536566e-01,8.64497e-01,9.99999e-01,9.99999e-01,8.71590e-01,9.92657e-01,9.99197e-01
9.816374249e-01,8.96608e-01,9.99999e-01,9.99999e-01,9.03359e-01,9.92801e-01,9.99721e-01
9.865456120e-01,9.31790e-01,9.99999e-01,9.99999e-01,9.38465e-01,9.92943e-01,9.99941e-01
9.914783401e-01,9.54805e-01,9.99999e-01,9.99999e-01,9.61471e-01,9.93082e-01,9.99983e-01
9.964357318e-01,9.72191e-01,9.99999e-01,9.99999e-01,9.78838e-01,9.93218e-01,9.99990e-01
1.001417910e+00,9.80695e-01,9.99999e-01,9.99999e-01,9.87272e-01,9.93352e-01,9.99985e-01
1.006425000e+00,9.86216e-01,9.99999e-01,9.99999e-01,9.92706e-01,9.93482e-01,9.99979e-01
1.011457125e+00,9.89102e-01,9.99999e-01,9.99999e-01,9.95480e-01,9.93611e-01,9.99980e-01
1.016514411e+00,9.90668e-01,9.99999e-01,9.99999e-01,9.96924e-01,9.93736e-01,9.99986e-01
1.021596983e+00,9.91409e-01,9.99999e-01,9.99999e-01,9.97547e-01,9.93860e-01,9.99986e-01
1.026704968e+00,9.92070e-01,9.99999e-01,9.99999e-01,9.98085e-01,9.93981e-01,9.99991e-01
1.031838492e+00,9.92717e-01,9.99999e-01,9.99999e-01,9.98611e-01,9.94099e-01,9.99997e-01
1.036997685e+00,9.93393e-01,9.99999e-01,9.99999e-01,9.99172e-01,9.94215e-01,9.99999e-01
1.042182673e+00,9.93345e-01,9.99999e-01,9.99999e-01,9.99009e-01,9.94329e-01,9.99999e-01
1.047393587e+00,9.93138e-01,9.99999e-01,9.99999e-01,9.98689e-01,9.94441e-01,9.99999e-01
1.052630555e+00,9.92760e-01,9.99999e-01,9.99999e-01,9.98199e-01,9.94551e-01,9.99999e-01
1.057893707e+00,9.91664e-01,9.99999e-01,9.99999e-01,9.96990e-01,9.94658e-01,9.99998e-01
1.063183176e+00,9.89844e-01,9.99999e-01,9.99999e-01,9.95057e-01,9.94763e-01,9.99996e-01
1.068499092e+00,9.86654e-01,9.99999e-01,9.99999e-01,9.91750e-01,9.94866e-01,9.99993e-01
1.073841587e+00,9.85335e-01,9.99999e-01,9.99999e-01,9.90330e-01,9.94967e-01,9.99987e-01
1.079210795e+00,9.82767e-01,9.99999e-01,9.99999e-01,9.87671e-01,9.95066e-01,9.99966e-01
1.084606849e+00,9.76533e-01,9.99999e-01,9.99999e-01,9.81356e-01,9.95164e-01,9.99920e-01
1.090029883e+00,9.68358e-01,9.99999e-01,9.99999e-01,9.73130e-01,9.95259e-01,9.99834e-01
1.095480033e+00,9.24075e-01,9.99999e-01,9.99999e-01,9.28665e-01,9.95352e-01,9.99701e-01
1.100957433e+00,8.24727e-01,9.99999e-01,9.99999e-01,8.28955e-01,9.95444e-01,9.99451e-01
1.106462220e+00,6.19657e-01,9.99999e-01,9.99999e-01,6.23015e-01,9.95534e-01,9.99070e-01
1.111994531e+00,3.72616e-01,9.99999e-01,9.99999e-01,3.75179e-01,9.95622e-01,9.97534e-01
1.117554504e+00,2.05596e-01,9.99999e-01,9.99999e-01,2.08330e-01,9.95708e-01,9.91127e-01
1.123142276e+00,3.18602e-01,9.99999e-01,9.99999e-01,3.26781e-01,9.95793e-01,9.79087e-01
1.128757988e+00,4.64341e-01,9.99999e-01,9.99999e-01,4.77804e-01,9.95875e-01,9.75847e-01
1.134401778e+00,2.39772e-01,9.99999e-01,9.99999e-01,2.45802e-01,9.95957e-01,9.79425e-01
1.140073787e+00,6.25529e-01,9.99999e-01,9.99999e-01,6.38536e-01,9.96036e-01,9.83526e-01
1.145774156e+00,3.93120e-01,9.99999e-01,9.99999e-01,4.00699e-01,9.96115e-01,9.84910e-01
1.151503026e+00,3.58430e-01,9.99999e-01,9.99999e-01,3.62861e-01,9.96191e-01,9.91565e-01
1.157260541e+00,4.18072e-01,9.99999e-01,9.99999e-01,4.20703e-01,9.96266e-01,9.97470e-01
1.163046844e+00,5.24599e-01,9.99999e-01,9.99999e-01,5.26904e-01,9.96340e-01,9.99282e-01
1.168862078e+00,6.35868e-01,9.99999e-01,9.99999e-01,6.38396e-01,9.96412e-01,9.99625e-01
1.174706389e+00,7.54817e-01,9.99999e-01,9.99999e-01,7.57871e-01,9.96483e-01,9.99484e-01
1.180579921e+00,8.40994e-01,9.99999e-01,9.99999e-01,8.44529e-01,9.96552e-01,9.99258e-01
1.186482820e+00,9.04960e-01,9.99999e-01,9.99999e-01,9.08719e-01,9.96620e-01,9.99239e-01
1.192415234e+00,9.41920e-01,9.99999e-01,9.99999e-01,9.45589e-01,9.96687e-01,9.99430e-01
1.198377311e+00,9.50241e-01,9.99999e-01,9.99999e-01,9.53852e-01,9.96752e-01,9.99459e-01
1.204369197e+00,9.52855e-01,9.99999e-01,9.99999e-01,9.56347e-01,9.96816e-01,9.99528e-01
1.210391043e+00,9.54939e-01,9.99999e-01,9.99999e-01,9.58211e-01,9.96879e-01,9.99703e-01
1.216442998e+00,9.61304e-01,9.99999e-01,9.99999e-01,9.64428e-01,9.96940e-01,9.99818e-01
1.222525213e+00,9.69138e-01,9.99999e-01,9.99999e-01,9.72162e-01,9.97001e-01,9.99886e-01
1.228637839e+00,9.77639e-01,9.99999e-01,9.99999e-01,9.80572e-01,9.97060e-01,9.99947e-01
