#,Wave/freq,Total,N2,O2,H2O,Rayleigh,CIA
4.000000000e-01,6.58424e-01,9.99999e-01,9.99999e-01,9.99952e-01,6.58455e-01,9.99999e-01
4.020000000e-01,6.63898e-01,9.99999e-01,9.99999e-01,9.99970e-01,6.63917e-01,9.99999e-01
4.040100000e-01,6.69302e-01,9.99999e-01,9.99999e-01,9.99987e-01,6.69311e-01,9.99999e-01
4.060300500e-01,6.74638e-01,9.99999e-01,9.99999e-01,9.99996e-01,6.74640e-01,9.99999e-01
4.080602003e-01,6.79904e-01,9.99999e-01,9.99999e-01,9.99998e-01,6.79905e-01,9.99999e-01
4.101005013e-01,6.85106e-01,9.99999e-01,9.99999e-01,9.99999e-01,6.85106e-01,9.99999e-01
4.121510038e-01,6.90242e-01,9.99999e-01,9.99999e-01,9.99997e-01,6.90243e-01,9.99999e-01
4.142117588e-01,6.95307e-01,9.99999e-01,9.99999e-01,9.99986e-01,6.95316e-01,9.99999e-01
4.162828176e-01,7.00284e-01,9.99999e-01,9.99999e-01,9.99941e-01,7.00325e-01,9.99999e-01
4.183642317e-01,7.05245e-01,9.99999e-01,9.99999e-01,9.99964e-01,7.05270e-01,9.99999e-01
4.204560528e-01,7.10136e-01,9.99999e-01,9.99999e-01,9.99978e-01,7.10151e-01,9.99999e-01
4.225583331e-01,7.14962e-01,9.99999e-01,9.99999e-01,9.99991e-01,7.14968e-01,9.99999e-01
4.246711247e-01,7.19718e-01,9.99999e-01,9.99999e-01,9.99993e-01,7.19722e-01,9.99999e-01
4.267944804e-01,7.24406e-01,9.99999e-01,9.99999e-01,9.99990e-01,7.24413e-01,9.99999e-01
4.289284528e-01,7.29035e-01,9.99999e-01,9.99999e-01,9.99992e-01,7.29041e-01,9.99999e-01
4.310730950e-01,7.33604e-01,9.99999e-01,9.99999e-01,9.99996e-01,7.33606e-01,9.99999e-01
4.332284605e-01,7.38108e-01,9.99999e-01,9.99999e-01,9.99998e-01,7.38109e-01,9.99999e-01
4.353946028e-01,7.42549e-01,9.99999e-01,9.99999e-01,9.99999e-01,7.42549e-01,9.99999e-01
4.375715758e-01,7.46923e-01,9.99999e-01,9.99999e-01,9.99993e-01,7.46928e-01,9.99999e-01
4.397594337e-01,7.51206e-01,9.99999e-01,9.99999e-01,9.99947e-01,7.51245e-01,9.99999e-01
4.419582309e-01,7.55302e-01,9.99999e-01,9.99999e-01,9.99735e-01,7.55501e-01,9.99999e-01
4.441680220e-01,7.59544e-01,9.99999e-01,9.99999e-01,9.99797e-01,7.59697e-01,9.99999e-01
4.463888621e-01,7.63671e-01,9.99999e-01,9.99999e-01,9.99788e-01,7.63832e-01,9.99999e-01
4.486208064e-01,7.67808e-01,9.99999e-01,9.99999e-01,9.99868e-01,7.67908e-01,9.99999e-01
4.508639105e-01,7.71877e-01,9.99999e-01,9.99999e-01,9.99938e-01,7.71924e-01,9.99999e-01
4.531182300e-01,7.75863e-01,9.99999e-01,9.99999e-01,9.99975e-01,7.75881e-01,9.99999e-01
4.553838212e-01,7.79767e-01,9.99999e-01,9.99999e-01,9.99983e-01,7.79780e-01,9.99999e-01
4.576607403e-01,7.83615e-01,9.99999e-01,9.99999e-01,9.99991e-01,7.83621e-01,9.99999e-01
4.599490440e-01,7.87400e-01,9.99999e-01,9.99999e-01,9.99994e-01,7.87404e-01,9.99999e-01
4.622487892e-01,7.91129e-01,9.99999e-01,9.99999e-01,9.99998e-01,7.91130e-01,9.99999e-01
4.645600332e-01,7.94797e-01,9.99999e-01,9.99999e-01,9.99995e-01,7.94800e-01,9.99999e-01
4.668828333e-01,7.98364e-01,9.99999e-01,9.99999e-01,9.99937e-01,7.98414e-01,9.99999e-01
4.692172475e-01,8.01866e-01,9.99999e-01,9.99999e-01,9.99867e-01,8.01972e-01,9.99999e-01
4.715633337e-01,8.05405e-01,9.99999e-01,9.99999e-01,9.99912e-01,8.05475e-01,9.99999e-01
4.739211504e-01,8.08857e-01,9.99999e-01,9.99999e-01,9.99916e-01,8.08924e-01,9.99999e-01
4.762907561e-01,8.12285e-01,9.99999e-01,9.99999e-01,9.99956e-01,8.12320e-01,9.99999e-01
4.786722099e-01,8.15647e-01,9.99999e-01,9.99999e-01,9.99982e-01,8.15662e-01,9.99999e-01
4.810655710e-01,8.18947e-01,9.99999e-01,9.99999e-01,9.99994e-01,8.18951e-01,9.99999e-01
4.834708988e-01,8.22146e-01,9.99999e-01,9.99999e-01,9.99947e-01,8.22188e-01,9.99999e-01
4.858882533e-01,8.25297e-01,9.99999e-01,9.99999e-01,9.99905e-01,8.25374e-01,9.99999e-01
4.883176946e-01,8.28444e-01,9.99999e-01,9.99999e-01,9.99920e-01,8.28509e-01,9.99999e-01
4.907592831e-01,8.31534e-01,9.99999e-01,9.99999e-01,9.99928e-01,8.31593e-01,9.99999e-01
4.932130795e-01,8.34586e-01,9.99999e-01,9.99999e-01,9.99949e-01,8.34628e-01,9.99999e-01
4.956791449e-01,8.37591e-01,9.99999e-01,9.99999e-01,9.99972e-01,8.37613e-01,9.99999e-01
4.981575406e-01,8.40438e-01,9.99999e-01,9.99999e-01,9.99865e-01,8.40550e-01,9.99999e-01
5.006483283e-01,8.43143e-01,9.99999e-01,9.99999e-01,9.99650e-01,8.43439e-01,9.99997e-01
5.031515699e-01,8.44780e-01,9.99999e-01,9.99999e-01,9.98244e-01,8.46281e-01,9.99981e-01
5.056673278e-01,8.48273e-01,9.99999e-01,9.99999e-01,9.99075e-01,8.49075e-01,9.99978e-01
5.081956644e-01,8.50821e-01,9.99999e-01,9.99999e-01,9.98834e-01,8.51823e-01,9.99986e-01
5.107366428e-01,8.53853e-01,9.99999e-01,9.99999e-01,9.99213e-01,8.54526e-01,9.99997e-01
5.132903260e-01,8.56799e-01,9.99999e-01,9.99999e-01,9.99551e-01,8.57184e-01,9.99999e-01
5.158567776e-01,8.59634e-01,9.99999e-01,9.99999e-01,9.99810e-01,8.59797e-01,9.99999e-01
5.184360615e-01,8.62301e-01,9.99999e-01,9.99999e-01,9.99923e-01,8.62366e-01,9.99999e-01
5.210282418e-01,8.64868e-01,9.99999e-01,9.99999e-01,9.99971e-01,8.64892e-01,9.99999e-01
5.236333830e-01,8.67276e-01,9.99999e-01,9.99999e-01,9.99885e-01,8.67375e-01,9.99998e-01
5.262515499e-01,8.69754e-01,9.99999e-01,9.99999e-01,9.99928e-01,8.69817e-01,9.99998e-01
5.288828077e-01,8.72158e-01,9.99999e-01,9.99999e-01,9.99933e-01,8.72216e-01,9.99998e-01
5.315272217e-01,8.74524e-01,9.99999e-01,9.99999e-01,9.99942e-01,8.74575e-01,9.99999e-01
5.341848578e-01,8.76860e-01,9.99999e-01,9.99999e-01,9.99961e-01,8.76893e-01,9.99999e-01
5.368557821e-01,8.79054e-01,9.99999e-01,9.99999e-01,9.99865e-01,8.79171e-01,9.99999e-01
5.395400610e-01,8.80979e-01,9.99999e-01,9.99999e-01,9.99515e-01,8.81410e-01,9.99994e-01
5.422377613e-01,8.83054e-01,9.99999e-01,9.99999e-01,9.99380e-01,8.83611e-01,9.99988e-01
5.449489501e-01,8.85250e-01,9.99999e-01,9.99999e-01,9.99420e-01,8.85773e-01,9.99987e-01
5.476736949e-01,8.87441e-01,9.99999e-01,9.99999e-01,9.99490e-01,8.87898e-01,9.99993e-01
5.504120634e-01,8.89655e-01,9.99999e-01,9.99999e-01,9.99629e-01,8.89986e-01,9.99997e-01
5.531641237e-01,8.91871e-01,9.99999e-01,9.99999e-01,9.99813e-01,8.92037e-01,9.99999e-01
5.559299443e-01,8.93972e-01,9.99999e-01,9.99999e-01,9.99909e-01,8.94052e-01,9.99999e-01
5.587095940e-01,8.95981e-01,9.99999e-01,9.99999e-01,9.99943e-01,8.96032e-01,9.99999e-01
5.615031420e-01,8.97921e-01,9.99999e-01,9.99999e-01,9.99936e-01,8.97977e-01,9.99999e-01
5.643106577e-01,8.99822e-01,9.99999e-01,9.99999e-01,9.99927e-01,8.99888e-01,9.99998e-01
5.671322110e-01,9.00965e-01,9.99999e-01,9.99999e-01,9.99119e-01,9.01765e-01,9.99991e-01
5.699678720e-01,9.02761e-01,9.99999e-01,9.99999e-01,9.99084e-01,9.03608e-01,9.99975e-01
5.728177114e-01,9.04531e-01,9.99999e-01,9.99999e-01,9.99038e-01,9.05419e-01,9.99979e-01
5.756818000e-01,9.06389e-01,9.99999e-01,9.99999e-01,9.99118e-01,9.07198e-01,9.99988e-01
5.785602090e-01,9.08245e-01,9.99999e-01,9.99999e-01,9.99233e-01,9.08945e-01,9.99996e-01
5.814530100e-01,9.09957e-01,9.99999e-01,9.99999e-01,9.99228e-01,9.10661e-01,9.99997e-01
5.843602750e-01,9.11497e-01,9.99999e-01,9.99999e-01,9.99074e-01,9.12345e-01,9.99994e-01
5.872820764e-01,9.06692e-01,9.99999e-01,9.99999e-01,9.92059e-01,9.14000e-01,9.99943e-01
5.902184868e-01,9.06743e-01,9.99999e-01,9.99999e-01,9.90449e-01,9.15625e-01,9.99847e-01
5.931695792e-01,9.10880e-01,9.99999e-01,9.99999e-01,9.93231e-01,9.17221e-01,9.99853e-01
5.961354271e-01,9.11906e-01,9.99999e-01,9.99999e-01,9.92593e-01,9.18787e-01,9.99915e-01
5.991161043e-01,9.15331e-01,9.99999e-01,9.99999e-01,9.94597e-01,9.20326e-01,9.99973e-01
6.021116848e-01,9.19009e-01,9.99999e-01,9.99999e-01,9.96934e-01,9.21836e-01,9.99996e-01
6.051222432e-01,9.21887e-01,9.99999e-01,9.99999e-01,9.98448e-01,9.23320e-01,9.99999e-01
6.081478544e-01,9.24156e-01,9.99999e-01,9.99999e-01,9.99329e-01,9.24776e-01,9.99999e-01
6.111885937e-01,9.25944e-01,9.99999e-01,9.99999e-01,9.99716e-01,9.26205e-01,9.99999e-01
6.142445367e-01,9.27492e-01,9.99999e-01,9.99999e-01,9.99873e-01,9.27609e-01,9.99999e-01
6.173157594e-01,9.28922e-01,9.99999e-01,9.99999e-01,9.99929e-01,9.28987e-01,9.99999e-01
6.204023382e-01,9.30284e-01,9.99999e-01,9.99999e-01,9.99940e-01,9.30339e-01,9.99999e-01
6.235043498e-01,9.31420e-01,9.99999e-01,9.99999e-01,9.99735e-01,9.31667e-01,9.99998e-01
6.266218716e-01,9.31673e-01,9.99999e-01,9.99999e-01,9.98618e-01,9.32971e-01,9.99989e-01
6.297549810e-01,9.33759e-01,9.99999e-01,9.99999e-01,9.99492e-01,9.34250e-01,9.99980e-01
6.329037559e-01,9.34557e-01,9.99999e-01,9.99999e-01,9.99000e-01,9.35506e-01,9.99983e-01
6.360682746e-01,9.35930e-01,9.99999e-01,9.99999e-01,9.99145e-01,9.36739e-01,9.99990e-01
6.392486160e-01,9.36909e-01,9.99999e-01,9.99999e-01,9.98895e-01,9.37949e-01,9.99995e-01
6.424448591e-01,9.37732e-01,9.99999e-01,9.99999e-01,9.98511e-01,9.39136e-01,9.99992e-01
6.456570834e-01,9.33783e-01,9.99999e-01,9.99999e-01,9.93108e-01,9.40302e-01,9.99957e-01
6.488853688e-01,9.36635e-01,9.99999e-01,9.99999e-01,9.94995e-01,9.41446e-01,9.99893e-01
6.521297956e-01,9.37680e-01,9.99999e-01,9.99999e-01,9.94900e-01,9.42568e-01,9.99911e-01
6.553904446e-01,9.38799e-01,9.99999e-01,9.99999e-01,9.94902e-01,9.43670e-01,9.99934e-01
6.586673968e-01,9.40621e-01,9.99999e-01,9.99999e-01,9.95648e-01,9.44751e-01,9.99977e-01
6.619607338e-01,9.43514e-01,9.99999e-01,9.99999e-01,9.97573e-01,9.45813e-01,9.99994e-01
6.652705375e-01,9.45473e-01,9.99999e-01,9.99999e-01,9.98543e-01,9.46854e-01,9.99997e-01
6.685968902e-01,9.47289e-01,9.99999e-01,9.99999e-01,9.99380e-01,9.47876e-01,9.99999e-01
6.719398746e-01,9.48582e-01,9.99999e-01,9.99999e-01,9.99686e-01,9.48879e-01,9.99999e-01
6.752995740e-01,9.49706e-01,9.99999e-01,9.99999e-01,9.99834e-01,9.49863e-01,9.99999e-01
6.786760719e-01,9.50592e-01,9.99999e-01,9.99999e-01,9.99751e-01,9.50828e-01,9.99999e-01
6.820694522e-01,9.51372e-01,9.99999e-01,9.99999e-01,9.99577e-01,9.51776e-01,9.99997e-01
6.854797995e-01,9.52183e-01,9.99999e-01,9.99999e-01,9.99455e-01,9.52705e-01,9.99994e-01
6.889071985e-01,9.52336e-01,9.99999e-01,9.99999e-01,9.98667e-01,9.53617e-01,9.99987e-01
6.923517345e-01,9.34006e-01,9.99999e-01,9.99999e-01,9.78616e-01,9.54512e-01,9.99896e-01
6.958134932e-01,9.44681e-01,9.99999e-01,9.99999e-01,9.89014e-01,9.55391e-01,9.99771e-01
6.992925606e-01,9.45903e-01,9.99999e-01,9.99999e-01,9.89380e-01,9.56252e-01,9.99794e-01
7.027890234e-01,9.44494e-01,9.99999e-01,9.99999e-01,9.86985e-01,9.57097e-01,9.99842e-01
7.063029686e-01,9.47352e-01,9.99999e-01,9.99999e-01,9.89037e-01,9.57927e-01,9.99921e-01
7.098344834e-01,9.48610e-01,9.99999e-01,9.99999e-01,9.89478e-01,9.58740e-01,9.99953e-01
7.133836558e-01,9.45900e-01,9.99999e-01,9.99999e-01,9.85876e-01,9.59539e-01,9.99907e-01
7.169505741e-01,8.56853e-01,9.99999e-01,9.99999e-01,8.92899e-01,9.60322e-01,9.99278e-01
7.205353270e-01,9.08751e-01,9.99999e-01,9.99999e-01,9.46746e-01,9.61090e-01,9.98727e-01
7.241380036e-01,8.95414e-01,9.99999e-01,9.99999e-01,9.31958e-01,9.61844e-01,9.98900e-01
7.277586936e-01,9.02526e-01,9.99999e-01,9.99999e-01,9.38450e-01,9.62583e-01,9.99101e-01
7.313974871e-01,9.00220e-01,9.99999e-01,9.99999e-01,9.34901e-01,9.63308e-01,9.99578e-01
7.350544745e-01,9.29011e-01,9.99999e-01,9.99999e-01,9.63825e-01,9.64020e-01,9.99853e-01
7.387297469e-01,9.38849e-01,9.99999e-01,9.99999e-01,9.73249e-01,9.64718e-01,9.99932e-01
7.424233956e-01,9.52690e-01,9.99999e-01,9.99999e-01,9.86843e-01,9.65403e-01,9.99987e-01
7.461355126e-01,9.58342e-01,9.99999e-01,9.99999e-01,9.91997e-01,9.66074e-01,9.99997e-01
7.498661902e-01,9.63132e-01,9.99999e-01,9.99999e-01,9.96275e-01,9.66733e-01,9.99998e-01
7.536155211e-01,9.65606e-01,9.99999e-01,9.99999e-01,9.98167e-01,9.67379e-01,9.99999e-01
7.573835987e-01,9.67100e-01,9.99999e-01,9.99999e-01,9.99056e-01,9.68013e-01,9.99999e-01
7.611705167e-01,9.68067e-01,9.99999e-01,9.99999e-01,9.99413e-01,9.68635e-01,9.99999e-01
7.649763693e-01,9.68889e-01,9.99999e-01,9.99999e-01,9.99631e-01,9.69245e-01,9.99999e-01
7.688012511e-01,9.69595e-01,9.99999e-01,9.99999e-01,9.99743e-01,9.69843e-01,9.99999e-01
7.726452574e-01,9.70225e-01,9.99999e-01,9.99999e-01,9.99788e-01,9.70430e-01,9.99999e-01
7.765084837e-01,9.70712e-01,9.99999e-01,9.99999e-01,9.99697e-01,9.71005e-01,9.99999e-01
7.803910261e-01,9.70300e-01,9.99999e-01,9.99999e-01,9.98694e-01,9.71570e-01,9.99998e-01
7.842929812e-01,9.67690e-01,9.99999e-01,9.99999e-01,9.95447e-01,9.72124e-01,9.99991e-01
7.882144461e-01,9.63562e-01,9.99999e-01,9.99999e-01,9.90702e-01,9.72667e-01,9.99935e-01
7.921555184e-01,9.68142e-01,9.99999e-01,9.99999e-01,9.94913e-01,9.73199e-01,9.99888e-01
7.961162960e-01,9.64802e-01,9.99999e-01,9.99999e-01,9.90944e-01,9.73721e-01,9.99893e-01
8.000968774e-01,9.63985e-01,9.99999e-01,9.99999e-01,9.89591e-01,9.74234e-01,9.99887e-01
8.040973618e-01,9.64495e-01,9.99999e-01,9.99999e-01,9.89577e-01,9.74736e-01,9.99913e-01
8.081178486e-01,9.52289e-01,9.99999e-01,9.99999e-01,9.76561e-01,9.75229e-01,9.99912e-01
8.121584379e-01,8.83932e-01,9.99999e-01,9.99999e-01,9.06232e-01,9.75712e-01,9.99670e-01
8.162192301e-01,8.68335e-01,9.99999e-01,9.99999e-01,8.90620e-01,9.76186e-01,9.98761e-01
8.203003262e-01,9.20351e-01,9.99999e-01,9.99999e-01,9.43721e-01,9.76651e-01,9.98550e-01
8.244018279e-01,9.01808e-01,9.99999e-01,9.99999e-01,9.24002e-01,9.77107e-01,9.98845e-01
8.285238370e-01,9.10977e-01,9.99999e-01,9.99999e-01,9.32739e-01,9.77554e-01,9.99093e-01
8.326664562e-01,9.11445e-01,9.99999e-01,9.99999e-01,9.32303e-01,9.77992e-01,9.99624e-01
8.368297885e-01,9.30521e-01,9.99999e-01,9.99999e-01,9.51123e-01,9.78422e-01,9.99913e-01
8.410139374e-01,9.50083e-01,9.99999e-01,9.99999e-01,9.70665e-01,9.78844e-01,9.99949e-01
8.452190071e-01,9.65048e-01,9.99999e-01,9.99999e-01,9.85518e-01,9.79258e-01,9.99969e-01
8.494451021e-01,9.71361e-01,9.99999e-01,9.99999e-01,9.91548e-01,9.79663e-01,9.99975e-01
8.536923276e-01,9.75154e-01,9.99999e-01,9.99999e-01,9.95007e-01,9.80061e-01,9.99984e-01
8.579607893e-01,9.77424e-01,9.99999e-01,9.99999e-01,9.96915e-01,9.80451e-01,9.99996e-01
8.622505932e-01,9.78914e-01,9.99999e-01,9.99999e-01,9.98043e-01,9.80833e-01,9.99998e-01
8.665618462e-01,9.80017e-01,9.99999e-01,9.99999e-01,9.98785e-01,9.81208e-01,9.99999e-01
8.708946554e-01,9.80209e-01,9.99999e-01,9.99999e-01,9.98607e-01,9.81576e-01,9.99998e-01
8.752491287e-01,9.80107e-01,9.99999e-01,9.99999e-01,9.98138e-01,9.81936e-01,9.99997e-01
8.796253743e-01,9.79747e-01,9.99999e-01,9.99999e-01,9.97416e-01,9.82290e-01,9.99993e-01
8.840235012e-01,9.79723e-01,9.99999e-01,9.99999e-01,9.97051e-01,9.82637e-01,9.99981e-01
8.884436187e-01,9.72264e-01,9.99999e-01,9.99999e-01,9.89151e-01,9.82977e-01,9.99948e-01
8.928858368e-01,8.77716e-01,9.99999e-01,9.99999e-01,8.92875e-01,9.83310e-01,9.99705e-01
8.973502660e-01,8.05347e-01,9.99999e-01,9.99999e-01,8.19978e-01,9.83637e-01,9.98493e-01
9.018370173e-01,8.87648e-01,9.99999e-01,9.99999e-01,9.04259e-01,9.83958e-01,9.97632e-01
9.063462024e-01,8.97763e-01,9.99999e-01,9.99999e-01,9.14008e-01,9.84272e-01,9.97920e-01
9.108779334e-01,8.54454e-01,9.99999e-01,9.99999e-01,8.69714e-01,9.84580e-01,9.97839e-01
9.154323231e-01,8.38926e-01,9.99999e-01,9.99999e-01,8.53326e-01,9.84882e-01,9.98213e-01
9.200094847e-01,8.69629e-01,9.99999e-01,9.99999e-01,8.83595e-01,9.85179e-01,9.98999e-01
9.246095321e-01,8.12001e-01,9.99999e-01,9.99999e-01,8.24923e-01,9.85469e-01,9.98847e-01
9.292325798e-01,2.86330e-01,9.99999e-01,9.99999e-01,2.92088e-01,9.85754e-01,9.94448e-01
9.338787427e-01,2.00858e-01,9.99999e-01,9.99999e-01,2.07842e-01,9.86034e-01,9.80080e-01
9.385481364e-01,5.09680e-01,9.99999e-01,9.99999e-01,5.28305e-01,9.86308e-01,9.78136e-01
9.432408771e-01,4.05429e-01,9.99999e-01,9.99999e-01,4.18857e-01,9.86576e-01,9.81109e-01
9.479570815e-01,2.94789e-01,9.99999e-01,9.99999e-01,3.03393e-01,9.86840e-01,9.84598e-01
9.526968669e-01,3.92015e-01,9.99999e-01,9.99999e-01,4.00915e-01,9.87098e-01,9.90577e-01
9.574603512e-01,4.13596e-01,9.99999e-01,9.99999e-01,4.20913e-01,9.87351e-01,9.95202e-01
9.622476530e-01,4.83557e-01,9.99999e-01,9.99999e-01,4.91259e-01,9.87599e-01,9.96679e-01
9.670588912e-01,6.52262e-01,9.99999e-01,9.99999e-01,6.61792e-01,9.87843e-01,9.97728e-01
9.718941857e-01,7.58721e-01,9.99999e-01,9.99999e-01,7.69158e-01,9.88082e-01,9.98326e-01
9.767536566e-01,7.93596e-01,9.99999e-01,9.99999e-01,8.04005e-01,9.88316e-01,9.98721e-01
9.816374249e-01,8.40493e-01,9.99999e-01,9.99999e-01,8.50608e-01,9.88545e-01,9.99556e-01
9.865456120e-01,8.93488e-01,9.99999e-01,9.99999e-01,9.03718e-01,9.88770e-01,9.99907e-01
9.914783401e-01,9.28881e-01,9.99999e-01,9.99999e-01,9.39244e-01,9.88991e-01,9.99973e-01
9.964357318e-01,9.56005e-01,9.99999e-01,9.99999e-01,9.66449e-01,9.89207e-01,9.99984e-01
1.001417910e+00,9.69368e-01,9.99999e-01,9.99999e-01,9.79756e-01,9.89419e-01,9.99976e-01
1.006425000e+00,9.78106e-01,9.99999e-01,9.99999e-01,9.88390e-01,9.89627e-01,9.99966e-01
1.011457125e+00,9.82669e-01,9.99999e-01,9.99999e-01,9.92794e-01,9.89831e-01,9.99969e-01
1.016514411e+00,9.85156e-01,9.99999e-01,9.99999e-01,9.95097e-01,9.90030e-01,9.99978e-01
1.021596983e+00,9.86334e-01,9.99999e-01,9.99999e-01,9.96089e-01,9.90226e-01,9.99978e-01
1.026704968e+00,9.87383e-01,9.99999e-01,9.99999e-01,9.96947e-01,9.90418e-01,9.99986e-01
1.031838492e+00,9.88409e-01,9.99999e-01,9.99999e-01,9.97784e-01,9.90607e-01,9.99995e-01
1.036997685e+00,9.89485e-01,9.99999e-01,9.99999e-01,9.98681e-01,9.90792e-01,9.99998e-01
1.042182673e+00,9.89410e-01,9.99999e-01,9.99999e-01,9.98423e-01,9.90973e-01,9.99999e-01
1.047393587e+00,9.89081e-01,9.99999e-01,9.99999e-01,9.97912e-01,9.91150e-01,9.99999e-01
1.052630555e+00,9.88482e-01,9.99999e-01,9.99999e-01,9.97133e-01,9.91324e-01,9.99998e-01
1.057893707e+00,9.86747e-01,9.99999e-01,9.99999e-01,9.95212e-01,9.91495e-01,9.99997e-01
1.063183176e+00,9.83865e-01,9.99999e-01,9.99999e-01,9.92140e-01,9.91662e-01,9.99995e-01
1.068499092e+00,9.78813e-01,9.99999e-01,9.99999e-01,9.86888e-01,9.91826e-01,9.99990e-01
1.073841587e+00,9.76747e-01,9.99999e-01,9.99999e-01,9.84655e-01,9.91987e-01,9.99980e-01
1.079210795e+00,9.72670e-01,9.99999e-01,9.99999e-01,9.80422e-01,9.92144e-01,9.99946e-01
1.084606849e+00,9.62887e-01,9.99999e-01,9.99999e-01,9.70482e-01,9.92299e-01,9.99872e-01
1.090029883e+00,9.50239e-01,9.99999e-01,9.99999e-01,9.57718e-01,9.92450e-01,9.99737e-01
1.095480033e+00,8.82155e-01,9.99999e-01,9.99999e-01,8.89153e-01,9.92599e-01,9.99524e-01
1.100957433e+00,7.37255e-01,9.99999e-01,9.99999e-01,7.43292e-01,9.92745e-01,9.99125e-01
1.106462220e+00,4.74264e-01,9.99999e-01,9.99999e-01,4.78369e-01,9.92887e-01,9.98518e-01
1.111994531e+00,2.16926e-01,9.99999e-01,9.99999e-01,2.19310e-01,9.93027e-01,9.96071e-01
1.117554504e+00,8.88108e-02,9.99999e-01,9.99999e-01,9.07017e-02,9.93165e-01,9.85889e-01
1.123142276e+00,1.80476e-01,9.99999e-01,9.99999e-01,1.87921e-01,9.93299e-01,9.66862e-01
1.128757988e+00,3.07086e-01,9.99999e-01,9.99999e-01,3.21405e-01,9.93431e-01,9.61765e-01
1.134401778e+00,1.43673e-01,9.99999e-01,9.99999e-01,1.49478e-01,9.93560e-01,9.67394e-01
1.140073787e+00,4.80618e-01,9.99999e-01,9.99999e-01,4.96653e-01,9.93687e-01,9.73862e-01
1.145774156e+00,2.40086e-01,9.99999e-01,9.99999e-01,2.47509e-01,9.93811e-01,9.76047e-01
1.151503026e+00,2.09746e-01,9.99999e-01,9.99999e-01,2.13895e-01,9.93933e-01,9.86584e-01
1.157260541e+00,2.56499e-01,9.99999e-01,9.99999e-01,2.59077e-01,9.94053e-01,9.95969e-01
1.163046844e+00,3.63849e-01,9.99999e-01,9.99999e-01,3.66401e-01,9.94170e-01,9.98855e-01
1.168862078e+00,4.88128e-01,9.99999e-01,9.99999e-01,4.91223e-01,9.94285e-01,9.99410e-01
1.174706389e+00,6.40196e-01,9.99999e-01,9.99999e-01,6.44306e-01,9.94397e-01,9.99218e-01
1.180579921e+00,7.59402e-01,9.99999e-01,9.99999e-01,7.64498e-01,9.94508e-01,9.98818e-01
1.186482820e+00,8.52915e-01,9.99999e-01,9.99999e-01,8.58572e-01,9.94616e-01,9.98787e-01
1.192415234e+00,9.09020e-01,9.99999e-01,9.99999e-01,9.14673e-01,9.94722e-01,9.99091e-01
1.198377311e+00,9.21919e-01,9.99999e-01,9.99999e-01,9.27508e-01,9.94826e-01,9.99141e-01
1.204369197e+00,9.25986e-01,9.99999e-01,9.99999e-01,9.31429e-01,9.94928e-01,9.99223e-01
1.210391043e+00,9.29184e-01,9.99999e-01,9.99999e-01,9.34268e-01,9.95028e-01,9.99527e-01
1.216442998e+00,9.39024e-01,9.99999e-01,9.99999e-01,9.43895e-01,9.95126e-01,9.99710e-01
1.222525213e+00,9.51238e-01,9.99999e-01,9.99999e-01,9.55976e-01,9.95222e-01,9.99819e-01
1.228637839e+00,9.64581e-01,9.99999e-01,9.99999e-01,9.69201e-01,9.95316e-01,9.99915e-01
