#,Wave/freq,Total,N2,O2,H2O,Rayleigh,CIA
4.000000000e-01,8.10338e-01,9.99999e-01,9.99999e-01,9.99975e-01,8.10358e-01,9.99999e-01
4.020000000e-01,8.13722e-01,9.99999e-01,9.99999e-01,9.99984e-01,8.13734e-01,9.99999e-01
4.040100000e-01,8.17049e-01,9.99999e-01,9.99999e-01,9.99993e-01,8.17054e-01,9.99999e-01
4.060300500e-01,8.20320e-01,9.99999e-01,9.99999e-01,9.99998e-01,8.20321e-01,9.99999e-01
4.080602003e-01,8.23536e-01,9.99999e-01,9.99999e-01,9.99999e-01,8.23537e-01,9.99999e-01
4.101005013e-01,8.26701e-01,9.99999e-01,9.99999e-01,9.99999e-01,8.26701e-01,9.99999e-01
4.121510038e-01,8.29814e-01,9.99999e-01,9.99999e-01,9.99998e-01,8.29814e-01,9.99999e-01
4.142117588e-01,8.32872e-01,9.99999e-01,9.99999e-01,9.99993e-01,8.32878e-01,9.99999e-01
4.162828176e-01,8.35867e-01,9.99999e-01,9.99999e-01,9.99970e-01,8.35892e-01,9.99999e-01
4.183642317e-01,8.38842e-01,9.99999e-01,9.99999e-01,9.99982e-01,8.38857e-01,9.99999e-01
4.204560528e-01,8.41764e-01,9.99999e-01,9.99999e-01,9.99988e-01,8.41773e-01,9.99999e-01
4.225583331e-01,8.44639e-01,9.99999e-01,9.99999e-01,9.99995e-01,8.44642e-01,9.99999e-01
4.246711247e-01,8.47461e-01,9.99999e-01,9.99999e-01,9.99996e-01,8.47464e-01,9.99999e-01
4.267944804e-01,8.50235e-01,9.99999e-01,9.99999e-01,9.99994e-01,8.50239e-01,9.99999e-01
4.289284528e-01,8.52965e-01,9.99999e-01,9.99999e-01,9.99995e-01,8.52968e-01,9.99999e-01
4.310730950e-01,8.55650e-01,9.99999e-01,9.99999e-01,9.99997e-01,8.55651e-01,9.99999e-01
4.332284605e-01,8.58290e-01,9.99999e-01,9.99999e-01,9.99999e-01,8.58290e-01,9.99999e-01
4.353946028e-01,8.60885e-01,9.99999e-01,9.99999e-01,9.99999e-01,8.60885e-01,9.99999e-01
4.375715758e-01,8.63433e-01,9.99999e-01,9.99999e-01,9.99996e-01,8.63436e-01,9.99999e-01
4.397594337e-01,8.65922e-01,9.99999e-01,9.99999e-01,9.99974e-01,8.65944e-01,9.99999e-01
4.419582309e-01,8.68297e-01,9.99999e-01,9.99999e-01,9.99870e-01,8.68409e-01,9.99999e-01
4.441680220e-01,8.70743e-01,9.99999e-01,9.99999e-01,9.99896e-01,8.70833e-01,9.99999e-01
4.463888621e-01,8.73122e-01,9.99999e-01,9.99999e-01,9.99893e-01,8.73215e-01,9.99999e-01
4.486208064e-01,8.75498e-01,9.99999e-01,9.99999e-01,9.99932e-01,8.75556e-01,9.99999e-01
4.508639105e-01,8.77830e-01,9.99999e-01,9.99999e-01,9.99968e-01,8.77858e-01,9.99999e-01
4.531182300e-01,8.80109e-01,9.99999e-01,9.99999e-01,9.99987e-01,8.80119e-01,9.99999e-01
4.553838212e-01,8.82335e-01,9.99999e-01,9.99999e-01,9.99991e-01,8.82342e-01,9.99999e-01
4.576607403e-01,8.84523e-01,9.99999e-01,9.99999e-01,9.99995e-01,8.84526e-01,9.99999e-01
4.599490440e-01,8.86670e-01,9.99999e-01,9.99999e-01,9.99996e-01,8.86673e-01,9.99999e-01
4.622487892e-01,8.88781e-01,9.99999e-01,9.99999e-01,9.99999e-01,8.88782e-01,9.99999e-01
4.645600332e-01,8.90853e-01,9.99999e-01,9.99999e-01,9.99997e-01,8.90854e-01,9.99999e-01
4.668828333e-01,8.92862e-01,9.99999e-01,9.99999e-01,9.99968e-01,8.92890e-01,9.99999e-01
4.692172475e-01,8.94831e-01,9.99999e-01,9.99999e-01,9.99932e-01,8.94891e-01,9.99999e-01
4.715633337e-01,8.96817e-01,9.99999e-01,9.99999e-01,9.99955e-01,8.96856e-01,9.99999e-01
4.739211504e-01,8.98749e-01,9.99999e-01,9.99999e-01,9.99957e-01,8.98786e-01,9.99999e-01
4.762907561e-01,9.00663e-01,9.99999e-01,9.99999e-01,9.99977e-01,9.00683e-01,9.99999e-01
4.786722099e-01,9.02537e-01,9.99999e-01,9.99999e-01,9.99990e-01,9.02545e-01,9.99999e-01
4.810655710e-01,9.04373e-01,9.99999e-01,9.99999e-01,9.99996e-01,9.04375e-01,9.99999e-01
4.834708988e-01,9.06150e-01,9.99999e-01,9.99999e-01,9.99974e-01,9.06173e-01,9.99999e-01
4.858882533e-01,9.07895e-01,9.99999e-01,9.99999e-01,9.99952e-01,9.07938e-01,9.99999e-01
4.883176946e-01,9.09636e-01,9.99999e-01,9.99999e-01,9.99960e-01,9.09671e-01,9.99999e-01
4.907592831e-01,9.11341e-01,9.99999e-01,9.99999e-01,9.99963e-01,9.11374e-01,9.99999e-01
4.932130795e-01,9.13023e-01,9.99999e-01,9.99999e-01,9.99974e-01,9.13046e-01,9.99999e-01
4.956791449e-01,9.14676e-01,9.99999e-01,9.99999e-01,9.99986e-01,9.14688e-01,9.99999e-01
4.981575406e-01,9.16240e-01,9.99999e-01,9.99999e-01,9.99932e-01,9.16301e-01,9.99999e-01
5.006483283e-01,9.17725e-01,9.99999e-01,9.99999e-01,9.99827e-01,9.17884e-01,9.99998e-01
5.031515699e-01,9.18622e-01,9.99999e-01,9.99999e-01,9.99119e-01,9.19439e-01,9.99990e-01
5.056673278e-01,9.20527e-01,9.99999e-01,9.99999e-01,9.99533e-01,9.20966e-01,9.99988e-01
5.081956644e-01,9.21916e-01,9.99999e-01,9.99999e-01,9.99411e-01,9.22465e-01,9.99992e-01
5.107366428e-01,9.23568e-01,9.99999e-01,9.99999e-01,9.99602e-01,9.23936e-01,9.99998e-01
5.132903260e-01,9.25170e-01,9.99999e-01,9.99999e-01,9.99771e-01,9.25381e-01,9.99999e-01
5.158567776e-01,9.26711e-01,9.99999e-01,9.99999e-01,9.99903e-01,9.26800e-01,9.99999e-01
5.184360615e-01,9.28157e-01,9.99999e-01,9.99999e-01,9.99961e-01,9.28192e-01,9.99999e-01
5.210282418e-01,9.29546e-01,9.99999e-01,9.99999e-01,9.99985e-01,9.29560e-01,9.99999e-01
5.236333830e-01,9.30848e-01,9.99999e-01,9.99999e-01,9.99942e-01,9.30902e-01,9.99999e-01
5.262515499e-01,9.32185e-01,9.99999e-01,9.99999e-01,9.99963e-01,9.32219e-01,9.99998e-01
5.288828077e-01,9.33482e-01,9.99999e-01,9.99999e-01,9.99966e-01,9.33512e-01,9.99999e-01
5.315272217e-01,9.34755e-01,9.99999e-01,9.99999e-01,9.99970e-01,9.34782e-01,9.99999e-01
5.341848578e-01,9.36010e-01,9.99999e-01,9.99999e-01,9.99980e-01,9.36028e-01,9.99999e-01
5.368557821e-01,9.37189e-01,9.99999e-01,9.99999e-01,9.99933e-01,9.37251e-01,9.99999e-01
5.395400610e-01,9.38226e-01,9.99999e-01,9.99999e-01,9.99760e-01,9.38452e-01,9.99997e-01
5.422377613e-01,9.39330e-01,9.99999e-01,9.99999e-01,9.99686e-01,9.39630e-01,9.99993e-01
5.449489501e-01,9.40509e-01,9.99999e-01,9.99999e-01,9.99710e-01,9.40786e-01,9.99993e-01
5.476736949e-01,9.41675e-01,9.99999e-01,9.99999e-01,9.99741e-01,9.41921e-01,9.99996e-01
5.504120634e-01,9.42858e-01,9.99999e-01,9.99999e-01,9.99812e-01,9.43035e-01,9.99998e-01
5.531641237e-01,9.44039e-01,9.99999e-01,9.99999e-01,9.99905e-01,9.44128e-01,9.99999e-01
5.559299443e-01,9.45158e-01,9.99999e-01,9.99999e-01,9.99953e-01,9.45201e-01,9.99999e-01
5.587095940e-01,9.46227e-01,9.99999e-01,9.99999e-01,9.99971e-01,9.46254e-01,9.99999e-01
5.615031420e-01,9.47257e-01,9.99999e-01,9.99999e-01,9.99967e-01,9.47287e-01,9.99999e-01
5.643106577e-01,9.48267e-01,9.99999e-01,9.99999e-01,9.99964e-01,9.48301e-01,9.99999e-01
5.671322110e-01,9.48887e-01,9.99999e-01,9.99999e-01,9.99572e-01,9.49295e-01,9.99995e-01
5.699678720e-01,9.49816e-01,9.99999e-01,9.99999e-01,9.99531e-01,9.50272e-01,9.99987e-01
5.728177114e-01,9.50762e-01,9.99999e-01,9.99999e-01,9.99517e-01,9.51230e-01,9.99989e-01
5.756818000e-01,9.51742e-01,9.99999e-01,9.99999e-01,9.99556e-01,9.52169e-01,9.99993e-01
5.785602090e-01,9.52721e-01,9.99999e-01,9.99999e-01,9.99612e-01,9.53092e-01,9.99997e-01
5.814530100e-01,9.53626e-01,9.99999e-01,9.99999e-01,9.99611e-01,9.53997e-01,9.99998e-01
5.843602750e-01,9.54445e-01,9.99999e-01,9.99999e-01,9.99541e-01,9.54884e-01,9.99996e-01
5.872820764e-01,9.51949e-01,9.99999e-01,9.99999e-01,9.96045e-01,9.55756e-01,9.99971e-01
5.902184868e-01,9.51911e-01,9.99999e-01,9.99999e-01,9.95162e-01,9.56610e-01,9.99923e-01
5.931695792e-01,9.54116e-01,9.99999e-01,9.99999e-01,9.96592e-01,9.57449e-01,9.99925e-01
5.961354271e-01,9.54641e-01,9.99999e-01,9.99999e-01,9.96255e-01,9.58271e-01,9.99954e-01
5.991161043e-01,9.56444e-01,9.99999e-01,9.99999e-01,9.97265e-01,9.59079e-01,9.99986e-01
6.021116848e-01,9.58377e-01,9.99999e-01,9.99999e-01,9.98445e-01,9.59870e-01,9.99997e-01
6.051222432e-01,9.59891e-01,9.99999e-01,9.99999e-01,9.99212e-01,9.60647e-01,9.99999e-01
6.081478544e-01,9.61083e-01,9.99999e-01,9.99999e-01,9.99660e-01,9.61409e-01,9.99999e-01
6.111885937e-01,9.62019e-01,9.99999e-01,9.99999e-01,9.99855e-01,9.62157e-01,9.99999e-01
6.142445367e-01,9.62829e-01,9.99999e-01,9.99999e-01,9.99935e-01,9.62890e-01,9.99999e-01
6.173157594e-01,9.63576e-01,9.99999e-01,9.99999e-01,9.99964e-01,9.63610e-01,9.99999e-01
6.204023382e-01,9.64287e-01,9.99999e-01,9.99999e-01,9.99969e-01,9.64316e-01,9.99999e-01
6.235043498e-01,9.64883e-01,9.99999e-01,9.99999e-01,9.99870e-01,9.65008e-01,9.99999e-01
6.266218716e-01,9.65012e-01,9.99999e-01,9.99999e-01,9.99305e-01,9.65687e-01,9.99994e-01
6.297549810e-01,9.66098e-01,9.99999e-01,9.99999e-01,9.99744e-01,9.66353e-01,9.99989e-01
6.329037559e-01,9.66511e-01,9.99999e-01,9.99999e-01,9.99494e-01,9.67007e-01,9.99991e-01
6.360682746e-01,9.67230e-01,9.99999e-01,9.99999e-01,9.99571e-01,9.67648e-01,9.99994e-01
6.392486160e-01,9.67737e-01,9.99999e-01,9.99999e-01,9.99443e-01,9.68277e-01,9.99997e-01
6.424448591e-01,9.68245e-01,9.99999e-01,9.99999e-01,9.99333e-01,9.68893e-01,9.99996e-01
6.456570834e-01,9.66187e-01,9.99999e-01,9.99999e-01,9.96602e-01,9.69498e-01,9.99980e-01
6.488853688e-01,9.67152e-01,9.99999e-01,9.99999e-01,9.97022e-01,9.70092e-01,9.99945e-01
6.521297956e-01,9.68123e-01,9.99999e-01,9.99999e-01,9.97416e-01,9.70674e-01,9.99954e-01
6.553904446e-01,9.68736e-01,9.99999e-01,9.99999e-01,9.97450e-01,9.71245e-01,9.99965e-01
6.586673968e-01,9.69651e-01,9.99999e-01,9.99999e-01,9.97794e-01,9.71804e-01,9.99988e-01
6.619607338e-01,9.71112e-01,9.99999e-01,9.99999e-01,9.98725e-01,9.72354e-01,9.99997e-01
6.652705375e-01,9.72171e-01,9.99999e-01,9.99999e-01,9.99259e-01,9.72892e-01,9.99998e-01
6.685968902e-01,9.73086e-01,9.99999e-01,9.99999e-01,9.99656e-01,9.73420e-01,9.99999e-01
6.719398746e-01,9.73783e-01,9.99999e-01,9.99999e-01,9.99840e-01,9.73939e-01,9.99999e-01
6.752995740e-01,9.74363e-01,9.99999e-01,9.99999e-01,9.99913e-01,9.74447e-01,9.99999e-01
6.786760719e-01,9.74825e-01,9.99999e-01,9.99999e-01,9.99876e-01,9.74945e-01,9.99999e-01
6.820694522e-01,9.75226e-01,9.99999e-01,9.99999e-01,9.99788e-01,9.75434e-01,9.99998e-01
6.854797995e-01,9.75645e-01,9.99999e-01,9.99999e-01,9.99726e-01,9.75913e-01,9.99997e-01
6.889071985e-01,9.75743e-01,9.99999e-01,9.99999e-01,9.99350e-01,9.76383e-01,9.99993e-01
6.923517345e-01,9.66342e-01,9.99999e-01,9.99999e-01,9.89299e-01,9.76844e-01,9.99947e-01
6.958134932e-01,9.71619e-01,9.99999e-01,9.99999e-01,9.94306e-01,9.77296e-01,9.99882e-01
6.992925606e-01,9.72459e-01,9.99999e-01,9.99999e-01,9.94700e-01,9.77740e-01,9.99896e-01
7.027890234e-01,9.71648e-01,9.99999e-01,9.99999e-01,9.93405e-01,9.78175e-01,9.99920e-01
7.063029686e-01,9.73141e-01,9.99999e-01,9.99999e-01,9.94459e-01,9.78601e-01,9.99960e-01
7.098344834e-01,9.73792e-01,9.99999e-01,9.99999e-01,9.94683e-01,9.79019e-01,9.99976e-01
7.133836558e-01,9.72543e-01,9.99999e-01,9.99999e-01,9.93014e-01,9.79429e-01,9.99953e-01
7.169505741e-01,9.25344e-01,9.99999e-01,9.99999e-01,9.44733e-01,9.79832e-01,9.99636e-01
7.205353270e-01,9.52215e-01,9.99999e-01,9.99999e-01,9.72045e-01,9.80226e-01,9.99359e-01
7.241380036e-01,9.45944e-01,9.99999e-01,9.99999e-01,9.65183e-01,9.80613e-01,9.99442e-01
7.277586936e-01,9.49650e-01,9.99999e-01,9.99999e-01,9.68498e-01,9.80992e-01,9.99536e-01
7.313974871e-01,9.48107e-01,9.99999e-01,9.99999e-01,9.66315e-01,9.81364e-01,9.99787e-01
7.350544745e-01,9.63498e-01,9.99999e-01,9.99999e-01,9.81501e-01,9.81729e-01,9.99925e-01
7.387297469e-01,9.68646e-01,9.99999e-01,9.99999e-01,9.86347e-01,9.82086e-01,9.99965e-01
7.424233956e-01,9.75831e-01,9.99999e-01,9.99999e-01,9.93282e-01,9.82437e-01,9.99993e-01
7.461355126e-01,9.78782e-01,9.99999e-01,9.99999e-01,9.95932e-01,9.82781e-01,9.99998e-01
7.498661902e-01,9.81249e-01,9.99999e-01,9.99999e-01,9.98099e-01,9.83118e-01,9.99999e-01
7.536155211e-01,9.82534e-01,9.99999e-01,9.99999e-01,9.99070e-01,9.83449e-01,9.99999e-01
7.573835987e-01,9.83302e-01,9.99999e-01,9.99999e-01,9.99520e-01,9.83773e-01,9.99999e-01
7.611705167e-01,9.83798e-01,9.99999e-01,9.99999e-01,9.99702e-01,9.84091e-01,9.99999e-01
7.649763693e-01,9.84219e-01,9.99999e-01,9.99999e-01,9.99813e-01,9.84403e-01,9.99999e-01
7.688012511e-01,9.84581e-01,9.99999e-01,9.99999e-01,9.99870e-01,9.84708e-01,9.99999e-01
7.726452574e-01,9.84903e-01,9.99999e-01,9.99999e-01,9.99893e-01,9.85008e-01,9.99999e-01
7.765084837e-01,9.85154e-01,9.99999e-01,9.99999e-01,9.99849e-01,9.85302e-01,9.99999e-01
7.803910261e-01,9.84952e-01,9.99999e-01,9.99999e-01,9.99352e-01,9.85590e-01,9.99998e-01
7.842929812e-01,9.83643e-01,9.99999e-01,9.99999e-01,9.97741e-01,9.85873e-01,9.99995e-01
7.882144461e-01,9.81496e-01,9.99999e-01,9.99999e-01,9.95308e-01,9.86150e-01,9.99970e-01
7.921555184e-01,9.83814e-01,9.99999e-01,9.99999e-01,9.97411e-01,9.86422e-01,9.99944e-01
7.961162960e-01,9.82178e-01,9.99999e-01,9.99999e-01,9.95481e-01,9.86688e-01,9.99946e-01
8.000968774e-01,9.81714e-01,9.99999e-01,9.99999e-01,9.94751e-01,9.86949e-01,9.99942e-01
8.040973618e-01,9.81986e-01,9.99999e-01,9.99999e-01,9.94757e-01,9.87205e-01,9.99954e-01
8.081178486e-01,9.75858e-01,9.99999e-01,9.99999e-01,9.88295e-01,9.87456e-01,9.99957e-01
8.121584379e-01,9.40094e-01,9.99999e-01,9.99999e-01,9.51955e-01,9.87703e-01,9.99833e-01
8.162192301e-01,9.30681e-01,9.99999e-01,9.99999e-01,9.42625e-01,9.87944e-01,9.99376e-01
8.203003262e-01,9.59349e-01,9.99999e-01,9.99999e-01,9.71531e-01,9.88181e-01,9.99270e-01
8.244018279e-01,9.47734e-01,9.99999e-01,9.99999e-01,9.59400e-01,9.88413e-01,9.99418e-01
8.285238370e-01,9.54194e-01,9.99999e-01,9.99999e-01,9.65597e-01,9.88640e-01,9.99543e-01
8.326664562e-01,9.54153e-01,9.99999e-01,9.99999e-01,9.65079e-01,9.88863e-01,9.99810e-01
8.368297885e-01,9.64211e-01,9.99999e-01,9.99999e-01,9.74895e-01,9.89082e-01,9.99956e-01
8.410139374e-01,9.74439e-01,9.99999e-01,9.99999e-01,9.85005e-01,9.89297e-01,9.99974e-01
8.452190071e-01,9.82184e-01,9.99999e-01,9.99999e-01,9.92613e-01,9.89507e-01,9.99984e-01
8.494451021e-01,9.85472e-01,9.99999e-01,9.99999e-01,9.95726e-01,9.89713e-01,9.99987e-01
8.536923276e-01,9.87395e-01,9.99999e-01,9.99999e-01,9.97461e-01,9.89915e-01,9.99991e-01
8.579607893e-01,9.88569e-01,9.99999e-01,9.99999e-01,9.98441e-01,9.90113e-01,9.99997e-01
8.622505932e-01,9.89325e-01,9.99999e-01,9.99999e-01,9.99007e-01,9.90308e-01,9.99999e-01
8.665618462e-01,9.89892e-01,9.99999e-01,9.99999e-01,9.99388e-01,9.90498e-01,9.99999e-01
8.708946554e-01,9.89993e-01,9.99999e-01,9.99999e-01,9.99301e-01,9.90685e-01,9.99999e-01
8.752491287e-01,9.89940e-01,9.99999e-01,9.99999e-01,9.99064e-01,9.90868e-01,9.99998e-01
8.796253743e-01,9.89766e-01,9.99999e-01,9.99999e-01,9.98708e-01,9.91048e-01,9.99996e-01
8.840235012e-01,9.89752e-01,9.99999e-01,9.99999e-01,9.98523e-01,9.91224e-01,9.99990e-01
8.884436187e-01,9.86139e-01,9.99999e-01,9.99999e-01,9.94721e-01,9.91396e-01,9.99973e-01
8.928858368e-01,9.36877e-01,9.99999e-01,9.99999e-01,9.44985e-01,9.91566e-01,9.99851e-01
8.973502660e-01,8.95662e-01,9.99999e-01,9.99999e-01,9.03813e-01,9.91731e-01,9.99241e-01
9.018370173e-01,9.40498e-01,9.99999e-01,9.99999e-01,9.49314e-01,9.91894e-01,9.98808e-01
9.063462024e-01,9.47387e-01,9.99999e-01,9.99999e-01,9.55975e-01,9.92054e-01,9.98952e-01
9.108779334e-01,9.23563e-01,9.99999e-01,9.99999e-01,9.31826e-01,9.92210e-01,9.98911e-01
9.154323231e-01,9.14889e-01,9.99999e-01,9.99999e-01,9.22758e-01,9.92363e-01,9.99100e-01
9.200094847e-01,9.31336e-01,9.99999e-01,9.99999e-01,9.38833e-01,9.92513e-01,9.99496e-01
9.246095321e-01,9.00883e-01,9.99999e-01,9.99999e-01,9.08069e-01,9.92661e-01,9.99419e-01
9.292325798e-01,5.17678e-01,9.99999e-01,9.99999e-01,5.22610e-01,9.92805e-01,9.97740e-01
9.338787427e-01,4.22805e-01,9.99999e-01,9.99999e-01,4.29808e-01,9.92947e-01,9.90692e-01
9.385481364e-01,6.98060e-01,9.99999e-01,9.99999e-01,7.10780e-01,9.93086e-01,9.88939e-01
9.432408771e-01,6.16447e-01,9.99999e-01,9.99999e-01,6.26637e-01,9.93222e-01,9.90450e-01
9.479570815e-01,5.18789e-01,9.99999e-01,9.99999e-01,5.26353e-01,9.93355e-01,9.92221e-01
9.526968669e-01,6.06891e-01,9.99999e-01,9.99999e-01,6.13787e-01,9.93486e-01,9.95247e-01
9.574603512e-01,6.30902e-01,9.99999e-01,9.99999e-01,6.36494e-01,9.93614e-01,9.97583e-01
9.622476530e-01,6.85543e-01,9.99999e-01,9.99999e-01,6.91016e-01,9.93740e-01,9.98328e-01
9.670588912e-01,8.02356e-01,9.99999e-01,9.99999e-01,8.08234e-01,9.93863e-01,9.98856e-01
9.718941857e-01,8.69272e-01,9.99999e-01,9.99999e-01,8.75270e-01,9.93984e-01,9.99157e-01
9.767536566e-01,8.89480e-01,9.99999e-01,9.99999e-01,8.95332e-01,9.94102e-01,9.99356e-01
9.816374249e-01,9.15590e-01,9.99999e-01,9.99999e-01,9.21118e-01,9.94219e-01,9.99776e-01
9.865456120e-01,9.44512e-01,9.99999e-01,9.99999e-01,9.49939e-01,9.94332e-01,9.99953e-01
9.914783401e-01,9.63381e-01,9.99999e-01,9.99999e-01,9.68775e-01,9.94444e-01,9.99986e-01
9.964357318e-01,9.77510e-01,9.99999e-01,9.99999e-01,9.82870e-01,9.94553e-01,9.99991e-01
1.001417910e+00,9.84402e-01,9.99999e-01,9.99999e-01,9.89697e-01,9.94661e-01,9.99988e-01
1.006425000e+00,9.88909e-01,9.99999e-01,9.99999e-01,9.94127e-01,9.94766e-01,9.99983e-01
1.011457125e+00,9.91214e-01,9.99999e-01,9.99999e-01,9.96341e-01,9.94869e-01,9.99984e-01
1.016514411e+00,9.92492e-01,9.99999e-01,9.99999e-01,9.97519e-01,9.94970e-01,9.99988e-01
1.021596983e+00,9.93093e-01,9.99999e-01,9.99999e-01,9.98024e-01,9.95069e-01,9.99988e-01
1.026704968e+00,9.93627e-01,9.99999e-01,9.99999e-01,9.98459e-01,9.95166e-01,9.99992e-01
1.031838492e+00,9.94143e-01,9.99999e-01,9.99999e-01,9.98877e-01,9.95262e-01,9.99997e-01
1.036997685e+00,9.94693e-01,9.99999e-01,9.99999e-01,9.99334e-01,9.95355e-01,9.99999e-01
1.042182673e+00,9.94660e-01,9.99999e-01,9.99999e-01,9.99209e-01,9.95446e-01,9.99999e-01
1.047393587e+00,9.94492e-01,9.99999e-01,9.99999e-01,9.98950e-01,9.95536e-01,9.99999e-01
1.052630555e+00,9.94192e-01,9.99999e-01,9.99999e-01,9.98561e-01,9.95624e-01,9.99999e-01
1.057893707e+00,9.93324e-01,9.99999e-01,9.99999e-01,9.97603e-01,9.95710e-01,9.99998e-01
1.063183176e+00,9.91864e-01,9.99999e-01,9.99999e-01,9.96054e-01,9.95795e-01,9.99997e-01
1.068499092e+00,9.89292e-01,9.99999e-01,9.99999e-01,9.93390e-01,9.95878e-01,9.99995e-01
1.073841587e+00,9.88265e-01,9.99999e-01,9.99999e-01,9.92283e-01,9.95959e-01,9.99989e-01
1.079210795e+00,9.86139e-01,9.99999e-01,9.99999e-01,9.90086e-01,9.96039e-01,9.99973e-01
1.084606849e+00,9.81169e-01,9.99999e-01,9.99999e-01,9.85055e-01,9.96117e-01,9.99935e-01
1.090029883e+00,9.74873e-01,9.99999e-01,9.99999e-01,9.78727e-01,9.96193e-01,9.99867e-01
1.095480033e+00,9.39232e-01,9.99999e-01,9.99999e-01,9.42974e-01,9.96268e-01,9.99760e-01
1.100957433e+00,8.58004e-01,9.99999e-01,9.99999e-01,8.61532e-01,9.96342e-01,9.99559e-01
1.106462220e+00,6.83427e-01,9.99999e-01,9.99999e-01,6.86398e-01,9.96414e-01,9.99253e-01
1.111994531e+00,4.50698e-01,9.99999e-01,9.99999e-01,4.53184e-01,9.96485e-01,9.98021e-01
1.117554504e+00,2.76537e-01,9.99999e-01,9.99999e-01,2.79484e-01,9.96554e-01,9.92875e-01
1.123142276e+00,3.87624e-01,9.99999e-01,9.99999e-01,3.95588e-01,9.96622e-01,9.83188e-01
1.128757988e+00,5.36546e-01,9.99999e-01,9.99999e-01,5.48991e-01,9.96688e-01,9.80577e-01
1.134401778e+00,2.86990e-01,9.99999e-01,9.99999e-01,2.92882e-01,9.96754e-01,9.83072e-01
1.140073787e+00,6.85604e-01,9.99999e-01,9.99999e-01,6.97265e-01,9.96818e-01,9.86412e-01
1.145774156e+00,4.66649e-01,9.99999e-01,9.99999e-01,4.73854e-01,9.96880e-01,9.87876e-01
1.151503026e+00,4.32777e-01,9.99999e-01,9.99999e-01,4.37064e-01,9.96942e-01,9.93227e-01
1.157260541e+00,4.93731e-01,9.99999e-01,9.99999e-01,4.96222e-01,9.97002e-01,9.97969e-01
1.163046844e+00,5.92281e-01,9.99999e-01,9.99999e-01,5.94369e-01,9.97061e-01,9.99423e-01
1.168862078e+00,6.93258e-01,9.99999e-01,9.99999e-01,6.95467e-01,9.97119e-01,9.99702e-01
1.174706389e+00,7.96666e-01,9.99999e-01,9.99999e-01,7.99235e-01,9.97176e-01,9.99606e-01
1.180579921e+00,8.69348e-01,9.99999e-01,9.99999e-01,8.72279e-01,9.97232e-01,9.99405e-01
1.186482820e+00,9.22647e-01,9.99999e-01,9.99999e-01,9.25721e-01,9.97286e-01,9.99389e-01
1.192415234e+00,9.53016e-01,9.99999e-01,9.99999e-01,9.55994e-01,9.97340e-01,9.99542e-01
1.198377311e+00,9.59929e-01,9.99999e-01,9.99999e-01,9.62853e-01,9.97392e-01,9.99567e-01
1.204369197e+00,9.61947e-01,9.99999e-01,9.99999e-01,9.64788e-01,9.97444e-01,9.99609e-01
1.210391043e+00,9.63639e-01,9.99999e-01,9.99999e-01,9.66288e-01,9.97494e-01,9.99761e-01
1.216442998e+00,9.68660e-01,9.99999e-01,9.99999e-01,9.71186e-01,9.97544e-01,9.99854e-01
1.222525213e+00,9.75075e-01,9.99999e-01,9.99999e-01,9.77516e-01,9.97592e-01,9.99909e-01
1.228637839e+00,9.81983e-01,9.99999e-01,9.99999e-01,9.84347e-01,9.97640e-01,9.99957e-01
