#,Wave/freq,Total,N2,O2,H2O,Rayleigh,CIA
4.000000000e-01,3.70001e-01,9.99999e-01,9.99999e-01,9.99887e-01,3.70043e-01,9.99999e-01
4.020000000e-01,3.77362e-01,9.99999e-01,9.99999e-01,9.99930e-01,3.77388e-01,9.99999e-01
4.040100000e-01,3.84711e-01,9.99999e-01,9.99999e-01,9.99970e-01,3.84723e-01,9.99999e-01
4.060300500e-01,3.92048e-01,9.99999e-01,9.99999e-01,9.99992e-01,3.92051e-01,9.99999e-01
4.080602003e-01,3.99368e-01,9.99999e-01,9.99999e-01,9.99997e-01,3.99369e-01,9.99999e-01
4.101005013e-01,4.06676e-01,9.99999e-01,9.99999e-01,9.99999e-01,4.06676e-01,9.99999e-01
4.121510038e-01,4.13966e-01,9.99999e-01,9.99999e-01,9.99995e-01,4.13968e-01,9.99999e-01
4.142117588e-01,4.21230e-01,9.99999e-01,9.99999e-01,9.99968e-01,4.21243e-01,9.99999e-01
4.162828176e-01,4.28439e-01,9.99999e-01,9.99999e-01,9.99860e-01,4.28498e-01,9.99999e-01
4.183642317e-01,4.35696e-01,9.99999e-01,9.99999e-01,9.99917e-01,4.35731e-01,9.99999e-01
4.204560528e-01,4.42918e-01,9.99999e-01,9.99999e-01,9.99949e-01,4.42940e-01,9.99999e-01
4.225583331e-01,4.50114e-01,9.99999e-01,9.99999e-01,9.99980e-01,4.50123e-01,9.99999e-01
4.246711247e-01,4.57269e-01,9.99999e-01,9.99999e-01,9.99984e-01,4.57276e-01,9.99999e-01
4.267944804e-01,4.64388e-01,9.99999e-01,9.99999e-01,9.99977e-01,4.64398e-01,9.99999e-01
4.289284528e-01,4.71480e-01,9.99999e-01,9.99999e-01,9.99982e-01,4.71488e-01,9.99999e-01
4.310730950e-01,4.78539e-01,9.99999e-01,9.99999e-01,9.99992e-01,4.78542e-01,9.99999e-01
4.332284605e-01,4.85559e-01,9.99999e-01,9.99999e-01,9.99997e-01,4.85560e-01,9.99999e-01
4.353946028e-01,4.92538e-01,9.99999e-01,9.99999e-01,9.99998e-01,4.92538e-01,9.99999e-01
4.375715758e-01,4.99470e-01,9.99999e-01,9.99999e-01,9.99985e-01,4.99477e-01,9.99999e-01
4.397594337e-01,5.06310e-01,9.99999e-01,9.99999e-01,9.99876e-01,5.06373e-01,9.99999e-01
4.419582309e-01,5.12903e-01,9.99999e-01,9.99999e-01,9.99373e-01,5.13225e-01,9.99999e-01
4.441680220e-01,5.19782e-01,9.99999e-01,9.99999e-01,9.99518e-01,5.20032e-01,9.99999e-01
4.463888621e-01,5.26527e-01,9.99999e-01,9.99999e-01,9.99496e-01,5.26792e-01,9.99999e-01
4.486208064e-01,5.33337e-01,9.99999e-01,9.99999e-01,9.99688e-01,5.33503e-01,9.99999e-01
4.508639105e-01,5.40087e-01,9.99999e-01,9.99999e-01,9.99853e-01,5.40166e-01,9.99999e-01
4.531182300e-01,5.46745e-01,9.99999e-01,9.99999e-01,9.99942e-01,5.46777e-01,9.99999e-01
4.553838212e-01,5.53314e-01,9.99999e-01,9.99999e-01,9.99960e-01,5.53336e-01,9.99999e-01
4.576607403e-01,5.59832e-01,9.99999e-01,9.99999e-01,9.99981e-01,5.59842e-01,9.99999e-01
4.599490440e-01,5.66287e-01,9.99999e-01,9.99999e-01,9.99986e-01,5.66294e-01,9.99999e-01
4.622487892e-01,5.72689e-01,9.99999e-01,9.99999e-01,9.99997e-01,5.72690e-01,9.99999e-01
4.645600332e-01,5.79026e-01,9.99999e-01,9.99999e-01,9.99990e-01,5.79031e-01,9.99999e-01
4.668828333e-01,5.85227e-01,9.99999e-01,9.99999e-01,9.99851e-01,5.85314e-01,9.99999e-01
4.692172475e-01,5.91353e-01,9.99999e-01,9.99999e-01,9.99684e-01,5.91539e-01,9.99999e-01
4.715633337e-01,5.97582e-01,9.99999e-01,9.99999e-01,9.99793e-01,5.97706e-01,9.99999e-01
4.739211504e-01,6.03694e-01,9.99999e-01,9.99999e-01,9.99802e-01,6.03813e-01,9.99999e-01
4.762907561e-01,6.09798e-01,9.99999e-01,9.99999e-01,9.99897e-01,6.09860e-01,9.99999e-01
4.786722099e-01,6.15820e-01,9.99999e-01,9.99999e-01,9.99957e-01,6.15846e-01,9.99999e-01
4.810655710e-01,6.21763e-01,9.99999e-01,9.99999e-01,9.99986e-01,6.21771e-01,9.99999e-01
4.834708988e-01,6.27558e-01,9.99999e-01,9.99999e-01,9.99876e-01,6.27635e-01,9.99999e-01
4.858882533e-01,6.33295e-01,9.99999e-01,9.99999e-01,9.99776e-01,6.33436e-01,9.99999e-01
4.883176946e-01,6.39055e-01,9.99999e-01,9.99999e-01,9.99812e-01,6.39175e-01,9.99999e-01
4.907592831e-01,6.44742e-01,9.99999e-01,9.99999e-01,9.99830e-01,6.44851e-01,9.99999e-01
4.932130795e-01,6.50385e-01,9.99999e-01,9.99999e-01,9.99879e-01,6.50463e-01,9.99999e-01
4.956791449e-01,6.55971e-01,9.99999e-01,9.99999e-01,9.99936e-01,6.56012e-01,9.99999e-01
4.981575406e-01,6.61287e-01,9.99999e-01,9.99999e-01,9.99681e-01,6.61498e-01,9.99999e-01
5.006483283e-01,6.66363e-01,9.99999e-01,9.99999e-01,9.99171e-01,6.66920e-01,9.99993e-01
5.031515699e-01,6.69447e-01,9.99999e-01,9.99999e-01,9.95832e-01,6.72277e-01,9.99955e-01
5.056673278e-01,6.76049e-01,9.99999e-01,9.99999e-01,9.97803e-01,6.77571e-01,9.99949e-01
5.081956644e-01,6.80889e-01,9.99999e-01,9.99999e-01,9.97231e-01,6.82800e-01,9.99969e-01
5.107366428e-01,6.86677e-01,9.99999e-01,9.99999e-01,9.98130e-01,6.87966e-01,9.99994e-01
5.132903260e-01,6.92327e-01,9.99999e-01,9.99999e-01,9.98932e-01,6.93067e-01,9.99998e-01
5.158567776e-01,6.97790e-01,9.99999e-01,9.99999e-01,9.99549e-01,6.98105e-01,9.99999e-01
5.184360615e-01,7.02951e-01,9.99999e-01,9.99999e-01,9.99819e-01,7.03078e-01,9.99999e-01
5.210282418e-01,7.07939e-01,9.99999e-01,9.99999e-01,9.99931e-01,7.07987e-01,9.99999e-01
5.236333830e-01,7.12638e-01,9.99999e-01,9.99999e-01,9.99727e-01,7.12833e-01,9.99997e-01
5.262515499e-01,7.17492e-01,9.99999e-01,9.99999e-01,9.99829e-01,7.17615e-01,9.99996e-01
5.288828077e-01,7.22220e-01,9.99999e-01,9.99999e-01,9.99843e-01,7.22334e-01,9.99997e-01
5.315272217e-01,7.26891e-01,9.99999e-01,9.99999e-01,9.99863e-01,7.26990e-01,9.99999e-01
5.341848578e-01,7.31517e-01,9.99999e-01,9.99999e-01,9.99909e-01,7.31583e-01,9.99999e-01
5.368557821e-01,7.35879e-01,9.99999e-01,9.99999e-01,9.99681e-01,7.36113e-01,9.99998e-01
5.395400610e-01,7.39721e-01,9.99999e-01,9.99999e-01,9.98848e-01,7.40581e-01,9.99988e-01
5.422377613e-01,7.43871e-01,9.99999e-01,9.99999e-01,9.98528e-01,7.44988e-01,9.99972e-01
5.449489501e-01,7.48280e-01,9.99999e-01,9.99999e-01,9.98623e-01,7.49332e-01,9.99971e-01
5.476736949e-01,7.52693e-01,9.99999e-01,9.99999e-01,9.98788e-01,7.53616e-01,9.99985e-01
5.504120634e-01,7.57169e-01,9.99999e-01,9.99999e-01,9.99120e-01,7.57838e-01,9.99995e-01
5.531641237e-01,7.61663e-01,9.99999e-01,9.99999e-01,9.99557e-01,7.62000e-01,9.99998e-01
5.559299443e-01,7.65939e-01,9.99999e-01,9.99999e-01,9.99786e-01,7.66102e-01,9.99999e-01
5.587095940e-01,7.70042e-01,9.99999e-01,9.99999e-01,9.99865e-01,7.70145e-01,9.99999e-01
5.615031420e-01,7.74012e-01,9.99999e-01,9.99999e-01,9.99850e-01,7.74128e-01,9.99999e-01
5.643106577e-01,7.77919e-01,9.99999e-01,9.99999e-01,9.99828e-01,7.78053e-01,9.99998e-01
5.671322110e-01,7.80273e-01,9.99999e-01,9.99999e-01,9.97912e-01,7.81919e-01,9.99981e-01
5.699678720e-01,7.83975e-01,9.99999e-01,9.99999e-01,9.97824e-01,7.85728e-01,9.99943e-01
5.728177114e-01,7.87639e-01,9.99999e-01,9.99999e-01,9.97714e-01,7.89480e-01,9.99952e-01
5.756818000e-01,7.91492e-01,9.99999e-01,9.99999e-01,9.97906e-01,7.93174e-01,9.99972e-01
5.785602090e-01,7.95355e-01,9.99999e-01,9.99999e-01,9.98177e-01,7.96813e-01,9.99991e-01
5.814530100e-01,7.98925e-01,9.99999e-01,9.99999e-01,9.98166e-01,8.00396e-01,9.99995e-01
5.843602750e-01,8.02148e-01,9.99999e-01,9.99999e-01,9.97802e-01,8.03924e-01,9.99987e-01
5.872820764e-01,7.92169e-01,9.99999e-01,9.99999e-01,9.81269e-01,8.07397e-01,9.99867e-01
5.902184868e-01,7.92240e-01,9.99999e-01,9.99999e-01,9.77442e-01,8.10816e-01,9.99638e-01
5.931695792e-01,8.00881e-01,9.99999e-01,9.99999e-01,9.84004e-01,8.14182e-01,9.99652e-01
5.961354271e-01,8.03018e-01,9.99999e-01,9.99999e-01,9.82486e-01,8.17494e-01,9.99800e-01
5.991161043e-01,8.10200e-01,9.99999e-01,9.99999e-01,9.87200e-01,8.20755e-01,9.99937e-01
6.021116848e-01,8.17963e-01,9.99999e-01,9.99999e-01,9.92724e-01,8.23963e-01,9.99992e-01
6.051222432e-01,8.24072e-01,9.99999e-01,9.99999e-01,9.96313e-01,8.27121e-01,9.99999e-01
6.081478544e-01,8.28905e-01,9.99999e-01,9.99999e-01,9.98407e-01,8.30227e-01,9.99999e-01
6.111885937e-01,8.32724e-01,9.99999e-01,9.99999e-01,9.99327e-01,8.33284e-01,9.99999e-01
6.142445367e-01,8.36040e-01,9.99999e-01,9.99999e-01,9.99698e-01,8.36291e-01,9.99999e-01
6.173157594e-01,8.39111e-01,9.99999e-01,9.99999e-01,9.99833e-01,8.39250e-01,9.99999e-01
6.204023382e-01,8.42041e-01,9.99999e-01,9.99999e-01,9.99858e-01,8.42160e-01,9.99999e-01
6.235043498e-01,8.44491e-01,9.99999e-01,9.99999e-01,9.99371e-01,8.45022e-01,9.99997e-01
6.266218716e-01,8.45036e-01,9.99999e-01,9.99999e-01,9.96717e-01,8.47838e-01,9.99976e-01
6.297549810e-01,8.49543e-01,9.99999e-01,9.99999e-01,9.98795e-01,8.50607e-01,9.99953e-01
6.329037559e-01,8.51272e-01,9.99999e-01,9.99999e-01,9.97624e-01,8.53330e-01,9.99962e-01
6.360682746e-01,8.54251e-01,9.99999e-01,9.99999e-01,9.97970e-01,8.56007e-01,9.99977e-01
6.392486160e-01,8.56378e-01,9.99999e-01,9.99999e-01,9.97374e-01,8.58640e-01,9.99989e-01
6.424448591e-01,8.58171e-01,9.99999e-01,9.99999e-01,9.96466e-01,8.61229e-01,9.99982e-01
6.456570834e-01,8.49620e-01,9.99999e-01,9.99999e-01,9.83710e-01,8.63774e-01,9.99900e-01
6.488853688e-01,8.55797e-01,9.99999e-01,9.99999e-01,9.88152e-01,8.66276e-01,9.99746e-01
6.521297956e-01,8.58075e-01,9.99999e-01,9.99999e-01,9.87933e-01,8.68736e-01,9.99790e-01
6.553904446e-01,8.60500e-01,9.99999e-01,9.99999e-01,9.87923e-01,8.71154e-01,9.99844e-01
6.586673968e-01,8.64479e-01,9.99999e-01,9.99999e-01,9.89688e-01,8.73531e-01,9.99947e-01
6.619607338e-01,8.70812e-01,9.99999e-01,9.99999e-01,9.94238e-01,8.75867e-01,9.99988e-01
6.652705375e-01,8.75118e-01,9.99999e-01,9.99999e-01,9.96538e-01,8.78163e-01,9.99993e-01
6.685968902e-01,8.79123e-01,9.99999e-01,9.99999e-01,9.98528e-01,8.80419e-01,9.99998e-01
6.719398746e-01,8.81979e-01,9.99999e-01,9.99999e-01,9.99254e-01,8.82637e-01,9.99999e-01
6.752995740e-01,8.84468e-01,9.99999e-01,9.99999e-01,9.99606e-01,8.84816e-01,9.99999e-01
6.786760719e-01,8.86434e-01,9.99999e-01,9.99999e-01,9.99410e-01,8.86957e-01,9.99998e-01
6.820694522e-01,8.88166e-01,9.99999e-01,9.99999e-01,9.98997e-01,8.89061e-01,9.99994e-01
6.854797995e-01,8.89966e-01,9.99999e-01,9.99999e-01,9.98705e-01,8.91129e-01,9.99988e-01
6.889071985e-01,8.90312e-01,9.99999e-01,9.99999e-01,9.96838e-01,8.93160e-01,9.99971e-01
6.923517345e-01,8.50259e-01,9.99999e-01,9.99999e-01,9.50076e-01,8.95156e-01,9.99754e-01
6.958134932e-01,8.73456e-01,9.99999e-01,9.99999e-01,9.74153e-01,8.97116e-01,9.99457e-01
6.992925606e-01,8.76121e-01,9.99999e-01,9.99999e-01,9.74980e-01,8.99042e-01,9.99511e-01
7.027890234e-01,8.73013e-01,9.99999e-01,9.99999e-01,9.69369e-01,9.00934e-01,9.99626e-01
7.063029686e-01,8.79283e-01,9.99999e-01,9.99999e-01,9.74139e-01,9.02792e-01,9.99814e-01
7.098344834e-01,8.82055e-01,9.99999e-01,9.99999e-01,9.75164e-01,9.04618e-01,9.99889e-01
7.133836558e-01,8.76185e-01,9.99999e-01,9.99999e-01,9.66863e-01,9.06411e-01,9.99781e-01
7.169505741e-01,6.96534e-01,9.99999e-01,9.99999e-01,7.68280e-01,9.08172e-01,9.98284e-01
7.205353270e-01,7.97846e-01,9.99999e-01,9.99999e-01,8.79507e-01,9.09901e-01,9.96975e-01
7.241380036e-01,7.70537e-01,9.99999e-01,9.99999e-01,8.47471e-01,9.11600e-01,9.97387e-01
7.277586936e-01,7.85061e-01,9.99999e-01,9.99999e-01,8.61456e-01,9.13268e-01,9.97864e-01
7.313974871e-01,7.79748e-01,9.99999e-01,9.99999e-01,8.53124e-01,9.14906e-01,9.98998e-01
7.350544745e-01,8.39679e-01,9.99999e-01,9.99999e-01,9.16483e-01,9.16514e-01,9.99651e-01
7.387297469e-01,8.60740e-01,9.99999e-01,9.99999e-01,9.37678e-01,9.18094e-01,9.99840e-01
7.424233956e-01,8.91120e-01,9.99999e-01,9.99999e-01,9.69008e-01,9.19645e-01,9.99971e-01
7.461355126e-01,9.03731e-01,9.99999e-01,9.99999e-01,9.81074e-01,9.21168e-01,9.99994e-01
7.498661902e-01,9.14507e-01,9.99999e-01,9.99999e-01,9.91162e-01,9.22663e-01,9.99997e-01
7.536155211e-01,9.20106e-01,9.99999e-01,9.99999e-01,9.95645e-01,9.24131e-01,9.99998e-01
7.573835987e-01,9.23497e-01,9.99999e-01,9.99999e-01,9.97756e-01,9.25573e-01,9.99999e-01
7.611705167e-01,9.25695e-01,9.99999e-01,9.99999e-01,9.98605e-01,9.26988e-01,9.99999e-01
7.649763693e-01,9.27565e-01,9.99999e-01,9.99999e-01,9.99124e-01,9.28377e-01,9.99999e-01
7.688012511e-01,9.29174e-01,9.99999e-01,9.99999e-01,9.99389e-01,9.29741e-01,9.99999e-01
7.726452574e-01,9.30612e-01,9.99999e-01,9.99999e-01,9.99497e-01,9.31080e-01,9.99999e-01
7.765084837e-01,9.31724e-01,9.99999e-01,9.99999e-01,9.99282e-01,9.32394e-01,9.99998e-01
7.803910261e-01,9.30786e-01,9.99999e-01,9.99999e-01,9.96899e-01,9.33684e-01,9.99996e-01
7.842929812e-01,9.24852e-01,9.99999e-01,9.99999e-01,9.89218e-01,9.34950e-01,9.99979e-01
7.882144461e-01,9.15497e-01,9.99999e-01,9.99999e-01,9.78041e-01,9.36193e-01,9.99847e-01
7.921555184e-01,9.25875e-01,9.99999e-01,9.99999e-01,9.87952e-01,9.37413e-01,9.99735e-01
7.961162960e-01,9.18325e-01,9.99999e-01,9.99999e-01,9.78633e-01,9.38611e-01,9.99748e-01
8.000968774e-01,9.16446e-01,9.99999e-01,9.99999e-01,9.75425e-01,9.39786e-01,9.99731e-01
8.040973618e-01,9.17610e-01,9.99999e-01,9.99999e-01,9.75404e-01,9.40939e-01,9.99795e-01
8.081178486e-01,8.90447e-01,9.99999e-01,9.99999e-01,9.45396e-01,9.42072e-01,9.99792e-01
8.121584379e-01,7.48119e-01,9.99999e-01,9.99999e-01,7.93807e-01,9.43183e-01,9.99216e-01
8.162192301e-01,7.18041e-01,9.99999e-01,9.99999e-01,7.62660e-01,9.44273e-01,9.97057e-01
8.203003262e-01,8.25212e-01,9.99999e-01,9.99999e-01,8.75939e-01,9.45343e-01,9.96555e-01
8.244018279e-01,7.89058e-01,9.99999e-01,9.99999e-01,8.36044e-01,9.46393e-01,9.97257e-01
8.285238370e-01,8.02403e-01,9.99999e-01,9.99999e-01,8.48759e-01,9.47424e-01,9.97845e-01
8.326664562e-01,8.03648e-01,9.99999e-01,9.99999e-01,8.48096e-01,9.48435e-01,9.99108e-01
8.368297885e-01,8.43041e-01,9.99999e-01,9.99999e-01,8.88127e-01,9.49427e-01,9.99795e-01
8.410139374e-01,8.85478e-01,9.99999e-01,9.99999e-01,9.31799e-01,9.50401e-01,9.99880e-01
8.452190071e-01,9.18874e-01,9.99999e-01,9.99999e-01,9.65925e-01,9.51356e-01,9.99928e-01
8.494451021e-01,9.33213e-01,9.99999e-01,9.99999e-01,9.80018e-01,9.52294e-01,9.99942e-01
8.536923276e-01,9.41901e-01,9.99999e-01,9.99999e-01,9.88166e-01,9.53214e-01,9.99964e-01
8.579607893e-01,9.47125e-01,9.99999e-01,9.99999e-01,9.92680e-01,9.54116e-01,9.99991e-01
8.622505932e-01,9.50562e-01,9.99999e-01,9.99999e-01,9.95351e-01,9.55002e-01,9.99998e-01
8.665618462e-01,9.53113e-01,9.99999e-01,9.99999e-01,9.97114e-01,9.55871e-01,9.99998e-01
8.708946554e-01,9.53557e-01,9.99999e-01,9.99999e-01,9.96691e-01,9.56723e-01,9.99997e-01
8.752491287e-01,9.53323e-01,9.99999e-01,9.99999e-01,9.95579e-01,9.57560e-01,9.99994e-01
8.796253743e-01,9.52493e-01,9.99999e-01,9.99999e-01,9.93869e-01,9.58380e-01,9.99985e-01
8.840235012e-01,9.52437e-01,9.99999e-01,9.99999e-01,9.93005e-01,9.59185e-01,9.99956e-01
8.884436187e-01,9.35469e-01,9.99999e-01,9.99999e-01,9.74589e-01,9.59975e-01,9.99878e-01
8.928858368e-01,7.37545e-01,9.99999e-01,9.99999e-01,7.68212e-01,9.60750e-01,9.99300e-01
8.973502660e-01,6.05207e-01,9.99999e-01,9.99999e-01,6.31694e-01,9.61510e-01,9.96421e-01
9.018370173e-01,7.57891e-01,9.99999e-01,9.99999e-01,7.92070e-01,9.62256e-01,9.94379e-01
9.063462024e-01,7.77467e-01,9.99999e-01,9.99999e-01,8.11355e-01,9.62988e-01,9.95060e-01
9.108779334e-01,6.93280e-01,9.99999e-01,9.99999e-01,7.23100e-01,9.63705e-01,9.94868e-01
9.154323231e-01,6.63156e-01,9.99999e-01,9.99999e-01,6.90559e-01,9.64409e-01,9.95756e-01
9.200094847e-01,7.22087e-01,9.99999e-01,9.99999e-01,7.49981e-01,9.65100e-01,9.97622e-01
9.246095321e-01,6.25908e-01,9.99999e-01,9.99999e-01,6.49867e-01,9.65777e-01,9.97261e-01
9.292325798e-01,7.83856e-02,9.99999e-01,9.99999e-01,8.21883e-02,9.66442e-01,9.86846e-01
9.338787427e-01,3.33524e-02,9.99999e-01,9.99999e-01,3.61779e-02,9.67093e-01,9.53268e-01
9.385481364e-01,2.36560e-01,9.99999e-01,9.99999e-01,2.57644e-01,9.67733e-01,9.48776e-01
9.432408771e-01,1.53130e-01,9.99999e-01,9.99999e-01,1.65472e-01,9.68360e-01,9.55650e-01
9.479570815e-01,7.31738e-02,9.99999e-01,9.99999e-01,7.83568e-02,9.68975e-01,9.63753e-01
9.526968669e-01,1.29930e-01,9.99999e-01,9.99999e-01,1.37058e-01,9.69578e-01,9.77732e-01
9.574603512e-01,1.42817e-01,9.99999e-01,9.99999e-01,1.48901e-01,9.70170e-01,9.88626e-01
9.622476530e-01,1.96887e-01,9.99999e-01,9.99999e-01,2.04429e-01,9.70751e-01,9.92121e-01
9.670588912e-01,3.80349e-01,9.99999e-01,9.99999e-01,3.93702e-01,9.71320e-01,9.94605e-01
9.718941857e-01,5.24617e-01,9.99999e-01,9.99999e-01,5.41950e-01,9.71879e-01,9.96025e-01
9.767536566e-01,5.82122e-01,9.99999e-01,9.99999e-01,6.00452e-01,9.72426e-01,9.96961e-01
9.816374249e-01,6.63958e-01,9.99999e-01,9.99999e-01,6.83126e-01,9.72964e-01,9.98947e-01
9.865456120e-01,7.66005e-01,9.99999e-01,9.99999e-01,7.87037e-01,9.73490e-01,9.99780e-01
9.914783401e-01,8.39333e-01,9.99999e-01,9.99999e-01,8.61783e-01,9.74007e-01,9.99938e-01
9.964357318e-01,8.98627e-01,9.99999e-01,9.99999e-01,9.22160e-01,9.74514e-01,9.99963e-01
1.001417910e+00,9.28697e-01,9.99999e-01,9.99999e-01,9.52550e-01,9.75011e-01,9.99945e-01
1.006425000e+00,9.48708e-01,9.99999e-01,9.99999e-01,9.72611e-01,9.75498e-01,9.99922e-01
1.011457125e+00,9.59264e-01,9.99999e-01,9.99999e-01,9.82946e-01,9.75977e-01,9.99927e-01
1.016514411e+00,9.65048e-01,9.99999e-01,9.99999e-01,9.88377e-01,9.76445e-01,9.99948e-01
1.021596983e+00,9.67796e-01,9.99999e-01,9.99999e-01,9.90723e-01,9.76905e-01,9.99949e-01
1.026704968e+00,9.70246e-01,9.99999e-01,9.99999e-01,9.92755e-01,9.77356e-01,9.99968e-01
1.031838492e+00,9.72645e-01,9.99999e-01,9.99999e-01,9.94738e-01,9.77798e-01,9.99990e-01
1.036997685e+00,9.75166e-01,9.99999e-01,9.99999e-01,9.96866e-01,9.78232e-01,9.99998e-01
1.042182673e+00,9.74992e-01,9.99999e-01,9.99999e-01,9.96254e-01,9.78657e-01,9.99998e-01
1.047393587e+00,9.74221e-01,9.99999e-01,9.99999e-01,9.95043e-01,9.79075e-01,9.99998e-01
1.052630555e+00,9.72819e-01,9.99999e-01,9.99999e-01,9.93197e-01,9.79484e-01,9.99997e-01
1.057893707e+00,9.68767e-01,9.99999e-01,9.99999e-01,9.88657e-01,9.79885e-01,9.99995e-01
1.063183176e+00,9.62062e-01,9.99999e-01,9.99999e-01,9.81426e-01,9.80278e-01,9.99989e-01
1.068499092e+00,9.50381e-01,9.99999e-01,9.99999e-01,9.69140e-01,9.80664e-01,9.99978e-01
1.073841587e+00,9.45685e-01,9.99999e-01,9.99999e-01,9.64003e-01,9.81042e-01,9.99953e-01
1.079210795e+00,9.36305e-01,9.99999e-01,9.99999e-01,9.54156e-01,9.81413e-01,9.99874e-01
1.084606849e+00,9.14214e-01,9.99999e-01,9.99999e-01,9.31463e-01,9.81777e-01,9.99698e-01
1.090029883e+00,8.86322e-01,9.99999e-01,9.99999e-01,9.03008e-01,9.82134e-01,9.99375e-01
1.095480033e+00,7.43915e-01,9.99999e-01,9.99999e-01,7.58033e-01,9.82483e-01,9.98870e-01
1.100957433e+00,4.92244e-01,9.99999e-01,9.99999e-01,5.01887e-01,9.82826e-01,9.97922e-01
1.106462220e+00,1.89664e-01,9.99999e-01,9.99999e-01,1.93594e-01,9.83163e-01,9.96479e-01
1.111994531e+00,3.50292e-02,9.99999e-01,9.99999e-01,3.59521e-02,9.83492e-01,9.90681e-01
1.117554504e+00,5.88440e-03,9.99999e-01,9.99999e-01,6.18682e-03,9.83816e-01,9.66762e-01
1.123142276e+00,3.04513e-02,9.99999e-01,9.99999e-01,3.35247e-02,9.84133e-01,9.22969e-01
1.128757988e+00,7.53176e-02,9.99999e-01,9.99999e-01,8.39416e-02,9.84444e-01,9.11438e-01
1.134401778e+00,3.64607e-02,9.99999e-01,9.99999e-01,4.00629e-02,9.84749e-01,9.24178e-01
1.140073787e+00,1.90882e-01,9.99999e-01,9.99999e-01,2.06380e-01,9.85048e-01,9.38943e-01
1.145774156e+00,4.92918e-02,9.99999e-01,9.99999e-01,5.29947e-02,9.85341e-01,9.43964e-01
1.151503026e+00,3.58465e-02,9.99999e-01,9.99999e-01,3.75565e-02,9.85628e-01,9.68385e-01
1.157260541e+00,4.70862e-02,9.99999e-01,9.99999e-01,4.82200e-02,9.85910e-01,9.90440e-01
1.163046844e+00,1.02347e-01,9.99999e-01,9.99999e-01,1.04063e-01,9.86187e-01,9.97280e-01
1.168862078e+00,1.90601e-01,9.99999e-01,9.99999e-01,1.93489e-01,9.86458e-01,9.98598e-01
1.174706389e+00,3.54451e-01,9.99999e-01,9.99999e-01,3.59888e-01,9.86723e-01,9.98142e-01
1.180579921e+00,5.24826e-01,9.99999e-01,9.99999e-01,5.33244e-01,9.86984e-01,9.97192e-01
1.186482820e+00,6.86465e-01,9.99999e-01,9.99999e-01,6.97346e-01,9.87239e-01,9.97118e-01
1.192415234e+00,7.97398e-01,9.99999e-01,9.99999e-01,8.09246e-01,9.87490e-01,9.97841e-01
1.198377311e+00,8.24634e-01,9.99999e-01,9.99999e-01,8.36579e-01,9.87735e-01,9.97960e-01
1.204369197e+00,8.33846e-01,9.99999e-01,9.99999e-01,8.45553e-01,9.87976e-01,9.98154e-01
1.210391043e+00,8.40321e-01,9.99999e-01,9.99999e-01,8.51300e-01,9.88212e-01,9.98877e-01
1.216442998e+00,8.61524e-01,9.99999e-01,9.99999e-01,8.72196e-01,9.88444e-01,9.99311e-01
1.222525213e+00,8.88078e-01,9.99999e-01,9.99999e-01,8.98638e-01,9.88670e-01,9.99572e-01
1.228637839e+00,9.17888e-01,9.99999e-01,9.99999e-01,9.28381e-01,9.88893e-01,9.99800e-01
