#,Wave/freq,Total,N2,O2,H2O,Rayleigh,CIA
4.000000000e-01,5.02053e-01,9.99999e-01,9.99999e-01,9.99921e-01,5.02092e-01,9.99999e-01
4.020000000e-01,5.08954e-01,9.99999e-01,9.99999e-01,9.99951e-01,5.08979e-01,9.99999e-01
4.040100000e-01,5.15803e-01,9.99999e-01,9.99999e-01,9.99979e-01,5.15814e-01,9.99999e-01
4.060300500e-01,5.22601e-01,9.99999e-01,9.99999e-01,9.99994e-01,5.22603e-01,9.99999e-01
4.080602003e-01,5.29344e-01,9.99999e-01,9.99999e-01,9.99997e-01,5.29345e-01,9.99999e-01
4.101005013e-01,5.36038e-01,9.99999e-01,9.99999e-01,9.99999e-01,5.36038e-01,9.99999e-01
4.121510038e-01,5.42680e-01,9.99999e-01,9.99999e-01,9.99996e-01,5.42681e-01,9.99999e-01
4.142117588e-01,5.49261e-01,9.99999e-01,9.99999e-01,9.99978e-01,5.49273e-01,9.99999e-01
4.162828176e-01,5.55759e-01,9.99999e-01,9.99999e-01,9.99903e-01,5.55812e-01,9.99999e-01
4.183642317e-01,5.62265e-01,9.99999e-01,9.99999e-01,9.99942e-01,5.62298e-01,9.99999e-01
4.204560528e-01,5.68709e-01,9.99999e-01,9.99999e-01,9.99964e-01,5.68729e-01,9.99999e-01
4.225583331e-01,5.75096e-01,9.99999e-01,9.99999e-01,9.99986e-01,5.75104e-01,9.99999e-01
4.246711247e-01,5.81416e-01,9.99999e-01,9.99999e-01,9.99989e-01,5.81423e-01,9.99999e-01
4.267944804e-01,5.87675e-01,9.99999e-01,9.99999e-01,9.99984e-01,5.87684e-01,9.99999e-01
4.289284528e-01,5.93880e-01,9.99999e-01,9.99999e-01,9.99987e-01,5.93887e-01,9.99999e-01
4.310730950e-01,6.00028e-01,9.99999e-01,9.99999e-01,9.99994e-01,6.00031e-01,9.99999e-01
4.332284605e-01,6.06114e-01,9.99999e-01,9.99999e-01,9.99998e-01,6.06115e-01,9.99999e-01
4.353946028e-01,6.12139e-01,9.99999e-01,9.99999e-01,9.99998e-01,6.12139e-01,9.99999e-01
4.375715758e-01,6.18097e-01,9.99999e-01,9.99999e-01,9.99990e-01,6.18102e-01,9.99999e-01
4.397594337e-01,6.23952e-01,9.99999e-01,9.99999e-01,9.99915e-01,6.24004e-01,9.99999e-01
4.419582309e-01,6.29577e-01,9.99999e-01,9.99999e-01,9.99574e-01,6.29844e-01,9.99999e-01
4.441680220e-01,6.35408e-01,9.99999e-01,9.99999e-01,9.99662e-01,6.35622e-01,9.99999e-01
4.463888621e-01,6.41113e-01,9.99999e-01,9.99999e-01,9.99650e-01,6.41337e-01,9.99999e-01
4.486208064e-01,6.46848e-01,9.99999e-01,9.99999e-01,9.99782e-01,6.46988e-01,9.99999e-01
4.508639105e-01,6.52511e-01,9.99999e-01,9.99999e-01,9.99897e-01,6.52577e-01,9.99999e-01
4.531182300e-01,6.58076e-01,9.99999e-01,9.99999e-01,9.99959e-01,6.58102e-01,9.99999e-01
4.553838212e-01,6.63545e-01,9.99999e-01,9.99999e-01,9.99972e-01,6.63563e-01,9.99999e-01
4.576607403e-01,6.68952e-01,9.99999e-01,9.99999e-01,9.99986e-01,6.68961e-01,9.99999e-01
4.599490440e-01,6.74288e-01,9.99999e-01,9.99999e-01,9.99990e-01,6.74294e-01,9.99999e-01
4.622487892e-01,6.79563e-01,9.99999e-01,9.99999e-01,9.99997e-01,6.79564e-01,9.99999e-01
4.645600332e-01,6.84765e-01,9.99999e-01,9.99999e-01,9.99993e-01,6.84769e-01,9.99999e-01
4.668828333e-01,6.89840e-01,9.99999e-01,9.99999e-01,9.99897e-01,6.89910e-01,9.99999e-01
4.692172475e-01,6.94835e-01,9.99999e-01,9.99999e-01,9.99780e-01,6.94987e-01,9.99999e-01
4.715633337e-01,6.99900e-01,9.99999e-01,9.99999e-01,9.99856e-01,7.00000e-01,9.99999e-01
4.739211504e-01,7.04852e-01,9.99999e-01,9.99999e-01,9.99862e-01,7.04949e-01,9.99999e-01
4.762907561e-01,7.09784e-01,9.99999e-01,9.99999e-01,9.99928e-01,7.09834e-01,9.99999e-01
4.786722099e-01,7.14635e-01,9.99999e-01,9.99999e-01,9.99970e-01,7.14656e-01,9.99999e-01
4.810655710e-01,7.19408e-01,9.99999e-01,9.99999e-01,9.99990e-01,7.19414e-01,9.99999e-01
4.834708988e-01,7.24049e-01,9.99999e-01,9.99999e-01,9.99917e-01,7.24109e-01,9.99999e-01
4.858882533e-01,7.28628e-01,9.99999e-01,9.99999e-01,9.99844e-01,7.28741e-01,9.99999e-01
4.883176946e-01,7.33215e-01,9.99999e-01,9.99999e-01,9.99870e-01,7.33310e-01,9.99999e-01
4.907592831e-01,7.37730e-01,9.99999e-01,9.99999e-01,9.99882e-01,7.37817e-01,9.99999e-01
4.932130795e-01,7.42200e-01,9.99999e-01,9.99999e-01,9.99916e-01,7.42261e-01,9.99999e-01
4.956791449e-01,7.46611e-01,9.99999e-01,9.99999e-01,9.99955e-01,7.46644e-01,9.99999e-01
4.981575406e-01,7.50801e-01,9.99999e-01,9.99999e-01,9.99780e-01,7.50965e-01,9.99999e-01
5.006483283e-01,7.54796e-01,9.99999e-01,9.99999e-01,9.99433e-01,7.55226e-01,9.99995e-01
5.031515699e-01,7.57214e-01,9.99999e-01,9.99999e-01,9.97118e-01,7.59425e-01,9.99969e-01
5.056673278e-01,7.62374e-01,9.99999e-01,9.99999e-01,9.98474e-01,7.63564e-01,9.99964e-01
5.081956644e-01,7.66150e-01,9.99999e-01,9.99999e-01,9.98075e-01,7.67644e-01,9.99977e-01
5.107366428e-01,7.70657e-01,9.99999e-01,9.99999e-01,9.98699e-01,7.71664e-01,9.99995e-01
5.132903260e-01,7.75047e-01,9.99999e-01,9.99999e-01,9.99255e-01,7.75625e-01,9.99999e-01
5.158567776e-01,7.79282e-01,9.99999e-01,9.99999e-01,9.99684e-01,7.79527e-01,9.99999e-01
5.184360615e-01,7.83273e-01,9.99999e-01,9.99999e-01,9.99873e-01,7.83372e-01,9.99999e-01
5.210282418e-01,7.87122e-01,9.99999e-01,9.99999e-01,9.99952e-01,7.87159e-01,9.99999e-01
5.236333830e-01,7.90739e-01,9.99999e-01,9.99999e-01,9.99811e-01,7.90889e-01,9.99998e-01
5.262515499e-01,7.94467e-01,9.99999e-01,9.99999e-01,9.99881e-01,7.94562e-01,9.99997e-01
5.288828077e-01,7.98093e-01,9.99999e-01,9.99999e-01,9.99891e-01,7.98179e-01,9.99998e-01
5.315272217e-01,8.01665e-01,9.99999e-01,9.99999e-01,9.99904e-01,8.01741e-01,9.99999e-01
5.341848578e-01,8.05199e-01,9.99999e-01,9.99999e-01,9.99937e-01,8.05248e-01,9.99999e-01
5.368557821e-01,8.08524e-01,9.99999e-01,9.99999e-01,9.99781e-01,8.08701e-01,9.99999e-01
5.395400610e-01,8.11457e-01,9.99999e-01,9.99999e-01,9.99214e-01,8.12100e-01,9.99993e-01
5.422377613e-01,8.14595e-01,9.99999e-01,9.99999e-01,9.98975e-01,8.15445e-01,9.99981e-01
5.449489501e-01,8.17946e-01,9.99999e-01,9.99999e-01,9.99051e-01,8.18738e-01,9.99980e-01
5.476736949e-01,8.21277e-01,9.99999e-01,9.99999e-01,9.99155e-01,8.21979e-01,9.99990e-01
5.504120634e-01,8.24660e-01,9.99999e-01,9.99999e-01,9.99387e-01,8.25168e-01,9.99996e-01
5.531641237e-01,8.28050e-01,9.99999e-01,9.99999e-01,9.99691e-01,8.28306e-01,9.99999e-01
5.559299443e-01,8.31270e-01,9.99999e-01,9.99999e-01,9.99850e-01,8.31394e-01,9.99999e-01
5.587095940e-01,8.34354e-01,9.99999e-01,9.99999e-01,9.99906e-01,8.34432e-01,9.99999e-01
5.615031420e-01,8.37333e-01,9.99999e-01,9.99999e-01,9.99895e-01,8.37420e-01,9.99999e-01
5.643106577e-01,8.40262e-01,9.99999e-01,9.99999e-01,9.99883e-01,8.40360e-01,9.99998e-01
5.671322110e-01,8.42054e-01,9.99999e-01,9.99999e-01,9.98590e-01,8.43252e-01,9.99986e-01
5.699678720e-01,8.44772e-01,9.99999e-01,9.99999e-01,9.98472e-01,8.46097e-01,9.99960e-01
5.728177114e-01,8.47527e-01,9.99999e-01,9.99999e-01,9.98420e-01,8.48894e-01,9.99967e-01
5.756818000e-01,8.50393e-01,9.99999e-01,9.99999e-01,9.98548e-01,8.51646e-01,9.99979e-01
5.785602090e-01,8.53264e-01,9.99999e-01,9.99999e-01,9.98732e-01,8.54351e-01,9.99993e-01
5.814530100e-01,8.55921e-01,9.99999e-01,9.99999e-01,9.98729e-01,8.57012e-01,9.99996e-01
5.843602750e-01,8.58327e-01,9.99999e-01,9.99999e-01,9.98494e-01,8.59628e-01,9.99991e-01
5.872820764e-01,8.50995e-01,9.99999e-01,9.99999e-01,9.87094e-01,8.62200e-01,9.99907e-01
5.902184868e-01,8.50907e-01,9.99999e-01,9.99999e-01,9.84261e-01,8.64729e-01,9.99749e-01
5.931695792e-01,8.57374e-01,9.99999e-01,9.99999e-01,9.88892e-01,8.67215e-01,9.99756e-01
5.961354271e-01,8.58925e-01,9.99999e-01,9.99999e-01,9.87802e-01,8.69659e-01,9.99852e-01
5.991161043e-01,8.64246e-01,9.99999e-01,9.99999e-01,9.91080e-01,8.72061e-01,9.99956e-01
6.021116848e-01,8.69981e-01,9.99999e-01,9.99999e-01,9.94925e-01,8.74422e-01,9.99994e-01
6.051222432e-01,8.74488e-01,9.99999e-01,9.99999e-01,9.97428e-01,8.76743e-01,9.99999e-01
6.081478544e-01,8.78049e-01,9.99999e-01,9.99999e-01,9.98890e-01,8.79024e-01,9.99999e-01
6.111885937e-01,8.80851e-01,9.99999e-01,9.99999e-01,9.99529e-01,8.81266e-01,9.99999e-01
6.142445367e-01,8.83283e-01,9.99999e-01,9.99999e-01,9.99789e-01,8.83468e-01,9.99999e-01
6.173157594e-01,8.85531e-01,9.99999e-01,9.99999e-01,9.99884e-01,8.85633e-01,9.99999e-01
6.204023382e-01,8.87674e-01,9.99999e-01,9.99999e-01,9.99902e-01,8.87760e-01,9.99999e-01
6.235043498e-01,8.89472e-01,9.99999e-01,9.99999e-01,9.99574e-01,8.89851e-01,9.99998e-01
6.266218716e-01,8.89862e-01,9.99999e-01,9.99999e-01,9.97726e-01,8.91904e-01,9.99983e-01
6.297549810e-01,8.93148e-01,9.99999e-01,9.99999e-01,9.99165e-01,8.93922e-01,9.99967e-01
6.329037559e-01,8.94401e-01,9.99999e-01,9.99999e-01,9.98347e-01,8.95904e-01,9.99973e-01
6.360682746e-01,8.96579e-01,9.99999e-01,9.99999e-01,9.98597e-01,8.97851e-01,9.99984e-01
6.392486160e-01,8.98121e-01,9.99999e-01,9.99999e-01,9.98179e-01,8.99764e-01,9.99992e-01
6.424448591e-01,8.99451e-01,9.99999e-01,9.99999e-01,9.97578e-01,9.01643e-01,9.99988e-01
6.456570834e-01,8.93319e-01,9.99999e-01,9.99999e-01,9.88804e-01,9.03489e-01,9.99936e-01
6.488853688e-01,8.96390e-01,9.99999e-01,9.99999e-01,9.90329e-01,9.05302e-01,9.99824e-01
6.521297956e-01,8.99312e-01,9.99999e-01,9.99999e-01,9.91578e-01,9.07083e-01,9.99852e-01
6.553904446e-01,9.01162e-01,9.99999e-01,9.99999e-01,9.91670e-01,9.08832e-01,9.99889e-01
6.586673968e-01,9.03970e-01,9.99999e-01,9.99999e-01,9.92809e-01,9.10550e-01,9.99963e-01
6.619607338e-01,9.08432e-01,9.99999e-01,9.99999e-01,9.95836e-01,9.12236e-01,9.99991e-01
6.652705375e-01,9.11682e-01,9.99999e-01,9.99999e-01,9.97583e-01,9.13893e-01,9.99995e-01
6.685968902e-01,9.14492e-01,9.99999e-01,9.99999e-01,9.98877e-01,9.15520e-01,9.99998e-01
6.719398746e-01,9.16640e-01,9.99999e-01,9.99999e-01,9.99478e-01,9.17117e-01,9.99999e-01
6.752995740e-01,9.18428e-01,9.99999e-01,9.99999e-01,9.99718e-01,9.18686e-01,9.99999e-01
6.786760719e-01,9.19854e-01,9.99999e-01,9.99999e-01,9.99595e-01,9.20226e-01,9.99998e-01
6.820694522e-01,9.21096e-01,9.99999e-01,9.99999e-01,9.99306e-01,9.21739e-01,9.99995e-01
6.854797995e-01,9.22392e-01,9.99999e-01,9.99999e-01,9.99106e-01,9.23224e-01,9.99991e-01
6.889071985e-01,9.22685e-01,9.99999e-01,9.99999e-01,9.97859e-01,9.24682e-01,9.99980e-01
6.923517345e-01,8.93910e-01,9.99999e-01,9.99999e-01,9.65391e-01,9.26113e-01,9.99830e-01
6.958134932e-01,9.10124e-01,9.99999e-01,9.99999e-01,9.81622e-01,9.27518e-01,9.99616e-01
6.992925606e-01,9.12549e-01,9.99999e-01,9.99999e-01,9.82730e-01,9.28898e-01,9.99662e-01
7.027890234e-01,9.10111e-01,9.99999e-01,9.99999e-01,9.78601e-01,9.30252e-01,9.99741e-01
7.063029686e-01,9.14676e-01,9.99999e-01,9.99999e-01,9.81979e-01,9.31581e-01,9.99870e-01
7.098344834e-01,9.16677e-01,9.99999e-01,9.99999e-01,9.82698e-01,9.32886e-01,9.99923e-01
7.133836558e-01,9.12774e-01,9.99999e-01,9.99999e-01,9.77246e-01,9.34167e-01,9.99848e-01
7.169505741e-01,7.77827e-01,9.99999e-01,9.99999e-01,8.32512e-01,9.35425e-01,9.98810e-01
7.205353270e-01,8.53189e-01,9.99999e-01,9.99999e-01,9.12798e-01,9.36659e-01,9.97903e-01
7.241380036e-01,8.34486e-01,9.99999e-01,9.99999e-01,8.91380e-01,9.37870e-01,9.98189e-01
7.277586936e-01,8.45228e-01,9.99999e-01,9.99999e-01,9.01413e-01,9.39059e-01,9.98519e-01
7.313974871e-01,8.40620e-01,9.99999e-01,9.99999e-01,8.94681e-01,9.40226e-01,9.99305e-01
7.350544745e-01,8.85592e-01,9.99999e-01,9.99999e-01,9.40972e-01,9.41372e-01,9.99758e-01
7.387297469e-01,9.01035e-01,9.99999e-01,9.99999e-01,9.56114e-01,9.42496e-01,9.99889e-01
7.424233956e-01,9.23038e-01,9.99999e-01,9.99999e-01,9.78230e-01,9.43599e-01,9.99978e-01
7.461355126e-01,9.32175e-01,9.99999e-01,9.99999e-01,9.86763e-01,9.44682e-01,9.99995e-01
7.498661902e-01,9.39884e-01,9.99999e-01,9.99999e-01,9.93804e-01,9.45744e-01,9.99998e-01
7.536155211e-01,9.43911e-01,9.99999e-01,9.99999e-01,9.96962e-01,9.46787e-01,9.99998e-01
7.573835987e-01,9.46327e-01,9.99999e-01,9.99999e-01,9.98434e-01,9.47810e-01,9.99999e-01
7.611705167e-01,9.47891e-01,9.99999e-01,9.99999e-01,9.99027e-01,9.48814e-01,9.99999e-01
7.649763693e-01,9.49221e-01,9.99999e-01,9.99999e-01,9.99390e-01,9.49799e-01,9.99999e-01
7.688012511e-01,9.50363e-01,9.99999e-01,9.99999e-01,9.99575e-01,9.50766e-01,9.99999e-01
7.726452574e-01,9.51383e-01,9.99999e-01,9.99999e-01,9.99651e-01,9.51714e-01,9.99999e-01
7.765084837e-01,9.52176e-01,9.99999e-01,9.99999e-01,9.99507e-01,9.52645e-01,9.99998e-01
7.803910261e-01,9.51530e-01,9.99999e-01,9.99999e-01,9.97874e-01,9.53558e-01,9.99997e-01
7.842929812e-01,9.47381e-01,9.99999e-01,9.99999e-01,9.92601e-01,9.54455e-01,9.99985e-01
7.882144461e-01,9.40652e-01,9.99999e-01,9.99999e-01,9.84723e-01,9.55334e-01,9.99905e-01
7.921555184e-01,9.47964e-01,9.99999e-01,9.99999e-01,9.91569e-01,9.56196e-01,9.99817e-01
7.961162960e-01,9.42772e-01,9.99999e-01,9.99999e-01,9.85259e-01,9.57043e-01,9.99825e-01
8.000968774e-01,9.41329e-01,9.99999e-01,9.99999e-01,9.82910e-01,9.57873e-01,9.99814e-01
8.040973618e-01,9.42181e-01,9.99999e-01,9.99999e-01,9.82926e-01,9.58688e-01,9.99852e-01
8.081178486e-01,9.23068e-01,9.99999e-01,9.99999e-01,9.62175e-01,9.59487e-01,9.99861e-01
8.121584379e-01,8.18005e-01,9.99999e-01,9.99999e-01,8.52310e-01,9.60271e-01,9.99456e-01
8.162192301e-01,7.92694e-01,9.99999e-01,9.99999e-01,8.26514e-01,9.61040e-01,9.97959e-01
8.203003262e-01,8.75144e-01,9.99999e-01,9.99999e-01,9.12085e-01,9.61795e-01,9.97611e-01
8.244018279e-01,8.44165e-01,9.99999e-01,9.99999e-01,8.78692e-01,9.62535e-01,9.98098e-01
8.285238370e-01,8.58337e-01,9.99999e-01,9.99999e-01,8.92405e-01,9.63262e-01,9.98506e-01
8.326664562e-01,8.58568e-01,9.99999e-01,9.99999e-01,8.91204e-01,9.63974e-01,9.99381e-01
8.368297885e-01,8.87854e-01,9.99999e-01,9.99999e-01,9.20497e-01,9.64673e-01,9.99858e-01
8.410139374e-01,9.18843e-01,9.99999e-01,9.99999e-01,9.51893e-01,9.65358e-01,9.99916e-01
8.452190071e-01,9.42872e-01,9.99999e-01,9.99999e-01,9.76074e-01,9.66031e-01,9.99950e-01
8.494451021e-01,9.53195e-01,9.99999e-01,9.99999e-01,9.86078e-01,9.66691e-01,9.99959e-01
8.536923276e-01,9.59310e-01,9.99999e-01,9.99999e-01,9.91726e-01,9.67338e-01,9.99973e-01
8.579607893e-01,9.63037e-01,9.99999e-01,9.99999e-01,9.94907e-01,9.67972e-01,9.99992e-01
8.622505932e-01,9.65453e-01,9.99999e-01,9.99999e-01,9.96757e-01,9.68595e-01,9.99998e-01
8.665618462e-01,9.67265e-01,9.99999e-01,9.99999e-01,9.97997e-01,9.69206e-01,9.99998e-01
8.708946554e-01,9.67584e-01,9.99999e-01,9.99999e-01,9.97711e-01,9.69804e-01,9.99998e-01
8.752491287e-01,9.67417e-01,9.99999e-01,9.99999e-01,9.96937e-01,9.70392e-01,9.99996e-01
8.796253743e-01,9.66853e-01,9.99999e-01,9.99999e-01,9.95770e-01,9.70968e-01,9.99990e-01
8.840235012e-01,9.66811e-01,9.99999e-01,9.99999e-01,9.95167e-01,9.71533e-01,9.99970e-01
8.884436187e-01,9.55241e-01,9.99999e-01,9.99999e-01,9.82751e-01,9.72088e-01,9.99915e-01
8.928858368e-01,8.09831e-01,9.99999e-01,9.99999e-01,8.33021e-01,9.72631e-01,9.99515e-01
8.973502660e-01,7.02427e-01,9.99999e-01,9.99999e-01,7.23591e-01,9.73165e-01,9.97518e-01
9.018370173e-01,8.21626e-01,9.99999e-01,9.99999e-01,8.47130e-01,9.73688e-01,9.96101e-01
9.063462024e-01,8.39729e-01,9.99999e-01,9.99999e-01,8.64929e-01,9.74201e-01,9.96574e-01
9.108779334e-01,7.74123e-01,9.99999e-01,9.99999e-01,7.97049e-01,9.74704e-01,9.96440e-01
9.154323231e-01,7.50378e-01,9.99999e-01,9.99999e-01,7.71733e-01,9.75197e-01,9.97057e-01
9.200094847e-01,7.95527e-01,9.99999e-01,9.99999e-01,8.16700e-01,9.75681e-01,9.98351e-01
9.246095321e-01,7.20918e-01,9.99999e-01,9.99999e-01,7.39932e-01,9.76156e-01,9.98101e-01
9.292325798e-01,1.49616e-01,9.99999e-01,9.99999e-01,1.54337e-01,9.76621e-01,9.92616e-01
9.338787427e-01,8.17398e-02,9.99999e-01,9.99999e-01,8.62600e-02,9.77077e-01,9.69827e-01
9.385481364e-01,3.47010e-01,9.99999e-01,9.99999e-01,3.68162e-01,9.77525e-01,9.64218e-01
9.432408771e-01,2.52925e-01,9.99999e-01,9.99999e-01,2.66882e-01,9.77964e-01,9.69053e-01
9.479570815e-01,1.50924e-01,9.99999e-01,9.99999e-01,1.58254e-01,9.78395e-01,9.74740e-01
9.526968669e-01,2.29268e-01,9.99999e-01,9.99999e-01,2.37913e-01,9.78817e-01,9.84516e-01
9.574603512e-01,2.46128e-01,9.99999e-01,9.99999e-01,2.53349e-01,9.79231e-01,9.92104e-01
9.622476530e-01,3.10872e-01,9.99999e-01,9.99999e-01,3.19078e-01,9.79637e-01,9.94533e-01
9.670588912e-01,5.01805e-01,9.99999e-01,9.99999e-01,5.13950e-01,9.80035e-01,9.96258e-01
9.718941857e-01,6.36560e-01,9.99999e-01,9.99999e-01,6.51062e-01,9.80425e-01,9.97244e-01
9.767536566e-01,6.84976e-01,9.99999e-01,9.99999e-01,6.99853e-01,9.80808e-01,9.97893e-01
9.816374249e-01,7.51047e-01,9.99999e-01,9.99999e-01,7.66008e-01,9.81184e-01,9.99270e-01
9.865456120e-01,8.30277e-01,9.99999e-01,9.99999e-01,8.46009e-01,9.81552e-01,9.99847e-01
9.914783401e-01,8.85234e-01,9.99999e-01,9.99999e-01,9.01577e-01,9.81913e-01,9.99957e-01
9.964357318e-01,9.28331e-01,9.99999e-01,9.99999e-01,9.45113e-01,9.82267e-01,9.99974e-01
1.001417910e+00,9.49864e-01,9.99999e-01,9.99999e-01,9.66706e-01,9.82614e-01,9.99961e-01
1.006425000e+00,9.64132e-01,9.99999e-01,9.99999e-01,9.80903e-01,9.82955e-01,9.99945e-01
1.011457125e+00,9.71525e-01,9.99999e-01,9.99999e-01,9.88085e-01,9.83289e-01,9.99949e-01
1.016514411e+00,9.75619e-01,9.99999e-01,9.99999e-01,9.91903e-01,9.83616e-01,9.99964e-01
1.021596983e+00,9.77554e-01,9.99999e-01,9.99999e-01,9.93547e-01,9.83937e-01,9.99964e-01
1.026704968e+00,9.79274e-01,9.99999e-01,9.99999e-01,9.94965e-01,9.84252e-01,9.99975e-01
1.031838492e+00,9.80945e-01,9.99999e-01,9.99999e-01,9.96334e-01,9.84560e-01,9.99993e-01
1.036997685e+00,9.82720e-01,9.99999e-01,9.99999e-01,9.97824e-01,9.84863e-01,9.99998e-01
1.042182673e+00,9.82611e-01,9.99999e-01,9.99999e-01,9.97412e-01,9.85160e-01,9.99999e-01
1.047393587e+00,9.82066e-01,9.99999e-01,9.99999e-01,9.96565e-01,9.85451e-01,9.99998e-01
1.052630555e+00,9.81096e-01,9.99999e-01,9.99999e-01,9.95293e-01,9.85736e-01,9.99998e-01
1.057893707e+00,9.78287e-01,9.99999e-01,9.99999e-01,9.92163e-01,9.86016e-01,9.99996e-01
1.063183176e+00,9.73590e-01,9.99999e-01,9.99999e-01,9.87129e-01,9.86290e-01,9.99992e-01
1.068499092e+00,9.65361e-01,9.99999e-01,9.99999e-01,9.78527e-01,9.86559e-01,9.99984e-01
1.073841587e+00,9.62100e-01,9.99999e-01,9.99999e-01,9.74977e-01,9.86823e-01,9.99967e-01
1.079210795e+00,9.55364e-01,9.99999e-01,9.99999e-01,9.67951e-01,9.87081e-01,9.99912e-01
1.084606849e+00,9.39738e-01,9.99999e-01,9.99999e-01,9.51990e-01,9.87335e-01,9.99790e-01
1.090029883e+00,9.20187e-01,9.99999e-01,9.99999e-01,9.32158e-01,9.87583e-01,9.99566e-01
1.095480033e+00,8.15074e-01,9.99999e-01,9.99999e-01,8.25763e-01,9.87827e-01,9.99217e-01
1.100957433e+00,6.10492e-01,9.99999e-01,9.99999e-01,6.18756e-01,9.88066e-01,9.98559e-01
1.106462220e+00,3.07030e-01,9.99999e-01,9.99999e-01,3.11424e-01,9.88300e-01,9.97558e-01
1.111994531e+00,8.98293e-02,9.99999e-01,9.99999e-01,9.14630e-02,9.88530e-01,9.93532e-01
1.117554504e+00,2.33500e-02,9.99999e-01,9.99999e-01,2.41752e-02,9.88755e-01,9.76848e-01
1.123142276e+00,7.36811e-02,9.99999e-01,9.99999e-01,7.87578e-02,9.88976e-01,9.45966e-01
1.128757988e+00,1.55771e-01,9.99999e-01,9.99999e-01,1.67924e-01,9.89193e-01,9.37761e-01
1.134401778e+00,6.88020e-02,9.99999e-01,9.99999e-01,7.34440e-02,9.89405e-01,9.46825e-01
1.140073787e+00,3.09601e-01,9.99999e-01,9.99999e-01,3.26811e-01,9.89613e-01,9.57282e-01
1.145774156e+00,1.09433e-01,9.99999e-01,9.99999e-01,1.15066e-01,9.89817e-01,9.60826e-01
1.151503026e+00,8.86859e-02,9.99999e-01,9.99999e-01,9.15966e-02,9.90018e-01,9.77983e-01
1.157260541e+00,1.13577e-01,9.99999e-01,9.99999e-01,1.15465e-01,9.90214e-01,9.93365e-01
1.163046844e+00,1.96650e-01,9.99999e-01,9.99999e-01,1.98930e-01,9.90406e-01,9.98114e-01
1.168862078e+00,3.09996e-01,9.99999e-01,9.99999e-01,3.13243e-01,9.90595e-01,9.99028e-01
1.174706389e+00,4.82092e-01,9.99999e-01,9.99999e-01,4.87205e-01,9.90780e-01,9.98712e-01
1.180579921e+00,6.36204e-01,9.99999e-01,9.99999e-01,6.43259e-01,9.90961e-01,9.98053e-01
1.186482820e+00,7.69341e-01,9.99999e-01,9.99999e-01,7.77772e-01,9.91139e-01,9.98002e-01
1.192415234e+00,8.54445e-01,9.99999e-01,9.99999e-01,8.63224e-01,9.91313e-01,9.98503e-01
1.198377311e+00,8.74849e-01,9.99999e-01,9.99999e-01,8.83612e-01,9.91484e-01,9.98586e-01
1.204369197e+00,8.81280e-01,9.99999e-01,9.99999e-01,8.89837e-01,9.91651e-01,9.98720e-01
1.210391043e+00,8.86128e-01,9.99999e-01,9.99999e-01,8.94135e-01,9.91815e-01,9.99221e-01
1.216442998e+00,9.01359e-01,9.99999e-01,9.99999e-01,9.09082e-01,9.91976e-01,9.99522e-01
1.222525213e+00,9.20800e-01,9.99999e-01,9.99999e-01,9.28374e-01,9.92134e-01,9.99703e-01
1.228637839e+00,9.42250e-01,9.99999e-01,9.99999e-01,9.49702e-01,9.92289e-01,9.99861e-01
