#,Wave/freq,Total,N2,O2,H2O,Rayleigh,CIA
4.000000000e-01,8.65807e-01,9.99999e-01,9.99999e-01,9.99983e-01,8.65821e-01,9.99999e-01
4.020000000e-01,8.68283e-01,9.99999e-01,9.99999e-01,9.99989e-01,8.68291e-01,9.99999e-01
4.040100000e-01,8.70713e-01,9.99999e-01,9.99999e-01,9.99995e-01,8.70717e-01,9.99999e-01
4.060300500e-01,8.73100e-01,9.99999e-01,9.99999e-01,9.99998e-01,8.73101e-01,9.99999e-01
4.080602003e-01,8.75444e-01,9.99999e-01,9.99999e-01,9.99999e-01,8.75445e-01,9.99999e-01
4.101005013e-01,8.77748e-01,9.99999e-01,9.99999e-01,9.99999e-01,8.77748e-01,9.99999e-01
4.121510038e-01,8.80011e-01,9.99999e-01,9.99999e-01,9.99998e-01,8.80012e-01,9.99999e-01
4.142117588e-01,8.82232e-01,9.99999e-01,9.99999e-01,9.99995e-01,8.82236e-01,9.99999e-01
4.162828176e-01,8.84405e-01,9.99999e-01,9.99999e-01,9.99979e-01,8.84422e-01,9.99999e-01
4.183642317e-01,8.86560e-01,9.99999e-01,9.99999e-01,9.99987e-01,8.86571e-01,9.99999e-01
4.204560528e-01,8.88675e-01,9.99999e-01,9.99999e-01,9.99992e-01,8.88681e-01,9.99999e-01
4.225583331e-01,8.90753e-01,9.99999e-01,9.99999e-01,9.99996e-01,8.90755e-01,9.99999e-01
4.246711247e-01,8.92791e-01,9.99999e-01,9.99999e-01,9.99997e-01,8.92793e-01,9.99999e-01
4.267944804e-01,8.94792e-01,9.99999e-01,9.99999e-01,9.99996e-01,8.94795e-01,9.99999e-01
4.289284528e-01,8.96760e-01,9.99999e-01,9.99999e-01,9.99997e-01,8.96762e-01,9.99999e-01
4.310730950e-01,8.98693e-01,9.99999e-01,9.99999e-01,9.99998e-01,8.98694e-01,9.99999e-01
4.332284605e-01,9.00592e-01,9.99999e-01,9.99999e-01,9.99999e-01,9.00592e-01,9.99999e-01
4.353946028e-01,9.02457e-01,9.99999e-01,9.99999e-01,9.99999e-01,9.02457e-01,9.99999e-01
4.375715758e-01,9.04286e-01,9.99999e-01,9.99999e-01,9.99997e-01,9.04288e-01,9.99999e-01
4.397594337e-01,9.06071e-01,9.99999e-01,9.99999e-01,9.99981e-01,9.06087e-01,9.99999e-01
4.419582309e-01,9.07773e-01,9.99999e-01,9.99999e-01,9.99910e-01,9.07854e-01,9.99999e-01
4.441680220e-01,9.09525e-01,9.99999e-01,9.99999e-01,9.99929e-01,9.09589e-01,9.99999e-01
4.463888621e-01,9.11227e-01,9.99999e-01,9.99999e-01,9.99926e-01,9.11293e-01,9.99999e-01
4.486208064e-01,9.12925e-01,9.99999e-01,9.99999e-01,9.99954e-01,9.12967e-01,9.99999e-01
4.508639105e-01,9.14591e-01,9.99999e-01,9.99999e-01,9.99978e-01,9.14610e-01,9.99999e-01
4.531182300e-01,9.16216e-01,9.99999e-01,9.99999e-01,9.99991e-01,9.16224e-01,9.99999e-01
4.553838212e-01,9.17804e-01,9.99999e-01,9.99999e-01,9.99993e-01,9.17809e-01,9.99999e-01
4.576607403e-01,9.19363e-01,9.99999e-01,9.99999e-01,9.99996e-01,9.19365e-01,9.99999e-01
4.599490440e-01,9.20891e-01,9.99999e-01,9.99999e-01,9.99997e-01,9.20893e-01,9.99999e-01
4.622487892e-01,9.22393e-01,9.99999e-01,9.99999e-01,9.99999e-01,9.22393e-01,9.99999e-01
4.645600332e-01,9.23865e-01,9.99999e-01,9.99999e-01,9.99998e-01,9.23866e-01,9.99999e-01
4.668828333e-01,9.25293e-01,9.99999e-01,9.99999e-01,9.99978e-01,9.25312e-01,9.99999e-01
4.692172475e-01,9.26690e-01,9.99999e-01,9.99999e-01,9.99953e-01,9.26732e-01,9.99999e-01
4.715633337e-01,9.28098e-01,9.99999e-01,9.99999e-01,9.99969e-01,9.28126e-01,9.99999e-01
4.739211504e-01,9.29468e-01,9.99999e-01,9.99999e-01,9.99970e-01,9.29494e-01,9.99999e-01
4.762907561e-01,9.30824e-01,9.99999e-01,9.99999e-01,9.99984e-01,9.30838e-01,9.99999e-01
4.786722099e-01,9.32151e-01,9.99999e-01,9.99999e-01,9.99993e-01,9.32156e-01,9.99999e-01
4.810655710e-01,9.33449e-01,9.99999e-01,9.99999e-01,9.99997e-01,9.33451e-01,9.99999e-01
4.834708988e-01,9.34705e-01,9.99999e-01,9.99999e-01,9.99982e-01,9.34721e-01,9.99999e-01
4.858882533e-01,9.35938e-01,9.99999e-01,9.99999e-01,9.99967e-01,9.35969e-01,9.99999e-01
4.883176946e-01,9.37168e-01,9.99999e-01,9.99999e-01,9.99972e-01,9.37193e-01,9.99999e-01
4.907592831e-01,9.38371e-01,9.99999e-01,9.99999e-01,9.99974e-01,9.38394e-01,9.99999e-01
4.932130795e-01,9.39557e-01,9.99999e-01,9.99999e-01,9.99982e-01,9.39574e-01,9.99999e-01
4.956791449e-01,9.40723e-01,9.99999e-01,9.99999e-01,9.99990e-01,9.40731e-01,9.99999e-01
4.981575406e-01,9.41824e-01,9.99999e-01,9.99999e-01,9.99953e-01,9.41867e-01,9.99999e-01
5.006483283e-01,9.42870e-01,9.99999e-01,9.99999e-01,9.99881e-01,9.42982e-01,9.99998e-01
5.031515699e-01,9.43500e-01,9.99999e-01,9.99999e-01,9.99395e-01,9.44076e-01,9.99993e-01
5.056673278e-01,9.44841e-01,9.99999e-01,9.99999e-01,9.99680e-01,9.45150e-01,9.99992e-01
5.081956644e-01,9.45818e-01,9.99999e-01,9.99999e-01,9.99596e-01,9.46204e-01,9.99994e-01
5.107366428e-01,9.46979e-01,9.99999e-01,9.99999e-01,9.99727e-01,9.47238e-01,9.99998e-01
5.132903260e-01,9.48105e-01,9.99999e-01,9.99999e-01,9.99843e-01,9.48252e-01,9.99999e-01
5.158567776e-01,9.49186e-01,9.99999e-01,9.99999e-01,9.99933e-01,9.49248e-01,9.99999e-01
5.184360615e-01,9.50200e-01,9.99999e-01,9.99999e-01,9.99973e-01,9.50225e-01,9.99999e-01
5.210282418e-01,9.51175e-01,9.99999e-01,9.99999e-01,9.99989e-01,9.51184e-01,9.99999e-01
5.236333830e-01,9.52087e-01,9.99999e-01,9.99999e-01,9.99960e-01,9.52125e-01,9.99999e-01
5.262515499e-01,9.53024e-01,9.99999e-01,9.99999e-01,9.99974e-01,9.53048e-01,9.99999e-01
5.288828077e-01,9.53932e-01,9.99999e-01,9.99999e-01,9.99976e-01,9.53953e-01,9.99999e-01
5.315272217e-01,9.54823e-01,9.99999e-01,9.99999e-01,9.99979e-01,9.54842e-01,9.99999e-01
5.341848578e-01,9.55702e-01,9.99999e-01,9.99999e-01,9.99986e-01,9.55714e-01,9.99999e-01
5.368557821e-01,9.56526e-01,9.99999e-01,9.99999e-01,9.99953e-01,9.56570e-01,9.99999e-01
5.395400610e-01,9.57250e-01,9.99999e-01,9.99999e-01,9.99835e-01,9.57409e-01,9.99998e-01
5.422377613e-01,9.58023e-01,9.99999e-01,9.99999e-01,9.99785e-01,9.58232e-01,9.99995e-01
5.449489501e-01,9.58846e-01,9.99999e-01,9.99999e-01,9.99801e-01,9.59040e-01,9.99995e-01
5.476736949e-01,9.59661e-01,9.99999e-01,9.99999e-01,9.99822e-01,9.59833e-01,9.99997e-01
5.504120634e-01,9.60487e-01,9.99999e-01,9.99999e-01,9.99871e-01,9.60610e-01,9.99998e-01
5.531641237e-01,9.61311e-01,9.99999e-01,9.99999e-01,9.99935e-01,9.61373e-01,9.99999e-01
5.559299443e-01,9.62091e-01,9.99999e-01,9.99999e-01,9.99968e-01,9.62121e-01,9.99999e-01
5.587095940e-01,9.62837e-01,9.99999e-01,9.99999e-01,9.99980e-01,9.62855e-01,9.99999e-01
5.615031420e-01,9.63555e-01,9.99999e-01,9.99999e-01,9.99977e-01,9.63576e-01,9.99999e-01
5.643106577e-01,9.64258e-01,9.99999e-01,9.99999e-01,9.99975e-01,9.64282e-01,9.99999e-01
5.671322110e-01,9.64688e-01,9.99999e-01,9.99999e-01,9.99704e-01,9.64975e-01,9.99996e-01
5.699678720e-01,9.65338e-01,9.99999e-01,9.99999e-01,9.99679e-01,9.65655e-01,9.99991e-01
5.728177114e-01,9.65996e-01,9.99999e-01,9.99999e-01,9.99669e-01,9.66322e-01,9.99992e-01
5.756818000e-01,9.66678e-01,9.99999e-01,9.99999e-01,9.99695e-01,9.66976e-01,9.99995e-01
5.785602090e-01,9.67360e-01,9.99999e-01,9.99999e-01,9.99734e-01,9.67617e-01,9.99998e-01
5.814530100e-01,9.67989e-01,9.99999e-01,9.99999e-01,9.99733e-01,9.68247e-01,9.99998e-01
5.843602750e-01,9.68557e-01,9.99999e-01,9.99999e-01,9.99684e-01,9.68864e-01,9.99997e-01
5.872820764e-01,9.66815e-01,9.99999e-01,9.99999e-01,9.97280e-01,9.69470e-01,9.99980e-01
5.902184868e-01,9.66798e-01,9.99999e-01,9.99999e-01,9.96685e-01,9.70063e-01,9.99947e-01
5.931695792e-01,9.68328e-01,9.99999e-01,9.99999e-01,9.97662e-01,9.70646e-01,9.99948e-01
5.961354271e-01,9.68696e-01,9.99999e-01,9.99999e-01,9.97433e-01,9.71217e-01,9.99968e-01
5.991161043e-01,9.69949e-01,9.99999e-01,9.99999e-01,9.98126e-01,9.71778e-01,9.99990e-01
6.021116848e-01,9.71292e-01,9.99999e-01,9.99999e-01,9.98935e-01,9.72327e-01,9.99998e-01
6.051222432e-01,9.72343e-01,9.99999e-01,9.99999e-01,9.99461e-01,9.72867e-01,9.99999e-01
6.081478544e-01,9.73169e-01,9.99999e-01,9.99999e-01,9.99767e-01,9.73395e-01,9.99999e-01
6.111885937e-01,9.73818e-01,9.99999e-01,9.99999e-01,9.99901e-01,9.73914e-01,9.99999e-01
6.142445367e-01,9.74380e-01,9.99999e-01,9.99999e-01,9.99955e-01,9.74422e-01,9.99999e-01
6.173157594e-01,9.74898e-01,9.99999e-01,9.99999e-01,9.99975e-01,9.74921e-01,9.99999e-01
6.204023382e-01,9.75391e-01,9.99999e-01,9.99999e-01,9.99979e-01,9.75410e-01,9.99999e-01
6.235043498e-01,9.75803e-01,9.99999e-01,9.99999e-01,9.99910e-01,9.75890e-01,9.99999e-01
6.266218716e-01,9.75893e-01,9.99999e-01,9.99999e-01,9.99523e-01,9.76361e-01,9.99996e-01
6.297549810e-01,9.76645e-01,9.99999e-01,9.99999e-01,9.99825e-01,9.76822e-01,9.99992e-01
6.329037559e-01,9.76932e-01,9.99999e-01,9.99999e-01,9.99653e-01,9.77275e-01,9.99994e-01
6.360682746e-01,9.77429e-01,9.99999e-01,9.99999e-01,9.99706e-01,9.77719e-01,9.99996e-01
6.392486160e-01,9.77780e-01,9.99999e-01,9.99999e-01,9.99618e-01,9.78154e-01,9.99998e-01
6.424448591e-01,9.78083e-01,9.99999e-01,9.99999e-01,9.99492e-01,9.78581e-01,9.99997e-01
6.456570834e-01,9.76682e-01,9.99999e-01,9.99999e-01,9.97645e-01,9.78999e-01,9.99986e-01
6.488853688e-01,9.77383e-01,9.99999e-01,9.99999e-01,9.97966e-01,9.79410e-01,9.99962e-01
6.521297956e-01,9.78047e-01,9.99999e-01,9.99999e-01,9.98228e-01,9.79812e-01,9.99968e-01
6.553904446e-01,9.78471e-01,9.99999e-01,9.99999e-01,9.98250e-01,9.80207e-01,9.99976e-01
6.586673968e-01,9.79107e-01,9.99999e-01,9.99999e-01,9.98490e-01,9.80594e-01,9.99991e-01
6.619607338e-01,9.80117e-01,9.99999e-01,9.99999e-01,9.99127e-01,9.80974e-01,9.99997e-01
6.652705375e-01,9.80849e-01,9.99999e-01,9.99999e-01,9.99493e-01,9.81346e-01,9.99998e-01
6.685968902e-01,9.81481e-01,9.99999e-01,9.99999e-01,9.99764e-01,9.81711e-01,9.99999e-01
6.719398746e-01,9.81962e-01,9.99999e-01,9.99999e-01,9.99890e-01,9.82069e-01,9.99999e-01
6.752995740e-01,9.82362e-01,9.99999e-01,9.99999e-01,9.99940e-01,9.82420e-01,9.99999e-01
6.786760719e-01,9.82681e-01,9.99999e-01,9.99999e-01,9.99914e-01,9.82764e-01,9.99999e-01
6.820694522e-01,9.82959e-01,9.99999e-01,9.99999e-01,9.99854e-01,9.83102e-01,9.99998e-01
6.854797995e-01,9.83248e-01,9.99999e-01,9.99999e-01,9.99812e-01,9.83433e-01,9.99997e-01
6.889071985e-01,9.83313e-01,9.99999e-01,9.99999e-01,9.99551e-01,9.83757e-01,9.99995e-01
6.923517345e-01,9.76794e-01,9.99999e-01,9.99999e-01,9.92635e-01,9.84076e-01,9.99964e-01
6.958134932e-01,9.80482e-01,9.99999e-01,9.99999e-01,9.96111e-01,9.84388e-01,9.99919e-01
6.992925606e-01,9.81037e-01,9.99999e-01,9.99999e-01,9.96356e-01,9.84694e-01,9.99929e-01
7.027890234e-01,9.80488e-01,9.99999e-01,9.99999e-01,9.95478e-01,9.84994e-01,9.99945e-01
7.063029686e-01,9.81519e-01,9.99999e-01,9.99999e-01,9.96200e-01,9.85288e-01,9.99972e-01
7.098344834e-01,9.81968e-01,9.99999e-01,9.99999e-01,9.96354e-01,9.85576e-01,9.99983e-01
7.133836558e-01,9.81080e-01,9.99999e-01,9.99999e-01,9.95182e-01,9.85859e-01,9.99967e-01
7.169505741e-01,9.48045e-01,9.99999e-01,9.99999e-01,9.61611e-01,9.86137e-01,9.99750e-01
7.205353270e-01,9.67062e-01,9.99999e-01,9.99999e-01,9.80817e-01,9.86409e-01,9.99560e-01
7.241380036e-01,9.62581e-01,9.99999e-01,9.99999e-01,9.75949e-01,9.86675e-01,9.99620e-01
7.277586936e-01,9.65181e-01,9.99999e-01,9.99999e-01,9.78258e-01,9.86937e-01,9.99689e-01
7.313974871e-01,9.64163e-01,9.99999e-01,9.99999e-01,9.76812e-01,9.87193e-01,9.99854e-01
7.350544745e-01,9.74848e-01,9.99999e-01,9.99999e-01,9.87293e-01,9.87444e-01,9.99949e-01
7.387297469e-01,9.78419e-01,9.99999e-01,9.99999e-01,9.90634e-01,9.87691e-01,9.99976e-01
7.424233956e-01,9.83386e-01,9.99999e-01,9.99999e-01,9.95402e-01,9.87933e-01,9.99995e-01
7.461355126e-01,9.85417e-01,9.99999e-01,9.99999e-01,9.97215e-01,9.88169e-01,9.99998e-01
7.498661902e-01,9.87117e-01,9.99999e-01,9.99999e-01,9.98700e-01,9.88402e-01,9.99999e-01
7.536155211e-01,9.88001e-01,9.99999e-01,9.99999e-01,9.99363e-01,9.88630e-01,9.99999e-01
7.573835987e-01,9.88529e-01,9.99999e-01,9.99999e-01,9.99672e-01,9.88853e-01,9.99999e-01
7.611705167e-01,9.88871e-01,9.99999e-01,9.99999e-01,9.99796e-01,9.89072e-01,9.99999e-01
7.649763693e-01,9.89160e-01,9.99999e-01,9.99999e-01,9.99872e-01,9.89286e-01,9.99999e-01
7.688012511e-01,9.89409e-01,9.99999e-01,9.99999e-01,9.99910e-01,9.89497e-01,9.99999e-01
7.726452574e-01,9.89631e-01,9.99999e-01,9.99999e-01,9.99926e-01,9.89703e-01,9.99999e-01
7.765084837e-01,9.89804e-01,9.99999e-01,9.99999e-01,9.99896e-01,9.89906e-01,9.99999e-01
7.803910261e-01,9.89663e-01,9.99999e-01,9.99999e-01,9.99554e-01,9.90104e-01,9.99999e-01
7.842929812e-01,9.88758e-01,9.99999e-01,9.99999e-01,9.98446e-01,9.90299e-01,9.99996e-01
7.882144461e-01,9.87284e-01,9.99999e-01,9.99999e-01,9.96782e-01,9.90489e-01,9.99979e-01
7.921555184e-01,9.88884e-01,9.99999e-01,9.99999e-01,9.98228e-01,9.90676e-01,9.99961e-01
7.961162960e-01,9.87746e-01,9.99999e-01,9.99999e-01,9.96894e-01,9.90859e-01,9.99963e-01
8.000968774e-01,9.87434e-01,9.99999e-01,9.99999e-01,9.96399e-01,9.91039e-01,9.99960e-01
8.040973618e-01,9.87619e-01,9.99999e-01,9.99999e-01,9.96402e-01,9.91215e-01,9.99968e-01
8.081178486e-01,9.83366e-01,9.99999e-01,9.99999e-01,9.91935e-01,9.91388e-01,9.99970e-01
8.121584379e-01,9.58428e-01,9.99999e-01,9.99999e-01,9.66697e-01,9.91558e-01,9.99885e-01
8.162192301e-01,9.51950e-01,9.99999e-01,9.99999e-01,9.60304e-01,9.91724e-01,9.99572e-01
8.203003262e-01,9.71767e-01,9.99999e-01,9.99999e-01,9.80205e-01,9.91886e-01,9.99499e-01
8.244018279e-01,9.63823e-01,9.99999e-01,9.99999e-01,9.71936e-01,9.92046e-01,9.99601e-01
8.285238370e-01,9.68334e-01,9.99999e-01,9.99999e-01,9.76248e-01,9.92202e-01,9.99687e-01
8.326664562e-01,9.68335e-01,9.99999e-01,9.99999e-01,9.75919e-01,9.92356e-01,9.99870e-01
8.368297885e-01,9.75349e-01,9.99999e-01,9.99999e-01,9.82741e-01,9.92506e-01,9.99969e-01
8.410139374e-01,9.82426e-01,9.99999e-01,9.99999e-01,9.89713e-01,9.92654e-01,9.99982e-01
8.452190071e-01,9.87767e-01,9.99999e-01,9.99999e-01,9.94941e-01,9.92798e-01,9.99989e-01
8.494451021e-01,9.90024e-01,9.99999e-01,9.99999e-01,9.97070e-01,9.92940e-01,9.99991e-01
8.536923276e-01,9.91349e-01,9.99999e-01,9.99999e-01,9.98263e-01,9.93079e-01,9.99994e-01
8.579607893e-01,9.92154e-01,9.99999e-01,9.99999e-01,9.98932e-01,9.93215e-01,9.99998e-01
8.622505932e-01,9.92674e-01,9.99999e-01,9.99999e-01,9.99320e-01,9.93349e-01,9.99999e-01
8.665618462e-01,9.93063e-01,9.99999e-01,9.99999e-01,9.99580e-01,9.93480e-01,9.99999e-01
8.708946554e-01,9.93132e-01,9.99999e-01,9.99999e-01,9.99520e-01,9.93608e-01,9.99999e-01
8.752491287e-01,9.93096e-01,9.99999e-01,9.99999e-01,9.99358e-01,9.93734e-01,9.99998e-01
8.796253743e-01,9.92975e-01,9.99999e-01,9.99999e-01,9.99113e-01,9.93857e-01,9.99997e-01
8.840235012e-01,9.92965e-01,9.99999e-01,9.99999e-01,9.98986e-01,9.93978e-01,9.99993e-01
8.884436187e-01,9.90447e-01,9.99999e-01,9.99999e-01,9.96345e-01,9.94097e-01,9.99981e-01
8.928858368e-01,9.56096e-01,9.99999e-01,9.99999e-01,9.61758e-01,9.94213e-01,9.99898e-01
8.973502660e-01,9.27090e-01,9.99999e-01,9.99999e-01,9.32863e-01,9.94327e-01,9.99480e-01
9.018370173e-01,9.58828e-01,9.99999e-01,9.99999e-01,9.64977e-01,9.94439e-01,9.99183e-01
9.063462024e-01,9.63479e-01,9.99999e-01,9.99999e-01,9.69455e-01,9.94548e-01,9.99282e-01
9.108779334e-01,9.46804e-01,9.99999e-01,9.99999e-01,9.52600e-01,9.94656e-01,9.99254e-01
9.154323231e-01,9.40748e-01,9.99999e-01,9.99999e-01,9.46285e-01,9.94761e-01,9.99383e-01
9.200094847e-01,9.52347e-01,9.99999e-01,9.99999e-01,9.57593e-01,9.94864e-01,9.99654e-01
9.246095321e-01,9.29967e-01,9.99999e-01,9.99999e-01,9.35043e-01,9.94965e-01,9.99602e-01
9.292325798e-01,6.30931e-01,9.99999e-01,9.99999e-01,6.35044e-01,9.95064e-01,9.98450e-01
9.338787427e-01,5.48152e-01,9.99999e-01,9.99999e-01,5.54357e-01,9.95162e-01,9.93612e-01
9.385481364e-01,7.78584e-01,9.99999e-01,9.99999e-01,7.88278e-01,9.95257e-01,9.92407e-01
9.432408771e-01,7.10877e-01,9.99999e-01,9.99999e-01,7.18908e-01,9.95350e-01,9.93446e-01
9.479570815e-01,6.27684e-01,9.99999e-01,9.99999e-01,6.33940e-01,9.95442e-01,9.94663e-01
9.526968669e-01,7.04428e-01,9.99999e-01,9.99999e-01,7.09902e-01,9.95532e-01,9.96741e-01
9.574603512e-01,7.26674e-01,9.99999e-01,9.99999e-01,7.31081e-01,9.95620e-01,9.98343e-01
9.622476530e-01,7.70662e-01,9.99999e-01,9.99999e-01,7.74872e-01,9.95706e-01,9.98853e-01
9.670588912e-01,8.59210e-01,9.99999e-01,9.99999e-01,8.63517e-01,9.95791e-01,9.99215e-01
9.718941857e-01,9.08294e-01,9.99999e-01,9.99999e-01,9.12583e-01,9.95874e-01,9.99422e-01
9.767536566e-01,9.22753e-01,9.99999e-01,9.99999e-01,9.26908e-01,9.95955e-01,9.99558e-01
9.816374249e-01,9.41356e-01,9.99999e-01,9.99999e-01,9.45246e-01,9.96035e-01,9.99846e-01
9.865456120e-01,9.61657e-01,9.99999e-01,9.99999e-01,9.65439e-01,9.96113e-01,9.99967e-01
9.914783401e-01,9.74776e-01,9.99999e-01,9.99999e-01,9.78513e-01,9.96190e-01,9.99990e-01
9.964357318e-01,9.84545e-01,9.99999e-01,9.99999e-01,9.88241e-01,9.96265e-01,9.99994e-01
1.001417910e+00,9.89293e-01,9.99999e-01,9.99999e-01,9.92936e-01,9.96338e-01,9.99991e-01
1.006425000e+00,9.92388e-01,9.99999e-01,9.99999e-01,9.95973e-01,9.96410e-01,9.99988e-01
1.011457125e+00,9.93975e-01,9.99999e-01,9.99999e-01,9.97495e-01,9.96481e-01,9.99989e-01
1.016514411e+00,9.94850e-01,9.99999e-01,9.99999e-01,9.98300e-01,9.96551e-01,9.99992e-01
1.021596983e+00,9.95263e-01,9.99999e-01,9.99999e-01,9.98646e-01,9.96619e-01,9.99992e-01
1.026704968e+00,9.95629e-01,9.99999e-01,9.99999e-01,9.98944e-01,9.96685e-01,9.99994e-01
1.031838492e+00,9.95984e-01,9.99999e-01,9.99999e-01,9.99231e-01,9.96751e-01,9.99998e-01
1.036997685e+00,9.96361e-01,9.99999e-01,9.99999e-01,9.99544e-01,9.96815e-01,9.99999e-01
1.042182673e+00,9.96337e-01,9.99999e-01,9.99999e-01,9.99457e-01,9.96877e-01,9.99999e-01
1.047393587e+00,9.96222e-01,9.99999e-01,9.99999e-01,9.99280e-01,9.96939e-01,9.99999e-01
1.052630555e+00,9.96016e-01,9.99999e-01,9.99999e-01,9.99013e-01,9.96999e-01,9.99999e-01
1.057893707e+00,9.95418e-01,9.99999e-01,9.99999e-01,9.98355e-01,9.97059e-01,9.99998e-01
1.063183176e+00,9.94415e-01,9.99999e-01,9.99999e-01,9.97291e-01,9.97117e-01,9.99998e-01
1.068499092e+00,9.92647e-01,9.99999e-01,9.99999e-01,9.95463e-01,9.97173e-01,9.99996e-01
1.073841587e+00,9.91936e-01,9.99999e-01,9.99999e-01,9.94698e-01,9.97229e-01,9.99992e-01
1.079210795e+00,9.90480e-01,9.99999e-01,9.99999e-01,9.93195e-01,9.97284e-01,9.99981e-01
1.084606849e+00,9.87048e-01,9.99999e-01,9.99999e-01,9.89725e-01,9.97337e-01,9.99955e-01
1.090029883e+00,9.82661e-01,9.99999e-01,9.99999e-01,9.85321e-01,9.97390e-01,9.99909e-01
1.095480033e+00,9.57836e-01,9.99999e-01,9.99999e-01,9.60449e-01,9.97441e-01,9.99835e-01
1.100957433e+00,8.99936e-01,9.99999e-01,9.99999e-01,9.02470e-01,9.97492e-01,9.99698e-01
1.106462220e+00,7.68124e-01,9.99999e-01,9.99999e-01,7.70411e-01,9.97541e-01,9.99488e-01
1.111994531e+00,5.74424e-01,9.99999e-01,9.99999e-01,5.76593e-01,9.97590e-01,9.98643e-01
1.117554504e+00,4.06930e-01,9.99999e-01,9.99999e-01,4.09897e-01,9.97637e-01,9.95112e-01
1.123142276e+00,5.10570e-01,9.99999e-01,9.99999e-01,5.17734e-01,9.97684e-01,9.88449e-01
1.128757988e+00,6.46824e-01,9.99999e-01,9.99999e-01,6.57067e-01,9.97730e-01,9.86649e-01
1.134401778e+00,3.89261e-01,9.99999e-01,9.99999e-01,3.94613e-01,9.97774e-01,9.88636e-01
1.140073787e+00,7.70017e-01,9.99999e-01,9.99999e-01,7.78778e-01,9.97818e-01,9.90910e-01
1.145774156e+00,5.86470e-01,9.99999e-01,9.99999e-01,5.92659e-01,9.97861e-01,9.91676e-01
1.151503026e+00,5.54609e-01,9.99999e-01,9.99999e-01,5.58367e-01,9.97903e-01,9.95354e-01
1.157260541e+00,6.13221e-01,9.99999e-01,9.99999e-01,6.15340e-01,9.97945e-01,9.98608e-01
1.163046844e+00,6.96480e-01,9.99999e-01,9.99999e-01,6.98161e-01,9.97985e-01,9.99605e-01
1.168862078e+00,7.77571e-01,9.99999e-01,9.99999e-01,7.79267e-01,9.98025e-01,9.99796e-01
1.174706389e+00,8.55498e-01,9.99999e-01,9.99999e-01,8.57387e-01,9.98064e-01,9.99730e-01
1.180579921e+00,9.08454e-01,9.99999e-01,9.99999e-01,9.10551e-01,9.98102e-01,9.99592e-01
1.186482820e+00,9.46326e-01,9.99999e-01,9.99999e-01,9.48485e-01,9.98140e-01,9.99581e-01
1.192415234e+00,9.67566e-01,9.99999e-01,9.99999e-01,9.69637e-01,9.98176e-01,9.99686e-01
1.198377311e+00,9.72349e-01,9.99999e-01,9.99999e-01,9.74377e-01,9.98212e-01,9.99703e-01
1.204369197e+00,9.73747e-01,9.99999e-01,9.99999e-01,9.75717e-01,9.98248e-01,9.99731e-01
1.210391043e+00,9.74931e-01,9.99999e-01,9.99999e-01,9.76766e-01,9.98282e-01,9.99836e-01
1.216442998e+00,9.78427e-01,9.99999e-01,9.99999e-01,9.80175e-01,9.98316e-01,9.99899e-01
1.222525213e+00,9.82859e-01,9.99999e-01,9.99999e-01,9.84545e-01,9.98349e-01,9.99937e-01
1.228637839e+00,9.87621e-01,9.99999e-01,9.99999e-01,9.89250e-01,9.98382e-01,9.99970e-01
