#,Wave/freq,Total,N2,O2,H2O,Rayleigh,CIA
4.000000000e-01,1.51641e-01,9.99999e-01,9.99999e-01,9.99786e-01,1.51673e-01,9.99999e-01
4.020000000e-01,1.57416e-01,9.99999e-01,9.99999e-01,9.99866e-01,1.57436e-01,9.99999e-01
4.040100000e-01,1.63283e-01,9.99999e-01,9.99999e-01,9.99943e-01,1.63292e-01,9.99999e-01
4.060300500e-01,1.69241e-01,9.99999e-01,9.99999e-01,9.99986e-01,1.69243e-01,9.99999e-01
4.080602003e-01,1.75286e-01,9.99999e-01,9.99999e-01,9.99995e-01,1.75287e-01,9.99999e-01
4.101005013e-01,1.81421e-01,9.99999e-01,9.99999e-01,9.99999e-01,1.81421e-01,9.99999e-01
4.121510038e-01,1.87640e-01,9.99999e-01,9.99999e-01,9.99991e-01,1.87642e-01,9.99999e-01
4.142117588e-01,1.93936e-01,9.99999e-01,9.99999e-01,9.99941e-01,1.93947e-01,9.99999e-01
4.162828176e-01,2.00281e-01,9.99999e-01,9.99999e-01,9.99735e-01,2.00333e-01,9.99999e-01
4.183642317e-01,2.06765e-01,9.99999e-01,9.99999e-01,9.99842e-01,2.06798e-01,9.99999e-01
4.204560528e-01,2.13316e-01,9.99999e-01,9.99999e-01,9.99903e-01,2.13336e-01,9.99999e-01
4.225583331e-01,2.19939e-01,9.99999e-01,9.99999e-01,9.99963e-01,2.19947e-01,9.99999e-01
4.246711247e-01,2.26619e-01,9.99999e-01,9.99999e-01,9.99971e-01,2.26625e-01,9.99999e-01
4.267944804e-01,2.33359e-01,9.99999e-01,9.99999e-01,9.99957e-01,2.33369e-01,9.99999e-01
4.289284528e-01,2.40166e-01,9.99999e-01,9.99999e-01,9.99966e-01,2.40174e-01,9.99999e-01
4.310730950e-01,2.47033e-01,9.99999e-01,9.99999e-01,9.99985e-01,2.47037e-01,9.99999e-01
4.332284605e-01,2.53954e-01,9.99999e-01,9.99999e-01,9.99995e-01,2.53955e-01,9.99999e-01
4.353946028e-01,2.60923e-01,9.99999e-01,9.99999e-01,9.99997e-01,2.60924e-01,9.99999e-01
4.375715758e-01,2.67934e-01,9.99999e-01,9.99999e-01,9.99974e-01,2.67941e-01,9.99999e-01
4.397594337e-01,2.74940e-01,9.99999e-01,9.99999e-01,9.99771e-01,2.75002e-01,9.99999e-01
4.419582309e-01,2.81779e-01,9.99999e-01,9.99999e-01,9.98843e-01,2.82105e-01,9.99999e-01
4.441680220e-01,2.88978e-01,9.99999e-01,9.99999e-01,9.99076e-01,2.89246e-01,9.99999e-01
4.463888621e-01,2.96137e-01,9.99999e-01,9.99999e-01,9.99045e-01,2.96420e-01,9.99999e-01
4.486208064e-01,3.03445e-01,9.99999e-01,9.99999e-01,9.99403e-01,3.03626e-01,9.99999e-01
4.508639105e-01,3.10773e-01,9.99999e-01,9.99999e-01,9.99720e-01,3.10860e-01,9.99999e-01
4.531182300e-01,3.18082e-01,9.99999e-01,9.99999e-01,9.99889e-01,3.18117e-01,9.99999e-01
4.553838212e-01,3.25372e-01,9.99999e-01,9.99999e-01,9.99925e-01,3.25396e-01,9.99999e-01
4.576607403e-01,3.32681e-01,9.99999e-01,9.99999e-01,9.99965e-01,3.32693e-01,9.99999e-01
4.599490440e-01,3.39996e-01,9.99999e-01,9.99999e-01,9.99975e-01,3.40004e-01,9.99999e-01
4.622487892e-01,3.47326e-01,9.99999e-01,9.99999e-01,9.99995e-01,3.47327e-01,9.99999e-01
4.645600332e-01,3.54653e-01,9.99999e-01,9.99999e-01,9.99983e-01,3.54658e-01,9.99999e-01
4.668828333e-01,3.61894e-01,9.99999e-01,9.99999e-01,9.99720e-01,3.61995e-01,9.99999e-01
4.692172475e-01,3.69113e-01,9.99999e-01,9.99999e-01,9.99400e-01,3.69334e-01,9.99999e-01
4.715633337e-01,3.76525e-01,9.99999e-01,9.99999e-01,9.99608e-01,3.76672e-01,9.99999e-01
4.739211504e-01,3.83863e-01,9.99999e-01,9.99999e-01,9.99623e-01,3.84007e-01,9.99999e-01
4.762907561e-01,3.91260e-01,9.99999e-01,9.99999e-01,9.99804e-01,3.91336e-01,9.99999e-01
4.786722099e-01,3.98624e-01,9.99999e-01,9.99999e-01,9.99919e-01,3.98656e-01,9.99999e-01
4.810655710e-01,4.05954e-01,9.99999e-01,9.99999e-01,9.99975e-01,4.05964e-01,9.99999e-01
4.834708988e-01,4.13165e-01,9.99999e-01,9.99999e-01,9.99775e-01,4.13257e-01,9.99999e-01
4.858882533e-01,4.20355e-01,9.99999e-01,9.99999e-01,9.99574e-01,4.20534e-01,9.99999e-01
4.883176946e-01,4.27640e-01,9.99999e-01,9.99999e-01,9.99646e-01,4.27791e-01,9.99999e-01
4.907592831e-01,4.34887e-01,9.99999e-01,9.99999e-01,9.99678e-01,4.35027e-01,9.99999e-01
4.932130795e-01,4.42137e-01,9.99999e-01,9.99999e-01,9.99771e-01,4.42238e-01,9.99999e-01
4.956791449e-01,4.49369e-01,9.99999e-01,9.99999e-01,9.99879e-01,4.49423e-01,9.99999e-01
4.981575406e-01,4.56306e-01,9.99999e-01,9.99999e-01,9.99400e-01,4.56579e-01,9.99999e-01
5.006483283e-01,4.62985e-01,9.99999e-01,9.99999e-01,9.98457e-01,4.63705e-01,9.99989e-01
5.031515699e-01,4.67062e-01,9.99999e-01,9.99999e-01,9.92146e-01,4.70798e-01,9.99916e-01
5.056673278e-01,4.75818e-01,9.99999e-01,9.99999e-01,9.95829e-01,4.77855e-01,9.99904e-01
5.081956644e-01,4.82296e-01,9.99999e-01,9.99999e-01,9.94737e-01,4.84877e-01,9.99938e-01
5.107366428e-01,4.90104e-01,9.99999e-01,9.99999e-01,9.96442e-01,4.91859e-01,9.99988e-01
5.132903260e-01,4.97785e-01,9.99999e-01,9.99999e-01,9.97962e-01,4.98801e-01,9.99998e-01
5.158567776e-01,5.05266e-01,9.99999e-01,9.99999e-01,9.99137e-01,5.05702e-01,9.99999e-01
5.184360615e-01,5.12382e-01,9.99999e-01,9.99999e-01,9.99655e-01,5.12558e-01,9.99999e-01
5.210282418e-01,5.19303e-01,9.99999e-01,9.99999e-01,9.99871e-01,5.19370e-01,9.99999e-01
5.236333830e-01,5.25862e-01,9.99999e-01,9.99999e-01,9.99484e-01,5.26134e-01,9.99995e-01
5.262515499e-01,5.32676e-01,9.99999e-01,9.99999e-01,9.99676e-01,5.32851e-01,9.99994e-01
5.288828077e-01,5.39357e-01,9.99999e-01,9.99999e-01,9.99705e-01,5.39518e-01,9.99996e-01
5.315272217e-01,5.45991e-01,9.99999e-01,9.99999e-01,9.99738e-01,5.46134e-01,9.99998e-01
5.341848578e-01,5.52605e-01,9.99999e-01,9.99999e-01,9.99830e-01,5.52698e-01,9.99999e-01
5.368557821e-01,5.58876e-01,9.99999e-01,9.99999e-01,9.99403e-01,5.59210e-01,9.99998e-01
5.395400610e-01,5.64447e-01,9.99999e-01,9.99999e-01,9.97860e-01,5.65667e-01,9.99981e-01
5.422377613e-01,5.70436e-01,9.99999e-01,9.99999e-01,9.97195e-01,5.72069e-01,9.99949e-01
5.449489501e-01,5.76887e-01,9.99999e-01,9.99999e-01,9.97410e-01,5.78415e-01,9.99947e-01
5.476736949e-01,5.83337e-01,9.99999e-01,9.99999e-01,9.97687e-01,5.84703e-01,9.99973e-01
5.504120634e-01,5.89939e-01,9.99999e-01,9.99999e-01,9.98322e-01,5.90934e-01,9.99992e-01
5.531641237e-01,5.96602e-01,9.99999e-01,9.99999e-01,9.99155e-01,5.97107e-01,9.99998e-01
5.559299443e-01,6.02974e-01,9.99999e-01,9.99999e-01,9.99591e-01,6.03220e-01,9.99999e-01
5.587095940e-01,6.09118e-01,9.99999e-01,9.99999e-01,9.99745e-01,6.09272e-01,9.99999e-01
5.615031420e-01,6.15090e-01,9.99999e-01,9.99999e-01,9.99716e-01,6.15265e-01,9.99999e-01
5.643106577e-01,6.20998e-01,9.99999e-01,9.99999e-01,9.99682e-01,6.21196e-01,9.99997e-01
5.671322110e-01,6.24650e-01,9.99999e-01,9.99999e-01,9.96178e-01,6.27065e-01,9.99968e-01
5.699678720e-01,6.30158e-01,9.99999e-01,9.99999e-01,9.95816e-01,6.32873e-01,9.99893e-01
5.728177114e-01,6.35807e-01,9.99999e-01,9.99999e-01,9.95686e-01,6.38618e-01,9.99911e-01
5.756818000e-01,6.41709e-01,9.99999e-01,9.99999e-01,9.96032e-01,6.44300e-01,9.99945e-01
5.785602090e-01,6.47656e-01,9.99999e-01,9.99999e-01,9.96534e-01,6.49918e-01,9.99983e-01
5.814530100e-01,6.53194e-01,9.99999e-01,9.99999e-01,9.96528e-01,6.55474e-01,9.99992e-01
5.843602750e-01,6.58240e-01,9.99999e-01,9.99999e-01,9.95899e-01,6.60966e-01,9.99976e-01
5.872820764e-01,6.43131e-01,9.99999e-01,9.99999e-01,9.65332e-01,6.66393e-01,9.99748e-01
5.902184868e-01,6.42794e-01,9.99999e-01,9.99999e-01,9.57537e-01,6.71757e-01,9.99316e-01
5.931695792e-01,6.56315e-01,9.99999e-01,9.99999e-01,9.70007e-01,6.77057e-01,9.99334e-01
5.961354271e-01,6.59528e-01,9.99999e-01,9.99999e-01,9.67021e-01,6.82293e-01,9.99598e-01
5.991161043e-01,6.70739e-01,9.99999e-01,9.99999e-01,9.75783e-01,6.87465e-01,9.99882e-01
6.021116848e-01,6.82985e-01,9.99999e-01,9.99999e-01,9.86170e-01,6.92572e-01,9.99985e-01
6.051222432e-01,6.92715e-01,9.99999e-01,9.99999e-01,9.92975e-01,6.97616e-01,9.99998e-01
6.081478544e-01,7.00466e-01,9.99999e-01,9.99999e-01,9.96968e-01,7.02595e-01,9.99999e-01
6.111885937e-01,7.06601e-01,9.99999e-01,9.99999e-01,9.98712e-01,7.07511e-01,9.99999e-01
6.142445367e-01,7.11954e-01,9.99999e-01,9.99999e-01,9.99425e-01,7.12363e-01,9.99999e-01
6.173157594e-01,7.16925e-01,9.99999e-01,9.99999e-01,9.99683e-01,7.17151e-01,9.99999e-01
6.204023382e-01,7.21685e-01,9.99999e-01,9.99999e-01,9.99733e-01,7.21877e-01,9.99999e-01
6.235043498e-01,7.25698e-01,9.99999e-01,9.99999e-01,9.98845e-01,7.26538e-01,9.99996e-01
6.266218716e-01,7.26569e-01,9.99999e-01,9.99999e-01,9.93794e-01,7.31138e-01,9.99955e-01
6.297549810e-01,7.33933e-01,9.99999e-01,9.99999e-01,9.97720e-01,7.35674e-01,9.99912e-01
6.329037559e-01,7.36754e-01,9.99999e-01,9.99999e-01,9.95482e-01,7.40148e-01,9.99929e-01
6.360682746e-01,7.41679e-01,9.99999e-01,9.99999e-01,9.96170e-01,7.44561e-01,9.99958e-01
6.392486160e-01,7.45174e-01,9.99999e-01,9.99999e-01,9.95027e-01,7.48911e-01,9.99981e-01
6.424448591e-01,7.48694e-01,9.99999e-01,9.99999e-01,9.94045e-01,7.53200e-01,9.99970e-01
6.456570834e-01,7.34601e-01,9.99999e-01,9.99999e-01,9.70027e-01,7.57429e-01,9.99828e-01
6.488853688e-01,7.41245e-01,9.99999e-01,9.99999e-01,9.73743e-01,7.61597e-01,9.99520e-01
6.521297956e-01,7.47951e-01,9.99999e-01,9.99999e-01,9.77206e-01,7.65705e-01,9.99597e-01
6.553904446e-01,7.52128e-01,9.99999e-01,9.99999e-01,9.77397e-01,7.69753e-01,9.99698e-01
6.586673968e-01,7.58548e-01,9.99999e-01,9.99999e-01,9.80458e-01,7.73742e-01,9.99901e-01
6.619607338e-01,7.68829e-01,9.99999e-01,9.99999e-01,9.88648e-01,7.77673e-01,9.99978e-01
6.652705375e-01,7.76373e-01,9.99999e-01,9.99999e-01,9.93392e-01,7.81545e-01,9.99988e-01
6.685968902e-01,7.82946e-01,9.99999e-01,9.99999e-01,9.96928e-01,7.85359e-01,9.99997e-01
6.719398746e-01,7.87991e-01,9.99999e-01,9.99999e-01,9.98573e-01,7.89116e-01,9.99999e-01
6.752995740e-01,7.92207e-01,9.99999e-01,9.99999e-01,9.99230e-01,7.92816e-01,9.99999e-01
6.786760719e-01,7.95581e-01,9.99999e-01,9.99999e-01,9.98896e-01,7.96460e-01,9.99997e-01
6.820694522e-01,7.98525e-01,9.99999e-01,9.99999e-01,9.98104e-01,8.00049e-01,9.99989e-01
6.854797995e-01,8.01603e-01,9.99999e-01,9.99999e-01,9.97557e-01,8.03582e-01,9.99978e-01
6.889071985e-01,8.02336e-01,9.99999e-01,9.99999e-01,9.94198e-01,8.07060e-01,9.99946e-01
6.923517345e-01,7.36353e-01,9.99999e-01,9.99999e-01,9.08954e-01,8.10485e-01,9.99536e-01
6.958134932e-01,7.72935e-01,9.99999e-01,9.99999e-01,9.50712e-01,8.13856e-01,9.98954e-01
6.992925606e-01,7.78621e-01,9.99999e-01,9.99999e-01,9.53698e-01,8.17173e-01,9.99079e-01
7.027890234e-01,7.72873e-01,9.99999e-01,9.99999e-01,9.42689e-01,8.20439e-01,9.99293e-01
7.063029686e-01,7.83448e-01,9.99999e-01,9.99999e-01,9.51521e-01,8.23653e-01,9.99648e-01
7.098344834e-01,7.88124e-01,9.99999e-01,9.99999e-01,9.53402e-01,8.26815e-01,9.99791e-01
7.133836558e-01,7.79473e-01,9.99999e-01,9.99999e-01,9.39594e-01,8.29927e-01,9.99586e-01
7.169505741e-01,5.14798e-01,9.99999e-01,9.99999e-01,6.20025e-01,8.32988e-01,9.96754e-01
7.205353270e-01,6.51776e-01,9.99999e-01,9.99999e-01,7.84120e-01,8.36000e-01,9.94280e-01
7.241380036e-01,6.14391e-01,9.99999e-01,9.99999e-01,7.35984e-01,8.38963e-01,9.95022e-01
7.277586936e-01,6.35820e-01,9.99999e-01,9.99999e-01,7.58376e-01,8.41878e-01,9.95862e-01
7.313974871e-01,6.24696e-01,9.99999e-01,9.99999e-01,7.40911e-01,8.44745e-01,9.98105e-01
7.350544745e-01,7.18284e-01,9.99999e-01,9.99999e-01,8.48026e-01,8.47565e-01,9.99341e-01
7.387297469e-01,7.52259e-01,9.99999e-01,9.99999e-01,8.84925e-01,8.50339e-01,9.99697e-01
7.424233956e-01,8.03201e-01,9.99999e-01,9.99999e-01,9.41600e-01,8.53066e-01,9.99941e-01
7.461355126e-01,8.25118e-01,9.99999e-01,9.99999e-01,9.64215e-01,8.55748e-01,9.99989e-01
7.498661902e-01,8.43899e-01,9.99999e-01,9.99999e-01,9.83126e-01,8.58385e-01,9.99995e-01
7.536155211e-01,8.53840e-01,9.99999e-01,9.99999e-01,9.91710e-01,8.60978e-01,9.99997e-01
7.573835987e-01,8.59833e-01,9.99999e-01,9.99999e-01,9.95721e-01,8.63527e-01,9.99998e-01
7.611705167e-01,8.63731e-01,9.99999e-01,9.99999e-01,9.97340e-01,8.66034e-01,9.99999e-01
7.649763693e-01,8.67052e-01,9.99999e-01,9.99999e-01,9.98335e-01,8.68498e-01,9.99999e-01
7.688012511e-01,8.69911e-01,9.99999e-01,9.99999e-01,9.98841e-01,8.70920e-01,9.99999e-01
7.726452574e-01,8.72469e-01,9.99999e-01,9.99999e-01,9.99047e-01,8.73301e-01,9.99999e-01
7.765084837e-01,8.74464e-01,9.99999e-01,9.99999e-01,9.98656e-01,8.75641e-01,9.99997e-01
7.803910261e-01,8.72859e-01,9.99999e-01,9.99999e-01,9.94216e-01,8.77940e-01,9.99993e-01
7.842929812e-01,8.62547e-01,9.99999e-01,9.99999e-01,9.79979e-01,8.80201e-01,9.99962e-01
7.882144461e-01,8.45855e-01,9.99999e-01,9.99999e-01,9.58805e-01,8.82422e-01,9.99742e-01
7.921555184e-01,8.63923e-01,9.99999e-01,9.99999e-01,9.77104e-01,8.84605e-01,9.99502e-01
7.961162960e-01,8.51202e-01,9.99999e-01,9.99999e-01,9.60368e-01,8.86750e-01,9.99523e-01
8.000968774e-01,8.47500e-01,9.99999e-01,9.99999e-01,9.53953e-01,8.88858e-01,9.99492e-01
8.040973618e-01,8.49653e-01,9.99999e-01,9.99999e-01,9.54054e-01,8.90929e-01,9.99597e-01
8.081178486e-01,8.04225e-01,9.99999e-01,9.99999e-01,9.00964e-01,8.92963e-01,9.99622e-01
8.121584379e-01,5.84726e-01,9.99999e-01,9.99999e-01,6.54322e-01,8.94962e-01,9.98517e-01
8.162192301e-01,5.38380e-01,9.99999e-01,9.99999e-01,6.03608e-01,8.96926e-01,9.94435e-01
8.203003262e-01,7.05414e-01,9.99999e-01,9.99999e-01,7.89935e-01,8.98856e-01,9.93487e-01
8.244018279e-01,6.47855e-01,9.99999e-01,9.99999e-01,7.22988e-01,9.00751e-01,9.94813e-01
8.285238370e-01,6.62498e-01,9.99999e-01,9.99999e-01,7.36981e-01,9.02613e-01,9.95924e-01
8.326664562e-01,6.63608e-01,9.99999e-01,9.99999e-01,7.34961e-01,9.04441e-01,9.98312e-01
8.368297885e-01,7.23681e-01,9.99999e-01,9.99999e-01,7.98863e-01,9.06237e-01,9.99613e-01
8.410139374e-01,7.93772e-01,9.99999e-01,9.99999e-01,8.74393e-01,9.08001e-01,9.99774e-01
8.452190071e-01,8.51378e-01,9.99999e-01,9.99999e-01,9.35979e-01,9.09734e-01,9.99864e-01
8.494451021e-01,8.77067e-01,9.99999e-01,9.99999e-01,9.62395e-01,9.11435e-01,9.99891e-01
8.536923276e-01,8.92510e-01,9.99999e-01,9.99999e-01,9.77513e-01,9.13106e-01,9.99928e-01
8.579607893e-01,9.02046e-01,9.99999e-01,9.99999e-01,9.86132e-01,9.14747e-01,9.99980e-01
8.622505932e-01,9.08246e-01,9.99999e-01,9.99999e-01,9.91148e-01,9.16359e-01,9.99996e-01
8.665618462e-01,9.12925e-01,9.99999e-01,9.99999e-01,9.94536e-01,9.17941e-01,9.99997e-01
8.708946554e-01,9.13754e-01,9.99999e-01,9.99999e-01,9.93759e-01,9.19495e-01,9.99996e-01
8.752491287e-01,9.13323e-01,9.99999e-01,9.99999e-01,9.91650e-01,9.21021e-01,9.99990e-01
8.796253743e-01,9.11880e-01,9.99999e-01,9.99999e-01,9.88492e-01,9.22519e-01,9.99973e-01
8.840235012e-01,9.11774e-01,9.99999e-01,9.99999e-01,9.86858e-01,9.23989e-01,9.99918e-01
8.884436187e-01,8.83046e-01,9.99999e-01,9.99999e-01,9.54415e-01,9.25433e-01,9.99770e-01
8.928858368e-01,5.74532e-01,9.99999e-01,9.99999e-01,6.20697e-01,9.26851e-01,9.98676e-01
8.973502660e-01,3.98044e-01,9.99999e-01,9.99999e-01,4.31735e-01,9.28243e-01,9.93234e-01
9.018370173e-01,5.96983e-01,9.99999e-01,9.99999e-01,6.49078e-01,9.29609e-01,9.89383e-01
9.063462024e-01,6.31080e-01,9.99999e-01,9.99999e-01,6.84273e-01,9.30950e-01,9.90667e-01
9.108779334e-01,5.10428e-01,9.99999e-01,9.99999e-01,5.52873e-01,9.32267e-01,9.90304e-01
9.154323231e-01,4.67363e-01,9.99999e-01,9.99999e-01,5.04672e-01,9.33559e-01,9.91979e-01
9.200094847e-01,5.47576e-01,9.99999e-01,9.99999e-01,5.88396e-01,9.34828e-01,9.95502e-01
9.246095321e-01,4.36361e-01,9.99999e-01,9.99999e-01,4.68588e-01,9.36073e-01,9.94820e-01
9.292325798e-01,2.20793e-02,9.99999e-01,9.99999e-01,2.40383e-02,9.37295e-01,9.79950e-01
9.338787427e-01,3.05296e-03,9.99999e-01,9.99999e-01,3.53713e-03,9.38495e-01,9.19683e-01
9.385481364e-01,8.54403e-02,9.99999e-01,9.99999e-01,1.00446e-01,9.39672e-01,9.05218e-01
9.432408771e-01,4.48603e-02,9.99999e-01,9.99999e-01,5.19590e-02,9.40828e-01,9.17678e-01
9.479570815e-01,1.05494e-02,9.99999e-01,9.99999e-01,1.20105e-02,9.41962e-01,9.32470e-01
9.526968669e-01,2.78688e-02,9.99999e-01,9.99999e-01,3.08385e-02,9.43075e-01,9.58250e-01
9.574603512e-01,3.33656e-02,9.99999e-01,9.99999e-01,3.61124e-02,9.44168e-01,9.78570e-01
9.622476530e-01,5.68439e-02,9.99999e-01,9.99999e-01,6.10445e-02,9.45240e-01,9.85132e-01
9.670588912e-01,1.79216e-01,9.99999e-01,9.99999e-01,1.91337e-01,9.46292e-01,9.89808e-01
9.718941857e-01,3.03228e-01,9.99999e-01,9.99999e-01,3.22511e-01,9.47324e-01,9.92487e-01
9.767536566e-01,3.67146e-01,9.99999e-01,9.99999e-01,3.89384e-01,9.48337e-01,9.94253e-01
9.816374249e-01,4.63480e-01,9.99999e-01,9.99999e-01,4.89191e-01,9.49331e-01,9.98007e-01
9.865456120e-01,6.04197e-01,9.99999e-01,9.99999e-01,6.36055e-01,9.50307e-01,9.99584e-01
9.914783401e-01,7.17369e-01,9.99999e-01,9.99999e-01,7.54208e-01,9.51264e-01,9.99884e-01
9.964357318e-01,8.16350e-01,9.99999e-01,9.99999e-01,8.57385e-01,9.52203e-01,9.99932e-01
1.001417910e+00,8.68835e-01,9.99999e-01,9.99999e-01,9.11657e-01,9.53125e-01,9.99896e-01
1.006425000e+00,9.04922e-01,9.99999e-01,9.99999e-01,9.48665e-01,9.54029e-01,9.99853e-01
1.011457125e+00,9.23988e-01,9.99999e-01,9.99999e-01,9.67742e-01,9.54916e-01,9.99863e-01
1.016514411e+00,9.34681e-01,9.99999e-01,9.99999e-01,9.78010e-01,9.55787e-01,9.99903e-01
1.021596983e+00,9.39761e-01,9.99999e-01,9.99999e-01,9.82449e-01,9.56641e-01,9.99903e-01
1.026704968e+00,9.44294e-01,9.99999e-01,9.99999e-01,9.86292e-01,9.57479e-01,9.99935e-01
1.031838492e+00,9.48702e-01,9.99999e-01,9.99999e-01,9.89999e-01,9.58301e-01,9.99981e-01
1.036997685e+00,9.53410e-01,9.99999e-01,9.99999e-01,9.94061e-01,9.59108e-01,9.99996e-01
1.042182673e+00,9.53129e-01,9.99999e-01,9.99999e-01,9.92947e-01,9.59899e-01,9.99998e-01
1.047393587e+00,9.51684e-01,9.99999e-01,9.99999e-01,9.90641e-01,9.60675e-01,9.99997e-01
1.052630555e+00,9.49125e-01,9.99999e-01,9.99999e-01,9.87197e-01,9.61437e-01,9.99996e-01
1.057893707e+00,9.41740e-01,9.99999e-01,9.99999e-01,9.78758e-01,9.62184e-01,9.99992e-01
1.063183176e+00,9.29472e-01,9.99999e-01,9.99999e-01,9.65284e-01,9.62917e-01,9.99981e-01
1.068499092e+00,9.08238e-01,9.99999e-01,9.99999e-01,9.42549e-01,9.63636e-01,9.99959e-01
1.073841587e+00,9.00136e-01,9.99999e-01,9.99999e-01,9.33501e-01,9.64341e-01,9.99912e-01
1.079210795e+00,8.82903e-01,9.99999e-01,9.99999e-01,9.15110e-01,9.65033e-01,9.99762e-01
1.084606849e+00,8.44524e-01,9.99999e-01,9.99999e-01,8.75007e-01,9.65712e-01,9.99429e-01
1.090029883e+00,7.98885e-01,9.99999e-01,9.99999e-01,8.27658e-01,9.66377e-01,9.98817e-01
1.095480033e+00,5.77188e-01,9.99999e-01,9.99999e-01,5.98144e-01,9.67030e-01,9.97862e-01
1.100957433e+00,2.76033e-01,9.99999e-01,9.99999e-01,2.86380e-01,9.67671e-01,9.96070e-01
1.106462220e+00,5.59862e-02,9.99999e-01,9.99999e-01,5.82065e-02,9.68299e-01,9.93343e-01
1.111994531e+00,2.91365e-03,9.99999e-01,9.99999e-01,3.06091e-03,9.68916e-01,9.82425e-01
1.117554504e+00,1.83154e-04,9.99999e-01,9.99999e-01,2.01401e-04,9.69520e-01,9.37991e-01
1.123142276e+00,2.96862e-03,9.99999e-01,9.99999e-01,3.56172e-03,9.70113e-01,8.59156e-01
1.128757988e+00,1.05697e-02,9.99999e-01,9.99999e-01,1.29792e-02,9.70695e-01,8.38942e-01
1.134401778e+00,6.49675e-03,9.99999e-01,9.99999e-01,7.79369e-03,9.71265e-01,8.58251e-01
1.140073787e+00,5.04247e-02,9.99999e-01,9.99999e-01,5.86475e-02,9.71825e-01,8.84718e-01
1.145774156e+00,6.69213e-03,9.99999e-01,9.99999e-01,7.67644e-03,9.72373e-01,8.96542e-01
1.151503026e+00,3.33721e-03,9.99999e-01,9.99999e-01,3.64528e-03,9.72912e-01,9.40974e-01
1.157260541e+00,4.13209e-03,9.99999e-01,9.99999e-01,4.32275e-03,9.73439e-01,9.81973e-01
1.163046844e+00,1.66717e-02,9.99999e-01,9.99999e-01,1.72059e-02,9.73957e-01,9.94857e-01
1.168862078e+00,4.88568e-02,9.99999e-01,9.99999e-01,5.02703e-02,9.74465e-01,9.97347e-01
1.174706389e+00,1.47827e-01,9.99999e-01,9.99999e-01,1.52158e-01,9.74963e-01,9.96485e-01
1.180579921e+00,3.00886e-01,9.99999e-01,9.99999e-01,3.10104e-01,9.75451e-01,9.94690e-01
1.186482820e+00,4.92146e-01,9.99999e-01,9.99999e-01,5.07046e-01,9.75930e-01,9.94550e-01
1.192415234e+00,6.51593e-01,9.99999e-01,9.99999e-01,6.70078e-01,9.76400e-01,9.95916e-01
1.198377311e+00,6.95207e-01,9.99999e-01,9.99999e-01,7.14429e-01,9.76861e-01,9.96141e-01
1.204369197e+00,7.10952e-01,9.99999e-01,9.99999e-01,7.30004e-01,9.77313e-01,9.96508e-01
1.210391043e+00,7.20415e-01,9.99999e-01,9.99999e-01,7.38372e-01,9.77756e-01,9.97874e-01
1.216442998e+00,7.54353e-01,9.99999e-01,9.99999e-01,7.72177e-01,9.78190e-01,9.98697e-01
1.222525213e+00,7.98562e-01,9.99999e-01,9.99999e-01,8.16671e-01,9.78616e-01,9.99190e-01
1.228637839e+00,8.50143e-01,9.99999e-01,9.99999e-01,8.68674e-01,9.79034e-01,9.99623e-01
