#,Wave/freq,Total,N2,O2,H2O,Rayleigh,CIA
4.000000000e-01,9.21235e-01,9.99999e-01,9.99999e-01,9.99990e-01,9.21243e-01,9.99999e-01
4.020000000e-01,9.22733e-01,9.99999e-01,9.99999e-01,9.99993e-01,9.22738e-01,9.99999e-01
4.040100000e-01,9.24203e-01,9.99999e-01,9.99999e-01,9.99997e-01,9.24205e-01,9.99999e-01
4.060300500e-01,9.25645e-01,9.99999e-01,9.99999e-01,9.99998e-01,9.25645e-01,9.99999e-01
4.080602003e-01,9.27059e-01,9.99999e-01,9.99999e-01,9.99999e-01,9.27059e-01,9.99999e-01
4.101005013e-01,9.28447e-01,9.99999e-01,9.99999e-01,9.99999e-01,9.28447e-01,9.99999e-01
4.121510038e-01,9.29809e-01,9.99999e-01,9.99999e-01,9.99999e-01,9.29809e-01,9.99999e-01
4.142117588e-01,9.31144e-01,9.99999e-01,9.99999e-01,9.99996e-01,9.31147e-01,9.99999e-01
4.162828176e-01,9.32449e-01,9.99999e-01,9.99999e-01,9.99988e-01,9.32460e-01,9.99999e-01
4.183642317e-01,9.33742e-01,9.99999e-01,9.99999e-01,9.99992e-01,9.33749e-01,9.99999e-01
4.204560528e-01,9.35010e-01,9.99999e-01,9.99999e-01,9.99995e-01,9.35014e-01,9.99999e-01
4.225583331e-01,9.36254e-01,9.99999e-01,9.99999e-01,9.99997e-01,9.36256e-01,9.99999e-01
4.246711247e-01,9.37473e-01,9.99999e-01,9.99999e-01,9.99998e-01,9.37475e-01,9.99999e-01
4.267944804e-01,9.38669e-01,9.99999e-01,9.99999e-01,9.99997e-01,9.38671e-01,9.99999e-01
4.289284528e-01,9.39844e-01,9.99999e-01,9.99999e-01,9.99998e-01,9.39845e-01,9.99999e-01
4.310730950e-01,9.40997e-01,9.99999e-01,9.99999e-01,9.99998e-01,9.40997e-01,9.99999e-01
4.332284605e-01,9.42128e-01,9.99999e-01,9.99999e-01,9.99999e-01,9.42128e-01,9.99999e-01
4.353946028e-01,9.43238e-01,9.99999e-01,9.99999e-01,9.99999e-01,9.43238e-01,9.99999e-01
4.375715758e-01,9.44327e-01,9.99999e-01,9.99999e-01,9.99998e-01,9.44328e-01,9.99999e-01
4.397594337e-01,9.45387e-01,9.99999e-01,9.99999e-01,9.99989e-01,9.45397e-01,9.99999e-01
4.419582309e-01,9.46397e-01,9.99999e-01,9.99999e-01,9.99947e-01,9.46446e-01,9.99999e-01
4.441680220e-01,9.47438e-01,9.99999e-01,9.99999e-01,9.99959e-01,9.47476e-01,9.99999e-01
4.463888621e-01,9.48446e-01,9.99999e-01,9.99999e-01,9.99957e-01,9.48486e-01,9.99999e-01
4.486208064e-01,9.49453e-01,9.99999e-01,9.99999e-01,9.99973e-01,9.49477e-01,9.99999e-01
4.508639105e-01,9.50439e-01,9.99999e-01,9.99999e-01,9.99987e-01,9.50450e-01,9.99999e-01
4.531182300e-01,9.51400e-01,9.99999e-01,9.99999e-01,9.99994e-01,9.51404e-01,9.99999e-01
4.553838212e-01,9.52338e-01,9.99999e-01,9.99999e-01,9.99996e-01,9.52341e-01,9.99999e-01
4.576607403e-01,9.53259e-01,9.99999e-01,9.99999e-01,9.99998e-01,9.53260e-01,9.99999e-01
4.599490440e-01,9.54161e-01,9.99999e-01,9.99999e-01,9.99998e-01,9.54162e-01,9.99999e-01
4.622487892e-01,9.55046e-01,9.99999e-01,9.99999e-01,9.99999e-01,9.55047e-01,9.99999e-01
4.645600332e-01,9.55914e-01,9.99999e-01,9.99999e-01,9.99998e-01,9.55915e-01,9.99999e-01
4.668828333e-01,9.56755e-01,9.99999e-01,9.99999e-01,9.99987e-01,9.56766e-01,9.99999e-01
4.692172475e-01,9.57577e-01,9.99999e-01,9.99999e-01,9.99973e-01,9.57602e-01,9.99999e-01
4.715633337e-01,9.58405e-01,9.99999e-01,9.99999e-01,9.99982e-01,9.58422e-01,9.99999e-01
4.739211504e-01,9.59210e-01,9.99999e-01,9.99999e-01,9.99983e-01,9.59226e-01,9.99999e-01
4.762907561e-01,9.60007e-01,9.99999e-01,9.99999e-01,9.99991e-01,9.60015e-01,9.99999e-01
4.786722099e-01,9.60786e-01,9.99999e-01,9.99999e-01,9.99996e-01,9.60789e-01,9.99999e-01
4.810655710e-01,9.61547e-01,9.99999e-01,9.99999e-01,9.99998e-01,9.61548e-01,9.99999e-01
4.834708988e-01,9.62284e-01,9.99999e-01,9.99999e-01,9.99989e-01,9.62293e-01,9.99999e-01
4.858882533e-01,9.63007e-01,9.99999e-01,9.99999e-01,9.99981e-01,9.63024e-01,9.99999e-01
4.883176946e-01,9.63726e-01,9.99999e-01,9.99999e-01,9.99984e-01,9.63741e-01,9.99999e-01
4.907592831e-01,9.64431e-01,9.99999e-01,9.99999e-01,9.99985e-01,9.64445e-01,9.99999e-01
4.932130795e-01,9.65125e-01,9.99999e-01,9.99999e-01,9.99989e-01,9.65134e-01,9.99999e-01
4.956791449e-01,9.65806e-01,9.99999e-01,9.99999e-01,9.99994e-01,9.65811e-01,9.99999e-01
4.981575406e-01,9.66450e-01,9.99999e-01,9.99999e-01,9.99973e-01,9.66475e-01,9.99999e-01
5.006483283e-01,9.67059e-01,9.99999e-01,9.99999e-01,9.99930e-01,9.67126e-01,9.99999e-01
5.031515699e-01,9.67428e-01,9.99999e-01,9.99999e-01,9.99654e-01,9.67765e-01,9.99995e-01
5.056673278e-01,9.68212e-01,9.99999e-01,9.99999e-01,9.99818e-01,9.68391e-01,9.99995e-01
5.081956644e-01,9.68782e-01,9.99999e-01,9.99999e-01,9.99770e-01,9.69006e-01,9.99996e-01
5.107366428e-01,9.69459e-01,9.99999e-01,9.99999e-01,9.99845e-01,9.69609e-01,9.99999e-01
5.132903260e-01,9.70115e-01,9.99999e-01,9.99999e-01,9.99911e-01,9.70200e-01,9.99999e-01
5.158567776e-01,9.70744e-01,9.99999e-01,9.99999e-01,9.99962e-01,9.70780e-01,9.99999e-01
5.184360615e-01,9.71334e-01,9.99999e-01,9.99999e-01,9.99984e-01,9.71349e-01,9.99999e-01
5.210282418e-01,9.71901e-01,9.99999e-01,9.99999e-01,9.99993e-01,9.71907e-01,9.99999e-01
5.236333830e-01,9.72432e-01,9.99999e-01,9.99999e-01,9.99977e-01,9.72454e-01,9.99999e-01
5.262515499e-01,9.72977e-01,9.99999e-01,9.99999e-01,9.99985e-01,9.72991e-01,9.99999e-01
5.288828077e-01,9.73504e-01,9.99999e-01,9.99999e-01,9.99986e-01,9.73517e-01,9.99999e-01
5.315272217e-01,9.74022e-01,9.99999e-01,9.99999e-01,9.99988e-01,9.74033e-01,9.99999e-01
5.341848578e-01,9.74532e-01,9.99999e-01,9.99999e-01,9.99992e-01,9.74539e-01,9.99999e-01
5.368557821e-01,9.75010e-01,9.99999e-01,9.99999e-01,9.99973e-01,9.75036e-01,9.99999e-01
5.395400610e-01,9.75429e-01,9.99999e-01,9.99999e-01,9.99904e-01,9.75523e-01,9.99998e-01
5.422377613e-01,9.75880e-01,9.99999e-01,9.99999e-01,9.99878e-01,9.76001e-01,9.99997e-01
5.449489501e-01,9.76356e-01,9.99999e-01,9.99999e-01,9.99885e-01,9.76469e-01,9.99997e-01
5.476736949e-01,9.76830e-01,9.99999e-01,9.99999e-01,9.99899e-01,9.76928e-01,9.99998e-01
5.504120634e-01,9.77308e-01,9.99999e-01,9.99999e-01,9.99926e-01,9.77379e-01,9.99999e-01
5.531641237e-01,9.77785e-01,9.99999e-01,9.99999e-01,9.99963e-01,9.77821e-01,9.99999e-01
5.559299443e-01,9.78237e-01,9.99999e-01,9.99999e-01,9.99981e-01,9.78254e-01,9.99999e-01
5.587095940e-01,9.78668e-01,9.99999e-01,9.99999e-01,9.99988e-01,9.78679e-01,9.99999e-01
5.615031420e-01,9.79083e-01,9.99999e-01,9.99999e-01,9.99987e-01,9.79096e-01,9.99999e-01
5.643106577e-01,9.79490e-01,9.99999e-01,9.99999e-01,9.99985e-01,9.79504e-01,9.99999e-01
5.671322110e-01,9.79734e-01,9.99999e-01,9.99999e-01,9.99826e-01,9.79905e-01,9.99997e-01
5.699678720e-01,9.80118e-01,9.99999e-01,9.99999e-01,9.99820e-01,9.80298e-01,9.99994e-01
5.728177114e-01,9.80494e-01,9.99999e-01,9.99999e-01,9.99810e-01,9.80683e-01,9.99995e-01
5.756818000e-01,9.80889e-01,9.99999e-01,9.99999e-01,9.99826e-01,9.81061e-01,9.99997e-01
5.785602090e-01,9.81283e-01,9.99999e-01,9.99999e-01,9.99849e-01,9.81432e-01,9.99998e-01
5.814530100e-01,9.81646e-01,9.99999e-01,9.99999e-01,9.99848e-01,9.81795e-01,9.99999e-01
5.843602750e-01,9.81972e-01,9.99999e-01,9.99999e-01,9.99817e-01,9.82151e-01,9.99998e-01
5.872820764e-01,9.80949e-01,9.99999e-01,9.99999e-01,9.98431e-01,9.82501e-01,9.99988e-01
5.902184868e-01,9.80964e-01,9.99999e-01,9.99999e-01,9.98117e-01,9.82844e-01,9.99969e-01
5.931695792e-01,9.81840e-01,9.99999e-01,9.99999e-01,9.98665e-01,9.83180e-01,9.99970e-01
5.961354271e-01,9.82058e-01,9.99999e-01,9.99999e-01,9.98540e-01,9.83509e-01,9.99983e-01
5.991161043e-01,9.82782e-01,9.99999e-01,9.99999e-01,9.98936e-01,9.83832e-01,9.99994e-01
6.021116848e-01,9.83556e-01,9.99999e-01,9.99999e-01,9.99397e-01,9.84149e-01,9.99998e-01
6.051222432e-01,9.84160e-01,9.99999e-01,9.99999e-01,9.99695e-01,9.84460e-01,9.99999e-01
6.081478544e-01,9.84635e-01,9.99999e-01,9.99999e-01,9.99868e-01,9.84764e-01,9.99999e-01
6.111885937e-01,9.85008e-01,9.99999e-01,9.99999e-01,9.99944e-01,9.85063e-01,9.99999e-01
6.142445367e-01,9.85331e-01,9.99999e-01,9.99999e-01,9.99974e-01,9.85356e-01,9.99999e-01
6.173157594e-01,9.85629e-01,9.99999e-01,9.99999e-01,9.99985e-01,9.85643e-01,9.99999e-01
6.204023382e-01,9.85913e-01,9.99999e-01,9.99999e-01,9.99987e-01,9.85924e-01,9.99999e-01
6.235043498e-01,9.86149e-01,9.99999e-01,9.99999e-01,9.99947e-01,9.86200e-01,9.99999e-01
6.266218716e-01,9.86202e-01,9.99999e-01,9.99999e-01,9.99728e-01,9.86471e-01,9.99997e-01
6.297549810e-01,9.86635e-01,9.99999e-01,9.99999e-01,9.99899e-01,9.86737e-01,9.99995e-01
6.329037559e-01,9.86800e-01,9.99999e-01,9.99999e-01,9.99803e-01,9.86997e-01,9.99996e-01
6.360682746e-01,9.87085e-01,9.99999e-01,9.99999e-01,9.99831e-01,9.87252e-01,9.99997e-01
6.392486160e-01,9.87287e-01,9.99999e-01,9.99999e-01,9.99782e-01,9.87502e-01,9.99998e-01
6.424448591e-01,9.87457e-01,9.99999e-01,9.99999e-01,9.99706e-01,9.87748e-01,9.99998e-01
6.456570834e-01,9.86637e-01,9.99999e-01,9.99999e-01,9.98639e-01,9.87988e-01,9.99991e-01
6.488853688e-01,9.87230e-01,9.99999e-01,9.99999e-01,9.99014e-01,9.88224e-01,9.99978e-01
6.521297956e-01,9.87446e-01,9.99999e-01,9.99999e-01,9.98995e-01,9.88455e-01,9.99982e-01
6.553904446e-01,9.87677e-01,9.99999e-01,9.99999e-01,9.98996e-01,9.88682e-01,9.99986e-01
6.586673968e-01,9.88054e-01,9.99999e-01,9.99999e-01,9.99143e-01,9.88904e-01,9.99995e-01
6.619607338e-01,9.88650e-01,9.99999e-01,9.99999e-01,9.99522e-01,9.89122e-01,9.99998e-01
6.652705375e-01,9.89052e-01,9.99999e-01,9.99999e-01,9.99713e-01,9.89336e-01,9.99999e-01
6.685968902e-01,9.89425e-01,9.99999e-01,9.99999e-01,9.99878e-01,9.89545e-01,9.99999e-01
6.719398746e-01,9.89690e-01,9.99999e-01,9.99999e-01,9.99938e-01,9.89751e-01,9.99999e-01
6.752995740e-01,9.89920e-01,9.99999e-01,9.99999e-01,9.99967e-01,9.89952e-01,9.99999e-01
6.786760719e-01,9.90101e-01,9.99999e-01,9.99999e-01,9.99950e-01,9.90150e-01,9.99999e-01
6.820694522e-01,9.90260e-01,9.99999e-01,9.99999e-01,9.99915e-01,9.90343e-01,9.99999e-01
6.854797995e-01,9.90426e-01,9.99999e-01,9.99999e-01,9.99892e-01,9.90533e-01,9.99998e-01
6.889071985e-01,9.90457e-01,9.99999e-01,9.99999e-01,9.99736e-01,9.90719e-01,9.99997e-01
6.923517345e-01,9.86671e-01,9.99999e-01,9.99999e-01,9.95750e-01,9.90902e-01,9.99979e-01
6.958134932e-01,9.88890e-01,9.99999e-01,9.99999e-01,9.97833e-01,9.91081e-01,9.99954e-01
6.992925606e-01,9.89136e-01,9.99999e-01,9.99999e-01,9.97900e-01,9.91256e-01,9.99959e-01
7.027890234e-01,9.88849e-01,9.99999e-01,9.99999e-01,9.97429e-01,9.91428e-01,9.99968e-01
7.063029686e-01,9.89437e-01,9.99999e-01,9.99999e-01,9.97837e-01,9.91596e-01,9.99984e-01
7.098344834e-01,9.89695e-01,9.99999e-01,9.99999e-01,9.97924e-01,9.91762e-01,9.99990e-01
7.133836558e-01,9.89128e-01,9.99999e-01,9.99999e-01,9.97198e-01,9.91924e-01,9.99981e-01
7.169505741e-01,9.69829e-01,9.99999e-01,9.99999e-01,9.77706e-01,9.92083e-01,9.99857e-01
7.205353270e-01,9.81324e-01,9.99999e-01,9.99999e-01,9.89246e-01,9.92238e-01,9.99749e-01
7.241380036e-01,9.78435e-01,9.99999e-01,9.99999e-01,9.86148e-01,9.92391e-01,9.99783e-01
7.277586936e-01,9.79966e-01,9.99999e-01,9.99999e-01,9.87504e-01,9.92541e-01,9.99823e-01
7.313974871e-01,9.79522e-01,9.99999e-01,9.99999e-01,9.86818e-01,9.92688e-01,9.99916e-01
7.350544745e-01,9.85629e-01,9.99999e-01,9.99999e-01,9.92773e-01,9.92832e-01,9.99970e-01
7.387297469e-01,9.87683e-01,9.99999e-01,9.99999e-01,9.94685e-01,9.92973e-01,9.99986e-01
7.424233956e-01,9.90531e-01,9.99999e-01,9.99999e-01,9.97403e-01,9.93111e-01,9.99997e-01
7.461355126e-01,9.91681e-01,9.99999e-01,9.99999e-01,9.98424e-01,9.93247e-01,9.99999e-01
7.498661902e-01,9.92653e-01,9.99999e-01,9.99999e-01,9.99268e-01,9.93379e-01,9.99999e-01
7.536155211e-01,9.93152e-01,9.99999e-01,9.99999e-01,9.99639e-01,9.93510e-01,9.99999e-01
7.573835987e-01,9.93454e-01,9.99999e-01,9.99999e-01,9.99814e-01,9.93638e-01,9.99999e-01
7.611705167e-01,9.93648e-01,9.99999e-01,9.99999e-01,9.99884e-01,9.93763e-01,9.99999e-01
7.649763693e-01,9.93814e-01,9.99999e-01,9.99999e-01,9.99927e-01,9.93886e-01,9.99999e-01
7.688012511e-01,9.93956e-01,9.99999e-01,9.99999e-01,9.99949e-01,9.94006e-01,9.99999e-01
7.726452574e-01,9.94083e-01,9.99999e-01,9.99999e-01,9.99958e-01,9.94124e-01,9.99999e-01
7.765084837e-01,9.94181e-01,9.99999e-01,9.99999e-01,9.99940e-01,9.94240e-01,9.99999e-01
7.803910261e-01,9.94097e-01,9.99999e-01,9.99999e-01,9.99742e-01,9.94353e-01,9.99999e-01
7.842929812e-01,9.93570e-01,9.99999e-01,9.99999e-01,9.99102e-01,9.94464e-01,9.99997e-01
7.882144461e-01,9.92738e-01,9.99999e-01,9.99999e-01,9.98166e-01,9.94573e-01,9.99986e-01
7.921555184e-01,9.93664e-01,9.99999e-01,9.99999e-01,9.98999e-01,9.94680e-01,9.99977e-01
7.961162960e-01,9.92986e-01,9.99999e-01,9.99999e-01,9.98211e-01,9.94785e-01,9.99978e-01
8.000968774e-01,9.92824e-01,9.99999e-01,9.99999e-01,9.97946e-01,9.94888e-01,9.99977e-01
8.040973618e-01,9.92926e-01,9.99999e-01,9.99999e-01,9.97943e-01,9.94989e-01,9.99982e-01
8.081178486e-01,9.90429e-01,9.99999e-01,9.99999e-01,9.95335e-01,9.95087e-01,9.99982e-01
8.121584379e-01,9.75892e-01,9.99999e-01,9.99999e-01,9.80677e-01,9.95184e-01,9.99934e-01
8.162192301e-01,9.72453e-01,9.99999e-01,9.99999e-01,9.77302e-01,9.95279e-01,9.99756e-01
8.203003262e-01,9.83504e-01,9.99999e-01,9.99999e-01,9.88358e-01,9.95372e-01,9.99714e-01
8.244018279e-01,9.79446e-01,9.99999e-01,9.99999e-01,9.84132e-01,9.95463e-01,9.99772e-01
8.285238370e-01,9.81774e-01,9.99999e-01,9.99999e-01,9.86335e-01,9.95552e-01,9.99821e-01
8.326664562e-01,9.81864e-01,9.99999e-01,9.99999e-01,9.86236e-01,9.95640e-01,9.99925e-01
8.368297885e-01,9.85939e-01,9.99999e-01,9.99999e-01,9.90187e-01,9.95726e-01,9.99982e-01
8.410139374e-01,9.89991e-01,9.99999e-01,9.99999e-01,9.94165e-01,9.95810e-01,9.99989e-01
8.452190071e-01,9.93040e-01,9.99999e-01,9.99999e-01,9.97140e-01,9.95893e-01,9.99993e-01
8.494451021e-01,9.94311e-01,9.99999e-01,9.99999e-01,9.98334e-01,9.95974e-01,9.99994e-01
8.536923276e-01,9.95073e-01,9.99999e-01,9.99999e-01,9.99018e-01,9.96053e-01,9.99996e-01
8.579607893e-01,9.95527e-01,9.99999e-01,9.99999e-01,9.99393e-01,9.96131e-01,9.99998e-01
8.622505932e-01,9.95824e-01,9.99999e-01,9.99999e-01,9.99615e-01,9.96207e-01,9.99999e-01
8.665618462e-01,9.96044e-01,9.99999e-01,9.99999e-01,9.99761e-01,9.96282e-01,9.99999e-01
8.708946554e-01,9.96083e-01,9.99999e-01,9.99999e-01,9.99725e-01,9.96355e-01,9.99999e-01
8.752491287e-01,9.96062e-01,9.99999e-01,9.99999e-01,9.99633e-01,9.96427e-01,9.99999e-01
8.796253743e-01,9.95990e-01,9.99999e-01,9.99999e-01,9.99491e-01,9.96498e-01,9.99998e-01
8.840235012e-01,9.95985e-01,9.99999e-01,9.99999e-01,9.99419e-01,9.96567e-01,9.99995e-01
8.884436187e-01,9.94475e-01,9.99999e-01,9.99999e-01,9.97843e-01,9.96634e-01,9.99989e-01
8.928858368e-01,9.74408e-01,9.99999e-01,9.99999e-01,9.77689e-01,9.96701e-01,9.99941e-01
8.973502660e-01,9.57761e-01,9.99999e-01,9.99999e-01,9.61152e-01,9.96766e-01,9.99703e-01
9.018370173e-01,9.76572e-01,9.99999e-01,9.99999e-01,9.80133e-01,9.96829e-01,9.99534e-01
9.063462024e-01,9.78782e-01,9.99999e-01,9.99999e-01,9.82234e-01,9.96892e-01,9.99590e-01
9.108779334e-01,9.69187e-01,9.99999e-01,9.99999e-01,9.72561e-01,9.96953e-01,9.99574e-01
9.154323231e-01,9.65749e-01,9.99999e-01,9.99999e-01,9.68981e-01,9.97013e-01,9.99648e-01
9.200094847e-01,9.72615e-01,9.99999e-01,9.99999e-01,9.75662e-01,9.97072e-01,9.99803e-01
9.246095321e-01,9.57943e-01,9.99999e-01,9.99999e-01,9.60917e-01,9.97130e-01,9.99773e-01
9.292325798e-01,7.63559e-01,9.99999e-01,9.99999e-01,7.66549e-01,9.97186e-01,9.98907e-01
9.338787427e-01,7.06041e-01,9.99999e-01,9.99999e-01,7.10795e-01,9.97242e-01,9.96056e-01
9.385481364e-01,8.65982e-01,9.99999e-01,9.99999e-01,8.72106e-01,9.97296e-01,9.95668e-01
9.432408771e-01,8.17640e-01,9.99999e-01,9.99999e-01,8.22888e-01,9.97350e-01,9.96262e-01
9.479570815e-01,7.56809e-01,9.99999e-01,9.99999e-01,7.61095e-01,9.97402e-01,9.96956e-01
9.526968669e-01,8.15514e-01,9.99999e-01,9.99999e-01,8.19117e-01,9.97453e-01,9.98142e-01
9.574603512e-01,8.32248e-01,9.99999e-01,9.99999e-01,8.35118e-01,9.97503e-01,9.99055e-01
9.622476530e-01,8.61930e-01,9.99999e-01,9.99999e-01,8.64608e-01,9.97553e-01,9.99346e-01
9.670588912e-01,9.17020e-01,9.99999e-01,9.99999e-01,9.19635e-01,9.97601e-01,9.99553e-01
9.718941857e-01,9.46654e-01,9.99999e-01,9.99999e-01,9.49197e-01,9.97648e-01,9.99670e-01
9.767536566e-01,9.55202e-01,9.99999e-01,9.99999e-01,9.57649e-01,9.97695e-01,9.99748e-01
9.816374249e-01,9.66287e-01,9.99999e-01,9.99999e-01,9.68559e-01,9.97740e-01,9.99912e-01
9.865456120e-01,9.78075e-01,9.99999e-01,9.99999e-01,9.80263e-01,9.97785e-01,9.99981e-01
9.914783401e-01,9.85608e-01,9.99999e-01,9.99999e-01,9.87757e-01,9.97828e-01,9.99994e-01
9.964357318e-01,9.91201e-01,9.99999e-01,9.99999e-01,9.93317e-01,9.97871e-01,9.99996e-01
1.001417910e+00,9.93911e-01,9.99999e-01,9.99999e-01,9.95993e-01,9.97913e-01,9.99995e-01
1.006425000e+00,9.95663e-01,9.99999e-01,9.99999e-01,9.97709e-01,9.97954e-01,9.99993e-01
1.011457125e+00,9.96574e-01,9.99999e-01,9.99999e-01,9.98581e-01,9.97995e-01,9.99993e-01
1.016514411e+00,9.97068e-01,9.99999e-01,9.99999e-01,9.99035e-01,9.98034e-01,9.99995e-01
1.021596983e+00,9.97302e-01,9.99999e-01,9.99999e-01,9.99230e-01,9.98073e-01,9.99995e-01
1.026704968e+00,9.97510e-01,9.99999e-01,9.99999e-01,9.99399e-01,9.98111e-01,9.99996e-01
1.031838492e+00,9.97713e-01,9.99999e-01,9.99999e-01,9.99564e-01,9.98148e-01,9.99998e-01
1.036997685e+00,9.97926e-01,9.99999e-01,9.99999e-01,9.99740e-01,9.98185e-01,9.99999e-01
1.042182673e+00,9.97911e-01,9.99999e-01,9.99999e-01,9.99689e-01,9.98221e-01,9.99999e-01
1.047393587e+00,9.97846e-01,9.99999e-01,9.99999e-01,9.99589e-01,9.98256e-01,9.99999e-01
1.052630555e+00,9.97727e-01,9.99999e-01,9.99999e-01,9.99435e-01,9.98290e-01,9.99999e-01
1.057893707e+00,9.97383e-01,9.99999e-01,9.99999e-01,9.99057e-01,9.98324e-01,9.99999e-01
1.063183176e+00,9.96809e-01,9.99999e-01,9.99999e-01,9.98450e-01,9.98357e-01,9.99998e-01
1.068499092e+00,9.95801e-01,9.99999e-01,9.99999e-01,9.97408e-01,9.98389e-01,9.99997e-01
1.073841587e+00,9.95383e-01,9.99999e-01,9.99999e-01,9.96960e-01,9.98421e-01,9.99995e-01
1.079210795e+00,9.94569e-01,9.99999e-01,9.99999e-01,9.96120e-01,9.98452e-01,9.99989e-01
1.084606849e+00,9.92587e-01,9.99999e-01,9.99999e-01,9.94119e-01,9.98483e-01,9.99974e-01
1.090029883e+00,9.89980e-01,9.99999e-01,9.99999e-01,9.91504e-01,9.98513e-01,9.99947e-01
1.095480033e+00,9.75546e-01,9.99999e-01,9.99999e-01,9.77060e-01,9.98542e-01,9.99906e-01
1.100957433e+00,9.41102e-01,9.99999e-01,9.99999e-01,9.42610e-01,9.98571e-01,9.99827e-01
1.106462220e+00,8.57710e-01,9.99999e-01,9.99999e-01,8.59163e-01,9.98599e-01,9.99708e-01
1.111994531e+00,7.24989e-01,9.99999e-01,9.99999e-01,7.26547e-01,9.98627e-01,9.99226e-01
1.117554504e+00,5.92434e-01,9.99999e-01,9.99999e-01,5.94889e-01,9.98654e-01,9.97213e-01
1.123142276e+00,6.73249e-01,9.99999e-01,9.99999e-01,6.78614e-01,9.98680e-01,9.93404e-01
1.128757988e+00,7.75042e-01,9.99999e-01,9.99999e-01,7.82008e-01,9.98706e-01,9.92374e-01
1.134401778e+00,5.51757e-01,9.99999e-01,9.99999e-01,5.56064e-01,9.98732e-01,9.93511e-01
1.140073787e+00,8.59638e-01,9.99999e-01,9.99999e-01,8.65195e-01,9.98757e-01,9.94812e-01
1.145774156e+00,7.33138e-01,9.99999e-01,9.99999e-01,7.37534e-01,9.98781e-01,9.95250e-01
1.151503026e+00,7.07719e-01,9.99999e-01,9.99999e-01,7.10446e-01,9.98805e-01,9.97351e-01
1.157260541e+00,7.54615e-01,9.99999e-01,9.99999e-01,7.56098e-01,9.98829e-01,9.99206e-01
1.163046844e+00,8.13091e-01,9.99999e-01,9.99999e-01,8.14207e-01,9.98852e-01,9.99774e-01
1.168862078e+00,8.66677e-01,9.99999e-01,9.99999e-01,8.67753e-01,9.98875e-01,9.99883e-01
1.174706389e+00,9.15047e-01,9.99999e-01,9.99999e-01,9.16197e-01,9.98897e-01,9.99846e-01
1.180579921e+00,9.46935e-01,9.99999e-01,9.99999e-01,9.48179e-01,9.98919e-01,9.99767e-01
1.186482820e+00,9.69145e-01,9.99999e-01,9.99999e-01,9.70404e-01,9.98940e-01,9.99761e-01
1.192415234e+00,9.81424e-01,9.99999e-01,9.99999e-01,9.82619e-01,9.98961e-01,9.99821e-01
1.198377311e+00,9.84134e-01,9.99999e-01,9.99999e-01,9.85304e-01,9.98981e-01,9.99830e-01
1.204369197e+00,9.84961e-01,9.99999e-01,9.99999e-01,9.86090e-01,9.99001e-01,9.99852e-01
1.210391043e+00,9.85647e-01,9.99999e-01,9.99999e-01,9.86703e-01,9.99021e-01,9.99906e-01
1.216442998e+00,9.87698e-01,9.99999e-01,9.99999e-01,9.88702e-01,9.99040e-01,9.99942e-01
1.222525213e+00,9.90224e-01,9.99999e-01,9.99999e-01,9.91190e-01,9.99059e-01,9.99964e-01
1.228637839e+00,9.92940e-01,9.99999e-01,9.99999e-01,9.93872e-01,9.99078e-01,9.99983e-01
