#,Wave/freq,Total,N2,O2,H2O,Rayleigh,CIA
4.000000000e-01,7.98226e-01,9.99999e-01,9.99999e-01,9.99974e-01,7.98246e-01,9.99999e-01
4.020000000e-01,8.01798e-01,9.99999e-01,9.99999e-01,9.99983e-01,8.01811e-01,9.99999e-01
4.040100000e-01,8.05311e-01,9.99999e-01,9.99999e-01,9.99992e-01,8.05317e-01,9.99999e-01
4.060300500e-01,8.08767e-01,9.99999e-01,9.99999e-01,9.99997e-01,8.08768e-01,9.99999e-01
4.080602003e-01,8.12165e-01,9.99999e-01,9.99999e-01,9.99999e-01,8.12166e-01,9.99999e-01
4.101005013e-01,8.15510e-01,9.99999e-01,9.99999e-01,9.99999e-01,8.15510e-01,9.99999e-01
4.121510038e-01,8.18801e-01,9.99999e-01,9.99999e-01,9.99998e-01,8.18802e-01,9.99999e-01
4.142117588e-01,8.22036e-01,9.99999e-01,9.99999e-01,9.99992e-01,8.22042e-01,9.99999e-01
4.162828176e-01,8.25204e-01,9.99999e-01,9.99999e-01,9.99968e-01,8.25230e-01,9.99999e-01
4.183642317e-01,8.28351e-01,9.99999e-01,9.99999e-01,9.99980e-01,8.28367e-01,9.99999e-01
4.204560528e-01,8.31444e-01,9.99999e-01,9.99999e-01,9.99988e-01,8.31454e-01,9.99999e-01
4.225583331e-01,8.34487e-01,9.99999e-01,9.99999e-01,9.99995e-01,8.34491e-01,9.99999e-01
4.246711247e-01,8.37475e-01,9.99999e-01,9.99999e-01,9.99996e-01,8.37478e-01,9.99999e-01
4.267944804e-01,8.40413e-01,9.99999e-01,9.99999e-01,9.99994e-01,8.40417e-01,9.99999e-01
4.289284528e-01,8.43305e-01,9.99999e-01,9.99999e-01,9.99995e-01,8.43308e-01,9.99999e-01
4.310730950e-01,8.46151e-01,9.99999e-01,9.99999e-01,9.99997e-01,8.46152e-01,9.99999e-01
4.332284605e-01,8.48948e-01,9.99999e-01,9.99999e-01,9.99999e-01,8.48949e-01,9.99999e-01
4.353946028e-01,8.51699e-01,9.99999e-01,9.99999e-01,9.99999e-01,8.51699e-01,9.99999e-01
4.375715758e-01,8.54401e-01,9.99999e-01,9.99999e-01,9.99996e-01,8.54404e-01,9.99999e-01
4.397594337e-01,8.57040e-01,9.99999e-01,9.99999e-01,9.99972e-01,8.57064e-01,9.99999e-01
4.419582309e-01,8.59559e-01,9.99999e-01,9.99999e-01,9.99860e-01,8.59679e-01,9.99999e-01
4.441680220e-01,8.62155e-01,9.99999e-01,9.99999e-01,9.99889e-01,8.62250e-01,9.99999e-01
4.463888621e-01,8.64679e-01,9.99999e-01,9.99999e-01,9.99885e-01,8.64778e-01,9.99999e-01
4.486208064e-01,8.67201e-01,9.99999e-01,9.99999e-01,9.99928e-01,8.67263e-01,9.99999e-01
4.508639105e-01,8.69677e-01,9.99999e-01,9.99999e-01,9.99966e-01,8.69706e-01,9.99999e-01
4.531182300e-01,8.72096e-01,9.99999e-01,9.99999e-01,9.99986e-01,8.72108e-01,9.99999e-01
4.553838212e-01,8.74460e-01,9.99999e-01,9.99999e-01,9.99990e-01,8.74468e-01,9.99999e-01
4.576607403e-01,8.76784e-01,9.99999e-01,9.99999e-01,9.99995e-01,8.76788e-01,9.99999e-01
4.599490440e-01,8.79066e-01,9.99999e-01,9.99999e-01,9.99996e-01,8.79068e-01,9.99999e-01
4.622487892e-01,8.81309e-01,9.99999e-01,9.99999e-01,9.99999e-01,8.81309e-01,9.99999e-01
4.645600332e-01,8.83510e-01,9.99999e-01,9.99999e-01,9.99997e-01,8.83511e-01,9.99999e-01
4.668828333e-01,8.85646e-01,9.99999e-01,9.99999e-01,9.99966e-01,8.85675e-01,9.99999e-01
4.692172475e-01,8.87738e-01,9.99999e-01,9.99999e-01,9.99927e-01,8.87802e-01,9.99999e-01
4.715633337e-01,8.89850e-01,9.99999e-01,9.99999e-01,9.99952e-01,8.89891e-01,9.99999e-01
4.739211504e-01,8.91904e-01,9.99999e-01,9.99999e-01,9.99954e-01,8.91944e-01,9.99999e-01
4.762907561e-01,8.93940e-01,9.99999e-01,9.99999e-01,9.99976e-01,8.93961e-01,9.99999e-01
4.786722099e-01,8.95934e-01,9.99999e-01,9.99999e-01,9.99990e-01,8.95942e-01,9.99999e-01
4.810655710e-01,8.97887e-01,9.99999e-01,9.99999e-01,9.99996e-01,8.97889e-01,9.99999e-01
4.834708988e-01,8.99777e-01,9.99999e-01,9.99999e-01,9.99972e-01,8.99801e-01,9.99999e-01
4.858882533e-01,9.01634e-01,9.99999e-01,9.99999e-01,9.99948e-01,9.01680e-01,9.99999e-01
4.883176946e-01,9.03487e-01,9.99999e-01,9.99999e-01,9.99957e-01,9.03525e-01,9.99999e-01
4.907592831e-01,9.05303e-01,9.99999e-01,9.99999e-01,9.99961e-01,9.05337e-01,9.99999e-01
4.932130795e-01,9.07093e-01,9.99999e-01,9.99999e-01,9.99972e-01,9.07118e-01,9.99999e-01
4.956791449e-01,9.08853e-01,9.99999e-01,9.99999e-01,9.99985e-01,9.08866e-01,9.99999e-01
4.981575406e-01,9.10518e-01,9.99999e-01,9.99999e-01,9.99927e-01,9.10583e-01,9.99999e-01
5.006483283e-01,9.12099e-01,9.99999e-01,9.99999e-01,9.99814e-01,9.12269e-01,9.99998e-01
5.031515699e-01,9.13053e-01,9.99999e-01,9.99999e-01,9.99055e-01,9.13925e-01,9.99989e-01
5.056673278e-01,9.15084e-01,9.99999e-01,9.99999e-01,9.99500e-01,9.15552e-01,9.99988e-01
5.081956644e-01,9.16564e-01,9.99999e-01,9.99999e-01,9.99369e-01,9.17149e-01,9.99992e-01
5.107366428e-01,9.18325e-01,9.99999e-01,9.99999e-01,9.99574e-01,9.18717e-01,9.99998e-01
5.132903260e-01,9.20032e-01,9.99999e-01,9.99999e-01,9.99756e-01,9.20256e-01,9.99999e-01
5.158567776e-01,9.21673e-01,9.99999e-01,9.99999e-01,9.99896e-01,9.21768e-01,9.99999e-01
5.184360615e-01,9.23215e-01,9.99999e-01,9.99999e-01,9.99958e-01,9.23253e-01,9.99999e-01
5.210282418e-01,9.24696e-01,9.99999e-01,9.99999e-01,9.99984e-01,9.24710e-01,9.99999e-01
5.236333830e-01,9.26083e-01,9.99999e-01,9.99999e-01,9.99937e-01,9.26141e-01,9.99999e-01
5.262515499e-01,9.27509e-01,9.99999e-01,9.99999e-01,9.99960e-01,9.27545e-01,9.99998e-01
5.288828077e-01,9.28891e-01,9.99999e-01,9.99999e-01,9.99964e-01,9.28924e-01,9.99999e-01
5.315272217e-01,9.30249e-01,9.99999e-01,9.99999e-01,9.99968e-01,9.30278e-01,9.99999e-01
5.341848578e-01,9.31588e-01,9.99999e-01,9.99999e-01,9.99979e-01,9.31607e-01,9.99999e-01
5.368557821e-01,9.32845e-01,9.99999e-01,9.99999e-01,9.99928e-01,9.32912e-01,9.99999e-01
5.395400610e-01,9.33950e-01,9.99999e-01,9.99999e-01,9.99742e-01,9.34192e-01,9.99997e-01
5.422377613e-01,9.35130e-01,9.99999e-01,9.99999e-01,9.99664e-01,9.35449e-01,9.99993e-01
5.449489501e-01,9.36386e-01,9.99999e-01,9.99999e-01,9.99689e-01,9.36683e-01,9.99993e-01
5.476736949e-01,9.37632e-01,9.99999e-01,9.99999e-01,9.99723e-01,9.37894e-01,9.99996e-01
5.504120634e-01,9.38894e-01,9.99999e-01,9.99999e-01,9.99799e-01,9.39082e-01,9.99998e-01
5.531641237e-01,9.40154e-01,9.99999e-01,9.99999e-01,9.99898e-01,9.40249e-01,9.99999e-01
5.559299443e-01,9.41348e-01,9.99999e-01,9.99999e-01,9.99950e-01,9.41394e-01,9.99999e-01
5.587095940e-01,9.42489e-01,9.99999e-01,9.99999e-01,9.99969e-01,9.42518e-01,9.99999e-01
5.615031420e-01,9.43588e-01,9.99999e-01,9.99999e-01,9.99965e-01,9.43620e-01,9.99999e-01
5.643106577e-01,9.44666e-01,9.99999e-01,9.99999e-01,9.99961e-01,9.44703e-01,9.99999e-01
5.671322110e-01,9.45323e-01,9.99999e-01,9.99999e-01,9.99536e-01,9.45765e-01,9.99995e-01
5.699678720e-01,9.46322e-01,9.99999e-01,9.99999e-01,9.99500e-01,9.46807e-01,9.99986e-01
5.728177114e-01,9.47330e-01,9.99999e-01,9.99999e-01,9.99482e-01,9.47830e-01,9.99988e-01
5.756818000e-01,9.48377e-01,9.99999e-01,9.99999e-01,9.99524e-01,9.48833e-01,9.99993e-01
5.785602090e-01,9.49423e-01,9.99999e-01,9.99999e-01,9.99585e-01,9.49818e-01,9.99997e-01
5.814530100e-01,9.50389e-01,9.99999e-01,9.99999e-01,9.99583e-01,9.50785e-01,9.99998e-01
5.843602750e-01,9.51261e-01,9.99999e-01,9.99999e-01,9.99505e-01,9.51733e-01,9.99996e-01
5.872820764e-01,9.48582e-01,9.99999e-01,9.99999e-01,9.95745e-01,9.52663e-01,9.99969e-01
5.902184868e-01,9.48563e-01,9.99999e-01,9.99999e-01,9.94823e-01,9.53576e-01,9.99917e-01
5.931695792e-01,9.50911e-01,9.99999e-01,9.99999e-01,9.96346e-01,9.54472e-01,9.99920e-01
5.961354271e-01,9.51479e-01,9.99999e-01,9.99999e-01,9.95991e-01,9.55351e-01,9.99954e-01
5.991161043e-01,9.53402e-01,9.99999e-01,9.99999e-01,9.97073e-01,9.56213e-01,9.99985e-01
6.021116848e-01,9.55467e-01,9.99999e-01,9.99999e-01,9.98337e-01,9.57059e-01,9.99997e-01
6.051222432e-01,9.57083e-01,9.99999e-01,9.99999e-01,9.99158e-01,9.57889e-01,9.99999e-01
6.081478544e-01,9.58356e-01,9.99999e-01,9.99999e-01,9.99636e-01,9.58704e-01,9.99999e-01
6.111885937e-01,9.59355e-01,9.99999e-01,9.99999e-01,9.99845e-01,9.59503e-01,9.99999e-01
6.142445367e-01,9.60221e-01,9.99999e-01,9.99999e-01,9.99930e-01,9.60286e-01,9.99999e-01
6.173157594e-01,9.61019e-01,9.99999e-01,9.99999e-01,9.99961e-01,9.61055e-01,9.99999e-01
6.204023382e-01,9.61779e-01,9.99999e-01,9.99999e-01,9.99967e-01,9.61810e-01,9.99999e-01
6.235043498e-01,9.62415e-01,9.99999e-01,9.99999e-01,9.99860e-01,9.62550e-01,9.99999e-01
6.266218716e-01,9.62554e-01,9.99999e-01,9.99999e-01,9.99255e-01,9.63276e-01,9.99994e-01
6.297549810e-01,9.63715e-01,9.99999e-01,9.99999e-01,9.99726e-01,9.63988e-01,9.99989e-01
6.329037559e-01,9.64157e-01,9.99999e-01,9.99999e-01,9.99459e-01,9.64686e-01,9.99991e-01
6.360682746e-01,9.64924e-01,9.99999e-01,9.99999e-01,9.99540e-01,9.65372e-01,9.99994e-01
6.392486160e-01,9.65466e-01,9.99999e-01,9.99999e-01,9.99403e-01,9.66044e-01,9.99997e-01
6.424448591e-01,9.65933e-01,9.99999e-01,9.99999e-01,9.99205e-01,9.66703e-01,9.99995e-01
6.456570834e-01,9.63766e-01,9.99999e-01,9.99999e-01,9.96314e-01,9.67350e-01,9.99979e-01
6.488853688e-01,9.65303e-01,9.99999e-01,9.99999e-01,9.97286e-01,9.67985e-01,9.99942e-01
6.521297956e-01,9.65882e-01,9.99999e-01,9.99999e-01,9.97234e-01,9.68607e-01,9.99951e-01
6.553904446e-01,9.66533e-01,9.99999e-01,9.99999e-01,9.97265e-01,9.69217e-01,9.99963e-01
6.586673968e-01,9.67518e-01,9.99999e-01,9.99999e-01,9.97642e-01,9.69816e-01,9.99987e-01
6.619607338e-01,9.69078e-01,9.99999e-01,9.99999e-01,9.98636e-01,9.70403e-01,9.99996e-01
6.652705375e-01,9.70211e-01,9.99999e-01,9.99999e-01,9.99209e-01,9.70979e-01,9.99998e-01
6.685968902e-01,9.71188e-01,9.99999e-01,9.99999e-01,9.99632e-01,9.71544e-01,9.99999e-01
6.719398746e-01,9.71933e-01,9.99999e-01,9.99999e-01,9.99829e-01,9.72099e-01,9.99999e-01
6.752995740e-01,9.72553e-01,9.99999e-01,9.99999e-01,9.99907e-01,9.72642e-01,9.99999e-01
6.786760719e-01,9.73046e-01,9.99999e-01,9.99999e-01,9.99867e-01,9.73175e-01,9.99999e-01
6.820694522e-01,9.73476e-01,9.99999e-01,9.99999e-01,9.99772e-01,9.73698e-01,9.99998e-01
6.854797995e-01,9.73923e-01,9.99999e-01,9.99999e-01,9.99707e-01,9.74211e-01,9.99996e-01
6.889071985e-01,9.74022e-01,9.99999e-01,9.99999e-01,9.99296e-01,9.74714e-01,9.99993e-01
6.923517345e-01,9.63936e-01,9.99999e-01,9.99999e-01,9.88497e-01,9.75207e-01,9.99944e-01
6.958134932e-01,9.69662e-01,9.99999e-01,9.99999e-01,9.93945e-01,9.75690e-01,9.99874e-01
6.992925606e-01,9.70496e-01,9.99999e-01,9.99999e-01,9.94301e-01,9.76165e-01,9.99889e-01
7.027890234e-01,9.69655e-01,9.99999e-01,9.99999e-01,9.92941e-01,9.76630e-01,9.99915e-01
7.063029686e-01,9.71248e-01,9.99999e-01,9.99999e-01,9.94065e-01,9.77086e-01,9.99957e-01
7.098344834e-01,9.71944e-01,9.99999e-01,9.99999e-01,9.94305e-01,9.77534e-01,9.99974e-01
7.133836558e-01,9.70553e-01,9.99999e-01,9.99999e-01,9.92462e-01,9.77973e-01,9.99950e-01
7.169505741e-01,9.20055e-01,9.99999e-01,9.99999e-01,9.40729e-01,9.78403e-01,9.99610e-01
7.205353270e-01,9.49102e-01,9.99999e-01,9.99999e-01,9.70299e-01,9.78825e-01,9.99313e-01
7.241380036e-01,9.42145e-01,9.99999e-01,9.99999e-01,9.62689e-01,9.79239e-01,9.99406e-01
7.277586936e-01,9.46130e-01,9.99999e-01,9.99999e-01,9.66256e-01,9.79645e-01,9.99515e-01
7.313974871e-01,9.44592e-01,9.99999e-01,9.99999e-01,9.64045e-01,9.80043e-01,9.99772e-01
7.350544745e-01,9.60967e-01,9.99999e-01,9.99999e-01,9.80222e-01,9.80433e-01,9.99920e-01
7.387297469e-01,9.66468e-01,9.99999e-01,9.99999e-01,9.85406e-01,9.80816e-01,9.99963e-01
7.424233956e-01,9.74148e-01,9.99999e-01,9.99999e-01,9.92828e-01,9.81191e-01,9.99992e-01
7.461355126e-01,9.77291e-01,9.99999e-01,9.99999e-01,9.95652e-01,9.81559e-01,9.99998e-01
7.498661902e-01,9.79928e-01,9.99999e-01,9.99999e-01,9.97971e-01,9.81920e-01,9.99999e-01
7.536155211e-01,9.81298e-01,9.99999e-01,9.99999e-01,9.99005e-01,9.82274e-01,9.99999e-01
7.573835987e-01,9.82118e-01,9.99999e-01,9.99999e-01,9.99487e-01,9.82621e-01,9.99999e-01
7.611705167e-01,9.82649e-01,9.99999e-01,9.99999e-01,9.99681e-01,9.82961e-01,9.99999e-01
7.649763693e-01,9.83099e-01,9.99999e-01,9.99999e-01,9.99800e-01,9.83295e-01,9.99999e-01
7.688012511e-01,9.83486e-01,9.99999e-01,9.99999e-01,9.99860e-01,9.83622e-01,9.99999e-01
7.726452574e-01,9.83831e-01,9.99999e-01,9.99999e-01,9.99885e-01,9.83943e-01,9.99999e-01
7.765084837e-01,9.84099e-01,9.99999e-01,9.99999e-01,9.99838e-01,9.84258e-01,9.99999e-01
7.803910261e-01,9.83880e-01,9.99999e-01,9.99999e-01,9.99302e-01,9.84566e-01,9.99998e-01
7.842929812e-01,9.82470e-01,9.99999e-01,9.99999e-01,9.97568e-01,9.84869e-01,9.99995e-01
7.882144461e-01,9.80184e-01,9.99999e-01,9.99999e-01,9.94973e-01,9.85165e-01,9.99968e-01
7.921555184e-01,9.82673e-01,9.99999e-01,9.99999e-01,9.97234e-01,9.85456e-01,9.99940e-01
7.961162960e-01,9.80898e-01,9.99999e-01,9.99999e-01,9.95142e-01,9.85742e-01,9.99942e-01
8.000968774e-01,9.80416e-01,9.99999e-01,9.99999e-01,9.94375e-01,9.86021e-01,9.99938e-01
8.040973618e-01,9.80703e-01,9.99999e-01,9.99999e-01,9.94377e-01,9.86295e-01,9.99951e-01
8.081178486e-01,9.74094e-01,9.99999e-01,9.99999e-01,9.87404e-01,9.86564e-01,9.99954e-01
8.121584379e-01,9.35790e-01,9.99999e-01,9.99999e-01,9.48448e-01,9.86828e-01,9.99821e-01
8.162192301e-01,9.26065e-01,9.99999e-01,9.99999e-01,9.38806e-01,9.87086e-01,9.99331e-01
8.203003262e-01,9.56306e-01,9.99999e-01,9.99999e-01,9.69325e-01,9.87340e-01,9.99217e-01
8.244018279e-01,9.44430e-01,9.99999e-01,9.99999e-01,9.56894e-01,9.87588e-01,9.99377e-01
8.285238370e-01,9.50955e-01,9.99999e-01,9.99999e-01,9.63138e-01,9.87832e-01,9.99510e-01
8.326664562e-01,9.50997e-01,9.99999e-01,9.99999e-01,9.62673e-01,9.88071e-01,9.99797e-01
8.368297885e-01,9.61751e-01,9.99999e-01,9.99999e-01,9.73176e-01,9.88305e-01,9.99953e-01
8.410139374e-01,9.72670e-01,9.99999e-01,9.99999e-01,9.83977e-01,9.88535e-01,9.99972e-01
8.452190071e-01,9.80943e-01,9.99999e-01,9.99999e-01,9.92109e-01,9.88760e-01,9.99983e-01
8.494451021e-01,9.84443e-01,9.99999e-01,9.99999e-01,9.95424e-01,9.88981e-01,9.99986e-01
8.536923276e-01,9.86506e-01,9.99999e-01,9.99999e-01,9.97287e-01,9.89197e-01,9.99990e-01
8.579607893e-01,9.87757e-01,9.99999e-01,9.99999e-01,9.98331e-01,9.89409e-01,9.99997e-01
8.622505932e-01,9.88567e-01,9.99999e-01,9.99999e-01,9.98938e-01,9.89617e-01,9.99999e-01
8.665618462e-01,9.89173e-01,9.99999e-01,9.99999e-01,9.99344e-01,9.89821e-01,9.99999e-01
8.708946554e-01,9.89279e-01,9.99999e-01,9.99999e-01,9.99250e-01,9.90021e-01,9.99999e-01
8.752491287e-01,9.89223e-01,9.99999e-01,9.99999e-01,9.98996e-01,9.90218e-01,9.99998e-01
8.796253743e-01,9.89034e-01,9.99999e-01,9.99999e-01,9.98612e-01,9.90410e-01,9.99996e-01
8.840235012e-01,9.89019e-01,9.99999e-01,9.99999e-01,9.98414e-01,9.90598e-01,9.99989e-01
8.884436187e-01,9.85083e-01,9.99999e-01,9.99999e-01,9.94273e-01,9.90783e-01,9.99972e-01
8.928858368e-01,9.32272e-01,9.99999e-01,9.99999e-01,9.40921e-01,9.90964e-01,9.99841e-01
8.973502660e-01,8.88755e-01,9.99999e-01,9.99999e-01,8.97426e-01,9.91142e-01,9.99187e-01
9.018370173e-01,9.36663e-01,9.99999e-01,9.99999e-01,9.46075e-01,9.91316e-01,9.98722e-01
9.063462024e-01,9.43563e-01,9.99999e-01,9.99999e-01,9.52733e-01,9.91487e-01,9.98877e-01
9.108779334e-01,9.18281e-01,9.99999e-01,9.99999e-01,9.27089e-01,9.91654e-01,9.98834e-01
9.154323231e-01,9.09117e-01,9.99999e-01,9.99999e-01,9.17500e-01,9.91819e-01,9.99036e-01
9.200094847e-01,9.26732e-01,9.99999e-01,9.99999e-01,9.34728e-01,9.91980e-01,9.99460e-01
9.246095321e-01,8.93415e-01,9.99999e-01,9.99999e-01,9.01055e-01,9.92137e-01,9.99378e-01
9.292325798e-01,4.94160e-01,9.99999e-01,9.99999e-01,4.99207e-01,9.92292e-01,9.97578e-01
9.338787427e-01,4.00104e-01,9.99999e-01,9.99999e-01,4.07211e-01,9.92444e-01,9.90028e-01
9.385481364e-01,6.81993e-01,9.99999e-01,9.99999e-01,6.95320e-01,9.92592e-01,9.88151e-01
9.432408771e-01,5.96454e-01,9.99999e-01,9.99999e-01,6.07027e-01,9.92738e-01,9.89769e-01
9.479570815e-01,4.96371e-01,9.99999e-01,9.99999e-01,5.04131e-01,9.92881e-01,9.91665e-01
9.526968669e-01,5.87550e-01,9.99999e-01,9.99999e-01,5.94707e-01,9.93021e-01,9.94908e-01
9.574603512e-01,6.11390e-01,9.99999e-01,9.99999e-01,6.17199e-01,9.93158e-01,9.97410e-01
9.622476530e-01,6.68317e-01,9.99999e-01,9.99999e-01,6.74036e-01,9.93293e-01,9.98208e-01
9.670588912e-01,7.90301e-01,9.99999e-01,9.99999e-01,7.96507e-01,9.93425e-01,9.98774e-01
9.718941857e-01,8.60711e-01,9.99999e-01,9.99999e-01,8.67076e-01,9.93555e-01,9.99097e-01
9.767536566e-01,8.82121e-01,9.99999e-01,9.99999e-01,8.88341e-01,9.93681e-01,9.99309e-01
9.816374249e-01,9.09975e-01,9.99999e-01,9.99999e-01,9.15864e-01,9.93806e-01,9.99760e-01
9.865456120e-01,9.40759e-01,9.99999e-01,9.99999e-01,9.46553e-01,9.93928e-01,9.99949e-01
9.914783401e-01,9.60860e-01,9.99999e-01,9.99999e-01,9.66626e-01,9.94047e-01,9.99985e-01
9.964357318e-01,9.75950e-01,9.99999e-01,9.99999e-01,9.81685e-01,9.94165e-01,9.99991e-01
1.001417910e+00,9.83314e-01,9.99999e-01,9.99999e-01,9.88983e-01,9.94280e-01,9.99987e-01
1.006425000e+00,9.88123e-01,9.99999e-01,9.99999e-01,9.93712e-01,9.94392e-01,9.99981e-01
1.011457125e+00,9.90597e-01,9.99999e-01,9.99999e-01,9.96088e-01,9.94503e-01,9.99983e-01
1.016514411e+00,9.91959e-01,9.99999e-01,9.99999e-01,9.97344e-01,9.94611e-01,9.99988e-01
1.021596983e+00,9.92602e-01,9.99999e-01,9.99999e-01,9.97884e-01,9.94717e-01,9.99987e-01
1.026704968e+00,9.93173e-01,9.99999e-01,9.99999e-01,9.98350e-01,9.94821e-01,9.99991e-01
1.031838492e+00,9.93727e-01,9.99999e-01,9.99999e-01,9.98799e-01,9.94923e-01,9.99997e-01
1.036997685e+00,9.94314e-01,9.99999e-01,9.99999e-01,9.99287e-01,9.95023e-01,9.99999e-01
1.042182673e+00,9.94278e-01,9.99999e-01,9.99999e-01,9.99152e-01,9.95121e-01,9.99999e-01
1.047393587e+00,9.94098e-01,9.99999e-01,9.99999e-01,9.98874e-01,9.95217e-01,9.99999e-01
1.052630555e+00,9.93776e-01,9.99999e-01,9.99999e-01,9.98457e-01,9.95312e-01,9.99999e-01
1.057893707e+00,9.92842e-01,9.99999e-01,9.99999e-01,9.97427e-01,9.95404e-01,9.99998e-01
1.063183176e+00,9.91278e-01,9.99999e-01,9.99999e-01,9.95766e-01,9.95494e-01,9.99997e-01
1.068499092e+00,9.88525e-01,9.99999e-01,9.99999e-01,9.92914e-01,9.95583e-01,9.99994e-01
1.073841587e+00,9.87416e-01,9.99999e-01,9.99999e-01,9.91719e-01,9.95670e-01,9.99989e-01
1.079210795e+00,9.85156e-01,9.99999e-01,9.99999e-01,9.89382e-01,9.95756e-01,9.99971e-01
1.084606849e+00,9.79822e-01,9.99999e-01,9.99999e-01,9.83982e-01,9.95839e-01,9.99931e-01
1.090029883e+00,9.73007e-01,9.99999e-01,9.99999e-01,9.77129e-01,9.95921e-01,9.99857e-01
1.095480033e+00,9.34854e-01,9.99999e-01,9.99999e-01,9.38847e-01,9.96002e-01,9.99743e-01
1.100957433e+00,8.48281e-01,9.99999e-01,9.99999e-01,8.52019e-01,9.96080e-01,9.99528e-01
1.106462220e+00,6.64493e-01,9.99999e-01,9.99999e-01,6.67588e-01,9.96158e-01,9.99200e-01
1.111994531e+00,4.26389e-01,9.99999e-01,9.99999e-01,4.28910e-01,9.96233e-01,9.97879e-01
1.117554504e+00,2.53536e-01,9.99999e-01,9.99999e-01,2.56433e-01,9.96308e-01,9.92366e-01
1.123142276e+00,3.65606e-01,9.99999e-01,9.99999e-01,3.73662e-01,9.96380e-01,9.81993e-01
1.128757988e+00,5.14334e-01,9.99999e-01,9.99999e-01,5.27130e-01,9.96452e-01,9.79198e-01
1.134401778e+00,2.71285e-01,9.99999e-01,9.99999e-01,2.77141e-01,9.96522e-01,9.82284e-01
1.140073787e+00,6.67765e-01,9.99999e-01,9.99999e-01,6.79686e-01,9.96590e-01,9.85820e-01
1.145774156e+00,4.43668e-01,9.99999e-01,9.99999e-01,4.51013e-01,9.96658e-01,9.87012e-01
1.151503026e+00,4.09471e-01,9.99999e-01,9.99999e-01,4.13819e-01,9.96723e-01,9.92743e-01
1.157260541e+00,4.70281e-01,9.99999e-01,9.99999e-01,4.72824e-01,9.96788e-01,9.97824e-01
1.163046844e+00,5.71507e-01,9.99999e-01,9.99999e-01,5.73665e-01,9.96851e-01,9.99382e-01
1.168862078e+00,6.75881e-01,9.99999e-01,9.99999e-01,6.78189e-01,9.96913e-01,9.99681e-01
1.174706389e+00,7.84156e-01,9.99999e-01,9.99999e-01,7.86867e-01,9.96974e-01,9.99578e-01
1.180579921e+00,8.60933e-01,9.99999e-01,9.99999e-01,8.64044e-01,9.97034e-01,9.99362e-01
1.186482820e+00,9.17432e-01,9.99999e-01,9.99999e-01,9.20709e-01,9.97092e-01,9.99345e-01
1.192415234e+00,9.49765e-01,9.99999e-01,9.99999e-01,9.52945e-01,9.97150e-01,9.99509e-01
1.198377311e+00,9.57103e-01,9.99999e-01,9.99999e-01,9.60228e-01,9.97206e-01,9.99536e-01
1.204369197e+00,9.59286e-01,9.99999e-01,9.99999e-01,9.62322e-01,9.97261e-01,9.99581e-01
1.210391043e+00,9.61096e-01,9.99999e-01,9.99999e-01,9.63928e-01,9.97315e-01,9.99744e-01
1.216442998e+00,9.66501e-01,9.99999e-01,9.99999e-01,9.69201e-01,9.97368e-01,9.99843e-01
1.222525213e+00,9.73337e-01,9.99999e-01,9.99999e-01,9.75948e-01,9.97420e-01,9.99902e-01
1.228637839e+00,9.80714e-01,9.99999e-01,9.99999e-01,9.83244e-01,9.97471e-01,9.99954e-01
