#,Wave/freq,Total,N2,O2,H2O,Rayleigh,CIA
4.000000000e-01,8.44018e-01,9.99999e-01,9.99999e-01,9.99980e-01,8.44034e-01,9.99999e-01
4.020000000e-01,8.46858e-01,9.99999e-01,9.99999e-01,9.99987e-01,8.46868e-01,9.99999e-01
4.040100000e-01,8.49649e-01,9.99999e-01,9.99999e-01,9.99994e-01,8.49653e-01,9.99999e-01
4.060300500e-01,8.52391e-01,9.99999e-01,9.99999e-01,9.99998e-01,8.52392e-01,9.99999e-01
4.080602003e-01,8.55085e-01,9.99999e-01,9.99999e-01,9.99999e-01,8.55085e-01,9.99999e-01
4.101005013e-01,8.57733e-01,9.99999e-01,9.99999e-01,9.99999e-01,8.57733e-01,9.99999e-01
4.121510038e-01,8.60337e-01,9.99999e-01,9.99999e-01,9.99998e-01,8.60337e-01,9.99999e-01
4.142117588e-01,8.62893e-01,9.99999e-01,9.99999e-01,9.99994e-01,8.62897e-01,9.99999e-01
4.162828176e-01,8.65394e-01,9.99999e-01,9.99999e-01,9.99975e-01,8.65414e-01,9.99999e-01
4.183642317e-01,8.67877e-01,9.99999e-01,9.99999e-01,9.99985e-01,8.67889e-01,9.99999e-01
4.204560528e-01,8.70314e-01,9.99999e-01,9.99999e-01,9.99990e-01,8.70321e-01,9.99999e-01
4.225583331e-01,8.72709e-01,9.99999e-01,9.99999e-01,9.99996e-01,8.72712e-01,9.99999e-01
4.246711247e-01,8.75060e-01,9.99999e-01,9.99999e-01,9.99996e-01,8.75062e-01,9.99999e-01
4.267944804e-01,8.77369e-01,9.99999e-01,9.99999e-01,9.99995e-01,8.77372e-01,9.99999e-01
4.289284528e-01,8.79640e-01,9.99999e-01,9.99999e-01,9.99996e-01,8.79642e-01,9.99999e-01
4.310730950e-01,8.81872e-01,9.99999e-01,9.99999e-01,9.99998e-01,8.81873e-01,9.99999e-01
4.332284605e-01,8.84065e-01,9.99999e-01,9.99999e-01,9.99999e-01,8.84066e-01,9.99999e-01
4.353946028e-01,8.86220e-01,9.99999e-01,9.99999e-01,9.99999e-01,8.86220e-01,9.99999e-01
4.375715758e-01,8.88335e-01,9.99999e-01,9.99999e-01,9.99997e-01,8.88337e-01,9.99999e-01
4.397594337e-01,8.90398e-01,9.99999e-01,9.99999e-01,9.99978e-01,8.90417e-01,9.99999e-01
4.419582309e-01,8.92365e-01,9.99999e-01,9.99999e-01,9.99891e-01,8.92461e-01,9.99999e-01
4.441680220e-01,8.94396e-01,9.99999e-01,9.99999e-01,9.99917e-01,8.94469e-01,9.99999e-01
4.463888621e-01,8.96364e-01,9.99999e-01,9.99999e-01,9.99913e-01,8.96441e-01,9.99999e-01
4.486208064e-01,8.98331e-01,9.99999e-01,9.99999e-01,9.99946e-01,8.98379e-01,9.99999e-01
4.508639105e-01,9.00260e-01,9.99999e-01,9.99999e-01,9.99974e-01,9.00283e-01,9.99999e-01
4.531182300e-01,9.02144e-01,9.99999e-01,9.99999e-01,9.99989e-01,9.02153e-01,9.99999e-01
4.553838212e-01,9.03983e-01,9.99999e-01,9.99999e-01,9.99992e-01,9.03989e-01,9.99999e-01
4.576607403e-01,9.05791e-01,9.99999e-01,9.99999e-01,9.99996e-01,9.05794e-01,9.99999e-01
4.599490440e-01,9.07564e-01,9.99999e-01,9.99999e-01,9.99997e-01,9.07565e-01,9.99999e-01
4.622487892e-01,9.09306e-01,9.99999e-01,9.99999e-01,9.99999e-01,9.09306e-01,9.99999e-01
4.645600332e-01,9.11014e-01,9.99999e-01,9.99999e-01,9.99997e-01,9.11015e-01,9.99999e-01
4.668828333e-01,9.12670e-01,9.99999e-01,9.99999e-01,9.99974e-01,9.12694e-01,9.99999e-01
4.692172475e-01,9.14293e-01,9.99999e-01,9.99999e-01,9.99945e-01,9.14342e-01,9.99999e-01
4.715633337e-01,9.15929e-01,9.99999e-01,9.99999e-01,9.99964e-01,9.15961e-01,9.99999e-01
4.739211504e-01,9.17520e-01,9.99999e-01,9.99999e-01,9.99966e-01,9.17550e-01,9.99999e-01
4.762907561e-01,9.19095e-01,9.99999e-01,9.99999e-01,9.99982e-01,9.19111e-01,9.99999e-01
4.786722099e-01,9.20637e-01,9.99999e-01,9.99999e-01,9.99992e-01,9.20644e-01,9.99999e-01
4.810655710e-01,9.22147e-01,9.99999e-01,9.99999e-01,9.99997e-01,9.22149e-01,9.99999e-01
4.834708988e-01,9.23606e-01,9.99999e-01,9.99999e-01,9.99978e-01,9.23626e-01,9.99999e-01
4.858882533e-01,9.25041e-01,9.99999e-01,9.99999e-01,9.99961e-01,9.25077e-01,9.99999e-01
4.883176946e-01,9.26471e-01,9.99999e-01,9.99999e-01,9.99967e-01,9.26501e-01,9.99999e-01
4.907592831e-01,9.27872e-01,9.99999e-01,9.99999e-01,9.99970e-01,9.27899e-01,9.99999e-01
4.932130795e-01,9.29252e-01,9.99999e-01,9.99999e-01,9.99979e-01,9.29271e-01,9.99999e-01
4.956791449e-01,9.30609e-01,9.99999e-01,9.99999e-01,9.99988e-01,9.30619e-01,9.99999e-01
4.981575406e-01,9.31891e-01,9.99999e-01,9.99999e-01,9.99945e-01,9.31941e-01,9.99999e-01
5.006483283e-01,9.33106e-01,9.99999e-01,9.99999e-01,9.99857e-01,9.33240e-01,9.99998e-01
5.031515699e-01,9.33841e-01,9.99999e-01,9.99999e-01,9.99286e-01,9.34514e-01,9.99992e-01
5.056673278e-01,9.35407e-01,9.99999e-01,9.99999e-01,9.99624e-01,9.35765e-01,9.99990e-01
5.081956644e-01,9.36546e-01,9.99999e-01,9.99999e-01,9.99527e-01,9.36993e-01,9.99994e-01
5.107366428e-01,9.37899e-01,9.99999e-01,9.99999e-01,9.99680e-01,9.38198e-01,9.99998e-01
5.132903260e-01,9.39211e-01,9.99999e-01,9.99999e-01,9.99817e-01,9.39381e-01,9.99999e-01
5.158567776e-01,9.40470e-01,9.99999e-01,9.99999e-01,9.99922e-01,9.40542e-01,9.99999e-01
5.184360615e-01,9.41653e-01,9.99999e-01,9.99999e-01,9.99968e-01,9.41682e-01,9.99999e-01
5.210282418e-01,9.42789e-01,9.99999e-01,9.99999e-01,9.99987e-01,9.42800e-01,9.99999e-01
5.236333830e-01,9.43854e-01,9.99999e-01,9.99999e-01,9.99953e-01,9.43898e-01,9.99999e-01
5.262515499e-01,9.44947e-01,9.99999e-01,9.99999e-01,9.99970e-01,9.44975e-01,9.99999e-01
5.288828077e-01,9.46006e-01,9.99999e-01,9.99999e-01,9.99972e-01,9.46032e-01,9.99999e-01
5.315272217e-01,9.47047e-01,9.99999e-01,9.99999e-01,9.99976e-01,9.47069e-01,9.99999e-01
5.341848578e-01,9.48072e-01,9.99999e-01,9.99999e-01,9.99984e-01,9.48087e-01,9.99999e-01
5.368557821e-01,9.49034e-01,9.99999e-01,9.99999e-01,9.99945e-01,9.49086e-01,9.99999e-01
5.395400610e-01,9.49876e-01,9.99999e-01,9.99999e-01,9.99801e-01,9.50066e-01,9.99997e-01
5.422377613e-01,9.50785e-01,9.99999e-01,9.99999e-01,9.99748e-01,9.51028e-01,9.99994e-01
5.449489501e-01,9.51743e-01,9.99999e-01,9.99999e-01,9.99764e-01,9.51971e-01,9.99994e-01
5.476736949e-01,9.52699e-01,9.99999e-01,9.99999e-01,9.99793e-01,9.52897e-01,9.99997e-01
5.504120634e-01,9.53662e-01,9.99999e-01,9.99999e-01,9.99849e-01,9.53806e-01,9.99998e-01
5.531641237e-01,9.54625e-01,9.99999e-01,9.99999e-01,9.99924e-01,9.54697e-01,9.99999e-01
5.559299443e-01,9.55537e-01,9.99999e-01,9.99999e-01,9.99963e-01,9.55572e-01,9.99999e-01
5.587095940e-01,9.56408e-01,9.99999e-01,9.99999e-01,9.99976e-01,9.56430e-01,9.99999e-01
5.615031420e-01,9.57248e-01,9.99999e-01,9.99999e-01,9.99974e-01,9.57272e-01,9.99999e-01
5.643106577e-01,9.58070e-01,9.99999e-01,9.99999e-01,9.99970e-01,9.58098e-01,9.99999e-01
5.671322110e-01,9.58560e-01,9.99999e-01,9.99999e-01,9.99639e-01,9.58908e-01,9.99996e-01
5.699678720e-01,9.59339e-01,9.99999e-01,9.99999e-01,9.99629e-01,9.59703e-01,9.99989e-01
5.728177114e-01,9.60101e-01,9.99999e-01,9.99999e-01,9.99608e-01,9.60483e-01,9.99991e-01
5.756818000e-01,9.60901e-01,9.99999e-01,9.99999e-01,9.99642e-01,9.61249e-01,9.99994e-01
5.785602090e-01,9.61699e-01,9.99999e-01,9.99999e-01,9.99688e-01,9.61999e-01,9.99998e-01
5.814530100e-01,9.62434e-01,9.99999e-01,9.99999e-01,9.99686e-01,9.62736e-01,9.99998e-01
5.843602750e-01,9.63093e-01,9.99999e-01,9.99999e-01,9.99622e-01,9.63458e-01,9.99997e-01
5.872820764e-01,9.61018e-01,9.99999e-01,9.99999e-01,9.96755e-01,9.64167e-01,9.99976e-01
5.902184868e-01,9.61055e-01,9.99999e-01,9.99999e-01,9.96115e-01,9.64862e-01,9.99937e-01
5.931695792e-01,9.62826e-01,9.99999e-01,9.99999e-01,9.97243e-01,9.65544e-01,9.99940e-01
5.961354271e-01,9.63270e-01,9.99999e-01,9.99999e-01,9.96987e-01,9.66213e-01,9.99965e-01
5.991161043e-01,9.64738e-01,9.99999e-01,9.99999e-01,9.97805e-01,9.66869e-01,9.99988e-01
6.021116848e-01,9.66309e-01,9.99999e-01,9.99999e-01,9.98756e-01,9.67513e-01,9.99998e-01
6.051222432e-01,9.67536e-01,9.99999e-01,9.99999e-01,9.99370e-01,9.68144e-01,9.99999e-01
6.081478544e-01,9.68500e-01,9.99999e-01,9.99999e-01,9.99728e-01,9.68763e-01,9.99999e-01
6.111885937e-01,9.69260e-01,9.99999e-01,9.99999e-01,9.99885e-01,9.69371e-01,9.99999e-01
6.142445367e-01,9.69917e-01,9.99999e-01,9.99999e-01,9.99948e-01,9.69967e-01,9.99999e-01
6.173157594e-01,9.70524e-01,9.99999e-01,9.99999e-01,9.99971e-01,9.70551e-01,9.99999e-01
6.204023382e-01,9.71101e-01,9.99999e-01,9.99999e-01,9.99975e-01,9.71124e-01,9.99999e-01
6.235043498e-01,9.71581e-01,9.99999e-01,9.99999e-01,9.99891e-01,9.71686e-01,9.99999e-01
6.266218716e-01,9.71689e-01,9.99999e-01,9.99999e-01,9.99438e-01,9.72238e-01,9.99995e-01
6.297549810e-01,9.72571e-01,9.99999e-01,9.99999e-01,9.99793e-01,9.72779e-01,9.99991e-01
6.329037559e-01,9.72909e-01,9.99999e-01,9.99999e-01,9.99594e-01,9.73309e-01,9.99993e-01
6.360682746e-01,9.73488e-01,9.99999e-01,9.99999e-01,9.99652e-01,9.73829e-01,9.99995e-01
6.392486160e-01,9.73901e-01,9.99999e-01,9.99999e-01,9.99551e-01,9.74340e-01,9.99997e-01
6.424448591e-01,9.74246e-01,9.99999e-01,9.99999e-01,9.99393e-01,9.74840e-01,9.99996e-01
6.456570834e-01,9.72570e-01,9.99999e-01,9.99999e-01,9.97185e-01,9.75331e-01,9.99982e-01
6.488853688e-01,9.73787e-01,9.99999e-01,9.99999e-01,9.97967e-01,9.75812e-01,9.99956e-01
6.521297956e-01,9.74227e-01,9.99999e-01,9.99999e-01,9.97928e-01,9.76284e-01,9.99963e-01
6.553904446e-01,9.74696e-01,9.99999e-01,9.99999e-01,9.97925e-01,9.76747e-01,9.99972e-01
6.586673968e-01,9.75466e-01,9.99999e-01,9.99999e-01,9.98233e-01,9.77201e-01,9.99990e-01
6.619607338e-01,9.76683e-01,9.99999e-01,9.99999e-01,9.99015e-01,9.77646e-01,9.99997e-01
6.652705375e-01,9.77504e-01,9.99999e-01,9.99999e-01,9.99409e-01,9.78083e-01,9.99998e-01
6.685968902e-01,9.78266e-01,9.99999e-01,9.99999e-01,9.99748e-01,9.78511e-01,9.99999e-01
6.719398746e-01,9.78807e-01,9.99999e-01,9.99999e-01,9.99872e-01,9.78931e-01,9.99999e-01
6.752995740e-01,9.79277e-01,9.99999e-01,9.99999e-01,9.99932e-01,9.79343e-01,9.99999e-01
6.786760719e-01,9.79648e-01,9.99999e-01,9.99999e-01,9.99898e-01,9.79747e-01,9.99999e-01
6.820694522e-01,9.79972e-01,9.99999e-01,9.99999e-01,9.99826e-01,9.80143e-01,9.99998e-01
6.854797995e-01,9.80313e-01,9.99999e-01,9.99999e-01,9.99778e-01,9.80531e-01,9.99997e-01
6.889071985e-01,9.80373e-01,9.99999e-01,9.99999e-01,9.99454e-01,9.80912e-01,9.99994e-01
6.923517345e-01,9.72636e-01,9.99999e-01,9.99999e-01,9.91225e-01,9.81285e-01,9.99957e-01
6.958134932e-01,9.77190e-01,9.99999e-01,9.99999e-01,9.95546e-01,9.81652e-01,9.99907e-01
6.992925606e-01,9.77668e-01,9.99999e-01,9.99999e-01,9.95660e-01,9.82011e-01,9.99916e-01
7.027890234e-01,9.77092e-01,9.99999e-01,9.99999e-01,9.94697e-01,9.82363e-01,9.99935e-01
7.063029686e-01,9.78291e-01,9.99999e-01,9.99999e-01,9.95536e-01,9.82708e-01,9.99967e-01
7.098344834e-01,9.78819e-01,9.99999e-01,9.99999e-01,9.95717e-01,9.83047e-01,9.99980e-01
7.133836558e-01,9.77643e-01,9.99999e-01,9.99999e-01,9.94203e-01,9.83379e-01,9.99962e-01
7.169505741e-01,9.38722e-01,9.99999e-01,9.99999e-01,9.54551e-01,9.83705e-01,9.99706e-01
7.205353270e-01,9.61905e-01,9.99999e-01,9.99999e-01,9.78026e-01,9.84024e-01,9.99482e-01
7.241380036e-01,9.55969e-01,9.99999e-01,9.99999e-01,9.71614e-01,9.84337e-01,9.99553e-01
7.277586936e-01,9.59070e-01,9.99999e-01,9.99999e-01,9.74382e-01,9.84644e-01,9.99634e-01
7.313974871e-01,9.58199e-01,9.99999e-01,9.99999e-01,9.73010e-01,9.84945e-01,9.99828e-01
7.350544745e-01,9.70546e-01,9.99999e-01,9.99999e-01,9.85143e-01,9.85240e-01,9.99940e-01
7.387297469e-01,9.74723e-01,9.99999e-01,9.99999e-01,9.89061e-01,9.85529e-01,9.99972e-01
7.424233956e-01,9.80536e-01,9.99999e-01,9.99999e-01,9.94650e-01,9.85813e-01,9.99994e-01
7.461355126e-01,9.82886e-01,9.99999e-01,9.99999e-01,9.96749e-01,9.86091e-01,9.99998e-01
7.498661902e-01,9.84876e-01,9.99999e-01,9.99999e-01,9.98491e-01,9.86364e-01,9.99999e-01
7.536155211e-01,9.85899e-01,9.99999e-01,9.99999e-01,9.99256e-01,9.86632e-01,9.99999e-01
7.573835987e-01,9.86517e-01,9.99999e-01,9.99999e-01,9.99617e-01,9.86894e-01,9.99999e-01
7.611705167e-01,9.86917e-01,9.99999e-01,9.99999e-01,9.99762e-01,9.87151e-01,9.99999e-01
7.649763693e-01,9.87256e-01,9.99999e-01,9.99999e-01,9.99850e-01,9.87403e-01,9.99999e-01
7.688012511e-01,9.87548e-01,9.99999e-01,9.99999e-01,9.99895e-01,9.87651e-01,9.99999e-01
7.726452574e-01,9.87809e-01,9.99999e-01,9.99999e-01,9.99913e-01,9.87893e-01,9.99999e-01
7.765084837e-01,9.88009e-01,9.99999e-01,9.99999e-01,9.99876e-01,9.88131e-01,9.99999e-01
7.803910261e-01,9.87837e-01,9.99999e-01,9.99999e-01,9.99467e-01,9.88364e-01,9.99998e-01
7.842929812e-01,9.86752e-01,9.99999e-01,9.99999e-01,9.98141e-01,9.88592e-01,9.99996e-01
7.882144461e-01,9.85048e-01,9.99999e-01,9.99999e-01,9.96214e-01,9.88816e-01,9.99973e-01
7.921555184e-01,9.86951e-01,9.99999e-01,9.99999e-01,9.97936e-01,9.89036e-01,9.99954e-01
7.961162960e-01,9.85551e-01,9.99999e-01,9.99999e-01,9.96301e-01,9.89251e-01,9.99956e-01
8.000968774e-01,9.85224e-01,9.99999e-01,9.99999e-01,9.95761e-01,9.89463e-01,9.99953e-01
8.040973618e-01,9.85432e-01,9.99999e-01,9.99999e-01,9.95752e-01,9.89670e-01,9.99964e-01
8.081178486e-01,9.80306e-01,9.99999e-01,9.99999e-01,9.90369e-01,9.89873e-01,9.99964e-01
8.121584379e-01,9.50830e-01,9.99999e-01,9.99999e-01,9.60492e-01,9.90072e-01,9.99865e-01
8.162192301e-01,9.44065e-01,9.99999e-01,9.99999e-01,9.53823e-01,9.90267e-01,9.99496e-01
8.203003262e-01,9.66286e-01,9.99999e-01,9.99999e-01,9.76169e-01,9.90458e-01,9.99410e-01
8.244018279e-01,9.58353e-01,9.99999e-01,9.99999e-01,9.67855e-01,9.90646e-01,9.99531e-01
8.285238370e-01,9.62719e-01,9.99999e-01,9.99999e-01,9.71986e-01,9.90830e-01,9.99631e-01
8.326664562e-01,9.62942e-01,9.99999e-01,9.99999e-01,9.71825e-01,9.91010e-01,9.99847e-01
8.368297885e-01,9.71188e-01,9.99999e-01,9.99999e-01,9.79857e-01,9.91187e-01,9.99964e-01
8.410139374e-01,9.79440e-01,9.99999e-01,9.99999e-01,9.87995e-01,9.91360e-01,9.99979e-01
8.452190071e-01,9.85677e-01,9.99999e-01,9.99999e-01,9.94108e-01,9.91530e-01,9.99987e-01
8.494451021e-01,9.88279e-01,9.99999e-01,9.99999e-01,9.96562e-01,9.91697e-01,9.99989e-01
8.536923276e-01,9.89846e-01,9.99999e-01,9.99999e-01,9.97974e-01,9.91860e-01,9.99993e-01
8.579607893e-01,9.90777e-01,9.99999e-01,9.99999e-01,9.98747e-01,9.92020e-01,9.99998e-01
8.622505932e-01,9.91390e-01,9.99999e-01,9.99999e-01,9.99206e-01,9.92177e-01,9.99999e-01
8.665618462e-01,9.91842e-01,9.99999e-01,9.99999e-01,9.99506e-01,9.92331e-01,9.99999e-01
8.708946554e-01,9.91920e-01,9.99999e-01,9.99999e-01,9.99433e-01,9.92482e-01,9.99999e-01
8.752491287e-01,9.91879e-01,9.99999e-01,9.99999e-01,9.99243e-01,9.92630e-01,9.99998e-01
8.796253743e-01,9.91729e-01,9.99999e-01,9.99999e-01,9.98948e-01,9.92775e-01,9.99997e-01
8.840235012e-01,9.91719e-01,9.99999e-01,9.99999e-01,9.98800e-01,9.92917e-01,9.99992e-01
8.884436187e-01,9.88591e-01,9.99999e-01,9.99999e-01,9.95523e-01,9.93056e-01,9.99978e-01
8.928858368e-01,9.47873e-01,9.99999e-01,9.99999e-01,9.54483e-01,9.93193e-01,9.99880e-01
8.973502660e-01,9.15013e-01,9.99999e-01,9.99999e-01,9.21723e-01,9.93327e-01,9.99388e-01
9.018370173e-01,9.52452e-01,9.99999e-01,9.99999e-01,9.59645e-01,9.93458e-01,9.99038e-01
9.063462024e-01,9.56702e-01,9.99999e-01,9.99999e-01,9.63689e-01,9.93587e-01,9.99155e-01
9.108779334e-01,9.37536e-01,9.99999e-01,9.99999e-01,9.44295e-01,9.93713e-01,9.99122e-01
9.154323231e-01,9.30683e-01,9.99999e-01,9.99999e-01,9.37133e-01,9.93837e-01,9.99274e-01
9.200094847e-01,9.44436e-01,9.99999e-01,9.99999e-01,9.50562e-01,9.93958e-01,9.99593e-01
9.246095321e-01,9.15734e-01,9.99999e-01,9.99999e-01,9.21620e-01,9.94077e-01,9.99531e-01
9.292325798e-01,5.80056e-01,9.99999e-01,9.99999e-01,5.84762e-01,9.94194e-01,9.97742e-01
9.338787427e-01,4.97608e-01,9.99999e-01,9.99999e-01,5.04559e-01,9.94308e-01,9.91866e-01
9.385481364e-01,7.48375e-01,9.99999e-01,9.99999e-01,7.59356e-01,9.94420e-01,9.91067e-01
9.432408771e-01,6.69731e-01,9.99999e-01,9.99999e-01,6.78647e-01,9.94530e-01,9.92289e-01
9.479570815e-01,5.79388e-01,9.99999e-01,9.99999e-01,5.86192e-01,9.94638e-01,9.93719e-01
9.526968669e-01,6.66222e-01,9.99999e-01,9.99999e-01,6.72320e-01,9.94744e-01,9.96164e-01
9.574603512e-01,6.88443e-01,9.99999e-01,9.99999e-01,6.93359e-01,9.94847e-01,9.98049e-01
9.622476530e-01,7.38320e-01,9.99999e-01,9.99999e-01,7.43070e-01,9.94949e-01,9.98650e-01
9.670588912e-01,8.37470e-01,9.99999e-01,9.99999e-01,8.42381e-01,9.95048e-01,9.99115e-01
9.718941857e-01,8.93192e-01,9.99999e-01,9.99999e-01,8.98156e-01,9.95146e-01,9.99322e-01
9.767536566e-01,9.09844e-01,9.99999e-01,9.99999e-01,9.14668e-01,9.95241e-01,9.99480e-01
9.816374249e-01,9.31717e-01,9.99999e-01,9.99999e-01,9.36251e-01,9.95335e-01,9.99819e-01
9.865456120e-01,9.55280e-01,9.99999e-01,9.99999e-01,9.59703e-01,9.95427e-01,9.99962e-01
9.914783401e-01,9.70508e-01,9.99999e-01,9.99999e-01,9.74887e-01,9.95517e-01,9.99989e-01
9.964357318e-01,9.81912e-01,9.99999e-01,9.99999e-01,9.86251e-01,9.95606e-01,9.99993e-01
1.001417910e+00,9.87464e-01,9.99999e-01,9.99999e-01,9.91744e-01,9.95692e-01,9.99990e-01
1.006425000e+00,9.91058e-01,9.99999e-01,9.99999e-01,9.95273e-01,9.95777e-01,9.99986e-01
1.011457125e+00,9.92934e-01,9.99999e-01,9.99999e-01,9.97073e-01,9.95860e-01,9.99987e-01
1.016514411e+00,9.93951e-01,9.99999e-01,9.99999e-01,9.98008e-01,9.95942e-01,9.99990e-01
1.021596983e+00,9.94432e-01,9.99999e-01,9.99999e-01,9.98411e-01,9.96022e-01,9.99991e-01
1.026704968e+00,9.94861e-01,9.99999e-01,9.99999e-01,9.98760e-01,9.96100e-01,9.99994e-01
1.031838492e+00,9.95281e-01,9.99999e-01,9.99999e-01,9.99101e-01,9.96177e-01,9.99997e-01
1.036997685e+00,9.95719e-01,9.99999e-01,9.99999e-01,9.99464e-01,9.96252e-01,9.99999e-01
1.042182673e+00,9.95688e-01,9.99999e-01,9.99999e-01,9.99358e-01,9.96326e-01,9.99999e-01
1.047393587e+00,9.95554e-01,9.99999e-01,9.99999e-01,9.99151e-01,9.96399e-01,9.99999e-01
1.052630555e+00,9.95308e-01,9.99999e-01,9.99999e-01,9.98834e-01,9.96470e-01,9.99999e-01
1.057893707e+00,9.94597e-01,9.99999e-01,9.99999e-01,9.98050e-01,9.96539e-01,9.99998e-01
1.063183176e+00,9.93415e-01,9.99999e-01,9.99999e-01,9.96797e-01,9.96608e-01,9.99997e-01
1.068499092e+00,9.91341e-01,9.99999e-01,9.99999e-01,9.94651e-01,9.96674e-01,9.99995e-01
1.073841587e+00,9.90480e-01,9.99999e-01,9.99999e-01,9.93726e-01,9.96740e-01,9.99991e-01
1.079210795e+00,9.88810e-01,9.99999e-01,9.99999e-01,9.92001e-01,9.96804e-01,9.99978e-01
1.084606849e+00,9.84741e-01,9.99999e-01,9.99999e-01,9.87885e-01,9.96867e-01,9.99948e-01
1.090029883e+00,9.79377e-01,9.99999e-01,9.99999e-01,9.82498e-01,9.96929e-01,9.99892e-01
1.095480033e+00,9.50104e-01,9.99999e-01,9.99999e-01,9.53156e-01,9.96990e-01,9.99806e-01
1.100957433e+00,8.82317e-01,9.99999e-01,9.99999e-01,8.85241e-01,9.97049e-01,9.99644e-01
1.106462220e+00,7.30624e-01,9.99999e-01,9.99999e-01,7.33185e-01,9.97107e-01,9.99397e-01
1.111994531e+00,5.21230e-01,9.99999e-01,9.99999e-01,5.23548e-01,9.97164e-01,9.98403e-01
1.117554504e+00,3.49236e-01,9.99999e-01,9.99999e-01,3.52235e-01,9.97220e-01,9.94248e-01
1.123142276e+00,4.60452e-01,9.99999e-01,9.99999e-01,4.68068e-01,9.97275e-01,9.86415e-01
1.128757988e+00,6.00468e-01,9.99999e-01,9.99999e-01,6.11678e-01,9.97329e-01,9.84301e-01
1.134401778e+00,3.49462e-01,9.99999e-01,9.99999e-01,3.55125e-01,9.97381e-01,9.86635e-01
1.140073787e+00,7.34908e-01,9.99999e-01,9.99999e-01,7.44762e-01,9.97433e-01,9.89307e-01
1.145774156e+00,5.36866e-01,9.99999e-01,9.99999e-01,5.43542e-01,9.97484e-01,9.90208e-01
1.151503026e+00,5.03004e-01,9.99999e-01,9.99999e-01,5.07019e-01,9.97533e-01,9.94533e-01
1.157260541e+00,5.63912e-01,9.99999e-01,9.99999e-01,5.66205e-01,9.97582e-01,9.98361e-01
1.163046844e+00,6.55487e-01,9.99999e-01,9.99999e-01,6.57350e-01,9.97630e-01,9.99535e-01
1.168862078e+00,7.45056e-01,9.99999e-01,9.99999e-01,7.46971e-01,9.97676e-01,9.99757e-01
1.174706389e+00,8.32999e-01,9.99999e-01,9.99999e-01,8.35178e-01,9.97722e-01,9.99666e-01
1.180579921e+00,8.93736e-01,9.99999e-01,9.99999e-01,8.96165e-01,9.97767e-01,9.99519e-01
1.186482820e+00,9.37362e-01,9.99999e-01,9.99999e-01,9.39880e-01,9.97811e-01,9.99507e-01
1.192415234e+00,9.62006e-01,9.99999e-01,9.99999e-01,9.64429e-01,9.97854e-01,9.99630e-01
1.198377311e+00,9.67492e-01,9.99999e-01,9.99999e-01,9.69870e-01,9.97897e-01,9.99649e-01
1.204369197e+00,9.69197e-01,9.99999e-01,9.99999e-01,9.71495e-01,9.97938e-01,9.99694e-01
1.210391043e+00,9.70582e-01,9.99999e-01,9.99999e-01,9.72733e-01,9.97979e-01,9.99807e-01
1.216442998e+00,9.74770e-01,9.99999e-01,9.99999e-01,9.76819e-01,9.98019e-01,9.99882e-01
1.222525213e+00,9.79912e-01,9.99999e-01,9.99999e-01,9.81890e-01,9.98058e-01,9.99926e-01
1.228637839e+00,9.85469e-01,9.99999e-01,9.99999e-01,9.87381e-01,9.98096e-01,9.99965e-01
