#,Wave/freq,Total,N2,O2,H2O,Rayleigh,CIA
4.000000000e-01,8.81036e-01,9.99999e-01,9.99999e-01,9.99985e-01,8.81049e-01,9.99999e-01
4.020000000e-01,8.83250e-01,9.99999e-01,9.99999e-01,9.99990e-01,8.83258e-01,9.99999e-01
4.040100000e-01,8.85423e-01,9.99999e-01,9.99999e-01,9.99995e-01,8.85426e-01,9.99999e-01
4.060300500e-01,8.87556e-01,9.99999e-01,9.99999e-01,9.99998e-01,8.87557e-01,9.99999e-01
4.080602003e-01,8.89650e-01,9.99999e-01,9.99999e-01,9.99999e-01,8.89651e-01,9.99999e-01
4.101005013e-01,8.91708e-01,9.99999e-01,9.99999e-01,9.99999e-01,8.91708e-01,9.99999e-01
4.121510038e-01,8.93728e-01,9.99999e-01,9.99999e-01,9.99998e-01,8.93729e-01,9.99999e-01
4.142117588e-01,8.95711e-01,9.99999e-01,9.99999e-01,9.99995e-01,8.95714e-01,9.99999e-01
4.162828176e-01,8.97649e-01,9.99999e-01,9.99999e-01,9.99981e-01,8.97665e-01,9.99999e-01
4.183642317e-01,8.99572e-01,9.99999e-01,9.99999e-01,9.99989e-01,8.99581e-01,9.99999e-01
4.204560528e-01,9.01458e-01,9.99999e-01,9.99999e-01,9.99993e-01,9.01464e-01,9.99999e-01
4.225583331e-01,9.03311e-01,9.99999e-01,9.99999e-01,9.99997e-01,9.03313e-01,9.99999e-01
4.246711247e-01,9.05127e-01,9.99999e-01,9.99999e-01,9.99997e-01,9.05129e-01,9.99999e-01
4.267944804e-01,9.06910e-01,9.99999e-01,9.99999e-01,9.99996e-01,9.06913e-01,9.99999e-01
4.289284528e-01,9.08663e-01,9.99999e-01,9.99999e-01,9.99997e-01,9.08665e-01,9.99999e-01
4.310730950e-01,9.10385e-01,9.99999e-01,9.99999e-01,9.99998e-01,9.10385e-01,9.99999e-01
4.332284605e-01,9.12075e-01,9.99999e-01,9.99999e-01,9.99999e-01,9.12075e-01,9.99999e-01
4.353946028e-01,9.13735e-01,9.99999e-01,9.99999e-01,9.99999e-01,9.13735e-01,9.99999e-01
4.375715758e-01,9.15363e-01,9.99999e-01,9.99999e-01,9.99997e-01,9.15364e-01,9.99999e-01
4.397594337e-01,9.16950e-01,9.99999e-01,9.99999e-01,9.99983e-01,9.16965e-01,9.99999e-01
4.419582309e-01,9.18463e-01,9.99999e-01,9.99999e-01,9.99919e-01,9.18536e-01,9.99999e-01
4.441680220e-01,9.20023e-01,9.99999e-01,9.99999e-01,9.99938e-01,9.20079e-01,9.99999e-01
4.463888621e-01,9.21535e-01,9.99999e-01,9.99999e-01,9.99935e-01,9.21594e-01,9.99999e-01
4.486208064e-01,9.23045e-01,9.99999e-01,9.99999e-01,9.99959e-01,9.23082e-01,9.99999e-01
4.508639105e-01,9.24525e-01,9.99999e-01,9.99999e-01,9.99980e-01,9.24542e-01,9.99999e-01
4.531182300e-01,9.25969e-01,9.99999e-01,9.99999e-01,9.99992e-01,9.25976e-01,9.99999e-01
4.553838212e-01,9.27379e-01,9.99999e-01,9.99999e-01,9.99994e-01,9.27384e-01,9.99999e-01
4.576607403e-01,9.28764e-01,9.99999e-01,9.99999e-01,9.99997e-01,9.28766e-01,9.99999e-01
4.599490440e-01,9.30121e-01,9.99999e-01,9.99999e-01,9.99997e-01,9.30122e-01,9.99999e-01
4.622487892e-01,9.31454e-01,9.99999e-01,9.99999e-01,9.99999e-01,9.31454e-01,9.99999e-01
4.645600332e-01,9.32760e-01,9.99999e-01,9.99999e-01,9.99998e-01,9.32762e-01,9.99999e-01
4.668828333e-01,9.34027e-01,9.99999e-01,9.99999e-01,9.99980e-01,9.34045e-01,9.99999e-01
4.692172475e-01,9.35267e-01,9.99999e-01,9.99999e-01,9.99959e-01,9.35305e-01,9.99999e-01
4.715633337e-01,9.36516e-01,9.99999e-01,9.99999e-01,9.99973e-01,9.36541e-01,9.99999e-01
4.739211504e-01,9.37731e-01,9.99999e-01,9.99999e-01,9.99974e-01,9.37755e-01,9.99999e-01
4.762907561e-01,9.38934e-01,9.99999e-01,9.99999e-01,9.99986e-01,9.38946e-01,9.99999e-01
4.786722099e-01,9.40110e-01,9.99999e-01,9.99999e-01,9.99994e-01,9.40115e-01,9.99999e-01
4.810655710e-01,9.41261e-01,9.99999e-01,9.99999e-01,9.99997e-01,9.41262e-01,9.99999e-01
4.834708988e-01,9.42373e-01,9.99999e-01,9.99999e-01,9.99983e-01,9.42388e-01,9.99999e-01
4.858882533e-01,9.43467e-01,9.99999e-01,9.99999e-01,9.99971e-01,9.43493e-01,9.99999e-01
4.883176946e-01,9.44556e-01,9.99999e-01,9.99999e-01,9.99975e-01,9.44578e-01,9.99999e-01
4.907592831e-01,9.45622e-01,9.99999e-01,9.99999e-01,9.99978e-01,9.45642e-01,9.99999e-01
4.932130795e-01,9.46673e-01,9.99999e-01,9.99999e-01,9.99984e-01,9.46687e-01,9.99999e-01
4.956791449e-01,9.47704e-01,9.99999e-01,9.99999e-01,9.99991e-01,9.47712e-01,9.99999e-01
4.981575406e-01,9.48679e-01,9.99999e-01,9.99999e-01,9.99958e-01,9.48718e-01,9.99999e-01
5.006483283e-01,9.49604e-01,9.99999e-01,9.99999e-01,9.99893e-01,9.49705e-01,9.99998e-01
5.031515699e-01,9.50162e-01,9.99999e-01,9.99999e-01,9.99466e-01,9.50673e-01,9.99993e-01
5.056673278e-01,9.51351e-01,9.99999e-01,9.99999e-01,9.99719e-01,9.51624e-01,9.99993e-01
5.081956644e-01,9.52216e-01,9.99999e-01,9.99999e-01,9.99646e-01,9.52556e-01,9.99995e-01
5.107366428e-01,9.53243e-01,9.99999e-01,9.99999e-01,9.99761e-01,9.53471e-01,9.99998e-01
5.132903260e-01,9.54239e-01,9.99999e-01,9.99999e-01,9.99863e-01,9.54369e-01,9.99999e-01
5.158567776e-01,9.55195e-01,9.99999e-01,9.99999e-01,9.99942e-01,9.55250e-01,9.99999e-01
5.184360615e-01,9.56092e-01,9.99999e-01,9.99999e-01,9.99976e-01,9.56114e-01,9.99999e-01
5.210282418e-01,9.56954e-01,9.99999e-01,9.99999e-01,9.99990e-01,9.56962e-01,9.99999e-01
5.236333830e-01,9.57760e-01,9.99999e-01,9.99999e-01,9.99964e-01,9.57794e-01,9.99999e-01
5.262515499e-01,9.58589e-01,9.99999e-01,9.99999e-01,9.99977e-01,9.58610e-01,9.99999e-01
5.288828077e-01,9.59391e-01,9.99999e-01,9.99999e-01,9.99979e-01,9.59411e-01,9.99999e-01
5.315272217e-01,9.60180e-01,9.99999e-01,9.99999e-01,9.99982e-01,9.60196e-01,9.99999e-01
5.341848578e-01,9.60956e-01,9.99999e-01,9.99999e-01,9.99988e-01,9.60967e-01,9.99999e-01
5.368557821e-01,9.61684e-01,9.99999e-01,9.99999e-01,9.99958e-01,9.61723e-01,9.99999e-01
5.395400610e-01,9.62322e-01,9.99999e-01,9.99999e-01,9.99852e-01,9.62465e-01,9.99998e-01
5.422377613e-01,9.63008e-01,9.99999e-01,9.99999e-01,9.99812e-01,9.63192e-01,9.99996e-01
5.449489501e-01,9.63733e-01,9.99999e-01,9.99999e-01,9.99823e-01,9.63906e-01,9.99995e-01
5.476736949e-01,9.64456e-01,9.99999e-01,9.99999e-01,9.99845e-01,9.64606e-01,9.99997e-01
5.504120634e-01,9.65184e-01,9.99999e-01,9.99999e-01,9.99887e-01,9.65293e-01,9.99999e-01
5.531641237e-01,9.65912e-01,9.99999e-01,9.99999e-01,9.99943e-01,9.65967e-01,9.99999e-01
5.559299443e-01,9.66601e-01,9.99999e-01,9.99999e-01,9.99972e-01,9.66627e-01,9.99999e-01
5.587095940e-01,9.67259e-01,9.99999e-01,9.99999e-01,9.99982e-01,9.67276e-01,9.99999e-01
5.615031420e-01,9.67893e-01,9.99999e-01,9.99999e-01,9.99980e-01,9.67912e-01,9.99999e-01
5.643106577e-01,9.68514e-01,9.99999e-01,9.99999e-01,9.99977e-01,9.68535e-01,9.99999e-01
5.671322110e-01,9.68885e-01,9.99999e-01,9.99999e-01,9.99731e-01,9.69147e-01,9.99997e-01
5.699678720e-01,9.69472e-01,9.99999e-01,9.99999e-01,9.99722e-01,9.69747e-01,9.99992e-01
5.728177114e-01,9.70047e-01,9.99999e-01,9.99999e-01,9.99707e-01,9.70336e-01,9.99993e-01
5.756818000e-01,9.70651e-01,9.99999e-01,9.99999e-01,9.99732e-01,9.70913e-01,9.99996e-01
5.785602090e-01,9.71253e-01,9.99999e-01,9.99999e-01,9.99767e-01,9.71479e-01,9.99998e-01
5.814530100e-01,9.71807e-01,9.99999e-01,9.99999e-01,9.99765e-01,9.72035e-01,9.99999e-01
5.843602750e-01,9.72305e-01,9.99999e-01,9.99999e-01,9.99718e-01,9.72580e-01,9.99997e-01
5.872820764e-01,9.70743e-01,9.99999e-01,9.99999e-01,9.97579e-01,9.73114e-01,9.99982e-01
5.902184868e-01,9.70766e-01,9.99999e-01,9.99999e-01,9.97095e-01,9.73638e-01,9.99953e-01
5.931695792e-01,9.72103e-01,9.99999e-01,9.99999e-01,9.97940e-01,9.74152e-01,9.99955e-01
5.961354271e-01,9.72437e-01,9.99999e-01,9.99999e-01,9.97748e-01,9.74656e-01,9.99974e-01
5.991161043e-01,9.73543e-01,9.99999e-01,9.99999e-01,9.98359e-01,9.75150e-01,9.99991e-01
6.021116848e-01,9.74727e-01,9.99999e-01,9.99999e-01,9.99070e-01,9.75635e-01,9.99998e-01
6.051222432e-01,9.75651e-01,9.99999e-01,9.99999e-01,9.99529e-01,9.76110e-01,9.99999e-01
6.081478544e-01,9.76378e-01,9.99999e-01,9.99999e-01,9.99796e-01,9.76577e-01,9.99999e-01
6.111885937e-01,9.76950e-01,9.99999e-01,9.99999e-01,9.99913e-01,9.77034e-01,9.99999e-01
6.142445367e-01,9.77445e-01,9.99999e-01,9.99999e-01,9.99961e-01,9.77482e-01,9.99999e-01
6.173157594e-01,9.77901e-01,9.99999e-01,9.99999e-01,9.99978e-01,9.77922e-01,9.99999e-01
6.204023382e-01,9.78336e-01,9.99999e-01,9.99999e-01,9.99981e-01,9.78353e-01,9.99999e-01
6.235043498e-01,9.78698e-01,9.99999e-01,9.99999e-01,9.99919e-01,9.78776e-01,9.99999e-01
6.266218716e-01,9.78778e-01,9.99999e-01,9.99999e-01,9.99580e-01,9.79191e-01,9.99996e-01
6.297549810e-01,9.79442e-01,9.99999e-01,9.99999e-01,9.99845e-01,9.79598e-01,9.99993e-01
6.329037559e-01,9.79696e-01,9.99999e-01,9.99999e-01,9.99696e-01,9.79997e-01,9.99994e-01
6.360682746e-01,9.80132e-01,9.99999e-01,9.99999e-01,9.99740e-01,9.80388e-01,9.99996e-01
6.392486160e-01,9.80442e-01,9.99999e-01,9.99999e-01,9.99664e-01,9.80772e-01,9.99998e-01
6.424448591e-01,9.80702e-01,9.99999e-01,9.99999e-01,9.99547e-01,9.81148e-01,9.99997e-01
6.456570834e-01,9.79445e-01,9.99999e-01,9.99999e-01,9.97901e-01,9.81517e-01,9.99986e-01
6.488853688e-01,9.80355e-01,9.99999e-01,9.99999e-01,9.98479e-01,9.81879e-01,9.99967e-01
6.521297956e-01,9.80686e-01,9.99999e-01,9.99999e-01,9.98450e-01,9.82233e-01,9.99972e-01
6.553904446e-01,9.81040e-01,9.99999e-01,9.99999e-01,9.98451e-01,9.82581e-01,9.99979e-01
6.586673968e-01,9.81618e-01,9.99999e-01,9.99999e-01,9.98678e-01,9.82922e-01,9.99992e-01
6.619607338e-01,9.82532e-01,9.99999e-01,9.99999e-01,9.99263e-01,9.83257e-01,9.99998e-01
6.652705375e-01,9.83150e-01,9.99999e-01,9.99999e-01,9.99558e-01,9.83585e-01,9.99998e-01
6.685968902e-01,9.83722e-01,9.99999e-01,9.99999e-01,9.99812e-01,9.83906e-01,9.99999e-01
6.719398746e-01,9.84128e-01,9.99999e-01,9.99999e-01,9.99904e-01,9.84222e-01,9.99999e-01
6.752995740e-01,9.84481e-01,9.99999e-01,9.99999e-01,9.99949e-01,9.84531e-01,9.99999e-01
6.786760719e-01,9.84760e-01,9.99999e-01,9.99999e-01,9.99924e-01,9.84834e-01,9.99999e-01
6.820694522e-01,9.85004e-01,9.99999e-01,9.99999e-01,9.99870e-01,9.85131e-01,9.99998e-01
6.854797995e-01,9.85259e-01,9.99999e-01,9.99999e-01,9.99834e-01,9.85423e-01,9.99998e-01
6.889071985e-01,9.85306e-01,9.99999e-01,9.99999e-01,9.99594e-01,9.85709e-01,9.99995e-01
6.923517345e-01,9.79500e-01,9.99999e-01,9.99999e-01,9.93449e-01,9.85989e-01,9.99968e-01
6.958134932e-01,9.82901e-01,9.99999e-01,9.99999e-01,9.96659e-01,9.86264e-01,9.99930e-01
6.992925606e-01,9.83278e-01,9.99999e-01,9.99999e-01,9.96761e-01,9.86533e-01,9.99937e-01
7.027890234e-01,9.82838e-01,9.99999e-01,9.99999e-01,9.96034e-01,9.86798e-01,9.99951e-01
7.063029686e-01,9.83740e-01,9.99999e-01,9.99999e-01,9.96663e-01,9.87057e-01,9.99975e-01
7.098344834e-01,9.84137e-01,9.99999e-01,9.99999e-01,9.96798e-01,9.87311e-01,9.99985e-01
7.133836558e-01,9.83267e-01,9.99999e-01,9.99999e-01,9.95680e-01,9.87560e-01,9.99971e-01
7.169505741e-01,9.53861e-01,9.99999e-01,9.99999e-01,9.65848e-01,9.87804e-01,9.99780e-01
7.205353270e-01,9.71334e-01,9.99999e-01,9.99999e-01,9.83467e-01,9.88043e-01,9.99613e-01
7.241380036e-01,9.66924e-01,9.99999e-01,9.99999e-01,9.78718e-01,9.88278e-01,9.99666e-01
7.277586936e-01,9.69260e-01,9.99999e-01,9.99999e-01,9.80794e-01,9.88508e-01,9.99727e-01
7.313974871e-01,9.68576e-01,9.99999e-01,9.99999e-01,9.79736e-01,9.88734e-01,9.99871e-01
7.350544745e-01,9.77906e-01,9.99999e-01,9.99999e-01,9.88870e-01,9.88955e-01,9.99955e-01
7.387297469e-01,9.81051e-01,9.99999e-01,9.99999e-01,9.91809e-01,9.89172e-01,9.99979e-01
7.424233956e-01,9.85420e-01,9.99999e-01,9.99999e-01,9.95995e-01,9.89385e-01,9.99995e-01
7.461355126e-01,9.87187e-01,9.99999e-01,9.99999e-01,9.97568e-01,9.89593e-01,9.99998e-01
7.498661902e-01,9.88680e-01,9.99999e-01,9.99999e-01,9.98870e-01,9.89798e-01,9.99999e-01
7.536155211e-01,9.89448e-01,9.99999e-01,9.99999e-01,9.99444e-01,9.89998e-01,9.99999e-01
7.573835987e-01,9.89912e-01,9.99999e-01,9.99999e-01,9.99713e-01,9.90195e-01,9.99999e-01
7.611705167e-01,9.90212e-01,9.99999e-01,9.99999e-01,9.99821e-01,9.90388e-01,9.99999e-01
7.649763693e-01,9.90466e-01,9.99999e-01,9.99999e-01,9.99888e-01,9.90577e-01,9.99999e-01
7.688012511e-01,9.90685e-01,9.99999e-01,9.99999e-01,9.99921e-01,9.90762e-01,9.99999e-01
7.726452574e-01,9.90880e-01,9.99999e-01,9.99999e-01,9.99935e-01,9.90944e-01,9.99999e-01
7.765084837e-01,9.91031e-01,9.99999e-01,9.99999e-01,9.99907e-01,9.91122e-01,9.99999e-01
7.803910261e-01,9.90903e-01,9.99999e-01,9.99999e-01,9.99602e-01,9.91296e-01,9.99999e-01
7.842929812e-01,9.90092e-01,9.99999e-01,9.99999e-01,9.98614e-01,9.91467e-01,9.99996e-01
7.882144461e-01,9.88811e-01,9.99999e-01,9.99999e-01,9.97171e-01,9.91635e-01,9.99980e-01
7.921555184e-01,9.90236e-01,9.99999e-01,9.99999e-01,9.98456e-01,9.91800e-01,9.99965e-01
7.961162960e-01,9.89193e-01,9.99999e-01,9.99999e-01,9.97240e-01,9.91961e-01,9.99967e-01
8.000968774e-01,9.88943e-01,9.99999e-01,9.99999e-01,9.96832e-01,9.92119e-01,9.99965e-01
8.040973618e-01,9.89100e-01,9.99999e-01,9.99999e-01,9.96826e-01,9.92274e-01,9.99973e-01
8.081178486e-01,9.85266e-01,9.99999e-01,9.99999e-01,9.92810e-01,9.92426e-01,9.99973e-01
8.121584379e-01,9.63058e-01,9.99999e-01,9.99999e-01,9.70358e-01,9.92575e-01,9.99899e-01
8.162192301e-01,9.57839e-01,9.99999e-01,9.99999e-01,9.65224e-01,9.92721e-01,9.99624e-01
8.203003262e-01,9.74714e-01,9.99999e-01,9.99999e-01,9.82150e-01,9.92865e-01,9.99559e-01
8.244018279e-01,9.68553e-01,9.99999e-01,9.99999e-01,9.75717e-01,9.93005e-01,9.99649e-01
8.285238370e-01,9.72020e-01,9.99999e-01,9.99999e-01,9.78999e-01,9.93143e-01,9.99724e-01
8.326664562e-01,9.72162e-01,9.99999e-01,9.99999e-01,9.78851e-01,9.93278e-01,9.99885e-01
8.368297885e-01,9.78382e-01,9.99999e-01,9.99999e-01,9.84897e-01,9.93410e-01,9.99973e-01
8.410139374e-01,9.84593e-01,9.99999e-01,9.99999e-01,9.91009e-01,9.93540e-01,9.99984e-01
8.452190071e-01,9.89276e-01,9.99999e-01,9.99999e-01,9.95589e-01,9.93667e-01,9.99990e-01
8.494451021e-01,9.91231e-01,9.99999e-01,9.99999e-01,9.97430e-01,9.93792e-01,9.99992e-01
8.536923276e-01,9.92404e-01,9.99999e-01,9.99999e-01,9.98484e-01,9.93914e-01,9.99995e-01
8.579607893e-01,9.93103e-01,9.99999e-01,9.99999e-01,9.99064e-01,9.94034e-01,9.99998e-01
8.622505932e-01,9.93562e-01,9.99999e-01,9.99999e-01,9.99406e-01,9.94151e-01,9.99999e-01
8.665618462e-01,9.93900e-01,9.99999e-01,9.99999e-01,9.99631e-01,9.94266e-01,9.99999e-01
8.708946554e-01,9.93959e-01,9.99999e-01,9.99999e-01,9.99577e-01,9.94379e-01,9.99999e-01
8.752491287e-01,9.93928e-01,9.99999e-01,9.99999e-01,9.99435e-01,9.94490e-01,9.99998e-01
8.796253743e-01,9.93817e-01,9.99999e-01,9.99999e-01,9.99215e-01,9.94598e-01,9.99997e-01
8.840235012e-01,9.93809e-01,9.99999e-01,9.99999e-01,9.99104e-01,9.94705e-01,9.99994e-01
8.884436187e-01,9.91486e-01,9.99999e-01,9.99999e-01,9.96674e-01,9.94809e-01,9.99984e-01
8.928858368e-01,9.60823e-01,9.99999e-01,9.99999e-01,9.65823e-01,9.94911e-01,9.99910e-01
8.973502660e-01,9.35676e-01,9.99999e-01,9.99999e-01,9.40795e-01,9.95012e-01,9.99542e-01
9.018370173e-01,9.64134e-01,9.99999e-01,9.99999e-01,9.69567e-01,9.95110e-01,9.99281e-01
9.063462024e-01,9.67484e-01,9.99999e-01,9.99999e-01,9.72756e-01,9.95206e-01,9.99368e-01
9.108779334e-01,9.52912e-01,9.99999e-01,9.99999e-01,9.58038e-01,9.95301e-01,9.99344e-01
9.154323231e-01,9.47692e-01,9.99999e-01,9.99999e-01,9.52593e-01,9.95393e-01,9.99457e-01
9.200094847e-01,9.58111e-01,9.99999e-01,9.99999e-01,9.62748e-01,9.95484e-01,9.99696e-01
9.246095321e-01,9.36252e-01,9.99999e-01,9.99999e-01,9.40743e-01,9.95573e-01,9.99650e-01
9.292325798e-01,6.62902e-01,9.99999e-01,9.99999e-01,6.66915e-01,9.95660e-01,9.98313e-01
9.338787427e-01,5.89100e-01,9.99999e-01,9.99999e-01,5.95236e-01,9.95746e-01,9.93919e-01
9.385481364e-01,8.03052e-01,9.99999e-01,9.99999e-01,8.11836e-01,9.95830e-01,9.93321e-01
9.432408771e-01,7.37436e-01,9.99999e-01,9.99999e-01,7.44755e-01,9.95912e-01,9.94235e-01
9.479570815e-01,6.58814e-01,9.99999e-01,9.99999e-01,6.64583e-01,9.95992e-01,9.95305e-01
9.526968669e-01,7.34470e-01,9.99999e-01,9.99999e-01,7.39485e-01,9.96071e-01,9.97134e-01
9.574603512e-01,7.54951e-01,9.99999e-01,9.99999e-01,7.58975e-01,9.96149e-01,9.98542e-01
9.622476530e-01,7.96076e-01,9.99999e-01,9.99999e-01,7.99898e-01,9.96225e-01,9.98992e-01
9.670588912e-01,8.75343e-01,9.99999e-01,9.99999e-01,8.79199e-01,9.96299e-01,9.99310e-01
9.718941857e-01,9.18969e-01,9.99999e-01,9.99999e-01,9.22782e-01,9.96372e-01,9.99492e-01
9.767536566e-01,9.31776e-01,9.99999e-01,9.99999e-01,9.35463e-01,9.96444e-01,9.99611e-01
9.816374249e-01,9.48473e-01,9.99999e-01,9.99999e-01,9.51918e-01,9.96514e-01,9.99865e-01
9.865456120e-01,9.66369e-01,9.99999e-01,9.99999e-01,9.69709e-01,9.96582e-01,9.99971e-01
9.914783401e-01,9.77873e-01,9.99999e-01,9.99999e-01,9.81166e-01,9.96650e-01,9.99991e-01
9.964357318e-01,9.86450e-01,9.99999e-01,9.99999e-01,9.89704e-01,9.96716e-01,9.99994e-01
1.001417910e+00,9.90616e-01,9.99999e-01,9.99999e-01,9.93821e-01,9.96781e-01,9.99992e-01
1.006425000e+00,9.93312e-01,9.99999e-01,9.99999e-01,9.96466e-01,9.96844e-01,9.99989e-01
1.011457125e+00,9.94716e-01,9.99999e-01,9.99999e-01,9.97811e-01,9.96906e-01,9.99990e-01
1.016514411e+00,9.95477e-01,9.99999e-01,9.99999e-01,9.98511e-01,9.96967e-01,9.99993e-01
1.021596983e+00,9.95838e-01,9.99999e-01,9.99999e-01,9.98812e-01,9.97027e-01,9.99993e-01
1.026704968e+00,9.96159e-01,9.99999e-01,9.99999e-01,9.99073e-01,9.97086e-01,9.99995e-01
1.031838492e+00,9.96472e-01,9.99999e-01,9.99999e-01,9.99327e-01,9.97143e-01,9.99998e-01
1.036997685e+00,9.96801e-01,9.99999e-01,9.99999e-01,9.99599e-01,9.97199e-01,9.99999e-01
1.042182673e+00,9.96778e-01,9.99999e-01,9.99999e-01,9.99521e-01,9.97255e-01,9.99999e-01
1.047393587e+00,9.96677e-01,9.99999e-01,9.99999e-01,9.99366e-01,9.97309e-01,9.99999e-01
1.052630555e+00,9.96494e-01,9.99999e-01,9.99999e-01,9.99129e-01,9.97362e-01,9.99999e-01
1.057893707e+00,9.95963e-01,9.99999e-01,9.99999e-01,9.98544e-01,9.97414e-01,9.99999e-01
1.063183176e+00,9.95079e-01,9.99999e-01,9.99999e-01,9.97608e-01,9.97465e-01,9.99998e-01
1.068499092e+00,9.93526e-01,9.99999e-01,9.99999e-01,9.96003e-01,9.97515e-01,9.99996e-01
1.073841587e+00,9.92883e-01,9.99999e-01,9.99999e-01,9.95313e-01,9.97564e-01,9.99993e-01
1.079210795e+00,9.91629e-01,9.99999e-01,9.99999e-01,9.94018e-01,9.97612e-01,9.99983e-01
1.084606849e+00,9.88582e-01,9.99999e-01,9.99999e-01,9.90939e-01,9.97659e-01,9.99961e-01
1.090029883e+00,9.84580e-01,9.99999e-01,9.99999e-01,9.86922e-01,9.97705e-01,9.99919e-01
1.095480033e+00,9.62522e-01,9.99999e-01,9.99999e-01,9.64830e-01,9.97750e-01,9.99855e-01
1.100957433e+00,9.10693e-01,9.99999e-01,9.99999e-01,9.12946e-01,9.97795e-01,9.99734e-01
1.106462220e+00,7.90239e-01,9.99999e-01,9.99999e-01,7.92306e-01,9.97838e-01,9.99550e-01
1.111994531e+00,6.11917e-01,9.99999e-01,9.99999e-01,6.13948e-01,9.97881e-01,9.98807e-01
1.117554504e+00,4.51013e-01,9.99999e-01,9.99999e-01,4.53903e-01,9.97923e-01,9.95701e-01
1.123142276e+00,5.52074e-01,9.99999e-01,9.99999e-01,5.58879e-01,9.97964e-01,9.89836e-01
1.128757988e+00,6.79437e-01,9.99999e-01,9.99999e-01,6.88888e-01,9.98004e-01,9.88252e-01
1.134401778e+00,4.29590e-01,9.99999e-01,9.99999e-01,4.34779e-01,9.98043e-01,9.90001e-01
1.140073787e+00,7.93289e-01,9.99999e-01,9.99999e-01,8.01219e-01,9.98082e-01,9.92003e-01
1.145774156e+00,6.24059e-01,9.99999e-01,9.99999e-01,6.29845e-01,9.98120e-01,9.92677e-01
1.151503026e+00,5.92962e-01,9.99999e-01,9.99999e-01,5.96493e-01,9.98157e-01,9.95914e-01
1.157260541e+00,6.49798e-01,9.99999e-01,9.99999e-01,6.51771e-01,9.98193e-01,9.98776e-01
1.163046844e+00,7.27986e-01,9.99999e-01,9.99999e-01,7.29530e-01,9.98229e-01,9.99652e-01
1.168862078e+00,8.02182e-01,9.99999e-01,9.99999e-01,8.03720e-01,9.98264e-01,9.99820e-01
1.174706389e+00,8.72151e-01,9.99999e-01,9.99999e-01,8.73844e-01,9.98298e-01,9.99762e-01
1.180579921e+00,9.19369e-01,9.99999e-01,9.99999e-01,9.21235e-01,9.98332e-01,9.99641e-01
1.186482820e+00,9.52791e-01,9.99999e-01,9.99999e-01,9.54702e-01,9.98364e-01,9.99631e-01
1.192415234e+00,9.71473e-01,9.99999e-01,9.99999e-01,9.73300e-01,9.98397e-01,9.99724e-01
1.198377311e+00,9.75618e-01,9.99999e-01,9.99999e-01,9.77408e-01,9.98428e-01,9.99738e-01
1.204369197e+00,9.76891e-01,9.99999e-01,9.99999e-01,9.78620e-01,9.98459e-01,9.99771e-01
1.210391043e+00,9.77936e-01,9.99999e-01,9.99999e-01,9.79555e-01,9.98490e-01,9.99856e-01
1.216442998e+00,9.81078e-01,9.99999e-01,9.99999e-01,9.82618e-01,9.98519e-01,9.99911e-01
1.222525213e+00,9.84951e-01,9.99999e-01,9.99999e-01,9.86435e-01,9.98549e-01,9.99945e-01
1.228637839e+00,9.89124e-01,9.99999e-01,9.99999e-01,9.90557e-01,9.98577e-01,9.99974e-01
