#,Wave/freq,Total,N2,O2,H2O,Rayleigh,CIA
4.000000000e-01,8.42902e-01,9.99999e-01,9.99999e-01,9.99980e-01,8.42918e-01,9.99999e-01
4.020000000e-01,8.45761e-01,9.99999e-01,9.99999e-01,9.99987e-01,8.45771e-01,9.99999e-01
4.040100000e-01,8.48570e-01,9.99999e-01,9.99999e-01,9.99994e-01,8.48574e-01,9.99999e-01
4.060300500e-01,8.51329e-01,9.99999e-01,9.99999e-01,9.99998e-01,8.51330e-01,9.99999e-01
4.080602003e-01,8.54041e-01,9.99999e-01,9.99999e-01,9.99999e-01,8.54041e-01,9.99999e-01
4.101005013e-01,8.56707e-01,9.99999e-01,9.99999e-01,9.99999e-01,8.56707e-01,9.99999e-01
4.121510038e-01,8.59328e-01,9.99999e-01,9.99999e-01,9.99998e-01,8.59328e-01,9.99999e-01
4.142117588e-01,8.61901e-01,9.99999e-01,9.99999e-01,9.99994e-01,8.61905e-01,9.99999e-01
4.162828176e-01,8.64419e-01,9.99999e-01,9.99999e-01,9.99975e-01,8.64439e-01,9.99999e-01
4.183642317e-01,8.66918e-01,9.99999e-01,9.99999e-01,9.99985e-01,8.66930e-01,9.99999e-01
4.204560528e-01,8.69371e-01,9.99999e-01,9.99999e-01,9.99990e-01,8.69379e-01,9.99999e-01
4.225583331e-01,8.71783e-01,9.99999e-01,9.99999e-01,9.99996e-01,8.71786e-01,9.99999e-01
4.246711247e-01,8.74149e-01,9.99999e-01,9.99999e-01,9.99996e-01,8.74152e-01,9.99999e-01
4.267944804e-01,8.76474e-01,9.99999e-01,9.99999e-01,9.99995e-01,8.76477e-01,9.99999e-01
4.289284528e-01,8.78760e-01,9.99999e-01,9.99999e-01,9.99996e-01,8.78763e-01,9.99999e-01
4.310730950e-01,8.81008e-01,9.99999e-01,9.99999e-01,9.99998e-01,8.81009e-01,9.99999e-01
4.332284605e-01,8.83216e-01,9.99999e-01,9.99999e-01,9.99999e-01,8.83216e-01,9.99999e-01
4.353946028e-01,8.85385e-01,9.99999e-01,9.99999e-01,9.99999e-01,8.85385e-01,9.99999e-01
4.375715758e-01,8.87515e-01,9.99999e-01,9.99999e-01,9.99997e-01,8.87517e-01,9.99999e-01
4.397594337e-01,8.89593e-01,9.99999e-01,9.99999e-01,9.99978e-01,8.89611e-01,9.99999e-01
4.419582309e-01,8.91574e-01,9.99999e-01,9.99999e-01,9.99892e-01,8.91669e-01,9.99999e-01
4.441680220e-01,8.93617e-01,9.99999e-01,9.99999e-01,9.99916e-01,8.93691e-01,9.99999e-01
4.463888621e-01,8.95600e-01,9.99999e-01,9.99999e-01,9.99913e-01,8.95677e-01,9.99999e-01
4.486208064e-01,8.97580e-01,9.99999e-01,9.99999e-01,9.99945e-01,8.97628e-01,9.99999e-01
4.508639105e-01,8.99523e-01,9.99999e-01,9.99999e-01,9.99974e-01,8.99545e-01,9.99999e-01
4.531182300e-01,9.01419e-01,9.99999e-01,9.99999e-01,9.99989e-01,9.01428e-01,9.99999e-01
4.553838212e-01,9.03272e-01,9.99999e-01,9.99999e-01,9.99992e-01,9.03278e-01,9.99999e-01
4.576607403e-01,9.05092e-01,9.99999e-01,9.99999e-01,9.99996e-01,9.05095e-01,9.99999e-01
4.599490440e-01,9.06877e-01,9.99999e-01,9.99999e-01,9.99997e-01,9.06879e-01,9.99999e-01
4.622487892e-01,9.08631e-01,9.99999e-01,9.99999e-01,9.99999e-01,9.08632e-01,9.99999e-01
4.645600332e-01,9.10352e-01,9.99999e-01,9.99999e-01,9.99997e-01,9.10353e-01,9.99999e-01
4.668828333e-01,9.12020e-01,9.99999e-01,9.99999e-01,9.99974e-01,9.12043e-01,9.99999e-01
4.692172475e-01,9.13654e-01,9.99999e-01,9.99999e-01,9.99945e-01,9.13704e-01,9.99999e-01
4.715633337e-01,9.15301e-01,9.99999e-01,9.99999e-01,9.99964e-01,9.15334e-01,9.99999e-01
4.739211504e-01,9.16904e-01,9.99999e-01,9.99999e-01,9.99965e-01,9.16935e-01,9.99999e-01
4.762907561e-01,9.18490e-01,9.99999e-01,9.99999e-01,9.99981e-01,9.18507e-01,9.99999e-01
4.786722099e-01,9.20044e-01,9.99999e-01,9.99999e-01,9.99992e-01,9.20050e-01,9.99999e-01
4.810655710e-01,9.21564e-01,9.99999e-01,9.99999e-01,9.99997e-01,9.21566e-01,9.99999e-01
4.834708988e-01,9.23034e-01,9.99999e-01,9.99999e-01,9.99978e-01,9.23054e-01,9.99999e-01
4.858882533e-01,9.24479e-01,9.99999e-01,9.99999e-01,9.99961e-01,9.24515e-01,9.99999e-01
4.883176946e-01,9.25919e-01,9.99999e-01,9.99999e-01,9.99967e-01,9.25949e-01,9.99999e-01
4.907592831e-01,9.27330e-01,9.99999e-01,9.99999e-01,9.99970e-01,9.27357e-01,9.99999e-01
4.932130795e-01,9.28721e-01,9.99999e-01,9.99999e-01,9.99978e-01,9.28740e-01,9.99999e-01
4.956791449e-01,9.30087e-01,9.99999e-01,9.99999e-01,9.99988e-01,9.30097e-01,9.99999e-01
4.981575406e-01,9.31378e-01,9.99999e-01,9.99999e-01,9.99944e-01,9.31429e-01,9.99999e-01
5.006483283e-01,9.32604e-01,9.99999e-01,9.99999e-01,9.99857e-01,9.32737e-01,9.99998e-01
5.031515699e-01,9.33344e-01,9.99999e-01,9.99999e-01,9.99282e-01,9.34021e-01,9.99991e-01
5.056673278e-01,9.34919e-01,9.99999e-01,9.99999e-01,9.99621e-01,9.35281e-01,9.99990e-01
5.081956644e-01,9.36066e-01,9.99999e-01,9.99999e-01,9.99522e-01,9.36518e-01,9.99994e-01
5.107366428e-01,9.37429e-01,9.99999e-01,9.99999e-01,9.99677e-01,9.37732e-01,9.99998e-01
5.132903260e-01,9.38751e-01,9.99999e-01,9.99999e-01,9.99815e-01,9.38923e-01,9.99999e-01
5.158567776e-01,9.40020e-01,9.99999e-01,9.99999e-01,9.99921e-01,9.40093e-01,9.99999e-01
5.184360615e-01,9.41211e-01,9.99999e-01,9.99999e-01,9.99968e-01,9.41241e-01,9.99999e-01
5.210282418e-01,9.42356e-01,9.99999e-01,9.99999e-01,9.99987e-01,9.42367e-01,9.99999e-01
5.236333830e-01,9.43428e-01,9.99999e-01,9.99999e-01,9.99952e-01,9.43473e-01,9.99999e-01
5.262515499e-01,9.44530e-01,9.99999e-01,9.99999e-01,9.99970e-01,9.44558e-01,9.99999e-01
5.288828077e-01,9.45597e-01,9.99999e-01,9.99999e-01,9.99972e-01,9.45622e-01,9.99999e-01
5.315272217e-01,9.46645e-01,9.99999e-01,9.99999e-01,9.99976e-01,9.46667e-01,9.99999e-01
5.341848578e-01,9.47678e-01,9.99999e-01,9.99999e-01,9.99984e-01,9.47693e-01,9.99999e-01
5.368557821e-01,9.48647e-01,9.99999e-01,9.99999e-01,9.99945e-01,9.48699e-01,9.99999e-01
5.395400610e-01,9.49498e-01,9.99999e-01,9.99999e-01,9.99802e-01,9.49686e-01,9.99997e-01
5.422377613e-01,9.50410e-01,9.99999e-01,9.99999e-01,9.99746e-01,9.50655e-01,9.99994e-01
5.449489501e-01,9.51377e-01,9.99999e-01,9.99999e-01,9.99763e-01,9.51606e-01,9.99994e-01
5.476736949e-01,9.52338e-01,9.99999e-01,9.99999e-01,9.99790e-01,9.52539e-01,9.99997e-01
5.504120634e-01,9.53309e-01,9.99999e-01,9.99999e-01,9.99848e-01,9.53454e-01,9.99998e-01
5.531641237e-01,9.54279e-01,9.99999e-01,9.99999e-01,9.99923e-01,9.54352e-01,9.99999e-01
5.559299443e-01,9.55198e-01,9.99999e-01,9.99999e-01,9.99962e-01,9.55233e-01,9.99999e-01
5.587095940e-01,9.56076e-01,9.99999e-01,9.99999e-01,9.99976e-01,9.56098e-01,9.99999e-01
5.615031420e-01,9.56921e-01,9.99999e-01,9.99999e-01,9.99973e-01,9.56946e-01,9.99999e-01
5.643106577e-01,9.57750e-01,9.99999e-01,9.99999e-01,9.99970e-01,9.57778e-01,9.99999e-01
5.671322110e-01,9.58250e-01,9.99999e-01,9.99999e-01,9.99643e-01,9.58595e-01,9.99996e-01
5.699678720e-01,9.59026e-01,9.99999e-01,9.99999e-01,9.99623e-01,9.59396e-01,9.99989e-01
5.728177114e-01,9.59797e-01,9.99999e-01,9.99999e-01,9.99606e-01,9.60181e-01,9.99991e-01
5.756818000e-01,9.60602e-01,9.99999e-01,9.99999e-01,9.99639e-01,9.60952e-01,9.99994e-01
5.785602090e-01,9.61406e-01,9.99999e-01,9.99999e-01,9.99685e-01,9.61709e-01,9.99998e-01
5.814530100e-01,9.62146e-01,9.99999e-01,9.99999e-01,9.99684e-01,9.62451e-01,9.99998e-01
5.843602750e-01,9.62814e-01,9.99999e-01,9.99999e-01,9.99622e-01,9.63178e-01,9.99997e-01
5.872820764e-01,9.60741e-01,9.99999e-01,9.99999e-01,9.96752e-01,9.63892e-01,9.99976e-01
5.902184868e-01,9.60750e-01,9.99999e-01,9.99999e-01,9.96077e-01,9.64593e-01,9.99937e-01
5.931695792e-01,9.62545e-01,9.99999e-01,9.99999e-01,9.97225e-01,9.65280e-01,9.99939e-01
5.961354271e-01,9.62986e-01,9.99999e-01,9.99999e-01,9.96960e-01,9.65954e-01,9.99965e-01
5.991161043e-01,9.64463e-01,9.99999e-01,9.99999e-01,9.97783e-01,9.66615e-01,9.99988e-01
6.021116848e-01,9.66047e-01,9.99999e-01,9.99999e-01,9.98742e-01,9.67264e-01,9.99998e-01
6.051222432e-01,9.67284e-01,9.99999e-01,9.99999e-01,9.99363e-01,9.67900e-01,9.99999e-01
6.081478544e-01,9.68258e-01,9.99999e-01,9.99999e-01,9.99725e-01,9.68524e-01,9.99999e-01
6.111885937e-01,9.69023e-01,9.99999e-01,9.99999e-01,9.99883e-01,9.69136e-01,9.99999e-01
6.142445367e-01,9.69686e-01,9.99999e-01,9.99999e-01,9.99947e-01,9.69736e-01,9.99999e-01
6.173157594e-01,9.70297e-01,9.99999e-01,9.99999e-01,9.99970e-01,9.70325e-01,9.99999e-01
6.204023382e-01,9.70879e-01,9.99999e-01,9.99999e-01,9.99975e-01,9.70902e-01,9.99999e-01
6.235043498e-01,9.71364e-01,9.99999e-01,9.99999e-01,9.99892e-01,9.71469e-01,9.99999e-01
6.266218716e-01,9.71471e-01,9.99999e-01,9.99999e-01,9.99434e-01,9.72024e-01,9.99995e-01
6.297549810e-01,9.72360e-01,9.99999e-01,9.99999e-01,9.99792e-01,9.72569e-01,9.99991e-01
6.329037559e-01,9.72699e-01,9.99999e-01,9.99999e-01,9.99590e-01,9.73104e-01,9.99993e-01
6.360682746e-01,9.73285e-01,9.99999e-01,9.99999e-01,9.99650e-01,9.73628e-01,9.99995e-01
6.392486160e-01,9.73700e-01,9.99999e-01,9.99999e-01,9.99547e-01,9.74142e-01,9.99997e-01
6.424448591e-01,9.74053e-01,9.99999e-01,9.99999e-01,9.99393e-01,9.74646e-01,9.99996e-01
6.456570834e-01,9.72382e-01,9.99999e-01,9.99999e-01,9.97186e-01,9.75141e-01,9.99983e-01
6.488853688e-01,9.73580e-01,9.99999e-01,9.99999e-01,9.97945e-01,9.75626e-01,9.99956e-01
6.521297956e-01,9.74023e-01,9.99999e-01,9.99999e-01,9.97905e-01,9.76101e-01,9.99963e-01
6.553904446e-01,9.74505e-01,9.99999e-01,9.99999e-01,9.97913e-01,9.76568e-01,9.99972e-01
6.586673968e-01,9.75273e-01,9.99999e-01,9.99999e-01,9.98214e-01,9.77025e-01,9.99990e-01
6.619607338e-01,9.76500e-01,9.99999e-01,9.99999e-01,9.99005e-01,9.77474e-01,9.99997e-01
6.652705375e-01,9.77329e-01,9.99999e-01,9.99999e-01,9.99402e-01,9.77914e-01,9.99998e-01
6.685968902e-01,9.78074e-01,9.99999e-01,9.99999e-01,9.99722e-01,9.78345e-01,9.99999e-01
6.719398746e-01,9.78643e-01,9.99999e-01,9.99999e-01,9.99871e-01,9.78768e-01,9.99999e-01
6.752995740e-01,9.79115e-01,9.99999e-01,9.99999e-01,9.99929e-01,9.79183e-01,9.99999e-01
6.786760719e-01,9.79492e-01,9.99999e-01,9.99999e-01,9.99898e-01,9.79590e-01,9.99999e-01
6.820694522e-01,9.79820e-01,9.99999e-01,9.99999e-01,9.99827e-01,9.79989e-01,9.99998e-01
6.854797995e-01,9.80161e-01,9.99999e-01,9.99999e-01,9.99777e-01,9.80381e-01,9.99997e-01
6.889071985e-01,9.80230e-01,9.99999e-01,9.99999e-01,9.99458e-01,9.80765e-01,9.99994e-01
6.923517345e-01,9.72482e-01,9.99999e-01,9.99999e-01,9.91216e-01,9.81141e-01,9.99957e-01
6.958134932e-01,9.76955e-01,9.99999e-01,9.99999e-01,9.95451e-01,9.81510e-01,9.99906e-01
6.992925606e-01,9.77523e-01,9.99999e-01,9.99999e-01,9.95653e-01,9.81872e-01,9.99915e-01
7.027890234e-01,9.76908e-01,9.99999e-01,9.99999e-01,9.94648e-01,9.82227e-01,9.99935e-01
7.063029686e-01,9.78121e-01,9.99999e-01,9.99999e-01,9.95498e-01,9.82575e-01,9.99967e-01
7.098344834e-01,9.78653e-01,9.99999e-01,9.99999e-01,9.95680e-01,9.82916e-01,9.99980e-01
7.133836558e-01,9.77535e-01,9.99999e-01,9.99999e-01,9.94224e-01,9.83250e-01,9.99962e-01
7.169505741e-01,9.38490e-01,9.99999e-01,9.99999e-01,9.54440e-01,9.83578e-01,9.99704e-01
7.205353270e-01,9.61336e-01,9.99999e-01,9.99999e-01,9.77575e-01,9.83900e-01,9.99478e-01
7.241380036e-01,9.55716e-01,9.99999e-01,9.99999e-01,9.71478e-01,9.84216e-01,9.99549e-01
7.277586936e-01,9.58806e-01,9.99999e-01,9.99999e-01,9.74234e-01,9.84525e-01,9.99632e-01
7.313974871e-01,9.57763e-01,9.99999e-01,9.99999e-01,9.72684e-01,9.84828e-01,9.99827e-01
7.350544745e-01,9.70280e-01,9.99999e-01,9.99999e-01,9.84988e-01,9.85126e-01,9.99939e-01
7.387297469e-01,9.74492e-01,9.99999e-01,9.99999e-01,9.88939e-01,9.85417e-01,9.99972e-01
7.424233956e-01,9.80355e-01,9.99999e-01,9.99999e-01,9.94579e-01,9.85703e-01,9.99994e-01
7.461355126e-01,9.82740e-01,9.99999e-01,9.99999e-01,9.96711e-01,9.85984e-01,9.99998e-01
7.498661902e-01,9.84749e-01,9.99999e-01,9.99999e-01,9.98468e-01,9.86259e-01,9.99999e-01
7.536155211e-01,9.85787e-01,9.99999e-01,9.99999e-01,9.99248e-01,9.86528e-01,9.99999e-01
7.573835987e-01,9.86411e-01,9.99999e-01,9.99999e-01,9.99612e-01,9.86793e-01,9.99999e-01
7.611705167e-01,9.86815e-01,9.99999e-01,9.99999e-01,9.99759e-01,9.87052e-01,9.99999e-01
7.649763693e-01,9.87157e-01,9.99999e-01,9.99999e-01,9.99848e-01,9.87306e-01,9.99999e-01
7.688012511e-01,9.87451e-01,9.99999e-01,9.99999e-01,9.99894e-01,9.87555e-01,9.99999e-01
7.726452574e-01,9.87714e-01,9.99999e-01,9.99999e-01,9.99913e-01,9.87799e-01,9.99999e-01
7.765084837e-01,9.87917e-01,9.99999e-01,9.99999e-01,9.99876e-01,9.88039e-01,9.99999e-01
7.803910261e-01,9.87748e-01,9.99999e-01,9.99999e-01,9.99467e-01,9.88274e-01,9.99998e-01
7.842929812e-01,9.86665e-01,9.99999e-01,9.99999e-01,9.98142e-01,9.88504e-01,9.99996e-01
7.882144461e-01,9.84933e-01,9.99999e-01,9.99999e-01,9.96185e-01,9.88730e-01,9.99973e-01
7.921555184e-01,9.86840e-01,9.99999e-01,9.99999e-01,9.97909e-01,9.88951e-01,9.99954e-01
7.961162960e-01,9.85462e-01,9.99999e-01,9.99999e-01,9.96296e-01,9.89168e-01,9.99956e-01
8.000968774e-01,9.85111e-01,9.99999e-01,9.99999e-01,9.95729e-01,9.89381e-01,9.99953e-01
8.040973618e-01,9.85327e-01,9.99999e-01,9.99999e-01,9.95727e-01,9.89590e-01,9.99964e-01
8.081178486e-01,9.80226e-01,9.99999e-01,9.99999e-01,9.90368e-01,9.89794e-01,9.99963e-01
8.121584379e-01,9.50686e-01,9.99999e-01,9.99999e-01,9.60422e-01,9.89995e-01,9.99864e-01
8.162192301e-01,9.43471e-01,9.99999e-01,9.99999e-01,9.53299e-01,9.90191e-01,9.99493e-01
8.203003262e-01,9.66350e-01,9.99999e-01,9.99999e-01,9.76310e-01,9.90384e-01,9.99406e-01
8.244018279e-01,9.57679e-01,9.99999e-01,9.99999e-01,9.67248e-01,9.90573e-01,9.99527e-01
8.285238370e-01,9.62502e-01,9.99999e-01,9.99999e-01,9.71839e-01,9.90758e-01,9.99628e-01
8.326664562e-01,9.62615e-01,9.99999e-01,9.99999e-01,9.71564e-01,9.90940e-01,9.99846e-01
8.368297885e-01,9.70900e-01,9.99999e-01,9.99999e-01,9.79634e-01,9.91118e-01,9.99964e-01
8.410139374e-01,9.79237e-01,9.99999e-01,9.99999e-01,9.87857e-01,9.91293e-01,9.99979e-01
8.452190071e-01,9.85536e-01,9.99999e-01,9.99999e-01,9.94032e-01,9.91464e-01,9.99987e-01
8.494451021e-01,9.88183e-01,9.99999e-01,9.99999e-01,9.96531e-01,9.91632e-01,9.99989e-01
8.536923276e-01,9.89758e-01,9.99999e-01,9.99999e-01,9.97949e-01,9.91797e-01,9.99993e-01
8.579607893e-01,9.90703e-01,9.99999e-01,9.99999e-01,9.98735e-01,9.91958e-01,9.99998e-01
8.622505932e-01,9.91320e-01,9.99999e-01,9.99999e-01,9.99197e-01,9.92116e-01,9.99999e-01
8.665618462e-01,9.91778e-01,9.99999e-01,9.99999e-01,9.99502e-01,9.92271e-01,9.99999e-01
8.708946554e-01,9.91858e-01,9.99999e-01,9.99999e-01,9.99430e-01,9.92423e-01,9.99999e-01
8.752491287e-01,9.91816e-01,9.99999e-01,9.99999e-01,9.99238e-01,9.92572e-01,9.99998e-01
8.796253743e-01,9.91669e-01,9.99999e-01,9.99999e-01,9.98944e-01,9.92719e-01,9.99997e-01
8.840235012e-01,9.91658e-01,9.99999e-01,9.99999e-01,9.98794e-01,9.92862e-01,9.99992e-01
8.884436187e-01,9.88597e-01,9.99999e-01,9.99999e-01,9.95584e-01,9.93002e-01,9.99978e-01
8.928858368e-01,9.47835e-01,9.99999e-01,9.99999e-01,9.54496e-01,9.93140e-01,9.99879e-01
8.973502660e-01,9.14304e-01,9.99999e-01,9.99999e-01,9.21061e-01,9.93275e-01,9.99383e-01
9.018370173e-01,9.51736e-01,9.99999e-01,9.99999e-01,9.58979e-01,9.93407e-01,9.99030e-01
9.063462024e-01,9.56626e-01,9.99999e-01,9.99999e-01,9.63667e-01,9.93537e-01,9.99148e-01
9.108779334e-01,9.37178e-01,9.99999e-01,9.99999e-01,9.43987e-01,9.93664e-01,9.99115e-01
9.154323231e-01,9.30171e-01,9.99999e-01,9.99999e-01,9.36668e-01,9.93789e-01,9.99268e-01
9.200094847e-01,9.43905e-01,9.99999e-01,9.99999e-01,9.50075e-01,9.93911e-01,9.99590e-01
9.246095321e-01,9.16521e-01,9.99999e-01,9.99999e-01,9.22458e-01,9.94031e-01,9.99528e-01
9.292325798e-01,5.79769e-01,9.99999e-01,9.99999e-01,5.84254e-01,9.94149e-01,9.98162e-01
9.338787427e-01,4.94286e-01,9.99999e-01,9.99999e-01,5.00930e-01,9.94264e-01,9.92427e-01
9.385481364e-01,7.45703e-01,9.99999e-01,9.99999e-01,7.56729e-01,9.94377e-01,9.90999e-01
9.432408771e-01,6.68999e-01,9.99999e-01,9.99999e-01,6.77973e-01,9.94488e-01,9.92230e-01
9.479570815e-01,5.78641e-01,9.99999e-01,9.99999e-01,5.85489e-01,9.94596e-01,9.93672e-01
9.526968669e-01,6.63563e-01,9.99999e-01,9.99999e-01,6.69684e-01,9.94703e-01,9.96135e-01
9.574603512e-01,6.86265e-01,9.99999e-01,9.99999e-01,6.91205e-01,9.94807e-01,9.98034e-01
9.622476530e-01,7.35769e-01,9.99999e-01,9.99999e-01,7.40539e-01,9.94909e-01,9.98640e-01
9.670588912e-01,8.35991e-01,9.99999e-01,9.99999e-01,8.40965e-01,9.95010e-01,9.99069e-01
9.718941857e-01,8.92343e-01,9.99999e-01,9.99999e-01,8.97343e-01,9.95108e-01,9.99315e-01
9.767536566e-01,9.09148e-01,9.99999e-01,9.99999e-01,9.14006e-01,9.95204e-01,9.99476e-01
9.816374249e-01,9.31028e-01,9.99999e-01,9.99999e-01,9.35594e-01,9.95299e-01,9.99818e-01
9.865456120e-01,9.54818e-01,9.99999e-01,9.99999e-01,9.59273e-01,9.95392e-01,9.99961e-01
9.914783401e-01,9.70217e-01,9.99999e-01,9.99999e-01,9.74629e-01,9.95482e-01,9.99989e-01
9.964357318e-01,9.81735e-01,9.99999e-01,9.99999e-01,9.86107e-01,9.95571e-01,9.99993e-01
1.001417910e+00,9.87339e-01,9.99999e-01,9.99999e-01,9.91653e-01,9.95659e-01,9.99990e-01
1.006425000e+00,9.90983e-01,9.99999e-01,9.99999e-01,9.95231e-01,9.95744e-01,9.99986e-01
1.011457125e+00,9.92869e-01,9.99999e-01,9.99999e-01,9.97040e-01,9.95828e-01,9.99987e-01
1.016514411e+00,9.93899e-01,9.99999e-01,9.99999e-01,9.97989e-01,9.95910e-01,9.99990e-01
1.021596983e+00,9.94386e-01,9.99999e-01,9.99999e-01,9.98397e-01,9.95991e-01,9.99990e-01
1.026704968e+00,9.94819e-01,9.99999e-01,9.99999e-01,9.98749e-01,9.96070e-01,9.99993e-01
1.031838492e+00,9.95241e-01,9.99999e-01,9.99999e-01,9.99091e-01,9.96147e-01,9.99997e-01
1.036997685e+00,9.95685e-01,9.99999e-01,9.99999e-01,9.99459e-01,9.96223e-01,9.99999e-01
1.042182673e+00,9.95656e-01,9.99999e-01,9.99999e-01,9.99355e-01,9.96298e-01,9.99999e-01
1.047393587e+00,9.95520e-01,9.99999e-01,9.99999e-01,9.99145e-01,9.96371e-01,9.99999e-01
1.052630555e+00,9.95274e-01,9.99999e-01,9.99999e-01,9.98827e-01,9.96442e-01,9.99999e-01
1.057893707e+00,9.94562e-01,9.99999e-01,9.99999e-01,9.98042e-01,9.96512e-01,9.99998e-01
1.063183176e+00,9.93372e-01,9.99999e-01,9.99999e-01,9.96781e-01,9.96581e-01,9.99997e-01
1.068499092e+00,9.91280e-01,9.99999e-01,9.99999e-01,9.94616e-01,9.96649e-01,9.99995e-01
1.073841587e+00,9.90425e-01,9.99999e-01,9.99999e-01,9.93697e-01,9.96715e-01,9.99991e-01
1.079210795e+00,9.88722e-01,9.99999e-01,9.99999e-01,9.91937e-01,9.96779e-01,9.99978e-01
1.084606849e+00,9.84641e-01,9.99999e-01,9.99999e-01,9.87810e-01,9.96843e-01,9.99947e-01
1.090029883e+00,9.79357e-01,9.99999e-01,9.99999e-01,9.82502e-01,9.96905e-01,9.99892e-01
1.095480033e+00,9.49981e-01,9.99999e-01,9.99999e-01,9.53056e-01,9.96966e-01,9.99805e-01
1.100957433e+00,8.82011e-01,9.99999e-01,9.99999e-01,8.84958e-01,9.97026e-01,9.99642e-01
1.106462220e+00,7.30520e-01,9.99999e-01,9.99999e-01,7.33099e-01,9.97085e-01,9.99393e-01
1.111994531e+00,5.19415e-01,9.99999e-01,9.99999e-01,5.21742e-01,9.97142e-01,9.98391e-01
1.117554504e+00,3.46929e-01,9.99999e-01,9.99999e-01,3.49931e-01,9.97198e-01,9.94204e-01
1.123142276e+00,4.56932e-01,9.99999e-01,9.99999e-01,4.64548e-01,9.97254e-01,9.86312e-01
1.128757988e+00,5.98699e-01,9.99999e-01,9.99999e-01,6.09962e-01,9.97308e-01,9.84182e-01
1.134401778e+00,3.44775e-01,9.99999e-01,9.99999e-01,3.50405e-01,9.97361e-01,9.86534e-01
1.140073787e+00,7.33834e-01,9.99999e-01,9.99999e-01,7.43749e-01,9.97413e-01,9.89226e-01
1.145774156e+00,5.34241e-01,9.99999e-01,9.99999e-01,5.40936e-01,9.97464e-01,9.90133e-01
1.151503026e+00,5.00693e-01,9.99999e-01,9.99999e-01,5.04720e-01,9.97514e-01,9.94491e-01
1.157260541e+00,5.61433e-01,9.99999e-01,9.99999e-01,5.63735e-01,9.97563e-01,9.98349e-01
1.163046844e+00,6.52756e-01,9.99999e-01,9.99999e-01,6.54625e-01,9.97611e-01,9.99531e-01
1.168862078e+00,7.42819e-01,9.99999e-01,9.99999e-01,7.44742e-01,9.97658e-01,9.99758e-01
1.174706389e+00,8.31505e-01,9.99999e-01,9.99999e-01,8.33684e-01,9.97704e-01,9.99679e-01
1.180579921e+00,8.92702e-01,9.99999e-01,9.99999e-01,8.95147e-01,9.97750e-01,9.99516e-01
1.186482820e+00,9.36781e-01,9.99999e-01,9.99999e-01,9.39317e-01,9.97794e-01,9.99503e-01
1.192415234e+00,9.61684e-01,9.99999e-01,9.99999e-01,9.64125e-01,9.97838e-01,9.99628e-01
1.198377311e+00,9.67268e-01,9.99999e-01,9.99999e-01,9.69662e-01,9.97880e-01,9.99648e-01
1.204369197e+00,9.68950e-01,9.99999e-01,9.99999e-01,9.71275e-01,9.97922e-01,9.99682e-01
1.210391043e+00,9.70349e-01,9.99999e-01,9.99999e-01,9.72516e-01,9.97963e-01,9.99806e-01
1.216442998e+00,9.74522e-01,9.99999e-01,9.99999e-01,9.76587e-01,9.98003e-01,9.99881e-01
1.222525213e+00,9.79731e-01,9.99999e-01,9.99999e-01,9.81723e-01,9.98043e-01,9.99926e-01
1.228637839e+00,9.85346e-01,9.99999e-01,9.99999e-01,9.87273e-01,9.98081e-01,9.99965e-01
