#,Wave/freq,Total,N2,O2,H2O,Rayleigh,CIA
4.000000000e-01,9.28078e-01,9.99999e-01,9.99999e-01,9.99991e-01,9.28086e-01,9.99999e-01
4.020000000e-01,9.29451e-01,9.99999e-01,9.99999e-01,9.99994e-01,9.29456e-01,9.99999e-01
4.040100000e-01,9.30798e-01,9.99999e-01,9.99999e-01,9.99997e-01,9.30800e-01,9.99999e-01
4.060300500e-01,9.32119e-01,9.99999e-01,9.99999e-01,9.99999e-01,9.32120e-01,9.99999e-01
4.080602003e-01,9.33414e-01,9.99999e-01,9.99999e-01,9.99999e-01,9.33415e-01,9.99999e-01
4.101005013e-01,9.34686e-01,9.99999e-01,9.99999e-01,9.99999e-01,9.34686e-01,9.99999e-01
4.121510038e-01,9.35933e-01,9.99999e-01,9.99999e-01,9.99999e-01,9.35934e-01,9.99999e-01
4.142117588e-01,9.37156e-01,9.99999e-01,9.99999e-01,9.99997e-01,9.37159e-01,9.99999e-01
4.162828176e-01,9.38351e-01,9.99999e-01,9.99999e-01,9.99989e-01,9.38361e-01,9.99999e-01
4.183642317e-01,9.39535e-01,9.99999e-01,9.99999e-01,9.99993e-01,9.39541e-01,9.99999e-01
4.204560528e-01,9.40695e-01,9.99999e-01,9.99999e-01,9.99995e-01,9.40699e-01,9.99999e-01
4.225583331e-01,9.41834e-01,9.99999e-01,9.99999e-01,9.99998e-01,9.41835e-01,9.99999e-01
4.246711247e-01,9.42950e-01,9.99999e-01,9.99999e-01,9.99998e-01,9.42951e-01,9.99999e-01
4.267944804e-01,9.44044e-01,9.99999e-01,9.99999e-01,9.99997e-01,9.44046e-01,9.99999e-01
4.289284528e-01,9.45119e-01,9.99999e-01,9.99999e-01,9.99998e-01,9.45120e-01,9.99999e-01
4.310730950e-01,9.46174e-01,9.99999e-01,9.99999e-01,9.99998e-01,9.46174e-01,9.99999e-01
4.332284605e-01,9.47209e-01,9.99999e-01,9.99999e-01,9.99999e-01,9.47209e-01,9.99999e-01
4.353946028e-01,9.48224e-01,9.99999e-01,9.99999e-01,9.99999e-01,9.48224e-01,9.99999e-01
4.375715758e-01,9.49219e-01,9.99999e-01,9.99999e-01,9.99998e-01,9.49220e-01,9.99999e-01
4.397594337e-01,9.50189e-01,9.99999e-01,9.99999e-01,9.99990e-01,9.50198e-01,9.99999e-01
4.419582309e-01,9.51112e-01,9.99999e-01,9.99999e-01,9.99952e-01,9.51157e-01,9.99999e-01
4.441680220e-01,9.52064e-01,9.99999e-01,9.99999e-01,9.99963e-01,9.52098e-01,9.99999e-01
4.463888621e-01,9.52986e-01,9.99999e-01,9.99999e-01,9.99961e-01,9.53022e-01,9.99999e-01
4.486208064e-01,9.53906e-01,9.99999e-01,9.99999e-01,9.99976e-01,9.53928e-01,9.99999e-01
4.508639105e-01,9.54807e-01,9.99999e-01,9.99999e-01,9.99988e-01,9.54817e-01,9.99999e-01
4.531182300e-01,9.55686e-01,9.99999e-01,9.99999e-01,9.99995e-01,9.55690e-01,9.99999e-01
4.553838212e-01,9.56543e-01,9.99999e-01,9.99999e-01,9.99996e-01,9.56546e-01,9.99999e-01
4.576607403e-01,9.57384e-01,9.99999e-01,9.99999e-01,9.99998e-01,9.57385e-01,9.99999e-01
4.599490440e-01,9.58208e-01,9.99999e-01,9.99999e-01,9.99998e-01,9.58209e-01,9.99999e-01
4.622487892e-01,9.59017e-01,9.99999e-01,9.99999e-01,9.99999e-01,9.59018e-01,9.99999e-01
4.645600332e-01,9.59810e-01,9.99999e-01,9.99999e-01,9.99998e-01,9.59811e-01,9.99999e-01
4.668828333e-01,9.60578e-01,9.99999e-01,9.99999e-01,9.99988e-01,9.60588e-01,9.99999e-01
4.692172475e-01,9.61329e-01,9.99999e-01,9.99999e-01,9.99975e-01,9.61352e-01,9.99999e-01
4.715633337e-01,9.62086e-01,9.99999e-01,9.99999e-01,9.99984e-01,9.62100e-01,9.99999e-01
4.739211504e-01,9.62821e-01,9.99999e-01,9.99999e-01,9.99984e-01,9.62835e-01,9.99999e-01
4.762907561e-01,9.63548e-01,9.99999e-01,9.99999e-01,9.99991e-01,9.63555e-01,9.99999e-01
4.786722099e-01,9.64259e-01,9.99999e-01,9.99999e-01,9.99996e-01,9.64262e-01,9.99999e-01
4.810655710e-01,9.64955e-01,9.99999e-01,9.99999e-01,9.99998e-01,9.64956e-01,9.99999e-01
4.834708988e-01,9.65627e-01,9.99999e-01,9.99999e-01,9.99990e-01,9.65636e-01,9.99999e-01
4.858882533e-01,9.66287e-01,9.99999e-01,9.99999e-01,9.99982e-01,9.66303e-01,9.99999e-01
4.883176946e-01,9.66944e-01,9.99999e-01,9.99999e-01,9.99985e-01,9.66957e-01,9.99999e-01
4.907592831e-01,9.67587e-01,9.99999e-01,9.99999e-01,9.99986e-01,9.67599e-01,9.99999e-01
4.932130795e-01,9.68220e-01,9.99999e-01,9.99999e-01,9.99990e-01,9.68229e-01,9.99999e-01
4.956791449e-01,9.68842e-01,9.99999e-01,9.99999e-01,9.99994e-01,9.68847e-01,9.99999e-01
4.981575406e-01,9.69429e-01,9.99999e-01,9.99999e-01,9.99975e-01,9.69453e-01,9.99999e-01
5.006483283e-01,9.69986e-01,9.99999e-01,9.99999e-01,9.99937e-01,9.70047e-01,9.99999e-01
5.031515699e-01,9.70322e-01,9.99999e-01,9.99999e-01,9.99685e-01,9.70630e-01,9.99996e-01
5.056673278e-01,9.71038e-01,9.99999e-01,9.99999e-01,9.99834e-01,9.71201e-01,9.99995e-01
5.081956644e-01,9.71558e-01,9.99999e-01,9.99999e-01,9.99791e-01,9.71762e-01,9.99997e-01
5.107366428e-01,9.72175e-01,9.99999e-01,9.99999e-01,9.99859e-01,9.72312e-01,9.99999e-01
5.132903260e-01,9.72774e-01,9.99999e-01,9.99999e-01,9.99919e-01,9.72851e-01,9.99999e-01
5.158567776e-01,9.73348e-01,9.99999e-01,9.99999e-01,9.99965e-01,9.73380e-01,9.99999e-01
5.184360615e-01,9.73886e-01,9.99999e-01,9.99999e-01,9.99985e-01,9.73899e-01,9.99999e-01
5.210282418e-01,9.74403e-01,9.99999e-01,9.99999e-01,9.99994e-01,9.74408e-01,9.99999e-01
5.236333830e-01,9.74887e-01,9.99999e-01,9.99999e-01,9.99979e-01,9.74907e-01,9.99999e-01
5.262515499e-01,9.75384e-01,9.99999e-01,9.99999e-01,9.99986e-01,9.75397e-01,9.99999e-01
5.288828077e-01,9.75865e-01,9.99999e-01,9.99999e-01,9.99987e-01,9.75877e-01,9.99999e-01
5.315272217e-01,9.76338e-01,9.99999e-01,9.99999e-01,9.99989e-01,9.76348e-01,9.99999e-01
5.341848578e-01,9.76803e-01,9.99999e-01,9.99999e-01,9.99992e-01,9.76809e-01,9.99999e-01
5.368557821e-01,9.77239e-01,9.99999e-01,9.99999e-01,9.99975e-01,9.77262e-01,9.99999e-01
5.395400610e-01,9.77620e-01,9.99999e-01,9.99999e-01,9.99912e-01,9.77706e-01,9.99998e-01
5.422377613e-01,9.78032e-01,9.99999e-01,9.99999e-01,9.99889e-01,9.78142e-01,9.99997e-01
5.449489501e-01,9.78465e-01,9.99999e-01,9.99999e-01,9.99895e-01,9.78569e-01,9.99997e-01
5.476736949e-01,9.78898e-01,9.99999e-01,9.99999e-01,9.99908e-01,9.78988e-01,9.99998e-01
5.504120634e-01,9.79333e-01,9.99999e-01,9.99999e-01,9.99933e-01,9.79398e-01,9.99999e-01
5.531641237e-01,9.79769e-01,9.99999e-01,9.99999e-01,9.99966e-01,9.79801e-01,9.99999e-01
5.559299443e-01,9.80180e-01,9.99999e-01,9.99999e-01,9.99983e-01,9.80196e-01,9.99999e-01
5.587095940e-01,9.80574e-01,9.99999e-01,9.99999e-01,9.99989e-01,9.80583e-01,9.99999e-01
5.615031420e-01,9.80952e-01,9.99999e-01,9.99999e-01,9.99988e-01,9.80963e-01,9.99999e-01
5.643106577e-01,9.81323e-01,9.99999e-01,9.99999e-01,9.99986e-01,9.81336e-01,9.99999e-01
5.671322110e-01,9.81545e-01,9.99999e-01,9.99999e-01,9.99841e-01,9.81701e-01,9.99998e-01
5.699678720e-01,9.81895e-01,9.99999e-01,9.99999e-01,9.99836e-01,9.82059e-01,9.99995e-01
5.728177114e-01,9.82238e-01,9.99999e-01,9.99999e-01,9.99827e-01,9.82410e-01,9.99995e-01
5.756818000e-01,9.82598e-01,9.99999e-01,9.99999e-01,9.99842e-01,9.82755e-01,9.99997e-01
5.785602090e-01,9.82957e-01,9.99999e-01,9.99999e-01,9.99862e-01,9.83092e-01,9.99998e-01
5.814530100e-01,9.83288e-01,9.99999e-01,9.99999e-01,9.99861e-01,9.83424e-01,9.99999e-01
5.843602750e-01,9.83585e-01,9.99999e-01,9.99999e-01,9.99833e-01,9.83748e-01,9.99998e-01
5.872820764e-01,9.82652e-01,9.99999e-01,9.99999e-01,9.98571e-01,9.84067e-01,9.99989e-01
5.902184868e-01,9.82667e-01,9.99999e-01,9.99999e-01,9.98287e-01,9.84379e-01,9.99972e-01
5.931695792e-01,9.83464e-01,9.99999e-01,9.99999e-01,9.98785e-01,9.84685e-01,9.99973e-01
5.961354271e-01,9.83663e-01,9.99999e-01,9.99999e-01,9.98672e-01,9.84985e-01,9.99984e-01
5.991161043e-01,9.84323e-01,9.99999e-01,9.99999e-01,9.99032e-01,9.85280e-01,9.99994e-01
6.021116848e-01,9.85028e-01,9.99999e-01,9.99999e-01,9.99451e-01,9.85568e-01,9.99998e-01
6.051222432e-01,9.85578e-01,9.99999e-01,9.99999e-01,9.99722e-01,9.85851e-01,9.99999e-01
6.081478544e-01,9.86011e-01,9.99999e-01,9.99999e-01,9.99879e-01,9.86129e-01,9.99999e-01
6.111885937e-01,9.86351e-01,9.99999e-01,9.99999e-01,9.99949e-01,9.86401e-01,9.99999e-01
6.142445367e-01,9.86646e-01,9.99999e-01,9.99999e-01,9.99976e-01,9.86668e-01,9.99999e-01
6.173157594e-01,9.86917e-01,9.99999e-01,9.99999e-01,9.99987e-01,9.86929e-01,9.99999e-01
6.204023382e-01,9.87175e-01,9.99999e-01,9.99999e-01,9.99988e-01,9.87186e-01,9.99999e-01
6.235043498e-01,9.87390e-01,9.99999e-01,9.99999e-01,9.99952e-01,9.87437e-01,9.99999e-01
6.266218716e-01,9.87438e-01,9.99999e-01,9.99999e-01,9.99752e-01,9.87684e-01,9.99997e-01
6.297549810e-01,9.87833e-01,9.99999e-01,9.99999e-01,9.99908e-01,9.87926e-01,9.99996e-01
6.329037559e-01,9.87984e-01,9.99999e-01,9.99999e-01,9.99821e-01,9.88163e-01,9.99996e-01
6.360682746e-01,9.88243e-01,9.99999e-01,9.99999e-01,9.99846e-01,9.88395e-01,9.99997e-01
6.392486160e-01,9.88427e-01,9.99999e-01,9.99999e-01,9.99802e-01,9.88623e-01,9.99998e-01
6.424448591e-01,9.88582e-01,9.99999e-01,9.99999e-01,9.99733e-01,9.88847e-01,9.99998e-01
6.456570834e-01,9.87834e-01,9.99999e-01,9.99999e-01,9.98761e-01,9.89066e-01,9.99992e-01
6.488853688e-01,9.88376e-01,9.99999e-01,9.99999e-01,9.99103e-01,9.89280e-01,9.99980e-01
6.521297956e-01,9.88572e-01,9.99999e-01,9.99999e-01,9.99086e-01,9.89491e-01,9.99983e-01
6.553904446e-01,9.88782e-01,9.99999e-01,9.99999e-01,9.99086e-01,9.89698e-01,9.99987e-01
6.586673968e-01,9.89126e-01,9.99999e-01,9.99999e-01,9.99221e-01,9.89900e-01,9.99995e-01
6.619607338e-01,9.89668e-01,9.99999e-01,9.99999e-01,9.99566e-01,9.90098e-01,9.99998e-01
6.652705375e-01,9.90035e-01,9.99999e-01,9.99999e-01,9.99739e-01,9.90293e-01,9.99999e-01
6.685968902e-01,9.90374e-01,9.99999e-01,9.99999e-01,9.99889e-01,9.90484e-01,9.99999e-01
6.719398746e-01,9.90616e-01,9.99999e-01,9.99999e-01,9.99943e-01,9.90671e-01,9.99999e-01
6.752995740e-01,9.90825e-01,9.99999e-01,9.99999e-01,9.99969e-01,9.90854e-01,9.99999e-01
6.786760719e-01,9.90990e-01,9.99999e-01,9.99999e-01,9.99955e-01,9.91034e-01,9.99999e-01
6.820694522e-01,9.91135e-01,9.99999e-01,9.99999e-01,9.99923e-01,9.91210e-01,9.99999e-01
6.854797995e-01,9.91286e-01,9.99999e-01,9.99999e-01,9.99902e-01,9.91383e-01,9.99998e-01
6.889071985e-01,9.91314e-01,9.99999e-01,9.99999e-01,9.99760e-01,9.91553e-01,9.99997e-01
6.923517345e-01,9.87865e-01,9.99999e-01,9.99999e-01,9.96131e-01,9.91719e-01,9.99981e-01
6.958134932e-01,9.89889e-01,9.99999e-01,9.99999e-01,9.98030e-01,9.91882e-01,9.99958e-01
6.992925606e-01,9.90110e-01,9.99999e-01,9.99999e-01,9.98089e-01,9.92042e-01,9.99962e-01
7.027890234e-01,9.89850e-01,9.99999e-01,9.99999e-01,9.97661e-01,9.92198e-01,9.99971e-01
7.063029686e-01,9.90385e-01,9.99999e-01,9.99999e-01,9.98032e-01,9.92352e-01,9.99985e-01
7.098344834e-01,9.90621e-01,9.99999e-01,9.99999e-01,9.98112e-01,9.92502e-01,9.99991e-01
7.133836558e-01,9.90102e-01,9.99999e-01,9.99999e-01,9.97448e-01,9.92650e-01,9.99983e-01
7.169505741e-01,9.72500e-01,9.99999e-01,9.99999e-01,9.79684e-01,9.92794e-01,9.99870e-01
7.205353270e-01,9.83001e-01,9.99999e-01,9.99999e-01,9.90218e-01,9.92936e-01,9.99772e-01
7.241380036e-01,9.80356e-01,9.99999e-01,9.99999e-01,9.87385e-01,9.93075e-01,9.99803e-01
7.277586936e-01,9.81753e-01,9.99999e-01,9.99999e-01,9.88621e-01,9.93211e-01,9.99838e-01
7.313974871e-01,9.81354e-01,9.99999e-01,9.99999e-01,9.88002e-01,9.93345e-01,9.99924e-01
7.350544745e-01,9.86918e-01,9.99999e-01,9.99999e-01,9.93424e-01,9.93476e-01,9.99973e-01
7.387297469e-01,9.88789e-01,9.99999e-01,9.99999e-01,9.95164e-01,9.93604e-01,9.99987e-01
7.424233956e-01,9.91382e-01,9.99999e-01,9.99999e-01,9.97638e-01,9.93730e-01,9.99997e-01
7.461355126e-01,9.92429e-01,9.99999e-01,9.99999e-01,9.98566e-01,9.93854e-01,9.99999e-01
7.498661902e-01,9.93314e-01,9.99999e-01,9.99999e-01,9.99334e-01,9.93975e-01,9.99999e-01
7.536155211e-01,9.93768e-01,9.99999e-01,9.99999e-01,9.99672e-01,9.94093e-01,9.99999e-01
7.573835987e-01,9.94042e-01,9.99999e-01,9.99999e-01,9.99831e-01,9.94210e-01,9.99999e-01
7.611705167e-01,9.94220e-01,9.99999e-01,9.99999e-01,9.99894e-01,9.94324e-01,9.99999e-01
7.649763693e-01,9.94370e-01,9.99999e-01,9.99999e-01,9.99933e-01,9.94436e-01,9.99999e-01
7.688012511e-01,9.94500e-01,9.99999e-01,9.99999e-01,9.99953e-01,9.94545e-01,9.99999e-01
7.726452574e-01,9.94615e-01,9.99999e-01,9.99999e-01,9.99961e-01,9.94653e-01,9.99999e-01
7.765084837e-01,9.94704e-01,9.99999e-01,9.99999e-01,9.99945e-01,9.94758e-01,9.99999e-01
7.803910261e-01,9.94628e-01,9.99999e-01,9.99999e-01,9.99765e-01,9.94861e-01,9.99999e-01
7.842929812e-01,9.94148e-01,9.99999e-01,9.99999e-01,9.99182e-01,9.94962e-01,9.99998e-01
7.882144461e-01,9.93391e-01,9.99999e-01,9.99999e-01,9.98331e-01,9.95062e-01,9.99988e-01
7.921555184e-01,9.94234e-01,9.99999e-01,9.99999e-01,9.99089e-01,9.95159e-01,9.99979e-01
7.961162960e-01,9.93616e-01,9.99999e-01,9.99999e-01,9.98371e-01,9.95254e-01,9.99980e-01
8.000968774e-01,9.93469e-01,9.99999e-01,9.99999e-01,9.98131e-01,9.95348e-01,9.99979e-01
8.040973618e-01,9.93562e-01,9.99999e-01,9.99999e-01,9.98128e-01,9.95439e-01,9.99984e-01
8.081178486e-01,9.91286e-01,9.99999e-01,9.99999e-01,9.95752e-01,9.95529e-01,9.99983e-01
8.121584379e-01,9.78032e-01,9.99999e-01,9.99999e-01,9.82394e-01,9.95617e-01,9.99940e-01
8.162192301e-01,9.74907e-01,9.99999e-01,9.99999e-01,9.79329e-01,9.95704e-01,9.99778e-01
8.203003262e-01,9.84964e-01,9.99999e-01,9.99999e-01,9.89386e-01,9.95788e-01,9.99740e-01
8.244018279e-01,9.81282e-01,9.99999e-01,9.99999e-01,9.85553e-01,9.95871e-01,9.99793e-01
8.285238370e-01,9.83401e-01,9.99999e-01,9.99999e-01,9.87556e-01,9.95953e-01,9.99837e-01
8.326664562e-01,9.83486e-01,9.99999e-01,9.99999e-01,9.87469e-01,9.96033e-01,9.99932e-01
8.368297885e-01,9.87201e-01,9.99999e-01,9.99999e-01,9.91070e-01,9.96111e-01,9.99984e-01
8.410139374e-01,9.90891e-01,9.99999e-01,9.99999e-01,9.94691e-01,9.96187e-01,9.99990e-01
8.452190071e-01,9.93667e-01,9.99999e-01,9.99999e-01,9.97399e-01,9.96263e-01,9.99994e-01
8.494451021e-01,9.94823e-01,9.99999e-01,9.99999e-01,9.98484e-01,9.96336e-01,9.99995e-01
8.536923276e-01,9.95516e-01,9.99999e-01,9.99999e-01,9.99106e-01,9.96408e-01,9.99996e-01
8.579607893e-01,9.95929e-01,9.99999e-01,9.99999e-01,9.99448e-01,9.96479e-01,9.99998e-01
8.622505932e-01,9.96200e-01,9.99999e-01,9.99999e-01,9.99650e-01,9.96549e-01,9.99999e-01
8.665618462e-01,9.96401e-01,9.99999e-01,9.99999e-01,9.99782e-01,9.96617e-01,9.99999e-01
8.708946554e-01,9.96435e-01,9.99999e-01,9.99999e-01,9.99750e-01,9.96683e-01,9.99999e-01
8.752491287e-01,9.96417e-01,9.99999e-01,9.99999e-01,9.99666e-01,9.96749e-01,9.99999e-01
8.796253743e-01,9.96351e-01,9.99999e-01,9.99999e-01,9.99537e-01,9.96813e-01,9.99998e-01
8.840235012e-01,9.96346e-01,9.99999e-01,9.99999e-01,9.99471e-01,9.96876e-01,9.99996e-01
8.884436187e-01,9.94969e-01,9.99999e-01,9.99999e-01,9.98034e-01,9.96937e-01,9.99990e-01
8.928858368e-01,9.76673e-01,9.99999e-01,9.99999e-01,9.79665e-01,9.96998e-01,9.99946e-01
8.973502660e-01,9.61486e-01,9.99999e-01,9.99999e-01,9.64583e-01,9.97057e-01,9.99730e-01
9.018370173e-01,9.78666e-01,9.99999e-01,9.99999e-01,9.81912e-01,9.97115e-01,9.99576e-01
9.063462024e-01,9.80665e-01,9.99999e-01,9.99999e-01,9.83811e-01,9.97172e-01,9.99627e-01
9.108779334e-01,9.71916e-01,9.99999e-01,9.99999e-01,9.74993e-01,9.97228e-01,9.99613e-01
9.154323231e-01,9.68782e-01,9.99999e-01,9.99999e-01,9.71732e-01,9.97282e-01,9.99680e-01
9.200094847e-01,9.75051e-01,9.99999e-01,9.99999e-01,9.77829e-01,9.97336e-01,9.99820e-01
9.246095321e-01,9.61573e-01,9.99999e-01,9.99999e-01,9.64288e-01,9.97388e-01,9.99793e-01
9.292325798e-01,7.81877e-01,9.99999e-01,9.99999e-01,7.84663e-01,9.97440e-01,9.99005e-01
9.338787427e-01,7.27997e-01,9.99999e-01,9.99999e-01,7.32456e-01,9.97490e-01,9.96411e-01
9.385481364e-01,8.77087e-01,9.99999e-01,9.99999e-01,8.82728e-01,9.97540e-01,9.96058e-01
9.432408771e-01,8.32048e-01,9.99999e-01,9.99999e-01,8.36904e-01,9.97588e-01,9.96598e-01
9.479570815e-01,7.74894e-01,9.99999e-01,9.99999e-01,7.78886e-01,9.97636e-01,9.97230e-01
9.526968669e-01,8.30130e-01,9.99999e-01,9.99999e-01,8.33466e-01,9.97683e-01,9.98309e-01
9.574603512e-01,8.45956e-01,9.99999e-01,9.99999e-01,8.48610e-01,9.97728e-01,9.99140e-01
9.622476530e-01,8.73477e-01,9.99999e-01,9.99999e-01,8.75945e-01,9.97773e-01,9.99405e-01
9.670588912e-01,9.24170e-01,9.99999e-01,9.99999e-01,9.26567e-01,9.97817e-01,9.99593e-01
9.718941857e-01,9.51338e-01,9.99999e-01,9.99999e-01,9.53662e-01,9.97860e-01,9.99700e-01
9.767536566e-01,9.59152e-01,9.99999e-01,9.99999e-01,9.61387e-01,9.97902e-01,9.99771e-01
9.816374249e-01,9.69283e-01,9.99999e-01,9.99999e-01,9.71356e-01,9.97944e-01,9.99920e-01
9.865456120e-01,9.80035e-01,9.99999e-01,9.99999e-01,9.82030e-01,9.97984e-01,9.99983e-01
9.914783401e-01,9.86899e-01,9.99999e-01,9.99999e-01,9.88857e-01,9.98024e-01,9.99994e-01
9.964357318e-01,9.91992e-01,9.99999e-01,9.99999e-01,9.93919e-01,9.98063e-01,9.99996e-01
1.001417910e+00,9.94459e-01,9.99999e-01,9.99999e-01,9.96354e-01,9.98101e-01,9.99995e-01
1.006425000e+00,9.96053e-01,9.99999e-01,9.99999e-01,9.97916e-01,9.98139e-01,9.99993e-01
1.011457125e+00,9.96882e-01,9.99999e-01,9.99999e-01,9.98709e-01,9.98175e-01,9.99994e-01
1.016514411e+00,9.97332e-01,9.99999e-01,9.99999e-01,9.99122e-01,9.98211e-01,9.99995e-01
1.021596983e+00,9.97545e-01,9.99999e-01,9.99999e-01,9.99300e-01,9.98247e-01,9.99995e-01
1.026704968e+00,9.97734e-01,9.99999e-01,9.99999e-01,9.99453e-01,9.98281e-01,9.99997e-01
1.031838492e+00,9.97919e-01,9.99999e-01,9.99999e-01,9.99603e-01,9.98315e-01,9.99998e-01
1.036997685e+00,9.98113e-01,9.99999e-01,9.99999e-01,9.99763e-01,9.98348e-01,9.99999e-01
1.042182673e+00,9.98099e-01,9.99999e-01,9.99999e-01,9.99717e-01,9.98381e-01,9.99999e-01
1.047393587e+00,9.98040e-01,9.99999e-01,9.99999e-01,9.99626e-01,9.98413e-01,9.99999e-01
1.052630555e+00,9.97932e-01,9.99999e-01,9.99999e-01,9.99486e-01,9.98444e-01,9.99999e-01
1.057893707e+00,9.97618e-01,9.99999e-01,9.99999e-01,9.99141e-01,9.98475e-01,9.99999e-01
1.063183176e+00,9.97096e-01,9.99999e-01,9.99999e-01,9.98589e-01,9.98505e-01,9.99998e-01
1.068499092e+00,9.96179e-01,9.99999e-01,9.99999e-01,9.97642e-01,9.98534e-01,9.99997e-01
1.073841587e+00,9.95798e-01,9.99999e-01,9.99999e-01,9.97233e-01,9.98563e-01,9.99996e-01
1.079210795e+00,9.95057e-01,9.99999e-01,9.99999e-01,9.96469e-01,9.98592e-01,9.99990e-01
1.084606849e+00,9.93253e-01,9.99999e-01,9.99999e-01,9.94647e-01,9.98619e-01,9.99976e-01
1.090029883e+00,9.90874e-01,9.99999e-01,9.99999e-01,9.92262e-01,9.98647e-01,9.99952e-01
1.095480033e+00,9.77717e-01,9.99999e-01,9.99999e-01,9.79098e-01,9.98673e-01,9.99914e-01
1.100957433e+00,9.46237e-01,9.99999e-01,9.99999e-01,9.47616e-01,9.98699e-01,9.99843e-01
1.106462220e+00,8.69478e-01,9.99999e-01,9.99999e-01,8.70817e-01,9.98725e-01,9.99734e-01
1.111994531e+00,7.45890e-01,9.99999e-01,9.99999e-01,7.47348e-01,9.98750e-01,9.99296e-01
1.117554504e+00,6.20305e-01,9.99999e-01,9.99999e-01,6.22644e-01,9.98775e-01,9.97464e-01
1.123142276e+00,6.96538e-01,9.99999e-01,9.99999e-01,7.01586e-01,9.98799e-01,9.93997e-01
1.128757988e+00,7.92442e-01,9.99999e-01,9.99999e-01,7.98919e-01,9.98823e-01,9.93059e-01
1.134401778e+00,5.77650e-01,9.99999e-01,9.99999e-01,5.81752e-01,9.98846e-01,9.94095e-01
1.140073787e+00,8.71248e-01,9.99999e-01,9.99999e-01,8.76370e-01,9.98869e-01,9.95279e-01
1.145774156e+00,7.53369e-01,9.99999e-01,9.99999e-01,7.57478e-01,9.98891e-01,9.95678e-01
1.151503026e+00,7.29280e-01,9.99999e-01,9.99999e-01,7.31837e-01,9.98913e-01,9.97589e-01
1.157260541e+00,7.73749e-01,9.99999e-01,9.99999e-01,7.75133e-01,9.98934e-01,9.99278e-01
1.163046844e+00,8.28272e-01,9.99999e-01,9.99999e-01,8.29306e-01,9.98955e-01,9.99795e-01
1.168862078e+00,8.77914e-01,9.99999e-01,9.99999e-01,8.78906e-01,9.98976e-01,9.99894e-01
1.174706389e+00,9.22392e-01,9.99999e-01,9.99999e-01,9.23447e-01,9.98996e-01,9.99859e-01
1.180579921e+00,9.51602e-01,9.99999e-01,9.99999e-01,9.52739e-01,9.99016e-01,9.99788e-01
1.186482820e+00,9.71890e-01,9.99999e-01,9.99999e-01,9.73039e-01,9.99035e-01,9.99782e-01
1.192415234e+00,9.83086e-01,9.99999e-01,9.99999e-01,9.84175e-01,9.99054e-01,9.99837e-01
1.198377311e+00,9.85554e-01,9.99999e-01,9.99999e-01,9.86619e-01,9.99073e-01,9.99845e-01
1.204369197e+00,9.86307e-01,9.99999e-01,9.99999e-01,9.87336e-01,9.99091e-01,9.99865e-01
1.210391043e+00,9.86933e-01,9.99999e-01,9.99999e-01,9.87895e-01,9.99109e-01,9.99915e-01
1.216442998e+00,9.88802e-01,9.99999e-01,9.99999e-01,9.89717e-01,9.99127e-01,9.99947e-01
1.222525213e+00,9.91102e-01,9.99999e-01,9.99999e-01,9.91982e-01,9.99144e-01,9.99967e-01
1.228637839e+00,9.93575e-01,9.99999e-01,9.99999e-01,9.94423e-01,9.99161e-01,9.99984e-01
