#,Wave/freq,Total,N2,O2,H2O,Rayleigh,CIA
4.000000000e-01,9.12374e-01,9.99999e-01,9.99999e-01,9.99989e-01,9.12384e-01,9.99999e-01
4.020000000e-01,9.14033e-01,9.99999e-01,9.99999e-01,9.99993e-01,9.14039e-01,9.99999e-01
4.040100000e-01,9.15661e-01,9.99999e-01,9.99999e-01,9.99996e-01,9.15664e-01,9.99999e-01
4.060300500e-01,9.17258e-01,9.99999e-01,9.99999e-01,9.99998e-01,9.17258e-01,9.99999e-01
4.080602003e-01,9.18824e-01,9.99999e-01,9.99999e-01,9.99999e-01,9.18825e-01,9.99999e-01
4.101005013e-01,9.20362e-01,9.99999e-01,9.99999e-01,9.99999e-01,9.20362e-01,9.99999e-01
4.121510038e-01,9.21872e-01,9.99999e-01,9.99999e-01,9.99999e-01,9.21872e-01,9.99999e-01
4.142117588e-01,9.23352e-01,9.99999e-01,9.99999e-01,9.99996e-01,9.23355e-01,9.99999e-01
4.162828176e-01,9.24798e-01,9.99999e-01,9.99999e-01,9.99986e-01,9.24810e-01,9.99999e-01
4.183642317e-01,9.26232e-01,9.99999e-01,9.99999e-01,9.99991e-01,9.26239e-01,9.99999e-01
4.204560528e-01,9.27638e-01,9.99999e-01,9.99999e-01,9.99994e-01,9.27642e-01,9.99999e-01
4.225583331e-01,9.29018e-01,9.99999e-01,9.99999e-01,9.99997e-01,9.29019e-01,9.99999e-01
4.246711247e-01,9.30370e-01,9.99999e-01,9.99999e-01,9.99998e-01,9.30371e-01,9.99999e-01
4.267944804e-01,9.31697e-01,9.99999e-01,9.99999e-01,9.99997e-01,9.31699e-01,9.99999e-01
4.289284528e-01,9.33000e-01,9.99999e-01,9.99999e-01,9.99997e-01,9.33001e-01,9.99999e-01
4.310730950e-01,9.34280e-01,9.99999e-01,9.99999e-01,9.99998e-01,9.34280e-01,9.99999e-01
4.332284605e-01,9.35535e-01,9.99999e-01,9.99999e-01,9.99999e-01,9.35536e-01,9.99999e-01
4.353946028e-01,9.36768e-01,9.99999e-01,9.99999e-01,9.99999e-01,9.36768e-01,9.99999e-01
4.375715758e-01,9.37976e-01,9.99999e-01,9.99999e-01,9.99998e-01,9.37977e-01,9.99999e-01
4.397594337e-01,9.39154e-01,9.99999e-01,9.99999e-01,9.99988e-01,9.39164e-01,9.99999e-01
4.419582309e-01,9.40276e-01,9.99999e-01,9.99999e-01,9.99942e-01,9.40329e-01,9.99999e-01
4.441680220e-01,9.41431e-01,9.99999e-01,9.99999e-01,9.99954e-01,9.41473e-01,9.99999e-01
4.463888621e-01,9.42551e-01,9.99999e-01,9.99999e-01,9.99953e-01,9.42595e-01,9.99999e-01
4.486208064e-01,9.43669e-01,9.99999e-01,9.99999e-01,9.99970e-01,9.43696e-01,9.99999e-01
4.508639105e-01,9.44764e-01,9.99999e-01,9.99999e-01,9.99985e-01,9.44777e-01,9.99999e-01
4.531182300e-01,9.45833e-01,9.99999e-01,9.99999e-01,9.99994e-01,9.45838e-01,9.99999e-01
4.553838212e-01,9.46875e-01,9.99999e-01,9.99999e-01,9.99995e-01,9.46879e-01,9.99999e-01
4.576607403e-01,9.47898e-01,9.99999e-01,9.99999e-01,9.99997e-01,9.47900e-01,9.99999e-01
4.599490440e-01,9.48901e-01,9.99999e-01,9.99999e-01,9.99998e-01,9.48902e-01,9.99999e-01
4.622487892e-01,9.49886e-01,9.99999e-01,9.99999e-01,9.99999e-01,9.49886e-01,9.99999e-01
4.645600332e-01,9.50850e-01,9.99999e-01,9.99999e-01,9.99998e-01,9.50851e-01,9.99999e-01
4.668828333e-01,9.51785e-01,9.99999e-01,9.99999e-01,9.99985e-01,9.51798e-01,9.99999e-01
4.692172475e-01,9.52700e-01,9.99999e-01,9.99999e-01,9.99970e-01,9.52727e-01,9.99999e-01
4.715633337e-01,9.53621e-01,9.99999e-01,9.99999e-01,9.99980e-01,9.53639e-01,9.99999e-01
4.739211504e-01,9.54516e-01,9.99999e-01,9.99999e-01,9.99981e-01,9.54534e-01,9.99999e-01
4.762907561e-01,9.55402e-01,9.99999e-01,9.99999e-01,9.99990e-01,9.55411e-01,9.99999e-01
4.786722099e-01,9.56269e-01,9.99999e-01,9.99999e-01,9.99995e-01,9.56273e-01,9.99999e-01
4.810655710e-01,9.57116e-01,9.99999e-01,9.99999e-01,9.99998e-01,9.57117e-01,9.99999e-01
4.834708988e-01,9.57936e-01,9.99999e-01,9.99999e-01,9.99988e-01,9.57946e-01,9.99999e-01
4.858882533e-01,9.58740e-01,9.99999e-01,9.99999e-01,9.99978e-01,9.58760e-01,9.99999e-01
4.883176946e-01,9.59541e-01,9.99999e-01,9.99999e-01,9.99982e-01,9.59558e-01,9.99999e-01
4.907592831e-01,9.60325e-01,9.99999e-01,9.99999e-01,9.99983e-01,9.60340e-01,9.99999e-01
4.932130795e-01,9.61098e-01,9.99999e-01,9.99999e-01,9.99988e-01,9.61108e-01,9.99999e-01
4.956791449e-01,9.61856e-01,9.99999e-01,9.99999e-01,9.99993e-01,9.61862e-01,9.99999e-01
4.981575406e-01,9.62572e-01,9.99999e-01,9.99999e-01,9.99970e-01,9.62601e-01,9.99999e-01
5.006483283e-01,9.63252e-01,9.99999e-01,9.99999e-01,9.99923e-01,9.63326e-01,9.99998e-01
5.031515699e-01,9.63662e-01,9.99999e-01,9.99999e-01,9.99615e-01,9.64037e-01,9.99995e-01
5.056673278e-01,9.64534e-01,9.99999e-01,9.99999e-01,9.99796e-01,9.64734e-01,9.99994e-01
5.081956644e-01,9.65169e-01,9.99999e-01,9.99999e-01,9.99743e-01,9.65419e-01,9.99996e-01
5.107366428e-01,9.65922e-01,9.99999e-01,9.99999e-01,9.99826e-01,9.66090e-01,9.99998e-01
5.132903260e-01,9.66653e-01,9.99999e-01,9.99999e-01,9.99900e-01,9.66749e-01,9.99999e-01
5.158567776e-01,9.67354e-01,9.99999e-01,9.99999e-01,9.99957e-01,9.67395e-01,9.99999e-01
5.184360615e-01,9.68012e-01,9.99999e-01,9.99999e-01,9.99982e-01,9.68028e-01,9.99999e-01
5.210282418e-01,9.68644e-01,9.99999e-01,9.99999e-01,9.99993e-01,9.68650e-01,9.99999e-01
5.236333830e-01,9.69235e-01,9.99999e-01,9.99999e-01,9.99974e-01,9.69259e-01,9.99999e-01
5.262515499e-01,9.69842e-01,9.99999e-01,9.99999e-01,9.99983e-01,9.69857e-01,9.99999e-01
5.288828077e-01,9.70430e-01,9.99999e-01,9.99999e-01,9.99985e-01,9.70444e-01,9.99999e-01
5.315272217e-01,9.71007e-01,9.99999e-01,9.99999e-01,9.99986e-01,9.71019e-01,9.99999e-01
5.341848578e-01,9.71575e-01,9.99999e-01,9.99999e-01,9.99991e-01,9.71583e-01,9.99999e-01
5.368557821e-01,9.72108e-01,9.99999e-01,9.99999e-01,9.99970e-01,9.72137e-01,9.99999e-01
5.395400610e-01,9.72577e-01,9.99999e-01,9.99999e-01,9.99894e-01,9.72679e-01,9.99998e-01
5.422377613e-01,9.73077e-01,9.99999e-01,9.99999e-01,9.99863e-01,9.73212e-01,9.99997e-01
5.449489501e-01,9.73608e-01,9.99999e-01,9.99999e-01,9.99873e-01,9.73734e-01,9.99996e-01
5.476736949e-01,9.74135e-01,9.99999e-01,9.99999e-01,9.99887e-01,9.74246e-01,9.99998e-01
5.504120634e-01,9.74668e-01,9.99999e-01,9.99999e-01,9.99918e-01,9.74748e-01,9.99999e-01
5.531641237e-01,9.75201e-01,9.99999e-01,9.99999e-01,9.99958e-01,9.75241e-01,9.99999e-01
5.559299443e-01,9.75704e-01,9.99999e-01,9.99999e-01,9.99979e-01,9.75724e-01,9.99999e-01
5.587095940e-01,9.76185e-01,9.99999e-01,9.99999e-01,9.99987e-01,9.76197e-01,9.99999e-01
5.615031420e-01,9.76649e-01,9.99999e-01,9.99999e-01,9.99985e-01,9.76662e-01,9.99999e-01
5.643106577e-01,9.77102e-01,9.99999e-01,9.99999e-01,9.99983e-01,9.77118e-01,9.99999e-01
5.671322110e-01,9.77378e-01,9.99999e-01,9.99999e-01,9.99810e-01,9.77565e-01,9.99997e-01
5.699678720e-01,9.77799e-01,9.99999e-01,9.99999e-01,9.99796e-01,9.78003e-01,9.99994e-01
5.728177114e-01,9.78222e-01,9.99999e-01,9.99999e-01,9.99789e-01,9.78433e-01,9.99995e-01
5.756818000e-01,9.78662e-01,9.99999e-01,9.99999e-01,9.99806e-01,9.78854e-01,9.99996e-01
5.785602090e-01,9.79101e-01,9.99999e-01,9.99999e-01,9.99830e-01,9.79267e-01,9.99998e-01
5.814530100e-01,9.79507e-01,9.99999e-01,9.99999e-01,9.99830e-01,9.79673e-01,9.99999e-01
5.843602750e-01,9.79872e-01,9.99999e-01,9.99999e-01,9.99798e-01,9.80070e-01,9.99998e-01
5.872820764e-01,9.78747e-01,9.99999e-01,9.99999e-01,9.98264e-01,9.80460e-01,9.99987e-01
5.902184868e-01,9.78740e-01,9.99999e-01,9.99999e-01,9.97889e-01,9.80842e-01,9.99966e-01
5.931695792e-01,9.79725e-01,9.99999e-01,9.99999e-01,9.98510e-01,9.81217e-01,9.99967e-01
5.961354271e-01,9.79963e-01,9.99999e-01,9.99999e-01,9.98366e-01,9.81584e-01,9.99981e-01
5.991161043e-01,9.80769e-01,9.99999e-01,9.99999e-01,9.98807e-01,9.81945e-01,9.99993e-01
6.021116848e-01,9.81633e-01,9.99999e-01,9.99999e-01,9.99323e-01,9.82298e-01,9.99998e-01
6.051222432e-01,9.82309e-01,9.99999e-01,9.99999e-01,9.99657e-01,9.82645e-01,9.99999e-01
6.081478544e-01,9.82840e-01,9.99999e-01,9.99999e-01,9.99851e-01,9.82985e-01,9.99999e-01
6.111885937e-01,9.83257e-01,9.99999e-01,9.99999e-01,9.99937e-01,9.83318e-01,9.99999e-01
6.142445367e-01,9.83617e-01,9.99999e-01,9.99999e-01,9.99971e-01,9.83645e-01,9.99999e-01
6.173157594e-01,9.83950e-01,9.99999e-01,9.99999e-01,9.99984e-01,9.83965e-01,9.99999e-01
6.204023382e-01,9.84267e-01,9.99999e-01,9.99999e-01,9.99986e-01,9.84279e-01,9.99999e-01
6.235043498e-01,9.84531e-01,9.99999e-01,9.99999e-01,9.99942e-01,9.84588e-01,9.99999e-01
6.266218716e-01,9.84589e-01,9.99999e-01,9.99999e-01,9.99696e-01,9.84890e-01,9.99997e-01
6.297549810e-01,9.85072e-01,9.99999e-01,9.99999e-01,9.99888e-01,9.85186e-01,9.99995e-01
6.329037559e-01,9.85256e-01,9.99999e-01,9.99999e-01,9.99779e-01,9.85476e-01,9.99996e-01
6.360682746e-01,9.85575e-01,9.99999e-01,9.99999e-01,9.99812e-01,9.85761e-01,9.99997e-01
6.392486160e-01,9.85800e-01,9.99999e-01,9.99999e-01,9.99757e-01,9.86040e-01,9.99998e-01
6.424448591e-01,9.85994e-01,9.99999e-01,9.99999e-01,9.99676e-01,9.86314e-01,9.99998e-01
6.456570834e-01,9.85093e-01,9.99999e-01,9.99999e-01,9.98497e-01,9.86583e-01,9.99991e-01
6.488853688e-01,9.85733e-01,9.99999e-01,9.99999e-01,9.98894e-01,9.86846e-01,9.99976e-01
6.521297956e-01,9.85973e-01,9.99999e-01,9.99999e-01,9.98872e-01,9.87104e-01,9.99979e-01
6.553904446e-01,9.86243e-01,9.99999e-01,9.99999e-01,9.98885e-01,9.87357e-01,9.99984e-01
6.586673968e-01,9.86653e-01,9.99999e-01,9.99999e-01,9.99039e-01,9.87605e-01,9.99994e-01
6.619607338e-01,9.87300e-01,9.99999e-01,9.99999e-01,9.99444e-01,9.87849e-01,9.99998e-01
6.652705375e-01,9.87769e-01,9.99999e-01,9.99999e-01,9.99678e-01,9.88087e-01,9.99998e-01
6.685968902e-01,9.88174e-01,9.99999e-01,9.99999e-01,9.99850e-01,9.88321e-01,9.99999e-01
6.719398746e-01,9.88482e-01,9.99999e-01,9.99999e-01,9.99930e-01,9.88550e-01,9.99999e-01
6.752995740e-01,9.88738e-01,9.99999e-01,9.99999e-01,9.99962e-01,9.88775e-01,9.99999e-01
6.786760719e-01,9.88942e-01,9.99999e-01,9.99999e-01,9.99945e-01,9.88996e-01,9.99999e-01
6.820694522e-01,9.89120e-01,9.99999e-01,9.99999e-01,9.99907e-01,9.89212e-01,9.99999e-01
6.854797995e-01,9.89305e-01,9.99999e-01,9.99999e-01,9.99880e-01,9.89424e-01,9.99998e-01
6.889071985e-01,9.89346e-01,9.99999e-01,9.99999e-01,9.99712e-01,9.89632e-01,9.99996e-01
6.923517345e-01,9.85158e-01,9.99999e-01,9.99999e-01,9.95296e-01,9.89835e-01,9.99976e-01
6.958134932e-01,9.87541e-01,9.99999e-01,9.99999e-01,9.97531e-01,9.90035e-01,9.99948e-01
6.992925606e-01,9.87885e-01,9.99999e-01,9.99999e-01,9.97675e-01,9.90231e-01,9.99954e-01
7.027890234e-01,9.87538e-01,9.99999e-01,9.99999e-01,9.97120e-01,9.90423e-01,9.99965e-01
7.063029686e-01,9.88198e-01,9.99999e-01,9.99999e-01,9.97580e-01,9.90611e-01,9.99982e-01
7.098344834e-01,9.88486e-01,9.99999e-01,9.99999e-01,9.97678e-01,9.90796e-01,9.99989e-01
7.133836558e-01,9.87906e-01,9.99999e-01,9.99999e-01,9.96920e-01,9.90977e-01,9.99979e-01
7.169505741e-01,9.66531e-01,9.99999e-01,9.99999e-01,9.75311e-01,9.91154e-01,9.99841e-01
7.205353270e-01,9.78931e-01,9.99999e-01,9.99999e-01,9.87770e-01,9.91328e-01,9.99720e-01
7.241380036e-01,9.75991e-01,9.99999e-01,9.99999e-01,9.84596e-01,9.91499e-01,9.99758e-01
7.277586936e-01,9.77673e-01,9.99999e-01,9.99999e-01,9.86083e-01,9.91666e-01,9.99802e-01
7.313974871e-01,9.77046e-01,9.99999e-01,9.99999e-01,9.85184e-01,9.91830e-01,9.99907e-01
7.350544745e-01,9.83920e-01,9.99999e-01,9.99999e-01,9.91895e-01,9.91991e-01,9.99967e-01
7.387297469e-01,9.86214e-01,9.99999e-01,9.99999e-01,9.94032e-01,9.92148e-01,9.99984e-01
7.424233956e-01,9.89398e-01,9.99999e-01,9.99999e-01,9.97075e-01,9.92303e-01,9.99996e-01
7.461355126e-01,9.90696e-01,9.99999e-01,9.99999e-01,9.98228e-01,9.92454e-01,9.99999e-01
7.498661902e-01,9.91783e-01,9.99999e-01,9.99999e-01,9.99173e-01,9.92603e-01,9.99999e-01
7.536155211e-01,9.92347e-01,9.99999e-01,9.99999e-01,9.99595e-01,9.92748e-01,9.99999e-01
7.573835987e-01,9.92684e-01,9.99999e-01,9.99999e-01,9.99791e-01,9.92891e-01,9.99999e-01
7.611705167e-01,9.92902e-01,9.99999e-01,9.99999e-01,9.99870e-01,9.93031e-01,9.99999e-01
7.649763693e-01,9.93087e-01,9.99999e-01,9.99999e-01,9.99918e-01,9.93168e-01,9.99999e-01
7.688012511e-01,9.93246e-01,9.99999e-01,9.99999e-01,9.99943e-01,9.93302e-01,9.99999e-01
7.726452574e-01,9.93388e-01,9.99999e-01,9.99999e-01,9.99953e-01,9.93434e-01,9.99999e-01
7.765084837e-01,9.93498e-01,9.99999e-01,9.99999e-01,9.99933e-01,9.93563e-01,9.99999e-01
7.803910261e-01,9.93408e-01,9.99999e-01,9.99999e-01,9.99715e-01,9.93690e-01,9.99999e-01
7.842929812e-01,9.92828e-01,9.99999e-01,9.99999e-01,9.99008e-01,9.93814e-01,9.99997e-01
7.882144461e-01,9.91888e-01,9.99999e-01,9.99999e-01,9.97950e-01,9.93936e-01,9.99986e-01
7.921555184e-01,9.92912e-01,9.99999e-01,9.99999e-01,9.98873e-01,9.94056e-01,9.99975e-01
7.961162960e-01,9.92180e-01,9.99999e-01,9.99999e-01,9.98018e-01,9.94173e-01,9.99976e-01
8.000968774e-01,9.91983e-01,9.99999e-01,9.99999e-01,9.97706e-01,9.94287e-01,9.99974e-01
8.040973618e-01,9.92101e-01,9.99999e-01,9.99999e-01,9.97707e-01,9.94400e-01,9.99979e-01
8.081178486e-01,9.89368e-01,9.99999e-01,9.99999e-01,9.94846e-01,9.94510e-01,9.99981e-01
8.121584379e-01,9.73278e-01,9.99999e-01,9.99999e-01,9.78614e-01,9.94618e-01,9.99927e-01
8.162192301e-01,9.69131e-01,9.99999e-01,9.99999e-01,9.74535e-01,9.94724e-01,9.99727e-01
8.203003262e-01,9.81843e-01,9.99999e-01,9.99999e-01,9.87260e-01,9.94828e-01,9.99681e-01
8.244018279e-01,9.76779e-01,9.99999e-01,9.99999e-01,9.82004e-01,9.94930e-01,9.99746e-01
8.285238370e-01,9.79705e-01,9.99999e-01,9.99999e-01,9.84793e-01,9.95030e-01,9.99800e-01
8.326664562e-01,9.79718e-01,9.99999e-01,9.99999e-01,9.84595e-01,9.95128e-01,9.99917e-01
8.368297885e-01,9.84244e-01,9.99999e-01,9.99999e-01,9.88985e-01,9.95224e-01,9.99980e-01
8.410139374e-01,9.88784e-01,9.99999e-01,9.99999e-01,9.93445e-01,9.95318e-01,9.99988e-01
8.452190071e-01,9.92200e-01,9.99999e-01,9.99999e-01,9.96781e-01,9.95410e-01,9.99992e-01
8.494451021e-01,9.93640e-01,9.99999e-01,9.99999e-01,9.98135e-01,9.95501e-01,9.99994e-01
8.536923276e-01,9.94487e-01,9.99999e-01,9.99999e-01,9.98895e-01,9.95589e-01,9.99996e-01
8.579607893e-01,9.94999e-01,9.99999e-01,9.99999e-01,9.99320e-01,9.95676e-01,9.99998e-01
8.622505932e-01,9.95331e-01,9.99999e-01,9.99999e-01,9.99567e-01,9.95761e-01,9.99999e-01
8.665618462e-01,9.95579e-01,9.99999e-01,9.99999e-01,9.99732e-01,9.95845e-01,9.99999e-01
8.708946554e-01,9.95623e-01,9.99999e-01,9.99999e-01,9.99694e-01,9.95927e-01,9.99999e-01
8.752491287e-01,9.95600e-01,9.99999e-01,9.99999e-01,9.99591e-01,9.96007e-01,9.99999e-01
8.796253743e-01,9.95522e-01,9.99999e-01,9.99999e-01,9.99434e-01,9.96086e-01,9.99998e-01
8.840235012e-01,9.95516e-01,9.99999e-01,9.99999e-01,9.99354e-01,9.96163e-01,9.99995e-01
8.884436187e-01,9.93896e-01,9.99999e-01,9.99999e-01,9.97658e-01,9.96239e-01,9.99988e-01
8.928858368e-01,9.71731e-01,9.99999e-01,9.99999e-01,9.75390e-01,9.96313e-01,9.99935e-01
8.973502660e-01,9.52861e-01,9.99999e-01,9.99999e-01,9.56633e-01,9.96385e-01,9.99668e-01
9.018370173e-01,9.73583e-01,9.99999e-01,9.99999e-01,9.77552e-01,9.96457e-01,9.99479e-01
9.063462024e-01,9.76521e-01,9.99999e-01,9.99999e-01,9.80371e-01,9.96527e-01,9.99542e-01
9.108779334e-01,9.65723e-01,9.99999e-01,9.99999e-01,9.69481e-01,9.96595e-01,9.99525e-01
9.154323231e-01,9.61808e-01,9.99999e-01,9.99999e-01,9.65407e-01,9.96662e-01,9.99607e-01
9.200094847e-01,9.69358e-01,9.99999e-01,9.99999e-01,9.72753e-01,9.96728e-01,9.99780e-01
9.246095321e-01,9.54325e-01,9.99999e-01,9.99999e-01,9.57637e-01,9.96792e-01,9.99746e-01
9.292325798e-01,7.42313e-01,9.99999e-01,9.99999e-01,7.45388e-01,9.96856e-01,9.99013e-01
9.338787427e-01,6.77684e-01,9.99999e-01,9.99999e-01,6.82557e-01,9.96918e-01,9.95929e-01
9.385481364e-01,8.50886e-01,9.99999e-01,9.99999e-01,8.57614e-01,9.96978e-01,9.95160e-01
9.432408771e-01,8.00424e-01,9.99999e-01,9.99999e-01,8.06167e-01,9.97038e-01,9.95823e-01
9.479570815e-01,7.35864e-01,9.99999e-01,9.99999e-01,7.40524e-01,9.97096e-01,9.96599e-01
9.526968669e-01,7.96056e-01,9.99999e-01,9.99999e-01,7.99987e-01,9.97154e-01,9.97924e-01
9.574603512e-01,8.14518e-01,9.99999e-01,9.99999e-01,8.17659e-01,9.97210e-01,9.98944e-01
9.622476530e-01,8.46399e-01,9.99999e-01,9.99999e-01,8.49339e-01,9.97265e-01,9.99270e-01
9.670588912e-01,9.07531e-01,9.99999e-01,9.99999e-01,9.10424e-01,9.97319e-01,9.99500e-01
9.718941857e-01,9.40524e-01,9.99999e-01,9.99999e-01,9.43348e-01,9.97372e-01,9.99632e-01
9.767536566e-01,9.50049e-01,9.99999e-01,9.99999e-01,9.52770e-01,9.97423e-01,9.99718e-01
9.816374249e-01,9.62258e-01,9.99999e-01,9.99999e-01,9.64787e-01,9.97474e-01,9.99902e-01
9.865456120e-01,9.75429e-01,9.99999e-01,9.99999e-01,9.77869e-01,9.97524e-01,9.99979e-01
9.914783401e-01,9.83877e-01,9.99999e-01,9.99999e-01,9.86276e-01,9.97573e-01,9.99993e-01
9.964357318e-01,9.90140e-01,9.99999e-01,9.99999e-01,9.92503e-01,9.97621e-01,9.99996e-01
1.001417910e+00,9.93175e-01,9.99999e-01,9.99999e-01,9.95501e-01,9.97668e-01,9.99994e-01
1.006425000e+00,9.95149e-01,9.99999e-01,9.99999e-01,9.97436e-01,9.97714e-01,9.99992e-01
1.011457125e+00,9.96163e-01,9.99999e-01,9.99999e-01,9.98406e-01,9.97759e-01,9.99992e-01
1.016514411e+00,9.96720e-01,9.99999e-01,9.99999e-01,9.98918e-01,9.97803e-01,9.99994e-01
1.021596983e+00,9.96982e-01,9.99999e-01,9.99999e-01,9.99138e-01,9.97846e-01,9.99994e-01
1.026704968e+00,9.97216e-01,9.99999e-01,9.99999e-01,9.99328e-01,9.97889e-01,9.99996e-01
1.031838492e+00,9.97442e-01,9.99999e-01,9.99999e-01,9.99511e-01,9.97930e-01,9.99998e-01
1.036997685e+00,9.97682e-01,9.99999e-01,9.99999e-01,9.99709e-01,9.97971e-01,9.99999e-01
1.042182673e+00,9.97667e-01,9.99999e-01,9.99999e-01,9.99654e-01,9.98011e-01,9.99999e-01
1.047393587e+00,9.97593e-01,9.99999e-01,9.99999e-01,9.99541e-01,9.98050e-01,9.99999e-01
1.052630555e+00,9.97462e-01,9.99999e-01,9.99999e-01,9.99371e-01,9.98089e-01,9.99999e-01
1.057893707e+00,9.97080e-01,9.99999e-01,9.99999e-01,9.98951e-01,9.98127e-01,9.99999e-01
1.063183176e+00,9.96440e-01,9.99999e-01,9.99999e-01,9.98274e-01,9.98164e-01,9.99998e-01
1.068499092e+00,9.95313e-01,9.99999e-01,9.99999e-01,9.97109e-01,9.98200e-01,9.99997e-01
1.073841587e+00,9.94856e-01,9.99999e-01,9.99999e-01,9.96618e-01,9.98235e-01,9.99995e-01
1.079210795e+00,9.93930e-01,9.99999e-01,9.99999e-01,9.95663e-01,9.98270e-01,9.99987e-01
1.084606849e+00,9.91732e-01,9.99999e-01,9.99999e-01,9.93443e-01,9.98304e-01,9.99971e-01
1.090029883e+00,9.88907e-01,9.99999e-01,9.99999e-01,9.90609e-01,9.98338e-01,9.99941e-01
1.095480033e+00,9.72903e-01,9.99999e-01,9.99999e-01,9.74591e-01,9.98370e-01,9.99895e-01
1.100957433e+00,9.34883e-01,9.99999e-01,9.99999e-01,9.36557e-01,9.98403e-01,9.99807e-01
1.106462220e+00,8.44150e-01,9.99999e-01,9.99999e-01,8.45748e-01,9.98434e-01,9.99674e-01
1.111994531e+00,6.99501e-01,9.99999e-01,9.99999e-01,7.01181e-01,9.98465e-01,9.99136e-01
1.117554504e+00,5.58613e-01,9.99999e-01,9.99999e-01,5.61202e-01,9.98495e-01,9.96886e-01
1.123142276e+00,6.43222e-01,9.99999e-01,9.99999e-01,6.48953e-01,9.98525e-01,9.92632e-01
1.128757988e+00,7.53658e-01,9.99999e-01,9.99999e-01,7.61233e-01,9.98554e-01,9.91482e-01
1.134401778e+00,5.17825e-01,9.99999e-01,9.99999e-01,5.22345e-01,9.98583e-01,9.92752e-01
1.140073787e+00,8.45366e-01,9.99999e-01,9.99999e-01,8.51475e-01,9.98611e-01,9.94204e-01
1.145774156e+00,7.07522e-01,9.99999e-01,9.99999e-01,7.12265e-01,9.98638e-01,9.94694e-01
1.151503026e+00,6.80913e-01,9.99999e-01,9.99999e-01,6.83847e-01,9.98665e-01,9.97040e-01
1.157260541e+00,7.30362e-01,9.99999e-01,9.99999e-01,7.31967e-01,9.98691e-01,9.99113e-01
1.163046844e+00,7.93153e-01,9.99999e-01,9.99999e-01,7.94371e-01,9.98717e-01,9.99748e-01
1.168862078e+00,8.51784e-01,9.99999e-01,9.99999e-01,8.52966e-01,9.98742e-01,9.99870e-01
1.174706389e+00,9.05288e-01,9.99999e-01,9.99999e-01,9.06560e-01,9.98767e-01,9.99828e-01
1.180579921e+00,9.40678e-01,9.99999e-01,9.99999e-01,9.42059e-01,9.98791e-01,9.99740e-01
1.186482820e+00,9.65493e-01,9.99999e-01,9.99999e-01,9.66894e-01,9.98815e-01,9.99733e-01
1.192415234e+00,9.79234e-01,9.99999e-01,9.99999e-01,9.80567e-01,9.98839e-01,9.99800e-01
1.198377311e+00,9.82303e-01,9.99999e-01,9.99999e-01,9.83607e-01,9.98862e-01,9.99811e-01
1.204369197e+00,9.83200e-01,9.99999e-01,9.99999e-01,9.84465e-01,9.98884e-01,9.99829e-01
1.210391043e+00,9.83966e-01,9.99999e-01,9.99999e-01,9.85144e-01,9.98906e-01,9.99895e-01
1.216442998e+00,9.86218e-01,9.99999e-01,9.99999e-01,9.87338e-01,9.98928e-01,9.99936e-01
1.222525213e+00,9.89058e-01,9.99999e-01,9.99999e-01,9.90137e-01,9.98949e-01,9.99960e-01
1.228637839e+00,9.92104e-01,9.99999e-01,9.99999e-01,9.93145e-01,9.98969e-01,9.99981e-01
