#,Wave/freq,Total,N2,O2,H2O,Rayleigh,CIA
4.000000000e-01,2.17346e-01,9.99999e-01,9.99999e-01,9.99827e-01,2.17383e-01,9.99999e-01
4.020000000e-01,2.24019e-01,9.99999e-01,9.99999e-01,9.99893e-01,2.24043e-01,9.99999e-01
4.040100000e-01,2.30751e-01,9.99999e-01,9.99999e-01,9.99954e-01,2.30761e-01,9.99999e-01
4.060300500e-01,2.37541e-01,9.99999e-01,9.99999e-01,9.99989e-01,2.37543e-01,9.99999e-01
4.080602003e-01,2.44383e-01,9.99999e-01,9.99999e-01,9.99996e-01,2.44384e-01,9.99999e-01
4.101005013e-01,2.51281e-01,9.99999e-01,9.99999e-01,9.99999e-01,2.51281e-01,9.99999e-01
4.121510038e-01,2.58229e-01,9.99999e-01,9.99999e-01,9.99993e-01,2.58231e-01,9.99999e-01
4.142117588e-01,2.65217e-01,9.99999e-01,9.99999e-01,9.99951e-01,2.65230e-01,9.99999e-01
4.162828176e-01,2.72217e-01,9.99999e-01,9.99999e-01,9.99786e-01,2.72275e-01,9.99999e-01
4.183642317e-01,2.79327e-01,9.99999e-01,9.99999e-01,9.99873e-01,2.79362e-01,9.99999e-01
4.204560528e-01,2.86466e-01,9.99999e-01,9.99999e-01,9.99922e-01,2.86488e-01,9.99999e-01
4.225583331e-01,2.93642e-01,9.99999e-01,9.99999e-01,9.99970e-01,2.93650e-01,9.99999e-01
4.246711247e-01,3.00838e-01,9.99999e-01,9.99999e-01,9.99976e-01,3.00845e-01,9.99999e-01
4.267944804e-01,3.08057e-01,9.99999e-01,9.99999e-01,9.99965e-01,3.08068e-01,9.99999e-01
4.289284528e-01,3.15308e-01,9.99999e-01,9.99999e-01,9.99973e-01,3.15316e-01,9.99999e-01
4.310730950e-01,3.22584e-01,9.99999e-01,9.99999e-01,9.99988e-01,3.22588e-01,9.99999e-01
4.332284605e-01,3.29877e-01,9.99999e-01,9.99999e-01,9.99996e-01,3.29878e-01,9.99999e-01
4.353946028e-01,3.37183e-01,9.99999e-01,9.99999e-01,9.99998e-01,3.37184e-01,9.99999e-01
4.375715758e-01,3.44495e-01,9.99999e-01,9.99999e-01,9.99977e-01,3.44503e-01,9.99999e-01
4.397594337e-01,3.51764e-01,9.99999e-01,9.99999e-01,9.99809e-01,3.51831e-01,9.99999e-01
4.419582309e-01,3.58818e-01,9.99999e-01,9.99999e-01,9.99029e-01,3.59166e-01,9.99999e-01
4.441680220e-01,3.66235e-01,9.99999e-01,9.99999e-01,9.99264e-01,3.66504e-01,9.99999e-01
4.463888621e-01,3.73555e-01,9.99999e-01,9.99999e-01,9.99227e-01,3.73843e-01,9.99999e-01
4.486208064e-01,3.80999e-01,9.99999e-01,9.99999e-01,9.99523e-01,3.81180e-01,9.99999e-01
4.508639105e-01,3.88425e-01,9.99999e-01,9.99999e-01,9.99776e-01,3.88511e-01,9.99999e-01
4.531182300e-01,3.95800e-01,9.99999e-01,9.99999e-01,9.99911e-01,3.95835e-01,9.99999e-01
4.553838212e-01,4.03124e-01,9.99999e-01,9.99999e-01,9.99939e-01,4.03148e-01,9.99999e-01
4.576607403e-01,4.10436e-01,9.99999e-01,9.99999e-01,9.99972e-01,4.10447e-01,9.99999e-01
4.599490440e-01,4.17723e-01,9.99999e-01,9.99999e-01,9.99980e-01,4.17731e-01,9.99999e-01
4.622487892e-01,4.24994e-01,9.99999e-01,9.99999e-01,9.99996e-01,4.24996e-01,9.99999e-01
4.645600332e-01,4.32234e-01,9.99999e-01,9.99999e-01,9.99985e-01,4.32240e-01,9.99999e-01
4.668828333e-01,4.39360e-01,9.99999e-01,9.99999e-01,9.99770e-01,4.39461e-01,9.99999e-01
4.692172475e-01,4.46440e-01,9.99999e-01,9.99999e-01,9.99515e-01,4.46656e-01,9.99999e-01
4.715633337e-01,4.53680e-01,9.99999e-01,9.99999e-01,9.99682e-01,4.53824e-01,9.99999e-01
4.739211504e-01,4.60823e-01,9.99999e-01,9.99999e-01,9.99698e-01,4.60962e-01,9.99999e-01
4.762907561e-01,4.67994e-01,9.99999e-01,9.99999e-01,9.99843e-01,4.68067e-01,9.99999e-01
4.786722099e-01,4.75108e-01,9.99999e-01,9.99999e-01,9.99935e-01,4.75139e-01,9.99999e-01
4.810655710e-01,4.82165e-01,9.99999e-01,9.99999e-01,9.99980e-01,4.82174e-01,9.99999e-01
4.834708988e-01,4.89078e-01,9.99999e-01,9.99999e-01,9.99807e-01,4.89172e-01,9.99999e-01
4.858882533e-01,4.95961e-01,9.99999e-01,9.99999e-01,9.99658e-01,4.96130e-01,9.99999e-01
4.883176946e-01,5.02902e-01,9.99999e-01,9.99999e-01,9.99711e-01,5.03046e-01,9.99999e-01
4.907592831e-01,5.09788e-01,9.99999e-01,9.99999e-01,9.99741e-01,5.09920e-01,9.99999e-01
4.932130795e-01,5.16654e-01,9.99999e-01,9.99999e-01,9.99816e-01,5.16749e-01,9.99999e-01
4.956791449e-01,5.23481e-01,9.99999e-01,9.99999e-01,9.99902e-01,5.23532e-01,9.99999e-01
4.981575406e-01,5.30007e-01,9.99999e-01,9.99999e-01,9.99509e-01,5.30267e-01,9.99999e-01
5.006483283e-01,5.36261e-01,9.99999e-01,9.99999e-01,9.98719e-01,5.36953e-01,9.99991e-01
5.031515699e-01,5.40077e-01,9.99999e-01,9.99999e-01,9.93604e-01,5.43589e-01,9.99932e-01
5.056673278e-01,5.48280e-01,9.99999e-01,9.99999e-01,9.96634e-01,5.50174e-01,9.99922e-01
5.081956644e-01,5.54319e-01,9.99999e-01,9.99999e-01,9.95758e-01,5.56706e-01,9.99952e-01
5.107366428e-01,5.61567e-01,9.99999e-01,9.99999e-01,9.97137e-01,5.63184e-01,9.99991e-01
5.132903260e-01,5.68677e-01,9.99999e-01,9.99999e-01,9.98367e-01,5.69607e-01,9.99998e-01
5.158567776e-01,5.75578e-01,9.99999e-01,9.99999e-01,9.99311e-01,5.75975e-01,9.99999e-01
5.184360615e-01,5.82125e-01,9.99999e-01,9.99999e-01,9.99723e-01,5.82286e-01,9.99999e-01
5.210282418e-01,5.88478e-01,9.99999e-01,9.99999e-01,9.99895e-01,5.88539e-01,9.99999e-01
5.236333830e-01,5.94484e-01,9.99999e-01,9.99999e-01,9.99582e-01,5.94734e-01,9.99996e-01
5.262515499e-01,6.00711e-01,9.99999e-01,9.99999e-01,9.99739e-01,6.00870e-01,9.99995e-01
5.288828077e-01,6.06798e-01,9.99999e-01,9.99999e-01,9.99758e-01,6.06946e-01,9.99996e-01
5.315272217e-01,6.12833e-01,9.99999e-01,9.99999e-01,9.99790e-01,6.12962e-01,9.99998e-01
5.341848578e-01,6.18831e-01,9.99999e-01,9.99999e-01,9.99860e-01,6.18916e-01,9.99999e-01
5.368557821e-01,6.24503e-01,9.99999e-01,9.99999e-01,9.99509e-01,6.24810e-01,9.99998e-01
5.395400610e-01,6.29507e-01,9.99999e-01,9.99999e-01,9.98217e-01,6.30641e-01,9.99982e-01
5.422377613e-01,6.34950e-01,9.99999e-01,9.99999e-01,9.97745e-01,6.36410e-01,9.99958e-01
5.449489501e-01,6.40729e-01,9.99999e-01,9.99999e-01,9.97881e-01,6.42116e-01,9.99957e-01
5.476736949e-01,6.46546e-01,9.99999e-01,9.99999e-01,9.98146e-01,6.47760e-01,9.99978e-01
5.504120634e-01,6.52456e-01,9.99999e-01,9.99999e-01,9.98653e-01,6.53339e-01,9.99993e-01
5.531641237e-01,6.58409e-01,9.99999e-01,9.99999e-01,9.99322e-01,6.58856e-01,9.99998e-01
5.559299443e-01,6.64092e-01,9.99999e-01,9.99999e-01,9.99673e-01,6.64308e-01,9.99999e-01
5.587095940e-01,6.69559e-01,9.99999e-01,9.99999e-01,9.99793e-01,6.69697e-01,9.99999e-01
5.615031420e-01,6.74866e-01,9.99999e-01,9.99999e-01,9.99770e-01,6.75022e-01,9.99999e-01
5.643106577e-01,6.80100e-01,9.99999e-01,9.99999e-01,9.99734e-01,6.80282e-01,9.99997e-01
5.671322110e-01,6.83240e-01,9.99999e-01,9.99999e-01,9.96761e-01,6.85478e-01,9.99971e-01
5.699678720e-01,6.88261e-01,9.99999e-01,9.99999e-01,9.96682e-01,6.90611e-01,9.99913e-01
5.728177114e-01,6.93187e-01,9.99999e-01,9.99999e-01,9.96488e-01,6.95679e-01,9.99927e-01
5.756818000e-01,6.98404e-01,9.99999e-01,9.99999e-01,9.96787e-01,7.00683e-01,9.99957e-01
5.785602090e-01,7.03645e-01,9.99999e-01,9.99999e-01,9.97207e-01,7.05623e-01,9.99987e-01
5.814530100e-01,7.08497e-01,9.99999e-01,9.99999e-01,9.97186e-01,7.10500e-01,9.99993e-01
5.843602750e-01,7.12877e-01,9.99999e-01,9.99999e-01,9.96612e-01,7.15313e-01,9.99980e-01
5.872820764e-01,6.99276e-01,9.99999e-01,9.99999e-01,9.71328e-01,7.20062e-01,9.99796e-01
5.902184868e-01,6.99466e-01,9.99999e-01,9.99999e-01,9.65649e-01,7.24749e-01,9.99446e-01
5.931695792e-01,7.11180e-01,9.99999e-01,9.99999e-01,9.75576e-01,7.29372e-01,9.99467e-01
5.961354271e-01,7.14110e-01,9.99999e-01,9.99999e-01,9.73288e-01,7.33932e-01,9.99693e-01
5.991161043e-01,7.23932e-01,9.99999e-01,9.99999e-01,9.80458e-01,7.38431e-01,9.99904e-01
6.021116848e-01,7.34601e-01,9.99999e-01,9.99999e-01,9.88883e-01,7.42867e-01,9.99989e-01
6.051222432e-01,7.43029e-01,9.99999e-01,9.99999e-01,9.94363e-01,7.47241e-01,9.99998e-01
6.081478544e-01,7.49722e-01,9.99999e-01,9.99999e-01,9.97561e-01,7.51554e-01,9.99999e-01
6.111885937e-01,7.55029e-01,9.99999e-01,9.99999e-01,9.98971e-01,7.55806e-01,9.99999e-01
6.142445367e-01,7.59647e-01,9.99999e-01,9.99999e-01,9.99539e-01,7.59997e-01,9.99999e-01
6.173157594e-01,7.63934e-01,9.99999e-01,9.99999e-01,9.99745e-01,7.64128e-01,9.99999e-01
6.204023382e-01,7.68033e-01,9.99999e-01,9.99999e-01,9.99782e-01,7.68199e-01,9.99999e-01
6.235043498e-01,7.71457e-01,9.99999e-01,9.99999e-01,9.99024e-01,7.72211e-01,9.99997e-01
6.266218716e-01,7.72229e-01,9.99999e-01,9.99999e-01,9.94964e-01,7.76164e-01,9.99964e-01
6.297549810e-01,7.78561e-01,9.99999e-01,9.99999e-01,9.98150e-01,7.80059e-01,9.99928e-01
6.329037559e-01,7.81000e-01,9.99999e-01,9.99999e-01,9.96362e-01,7.83895e-01,9.99942e-01
6.360682746e-01,7.85192e-01,9.99999e-01,9.99999e-01,9.96881e-01,7.87674e-01,9.99966e-01
6.392486160e-01,7.88197e-01,9.99999e-01,9.99999e-01,9.95971e-01,7.91396e-01,9.99984e-01
6.424448591e-01,7.90712e-01,9.99999e-01,9.99999e-01,9.94554e-01,7.95062e-01,9.99972e-01
6.456570834e-01,7.78585e-01,9.99999e-01,9.99999e-01,9.74997e-01,7.98672e-01,9.99847e-01
6.488853688e-01,7.87424e-01,9.99999e-01,9.99999e-01,9.81929e-01,8.02226e-01,9.99611e-01
6.521297956e-01,7.90654e-01,9.99999e-01,9.99999e-01,9.81608e-01,8.05726e-01,9.99679e-01
6.553904446e-01,7.94019e-01,9.99999e-01,9.99999e-01,9.81508e-01,8.09171e-01,9.99760e-01
6.586673968e-01,7.99705e-01,9.99999e-01,9.99999e-01,9.84255e-01,8.12562e-01,9.99919e-01
6.619607338e-01,8.08700e-01,9.99999e-01,9.99999e-01,9.91190e-01,8.15900e-01,9.99982e-01
6.652705375e-01,8.14840e-01,9.99999e-01,9.99999e-01,9.94702e-01,8.19186e-01,9.99990e-01
6.685968902e-01,8.20568e-01,9.99999e-01,9.99999e-01,9.97748e-01,8.22420e-01,9.99998e-01
6.719398746e-01,8.24660e-01,9.99999e-01,9.99999e-01,9.98858e-01,8.25602e-01,9.99999e-01
6.752995740e-01,8.28233e-01,9.99999e-01,9.99999e-01,9.99395e-01,8.28733e-01,9.99999e-01
6.786760719e-01,8.31059e-01,9.99999e-01,9.99999e-01,9.99094e-01,8.31814e-01,9.99998e-01
6.820694522e-01,8.33540e-01,9.99999e-01,9.99999e-01,9.98444e-01,8.34845e-01,9.99991e-01
6.854797995e-01,8.36147e-01,9.99999e-01,9.99999e-01,9.98012e-01,8.37827e-01,9.99982e-01
6.889071985e-01,8.35321e-01,9.99999e-01,9.99999e-01,9.93572e-01,8.40760e-01,9.99956e-01
6.923517345e-01,7.79261e-01,9.99999e-01,9.99999e-01,9.24029e-01,8.43646e-01,9.99624e-01
6.958134932e-01,8.12879e-01,9.99999e-01,9.99999e-01,9.61099e-01,8.46484e-01,9.99168e-01
6.992925606e-01,8.16187e-01,9.99999e-01,9.99999e-01,9.61760e-01,8.49275e-01,9.99250e-01
7.027890234e-01,8.11930e-01,9.99999e-01,9.99999e-01,9.53492e-01,8.52020e-01,9.99427e-01
7.063029686e-01,8.20834e-01,9.99999e-01,9.99999e-01,9.60628e-01,8.54719e-01,9.99714e-01
7.098344834e-01,8.24799e-01,9.99999e-01,9.99999e-01,9.62167e-01,8.57374e-01,9.99831e-01
7.133836558e-01,8.16172e-01,9.99999e-01,9.99999e-01,9.49372e-01,8.59984e-01,9.99664e-01
7.169505741e-01,5.77771e-01,9.99999e-01,9.99999e-01,6.71607e-01,8.62550e-01,9.97368e-01
7.205353270e-01,7.09904e-01,9.99999e-01,9.99999e-01,8.24452e-01,8.65073e-01,9.95362e-01
7.241380036e-01,6.71784e-01,9.99999e-01,9.99999e-01,7.77456e-01,8.67553e-01,9.95994e-01
7.277586936e-01,6.91470e-01,9.99999e-01,9.99999e-01,7.97308e-01,8.69991e-01,9.96854e-01
7.313974871e-01,6.84408e-01,9.99999e-01,9.99999e-01,7.85620e-01,8.72387e-01,9.98601e-01
7.350544745e-01,7.65399e-01,9.99999e-01,9.99999e-01,8.75465e-01,8.74743e-01,9.99465e-01
7.387297469e-01,7.94743e-01,9.99999e-01,9.99999e-01,9.06367e-01,8.77058e-01,9.99754e-01
7.424233956e-01,8.38014e-01,9.99999e-01,9.99999e-01,9.53049e-01,8.79334e-01,9.99957e-01
7.461355126e-01,8.56172e-01,9.99999e-01,9.99999e-01,9.71195e-01,8.81570e-01,9.99992e-01
7.498661902e-01,8.71865e-01,9.99999e-01,9.99999e-01,9.86533e-01,8.83768e-01,9.99996e-01
7.536155211e-01,8.80029e-01,9.99999e-01,9.99999e-01,9.93343e-01,8.85928e-01,9.99997e-01
7.573835987e-01,8.85005e-01,9.99999e-01,9.99999e-01,9.96570e-01,8.88050e-01,9.99999e-01
7.611705167e-01,8.88236e-01,9.99999e-01,9.99999e-01,9.97866e-01,8.90135e-01,9.99999e-01
7.649763693e-01,8.90988e-01,9.99999e-01,9.99999e-01,9.98660e-01,8.92183e-01,9.99999e-01
7.688012511e-01,8.93360e-01,9.99999e-01,9.99999e-01,9.99065e-01,8.94196e-01,9.99999e-01
7.726452574e-01,8.95483e-01,9.99999e-01,9.99999e-01,9.99229e-01,8.96173e-01,9.99999e-01
7.765084837e-01,8.97122e-01,9.99999e-01,9.99999e-01,9.98894e-01,8.98116e-01,9.99998e-01
7.803910261e-01,8.95718e-01,9.99999e-01,9.99999e-01,9.95219e-01,9.00024e-01,9.99994e-01
7.842929812e-01,8.86921e-01,9.99999e-01,9.99999e-01,9.83422e-01,9.01899e-01,9.99969e-01
7.882144461e-01,8.73277e-01,9.99999e-01,9.99999e-01,9.66517e-01,9.03740e-01,9.99766e-01
7.921555184e-01,8.88567e-01,9.99999e-01,9.99999e-01,9.81644e-01,9.05549e-01,9.99593e-01
7.961162960e-01,8.77321e-01,9.99999e-01,9.99999e-01,9.67303e-01,9.07325e-01,9.99613e-01
8.000968774e-01,8.74647e-01,9.99999e-01,9.99999e-01,9.62529e-01,9.09070e-01,9.99588e-01
8.040973618e-01,8.76333e-01,9.99999e-01,9.99999e-01,9.62476e-01,9.10783e-01,9.99686e-01
8.081178486e-01,8.36775e-01,9.99999e-01,9.99999e-01,9.17338e-01,9.12466e-01,9.99682e-01
8.121584379e-01,6.42442e-01,9.99999e-01,9.99999e-01,7.03645e-01,9.14118e-01,9.98797e-01
8.162192301e-01,6.05965e-01,9.99999e-01,9.99999e-01,6.64720e-01,9.15741e-01,9.95487e-01
8.203003262e-01,7.48039e-01,9.99999e-01,9.99999e-01,8.19776e-01,9.17335e-01,9.94718e-01
8.244018279e-01,7.03913e-01,9.99999e-01,9.99999e-01,7.69273e-01,9.18899e-01,9.95794e-01
8.285238370e-01,7.14522e-01,9.99999e-01,9.99999e-01,7.78859e-01,9.20436e-01,9.96695e-01
8.326664562e-01,7.17054e-01,9.99999e-01,9.99999e-01,7.78827e-01,9.21944e-01,9.98631e-01
8.368297885e-01,7.70404e-01,9.99999e-01,9.99999e-01,8.34549e-01,9.23425e-01,9.99686e-01
8.410139374e-01,8.30170e-01,9.99999e-01,9.99999e-01,8.97762e-01,9.24880e-01,9.99816e-01
8.452190071e-01,8.78424e-01,9.99999e-01,9.99999e-01,9.48410e-01,9.26307e-01,9.99890e-01
8.494451021e-01,8.99368e-01,9.99999e-01,9.99999e-01,9.69534e-01,9.27709e-01,9.99911e-01
8.536923276e-01,9.12270e-01,9.99999e-01,9.99999e-01,9.81952e-01,9.29085e-01,9.99946e-01
8.579607893e-01,9.20006e-01,9.99999e-01,9.99999e-01,9.88802e-01,9.30436e-01,9.99986e-01
8.622505932e-01,9.25140e-01,9.99999e-01,9.99999e-01,9.92894e-01,9.31762e-01,9.99997e-01
8.665618462e-01,9.28936e-01,9.99999e-01,9.99999e-01,9.95577e-01,9.33064e-01,9.99998e-01
8.708946554e-01,9.29595e-01,9.99999e-01,9.99999e-01,9.94921e-01,9.34341e-01,9.99996e-01
8.752491287e-01,9.29246e-01,9.99999e-01,9.99999e-01,9.93219e-01,9.35596e-01,9.99992e-01
8.796253743e-01,9.27986e-01,9.99999e-01,9.99999e-01,9.90583e-01,9.36827e-01,9.99978e-01
8.840235012e-01,9.27907e-01,9.99999e-01,9.99999e-01,9.89267e-01,9.38035e-01,9.99934e-01
8.884436187e-01,9.02370e-01,9.99999e-01,9.99999e-01,9.60942e-01,9.39221e-01,9.99813e-01
8.928858368e-01,6.30338e-01,9.99999e-01,9.99999e-01,6.71017e-01,9.40385e-01,9.98926e-01
8.973502660e-01,4.70676e-01,9.99999e-01,9.99999e-01,5.02664e-01,9.41527e-01,9.94513e-01
9.018370173e-01,6.60398e-01,9.99999e-01,9.99999e-01,7.06663e-01,9.42648e-01,9.91387e-01
9.063462024e-01,6.82727e-01,9.99999e-01,9.99999e-01,7.28937e-01,9.43749e-01,9.92429e-01
9.108779334e-01,5.75331e-01,9.99999e-01,9.99999e-01,6.13753e-01,9.44829e-01,9.92135e-01
9.154323231e-01,5.37172e-01,9.99999e-01,9.99999e-01,5.71619e-01,9.45888e-01,9.93494e-01
9.200094847e-01,6.12279e-01,9.99999e-01,9.99999e-01,6.48960e-01,9.46928e-01,9.96353e-01
9.246095321e-01,4.97039e-01,9.99999e-01,9.99999e-01,5.26542e-01,9.47949e-01,9.95799e-01
9.292325798e-01,3.31610e-02,9.99999e-01,9.99999e-01,3.56622e-02,9.48950e-01,9.79884e-01
9.338787427e-01,8.03671e-03,9.99999e-01,9.99999e-01,9.10510e-03,9.49933e-01,9.29180e-01
9.385481364e-01,1.28278e-01,9.99999e-01,9.99999e-01,1.46240e-01,9.50897e-01,9.22469e-01
9.432408771e-01,6.98936e-02,9.99999e-01,9.99999e-01,7.87241e-02,9.51843e-01,9.32746e-01
9.479570815e-01,2.23441e-02,9.99999e-01,9.99999e-01,2.48189e-02,9.52772e-01,9.44912e-01
9.526968669e-01,5.09659e-02,9.99999e-01,9.99999e-01,5.53203e-02,9.53683e-01,9.66029e-01
9.574603512e-01,5.89550e-02,9.99999e-01,9.99999e-01,6.28542e-02,9.54576e-01,9.82597e-01
9.622476530e-01,9.34532e-02,9.99999e-01,9.99999e-01,9.90048e-02,9.55453e-01,9.87933e-01
9.670588912e-01,2.41340e-01,9.99999e-01,9.99999e-01,2.54380e-01,9.56314e-01,9.92077e-01
9.718941857e-01,3.77303e-01,9.99999e-01,9.99999e-01,3.96599e-01,9.57158e-01,9.93926e-01
9.767536566e-01,4.41099e-01,9.99999e-01,9.99999e-01,4.62598e-01,9.57986e-01,9.95340e-01
9.816374249e-01,5.36704e-01,9.99999e-01,9.99999e-01,5.60672e-01,9.58798e-01,9.98384e-01
9.865456120e-01,6.65973e-01,9.99999e-01,9.99999e-01,6.94247e-01,9.59596e-01,9.99663e-01
9.914783401e-01,7.64993e-01,9.99999e-01,9.99999e-01,7.96628e-01,9.60378e-01,9.99906e-01
9.964357318e-01,8.49070e-01,9.99999e-01,9.99999e-01,8.83441e-01,9.61145e-01,9.99944e-01
1.001417910e+00,8.92888e-01,9.99999e-01,9.99999e-01,9.28333e-01,9.61898e-01,9.99916e-01
1.006425000e+00,9.22402e-01,9.99999e-01,9.99999e-01,9.58318e-01,9.62636e-01,9.99880e-01
1.011457125e+00,9.38225e-01,9.99999e-01,9.99999e-01,9.74015e-01,9.63360e-01,9.99889e-01
1.016514411e+00,9.46882e-01,9.99999e-01,9.99999e-01,9.82246e-01,9.64071e-01,9.99921e-01
1.021596983e+00,9.51011e-01,9.99999e-01,9.99999e-01,9.85815e-01,9.64768e-01,9.99923e-01
1.026704968e+00,9.54700e-01,9.99999e-01,9.99999e-01,9.88910e-01,9.65451e-01,9.99951e-01
1.031838492e+00,9.58334e-01,9.99999e-01,9.99999e-01,9.91952e-01,9.66122e-01,9.99985e-01
1.036997685e+00,9.62136e-01,9.99999e-01,9.99999e-01,9.95198e-01,9.66780e-01,9.99997e-01
1.042182673e+00,9.61861e-01,9.99999e-01,9.99999e-01,9.94248e-01,9.67425e-01,9.99998e-01
1.047393587e+00,9.60699e-01,9.99999e-01,9.99999e-01,9.92398e-01,9.68058e-01,9.99998e-01
1.052630555e+00,9.58570e-01,9.99999e-01,9.99999e-01,9.89565e-01,9.68679e-01,9.99996e-01
1.057893707e+00,9.52427e-01,9.99999e-01,9.99999e-01,9.82610e-01,9.69288e-01,9.99993e-01
1.063183176e+00,9.42337e-01,9.99999e-01,9.99999e-01,9.71609e-01,9.69886e-01,9.99984e-01
1.068499092e+00,9.24886e-01,9.99999e-01,9.99999e-01,9.53057e-01,9.70472e-01,9.99967e-01
1.073841587e+00,9.17898e-01,9.99999e-01,9.99999e-01,9.45333e-01,9.71046e-01,9.99928e-01
1.079210795e+00,9.04059e-01,9.99999e-01,9.99999e-01,9.30653e-01,9.71610e-01,9.99807e-01
1.084606849e+00,8.71614e-01,9.99999e-01,9.99999e-01,8.96986e-01,9.72163e-01,9.99537e-01
1.090029883e+00,8.30996e-01,9.99999e-01,9.99999e-01,8.55132e-01,9.72705e-01,9.99041e-01
1.095480033e+00,6.36180e-01,9.99999e-01,9.99999e-01,6.54808e-01,9.73237e-01,9.98267e-01
1.100957433e+00,3.43255e-01,9.99999e-01,9.99999e-01,3.53632e-01,9.73759e-01,9.96813e-01
1.106462220e+00,8.76960e-02,9.99999e-01,9.99999e-01,9.05004e-02,9.74270e-01,9.94601e-01
1.111994531e+00,7.59450e-03,9.99999e-01,9.99999e-01,7.90380e-03,9.74772e-01,9.85733e-01
1.117554504e+00,6.81992e-04,9.99999e-01,9.99999e-01,7.36524e-04,9.75264e-01,9.49444e-01
1.123142276e+00,7.51600e-03,9.99999e-01,9.99999e-01,8.71121e-03,9.75747e-01,8.84240e-01
1.128757988e+00,2.27770e-02,9.99999e-01,9.99999e-01,2.69003e-02,9.76220e-01,8.67342e-01
1.134401778e+00,1.33955e-02,9.99999e-01,9.99999e-01,1.54796e-02,9.76684e-01,8.86019e-01
1.140073787e+00,8.50827e-02,9.99999e-01,9.99999e-01,9.59128e-02,9.77139e-01,9.07836e-01
1.145774156e+00,1.42481e-02,9.99999e-01,9.99999e-01,1.59235e-02,9.77586e-01,9.15297e-01
1.151503026e+00,8.30338e-03,9.99999e-01,9.99999e-01,8.91904e-03,9.78024e-01,9.51890e-01
1.157260541e+00,1.07899e-02,9.99999e-01,9.99999e-01,1.11913e-02,9.78453e-01,9.85365e-01
1.163046844e+00,3.44114e-02,9.99999e-01,9.99999e-01,3.53012e-02,9.78874e-01,9.95830e-01
1.168862078e+00,8.45011e-02,9.99999e-01,9.99999e-01,8.64763e-02,9.79287e-01,9.97825e-01
1.174706389e+00,2.10271e-01,9.99999e-01,9.99999e-01,2.15274e-01,9.79692e-01,9.97005e-01
1.180579921e+00,3.77479e-01,9.99999e-01,9.99999e-01,3.86813e-01,9.80089e-01,9.95694e-01
1.186482820e+00,5.63481e-01,9.99999e-01,9.99999e-01,5.77250e-01,9.80478e-01,9.95581e-01
1.192415234e+00,7.07116e-01,9.99999e-01,9.99999e-01,7.23308e-01,9.80860e-01,9.96688e-01
1.198377311e+00,7.44312e-01,9.99999e-01,9.99999e-01,7.60936e-01,9.81235e-01,9.96857e-01
1.204369197e+00,7.57930e-01,9.99999e-01,9.99999e-01,7.74255e-01,9.81602e-01,9.97262e-01
1.210391043e+00,7.66484e-01,9.99999e-01,9.99999e-01,7.81910e-01,9.81962e-01,9.98277e-01
1.216442998e+00,7.96455e-01,9.99999e-01,9.99999e-01,8.11649e-01,9.82315e-01,9.98944e-01
1.222525213e+00,8.33863e-01,9.99999e-01,9.99999e-01,8.49131e-01,9.82661e-01,9.99344e-01
1.228637839e+00,8.76961e-01,9.99999e-01,9.99999e-01,8.92398e-01,9.83001e-01,9.99694e-01
