#,Wave/freq,Total,N2,O2,H2O,Rayleigh,CIA
4.000000000e-01,3.44395e-01,9.99999e-01,9.99999e-01,9.99879e-01,3.44436e-01,9.99999e-01
4.020000000e-01,3.51746e-01,9.99999e-01,9.99999e-01,9.99925e-01,3.51772e-01,9.99999e-01
4.040100000e-01,3.59095e-01,9.99999e-01,9.99999e-01,9.99968e-01,3.59107e-01,9.99999e-01
4.060300500e-01,3.66442e-01,9.99999e-01,9.99999e-01,9.99992e-01,3.66445e-01,9.99999e-01
4.080602003e-01,3.73783e-01,9.99999e-01,9.99999e-01,9.99997e-01,3.73784e-01,9.99999e-01
4.101005013e-01,3.81121e-01,9.99999e-01,9.99999e-01,9.99999e-01,3.81121e-01,9.99999e-01
4.121510038e-01,3.88450e-01,9.99999e-01,9.99999e-01,9.99995e-01,3.88452e-01,9.99999e-01
4.142117588e-01,3.95762e-01,9.99999e-01,9.99999e-01,9.99965e-01,3.95776e-01,9.99999e-01
4.162828176e-01,4.03029e-01,9.99999e-01,9.99999e-01,9.99850e-01,4.03089e-01,9.99999e-01
4.183642317e-01,4.10352e-01,9.99999e-01,9.99999e-01,9.99911e-01,4.10388e-01,9.99999e-01
4.204560528e-01,4.17649e-01,9.99999e-01,9.99999e-01,9.99945e-01,4.17672e-01,9.99999e-01
4.225583331e-01,4.24929e-01,9.99999e-01,9.99999e-01,9.99979e-01,4.24937e-01,9.99999e-01
4.246711247e-01,4.32174e-01,9.99999e-01,9.99999e-01,9.99983e-01,4.32181e-01,9.99999e-01
4.267944804e-01,4.39392e-01,9.99999e-01,9.99999e-01,9.99975e-01,4.39403e-01,9.99999e-01
4.289284528e-01,4.46590e-01,9.99999e-01,9.99999e-01,9.99981e-01,4.46598e-01,9.99999e-01
4.310730950e-01,4.53762e-01,9.99999e-01,9.99999e-01,9.99991e-01,4.53766e-01,9.99999e-01
4.332284605e-01,4.60903e-01,9.99999e-01,9.99999e-01,9.99997e-01,4.60904e-01,9.99999e-01
4.353946028e-01,4.68009e-01,9.99999e-01,9.99999e-01,9.99998e-01,4.68010e-01,9.99999e-01
4.375715758e-01,4.75074e-01,9.99999e-01,9.99999e-01,9.99984e-01,4.75082e-01,9.99999e-01
4.397594337e-01,4.82053e-01,9.99999e-01,9.99999e-01,9.99866e-01,4.82117e-01,9.99999e-01
4.419582309e-01,4.88785e-01,9.99999e-01,9.99999e-01,9.99323e-01,4.89115e-01,9.99999e-01
4.441680220e-01,4.95819e-01,9.99999e-01,9.99999e-01,9.99485e-01,4.96074e-01,9.99999e-01
4.463888621e-01,5.02719e-01,9.99999e-01,9.99999e-01,9.99460e-01,5.02991e-01,9.99999e-01
4.486208064e-01,5.09695e-01,9.99999e-01,9.99999e-01,9.99666e-01,5.09865e-01,9.99999e-01
4.508639105e-01,5.16613e-01,9.99999e-01,9.99999e-01,9.99843e-01,5.16694e-01,9.99999e-01
4.531182300e-01,5.23445e-01,9.99999e-01,9.99999e-01,9.99938e-01,5.23477e-01,9.99999e-01
4.553838212e-01,5.30190e-01,9.99999e-01,9.99999e-01,9.99957e-01,5.30213e-01,9.99999e-01
4.576607403e-01,5.36889e-01,9.99999e-01,9.99999e-01,9.99980e-01,5.36899e-01,9.99999e-01
4.599490440e-01,5.43528e-01,9.99999e-01,9.99999e-01,9.99985e-01,5.43536e-01,9.99999e-01
4.622487892e-01,5.50119e-01,9.99999e-01,9.99999e-01,9.99997e-01,5.50121e-01,9.99999e-01
4.645600332e-01,5.56648e-01,9.99999e-01,9.99999e-01,9.99989e-01,5.56653e-01,9.99999e-01
4.668828333e-01,5.63042e-01,9.99999e-01,9.99999e-01,9.99839e-01,5.63132e-01,9.99999e-01
4.692172475e-01,5.69363e-01,9.99999e-01,9.99999e-01,9.99661e-01,5.69555e-01,9.99999e-01
4.715633337e-01,5.75796e-01,9.99999e-01,9.99999e-01,9.99778e-01,5.75923e-01,9.99999e-01
4.739211504e-01,5.82112e-01,9.99999e-01,9.99999e-01,9.99788e-01,5.82235e-01,9.99999e-01
4.762907561e-01,5.88425e-01,9.99999e-01,9.99999e-01,9.99890e-01,5.88489e-01,9.99999e-01
4.786722099e-01,5.94658e-01,9.99999e-01,9.99999e-01,9.99954e-01,5.94684e-01,9.99999e-01
4.810655710e-01,6.00812e-01,9.99999e-01,9.99999e-01,9.99986e-01,6.00820e-01,9.99999e-01
4.834708988e-01,6.06816e-01,9.99999e-01,9.99999e-01,9.99866e-01,6.06897e-01,9.99999e-01
4.858882533e-01,6.12767e-01,9.99999e-01,9.99999e-01,9.99761e-01,6.12913e-01,9.99999e-01
4.883176946e-01,6.18744e-01,9.99999e-01,9.99999e-01,9.99798e-01,6.18869e-01,9.99999e-01
4.907592831e-01,6.24650e-01,9.99999e-01,9.99999e-01,9.99819e-01,6.24762e-01,9.99999e-01
4.932130795e-01,6.30513e-01,9.99999e-01,9.99999e-01,9.99871e-01,6.30594e-01,9.99999e-01
4.956791449e-01,6.36321e-01,9.99999e-01,9.99999e-01,9.99931e-01,6.36364e-01,9.99999e-01
4.981575406e-01,6.41851e-01,9.99999e-01,9.99999e-01,9.99657e-01,6.42070e-01,9.99999e-01
5.006483283e-01,6.47132e-01,9.99999e-01,9.99999e-01,9.99107e-01,6.47714e-01,9.99993e-01
5.031515699e-01,6.50343e-01,9.99999e-01,9.99999e-01,9.95528e-01,6.53295e-01,9.99952e-01
5.056673278e-01,6.57226e-01,9.99999e-01,9.99999e-01,9.97646e-01,6.58811e-01,9.99945e-01
5.081956644e-01,6.62273e-01,9.99999e-01,9.99999e-01,9.97033e-01,6.64264e-01,9.99966e-01
5.107366428e-01,6.68310e-01,9.99999e-01,9.99999e-01,9.97998e-01,6.69654e-01,9.99993e-01
5.132903260e-01,6.74208e-01,9.99999e-01,9.99999e-01,9.98858e-01,6.74979e-01,9.99998e-01
5.158567776e-01,6.79912e-01,9.99999e-01,9.99999e-01,9.99518e-01,6.80240e-01,9.99999e-01
5.184360615e-01,6.85305e-01,9.99999e-01,9.99999e-01,9.99806e-01,6.85437e-01,9.99999e-01
5.210282418e-01,6.90519e-01,9.99999e-01,9.99999e-01,9.99926e-01,6.90569e-01,9.99999e-01
5.236333830e-01,6.95434e-01,9.99999e-01,9.99999e-01,9.99708e-01,6.95638e-01,9.99997e-01
5.262515499e-01,7.00513e-01,9.99999e-01,9.99999e-01,9.99817e-01,7.00643e-01,9.99996e-01
5.288828077e-01,7.05464e-01,9.99999e-01,9.99999e-01,9.99831e-01,7.05584e-01,9.99997e-01
5.315272217e-01,7.10357e-01,9.99999e-01,9.99999e-01,9.99853e-01,7.10461e-01,9.99999e-01
5.341848578e-01,7.15205e-01,9.99999e-01,9.99999e-01,9.99902e-01,7.15274e-01,9.99999e-01
5.368557821e-01,7.19778e-01,9.99999e-01,9.99999e-01,9.99657e-01,7.20024e-01,9.99998e-01
5.395400610e-01,7.23803e-01,9.99999e-01,9.99999e-01,9.98757e-01,7.24711e-01,9.99987e-01
5.422377613e-01,7.28165e-01,9.99999e-01,9.99999e-01,9.98424e-01,7.29335e-01,9.99970e-01
5.449489501e-01,7.32789e-01,9.99999e-01,9.99999e-01,9.98520e-01,7.33896e-01,9.99969e-01
5.476736949e-01,7.37427e-01,9.99999e-01,9.99999e-01,9.98703e-01,7.38394e-01,9.99985e-01
5.504120634e-01,7.42129e-01,9.99999e-01,9.99999e-01,9.99058e-01,7.42831e-01,9.99995e-01
5.531641237e-01,7.46852e-01,9.99999e-01,9.99999e-01,9.99526e-01,7.47206e-01,9.99998e-01
5.559299443e-01,7.51348e-01,9.99999e-01,9.99999e-01,9.99771e-01,7.51519e-01,9.99999e-01
5.587095940e-01,7.55663e-01,9.99999e-01,9.99999e-01,9.99855e-01,7.55772e-01,9.99999e-01
5.615031420e-01,7.59841e-01,9.99999e-01,9.99999e-01,9.99839e-01,7.59963e-01,9.99999e-01
5.643106577e-01,7.63953e-01,9.99999e-01,9.99999e-01,9.99814e-01,7.64095e-01,9.99997e-01
5.671322110e-01,7.66419e-01,9.99999e-01,9.99999e-01,9.97743e-01,7.68167e-01,9.99979e-01
5.699678720e-01,7.70339e-01,9.99999e-01,9.99999e-01,9.97676e-01,7.72179e-01,9.99939e-01
5.728177114e-01,7.74190e-01,9.99999e-01,9.99999e-01,9.97547e-01,7.76132e-01,9.99949e-01
5.756818000e-01,7.78254e-01,9.99999e-01,9.99999e-01,9.97755e-01,7.80027e-01,9.99970e-01
5.785602090e-01,7.82328e-01,9.99999e-01,9.99999e-01,9.98047e-01,7.83864e-01,9.99991e-01
5.814530100e-01,7.86092e-01,9.99999e-01,9.99999e-01,9.98033e-01,7.87644e-01,9.99995e-01
5.843602750e-01,7.89486e-01,9.99999e-01,9.99999e-01,9.97635e-01,7.91367e-01,9.99986e-01
5.872820764e-01,7.78922e-01,9.99999e-01,9.99999e-01,9.79874e-01,7.95033e-01,9.99857e-01
5.902184868e-01,7.79061e-01,9.99999e-01,9.99999e-01,9.75857e-01,7.98643e-01,9.99613e-01
5.931695792e-01,7.88151e-01,9.99999e-01,9.99999e-01,9.82855e-01,8.02198e-01,9.99627e-01
5.961354271e-01,7.90420e-01,9.99999e-01,9.99999e-01,9.81247e-01,8.05698e-01,9.99785e-01
5.991161043e-01,7.98005e-01,9.99999e-01,9.99999e-01,9.86299e-01,8.09143e-01,9.99933e-01
6.021116848e-01,8.06204e-01,9.99999e-01,9.99999e-01,9.92215e-01,8.12535e-01,9.99992e-01
6.051222432e-01,8.12656e-01,9.99999e-01,9.99999e-01,9.96055e-01,8.15874e-01,9.99999e-01
6.081478544e-01,8.17763e-01,9.99999e-01,9.99999e-01,9.98294e-01,8.19160e-01,9.99999e-01
6.111885937e-01,8.21803e-01,9.99999e-01,9.99999e-01,9.99280e-01,8.22394e-01,9.99999e-01
6.142445367e-01,8.25310e-01,9.99999e-01,9.99999e-01,9.99677e-01,8.25576e-01,9.99999e-01
6.173157594e-01,8.28560e-01,9.99999e-01,9.99999e-01,9.99821e-01,8.28708e-01,9.99999e-01
6.204023382e-01,8.31663e-01,9.99999e-01,9.99999e-01,9.99848e-01,8.31789e-01,9.99999e-01
6.235043498e-01,8.34253e-01,9.99999e-01,9.99999e-01,9.99320e-01,8.34820e-01,9.99997e-01
6.266218716e-01,8.34834e-01,9.99999e-01,9.99999e-01,9.96480e-01,8.37803e-01,9.99974e-01
6.297549810e-01,8.39609e-01,9.99999e-01,9.99999e-01,9.98707e-01,8.40737e-01,9.99950e-01
6.329037559e-01,8.41443e-01,9.99999e-01,9.99999e-01,9.97456e-01,8.43622e-01,9.99959e-01
6.360682746e-01,8.44597e-01,9.99999e-01,9.99999e-01,9.97821e-01,8.46461e-01,9.99976e-01
6.392486160e-01,8.46853e-01,9.99999e-01,9.99999e-01,9.97184e-01,8.49252e-01,9.99989e-01
6.424448591e-01,8.48743e-01,9.99999e-01,9.99999e-01,9.96198e-01,8.51998e-01,9.99980e-01
6.456570834e-01,8.39637e-01,9.99999e-01,9.99999e-01,9.82482e-01,8.54698e-01,9.99893e-01
6.488853688e-01,8.46253e-01,9.99999e-01,9.99999e-01,9.87321e-01,8.57352e-01,9.99728e-01
6.521297956e-01,8.48671e-01,9.99999e-01,9.99999e-01,9.87089e-01,8.59963e-01,9.99775e-01
6.553904446e-01,8.51216e-01,9.99999e-01,9.99999e-01,9.87048e-01,8.62529e-01,9.99832e-01
6.586673968e-01,8.55457e-01,9.99999e-01,9.99999e-01,9.88962e-01,8.65052e-01,9.99943e-01
6.619607338e-01,8.62174e-01,9.99999e-01,9.99999e-01,9.93833e-01,8.67533e-01,9.99987e-01
6.652705375e-01,8.66743e-01,9.99999e-01,9.99999e-01,9.96294e-01,8.69971e-01,9.99993e-01
6.685968902e-01,8.70994e-01,9.99999e-01,9.99999e-01,9.98425e-01,8.72368e-01,9.99998e-01
6.719398746e-01,8.74027e-01,9.99999e-01,9.99999e-01,9.99202e-01,8.74724e-01,9.99999e-01
6.752995740e-01,8.76670e-01,9.99999e-01,9.99999e-01,9.99577e-01,8.77040e-01,9.99999e-01
6.786760719e-01,8.78759e-01,9.99999e-01,9.99999e-01,9.99367e-01,8.79316e-01,9.99998e-01
6.820694522e-01,8.80590e-01,9.99999e-01,9.99999e-01,9.98913e-01,8.81552e-01,9.99993e-01
6.854797995e-01,8.82513e-01,9.99999e-01,9.99999e-01,9.98611e-01,8.83750e-01,9.99987e-01
6.889071985e-01,8.82861e-01,9.99999e-01,9.99999e-01,9.96587e-01,8.85910e-01,9.99969e-01
6.923517345e-01,8.40244e-01,9.99999e-01,9.99999e-01,9.46433e-01,8.88033e-01,9.99737e-01
6.958134932e-01,8.65138e-01,9.99999e-01,9.99999e-01,9.72500e-01,8.90118e-01,9.99418e-01
6.992925606e-01,8.67738e-01,9.99999e-01,9.99999e-01,9.73127e-01,8.92167e-01,9.99476e-01
7.027890234e-01,8.64530e-01,9.99999e-01,9.99999e-01,9.67226e-01,8.94180e-01,9.99599e-01
7.063029686e-01,8.71172e-01,9.99999e-01,9.99999e-01,9.72311e-01,8.96157e-01,9.99800e-01
7.098344834e-01,8.74116e-01,9.99999e-01,9.99999e-01,9.73408e-01,8.98100e-01,9.99881e-01
7.133836558e-01,8.67719e-01,9.99999e-01,9.99999e-01,9.64347e-01,9.00009e-01,9.99765e-01
7.169505741e-01,6.78625e-01,9.99999e-01,9.99999e-01,7.53838e-01,9.01884e-01,9.98161e-01
7.205353270e-01,7.85752e-01,9.99999e-01,9.99999e-01,8.72285e-01,9.03725e-01,9.96758e-01
7.241380036e-01,7.56194e-01,9.99999e-01,9.99999e-01,8.37424e-01,9.05534e-01,9.97200e-01
7.277586936e-01,7.71565e-01,9.99999e-01,9.99999e-01,8.52337e-01,9.07311e-01,9.97710e-01
7.313974871e-01,7.66284e-01,9.99999e-01,9.99999e-01,8.43850e-01,9.09056e-01,9.98926e-01
7.350544745e-01,8.29312e-01,9.99999e-01,9.99999e-01,9.10900e-01,9.10769e-01,9.99626e-01
7.387297469e-01,8.51595e-01,9.99999e-01,9.99999e-01,9.33462e-01,9.12452e-01,9.99828e-01
7.424233956e-01,8.83825e-01,9.99999e-01,9.99999e-01,9.66903e-01,9.14105e-01,9.99969e-01
7.461355126e-01,8.97195e-01,9.99999e-01,9.99999e-01,9.79766e-01,9.15728e-01,9.99994e-01
7.498661902e-01,9.08660e-01,9.99999e-01,9.99999e-01,9.90559e-01,9.17322e-01,9.99997e-01
7.536155211e-01,9.14606e-01,9.99999e-01,9.99999e-01,9.95341e-01,9.18887e-01,9.99998e-01
7.573835987e-01,9.18216e-01,9.99999e-01,9.99999e-01,9.97601e-01,9.20423e-01,9.99999e-01
7.611705167e-01,9.20557e-01,9.99999e-01,9.99999e-01,9.98507e-01,9.21932e-01,9.99999e-01
7.649763693e-01,9.22549e-01,9.99999e-01,9.99999e-01,9.99063e-01,9.23414e-01,9.99999e-01
7.688012511e-01,9.24264e-01,9.99999e-01,9.99999e-01,9.99346e-01,9.24868e-01,9.99999e-01
7.726452574e-01,9.25797e-01,9.99999e-01,9.99999e-01,9.99461e-01,9.26296e-01,9.99999e-01
7.765084837e-01,9.26982e-01,9.99999e-01,9.99999e-01,9.99228e-01,9.27698e-01,9.99998e-01
7.803910261e-01,9.25972e-01,9.99999e-01,9.99999e-01,9.96663e-01,9.29074e-01,9.99996e-01
7.842929812e-01,9.19616e-01,9.99999e-01,9.99999e-01,9.88403e-01,9.30425e-01,9.99978e-01
7.882144461e-01,9.09687e-01,9.99999e-01,9.99999e-01,9.76478e-01,9.31751e-01,9.99836e-01
7.921555184e-01,9.20775e-01,9.99999e-01,9.99999e-01,9.87119e-01,9.33053e-01,9.99716e-01
7.961162960e-01,9.12641e-01,9.99999e-01,9.99999e-01,9.77048e-01,9.34331e-01,9.99729e-01
8.000968774e-01,9.10693e-01,9.99999e-01,9.99999e-01,9.73672e-01,9.35585e-01,9.99712e-01
8.040973618e-01,9.11918e-01,9.99999e-01,9.99999e-01,9.73634e-01,9.36817e-01,9.99780e-01
8.081178486e-01,8.82870e-01,9.99999e-01,9.99999e-01,9.41408e-01,9.38025e-01,9.99777e-01
8.121584379e-01,7.32420e-01,9.99999e-01,9.99999e-01,7.80479e-01,9.39211e-01,9.99160e-01
8.162192301e-01,7.01913e-01,9.99999e-01,9.99999e-01,7.48778e-01,9.40376e-01,9.96846e-01
8.203003262e-01,8.13745e-01,9.99999e-01,9.99999e-01,8.67492e-01,9.41518e-01,9.96307e-01
8.244018279e-01,7.77281e-01,9.99999e-01,9.99999e-01,8.27009e-01,9.42639e-01,9.97060e-01
8.285238370e-01,7.89766e-01,9.99999e-01,9.99999e-01,8.38783e-01,9.43740e-01,9.97690e-01
8.326664562e-01,7.91385e-01,9.99999e-01,9.99999e-01,8.38405e-01,9.44820e-01,9.99044e-01
8.368297885e-01,8.32960e-01,9.99999e-01,9.99999e-01,8.80810e-01,9.45880e-01,9.99781e-01
8.410139374e-01,8.77891e-01,9.99999e-01,9.99999e-01,9.27219e-01,9.46920e-01,9.99871e-01
8.452190071e-01,9.13374e-01,9.99999e-01,9.99999e-01,9.63607e-01,9.47941e-01,9.99923e-01
8.494451021e-01,9.28588e-01,9.99999e-01,9.99999e-01,9.78609e-01,9.48942e-01,9.99938e-01
8.536923276e-01,9.37870e-01,9.99999e-01,9.99999e-01,9.87345e-01,9.49925e-01,9.99962e-01
8.579607893e-01,9.43428e-01,9.99999e-01,9.99999e-01,9.92161e-01,9.50889e-01,9.99990e-01
8.622505932e-01,9.47102e-01,9.99999e-01,9.99999e-01,9.95027e-01,9.51836e-01,9.99997e-01
8.665618462e-01,9.49818e-01,9.99999e-01,9.99999e-01,9.96908e-01,9.52764e-01,9.99998e-01
8.708946554e-01,9.50290e-01,9.99999e-01,9.99999e-01,9.96451e-01,9.53675e-01,9.99997e-01
8.752491287e-01,9.50040e-01,9.99999e-01,9.99999e-01,9.95259e-01,9.54569e-01,9.99994e-01
8.796253743e-01,9.49143e-01,9.99999e-01,9.99999e-01,9.93417e-01,9.55446e-01,9.99984e-01
8.840235012e-01,9.49085e-01,9.99999e-01,9.99999e-01,9.92493e-01,9.56307e-01,9.99953e-01
8.884436187e-01,9.30742e-01,9.99999e-01,9.99999e-01,9.72535e-01,9.57151e-01,9.99869e-01
8.928858368e-01,7.21320e-01,9.99999e-01,9.99999e-01,7.53523e-01,9.57979e-01,9.99250e-01
8.973502660e-01,5.84799e-01,9.99999e-01,9.99999e-01,6.12281e-01,9.58792e-01,9.96164e-01
9.018370173e-01,7.44369e-01,9.99999e-01,9.99999e-01,7.80416e-01,9.59589e-01,9.93976e-01
9.063462024e-01,7.63376e-01,9.99999e-01,9.99999e-01,7.99105e-01,9.60371e-01,9.94706e-01
9.108779334e-01,6.75652e-01,9.99999e-01,9.99999e-01,7.06857e-01,9.61139e-01,9.94499e-01
9.154323231e-01,6.44361e-01,9.99999e-01,9.99999e-01,6.72950e-01,9.61891e-01,9.95451e-01
9.200094847e-01,7.06152e-01,9.99999e-01,9.99999e-01,7.35438e-01,9.62630e-01,9.97451e-01
9.246095321e-01,6.05102e-01,9.99999e-01,9.99999e-01,6.29968e-01,9.63354e-01,9.97064e-01
9.292325798e-01,6.82999e-02,9.99999e-01,9.99999e-01,7.18583e-02,9.64065e-01,9.85906e-01
9.338787427e-01,2.74202e-02,9.99999e-01,9.99999e-01,2.99179e-02,9.64762e-01,9.49989e-01
9.385481364e-01,2.17487e-01,9.99999e-01,9.99999e-01,2.38333e-01,9.65446e-01,9.45192e-01
9.432408771e-01,1.36576e-01,9.99999e-01,9.99999e-01,1.48410e-01,9.66117e-01,9.52534e-01
9.479570815e-01,6.19901e-02,9.99999e-01,9.99999e-01,6.67091e-02,9.66775e-01,9.61195e-01
9.526968669e-01,1.14147e-01,9.99999e-01,9.99999e-01,1.20874e-01,9.67420e-01,9.76149e-01
9.574603512e-01,1.26297e-01,9.99999e-01,9.99999e-01,1.32074e-01,9.68053e-01,9.87812e-01
9.622476530e-01,1.77791e-01,9.99999e-01,9.99999e-01,1.85104e-01,9.68674e-01,9.91556e-01
9.670588912e-01,3.57323e-01,9.99999e-01,9.99999e-01,3.70700e-01,9.69284e-01,9.94459e-01
9.718941857e-01,5.01618e-01,9.99999e-01,9.99999e-01,5.19400e-01,9.69881e-01,9.95754e-01
9.767536566e-01,5.60540e-01,9.99999e-01,9.99999e-01,5.79485e-01,9.70467e-01,9.96742e-01
9.816374249e-01,6.45311e-01,9.99999e-01,9.99999e-01,6.65305e-01,9.71042e-01,9.98871e-01
9.865456120e-01,7.51846e-01,9.99999e-01,9.99999e-01,7.73999e-01,9.71606e-01,9.99764e-01
9.914783401e-01,8.29016e-01,9.99999e-01,9.99999e-01,8.52813e-01,9.72159e-01,9.99934e-01
9.964357318e-01,8.91851e-01,9.99999e-01,9.99999e-01,9.16915e-01,9.72701e-01,9.99961e-01
1.001417910e+00,9.23848e-01,9.99999e-01,9.99999e-01,9.49311e-01,9.73233e-01,9.99941e-01
1.006425000e+00,9.45132e-01,9.99999e-01,9.99999e-01,9.70685e-01,9.73755e-01,9.99916e-01
1.011457125e+00,9.56423e-01,9.99999e-01,9.99999e-01,9.81760e-01,9.74266e-01,9.99922e-01
1.016514411e+00,9.62589e-01,9.99999e-01,9.99999e-01,9.87558e-01,9.74768e-01,9.99945e-01
1.021596983e+00,9.65521e-01,9.99999e-01,9.99999e-01,9.90066e-01,9.75260e-01,9.99946e-01
1.026704968e+00,9.68139e-01,9.99999e-01,9.99999e-01,9.92239e-01,9.75743e-01,9.99966e-01
1.031838492e+00,9.70709e-01,9.99999e-01,9.99999e-01,9.94368e-01,9.76216e-01,9.99989e-01
1.036997685e+00,9.73401e-01,9.99999e-01,9.99999e-01,9.96642e-01,9.76680e-01,9.99997e-01
1.042182673e+00,9.73209e-01,9.99999e-01,9.99999e-01,9.95981e-01,9.77136e-01,9.99998e-01
1.047393587e+00,9.72386e-01,9.99999e-01,9.99999e-01,9.94685e-01,9.77582e-01,9.99998e-01
1.052630555e+00,9.70882e-01,9.99999e-01,9.99999e-01,9.92702e-01,9.78020e-01,9.99997e-01
1.057893707e+00,9.66535e-01,9.99999e-01,9.99999e-01,9.87826e-01,9.78450e-01,9.99995e-01
1.063183176e+00,9.59362e-01,9.99999e-01,9.99999e-01,9.80079e-01,9.78871e-01,9.99989e-01
1.068499092e+00,9.46891e-01,9.99999e-01,9.99999e-01,9.66943e-01,9.79284e-01,9.99976e-01
1.073841587e+00,9.41848e-01,9.99999e-01,9.99999e-01,9.61422e-01,9.79689e-01,9.99950e-01
1.079210795e+00,9.31891e-01,9.99999e-01,9.99999e-01,9.50953e-01,9.80086e-01,9.99865e-01
1.084606849e+00,9.08303e-01,9.99999e-01,9.99999e-01,9.26689e-01,9.80475e-01,9.99676e-01
1.090029883e+00,8.78353e-01,9.99999e-01,9.99999e-01,8.96094e-01,9.80857e-01,9.99330e-01
1.095480033e+00,7.27906e-01,9.99999e-01,9.99999e-01,7.42727e-01,9.81232e-01,9.98789e-01
1.100957433e+00,4.67929e-01,9.99999e-01,9.99999e-01,4.77764e-01,9.81599e-01,9.97773e-01
1.106462220e+00,1.69723e-01,9.99999e-01,9.99999e-01,1.73496e-01,9.81959e-01,9.96226e-01
1.111994531e+00,2.82659e-02,9.99999e-01,9.99999e-01,2.90651e-02,9.82312e-01,9.90013e-01
1.117554504e+00,4.32601e-03,9.99999e-01,9.99999e-01,4.56479e-03,9.82659e-01,9.64413e-01
1.123142276e+00,2.50898e-02,9.99999e-01,9.99999e-01,2.78139e-02,9.82998e-01,9.17659e-01
1.128757988e+00,6.37951e-02,9.99999e-01,9.99999e-01,7.16569e-02,9.83331e-01,9.05374e-01
1.134401778e+00,3.19609e-02,9.99999e-01,9.99999e-01,3.53576e-02,9.83658e-01,9.18947e-01
1.140073787e+00,1.70682e-01,9.99999e-01,9.99999e-01,1.85580e-01,9.83978e-01,9.34694e-01
1.145774156e+00,4.13063e-02,9.99999e-01,9.99999e-01,4.46416e-02,9.84292e-01,9.40053e-01
1.151503026e+00,2.91891e-02,9.99999e-01,9.99999e-01,3.06843e-02,9.84600e-01,9.66148e-01
1.157260541e+00,3.84543e-02,9.99999e-01,9.99999e-01,3.94479e-02,9.84902e-01,9.89755e-01
1.163046844e+00,8.82094e-02,9.99999e-01,9.99999e-01,8.97963e-02,9.85198e-01,9.97085e-01
1.168862078e+00,1.70653e-01,9.99999e-01,9.99999e-01,1.73429e-01,9.85488e-01,9.98480e-01
1.174706389e+00,3.30259e-01,9.99999e-01,9.99999e-01,3.35728e-01,9.85772e-01,9.97907e-01
1.180579921e+00,5.02101e-01,9.99999e-01,9.99999e-01,5.10740e-01,9.86051e-01,9.96990e-01
1.186482820e+00,6.68536e-01,9.99999e-01,9.99999e-01,6.79904e-01,9.86325e-01,9.96911e-01
1.192415234e+00,7.84630e-01,9.99999e-01,9.99999e-01,7.97136e-01,9.86593e-01,9.97686e-01
1.198377311e+00,8.13257e-01,9.99999e-01,9.99999e-01,8.25901e-01,9.86856e-01,9.97803e-01
1.204369197e+00,8.23177e-01,9.99999e-01,9.99999e-01,8.35520e-01,9.87114e-01,9.98086e-01
1.210391043e+00,8.29950e-01,9.99999e-01,9.99999e-01,8.41581e-01,9.87367e-01,9.98796e-01
1.216442998e+00,8.52523e-01,9.99999e-01,9.99999e-01,8.63850e-01,9.87615e-01,9.99262e-01
1.222525213e+00,8.80613e-01,9.99999e-01,9.99999e-01,8.91844e-01,9.87858e-01,9.99541e-01
1.228637839e+00,9.12280e-01,9.99999e-01,9.99999e-01,9.23466e-01,9.88097e-01,9.99786e-01
