#,Wave/freq,Total,N2,O2,H2O,Rayleigh,CIA
4.000000000e-01,8.50185e-01,9.99999e-01,9.99999e-01,9.99981e-01,8.50201e-01,9.99999e-01
4.020000000e-01,8.52924e-01,9.99999e-01,9.99999e-01,9.99988e-01,8.52933e-01,9.99999e-01
4.040100000e-01,8.55614e-01,9.99999e-01,9.99999e-01,9.99994e-01,8.55618e-01,9.99999e-01
4.060300500e-01,8.58256e-01,9.99999e-01,9.99999e-01,9.99998e-01,8.58257e-01,9.99999e-01
4.080602003e-01,8.60852e-01,9.99999e-01,9.99999e-01,9.99999e-01,8.60852e-01,9.99999e-01
4.101005013e-01,8.63404e-01,9.99999e-01,9.99999e-01,9.99999e-01,8.63404e-01,9.99999e-01
4.121510038e-01,8.65912e-01,9.99999e-01,9.99999e-01,9.99998e-01,8.65912e-01,9.99999e-01
4.142117588e-01,8.68374e-01,9.99999e-01,9.99999e-01,9.99994e-01,8.68378e-01,9.99999e-01
4.162828176e-01,8.70782e-01,9.99999e-01,9.99999e-01,9.99976e-01,8.70802e-01,9.99999e-01
4.183642317e-01,8.73173e-01,9.99999e-01,9.99999e-01,9.99986e-01,8.73185e-01,9.99999e-01
4.204560528e-01,8.75520e-01,9.99999e-01,9.99999e-01,9.99991e-01,8.75527e-01,9.99999e-01
4.225583331e-01,8.77826e-01,9.99999e-01,9.99999e-01,9.99996e-01,8.77829e-01,9.99999e-01
4.246711247e-01,8.80089e-01,9.99999e-01,9.99999e-01,9.99997e-01,8.80091e-01,9.99999e-01
4.267944804e-01,8.82311e-01,9.99999e-01,9.99999e-01,9.99995e-01,8.82314e-01,9.99999e-01
4.289284528e-01,8.84497e-01,9.99999e-01,9.99999e-01,9.99996e-01,8.84499e-01,9.99999e-01
4.310730950e-01,8.86645e-01,9.99999e-01,9.99999e-01,9.99998e-01,8.86646e-01,9.99999e-01
4.332284605e-01,8.88755e-01,9.99999e-01,9.99999e-01,9.99999e-01,8.88755e-01,9.99999e-01
4.353946028e-01,8.90828e-01,9.99999e-01,9.99999e-01,9.99999e-01,8.90828e-01,9.99999e-01
4.375715758e-01,8.92863e-01,9.99999e-01,9.99999e-01,9.99997e-01,8.92865e-01,9.99999e-01
4.397594337e-01,8.94848e-01,9.99999e-01,9.99999e-01,9.99979e-01,8.94865e-01,9.99999e-01
4.419582309e-01,8.96741e-01,9.99999e-01,9.99999e-01,9.99899e-01,8.96831e-01,9.99999e-01
4.441680220e-01,8.98691e-01,9.99999e-01,9.99999e-01,9.99920e-01,8.98762e-01,9.99999e-01
4.463888621e-01,9.00585e-01,9.99999e-01,9.99999e-01,9.99917e-01,9.00659e-01,9.99999e-01
4.486208064e-01,9.02476e-01,9.99999e-01,9.99999e-01,9.99948e-01,9.02522e-01,9.99999e-01
4.508639105e-01,9.04331e-01,9.99999e-01,9.99999e-01,9.99975e-01,9.04352e-01,9.99999e-01
4.531182300e-01,9.06141e-01,9.99999e-01,9.99999e-01,9.99990e-01,9.06150e-01,9.99999e-01
4.553838212e-01,9.07910e-01,9.99999e-01,9.99999e-01,9.99993e-01,9.07916e-01,9.99999e-01
4.576607403e-01,9.09647e-01,9.99999e-01,9.99999e-01,9.99996e-01,9.09650e-01,9.99999e-01
4.599490440e-01,9.11351e-01,9.99999e-01,9.99999e-01,9.99997e-01,9.11353e-01,9.99999e-01
4.622487892e-01,9.13025e-01,9.99999e-01,9.99999e-01,9.99999e-01,9.13025e-01,9.99999e-01
4.645600332e-01,9.14666e-01,9.99999e-01,9.99999e-01,9.99998e-01,9.14668e-01,9.99999e-01
4.668828333e-01,9.16259e-01,9.99999e-01,9.99999e-01,9.99975e-01,9.16281e-01,9.99999e-01
4.692172475e-01,9.17817e-01,9.99999e-01,9.99999e-01,9.99947e-01,9.17864e-01,9.99999e-01
4.715633337e-01,9.19389e-01,9.99999e-01,9.99999e-01,9.99965e-01,9.19420e-01,9.99999e-01
4.739211504e-01,9.20917e-01,9.99999e-01,9.99999e-01,9.99967e-01,9.20947e-01,9.99999e-01
4.762907561e-01,9.22430e-01,9.99999e-01,9.99999e-01,9.99982e-01,9.22446e-01,9.99999e-01
4.786722099e-01,9.23912e-01,9.99999e-01,9.99999e-01,9.99992e-01,9.23918e-01,9.99999e-01
4.810655710e-01,9.25361e-01,9.99999e-01,9.99999e-01,9.99997e-01,9.25363e-01,9.99999e-01
4.834708988e-01,9.26764e-01,9.99999e-01,9.99999e-01,9.99979e-01,9.26782e-01,9.99999e-01
4.858882533e-01,9.28141e-01,9.99999e-01,9.99999e-01,9.99962e-01,9.28175e-01,9.99999e-01
4.883176946e-01,9.29514e-01,9.99999e-01,9.99999e-01,9.99969e-01,9.29542e-01,9.99999e-01
4.907592831e-01,9.30859e-01,9.99999e-01,9.99999e-01,9.99971e-01,9.30885e-01,9.99999e-01
4.932130795e-01,9.32184e-01,9.99999e-01,9.99999e-01,9.99979e-01,9.32203e-01,9.99999e-01
4.956791449e-01,9.33487e-01,9.99999e-01,9.99999e-01,9.99989e-01,9.33496e-01,9.99999e-01
4.981575406e-01,9.34718e-01,9.99999e-01,9.99999e-01,9.99947e-01,9.34766e-01,9.99999e-01
5.006483283e-01,9.35887e-01,9.99999e-01,9.99999e-01,9.99865e-01,9.36012e-01,9.99998e-01
5.031515699e-01,9.36592e-01,9.99999e-01,9.99999e-01,9.99319e-01,9.37236e-01,9.99992e-01
5.056673278e-01,9.38092e-01,9.99999e-01,9.99999e-01,9.99640e-01,9.38437e-01,9.99991e-01
5.081956644e-01,9.39184e-01,9.99999e-01,9.99999e-01,9.99546e-01,9.39615e-01,9.99994e-01
5.107366428e-01,9.40483e-01,9.99999e-01,9.99999e-01,9.99693e-01,9.40772e-01,9.99998e-01
5.132903260e-01,9.41742e-01,9.99999e-01,9.99999e-01,9.99824e-01,9.41907e-01,9.99999e-01
5.158567776e-01,9.42951e-01,9.99999e-01,9.99999e-01,9.99925e-01,9.43021e-01,9.99999e-01
5.184360615e-01,9.44087e-01,9.99999e-01,9.99999e-01,9.99969e-01,9.44115e-01,9.99999e-01
5.210282418e-01,9.45177e-01,9.99999e-01,9.99999e-01,9.99988e-01,9.45188e-01,9.99999e-01
5.236333830e-01,9.46198e-01,9.99999e-01,9.99999e-01,9.99955e-01,9.46241e-01,9.99999e-01
5.262515499e-01,9.47247e-01,9.99999e-01,9.99999e-01,9.99971e-01,9.47274e-01,9.99999e-01
5.288828077e-01,9.48264e-01,9.99999e-01,9.99999e-01,9.99974e-01,9.48288e-01,9.99999e-01
5.315272217e-01,9.49262e-01,9.99999e-01,9.99999e-01,9.99977e-01,9.49283e-01,9.99999e-01
5.341848578e-01,9.50246e-01,9.99999e-01,9.99999e-01,9.99984e-01,9.50259e-01,9.99999e-01
5.368557821e-01,9.51169e-01,9.99999e-01,9.99999e-01,9.99948e-01,9.51218e-01,9.99999e-01
5.395400610e-01,9.51980e-01,9.99999e-01,9.99999e-01,9.99814e-01,9.52158e-01,9.99997e-01
5.422377613e-01,9.52846e-01,9.99999e-01,9.99999e-01,9.99758e-01,9.53080e-01,9.99995e-01
5.449489501e-01,9.53768e-01,9.99999e-01,9.99999e-01,9.99775e-01,9.53985e-01,9.99994e-01
5.476736949e-01,9.54681e-01,9.99999e-01,9.99999e-01,9.99800e-01,9.54873e-01,9.99997e-01
5.504120634e-01,9.55606e-01,9.99999e-01,9.99999e-01,9.99855e-01,9.55745e-01,9.99998e-01
5.531641237e-01,9.56530e-01,9.99999e-01,9.99999e-01,9.99926e-01,9.56600e-01,9.99999e-01
5.559299443e-01,9.57405e-01,9.99999e-01,9.99999e-01,9.99964e-01,9.57438e-01,9.99999e-01
5.587095940e-01,9.58240e-01,9.99999e-01,9.99999e-01,9.99977e-01,9.58261e-01,9.99999e-01
5.615031420e-01,9.59045e-01,9.99999e-01,9.99999e-01,9.99975e-01,9.59068e-01,9.99999e-01
5.643106577e-01,9.59834e-01,9.99999e-01,9.99999e-01,9.99972e-01,9.59860e-01,9.99999e-01
5.671322110e-01,9.60314e-01,9.99999e-01,9.99999e-01,9.99665e-01,9.60638e-01,9.99996e-01
5.699678720e-01,9.61046e-01,9.99999e-01,9.99999e-01,9.99640e-01,9.61400e-01,9.99990e-01
5.728177114e-01,9.61782e-01,9.99999e-01,9.99999e-01,9.99627e-01,9.62148e-01,9.99991e-01
5.756818000e-01,9.62547e-01,9.99999e-01,9.99999e-01,9.99657e-01,9.62881e-01,9.99994e-01
5.785602090e-01,9.63312e-01,9.99999e-01,9.99999e-01,9.99701e-01,9.63601e-01,9.99998e-01
5.814530100e-01,9.64018e-01,9.99999e-01,9.99999e-01,9.99700e-01,9.64307e-01,9.99998e-01
5.843602750e-01,9.64654e-01,9.99999e-01,9.99999e-01,9.99643e-01,9.64999e-01,9.99997e-01
5.872820764e-01,9.62695e-01,9.99999e-01,9.99999e-01,9.96931e-01,9.65679e-01,9.99977e-01
5.902184868e-01,9.62684e-01,9.99999e-01,9.99999e-01,9.96269e-01,9.66345e-01,9.99940e-01
5.931695792e-01,9.64398e-01,9.99999e-01,9.99999e-01,9.97366e-01,9.66999e-01,9.99942e-01
5.961354271e-01,9.64814e-01,9.99999e-01,9.99999e-01,9.97111e-01,9.67640e-01,9.99966e-01
5.991161043e-01,9.66218e-01,9.99999e-01,9.99999e-01,9.97891e-01,9.68269e-01,9.99989e-01
6.021116848e-01,9.67725e-01,9.99999e-01,9.99999e-01,9.98802e-01,9.68886e-01,9.99998e-01
6.051222432e-01,9.68904e-01,9.99999e-01,9.99999e-01,9.99393e-01,9.69491e-01,9.99999e-01
6.081478544e-01,9.69831e-01,9.99999e-01,9.99999e-01,9.99738e-01,9.70084e-01,9.99999e-01
6.111885937e-01,9.70559e-01,9.99999e-01,9.99999e-01,9.99888e-01,9.70666e-01,9.99999e-01
6.142445367e-01,9.71190e-01,9.99999e-01,9.99999e-01,9.99950e-01,9.71237e-01,9.99999e-01
6.173157594e-01,9.71771e-01,9.99999e-01,9.99999e-01,9.99972e-01,9.71797e-01,9.99999e-01
6.204023382e-01,9.72324e-01,9.99999e-01,9.99999e-01,9.99976e-01,9.72347e-01,9.99999e-01
6.235043498e-01,9.72787e-01,9.99999e-01,9.99999e-01,9.99898e-01,9.72885e-01,9.99999e-01
6.266218716e-01,9.72888e-01,9.99999e-01,9.99999e-01,9.99463e-01,9.73414e-01,9.99995e-01
6.297549810e-01,9.73733e-01,9.99999e-01,9.99999e-01,9.99802e-01,9.73932e-01,9.99991e-01
6.329037559e-01,9.74055e-01,9.99999e-01,9.99999e-01,9.99610e-01,9.74440e-01,9.99993e-01
6.360682746e-01,9.74613e-01,9.99999e-01,9.99999e-01,9.99668e-01,9.74939e-01,9.99995e-01
6.392486160e-01,9.75008e-01,9.99999e-01,9.99999e-01,9.99570e-01,9.75428e-01,9.99997e-01
6.424448591e-01,9.75346e-01,9.99999e-01,9.99999e-01,9.99427e-01,9.75907e-01,9.99996e-01
6.456570834e-01,9.73769e-01,9.99999e-01,9.99999e-01,9.97342e-01,9.76377e-01,9.99984e-01
6.488853688e-01,9.74889e-01,9.99999e-01,9.99999e-01,9.98045e-01,9.76838e-01,9.99958e-01
6.521297956e-01,9.75310e-01,9.99999e-01,9.99999e-01,9.98007e-01,9.77291e-01,9.99964e-01
6.553904446e-01,9.75783e-01,9.99999e-01,9.99999e-01,9.98029e-01,9.77734e-01,9.99973e-01
6.586673968e-01,9.76500e-01,9.99999e-01,9.99999e-01,9.98301e-01,9.78169e-01,9.99991e-01
6.619607338e-01,9.77633e-01,9.99999e-01,9.99999e-01,9.99017e-01,9.78596e-01,9.99997e-01
6.652705375e-01,9.78456e-01,9.99999e-01,9.99999e-01,9.99430e-01,9.79014e-01,9.99998e-01
6.685968902e-01,9.79165e-01,9.99999e-01,9.99999e-01,9.99735e-01,9.79424e-01,9.99999e-01
6.719398746e-01,9.79707e-01,9.99999e-01,9.99999e-01,9.99877e-01,9.79826e-01,9.99999e-01
6.752995740e-01,9.80156e-01,9.99999e-01,9.99999e-01,9.99933e-01,9.80221e-01,9.99999e-01
6.786760719e-01,9.80514e-01,9.99999e-01,9.99999e-01,9.99904e-01,9.80608e-01,9.99999e-01
6.820694522e-01,9.80826e-01,9.99999e-01,9.99999e-01,9.99836e-01,9.80987e-01,9.99998e-01
6.854797995e-01,9.81151e-01,9.99999e-01,9.99999e-01,9.99788e-01,9.81359e-01,9.99997e-01
6.889071985e-01,9.81222e-01,9.99999e-01,9.99999e-01,9.99492e-01,9.81724e-01,9.99994e-01
6.923517345e-01,9.73888e-01,9.99999e-01,9.99999e-01,9.91695e-01,9.82082e-01,9.99959e-01
6.958134932e-01,9.78059e-01,9.99999e-01,9.99999e-01,9.95637e-01,9.82432e-01,9.99909e-01
6.992925606e-01,9.78661e-01,9.99999e-01,9.99999e-01,9.95890e-01,9.82776e-01,9.99920e-01
7.027890234e-01,9.78052e-01,9.99999e-01,9.99999e-01,9.94910e-01,9.83114e-01,9.99938e-01
7.063029686e-01,9.79209e-01,9.99999e-01,9.99999e-01,9.95722e-01,9.83445e-01,9.99969e-01
7.098344834e-01,9.79714e-01,9.99999e-01,9.99999e-01,9.95895e-01,9.83769e-01,9.99981e-01
7.133836558e-01,9.78698e-01,9.99999e-01,9.99999e-01,9.94559e-01,9.84087e-01,9.99963e-01
7.169505741e-01,9.41644e-01,9.99999e-01,9.99999e-01,9.56835e-01,9.84399e-01,9.99719e-01
7.205353270e-01,9.63058e-01,9.99999e-01,9.99999e-01,9.78500e-01,9.84704e-01,9.99505e-01
7.241380036e-01,9.57946e-01,9.99999e-01,9.99999e-01,9.72944e-01,9.85004e-01,9.99572e-01
7.277586936e-01,9.60867e-01,9.99999e-01,9.99999e-01,9.75543e-01,9.85298e-01,9.99650e-01
7.313974871e-01,9.59763e-01,9.99999e-01,9.99999e-01,9.73957e-01,9.85587e-01,9.99836e-01
7.350544745e-01,9.71728e-01,9.99999e-01,9.99999e-01,9.85711e-01,9.85869e-01,9.99942e-01
7.387297469e-01,9.75735e-01,9.99999e-01,9.99999e-01,9.89467e-01,9.86146e-01,9.99973e-01
7.424233956e-01,9.81315e-01,9.99999e-01,9.99999e-01,9.94831e-01,9.86418e-01,9.99994e-01
7.461355126e-01,9.83593e-01,9.99999e-01,9.99999e-01,9.96867e-01,9.86685e-01,9.99998e-01
7.498661902e-01,9.85504e-01,9.99999e-01,9.99999e-01,9.98538e-01,9.86946e-01,9.99999e-01
7.536155211e-01,9.86495e-01,9.99999e-01,9.99999e-01,9.99283e-01,9.87202e-01,9.99999e-01
7.573835987e-01,9.87089e-01,9.99999e-01,9.99999e-01,9.99631e-01,9.87453e-01,9.99999e-01
7.611705167e-01,9.87473e-01,9.99999e-01,9.99999e-01,9.99770e-01,9.87700e-01,9.99999e-01
7.649763693e-01,9.87799e-01,9.99999e-01,9.99999e-01,9.99856e-01,9.87941e-01,9.99999e-01
7.688012511e-01,9.88079e-01,9.99999e-01,9.99999e-01,9.99899e-01,9.88178e-01,9.99999e-01
7.726452574e-01,9.88329e-01,9.99999e-01,9.99999e-01,9.99917e-01,9.88410e-01,9.99999e-01
7.765084837e-01,9.88522e-01,9.99999e-01,9.99999e-01,9.99883e-01,9.88637e-01,9.99999e-01
7.803910261e-01,9.88364e-01,9.99999e-01,9.99999e-01,9.99497e-01,9.88861e-01,9.99999e-01
7.842929812e-01,9.87343e-01,9.99999e-01,9.99999e-01,9.98246e-01,9.89079e-01,9.99996e-01
7.882144461e-01,9.85689e-01,9.99999e-01,9.99999e-01,9.96377e-01,9.89294e-01,9.99977e-01
7.921555184e-01,9.87491e-01,9.99999e-01,9.99999e-01,9.98007e-01,9.89504e-01,9.99956e-01
7.961162960e-01,9.86204e-01,9.99999e-01,9.99999e-01,9.96497e-01,9.89711e-01,9.99958e-01
8.000968774e-01,9.85857e-01,9.99999e-01,9.99999e-01,9.95945e-01,9.89913e-01,9.99955e-01
8.040973618e-01,9.86064e-01,9.99999e-01,9.99999e-01,9.95946e-01,9.90111e-01,9.99964e-01
8.081178486e-01,9.81266e-01,9.99999e-01,9.99999e-01,9.90903e-01,9.90305e-01,9.99966e-01
8.121584379e-01,9.53259e-01,9.99999e-01,9.99999e-01,9.62528e-01,9.90496e-01,9.99871e-01
8.162192301e-01,9.46112e-01,9.99999e-01,9.99999e-01,9.55469e-01,9.90683e-01,9.99518e-01
8.203003262e-01,9.68212e-01,9.99999e-01,9.99999e-01,9.77687e-01,9.90866e-01,9.99436e-01
8.244018279e-01,9.59492e-01,9.99999e-01,9.99999e-01,9.68594e-01,9.91046e-01,9.99551e-01
8.285238370e-01,9.64397e-01,9.99999e-01,9.99999e-01,9.73279e-01,9.91222e-01,9.99647e-01
8.326664562e-01,9.64428e-01,9.99999e-01,9.99999e-01,9.72940e-01,9.91394e-01,9.99853e-01
8.368297885e-01,9.72298e-01,9.99999e-01,9.99999e-01,9.80602e-01,9.91563e-01,9.99966e-01
8.410139374e-01,9.80240e-01,9.99999e-01,9.99999e-01,9.88433e-01,9.91729e-01,9.99980e-01
8.452190071e-01,9.86239e-01,9.99999e-01,9.99999e-01,9.94312e-01,9.91892e-01,9.99987e-01
8.494451021e-01,9.88772e-01,9.99999e-01,9.99999e-01,9.96702e-01,9.92052e-01,9.99990e-01
8.536923276e-01,9.90264e-01,9.99999e-01,9.99999e-01,9.98046e-01,9.92208e-01,9.99993e-01
8.579607893e-01,9.91168e-01,9.99999e-01,9.99999e-01,9.98798e-01,9.92361e-01,9.99998e-01
8.622505932e-01,9.91753e-01,9.99999e-01,9.99999e-01,9.99235e-01,9.92512e-01,9.99999e-01
8.665618462e-01,9.92190e-01,9.99999e-01,9.99999e-01,9.99527e-01,9.92659e-01,9.99999e-01
8.708946554e-01,9.92267e-01,9.99999e-01,9.99999e-01,9.99459e-01,9.92803e-01,9.99999e-01
8.752491287e-01,9.92227e-01,9.99999e-01,9.99999e-01,9.99277e-01,9.92945e-01,9.99998e-01
8.796253743e-01,9.92090e-01,9.99999e-01,9.99999e-01,9.99000e-01,9.93084e-01,9.99997e-01
8.840235012e-01,9.92079e-01,9.99999e-01,9.99999e-01,9.98857e-01,9.93220e-01,9.99992e-01
8.884436187e-01,9.89226e-01,9.99999e-01,9.99999e-01,9.95864e-01,9.93353e-01,9.99979e-01
8.928858368e-01,9.50627e-01,9.99999e-01,9.99999e-01,9.56970e-01,9.93484e-01,9.99885e-01
8.973502660e-01,9.18350e-01,9.99999e-01,9.99999e-01,9.24794e-01,9.93613e-01,9.99414e-01
9.018370173e-01,9.53866e-01,9.99999e-01,9.99999e-01,9.60759e-01,9.93738e-01,9.99079e-01
9.063462024e-01,9.58923e-01,9.99999e-01,9.99999e-01,9.65625e-01,9.93862e-01,9.99191e-01
9.108779334e-01,9.40301e-01,9.99999e-01,9.99999e-01,9.46787e-01,9.93982e-01,9.99160e-01
9.154323231e-01,9.33552e-01,9.99999e-01,9.99999e-01,9.39743e-01,9.94101e-01,9.99305e-01
9.200094847e-01,9.46556e-01,9.99999e-01,9.99999e-01,9.52430e-01,9.94217e-01,9.99611e-01
9.246095321e-01,9.21339e-01,9.99999e-01,9.99999e-01,9.27006e-01,9.94331e-01,9.99551e-01
9.292325798e-01,5.96399e-01,9.99999e-01,9.99999e-01,6.00779e-01,9.94443e-01,9.98255e-01
9.338787427e-01,5.10395e-01,9.99999e-01,9.99999e-01,5.16907e-01,9.94552e-01,9.92808e-01
9.385481364e-01,7.55641e-01,9.99999e-01,9.99999e-01,7.66247e-01,9.94659e-01,9.91452e-01
9.432408771e-01,6.82599e-01,9.99999e-01,9.99999e-01,6.91291e-01,9.94765e-01,9.92621e-01
9.479570815e-01,5.94485e-01,9.99999e-01,9.99999e-01,6.01163e-01,9.94868e-01,9.93990e-01
9.526968669e-01,6.76050e-01,9.99999e-01,9.99999e-01,6.81971e-01,9.94969e-01,9.96330e-01
9.574603512e-01,6.98839e-01,9.99999e-01,9.99999e-01,7.03615e-01,9.95068e-01,9.98133e-01
9.622476530e-01,7.46417e-01,9.99999e-01,9.99999e-01,7.51011e-01,9.95165e-01,9.98709e-01
9.670588912e-01,8.43229e-01,9.99999e-01,9.99999e-01,8.47992e-01,9.95260e-01,9.99116e-01
9.718941857e-01,8.97400e-01,9.99999e-01,9.99999e-01,9.02174e-01,9.95354e-01,9.99349e-01
9.767536566e-01,9.13478e-01,9.99999e-01,9.99999e-01,9.18113e-01,9.95445e-01,9.99502e-01
9.816374249e-01,9.34257e-01,9.99999e-01,9.99999e-01,9.38607e-01,9.95535e-01,9.99827e-01
9.865456120e-01,9.56955e-01,9.99999e-01,9.99999e-01,9.61196e-01,9.95623e-01,9.99963e-01
9.914783401e-01,9.71652e-01,9.99999e-01,9.99999e-01,9.75848e-01,9.95709e-01,9.99989e-01
9.964357318e-01,9.82620e-01,9.99999e-01,9.99999e-01,9.86775e-01,9.95794e-01,9.99993e-01
1.001417910e+00,9.87955e-01,9.99999e-01,9.99999e-01,9.92054e-01,9.95877e-01,9.99990e-01
1.006425000e+00,9.91432e-01,9.99999e-01,9.99999e-01,9.95467e-01,9.95958e-01,9.99986e-01
1.011457125e+00,9.93220e-01,9.99999e-01,9.99999e-01,9.97181e-01,9.96038e-01,9.99987e-01
1.016514411e+00,9.94203e-01,9.99999e-01,9.99999e-01,9.98087e-01,9.96116e-01,9.99991e-01
1.021596983e+00,9.94666e-01,9.99999e-01,9.99999e-01,9.98476e-01,9.96192e-01,9.99991e-01
1.026704968e+00,9.95078e-01,9.99999e-01,9.99999e-01,9.98811e-01,9.96267e-01,9.99993e-01
1.031838492e+00,9.95478e-01,9.99999e-01,9.99999e-01,9.99135e-01,9.96341e-01,9.99997e-01
1.036997685e+00,9.95902e-01,9.99999e-01,9.99999e-01,9.99486e-01,9.96413e-01,9.99999e-01
1.042182673e+00,9.95875e-01,9.99999e-01,9.99999e-01,9.99389e-01,9.96484e-01,9.99999e-01
1.047393587e+00,9.95745e-01,9.99999e-01,9.99999e-01,9.99189e-01,9.96553e-01,9.99999e-01
1.052630555e+00,9.95513e-01,9.99999e-01,9.99999e-01,9.98888e-01,9.96621e-01,9.99999e-01
1.057893707e+00,9.94839e-01,9.99999e-01,9.99999e-01,9.98145e-01,9.96688e-01,9.99998e-01
1.063183176e+00,9.93710e-01,9.99999e-01,9.99999e-01,9.96948e-01,9.96753e-01,9.99997e-01
1.068499092e+00,9.91721e-01,9.99999e-01,9.99999e-01,9.94890e-01,9.96817e-01,9.99996e-01
1.073841587e+00,9.90918e-01,9.99999e-01,9.99999e-01,9.94026e-01,9.96880e-01,9.99991e-01
1.079210795e+00,9.89285e-01,9.99999e-01,9.99999e-01,9.92340e-01,9.96941e-01,9.99979e-01
1.084606849e+00,9.85420e-01,9.99999e-01,9.99999e-01,9.88432e-01,9.97002e-01,9.99950e-01
1.090029883e+00,9.80466e-01,9.99999e-01,9.99999e-01,9.83455e-01,9.97061e-01,9.99897e-01
1.095480033e+00,9.52590e-01,9.99999e-01,9.99999e-01,9.55518e-01,9.97119e-01,9.99815e-01
1.100957433e+00,8.87954e-01,9.99999e-01,9.99999e-01,8.90771e-01,9.97175e-01,9.99660e-01
1.106462220e+00,7.43071e-01,9.99999e-01,9.99999e-01,7.45562e-01,9.97231e-01,9.99423e-01
1.111994531e+00,5.36724e-01,9.99999e-01,9.99999e-01,5.39007e-01,9.97286e-01,9.98472e-01
1.117554504e+00,3.65228e-01,9.99999e-01,9.99999e-01,3.68228e-01,9.97339e-01,9.94496e-01
1.123142276e+00,4.72902e-01,9.99999e-01,9.99999e-01,4.80384e-01,9.97392e-01,9.86998e-01
1.128757988e+00,6.13861e-01,9.99999e-01,9.99999e-01,6.24821e-01,9.97443e-01,9.84975e-01
1.134401778e+00,3.57006e-01,9.99999e-01,9.99999e-01,3.62539e-01,9.97494e-01,9.87209e-01
1.140073787e+00,7.45496e-01,9.99999e-01,9.99999e-01,7.55057e-01,9.97543e-01,9.89767e-01
1.145774156e+00,5.50305e-01,9.99999e-01,9.99999e-01,5.56851e-01,9.97591e-01,9.90629e-01
1.151503026e+00,5.17374e-01,9.99999e-01,9.99999e-01,5.21324e-01,9.97639e-01,9.94768e-01
1.157260541e+00,5.77496e-01,9.99999e-01,9.99999e-01,5.79743e-01,9.97685e-01,9.98432e-01
1.163046844e+00,6.66182e-01,9.99999e-01,9.99999e-01,6.67993e-01,9.97731e-01,9.99555e-01
1.168862078e+00,7.53562e-01,9.99999e-01,9.99999e-01,7.55414e-01,9.97776e-01,9.99770e-01
1.174706389e+00,8.38987e-01,9.99999e-01,9.99999e-01,8.41075e-01,9.97820e-01,9.99696e-01
1.180579921e+00,8.97616e-01,9.99999e-01,9.99999e-01,8.99951e-01,9.97863e-01,9.99540e-01
1.186482820e+00,9.39789e-01,9.99999e-01,9.99999e-01,9.42205e-01,9.97905e-01,9.99528e-01
1.192415234e+00,9.63554e-01,9.99999e-01,9.99999e-01,9.65877e-01,9.97946e-01,9.99646e-01
1.198377311e+00,9.68906e-01,9.99999e-01,9.99999e-01,9.71183e-01,9.97987e-01,9.99666e-01
1.204369197e+00,9.70486e-01,9.99999e-01,9.99999e-01,9.72697e-01,9.98026e-01,9.99698e-01
1.210391043e+00,9.71814e-01,9.99999e-01,9.99999e-01,9.73875e-01,9.98065e-01,9.99816e-01
1.216442998e+00,9.75751e-01,9.99999e-01,9.99999e-01,9.77714e-01,9.98104e-01,9.99887e-01
1.222525213e+00,9.80723e-01,9.99999e-01,9.99999e-01,9.82617e-01,9.98141e-01,9.99929e-01
1.228637839e+00,9.86071e-01,9.99999e-01,9.99999e-01,9.87903e-01,9.98178e-01,9.99967e-01
