#,Wave/freq,Total,N2,O2,H2O,Rayleigh,CIA
4.000000000e-01,2.45501e-01,9.99999e-01,9.99999e-01,9.99841e-01,2.45539e-01,9.99999e-01
4.020000000e-01,2.52428e-01,9.99999e-01,9.99999e-01,9.99902e-01,2.52452e-01,9.99999e-01
4.040100000e-01,2.59400e-01,9.99999e-01,9.99999e-01,9.99958e-01,2.59411e-01,9.99999e-01
4.060300500e-01,2.66415e-01,9.99999e-01,9.99999e-01,9.99990e-01,2.66418e-01,9.99999e-01
4.080602003e-01,2.73469e-01,9.99999e-01,9.99999e-01,9.99996e-01,2.73470e-01,9.99999e-01
4.101005013e-01,2.80564e-01,9.99999e-01,9.99999e-01,9.99999e-01,2.80564e-01,9.99999e-01
4.121510038e-01,2.87695e-01,9.99999e-01,9.99999e-01,9.99993e-01,2.87697e-01,9.99999e-01
4.142117588e-01,2.94851e-01,9.99999e-01,9.99999e-01,9.99955e-01,2.94864e-01,9.99999e-01
4.162828176e-01,3.02005e-01,9.99999e-01,9.99999e-01,9.99803e-01,3.02064e-01,9.99999e-01
4.183642317e-01,3.09255e-01,9.99999e-01,9.99999e-01,9.99883e-01,3.09291e-01,9.99999e-01
4.204560528e-01,3.16522e-01,9.99999e-01,9.99999e-01,9.99928e-01,3.16544e-01,9.99999e-01
4.225583331e-01,3.23810e-01,9.99999e-01,9.99999e-01,9.99973e-01,3.23819e-01,9.99999e-01
4.246711247e-01,3.31105e-01,9.99999e-01,9.99999e-01,9.99977e-01,3.31112e-01,9.99999e-01
4.267944804e-01,3.38410e-01,9.99999e-01,9.99999e-01,9.99968e-01,3.38420e-01,9.99999e-01
4.289284528e-01,3.45733e-01,9.99999e-01,9.99999e-01,9.99975e-01,3.45741e-01,9.99999e-01
4.310730950e-01,3.53067e-01,9.99999e-01,9.99999e-01,9.99989e-01,3.53071e-01,9.99999e-01
4.332284605e-01,3.60405e-01,9.99999e-01,9.99999e-01,9.99996e-01,3.60406e-01,9.99999e-01
4.353946028e-01,3.67745e-01,9.99999e-01,9.99999e-01,9.99998e-01,3.67745e-01,9.99999e-01
4.375715758e-01,3.75076e-01,9.99999e-01,9.99999e-01,9.99979e-01,3.75084e-01,9.99999e-01
4.397594337e-01,3.82353e-01,9.99999e-01,9.99999e-01,9.99824e-01,3.82420e-01,9.99999e-01
4.419582309e-01,3.89403e-01,9.99999e-01,9.99999e-01,9.99107e-01,3.89750e-01,9.99999e-01
4.441680220e-01,3.96803e-01,9.99999e-01,9.99999e-01,9.99323e-01,3.97072e-01,9.99999e-01
4.463888621e-01,4.04095e-01,9.99999e-01,9.99999e-01,9.99289e-01,4.04383e-01,9.99999e-01
4.486208064e-01,4.11499e-01,9.99999e-01,9.99999e-01,9.99561e-01,4.11680e-01,9.99999e-01
4.508639105e-01,4.18874e-01,9.99999e-01,9.99999e-01,9.99794e-01,4.18960e-01,9.99999e-01
4.531182300e-01,4.26188e-01,9.99999e-01,9.99999e-01,9.99918e-01,4.26222e-01,9.99999e-01
4.553838212e-01,4.33438e-01,9.99999e-01,9.99999e-01,9.99944e-01,4.33462e-01,9.99999e-01
4.576607403e-01,4.40668e-01,9.99999e-01,9.99999e-01,9.99974e-01,4.40679e-01,9.99999e-01
4.599490440e-01,4.47862e-01,9.99999e-01,9.99999e-01,9.99981e-01,4.47870e-01,9.99999e-01
4.622487892e-01,4.55031e-01,9.99999e-01,9.99999e-01,9.99996e-01,4.55033e-01,9.99999e-01
4.645600332e-01,4.62159e-01,9.99999e-01,9.99999e-01,9.99986e-01,4.62165e-01,9.99999e-01
4.668828333e-01,4.69166e-01,9.99999e-01,9.99999e-01,9.99788e-01,4.69265e-01,9.99999e-01
4.692172475e-01,4.76119e-01,9.99999e-01,9.99999e-01,9.99554e-01,4.76331e-01,9.99999e-01
4.715633337e-01,4.83219e-01,9.99999e-01,9.99999e-01,9.99707e-01,4.83360e-01,9.99999e-01
4.739211504e-01,4.90215e-01,9.99999e-01,9.99999e-01,9.99722e-01,4.90351e-01,9.99999e-01
4.762907561e-01,4.97231e-01,9.99999e-01,9.99999e-01,9.99856e-01,4.97302e-01,9.99999e-01
4.786722099e-01,5.04182e-01,9.99999e-01,9.99999e-01,9.99940e-01,5.04211e-01,9.99999e-01
4.810655710e-01,5.11069e-01,9.99999e-01,9.99999e-01,9.99981e-01,5.11078e-01,9.99999e-01
4.834708988e-01,5.17808e-01,9.99999e-01,9.99999e-01,9.99823e-01,5.17899e-01,9.99999e-01
4.858882533e-01,5.24509e-01,9.99999e-01,9.99999e-01,9.99685e-01,5.24674e-01,9.99999e-01
4.883176946e-01,5.31260e-01,9.99999e-01,9.99999e-01,9.99734e-01,5.31401e-01,9.99999e-01
4.907592831e-01,5.37951e-01,9.99999e-01,9.99999e-01,9.99761e-01,5.38079e-01,9.99999e-01
4.932130795e-01,5.44614e-01,9.99999e-01,9.99999e-01,9.99830e-01,5.44706e-01,9.99999e-01
4.956791449e-01,5.51233e-01,9.99999e-01,9.99999e-01,9.99910e-01,5.51282e-01,9.99999e-01
4.981575406e-01,5.57553e-01,9.99999e-01,9.99999e-01,9.99548e-01,5.57805e-01,9.99999e-01
5.006483283e-01,5.63605e-01,9.99999e-01,9.99999e-01,9.98822e-01,5.64274e-01,9.99991e-01
5.031515699e-01,5.67293e-01,9.99999e-01,9.99999e-01,9.94112e-01,5.70688e-01,9.99937e-01
5.056673278e-01,5.75217e-01,9.99999e-01,9.99999e-01,9.96901e-01,5.77046e-01,9.99928e-01
5.081956644e-01,5.81044e-01,9.99999e-01,9.99999e-01,9.96094e-01,5.83347e-01,9.99956e-01
5.107366428e-01,5.88033e-01,9.99999e-01,9.99999e-01,9.97365e-01,5.89590e-01,9.99992e-01
5.132903260e-01,5.94880e-01,9.99999e-01,9.99999e-01,9.98497e-01,5.95775e-01,9.99998e-01
5.158567776e-01,6.01520e-01,9.99999e-01,9.99999e-01,9.99366e-01,6.01901e-01,9.99999e-01
5.184360615e-01,6.07813e-01,9.99999e-01,9.99999e-01,9.99745e-01,6.07967e-01,9.99999e-01
5.210282418e-01,6.13914e-01,9.99999e-01,9.99999e-01,9.99903e-01,6.13973e-01,9.99999e-01
5.236333830e-01,6.19678e-01,9.99999e-01,9.99999e-01,9.99615e-01,6.19917e-01,9.99996e-01
5.262515499e-01,6.25648e-01,9.99999e-01,9.99999e-01,9.99759e-01,6.25800e-01,9.99995e-01
5.288828077e-01,6.31479e-01,9.99999e-01,9.99999e-01,9.99777e-01,6.31621e-01,9.99997e-01
5.315272217e-01,6.37256e-01,9.99999e-01,9.99999e-01,9.99807e-01,6.37379e-01,9.99998e-01
5.341848578e-01,6.42993e-01,9.99999e-01,9.99999e-01,9.99872e-01,6.43075e-01,9.99999e-01
5.368557821e-01,6.48415e-01,9.99999e-01,9.99999e-01,9.99549e-01,6.48707e-01,9.99998e-01
5.395400610e-01,6.53194e-01,9.99999e-01,9.99999e-01,9.98360e-01,6.54276e-01,9.99984e-01
5.422377613e-01,6.58388e-01,9.99999e-01,9.99999e-01,9.97924e-01,6.59782e-01,9.99961e-01
5.449489501e-01,6.63901e-01,9.99999e-01,9.99999e-01,9.98050e-01,6.65224e-01,9.99960e-01
5.476736949e-01,6.69445e-01,9.99999e-01,9.99999e-01,9.98293e-01,6.70602e-01,9.99980e-01
5.504120634e-01,6.75074e-01,9.99999e-01,9.99999e-01,9.98760e-01,6.75915e-01,9.99994e-01
5.531641237e-01,6.80740e-01,9.99999e-01,9.99999e-01,9.99376e-01,6.81165e-01,9.99998e-01
5.559299443e-01,6.86145e-01,9.99999e-01,9.99999e-01,9.99699e-01,6.86351e-01,9.99999e-01
5.587095940e-01,6.91341e-01,9.99999e-01,9.99999e-01,9.99809e-01,6.91472e-01,9.99999e-01
5.615031420e-01,6.96382e-01,9.99999e-01,9.99999e-01,9.99788e-01,6.96529e-01,9.99999e-01
5.643106577e-01,7.01351e-01,9.99999e-01,9.99999e-01,9.99756e-01,7.01523e-01,9.99997e-01
5.671322110e-01,7.04331e-01,9.99999e-01,9.99999e-01,9.97022e-01,7.06452e-01,9.99973e-01
5.699678720e-01,7.09089e-01,9.99999e-01,9.99999e-01,9.96944e-01,7.11318e-01,9.99920e-01
5.728177114e-01,7.13759e-01,9.99999e-01,9.99999e-01,9.96768e-01,7.16120e-01,9.99933e-01
5.756818000e-01,7.18701e-01,9.99999e-01,9.99999e-01,9.97043e-01,7.20859e-01,9.99961e-01
5.785602090e-01,7.23662e-01,9.99999e-01,9.99999e-01,9.97429e-01,7.25535e-01,9.99988e-01
5.814530100e-01,7.28253e-01,9.99999e-01,9.99999e-01,9.97410e-01,7.30147e-01,9.99994e-01
5.843602750e-01,7.32396e-01,9.99999e-01,9.99999e-01,9.96884e-01,7.34697e-01,9.99982e-01
5.872820764e-01,7.19524e-01,9.99999e-01,9.99999e-01,9.73582e-01,7.39185e-01,9.99812e-01
5.902184868e-01,7.19697e-01,9.99999e-01,9.99999e-01,9.68332e-01,7.43611e-01,9.99490e-01
5.931695792e-01,7.30781e-01,9.99999e-01,9.99999e-01,9.77490e-01,7.47974e-01,9.99510e-01
5.961354271e-01,7.33553e-01,9.99999e-01,9.99999e-01,9.75383e-01,7.52277e-01,9.99718e-01
5.991161043e-01,7.42837e-01,9.99999e-01,9.99999e-01,9.82000e-01,7.56519e-01,9.99912e-01
6.021116848e-01,7.52907e-01,9.99999e-01,9.99999e-01,9.89765e-01,7.60700e-01,9.99989e-01
6.051222432e-01,7.60853e-01,9.99999e-01,9.99999e-01,9.94812e-01,7.64821e-01,9.99998e-01
6.081478544e-01,7.67157e-01,9.99999e-01,9.99999e-01,9.97756e-01,7.68882e-01,9.99999e-01
6.111885937e-01,7.72153e-01,9.99999e-01,9.99999e-01,9.99054e-01,7.72884e-01,9.99999e-01
6.142445367e-01,7.76498e-01,9.99999e-01,9.99999e-01,9.99576e-01,7.76827e-01,9.99999e-01
6.173157594e-01,7.80529e-01,9.99999e-01,9.99999e-01,9.99765e-01,7.80711e-01,9.99999e-01
6.204023382e-01,7.84381e-01,9.99999e-01,9.99999e-01,9.99800e-01,7.84538e-01,9.99999e-01
6.235043498e-01,7.87600e-01,9.99999e-01,9.99999e-01,9.99103e-01,7.88308e-01,9.99997e-01
6.266218716e-01,7.88324e-01,9.99999e-01,9.99999e-01,9.95365e-01,7.92020e-01,9.99967e-01
6.297549810e-01,7.94270e-01,9.99999e-01,9.99999e-01,9.98297e-01,7.95676e-01,9.99934e-01
6.329037559e-01,7.96559e-01,9.99999e-01,9.99999e-01,9.96651e-01,7.99277e-01,9.99947e-01
6.360682746e-01,8.00493e-01,9.99999e-01,9.99999e-01,9.97130e-01,8.02822e-01,9.99968e-01
6.392486160e-01,8.03312e-01,9.99999e-01,9.99999e-01,9.96293e-01,8.06312e-01,9.99985e-01
6.424448591e-01,8.05672e-01,9.99999e-01,9.99999e-01,9.94990e-01,8.09748e-01,9.99975e-01
6.456570834e-01,7.94299e-01,9.99999e-01,9.99999e-01,9.76976e-01,8.13130e-01,9.99860e-01
6.488853688e-01,8.02578e-01,9.99999e-01,9.99999e-01,9.83348e-01,8.16460e-01,9.99642e-01
6.521297956e-01,8.05606e-01,9.99999e-01,9.99999e-01,9.83051e-01,8.19736e-01,9.99704e-01
6.553904446e-01,8.08770e-01,9.99999e-01,9.99999e-01,9.82970e-01,8.22961e-01,9.99780e-01
6.586673968e-01,8.14095e-01,9.99999e-01,9.99999e-01,9.85497e-01,8.26135e-01,9.99926e-01
6.619607338e-01,8.22520e-01,9.99999e-01,9.99999e-01,9.91890e-01,8.29257e-01,9.99983e-01
6.652705375e-01,8.28266e-01,9.99999e-01,9.99999e-01,9.95125e-01,8.32330e-01,9.99991e-01
6.685968902e-01,8.33621e-01,9.99999e-01,9.99999e-01,9.97928e-01,8.35352e-01,9.99998e-01
6.719398746e-01,8.37446e-01,9.99999e-01,9.99999e-01,9.98950e-01,8.38326e-01,9.99999e-01
6.752995740e-01,8.40784e-01,9.99999e-01,9.99999e-01,9.99444e-01,8.41251e-01,9.99999e-01
6.786760719e-01,8.43425e-01,9.99999e-01,9.99999e-01,9.99166e-01,8.44129e-01,9.99998e-01
6.820694522e-01,8.45741e-01,9.99999e-01,9.99999e-01,9.98568e-01,8.46959e-01,9.99992e-01
6.854797995e-01,8.48175e-01,9.99999e-01,9.99999e-01,9.98170e-01,8.49742e-01,9.99983e-01
6.889071985e-01,8.47408e-01,9.99999e-01,9.99999e-01,9.94089e-01,8.52479e-01,9.99960e-01
6.923517345e-01,7.94891e-01,9.99999e-01,9.99999e-01,9.29831e-01,8.55171e-01,9.99654e-01
6.958134932e-01,8.26369e-01,9.99999e-01,9.99999e-01,9.64075e-01,8.57818e-01,9.99235e-01
6.992925606e-01,8.29519e-01,9.99999e-01,9.99999e-01,9.64749e-01,8.60420e-01,9.99310e-01
7.027890234e-01,8.25522e-01,9.99999e-01,9.99999e-01,9.57098e-01,8.62979e-01,9.99473e-01
7.063029686e-01,8.33863e-01,9.99999e-01,9.99999e-01,9.63704e-01,8.65495e-01,9.99737e-01
7.098344834e-01,8.37575e-01,9.99999e-01,9.99999e-01,9.65132e-01,8.67968e-01,9.99844e-01
7.133836558e-01,8.29521e-01,9.99999e-01,9.99999e-01,9.53328e-01,8.70399e-01,9.99691e-01
7.169505741e-01,6.02708e-01,9.99999e-01,9.99999e-01,6.92228e-01,8.72789e-01,9.97580e-01
7.205353270e-01,7.29098e-01,9.99999e-01,9.99999e-01,8.36691e-01,8.75137e-01,9.95734e-01
7.241380036e-01,6.93058e-01,9.99999e-01,9.99999e-01,7.92778e-01,8.77446e-01,9.96316e-01
7.277586936e-01,7.11650e-01,9.99999e-01,9.99999e-01,8.11399e-01,8.79715e-01,9.96987e-01
7.313974871e-01,7.05035e-01,9.99999e-01,9.99999e-01,8.00539e-01,8.81945e-01,9.98587e-01
7.350544745e-01,7.81804e-01,9.99999e-01,9.99999e-01,8.84691e-01,8.84136e-01,9.99508e-01
7.387297469e-01,8.09407e-01,9.99999e-01,9.99999e-01,9.13458e-01,8.86289e-01,9.99774e-01
7.424233956e-01,8.49906e-01,9.99999e-01,9.99999e-01,9.56701e-01,8.88405e-01,9.99960e-01
7.461355126e-01,8.66849e-01,9.99999e-01,9.99999e-01,9.73464e-01,8.90484e-01,9.99992e-01
7.498661902e-01,8.81458e-01,9.99999e-01,9.99999e-01,9.87601e-01,8.92526e-01,9.99996e-01
7.536155211e-01,8.89053e-01,9.99999e-01,9.99999e-01,9.93875e-01,8.94533e-01,9.99997e-01
7.573835987e-01,8.93676e-01,9.99999e-01,9.99999e-01,9.96845e-01,8.96504e-01,9.99999e-01
7.611705167e-01,8.96678e-01,9.99999e-01,9.99999e-01,9.98037e-01,8.98441e-01,9.99999e-01
7.649763693e-01,8.99234e-01,9.99999e-01,9.99999e-01,9.98767e-01,9.00343e-01,9.99999e-01
7.688012511e-01,9.01437e-01,9.99999e-01,9.99999e-01,9.99140e-01,9.02212e-01,9.99999e-01
7.726452574e-01,9.03408e-01,9.99999e-01,9.99999e-01,9.99291e-01,9.04048e-01,9.99999e-01
7.765084837e-01,9.04930e-01,9.99999e-01,9.99999e-01,9.98983e-01,9.05851e-01,9.99998e-01
7.803910261e-01,9.03629e-01,9.99999e-01,9.99999e-01,9.95604e-01,9.07622e-01,9.99995e-01
7.842929812e-01,8.95464e-01,9.99999e-01,9.99999e-01,9.84744e-01,9.09361e-01,9.99971e-01
7.882144461e-01,8.82764e-01,9.99999e-01,9.99999e-01,9.69138e-01,9.11070e-01,9.99785e-01
7.921555184e-01,8.96974e-01,9.99999e-01,9.99999e-01,9.83084e-01,9.12747e-01,9.99626e-01
7.961162960e-01,8.86532e-01,9.99999e-01,9.99999e-01,9.69872e-01,9.14395e-01,9.99644e-01
8.000968774e-01,8.84044e-01,9.99999e-01,9.99999e-01,9.65464e-01,9.16012e-01,9.99621e-01
8.040973618e-01,8.85615e-01,9.99999e-01,9.99999e-01,9.65418e-01,9.17601e-01,9.99711e-01
8.081178486e-01,8.48751e-01,9.99999e-01,9.99999e-01,9.23666e-01,9.19161e-01,9.99707e-01
8.121584379e-01,6.65041e-01,9.99999e-01,9.99999e-01,7.23125e-01,9.20693e-01,9.98894e-01
8.162192301e-01,6.29763e-01,9.99999e-01,9.99999e-01,6.85739e-01,9.22197e-01,9.95850e-01
8.203003262e-01,7.64757e-01,9.99999e-01,9.99999e-01,8.31992e-01,9.23673e-01,9.95142e-01
8.244018279e-01,7.22298e-01,9.99999e-01,9.99999e-01,7.83789e-01,9.25123e-01,9.96132e-01
8.285238370e-01,7.33636e-01,9.99999e-01,9.99999e-01,7.94209e-01,9.26546e-01,9.96961e-01
8.326664562e-01,7.35927e-01,9.99999e-01,9.99999e-01,7.94070e-01,9.27943e-01,9.98741e-01
8.368297885e-01,7.86466e-01,9.99999e-01,9.99999e-01,8.46528e-01,9.29315e-01,9.99712e-01
8.410139374e-01,8.42545e-01,9.99999e-01,9.99999e-01,9.05469e-01,9.30662e-01,9.99831e-01
8.452190071e-01,8.87550e-01,9.99999e-01,9.99999e-01,9.52419e-01,9.31984e-01,9.99899e-01
8.494451021e-01,9.07019e-01,9.99999e-01,9.99999e-01,9.71938e-01,9.33281e-01,9.99918e-01
8.536923276e-01,9.18979e-01,9.99999e-01,9.99999e-01,9.83380e-01,9.34555e-01,9.99950e-01
8.579607893e-01,9.26150e-01,9.99999e-01,9.99999e-01,9.89693e-01,9.35805e-01,9.99987e-01
8.622505932e-01,9.30904e-01,9.99999e-01,9.99999e-01,9.93460e-01,9.37032e-01,9.99997e-01
8.665618462e-01,9.34419e-01,9.99999e-01,9.99999e-01,9.95931e-01,9.38237e-01,9.99998e-01
8.708946554e-01,9.35029e-01,9.99999e-01,9.99999e-01,9.95329e-01,9.39419e-01,9.99996e-01
8.752491287e-01,9.34707e-01,9.99999e-01,9.99999e-01,9.93762e-01,9.40580e-01,9.99992e-01
8.796253743e-01,9.33541e-01,9.99999e-01,9.99999e-01,9.91335e-01,9.41718e-01,9.99980e-01
8.840235012e-01,9.33467e-01,9.99999e-01,9.99999e-01,9.90122e-01,9.42836e-01,9.99939e-01
8.884436187e-01,9.09815e-01,9.99999e-01,9.99999e-01,9.64020e-01,9.43933e-01,9.99828e-01
8.928858368e-01,6.53095e-01,9.99999e-01,9.99999e-01,6.91781e-01,9.45009e-01,9.99013e-01
8.973502660e-01,4.98130e-01,9.99999e-01,9.99999e-01,5.29198e-01,9.46066e-01,9.94954e-01
9.018370173e-01,6.81340e-01,9.99999e-01,9.99999e-01,7.25139e-01,9.47102e-01,9.92077e-01
9.063462024e-01,7.03018e-01,9.99999e-01,9.99999e-01,7.46685e-01,9.48119e-01,9.93037e-01
9.108779334e-01,6.00065e-01,9.99999e-01,9.99999e-01,6.36840e-01,9.49118e-01,9.92766e-01
9.154323231e-01,5.63467e-01,9.99999e-01,9.99999e-01,5.96632e-01,9.50097e-01,9.94016e-01
9.200094847e-01,6.35608e-01,9.99999e-01,9.99999e-01,6.70564e-01,9.51058e-01,9.96646e-01
9.246095321e-01,5.23375e-01,9.99999e-01,9.99999e-01,5.51894e-01,9.52001e-01,9.96137e-01
9.292325798e-01,3.94635e-02,9.99999e-01,9.99999e-01,4.21939e-02,9.52927e-01,9.81489e-01
9.338787427e-01,1.10087e-02,9.99999e-01,9.99999e-01,1.23479e-02,9.53835e-01,9.34692e-01
9.385481364e-01,1.46916e-01,9.99999e-01,9.99999e-01,1.65736e-01,9.54726e-01,9.28483e-01
9.432408771e-01,8.30504e-02,9.99999e-01,9.99999e-01,9.26545e-02,9.55600e-01,9.37990e-01
9.479570815e-01,2.91672e-02,9.99999e-01,9.99999e-01,3.21259e-02,9.56457e-01,9.49233e-01
9.526968669e-01,6.28860e-02,9.99999e-01,9.99999e-01,6.78120e-02,9.57299e-01,9.68721e-01
9.574603512e-01,7.18333e-02,9.99999e-01,9.99999e-01,7.61928e-02,9.58124e-01,9.83987e-01
9.622476530e-01,1.10354e-01,9.99999e-01,9.99999e-01,1.16371e-01,9.58934e-01,9.88900e-01
9.670588912e-01,2.67202e-01,9.99999e-01,9.99999e-01,2.80457e-01,9.59729e-01,9.92713e-01
9.718941857e-01,4.06675e-01,9.99999e-01,9.99999e-01,4.25773e-01,9.60508e-01,9.94414e-01
9.767536566e-01,4.69800e-01,9.99999e-01,9.99999e-01,4.90830e-01,9.61273e-01,9.95714e-01
9.816374249e-01,5.63449e-01,9.99999e-01,9.99999e-01,5.86561e-01,9.62023e-01,9.98514e-01
9.865456120e-01,6.87700e-01,9.99999e-01,9.99999e-01,7.14521e-01,9.62759e-01,9.99690e-01
9.914783401e-01,7.81479e-01,9.99999e-01,9.99999e-01,8.11169e-01,9.63481e-01,9.99913e-01
9.964357318e-01,8.60225e-01,9.99999e-01,9.99999e-01,8.92218e-01,9.64190e-01,9.99949e-01
1.001417910e+00,9.01002e-01,9.99999e-01,9.99999e-01,9.33864e-01,9.64884e-01,9.99922e-01
1.006425000e+00,9.28382e-01,9.99999e-01,9.99999e-01,9.61594e-01,9.65566e-01,9.99890e-01
1.011457125e+00,9.43017e-01,9.99999e-01,9.99999e-01,9.76069e-01,9.66234e-01,9.99898e-01
1.016514411e+00,9.51021e-01,9.99999e-01,9.99999e-01,9.83656e-01,9.66890e-01,9.99928e-01
1.021596983e+00,9.54833e-01,9.99999e-01,9.99999e-01,9.86942e-01,9.67533e-01,9.99929e-01
1.026704968e+00,9.58242e-01,9.99999e-01,9.99999e-01,9.89794e-01,9.68164e-01,9.99955e-01
1.031838492e+00,9.61596e-01,9.99999e-01,9.99999e-01,9.92593e-01,9.68783e-01,9.99986e-01
1.036997685e+00,9.65107e-01,9.99999e-01,9.99999e-01,9.95582e-01,9.69390e-01,9.99997e-01
1.042182673e+00,9.64854e-01,9.99999e-01,9.99999e-01,9.94710e-01,9.69986e-01,9.99998e-01
1.047393587e+00,9.63782e-01,9.99999e-01,9.99999e-01,9.93007e-01,9.70570e-01,9.99998e-01
1.052630555e+00,9.61818e-01,9.99999e-01,9.99999e-01,9.90400e-01,9.71143e-01,9.99996e-01
1.057893707e+00,9.56150e-01,9.99999e-01,9.99999e-01,9.83997e-01,9.71704e-01,9.99994e-01
1.063183176e+00,9.46823e-01,9.99999e-01,9.99999e-01,9.73854e-01,9.72255e-01,9.99985e-01
1.068499092e+00,9.30669e-01,9.99999e-01,9.99999e-01,9.56722e-01,9.72796e-01,9.99969e-01
1.073841587e+00,9.24183e-01,9.99999e-01,9.99999e-01,9.49571e-01,9.73326e-01,9.99934e-01
1.079210795e+00,9.11345e-01,9.99999e-01,9.99999e-01,9.35985e-01,9.73846e-01,9.99823e-01
1.084606849e+00,8.81171e-01,9.99999e-01,9.99999e-01,9.04746e-01,9.74356e-01,9.99574e-01
1.090029883e+00,8.43297e-01,9.99999e-01,9.99999e-01,8.65809e-01,9.74856e-01,9.99118e-01
1.095480033e+00,6.59290e-01,9.99999e-01,9.99999e-01,6.77032e-01,9.75346e-01,9.98406e-01
1.100957433e+00,3.72383e-01,9.99999e-01,9.99999e-01,3.82729e-01,9.75827e-01,9.97070e-01
1.106462220e+00,1.04071e-01,9.99999e-01,9.99999e-01,1.07130e-01,9.76299e-01,9.95035e-01
1.111994531e+00,1.06919e-02,9.99999e-01,9.99999e-01,1.10919e-02,9.76762e-01,9.86874e-01
1.117554504e+00,1.09526e-03,9.99999e-01,9.99999e-01,1.17555e-03,9.77216e-01,9.53418e-01
1.123142276e+00,1.02444e-02,9.99999e-01,9.99999e-01,1.17334e-02,9.77660e-01,8.93044e-01
1.128757988e+00,2.97963e-02,9.99999e-01,9.99999e-01,3.47225e-02,9.78097e-01,8.77339e-01
1.134401778e+00,1.67371e-02,9.99999e-01,9.99999e-01,1.91175e-02,9.78525e-01,8.94695e-01
1.140073787e+00,1.02128e-01,9.99999e-01,9.99999e-01,1.14024e-01,9.78944e-01,9.14932e-01
1.145774156e+00,1.86896e-02,9.99999e-01,9.99999e-01,2.07014e-02,9.79356e-01,9.21844e-01
1.151503026e+00,1.15050e-02,9.99999e-01,9.99999e-01,1.22873e-02,9.79760e-01,9.55677e-01
1.157260541e+00,1.50616e-02,9.99999e-01,9.99999e-01,1.55762e-02,9.80155e-01,9.86536e-01
1.163046844e+00,4.40291e-02,9.99999e-01,9.99999e-01,4.50756e-02,9.80544e-01,9.96165e-01
1.168862078e+00,1.01516e-01,9.99999e-01,9.99999e-01,1.03697e-01,9.80924e-01,9.98000e-01
1.174706389e+00,2.36770e-01,9.99999e-01,9.99999e-01,2.41948e-01,9.81297e-01,9.97246e-01
1.180579921e+00,4.06941e-01,9.99999e-01,9.99999e-01,4.16190e-01,9.81663e-01,9.96040e-01
1.186482820e+00,5.89559e-01,9.99999e-01,9.99999e-01,6.02801e-01,9.82022e-01,9.95936e-01
1.192415234e+00,7.26905e-01,9.99999e-01,9.99999e-01,7.42206e-01,9.82374e-01,9.96955e-01
1.198377311e+00,7.61986e-01,9.99999e-01,9.99999e-01,7.77631e-01,9.82719e-01,9.97110e-01
1.204369197e+00,7.74645e-01,9.99999e-01,9.99999e-01,7.89983e-01,9.83058e-01,9.97482e-01
1.210391043e+00,7.82778e-01,9.99999e-01,9.99999e-01,7.97261e-01,9.83390e-01,9.98415e-01
1.216442998e+00,8.10908e-01,9.99999e-01,9.99999e-01,8.25132e-01,9.83715e-01,9.99029e-01
1.222525213e+00,8.45998e-01,9.99999e-01,9.99999e-01,8.60242e-01,9.84034e-01,9.99396e-01
1.228637839e+00,8.86189e-01,9.99999e-01,9.99999e-01,9.00533e-01,9.84347e-01,9.99719e-01
