#,Wave/freq,Total,N2,O2,H2O,Rayleigh,CIA
4.000000000e-01,4.08670e-01,9.99999e-01,9.99999e-01,9.99898e-01,4.08711e-01,9.99999e-01
4.020000000e-01,4.15980e-01,9.99999e-01,9.99999e-01,9.99936e-01,4.16006e-01,9.99999e-01
4.040100000e-01,4.23265e-01,9.99999e-01,9.99999e-01,9.99972e-01,4.23276e-01,9.99999e-01
4.060300500e-01,4.30523e-01,9.99999e-01,9.99999e-01,9.99993e-01,4.30525e-01,9.99999e-01
4.080602003e-01,4.37751e-01,9.99999e-01,9.99999e-01,9.99997e-01,4.37752e-01,9.99999e-01
4.101005013e-01,4.44954e-01,9.99999e-01,9.99999e-01,9.99999e-01,4.44954e-01,9.99999e-01
4.121510038e-01,4.52126e-01,9.99999e-01,9.99999e-01,9.99995e-01,4.52128e-01,9.99999e-01
4.142117588e-01,4.59260e-01,9.99999e-01,9.99999e-01,9.99972e-01,4.59273e-01,9.99999e-01
4.162828176e-01,4.66328e-01,9.99999e-01,9.99999e-01,9.99874e-01,4.66386e-01,9.99999e-01
4.183642317e-01,4.73431e-01,9.99999e-01,9.99999e-01,9.99925e-01,4.73466e-01,9.99999e-01
4.204560528e-01,4.80488e-01,9.99999e-01,9.99999e-01,9.99953e-01,4.80510e-01,9.99999e-01
4.225583331e-01,4.87509e-01,9.99999e-01,9.99999e-01,9.99982e-01,4.87517e-01,9.99999e-01
4.246711247e-01,4.94478e-01,9.99999e-01,9.99999e-01,9.99986e-01,4.94485e-01,9.99999e-01
4.267944804e-01,5.01401e-01,9.99999e-01,9.99999e-01,9.99979e-01,5.01411e-01,9.99999e-01
4.289284528e-01,5.08287e-01,9.99999e-01,9.99999e-01,9.99984e-01,5.08295e-01,9.99999e-01
4.310730950e-01,5.15131e-01,9.99999e-01,9.99999e-01,9.99992e-01,5.15135e-01,9.99999e-01
4.332284605e-01,5.21928e-01,9.99999e-01,9.99999e-01,9.99997e-01,5.21929e-01,9.99999e-01
4.353946028e-01,5.28675e-01,9.99999e-01,9.99999e-01,9.99998e-01,5.28675e-01,9.99999e-01
4.375715758e-01,5.35367e-01,9.99999e-01,9.99999e-01,9.99987e-01,5.35373e-01,9.99999e-01
4.397594337e-01,5.41962e-01,9.99999e-01,9.99999e-01,9.99890e-01,5.42021e-01,9.99999e-01
4.419582309e-01,5.48315e-01,9.99999e-01,9.99999e-01,9.99446e-01,5.48618e-01,9.99999e-01
4.441680220e-01,5.54920e-01,9.99999e-01,9.99999e-01,9.99562e-01,5.55163e-01,9.99999e-01
4.463888621e-01,5.61399e-01,9.99999e-01,9.99999e-01,9.99546e-01,5.61654e-01,9.99999e-01
4.486208064e-01,5.67930e-01,9.99999e-01,9.99999e-01,9.99717e-01,5.68090e-01,9.99999e-01
4.508639105e-01,5.74395e-01,9.99999e-01,9.99999e-01,9.99867e-01,5.74471e-01,9.99999e-01
4.531182300e-01,5.80765e-01,9.99999e-01,9.99999e-01,9.99947e-01,5.80795e-01,9.99999e-01
4.553838212e-01,5.87042e-01,9.99999e-01,9.99999e-01,9.99964e-01,5.87062e-01,9.99999e-01
4.576607403e-01,5.93262e-01,9.99999e-01,9.99999e-01,9.99983e-01,5.93271e-01,9.99999e-01
4.599490440e-01,5.99414e-01,9.99999e-01,9.99999e-01,9.99987e-01,5.99421e-01,9.99999e-01
4.622487892e-01,6.05510e-01,9.99999e-01,9.99999e-01,9.99997e-01,6.05512e-01,9.99999e-01
4.645600332e-01,6.11537e-01,9.99999e-01,9.99999e-01,9.99991e-01,6.11542e-01,9.99999e-01
4.668828333e-01,6.17429e-01,9.99999e-01,9.99999e-01,9.99867e-01,6.17511e-01,9.99999e-01
4.692172475e-01,6.23242e-01,9.99999e-01,9.99999e-01,9.99715e-01,6.23419e-01,9.99999e-01
4.715633337e-01,6.29148e-01,9.99999e-01,9.99999e-01,9.99814e-01,6.29265e-01,9.99999e-01
4.739211504e-01,6.34936e-01,9.99999e-01,9.99999e-01,9.99821e-01,6.35049e-01,9.99999e-01
4.762907561e-01,6.40711e-01,9.99999e-01,9.99999e-01,9.99907e-01,6.40770e-01,9.99999e-01
4.786722099e-01,6.46404e-01,9.99999e-01,9.99999e-01,9.99961e-01,6.46428e-01,9.99999e-01
4.810655710e-01,6.52016e-01,9.99999e-01,9.99999e-01,9.99988e-01,6.52023e-01,9.99999e-01
4.834708988e-01,6.57484e-01,9.99999e-01,9.99999e-01,9.99892e-01,6.57554e-01,9.99999e-01
4.858882533e-01,6.62889e-01,9.99999e-01,9.99999e-01,9.99798e-01,6.63022e-01,9.99999e-01
4.883176946e-01,6.68314e-01,9.99999e-01,9.99999e-01,9.99831e-01,6.68426e-01,9.99999e-01
4.907592831e-01,6.73663e-01,9.99999e-01,9.99999e-01,9.99847e-01,6.73766e-01,9.99999e-01
4.932130795e-01,6.78968e-01,9.99999e-01,9.99999e-01,9.99891e-01,6.79041e-01,9.99999e-01
4.956791449e-01,6.84214e-01,9.99999e-01,9.99999e-01,9.99942e-01,6.84253e-01,9.99999e-01
4.981575406e-01,6.89204e-01,9.99999e-01,9.99999e-01,9.99714e-01,6.89400e-01,9.99999e-01
5.006483283e-01,6.93970e-01,9.99999e-01,9.99999e-01,9.99264e-01,6.94484e-01,9.99994e-01
5.031515699e-01,6.96859e-01,9.99999e-01,9.99999e-01,9.96259e-01,6.99503e-01,9.99960e-01
5.056673278e-01,7.03032e-01,9.99999e-01,9.99999e-01,9.98019e-01,7.04459e-01,9.99954e-01
5.081956644e-01,7.07558e-01,9.99999e-01,9.99999e-01,9.97501e-01,7.09350e-01,9.99970e-01
5.107366428e-01,7.12969e-01,9.99999e-01,9.99999e-01,9.98311e-01,7.14178e-01,9.99994e-01
5.132903260e-01,7.18248e-01,9.99999e-01,9.99999e-01,9.99033e-01,7.18943e-01,9.99998e-01
5.158567776e-01,7.23348e-01,9.99999e-01,9.99999e-01,9.99591e-01,7.23644e-01,9.99999e-01
5.184360615e-01,7.28163e-01,9.99999e-01,9.99999e-01,9.99836e-01,7.28282e-01,9.99999e-01
5.210282418e-01,7.32813e-01,9.99999e-01,9.99999e-01,9.99938e-01,7.32857e-01,9.99999e-01
5.236333830e-01,7.37189e-01,9.99999e-01,9.99999e-01,9.99755e-01,7.37370e-01,9.99997e-01
5.262515499e-01,7.41706e-01,9.99999e-01,9.99999e-01,9.99846e-01,7.41821e-01,9.99997e-01
5.288828077e-01,7.46105e-01,9.99999e-01,9.99999e-01,9.99859e-01,7.46210e-01,9.99997e-01
5.315272217e-01,7.50445e-01,9.99999e-01,9.99999e-01,9.99875e-01,7.50538e-01,9.99999e-01
5.341848578e-01,7.54743e-01,9.99999e-01,9.99999e-01,9.99919e-01,7.54804e-01,9.99999e-01
5.368557821e-01,7.58794e-01,9.99999e-01,9.99999e-01,9.99715e-01,7.59009e-01,9.99998e-01
5.395400610e-01,7.62369e-01,9.99999e-01,9.99999e-01,9.98978e-01,7.63155e-01,9.99991e-01
5.422377613e-01,7.66202e-01,9.99999e-01,9.99999e-01,9.98670e-01,7.67240e-01,9.99975e-01
5.449489501e-01,7.70297e-01,9.99999e-01,9.99999e-01,9.98768e-01,7.71266e-01,9.99974e-01
5.476736949e-01,7.74374e-01,9.99999e-01,9.99999e-01,9.98903e-01,7.75233e-01,9.99987e-01
5.504120634e-01,7.78519e-01,9.99999e-01,9.99999e-01,9.99204e-01,7.79141e-01,9.99996e-01
5.531641237e-01,7.82678e-01,9.99999e-01,9.99999e-01,9.99599e-01,7.82991e-01,9.99999e-01
5.559299443e-01,7.86632e-01,9.99999e-01,9.99999e-01,9.99806e-01,7.86784e-01,9.99999e-01
5.587095940e-01,7.90424e-01,9.99999e-01,9.99999e-01,9.99878e-01,7.90520e-01,9.99999e-01
5.615031420e-01,7.94092e-01,9.99999e-01,9.99999e-01,9.99865e-01,7.94199e-01,9.99999e-01
5.643106577e-01,7.97700e-01,9.99999e-01,9.99999e-01,9.99848e-01,7.97821e-01,9.99998e-01
5.671322110e-01,7.99907e-01,9.99999e-01,9.99999e-01,9.98166e-01,8.01389e-01,9.99983e-01
5.699678720e-01,8.03267e-01,9.99999e-01,9.99999e-01,9.98018e-01,8.04901e-01,9.99949e-01
5.728177114e-01,8.06668e-01,9.99999e-01,9.99999e-01,9.97949e-01,8.08359e-01,9.99957e-01
5.756818000e-01,8.10213e-01,9.99999e-01,9.99999e-01,9.98115e-01,8.11763e-01,9.99973e-01
5.785602090e-01,8.13768e-01,9.99999e-01,9.99999e-01,9.98355e-01,8.15114e-01,9.99991e-01
5.814530100e-01,8.17060e-01,9.99999e-01,9.99999e-01,9.98350e-01,8.18412e-01,9.99995e-01
5.843602750e-01,8.20042e-01,9.99999e-01,9.99999e-01,9.98043e-01,8.21658e-01,9.99988e-01
5.872820764e-01,8.10958e-01,9.99999e-01,9.99999e-01,9.83272e-01,8.24852e-01,9.99880e-01
5.902184868e-01,8.10857e-01,9.99999e-01,9.99999e-01,9.79619e-01,8.27995e-01,9.99675e-01
5.931695792e-01,8.18867e-01,9.99999e-01,9.99999e-01,9.85605e-01,8.31088e-01,9.99683e-01
5.961354271e-01,8.20793e-01,9.99999e-01,9.99999e-01,9.84196e-01,8.34131e-01,9.99808e-01
5.991161043e-01,8.27400e-01,9.99999e-01,9.99999e-01,9.88438e-01,8.37125e-01,9.99944e-01
6.021116848e-01,8.34536e-01,9.99999e-01,9.99999e-01,9.93419e-01,8.40069e-01,9.99992e-01
6.051222432e-01,8.40154e-01,9.99999e-01,9.99999e-01,9.96664e-01,8.42966e-01,9.99999e-01
6.081478544e-01,8.44598e-01,9.99999e-01,9.99999e-01,9.98560e-01,8.45815e-01,9.99999e-01
6.111885937e-01,8.48100e-01,9.99999e-01,9.99999e-01,9.99389e-01,8.48618e-01,9.99999e-01
6.142445367e-01,8.51142e-01,9.99999e-01,9.99999e-01,9.99727e-01,8.51373e-01,9.99999e-01
6.173157594e-01,8.53956e-01,9.99999e-01,9.99999e-01,9.99849e-01,8.54084e-01,9.99999e-01
6.204023382e-01,8.56640e-01,9.99999e-01,9.99999e-01,9.99873e-01,8.56749e-01,9.99999e-01
6.235043498e-01,8.58893e-01,9.99999e-01,9.99999e-01,9.99446e-01,8.59369e-01,9.99998e-01
6.266218716e-01,8.59384e-01,9.99999e-01,9.99999e-01,9.97048e-01,8.61946e-01,9.99978e-01
6.297549810e-01,8.63507e-01,9.99999e-01,9.99999e-01,9.98916e-01,8.64479e-01,9.99958e-01
6.329037559e-01,8.65082e-01,9.99999e-01,9.99999e-01,9.97855e-01,8.66969e-01,9.99966e-01
6.360682746e-01,8.67817e-01,9.99999e-01,9.99999e-01,9.98178e-01,8.69417e-01,9.99979e-01
6.392486160e-01,8.69756e-01,9.99999e-01,9.99999e-01,9.97637e-01,8.71823e-01,9.99990e-01
6.424448591e-01,8.71427e-01,9.99999e-01,9.99999e-01,9.96854e-01,8.74189e-01,9.99985e-01
6.456570834e-01,8.63714e-01,9.99999e-01,9.99999e-01,9.85476e-01,8.76513e-01,9.99918e-01
6.488853688e-01,8.69188e-01,9.99999e-01,9.99999e-01,9.89289e-01,8.78798e-01,9.99771e-01
6.521297956e-01,8.71264e-01,9.99999e-01,9.99999e-01,9.89088e-01,8.81044e-01,9.99808e-01
6.553904446e-01,8.73583e-01,9.99999e-01,9.99999e-01,9.89195e-01,8.83251e-01,9.99856e-01
6.586673968e-01,8.77127e-01,9.99999e-01,9.99999e-01,9.90680e-01,8.85419e-01,9.99952e-01
6.619607338e-01,8.82749e-01,9.99999e-01,9.99999e-01,9.94600e-01,8.87550e-01,9.99989e-01
6.652705375e-01,8.86852e-01,9.99999e-01,9.99999e-01,9.96866e-01,8.89644e-01,9.99994e-01
6.685968902e-01,8.90402e-01,9.99999e-01,9.99999e-01,9.98543e-01,8.91701e-01,9.99998e-01
6.719398746e-01,8.93119e-01,9.99999e-01,9.99999e-01,9.99324e-01,8.93722e-01,9.99999e-01
6.752995740e-01,8.95381e-01,9.99999e-01,9.99999e-01,9.99634e-01,8.95708e-01,9.99999e-01
6.786760719e-01,8.97187e-01,9.99999e-01,9.99999e-01,9.99474e-01,8.97659e-01,9.99998e-01
6.820694522e-01,8.98761e-01,9.99999e-01,9.99999e-01,9.99099e-01,8.99575e-01,9.99994e-01
6.854797995e-01,9.00402e-01,9.99999e-01,9.99999e-01,9.98839e-01,9.01458e-01,9.99989e-01
6.889071985e-01,9.00770e-01,9.99999e-01,9.99999e-01,9.97216e-01,9.03307e-01,9.99974e-01
6.923517345e-01,8.64485e-01,9.99999e-01,9.99999e-01,9.55311e-01,9.05123e-01,9.99779e-01
6.958134932e-01,8.84951e-01,9.99999e-01,9.99999e-01,9.76275e-01,9.06907e-01,9.99502e-01
6.992925606e-01,8.87942e-01,9.99999e-01,9.99999e-01,9.77627e-01,9.08659e-01,9.99562e-01
7.027890234e-01,8.84887e-01,9.99999e-01,9.99999e-01,9.72322e-01,9.10380e-01,9.99664e-01
7.063029686e-01,8.90643e-01,9.99999e-01,9.99999e-01,9.76670e-01,9.12070e-01,9.99832e-01
7.098344834e-01,8.93172e-01,9.99999e-01,9.99999e-01,9.77597e-01,9.13729e-01,9.99900e-01
7.133836558e-01,8.88222e-01,9.99999e-01,9.99999e-01,9.70543e-01,9.15359e-01,9.99803e-01
7.169505741e-01,7.22821e-01,9.99999e-01,9.99999e-01,7.89497e-01,9.16960e-01,9.98456e-01
7.205353270e-01,8.14343e-01,9.99999e-01,9.99999e-01,8.88989e-01,9.18531e-01,9.97278e-01
7.241380036e-01,7.91071e-01,9.99999e-01,9.99999e-01,8.61815e-01,9.20074e-01,9.97649e-01
7.277586936e-01,8.04303e-01,9.99999e-01,9.99999e-01,8.74414e-01,9.21589e-01,9.98078e-01
7.313974871e-01,7.98553e-01,9.99999e-01,9.99999e-01,8.65878e-01,9.23077e-01,9.99099e-01
7.350544745e-01,8.54187e-01,9.99999e-01,9.99999e-01,9.24196e-01,9.24537e-01,9.99686e-01
7.387297469e-01,8.73498e-01,9.99999e-01,9.99999e-01,9.43466e-01,9.25971e-01,9.99856e-01
7.424233956e-01,9.01258e-01,9.99999e-01,9.99999e-01,9.71859e-01,9.27379e-01,9.99971e-01
7.461355126e-01,9.12840e-01,9.99999e-01,9.99999e-01,9.82861e-01,9.28761e-01,9.99994e-01
7.498661902e-01,9.22650e-01,9.99999e-01,9.99999e-01,9.91971e-01,9.30118e-01,9.99997e-01
7.536155211e-01,9.27780e-01,9.99999e-01,9.99999e-01,9.96060e-01,9.31450e-01,9.99998e-01
7.573835987e-01,9.30864e-01,9.99999e-01,9.99999e-01,9.97969e-01,9.32757e-01,9.99999e-01
7.611705167e-01,9.32863e-01,9.99999e-01,9.99999e-01,9.98738e-01,9.34041e-01,9.99999e-01
7.649763693e-01,9.34562e-01,9.99999e-01,9.99999e-01,9.99209e-01,9.35300e-01,9.99999e-01
7.688012511e-01,9.36022e-01,9.99999e-01,9.99999e-01,9.99449e-01,9.36537e-01,9.99999e-01
7.726452574e-01,9.37327e-01,9.99999e-01,9.99999e-01,9.99547e-01,9.37751e-01,9.99999e-01
7.765084837e-01,9.38340e-01,9.99999e-01,9.99999e-01,9.99359e-01,9.38942e-01,9.99998e-01
7.803910261e-01,9.37513e-01,9.99999e-01,9.99999e-01,9.97238e-01,9.40111e-01,9.99996e-01
7.842929812e-01,9.32203e-01,9.99999e-01,9.99999e-01,9.90396e-01,9.41258e-01,9.99981e-01
7.882144461e-01,9.23625e-01,9.99999e-01,9.99999e-01,9.80212e-01,9.42385e-01,9.99877e-01
7.921555184e-01,9.32964e-01,9.99999e-01,9.99999e-01,9.89076e-01,9.43490e-01,9.99763e-01
7.961162960e-01,9.26320e-01,9.99999e-01,9.99999e-01,9.80895e-01,9.44575e-01,9.99773e-01
8.000968774e-01,9.24485e-01,9.99999e-01,9.99999e-01,9.77864e-01,9.45639e-01,9.99758e-01
8.040973618e-01,9.25571e-01,9.99999e-01,9.99999e-01,9.77884e-01,9.46684e-01,9.99808e-01
8.081178486e-01,9.01287e-01,9.99999e-01,9.99999e-01,9.51186e-01,9.47709e-01,9.99820e-01
8.121584379e-01,7.71049e-01,9.99999e-01,9.99999e-01,8.13303e-01,9.48715e-01,9.99294e-01
8.162192301e-01,7.40748e-01,9.99999e-01,9.99999e-01,7.82050e-01,9.49702e-01,9.97352e-01
8.203003262e-01,8.42090e-01,9.99999e-01,9.99999e-01,8.88538e-01,9.50670e-01,9.96900e-01
8.244018279e-01,8.05047e-01,9.99999e-01,9.99999e-01,8.48066e-01,9.51621e-01,9.97532e-01
8.285238370e-01,8.20446e-01,9.99999e-01,9.99999e-01,8.62984e-01,9.52553e-01,9.98061e-01
8.326664562e-01,8.20899e-01,9.99999e-01,9.99999e-01,8.61651e-01,9.53468e-01,9.99197e-01
8.368297885e-01,8.57080e-01,9.99999e-01,9.99999e-01,8.98226e-01,9.54366e-01,9.99816e-01
8.410139374e-01,8.96003e-01,9.99999e-01,9.99999e-01,9.38080e-01,9.55247e-01,9.99892e-01
8.452190071e-01,9.26489e-01,9.99999e-01,9.99999e-01,9.69079e-01,9.56111e-01,9.99935e-01
8.494451021e-01,9.39654e-01,9.99999e-01,9.99999e-01,9.81966e-01,9.56959e-01,9.99948e-01
8.536923276e-01,9.47491e-01,9.99999e-01,9.99999e-01,9.89278e-01,9.57791e-01,9.99965e-01
8.579607893e-01,9.52268e-01,9.99999e-01,9.99999e-01,9.93395e-01,9.58607e-01,9.99990e-01
8.622505932e-01,9.55372e-01,9.99999e-01,9.99999e-01,9.95794e-01,9.59408e-01,9.99998e-01
8.665618462e-01,9.57699e-01,9.99999e-01,9.99999e-01,9.97401e-01,9.60194e-01,9.99998e-01
8.708946554e-01,9.58109e-01,9.99999e-01,9.99999e-01,9.97029e-01,9.60964e-01,9.99997e-01
8.752491287e-01,9.57894e-01,9.99999e-01,9.99999e-01,9.96025e-01,9.61720e-01,9.99995e-01
8.796253743e-01,9.57167e-01,9.99999e-01,9.99999e-01,9.94509e-01,9.62462e-01,9.99987e-01
8.840235012e-01,9.57113e-01,9.99999e-01,9.99999e-01,9.93728e-01,9.63190e-01,9.99961e-01
8.884436187e-01,9.42262e-01,9.99999e-01,9.99999e-01,9.77653e-01,9.63904e-01,9.99890e-01
8.928858368e-01,7.61595e-01,9.99999e-01,9.99999e-01,7.90037e-01,9.64604e-01,9.99370e-01
8.973502660e-01,6.34711e-01,9.99999e-01,9.99999e-01,6.59657e-01,9.65291e-01,9.96780e-01
9.018370173e-01,7.76583e-01,9.99999e-01,9.99999e-01,8.08032e-01,9.65964e-01,9.94942e-01
9.063462024e-01,7.98085e-01,9.99999e-01,9.99999e-01,8.29325e-01,9.66625e-01,9.95555e-01
9.108779334e-01,7.18848e-01,9.99999e-01,9.99999e-01,7.46616e-01,9.67274e-01,9.95382e-01
9.154323231e-01,6.90253e-01,9.99999e-01,9.99999e-01,7.15870e-01,9.67910e-01,9.96181e-01
9.200094847e-01,7.44659e-01,9.99999e-01,9.99999e-01,7.70499e-01,9.68533e-01,9.97860e-01
9.246095321e-01,6.58021e-01,9.99999e-01,9.99999e-01,6.80647e-01,9.69145e-01,9.97535e-01
9.292325798e-01,9.68039e-02,9.99999e-01,9.99999e-01,1.00789e-01,9.69745e-01,9.90424e-01
9.338787427e-01,4.38033e-02,9.99999e-01,9.99999e-01,4.69741e-02,9.70334e-01,9.61007e-01
9.385481364e-01,2.65824e-01,9.99999e-01,9.99999e-01,2.87050e-01,9.70911e-01,9.53797e-01
9.432408771e-01,1.81023e-01,9.99999e-01,9.99999e-01,1.94099e-01,9.71478e-01,9.60011e-01
9.479570815e-01,9.26529e-02,9.99999e-01,9.99999e-01,9.85376e-02,9.72033e-01,9.67331e-01
9.526968669e-01,1.55813e-01,9.99999e-01,9.99999e-01,1.63484e-01,9.72578e-01,9.79945e-01
9.574603512e-01,1.69712e-01,9.99999e-01,9.99999e-01,1.76205e-01,9.73112e-01,9.89762e-01
9.622476530e-01,2.26698e-01,9.99999e-01,9.99999e-01,2.34499e-01,9.73636e-01,9.92909e-01
9.670588912e-01,4.15027e-01,9.99999e-01,9.99999e-01,4.28118e-01,9.74150e-01,9.95145e-01
9.718941857e-01,5.58397e-01,9.99999e-01,9.99999e-01,5.74974e-01,9.74654e-01,9.96423e-01
9.767536566e-01,6.13573e-01,9.99999e-01,9.99999e-01,6.30934e-01,9.75148e-01,9.97265e-01
9.816374249e-01,6.90485e-01,9.99999e-01,9.99999e-01,7.08400e-01,9.75633e-01,9.99052e-01
9.865456120e-01,7.85865e-01,9.99999e-01,9.99999e-01,8.05258e-01,9.76109e-01,9.99802e-01
9.914783401e-01,8.53749e-01,9.99999e-01,9.99999e-01,8.74275e-01,9.76575e-01,9.99944e-01
9.964357318e-01,9.08028e-01,9.99999e-01,9.99999e-01,9.29402e-01,9.77032e-01,9.99967e-01
1.001417910e+00,9.35425e-01,9.99999e-01,9.99999e-01,9.57021e-01,9.77481e-01,9.99950e-01
1.006425000e+00,9.53684e-01,9.99999e-01,9.99999e-01,9.75283e-01,9.77921e-01,9.99929e-01
1.011457125e+00,9.63192e-01,9.99999e-01,9.99999e-01,9.84567e-01,9.78352e-01,9.99934e-01
1.016514411e+00,9.68459e-01,9.99999e-01,9.99999e-01,9.89504e-01,9.78775e-01,9.99953e-01
1.021596983e+00,9.70952e-01,9.99999e-01,9.99999e-01,9.91631e-01,9.79190e-01,9.99953e-01
1.026704968e+00,9.73170e-01,9.99999e-01,9.99999e-01,9.93469e-01,9.79597e-01,9.99968e-01
1.031838492e+00,9.75328e-01,9.99999e-01,9.99999e-01,9.95245e-01,9.79996e-01,9.99991e-01
1.036997685e+00,9.77618e-01,9.99999e-01,9.99999e-01,9.97176e-01,9.80387e-01,9.99998e-01
1.042182673e+00,9.77476e-01,9.99999e-01,9.99999e-01,9.96640e-01,9.80771e-01,9.99998e-01
1.047393587e+00,9.76773e-01,9.99999e-01,9.99999e-01,9.95543e-01,9.81147e-01,9.99998e-01
1.052630555e+00,9.75520e-01,9.99999e-01,9.99999e-01,9.93893e-01,9.81516e-01,9.99997e-01
1.057893707e+00,9.71893e-01,9.99999e-01,9.99999e-01,9.89834e-01,9.81877e-01,9.99996e-01
1.063183176e+00,9.65842e-01,9.99999e-01,9.99999e-01,9.83321e-01,9.82232e-01,9.99990e-01
1.068499092e+00,9.55265e-01,9.99999e-01,9.99999e-01,9.72218e-01,9.82580e-01,9.99980e-01
1.073841587e+00,9.51089e-01,9.99999e-01,9.99999e-01,9.67654e-01,9.82921e-01,9.99958e-01
1.079210795e+00,9.42461e-01,9.99999e-01,9.99999e-01,9.58618e-01,9.83256e-01,9.99887e-01
1.084606849e+00,9.22526e-01,9.99999e-01,9.99999e-01,9.38177e-01,9.83584e-01,9.99728e-01
1.090029883e+00,8.97741e-01,9.99999e-01,9.99999e-01,9.12938e-01,9.83905e-01,9.99437e-01
1.095480033e+00,7.67259e-01,9.99999e-01,9.99999e-01,7.80351e-01,9.84221e-01,9.98983e-01
1.100957433e+00,5.29345e-01,9.99999e-01,9.99999e-01,5.38668e-01,9.84530e-01,9.98131e-01
1.106462220e+00,2.22917e-01,9.99999e-01,9.99999e-01,2.27070e-01,9.84833e-01,9.96831e-01
1.111994531e+00,4.75291e-02,9.99999e-01,9.99999e-01,4.86545e-02,9.85130e-01,9.91612e-01
1.117554504e+00,9.13345e-03,9.99999e-01,9.99999e-01,9.55473e-03,9.85422e-01,9.70048e-01
1.123142276e+00,3.98443e-02,9.99999e-01,9.99999e-01,4.34446e-02,9.85708e-01,9.30426e-01
1.128757988e+00,9.51848e-02,9.99999e-01,9.99999e-01,1.04936e-01,9.85988e-01,9.19962e-01
1.134401778e+00,4.33923e-02,9.99999e-01,9.99999e-01,4.72309e-02,9.86263e-01,9.31522e-01
1.140073787e+00,2.23557e-01,9.99999e-01,9.99999e-01,2.39823e-01,9.86532e-01,9.44900e-01
1.145774156e+00,6.33308e-02,9.99999e-01,9.99999e-01,6.75955e-02,9.86797e-01,9.49444e-01
1.151503026e+00,4.79795e-02,9.99999e-01,9.99999e-01,5.00340e-02,9.87056e-01,9.71512e-01
1.157260541e+00,6.25510e-02,9.99999e-01,9.99999e-01,6.39048e-02,9.87310e-01,9.91395e-01
1.163046844e+00,1.25815e-01,9.99999e-01,9.99999e-01,1.27712e-01,9.87559e-01,9.97553e-01
1.168862078e+00,2.22102e-01,9.99999e-01,9.99999e-01,2.25128e-01,9.87803e-01,9.98738e-01
1.174706389e+00,3.90819e-01,9.99999e-01,9.99999e-01,3.96210e-01,9.88043e-01,9.98328e-01
1.180579921e+00,5.57788e-01,9.99999e-01,9.99999e-01,5.65832e-01,9.88277e-01,9.97473e-01
1.186482820e+00,7.12006e-01,9.99999e-01,9.99999e-01,7.22155e-01,9.88507e-01,9.97407e-01
1.192415234e+00,8.15417e-01,9.99999e-01,9.99999e-01,8.26313e-01,9.88733e-01,9.98057e-01
1.198377311e+00,8.40757e-01,9.99999e-01,9.99999e-01,8.51708e-01,9.88954e-01,9.98165e-01
1.204369197e+00,8.48981e-01,9.99999e-01,9.99999e-01,8.59701e-01,9.89171e-01,9.98339e-01
1.210391043e+00,8.54926e-01,9.99999e-01,9.99999e-01,8.64971e-01,9.89384e-01,9.98989e-01
1.216442998e+00,8.74053e-01,9.99999e-01,9.99999e-01,8.83791e-01,9.89593e-01,9.99380e-01
1.222525213e+00,8.98482e-01,9.99999e-01,9.99999e-01,9.08091e-01,9.89797e-01,9.99615e-01
1.228637839e+00,9.25706e-01,9.99999e-01,9.99999e-01,9.35225e-01,9.89998e-01,9.99820e-01
