#,Wave/freq,Total,N2,O2,H2O,Rayleigh,CIA
4.000000000e-01,9.16098e-02,9.99999e-01,9.99999e-01,9.99730e-01,9.16344e-02,9.99999e-01
4.020000000e-01,9.60526e-02,9.99999e-01,9.99999e-01,9.99832e-01,9.60686e-02,9.99999e-01
4.040100000e-01,1.00611e-01,9.99999e-01,9.99999e-01,9.99928e-01,1.00619e-01,9.99999e-01
4.060300500e-01,1.05286e-01,9.99999e-01,9.99999e-01,9.99983e-01,1.05288e-01,9.99999e-01
4.080602003e-01,1.10074e-01,9.99999e-01,9.99999e-01,9.99994e-01,1.10075e-01,9.99999e-01
4.101005013e-01,1.14979e-01,9.99999e-01,9.99999e-01,9.99999e-01,1.14979e-01,9.99999e-01
4.121510038e-01,1.19996e-01,9.99999e-01,9.99999e-01,9.99989e-01,1.19997e-01,9.99999e-01
4.142117588e-01,1.25120e-01,9.99999e-01,9.99999e-01,9.99924e-01,1.25130e-01,9.99999e-01
4.162828176e-01,1.30330e-01,9.99999e-01,9.99999e-01,9.99665e-01,1.30374e-01,9.99999e-01
4.183642317e-01,1.35700e-01,9.99999e-01,9.99999e-01,9.99801e-01,1.35727e-01,9.99999e-01
4.204560528e-01,1.41171e-01,9.99999e-01,9.99999e-01,9.99878e-01,1.41188e-01,9.99999e-01
4.225583331e-01,1.46748e-01,9.99999e-01,9.99999e-01,9.99954e-01,1.46755e-01,9.99999e-01
4.246711247e-01,1.52419e-01,9.99999e-01,9.99999e-01,9.99963e-01,1.52424e-01,9.99999e-01
4.267944804e-01,1.58186e-01,9.99999e-01,9.99999e-01,9.99946e-01,1.58195e-01,9.99999e-01
4.289284528e-01,1.64056e-01,9.99999e-01,9.99999e-01,9.99958e-01,1.64063e-01,9.99999e-01
4.310730950e-01,1.70023e-01,9.99999e-01,9.99999e-01,9.99982e-01,1.70026e-01,9.99999e-01
4.332284605e-01,1.76081e-01,9.99999e-01,9.99999e-01,9.99995e-01,1.76082e-01,9.99999e-01
4.353946028e-01,1.82227e-01,9.99999e-01,9.99999e-01,9.99997e-01,1.82227e-01,9.99999e-01
4.375715758e-01,1.88453e-01,9.99999e-01,9.99999e-01,9.99966e-01,1.88459e-01,9.99999e-01
4.397594337e-01,1.94718e-01,9.99999e-01,9.99999e-01,9.99704e-01,1.94775e-01,9.99999e-01
4.419582309e-01,2.00870e-01,9.99999e-01,9.99999e-01,9.98500e-01,2.01172e-01,9.99999e-01
4.441680220e-01,2.07406e-01,9.99999e-01,9.99999e-01,9.98841e-01,2.07646e-01,9.99999e-01
4.463888621e-01,2.13936e-01,9.99999e-01,9.99999e-01,9.98790e-01,2.14194e-01,9.99999e-01
4.486208064e-01,2.20649e-01,9.99999e-01,9.99999e-01,9.99250e-01,2.20814e-01,9.99999e-01
4.508639105e-01,2.27421e-01,9.99999e-01,9.99999e-01,9.99649e-01,2.27501e-01,9.99999e-01
4.531182300e-01,2.34220e-01,9.99999e-01,9.99999e-01,9.99861e-01,2.34253e-01,9.99999e-01
4.553838212e-01,2.41043e-01,9.99999e-01,9.99999e-01,9.99905e-01,2.41065e-01,9.99999e-01
4.576607403e-01,2.47925e-01,9.99999e-01,9.99999e-01,9.99956e-01,2.47936e-01,9.99999e-01
4.599490440e-01,2.54853e-01,9.99999e-01,9.99999e-01,9.99968e-01,2.54861e-01,9.99999e-01
4.622487892e-01,2.61835e-01,9.99999e-01,9.99999e-01,9.99994e-01,2.61836e-01,9.99999e-01
4.645600332e-01,2.68854e-01,9.99999e-01,9.99999e-01,9.99978e-01,2.68859e-01,9.99999e-01
4.668828333e-01,2.75828e-01,9.99999e-01,9.99999e-01,9.99643e-01,2.75926e-01,9.99999e-01
4.692172475e-01,2.82820e-01,9.99999e-01,9.99999e-01,9.99241e-01,2.83034e-01,9.99999e-01
4.715633337e-01,2.90035e-01,9.99999e-01,9.99999e-01,9.99503e-01,2.90179e-01,9.99999e-01
4.739211504e-01,2.97218e-01,9.99999e-01,9.99999e-01,9.99526e-01,2.97358e-01,9.99999e-01
4.762907561e-01,3.04493e-01,9.99999e-01,9.99999e-01,9.99754e-01,3.04568e-01,9.99999e-01
4.786722099e-01,3.11773e-01,9.99999e-01,9.99999e-01,9.99899e-01,3.11805e-01,9.99999e-01
4.810655710e-01,3.19056e-01,9.99999e-01,9.99999e-01,9.99969e-01,3.19065e-01,9.99999e-01
4.834708988e-01,3.26251e-01,9.99999e-01,9.99999e-01,9.99705e-01,3.26347e-01,9.99999e-01
4.858882533e-01,3.33467e-01,9.99999e-01,9.99999e-01,9.99463e-01,3.33646e-01,9.99999e-01
4.883176946e-01,3.40805e-01,9.99999e-01,9.99999e-01,9.99549e-01,3.40959e-01,9.99999e-01
4.907592831e-01,3.48142e-01,9.99999e-01,9.99999e-01,9.99594e-01,3.48283e-01,9.99999e-01
4.932130795e-01,3.55513e-01,9.99999e-01,9.99999e-01,9.99711e-01,3.55615e-01,9.99999e-01
4.956791449e-01,3.62897e-01,9.99999e-01,9.99999e-01,9.99847e-01,3.62952e-01,9.99999e-01
4.981575406e-01,3.70008e-01,9.99999e-01,9.99999e-01,9.99236e-01,3.70291e-01,9.99999e-01
5.006483283e-01,3.76875e-01,9.99999e-01,9.99999e-01,9.98015e-01,3.77629e-01,9.99986e-01
5.031515699e-01,3.81085e-01,9.99999e-01,9.99999e-01,9.90029e-01,3.84964e-01,9.99894e-01
5.056673278e-01,3.90176e-01,9.99999e-01,9.99999e-01,9.94727e-01,3.92291e-01,9.99879e-01
5.081956644e-01,3.96925e-01,9.99999e-01,9.99999e-01,9.93353e-01,3.99609e-01,9.99926e-01
5.107366428e-01,4.05085e-01,9.99999e-01,9.99999e-01,9.95511e-01,4.06916e-01,9.99987e-01
5.132903260e-01,4.13145e-01,9.99999e-01,9.99999e-01,9.97435e-01,4.14207e-01,9.99997e-01
5.158567776e-01,4.21025e-01,9.99999e-01,9.99999e-01,9.98917e-01,4.21482e-01,9.99999e-01
5.184360615e-01,4.28550e-01,9.99999e-01,9.99999e-01,9.99566e-01,4.28736e-01,9.99999e-01
5.210282418e-01,4.35898e-01,9.99999e-01,9.99999e-01,9.99837e-01,4.35969e-01,9.99999e-01
5.236333830e-01,4.42885e-01,9.99999e-01,9.99999e-01,9.99346e-01,4.43177e-01,9.99994e-01
5.262515499e-01,4.50171e-01,9.99999e-01,9.99999e-01,9.99591e-01,4.50358e-01,9.99993e-01
5.288828077e-01,4.57337e-01,9.99999e-01,9.99999e-01,9.99623e-01,4.57510e-01,9.99995e-01
5.315272217e-01,4.64479e-01,9.99999e-01,9.99999e-01,9.99671e-01,4.64632e-01,9.99998e-01
5.341848578e-01,4.71618e-01,9.99999e-01,9.99999e-01,9.99783e-01,4.71720e-01,9.99999e-01
5.368557821e-01,4.78408e-01,9.99999e-01,9.99999e-01,9.99237e-01,4.78773e-01,9.99997e-01
5.395400610e-01,4.84440e-01,9.99999e-01,9.99999e-01,9.97243e-01,4.85789e-01,9.99977e-01
5.422377613e-01,4.90992e-01,9.99999e-01,9.99999e-01,9.96462e-01,4.92767e-01,9.99935e-01
5.449489501e-01,4.98021e-01,9.99999e-01,9.99999e-01,9.96697e-01,4.99704e-01,9.99933e-01
5.476736949e-01,5.05107e-01,9.99999e-01,9.99999e-01,9.97087e-01,5.06598e-01,9.99967e-01
5.504120634e-01,5.12359e-01,9.99999e-01,9.99999e-01,9.97885e-01,5.13449e-01,9.99990e-01
5.531641237e-01,5.19701e-01,9.99999e-01,9.99999e-01,9.98936e-01,5.20254e-01,9.99998e-01
5.559299443e-01,5.26743e-01,9.99999e-01,9.99999e-01,9.99486e-01,5.27013e-01,9.99999e-01
5.587095940e-01,5.33551e-01,9.99999e-01,9.99999e-01,9.99677e-01,5.33723e-01,9.99999e-01
5.615031420e-01,5.40189e-01,9.99999e-01,9.99999e-01,9.99640e-01,5.40383e-01,9.99998e-01
5.643106577e-01,5.46767e-01,9.99999e-01,9.99999e-01,9.99589e-01,5.46993e-01,9.99996e-01
5.671322110e-01,5.50771e-01,9.99999e-01,9.99999e-01,9.95020e-01,5.53551e-01,9.99955e-01
5.699678720e-01,5.57051e-01,9.99999e-01,9.99999e-01,9.94769e-01,5.60055e-01,9.99865e-01
5.728177114e-01,5.63337e-01,9.99999e-01,9.99999e-01,9.94517e-01,5.66505e-01,9.99887e-01
5.756818000e-01,5.69984e-01,9.99999e-01,9.99999e-01,9.94974e-01,5.72900e-01,9.99934e-01
5.785602090e-01,5.76693e-01,9.99999e-01,9.99999e-01,9.95624e-01,5.79238e-01,9.99980e-01
5.814530100e-01,5.82938e-01,9.99999e-01,9.99999e-01,9.95601e-01,5.85519e-01,9.99990e-01
5.843602750e-01,5.88614e-01,9.99999e-01,9.99999e-01,9.94741e-01,5.91743e-01,9.99970e-01
5.872820764e-01,5.71366e-01,9.99999e-01,9.99999e-01,9.55913e-01,5.97907e-01,9.99682e-01
5.902184868e-01,5.71314e-01,9.99999e-01,9.99999e-01,9.46683e-01,6.04012e-01,9.99134e-01
5.931695792e-01,5.86477e-01,9.99999e-01,9.99999e-01,9.62147e-01,6.10057e-01,9.99167e-01
5.961354271e-01,5.90195e-01,9.99999e-01,9.99999e-01,9.58502e-01,6.16042e-01,9.99521e-01
5.991161043e-01,6.02925e-01,9.99999e-01,9.99999e-01,9.69530e-01,6.21965e-01,9.99851e-01
6.021116848e-01,6.16897e-01,9.99999e-01,9.99999e-01,9.82607e-01,6.27826e-01,9.99983e-01
6.051222432e-01,6.28027e-01,9.99999e-01,9.99999e-01,9.91164e-01,6.33625e-01,9.99998e-01
6.081478544e-01,6.36919e-01,9.99999e-01,9.99999e-01,9.96178e-01,6.39362e-01,9.99999e-01
6.111885937e-01,6.43994e-01,9.99999e-01,9.99999e-01,9.98384e-01,6.45036e-01,9.99999e-01
6.142445367e-01,6.50177e-01,9.99999e-01,9.99999e-01,9.99277e-01,6.50646e-01,9.99999e-01
6.173157594e-01,6.55932e-01,9.99999e-01,9.99999e-01,9.99601e-01,6.56194e-01,9.99999e-01
6.204023382e-01,6.61453e-01,9.99999e-01,9.99999e-01,9.99661e-01,6.61677e-01,9.99999e-01
6.235043498e-01,6.66094e-01,9.99999e-01,9.99999e-01,9.98499e-01,6.67097e-01,9.99995e-01
6.266218716e-01,6.67127e-01,9.99999e-01,9.99999e-01,9.92134e-01,6.72452e-01,9.99944e-01
6.297549810e-01,6.75709e-01,9.99999e-01,9.99999e-01,9.97108e-01,6.77744e-01,9.99888e-01
6.329037559e-01,6.79017e-01,9.99999e-01,9.99999e-01,9.94297e-01,6.82971e-01,9.99910e-01
6.360682746e-01,6.84749e-01,9.99999e-01,9.99999e-01,9.95132e-01,6.88134e-01,9.99947e-01
6.392486160e-01,6.88852e-01,9.99999e-01,9.99999e-01,9.93702e-01,6.93234e-01,9.99976e-01
6.424448591e-01,6.92342e-01,9.99999e-01,9.99999e-01,9.91552e-01,6.98269e-01,9.99957e-01
6.456570834e-01,6.75991e-01,9.99999e-01,9.99999e-01,9.61479e-01,7.03240e-01,9.99762e-01
6.488853688e-01,6.87784e-01,9.99999e-01,9.99999e-01,9.71833e-01,7.08147e-01,9.99392e-01
6.521297956e-01,6.92222e-01,9.99999e-01,9.99999e-01,9.71356e-01,7.12991e-01,9.99498e-01
6.553904446e-01,6.96882e-01,9.99999e-01,9.99999e-01,9.71259e-01,7.17771e-01,9.99626e-01
6.586673968e-01,7.04653e-01,9.99999e-01,9.99999e-01,9.75436e-01,7.22488e-01,9.99874e-01
6.619607338e-01,7.17101e-01,9.99999e-01,9.99999e-01,9.86216e-01,7.27142e-01,9.99972e-01
6.652705375e-01,7.25652e-01,9.99999e-01,9.99999e-01,9.91702e-01,7.31733e-01,9.99986e-01
6.685968902e-01,7.33659e-01,9.99999e-01,9.99999e-01,9.96467e-01,7.36261e-01,9.99997e-01
6.719398746e-01,7.39403e-01,9.99999e-01,9.99999e-01,9.98211e-01,7.40727e-01,9.99999e-01
6.752995740e-01,7.44408e-01,9.99999e-01,9.99999e-01,9.99028e-01,7.45131e-01,9.99999e-01
6.786760719e-01,7.48418e-01,9.99999e-01,9.99999e-01,9.98592e-01,7.49474e-01,9.99997e-01
6.820694522e-01,7.51932e-01,9.99999e-01,9.99999e-01,9.97593e-01,7.53755e-01,9.99987e-01
6.854797995e-01,7.55602e-01,9.99999e-01,9.99999e-01,9.96894e-01,7.57976e-01,9.99972e-01
6.889071985e-01,7.56345e-01,9.99999e-01,9.99999e-01,9.92467e-01,7.62136e-01,9.99932e-01
6.923517345e-01,6.77979e-01,9.99999e-01,9.99999e-01,8.85335e-01,7.66236e-01,9.99413e-01
6.958134932e-01,7.22637e-01,9.99999e-01,9.99999e-01,9.39372e-01,7.70277e-01,9.98700e-01
6.992925606e-01,7.27920e-01,9.99999e-01,9.99999e-01,9.41252e-01,7.74258e-01,9.98829e-01
7.027890234e-01,7.21673e-01,9.99999e-01,9.99999e-01,9.28213e-01,7.78181e-01,9.99105e-01
7.063029686e-01,7.34077e-01,9.99999e-01,9.99999e-01,9.39079e-01,7.82045e-01,9.99554e-01
7.098344834e-01,7.39621e-01,9.99999e-01,9.99999e-01,9.41418e-01,7.85852e-01,9.99736e-01
7.133836558e-01,7.28453e-01,9.99999e-01,9.99999e-01,9.23038e-01,7.89602e-01,9.99476e-01
7.169505741e-01,4.33652e-01,9.99999e-01,9.99999e-01,5.48902e-01,7.93295e-01,9.95890e-01
7.205353270e-01,5.86353e-01,9.99999e-01,9.99999e-01,7.41127e-01,7.96931e-01,9.92761e-01
7.241380036e-01,5.40638e-01,9.99999e-01,9.99999e-01,6.79614e-01,8.00513e-01,9.93746e-01
7.277586936e-01,5.65012e-01,9.99999e-01,9.99999e-01,7.06329e-01,8.04039e-01,9.94885e-01
7.313974871e-01,5.53760e-01,9.99999e-01,9.99999e-01,6.87410e-01,8.07510e-01,9.97600e-01
7.350544745e-01,6.58652e-01,9.99999e-01,9.99999e-01,8.12898e-01,8.10927e-01,9.99165e-01
7.387297469e-01,6.97966e-01,9.99999e-01,9.99999e-01,8.57472e-01,8.14291e-01,9.99617e-01
7.424233956e-01,7.58091e-01,9.99999e-01,9.99999e-01,9.27273e-01,8.17602e-01,9.99933e-01
7.461355126e-01,7.84064e-01,9.99999e-01,9.99999e-01,9.55182e-01,8.20861e-01,9.99988e-01
7.498661902e-01,8.06672e-01,9.99999e-01,9.99999e-01,9.78894e-01,8.24068e-01,9.99994e-01
7.536155211e-01,8.18597e-01,9.99999e-01,9.99999e-01,9.89573e-01,8.27224e-01,9.99996e-01
7.573835987e-01,8.25862e-01,9.99999e-01,9.99999e-01,9.94620e-01,8.30329e-01,9.99998e-01
7.611705167e-01,8.30596e-01,9.99999e-01,9.99999e-01,9.96654e-01,8.33384e-01,9.99999e-01
7.649763693e-01,8.34634e-01,9.99999e-01,9.99999e-01,9.97900e-01,8.36389e-01,9.99999e-01
7.688012511e-01,8.38118e-01,9.99999e-01,9.99999e-01,9.98537e-01,8.39346e-01,9.99999e-01
7.726452574e-01,8.41240e-01,9.99999e-01,9.99999e-01,9.98795e-01,8.42255e-01,9.99998e-01
7.765084837e-01,8.43663e-01,9.99999e-01,9.99999e-01,9.98282e-01,8.45116e-01,9.99997e-01
7.803910261e-01,8.41642e-01,9.99999e-01,9.99999e-01,9.92591e-01,8.47929e-01,9.99992e-01
7.842929812e-01,8.28884e-01,9.99999e-01,9.99999e-01,9.74404e-01,8.50697e-01,9.99952e-01
7.882144461e-01,8.08851e-01,9.99999e-01,9.99999e-01,9.48123e-01,8.53418e-01,9.99634e-01
7.921555184e-01,8.31009e-01,9.99999e-01,9.99999e-01,9.71313e-01,8.56094e-01,9.99365e-01
7.961162960e-01,8.15015e-01,9.99999e-01,9.99999e-01,9.49670e-01,8.58726e-01,9.99396e-01
8.000968774e-01,8.10836e-01,9.99999e-01,9.99999e-01,9.41999e-01,8.61313e-01,9.99357e-01
8.040973618e-01,8.13384e-01,9.99999e-01,9.99999e-01,9.42033e-01,8.63857e-01,9.99510e-01
8.081178486e-01,7.57918e-01,9.99999e-01,9.99999e-01,8.75265e-01,8.66358e-01,9.99503e-01
8.121584379e-01,5.07259e-01,9.99999e-01,9.99999e-01,5.84948e-01,8.68816e-01,9.98122e-01
8.162192301e-01,4.62141e-01,9.99999e-01,9.99999e-01,5.34206e-01,8.71233e-01,9.92956e-01
8.203003262e-01,6.44168e-01,9.99999e-01,9.99999e-01,7.43491e-01,8.73608e-01,9.91757e-01
8.244018279e-01,5.87750e-01,9.99999e-01,9.99999e-01,6.75425e-01,8.75943e-01,9.93435e-01
8.285238370e-01,5.94428e-01,9.99999e-01,9.99999e-01,6.80351e-01,8.78237e-01,9.94840e-01
8.326664562e-01,5.97483e-01,9.99999e-01,9.99999e-01,6.80031e-01,8.80493e-01,9.97862e-01
8.368297885e-01,6.65545e-01,9.99999e-01,9.99999e-01,7.54348e-01,8.82709e-01,9.99511e-01
8.410139374e-01,7.47355e-01,9.99999e-01,9.99999e-01,8.44818e-01,8.84887e-01,9.99713e-01
8.452190071e-01,8.16150e-01,9.99999e-01,9.99999e-01,9.20252e-01,8.87027e-01,9.99828e-01
8.494451021e-01,8.46974e-01,9.99999e-01,9.99999e-01,9.52717e-01,8.89130e-01,9.99862e-01
8.536923276e-01,8.65999e-01,9.99999e-01,9.99999e-01,9.71806e-01,8.91196e-01,9.99916e-01
8.579607893e-01,8.77590e-01,9.99999e-01,9.99999e-01,9.82514e-01,8.93226e-01,9.99979e-01
8.622505932e-01,8.85253e-01,9.99999e-01,9.99999e-01,9.88868e-01,8.95221e-01,9.99996e-01
8.665618462e-01,8.90979e-01,9.99999e-01,9.99999e-01,9.93089e-01,8.97180e-01,9.99997e-01
8.708946554e-01,8.91982e-01,9.99999e-01,9.99999e-01,9.92082e-01,8.99105e-01,9.99995e-01
8.752491287e-01,8.91456e-01,9.99999e-01,9.99999e-01,9.89422e-01,9.00996e-01,9.99988e-01
8.796253743e-01,8.89607e-01,9.99999e-01,9.99999e-01,9.85360e-01,9.02853e-01,9.99966e-01
8.840235012e-01,8.89487e-01,9.99999e-01,9.99999e-01,9.83309e-01,9.04677e-01,9.99897e-01
8.884436187e-01,8.52970e-01,9.99999e-01,9.99999e-01,9.41253e-01,9.06469e-01,9.99709e-01
8.928858368e-01,4.97470e-01,9.99999e-01,9.99999e-01,5.48655e-01,9.08229e-01,9.98323e-01
8.973502660e-01,3.18714e-01,9.99999e-01,9.99999e-01,3.53275e-01,9.09957e-01,9.91438e-01
9.018370173e-01,5.29429e-01,9.99999e-01,9.99999e-01,5.88638e-01,9.11655e-01,9.86571e-01
9.063462024e-01,5.59796e-01,9.99999e-01,9.99999e-01,6.20244e-01,9.13322e-01,9.88194e-01
9.108779334e-01,4.31213e-01,9.99999e-01,9.99999e-01,4.77143e-01,9.14959e-01,9.87735e-01
9.154323231e-01,3.85912e-01,9.99999e-01,9.99999e-01,4.25357e-01,9.16567e-01,9.89851e-01
9.200094847e-01,4.72412e-01,9.99999e-01,9.99999e-01,5.17473e-01,9.18145e-01,9.94307e-01
9.246095321e-01,3.53005e-01,9.99999e-01,9.99999e-01,3.86361e-01,9.19695e-01,9.93443e-01
9.292325798e-01,1.25524e-02,9.99999e-01,9.99999e-01,1.39799e-02,9.21217e-01,9.74673e-01
9.338787427e-01,9.88872e-04,9.99999e-01,9.99999e-01,1.19160e-03,9.22712e-01,8.99382e-01
9.385481364e-01,5.15008e-02,9.99999e-01,9.99999e-01,6.32169e-02,9.24179e-01,8.81503e-01
9.432408771e-01,2.31950e-02,9.99999e-01,9.99999e-01,2.79394e-02,9.25620e-01,8.96899e-01
9.479570815e-01,3.71597e-03,9.99999e-01,9.99999e-01,4.37961e-03,9.27034e-01,9.15250e-01
9.526968669e-01,1.22619e-02,9.99999e-01,9.99999e-01,1.39402e-02,9.28422e-01,9.47418e-01
9.574603512e-01,1.56908e-02,9.99999e-01,9.99999e-01,1.73451e-02,9.29785e-01,9.72935e-01
9.622476530e-01,3.06636e-02,9.99999e-01,9.99999e-01,3.35626e-02,9.31123e-01,9.81206e-01
9.670588912e-01,1.22252e-01,9.99999e-01,9.99999e-01,1.32823e-01,9.32437e-01,9.87108e-01
9.718941857e-01,2.25070e-01,9.99999e-01,9.99999e-01,2.43358e-01,9.33726e-01,9.90494e-01
9.767536566e-01,2.85668e-01,9.99999e-01,9.99999e-01,3.07768e-01,9.34991e-01,9.92727e-01
9.816374249e-01,3.81518e-01,9.99999e-01,9.99999e-01,4.08533e-01,9.36234e-01,9.97477e-01
9.865456120e-01,5.30965e-01,9.99999e-01,9.99999e-01,5.66688e-01,9.37453e-01,9.99473e-01
9.914783401e-01,6.57923e-01,9.99999e-01,9.99999e-01,7.01026e-01,9.38650e-01,9.99853e-01
9.964357318e-01,7.74218e-01,9.99999e-01,9.99999e-01,8.23859e-01,9.39824e-01,9.99914e-01
1.001417910e+00,8.37377e-01,9.99999e-01,9.99999e-01,8.90016e-01,9.40977e-01,9.99869e-01
1.006425000e+00,8.81228e-01,9.99999e-01,9.99999e-01,9.35551e-01,9.42108e-01,9.99814e-01
1.011457125e+00,9.04909e-01,9.99999e-01,9.99999e-01,9.59549e-01,9.43219e-01,9.99827e-01
1.016514411e+00,9.18063e-01,9.99999e-01,9.99999e-01,9.72324e-01,9.44308e-01,9.99878e-01
1.021596983e+00,9.24349e-01,9.99999e-01,9.99999e-01,9.77872e-01,9.45378e-01,9.99880e-01
1.026704968e+00,9.29980e-01,9.99999e-01,9.99999e-01,9.82694e-01,9.46427e-01,9.99924e-01
1.031838492e+00,9.35506e-01,9.99999e-01,9.99999e-01,9.87407e-01,9.47457e-01,9.99977e-01
1.036997685e+00,9.41347e-01,9.99999e-01,9.99999e-01,9.92495e-01,9.48468e-01,9.99995e-01
1.042182673e+00,9.40954e-01,9.99999e-01,9.99999e-01,9.91042e-01,9.49460e-01,9.99997e-01
1.047393587e+00,9.39167e-01,9.99999e-01,9.99999e-01,9.88148e-01,9.50433e-01,9.99997e-01
1.052630555e+00,9.35938e-01,9.99999e-01,9.99999e-01,9.83764e-01,9.51388e-01,9.99995e-01
1.057893707e+00,9.26641e-01,9.99999e-01,9.99999e-01,9.73039e-01,9.52324e-01,9.99990e-01
1.063183176e+00,9.11383e-01,9.99999e-01,9.99999e-01,9.56107e-01,9.53244e-01,9.99976e-01
1.068499092e+00,8.85169e-01,9.99999e-01,9.99999e-01,9.27754e-01,9.54146e-01,9.99948e-01
1.073841587e+00,8.75068e-01,9.99999e-01,9.99999e-01,9.16373e-01,9.55031e-01,9.99888e-01
1.079210795e+00,8.54244e-01,9.99999e-01,9.99999e-01,8.93922e-01,9.55899e-01,9.99699e-01
1.084606849e+00,8.07395e-01,9.99999e-01,9.99999e-01,8.44502e-01,9.56751e-01,9.99277e-01
1.090029883e+00,7.51578e-01,9.99999e-01,9.99999e-01,7.86042e-01,9.57587e-01,9.98503e-01
1.095480033e+00,4.98454e-01,9.99999e-01,9.99999e-01,5.21496e-01,9.58407e-01,9.97294e-01
1.100957433e+00,1.99401e-01,9.99999e-01,9.99999e-01,2.08920e-01,9.59212e-01,9.95025e-01
1.106462220e+00,2.90826e-02,9.99999e-01,9.99999e-01,3.05516e-02,9.60001e-01,9.91576e-01
1.111994531e+00,7.74430e-04,9.99999e-01,9.99999e-01,8.24352e-04,9.60775e-01,9.77792e-01
1.117554504e+00,3.19278e-05,9.99999e-01,9.99999e-01,3.60094e-05,9.61535e-01,9.22119e-01
1.123142276e+00,9.60878e-04,9.99999e-01,9.99999e-01,1.21024e-03,9.62280e-01,8.25079e-01
1.128757988e+00,3.70562e-03,9.99999e-01,9.99999e-01,4.80651e-03,9.63011e-01,8.00569e-01
1.134401778e+00,2.93583e-03,9.99999e-01,9.99999e-01,3.68058e-03,9.63728e-01,8.27674e-01
1.140073787e+00,2.44843e-02,9.99999e-01,9.99999e-01,2.95287e-02,9.64432e-01,8.59747e-01
1.145774156e+00,2.52691e-03,9.99999e-01,9.99999e-01,3.00663e-03,9.65122e-01,8.70815e-01
1.151503026e+00,9.59487e-04,9.99999e-01,9.99999e-01,1.07304e-03,9.65799e-01,9.25835e-01
1.157260541e+00,1.10506e-03,9.99999e-01,9.99999e-01,1.17005e-03,9.66463e-01,9.77223e-01
1.163046844e+00,6.39363e-03,9.99999e-01,9.99999e-01,6.65434e-03,9.67115e-01,9.93491e-01
1.168862078e+00,2.44407e-02,9.99999e-01,9.99999e-01,2.53402e-02,9.67754e-01,9.96641e-01
1.174706389e+00,9.30109e-02,9.99999e-01,9.99999e-01,9.64771e-02,9.68380e-01,9.95550e-01
1.180579921e+00,2.23925e-01,9.99999e-01,9.99999e-01,2.32654e-01,9.68995e-01,9.93279e-01
1.186482820e+00,4.09990e-01,9.99999e-01,9.99999e-01,4.25781e-01,9.69598e-01,9.93102e-01
1.192415234e+00,5.82267e-01,9.99999e-01,9.99999e-01,6.03276e-01,9.70190e-01,9.94830e-01
1.198377311e+00,6.31342e-01,9.99999e-01,9.99999e-01,6.53543e-01,9.70770e-01,9.95116e-01
1.204369197e+00,6.50543e-01,9.99999e-01,9.99999e-01,6.72711e-01,9.71339e-01,9.95580e-01
1.210391043e+00,6.61119e-01,9.99999e-01,9.99999e-01,6.82070e-01,9.71897e-01,9.97309e-01
1.216442998e+00,7.01345e-01,9.99999e-01,9.99999e-01,7.22409e-01,9.72444e-01,9.98350e-01
1.222525213e+00,7.52847e-01,9.99999e-01,9.99999e-01,7.74546e-01,9.72981e-01,9.98975e-01
1.228637839e+00,8.14459e-01,9.99999e-01,9.99999e-01,8.37021e-01,9.73508e-01,9.99523e-01
