#,Wave/freq,Total,N2,O2,H2O,Rayleigh,CIA
4.000000000e-01,8.55560e-01,9.99999e-01,9.99999e-01,9.99981e-01,8.55575e-01,9.99999e-01
4.020000000e-01,8.58209e-01,9.99999e-01,9.99999e-01,9.99988e-01,8.58218e-01,9.99999e-01
4.040100000e-01,8.60810e-01,9.99999e-01,9.99999e-01,9.99994e-01,8.60814e-01,9.99999e-01
4.060300500e-01,8.63365e-01,9.99999e-01,9.99999e-01,9.99998e-01,8.63366e-01,9.99999e-01
4.080602003e-01,8.65875e-01,9.99999e-01,9.99999e-01,9.99999e-01,8.65875e-01,9.99999e-01
4.101005013e-01,8.68341e-01,9.99999e-01,9.99999e-01,9.99999e-01,8.68341e-01,9.99999e-01
4.121510038e-01,8.70766e-01,9.99999e-01,9.99999e-01,9.99998e-01,8.70766e-01,9.99999e-01
4.142117588e-01,8.73145e-01,9.99999e-01,9.99999e-01,9.99994e-01,8.73150e-01,9.99999e-01
4.162828176e-01,8.75473e-01,9.99999e-01,9.99999e-01,9.99977e-01,8.75492e-01,9.99999e-01
4.183642317e-01,8.77783e-01,9.99999e-01,9.99999e-01,9.99986e-01,8.77795e-01,9.99999e-01
4.204560528e-01,8.80051e-01,9.99999e-01,9.99999e-01,9.99991e-01,8.80057e-01,9.99999e-01
4.225583331e-01,8.82279e-01,9.99999e-01,9.99999e-01,9.99996e-01,8.82281e-01,9.99999e-01
4.246711247e-01,8.84465e-01,9.99999e-01,9.99999e-01,9.99997e-01,8.84467e-01,9.99999e-01
4.267944804e-01,8.86611e-01,9.99999e-01,9.99999e-01,9.99996e-01,8.86614e-01,9.99999e-01
4.289284528e-01,8.88722e-01,9.99999e-01,9.99999e-01,9.99996e-01,8.88724e-01,9.99999e-01
4.310730950e-01,8.90796e-01,9.99999e-01,9.99999e-01,9.99998e-01,8.90797e-01,9.99999e-01
4.332284605e-01,8.92834e-01,9.99999e-01,9.99999e-01,9.99999e-01,8.92834e-01,9.99999e-01
4.353946028e-01,8.94836e-01,9.99999e-01,9.99999e-01,9.99999e-01,8.94836e-01,9.99999e-01
4.375715758e-01,8.96800e-01,9.99999e-01,9.99999e-01,9.99997e-01,8.96802e-01,9.99999e-01
4.397594337e-01,8.98716e-01,9.99999e-01,9.99999e-01,9.99980e-01,8.98733e-01,9.99999e-01
4.419582309e-01,9.00542e-01,9.99999e-01,9.99999e-01,9.99900e-01,9.00631e-01,9.99999e-01
4.441680220e-01,9.02427e-01,9.99999e-01,9.99999e-01,9.99924e-01,9.02495e-01,9.99999e-01
4.463888621e-01,9.04254e-01,9.99999e-01,9.99999e-01,9.99920e-01,9.04325e-01,9.99999e-01
4.486208064e-01,9.06079e-01,9.99999e-01,9.99999e-01,9.99950e-01,9.06123e-01,9.99999e-01
4.508639105e-01,9.07869e-01,9.99999e-01,9.99999e-01,9.99976e-01,9.07889e-01,9.99999e-01
4.531182300e-01,9.09616e-01,9.99999e-01,9.99999e-01,9.99990e-01,9.09624e-01,9.99999e-01
4.553838212e-01,9.11322e-01,9.99999e-01,9.99999e-01,9.99993e-01,9.11328e-01,9.99999e-01
4.576607403e-01,9.12998e-01,9.99999e-01,9.99999e-01,9.99996e-01,9.13000e-01,9.99999e-01
4.599490440e-01,9.14642e-01,9.99999e-01,9.99999e-01,9.99997e-01,9.14643e-01,9.99999e-01
4.622487892e-01,9.16256e-01,9.99999e-01,9.99999e-01,9.99999e-01,9.16257e-01,9.99999e-01
4.645600332e-01,9.17840e-01,9.99999e-01,9.99999e-01,9.99998e-01,9.17841e-01,9.99999e-01
4.668828333e-01,9.19375e-01,9.99999e-01,9.99999e-01,9.99976e-01,9.19396e-01,9.99999e-01
4.692172475e-01,9.20878e-01,9.99999e-01,9.99999e-01,9.99950e-01,9.20924e-01,9.99999e-01
4.715633337e-01,9.22394e-01,9.99999e-01,9.99999e-01,9.99967e-01,9.22424e-01,9.99999e-01
4.739211504e-01,9.23868e-01,9.99999e-01,9.99999e-01,9.99968e-01,9.23896e-01,9.99999e-01
4.762907561e-01,9.25327e-01,9.99999e-01,9.99999e-01,9.99983e-01,9.25342e-01,9.99999e-01
4.786722099e-01,9.26755e-01,9.99999e-01,9.99999e-01,9.99992e-01,9.26761e-01,9.99999e-01
4.810655710e-01,9.28152e-01,9.99999e-01,9.99999e-01,9.99997e-01,9.28154e-01,9.99999e-01
4.834708988e-01,9.29504e-01,9.99999e-01,9.99999e-01,9.99980e-01,9.29522e-01,9.99999e-01
4.858882533e-01,9.30833e-01,9.99999e-01,9.99999e-01,9.99964e-01,9.30865e-01,9.99999e-01
4.883176946e-01,9.32156e-01,9.99999e-01,9.99999e-01,9.99970e-01,9.32183e-01,9.99999e-01
4.907592831e-01,9.33452e-01,9.99999e-01,9.99999e-01,9.99973e-01,9.33477e-01,9.99999e-01
4.932130795e-01,9.34730e-01,9.99999e-01,9.99999e-01,9.99980e-01,9.34747e-01,9.99999e-01
4.956791449e-01,9.35985e-01,9.99999e-01,9.99999e-01,9.99989e-01,9.35994e-01,9.99999e-01
4.981575406e-01,9.37171e-01,9.99999e-01,9.99999e-01,9.99949e-01,9.37218e-01,9.99999e-01
5.006483283e-01,9.38295e-01,9.99999e-01,9.99999e-01,9.99868e-01,9.38419e-01,9.99998e-01
5.031515699e-01,9.38975e-01,9.99999e-01,9.99999e-01,9.99343e-01,9.39598e-01,9.99992e-01
5.056673278e-01,9.40423e-01,9.99999e-01,9.99999e-01,9.99654e-01,9.40755e-01,9.99991e-01
5.081956644e-01,9.41476e-01,9.99999e-01,9.99999e-01,9.99564e-01,9.41890e-01,9.99994e-01
5.107366428e-01,9.42727e-01,9.99999e-01,9.99999e-01,9.99706e-01,9.43005e-01,9.99998e-01
5.132903260e-01,9.43940e-01,9.99999e-01,9.99999e-01,9.99832e-01,9.44098e-01,9.99999e-01
5.158567776e-01,9.45105e-01,9.99999e-01,9.99999e-01,9.99928e-01,9.45172e-01,9.99999e-01
5.184360615e-01,9.46198e-01,9.99999e-01,9.99999e-01,9.99971e-01,9.46225e-01,9.99999e-01
5.210282418e-01,9.47249e-01,9.99999e-01,9.99999e-01,9.99988e-01,9.47259e-01,9.99999e-01
5.236333830e-01,9.48232e-01,9.99999e-01,9.99999e-01,9.99956e-01,9.48273e-01,9.99999e-01
5.262515499e-01,9.49243e-01,9.99999e-01,9.99999e-01,9.99972e-01,9.49268e-01,9.99999e-01
5.288828077e-01,9.50221e-01,9.99999e-01,9.99999e-01,9.99974e-01,9.50245e-01,9.99999e-01
5.315272217e-01,9.51183e-01,9.99999e-01,9.99999e-01,9.99978e-01,9.51203e-01,9.99999e-01
5.341848578e-01,9.52130e-01,9.99999e-01,9.99999e-01,9.99985e-01,9.52144e-01,9.99999e-01
5.368557821e-01,9.53019e-01,9.99999e-01,9.99999e-01,9.99949e-01,9.53066e-01,9.99999e-01
5.395400610e-01,9.53797e-01,9.99999e-01,9.99999e-01,9.99817e-01,9.53972e-01,9.99997e-01
5.422377613e-01,9.54636e-01,9.99999e-01,9.99999e-01,9.99768e-01,9.54860e-01,9.99995e-01
5.449489501e-01,9.55521e-01,9.99999e-01,9.99999e-01,9.99783e-01,9.55732e-01,9.99995e-01
5.476736949e-01,9.56403e-01,9.99999e-01,9.99999e-01,9.99809e-01,9.56587e-01,9.99997e-01
5.504120634e-01,9.57293e-01,9.99999e-01,9.99999e-01,9.99861e-01,9.57426e-01,9.99998e-01
5.531641237e-01,9.58182e-01,9.99999e-01,9.99999e-01,9.99930e-01,9.58249e-01,9.99999e-01
5.559299443e-01,9.59024e-01,9.99999e-01,9.99999e-01,9.99966e-01,9.59056e-01,9.99999e-01
5.587095940e-01,9.59829e-01,9.99999e-01,9.99999e-01,9.99978e-01,9.59849e-01,9.99999e-01
5.615031420e-01,9.60603e-01,9.99999e-01,9.99999e-01,9.99976e-01,9.60626e-01,9.99999e-01
5.643106577e-01,9.61362e-01,9.99999e-01,9.99999e-01,9.99972e-01,9.61388e-01,9.99999e-01
5.671322110e-01,9.61816e-01,9.99999e-01,9.99999e-01,9.99669e-01,9.62137e-01,9.99996e-01
5.699678720e-01,9.62534e-01,9.99999e-01,9.99999e-01,9.99658e-01,9.62870e-01,9.99990e-01
5.728177114e-01,9.63237e-01,9.99999e-01,9.99999e-01,9.99640e-01,9.63590e-01,9.99992e-01
5.756818000e-01,9.63975e-01,9.99999e-01,9.99999e-01,9.99670e-01,9.64296e-01,9.99995e-01
5.785602090e-01,9.64712e-01,9.99999e-01,9.99999e-01,9.99713e-01,9.64989e-01,9.99998e-01
5.814530100e-01,9.65390e-01,9.99999e-01,9.99999e-01,9.99711e-01,9.65669e-01,9.99998e-01
5.843602750e-01,9.65999e-01,9.99999e-01,9.99999e-01,9.99653e-01,9.66335e-01,9.99997e-01
5.872820764e-01,9.64086e-01,9.99999e-01,9.99999e-01,9.97017e-01,9.66989e-01,9.99978e-01
5.902184868e-01,9.64117e-01,9.99999e-01,9.99999e-01,9.96424e-01,9.67630e-01,9.99942e-01
5.931695792e-01,9.65752e-01,9.99999e-01,9.99999e-01,9.97464e-01,9.68259e-01,9.99945e-01
5.961354271e-01,9.66161e-01,9.99999e-01,9.99999e-01,9.97228e-01,9.68877e-01,9.99968e-01
5.991161043e-01,9.67515e-01,9.99999e-01,9.99999e-01,9.97980e-01,9.69482e-01,9.99989e-01
6.021116848e-01,9.68965e-01,9.99999e-01,9.99999e-01,9.98855e-01,9.70076e-01,9.99998e-01
6.051222432e-01,9.70096e-01,9.99999e-01,9.99999e-01,9.99420e-01,9.70658e-01,9.99999e-01
6.081478544e-01,9.70986e-01,9.99999e-01,9.99999e-01,9.99749e-01,9.71229e-01,9.99999e-01
6.111885937e-01,9.71687e-01,9.99999e-01,9.99999e-01,9.99894e-01,9.71789e-01,9.99999e-01
6.142445367e-01,9.72293e-01,9.99999e-01,9.99999e-01,9.99952e-01,9.72339e-01,9.99999e-01
6.173157594e-01,9.72852e-01,9.99999e-01,9.99999e-01,9.99973e-01,9.72877e-01,9.99999e-01
6.204023382e-01,9.73384e-01,9.99999e-01,9.99999e-01,9.99977e-01,9.73406e-01,9.99999e-01
6.235043498e-01,9.73827e-01,9.99999e-01,9.99999e-01,9.99900e-01,9.73924e-01,9.99999e-01
6.266218716e-01,9.73926e-01,9.99999e-01,9.99999e-01,9.99483e-01,9.74433e-01,9.99995e-01
6.297549810e-01,9.74740e-01,9.99999e-01,9.99999e-01,9.99810e-01,9.74931e-01,9.99992e-01
6.329037559e-01,9.75051e-01,9.99999e-01,9.99999e-01,9.99626e-01,9.75420e-01,9.99993e-01
6.360682746e-01,9.75585e-01,9.99999e-01,9.99999e-01,9.99680e-01,9.75900e-01,9.99996e-01
6.392486160e-01,9.75966e-01,9.99999e-01,9.99999e-01,9.99587e-01,9.76370e-01,9.99997e-01
6.424448591e-01,9.76285e-01,9.99999e-01,9.99999e-01,9.99442e-01,9.76832e-01,9.99996e-01
6.456570834e-01,9.74741e-01,9.99999e-01,9.99999e-01,9.97413e-01,9.77284e-01,9.99983e-01
6.488853688e-01,9.75860e-01,9.99999e-01,9.99999e-01,9.98129e-01,9.77728e-01,9.99959e-01
6.521297956e-01,9.76266e-01,9.99999e-01,9.99999e-01,9.98093e-01,9.78163e-01,9.99966e-01
6.553904446e-01,9.76699e-01,9.99999e-01,9.99999e-01,9.98092e-01,9.78589e-01,9.99975e-01
6.586673968e-01,9.77408e-01,9.99999e-01,9.99999e-01,9.98373e-01,9.79008e-01,9.99991e-01
6.619607338e-01,9.78530e-01,9.99999e-01,9.99999e-01,9.99093e-01,9.79418e-01,9.99997e-01
6.652705375e-01,9.79287e-01,9.99999e-01,9.99999e-01,9.99456e-01,9.79821e-01,9.99998e-01
6.685968902e-01,9.79989e-01,9.99999e-01,9.99999e-01,9.99768e-01,9.80215e-01,9.99999e-01
6.719398746e-01,9.80488e-01,9.99999e-01,9.99999e-01,9.99882e-01,9.80602e-01,9.99999e-01
6.752995740e-01,9.80921e-01,9.99999e-01,9.99999e-01,9.99937e-01,9.80982e-01,9.99999e-01
6.786760719e-01,9.81263e-01,9.99999e-01,9.99999e-01,9.99906e-01,9.81354e-01,9.99999e-01
6.820694522e-01,9.81562e-01,9.99999e-01,9.99999e-01,9.99840e-01,9.81719e-01,9.99998e-01
6.854797995e-01,9.81875e-01,9.99999e-01,9.99999e-01,9.99796e-01,9.82076e-01,9.99997e-01
6.889071985e-01,9.81932e-01,9.99999e-01,9.99999e-01,9.99499e-01,9.82427e-01,9.99995e-01
6.923517345e-01,9.74806e-01,9.99999e-01,9.99999e-01,9.91932e-01,9.82771e-01,9.99961e-01
6.958134932e-01,9.78990e-01,9.99999e-01,9.99999e-01,9.95895e-01,9.83109e-01,9.99914e-01
6.992925606e-01,9.79441e-01,9.99999e-01,9.99999e-01,9.96010e-01,9.83440e-01,9.99922e-01
7.027890234e-01,9.78907e-01,9.99999e-01,9.99999e-01,9.95120e-01,9.83764e-01,9.99940e-01
7.063029686e-01,9.80012e-01,9.99999e-01,9.99999e-01,9.95892e-01,9.84082e-01,9.99970e-01
7.098344834e-01,9.80498e-01,9.99999e-01,9.99999e-01,9.96059e-01,9.84394e-01,9.99982e-01
7.133836558e-01,9.79423e-01,9.99999e-01,9.99999e-01,9.94674e-01,9.84700e-01,9.99965e-01
7.169505741e-01,9.43496e-01,9.99999e-01,9.99999e-01,9.58121e-01,9.85000e-01,9.99730e-01
7.205353270e-01,9.64861e-01,9.99999e-01,9.99999e-01,9.79727e-01,9.85294e-01,9.99524e-01
7.241380036e-01,9.59426e-01,9.99999e-01,9.99999e-01,9.73860e-01,9.85582e-01,9.99589e-01
7.277586936e-01,9.62284e-01,9.99999e-01,9.99999e-01,9.76408e-01,9.85865e-01,9.99664e-01
7.313974871e-01,9.61462e-01,9.99999e-01,9.99999e-01,9.75126e-01,9.86142e-01,9.99842e-01
7.350544745e-01,9.72866e-01,9.99999e-01,9.99999e-01,9.86318e-01,9.86414e-01,9.99944e-01
7.387297469e-01,9.76719e-01,9.99999e-01,9.99999e-01,9.89927e-01,9.86681e-01,9.99974e-01
7.424233956e-01,9.82077e-01,9.99999e-01,9.99999e-01,9.95074e-01,9.86942e-01,9.99995e-01
7.461355126e-01,9.84244e-01,9.99999e-01,9.99999e-01,9.97007e-01,9.87198e-01,9.99998e-01
7.498661902e-01,9.86078e-01,9.99999e-01,9.99999e-01,9.98610e-01,9.87450e-01,9.99999e-01
7.536155211e-01,9.87021e-01,9.99999e-01,9.99999e-01,9.99315e-01,9.87696e-01,9.99999e-01
7.573835987e-01,9.87590e-01,9.99999e-01,9.99999e-01,9.99647e-01,9.87937e-01,9.99999e-01
7.611705167e-01,9.87958e-01,9.99999e-01,9.99999e-01,9.99780e-01,9.88174e-01,9.99999e-01
7.649763693e-01,9.88271e-01,9.99999e-01,9.99999e-01,9.99862e-01,9.88406e-01,9.99999e-01
7.688012511e-01,9.88540e-01,9.99999e-01,9.99999e-01,9.99903e-01,9.88634e-01,9.99999e-01
7.726452574e-01,9.88779e-01,9.99999e-01,9.99999e-01,9.99920e-01,9.88857e-01,9.99999e-01
7.765084837e-01,9.88964e-01,9.99999e-01,9.99999e-01,9.99886e-01,9.89076e-01,9.99999e-01
7.803910261e-01,9.88807e-01,9.99999e-01,9.99999e-01,9.99510e-01,9.89291e-01,9.99999e-01
7.842929812e-01,9.87809e-01,9.99999e-01,9.99999e-01,9.98292e-01,9.89501e-01,9.99996e-01
7.882144461e-01,9.86238e-01,9.99999e-01,9.99999e-01,9.96517e-01,9.89707e-01,9.99975e-01
7.921555184e-01,9.87989e-01,9.99999e-01,9.99999e-01,9.98100e-01,9.89910e-01,9.99958e-01
7.961162960e-01,9.86703e-01,9.99999e-01,9.99999e-01,9.96600e-01,9.90108e-01,9.99960e-01
8.000968774e-01,9.86399e-01,9.99999e-01,9.99999e-01,9.96100e-01,9.90302e-01,9.99957e-01
8.040973618e-01,9.86592e-01,9.99999e-01,9.99999e-01,9.96092e-01,9.90493e-01,9.99967e-01
8.081178486e-01,9.81876e-01,9.99999e-01,9.99999e-01,9.91145e-01,9.90680e-01,9.99967e-01
8.121584379e-01,9.54694e-01,9.99999e-01,9.99999e-01,9.63615e-01,9.90863e-01,9.99876e-01
8.162192301e-01,9.48388e-01,9.99999e-01,9.99999e-01,9.57402e-01,9.91043e-01,9.99537e-01
8.203003262e-01,9.68961e-01,9.99999e-01,9.99999e-01,9.78073e-01,9.91219e-01,9.99458e-01
8.244018279e-01,9.61540e-01,9.99999e-01,9.99999e-01,9.70306e-01,9.91392e-01,9.99568e-01
8.285238370e-01,9.65656e-01,9.99999e-01,9.99999e-01,9.74203e-01,9.91561e-01,9.99661e-01
8.326664562e-01,9.65846e-01,9.99999e-01,9.99999e-01,9.74038e-01,9.91727e-01,9.99859e-01
8.368297885e-01,9.73454e-01,9.99999e-01,9.99999e-01,9.81444e-01,9.91890e-01,9.99967e-01
8.410139374e-01,9.81065e-01,9.99999e-01,9.99999e-01,9.88945e-01,9.92049e-01,9.99980e-01
8.452190071e-01,9.86812e-01,9.99999e-01,9.99999e-01,9.94575e-01,9.92206e-01,9.99988e-01
8.494451021e-01,9.89212e-01,9.99999e-01,9.99999e-01,9.96837e-01,9.92359e-01,9.99990e-01
8.536923276e-01,9.90654e-01,9.99999e-01,9.99999e-01,9.98135e-01,9.92509e-01,9.99994e-01
8.579607893e-01,9.91512e-01,9.99999e-01,9.99999e-01,9.98847e-01,9.92657e-01,9.99998e-01
8.622505932e-01,9.92077e-01,9.99999e-01,9.99999e-01,9.99269e-01,9.92801e-01,9.99999e-01
8.665618462e-01,9.92493e-01,9.99999e-01,9.99999e-01,9.99546e-01,9.92943e-01,9.99999e-01
8.708946554e-01,9.92565e-01,9.99999e-01,9.99999e-01,9.99479e-01,9.93082e-01,9.99999e-01
8.752491287e-01,9.92527e-01,9.99999e-01,9.99999e-01,9.99304e-01,9.93218e-01,9.99998e-01
8.796253743e-01,9.92389e-01,9.99999e-01,9.99999e-01,9.99033e-01,9.93351e-01,9.99997e-01
8.840235012e-01,9.92380e-01,9.99999e-01,9.99999e-01,9.98896e-01,9.93482e-01,9.99992e-01
8.884436187e-01,9.89512e-01,9.99999e-01,9.99999e-01,9.95893e-01,9.93611e-01,9.99980e-01
8.928858368e-01,9.51969e-01,9.99999e-01,9.99999e-01,9.58074e-01,9.93736e-01,9.99889e-01
8.973502660e-01,9.21488e-01,9.99999e-01,9.99999e-01,9.27702e-01,9.93860e-01,9.99437e-01
9.018370173e-01,9.56108e-01,9.99999e-01,9.99999e-01,9.62748e-01,9.93981e-01,9.99115e-01
9.063462024e-01,9.60112e-01,9.99999e-01,9.99999e-01,9.66561e-01,9.94099e-01,9.99222e-01
9.108779334e-01,9.42376e-01,9.99999e-01,9.99999e-01,9.48623e-01,9.94215e-01,9.99192e-01
9.154323231e-01,9.36027e-01,9.99999e-01,9.99999e-01,9.41993e-01,9.94329e-01,9.99332e-01
9.200094847e-01,9.48730e-01,9.99999e-01,9.99999e-01,9.54389e-01,9.94441e-01,9.99626e-01
9.246095321e-01,9.22232e-01,9.99999e-01,9.99999e-01,9.27683e-01,9.94550e-01,9.99569e-01
9.292325798e-01,6.04987e-01,9.99999e-01,9.99999e-01,6.09501e-01,9.94658e-01,9.97923e-01
9.338787427e-01,5.24566e-01,9.99999e-01,9.99999e-01,5.31304e-01,9.94763e-01,9.92515e-01
9.385481364e-01,7.65065e-01,9.99999e-01,9.99999e-01,7.75385e-01,9.94866e-01,9.91780e-01
9.432408771e-01,6.90290e-01,9.99999e-01,9.99999e-01,6.98738e-01,9.94967e-01,9.92904e-01
9.479570815e-01,6.03204e-01,9.99999e-01,9.99999e-01,6.09717e-01,9.95066e-01,9.94221e-01
9.526968669e-01,6.86878e-01,9.99999e-01,9.99999e-01,6.92660e-01,9.95164e-01,9.96471e-01
9.574603512e-01,7.08706e-01,9.99999e-01,9.99999e-01,7.13361e-01,9.95259e-01,9.98205e-01
9.622476530e-01,7.56008e-01,9.99999e-01,9.99999e-01,7.60481e-01,9.95352e-01,9.98758e-01
9.670588912e-01,8.49197e-01,9.99999e-01,9.99999e-01,8.53808e-01,9.95444e-01,9.99150e-01
9.718941857e-01,9.01255e-01,9.99999e-01,9.99999e-01,9.05864e-01,9.95534e-01,9.99374e-01
9.767536566e-01,9.16719e-01,9.99999e-01,9.99999e-01,9.21189e-01,9.95622e-01,9.99522e-01
9.816374249e-01,9.36973e-01,9.99999e-01,9.99999e-01,9.41166e-01,9.95708e-01,9.99834e-01
9.865456120e-01,9.58766e-01,9.99999e-01,9.99999e-01,9.62849e-01,9.95793e-01,9.99965e-01
9.914783401e-01,9.72828e-01,9.99999e-01,9.99999e-01,9.76865e-01,9.95875e-01,9.99989e-01
9.964357318e-01,9.83343e-01,9.99999e-01,9.99999e-01,9.87340e-01,9.95957e-01,9.99993e-01
1.001417910e+00,9.88458e-01,9.99999e-01,9.99999e-01,9.92399e-01,9.96036e-01,9.99990e-01
1.006425000e+00,9.91770e-01,9.99999e-01,9.99999e-01,9.95650e-01,9.96115e-01,9.99987e-01
1.011457125e+00,9.93497e-01,9.99999e-01,9.99999e-01,9.97306e-01,9.96191e-01,9.99988e-01
1.016514411e+00,9.94433e-01,9.99999e-01,9.99999e-01,9.98167e-01,9.96266e-01,9.99991e-01
1.021596983e+00,9.94876e-01,9.99999e-01,9.99999e-01,9.98538e-01,9.96340e-01,9.99991e-01
1.026704968e+00,9.95271e-01,9.99999e-01,9.99999e-01,9.98859e-01,9.96412e-01,9.99994e-01
1.031838492e+00,9.95657e-01,9.99999e-01,9.99999e-01,9.99172e-01,9.96483e-01,9.99998e-01
1.036997685e+00,9.96061e-01,9.99999e-01,9.99999e-01,9.99507e-01,9.96552e-01,9.99999e-01
1.042182673e+00,9.96033e-01,9.99999e-01,9.99999e-01,9.99410e-01,9.96620e-01,9.99999e-01
1.047393587e+00,9.95909e-01,9.99999e-01,9.99999e-01,9.99219e-01,9.96687e-01,9.99999e-01
1.052630555e+00,9.95683e-01,9.99999e-01,9.99999e-01,9.98927e-01,9.96752e-01,9.99999e-01
1.057893707e+00,9.95029e-01,9.99999e-01,9.99999e-01,9.98207e-01,9.96816e-01,9.99998e-01
1.063183176e+00,9.93941e-01,9.99999e-01,9.99999e-01,9.97054e-01,9.96879e-01,9.99997e-01
1.068499092e+00,9.92032e-01,9.99999e-01,9.99999e-01,9.95079e-01,9.96940e-01,9.99996e-01
1.073841587e+00,9.91241e-01,9.99999e-01,9.99999e-01,9.94229e-01,9.97001e-01,9.99992e-01
1.079210795e+00,9.89701e-01,9.99999e-01,9.99999e-01,9.92638e-01,9.97060e-01,9.99979e-01
1.084606849e+00,9.85956e-01,9.99999e-01,9.99999e-01,9.88852e-01,9.97118e-01,9.99952e-01
1.090029883e+00,9.81029e-01,9.99999e-01,9.99999e-01,9.83904e-01,9.97175e-01,9.99901e-01
1.095480033e+00,9.54029e-01,9.99999e-01,9.99999e-01,9.56848e-01,9.97230e-01,9.99822e-01
1.100957433e+00,8.91220e-01,9.99999e-01,9.99999e-01,8.93937e-01,9.97285e-01,9.99673e-01
1.106462220e+00,7.49006e-01,9.99999e-01,9.99999e-01,7.51420e-01,9.97338e-01,9.99446e-01
1.111994531e+00,5.48240e-01,9.99999e-01,9.99999e-01,5.50482e-01,9.97391e-01,9.98531e-01
1.117554504e+00,3.78434e-01,9.99999e-01,9.99999e-01,3.81422e-01,9.97442e-01,9.94707e-01
1.123142276e+00,4.87186e-01,9.99999e-01,9.99999e-01,4.94594e-01,9.97493e-01,9.87496e-01
1.128757988e+00,6.24240e-01,9.99999e-01,9.99999e-01,6.34953e-01,9.97542e-01,9.85549e-01
1.134401778e+00,3.71808e-01,9.99999e-01,9.99999e-01,3.77347e-01,9.97591e-01,9.87699e-01
1.140073787e+00,7.52859e-01,9.99999e-01,9.99999e-01,7.62139e-01,9.97638e-01,9.90159e-01
1.145774156e+00,5.62793e-01,9.99999e-01,9.99999e-01,5.69227e-01,9.97685e-01,9.90988e-01
1.151503026e+00,5.29603e-01,9.99999e-01,9.99999e-01,5.33490e-01,9.97730e-01,9.94969e-01
1.157260541e+00,5.89656e-01,9.99999e-01,9.99999e-01,5.91862e-01,9.97775e-01,9.98493e-01
1.163046844e+00,6.77486e-01,9.99999e-01,9.99999e-01,6.79256e-01,9.97819e-01,9.99572e-01
1.168862078e+00,7.62615e-01,9.99999e-01,9.99999e-01,7.64417e-01,9.97862e-01,9.99779e-01
1.174706389e+00,8.45166e-01,9.99999e-01,9.99999e-01,8.47187e-01,9.97904e-01,9.99707e-01
1.180579921e+00,9.01747e-01,9.99999e-01,9.99999e-01,9.04001e-01,9.97946e-01,9.99558e-01
1.186482820e+00,9.42209e-01,9.99999e-01,9.99999e-01,9.44537e-01,9.97986e-01,9.99546e-01
1.192415234e+00,9.64989e-01,9.99999e-01,9.99999e-01,9.67225e-01,9.98026e-01,9.99660e-01
1.198377311e+00,9.70057e-01,9.99999e-01,9.99999e-01,9.72250e-01,9.98065e-01,9.99677e-01
1.204369197e+00,9.71624e-01,9.99999e-01,9.99999e-01,9.73743e-01,9.98103e-01,9.99719e-01
1.210391043e+00,9.72902e-01,9.99999e-01,9.99999e-01,9.74885e-01,9.98140e-01,9.99823e-01
1.216442998e+00,9.76758e-01,9.99999e-01,9.99999e-01,9.78647e-01,9.98177e-01,9.99891e-01
1.222525213e+00,9.81502e-01,9.99999e-01,9.99999e-01,9.83324e-01,9.98213e-01,9.99932e-01
1.228637839e+00,9.86623e-01,9.99999e-01,9.99999e-01,9.88384e-01,9.98248e-01,9.99968e-01
