#,Wave/freq,Total,N2,O2,H2O,Rayleigh,CIA
4.000000000e-01,7.50993e-01,9.99999e-01,9.99999e-01,9.99967e-01,7.51018e-01,9.99999e-01
4.020000000e-01,7.55266e-01,9.99999e-01,9.99999e-01,9.99979e-01,7.55282e-01,9.99999e-01
4.040100000e-01,7.59474e-01,9.99999e-01,9.99999e-01,9.99991e-01,7.59480e-01,9.99999e-01
4.060300500e-01,7.63617e-01,9.99999e-01,9.99999e-01,9.99997e-01,7.63619e-01,9.99999e-01
4.080602003e-01,7.67697e-01,9.99999e-01,9.99999e-01,9.99998e-01,7.67697e-01,9.99999e-01
4.101005013e-01,7.71717e-01,9.99999e-01,9.99999e-01,9.99999e-01,7.71717e-01,9.99999e-01
4.121510038e-01,7.75676e-01,9.99999e-01,9.99999e-01,9.99998e-01,7.75677e-01,9.99999e-01
4.142117588e-01,7.79572e-01,9.99999e-01,9.99999e-01,9.99990e-01,7.79579e-01,9.99999e-01
4.162828176e-01,7.83391e-01,9.99999e-01,9.99999e-01,9.99959e-01,7.83422e-01,9.99999e-01
4.183642317e-01,7.87190e-01,9.99999e-01,9.99999e-01,9.99975e-01,7.87208e-01,9.99999e-01
4.204560528e-01,7.90926e-01,9.99999e-01,9.99999e-01,9.99984e-01,7.90938e-01,9.99999e-01
4.225583331e-01,7.94606e-01,9.99999e-01,9.99999e-01,9.99994e-01,7.94610e-01,9.99999e-01
4.246711247e-01,7.98223e-01,9.99999e-01,9.99999e-01,9.99995e-01,7.98227e-01,9.99999e-01
4.267944804e-01,8.01783e-01,9.99999e-01,9.99999e-01,9.99993e-01,8.01788e-01,9.99999e-01
4.289284528e-01,8.05290e-01,9.99999e-01,9.99999e-01,9.99994e-01,8.05294e-01,9.99999e-01
4.310730950e-01,8.08745e-01,9.99999e-01,9.99999e-01,9.99997e-01,8.08746e-01,9.99999e-01
4.332284605e-01,8.12144e-01,9.99999e-01,9.99999e-01,9.99998e-01,8.12144e-01,9.99999e-01
4.353946028e-01,8.15489e-01,9.99999e-01,9.99999e-01,9.99999e-01,8.15489e-01,9.99999e-01
4.375715758e-01,8.18778e-01,9.99999e-01,9.99999e-01,9.99995e-01,8.18781e-01,9.99999e-01
4.397594337e-01,8.21992e-01,9.99999e-01,9.99999e-01,9.99964e-01,8.22021e-01,9.99999e-01
4.419582309e-01,8.25063e-01,9.99999e-01,9.99999e-01,9.99821e-01,8.25210e-01,9.99999e-01
4.441680220e-01,8.28231e-01,9.99999e-01,9.99999e-01,9.99860e-01,8.28347e-01,9.99999e-01
4.463888621e-01,8.31314e-01,9.99999e-01,9.99999e-01,9.99854e-01,8.31434e-01,9.99999e-01
4.486208064e-01,8.34396e-01,9.99999e-01,9.99999e-01,9.99909e-01,8.34471e-01,9.99999e-01
4.508639105e-01,8.37424e-01,9.99999e-01,9.99999e-01,9.99957e-01,8.37459e-01,9.99999e-01
4.531182300e-01,8.40385e-01,9.99999e-01,9.99999e-01,9.99982e-01,8.40399e-01,9.99999e-01
4.553838212e-01,8.43280e-01,9.99999e-01,9.99999e-01,9.99988e-01,8.43290e-01,9.99999e-01
4.576607403e-01,8.46129e-01,9.99999e-01,9.99999e-01,9.99994e-01,8.46134e-01,9.99999e-01
4.599490440e-01,8.48928e-01,9.99999e-01,9.99999e-01,9.99995e-01,8.48931e-01,9.99999e-01
4.622487892e-01,8.51681e-01,9.99999e-01,9.99999e-01,9.99998e-01,8.51682e-01,9.99999e-01
4.645600332e-01,8.54385e-01,9.99999e-01,9.99999e-01,9.99996e-01,8.54387e-01,9.99999e-01
4.668828333e-01,8.57010e-01,9.99999e-01,9.99999e-01,9.99957e-01,8.57047e-01,9.99999e-01
4.692172475e-01,8.59584e-01,9.99999e-01,9.99999e-01,9.99908e-01,8.59662e-01,9.99999e-01
4.715633337e-01,8.62182e-01,9.99999e-01,9.99999e-01,9.99940e-01,8.62234e-01,9.99999e-01
4.739211504e-01,8.64713e-01,9.99999e-01,9.99999e-01,9.99942e-01,8.64762e-01,9.99999e-01
4.762907561e-01,8.67222e-01,9.99999e-01,9.99999e-01,9.99969e-01,8.67247e-01,9.99999e-01
4.786722099e-01,8.69680e-01,9.99999e-01,9.99999e-01,9.99987e-01,8.69691e-01,9.99999e-01
4.810655710e-01,8.72089e-01,9.99999e-01,9.99999e-01,9.99995e-01,8.72092e-01,9.99999e-01
4.834708988e-01,8.74423e-01,9.99999e-01,9.99999e-01,9.99964e-01,8.74453e-01,9.99999e-01
4.858882533e-01,8.76717e-01,9.99999e-01,9.99999e-01,9.99935e-01,8.76773e-01,9.99999e-01
4.883176946e-01,8.79007e-01,9.99999e-01,9.99999e-01,9.99945e-01,8.79054e-01,9.99999e-01
4.907592831e-01,8.81252e-01,9.99999e-01,9.99999e-01,9.99950e-01,8.81295e-01,9.99999e-01
4.932130795e-01,8.83467e-01,9.99999e-01,9.99999e-01,9.99964e-01,8.83497e-01,9.99999e-01
4.956791449e-01,8.85645e-01,9.99999e-01,9.99999e-01,9.99981e-01,8.85662e-01,9.99999e-01
4.981575406e-01,8.87707e-01,9.99999e-01,9.99999e-01,9.99908e-01,8.87788e-01,9.99999e-01
5.006483283e-01,8.89666e-01,9.99999e-01,9.99999e-01,9.99763e-01,8.89878e-01,9.99997e-01
5.031515699e-01,8.90850e-01,9.99999e-01,9.99999e-01,9.98799e-01,8.91931e-01,9.99986e-01
5.056673278e-01,8.93369e-01,9.99999e-01,9.99999e-01,9.99365e-01,8.93948e-01,9.99985e-01
5.081956644e-01,8.95205e-01,9.99999e-01,9.99999e-01,9.99199e-01,8.95930e-01,9.99990e-01
5.107366428e-01,8.97390e-01,9.99999e-01,9.99999e-01,9.99459e-01,8.97877e-01,9.99997e-01
5.132903260e-01,8.99511e-01,9.99999e-01,9.99999e-01,9.99690e-01,8.99789e-01,9.99999e-01
5.158567776e-01,9.01550e-01,9.99999e-01,9.99999e-01,9.99869e-01,9.01668e-01,9.99999e-01
5.184360615e-01,9.03466e-01,9.99999e-01,9.99999e-01,9.99947e-01,9.03513e-01,9.99999e-01
5.210282418e-01,9.05308e-01,9.99999e-01,9.99999e-01,9.99980e-01,9.05326e-01,9.99999e-01
5.236333830e-01,9.07035e-01,9.99999e-01,9.99999e-01,9.99921e-01,9.07106e-01,9.99998e-01
5.262515499e-01,9.08810e-01,9.99999e-01,9.99999e-01,9.99950e-01,9.08855e-01,9.99998e-01
5.288828077e-01,9.10531e-01,9.99999e-01,9.99999e-01,9.99954e-01,9.10572e-01,9.99999e-01
5.315272217e-01,9.12222e-01,9.99999e-01,9.99999e-01,9.99960e-01,9.12259e-01,9.99999e-01
5.341848578e-01,9.13891e-01,9.99999e-01,9.99999e-01,9.99973e-01,9.13915e-01,9.99999e-01
5.368557821e-01,9.15458e-01,9.99999e-01,9.99999e-01,9.99908e-01,9.15541e-01,9.99999e-01
5.395400610e-01,9.16835e-01,9.99999e-01,9.99999e-01,9.99671e-01,9.17138e-01,9.99996e-01
5.422377613e-01,9.18309e-01,9.99999e-01,9.99999e-01,9.99574e-01,9.18707e-01,9.99991e-01
5.449489501e-01,9.19876e-01,9.99999e-01,9.99999e-01,9.99604e-01,9.20247e-01,9.99991e-01
5.476736949e-01,9.21432e-01,9.99999e-01,9.99999e-01,9.99649e-01,9.21759e-01,9.99995e-01
5.504120634e-01,9.23007e-01,9.99999e-01,9.99999e-01,9.99745e-01,9.23243e-01,9.99998e-01
5.531641237e-01,9.24582e-01,9.99999e-01,9.99999e-01,9.99871e-01,9.24701e-01,9.99999e-01
5.559299443e-01,9.26074e-01,9.99999e-01,9.99999e-01,9.99937e-01,9.26132e-01,9.99999e-01
5.587095940e-01,9.27501e-01,9.99999e-01,9.99999e-01,9.99960e-01,9.27536e-01,9.99999e-01
5.615031420e-01,9.28876e-01,9.99999e-01,9.99999e-01,9.99956e-01,9.28916e-01,9.99999e-01
5.643106577e-01,9.30224e-01,9.99999e-01,9.99999e-01,9.99950e-01,9.30270e-01,9.99999e-01
5.671322110e-01,9.31044e-01,9.99999e-01,9.99999e-01,9.99409e-01,9.31599e-01,9.99994e-01
5.699678720e-01,9.32298e-01,9.99999e-01,9.99999e-01,9.99366e-01,9.32903e-01,9.99983e-01
5.728177114e-01,9.33558e-01,9.99999e-01,9.99999e-01,9.99342e-01,9.34184e-01,9.99986e-01
5.756818000e-01,9.34869e-01,9.99999e-01,9.99999e-01,9.99396e-01,9.35441e-01,9.99991e-01
5.785602090e-01,9.36180e-01,9.99999e-01,9.99999e-01,9.99473e-01,9.36675e-01,9.99997e-01
5.814530100e-01,9.37390e-01,9.99999e-01,9.99999e-01,9.99471e-01,9.37886e-01,9.99998e-01
5.843602750e-01,9.38482e-01,9.99999e-01,9.99999e-01,9.99371e-01,9.39075e-01,9.99995e-01
5.872820764e-01,9.35121e-01,9.99999e-01,9.99999e-01,9.94590e-01,9.40242e-01,9.99961e-01
5.902184868e-01,9.35105e-01,9.99999e-01,9.99999e-01,9.93430e-01,9.41387e-01,9.99895e-01
5.931695792e-01,9.38044e-01,9.99999e-01,9.99999e-01,9.95360e-01,9.42510e-01,9.99899e-01
5.961354271e-01,9.38758e-01,9.99999e-01,9.99999e-01,9.94910e-01,9.43613e-01,9.99942e-01
5.991161043e-01,9.41170e-01,9.99999e-01,9.99999e-01,9.96285e-01,9.44696e-01,9.99981e-01
6.021116848e-01,9.43761e-01,9.99999e-01,9.99999e-01,9.97889e-01,9.45758e-01,9.99997e-01
6.051222432e-01,9.45789e-01,9.99999e-01,9.99999e-01,9.98931e-01,9.46800e-01,9.99999e-01
6.081478544e-01,9.47387e-01,9.99999e-01,9.99999e-01,9.99539e-01,9.47823e-01,9.99999e-01
6.111885937e-01,9.48642e-01,9.99999e-01,9.99999e-01,9.99804e-01,9.48827e-01,9.99999e-01
6.142445367e-01,9.49729e-01,9.99999e-01,9.99999e-01,9.99912e-01,9.49812e-01,9.99999e-01
6.173157594e-01,9.50733e-01,9.99999e-01,9.99999e-01,9.99951e-01,9.50778e-01,9.99999e-01
6.204023382e-01,9.51688e-01,9.99999e-01,9.99999e-01,9.99959e-01,9.51727e-01,9.99999e-01
6.235043498e-01,9.52488e-01,9.99999e-01,9.99999e-01,9.99821e-01,9.52657e-01,9.99999e-01
6.266218716e-01,9.52662e-01,9.99999e-01,9.99999e-01,9.99053e-01,9.53570e-01,9.99992e-01
6.297549810e-01,9.54123e-01,9.99999e-01,9.99999e-01,9.99652e-01,9.54466e-01,9.99986e-01
6.329037559e-01,9.54680e-01,9.99999e-01,9.99999e-01,9.99313e-01,9.55345e-01,9.99988e-01
6.360682746e-01,9.55644e-01,9.99999e-01,9.99999e-01,9.99415e-01,9.56208e-01,9.99993e-01
6.392486160e-01,9.56327e-01,9.99999e-01,9.99999e-01,9.99242e-01,9.57054e-01,9.99996e-01
6.424448591e-01,9.56912e-01,9.99999e-01,9.99999e-01,9.98989e-01,9.57884e-01,9.99995e-01
6.456570834e-01,9.54181e-01,9.99999e-01,9.99999e-01,9.95313e-01,9.58698e-01,9.99973e-01
6.488853688e-01,9.56124e-01,9.99999e-01,9.99999e-01,9.96556e-01,9.59497e-01,9.99926e-01
6.521297956e-01,9.56852e-01,9.99999e-01,9.99999e-01,9.96489e-01,9.60281e-01,9.99938e-01
6.553904446e-01,9.57654e-01,9.99999e-01,9.99999e-01,9.96510e-01,9.61050e-01,9.99953e-01
6.586673968e-01,9.58913e-01,9.99999e-01,9.99999e-01,9.97007e-01,9.61805e-01,9.99984e-01
6.619607338e-01,9.60876e-01,9.99999e-01,9.99999e-01,9.98268e-01,9.62545e-01,9.99996e-01
6.652705375e-01,9.62304e-01,9.99999e-01,9.99999e-01,9.98997e-01,9.63271e-01,9.99997e-01
6.685968902e-01,9.63534e-01,9.99999e-01,9.99999e-01,9.99533e-01,9.63983e-01,9.99999e-01
6.719398746e-01,9.64474e-01,9.99999e-01,9.99999e-01,9.99783e-01,9.64682e-01,9.99999e-01
6.752995740e-01,9.65255e-01,9.99999e-01,9.99999e-01,9.99882e-01,9.65367e-01,9.99999e-01
6.786760719e-01,9.65877e-01,9.99999e-01,9.99999e-01,9.99831e-01,9.66040e-01,9.99999e-01
6.820694522e-01,9.66419e-01,9.99999e-01,9.99999e-01,9.99711e-01,9.66699e-01,9.99998e-01
6.854797995e-01,9.66983e-01,9.99999e-01,9.99999e-01,9.99627e-01,9.67346e-01,9.99996e-01
6.889071985e-01,9.67105e-01,9.99999e-01,9.99999e-01,9.99103e-01,9.67981e-01,9.99991e-01
6.923517345e-01,9.54389e-01,9.99999e-01,9.99999e-01,9.85394e-01,9.68603e-01,9.99929e-01
6.958134932e-01,9.61634e-01,9.99999e-01,9.99999e-01,9.92337e-01,9.69213e-01,9.99840e-01
6.992925606e-01,9.62655e-01,9.99999e-01,9.99999e-01,9.92758e-01,9.69812e-01,9.99859e-01
7.027890234e-01,9.61606e-01,9.99999e-01,9.99999e-01,9.91044e-01,9.70400e-01,9.99892e-01
7.063029686e-01,9.63611e-01,9.99999e-01,9.99999e-01,9.92467e-01,9.70976e-01,9.99946e-01
7.098344834e-01,9.64488e-01,9.99999e-01,9.99999e-01,9.92771e-01,9.71541e-01,9.99967e-01
7.133836558e-01,9.62716e-01,9.99999e-01,9.99999e-01,9.90413e-01,9.72095e-01,9.99936e-01
7.169505741e-01,8.99628e-01,9.99999e-01,9.99999e-01,9.25392e-01,9.72639e-01,9.99505e-01
7.205353270e-01,9.35925e-01,9.99999e-01,9.99999e-01,9.62565e-01,9.73172e-01,9.99127e-01
7.241380036e-01,9.27108e-01,9.99999e-01,9.99999e-01,9.52871e-01,9.73695e-01,9.99246e-01
7.277586936e-01,9.32099e-01,9.99999e-01,9.99999e-01,9.57365e-01,9.74207e-01,9.99383e-01
7.313974871e-01,9.30207e-01,9.99999e-01,9.99999e-01,9.54616e-01,9.74710e-01,9.99711e-01
7.350544745e-01,9.50694e-01,9.99999e-01,9.99999e-01,9.74964e-01,9.75204e-01,9.99899e-01
7.387297469e-01,9.57605e-01,9.99999e-01,9.99999e-01,9.81511e-01,9.75687e-01,9.99953e-01
7.424233956e-01,9.67278e-01,9.99999e-01,9.99999e-01,9.90907e-01,9.76162e-01,9.99990e-01
7.461355126e-01,9.71239e-01,9.99999e-01,9.99999e-01,9.94483e-01,9.76627e-01,9.99997e-01
7.498661902e-01,9.74569e-01,9.99999e-01,9.99999e-01,9.97426e-01,9.77083e-01,9.99998e-01
7.536155211e-01,9.76297e-01,9.99999e-01,9.99999e-01,9.98738e-01,9.77531e-01,9.99999e-01
7.573835987e-01,9.77335e-01,9.99999e-01,9.99999e-01,9.99350e-01,9.77970e-01,9.99999e-01
7.611705167e-01,9.78005e-01,9.99999e-01,9.99999e-01,9.99596e-01,9.78400e-01,9.99999e-01
7.649763693e-01,9.78575e-01,9.99999e-01,9.99999e-01,9.99746e-01,9.78822e-01,9.99999e-01
7.688012511e-01,9.79064e-01,9.99999e-01,9.99999e-01,9.99823e-01,9.79236e-01,9.99999e-01
7.726452574e-01,9.79500e-01,9.99999e-01,9.99999e-01,9.99854e-01,9.79642e-01,9.99999e-01
7.765084837e-01,9.79839e-01,9.99999e-01,9.99999e-01,9.99794e-01,9.80040e-01,9.99999e-01
7.803910261e-01,9.79560e-01,9.99999e-01,9.99999e-01,9.99112e-01,9.80431e-01,9.99998e-01
7.842929812e-01,9.77774e-01,9.99999e-01,9.99999e-01,9.96906e-01,9.80813e-01,9.99993e-01
7.882144461e-01,9.74890e-01,9.99999e-01,9.99999e-01,9.93618e-01,9.81189e-01,9.99960e-01
7.921555184e-01,9.78040e-01,9.99999e-01,9.99999e-01,9.96491e-01,9.81557e-01,9.99923e-01
7.961162960e-01,9.75785e-01,9.99999e-01,9.99999e-01,9.93825e-01,9.81918e-01,9.99927e-01
8.000968774e-01,9.75182e-01,9.99999e-01,9.99999e-01,9.92858e-01,9.82272e-01,9.99922e-01
8.040973618e-01,9.75543e-01,9.99999e-01,9.99999e-01,9.92859e-01,9.82619e-01,9.99938e-01
8.081178486e-01,9.67181e-01,9.99999e-01,9.99999e-01,9.84004e-01,9.82959e-01,9.99942e-01
8.121584379e-01,9.19152e-01,9.99999e-01,9.99999e-01,9.34979e-01,9.83293e-01,9.99773e-01
8.162192301e-01,9.07200e-01,9.99999e-01,9.99999e-01,9.23090e-01,9.83620e-01,9.99151e-01
8.203003262e-01,9.44888e-01,9.99999e-01,9.99999e-01,9.61263e-01,9.83941e-01,9.99006e-01
8.244018279e-01,9.30352e-01,9.99999e-01,9.99999e-01,9.45981e-01,9.84256e-01,9.99208e-01
8.285238370e-01,9.38127e-01,9.99999e-01,9.99999e-01,9.53426e-01,9.84564e-01,9.99378e-01
8.326664562e-01,9.38228e-01,9.99999e-01,9.99999e-01,9.52889e-01,9.84867e-01,9.99742e-01
8.368297885e-01,9.51693e-01,9.99999e-01,9.99999e-01,9.66081e-01,9.85164e-01,9.99940e-01
8.410139374e-01,9.65424e-01,9.99999e-01,9.99999e-01,9.79706e-01,9.85454e-01,9.99965e-01
8.452190071e-01,9.75859e-01,9.99999e-01,9.99999e-01,9.89996e-01,9.85740e-01,9.99979e-01
8.494451021e-01,9.80276e-01,9.99999e-01,9.99999e-01,9.94191e-01,9.86019e-01,9.99983e-01
8.536923276e-01,9.82890e-01,9.99999e-01,9.99999e-01,9.96558e-01,9.86294e-01,9.99989e-01
8.579607893e-01,9.84470e-01,9.99999e-01,9.99999e-01,9.97881e-01,9.86563e-01,9.99997e-01
8.622505932e-01,9.85497e-01,9.99999e-01,9.99999e-01,9.98652e-01,9.86826e-01,9.99999e-01
8.665618462e-01,9.86263e-01,9.99999e-01,9.99999e-01,9.99167e-01,9.87085e-01,9.99999e-01
8.708946554e-01,9.86397e-01,9.99999e-01,9.99999e-01,9.99047e-01,9.87338e-01,9.99998e-01
8.752491287e-01,9.86327e-01,9.99999e-01,9.99999e-01,9.98725e-01,9.87587e-01,9.99998e-01
8.796253743e-01,9.86085e-01,9.99999e-01,9.99999e-01,9.98236e-01,9.87830e-01,9.99995e-01
8.840235012e-01,9.86067e-01,9.99999e-01,9.99999e-01,9.97985e-01,9.88069e-01,9.99987e-01
8.884436187e-01,9.81062e-01,9.99999e-01,9.99999e-01,9.92706e-01,9.88304e-01,9.99964e-01
8.928858368e-01,9.14792e-01,9.99999e-01,9.99999e-01,9.25589e-01,9.88533e-01,9.99798e-01
8.973502660e-01,8.61221e-01,9.99999e-01,9.99999e-01,8.71912e-01,9.88758e-01,9.98967e-01
9.018370173e-01,9.20529e-01,9.99999e-01,9.99999e-01,9.32298e-01,9.88979e-01,9.98377e-01
9.063462024e-01,9.28907e-01,9.99999e-01,9.99999e-01,9.40391e-01,9.89196e-01,9.98574e-01
9.108779334e-01,8.97532e-01,9.99999e-01,9.99999e-01,9.08485e-01,9.89408e-01,9.98518e-01
9.154323231e-01,8.86180e-01,9.99999e-01,9.99999e-01,8.96575e-01,9.89616e-01,9.98775e-01
9.200094847e-01,9.08084e-01,9.99999e-01,9.99999e-01,9.18052e-01,9.89820e-01,9.99314e-01
9.246095321e-01,8.67153e-01,9.99999e-01,9.99999e-01,8.76586e-01,9.90020e-01,9.99210e-01
9.292325798e-01,4.14060e-01,9.99999e-01,9.99999e-01,4.19441e-01,9.90216e-01,9.96924e-01
9.338787427e-01,3.18986e-01,9.99999e-01,9.99999e-01,3.26202e-01,9.90409e-01,9.87346e-01
9.385481364e-01,6.19688e-01,9.99999e-01,9.99999e-01,6.35116e-01,9.90597e-01,9.84968e-01
9.432408771e-01,5.25974e-01,9.99999e-01,9.99999e-01,5.37849e-01,9.90782e-01,9.87018e-01
9.479570815e-01,4.19222e-01,9.99999e-01,9.99999e-01,4.27567e-01,9.90963e-01,9.89422e-01
9.526968669e-01,5.15145e-01,9.99999e-01,9.99999e-01,5.23131e-01,9.91141e-01,9.93534e-01
9.574603512e-01,5.38719e-01,9.99999e-01,9.99999e-01,5.45232e-01,9.91315e-01,9.96710e-01
9.622476530e-01,6.01783e-01,9.99999e-01,9.99999e-01,6.08334e-01,9.91486e-01,9.97724e-01
9.670588912e-01,7.42930e-01,9.99999e-01,9.99999e-01,7.50351e-01,9.91653e-01,9.98442e-01
9.718941857e-01,8.26818e-01,9.99999e-01,9.99999e-01,8.34595e-01,9.91818e-01,9.98853e-01
9.767536566e-01,8.52932e-01,9.99999e-01,9.99999e-01,8.60582e-01,9.91978e-01,9.99123e-01
9.816374249e-01,8.87202e-01,9.99999e-01,9.99999e-01,8.94504e-01,9.92136e-01,9.99696e-01
9.865456120e-01,9.25420e-01,9.99999e-01,9.99999e-01,9.32667e-01,9.92291e-01,9.99936e-01
9.914783401e-01,9.50564e-01,9.99999e-01,9.99999e-01,9.57819e-01,9.92443e-01,9.99982e-01
9.964357318e-01,9.69558e-01,9.99999e-01,9.99999e-01,9.76804e-01,9.92591e-01,9.99989e-01
1.001417910e+00,9.78856e-01,9.99999e-01,9.99999e-01,9.86032e-01,9.92737e-01,9.99983e-01
1.006425000e+00,9.84935e-01,9.99999e-01,9.99999e-01,9.92019e-01,9.92880e-01,9.99977e-01
1.011457125e+00,9.88072e-01,9.99999e-01,9.99999e-01,9.95036e-01,9.93020e-01,9.99978e-01
1.016514411e+00,9.89796e-01,9.99999e-01,9.99999e-01,9.96629e-01,9.93158e-01,9.99984e-01
1.021596983e+00,9.90610e-01,9.99999e-01,9.99999e-01,9.97313e-01,9.93292e-01,9.99984e-01
1.026704968e+00,9.91334e-01,9.99999e-01,9.99999e-01,9.97904e-01,9.93424e-01,9.99989e-01
1.031838492e+00,9.92038e-01,9.99999e-01,9.99999e-01,9.98476e-01,9.93554e-01,9.99996e-01
1.036997685e+00,9.92782e-01,9.99999e-01,9.99999e-01,9.99095e-01,9.93681e-01,9.99999e-01
1.042182673e+00,9.92734e-01,9.99999e-01,9.99999e-01,9.98922e-01,9.93805e-01,9.99999e-01
1.047393587e+00,9.92506e-01,9.99999e-01,9.99999e-01,9.98570e-01,9.93927e-01,9.99999e-01
1.052630555e+00,9.92098e-01,9.99999e-01,9.99999e-01,9.98039e-01,9.94047e-01,9.99998e-01
1.057893707e+00,9.90912e-01,9.99999e-01,9.99999e-01,9.96729e-01,9.94164e-01,9.99998e-01
1.063183176e+00,9.88929e-01,9.99999e-01,9.99999e-01,9.94621e-01,9.94279e-01,9.99996e-01
1.068499092e+00,9.85441e-01,9.99999e-01,9.99999e-01,9.91005e-01,9.94391e-01,9.99993e-01
1.073841587e+00,9.84035e-01,9.99999e-01,9.99999e-01,9.89487e-01,9.94502e-01,9.99986e-01
1.079210795e+00,9.81181e-01,9.99999e-01,9.99999e-01,9.86532e-01,9.94610e-01,9.99963e-01
1.084606849e+00,9.74433e-01,9.99999e-01,9.99999e-01,9.79693e-01,9.94716e-01,9.99912e-01
1.090029883e+00,9.65810e-01,9.99999e-01,9.99999e-01,9.71012e-01,9.94820e-01,9.99819e-01
1.095480033e+00,9.17960e-01,9.99999e-01,9.99999e-01,9.22944e-01,9.94922e-01,9.99674e-01
1.100957433e+00,8.11574e-01,9.99999e-01,9.99999e-01,8.16121e-01,9.95022e-01,9.99400e-01
1.106462220e+00,5.96945e-01,9.99999e-01,9.99999e-01,6.00481e-01,9.95121e-01,9.98984e-01
1.111994531e+00,3.42864e-01,9.99999e-01,9.99999e-01,3.45441e-01,9.95217e-01,9.97306e-01
1.117554504e+00,1.80090e-01,9.99999e-01,9.99999e-01,1.82709e-01,9.95311e-01,9.90310e-01
1.123142276e+00,2.88920e-01,9.99999e-01,9.99999e-01,2.97033e-01,9.95403e-01,9.77176e-01
1.128757988e+00,4.35293e-01,9.99999e-01,9.99999e-01,4.49099e-01,9.95494e-01,9.73644e-01
1.134401778e+00,2.15832e-01,9.99999e-01,9.99999e-01,2.21769e-01,9.95583e-01,9.77544e-01
1.140073787e+00,6.01095e-01,9.99999e-01,9.99999e-01,6.14764e-01,9.95670e-01,9.82017e-01
1.145774156e+00,3.62831e-01,9.99999e-01,9.99999e-01,3.70480e-01,9.95755e-01,9.83527e-01
1.151503026e+00,3.29179e-01,9.99999e-01,9.99999e-01,3.33627e-01,9.95839e-01,9.90789e-01
1.157260541e+00,3.86907e-01,9.99999e-01,9.99999e-01,3.89568e-01,9.95921e-01,9.97236e-01
1.163046844e+00,4.94013e-01,9.99999e-01,9.99999e-01,4.96385e-01,9.96001e-01,9.99215e-01
1.168862078e+00,6.08942e-01,9.99999e-01,9.99999e-01,6.11585e-01,9.96080e-01,9.99595e-01
1.174706389e+00,7.34899e-01,9.99999e-01,9.99999e-01,7.38128e-01,9.96157e-01,9.99464e-01
1.180579921e+00,8.27093e-01,9.99999e-01,9.99999e-01,8.30892e-01,9.96233e-01,9.99190e-01
1.186482820e+00,8.96383e-01,9.99999e-01,9.99999e-01,9.00452e-01,9.96307e-01,9.99168e-01
1.192415234e+00,9.36635e-01,9.99999e-01,9.99999e-01,9.40622e-01,9.96380e-01,9.99377e-01
1.198377311e+00,9.45822e-01,9.99999e-01,9.99999e-01,9.49748e-01,9.96451e-01,9.99411e-01
1.204369197e+00,9.48592e-01,9.99999e-01,9.99999e-01,9.52409e-01,9.96521e-01,9.99467e-01
1.210391043e+00,9.50855e-01,9.99999e-01,9.99999e-01,9.54416e-01,9.96590e-01,9.99676e-01
1.216442998e+00,9.57666e-01,9.99999e-01,9.99999e-01,9.61067e-01,9.96657e-01,9.99801e-01
1.222525213e+00,9.66261e-01,9.99999e-01,9.99999e-01,9.69556e-01,9.96723e-01,9.99876e-01
1.228637839e+00,9.75566e-01,9.99999e-01,9.99999e-01,9.78765e-01,9.96788e-01,9.99942e-01
