#,Wave/freq,Total,N2,O2,H2O,Rayleigh,CIA
4.000000000e-01,7.12165e-01,9.99999e-01,9.99999e-01,9.99961e-01,7.12193e-01,9.99999e-01
4.020000000e-01,7.16971e-01,9.99999e-01,9.99999e-01,9.99975e-01,7.16988e-01,9.99999e-01
4.040100000e-01,7.21708e-01,9.99999e-01,9.99999e-01,9.99989e-01,7.21715e-01,9.99999e-01
4.060300500e-01,7.26378e-01,9.99999e-01,9.99999e-01,9.99997e-01,7.26380e-01,9.99999e-01
4.080602003e-01,7.30980e-01,9.99999e-01,9.99999e-01,9.99998e-01,7.30981e-01,9.99999e-01
4.101005013e-01,7.35519e-01,9.99999e-01,9.99999e-01,9.99999e-01,7.35519e-01,9.99999e-01
4.121510038e-01,7.39995e-01,9.99999e-01,9.99999e-01,9.99998e-01,7.39996e-01,9.99999e-01
4.142117588e-01,7.44402e-01,9.99999e-01,9.99999e-01,9.99988e-01,7.44410e-01,9.99999e-01
4.162828176e-01,7.48727e-01,9.99999e-01,9.99999e-01,9.99952e-01,7.48763e-01,9.99999e-01
4.183642317e-01,7.53033e-01,9.99999e-01,9.99999e-01,9.99971e-01,7.53054e-01,9.99999e-01
4.204560528e-01,7.57272e-01,9.99999e-01,9.99999e-01,9.99982e-01,7.57285e-01,9.99999e-01
4.225583331e-01,7.61450e-01,9.99999e-01,9.99999e-01,9.99993e-01,7.61455e-01,9.99999e-01
4.246711247e-01,7.65561e-01,9.99999e-01,9.99999e-01,9.99994e-01,7.65565e-01,9.99999e-01
4.267944804e-01,7.69609e-01,9.99999e-01,9.99999e-01,9.99991e-01,7.69615e-01,9.99999e-01
4.289284528e-01,7.73602e-01,9.99999e-01,9.99999e-01,9.99993e-01,7.73606e-01,9.99999e-01
4.310730950e-01,7.77537e-01,9.99999e-01,9.99999e-01,9.99997e-01,7.77539e-01,9.99999e-01
4.332284605e-01,7.81412e-01,9.99999e-01,9.99999e-01,9.99998e-01,7.81413e-01,9.99999e-01
4.353946028e-01,7.85229e-01,9.99999e-01,9.99999e-01,9.99999e-01,7.85229e-01,9.99999e-01
4.375715758e-01,7.88984e-01,9.99999e-01,9.99999e-01,9.99994e-01,7.88988e-01,9.99999e-01
4.397594337e-01,7.92657e-01,9.99999e-01,9.99999e-01,9.99957e-01,7.92690e-01,9.99999e-01
4.419582309e-01,7.96166e-01,9.99999e-01,9.99999e-01,9.99785e-01,7.96336e-01,9.99999e-01
4.441680220e-01,7.99795e-01,9.99999e-01,9.99999e-01,9.99835e-01,7.99926e-01,9.99999e-01
4.463888621e-01,8.03324e-01,9.99999e-01,9.99999e-01,9.99827e-01,8.03461e-01,9.99999e-01
4.486208064e-01,8.06856e-01,9.99999e-01,9.99999e-01,9.99893e-01,8.06942e-01,9.99999e-01
4.508639105e-01,8.10328e-01,9.99999e-01,9.99999e-01,9.99949e-01,8.10368e-01,9.99999e-01
4.531182300e-01,8.13725e-01,9.99999e-01,9.99999e-01,9.99979e-01,8.13741e-01,9.99999e-01
4.553838212e-01,8.17050e-01,9.99999e-01,9.99999e-01,9.99986e-01,8.17060e-01,9.99999e-01
4.576607403e-01,8.20323e-01,9.99999e-01,9.99999e-01,9.99993e-01,8.20328e-01,9.99999e-01
4.599490440e-01,8.23540e-01,9.99999e-01,9.99999e-01,9.99995e-01,8.23543e-01,9.99999e-01
4.622487892e-01,8.26707e-01,9.99999e-01,9.99999e-01,9.99998e-01,8.26707e-01,9.99999e-01
4.645600332e-01,8.29818e-01,9.99999e-01,9.99999e-01,9.99996e-01,8.29821e-01,9.99999e-01
4.668828333e-01,8.32842e-01,9.99999e-01,9.99999e-01,9.99948e-01,8.32884e-01,9.99999e-01
4.692172475e-01,8.35808e-01,9.99999e-01,9.99999e-01,9.99891e-01,8.35898e-01,9.99999e-01
4.715633337e-01,8.38803e-01,9.99999e-01,9.99999e-01,9.99929e-01,8.38862e-01,9.99999e-01
4.739211504e-01,8.41722e-01,9.99999e-01,9.99999e-01,9.99932e-01,8.41779e-01,9.99999e-01
4.762907561e-01,8.44618e-01,9.99999e-01,9.99999e-01,9.99964e-01,8.44648e-01,9.99999e-01
4.786722099e-01,8.47457e-01,9.99999e-01,9.99999e-01,9.99985e-01,8.47469e-01,9.99999e-01
4.810655710e-01,8.50240e-01,9.99999e-01,9.99999e-01,9.99995e-01,8.50244e-01,9.99999e-01
4.834708988e-01,8.52937e-01,9.99999e-01,9.99999e-01,9.99957e-01,8.52973e-01,9.99999e-01
4.858882533e-01,8.55592e-01,9.99999e-01,9.99999e-01,9.99923e-01,8.55657e-01,9.99999e-01
4.883176946e-01,8.58240e-01,9.99999e-01,9.99999e-01,9.99935e-01,8.58295e-01,9.99999e-01
4.907592831e-01,8.60840e-01,9.99999e-01,9.99999e-01,9.99941e-01,8.60890e-01,9.99999e-01
4.932130795e-01,8.63405e-01,9.99999e-01,9.99999e-01,9.99958e-01,8.63441e-01,9.99999e-01
4.956791449e-01,8.65930e-01,9.99999e-01,9.99999e-01,9.99977e-01,8.65949e-01,9.99999e-01
4.981575406e-01,8.68319e-01,9.99999e-01,9.99999e-01,9.99890e-01,8.68414e-01,9.99999e-01
5.006483283e-01,8.70589e-01,9.99999e-01,9.99999e-01,9.99716e-01,8.70837e-01,9.99997e-01
5.031515699e-01,8.71962e-01,9.99999e-01,9.99999e-01,9.98573e-01,8.73219e-01,9.99984e-01
5.056673278e-01,8.74889e-01,9.99999e-01,9.99999e-01,9.99249e-01,8.75561e-01,9.99982e-01
5.081956644e-01,8.77023e-01,9.99999e-01,9.99999e-01,9.99053e-01,8.77862e-01,9.99989e-01
5.107366428e-01,8.79560e-01,9.99999e-01,9.99999e-01,9.99361e-01,8.80124e-01,9.99997e-01
5.132903260e-01,8.82025e-01,9.99999e-01,9.99999e-01,9.99635e-01,8.82347e-01,9.99999e-01
5.158567776e-01,8.84395e-01,9.99999e-01,9.99999e-01,9.99845e-01,8.84531e-01,9.99999e-01
5.184360615e-01,8.86623e-01,9.99999e-01,9.99999e-01,9.99937e-01,8.86677e-01,9.99999e-01
5.210282418e-01,8.88766e-01,9.99999e-01,9.99999e-01,9.99976e-01,8.88786e-01,9.99999e-01
5.236333830e-01,8.90775e-01,9.99999e-01,9.99999e-01,9.99906e-01,8.90858e-01,9.99998e-01
5.262515499e-01,8.92842e-01,9.99999e-01,9.99999e-01,9.99941e-01,8.92894e-01,9.99998e-01
5.288828077e-01,8.94846e-01,9.99999e-01,9.99999e-01,9.99946e-01,8.94894e-01,9.99998e-01
5.315272217e-01,8.96818e-01,9.99999e-01,9.99999e-01,9.99952e-01,8.96860e-01,9.99999e-01
5.341848578e-01,8.98762e-01,9.99999e-01,9.99999e-01,9.99968e-01,8.98790e-01,9.99999e-01
5.368557821e-01,9.00588e-01,9.99999e-01,9.99999e-01,9.99891e-01,9.00686e-01,9.99999e-01
5.395400610e-01,9.02191e-01,9.99999e-01,9.99999e-01,9.99605e-01,9.02549e-01,9.99995e-01
5.422377613e-01,9.03916e-01,9.99999e-01,9.99999e-01,9.99496e-01,9.04379e-01,9.99990e-01
5.449489501e-01,9.05741e-01,9.99999e-01,9.99999e-01,9.99529e-01,9.06176e-01,9.99990e-01
5.476736949e-01,9.07562e-01,9.99999e-01,9.99999e-01,9.99585e-01,9.07941e-01,9.99994e-01
5.504120634e-01,9.09401e-01,9.99999e-01,9.99999e-01,9.99699e-01,9.09675e-01,9.99998e-01
5.531641237e-01,9.11240e-01,9.99999e-01,9.99999e-01,9.99848e-01,9.11377e-01,9.99999e-01
5.559299443e-01,9.12983e-01,9.99999e-01,9.99999e-01,9.99926e-01,9.13050e-01,9.99999e-01
5.587095940e-01,9.14650e-01,9.99999e-01,9.99999e-01,9.99953e-01,9.14692e-01,9.99999e-01
5.615031420e-01,9.16257e-01,9.99999e-01,9.99999e-01,9.99948e-01,9.16304e-01,9.99999e-01
5.643106577e-01,9.17833e-01,9.99999e-01,9.99999e-01,9.99941e-01,9.17887e-01,9.99999e-01
5.671322110e-01,9.18779e-01,9.99999e-01,9.99999e-01,9.99284e-01,9.19442e-01,9.99993e-01
5.699678720e-01,9.20267e-01,9.99999e-01,9.99999e-01,9.99256e-01,9.20969e-01,9.99980e-01
5.728177114e-01,9.21733e-01,9.99999e-01,9.99999e-01,9.99218e-01,9.22468e-01,9.99983e-01
5.756818000e-01,9.23270e-01,9.99999e-01,9.99999e-01,9.99284e-01,9.23939e-01,9.99990e-01
5.785602090e-01,9.24806e-01,9.99999e-01,9.99999e-01,9.99376e-01,9.25384e-01,9.99996e-01
5.814530100e-01,9.26221e-01,9.99999e-01,9.99999e-01,9.99373e-01,9.26803e-01,9.99998e-01
5.843602750e-01,9.27494e-01,9.99999e-01,9.99999e-01,9.99248e-01,9.28195e-01,9.99995e-01
5.872820764e-01,9.23519e-01,9.99999e-01,9.99999e-01,9.93542e-01,9.29562e-01,9.99954e-01
5.902184868e-01,9.23562e-01,9.99999e-01,9.99999e-01,9.92234e-01,9.30904e-01,9.99876e-01
5.931695792e-01,9.26982e-01,9.99999e-01,9.99999e-01,9.94496e-01,9.32222e-01,9.99881e-01
5.961354271e-01,9.27831e-01,9.99999e-01,9.99999e-01,9.93978e-01,9.33515e-01,9.99931e-01
5.991161043e-01,9.30661e-01,9.99999e-01,9.99999e-01,9.95609e-01,9.34784e-01,9.99978e-01
6.021116848e-01,9.33697e-01,9.99999e-01,9.99999e-01,9.97509e-01,9.36031e-01,9.99997e-01
6.051222432e-01,9.36072e-01,9.99999e-01,9.99999e-01,9.98739e-01,9.37254e-01,9.99999e-01
6.081478544e-01,9.37943e-01,9.99999e-01,9.99999e-01,9.99455e-01,9.38454e-01,9.99999e-01
6.111885937e-01,9.39416e-01,9.99999e-01,9.99999e-01,9.99769e-01,9.39632e-01,9.99999e-01
6.142445367e-01,9.40692e-01,9.99999e-01,9.99999e-01,9.99896e-01,9.40789e-01,9.99999e-01
6.173157594e-01,9.41870e-01,9.99999e-01,9.99999e-01,9.99942e-01,9.41923e-01,9.99999e-01
6.204023382e-01,9.42992e-01,9.99999e-01,9.99999e-01,9.99951e-01,9.43037e-01,9.99999e-01
6.235043498e-01,9.43927e-01,9.99999e-01,9.99999e-01,9.99784e-01,9.44130e-01,9.99998e-01
6.266218716e-01,9.44135e-01,9.99999e-01,9.99999e-01,9.98877e-01,9.45203e-01,9.99991e-01
6.297549810e-01,9.45852e-01,9.99999e-01,9.99999e-01,9.99587e-01,9.46256e-01,9.99983e-01
6.329037559e-01,9.46508e-01,9.99999e-01,9.99999e-01,9.99188e-01,9.47289e-01,9.99986e-01
6.360682746e-01,9.47638e-01,9.99999e-01,9.99999e-01,9.99305e-01,9.48303e-01,9.99992e-01
6.392486160e-01,9.48443e-01,9.99999e-01,9.99999e-01,9.99102e-01,9.49297e-01,9.99996e-01
6.424448591e-01,9.49119e-01,9.99999e-01,9.99999e-01,9.98790e-01,9.50274e-01,9.99993e-01
6.456570834e-01,9.45871e-01,9.99999e-01,9.99999e-01,9.94397e-01,9.51231e-01,9.99965e-01
6.488853688e-01,9.48217e-01,9.99999e-01,9.99999e-01,9.95932e-01,9.52171e-01,9.99913e-01
6.521297956e-01,9.49075e-01,9.99999e-01,9.99999e-01,9.95854e-01,9.53094e-01,9.99928e-01
6.553904446e-01,9.49996e-01,9.99999e-01,9.99999e-01,9.95857e-01,9.53998e-01,9.99946e-01
6.586673968e-01,9.51493e-01,9.99999e-01,9.99999e-01,9.96463e-01,9.54886e-01,9.99981e-01
6.619607338e-01,9.53870e-01,9.99999e-01,9.99999e-01,9.98028e-01,9.55757e-01,9.99995e-01
6.652705375e-01,9.55478e-01,9.99999e-01,9.99999e-01,9.98816e-01,9.56612e-01,9.99997e-01
6.685968902e-01,9.56969e-01,9.99999e-01,9.99999e-01,9.99497e-01,9.57450e-01,9.99999e-01
6.719398746e-01,9.58029e-01,9.99999e-01,9.99999e-01,9.99745e-01,9.58273e-01,9.99999e-01
6.752995740e-01,9.58951e-01,9.99999e-01,9.99999e-01,9.99865e-01,9.59080e-01,9.99999e-01
6.786760719e-01,9.59679e-01,9.99999e-01,9.99999e-01,9.99798e-01,9.59872e-01,9.99999e-01
6.820694522e-01,9.60318e-01,9.99999e-01,9.99999e-01,9.99657e-01,9.60649e-01,9.99997e-01
6.854797995e-01,9.60982e-01,9.99999e-01,9.99999e-01,9.99557e-01,9.61411e-01,9.99995e-01
6.889071985e-01,9.61108e-01,9.99999e-01,9.99999e-01,9.98916e-01,9.62158e-01,9.99989e-01
6.923517345e-01,9.46047e-01,9.99999e-01,9.99999e-01,9.82587e-01,9.62892e-01,9.99915e-01
6.958134932e-01,9.54823e-01,9.99999e-01,9.99999e-01,9.91062e-01,9.63611e-01,9.99814e-01
6.992925606e-01,9.55829e-01,9.99999e-01,9.99999e-01,9.91363e-01,9.64317e-01,9.99832e-01
7.027890234e-01,9.54672e-01,9.99999e-01,9.99999e-01,9.89413e-01,9.65009e-01,9.99872e-01
7.063029686e-01,9.57019e-01,9.99999e-01,9.99999e-01,9.91085e-01,9.65689e-01,9.99936e-01
7.098344834e-01,9.58052e-01,9.99999e-01,9.99999e-01,9.91444e-01,9.66355e-01,9.99962e-01
7.133836558e-01,9.55824e-01,9.99999e-01,9.99999e-01,9.88506e-01,9.67008e-01,9.99925e-01
7.169505741e-01,8.81829e-01,9.99999e-01,9.99999e-01,9.11844e-01,9.67649e-01,9.99413e-01
7.205353270e-01,9.25139e-01,9.99999e-01,9.99999e-01,9.56435e-01,9.68278e-01,9.98965e-01
7.241380036e-01,9.14086e-01,9.99999e-01,9.99999e-01,9.44274e-01,9.68895e-01,9.99106e-01
7.277586936e-01,9.19985e-01,9.99999e-01,9.99999e-01,9.49620e-01,9.69500e-01,9.99269e-01
7.313974871e-01,9.18104e-01,9.99999e-01,9.99999e-01,9.46731e-01,9.70093e-01,9.99657e-01
7.350544745e-01,9.41923e-01,9.99999e-01,9.99999e-01,9.70494e-01,9.70675e-01,9.99880e-01
7.387297469e-01,9.50029e-01,9.99999e-01,9.99999e-01,9.78208e-01,9.71246e-01,9.99945e-01
7.424233956e-01,9.61397e-01,9.99999e-01,9.99999e-01,9.89297e-01,9.71806e-01,9.99990e-01
7.461355126e-01,9.66027e-01,9.99999e-01,9.99999e-01,9.93494e-01,9.72355e-01,9.99997e-01
7.498661902e-01,9.69949e-01,9.99999e-01,9.99999e-01,9.96973e-01,9.72893e-01,9.99998e-01
7.536155211e-01,9.71972e-01,9.99999e-01,9.99999e-01,9.98510e-01,9.73421e-01,9.99999e-01
7.573835987e-01,9.73193e-01,9.99999e-01,9.99999e-01,9.99233e-01,9.73940e-01,9.99999e-01
7.611705167e-01,9.73984e-01,9.99999e-01,9.99999e-01,9.99523e-01,9.74448e-01,9.99999e-01
7.649763693e-01,9.74655e-01,9.99999e-01,9.99999e-01,9.99700e-01,9.74946e-01,9.99999e-01
7.688012511e-01,9.75232e-01,9.99999e-01,9.99999e-01,9.99791e-01,9.75435e-01,9.99999e-01
7.726452574e-01,9.75747e-01,9.99999e-01,9.99999e-01,9.99828e-01,9.75914e-01,9.99999e-01
7.765084837e-01,9.76145e-01,9.99999e-01,9.99999e-01,9.99754e-01,9.76384e-01,9.99999e-01
7.803910261e-01,9.75808e-01,9.99999e-01,9.99999e-01,9.98938e-01,9.76845e-01,9.99998e-01
7.842929812e-01,9.73675e-01,9.99999e-01,9.99999e-01,9.96299e-01,9.77297e-01,9.99992e-01
7.882144461e-01,9.70299e-01,9.99999e-01,9.99999e-01,9.92440e-01,9.77741e-01,9.99947e-01
7.921555184e-01,9.74044e-01,9.99999e-01,9.99999e-01,9.95865e-01,9.78175e-01,9.99909e-01
7.961162960e-01,9.71313e-01,9.99999e-01,9.99999e-01,9.92636e-01,9.78602e-01,9.99913e-01
8.000968774e-01,9.70646e-01,9.99999e-01,9.99999e-01,9.91536e-01,9.79020e-01,9.99908e-01
8.040973618e-01,9.71062e-01,9.99999e-01,9.99999e-01,9.91525e-01,9.79430e-01,9.99929e-01
8.081178486e-01,9.61058e-01,9.99999e-01,9.99999e-01,9.80908e-01,9.79832e-01,9.99928e-01
8.121584379e-01,9.04507e-01,9.99999e-01,9.99999e-01,9.22999e-01,9.80227e-01,9.99732e-01
8.162192301e-01,8.91458e-01,9.99999e-01,9.99999e-01,9.09996e-01,9.80613e-01,9.98993e-01
8.203003262e-01,9.34545e-01,9.99999e-01,9.99999e-01,9.53774e-01,9.80993e-01,9.98822e-01
8.244018279e-01,9.19042e-01,9.99999e-01,9.99999e-01,9.37371e-01,9.81365e-01,9.99062e-01
8.285238370e-01,9.26991e-01,9.99999e-01,9.99999e-01,9.44938e-01,9.81729e-01,9.99263e-01
8.326664562e-01,9.27360e-01,9.99999e-01,9.99999e-01,9.44562e-01,9.82087e-01,9.99695e-01
8.368297885e-01,9.43160e-01,9.99999e-01,9.99999e-01,9.60086e-01,9.82438e-01,9.99929e-01
8.410139374e-01,9.59251e-01,9.99999e-01,9.99999e-01,9.76096e-01,9.82781e-01,9.99958e-01
8.452190071e-01,9.71514e-01,9.99999e-01,9.99999e-01,9.88219e-01,9.83119e-01,9.99975e-01
8.494451021e-01,9.76674e-01,9.99999e-01,9.99999e-01,9.93129e-01,9.83449e-01,9.99980e-01
8.536923276e-01,9.79771e-01,9.99999e-01,9.99999e-01,9.95942e-01,9.83774e-01,9.99987e-01
8.579607893e-01,9.81623e-01,9.99999e-01,9.99999e-01,9.97493e-01,9.84091e-01,9.99996e-01
8.622505932e-01,9.82838e-01,9.99999e-01,9.99999e-01,9.98410e-01,9.84403e-01,9.99999e-01
8.665618462e-01,9.83738e-01,9.99999e-01,9.99999e-01,9.99013e-01,9.84709e-01,9.99999e-01
8.708946554e-01,9.83894e-01,9.99999e-01,9.99999e-01,9.98868e-01,9.85009e-01,9.99998e-01
8.752491287e-01,9.83812e-01,9.99999e-01,9.99999e-01,9.98487e-01,9.85303e-01,9.99997e-01
8.796253743e-01,9.83518e-01,9.99999e-01,9.99999e-01,9.97901e-01,9.85591e-01,9.99994e-01
8.840235012e-01,9.83498e-01,9.99999e-01,9.99999e-01,9.97604e-01,9.85873e-01,9.99984e-01
8.884436187e-01,9.77404e-01,9.99999e-01,9.99999e-01,9.91171e-01,9.86150e-01,9.99958e-01
8.928858368e-01,8.99230e-01,9.99999e-01,9.99999e-01,9.11825e-01,9.86422e-01,9.99760e-01
8.973502660e-01,8.38225e-01,9.99999e-01,9.99999e-01,8.50574e-01,9.86688e-01,9.98776e-01
9.018370173e-01,9.07438e-01,9.99999e-01,9.99999e-01,9.21207e-01,9.86950e-01,9.98076e-01
9.063462024e-01,9.15912e-01,9.99999e-01,9.99999e-01,9.29351e-01,9.87206e-01,9.98310e-01
9.108779334e-01,8.79725e-01,9.99999e-01,9.99999e-01,8.92465e-01,9.87457e-01,9.98244e-01
9.154323231e-01,8.66747e-01,9.99999e-01,9.99999e-01,8.78812e-01,9.87703e-01,9.98548e-01
9.200094847e-01,8.92439e-01,9.99999e-01,9.99999e-01,9.04063e-01,9.87944e-01,9.99187e-01
9.246095321e-01,8.43003e-01,9.99999e-01,9.99999e-01,8.53884e-01,9.88181e-01,9.99063e-01
9.292325798e-01,3.54322e-01,9.99999e-01,9.99999e-01,3.60100e-01,9.88413e-01,9.95488e-01
9.338787427e-01,2.64274e-01,9.99999e-01,9.99999e-01,2.71714e-01,9.88641e-01,9.83789e-01
9.385481364e-01,5.72751e-01,9.99999e-01,9.99999e-01,5.89694e-01,9.88864e-01,9.82203e-01
9.432408771e-01,4.71502e-01,9.99999e-01,9.99999e-01,4.84148e-01,9.89083e-01,9.84628e-01
9.479570815e-01,3.62090e-01,9.99999e-01,9.99999e-01,3.70651e-01,9.89297e-01,9.87471e-01
9.526968669e-01,4.61045e-01,9.99999e-01,9.99999e-01,4.69531e-01,9.89507e-01,9.92339e-01
9.574603512e-01,4.83791e-01,9.99999e-01,9.99999e-01,4.90732e-01,9.89714e-01,9.96101e-01
9.622476530e-01,5.51178e-01,9.99999e-01,9.99999e-01,5.58299e-01,9.89916e-01,9.97302e-01
9.670588912e-01,7.04930e-01,9.99999e-01,9.99999e-01,7.13284e-01,9.90114e-01,9.98154e-01
9.718941857e-01,7.98622e-01,9.99999e-01,9.99999e-01,8.07535e-01,9.90308e-01,9.98640e-01
9.767536566e-01,8.28443e-01,9.99999e-01,9.99999e-01,8.37258e-01,9.90499e-01,9.98960e-01
9.816374249e-01,8.68201e-01,9.99999e-01,9.99999e-01,8.76678e-01,9.90685e-01,9.99640e-01
9.865456120e-01,9.12519e-01,9.99999e-01,9.99999e-01,9.20996e-01,9.90869e-01,9.99924e-01
9.914783401e-01,9.41818e-01,9.99999e-01,9.99999e-01,9.50344e-01,9.91048e-01,9.99978e-01
9.964357318e-01,9.64106e-01,9.99999e-01,9.99999e-01,9.72653e-01,9.91224e-01,9.99987e-01
1.001417910e+00,9.75044e-01,9.99999e-01,9.99999e-01,9.83523e-01,9.91397e-01,9.99980e-01
1.006425000e+00,9.82179e-01,9.99999e-01,9.99999e-01,9.90558e-01,9.91566e-01,9.99973e-01
1.011457125e+00,9.85899e-01,9.99999e-01,9.99999e-01,9.94142e-01,9.91732e-01,9.99975e-01
1.016514411e+00,9.87926e-01,9.99999e-01,9.99999e-01,9.96015e-01,9.91894e-01,9.99982e-01
1.021596983e+00,9.88885e-01,9.99999e-01,9.99999e-01,9.96822e-01,9.92054e-01,9.99982e-01
1.026704968e+00,9.89739e-01,9.99999e-01,9.99999e-01,9.97519e-01,9.92210e-01,9.99988e-01
1.031838492e+00,9.90574e-01,9.99999e-01,9.99999e-01,9.98199e-01,9.92363e-01,9.99996e-01
1.036997685e+00,9.91450e-01,9.99999e-01,9.99999e-01,9.98928e-01,9.92514e-01,9.99999e-01
1.042182673e+00,9.91390e-01,9.99999e-01,9.99999e-01,9.98718e-01,9.92661e-01,9.99999e-01
1.047393587e+00,9.91122e-01,9.99999e-01,9.99999e-01,9.98304e-01,9.92805e-01,9.99999e-01
1.052630555e+00,9.90634e-01,9.99999e-01,9.99999e-01,9.97670e-01,9.92947e-01,9.99998e-01
1.057893707e+00,9.89221e-01,9.99999e-01,9.99999e-01,9.96109e-01,9.93086e-01,9.99998e-01
1.063183176e+00,9.86873e-01,9.99999e-01,9.99999e-01,9.93610e-01,9.93222e-01,9.99996e-01
1.068499092e+00,9.82754e-01,9.99999e-01,9.99999e-01,9.89334e-01,9.93355e-01,9.99992e-01
1.073841587e+00,9.81065e-01,9.99999e-01,9.99999e-01,9.87512e-01,9.93486e-01,9.99983e-01
1.079210795e+00,9.77738e-01,9.99999e-01,9.99999e-01,9.84063e-01,9.93614e-01,9.99956e-01
1.084606849e+00,9.69736e-01,9.99999e-01,9.99999e-01,9.75944e-01,9.93740e-01,9.99896e-01
1.090029883e+00,9.59356e-01,9.99999e-01,9.99999e-01,9.65484e-01,9.93863e-01,9.99786e-01
1.095480033e+00,9.03067e-01,9.99999e-01,9.99999e-01,9.08882e-01,9.93984e-01,9.99613e-01
1.100957433e+00,7.80077e-01,9.99999e-01,9.99999e-01,7.85261e-01,9.94103e-01,9.99289e-01
1.106462220e+00,5.42255e-01,9.99999e-01,9.99999e-01,5.46064e-01,9.94219e-01,9.98795e-01
1.111994531e+00,2.83978e-01,9.99999e-01,9.99999e-01,2.86511e-01,9.94333e-01,9.96807e-01
1.117554504e+00,1.34550e-01,9.99999e-01,9.99999e-01,1.36872e-01,9.94444e-01,9.88522e-01
1.123142276e+00,2.38395e-01,9.99999e-01,9.99999e-01,2.46352e-01,9.94554e-01,9.72997e-01
1.128757988e+00,3.77235e-01,9.99999e-01,9.99999e-01,3.91462e-01,9.94661e-01,9.68829e-01
1.134401778e+00,1.82816e-01,9.99999e-01,9.99999e-01,1.88793e-01,9.94766e-01,9.73432e-01
1.140073787e+00,5.48365e-01,9.99999e-01,9.99999e-01,5.63179e-01,9.94869e-01,9.78715e-01
1.145774156e+00,3.06302e-01,9.99999e-01,9.99999e-01,3.13973e-01,9.94970e-01,9.80499e-01
1.151503026e+00,2.73459e-01,9.99999e-01,9.99999e-01,2.77845e-01,9.95069e-01,9.89089e-01
1.157260541e+00,3.27282e-01,9.99999e-01,9.99999e-01,3.29952e-01,9.95166e-01,9.96724e-01
1.163046844e+00,4.36654e-01,9.99999e-01,9.99999e-01,4.39141e-01,9.95262e-01,9.99070e-01
1.168862078e+00,5.57207e-01,9.99999e-01,9.99999e-01,5.60075e-01,9.95355e-01,9.99520e-01
1.174706389e+00,6.95278e-01,9.99999e-01,9.99999e-01,6.98902e-01,9.95447e-01,9.99364e-01
1.180579921e+00,7.99276e-01,9.99999e-01,9.99999e-01,8.03630e-01,9.95536e-01,9.99040e-01
1.186482820e+00,8.78676e-01,9.99999e-01,9.99999e-01,8.83407e-01,9.95624e-01,9.99014e-01
1.192415234e+00,9.25422e-01,9.99999e-01,9.99999e-01,9.30093e-01,9.95710e-01,9.99261e-01
1.198377311e+00,9.36072e-01,9.99999e-01,9.99999e-01,9.40679e-01,9.95795e-01,9.99302e-01
1.204369197e+00,9.39396e-01,9.99999e-01,9.99999e-01,9.43878e-01,9.95878e-01,9.99369e-01
1.210391043e+00,9.42052e-01,9.99999e-01,9.99999e-01,9.46236e-01,9.95959e-01,9.99616e-01
1.216442998e+00,9.50152e-01,9.99999e-01,9.99999e-01,9.54154e-01,9.96039e-01,9.99764e-01
1.222525213e+00,9.60197e-01,9.99999e-01,9.99999e-01,9.64080e-01,9.96117e-01,9.99853e-01
1.228637839e+00,9.71128e-01,9.99999e-01,9.99999e-01,9.74904e-01,9.96193e-01,9.99931e-01
