#,Wave/freq,Total,N2,O2,H2O,Rayleigh,CIA
4.000000000e-01,4.60082e-01,9.99999e-01,9.99999e-01,9.99912e-01,4.60122e-01,9.99999e-01
4.020000000e-01,4.67214e-01,9.99999e-01,9.99999e-01,9.99945e-01,4.67239e-01,9.99999e-01
4.040100000e-01,4.74304e-01,9.99999e-01,9.99999e-01,9.99976e-01,4.74314e-01,9.99999e-01
4.060300500e-01,4.81352e-01,9.99999e-01,9.99999e-01,9.99994e-01,4.81354e-01,9.99999e-01
4.080602003e-01,4.88356e-01,9.99999e-01,9.99999e-01,9.99997e-01,4.88356e-01,9.99999e-01
4.101005013e-01,4.95319e-01,9.99999e-01,9.99999e-01,9.99999e-01,4.95319e-01,9.99999e-01
4.121510038e-01,5.02239e-01,9.99999e-01,9.99999e-01,9.99996e-01,5.02241e-01,9.99999e-01
4.142117588e-01,5.09107e-01,9.99999e-01,9.99999e-01,9.99975e-01,5.09119e-01,9.99999e-01
4.162828176e-01,5.15898e-01,9.99999e-01,9.99999e-01,9.99891e-01,5.15954e-01,9.99999e-01
4.183642317e-01,5.22708e-01,9.99999e-01,9.99999e-01,9.99935e-01,5.22742e-01,9.99999e-01
4.204560528e-01,5.29462e-01,9.99999e-01,9.99999e-01,9.99960e-01,5.29483e-01,9.99999e-01
4.225583331e-01,5.36167e-01,9.99999e-01,9.99999e-01,9.99984e-01,5.36175e-01,9.99999e-01
4.246711247e-01,5.42810e-01,9.99999e-01,9.99999e-01,9.99987e-01,5.42817e-01,9.99999e-01
4.267944804e-01,5.49398e-01,9.99999e-01,9.99999e-01,9.99982e-01,5.49407e-01,9.99999e-01
4.289284528e-01,5.55938e-01,9.99999e-01,9.99999e-01,9.99986e-01,5.55946e-01,9.99999e-01
4.310730950e-01,5.62427e-01,9.99999e-01,9.99999e-01,9.99993e-01,5.62430e-01,9.99999e-01
4.332284605e-01,5.68859e-01,9.99999e-01,9.99999e-01,9.99998e-01,5.68860e-01,9.99999e-01
4.353946028e-01,5.75234e-01,9.99999e-01,9.99999e-01,9.99998e-01,5.75234e-01,9.99999e-01
4.375715758e-01,5.81545e-01,9.99999e-01,9.99999e-01,9.99988e-01,5.81551e-01,9.99999e-01
4.397594337e-01,5.87755e-01,9.99999e-01,9.99999e-01,9.99903e-01,5.87812e-01,9.99999e-01
4.419582309e-01,5.93722e-01,9.99999e-01,9.99999e-01,9.99508e-01,5.94013e-01,9.99999e-01
4.441680220e-01,5.99931e-01,9.99999e-01,9.99999e-01,9.99624e-01,6.00156e-01,9.99999e-01
4.463888621e-01,6.06001e-01,9.99999e-01,9.99999e-01,9.99606e-01,6.06239e-01,9.99999e-01
4.486208064e-01,6.12114e-01,9.99999e-01,9.99999e-01,9.99756e-01,6.12262e-01,9.99999e-01
4.508639105e-01,6.18154e-01,9.99999e-01,9.99999e-01,9.99885e-01,6.18224e-01,9.99999e-01
4.531182300e-01,6.24097e-01,9.99999e-01,9.99999e-01,9.99954e-01,6.24125e-01,9.99999e-01
4.553838212e-01,6.29944e-01,9.99999e-01,9.99999e-01,9.99968e-01,6.29963e-01,9.99999e-01
4.576607403e-01,6.35731e-01,9.99999e-01,9.99999e-01,9.99985e-01,6.35740e-01,9.99999e-01
4.599490440e-01,6.41447e-01,9.99999e-01,9.99999e-01,9.99989e-01,6.41453e-01,9.99999e-01
4.622487892e-01,6.47103e-01,9.99999e-01,9.99999e-01,9.99997e-01,6.47104e-01,9.99999e-01
4.645600332e-01,6.52686e-01,9.99999e-01,9.99999e-01,9.99992e-01,6.52691e-01,9.99999e-01
4.668828333e-01,6.58138e-01,9.99999e-01,9.99999e-01,9.99883e-01,6.58215e-01,9.99999e-01
4.692172475e-01,6.63511e-01,9.99999e-01,9.99999e-01,9.99753e-01,6.63675e-01,9.99999e-01
4.715633337e-01,6.68963e-01,9.99999e-01,9.99999e-01,9.99838e-01,6.69071e-01,9.99999e-01
4.739211504e-01,6.74299e-01,9.99999e-01,9.99999e-01,9.99846e-01,6.74403e-01,9.99999e-01
4.762907561e-01,6.79617e-01,9.99999e-01,9.99999e-01,9.99920e-01,6.79671e-01,9.99999e-01
4.786722099e-01,6.84853e-01,9.99999e-01,9.99999e-01,9.99967e-01,6.84875e-01,9.99999e-01
4.810655710e-01,6.90008e-01,9.99999e-01,9.99999e-01,9.99989e-01,6.90015e-01,9.99999e-01
4.834708988e-01,6.95023e-01,9.99999e-01,9.99999e-01,9.99902e-01,6.95090e-01,9.99999e-01
4.858882533e-01,6.99980e-01,9.99999e-01,9.99999e-01,9.99825e-01,7.00102e-01,9.99999e-01
4.883176946e-01,7.04947e-01,9.99999e-01,9.99999e-01,9.99853e-01,7.05050e-01,9.99999e-01
4.907592831e-01,7.09840e-01,9.99999e-01,9.99999e-01,9.99868e-01,7.09934e-01,9.99999e-01
4.932130795e-01,7.14687e-01,9.99999e-01,9.99999e-01,9.99906e-01,7.14754e-01,9.99999e-01
4.956791449e-01,7.19475e-01,9.99999e-01,9.99999e-01,9.99950e-01,7.19511e-01,9.99999e-01
4.981575406e-01,7.24024e-01,9.99999e-01,9.99999e-01,9.99750e-01,7.24204e-01,9.99999e-01
5.006483283e-01,7.28359e-01,9.99999e-01,9.99999e-01,9.99350e-01,7.28835e-01,9.99995e-01
5.031515699e-01,7.30988e-01,9.99999e-01,9.99999e-01,9.96741e-01,7.33403e-01,9.99965e-01
5.056673278e-01,7.36615e-01,9.99999e-01,9.99999e-01,9.98285e-01,7.37908e-01,9.99960e-01
5.081956644e-01,7.40730e-01,9.99999e-01,9.99999e-01,9.97838e-01,7.42352e-01,9.99975e-01
5.107366428e-01,7.45641e-01,9.99999e-01,9.99999e-01,9.98541e-01,7.46733e-01,9.99995e-01
5.132903260e-01,7.50428e-01,9.99999e-01,9.99999e-01,9.99167e-01,7.51053e-01,9.99998e-01
5.158567776e-01,7.55047e-01,9.99999e-01,9.99999e-01,9.99648e-01,7.55312e-01,9.99999e-01
5.184360615e-01,7.59404e-01,9.99999e-01,9.99999e-01,9.99858e-01,7.59511e-01,9.99999e-01
5.210282418e-01,7.63608e-01,9.99999e-01,9.99999e-01,9.99946e-01,7.63649e-01,9.99999e-01
5.236333830e-01,7.67563e-01,9.99999e-01,9.99999e-01,9.99787e-01,7.67727e-01,9.99998e-01
5.262515499e-01,7.71642e-01,9.99999e-01,9.99999e-01,9.99866e-01,7.71746e-01,9.99997e-01
5.288828077e-01,7.75610e-01,9.99999e-01,9.99999e-01,9.99877e-01,7.75705e-01,9.99998e-01
5.315272217e-01,7.79524e-01,9.99999e-01,9.99999e-01,9.99893e-01,7.79607e-01,9.99999e-01
5.341848578e-01,7.83395e-01,9.99999e-01,9.99999e-01,9.99929e-01,7.83450e-01,9.99999e-01
5.368557821e-01,7.87040e-01,9.99999e-01,9.99999e-01,9.99750e-01,7.87236e-01,9.99998e-01
5.395400610e-01,7.90244e-01,9.99999e-01,9.99999e-01,9.99096e-01,7.90965e-01,9.99991e-01
5.422377613e-01,7.93708e-01,9.99999e-01,9.99999e-01,9.98851e-01,7.94637e-01,9.99978e-01
5.449489501e-01,7.97377e-01,9.99999e-01,9.99999e-01,9.98923e-01,7.98253e-01,9.99977e-01
5.476736949e-01,8.01048e-01,9.99999e-01,9.99999e-01,9.99054e-01,8.01814e-01,9.99988e-01
5.504120634e-01,8.04765e-01,9.99999e-01,9.99999e-01,9.99313e-01,8.05320e-01,9.99996e-01
5.531641237e-01,8.08492e-01,9.99999e-01,9.99999e-01,9.99654e-01,8.08771e-01,9.99999e-01
5.559299443e-01,8.12034e-01,9.99999e-01,9.99999e-01,9.99833e-01,8.12169e-01,9.99999e-01
5.587095940e-01,8.15428e-01,9.99999e-01,9.99999e-01,9.99894e-01,8.15513e-01,9.99999e-01
5.615031420e-01,8.18709e-01,9.99999e-01,9.99999e-01,9.99882e-01,8.18805e-01,9.99999e-01
5.643106577e-01,8.21933e-01,9.99999e-01,9.99999e-01,9.99865e-01,8.22045e-01,9.99998e-01
5.671322110e-01,8.23867e-01,9.99999e-01,9.99999e-01,9.98359e-01,8.25233e-01,9.99985e-01
5.699678720e-01,8.26930e-01,9.99999e-01,9.99999e-01,9.98305e-01,8.28370e-01,9.99955e-01
5.728177114e-01,8.29941e-01,9.99999e-01,9.99999e-01,9.98213e-01,8.31456e-01,9.99963e-01
5.756818000e-01,8.33111e-01,9.99999e-01,9.99999e-01,9.98364e-01,8.34493e-01,9.99978e-01
5.785602090e-01,8.36285e-01,9.99999e-01,9.99999e-01,9.98577e-01,8.37481e-01,9.99993e-01
5.814530100e-01,8.39214e-01,9.99999e-01,9.99999e-01,9.98567e-01,8.40420e-01,9.99996e-01
5.843602750e-01,8.41852e-01,9.99999e-01,9.99999e-01,9.98279e-01,8.43311e-01,9.99990e-01
5.872820764e-01,8.33627e-01,9.99999e-01,9.99999e-01,9.85295e-01,8.46154e-01,9.99896e-01
5.902184868e-01,8.33730e-01,9.99999e-01,9.99999e-01,9.82346e-01,8.48951e-01,9.99718e-01
5.931695792e-01,8.40805e-01,9.99999e-01,9.99999e-01,9.87472e-01,8.51702e-01,9.99728e-01
5.961354271e-01,8.42568e-01,9.99999e-01,9.99999e-01,9.86297e-01,8.54406e-01,9.99843e-01
5.991161043e-01,8.48453e-01,9.99999e-01,9.99999e-01,9.89997e-01,8.57066e-01,9.99951e-01
6.021116848e-01,8.54794e-01,9.99999e-01,9.99999e-01,9.94320e-01,8.59681e-01,9.99994e-01
6.051222432e-01,8.59773e-01,9.99999e-01,9.99999e-01,9.97123e-01,8.62252e-01,9.99999e-01
6.081478544e-01,8.63706e-01,9.99999e-01,9.99999e-01,9.98757e-01,8.64780e-01,9.99999e-01
6.111885937e-01,8.66811e-01,9.99999e-01,9.99999e-01,9.99475e-01,8.67265e-01,9.99999e-01
6.142445367e-01,8.69504e-01,9.99999e-01,9.99999e-01,9.99765e-01,8.69708e-01,9.99999e-01
6.173157594e-01,8.71997e-01,9.99999e-01,9.99999e-01,9.99870e-01,8.72110e-01,9.99999e-01
6.204023382e-01,8.74374e-01,9.99999e-01,9.99999e-01,9.99889e-01,8.74470e-01,9.99999e-01
6.235043498e-01,8.76357e-01,9.99999e-01,9.99999e-01,9.99506e-01,8.76790e-01,9.99998e-01
6.266218716e-01,8.76800e-01,9.99999e-01,9.99999e-01,9.97435e-01,8.79070e-01,9.99981e-01
6.297549810e-01,8.80450e-01,9.99999e-01,9.99999e-01,9.99058e-01,8.81311e-01,9.99963e-01
6.329037559e-01,8.81850e-01,9.99999e-01,9.99999e-01,9.98145e-01,8.83513e-01,9.99970e-01
6.360682746e-01,8.84257e-01,9.99999e-01,9.99999e-01,9.98413e-01,8.85677e-01,9.99982e-01
6.392486160e-01,8.85976e-01,9.99999e-01,9.99999e-01,9.97948e-01,8.87804e-01,9.99991e-01
6.424448591e-01,8.87418e-01,9.99999e-01,9.99999e-01,9.97232e-01,8.89893e-01,9.99985e-01
6.456570834e-01,8.80477e-01,9.99999e-01,9.99999e-01,9.87217e-01,8.91946e-01,9.99922e-01
6.488853688e-01,8.85509e-01,9.99999e-01,9.99999e-01,9.90739e-01,8.93963e-01,9.99801e-01
6.521297956e-01,8.87348e-01,9.99999e-01,9.99999e-01,9.90566e-01,8.95944e-01,9.99836e-01
6.553904446e-01,8.89298e-01,9.99999e-01,9.99999e-01,9.90549e-01,8.97891e-01,9.99878e-01
6.586673968e-01,8.92517e-01,9.99999e-01,9.99999e-01,9.91942e-01,8.99803e-01,9.99958e-01
6.619607338e-01,8.97619e-01,9.99999e-01,9.99999e-01,9.95502e-01,9.01681e-01,9.99990e-01
6.652705375e-01,9.01082e-01,9.99999e-01,9.99999e-01,9.97298e-01,9.03527e-01,9.99995e-01
6.685968902e-01,9.04300e-01,9.99999e-01,9.99999e-01,9.98852e-01,9.05339e-01,9.99998e-01
6.719398746e-01,9.06592e-01,9.99999e-01,9.99999e-01,9.99418e-01,9.07119e-01,9.99999e-01
6.752995740e-01,9.08588e-01,9.99999e-01,9.99999e-01,9.99692e-01,9.08867e-01,9.99999e-01
6.786760719e-01,9.10165e-01,9.99999e-01,9.99999e-01,9.99539e-01,9.10584e-01,9.99998e-01
6.820694522e-01,9.11546e-01,9.99999e-01,9.99999e-01,9.99208e-01,9.12271e-01,9.99995e-01
6.854797995e-01,9.12995e-01,9.99999e-01,9.99999e-01,9.98988e-01,9.13927e-01,9.99990e-01
6.889071985e-01,9.13261e-01,9.99999e-01,9.99999e-01,9.97517e-01,9.15553e-01,9.99977e-01
6.923517345e-01,8.80902e-01,9.99999e-01,9.99999e-01,9.60660e-01,9.17150e-01,9.99808e-01
6.958134932e-01,8.99793e-01,9.99999e-01,9.99999e-01,9.79814e-01,9.18718e-01,9.99576e-01
6.992925606e-01,9.01833e-01,9.99999e-01,9.99999e-01,9.80352e-01,9.20258e-01,9.99618e-01
7.027890234e-01,8.99382e-01,9.99999e-01,9.99999e-01,9.75995e-01,9.21769e-01,9.99708e-01
7.063029686e-01,9.04424e-01,9.99999e-01,9.99999e-01,9.79746e-01,9.23254e-01,9.99854e-01
7.098344834e-01,9.06653e-01,9.99999e-01,9.99999e-01,9.80554e-01,9.24711e-01,9.99913e-01
7.133836558e-01,9.01817e-01,9.99999e-01,9.99999e-01,9.73900e-01,9.26142e-01,9.99829e-01
7.169505741e-01,7.52418e-01,9.99999e-01,9.99999e-01,8.12278e-01,9.27547e-01,9.98660e-01
7.205353270e-01,8.38210e-01,9.99999e-01,9.99999e-01,9.04478e-01,9.28926e-01,9.97637e-01
7.241380036e-01,8.15222e-01,9.99999e-01,9.99999e-01,8.78109e-01,9.30279e-01,9.97959e-01
7.277586936e-01,8.27278e-01,9.99999e-01,9.99999e-01,8.89493e-01,9.31608e-01,9.98331e-01
7.313974871e-01,8.23270e-01,9.99999e-01,9.99999e-01,8.83162e-01,9.32913e-01,9.99218e-01
7.350544745e-01,8.72396e-01,9.99999e-01,9.99999e-01,9.34102e-01,9.34193e-01,9.99727e-01
7.387297469e-01,8.89506e-01,9.99999e-01,9.99999e-01,9.51003e-01,9.35450e-01,9.99875e-01
7.424233956e-01,9.13953e-01,9.99999e-01,9.99999e-01,9.75753e-01,9.36684e-01,9.99977e-01
7.461355126e-01,9.24020e-01,9.99999e-01,9.99999e-01,9.85209e-01,9.37895e-01,9.99995e-01
7.498661902e-01,9.32611e-01,9.99999e-01,9.99999e-01,9.93108e-01,9.39083e-01,9.99998e-01
7.536155211e-01,9.37056e-01,9.99999e-01,9.99999e-01,9.96602e-01,9.40250e-01,9.99998e-01
7.573835987e-01,9.39749e-01,9.99999e-01,9.99999e-01,9.98251e-01,9.41395e-01,9.99999e-01
7.611705167e-01,9.41494e-01,9.99999e-01,9.99999e-01,9.98912e-01,9.42519e-01,9.99999e-01
7.649763693e-01,9.42978e-01,9.99999e-01,9.99999e-01,9.99317e-01,9.43621e-01,9.99999e-01
7.688012511e-01,9.44254e-01,9.99999e-01,9.99999e-01,9.99523e-01,9.44704e-01,9.99999e-01
7.726452574e-01,9.45395e-01,9.99999e-01,9.99999e-01,9.99607e-01,9.45766e-01,9.99999e-01
7.765084837e-01,9.46276e-01,9.99999e-01,9.99999e-01,9.99438e-01,9.46808e-01,9.99998e-01
7.803910261e-01,9.45527e-01,9.99999e-01,9.99999e-01,9.97571e-01,9.47831e-01,9.99997e-01
7.842929812e-01,9.40799e-01,9.99999e-01,9.99999e-01,9.91545e-01,9.48834e-01,9.99984e-01
7.882144461e-01,9.33377e-01,9.99999e-01,9.99999e-01,9.82805e-01,9.49819e-01,9.99880e-01
7.921555184e-01,9.41645e-01,9.99999e-01,9.99999e-01,9.90590e-01,9.50785e-01,9.99793e-01
7.961162960e-01,9.35591e-01,9.99999e-01,9.99999e-01,9.83231e-01,9.51734e-01,9.99803e-01
8.000968774e-01,9.34133e-01,9.99999e-01,9.99999e-01,9.80752e-01,9.52664e-01,9.99790e-01
8.040973618e-01,9.35049e-01,9.99999e-01,9.99999e-01,9.80725e-01,9.53577e-01,9.99840e-01
8.081178486e-01,9.13217e-01,9.99999e-01,9.99999e-01,9.56930e-01,9.54473e-01,9.99838e-01
8.121584379e-01,7.96204e-01,9.99999e-01,9.99999e-01,8.33923e-01,9.55352e-01,9.99388e-01
8.162192301e-01,7.71266e-01,9.99999e-01,9.99999e-01,8.08440e-01,9.56214e-01,9.97701e-01
8.203003262e-01,8.59106e-01,9.99999e-01,9.99999e-01,9.00071e-01,9.57060e-01,9.97309e-01
8.244018279e-01,8.29447e-01,9.99999e-01,9.99999e-01,8.67768e-01,9.57890e-01,9.97858e-01
8.285238370e-01,8.41570e-01,9.99999e-01,9.99999e-01,8.79298e-01,9.58704e-01,9.98317e-01
8.326664562e-01,8.42650e-01,9.99999e-01,9.99999e-01,8.78825e-01,9.59503e-01,9.99303e-01
8.368297885e-01,8.75124e-01,9.99999e-01,9.99999e-01,9.11459e-01,9.60287e-01,9.99840e-01
8.410139374e-01,9.09409e-01,9.99999e-01,9.99999e-01,9.46348e-01,9.61056e-01,9.99906e-01
8.452190071e-01,9.36105e-01,9.99999e-01,9.99999e-01,9.73327e-01,9.61810e-01,9.99943e-01
8.494451021e-01,9.47464e-01,9.99999e-01,9.99999e-01,9.84369e-01,9.62550e-01,9.99954e-01
8.536923276e-01,9.54351e-01,9.99999e-01,9.99999e-01,9.90760e-01,9.63276e-01,9.99972e-01
8.579607893e-01,9.58472e-01,9.99999e-01,9.99999e-01,9.94283e-01,9.63988e-01,9.99993e-01
8.622505932e-01,9.61188e-01,9.99999e-01,9.99999e-01,9.96373e-01,9.64687e-01,9.99998e-01
8.665618462e-01,9.63197e-01,9.99999e-01,9.99999e-01,9.97747e-01,9.65372e-01,9.99998e-01
8.708946554e-01,9.63546e-01,9.99999e-01,9.99999e-01,9.97414e-01,9.66045e-01,9.99998e-01
8.752491287e-01,9.63362e-01,9.99999e-01,9.99999e-01,9.96545e-01,9.66704e-01,9.99995e-01
8.796253743e-01,9.62701e-01,9.99999e-01,9.99999e-01,9.95203e-01,9.67351e-01,9.99988e-01
8.840235012e-01,9.62657e-01,9.99999e-01,9.99999e-01,9.94527e-01,9.67985e-01,9.99966e-01
8.884436187e-01,9.49064e-01,9.99999e-01,9.99999e-01,9.79915e-01,9.68607e-01,9.99904e-01
8.928858368e-01,7.86684e-01,9.99999e-01,9.99999e-01,8.12111e-01,9.69218e-01,9.99453e-01
8.973502660e-01,6.73222e-01,9.99999e-01,9.99999e-01,6.96120e-01,9.69817e-01,9.97204e-01
9.018370173e-01,8.04377e-01,9.99999e-01,9.99999e-01,8.32564e-01,9.70404e-01,9.95609e-01
9.063462024e-01,8.20114e-01,9.99999e-01,9.99999e-01,8.47895e-01,9.70980e-01,9.96141e-01
9.108779334e-01,7.49413e-01,9.99999e-01,9.99999e-01,7.74466e-01,9.71545e-01,9.95991e-01
9.154323231e-01,7.24145e-01,9.99999e-01,9.99999e-01,7.47406e-01,9.72099e-01,9.96685e-01
9.200094847e-01,7.74138e-01,9.99999e-01,9.99999e-01,7.97392e-01,9.72642e-01,9.98143e-01
9.246095321e-01,6.87877e-01,9.99999e-01,9.99999e-01,7.08352e-01,9.73176e-01,9.97860e-01
9.292325798e-01,1.20907e-01,9.99999e-01,9.99999e-01,1.25463e-01,9.73698e-01,9.89716e-01
9.338787427e-01,6.36050e-02,9.99999e-01,9.99999e-01,6.77742e-02,9.74211e-01,9.63324e-01
9.385481364e-01,3.11879e-01,9.99999e-01,9.99999e-01,3.33378e-01,9.74714e-01,9.59779e-01
9.432408771e-01,2.15999e-01,9.99999e-01,9.99999e-01,2.29475e-01,9.75207e-01,9.65203e-01
9.479570815e-01,1.21554e-01,9.99999e-01,9.99999e-01,1.28225e-01,9.75691e-01,9.71587e-01
9.526968669e-01,1.94498e-01,9.99999e-01,9.99999e-01,2.02781e-01,9.76165e-01,9.82572e-01
9.574603512e-01,2.10278e-01,9.99999e-01,9.99999e-01,2.17241e-01,9.76630e-01,9.91109e-01
9.622476530e-01,2.73694e-01,9.99999e-01,9.99999e-01,2.81847e-01,9.77087e-01,9.93843e-01
9.670588912e-01,4.63836e-01,9.99999e-01,9.99999e-01,4.76503e-01,9.77534e-01,9.95785e-01
9.718941857e-01,6.02322e-01,9.99999e-01,9.99999e-01,6.17805e-01,9.77973e-01,9.96895e-01
9.767536566e-01,6.53760e-01,9.99999e-01,9.99999e-01,6.69779e-01,9.78403e-01,9.97626e-01
9.816374249e-01,7.25693e-01,9.99999e-01,9.99999e-01,7.42001e-01,9.78825e-01,9.99177e-01
9.865456120e-01,8.11925e-01,9.99999e-01,9.99999e-01,8.29279e-01,9.79239e-01,9.99828e-01
9.914783401e-01,8.72180e-01,9.99999e-01,9.99999e-01,8.90343e-01,9.79645e-01,9.99952e-01
9.964357318e-01,9.19943e-01,9.99999e-01,9.99999e-01,9.38701e-01,9.80043e-01,9.99971e-01
1.001417910e+00,9.43910e-01,9.99999e-01,9.99999e-01,9.62787e-01,9.80433e-01,9.99957e-01
1.006425000e+00,9.59727e-01,9.99999e-01,9.99999e-01,9.78556e-01,9.80816e-01,9.99939e-01
1.011457125e+00,9.68063e-01,9.99999e-01,9.99999e-01,9.86674e-01,9.81191e-01,9.99943e-01
1.016514411e+00,9.72609e-01,9.99999e-01,9.99999e-01,9.90920e-01,9.81559e-01,9.99959e-01
1.021596983e+00,9.74767e-01,9.99999e-01,9.99999e-01,9.92752e-01,9.81920e-01,9.99960e-01
1.026704968e+00,9.76692e-01,9.99999e-01,9.99999e-01,9.94340e-01,9.82274e-01,9.99975e-01
1.031838492e+00,9.78579e-01,9.99999e-01,9.99999e-01,9.95893e-01,9.82621e-01,9.99992e-01
1.036997685e+00,9.80556e-01,9.99999e-01,9.99999e-01,9.97553e-01,9.82962e-01,9.99998e-01
1.042182673e+00,9.80416e-01,9.99999e-01,9.99999e-01,9.97072e-01,9.83295e-01,9.99998e-01
1.047393587e+00,9.79812e-01,9.99999e-01,9.99999e-01,9.96126e-01,9.83623e-01,9.99998e-01
1.052630555e+00,9.78709e-01,9.99999e-01,9.99999e-01,9.94680e-01,9.83943e-01,9.99998e-01
1.057893707e+00,9.75517e-01,9.99999e-01,9.99999e-01,9.91121e-01,9.84258e-01,9.99996e-01
1.063183176e+00,9.70235e-01,9.99999e-01,9.99999e-01,9.85450e-01,9.84567e-01,9.99991e-01
1.068499092e+00,9.61019e-01,9.99999e-01,9.99999e-01,9.75799e-01,9.84869e-01,9.99983e-01
1.073841587e+00,9.57271e-01,9.99999e-01,9.99999e-01,9.71719e-01,9.85166e-01,9.99963e-01
1.079210795e+00,9.49881e-01,9.99999e-01,9.99999e-01,9.63993e-01,9.85457e-01,9.99901e-01
1.084606849e+00,9.32261e-01,9.99999e-01,9.99999e-01,9.45967e-01,9.85742e-01,9.99764e-01
1.090029883e+00,9.09692e-01,9.99999e-01,9.99999e-01,9.23037e-01,9.86021e-01,9.99512e-01
1.095480033e+00,7.92893e-01,9.99999e-01,9.99999e-01,8.04619e-01,9.86296e-01,9.99118e-01
1.100957433e+00,5.71780e-01,9.99999e-01,9.99999e-01,5.80508e-01,9.86564e-01,9.98377e-01
1.106462220e+00,2.64295e-01,9.99999e-01,9.99999e-01,2.68561e-01,9.86828e-01,9.97250e-01
1.111994531e+00,6.78879e-02,9.99999e-01,9.99999e-01,6.92805e-02,9.87087e-01,9.92716e-01
1.117554504e+00,1.54791e-02,9.99999e-01,9.99999e-01,1.60968e-02,9.87340e-01,9.73954e-01
1.123142276e+00,5.74426e-02,9.99999e-01,9.99999e-01,6.19208e-02,9.87588e-01,9.39336e-01
1.128757988e+00,1.25889e-01,9.99999e-01,9.99999e-01,1.37008e-01,9.87832e-01,9.30161e-01
1.134401778e+00,5.86693e-02,9.99999e-01,9.99999e-01,6.31477e-02,9.88071e-01,9.40296e-01
1.140073787e+00,2.68407e-01,9.99999e-01,9.99999e-01,2.85275e-01,9.88305e-01,9.52004e-01
1.145774156e+00,8.65817e-02,9.99999e-01,9.99999e-01,9.16192e-02,9.88535e-01,9.55976e-01
1.151503026e+00,6.78470e-02,9.99999e-01,9.99999e-01,7.03610e-02,9.88760e-01,9.75230e-01
1.157260541e+00,8.79948e-02,9.99999e-01,9.99999e-01,8.96449e-02,9.88981e-01,9.92528e-01
1.163046844e+00,1.63464e-01,9.99999e-01,9.99999e-01,1.65600e-01,9.89197e-01,9.97876e-01
1.168862078e+00,2.70533e-01,9.99999e-01,9.99999e-01,2.73728e-01,9.89409e-01,9.98905e-01
1.174706389e+00,4.42189e-01,9.99999e-01,9.99999e-01,4.47477e-01,9.89618e-01,9.98549e-01
1.180579921e+00,6.03000e-01,9.99999e-01,9.99999e-01,6.10538e-01,9.89822e-01,9.97807e-01
1.186482820e+00,7.45107e-01,9.99999e-01,9.99999e-01,7.54314e-01,9.90022e-01,9.97749e-01
1.192415234e+00,8.37886e-01,9.99999e-01,9.99999e-01,8.47591e-01,9.90218e-01,9.98314e-01
1.198377311e+00,8.60053e-01,9.99999e-01,9.99999e-01,8.69771e-01,9.90410e-01,9.98400e-01
1.204369197e+00,8.67455e-01,9.99999e-01,9.99999e-01,8.76909e-01,9.90598e-01,9.98606e-01
1.210391043e+00,8.72797e-01,9.99999e-01,9.99999e-01,8.81688e-01,9.90783e-01,9.99123e-01
1.216442998e+00,8.90041e-01,9.99999e-01,9.99999e-01,8.98638e-01,9.90965e-01,9.99462e-01
1.222525213e+00,9.11461e-01,9.99999e-01,9.99999e-01,9.19912e-01,9.91142e-01,9.99666e-01
1.228637839e+00,9.35274e-01,9.99999e-01,9.99999e-01,9.43613e-01,9.91316e-01,9.99844e-01
